Timestamp, Angle x, Angle y, Angle z, Marker
40,-0.988112,0.495661,2.23941,0
60,-0.987497,0.495699,2.23974,0
80,-0.987131,0.495814,2.24008,0
100,-0.98651,0.49595,2.24063,0
120,-0.985778,0.495973,2.24121,0
140,-0.985133,0.49626,2.24171,0
150,-0.984823,0.496478,2.24193,0
150,-0.984478,0.496838,2.24246,0
200,-0.983994,0.496937,2.24305,0
220,-0.983486,0.496981,2.24349,0
240,-0.983486,0.496981,2.24349,0
260,-0.984228,0.497198,2.24345,0
280,-0.984939,0.497459,2.24348,0
300,-0.985321,0.497691,2.24355,0
320,-0.985011,0.498114,2.24387,0
340,-0.984422,0.498504,2.24425,0
360,-0.983471,0.499114,2.24484,0
380,-0.982826,0.499905,2.24533,0
400,-0.982287,0.500497,2.24583,0
420,-0.982022,0.501016,2.2464,0
440,-0.982167,0.501218,2.24698,0
460,-0.982711,0.501263,2.24715,0
480,-0.982848,0.501226,2.24719,0
500,-0.982935,0.501285,2.24701,0
510,-0.983016,0.501444,2.24705,0
530,-0.983016,0.501444,2.24705,0
550,-0.983016,0.501444,2.24705,0
570,-0.983128,0.501558,2.24702,0
590,-0.983098,0.501602,2.24709,0
610,-0.98379,0.501618,2.24694,0
630,-0.98462,0.501391,2.24672,0
650,-0.985418,0.50091,2.24668,0
670,-0.986017,0.500256,2.24686,0
690,-0.986678,0.499812,2.24678,0
710,-0.98714,0.499195,2.24692,0
730,-0.987216,0.498743,2.24711,0
750,-0.987261,0.498541,2.24746,0
770,-0.987057,0.498262,2.24781,0
790,-0.987215,0.497969,2.24804,0
810,-0.987455,0.497834,2.24831,0
830,-0.987918,0.497722,2.24844,0
850,-0.988158,0.497588,2.24872,0
870,-0.98851,0.497362,2.24888,0
890,-0.988836,0.496988,2.24907,0
910,-0.989193,0.496869,2.2491,0
930,-0.989493,0.496645,2.24923,0
950,-0.989434,0.496231,2.24938,0
970,-0.989623,0.495894,2.24955,0
990,-0.989623,0.495894,2.24955,0
1010,-0.98976,0.495857,2.24958,0
1030,-0.989847,0.495917,2.2494,0
1050,-0.989395,0.495766,2.24983,0
1070,-0.989135,0.495887,2.25027,0
1090,-0.989127,0.495676,2.25054,0
1110,-0.989479,0.495656,2.25079,0
1130,-0.989639,0.495364,2.25103,0
1150,-0.989631,0.494854,2.2514,0
1170,-0.989541,0.494689,2.25171,0
1190,-0.989593,0.494389,2.25184,0
1210,-0.989504,0.494224,2.25216,0
1230,-0.989641,0.494188,2.25219,0
1250,-0.989616,0.494134,2.25204,0
1270,-0.989727,0.494247,2.25201,0
1290,-0.989697,0.494292,2.25208,0
1310,-0.989692,0.494391,2.25231,0
1330,-0.989465,0.494263,2.25259,0
1350,-0.989125,0.494225,2.25299,0
1370,-0.988979,0.494256,2.25332,0
1390,-0.98909,0.494369,2.25329,0
1410,-0.989036,0.49436,2.25321,0
1430,-0.989113,0.494114,2.25349,0
1450,-0.989137,0.493859,2.25369,0
1470,-0.98891,0.49373,2.25397,0
1490,-0.988851,0.493521,2.25421,0
1510,-0.988851,0.493521,2.25421,0
1530,-0.988821,0.493566,2.25429,0
1550,-0.988821,0.493566,2.25429,0
1570,-0.988955,0.493424,2.25446,0
1590,-0.989004,0.493223,2.25481,0
1610,-0.988777,0.493095,2.25509,0
1630,-0.988274,0.493243,2.25539,0
1650,-0.988244,0.493288,2.25546,0
1670,-0.988244,0.493288,2.25546,0
1690,-0.988492,0.493365,2.25547,0
1710,-0.988467,0.493311,2.25532,0
1730,-0.988715,0.493389,2.25532,0
1750,-0.988715,0.493389,2.25532,0
1770,-0.988715,0.493389,2.25532,0
1790,-0.98829,0.49359,2.25581,0
1810,-0.988255,0.493734,2.2561,0
1830,-0.988365,0.493539,2.25612,0
1850,-0.988825,0.493529,2.25648,0
1870,-0.989151,0.493351,2.25671,0
1890,-0.989561,0.493137,2.25695,0
1910,-0.988888,0.492962,2.25752,0
1930,-0.988051,0.492972,2.258,0
1950,-0.986959,0.493208,2.25879,0
1970,-0.986368,0.493595,2.25917,0
1990,-0.986356,0.494092,2.25952,0
2010,-0.985984,0.494602,2.25998,0
2030,-0.985307,0.494929,2.26055,0
2050,-0.984578,0.494947,2.26114,0
2070,-0.984212,0.495058,2.26147,0
2090,-0.984347,0.494916,2.26165,0
2110,-0.984485,0.49488,2.26168,0
2130,-0.98426,0.494751,2.26196,0
2150,-0.984007,0.494772,2.26218,0
2170,-0.984007,0.494772,2.26218,0
2190,-0.9842,0.494841,2.26211,0
2210,-0.983691,0.495086,2.26264,0
2230,-0.982767,0.495334,2.2632,0
2250,-0.981704,0.495522,2.26392,0
2270,-0.980838,0.495574,2.26447,0
2290,-0.98022,0.495705,2.26503,0
2310,-0.979571,0.49588,2.26566,0
2330,-0.9787,0.49603,2.26644,0
2350,-0.978024,0.496355,2.26702,0
2370,-0.977375,0.496529,2.26765,0
2390,-0.976813,0.496869,2.26797,0
2410,-0.976136,0.497193,2.26854,0
2430,-0.975465,0.497418,2.26889,0
2450,-0.975574,0.497533,2.26886,0
2470,-0.976429,0.497264,2.26894,0
2490,-0.977621,0.497035,2.26861,0
2510,-0.977868,0.497114,2.26861,0
2530,-0.977751,0.497504,2.26864,0
2550,-0.97735,0.498267,2.26891,0
2570,-0.976338,0.498857,2.26943,0
2590,-0.97541,0.499307,2.27009,0
2610,-0.974868,0.5,2.27047,0
2630,-0.975017,0.500717,2.27069,0
2650,-0.974989,0.500867,2.27063,0
2670,-0.974209,0.500572,2.27124,0
2690,-0.973707,0.500311,2.27178,0
2710,-0.973707,0.500311,2.27178,0
2730,-0.974163,0.500601,2.27204,0
2750,-0.975704,0.500967,2.27181,0
2770,-0.977436,0.501297,2.27165,0
2790,-0.979202,0.502093,2.27105,0
2810,-0.980935,0.503034,2.27075,0
2830,-0.982778,0.50439,2.27032,0
2850,-0.984682,0.506161,2.26974,0
2870,-0.986958,0.507718,2.26895,0
2890,-0.990057,0.508808,2.26776,0
2910,-0.994173,0.509599,2.2663,0
2930,-0.999199,0.510586,2.26449,0
2950,-1.0036,0.511756,2.26258,0
2970,-1.00754,0.51313,2.26077,0
2990,-1.01164,0.514468,2.25862,0
3010,-1.0151,0.515885,2.25652,0
3030,-1.01898,0.517136,2.25437,0
3050,-1.02343,0.51814,2.25177,0
3070,-1.0276,0.518702,2.24948,0
3080,-1.03195,0.518868,2.24684,0
3100,-1.0359,0.518995,2.24458,0
3120,-1.0397,0.519302,2.24223,0
3140,-1.0428,0.519334,2.24023,0
3160,-1.04568,0.519444,2.23825,0
3180,-1.04812,0.51936,2.23663,0
3200,-1.05094,0.519665,2.23502,0
3220,-1.05383,0.520177,2.23352,0
3240,-1.05602,0.520871,2.23188,0
3260,-1.05745,0.521642,2.23054,0
3280,-1.05847,0.522682,2.22945,0
3300,-1.05922,0.523344,2.22848,0
3320,-1.05963,0.523829,2.22798,0
3340,-1.06,0.523957,2.22743,0
3360,-1.0604,0.524037,2.22682,0
3380,-1.06034,0.523721,2.22648,0
3400,-1.0606,0.523799,2.22649,0
3420,-1.06058,0.523741,2.22634,0
3440,-1.05999,0.523796,2.22675,0
3460,-1.059,0.523706,2.22725,0
3480,-1.05839,0.523559,2.22794,0
3500,-1.05867,0.523899,2.2285,0
3520,-1.05929,0.524065,2.22893,0
3540,-1.05928,0.524482,2.22977,0
3560,-1.05931,0.525152,2.23043,0
3580,-1.05967,0.526003,2.23097,0
3600,-1.06092,0.526683,2.23112,0
3620,-1.06256,0.528005,2.23106,0
3640,-1.06398,0.529852,2.23045,0
3660,-1.06539,0.533245,2.22898,0
3680,-1.06551,0.537437,2.22784,0
3700,-1.06355,0.542139,2.22656,0
3720,-1.05967,0.546871,2.22502,0
3740,-1.05455,0.55165,2.223,0
3760,-1.04876,0.556439,2.22083,0
3780,-1.04332,0.561036,2.21848,0
3800,-1.03887,0.564511,2.21597,0
3820,-1.03663,0.567435,2.21323,0
3840,-1.03544,0.569828,2.2105,0
3860,-1.03533,0.570982,2.20824,0
3880,-1.03621,0.57192,2.20632,0
3900,-1.03689,0.572034,2.20479,0
3920,-1.03677,0.571301,2.20348,0
3940,-1.03575,0.569947,2.20323,0
3960,-1.03479,0.567474,2.20408,0
3980,-1.03452,0.563836,2.20606,0
4000,-1.03507,0.559808,2.20861,0
4020,-1.0351,0.55748,2.21169,0
4040,-1.03397,0.557538,2.21437,0
4060,-1.03269,0.558709,2.21704,0
4080,-1.03172,0.560254,2.22,0
4100,-1.0324,0.563378,2.22269,0
4120,-1.03423,0.567216,2.22511,0
4140,-1.03621,0.57062,2.22784,0
4160,-1.03783,0.573338,2.23071,0
4180,-1.03924,0.575783,2.23281,0
4200,-1.04093,0.577795,2.23418,0
4220,-1.04238,0.579225,2.23489,0
4240,-1.0426,0.579183,2.23457,0
4260,-1.04286,0.578069,2.23315,0
4280,-1.04264,0.575981,2.23119,0
4300,-1.043,0.574363,2.22953,0
4320,-1.04372,0.574162,2.22849,0
4340,-1.0454,0.574454,2.22733,0
4360,-1.04738,0.575499,2.22685,0
4380,-1.05039,0.577925,2.22664,0
4400,-1.05443,0.581563,2.2263,0
4420,-1.05889,0.586137,2.22669,0
4440,-1.06237,0.590584,2.22754,0
4460,-1.06326,0.593817,2.22887,0
4480,-1.06349,0.596696,2.23013,0
4500,-1.06398,0.598613,2.23107,0
4520,-1.0644,0.599285,2.23164,0
4540,-1.06539,0.598309,2.23181,0
4560,-1.06604,0.596236,2.23248,0
4580,-1.06604,0.594516,2.23378,0
4600,-1.06595,0.593527,2.23542,0
4620,-1.06551,0.593574,2.23708,0
4640,-1.06495,0.594788,2.23882,0
4660,-1.06499,0.597868,2.24037,0
4680,-1.06566,0.601313,2.24162,0
4700,-1.06661,0.604225,2.24303,0
4720,-1.06699,0.606274,2.24491,0
4740,-1.06674,0.607383,2.24667,0
4760,-1.0662,0.607055,2.24789,0
4780,-1.06564,0.60537,2.24887,0
4800,-1.06602,0.60348,2.2497,0
4820,-1.06678,0.6022,2.25055,0
4840,-1.06753,0.60129,2.25027,0
4860,-1.06767,0.601258,2.2503,0
4880,-1.06698,0.601133,2.25033,0
4900,-1.06595,0.602107,2.25054,0
4920,-1.06536,0.603754,2.25095,0
4940,-1.06522,0.605192,2.25122,0
4960,-1.06518,0.605668,2.25181,0
4980,-1.06465,0.605416,2.25241,0
5000,-1.06364,0.604757,2.253,0
5020,-1.06251,0.603979,2.25361,0
5040,-1.06157,0.603223,2.25404,0
5060,-1.06124,0.602453,2.25371,0
5080,-1.06164,0.602017,2.25307,0
5100,-1.06261,0.601945,2.25209,0
5120,-1.06319,0.602035,2.25117,0
5140,-1.06393,0.602139,2.25037,0
5160,-1.06448,0.602552,2.25011,0
5180,-1.06459,0.602607,2.24991,0
5200,-1.06531,0.602644,2.25011,0
5220,-1.06548,0.60266,2.25024,0
5240,-1.06548,0.60266,2.25024,0
5260,-1.06495,0.602626,2.25095,0
5280,-1.06495,0.602626,2.25095,0
5300,-1.06494,0.602523,2.25109,0
5320,-1.06489,0.602116,2.25134,0
5340,-1.06489,0.602116,2.25134,0
5360,-1.06489,0.602116,2.25134,0
5380,-1.06444,0.60244,2.25171,0
5400,-1.06465,0.602624,2.25187,0
5420,-1.06453,0.602466,2.25221,0
5440,-1.06473,0.602434,2.25226,0
5460,-1.06473,0.602434,2.25226,0
5480,-1.06441,0.602622,2.25281,0
5500,-1.06441,0.602622,2.25281,0
5520,-1.06416,0.602855,2.25277,0
5540,-1.0641,0.602932,2.25214,0
5560,-1.06384,0.603242,2.25148,0
5580,-1.06384,0.603223,2.2507,0
5600,-1.0639,0.602738,2.24973,0
5620,-1.06411,0.60222,2.2488,0
5640,-1.06387,0.601658,2.24821,0
5650,-1.06363,0.60121,2.24786,0
5670,-1.06363,0.600898,2.24759,0
5690,-1.0635,0.600778,2.24763,0
5710,-1.06364,0.600745,2.24766,0
5730,-1.06363,0.600603,2.24811,0
5750,-1.06346,0.600606,2.24876,0
5770,-1.06328,0.600506,2.24955,0
5790,-1.06306,0.600493,2.25011,0
5810,-1.06288,0.600393,2.2509,0
5830,-1.06265,0.600493,2.2517,0
5850,-1.06244,0.600697,2.25236,0
5870,-1.06249,0.60081,2.25262,0
5890,-1.06246,0.600858,2.2527,0
5910,-1.06259,0.600978,2.25267,0
5930,-1.06259,0.600978,2.25267,0
5950,-1.06263,0.600816,2.25235,0
5970,-1.06226,0.60093,2.25234,0
5990,-1.06207,0.60085,2.25205,0
6010,-1.06212,0.600792,2.25159,0
6030,-1.06219,0.600695,2.25144,0
6050,-1.06219,0.600695,2.25144,0
6070,-1.06244,0.600717,2.25128,0
6090,-1.06258,0.600685,2.25131,0
6110,-1.0621,0.600375,2.25146,0
6130,-1.06162,0.600178,2.25185,0
6150,-1.06135,0.600166,2.25239,0
6170,-1.0613,0.600072,2.25291,0
6190,-1.06156,0.600368,2.25332,0
6210,-1.062,0.600432,2.25376,0
6230,-1.06167,0.600517,2.25446,0
6250,-1.06123,0.600433,2.25511,0
6270,-1.06091,0.600365,2.25586,0
6290,-1.06127,0.60011,2.25632,0
6310,-1.06146,0.600304,2.25686,0
6330,-1.06146,0.600304,2.25686,0
6350,-1.06104,0.600323,2.25737,0
6370,-1.06101,0.600372,2.25744,0
6390,-1.06099,0.600307,2.25728,0
6410,-1.06126,0.600395,2.25728,0
6430,-1.06124,0.600546,2.25722,0
6450,-1.06121,0.600595,2.25729,0
6470,-1.06146,0.600618,2.25713,0
6490,-1.06146,0.600618,2.25713,0
6510,-1.06119,0.600178,2.25716,0
6530,-1.06132,0.600298,2.25713,0
6550,-1.0613,0.600233,2.25697,0
6570,-1.06183,0.599936,2.25708,0
6590,-1.06213,0.600034,2.25748,0
6610,-1.06217,0.600261,2.25798,0
6630,-1.06225,0.60064,2.25844,0
6650,-1.06252,0.601508,2.25893,0
6670,-1.06247,0.602136,2.25945,0
6690,-1.06247,0.602136,2.25945,0
6710,-1.06229,0.602471,2.25929,0
6730,-1.06151,0.60243,2.25907,0
6750,-1.06114,0.602115,2.25854,0
6770,-1.06135,0.601597,2.2576,0
6790,-1.06227,0.601158,2.25656,0
6810,-1.06307,0.600598,2.25555,0
6830,-1.06324,0.599874,2.2549,0
6850,-1.06362,0.599296,2.25471,0
6870,-1.06365,0.599247,2.25463,0
6890,-1.06377,0.59915,2.2545,0
6910,-1.06474,0.599678,2.25475,0
6930,-1.06542,0.600232,2.25524,0
6950,-1.06572,0.600758,2.25615,0
6970,-1.06558,0.600926,2.25714,0
6990,-1.06495,0.601189,2.25801,0
7010,-1.06491,0.601351,2.25833,0
7030,-1.06478,0.601232,2.25836,0
7050,-1.06478,0.601232,2.25836,0
7070,-1.0646,0.600998,2.25813,0
7090,-1.06435,0.60066,2.25801,0
7110,-1.06418,0.600275,2.25785,0
7130,-1.06418,0.600275,2.25785,0
7150,-1.06431,0.600395,2.25782,0
7170,-1.06421,0.599972,2.25798,0
7190,-1.06435,0.599685,2.25822,0
7210,-1.0644,0.599913,2.25872,0
7230,-1.06428,0.60007,2.25933,0
7250,-1.06426,0.600357,2.26029,0
7270,-1.06389,0.600605,2.2613,0
7290,-1.06293,0.600778,2.26215,0
7310,-1.06189,0.600885,2.2628,0
7330,-1.06032,0.600717,2.26328,0
7350,-1.05917,0.60038,2.26331,0
7370,-1.05867,0.600058,2.26306,0
7390,-1.05863,0.599831,2.26255,0
7410,-1.05877,0.599799,2.26259,0
7430,-1.05885,0.59955,2.2625,0
7450,-1.0586,0.598704,2.2628,0
7470,-1.05821,0.598105,2.26316,0
7490,-1.05786,0.597772,2.26372,0
7510,-1.05829,0.59799,2.2641,0
7530,-1.05869,0.598002,2.26475,0
7550,-1.05861,0.597817,2.2658,0
7570,-1.05775,0.59776,2.26734,0
7590,-1.05605,0.598031,2.26939,0
7610,-1.05484,0.598348,2.27112,0
7630,-1.05383,0.598321,2.27263,0
7650,-1.05271,0.59853,2.27383,0
7670,-1.05132,0.598448,2.27498,0
7690,-1.05013,0.598125,2.27578,0
7710,-1.0485,0.597591,2.27657,0
7730,-1.04747,0.597123,2.27716,0
7750,-1.04666,0.596729,2.27766,0
7770,-1.04583,0.596231,2.2783,0
7790,-1.04494,0.595628,2.27906,0
7810,-1.04427,0.595201,2.27959,0
7830,-1.04336,0.595205,2.28012,0
7850,-1.04256,0.595338,2.281,0
7870,-1.04183,0.595534,2.28207,0
7890,-1.04123,0.595596,2.28331,0
7910,-1.03989,0.595405,2.28464,0
7930,-1.03872,0.59539,2.28571,0
7950,-1.0375,0.59526,2.28652,0
7970,-1.03649,0.595205,2.28725,0
7990,-1.03533,0.595291,2.28818,0
8010,-1.03396,0.595047,2.2894,0
8030,-1.03243,0.594355,2.29029,0
8050,-1.03095,0.593678,2.29125,0
8070,-1.02912,0.593372,2.29241,0
8090,-1.02771,0.59291,2.29351,0
8110,-1.02593,0.592299,2.29479,0
8130,-1.02408,0.591477,2.29633,0
8150,-1.02194,0.590827,2.29804,0
8170,-1.01948,0.590083,2.29973,0
8190,-1.01648,0.588854,2.30151,0
8210,-1.01409,0.587908,2.30317,0
8220,-1.01162,0.58658,2.30469,0
8240,-1.00893,0.585284,2.30652,0
8260,-1.00557,0.584202,2.30836,0
8280,-1.00153,0.582986,2.3106,0
8300,-0.997252,0.58174,2.31338,0
8320,-0.993209,0.57979,2.31627,0
8340,-0.98935,0.577032,2.31935,0
8360,-0.984753,0.57474,2.32222,0
8380,-0.979091,0.571735,2.32464,0
8400,-0.970856,0.568231,2.328,0
8420,-0.960313,0.564972,2.33184,0
8440,-0.947479,0.56055,2.33716,0
8460,-0.934202,0.554228,2.34266,0
8480,-0.921591,0.548309,2.3483,0
8500,-0.910171,0.543552,2.35355,0
8520,-0.899412,0.538268,2.35912,0
8540,-0.888428,0.531549,2.36528,0
8560,-0.87623,0.523563,2.37206,0
8580,-0.86354,0.515083,2.37907,0
8600,-0.848236,0.506837,2.38703,0
8620,-0.83842,0.499883,2.39295,0
8640,-0.830269,0.496729,2.39737,0
8660,-0.823163,0.495936,2.40147,0
8680,-0.81769,0.496307,2.40459,0
8700,-0.811938,0.497818,2.40769,0
8720,-0.807069,0.499831,2.40992,0
8740,-0.803274,0.50226,2.41207,0
8760,-0.800934,0.504447,2.4134,0
8780,-0.800501,0.506262,2.41387,0
8800,-0.80105,0.506858,2.41385,0
8820,-0.802398,0.506271,2.41325,0
8840,-0.804498,0.50508,2.41194,0
8860,-0.806939,0.504045,2.41052,0
8880,-0.809431,0.503106,2.40937,0
8900,-0.811481,0.501787,2.40816,0
8920,-0.814071,0.500455,2.40689,0
8940,-0.81736,0.499024,2.40549,0
8960,-0.820708,0.4979,2.40417,0
8980,-0.824348,0.497021,2.4029,0
9000,-0.8276,0.496286,2.40174,0
9020,-0.829796,0.495901,2.40071,0
9040,-0.831186,0.495819,2.40032,0
9060,-0.832165,0.495658,2.40022,0
9080,-0.832375,0.495251,2.40055,0
9100,-0.832962,0.494812,2.40066,0
9120,-0.83339,0.494183,2.40097,0
9140,-0.832817,0.493492,2.40159,0
9160,-0.831961,0.492952,2.4024,0
9180,-0.830871,0.492983,2.40333,0
9200,-0.829498,0.493587,2.40434,0
9220,-0.827127,0.494277,2.40567,0
9240,-0.824438,0.495004,2.40727,0
9260,-0.821538,0.495715,2.40867,0
9280,-0.818487,0.496145,2.41004,0
9300,-0.815441,0.496,2.41152,0
9320,-0.812303,0.495187,2.41277,0
9340,-0.810291,0.494097,2.41371,0
9360,-0.809105,0.492993,2.41439,0
9380,-0.80886,0.491712,2.41447,0
9400,-0.809383,0.490655,2.41448,0
9420,-0.810141,0.489751,2.41427,0
9440,-0.810933,0.489354,2.41423,0
9460,-0.812423,0.489681,2.41418,0
9480,-0.813701,0.490145,2.41393,0
9500,-0.814696,0.490757,2.41387,0
9520,-0.815475,0.491442,2.41383,0
9540,-0.816119,0.491736,2.41389,0
9560,-0.816892,0.491539,2.41394,0
9580,-0.817858,0.491072,2.41383,0
9600,-0.819358,0.490346,2.41342,0
9620,-0.821174,0.489431,2.41273,0
9640,-0.823392,0.488684,2.41197,0
9660,-0.825247,0.488277,2.41144,0
9680,-0.826869,0.488202,2.41082,0
9700,-0.828016,0.488547,2.41054,0
9720,-0.828259,0.489096,2.41055,0
9740,-0.827928,0.489547,2.41071,0
9760,-0.827512,0.490126,2.41112,0
9780,-0.826752,0.490846,2.41168,0
9800,-0.826164,0.491495,2.41217,0
9820,-0.825794,0.491922,2.41263,0
9840,-0.825552,0.492159,2.41311,0
9860,-0.825353,0.492667,2.41351,0
9880,-0.82511,0.492903,2.41399,0
9900,-0.825382,0.493079,2.41426,0
9920,-0.826327,0.493536,2.41414,0
9940,-0.827614,0.494424,2.41378,0
9960,-0.829042,0.495282,2.41342,0
9980,-0.830088,0.495771,2.41305,0
10000,-0.831102,0.49615,2.41275,0
10020,-0.832308,0.496107,2.41228,0
10040,-0.833647,0.495785,2.4116,0
10060,-0.835041,0.496132,2.41108,0
10080,-0.836277,0.496861,2.41065,0
10100,-0.837357,0.49755,2.41043,0
10120,-0.83859,0.498367,2.41022,0
10140,-0.839173,0.499189,2.40997,0
10160,-0.839436,0.500051,2.41,0
10180,-0.839436,0.500051,2.41,0
10200,-0.838884,0.500001,2.41028,0
10220,-0.838881,0.499429,2.41039,0
10240,-0.839399,0.498945,2.41031,0
10260,-0.84039,0.498702,2.40999,0
10280,-0.840457,0.498773,2.40982,0
10300,-0.840596,0.498742,2.40984,0
10320,-0.840418,0.498902,2.41014,0
10340,-0.840479,0.499062,2.4102,0
10360,-0.840446,0.499102,2.41029,0
10380,-0.84054,0.499222,2.41026,0
10400,-0.840653,0.499142,2.41014,0
10420,-0.840653,0.499142,2.41014,0
10440,-0.841213,0.49917,2.41022,0
10460,-0.84185,0.499669,2.41037,0
10480,-0.842081,0.500149,2.41061,0
10500,-0.842545,0.50072,2.41083,0
10520,-0.844134,0.5017,2.4105,0
10540,-0.846783,0.503019,2.40978,0
10560,-0.84909,0.50433,2.4092,0
10580,-0.85003,0.505162,2.40881,0
10600,-0.850027,0.505404,2.40905,0
10620,-0.84964,0.504862,2.40939,0
10640,-0.849696,0.50445,2.40956,0
10660,-0.849669,0.5044,2.40943,0
10680,-0.849763,0.50452,2.40939,0
10700,-0.849763,0.50452,2.40939,0
10720,-0.849438,0.504803,2.4099,0
10740,-0.849057,0.504834,2.41013,0
10760,-0.848979,0.505025,2.41017,0
10780,-0.848592,0.505147,2.41062,0
10790,-0.848189,0.504957,2.41105,0
10810,-0.847786,0.504766,2.41149,0
10830,-0.847217,0.504557,2.41178,0
10850,-0.846768,0.504518,2.41217,0
10870,-0.84578,0.504739,2.41285,0
10890,-0.844873,0.504921,2.41351,0
10910,-0.843804,0.504911,2.41436,0
10930,-0.843399,0.505383,2.41492,0
10950,-0.843057,0.506168,2.41554,0
10970,-0.842287,0.506981,2.41633,0
10990,-0.841166,0.507362,2.41738,0
11010,-0.840111,0.507662,2.41826,0
11030,-0.839344,0.507811,2.41893,0
11050,-0.839344,0.507811,2.41893,0
11070,-0.840193,0.507691,2.41882,0
11090,-0.841043,0.507572,2.4187,0
11110,-0.842039,0.507332,2.41837,0
11130,-0.842039,0.507332,2.41837,0
11150,-0.842153,0.507252,2.41825,0
11170,-0.842217,0.508056,2.4188,0
11190,-0.841699,0.508759,2.41949,0
11210,-0.840992,0.509069,2.42022,0
11230,-0.840464,0.509219,2.42066,0
11250,-0.84033,0.509229,2.42101,0
11270,-0.840156,0.508877,2.42121,0
11290,-0.840277,0.508625,2.42144,0
11310,-0.840611,0.508324,2.42129,0
11330,-0.840724,0.508244,2.42117,0
11350,-0.840517,0.508203,2.42132,0
11370,-0.839896,0.508232,2.42178,0
11390,-0.839261,0.508371,2.42211,0
11410,-0.839354,0.508492,2.42208,0
11430,-0.838774,0.509033,2.42272,0
11450,-0.838395,0.509705,2.42343,0
11470,-0.838658,0.510571,2.42346,0
11490,-0.838578,0.510762,2.4235,0
11510,-0.83957,0.510766,2.42341,0
11530,-0.84081,0.510599,2.42344,0
11550,-0.841615,0.51021,2.42339,0
11570,-0.842198,0.50989,2.42337,0
11590,-0.842485,0.509318,2.4233,0
11610,-0.84294,0.508766,2.42338,0
11630,-0.843637,0.508367,2.42323,0
11650,-0.844583,0.508371,2.42309,0
11670,-0.845756,0.508215,2.4227,0
11690,-0.846594,0.507787,2.42257,0
11710,-0.847386,0.507508,2.4224,0
11730,-0.847494,0.507519,2.42251,0
11750,-0.8473,0.507369,2.4228,0
11770,-0.847394,0.507489,2.42277,0
11790,-0.847394,0.507489,2.42277,0
11810,-0.847508,0.50741,2.42265,0
11830,-0.847508,0.50741,2.42265,0
11850,-0.848148,0.507916,2.4228,0
11870,-0.848148,0.507916,2.4228,0
11890,-0.84821,0.508077,2.42286,0
11910,-0.848163,0.508227,2.42281,0
11930,-0.848205,0.50832,2.4231,0
11950,-0.849234,0.508286,2.42293,0
11970,-0.850195,0.50818,2.42292,0
11990,-0.850832,0.507621,2.42272,0
12010,-0.851496,0.507111,2.42266,0
12030,-0.851906,0.506863,2.42271,0
12050,-0.852631,0.506515,2.4227,0
12070,-0.852631,0.506515,2.4227,0
12090,-0.852604,0.506466,2.42257,0
12110,-0.852698,0.506586,2.42254,0
12130,-0.85276,0.506747,2.4226,0
12150,-0.852742,0.506679,2.42283,0
12170,-0.852689,0.5065,2.42313,0
12190,-0.852683,0.50659,2.42336,0
12210,-0.852798,0.506511,2.42324,0
12230,-0.852859,0.506673,2.4233,0
12250,-0.852727,0.506684,2.42365,0
12270,-0.852454,0.506725,2.42398,0
12290,-0.852548,0.506845,2.42395,0
12310,-0.852642,0.506966,2.42392,0
12330,-0.852336,0.507048,2.42434,0
12350,-0.852345,0.50703,2.4247,0
12370,-0.852058,0.506759,2.42502,0
12390,-0.8522,0.50631,2.42517,0
12410,-0.852529,0.5061,2.42525,0
12430,-0.852767,0.505924,2.42537,0
12450,-0.852601,0.505824,2.4258,0
12470,-0.852173,0.505583,2.4261,0
12490,-0.852377,0.505295,2.4263,0
12510,-0.854085,0.505066,2.42608,0
12530,-0.856332,0.505069,2.42606,0
12550,-0.859843,0.505369,2.42727,0
12570,-0.863022,0.505126,2.4313,0
12590,-0.861162,0.504543,2.43377,0
12610,-0.857421,0.505002,2.43483,0
12630,-0.861053,0.507378,2.43666,0
12650,-0.865803,0.512281,2.43854,0
12670,-0.870346,0.514815,2.43727,0
12690,-0.876166,0.511973,2.43501,0
12710,-0.878919,0.504315,2.43315,0
12730,-0.879367,0.492354,2.43186,0
12750,-0.881916,0.476909,2.43019,0
12770,-0.884767,0.46324,2.42772,0
12790,-0.880901,0.44238,2.42533,0
12810,-0.867555,0.414739,2.42484,0
12830,-0.84769,0.385339,2.42701,0
12850,-0.829553,0.352815,2.42724,0
12870,-0.811339,0.318489,2.43016,0
12890,-0.793378,0.282929,2.43515,0
12910,-0.777945,0.247314,2.43996,0
12930,-0.764001,0.210842,2.44601,0
12950,-0.752951,0.174805,2.45196,0
12970,-0.745254,0.140873,2.45806,0
12990,-0.741259,0.109155,2.464,0
13010,-0.739445,0.0803628,2.4699,0
13010,-0.737203,0.0539631,2.47619,0
13030,-0.734407,0.0295952,2.48191,0
13050,-0.732541,0.00629007,2.48734,0
13070,-0.732118,-0.0159054,2.49342,0
13070,-0.731298,-0.0371185,2.50119,0
13110,-0.728782,-0.0574893,2.5105,0
13150,-0.724338,-0.0766693,2.51923,0
13170,-0.721829,-0.0928933,2.52693,0
13190,-0.722114,-0.106844,2.53433,0
13210,-0.727291,-0.120986,2.54249,0
13230,-0.731602,-0.135555,2.5521,0
13230,-0.732736,-0.147899,2.5645,0
13250,-0.730985,-0.155467,2.57631,0
13270,-0.728362,-0.161801,2.58541,0
13280,-0.728367,-0.167403,2.59505,0
13290,-0.731066,-0.173136,2.6073,0
13310,-0.733136,-0.180945,2.62225,0
13330,-0.733499,-0.189592,2.63769,0
13350,-0.73358,-0.196808,2.65212,0
13390,-0.732936,-0.202693,2.66459,0
13420,-0.732708,-0.205028,2.67619,0
13440,-0.736056,-0.204024,2.68721,0
13460,-0.743117,-0.201851,2.69615,0
13480,-0.750958,-0.198442,2.70361,0
13500,-0.758486,-0.194113,2.70967,0
13520,-0.762635,-0.191183,2.71571,0
13540,-0.762632,-0.19069,2.72136,0
13560,-0.760225,-0.191185,2.72352,0
13580,-0.758904,-0.191028,2.7244,0
13600,-0.760466,-0.189995,2.72367,0
13620,-0.764588,-0.189014,2.72334,0
13640,-0.768219,-0.187752,2.7237,0
13660,-0.770668,-0.188549,2.72483,0
13680,-0.772788,-0.192023,2.72577,0
13700,-0.774319,-0.196418,2.72421,0
13720,-0.777695,-0.198918,2.7213,0
13740,-0.78187,-0.20145,2.71664,0
13760,-0.786426,-0.203988,2.71097,0
13780,-0.790089,-0.205966,2.70271,0
13800,-0.793501,-0.207791,2.69257,0
13820,-0.797051,-0.209735,2.68082,0
13840,-0.800647,-0.212218,2.66798,0
13860,-0.804028,-0.215207,2.65311,0
13880,-0.807361,-0.218525,2.63577,0
13900,-0.810763,-0.22046,2.61809,0
13920,-0.815577,-0.220143,2.60106,0
13940,-0.818818,-0.218622,2.58391,0
13960,-0.821657,-0.218512,2.56797,0
13980,-0.826369,-0.22019,2.55295,0
14000,-0.831381,-0.222471,2.53879,0
14020,-0.835235,-0.22396,2.52564,0
14050,-0.841288,-0.227332,2.49976,0
14060,-0.842465,-0.230005,2.48955,0
14080,-0.843359,-0.232079,2.48071,0
14100,-0.841729,-0.232736,2.47245,0
14120,-0.840934,-0.233143,2.46394,0
14140,-0.842275,-0.233253,2.45548,0
14160,-0.841994,-0.232099,2.44681,0
14180,-0.841931,-0.229961,2.43805,0
14190,-0.84143,-0.227582,2.42945,0
14210,-0.840908,-0.22345,2.42084,0
14230,-0.842112,-0.217721,2.41291,0
14230,-0.842397,-0.210253,2.4055,0
14250,-0.839265,-0.202188,2.39793,0
14270,-0.833945,-0.195055,2.39115,0
14290,-0.8282,-0.188481,2.38418,0
14310,-0.824135,-0.181455,2.37753,0
14310,-0.820303,-0.175381,2.37175,0
14330,-0.816408,-0.170622,2.36669,0
14390,-0.811125,-0.166156,2.36265,0
14410,-0.807135,-0.16396,2.36113,0
14450,-0.807043,-0.160096,2.35644,0
14450,-0.808634,-0.154136,2.35202,0
14470,-0.808993,-0.150147,2.35081,0
14490,-0.807306,-0.150643,2.35122,0
14510,-0.803495,-0.144486,2.34911,0
14530,-0.803556,-0.151718,2.34957,0
14550,-0.80744,-0.141189,2.34769,0
14570,-0.809704,-0.123343,2.34523,0
14590,-0.811697,-0.105801,2.34325,0
14610,-0.815073,-0.0876801,2.34225,0
14630,-0.820013,-0.0746362,2.34193,0
14650,-0.819104,-0.0867027,2.34228,0
14670,-0.816358,-0.09636,2.34238,0
14690,-0.823905,-0.0818015,2.34224,0
14710,-0.819214,-0.0996172,2.34177,0
14740,-0.825792,-0.0883077,2.34205,0
14760,-0.824764,-0.0903686,2.34256,0
14780,-0.822542,-0.104219,2.34339,0
14800,-0.824454,-0.105235,2.34236,0
14820,-0.825555,-0.106988,2.34433,0
14840,-0.826383,-0.109069,2.34586,0
14860,-0.827441,-0.111079,2.34754,0
14880,-0.828411,-0.113557,2.3493,0
14900,-0.829843,-0.116394,2.35104,0
14920,-0.831409,-0.119178,2.35299,0
14940,-0.83359,-0.122207,2.35532,0
14960,-0.835748,-0.125806,2.35732,0
14980,-0.838661,-0.12945,2.35933,0
15000,-0.840758,-0.132894,2.36126,0
15020,-0.842246,-0.136394,2.36307,0
15040,-0.843192,-0.139576,2.36481,0
15060,-0.844164,-0.142666,2.36642,0
15080,-0.845358,-0.146011,2.368,0
15100,-0.847005,-0.149048,2.36947,0
15120,-0.848074,-0.151638,2.37068,0
15140,-0.847726,-0.154418,2.37232,0
15160,-0.847276,-0.157142,2.37401,0
15180,-0.846992,-0.159822,2.37562,0
15200,-0.847802,-0.162817,2.37696,0
15220,-0.848628,-0.165932,2.37776,0
15240,-0.848631,-0.168955,2.3783,0
15260,-0.848714,-0.17212,2.37923,0
15280,-0.848492,-0.175752,2.3801,0
15300,-0.848741,-0.178941,2.38049,0
15320,-0.849534,-0.181452,2.381,0
15330,-0.850358,-0.184155,2.38203,0
15330,-0.850946,-0.187112,2.38322,0
15350,-0.851268,-0.1909,2.38424,0
15390,-0.851285,-0.194257,2.38415,0
15410,-0.85131,-0.19896,2.38441,0
15430,-0.85394,-0.196157,2.38431,0
15450,-0.853751,-0.210019,2.38788,0
15470,-0.858102,-0.21964,2.39097,0
15490,-0.864395,-0.212367,2.39283,0
15510,-0.870561,-0.200104,2.39531,0
15540,-0.877271,-0.1891,2.39856,0
15560,-0.880607,-0.184305,2.40125,0
15570,-0.882992,-0.190302,2.40416,0
15570,-0.885543,-0.197405,2.4078,0
15590,-0.888399,-0.204175,2.41181,0
15630,-0.891435,-0.211784,2.41563,0
15650,-0.894006,-0.217944,2.42167,0
15670,-0.895898,-0.231253,2.42754,0
15690,-0.899328,-0.227358,2.4291,0
15710,-0.899441,-0.239609,2.43307,0
15730,-0.900423,-0.261237,2.43775,0
15750,-0.901239,-0.281302,2.44165,0
15770,-0.901062,-0.302431,2.44513,0
15790,-0.898826,-0.323701,2.44745,0
15810,-0.899968,-0.325431,2.44943,0
15830,-0.907849,-0.316799,2.45279,0
15850,-0.903318,-0.337286,2.45309,0
15870,-0.910882,-0.326502,2.45674,0
15890,-0.905833,-0.345377,2.45642,0
15910,-0.913896,-0.341455,2.45989,0
15930,-0.918437,-0.338123,2.46201,0
15950,-0.912821,-0.354681,2.46064,0
15970,-0.911227,-0.367673,2.46056,0
15990,-0.917787,-0.368737,2.46276,0
16010,-0.928485,-0.363033,2.46628,0
16030,-0.940291,-0.355266,2.47035,0
16050,-0.951186,-0.348649,2.47414,0
16070,-0.959163,-0.346636,2.47709,0
16090,-0.960455,-0.35344,2.47746,0
16110,-0.951359,-0.367826,2.47352,0
16130,-0.944036,-0.374705,2.46992,0
16150,-0.954253,-0.365366,2.47291,0
16170,-0.960677,-0.36668,2.47497,0
16190,-0.948183,-0.378638,2.46987,0
16210,-0.960417,-0.368356,2.47414,0
16230,-0.953348,-0.380083,2.47078,0
16250,-0.961618,-0.371943,2.4735,0
16270,-0.955464,-0.383839,2.4706,0
16290,-0.96835,-0.373839,2.47547,0
16310,-0.973904,-0.362951,2.47656,0
16330,-0.975873,-0.364309,2.47893,0
16350,-0.977819,-0.366342,2.47885,0
16370,-0.97919,-0.368347,2.47944,0
16390,-0.980693,-0.370335,2.4801,0
16410,-0.981996,-0.371956,2.48077,0
16430,-0.983265,-0.373012,2.48111,0
16450,-0.984523,-0.373528,2.4809,0
16470,-0.985437,-0.37422,2.48065,0
16490,-0.985941,-0.375247,2.48097,0
16510,-0.986551,-0.376425,2.48132,0
16530,-0.987056,-0.377646,2.4814,0
16550,-0.987527,-0.378802,2.48147,0
16570,-0.988129,-0.380136,2.48136,0
16590,-0.988398,-0.381504,2.48093,0
16590,-0.98836,-0.382855,2.48079,0
16610,-0.988334,-0.384246,2.48087,0
16630,-0.989411,-0.386213,2.482,0
16650,-0.989366,-0.385724,2.48084,0
16690,-0.992066,-0.383012,2.48036,0
16710,-0.991498,-0.392263,2.4816,0
16730,-0.996309,-0.391717,2.48264,0
16750,-0.998605,-0.376507,2.48142,0
16770,-0.998478,-0.364093,2.47964,0
16790,-0.99882,-0.352973,2.47837,0
16810,-1.00297,-0.338056,2.47823,0
16830,-1.0082,-0.33336,2.47916,0
16850,-1.00191,-0.352357,2.47721,0
16870,-1.00645,-0.341919,2.4781,0
16890,-1.00353,-0.356441,2.47716,0
16910,-1.00914,-0.345248,2.47881,0
16930,-1.00061,-0.36246,2.47585,0
16950,-1.00581,-0.362218,2.47717,0
16970,-1.01332,-0.351429,2.47903,0
16990,-1.0103,-0.354177,2.4773,0
17010,-1.0008,-0.367188,2.47383,0
17030,-0.990423,-0.382293,2.46994,0
17050,-0.980804,-0.397393,2.46599,0
17070,-0.971111,-0.411566,2.46179,0
17090,-0.961064,-0.421867,2.45732,0
17110,-0.956049,-0.423025,2.45539,0
17130,-0.959757,-0.426485,2.45801,0
17150,-0.961462,-0.425502,2.46051,0
17170,-0.963072,-0.424826,2.46122,0
17190,-0.964038,-0.424229,2.4618,0
17210,-0.965203,-0.423828,2.46232,0
17230,-0.966773,-0.423279,2.46278,0
17250,-0.967863,-0.422074,2.46275,0
17270,-0.968329,-0.421373,2.46255,0
17290,-0.968375,-0.42065,2.46286,0
17310,-0.968077,-0.420551,2.46278,0
17330,-0.967954,-0.420422,2.46243,0
17350,-0.968564,-0.419877,2.46237,0
17370,-0.969086,-0.41967,2.46215,0
17390,-0.969119,-0.419419,2.46183,0
17410,-0.96865,-0.4194,2.4615,0
17430,-0.968804,-0.419344,2.46144,0
17450,-0.969294,-0.419388,2.46156,0
17470,-0.969942,-0.419759,2.46136,0
17490,-0.970507,-0.419939,2.46098,0
17510,-0.971571,-0.419437,2.46094,0
17530,-0.972327,-0.418983,2.46109,0
17550,-0.972519,-0.418929,2.46113,2000
17570,-0.972482,-0.418926,2.46103,0
17590,-0.973385,-0.418496,2.46149,0
17610,-0.973529,-0.418651,2.46162,0
17630,-0.973553,-0.418547,2.46157,0
17650,-0.973555,-0.418481,2.46165,0
17670,-0.973612,-0.418908,2.46172,0
17690,-0.97343,-0.419599,2.46185,0
17710,-0.973194,-0.419913,2.4614,0
17730,-0.972733,-0.419815,2.46072,0
17750,-0.972637,-0.41945,2.46048,0
17770,-0.972677,-0.419321,2.46073,0
17790,-0.972772,-0.419752,2.46089,0
17810,-0.972691,-0.42001,2.46038,0
17830,-0.972935,-0.420196,2.45998,0
17850,-0.973484,-0.41982,2.4598,0
17870,-0.974767,-0.419096,2.45982,0
17890,-0.976328,-0.418444,2.46013,0
17910,-0.97745,-0.41779,2.46065,0
17930,-0.976941,-0.417969,2.46117,0
17950,-0.976319,-0.418658,2.46151,0
17970,-0.976185,-0.419139,2.46154,0
17990,-0.977043,-0.419499,2.4616,0
18010,-0.978216,-0.419933,2.46205,0
18030,-0.97877,-0.420207,2.46247,0
18050,-0.978545,-0.420511,2.46276,0
18070,-0.978881,-0.421076,2.46304,0
18090,-0.97996,-0.421145,2.46325,0
18110,-0.981258,-0.420924,2.46361,0
18130,-0.982416,-0.420799,2.46424,0
18150,-0.983272,-0.420642,2.46472,0
18170,-0.984647,-0.420822,2.46545,0
18190,-0.985616,-0.420683,2.46613,0
18210,-0.987296,-0.420298,2.46707,0
18230,-0.98852,-0.41987,2.46799,0
18250,-0.988916,-0.419681,2.46889,0
18270,-0.989608,-0.419601,2.4703,0
18290,-0.990996,-0.419827,2.4717,0
18310,-0.992499,-0.419598,2.47275,0
18330,-0.993812,-0.418693,2.47398,0
18350,-0.994549,-0.417806,2.47534,0
18370,-0.995705,-0.417023,2.47654,0
18390,-0.996868,-0.416096,2.47747,0
18410,-0.997856,-0.415385,2.47799,0
18430,-0.998411,-0.414464,2.47851,0
18450,-0.998451,-0.413537,2.47906,0
18470,-0.998488,-0.413539,2.47914,0
18480,-0.998859,-0.413257,2.47915,0
18500,-0.998841,-0.41269,2.47889,0
18520,-0.998865,-0.412519,2.47892,0
18540,-0.998889,-0.412348,2.47895,0
18560,-0.998108,-0.412315,2.4789,0
18580,-0.998108,-0.412315,2.4789,0
18600,-0.9983,-0.412261,2.47893,0
18620,-0.998889,-0.412348,2.47895,0
18640,-0.998925,-0.41235,2.47904,0
18660,-0.998948,-0.412246,2.47898,0
18680,-0.998955,-0.411508,2.47875,0
18700,-0.999744,-0.411398,2.47853,0
18720,-1.00033,-0.411619,2.47838,0
18740,-1.00153,-0.411767,2.47872,0
18760,-1.00262,-0.411937,2.47907,0
18780,-1.00259,-0.411935,2.47898,0
18800,-1.00355,-0.411875,2.47884,0
18820,-1.00492,-0.411469,2.47887,0
18840,-1.00575,-0.410634,2.47894,0
18860,-1.00564,-0.410415,2.47898,0
18880,-1.00519,-0.409571,2.4788,0
18900,-1.00415,-0.408638,2.47862,0
18920,-1.00374,-0.408381,2.47805,0
18940,-1.0035,-0.40806,2.47698,0
18960,-1.00397,-0.407903,2.47563,0
18980,-1.00408,-0.407953,2.47391,0
19000,-1.00372,-0.40817,2.47237,0
19020,-1.00287,-0.408343,2.47072,0
19040,-1.00269,-0.408748,2.46861,0
19060,-1.00273,-0.409236,2.46645,0
19080,-1.00283,-0.409846,2.46447,0
19100,-1.00345,-0.410511,2.46313,0
19120,-1.00361,-0.411661,2.4618,0
19140,-1.00406,-0.413053,2.46082,0
19160,-1.0054,-0.414505,2.46011,0
19180,-1.0068,-0.41582,2.45922,0
19200,-1.008,-0.41719,2.4583,0
19220,-1.01045,-0.418056,2.4575,0
19240,-1.01277,-0.41884,2.4565,0
19260,-1.01432,-0.419547,2.4553,0
19280,-1.015,-0.419888,2.45403,0
19300,-1.01535,-0.419772,2.45261,0
19320,-1.01552,-0.420201,2.45107,0
19340,-1.01572,-0.420629,2.44909,0
19360,-1.01606,-0.420969,2.44683,0
19380,-1.01704,-0.421412,2.44425,0
19400,-1.01695,-0.421567,2.44126,0
19420,-1.01671,-0.42181,2.43855,0
19440,-1.01673,-0.421695,2.4352,0
19460,-1.01668,-0.421648,2.43159,0
19480,-1.01702,-0.42147,2.42783,0
19500,-1.01717,-0.421551,2.42381,0
19520,-1.01632,-0.421556,2.41925,0
19540,-1.01559,-0.420795,2.41496,0
19560,-1.01475,-0.419607,2.41042,0
19580,-1.01448,-0.418345,2.40584,0
19600,-1.01431,-0.416218,2.40129,0
19620,-1.01358,-0.413215,2.39672,0
19640,-1.01302,-0.41073,2.39236,0
19660,-1.01314,-0.408435,2.38763,0
19680,-1.01278,-0.406086,2.38227,0
19700,-1.01223,-0.403458,2.37749,0
19720,-1.01143,-0.401049,2.37256,0
19740,-1.01103,-0.398564,2.36661,0
19760,-1.01046,-0.396397,2.36035,0
19780,-1.00942,-0.394492,2.3543,0
19800,-1.00864,-0.393102,2.34824,0
19820,-1.0074,-0.391681,2.34178,0
19830,-1.00599,-0.391252,2.33546,0
19840,-1.00486,-0.39101,2.32906,0
19870,-1.00378,-0.392083,2.32244,0
19890,-1.00117,-0.3923,2.31378,0
19910,-0.998445,-0.389637,2.30482,0
19930,-0.999278,-0.395621,2.30078,0
19960,-0.998672,-0.386559,2.29267,0
19970,-0.99612,-0.384706,2.28586,0
19970,-0.997047,-0.389715,2.28333,0
20010,-0.996521,-0.389252,2.27823,0
20030,-0.9977,-0.390628,2.27456,0
20050,-0.995604,-0.394751,2.26954,0
20070,-0.997055,-0.400127,2.26641,0
20100,-0.998213,-0.390882,2.26106,0
20110,-0.997333,-0.390646,2.25577,0
20110,-0.997311,-0.392123,2.25233,0
20140,-0.996531,-0.394109,2.24738,0
20180,-0.996623,-0.395617,2.24422,0
20200,-0.995887,-0.396816,2.23841,0
20220,-0.995135,-0.399029,2.23382,0
20240,-0.995733,-0.400861,2.2292,0
20260,-0.995891,-0.402908,2.22424,0
20280,-0.996502,-0.405091,2.21954,0
20300,-0.996878,-0.407455,2.21455,0
20320,-0.997215,-0.409991,2.20955,0
20340,-0.996914,-0.412724,2.20453,0
20360,-0.996993,-0.415337,2.19958,0
20380,-0.997201,-0.417759,2.19468,0
20400,-0.997167,-0.420294,2.18955,0
20420,-0.997087,-0.422932,2.18447,0
20440,-0.996472,-0.424936,2.17923,0
20460,-0.995841,-0.425999,2.17444,0
20480,-0.993845,-0.426643,2.16971,0
20500,-0.991564,-0.427855,2.16521,0
20520,-0.989838,-0.429482,2.16067,0
20540,-0.988334,-0.431329,2.15592,0
20560,-0.987087,-0.432578,2.15144,0
20580,-0.985866,-0.434024,2.14707,0
20600,-0.984764,-0.435294,2.14297,0
20620,-0.983984,-0.436564,2.13918,0
20640,-0.98328,-0.437565,2.13505,0
20660,-0.982862,-0.438899,2.13053,0
20680,-0.982223,-0.439977,2.12568,0
20700,-0.981212,-0.440572,2.12141,0
20720,-0.980378,-0.440896,2.11738,0
20740,-0.978997,-0.440787,2.11339,0
20780,-0.974717,-0.441003,2.10684,0
20800,-0.972248,-0.441498,2.10361,0
20820,-0.970571,-0.44226,2.10064,0
20840,-0.969174,-0.442748,2.09761,0
20860,-0.967844,-0.443086,2.09492,0
20880,-0.966865,-0.443356,2.09273,0
20900,-0.965999,-0.443758,2.09014,0
20920,-0.965548,-0.444101,2.08738,0
20940,-0.964697,-0.444602,2.08416,0
20960,-0.964113,-0.444921,2.08103,0
20980,-0.96286,-0.445867,2.07761,0
21000,-0.962044,-0.447089,2.07402,0
21020,-0.961198,-0.448708,2.06992,0
21040,-0.96061,-0.450621,2.0657,0
21060,-0.959825,-0.452538,2.0612,0
21070,-0.959114,-0.454698,2.05667,0
21090,-0.958479,-0.456749,2.05191,0
21110,-0.957682,-0.45873,2.04704,0
21130,-0.956901,-0.461048,2.04218,0
21150,-0.955855,-0.46352,2.03669,0
21170,-0.95546,-0.465874,2.0315,0
21190,-0.955237,-0.468091,2.02635,0
21210,-0.955434,-0.470691,2.02122,0
21230,-0.955584,-0.473176,2.01604,0
21250,-0.955979,-0.47593,2.01135,0
21270,-0.956861,-0.478368,2.00693,0
21290,-0.958066,-0.480215,2.00259,0
21310,-0.960256,-0.481494,1.99876,0
21320,-0.962075,-0.48226,1.99496,0
21350,-0.96496,-0.483655,1.98786,0
21360,-0.969302,-0.485571,1.96657,0
21370,-0.969429,-0.486655,1.96302,0
21380,-0.96997,-0.487464,1.95949,0
21400,-0.970533,-0.488399,1.95589,0
21420,-0.971053,-0.489499,1.95261,0
21440,-0.971941,-0.49013,1.94966,0
21460,-0.973122,-0.490937,1.94682,0
21480,-0.974773,-0.491517,1.94409,0
21510,-0.9845,-0.496191,1.92936,0
21530,-0.985959,-0.496413,1.92726,0
21550,-0.987334,-0.497412,1.9254,0
21570,-0.988839,-0.499385,1.92362,0
21590,-0.989969,-0.501691,1.92192,0
21610,-0.990776,-0.503834,1.9203,0
21630,-0.992042,-0.506506,1.91898,0
21650,-0.993659,-0.508938,1.91742,0
21670,-0.995597,-0.510598,1.91573,0
21690,-0.9974,-0.51149,1.91405,0
21710,-0.998815,-0.512302,1.91246,0
21730,-1.00025,-0.513261,1.91082,0
21750,-1.00109,-0.513948,1.90858,0
21770,-1.002,-0.514821,1.90636,0
21790,-1.00261,-0.516347,1.90418,0
21810,-1.00338,-0.517411,1.90169,0
21830,-1.00398,-0.518084,1.89877,0
21850,-1.00419,-0.518403,1.8959,0
21870,-1.00408,-0.519228,1.89312,0
21890,-1.00375,-0.51952,1.89016,0
21910,-1.00389,-0.519251,1.8873,0
21930,-1.00376,-0.519546,1.88465,0
21950,-1.0037,-0.520594,1.88267,0
21970,-1.00417,-0.522166,1.88093,0
21990,-1.00503,-0.523774,1.87883,0
22010,-1.00628,-0.52568,1.87671,0
22030,-1.00858,-0.527385,1.87548,0
22050,-1.01049,-0.528461,1.87425,0
22070,-1.01174,-0.528549,1.8734,0
22090,-1.01335,-0.528638,1.87334,0
22110,-1.01516,-0.529025,1.87297,0
22130,-1.01692,-0.529671,1.87193,0
22150,-1.01874,-0.52988,1.87118,0
22170,-1.0201,-0.529807,1.87049,0
22190,-1.0212,-0.529792,1.87016,0
22210,-1.02173,-0.529752,1.8694,0
22230,-1.02201,-0.529858,1.86867,0
22250,-1.02242,-0.530347,1.86765,0
22270,-1.0229,-0.531256,1.86625,0
22290,-1.02332,-0.531567,1.86485,0
22310,-1.02363,-0.53162,1.86363,0
22330,-1.02467,-0.532128,1.86301,0
22350,-1.02466,-0.533095,1.86187,0
22370,-1.02467,-0.533902,1.86092,0
22390,-1.02523,-0.53468,1.86011,0
22410,-1.02627,-0.535461,1.85953,0
22430,-1.02711,-0.535903,1.85863,0
22450,-1.02805,-0.536499,1.85822,0
22470,-1.02842,-0.536979,1.85772,0
22490,-1.02879,-0.53771,1.85757,0
22510,-1.02941,-0.538208,1.85775,0
22530,-1.03024,-0.538797,1.85789,0
22550,-1.03095,-0.539107,1.85764,0
22570,-1.03154,-0.539425,1.85762,0
22590,-1.0321,-0.540008,1.85783,0
22610,-1.03277,-0.540566,1.85813,0
22630,-1.03314,-0.540956,1.85797,0
22650,-1.03397,-0.540933,1.85805,0
22670,-1.03464,-0.541167,1.85801,0
22690,-1.03504,-0.541561,1.85767,0
22710,-1.03582,-0.541715,1.85743,0
22730,-1.03665,-0.541711,1.8572,0
22750,-1.03799,-0.540938,1.85732,0
22770,-1.03877,-0.539869,1.85695,0
22790,-1.03942,-0.5387,1.85659,0
22810,-1.04003,-0.537258,1.85636,0
22830,-1.04078,-0.535576,1.85612,0
22850,-1.04159,-0.533811,1.85585,0
22870,-1.04217,-0.531683,1.85577,0
22890,-1.04318,-0.529556,1.8561,0
22910,-1.0444,-0.526784,1.85606,0
22930,-1.04519,-0.524049,1.85622,0
22950,-1.04614,-0.521753,1.8571,0
22970,-1.04713,-0.52068,1.85792,0
22990,-1.04757,-0.518707,1.8582,0
23010,-1.04873,-0.516164,1.85901,0
23030,-1.04962,-0.513977,1.8596,0
23050,-1.04995,-0.512425,1.8601,0
23070,-1.05068,-0.510546,1.86085,0
23090,-1.05155,-0.508501,1.86157,0
23110,-1.05152,-0.505905,1.86188,0
23130,-1.05139,-0.503873,1.86237,0
23150,-1.05163,-0.502497,1.86274,0
23170,-1.05197,-0.501381,1.86292,0
23190,-1.05207,-0.500172,1.86332,0
23210,-1.0516,-0.499257,1.86364,0
23230,-1.05102,-0.498421,1.86415,0
23250,-1.05123,-0.498256,1.86463,0
23270,-1.05123,-0.498256,1.86463,0
23290,-1.05224,-0.497774,1.86563,0
23310,-1.05267,-0.497465,1.86626,0
23330,-1.05311,-0.496888,1.86686,0
23350,-1.05402,-0.495902,1.86769,0
23370,-1.05512,-0.494593,1.86848,0
23390,-1.0563,-0.492913,1.86952,0
23400,-1.05756,-0.490918,1.87075,0
23420,-1.05817,-0.488786,1.87169,0
23440,-1.05912,-0.486948,1.87281,0
23460,-1.05986,-0.485253,1.87376,0
23480,-1.06079,-0.483841,1.87473,0
23500,-1.06187,-0.482775,1.87587,0
23520,-1.06242,-0.481844,1.8771,0
23540,-1.0625,-0.481036,1.87838,0
23560,-1.06241,-0.480485,1.87954,0
23580,-1.06286,-0.480062,1.88065,0
23600,-1.06314,-0.479607,1.88191,0
23620,-1.06342,-0.478563,1.88369,0
23640,-1.0636,-0.477068,1.88559,0
23660,-1.06397,-0.475831,1.88783,0
23680,-1.06448,-0.474379,1.88973,0
23700,-1.06516,-0.472561,1.89222,0
23720,-1.06654,-0.470962,1.89535,0
23740,-1.06789,-0.469807,1.89803,0
23760,-1.06927,-0.468479,1.90032,0
23780,-1.07161,-0.467364,1.90317,0
23800,-1.07395,-0.466867,1.90577,0
23820,-1.07636,-0.466596,1.90868,0
23840,-1.07841,-0.46623,1.9115,0
23860,-1.08003,-0.465588,1.91418,0
23880,-1.08185,-0.464957,1.91685,0
23900,-1.08368,-0.463795,1.91942,0
23920,-1.08535,-0.462575,1.92155,0
23940,-1.08731,-0.461527,1.9238,0
23960,-1.08915,-0.460979,1.92612,0
23980,-1.09042,-0.460248,1.92782,0
24000,-1.09203,-0.458913,1.9299,0
24020,-1.09362,-0.457767,1.93205,0
24040,-1.09514,-0.456865,1.93404,0
24060,-1.09688,-0.456217,1.93618,0
24080,-1.09793,-0.455111,1.9382,0
24100,-1.0991,-0.454027,1.94024,0
24120,-1.10072,-0.453352,1.94236,0
24140,-1.10206,-0.452627,1.94427,0
24160,-1.10347,-0.451866,1.94644,0
24180,-1.10491,-0.451276,1.94882,0
24200,-1.10652,-0.45147,1.95093,0
24220,-1.1082,-0.451911,1.95303,0
24240,-1.10953,-0.452361,1.9547,0
24260,-1.11155,-0.452066,1.95634,0
24280,-1.11369,-0.45179,1.95801,0
24300,-1.11546,-0.451477,1.95987,0
24320,-1.11667,-0.450878,1.96157,0
24340,-1.11776,-0.449784,1.96308,0
24360,-1.11876,-0.448177,1.96455,0
24380,-1.11976,-0.446995,1.96588,0
24400,-1.12036,-0.446056,1.96732,0
24420,-1.12166,-0.444617,1.96891,0
24440,-1.1232,-0.442434,1.9704,0
24460,-1.12427,-0.439798,1.97245,0
24480,-1.1256,-0.437821,1.97523,0
24500,-1.12763,-0.436286,1.97815,0
24520,-1.13029,-0.434208,1.98039,0
24540,-1.13263,-0.431629,1.98249,0
24560,-1.13539,-0.429208,1.98505,0
24580,-1.13814,-0.426452,1.98758,0
24600,-1.14116,-0.423947,1.99068,0
24620,-1.1441,-0.422414,1.99381,0
24640,-1.14634,-0.421146,1.99643,0
24660,-1.14824,-0.420084,1.99942,0
24680,-1.15035,-0.419212,2.00247,0
24700,-1.15232,-0.418668,2.0054,0
24720,-1.15386,-0.418364,2.00803,0
24740,-1.15517,-0.418376,2.01091,0
24760,-1.15649,-0.418573,2.0139,0
24780,-1.15783,-0.41884,2.01685,0
24800,-1.15911,-0.419189,2.01984,0
24820,-1.16009,-0.420106,2.02292,0
24840,-1.16106,-0.420618,2.02601,0
24860,-1.16218,-0.42094,2.02917,0
24880,-1.1636,-0.421201,2.03257,0
24900,-1.16513,-0.421615,2.03613,0
24920,-1.16621,-0.422178,2.03975,0
24940,-1.16729,-0.422507,2.043,0
24960,-1.16918,-0.423354,2.04647,0
24980,-1.17112,-0.424203,2.04975,0
25000,-1.17266,-0.424187,2.05285,0
25020,-1.1741,-0.423847,2.05599,0
25040,-1.17534,-0.424042,2.05857,0
25060,-1.17623,-0.423616,2.06115,0
25080,-1.17707,-0.422708,2.06377,0
25100,-1.17827,-0.421846,2.0668,0
25120,-1.1791,-0.421428,2.06946,0
25140,-1.17906,-0.420957,2.07154,0
25160,-1.17924,-0.420048,2.07382,0
25180,-1.1799,-0.419962,2.07655,0
25200,-1.18029,-0.420075,2.07888,0
25220,-1.18131,-0.419559,2.08187,0
25240,-1.18218,-0.419208,2.08513,0
25260,-1.18271,-0.419288,2.08814,0
25280,-1.18346,-0.419274,2.09128,0
25300,-1.18496,-0.419098,2.09458,0
25320,-1.18744,-0.419042,2.09867,0
25340,-1.18978,-0.41966,2.10276,0
25360,-1.19162,-0.420201,2.10672,0
25380,-1.19391,-0.420244,2.11039,0
25400,-1.19663,-0.420259,2.11412,0
25420,-1.19875,-0.420203,2.118,0
25440,-1.20061,-0.419886,2.12202,0
25460,-1.20164,-0.419253,2.12613,0
25480,-1.20291,-0.418848,2.13062,0
25500,-1.20476,-0.418691,2.13519,0
25520,-1.20672,-0.418357,2.13968,0
25540,-1.20827,-0.417685,2.14432,0
25560,-1.20985,-0.417434,2.14958,0
25580,-1.21193,-0.417827,2.15489,0
25600,-1.21429,-0.417381,2.1596,0
25620,-1.21618,-0.416764,2.16444,0
25640,-1.21776,-0.416758,2.16938,0
25660,-1.21943,-0.417007,2.17423,0
25680,-1.22125,-0.416573,2.17886,0
25700,-1.22406,-0.416236,2.1842,0
25720,-1.22636,-0.415933,2.18904,0
25740,-1.22773,-0.415191,2.19361,0
25760,-1.2296,-0.414911,2.19862,0
25780,-1.23177,-0.415026,2.20341,0
25800,-1.2345,-0.414775,2.20785,0
25820,-1.23709,-0.413854,2.2124,0
25840,-1.23935,-0.413617,2.21742,0
25860,-1.24147,-0.414224,2.22249,0
25880,-1.24418,-0.414369,2.22736,0
25900,-1.24723,-0.414072,2.23217,0
25920,-1.25095,-0.414278,2.23777,0
25940,-1.25411,-0.415042,2.24313,0
25960,-1.25673,-0.41483,2.24829,0
25980,-1.25973,-0.414497,2.25365,0
25990,-1.26268,-0.414923,2.25882,0
26010,-1.26572,-0.415238,2.26405,0
26030,-1.2686,-0.414981,2.26901,0
26050,-1.27118,-0.414493,2.274,0
26070,-1.27295,-0.414411,2.27872,0
26090,-1.27441,-0.414529,2.28369,0
26110,-1.27571,-0.414747,2.28844,0
26130,-1.2779,-0.415044,2.29334,0
26150,-1.27938,-0.415832,2.2983,0
26170,-1.28044,-0.41668,2.30315,0
26190,-1.28241,-0.417244,2.30816,0
26210,-1.28538,-0.418047,2.31309,0
26230,-1.28781,-0.418911,2.31773,0
26250,-1.2895,-0.419337,2.32243,0
26270,-1.29068,-0.419647,2.32714,0
26290,-1.29168,-0.419991,2.3316,0
26310,-1.29358,-0.420479,2.33614,0
26330,-1.29611,-0.420633,2.34074,0
26350,-1.29833,-0.420563,2.34557,0
26370,-1.29979,-0.420586,2.35035,0
26390,-1.30121,-0.42087,2.35498,0
26410,-1.30282,-0.421055,2.35956,0
26430,-1.30534,-0.420684,2.36412,0
26450,-1.308,-0.420461,2.36877,0
26470,-1.31009,-0.42039,2.37348,0
26490,-1.312,-0.420261,2.37808,0
26510,-1.31377,-0.420064,2.38266,0
26530,-1.31554,-0.419956,2.38689,0
26550,-1.31689,-0.41956,2.39088,0
26570,-1.31866,-0.419444,2.39533,0
26590,-1.32033,-0.41977,2.39976,0
26610,-1.32192,-0.419851,2.40383,0
26630,-1.32404,-0.419766,2.40821,0
26650,-1.326,-0.419697,2.41291,0
26670,-1.32747,-0.420219,2.41732,0
26690,-1.32862,-0.420794,2.42126,0
26710,-1.33007,-0.42166,2.42546,0
26730,-1.33183,-0.422826,2.42942,0
26750,-1.33279,-0.423693,2.43305,0
26770,-1.33306,-0.424245,2.43701,0
26790,-1.33308,-0.426133,2.44119,0
26810,-1.33307,-0.428207,2.4455,0
26830,-1.33379,-0.430251,2.44945,0
26850,-1.33485,-0.431808,2.45326,0
26870,-1.33635,-0.432942,2.4573,0
26890,-1.33829,-0.434436,2.46191,0
26910,-1.33993,-0.435552,2.46656,0
26930,-1.34142,-0.436782,2.47168,0
26950,-1.3423,-0.438133,2.4767,0
26970,-1.34365,-0.440182,2.48182,0
26990,-1.34531,-0.442613,2.48699,0
27010,-1.34766,-0.445264,2.49252,0
27030,-1.34949,-0.448193,2.49782,0
27050,-1.35116,-0.451161,2.50291,0
27070,-1.35274,-0.453628,2.50814,0
27090,-1.35403,-0.4559,2.51347,0
27110,-1.3557,-0.458182,2.51861,0
27130,-1.35768,-0.459868,2.52329,0
27150,-1.35968,-0.461461,2.52786,0
27170,-1.36106,-0.462657,2.53223,0
27190,-1.3625,-0.463316,2.53683,0
27210,-1.36471,-0.465131,2.54146,0
27230,-1.3666,-0.466841,2.54604,0
27250,-1.36813,-0.468726,2.55078,0
27270,-1.36894,-0.470764,2.5549,0
27290,-1.36994,-0.472751,2.55857,0
27310,-1.37153,-0.474695,2.56212,0
27330,-1.37271,-0.476912,2.56578,0
27350,-1.37415,-0.478986,2.56931,0
27370,-1.3756,-0.480888,2.57316,0
27390,-1.37722,-0.483113,2.57713,0
27410,-1.37864,-0.485557,2.58082,0
27430,-1.38066,-0.48786,2.58438,0
27450,-1.38233,-0.489873,2.58744,0
27470,-1.38424,-0.491572,2.59083,0
27490,-1.38581,-0.493095,2.59461,0
27510,-1.38579,-0.494285,2.5979,0
27530,-1.38523,-0.495621,2.60131,0
27550,-1.38551,-0.498296,2.60496,0
27570,-1.386,-0.500653,2.60866,0
27590,-1.38599,-0.50231,2.61179,0
27610,-1.3862,-0.503835,2.61502,0
27630,-1.38623,-0.505322,2.61837,0
27650,-1.38592,-0.506629,2.62157,0
27670,-1.38561,-0.508216,2.6248,0
27690,-1.38602,-0.510164,2.62804,0
27710,-1.38697,-0.511853,2.63072,0
27730,-1.38794,-0.512791,2.63298,0
27750,-1.38802,-0.513428,2.63545,0
27770,-1.38756,-0.514872,2.63804,0
27790,-1.38743,-0.516673,2.64054,0
27810,-1.38893,-0.518752,2.64286,0
27830,-1.39023,-0.520496,2.64486,0
27850,-1.39159,-0.521978,2.64709,0
27870,-1.39223,-0.523484,2.6496,0
27890,-1.39268,-0.525781,2.65204,0
27910,-1.39386,-0.52824,2.65434,0
27930,-1.39536,-0.530663,2.65605,0
27950,-1.39632,-0.532773,2.65765,0
27970,-1.39752,-0.534665,2.65981,0
27990,-1.3993,-0.536691,2.66233,0
28010,-1.4009,-0.538391,2.66473,0
28030,-1.40216,-0.539366,2.66711,0
28050,-1.40284,-0.539733,2.66906,0
28070,-1.4037,-0.540137,2.6709,0
28090,-1.4053,-0.540519,2.6728,0
28110,-1.40706,-0.541021,2.67445,0
28130,-1.40808,-0.541171,2.67591,0
28150,-1.40841,-0.541459,2.67765,0
28170,-1.40931,-0.542054,2.67983,0
28190,-1.41052,-0.543358,2.68137,0
28210,-1.4119,-0.544594,2.68267,0
28230,-1.41348,-0.545602,2.6842,0
28250,-1.41417,-0.546699,2.68574,0
28270,-1.41503,-0.548009,2.68724,0
28290,-1.41681,-0.549146,2.68857,0
28310,-1.41839,-0.549587,2.68998,0
28330,-1.41984,-0.549914,2.69186,0
28350,-1.42092,-0.550987,2.69373,0
28370,-1.42243,-0.552347,2.69595,0
28390,-1.42409,-0.553914,2.6978,0
28410,-1.42588,-0.554941,2.6992,0
28430,-1.42733,-0.555988,2.70075,0
28450,-1.42825,-0.557396,2.70224,0
28470,-1.42895,-0.558755,2.70348,0
28490,-1.42907,-0.559988,2.70435,0
28510,-1.42864,-0.561108,2.70524,0
28530,-1.42871,-0.562423,2.70546,0
28550,-1.42888,-0.563657,2.70506,0
28570,-1.4291,-0.564999,2.70495,0
28580,-1.42972,-0.566335,2.70525,0
28600,-1.42918,-0.567515,2.70507,0
28620,-1.4285,-0.568775,2.705,0
28640,-1.42804,-0.570451,2.70529,0
28660,-1.42833,-0.572089,2.70579,0
28680,-1.43025,-0.573589,2.70617,0
28700,-1.43096,-0.57447,2.7057,0
28720,-1.43093,-0.575015,2.70524,0
28740,-1.43107,-0.575512,2.7046,0
28760,-1.43142,-0.576414,2.70412,0
28780,-1.43198,-0.577549,2.70387,0
28800,-1.43247,-0.578855,2.70284,0
28820,-1.43258,-0.579901,2.70174,0
28840,-1.43251,-0.580996,2.70081,0
28860,-1.4327,-0.582798,2.70016,0
28880,-1.43305,-0.584824,2.69935,0
28900,-1.43418,-0.586826,2.69881,0
28920,-1.43506,-0.588867,2.69769,0
28940,-1.43537,-0.590511,2.69654,0
28960,-1.43569,-0.59179,2.69564,0
28980,-1.43552,-0.593349,2.69513,0
29000,-1.43555,-0.595304,2.69474,0
29020,-1.43655,-0.597474,2.6945,0
29040,-1.43749,-0.599342,2.69397,0
29060,-1.4382,-0.600892,2.69315,0
29080,-1.43893,-0.602172,2.69249,0
29100,-1.43942,-0.603122,2.69151,0
29120,-1.4391,-0.603716,2.69012,0
29140,-1.43856,-0.60427,2.6885,0
29160,-1.43784,-0.604869,2.68687,0
29180,-1.43763,-0.605584,2.68484,0
29200,-1.43744,-0.606213,2.68295,0
29220,-1.43664,-0.60736,2.68046,0
29240,-1.43542,-0.608338,2.67763,0
29260,-1.43379,-0.609124,2.67455,0
29280,-1.43219,-0.609634,2.67181,0
29300,-1.43082,-0.610576,2.66931,0
29320,-1.4294,-0.611694,2.6662,0
29340,-1.42808,-0.612257,2.66275,0
29360,-1.42677,-0.612647,2.65922,0
29380,-1.42487,-0.612807,2.65542,0
29400,-1.4226,-0.613147,2.65185,0
29420,-1.42078,-0.614158,2.64858,0
29440,-1.41913,-0.61578,2.6451,0
29460,-1.41782,-0.617004,2.64131,0
29480,-1.41593,-0.618276,2.63746,0
29500,-1.41386,-0.619881,2.63368,0
29520,-1.41124,-0.621836,2.62998,0
29540,-1.409,-0.623587,2.6263,0
29560,-1.40827,-0.625524,2.62262,0
29580,-1.40673,-0.626971,2.61857,0
29600,-1.40444,-0.627942,2.61475,0
29620,-1.40354,-0.629165,2.61136,0
29640,-1.40358,-0.630522,2.60813,0
29660,-1.40399,-0.631216,2.60478,0
29680,-1.40345,-0.632153,2.60117,0
29700,-1.40253,-0.632992,2.59777,0
29720,-1.40184,-0.634174,2.59469,0
29740,-1.40134,-0.63598,2.59157,0
29760,-1.401,-0.63783,2.58829,0
29780,-1.40026,-0.639015,2.58465,0
29800,-1.39912,-0.640376,2.58087,0
29820,-1.3984,-0.64166,2.57749,0
29840,-1.39731,-0.643225,2.57426,0
29860,-1.3958,-0.644492,2.57074,0
29880,-1.39427,-0.645467,2.56679,0
29900,-1.3933,-0.646406,2.5627,0
29920,-1.39212,-0.647,2.5583,0
29940,-1.39039,-0.647341,2.55419,0
29960,-1.38869,-0.647885,2.5503,0
29980,-1.38672,-0.648541,2.54579,0
30000,-1.38455,-0.649339,2.54106,0
30020,-1.38334,-0.650022,2.53614,0
30040,-1.38154,-0.650051,2.5308,0
30060,-1.37937,-0.650554,2.52584,0
30080,-1.37679,-0.651617,2.52055,0
30100,-1.3746,-0.6523,2.51515,0
30120,-1.37338,-0.652775,2.50997,0
30140,-1.37139,-0.653318,2.50463,0
30160,-1.36982,-0.654274,2.49972,0
30180,-1.36788,-0.654913,2.495,0
30200,-1.36671,-0.655883,2.49061,0
30220,-1.36576,-0.657021,2.48627,0
30240,-1.36434,-0.658217,2.48123,0
30260,-1.36299,-0.659233,2.4767,0
30280,-1.36123,-0.660313,2.4723,0
30300,-1.35927,-0.66182,2.46806,0
30320,-1.35727,-0.663224,2.46315,0
30340,-1.3559,-0.664529,2.45864,0
30360,-1.35432,-0.665664,2.45422,0
30380,-1.35232,-0.66765,2.45014,0
30400,-1.35049,-0.669694,2.44589,0
30420,-1.34948,-0.671314,2.44173,0
30440,-1.34831,-0.673075,2.43795,0
30460,-1.34628,-0.674858,2.43378,0
30480,-1.34444,-0.676905,2.42952,0
30500,-1.34221,-0.678628,2.42498,0
30520,-1.33994,-0.68024,2.42021,0
30540,-1.33771,-0.681767,2.41514,0
30560,-1.33584,-0.683322,2.41004,0
30580,-1.33383,-0.684228,2.4048,0
30600,-1.33184,-0.684939,2.39941,0
30620,-1.32952,-0.685328,2.39406,0
30640,-1.32732,-0.686264,2.38869,0
30660,-1.32483,-0.687413,2.38237,0
30680,-1.32337,-0.688523,2.3763,0
30700,-1.32252,-0.689751,2.37057,0
30720,-1.32064,-0.691118,2.36467,0
30740,-1.3184,-0.693081,2.35838,0
30760,-1.31763,-0.695175,2.35227,0
30780,-1.31678,-0.697667,2.346,0
30800,-1.31513,-0.699875,2.3394,0
30820,-1.31343,-0.702375,2.33292,0
30840,-1.31212,-0.705029,2.32679,0
30860,-1.31066,-0.708461,2.32068,0
30880,-1.30875,-0.712057,2.31393,0
30900,-1.30726,-0.715427,2.30695,0
30920,-1.30525,-0.718096,2.29964,0
30940,-1.30291,-0.720317,2.29256,0
30960,-1.30006,-0.72306,2.28561,0
30980,-1.29724,-0.726565,2.27851,0
31000,-1.29424,-0.729808,2.27099,0
31020,-1.29183,-0.733288,2.26409,0
31040,-1.28959,-0.73675,2.25722,0
31060,-1.28741,-0.740027,2.25053,0
31080,-1.28508,-0.742998,2.24476,0
31100,-1.28282,-0.746632,2.23944,0
31120,-1.28049,-0.750384,2.23352,0
31140,-1.27907,-0.7539,2.22769,0
31150,-1.27788,-0.756255,2.22166,0
31170,-1.276,-0.757768,2.2158,0
31190,-1.27367,-0.758843,2.20991,0
31210,-1.27084,-0.759736,2.20358,0
31230,-1.26871,-0.761667,2.19773,0
31250,-1.26668,-0.763786,2.19159,0
31270,-1.26514,-0.765805,2.18551,0
31290,-1.26338,-0.767731,2.17948,0
31310,-1.2608,-0.769467,2.17393,0
31330,-1.25853,-0.771756,2.16898,0
31350,-1.25599,-0.774056,2.16369,0
31370,-1.25325,-0.776189,2.15782,0
31390,-1.25087,-0.778029,2.15222,0
31410,-1.24816,-0.779271,2.14667,0
31430,-1.24488,-0.780245,2.1408,0
31450,-1.24164,-0.780225,2.1351,0
31470,-1.23809,-0.780602,2.1293,0
31490,-1.23527,-0.780868,2.12371,0
31510,-1.23199,-0.781044,2.11771,0
31530,-1.22756,-0.781306,2.1117,0
31550,-1.22386,-0.781543,2.10629,0
31570,-1.22089,-0.782241,2.10132,0
31590,-1.21742,-0.783056,2.09572,0
31610,-1.2147,-0.783579,2.09012,0
31630,-1.21183,-0.78333,2.08441,0
31650,-1.20871,-0.782559,2.07927,0
31670,-1.20429,-0.781749,2.07438,0
31690,-1.20005,-0.781018,2.06967,0
31710,-1.19603,-0.779736,2.06425,0
31730,-1.19247,-0.777408,2.05865,0
31750,-1.18832,-0.774831,2.05367,0
31770,-1.18406,-0.771998,2.04988,0
31790,-1.17985,-0.768775,2.04638,0
31810,-1.17621,-0.76519,2.04253,0
31830,-1.17358,-0.761498,2.03968,0
31850,-1.17056,-0.758166,2.03712,0
31870,-1.16787,-0.75464,2.03494,0
31890,-1.16555,-0.750919,2.03324,0
31910,-1.16308,-0.746989,2.03198,0
31930,-1.16075,-0.743231,2.03146,0
31950,-1.1585,-0.739954,2.03111,0
31970,-1.15589,-0.736859,2.03082,0
31990,-1.15353,-0.733196,2.03092,0
32010,-1.15148,-0.728974,2.03132,0
32030,-1.14981,-0.723998,2.03235,0
32050,-1.14802,-0.718555,2.03365,0
32070,-1.14623,-0.713294,2.03592,0
32090,-1.14424,-0.708041,2.03864,0
32110,-1.14201,-0.70319,2.0411,0
32130,-1.1401,-0.697801,2.04367,0
32150,-1.13869,-0.69131,2.047,0
32170,-1.13775,-0.684942,2.05064,0
32190,-1.13644,-0.679157,2.05398,0
32210,-1.13532,-0.672934,2.05743,0
32230,-1.13445,-0.666552,2.0611,0
32250,-1.13341,-0.659563,2.06427,0
32270,-1.13262,-0.653602,2.06732,0
32290,-1.13258,-0.647835,2.07022,0
32310,-1.13224,-0.641361,2.07271,0
32330,-1.13197,-0.635178,2.07574,0
32350,-1.13219,-0.63001,2.07906,0
32370,-1.13193,-0.625221,2.08147,0
32390,-1.13195,-0.620169,2.08383,0
32410,-1.13266,-0.615019,2.08643,0
32430,-1.13383,-0.610053,2.08916,0
32450,-1.13507,-0.605899,2.09173,0
32470,-1.13594,-0.601135,2.09456,0
32490,-1.13714,-0.596461,2.09781,0
32510,-1.13888,-0.592233,2.10108,0
32530,-1.14079,-0.589068,2.1042,0
32550,-1.14281,-0.585547,2.10744,0
32570,-1.14589,-0.58145,2.11108,0
32590,-1.14857,-0.577558,2.11499,0
32610,-1.15122,-0.574113,2.11909,0
32630,-1.15477,-0.569836,2.12344,0
32650,-1.1584,-0.565368,2.12821,0
32670,-1.16249,-0.562392,2.13317,0
32690,-1.16692,-0.559482,2.13813,0
32710,-1.17189,-0.556182,2.14327,0
32730,-1.17666,-0.552263,2.14883,0
32750,-1.18028,-0.548487,2.15473,0
32770,-1.18407,-0.54592,2.16049,0
32790,-1.18833,-0.542977,2.166,0
32810,-1.19263,-0.53975,2.1726,0
32830,-1.1963,-0.536637,2.17911,0
32850,-1.19975,-0.534059,2.18527,0
32870,-1.20328,-0.531292,2.19134,0
32890,-1.20679,-0.528526,2.19708,0
32910,-1.20978,-0.526654,2.20314,0
32930,-1.21252,-0.52532,2.20969,0
32950,-1.21581,-0.523506,2.21627,0
32970,-1.21959,-0.52182,2.22307,0
32990,-1.2233,-0.520834,2.22985,0
33010,-1.22682,-0.519852,2.23666,0
33030,-1.23065,-0.519009,2.24395,0
33050,-1.23435,-0.518608,2.25088,0
33070,-1.23789,-0.518296,2.25737,0
33090,-1.24198,-0.517313,2.2641,0
33110,-1.2466,-0.516964,2.27167,0
33130,-1.25051,-0.517196,2.27913,0
33150,-1.25442,-0.517337,2.28657,0
33170,-1.25824,-0.516599,2.29365,0
33190,-1.26268,-0.515608,2.30108,0
33210,-1.26776,-0.515753,2.30925,0
33230,-1.27302,-0.515606,2.31772,0
33250,-1.2786,-0.515137,2.326,0
33270,-1.28343,-0.514824,2.33414,0
33290,-1.2884,-0.514742,2.34224,0
33310,-1.29347,-0.514192,2.35009,0
33330,-1.2984,-0.51364,2.35785,0
33350,-1.3033,-0.513079,2.3661,0
33370,-1.30752,-0.513209,2.37421,0
33390,-1.31215,-0.513182,2.38234,0
33410,-1.3172,-0.51308,2.39065,0
33430,-1.3214,-0.51353,2.39857,0
33450,-1.32464,-0.514466,2.40631,0
33470,-1.32828,-0.515161,2.41428,0
33490,-1.3334,-0.515885,2.42336,0
33510,-1.33922,-0.517012,2.43233,0
33530,-1.34453,-0.517046,2.44093,0
33550,-1.3505,-0.516686,2.45003,0
33570,-1.35699,-0.516478,2.45976,0
33590,-1.36305,-0.516855,2.46943,0
33610,-1.36826,-0.516826,2.47892,0
33630,-1.37388,-0.516976,2.48853,0
33650,-1.37999,-0.517726,2.49778,0
33670,-1.38616,-0.518355,2.50679,0
33690,-1.39195,-0.519213,2.51618,0
33710,-1.39664,-0.52064,2.52558,0
33730,-1.40113,-0.522271,2.53429,0
33740,-1.40603,-0.524265,2.54269,0
33760,-1.41211,-0.526091,2.55116,0
33780,-1.41841,-0.528216,2.5599,0
33800,-1.42458,-0.530447,2.56864,0
33820,-1.4295,-0.532485,2.57703,0
33840,-1.43538,-0.534841,2.58552,0
33860,-1.44243,-0.537838,2.59373,0
33880,-1.44954,-0.540531,2.60137,0
33900,-1.45713,-0.542639,2.60955,0
33920,-1.46441,-0.544519,2.61791,0
33940,-1.46999,-0.546414,2.62531,0
33960,-1.47618,-0.548331,2.63256,0
33980,-1.4828,-0.550888,2.63959,0
34000,-1.48866,-0.553432,2.64582,0
34020,-1.4942,-0.555296,2.65239,0
34040,-1.49905,-0.558084,2.6591,0
34060,-1.50298,-0.561375,2.66542,0
34080,-1.50731,-0.565144,2.67095,0
34100,-1.51163,-0.568453,2.6759,0
34120,-1.51559,-0.571275,2.68093,0
34140,-1.51885,-0.574577,2.68603,0
34160,-1.52161,-0.578495,2.69112,0
34180,-1.52395,-0.582143,2.69553,0
34200,-1.52751,-0.585858,2.70015,0
34220,-1.53152,-0.589663,2.70475,0
34240,-1.53514,-0.593287,2.70917,0
34260,-1.53925,-0.596394,2.71452,0
34280,-1.54363,-0.599617,2.72004,0
34300,-1.54785,-0.603089,2.72525,0
34320,-1.55231,-0.606596,2.73035,0
34340,-1.55721,-0.610268,2.73531,0
34360,-1.56317,-0.613852,2.74056,0
34380,-1.56933,-0.616977,2.74581,0
34400,-1.57478,-0.620514,2.75085,0
34420,-1.57964,-0.623842,2.75585,0
34440,-1.58469,-0.627588,2.76131,0
34460,-1.58971,-0.631649,2.76575,0
34480,-1.59427,-0.635578,2.76963,0
34500,-1.59956,-0.63958,2.77534,0
34520,-1.60597,-0.645378,2.78193,0
34540,-1.61022,-0.65043,2.78525,0
34560,-1.61538,-0.653418,2.78882,0
34580,-1.62234,-0.65615,2.79467,0
34600,-1.62826,-0.660506,2.80051,0
34620,-1.63256,-0.665193,2.80443,0
34640,-1.63688,-0.669284,2.80775,0
34660,-1.64221,-0.672756,2.81145,0
34680,-1.64616,-0.676156,2.81422,0
34700,-1.64811,-0.679582,2.81605,0
34720,-1.64909,-0.683288,2.81883,0
34740,-1.6488,-0.688228,2.8219,0
34760,-1.64763,-0.694087,2.82332,0
34780,-1.64793,-0.700585,2.82406,0
34800,-1.64756,-0.707203,2.82416,0
34820,-1.64773,-0.713571,2.82409,0
34840,-1.6478,-0.720417,2.82388,0
34860,-1.6462,-0.727373,2.82237,0
34880,-1.64338,-0.7343,2.8201,0
34900,-1.64123,-0.741242,2.81796,0
34920,-1.64111,-0.748637,2.81675,0
34940,-1.64086,-0.755795,2.81437,0
34960,-1.63918,-0.762732,2.80971,0
34980,-1.63561,-0.769808,2.80406,0
35000,-1.6322,-0.77673,2.79759,0
35020,-1.62952,-0.78332,2.79109,0
35040,-1.62512,-0.789659,2.78405,0
35060,-1.61966,-0.79522,2.77713,0
35080,-1.61402,-0.801757,2.77095,0
35100,-1.60959,-0.809143,2.76462,0
35120,-1.60599,-0.817505,2.75641,0
35140,-1.60171,-0.825441,2.74689,0
35160,-1.59811,-0.831569,2.73791,0
35180,-1.59444,-0.838068,2.73009,0
35200,-1.58988,-0.845315,2.72231,0
35220,-1.5858,-0.853353,2.71405,0
35240,-1.58177,-0.861229,2.70379,0
35260,-1.5774,-0.867603,2.69138,0
35280,-1.57081,-0.872972,2.67837,0
35300,-1.56148,-0.878275,2.66516,0
35320,-1.55291,-0.883444,2.6526,0
35340,-1.54558,-0.888873,2.64053,0
35360,-1.53806,-0.894668,2.62845,0
35380,-1.52894,-0.899935,2.61514,0
35400,-1.52057,-0.904661,2.60187,0
35420,-1.51402,-0.909234,2.59085,0
35440,-1.50692,-0.914019,2.58027,0
35460,-1.49769,-0.918216,2.56806,0
35480,-1.49065,-0.922219,2.55686,0
35500,-1.48534,-0.926459,2.54625,0
35520,-1.47881,-0.930811,2.53447,0
35540,-1.47159,-0.934652,2.52128,0
35560,-1.46301,-0.937791,2.50775,0
35580,-1.45269,-0.940407,2.49307,0
35600,-1.44208,-0.942802,2.47834,0
35620,-1.43108,-0.945396,2.46386,0
35640,-1.41864,-0.947922,2.44918,0
35660,-1.40693,-0.950171,2.4358,0
35680,-1.39462,-0.952322,2.42195,0
35700,-1.38107,-0.954418,2.40587,0
35720,-1.36974,-0.956197,2.39057,0
35740,-1.35993,-0.95761,2.3769,0
35760,-1.34953,-0.958646,2.36265,0
35780,-1.3383,-0.959469,2.34776,0
35800,-1.32712,-0.959578,2.33401,0
35820,-1.31723,-0.959243,2.32153,0
35840,-1.30768,-0.959514,2.30869,0
35860,-1.29758,-0.960468,2.29441,0
35880,-1.28792,-0.960859,2.2807,0
35900,-1.27865,-0.960478,2.26852,0
35920,-1.26979,-0.960657,2.25742,0
35940,-1.26073,-0.961704,2.24572,0
35960,-1.2516,-0.962634,2.23239,0
35980,-1.24388,-0.962343,2.2195,0
36000,-1.2361,-0.960317,2.20817,0
36020,-1.2285,-0.958715,2.19887,0
36040,-1.21961,-0.957783,2.18942,0
36060,-1.21197,-0.957061,2.17936,0
36080,-1.20529,-0.956205,2.16891,0
36100,-1.20033,-0.95425,2.16033,0
36120,-1.19645,-0.952507,2.15345,0
36140,-1.19213,-0.95002,2.14699,0
36160,-1.18822,-0.947303,2.14099,0
36180,-1.18547,-0.944554,2.13594,0
36200,-1.18401,-0.941234,2.13198,0
36220,-1.18371,-0.938109,2.12932,0
36240,-1.18375,-0.934644,2.1269,0
36260,-1.18412,-0.931289,2.12509,0
36280,-1.18424,-0.927954,2.12301,0
36300,-1.18376,-0.924426,2.1212,0
36320,-1.1842,-0.920987,2.12079,0
36330,-1.18487,-0.917333,2.12146,0
36350,-1.18469,-0.914007,2.12186,0
36370,-1.1841,-0.910688,2.12116,0
36390,-1.1829,-0.907126,2.11983,0
36410,-1.18258,-0.902392,2.11932,0
36430,-1.18162,-0.897382,2.11983,0
36450,-1.17853,-0.892306,2.12004,0
36470,-1.17548,-0.887877,2.11975,0
36490,-1.17451,-0.883617,2.11985,0
36510,-1.17352,-0.879266,2.11945,0
36530,-1.17271,-0.874408,2.11923,0
36550,-1.17151,-0.87028,2.11931,0
36570,-1.17027,-0.865667,2.11945,0
36590,-1.1695,-0.860928,2.11981,0
36610,-1.17057,-0.856775,2.12176,0
36630,-1.17247,-0.852594,2.12344,0
36650,-1.1744,-0.84742,2.12461,0
36670,-1.1746,-0.840713,2.1257,0
36690,-1.17544,-0.833611,2.12752,0
36710,-1.17662,-0.826815,2.12945,0
36730,-1.17754,-0.819357,2.13094,0
36750,-1.17799,-0.811944,2.13197,0
36770,-1.17805,-0.80486,2.13216,0
36790,-1.17794,-0.797825,2.13171,0
36810,-1.17892,-0.790757,2.1321,0
36830,-1.17944,-0.783251,2.13233,0
36850,-1.17869,-0.775817,2.13232,0
36870,-1.17703,-0.769106,2.13226,0
36890,-1.17574,-0.762889,2.13319,0
36910,-1.17511,-0.758691,2.13409,0
36930,-1.17537,-0.754173,2.13484,0
36950,-1.1771,-0.749702,2.13644,0
36970,-1.1797,-0.747212,2.1394,0
36990,-1.18194,-0.745881,2.143,0
37010,-1.18396,-0.744561,2.14582,0
37030,-1.18672,-0.741961,2.14793,0
37050,-1.19111,-0.73854,2.15136,0
37070,-1.1943,-0.734682,2.15493,0
37090,-1.1955,-0.731196,2.15886,0
37110,-1.19707,-0.728551,2.1635,0
37130,-1.1997,-0.726423,2.16835,0
37150,-1.20366,-0.724036,2.17351,0
37170,-1.20809,-0.721523,2.1797,0
37190,-1.21224,-0.719764,2.18633,0
37210,-1.21678,-0.718923,2.19342,0
37230,-1.22185,-0.718223,2.20008,0
37250,-1.2265,-0.716978,2.20638,0
37270,-1.23113,-0.71552,2.21291,0
37290,-1.23512,-0.714193,2.21917,0
37310,-1.23915,-0.712104,2.22571,0
37330,-1.24316,-0.710561,2.23274,0
37350,-1.24668,-0.709523,2.23997,0
37370,-1.25048,-0.709025,2.24735,0
37390,-1.25523,-0.708819,2.25452,0
37410,-1.26023,-0.708487,2.26186,0
37430,-1.26575,-0.708655,2.27027,0
37450,-1.27093,-0.709592,2.27914,0
37470,-1.27553,-0.710481,2.28742,0
37490,-1.28131,-0.710677,2.29553,0
37510,-1.2871,-0.709613,2.30314,0
37530,-1.2935,-0.707906,2.3119,0
37550,-1.29949,-0.70611,2.32144,0
37570,-1.30688,-0.704814,2.3315,0
37590,-1.3138,-0.70343,2.34112,0
37610,-1.32101,-0.701806,2.35091,0
37630,-1.32936,-0.700848,2.36208,0
37650,-1.33827,-0.700646,2.37354,0
37670,-1.34596,-0.700465,2.38456,0
37690,-1.35256,-0.701348,2.39588,0
37710,-1.35933,-0.702863,2.40674,0
37730,-1.3664,-0.703645,2.4171,0
37750,-1.3731,-0.704081,2.42683,0
37770,-1.37835,-0.704305,2.43597,0
37790,-1.38372,-0.704227,2.44563,0
37810,-1.38958,-0.703762,2.45581,0
37830,-1.39497,-0.703247,2.46505,0
37850,-1.4003,-0.702459,2.47297,0
37870,-1.4073,-0.70146,2.48144,0
37890,-1.41473,-0.700735,2.49033,0
37910,-1.42096,-0.700307,2.49905,0
37930,-1.42769,-0.699358,2.50873,0
37950,-1.43605,-0.699057,2.51852,0
37970,-1.44456,-0.698997,2.52736,0
37990,-1.45186,-0.699119,2.53602,0
38010,-1.45941,-0.698882,2.54487,0
38030,-1.46734,-0.697379,2.5535,0
38050,-1.47479,-0.694747,2.56185,0
38080,-1.48802,-0.689943,2.57798,0
38100,-1.49437,-0.687555,2.5856,0
38120,-1.50084,-0.684741,2.59264,0
38140,-1.50649,-0.68218,2.59963,0
38160,-1.51153,-0.679815,2.60648,0
38180,-1.51639,-0.677377,2.61367,0
38200,-1.52149,-0.675026,2.62129,0
38220,-1.52618,-0.673373,2.62836,0
38240,-1.53071,-0.672036,2.6355,0
38260,-1.53571,-0.670758,2.64315,0
38280,-1.54057,-0.669986,2.65086,0
38300,-1.5461,-0.669249,2.65892,0
38320,-1.55202,-0.668791,2.66648,0
38340,-1.55711,-0.668228,2.67386,0
38360,-1.56175,-0.66783,2.68216,0
38380,-1.56638,-0.668508,2.69072,0
38400,-1.57013,-0.669337,2.69835,0
38420,-1.5747,-0.670434,2.70698,0
38440,-1.57904,-0.672791,2.71525,0
38460,-1.58278,-0.675201,2.7231,0
38480,-1.58671,-0.678187,2.73121,0
38500,-1.59004,-0.681138,2.73902,0
38520,-1.59354,-0.684162,2.74737,0
38540,-1.59738,-0.687706,2.75553,0
38560,-1.60029,-0.691551,2.76225,0
38580,-1.60277,-0.695129,2.76885,0
38600,-1.60514,-0.698862,2.77541,0
38620,-1.60809,-0.702341,2.78286,0
38640,-1.61154,-0.706091,2.79012,0
38660,-1.61423,-0.709684,2.79647,0
38680,-1.61691,-0.713418,2.8034,0
38700,-1.62117,-0.717588,2.81097,0
38720,-1.62639,-0.721941,2.81877,0
38740,-1.63128,-0.725539,2.82638,0
38760,-1.63604,-0.729397,2.83368,0
38780,-1.64155,-0.732955,2.84169,0
38800,-1.64683,-0.736368,2.84934,0
38820,-1.65296,-0.73983,2.85753,0
38840,-1.65925,-0.743136,2.86544,0
38860,-1.66599,-0.746154,2.87261,0
38880,-1.67261,-0.748344,2.8793,0
38900,-1.67931,-0.750237,2.88734,0
38910,-1.68538,-0.752742,2.89582,0
38930,-1.69133,-0.756499,2.9043,0
38950,-1.69793,-0.760504,2.91155,0
38970,-1.70434,-0.764197,2.91811,0
38990,-1.71069,-0.767528,2.92484,0
39010,-1.71604,-0.7711,2.93188,0
39030,-1.72037,-0.774836,2.93863,0
39050,-1.72481,-0.779239,2.94537,0
39070,-1.72836,-0.783147,2.95093,0
39090,-1.73199,-0.786947,2.95615,0
39110,-1.73554,-0.790424,2.96126,0
39130,-1.73843,-0.793461,2.96611,0
39150,-1.74164,-0.796779,2.97089,0
39170,-1.74474,-0.799195,2.97572,0
39190,-1.74757,-0.801501,2.97984,0
39210,-1.7506,-0.803313,2.98312,0
39230,-1.75391,-0.804697,2.98657,0
39250,-1.75709,-0.805172,2.99004,0
39270,-1.75932,-0.805585,2.99345,0
39290,-1.75996,-0.806942,2.99599,0
39310,-1.76305,-0.809337,2.99965,0
39330,-1.769,-0.812679,3.00409,0
39350,-1.77354,-0.815801,3.00701,0
39370,-1.77547,-0.818654,3.00911,0
39390,-1.77761,-0.821873,3.01253,0
39410,-1.78066,-0.82592,3.01655,0
39430,-1.78436,-0.829707,3.01909,0
39450,-1.7872,-0.832373,3.02131,0
39470,-1.79049,-0.835001,3.02412,0
39490,-1.79459,-0.83744,3.02747,0
39510,-1.79818,-0.839579,3.02982,0
39530,-1.8007,-0.841426,3.03156,0
39550,-1.80488,-0.843941,3.03425,0
39570,-1.80924,-0.846928,3.03732,0
39590,-1.81302,-0.849758,3.03958,0
39610,-1.81612,-0.852013,3.04098,0
39630,-1.819,-0.853844,3.04276,0
39650,-1.82069,-0.856159,3.04427,0
39670,-1.82136,-0.859661,3.04553,0
39690,-1.82255,-0.863345,3.04624,0
39710,-1.82378,-0.866707,3.04571,0
39730,-1.82398,-0.869749,3.04476,0
39750,-1.82353,-0.872325,3.04403,0
39770,-1.82396,-0.87532,3.04475,0
39790,-1.82446,-0.878554,3.04532,0
39810,-1.82387,-0.882058,3.04497,0
39830,-1.82518,-0.885837,3.04502,0
39850,-1.82756,-0.889122,3.04567,0
39870,-1.82853,-0.892237,3.04642,0
39890,-1.82903,-0.895638,3.04805,0
39910,-1.83046,-0.900021,3.05008,0
39930,-1.8333,-0.904863,3.05198,0
39950,-1.8374,-0.908706,3.05347,0
39970,-1.83915,-0.91163,3.0543,0
39990,-1.84059,-0.913873,3.05651,0
40010,-1.84309,-0.916822,3.06059,0
40030,-1.84616,-0.920097,3.06371,0
40050,-1.84862,-0.92362,3.06432,0
40070,-1.8505,-0.926386,3.06403,0
40090,-1.85349,-0.928773,3.06563,0
40110,-1.85595,-0.931445,3.06775,0
40130,-1.85794,-0.934832,3.06977,0
40150,-1.86081,-0.938631,3.07145,0
40170,-1.86344,-0.94216,3.0717,0
40190,-1.86388,-0.945014,3.07097,0
40210,-1.86509,-0.947562,3.07155,0
40230,-1.86503,-0.950946,3.07152,0
40250,-1.86417,-0.954944,3.07093,0
40270,-1.86471,-0.958656,3.07029,0
40290,-1.86489,-0.960997,3.06931,0
40310,-1.86411,-0.962787,3.06771,0
40330,-1.86366,-0.964737,3.06702,0
40350,-1.86333,-0.967028,3.06647,2001
40370,-1.86284,-0.969041,3.06452,0
40390,-1.86286,-0.971122,3.06212,0
40410,-1.86266,-0.973019,3.06041,0
40430,-1.86167,-0.975043,3.05902,0
40450,-1.85987,-0.976612,3.0565,0
40470,-1.85795,-0.978564,3.0543,0
40490,-1.85629,-0.980508,3.05292,0
40510,-1.85346,-0.983088,3.04955,0
40530,-1.85151,-0.985641,3.04634,0
40550,-1.85171,-0.987254,3.04487,0
40570,-1.85153,-0.988639,3.04355,0
40590,-1.85048,-0.990228,3.04208,0
40610,-1.84985,-0.991215,3.0408,0
40630,-1.84992,-0.991869,3.04051,0
40650,-1.84919,-0.992345,3.04041,0
40670,-1.84685,-0.993423,3.04048,0
40690,-1.84672,-0.99501,3.03884,0
40710,-1.84842,-0.99661,3.0396,0
40730,-1.84948,-0.995299,3.03917,0
40750,-1.84476,-0.993044,3.03241,0
40770,-1.83654,-0.991035,3.02414,0
40790,-1.83058,-0.990095,3.01856,0
40810,-1.82303,-0.990104,3.01217,0
40830,-1.81536,-0.990395,3.00512,0
40850,-1.80744,-0.990766,2.99699,0
40870,-1.80299,-0.990662,2.99208,0
40890,-1.80173,-0.990904,2.9896,0
40910,-1.7991,-0.991264,2.98503,0
40930,-1.79388,-0.992058,2.97739,0
40950,-1.78832,-0.99216,2.96869,0
40970,-1.78342,-0.992537,2.96068,0
40990,-1.77634,-0.991838,2.9512,0
41010,-1.76554,-0.990203,2.93921,0
41030,-1.75932,-0.989135,2.93211,0
41050,-1.75428,-0.98878,2.92644,0
41070,-1.74992,-0.988884,2.92216,0
41090,-1.74981,-0.990042,2.92094,0
41110,-1.75192,-0.992335,2.92164,0
41130,-1.75396,-0.993833,2.92159,0
41150,-1.75617,-0.994563,2.92146,0
41170,-1.76001,-0.99436,2.92394,0
41190,-1.76139,-0.993959,2.92597,0
41210,-1.76087,-0.994516,2.92881,0
41230,-1.75979,-0.995851,2.93206,0
41250,-1.75859,-0.99802,2.93591,0
41270,-1.7587,-1.00121,2.94178,0
41290,-1.76,-1.00456,2.94949,0
41310,-1.76262,-1.00736,2.95844,0
41330,-1.76806,-1.0107,2.97007,0
41350,-1.77343,-1.01388,2.98198,0
41370,-1.77762,-1.01582,2.99282,0
41390,-1.78063,-1.01701,3.0008,0
41410,-1.78122,-1.01685,3.00601,0
41430,-1.77844,-1.01484,3.0095,0
41450,-1.77113,-1.01196,3.01019,0
41470,-1.75718,-1.00789,3.00677,0
41490,-1.73541,-1.00218,2.99738,0
41500,-1.71178,-0.994646,2.98733,0
41520,-1.68964,-0.986646,2.97732,0
41540,-1.66988,-0.978032,2.96742,0
41560,-1.64641,-0.970111,2.95429,0
41580,-1.61647,-0.959827,2.93607,0
41600,-1.58777,-0.948181,2.91587,0
41620,-1.55738,-0.935496,2.89344,0
41640,-1.52723,-0.919828,2.87235,0
41660,-1.50006,-0.902157,2.85312,0
41680,-1.469,-0.881543,2.83112,0
41700,-1.43439,-0.857856,2.80854,0
41720,-1.40194,-0.834517,2.78816,0
41740,-1.3768,-0.814574,2.77363,0
41760,-1.35168,-0.794818,2.75739,0
41780,-1.3282,-0.770699,2.74002,0
41800,-1.30975,-0.74463,2.72782,0
41820,-1.28995,-0.720052,2.71789,0
41840,-1.26939,-0.695164,2.70934,0
41860,-1.25211,-0.670767,2.70463,0
41880,-1.24169,-0.64971,2.7043,0
41900,-1.22949,-0.628542,2.70453,0
41920,-1.21774,-0.605788,2.70815,0
41940,-1.2093,-0.586496,2.71612,0
41960,-1.19994,-0.570173,2.72284,0
41980,-1.193,-0.553968,2.7295,0
42000,-1.18937,-0.537654,2.73845,0
42020,-1.18937,-0.524047,2.74926,0
42040,-1.18751,-0.512407,2.76013,0
42060,-1.18387,-0.502477,2.77101,0
42080,-1.18081,-0.493024,2.78392,0
42100,-1.18015,-0.484673,2.79953,0
42120,-1.1812,-0.479032,2.81527,0
42140,-1.18132,-0.475532,2.8286,0
42160,-1.18201,-0.472589,2.84139,0
42180,-1.18357,-0.471078,2.85551,0
42200,-1.1854,-0.471463,2.86979,0
42220,-1.18706,-0.47239,2.88361,0
42240,-1.18822,-0.47359,2.89644,0
42260,-1.18911,-0.474832,2.90908,0
42280,-1.1907,-0.476254,2.92087,0
42300,-1.19258,-0.476776,2.93149,0
42320,-1.19483,-0.476896,2.94082,0
42340,-1.19602,-0.47684,2.94829,0
42360,-1.19575,-0.475324,2.9536,0
42380,-1.19635,-0.472244,2.95893,0
42400,-1.19712,-0.470084,2.96319,0
42420,-1.19694,-0.468579,2.96617,0
42440,-1.19634,-0.467057,2.9686,0
42460,-1.19562,-0.466155,2.97095,0
42480,-1.19386,-0.465887,2.97246,0
42500,-1.19231,-0.465193,2.97357,0
42520,-1.19162,-0.463603,2.97562,0
42540,-1.19243,-0.462124,2.97894,0
42560,-1.19489,-0.460965,2.98277,0
42580,-1.19649,-0.459154,2.98571,0
42600,-1.19793,-0.456006,2.98816,0
42620,-1.19892,-0.452047,2.99029,0
42640,-1.19902,-0.44831,2.9918,0
42660,-1.19937,-0.444893,2.99186,0
42680,-1.19962,-0.441203,2.99142,0
42700,-1.19945,-0.438191,2.99181,0
42720,-1.19935,-0.436555,2.99284,0
42740,-1.19888,-0.435357,2.99334,0
42760,-1.19809,-0.43324,2.99331,0
42780,-1.19862,-0.430428,2.9932,0
42800,-1.20131,-0.427925,2.99379,0
42820,-1.20336,-0.425722,2.99435,0
42840,-1.20419,-0.424569,2.99432,0
42860,-1.20448,-0.423288,2.99456,0
42880,-1.20421,-0.421978,2.99547,0
42900,-1.20441,-0.420767,2.99621,0
42920,-1.20485,-0.420017,2.99655,0
42940,-1.20521,-0.419597,2.99617,0
42960,-1.20569,-0.419051,2.99541,0
42980,-1.20597,-0.417247,2.99439,0
43000,-1.20573,-0.415316,2.99365,0
43020,-1.2053,-0.41393,2.99356,0
43040,-1.20488,-0.412876,2.99323,0
43060,-1.2043,-0.412566,2.99262,0
43080,-1.20414,-0.41256,2.99259,0
43100,-1.20416,-0.411509,2.99235,0
43120,-1.20442,-0.410215,2.99258,0
43140,-1.20437,-0.409657,2.9925,0
43160,-1.20465,-0.409054,2.9926,0
43180,-1.20524,-0.408115,2.9939,0
43200,-1.20561,-0.408007,2.99526,0
43220,-1.20612,-0.40822,2.9964,0
43240,-1.2072,-0.408413,2.99732,0
43260,-1.20833,-0.407829,2.99786,0
43280,-1.20885,-0.406826,2.9988,0
43300,-1.20945,-0.406983,2.99962,0
43320,-1.20921,-0.407377,2.99985,0
43340,-1.20906,-0.407371,2.99982,0
43360,-1.20831,-0.407293,3.00011,0
43380,-1.20719,-0.40744,3.00065,0
43400,-1.20482,-0.407702,3.00106,2000
43420,-1.20384,-0.407932,3.00152,0
43440,-1.20388,-0.407888,3.0018,0
43460,-1.2039,-0.407994,3.00188,0
43480,-1.2025,-0.409094,3.00117,0
43500,-1.20031,-0.409592,2.99978,0
43520,-1.19982,-0.409137,2.99878,0
43540,-1.20048,-0.408294,2.99847,0
43560,-1.20139,-0.407731,2.99869,0
43580,-1.20169,-0.407398,2.99882,0
43600,-1.20128,-0.406196,2.99871,0
43620,-1.20087,-0.405234,2.99845,0
43640,-1.20165,-0.404772,2.99872,0
43660,-1.20274,-0.404741,2.99887,0
43680,-1.20267,-0.404424,2.99865,0
43700,-1.20252,-0.404328,2.99855,0
43720,-1.20013,-0.40408,2.99816,0
43740,-1.19884,-0.403967,2.99773,0
43760,-1.19856,-0.404075,2.99791,0
43780,-1.1984,-0.404729,2.99864,0
43800,-1.19884,-0.405513,2.99984,0
43820,-1.20015,-0.406796,3.00184,0
43840,-1.20209,-0.408687,3.00358,0
43860,-1.20326,-0.410533,3.00518,0
43880,-1.20435,-0.412359,3.0072,0
43900,-1.20623,-0.414962,3.01006,0
43920,-1.20884,-0.418069,3.01308,0
43940,-1.21158,-0.421223,3.01586,0
43960,-1.21401,-0.423761,3.01878,0
43980,-1.2169,-0.426461,3.02161,0
44000,-1.21858,-0.429753,3.02342,0
44020,-1.21961,-0.432655,3.02499,0
44040,-1.2209,-0.43464,3.02751,0
44060,-1.2224,-0.436052,3.03002,0
44080,-1.2231,-0.43704,3.03161,0
44090,-1.22335,-0.437703,3.03334,0
44110,-1.22437,-0.437839,3.03471,0
44130,-1.22594,-0.437791,3.03652,0
44150,-1.22856,-0.437691,3.03894,0
44170,-1.23069,-0.437724,3.04122,0
44190,-1.23203,-0.437733,3.0435,0
44210,-1.23403,-0.437441,3.04598,0
44230,-1.23707,-0.437698,3.04798,0
44250,-1.23948,-0.438237,3.04898,0
44270,-1.24092,-0.438016,3.05096,0
44290,-1.24258,-0.43788,3.05396,0
44310,-1.24482,-0.438374,3.05645,0
44330,-1.24656,-0.439366,3.05766,0
44350,-1.24788,-0.440645,3.05882,0
44370,-1.24931,-0.441824,3.06055,0
44390,-1.25009,-0.44224,3.06273,0
44410,-1.25093,-0.442835,3.06425,0
44430,-1.25149,-0.443697,3.06576,0
44450,-1.25128,-0.445642,3.06745,0
44470,-1.25149,-0.448292,3.0683,0
44490,-1.25245,-0.45074,3.06838,0
44510,-1.2534,-0.452926,3.06859,0
44530,-1.25409,-0.455467,3.06887,0
44550,-1.25442,-0.458645,3.06842,0
44570,-1.25503,-0.462146,3.06824,0
44590,-1.25539,-0.465415,3.06787,0
44610,-1.25618,-0.46782,3.06712,0
44630,-1.25786,-0.470031,3.06626,0
44650,-1.25933,-0.472351,3.06436,0
44670,-1.25955,-0.474331,3.06193,0
44690,-1.25963,-0.475832,3.0599,0
44710,-1.25856,-0.47763,3.05735,0
44730,-1.25758,-0.480127,3.05408,0
44750,-1.25718,-0.482682,3.05067,0
44770,-1.25757,-0.484812,3.04682,0
44790,-1.25788,-0.486081,3.04308,0
44810,-1.25772,-0.486841,3.03967,0
44830,-1.2581,-0.487821,3.03636,0
44850,-1.25741,-0.488797,3.03251,0
44870,-1.25726,-0.48973,3.02907,0
44890,-1.25718,-0.491881,3.02507,0
44910,-1.25659,-0.493819,3.02035,0
44930,-1.25599,-0.495165,3.016,0
44950,-1.25551,-0.496327,3.01152,0
44970,-1.25375,-0.497847,3.00592,0
44990,-1.2521,-0.500105,3.00058,0
45010,-1.25061,-0.502102,2.99459,0
45030,-1.24889,-0.503859,2.98758,0
45050,-1.24682,-0.504793,2.9799,0
45070,-1.24369,-0.505344,2.97209,0
45090,-1.24084,-0.506132,2.96448,0
45110,-1.23828,-0.507689,2.95715,0
45130,-1.2359,-0.509838,2.94885,0
45150,-1.2345,-0.511678,2.94004,0
45170,-1.23283,-0.513078,2.9307,0
45170,-1.22935,-0.515092,2.9208,0
45190,-1.22575,-0.517443,2.91079,0
45210,-1.22293,-0.520235,2.89978,0
45230,-1.22065,-0.522983,2.88819,0
45250,-1.21717,-0.525683,2.87696,0
45270,-1.21364,-0.528274,2.86628,0
45290,-1.21054,-0.530004,2.8546,0
45310,-1.20727,-0.531924,2.84188,0
45330,-1.20333,-0.533893,2.82875,0
45350,-1.19952,-0.535916,2.81534,0
45370,-1.19589,-0.538223,2.80197,0
45390,-1.19149,-0.540704,2.78856,0
45410,-1.18658,-0.54382,2.77497,0
45430,-1.18173,-0.547611,2.7615,0
45450,-1.17714,-0.551211,2.7479,0
45470,-1.17189,-0.555158,2.7342,0
45490,-1.16682,-0.559338,2.72067,0
45510,-1.16222,-0.563381,2.70708,0
45530,-1.15755,-0.566833,2.69417,0
45550,-1.15306,-0.570807,2.68272,0
45570,-1.14973,-0.575212,2.67151,0
45590,-1.14724,-0.57846,2.65916,0
45610,-1.14474,-0.581219,2.64737,0
45630,-1.14242,-0.584543,2.63719,0
45650,-1.1394,-0.58908,2.62756,0
45670,-1.13678,-0.594361,2.61773,0
45690,-1.13486,-0.59893,2.60789,0
45710,-1.13341,-0.602951,2.59888,0
45730,-1.13084,-0.606988,2.5902,0
45750,-1.12858,-0.611222,2.58165,0
45770,-1.12641,-0.615225,2.57258,0
45790,-1.12459,-0.618711,2.56338,0
45810,-1.12343,-0.621464,2.55483,0
45830,-1.12201,-0.624234,2.54677,0
45850,-1.11966,-0.62652,2.53893,0
45870,-1.11761,-0.628501,2.53196,0
45890,-1.11678,-0.630486,2.525,0
45910,-1.11539,-0.632909,2.51699,0
45930,-1.11323,-0.63477,2.50915,0
45950,-1.11083,-0.636422,2.50174,0
45970,-1.10897,-0.638126,2.49445,0
45990,-1.10625,-0.639392,2.487,0
46010,-1.10314,-0.640929,2.47937,0
46030,-1.10044,-0.641843,2.47158,0
46050,-1.09887,-0.641806,2.46436,0
46070,-1.0968,-0.64146,2.45729,0
46090,-1.09517,-0.641805,2.45156,0
46110,-1.09316,-0.642465,2.44595,0
46130,-1.09155,-0.642301,2.43945,0
46150,-1.09034,-0.641263,2.43329,0
46170,-1.08912,-0.64018,2.42842,0
46190,-1.08659,-0.639537,2.4236,0
46210,-1.08365,-0.639602,2.419,0
46230,-1.08196,-0.639831,2.41512,0
46250,-1.08132,-0.640246,2.41176,0
46270,-1.08109,-0.64063,2.4088,0
46290,-1.07967,-0.640955,2.40589,0
46310,-1.07812,-0.641597,2.4041,0
46330,-1.07743,-0.642372,2.40379,0
46350,-1.07718,-0.643303,2.40348,0
46370,-1.07665,-0.643801,2.40292,0
46390,-1.07736,-0.644072,2.40336,0
46410,-1.0792,-0.644496,2.40473,0
46430,-1.08054,-0.644464,2.40601,0
46450,-1.08033,-0.644225,2.40704,0
46470,-1.08084,-0.643792,2.40902,0
46490,-1.08145,-0.643509,2.41099,0
46510,-1.08098,-0.643909,2.41206,0
46530,-1.08167,-0.643487,2.41279,0
46550,-1.08215,-0.641862,2.41269,0
46570,-1.08195,-0.639812,2.41339,0
46590,-1.08126,-0.638593,2.41441,0
46610,-1.07963,-0.637423,2.41485,0
46630,-1.07874,-0.635278,2.41556,0
46650,-1.07858,-0.632939,2.41622,0
46660,-1.07819,-0.630832,2.41681,0
46680,-1.07702,-0.628126,2.41859,0
46700,-1.07676,-0.624967,2.42174,0
46720,-1.07695,-0.622356,2.42494,0
46740,-1.07694,-0.619281,2.42731,0
46760,-1.07745,-0.615466,2.42988,0
46780,-1.07949,-0.610446,2.43364,0
46800,-1.08245,-0.605031,2.43914,0
46820,-1.08463,-0.600298,2.44521,0
46840,-1.08683,-0.596139,2.45092,0
46860,-1.0894,-0.591264,2.45631,0
46880,-1.09283,-0.586455,2.46184,0
46900,-1.09518,-0.580919,2.46723,0
46920,-1.09722,-0.575344,2.47346,0
46940,-1.09924,-0.571297,2.47997,0
46960,-1.10067,-0.568007,2.48629,0
46980,-1.10212,-0.56532,2.49338,0
47000,-1.10378,-0.563087,2.50032,0
47020,-1.10656,-0.5618,2.50684,0
47040,-1.10994,-0.561275,2.51354,0
47060,-1.11254,-0.560588,2.52058,0
47080,-1.11485,-0.560182,2.5287,0
47100,-1.11626,-0.560395,2.53662,0
47120,-1.11829,-0.560521,2.5436,0
47140,-1.12153,-0.560414,2.55097,0
47160,-1.12546,-0.560052,2.55964,0
47180,-1.12891,-0.560017,2.56875,0
47200,-1.13204,-0.559429,2.57733,0
47220,-1.13584,-0.557882,2.58641,0
47240,-1.14016,-0.556696,2.59594,0
47260,-1.14439,-0.556208,2.60519,0
47280,-1.14839,-0.55496,2.61436,0
47300,-1.15292,-0.552934,2.62486,0
47320,-1.15722,-0.551751,2.63562,0
47340,-1.16162,-0.551134,2.64565,0
47360,-1.16651,-0.549958,2.65524,0
47380,-1.17184,-0.548615,2.66457,0
47400,-1.17707,-0.547148,2.67402,0
47420,-1.18149,-0.545916,2.68365,0
47440,-1.18556,-0.544378,2.69303,0
47460,-1.18925,-0.542489,2.7018,0
47480,-1.19264,-0.541046,2.71083,0
47500,-1.19681,-0.539897,2.71978,0
47520,-1.20192,-0.538292,2.72926,0
47540,-1.20656,-0.536424,2.73895,0
47560,-1.21,-0.534396,2.74821,0
47580,-1.21364,-0.532692,2.75769,0
47600,-1.21829,-0.531621,2.76741,0
47620,-1.22274,-0.529778,2.7766,0
47640,-1.22709,-0.526775,2.78644,0
47660,-1.23136,-0.524912,2.7967,0
47680,-1.23512,-0.523032,2.80671,0
47690,-1.23871,-0.520104,2.81678,0
47710,-1.24314,-0.517466,2.82699,0
47730,-1.2466,-0.515311,2.83623,0
47750,-1.24882,-0.513843,2.84544,0
47770,-1.25188,-0.512504,2.85583,0
47790,-1.25589,-0.512471,2.86634,0
47810,-1.2601,-0.51186,2.87533,0
47830,-1.2647,-0.510948,2.88468,0
47850,-1.27017,-0.510128,2.89522,0
47870,-1.27487,-0.509569,2.90567,0
47890,-1.27923,-0.508667,2.91598,0
47910,-1.28405,-0.507829,2.92594,0
47930,-1.29027,-0.50745,2.93619,0
47950,-1.29674,-0.507493,2.94651,0
47970,-1.30315,-0.507615,2.95706,0
47990,-1.30887,-0.508116,2.96798,0
48010,-1.3148,-0.509957,2.97867,0
48030,-1.32077,-0.511824,2.98847,0
48050,-1.32691,-0.513375,2.99827,0
48070,-1.33438,-0.515732,3.00887,0
48090,-1.34221,-0.518102,3.01931,0
48110,-1.34913,-0.519512,3.02883,0
48130,-1.35609,-0.52095,3.03827,0
48150,-1.36315,-0.523355,3.04789,0
48170,-1.36902,-0.525819,3.05641,0
48190,-1.37442,-0.528297,3.06398,0
48210,-1.37977,-0.530912,3.07173,0
48230,-1.385,-0.533719,3.07998,0
48250,-1.38916,-0.53655,3.08768,0
48270,-1.39583,-0.543394,3.10271,0
48290,-1.40156,-0.54733,3.11109,0
48310,-1.4073,-0.5507,3.11898,0
48330,-1.41237,-0.554169,3.12714,0
48350,-1.41658,-0.5576,3.13565,0
48370,-1.42165,-0.561318,-3.1389,0
48390,-1.42608,-0.565416,-3.1307,0
48410,-1.43074,-0.570211,-3.12265,0
48430,-1.43493,-0.574892,-3.11459,0
48450,-1.43983,-0.579942,-3.10596,0
48470,-1.44539,-0.585833,-3.09635,0
48490,-1.45151,-0.592058,-3.08616,0
48510,-1.45653,-0.597752,-3.07663,0
48530,-1.46187,-0.604093,-3.06712,0
48550,-1.46718,-0.610846,-3.05748,0
48570,-1.47331,-0.617463,-3.0482,0
48590,-1.47897,-0.623252,-3.03926,0
48610,-1.48415,-0.628518,-3.03103,0
48630,-1.48884,-0.634026,-3.02316,0
48650,-1.49343,-0.640339,-3.01655,0
48670,-1.49823,-0.647202,-3.01065,0
48690,-1.5024,-0.654598,-3.00486,0
48710,-1.5063,-0.662439,-2.99997,0
48730,-1.50981,-0.669742,-2.9961,0
48750,-1.5131,-0.676812,-2.99319,0
48770,-1.51576,-0.683419,-2.99186,0
48790,-1.51691,-0.690151,-2.99186,0
48810,-1.51777,-0.697366,-2.99261,0
48830,-1.5201,-0.704909,-2.99444,0
48850,-1.52225,-0.711681,-2.99762,0
48870,-1.52283,-0.717885,-3.00143,0
48890,-1.52205,-0.724822,-3.00508,0
48910,-1.52186,-0.73357,-3.00907,0
48930,-1.52325,-0.742608,-3.01383,0
48950,-1.52501,-0.751433,-3.01919,0
48970,-1.52618,-0.760069,-3.02493,0
48990,-1.52608,-0.768606,-3.03018,0
49010,-1.52672,-0.777407,-3.03487,0
49030,-1.52865,-0.786991,-3.03989,0
49050,-1.53061,-0.796752,-3.04583,0
49070,-1.53069,-0.805428,-3.05367,0
49090,-1.53002,-0.813508,-3.061,0
49110,-1.52997,-0.821976,-3.0673,0
49130,-1.529,-0.830942,-3.07529,0
49150,-1.52808,-0.838777,-3.08484,0
49170,-1.52634,-0.846126,-3.09444,0
49190,-1.52468,-0.853854,-3.10385,0
49210,-1.52275,-0.861572,-3.11378,0
49220,-1.51846,-0.868641,-3.12531,0
49240,-1.51475,-0.874846,-3.13593,0
49260,-1.51048,-0.881546,3.13657,0
49280,-1.50631,-0.889241,3.12482,0
49300,-1.50248,-0.896228,3.11293,0
49320,-1.49851,-0.902579,3.10099,0
49340,-1.49299,-0.909052,3.08887,0
49360,-1.48608,-0.91606,3.07614,0
49380,-1.47934,-0.922757,3.06254,0
49400,-1.47351,-0.929247,3.04915,0
49420,-1.46768,-0.935133,3.03553,0
49440,-1.45842,-0.941204,3.01972,0
49460,-1.44958,-0.94757,3.00384,0
49480,-1.4422,-0.953231,2.9889,0
49500,-1.43467,-0.958859,2.97415,0
49520,-1.42566,-0.964704,2.95857,0
49540,-1.41661,-0.969969,2.94305,0
49560,-1.40693,-0.974677,2.92666,0
49580,-1.39803,-0.97904,2.91103,0
49600,-1.38954,-0.983576,2.89579,0
49620,-1.37969,-0.98761,2.8801,0
49640,-1.36934,-0.991453,2.86478,0
49660,-1.35942,-0.994911,2.84988,0
49680,-1.35031,-0.99791,2.83454,0
49700,-1.34021,-1.00047,2.81857,0
49720,-1.33,-1.00236,2.80321,0
49740,-1.32022,-1.0041,2.78935,0
49760,-1.31026,-1.00545,2.77524,0
49780,-1.3005,-1.00639,2.76092,0
49800,-1.29043,-1.00656,2.74714,0
49820,-1.28176,-1.00683,2.73463,0
49840,-1.27249,-1.00717,2.72154,0
49860,-1.26237,-1.00696,2.70756,0
49880,-1.25369,-1.00621,2.69484,0
49900,-1.24562,-1.00489,2.68317,0
49920,-1.23695,-1.00303,2.67157,0
49940,-1.22689,-1.00116,2.6602,0
49960,-1.2186,-0.999487,2.65051,0
49980,-1.21216,-0.997241,2.64166,0
50000,-1.20556,-0.994262,2.63254,0
50020,-1.19942,-0.99054,2.6236,0
50040,-1.19214,-0.986694,2.61554,0
50060,-1.18609,-0.98393,2.60865,0
50080,-1.18059,-0.981644,2.60096,0
50100,-1.17467,-0.978243,2.59191,0
50120,-1.16952,-0.97407,2.58414,0
50140,-1.16508,-0.969916,2.57877,0
50160,-1.15988,-0.966955,2.57346,0
50180,-1.15387,-0.964333,2.56691,0
50200,-1.15081,-0.96076,2.56099,0
50220,-1.14955,-0.956241,2.55652,0
50240,-1.14761,-0.951658,2.55257,0
50260,-1.14417,-0.946086,2.54815,0
50280,-1.14162,-0.939733,2.54455,0
50300,-1.14038,-0.93362,2.54178,0
50320,-1.13874,-0.926806,2.53944,0
50340,-1.13662,-0.919846,2.53766,0
50360,-1.13495,-0.913895,2.53727,0
50380,-1.13405,-0.909079,2.53682,0
50400,-1.1334,-0.904571,2.53532,0
50420,-1.13325,-0.899854,2.53535,0
50440,-1.13425,-0.895135,2.53794,0
50460,-1.13332,-0.891889,2.53962,0
50480,-1.13249,-0.889081,2.54103,0
50500,-1.13276,-0.885792,2.54303,0
50520,-1.13349,-0.88147,2.54533,0
50540,-1.13332,-0.876814,2.54828,0
50560,-1.13384,-0.873827,2.55304,0
50580,-1.13448,-0.870813,2.55691,0
50600,-1.13625,-0.866379,2.56089,0
50620,-1.14005,-0.861377,2.56692,0
50640,-1.14466,-0.858557,2.57453,0
50660,-1.14821,-0.856549,2.58157,0
50680,-1.15183,-0.853005,2.58788,0
50700,-1.15731,-0.848731,2.59433,0
50720,-1.16272,-0.844734,2.60067,0
50740,-1.16771,-0.841495,2.60761,0
50760,-1.17102,-0.837773,2.61309,0
50780,-1.17354,-0.833685,2.61844,0
50800,-1.17638,-0.829754,2.62375,0
50820,-1.17992,-0.826314,2.62829,0
50840,-1.1827,-0.822618,2.63293,0
50860,-1.1855,-0.818961,2.63886,0
50880,-1.18855,-0.815677,2.64505,0
50900,-1.19242,-0.813028,2.65096,0
50920,-1.19636,-0.809461,2.65665,0
50940,-1.20044,-0.805705,2.66239,0
50960,-1.20523,-0.802538,2.66869,0
50980,-1.2098,-0.799468,2.6755,0
51000,-1.21348,-0.796016,2.68179,0
51020,-1.21622,-0.791607,2.68699,0
51040,-1.21957,-0.787286,2.69186,0
51060,-1.2244,-0.783047,2.69822,0
51080,-1.22808,-0.778565,2.70513,0
51100,-1.23121,-0.77474,2.71247,0
51120,-1.23417,-0.771646,2.71845,0
51140,-1.23704,-0.768037,2.72299,0
51160,-1.24111,-0.7645,2.72874,0
51180,-1.24483,-0.761374,2.73502,0
51200,-1.24704,-0.758425,2.74169,0
51220,-1.24917,-0.755904,2.74844,0
51240,-1.25092,-0.753872,2.75365,0
51260,-1.25317,-0.751595,2.75899,0
51280,-1.25711,-0.749368,2.76533,0
51300,-1.2612,-0.746579,2.77183,0
51320,-1.264,-0.74304,2.7785,0
51340,-1.26736,-0.740066,2.78638,0
51360,-1.27196,-0.737978,2.79398,0
51380,-1.27674,-0.735185,2.8006,0
51400,-1.28234,-0.731374,2.80826,0
51420,-1.28791,-0.727852,2.81695,0
51440,-1.29212,-0.725669,2.82589,0
51460,-1.29622,-0.724066,2.83468,0
51480,-1.30106,-0.722268,2.8432,0
51500,-1.30652,-0.720342,2.85142,0
51520,-1.31324,-0.718369,2.86048,0
51540,-1.31937,-0.716488,2.87048,0
51560,-1.32436,-0.715392,2.88025,0
51580,-1.32912,-0.714153,2.88984,0
51600,-1.33438,-0.713102,2.8992,0
51620,-1.34092,-0.712147,2.90865,0
51640,-1.34706,-0.71073,2.91818,0
51660,-1.35276,-0.709556,2.92777,0
51680,-1.35824,-0.708203,2.93783,0
51700,-1.3636,-0.707663,2.94754,0
51720,-1.3692,-0.70732,2.95655,0
51740,-1.37482,-0.706256,2.96556,0
51760,-1.38009,-0.705021,2.97519,0
51780,-1.38428,-0.704571,2.98513,0
51800,-1.38896,-0.704386,2.99531,0
51810,-1.39458,-0.703813,3.00477,0
51830,-1.40136,-0.703054,3.01411,0
51850,-1.40817,-0.702169,3.02356,0
51870,-1.41375,-0.701146,3.033,0
51890,-1.41749,-0.699616,3.04201,0
51910,-1.42093,-0.698523,3.05075,0
51930,-1.42567,-0.697898,3.05927,0
51950,-1.43125,-0.696385,3.06734,0
51970,-1.43667,-0.694824,3.07596,0
51990,-1.44074,-0.693864,3.08469,0
52010,-1.44527,-0.693465,3.09371,0
52030,-1.45095,-0.693141,3.10285,0
52050,-1.45715,-0.69255,3.11167,0
52070,-1.46378,-0.692621,3.12104,0
52090,-1.47014,-0.692737,3.13098,0
52110,-1.47668,-0.693109,3.14105,0
52130,-1.48451,-0.69422,-3.13129,0
52150,-1.4929,-0.696111,-3.12075,0
52170,-1.50083,-0.697939,-3.11073,0
52190,-1.50808,-0.699745,-3.10076,0
52210,-1.51523,-0.701926,-3.09067,0
52230,-1.52168,-0.704424,-3.08059,0
52250,-1.52875,-0.707713,-3.07039,0
52270,-1.53641,-0.711494,-3.06031,0
52290,-1.54458,-0.71553,-3.04994,0
52310,-1.55399,-0.719878,-3.0389,0
52330,-1.56386,-0.724285,-3.02759,0
52350,-1.57333,-0.729348,-3.0161,0
52370,-1.58299,-0.734972,-3.00508,0
52390,-1.59353,-0.740471,-2.99438,0
52410,-1.60364,-0.746039,-2.98384,0
52430,-1.61287,-0.751821,-2.97377,0
52450,-1.6212,-0.7575,-2.96388,0
52470,-1.63146,-0.76293,-2.95267,0
52490,-1.64052,-0.768341,-2.94271,0
52510,-1.65037,-0.774629,-2.93314,0
52530,-1.65922,-0.780867,-2.9243,0
52550,-1.66754,-0.78584,-2.91688,0
52570,-1.67567,-0.788065,-2.91003,0
52590,-1.68364,-0.789278,-2.90218,0
52610,-1.69169,-0.792132,-2.89313,0
52630,-1.69894,-0.796945,-2.88714,0
52650,-1.70826,-0.801103,-2.88206,0
52670,-1.71926,-0.803999,-2.87692,0
52690,-1.72815,-0.806683,-2.87271,0
52710,-1.73408,-0.810128,-2.86885,0
52730,-1.73972,-0.814904,-2.86423,0
52750,-1.74672,-0.822464,-2.85964,0
52770,-1.752,-0.830045,-2.85795,0
52790,-1.75547,-0.83703,-2.85782,0
52810,-1.7577,-0.843562,-2.85806,0
52830,-1.75905,-0.849891,-2.85896,0
52850,-1.76064,-0.855779,-2.86035,0
52870,-1.76025,-0.860661,-2.86404,0
52890,-1.76042,-0.86409,-2.86653,0
52910,-1.75979,-0.867601,-2.86981,0
52930,-1.75859,-0.871904,-2.87427,0
52950,-1.75795,-0.876229,-2.87914,0
52970,-1.75849,-0.879969,-2.88305,0
52990,-1.76214,-0.884634,-2.88373,0
53010,-1.76386,-0.890562,-2.88539,0
53030,-1.76498,-0.896691,-2.88933,0
53050,-1.76787,-0.90234,-2.89215,0
53070,-1.7721,-0.90864,-2.89415,0
53090,-1.7743,-0.915079,-2.89707,0
53110,-1.77485,-0.921355,-2.90124,0
53130,-1.77431,-0.927571,-2.90716,0
53150,-1.77172,-0.933573,-2.9149,0
53170,-1.76834,-0.939464,-2.92349,0
53190,-1.76684,-0.945457,-2.93045,0
53210,-1.76345,-0.951961,-2.93739,0
53230,-1.75827,-0.958532,-2.94599,0
53250,-1.75285,-0.964979,-2.95657,0
53270,-1.74685,-0.970968,-2.96861,0
53290,-1.74053,-0.97618,-2.98064,0
53310,-1.73317,-0.981661,-2.99198,0
53330,-1.72601,-0.987861,-3.00313,0
53350,-1.71965,-0.994655,-3.01529,0
53370,-1.71234,-1.00173,-3.03002,0
53390,-1.70466,-1.00745,-3.04495,0
53410,-1.69856,-1.01402,-3.05773,0
53430,-1.69004,-1.0211,-3.07171,0
53450,-1.68104,-1.02872,-3.08776,0
53470,-1.67259,-1.03572,-3.10426,0
53490,-1.66303,-1.0416,-3.12109,0
53510,-1.65102,-1.04747,-3.13852,0
53530,-1.63769,-1.05367,3.12712,0
53550,-1.62555,-1.06037,3.10939,0
53570,-1.61267,-1.06697,3.09013,0
53590,-1.59973,-1.07226,3.0711,0
53610,-1.58678,-1.07675,3.05361,0
53630,-1.57308,-1.08199,3.0363,0
53650,-1.55963,-1.0868,3.01877,0
53670,-1.54693,-1.09088,3.0011,0
53690,-1.53475,-1.09431,2.98315,0
53710,-1.52103,-1.09659,2.965,0
53730,-1.50627,-1.09919,2.94762,0
53750,-1.49212,-1.10147,2.93086,0
53770,-1.47792,-1.10338,2.91277,0
53790,-1.46312,-1.10518,2.8936,0
53810,-1.44885,-1.10562,2.87492,0
53830,-1.43387,-1.10523,2.85698,0
53850,-1.40237,-1.10463,2.82263,0
53870,-1.38786,-1.10538,2.80543,0
53890,-1.37383,-1.10446,2.78781,0
53910,-1.36147,-1.10285,2.7721,0
53930,-1.35025,-1.10147,2.75871,0
53950,-1.33918,-1.10068,2.74672,0
53970,-1.32817,-1.10003,2.73381,0
53980,-1.30857,-1.09407,2.70772,0
54000,-1.30008,-1.09028,2.69704,0
54010,-1.28031,-1.08206,2.67762,0
54020,-1.27056,-1.07834,2.66784,0
54040,-1.26206,-1.07403,2.65818,0
54060,-1.25461,-1.06935,2.64986,0
54080,-1.24673,-1.06453,2.64176,0
54100,-1.23772,-1.0601,2.63388,0
54120,-1.23043,-1.05557,2.62697,0
54140,-1.22409,-1.05046,2.62041,0
54160,-1.21643,-1.04467,2.61313,0
54180,-1.20929,-1.03875,2.60588,0
54200,-1.20278,-1.03352,2.59919,0
54220,-1.19647,-1.02836,2.5927,0
54240,-1.18969,-1.0229,2.58592,0
54260,-1.1828,-1.01699,2.5783,0
54280,-1.17532,-1.01119,2.5708,0
54300,-1.16789,-1.00556,2.5631,0
54310,-1.16081,-0.999653,2.55607,0
54330,-1.15475,-0.992914,2.55043,0
54350,-1.14915,-0.986463,2.54575,0
54370,-1.1432,-0.980608,2.5419,0
54390,-1.13842,-0.975905,2.53822,0
54410,-1.13629,-0.971631,2.53593,0
54430,-1.13549,-0.967559,2.53461,0
54450,-1.13541,-0.96317,2.53416,0
54470,-1.13706,-0.958544,2.53577,0
54490,-1.14005,-0.953624,2.53915,0
54510,-1.14428,-0.949063,2.5439,0
54530,-1.14949,-0.944557,2.54937,0
54550,-1.15537,-0.939873,2.55526,0
54570,-1.16282,-0.935609,2.56247,0
54590,-1.17066,-0.931172,2.57096,0
54610,-1.17679,-0.927761,2.57886,0
54630,-1.18213,-0.925263,2.58716,0
54650,-1.18752,-0.923273,2.59499,0
54670,-1.1931,-0.920012,2.60267,0
54690,-1.19904,-0.917221,2.61129,0
54710,-1.20327,-0.91521,2.61922,0
54730,-1.20541,-0.913142,2.62544,0
54750,-1.20757,-0.910361,2.63195,0
54770,-1.21073,-0.907407,2.63923,0
54790,-1.21353,-0.904929,2.64647,0
54810,-1.21619,-0.902154,2.6529,0
54830,-1.21869,-0.898963,2.65954,0
54850,-1.2213,-0.895014,2.66681,0
54870,-1.22457,-0.891356,2.67483,0
54890,-1.22899,-0.887783,2.68307,0
54910,-1.23246,-0.883856,2.6898,0
54930,-1.23679,-0.879836,2.6969,0
54950,-1.24216,-0.87569,2.70515,0
54970,-1.24688,-0.872117,2.71297,0
54990,-1.25121,-0.868482,2.72022,0
55010,-1.25522,-0.864607,2.72716,0
55030,-1.25921,-0.861038,2.73519,0
55050,-1.26347,-0.859446,2.74316,0
55070,-1.26668,-0.857994,2.74961,0
55090,-1.27135,-0.855017,2.75565,0
55110,-1.27679,-0.851074,2.76234,0
55130,-1.28217,-0.847993,2.77013,0
55150,-1.28616,-0.845386,2.77741,0
55170,-1.28972,-0.842325,2.78368,0
55190,-1.2935,-0.839317,2.78947,0
55210,-1.29865,-0.835985,2.79583,0
55230,-1.3047,-0.832449,2.80233,0
55250,-1.30807,-0.829053,2.80783,0
55270,-1.31029,-0.826068,2.81337,0
55290,-1.31272,-0.822922,2.81873,0
55310,-1.31623,-0.819352,2.82369,0
55330,-1.32018,-0.815367,2.82814,0
55350,-1.3232,-0.811171,2.8321,0
55370,-1.32629,-0.807197,2.83678,0
55390,-1.32996,-0.804304,2.84206,0
55410,-1.33443,-0.801966,2.8473,0
55430,-1.34017,-0.799118,2.85288,0
55450,-1.34576,-0.795517,2.85858,0
55470,-1.35124,-0.791856,2.86393,0
55490,-1.35794,-0.78905,2.86982,0
55510,-1.36558,-0.786653,2.87611,0
55530,-1.37155,-0.783431,2.88178,0
55550,-1.37636,-0.779965,2.88792,0
55570,-1.38162,-0.777964,2.89446,0
55590,-1.38625,-0.775663,2.89983,0
55610,-1.39202,-0.772802,2.90583,0
55630,-1.39855,-0.769429,2.91293,0
55650,-1.4039,-0.766855,2.91968,0
55670,-1.40884,-0.764706,2.92601,0
55690,-1.41549,-0.762058,2.93241,0
55710,-1.4215,-0.759706,2.93831,0
55730,-1.42547,-0.757523,2.9439,0
55750,-1.42857,-0.756184,2.95005,0
55770,-1.43171,-0.756204,2.95579,0
55790,-1.4357,-0.756155,2.96086,0
55810,-1.43942,-0.755431,2.96559,0
55830,-1.44327,-0.755541,2.97114,0
55850,-1.44663,-0.756554,2.97715,0
55870,-1.45015,-0.75756,2.98248,0
55890,-1.45492,-0.758374,2.98786,0
55910,-1.46048,-0.759288,2.99327,0
55930,-1.46589,-0.759208,2.99854,0
55950,-1.47103,-0.759608,3.00411,0
55970,-1.47653,-0.760084,3.01011,0
55990,-1.48188,-0.761004,3.01574,0
56010,-1.48799,-0.7609,3.02071,0
56030,-1.49462,-0.761023,3.02586,0
56050,-1.50075,-0.761428,3.03139,0
56070,-1.5059,-0.761708,3.03679,0
56090,-1.51071,-0.761743,3.04246,0
56110,-1.51611,-0.761897,3.04807,0
56130,-1.5226,-0.762545,3.05363,0
56150,-1.52939,-0.762081,3.05896,0
56170,-1.53497,-0.761335,3.06477,0
56190,-1.53922,-0.761855,3.07073,0
56210,-1.544,-0.762917,3.07653,0
56230,-1.55053,-0.763333,3.08261,0
56250,-1.5565,-0.764161,3.08822,0
56270,-1.56157,-0.765302,3.09403,0
56290,-1.566,-0.766264,3.09974,0
56310,-1.57149,-0.766944,3.10598,0
56330,-1.57701,-0.767765,3.11209,0
56350,-1.58277,-0.768239,3.11862,0
56370,-1.58829,-0.769093,3.12502,0
56390,-1.59434,-0.769833,3.13138,0
56410,-1.60005,-0.770505,3.13783,0
56430,-1.60647,-0.771554,-3.13808,0
56450,-1.61251,-0.773472,-3.13089,0
56470,-1.61825,-0.775825,-3.12407,0
56490,-1.62286,-0.778766,-3.11752,0
56510,-1.62795,-0.781103,-3.1102,0
56530,-1.6346,-0.783126,-3.10215,0
56550,-1.64164,-0.785006,-3.09363,0
56570,-1.64939,-0.787561,-3.08438,0
56590,-1.65809,-0.790858,-3.07526,0
56610,-1.66641,-0.793757,-3.06719,0
56630,-1.6748,-0.79604,-3.0589,0
56650,-1.68226,-0.798174,-3.05012,0
56670,-1.68937,-0.800446,-3.04107,0
56690,-1.69675,-0.803128,-3.03171,0
56710,-1.70488,-0.806318,-3.02271,0
56730,-1.71284,-0.809701,-3.01448,0
56750,-1.72136,-0.813034,-3.00523,0
56770,-1.72892,-0.816616,-2.99638,0
56790,-1.73547,-0.819517,-2.98821,0
56810,-1.74245,-0.822732,-2.97962,0
56830,-1.75022,-0.826814,-2.97031,0
56850,-1.75855,-0.831179,-2.96119,0
56870,-1.7669,-0.835414,-2.95211,0
56890,-1.77592,-0.839153,-2.94217,0
56900,-1.78513,-0.844143,-2.93166,0
56920,-1.79358,-0.849433,-2.92202,0
56940,-1.8033,-0.854178,-2.91229,0
56960,-1.81296,-0.858249,-2.90316,0
56980,-1.82278,-0.861724,-2.89364,0
57000,-1.83133,-0.865142,-2.88467,0
57020,-1.83944,-0.868126,-2.87575,0
57040,-1.84727,-0.871124,-2.86709,0
57060,-1.85582,-0.874211,-2.85853,0
57080,-1.86418,-0.877017,-2.85077,0
57100,-1.87166,-0.879707,-2.84376,0
57120,-1.8782,-0.882005,-2.83692,0
57140,-1.88514,-0.884319,-2.82983,0
57160,-1.89247,-0.887199,-2.82189,0
57180,-1.89948,-0.891034,-2.81467,0
57200,-1.90655,-0.895326,-2.80866,0
57220,-1.91364,-0.89875,-2.8021,0
57240,-1.92104,-0.901558,-2.79537,0
57260,-1.92678,-0.905197,-2.78896,0
57280,-1.93387,-0.909217,-2.78144,0
57300,-1.94262,-0.913652,-2.77366,0
57320,-1.95194,-0.917729,-2.76693,0
57340,-1.96167,-0.921758,-2.75972,0
57360,-1.96871,-0.926372,-2.75279,0
57380,-1.97361,-0.931054,-2.74758,0
57400,-1.98122,-0.935784,-2.74138,0
57420,-1.98744,-0.940353,-2.7362,0
57440,-1.99272,-0.944629,-2.73238,0
57460,-1.99854,-0.948572,-2.72804,0
57480,-2.00414,-0.952601,-2.72359,0
57500,-2.00845,-0.955957,-2.71988,0
57520,-2.01181,-0.959413,-2.71662,0
57540,-2.01633,-0.962199,-2.71264,0
57560,-2.02221,-0.965144,-2.70816,0
57580,-2.02611,-0.967169,-2.70448,0
57600,-2.02794,-0.969365,-2.70134,0
57620,-2.03109,-0.972072,-2.69769,0
57640,-2.03476,-0.974591,-2.69458,0
57660,-2.03802,-0.976607,-2.69337,0
57680,-2.03995,-0.978536,-2.69337,0
57700,-2.04048,-0.979756,-2.69241,0
57720,-2.04245,-0.981919,-2.69029,0
57740,-2.04428,-0.983688,-2.68915,0
57760,-2.04576,-0.985832,-2.68948,0
57780,-2.04695,-0.988081,-2.68919,0
57800,-2.04892,-0.990364,-2.68816,0
57820,-2.05178,-0.992832,-2.68502,0
57840,-2.05569,-0.995746,-2.68114,0
57860,-2.06054,-0.999016,-2.67764,0
57880,-2.06589,-1.00202,-2.67385,0
57900,-2.07131,-1.00549,-2.67021,0
57920,-2.07567,-1.00909,-2.66585,0
57940,-2.08013,-1.01317,-2.66106,2001
57960,-2.08504,-1.01645,-2.65709,0
57980,-2.08751,-1.01818,-2.65527,0
58000,-2.08911,-1.01905,-2.65315,0
58020,-2.09097,-1.02059,-2.65126,0
58040,-2.09335,-1.02248,-2.64939,0
58060,-2.09555,-1.02428,-2.6486,0
58080,-2.09829,-1.02581,-2.64767,0
58100,-2.10628,-1.0265,-2.63601,0
58120,-2.11134,-1.02494,-2.62758,0
58140,-2.11257,-1.02433,-2.63219,0
58160,-2.11314,-1.02526,-2.63409,0
58180,-2.11045,-1.02664,-2.63189,0
58200,-2.10529,-1.02931,-2.63034,0
58220,-2.10319,-1.03153,-2.6288,0
58240,-2.10598,-1.03269,-2.63019,0
58260,-2.10761,-1.03161,-2.63288,0
58280,-2.10687,-1.03018,-2.63523,0
58300,-2.10478,-1.02882,-2.63812,0
58320,-2.10325,-1.02783,-2.64198,0
58340,-2.10052,-1.02708,-2.64875,0
58360,-2.09692,-1.02678,-2.65575,0
58380,-2.09073,-1.02657,-2.66385,0
58400,-2.08168,-1.02686,-2.67358,0
58420,-2.07299,-1.02671,-2.68233,0
58440,-2.06708,-1.02645,-2.68729,0
58460,-2.06252,-1.02677,-2.69202,0
58480,-2.05705,-1.02776,-2.69794,0
58500,-2.05232,-1.02943,-2.70431,0
58520,-2.04655,-1.03133,-2.71264,0
58540,-2.03646,-1.03236,-2.72474,0
58560,-2.0226,-1.03258,-2.73973,0
58580,-2.00509,-1.03123,-2.75477,0
58600,-1.98622,-1.02994,-2.76923,0
58620,-1.96377,-1.03066,-2.78646,0
58640,-1.93775,-1.03265,-2.80874,0
58660,-1.91343,-1.03597,-2.83069,0
58680,-1.88824,-1.04035,-2.85366,0
58700,-1.8562,-1.04428,-2.88486,0
58720,-1.82491,-1.04629,-2.91554,0
58740,-1.79982,-1.04799,-2.94031,0
58760,-1.77168,-1.05031,-2.96835,0
58780,-1.73482,-1.05082,-3.00531,0
58800,-1.69537,-1.04857,-3.04618,0
58820,-1.65887,-1.04512,-3.08366,0
58840,-1.62286,-1.04106,-3.12074,0
58860,-1.58175,-1.03424,3.11796,0
58880,-1.53679,-1.02335,3.0668,0
58900,-1.49049,-1.008,3.01641,0
58920,-1.44529,-0.994313,2.97212,0
58940,-1.4031,-0.981314,2.93014,0
58960,-1.36279,-0.965767,2.88537,0
58980,-1.32599,-0.946328,2.84417,0
59000,-1.29364,-0.927467,2.81052,0
59020,-1.25863,-0.907544,2.77727,0
59040,-1.22125,-0.883908,2.74312,0
59060,-1.19037,-0.856781,2.7185,0
59080,-1.17287,-0.834099,2.70668,0
59100,-1.15223,-0.811875,2.69451,0
59120,-1.13021,-0.786357,2.68307,0
59140,-1.11185,-0.756988,2.67922,0
59160,-1.10263,-0.730157,2.68515,0
59180,-1.09034,-0.708122,2.69027,0
59200,-1.07812,-0.68478,2.69427,0
59220,-1.0711,-0.656871,2.70471,0
59240,-1.07142,-0.628455,2.72528,0
59260,-1.07014,-0.603779,2.74708,0
59280,-1.06584,-0.580392,2.76807,0
59300,-1.06471,-0.5594,2.79344,0
59320,-1.06973,-0.541624,2.82165,0
59340,-1.076,-0.523165,2.84886,0
59360,-1.08326,-0.505633,2.87674,0
59380,-1.09065,-0.492423,2.90442,0
59400,-1.09671,-0.482122,2.9308,0
59420,-1.10241,-0.472589,2.95682,0
59440,-1.10806,-0.464161,2.98412,0
59460,-1.11362,-0.457622,3.01171,0
59480,-1.11704,-0.454141,3.03665,0
59500,-1.11851,-0.45316,3.05839,0
59510,-1.12053,-0.451627,3.07957,0
59530,-1.12329,-0.448829,3.10155,0
59550,-1.12663,-0.44772,3.12164,0
59570,-1.12804,-0.449861,3.13708,0
59590,-1.12778,-0.453224,-3.1332,0
59610,-1.12781,-0.456621,-3.12024,0
59630,-1.12972,-0.459131,-3.10662,0
59650,-1.13313,-0.460664,-3.09326,0
59670,-1.13628,-0.462281,-3.08177,0
59690,-1.13846,-0.46351,-3.07245,0
59710,-1.14204,-0.464383,-3.06326,0
59730,-1.14817,-0.464127,-3.0538,0
59750,-1.1544,-0.464032,-3.04416,0
59770,-1.15703,-0.464716,-3.03542,0
59790,-1.15712,-0.465893,-3.02715,0
59810,-1.15755,-0.466116,-3.02038,0
59830,-1.15788,-0.464034,-3.01546,0
59850,-1.15863,-0.460029,-3.01221,0
59870,-1.15778,-0.455989,-3.01052,0
59890,-1.15486,-0.452729,-3.0089,0
59910,-1.1512,-0.448773,-3.00769,0
59930,-1.14774,-0.445991,-3.00732,0
59950,-1.14487,-0.444116,-3.00734,0
59970,-1.14363,-0.441989,-3.00699,0
59990,-1.14345,-0.440234,-3.00685,0
60010,-1.14335,-0.438805,-3.00722,0
60030,-1.14301,-0.437514,-3.00737,0
60050,-1.14387,-0.436422,-3.00672,0
60070,-1.14551,-0.435199,-3.00555,0
60090,-1.14714,-0.433485,-3.0048,0
60110,-1.14814,-0.431576,-3.00405,0
60130,-1.1495,-0.430137,-3.00329,0
60150,-1.1512,-0.429262,-3.00338,0
60170,-1.15231,-0.428118,-3.00382,0
60190,-1.15353,-0.426975,-3.00402,0
60210,-1.15407,-0.425933,-3.00398,0
60230,-1.15467,-0.425657,-3.00372,0
60250,-1.15467,-0.425083,-3.00376,0
60270,-1.15531,-0.424988,-3.00354,0
60290,-1.15569,-0.424848,-3.00305,0
60310,-1.15558,-0.425049,-3.00314,0
60330,-1.15542,-0.42475,-3.00292,0
60350,-1.15632,-0.425153,-3.00157,2000
60370,-1.15729,-0.425715,-3.00046,0
60390,-1.15762,-0.426038,-2.99999,0
60410,-1.1574,-0.426067,-2.99912,0
60430,-1.15737,-0.426608,-2.99809,0
60450,-1.15795,-0.427466,-2.99701,0
60470,-1.15861,-0.427667,-2.99585,0
60490,-1.15976,-0.427623,-2.99425,0
60510,-1.1607,-0.428035,-2.99268,0
60530,-1.16155,-0.428577,-2.99108,0
60550,-1.16204,-0.429599,-2.98956,0
60570,-1.16181,-0.430358,-2.98819,0
60590,-1.16191,-0.43124,-2.98743,0
60610,-1.16274,-0.431704,-2.98689,0
60630,-1.16386,-0.431972,-2.98625,0
60650,-1.1648,-0.431974,-2.98498,0
60670,-1.16539,-0.432249,-2.98301,0
60690,-1.16628,-0.432648,-2.98119,0
60710,-1.1675,-0.432927,-2.97963,0
60730,-1.16957,-0.433411,-2.97783,0
60750,-1.17107,-0.433998,-2.97554,0
60770,-1.17227,-0.434784,-2.9729,0
60790,-1.1741,-0.436079,-2.97004,0
60810,-1.17576,-0.437829,-2.96765,0
60830,-1.17743,-0.439798,-2.96537,0
60850,-1.1784,-0.441319,-2.96317,0
60870,-1.17993,-0.443021,-2.96025,0
60890,-1.18157,-0.444873,-2.95663,0
60910,-1.18306,-0.446646,-2.95289,0
60930,-1.18447,-0.448126,-2.94919,0
60950,-1.18615,-0.449904,-2.94498,0
60970,-1.18806,-0.452858,-2.94042,0
60990,-1.19039,-0.456121,-2.93583,0
61010,-1.19112,-0.4589,-2.93133,0
61030,-1.19265,-0.461612,-2.9262,0
61050,-1.19508,-0.464693,-2.9213,0
61070,-1.19667,-0.467365,-2.91702,0
61090,-1.19793,-0.470206,-2.91255,0
61110,-1.19924,-0.473599,-2.90749,0
61130,-1.20128,-0.477421,-2.90207,0
61150,-1.20233,-0.480985,-2.89772,0
61170,-1.20341,-0.484071,-2.89429,0
61190,-1.20381,-0.487281,-2.89132,0
61210,-1.20525,-0.490783,-2.88776,0
61230,-1.20566,-0.494513,-2.88436,0
61250,-1.20583,-0.497615,-2.88169,0
61270,-1.20728,-0.500011,-2.87951,0
61290,-1.21036,-0.502154,-2.87685,0
61310,-1.21291,-0.503691,-2.87473,0
61330,-1.21519,-0.504594,-2.87286,0
61350,-1.21684,-0.505556,-2.87065,0
61370,-1.21703,-0.50656,-2.86884,0
61390,-1.21804,-0.506773,-2.86697,0
61410,-1.21981,-0.506555,-2.8656,0
61430,-1.22073,-0.506096,-2.8651,0
61450,-1.22051,-0.506018,-2.86523,0
61470,-1.21944,-0.506036,-2.86533,0
61490,-1.21879,-0.506938,-2.86575,0
61510,-1.21781,-0.508052,-2.86699,0
61530,-1.21734,-0.509435,-2.86789,0
61550,-1.2173,-0.510494,-2.86899,0
61570,-1.21738,-0.511955,-2.8709,0
61590,-1.21648,-0.513616,-2.87318,0
61610,-1.21692,-0.515459,-2.87446,0
61630,-1.21718,-0.517561,-2.8752,0
61650,-1.218,-0.519747,-2.87647,0
61670,-1.21902,-0.521353,-2.87853,0
61690,-1.22054,-0.52257,-2.88042,0
61710,-1.22253,-0.523877,-2.88193,0
61730,-1.22281,-0.525145,-2.88447,0
61750,-1.22305,-0.526522,-2.88669,0
61770,-1.22296,-0.52841,-2.88947,0
61790,-1.22301,-0.530345,-2.89276,0
61810,-1.22405,-0.532139,-2.89622,0
61830,-1.22412,-0.53424,-2.90044,0
61850,-1.22372,-0.535705,-2.90541,0
61870,-1.2226,-0.537226,-2.91125,0
61890,-1.22169,-0.539759,-2.91693,0
61910,-1.22078,-0.542673,-2.92293,0
61930,-1.22019,-0.544796,-2.92914,0
61950,-1.21859,-0.547354,-2.93542,0
61970,-1.21752,-0.550208,-2.94184,0
61990,-1.21697,-0.552814,-2.94877,0
62010,-1.21477,-0.555075,-2.9566,0
62030,-1.21191,-0.556989,-2.96428,0
62050,-1.209,-0.559183,-2.97149,0
62070,-1.20689,-0.561768,-2.97846,0
62090,-1.20554,-0.564399,-2.98632,0
62100,-1.20349,-0.566689,-2.99474,0
62120,-1.201,-0.568407,-3.00265,0
62140,-1.19748,-0.571032,-3.01027,0
62160,-1.19447,-0.573659,-3.01761,0
62180,-1.19232,-0.576593,-3.02501,0
62200,-1.19031,-0.579483,-3.03281,0
62220,-1.18744,-0.581854,-3.04144,0
62240,-1.18488,-0.583938,-3.04937,0
62260,-1.18235,-0.58628,-3.057,0
62280,-1.17999,-0.588307,-3.06483,0
62300,-1.17781,-0.590549,-3.07274,0
62320,-1.17557,-0.592245,-3.08126,0
62340,-1.1726,-0.594268,-3.09002,0
62340,-1.16976,-0.596765,-3.09785,0
62360,-1.16786,-0.599925,-3.10552,0
62360,-1.16577,-0.602834,-3.11312,0
62380,-1.16304,-0.605753,-3.12119,0
62400,-1.15932,-0.609096,-3.12931,0
62420,-1.15625,-0.612259,-3.13722,0
62440,-1.15293,-0.6149,3.13759,0
62460,-1.14915,-0.616793,3.12875,0
62490,-1.12972,-0.625498,3.08851,0
62510,-1.12384,-0.627566,3.07718,0
62530,-1.11858,-0.629692,3.06571,0
62550,-1.11271,-0.631945,3.05371,0
62570,-1.10718,-0.634945,3.04199,0
62590,-1.1023,-0.638557,3.03046,0
62610,-1.09814,-0.641838,3.01848,0
62630,-1.09289,-0.644815,3.00571,0
62650,-1.08782,-0.647908,2.99329,0
62670,-1.08233,-0.651427,2.98104,0
62690,-1.07659,-0.655673,2.96864,0
62710,-1.07168,-0.660151,2.95641,0
62730,-1.06799,-0.664907,2.94404,0
62750,-1.06386,-0.668936,2.9311,0
62770,-1.05965,-0.673025,2.91844,0
62790,-1.0549,-0.677535,2.90597,0
62810,-1.05072,-0.682234,2.89389,0
62830,-1.04664,-0.686709,2.88137,0
62850,-1.04262,-0.690779,2.8686,0
62870,-1.03841,-0.694944,2.85624,0
62890,-1.03379,-0.699435,2.84405,0
62910,-1.02958,-0.703382,2.83258,0
62930,-1.02625,-0.706618,2.82143,0
62950,-1.02239,-0.709211,2.81024,0
62970,-1.01882,-0.711454,2.7997,0
62990,-1.01678,-0.713836,2.7906,0
63010,-1.01564,-0.715411,2.78195,0
63030,-1.01424,-0.716433,2.77356,0
63050,-1.01373,-0.717623,2.76611,0
63070,-1.01334,-0.718532,2.75902,0
63090,-1.01363,-0.71887,2.75262,0
63110,-1.01407,-0.719761,2.74732,0
63130,-1.01454,-0.721686,2.74206,0
63150,-1.01561,-0.723787,2.73783,0
63170,-1.01878,-0.726174,2.7348,0
63190,-1.02138,-0.727929,2.73095,0
63210,-1.02337,-0.729748,2.72699,0
63230,-1.0249,-0.730864,2.7238,0
63250,-1.02681,-0.731786,2.72141,0
63270,-1.02803,-0.732819,2.71938,0
63290,-1.02936,-0.734141,2.7172,0
63310,-1.02999,-0.734836,2.71481,0
63330,-1.03131,-0.735448,2.71258,0
63350,-1.0333,-0.735636,2.70982,0
63370,-1.03468,-0.734674,2.70712,0
63390,-1.03496,-0.733004,2.70457,0
63410,-1.03608,-0.73167,2.70272,0
63430,-1.03683,-0.730255,2.70059,0
63450,-1.03718,-0.728132,2.69829,0
63470,-1.03709,-0.726101,2.6966,0
63490,-1.03625,-0.722981,2.6946,0
63510,-1.03583,-0.719767,2.69272,0
63530,-1.03572,-0.716784,2.69085,0
63550,-1.03648,-0.714049,2.68917,0
63570,-1.03864,-0.71058,2.68793,0
63590,-1.03929,-0.708052,2.68582,0
63610,-1.03894,-0.705969,2.68354,0
63630,-1.04025,-0.703962,2.68204,0
63650,-1.04256,-0.70182,2.68069,0
63670,-1.04438,-0.699401,2.67924,0
63690,-1.04551,-0.696436,2.6775,0
63710,-1.04663,-0.693597,2.67646,0
63730,-1.0488,-0.689789,2.67681,0
63750,-1.05123,-0.685652,2.67844,0
63770,-1.05289,-0.681568,2.6809,0
63790,-1.05431,-0.677399,2.68307,0
63810,-1.05642,-0.673573,2.68542,0
63830,-1.06004,-0.670482,2.68895,0
63850,-1.06329,-0.667308,2.69233,0
63870,-1.06653,-0.663925,2.6956,0
63890,-1.06905,-0.660499,2.69866,0
63910,-1.0719,-0.657525,2.70172,0
63930,-1.07456,-0.655789,2.70423,0
63950,-1.07584,-0.653872,2.70621,0
63970,-1.07731,-0.650831,2.70838,0
63990,-1.07887,-0.647274,2.71079,0
64010,-1.07995,-0.644669,2.71344,0
64030,-1.08049,-0.642614,2.71566,0
64050,-1.08175,-0.640017,2.71768,0
64070,-1.08431,-0.636959,2.72039,0
64090,-1.08542,-0.633829,2.72333,0
64110,-1.08634,-0.63078,2.72678,0
64130,-1.08789,-0.6281,2.7301,0
64150,-1.08872,-0.624942,2.73247,0
64170,-1.08986,-0.621963,2.73551,0
64190,-1.09181,-0.619922,2.73939,0
64210,-1.09385,-0.617754,2.74305,0
64230,-1.09458,-0.614422,2.74655,0
64250,-1.09531,-0.610946,2.75078,0
64270,-1.09599,-0.607534,2.75484,0
64290,-1.09763,-0.604451,2.76055,0
64310,-1.09927,-0.603025,2.76639,0
64330,-1.10029,-0.60158,2.77146,0
64350,-1.10208,-0.599291,2.77715,0
64370,-1.10542,-0.597173,2.78449,0
64390,-1.10885,-0.596711,2.79188,0
64410,-1.11128,-0.596618,2.79832,0
64430,-1.11377,-0.59588,2.8044,0
64450,-1.11731,-0.59545,2.81166,0
64470,-1.12014,-0.595355,2.81899,0
64490,-1.1222,-0.59525,2.82581,0
64510,-1.1246,-0.594635,2.83273,0
64530,-1.12758,-0.594045,2.84011,0
64550,-1.13044,-0.592902,2.84759,0
64570,-1.13318,-0.591058,2.85556,0
64590,-1.13665,-0.58916,2.86396,0
64610,-1.14023,-0.58704,2.87225,0
64620,-1.1435,-0.584888,2.88043,0
64640,-1.14678,-0.582299,2.88896,0
64660,-1.15043,-0.57971,2.89835,0
64680,-1.15411,-0.577317,2.90785,0
64700,-1.15743,-0.574308,2.91671,0
64720,-1.16117,-0.571448,2.92528,0
64740,-1.1644,-0.568969,2.93349,0
64760,-1.16729,-0.566824,2.94232,0
64780,-1.17019,-0.565482,2.95132,0
64800,-1.17237,-0.564028,2.95993,0
64820,-1.17413,-0.563098,2.96864,0
64840,-1.17637,-0.562631,2.97757,0
64860,-1.17938,-0.56217,2.98719,0
64880,-1.18283,-0.56264,2.99736,0
64900,-1.18549,-0.562793,3.00746,0
64920,-1.18794,-0.562822,3.01787,0
64940,-1.19145,-0.563589,3.02891,0
64960,-1.19569,-0.564685,3.03946,0
64980,-1.20001,-0.564935,3.04992,0
65000,-1.20353,-0.565149,3.06078,0
65020,-1.20696,-0.565689,3.07155,0
65040,-1.21061,-0.565713,3.08222,0
65060,-1.2156,-0.565233,3.09336,0
65080,-1.22029,-0.564561,3.10397,0
65100,-1.22405,-0.56484,3.11507,0
65120,-1.22819,-0.565289,3.12604,0
65140,-1.23239,-0.564742,3.13664,0
65160,-1.23668,-0.564023,-3.1355,0
65180,-1.24074,-0.56395,-3.12417,0
65200,-1.24469,-0.56396,-3.11301,0
65220,-1.24837,-0.56367,-3.10218,0
65240,-1.25179,-0.563449,-3.09178,0
65260,-1.25649,-0.563587,-3.08114,0
65280,-1.26181,-0.564129,-3.0705,0
65300,-1.26509,-0.56367,-3.06077,0
65320,-1.26807,-0.563044,-3.0509,0
65340,-1.27213,-0.562741,-3.04038,0
65360,-1.27712,-0.562641,-3.02975,0
65380,-1.28174,-0.562213,-3.01922,0
65400,-1.28671,-0.561811,-3.00805,0
65420,-1.29222,-0.561323,-2.99736,0
65440,-1.29739,-0.560016,-2.98699,0
65460,-1.30182,-0.559642,-2.97654,0
65470,-1.30553,-0.560487,-2.96657,0
65490,-1.31008,-0.560997,-2.95667,0
65510,-1.31545,-0.561094,-2.94657,0
65530,-1.32034,-0.561928,-2.93667,0
65550,-1.32399,-0.563192,-2.92778,0
65570,-1.32751,-0.564184,-2.91899,0
65590,-1.33293,-0.565316,-2.90882,0
65610,-1.33827,-0.566818,-2.89852,0
65630,-1.34232,-0.568515,-2.8893,0
65650,-1.34744,-0.569698,-2.87952,0
65670,-1.35471,-0.571214,-2.86884,0
65690,-1.3613,-0.572943,-2.85854,0
65710,-1.36655,-0.575239,-2.84915,0
65730,-1.37062,-0.577958,-2.84042,0
65750,-1.37591,-0.58152,-2.8309,0
65770,-1.38123,-0.585176,-2.82189,0
65790,-1.38577,-0.589122,-2.81287,0
65810,-1.39046,-0.594012,-2.80347,0
65830,-1.39539,-0.599867,-2.79435,0
65850,-1.40033,-0.605729,-2.78647,0
65870,-1.40503,-0.611481,-2.77779,0
65890,-1.41101,-0.618287,-2.76826,0
65910,-1.41742,-0.624938,-2.75927,0
65930,-1.4231,-0.631246,-2.75144,0
65950,-1.42855,-0.637368,-2.74379,0
65970,-1.43352,-0.643217,-2.73667,0
65990,-1.43902,-0.649037,-2.72965,0
66010,-1.44384,-0.654754,-2.72277,0
66030,-1.44784,-0.660399,-2.71692,0
66050,-1.45199,-0.66585,-2.71162,0
66070,-1.45631,-0.671255,-2.70649,0
66090,-1.46125,-0.676279,-2.70074,0
66110,-1.46477,-0.681622,-2.69662,0
66130,-1.46743,-0.686315,-2.69354,0
66150,-1.47115,-0.691114,-2.69024,0
66170,-1.47511,-0.696408,-2.68693,0
66190,-1.4783,-0.70171,-2.68464,0
66210,-1.48028,-0.706096,-2.68339,0
66230,-1.48276,-0.710709,-2.68207,0
66250,-1.48604,-0.715859,-2.68082,0
66270,-1.48902,-0.721188,-2.67991,0
66290,-1.49204,-0.726423,-2.67962,0
66310,-1.49485,-0.731345,-2.67938,0
66330,-1.49704,-0.73645,-2.67979,0
66350,-1.49882,-0.741517,-2.68069,0
66370,-1.50146,-0.746153,-2.68202,0
66390,-1.50456,-0.750572,-2.68327,0
66410,-1.50701,-0.755377,-2.68461,0
66430,-1.50898,-0.759824,-2.68734,0
66450,-1.51092,-0.764014,-2.69036,0
66470,-1.51358,-0.768098,-2.69366,0
66490,-1.51542,-0.772407,-2.69701,0
66510,-1.5172,-0.777465,-2.70106,0
66530,-1.51869,-0.782131,-2.70571,0
66550,-1.52061,-0.786136,-2.71111,0
66570,-1.52179,-0.789356,-2.71731,0
66590,-1.5215,-0.793418,-2.72365,0
66610,-1.52113,-0.798287,-2.72996,0
66630,-1.52178,-0.803409,-2.73722,0
66650,-1.52294,-0.807911,-2.74471,0
66670,-1.52251,-0.812369,-2.75254,0
66690,-1.52102,-0.816994,-2.76063,0
66710,-1.51936,-0.822611,-2.76876,0
66730,-1.51806,-0.82811,-2.77729,0
66750,-1.51666,-0.833407,-2.78676,0
66770,-1.514,-0.838405,-2.79694,0
66790,-1.5102,-0.843897,-2.80716,0
66810,-1.5057,-0.849634,-2.81788,0
66830,-1.5029,-0.855683,-2.82808,0
66850,-1.49992,-0.861236,-2.83935,0
66870,-1.49617,-0.866863,-2.85144,0
66890,-1.49125,-0.872499,-2.86313,0
66910,-1.48633,-0.878351,-2.87401,0
66930,-1.48257,-0.884287,-2.88579,0
66950,-1.47924,-0.890097,-2.89817,0
66970,-1.47571,-0.895447,-2.91016,0
66990,-1.47162,-0.901038,-2.92185,0
67010,-1.46663,-0.907402,-2.93395,0
67030,-1.462,-0.914418,-2.94628,0
67050,-1.45743,-0.920779,-2.95945,0
67070,-1.45346,-0.926646,-2.97231,0
67090,-1.44797,-0.932178,-2.98575,0
67110,-1.44181,-0.937349,-2.99936,0
67130,-1.43588,-0.942588,-3.01326,0
67150,-1.42904,-0.947936,-3.02823,0
67170,-1.42135,-0.952874,-3.04476,0
67190,-1.41337,-0.95755,-3.06059,0
67200,-1.40536,-0.962159,-3.07604,0
67220,-1.39702,-0.966999,-3.09164,0
67240,-1.38833,-0.971988,-3.10705,0
67260,-1.37908,-0.976217,-3.12244,0
67280,-1.37151,-0.98049,-3.13644,0
67300,-1.36342,-0.984556,3.13261,0
67320,-1.35474,-0.987856,3.11808,0
67340,-1.34549,-0.990813,3.10335,0
67360,-1.33622,-0.993228,3.08898,0
67380,-1.32719,-0.995524,3.07519,0
67400,-1.31864,-0.997268,3.06164,0
67420,-1.30971,-0.998618,3.04763,0
67440,-1.29986,-0.999601,3.03345,0
67460,-1.29102,-1.00035,3.02058,0
67480,-1.2822,-1.00098,3.00818,0
67500,-1.27201,-1.00079,2.99465,0
67520,-1.26339,-0.999986,2.98306,0
67540,-1.25461,-0.999285,2.97139,0
67560,-1.24482,-0.998003,2.95827,0
67580,-1.23698,-0.996966,2.94738,0
67600,-1.23075,-0.996033,2.93858,0
67620,-1.2238,-0.995021,2.92899,0
67640,-1.21772,-0.993143,2.92048,0
67660,-1.21372,-0.991487,2.91389,0
67680,-1.20938,-0.989165,2.90687,0
67700,-1.20522,-0.985363,2.90065,0
67720,-1.20358,-0.981632,2.8962,0
67740,-1.1999,-0.977722,2.89119,0
67760,-1.19605,-0.972861,2.88665,0
67780,-1.19435,-0.968661,2.88443,0
67800,-1.19286,-0.964259,2.88267,0
67820,-1.19216,-0.960344,2.88161,0
67840,-1.19147,-0.956299,2.881,0
67860,-1.19038,-0.952052,2.88111,0
67880,-1.18916,-0.948726,2.88279,0
67900,-1.18746,-0.94671,2.88359,0
67920,-1.18558,-0.944413,2.88288,0
67940,-1.18399,-0.941775,2.88263,0
67960,-1.18408,-0.940168,2.88437,0
67980,-1.18379,-0.938648,2.88608,0
68000,-1.18304,-0.936374,2.88706,0
68020,-1.1825,-0.934058,2.88904,0
68040,-1.18302,-0.932047,2.89159,0
68060,-1.18255,-0.929638,2.89334,0
68080,-1.18208,-0.925885,2.89572,0
68100,-1.18356,-0.921046,2.90006,0
68120,-1.18584,-0.916337,2.90457,0
68140,-1.1876,-0.910769,2.90909,0
68160,-1.18966,-0.905281,2.91402,0
68180,-1.19159,-0.899781,2.91867,0
68200,-1.19354,-0.894131,2.92382,0
68220,-1.19566,-0.887925,2.92936,0
68240,-1.19738,-0.881819,2.93475,0
68260,-1.19904,-0.875684,2.94009,0
68280,-1.20076,-0.870413,2.94514,0
68300,-1.20244,-0.865742,2.9502,0
68320,-1.20487,-0.860538,2.95532,0
68340,-1.20812,-0.854551,2.96089,0
68360,-1.21077,-0.849323,2.96675,0
68380,-1.21275,-0.845229,2.97229,0
68400,-1.21416,-0.840775,2.97679,0
68420,-1.21637,-0.836834,2.98171,0
68440,-1.21853,-0.833882,2.98589,0
68460,-1.22051,-0.83036,2.9905,0
68480,-1.22297,-0.827385,2.99595,0
68500,-1.22521,-0.824917,3.00099,0
68520,-1.22674,-0.822148,3.00565,0
68540,-1.22913,-0.819203,3.0114,0
68560,-1.2321,-0.816598,3.01762,0
68580,-1.23358,-0.813629,3.02201,0
68600,-1.23651,-0.809793,3.02678,0
68620,-1.24044,-0.806033,3.03281,0
68640,-1.24352,-0.802598,3.03904,0
68660,-1.24498,-0.799157,3.04422,0
68680,-1.24754,-0.795502,3.04891,0
68700,-1.25183,-0.791364,3.05461,0
68720,-1.25675,-0.787569,3.06121,0
68740,-1.26105,-0.783767,3.06766,0
68760,-1.26464,-0.779586,3.07383,0
68780,-1.26855,-0.775681,3.07977,0
68800,-1.27337,-0.772292,3.08558,0
68820,-1.27763,-0.768853,3.09138,0
68840,-1.28074,-0.765363,3.09674,0
68860,-1.2822,-0.761885,3.10221,0
68880,-1.28402,-0.759016,3.10768,0
68900,-1.2862,-0.75609,3.11247,0
