Timestamp, Rotation x, Rotation y, Rotation z, Marker
50,2.6875,-2.375,3.3125,0
70,5.9375,-1.1875,4.25,0
90,2.8125,0,4.0625,0
110,-2.25,-1.5625,2.3125,0
130,-0.8125,-4,3.375,0
150,4.375,-3.9375,-0.1875,0
170,4.125,-1.3125,-0.875,0
190,-3,0.75,0.4375,0
210,-7.375,1.125,0.4375,0
210,-0.75,0.4375,2.0625,0
250,5.1875,-0.5,3.3125,0
270,4.375,-0.6875,5.5625,0
290,-8.875,-0.5,3.75,0
310,-8.625,-1.125,3,0
330,0.875,-0.875,0.4375,0
350,5.0625,-0.25,-1.25,0
370,-0.625,-0.8125,-0.6875,0
390,-3.0625,-3.4375,-0.1875,0
410,3.625,-6,-1.75,0
430,10.75,-6.5625,-4.625,0
450,9,-6.6875,-2.5,0
460,9.25,-7.8125,-4.75,0
470,9.3125,-14.1875,-2.75,0
490,10,-9.375,-5,0
510,9.125,-9.6875,-3,0
530,8.4375,-8.375,-2.5625,0
550,7.5,-6.5625,-1.3125,0
570,8.1875,-5.0625,0.5,0
590,9.375,-4.4375,1.875,0
610,10,-4.6875,1.875,0
630,11.5,-5.75,2.0625,0
650,10.625,-6,2.625,0
670,10,-6.1875,3.125,0
690,9.0625,-5.5625,2.3125,0
710,8.5,-4.6875,2.125,0
730,7.4375,-3.75,2.3125,0
750,6.4375,-3.1875,2.5,0
770,5.4375,-2.125,2.4375,0
790,4.6875,-1.9375,3.8125,0
810,6.5625,-2.25,4.5,0
820,10.0625,-3.6875,3.1875,0
840,12.125,-5.0625,-0.125,0
860,12.1875,-5.75,-1.5625,0
880,13.125,-6,-1,0
900,12.75,-5.4375,-0.5625,0
920,9.75,-4.375,0.6875,0
940,7.25,-3.6875,2.5,0
960,5.375,-2.5625,4.625,0
980,2.8125,-0.75,5.9375,0
1000,0.625,1.4375,7,0
1020,-2.625,2.6875,8.1875,0
1040,-4,4.3125,7.875,0
1060,-5,5.5,6.625,0
1080,-6.5625,6.0625,5.0625,0
1100,-6.875,5.5625,3.1875,0
1120,-6.8125,4.875,1.25,0
1140,-8.375,4.5625,-1.125,0
1160,-11.3125,3.75,-2.8125,0
1180,-11.5625,2.0625,-3.9375,0
1200,-11.5625,1,-6,0
1220,-10.8125,0.375,-7.4375,0
1240,-11.0625,0,-8.25,0
1260,-12.375,0.1875,-8.25,0
1280,-11.9375,0.625,-7.875,0
1300,-11.0625,0.625,-6.3125,0
1320,-9.75,0.1875,-4.625,0
1340,-6.875,-0.1875,-3.5625,0
1360,-5.1875,0.375,-2.6875,0
1380,-3.9375,0.875,-1.5,0
1400,-3.3125,0.9375,-0.4375,0
1420,-1.875,1.0625,0.4375,0
1440,0.3125,0.5,1.5625,0
1460,2.5625,-0.4375,2.375,0
1480,3.5625,-0.5625,3.0625,0
1500,3.4375,-0.1875,4.125,0
1520,3.875,-0.6875,5.875,0
1540,4.8125,-2.125,6.375,0
1560,6.25,-3.3125,6.4375,0
1580,7,-4.75,6.4375,0
1600,7,-6.0625,5.375,0
1620,5.4375,-5.8125,2.875,0
1640,5.125,-5.3125,0.5625,0
1660,4.875,-4.75,-1.25,0
1680,6.0625,-4.3125,-2.375,0
1700,6.0625,-4.8125,-2.5,0
1720,5.625,-6,-1.9375,0
1740,5.25,-7,-1.9375,0
1760,6.375,-7.9375,-1.8125,0
1780,8.4375,-8.9375,-1.1875,0
1800,7.625,-8.3125,0.0625,0
1820,7.3125,-7.25,1.125,0
1840,7.125,-6.3125,1.4375,0
1860,7,-4.875,1.0625,0
1880,6.75,-3.75,1.5,0
1900,5.5625,-2.5625,1.9375,0
1920,4.5625,-2,1.9375,0
1940,4,-1.8125,1.4375,0
1960,2.4375,-1.4375,0.4375,0
1980,2.25,-1.3125,-0.1875,0
2000,1,-1.75,-1.5625,0
2020,0.625,-1.5625,-3.3125,0
2040,0.4375,-0.5625,-4.75,0
2060,-0.9375,1.125,-5.8125,0
2080,-5.3125,4.125,-6.375,0
2100,-11.125,7.0625,-5.5625,0
2120,-14.0625,8.5,-4.5,0
2140,-15.5625,9.0625,-3.4375,0
2160,-15.9375,8.625,-2.5,0
2180,-16,7.875,-1.375,0
2200,-15.6875,7.6875,-0.6875,0
2220,-15.375,7.4375,-0.9375,0
2240,-14.375,7.5,-1.1875,0
2260,-12.375,6.6875,-1.75,0
2280,-11.0625,6.1875,-2.625,0
2300,-9.875,5.75,-4,0
2320,-8.625,4.625,-5.3125,0
2340,-8.375,3.1875,-6.125,0
2360,-7.6875,1.5,-7,0
2380,-7.125,0.6875,-6.9375,0
2400,-6.0625,0.3125,-5.875,0
2420,-4.9375,0.25,-5,0
2440,-4.8125,0.75,-3.5625,0
2460,-5.0625,1.4375,-1.6875,0
2480,-4.6875,2,-0.0625,0
2500,-3.3125,2.0625,1.5625,0
2520,-0.8125,1.375,3.4375,0
2540,0.75,0.5,4.0625,0
2560,0.875,-0.5,3.625,0
2580,0.1875,-1.3125,3.1875,0
2600,-0.375,-2.125,2.625,0
2620,1.3125,-2.8125,2.4375,0
2640,2.75,-3.5625,1.8125,0
2660,2.875,-3.8125,1.375,0
2680,2.8125,-3.9375,0.9375,0
2700,2.6875,-4.0625,-0.25,0
2720,1.3125,-3.5625,-1.3125,0
2730,-1.125,-2.25,-2.8125,0
2750,-3.875,0.25,-3.75,0
2770,-4.625,2.8125,-4.125,0
2790,-3.1875,4.3125,-4.5,0
2810,-1.875,3.6875,-5,0
2830,-3,2.3125,-6.375,0
2850,-6.625,1.0625,-8,0
2870,-10.25,0.9375,-9.4375,0
2890,-12.6875,1.8125,-9.6875,0
2910,-13.6875,3.25,-8.5625,0
2930,-9.75,3.375,-4.375,0
2950,-0.75,-0.5,-0.9375,0
2970,3.3125,-6.1875,-0.1875,0
2990,1.5625,-9.4375,0.875,0
3010,-2.3125,-8.5625,1.3125,0
3030,-6,-6.125,1.5,0
3050,-5.375,-3.25,2.3125,0
3070,-3.3125,-1.5625,3.8125,0
3090,-1.75,-2.125,5.25,0
3110,-0.6875,-3.375,4.9375,0
3130,-0.4375,-4.25,3.625,0
3150,-0.4375,-4.25,2.125,0
3170,1.8125,-4.125,1.5,0
3190,4.9375,-3.875,1.5625,0
3210,7.5,-2.375,2.9375,0
3230,6.625,-1.25,3.75,0
3250,4.0625,-0.25,3.6875,0
3270,1,0.4375,3.75,0
3290,0.9375,0.5625,3.875,0
3310,4.4375,-0.6875,3.25,0
3330,4.625,-2.625,2.5,0
3350,1.125,-2.625,2.3125,0
3370,-1.0625,-1.5625,2.5625,0
3390,-1,-0.4375,2.75,0
3410,0.0625,0.875,2.6875,0
3430,0,2.0625,2.4375,0
3450,-1.3125,2.1875,1.125,0
3470,-2.9375,1.9375,-0.625,0
3490,-3.4375,1.8125,-2,0
3510,-3.125,1.75,-2.9375,0
3530,-3,1.25,-3.125,0
3550,-3.6875,1.25,-3.3125,0
3570,-4.1875,1.25,-3.0625,0
3590,-3.8125,1.125,-2.6875,0
3610,-2.375,0.75,-2.4375,0
3630,-1.0625,0.125,-2.25,0
3650,-0.3125,-0.375,-1.875,0
3670,0.25,-1.1875,-1.625,0
3690,0.5,-1.5625,-1.25,0
3710,1.125,-2.1875,-0.6875,0
3730,0.8125,-2.0625,-0.25,0
3750,0.9375,-2.125,0.25,0
3770,1.25,-2.25,0.5625,0
3790,1.4375,-2.1875,0.5625,0
3810,0.875,-1.875,0.5625,0
3830,0.1875,-2,0.75,0
3850,0.1875,-2.0625,1.75,0
3870,-0.3125,0.4375,2,0
3890,-0.75,-0.3125,0.3125,0
3910,1.8125,2,1.9375,0
3930,0.375,1.375,-2.125,0
3950,-1.4375,-8.8125,1.625,0
3970,-24.75,-2.3125,8.6875,0
3990,-39.6875,-0.875,6.1875,0
4010,-49.375,-3.25,2.9375,0
4030,-52.5,3.4375,-0.875,0
4050,-53.9375,10.9375,-7.75,0
4070,-45.625,6.1875,-12.25,0
4090,-35.125,-9.5625,-37.4375,0
4110,-53.9375,-7.375,-53,0
4130,-55.4375,-13.5,-37.875,0
4150,-74.9375,-46.5,-99.5625,0
4170,-80.75,-35.375,-74.125,0
4190,-89.25,-20.75,-53,0
4210,-65.8125,-19.6875,-52.75,0
4230,-46.8125,-15.4375,-57.8125,0
4250,-53.0625,-13.5,-56.5625,0
4270,-61.75,-16,-57.25,0
4290,-68.375,-16.375,-61.375,0
4310,-75.25,-14.25,-64.9375,0
4330,-71.125,-21.375,-74.0625,0
4350,-59.125,-31.75,-86.9375,0
4370,-53.125,-31,-87.25,0
4390,-43.5,-25.3125,-81.6875,0
4410,-37.5,-24.75,-82.6875,0
4430,-29.9375,-28.375,-86.6875,0
4450,-31.375,-29.8125,-82.9375,0
4470,-32.9375,-23.5,-71.4375,0
4490,-31.875,-17.875,-56.3125,0
4510,-34.625,-15.9375,-39.5,0
4530,-39.5625,-12.6875,-24.375,0
4550,-41.375,-8.75,-12.5,0
4570,-43.0625,-6.25,-1.5625,0
4590,-46.3125,-2.875,13.75,0
4610,-49.375,-1.1875,29.8125,0
4630,-47.5625,-4.0625,42.25,0
4650,-43.0625,-4.875,49.9375,0
4670,-37.375,-5.625,52.125,0
4690,-29.8125,-9.125,53.25,0
4710,-24.75,-17.3125,54.5,0
4730,-24,-32.125,57.5625,0
4750,-24.5625,-46.125,64.125,0
4770,-15.6875,-55.75,52.25,0
4790,-2.875,-58.5,46.375,0
4810,7.5,-65.875,43.5,0
4830,17.4375,-73.5,38.875,0
4850,21.4375,-71.75,28.125,0
4870,26.875,-64.5625,14.875,0
4890,26.0625,-55.5625,3.5625,0
4910,24.3125,-51.4375,-2.6875,0
4930,18.1875,-50.625,-13.875,0
4950,18.75,-40.25,-30.3125,0
4970,17.4375,-24.875,-42.6875,0
4990,13,-13.5,-51.875,0
5010,5.9375,-9.5625,-64.9375,0
5030,-1.75,-8.0625,-78.4375,0
5050,-3.3125,-3.875,-85.75,0
5070,1.25,2.1875,-89.1875,0
5090,8,8.8125,-91.8125,0
5110,12,13.4375,-92.8125,0
5130,6.875,19.625,-91.125,0
5150,-1.5625,26.75,-85.625,0
5170,-9.6875,32.9375,-76.9375,0
5190,-16.6875,38.9375,-61.5,0
5210,-25.875,47.875,-47,0
5230,-28.25,57.375,-43.4375,0
5250,-23.6875,59.4375,-39,0
5270,-23.375,53.8125,-25.4375,0
5290,-15.625,34.75,-2.4375,0
5310,-4.6875,20.4375,26.3125,0
5330,3.625,21.375,42.625,0
5350,2.1875,25.625,38.75,0
5370,3.875,31.1875,45.0625,0
5390,7.1875,33.375,52,0
5410,13.3125,33.9375,53.1875,0
5430,15.8125,36.1875,50.25,0
5450,24.0625,41.125,53.8125,0
5470,35.8125,44.375,66,0
5490,53.125,39.0625,75.125,0
5510,67.5625,33.5625,74.875,0
5530,67.5625,32.9375,74.9375,0
5550,55.3125,24.8125,81.75,0
5570,46.0625,10.875,86.9375,0
5590,34.9375,6.25,86,0
5610,19.9375,7.625,87.75,0
5630,8.375,5.625,89.0625,0
5650,4.1875,-1.5625,84.6875,0
5670,-5.0625,-8.125,75.4375,0
5690,-10.6875,-14.6875,67.25,0
5710,-15.0625,-24.8125,59.75,0
5730,-18.25,-31.4375,48.875,0
5750,-19.125,-34.3125,33.375,0
5770,-19.1875,-36.375,18.75,0
5790,-14.0625,-37.6875,11.5,0
5810,-9.25,-40.625,6.125,0
5830,-7.875,-41.5,1.4375,0
5850,-6.9375,-39,-7.125,0
5870,-7.4375,-34.625,-15.75,0
5890,-7.8125,-32.8125,-20,0
5910,-9.375,-34.5,-21.4375,0
5930,-7.9375,-35.5625,-25.5625,0
5950,-3.6875,-32.6875,-32,0
5970,2.125,-28.5625,-36.9375,0
5990,9.625,-26.4375,-40.375,0
6010,15.4375,-24.1875,-40.1875,0
6030,13,-17.1875,-40.875,0
6050,1.8125,-9.9375,-44.0625,0
6060,-8.9375,-5.1875,-41.125,0
6080,-8.8125,-4.75,-37.3125,0
6100,-15,-3.875,-31.1875,0
6120,-16.1875,1.625,-23.875,0
6140,-18.125,11.5,-20.375,0
6160,-13.25,19.5,-21.5,0
6180,0.25,25.3125,-22.6875,0
6200,14.125,26.5625,-19.3125,0
6220,23.3125,26.0625,-13.6875,0
6240,24.5625,28,-9.8125,0
6260,21.625,32.6875,-7.6875,0
6280,19.375,37.9375,-5.375,0
6300,19.625,43.375,-3.375,0
6320,25.0625,47.8125,-0.75,0
6340,31.5625,51.3125,5.375,0
6360,32.8125,54.5,17.5,0
6380,33.25,58.625,31.3125,0
6400,32.5625,62.875,41.6875,0
6420,25.5625,65.625,45.8125,0
6440,19.9375,67.0625,51.9375,0
6460,22.25,69.375,60.75,0
6480,27.5625,72.25,66.1875,0
6500,31.25,74,66.6875,0
6520,35.25,76.125,69.75,0
6540,40.3125,77.6875,72.75,0
6560,38.9375,76.3125,71.25,0
6580,33.125,73.5625,71.125,0
6600,27.125,66.0625,66.3125,0
6620,21,58.5625,58.0625,0
6640,14.6875,47.4375,52,0
6660,39.9375,-1.9375,35.75,0
6680,0.625,-24.125,-16.6875,0
6700,-24.5,-4.375,9.75,0
6720,-21.75,-4.8125,2.375,0
6740,-11.6875,-7.1875,-5.75,0
6760,4.125,-6,-11.8125,0
6780,-0.5,-12.1875,-6.8125,0
6800,-12.8125,-19.125,-6.1875,0
6820,-29.875,-26.875,-7.125,0
6840,-42.375,-39,-6.0625,0
6860,-46.75,-56.4375,-20.8125,0
6880,-43.875,-67.5,-23.875,0
6900,-29.9375,-79.25,-29.625,0
6920,-11.25,-86.9375,-41.0625,0
6940,2,-95.6875,-50.0625,0
6960,0.1875,-105.125,-51.5,0
6980,-10.4375,-109.875,-49.375,0
7000,-21.25,-110.812,-51.5625,0
7020,-30.5,-109.625,-57.1875,0
7040,-28.1875,-106.938,-59.625,0
7060,-25.6875,-100,-61.1875,0
7080,-32.9375,-90.0625,-59.8125,0
7100,-26.5625,-84.875,-60.75,0
7120,-7.9375,-90.0625,-60,0
7140,1,-92.8125,-53.9375,0
7160,3.375,-89.875,-50.6875,0
7180,12.125,-83.25,-51.25,0
7200,12.5,-75.875,-46.9375,0
7220,9.375,-60.375,-41.0625,0
7240,6.3125,-42.0625,-35.875,0
7260,6.25,-23,-28.875,0
7280,14.75,-5.3125,-21.625,0
7300,28.4375,13.1875,-17.625,0
7320,31.125,34.625,-13.25,0
7340,27.875,62.5,-1.6875,0
7360,25.1875,83.25,17.625,0
7380,26.9375,97.375,24.25,0
7400,31.5625,104.375,16.5625,0
7420,26,108.625,15.5625,0
7440,25.5625,111.438,22.8125,0
7460,41.9375,116.812,30.5,0
7480,56,115.688,37.5,0
7500,51.125,114.562,36,0
7520,75.5,111.375,29.75,0
7540,99.3125,104.75,19.25,0
7560,94.1875,99.5,3.625,0
7580,72.9375,92.5,-2.5,0
7600,36.4375,90.25,1.625,0
7620,7.1875,87.5,-2.375,0
7640,-8.5,73.125,0.9375,0
7660,-7.75,51,2.375,0
7680,9.625,29.6875,-2.0625,0
7700,25.0625,21.75,-7.5625,0
7720,40.125,23,-13.6875,0
7740,35.625,22.25,-23.1875,0
7760,21.3125,15.9375,-27.3125,0
7780,3.9375,1.3125,-28.375,0
7800,1,-16.3125,-27.0625,0
7820,8.1875,-30.375,-25.8125,0
7840,20.3125,-40.9375,-28.3125,0
7860,22.8125,-46.3125,-29.75,0
7880,9.6875,-50.1875,-26.3125,0
7900,-5.625,-61.4375,-24.0625,0
7910,-19.4375,-68.5625,-23.125,0
7940,-19.5625,-66.5625,-18.125,0
7960,-12,-61.875,-13.6875,0
7980,-6,-52.625,-7.75,0
7990,-4.1875,-36.75,-0.5625,0
8010,-0.0625,-25.75,2.0625,0
8030,4.75,-16.5625,1.5625,0
8050,8.125,-3.3125,4.0625,0
8070,7.3125,4.25,4.4375,0
8090,2.375,8.75,6.75,0
8110,3.1875,12.8125,12.1875,0
8130,-0.4375,15.5,18.4375,0
8150,-6.5,5.5625,18.75,0
8170,-8.875,-16.8125,13.8125,0
8190,-7.4375,-35.625,15.6875,0
8210,-14.5,-46.3125,20.125,0
8230,-8.4375,-47.1875,33.875,0
8250,-10.75,-46.625,42.625,0
8270,2.4375,-47.75,36.9375,0
8290,14.9375,-42.6875,21.75,0
8310,20.0625,-37.5,10,0
8330,20,-14.125,2,0
8350,3.8125,12.3125,4.6875,0
8370,3.875,23.5,19.875,0
8390,-5.0625,14.4375,23.1875,0
8410,-13.4375,11.75,18.3125,0
8430,-17.6875,9.75,26.6875,0
8450,-8.3125,6.5625,34.75,0
8470,7.75,14.3125,33.375,0
8490,14.5625,22.0625,19.0625,0
8510,17,25.1875,8.5625,0
8530,13,21,2.875,0
8550,2.625,17.0625,-0.4375,0
8570,0.1875,14.125,3,0
8590,2.125,12.0625,5.125,0
8610,1.6875,10.1875,6.5625,0
8630,1.9375,6.375,5.5,0
8650,0,6.25,4.4375,0
8670,-6,8.3125,3.6875,0
8690,-6.875,7.75,0.625,0
8710,-6.4375,3.9375,0.9375,0
8730,-6,1.8125,2.25,0
8750,-9.25,-0.0625,-4.5625,0
8770,-22.3125,0.8125,-13.875,0
8790,-31.25,5.25,-19.5625,0
8810,-36.5625,10.9375,-22,0
8830,-32.1875,15.375,-22.25,0
8850,-25.3125,18.25,-22.125,0
8870,-12.4375,20.5625,-14.5,0
8890,-7.875,28.125,-1.25,0
8910,-4.4375,27.3125,-2,0
8930,-6.3125,12.5,-9.9375,0
8950,-17.75,-0.375,-10.9375,0
8970,-13.0625,-4.4375,-13.0625,0
8990,-11.75,-5.625,-25.8125,0
9010,5.3125,-9.375,-27.6875,0
9030,15.3125,-10.9375,-28.8125,0
9050,23.375,-11.0625,-31.5,0
9070,18.5,-11.5625,-31.625,0
9090,14,-8.3125,-31.625,0
9110,5.25,-3.625,-27.1875,0
9130,3.1875,-4.75,-25.0625,0
9150,0.25,-8.875,-24.75,0
9170,-3.125,-15,-23.8125,0
9190,1.4375,-14.1875,-24.9375,0
9210,1.1875,-12.0625,-23.0625,0
9230,1.5,-15.9375,-21.0625,0
9250,-3.8125,-24.0625,-23.8125,0
9270,-6,-21.5625,-22.375,0
9290,-9,-19.8125,-14.125,0
9310,-2.1875,-16.5,-6.375,0
9330,-2.1875,-8.1875,-0.625,0
9350,2.25,-1.8125,-0.8125,0
9370,3.3125,2.375,-3.5625,0
9390,6.75,8.3125,-2.375,0
9410,11.1875,15.5625,2.8125,0
9430,13.3125,21.875,7.4375,0
9450,10.8125,25,8.9375,0
9470,7.625,21.875,5.625,0
9490,4.4375,11.8125,2.375,0
9510,4.625,3.6875,4.375,0
9530,0.3125,0.875,11.375,0
9550,-2.6875,3.6875,20.1875,0
9570,-9.1875,-3.75,22.75,0
9590,-7.0625,-9.0625,17.6875,0
9610,-10.0625,-10.0625,18.6875,0
9630,-8.25,-7.5625,29.5,0
9650,-8.125,-10.8125,34.75,0
9670,-14.5,-28.125,28.375,0
9690,-27.9375,-37.625,19.5,0
9710,-30.25,-26.8125,22.6875,0
9730,-30.875,-13.1875,20.9375,0
9750,-29.375,-3.9375,17.0625,0
9770,-26.5,-2.75,17.375,0
9790,-31.1875,-7.25,12.5,0
9810,-41,-11.5625,10.5,0
9830,-45.625,-16.625,12.25,0
9850,-50.3125,-18.6875,11.875,0
9870,-51.125,-21,12.1875,0
9890,-53.6875,-22.875,14.5,0
9910,-52.0625,-22.8125,16.9375,0
9930,-50.375,-19.75,19.5,0
9950,-52.0625,-13.75,19.5625,0
9970,-53.875,-8.1875,17.0625,0
9990,-54,-4.875,14,0
10010,-58.375,-4.25,16.25,0
10030,-65.625,0,20.5625,0
10050,-68.3125,0.8125,16.5625,0
10070,-76.3125,-1.5,8,0
10090,-80.0625,-5.125,1.875,0
10110,-84.125,-12.6875,4.25,0
10130,-99,-11.1875,12.1875,0
10150,-95.375,-19.5625,5.6875,0
10170,-106.562,-26.5,-3.625,0
10190,-102.25,-33,-9,0
10210,-78.25,-41.75,-13.875,0
10230,-40.25,-45.25,-25.75,0
10250,-10.1875,-33.4375,-29.75,0
10270,-0.375,-24.75,-26.4375,0
10290,-11.125,-18.6875,-24.25,0
10310,-20.9375,-13.1875,-26.625,0
10330,-18.0625,-9.4375,-26.1875,0
10350,1.5,-8.75,-21.25,0
10370,14.4375,-10.1875,-18,0
10390,28.875,-9.375,-30.25,0
10410,33.125,-6.0625,-47.375,0
10430,39.3125,1.875,-55.4375,0
10450,51.375,8.875,-56.375,0
10470,60.6875,14.375,-55.375,0
10490,62.8125,21,-52.0625,0
10510,64.9375,26.5,-41.3125,0
10530,61.4375,25.9375,-25.5,0
10550,57.4375,22.9375,-6.25,0
10570,54.125,17.0625,9.3125,0
10590,57.0625,13.3125,16.625,0
10610,65.875,5.375,16.0625,0
10630,77.9375,-1.5625,11.75,0
10650,83,-8.0625,5.9375,0
10670,82.5,-6.625,6.5,0
10690,83.4375,-4.125,13.3125,0
10710,85.4375,-0.9375,17.9375,0
10730,84.5625,-1,18.25,0
10750,74.25,-10.1875,14.6875,0
10770,62.25,-19.1875,2.1875,0
10790,49.5625,-19.3125,-0.1875,0
10810,30.5,-15.125,1.75,0
10830,28.625,-14.625,-4.875,0
10850,18.125,-14.6875,-9.375,0
10870,5.5625,-19.75,-27.5,0
10890,6.9375,-21.4375,-32,0
10910,2.0625,-20.875,-17.125,0
10930,-18,-12.3125,6.4375,0
10950,6.3125,-16.125,6.5625,0
10970,20.25,-24,-5.6875,0
10990,20.6875,-26.125,-9,0
11010,-6.1875,-25.4375,-7.25,0
11030,-33.9375,-18.6875,2.5,0
11050,-32.0625,-13.5,7,0
11070,-40,-6.5,1,0
11090,-38.5,8.8125,2.375,0
11110,-41.25,27.3125,14.25,0
11130,-39.9375,34.8125,19.25,0
11150,-35,32.3125,24.3125,0
11170,-21.5625,31.25,33,0
11190,-22.125,35.625,46.6875,0
11210,-21.125,41.5625,55.6875,0
11230,-22,45.4375,55.25,0
11250,-22.5625,51.0625,53.75,0
11270,-26.3125,59.875,52.8125,0
11290,-25.0625,67.3125,49.4375,0
11300,-27.8125,72.875,48.1875,0
11320,-29.9375,76.3125,47.5625,0
11340,-31.875,81.375,43,0
11360,-22.5625,80.125,43.1875,0
11380,-9.75,79.0625,50,0
11400,-7.875,82.0625,55.625,0
11420,-13.125,82.3125,54.375,0
11440,-15.5625,78.125,50.4375,0
11460,-16.5,67.75,48.875,0
11480,-12.5625,52.375,52.125,0
11500,-1.8125,35.0625,59.625,0
11520,20.125,20.3125,60.0625,0
11540,22.3125,6.375,51.5625,0
11560,13.6875,-6.625,40.3125,0
11580,-12.375,-12.6875,36.625,0
11600,-31.8125,-14.5625,30.1875,0
11620,-37.5,-14.375,28.8125,0
11640,-30.875,-12.875,22.375,0
11660,-16.1875,-8.6875,20.4375,0
11680,6.375,-7.3125,26.25,0
11700,27.6875,-1.375,36,0
11720,36.0625,7.375,37.5625,0
11740,36.0625,16.4375,32.125,0
11760,39.75,22.25,21.5625,0
11780,46.5,25.5,6.3125,0
11800,43.125,27.3125,-7,0
11820,23.25,23,-14.5,0
11840,4.375,16.3125,-17.5,0
11860,-6.5625,11.6875,-20,0
11880,-10.625,7.3125,-15.9375,0
11900,-14.625,2.8125,-10.5,0
11920,-15.75,-2.9375,-9.125,0
11940,-12.8125,-7.5,-10.3125,0
11960,-7.9375,-13.5625,-9.125,0
11980,-3.125,-16.0625,-7.375,0
12000,-0.875,-18.0625,-6.5625,0
12020,2.5,-14.9375,-4.5,0
12040,6.875,-8.1875,-1.375,0
12060,16.375,-4.125,0.9375,0
12080,14.875,-2,3.875,0
12100,7.3125,-2.125,3.1875,0
12120,2.1875,-0.4375,2.625,0
12140,-1.5625,-0.1875,1.5625,0
12160,-3,0.6875,-0.25,0
12180,-3.6875,-0.0625,-0.3125,0
12200,-2.75,-2.3125,-0.0625,0
12220,-2.3125,-3.6875,-0.5,0
12240,-1.0625,-4.75,0.625,0
12260,-3.8125,-7,2.5625,0
12280,-7.5,-9.4375,4.0625,0
12300,-13.3125,-10.875,5.5625,0
12320,-13.6875,-10.125,4,0
12340,-8.5625,-10.4375,2.875,0
12360,-6.375,-13,2.5,0
12380,-13.625,-9.625,7.8125,0
12400,-11.6875,-7.6875,4.75,0
12420,-5.25,-6.75,3.375,0
12440,-8.5,-9,9.0625,0
12460,-5.375,-8.4375,5.25,0
12480,-9.9375,-11.625,9.625,0
12500,-7.1875,-11.125,7.1875,0
12520,-0.5625,-9.0625,5.5625,0
12540,3.6875,-6.75,5.3125,0
12560,2.125,-5.125,4,0
12580,0.0625,-7.5,6.5625,0
12600,3.125,-2.75,1.875,0
12620,1.875,-0.9375,3.75,0
12640,1.8125,0.9375,4.125,0
12660,-0.8125,2.75,3.75,0
12680,1.0625,3.0625,3.3125,0
12700,-0.75,3.6875,3.5625,0
12720,-1.375,4.125,3.5,0
12740,-0.8125,3.9375,2.1875,0
12760,-3.5,3.4375,2.5625,0
12780,-4,3.5,4.5625,0
12800,-4.625,2.4375,4.9375,0
12820,-3.625,1.375,3.0625,0
12840,-3.625,1.0625,2.8125,0
12860,-3.0625,1.125,4.5,0
12880,-4.625,0.6875,5.8125,0
12900,-13.4375,-4.3125,11.4375,0
12920,-6.25,-2.1875,4.375,0
12940,-6,0.25,9.1875,0
12960,-13.9375,-3,20.5,0
12980,-7.375,0.6875,8.3125,0
13000,-5.875,-0.3125,8.6875,0
13020,-5.875,0.75,8.625,0
13040,-9.5,3.25,11.25,0
13060,-4.4375,2.75,4.625,0
13080,-1.75,2.6875,4.4375,0
13100,-0.9375,3.4375,5.125,0
13120,-2.3125,3.6875,6.375,0
13140,-2.875,2.1875,5.4375,0
13160,-2.3125,2.3125,4.125,0
13180,-4.125,1.25,3.875,0
13200,-4,0.75,4.625,0
13220,-5.1875,-0.1875,4.375,0
13230,-6.6875,-2.875,4.5625,0
13250,-5.25,-1.1875,3.25,0
13270,-4.5,-1.75,4.5625,0
13290,-9.3125,-3.25,8.625,0
13310,-5.5625,-0.875,3.6875,0
13330,-7.4375,0.375,6.25,0
13350,-7.1875,-3.1875,4.5625,0
13370,-4.125,-0.5,4.625,0
13390,-2.5,-0.6875,6,0
13410,-5.5625,3.75,8.9375,0
13430,-1.875,-0.375,4.0625,0
13450,0.6875,1.75,5.625,0
13470,-1.1875,0.625,3.6875,0
13490,-1.1875,-0.8125,0.5625,0
13510,-0.4375,-1.125,1,0
13530,0.4375,-1.4375,0.9375,0
13550,3.125,-0.5625,-0.625,0
13570,1.8125,0.0625,-1.125,0
13590,1,-0.75,0.5625,0
13610,-0.75,-1.5,-0.125,0
13630,-0.9375,-1.8125,-0.75,0
13650,0.25,-2.0625,-0.0625,0
13670,0.75,-1.75,-0.1875,0
13690,0.5,-1.1875,0.5625,0
13710,0.6875,-1,0.75,0
13730,0.1875,-1.0625,0.5,0
13750,-0.125,-1.1875,0.3125,0
13770,-0.6875,-1.75,0.5625,0
13790,1.3125,-0.875,-0.4375,0
13810,-0.4375,-0.8125,-0.0625,0
13830,-0.625,-1.375,1.1875,0
13850,-1.125,-1.5625,1.25,0
13870,-0.6875,-1.75,1.625,0
13890,-1.625,-1.5625,2,0
13910,-1.6875,-1.25,1.4375,0
13930,-1.1875,-0.625,0.6875,0
13950,-0.5,-0.25,-0.125,0
13970,0.4375,-0.3125,-1.9375,0
13990,1.0625,0.25,-3,0
14010,1.9375,0.8125,-4.125,0
14030,1.4375,1.0625,-4.375,0
14050,3.25,1.0625,-4.625,0
14070,2.6875,0.4375,-5,0
14090,3,-0.6875,-4.6875,0
14110,2.8125,-1.4375,-4.0625,0
14130,2.125,-2,-3.0625,0
14150,1.6875,-2.25,-1.75,0
14170,0.375,-2.5625,0.5625,0
14190,-0.6875,-2.75,2,0
14210,-2.375,-2.6875,3.3125,0
14230,-3.375,-2.5,5.5625,0
14250,-4.1875,-1.8125,6.9375,0
14270,-3.375,-1.375,6.375,0
14290,-0.8125,-1.5,3.75,0
14310,1.3125,-1.1875,3.0625,0
14330,2.25,-1.4375,2.3125,0
14350,1.1875,-1.4375,1.125,0
14370,1,-1.4375,-0.625,0
14390,2.5,-1.5625,-3.1875,0
14410,2.875,-1.375,-7,0
14430,4.4375,-1.875,-10.25,0
14450,5.9375,-2.0625,-11.375,0
14470,8.8125,-1.75,-12.8125,0
14490,9.875,-0.0625,-13.8125,0
14510,11.5625,0.75,-16.875,0
14530,11.9375,-0.0625,-19.5,0
14550,11,-0.0625,-19.875,0
14570,11.625,-1,-20.3125,0
14590,13.6875,-2.0625,-21.4375,0
14610,18.1875,-0.4375,-20.75,0
14630,18.625,0.8125,-19.8125,0
14650,17.4375,0.625,-19.75,0
14670,17.3125,0.25,-20.75,0
14690,17.1875,-0.625,-20.6875,0
14710,19,-2.9375,-19.625,0
14730,19.9375,-2.8125,-20.5,0
14750,23.3125,-3,-22.6875,0
14770,30.125,-3.25,-29.25,0
14790,35,-1.875,-37.5625,0
14810,40,-2.75,-46.125,0
14830,37.125,-5.375,-52.8125,0
14850,35.8125,-6.5625,-60.625,0
14870,44.1875,-7.625,-62.625,0
14890,51.8125,-5.4375,-64.3125,0
14910,65.5625,-1.375,-64.1875,0
14930,71.375,4.8125,-58.875,0
14950,73,-1.3125,-41.25,0
14970,55.25,2.625,-14.625,0
14990,44.1875,23.75,-13.6875,0
15010,55.4375,-14.5625,-4.375,0
15030,14.4375,-2.9375,-4.0625,0
15050,-14.1875,9.6875,-1.75,0
15070,-35.875,5.5,-4.125,0
15090,-47,3.625,-4.6875,0
15110,-61.25,10.8125,-2.25,0
15130,-62.875,10.6875,-8.0625,0
15150,-55.5,11.25,-14,0
15170,-53,13.5,-12.75,0
15190,-47.875,9.0625,-12.25,0
15210,-51.75,7.1875,-7.375,0
15230,-59.8125,6.625,-5.625,0
15250,-67.4375,6.5625,-4.0625,0
15270,-77.9375,8.9375,-1.4375,0
15290,-81.3125,12.8125,-1.375,0
15310,-71.375,15.625,-0.5,0
15330,-58.9375,17.6875,3.75,0
15350,-45.75,19.5625,6.75,0
15370,-34.125,20.875,10.75,0
15390,-31,19.125,13.5,0
15410,-35.125,15.75,12.3125,0
15430,-30.0625,10.3125,8.6875,0
15450,-18.9375,4.75,6.5625,0
15470,-9.1875,0.3125,7.375,0
15490,-4.875,0.0625,7.8125,0
15510,-3.5625,3.1875,8.8125,0
15530,-7.5625,5.9375,12.125,0
15550,-13.75,5,17.3125,0
15570,-18.25,1.0625,19.6875,0
15590,-15.9375,-3.0625,17.875,0
15610,-13.375,-7.0625,18.3125,0
15630,-13.125,-7.0625,19.0625,0
15650,-12.125,-7.25,16.6875,0
15670,-7.9375,-6.25,8.875,0
15690,-4.9375,-7.1875,4.875,0
15710,0.875,-8.25,7.375,0
15730,2.0625,-6.0625,10.0625,0
15750,-0.8125,-3.3125,11,0
15770,-4.1875,-1.0625,12.1875,0
15790,-8.625,0.875,13.875,0
15810,-9.875,2.25,13,0
15830,-8.6875,2.3125,11.6875,0
15850,-6.625,2.0625,7.375,0
15870,-4.375,3.6875,1.8125,0
15890,-1.3125,4.25,-0.25,0
15910,-0.125,3.75,2.1875,0
15930,-2.25,3.25,4,0
15950,-5.625,3,4.75,0
15970,-10.1875,1.3125,6.75,0
15990,-17.1875,0.1875,5.75,0
16010,-19,0.4375,3.0625,0
16030,-14.75,0.3125,1.5,0
16050,-5.875,-0.25,1.6875,0
16070,0.9375,0.1875,3.6875,0
16090,-1,-0.1875,4,0
16110,-4.875,0.5,2.125,0
16130,-7.375,1.6875,0.6875,0
16150,-5.625,3,-0.375,0
16170,1.0625,2.875,-0.25,0
16190,1.875,1.5,0,0
16210,0.8125,0.5625,-1.375,0
16230,-4.75,-0.4375,-1.4375,0
16250,-7.0625,-0.8125,0.875,0
16270,-10.0625,-0.6875,2.5625,0
16290,-7.75,-1.375,1.1875,0
16310,-5.0625,-1.6875,0.0625,0
16330,-4.625,-2,2.125,0
16350,-2.6875,-1.9375,3.75,0
16370,-5.3125,-1.25,2.5,0
16390,-5.4375,-1.6875,1.6875,0
16410,-3.625,-1.6875,2.125,0
16430,-3.9375,-1.25,2.625,0
16450,-1.1875,-1.375,3.3125,0
16470,-2.9375,-1.5625,2.5625,0
16490,-4.125,-1.5625,1.6875,0
16510,-4.625,-1.4375,2.75,0
16530,-4.875,-1.25,4.1875,0
16550,-4.125,-1.375,0.375,0
16560,-3.375,-1.5625,0,0
16580,-3.5625,-1.375,3.9375,0
16600,-3.75,-1.875,4.3125,0
16620,-6.1875,-2.1875,2.4375,0
16640,-5.25,-1.875,0.6875,0
16660,-3.6875,-1.875,0.625,0
16680,-0.625,-1.6875,1.8125,0
16700,0.625,-1.1875,1.5,0
16720,0.5625,-0.6875,-0.0625,0
16740,0.0625,0.5625,-0.875,0
16760,1.5625,0.375,-1.3125,0
16780,2.4375,-0.1875,-1.375,0
16800,3.8125,-0.0625,-1.125,0
16820,3.875,0.75,-0.5,0
16840,3.5,0.5625,-0.75,0
16860,2.4375,0,-1,0
16880,-0.25,-0.375,-0.75,0
16900,-1.0625,-0.875,-1.25,0
16920,-1,-1.5,-0.75,0
16940,0.3125,-1.5625,0.25,0
16960,0,-1.75,0.875,0
16980,-1.3125,-2,0.8125,0
17000,-1.4375,-1.8125,0.875,0
17020,-2.1875,-1.875,1.125,0
17040,-2.0625,-2.0625,0.75,0
17060,-1.5625,-1.8125,0.0625,0
17080,-1.0625,-1.625,0.375,0
17100,-0.1875,-2.0625,1.25,0
17120,-0.9375,-1.875,1.0625,0
17140,-3.0625,-1.5625,0.9375,0
17160,-1.5,-2.1875,0.5625,0
17180,-3.25,-1.875,0.5625,0
17200,-3.375,-2.0625,1.0625,0
17220,-3.125,-2.3125,1.0625,0
17240,-1.5625,-1.5625,0.75,0
17260,-0.1875,-1.375,0.3125,0
17280,3.75,-0.6875,0.0625,0
17300,1.6875,0.3125,-0.6875,0
17320,1,-0.5,-0.75,0
17340,-0.625,-0.5625,-0.1875,0
17360,-0.5625,-0.125,-0.125,0
17380,-0.8125,-0.375,-0.1875,0
17400,1.375,-1.0625,0.4375,0
17420,0.5625,-0.9375,0.3125,0
17440,2.4375,-0.75,-0.375,0
17460,2.0625,-0.6875,0.0625,0
17480,2.875,-1,1,0
17500,4.4375,-0.8125,-0.1875,0
17520,4,-0.375,-0.25,0
17540,3.25,-0.1875,0.0625,0
17560,2.625,-0.5,0.4375,0
17580,1.75,-0.5625,-0.125,0
17600,1.5625,-1.125,-1.25,0
17620,-0.3125,-1.1875,-1.1875,0
17640,-0.4375,-1.0625,-0.3125,0
17660,-0.875,-1.1875,-0.25,0
17680,-0.875,-1.125,-0.5625,0
17700,0,-2.25,-0.6875,0
17720,-1.8125,-3,-0.3125,0
17740,0.1875,-1,1.0625,0
17760,-1.9375,-0.5625,-0.5,0
17780,-3.4375,-0.875,-1.75,0
17800,1.1875,-0.875,-1.4375,0
17820,2.5625,-0.1875,-0.5625,0
17840,2.875,-0.875,0.25,0
17860,2,-1.75,1.375,0
17880,-3.4375,-2.125,0.625,0
17900,-3.5625,-2.0625,-0.3125,0
17920,-1.4375,-1.4375,-0.25,0
17940,-0.1875,-1.1875,-0.875,0
17960,0,-1.125,-1.25,0
17980,-0.5,-1.5625,-0.875,0
18000,-0.875,-1.5625,-1.1875,0
18020,-0.125,-0.9375,-1.3125,0
18040,2.1875,-1.5625,-0.9375,0
18060,2.25,-1.625,-0.8125,0
18080,1.0625,-1.6875,0.0625,0
18100,1.9375,-1.625,-0.5625,0
18120,2.3125,-1.3125,-1,0
18140,3.8125,-1.625,-1.3125,0
18160,3.9375,-2.25,-1.6875,0
18180,4.6875,-1.75,-2.125,0
18200,3.9375,-1.4375,-1.4375,0
18220,4.75,-1.75,-1.9375,0
18240,3.375,-1.3125,-2.1875,0
18260,6.1875,-1.3125,-2.3125,0
18280,6.5,-1.6875,-2.1875,0
18300,5.1875,-2.375,-1.3125,0
18320,4.125,-2,-0.375,0
18340,1.625,-2.5,-0.75,0
18360,0.6875,-2.8125,-1.375,0
18380,1.5,-2.9375,-1.25,0
18400,2.3125,-2.625,-1.3125,0
18420,4.5,-1.5,-1.625,0
18440,5.5625,-1.75,-1,0
18460,4.75,-1.8125,-1.5625,0
18480,3.4375,-1.625,-1.5625,0
18490,3.4375,-1.375,-1,0
18510,3.3125,-2.0625,-0.625,0
18530,3.4375,-2.125,-0.75,0
18550,2.9375,-2.25,-0.75,0
18570,2.1875,-2.25,-0.25,0
18590,2.375,-1.75,-0.4375,0
18610,2.625,-1.5625,-0.875,0
18630,3.25,-1.9375,-1.3125,0
18650,3.3125,-1.875,-1.1875,0
18670,3.6875,-1.625,-0.8125,0
18690,2,-1.75,-0.3125,0
18710,1.75,-1.5,-0.375,0
18730,0.9375,-1.625,-0.6875,0
18750,1.625,-1.8125,-0.9375,0
18770,1.5,-1.8125,-1.0625,0
18790,1.75,-1.5,-0.625,0
18810,1.25,-1.0625,-0.875,0
18830,1.4375,-0.8125,-0.6875,0
18850,1.3125,-0.6875,-1,0
18870,0.6875,0.5,-0.75,0
18890,0.4375,0.4375,0,0
18910,-0.6875,0.375,-0.25,0
18930,-1.875,0.125,-0.6875,0
18950,-0.8125,0.0625,-1.625,0
18970,-1.0625,-0.5,-2.0625,0
18990,1,-0.875,-0.25,0
19010,0.3125,0.375,0.5625,0
19030,-0.9375,-0.5,0,0
19050,0.3125,-0.9375,-0.125,0
19070,0.875,-0.5625,0.6875,0
19090,1.5625,-0.75,0.4375,0
19110,1.8125,-0.875,0.9375,0
19130,1.0625,-0.375,0.8125,0
19150,0.25,-0.375,0.125,0
19170,0.3125,-0.375,0.6875,0
19190,2.3125,0.5625,0.5625,0
19210,3.4375,-0.625,-1,0
19230,3.375,-1.25,-1.0625,0
19250,3.625,-0.8125,-0.875,0
19270,5.25,-0.875,-0.625,0
19290,6.4375,-0.1875,-0.0625,0
19310,7.6875,-0.375,-1,0
19330,7.4375,-1.0625,-0.8125,0
19350,4.375,0.875,-2.25,0
19370,4.125,-0.125,-2.5625,0
19390,9.75,-2.3125,0.5,0
19410,13.3125,-3.9375,0.0625,0
19430,11.8125,-4.75,-0.1875,0
19450,8.9375,-6.5,2.125,0
19470,6.5,-6.6875,3.3125,0
19490,9.875,-6.6875,2.1875,0
19510,10.25,-8.1875,3.0625,0
19530,17.125,-7.875,2.5625,0
19550,16.6875,-7.375,-0.5,0
19570,11.5,-5.5,-3.4375,0
19590,11.125,-4,-5.625,0
19610,14.8125,-3.125,-6.5,0
19630,15,-2.9375,-4.625,0
19650,11.1875,-2.625,-1.375,0
19670,12.9375,-7.6875,-0.25,0
19690,8.8125,-9.4375,-3.75,0
19710,4.5625,-10,-4.375,0
19730,5.75,-11.5625,-4.5,0
19750,2.9375,-12.625,-1.5,0
19770,0.9375,-13.1875,5.0625,0
19790,1,-15.5625,5.3125,0
19810,3.125,-17.125,7.0625,0
19830,11.0625,-18.0625,8,0
19850,16.375,-18,4,0
19870,17.5,-17.4375,-2.8125,0
19890,16.875,-18.0625,-6,0
19910,16.625,-20.4375,-5.1875,0
19930,17.1875,-22.3125,-5.0625,0
19950,18.1875,-22.25,-5.5625,0
19970,18.125,-23.1875,-5,0
19990,15.8125,-25.5625,-1.9375,0
20010,15.125,-27.75,1.125,0
20030,15.25,-28.5625,3.3125,0
20050,15.0625,-29,4.5,0
20070,15.5,-29.375,5.4375,0
20090,14.5625,-29.5,6.8125,0
20110,11,-28.75,7.75,0
20130,6.375,-27.8125,8.25,0
20150,4.8125,-28.625,5.75,0
20170,1.375,-33.1875,2,0
20190,5.6875,-37.6875,-2.25,0
20210,12.5,-41.25,-8.5625,0
20230,18.1875,-40.9375,-18.75,0
20250,20.9375,-36.25,-23.6875,0
20270,19.8125,-31.375,-27.125,0
20290,14.375,-27.75,-28.25,0
20310,15.6875,-25.5,-23.6875,0
20330,16.3125,-28.4375,-13.6875,0
20350,14.0625,-28.5,-0.1875,0
20370,13.6875,-30,8.5,0
20390,12.25,-32.75,10.4375,0
20410,13.5,-32.25,11.875,0
20430,18.125,-28.625,14.4375,0
20450,14.4375,-25.8125,17.25,0
20470,10.875,-22.5,18.375,0
20490,9.625,-21.5,16.125,0
20510,7.3125,-18.375,14.375,0
20530,5.625,-16.4375,14.6875,0
20550,8.25,-15.3125,13.25,0
20570,9.625,-12.4375,12.0625,0
20590,8.875,-8.6875,11.6875,0
20610,6.4375,-5.125,11.0625,0
20630,5.4375,-3.125,10.4375,0
20650,5.25,0.0625,8.5625,0
20670,3.6875,2.625,7.0625,0
20690,2.75,4.5,6.75,0
20710,2.3125,6.0625,5.6875,0
20730,3.1875,7.4375,4,0
20750,3.0625,9.1875,1.3125,0
20770,1.375,11.4375,-0.0625,0
20790,0.875,12.125,0.5,0
20810,2.5625,12.4375,1.3125,0
20830,3.625,13.375,0.0625,0
20850,3.9375,16.0625,-1,0
20870,-0.9375,18.125,1,0
20890,-3.0625,20.125,1.375,0
20910,-2.0625,22.9375,1.25,0
20930,-3.4375,25.4375,2.3125,0
20950,-7.4375,27.25,4.1875,0
20970,-10.9375,30.25,4.9375,0
20990,-11.6875,29.25,9.625,0
21010,-6.125,26.6875,12.375,0
21030,7.4375,24.6875,15.5,0
21050,15.5,24,17.625,0
21070,24.625,24.875,16.5625,0
21090,34.5625,24.8125,15.75,0
21110,38.9375,25.375,15.9375,0
21130,44.5,25.125,15.4375,0
21150,45.6875,26.3125,11.8125,0
21170,44.8125,28.3125,9.4375,0
21190,43.5625,27.125,7.875,0
21210,40.25,25.625,3.75,0
21230,31.1875,25.9375,0.3125,0
21250,26.9375,21.5,0.5,0
21270,19.3125,16.375,1.625,0
21290,11.3125,11.125,2.5,0
21310,5.6875,6.3125,1.5,0
21330,0.125,3.5,1.6875,0
21350,-3.9375,4.0625,1.9375,0
21370,-3.375,3.125,5.4375,0
21390,-2.1875,2.5,8,0
21410,0.5625,0.9375,7.125,0
21430,3.4375,-0.9375,4.25,0
21450,4.9375,-1.4375,3.4375,0
21470,4.9375,-3.125,2.125,0
21490,2.875,-4.25,1.4375,0
21510,3.125,-4.125,0.8125,0
21530,2.875,-3.875,-0.5625,0
21550,4.1875,-2.75,-1.875,0
21570,3.9375,-1.8125,-2.5,0
21590,3,-0.3125,-2,0
21610,1.8125,0.75,-1.4375,0
21630,2.1875,2.0625,-1.125,0
21650,2.75,2.625,-1,0
21670,3.25,3,-1.5625,0
21690,2.0625,2.8125,0.8125,0
21710,2.375,2.0625,-0.3125,0
21730,3.1875,2.25,0.5,0
21750,2.6875,1.5625,0.625,0
21770,1.125,1.125,-0.1875,0
21790,-1.875,1.6875,0,0
21800,-2.125,1,0.9375,0
21820,-3.25,0.1875,2.625,0
21840,-5.3125,-0.5625,4,0
21860,-6,-1.25,2.9375,0
21880,-5.875,-2.25,3.3125,0
21900,-4.125,-3.4375,4.5,0
21920,-3.375,-4.6875,4.5625,0
21940,-3.1875,-4.6875,5.9375,0
21960,-4.125,-4.1875,6.125,0
21980,-4.5625,-3.8125,5.6875,0
22000,-4.125,-3.9375,5.3125,0
22020,-3.4375,-4.375,5.75,0
22040,-2.375,-4.75,6.0625,0
22060,-2.5625,-4.4375,5.625,0
22080,-5,-3.875,4.75,0
22100,-4.125,-3.125,2.25,0
22120,-3.4375,-2.6875,1.25,0
22140,-1.8125,-3.125,0.8125,0
22160,-2.4375,-3.875,0.875,0
22180,-3,-4.5625,-0.3125,0
22200,-2,-3.375,-1.0625,0
22220,-0.375,-2.75,-1.6875,0
22240,-0.125,-3.5,-2.6875,0
22260,-0.875,-3.9375,-2.5,0
22280,-0.875,-3.125,-2.5,0
22300,-0.8125,-3.9375,-1.375,0
22320,-0.6875,-3.8125,-1.25,0
22340,-0.875,-3.0625,-1.1875,0
22360,-0.5625,-3,-0.375,0
22380,-2.375,-2.5,0.3125,0
22400,-2.3125,-2.75,1.4375,0
22420,-1,-3.5625,0.625,0
22440,-1.9375,-5,0.6875,0
22460,-2.6875,-4.625,-0.1875,0
22480,-1.9375,-4.625,-0.3125,0
22500,-0.75,-4.5,-0.25,0
22520,-1.9375,-3.25,0.5625,0
22540,-2.9375,-1.5625,1.6875,0
22560,-1.5,0.125,2.25,0
22580,0.25,1.25,1.75,0
22600,3.1875,0.75,0.8125,0
22620,5.3125,0.625,-1.0625,0
22640,6.1875,-2.25,-3,0
22660,1.9375,-6.75,-0.75,0
22680,-3.6875,-4.8125,2.75,0
22700,-5.8125,-2.75,2.125,0
22720,0.3125,-2.4375,2.4375,0
22740,3.6875,-2.8125,1.375,0
22760,0.25,-3.25,1.1875,0
22780,-1.8125,-2.0625,2.375,0
22800,-2.75,-0.3125,2.6875,0
22820,0.8125,-0.3125,1.25,0
22840,2.5,0.9375,-0.25,0
22860,3.75,1,0.25,0
22880,2.75,0.875,1.25,0
22900,1.6875,0.75,1.0625,0
22920,-1.75,1.0625,0.5,0
22950,-1.375,1.4375,-1.25,0
22970,-1.8125,0,-0.3125,0
22990,-3,-1.8125,1.5,0
23010,-3.625,-2.5625,2.8125,0
23030,-5.6875,-2.0625,3.25,0
23050,-6.625,-0.4375,2.0625,0
23070,-6.6875,1.1875,0.5,0
23090,-8.125,1.375,0.5,0
23110,-5.125,1.9375,0.0625,0
23130,-3.4375,0.5,-0.125,0
23150,-2.75,1.5625,0.3125,0
23170,-3.3125,2.375,-1,0
23190,-4.4375,1.625,-1.5625,0
23210,-4.9375,1.6875,-1.25,0
23230,-6.25,4.1875,-2.25,0
23250,-3.75,5.4375,-0.9375,0
23290,-1.3125,5.5625,5.75,0
23310,-4.5625,4,9.1875,0
23330,-7,4.3125,10.625,0
23350,-6.0625,4.5,11.4375,0
23370,-5.6875,4.5625,13.1875,0
23390,-5,4.5625,11.75,0
23410,-6.5625,3.6875,9.125,0
23430,-4.1875,2,8.6875,0
23450,-6.5,0.5,7.6875,0
23470,-8.5625,0.25,7.875,0
23490,-8.9375,0.4375,5.5,0
23510,-6.5,-0.5625,4.4375,0
23530,-3.0625,-1.6875,3.25,0
23550,-3.8125,-2.4375,1.875,0
23570,-4.5625,-1.0625,0.9375,0
23590,-3.4375,-0.5,1.375,0
23610,0.5625,-0.6875,0.9375,0
23630,1.4375,0.1875,-0.125,0
23640,3.4375,-0.125,-0.0625,0
23670,2.1875,-0.125,-0.5625,0
23690,-1.4375,0.75,0.375,0
23710,-2.75,0.5,-0.0625,0
23730,-3.5625,1.0625,0.625,0
23740,-0.875,-0.625,-0.875,0
23760,-1.6875,-0.8125,-2.5625,0
23780,0,-0.5625,-2.3125,0
23800,0.0625,-0.5,-2.5,0
23820,-0.5625,-0.125,-2.25,0
23840,-0.625,-0.8125,-2.3125,0
23860,-0.3125,-1.25,-2.125,0
23880,0.8125,-1.5625,-1.6875,0
23900,1.3125,-2,-1.125,0
23920,1.25,-1.625,-0.875,0
23940,1.25,-2,-1.1875,0
23960,2,-2.375,-1.25,0
23980,0.6875,-2.4375,-0.9375,0
24000,0.375,-2.8125,-0.25,0
24020,1.6875,-3.375,-0.0625,0
24040,0.0625,-2.6875,-0.5,0
24060,-2.5,-3.875,-0.0625,0
24080,-3.375,-2.5,-0.25,0
24100,3.125,-5.5625,-0.5,0
24120,0.75,-7.25,-1.25,0
24140,-1.6875,-4.5625,-2.625,0
24160,0.375,-3.8125,-2.375,0
24180,3.0625,-4.875,0,0
24200,5.4375,-6.375,1.125,0
24220,1.75,-3.4375,-0.1875,0
24240,0.625,-3.875,-0.625,0
24260,3.8125,-1.375,0.5625,0
24280,7,-1.25,0.5,0
24300,7.75,-1.25,-0.8125,0
24320,3.6875,-1.3125,-0.5625,0
24340,-2.875,-1.3125,0.6875,0
24360,-3.0625,-2.375,2.75,0
24380,-3.25,-3.1875,3.75,0
24400,-5.5,-2.5,3,0
24420,-5.0625,-2.125,1.625,0
24440,-2.1875,-3.125,2.625,0
24460,-2.125,-2.4375,2.25,0
24480,-1.125,-1.8125,2.375,0
24500,0.625,-2.3125,1.375,0
24520,-1.8125,-1.375,1.1875,0
24540,-3.0625,-0.8125,0.375,0
24560,-3.1875,-1.5625,-0.25,0
24580,-1.125,-1.375,-0.6875,0
24600,-1.0625,-1.5625,-0.8125,0
24620,-1.6875,-1.5625,-1.25,0
24640,-2.5625,-1.75,-1.625,0
24660,-3.375,-1.3125,-0.5,0
24680,-2.625,-1.3125,0.375,0
24700,-3.1875,-1,-0.25,0
24720,-3.125,-0.6875,-0.1875,0
24740,-1.125,-0.375,0.1875,0
24760,-1.6875,-0.5625,0.5,0
24780,-1.625,0.3125,0.5,0
24800,-1.6875,0.25,0.875,0
24820,-0.6875,0,1.4375,0
24840,-0.8125,-0.25,1.4375,0
24860,-1.5625,-0.25,1.125,0
24880,-1.5625,-0.5625,0.375,0
24900,-2.25,0,-0.3125,0
24920,-2.3125,-0.1875,-0.375,0
24940,-2.5625,-0.0625,-0.5,0
24960,-2.8125,0.3125,-0.75,0
24980,-2.3125,-0.4375,-1.875,0
25000,-0.125,-1.1875,-2.875,0
25020,0.25,-1.1875,-1.1875,0
25040,-1.75,-0.875,-0.5,0
25060,-1.0625,-1.5625,-1.125,0
25080,-0.6875,-1.625,-1.6875,0
25100,-1,-1.5625,-2.1875,0
25120,-0.625,-1.75,-3,0
25140,0.0625,-1.375,-2.5625,0
25160,0.125,-1,-1.875,0
25180,2.4375,-0.625,-2.3125,0
25200,2.125,-0.375,-1.5625,0
25220,1.0625,-0.3125,-0.75,0
25240,-1,0.375,-0.5625,0
25260,-0.8125,0.25,-1.8125,0
25280,1.125,0.4375,-3.1875,0
25300,2.5,1.125,-4.3125,0
25320,4.375,1.5625,-5.6875,0
25340,6.4375,1.125,-7.5625,0
25360,8.5,1.0625,-7.375,0
25380,7.625,1.8125,-7.75,0
25400,4.9375,2.875,-7.75,0
25420,1.625,3.375,-7.4375,0
25440,2.8125,2.6875,-6.0625,0
25460,3.875,1.6875,-3.3125,0
25480,4.375,1.625,-1,0
25500,3.3125,0.4375,-0.0625,0
25520,2.0625,-0.1875,0.4375,0
25540,0.3125,-1,0.1875,0
25560,-0.1875,-1.3125,-0.3125,0
25580,0.125,-1.25,-1.9375,0
25600,-0.3125,-0.25,-2.875,0
25620,-1.6875,0.625,-3.375,0
25640,-5,2.625,-2.9375,0
25660,-7.75,4.375,-1.9375,0
25680,-9.1875,6,-0.125,0
25700,-9.875,6.6875,1.5625,0
25720,-10.6875,7.4375,1.75,0
25740,-10.1875,7.9375,1.75,0
25760,-9.4375,8.375,1.375,0
25780,-9.1875,9.0625,0.75,0
25800,-9.1875,9.5,0.0625,0
25820,-9.8125,9.5625,-0.875,0
25840,-10.6875,9.75,-2.375,0
25860,-9.625,10.875,-5.125,0
25880,-10.375,10.75,-5.1875,0
25900,-10.4375,11.125,-5.6875,0
25920,-10.0625,10.6875,-5.75,0
25940,-10.0625,10.1875,-5.375,0
25980,-12.375,9.8125,-5.0625,0
26000,-13,10.125,-4.25,0
26020,-12.4375,10,-4.1875,0
26040,-11.625,8.4375,-4.25,0
26060,-10,6.375,-4.1875,0
26080,-7.5625,4.9375,-4.0625,0
26100,-3.5625,2.875,-4.3125,0
26120,0.3125,1.5625,-4.75,0
26140,3.6875,-0.0625,-5.125,0
26160,4.1875,-1.5625,-5.125,0
26180,3,-2.125,-3.875,0
26230,-6.9375,-0.1875,5.6875,0
26250,-5.875,-0.1875,4.9375,0
26260,-5.125,-0.5625,3.625,0
26280,-3,-0.4375,1.875,0
26300,-1.625,-0.3125,0.25,0
26320,-0.375,-0.4375,-1.25,0
26340,0.8125,-0.8125,-2.625,0
26360,2.5,-1.375,-3.3125,0
26390,11.6875,-7.3125,-3.75,0
26460,-1,-2.5625,2,0
26470,0.875,-2.6875,3.5625,0
26500,11.3125,-9.1875,2.5625,0
26520,12.4375,-10.8125,2,0
26550,15.375,-14.6875,1,0
26580,20.5,-17.1875,1.125,0
26600,21,-17.125,1.6875,0
26620,21.5625,-16.8125,2.25,0
26640,21.3125,-16.4375,2.75,0
26650,19.5,-15.4375,3.5,0
26670,16.625,-13.5,5.1875,0
26690,13.3125,-11.375,6.8125,0
26710,9.6875,-9,8.5,0
26730,6.8125,-6.25,9.6875,0
26760,0.1875,-1.5,10.9375,0
26780,-3.6875,2.25,10.3125,0
26820,-2.125,3.6875,7.5625,0
26840,-2.75,4.5,5.5,0
26860,-2.8125,4.625,4.0625,0
26880,-4.5625,4.5625,1.5625,0
26900,-6,4.125,-0.875,0
26920,-6.5625,3.1875,-3.0625,0
26940,-6.3125,2.5625,-5.5625,0
26960,-5.8125,1.9375,-6.8125,0
26980,-5.25,1.8125,-7.5625,0
27000,-4.9375,1.9375,-8.0625,0
27020,-5.125,2.0625,-7.6875,0
27040,-5.5,2.4375,-6.625,0
27060,-4.5,2.5,-5.5625,0
27080,-3.4375,2.75,-5,0
27100,-3.125,3.25,-3.9375,0
27120,-3.6875,3.75,-2.5625,0
27140,-5.5,3.875,-1.6875,0
27160,-6,3.6875,-1.0625,0
27180,-5.3125,3.4375,-1.25,0
27200,-3.6875,3.125,-0.875,0
27220,-2.875,2.0625,-0.625,0
27240,-1.8125,1.0625,0.0625,0
27260,-0.8125,-0.1875,0.375,0
27280,0.5,-1,0.25,0
27300,1.75,-1.9375,-0.4375,0
27310,1.875,-2.5,-1.1875,0
27330,1.8125,-2.6875,-2,0
27350,1.625,-2.875,-2.5,0
27370,2.125,-2.875,-3.0625,0
27390,2.375,-2.9375,-3.5,0
27410,2.875,-3.5,-3.875,0
27430,4.1875,-4,-4.25,0
27450,6.1875,-5.0625,-4.4375,0
27470,7.875,-6.125,-4.5625,0
27490,8.5625,-6.75,-3.875,0
27510,8.5,-6.9375,-2.6875,0
27530,7.5,-6.625,-1.5625,0
27550,6.875,-6.25,-0.9375,0
27570,6.6875,-6.375,-0.625,0
27590,6.625,-6.0625,-0.125,0
27590,6.625,-6.25,0.3125,0
27610,7.0625,-6.625,0.9375,0
27610,7.75,-6.6875,1.125,0
27610,7.8125,-6.5,1.1875,0
27630,7.375,-5.875,1.5625,0
27650,6.875,-5.4375,1.6875,0
27670,6.375,-5.1875,1.4375,0
27700,4.75,-4.6875,0.25,0
27720,3.25,-4.375,-0.9375,0
27740,1.25,-3.375,-2.25,0
27760,0.0625,-2.5,-3.6875,0
27780,-0.5625,-2.1875,-5.0625,0
27800,-0.25,-1.75,-6.0625,0
27820,-0.0625,-1.625,-7,0
27860,0.875,-1.4375,-6.9375,0
27900,1.125,-1.6875,-5.125,0
27920,1.5,-1.1875,-3.6875,0
27940,1.3125,-0.625,-2.6875,0
27960,0.75,-0.0625,-2,0
28000,-0.8125,0.5,-1.0625,0
28020,-1.25,1.1875,-0.6875,0
28040,-1.25,1.3125,-0.3125,0
28060,-1.1875,1.3125,0.1875,0
28080,-1.1875,1.625,0.9375,0
28100,-1.5,1.8125,1.875,0
28140,-0.875,1.625,2.875,0
28160,-1.1875,1.0625,3.25,0
28180,-1.125,0.4375,3.125,0
28200,-0.4375,-0.0625,2.6875,0
28220,1,-1.125,1.875,0
28240,2,-2.25,1.0625,0
28260,2.25,-3,0,0
28280,1.9375,-3.1875,-0.875,0
28300,2,-3.375,-1.375,0
28320,1.9375,-3.0625,-1.625,0
28340,1.1875,-2.0625,-1.875,0
28360,0.375,-1.4375,-1.8125,0
28380,0.1875,-1.1875,-1.9375,0
28410,-0.375,-1,-1.4375,0
28430,-0.6875,-0.8125,-0.875,0
28450,-1.25,-0.3125,-0.3125,0
28470,-2.125,0.375,0.3125,0
28480,-2.8125,0.75,0.75,0
28500,-3.5,0.9375,1.6875,0
28520,-4.5,1.0625,2.0625,0
28540,-5.1875,1.25,2.125,0
28560,-4.875,1.25,1.625,0
28580,-4.1875,1.1875,1,0
28600,-2.8125,0.25,0.3125,0
28620,-2.9375,-0.4375,-0.3125,0
28640,-2.9375,-1.125,-0.6875,0
28660,-1.75,-1.875,-1.75,0
28680,-0.25,-2.875,-2.8125,0
28700,1.4375,-3.4375,-4.25,0
28710,3.125,-3.375,-5.6875,0
28730,3.25,-2.9375,-5.5625,0
28750,2.875,-2.8125,-4.9375,0
28770,2.625,-2.75,-3.5625,0
28790,2.3125,-2.375,-2.5,0
28800,1.3125,-1.5625,-0.125,0
28830,2.1875,-2.3125,1.3125,0
28850,2.5,-2.375,1.6875,0
28860,1.9375,-2.3125,2.0625,0
28880,1.6875,-2.3125,2.5625,0
28910,0.6875,-1.9375,3.25,0
28920,0.1875,-1.625,2.75,0
28940,1.25,-1.75,1.1875,0
28960,1.625,-2.25,0.3125,0
28980,1.8125,-1.875,-0.5625,0
29000,1.25,-2.4375,-1.9375,0
29020,0.125,-2.6875,-2.75,0
29040,-0.125,-2.75,-2.875,0
29060,-0.375,-2,-2.75,0
29080,0.0625,-1.4375,-2.4375,0
29100,0.1875,-0.625,-1.75,0
29120,-0.25,-0.125,-0.8125,0
29140,-0.625,-0.0625,-0.25,0
29160,-0.875,-0.0625,-0.0625,0
29180,-1,-0.4375,0.0625,0
29200,-0.75,-0.4375,0.0625,0
29220,0.1875,-0.9375,0.0625,0
29240,0.9375,-1.375,0.25,0
29260,1.375,-1.625,0.375,0
29280,1.625,-1.75,0.625,0
29300,1.8125,-1.875,1,0
29320,1.5,-1.75,1.375,0
29340,1.375,-1.0625,2.0625,0
29360,1.1875,0.5,2.4375,0
29380,3.125,0.6875,1.9375,0
29400,4.1875,0.125,2.3125,0
29420,2,0.125,2.625,0
29440,0.6875,-0.5625,2.6875,0
29460,-0.3125,-1.4375,3.5625,0
29480,-0.9375,-1.5625,3.1875,0
29500,-0.4375,-1.4375,1.625,0
29520,0.875,-1.4375,0.1875,0
29540,1.5,-1.375,-0.5625,0
29560,0.6875,-1.375,-1.1875,0
29580,0.375,-0.9375,-1.5625,0
29600,0.5,-0.875,-1.5625,0
29620,0.625,-0.875,-1.1875,0
29640,0.3125,-1,-0.5,0
29660,-0.0625,-0.9375,0,0
29680,-0.3125,-1,0.0625,0
29700,0.5625,-1.125,0,0
29720,1.0625,-1.4375,-0.25,0
29740,2.125,-1.5,-0.125,0
29760,2.1875,-1.75,0.0625,0
29780,2,-1.5,0.0625,0
29800,2,-1,-0.1875,0
29820,0.5,-1.75,0.25,0
29840,-0.125,-1.25,0.625,0
29860,-0.5,-1.4375,0.625,0
29880,-0.5625,-1.375,1.0625,0
29900,-0.625,-0.6875,1.1875,0
29920,-1.125,-0.5625,1.125,0
29940,-1.1875,-0.25,0.75,0
29960,-0.9375,-0.4375,0.3125,0
29980,-0.75,-0.6875,0.0625,0
30000,-1.125,-0.8125,-0.0625,0
30020,-1.125,-0.8125,-0.125,0
30040,-0.6875,-1.1875,-0.4375,0
30060,0.3125,-1.5625,-0.625,0
30080,0.4375,-1,-0.8125,0
30100,0.875,0,-1.5625,0
30120,2,-0.625,-1.9375,0
30140,2.125,0.3125,-1.9375,0
30160,3.4375,1.25,-3.1875,0
30180,6.3125,0.375,-3.75,0
30200,8.8125,-0.3125,-4,0
30220,8.5625,-1.8125,-3.9375,0
30240,7.1875,-2.3125,-2.9375,0
30260,5.25,-1.75,-1.6875,0
30280,4.4375,-1.4375,-1.125,0
30300,2.8125,-1.125,-0.0625,0
30320,0.25,-0.0625,0.375,0
30340,-2.9375,0.8125,2.125,0
30360,-3.5625,1,4.5,0
30380,-5.4375,1.4375,5.625,0
30400,-6.625,1.5625,4.6875,0
30420,-6.375,1.4375,2.9375,0
30440,-5.3125,1.375,1.8125,0
30460,-4.4375,0.875,1.0625,0
30480,-5,0.1875,0.1875,0
30500,-6.0625,-2.1875,-0.9375,0
30520,-7.125,-3.9375,-1,0
30540,-9.1875,-3.375,1.1875,0
30560,-10.125,1.0625,2.6875,0
30580,-5.9375,3.25,2,0
30610,-0.3125,-0.375,-1.375,0
30630,0.25,-3.1875,-0.6875,0
30660,-6.125,-3.5,0.6875,0
30690,-8.625,-6.0625,1.875,0
30710,-14.125,-3.4375,0.875,0
30730,-13.4375,-4.625,4.5,0
30740,-11.8125,-7.9375,5.5,0
30760,-13.3125,-8.75,4.5,0
30780,-14.75,-9.5,5,0
30800,-12.875,-9.4375,7.25,0
30820,-10.8125,-8.9375,8.875,0
30840,-11.1875,-8.4375,9.25,0
30860,-10.375,-7.5625,7.9375,0
30880,-10.125,-7.8125,6.875,0
30900,-8.4375,-7.3125,5.9375,0
30920,-8.0625,-6.75,5.25,0
30940,-7.125,-5,6.625,0
30960,-2.1875,-5.625,3,0
30980,-1.875,-4.4375,4.375,0
31000,-3.5625,-4.8125,4.5625,0
31020,-3,-5.3125,3.8125,0
31040,-1.1875,-4.125,1.3125,0
31060,-2.625,-2.375,2.625,0
31080,-4.9375,0.1875,1.25,0
31100,-5.0625,1.3125,0.6875,0
31120,-4.0625,1.25,1.3125,0
31140,-1.25,-0.125,0.25,0
31160,-1.875,-2.375,0.75,0
31180,-1.25,-4.75,2.875,0
31200,-1.5,-4.4375,4.125,0
31220,0.5,-3.3125,4.0625,0
31240,3.8125,-3.6875,1.625,0
31260,2.375,-3.75,2,0
31280,0.25,-3.5625,3.25,0
31300,0.5625,-4.125,5.1875,0
31320,-0.0625,-4.125,6.625,0
31340,1.625,-4.25,4.6875,0
31360,0.0625,-4,6.25,0
31380,-2.5625,-4,7.1875,0
31400,-3.875,-4.125,7.3125,0
31420,-3.5625,-4.1875,4.5,0
31440,-3.9375,-4.875,5.5,0
31460,-7.1875,-4.5,8.5625,0
31480,-8.75,-3.5625,6.9375,0
31500,-5.625,-3.3125,4.375,0
31520,-1.125,-2.0625,2,0
31540,1.4375,-2.375,1.25,0
31550,0.875,-3.0625,2.75,0
31570,0.6875,-2.625,3.5625,0
31590,-1.625,-3.9375,2.625,0
31610,0.8125,-4.125,1.25,0
31630,-2.625,-4.25,1.25,0
31650,-2,-3.75,0.5,0
31670,-0.9375,-3.6875,-0.625,0
31690,-1.75,-1.9375,0.1875,0
31710,-0.9375,-1.25,0.375,0
31730,-4.75,-1.9375,0.5625,0
31750,-7.8125,-2.375,2.9375,0
31770,-12.625,-1.6875,2.5,0
31790,-13.5625,-1.4375,4,0
31810,-15.9375,-2.1875,4.1875,0
31830,-11.3125,-2.0625,4.0625,0
31850,-10.75,-1.25,2,0
31870,-7.6875,0,1.5,0
31890,-1.75,1.875,1.3125,0
31910,-5.875,3.0625,2.75,0
31930,-5.6875,2.875,5.375,0
31950,-8.5,3.375,8.9375,0
31970,-9.25,2.375,8.4375,0
31990,-9.1875,1.0625,8,0
32010,-9.25,-0.4375,7,0
32030,-9.6875,-1.3125,7.875,0
32050,-10.6875,-0.625,8.9375,0
32070,-10.5,-0.0625,9,0
32090,-10.1875,-0.4375,7.375,0
32110,-8.875,-1.25,5,0
32130,-5,-0.6875,5.8125,0
32150,-3.8125,0.5,6,0
32170,-3.5625,-0.6875,3.6875,0
32190,-1.8125,-0.875,3.4375,0
32210,-3.0625,-1.25,3,0
32230,-2.6875,-0.375,2.875,0
32250,-0.9375,-0.75,3.6875,0
32270,-1.4375,0,2.75,0
32290,-0.875,0.4375,1.6875,0
32310,0.5625,0.875,0.8125,0
32330,2.375,0.6875,-0.5625,0
32350,4.75,-0.5,-1.5625,0
32370,3.625,-0.75,-3.1875,0
32390,3.0625,0.3125,-2.75,0
32410,2.4375,0.625,-1.9375,0
32430,2.6875,0.375,-1.4375,0
32450,4.0625,0.25,-1.25,0
32470,4.125,-0.125,-0.375,0
32490,3.875,-0.6875,-0.0625,0
32510,3.3125,-1.375,-0.125,0
32530,3.25,-1.125,0.25,0
32550,2.4375,-1.0625,0.5625,0
32570,3.3125,-1.6875,1.0625,0
32590,4.125,-2.3125,1.5625,0
32610,1.1875,-2,0.0625,0
32630,-0.1875,-1.9375,-0.9375,0
32650,1.8125,-2.4375,0.0625,0
32670,2.625,-2.125,0.75,0
32690,2.8125,-1.625,0.5625,0
32710,1.9375,-2.25,0.8125,0
32730,0.3125,-1.9375,0.625,0
32750,-0.4375,-1.75,-0.25,0
32770,1,-2.0625,-0.5,0
32790,2.1875,-1.5625,-0.4375,0
32810,2.0625,-1.4375,-0.4375,0
32830,1.1875,-1.4375,-0.5625,0
32850,0.125,-1.625,-0.875,0
32870,0.3125,-1.0625,-0.8125,0
32890,1.1875,-0.8125,-0.375,0
32910,1.25,-0.875,-0.125,0
32930,1.3125,-0.9375,-0.1875,0
32950,1.3125,-1.4375,-0.1875,0
32970,0.875,-1.3125,-0.0625,0
32990,0.25,-1.125,-0.0625,0
33010,-0.0625,-1.375,-0.0625,0
33030,0.0625,-1.125,0,0
33050,-0.0625,-1.25,0.125,0
33070,-0.1875,-1.1875,0.375,0
33090,-0.25,-0.875,0.0625,0
33110,-0.375,-1.125,-0.5625,0
33130,0.1875,-0.9375,-0.5625,0
33150,0.9375,-0.75,-0.6875,0
33170,0.6875,-0.875,-0.625,0
33190,0.875,-0.5625,-0.6875,0
33230,0.875,-0.625,-0.125,0
33270,1.8125,0.5,-0.625,0
33290,1.375,0.75,-0.875,0
33310,1.8125,0.4375,-0.8125,0
33330,2.4375,0.125,-0.8125,0
33350,2.1875,0.125,-1.125,0
33370,3.625,0.625,-1,0
33390,3.875,0.6875,-1.5625,0
33410,3.1875,0.6875,-2.25,0
33430,4.375,0.5625,-2.5,0
33450,5.1875,1.375,-1.875,0
33470,5.4375,2.4375,-1.125,0
33490,4.4375,2.375,-0.75,0
33510,1.25,1.9375,-0.75,0
33530,-1.6875,2.125,-0.5625,0
33550,-2.75,1.625,-0.9375,0
33570,-3.3125,1.125,-1.3125,0
33590,-1.9375,1,-1.625,0
33610,-0.125,0.875,-1.9375,0
33630,-0.875,0.875,-1.3125,0
33650,-1.25,0.9375,-0.4375,0
33670,-1.6875,0.75,-0.25,0
33690,-1.6875,0.5625,-0.125,0
33710,-1.3125,0.25,-0.0625,0
33730,-2.375,0.4375,0.6875,0
33750,-1.625,0.125,1.25,0
33770,-1.8125,-0.875,-0.125,0
33790,-0.5625,-1.9375,1.375,0
33810,-1.875,-0.8125,1.25,0
33830,-0.375,-2,0.375,0
33850,-4,-1.5625,0.125,0
33870,-3.125,-1.75,0,0
33890,-1.0625,-2,-0.25,0
33910,-0.125,-1,0.625,0
33930,-1.5,-1.0625,0.4375,0
33950,-1.25,-0.875,0.4375,0
33970,-0.5,-1,0.25,0
33990,0.125,-0.9375,0.25,0
34010,-0.8125,-0.625,0.3125,0
34030,-1.8125,-0.6875,0.4375,0
34050,-1.625,-1,0.25,0
34070,-0.25,-1.0625,0.25,0
34090,1.3125,-0.75,-0.5,0
34110,1.8125,-0.5,-2,0
34130,2.9375,-0.875,-3.625,0
34150,3.9375,-0.9375,-4.875,0
34170,2.1875,-1.125,-4.875,0
34180,1.875,-1.4375,-3.0625,0
34190,0.8125,-0.9375,-1.0625,0
34210,-0.3125,-0.125,1.1875,0
34230,-0.0625,-0.1875,2.3125,0
34250,1.0625,-0.5,2,0
34270,0.5,-0.625,2.125,0
34290,-0.9375,-0.875,1.8125,0
34310,-1.875,-1.3125,2.1875,0
34330,0.125,-1.3125,2.4375,0
34350,-0.3125,-0.875,2.0625,0
34370,2.8125,-0.375,1.5625,0
34390,3.9375,0.5625,0.8125,0
34400,6.625,-0.6875,-0.6875,0
34420,9,-1.5625,-1.5625,0
34440,9.9375,-1,-1.9375,0
34460,9,-0.75,-3.8125,0
34480,7.6875,-1.5625,-6.625,0
34500,6.625,-2.25,-9.1875,0
34520,7,-1.375,-10.1875,0
34540,5.5,-2.3125,-10.3125,0
34560,3.6875,-2.875,-11.5,0
34580,0.8125,-1.5,-13.25,0
34600,2.8125,-1.5,-12.75,0
34620,5.0625,-1.8125,-9.875,0
34640,4.625,-0.875,-5.9375,0
34660,1.6875,-1,-4.25,0
34680,0.1875,-1,-3.0625,0
34700,1.8125,0.4375,-2.4375,0
34720,3.9375,0.5625,-1.0625,0
34740,3.8125,0.5,-0.375,0
34760,1.625,1.0625,-1.0625,0
34780,1.8125,1.9375,-0.625,0
34800,4.9375,2.5,0.375,0
34820,6.9375,2.375,-0.1875,0
34840,4.4375,3.625,-4,0
34860,2.875,2.5,-6.875,0
34880,5.125,1,-8.6875,0
34900,7.0625,0.375,-10.625,0
34920,8.0625,-0.5,-11.5625,0
34940,6.75,0.6875,-11.8125,0
34960,3.375,2,-11,0
34980,4.125,1,-8.8125,0
35000,4.6875,0.25,-5,0
35020,4.4375,-0.0625,-2.375,0
35040,4.25,-1.5625,-0.9375,0
35060,3.0625,-2.6875,-0.5,0
35080,2.875,-2.3125,-0.0625,0
35100,4.375,-1.1875,-0.25,0
35120,5.3125,0.1875,-1.375,0
35140,5.6875,0.875,-3.1875,0
35160,5.5625,0.8125,-3.9375,0
35180,5.6875,0.125,-3.6875,0
35200,6.875,-0.375,-2.3125,0
35220,8.0625,-1.9375,0.9375,0
35240,4.625,-2.5625,0.5,0
35260,2.375,-4,-0.25,0
35280,1.5,-2.3125,-1.4375,0
35300,4.375,-0.5,-2.125,0
35320,10.5,-0.25,-2.5,0
35340,12.1875,1,-3.0625,0
35360,10.5625,1.125,-3.4375,0
35380,9.25,1.25,-2.75,0
35400,8.5625,2.375,-2.3125,0
35420,8.5,2.6875,-2.5,0
35440,9,2.5625,-3.25,0
35460,10.1875,3.5625,-3.8125,0
35480,11.875,2.5625,-5.1875,0
35500,12.9375,2.1875,-5.3125,0
35520,12.25,2.9375,-5.0625,0
35540,11.9375,2.5,-5.6875,0
35560,11.625,1.875,-5.125,0
35580,9.5,0.625,-2.125,0
35600,4.375,-1.25,0.6875,0
35620,2.3125,-1.5625,0.625,0
35640,-0.5,-1.375,0.0625,0
35660,2.6875,-1.125,-0.5625,0
35680,2.5,-1.75,-1.875,0
35700,1.8125,-2.0625,-1,0
35720,-0.8125,-4.5,0,0
35740,-5.0625,-6.5,1.6875,0
35760,-9.1875,-4.5625,-0.3125,0
35780,-4.375,-4.6875,0.0625,0
35800,-0.6875,-3.4375,-0.5625,0
35820,-1.9375,-5,1,0
35840,-4.125,-4.375,1.875,0
35860,-6.8125,-4.75,2.875,0
35880,-7.8125,-5.1875,4.25,0
35900,-8.0625,-3.8125,5.5625,0
35920,-8,-3.125,6.625,0
35940,-7.75,-2.4375,6.875,0
35960,-8.375,-1.9375,7.6875,0
35980,-7.1875,-1.4375,8.375,0
36000,-7.3125,-1.75,8.0625,0
36020,-6.3125,-2.75,7.125,0
36040,-5.625,-2.875,5.5625,0
36060,-3.0625,-4.5,5.1875,0
36080,-0.0625,-5.25,5.5,0
36100,-4.6875,0.25,-0.625,0
36120,1.4375,0.375,-6.0625,0
36140,6.6875,-1.0625,-4.6875,0
36160,2.125,0.875,-1.625,0
36180,-1.3125,0.125,-2.4375,0
36200,-0.125,-1.5625,-5.75,0
36220,0.3125,-3.25,-1.9375,0
36240,-3.4375,-0.8125,0.0625,0
36260,-2.1875,-0.5625,-0.875,0
36280,-0.0625,-0.25,-2.5,0
36300,0.4375,1.5,-3.1875,0
36320,2.4375,2.5,-3.8125,0
36340,4.5,2.0625,-4.0625,0
36360,4.5,1.625,-2.625,0
36380,3.25,1.3125,-1.0625,0
36400,3.125,1.5625,0,0
36420,3.75,1.1875,1.4375,0
36440,3.375,1.875,1.125,0
36460,3.75,1.1875,0.6875,0
36480,5.375,1.25,-1.375,0
36500,4.6875,0.1875,0.3125,0
36520,2.1875,0.875,1.875,0
36540,1.625,0.1875,1.8125,0
36560,2.375,0.9375,-1.125,0
36580,3.9375,2.125,-1.25,0
36600,3.9375,2.625,-2.4375,0
36620,5.625,2.625,-3.8125,0
36640,4.4375,2.25,-4.6875,0
36650,4.5,2.75,-4.375,0
36670,4.875,2.375,-4.3125,0
36690,4.6875,1.8125,-4.25,0
36710,5.3125,0.9375,-4.125,0
36730,3.375,0.875,-3.375,0
36750,2.875,1.375,-2.3125,0
36770,1.0625,1.0625,-0.8125,0
36790,0.9375,0.9375,-0.1875,0
36810,0.375,0.375,0.1875,0
36830,-0.25,0,1.4375,0
36850,-1,-0.375,2,0
36870,-1.6875,-0.875,2.375,0
36890,-1.8125,-1.25,2.4375,0
36910,-1.6875,-0.6875,2.0625,0
36930,-0.6875,-0.625,1.5625,0
36950,-1.8125,-0.375,2.1875,0
36970,-1.875,1.0625,3.25,0
36990,-1.75,0.5,2.8125,0
37010,0.1875,1.1875,1.4375,0
37030,2.375,1.125,0.0625,0
37050,2.75,1.375,-0.3125,0
37070,2.3125,0.125,-0.9375,0
37090,1.875,0.625,-0.5625,0
37110,0.375,1.8125,0.4375,0
37130,-3,0.9375,0.25,0
37150,-3.3125,2.125,-0.9375,0
37170,-6.75,1.1875,-0.625,0
37190,-4.125,0.125,-1,0
37210,-0.0625,0.75,0.375,0
37230,2.875,2.5,1.75,0
37250,5.625,1.4375,-1.625,0
37270,5.6875,-1.375,-1.125,0
37290,2.25,-0.1875,-0.9375,0
37310,-0.625,1.0625,-0.6875,0
37330,2.6875,0.25,0.0625,0
37350,3.625,0.3125,-0.125,0
37370,3.75,3.5625,1.375,0
37390,7.75,-0.1875,0.375,0
37410,2.125,-1,1.75,0
37430,-1.1875,-0.25,3.625,0
37450,-5.375,-0.3125,2.5625,0
37470,-4.5,-0.125,1.625,0
37490,-3.25,-0.1875,-0.5,0
37510,-2.9375,-0.9375,-0.6875,0
37530,-4.1875,-0.0625,-1.3125,0
37550,-3.4375,-1.6875,-2.75,0
37570,-2.875,-2.5,-2.5625,0
37590,-3.9375,-2.0625,-2,0
37610,-2.75,-2.4375,-3.3125,0
37630,-3.5,-2.125,-3.1875,0
37650,0,-1.5625,-3.0625,0
37670,1.5,-1.9375,-3.5,0
37690,2.75,-0.8125,-5.0625,0
37710,4.0625,0.1875,-5.5,0
37730,4.9375,1.875,-4.5625,0
37750,3.875,2.125,-1.375,0
37770,3.1875,1.625,0.875,0
37790,0.5625,1.0625,2.4375,0
37810,-1.1875,1,2.6875,0
37830,-0.0625,0.75,3,0
37850,0.625,-0.6875,4.3125,0
37870,-0.8125,-0.875,5,0
37890,-1.6875,-1.25,4.0625,0
37910,-0.8125,-1.875,2.8125,0
37930,0,-2.9375,1.6875,0
37950,0.3125,-2.5,1.4375,0
37970,0.6875,-2.8125,1,0
37990,1.375,-3.375,0,0
38010,0.9375,-3.8125,-0.5625,0
38030,0.6875,-4.5625,-0.0625,0
38050,-0.0625,-5.0625,-0.125,0
38070,-2.25,-4.9375,0.25,0
38090,-3,-4.375,0.0625,0
38110,-3.5,-4.125,-0.375,0
38130,-2.4375,-5.0625,-1,0
38150,-3,-5.4375,-1,0
38170,-3.4375,-5.375,-0.4375,0
38190,-2.8125,-5,-0.0625,0
38210,-1.75,-3.9375,0.3125,0
38230,-0.4375,-3.75,0.25,0
38250,1.125,-3.8125,0.0625,0
38270,0.875,-4,-0.3125,0
38290,-0.8125,-3.25,-0.625,0
38310,0.125,-2.5625,0.125,0
38330,1.1875,-2.5625,-0.0625,0
38350,0.4375,-2.9375,-0.5,0
38370,-0.375,-2.25,-0.8125,0
38390,-0.1875,-1.6875,-0.625,0
38410,0.25,-1.75,-1.0625,0
38430,0.125,-1.5625,-1.125,0
38450,-0.5625,-1.25,-0.875,0
38470,-1.5625,-1,-0.5625,0
38490,-1.9375,-0.6875,-0.125,0
38510,-2.0625,-0.5,0.1875,0
38530,-2.0625,-0.3125,0.5,0
38550,-1.9375,-0.3125,0.8125,0
38570,-2.125,-0.8125,0.75,0
38590,-1.8125,-1.25,0.625,0
38600,-1.4375,-2.6875,0.375,0
38620,-1.1875,-2.375,-0.1875,0
38640,0.0625,-2.5,-0.5,0
38660,0.4375,-2.4375,-0.875,0
38680,0.25,-1.375,-0.75,0
38700,0.8125,-0.75,-0.25,0
38720,0.5625,0.125,-0.0625,0
38740,0.1875,0.9375,0.375,0
38760,-0.5,1.0625,0.4375,0
38780,-0.75,0.6875,1.4375,0
38800,-2.0625,0.3125,2.4375,0
38820,-3,-0.875,3.4375,0
38840,-3.8125,-1.75,2.625,0
38860,-5.375,0.5,0.5625,0
38880,-4.375,0.6875,1,0
38900,-1.9375,-0.0625,0.4375,0
38920,-3,-0.625,-0.0625,0
38940,-3.75,-1.25,-0.125,0
38960,-5,0.3125,-0.1875,0
38980,-5.25,1.0625,0.1875,0
39000,-6.0625,0.8125,0.3125,0
39020,-6,0.125,0.75,0
39040,-8.4375,-0.875,1.25,0
39060,-9.75,-2.125,2.6875,0
39080,-12.4375,-0.5,3.875,0
39100,-11.375,0.125,4.5,0
39120,-10.25,-0.875,3.6875,0
39140,-8.8125,-3.625,3.5625,0
39160,-8.75,-3.3125,4.3125,0
39170,-4.375,-3.375,2.6875,0
39190,-3.125,-2.75,1.75,0
39210,-3.4375,-2,0.6875,0
39230,-2.3125,-2,0.375,0
39250,-1,-1.875,-0.0625,0
39270,0.8125,-2.1875,-0.6875,0
39290,2.25,-2.5625,-1.25,0
39310,2.8125,-2.5625,-1.75,0
39330,3.6875,-2.8125,-2.1875,0
39350,4.125,-3.1875,-2.4375,0
39370,3.4375,-3.375,-2.8125,0
39390,2.25,-3.1875,-3.4375,0
39410,2.3125,-1.9375,-4,0
39430,2.3125,-1.375,-4.125,0
39450,2.4375,-0.75,-3.4375,0
39470,3.25,0.9375,-2.5,0
39490,4.125,1.75,-2.3125,0
39510,4.625,-0.3125,-2.5,0
39530,2.1875,-3.4375,-2.5625,0
39550,-0.75,-2.5625,-1.6875,0
39570,3.4375,-1.5625,1.5625,0
39590,4.4375,-1.4375,2.25,0
39610,3.5,-1.75,2.1875,0
39630,0.25,-1.8125,2.1875,0
39650,-1.25,-2.875,2,0
39670,0,-3.5625,-0.75,0
39690,3.5625,-4.5625,-3.375,0
39710,5.5,-4.6875,-4.75,0
39730,4.375,-4.75,-4.75,0
39750,2.8125,-4.375,-3.625,0
39770,1.8125,-3.6875,-2.25,0
39790,1.125,-2.8125,-0.5625,0
39810,-0.0625,-2.0625,0.9375,0
39830,-0.8125,-1.125,2.3125,0
39850,-1.1875,-0.1875,2.875,0
39870,-1.375,0.0625,2.8125,0
39890,-1,0.0625,2.375,0
39910,-0.875,-0.4375,1.375,0
39930,0.375,-1.4375,0.25,0
39950,1.125,-1.9375,-0.9375,0
39970,1.875,-2.8125,-2.0625,0
39990,2.625,-3.1875,-1.375,0
40010,3,-2.6875,-1.1875,0
40030,2.25,-2.3125,-1,0
40050,0.6875,-1.5625,-0.8125,0
40070,-0.8125,-1.125,-0.75,0
40090,-1.4375,-0.875,-0.375,0
40110,-2.3125,-0.4375,-0.5625,0
40130,-2.625,0,0.8125,0
40150,-2.1875,0.875,1.4375,0
40170,-0.5625,0.6875,1.3125,0
40190,-1.125,0.0625,1.25,0
40220,-6.6875,1.3125,2.125,0
40240,-4.9375,0.875,0.8125,0
40260,-1.375,0.6875,1.3125,0
40280,0.625,1,0.625,0
40300,1.6875,-0.8125,-1.875,0
40320,1.4375,-3.25,-4.0625,0
40340,0.5625,-3.125,-2.5625,0
40360,-0.375,-2.625,-2.0625,0
40380,1.75,-3.375,-2.4375,0
40400,2.375,-3.3125,-2,0
40420,1.3125,-2.375,-1.125,0
40440,-0.0625,-1.875,-0.375,0
40460,-0.8125,-1.75,0.375,0
40480,-0.5,-1.375,0.8125,0
40500,0.1875,-1,0.8125,0
40520,0.5625,-1.5625,0.1875,0
40540,0.1875,-1.375,-0.3125,0
40560,-1.375,-0.625,0.125,0
40580,-2.6875,0.5,0.75,0
40600,-3,1.5,1.8125,0
40620,-2.875,2.1875,2.3125,0
40640,-2.6875,2,2.3125,0
40660,-3.25,1.625,2.375,0
40680,-3.6875,1.4375,2.5,0
40700,-3.5,1.4375,2.375,0
40720,-2.6875,1.5,2.1875,0
40740,-1.625,1.4375,1.75,0
40760,-1.1875,1.5,1.1875,0
40780,-0.25,0.75,0.3125,0
40800,0.375,0.1875,-0.0625,0
40820,0.25,0,0.5625,0
40840,-0.25,-0.375,0.1875,0
40860,-0.75,-1.5625,0.125,0
40880,0.0625,-1.9375,0.0625,0
40900,1.6875,-2.4375,-0.5625,0
40920,2.375,-3,-0.8125,0
40940,0.6875,-1.8125,-0.875,0
40960,-2.375,-0.8125,-0.5,0
40980,-3.0625,-0.8125,-0.3125,0
41000,-2.75,-0.375,-0.125,0
41020,-2.625,-0.25,-0.25,0
41040,-2.75,-0.25,-0.375,0
41060,-2.25,-0.5,-0.6875,0
41080,-1.125,-0.4375,-1.25,0
41100,1.625,-3.0625,-2.3125,0
41120,1.1875,-2.75,-2.4375,0
41140,-0.25,-2.125,-2.5,0
41160,-0.125,-2.0625,-1.6875,0
41180,1.3125,-1.8125,-0.9375,0
41200,2.4375,-2.25,-0.4375,0
41220,3,-2.875,-0.125,0
41230,3.5625,-3.6875,0,0
41250,5.125,-4.6875,0.4375,0
41270,6.6875,-5.4375,0.875,0
41280,8.625,-6.4375,1.0625,0
41290,10.25,-7.6875,0.625,0
41310,12.375,-8.375,0.5625,0
41330,12.5625,-8.6875,0.0625,0
41350,10.3125,-7.625,0.9375,0
41370,7.5,-5.5625,1.6875,0
41390,6.75,-4.1875,2.25,0
41410,6.5,-4.0625,2.875,0
41430,6.125,-4.0625,2.8125,0
41450,5.0625,-4.625,2,0
41470,6.125,-4.6875,2.0625,0
41490,6.4375,-5.3125,1.0625,0
41510,6,-5.875,0.625,0
41530,6,-5.5625,0,0
41550,5.9375,-5.6875,-1,0
41570,5.625,-6.4375,-1.1875,0
41590,5.875,-6.25,-1.125,0
41610,5.625,-6,-1.4375,0
41630,5.8125,-6.0625,-1.375,0
41650,5.5625,-5.6875,-1.375,0
41670,4.25,-5.1875,-0.625,0
41690,3.375,-5.125,-0.3125,0
41710,3.25,-4.625,-0.4375,0
41730,3.0625,-4.5,-0.625,0
41750,2.5,-4.3125,-1.3125,0
41770,1.8125,-3.9375,-1.125,0
41790,1.5625,-3.3125,-1.1875,0
41810,1.125,-2.6875,-0.6875,0
41820,0.8125,-2.375,0,0
41840,0.6875,-2.0625,0.25,0
41860,0.75,-1.8125,0.3125,0
41880,1.0625,-1.6875,0.1875,0
41900,1.25,-1.875,0.25,0
41920,1.3125,-2.1875,0.125,0
41940,1.1875,-2.0625,-0.0625,0
41960,0.0625,-2.125,0.0625,0
41980,0.9375,-1.75,-0.5,0
42000,1,-1.6875,-0.6875,0
42020,1.0625,-1.8125,-0.3125,0
42040,0.9375,-1.6875,-0.1875,0
42060,1.125,-1.75,0,0
42080,1.3125,-1.75,-0.0625,0
42100,1.4375,-2.1875,-0.25,0
42120,1.1875,-2.375,0.3125,0
42140,0.6875,-1.625,0.3125,0
42160,0.875,-1.5625,0.0625,0
42180,1,-1.5625,0.0625,0
42200,0.3125,-1.5,0.0625,0
42220,0,-1.4375,0.125,0
42240,0,-1.4375,0.0625,0
42260,0,-1.5625,-0.1875,0
42280,-0.0625,-1.5625,-0.0625,0
42300,0.1875,-1.6875,-0.125,0
42320,0,-1.5625,-0.5,0
42340,-0.5625,-1.125,-0.625,0
42360,-0.75,-1.125,-1.125,0
42380,-0.875,-1.375,-0.5625,0
42400,-1.5625,-0.6875,0.3125,0
42420,-1.8125,0.125,0.6875,0
42440,-1.25,-0.25,0.9375,0
42460,-0.75,-0.5,1.375,0
42480,-1,-0.625,1.875,0
42500,-1.25,-0.6875,2.0625,0
42520,-1.25,-0.6875,1.9375,0
42540,-1,-0.75,1.5625,0
42560,-0.625,-1,1.1875,0
42580,-0.125,-1.375,0.8125,0
42600,0.8125,-1.75,0.5625,0
42620,1.0625,-2.1875,0.25,0
42640,1.0625,-1.9375,-0.25,0
42660,0.125,-1.6875,-0.375,0
42680,-0.6875,-1.375,-0.4375,0
42700,-0.8125,-0.75,-0.375,0
42720,-1.0625,-0.4375,-0.25,0
42740,-1.0625,-0.25,-0.25,0
42760,-0.875,-0.25,-0.3125,0
42780,-0.8125,-0.25,-0.375,0
42800,-0.875,-0.25,-0.5,0
42820,-0.875,-0.1875,-0.75,0
42840,-1.125,-0.25,-0.9375,0
42860,-1.3125,-0.25,-1,0
42880,-1.25,-0.5,-0.75,0
42900,-0.875,-0.625,-0.25,0
42920,-0.75,-0.5625,0.0625,0
42940,-0.875,-0.625,0.125,0
42960,-0.8125,-0.5,0.375,0
42980,-0.4375,-0.4375,0.8125,0
43000,-0.375,-0.4375,0.75,0
43020,-0.3125,-0.5625,0.75,0
43040,-0.1875,-0.5,0.75,0
43060,-0.1875,-0.4375,0.8125,0
43080,-0.375,-0.1875,0.8125,0
43100,-0.5,-0.125,0.9375,0
43120,-0.8125,0.125,0.9375,0
43140,-0.875,0,0.875,0
43160,-1,0.0625,0.5625,0
43180,-0.8125,-0.1875,0.3125,0
43200,-0.625,-0.1875,0.0625,0
43220,-0.5,-0.375,-0.1875,0
43240,-0.5,-0.5,-0.25,0
43260,-0.4375,-0.4375,-0.4375,0
43280,-0.5,-0.4375,-0.4375,0
43300,-0.5,-0.5,-0.125,0
43320,-0.5,-0.375,0,0
43340,-0.4375,-0.4375,0.25,0
43360,-0.25,-0.3125,0.4375,0
43380,0.0625,-0.5625,0.625,0
43400,0.375,-0.75,0.75,0
43420,0.4375,-0.625,0.6875,0
43440,0.1875,-0.75,0.5625,0
43460,0.1875,-0.75,0.5,0
43480,0.25,-0.75,0.4375,0
43500,0.125,-0.75,0.5,0
43520,-0.0625,-0.5625,0.5625,0
43540,-0.25,-0.625,0.4375,0
43560,-0.1875,-0.5625,0.5625,0
43580,-0.25,-0.625,0.5625,0
43600,-0.1875,-0.6875,0.4375,0
43620,-0.25,-0.8125,0.3125,0
43640,-0.125,-0.625,0.0625,0
43660,-0.125,-0.8125,0.125,0
43680,0.3125,-1,0.125,0
43700,0.9375,-1.4375,0.0625,0
43720,0.5625,-1.375,-0.125,0
43740,-0.125,-0.6875,-0.3125,0
43760,-1.375,-0.625,-0.125,0
43770,-1.25,-0.625,-0.0625,0
43790,-0.875,-0.5625,0.1875,0
43810,-0.8125,-0.625,0.4375,0
43830,-0.8125,-0.6875,0.5,0
43850,-0.8125,-0.625,0.25,0
43870,-0.8125,-0.6875,0,0
43890,-0.4375,-0.9375,-0.125,0
43910,-0.3125,-0.875,-0.3125,0
43930,-0.5625,-0.9375,-0.1875,0
43950,-0.4375,-0.8125,0.0625,0
43970,-0.8125,-0.4375,0.375,0
43990,-1.9375,0.625,0.9375,0
44010,-3.6875,1.875,1.0625,0
44030,-4.5625,2.6875,0.9375,0
44050,-5.3125,3.0625,0.875,0
44070,-5.3125,3.125,0.875,0
44090,-5.75,3.5,0.625,0
44110,-6.625,3.6875,0.6875,0
44130,-6.1875,3.625,0.8125,0
44150,-6.3125,3.6875,0.0625,0
44170,-6.25,3.1875,0,0
44190,-6.1875,2.75,-0.375,0
44210,-6.1875,2.25,-0.875,0
44230,-5.9375,1.9375,-1.125,0
44250,-5.25,1.8125,-1.125,0
44270,-6,1.9375,-1.125,0
44290,-5.8125,1.625,-0.8125,0
44310,-5.4375,1.25,-0.4375,0
44330,-5.0625,0.9375,-0.4375,0
44350,-3.8125,0.375,-0.625,0
44370,-2.375,0,-1,0
44390,-1.625,-0.375,-1.25,0
44410,-1.75,-0.5625,-1.125,0
44430,-2.1875,-0.4375,-0.6875,0
44450,-2.4375,0.4375,-0.1875,0
44470,-2.9375,1.0625,0.25,0
44490,-3.5625,1.3125,1.625,0
44510,-6.5,1.1875,4.125,0
44530,-7.5,2.6875,6.625,0
44550,-9.6875,3.0625,6.4375,0
44570,-8.0625,2.3125,5.1875,0
44590,-6.625,3.8125,4.4375,0
44610,-7.25,6.75,4.875,0
44630,-5.4375,8.8125,2.8125,0
44650,0.375,6.5625,-0.9375,0
44670,3.6875,6.4375,-3.8125,0
44690,5.125,5.9375,-4.75,0
44710,5.25,3.125,-9.1875,0
44730,4.625,3.25,-11.25,0
44750,2.0625,3.5625,-12.5625,0
44770,1.75,3.75,-13.6875,0
44790,5.1875,2.5625,-11.625,0
44810,3.375,1.6875,-8.5625,0
44830,1.3125,0.3125,-4.875,0
44850,-3.1875,-1.0625,-0.75,0
44870,-10.3125,0,3.1875,0
44890,-15.3125,-0.25,2.8125,0
44910,-18.75,0.1875,1.1875,0
44930,-18.875,2.6875,1.5625,0
44950,-17.625,6.1875,2.4375,0
44970,-12.125,7,2.125,0
44990,-7.875,5.125,0,0
45010,-9.8125,3.6875,-1.25,0
45030,-11.5,4.0625,-2.875,0
45050,-11.25,4.3125,-3.5625,0
45070,-8.875,3.75,-3.9375,0
45090,-4.875,2.875,-4.5625,0
45110,-1.9375,3.0625,-5.375,0
45130,-0.25,2.9375,-4.9375,0
45150,-0.25,2.6875,-3.25,0
45170,-1.5625,2.25,-0.5,0
45190,-7.625,2.5625,1.1875,0
45210,-14.625,2.375,1.3125,0
45230,-18.5,1.625,0.9375,0
45250,-19.3125,1,0.125,0
45270,-20.5625,0.6875,-0.375,0
45290,-24.25,-0.5625,-2.5,0
45310,-25.6875,-2.875,-4.5625,0
45330,-28.5,-3.5,-6.625,0
45350,-28.8125,-3.75,-7.8125,0
45370,-27.6875,-5.0625,-9.4375,0
45390,-23.9375,-6.5625,-9.1875,0
45410,-26,-6.4375,-8.6875,0
45430,-28.5625,-2.75,-8.25,0
45450,-30.5,0.3125,-7.875,0
45470,-28.8125,1.5625,-7.9375,0
45490,-21.4375,-0.125,-6.0625,0
45510,-14.625,-2.0625,-3.0625,0
45530,-11,-2.875,0.5,0
45550,-10.25,-3.3125,3.4375,0
45570,-10.0625,-1.875,5.5,0
45590,-12.625,1.1875,6.1875,0
45610,-12.25,2.9375,6.25,0
45630,-7.4375,1.9375,7.125,0
45650,-3.25,0.5625,7.375,0
45670,-2.5625,-1.0625,7.0625,0
45690,-3,-2.5,7,0
45710,-5.5,-2.6875,7.1875,0
45730,-8.125,-2.4375,5.625,0
45750,-6.5625,-2.5625,3.9375,0
45770,-4.9375,-3.5625,2.875,0
45790,-3.1875,-4.3125,3.5,0
45810,-2.6875,-6.0625,3.75,0
45830,-3.4375,-5.875,4.3125,0
45850,-4.75,-4.9375,2.8125,0
45870,-3.4375,-3.75,1.9375,0
45890,-2.1875,-3.3125,1.5625,0
45910,-2.9375,-3.375,0.875,0
45930,-3.4375,-4.375,0.25,0
45950,-3.4375,-5.4375,0.1875,0
45970,-1.5,-6.1875,0.5,0
45990,-1.75,-4.8125,-0.125,0
46010,-1.875,-3.5625,-2.4375,0
46030,-2.4375,-3.75,-4.3125,0
46050,-2.1875,-3.9375,-5.875,0
46070,-2,-4.75,-6.25,0
46090,-1.625,-4.875,-6.3125,0
46110,-1,-4.4375,-7.1875,0
46130,-1.5625,-4,-7,0
46150,-2.0625,-3.4375,-6.9375,0
46170,-0.6875,-3.875,-6.9375,0
46190,-0.875,-4.0625,-8.125,0
46210,-1.25,-4.125,-8.625,0
46230,0.375,-4.8125,-8.4375,0
46250,2.125,-4.9375,-8.0625,0
46270,3.5625,-4.1875,-7.8125,0
46290,3.75,-3.0625,-7.8125,0
46310,4.1875,-2.5,-8.375,0
46330,4.875,-2,-8.5,0
46350,5.6875,-0.8125,-8.5,0
46370,6.5,-0.3125,-8.1875,0
46390,8.8125,-0.25,-6.6875,0
46410,13.6875,0.25,-5.875,0
46430,18.3125,0.4375,-5,0
46450,22.125,3.1875,-2.8125,0
46470,24.3125,6.875,0.3125,0
46490,25.5,10.125,2.8125,0
46510,25,12.5625,5,0
46530,26,15.9375,7.8125,0
46550,25.5625,16.5,11.125,0
46570,25.0625,15.5,11.6875,0
46590,21.8125,14.4375,11.75,0
46610,16.625,13.25,11.0625,0
46630,13.3125,11.5,9.375,0
46650,8.75,8,7.875,0
46670,6.5,4.5,6.6875,0
46690,1.125,2.25,4.75,0
46710,-7.25,-0.0625,2.125,0
46730,-12.125,-0.6875,-1.0625,0
46750,-13.6875,0.125,-4.375,0
46770,-13.6875,0.3125,-5.5,0
46790,-11.25,-2.75,-3.625,0
46810,-9.1875,-3.75,0.0625,0
46830,-7.6875,-1.0625,4.5,0
46850,-1.75,1.25,8.5,0
46870,7.5625,2.0625,7.125,0
46890,16.5,-0.125,5.625,0
46910,18.125,-2.5625,3.6875,0
46930,12.5,-2.625,-0.0625,0
46950,7.25,-0.5625,-3.1875,0
46970,6.875,0.5,-4.375,0
46990,11.25,-0.75,-5.3125,0
47010,10.625,-0.1875,-5.3125,0
47030,10.25,2.5625,-4.375,0
47050,10.6875,3.6875,-1.8125,0
47070,15,4.25,-1.375,0
47090,15.75,2.25,-1.8125,0
47100,14.5625,0.75,-3.1875,0
47120,8.3125,-0.5,-4,0
47140,5.875,-2.75,-6.0625,0
47160,2.75,-6.875,-11.5,0
47180,2.5625,-9.625,-16.9375,0
47200,4.125,-11.375,-19.875,0
47220,8.25,-13.0625,-20.3125,0
47240,10.9375,-14.25,-19.8125,0
47260,9.6875,-15.125,-21,0
47280,3.9375,-14.5625,-22.5,0
47300,0.75,-12.6875,-22.625,0
47320,0.5,-11.9375,-22.1875,0
47340,4.0625,-10.3125,-23,0
47360,7.75,-8.4375,-23.5625,0
47380,9.375,-6.8125,-25.125,0
47400,9.3125,-4.4375,-26.3125,0
47420,5.375,-1.1875,-26.0625,0
47440,2.1875,3.1875,-24.625,0
47460,0.5,7.875,-23.375,0
47480,-1,14.4375,-21.125,0
47500,0,19.875,-17.3125,0
47520,0.5,22.9375,-14,0
47540,1.9375,23.125,-11.5,0
47560,2.4375,24.0625,-9.125,0
47580,0.1875,26.75,-5.625,0
47600,-1.875,28.3125,-1.8125,0
47620,-3.1875,28.5625,2.375,0
47640,-3.8125,25.8125,6.4375,0
47660,-2.3125,21.625,10.25,0
47680,-2.3125,18.1875,15.0625,0
47700,-1.5,14.3125,20.5625,0
47720,-5.5625,11.4375,22.75,0
47740,-6,12,24.9375,0
47760,-6.375,12.25,25.5625,0
47780,-3.4375,9.875,25.125,0
47800,-2.625,7.625,24.75,0
47820,-4.9375,6.6875,21.4375,0
47840,-7,6.8125,17.3125,0
47860,-6.625,4.375,12.5,0
47880,-4.0625,1.75,7.6875,0
47900,-3.0625,0.9375,5.4375,0
47920,-4.5,1.875,4.1875,0
47940,-6.375,2.125,2.75,0
47960,-7.3125,3,1.5,0
47980,-5.1875,3.3125,0.75,0
48000,-0.875,3.25,0.5,0
48020,2.6875,2.5625,0.8125,0
48040,4.125,1.3125,1,0
48060,3.125,-0.25,0.9375,0
48080,0.3125,-0.875,0.8125,0
48100,-2,-1.125,0.1875,0
48120,-3.9375,-0.9375,0.6875,0
48140,-4.5625,-0.875,1.625,0
48160,-5.25,-1.1875,2.6875,0
48180,-3.9375,-1.625,3.3125,0
48200,-2.5,-2.1875,3,0
48220,-1.3125,-2.5,2.3125,0
48240,0.5625,-3,1.625,0
48260,2.125,-3.3125,0.75,0
48280,2.625,-3.25,-0.25,0
48300,3.4375,-2.8125,-1.125,0
48320,4.375,-2.6875,-1.9375,0
48340,4.8125,-3.0625,-2.125,0
48360,6.1875,-2.625,-2.0625,0
48380,7.0625,-2.375,-1.9375,0
48400,7.5625,-2.5,-1.875,0
48420,6.4375,-2.375,-1.9375,0
48440,5.8125,-2.5625,-1.4375,0
48460,5.6875,-2.8125,-1.1875,0
48480,5.875,-3.0625,-0.875,0
48500,6,-3.1875,-0.5625,0
48520,5.4375,-4.25,-0.5625,0
48540,6.8125,-4.25,-0.75,0
48560,7.3125,-4.75,-1,0
48580,7.1875,-5.0625,-1.3125,0
48600,7.4375,-5.25,-0.625,0
48620,7.9375,-5.5,-0.25,0
48640,8.3125,-6.5,0.25,0
48660,8.9375,-6.625,0.25,0
48680,9.6875,-7.625,0.375,0
48700,8.625,-7.1875,0.5,0
48720,9.4375,-6.75,1.75,0
48740,5.8125,-7.875,0.4375,0
48760,4.75,-6.125,1.75,0
48780,4.3125,-5.1875,1.9375,0
48800,4.8125,-4.5625,1.3125,0
48820,5.125,-3.8125,1.25,0
48840,2.4375,-2.3125,0.1875,0
48860,-1.4375,-1.1875,0.0625,0
48880,-4.1875,-0.9375,-0.1875,0
48900,-4.875,-1.6875,-1.25,0
48920,-5.5,-2.875,-1.9375,0
48940,-6.9375,-3.6875,-1.8125,0
48960,-8.375,-5.1875,0.0625,0
48980,-9.4375,-6,-0.0625,0
49000,-10.4375,-4.5625,-2,0
49020,-11.1875,-4.9375,-2.125,0
49030,-11.25,-6.0625,-2,0
49050,-11.25,-6.5,0,0
49070,-9.5,-7.6875,0.8125,0
49090,-6.9375,-8.3125,-1.5,0
49110,-7.875,-7.6875,-2.25,0
49130,-9.25,-7.6875,-3.625,0
49150,-11.5,-8.5,-3.5625,0
49170,-17.3125,-8.9375,-0.5625,0
49190,-21.125,-9.625,0.8125,0
49210,-22.5625,-11.3125,1.5,0
49230,-20.8125,-12.1875,2.3125,0
49250,-18.3125,-12.25,2.5625,0
49270,-16.1875,-11.875,1.6875,0
49290,-16.75,-11.125,1.0625,0
49310,-19.875,-10.4375,1,0
49330,-20,-10.8125,0.125,0
49350,-18.4375,-12.3125,-0.875,0
49370,-15.6875,-14.375,-1.375,0
49390,-13.6875,-15.8125,-0.4375,0
49410,-13.8125,-15.4375,-0.5625,0
49430,-15.5,-14.0625,-0.8125,0
49450,-16,-12.6875,-0.875,0
49470,-15.4375,-12,-1.125,0
49490,-13.25,-12.25,-1.5625,0
49510,-7.875,-10.9375,-3.0625,0
49530,-3.9375,-8.9375,-4.5,0
49550,-2.8125,-6.0625,-4.25,0
49570,-2.4375,-2.75,-4.4375,0
49590,-1.8125,-1.375,-5.125,0
49610,0.125,-1.375,-5.1875,0
49630,1.6875,-1.9375,-4.6875,0
49650,1.4375,-2.25,-4.5,0
49670,-0.8125,-2.5625,-4.1875,0
49690,-2,-2.75,-4.1875,0
49710,-3,-2.9375,-3.9375,0
49730,-3.625,-3.8125,-4.25,0
49750,-3.5,-4.375,-4.5,0
49770,-2.875,-4.4375,-4.8125,0
49790,-2.5,-5.125,-5.1875,0
49810,-3,-5.625,-5.375,0
49830,-4,-5.4375,-5.3125,0
49850,-5.25,-5.6875,-5.4375,0
49870,-6.1875,-6.625,-5.1875,0
49890,-7,-7.9375,-5.0625,0
49910,-6.8125,-8.625,-5.4375,0
49930,-6.6875,-9.375,-4.5625,0
49950,-8.1875,-10.4375,-3.0625,0
49970,-9.8125,-11.375,-2.375,0
49990,-8.5625,-12.375,-2.375,0
50010,-9.625,-13.125,-2.5,0
50030,-10.4375,-13.4375,-2.9375,0
50050,-10.5,-14.6875,-3.3125,0
50070,-9.875,-15.25,-2.3125,0
50090,-9.875,-15.9375,-1.625,0
50110,-10,-16.5625,-1.625,0
50130,-9.1875,-17.3125,-0.625,0
50150,-8.5625,-18.0625,0.3125,0
50170,-8.625,-18.1875,1.5625,0
50190,-8.9375,-19.25,2.4375,0
50210,-8.625,-19.625,3,0
50230,-9.5,-20.9375,2.75,0
50250,-11.0625,-21.5,4.625,0
50270,-14.125,-20.875,7.75,0
50290,-16.375,-20.3125,9.4375,0
50310,-18.8125,-18.625,10.75,0
50330,-20.0625,-15.875,13.6875,0
50350,-24.25,-13.8125,15.6875,0
50370,-28.3125,-9.6875,14.8125,0
50390,-30.375,-8,15.0625,0
50410,-34.125,-11.125,19.875,0
50430,-37.8125,-16.125,27.375,0
50450,-41,-23.125,35.0625,0
50470,-44.875,-29.8125,40.125,0
50490,-44.25,-34.4375,40.25,0
50510,-42.625,-39.25,34.625,0
50530,-38.875,-41,30.0625,0
50550,-31.9375,-42.3125,24.5,0
50570,-26.875,-43.125,18.1875,0
50590,-20.375,-43.125,12.3125,0
50610,-17.8125,-41.1875,8.0625,0
50630,-15.8125,-38.125,4.75,0
50650,-14.9375,-34,1.8125,0
50670,-15.4375,-30.3125,0.0625,0
50690,-10.3125,-26.875,-2.25,0
50710,-6,-23.75,-2.0625,0
50730,-4.1875,-19.9375,-0.4375,0
50750,-2,-15.3125,-0.75,0
50770,-4.125,-11.75,-1.1875,0
50790,-5.125,-7.75,-0.0625,0
50810,-4,-5.4375,1,0
50830,0.1875,-2.6875,0.5625,0
50850,2.0625,-1.0625,1.125,0
50870,4.6875,1.1875,1.375,0
50890,6.375,3.875,0.6875,0
50910,8.25,6.375,1.125,0
50930,7.8125,9.0625,1.5,0
50950,7.6875,13.25,1.9375,0
50970,11.125,18.375,3.625,0
50990,13.375,22.0625,7.6875,0
51010,14.875,25.125,9.5625,0
51030,13.25,29.6875,9.875,0
51050,12.1875,32.4375,12.4375,0
51070,14.125,32.25,17.75,0
51090,17.75,27.75,14.9375,0
51110,20.75,21.875,8.1875,0
51130,27.5,14.125,7.0625,0
51150,29.75,6.9375,9.3125,0
51170,28.3125,4.375,13.625,0
51190,26.375,1.5625,16,0
51210,24,-2.375,19.4375,0
51230,21.9375,-5.625,23.1875,0
51250,22.8125,-8.5625,29.125,0
51270,21.625,-10.1875,36.75,0
51290,20.625,-10,43.6875,0
51310,23.25,-9.8125,46.375,0
51320,20.5625,-11.6875,50.4375,0
51340,11.875,-10.125,53.875,0
51360,0.875,-8,49.6875,0
51380,-15.0625,-7.5625,40.9375,0
51400,-27.4375,-9.3125,36.3125,0
51420,-34.6875,-13.4375,30.375,0
51440,-36.9375,-12.625,19.1875,0
51460,-42,-3.375,13.125,0
51480,-37.6875,1.5,3.75,0
51500,-18.125,0.3125,-10.75,0
51520,11.5625,-4.125,-17.875,0
51540,21.75,-4.5625,-24.5,0
51560,16.6875,2.8125,-38.4375,0
51580,12.25,5.1875,-50.8125,0
51600,15.625,0.1875,-50.125,0
51620,21.5,-1.0625,-46.75,0
51630,32.8125,-0.0625,-48.5625,0
51650,36.3125,4.375,-50.0625,0
51670,30.3125,10.3125,-51.1875,0
51690,24.9375,29.875,-46.25,0
51710,26.75,47.5625,-51.4375,0
51730,25.8125,60.875,-59.25,0
51750,19.6875,76.5625,-62,0
51770,23.8125,91.125,-65.125,0
51790,23.875,111.062,-70.6875,0
51810,22.5625,126.5,-72.9375,0
51830,24.8125,127.938,-80.0625,0
51850,30.5,110.5,-79.9375,0
51870,47.5625,81.9375,-87,0
51890,57.3125,56.6875,-96.125,0
51910,58.1875,34.125,-98.4375,0
51930,40.1875,14.25,-95.5,0
51950,-0.875,-1,-84,0
51970,-24.125,-19.375,-74.75,0
51990,-36.875,-36.1875,-71.75,0
52010,-32.1875,-52.5,-62.75,0
52030,-14.25,-66.375,-46.5625,0
52050,-2.625,-73.4375,-32.9375,0
52070,0.125,-75,-23.25,0
52090,-5.375,-72.5625,-10.3125,0
52110,-11.375,-66.1875,-1.125,0
52130,-16.875,-56.75,6.25,0
52150,-10.75,-48.25,9.5625,0
52170,11.75,-45.5625,11.875,0
52190,38,-49.25,22.1875,0
52210,58.625,-49.3125,37.625,0
52230,65.125,-47.6875,46.0625,0
52250,55.875,-40.4375,46.8125,0
52270,35.9375,-32.5,48,0
52290,16.75,-26.1875,48.5625,0
52310,1.5,-18.75,41,0
52330,12.25,-14.625,29.8125,0
52340,31.5625,-12.8125,3.5,0
52360,44.375,-13.1875,-19.25,0
52380,50.875,-6.875,-18.25,0
52400,41.625,-2.6875,-20.8125,0
52420,15.0625,1.875,-24.25,0
52440,-5.1875,4.9375,-22.8125,0
52460,-13.8125,4.1875,-25.75,0
52480,-9.5,6,-26.5625,0
52500,-6.875,8.6875,-27.0625,0
52520,-9.1875,8.75,-21.125,0
52540,-8.125,7,-12,0
52560,-9.6875,5.8125,-0.125,0
52580,-18.0625,7.6875,8.3125,0
52600,-30.625,9.375,16.9375,0
52620,-30.625,10.25,34.75,0
52640,-27.75,13.9375,58.25,0
52660,-22.875,21.25,76.125,0
52680,-17.0625,23.125,72.5,0
52700,10,22.1875,49.75,0
52720,33,23.6875,37.875,0
52740,47.25,28.75,48.625,0
52760,51.9375,34.75,64,0
52780,42.5625,43.625,65,0
52800,37.625,48.4375,59.3125,0
52820,39.9375,42.5625,56.5625,0
52840,36.125,35.8125,61.75,0
52860,37.5625,38.5625,60.8125,0
52880,25.3125,48.4375,58.75,0
52900,20.5625,51.5,58.125,0
52920,12.3125,45.6875,61,0
52940,1.375,40.5,68.125,0
52960,-9.6875,32.1875,72.8125,0
52980,-13.375,16.0625,67.375,0
53000,-14.4375,2.875,56.5625,0
53020,-14.75,-10.75,42.5,0
53040,-13.8125,-21.8125,18,0
53060,-6.125,-31.8125,-5.125,0
53080,-3.6875,-40.75,-9.9375,0
53100,-17.0625,-53.9375,-11.125,0
53120,-24.625,-67.625,-21.8125,0
53140,-14.6875,-73.25,-27.875,0
53160,3.125,-72.9375,-26.8125,0
53180,11.9375,-69.0625,-34.3125,0
53200,-3.0625,-61.5,-39.75,0
53220,-30.1875,-55.9375,-38.875,0
53240,-47.6875,-51.8125,-41.5625,0
53260,-61.25,-34,-40.1875,0
53280,-66.6875,-14.5,-48.75,0
53300,-74.8125,-0.4375,-57.1875,0
53320,-89.3125,9.9375,-50.3125,0
53340,-104.562,20.3125,-35.8125,0
53360,-122,32.3125,-26.75,0
53380,-125.438,42.9375,-20.75,0
53400,-115.125,48.75,-14.3125,0
53420,-103.625,52.875,-9.1875,0
53440,-97.1875,52.75,-5.4375,0
53460,-89.1875,47.875,-1.125,0
53480,-75.125,40.0625,6.75,0
53500,-52.3125,33.4375,12.6875,0
53520,-39.0625,31.9375,14.6875,0
53540,-32.8125,30.0625,16.125,0
53560,-31.9375,26.375,19.4375,0
53580,-27.6875,21,19.75,0
53600,-19.875,18,15.5,0
53620,-20.0625,15.9375,11.25,0
53640,-21,11.1875,10.75,0
53660,-18.0625,9.125,12.5625,0
53680,-17.9375,5.4375,11,0
53700,-15.25,0.6875,5.8125,0
53720,-13.875,-1.5625,0.75,0
53740,-13.625,-3.4375,2.75,0
53760,-11.9375,-5.4375,6.5,0
53780,-5.9375,-5.5,5.25,0
53800,-7,-5.6875,1.1875,0
53820,-3.75,-6.875,0.5625,0
53840,-4.3125,-7.6875,1.25,0
53860,-4.5625,-7.4375,3.0625,0
53880,-1.5,-7.5625,2.5625,0
53900,-5.875,-8.625,0.1875,0
53920,-6.8125,-8.875,-0.5625,0
53940,-10.25,-9.375,0.75,0
53960,-8,-10.0625,-0.625,0
53980,-0.875,-10.1875,-3.8125,0
54000,3.75,-10.375,-4.375,0
54020,7.3125,-11.4375,-3.8125,0
54040,6.6875,-11.6875,-3.875,0
54060,3.0625,-11.625,-3.8125,0
54080,1,-10.3125,-3.125,0
54100,3.125,-8.625,-1.4375,0
54120,2.125,-6.75,0.125,0
54140,2.3125,-5,-0.125,0
54160,-0.625,-4.25,-1.125,0
54180,-3.25,-4.5,0.1875,0
54200,-1.3125,-3.875,2.875,0
54220,1,-1.75,4.1875,0
54240,1.1875,-0.125,3.0625,0
54260,-0.9375,-0.375,2.6875,0
54280,-4.875,-0.375,1.875,0
54290,-2.75,0.5,0.75,0
54310,0.25,-0.125,1.5625,2000
54330,3.1875,-1.5625,1.1875,0
54350,5,-1.875,0.4375,0
54370,3.6875,-2.9375,-0.25,0
54390,4.375,-3.625,-0.375,0
54410,2.875,-2.875,0.5625,0
54430,0.375,-3.125,0.375,0
54450,0,-3.5,-0.1875,0
54470,-0.25,-5.125,0.25,0
54490,1.25,-5.5,1.0625,0
54510,2,-4.6875,0.9375,0
54530,0.6875,-5.0625,1.3125,0
54550,-0.75,-5.25,1.1875,0
54570,-0.75,-6.1875,0.25,0
54590,1.625,-7.8125,-0.1875,0
54610,3.625,-7.8125,0.125,0
54630,4.25,-7.625,1.0625,0
54650,2.3125,-8.3125,-0.5625,0
54670,0.3125,-8.375,-2.75,0
54690,1.0625,-8.5,-3.125,0
54710,0.8125,-8.125,-1.5625,0
54730,1.4375,-7.6875,0.375,0
54750,1.6875,-6.8125,-1.3125,0
54770,3.875,-6.1875,-2.0625,0
54790,4.125,-5.9375,-0.8125,0
54810,0.0625,-5.8125,0.375,0
54830,-7.3125,-5.3125,0.4375,0
54850,-9.375,-3.3125,-0.75,0
54870,-9.25,-2.375,-2.0625,0
54890,-13.9375,-2.4375,-5.25,0
54910,-17.25,-3.1875,-5.5625,0
54930,-17.5,1.6875,-0.875,0
54950,-12.5,7.25,1.625,0
54970,-6.25,8,1.625,0
54990,-1.6875,4.3125,-4.0625,0
55010,-3.875,0.8125,-6.1875,0
55030,-1.9375,1.6875,-0.8125,0
55050,3.8125,-0.375,-0.3125,0
55070,6.625,-1.875,-2.125,0
55090,4.9375,-3.1875,-1.5625,0
55110,0.875,-3.875,-0.75,0
55130,-1.3125,-5.0625,1.375,0
55150,1.375,-5.875,0.6875,0
55170,5.6875,-6.625,0.6875,0
55190,5.625,-5.6875,1.8125,0
55210,3.8125,-4.5,1.3125,0
55230,0.8125,-4.0625,-0.5,0
55250,-2.1875,-4.5,-3.3125,0
55270,1.125,-4.4375,-2.4375,0
55290,3.4375,-4.25,-1.1875,0
55310,7,-1.375,0.0625,0
55330,5.9375,0.5625,0.5625,0
55350,-0.0625,1.6875,-0.1875,0
55370,-4.5625,2.125,-0.125,0
55390,-2.9375,1.9375,-0.0625,0
55410,3.9375,2.8125,0.5625,0
55430,5.125,2.6875,0.75,0
55450,2.875,3.125,0,0
55470,-1.5,2.25,-0.1875,0
55490,-3.9375,1.0625,-0.25,0
55510,-4.5625,0.9375,1.25,0
55530,0.0625,0.625,1.375,0
55550,1.6875,0.125,-0.5,0
55570,1.5625,-0.6875,-0.375,0
55590,1.4375,-1.5625,0.5625,0
55610,1,-3.125,0,0
55630,2.4375,-5.1875,-1.1875,0
55650,1.8125,-7.875,-0.9375,0
55670,-1.4375,-11,0.6875,0
55690,-5.875,-12.75,2.125,0
55710,-6.875,-13.5625,2.875,0
55730,-5.5,-13.8125,2.9375,0
55750,-3.75,-14.1875,3.5625,0
55770,-4.375,-15.1875,4.125,0
55790,-3.75,-14.5625,2.5625,0
55810,-3.3125,-14.3125,2.6875,0
55830,-1.6875,-14.25,2.5625,0
55850,-0.625,-13.8125,2.375,0
55870,2.375,-13.25,0.4375,0
55890,4.125,-13.125,-0.9375,0
55910,1.9375,-12.4375,-0.625,0
55930,1.6875,-11.8125,-0.125,0
55950,5.875,-11.9375,-1.3125,0
55970,9.5625,-12.25,-2.75,0
55990,8.125,-11.8125,-2.5,0
56010,4.8125,-12.9375,-1.25,0
56030,5.5625,-13.375,-2.5,0
56050,5.5,-13.4375,-4.25,0
56070,6,-13.875,-3.8125,0
56090,7.1875,-15.625,-4.625,0
56110,8.125,-16.5625,-6.5,0
56130,7.375,-17.4375,-6,0
56150,5.8125,-17.5625,-5.25,0
56170,4.625,-16.875,-5.4375,0
56190,3.75,-16.8125,-5.375,0
56210,1.875,-17.875,-3.625,0
56230,0.375,-18.9375,-1.9375,0
56250,1.875,-18.0625,-0.8125,0
56270,3.8125,-16.5625,0,0
56290,8,-15.4375,-1.5625,0
56310,6.875,-16,-2.25,0
56330,6.5625,-17.375,-1.5,0
56350,7.0625,-17.625,-2.25,0
56370,8.8125,-16.6875,-4.9375,0
56390,12.0625,-15.125,-5.6875,0
56410,8.625,-14.5625,-6.25,0
56430,8.25,-14.125,-7.75,0
56450,8.625,-14.1875,-10.25,0
56470,9.625,-12.6875,-13.375,0
56490,9.5,-10.75,-13.6875,0
56510,9.625,-9.25,-13.0625,0
56530,10.9375,-8.375,-14.5625,0
56550,13.75,-6.75,-17.1875,0
56570,14.1875,-3.5625,-17.1875,0
56590,11.0625,-0.625,-16.8125,0
56610,11.8125,1.125,-19.75,0
56630,13.9375,1.8125,-22.25,0
56650,14.8125,2.375,-22.5,0
56670,12.8125,4.0625,-21.75,0
56690,9.6875,6.8125,-21,0
56710,7.25,7.75,-21.8125,0
56730,7.875,8.1875,-23.4375,0
56750,7.75,8.875,-23.3125,0
56770,3.625,8.4375,-21.375,0
56790,4.6875,9.125,-22,0
56810,5.8125,10,-24.125,0
56830,4.8125,11.3125,-24.125,0
56850,1,12.5625,-24.25,0
56870,1.9375,13.1875,-25.6875,0
56890,3.0625,13.125,-25.1875,0
56910,4.1875,13.1875,-25.3125,0
56930,5.3125,14,-26.625,0
56950,3.5625,14.6875,-27.5625,0
56970,1.5,14.75,-27.25,0
56990,1,14.9375,-27.9375,0
57010,1.8125,14.6875,-29.5625,0
57030,1.375,15.25,-30.125,0
57050,1.4375,16.375,-30.5,0
57070,0.375,16.75,-32.5625,0
57090,0.875,16.8125,-34,0
57110,2.4375,16.25,-35.0625,0
57130,4.25,15.5625,-36.6875,0
57150,3.5625,15.1875,-38.125,0
57170,2.875,15.5,-38.6875,0
57190,1.1875,15.1875,-39.125,0
57210,0.75,15.3125,-39.0625,0
57230,0.875,14.75,-38.0625,0
57250,-1.3125,15,-36.25,0
57270,-4.375,16.125,-34.4375,0
57290,-6.625,16.9375,-33.6875,0
57310,-6.9375,18.625,-36.1875,0
57330,-10.1875,22,-39.1875,0
57350,-12.25,22.375,-42.5625,0
57370,-5.4375,22.25,-45.875,0
57390,-3.8125,22.75,-44.3125,0
57410,-8.0625,25.375,-41.8125,0
57430,-11.4375,26.75,-40.1875,0
57450,-7.3125,26,-37.375,0
57470,-9.6875,26.875,-33.9375,0
57490,-9.625,28.0625,-31.0625,0
57510,-8.1875,27.9375,-26.5625,0
57530,-4.875,25.875,-24.5625,0
57550,-6.25,25.6875,-23.5,0
57570,-7.75,25.9375,-19.5625,0
57590,-8.25,24,-16.875,0
57600,-6,22.375,-15.8125,0
57620,-5.5,22,-14.1875,0
57640,-5.6875,21.375,-10.9375,0
57660,-6.6875,18.375,-7.1875,0
57680,-0.9375,15.4375,-4.9375,0
57700,1.5625,13.3125,-1.125,0
57720,0.3125,13.6875,2.0625,0
57740,-5.625,13.6875,4.3125,0
57760,-7.125,13,6.875,0
57780,-7.3125,13.6875,9.875,0
57800,-5.25,15.4375,12.0625,0
57820,-4.6875,17,13.375,0
57840,-3.0625,16.6875,14.5625,0
57860,-0.8125,16.6875,15.8125,0
57880,2.875,17.375,15.6875,0
57900,5.625,18.1875,14,0
57920,6.5625,17.0625,12.6875,0
57940,6,14.3125,11.625,0
57960,4.0625,11.4375,11,0
57980,6.5625,10.4375,12.75,0
58000,8.125,9.6875,12.3125,0
58020,6.8125,8.5625,12.5,0
58040,2.875,7.3125,14.8125,0
58060,-1.6875,6.75,14.5625,0
58080,-4.3125,6.375,14,0
58100,-5.8125,5.875,13.6875,0
58120,-3.1875,4.375,13.5,0
58140,-4.8125,2.6875,12.9375,0
58160,-4.5,1.9375,11.9375,0
58180,-4,0.875,10.875,0
58200,-4.1875,0.0625,10.3125,0
58220,-5.8125,-0.125,11,0
58240,-7.1875,-0.0625,11.4375,0
58260,-5.375,-0.25,10.875,0
58280,-3.125,-0.3125,11.3125,0
58300,-1.8125,-0.75,11.75,0
58320,-3.625,-1.5,12.8125,0
58340,-5.4375,-1.875,13.875,0
58360,-7.625,-1.8125,13.6875,0
58380,-9.125,-2,14.0625,0
58400,-9.625,-3.375,14.8125,0
58420,-9.9375,-4.4375,15.25,0
58440,-9.75,-4.9375,16.5625,0
58460,-10.625,-5.3125,16.3125,0
58480,-10,-6.3125,16.375,0
58500,-10.6875,-8.8125,17,0
58520,-12.9375,-11.8125,18.25,0
58540,-13.625,-13.8125,19.9375,0
58560,-14.75,-15.375,19.8125,0
58580,-15.5,-16.8125,18.6875,0
58600,-18.25,-17.375,18.25,0
58620,-16.8125,-17.75,18.9375,0
58640,-12.625,-18.4375,19.9375,0
58660,-8.0625,-19.375,18.5625,0
58680,-6.375,-19.8125,17,0
58700,-8.9375,-19.5625,17.4375,0
58720,-10.875,-19.375,17.6875,0
58740,-9.3125,-20.375,16.375,0
58760,-5.875,-21.5,15.3125,0
58780,-3.875,-22.25,14.9375,0
58800,-3.4375,-23,14.8125,0
58820,-2.9375,-23.1875,14.75,0
58860,-4.3125,-24.625,15.9375,0
58880,-12.25,-25.5625,17.0625,0
58900,-13.5625,-25.8125,17.6875,0
58950,-18.125,-28.75,16.625,0
58970,-18.9375,-30.8125,19,0
58990,-17.375,-32.5625,19.625,0
59010,-17.8125,-32.8125,18.5,0
59030,-16.375,-32.3125,16.8125,0
59050,-16.875,-31.875,15.375,0
59070,-16.9375,-31.5625,15.4375,0
59090,-16.9375,-32.5625,15.75,0
59110,-13.1875,-32.5,14.125,0
59130,-9.1875,-31.8125,12.25,0
59150,-5.9375,-31.0625,10.375,0
59170,-6,-31.125,10.5,0
59190,-5.625,-30.5,9.25,0
59210,-7.375,-30.6875,6.5,0
59230,-6.9375,-30,5.1875,0
59250,-6.5625,-30.875,5.375,0
59270,-6.875,-31.5625,5.375,0
59290,-6.5625,-32.1875,3.625,0
59310,-3.5,-31.1875,2,0
59330,-6.625,-31.625,1.4375,0
59350,-8.1875,-31.75,0,0
59370,-9.875,-31.8125,-2.0625,0
59390,-10.1875,-32.5625,-2,0
59410,-12.5625,-33.625,-1.25,0
59420,-6.875,-32.8125,-3.125,0
59440,-8.6875,-32.8125,-4.4375,0
59460,-9.1875,-32.25,-4.6875,0
59480,-8.1875,-32.25,-5.3125,0
59500,-9.4375,-31.5625,-6.875,0
59520,-9.375,-30.5625,-9.3125,0
59540,-5.0625,-29.3125,-11.1875,0
59560,-4.625,-28.1875,-11.9375,0
59580,-3.1875,-27.125,-12.5,0
59600,-3.375,-26,-14.0625,0
59620,-5.8125,-22.6875,-15,0
59640,-6.875,-20,-15.375,0
59660,-3.625,-18.0625,-17.375,0
59680,0.625,-15.9375,-20.4375,0
59700,5.1875,-13.3125,-19.4375,0
59720,4.75,-10.5625,-16.4375,0
59740,4.0625,-6.875,-16.75,0
59760,6.625,-4.5,-21.25,0
59780,4.875,-2.1875,-23.3125,0
59800,3.3125,-0.75,-20.6875,0
59820,0.75,1.3125,-19.25,0
59840,0,4,-20.75,0
59860,1.625,5.5,-21.9375,0
59880,4.6875,5.875,-23.4375,0
59900,2.9375,5.8125,-23.125,0
59920,0.0625,6.8125,-22,0
59940,2.8125,7.125,-22.9375,0
59960,4,7.25,-23.75,0
59980,3.1875,7.5,-23.5,0
60000,2.375,7.1875,-23.8125,0
60020,0.6875,8.25,-24.1875,0
60040,-1.1875,9.4375,-23.375,0
60060,-1.9375,8.4375,-23.375,0
60080,-0.5,7.8125,-24.1875,0
60100,1.75,8.875,-25.875,0
60120,1.5,9.4375,-27.125,0
60140,-0.75,9.375,-28.375,0
60160,-3.125,10.375,-29.8125,0
60180,-3.875,10.9375,-30.875,0
60200,-0.875,11.125,-31,0
60220,0.6875,11.9375,-31.25,0
60240,-1,13.375,-31.1875,0
60260,-3.625,15.25,-30.9375,0
60280,-3.75,16.625,-31.625,0
60300,-5.6875,18,-32.0625,0
60320,-5.875,18.6875,-31.875,0
60340,-4.125,18.6875,-31.75,0
60360,-4.375,19.3125,-31.6875,0
60380,-2.25,19.375,-31.0625,0
60400,-5.625,18.4375,-31.0625,0
60420,-9.5,18.5625,-31.1875,0
60440,-7.5,18,-31.0625,0
60460,-7.625,17.8125,-29.6875,0
60480,-6.375,17.1875,-29.25,0
60500,-7.6875,17.4375,-28.625,0
60520,-8.5,17,-27,0
60540,-6.125,16.5625,-26.3125,0
60560,-6.75,16.6875,-25.375,0
60580,-5.5,16.75,-25.5625,0
60600,-3.3125,16.8125,-26.3125,0
60620,-4.9375,17.125,-23.9375,0
60640,-3.125,16.6875,-23.375,0
60660,0.0625,15.8125,-24.4375,0
60680,1.1875,16.1875,-24.4375,0
60700,-2.3125,17.75,-22.5625,0
60720,-3.1875,18.3125,-22.75,0
60740,-2.0625,17.3125,-22.625,0
60760,-1.8125,18.125,-20.75,0
60780,-1.5,19.1875,-17.875,0
60800,-2.0625,19.1875,-15.1875,0
60820,-3.3125,19.3125,-13.6875,0
60840,-7.125,19.3125,-11.5625,0
60860,-5.9375,18.625,-9.5625,0
60880,-5.1875,17.375,-7.75,0
60900,-6.125,17.3125,-5.625,0
60920,-7.125,17.3125,-4.1875,0
60940,-9.5625,16.125,-1.875,0
60960,-5.5,14.875,1.375,0
60980,-2.75,13.6875,2.9375,0
61000,-3.8125,11.6875,2.625,0
61020,-5.1875,10.8125,2.625,0
61040,-6.75,10.25,5.1875,0
61060,-5.5,9.125,6.8125,0
61080,-5.9375,8.125,6.6875,0
61100,-6.5625,8.75,7.375,0
61120,-4,8.5625,7.375,0
61140,-1.0625,8.6875,7.75,0
61160,-0.9375,9.1875,8.9375,0
61180,-1.25,9.4375,9.625,0
61200,-4.5,8.375,11.8125,0
61220,-4.0625,6.875,13.125,0
61240,-0.8125,7.0625,11.875,0
61260,-4,7.6875,11.375,0
61280,-6.9375,8.125,11.75,0
61300,-8.6875,8.1875,13.0625,0
61320,-5.625,8,13.375,0
61340,-5.6875,9.3125,13.4375,0
61360,-7.75,10.125,14.25,0
61380,-6.875,10.4375,15.375,0
61400,-6.625,10.8125,17,0
61420,-10.5,11.0625,16.9375,0
61440,-11.1875,10.5625,16.1875,0
61460,-10.0625,10.5625,16.8125,0
61480,-8.9375,11.0625,18.3125,0
61500,-5.5,11.125,17.6875,0
61520,-4.9375,9.625,16.0625,0
61540,-5.3125,8.0625,15.625,0
61560,-4.6875,6.875,15.9375,0
61580,-3.6875,5.4375,15.9375,0
61600,-3.8125,3.1875,15.3125,0
61620,-3.1875,1.25,14.375,0
61640,-3.9375,-0.6875,14.4375,0
61660,-3.4375,-1.1875,14.75,0
61680,-5.25,-2.6875,15.125,0
61700,-8.75,-3.875,14.6875,0
61720,-10.9375,-4.75,16.375,0
61740,-12.1875,-6.1875,17.375,0
61760,-12.3125,-6.8125,16.875,0
61780,-10.8125,-7.6875,17.4375,0
61800,-9.4375,-8.375,18,0
61820,-8.9375,-8.875,18.1875,0
61840,-7.375,-8.0625,19,0
61860,-6.4375,-7,19.0625,0
61880,-8.4375,-6.5625,20.25,0
61900,-10.75,-7.5625,20.0625,0
61920,-10.375,-9.0625,20.5625,0
61940,-9.9375,-9.8125,19.6875,0
61960,-10.3125,-10.25,18.6875,0
61980,-12.6875,-11.6875,18.4375,0
62000,-12.9375,-13.625,17.0625,0
62020,-12.5,-15.3125,16.1875,0
62040,-11.8125,-16.375,15.8125,0
62060,-11.6875,-17.25,15.625,0
62080,-10.625,-18.375,15.125,0
62100,-11,-19.4375,13.875,0
62120,-11.25,-20,13.625,0
62140,-12.5625,-20.25,13.875,0
62160,-11.375,-19.3125,15.6875,0
62180,-11,-19.5,15.875,0
62200,-11.6875,-19.8125,14.125,0
62220,-13.8125,-20.0625,13.3125,0
62240,-13.25,-21.1875,13.875,0
62260,-10.0625,-22.0625,12.75,0
62280,-7.8125,-22.625,11.4375,0
62300,-8.375,-23.25,11.625,0
62320,-11.1875,-23.0625,11.6875,0
62340,-12.375,-22.9375,12.5,0
62360,-10.5625,-23.0625,13.375,0
62380,-9.4375,-23.5625,13.625,0
62400,-10.1875,-24.1875,12.875,0
62420,-10.6875,-23.75,11.5,0
62440,-13.5,-24.25,10.75,0
62460,-13.8125,-25.1875,10.5,0
62480,-13.1875,-26.75,9.3125,0
62500,-11.625,-27.5625,8.75,0
62520,-11.25,-27.875,7.75,0
62540,-13.3125,-28.75,6.4375,0
62560,-13.9375,-29.5,5.9375,0
62580,-13.75,-30.1875,5.25,0
62600,-11.375,-31.0625,4.25,0
62620,-8.75,-31.6875,2.5625,0
62640,-6.5,-32.5625,1.75,0
62660,-6.125,-33.75,1.3125,0
62680,-7.8125,-34.5625,-1.25,0
62700,-7.5625,-35.0625,-3.5625,0
62720,-7.5625,-35.75,-4.8125,0
62740,-9.875,-36.9375,-5.25,0
62760,-10.5,-35.9375,-6.1875,0
62770,-12.6875,-35.875,-7,0
62790,-10.625,-36.0625,-6.5,0
62810,-12.625,-36,-5.6875,0
62830,-14.125,-35.6875,-4.4375,0
62850,-16.6875,-34.875,-5.875,0
62870,-14.9375,-33.5625,-6.8125,0
62890,-14.9375,-33.25,-7.5,0
62910,-12.25,-33,-9.625,0
62930,-9.4375,-33.1875,-11.875,0
62950,-6.5,-33,-13.5,0
62970,-2.4375,-32.3125,-14.3125,0
62990,1.6875,-30.4375,-14.3125,0
63010,5.25,-28.9375,-14.3125,0
63030,4.8125,-27.125,-14.1875,0
63050,4.9375,-24.3125,-15.5,0
63070,1.875,-20,-16.8125,0
63090,1.0625,-17.1875,-18.875,0
63110,0.75,-16.0625,-18.625,0
63130,0,-15.5,-16.6875,0
63130,-1.1875,-13.9375,-16.9375,0
63150,-1,-11.1875,-18.4375,0
63170,-2.0625,-9.0625,-19.125,0
63190,-3.6875,-6.0625,-19.4375,0
63210,-6.3125,-3.625,-19.9375,0
63230,-5.5625,-0.5625,-20.1875,0
63250,-7.4375,1.5,-20.375,0
63270,-7.75,5.125,-20.4375,0
63290,-7.9375,8.75,-22.1875,0
63310,-6.9375,12.125,-24.5,0
63330,-8.4375,15.6875,-25.75,0
63350,-10.8125,17.25,-26.6875,0
63370,-9.3125,18.375,-28.6875,0
63390,-7.125,19.8125,-30.1875,0
63410,-4.375,22,-30.5,0
63430,-5.375,23.25,-30.625,0
63450,-8.6875,25.3125,-30.125,0
63470,-10.125,26.5,-30,0
63490,-10.1875,27.125,-30.875,0
63510,-12.0625,27.3125,-30.0625,0
63530,-10.125,27.75,-27.8125,0
63550,-9.8125,26.8125,-27,0
63570,-10.0625,25.1875,-28.625,0
63590,-8.4375,24.8125,-29.125,0
63610,-10.9375,24.3125,-29.375,0
63630,-13.25,24.0625,-30.625,0
63650,-13.1875,23.4375,-31.875,0
63670,-11.4375,22,-32.4375,0
63690,-8.3125,21.125,-32.625,0
63710,-7.3125,20.6875,-33.5625,0
63730,-6.375,22.375,-33.0625,0
63750,-7.375,22.9375,-30.4375,0
63770,-4.75,22.6875,-27.25,0
63790,-2.625,23.125,-25.9375,0
63810,0.9375,23.3125,-22.6875,0
63830,2,24.125,-18.9375,0
63850,3.3125,27.125,-16.9375,0
63870,0.0625,30.3125,-12.9375,0
63890,0,31.875,-8.625,0
63910,2.4375,31.875,-6.5625,0
63930,4.4375,32.5625,-6.0625,0
63950,5.3125,35.0625,-2.5,0
63970,2.1875,35.5,0.875,0
63990,4.0625,35.9375,2.25,0
64010,4.75,36.5,1.6875,0
64030,3.125,37.4375,2.5,0
64050,1.3125,36.5625,2.875,0
64070,2.8125,34,4.25,0
64090,8.875,31.4375,3.375,0
64110,12.6875,30.1875,2.1875,0
64130,8.25,29.375,1.6875,0
64150,-1.5625,27.875,0,0
64170,-2.125,26.0625,0.5625,0
64190,-2.875,23.125,3.75,0
64210,-3.3125,21.1875,6.5,0
64230,0.5625,19.875,7.5,0
64250,3.125,19.5,11.75,0
64270,3.375,19.4375,14.75,0
64290,3.4375,21.375,17.375,0
64310,-3.8125,22.0625,20.0625,0
64330,-9.3125,21.3125,21.5,0
64350,-3.3125,20.8125,20.125,0
64370,4.6875,19.625,17.3125,0
64390,6.5625,17.8125,14.9375,0
64410,3.125,17.6875,11.625,0
64430,0.75,17.3125,9.4375,0
64450,0.9375,16.125,8.625,0
64470,-0.75,13.125,8,0
64490,0.8125,10.5625,8.625,0
64510,4.1875,9,9.4375,0
64530,7,8.5625,9.4375,0
64550,3.3125,10.1875,9.1875,0
64570,-3.3125,11.4375,11.9375,0
64590,-7.5,9.375,15.625,0
64610,-1.0625,9.6875,17.1875,0
64630,4.4375,10.5625,18.9375,0
64650,1.3125,12.0625,19.75,0
64670,-7.8125,15.75,22.125,0
64680,-17.9375,16.5625,25.0625,0
64700,-20.5,17.1875,25.625,0
64720,-18.125,16.875,26.75,0
64740,-15.875,15.6875,28.4375,0
64760,-15.375,15.5,25.9375,0
64780,-17.5,13.875,24.0625,0
64800,-20.1875,9.4375,23.6875,0
64820,-19.125,5.0625,22.625,0
64840,-13.1875,1.5,19.875,0
64860,-10.4375,-1.5625,15.875,0
64880,-9.25,-4.8125,13.25,0
64900,-7.375,-7.8125,12.9375,0
64920,-8.3125,-10.125,13.25,0
64940,-7.625,-11.0625,12.6875,0
64960,-8.4375,-10.6875,12.0625,0
64980,-10.3125,-10.1875,12.3125,0
65000,-10.9375,-11,13.25,0
65020,-9.0625,-10.75,12.3125,0
65040,-6.4375,-10.4375,11.3125,0
65060,-7.5625,-9.375,10.75,0
65080,-11.25,-6.6875,12.4375,0
65100,-16,-4.125,14.5625,0
65120,-18.4375,-2.75,14.5,0
65140,-15.375,-2.6875,14.8125,0
65160,-12.625,-2.125,16.1875,0
65180,-12.0625,-2.875,14.8125,0
65200,-15.375,-3.8125,12.6875,0
65220,-16.3125,-5,11.1875,0
65240,-13.375,-7.5,10.5,0
65260,-8.8125,-10.125,10,0
65280,-5,-13.125,9.375,0
65300,-5.1875,-15.75,8.25,0
65320,-6.25,-17,8.1875,0
65340,-7.5,-17.875,8.4375,0
65360,-8.5,-19.5,8.5625,0
65380,-10.6875,-21.75,8.75,0
65400,-10.3125,-22.75,9.375,0
65420,-12.0625,-23.4375,11.5,0
65440,-14.875,-23.0625,12.8125,0
65460,-16,-21.4375,12.875,0
65480,-15.9375,-20.1875,13.625,0
65500,-13.3125,-20.1875,14.9375,0
65520,-10.875,-20.75,14.4375,0
65540,-11.1875,-20.625,12.375,0
65560,-12.6875,-20.75,10.8125,0
65580,-15.0625,-21,10.5,0
65600,-13.375,-21.8125,8.6875,0
65620,-10.625,-22.8125,7.9375,0
65640,-9.125,-24.6875,7.25,0
65660,-8.875,-25.125,6.125,0
65680,-7.9375,-24.875,5.9375,0
65700,-9.625,-25.125,4.9375,0
65720,-11.125,-26.75,3,0
65740,-10,-29.5625,1.75,0
65760,-6.8125,-31.875,0.0625,0
65780,-5.6875,-32.875,-1.6875,0
65800,-8.5625,-33.3125,-1.5,0
65820,-14.375,-33.875,-4,0
65840,-14.6875,-33.75,-5.8125,0
65860,-10.625,-35.0625,-6,0
65880,-8.5625,-35.1875,-5.3125,0
65900,-8.875,-35.8125,-7.9375,0
65920,-8.625,-35.5,-11.6875,0
65940,-7.8125,-35.8125,-11.6875,0
65960,-5.5625,-36.125,-11.25,0
65980,-2.6875,-36.3125,-12.6875,0
66000,1.1875,-35.9375,-14.75,0
66020,5.75,-35,-16.0625,0
66040,2.9375,-34.9375,-16.375,0
66060,-2,-34.25,-16.5625,0
66080,-4.0625,-34.1875,-16.375,0
66100,-3.25,-34.5,-15.75,0
66120,-1.625,-34.25,-15,0
66140,-2.0625,-33.625,-15.75,0
66160,-5.875,-33.375,-15.9375,0
66180,-7,-34.75,-15.5,0
66200,-4.0625,-34.1875,-16.25,0
66220,-1.25,-32.375,-16.375,0
66240,2.1875,-30.125,-16.8125,0
66260,-0.3125,-29.875,-18.5,0
66280,0.25,-30,-20.25,0
66300,0.1875,-29.4375,-21.8125,0
66320,1,-28.5,-21.4375,0
66340,2.3125,-26.25,-20.9375,0
66360,5.125,-26.25,-22,0
66380,3.8125,-26,-22.6875,0
66400,2.5,-24.125,-23.125,0
66420,1.8125,-21.125,-22.75,0
66440,5.875,-19.9375,-22.5625,0
66460,5.75,-20.0625,-22.625,0
66480,1.125,-18.9375,-23.25,0
66500,-1.875,-15.6875,-21.375,0
66520,-5.125,-14.4375,-19.75,0
66540,-6.4375,-14.3125,-20.8125,0
66560,-3.3125,-14.5,-22.5,0
66580,-3.4375,-12.6875,-21.9375,0
66600,-6.4375,-9.5,-18.8125,0
66620,-9.4375,-7.0625,-17.9375,0
66640,-9.9375,-5.8125,-18.4375,0
66660,-8.5,-4.75,-16.5,0
66680,-5.5,-4.625,-14.0625,0
66700,-1.75,-4.625,-12.6875,0
66720,-1.0625,-3.375,-13.6875,0
66740,-2.0625,-0.8125,-12.9375,0
66760,-4.5625,0.5625,-10.625,0
66780,-4.1875,0.625,-11.0625,0
66800,-2.375,0.75,-13.0625,0
66820,0.375,2,-13.375,2001
66840,0.75,2.8125,-11.8125,0
66860,4.1875,2.9375,-11.25,0
66880,3.3125,1.9375,-10.5,0
66900,4.0625,0.6875,-9.4375,0
66920,4.125,0.25,-9.375,0
66940,2.875,1.4375,-9.25,0
66960,-0.375,2,-6.75,0
66980,1.625,1.1875,-8.1875,0
67000,2.6875,0.0625,-10,0
67020,7.9375,-0.9375,-11.375,0
67040,8.875,-1.25,-9.375,0
67060,5.5,0.5,-5.75,0
67080,-0.25,1.1875,-4.3125,0
67100,-4.75,0.875,-2.75,0
67120,-6.9375,-0.4375,-1,0
67140,-8.3125,-4,3.1875,0
67160,-2.5625,-6.3125,7.75,0
67180,2.3125,-8.5625,11.4375,0
67200,5.625,-9.5625,9.75,0
67220,9.875,-9.375,5.5,0
67240,11.5,-6.8125,-0.8125,0
67260,13.875,-6.1875,-5.875,0
67280,25.8125,-6.375,-8.1875,0
67300,33.1875,-3.25,-10.1875,0
67320,35.5625,-1.6875,-16.75,0
67340,36.6875,-4.3125,-20,0
67360,42.9375,-3.3125,-19.8125,0
67380,46.5625,-2,-18.125,0
67400,52.75,-2.375,-17.625,0
67420,57.375,0.3125,-18.875,0
67440,56.4375,3.5625,-17.9375,0
67460,54.8125,7.8125,-11.75,0
67480,47.125,9.3125,-5.1875,0
67500,48.4375,13.0625,-2.9375,0
67520,55.9375,19.5,1.0625,0
67540,59.125,26,8.25,0
67560,59.625,36.4375,12.9375,0
67580,59.375,48.1875,15.875,0
67600,57.5625,57.875,17.625,0
67620,56.5,67.1875,22.75,0
67640,61.5625,77.0625,32.0625,0
67660,57.3125,86.75,35.5,0
67680,59.5,102.375,36.5,0
67700,59.75,114,41.375,0
67720,69.375,120.875,49.0625,0
67740,59.0625,128.062,53.6875,0
67760,50.875,141.812,43.5625,0
67780,51.5,152.688,40,0
67800,46,151,45.1875,0
67820,33.125,141.688,58.9375,0
67840,29.75,133.875,64.5625,0
67860,31.125,123.75,58.9375,0
67880,35.625,113.688,43.625,0
67900,37.375,105.625,28.125,0
67920,34.375,100.188,11.25,0
67940,21.875,95,-3.5625,0
67960,5.5,85.4375,-22.5,0
67980,-6.875,69.6875,-43.375,0
68000,-8.9375,52,-62.4375,0
68010,-9,33.1875,-76.625,0
68020,-9.875,13.5625,-90.5,0
68040,-11.4375,-8.5,-104.625,0
68060,-18,-30.0625,-114.562,0
68080,-28.125,-48.25,-121.312,0
68100,-32.75,-63.0625,-124,0
68120,-37.625,-77.125,-123.75,0
68140,-41.3125,-90.1875,-120.5,0
68160,-46.5625,-101,-112.688,0
68180,-49.25,-108.312,-103.625,0
68200,-51.1875,-112.562,-93.9375,0
68220,-50.375,-114.062,-83.9375,0
68240,-47.3125,-115.125,-72.125,0
68260,-45,-115.812,-59.4375,0
68280,-43.6875,-113.812,-47.75,0
68300,-43.125,-110.625,-38.8125,0
68320,-41.0625,-107.312,-31.5,0
68340,-37.5625,-103.875,-24.9375,0
68360,-33.5,-102.625,-18,0
68380,-26.9375,-102.25,-10.6875,0
68400,-15.6875,-101.75,-5.3125,0
68420,-6.625,-103.688,-0.5,0
68440,4,-104.375,5.125,0
68460,14.875,-103.625,12.1875,0
68480,24.5,-101.812,18.8125,0
68500,31.4375,-98.0625,27.0625,0
68520,41.4375,-93.5,36.1875,0
68540,54.6875,-87,45.75,0
68560,69,-80.5,56.75,0
68580,81.3125,-75,71.875,0
68600,95.25,-66.6875,88.5625,0
68620,107.312,-55.5,101.938,0
68640,117.188,-39.625,109.75,0
68660,122.812,-25.5625,117.812,0
68680,128.5,-10.5625,133.188,0
68700,129.75,4.125,152.5,0
68720,125.312,23.1875,154.5,0
68740,117.938,40.0625,144.688,0
68760,99.6875,50.5625,145.812,0
68780,76.3125,58.5,146.312,0
68800,63.75,64.3125,124.062,0
68820,49.125,61.375,91.3125,0
68840,24.75,56.5,70.375,0
68860,-4.625,63.9375,67.1875,0
68880,-20.1875,67,51.125,0
68900,-15.25,68.875,28.6875,0
68920,-11.9375,67.375,14.75,0
68940,-14.5625,65.75,13.125,0
68960,-36.3125,75.25,20.0625,0
68980,-24.9375,78.25,11.8125,0
69000,-21.25,76.25,-0.625,0
69020,-11.375,68.8125,-8.3125,0
69040,-9.3125,59.5,-6.1875,0
69060,-9.75,48.875,-2.375,0
69080,-2,34.9375,-10.5625,0
69100,7.0625,24.375,-18.875,0
69120,7,16.5,-21.1875,0
69140,3.4375,12.625,-21.8125,0
69160,-2.875,9.6875,-18.6875,0
69180,-4.625,6.25,-16.375,0
69200,-8,3.0625,-16.4375,0
69220,3.375,0.375,-18.75,0
69240,16.1875,-1.4375,-18.3125,0
69260,21.5,-3.3125,-14.3125,0
69280,19.125,-5.0625,-10.8125,0
69300,9.125,-6.5625,-9.4375,0
69320,-0.25,-6.9375,-5.5625,0
69340,-4.1875,-7.0625,0.125,0
69360,-5.5,-7.125,3.25,0
69380,-4.875,-6.75,4.9375,0
69400,-4.8125,-6.375,6.25,0
69420,-3.6875,-6.5625,6.3125,0
69440,-3.4375,-6.8125,6.125,0
69460,-2.25,-7.3125,5.0625,0
69480,0.625,-7,3.75,0
69500,7,-8.0625,1.25,0
69520,9.6875,-9.4375,-0.4375,0
69540,7.625,-9.25,-1.25,0
69560,4.0625,-8.8125,-2.25,0
69580,3.8125,-10.0625,-3.625,0
69600,6.8125,-11.6875,-5.1875,0
69620,10.1875,-10.1875,-5.25,0
69640,10.125,-9.1875,-1.625,0
69660,5.8125,-7.3125,-2.625,0
69680,2.5,-5.9375,-5.0625,0
69700,-3.1875,-6.4375,-3.25,2000
69720,-3.9375,-6.3125,-1.5,0
69740,-0.25,-5.75,-1.75,0
69760,1.1875,-7,-2,0
69780,3.75,-8.3125,-1.4375,0
69800,0.375,-8.75,0.5,0
69820,-1.3125,-9.1875,0.9375,0
69840,-1.75,-10.5,0.625,0
69860,-2.5625,-9.9375,0.375,0
69880,-2.8125,-10.5625,0.25,0
69900,-2.0625,-12.125,-0.1875,0
69920,2.375,-12.75,-2.0625,0
69940,5.0625,-13.875,-4.375,0
69950,4.625,-15.125,-3.125,0
69970,4.125,-16.625,-2.6875,0
69990,3.625,-17.125,-6.625,0
70010,3,-17.375,-7.5625,0
70030,2.6875,-18.75,-5.375,0
70050,2.1875,-19.6875,-6,0
70070,2.375,-21.0625,-8.75,0
70090,2.3125,-21.875,-9.1875,0
70110,2.4375,-22.25,-8.1875,0
70130,1.8125,-22.1875,-7.1875,0
70150,1,-23.1875,-5.375,0
70170,0.625,-24.5,-5.5625,0
70190,0.3125,-23.1875,-4.5625,0
70210,0.3125,-23.375,-3.5,0
70230,-0.875,-24.1875,-3.5,0
70250,-0.1875,-24.8125,-3.625,0
70270,-0.9375,-25.75,-3.4375,0
70290,-0.75,-27.5,-4,0
70310,0,-27.5,-4.8125,0
70330,0.125,-26,-4.625,0
70350,2.125,-25.6875,-5.125,0
70370,3.25,-26,-6.25,0
70390,-0.1875,-26.5625,-6.6875,0
70410,-1,-24.875,-7.5625,0
70430,1.125,-23.4375,-9.4375,0
70450,3.25,-23.1875,-11.0625,0
70470,3.9375,-22.75,-11.9375,0
70490,2.0625,-21.5,-12.0625,0
70510,0.125,-19.1875,-12.625,0
70530,1.1875,-17.9375,-15.5,0
70550,2.3125,-16.375,-18.4375,0
70570,0.8125,-14.1875,-19.875,0
70590,-0.9375,-11.6875,-19.3125,0
70610,-2,-9.6875,-19.9375,0
70630,-2.4375,-8.1875,-21.0625,0
70650,-0.4375,-6.3125,-22.125,0
70670,-0.3125,-4.125,-23.4375,0
70690,-1.9375,-1.25,-24.4375,0
70710,-4.625,1.9375,-24.625,0
70730,-7.6875,4,-23.75,0
70750,-5.625,4.5625,-26.3125,0
70770,-4.9375,5.6875,-28.375,0
70790,-5.625,8.0625,-28.5,0
70810,-7.875,10.375,-26.75,0
70830,-9,11.75,-25.4375,0
70850,-11.5,13.8125,-24.5,0
70870,-11.8125,14.9375,-23.25,0
70890,-10.375,17.9375,-24.3125,0
70910,-15.1875,22.5625,-24.4375,0
70930,-16.4375,24.8125,-24.1875,0
70950,-13.125,23.8125,-26.4375,0
70970,-8.75,23.1875,-28.9375,0
70990,-7.4375,23.4375,-30,0
71010,-10.1875,24,-30.875,0
71030,-10.6875,24,-32.1875,0
71050,-11.6875,23.625,-31.75,0
71070,-10.0625,22.375,-30.875,0
71090,-9.75,22,-32.0625,0
71110,-7.75,23.4375,-33.9375,0
71130,-7.125,24.3125,-33.875,0
71150,-10.5625,25.25,-32.1875,0
71170,-11.875,24.9375,-32.6875,0
71190,-11.25,25.625,-33.6875,0
71210,-8.875,26.0625,-34.5625,0
71230,-10.3125,27.1875,-34.4375,0
71250,-11.5,29.375,-33.375,0
71270,-14.1875,31.3125,-33,0
71290,-13.125,32.125,-33.75,0
71310,-10.125,31.9375,-35.3125,0
71330,-10.875,32.8125,-35.375,0
71350,-10.875,32.875,-32.375,0
71370,-15.1875,31.75,-29.9375,0
71390,-16.375,31.5625,-30.75,0
71410,-15.4375,30.8125,-30.5625,0
71430,-14.0625,29.9375,-28.0625,0
71450,-14.6875,29.1875,-24.9375,0
71470,-17.125,28.8125,-22.8125,0
71490,-18.75,27.625,-19.375,0
71510,-17.8125,26.6875,-17.5,0
71530,-13.125,24.75,-18.375,0
71550,-9.25,22.875,-16.5625,0
71570,-7.9375,21.375,-13.6875,0
71590,-9.25,21.3125,-14.75,0
71610,-9.75,23.5625,-14.6875,0
71630,-11.4375,24.625,-12.5625,0
71650,-10.375,24.875,-11.3125,0
71670,-9.625,26.5,-10.25,0
71690,-8.6875,27.25,-9.875,0
71710,-10.0625,27.1875,-10.3125,0
71730,-12,27.6875,-10.625,0
71750,-8.625,28.1875,-8.6875,0
71770,-3.75,27.8125,-5.875,0
71790,0.5,27.5625,-4.625,0
71810,1,27.8125,-3.5625,0
71830,-3.75,29.6875,-0.9375,0
71850,-8.25,29.3125,0.75,0
71870,-6.3125,26.8125,-0.625,0
71890,-6.0625,26.0625,0.375,0
71910,-12.4375,26.25,1.625,0
71930,-7.8125,24.875,1.5,0
71950,-5.8125,22.125,4,0
71970,-5.75,18.875,6,0
71990,-4.0625,17.125,5.875,0
72010,-3.5,15.1875,6.3125,0
72030,-5.1875,13.375,7.4375,0
72050,-5.875,10.3125,7.75,0
72070,-5.3125,7.25,8.5625,0
72090,-3.375,3.9375,10.5625,0
72110,-4.8125,1.5,12.1875,0
72130,-7.375,1.0625,14,0
72150,-5.4375,0.6875,15.1875,0
72170,-0.3125,0.375,15.25,0
72190,-5.5,-0.6875,16.4375,0
72210,-1.4375,1.125,18.3125,0
72230,-0.375,2.5,20.1875,0
72250,-5.4375,3.125,20.0625,0
72270,-7.375,5.25,21.4375,0
72290,-9.875,5.4375,23.75,0
72310,-3.0625,6.25,22.9375,0
72330,-1.6875,8.5,21.5,0
72350,-3.375,9.0625,20.9375,0
72370,-5.4375,8,19.375,0
72390,-4.9375,7.6875,17.8125,0
72410,-0.5625,7.0625,17.1875,0
72430,-0.4375,6.4375,15.875,0
72450,-1.6875,4.6875,14.6875,0
72470,-2.9375,4.375,16.1875,0
72490,-3.125,3.9375,18.5625,0
72510,-3.625,3,21.3125,0
72530,-7,1,22.1875,0
72550,-8.625,0,21.5,0
72570,-4.5,-0.8125,22.125,0
72590,-5.0625,-1.75,21.4375,0
72610,-6.6875,-3.5625,20.3125,0
72630,-9.5,-6.5,17.8125,0
72650,-7.8125,-8.5625,17.3125,0
72670,-6.3125,-10.0625,18.1875,0
72690,-7.625,-11.375,17.875,0
72710,-11.3125,-12.3125,17.75,0
72730,-14.6875,-13.625,18.625,0
72750,-13.0625,-15.125,18.75,0
72770,-10.1875,-15.25,20.125,0
72790,-9.4375,-14.8125,20.5625,0
72810,-10.1875,-15,19.375,0
72830,-12.3125,-15.4375,19.6875,0
72850,-11.8125,-15.6875,20.1875,0
72870,-9,-16.0625,20.75,0
72890,-7.0625,-16.5,20.75,0
72910,-9.75,-17.125,20.4375,0
72930,-12.6875,-17,21.875,0
72950,-13,-16.625,21.75,0
72970,-11.1875,-15.375,21.9375,0
72990,-11.6875,-15.1875,23.125,0
73010,-13.375,-15.3125,22.875,0
73030,-12.625,-14.875,20.8125,0
73050,-8.0625,-13.5625,20.375,0
73070,-6.125,-12.9375,20.1875,0
73090,-8.1875,-13.25,18.25,0
73110,-7.9375,-13.8125,16.0625,0
73130,-3.8125,-14.6875,13.9375,0
73150,1.125,-15.1875,12.875,0
73170,-0.375,-16.9375,11.1875,0
73190,-3.3125,-17.875,10.0625,0
73210,-5.8125,-18.6875,9.875,0
73230,-10,-20,10.3125,0
73250,-9.9375,-20.1875,10.375,0
73270,-10.1875,-20.6875,8.9375,0
73280,-9.6875,-21.5,8.125,0
73300,-11.75,-23.125,8,0
73320,-14.5,-23.5625,6.875,0
73340,-16.6875,-23.5625,7.125,0
73360,-13.625,-23.625,6.5625,0
73380,-12.5,-24.3125,5.3125,0
73400,-11.8125,-25.4375,4.0625,0
73420,-13.75,-26.5625,3,0
73440,-15.3125,-27.9375,4.6875,0
73460,-18.6875,-28.375,6.875,0
73480,-17.375,-28.25,6.875,0
73500,-19,-28.3125,5.5,0
73520,-18.3125,-29.1875,4.25,0
73540,-17.25,-30.9375,2.8125,0
73560,-13.9375,-32.0625,2.25,0
73580,-11.9375,-33.0625,1.6875,0
73600,-10.0625,-34.25,-0.3125,0
73620,-8.0625,-35.4375,-1.3125,0
73640,-7.3125,-35.75,-1.125,0
73660,-10.0625,-35.25,-0.0625,0
73680,-13.4375,-35.5625,0.0625,0
73700,-13.25,-36.875,-0.6875,0
73720,-8.6875,-37,-1.625,0
73740,-8.1875,-36.875,-2.125,0
73760,-10.5,-36.25,-1.4375,0
73780,-8.4375,-35.875,-3.5625,0
73800,-5.8125,-35.9375,-6.375,0
73820,-0.9375,-36.5625,-6.8125,0
73840,-2.6875,-36.4375,-4.6875,0
73860,-3.875,-35,-3.3125,0
73880,-2.8125,-33.5625,-3.625,0
73900,-0.9375,-32.875,-5.4375,0
73920,-2.4375,-31.8125,-4.6875,0
73940,-2.125,-31,-5.25,0
73960,-3.25,-30.125,-6,0
73980,-4,-29.875,-6.875,0
74000,-2.3125,-30.375,-8.75,0
74020,-0.4375,-30.4375,-10.3125,0
74040,2.25,-30.75,-11.9375,0
74060,1.625,-29.9375,-12.875,0
74080,-2.375,-29.875,-12.1875,0
74100,-2.375,-28.625,-12.3125,0
74120,-0.875,-26.9375,-13.875,0
74140,2.3125,-24.75,-14.625,0
74160,-3.8125,-24.1875,-13.6875,0
74180,-5.125,-22.625,-15.25,0
74200,-1.875,-21.25,-17.5,0
74220,3,-20.5,-19.5625,0
74240,1.375,-20.3125,-17.625,0
74260,4.875,-19.375,-16.625,0
74280,5.25,-17.5625,-19.6875,0
74300,1.8125,-14.5625,-20.3125,0
74320,-1.75,-13.875,-18.9375,0
74340,-3.9375,-12.9375,-18.75,0
74360,-4.25,-11.3125,-21,0
74380,-6.875,-9.6875,-20.75,0
74400,-2.75,-8.375,-21.625,0
74420,-3,-6.5625,-22.625,0
74440,-2.1875,-4.5625,-24.1875,0
74460,-6.9375,-2.5,-24.75,0
74480,-12.875,-1,-24.9375,0
74500,-11.9375,1,-25.25,0
74520,-6,3.6875,-27.25,0
74540,-3.8125,6.4375,-30.0625,0
74560,-11.5625,7.1875,-29.375,0
74580,-13.375,7.75,-28.5,0
74600,-10.25,9.625,-30.6875,0
74620,-9.0625,11.25,-33.6875,0
74640,-9.5625,11.3125,-33.75,0
74660,-9.625,11.6875,-34.1875,0
74680,-8.0625,13.4375,-35.375,0
74700,-11.8125,15.875,-33.75,0
74720,-11.5,17.8125,-32.5,0
74740,-10,17.5625,-33.3125,0
74760,-9,17.25,-35,0
74780,-8.625,18.25,-34.3125,0
74800,-12.9375,19.1875,-31.5625,0
74820,-15,20.625,-29.5,0
74840,-12.9375,20.3125,-31,0
74860,-9.5,20.375,-32.3125,0
74880,-10.0625,21.1875,-31.625,0
74900,-11.75,21.4375,-30.125,0
74920,-15.4375,21.875,-30,0
74940,-12.9375,21.8125,-31.6875,0
74950,-13.8125,22.3125,-30.1875,0
74980,-13.5625,22.8125,-27.75,0
75000,-12.8125,22.75,-27.3125,0
75020,-9.6875,22.3125,-26.625,0
75040,-8.375,22.5,-24.625,0
75060,-8.5,23.75,-23.0625,0
75080,-8.625,24.9375,-21.3125,0
75100,-8.0625,24.5625,-20.625,0
75120,-6.6875,23.875,-20.375,0
75140,-4.5625,22.125,-20.75,0
75160,-1,22.1875,-22.25,0
75180,-1.5625,22.1875,-22.5,0
75200,-5.5,22.875,-23.25,0
75210,-7.875,23,-22.375,0
75230,-6.1875,22.625,-22.125,0
75250,-4.6875,22.4375,-21.875,0
75270,-4.25,23.3125,-21.0625,0
75290,-5.9375,23.3125,-19.75,0
75310,-4.375,23.375,-19.25,0
75330,-4,23.875,-18.0625,0
75350,-3.6875,24.625,-16.625,0
75370,-2.5625,25.0625,-14,0
75390,-0.4375,24.6875,-12.875,0
75410,1.9375,24.25,-11.5625,0
75430,2.4375,24.3125,-10.6875,0
75450,-3,26.625,-7.125,0
75470,-6.5625,26.5,-4.0625,0
75490,-0.1875,25.6875,-3,0
75510,7.5625,26.125,-0.8125,0
75530,10.625,27.4375,3.25,0
75550,7.25,29.0625,9.8125,0
75570,5.125,28.4375,11.0625,0
75590,5.0625,28.375,10.5625,0
75610,2,27.875,12.875,0
75630,-1.125,26.9375,16.3125,0
75650,-7.75,23.9375,17.375,0
75670,-4.3125,21.4375,17.9375,0
75690,-3.375,20.0625,19.0625,0
75710,-6.125,17.3125,20.375,0
75730,-5.3125,14.75,20.9375,0
75750,-4.8125,13.5625,21.25,0
75770,-5.9375,12.4375,22.9375,0
75790,-6.9375,10.375,22.875,0
75810,-3.0625,9.3125,20.3125,0
75830,-2.75,9.25,20.9375,0
75850,-4.6875,10.1875,21.875,0
75870,-7.625,11.625,22.1875,0
75890,-7.6875,11.1875,23.1875,0
75910,-6.3125,9.9375,23.625,0
75930,-4.125,9.5,22.5625,0
75950,-5.875,9.625,21.4375,0
75970,-8.875,9.375,20.125,0
75990,-10.0625,9.375,20.9375,0
76010,-10.25,7.8125,21.125,0
76030,-13.5625,5.9375,20.0625,0
76050,-24,2.125,18.25,0
76070,-19.3125,1.0625,14.9375,0
76090,-15.625,-0.4375,17.125,0
76110,-12.375,-1.1875,19.9375,0
76130,-10.375,-2.125,20.5,0
76150,-5.5625,-3.375,19.8125,0
76170,-1.8125,-3.6875,19.3125,0
76190,-2.5,-5.0625,19.5,0
76210,3.5,-5.3125,17.75,0
76230,5.5625,-7.75,16.6875,0
76250,3.6875,-7.5625,17.625,0
76270,2.125,-6.25,18.3125,0
76290,-2.3125,-7.1875,18.25,0
76310,-1.875,-8.0625,19.125,0
76330,1.3125,-8.3125,20.4375,0
76350,6.25,-7.25,21.1875,0
76370,5.875,-6.4375,19.6875,0
76390,3.875,-7.25,18.8125,0
76410,0.75,-8.5,19.5,0
76430,0.875,-8.75,20.8125,0
76450,4.375,-9.375,21.5625,0
76470,7.0625,-10.4375,20.75,0
76490,4.75,-11.5625,19.125,0
76510,1.8125,-12.625,18.3125,0
76530,1.125,-14.625,17.875,0
76550,0.5625,-16.375,16.375,0
76570,-1.5625,-17.9375,15.4375,0
76590,-2.6875,-19.75,15.125,0
76610,-2.9375,-21.875,16.0625,0
76630,-2.9375,-24.75,16.1875,0
76650,-3.625,-26.9375,14.125,0
76670,-6.75,-28.1875,12.125,0
76690,-9.125,-28.5,12.75,0
76710,-8.4375,-30.1875,12.5625,0
76730,-7.8125,-31.6875,13.125,0
76750,-6.6875,-32.625,12.625,0
76770,-8,-33.125,10.9375,0
76790,-11.0625,-33.0625,11.3125,0
76810,-12.1875,-33.375,13.125,0
76830,-10.125,-35.375,11.8125,0
76850,-9.25,-36.4375,11.75,0
76870,-13.375,-36.625,12.25,0
76890,-16.1875,-36.75,10.8125,0
76910,-16.875,-36.1875,11,0
76930,-17.75,-37.125,10.9375,0
76950,-19.3125,-37.625,10.8125,0
76970,-21.0625,-38.625,9.375,0
76990,-24.875,-37.6875,6.8125,0
77010,-25.4375,-38.25,6.4375,0
77030,-23.6875,-35.5625,5.125,0
77050,-22.75,-34.4375,3.25,0
77070,-22.0625,-34.8125,0.1875,0
77090,-17.8125,-34.75,-2.8125,0
77110,-13.875,-33.3125,-3.375,0
77130,-9.8125,-32.875,-4.9375,0
77150,-7.9375,-33.375,-7.5625,0
77170,-7.3125,-33.375,-8.8125,0
77190,-8.4375,-32.9375,-8.5,0
77210,-8.375,-32.6875,-8.3125,0
77230,-8.375,-33,-8.6875,0
77250,-7.4375,-32,-9.625,0
77270,-6.3125,-30.8125,-9.8125,0
77290,-5.125,-30.9375,-10.25,0
77310,-5.25,-31.8125,-11.625,0
77330,-3.8125,-30.9375,-13.125,0
77350,-4.375,-28.8125,-13.0625,0
77370,-3.375,-27.875,-14,0
77390,-2.875,-28.5,-15.5625,0
77410,-2.9375,-29.25,-18.375,0
77430,-0.75,-26.6875,-19.75,0
77450,-2.375,-23.6875,-17.75,0
77470,-3.3125,-21.8125,-15.8125,0
77490,-3.375,-19.9375,-18.875,0
77510,-1.5625,-18.75,-21.375,0
77530,-2.0625,-17.1875,-20.75,0
77550,-4.0625,-15.0625,-18.6875,0
77570,-6,-12.0625,-17.125,0
77590,0.75,-11.625,-20.75,0
77610,5.4375,-11.5625,-25.1875,0
77630,0,-10.8125,-25.6875,0
77650,-6.125,-7.3125,-24.0625,0
77670,-9.625,-5.375,-23.9375,0
77690,-4.5,-5.9375,-26.75,0
77710,0.0625,-6.4375,-29.6875,0
77730,1.375,-5,-29.125,0
77750,-4.6875,-1.875,-25.625,0
77770,-10.3125,1.4375,-23.5,0
77790,-8.9375,3.3125,-25.875,0
77810,-12.3125,3.875,-26.125,0
77830,-6.4375,4.6875,-26.75,0
77850,-6.3125,6.25,-27.375,0
77870,-7.4375,8.875,-26.75,0
77890,-9,10.375,-27.625,0
77910,-12.5,11.9375,-27.5,0
77930,-11.3125,13.4375,-27.75,0
77950,-12.5,15.4375,-28.125,0
77970,-11.625,17.4375,-27.125,0
77990,-10.9375,18.875,-25.625,0
78010,-10.75,20.0625,-26.25,0
78030,-14.75,21.6875,-26.75,0
78050,-16.4375,24.5,-25.1875,0
78070,-16.1875,25.625,-23.625,0
78090,-11.1875,26.8125,-25.4375,0
78110,-7.9375,27.3125,-26.625,0
78130,-8.625,27.5,-28.25,0
78150,-11.5625,28.8125,-28.3125,0
78170,-15.125,30.1875,-26.25,0
78190,-14.125,30.375,-26.5625,0
78210,-13.25,30.1875,-25.6875,0
78230,-8.9375,29.8125,-24.8125,0
78250,-6.5625,28.875,-24.3125,0
78270,-5.6875,29.6875,-23.625,0
78290,-7.4375,31.4375,-21.5,0
78310,-8.5,31.5625,-19.75,0
78330,-7.1875,30.6875,-20.8125,0
78350,-4.3125,30.5625,-22.875,0
78370,-2.5,30.0625,-20.75,0
78390,-3.4375,28.8125,-19.875,0
78410,-3.6875,28.9375,-18.625,0
78430,-2.0625,28.1875,-16.6875,0
78450,-2.6875,29.125,-14.375,0
78470,-2.6875,30.1875,-11.125,0
78490,-2.0625,31.875,-5,0
78510,-2.8125,31.9375,-1.0625,0
78530,-2.375,32.1875,1.8125,0
78540,0.8125,32.5625,3.8125,0
78560,3.4375,35.375,5.75,0
78580,4.375,37.8125,8.5625,0
78600,2.5625,38.3125,11.875,0
78620,-2.375,38,12.0625,0
78640,-3.1875,38.875,11.625,0
78660,-1.6875,39.125,14.125,0
78680,2.125,39.75,15.4375,0
78700,-1.1875,39.3125,15.0625,0
78720,-10.6875,40.3125,17,0
78740,-15.1875,40.375,22.75,0
78760,-19.5625,36.875,26.4375,0
78780,-12.4375,34.125,25,0
78800,-9.9375,32.3125,23.125,0
78820,-9.375,33.5,25.125,0
78840,-14.5625,32.4375,26.4375,0
78860,-16.0625,30.125,27.25,0
78880,-15,27.9375,24.8125,0
78900,-12.5,27.9375,23.5,0
78920,-13.375,27.0625,25.0625,0
78940,-13.5625,23.3125,26.125,0
78960,-10.375,18.6875,22.25,0
78980,-11.125,16.625,19.8125,0
79000,-13.3125,16.5,21.75,0
79020,-17.4375,15.3125,21.8125,0
79040,-20.4375,14.6875,21.8125,0
79060,-22.0625,14.625,22.125,0
79080,-20.6875,15.75,22.6875,0
79100,-19.0625,15.6875,24.5,0
79120,-18.875,14.9375,27.875,0
79140,-20.75,14.4375,32.4375,0
79160,-20.25,13,33.125,0
79180,-18.5,11.3125,27.6875,0
79200,-18.125,8.875,23.0625,0
79220,-20.8125,5.875,18.4375,0
79240,-19.625,2.1875,13.4375,0
79260,-17.8125,-0.6875,11.4375,0
79280,-18.1875,-2.5625,12.125,0
79300,-21.625,-2.9375,14.0625,0
79320,-23.6875,-0.5625,16.3125,0
79340,-26.375,0.1875,17.875,0
79360,-26,-0.0625,18.75,0
79380,-23.3125,-0.1875,18.125,0
79400,-24.0625,-1,19.1875,0
79420,-18.4375,-1.875,20.625,0
79440,-13.1875,-2.625,19.625,0
79460,-13.8125,-1.75,14.625,0
79480,-15,-1.5,12.875,0
79500,-12.6875,-3.25,12.3125,0
79520,-11.0625,-6.0625,10.75,0
79540,-11.1875,-9.4375,7.5625,0
79560,-12.0625,-10.4375,7.875,0
79580,-13,-11.0625,10.125,0
79600,-14.0625,-11.8125,9.75,0
79620,-15,-12.8125,8.75,0
79640,-14,-13.4375,7.9375,0
79660,-10.6875,-14.0625,6.875,0
79680,-10.5,-15.625,7.0625,0
79700,-11.625,-16.75,9,0
79720,-11.25,-18.3125,8.375,0
79740,-11.25,-19.5,7.3125,0
79760,-12.9375,-19.75,7.0625,0
79780,-16,-20.4375,7.375,0
79800,-21,-21.8125,8.125,0
79820,-23.6875,-22.8125,7.8125,0
79840,-22.5,-24.3125,6.125,0
79860,-18.3125,-23.75,7.0625,0
79880,-17.6875,-23.625,8.1875,0
79900,-19.125,-24.625,8.5625,0
79920,-21.5,-24.875,6.25,0
79940,-21.75,-25.375,7.125,0
79960,-16.75,-25.8125,6.75,0
79980,-14.3125,-26.375,5,0
80000,-15,-26.4375,5.75,0
80020,-16.5,-27.5625,3.3125,0
80040,-13.8125,-28.0625,-0.4375,0
80060,-10,-30.125,-1.375,0
80080,-6.6875,-32.5,-3.25,0
80100,-6.5625,-33.9375,-5.3125,0
80120,-6.9375,-34.5625,-5.375,0
80140,-9.25,-34.9375,-6.0625,0
80160,-11.0625,-35.375,-7.125,0
80180,-14.8125,-36.0625,-6.3125,0
80200,-16.4375,-36.875,-4.5625,0
80220,-13.125,-38,-4.8125,0
80240,-12.4375,-39.3125,-5.3125,0
80260,-14,-40.5,-6.4375,0
80280,-14.75,-39.3125,-8.6875,0
80300,-12.375,-40.3125,-11.4375,0
80320,-8.0625,-43.125,-14.8125,0
80340,-3.5,-45.4375,-19,0
80360,-2,-46.125,-19.4375,0
80380,-0.6875,-46.4375,-18.6875,0
80400,2.625,-45.75,-21.375,0
80420,5,-45.8125,-24.125,0
80440,3.75,-44.8125,-22.125,0
80460,-0.8125,-44.4375,-20.75,0
80480,2.6875,-44.1875,-22.3125,0
80490,2.875,-42.5625,-22.75,0
80510,-0.5625,-39.375,-20.5625,0
80530,-4.0625,-38.4375,-18.75,0
80550,-3.3125,-36.9375,-21,0
80570,0,-34.4375,-21.875,0
80590,4.6875,-31.5,-21.3125,0
80610,6.5625,-27.5625,-21.9375,0
80630,4.1875,-24.125,-22,0
80650,2.75,-22.1875,-22.25,0
80670,1.75,-21.875,-19.9375,0
80690,2.1875,-20.375,-16.6875,0
80710,1.6875,-19.375,-17,0
80730,0.3125,-18.6875,-19.25,0
80750,-1.875,-17.25,-19.3125,0
80770,-3.5,-15.9375,-17.0625,0
80790,-0.9375,-14.5625,-16.75,0
80810,1.375,-15.125,-21.0625,0
80830,4.125,-14.5625,-22.9375,0
80850,2.5,-13.375,-21.875,0
80870,-0.25,-12.75,-22.1875,0
80890,0.3125,-11.625,-23.1875,0
80910,2.75,-10.0625,-23.4375,0
80930,2.6875,-8.8125,-23.125,0
80950,4.0625,-7.5,-22.125,0
80970,7.4375,-6.875,-22.25,0
80990,11.5,-6.75,-24,0
81010,10.625,-4.8125,-25,0
81030,6.75,-1.4375,-23.9375,0
81050,4.4375,-0.875,-23.75,0
81070,4.375,-0.6875,-23.5625,0
81090,7.1875,0.6875,-25.4375,0
81110,10.1875,2.5625,-25.75,0
81130,7.4375,3,-24,0
81150,3.8125,3.9375,-23.375,0
81170,6.875,5.5,-23.3125,2001
81190,10.5625,6.0625,-23.8125,0
81210,10.125,8.25,-24.375,0
81230,8.5,9.3125,-20.4375,0
81250,5.1875,10.0625,-16.9375,0
81270,2.125,10.6875,-13.5,0
81290,4,10.25,-11,0
81310,2.25,9.375,-9.4375,0
81330,-1.3125,8.1875,-6.1875,0
81350,-8.5625,7.125,-0.75,0
81370,-10.25,4.25,3.0625,0
81390,-9.875,-1.4375,5.0625,0
81410,-4.9375,-8.5,7.4375,0
81430,2.75,-10.25,13.625,0
81450,7,-9.75,14.0625,0
81470,10.9375,-12.5,3.4375,0
81490,11.1875,-18.8125,-6.4375,0
81510,13.8125,-16.5625,-7.0625,0
81530,17.5,-15.125,-11.5625,0
81550,25.875,-11.6875,-16.25,0
81570,27.625,-15.3125,-16.75,0
81590,23.9375,-11.9375,-12.0625,0
81630,36.125,0.4375,-8.4375,0
81650,40.125,2.5,-4.5,0
81670,46.1875,2.5625,-2.0625,0
81690,46.375,9.1875,-3.0625,0
81710,44.875,21.25,-1.3125,0
81730,50.9375,27.875,7.0625,0
81750,58.625,31.9375,19.8125,0
81770,63.25,38.4375,26.5625,0
81790,64.0625,49.25,35.3125,0
81810,67.8125,51.0625,48.1875,0
81830,52.0625,45.25,58.5,0
81850,51.5625,46.25,61.6875,0
81870,53.375,51.6875,55.6875,0
81890,48.4375,56.5,53.5,0
81910,42.0625,58.5625,59.125,0
81930,42.9375,66.75,70.5,0
81950,45.75,74.25,73.3125,0
81970,49.625,82.8125,67.5625,0
81990,46.375,92.4375,66.4375,0
82010,36.5,95,76.5,0
82030,40.875,91.4375,81.5,0
82050,52,88.875,78.5,0
82070,67.25,84,73.125,0
82090,78,77.25,72.0625,0
82110,87.9375,76,74.9375,0
82130,92.875,70.3125,78.625,0
82160,89.25,49.4375,70.1875,0
82170,79.875,41.625,72.1875,0
82190,67.25,34.5,66.5,0
82210,57.5,28.625,60.5,0
82230,44.9375,21.1875,61,0
82250,30.375,10.6875,57.5,0
82270,15.75,0.5625,53,0
82290,3.625,-6.25,50.75,0
82310,-7.9375,-12.6875,51.0625,0
82330,-10.875,-18.9375,46.75,0
82350,-13.125,-25.3125,42.25,0
82370,-16,-31.25,42.4375,0
82390,-16.6875,-35.6875,34.625,0
82410,-23.125,-42.6875,24,0
82430,-23.0625,-45.75,19.8125,0
82450,-19.5625,-45.0625,20.1875,0
82470,-23.8125,-43.5,17.625,0
82490,-23.6875,-40.0625,7.6875,0
82510,-23.6875,-36.125,-4.4375,0
82530,-16.5625,-34.5625,-8.625,0
82550,-8.25,-34.4375,-7.125,0
82570,-6.3125,-32.0625,-9.6875,0
82590,-10.625,-26.6875,-14.6875,0
82610,-16.4375,-24,-18.125,0
82630,-14.1875,-22.25,-22.0625,0
82650,-6.8125,-19.125,-23.4375,0
82670,-4.5,-18.25,-16.9375,0
82690,-8.1875,-16.4375,-14.1875,0
82710,-19.6875,-12.375,-14.25,0
82730,-22.375,-7.9375,-14.375,0
82750,-15.1875,-7.0625,-14,0
82770,-6.875,-7.5,-11.6875,0
82790,-1.5,-6.625,-9.0625,0
82810,-0.1875,-2.6875,-8.375,0
82830,-2.3125,-1.125,-7,0
82850,-4.1875,-1.75,-8.1875,0
82870,-3.75,-1.6875,-6.75,0
82890,-3.375,-1.4375,-3.125,0
82910,0.8125,-0.6875,-1.4375,0
82930,3.125,0.25,-3.25,0
82950,3.625,-1.125,-2.5,0
82970,-3.75,-2.5,0.0625,2000
82990,-6,-3.0625,0.625,0
83010,-4.5,-4.4375,0.5,0
83030,-1.3125,-6.5,3.1875,0
83050,-1.125,-7.125,4.5625,0
83070,2.625,-9,2.6875,0
83090,3.1875,-11.9375,2.625,0
83110,-1.75,-16.1875,3.3125,0
83130,-2.3125,-19.625,2.25,0
83150,-1,-22.0625,1.75,0
83170,2.25,-24.0625,3.5,0
83190,2.75,-25.6875,5.625,0
83210,3.3125,-27.5,4,0
83230,2.1875,-30.125,3.3125,0
83250,2.875,-31.4375,3.9375,0
83270,5.625,-31.8125,2.875,0
83290,8.0625,-32.4375,0.8125,0
83310,10.9375,-33.5625,-2.25,0
83330,10.0625,-35.875,-1,0
83350,7.8125,-38.625,-0.9375,0
83370,9.3125,-39.25,-2.125,0
83390,8.8125,-38.625,-2.1875,0
83410,8.75,-36.75,-3,0
83430,6.9375,-38.625,-1.625,0
83450,6.1875,-39.25,-1,0
83470,9,-39,-2.6875,0
83490,5.625,-37.75,-5.3125,0
83510,2.75,-37.25,-5.3125,0
83530,1.375,-35.375,-4.875,0
83550,0.375,-32.0625,-5.9375,0
83570,-1.9375,-29.75,-9,0
83590,1,-29.125,-12.5625,0
