Timestamp, Rotation x, Rotation y, Rotation z, Marker
50,32.875,-17.3125,-18.0625,0
70,29.5,-13,11.1875,0
90,-3.125,-3.75,27.3125,0
110,-50.6875,4.8125,29,0
120,-69,9.5,20.875,0
120,-47.8125,22,6.6875,0
160,-20.5625,33.5,-13.375,0
180,-27.1875,27.25,-19.875,0
200,-6.5,12.0625,-28.5,0
220,25.5,9.0625,-29,0
240,44.0625,4.125,-21.25,0
260,59.125,-0.3125,-12.3125,0
280,53.1875,-0.125,8.625,0
300,2.4375,7.25,29.5625,0
320,-41.9375,-9,38.0625,0
340,-43.125,-22.375,26.375,0
360,-7.5,-17.4375,1.875,0
380,14.5625,-12.875,-8.9375,0
400,13.25,-18.375,-16.9375,0
420,8.875,-26,-29.0625,0
440,22.0625,-24.125,-34.8125,0
460,39.5,-14,-22.5625,0
480,36,4.375,2.0625,0
500,-10.9375,20.375,22.1875,0
520,-68.25,26.9375,30.1875,0
540,-89.5625,29.875,19.6875,0
560,-78.625,37.9375,-4.8125,0
580,-37.3125,38.3125,-20.3125,0
600,-5.9375,22.375,-19.3125,0
620,18,5.5,-23.0625,0
640,49.0625,-2.1875,-24.1875,0
660,72.1875,-8.0625,-9.125,0
680,78.5625,-3,3.5,0
700,46.0625,1.0625,21.25,0
720,-13.6875,2.3125,42.625,0
740,-64.375,-17.375,49,0
760,-57.25,-29.4375,32.3125,0
780,-16.75,-20.375,12.5625,0
800,9.4375,-13.5,0.625,0
820,13.9375,-26.5625,-6.3125,0
840,26,-33.5625,-18.1875,0
860,20.5625,-18.625,-37.4375,0
880,15.25,-18.4375,-34,0
900,15.875,-4.5625,-15.4375,0
920,7.4375,12.0625,5.3125,0
940,-31.375,25.4375,18.0625,0
960,-67,39.5,23.4375,0
980,-83.75,44.9375,19.75,0
1000,-71.125,44.75,6.9375,0
1020,-20.125,34.25,7.4375,0
1040,4.25,23.75,-3.3125,0
1060,-6.125,9.0625,-17.8125,0
1080,12.75,2.1875,-22.8125,0
1100,58.125,-20.6875,-23.875,0
1120,80.375,-14.625,-1.75,0
1140,86.4375,1.6875,21.375,0
1160,18.1875,4.875,36.625,0
1180,-55.625,-14.5,42.0625,0
1200,-71,-38.8125,30.75,0
1220,-40,-33.875,10.8125,0
1240,-0.75,-29.625,1.375,0
1260,22.4375,-39,-6,0
1280,34.25,-41,-19.6875,0
1300,30.625,-26.5625,-34.125,0
1320,41.375,-17.6875,-47.3125,0
1340,31.0625,-0.875,-31.3125,0
1360,12.9375,8.8125,-0.3125,0
1380,-19.8125,7.9375,15.625,0
1400,-46.1875,10.4375,13.8125,0
1420,-61.625,27.125,13.0625,0
1440,-56.25,51.5,5.9375,0
1460,-48.3125,64.375,-0.375,0
1480,-49,55.0625,-16.5625,0
1500,-32.4375,39.875,-26.8125,0
1520,1.75,26,-16.9375,0
1540,37.125,10.375,-14.1875,0
1560,64.6875,-4.5625,-10.75,0
1580,59.375,-11.875,4.4375,0
1600,41.125,-11.8125,18.8125,0
1620,17.1875,-14.0625,24.875,0
1640,-1.75,-24.0625,41.1875,0
1660,-17.375,-35.3125,50.75,0
1680,-8,-42.125,49.3125,0
1700,11.8125,-48.25,38.0625,0
1720,23.625,-48.875,31.5,0
1740,17.6875,-49,16.5625,0
1760,7.9375,-42.625,-7.25,0
1780,-2.4375,-30.5,-30.5,0
1800,-7.1875,-16.875,-49.875,0
1820,7.9375,-16.1875,-53.125,0
1840,33.1875,-10.5625,-29.1875,0
1860,37.3125,15.375,1.1875,0
1880,14.3125,34.125,21.125,0
1900,-37.6875,39.5,29.0625,0
1920,-74,44.6875,19.1875,0
1940,-78.625,59.8125,-4.4375,0
1960,-48,64.875,-12.5625,0
1980,-8.3125,48.25,-0.8125,0
2000,18.75,31.4375,6.1875,0
2020,18.8125,17.5625,0.3125,0
2040,12.75,3.3125,-5.375,0
2060,24.375,-11.9375,-5.125,0
2080,34.6875,-18.0625,2.375,0
2100,46.0625,-20.125,14.3125,0
2120,45.5,-25.25,27.3125,0
2140,24.25,-31.8125,34.75,0
2160,-5.6875,-39.5,38.0625,0
2180,-29,-51.375,38.0625,0
2200,-21.625,-53.75,27.125,0
2220,6.375,-47.25,3.4375,0
2240,14.625,-44.5625,-14.6875,0
2260,10.625,-48.1875,-17.875,0
2280,22.3125,-41.1875,-24.875,0
2300,28.625,-22.8125,-25.3125,0
2320,25.6875,-5.5,-15.8125,0
2340,10.375,5.5625,-7.125,0
2360,-24.5,16.375,3.75,0
2380,-55.8125,31.8125,5.4375,0
2400,-66.6875,53.9375,5.0625,0
2420,-54.4375,63.125,3.5,0
2440,-33.8125,49.9375,1.1875,0
2460,-10,43.5625,-4.5625,0
2480,-11.0625,36.5625,-16.0625,0
2500,-12.3125,17.9375,-17.8125,0
2520,43.625,-6.125,-16,0
2540,69.125,-10.4375,0.25,0
2560,77.625,-10.25,17.4375,0
2580,59.375,-19.5,25.75,0
2600,17.75,-33.4375,32.1875,0
2620,-18.5625,-51,46.875,0
2640,-8.25,-60.4375,60.6875,0
2660,4.75,-65.5625,48.875,0
2680,26.5,-59,12.5,0
2700,22.0625,-41.4375,-6.625,0
2720,-10.9375,-34.25,6.4375,0
2740,-50.6875,-32.375,9.4375,0
2760,-49.875,-24,-7.625,0
2780,-13.5,-11.625,-12.625,0
2800,12.5,-22.125,10.3125,0
2820,46,-36.3125,40.75,0
2840,64.375,-25.1875,64.9375,0
2860,39.5625,-9.375,79.375,0
2880,-11.75,-6.625,73.3125,0
2900,-21.4375,-10.6875,57.625,0
2920,-8.3125,-1.8125,50.8125,0
2940,10.25,-5.5,54.875,0
2960,41.625,-12.8125,57.1875,0
2980,53.625,-12.6875,60.75,0
3000,23.9375,-13,56.75,0
3020,4.9375,-17.8125,45.5,0
3040,8.1875,-15.125,48.875,0
3060,14.3125,-15.8125,62.125,0
3070,19.3125,-25.125,72.8125,0
3090,20,-27.8125,73.875,0
3110,24.5625,-26.3125,58.4375,0
3130,27.9375,-25.3125,50,0
3150,31.8125,-25,55.1875,0
3170,17.875,-26.625,60.25,0
3190,11.6875,-37.25,50.9375,0
3210,15.5625,-45.3125,39.1875,0
3230,10.0625,-43.8125,38.375,0
3250,2.8125,-45.625,37.8125,0
3270,3.0625,-46.1875,27.125,0
3290,-6.5625,-47.75,23.75,0
3310,-10.5625,-42.1875,23.4375,0
3330,-19.8125,-40.0625,16.4375,0
3350,-17.5,-42.9375,7.8125,0
3370,4.6875,-39.8125,1.625,0
3390,25.5625,-34.75,-2.9375,0
3430,23.1875,-32.3125,0.5625,0
3470,6.8125,-14.875,16.8125,0
3490,-23.875,-12.4375,-0.25,0
3510,-36.3125,-14.3125,-5.125,0
3530,-43.5,-14.0625,-2.6875,0
3550,-60.8125,-8.9375,3.4375,0
3570,-63.125,-11.3125,4.375,0
3590,-40.6875,-16.4375,-6.0625,0
3610,-5.75,-16.5625,-6.9375,0
3630,3.6875,-22.125,-2.75,0
3650,13.75,-26.4375,-1,0
3670,2.0625,-26.875,-10.9375,0
3690,-13.8125,-23.0625,-17.4375,0
3710,-14.0625,-19.8125,-17.125,0
3730,3.625,-17.25,-14.6875,0
3750,19.5625,-16.6875,-12.3125,0
3770,26.1875,-20.9375,-12.5,0
3790,9.625,-14.9375,-9.1875,0
3820,-8.3125,-12.875,2.375,0
3840,-3.8125,-12.1875,-1.6875,0
3860,-2.5625,-10,1.75,0
3880,-0.5625,-8.5625,4.6875,0
3900,-0.1875,-9.25,4.1875,0
3920,-7.375,-5.0625,-2.75,0
3940,-8.4375,-4.25,-5.5,0
3950,-8.5,-1.25,-2.9375,0
3990,-5.4375,-7.0625,-7.1875,0
4010,-3.625,-3.1875,-0.4375,0
4030,-0.5,-1.4375,-0.1875,0
4050,1,-0.9375,-3.375,0
4070,-6.375,-0.4375,-6.8125,0
4090,-7.9375,0.25,-9.4375,0
4110,-7.0625,2.9375,-9.0625,0
4130,-9.125,2.6875,-2.125,0
4150,-10.0625,0.5625,2.3125,0
4170,-10.3125,-2.3125,3.5,0
4200,3.5625,-12.9375,2.0625,0
4220,4.4375,-21.3125,-2.5625,0
4230,0.4375,-26,-4.3125,0
4250,-6.125,-30.25,-2.9375,0
4270,-3.6875,-35.25,-6.0625,0
4290,-0.875,-38.5625,-7.125,0
4310,2.875,-37.625,-3.625,0
4330,2.8125,-36.4375,1.125,0
4350,0.5625,-38.3125,0.4375,0
4370,8.75,-44,0.9375,0
4390,5.3125,-36.125,5.625,0
4410,-3.9375,-34.375,11.4375,0
4430,6.625,-32.125,3.5625,0
4450,1.875,-27.4375,2.3125,0
4470,-3.875,-23.5625,10.8125,0
4490,-5.9375,-19.4375,14.0625,0
4510,-10.125,-12.875,14.875,0
4530,-20.625,-3.25,16.875,0
4550,-19.6875,-1.375,19.75,0
4570,-15.0625,1.5625,21.375,0
4590,-9.9375,3.5625,18.8125,0
4610,-8.375,5.125,13.75,0
4630,-14.375,4.6875,15.6875,0
4650,-11.625,4.0625,16.9375,0
4670,-8.25,6,12.1875,0
4690,-2.3125,1.75,8.4375,0
4710,-5.3125,-0.1875,6.375,0
4730,-7.875,-1.5625,8.5625,0
4750,-4.5,-3.6875,7.375,0
4770,0.375,-5.4375,6.625,0
4790,1.6875,-6.4375,5.9375,0
4810,2.625,-6.4375,0.5,0
4830,4.75,-4.9375,-2.5625,0
4850,1.625,-4.6875,-0.9375,0
4870,1.9375,-5.6875,2.4375,0
4890,3,-2.8125,2.5,0
4910,1.1875,-3.25,1.375,0
4930,-3.5,-2.875,2,0
4950,-3.625,-1.5,-2.8125,0
4970,-7,-0.9375,-6.9375,0
4990,-8.5625,-3.0625,-5.875,0
5010,-7.3125,-5.6875,-5.4375,0
5030,-4.9375,-5.5,-5.875,0
5050,-1.25,-2.0625,-2.9375,0
5070,3.625,-2.75,-1.375,0
5090,2.75,-6,-1.0625,0
5110,0.375,-6.25,0.375,0
5130,4.0625,-4.5625,2.125,0
5150,3.625,-4.0625,2.9375,0
5170,-3.25,-3.75,4.25,0
5190,-6.8125,-2.875,4.0625,0
5210,-3.125,-1,0.0625,0
5230,-0.5,-1.125,-2.75,0
5250,3.75,-2.5,-1.125,0
5270,6.125,-0.125,1.4375,0
5290,6.0625,1.9375,0.0625,0
5310,1.5625,2.0625,-3.0625,0
5330,-1.875,-0.0625,-2.25,0
5350,-0.8125,-0.875,-1.875,0
5370,2.875,0.4375,-2.6875,0
5390,3.8125,1.9375,-1.1875,0
5410,-1.25,2,-0.25,0
5430,-4.875,0.875,-1.625,0
5450,-1.0625,0.875,-2.375,0
5470,0.75,1.3125,-2.5625,0
5490,-1.9375,1,-1.5625,0
5510,0.25,-0.9375,-1.625,0
5530,1.6875,-1.3125,-3.6875,0
5550,0.5,-1.375,-4.0625,0
5570,-1.75,-1.125,-2.4375,0
5590,-3.25,-2,-1,0
5610,-1.375,-3.1875,-2.5,0
5630,0.5,-4.6875,-2.8125,0
5650,0.0625,-4.6875,-0.3125,0
5670,0.6875,-4.5,3.0625,0
5690,1.6875,-4.1875,4.1875,0
5710,0.375,-4.875,3.625,0
5730,-0.25,-7.1875,2.0625,0
5750,0.75,-6.875,1.375,0
5770,-0.125,-6.75,1.9375,0
5790,0.6875,-8.1875,1.6875,0
5810,4.25,-9.0625,3.3125,0
5830,5.25,-7.4375,4.25,0
5850,4.1875,-6.875,3.4375,0
5870,0.625,-7.5,5.4375,0
5890,-1.9375,-7.4375,6.8125,0
5910,-2.9375,-6.4375,7.6875,0
5930,-2.5,-5.5,8.8125,0
5950,3,-6.3125,8,0
5970,7.375,-8.5625,7.3125,0
5990,14.4375,-10.6875,8.875,0
6010,12.5,-10.4375,8.375,0
6030,-3.25,-8.375,8.1875,0
6050,-10.375,-9.5625,1.875,2000
6060,-3.75,-8,-6.875,0
6080,4.6875,-9,-5.3125,0
6100,8.9375,-10.875,0.875,0
6120,6.5,-11.5625,-1.5,0
6140,-5.3125,-13.9375,-9.75,0
6160,-12.75,-17.625,-11.5,0
6180,-6.625,-19.8125,-11.875,0
6200,3.0625,-21.1875,-15.9375,0
6220,0.625,-24.125,-16.8125,0
6240,-2.5,-28.3125,-11.3125,0
6260,3.25,-31,-9.5,0
6280,7.0625,-31.75,-15.8125,0
6300,2.5625,-29.875,-20.3125,0
6320,-1.125,-30.0625,-21.125,0
6340,-2.4375,-34.5,-21.3125,0
6360,-4.5,-34.125,-19.6875,0
6380,-6.375,-28,-21.0625,0
6400,-7.3125,-23.25,-27.375,0
6420,-7.5625,-23.0625,-26.5625,0
6440,-6.25,-20.1875,-21.875,0
6460,-7.5,-13.3125,-26.6875,0
6480,-8.25,-1,-28.75,0
6500,-7.625,5.5,-29.6875,0
6520,-15.8125,6.3125,-32.9375,0
6540,-22.3125,10.4375,-34.875,0
6560,-34.5625,21.5625,-32.625,0
6580,-23.3125,30.6875,-28.75,0
6600,-9.125,34.1875,-30.875,0
6620,-9.8125,44,-27.3125,0
6640,-19.4375,56.4375,-28.4375,0
6660,-33.3125,64.75,-31.125,0
6680,-35.75,74.0625,-29.3125,0
6700,-26.5625,80.1875,-35.8125,0
6720,-32.0625,85.625,-36.3125,0
6740,-39.125,90.9375,-37.75,0
6760,-36.75,93.9375,-46.5,0
6780,-36.125,92.4375,-52.375,0
6800,-38.375,90.125,-51.75,0
6820,-37.4375,84.25,-49.4375,0
6840,-36.6875,77.9375,-48.5,0
6860,-37.8125,72.5,-48.625,0
6880,-43,65.0625,-45.875,0
6900,-51.25,56.625,-33.625,0
6920,-49.6875,52.75,-17.9375,0
6940,-32.8125,48.6875,-3,0
6960,-8.8125,43.6875,6,0
6980,0.75,40.5,15.9375,0
7000,-4.125,39.0625,24.125,0
7020,-12.5625,38.1875,27.9375,0
7040,-11.1875,34.5625,26.4375,0
7060,-0.1875,31.3125,30.8125,0
7080,7.75,28.375,39.3125,0
7100,12.625,25.9375,41,0
7120,18.1875,21.8125,37.125,0
7140,25.5625,15.125,35.75,0
7160,32.875,7.125,37.875,0
7180,35.5,-0.875,41.8125,0
7200,36.8125,-9.4375,41.125,0
7200,33.75,-20.875,39.0625,0
7220,32,-33.125,43.8125,0
7240,36.5625,-48.625,51.6875,0
7260,32.8125,-57.6875,54.625,0
7280,27.625,-64.3125,54.25,0
7300,20.3125,-71.875,55.9375,0
7320,11.875,-80.25,52.0625,0
7340,3.25,-88.9375,48.8125,0
7360,1.875,-95.6875,41.4375,0
7380,8.6875,-101.25,31.1875,0
7400,12.5625,-107.562,21.9375,0
7420,7.3125,-112.875,12.8125,0
7440,3.25,-113.688,-2.125,0
7460,6.8125,-111.312,-19.9375,0
7480,6.25,-108.25,-32.75,0
7500,3.6875,-109.062,-40.3125,0
7520,9.25,-107.562,-44.0625,0
7540,17.1875,-101.75,-48.625,0
7560,13.875,-92.8125,-53.3125,0
7580,7.625,-82.75,-56.3125,0
7600,-2.4375,-72.25,-61.125,0
7620,-12.9375,-60.75,-61.75,0
7640,-19.25,-49.1875,-59.6875,0
7660,-23.4375,-39.25,-57.6875,0
7680,-31.25,-24.5625,-58.75,0
7700,-42.375,-6.5625,-61.5,0
7720,-49.4375,8,-58.125,0
7740,-49.25,18,-56.625,0
7760,-60.4375,36.625,-58.8125,0
7780,-70.375,59.0625,-55.1875,0
7800,-61,76.5625,-47.1875,0
7820,-45.125,91.75,-46,0
7840,-42.625,107.5,-50.5,0
7860,-62.1875,118.688,-48.875,0
7870,-65.0625,122,-46.5,0
7880,-56.875,119.188,-29.375,0
7900,-42.75,113,-16.5,0
7920,-28,105.75,-6.0625,0
7940,-20,98.9375,5.125,0
7960,-19.625,91.4375,19.375,0
7980,-12.6875,85.75,30.375,0
8000,3.9375,72.875,38.1875,0
8020,17.875,61.875,43.125,0
8040,19.75,55.25,49.75,0
8060,9.375,47.4375,53.875,0
8080,3.875,37.5,56.125,0
8100,15.4375,24.6875,57.0625,0
8120,28.125,14.4375,58.875,0
8140,29.4375,10.125,64.9375,0
8160,24,3,65.1875,0
8180,18.75,-8.5,66,0
8200,20.0625,-22.75,64.6875,0
8220,18.0625,-36.9375,65.6875,0
8240,18.375,-43.4375,66.1875,0
8260,9.875,-50,58.25,0
8280,-5.0625,-64.1875,49.4375,0
8300,-6.4375,-80.4375,44.875,0
8320,3.875,-92.4375,32.75,0
8340,5.9375,-101.562,20.4375,0
8360,2.625,-110.625,9.9375,0
8380,3.5,-119.375,0.3125,0
8400,3.25,-127.562,-6,0
8430,-1.0625,-135.688,-18.125,0
8450,-7.1875,-136.562,-24.875,0
8470,-13.4375,-134.375,-31.875,0
8490,-17.25,-132.188,-37.4375,0
8510,-14.25,-127.062,-43.375,0
8530,-11.1875,-119.188,-46.1875,0
8550,-10.4375,-105.562,-50.25,0
8570,-10.9375,-90.8125,-55.375,0
8590,-14,-77.4375,-55.6875,0
8610,-20.8125,-64.3125,-60.375,0
8630,-24.5625,-48.4375,-65.875,0
8650,-29.25,-30.1875,-67.9375,0
8670,-33.875,-13.8125,-66.75,0
8690,-35.9375,-4.9375,-65.1875,0
8710,-37.25,9.875,-72.4375,0
8730,-44.3125,30.8125,-74.0625,0
8770,-56.125,77.875,-62.6875,0
8790,-51.75,98.6875,-61.125,0
8810,-61.5,113.875,-49.8125,0
8820,-61.25,125.812,-39.25,0
8840,-54.4375,135.75,-34.5625,0
8860,-52.3125,137.062,-28.4375,0
8880,-41.8125,126.75,-9.8125,0
8880,-5.0625,95.25,37.9375,0
8900,-6.8125,85.0625,45.375,0
8920,-13.25,73.1875,55,0
8940,-3.1875,55.6875,58.9375,0
8960,12.875,37.625,61.5625,0
8980,22.6875,31,65,0
9000,17.9375,29.75,69.6875,0
9020,9.5,18.375,68.5625,0
9030,10.375,-0.25,69.375,0
9050,19.125,-16.6875,73.0625,0
9070,22.375,-28.1875,70.75,0
9090,11.5625,-33.5,67.8125,0
9110,1.625,-45.5625,64.25,0
9130,-8.8125,-61.375,64.25,0
9150,-6,-78,58.3125,0
9170,-7.875,-83.9375,54.5625,0
9190,-5.9375,-92.1875,48.625,0
9210,-9.875,-98.5625,42.8125,0
9230,-14.375,-101.875,37,0
9250,-14.1875,-104.062,27.875,0
9270,-7.875,-107.688,17.8125,0
9290,-2.9375,-109.375,7.3125,0
9310,0.8125,-107.688,-4.8125,0
9330,4.8125,-104.938,-17.8125,0
9350,8.125,-104.438,-30.3125,0
9370,10.9375,-100.438,-44.3125,0
9390,9.3125,-93.75,-54.4375,0
9410,5.25,-89.875,-58.8125,0
9430,5.375,-87.1875,-63.8125,0
9450,11.6875,-74,-68.0625,0
9470,17.5625,-59,-67.125,0
9490,13,-48.0625,-62.0625,0
9510,8.0625,-39.625,-62.4375,0
9530,2.75,-29.8125,-59.875,0
9550,-1.75,-17.875,-60.25,0
9570,-19.5,-10.5,-58.3125,0
9590,-39.6875,-4,-50.875,0
9610,-38.5,-3.6875,-41.0625,0
9630,-24.8125,-6.6875,-22.6875,0
9650,-7.5625,0.75,-4.375,0
9670,-7.875,9.5625,-1.25,2001
9690,-11.5,9.75,-3.4375,0
9710,-18.3125,10.625,4.5625,0
9730,-30.5625,11.625,5.25,0
9750,-26.1875,11.1875,2.5,0
9770,-6.375,9.6875,6.6875,0
9790,5.5,10.3125,7.5625,0
9810,3.5,16.1875,7.5625,0
9830,-0.5,17.25,9.5625,0
9850,-10.625,15.1875,7.625,0
9870,-14.3125,12.8125,5.4375,0
9890,-7.9375,12.4375,9.375,0
9910,-0.375,14.875,14.1875,0
9930,3.9375,15.5625,15.25,0
9950,-5.125,15.75,18.75,0
9970,-16.0625,15.6875,31.625,0
9990,-22.1875,13.625,52.3125,0
10010,-24.375,12.3125,72.625,0
10030,-16.125,8.875,89.25,0
10050,0,6.4375,107.125,0
10070,10.3125,7.3125,127.062,0
10090,11.875,17.8125,143.188,0
10110,30.0625,16.125,146.125,0
10130,46.5625,20.4375,148.688,0
10150,54.0625,27.8125,142.062,0
10170,57.875,33.6875,129.688,0
10190,49.9375,34.875,109.812,0
10210,40.375,34.375,89.4375,0
10230,48.4375,29.75,73.875,0
10250,58.5625,21.1875,53.3125,0
10270,52.125,17.125,37.25,0
10290,40.875,18.6875,28.875,0
10310,28.125,17.375,21.75,0
10330,9.8125,15.625,14.1875,0
10350,-0.5,20.4375,9.1875,0
10370,5.5625,19.1875,9.75,0
10390,13.8125,15.875,9.875,0
10410,18.25,11.125,7.3125,0
10430,22.75,4.75,6.0625,0
10450,23.375,-1.9375,5.9375,0
10470,19.4375,-9.1875,6.625,0
10490,13.25,-16.6875,5.4375,0
10510,7.125,-22.25,2.25,2000
10530,-0.625,-25.625,2.3125,0
10550,1.375,-25.3125,3.5625,0
10570,4.8125,-20.0625,1.5625,0
10590,-0.6875,-16.9375,0.4375,0
10610,-4.75,-21.3125,-6.5625,0
10630,-7,-23.625,-13,0
10650,-3.625,-24.5625,-20.875,0
10670,4.375,-26.0625,-30,0
10690,9.5625,-33,-37.4375,0
10710,8.625,-37.625,-41.4375,0
10730,17.9375,-37.5625,-45.5,0
10750,22.25,-34.6875,-50.25,0
10770,8.25,-28.5625,-53.0625,0
10790,-3.1875,-16.875,-55.75,0
10810,-3.0625,-2.375,-59.6875,0
10830,-11.5,11.0625,-60.75,0
10850,-27.3125,28,-59.5625,0
10870,-29.5,54.125,-65.5,0
10890,-31.8125,72.25,-73.375,0
10910,-38.9375,73.3125,-61.4375,0
10930,-40.0625,70.5,-55.375,0
10950,-36.5625,73.4375,-58.125,0
10970,-32.125,75.125,-57.75,0
10990,-44.625,78,-60.1875,0
11010,-64.1875,81.0625,-65.5,0
11030,-76.6875,85.25,-65.6875,0
11050,-69.25,88.6875,-52.1875,0
11070,-40.6875,90.375,-37.125,0
11090,-19.75,86.375,-32.625,0
11110,-26.0625,86.0625,-23,0
11130,-29,86.5625,-9.0625,0
11150,-25.4375,80,2.9375,0
11170,-21.8125,73.75,10.875,0
11190,-22.0625,65.875,19.75,0
11210,-18.6875,55.0625,27.5,0
11230,-12.5,45.6875,40.875,0
11250,4.6875,36.3125,52.1875,0
11270,28.875,25.0625,59.75,0
11290,46.25,16.125,60.75,0
11310,43.6875,8.1875,61.6875,0
11330,21.875,0.75,63.3125,0
11350,20.25,-12.0625,62.625,0
11370,33.9375,-25.5625,56.5,0
11390,41.125,-35.3125,57.625,0
11410,25.4375,-43.5625,58.5625,0
11430,16.9375,-55.0625,52.875,0
11450,22.1875,-72.1875,49.8125,0
11470,26.6875,-90.5625,47.6875,0
11490,22.3125,-103.75,41.0625,0
11510,10.875,-112.625,33.8125,0
11530,3.9375,-122.562,24.25,0
11550,-4.875,-129.75,13.3125,0
11570,-6.625,-133.562,2.625,0
11590,-5.3125,-135.688,-7.8125,0
11610,1.3125,-133.812,-18.75,0
11630,5,-128.312,-31.9375,0
11650,9,-122.125,-43.3125,0
11670,8,-114.438,-52.0625,0
11690,3.6875,-104.5,-58.6875,0
11710,-3.5625,-90.5,-69.5,0
11730,-13.5,-72.25,-76.6875,0
11750,-25.4375,-54.5625,-79.1875,0
11770,-32.4375,-39.1875,-81.8125,0
11790,-39.3125,-19.6875,-84.6875,0
11810,-49.6875,5.1875,-82.8125,0
11830,-55.625,26.875,-81,0
11850,-58.625,48.0625,-76.6875,0
11870,-64.375,71.6875,-75.25,0
11890,-73.75,93.4375,-72,0
11910,-74.5,108.438,-62.3125,0
11930,-72.5625,123.25,-54.8125,0
11950,-73.875,136,-50.625,0
11990,-25.75,110.5,17.0625,0
12010,-19.625,98.6875,23.1875,0
12030,-16.375,90.4375,31.4375,0
12050,-16.125,85.1875,37.25,0
12070,-15.3125,75.1875,47.4375,0
12090,8.6875,63.125,56.9375,0
12110,24.625,54.4375,56.8125,0
12130,23.125,44.125,55.0625,0
12150,8.125,32.0625,66.4375,0
12170,9.3125,24.625,76.9375,0
12220,17.25,-9.0625,79,0
12240,17.125,-23.375,76.9375,0
12260,13.6875,-34.4375,67.375,0
12280,13.8125,-49.1875,66.625,0
12300,14.125,-67,67.0625,0
12320,8.125,-78.375,58.875,0
12340,2,-86.8125,47.75,0
12360,-0.375,-98.5,41.8125,0
12380,0.625,-111.188,33.25,0
12400,-1.25,-120.062,21,0
12420,-7.3125,-126.625,6.375,0
12440,-12.875,-135.062,-8.0625,0
12460,-8.375,-148.062,-19.75,0
12480,12.125,-153.312,-33.5625,0
12500,22.1875,-143.125,-50.375,0
12520,17.9375,-126.188,-66.5,0
12540,5.0625,-109.625,-81.3125,0
12560,-7.0625,-93.125,-94.1875,0
12580,-22.9375,-75.6875,-98.4375,0
12600,-18.1875,-54.1875,-98.1875,0
12620,-19.125,-29.25,-105.75,0
12640,-30.5625,-10.0625,-106.062,0
12660,-41,2.375,-103.938,0
12680,-48.1875,19.5,-101.75,0
12700,-52.4375,42.625,-104.438,0
12720,-67.3125,64.25,-101.062,0
12740,-81.6875,83.4375,-94.375,0
12760,-89.375,103,-92.8125,0
12780,-78.25,119.75,-80.1875,0
12800,-64.875,123.75,-62.125,0
12820,-50.375,130.75,-46.5625,0
12840,-32.6875,138.125,-29.5,0
12860,-21.1875,118.125,8.0625,0
12880,-23.375,114.438,35.0625,0
12900,-16.125,114.375,54.5,0
12920,-13.25,103.938,62.6875,0
12940,-12.75,85.75,70,0
12960,-7.4375,69.9375,80.625,0
12980,0.9375,54.25,87.75,0
13000,8.3125,37.3125,89.0625,0
13020,9.4375,24.1875,83.6875,0
13040,6.1875,9.9375,81.375,0
13060,-1.375,-0.6875,83.1875,0
13080,-4.1875,-9.75,73.6875,0
13100,-2,-20.1875,67.4375,0
13120,4.0625,-22.875,68.75,0
13140,9.3125,-22.5625,70.4375,0
13160,16.625,-29.8125,64.625,0
13180,14.0625,-42.5625,57,0
13200,7.5625,-53.125,55.3125,0
13220,3.5625,-60,53.0625,0
13240,-2.25,-70,45.125,0
13260,-7.5625,-77.875,38.75,0
13280,-5.75,-84.25,29.1875,0
13300,-3.3125,-87.375,16.625,0
13320,1.5,-92.3125,6.875,0
13340,10.4375,-99.0625,-3.75,0
13360,12.875,-103.25,-15.1875,0
13380,7.1875,-105,-26.5625,0
13400,0.125,-106.25,-37,0
13420,-2.1875,-106.375,-46.9375,0
13440,-4.875,-104.125,-55.5625,0
13460,-5.6875,-97.4375,-62.5,0
13480,-2.1875,-86.25,-67,0
13500,-1.5625,-73.8125,-70.4375,0
13520,-2.125,-56.8125,-72.875,0
13540,0.1875,-41.9375,-71.75,0
13560,-4.1875,-35,-66.125,0
13580,-8.5625,-32.8125,-68.125,0
13600,-11.375,-21.125,-54.5625,0
13620,-19.25,-17.1875,-47.125,0
13640,-12.4375,-19.75,-43.125,0
13660,-3.25,-19.75,-38.125,2001
13680,-6.875,-14.8125,-26.9375,0
13700,-8.25,-13.5625,-14.4375,0
13720,-11.125,-13.9375,-4,0
13740,-11.125,-9.1875,2.5,0
13760,-20.25,-6.6875,5.5625,0
13780,-28.8125,-1.9375,7.625,0
13800,-34.0625,4.375,10.4375,0
13820,-37.8125,11.3125,11.25,0
13840,-39.5,13,3.1875,0
13860,-26.375,5.5,4.4375,0
13880,-14.9375,8.375,18.875,0
13900,-10,18.25,18.5625,0
13920,0.375,24.375,25.375,0
13940,-7.3125,23,38.4375,0
13960,-5.0625,16.3125,66.25,0
13980,-5.3125,15.6875,84.875,0
14000,-2.8125,15.4375,97.9375,0
14020,12.75,19.75,115.25,0
14040,39.6875,29.5,132.062,0
14060,52.3125,30.375,135.875,0
14080,37.9375,31.4375,126.938,0
14100,48.625,41.25,128.312,0
14120,69,39.6875,126.125,0
14140,65,36.9375,105.938,0
14160,61.5,38.25,94.75,0
14180,79.6875,34.5,90.1875,0
14200,76.75,33.0625,78.4375,0
14220,48.75,29.25,62.3125,0
14240,46,25.25,48.4375,0
14260,34.9375,23.4375,41.3125,0
14280,14.6875,18.6875,34,0
14300,14.3125,14.5,15.375,0
14320,13.5625,11.375,14.375,0
14340,1,7.1875,12.9375,0
14360,5.375,4.8125,5.75,0
14380,6.1875,0.1875,4.5,0
14400,6.1875,-1.9375,8,0
14420,0.75,-1.4375,6.4375,0
14440,-6.3125,-1.0625,1,0
14460,-2.5625,-5.8125,0.25,0
14480,-1.25,-5.0625,4.3125,0
14500,-2.25,-0.9375,6,2000
14520,-4.6875,0.875,5.25,0
14540,-5.75,-2.875,3.4375,0
14560,0.25,-7.8125,5.3125,0
14580,-0.5,-8.5625,7.1875,0
14600,-0.625,-7.875,9.5,0
14620,-2.625,-8.625,8.375,0
14640,-6.5625,-10.8125,2.8125,0
14660,-5.5,-16.25,0.9375,0
14680,-8.875,-25.1875,1.375,0
14700,-7.5,-33.375,-2.3125,0
14720,7,-42,-19.125,0
14740,14.4375,-50,-32.1875,0
14760,1.125,-52.0625,-35.5,0
14780,-7,-46.8125,-40,0
14800,-5,-42.375,-46.375,0
14840,0.375,-22.1875,-46.25,0
14860,2.0625,-4,-48.5,0
14880,-9.25,12.375,-51.1875,0
14900,-20.5625,32,-53.8125,0
14920,-22.8125,48.625,-61.0625,0
14940,-20,69.3125,-74.4375,0
14960,-32.625,86.6875,-84.8125,0
14980,-48.875,95.5625,-86.3125,0
15000,-61.5,91.3125,-78.625,0
15020,-61.3125,85.0625,-75.5,0
15040,-67.4375,86.3125,-68.25,0
15060,-67.8125,89.1875,-56.75,0
15080,-68.25,90.4375,-47.5,0
15090,-79.75,89.375,-40.3125,0
15110,-71.4375,91.4375,-25.125,0
15130,-52.125,90,-18.5,0
15150,-45.4375,90.25,-17.375,0
15170,-50.5625,95.4375,-4.875,0
15190,-58.25,96.875,8.6875,0
15200,-56.4375,85.9375,27.75,0
15220,-31.4375,71.125,43.1875,0
15240,-3.3125,62.25,25.9375,0
15260,1.4375,54.125,21.5,0
15280,-1.9375,42.6875,38.5625,0
15300,-4.9375,38.3125,49.9375,0
15310,6,36.1875,47.0625,0
15330,18.5,28.4375,48.375,0
15350,30.875,14.25,62.5625,0
15370,30.3125,6.375,67.4375,0
15390,41.6875,1.25,62.3125,0
15410,41.0625,-15.875,60.875,0
15430,29.1875,-30.0625,63.0625,0
15450,30.5,-37.4375,70.5625,0
15470,27.125,-51.9375,71,0
15490,18.625,-70.5,63.625,0
15510,8.3125,-88.5625,60.9375,0
15530,13.3125,-105.438,59,0
15550,15.8125,-120.438,44.625,0
15570,8.1875,-130.188,28.75,0
15590,4.0625,-140.562,15.375,0
15610,14.75,-152.188,-19.875,0
15620,25.1875,-155.812,-37.125,0
15640,26.8125,-161.312,-49.5,0
15660,21.75,-158.812,-63.9375,0
15680,10.3125,-148.562,-79.25,0
15700,-4,-130.625,-89.125,0
15720,-9.0625,-111.938,-98.0625,0
15740,-19.3125,-89.625,-106.062,0
15760,-28.875,-59.375,-108.375,0
15780,-38.5625,-32.0625,-107.75,0
15800,-60.125,-8.6875,-98.1875,0
15820,-70.6875,19.0625,-90.5625,0
15840,-66.8125,53.0625,-85.1875,0
15860,-78.375,87.9375,-76.5625,0
15880,-89.5625,112.75,-59.6875,0
15900,-90.3125,128.375,-47.6875,0
15920,-98.75,142.438,-43.1875,0
15940,-97.0625,154.75,-29.375,0
15960,-89.125,153,-9.5625,0
15990,-23.8125,132.062,8.375,0
16000,-18.75,130.75,27.6875,0
16020,-17.5625,115.062,39.5625,0
16040,-23.5625,102.062,39.625,0
16060,-16.1875,84.1875,49.5625,0
16080,3.125,64.375,64.5,0
16100,25.1875,52.5625,68.875,0
16120,27.75,46.5625,65.5625,0
16140,13.1875,34.6875,64.625,0
16160,7.6875,18.1875,70.1875,0
16180,15.75,0.9375,75.5,0
16200,36.3125,-11.625,65.0625,0
16220,28.5625,-22.3125,58.875,0
16240,14.6875,-36.875,62.0625,0
16260,12.875,-55.375,59.75,0
16280,12.75,-70,56.5,0
16300,25.125,-79,59.1875,0
16320,36.9375,-86,55.125,0
16340,32.3125,-94.375,43.5625,0
16360,18.9375,-106.25,37.8125,0
16380,19.625,-121.75,36.6875,0
16400,22.4375,-132.25,28.1875,0
16420,20.6875,-135.188,16.875,0
16440,11.5625,-139.625,8.1875,0
16460,0.0625,-145.938,0,0
16480,-10.375,-147.438,-8.25,0
16500,-19.0625,-143.5,-15.375,0
16520,-32.375,-138.312,-20.875,0
16540,-40.625,-132,-26.25,0
16560,-36,-122,-29.6875,0
16580,-44.0625,-110,-33.3125,0
16600,-55.5,-94.25,-35.625,0
16620,-59.375,-76.3125,-45.25,0
16640,-53.8125,-60,-59.3125,0
16660,-58.8125,-48.1875,-65.25,0
16680,-60.9375,-36.0625,-67.125,0
16700,-62.6875,-20.1875,-72.375,0
16720,-62,-5.6875,-76.5,0
16740,-68.3125,8.8125,-75.8125,0
16760,-70,23.9375,-72.75,0
16780,-64.0625,45.625,-73.0625,0
16800,-75.875,68,-74.75,0
16820,-82.6875,75.0625,-63.9375,0
16840,-70.375,85.5625,-44.6875,0
16860,-49.625,101.188,-26.9375,0
16880,-46.0625,110.062,-12,0
16900,-50.8125,111.25,7.75,0
16920,-41.4375,111.125,28.8125,0
16940,-33.5625,114.062,41.5,0
16960,-38.5625,112.312,48.1875,0
16980,-29.4375,112.625,53.75,0
17000,-22,115.812,52.75,0
17020,-16.0625,117.188,52.125,0
17040,-17.6875,112.5,51.75,0
17060,-18.8125,103.875,51.8125,0
17080,-0.4375,86.9375,62.0625,0
17100,2.6875,68.5,69.5625,0
17120,-9.375,56.1875,75,0
17140,-26.25,35.25,74.5625,0
17160,-45.8125,8,74.5625,0
17180,-44.125,-18,82.25,0
17230,2.375,-46.375,70.0625,0
17250,-9.625,-52.3125,61.125,0
17270,-15.375,-65,51.375,0
17290,-13.375,-80.0625,42.75,0
17310,-5.875,-88.8125,34,0
17330,-1,-98.375,19.75,0
17350,2.9375,-112.688,13.8125,0
17370,6.1875,-120.062,10.875,0
17390,10.8125,-123.062,3.0625,0
17410,15.3125,-129.375,-1.6875,0
17430,9,-128.75,-8.4375,0
17450,-0.875,-120.062,-19.6875,0
17470,-6.9375,-110.438,-31,0
17490,-5.0625,-104.375,-41.6875,0
17510,-5.6875,-92.25,-53.875,0
17530,2.0625,-73,-62.625,0
17550,20.3125,-59.1875,-70.75,0
17570,35.25,-50,-76.125,0
17590,29.5,-35.8125,-77.25,0
17610,9.8125,-13.75,-74.875,0
17630,1.375,2.375,-69.4375,0
17650,-2.75,5.5625,-69.6875,0
17670,6.6875,3.125,-73.5625,0
17690,7.4375,1.625,-66.1875,0
17710,-4.5625,7.875,-47.625,0
17730,2.375,20.0625,-31.9375,0
17750,2.625,19.0625,-28.0625,0
17770,-9.125,13.8125,-27.9375,0
17790,-19.375,12.5,-21.875,0
17810,-22.8125,12.75,-11.3125,2001
17830,-16.25,9.6875,-9.5625,0
17850,-12.625,8,-13.0625,0
17870,-26.0625,5.875,-7,0
17890,-26.875,0.25,2.9375,0
17910,-16.125,-6.4375,1.625,0
17930,-12.3125,-12.4375,-0.0625,0
17950,-20.9375,-18.25,-7.625,0
17970,-27.125,-20.6875,-6.375,0
17990,-31.375,-23.6875,-0.6875,0
18000,-25.125,-28.0625,2.625,0
18020,-15.9375,-25,9.5,0
18040,-12.25,-18.5,25.0625,0
18060,-12.75,-16.875,41.625,0
18080,5.875,-21.4375,66.6875,0
18100,17.4375,-12.625,91.9375,0
18120,24.8125,2.625,111.75,0
18140,32.3125,8.6875,124.812,0
18160,42.875,14.1875,136.5,0
18180,61.375,22.8125,150,0
18200,60.375,24.6875,152.062,0
18220,65.0625,27.375,146.438,0
18240,77.5,32.8125,137.875,0
18260,67.1875,36,119.375,0
18280,43.6875,33.5625,99.375,0
18300,41.8125,33,82.875,0
18320,58.0625,30.375,65.9375,0
18340,70.4375,26.4375,48.875,0
18360,54.5625,21.625,34.9375,0
18380,45,24.4375,31.375,0
18400,49.875,20.8125,29.125,0
18420,41.25,9.3125,24.9375,0
18440,27,3.9375,22.5625,0
18460,28.375,1.6875,24.75,0
18480,27.3125,-1,24.1875,0
18500,16.625,-3.8125,25.3125,0
18520,14.875,-3.875,24.9375,0
18540,22.4375,-6.375,17.8125,0
18560,23,-10.1875,10.75,0
18580,10.625,-11.5625,11.75,0
18600,8.1875,-11.75,10.875,0
18620,11.75,-13.5625,3.0625,0
18640,10.125,-16.1875,-0.375,0
18660,1.9375,-19.0625,1.5625,2000
18680,2.0625,-20.875,1.4375,0
18700,2.3125,-25,0.625,0
18720,-4.6875,-28.75,-7.375,0
18740,-21.4375,-33.75,-24,0
18760,-22.5,-47.375,-28.625,0
18780,-16.6875,-60.4375,-33.625,0
18800,-0.3125,-65.8125,-47.25,0
18820,2,-64.6875,-57.625,0
18840,-0.4375,-59.9375,-64.1875,0
18860,-10.875,-53.375,-72.3125,0
18880,-18.5,-48.0625,-79.8125,0
18900,-15.125,-40.75,-78.9375,0
18920,-16.4375,-28.75,-78.125,0
18940,-22.25,-11.8125,-78.5,0
18960,-35.375,8.6875,-81.125,0
18980,-40.8125,27.75,-78.25,0
19000,-33.375,46,-77.25,0
19020,-39.5625,62.4375,-79.125,0
19040,-52.125,80.5625,-78.75,0
19060,-59.5,92.4375,-80.8125,0
19080,-71.9375,104,-80.5,0
19100,-93.0625,114,-80.375,0
19120,-57.5,180.312,-36.6875,0
19150,-40,153.75,5.375,0
19170,-31.8125,133.75,23.375,0
19180,-35.375,118.688,53.625,0
19180,-21,98.75,79.3125,0
19200,10,70.9375,82.5625,0
19220,16.3125,51,79.75,0
19240,23.25,49.6875,93.4375,0
19260,30.5625,38.125,85.9375,0
19280,19.3125,26.125,66.0625,0
19300,10.625,12,61.3125,0
19320,26.4375,-8.125,68.9375,0
19340,44.375,-30.4375,57.8125,0
19360,45.1875,-46.6875,50.1875,0
19380,48.125,-59.25,55.25,0
19390,49.625,-71.75,56.1875,0
19410,49.375,-78.625,53.375,0
19430,52.0625,-78,54,0
19450,40.875,-78.6875,52.5,0
19470,25.4375,-85.3125,45,0
19490,24,-94.5625,39.5,0
19510,24,-104.5,33,0
19530,16.6875,-112.875,19.875,0
19560,-3.625,-132.25,7,0
19580,-8.9375,-141.312,-0.5625,0
19600,-13.25,-144.125,-11.75,0
19620,-7,-144.062,-21.25,0
19640,-5.5,-143.75,-34.125,0
19660,-23.6875,-122.625,-54.9375,0
19680,-24.1875,-109.438,-60.125,0
19700,-21.4375,-93.25,-60.5625,0
19720,-23.75,-74.1875,-64.875,0
19740,-34.1875,-53.3125,-68,0
19760,-47.9375,-36.5625,-68.1875,0
19780,-49.625,-20.5625,-69.0625,0
19800,-44.5,2,-72.0625,0
19820,-52.0625,31.375,-74.8125,0
19840,-65.6875,52.0625,-72.5,0
19860,-68.3125,84.1875,-69,0
19880,-72.25,107.875,-70.3125,0
19900,-83.1875,112.438,-56,0
19920,-69.75,106.25,-39.625,0
19930,-55.125,101.312,-32.875,0
19950,-57.75,102.75,-28.5625,0
19970,-54.4375,100,-27.625,0
20000,-26.625,99.4375,-32.4375,0
20020,-31.3125,94.5,-26.75,0
20040,-31.375,89.6875,-18.375,0
20060,-14.25,80.4375,-8.5,0
20080,-1.375,67.8125,4.5625,0
20100,5.125,56.8125,21.6875,0
20120,7.4375,51.0625,44.5625,0
20140,18.6875,42.5625,59.875,0
20160,32.4375,31.8125,61.5625,0
20180,33.3125,17.25,62.1875,0
20200,28.625,17.125,72.8125,0
20220,21.5,6.6875,80.25,0
20240,19.375,-7.375,78.6875,0
20260,17.375,-16.375,85.625,0
20280,9.8125,-21.125,91.1875,0
20300,12.1875,-27.1875,91.625,0
20320,20.6875,-37.5625,90.5,0
20340,20.3125,-48.375,91.875,0
20360,9,-55.8125,86.9375,0
20380,-8.5625,-59.6875,76.75,0
20400,-15.875,-68.75,67,0
20420,-13.0625,-81.875,58.125,0
20440,-6.8125,-94.875,48.1875,0
20460,-6,-105.062,32.3125,0
20480,-14.875,-112.25,14,0
20500,-16.8125,-118.5,-1.125,0
20520,-11.5625,-123.062,-19.25,0
20540,10.9375,-120.062,-54.875,0
20560,19,-111.625,-67.8125,0
20580,17.5625,-102.062,-78.5625,0
20600,9.375,-91.8125,-85.0625,0
20620,1.5625,-78.125,-92.3125,0
20650,-16.3125,-47.625,-101.375,0
20670,-20.5625,-33.1875,-100.25,0
20690,-22.8125,-13.375,-99.25,0
20710,-50.1875,68,-73.1875,0
20720,-60.6875,85.0625,-74.9375,0
20740,-48,101.188,-62.5625,0
20760,-38.5,110.125,-52.8125,0
20780,-47.6875,118.25,-49.6875,0
20790,-43,125.25,-42.3125,0
20820,-30.25,124.938,-19.3125,0
20830,-30.625,131.375,-13,0
20840,-32.3125,134.688,1.0625,0
20860,-24.0625,126.5,18.5,0
20880,-9.9375,116.812,31.75,0
20900,-6.0625,108.188,42.25,0
20920,-4.5625,96.9375,54.875,0
20940,-11.625,87.9375,74.5625,0
20960,-12.1875,77.25,88.625,0
20980,-4.4375,63.9375,90.75,0
21000,1.875,47.5625,92.375,0
21020,-3.125,26.25,91.5625,0
21040,-8.5,6.375,86.875,0
21060,-10.3125,-13.5,83.25,0
21080,-10.625,-32.5,79.4375,0
21100,-8.1875,-50.9375,74.5625,0
21120,-9,-69.5,68.3125,0
21140,-12.5,-81.0625,63.0625,0
21160,-12.375,-91.25,56.3125,0
21180,-11.5625,-102.75,49.25,0
21200,-4.8125,-113.062,43,0
21220,-3.125,-119.812,37,0
21240,-11.3125,-123.062,29.3125,0
21260,-19.375,-126.312,19.3125,0
21280,-22.875,-129.062,9.375,0
21300,-23.5,-129.25,0.5625,0
21320,-20.0625,-125.125,-11,0
21340,-13.75,-116.75,-24.75,0
21360,-5.875,-108.438,-33.4375,0
21380,-2.3125,-99.8125,-41.9375,0
21400,0.0625,-88.125,-52.8125,0
21420,-0.9375,-75.875,-62.875,0
21440,-4.0625,-65.125,-65.4375,0
21460,-1.3125,-55.5,-67.25,0
21480,3.75,-46.8125,-66.75,0
21500,-1.875,-38.625,-64.75,0
21520,-4.6875,-29.5625,-65.5,0
21540,-12,-24.3125,-67.625,0
21560,-28.4375,-18.3125,-60.6875,0
21600,-29.125,-4.5,-49.625,0
21620,-19.625,3.125,-43.6875,2001
21640,-19.4375,9.4375,-32.5625,0
21660,-21.25,10.75,-24.0625,0
21680,-24.125,14.3125,-18.5,0
21700,-25.75,19.75,-9.0625,0
21720,-21.5625,17.3125,-3.375,0
21740,-11.625,14.1875,0.75,0
21760,-16.625,12.1875,2.625,0
21780,-11.8125,8.5,4.5625,0
21800,-3.8125,8.875,9.375,0
21820,-6.6875,11.75,17.375,0
21840,-14.9375,13.4375,28.0625,0
21860,-22.75,10.6875,45,0
21880,-26.5,10.4375,60.4375,0
21900,-16.125,19.5,74.1875,0
21920,-10.875,31.4375,87.8125,0
21940,-3.5,36.9375,101.438,0
21960,8.0625,41.625,116.938,0
21980,26.75,51.0625,122.375,0
22000,47.9375,59.4375,128.312,0
22020,45.5625,54.9375,132,0
22040,41.75,52.75,124.625,0
22060,43.3125,53.5625,120.125,0
22080,51.875,51,119.125,0
22100,54.25,41.5,110.125,0
22120,57.25,36.9375,97.625,0
22140,56.0625,32.4375,80.6875,0
22160,48.0625,21.25,66.125,0
22180,36.0625,10.125,52.875,0
22200,37.125,6.8125,36.8125,0
22220,37.9375,0.3125,22.1875,0
22240,37.125,-5.875,13.75,0
22260,41.9375,-11,10.0625,0
22280,36.9375,-15.875,6.9375,0
22300,21.1875,-17.75,5.8125,0
22320,9.9375,-16,9.25,0
22340,8.4375,-17.875,10.0625,0
22360,4.125,-19.625,12.1875,0
22380,2.0625,-18.8125,13.875,0
22400,3.25,-15.625,13.1875,0
22420,2.0625,-15.25,12.5625,0
22440,4.6875,-15.625,12.6875,0
22460,6.75,-15.875,9.25,2000
22480,2.3125,-18.3125,5.0625,0
22500,-0.3125,-16.4375,2.0625,0
22520,-0.875,-17.9375,-5.25,0
22540,-10.375,-23.0625,-14.125,0
22560,-12.3125,-27.4375,-15.4375,0
22580,-7.0625,-32.25,-24.4375,0
22600,-6.25,-37.8125,-33.875,0
22620,-6.875,-40.125,-37.875,0
22640,-10.4375,-39.1875,-41.75,0
22660,-11.5,-39.75,-45.3125,0
22680,-5,-39.8125,-48.3125,0
22700,0.3125,-38.8125,-49.4375,0
22720,4.75,-35.4375,-48.5,0
22740,2.375,-30.625,-48.1875,0
22760,-9.8125,-24.375,-51.3125,0
22780,-15.3125,-15.0625,-51.5625,0
22800,-5.1875,-2.25,-54,0
22820,-1.75,7.5625,-62.75,0
22840,-18.625,19.3125,-76.1875,0
22860,-49.1875,33.75,-85.5,0
22880,-69.8125,33,-71.25,0
22900,-67.125,29.3125,-57.375,0
22910,-44.4375,30.25,-51.0625,0
22920,-27.75,33.625,-33.5625,0
22940,-25.5625,34.9375,-12.6875,0
22960,-26,34,-7.625,0
22980,-23.6875,36.8125,-7.3125,0
23000,-23.5625,43.1875,-3.125,0
23020,-23.6875,54.6875,-5.125,0
23020,-30.4375,69.125,-10.8125,0
23030,-43,99.4375,-13.625,0
23070,-1.3125,132,-9.3125,0
23090,-12,139.938,-13.8125,0
23110,-38.375,147.562,-15.75,0
23130,-46.625,140.062,-11.5,0
23150,-25.75,125.75,4.8125,0
23170,13.3125,113,16.875,0
23190,26.5625,106.75,27.4375,0
23210,26.8125,100.375,37.625,0
23230,30.6875,83.875,41.875,0
23250,31.25,59.6875,42.0625,0
23270,27.5625,45.9375,48.125,0
23290,30.375,39.25,51.9375,0
23310,29.625,30.6875,51.3125,0
23330,20.5,17.9375,58.4375,0
23350,16.5,4.1875,64.625,0
23390,-11.625,-90,64.0625,0
23400,-29.5625,-109.312,58.125,0
23410,-46.125,-128.375,51.6875,0
23430,-47.125,-148.188,38.125,0
23450,-37.6875,-163.5,24.0625,0
23480,-8,-176.562,-8.3125,0
23520,2.6875,-167.312,-46.5625,0
23540,2.0625,-157,-65.3125,0
23560,0.9375,-141.062,-80.1875,0
23580,-2.125,-120.625,-94.125,0
23600,-1.625,-99.9375,-98.875,0
23620,-5.5625,-80.125,-100.312,0
23630,-11.6875,-56.9375,-101.688,0
23650,-21.25,-31.8125,-96.25,0
23670,-26.6875,-9.1875,-92.5625,0
23690,-29.25,8.125,-86.25,0
23710,-44.375,29.875,-78.1875,0
23730,-59.625,48.375,-76.875,0
23750,-86.4375,58.75,-71.6875,0
23770,-103.812,69.4375,-65.875,0
23790,-103.312,83.5,-61,0
23800,-35.0625,109.5,-35.1875,0
23820,-22.5625,118.375,-36.1875,0
23840,-30.9375,118.562,-33.0625,0
23860,-41.3125,112.5,-23.5625,0
23880,-45.6875,102.75,-12.4375,0
23910,-0.75,77.875,30.3125,0
23930,-0.75,72.625,43.5,0
23950,2,66.6875,50.3125,0
23970,7.75,58.625,52.25,0
23990,14.125,51.125,56.0625,0
24010,13.1875,43.25,63.75,0
24030,17.625,30.0625,72.9375,0
24050,29.1875,19.3125,74.8125,0
24070,43.5625,5.25,70.1875,0
24090,40.625,-8.0625,69.125,0
24090,27.125,-19.375,78,0
24100,13.375,-41.625,67.6875,0
24120,7.375,-37.375,69.8125,0
24140,10.75,-66.8125,66.1875,0
24160,4.8125,-73.3125,57.25,0
24180,10.5625,-81.5,44.625,0
24200,24.125,-90.0625,33.5,0
24220,28.375,-102.375,19.8125,0
24240,23.125,-114.25,6.25,0
24260,18.125,-123.438,-2.75,0
24280,18,-131.125,-6.4375,0
24300,9.75,-133.688,-4.8125,0
24320,-0.0625,-132.625,-3.4375,0
24340,-6.375,-131.625,-3.875,0
24360,-13.1875,-127.875,-8.125,0
24380,-26.6875,-117.125,-15.5625,0
24400,-35.0625,-107.5,-28.9375,0
24420,-40.5,-97.5625,-41.5625,0
24440,-44.6875,-88.0625,-49.4375,0
24460,-47.6875,-78.875,-56.5,0
24480,-49.9375,-64.125,-71.0625,0
24500,-49.375,-47.5625,-76.625,0
24520,-42.3125,-35.375,-82.375,0
24540,-29.5625,-23.1875,-83.9375,0
24560,-26.875,-3.125,-92.5,0
24580,-45.3125,21.8125,-97.125,0
24600,-63.125,43.1875,-97.625,0
24620,-73.875,59.4375,-101.062,0
24640,-82.3125,74.75,-103.875,0
24660,-89.625,90.5625,-95.0625,0
24680,-83.8125,101.25,-85.0625,0
24700,-67.375,107.688,-80.875,0
24720,-61.375,112.5,-76.25,0
24740,-66.625,113.562,-63.9375,0
24760,-50.4375,110.312,-45.125,0
24780,-34.9375,102.125,-33.5625,0
24800,-37.375,95.1875,-20.875,0
24820,-31.75,89.5,3.4375,0
24840,-19.625,82.3125,27.5,0
24860,-23.75,74.3125,42.125,0
24880,-28.5625,67.5,58.3125,0
24900,-25.0625,59.125,76.3125,0
24930,14.5,45.8125,89.25,0
24950,4.5,47,92,0
24970,-3.8125,43.625,98.4375,0
24990,-10.0625,30.4375,97.1875,0
25010,-9.75,17.9375,92.3125,0
25030,-3.3125,12.125,88.5625,0
25050,1.4375,5.75,94.75,0
25070,-6.75,-5.8125,104.375,0
25090,-13.625,-21.125,97.625,0
25110,-13.375,-35.1875,88.0625,0
25130,-14.125,-52,74.6875,0
25150,-10.8125,-67.9375,56.0625,0
25170,-5.5,-76.1875,39.375,0
25190,4.8125,-80.125,25,0
25210,13.4375,-84.4375,10.4375,0
25230,16.25,-89.8125,0.0625,0
25250,12.25,-94.125,-4.9375,0
25270,11.1875,-96.4375,-7.25,0
25290,11.375,-96.9375,-11.6875,0
25310,13.625,-97.9375,-19.1875,0
25330,14.3125,-98.25,-25.1875,0
25350,15.1875,-99.25,-30.875,0
25370,16.375,-97.625,-40.9375,0
25390,8.75,-95.375,-49.125,0
25410,4.5625,-92.0625,-54.625,0
25430,2.9375,-87.8125,-60.375,0
25470,2.4375,-52.875,-57.6875,0
25490,-7.9375,-43.1875,-53.625,0
25510,-16.8125,-33.1875,-49.8125,0
25540,-28.1875,-15.875,-41.25,0
25560,-26.125,-9.125,-34.875,0
25580,-13.625,-0.4375,-24.125,0
25600,-12.1875,3.6875,-20.8125,0
25620,-30.5625,8.6875,-13.9375,0
25640,-40.6875,13.3125,-3.875,2001
25660,-35.375,15.875,2.375,0
25680,-31.25,14.5,8,0
25700,-35.3125,12.375,12.9375,0
25720,-19.3125,0.375,12.25,0
25740,0.125,-5.625,11.8125,0
25760,6,-1.625,17.1875,0
25780,5.4375,1.375,13.75,0
25800,-2.3125,0.1875,10.8125,0
25820,-6.0625,-0.3125,8.0625,0
25840,-3.5625,4.375,6,0
25860,1.375,8.875,3.6875,0
25880,3.25,10.3125,4.5,0
25900,4.3125,9.5,9.0625,0
25920,3.125,8.875,12.75,0
25940,-4.4375,10.8125,19.4375,0
25960,-15.0625,11.8125,32.25,0
25980,-27.0625,7.6875,48.125,0
26000,-29,5.3125,69.875,0
26020,-23.25,1.5,94.4375,0
26040,-2.625,1.625,119.312,0
26060,20.375,4.9375,138.5,0
26080,25.3125,13.4375,144.25,0
26100,33.1875,25.125,148.312,0
26120,45.375,29.5625,144.125,0
26140,42.4375,30,122.812,0
26160,32.5625,33.6875,103.5,0
26180,39.6875,40.4375,91.625,0
26200,54.5625,38.1875,74.125,0
26220,65.125,37.4375,54.0625,0
26240,71.0625,40.5625,46.375,0
26260,73.875,36.5625,45.25,0
26280,65.4375,31.5625,40.75,0
26300,51.125,32.25,33.4375,0
26320,37.125,32.8125,28.6875,0
26340,26.4375,29.1875,26.9375,0
26360,23.5,27.375,22.0625,0
26380,30.4375,27.9375,11.8125,0
26400,36.1875,26.5,2.125,0
26420,27.6875,23.5625,-2.25,0
26440,17.25,19.1875,-4.9375,0
26460,10.0625,14.375,-9.3125,0
26480,9.125,7.375,-7.5,0
26500,8.4375,-0.9375,-1,0
26520,4.1875,-7,4.5,0
26540,-4.625,-6.8125,7.3125,0
26560,-13.25,-4.875,4.875,0
26580,-19.8125,-3.625,5.125,0
26600,-26.8125,-5.1875,6.875,0
26610,-16.5625,-6.75,4.125,0
26630,-3.125,-6.5,0.8125,2000
26650,6.875,-7.5625,0.8125,0
26670,2.4375,-8.5625,6,0
26690,1.5,-9.125,7.25,0
26710,4,-9.875,0.5625,0
26730,0.4375,-10.6875,-1.5625,0
26750,5.9375,-16.1875,-3.8125,0
26770,7.1875,-23.5,-7.9375,0
26790,9.25,-31.25,-17.375,0
26810,14.6875,-39.6875,-27.3125,0
26830,13.9375,-47.75,-34.0625,0
26850,5.1875,-48.9375,-37.9375,0
26870,-1.3125,-47.625,-38.4375,0
26890,3.375,-42.0625,-33.75,0
26910,5.9375,-31.5,-32.8125,0
26930,-1.0625,-18.3125,-33.8125,0
26950,-15.625,-2.4375,-30.375,0
26970,-20.25,15.875,-27.5625,0
26990,-19.3125,36.625,-35.125,0
27010,-24.9375,52.75,-41.6875,0
27030,-34.375,58.375,-35.8125,0
27050,-44.5625,64.125,-40.1875,0
27050,-50,67.375,-47.25,0
27090,-51.3125,63.125,-45.5,0
27110,-53.5625,64.625,-43.125,0
27130,-50,65.5,-38.25,0
27150,-39.4375,70,-37.3125,0
27150,-37.3125,77.875,-35.375,0
27170,-46.3125,85.375,-33,0
27190,-50.75,92.1875,-31.75,0
27210,-45.9375,100.938,-30.5625,0
27230,-34.375,106.125,-25.125,0
27250,-8.9375,105.375,-19.0625,0
27270,21.625,101.25,-22.9375,0
27290,31.6875,96.6875,-30.3125,0
27310,16.5,86.5,-26.25,0
27330,4.5,83.125,-18.375,0
27350,11.5625,69.75,-1.4375,0
27370,17.25,58.1875,20.5,0
27390,13.25,50.4375,31.5625,0
27410,2.8125,49.75,32.0625,0
27430,-2.0625,43.5,37.5,0
27450,4.875,34.5625,48.8125,0
27470,20.4375,28.6875,56.3125,0
27490,27.1875,23.25,56.5,0
27510,20.8125,19.5,59.9375,0
27530,15.8125,11.4375,61.25,0
27550,19.1875,3.125,58.75,0
27570,21,-6.8125,62.5625,0
27590,20.3125,-10.6875,67.4375,0
27610,31.4375,-15.5,67,0
27630,30.625,-22.125,59.8125,0
27650,20.25,-30.8125,60.5625,0
27680,-8.9375,-64.375,47.0625,0
27700,-4.125,-76,41.6875,0
27720,2.6875,-86.4375,33.4375,0
27740,5,-94,25.1875,0
27760,8,-100.75,17,0
27780,14.1875,-107.875,6.9375,0
27800,29.0625,-113.375,-6.9375,0
27820,43,-116.188,-19.4375,0
27840,50.0625,-117.125,-29.375,0
27860,45.3125,-113.75,-32.4375,0
27880,35.9375,-109.562,-37.1875,0
27900,20.1875,-106.812,-42.4375,0
27920,7.5625,-107.562,-40.6875,0
27940,3.9375,-106.375,-34.3125,0
27960,1.125,-97.6875,-29.9375,0
27980,-2.1875,-84.6875,-29.1875,0
28000,-12.25,-72.9375,-30.875,0
28020,-22.125,-65.8125,-34.125,0
28040,-28.1875,-56.9375,-38.625,0
28060,-32.125,-43.5625,-46,0
28080,-33.1875,-32.375,-50.625,0
28100,-33.9375,-23.875,-54.75,0
28120,-29.625,-13.625,-59.375,0
28140,-34.375,-2.3125,-63.625,0
28160,-38.875,10.75,-59.875,0
28180,-40.0625,23.25,-58.5625,0
28210,-60.5625,40.9375,-60.0625,0
28230,-68.25,48.6875,-61.5,0
28250,-66.875,58.0625,-64.25,0
28270,-69.875,64.8125,-66.0625,0
28290,-70.4375,68.6875,-61.0625,0
28310,-67.5625,69.5625,-56.875,0
28330,-57.875,72.6875,-55.3125,0
28350,-43.6875,74.4375,-50,0
28370,-47.625,71.4375,-41.125,0
28390,-56.0625,69.75,-32.375,0
28410,-60.3125,69.6875,-26.9375,0
28430,-55.25,72.1875,-22.3125,0
28450,-55.6875,73.125,-14.8125,0
28470,-48,71.875,-4.1875,0
28490,-28.5625,69.375,4.9375,0
28510,-14.375,66.3125,8,0
28530,-11.75,61.125,11.3125,0
28550,-14.5,57,16.375,0
28570,-13.1875,52.4375,24.5,0
28590,-0.8125,48.5625,30.8125,0
28610,8.0625,47.1875,37.4375,0
28630,12.125,46.1875,46,0
28650,2.5,49.1875,47.5,0
28670,-9.625,47.8125,47.625,0
28690,-16.125,39.25,50.8125,0
28710,-2.9375,34.4375,53,0
28730,9.75,30.5,52.5,0
28750,12.9375,27.8125,48.625,0
28770,15.5625,25.75,44.1875,0
28790,16,17.6875,44.5,0
28810,14.4375,6.0625,47.125,0
28830,21.25,0.0625,51.4375,0
28850,26.75,-3.375,50.625,0
28870,27.0625,-6.625,49.25,0
28890,16.5,-13.6875,52.75,0
28910,4.625,-21.625,58.375,0
28930,0.4375,-28,57.5,0
28950,9.6875,-33.25,56.25,0
28970,13.625,-39.625,53.8125,0
28990,9.5625,-42.4375,48.8125,0
29010,8.4375,-44.875,41.875,0
29030,8.4375,-49.1875,38,0
29050,6.6875,-55.9375,35.875,0
29070,6.5625,-58.6875,31.875,0
29090,10.1875,-61.125,29.5,0
29110,8.625,-65.5625,28.375,0
29130,5.5,-69.5,28.5625,0
29150,2.75,-75.6875,30.5625,0
29170,-0.5625,-79.875,29.9375,0
29190,-2.125,-79.5625,24.5625,0
29210,-6.9375,-81,16.625,0
29230,-6.8125,-85.5,6.25,0
29250,0.1875,-88.6875,-3.375,0
29270,5.5,-89.625,-12.125,0
29290,6.375,-87.25,-19,0
29310,6.875,-85.6875,-28.875,0
29330,3.5,-87.6875,-38.5,0
29350,2.875,-88.4375,-42.125,0
29370,5.5,-86.3125,-44.6875,0
29390,1,-82.4375,-45.6875,0
29410,-1.375,-76.375,-45.8125,0
29430,-5.75,-67.8125,-50.875,0
29450,-11.9375,-61.75,-42.875,0
29470,-13.8125,-56.9375,-45.4375,0
29490,-18.75,-51.125,-40.6875,0
29500,-22.25,-42,-38.1875,0
29520,-15.3125,-36.1875,-44.3125,0
29540,-20.875,-26.5625,-49.875,0
29560,-22.625,-17.75,-45.875,0
29580,-27.5625,-5.0625,-52.3125,0
29600,-31.9375,6.625,-57.0625,0
29620,-34.5,10.0625,-57.75,0
29630,-44.0625,14.75,-54.4375,0
29660,-42.1875,35.1875,-53.625,0
29670,-43.5,36.75,-51.25,0
29690,-43.125,39,-47.625,0
29710,-44.5,48.5,-46,0
29730,-52.875,59.5,-44.0625,0
29750,-52.625,60.6875,-37,0
29770,-44.125,59.25,-29.8125,0
29790,-32.1875,60.75,-22.25,0
29810,-27,62.8125,-16.875,0
29830,-20.3125,63.3125,-9.6875,0
29850,-17.5625,64.8125,-6.1875,0
29870,-21.3125,68.9375,-4.125,0
29890,-16.375,69.125,-1.5625,0
29910,-8.5,68.25,3.3125,0
29930,-3.4375,70.25,10.125,0
29960,18.125,71.3125,22.625,0
29980,0,58.5625,43.5625,0
30000,-1.25,54.5,46.125,0
30020,-12.625,55.8125,47.9375,0
30040,-14.6875,54.0625,48.5,0
30050,-13.6875,47.6875,46.4375,0
30070,-8.75,41.625,45.625,0
30090,-5.6875,38.9375,47.5,0
30110,-8.0625,36.1875,45.6875,0
30130,-16.0625,31.3125,44.125,0
30150,-17.5625,19.75,47.5625,0
30170,-16,5.125,51.875,0
30190,-7.25,-5.25,48.625,0
30210,-2,-12.125,43.9375,0
30230,-7.875,-21.625,42.3125,0
30250,-18.75,-29.6875,39.9375,0
30270,-15.9375,-34,36.625,0
30290,-12.5625,-40.8125,36.1875,0
30310,-10.5625,-45.75,37.0625,0
30330,-9.75,-44.9375,38.5,0
30350,-9.375,-43.8125,42.1875,0
30370,-17.9375,-44.25,45,0
30390,-23.6875,-39.3125,42.0625,0
30410,-21.1875,-39.8125,38.6875,0
30430,-17.8125,-43.875,35.375,0
30450,-11.0625,-44.5625,28.6875,0
30470,-5.5,-45.375,21.3125,0
30490,-1.6875,-50.4375,14.25,0
30510,-1.3125,-56.375,7.5625,0
30530,-0.5,-57,1.125,0
30550,1.5,-58.6875,-3.75,0
30570,1.8125,-63.25,-5.4375,0
30590,-0.3125,-67.8125,-7.8125,0
30610,-5.875,-68.625,-12.5625,0
30630,-5.9375,-66.4375,-21.25,0
30650,-10.8125,-67.0625,-27.4375,0
30670,-8.875,-70.5,-34.6875,0
30690,-2.625,-71.4375,-40.8125,0
30710,6,-67,-43.8125,0
30730,7.5625,-56.625,-46.4375,0
30750,-2.375,-47.125,-46.5625,0
30770,-3.6875,-42.4375,-46,0
30790,-4.6875,-36.5,-44.0625,0
30810,-9.8125,-29.9375,-44.3125,0
30830,-13.9375,-24.6875,-41.625,0
30850,-18.75,-19.75,-36.8125,0
30870,-20.5625,-16,-34.125,0
30890,-19.375,-21.3125,-32.6875,0
30910,-2.75,-25.5,-30.9375,0
30930,6.1875,-25.25,-30.25,0
30950,2.4375,-19.75,-29.75,0
30970,-18.0625,-17.625,-26.3125,0
30990,-18.25,-18.6875,-25.125,0
31010,-10.75,-22.375,-26.625,0
31030,-5.5625,-21.4375,-27.8125,0
31050,-5.625,-18.5,-25.75,0
31070,-6,-16.0625,-24.75,0
31090,-5.125,-15.125,-25.1875,0
31110,-9.75,-11.125,-27.5,0
31130,-13.6875,-8.3125,-25,2001
31150,-8.0625,-5.0625,-16.75,0
31170,-1.25,-7.3125,-16.4375,0
31190,2.0625,-5.4375,-18.25,0
31210,-7.8125,0.8125,-13.0625,0
31230,-9.9375,3.125,-6.5,0
31250,-8.875,0.4375,-0.8125,0
31270,-4.875,-0.25,4.8125,0
31290,0.75,4.5625,8.75,0
31310,-2.1875,6.3125,11.125,0
31330,-7.75,7.5,13.6875,0
31350,-10.8125,7.4375,20.625,0
31370,-13.5625,8.25,32.5625,0
31390,-16.375,13.0625,50.75,0
31410,-19.625,21.25,71.6875,0
31430,-13.9375,27.125,91.5,0
31450,-1.6875,33.1875,108.062,0
31470,8.0625,46.375,122.875,0
31490,18.4375,61.875,139.062,0
31510,32.125,69.25,148.438,0
31530,44.6875,69.375,145.438,0
31550,62.0625,62.5625,137,0
31570,60.75,53.8125,128.062,0
31590,47.625,47.6875,114,0
31610,43.1875,40.375,91.6875,0
31630,37.0625,31.0625,72.625,0
31650,31.875,16.5,53.25,0
31670,31.125,7.4375,42.625,0
31690,50.6875,-0.25,40.1875,0
31710,63.4375,-7.625,33.5,0
31730,51.875,-10.5,21.9375,0
31750,27.8125,-10.625,14.4375,0
31770,16.3125,-14.8125,15.25,0
31790,14.75,-20.9375,16.5,0
31810,13.25,-23.125,13.8125,0
31830,8.0625,-24.25,15.125,0
31850,1.4375,-26.625,21.3125,0
31870,-1.1875,-25.5625,24,0
31890,-5.25,-19.875,22.1875,0
31910,-7.8125,-13.9375,20.8125,0
31930,-6.5625,-11.5625,20.8125,0
31950,-7.0625,-10.1875,22.5,0
31970,-2.125,-6.9375,23.75,0
31990,5.75,-4.4375,19.4375,0
32010,6.125,-4.75,13.8125,0
32030,1.6875,-5.125,10.25,0
32050,1.875,-5.1875,4.1875,0
32070,10.1875,-5.8125,-2.875,0
32090,16.0625,-10.125,-7.4375,2000
32110,12.75,-13.3125,-9.75,0
32130,4.5,-16.75,-5.9375,0
32150,2.0625,-19.9375,-10.5625,0
32170,1.625,-23.875,-21.4375,0
32200,0.625,-39.875,-27.6875,0
32220,-1.5625,-41.8125,-33.5,0
32240,-4.4375,-43.75,-39.875,0
32260,-9.625,-45.4375,-38.3125,0
32280,-7.25,-43.3125,-33.25,0
32300,-5.375,-39,-35.625,0
32320,-5.6875,-31.75,-35.875,0
32340,-11.4375,-23.5625,-33.9375,0
32360,-11.375,-16.8125,-32.9375,0
32380,-12.6875,-9.5,-33.4375,0
32400,-13.5,1.75,-38.1875,0
32420,-19.625,14.125,-41.5625,0
32440,-26.8125,22.9375,-43.25,0
32460,-29.9375,32.75,-45.625,0
32470,-29.125,42.625,-46.25,0
32490,-31.5625,57.6875,-49.9375,0
32500,-43.875,70.5,-55.75,0
32510,-47.75,78.25,-60.9375,0
32510,-73.5,106.438,-62.125,0
32510,-41.0625,83.1875,0.5625,0
32530,-22.5625,74.5,18.5,0
32550,-7.0625,65.375,28.8125,0
32570,-4.125,63.1875,38.8125,0
32590,-5.25,60.375,50.3125,0
32610,0.9375,59.9375,54.25,0
32630,3.1875,54.4375,50.875,0
32650,6.875,51.0625,46.9375,0
32670,10.8125,44.0625,44.75,0
32690,20.625,36.75,44.6875,0
32710,29.8125,29.6875,44.5,0
32730,24.6875,24,38.625,0
32750,19.5625,17.6875,34,0
32770,21,11.9375,33,0
32790,26.3125,6.1875,31.3125,0
32810,22.0625,1.5625,30.4375,0
32830,19.25,4.375,28.125,0
32850,22.5,0.3125,25.5,0
32870,22.75,-8.3125,28.5625,0
32890,19.9375,-13.9375,34.5,0
32910,22.9375,-14.625,34.0625,0
32930,24.25,-13.6875,33.3125,0
32950,13.25,-18.75,36.6875,0
32970,7.3125,-24.25,34.6875,0
32990,15.5625,-25.625,29.9375,0
33010,23,-30.1875,26.8125,0
33030,21.125,-35.625,25.125,0
33050,17.375,-37.6875,19.625,0
33070,19.125,-40.1875,11.375,0
33090,24.875,-44.625,6.625,0
33110,32.875,-53,6.4375,0
33130,22.625,-55.9375,6.4375,0
33150,15.8125,-59.4375,7.9375,0
33170,17.3125,-64.9375,11.1875,0
33190,17.3125,-69.6875,14.5625,0
33210,10.3125,-74.5625,17.75,0
33230,4.875,-78.875,17.8125,0
33250,0.625,-84.0625,13.25,0
33270,-1.4375,-89.6875,11.1875,0
33290,-8.125,-96.1875,2,0
33310,-6.5625,-96.3125,-3.25,0
33330,-0.6875,-97.75,-8.75,0
33350,-1.0625,-99.8125,-10.4375,0
33370,-5.0625,-101.438,-12.5625,0
33390,-0.1875,-99.1875,-14.75,0
33410,-1.375,-93.5,-17,0
33430,-5.8125,-91.375,-20.4375,0
33450,-13.25,-90.25,-20,0
33470,-9.6875,-86.8125,-16,0
33490,-2.375,-80.9375,-16.3125,0
33510,-5.4375,-73,-20.3125,0
33530,-13.5,-65.75,-21,0
33550,-18.375,-57.125,-22.625,0
33570,-17.375,-45.25,-25.75,0
33590,-15.125,-37.125,-29.8125,0
33610,-13.875,-32.75,-31.125,0
33630,-16.375,-24.25,-33.75,0
33650,-19.625,-13.8125,-35.5625,0
33670,-25.4375,-5.5625,-38.25,0
33690,-32.25,-0.875,-37.875,0
33710,-32.1875,5.0625,-34.25,0
33730,-35.875,14.125,-34.125,0
33770,-45.25,49,-6.625,0
33780,-37.125,59.625,-13.75,0
33800,-41.375,68.4375,-16.875,0
33820,-44.9375,75.25,-21.5,0
33840,-48.125,83.25,-31.75,0
33860,-48.9375,93.0625,-42.5625,0
33880,-54.375,101.188,-50.125,0
33890,-43.9375,112.125,-49.9375,0
33970,-14,86.5,22.375,0
33990,-0.25,79.0625,22.4375,0
34010,7.5625,70.75,23.125,0
34020,5.25,64,27.875,0
34040,7.6875,57.625,29.6875,0
34060,11.25,50.875,29.75,0
34080,6.9375,44,38.5625,0
34100,9.5625,37.25,39.625,0
34120,11.5625,29.9375,46.6875,0
34140,18.6875,20.3125,51.75,0
34160,18.6875,12.5,53.9375,0
34180,17,7.5,55.6875,0
34220,12.5,-10,50.75,0
34240,15.5625,-12.4375,49.3125,0
34260,21.5625,-21.5625,45.3125,0
34280,18.625,-34.3125,46.6875,0
34300,17.1875,-43.6875,49.0625,0
34320,19.25,-51.25,48.375,0
34340,18.375,-60.125,44.8125,0
34360,10.6875,-67.6875,39.4375,0
34380,5.625,-73.9375,34.6875,0
34400,8.375,-83.125,29.5625,0
34420,12.625,-92.375,25.375,0
34440,8.1875,-97.5,21.75,0
34460,3,-100.312,16.75,0
34480,-4.4375,-106.062,13.5625,0
34500,-10.5,-108.5,10.25,0
34520,-13,-106.562,6.625,0
34540,-11.6875,-101.438,1.6875,0
34560,-17.375,-97.6875,-1.625,0
34580,-26.25,-92,-7.375,0
34600,-28.9375,-89.375,-16.625,0
34620,-19.6875,-88.8125,-26.8125,0
34640,-3.5625,-87.9375,-37.375,0
34660,5,-84.75,-43.75,0
34680,2.4375,-80.8125,-50.9375,0
34700,-6.4375,-75.625,-58.0625,0
34720,-17.0625,-69.125,-64,0
34740,-29.625,-63.3125,-67.75,0
34760,-33.875,-55.625,-64.4375,0
34780,-37.125,-46.5625,-57.9375,0
34800,-39.75,-37.75,-52.875,0
34820,-43.0625,-28.0625,-45.3125,0
34840,-47.9375,-13.0625,-35.625,0
34860,-53.75,-5.0625,-29.625,0
34880,-44.8125,-0.75,-33.4375,0
34900,-28.625,3.4375,-40.375,0
34920,-30.625,13.25,-45.375,0
34940,-41.4375,25.875,-50.75,0
34960,-51.6875,34.5,-55.6875,0
34980,-43.75,39.375,-58.8125,0
35000,-42.75,46.3125,-60.125,0
35020,-47.9375,53.625,-59.8125,0
35040,-45.375,58.6875,-53.8125,0
35050,-38,59.625,-46.125,0
35070,-38,63.9375,-42,0
35090,-46.0625,72.625,-38.1875,0
35110,-47.3125,78.9375,-30.3125,0
35130,-31.8125,82.1875,-21.875,0
35150,-27.6875,85.6875,-14.8125,0
35170,-37.75,91.75,-6.9375,0
35190,-31.625,95,1.4375,0
35210,-22.125,94.875,10.5625,0
35230,-21.8125,89.875,22,0
35250,-22.5,82,37.3125,0
35270,-8.6875,73.125,49.0625,0
35290,1.375,70.8125,51.5,0
35310,-13.5625,69.375,48.8125,0
35330,-18.25,66.1875,74.125,0
35350,-20.4375,59.6875,69.8125,0
35370,-20.25,48.875,59.375,0
35390,-16.3125,37.4375,60.1875,0
35410,-13.9375,30.5,65.25,0
35430,-7.5,23.625,60.125,0
35450,-4.75,15.5625,52.5625,0
35470,-2.1875,7.8125,49.125,0
35490,3.625,0.375,49.0625,0
35510,4.125,-4.625,49,0
35530,-0.6875,-8.3125,49.5,0
35550,3.1875,-13.3125,48.9375,0
35570,11.0625,-22.1875,47.9375,0
35590,15.0625,-27.375,47.4375,0
35610,8.6875,-26.3125,44.375,0
35630,0.9375,-32.875,42.5,0
35650,0,-43.1875,42.4375,0
35670,7.3125,-51.875,39.9375,0
35690,11.75,-59.3125,36.0625,0
35710,6.375,-65.0625,34.6875,0
35730,-1.75,-71.0625,33.8125,0
35750,-8.9375,-79.4375,28.5625,0
35770,-17.375,-85.8125,23.9375,0
35790,-15.8125,-89.9375,19,0
35810,-8.875,-92.9375,13.5625,0
35830,-6.9375,-96.125,7.1875,0
35850,-10,-94.25,-3.1875,0
35870,-6.125,-92.0625,-13.4375,0
35890,-1.125,-90.875,-20.625,0
35910,0.75,-85.625,-29.5625,0
35940,4.0625,-52.5,-52.125,0
35960,-1.25,-47.125,-55.6875,0
35980,-2.25,-45.0625,-54.125,0
36000,4.3125,-41.4375,-55.1875,0
36020,3.3125,-35.4375,-57.5625,0
36050,-1.125,-15,-51.75,0
36070,2.3125,-9.375,-48.4375,0
36110,-0.875,2.875,-38.1875,0
36130,-2.8125,2.75,-35.1875,0
36150,-4.5,0.4375,-35.6875,0
36170,-7.6875,1.8125,-38.0625,0
36190,-12,3.8125,-29.1875,2001
36210,-9.8125,1.5625,-23.0625,0
36230,2.25,-0.9375,-19.75,0
36250,6.3125,4.9375,-13.5,0
36270,-1.625,7.8125,-9.5625,0
36290,-12.3125,10.5625,-5.9375,0
36310,-16,11.8125,-1.6875,0
36330,-9.1875,8.9375,1.625,0
36350,-4.125,7,7.9375,0
36370,0.25,9,11.1875,0
36390,-2.0625,12.6875,11.875,0
36410,-12.125,15.4375,14.3125,0
36430,-20.625,18.5625,20.8125,0
36450,-22.625,20.3125,33.25,0
36470,-20.6875,24.6875,52,0
36490,-13.625,27.1875,75.0625,0
36510,-13.3125,23.5,100.312,0
36530,-3.5,19.9375,123.938,0
36550,6.6875,26.6875,144.125,0
36570,18.0625,30.9375,161.812,0
36590,14.4375,27.0625,165.25,0
36610,25.5,26.125,162.188,0
36630,39.125,24.75,156.625,0
36650,47.375,22.3125,142.438,0
36670,51.8125,20.5,123.25,0
36690,62.4375,15.4375,107.5,0
36710,56.25,11.6875,84.125,0
36730,50.8125,13.875,64.75,0
36750,54.1875,10.875,55.4375,0
36770,50.4375,3.5625,45,0
36790,37.625,5.875,34.8125,0
36810,35.9375,12.8125,32.0625,0
36830,32.4375,13,29.75,0
36850,20.75,11.5,27.875,0
36870,5,16.375,24.25,0
36890,2.6875,15.9375,22.625,0
36910,8.6875,8.375,26.875,0
36930,14.375,1.875,26.5,0
36950,16.8125,-0.625,21.5,0
36970,16.4375,-2.5625,19.1875,0
36990,10,-7.3125,17.125,0
37010,-1.5625,-10.5,14.6875,0
37030,-8.25,-9,12.1875,0
37050,-7.6875,-9.125,9.9375,0
37070,-4.5625,-11.4375,12.125,2000
37090,0,-12.875,14.75,0
37110,6.75,-9.1875,13.875,0
37130,-1.1875,-3.25,8.6875,0
37150,-11.0625,-1.9375,6.8125,0
37170,1.3125,-8.9375,1.6875,0
37190,11.1875,-20.4375,-2.0625,0
37210,12.625,-27.4375,-3.5,0
37230,8.875,-33.1875,-13.375,0
37250,2.875,-39.4375,-21.9375,0
37270,1.75,-47.25,-23.75,0
37290,8.5625,-51.25,-28.875,0
37310,11.125,-52.375,-37.0625,0
37330,8.5,-52.875,-41.6875,0
37350,13.1875,-50.9375,-42.9375,0
37370,18.3125,-47.5,-45.4375,0
37390,7.5625,-38.875,-45.6875,0
37410,-0.1875,-26.75,-46.0625,0
37430,1.5625,-13.875,-49.75,0
37450,-5.1875,-2.75,-49.375,0
37470,-16.125,12.3125,-47.8125,0
37490,-16.5,30.3125,-53.6875,0
37510,-16.1875,48.375,-58.1875,0
37530,-21.75,67,-56.1875,0
37550,-22.625,83.25,-64.125,0
37570,-32.9375,94,-69.1875,0
37590,-46.25,104.812,-67.25,0
37600,-57.6875,117.125,-75.5,0
37630,-50.5,114.875,-53.5625,0
37650,-45.1875,109.625,-46.5625,0
37670,-39.5,103.875,-35.25,0
37710,-5.25,77.5,-13.4375,0
37730,-0.5,72.9375,-7.125,0
37750,2.1875,66.3125,3.625,0
37770,-0.25,58.1875,18.0625,0
37790,-3.9375,53.5,34.6875,0
37810,1.5625,52.9375,35.3125,0
37830,9.0625,51.4375,34.5,0
37850,22.0625,47.6875,42,0
37870,27.4375,44.125,50.375,0
37890,22.6875,41.625,46.125,0
37910,27.5625,40.875,39.25,0
37930,33.375,36.25,37.3125,0
37950,34.875,26.4375,37.5625,0
37970,39.1875,19.0625,38.5,0
37990,48.9375,12.375,36.875,0
38010,61.0625,0,31.6875,0
38030,72.1875,-16.125,33.25,0
38050,77.75,-21.125,36.1875,0
38060,70.5,-26.875,34.125,0
38080,43.1875,-40.0625,34.1875,0
38100,26.9375,-55.875,40.625,0
38120,26.1875,-70.8125,44.625,0
38140,27.25,-82.5625,45.8125,0
38160,13.0625,-87.6875,45.0625,0
38180,5.6875,-89.375,42.375,0
38200,4.5625,-96.875,40,0
38220,-5.5,-108.438,39.375,0
38240,-8.6875,-114.938,36.9375,0
38260,3.9375,-121.875,26,0
38280,7.0625,-130.5,14,0
38290,0.6875,-138.562,-5.4375,0
38310,-5.75,-139.75,-10.875,0
38330,-15.875,-138.75,-14.1875,0
38350,-23.9375,-132.188,-18.5,0
38370,-25.9375,-123.062,-23.5,0
38390,-22.6875,-115.938,-25.4375,0
38410,-15.125,-106.875,-23.6875,0
38430,-10.375,-91.1875,-29.8125,0
38450,-12.9375,-72.4375,-36.75,0
38470,-18.9375,-54.75,-39.8125,0
38490,-25.0625,-42.625,-43,0
38510,-29.1875,-34.125,-48.25,0
38530,-31.8125,-20.5625,-54.25,0
38550,-38.75,-2.5625,-58.1875,0
38570,-45.3125,12.8125,-56.5,0
38590,-42.625,24.625,-54.4375,0
38610,-37,37.1875,-56.3125,0
38630,-36,51.6875,-66,0
38650,-53.75,56.6875,-66.8125,0
38670,-70.625,57.75,-63.625,0
38690,-69.1875,66.3125,-69.5,0
38710,-64.4375,75.5,-69.3125,0
38730,-58.0625,76.1875,-56.8125,0
38750,-52.1875,80.6875,-54.6875,0
38770,-54.375,88,-52.875,0
38790,-58.875,90.375,-38.375,0
38800,-33.8125,88.9375,-17.9375,0
38820,-34.8125,80.4375,-5.9375,0
38840,-29,77.8125,1.3125,0
38860,-19.0625,78.875,5.5,0
38900,-22.25,76.875,14.125,0
38910,-18.625,73.25,26.75,0
38930,-2.5,67.9375,40.6875,0
38950,8,65.8125,45.0625,0
38970,17.5625,68.8125,45.4375,0
38990,21.6875,70.25,49.5625,0
39010,8.25,67,56.1875,0
39030,-7.125,64.875,57.6875,0
39050,-2.625,58.0625,61.1875,0
39070,18.75,44.1875,65.75,0
39090,18.75,38.9375,71.0625,0
39110,-4.75,35.1875,76.6875,0
39130,5.3125,16.8125,74.875,0
39150,29.5625,-11.1875,72.375,0
39170,30.9375,-29.1875,68.1875,0
39190,-8.375,-37,60.4375,0
39210,-40.5625,-49.8125,54.5625,0
39230,-25.0625,-74,51.6875,0
39240,-3.75,-95.0625,45.375,0
39280,13.625,-103.188,34.375,0
39300,8.6875,-112.375,25.5625,0
39320,-1.3125,-124.375,20.3125,0
39340,-0.6875,-128.625,15.5625,0
39360,5.25,-127.375,4.0625,0
39380,2.25,-126.125,-5.25,0
39400,-4.25,-127.188,-12.4375,0
39420,-4.3125,-129.312,-22.5625,0
39440,-4.3125,-126,-34.3125,0
39460,-9.6875,-118.188,-43.875,0
39480,-20.4375,-110.188,-52.5,0
39500,-24.6875,-104.125,-58,0
39520,-13.8125,-96.625,-62.75,0
39540,-2,-83.25,-64.75,0
39560,-7,-65.375,-67.8125,0
39580,-23.9375,-47.1875,-71.8125,0
39600,-34.375,-34.625,-76.5625,0
39620,-39.8125,-26.4375,-81.5,0
39640,-46.625,-16.6875,-85.125,0
39660,-50.9375,1,-82.75,0
39680,-54.375,17.0625,-79.9375,0
39700,-56.5625,25.375,-76.0625,0
39720,-59,37.5,-75.5625,0
39740,-69.4375,54.75,-74.625,0
39760,-76.875,68.9375,-66.8125,0
39780,-62.3125,79.625,-57.875,0
39800,-32.8125,101.062,-20.375,0
39830,-13.5625,96.375,8.125,0
39850,-23.0625,97.125,17.25,0
39870,-22.625,89.6875,34.75,0
39890,-7.5,78.3125,49.375,0
39910,7.3125,70.875,51.1875,0
39930,13.75,73.5,55.125,0
39950,3.1875,68.5,63,0
39970,-16.5,60.625,70.75,0
39990,-23.625,52.875,72.9375,0
40010,-11.5,46.0625,71.6875,0
40030,7.125,36.3125,73.9375,0
40050,8.0625,31.0625,77.6875,0
40070,-3.9375,25.3125,75.1875,0
40090,-10.1875,11,68,0
40140,-5.9375,-31.0625,64.5625,0
40160,-11.6875,-34.375,66.0625,0
40180,-17.9375,-43.625,68,0
40200,-40.9375,-48.0625,61.875,0
40220,-38.875,-57.5625,57.625,0
40240,-28.3125,-68.125,49.0625,0
40260,-19.25,-78.5,37.5,0
40280,-18,-84.8125,27.5,0
40300,-21.0625,-90.8125,17.4375,0
40320,-16.25,-97.625,4,0
40340,-1.75,-102.188,-7.1875,0
40360,7,-102.938,-19.1875,0
40380,11.625,-103.938,-28.125,0
40400,10.625,-105.188,-35.5,0
40420,7.0625,-106.875,-41.875,0
40440,8,-104.438,-48.75,0
40460,6.9375,-99.6875,-53.9375,0
40480,2.625,-96.1875,-55.625,0
40500,-0.1875,-92.1875,-55.8125,0
40520,0.9375,-85.3125,-58.4375,0
40540,2.4375,-72.9375,-58.4375,0
40560,-1.5625,-61.875,-55.3125,0
40580,-1.6875,-54.5,-49.875,0
40600,0.5625,-46.75,-50.25,0
40620,2.6875,-35.4375,-47.75,0
40640,1.3125,-25.25,-42,0
40660,-6.375,-16.625,-34.9375,0
40680,-8.0625,-11.625,-29.875,0
40700,-2.0625,-8.625,-28.4375,0
40720,-7.375,-5.625,-27.4375,0
40740,-13.9375,1.6875,-20.125,2001
40760,-19.1875,8.125,-12.5625,0
40780,-15.875,8.5625,-3.1875,0
40800,-12.875,10.625,-1.9375,0
40820,-14.25,11.75,-1.5,0
40830,-17.0625,7.375,3.4375,0
40850,-9.4375,6.5,6.5,0
40870,-6.75,7.125,7.0625,0
40890,-0.125,4.4375,5.3125,0
40910,3.9375,6.25,8.4375,0
40930,6.5,9.5625,12.25,0
40950,0.0625,10.125,13.0625,0
40970,-9.4375,13.8125,16.3125,0
40990,-13.125,15.375,28.75,0
41010,-21.375,15,45,0
41030,-26.5,12.875,61.375,0
41050,-13.25,10.8125,76.25,0
41070,-6.125,8.6875,89.625,0
41090,0.125,2.0625,106.938,0
41110,17.3125,-3.5625,122.812,0
41130,32.9375,-0.0625,126.25,0
41150,33.25,12.3125,121.5,0
41170,22.3125,14.375,123.25,0
41190,13.625,15.75,127.25,0
41210,21.25,22.6875,122.375,0
41230,40.1875,25.375,106.438,0
41250,44.75,20.625,93.875,0
41270,42.3125,22.875,84.4375,0
41290,45,24.8125,58.1875,0
41310,30.4375,20.9375,44.75,0
41330,18.875,20,37.25,0
41350,23.875,19.875,29.5,0
41370,26.0625,15.875,20.5,0
41390,26,12.0625,17.5625,0
41410,23.9375,11.625,15.8125,0
41430,25.75,10.125,10.8125,0
41450,22.6875,7.9375,7,0
41470,14.4375,6.375,9.6875,0
41490,8.1875,1.75,6.0625,0
41510,-2.8125,-0.75,1.125,2000
41530,-5.3125,-5.0625,1.375,0
41550,1.75,-10.375,1.25,0
41570,-0.5,-17.625,-3,0
41590,7.375,-26.125,-6.75,0
41610,11.5625,-33.875,-12.875,0
41630,13.125,-38.125,-25.25,0
41650,14.25,-42.5,-37.6875,0
41670,14.6875,-49.625,-42.125,0
41690,14.1875,-54.8125,-43.5,0
41710,17.125,-51.5,-46.1875,0
41730,21.5625,-44.5625,-51.25,0
41750,22.25,-40.5,-54.6875,0
41770,13.5625,-33.4375,-56.125,0
41790,-7,-21.375,-55.875,0
41810,-22.0625,-8,-51.875,0
41830,-21.75,12.875,-46.9375,0
41850,-7.4375,33.75,-39.6875,0
41870,8.5625,51.0625,-31.3125,0
41890,3.1875,69.625,-33.0625,0
41910,-7.1875,84.0625,-42,0
41930,-23.125,90.9375,-47.375,0
41950,-42.1875,100.562,-48.4375,0
41970,-52.125,115.5,-49.8125,0
42000,-60.25,130.938,-56.0625,0
42030,-58.75,123.312,-43.9375,0
42050,-56.3125,121.688,-44.125,0
42070,-53.875,119.438,-34.875,0
42090,-44.625,107.938,-21.5625,0
42110,-30.9375,95.5,-15.625,0
42130,-23.9375,85.625,-6.9375,0
42150,-18.0625,77.6875,8.6875,0
42170,-1.8125,65.5,21.375,0
42190,9.75,53,26.125,0
42210,12.1875,46.0625,34.25,0
42230,13.1875,41.0625,38.875,0
42250,20.75,37.125,40.25,0
42270,27.375,34.3125,43.5625,0
42290,29.125,36.625,46.9375,0
42310,17.9375,45.375,53.875,0
42330,7.875,50.9375,52.25,0
42350,0.5625,48.6875,45.125,0
42370,27.125,31.625,49,0
42390,66,11.375,54.1875,0
42410,91.625,3.5,44,0
42430,77.75,-1.1875,33.25,0
42450,53.25,-20.5,34.4375,0
42470,53.625,-43.4375,35.3125,0
42490,64.8125,-56.875,35.875,0
42510,66.4375,-65.625,35.3125,0
42530,53.125,-75.6875,35.0625,0
42550,50.1875,-87.3125,36.125,0
42560,60.125,-102.062,34.75,0
42580,54.375,-117.812,34.0625,0
42600,41.375,-130.625,32.375,0
42620,24.5625,-140.875,23.875,0
42650,-17,-146.938,-4.625,0
42670,-17,-139.75,-10.3125,0
42690,-12.875,-128.375,-13.5625,0
42710,-10.25,-115.188,-19,0
42730,-8.375,-102.562,-25,0
42750,-8.8125,-92.1875,-27.8125,0
42770,-14.75,-77.25,-36.8125,0
42790,-27.1875,-59.875,-45.75,0
42810,-35.5,-47.625,-49,0
42830,-48.1875,-38.625,-50.9375,0
42850,-57.6875,-24.4375,-51,0
42870,-61.625,-4.6875,-53.3125,0
42890,-63.1875,11.3125,-53.25,0
42910,-60.625,28.375,-51.625,0
42930,-58.6875,47.3125,-53.6875,0
42950,-60.25,65.375,-56.1875,0
42970,-66.5,80.75,-50.1875,0
42990,-70.375,91.875,-39.25,0
43010,-60.4375,108.562,-38.3125,0
43030,-61.125,123.25,-37,0
43050,-63.0625,130,-20.5,0
43070,-51.9375,134.375,-8.1875,0
43090,-42.875,129.375,-9.125,0
43110,-41.9375,120.938,-1.5,0
43130,-37.3125,113.938,11.4375,0
43150,-27.5625,103.75,20,0
43170,8.8125,72.625,27.6875,0
43190,6.75,69.875,31.4375,0
43210,17.5,63.25,41.875,0
43230,39.4375,59.5625,44.625,0
43250,39.0625,50.6875,63.625,0
43270,71,38.6875,76.875,0
43290,89.3125,22.375,77.6875,0
43310,70.4375,12.4375,73.6875,0
43330,33.8125,5.125,72.0625,0
43350,7.9375,-15.3125,72.375,0
43370,-0.9375,-40.3125,73.4375,0
43380,-2.8125,-57.375,75.25,0
43400,5.75,-66.0625,73.75,0
43420,6.625,-74.5625,66.125,0
43440,-5.375,-82.6875,59.8125,0
43460,-15.375,-91.4375,51.75,0
43480,-17,-100.562,42.4375,0
43500,-18.1875,-108.438,33.5,0
43520,-17.9375,-114.125,23.1875,0
43540,-7.75,-119.562,11,0
43560,-4.6875,-128.438,2.25,0
43580,-11.875,-131.5,-12.125,0
43600,-9.25,-126.25,-30.5,0
43620,-17.375,-120.938,-50.8125,0
43640,-26.125,-117.875,-64.1875,0
43670,-9.8125,-115.812,-85.5625,0
43690,-7.75,-108.562,-85.25,0
43710,-19.4375,-96.6875,-83.5,0
43730,-36.5,-81.625,-82.0625,0
43750,-50.6875,-65.9375,-82.0625,0
43770,-59.9375,-51.75,-79.875,0
43790,-64.3125,-33.25,-80.0625,0
43810,-60.5,-15.6875,-79.0625,0
43820,-53.9375,-0.875,-73,0
43840,-50,15.125,-66.125,0
43860,-53.625,32.4375,-66.75,0
43880,-60.375,45.1875,-62.9375,0
43920,-62,84.25,-49.4375,0
43940,-53.125,95.4375,-51.25,0
43960,-52.3125,100.188,-44.75,0
43980,-49.75,109.125,-34.9375,0
44000,-31.25,118.125,-31.3125,0
44020,-35.375,117.312,-35.25,0
44040,-50.75,109.812,-35.3125,0
44060,-45.375,101.875,-28.4375,0
44090,3.875,61.1875,44.4375,0
44110,21.5625,57.875,54.8125,0
44150,33,48.375,51.3125,0
44170,8.25,51.9375,53.8125,0
44190,-18.0625,45.1875,57.6875,0
44210,22.9375,13.1875,72.8125,0
44230,24.875,10.5,74.75,0
44250,19.5,7.875,74.5625,0
44270,1.625,-0.1875,73.875,0
44290,-10.75,-10.6875,74.5625,0
44310,-10.3125,-20.75,77,0
44330,-9.9375,-27.3125,76.4375,0
44350,-13.125,-36.5625,75.3125,0
44370,-28.625,-53.375,70.375,0
44390,-34.8125,-73.1875,61.75,0
44410,-29.625,-87.3125,51.75,0
44430,-24.75,-94.875,41.3125,0
44450,-22.875,-100.75,34.1875,0
44470,-19.375,-102.688,25.5,0
44490,-22.1875,-104.062,16.6875,0
44510,-20.125,-105.562,7.625,0
44530,-12.5625,-105.312,-4.375,0
44550,-9.1875,-101,-12.5,0
44570,-10.4375,-96.4375,-23.125,0
44590,-9.125,-92.9375,-31.5,0
44610,-5.75,-88.375,-39.75,0
44630,-5.5625,-80.1875,-46.25,0
44650,-9.1875,-73.6875,-46.6875,0
44670,-12.375,-67.3125,-47.75,0
44690,-13.6875,-60.0625,-50,0
44710,-12.125,-51.25,-49.8125,0
44730,-13.8125,-41.8125,-46.4375,0
44750,-16.875,-31.375,-41.3125,0
44770,-8.8125,-21.625,-39.3125,0
44790,0.6875,-17.3125,-38,0
44810,-0.3125,-14.6875,-33.6875,0
44830,-4.25,-7.0625,-28.375,0
44850,-3.8125,2.4375,-10.8125,0
44880,-22,18.125,2.4375,0
44900,-29.5,15.4375,1.75,2001
44920,-33.25,9.875,0.6875,0
44940,-24.25,8.375,3.875,0
44960,-15.3125,9.875,2.125,0
44980,-10.25,7.5625,1.125,0
45000,-12.9375,2.9375,0,0
45020,-18.625,2.3125,-2.4375,0
45040,-21.6875,2.4375,-3.125,0
45060,-19.75,0.625,-2.3125,0
45080,-16.8125,-1.0625,0.75,0
45100,-8,-2.375,5.5625,0
45120,-6.25,0.0625,11.3125,0
45140,-11.5,3.0625,16.875,0
45160,-11.625,2.4375,25.0625,0
45180,-11.4375,0.4375,40.875,0
45200,4.625,-5.875,61.1875,0
45220,25.1875,-3.5625,86.5625,0
45250,60.0625,22.75,128.312,0
45270,52.9375,39.4375,140.25,0
45290,40.25,48.1875,144.875,0
45310,28.125,56.9375,148.312,0
45330,28.875,60.8125,132,0
45350,32.9375,64,113.062,0
45370,42,59.8125,92.375,0
45390,64.625,51.1875,75.5,0
45410,75.125,43.0625,63.4375,0
45430,65.3125,32.5,49,0
45450,45.8125,28.875,38.75,0
45470,31.5625,23.5,36.5625,0
45490,21.9375,12.9375,36.125,0
45510,13.75,1.125,37.125,0
45530,11.75,-1.9375,35.1875,0
45550,15.6875,-4.3125,32.125,0
45570,17.875,-7.25,25.6875,0
45590,13.375,-10.8125,19,0
45610,9.75,-11.25,14,0
45630,6.875,-13.375,12.25,0
45650,3.5625,-15.0625,13.75,0
45670,0.5,-18.0625,17,0
45690,-0.75,-17.625,19.1875,0
45710,-2.5,-13.5,19.3125,0
45730,-7.4375,-8.625,15.4375,0
45750,-5.6875,-3.8125,12.5625,0
45770,-3.625,-0.875,8.25,0
45790,1,-2,0.875,0
45810,15,-6.5,-1.9375,2000
45830,16.9375,-9.5625,-6.9375,0
45850,12.3125,-13.125,-11.375,0
45870,1.3125,-20.1875,-12.875,0
45890,-4.25,-24.75,-19.875,0
45910,-4.3125,-31.375,-21.25,0
45930,-8.125,-38.125,-21.5625,0
45950,-5.6875,-41.5,-26.8125,0
45970,-2.375,-43.0625,-35.5625,0
45990,-10.6875,-45.0625,-39.375,0
46010,-12.625,-45.625,-33.5,0
46030,-7.4375,-40.4375,-29.1875,0
46050,-7.75,-30.4375,-36.375,0
46070,-8.5,-21,-38.1875,0
46090,-6.875,-13.75,-34.125,0
46110,-3.125,-5.125,-31.875,0
46130,-13.1875,10.0625,-35,0
46150,-17.6875,22.6875,-40.375,0
46170,-22.9375,34.25,-42.5625,0
46190,-28.625,45.375,-39.0625,0
46210,-28.5625,59.3125,-39.6875,0
46230,-19.9375,73.6875,-42.5625,0
46250,-20.875,80.9375,-52.5625,0
46270,-36,90.875,-53.25,0
46290,-46.375,101.188,-50.0625,0
46310,-42.375,111.188,-53.9375,0
46330,-46.125,112.562,-53.3125,0
46350,-49.8125,111.375,-46.125,0
46370,-39.3125,111.375,-40.875,0
46400,-52.3125,96.5,-33,0
46420,3.5,68.125,0.6875,0
46440,4.4375,60.0625,13.5,0
46460,5.3125,50.0625,17.4375,0
46480,3.0625,43.375,16.3125,0
46500,9,40.375,21.1875,0
46520,20.0625,40.4375,25.625,0
46540,33.875,34.6875,30.25,0
46550,43.1875,30.3125,30.5625,0
46570,37.5,27.625,38.0625,0
46590,31.0625,35.5,48.4375,0
46610,39.6875,44.0625,42.9375,0
46630,40.4375,40.3125,32,0
46650,43.125,24.1875,36.4375,0
46670,63.75,13.25,41.0625,0
46690,64.375,5.1875,38.875,0
46710,55.3125,-5.5,38.4375,0
46730,37.625,-22.5625,39.8125,0
46750,25.9375,-41.375,45.125,0
46770,28.8125,-56.625,46.1875,0
46790,26.5625,-69.9375,42.3125,0
46810,13.4375,-80.125,36.5,0
46820,4.1875,-90.5,34.8125,0
46840,5.4375,-103.438,35.5625,0
46860,-3.3125,-113.25,32.625,0
46880,-11.375,-117.312,28.3125,0
46900,-5,-124.438,26.1875,0
46920,0.5625,-132.75,15.8125,0
46940,-4.625,-133.062,7.1875,0
46960,-7.75,-139.875,0.9375,0
46980,-7.125,-135.125,-2.6875,0
47000,-13.5,-128.062,-9.4375,0
47020,-19,-123.25,-14.3125,0
47030,-9.5625,-106.062,-27.125,0
47050,-7.375,-91.4375,-36.4375,0
47070,-17.5625,-79.375,-38.1875,0
47090,-21.9375,-68.6875,-34.75,0
47110,-21.9375,-59.625,-34.25,0
47130,-20.0625,-49.8125,-40.8125,0
47150,-24.4375,-40.375,-43.3125,0
47170,-34.0625,-29.375,-38.5625,0
47190,-26.5625,-16.75,-32.875,0
47210,-21.3125,-1,-37.0625,0
47230,-30.25,14,-40.5625,0
47250,-42.75,31,-39.6875,0
47270,-33.875,43.75,-38,0
47290,-33.5,57.1875,-41.0625,0
47310,-48.875,75.625,-42.25,0
47330,-54,85.5,-39.375,0
47350,-42.375,91.5,-38.0625,0
47370,-40.0625,103.625,-37.75,0
47390,-45.5,117.25,-38.5,0
47440,-13.125,87,-4.375,0
47460,-11.5625,77.9375,3.625,0
47500,11.75,60.9375,30.375,0
47520,2.8125,55.1875,36,0
47540,14.875,52.375,38.75,0
47560,28.375,49.875,32.75,0
47580,11.5625,48.4375,31.9375,0
47600,3.8125,50.25,35.4375,0
47620,5.8125,49.1875,36,0
47640,7.5625,42.9375,34,0
47660,4.875,36.1875,46.125,0
47680,15.75,28.25,49.5,0
47700,10.5625,17.5625,50.6875,0
47720,10.875,5.3125,48.8125,0
47740,9.25,-12.4375,53.5625,0
47760,6.4375,-24.75,58.375,0
47780,6.4375,-68.75,53.1875,0
47790,8.5625,-84.5,52.875,0
47800,13.625,-96.1875,43.4375,0
47830,26.375,-116.438,21.75,0
47850,39.5625,-119.812,12.5625,0
47870,42.6875,-121.5,4.625,0
47890,39.3125,-119.812,-0.5625,0
47910,29.9375,-117.75,-5.375,0
47930,19.8125,-116.5,-4.0625,0
47950,7.9375,-113.312,-1.75,0
47970,-3.3125,-106.812,-0.3125,0
47990,-13.4375,-102,-1.4375,0
48010,-14.5,-95.3125,-6.4375,0
48030,-20.0625,-90,-13.25,0
48050,-25.5,-84.3125,-19.25,0
48070,-17.75,-78.875,-27.875,0
48090,-6.8125,-70.4375,-37.8125,0
48110,-7.0625,-58.4375,-46.625,0
48130,-16.4375,-46.25,-54.5,0
48150,-26.0625,-39.6875,-62.6875,0
48170,-23.75,-34,-66.8125,0
48190,-21.375,-23.75,-72.9375,0
48210,-25.4375,-11.1875,-73.3125,0
48230,-36.3125,-0.75,-72.3125,0
48250,-40.3125,7.8125,-73.375,0
48270,-37.3125,19.0625,-71.875,0
48290,-34.75,30.5625,-65.125,0
48310,-44.5625,34.625,-55.1875,0
48330,-50.5,41.375,-41.625,0
48350,-56.8125,54.625,-33.9375,0
48370,-72.375,66,-30.375,0
48390,-64.8125,72.6875,-28.625,0
48410,-52.75,74.5625,-27.4375,0
48430,-38.3125,77.375,-23.4375,0
48450,-26.8125,83.1875,-17.8125,0
48470,-18,87.625,-17.5,0
48490,-20.375,89.4375,-18.8125,0
48510,-35.4375,91.75,-15.6875,0
48530,-35,93.625,-6.6875,0
48550,-29.6875,90.125,3.1875,0
48570,-30.9375,84.5,10.375,0
48590,-43.1875,85.875,21.25,0
48610,-34.1875,93.75,36.8125,0
48630,-37,89.5625,42.375,0
48650,-33,81,46.125,0
48670,-17.5,75.625,52,0
48690,-12.0625,70.1875,55.4375,0
48710,-27.0625,70.0625,60.0625,0
48730,-41.5,61.4375,58.75,0
48750,-35,44.9375,56.5625,0
48770,-20.5625,30.8125,54.25,0
48790,-3.6875,24.4375,55.0625,0
48810,-2.1875,19.5625,49.125,0
48830,-10.25,3.8125,43.5625,0
48850,-19.75,-15.875,43.375,0
48870,-9.8125,-30.5625,47.1875,0
48890,4,-43.0625,47.25,0
48910,-2.75,-54.125,43.75,0
48930,-16.6875,-65.9375,38.625,0
48950,-22.5,-79.125,32.75,0
48970,-19.0625,-91.1875,27.25,0
48990,-17.625,-97.8125,20.125,0
49010,-11.875,-101.062,13.6875,0
49030,-9.875,-108.5,7.0625,0
49050,-10.875,-117,0.375,0
49070,-9.5,-118.125,-10.375,0
49100,-7.6875,-105.312,-30.5625,0
49120,-9.25,-103.312,-36.8125,0
49140,-11.75,-101.312,-45.875,0
49160,-2.25,-86.875,-51.1875,0
49180,-4.0625,-71.3125,-50.4375,0
49200,-8.375,-61.5,-49.1875,0
49220,-13.8125,-53.1875,-49.875,0
49240,-11.0625,-42.625,-50,0
49260,-8.8125,-29,-50.125,0
49280,-7.625,-20.6875,-46.6875,0
49300,-6.375,-14.5625,-39.6875,0
49330,2.625,-5.6875,-40.5,0
49360,-12.0625,2.8125,-31,0
49380,-22.5,4.875,-25.125,0
49410,-9,7.125,-16.625,0
49420,-14.75,6.6875,-10.3125,0
49440,-10.125,-1.4375,-3.875,0
49460,-8.1875,-1.625,0,0
49480,-3.6875,0.875,4,2001
49500,-7.4375,5.5625,9.1875,0
49520,-4,5.6875,12.3125,0
49540,0.5,8.875,14.8125,0
49560,8.6875,11.875,18.5,0
49580,19.5,13.625,24.875,0
49600,33.1875,14.3125,36.625,0
49620,35.6875,10.25,46.4375,0
49640,34.375,11.6875,50.5,0
49660,27.5625,20.8125,55.9375,0
49680,26.6875,26.875,66.9375,0
49700,34.5625,21.9375,77.4375,0
49720,47.5625,20.875,86.5,0
49740,41.1875,27.75,95.25,0
49760,42.125,39.5625,102.188,0
49780,57.3125,45.1875,110.875,0
49800,57.6875,37.3125,120.5,0
49820,48.375,35.1875,118.375,0
49840,39.625,36.1875,107.5,0
49860,45.5625,30.125,95.4375,0
49880,38.8125,20.8125,85.875,0
49900,37.8125,20.4375,78.625,0
49920,34.6875,21.4375,66.5625,0
49940,26.5,20.6875,51.625,0
49960,12,18.125,40.6875,0
49980,2.75,12.5625,30.9375,0
50000,10,6.8125,21.4375,0
50020,28.75,4.6875,13.6875,0
50040,41.4375,5.8125,5.6875,0
50060,44.4375,7.5625,-1.8125,0
50080,40.5625,9.6875,-9,0
50100,31.125,12.6875,-14.75,0
50120,17.8125,17.625,-17.5625,0
50140,10.3125,23.8125,-17.6875,0
50160,8.1875,28.1875,-14.4375,0
50180,12.0625,33,-8.6875,0
50200,5.875,39.8125,-1.125,0
50220,-6.25,52,6.8125,0
50240,-17.5,65.5,15,0
50260,-29.5,70.8125,24.75,0
50280,-42.1875,65.875,38.0625,0
50300,-42.125,65.0625,42.25,0
50320,-28.125,75.3125,35.875,0
50340,-17.75,75.625,35.3125,0
50360,-14.0625,61.875,43.25,0
50380,3.5,64.5,46,0
50400,38.6875,70.125,37.0625,0
50420,59.0625,66.125,30.125,0
50440,56.875,56.4375,20.25,0
50460,62,51.9375,2.5,0
50460,72,54.25,-3,0
50490,48.0625,28.3125,-4.375,0
50500,36.4375,28,-17.875,0
50520,39.8125,31.8125,-29.9375,0
50540,40.8125,25.9375,-38.0625,0
50560,40.9375,19.5625,-47.8125,0
50580,47.375,19.5,-47.5,0
50580,52.3125,20.5,-38.125,0
50580,63.875,18.25,-39.6875,0
50600,53.3125,14.1875,-41.5,0
50620,20.9375,15.625,-40.0625,0
50640,5.4375,12.8125,-32.125,0
50660,-2.75,5.875,-21.0625,0
50680,-5.75,4.625,-13.4375,0
50700,-6.1875,6.75,-16.375,0
50720,-4.125,6.75,-17.6875,0
50740,-14.4375,7.875,-3.125,0
50760,-16.375,12.6875,-1.6875,0
50780,-18.25,13.5625,-0.0625,0
50790,-20.125,9.8125,-8.6875,0
50810,-4.375,2,-7.8125,0
50830,-8.9375,9.875,6,0
50850,-12.5625,15.125,5.4375,0
50870,8.25,5.625,5.9375,0
50890,16.8125,0.3125,0.8125,0
50910,3.9375,-2.875,-7.25,0
50930,-5.875,-5.625,-13.0625,0
50950,-18.1875,-3.8125,-10.5,0
50970,-27.5,-7.0625,-4.375,0
50990,-19.5,-12.5,-0.75,0
51010,-16,-6.875,1.9375,0
51030,-12.875,-2.125,6.0625,0
51050,-20.25,-2.375,7.375,0
51050,-28.875,-9.25,5.75,0
51070,-21.8125,-9.1875,0.75,0
51090,-6.6875,-0.5625,0.75,0
51100,-1.5,3.875,-2.375,0
51120,-5.9375,-1.5625,-8.375,0
51140,-11.125,-3.1875,-11.875,0
51160,-8.5,0.25,-12.6875,0
51180,8.3125,4.5625,-14.8125,0
51200,6.3125,7.1875,-6.0625,0
51220,-15.875,3.875,-7.5,0
51260,-5.3125,3.125,-13.1875,0
51280,-2.25,1.875,-8.9375,0
51300,0.5625,1.375,-5.75,0
51320,2.8125,1.6875,-8.5625,0
51340,6.375,1.4375,-10.5,0
51360,13.125,2.4375,-11.0625,0
51380,21.5625,3.0625,-10.3125,0
51400,24.25,4.0625,-7.4375,0
51420,16.25,5,-13.9375,0
51440,1.75,5.8125,-18.3125,0
51460,4.25,2.1875,-11.5625,0
51480,5.4375,4.6875,-7.75,0
51500,14,5.75,-4.4375,0
51520,17.8125,4.9375,-12.1875,0
51540,18.625,-2.4375,-8.25,0
51560,16.4375,-3.375,-9.75,0
51580,8.1875,-14.5625,4.6875,0
51600,1.875,-28.4375,-24.875,0
51620,14,-0.4375,-7.4375,0
51640,45.75,12.0625,-8.25,0
51660,40.5625,16.5,28.3125,0
51680,-1.4375,-16.25,-12.0625,0
51710,5.875,-5,-9.75,0
51730,7,12.625,3.125,0
51750,-12.25,14.8125,11.125,0
51750,11.5,3.875,-0.8125,0
51760,16,0.625,-2.1875,0
51770,-2,0.0625,4.1875,0
51830,-28.9375,-2.25,-5.4375,0
51850,-31.8125,-3.125,-2.3125,0
51870,-27.1875,-4.625,-5.8125,0
51890,-20.8125,-3.6875,-3.4375,0
51920,-16.6875,3,0,0
51940,-13.1875,1.4375,5,0
51960,-5.125,2.75,6.0625,0
51980,-3,2.625,4.5625,0
52000,-6.1875,1.375,5.875,0
52020,-6.3125,1.3125,3.0625,0
52040,-5.0625,0.25,-0.25,0
52050,-4.125,1.125,-0.25,0
52080,-9.375,-7.8125,-2.5,0
52100,-3.4375,-18.5625,-5.3125,0
52120,2.75,-24.5625,-2.25,0
52140,4.6875,-27.5625,-2.875,0
52160,3.4375,-34,-8.4375,0
52180,-8.1875,-41.625,-8.1875,0
52200,-22.375,-42.75,-12.75,0
52230,-14.75,-40.75,-41,0
52250,-25,-35.875,-44.8125,0
52270,-32.25,-32.4375,-44.4375,0
52290,-24.5625,-32.0625,-42.25,0
52310,-23.25,-37.5625,-36.1875,0
52330,-29.375,-46.0625,-28,0
52350,-30.25,-48.8125,-20,0
52370,-25.0625,-49.6875,-17.625,0
52390,-27,-53.875,-19.375,0
52410,-39.625,-57.125,-15.9375,0
52430,-42.9375,-58.0625,-13.8125,0
52450,-34.5625,-59.1875,-17.25,0
52460,-19.5625,-61.3125,-13.125,0
52480,-12.9375,-63.9375,-11.875,0
52500,-10.125,-61,-7.375,0
52520,-8.875,-52.75,0.875,0
52540,1.1875,-48.625,6.75,0
52560,-6.6875,-41.4375,6.75,0
52580,-20.75,-25.0625,9.875,0
52600,-22.5625,-16.375,16.4375,0
52620,-20.75,-14.8125,22.25,0
52640,-26.25,-6.3125,25.625,0
52660,-18.25,9.0625,24.3125,0
52680,-14.3125,17.5,20.9375,0
52700,-20.3125,19.9375,20.3125,0
52720,-17.1875,18.9375,24.0625,0
52740,2,18,25.5,0
52760,18.6875,15.8125,26,0
52780,13.25,15.8125,20.75,0
52800,6.375,18.25,7.5625,0
52820,6.75,11,-0.4375,0
52840,0.5,0.1875,-0.4375,0
52860,-5.6875,-6.25,-2.125,0
52880,7.375,-9.1875,-0.4375,0
52900,17.0625,-9.0625,3.4375,0
52920,9.4375,-9.375,3,0
52940,1.4375,-9.625,5.375,0
52960,-1.1875,-6.8125,11.5625,0
52980,-6.4375,-1.0625,14.3125,0
53000,-2.75,2.8125,14.625,0
53020,5.125,5.4375,13.1875,0
53040,12.25,3.625,5.875,0
53060,15.125,3.1875,4.375,0
53080,15.5,-6.6875,-1.25,0
53100,17.625,-21,-8.875,0
53120,16.3125,-35.1875,-14.25,0
53140,13.0625,-48.5,-20.375,0
53160,10.25,-61.5625,-27.5625,0
53180,5.4375,-67.375,-34.0625,0
53200,-2,-73,-35.3125,0
53220,-2.3125,-78.5,-29.8125,0
53240,5.375,-83.5625,-23.4375,0
53260,14.1875,-84.25,-21.8125,0
53280,13,-82,-15.4375,0
53300,3.375,-80.5,-5.9375,0
53320,-8.3125,-79.75,2.625,0
53340,-8.4375,-74.625,11.3125,0
53360,-0.5625,-64.9375,19.375,0
53380,1.625,-59.375,29.75,0
53400,2.3125,-54.25,45.9375,0
53420,27.1875,-40.9375,49.375,0
53440,34.6875,-20.625,47,0
53460,34.75,4.3125,53.125,0
53480,33.75,13,66.4375,0
53510,30.5,24.3125,74.25,0
53520,16.125,59,95.5625,0
53530,17.625,71,105.062,0
53550,30.75,82.8125,105.875,0
53570,32.125,91.5625,100.75,0
53590,11.25,93.9375,93.5625,0
53610,-8.6875,94.875,83.9375,0
53630,-17.1875,99.75,69.8125,0
53650,-31,96.4375,55.5625,0
53670,-37.875,105.875,44.625,0
53690,-46.9375,103.25,37.25,0
53710,-31.5625,97.25,28.1875,0
53730,-7.375,94.125,15.875,0
53750,2.0625,90.0625,-0.5625,0
53770,-2.8125,82.25,-18.125,0
53790,11.0625,63.8125,-44.125,0
53810,23.6875,37.8125,-63.375,0
53830,31.25,9.0625,-79.6875,0
53850,45.5625,-16.625,-92.75,0
53870,56.75,-35.8125,-104.812,0
53890,54.6875,-50.875,-112.188,0
53910,57.6875,-60.3125,-117.438,0
53930,56.75,-63.4375,-116.438,0
53950,43.875,-62.125,-107.125,0
53970,33.375,-57.3125,-95.75,0
53990,22.6875,-48.0625,-87.125,0
54000,7.375,-36.6875,-72.375,0
54020,-2.6875,-24.5,-57.25,0
54040,-4.875,-14.9375,-43.5,0
54060,-3.1875,-7.5625,-32.8125,0
54080,-5.125,-3.125,-22.5625,0
54100,-4.875,-0.6875,-14.125,0
54120,-6.8125,1,-7.9375,0
54140,-10.75,2.0625,-4.9375,0
54150,-23.0625,7.5,-1.3125,0
54170,-21.75,13.8125,3.125,0
54190,-14.9375,9.9375,7.375,0
54210,-15.375,8.0625,11.875,0
54230,-7.625,10.875,14.9375,1000
54250,0.9375,6.0625,12.375,0
54270,-11.375,5.0625,13.625,0
54290,-11.875,7.5625,11.5,0
54310,-6.5625,6.625,3.1875,0
54330,-0.3125,2.5,0.4375,0
54350,10.875,-1.6875,-1.5,0
54370,19.0625,-8.0625,-5.0625,0
54390,20.25,-16.8125,-5.625,0
54410,10.5625,-27.75,-10.8125,0
54430,9.875,-40.5,-18.9375,0
54450,7.5,-49.3125,-18.375,0
54470,6.25,-54.1875,-19.5625,0
54490,7,-61.875,-21.625,0
54510,7.4375,-70.6875,-22.5,0
54530,6.6875,-74.625,-19.1875,0
54550,2.125,-73,-13.8125,0
54570,-11.125,-73.5,-5.9375,0
54590,-8.25,-75.875,1,0
54610,5.625,-75.8125,6.9375,0
54630,10.0625,-65.125,13.1875,0
54650,5.5,-57.125,24.75,0
54670,1.75,-55.0625,36.25,0
54690,6.1875,-54.5625,42.0625,0
54710,19.25,-42.8125,43.5625,0
54730,22.5,-30.6875,49.875,0
54750,13.0625,-23.0625,57.0625,0
54770,13.4375,-16.1875,63.4375,0
54790,20.4375,-6,64.875,0
54810,31.25,5.4375,66.625,0
54830,32,13.8125,73,0
54850,15.0625,22.25,82.4375,0
54870,18.5,38.875,88.1875,0
54890,32.1875,52.4375,92.4375,0
54910,22.625,59,94.625,0
54930,18.25,69.0625,98.625,0
54950,21.3125,80.5625,90.8125,0
54970,13.375,88.875,72.625,0
54990,-10.8125,90.875,61.5625,0
55010,-26.625,96,52.75,0
55030,-27.5,104.938,34.125,0
55050,-24,111.562,16.25,0
55070,-27.1875,110.625,11.625,0
55090,-25.0625,106.75,17.625,0
55110,-4.75,104.938,12,0
55130,3.8125,101.75,0.8125,0
55150,-3.625,102,-2.25,0
55170,-9.8125,102.5,-8.4375,0
55190,-5.75,99.5,-18.25,0
55210,-0.5,90.625,-25.125,0
55230,4.4375,83.6875,-33.4375,0
55250,19.375,74.9375,-44.4375,0
55270,28.3125,65.8125,-54.8125,0
55290,24.8125,54.375,-60.875,0
55310,23,38.625,-66.8125,0
55330,38,22.8125,-72.4375,0
55350,47.0625,6.8125,-77.9375,0
55370,49.75,-4.6875,-79.5,0
55390,47.375,-15.875,-81.1875,0
55410,41.3125,-29.375,-81.6875,0
55430,35.8125,-43.3125,-82,0
55450,36.375,-56.875,-81.625,0
55470,32.375,-69.4375,-80.1875,0
55490,25.8125,-77.75,-78.3125,0
55510,22.9375,-84.5625,-77.25,0
55530,19.9375,-92.1875,-72.3125,0
55550,15.0625,-98.4375,-66.875,0
55570,10.8125,-101.812,-63.3125,0
55590,1.75,-102.375,-57.75,0
55610,0.625,-102,-51.0625,0
55630,-3.1875,-98.375,-46,0
55650,-14.625,-90.375,-40.375,0
55670,-9.375,-83.0625,-33.6875,0
55690,-1.3125,-79.375,-28.5,0
55710,-0.3125,-76.625,-17.9375,0
55730,-5.5,-70.0625,-11.1875,0
55750,-2.4375,-56.25,-2.4375,0
55770,3.125,-48.375,8.8125,0
55790,-2,-43.375,20.6875,0
55810,-1.0625,-29.8125,36.5,0
55830,8.375,-13.6875,53.3125,0
55850,18,-4.0625,64.25,0
55870,25.125,5.5625,76.3125,0
55890,34.1875,25.1875,88.4375,0
55910,37.9375,43.75,98.0625,0
55930,32.4375,52.125,100.125,0
55950,36.1875,58.25,101.125,0
55970,47.5625,69.4375,105,0
55990,38.875,79,105.562,0
56010,26.125,82,101.75,0
56030,26.1875,83.875,101.188,0
56050,24.4375,82.75,102.562,0
56070,14.25,80.75,98,0
56090,8.875,77.875,92.625,0
56110,-7.9375,77.5625,87.625,0
56130,-13.875,79.75,69.75,0
56150,-18.5,86.5625,49.375,0
56170,-26.25,87.5,37.1875,0
56190,-22.875,83.875,31.875,0
56210,-0.0625,80.625,16.5,0
56250,3.625,80.3125,-11.8125,0
56270,-14.75,77.375,-18.4375,0
56290,-7.8125,69.8125,-40.25,0
56310,-4.875,64.4375,-53.375,0
56330,5.0625,59.0625,-59.125,0
56350,29.6875,45.3125,-71.125,0
56370,51.125,31,-87.5625,0
56430,50.9375,-14.0625,-109.125,0
56450,54.5625,-22,-113.5,0
56470,57.375,-30.375,-114.375,0
56490,55.5,-40.25,-116.438,0
56510,53.125,-50.375,-118.875,0
56530,50,-59.0625,-117.938,0
56550,45.5,-67,-115.812,0
56570,34.5625,-74.0625,-111.75,0
56590,23.25,-81.6875,-105.875,0
56610,11.625,-88.6875,-98.125,0
56630,-0.6875,-94.0625,-89.9375,0
56650,-8.5625,-95.125,-81.5625,0
56670,-14.875,-93.875,-69.6875,0
56690,-24.3125,-89.9375,-57.5625,0
56710,-36.375,-85.25,-47.0625,0
56730,-35.3125,-81.5625,-32.6875,0
56750,-31.25,-77.0625,-16.875,0
56770,-34.75,-71.25,-8.5625,0
56860,26.125,43.4375,101.812,0
56870,31.5,55.75,105,0
56880,46,75.8125,102.75,0
56900,50.4375,90.625,97.875,0
56920,50.625,88.75,97.625,0
56920,50.125,88.125,90.5625,0
56930,-7.3125,66.4375,70.3125,0
56940,-15.1875,62.25,60.375,0
56960,-16.6875,58.75,58.3125,0
56980,-14.625,52.0625,50.5,0
57000,-15.3125,48.4375,47.5625,0
57020,-6.875,49.5625,37.5625,0
57040,1.4375,53.3125,26.0625,0
57050,-10.0625,59.25,15.75,0
57070,-27.1875,64.3125,1.375,0
57090,-26.6875,66.375,-8.8125,0
57110,-4.6875,55.125,-18.75,0
57130,18.25,44.5625,-27.8125,0
57140,26.6875,41.375,-61.4375,0
57170,29.3125,7,-80.125,0
57190,51.4375,-6.75,-83,0
57210,66.875,-18.75,-89.875,0
57230,65.5,-28.1875,-90.9375,0
57250,54.9375,-34.125,-91,0
57270,44.9375,-38.75,-92.875,0
57290,35.0625,-44,-90,0
57310,31.6875,-48.625,-87.1875,0
57330,28.9375,-52.3125,-84.0625,0
57350,27.75,-55.125,-80.375,0
57370,21.9375,-60,-77.1875,0
57390,11.9375,-64.4375,-71.8125,0
57410,2.0625,-67.9375,-66.5,0
57430,-4.3125,-70.4375,-61.5,0
57450,-7.5625,-71.4375,-55.125,0
57470,-11.0625,-70.4375,-48,0
57490,-11.375,-68.5,-40.5625,0
57510,-14,-61.875,-34.5625,0
57530,-17.6875,-53.625,-29,0
57550,-18.3125,-52.1875,-26.5,0
57580,-13.6875,-44.75,-14.75,0
57600,-14.6875,-37.125,-11.75,0
57620,-19.5625,-37.25,-9.75,0
57640,-1.125,-28.75,-5.8125,0
57660,2.5,-18.5,-2.6875,0
57680,-3.875,-17.375,-2.5,0
57700,-12.4375,-20.9375,-6.25,0
57720,-10.8125,-20.25,-6.8125,0
57740,-4.75,-15.625,-7.0625,1001
57760,-4.6875,-11.9375,-9.125,0
57780,-7.375,-13.4375,-7.375,0
57790,0,-5.5,-15,0
57810,-5.3125,-1.25,-17.125,0
57820,-11.25,0.6875,-16.375,0
57830,-10.9375,3.375,-13.875,0
57850,-8.3125,1.25,-13.6875,0
57870,-10.8125,5.5,-9.875,0
57890,-13.875,7.875,-0.625,0
57910,-6.4375,7,6.75,0
57930,-1.75,6.375,9.0625,0
57960,-1.5,7.3125,9.25,0
57970,5.4375,-2.75,15.875,0
58010,22.0625,-28.375,46.1875,0
58030,18.75,-35.625,49.75,0
58050,20.5625,-37.875,58.3125,0
58070,23.0625,-39.6875,63.375,0
58090,20.625,-40.0625,60.4375,0
58110,26.8125,-43.5625,60.9375,0
58130,27.5,-46.5,66.4375,0
58150,22.125,-44.1875,67.625,0
58170,19.5625,-37.625,60.4375,0
58190,14.5,-30.4375,50.4375,0
58210,5.3125,-23.9375,41.5,0
58230,-4.4375,-19.1875,36.6875,0
58250,-4.5625,-13.625,33.5625,0
58270,7.8125,-10.8125,30.5625,0
58290,21.0625,-4.625,27,0
58310,15.375,2.3125,24.8125,0
58330,7.25,8.3125,23.25,0
58350,-4.9375,12.3125,18.625,0
58370,-9.9375,17.9375,13.3125,0
58390,-13.1875,24.875,8.75,0
58410,-13.8125,26.75,4.375,0
58430,-17.5625,29.3125,-3.375,0
58450,-8.3125,26.4375,-8.5625,0
58470,3.75,21.3125,-7.0625,0
58490,10.0625,16.25,-9.3125,0
58510,13.375,16.9375,-11.5625,0
58530,9.125,19.4375,-12.5,0
58550,-6.8125,18.625,-14.3125,0
58570,-9.4375,11.4375,-13.25,0
58590,2.125,4.625,-10.0625,0
58610,14.625,-1.3125,-7,1000
58630,18.1875,-5.375,-7.4375,0
58650,15.0625,-12.3125,-5.25,0
58670,12.0625,-21.625,-7.75,0
58690,5.0625,-29.3125,-10,0
58710,3.875,-40,-17.5625,0
58730,6.75,-51.4375,-21.625,0
58750,7.6875,-58.5,-18.75,0
58770,9.4375,-64.375,-19.8125,0
58790,10.9375,-68.875,-18.375,0
58810,11.125,-71.625,-14.125,0
58830,13.375,-72.125,-11.75,0
58850,12.3125,-73.5,-6.8125,0
58870,7.3125,-75.0625,-2.375,0
58890,6.875,-71.625,2.4375,0
58910,10.625,-62,6.5625,0
58930,5.0625,-54.25,13.1875,0
58950,-5.1875,-50.5625,20.9375,0
58970,2.75,-45.3125,30,0
58990,16.0625,-39.25,36.0625,0
59010,21.5,-30,36.125,0
59030,22.4375,-25.8125,42.3125,0
59050,24.75,-26.375,44.1875,0
59070,12.5,-16.5,34.125,0
59090,-1.6875,8.3125,23.6875,0
59110,4.1875,25.4375,28.625,0
59130,8.5625,30.75,24.0625,0
59150,11.25,30.375,20.6875,0
59170,5.125,31.3125,34.6875,0
59190,9.875,36.75,50.5,0
59210,18.1875,42.4375,62.875,0
59230,9.125,46.875,76.875,0
59250,7.9375,55.5,87.5,0
59270,16.625,64.0625,89.375,0
59290,16.5625,73.4375,82.25,0
59310,13.375,77.8125,79.25,0
59330,1.4375,78.6875,85.6875,0
59340,-3.25,85.375,85.9375,0
59360,-0.8125,93.375,76.5625,0
59380,0.9375,98.0625,70.4375,0
59400,7.75,97.875,67.875,0
59420,3.4375,100.188,58.9375,0
59440,-5.125,103.938,39.8125,0
59460,-11.4375,103.375,23.3125,0
59480,-7.4375,96.75,16.125,0
59500,2.5625,89.9375,5.875,0
59520,12.5,85.0625,-9.3125,0
59540,9.625,77,-23.8125,0
59560,4.375,64.125,-34.8125,0
59590,16.0625,39.25,-65.375,0
59610,24.875,28.375,-88.75,0
59630,36.25,14.375,-101.938,0
59650,53.6875,-0.4375,-113.625,0
59670,61.6875,-14.1875,-125.5,0
59690,60.0625,-26.1875,-130.188,0
59700,55.8125,-34.75,-132.125,0
59720,48.6875,-43.375,-130.625,0
59740,42.4375,-53.25,-124.688,0
59760,38,-60.6875,-117.375,0
59780,32.6875,-66,-109,0
59800,21.375,-72.1875,-98.25,0
59820,3,-77.8125,-84.9375,0
59840,-12.8125,-82.125,-76.75,0
59860,-22.5625,-84.5,-68.3125,0
59880,-27,-85.8125,-58.5,0
59900,-28.375,-88.125,-50,0
59920,-26.1875,-88.25,-42.5625,0
59940,-23.5625,-84.25,-33,0
59960,-32.5,-80.875,-19.5,0
59980,-26.8125,-77.3125,-8.9375,0
60000,-16.1875,-72.8125,-1.4375,0
60020,-12.625,-70.125,5.3125,0
60040,-19.125,-66.9375,15.8125,0
60060,-14.3125,-61.375,28.3125,0
60080,-6.8125,-50.75,35.3125,0
60100,-6.25,-39.5,43.0625,0
60110,41.6875,13.125,86.5,0
60130,56,27.25,98.375,0
60140,84,71.125,116.25,0
60140,97.3125,83.875,114.938,0
60160,79.375,86.625,101.25,0
60180,69.75,96.875,85.3125,0
60200,69.8125,107.875,74.125,0
60220,55.625,103.5,55.3125,0
60240,38.3125,97.4375,39.1875,0
60260,23.875,97.0625,30.125,0
60280,2.75,93.625,17.375,0
60300,-23.75,90.3125,6.5625,0
60320,-33.0625,88.5,-0.0625,0
60340,-30,83.75,-5.4375,0
60360,-25.125,72.8125,-7.4375,0
60380,-21.375,68.5625,-8.875,0
60410,9.9375,62.8125,-31.125,0
60430,3.4375,60.0625,-39.5,0
60450,-6.4375,51.8125,-56.125,0
60470,-2.375,40.75,-72,0
60480,11.4375,28.25,-79.5625,0
60520,45.0625,-5.0625,-92.25,0
60540,51.5625,-22.8125,-94.875,0
60560,39.6875,-32.6875,-99.125,0
60580,20.3125,-41.125,-103.875,0
60600,12.5,-52.4375,-103.188,0
60620,15.6875,-62.4375,-100.062,0
60640,10.625,-67.25,-96.625,0
60660,5.4375,-69.75,-95,0
60680,3.875,-74.1875,-91.0625,0
60700,-3.625,-78.5625,-87.8125,0
60720,-13.625,-80.8125,-84.375,0
60740,-18.25,-80.5625,-81.0625,0
60760,-16,-78.3125,-75.6875,0
60780,-17.9375,-75.9375,-70.8125,0
60800,-28,-74.0625,-62.9375,0
60820,-37.5,-73.125,-51.875,0
60840,-39,-69.25,-37.375,0
60860,-38.9375,-63,-24.875,0
60880,-38.3125,-57.75,-11.1875,0
60900,-40.125,-53.4375,4.6875,0
60920,-44.875,-44.9375,20.625,0
60950,-51.75,-27.6875,47.5,0
60980,-26.3125,-10.4375,75.1875,0
61000,-21.1875,9.9375,86.8125,0
61020,18.75,37.8125,110.375,0
61040,20.625,57,107.812,0
61060,35.9375,75.8125,107.5,0
61080,54.1875,87.5,110.062,0
61100,59.0625,88.8125,111.375,0
61120,67.1875,90.5,108.438,0
61140,58.1875,87.1875,109.25,0
61160,47.1875,81.5,109.688,0
61180,40.5625,76.75,104.188,0
61200,35.0625,71.625,90.25,0
61220,13.875,67.4375,79.1875,0
61240,10.6875,59.8125,73.5,0
61260,2.375,54.5,54.6875,0
61280,-11.5,56.625,38.25,0
61290,-21.375,57.375,29.25,0
61310,-21.0625,49.0625,21.0625,0
61330,0.0625,46.5625,0.5625,0
61350,12.4375,45.375,-8,0
61370,19.8125,41.1875,-14.125,0
61390,21.3125,33.125,-24.5,0
61410,13.5625,29.875,-34.5625,0
61430,7.875,29.625,-36.8125,0
61450,5.75,29.375,-41.3125,0
61470,10.875,27.5625,-51,0
61490,17.0625,29.9375,-56.4375,0
61510,24.5625,25.625,-60.875,0
61520,22.0625,20.875,-63.6875,0
61540,19.5625,22.1875,-61.6875,0
61560,16.9375,19.9375,-68.6875,0
61580,15.75,6.25,-72.875,0
61600,18.9375,-8.875,-71,0
61620,25.5,-20,-72.0625,0
61640,26.0625,-30,-75.625,0
61660,17.625,-37.125,-79.375,0
61680,11.625,-44.125,-79.9375,0
61700,8.875,-51.1875,-77.25,0
61720,2.4375,-57.5625,-73,0
61740,-4.125,-60.3125,-70.5,0
61760,-14.4375,-60.875,-64.8125,0
61780,-20.875,-60.4375,-56.4375,0
61800,-25.0625,-60.25,-47.25,0
61820,-24.625,-58.375,-40.8125,0
61840,-21,-50.5,-37.125,0
61860,-28.125,-43,-32.5625,0
61880,-36.5,-38.8125,-29.4375,0
61900,-34.8125,-34.625,-29.1875,0
61920,-30.1875,-25.25,-28.9375,0
61940,-23.9375,-19.4375,-27.75,0
61960,-24.4375,-17.25,-20.625,0
61980,-31.6875,-15.375,-14.5625,0
62000,-24.75,-16.1875,-16.25,0
62020,-3.6875,-19.3125,-14.5625,0
62040,0.8125,-20.875,-8.4375,0
62060,-6.875,-13.8125,-5.375,0
62080,-17.875,-7.375,-3.1875,0
62100,-21.75,-9.5625,-0.1875,0
62120,-11.0625,-13.3125,0.3125,0
62140,-5.75,-12.3125,-0.1875,0
62160,-4.625,-8.25,0.5,0
62180,-5.5,-10,-2,0
62200,-4.5,-12.9375,-6.25,0
62220,-4.3125,-10.625,-10.6875,0
62240,-6.5625,-8.75,-11.0625,0
62260,-8.75,-10.6875,-13.25,0
62280,-1.0625,-11,-12.875,0
62300,3.9375,-9.4375,-10.125,0
62320,3.5625,-6.625,-3.875,0
62340,0.1875,-4.875,-1.6875,0
62360,0.9375,-3.0625,0.125,1001
62390,4.1875,-5.625,10.625,0
62410,5.125,-6.0625,9.625,0
62430,2.75,-6.375,3.5,0
62440,-3.0625,-13,2.375,0
62460,-11.5,-15.6875,2.125,0
62480,-17.1875,-12.0625,3.25,0
62500,-3.125,-12.3125,6.6875,0
62520,5.4375,-13.6875,11.5,0
62540,19.5,-19.3125,21.6875,0
62560,37.25,-29.125,30.5625,0
62580,49.6875,-36.625,44.9375,0
62600,41.1875,-44.5625,59,0
62620,38.125,-54.5625,64.75,0
62640,45.375,-59.75,72.1875,0
62660,38.0625,-61.4375,75.375,0
62680,20.3125,-63.0625,70.875,0
62700,17.5,-66.5,66.4375,0
62750,15.8125,-57.125,45.0625,0
62760,14.8125,-49.625,30.9375,0
62780,18.8125,-45.625,20.5,0
62800,15.5625,-39.875,21.625,0
62820,17.5625,-27.1875,21.75,0
62840,20.25,-11.125,15,0
62860,17.625,-4.625,13.8125,0
62880,12.8125,-7.0625,12.8125,0
62900,9.25,-0.5625,9.4375,0
62920,13.125,7.5625,8.0625,0
62940,15.125,10.8125,5.1875,0
62960,0.8125,18.375,-0.125,0
62980,-12.25,22.5625,-0.5,0
63000,-15.4375,26.0625,0.25,0
63020,0.1875,26.375,0.875,0
63040,22.3125,24.25,-0.1875,0
63060,25.625,20.375,3.8125,0
63080,18.625,20.8125,10.6875,0
63100,12,21.4375,11.5625,0
63120,-2.1875,20.0625,8.75,0
63140,-10.75,17.3125,6.875,0
63160,-0.125,16.6875,6.4375,0
63180,2.9375,15.875,6.5,0
63200,-3.625,11,7.4375,0
63220,-4.375,9.8125,7.6875,0
63240,7.0625,9,8.1875,0
63260,0.3125,5.3125,10.625,0
63280,-3.6875,4.375,14.125,1000
63300,-0.25,4,10.125,0
63320,5.5625,-1.4375,2.3125,0
63340,0.25,-5.9375,7.9375,0
63360,2.125,-10.125,5.1875,0
63380,8.1875,-16.0625,-6.75,0
63400,7.625,-22.75,-11.6875,0
63420,4,-31.8125,-20,0
63440,9,-42.625,-24.3125,0
63460,10.6875,-49.75,-26.5,0
63480,8,-54.1875,-26.125,0
63500,3.8125,-60.0625,-22.9375,0
63520,1.0625,-66.0625,-16.375,0
63540,-0.625,-67.4375,-8.625,0
63570,-8.375,-68.5,6.875,0
63590,-13.6875,-72,19.0625,0
63610,-14.4375,-70.9375,30.3125,0
63630,-11.6875,-62.8125,37,0
63650,-2.25,-55.875,46.1875,0
63670,7.25,-54.875,56.6875,0
63690,22.4375,-53.9375,62.8125,0
63710,35.1875,-42.8125,64.5,0
63730,36.9375,-24.25,66.9375,0
63750,49.3125,-14.25,72.5,0
63770,40.0625,-13.375,75.6875,0
63790,52.25,-7.5625,76.25,0
63810,76.75,7.875,78.9375,0
63830,75.9375,21,82.4375,0
63860,49.5,67.125,84.6875,0
63880,38,80.25,82.5,0
63900,33.625,87.75,84.9375,0
63920,30,94.1875,76.25,0
63940,28.4375,104.312,54.375,0
63960,10.375,109.5,34.1875,0
63980,-23.0625,116.125,20.4375,0
64000,-41.625,123.375,4.6875,0
64020,-45.9375,123.125,-11.25,0
64040,-31.4375,116.312,-16.5625,0
64060,-11.9375,103.125,-16.125,0
64080,5.4375,93.8125,-22.375,0
64100,6.6875,90.6875,-32.5625,0
64120,-7.625,86.75,-47.25,0
64140,-13.5625,77.125,-61.125,0
64160,-3.0625,66.625,-71.5,0
64180,18.0625,57.125,-77.75,0
64200,27.875,51.5,-87.6875,0
64220,33.5625,42.75,-99.25,0
64240,31.5625,26.5,-102,0
64260,36.3125,8.3125,-100.25,0
64280,46.375,-3.875,-102.938,0
64300,44.6875,-16.75,-102.188,0
64320,28.3125,-25.6875,-98.25,0
64340,19.9375,-31.5,-93.875,0
64360,14.375,-38.4375,-90.1875,0
64380,11.125,-47.4375,-86.3125,0
64400,12.6875,-53,-82.9375,0
64420,11.25,-56.5,-78.625,0
64440,5.375,-61.0625,-71.0625,0
64460,0.4375,-66.625,-64.25,0
64480,-7.375,-74,-60.4375,0
64500,-7.5,-79.9375,-57.5625,0
64520,-5.75,-80.6875,-50.75,0
64540,-12.875,-77.4375,-39.1875,0
64560,-21.125,-72.3125,-27.125,0
64580,-18.5625,-68.4375,-15.625,0
64600,-9.25,-64.4375,-7.5625,0
64620,5,-63,2.5625,0
64640,6.625,-64.25,20.625,0
64660,-0.4375,-60.1875,35.5,0
64680,3.4375,-50.875,51.5,0
64700,12.6875,-38.4375,67.1875,0
64720,21.5625,-18.625,78.1875,0
64740,28.375,5.0625,90.8125,0
64760,37.375,30.375,104,0
64780,56.25,59.625,104.75,0
64800,72.1875,81.0625,107.875,0
64820,92.5625,80.875,127.312,0
64840,104.938,81.8125,120.688,0
64860,95.9375,86.25,92.625,0
64880,83.6875,95.1875,78.5,0
64900,61.0625,92.5,70.75,0
64920,30.125,87.625,55.3125,0
64940,4.6875,85.375,36.8125,0
64960,-11.75,83.25,22.6875,0
64980,-35.375,73.8125,12.375,0
65000,-21.875,67.6875,12.0625,0
65020,-4.3125,64.1875,8.625,0
65040,8.1875,61.125,-4.75,0
65060,-1.875,60.375,-10.0625,0
65080,-19.875,61.8125,-14.4375,0
65090,-16.375,61.9375,-27.875,0
65110,-8.75,62.75,-42.375,0
65130,-8.5625,61.5,-46.3125,0
65150,5.9375,60,-51,0
65170,12.1875,58.5625,-64.4375,0
65190,15.875,49.75,-74.5625,0
65210,31.8125,31.75,-75,0
65220,53.375,-1.75,-80.8125,0
65240,46.6875,-13.3125,-87.9375,0
65260,34.1875,-26.1875,-91.625,0
65280,24.0625,-38.25,-91.1875,0
65300,17.5,-49.0625,-88.4375,0
65320,14.0625,-56.25,-87.0625,0
65340,12,-61.25,-83.9375,0
65360,4.375,-65.3125,-82.0625,0
65380,-1.5,-69,-80.5625,0
65400,-8.8125,-73.8125,-78.8125,0
65420,-8.625,-75.375,-76.5,0
65440,-11.1875,-74.5,-75.8125,0
65460,-17.8125,-72.4375,-71,0
65480,-26.5,-70.5625,-68.5,0
65500,-22.5,-68.125,-68.3125,0
65520,-11.9375,-65.25,-65.0625,0
65530,-14.5,-58.9375,-59.6875,0
65550,-29.8125,-52.25,-51.5,0
65570,-31.625,-49.875,-40.3125,0
65590,-24.8125,-43.25,-29.6875,0
65610,-19,-41.375,-20.6875,0
65630,-15.5625,-39.4375,-6.8125,0
65650,-17.9375,-33.6875,8.375,0
65670,-20.4375,-19.25,23.375,0
65690,-21.6875,-5.75,36.75,0
65710,-20.4375,-0.125,52.25,0
65720,-3.125,34.625,100.5,0
65740,43.1875,44.375,112.375,0
65760,49.25,55.625,114.188,0
65780,42.6875,79.375,121.438,0
65800,45.4375,91.3125,128.438,0
65820,38.375,83.625,116.625,0
65840,44.875,84.1875,111.188,0
65860,60.6875,90.5,114.438,0
65880,52.0625,78.875,109.25,0
65900,30.1875,71.9375,96.0625,0
65910,-12.625,72.9375,72.875,0
65930,-25.5,67.0625,61.125,0
65950,-15.125,62.375,53.5,0
65960,-6.375,56.75,46.625,0
65980,-10.6875,56.25,40.9375,0
66000,-12.5,50,34.3125,0
66020,1.25,48.25,21.6875,0
66040,17.5625,42.8125,7.375,0
66060,12.1875,41.0625,10.125,0
66080,-8.4375,43.9375,3.125,0
66100,-21.875,50.6875,-17.9375,0
66120,-29.875,47.25,-26.6875,0
66140,-16.9375,37.875,-24.5,0
66160,5.375,35.125,-31.5625,0
66180,10.25,35.1875,-43.625,0
66200,3.9375,31.0625,-48,0
66220,-1.3125,22.1875,-53.0625,0
66240,5.3125,12.0625,-61.5625,0
66260,15.3125,1.4375,-63.4375,0
66280,25.5,-4.75,-65.3125,0
66300,23.8125,-12.25,-67.0625,0
66320,16.625,-21,-67.625,0
66340,19.9375,-26.5,-70.375,0
66360,37,-30.625,-74,0
66380,49.4375,-35.5,-78.6875,0
66400,58.25,-37.8125,-80,0
66420,62.4375,-41.25,-79.5625,0
66440,53.5625,-47.5625,-80.375,0
66460,41.4375,-51.75,-75.9375,0
66480,28.8125,-56.3125,-72.6875,0
66500,19.8125,-59.0625,-69.5625,0
66520,10.6875,-58.5625,-64,0
66540,1.625,-58.25,-60.8125,0
66560,-8.3125,-58.25,-55.75,0
66580,-12.8125,-56.8125,-48.375,0
66600,-17.375,-50.8125,-42.9375,0
66620,-24.4375,-45,-37.5,0
66640,-27.75,-39,-30.375,0
66660,-23.625,-36.9375,-22.4375,0
66680,-22.25,-35,-19.75,0
66700,-30.6875,-30.375,-13.75,0
66720,-39.625,-30.9375,-10,0
66740,-30.1875,-33.3125,-8.8125,0
66760,-19.25,-32.8125,-5.625,0
66780,-4.5,-28.8125,-5.4375,0
66800,2.6875,-24.375,-5.8125,0
66820,-4.375,-23.0625,-6.25,0
66840,-12.75,-21.8125,-5.375,0
66860,-11.9375,-18.8125,-8.5,0
66880,-3.125,-20.3125,-5.5625,0
66900,-1.375,-22.625,-3.3125,0
66920,-4.5,-19.6875,-6,0
66940,7.75,-17,-6.6875,0
66960,13.8125,-18.5625,-6.8125,0
66980,8.1875,-16.625,-8.8125,0
67000,-1.6875,-13.1875,-13.25,0
67020,-7.0625,-12.4375,-14.75,0
67040,-4.5,-11.8125,-11.625,0
67060,-2.625,-8.5625,-11,0
67080,-0.6875,-5.3125,-12.3125,0
67100,3.75,-3.5,-10,0
67120,9.0625,-1.4375,-6,0
67140,10.3125,2.875,-5.375,0
67150,11.5,7.5,-6.875,0
67170,10.5,11.75,-7.25,0
67190,5.75,12.8125,-6.875,0
67210,1.3125,10,-7.9375,0
67230,-4,5,-12.875,1001
67250,-13.375,4.4375,-13.5,0
67270,-14.6875,-0.3125,-4.9375,0
67290,-3.375,-5,1.0625,0
67310,1.5,-9.125,3.375,0
67330,1.875,-9.625,5.1875,0
67350,13.625,-16.375,3.5,0
67370,11.0625,-16.4375,7.25,0
67390,4.75,-9.1875,12.0625,0
67410,-5.25,-1.125,5.9375,0
67410,-22.5625,0.125,0.1875,0
67430,-34.9375,-0.25,-1.8125,0
67440,-12.625,18.1875,-16.25,0
67460,-10.9375,21.3125,-12.25,0
67480,-4.875,9.875,2.6875,0
67520,9.125,-17.0625,10.9375,0
67540,12.375,-22,14.25,0
67560,12.8125,-30.875,21.5625,0
67580,16.8125,-37.0625,21.5625,0
67600,12.3125,-42.125,24.5,0
67650,39.125,-61.125,41.875,0
67670,17.4375,-57.9375,48.9375,0
67690,15.5,-60.875,51.8125,0
67730,11.4375,-44.5625,45.8125,0
67750,4.5,-38.75,43.625,0
67770,-5,-33.0625,39.9375,0
67790,-6.1875,-24.625,34.375,0
67810,-16.375,-15.125,38.6875,0
67830,-21.75,-6.5625,44.5,0
67850,-21.0625,1,40.1875,0
67870,-21.875,11.5625,33.75,0
67890,-18.75,21.875,33.0625,0
67910,-19.125,22.0625,27.375,0
67930,-12.1875,18.875,25.6875,0
67950,-2.9375,22.625,32.5625,0
67970,-4.5625,24.875,30.0625,0
67990,-1.25,20.3125,26.1875,0
68010,-0.5,15.5625,25.5,0
68030,0.625,13.6875,24.9375,0
68050,3.375,17.6875,25.0625,0
68070,-1.1875,19.4375,25.1875,0
68090,-8.875,16,19.75,0
68110,-7.9375,13.0625,16.875,0
68130,3,12.3125,14.1875,0
68150,15,7.125,12.0625,0
68170,23.375,0.75,9.0625,0
68190,25.0625,-1.75,3.375,0
68210,13.625,-5.5,4.125,0
68230,7.125,-12.0625,0.625,0
68250,6.125,-14.625,-0.4375,0
68270,5.875,-12.375,-2.5,0
68290,-0.5625,-8.4375,-1.125,0
68310,1.125,-7.875,-1.0625,0
68320,0.0625,-6.25,3.75,0
68340,9.4375,-5.4375,6.125,1000
68360,18.3125,-7.9375,-5.1875,0
68380,9.9375,-15.125,-12.6875,0
68400,4.5625,-26.375,-15.9375,0
68420,13.6875,-40.3125,-18.1875,0
68440,20.0625,-53.4375,-24.125,0
68460,17.375,-61.3125,-28.8125,0
68480,16,-66.4375,-30.875,0
68500,12.8125,-68.9375,-29.3125,0
68520,10,-66.0625,-22.25,0
68540,9.125,-66.6875,-17.8125,0
68560,7.75,-75.25,-14.6875,0
68580,15.125,-81.8125,-12.75,0
68600,20.625,-82.9375,-10.25,0
68620,21,-83.125,-2.1875,0
68630,1.1875,-82.9375,10.3125,0
68650,-9.75,-82.875,23.625,0
68670,3.9375,-77.375,35.375,0
68690,28.125,-66.6875,49.8125,0
68710,44.4375,-54.6875,64.25,0
68730,41.875,-45.1875,78.0625,0
68750,44.3125,-30.375,86.9375,0
68770,55.3125,-16.3125,102.875,0
68790,58.5625,-4.6875,113,0
68810,58.1875,16.6875,118.25,0
68830,70.875,39.125,128.5,0
68850,66.375,60.1875,139.125,0
68880,51.0625,96.125,126,0
68900,36.1875,106.5,117.875,0
68920,15.125,110,100.812,0
68940,-4.75,118.125,81.625,0
68960,-22.125,130.062,63.125,0
68980,-26.875,132.812,37.9375,0
69000,-16.4375,131.875,13.1875,0
69020,7.8125,137.375,-6.0625,0
69040,10.125,133.938,-15.375,0
69060,-3,127.25,-22.5625,0
69080,0.6875,113.562,-32.625,0
69100,17.875,102.438,-52.5,0
69120,14.25,89.5625,-59.25,0
69140,4.5,82.3125,-66.0625,0
69160,14.3125,69.3125,-79.25,0
69180,17.75,51.125,-90.6875,0
69200,16.8125,41.625,-97.4375,0
69220,33.25,26.875,-105.312,0
69240,51.0625,8.3125,-109.438,0
69260,58.0625,-8.875,-112.812,0
69280,57.875,-23.875,-116,0
69300,46.5625,-38.375,-116.438,0
69320,33.3125,-52.9375,-113.062,0
69340,23.125,-64.125,-107.688,0
69360,15.1875,-74.1875,-100.688,0
69380,8.75,-85.4375,-93,0
69400,3.0625,-96.6875,-85.875,0
69420,-4.875,-103.188,-78.3125,0
69440,-13.75,-105.938,-71,0
69460,-18.3125,-109.75,-62.0625,0
69480,-20.0625,-113.312,-51.3125,0
69500,-17.5625,-113.625,-39.75,0
69520,-19.25,-109.938,-26.875,0
69540,-24.6875,-102.125,-10.9375,0
69560,-28.625,-98.75,8.375,0
69580,-24.8125,-94.1875,24.6875,0
69600,-17.25,-78.5,41.125,0
69620,-10.5625,-61,65.9375,0
69630,6.0625,-50.1875,91.1875,0
69650,23.9375,-43.25,107.688,0
69670,46.8125,-24.375,120.188,0
69690,70.9375,4.9375,138.875,0
69710,63.25,31.125,157.375,0
69730,45.875,47.25,162,0
69750,56.125,63.3125,157.688,0
69770,66.375,77.9375,151.875,0
69790,50.375,88.6875,138.25,0
69810,40.125,93.5,118.562,0
69830,33.875,98.4375,98.625,0
69850,9.3125,101.875,67.3125,0
69870,-23,108.938,34.6875,0
69890,-32.4375,111.938,12.375,0
69910,-30.6875,109.25,-3.25,0
69930,-20.4375,109.75,-18,0
69950,-14.6875,103.688,-24.5,0
69970,-7.5,97.9375,-34.8125,0
69990,9.625,100.312,-54.0625,0
70010,16.5,96.5,-66.9375,0
70030,4.1875,87.0625,-74.5,0
70050,0.25,78.1875,-90.375,0
70060,23.9375,63.5625,-103.938,0
70070,55.625,43.875,-110.062,0
70090,73.0625,28.375,-106.5,0
70110,77,16.625,-114.562,0
70130,70.6875,1.8125,-123.438,0
70150,58.875,-17.4375,-123.062,0
70170,58.3125,-37.5,-115.75,0
70190,55.6875,-49.625,-112.562,0
70210,48.625,-58,-106.562,0
70230,37.8125,-68.1875,-94,0
70250,22.9375,-78.8125,-81.8125,0
70270,9.6875,-85.125,-71.3125,0
70290,-3.375,-87.125,-59.4375,0
70310,-14.9375,-88.25,-48.4375,0
70330,-20.625,-87.5,-38,0
70350,-23.1875,-84.0625,-27,0
70370,-23,-75.9375,-13.625,0
70390,-21.125,-67.0625,1.375,0
70410,-23.375,-60.625,11.5,0
70430,-29.25,-56.9375,23.8125,0
70450,-6,-42.5625,37.0625,0
70470,3,-17.375,47.9375,0
70490,-1.625,6.5,63.1875,0
70510,-0.375,22.625,81.625,0
70540,65.5,98.6875,146.625,0
70550,58.375,84.4375,145.938,0
70560,35.125,78.875,137.5,0
70600,-49.125,82.1875,58.5625,0
70620,-12.375,76.4375,-28.6875,0
70640,-10,66.875,-38.0625,0
70660,3.4375,55.875,-55.3125,0
70680,16.5625,47.9375,-72.75,0
70700,24.8125,39.1875,-82.625,0
70720,34.5625,27.4375,-92.375,0
70740,40.6875,13.5,-105.25,0
70760,39.1875,5.1875,-110,0
70780,40.625,-1.3125,-113.625,0
70800,46,-13,-110.812,0
70820,49,-17.9375,-105.562,0
70840,41.125,-21.5,-106.562,0
70860,23.6875,-29.0625,-103.688,0
70880,18.375,-38.875,-95.6875,0
70900,19.625,-45.25,-87.6875,0
70920,18.5625,-48.4375,-81.125,0
70940,10.9375,-48.375,-72.5,0
70960,4.875,-47.375,-65.1875,0
70980,1.5625,-47.6875,-60.4375,0
71000,-0.1875,-49.125,-54.4375,0
71020,-3.1875,-49.75,-49.875,0
71040,-3.1875,-52.5,-43.4375,0
71050,-4.375,-53.125,-30.25,0
71070,-16.25,-50.5,-26.375,0
71090,-21,-46.625,-22.3125,0
71110,-15.625,-42.9375,-24.125,0
71130,-9.375,-37.125,-20.125,0
71150,-18.75,-30.6875,-18,0
71170,-23.6875,-25.5625,-18.75,0
71190,-16.9375,-25.5,-14.5625,0
71210,-5.5625,-25.4375,-14.8125,0
71220,0.1875,-20.6875,-17,0
71240,-11.875,-19.1875,-13.4375,0
71260,-14.5,-22.3125,-11.4375,0
71280,-9.1875,-29.3125,-4.5625,0
71300,3.25,-33.625,3.125,0
71320,12.4375,-27.75,2.375,0
71340,18.75,-22.6875,3.9375,0
71360,8.3125,-17.8125,5.5625,0
71380,-8.625,-8.5,6.9375,0
71400,-7,-1.5625,4.9375,1001
71420,2.9375,-1.625,3.9375,0
71440,9,5.1875,0.3125,0
71460,13.25,13.5625,-1.8125,0
71480,9.25,13.8125,1.9375,0
71500,1.9375,9.5625,2.1875,0
71520,10.6875,8.875,1.6875,0
71540,10.3125,12.125,0.1875,0
71560,3,14.125,-2.25,0
71580,-10,12.8125,1.5,0
71600,-7.8125,5.4375,5.8125,0
71620,0.5625,3.375,4.25,0
71640,2.0625,-0.75,8.9375,0
71660,11.8125,-10.75,14.1875,0
71680,19.75,-22.75,22.0625,0
71700,24.625,-31.4375,34,0
71720,25.125,-36.8125,39.8125,0
71740,25.8125,-38.75,44.25,0
71760,16.625,-44.4375,47.625,0
71780,16.9375,-57.75,53.375,0
71800,18.375,-60.8125,66,0
71820,29.9375,-53.5625,68.5625,0
71840,25.875,-45.3125,67.3125,0
71860,14.375,-50.75,63.125,0
71880,1.0625,-52.375,66.75,0
71900,10.25,-46.1875,68.125,0
71920,13.5625,-34.5,53.6875,0
71940,7.4375,-23.625,46.6875,0
71960,1.625,-20.3125,37.1875,0
71980,0.4375,-18.625,29.5,0
72000,12.6875,-11.8125,26.875,0
72020,13.8125,-0.8125,19.125,0
72040,14.3125,6.125,9.5,0
72060,23.3125,10.1875,6.0625,0
72080,25.1875,15.75,5.5625,0
72100,14.5,21.1875,-3.125,0
72120,10.9375,26.75,-10.6875,0
72140,13.3125,30.6875,-13.5,0
72160,6.5625,29.625,-11.3125,0
72180,10.9375,31.125,-10.625,0
72200,21.875,34.5625,-13.25,0
72220,19.375,30.125,-8.9375,0
72240,8.25,24.5,-5,0
72260,-1.4375,21,-1.75,0
72280,-7.3125,18.625,-1.9375,0
72300,-7.9375,15.3125,0.75,0
72320,-2.1875,10.5625,4.4375,0
72340,-0.875,9.1875,8.5,0
72360,-0.1875,17.625,9.0625,0
72380,-12.5,22.5,8.6875,0
72400,-21.1875,18.25,6.8125,0
72420,-12.5625,7.625,9.5,0
72440,-0.5625,6.25,12.125,1000
72460,-3.25,5.75,8.625,0
72480,-15.375,1.625,3.125,0
72500,-18.875,-9,-0.125,0
72520,-7.625,-19.375,-6.125,0
72540,-0.625,-27.375,-11.3125,0
72560,7.3125,-33.8125,-17.8125,0
72580,14.625,-41.6875,-24.5,0
72600,14.25,-52.375,-29.625,0
72620,16.1875,-63.375,-33.375,0
72640,27.8125,-69.8125,-38.1875,0
72660,30.5625,-70.625,-35.6875,0
72680,21.25,-71.8125,-31,0
72700,11.25,-77.8125,-25.3125,0
72720,-0.375,-82.9375,-17.0625,0
72740,-2.5625,-84.375,-8.6875,0
72760,-1.0625,-81.5,2.8125,0
72780,-8.8125,-73.75,16.5,0
72800,-17.3125,-66.75,30.0625,0
72820,-6.375,-59.625,39.6875,0
72840,20.3125,-59.875,50.8125,0
72860,19.0625,-59.875,64.1875,0
72880,24.25,-47.125,81.3125,0
72900,40.25,-30.5625,91.8125,0
72920,46.875,-15,98.4375,0
72940,47,-2.9375,99.9375,0
72960,57.125,12.5625,105.5,0
72980,54.8125,31.8125,112.938,0
73000,54.4375,52.4375,111.125,0
73020,55.75,70.3125,95.1875,0
73040,39.375,86.5625,81.4375,0
73060,31.4375,96.5625,73.875,0
73080,28.25,101.625,66.25,0
73100,24.875,106.562,59.3125,0
73120,15,110.812,52.8125,0
73140,-9.3125,113.188,43.6875,0
73160,-22.8125,111.688,31.75,0
73180,-15.3125,108,25.875,0
73200,-3.5,106.75,18.3125,0
73220,4,103.875,6.4375,0
73240,14.0625,97.9375,-6.625,0
73260,23.3125,96.1875,-17.6875,0
73280,20.125,90.375,-31.1875,0
73300,-1.125,82.8125,-40.5,0
73320,-1.8125,74.25,-49.75,0
73340,30.75,63.0625,-63.1875,0
73360,42.0625,48.5,-67.0625,0
73380,39.375,38.9375,-74.375,0
73400,35.125,33.0625,-85.1875,0
73420,26.3125,21.9375,-88.625,0
73440,12.1875,10.875,-85.375,0
73460,12.8125,3.1875,-86.75,0
73480,22.5,-4.5,-84.625,0
73500,18.375,-11.625,-79.5,0
73520,6.8125,-13.125,-77.75,0
73540,1.375,-14.75,-78.3125,0
73560,3.3125,-22.4375,-79.4375,0
73580,9.75,-30.8125,-79.75,0
73600,18,-38.75,-77.875,0
73620,16.25,-49.375,-74.8125,0
73640,14.5625,-58.5625,-69.5625,0
73660,13.4375,-57.75,-60.125,0
73680,4,-53.5,-50.5625,0
73700,-11.0625,-53.5,-41.9375,0
73720,-17.5,-59.75,-33.9375,0
73740,-8.5,-68.25,-33.0625,0
73760,-1.0625,-70.875,-30,0
73780,-10.875,-65.8125,-20.4375,0
73800,-26,-62.1875,-10.0625,0
73820,-24.8125,-62.75,-4.3125,0
73840,-10.5,-66.8125,-0.9375,0
73860,2.375,-68.375,2.8125,0
73880,1.625,-61.4375,8.875,0
73900,-9.9375,-55.5625,13.875,0
73920,-8.375,-54.25,19.375,0
73940,9,-53.0625,26.3125,0
73960,27.5625,-45.5625,31.125,0
73980,38.875,-36.4375,38.4375,0
74000,41.75,-31.6875,49.9375,0
74020,40.5625,-28.6875,56.8125,0
74040,50.0625,-18.8125,64.4375,0
74060,74.8125,-1.25,77.1875,0
74070,84.6875,15.375,98,0
74090,73.3125,30,106,0
74110,68,43.1875,112.5,0
74130,64.625,59.0625,119,0
74170,33.25,78.1875,73.5625,0
74190,15.625,82.5,51.5,0
74200,-13.8125,91.0625,35.0625,0
74220,-33.5,84.6875,21.25,0
74240,-15.3125,73.5,11,0
74260,7.3125,64.0625,8.375,0
74280,14.1875,63.8125,9.625,0
74300,-4.75,69.1875,8.375,0
74320,-19.3125,70,-4.5625,0
74340,-21.0625,64.1875,-17.6875,0
74360,-11.8125,59.0625,-25.1875,0
74380,0.5625,57.9375,-29.125,0
74400,14.5,59.75,-38.375,0
74420,15.6875,55.25,-49.8125,0
74440,0.5,48.75,-55.125,0
74460,2.9375,42.1875,-57.3125,0
74480,18.375,33.1875,-63.9375,0
74500,26.0625,25.9375,-68.9375,0
74520,21.0625,23.125,-69.4375,0
74540,13.5,18.5,-66.4375,0
74560,3.5625,11.5,-66.875,0
74580,-3.0625,5.5625,-65.375,0
74600,-3.25,-0.375,-60.25,0
74620,-7,-7.5,-56.125,0
74640,-15,-13,-55.1875,0
74660,-22.0625,-15.4375,-54.75,0
74680,-24.8125,-19.0625,-54.75,0
74700,-15.625,-25.25,-56.375,0
74720,-2.4375,-30,-55.9375,0
74740,-0.375,-32.125,-56.875,0
74760,-9.8125,-34.125,-60.1875,0
74780,-11.8125,-35.6875,-61.9375,0
74800,-5.875,-41.125,-60.125,0
74820,-13.875,-45.5,-60.4375,0
74840,-18.5,-46.0625,-55.75,0
74860,-22.25,-45.875,-53.5625,0
74880,-22.375,-43.8125,-49.9375,0
74900,-20.875,-44.25,-49.5625,0
74920,-16,-46.875,-49.5625,0
74940,-9.375,-51,-47.1875,0
74960,-7,-54.75,-44.9375,0
74980,-10.9375,-57.125,-41.6875,0
75000,-19.1875,-58,-30.875,0
75020,-23.375,-55.0625,-21.375,0
75040,-26.5625,-48.0625,-17.375,0
75060,-29.9375,-38.5,-15.375,0
75080,-22.875,-26.5625,-4.9375,0
75100,-17,-22.125,11.0625,0
75120,-3.875,-19.75,18,0
75140,13,-10.6875,22.0625,0
75160,31.75,-5.25,36.375,0
75180,35.4375,-4.5625,41.8125,0
75200,42.1875,8.5625,41.5,0
75220,38.8125,29.5625,45.125,0
75240,41.75,41.1875,54.9375,0
75260,48.3125,45.8125,62,0
75280,67.0625,60,67.3125,0
75300,80.4375,73,67.1875,0
75320,75.0625,76.875,67.75,0
75340,56.3125,73.1875,68.0625,0
75360,48.125,73.125,61,0
75390,20,73,51.9375,0
75410,22.25,79,49.625,0
75440,11.4375,70.0625,25.6875,0
75460,7.625,67.4375,24.625,0
75480,10,64.5,21.1875,0
75510,11,49.6875,7.1875,0
75520,2,46.9375,6.0625,0
75540,-9.25,43.9375,9.4375,0
75560,-0.8125,40.5625,1.125,0
75580,5,42.875,-6.3125,0
75600,9.125,38.8125,-7.25,0
75620,9.8125,35.625,-8.125,0
75640,7.875,36.375,-17.3125,0
75660,-9.4375,35.375,-24.5,0
75680,-10.9375,26.6875,-22.3125,0
75700,1.375,20.25,-23.75,0
75720,13.6875,21.125,-30,0
75740,12.4375,24.25,-36.3125,0
75760,-1.625,24.75,-35.125,0
75780,-16.75,23.5625,-32.6875,0
75800,-14.875,20.5,-35.875,0
75820,4.875,14.0625,-40.625,0
75840,20.75,2.8125,-43.9375,0
75860,26.75,-1.625,-48.875,0
75880,20.3125,-4.8125,-54.0625,0
75900,5.5,-14.75,-55.875,0
75920,1.75,-24,-56.0625,0
75940,7.875,-32.25,-55.9375,0
75960,6,-41.1875,-55.4375,0
75980,2.8125,-47.875,-55,0
76000,-0.5,-52.25,-56.4375,0
76020,-4.125,-55.4375,-55.6875,0
76040,-0.1875,-59.4375,-55.625,0
76060,7.5,-64.1875,-55.9375,0
76080,12.3125,-67.3125,-55.125,0
76100,8.0625,-70.3125,-53.625,0
76120,1.5625,-72.8125,-52.0625,0
76140,-3.75,-72.875,-48.0625,0
76160,-6.5625,-71.5,-46.5,0
76180,-10.3125,-70.4375,-44.1875,0
76200,-9.5625,-68.25,-39.3125,0
76220,-5.0625,-66.0625,-35.5,0
76240,-1.75,-61.6875,-33.4375,0
76260,-1.0625,-57.875,-35.75,0
76280,1,-51.3125,-36,0
76300,0.6875,-42.0625,-30.875,0
76320,-0.125,-35,-29.6875,0
76340,9.5,-31.5,-22.75,0
76360,11,-31.4375,-25.5625,0
76380,9.125,-25.875,-25.8125,0
76400,4.6875,-20.0625,-21.125,0
76430,5.3125,-17.6875,-16.5,0
76450,12.9375,-13.3125,-12.875,0
76470,11.625,-8.1875,-8.8125,0
76490,2.125,-6.25,-8.9375,0
76510,0.5,-5.5,-6,0
76530,7.0625,1.6875,-6,0
76550,5.5625,1.875,-8.0625,1001
76570,0.625,-1.1875,-11.1875,0
76590,9.0625,-2.0625,6.375,0
76610,10.875,-1.0625,-2.75,0
76630,-1,-0.375,-8.1875,0
76650,1.375,-0.375,12,0
76670,7.875,-0.25,25.75,0
76690,11.4375,-2.8125,34.625,0
76700,10.5,-11.5,54.5625,0
76730,5.75,-40.1875,96.3125,0
76750,7.3125,-42.6875,98.4375,0
76770,10.25,-38.25,101.312,0
76790,4.4375,-32.625,94.3125,0
76810,0.8125,-35.4375,80.4375,0
76830,-4.75,-40.1875,69.6875,0
76850,-3.6875,-32.625,59.3125,0
76870,-2.9375,-23.625,44.8125,0
76890,-2.6875,-18.875,31,0
76910,5.25,-18.5625,23.3125,0
76930,11.5625,-14,21.9375,0
76950,17.875,-5.3125,16.125,0
76970,23.625,2.5,9,0
76990,21.6875,2.625,5.375,0
77010,12.6875,4.5,6.3125,0
77030,14.8125,11.4375,10.8125,0
77050,13.5625,16.75,10.5,0
77070,9.625,17.1875,11.5,0
77090,14.0625,19.125,14.75,0
77110,10.4375,20.4375,18.125,0
77130,5.9375,25.75,14.6875,0
77150,3.4375,33.375,6.8125,0
77170,-10.3125,35,7.125,0
77180,-9.9375,35.1875,6.625,0
77200,8.3125,32,7.25,0
77220,18,24.8125,7.8125,0
77240,19.875,23.75,5.4375,0
77260,13.0625,23.1875,1.875,0
77280,2.6875,19.1875,0,0
77300,-6.6875,9.3125,-3.1875,0
77320,-14.1875,2.625,-4.1875,0
77340,-9.5,-1.6875,-6.625,1000
77360,7.25,-14.3125,-9.6875,0
77380,11.25,-26.875,-13.5625,0
77400,12.4375,-37.125,-18,0
77420,12.125,-45.0625,-23.6875,0
77440,15.0625,-52.375,-24,0
77460,13.8125,-58.3125,-23.3125,0
77480,7.25,-63.4375,-21.4375,0
77500,5.8125,-66.875,-17.0625,0
77520,1.3125,-70.1875,-10.6875,0
77540,2.75,-70.5625,-7.375,0
77560,3.75,-70,-7.3125,0
77580,-1.375,-68.75,-4.5625,0
77600,-5.75,-65.5625,-1.125,0
77620,-10.5,-64.0625,1.5625,0
77640,-12.3125,-63.75,-0.5,0
77660,-3.375,-64.4375,2.0625,0
77680,3.125,-58.375,8.5,0
77700,-3,-49.5,17.6875,0
77720,-7.9375,-43.25,26.25,0
77740,-5.4375,-42.4375,33.3125,0
77760,5.875,-41.9375,40.9375,0
77780,12.25,-36.25,55.5625,0
77800,18.8125,-30.5,69.75,0
77820,24.75,-32.75,77.125,0
77840,41.6875,-28.4375,77.6875,0
77860,39,-12.0625,78.625,0
77880,27.6875,5.8125,82.3125,0
77900,21.375,17.9375,84.125,0
77920,22.5625,27.0625,84.3125,0
77940,25.25,40.1875,86,0
77960,39.375,49.4375,88.5,0
77970,43.8125,51.8125,87.8125,0
77990,33.4375,55.875,80.125,0
77990,21.625,66.5625,72.375,0
78010,14.3125,70.5625,62.9375,0
78030,4.4375,68.75,51.625,0
78050,-1.375,75.0625,32.375,0
78070,2.4375,82,21.4375,0
78090,-6.375,84.1875,13.125,0
78110,-3.6875,80.875,1.5,0
78130,0.875,77.75,-2.3125,0
78150,6.75,79.5,0.875,0
78170,-1.0625,82.6875,-6.5,0
78190,-17.0625,84.75,-13.75,0
78210,-19.125,81.6875,-20.75,0
78230,3.0625,79.625,-26.1875,0
78250,12.1875,73.5,-28.6875,0
78270,8,68.3125,-29.6875,0
78290,22.3125,61.0625,-35.5,0
78310,21,49.8125,-37.8125,0
78330,-7.9375,42.1875,-39.3125,0
78350,-16.125,39.0625,-43.1875,0
78370,-5.75,34.1875,-48.8125,0
78390,-1.0625,31,-50.875,0
78430,11.125,27.25,-49.25,0
78450,28.1875,21.6875,-54.1875,0
78470,34.9375,16.125,-54.8125,0
78490,31.0625,14.6875,-54.0625,0
78510,25.125,11.6875,-52.5,0
78530,20.0625,9.875,-58.625,0
78550,30.5,6.875,-62.8125,0
78570,53.6875,-6.375,-68.1875,0
78590,72,-16.625,-71.875,0
78610,81,-21,-75,0
78630,74.875,-28.6875,-74.25,0
78650,51.3125,-36.9375,-71.5625,0
78670,35.0625,-42.75,-66.1875,0
78690,31.125,-48.875,-60.25,0
78710,24.625,-55.5,-57.25,0
78730,19.125,-60.875,-53.75,0
78750,11.1875,-63.3125,-52.6875,0
78770,7.0625,-64.5625,-50.125,0
78790,7.125,-66.375,-48.0625,0
78810,10.3125,-70.625,-50.375,0
78830,7.625,-72.5625,-52.5625,0
78850,4.125,-72.625,-52.375,0
78870,-2.9375,-73.75,-50.125,0
78890,-11.375,-77.4375,-44.125,0
78910,-13.125,-79.1875,-36.6875,0
78930,-7.3125,-77.6875,-30.0625,0
78950,-11.875,-72.1875,-23.0625,0
78970,-26.0625,-61.9375,-17.25,0
78990,-34,-52.625,-7.75,0
79010,-26.9375,-48.5,5.125,0
79030,-16.75,-44.5625,8.6875,0
79050,-12.5625,-37.5625,10.5625,0
79070,-9.25,-33.3125,14.25,0
79090,-4.1875,-30.3125,18.875,0
79110,-3.625,-26.4375,19.5,0
79130,-11.75,-19.125,18.625,0
79150,-20.375,-10.875,25.5,0
79170,-13.0625,-12.4375,35.125,0
79190,0.5625,-16.25,37.4375,0
79210,10.25,-10.25,35.625,0
79210,6.625,-1.375,44.1875,0
79230,0.5,3.6875,53.25,0
79250,9.5,6.875,59.9375,0
79290,15.625,21.0625,68.875,0
79310,28.5625,25.25,77,0
79330,30.25,29,79.625,0
79350,34.5,33.8125,79.125,0
79370,37,37.375,75.25,0
79390,30.5625,40.875,69.8125,0
79410,23.4375,45.75,66,0
79430,17.875,48,62.5625,0
79450,15.75,49.375,56,0
79470,13.4375,54.5,47.9375,0
79490,3.125,59.4375,42.5,0
79510,-5.375,60.5625,41.125,0
79530,-9.5,62.125,38.8125,0
79550,-8.4375,64.75,34.8125,0
79590,-8.4375,68.9375,37.125,0
79610,-6.6875,72.5625,33.8125,0
79630,-12.25,74.8125,25.125,0
79650,-24.8125,75.25,21.5,0
79670,-25.8125,73.5625,24.125,0
79690,-11.25,70.8125,20.8125,0
79710,8.875,65.25,13.9375,0
79750,1.0625,64.875,-1.625,0
79760,-15.5625,61.3125,-5.3125,0
79780,-16.5,50.875,-13.5625,0
79800,-5.625,45.6875,-20.4375,0
79820,1.125,42.5625,-23.5,0
79840,3.6875,39.875,-26.125,0
79860,-2.0625,37.75,-31.875,0
79880,-5.75,31.25,-38.5625,0
79900,-1.6875,22.9375,-42,0
79920,11.875,14.75,-45.125,0
79940,17.625,8.0625,-46.9375,0
79960,14.25,5.5625,-49.9375,0
79980,3.5625,2.0625,-51,0
80000,-4.4375,-3.25,-55.25,0
80020,1.4375,-7.8125,-58.4375,0
80040,11.625,-12.6875,-59.9375,0
80060,16.4375,-16.0625,-61.5625,0
80080,13.9375,-17.1875,-65.5,0
80090,8.5,-18.5625,-68.6875,0
80110,9.25,-19.6875,-71.5625,0
80130,16.125,-23.6875,-71.4375,0
80150,19.5625,-26.625,-70.6875,0
80170,15.125,-26.875,-65.375,0
80190,4.875,-28.8125,-57.625,0
80210,-1.8125,-31.3125,-51.1875,0
80230,-5.8125,-35.1875,-46.375,0
80250,-10.0625,-39.3125,-42.75,0
80270,-17.5,-41.9375,-37.625,0
80290,-25.4375,-42.125,-36.4375,0
80310,-29.375,-42.8125,-36.6875,0
80330,-27.6875,-43.9375,-36,0
80350,-19.4375,-47.75,-33.75,0
80370,-12.875,-51.875,-34.75,0
80390,-12.5,-54.5625,-34.125,0
80410,-15.3125,-55.9375,-28.4375,0
80430,-17.8125,-55.75,-26.125,0
80450,-24.3125,-56.6875,-24.3125,0
80470,-22.0625,-55.25,-20.1875,0
80490,-20.0625,-51.125,-15.5,0
80510,-21.375,-49.25,-8.1875,0
80530,-18.8125,-47.75,-5.6875,0
80550,-9.5,-46.3125,-5.125,0
80570,7.875,-37.125,-3.4375,0
80590,22.8125,-30.0625,3.125,0
80610,14.3125,-26.375,6.8125,0
80630,1.4375,-21.125,8.0625,0
80650,-2.625,-13.3125,9.25,0
