Timestamp, Angle x, Angle y, Angle z, Marker
50,-0.945712,-0.552827,2.56063,0
70,-0.935424,-0.553731,2.56569,0
90,-0.938804,-0.549206,2.57266,0
110,-0.958293,-0.543448,2.57748,0
120,-0.983444,-0.537091,2.57919,0
120,-0.999587,-0.531019,2.57448,0
160,-1.00188,-0.527769,2.56136,0
180,-1.00562,-0.525017,2.54826,0
200,-1.00389,-0.526642,2.53864,0
220,-0.995021,-0.531432,2.53159,0
240,-0.979706,-0.535712,2.52706,0
260,-0.958424,-0.53888,2.52474,0
280,-0.939622,-0.537217,2.5261,0
300,-0.93687,-0.528569,2.52867,0
320,-0.950747,-0.518545,2.5373,0
340,-0.968863,-0.515683,2.549,0
360,-0.97381,-0.519678,2.55485,0
380,-0.970828,-0.526147,2.5575,0
400,-0.968983,-0.53518,2.56063,0
420,-0.967659,-0.548221,2.56303,0
440,-0.962779,-0.563857,2.56453,0
460,-0.949348,-0.575738,2.5642,0
480,-0.934983,-0.577048,2.56255,0
500,-0.935934,-0.568594,2.56008,0
520,-0.957785,-0.556758,2.55779,0
540,-0.988768,-0.546212,2.55362,0
560,-1.00993,-0.53697,2.54007,0
580,-1.01416,-0.529511,2.52262,0
600,-1.01215,-0.524381,2.51177,0
620,-1.00399,-0.526563,2.5057,0
640,-0.987204,-0.533469,2.50242,0
660,-0.96475,-0.539151,2.50432,0
680,-0.939633,-0.541081,2.50692,0
700,-0.922375,-0.536765,2.50975,0
720,-0.925229,-0.524421,2.51597,0
740,-0.950117,-0.513636,2.53019,0
760,-0.976519,-0.510508,2.54633,0
780,-0.987975,-0.51146,2.55633,0
800,-0.989856,-0.514367,2.56245,0
820,-0.98984,-0.521062,2.57054,0
840,-0.986292,-0.534509,2.57881,0
860,-0.982882,-0.551649,2.57915,0
880,-0.977916,-0.565853,2.57826,0
900,-0.969285,-0.572734,2.5752,0
920,-0.964834,-0.57001,2.57218,0
940,-0.972789,-0.561603,2.56743,0
960,-0.993118,-0.548661,2.55992,0
980,-1.01872,-0.533379,2.54988,0
1000,-1.03553,-0.518173,2.53525,0
1020,-1.03542,-0.504327,2.52405,0
1040,-1.03079,-0.497341,2.51578,0
1060,-1.02995,-0.498296,2.50914,0
1080,-1.02316,-0.502613,2.50387,0
1100,-1.00816,-0.513226,2.50784,0
1120,-0.984882,-0.520018,2.51378,0
1140,-0.956657,-0.51681,2.51794,0
1160,-0.946929,-0.507808,2.5215,0
1180,-0.963411,-0.498938,2.53118,0
1200,-0.992814,-0.497181,2.54856,0
1220,-1.01252,-0.5008,2.5617,0
1240,-1.01968,-0.506209,2.57299,0
1260,-1.01949,-0.514244,2.58594,0
1280,-1.01726,-0.528106,2.59821,0
1300,-1.01311,-0.545343,2.60289,0
1320,-1.00283,-0.563757,2.60207,0
1340,-0.988895,-0.573346,2.59556,0
1360,-0.979009,-0.569862,2.59052,0
1380,-0.981196,-0.562964,2.58863,0
1400,-0.995857,-0.559076,2.58747,0
1420,-1.01523,-0.553497,2.58165,0
1440,-1.02834,-0.543637,2.56609,0
1460,-1.03383,-0.531411,2.54359,0
1480,-1.03808,-0.521676,2.52029,0
1500,-1.03908,-0.516208,2.5007,0
1520,-1.03357,-0.51158,2.48883,0
1540,-1.01787,-0.51287,2.48252,0
1560,-0.994334,-0.519438,2.48149,0
1580,-0.97662,-0.524854,2.48675,0
1600,-0.965591,-0.525855,2.49455,0
1620,-0.961257,-0.523473,2.50315,0
1640,-0.965475,-0.517484,2.51807,0
1660,-0.977876,-0.509897,2.53879,0
1680,-0.988231,-0.50382,2.56145,0
1700,-0.993692,-0.502139,2.58481,0
1720,-0.997822,-0.502404,2.60855,0
1740,-1.00492,-0.507591,2.63033,0
1760,-1.01306,-0.520155,2.64551,0
1780,-1.02045,-0.536534,2.6518,0
1800,-1.02483,-0.553417,2.64934,0
1820,-1.02397,-0.56941,2.64627,0
1840,-1.01424,-0.579866,2.64542,0
1860,-0.997962,-0.576977,2.64005,0
1880,-0.985194,-0.563127,2.63086,0
1900,-0.991409,-0.547496,2.62217,0
1920,-1.01154,-0.535031,2.61101,0
1940,-1.02828,-0.524073,2.58958,0
1960,-1.03176,-0.511255,2.56415,0
1980,-1.0262,-0.497222,2.54734,0
2000,-1.0159,-0.486816,2.53833,0
2020,-1.00583,-0.482671,2.5321,0
2040,-0.999319,-0.483458,2.52941,0
2060,-0.993739,-0.488844,2.533,0
2080,-0.986176,-0.494298,2.54019,0
2100,-0.974702,-0.496447,2.54997,0
2120,-0.963417,-0.495802,2.56336,0
2140,-0.958858,-0.494235,2.57923,0
2160,-0.965194,-0.492176,2.59798,0
2180,-0.98558,-0.490978,2.62254,0
2200,-1.00374,-0.4931,2.64599,0
2220,-1.0114,-0.502775,2.66351,0
2240,-1.01685,-0.516762,2.67786,0
2260,-1.02318,-0.530161,2.69243,0
2280,-1.02313,-0.544743,2.70305,0
2300,-1.01573,-0.557223,2.70625,0
2320,-1.00518,-0.562586,2.70425,0
2340,-0.997424,-0.56275,2.69958,0
2360,-1.00425,-0.559977,2.6952,0
2380,-1.02116,-0.554737,2.68668,0
2400,-1.03739,-0.543453,2.6701,0
2420,-1.04656,-0.527791,2.6492,0
2440,-1.04773,-0.513214,2.63094,0
2460,-1.04133,-0.502819,2.61397,0
2480,-1.03785,-0.497898,2.5983,0
2500,-1.03551,-0.498139,2.58767,0
2520,-1.02166,-0.503782,2.58736,0
2540,-1.00165,-0.509303,2.59201,0
2560,-0.977787,-0.51088,2.59924,0
2580,-0.959348,-0.511059,2.60968,0
2600,-0.954885,-0.511677,2.62453,0
2620,-0.962395,-0.510465,2.64592,0
2640,-0.976065,-0.50582,2.67684,0
2660,-0.990607,-0.50876,2.70962,0
2680,-0.995397,-0.522193,2.73369,0
2700,-0.998295,-0.532809,2.74835,0
2720,-1.01477,-0.534609,2.76465,0
2740,-1.04736,-0.535048,2.782,0
2760,-1.07116,-0.538118,2.79044,0
2780,-1.07921,-0.540547,2.79338,0
2800,-1.08382,-0.537026,2.80532,0
2820,-1.07834,-0.528048,2.82612,0
2840,-1.06374,-0.515085,2.84616,0
2860,-1.05533,-0.498044,2.86305,0
2880,-1.0611,-0.48136,2.87673,0
2900,-1.06876,-0.468616,2.88845,0
2920,-1.07315,-0.45519,2.89717,0
2940,-1.07242,-0.438487,2.90816,0
2960,-1.06091,-0.423716,2.92177,0
2980,-1.04771,-0.410602,2.93705,0
3000,-1.04585,-0.399321,2.95236,0
3020,-1.04984,-0.391144,2.96686,0
3040,-1.0525,-0.380291,2.98104,0
3060,-1.05409,-0.363893,2.99791,0
3070,-1.05515,-0.345317,3.01954,0
3090,-1.05589,-0.327399,3.04192,0
3110,-1.05376,-0.313641,3.06118,0
3130,-1.04972,-0.301333,3.07847,0
3150,-1.04477,-0.287496,3.09672,0
3170,-1.04297,-0.27192,3.11577,0
3190,-1.04259,-0.260841,3.13622,0
3210,-1.04162,-0.256386,-3.12596,0
3230,-1.04495,-0.252204,-3.10494,0
3250,-1.04936,-0.248324,-3.08372,0
3270,-1.05448,-0.248494,-3.06416,0
3290,-1.06134,-0.249688,-3.04493,0
3310,-1.07,-0.249421,-3.02748,0
3330,-1.08164,-0.250193,-3.01169,0
3350,-1.09213,-0.253483,-2.99648,0
3370,-1.0951,-0.258683,-2.98315,0
3390,-1.09208,-0.265497,-2.97172,0
3430,-1.08243,-0.276915,-2.95192,0
3470,-1.07921,-0.277704,-2.93296,0
3490,-1.08808,-0.280497,-2.92912,0
3510,-1.09876,-0.282795,-2.92624,0
3530,-1.11408,-0.284647,-2.92231,0
3550,-1.13798,-0.284506,-2.91835,0
3570,-1.16214,-0.283346,-2.91381,0
3590,-1.17712,-0.284699,-2.90922,0
3610,-1.1809,-0.286496,-2.90451,0
3630,-1.17974,-0.288072,-2.89791,0
3650,-1.17556,-0.290848,-2.88977,0
3670,-1.17684,-0.29878,-2.88229,0
3690,-1.18385,-0.308617,-2.87678,0
3710,-1.19046,-0.317511,-2.87229,0
3730,-1.19007,-0.324763,-2.86845,0
3750,-1.18445,-0.330422,-2.86452,0
3770,-1.17795,-0.338328,-2.8588,0
3790,-1.17724,-0.346087,-2.8545,0
3820,-1.1845,-0.348098,-2.84596,0
3840,-1.18827,-0.351156,-2.84168,0
3860,-1.19072,-0.353062,-2.83792,0
3880,-1.19146,-0.352913,-2.83446,0
3900,-1.19275,-0.352692,-2.8307,0
3920,-1.19605,-0.35462,-2.82936,0
3940,-1.19992,-0.357419,-2.82842,0
3950,-1.20262,-0.358117,-2.82843,0
3990,-1.20759,-0.362101,-2.82652,0
4010,-1.20978,-0.362684,-2.82518,0
4030,-1.20996,-0.362443,-2.82483,0
4050,-1.20905,-0.363261,-2.82506,0
4070,-1.21129,-0.36536,-2.82576,0
4090,-1.21364,-0.369271,-2.82701,0
4110,-1.2162,-0.372888,-2.829,0
4130,-1.21855,-0.373577,-2.83032,0
4150,-1.22147,-0.373433,-2.83044,0
4170,-1.22492,-0.373905,-2.82944,0
4200,-1.2259,-0.379714,-2.82215,0
4220,-1.22575,-0.385076,-2.81527,0
4230,-1.22845,-0.391481,-2.80677,0
4250,-1.23346,-0.397654,-2.79688,0
4270,-1.23865,-0.40469,-2.7852,0
4290,-1.24438,-0.412359,-2.77214,0
4310,-1.24852,-0.419305,-2.75903,0
4330,-1.25218,-0.42393,-2.74601,0
4350,-1.25731,-0.427306,-2.7322,0
4370,-1.26044,-0.43239,-2.71625,0
4390,-1.26619,-0.435826,-2.70164,0
4410,-1.27276,-0.436006,-2.68786,0
4430,-1.27658,-0.43822,-2.67536,0
4450,-1.28189,-0.440547,-2.66426,0
4470,-1.2883,-0.440365,-2.65408,0
4490,-1.29485,-0.439274,-2.64501,0
4510,-1.30267,-0.437502,-2.63803,0
4530,-1.31255,-0.43348,-2.63451,0
4550,-1.32078,-0.427357,-2.63196,0
4570,-1.32697,-0.41992,-2.63039,0
4590,-1.33049,-0.412399,-2.62995,0
4610,-1.33361,-0.406697,-2.63054,0
4630,-1.3378,-0.400552,-2.63112,0
4650,-1.34097,-0.393544,-2.63161,0
4670,-1.34302,-0.38689,-2.63277,0
4690,-1.34416,-0.381599,-2.6325,0
4710,-1.3462,-0.378245,-2.63203,0
4730,-1.34857,-0.374178,-2.6311,0
4750,-1.35028,-0.370046,-2.62933,0
4770,-1.35088,-0.366323,-2.62689,0
4790,-1.35081,-0.363184,-2.62415,0
4810,-1.35022,-0.362421,-2.62199,0
4830,-1.34969,-0.362943,-2.62016,0
4850,-1.35041,-0.362967,-2.61835,0
4870,-1.35043,-0.362119,-2.61617,0
4890,-1.35022,-0.361125,-2.61487,0
4910,-1.35028,-0.360388,-2.61348,0
4930,-1.35213,-0.359775,-2.61212,0
4950,-1.35389,-0.360934,-2.61174,0
4970,-1.35576,-0.363191,-2.61203,0
4990,-1.35881,-0.365122,-2.61148,0
5010,-1.36279,-0.367555,-2.60953,0
5030,-1.36472,-0.370505,-2.60812,0
5050,-1.36426,-0.372408,-2.60807,0
5070,-1.36316,-0.373564,-2.60714,0
5090,-1.36343,-0.374004,-2.60489,0
5110,-1.36433,-0.374244,-2.60253,0
5130,-1.36372,-0.374057,-2.60065,0
5150,-1.36357,-0.37347,-2.59879,0
5170,-1.36571,-0.372521,-2.59687,0
5190,-1.36866,-0.37139,-2.59549,0
5210,-1.36994,-0.371512,-2.59521,0
5230,-1.37045,-0.372427,-2.59493,0
5250,-1.36961,-0.37335,-2.59397,0
5270,-1.36764,-0.37379,-2.59376,0
5290,-1.36558,-0.374037,-2.59438,0
5310,-1.36505,-0.375139,-2.59523,0
5330,-1.36583,-0.375956,-2.59527,0
5350,-1.36633,-0.376945,-2.59507,0
5370,-1.36521,-0.378423,-2.59544,0
5390,-1.36434,-0.379164,-2.59603,0
5410,-1.36477,-0.3792,-2.59657,0
5430,-1.36617,-0.379651,-2.59718,0
5450,-1.36603,-0.380677,-2.59778,0
5470,-1.36552,-0.381633,-2.59846,0
5490,-1.36516,-0.382251,-2.59917,0
5510,-1.36407,-0.383295,-2.59946,0
5530,-1.36316,-0.385281,-2.59939,0
5550,-1.36309,-0.38755,-2.59919,0
5570,-1.36363,-0.389109,-2.59902,0
5590,-1.3649,-0.390308,-2.59831,0
5610,-1.36542,-0.391869,-2.59753,0
5630,-1.36588,-0.393421,-2.59604,0
5650,-1.36651,-0.394774,-2.59432,0
5670,-1.36689,-0.395036,-2.5925,0
5690,-1.36667,-0.394632,-2.59062,0
5710,-1.36693,-0.394227,-2.58885,0
5730,-1.36795,-0.394697,-2.58606,0
5750,-1.36836,-0.395742,-2.58349,0
5770,-1.36907,-0.396178,-2.58107,0
5790,-1.36952,-0.396528,-2.57806,0
5810,-1.36885,-0.396955,-2.57471,0
5830,-1.36836,-0.396798,-2.57156,0
5850,-1.36784,-0.396576,-2.56875,0
5870,-1.36916,-0.396036,-2.56541,0
5890,-1.37131,-0.394856,-2.56208,0
5910,-1.37371,-0.39261,-2.55907,0
5930,-1.37548,-0.389422,-2.55651,0
5950,-1.37528,-0.3866,-2.55359,0
5970,-1.37402,-0.384196,-2.54992,0
5990,-1.37026,-0.381238,-2.54548,0
6010,-1.36794,-0.378884,-2.54096,0
6030,-1.37096,-0.376144,-2.53704,0
6050,-1.37534,-0.374837,-2.53363,2000
6060,-1.37812,-0.375937,-2.53096,0
6080,-1.37861,-0.37606,-2.52765,0
6100,-1.377,-0.374668,-2.52359,0
6120,-1.37621,-0.373998,-2.51947,0
6140,-1.38034,-0.375682,-2.51473,0
6160,-1.38694,-0.377606,-2.50901,0
6180,-1.39171,-0.379956,-2.5026,0
6200,-1.39433,-0.383525,-2.49535,0
6220,-1.39797,-0.386066,-2.48706,0
6240,-1.40157,-0.386973,-2.4777,0
6260,-1.40313,-0.389605,-2.4673,0
6280,-1.40414,-0.396592,-2.45682,0
6300,-1.40774,-0.403494,-2.44651,0
6320,-1.41263,-0.408231,-2.43642,0
6340,-1.41729,-0.414627,-2.42496,0
6360,-1.42275,-0.423212,-2.41358,0
6380,-1.42942,-0.431386,-2.4039,0
6400,-1.43507,-0.43937,-2.39663,0
6420,-1.43965,-0.450045,-2.3896,0
6440,-1.44411,-0.465329,-2.38318,0
6460,-1.45031,-0.48355,-2.37857,0
6480,-1.45467,-0.498464,-2.37863,0
6500,-1.45674,-0.509925,-2.38166,0
6520,-1.46151,-0.521339,-2.38482,0
6540,-1.46845,-0.533021,-2.3896,0
6560,-1.47632,-0.541855,-2.39915,0
6580,-1.47629,-0.547185,-2.41342,0
6600,-1.47142,-0.554608,-2.42856,0
6620,-1.4655,-0.562791,-2.44733,0
6640,-1.46036,-0.570179,-2.47114,0
6660,-1.4561,-0.577931,-2.49963,0
6680,-1.44914,-0.585264,-2.53272,0
6700,-1.43812,-0.594809,-2.56835,0
6720,-1.42742,-0.605526,-2.60672,0
6740,-1.4164,-0.617905,-2.64808,0
6760,-1.40257,-0.632611,-2.69203,0
6780,-1.38909,-0.648716,-2.73568,0
6800,-1.37611,-0.66521,-2.77893,0
6820,-1.3641,-0.682629,-2.8199,0
6840,-1.35317,-0.700984,-2.85821,0
6860,-1.34379,-0.72011,-2.8944,0
6880,-1.33839,-0.739512,-2.92725,0
6900,-1.33727,-0.754811,-2.95625,0
6920,-1.33587,-0.763047,-2.9833,0
6940,-1.33029,-0.764771,-3.00704,0
6960,-1.31889,-0.763519,-3.02737,0
6980,-1.30567,-0.759659,-3.04523,0
7000,-1.29417,-0.753533,-3.062,0
7020,-1.2854,-0.744988,-3.07833,0
7040,-1.27743,-0.735437,-3.09295,0
7060,-1.26713,-0.723382,-3.10535,0
7080,-1.25507,-0.709391,-3.11538,0
7100,-1.2412,-0.694667,-3.12461,0
7120,-1.22707,-0.680207,-3.13183,0
7140,-1.21159,-0.664959,-3.13637,0
7160,-1.19506,-0.649624,-3.13762,0
7180,-1.17974,-0.634041,-3.13476,0
7200,-1.16722,-0.618322,-3.1276,0
7200,-1.1575,-0.60282,-3.11647,0
7220,-1.15098,-0.587101,-3.09996,0
7240,-1.14817,-0.571466,-3.07542,0
7260,-1.1501,-0.556587,-3.04603,0
7280,-1.15477,-0.542048,-3.01451,0
7300,-1.16332,-0.527633,-2.98013,0
7320,-1.17695,-0.514422,-2.94267,0
7340,-1.19551,-0.502422,-2.90241,0
7360,-1.21567,-0.492419,-2.86047,0
7380,-1.23327,-0.491891,-2.8183,0
7400,-1.25038,-0.494441,-2.77454,0
7420,-1.27035,-0.499867,-2.72974,0
7440,-1.2915,-0.509502,-2.68577,0
7460,-1.31095,-0.523872,-2.64398,0
7480,-1.33056,-0.541287,-2.60385,0
7500,-1.35195,-0.560358,-2.56318,0
7520,-1.37215,-0.580193,-2.52238,0
7540,-1.38911,-0.600841,-2.48329,0
7560,-1.41063,-0.615598,-2.44451,0
7580,-1.43266,-0.631722,-2.4093,0
7600,-1.45609,-0.649036,-2.37793,0
7620,-1.47942,-0.665779,-2.35146,0
7640,-1.50147,-0.683185,-2.32976,0
7660,-1.52247,-0.702426,-2.3121,0
7680,-1.54363,-0.723357,-2.29946,0
7700,-1.56339,-0.744376,-2.29474,0
7720,-1.58097,-0.764371,-2.29645,0
7740,-1.59576,-0.786113,-2.30241,0
7760,-1.60765,-0.810073,-2.31763,0
7780,-1.61235,-0.834901,-2.34553,0
7800,-1.60533,-0.858549,-2.38402,0
7820,-1.5874,-0.882123,-2.43018,0
7840,-1.55707,-0.901368,-2.48877,0
7860,-1.52613,-0.919535,-2.55611,0
7870,-1.49167,-0.935791,-2.62796,0
7880,-1.41411,-0.954108,-2.77499,0
7900,-1.37285,-0.954865,-2.84381,0
7920,-1.33074,-0.951156,-2.90726,0
7940,-1.28882,-0.949466,-2.96619,0
7960,-1.25054,-0.941637,-3.01953,0
7980,-1.21418,-0.927195,-3.06697,0
8000,-1.18117,-0.909114,-3.10356,0
8020,-1.14981,-0.89077,-3.13182,0
8040,-1.12182,-0.871578,3.1286,0
8060,-1.10125,-0.85032,3.11124,0
8080,-1.08758,-0.827088,3.10031,0
8100,-1.0771,-0.803475,3.09777,0
8120,-1.06531,-0.781201,3.10029,0
8140,-1.05483,-0.758329,3.1059,0
8160,-1.04911,-0.734401,3.11528,0
8180,-1.04983,-0.709896,3.13056,0
8200,-1.0547,-0.686687,-3.13109,0
8220,-1.06289,-0.666835,-3.10456,0
8240,-1.07312,-0.648587,-3.07496,0
8260,-1.08847,-0.631068,-3.04375,0
8280,-1.10963,-0.616604,-3.00985,0
8300,-1.13405,-0.605585,-2.97089,0
8320,-1.15869,-0.599344,-2.92797,0
8340,-1.18196,-0.604027,-2.88441,0
8360,-1.20787,-0.612665,-2.8386,0
8380,-1.2359,-0.624477,-2.78972,0
8400,-1.26683,-0.638088,-2.73717,0
8430,-1.3373,-0.668457,-2.62454,0
8450,-1.37786,-0.684966,-2.56579,0
8470,-1.42142,-0.701568,-2.50694,0
8490,-1.4672,-0.718057,-2.44753,0
8510,-1.51216,-0.734455,-2.38881,0
8530,-1.55515,-0.750424,-2.33208,0
8550,-1.59538,-0.76666,-2.2802,0
8570,-1.63675,-0.779537,-2.23075,0
8590,-1.67556,-0.792005,-2.1866,0
8610,-1.71312,-0.808009,-2.14746,0
8630,-1.74774,-0.827723,-2.11456,0
8650,-1.77881,-0.847319,-2.0891,0
8670,-1.80558,-0.866562,-2.07122,0
8690,-1.83074,-0.887846,-2.05704,0
8710,-1.85239,-0.914545,-2.04801,0
8730,-1.86957,-0.942805,-2.04841,0
8770,-1.88124,-1.03217,-2.11286,0
8790,-1.86015,-1.06488,-2.16035,0
8810,-1.82098,-1.09307,-2.22961,0
8820,-1.76533,-1.11769,-2.31621,0
8840,-1.69097,-1.13852,-2.41974,0
8860,-1.60683,-1.1534,-2.53234,0
8880,-1.52222,-1.15823,-2.64083,0
8880,-1.22611,-1.11091,-2.98457,0
8900,-1.17876,-1.09283,-3.03899,0
8920,-1.10389,-1.04726,-3.12733,0
8940,-1.08186,-1.02068,3.13191,0
8960,-1.06646,-0.996169,3.12205,0
8980,-1.05014,-0.973324,3.11597,0
9000,-1.03751,-0.948548,3.11266,0
9020,-1.0319,-0.921973,3.11478,0
9030,-1.03525,-0.896093,3.12794,0
9050,-1.0426,-0.872113,-3.13294,0
9070,-1.05246,-0.851232,-3.10601,0
9090,-1.06689,-0.831434,-3.07769,0
9110,-1.08845,-0.81267,-3.04473,0
9130,-1.11935,-0.794747,-3.0045,0
9150,-1.1559,-0.778495,-2.9567,0
9170,-1.19415,-0.765086,-2.90726,0
9190,-1.23286,-0.752277,-2.85586,0
9210,-1.27399,-0.742056,-2.80283,0
9230,-1.31453,-0.73764,-2.75101,0
9250,-1.35475,-0.734703,-2.69942,0
9270,-1.3937,-0.7337,-2.64705,0
9290,-1.4309,-0.735011,-2.59433,0
9310,-1.46617,-0.739282,-2.54309,0
9330,-1.49943,-0.7467,-2.49304,0
9350,-1.53186,-0.756986,-2.44269,0
9370,-1.56336,-0.771397,-2.39312,0
9390,-1.59974,-0.782956,-2.34181,0
9410,-1.63698,-0.795797,-2.29128,0
9430,-1.67339,-0.810981,-2.24137,0
9450,-1.70508,-0.829326,-2.19587,0
9470,-1.73104,-0.847684,-2.15619,0
9490,-1.75637,-0.864889,-2.12027,0
9510,-1.78058,-0.883651,-2.08825,0
9530,-1.80242,-0.903309,-2.06092,0
9550,-1.82363,-0.924797,-2.03807,0
9570,-1.84947,-0.946299,-2.01744,0
9590,-1.87661,-0.966863,-2.00295,0
9610,-1.90135,-0.982888,-1.99019,0
9630,-1.92107,-0.991172,-1.97847,0
9650,-1.92985,-0.993967,-1.97296,0
9670,-1.93109,-0.997523,-1.97569,2001
9690,-1.93434,-1.00295,-1.97811,0
9710,-1.93749,-1.00395,-1.98288,0
9730,-1.94298,-1.00345,-1.98986,0
9750,-1.94532,-1.0035,-1.99776,0
9770,-1.94086,-1.00149,-2.00514,0
9790,-1.93338,-1.00028,-2.01254,0
9810,-1.92431,-1.00013,-2.02221,0
9830,-1.91556,-0.998883,-2.03347,0
9850,-1.91161,-0.997002,-2.04319,0
9870,-1.90858,-0.995624,-2.05265,0
9890,-1.90285,-0.992471,-2.0623,0
9910,-1.89286,-0.98746,-2.07446,0
9930,-1.88141,-0.981705,-2.08668,0
9950,-1.87205,-0.974659,-2.10005,0
9970,-1.86544,-0.962635,-2.1149,0
9990,-1.86023,-0.94238,-2.13092,0
10010,-1.85343,-0.915195,-2.15002,0
10030,-1.84228,-0.882452,-2.17044,0
10050,-1.82766,-0.846259,-2.18916,0
10070,-1.80898,-0.803921,-2.20927,0
10090,-1.78669,-0.757977,-2.2344,0
10110,-1.76158,-0.710072,-2.25597,0
10130,-1.73213,-0.661672,-2.27675,0
10150,-1.70059,-0.615806,-2.29778,0
10170,-1.66914,-0.574719,-2.31813,0
10190,-1.64232,-0.53992,-2.33603,0
10210,-1.61997,-0.518153,-2.35225,0
10230,-1.59686,-0.498425,-2.36516,0
10250,-1.57364,-0.484461,-2.37322,0
10270,-1.55429,-0.476266,-2.37902,0
10290,-1.53858,-0.470614,-2.3853,0
10310,-1.52803,-0.466002,-2.39074,0
10330,-1.52401,-0.462675,-2.39577,0
10350,-1.52065,-0.459214,-2.40353,0
10370,-1.51463,-0.452896,-2.41115,0
10390,-1.50632,-0.445261,-2.41749,0
10410,-1.49751,-0.436881,-2.42194,0
10430,-1.48812,-0.42763,-2.42392,0
10450,-1.47969,-0.418093,-2.42327,0
10470,-1.47356,-0.408859,-2.41983,0
10490,-1.47052,-0.401364,-2.41371,0
10510,-1.47087,-0.396775,-2.4054,2000
10530,-1.47426,-0.393928,-2.39581,0
10550,-1.47693,-0.392368,-2.38652,0
10570,-1.47847,-0.39054,-2.37879,0
10590,-1.48168,-0.387485,-2.37209,0
10610,-1.48675,-0.385959,-2.36414,0
10630,-1.49323,-0.387042,-2.35536,0
10650,-1.49843,-0.389479,-2.34647,0
10670,-1.50074,-0.393495,-2.33734,0
10690,-1.50208,-0.39908,-2.32586,0
10710,-1.50346,-0.406146,-2.31298,0
10730,-1.50113,-0.416208,-2.30039,0
10750,-1.49835,-0.430037,-2.28835,0
10770,-1.49983,-0.445795,-2.27883,0
10790,-1.50203,-0.462165,-2.27428,0
10810,-1.5011,-0.480775,-2.27562,0
10830,-1.50116,-0.503202,-2.28228,0
10850,-1.50407,-0.528937,-2.29529,0
10870,-1.50293,-0.555534,-2.3186,0
10890,-1.49738,-0.5831,-2.35032,0
10910,-1.49351,-0.612004,-2.3825,0
10930,-1.49031,-0.642499,-2.41382,0
10950,-1.48432,-0.671845,-2.4468,0
10970,-1.47495,-0.697723,-2.4815,0
10990,-1.46921,-0.722707,-2.51739,0
11010,-1.46864,-0.747562,-2.55538,0
11030,-1.46965,-0.770388,-2.59628,0
11050,-1.46434,-0.788717,-2.64041,0
11070,-1.44848,-0.803221,-2.68471,0
11090,-1.42802,-0.817602,-2.72629,0
11110,-1.40739,-0.830486,-2.76897,0
11130,-1.38475,-0.839193,-2.81365,0
11150,-1.36212,-0.84207,-2.85509,0
11170,-1.34124,-0.840935,-2.89262,0
11190,-1.32234,-0.835616,-2.9262,0
11210,-1.30572,-0.827338,-2.95424,0
11230,-1.29056,-0.814324,-2.97649,0
11250,-1.27401,-0.795604,-2.99209,0
11270,-1.25386,-0.774121,-3.00057,0
11290,-1.23527,-0.756,-3.0012,0
11310,-1.217,-0.737218,-2.99993,0
11330,-1.20691,-0.716164,-2.99597,0
11350,-1.19965,-0.693389,-2.98707,0
11370,-1.19265,-0.674082,-2.97208,0
11390,-1.18784,-0.655906,-2.95118,0
11410,-1.18919,-0.63698,-2.9277,0
11430,-1.19475,-0.618557,-2.90096,0
11450,-1.204,-0.600339,-2.86684,0
11470,-1.21751,-0.583874,-2.8246,0
11490,-1.23548,-0.579665,-2.77806,0
11510,-1.25855,-0.578026,-2.72909,0
11530,-1.28616,-0.579391,-2.67683,0
11550,-1.3184,-0.583544,-2.62254,0
11570,-1.35207,-0.590166,-2.56716,0
11590,-1.38609,-0.59899,-2.51119,0
11610,-1.41799,-0.610095,-2.45588,0
11630,-1.44808,-0.624042,-2.40256,0
11650,-1.47615,-0.640365,-2.35122,0
11670,-1.50401,-0.658848,-2.30226,0
11690,-1.53182,-0.678943,-2.25631,0
11710,-1.56365,-0.696495,-2.21315,0
11730,-1.59478,-0.716156,-2.17656,0
11750,-1.62528,-0.736369,-2.14699,0
11770,-1.65458,-0.759289,-2.12338,0
11790,-1.68102,-0.785682,-2.10776,0
11810,-1.70409,-0.814151,-2.10236,0
11830,-1.72201,-0.844304,-2.10704,0
11850,-1.7329,-0.875122,-2.12234,0
11870,-1.73644,-0.907707,-2.1501,0
11890,-1.73022,-0.941216,-2.19239,0
11910,-1.7091,-0.969405,-2.25036,0
11930,-1.67527,-0.994944,-2.32215,0
11950,-1.62944,-1.01759,-2.40705,0
11990,-1.34758,-1.02628,-2.82417,0
12010,-1.29825,-1.01948,-2.88844,0
12030,-1.25595,-1.00855,-2.9435,0
12050,-1.21733,-0.993065,-2.99356,0
12070,-1.1858,-0.973309,-3.03465,0
12090,-1.15596,-0.949627,-3.06371,0
12110,-1.12872,-0.926633,-3.08426,0
12130,-1.10398,-0.906256,-3.1007,0
12150,-1.0893,-0.884035,-3.10948,0
12170,-1.08101,-0.856971,-3.11015,0
12220,-1.06871,-0.778257,-3.08357,0
12240,-1.07616,-0.752765,-3.05982,0
12260,-1.08538,-0.730747,-3.03441,0
12280,-1.09749,-0.709309,-3.00368,0
12300,-1.11619,-0.689856,-2.9645,0
12320,-1.1401,-0.67378,-2.92158,0
12340,-1.1673,-0.661065,-2.87722,0
12360,-1.19898,-0.649413,-2.82842,0
12380,-1.23074,-0.649096,-2.77688,0
12400,-1.26525,-0.652384,-2.72281,0
12420,-1.30301,-0.659316,-2.66724,0
12440,-1.34529,-0.66982,-2.60844,0
12460,-1.39003,-0.68317,-2.54388,0
12480,-1.43088,-0.699788,-2.47594,0
12500,-1.4666,-0.720389,-2.41152,0
12520,-1.50045,-0.745416,-2.35381,0
12540,-1.53523,-0.774072,-2.30184,0
12560,-1.57769,-0.80035,-2.25086,0
12580,-1.62093,-0.827774,-2.20661,0
12600,-1.65648,-0.856539,-2.17059,0
12620,-1.68151,-0.89146,-2.14773,0
12640,-1.70409,-0.927142,-2.13341,0
12660,-1.72644,-0.962529,-2.1243,0
12680,-1.74326,-0.998219,-2.1247,0
12700,-1.7501,-1.03658,-2.13888,0
12720,-1.74736,-1.0755,-2.16958,0
12740,-1.74017,-1.11571,-2.2116,0
12760,-1.70731,-1.15422,-2.28269,0
12780,-1.64436,-1.18766,-2.38075,0
12800,-1.5597,-1.21235,-2.4965,0
12820,-1.45017,-1.22736,-2.63158,0
12840,-1.32165,-1.23075,-2.7796,0
12860,-1.10864,-1.20672,-3.02286,0
12880,-1.03941,-1.17909,-3.10562,0
12900,-0.986345,-1.14348,3.11439,0
12920,-0.95111,-1.1065,3.0709,0
12940,-0.92389,-1.07307,3.03837,0
12960,-0.908895,-1.03932,3.02186,0
12980,-0.902758,-1.00626,3.019,0
13000,-0.902947,-0.97581,3.02662,0
13020,-0.906265,-0.949392,3.0386,0
13040,-0.912041,-0.92709,3.05359,0
13060,-0.925784,-0.905687,3.07486,0
13080,-0.942718,-0.885747,3.09837,0
13100,-0.960259,-0.868445,3.12369,0
13120,-0.975347,-0.850681,-3.13378,0
13140,-0.990179,-0.830414,-3.10693,0
13160,-1.00557,-0.810194,-3.07712,0
13180,-1.02365,-0.793257,-3.04448,0
13200,-1.04688,-0.778972,-3.00799,0
13220,-1.07446,-0.765852,-2.96821,0
13240,-1.10633,-0.754625,-2.9258,0
13260,-1.14124,-0.745941,-2.88165,0
13280,-1.17654,-0.740158,-2.83612,0
13300,-1.21232,-0.737107,-2.79028,0
13320,-1.24735,-0.736194,-2.74336,0
13340,-1.28216,-0.738513,-2.69351,0
13360,-1.31081,-0.751274,-2.64653,0
13380,-1.34236,-0.767283,-2.59892,0
13400,-1.37751,-0.785621,-2.55019,0
13420,-1.41508,-0.806564,-2.50037,0
13440,-1.45452,-0.829121,-2.44995,0
13460,-1.49955,-0.848973,-2.3967,0
13480,-1.54042,-0.870588,-2.34746,0
13500,-1.57827,-0.894032,-2.30241,0
13520,-1.61231,-0.919342,-2.26367,0
13540,-1.64101,-0.942684,-2.23106,0
13560,-1.66873,-0.963305,-2.20147,0
13580,-1.69854,-0.985802,-2.17144,0
13600,-1.75722,-1.02862,-2.1158,0
13620,-1.78319,-1.04529,-2.0946,0
13640,-1.80737,-1.06128,-2.07233,0
13660,-1.83077,-1.07676,-2.0483,2001
13680,-1.85238,-1.08835,-2.02755,0
13700,-1.87234,-1.09557,-2.00965,0
13720,-1.89096,-1.10023,-1.99434,0
13740,-1.90569,-1.1029,-1.9832,0
13760,-1.92153,-1.10327,-1.97484,0
13780,-1.93538,-1.10261,-1.97149,0
13800,-1.94425,-1.10061,-1.97539,0
13820,-1.94978,-1.09749,-1.98476,0
13840,-1.95591,-1.0957,-1.99334,0
13860,-1.96209,-1.09205,-1.99741,0
13880,-1.95598,-1.08413,-2.00974,0
13900,-1.9416,-1.07591,-2.02941,0
13920,-1.91918,-1.06626,-2.0545,0
13940,-1.89858,-1.05397,-2.08028,0
13960,-1.87586,-1.03231,-2.10783,0
13980,-1.85367,-1.00584,-2.1358,0
14000,-1.83227,-0.975718,-2.16215,0
14020,-1.80339,-0.939166,-2.19166,0
14040,-1.76322,-0.896684,-2.22446,0
14060,-1.72359,-0.852436,-2.25289,0
14080,-1.69214,-0.811706,-2.27802,0
14100,-1.65531,-0.77029,-2.30521,0
14120,-1.61586,-0.728267,-2.32788,0
14140,-1.58214,-0.693071,-2.34573,0
14160,-1.55039,-0.667529,-2.36247,0
14180,-1.51392,-0.641287,-2.37628,0
14200,-1.48285,-0.6178,-2.38666,0
14220,-1.45971,-0.600394,-2.39661,0
14240,-1.43877,-0.585901,-2.40486,0
14260,-1.4253,-0.57204,-2.41079,0
14280,-1.41905,-0.561298,-2.41513,0
14300,-1.40576,-0.545893,-2.42601,0
14320,-1.39989,-0.537394,-2.42924,0
14340,-1.39835,-0.5293,-2.43137,0
14360,-1.39509,-0.523359,-2.4331,0
14380,-1.39356,-0.518644,-2.43265,0
14400,-1.39217,-0.514093,-2.43126,0
14420,-1.39317,-0.510133,-2.42984,0
14440,-1.39574,-0.507776,-2.42939,0
14460,-1.39866,-0.505961,-2.42655,0
14480,-1.40045,-0.502741,-2.42412,0
14500,-1.40252,-0.499116,-2.42294,2000
14520,-1.40417,-0.495629,-2.42303,0
14540,-1.40668,-0.492412,-2.42175,0
14560,-1.40869,-0.489247,-2.41811,0
14580,-1.41039,-0.486096,-2.41443,0
14600,-1.41162,-0.482762,-2.41112,0
14620,-1.41526,-0.479264,-2.40676,0
14640,-1.42006,-0.475472,-2.40216,0
14660,-1.4247,-0.471826,-2.3959,0
14680,-1.43152,-0.467474,-2.38636,0
14700,-1.43817,-0.462744,-2.37435,0
14720,-1.44147,-0.463395,-2.35953,0
14740,-1.44466,-0.469529,-2.34158,0
14760,-1.45281,-0.477949,-2.32305,0
14780,-1.4625,-0.487487,-2.30674,0
14800,-1.47119,-0.49785,-2.29202,0
14840,-1.48021,-0.522573,-2.27334,0
14860,-1.47866,-0.537906,-2.27382,0
14880,-1.47749,-0.555381,-2.28109,0
14900,-1.47363,-0.576949,-2.29811,0
14920,-1.46801,-0.604425,-2.32128,0
14940,-1.45754,-0.63574,-2.35333,0
14960,-1.44654,-0.667045,-2.39364,0
14980,-1.43515,-0.697168,-2.44023,0
15000,-1.42929,-0.727956,-2.48484,0
15020,-1.42529,-0.757929,-2.52645,0
15040,-1.42048,-0.784344,-2.57003,0
15060,-1.41423,-0.805925,-2.61509,0
15080,-1.4079,-0.823347,-2.66021,0
15090,-1.40373,-0.840282,-2.70614,0
15110,-1.39424,-0.852891,-2.75374,0
15130,-1.37919,-0.863244,-2.79981,0
15150,-1.3605,-0.872555,-2.84695,0
15170,-1.33897,-0.87635,-2.89804,0
15190,-1.31906,-0.873931,-2.94962,0
15200,-1.30373,-0.862928,-2.99347,0
15220,-1.28854,-0.846542,-3.02621,0
15240,-1.26433,-0.837206,-3.05725,0
15260,-1.23909,-0.829686,-3.08603,0
15280,-1.22131,-0.816708,-3.10598,0
15300,-1.20972,-0.798648,-3.12008,0
15310,-1.1944,-0.778814,-3.13369,0
15330,-1.17745,-0.757434,3.14019,0
15350,-1.16261,-0.733871,3.1403,0
15370,-1.14798,-0.709816,-3.13994,0
15390,-1.13074,-0.685797,-3.13493,0
15410,-1.12016,-0.662699,-3.12154,0
15430,-1.11527,-0.641042,-3.10323,0
15450,-1.11208,-0.618232,-3.08052,0
15470,-1.11688,-0.595065,-3.05006,0
15490,-1.12792,-0.5743,-3.01382,0
15510,-1.1438,-0.555267,-2.97266,0
15530,-1.16431,-0.54812,-2.92364,0
15550,-1.18653,-0.546931,-2.87094,0
15570,-1.21269,-0.550897,-2.81662,0
15590,-1.24209,-0.558624,-2.75944,0
15610,-1.3013,-0.588008,-2.64018,0
15620,-1.32929,-0.609777,-2.57876,0
15640,-1.35954,-0.634625,-2.5142,0
15660,-1.39309,-0.663204,-2.44949,0
15680,-1.42988,-0.695275,-2.38769,0
15700,-1.46918,-0.728685,-2.33159,0
15720,-1.50764,-0.763509,-2.28108,0
15740,-1.54534,-0.799689,-2.23816,0
15760,-1.57846,-0.836099,-2.20732,0
15780,-1.60743,-0.872012,-2.18778,0
15800,-1.64027,-0.904595,-2.17553,0
15820,-1.66519,-0.940353,-2.17786,0
15840,-1.6741,-0.974741,-2.19845,0
15860,-1.67027,-1.00681,-2.23998,0
15880,-1.64355,-1.03193,-2.30874,0
15900,-1.60231,-1.0523,-2.39354,0
15920,-1.55008,-1.06932,-2.4936,0
15940,-1.48525,-1.07837,-2.60621,0
15960,-1.41667,-1.07766,-2.71935,0
15990,-1.20253,-1.04793,-3.00439,0
16000,-1.14214,-1.02452,-3.08183,0
16020,-1.09826,-0.996877,-3.14002,0
16040,-1.06614,-0.969496,3.09571,0
16060,-1.03686,-0.94387,3.05746,0
16080,-1.01589,-0.916723,3.03693,0
16100,-0.994628,-0.890614,3.02554,0
16120,-0.973755,-0.866492,3.01641,0
16140,-0.958917,-0.843049,3.01063,0
16160,-0.953588,-0.81842,3.01467,0
16180,-0.954443,-0.792365,3.02961,0
16200,-0.952143,-0.771664,3.04859,0
16220,-0.950412,-0.754657,3.06748,0
16240,-0.95774,-0.737886,3.0929,0
16260,-0.973691,-0.722581,3.12722,0
16280,-0.992316,-0.710016,-3.11727,0
16300,-1.00791,-0.696842,-3.07532,0
16320,-1.02375,-0.687105,-3.02953,0
16340,-1.04468,-0.68005,-2.98114,0
16360,-1.07061,-0.683509,-2.93053,0
16380,-1.1009,-0.688763,-2.8733,0
16400,-1.13377,-0.697149,-2.8121,0
16420,-1.16776,-0.70791,-2.75073,0
16440,-1.20665,-0.72019,-2.68754,0
16460,-1.2526,-0.734013,-2.62117,0
16480,-1.30387,-0.748498,-2.55334,0
16500,-1.35877,-0.762383,-2.48563,0
16520,-1.41785,-0.775338,-2.41935,0
16540,-1.47877,-0.787624,-2.35488,0
16560,-1.53629,-0.798582,-2.29333,0
16580,-1.59371,-0.808731,-2.23643,0
16600,-1.65486,-0.813978,-2.18304,0
16620,-1.70863,-0.822402,-2.13971,0
16640,-1.75696,-0.834608,-2.10192,0
16660,-1.80578,-0.848225,-2.06661,0
16680,-1.85134,-0.863534,-2.03632,0
16700,-1.89371,-0.882707,-2.01127,0
16720,-1.93396,-0.904898,-1.98997,0
16740,-1.97351,-0.930026,-1.97351,0
16760,-2.00627,-0.958621,-1.96501,0
16780,-2.0301,-0.990669,-1.9658,0
16800,-2.05043,-1.02633,-1.97592,0
16820,-2.06607,-1.06073,-1.99348,0
16840,-2.06033,-1.09386,-2.02926,0
16860,-2.02547,-1.11926,-2.08798,0
16880,-1.97468,-1.14002,-2.16282,0
16900,-1.91316,-1.15328,-2.2502,0
16920,-1.83907,-1.15752,-2.34743,0
16940,-1.75796,-1.15447,-2.44933,0
16960,-1.68111,-1.1462,-2.54852,0
16980,-1.60281,-1.13318,-2.64616,0
17000,-1.52568,-1.11701,-2.73995,0
17020,-1.45272,-1.09771,-2.82787,0
17040,-1.38886,-1.07559,-2.90664,0
17060,-1.33523,-1.05132,-2.97447,0
17080,-1.2869,-1.02347,-3.02846,0
17100,-1.25388,-0.992869,-3.06392,0
17120,-1.23297,-0.962693,-3.08966,0
17140,-1.22616,-0.934361,-3.10429,0
17160,-1.23828,-0.90787,-3.10366,0
17180,-1.26063,-0.880141,-3.08883,0
17230,-1.31338,-0.809317,-3.01076,0
17250,-1.33382,-0.789621,-2.98256,0
17270,-1.36054,-0.770352,-2.94892,0
17290,-1.3917,-0.753718,-2.90865,0
17310,-1.42296,-0.739407,-2.86505,0
17330,-1.45335,-0.726578,-2.81897,0
17350,-1.48765,-0.723938,-2.76584,0
17370,-1.52279,-0.721029,-2.70967,0
17390,-1.55796,-0.719153,-2.65171,0
17410,-1.5933,-0.717642,-2.59084,0
17430,-1.6311,-0.717121,-2.52999,0
17450,-1.67045,-0.719338,-2.4726,0
17470,-1.70957,-0.723559,-2.41856,0
17490,-1.74722,-0.730175,-2.36611,0
17510,-1.78841,-0.735073,-2.31366,0
17530,-1.82188,-0.743678,-2.2687,0
17550,-1.84607,-0.753958,-2.22792,0
17570,-1.86521,-0.767284,-2.1889,0
17590,-1.8839,-0.785045,-2.15436,0
17610,-1.9019,-0.805483,-2.12988,0
17630,-1.91563,-0.824227,-2.11458,0
17650,-1.92811,-0.842349,-2.10182,0
17670,-1.93932,-0.862477,-2.08629,0
17690,-1.95241,-0.88133,-2.06897,0
17710,-1.96475,-0.89705,-2.05805,0
17730,-1.96751,-0.910449,-2.05676,0
17750,-1.96834,-0.922667,-2.05676,0
17770,-1.97436,-0.935365,-2.05481,0
17790,-1.98282,-0.946933,-2.05428,0
17810,-1.98771,-0.95619,-2.05822,2001
17830,-1.99207,-0.965567,-2.06016,0
17850,-1.99556,-0.976015,-2.06127,0
17870,-2.00284,-0.983062,-2.06307,0
17890,-2.01008,-0.984531,-2.06536,0
17910,-2.01884,-0.984191,-2.06184,0
17930,-2.02891,-0.983732,-2.05487,0
17950,-2.04607,-0.983607,-2.04279,0
17970,-2.06722,-0.980746,-2.02892,0
17990,-2.08925,-0.97303,-2.01564,0
18000,-2.10901,-0.962555,-2.00199,0
18020,-2.12342,-0.950316,-1.99156,0
18040,-2.12861,-0.935401,-1.99032,0
18060,-2.12877,-0.918618,-1.99527,0
18080,-2.12002,-0.894879,-2.00407,0
18100,-2.09999,-0.86592,-2.0232,0
18120,-2.06947,-0.832734,-2.05272,0
18140,-2.03449,-0.796436,-2.08571,0
18160,-1.99532,-0.756549,-2.12052,0
18180,-1.94922,-0.712161,-2.1576,0
18200,-1.90654,-0.666371,-2.1918,0
18220,-1.86552,-0.622772,-2.22274,0
18240,-1.82222,-0.581698,-2.25178,0
18260,-1.78558,-0.545896,-2.27729,0
18280,-1.75972,-0.522133,-2.2985,0
18300,-1.73381,-0.502681,-2.31833,0
18320,-1.70401,-0.485066,-2.33506,0
18340,-1.67486,-0.470868,-2.3471,0
18360,-1.65204,-0.461679,-2.35654,0
18380,-1.63075,-0.453032,-2.36731,0
18400,-1.60989,-0.440799,-2.37588,0
18420,-1.59429,-0.4282,-2.37949,0
18440,-1.58298,-0.417363,-2.38176,0
18460,-1.57145,-0.406151,-2.38288,0
18480,-1.56219,-0.394738,-2.38248,0
18500,-1.55649,-0.382443,-2.38114,0
18520,-1.55096,-0.370111,-2.37989,0
18540,-1.54347,-0.36068,-2.37749,0
18560,-1.53736,-0.354063,-2.37345,0
18580,-1.53549,-0.34843,-2.36898,0
18600,-1.53333,-0.344126,-2.36475,0
18620,-1.53091,-0.342651,-2.35962,0
18640,-1.53076,-0.342183,-2.35326,0
18660,-1.53288,-0.341471,-2.34599,2000
18680,-1.53439,-0.339568,-2.33829,0
18700,-1.53693,-0.336488,-2.32892,0
18720,-1.5428,-0.335224,-2.31833,0
18740,-1.55305,-0.338163,-2.30637,0
18760,-1.56484,-0.340781,-2.28961,0
18780,-1.57499,-0.344367,-2.26826,0
18800,-1.58144,-0.353309,-2.24443,0
18820,-1.58851,-0.366979,-2.22022,0
18840,-1.59679,-0.383477,-2.1974,0
18860,-1.60814,-0.402053,-2.17657,0
18880,-1.62206,-0.422029,-2.15714,0
18900,-1.63433,-0.442033,-2.13994,0
18920,-1.64533,-0.463958,-2.12688,0
18940,-1.6565,-0.489259,-2.11974,0
18960,-1.66774,-0.517347,-2.12063,0
18980,-1.67709,-0.549009,-2.12899,0
19000,-1.68161,-0.58492,-2.14392,0
19020,-1.68549,-0.622445,-2.16477,0
19040,-1.6894,-0.658719,-2.19314,0
19060,-1.69213,-0.694883,-2.22687,0
19080,-1.69066,-0.728031,-2.26888,0
19100,-1.69077,-0.761571,-2.31736,0
19120,-1.55857,-0.857178,-2.63453,0
19150,-1.40873,-0.861051,-2.90277,0
19170,-1.36963,-0.848027,-2.96981,0
19180,-1.34069,-0.824023,-3.02477,0
19180,-1.31317,-0.797682,-3.06854,0
19200,-1.28925,-0.770426,-3.09437,0
19220,-1.26675,-0.747961,-3.11257,0
19240,-1.23948,-0.721207,-3.13009,0
19260,-1.213,-0.695633,3.14102,0
19280,-1.19449,-0.675873,3.13341,0
19300,-1.18206,-0.654741,3.13127,0
19320,-1.16882,-0.629579,3.13835,0
19340,-1.15523,-0.609802,-3.12928,0
19360,-1.14603,-0.594656,-3.10738,0
19380,-1.14066,-0.578316,-3.07872,0
19390,-1.13826,-0.562295,-3.0446,0
19410,-1.13701,-0.548104,-3.00827,0
19430,-1.13732,-0.533903,-2.9709,0
19450,-1.14296,-0.518826,-2.93261,0
19470,-1.15414,-0.504705,-2.89348,0
19490,-1.1672,-0.492519,-2.85187,0
19510,-1.18022,-0.492867,-2.80816,0
19530,-1.19712,-0.498196,-2.76294,0
19560,-1.24761,-0.516627,-2.66405,0
19580,-1.27971,-0.528993,-2.60891,0
19600,-1.31416,-0.543717,-2.55296,0
19620,-1.34763,-0.560134,-2.49672,0
19640,-1.38133,-0.579486,-2.44016,0
19660,-1.4977,-0.642338,-2.27795,0
19680,-1.53606,-0.663922,-2.23054,0
19700,-1.57449,-0.681797,-2.18589,0
19720,-1.61106,-0.702389,-2.14752,0
19740,-1.64756,-0.724044,-2.11643,0
19760,-1.68367,-0.745722,-2.09236,0
19780,-1.71468,-0.769613,-2.07548,0
19800,-1.738,-0.797054,-2.06782,0
19820,-1.75626,-0.826533,-2.07193,0
19840,-1.77125,-0.857124,-2.08664,0
19860,-1.78094,-0.925954,-2.14342,0
19880,-1.76402,-0.958137,-2.19649,0
19900,-1.743,-0.985029,-2.25774,0
19920,-1.7148,-1.0055,-2.32026,0
19930,-1.68113,-1.02229,-2.38287,0
19950,-1.64418,-1.03649,-2.44976,0
19970,-1.6038,-1.04941,-2.51853,0
20000,-1.5038,-1.07861,-2.66049,0
20020,-1.45358,-1.09122,-2.73034,0
20040,-1.39805,-1.10087,-2.80404,0
20060,-1.34183,-1.10514,-2.87139,0
20080,-1.29599,-1.10341,-2.92264,0
20100,-1.25875,-1.0964,-2.96198,0
20120,-1.22554,-1.08198,-2.99459,0
20140,-1.19923,-1.06213,-3.01521,0
20160,-1.16725,-1.04044,-3.03413,0
20180,-1.15751,-1.02173,-3.03099,0
20200,-1.14848,-1.00066,-3.02742,0
20220,-1.14573,-0.953595,-3.00733,0
20240,-1.15361,-0.906002,-2.97586,0
20260,-1.16246,-0.882125,-2.95348,0
20280,-1.17538,-0.855331,-2.92854,0
20300,-1.18866,-0.826235,-2.9017,0
20320,-1.20097,-0.797859,-2.87111,0
20340,-1.21527,-0.77138,-2.83664,0
20360,-1.23465,-0.74692,-2.80056,0
20380,-1.25953,-0.724138,-2.76482,0
20400,-1.28845,-0.701705,-2.72696,0
20420,-1.3191,-0.679672,-2.68503,0
20440,-1.35052,-0.660094,-2.63865,0
20460,-1.38275,-0.653982,-2.58991,0
20480,-1.41888,-0.653136,-2.53995,0
20500,-1.4568,-0.655974,-2.48785,0
20520,-1.49447,-0.663634,-2.43402,0
20540,-1.56078,-0.694222,-2.32472,0
20560,-1.58881,-0.715027,-2.27241,0
20580,-1.61706,-0.738756,-2.22228,0
20600,-1.6526,-0.756494,-2.17112,0
20620,-1.68849,-0.776679,-2.1241,0
20650,-1.7502,-0.836834,-2.05182,0
20670,-1.77965,-0.86758,-2.02311,0
20690,-1.80946,-0.895662,-1.99846,0
20710,-1.87086,-1.01992,-2.0126,0
20720,-1.86355,-1.05499,-2.04794,0
20740,-1.83067,-1.08639,-2.10505,0
20760,-1.78135,-1.11369,-2.17572,0
20780,-1.7212,-1.13964,-2.2613,0
20790,-1.64381,-1.16101,-2.36277,0
20820,-1.46109,-1.18032,-2.58641,0
20830,-1.35998,-1.17948,-2.70709,0
20840,-1.26181,-1.16914,-2.8259,0
20860,-1.17784,-1.14943,-2.926,0
20880,-1.10914,-1.1237,-3.0052,0
20900,-1.05602,-1.09428,-3.06639,0
20920,-1.01117,-1.06587,-3.11652,0
20940,-0.981124,-1.03294,3.13127,0
20960,-0.962917,-0.994422,3.10966,0
20980,-0.952861,-0.955617,3.10006,0
21000,-0.949356,-0.918412,3.10081,0
21020,-0.953175,-0.884499,3.10987,0
21040,-0.963603,-0.854722,3.12574,0
21060,-0.981817,-0.828491,-3.13308,0
21080,-1.00573,-0.805145,-3.10152,0
21100,-1.03363,-0.785223,-3.06343,0
21120,-1.06698,-0.76983,-3.01879,0
21140,-1.10409,-0.75709,-2.97074,0
21160,-1.1433,-0.745891,-2.91961,0
21180,-1.18409,-0.742397,-2.86553,0
21200,-1.22505,-0.740462,-2.80776,0
21220,-1.26752,-0.739834,-2.74769,0
21240,-1.31307,-0.740159,-2.68705,0
21260,-1.36194,-0.742048,-2.62592,0
21280,-1.41255,-0.745393,-2.56377,0
21300,-1.46382,-0.74961,-2.50168,0
21320,-1.51305,-0.755603,-2.4416,0
21340,-1.55787,-0.764124,-2.38461,0
21360,-1.59827,-0.774237,-2.33047,0
21380,-1.64111,-0.783161,-2.27581,0
21400,-1.68061,-0.794968,-2.225,0
21420,-1.71784,-0.809796,-2.17837,0
21440,-1.753,-0.825022,-2.13568,0
21460,-1.78554,-0.840948,-2.09616,0
21480,-1.81418,-0.856224,-2.05965,0
21500,-1.84275,-0.87256,-2.02622,0
21520,-1.87009,-0.890958,-1.99601,0
21540,-1.89917,-0.910584,-1.96684,0
21560,-1.93177,-0.928787,-1.9408,0
21600,-1.98699,-0.963084,-1.90386,0
21620,-2.00358,-0.979237,-1.89305,2001
21640,-2.01617,-0.993056,-1.88696,0
21660,-2.02759,-1.00443,-1.88348,0
21680,-2.03646,-1.01397,-1.88395,0
21700,-2.03762,-1.02054,-1.89321,0
21720,-2.03895,-1.02409,-1.901,0
21740,-2.03823,-1.02479,-1.9075,0
21760,-2.03844,-1.02483,-1.91443,0
21780,-2.03807,-1.02282,-1.91994,0
21800,-2.03608,-1.0184,-1.92524,0
21820,-2.03146,-1.01036,-1.93432,0
21840,-2.02722,-0.999479,-1.94693,0
21860,-2.02295,-0.983214,-1.96271,0
21880,-2.01477,-0.964285,-1.98412,0
21900,-1.99594,-0.943411,-2.01385,0
21920,-1.96975,-0.919735,-2.0513,0
21940,-1.93836,-0.891707,-2.09249,0
21960,-1.90161,-0.858773,-2.13644,0
21980,-1.85779,-0.824184,-2.18224,0
22000,-1.80745,-0.786532,-2.22821,0
22020,-1.76385,-0.746413,-2.26797,0
22040,-1.72543,-0.708151,-2.30293,0
22060,-1.68925,-0.670611,-2.33514,0
22080,-1.65363,-0.63207,-2.36305,0
22100,-1.62197,-0.595799,-2.38427,0
22120,-1.59121,-0.567679,-2.40211,0
22140,-1.56348,-0.543037,-2.41616,0
22160,-1.54128,-0.522699,-2.42497,0
22180,-1.52472,-0.507942,-2.42926,0
22200,-1.50933,-0.497798,-2.43202,0
22220,-1.49598,-0.490758,-2.43162,0
22240,-1.48398,-0.485721,-2.42908,0
22260,-1.47094,-0.481124,-2.42468,0
22280,-1.462,-0.478086,-2.41769,0
22300,-1.45894,-0.476282,-2.41002,0
22320,-1.45903,-0.472412,-2.40319,0
22340,-1.45975,-0.466685,-2.39567,0
22360,-1.46256,-0.460516,-2.38723,0
22380,-1.46563,-0.454702,-2.3793,0
22400,-1.46784,-0.448996,-2.37249,0
22420,-1.46965,-0.443517,-2.36631,0
22440,-1.47053,-0.438819,-2.35988,0
22460,-1.47207,-0.435685,-2.3529,2000
22480,-1.47508,-0.433176,-2.34553,0
22500,-1.47764,-0.430945,-2.33924,0
22520,-1.48037,-0.429586,-2.33261,0
22540,-1.48731,-0.430249,-2.32428,0
22560,-1.49501,-0.430545,-2.3147,0
22580,-1.50131,-0.433263,-2.30332,0
22600,-1.50831,-0.440557,-2.29015,0
22620,-1.51593,-0.44987,-2.27601,0
22640,-1.52487,-0.460218,-2.26195,0
22660,-1.53456,-0.471769,-2.24769,0
22680,-1.5422,-0.483524,-2.23319,0
22700,-1.54713,-0.495569,-2.21916,0
22720,-1.55108,-0.509381,-2.20602,0
22740,-1.55614,-0.525035,-2.19402,0
22760,-1.56404,-0.542196,-2.18473,0
22780,-1.57048,-0.560291,-2.17975,0
22800,-1.5713,-0.582207,-2.17959,0
22820,-1.57229,-0.611284,-2.18143,0
22840,-1.57915,-0.647651,-2.18644,0
22860,-1.59384,-0.686596,-2.19708,0
22880,-1.61598,-0.721102,-2.20638,0
22900,-1.63684,-0.751539,-2.21509,0
22910,-1.65083,-0.778459,-2.22274,0
22920,-1.65673,-0.797367,-2.23299,0
22940,-1.65913,-0.808272,-2.24572,0
22960,-1.66022,-0.816233,-2.25964,0
22980,-1.65907,-0.822127,-2.27504,0
23000,-1.65523,-0.825844,-2.29395,0
23020,-1.64743,-0.830713,-2.31871,0
23020,-1.63651,-0.837385,-2.35055,0
23030,-1.59977,-0.849609,-2.44236,0
23070,-1.47131,-0.856686,-2.63468,0
23090,-1.42004,-0.856114,-2.70864,0
23110,-1.37415,-0.853871,-2.78723,0
23130,-1.33416,-0.848433,-2.86168,0
23150,-1.29494,-0.836229,-2.92575,0
23170,-1.25086,-0.81961,-2.97905,0
23190,-1.20768,-0.798932,-3.02545,0
23210,-1.16912,-0.774606,-3.06582,0
23230,-1.12992,-0.748297,-3.10034,0
23250,-1.10131,-0.724103,-3.12142,0
23270,-1.07955,-0.701553,-3.13417,0
23290,-1.05958,-0.678831,3.14053,0
23310,-1.04304,-0.656281,3.13633,0
23330,-1.03321,-0.631538,3.1387,0
23350,-1.02873,-0.6061,-3.13532,0
23390,-1.08411,-0.502773,-2.98701,0
23400,-1.11838,-0.499454,-2.93762,0
23410,-1.16121,-0.498911,-2.88243,0
23430,-1.20714,-0.502886,-2.82188,0
23450,-1.25273,-0.51117,-2.75672,0
23480,-1.33436,-0.538818,-2.61943,0
23520,-1.4062,-0.583605,-2.48563,0
23540,-1.44189,-0.612602,-2.4232,0
23560,-1.47652,-0.644361,-2.36549,0
23580,-1.50975,-0.678767,-2.31439,0
23600,-1.54452,-0.708385,-2.26707,0
23620,-1.57214,-0.742474,-2.22924,0
23630,-1.59722,-0.777145,-2.20019,0
23650,-1.62279,-0.807955,-2.17843,0
23670,-1.64299,-0.837504,-2.16695,0
23690,-1.658,-0.865724,-2.16384,0
23710,-1.66824,-0.892885,-2.17281,0
23730,-1.67527,-0.921024,-2.19239,0
23750,-1.68608,-0.950297,-2.2183,0
23770,-1.69228,-0.976828,-2.25517,0
23790,-1.68787,-1.00251,-2.30335,0
23800,-1.61222,-1.04457,-2.4365,0
23820,-1.55012,-1.06007,-2.51781,0
23840,-1.48694,-1.0724,-2.60256,0
23860,-1.42879,-1.07936,-2.68566,0
23880,-1.37791,-1.08037,-2.76165,0
23910,-1.19858,-1.05811,-2.99776,0
23930,-1.16088,-1.0403,-3.03939,0
23950,-1.12909,-1.01941,-3.07332,0
23970,-1.1025,-0.996635,-3.09898,0
23990,-1.07978,-0.972441,-3.11763,0
24010,-1.06149,-0.946158,-3.13027,0
24030,-1.04908,-0.918008,-3.13324,0
24050,-1.03831,-0.888436,-3.12916,0
24070,-1.02851,-0.862229,-3.11802,0
24090,-1.02212,-0.840211,-3.10236,0
24090,-1.02521,-0.817623,-3.07955,0
24100,-1.05338,-0.776928,-3.01751,0
24120,-1.08807,-0.770062,-2.97497,0
24140,-1.11085,-0.754173,-2.9339,0
24160,-1.1393,-0.73839,-2.89012,0
24180,-1.16575,-0.725416,-2.846,0
24200,-1.18845,-0.716694,-2.80027,0
24220,-1.2107,-0.720599,-2.75221,0
24240,-1.23738,-0.729319,-2.70041,0
24260,-1.26878,-0.741347,-2.64496,0
24280,-1.30395,-0.754226,-2.58505,0
24300,-1.34486,-0.765262,-2.52195,0
24320,-1.39027,-0.773823,-2.45807,0
24340,-1.43846,-0.78038,-2.39364,0
24360,-1.48863,-0.786296,-2.33027,0
24380,-1.54054,-0.792475,-2.27156,0
24400,-1.59281,-0.800935,-2.21669,0
24420,-1.64792,-0.805831,-2.16298,0
24440,-1.70198,-0.81278,-2.11293,0
24460,-1.75495,-0.823324,-2.0657,0
24480,-1.80567,-0.839441,-2.02288,0
24500,-1.851,-0.857514,-1.98661,0
24520,-1.89094,-0.877744,-1.95424,0
24540,-1.92516,-0.90189,-1.92489,0
24560,-1.95682,-0.932487,-1.89959,0
24580,-1.98793,-0.968119,-1.88347,0
24600,-2.01708,-1.00618,-1.87719,0
24620,-2.03957,-1.04683,-1.88178,0
24640,-2.05808,-1.09037,-1.89348,0
24660,-2.07174,-1.134,-1.91452,0
24680,-2.06434,-1.17767,-1.95507,0
24700,-2.03729,-1.22083,-2.00951,0
24720,-1.99016,-1.26246,-2.08192,0
24740,-1.92001,-1.29936,-2.17945,0
24760,-1.81661,-1.32753,-2.30519,0
24780,-1.69183,-1.34642,-2.44527,0
24800,-1.55959,-1.36221,-2.59445,0
24820,-1.41416,-1.3659,-2.75386,0
24840,-1.29177,-1.35704,-2.88614,0
24860,-1.20741,-1.34049,-2.98079,0
24880,-1.1497,-1.31731,-3.04997,0
24900,-1.11615,-1.28762,-3.09245,0
24930,-1.07854,-1.1904,-3.12514,0
24950,-1.06586,-1.15728,-3.13501,0
24970,-1.05941,-1.12085,-3.14066,0
24990,-1.06588,-1.08431,-3.13479,0
25010,-1.07746,-1.05071,-3.12286,0
25030,-1.08756,-1.02002,-3.10969,0
25050,-1.0996,-0.98781,-3.09186,0
25070,-1.12589,-0.955199,-3.06196,0
25090,-1.15216,-0.923208,-3.03228,0
25110,-1.18209,-0.894311,-2.99802,0
25130,-1.21604,-0.870542,-2.95886,0
25150,-1.25233,-0.85424,-2.91554,0
25170,-1.28614,-0.843248,-2.87194,0
25190,-1.31657,-0.836004,-2.82846,0
25210,-1.34585,-0.832574,-2.78359,0
25230,-1.37763,-0.831521,-2.73517,0
25250,-1.41277,-0.831972,-2.6846,0
25270,-1.44905,-0.832935,-2.63238,0
25290,-1.48624,-0.834846,-2.57961,0
25310,-1.52402,-0.837373,-2.52556,0
25330,-1.56216,-0.840572,-2.47085,0
25350,-1.6011,-0.844928,-2.4147,0
25370,-1.64024,-0.851374,-2.35792,0
25390,-1.68188,-0.860106,-2.30126,0
25410,-1.72533,-0.870686,-2.24491,0
25430,-1.76841,-0.882678,-2.1894,0
25470,-1.92184,-0.934414,-1.99168,0
25490,-1.95836,-0.946619,-1.95218,0
25510,-1.99458,-0.95893,-1.91746,0
25540,-2.06148,-0.982992,-1.86174,0
25560,-2.08586,-0.994326,-1.84445,0
25580,-2.10067,-1.00386,-1.8335,0
25600,-2.11527,-1.01308,-1.82354,0
25620,-2.1322,-1.02198,-1.81802,0
25640,-2.14435,-1.02914,-1.82158,2001
25660,-2.1513,-1.03253,-1.82878,0
25680,-2.15659,-1.03183,-1.8364,0
25700,-2.15845,-1.02954,-1.84841,0
25720,-2.159,-1.0261,-1.85518,0
25740,-2.1571,-1.02274,-1.857,0
25760,-2.15155,-1.01922,-1.8618,0
25780,-2.14667,-1.01698,-1.86558,0
25800,-2.14639,-1.01621,-1.86762,0
25820,-2.14672,-1.01626,-1.86983,0
25840,-2.14428,-1.01729,-1.87465,0
25860,-2.13868,-1.01804,-1.88037,0
25880,-2.13148,-1.01849,-1.88771,0
25900,-2.1228,-1.01642,-1.89612,0
25920,-2.11472,-1.01243,-1.90474,0
25940,-2.10714,-1.00565,-1.91615,0
25960,-2.09886,-0.99381,-1.93236,0
25980,-2.09333,-0.976292,-1.95084,0
26000,-2.08194,-0.952694,-1.97631,0
26020,-2.0644,-0.922395,-2.00666,0
26040,-2.03964,-0.885832,-2.03913,0
26060,-2.00601,-0.843337,-2.07396,0
26080,-1.97085,-0.800186,-2.11015,0
26100,-1.93206,-0.756549,-2.14854,0
26120,-1.89243,-0.713562,-2.18425,0
26140,-1.85891,-0.676902,-2.21387,0
26160,-1.83054,-0.646638,-2.24084,0
26180,-1.79722,-0.624355,-2.26965,0
26200,-1.7623,-0.605,-2.29388,0
26220,-1.72579,-0.591589,-2.31493,0
26240,-1.68773,-0.580056,-2.33583,0
26260,-1.65144,-0.566794,-2.35355,0
26280,-1.62118,-0.554856,-2.3676,0
26300,-1.59695,-0.545206,-2.38086,0
26320,-1.57792,-0.536261,-2.39393,0
26340,-1.56346,-0.526419,-2.40543,0
26360,-1.54978,-0.517828,-2.41631,0
26380,-1.53343,-0.512553,-2.42755,0
26400,-1.51663,-0.509791,-2.43768,0
26420,-1.50298,-0.508328,-2.44681,0
26440,-1.49395,-0.507867,-2.45423,0
26460,-1.48822,-0.509135,-2.4598,0
26480,-1.48444,-0.509461,-2.46255,0
26500,-1.48261,-0.50833,-2.46167,0
26520,-1.48308,-0.50766,-2.4586,0
26540,-1.48625,-0.507074,-2.45551,0
26560,-1.49232,-0.506481,-2.45333,0
26580,-1.50039,-0.504403,-2.45155,0
26600,-1.51001,-0.501008,-2.44967,0
26610,-1.51613,-0.499025,-2.44731,0
26630,-1.51814,-0.498065,-2.4448,2000
26650,-1.51722,-0.496853,-2.44195,0
26670,-1.51762,-0.494234,-2.43854,0
26690,-1.51787,-0.491183,-2.43539,0
26710,-1.51807,-0.489629,-2.43157,0
26730,-1.51906,-0.487929,-2.42777,0
26750,-1.5188,-0.485929,-2.42188,0
26770,-1.51883,-0.483932,-2.41367,0
26790,-1.51918,-0.484665,-2.40257,0
26810,-1.5202,-0.488636,-2.38799,0
26830,-1.52367,-0.495455,-2.36998,0
26850,-1.53061,-0.504129,-2.35126,0
26870,-1.53878,-0.512266,-2.33334,0
26890,-1.54418,-0.518416,-2.31754,0
26910,-1.54774,-0.52587,-2.30558,0
26930,-1.5512,-0.535562,-2.29859,0
26950,-1.55582,-0.545648,-2.29852,0
26970,-1.55809,-0.556229,-2.30588,0
26990,-1.55575,-0.569762,-2.32176,0
27010,-1.55188,-0.587466,-2.34424,0
27030,-1.55041,-0.609508,-2.36895,0
27050,-1.55256,-0.635451,-2.39506,0
27050,-1.55817,-0.687027,-2.44974,0
27090,-1.56207,-0.72988,-2.50407,0
27110,-1.56443,-0.748357,-2.532,0
27130,-1.56317,-0.763191,-2.56152,0
27150,-1.55649,-0.777515,-2.59327,0
27150,-1.54548,-0.791736,-2.62963,0
27170,-1.53372,-0.806214,-2.67065,0
27190,-1.5186,-0.820004,-2.71702,0
27210,-1.49604,-0.829116,-2.76967,0
27230,-1.46625,-0.835251,-2.82586,0
27250,-1.42739,-0.838134,-2.8821,0
27270,-1.37893,-0.841306,-2.93674,0
27290,-1.33048,-0.849813,-2.98803,0
27310,-1.29008,-0.85668,-3.0349,0
27330,-1.25226,-0.858354,-3.08157,0
27350,-1.22011,-0.853425,-3.11806,0
27370,-1.19357,-0.842177,3.13885,0
27390,-1.1731,-0.829124,3.11895,0
27410,-1.15573,-0.81516,3.09926,0
27430,-1.14198,-0.798225,3.08284,0
27450,-1.1304,-0.777338,3.07328,0
27470,-1.11846,-0.75555,3.06943,0
27490,-1.10572,-0.734522,3.06831,0
27510,-1.09484,-0.712827,3.06847,0
27530,-1.08769,-0.690566,3.07226,0
27550,-1.08325,-0.66878,3.08033,0
27570,-1.08071,-0.647373,3.09315,0
27590,-1.07894,-0.625459,3.10782,0
27610,-1.07602,-0.60348,3.12536,0
27630,-1.0748,-0.58409,-3.13866,0
27650,-1.07725,-0.565502,-3.11699,0
27680,-1.12125,-0.507064,-3.00153,0
27700,-1.1383,-0.497765,-2.96765,0
27720,-1.15552,-0.491732,-2.93057,0
27740,-1.17213,-0.48918,-2.89226,0
27760,-1.18792,-0.495312,-2.85278,0
27780,-1.20252,-0.504996,-2.81194,0
27800,-1.21327,-0.519364,-2.77011,0
27820,-1.22,-0.537967,-2.72839,0
27840,-1.22532,-0.560033,-2.68665,0
27860,-1.23264,-0.582552,-2.64602,0
27880,-1.24333,-0.605605,-2.6065,0
27900,-1.25996,-0.62927,-2.56774,0
27920,-1.28257,-0.651715,-2.52716,0
27940,-1.30828,-0.671671,-2.48495,0
27960,-1.33902,-0.685485,-2.44174,0
27980,-1.36709,-0.698148,-2.40369,0
28000,-1.39572,-0.710513,-2.37051,0
28020,-1.42529,-0.72331,-2.34047,0
28040,-1.45409,-0.737781,-2.31432,0
28060,-1.48053,-0.754532,-2.29408,0
28080,-1.50425,-0.772163,-2.2786,0
28100,-1.52479,-0.791435,-2.2673,0
28120,-1.54101,-0.812371,-2.26042,0
28140,-1.55483,-0.834345,-2.25892,0
28160,-1.56451,-0.854666,-2.26429,0
28180,-1.57023,-0.8761,-2.27605,0
28210,-1.5793,-0.919881,-2.3141,0
28230,-1.58146,-0.943212,-2.34136,0
28250,-1.57816,-0.968078,-2.37492,0
28270,-1.57058,-0.992957,-2.41399,0
28290,-1.55823,-1.01595,-2.45792,0
28310,-1.54109,-1.03846,-2.50546,0
28330,-1.51715,-1.06148,-2.55689,0
28350,-1.48708,-1.08187,-2.60945,0
28370,-1.45955,-1.09901,-2.66107,0
28390,-1.43302,-1.11278,-2.71349,0
28410,-1.40481,-1.12434,-2.76878,0
28430,-1.37288,-1.13196,-2.82645,0
28450,-1.3392,-1.13493,-2.88557,0
28470,-1.30256,-1.13356,-2.94442,0
28490,-1.2632,-1.12809,-2.99869,0
28510,-1.22432,-1.12107,-3.04746,0
28530,-1.18884,-1.11326,-3.09108,0
28550,-1.15721,-1.1037,-3.13102,0
28570,-1.13131,-1.09088,3.11899,0
28590,-1.10795,-1.07486,3.09316,0
28610,-1.08636,-1.05767,3.07234,0
28630,-1.06751,-1.0387,3.05653,0
28650,-1.05106,-1.01876,3.03964,0
28670,-1.03894,-0.997097,3.02334,0
28690,-1.03387,-0.974698,3.01283,0
28710,-1.02833,-0.951062,3.00703,0
28730,-1.02235,-0.928845,3.00511,0
28750,-1.01193,-0.908418,3.00088,0
28770,-1.00025,-0.888997,2.99645,0
28790,-0.993324,-0.869686,2.9975,0
28810,-0.993033,-0.85125,3.00574,0
28830,-0.992074,-0.832989,3.01718,0
28850,-0.989616,-0.815129,3.02944,0
28870,-0.987366,-0.798854,3.04254,0
28890,-0.991687,-0.78272,3.05959,0
28910,-1.00445,-0.766219,3.082,0
28930,-1.02013,-0.750549,3.10665,0
28950,-1.03465,-0.735161,3.13359,0
28970,-1.04931,-0.722213,-3.1207,0
28990,-1.065,-0.711686,-3.09212,0
29010,-1.08031,-0.703271,-3.06452,0
29030,-1.09776,-0.6957,-3.03499,0
29050,-1.11764,-0.689608,-3.0031,0
29070,-1.13621,-0.685593,-2.97187,0
29090,-1.15383,-0.682302,-2.94014,0
29110,-1.17457,-0.679277,-2.90581,0
29130,-1.19736,-0.67504,-2.86978,0
29150,-1.22226,-0.670662,-2.83142,0
29170,-1.24903,-0.66708,-2.7916,0
29190,-1.27579,-0.663753,-2.75269,0
29210,-1.30372,-0.660985,-2.71424,0
29230,-1.33227,-0.66034,-2.67506,0
29250,-1.35819,-0.662506,-2.63536,0
29270,-1.38265,-0.667581,-2.59561,0
29290,-1.40593,-0.674408,-2.55731,0
29310,-1.42856,-0.683198,-2.5197,0
29330,-1.45345,-0.695307,-2.48108,0
29350,-1.47955,-0.709429,-2.44127,0
29370,-1.50583,-0.72416,-2.401,0
29390,-1.53394,-0.739098,-2.36125,0
29410,-1.56229,-0.754416,-2.3231,0
29430,-1.59167,-0.770205,-2.28694,0
29450,-1.62016,-0.783143,-2.25395,0
29470,-1.64859,-0.796472,-2.22262,0
29490,-1.67628,-0.808254,-2.19412,0
29500,-1.70154,-0.818858,-2.17041,0
29520,-1.72291,-0.831377,-2.14872,0
29540,-1.74562,-0.847091,-2.12914,0
29560,-1.7665,-0.862981,-2.11329,0
29580,-1.78506,-0.881199,-2.10311,0
29600,-1.80241,-0.901202,-2.09695,0
29620,-1.82036,-0.920862,-2.09132,0
29630,-1.83832,-0.941041,-2.08933,0
29660,-1.85695,-0.984323,-2.10485,0
29670,-1.86352,-1.00579,-2.11596,0
29690,-1.8676,-1.02778,-2.12968,0
29710,-1.86552,-1.05024,-2.1506,0
29730,-1.85895,-1.07261,-2.17977,0
29750,-1.84823,-1.09313,-2.21341,0
29770,-1.8314,-1.11095,-2.24979,0
29790,-1.80721,-1.12641,-2.29014,0
29810,-1.77713,-1.14093,-2.33435,0
29830,-1.74106,-1.15376,-2.38222,0
29850,-1.69953,-1.16472,-2.43469,0
29870,-1.65196,-1.17486,-2.49484,0
29890,-1.59769,-1.18389,-2.55921,0
29910,-1.53901,-1.18881,-2.62514,0
29930,-1.47724,-1.18957,-2.69269,0
29960,-1.34775,-1.17807,-2.82438,0
29980,-1.21119,-1.12937,-2.96376,0
30000,-1.15887,-1.08667,-3.02012,0
30020,-1.13862,-1.06482,-3.04701,0
30040,-1.12165,-1.04133,-3.07112,0
30050,-1.09761,-0.992727,-3.10833,0
30070,-1.08689,-0.970445,-3.12302,0
30090,-1.07841,-0.948073,-3.13383,0
30110,-1.07146,-0.926201,3.13926,0
30130,-1.06863,-0.905234,3.13135,0
30150,-1.07294,-0.883816,3.13114,0
30170,-1.08459,-0.863042,3.14016,0
30190,-1.09535,-0.846304,-3.13051,0
30210,-1.10609,-0.832734,-3.11595,0
30230,-1.122,-0.821013,-3.09727,0
30250,-1.14226,-0.811103,-3.07675,0
30270,-1.16294,-0.802651,-3.05474,0
30290,-1.18581,-0.794902,-3.02899,0
30310,-1.20917,-0.787599,-3.00111,0
30330,-1.23045,-0.780384,-2.97482,0
30350,-1.25272,-0.771313,-2.94772,0
30370,-1.27831,-0.760534,-2.92031,0
30390,-1.30339,-0.749867,-2.89625,0
30410,-1.32757,-0.737302,-2.87237,0
30430,-1.35193,-0.724272,-2.8472,0
30450,-1.37231,-0.713149,-2.82316,0
30470,-1.39098,-0.704205,-2.79951,0
30490,-1.41015,-0.696604,-2.77354,0
30510,-1.42951,-0.691035,-2.74611,0
30530,-1.44788,-0.688253,-2.71933,0
30550,-1.46721,-0.68669,-2.69115,0
30570,-1.48903,-0.685009,-2.66011,0
30590,-1.51299,-0.684451,-2.62691,0
30610,-1.53839,-0.686865,-2.59362,0
30630,-1.56406,-0.691722,-2.56102,0
30650,-1.59175,-0.696742,-2.52768,0
30670,-1.61839,-0.703345,-2.49334,0
30690,-1.64286,-0.712914,-2.45837,0
30710,-1.66489,-0.725117,-2.42407,0
30730,-1.68405,-0.739516,-2.39361,0
30750,-1.70352,-0.754565,-2.36764,0
30770,-1.72167,-0.769,-2.3435,0
30790,-1.74062,-0.782522,-2.32078,0
30810,-1.76025,-0.797068,-2.30011,0
30830,-1.78079,-0.811919,-2.28098,0
30850,-1.80057,-0.824244,-2.26486,0
30870,-1.81921,-0.833909,-2.25063,0
30890,-1.83677,-0.842658,-2.23581,0
30910,-1.84942,-0.851675,-2.21953,0
30930,-1.86124,-0.861379,-2.20164,0
30950,-1.87515,-0.871885,-2.18398,0
30970,-1.8937,-0.881421,-2.16898,0
30990,-1.91027,-0.888858,-2.15559,0
31010,-1.92611,-0.895325,-2.13938,0
31030,-1.94118,-0.902634,-2.12258,0
31050,-1.95543,-0.911085,-2.10722,0
31070,-1.96809,-0.919948,-2.09372,0
31090,-1.98165,-0.928479,-2.07932,0
31110,-1.99699,-0.938224,-2.06528,0
31130,-2.01058,-0.947796,-2.05425,2001
31150,-2.01835,-0.954714,-2.04797,0
31170,-2.02524,-0.960692,-2.0399,0
31190,-2.03272,-0.966881,-2.03069,0
31210,-2.03962,-0.971872,-2.02615,0
31230,-2.04402,-0.97466,-2.02551,0
31250,-2.04778,-0.974326,-2.02486,0
31270,-2.04934,-0.973044,-2.02529,0
31290,-2.0472,-0.970817,-2.0285,0
31310,-2.04493,-0.967941,-2.033,0
31330,-2.04296,-0.964163,-2.03949,0
31350,-2.04025,-0.956675,-2.04797,0
31370,-2.03604,-0.944826,-2.0596,0
31390,-2.0275,-0.928287,-2.07836,0
31410,-2.01248,-0.907578,-2.10615,0
31430,-1.98969,-0.881891,-2.14169,0
31450,-1.96026,-0.852052,-2.18112,0
31470,-1.92342,-0.818653,-2.22682,0
31490,-1.87946,-0.780585,-2.27904,0
31510,-1.83195,-0.73841,-2.33126,0
31530,-1.78505,-0.695589,-2.37858,0
31550,-1.73874,-0.653551,-2.41795,0
31570,-1.6989,-0.613019,-2.44921,0
31590,-1.66721,-0.576837,-2.47493,0
31610,-1.63709,-0.55027,-2.49705,0
31630,-1.61392,-0.527069,-2.51281,0
31650,-1.59591,-0.508772,-2.52186,0
31670,-1.57988,-0.495336,-2.52665,0
31690,-1.55948,-0.482147,-2.528,0
31710,-1.53826,-0.471245,-2.52488,0
31730,-1.52281,-0.466275,-2.52024,0
31750,-1.51474,-0.463474,-2.51592,0
31770,-1.51086,-0.45826,-2.51028,0
31790,-1.50908,-0.451488,-2.50198,0
31810,-1.50894,-0.445721,-2.49237,0
31830,-1.51122,-0.439574,-2.48234,0
31850,-1.516,-0.43171,-2.47136,0
31870,-1.52156,-0.423314,-2.46061,0
31890,-1.52834,-0.416,-2.45198,0
31910,-1.53515,-0.408999,-2.44571,0
31930,-1.54056,-0.401064,-2.44048,0
31950,-1.54484,-0.392233,-2.43636,0
31970,-1.54576,-0.383281,-2.43387,0
31990,-1.5434,-0.375931,-2.43235,0
32010,-1.5414,-0.370694,-2.43067,0
32030,-1.5399,-0.367047,-2.42922,0
32050,-1.53766,-0.365622,-2.42806,0
32070,-1.53393,-0.36669,-2.42628,0
32090,-1.53033,-0.368815,-2.4224,2000
32110,-1.52747,-0.371264,-2.4177,0
32130,-1.52757,-0.371409,-2.41165,0
32150,-1.52811,-0.371913,-2.40479,0
32170,-1.53035,-0.375891,-2.39637,0
32200,-1.54376,-0.395017,-2.35902,0
32220,-1.55011,-0.403784,-2.34363,0
32240,-1.55787,-0.414283,-2.32737,0
32260,-1.56786,-0.424479,-2.31031,0
32280,-1.57675,-0.433196,-2.29382,0
32300,-1.58499,-0.44341,-2.27876,0
32320,-1.59261,-0.45418,-2.26615,0
32340,-1.6007,-0.463976,-2.25666,0
32360,-1.60727,-0.47318,-2.2499,0
32380,-1.61331,-0.484076,-2.24589,0
32400,-1.61827,-0.49767,-2.24571,0
32420,-1.6232,-0.511777,-2.25048,0
32440,-1.62849,-0.526322,-2.25853,0
32460,-1.63239,-0.543453,-2.271,0
32470,-1.63347,-0.564185,-2.28741,0
32490,-1.63253,-0.586318,-2.30989,0
32500,-1.63287,-0.609224,-2.3376,0
32510,-1.63165,-0.633889,-2.36921,0
32510,-1.62366,-0.711152,-2.48963,0
32510,-1.45945,-0.861343,-2.96364,0
32530,-1.43799,-0.855404,-3.00219,0
32550,-1.41583,-0.845858,-3.03458,0
32570,-1.39402,-0.832792,-3.06494,0
32590,-1.37383,-0.815209,-3.09301,0
32610,-1.35448,-0.795501,-3.11821,0
32630,-1.33757,-0.776887,-3.13961,0
32650,-1.32079,-0.759148,3.12398,0
32670,-1.30419,-0.742659,3.10717,0
32690,-1.28578,-0.726785,3.09371,0
32710,-1.26759,-0.712043,3.08447,0
32730,-1.25309,-0.700071,3.07773,0
32750,-1.24096,-0.689676,3.07276,0
32770,-1.22988,-0.679687,3.07019,0
32790,-1.2198,-0.670764,3.07105,0
32810,-1.21174,-0.662876,3.07335,0
32830,-1.20297,-0.654999,3.07369,0
32850,-1.19444,-0.645973,3.0757,0
32870,-1.18947,-0.635805,3.08263,0
32890,-1.18649,-0.625251,3.09229,0
32910,-1.18245,-0.616169,3.10204,0
32930,-1.17858,-0.606153,3.11196,0
32950,-1.18009,-0.594507,3.12455,0
32970,-1.18346,-0.584165,3.13802,0
32990,-1.18344,-0.574962,-3.13192,0
33010,-1.18238,-0.56672,-3.11695,0
33030,-1.18305,-0.559706,-3.10009,0
33050,-1.1847,-0.554725,-3.08348,0
33070,-1.18619,-0.552331,-3.06686,0
33090,-1.18646,-0.550835,-3.04907,0
33110,-1.18651,-0.54903,-3.00793,0
33130,-1.19054,-0.549886,-2.98555,0
33150,-1.19751,-0.549546,-2.96161,0
33170,-1.20613,-0.54814,-2.93479,0
33190,-1.21661,-0.545973,-2.90516,0
33210,-1.2295,-0.544007,-2.87399,0
33230,-1.24442,-0.542981,-2.84133,0
33250,-1.26233,-0.542956,-2.80685,0
33270,-1.28209,-0.54337,-2.77018,0
33290,-1.32522,-0.5513,-2.69455,0
33310,-1.34731,-0.557857,-2.65655,0
33330,-1.36899,-0.564507,-2.61752,0
33350,-1.39207,-0.570889,-2.577,0
33370,-1.41615,-0.580333,-2.53633,0
33390,-1.43942,-0.587753,-2.49541,0
33410,-1.46328,-0.594851,-2.45612,0
33430,-1.48919,-0.601373,-2.41707,0
33450,-1.51718,-0.606945,-2.37825,0
33470,-1.54315,-0.61075,-2.34063,0
33490,-1.56615,-0.614566,-2.30483,0
33510,-1.58969,-0.619584,-2.27154,0
33530,-1.61352,-0.62518,-2.24157,0
33550,-1.63619,-0.631685,-2.21562,0
33570,-1.65617,-0.638909,-2.19409,0
33590,-1.67405,-0.646286,-2.17537,0
33610,-1.69094,-0.654794,-2.15808,0
33630,-1.70611,-0.665278,-2.14439,0
33650,-1.72013,-0.676578,-2.13498,0
33670,-1.73478,-0.688129,-2.12815,0
33690,-1.7503,-0.69958,-2.12355,0
33710,-1.7637,-0.710627,-2.12171,0
33730,-1.77589,-0.722248,-2.12369,0
33770,-1.81563,-0.760894,-2.17712,0
33780,-1.81173,-0.772754,-2.20256,0
33800,-1.8066,-0.787566,-2.23162,0
33820,-1.79941,-0.805726,-2.26476,0
33840,-1.79085,-0.828393,-2.30092,0
33860,-1.77885,-0.854174,-2.34163,0
33880,-1.762,-0.879207,-2.38896,0
33890,-1.68364,-0.952931,-2.55715,0
33970,-1.37699,-0.994169,-3.00284,0
33990,-1.33538,-0.985087,-3.05154,0
34010,-1.29578,-0.975504,-3.09435,0
34020,-1.26089,-0.964242,-3.1323,0
34040,-1.22912,-0.952118,3.11817,0
34060,-1.20042,-0.939852,3.09036,0
34080,-1.17914,-0.924777,3.06972,0
34100,-1.15934,-0.908862,3.05272,0
34120,-1.14376,-0.89093,3.04184,0
34140,-1.13228,-0.871756,3.03873,0
34160,-1.12461,-0.852937,3.04056,0
34180,-1.1177,-0.834034,3.04386,0
34220,-1.11158,-0.783106,3.07214,0
34240,-1.11252,-0.765871,3.08478,0
34260,-1.11565,-0.750215,3.102,0
34280,-1.1233,-0.73554,3.12476,0
34300,-1.13316,-0.721356,-3.13202,0
34320,-1.14408,-0.708396,-3.1029,0
34340,-1.15908,-0.697248,-3.0697,0
34360,-1.17805,-0.687981,-3.03412,0
34380,-1.19923,-0.680237,-2.99749,0
34400,-1.22228,-0.673742,-2.95727,0
34420,-1.24768,-0.669138,-2.91254,0
34440,-1.27574,-0.666286,-2.86622,0
34460,-1.30328,-0.668856,-2.82077,0
34480,-1.33516,-0.672084,-2.77295,0
34500,-1.36964,-0.675397,-2.72419,0
34520,-1.40481,-0.678832,-2.67621,0
34540,-1.43825,-0.682758,-2.63041,0
34560,-1.47677,-0.685216,-2.58373,0
34580,-1.51629,-0.688221,-2.53981,0
34600,-1.55424,-0.691494,-2.49817,0
34620,-1.58933,-0.696625,-2.45633,0
34640,-1.61984,-0.70405,-2.41367,0
34660,-1.64867,-0.713066,-2.37064,0
34680,-1.67839,-0.724357,-2.32798,0
34700,-1.71047,-0.738482,-2.28685,0
34720,-1.74524,-0.754905,-2.2471,0
34740,-1.78472,-0.77183,-2.20803,0
34760,-1.82346,-0.78627,-2.17207,0
34780,-1.86019,-0.798854,-2.14039,0
34800,-1.89626,-0.811379,-2.11167,0
34820,-1.93103,-0.823845,-2.08735,0
34840,-1.95998,-0.833317,-2.07238,0
34860,-1.98522,-0.84124,-2.06388,0
34880,-2.00503,-0.852203,-2.05733,0
34900,-2.02052,-0.866971,-2.04983,0
34920,-2.03729,-0.884918,-2.04345,0
34940,-2.05415,-0.906101,-2.04145,0
34960,-2.07224,-0.931542,-2.04257,0
34980,-2.08709,-0.958579,-2.04382,0
35000,-2.1008,-0.985734,-2.0469,0
35020,-2.11355,-1.0129,-2.05301,0
35040,-2.12043,-1.03949,-2.06485,0
35050,-2.12178,-1.06485,-2.07969,0
35070,-2.1193,-1.09032,-2.09897,0
35090,-2.11073,-1.11701,-2.12762,0
35110,-2.09182,-1.14336,-2.16757,0
35130,-2.05923,-1.16659,-2.21603,0
35150,-2.01576,-1.18704,-2.2743,0
35170,-1.96157,-1.20694,-2.34768,0
35190,-1.89013,-1.22352,-2.4358,0
35210,-1.80791,-1.23287,-2.53167,0
35230,-1.72599,-1.23441,-2.62681,0
35250,-1.64679,-1.22878,-2.71882,0
35270,-1.57341,-1.21693,-2.79949,0
35290,-1.50702,-1.20199,-2.86975,0
35310,-1.45114,-1.18635,-2.93444,0
35330,-1.40302,-1.16236,-2.99205,0
35350,-1.36484,-1.13754,-3.03986,0
35370,-1.33948,-1.11428,-3.07441,0
35390,-1.32115,-1.09178,-3.09932,0
35410,-1.30699,-1.06866,-3.11833,0
35430,-1.29658,-1.04693,-3.13074,0
35450,-1.28927,-1.02789,-3.13864,0
35470,-1.28431,-1.01061,3.14082,0
35490,-1.28251,-0.994057,-3.14027,0
35510,-1.28522,-0.97815,-3.13328,0
35530,-1.2892,-0.961593,-3.12594,0
35550,-1.29468,-0.94449,-3.11515,0
35570,-1.30334,-0.927766,-3.09795,0
35590,-1.31247,-0.912532,-3.07842,0
35610,-1.32223,-0.898527,-3.06031,0
35630,-1.33715,-0.883563,-3.03931,0
35650,-1.35702,-0.867504,-3.01258,0
35670,-1.37833,-0.852028,-2.98111,0
35690,-1.40092,-0.838253,-2.94605,0
35710,-1.42598,-0.825254,-2.90951,0
35730,-1.45593,-0.811941,-2.87034,0
35750,-1.49156,-0.799085,-2.82701,0
35770,-1.53057,-0.78707,-2.7823,0
35790,-1.56832,-0.775878,-2.73732,0
35810,-1.60509,-0.765195,-2.69048,0
35830,-1.64271,-0.755925,-2.64218,0
35850,-1.67953,-0.749974,-2.59542,0
35870,-1.7136,-0.746334,-2.54966,0
35890,-1.74648,-0.744965,-2.50397,0
35910,-1.77855,-0.746216,-2.45899,0
35940,-1.88003,-0.77316,-2.31042,0
35960,-1.90494,-0.784424,-2.27795,0
35980,-1.92894,-0.795216,-2.24645,0
36000,-1.95012,-0.806489,-2.21595,0
36020,-1.97182,-0.819491,-2.18633,0
36050,-2.05875,-0.874302,-2.08303,0
36070,-2.07541,-0.887788,-2.06252,0
36110,-2.10765,-0.924271,-2.02527,0
36130,-2.11814,-0.935979,-2.01437,0
36150,-2.12939,-0.948032,-2.00279,0
36170,-2.14308,-0.96139,-1.98984,0
36190,-2.1545,-0.971579,-1.98141,2001
36210,-2.16368,-0.978948,-1.97457,0
36230,-2.17022,-0.985391,-1.96615,0
36250,-2.17267,-0.991093,-1.96142,0
36270,-2.17672,-0.996241,-1.95872,0
36290,-2.18094,-1.00068,-1.95975,0
36310,-2.18287,-1.0037,-1.96458,0
36330,-2.1811,-1.00459,-1.97021,0
36350,-2.17625,-1.00387,-1.97747,0
36370,-2.16852,-1.00279,-1.98646,0
36390,-2.16163,-1.00182,-1.99629,0
36410,-2.15612,-1.0004,-2.00841,0
36430,-2.15015,-0.997203,-2.02432,0
36450,-2.14055,-0.990591,-2.04573,0
36470,-2.12319,-0.979233,-2.07581,0
36490,-2.09724,-0.960591,-2.11333,0
36510,-2.06846,-0.934003,-2.15452,0
36530,-2.03571,-0.899303,-2.1973,0
36550,-1.99683,-0.85852,-2.24481,0
36570,-1.95514,-0.811482,-2.2926,0
36590,-1.91999,-0.761781,-2.33468,0
36610,-1.88584,-0.712459,-2.37169,0
36630,-1.85141,-0.663746,-2.40374,0
36650,-1.81879,-0.618919,-2.42966,0
36670,-1.78823,-0.580047,-2.45075,0
36690,-1.75764,-0.545588,-2.46632,0
36710,-1.73056,-0.522535,-2.47784,0
36730,-1.70671,-0.505661,-2.48792,0
36750,-1.68357,-0.489979,-2.49541,0
36770,-1.6644,-0.476406,-2.49859,0
36790,-1.64954,-0.4673,-2.50216,0
36810,-1.63439,-0.458169,-2.50817,0
36830,-1.62174,-0.447471,-2.51326,0
36850,-1.61485,-0.43682,-2.51722,0
36870,-1.61043,-0.427564,-2.52377,0
36890,-1.60571,-0.416736,-2.53064,0
36910,-1.59989,-0.403094,-2.53477,0
36930,-1.59321,-0.389782,-2.53625,0
36950,-1.58583,-0.379352,-2.53684,0
36970,-1.57903,-0.370226,-2.53647,0
36990,-1.57567,-0.362123,-2.53402,0
37010,-1.57668,-0.356293,-2.5305,0
37030,-1.57936,-0.352378,-2.52758,0
37050,-1.5822,-0.348363,-2.52455,0
37070,-1.5847,-0.343308,-2.52058,2000
37090,-1.58534,-0.339138,-2.51615,0
37110,-1.58429,-0.336888,-2.51281,0
37130,-1.58674,-0.335541,-2.51112,0
37150,-1.59124,-0.330892,-2.51038,0
37170,-1.59092,-0.325322,-2.50738,0
37190,-1.58898,-0.321233,-2.49998,0
37210,-1.58744,-0.317578,-2.48993,0
37230,-1.58754,-0.317193,-2.47798,0
37250,-1.59023,-0.319165,-2.46354,0
37270,-1.59394,-0.321578,-2.44632,0
37290,-1.59675,-0.325964,-2.42735,0
37310,-1.59936,-0.332868,-2.40764,0
37330,-1.60214,-0.341099,-2.38792,0
37350,-1.60301,-0.351052,-2.36879,0
37370,-1.60319,-0.363823,-2.35054,0
37390,-1.6069,-0.377628,-2.33503,0
37410,-1.61108,-0.391234,-2.32434,0
37430,-1.61281,-0.406289,-2.31832,0
37450,-1.61559,-0.422774,-2.31641,0
37470,-1.6192,-0.441128,-2.32044,0
37490,-1.61926,-0.463161,-2.33161,0
37510,-1.6164,-0.488128,-2.3496,0
37530,-1.61224,-0.512582,-2.37516,0
37550,-1.60471,-0.53935,-2.40709,0
37570,-1.59762,-0.568887,-2.44415,0
37590,-1.5906,-0.594798,-2.48712,0
37600,-1.5832,-0.623289,-2.53604,0
37630,-1.54852,-0.693126,-2.69599,0
37650,-1.53218,-0.710293,-2.74625,0
37670,-1.51427,-0.723528,-2.79483,0
37710,-1.45642,-0.765645,-2.91689,0
37730,-1.43547,-0.772109,-2.94994,0
37750,-1.41459,-0.775185,-2.98025,0
37770,-1.39595,-0.773143,-3.00691,0
37790,-1.38019,-0.764834,-3.03049,0
37810,-1.3629,-0.755392,-3.05339,0
37830,-1.34334,-0.745459,-3.07541,0
37850,-1.32092,-0.732308,-3.09473,0
37870,-1.29722,-0.716431,-3.11187,0
37890,-1.27451,-0.70126,-3.12873,0
37910,-1.24981,-0.686988,3.1376,0
37930,-1.22575,-0.67092,3.12385,0
37950,-1.20248,-0.654852,3.11383,0
37970,-1.17928,-0.638958,3.10709,0
37990,-1.15559,-0.621611,3.10414,0
38010,-1.13029,-0.604886,3.10561,0
38030,-1.10447,-0.591521,3.11357,0
38050,-1.08063,-0.579028,3.12574,0
38060,-1.0632,-0.566478,3.14134,0
38080,-1.05704,-0.55423,-3.12186,0
38100,-1.05959,-0.541756,-3.09521,0
38120,-1.06738,-0.530394,-3.06153,0
38140,-1.0787,-0.522159,-3.02252,0
38160,-1.09398,-0.516345,-2.98279,0
38180,-1.11109,-0.510665,-2.94332,0
38200,-1.13233,-0.503532,-2.90029,0
38220,-1.15713,-0.504305,-2.85407,0
38240,-1.1839,-0.505992,-2.80591,0
38260,-1.20702,-0.511005,-2.75646,0
38280,-1.23119,-0.519776,-2.70473,0
38290,-1.28552,-0.544526,-2.59763,0
38310,-1.31767,-0.559134,-2.5426,0
38330,-1.35432,-0.573413,-2.48722,0
38350,-1.39306,-0.58706,-2.43373,0
38370,-1.43122,-0.600197,-2.38336,0
38390,-1.46743,-0.612083,-2.33513,0
38410,-1.49934,-0.622553,-2.29007,0
38430,-1.52977,-0.633052,-2.24911,0
38450,-1.55711,-0.644747,-2.21541,0
38470,-1.58174,-0.655413,-2.18923,0
38490,-1.60532,-0.666396,-2.1681,0
38510,-1.628,-0.680529,-2.15041,0
38530,-1.64928,-0.69878,-2.1375,0
38550,-1.66673,-0.718604,-2.13294,0
38570,-1.68119,-0.738597,-2.13573,0
38590,-1.69003,-0.759916,-2.14438,0
38610,-1.69466,-0.783385,-2.15783,0
38630,-1.69523,-0.811013,-2.17683,0
38650,-1.6999,-0.840528,-2.19849,0
38670,-1.70818,-0.870142,-2.22195,0
38690,-1.71158,-0.900264,-2.25027,0
38710,-1.70915,-0.930902,-2.28408,0
38730,-1.70259,-0.958991,-2.31957,0
38750,-1.69077,-0.986667,-2.3587,0
38770,-1.67345,-1.01269,-2.40464,0
38790,-1.65154,-1.03406,-2.45677,0
38800,-1.54992,-1.07779,-2.62948,0
38820,-1.5157,-1.08464,-2.6836,0
38840,-1.47747,-1.08825,-2.7387,0
38860,-1.43538,-1.08876,-2.79461,0
38900,-1.35488,-1.08065,-2.90312,0
38910,-1.31749,-1.06903,-2.95257,0
38930,-1.28182,-1.05069,-2.99378,0
38950,-1.24626,-1.0308,-3.03062,0
38970,-1.20603,-1.01079,-3.06877,0
38990,-1.16651,-0.988399,-3.10445,0
39010,-1.13588,-0.963653,-3.13482,0
39030,-1.11208,-0.935425,3.12018,0
39050,-1.09295,-0.903783,3.09919,0
39070,-1.07682,-0.873029,3.08982,0
39090,-1.06482,-0.843324,3.08564,0
39110,-1.05883,-0.811182,3.0816,0
39130,-1.0562,-0.777414,3.08646,0
39150,-1.05861,-0.74891,3.10656,0
39170,-1.06525,-0.729857,3.13357,0
39190,-1.08158,-0.71669,-3.12467,0
39210,-1.10667,-0.701363,-3.09919,0
39230,-1.13642,-0.685116,-3.06184,0
39240,-1.16672,-0.673671,-3.01504,0
39280,-1.21833,-0.666014,-2.91977,0
39300,-1.24693,-0.668144,-2.86874,0
39320,-1.28264,-0.672096,-2.81262,0
39340,-1.31979,-0.676761,-2.75472,0
39360,-1.35486,-0.683588,-2.69764,0
39380,-1.391,-0.691575,-2.6412,0
39400,-1.43043,-0.70029,-2.58361,0
39420,-1.4712,-0.710838,-2.52478,0
39440,-1.51244,-0.723865,-2.46644,0
39460,-1.55443,-0.738346,-2.41039,0
39480,-1.5988,-0.754162,-2.35684,0
39500,-1.64432,-0.770165,-2.30437,0
39520,-1.68804,-0.781133,-2.25176,0
39540,-1.7257,-0.794106,-2.20285,0
39560,-1.76155,-0.81003,-2.16042,0
39580,-1.79809,-0.828481,-2.12539,0
39600,-1.83366,-0.848807,-2.09549,0
39620,-1.87041,-0.871253,-2.06726,0
39640,-1.90887,-0.895811,-2.04088,0
39660,-1.94307,-0.921112,-2.02181,0
39680,-1.97301,-0.947577,-2.01018,0
39700,-2.00124,-0.974487,-2.00153,0
39720,-2.02703,-1.00413,-1.9977,0
39740,-2.04823,-1.03624,-2.00278,0
39760,-2.06161,-1.0701,-2.01978,0
39780,-2.05944,-1.10305,-2.04789,0
39800,-1.83534,-1.23265,-2.39171,0
39830,-1.45837,-1.25925,-2.82107,0
39850,-1.36093,-1.25398,-2.93144,0
39870,-1.27894,-1.23799,-3.0253,0
39890,-1.21689,-1.21411,-3.09317,0
39910,-1.16445,-1.19049,3.13772,0
39930,-1.11344,-1.16593,3.08919,0
39950,-1.07804,-1.13931,3.05327,0
39970,-1.06045,-1.10964,3.02926,0
39990,-1.05261,-1.07798,3.01336,0
40010,-1.04626,-1.04624,3.00356,0
40030,-1.04126,-1.01555,3.00239,0
40050,-1.03872,-0.985292,3.00508,0
40070,-1.04076,-0.956119,3.00885,0
40090,-1.04979,-0.92894,3.0183,0
40140,-1.11222,-0.860471,3.09569,0
40160,-1.13727,-0.841121,3.12511,0
40180,-1.17133,-0.820654,-3.12167,0
40200,-1.21294,-0.800606,-3.08558,0
40220,-1.25374,-0.781144,-3.04822,0
40240,-1.29291,-0.764431,-3.00803,0
40260,-1.33149,-0.751984,-2.96433,0
40280,-1.37156,-0.743753,-2.91868,0
40300,-1.41235,-0.738031,-2.87224,0
40320,-1.45278,-0.735357,-2.82377,0
40340,-1.48655,-0.739985,-2.77542,0
40360,-1.51786,-0.747679,-2.72646,0
40380,-1.54892,-0.757651,-2.67623,0
40400,-1.5816,-0.769089,-2.6248,0
40420,-1.61709,-0.781563,-2.57122,0
40440,-1.65299,-0.795432,-2.51738,0
40460,-1.69296,-0.80779,-2.46137,0
40480,-1.73407,-0.819594,-2.40622,0
40500,-1.77535,-0.831452,-2.35213,0
40520,-1.8156,-0.844498,-2.29948,0
40540,-1.8529,-0.857441,-2.25109,0
40560,-1.88863,-0.868621,-2.20702,0
40580,-1.92071,-0.878289,-2.16782,0
40600,-1.9497,-0.889113,-2.13174,0
40620,-1.97579,-0.90032,-2.09945,0
40640,-1.99898,-0.90976,-2.07214,0
40660,-2.01902,-0.918764,-2.05164,0
40680,-2.03513,-0.927046,-2.03622,0
40700,-2.04791,-0.934715,-2.02196,0
40720,-2.06451,-0.942904,-2.00719,0
40740,-2.07767,-0.950895,-1.99868,2001
40760,-2.08724,-0.958361,-1.99641,0
40780,-2.09054,-0.962811,-1.99967,0
40800,-2.09095,-0.965285,-2.00465,0
40820,-2.09304,-0.967007,-2.00881,0
40830,-2.09648,-0.967398,-2.01249,0
40850,-2.09537,-0.966813,-2.01784,0
40870,-2.09293,-0.965579,-2.02366,0
40890,-2.09027,-0.964054,-2.02725,0
40910,-2.08534,-0.962082,-2.03203,0
40930,-2.07834,-0.959369,-2.03875,0
40950,-2.07299,-0.955866,-2.04617,0
40970,-2.06841,-0.950834,-2.05681,0
40990,-2.06102,-0.940692,-2.07189,0
41010,-2.05469,-0.925504,-2.09035,0
41030,-2.04666,-0.905975,-2.11228,0
41050,-2.03229,-0.880734,-2.13674,0
41070,-2.01341,-0.850322,-2.16343,0
41090,-1.99428,-0.816083,-2.18857,0
41110,-1.9706,-0.776705,-2.21228,0
41130,-1.9427,-0.736987,-2.23577,0
41150,-1.91467,-0.700119,-2.2607,0
41170,-1.89212,-0.662792,-2.2847,0
41190,-1.87291,-0.623941,-2.30824,0
41210,-1.85149,-0.5871,-2.33263,0
41230,-1.82539,-0.55466,-2.3545,0
41250,-1.80116,-0.529195,-2.37179,0
41270,-1.77833,-0.507682,-2.38817,0
41290,-1.73146,-0.471444,-2.41788,0
41310,-1.71671,-0.458506,-2.42826,0
41330,-1.70533,-0.447915,-2.43836,0
41350,-1.69195,-0.438396,-2.44791,0
41370,-1.67946,-0.430581,-2.45505,0
41390,-1.66744,-0.423087,-2.46067,0
41410,-1.65575,-0.41614,-2.46614,0
41430,-1.64409,-0.410484,-2.47072,0
41450,-1.63369,-0.40651,-2.47447,0
41470,-1.62657,-0.401728,-2.47746,0
41490,-1.62195,-0.397708,-2.47887,0
41510,-1.62202,-0.39554,-2.47898,2000
41530,-1.62302,-0.392437,-2.47772,0
41550,-1.62153,-0.38823,-2.47472,0
41570,-1.62238,-0.384827,-2.46872,0
41590,-1.62211,-0.381311,-2.45934,0
41610,-1.62096,-0.378721,-2.4472,0
41630,-1.61992,-0.380395,-2.43314,0
41650,-1.62015,-0.386163,-2.41674,0
41670,-1.62151,-0.393449,-2.39772,0
41690,-1.6244,-0.402332,-2.37617,0
41710,-1.62679,-0.413668,-2.35567,0
41730,-1.62741,-0.42649,-2.33719,0
41750,-1.6288,-0.440163,-2.31969,0
41770,-1.63252,-0.454584,-2.3043,0
41790,-1.64045,-0.470265,-2.29406,0
41810,-1.64951,-0.485515,-2.2899,0
41830,-1.65277,-0.501181,-2.29478,0
41850,-1.64699,-0.516861,-2.30823,0
41870,-1.63361,-0.531544,-2.32794,0
41890,-1.61926,-0.547948,-2.35516,0
41910,-1.60452,-0.566306,-2.38863,0
41930,-1.5919,-0.586351,-2.42613,0
41950,-1.58298,-0.605165,-2.46827,0
41970,-1.57301,-0.624557,-2.51733,0
42000,-1.52996,-0.684257,-2.69075,0
42030,-1.499,-0.717043,-2.80577,0
42050,-1.48101,-0.731568,-2.86339,0
42070,-1.46152,-0.741905,-2.92072,0
42090,-1.44213,-0.74729,-2.97254,0
42110,-1.42307,-0.758028,-3.01765,0
42130,-1.40329,-0.765058,-3.0586,0
42150,-1.38311,-0.766063,-3.09582,0
42170,-1.3617,-0.761951,-3.12626,0
42190,-1.34065,-0.756434,3.13316,0
42210,-1.32086,-0.748212,3.11317,0
42230,-1.30222,-0.737354,3.09617,0
42250,-1.28301,-0.725262,3.0817,0
42270,-1.2626,-0.711477,3.0693,0
42290,-1.24097,-0.696991,3.05649,0
42310,-1.22232,-0.680142,3.04198,0
42330,-1.20442,-0.661042,3.02455,0
42350,-1.18711,-0.638746,3.00619,0
42370,-1.16675,-0.612281,2.99681,0
42390,-1.13867,-0.58613,2.99735,0
42410,-1.10406,-0.567631,3.00066,0
42430,-1.07504,-0.552217,3.00451,0
42450,-1.05827,-0.536109,3.01572,0
42470,-1.04754,-0.522648,3.03635,0
42490,-1.03712,-0.513014,3.06277,0
42510,-1.02823,-0.505941,3.0925,0
42530,-1.0239,-0.49929,3.12468,0
42550,-1.02237,-0.493871,-3.12222,0
42560,-1.02198,-0.499376,-3.0802,0
42580,-1.02715,-0.50786,-3.03232,0
42600,-1.03949,-0.518816,-2.97989,0
42620,-1.05958,-0.533832,-2.9251,0
42650,-1.24173,-0.620528,-2.62629,0
42670,-1.28246,-0.636879,-2.56921,0
42690,-1.3198,-0.651869,-2.51584,0
42710,-1.35413,-0.666625,-2.46742,0
42730,-1.38513,-0.681128,-2.42369,0
42750,-1.41947,-0.692733,-2.38082,0
42770,-1.45162,-0.706014,-2.34411,0
42790,-1.48277,-0.720523,-2.31568,0
42810,-1.51325,-0.734891,-2.29205,0
42830,-1.54538,-0.751089,-2.27229,0
42850,-1.5764,-0.768272,-2.25866,0
42870,-1.60254,-0.786541,-2.254,0
42890,-1.6226,-0.805995,-2.25784,0
42910,-1.63599,-0.827853,-2.26956,0
42930,-1.64325,-0.852591,-2.2894,0
42950,-1.64458,-0.878602,-2.31834,0
42970,-1.64001,-0.903921,-2.35686,0
42990,-1.63011,-0.927104,-2.403,0
43010,-1.60243,-0.943938,-2.46438,0
43030,-1.5657,-0.959063,-2.5364,0
43050,-1.52399,-0.967021,-2.61496,0
43070,-1.47561,-0.96829,-2.69637,0
43090,-1.42657,-0.967466,-2.77466,0
43110,-1.38227,-0.962873,-2.84697,0
43130,-1.34122,-0.952372,-2.91289,0
43150,-1.30472,-0.938455,-2.96999,0
43170,-1.16189,-0.893473,3.13835,0
43190,-1.12266,-0.879324,3.09869,0
43210,-1.08366,-0.862948,3.0651,0
43230,-1.04443,-0.844881,3.03893,0
43250,-1.01374,-0.817358,3.02381,0
43270,-0.983511,-0.784882,3.02214,0
43290,-0.956346,-0.754531,3.03124,0
43310,-0.938854,-0.728377,3.04461,0
43330,-0.933708,-0.701136,3.05912,0
43350,-0.942938,-0.673576,3.08165,0
43370,-0.964235,-0.650478,3.11516,0
43380,-0.990269,-0.631003,-3.1279,0
43400,-1.0149,-0.613205,-3.08527,0
43420,-1.03939,-0.598107,-3.04188,0
43440,-1.06805,-0.58504,-2.99752,0
43460,-1.10113,-0.574303,-2.95174,0
43480,-1.13307,-0.573858,-2.90561,0
43500,-1.16639,-0.576142,-2.85797,0
43520,-1.20012,-0.581203,-2.80953,0
43540,-1.23144,-0.589665,-2.76002,0
43560,-1.26416,-0.600578,-2.70714,0
43580,-1.29983,-0.615629,-2.65392,0
43600,-1.33397,-0.635498,-2.60359,0
43620,-1.3703,-0.660196,-2.55548,0
43640,-1.41015,-0.68754,-2.50788,0
43670,-1.48642,-0.749354,-2.40776,0
43690,-1.52519,-0.780334,-2.35702,0
43710,-1.57267,-0.807346,-2.30474,0
43730,-1.62288,-0.834186,-2.25738,0
43750,-1.67406,-0.859892,-2.21571,0
43770,-1.72468,-0.883521,-2.17905,0
43790,-1.77194,-0.908419,-2.14955,0
43810,-1.81305,-0.934095,-2.12658,0
43820,-1.8465,-0.958144,-2.11091,0
43840,-1.87094,-0.980582,-2.1042,0
43860,-1.89148,-1.00656,-2.10489,0
43880,-1.90864,-1.03438,-2.11198,0
43920,-1.89608,-1.119,-2.2068,0
43940,-1.86323,-1.14912,-2.26442,0
43960,-1.81459,-1.17429,-2.33744,0
43980,-1.74633,-1.1953,-2.42948,0
44000,-1.65472,-1.21283,-2.53939,0
44020,-1.55725,-1.22741,-2.65654,0
44040,-1.46375,-1.23846,-2.77436,0
44060,-1.37112,-1.24413,-2.88903,0
44090,-0.963143,-1.17746,2.94369,0
44110,-0.936289,-1.15126,2.92386,0
44150,-0.892346,-1.10678,2.90319,0
44170,-0.876918,-1.08392,2.89119,0
44190,-0.876134,-1.05912,2.88523,0
44210,-0.906064,-0.983424,2.92412,0
44230,-0.912782,-0.959579,2.94428,0
44250,-0.919917,-0.936115,2.96364,0
44270,-0.935605,-0.912783,2.98594,0
44290,-0.95924,-0.889495,3.01289,0
44310,-0.986504,-0.866274,3.04447,0
44330,-1.01595,-0.847114,3.07888,0
44350,-1.04788,-0.826218,3.11554,0
44370,-1.0866,-0.807259,-3.12731,0
44390,-1.13169,-0.792053,-3.08105,0
44410,-1.17922,-0.782053,-3.02997,0
44430,-1.22646,-0.775771,-2.97706,0
44450,-1.27168,-0.774499,-2.92446,0
44470,-1.31581,-0.774763,-2.87213,0
44490,-1.36074,-0.776341,-2.81993,0
44510,-1.40496,-0.779524,-2.76761,0
44530,-1.44646,-0.785269,-2.71584,0
44550,-1.48591,-0.792144,-2.66572,0
44570,-1.52853,-0.797792,-2.61467,0
44590,-1.5691,-0.805384,-2.56555,0
44610,-1.60716,-0.814798,-2.51787,0
44630,-1.64483,-0.825492,-2.47201,0
44650,-1.68242,-0.83537,-2.42843,0
44670,-1.71898,-0.845114,-2.38736,0
44690,-1.75386,-0.855674,-2.34917,0
44710,-1.78684,-0.86644,-2.31372,0
44730,-1.81791,-0.876569,-2.28216,0
44750,-1.84512,-0.885925,-2.25657,0
44770,-1.8654,-0.895565,-2.23628,0
44790,-1.88142,-0.904903,-2.21742,0
44810,-1.89745,-0.913828,-2.19965,0
44830,-1.9097,-0.923488,-2.18775,0
44850,-1.92221,-0.936385,-2.17811,0
44880,-1.93106,-0.950644,-2.1927,0
44900,-1.93611,-0.953861,-2.20016,2001
44920,-1.94396,-0.95668,-2.20518,0
44940,-1.94733,-0.958192,-2.21098,0
44960,-1.94716,-0.959699,-2.2175,0
44980,-1.94723,-0.960523,-2.22198,0
45000,-1.95137,-0.961805,-2.22288,0
45020,-1.95841,-0.964084,-2.22271,0
45040,-1.96674,-0.965328,-2.22224,0
45060,-1.97487,-0.96452,-2.22129,0
45080,-1.98152,-0.961859,-2.22028,0
45100,-1.98591,-0.957692,-2.21926,0
45120,-1.98722,-0.951567,-2.22088,0
45140,-1.98705,-0.943434,-2.22603,0
45160,-1.98554,-0.932065,-2.23311,0
45180,-1.98065,-0.914878,-2.2438,0
45200,-1.96833,-0.890702,-2.25613,0
45220,-1.9442,-0.861839,-2.2747,0
45250,-1.86505,-0.787474,-2.32869,0
45270,-1.822,-0.745251,-2.3647,0
45290,-1.78399,-0.701119,-2.40171,0
45310,-1.75038,-0.65577,-2.43967,0
45330,-1.71899,-0.615377,-2.47513,0
45350,-1.68853,-0.581662,-2.50844,0
45370,-1.65436,-0.555357,-2.53913,0
45390,-1.6177,-0.533022,-2.56323,0
45410,-1.58188,-0.513238,-2.58164,0
45430,-1.55234,-0.499592,-2.59475,0
45450,-1.52957,-0.49018,-2.6064,0
45470,-1.51361,-0.479454,-2.61536,0
45490,-1.50428,-0.466847,-2.61953,0
45510,-1.4997,-0.454539,-2.61905,0
45530,-1.49559,-0.443343,-2.61761,0
45550,-1.49021,-0.432889,-2.61539,0
45570,-1.48485,-0.423557,-2.61204,0
45590,-1.48125,-0.416376,-2.60771,0
45610,-1.47894,-0.410511,-2.60321,0
45630,-1.47866,-0.404568,-2.59782,0
45650,-1.48032,-0.397875,-2.59138,0
45670,-1.48369,-0.39082,-2.5838,0
45690,-1.48694,-0.383823,-2.57651,0
45710,-1.4903,-0.377757,-2.57076,0
45730,-1.49454,-0.372985,-2.56692,0
45750,-1.49794,-0.368018,-2.56482,0
45770,-1.50012,-0.363121,-2.56406,0
45790,-1.50064,-0.359101,-2.56299,0
45810,-1.49707,-0.355317,-2.56039,2000
45830,-1.4928,-0.354028,-2.55693,0
45850,-1.49101,-0.354292,-2.55206,0
45870,-1.49362,-0.354423,-2.54468,0
45890,-1.49765,-0.356879,-2.53624,0
45910,-1.5031,-0.360013,-2.5251,0
45930,-1.5106,-0.363441,-2.51161,0
45950,-1.51731,-0.368298,-2.49677,0
45970,-1.52423,-0.375559,-2.48124,0
45990,-1.53347,-0.384314,-2.46513,0
46010,-1.54303,-0.392538,-2.44881,0
46030,-1.55062,-0.400958,-2.43408,0
46050,-1.55731,-0.411776,-2.42287,0
46070,-1.56234,-0.422961,-2.41555,0
46090,-1.56627,-0.435207,-2.41058,0
46110,-1.569,-0.44962,-2.40828,0
46130,-1.57275,-0.465098,-2.41194,0
46150,-1.57466,-0.479888,-2.4209,0
46170,-1.57542,-0.495321,-2.43466,0
46190,-1.57584,-0.513067,-2.45323,0
46210,-1.57422,-0.531702,-2.4768,0
46230,-1.56706,-0.548659,-2.50621,0
46250,-1.55804,-0.568148,-2.53891,0
46270,-1.54994,-0.589173,-2.57692,0
46290,-1.54197,-0.607173,-2.62005,0
46310,-1.52929,-0.625917,-2.66821,0
46330,-1.51657,-0.643892,-2.7177,0
46350,-1.50367,-0.659448,-2.76747,0
46370,-1.48677,-0.673631,-2.81777,0
46400,-1.46243,-0.707528,-2.90905,0
46420,-1.39104,-0.735742,-3.06298,0
46440,-1.37016,-0.734526,-3.09054,0
46460,-1.35218,-0.732041,-3.11308,0
46480,-1.33769,-0.72916,-3.13214,0
46500,-1.32031,-0.724226,3.13274,0
46520,-1.29986,-0.717264,3.11534,0
46540,-1.27582,-0.707575,3.10072,0
46550,-1.25119,-0.69759,3.08935,0
46570,-1.23001,-0.685797,3.08044,0
46590,-1.20724,-0.669457,3.06843,0
46610,-1.18005,-0.650761,3.0534,0
46630,-1.15489,-0.630829,3.03994,0
46650,-1.13243,-0.60823,3.03362,0
46670,-1.1064,-0.586506,3.03332,0
46690,-1.08227,-0.567418,3.03625,0
46710,-1.06419,-0.548758,3.0438,0
46730,-1.05614,-0.531361,3.05805,0
46750,-1.05493,-0.514902,3.07963,0
46770,-1.05655,-0.50274,3.10728,0
46790,-1.06249,-0.494923,3.13958,0
46810,-1.07363,-0.49002,-3.10905,0
46820,-1.08901,-0.486354,-3.07153,0
46840,-1.10769,-0.489893,-3.02858,0
46860,-1.13136,-0.495133,-2.98207,0
46880,-1.15845,-0.501106,-2.93485,0
46900,-1.1847,-0.507343,-2.88478,0
46920,-1.23775,-0.523599,-2.77869,0
46940,-1.26704,-0.53383,-2.72598,0
46960,-1.33251,-0.555252,-2.61498,0
46980,-1.36528,-0.564927,-2.56006,0
47000,-1.39952,-0.575181,-2.50784,0
47020,-1.43471,-0.585037,-2.45727,0
47030,-1.49735,-0.607302,-2.36449,0
47050,-1.52642,-0.619017,-2.32371,0
47070,-1.55595,-0.630128,-2.28788,0
47090,-1.58363,-0.638985,-2.25675,0
47110,-1.60941,-0.646745,-2.22893,0
47130,-1.6331,-0.655404,-2.20445,0
47150,-1.65654,-0.66512,-2.18343,0
47170,-1.67848,-0.675324,-2.16824,0
47190,-1.6933,-0.68584,-2.15915,0
47210,-1.70388,-0.699844,-2.15562,0
47230,-1.71358,-0.715515,-2.15831,0
47250,-1.722,-0.73241,-2.16916,0
47270,-1.72391,-0.750088,-2.18543,0
47290,-1.72226,-0.770179,-2.20744,0
47310,-1.71873,-0.79202,-2.23891,0
47330,-1.71066,-0.813919,-2.27732,0
47350,-1.69586,-0.836181,-2.31925,0
47370,-1.67244,-0.854699,-2.37011,0
47390,-1.6436,-0.873082,-2.43006,0
47440,-1.43237,-0.926675,-2.79028,0
47460,-1.40307,-0.927706,-2.83299,0
47500,-1.31824,-0.905297,-2.93305,0
47520,-1.29504,-0.894515,-2.96008,0
47540,-1.26945,-0.881076,-2.9845,0
47560,-1.24271,-0.868899,-3.00564,0
47580,-1.22159,-0.856357,-3.02659,0
47600,-1.2002,-0.841556,-3.04974,0
47620,-1.17992,-0.82444,-3.07074,0
47640,-1.1624,-0.807315,-3.08787,0
47660,-1.14846,-0.786785,-3.10022,0
47680,-1.13551,-0.765751,-3.10657,0
47700,-1.11513,-0.722832,-3.11412,0
47720,-1.11001,-0.701372,-3.11056,0
47740,-1.11218,-0.681898,-3.09768,0
47760,-1.11847,-0.662167,-3.0794,0
47780,-1.15371,-0.612915,-2.99786,0
47790,-1.17378,-0.599622,-2.9565,0
47800,-1.19426,-0.59085,-2.91181,0
47830,-1.23399,-0.596059,-2.81448,0
47850,-1.24914,-0.603407,-2.76423,0
47870,-1.26385,-0.613165,-2.71391,0
47890,-1.27993,-0.623844,-2.66403,0
47910,-1.29948,-0.635361,-2.61506,0
47930,-1.32328,-0.645023,-2.56538,0
47950,-1.35166,-0.653052,-2.51606,0
47970,-1.38275,-0.658926,-2.46891,0
47990,-1.41625,-0.663719,-2.42351,0
48010,-1.4527,-0.664401,-2.37835,0
48030,-1.48949,-0.666246,-2.33586,0
48050,-1.52522,-0.669015,-2.29654,0
48070,-1.55553,-0.674686,-2.26013,0
48090,-1.58077,-0.685572,-2.22665,0
48110,-1.60435,-0.700571,-2.19728,0
48130,-1.62863,-0.717505,-2.17242,0
48150,-1.65335,-0.736125,-2.15059,0
48170,-1.67619,-0.756259,-2.13031,0
48190,-1.69808,-0.77949,-2.11224,0
48210,-1.71883,-0.803576,-2.09865,0
48230,-1.73938,-0.828271,-2.0898,0
48250,-1.75844,-0.854226,-2.08487,0
48270,-1.77289,-0.879761,-2.08489,0
48290,-1.78306,-0.902824,-2.09003,0
48310,-1.794,-0.923573,-2.09842,0
48330,-1.80239,-0.942643,-2.11217,0
48350,-1.80506,-0.960642,-2.13537,0
48370,-1.80442,-0.978624,-2.16801,0
48390,-1.79442,-0.995753,-2.20751,0
48410,-1.7778,-1.01129,-2.24966,0
48430,-1.75248,-1.02551,-2.2958,0
48450,-1.71692,-1.0393,-2.3484,0
48470,-1.67403,-1.05368,-2.4058,0
48490,-1.62981,-1.06716,-2.46568,0
48510,-1.58532,-1.07858,-2.53047,0
48530,-1.53699,-1.0856,-2.59946,0
48550,-1.48977,-1.08683,-2.66491,0
48570,-1.44809,-1.08563,-2.72486,0
48590,-1.40417,-1.08221,-2.79052,0
48610,-1.35486,-1.07,-2.85847,0
48630,-1.31454,-1.05169,-2.91819,0
48650,-1.27993,-1.03073,-2.96943,0
48670,-1.24693,-1.00754,-3.01303,0
48690,-1.21926,-0.983931,-3.04898,0
48710,-1.19772,-0.958897,-3.08326,0
48730,-1.18406,-0.932814,-3.11321,0
48750,-1.17945,-0.905495,-3.13096,0
48770,-1.17704,-0.880415,-3.14016,0
48790,-1.17069,-0.857427,3.13696,0
48810,-1.16558,-0.836487,3.13286,0
48830,-1.17066,-0.817576,3.13715,0
48850,-1.18513,-0.799598,-3.13303,0
48870,-1.20159,-0.781526,-3.11247,0
48890,-1.21914,-0.765454,-3.08496,0
48910,-1.24151,-0.752167,-3.05361,0
48930,-1.27156,-0.741002,-3.01805,0
48950,-1.308,-0.730991,-2.97678,0
48970,-1.34757,-0.72218,-2.93023,0
48990,-1.38711,-0.715585,-2.88198,0
49010,-1.42304,-0.715174,-2.83424,0
49030,-1.46078,-0.715902,-2.78328,0
49050,-1.5013,-0.717794,-2.72841,0
49070,-1.54165,-0.722102,-2.6731,0
49100,-1.61716,-0.737258,-2.56979,0
49120,-1.65507,-0.746409,-2.51913,0
49140,-1.69431,-0.757677,-2.4683,0
49160,-1.73043,-0.768841,-2.4203,0
49180,-1.76452,-0.780268,-2.37775,0
49200,-1.79692,-0.790498,-2.33961,0
49220,-1.82796,-0.8011,-2.30507,0
49240,-1.85561,-0.812896,-2.27493,0
49260,-1.87992,-0.825384,-2.24924,0
49280,-1.90075,-0.836595,-2.22784,0
49300,-1.91604,-0.846106,-2.2118,0
49330,-1.93702,-0.867331,-2.18517,0
49360,-1.96037,-0.891503,-2.16643,0
49380,-1.97171,-0.901956,-2.16241,0
49410,-1.99068,-0.927687,-2.1564,0
49420,-1.99593,-0.932967,-2.15664,0
49440,-2.0081,-0.936847,-2.15337,0
49460,-2.01254,-0.936372,-2.15186,0
49480,-2.01502,-0.934743,-2.15125,2001
49500,-2.01502,-0.932445,-2.15545,0
49520,-2.01283,-0.928552,-2.16038,0
49540,-2.0077,-0.924217,-2.16737,0
49560,-1.99756,-0.918334,-2.17693,0
49580,-1.98017,-0.909903,-2.1902,0
49600,-1.95653,-0.897659,-2.20551,0
49620,-1.93237,-0.883364,-2.22051,0
49640,-1.90833,-0.869149,-2.23589,0
49660,-1.88289,-0.853882,-2.2566,0
49680,-1.85366,-0.833597,-2.28197,0
49700,-1.82241,-0.810243,-2.30594,0
49720,-1.78782,-0.785165,-2.3288,0
49740,-1.75558,-0.758136,-2.35262,0
49760,-1.72243,-0.726004,-2.3796,0
49780,-1.68424,-0.690163,-2.40714,0
49800,-1.65057,-0.650567,-2.42883,0
49820,-1.62302,-0.61192,-2.44726,0
49840,-1.59982,-0.576204,-2.46423,0
49860,-1.57812,-0.5453,-2.4768,0
49880,-1.56166,-0.51819,-2.48451,0
49900,-1.54486,-0.495257,-2.49205,0
49920,-1.52909,-0.475787,-2.49975,0
49940,-1.51651,-0.459287,-2.50689,0
49960,-1.51037,-0.444964,-2.51266,0
49980,-1.5072,-0.432624,-2.5169,0
50000,-1.50169,-0.422696,-2.51957,0
50020,-1.48969,-0.414765,-2.52145,0
50040,-1.47362,-0.409023,-2.52371,0
50060,-1.45681,-0.405302,-2.52674,0
50080,-1.44131,-0.403926,-2.53074,0
50100,-1.42823,-0.40441,-2.53617,0
50120,-1.4193,-0.405541,-2.5438,0
50140,-1.41256,-0.405902,-2.55353,0
50160,-1.40648,-0.404736,-2.56439,0
50180,-1.39927,-0.40173,-2.57653,0
50200,-1.3945,-0.396977,-2.59014,0
50220,-1.39205,-0.389739,-2.60813,0
50240,-1.392,-0.37887,-2.63038,0
50260,-1.39567,-0.364215,-2.6541,0
50280,-1.4046,-0.346024,-2.67518,0
50300,-1.41331,-0.327375,-2.69609,0
50320,-1.41639,-0.310249,-2.72107,0
50340,-1.41598,-0.293129,-2.74608,0
50360,-1.41553,-0.275063,-2.76591,0
50380,-1.40624,-0.257278,-2.78703,0
50400,-1.38427,-0.23977,-2.81023,0
50420,-1.35676,-0.222541,-2.83179,0
50440,-1.32947,-0.211203,-2.85059,0
50460,-1.2995,-0.2077,-2.86927,0
50460,-1.26702,-0.204881,-2.88875,0
50490,-1.21806,-0.202515,-2.91453,0
50500,-1.20044,-0.209269,-2.92668,0
50520,-1.18203,-0.216258,-2.94158,0
50540,-1.16406,-0.224335,-2.95547,0
50560,-1.14596,-0.237024,-2.96898,0
50580,-1.12513,-0.251013,-2.9828,0
50580,-1.10398,-0.261049,-2.9954,0
50580,-1.07974,-0.270683,-3.00752,0
50600,-1.06037,-0.282459,-3.01859,0
50620,-1.05053,-0.293247,-3.03051,0
50640,-1.0454,-0.301078,-3.04048,0
50660,-1.04512,-0.306423,-3.04609,0
50680,-1.04769,-0.310885,-3.04944,0
50700,-1.04976,-0.315821,-3.05413,0
50720,-1.0504,-0.32008,-3.05923,0
50740,-1.07953,-0.336452,-3.06996,0
50760,-1.08494,-0.334354,-3.0741,0
50780,-1.0896,-0.331334,-3.07868,0
50790,-1.09451,-0.331576,-3.08355,0
50810,-1.0957,-0.334213,-3.08535,0
50830,-1.09875,-0.332943,-3.08743,0
50850,-1.10176,-0.328083,-3.09149,0
50870,-1.09622,-0.323269,-3.09312,0
50890,-1.08913,-0.32263,-3.09343,0
50910,-1.08645,-0.325169,-3.09412,0
50930,-1.08747,-0.331041,-3.09484,0
50950,-1.09549,-0.336033,-3.09484,0
50970,-1.10658,-0.338478,-3.09285,0
50990,-1.11621,-0.341164,-3.08836,0
51010,-1.12417,-0.342795,-3.08524,0
51030,-1.12968,-0.341958,-3.08343,0
51050,-1.13808,-0.339455,-3.08121,0
51050,-1.14889,-0.338042,-3.07743,0
51070,-1.15752,-0.339643,-3.07428,0
51090,-1.16102,-0.340368,-3.07359,0
51100,-1.16116,-0.339474,-3.07517,0
51120,-1.16241,-0.341081,-3.07611,0
51140,-1.16603,-0.344453,-3.07671,0
51160,-1.16843,-0.348182,-3.07867,0
51180,-1.16516,-0.351852,-3.0822,0
51200,-1.1639,-0.351756,-3.08472,0
51220,-1.16809,-0.35238,-3.08736,0
51260,-1.1736,-0.357884,-3.09267,0
51280,-1.17402,-0.360253,-3.09459,0
51300,-1.17159,-0.362588,-3.09646,0
51320,-1.16952,-0.365347,-3.09846,0
51340,-1.16674,-0.36833,-3.10047,0
51360,-1.16143,-0.370991,-3.10287,0
51380,-1.15328,-0.373363,-3.10531,0
51400,-1.14349,-0.374704,-3.10805,0
51420,-1.1358,-0.377364,-3.11212,0
51440,-1.13341,-0.380998,-3.11708,0
51460,-1.13178,-0.383272,-3.11932,0
51480,-1.12873,-0.384587,-3.12218,0
51500,-1.12136,-0.384709,-3.12535,0
51520,-1.11297,-0.387278,-3.12937,0
51540,-1.10729,-0.390988,-3.12955,0
51560,-1.10169,-0.394789,-3.12991,0
51580,-1.09372,-0.395035,-3.12703,0
51600,-1.09522,-0.413359,-3.1218,0
51620,-1.09364,-0.413923,-3.12136,0
51640,-1.07513,-0.410802,-3.12706,0
51660,-1.06042,-0.403862,-3.12749,0
51680,-1.05306,-0.415633,-3.1298,0
51710,-1.03894,-0.531102,-3.07808,0
51730,-0.995841,-0.508985,-3.10844,0
51750,-0.995633,-0.500658,-3.11463,0
51750,-0.999128,-0.487298,-3.12675,0
51760,-0.988283,-0.489328,-3.12725,0
51770,-0.9776,-0.520807,-3.12501,0
51830,-1.04691,-0.539348,-3.14098,0
51850,-1.05849,-0.543747,-3.14031,0
51870,-1.05998,-0.562775,3.13895,0
51890,-1.05543,-0.574864,3.13304,0
51920,-1.08323,-0.57527,3.13524,0
51940,-1.09668,-0.567431,3.13355,0
51960,-1.09827,-0.563565,3.13355,0
51980,-1.09931,-0.560235,3.13345,0
52000,-1.1017,-0.5568,3.13394,0
52020,-1.1034,-0.554039,3.13382,0
52040,-1.10453,-0.552584,3.13337,0
52050,-1.10565,-0.55136,3.13278,0
52080,-1.11896,-0.550349,3.13872,0
52100,-1.12348,-0.55271,-3.13838,0
52120,-1.12765,-0.556495,-3.12939,0
52140,-1.13097,-0.561564,-3.11982,0
52160,-1.13643,-0.569375,-3.10826,0
52180,-1.14837,-0.578276,-3.0931,0
52200,-1.1648,-0.589237,-3.07856,0
52230,-1.20951,-0.637572,-3.03953,0
52250,-1.22507,-0.656609,-3.03044,0
52270,-1.24143,-0.67453,-3.02287,0
52290,-1.25575,-0.690932,-3.01474,0
52310,-1.27143,-0.705613,-3.0031,0
52330,-1.29161,-0.719675,-2.98706,0
52350,-1.31054,-0.732085,-2.97076,0
52370,-1.32867,-0.74373,-2.95309,0
52390,-1.35058,-0.755682,-2.93236,0
52410,-1.37846,-0.766364,-2.90937,0
52430,-1.40762,-0.776191,-2.8858,0
52450,-1.4347,-0.785644,-2.86145,0
52460,-1.45937,-0.792922,-2.83413,0
52480,-1.48641,-0.799908,-2.80266,0
52500,-1.51237,-0.806422,-2.77197,0
52520,-1.53307,-0.81053,-2.74652,0
52540,-1.54942,-0.812152,-2.72267,0
52560,-1.56815,-0.814258,-2.7008,0
52580,-1.58517,-0.8148,-2.68764,0
52600,-1.59756,-0.811215,-2.68048,0
52620,-1.60779,-0.805503,-2.67485,0
52640,-1.61568,-0.799467,-2.67451,0
52660,-1.61671,-0.792504,-2.68082,0
52680,-1.61433,-0.784383,-2.69057,0
52700,-1.61278,-0.775454,-2.70203,0
52720,-1.60968,-0.763364,-2.71323,0
52740,-1.6018,-0.749779,-2.723,0
52760,-1.59155,-0.736357,-2.72972,0
52780,-1.58356,-0.725437,-2.73619,0
52800,-1.57701,-0.717726,-2.7438,0
52820,-1.57316,-0.711139,-2.74768,0
52840,-1.57368,-0.709509,-2.74741,0
52860,-1.57766,-0.704883,-2.7445,0
52880,-1.57788,-0.70101,-2.74021,0
52900,-1.57582,-0.696516,-2.73529,0
52920,-1.5762,-0.692647,-2.73036,0
52940,-1.57866,-0.690241,-2.72598,0
52960,-1.58189,-0.687179,-2.72242,0
52980,-1.58505,-0.682713,-2.72153,0
53000,-1.58553,-0.677796,-2.72268,0
53020,-1.5837,-0.672571,-2.72424,0
53040,-1.58089,-0.667944,-2.72425,0
53060,-1.57791,-0.662786,-2.72384,0
53080,-1.57631,-0.658518,-2.71959,0
53100,-1.57889,-0.656315,-2.70842,0
53120,-1.58538,-0.655477,-2.69132,0
53140,-1.59485,-0.656206,-2.66913,0
53160,-1.60809,-0.660773,-2.64164,0
53180,-1.6259,-0.667971,-2.61064,0
53200,-1.64774,-0.674736,-2.57693,0
53220,-1.67042,-0.678058,-2.54129,0
53240,-1.6908,-0.679382,-2.50397,0
53260,-1.70967,-0.681056,-2.46553,0
53280,-1.72954,-0.681237,-2.42755,0
53300,-1.75317,-0.678043,-2.39018,0
53320,-1.778,-0.671502,-2.35519,0
53340,-1.8004,-0.662954,-2.32395,0
53360,-1.8184,-0.652036,-2.29698,0
53380,-1.83312,-0.636374,-2.27385,0
53400,-1.84,-0.622449,-2.25801,0
53420,-1.84494,-0.600723,-2.2421,0
53440,-1.84347,-0.57203,-2.23424,0
53460,-1.84099,-0.543797,-2.23452,0
53480,-1.83501,-0.520451,-2.2408,0
53510,-1.80567,-0.515262,-2.26756,0
53520,-1.75429,-0.490745,-2.32647,0
53530,-1.73183,-0.457895,-2.36123,0
53550,-1.7058,-0.42295,-2.39857,0
53570,-1.68132,-0.388808,-2.43686,0
53590,-1.6742,-0.3506,-2.47164,0
53610,-1.67501,-0.322931,-2.50634,0
53630,-1.67619,-0.306552,-2.54335,0
53650,-1.67659,-0.293179,-2.58024,0
53670,-1.67796,-0.283031,-2.62041,0
53690,-1.68286,-0.27516,-2.65943,0
53710,-1.6791,-0.270595,-2.69693,0
53730,-1.66784,-0.267303,-2.73268,0
53750,-1.65522,-0.267433,-2.76602,0
53770,-1.64315,-0.270192,-2.79659,0
53790,-1.62727,-0.27655,-2.82024,0
53810,-1.61041,-0.286878,-2.83431,0
53830,-1.59317,-0.303571,-2.83835,0
53850,-1.57435,-0.32717,-2.83333,0
53870,-1.55812,-0.362258,-2.82055,0
53890,-1.54483,-0.400518,-2.80261,0
53910,-1.53282,-0.441448,-2.78128,0
53930,-1.52288,-0.482525,-2.75858,0
53950,-1.51865,-0.520987,-2.736,0
53970,-1.51928,-0.556712,-2.71394,0
53990,-1.52395,-0.590423,-2.69422,0
54000,-1.53229,-0.619778,-2.67847,0
54020,-1.54245,-0.642859,-2.66669,0
54040,-1.55101,-0.659644,-2.65865,0
54060,-1.55664,-0.672353,-2.65402,0
54080,-1.5618,-0.681277,-2.65102,0
54100,-1.56641,-0.686632,-2.64902,0
54120,-1.57068,-0.68936,-2.64816,0
54140,-1.57553,-0.692249,-2.64792,0
54150,-1.58253,-0.694376,-2.65064,0
54170,-1.58704,-0.693309,-2.65648,0
54190,-1.58989,-0.689697,-2.66055,0
54210,-1.59277,-0.685894,-2.66445,0
54230,-1.59176,-0.680508,-2.66969,1000
54250,-1.59061,-0.675618,-2.67197,0
54270,-1.5925,-0.672253,-2.67474,0
54290,-1.5937,-0.669425,-2.6787,0
54310,-1.59406,-0.666989,-2.68174,0
54330,-1.59268,-0.664747,-2.68335,0
54350,-1.58909,-0.663657,-2.68275,0
54370,-1.5863,-0.662329,-2.67819,0
54390,-1.58781,-0.659426,-2.66829,0
54410,-1.59228,-0.658128,-2.65555,0
54430,-1.6004,-0.660836,-2.63722,0
54450,-1.612,-0.663475,-2.61463,0
54470,-1.62568,-0.666233,-2.58974,0
54490,-1.64098,-0.668534,-2.56142,0
54510,-1.65837,-0.670464,-2.52932,0
54530,-1.67725,-0.672195,-2.49528,0
54550,-1.69826,-0.672547,-2.4616,0
54570,-1.7228,-0.669864,-2.42852,0
54590,-1.74501,-0.664786,-2.39607,0
54610,-1.7614,-0.658558,-2.36468,0
54630,-1.77529,-0.651318,-2.33708,0
54650,-1.78863,-0.640117,-2.3137,0
54670,-1.80005,-0.62521,-2.29374,0
54690,-1.80784,-0.610053,-2.27574,0
54710,-1.8091,-0.596293,-2.26226,0
54730,-1.80872,-0.580027,-2.25287,0
54750,-1.80832,-0.561411,-2.24796,0
54770,-1.80388,-0.541078,-2.24738,0
54790,-1.79396,-0.521876,-2.25164,0
54810,-1.78118,-0.502306,-2.25837,0
54830,-1.76982,-0.481199,-2.2673,0
54850,-1.76099,-0.458453,-2.28069,0
54870,-1.74656,-0.435536,-2.30129,0
54890,-1.72789,-0.410052,-2.32564,0
54910,-1.71339,-0.385096,-2.35144,0
54930,-1.69874,-0.362014,-2.38115,0
54950,-1.68262,-0.341343,-2.41389,0
54970,-1.67028,-0.325699,-2.44809,0
54990,-1.666,-0.314139,-2.48252,0
55010,-1.66459,-0.306102,-2.51919,0
55030,-1.66258,-0.299347,-2.55855,0
55050,-1.65911,-0.298297,-2.5996,0
55070,-1.65644,-0.298405,-2.64028,0
55090,-1.65302,-0.296007,-2.67982,0
55110,-1.64275,-0.294769,-2.71859,0
55130,-1.62997,-0.297174,-2.75584,0
55150,-1.6197,-0.300337,-2.7932,0
55170,-1.61117,-0.304979,-2.83077,0
55190,-1.59779,-0.310236,-2.86835,0
55210,-1.58515,-0.315469,-2.90217,0
55230,-1.57152,-0.322002,-2.93361,0
55250,-1.55223,-0.330854,-2.96252,0
55270,-1.53238,-0.341932,-2.9881,0
55290,-1.51624,-0.353519,-3.00936,0
55310,-1.50212,-0.366743,-3.02548,0
55330,-1.48577,-0.381594,-3.03571,0
55350,-1.4687,-0.399565,-3.04051,0
55370,-1.45238,-0.419418,-3.04138,0
55390,-1.43904,-0.440268,-3.03833,0
55410,-1.43052,-0.462274,-3.03006,0
55430,-1.42688,-0.485568,-3.01628,0
55450,-1.42586,-0.50989,-2.99708,0
55470,-1.4291,-0.535024,-2.97253,0
55490,-1.43651,-0.56129,-2.94421,0
55510,-1.44701,-0.587727,-2.91251,0
55530,-1.4617,-0.612781,-2.87637,0
55550,-1.48113,-0.63659,-2.83604,0
55570,-1.50352,-0.660912,-2.79338,0
55590,-1.53078,-0.682793,-2.74894,0
55610,-1.55973,-0.701672,-2.70325,0
55630,-1.59248,-0.720134,-2.65657,0
55650,-1.62772,-0.734902,-2.61258,0
55670,-1.6591,-0.745174,-2.57161,0
55690,-1.68796,-0.752926,-2.53136,0
55710,-1.71735,-0.757293,-2.49133,0
55730,-1.74449,-0.759584,-2.45614,0
55750,-1.76424,-0.758266,-2.4289,0
55770,-1.77948,-0.752404,-2.40614,0
55790,-1.79449,-0.744174,-2.38681,0
55810,-1.80152,-0.732102,-2.37678,0
55830,-1.79946,-0.715366,-2.37597,0
55850,-1.79198,-0.696146,-2.37948,0
55870,-1.77846,-0.676686,-2.38833,0
55890,-1.75659,-0.654595,-2.40603,0
55910,-1.73112,-0.628441,-2.43018,0
55930,-1.7045,-0.597715,-2.45788,0
55950,-1.67646,-0.567189,-2.48675,0
55970,-1.64414,-0.534951,-2.51832,0
55990,-1.61502,-0.501586,-2.55172,0
56010,-1.59145,-0.468876,-2.58484,0
56030,-1.56878,-0.435881,-2.61732,0
56050,-1.54879,-0.402029,-2.64802,0
56070,-1.53777,-0.376868,-2.67556,0
56090,-1.52627,-0.353785,-2.70277,0
56110,-1.52227,-0.331467,-2.72912,0
56130,-1.52013,-0.315519,-2.75657,0
56150,-1.51855,-0.304742,-2.78693,0
56170,-1.51845,-0.296025,-2.8181,0
56190,-1.51521,-0.286739,-2.84879,0
56210,-1.50471,-0.28113,-2.8784,0
56250,-1.47984,-0.284767,-2.93674,0
56270,-1.47259,-0.287283,-2.96673,0
56290,-1.4653,-0.29419,-2.9941,0
56310,-1.45816,-0.304523,-3.02007,0
56330,-1.44629,-0.31435,-3.04489,0
56350,-1.42705,-0.325594,-3.06583,0
56370,-1.40357,-0.343075,-3.08226,0
56430,-1.31876,-0.465404,-3.12196,0
56450,-1.29857,-0.503139,-3.125,0
56470,-1.27855,-0.542184,-3.12586,0
56490,-1.26073,-0.582869,-3.1238,0
56510,-1.24558,-0.625513,-3.1188,0
56530,-1.23346,-0.669149,-3.11082,0
56550,-1.22546,-0.713422,-3.0991,0
56570,-1.22424,-0.757363,-3.08358,0
56590,-1.23159,-0.800367,-3.06251,0
56610,-1.25058,-0.837651,-3.03324,0
56630,-1.27902,-0.873944,-2.99747,0
56650,-1.31436,-0.90882,-2.95729,0
56670,-1.35735,-0.939207,-2.91127,0
56690,-1.40791,-0.96411,-2.86123,0
56710,-1.46428,-0.983824,-2.80991,0
56730,-1.51998,-0.996322,-2.75855,0
56750,-1.5744,-1.00187,-2.70738,0
56770,-1.62859,-1.00427,-2.65867,0
56860,-1.7112,-0.855625,-2.62479,0
56870,-1.67478,-0.823806,-2.65978,0
56880,-1.62922,-0.792936,-2.70137,0
56900,-1.58514,-0.767975,-2.74327,0
56920,-1.54659,-0.740168,-2.77999,0
56920,-1.44837,-0.659597,-2.87479,0
56930,-1.39502,-0.566332,-2.96784,0
56940,-1.38439,-0.52627,-3.00788,0
56960,-1.37985,-0.50647,-3.02719,0
56980,-1.37566,-0.486658,-3.04434,0
57000,-1.37228,-0.468192,-3.06016,0
57020,-1.36438,-0.452755,-3.07759,0
57040,-1.35367,-0.441827,-3.09664,0
57050,-1.34583,-0.433126,-3.11871,0
57070,-1.3419,-0.425536,3.13922,0
57090,-1.33807,-0.417403,3.11252,0
57110,-1.32923,-0.408881,3.08976,0
57130,-1.31525,-0.404125,3.07068,0
57140,-1.27944,-0.410568,3.02912,0
57170,-1.24878,-0.432613,2.99936,0
57190,-1.2286,-0.448602,2.99185,0
57210,-1.20532,-0.469506,2.98769,0
57230,-1.18283,-0.49367,2.98558,0
57250,-1.16373,-0.520268,2.98447,0
57270,-1.14962,-0.548685,2.98471,0
57290,-1.14064,-0.57749,2.98734,0
57310,-1.13409,-0.606647,2.99202,0
57330,-1.13003,-0.636284,2.99877,0
57350,-1.12741,-0.66551,3.0074,0
57370,-1.12925,-0.695115,3.01911,0
57390,-1.13651,-0.724956,3.03392,0
57410,-1.14991,-0.754431,3.05233,0
57430,-1.16768,-0.782765,3.0736,0
57450,-1.18872,-0.809288,3.09774,0
57470,-1.21217,-0.834183,3.12357,0
57490,-1.23709,-0.857243,-3.13228,0
57510,-1.26316,-0.877975,-3.10536,0
57530,-1.28916,-0.894491,-3.0804,0
57550,-1.31549,-0.908545,-3.05541,0
57580,-1.36869,-0.931776,-3.00408,0
57600,-1.39184,-0.940149,-2.98241,0
57620,-1.41466,-0.948307,-2.96235,0
57640,-1.44633,-0.963252,-2.92838,0
57660,-1.45669,-0.967084,-2.91559,0
57680,-1.46809,-0.969935,-2.90393,0
57700,-1.48108,-0.976289,-2.89278,0
57720,-1.49413,-0.983237,-2.88132,0
57740,-1.50631,-0.988537,-2.86965,1001
57760,-1.51737,-0.99366,-2.85952,0
57780,-1.52881,-1.00023,-2.84959,0
57790,-1.54284,-1.01656,-2.83545,0
57810,-1.54855,-1.02476,-2.83203,0
57820,-1.55399,-1.03291,-2.83108,0
57830,-1.55796,-1.0398,-2.83133,0
57850,-1.56485,-1.04647,-2.82829,0
57870,-1.56878,-1.05165,-2.82896,0
57890,-1.56992,-1.05407,-2.83352,0
57910,-1.56813,-1.05297,-2.83839,0
57930,-1.56567,-1.05107,-2.84206,0
57960,-1.55709,-1.04905,-2.85206,0
57970,-1.54835,-1.04396,-2.85849,0
58010,-1.5542,-1.01117,-2.81167,0
58030,-1.56565,-0.997656,-2.78966,0
58050,-1.57683,-0.981053,-2.76709,0
58070,-1.5865,-0.961334,-2.74466,0
58090,-1.59699,-0.941985,-2.7224,0
58110,-1.60738,-0.922393,-2.69801,0
58130,-1.61734,-0.901038,-2.67324,0
58150,-1.62624,-0.879627,-2.65137,0
58170,-1.63182,-0.860647,-2.63424,0
58190,-1.63681,-0.844817,-2.62043,0
58210,-1.64217,-0.831392,-2.61011,0
58230,-1.64839,-0.818937,-2.60284,0
58250,-1.6508,-0.806565,-2.59958,0
58270,-1.64735,-0.793642,-2.598,0
58290,-1.63895,-0.781534,-2.59809,0
58310,-1.63125,-0.770959,-2.60078,0
58330,-1.62464,-0.760833,-2.60603,0
58350,-1.62021,-0.751367,-2.61347,0
58370,-1.61648,-0.74271,-2.62319,0
58390,-1.61315,-0.734547,-2.63503,0
58410,-1.60995,-0.727723,-2.64742,0
58430,-1.60687,-0.723103,-2.66112,0
58450,-1.60191,-0.718295,-2.6733,0
58470,-1.5954,-0.712934,-2.68219,0
58490,-1.58866,-0.710405,-2.68856,0
58510,-1.58081,-0.710925,-2.69503,0
58530,-1.57393,-0.712755,-2.70271,0
58550,-1.5727,-0.714172,-2.70983,0
58570,-1.57351,-0.714179,-2.7144,0
58590,-1.57241,-0.713068,-2.71594,0
58610,-1.56906,-0.71177,-2.7144,1000
58630,-1.56604,-0.711548,-2.71074,0
58650,-1.5653,-0.711074,-2.70467,0
58670,-1.56923,-0.711001,-2.69363,0
58690,-1.57821,-0.710702,-2.6787,0
58710,-1.5901,-0.712267,-2.65955,0
58730,-1.60528,-0.715512,-2.63437,0
58750,-1.62152,-0.718524,-2.60631,0
58770,-1.6388,-0.722095,-2.57567,0
58790,-1.65689,-0.724714,-2.54282,0
58810,-1.67542,-0.725194,-2.50891,0
58830,-1.69455,-0.724736,-2.4741,0
58850,-1.71414,-0.722911,-2.43896,0
58870,-1.73432,-0.720023,-2.40433,0
58890,-1.75391,-0.716422,-2.37147,0
58910,-1.77063,-0.711378,-2.34256,0
58930,-1.78658,-0.704024,-2.31758,0
58950,-1.80237,-0.695285,-2.29655,0
58970,-1.81174,-0.68417,-2.28008,0
58990,-1.8152,-0.669817,-2.26645,0
59010,-1.81506,-0.655523,-2.25627,0
59030,-1.81302,-0.640034,-2.24868,0
59050,-1.81177,-0.628084,-2.24009,0
59070,-1.81449,-0.625202,-2.23364,0
59090,-1.81426,-0.626204,-2.23808,0
59110,-1.80592,-0.620499,-2.25094,0
59130,-1.79548,-0.613704,-2.26556,0
59150,-1.78495,-0.607938,-2.27894,0
59170,-1.77473,-0.598521,-2.2946,0
59190,-1.76124,-0.585142,-2.31356,0
59210,-1.74479,-0.567443,-2.33455,0
59230,-1.72989,-0.545601,-2.35832,0
59250,-1.71319,-0.522001,-2.38576,0
59270,-1.69404,-0.498717,-2.41531,0
59290,-1.67627,-0.477607,-2.44626,0
59310,-1.66059,-0.45652,-2.47781,0
59330,-1.64829,-0.434426,-2.50992,0
59340,-1.63705,-0.413375,-2.54402,0
59360,-1.62458,-0.394954,-2.58036,0
59380,-1.61131,-0.377168,-2.61807,0
59400,-1.59648,-0.358808,-2.65494,0
59420,-1.58264,-0.34019,-2.69246,0
59440,-1.57197,-0.327978,-2.73099,0
59460,-1.56336,-0.320256,-2.76906,0
59480,-1.55194,-0.31402,-2.80558,0
59500,-1.5381,-0.309837,-2.83927,0
59520,-1.5223,-0.310401,-2.87118,0
59540,-1.50796,-0.313884,-2.90057,0
59560,-1.49588,-0.318655,-2.92585,0
59590,-1.47037,-0.339313,-2.96479,0
59610,-1.45522,-0.360067,-2.97941,0
59630,-1.43816,-0.392577,-2.98977,0
59650,-1.41674,-0.4294,-2.99588,0
59670,-1.39391,-0.470868,-2.99852,0
59690,-1.37314,-0.514945,-2.99796,0
59700,-1.3551,-0.56082,-2.9952,0
59720,-1.34146,-0.606792,-2.98946,0
59740,-1.33286,-0.651638,-2.97938,0
59760,-1.32842,-0.694818,-2.96534,0
59780,-1.329,-0.736036,-2.94745,0
59800,-1.33897,-0.770627,-2.92359,0
59820,-1.36007,-0.801689,-2.8938,0
59840,-1.3908,-0.830949,-2.85883,0
59860,-1.42908,-0.857275,-2.81931,0
59880,-1.47276,-0.878621,-2.77558,0
59900,-1.52081,-0.896068,-2.72745,0
59920,-1.57064,-0.910295,-2.67669,0
59940,-1.62145,-0.920999,-2.62478,0
59960,-1.67464,-0.926484,-2.57416,0
59980,-1.72212,-0.926406,-2.52734,0
60000,-1.76315,-0.92208,-2.48405,0
60020,-1.80184,-0.914514,-2.44248,0
60040,-1.83881,-0.903729,-2.40545,0
60060,-1.86785,-0.889575,-2.37546,0
60080,-1.88854,-0.874179,-2.35306,0
60100,-1.9042,-0.857772,-2.33748,0
60110,-1.86373,-0.771209,-2.36482,0
60130,-1.8296,-0.74374,-2.38844,0
60140,-1.69281,-0.640068,-2.4885,0
60140,-1.63675,-0.60401,-2.5281,0
60160,-1.58894,-0.571535,-2.56566,0
60180,-1.54582,-0.552086,-2.60422,0
60200,-1.50038,-0.527065,-2.64619,0
60220,-1.46339,-0.506658,-2.68462,0
60240,-1.44017,-0.496075,-2.71756,0
60260,-1.42088,-0.487786,-2.75108,0
60280,-1.40806,-0.483025,-2.78432,0
60300,-1.4033,-0.480171,-2.81768,0
60320,-1.40004,-0.476812,-2.85142,0
60340,-1.39538,-0.473428,-2.88425,0
60360,-1.3905,-0.471253,-2.91317,0
60380,-1.38251,-0.468816,-2.94169,0
60410,-1.34918,-0.473477,-2.99754,0
60430,-1.33272,-0.478083,-3.02552,0
60450,-1.31832,-0.485987,-3.0529,0
60470,-1.30376,-0.499117,-3.07806,0
60480,-1.28751,-0.513661,-3.09892,0
60520,-1.24548,-0.547339,-3.12588,0
60540,-1.22445,-0.57219,-3.13049,0
60560,-1.20984,-0.600801,-3.13189,0
60580,-1.20296,-0.637765,-3.13136,0
60600,-1.20151,-0.675891,-3.12624,0
60620,-1.20292,-0.714217,-3.11601,0
60640,-1.21071,-0.74694,-3.10091,0
60660,-1.22109,-0.780003,-3.08418,0
60680,-1.23612,-0.812873,-3.06288,0
60700,-1.25871,-0.845388,-3.03622,0
60720,-1.28815,-0.877684,-3.0056,0
60740,-1.32103,-0.909059,-2.97266,0
60760,-1.35634,-0.938404,-2.93633,0
60780,-1.39717,-0.96555,-2.89592,0
60800,-1.44538,-0.989785,-2.85155,0
60820,-1.49917,-1.00962,-2.80471,0
60840,-1.55378,-1.02302,-2.7574,0
60860,-1.60789,-1.03021,-2.7113,0
60880,-1.65989,-1.0309,-2.66751,0
60900,-1.70827,-1.02557,-2.62884,0
60920,-1.75102,-1.01537,-2.59807,0
60950,-1.81124,-0.985171,-2.56957,0
60980,-1.82955,-0.939785,-2.57323,0
61000,-1.81994,-0.917552,-2.59335,0
61020,-1.76452,-0.853677,-2.65302,0
61040,-1.72837,-0.822139,-2.69194,0
61060,-1.68319,-0.790821,-2.73724,0
61080,-1.63189,-0.757216,-2.78406,0
61100,-1.5832,-0.721165,-2.8269,0
61120,-1.535,-0.684478,-2.86667,0
61140,-1.49377,-0.646334,-2.90181,0
61160,-1.46053,-0.607906,-2.93158,0
61180,-1.43343,-0.571398,-2.95706,0
61200,-1.41816,-0.549865,-2.97588,0
61220,-1.40673,-0.531567,-2.99542,0
61240,-1.39665,-0.513674,-3.01274,0
61260,-1.39095,-0.500433,-3.02861,0
61280,-1.38793,-0.492019,-3.04686,0
61290,-1.38765,-0.485421,-3.06628,0
61310,-1.38531,-0.480601,-3.08441,0
61330,-1.37098,-0.476576,-3.12126,0
61350,-1.35515,-0.475634,-3.14082,0
61370,-1.33582,-0.47581,3.12326,0
61390,-1.31675,-0.479184,3.10608,0
61410,-1.30106,-0.484492,3.08936,0
61430,-1.28881,-0.487691,3.07298,0
61450,-1.27804,-0.490945,3.05652,0
61470,-1.26531,-0.496506,3.03965,0
61490,-1.2501,-0.502487,3.02109,0
61510,-1.23433,-0.50989,3.00422,0
61520,-1.21952,-0.520056,2.98832,0
61540,-1.20534,-0.529209,2.97176,0
61560,-1.19261,-0.53802,2.95521,0
61580,-1.18273,-0.549299,2.94315,0
61600,-1.17394,-0.563675,2.93631,0
61620,-1.16489,-0.581338,2.9334,0
61640,-1.15761,-0.602449,2.93366,0
61660,-1.15375,-0.626898,2.93559,0
61680,-1.15353,-0.653696,2.94012,0
61700,-1.1572,-0.680581,2.94851,0
61720,-1.1659,-0.708244,2.96098,0
61740,-1.17788,-0.737181,2.97536,0
61760,-1.19486,-0.766454,2.99173,0
61780,-1.21587,-0.793071,3.01036,0
61800,-1.23983,-0.816597,3.03122,0
61820,-1.26458,-0.839198,3.0533,0
61840,-1.28706,-0.860824,3.07316,0
61860,-1.31115,-0.880144,3.09154,0
61880,-1.33772,-0.897257,3.10897,0
61900,-1.36086,-0.91275,3.12359,0
61920,-1.37993,-0.928726,3.13425,0
61940,-1.39677,-0.943506,-3.13915,0
61960,-1.41544,-0.954669,-3.12812,0
61980,-1.43424,-0.96261,-3.11923,0
62000,-1.4491,-0.970702,-3.11114,0
62020,-1.46072,-0.97788,-3.09916,0
62040,-1.4746,-0.984105,-3.08363,0
62060,-1.48606,-0.990365,-3.07352,0
62080,-1.49559,-0.994577,-3.06944,0
62100,-1.50705,-0.996272,-3.06432,0
62120,-1.51614,-0.997488,-3.05742,0
62140,-1.52431,-0.998975,-3.04982,0
62160,-1.52991,-1.00069,-3.04503,0
62180,-1.53431,-1.00339,-3.04106,0
62200,-1.53996,-1.0084,-3.03529,0
62220,-1.54567,-1.01437,-3.02981,0
62240,-1.55208,-1.01957,-3.02481,0
62260,-1.55986,-1.02595,-3.01877,0
62280,-1.56503,-1.03295,-3.0128,0
62300,-1.56937,-1.03802,-3.00608,0
62320,-1.57401,-1.04081,-2.99978,0
62340,-1.57786,-1.04333,-2.99549,0
62360,-1.58049,-1.04535,-2.99237,1001
62390,-1.58574,-1.04357,-2.98373,0
62410,-1.58628,-1.04208,-2.98075,0
62430,-1.58839,-1.04374,-2.97692,0
62440,-1.5972,-1.04632,-2.96803,0
62460,-1.61069,-1.04943,-2.95701,0
62480,-1.62312,-1.05317,-2.94936,0
62500,-1.62996,-1.05343,-2.94237,0
62520,-1.63433,-1.0513,-2.93461,0
62540,-1.63426,-1.04602,-2.92559,0
62560,-1.63395,-1.03851,-2.9099,0
62580,-1.63544,-1.0258,-2.88785,0
62600,-1.64484,-1.00743,-2.86005,0
62620,-1.65685,-0.987872,-2.82931,0
62640,-1.66753,-0.965689,-2.79721,0
62660,-1.68102,-0.94117,-2.76467,0
62680,-1.69971,-0.916614,-2.73269,0
62700,-1.71799,-0.891959,-2.70124,0
62750,-1.75902,-0.828835,-2.61858,0
62760,-1.76884,-0.815828,-2.59743,0
62780,-1.77653,-0.80593,-2.57743,0
62800,-1.78242,-0.796909,-2.56083,0
62820,-1.78219,-0.788066,-2.55115,0
62840,-1.77619,-0.781561,-2.5485,0
62860,-1.76977,-0.775395,-2.54824,0
62880,-1.76654,-0.767979,-2.54621,0
62900,-1.76147,-0.760287,-2.54779,0
62920,-1.75184,-0.753964,-2.5535,0
62940,-1.74098,-0.750465,-2.56047,0
62960,-1.73422,-0.749638,-2.56934,0
62980,-1.73053,-0.747983,-2.58051,0
63000,-1.72483,-0.745481,-2.59467,0
63020,-1.7141,-0.741019,-2.60851,0
63040,-1.70008,-0.735526,-2.61893,0
63060,-1.68684,-0.730407,-2.62722,0
63080,-1.67572,-0.725391,-2.63598,0
63100,-1.66736,-0.719321,-2.64469,0
63120,-1.66378,-0.713055,-2.65296,0
63140,-1.66271,-0.707714,-2.66084,0
63160,-1.65873,-0.702493,-2.66804,0
63180,-1.65551,-0.69671,-2.67379,0
63200,-1.65468,-0.692245,-2.67834,0
63220,-1.65353,-0.688992,-2.68284,0
63240,-1.64964,-0.685246,-2.68631,0
63260,-1.64893,-0.680854,-2.68827,0
63280,-1.64932,-0.676648,-2.69046,1000
63300,-1.64852,-0.673717,-2.69219,0
63320,-1.64791,-0.671593,-2.69117,0
63340,-1.64846,-0.667986,-2.68908,0
63360,-1.64925,-0.665391,-2.68569,0
63380,-1.65191,-0.664441,-2.6776,0
63400,-1.65693,-0.663612,-2.66644,0
63420,-1.66459,-0.665073,-2.65172,0
63440,-1.67353,-0.667786,-2.63189,0
63460,-1.68512,-0.671512,-2.60808,0
63480,-1.69966,-0.675295,-2.5816,0
63500,-1.71709,-0.677169,-2.55288,0
63520,-1.73659,-0.675816,-2.52195,0
63540,-1.75735,-0.671578,-2.4908,0
63570,-1.80141,-0.654029,-2.43012,0
63590,-1.82493,-0.639927,-2.40061,0
63610,-1.84657,-0.623199,-2.37372,0
63630,-1.86439,-0.605147,-2.35164,0
63650,-1.87445,-0.583355,-2.33494,0
63670,-1.87815,-0.557916,-2.32116,0
63690,-1.87551,-0.532945,-2.30882,0
63710,-1.86744,-0.511605,-2.30005,0
63730,-1.85599,-0.491445,-2.2982,0
63750,-1.83852,-0.467719,-2.30023,0
63770,-1.82277,-0.44331,-2.30309,0
63790,-1.80151,-0.42126,-2.30783,0
63810,-1.77269,-0.399951,-2.31647,0
63830,-1.74557,-0.378046,-2.32841,0
63860,-1.68155,-0.32297,-2.39123,0
63880,-1.66485,-0.302388,-2.42165,0
63900,-1.64869,-0.280912,-2.45462,0
63920,-1.63292,-0.263537,-2.48942,0
63940,-1.61465,-0.248115,-2.5277,0
63960,-1.60273,-0.239524,-2.56713,0
63980,-1.60184,-0.235804,-2.6089,0
64000,-1.60618,-0.237106,-2.65323,0
64020,-1.61147,-0.243563,-2.69734,0
64040,-1.61169,-0.251512,-2.73896,0
64060,-1.60599,-0.258965,-2.77611,0
64080,-1.59181,-0.269692,-2.81078,0
64100,-1.57674,-0.283436,-2.84447,0
64120,-1.56623,-0.299851,-2.87731,0
64140,-1.55833,-0.316961,-2.9069,0
64160,-1.54681,-0.335065,-2.93339,0
64180,-1.52927,-0.354903,-2.95684,0
64200,-1.50973,-0.377365,-2.97851,0
64220,-1.48961,-0.401451,-2.99784,0
64240,-1.473,-0.433555,-3.01145,0
64260,-1.45669,-0.46542,-3.0189,0
64280,-1.43896,-0.498848,-3.02234,0
64300,-1.42405,-0.532883,-3.02123,0
64320,-1.41723,-0.562241,-3.01645,0
64340,-1.41504,-0.590881,-3.00906,0
64360,-1.41761,-0.617313,-2.99768,0
64380,-1.42428,-0.642956,-2.98198,0
64400,-1.43284,-0.669119,-2.96286,0
64420,-1.44424,-0.695028,-2.94069,0
64440,-1.4611,-0.718674,-2.91473,0
64460,-1.483,-0.73939,-2.88437,0
64480,-1.51085,-0.758724,-2.84936,0
64500,-1.54193,-0.777473,-2.81031,0
64520,-1.57487,-0.794498,-2.76866,0
64540,-1.61139,-0.807953,-2.72669,0
64560,-1.64939,-0.816441,-2.68672,0
64580,-1.68422,-0.818766,-2.64923,0
64600,-1.71373,-0.81701,-2.61464,0
64620,-1.73767,-0.810587,-2.58119,0
64640,-1.76005,-0.798535,-2.54899,0
64660,-1.78047,-0.783052,-2.52181,0
64680,-1.79313,-0.76338,-2.50254,0
64700,-1.79596,-0.740769,-2.49182,0
64720,-1.78842,-0.717306,-2.4916,0
64740,-1.77128,-0.692094,-2.5026,0
64760,-1.74444,-0.659796,-2.52463,0
64780,-1.70546,-0.628516,-2.55721,0
64800,-1.658,-0.595732,-2.59628,0
64820,-1.60706,-0.554687,-2.63251,0
64840,-1.55482,-0.515062,-2.66523,0
64860,-1.51208,-0.495968,-2.695,0
64880,-1.47116,-0.480849,-2.72785,0
64900,-1.44042,-0.46497,-2.75814,0
64920,-1.42145,-0.452999,-2.78676,0
64940,-1.40998,-0.446757,-2.81576,0
64960,-1.40439,-0.443242,-2.84448,0
64980,-1.4059,-0.43906,-2.87154,0
65000,-1.40253,-0.434747,-2.89673,0
65020,-1.39413,-0.430199,-2.92041,0
65040,-1.38206,-0.429756,-2.94363,0
65060,-1.37132,-0.431273,-2.96772,0
65080,-1.36409,-0.432289,-2.99381,0
65090,-1.35615,-0.433994,-3.02058,0
65110,-1.34573,-0.438024,-3.04861,0
65130,-1.33355,-0.442372,-3.07727,0
65150,-1.31743,-0.446981,-3.10561,0
65170,-1.30052,-0.453398,-3.13414,0
65190,-1.28222,-0.460965,3.12198,0
65210,-1.2617,-0.469152,3.10146,0
65220,-1.21615,-0.495704,3.07826,0
65240,-1.19718,-0.516796,3.07108,0
65260,-1.18477,-0.540989,3.06794,0
65280,-1.17855,-0.567207,3.0693,0
65300,-1.17693,-0.595065,3.07508,0
65320,-1.17838,-0.624547,3.08406,0
65340,-1.1832,-0.65454,3.09636,0
65360,-1.19268,-0.684879,3.11147,0
65380,-1.20655,-0.715765,3.12941,0
65400,-1.22452,-0.746961,-3.13293,0
65420,-1.24452,-0.77889,-3.10967,0
65440,-1.26713,-0.81131,-3.08473,0
65460,-1.29458,-0.842402,-3.0575,0
65480,-1.32569,-0.872472,-3.02953,0
65500,-1.35532,-0.901828,-3.00122,0
65520,-1.38432,-0.930273,-2.97085,0
65530,-1.41521,-0.957527,-2.94017,0
65550,-1.44995,-0.981375,-2.91124,0
65570,-1.48471,-0.998713,-2.8827,0
65590,-1.51454,-1.01121,-2.8572,0
65610,-1.54418,-1.0198,-2.8302,0
65630,-1.57492,-1.02388,-2.80139,0
65650,-1.60126,-1.02251,-2.77812,0
65670,-1.61743,-1.0157,-2.76697,0
65690,-1.62688,-1.0049,-2.7647,0
65710,-1.63597,-0.987969,-2.76358,0
65720,-1.62178,-0.908349,-2.8081,0
65740,-1.58633,-0.871054,-2.83454,0
65760,-1.54818,-0.833611,-2.86301,0
65780,-1.50608,-0.792642,-2.90049,0
65800,-1.4636,-0.747159,-2.93908,0
65820,-1.43018,-0.705441,-2.97032,0
65840,-1.39697,-0.665607,-2.99921,0
65860,-1.3598,-0.623198,-3.02745,0
65880,-1.33092,-0.582111,-3.04857,0
65900,-1.31665,-0.556026,-3.06421,0
65910,-1.30598,-0.512818,-3.10038,0
65930,-1.30717,-0.491982,-3.1191,0
65950,-1.3054,-0.473012,-3.13659,0
65960,-1.30093,-0.457024,3.13031,0
65980,-1.29642,-0.442266,3.11311,0
66000,-1.29195,-0.428201,3.09717,0
66020,-1.28341,-0.417455,3.08103,0
66040,-1.27006,-0.410785,3.06565,0
66060,-1.25806,-0.404432,3.05112,0
66080,-1.25143,-0.40081,3.03418,0
66100,-1.24939,-0.400384,3.01322,0
66120,-1.2491,-0.399082,2.99188,0
66140,-1.24608,-0.39655,2.97437,0
66160,-1.23687,-0.396591,2.95755,0
66180,-1.22558,-0.401019,2.93921,0
66200,-1.21577,-0.405832,2.9212,0
66220,-1.20977,-0.410852,2.90599,0
66240,-1.20404,-0.418436,2.89391,0
66260,-1.19625,-0.428899,2.88512,0
66280,-1.1858,-0.442174,2.8782,0
66300,-1.17656,-0.457487,2.87337,0
66320,-1.17039,-0.474745,2.87103,0
66340,-1.16314,-0.494402,2.86986,0
66360,-1.15058,-0.516453,2.8695,0
66380,-1.1335,-0.541747,2.86954,0
66400,-1.11357,-0.5687,2.86953,0
66420,-1.09444,-0.596878,2.87138,0
66440,-1.0806,-0.62734,2.87555,0
66460,-1.07245,-0.658266,2.88199,0
66480,-1.07015,-0.689127,2.89079,0
66500,-1.07275,-0.719988,2.90193,0
66520,-1.07963,-0.74978,2.91442,0
66540,-1.09028,-0.778701,2.92803,0
66560,-1.10391,-0.806232,2.94216,0
66580,-1.12001,-0.832097,2.95777,0
66600,-1.13804,-0.856238,2.97306,0
66620,-1.15702,-0.877515,2.98695,0
66640,-1.17463,-0.894704,2.99831,0
66660,-1.19264,-0.908775,3.01148,0
66680,-1.21228,-0.92299,3.02639,0
66700,-1.23391,-0.934818,3.04004,0
66720,-1.25912,-0.943797,3.05466,0
66740,-1.28313,-0.951596,3.07162,0
66760,-1.30477,-0.958683,3.0898,0
66780,-1.31927,-0.966302,3.10564,0
66800,-1.32969,-0.973605,3.11948,0
66820,-1.3433,-0.980297,3.13366,0
66840,-1.35879,-0.986028,-3.13642,0
66860,-1.37077,-0.992112,-3.1269,0
66880,-1.38236,-0.997042,-3.1144,0
66900,-1.3953,-1.00207,-3.09994,0
66920,-1.40425,-1.00858,-3.09021,0
66940,-1.40735,-1.01414,-3.08221,0
66960,-1.41346,-1.01938,-3.06994,0
66980,-1.42115,-1.0255,-3.05804,0
67000,-1.42819,-1.03324,-3.05052,0
67020,-1.43608,-1.04082,-3.04402,0
67040,-1.44494,-1.04574,-3.03588,0
67060,-1.45273,-1.05036,-3.0288,0
67080,-1.4557,-1.05528,-3.0257,0
67100,-1.45552,-1.05973,-3.02441,0
67120,-1.4523,-1.06243,-3.02434,0
67140,-1.44592,-1.06551,-3.02731,0
67150,-1.43577,-1.06961,-3.03401,0
67170,-1.42325,-1.07366,-3.04386,0
67190,-1.41156,-1.0773,-3.05469,0
67210,-1.40505,-1.08232,-3.06186,0
67230,-1.40222,-1.08846,-3.0667,1001
67250,-1.40122,-1.09412,-3.07291,0
67270,-1.40504,-1.09673,-3.07403,0
67290,-1.41149,-1.09693,-3.06866,0
67310,-1.41794,-1.09621,-3.06068,0
67330,-1.42327,-1.09546,-3.05399,0
67350,-1.42885,-1.0954,-3.04189,0
67370,-1.4371,-1.09508,-3.02844,0
67390,-1.44386,-1.09274,-3.01921,0
67410,-1.44849,-1.0917,-3.01655,0
67410,-1.45576,-1.09139,-3.01707,0
67430,-1.46624,-1.09162,-3.0186,0
67440,-1.46533,-1.09656,-3.03444,0
67460,-1.45594,-1.10007,-3.05003,0
67480,-1.45114,-1.09892,-3.05708,0
67520,-1.46076,-1.09561,-3.04401,0
67540,-1.46974,-1.09303,-3.02844,0
67560,-1.48439,-1.09008,-3.00606,0
67580,-1.50323,-1.08743,-2.97795,0
67600,-1.52919,-1.08248,-2.94412,0
67650,-1.60146,-1.05053,-2.82525,0
67670,-1.64531,-1.02365,-2.75218,0
67690,-1.66839,-1.00652,-2.7179,0
67730,-1.74599,-0.931642,-2.61137,0
67750,-1.75912,-0.915785,-2.59328,0
67770,-1.77193,-0.901528,-2.57926,0
67790,-1.77941,-0.888388,-2.57121,0
67810,-1.78467,-0.875339,-2.57025,0
67830,-1.7897,-0.860963,-2.57292,0
67850,-1.79152,-0.847117,-2.57926,0
67870,-1.78931,-0.835942,-2.59092,0
67890,-1.78377,-0.824441,-2.60663,0
67910,-1.7785,-0.813525,-2.62185,0
67930,-1.77259,-0.803826,-2.63482,0
67950,-1.76372,-0.791949,-2.64902,0
67970,-1.75566,-0.778827,-2.66319,0
67990,-1.74861,-0.766154,-2.67464,0
68010,-1.74456,-0.754778,-2.68264,0
68030,-1.74068,-0.744518,-2.68961,0
68050,-1.73501,-0.734559,-2.69824,0
68070,-1.73032,-0.723814,-2.70754,0
68090,-1.72963,-0.7143,-2.71508,0
