Timestamp, Angle x, Angle y, Angle z, Marker
40,-1.16069,-0.106369,-1.61163,0
50,-1.15025,-0.109434,-1.6126,0
70,-1.13796,-0.114441,-1.61524,0
80,-1.12526,-0.118145,-1.61894,0
100,-1.11257,-0.121383,-1.62224,0
120,-1.08771,-0.12749,-1.62989,0
140,-1.07769,-0.131708,-1.63523,0
170,-1.05883,-0.132777,-1.64459,0
190,-1.04996,-0.130318,-1.64827,0
210,-1.05976,-0.126397,-1.66737,0
230,-1.05986,-0.129304,-1.66672,0
240,-1.05768,-0.132991,-1.66437,0
260,-1.05597,-0.137417,-1.65941,0
280,-1.05843,-0.139514,-1.65601,0
300,-1.06529,-0.140645,-1.65376,0
330,-1.0811,-0.147013,-1.64837,0
350,-1.08202,-0.149501,-1.64449,0
360,-1.08162,-0.150991,-1.641,0
360,-1.08285,-0.153162,-1.63884,0
390,-1.09267,-0.158408,-1.63561,0
420,-1.10825,-0.159986,-1.63597,0
440,-1.11119,-0.162254,-1.63852,0
460,-1.11368,-0.163305,-1.64149,0
490,-1.11464,-0.162716,-1.6438,0
510,-1.11451,-0.161422,-1.64461,0
530,-1.11267,-0.161522,-1.64652,0
550,-1.11132,-0.162994,-1.6487,0
590,-1.09771,-0.160613,-1.65658,0
610,-1.09571,-0.15238,-1.6582,0
630,-1.0992,-0.150612,-1.65998,0
640,-1.10677,-0.149757,-1.66122,0
670,-1.09785,-0.144262,-1.65843,0
690,-1.09236,-0.14207,-1.65825,0
700,-1.09451,-0.142434,-1.65985,0
720,-1.09725,-0.142974,-1.66096,0
730,-1.09845,-0.142161,-1.66068,0
740,-1.09906,-0.140168,-1.66063,0
760,-1.10053,-0.139284,-1.66041,0
780,-1.1039,-0.13946,-1.66001,0
790,-1.10638,-0.140226,-1.66098,0
810,-1.10691,-0.141919,-1.66302,0
830,-1.10522,-0.141305,-1.66495,0
840,-1.10452,-0.132438,-1.6653,0
860,-1.10666,-0.132124,-1.6653,0
880,-1.10827,-0.131052,-1.66668,0
890,-1.11678,-0.130051,-1.66562,0
920,-1.12549,-0.13225,-1.66239,0
940,-1.12964,-0.133327,-1.6609,0
970,-1.1334,-0.134906,-1.65454,0
990,-1.13232,-0.135083,-1.65041,0
1010,-1.13114,-0.13455,-1.64742,0
1030,-1.13154,-0.13574,-1.6448,0
1050,-1.13227,-0.136622,-1.64293,0
1070,-1.1316,-0.136596,-1.64185,0
1090,-1.12894,-0.136083,-1.64135,0
1110,-1.12644,-0.135451,-1.64232,0
1130,-1.1239,-0.135125,-1.64442,0
1150,-1.1209,-0.134766,-1.64676,0
1170,-1.11728,-0.133429,-1.64788,0
1190,-1.11397,-0.13199,-1.64861,0
1210,-1.1115,-0.129782,-1.64858,0
1230,-1.10971,-0.127101,-1.64783,0
1250,-1.10899,-0.125613,-1.6476,0
1280,-1.10742,-0.122292,-1.64608,0
1300,-1.10654,-0.121931,-1.64508,0
1320,-1.10505,-0.121697,-1.64406,0
1340,-1.10444,-0.121436,-1.64405,0
1360,-1.10332,-0.121698,-1.64448,0
1380,-1.10341,-0.12182,-1.64449,0
1400,-1.10309,-0.121266,-1.64401,0
1430,-1.10396,-0.120008,-1.64609,0
1450,-1.10425,-0.119594,-1.64652,0
1470,-1.10435,-0.118809,-1.64638,0
1490,-1.10385,-0.118002,-1.6463,0
1510,-1.10302,-0.117336,-1.64661,0
1530,-1.10433,-0.115852,-1.64718,0
1550,-1.10687,-0.114672,-1.64708,0
1570,-1.10999,-0.114583,-1.64598,0
1590,-1.11084,-0.113827,-1.64498,0
1610,-1.10959,-0.113385,-1.64536,0
1630,-1.10681,-0.113298,-1.64566,0
1650,-1.1052,-0.114065,-1.64548,0
1670,-1.10297,-0.11506,-1.64853,0
1690,-1.09933,-0.115401,-1.65067,0
1710,-1.09573,-0.115091,-1.6521,0
1730,-1.09381,-0.113171,-1.652,0
1750,-1.09314,-0.111371,-1.65128,0
1770,-1.0918,-0.11122,-1.65205,0
1790,-1.09034,-0.110814,-1.65355,0
1810,-1.08784,-0.10851,-1.65287,0
1830,-1.08447,-0.106866,-1.65125,0
1850,-1.08039,-0.105275,-1.64961,0
1870,-1.07555,-0.104449,-1.64665,0
1890,-1.07153,-0.102854,-1.64253,0
1900,-1.06691,-0.102216,-1.63943,0
1910,-1.06331,-0.103865,-1.63892,0
1930,-1.06359,-0.105028,-1.63932,0
1940,-1.06362,-0.105333,-1.63811,0
1960,-1.0615,-0.107804,-1.64693,0
1980,-1.06136,-0.114539,-1.65637,0
2000,-1.0582,-0.116361,-1.66023,0
2010,-1.05471,-0.115719,-1.66304,0
2030,-1.05016,-0.113222,-1.66209,0
2050,-1.04928,-0.112024,-1.66095,0
2070,-1.04903,-0.110457,-1.66094,0
2090,-1.04943,-0.109315,-1.66095,0
2110,-1.05047,-0.109182,-1.6599,0
2120,-1.05318,-0.111305,-1.65602,0
2140,-1.0529,-0.113004,-1.65431,0
2160,-1.0526,-0.114269,-1.6543,0
2180,-1.05079,-0.115976,-1.65444,0
2190,-1.04735,-0.119046,-1.65387,0
2210,-1.04406,-0.120551,-1.65369,0
2230,-1.041,-0.121822,-1.65192,0
2250,-1.03805,-0.122583,-1.64788,0
2270,-1.03605,-0.121534,-1.64318,0
2290,-1.03698,-0.11938,-1.63736,0
2310,-1.03975,-0.118913,-1.63164,0
2330,-1.042,-0.119107,-1.62772,0
2340,-1.04539,-0.117636,-1.62532,0
2360,-1.04661,-0.114959,-1.62212,0
2380,-1.05086,-0.106684,-1.61247,0
2400,-1.05246,-0.101443,-1.60864,0
2420,-1.05321,-0.0957591,-1.60548,0
2460,-1.05148,-0.0870725,-1.60463,0
2490,-1.06271,-0.0870019,-1.60656,0
2510,-1.06552,-0.0870067,-1.60632,0
2530,-1.07251,-0.0863956,-1.60504,0
2540,-1.08797,-0.0948585,-1.60603,0
2560,-1.09022,-0.0945838,-1.60541,0
2580,-1.08766,-0.0996164,-1.60739,0
2590,-1.08842,-0.0998018,-1.60899,0
2600,-1.08654,-0.100741,-1.60819,0
2610,-1.08822,-0.101268,-1.60656,0
2630,-1.09513,-0.10262,-1.602,0
2650,-1.0977,-0.10296,-1.60082,0
2670,-1.09953,-0.103007,-1.59828,0
2690,-1.10132,-0.10316,-1.59652,0
2710,-1.10214,-0.103601,-1.59654,0
2740,-1.09891,-0.105362,-1.59913,0
2750,-1.10035,-0.107459,-1.60196,0
2790,-1.13025,-0.135824,-1.61926,0
2810,-1.14634,-0.151069,-1.62913,0
2830,-1.16093,-0.171496,-1.63974,0
2850,-1.17486,-0.192356,-1.65073,0
2870,-1.18845,-0.214082,-1.66049,0
2890,-1.20048,-0.237398,-1.66873,0
2910,-1.21489,-0.261141,-1.67545,0
2930,-1.23141,-0.285252,-1.68116,0
2950,-1.25175,-0.309392,-1.68533,0
2970,-1.27226,-0.331979,-1.68874,0
2990,-1.29285,-0.354286,-1.69016,0
3010,-1.31285,-0.373607,-1.69007,0
3030,-1.33528,-0.389509,-1.69004,0
3050,-1.35738,-0.404279,-1.68863,0
3070,-1.37792,-0.416814,-1.68627,0
3090,-1.39719,-0.427659,-1.68394,0
3110,-1.41314,-0.437001,-1.6822,0
3130,-1.42578,-0.444062,-1.67972,0
3150,-1.43761,-0.449503,-1.67712,0
3170,-1.44913,-0.454389,-1.67498,0
3190,-1.46115,-0.458539,-1.67263,0
3210,-1.46968,-0.460765,-1.67099,0
3230,-1.47332,-0.461812,-1.66987,0
3250,-1.47156,-0.463598,-1.66922,0
3270,-1.46848,-0.465726,-1.66829,0
3290,-1.46463,-0.468056,-1.66648,0
3310,-1.45871,-0.470136,-1.66588,0
3330,-1.45226,-0.470472,-1.66465,0
3350,-1.44404,-0.468542,-1.66288,0
3370,-1.43675,-0.465213,-1.66195,0
3390,-1.43256,-0.460107,-1.6621,0
3410,-1.4293,-0.454352,-1.66204,0
3430,-1.42684,-0.448734,-1.66229,0
3450,-1.42342,-0.442288,-1.6635,0
3470,-1.41797,-0.436061,-1.66562,0
3490,-1.40964,-0.431095,-1.67019,0
3510,-1.40129,-0.427333,-1.67412,0
3530,-1.39701,-0.422825,-1.67501,0
3550,-1.3949,-0.417686,-1.67352,0
3570,-1.39146,-0.413904,-1.67325,0
3590,-1.38847,-0.412238,-1.67374,0
3610,-1.38631,-0.412089,-1.67552,0
3630,-1.38294,-0.412415,-1.6786,0
3650,-1.38059,-0.412391,-1.68037,0
3670,-1.38069,-0.411554,-1.67966,0
3690,-1.38052,-0.40981,-1.67891,0
3710,-1.37787,-0.407955,-1.67951,0
3730,-1.37679,-0.406191,-1.68071,0
3750,-1.37765,-0.404707,-1.68204,0
3770,-1.38009,-0.40356,-1.68262,0
3790,-1.38105,-0.402553,-1.6824,0
3800,-1.37956,-0.401625,-1.68258,0
3820,-1.37619,-0.400906,-1.68285,0
3840,-1.37107,-0.400579,-1.68366,0
3860,-1.36654,-0.400759,-1.68487,0
3880,-1.36443,-0.400183,-1.68468,0
3900,-1.36597,-0.399611,-1.68467,0
3920,-1.3691,-0.3992,-1.685,0
3940,-1.37241,-0.39883,-1.6849,0
3960,-1.37473,-0.398622,-1.68386,0
3980,-1.37668,-0.400283,-1.68288,0
4000,-1.37832,-0.401707,-1.68089,0
4020,-1.37798,-0.402703,-1.68014,0
4040,-1.37607,-0.403556,-1.68049,0
4060,-1.37423,-0.404145,-1.68085,0
4080,-1.37397,-0.404416,-1.68192,0
4100,-1.37495,-0.40525,-1.68279,0
4120,-1.3757,-0.406672,-1.68355,0
4140,-1.37606,-0.407455,-1.68394,0
4160,-1.37536,-0.408257,-1.6839,0
4180,-1.37404,-0.409362,-1.68349,0
4200,-1.37425,-0.411725,-1.68315,0
4220,-1.37523,-0.413734,-1.68285,0
4240,-1.37645,-0.415689,-1.68102,0
4260,-1.37748,-0.41784,-1.68062,0
4280,-1.37699,-0.420716,-1.68289,0
4300,-1.3788,-0.423483,-1.68454,0
4320,-1.38163,-0.423717,-1.68488,0
4340,-1.37982,-0.422799,-1.68542,0
4360,-1.37636,-0.422812,-1.68599,0
4380,-1.37468,-0.423077,-1.68647,0
4400,-1.37364,-0.42221,-1.68651,0
4420,-1.37531,-0.421047,-1.68483,0
4440,-1.3769,-0.421146,-1.68371,0
4460,-1.37576,-0.421406,-1.68376,0
4480,-1.37639,-0.422393,-1.68336,0
4500,-1.37862,-0.42331,-1.68272,0
4520,-1.38047,-0.423652,-1.68145,0
4540,-1.38135,-0.424244,-1.68086,0
4560,-1.38169,-0.424963,-1.68087,0
4580,-1.38226,-0.425498,-1.6811,0
4600,-1.38316,-0.425942,-1.68241,0
4620,-1.38362,-0.42608,-1.68308,0
4640,-1.38267,-0.425874,-1.68384,0
4660,-1.38106,-0.42535,-1.68404,0
4680,-1.37942,-0.424993,-1.68443,0
4700,-1.37891,-0.424902,-1.68549,0
4720,-1.37841,-0.424929,-1.6863,0
4740,-1.37797,-0.42512,-1.68717,0
4760,-1.37719,-0.42564,-1.68798,0
4780,-1.3757,-0.425418,-1.68772,0
4800,-1.37416,-0.424681,-1.68666,0
4820,-1.37295,-0.42533,-1.68623,0
4840,-1.37274,-0.427455,-1.68738,0
4860,-1.37581,-0.429659,-1.68727,0
4880,-1.37876,-0.431016,-1.68586,0
4900,-1.3814,-0.43115,-1.68495,0
4920,-1.38122,-0.431567,-1.68423,0
4940,-1.38168,-0.431804,-1.68298,0
4960,-1.38247,-0.432475,-1.6831,0
4980,-1.38203,-0.432405,-1.68281,0
5000,-1.38053,-0.430609,-1.68362,0
5020,-1.37754,-0.427753,-1.68465,0
5040,-1.37491,-0.426148,-1.6847,0
5060,-1.37125,-0.423613,-1.68397,0
5080,-1.36658,-0.421246,-1.68338,0
5100,-1.36146,-0.420103,-1.6849,0
5120,-1.35798,-0.420444,-1.68694,0
5140,-1.35931,-0.419929,-1.6888,0
5160,-1.36174,-0.419307,-1.69042,0
5180,-1.36232,-0.418738,-1.69134,0
5200,-1.36232,-0.418738,-1.69134,0
5220,-1.36054,-0.417637,-1.69089,0
5240,-1.3583,-0.417881,-1.69,0
5260,-1.35857,-0.41857,-1.68884,0
5280,-1.35868,-0.418454,-1.68812,0
5300,-1.35859,-0.417745,-1.68802,0
5320,-1.35885,-0.417778,-1.6881,0
5340,-1.35935,-0.417812,-1.68832,0
5360,-1.35955,-0.41727,-1.68886,0
5380,-1.35996,-0.416548,-1.6894,0
5400,-1.35941,-0.415774,-1.68945,0
5420,-1.35841,-0.414274,-1.68902,0
5440,-1.35786,-0.4135,-1.68907,0
5460,-1.3572,-0.413242,-1.68996,0
5480,-1.35765,-0.412654,-1.69106,0
5500,-1.35891,-0.412041,-1.69201,0
5520,-1.36103,-0.411382,-1.69296,0
5540,-1.36289,-0.410977,-1.69378,0
5560,-1.36356,-0.410576,-1.69435,0
5580,-1.36234,-0.409841,-1.69437,0
5600,-1.35995,-0.408153,-1.69443,0
5620,-1.35787,-0.407239,-1.69388,0
5640,-1.35618,-0.406416,-1.69388,0
5660,-1.35471,-0.405191,-1.6929,0
5680,-1.35318,-0.40386,-1.69308,0
5700,-1.35101,-0.402118,-1.69332,0
5720,-1.34815,-0.400394,-1.69381,0
5740,-1.34798,-0.399778,-1.69314,0
5760,-1.34759,-0.398907,-1.69285,0
5780,-1.34684,-0.397938,-1.69407,0
5800,-1.34643,-0.396983,-1.69467,0
5820,-1.34657,-0.395164,-1.69402,0
5840,-1.34709,-0.393794,-1.69339,0
5860,-1.34642,-0.392585,-1.69334,0
5880,-1.34592,-0.391535,-1.69303,0
5900,-1.34568,-0.389987,-1.69193,0
5920,-1.34509,-0.388831,-1.69135,0
5940,-1.3437,-0.388224,-1.692,0
5960,-1.34099,-0.387575,-1.69304,0
5980,-1.33865,-0.386487,-1.69356,0
6000,-1.33804,-0.38613,-1.69442,0
6020,-1.33644,-0.3865,-1.69608,0
6040,-1.33639,-0.387268,-1.6978,0
6060,-1.33599,-0.387432,-1.69888,0
6080,-1.33475,-0.387372,-1.6998,0
6100,-1.33261,-0.386612,-1.70062,0
6120,-1.33036,-0.38657,-1.70134,0
6140,-1.33032,-0.38696,-1.70188,0
6160,-1.33242,-0.38726,-1.70169,0
6180,-1.33554,-0.387663,-1.70147,0
6200,-1.33746,-0.387615,-1.70163,0
6220,-1.33746,-0.387615,-1.70163,0
6240,-1.33594,-0.38795,-1.70131,0
6260,-1.33362,-0.387409,-1.70121,0
6280,-1.33155,-0.385894,-1.70282,0
6300,-1.32999,-0.384288,-1.70488,0
6320,-1.32843,-0.382469,-1.70596,0
6340,-1.32567,-0.379615,-1.70616,0
6360,-1.32134,-0.376787,-1.70728,0
6380,-1.31754,-0.374473,-1.70906,0
6400,-1.31501,-0.372989,-1.71109,0
6420,-1.31526,-0.37092,-1.71215,0
6440,-1.31552,-0.369476,-1.71276,0
6460,-1.31229,-0.367522,-1.71159,0
6480,-1.30664,-0.36465,-1.71024,0
6500,-1.30128,-0.362971,-1.71027,0
6520,-1.29834,-0.362863,-1.71069,0
6540,-1.29934,-0.363264,-1.71074,0
6560,-1.30286,-0.362151,-1.7113,0
6580,-1.30545,-0.360599,-1.71217,0
6600,-1.30577,-0.359652,-1.71189,0
6620,-1.30443,-0.358458,-1.71021,0
6640,-1.30222,-0.356438,-1.70909,0
6660,-1.30052,-0.355482,-1.7093,0
6680,-1.30134,-0.355976,-1.7104,0
6700,-1.30327,-0.356228,-1.71102,0
6720,-1.30425,-0.356776,-1.71169,0
6740,-1.30198,-0.357611,-1.71323,0
6760,-1.3,-0.358628,-1.71435,0
6780,-1.29822,-0.360102,-1.7161,0
6800,-1.29708,-0.36158,-1.7179,0
6820,-1.29435,-0.362231,-1.72099,0
6840,-1.28987,-0.360998,-1.72619,0
6860,-1.28343,-0.357562,-1.73248,0
6880,-1.27489,-0.351043,-1.73805,0
6900,-1.26376,-0.339623,-1.74045,0
6920,-1.2507,-0.319984,-1.73762,0
6940,-1.23819,-0.290856,-1.72888,0
6960,-1.22526,-0.255688,-1.71819,0
6980,-1.21147,-0.217751,-1.71089,0
7000,-1.20065,-0.178657,-1.70723,0
7020,-1.19274,-0.138485,-1.70518,0
7040,-1.18537,-0.0973626,-1.70178,0
7060,-1.17703,-0.0562508,-1.69704,0
7080,-1.17284,-0.0179674,-1.69094,0
7100,-1.17104,0.0129333,-1.68812,0
7120,-1.17347,0.0264603,-1.69031,0
7150,-1.14795,0.0445537,-1.68965,0
7170,-1.13185,0.0507024,-1.68256,0
7190,-1.12297,0.054492,-1.67649,0
7210,-1.11815,0.0600428,-1.66994,0
7230,-1.11634,0.0645611,-1.66335,0
7240,-1.11707,0.0695434,-1.65639,0
7270,-1.12868,0.0896943,-1.63784,0
7290,-1.13069,0.0968191,-1.63396,0
7310,-1.12997,0.102285,-1.63172,0
7330,-1.12783,0.10558,-1.63038,0
7350,-1.12377,0.10717,-1.62968,0
7370,-1.11807,0.107343,-1.62944,0
7390,-1.1113,0.106797,-1.63047,0
7410,-1.10415,0.104888,-1.63304,0
7430,-1.09653,0.102008,-1.63579,0
7450,-1.08933,0.0993853,-1.63915,0
7470,-1.08242,0.0963775,-1.64271,0
7490,-1.07717,0.0933945,-1.64663,0
7510,-1.07413,0.0913981,-1.65106,0
7550,-1.06862,0.0882151,-1.65742,0
7580,-1.0624,0.0886055,-1.66246,0
7610,-1.06008,0.0899922,-1.66649,0
7640,-1.06347,0.0925712,-1.66915,0
7670,-1.0653,0.0962189,-1.66444,0
7690,-1.06562,0.100012,-1.6609,0
7710,-1.0666,0.102642,-1.65811,0
7730,-1.07218,0.105156,-1.65658,0
7760,-1.07377,0.107393,-1.65659,0
7780,-1.07302,0.108278,-1.65765,0
7800,-1.07216,0.107414,-1.65922,0
7820,-1.06998,0.105342,-1.66027,0
7840,-1.06811,0.103421,-1.66123,0
7880,-1.06837,0.102262,-1.66436,0
7900,-1.07697,0.102091,-1.66791,0
7920,-1.08558,0.103085,-1.66872,0
7940,-1.09694,0.103721,-1.66959,0
7960,-1.11199,0.103527,-1.66896,0
7980,-1.12927,0.101228,-1.66678,0
8000,-1.1491,0.0927246,-1.66407,0
8020,-1.16752,0.0772263,-1.66327,0
8040,-1.18405,0.0607572,-1.66196,0
8060,-1.19568,0.0395921,-1.65846,0
8100,-1.19742,-0.00771691,-1.6494,0
8120,-1.2058,-0.0267636,-1.6431,0
8140,-1.22182,-0.0488855,-1.63684,0
8160,-1.24292,-0.0719372,-1.63183,0
8180,-1.26502,-0.0942614,-1.62817,0
8200,-1.2834,-0.115226,-1.62304,0
8220,-1.29737,-0.134073,-1.6157,0
8240,-1.30622,-0.150669,-1.6078,0
8260,-1.31172,-0.166434,-1.60139,0
8280,-1.31611,-0.18048,-1.59639,0
8300,-1.32235,-0.192885,-1.59269,0
8320,-1.33167,-0.203287,-1.58872,0
8340,-1.34316,-0.211855,-1.58746,0
8360,-1.35344,-0.217957,-1.58852,0
8380,-1.36419,-0.222358,-1.58739,0
8400,-1.37207,-0.225196,-1.58398,0
8420,-1.37587,-0.228465,-1.58068,0
8440,-1.37651,-0.231435,-1.57737,0
8460,-1.37664,-0.234582,-1.573,0
8480,-1.38042,-0.23727,-1.56729,0
8500,-1.38555,-0.239291,-1.562,0
8520,-1.38978,-0.240866,-1.55756,0
8540,-1.39184,-0.241684,-1.55354,0
8560,-1.3928,-0.240352,-1.55015,0
8580,-1.39452,-0.237946,-1.54714,0
8600,-1.39607,-0.23609,-1.54391,0
8620,-1.40044,-0.236372,-1.54033,0
8640,-1.40789,-0.238232,-1.53717,0
8660,-1.4145,-0.239706,-1.53436,0
8680,-1.4225,-0.241362,-1.53002,0
8700,-1.4327,-0.242959,-1.52575,0
8720,-1.44348,-0.244791,-1.52372,0
8740,-1.45311,-0.247242,-1.52448,0
8760,-1.46116,-0.248812,-1.52486,0
8780,-1.46718,-0.25034,-1.52432,0
8800,-1.4697,-0.25096,-1.52279,0
8820,-1.47045,-0.251088,-1.521,0
8840,-1.47038,-0.250676,-1.51951,0
8860,-1.47046,-0.249609,-1.51872,0
8880,-1.47236,-0.248992,-1.51877,0
8900,-1.47402,-0.248048,-1.51941,0
8920,-1.47541,-0.24639,-1.51949,0
8940,-1.47437,-0.243574,-1.52005,0
8960,-1.47323,-0.240395,-1.51994,0
8980,-1.47222,-0.238736,-1.52056,0
9000,-1.47271,-0.238654,-1.52203,0
9020,-1.47531,-0.238444,-1.52336,0
9040,-1.47823,-0.237399,-1.52415,0
9060,-1.48139,-0.235831,-1.52518,0
9080,-1.48463,-0.234503,-1.52698,0
9100,-1.48702,-0.232258,-1.52877,0
9120,-1.48773,-0.228657,-1.53076,0
9140,-1.4865,-0.224721,-1.53275,0
9150,-1.48491,-0.221238,-1.53452,0
9170,-1.48469,-0.218215,-1.53627,0
9190,-1.48437,-0.216356,-1.53796,0
9210,-1.48497,-0.214929,-1.53947,0
9230,-1.4851,-0.213159,-1.54064,0
9250,-1.48487,-0.211901,-1.54133,0
9270,-1.48337,-0.210277,-1.54252,0
9290,-1.48213,-0.2082,-1.54409,0
9310,-1.48341,-0.206334,-1.54557,0
9330,-1.48411,-0.203961,-1.54755,0
9350,-1.48426,-0.201328,-1.55005,0
9370,-1.4828,-0.19763,-1.55362,0
9390,-1.47942,-0.192972,-1.5567,0
9410,-1.47772,-0.189523,-1.55877,0
9430,-1.47666,-0.186085,-1.56038,0
9450,-1.4766,-0.183013,-1.56179,0
9470,-1.47648,-0.180431,-1.56303,0
9490,-1.4754,-0.178017,-1.5637,0
9510,-1.4733,-0.175867,-1.56297,0
9530,-1.4706,-0.173477,-1.56095,0
9550,-1.46854,-0.17164,-1.55879,0
9570,-1.46801,-0.170444,-1.55712,0
9590,-1.46874,-0.169227,-1.55577,0
9610,-1.46975,-0.166855,-1.55399,0
9630,-1.46932,-0.16277,-1.55229,2000
9650,-1.46844,-0.159227,-1.55097,0
9670,-1.46882,-0.156716,-1.54976,0
9690,-1.47005,-0.154211,-1.54809,0
9710,-1.4711,-0.151612,-1.5469,0
9730,-1.47241,-0.149499,-1.54613,0
9750,-1.47448,-0.147983,-1.54509,0
9770,-1.47485,-0.147048,-1.54384,0
9790,-1.4739,-0.147121,-1.54289,0
9810,-1.47293,-0.147769,-1.54248,0
9830,-1.47202,-0.14826,-1.54397,0
9850,-1.47301,-0.148375,-1.54602,0
9870,-1.47531,-0.147198,-1.54827,0
9890,-1.47657,-0.145568,-1.54986,0
9910,-1.47615,-0.144007,-1.55082,0
9930,-1.47375,-0.14229,-1.55112,0
9950,-1.47234,-0.140359,-1.55107,0
9970,-1.47319,-0.13943,-1.5499,0
9990,-1.47578,-0.139652,-1.54829,0
10010,-1.47809,-0.140555,-1.54656,0
10030,-1.47998,-0.141719,-1.54467,0
10050,-1.48082,-0.142607,-1.54238,0
10070,-1.47977,-0.14322,-1.54017,0
10090,-1.47929,-0.143285,-1.53771,0
10110,-1.47928,-0.143161,-1.53492,0
10130,-1.47843,-0.143286,-1.53157,0
10150,-1.47722,-0.143996,-1.52747,0
10170,-1.47637,-0.145467,-1.52297,0
10190,-1.47565,-0.147757,-1.51809,0
10210,-1.47516,-0.150313,-1.5125,0
10230,-1.4757,-0.152695,-1.50619,0
10250,-1.47605,-0.154671,-1.49941,0
10270,-1.47623,-0.157484,-1.49218,0
10290,-1.47566,-0.161261,-1.48472,0
10310,-1.47553,-0.165036,-1.47713,0
10330,-1.47643,-0.168677,-1.47,0
10350,-1.47707,-0.172238,-1.46326,0
10370,-1.47851,-0.176452,-1.45606,0
10390,-1.48035,-0.181249,-1.44867,0
10410,-1.4815,-0.186095,-1.44256,0
10430,-1.48041,-0.190098,-1.4369,0
10450,-1.48121,-0.194564,-1.43037,0
10470,-1.48383,-0.199644,-1.42424,0
10490,-1.48592,-0.204932,-1.41984,0
10510,-1.48698,-0.210301,-1.41574,0
10530,-1.48671,-0.215716,-1.41138,0
10550,-1.48543,-0.222037,-1.40786,0
10570,-1.48376,-0.228671,-1.40642,0
10590,-1.48216,-0.234234,-1.40553,0
10610,-1.48088,-0.239742,-1.40356,0
10630,-1.47986,-0.245847,-1.40237,0
10650,-1.47774,-0.251281,-1.40252,0
10670,-1.47626,-0.255359,-1.4017,0
10690,-1.4762,-0.259569,-1.39916,0
10710,-1.47517,-0.264964,-1.39772,0
10730,-1.47316,-0.269608,-1.39732,0
10750,-1.47191,-0.272259,-1.39651,0
10770,-1.47053,-0.275912,-1.39452,0
10790,-1.46763,-0.281303,-1.39235,0
10810,-1.4641,-0.287413,-1.39212,0
10830,-1.46123,-0.292419,-1.39263,0
10850,-1.46138,-0.296624,-1.39346,0
10870,-1.46219,-0.301437,-1.39565,0
10890,-1.46239,-0.307079,-1.40071,0
10910,-1.46097,-0.311778,-1.40847,0
10930,-1.4587,-0.314743,-1.41624,0
10950,-1.45639,-0.317942,-1.42385,0
10970,-1.45187,-0.321782,-1.43268,0
10990,-1.4447,-0.325386,-1.44292,0
11010,-1.43848,-0.328987,-1.45317,0
11030,-1.43546,-0.332897,-1.46224,0
11050,-1.4326,-0.338221,-1.47188,0
11070,-1.42883,-0.344672,-1.48209,0
11090,-1.42468,-0.350322,-1.49263,0
11110,-1.42129,-0.356151,-1.50209,0
11130,-1.41827,-0.363799,-1.51078,0
11150,-1.41473,-0.372173,-1.51975,0
11170,-1.41147,-0.380078,-1.52974,0
11190,-1.40855,-0.387732,-1.5399,0
11210,-1.40627,-0.395203,-1.54897,0
11230,-1.40329,-0.402589,-1.55856,0
11250,-1.39968,-0.409766,-1.56937,0
11270,-1.39576,-0.416781,-1.58067,0
11290,-1.39158,-0.423912,-1.59237,0
11310,-1.38775,-0.43099,-1.60269,0
11330,-1.38426,-0.438849,-1.61237,0
11350,-1.38098,-0.446951,-1.62246,0
11370,-1.37773,-0.454099,-1.63323,0
11390,-1.37394,-0.4602,-1.64377,0
11410,-1.37195,-0.466025,-1.65416,0
11430,-1.37038,-0.471491,-1.66523,0
11450,-1.36857,-0.475973,-1.67692,0
11470,-1.36586,-0.480225,-1.68945,0
11490,-1.3622,-0.484431,-1.70268,0
11510,-1.35816,-0.488411,-1.71595,0
11530,-1.35324,-0.492953,-1.7295,0
11550,-1.348,-0.497634,-1.74296,0
11570,-1.34277,-0.502176,-1.75638,0
11590,-1.33753,-0.507698,-1.76912,0
11610,-1.33293,-0.513027,-1.78056,0
11630,-1.32871,-0.518027,-1.79171,0
11650,-1.32387,-0.52253,-1.80412,0
11670,-1.31951,-0.526331,-1.81711,0
11690,-1.31677,-0.529131,-1.82995,0
11710,-1.31531,-0.530491,-1.84271,0
11730,-1.31261,-0.530042,-1.85566,0
11750,-1.3071,-0.529558,-1.86903,0
11770,-1.30064,-0.529263,-1.88215,0
11790,-1.29524,-0.529581,-1.89506,0
11810,-1.29107,-0.530148,-1.90811,0
11830,-1.28858,-0.530343,-1.92033,0
11850,-1.2854,-0.530731,-1.93291,0
11870,-1.28211,-0.530496,-1.94472,0
11890,-1.27825,-0.530195,-1.95699,0
11910,-1.27332,-0.528924,-1.97014,0
11930,-1.27026,-0.525633,-1.98268,0
11950,-1.26984,-0.521087,-1.99295,0
11970,-1.27007,-0.516493,-2.00155,0
11990,-1.26934,-0.512361,-2.00965,0
12010,-1.26795,-0.50857,-2.01767,0
12030,-1.26849,-0.50426,-2.02533,0
12050,-1.27027,-0.496305,-2.03363,0
12070,-1.26964,-0.488404,-2.04415,0
12090,-1.2677,-0.481476,-2.0525,0
12110,-1.26583,-0.475861,-2.05813,0
12130,-1.26225,-0.471657,-2.06368,0
12150,-1.25815,-0.468186,-2.06776,0
12170,-1.25489,-0.465793,-2.07069,0
12190,-1.2527,-0.463525,-2.07335,0
12210,-1.25104,-0.460381,-2.0765,0
12230,-1.25042,-0.456264,-2.08045,0
12250,-1.25155,-0.451351,-2.08437,0
12270,-1.25317,-0.445689,-2.08836,0
12290,-1.25356,-0.439481,-2.09239,0
12310,-1.25293,-0.432688,-2.0966,0
12330,-1.2524,-0.424575,-2.09966,0
12350,-1.2519,-0.415729,-2.10091,0
12370,-1.2508,-0.407789,-2.10168,0
12390,-1.25023,-0.40123,-2.10247,0
12410,-1.2517,-0.395414,-2.10406,0
12430,-1.25456,-0.388929,-2.10527,0
12450,-1.25834,-0.382673,-2.10658,0
12470,-1.26128,-0.37706,-2.10806,0
12490,-1.26379,-0.371847,-2.10917,0
12510,-1.26571,-0.366644,-2.1101,0
12530,-1.26673,-0.3615,-2.11088,0
12550,-1.26835,-0.356951,-2.11122,0
12570,-1.27092,-0.352391,-2.11082,0
12590,-1.27151,-0.347529,-2.11051,0
12600,-1.2713,-0.343467,-2.11002,0
12620,-1.27328,-0.340155,-2.10825,0
12640,-1.27603,-0.33703,-2.10593,0
12660,-1.27932,-0.333994,-2.10276,0
12680,-1.28269,-0.331465,-2.09866,0
12700,-1.28586,-0.328907,-2.09426,0
12720,-1.28828,-0.325603,-2.08959,0
12740,-1.29035,-0.3224,-2.08565,0
12760,-1.29361,-0.319096,-2.08168,0
12780,-1.29751,-0.315999,-2.07712,0
12800,-1.3002,-0.31307,-2.07246,0
12820,-1.30134,-0.310405,-2.06798,0
12840,-1.30175,-0.307827,-2.06355,0
12860,-1.30319,-0.304942,-2.06009,0
12880,-1.30658,-0.300465,-2.05635,0
12900,-1.31155,-0.295061,-2.05195,0
12920,-1.31703,-0.289035,-2.04638,0
12940,-1.32228,-0.282716,-2.04058,0
12960,-1.32735,-0.277007,-2.03529,0
12980,-1.33087,-0.272431,-2.03068,0
13000,-1.33476,-0.268556,-2.02623,0
13020,-1.33888,-0.264736,-2.0216,0
13040,-1.34218,-0.261601,-2.01652,0
13060,-1.34433,-0.259127,-2.01124,0
13080,-1.34686,-0.257143,-2.00556,0
13100,-1.35009,-0.255166,-1.99988,0
13120,-1.35332,-0.253287,-1.99441,0
13140,-1.35665,-0.251602,-1.98901,0
13160,-1.35987,-0.249929,-1.98384,0
13180,-1.36188,-0.247678,-1.97886,0
13200,-1.36321,-0.245115,-1.97371,0
13220,-1.36518,-0.242964,-1.96806,0
13240,-1.3663,-0.241362,-1.96298,0
13260,-1.36728,-0.23999,-1.95786,0
13280,-1.36939,-0.238797,-1.95222,0
13300,-1.37273,-0.238044,-1.94609,0
13320,-1.37614,-0.237855,-1.93997,0
13340,-1.37831,-0.237659,-1.93419,0
13360,-1.38112,-0.237673,-1.92777,0
13380,-1.38512,-0.238102,-1.92161,0
13400,-1.38824,-0.23792,-1.91555,0
13420,-1.39009,-0.237724,-1.90923,0
13440,-1.3916,-0.237344,-1.90285,0
13460,-1.39439,-0.237401,-1.89657,0
13480,-1.39848,-0.237582,-1.8902,0
13500,-1.40201,-0.23763,-1.88425,0
13520,-1.40465,-0.237117,-1.87796,0
13540,-1.40777,-0.236504,-1.87114,0
13560,-1.41031,-0.236046,-1.86424,0
13580,-1.41201,-0.236296,-1.857,0
13600,-1.41445,-0.236332,-1.84959,0
13620,-1.41786,-0.23612,-1.84194,0
13640,-1.42141,-0.235912,-1.83417,0
13660,-1.42511,-0.235474,-1.82594,0
13680,-1.42992,-0.233801,-1.81726,0
13700,-1.43654,-0.231031,-1.80777,0
13720,-1.44381,-0.227671,-1.79702,0
13740,-1.45229,-0.222977,-1.78552,0
13760,-1.4621,-0.218544,-1.77358,0
13780,-1.47171,-0.216333,-1.76199,0
13800,-1.4791,-0.214309,-1.75108,0
13820,-1.48701,-0.212273,-1.73954,0
13840,-1.4944,-0.211236,-1.72795,0
13860,-1.5008,-0.211286,-1.7164,0
13880,-1.50596,-0.211081,-1.70455,0
13900,-1.51002,-0.21114,-1.6922,0
13920,-1.515,-0.211813,-1.68029,0
13940,-1.52025,-0.212067,-1.66862,0
13960,-1.52487,-0.211829,-1.65642,0
13980,-1.5295,-0.212402,-1.64389,0
14000,-1.53294,-0.214121,-1.63202,0
14020,-1.53677,-0.216367,-1.61985,0
14040,-1.54159,-0.218959,-1.60755,0
14060,-1.54535,-0.221602,-1.59608,0
14080,-1.54747,-0.224136,-1.58498,0
14100,-1.55047,-0.22679,-1.57349,0
14120,-1.55442,-0.229706,-1.5622,0
14140,-1.55742,-0.232669,-1.55172,0
14160,-1.55963,-0.235844,-1.5415,0
14180,-1.56317,-0.238621,-1.53174,0
14200,-1.56654,-0.241233,-1.5226,0
14220,-1.56909,-0.243798,-1.51372,0
14240,-1.57094,-0.246238,-1.50411,0
14260,-1.57406,-0.249116,-1.49359,0
14280,-1.57538,-0.252607,-1.48401,0
14300,-1.5757,-0.255896,-1.47481,0
14320,-1.57805,-0.258517,-1.46495,0
14340,-1.58133,-0.261686,-1.45506,0
14360,-1.5828,-0.265144,-1.44642,0
14380,-1.58344,-0.267824,-1.43768,0
14400,-1.58659,-0.269934,-1.42863,0
14420,-1.59007,-0.272842,-1.41963,0
14440,-1.59228,-0.276265,-1.4111,0
14460,-1.59329,-0.279827,-1.40173,0
14480,-1.59472,-0.285036,-1.3915,0
14500,-1.5955,-0.2919,-1.38247,0
14520,-1.59601,-0.2989,-1.37584,0
14540,-1.59851,-0.305554,-1.3691,0
14560,-1.60062,-0.312926,-1.36206,0
14580,-1.59888,-0.321701,-1.35635,0
14600,-1.59516,-0.330896,-1.3524,0
14610,-1.59245,-0.338801,-1.34908,0
14630,-1.59177,-0.34652,-1.34615,0
14650,-1.59235,-0.354342,-1.34382,0
14670,-1.59129,-0.36209,-1.34382,0
14690,-1.58873,-0.368971,-1.34555,0
14710,-1.58874,-0.373887,-1.34668,0
14730,-1.59046,-0.378501,-1.34804,0
14750,-1.58722,-0.385111,-1.35185,0
14770,-1.58146,-0.392673,-1.35774,0
14790,-1.57949,-0.39834,-1.36141,0
14810,-1.58215,-0.404468,-1.3632,0
14830,-1.58091,-0.413259,-1.36765,0
14850,-1.57526,-0.423356,-1.37407,0
14870,-1.57412,-0.431497,-1.37841,0
14890,-1.5775,-0.439071,-1.38012,0
14910,-1.57809,-0.447885,-1.38356,0
14930,-1.57499,-0.457511,-1.38897,0
14950,-1.57215,-0.46568,-1.39331,0
14970,-1.57302,-0.472177,-1.39556,0
14990,-1.57286,-0.479133,-1.39923,0
15010,-1.56974,-0.485246,-1.40461,0
15030,-1.56703,-0.4897,-1.4087,0
15050,-1.5673,-0.493786,-1.41079,0
15070,-1.56459,-0.500266,-1.4157,0
15090,-1.56027,-0.508497,-1.42349,0
15110,-1.55803,-0.516337,-1.431,0
15130,-1.55968,-0.524379,-1.4366,0
15150,-1.55949,-0.534269,-1.44251,0
15170,-1.55485,-0.545419,-1.44957,0
15190,-1.5509,-0.556221,-1.45651,0
15210,-1.54951,-0.565816,-1.46275,0
15230,-1.54908,-0.574567,-1.47011,0
15250,-1.54537,-0.584232,-1.47846,0
15270,-1.54127,-0.593955,-1.48644,0
15290,-1.53908,-0.602576,-1.49587,0
15310,-1.53642,-0.610368,-1.50802,0
15330,-1.53242,-0.61708,-1.52076,0
15350,-1.5284,-0.623376,-1.53351,0
15370,-1.52303,-0.630552,-1.54742,0
15390,-1.51641,-0.636923,-1.56205,0
15410,-1.51071,-0.642501,-1.57665,0
15430,-1.50392,-0.64829,-1.59238,0
15450,-1.49604,-0.654951,-1.60816,0
15470,-1.48964,-0.659551,-1.62253,0
15490,-1.48367,-0.661566,-1.63674,0
15510,-1.47896,-0.662337,-1.6505,0
15530,-1.47359,-0.663651,-1.66336,0
15550,-1.46732,-0.665702,-1.67656,0
15570,-1.46158,-0.667652,-1.68993,0
15590,-1.45659,-0.668905,-1.70238,0
15610,-1.45245,-0.670945,-1.71379,0
15630,-1.44751,-0.674407,-1.72564,0
15650,-1.44202,-0.679009,-1.73807,0
15670,-1.4371,-0.683404,-1.7504,0
15690,-1.43286,-0.686914,-1.7627,0
15710,-1.42685,-0.690832,-1.77637,0
15730,-1.41979,-0.694557,-1.79056,0
15750,-1.41293,-0.69764,-1.80491,0
15770,-1.40525,-0.69962,-1.82038,0
15790,-1.39711,-0.701438,-1.83596,0
15810,-1.39083,-0.702976,-1.84937,0
15830,-1.38637,-0.70506,-1.8616,0
15850,-1.38108,-0.707403,-1.87434,0
15870,-1.37618,-0.709532,-1.88719,0
15890,-1.37242,-0.709457,-1.89843,0
15910,-1.36924,-0.70834,-1.90978,0
15930,-1.36478,-0.707245,-1.92092,0
15950,-1.36084,-0.706275,-1.93102,0
15970,-1.35777,-0.705631,-1.9411,0
15990,-1.3532,-0.704453,-1.95228,0
16010,-1.34833,-0.702916,-1.96378,0
16030,-1.34439,-0.701466,-1.97415,0
16050,-1.34023,-0.700777,-1.98438,0
16070,-1.3349,-0.699375,-1.99451,0
16090,-1.32973,-0.696845,-2.00452,0
16110,-1.32456,-0.695189,-2.01402,0
16130,-1.31987,-0.694549,-2.0214,0
16150,-1.31671,-0.694288,-2.02646,0
16170,-1.31359,-0.692715,-2.03164,0
16190,-1.30949,-0.689849,-2.03846,0
16210,-1.30672,-0.685808,-2.04497,0
16230,-1.30714,-0.680472,-2.04995,0
16250,-1.30923,-0.674968,-2.05462,0
16270,-1.31105,-0.668499,-2.05901,0
16290,-1.31167,-0.660036,-2.06295,0
16310,-1.31156,-0.650869,-2.0669,0
16330,-1.30972,-0.642345,-2.07138,0
16350,-1.30779,-0.634314,-2.07643,0
16370,-1.30551,-0.626044,-2.08173,0
16390,-1.30283,-0.617947,-2.08691,0
16410,-1.29992,-0.611318,-2.0928,0
16430,-1.2973,-0.605546,-2.09833,0
16450,-1.29487,-0.59904,-2.10315,0
16470,-1.29128,-0.592867,-2.10897,0
16490,-1.28558,-0.587369,-2.11513,0
16510,-1.28068,-0.582036,-2.12,0
16530,-1.27735,-0.576484,-2.12311,0
16550,-1.27248,-0.570514,-2.12691,0
16570,-1.2667,-0.564792,-2.13047,0
16590,-1.26373,-0.560017,-2.13201,0
16610,-1.26447,-0.55627,-2.13295,0
16630,-1.26602,-0.55227,-2.13455,0
16650,-1.26795,-0.546929,-2.13653,0
16670,-1.2689,-0.541533,-2.1387,0
16690,-1.27106,-0.536618,-2.13962,0
16710,-1.27355,-0.5311,-2.13975,0
16730,-1.27522,-0.525131,-2.13958,0
16750,-1.27622,-0.519992,-2.13971,0
16770,-1.27801,-0.515955,-2.13956,0
16790,-1.28052,-0.51176,-2.13956,0
16810,-1.28214,-0.506836,-2.14009,0
16830,-1.28348,-0.50339,-2.13959,0
16850,-1.28538,-0.501411,-2.13751,0
16870,-1.2867,-0.499018,-2.13535,0
16890,-1.28846,-0.495748,-2.13303,0
16910,-1.29173,-0.492559,-2.13034,0
16930,-1.29581,-0.48923,-2.12882,0
16950,-1.29964,-0.484617,-2.12762,0
16970,-1.30245,-0.479424,-2.12527,0
16990,-1.30582,-0.475127,-2.12174,0
17010,-1.30757,-0.470809,-2.11833,0
17030,-1.30788,-0.466252,-2.11524,0
17050,-1.30882,-0.461374,-2.11144,0
17070,-1.31091,-0.457538,-2.10732,0
17090,-1.31342,-0.454178,-2.10362,0
17110,-1.31693,-0.45022,-2.09962,0
17130,-1.32267,-0.446004,-2.09474,0
17150,-1.32763,-0.44216,-2.09026,0
17170,-1.32981,-0.437833,-2.08592,0
17190,-1.33321,-0.435056,-2.08033,0
17210,-1.33688,-0.433227,-2.07512,0
17230,-1.33874,-0.43067,-2.07053,0
17250,-1.34101,-0.427895,-2.06569,0
17270,-1.34359,-0.425852,-2.06072,0
17290,-1.34553,-0.42407,-2.05536,0
17310,-1.34777,-0.421945,-2.04924,0
17330,-1.34968,-0.418963,-2.0431,0
17350,-1.35401,-0.416498,-2.03598,0
17370,-1.35869,-0.414056,-2.02945,0
17390,-1.36217,-0.411018,-2.02301,0
17410,-1.36785,-0.408292,-2.01548,0
17430,-1.37328,-0.405636,-2.00765,0
17450,-1.37687,-0.403341,-2.00021,0
17470,-1.37911,-0.40142,-1.99264,0
17490,-1.38185,-0.399826,-1.98415,0
17510,-1.38595,-0.398375,-1.97516,0
17530,-1.39214,-0.397008,-1.96529,0
17550,-1.39821,-0.396137,-1.95573,0
17570,-1.40359,-0.394519,-1.94649,0
17590,-1.41172,-0.391929,-1.93583,0
17610,-1.42332,-0.388357,-1.92439,0
17630,-1.43491,-0.384412,-1.91378,0
17650,-1.44498,-0.380612,-1.90417,0
17670,-1.456,-0.377489,-1.8939,0
17690,-1.46787,-0.374656,-1.88341,0
17710,-1.47679,-0.371795,-1.87425,0
17730,-1.4844,-0.36964,-1.86472,0
17750,-1.49193,-0.367868,-1.85483,0
17770,-1.5,-0.366672,-1.84523,0
17790,-1.50668,-0.365851,-1.83687,0
17810,-1.51254,-0.365267,-1.82825,0
17830,-1.51965,-0.365733,-1.81898,0
17850,-1.52668,-0.366258,-1.80996,0
17870,-1.53157,-0.366683,-1.8017,0
17890,-1.53519,-0.367499,-1.79286,0
17910,-1.54038,-0.367886,-1.78337,0
17930,-1.5464,-0.367767,-1.77462,0
17950,-1.55119,-0.367359,-1.76569,0
17970,-1.55604,-0.367719,-1.75588,0
17990,-1.5624,-0.368299,-1.74561,0
18010,-1.56929,-0.368757,-1.7357,0
18030,-1.57415,-0.368995,-1.72604,0
18050,-1.57848,-0.369568,-1.71513,0
18060,-1.58505,-0.370534,-1.70464,0
18080,-1.59127,-0.371174,-1.69499,0
18100,-1.59637,-0.37134,-1.68525,0
18120,-1.60241,-0.37071,-1.67366,0
18140,-1.60877,-0.370662,-1.66182,0
18160,-1.6109,-0.371776,-1.65098,0
18180,-1.61205,-0.372755,-1.64007,0
18200,-1.61559,-0.373348,-1.62953,0
18220,-1.62087,-0.374077,-1.61903,0
18240,-1.62679,-0.376095,-1.60883,0
18260,-1.63256,-0.37895,-1.59873,0
18280,-1.63874,-0.381609,-1.58805,0
18300,-1.64464,-0.384249,-1.57669,0
18320,-1.64816,-0.388121,-1.56484,0
18340,-1.65098,-0.392966,-1.55304,0
18360,-1.65455,-0.397904,-1.54094,0
18380,-1.65786,-0.402815,-1.52892,0
18400,-1.66129,-0.408436,-1.5173,0
18420,-1.66508,-0.414526,-1.50585,0
18440,-1.66999,-0.42073,-1.49535,0
18460,-1.6742,-0.426767,-1.48592,0
18480,-1.67891,-0.43218,-1.47649,0
18500,-1.68451,-0.437816,-1.46583,0
18520,-1.68839,-0.443882,-1.45629,0
18540,-1.69112,-0.450456,-1.44797,0
18560,-1.69587,-0.456875,-1.43897,0
18580,-1.70118,-0.463291,-1.4302,0
18600,-1.70481,-0.469949,-1.42367,0
18620,-1.70783,-0.475956,-1.4186,0
18640,-1.71262,-0.481915,-1.4132,0
18660,-1.7176,-0.488165,-1.40694,0
18680,-1.71979,-0.493751,-1.40137,0
18700,-1.72123,-0.499643,-1.39661,0
18720,-1.72301,-0.506526,-1.39095,0
18740,-1.72532,-0.513886,-1.38452,0
18760,-1.72879,-0.520413,-1.37874,0
18780,-1.73197,-0.525534,-1.37313,0
18800,-1.73405,-0.529621,-1.36635,0
18820,-1.73433,-0.533956,-1.3583,0
18840,-1.7342,-0.540449,-1.34975,0
18860,-1.73679,-0.548029,-1.34089,0
18880,-1.74235,-0.555962,-1.33272,0
18900,-1.74901,-0.563578,-1.32682,0
18920,-1.7548,-0.571049,-1.32303,0
18940,-1.75871,-0.578878,-1.32044,0
18960,-1.76103,-0.587103,-1.31767,0
18980,-1.76439,-0.595861,-1.31394,0
19000,-1.7654,-0.604405,-1.31135,0
19020,-1.76325,-0.614021,-1.31168,0
19040,-1.76225,-0.623661,-1.312,0
19060,-1.76668,-0.633261,-1.31134,0
19080,-1.77114,-0.642932,-1.31172,0
19100,-1.77183,-0.652538,-1.31423,0
19120,-1.77032,-0.663359,-1.31848,0
19140,-1.77007,-0.67337,-1.32099,0
19160,-1.77136,-0.683094,-1.32303,0
19180,-1.77114,-0.692806,-1.32787,0
19200,-1.76791,-0.703188,-1.33602,0
19220,-1.76498,-0.714351,-1.34329,0
19240,-1.76246,-0.724957,-1.34882,0
19260,-1.75865,-0.736652,-1.35604,0
19280,-1.75537,-0.748199,-1.36363,0
19300,-1.75369,-0.759975,-1.37147,0
19320,-1.74963,-0.772003,-1.38157,0
19340,-1.74471,-0.783441,-1.39185,0
19360,-1.74192,-0.792827,-1.40073,0
19380,-1.73733,-0.801542,-1.41017,0
19400,-1.72935,-0.810932,-1.4209,0
19420,-1.72192,-0.820238,-1.43223,0
19440,-1.7169,-0.828186,-1.44273,0
19460,-1.71262,-0.836257,-1.45473,0
19480,-1.70512,-0.84473,-1.46883,0
19500,-1.69705,-0.852924,-1.48287,0
19520,-1.68992,-0.859612,-1.49626,0
19540,-1.68038,-0.865683,-1.51097,0
19560,-1.66783,-0.872056,-1.52727,0
19580,-1.6571,-0.878832,-1.54352,0
19600,-1.6446,-0.883079,-1.56136,0
19620,-1.63198,-0.88496,-1.57729,0
19640,-1.62122,-0.887231,-1.59109,0
19660,-1.61144,-0.890112,-1.60343,0
19680,-1.60178,-0.892951,-1.61554,0
19700,-1.59284,-0.894834,-1.62694,0
19720,-1.58568,-0.897186,-1.63897,0
19740,-1.57764,-0.899504,-1.65181,0
19760,-1.5685,-0.901159,-1.66442,0
19780,-1.5614,-0.901659,-1.67632,0
19800,-1.55466,-0.901483,-1.6877,0
19820,-1.54517,-0.901532,-1.70089,0
19840,-1.53672,-0.900797,-1.7139,0
19860,-1.52914,-0.899785,-1.72686,0
19880,-1.52085,-0.898908,-1.74121,0
19900,-1.51153,-0.898166,-1.75667,0
19920,-1.50166,-0.897791,-1.77171,0
19940,-1.49199,-0.897716,-1.78679,0
19960,-1.48064,-0.897864,-1.80358,0
19980,-1.4698,-0.897077,-1.82014,0
20000,-1.4581,-0.895868,-1.83709,0
20020,-1.44689,-0.894036,-1.85371,0
20030,-1.43573,-0.891162,-1.86922,0
20050,-1.42392,-0.888272,-1.88548,0
20070,-1.41201,-0.885187,-1.90084,0
20090,-1.40266,-0.881633,-1.91436,0
20110,-1.39411,-0.877672,-1.92672,0
20130,-1.38606,-0.873462,-1.93902,0
20150,-1.37925,-0.86843,-1.94973,0
20170,-1.37493,-0.863133,-1.95887,0
20190,-1.37051,-0.857434,-1.96796,0
20210,-1.36702,-0.851333,-1.97562,0
20230,-1.36533,-0.845527,-1.98136,0
20250,-1.36487,-0.840075,-1.98621,0
20270,-1.36248,-0.834215,-1.99203,0
20290,-1.35989,-0.828655,-1.99804,0
20310,-1.35915,-0.822845,-2.00221,0
20330,-1.35858,-0.816613,-2.00697,0
20350,-1.35967,-0.808531,-2.01131,0
20370,-1.36823,-0.797145,-2.01319,0
20390,-1.37768,-0.785236,-2.01924,0
20410,-1.38136,-0.773356,-2.02767,0
20430,-1.38435,-0.762091,-2.03457,0
20450,-1.38695,-0.751873,-2.04005,0
20470,-1.38823,-0.742935,-2.0455,0
20490,-1.3888,-0.734623,-2.05199,0
20510,-1.38656,-0.725705,-2.0594,0
20530,-1.38423,-0.716205,-2.06705,0
20550,-1.38322,-0.706395,-2.07285,0
20570,-1.38155,-0.696963,-2.07762,0
20590,-1.3783,-0.688596,-2.08326,0
20610,-1.3768,-0.681852,-2.0893,0
20630,-1.37601,-0.676081,-2.09466,0
20650,-1.37462,-0.670972,-2.09892,0
20670,-1.37444,-0.666437,-2.10174,0
20690,-1.37316,-0.662182,-2.10407,0
20710,-1.37234,-0.657903,-2.10498,0
20730,-1.37151,-0.654238,-2.10612,0
20750,-1.3705,-0.649924,-2.10691,0
20770,-1.37355,-0.645661,-2.10564,0
20790,-1.37596,-0.64145,-2.10542,0
20810,-1.37649,-0.636384,-2.10436,0
20830,-1.3781,-0.631517,-2.10281,0
20850,-1.38067,-0.626702,-2.10132,0
20870,-1.38439,-0.621498,-2.09861,0
20890,-1.38766,-0.615926,-2.09525,0
20910,-1.39056,-0.61088,-2.09123,0
20930,-1.3941,-0.606533,-2.08769,0
20950,-1.39744,-0.601527,-2.08429,0
20970,-1.40061,-0.596356,-2.07974,0
20990,-1.40625,-0.593049,-2.07433,0
21010,-1.41063,-0.589895,-2.06931,0
21030,-1.41592,-0.585612,-2.0657,0
21050,-1.42037,-0.580139,-2.06221,0
21070,-1.42347,-0.575096,-2.05783,0
21090,-1.42623,-0.571825,-2.05292,0
21110,-1.42782,-0.569083,-2.04779,0
21130,-1.43043,-0.566039,-2.04281,0
21150,-1.43505,-0.563567,-2.03737,0
21170,-1.44142,-0.562052,-2.03148,0
21190,-1.44655,-0.559988,-2.026,0
21210,-1.45132,-0.556985,-2.02019,0
21230,-1.45676,-0.5539,-2.01372,0
21250,-1.46216,-0.551121,-2.00764,0
21270,-1.46836,-0.5481,-2.00153,0
21290,-1.47465,-0.544563,-1.99552,0
21310,-1.48242,-0.540969,-1.98891,0
21330,-1.48998,-0.538345,-1.98227,0
21350,-1.49509,-0.535681,-1.97649,0
21370,-1.49783,-0.531191,-1.97105,0
21390,-1.50303,-0.526499,-1.96432,0
21410,-1.50893,-0.522565,-1.95746,0
21430,-1.51315,-0.519176,-1.95205,0
21450,-1.51559,-0.515781,-1.94723,0
21470,-1.51826,-0.512591,-1.94139,0
21490,-1.52201,-0.510239,-1.93575,0
21510,-1.52462,-0.507374,-1.93089,0
21530,-1.52646,-0.504422,-1.92549,0
21550,-1.53001,-0.502131,-1.91941,0
21570,-1.53492,-0.500308,-1.91302,0
21590,-1.53963,-0.498936,-1.90644,0
21610,-1.54386,-0.498717,-1.89911,0
21630,-1.55011,-0.500339,-1.89192,0
21650,-1.55416,-0.50122,-1.8854,0
21670,-1.55742,-0.500643,-1.87769,0
21690,-1.56275,-0.50118,-1.86794,0
21710,-1.569,-0.502658,-1.85862,0
21730,-1.57583,-0.502976,-1.8494,0
21750,-1.58241,-0.502193,-1.84024,0
21770,-1.58921,-0.501639,-1.83088,0
21790,-1.5956,-0.500717,-1.8226,0
21810,-1.6032,-0.498564,-1.81515,0
21830,-1.61135,-0.496022,-1.80726,0
21850,-1.61561,-0.493898,-1.80001,0
21870,-1.61817,-0.491647,-1.79345,0
21890,-1.62142,-0.489152,-1.78555,0
21910,-1.62624,-0.487758,-1.77541,0
21930,-1.63135,-0.487468,-1.76572,0
21950,-1.63685,-0.488187,-1.75586,0
21970,-1.64406,-0.489597,-1.7449,0
21990,-1.65179,-0.491546,-1.73362,0
22010,-1.65869,-0.494299,-1.72235,0
22030,-1.66652,-0.497014,-1.71108,0
22050,-1.67535,-0.499812,-1.69886,0
22070,-1.68302,-0.502891,-1.6859,0
22090,-1.69024,-0.505971,-1.67256,0
22110,-1.69837,-0.508953,-1.65882,0
22130,-1.70783,-0.512312,-1.64388,0
22150,-1.71799,-0.51642,-1.62841,0
22170,-1.72835,-0.52013,-1.61315,0
22190,-1.73858,-0.523505,-1.59778,0
22210,-1.74866,-0.527021,-1.58295,0
22230,-1.75755,-0.531558,-1.56831,0
22250,-1.7649,-0.537592,-1.55376,0
22270,-1.77097,-0.544106,-1.54022,0
22290,-1.77784,-0.549871,-1.52667,0
22310,-1.78533,-0.555305,-1.51326,0
22330,-1.79077,-0.56147,-1.50021,0
22350,-1.79517,-0.568453,-1.48767,0
22370,-1.80199,-0.575727,-1.47482,0
22390,-1.80866,-0.582847,-1.4625,0
22410,-1.81514,-0.589817,-1.45072,0
22430,-1.82247,-0.597246,-1.43926,0
22450,-1.82843,-0.605565,-1.4289,0
22470,-1.83175,-0.613853,-1.41942,0
22490,-1.83295,-0.62152,-1.4109,0
22510,-1.83331,-0.628835,-1.40297,0
22530,-1.83381,-0.63589,-1.39436,0
22550,-1.83484,-0.643078,-1.38663,0
22570,-1.83488,-0.651054,-1.38035,0
22590,-1.83546,-0.659936,-1.37354,0
22610,-1.84172,-0.669888,-1.36537,0
22630,-1.84671,-0.679816,-1.35996,0
22650,-1.84768,-0.689511,-1.35689,0
22670,-1.84844,-0.699504,-1.35267,0
22690,-1.85066,-0.710382,-1.34765,0
22710,-1.85068,-0.720173,-1.34428,0
22730,-1.84894,-0.727755,-1.3423,0
22750,-1.84984,-0.735617,-1.34011,2001
22770,-1.85279,-0.743703,-1.33924,0
22790,-1.85302,-0.750938,-1.34069,0
22810,-1.85323,-0.757346,-1.34126,0
22830,-1.85472,-0.762799,-1.34058,0
22850,-1.8536,-0.767471,-1.34228,0
22870,-1.85038,-0.771701,-1.34584,0
22890,-1.84908,-0.776595,-1.34813,0
22910,-1.8483,-0.781999,-1.35153,0
22930,-1.84724,-0.786125,-1.35558,0
22950,-1.84579,-0.788541,-1.36066,0
22970,-1.84401,-0.79015,-1.36539,0
22990,-1.84178,-0.790804,-1.36928,0
23010,-1.83942,-0.790205,-1.37312,0
23030,-1.83646,-0.788535,-1.37714,0
23050,-1.83469,-0.786181,-1.38066,0
23070,-1.83477,-0.783217,-1.38334,0
23090,-1.83473,-0.779995,-1.38592,0
23110,-1.83384,-0.776505,-1.38881,0
23130,-1.831,-0.77204,-1.39154,0
23150,-1.82796,-0.766944,-1.39457,0
23170,-1.82355,-0.760735,-1.39921,0
23190,-1.8156,-0.75276,-1.40646,0
23210,-1.80783,-0.743526,-1.41317,0
23230,-1.80246,-0.733336,-1.41737,0
23250,-1.79617,-0.722684,-1.42207,0
23270,-1.78866,-0.712086,-1.42867,0
23290,-1.78143,-0.701489,-1.43597,0
23310,-1.7787,-0.690645,-1.43998,0
23330,-1.77549,-0.680246,-1.44457,0
23350,-1.76543,-0.669158,-1.45533,0
23370,-1.75199,-0.657425,-1.4688,0
23390,-1.74492,-0.645504,-1.47589,0
23410,-1.73678,-0.630476,-1.48211,0
23430,-1.71782,-0.612122,-1.49539,0
23450,-1.69394,-0.595357,-1.51079,0
23470,-1.67171,-0.578787,-1.5234,0
23490,-1.6532,-0.559869,-1.53406,0
23500,-1.63177,-0.540061,-1.54628,0
23520,-1.60846,-0.521414,-1.55952,0
23540,-1.58743,-0.500723,-1.5705,0
23560,-1.56842,-0.478811,-1.57873,0
23580,-1.55026,-0.459053,-1.58559,0
23600,-1.53297,-0.442031,-1.59253,0
23620,-1.51845,-0.424945,-1.59697,0
23640,-1.50694,-0.408966,-1.59898,0
23660,-1.49511,-0.39492,-1.60051,0
23680,-1.48372,-0.382267,-1.60203,0
23700,-1.47254,-0.369492,-1.60184,0
23720,-1.46402,-0.35706,-1.59988,0
23740,-1.45575,-0.344771,-1.59765,0
23760,-1.44874,-0.333915,-1.59551,0
23780,-1.44417,-0.323004,-1.59191,0
23800,-1.4429,-0.312561,-1.58664,0
23820,-1.44292,-0.303479,-1.58255,0
23840,-1.44027,-0.295881,-1.58049,0
23860,-1.43718,-0.289121,-1.57922,0
23880,-1.43322,-0.281862,-1.57717,0
23900,-1.43033,-0.27473,-1.57373,0
23920,-1.42775,-0.268443,-1.56928,0
23940,-1.42485,-0.263233,-1.56476,0
23960,-1.42347,-0.25821,-1.55952,0
23980,-1.42378,-0.253622,-1.5525,0
24000,-1.4247,-0.250028,-1.54522,0
24020,-1.42565,-0.247195,-1.53821,0
24040,-1.42604,-0.24513,-1.53115,0
24060,-1.42706,-0.243752,-1.52338,0
24080,-1.42938,-0.242745,-1.51582,0
24100,-1.42852,-0.241466,-1.50971,0
24120,-1.42528,-0.240114,-1.50318,0
24140,-1.42299,-0.238524,-1.49564,0
24160,-1.41987,-0.235809,-1.48583,0
24180,-1.41717,-0.232343,-1.47436,0
24200,-1.41683,-0.228859,-1.46598,0
24220,-1.41661,-0.227485,-1.46031,0
24240,-1.42126,-0.227448,-1.45413,0
24260,-1.42524,-0.224924,-1.44768,0
24280,-1.42537,-0.222204,-1.44223,0
24300,-1.4259,-0.220788,-1.43626,2000
24320,-1.42707,-0.218966,-1.43107,0
24340,-1.42883,-0.216938,-1.42676,0
24360,-1.43139,-0.215699,-1.42258,0
24380,-1.43441,-0.215256,-1.41803,0
24400,-1.43696,-0.215005,-1.4137,0
24420,-1.43952,-0.214357,-1.41022,0
24440,-1.44171,-0.213772,-1.40692,0
24460,-1.444,-0.214359,-1.40328,0
24480,-1.44502,-0.215003,-1.39932,0
24500,-1.44537,-0.216137,-1.39551,0
24520,-1.44716,-0.217937,-1.39145,0
24540,-1.4498,-0.219915,-1.3867,0
24560,-1.45241,-0.222266,-1.38203,0
24580,-1.45362,-0.22456,-1.37759,0
24600,-1.45546,-0.226264,-1.37227,0
24620,-1.45799,-0.227761,-1.3664,0
24640,-1.46081,-0.229923,-1.35991,0
24660,-1.46268,-0.232401,-1.35409,0
24680,-1.46476,-0.234178,-1.34768,0
24700,-1.46662,-0.235714,-1.34063,0
24720,-1.46808,-0.23809,-1.33279,0
24740,-1.46864,-0.241509,-1.32506,0
24760,-1.4683,-0.245422,-1.31747,0
24780,-1.46833,-0.248872,-1.31054,0
24800,-1.46821,-0.251476,-1.30451,0
24820,-1.46946,-0.254692,-1.29833,0
24840,-1.47009,-0.257582,-1.29254,0
24860,-1.46995,-0.26073,-1.28806,0
24880,-1.47044,-0.263693,-1.28277,0
24900,-1.4724,-0.26688,-1.27677,0
24920,-1.47319,-0.26996,-1.27157,0
24940,-1.47288,-0.273098,-1.26768,0
24960,-1.47505,-0.276326,-1.2638,0
24980,-1.47687,-0.279817,-1.26108,0
25000,-1.47631,-0.283533,-1.25927,0
25020,-1.47525,-0.286771,-1.2576,0
25040,-1.47484,-0.289487,-1.25563,0
25060,-1.47386,-0.293221,-1.25381,0
25080,-1.47208,-0.298537,-1.25357,0
25100,-1.46962,-0.303202,-1.2545,0
25120,-1.47015,-0.30655,-1.25572,0
25140,-1.47051,-0.310036,-1.25675,0
25160,-1.46876,-0.31462,-1.25772,0
25180,-1.46546,-0.319938,-1.25927,0
25200,-1.46315,-0.325456,-1.26078,0
25220,-1.46277,-0.3314,-1.26255,0
25240,-1.46589,-0.334777,-1.26713,0
25260,-1.46932,-0.337337,-1.27426,0
25280,-1.4685,-0.342908,-1.27973,0
25300,-1.46409,-0.351929,-1.28046,0
25320,-1.46094,-0.362224,-1.28067,0
25340,-1.45847,-0.37329,-1.28089,0
25360,-1.45674,-0.383859,-1.28087,0
25380,-1.45689,-0.392796,-1.28046,0
25400,-1.45629,-0.401057,-1.28002,0
25420,-1.45584,-0.410009,-1.28057,0
25440,-1.45408,-0.418821,-1.284,0
25460,-1.4523,-0.427199,-1.28911,0
25470,-1.45202,-0.434318,-1.29419,0
25500,-1.45234,-0.440867,-1.29919,0
25510,-1.45067,-0.448326,-1.30491,0
25530,-1.44853,-0.45685,-1.31011,0
25550,-1.44768,-0.465629,-1.31537,0
25570,-1.44803,-0.473739,-1.32098,0
25590,-1.44942,-0.481081,-1.32811,0
25610,-1.45048,-0.48891,-1.3366,0
25630,-1.45175,-0.497553,-1.34703,0
25650,-1.45248,-0.506706,-1.35938,0
25670,-1.45153,-0.515693,-1.37229,0
25690,-1.45052,-0.524479,-1.38503,0
25700,-1.44835,-0.533751,-1.39731,0
25730,-1.44029,-0.562653,-1.43332,0
25750,-1.43755,-0.571612,-1.44566,0
25770,-1.43374,-0.581109,-1.45864,0
25790,-1.42844,-0.589933,-1.47279,0
25810,-1.42401,-0.596939,-1.48749,0
25830,-1.42004,-0.603809,-1.50342,0
25850,-1.41425,-0.610888,-1.51973,0
25870,-1.40833,-0.618624,-1.5361,0
25890,-1.40173,-0.625972,-1.55305,0
25910,-1.39494,-0.632322,-1.57038,0
25930,-1.38726,-0.639485,-1.5879,0
25950,-1.37886,-0.647327,-1.60524,0
25970,-1.37011,-0.655438,-1.62197,0
25990,-1.36149,-0.663778,-1.63916,0
26000,-1.35437,-0.670971,-1.65697,0
26020,-1.34726,-0.67784,-1.67496,0
26040,-1.34058,-0.685449,-1.69221,0
26060,-1.33491,-0.693661,-1.70969,0
26080,-1.3286,-0.70071,-1.72853,0
26100,-1.32227,-0.70621,-1.74866,0
26120,-1.31668,-0.710286,-1.76935,0
26140,-1.31004,-0.713056,-1.79078,0
26160,-1.30232,-0.714483,-1.8124,0
26180,-1.29623,-0.713983,-1.83205,0
26200,-1.29037,-0.712789,-1.84979,0
26220,-1.28506,-0.710199,-1.86553,0
26240,-1.281,-0.706363,-1.87941,0
26260,-1.27643,-0.70267,-1.89195,0
26280,-1.27309,-0.699337,-1.90281,0
26300,-1.27202,-0.693961,-1.91288,0
26320,-1.27087,-0.687395,-1.9228,0
26340,-1.27019,-0.680253,-1.93188,0
26360,-1.26974,-0.673401,-1.93941,0
26380,-1.26729,-0.666412,-1.94722,0
26400,-1.26376,-0.658802,-1.9548,0
26420,-1.26245,-0.648775,-1.96271,0
26440,-1.2607,-0.638757,-1.97109,0
26460,-1.25841,-0.630497,-1.97905,0
26480,-1.25983,-0.622118,-1.98522,0
26500,-1.2621,-0.613785,-1.99199,0
26520,-1.2642,-0.602827,-1.99882,0
26540,-1.26335,-0.590944,-2.0058,0
26560,-1.25908,-0.579781,-2.01251,0
26580,-1.25393,-0.569811,-2.01838,0
26600,-1.25228,-0.56064,-2.0233,0
26620,-1.24892,-0.552717,-2.02907,0
26640,-1.24307,-0.54577,-2.03399,0
26660,-1.23943,-0.540339,-2.03658,0
26680,-1.23829,-0.535993,-2.03774,0
26700,-1.24034,-0.530954,-2.03896,0
26720,-1.24407,-0.524527,-2.03977,0
26740,-1.24569,-0.517965,-2.04013,0
26760,-1.24232,-0.512263,-2.03994,0
26780,-1.24108,-0.507336,-2.03833,0
26800,-1.24211,-0.502253,-2.03696,0
26820,-1.24522,-0.495184,-2.03564,0
26840,-1.24602,-0.487549,-2.03423,0
26860,-1.24697,-0.480882,-2.03155,0
26880,-1.25054,-0.475,-2.02837,0
26900,-1.2523,-0.469392,-2.02483,0
26920,-1.25489,-0.463506,-2.01999,0
26940,-1.25828,-0.457805,-2.0148,0
26960,-1.26102,-0.452952,-2.00988,0
26980,-1.26318,-0.448691,-2.00572,0
27000,-1.26684,-0.444589,-2.00149,0
27020,-1.27297,-0.438863,-1.99655,0
27040,-1.2794,-0.432639,-1.99058,0
27060,-1.28251,-0.426519,-1.9846,0
27080,-1.28397,-0.421085,-1.97873,0
27100,-1.28773,-0.416385,-1.97215,0
27120,-1.29335,-0.411812,-1.96556,0
27140,-1.29848,-0.406539,-1.95911,0
27160,-1.30464,-0.401217,-1.95081,0
27180,-1.31389,-0.396486,-1.94064,0
27200,-1.32405,-0.391068,-1.93138,0
27220,-1.33123,-0.384,-1.92347,0
27240,-1.33913,-0.377301,-1.91442,0
27260,-1.34828,-0.372501,-1.90507,0
27280,-1.35443,-0.369036,-1.89689,0
27300,-1.35971,-0.366507,-1.88826,0
27320,-1.36485,-0.364316,-1.87898,0
27340,-1.36976,-0.362633,-1.8696,0
27360,-1.37362,-0.360824,-1.8607,0
27380,-1.37892,-0.358586,-1.85102,0
27400,-1.38434,-0.356568,-1.84146,0
27420,-1.38954,-0.354661,-1.83222,0
27440,-1.39486,-0.352666,-1.823,0
27460,-1.40044,-0.350921,-1.81385,0
27480,-1.40452,-0.349176,-1.8045,0
27500,-1.40836,-0.346462,-1.795,0
27520,-1.41308,-0.34389,-1.78496,0
27540,-1.41706,-0.342425,-1.77484,0
27560,-1.42112,-0.341037,-1.76397,0
27580,-1.42695,-0.339501,-1.75228,0
27600,-1.43294,-0.338593,-1.74096,0
27620,-1.43679,-0.337526,-1.73009,0
27640,-1.4415,-0.336233,-1.71795,0
27660,-1.4474,-0.335301,-1.70533,0
27680,-1.4523,-0.333444,-1.69309,0
27700,-1.45734,-0.331123,-1.6804,0
27720,-1.46365,-0.329765,-1.66752,0
27740,-1.46887,-0.328522,-1.65513,0
27760,-1.47432,-0.326262,-1.64244,0
27780,-1.48196,-0.324156,-1.62893,0
27800,-1.48933,-0.32284,-1.61514,0
27820,-1.4947,-0.320769,-1.60273,0
27840,-1.49859,-0.317442,-1.59032,0
27860,-1.50541,-0.315068,-1.5764,0
27880,-1.51249,-0.314602,-1.56244,0
27900,-1.51755,-0.313937,-1.54941,0
27920,-1.52234,-0.312834,-1.53643,0
27940,-1.52938,-0.312923,-1.52204,0
27960,-1.5363,-0.313619,-1.50679,0
27980,-1.542,-0.314409,-1.49176,0
28000,-1.54713,-0.31627,-1.47638,0
28020,-1.55301,-0.320413,-1.45992,0
28040,-1.56005,-0.324658,-1.44372,0
28060,-1.56797,-0.32831,-1.42771,0
28080,-1.57585,-0.332201,-1.41209,0
28100,-1.5818,-0.337679,-1.39658,0
28120,-1.5874,-0.343469,-1.38138,0
28140,-1.59444,-0.348995,-1.36641,0
28160,-1.60028,-0.354532,-1.35172,0
28180,-1.60513,-0.361066,-1.33703,0
28200,-1.60989,-0.36744,-1.32237,0
28220,-1.61643,-0.372234,-1.30792,0
28240,-1.62323,-0.376082,-1.29427,0
28260,-1.6273,-0.379983,-1.28177,0
28280,-1.63069,-0.384507,-1.2697,0
28300,-1.63727,-0.39055,-1.25778,0
28320,-1.64336,-0.396416,-1.24594,0
28340,-1.64719,-0.401881,-1.23632,0
28360,-1.65006,-0.406803,-1.22718,0
28380,-1.65346,-0.412956,-1.21826,0
28400,-1.656,-0.420247,-1.21067,0
28420,-1.65769,-0.428436,-1.20471,0
28440,-1.66002,-0.436233,-1.19928,0
28460,-1.6631,-0.44491,-1.19464,0
28480,-1.665,-0.455034,-1.19082,0
28500,-1.66788,-0.465739,-1.18801,0
28520,-1.67072,-0.476819,-1.18639,0
28540,-1.67275,-0.486329,-1.18693,0
28560,-1.67502,-0.4954,-1.18927,0
28580,-1.67622,-0.505469,-1.1927,0
28600,-1.67349,-0.516423,-1.19789,0
28620,-1.66735,-0.527975,-1.20651,0
28640,-1.66345,-0.53824,-1.21454,0
28660,-1.66309,-0.548902,-1.22104,0
28680,-1.65894,-0.560912,-1.22975,0
28700,-1.65062,-0.573217,-1.24181,0
28720,-1.64487,-0.584261,-1.25283,0
28740,-1.6415,-0.595437,-1.26007,0
28760,-1.63494,-0.609251,-1.26819,0
28780,-1.62705,-0.623441,-1.27768,0
28800,-1.62322,-0.635336,-1.28546,0
28820,-1.62151,-0.648152,-1.29329,0
28840,-1.6164,-0.661605,-1.30216,0
28860,-1.61166,-0.675405,-1.31004,0
28880,-1.60961,-0.689102,-1.31687,0
28900,-1.6068,-0.704175,-1.3251,0
28910,-1.60283,-0.719718,-1.33335,0
28920,-1.5973,-0.747807,-1.35263,0
28940,-1.59369,-0.761909,-1.36465,0
28960,-1.58885,-0.77632,-1.37808,0
28980,-1.58445,-0.789149,-1.39156,0
29000,-1.57897,-0.801015,-1.40635,0
29020,-1.57281,-0.812991,-1.4217,0
29040,-1.56657,-0.824156,-1.43701,0
29060,-1.55951,-0.83512,-1.45505,0
29080,-1.55153,-0.84469,-1.47423,0
29100,-1.54418,-0.852746,-1.49308,0
29120,-1.53441,-0.860542,-1.51331,0
29140,-1.52352,-0.868155,-1.53481,0
29160,-1.5131,-0.875333,-1.55438,0
29180,-1.50229,-0.881197,-1.57356,0
29200,-1.49141,-0.886839,-1.59286,0
29220,-1.48095,-0.891439,-1.61213,0
29240,-1.47137,-0.894853,-1.63188,0
29260,-1.46031,-0.896159,-1.65225,0
29280,-1.44876,-0.896443,-1.67175,0
29300,-1.4376,-0.89675,-1.68958,0
29320,-1.42459,-0.89645,-1.70887,0
29340,-1.41133,-0.895647,-1.72929,0
29360,-1.39985,-0.893166,-1.74885,0
29380,-1.39016,-0.888255,-1.76837,0
29400,-1.37848,-0.881656,-1.78736,0
29420,-1.36809,-0.873963,-1.80433,0
29440,-1.35821,-0.865762,-1.8213,0
29460,-1.34718,-0.857655,-1.83773,0
29480,-1.33851,-0.849383,-1.8516,0
29500,-1.33227,-0.840242,-1.86523,0
29520,-1.32607,-0.830597,-1.87749,0
29540,-1.32223,-0.820458,-1.88497,0
29560,-1.31914,-0.811788,-1.89065,0
29580,-1.3146,-0.804897,-1.89775,0
29600,-1.31239,-0.797429,-1.90652,0
29620,-1.31367,-0.787804,-1.91346,0
29640,-1.31593,-0.776864,-1.91926,0
29660,-1.31298,-0.767214,-1.92563,0
29680,-1.30842,-0.758703,-1.93063,0
29700,-1.30452,-0.750802,-1.93569,0
29720,-1.30344,-0.741985,-1.94125,0
29740,-1.30599,-0.731138,-1.94822,0
29760,-1.30749,-0.7193,-1.95601,0
29780,-1.30657,-0.708005,-1.96293,0
29800,-1.30712,-0.698832,-1.96755,0
29820,-1.30753,-0.690152,-1.97043,0
29840,-1.30627,-0.681324,-1.97134,0
29860,-1.30463,-0.673448,-1.97198,0
29880,-1.30204,-0.666455,-1.97384,0
29900,-1.30068,-0.659783,-1.97637,0
29920,-1.30285,-0.653012,-1.97833,0
29940,-1.3088,-0.645476,-1.97939,0
29960,-1.31415,-0.637633,-1.97925,0
29980,-1.31464,-0.629312,-1.97896,0
30000,-1.3147,-0.621437,-1.97731,0
30020,-1.31524,-0.613627,-1.97504,0
30040,-1.31728,-0.606059,-1.97179,0
30060,-1.32253,-0.598873,-1.96714,0
30080,-1.32841,-0.592392,-1.96238,0
30100,-1.33284,-0.585558,-1.95648,0
30120,-1.33863,-0.578485,-1.94933,0
30140,-1.34469,-0.572827,-1.94261,0
30160,-1.35008,-0.567238,-1.93586,0
30180,-1.35562,-0.561213,-1.92771,0
30200,-1.36201,-0.55574,-1.91883,0
30220,-1.36769,-0.551692,-1.91015,0
30240,-1.37341,-0.547963,-1.9014,0
30260,-1.38071,-0.54272,-1.892,0
30280,-1.38914,-0.537272,-1.88147,0
30300,-1.39557,-0.532491,-1.87025,0
30320,-1.40211,-0.528549,-1.85876,0
30340,-1.40982,-0.524267,-1.8477,0
30360,-1.41818,-0.519541,-1.83665,0
30380,-1.42639,-0.514771,-1.82494,0
30400,-1.43469,-0.510298,-1.81291,0
30420,-1.44215,-0.506555,-1.80117,0
30440,-1.44791,-0.503674,-1.79018,0
30460,-1.45227,-0.501174,-1.77973,0
30480,-1.45762,-0.499491,-1.76921,0
30500,-1.46573,-0.498131,-1.75679,0
30520,-1.4733,-0.4966,-1.74404,0
30540,-1.4778,-0.494137,-1.73202,0
30560,-1.48368,-0.491881,-1.71964,0
30580,-1.49173,-0.489778,-1.7065,0
30600,-1.50151,-0.488316,-1.69347,0
30620,-1.50994,-0.485853,-1.68236,0
30640,-1.51883,-0.482273,-1.67051,0
30660,-1.52927,-0.479465,-1.65758,0
30680,-1.53776,-0.477357,-1.64523,0
30700,-1.54441,-0.473973,-1.63402,0
30720,-1.55333,-0.471001,-1.62172,0
30740,-1.56362,-0.469464,-1.60866,0
30760,-1.57205,-0.468142,-1.59676,0
30780,-1.57918,-0.466269,-1.58461,0
30800,-1.58818,-0.466025,-1.57074,0
30820,-1.59706,-0.467069,-1.55606,0
30840,-1.60378,-0.468854,-1.54211,0
30860,-1.61022,-0.470562,-1.52764,0
30870,-1.61911,-0.473268,-1.51183,0
30890,-1.62896,-0.47624,-1.4955,0
30910,-1.63804,-0.478406,-1.47935,0
30930,-1.64748,-0.480584,-1.4631,0
30950,-1.65774,-0.483248,-1.44663,0
30970,-1.66922,-0.485727,-1.43009,0
30990,-1.67986,-0.48833,-1.41539,0
31010,-1.69074,-0.491825,-1.40141,0
31030,-1.70223,-0.495499,-1.38795,0
31050,-1.71369,-0.498882,-1.37523,0
31070,-1.72249,-0.502052,-1.3635,0
31090,-1.72883,-0.505735,-1.35141,0
31110,-1.73339,-0.510833,-1.33847,0
31130,-1.73897,-0.517144,-1.32505,0
31150,-1.7459,-0.523989,-1.31199,0
31170,-1.7542,-0.530985,-1.29964,0
31190,-1.763,-0.538094,-1.28703,0
31210,-1.77194,-0.545076,-1.27448,0
31230,-1.78153,-0.551637,-1.26209,0
31250,-1.78883,-0.557789,-1.25019,0
31270,-1.79338,-0.565058,-1.239,0
31290,-1.79832,-0.573454,-1.22771,0
31310,-1.80457,-0.58257,-1.21661,0
31330,-1.81216,-0.59299,-1.2058,0
31350,-1.82135,-0.604498,-1.19571,0
31370,-1.83028,-0.615489,-1.18552,0
31390,-1.84067,-0.627705,-1.17464,0
31410,-1.85235,-0.640866,-1.16355,0
31430,-1.86378,-0.653625,-1.15281,0
31450,-1.87435,-0.666388,-1.14243,0
31470,-1.88425,-0.6797,-1.13284,0
31490,-1.89133,-0.694642,-1.12563,0
31510,-1.8975,-0.710356,-1.12046,0
31530,-1.90382,-0.725737,-1.11623,0
31550,-1.91021,-0.740925,-1.11226,0
31570,-1.91504,-0.756849,-1.1098,0
31590,-1.92047,-0.774134,-1.10908,0
31610,-1.92652,-0.791711,-1.10967,0
31630,-1.92942,-0.808938,-1.11222,0
31650,-1.92875,-0.826672,-1.11778,0
31670,-1.92806,-0.843898,-1.12539,0
31690,-1.92817,-0.860983,-1.1327,0
31710,-1.92734,-0.878538,-1.14101,0
31730,-1.9236,-0.895627,-1.15228,0
31750,-1.92013,-0.91179,-1.16575,0
31770,-1.91661,-0.925324,-1.1798,0
31790,-1.91026,-0.937421,-1.19593,0
31810,-1.89872,-0.949582,-1.21459,0
31830,-1.88561,-0.961326,-1.23447,0
31850,-1.87289,-0.971336,-1.25536,0
31870,-1.85758,-0.979271,-1.27906,0
31890,-1.83695,-0.986235,-1.30594,0
31910,-1.81512,-0.992486,-1.33448,0
31930,-1.79684,-0.996391,-1.36171,0
31950,-1.7784,-0.998237,-1.39032,0
31970,-1.7583,-0.999143,-1.4203,0
31990,-1.7382,-0.999513,-1.45055,0
32010,-1.71224,-0.997187,-1.48415,0
32030,-1.68345,-0.991662,-1.51823,0
32050,-1.65508,-0.986663,-1.55071,0
32070,-1.62961,-0.984287,-1.57975,0
32090,-1.60674,-0.981889,-1.60704,0
32110,-1.58512,-0.978219,-1.63537,0
32130,-1.56383,-0.973121,-1.66385,0
32150,-1.54597,-0.966798,-1.68943,0
32170,-1.52888,-0.959081,-1.71347,0
32190,-1.50947,-0.951597,-1.73939,0
32210,-1.49061,-0.94369,-1.764,0
32230,-1.47695,-0.934603,-1.78665,0
32250,-1.46385,-0.923145,-1.80837,0
32270,-1.45014,-0.910229,-1.82844,0
32290,-1.43841,-0.897831,-1.84587,0
32310,-1.42905,-0.886288,-1.86155,0
32330,-1.42143,-0.874121,-1.87618,0
32350,-1.41425,-0.860067,-1.89031,0
32370,-1.40775,-0.846192,-1.90426,0
32390,-1.40288,-0.833112,-1.91751,0
32410,-1.39944,-0.820183,-1.92926,0
32430,-1.3954,-0.807551,-1.93926,0
32450,-1.39235,-0.795752,-1.94669,0
32470,-1.38979,-0.78565,-1.95236,0
32490,-1.38681,-0.776106,-1.95645,0
32510,-1.38407,-0.767451,-1.95977,0
32530,-1.38353,-0.759043,-1.96169,0
32550,-1.38386,-0.750876,-1.96256,0
32570,-1.38651,-0.743764,-1.96125,0
32590,-1.38999,-0.736802,-1.95921,0
32610,-1.39384,-0.729386,-1.95645,0
32630,-1.39831,-0.721581,-1.9526,0
32650,-1.4028,-0.714308,-1.94807,0
32670,-1.40769,-0.706914,-1.94336,0
32690,-1.41256,-0.699012,-1.93847,0
32710,-1.41696,-0.691316,-1.93401,0
32730,-1.4216,-0.682968,-1.9295,0
32750,-1.42787,-0.674457,-1.92536,0
32770,-1.43292,-0.664951,-1.9212,0
32790,-1.43836,-0.655335,-1.91695,0
32810,-1.44412,-0.646246,-1.91267,0
32830,-1.45065,-0.637592,-1.90845,0
32850,-1.4572,-0.629239,-1.90451,0
32870,-1.46482,-0.621764,-1.89951,0
32890,-1.47089,-0.614894,-1.89461,0
32910,-1.47675,-0.608982,-1.88808,0
32930,-1.48325,-0.603967,-1.88048,0
32950,-1.48966,-0.599591,-1.87255,0
32970,-1.49601,-0.595939,-1.86387,0
32990,-1.50367,-0.593393,-1.85457,0
33010,-1.51048,-0.589714,-1.84533,0
33030,-1.51776,-0.586393,-1.83544,0
33050,-1.52699,-0.584471,-1.8253,0
33070,-1.53625,-0.581367,-1.81567,0
33090,-1.54577,-0.576862,-1.80539,0
33110,-1.55358,-0.572824,-1.79496,0
33130,-1.56181,-0.569639,-1.78384,0
33150,-1.57202,-0.566064,-1.7717,0
33170,-1.58281,-0.562394,-1.75939,0
33190,-1.59487,-0.559035,-1.74731,0
33210,-1.60786,-0.555185,-1.73485,0
33230,-1.62015,-0.550192,-1.72215,0
33250,-1.62882,-0.5468,-1.70953,0
33270,-1.6366,-0.545345,-1.69537,0
33290,-1.64499,-0.544565,-1.68015,0
33310,-1.65402,-0.544305,-1.66492,0
33330,-1.6632,-0.543969,-1.65072,0
33350,-1.67227,-0.542573,-1.63664,0
33370,-1.68229,-0.541528,-1.62178,0
33390,-1.69074,-0.539934,-1.60754,0
33410,-1.69967,-0.538034,-1.59298,0
33430,-1.71016,-0.537137,-1.57871,0
33450,-1.72003,-0.536364,-1.56434,0
33470,-1.72875,-0.535172,-1.55046,0
33490,-1.73847,-0.534622,-1.53717,0
33510,-1.74748,-0.533774,-1.52392,0
33530,-1.7565,-0.534023,-1.50956,0
33550,-1.76478,-0.536037,-1.49469,0
33570,-1.77252,-0.537973,-1.48025,0
33590,-1.7816,-0.539381,-1.46541,0
33610,-1.79037,-0.541886,-1.45,0
33630,-1.79849,-0.54527,-1.43441,0
33650,-1.80747,-0.548468,-1.41991,0
33670,-1.81629,-0.551985,-1.40595,0
33690,-1.82437,-0.557405,-1.39219,0
33710,-1.83237,-0.564651,-1.37841,0
33730,-1.83959,-0.572575,-1.36446,0
33750,-1.84598,-0.581232,-1.35087,0
33770,-1.85152,-0.59081,-1.33732,0
33790,-1.85516,-0.600416,-1.3235,0
33810,-1.85908,-0.611191,-1.3098,0
33830,-1.86524,-0.623699,-1.29585,0
33850,-1.87112,-0.636916,-1.28286,0
33870,-1.87513,-0.649851,-1.27224,0
33890,-1.87961,-0.661737,-1.26153,0
33910,-1.88459,-0.675124,-1.25099,0
33930,-1.88842,-0.690077,-1.24056,0
33950,-1.89042,-0.705763,-1.22985,0
33970,-1.89439,-0.7216,-1.21802,0
33990,-1.90078,-0.737209,-1.20725,0
34010,-1.90782,-0.753203,-1.19818,0
34030,-1.91232,-0.768605,-1.18981,0
34050,-1.91715,-0.782701,-1.18127,2001
34070,-1.92487,-0.794553,-1.17241,0
34090,-1.93144,-0.80458,-1.16623,0
34110,-1.93571,-0.81419,-1.16146,0
34130,-1.9405,-0.823799,-1.15656,0
34150,-1.94883,-0.830829,-1.15014,0
34170,-1.9567,-0.835946,-1.14509,0
34190,-1.96266,-0.840409,-1.14155,0
34210,-1.96932,-0.844658,-1.13749,0
34230,-1.97553,-0.848478,-1.13434,0
34250,-1.9794,-0.851491,-1.13284,0
34270,-1.98338,-0.853333,-1.13141,0
34290,-1.98646,-0.855226,-1.13004,0
34310,-1.99123,-0.857685,-1.12842,0
34330,-1.99671,-0.860175,-1.129,0
34340,-2.00178,-0.861837,-1.13165,0
34360,-2.00348,-0.863234,-1.13824,0
34380,-2.00345,-0.863103,-1.14623,0
34400,-2.00111,-0.862165,-1.15605,0
34420,-1.99252,-0.85966,-1.16961,0
34430,-1.98137,-0.856622,-1.18478,0
34440,-1.97015,-0.851976,-1.19984,0
34460,-1.96009,-0.844823,-1.21578,0
34480,-1.94585,-0.834903,-1.23359,0
34500,-1.9299,-0.823723,-1.25222,0
34520,-1.91583,-0.812958,-1.27108,0
34540,-1.90207,-0.800161,-1.29023,0
34560,-1.8869,-0.785413,-1.31039,0
34580,-1.86911,-0.769604,-1.33219,0
34600,-1.84658,-0.753107,-1.35494,0
34620,-1.82248,-0.7347,-1.37831,0
34640,-1.79809,-0.712771,-1.40168,0
34660,-1.77529,-0.689,-1.42398,0
34680,-1.74974,-0.664649,-1.4479,0
34700,-1.72069,-0.637187,-1.47246,0
34720,-1.69302,-0.606978,-1.4949,0
34740,-1.66803,-0.57768,-1.51424,0
34760,-1.6397,-0.549281,-1.53353,0
34780,-1.61123,-0.520319,-1.552,0
34800,-1.58534,-0.490504,-1.56688,0
34820,-1.56505,-0.462477,-1.57669,0
34840,-1.54208,-0.437097,-1.58548,0
34860,-1.51955,-0.412941,-1.59293,0
34880,-1.50071,-0.390447,-1.59536,0
34900,-1.48357,-0.370363,-1.5935,0
34920,-1.46611,-0.352476,-1.5911,0
34940,-1.44859,-0.335649,-1.58898,0
34960,-1.43447,-0.319775,-1.58571,0
34980,-1.42337,-0.306296,-1.58098,0
35000,-1.41237,-0.295254,-1.57666,0
35020,-1.39993,-0.284471,-1.57372,0
35040,-1.38895,-0.274114,-1.57116,0
35060,-1.38116,-0.265082,-1.56758,0
35080,-1.37382,-0.25694,-1.56364,0
35100,-1.36494,-0.249703,-1.56024,0
35120,-1.35781,-0.243768,-1.55673,0
35140,-1.35292,-0.239106,-1.55292,0
35160,-1.34994,-0.235918,-1.54828,0
35180,-1.34668,-0.232225,-1.54288,0
35200,-1.34443,-0.229384,-1.53624,0
35220,-1.34447,-0.227818,-1.52953,0
35240,-1.34402,-0.227678,-1.52601,0
35260,-1.34245,-0.229058,-1.52334,0
35280,-1.3419,-0.230647,-1.51892,0
35300,-1.34248,-0.230826,-1.51381,0
35320,-1.34265,-0.230197,-1.50985,0
35340,-1.34356,-0.229174,-1.50704,0
35360,-1.34523,-0.227933,-1.5044,0
35380,-1.34705,-0.226041,-1.50076,2000
35400,-1.34885,-0.225074,-1.49662,0
35420,-1.35053,-0.223907,-1.49306,0
35440,-1.35194,-0.220958,-1.48923,0
35460,-1.35214,-0.218315,-1.48464,0
35480,-1.35216,-0.217742,-1.47949,0
35500,-1.35238,-0.21878,-1.47496,0
35520,-1.35211,-0.219844,-1.47187,0
35540,-1.35427,-0.220721,-1.468,0
35560,-1.35604,-0.221716,-1.46293,0
35580,-1.35535,-0.223422,-1.4575,0
35600,-1.35454,-0.226467,-1.45161,0
35620,-1.35341,-0.230338,-1.44516,0
35640,-1.35353,-0.23476,-1.4373,0
35660,-1.35446,-0.2402,-1.42873,0
35680,-1.35458,-0.245817,-1.42041,0
35700,-1.35533,-0.251894,-1.41211,0
35720,-1.3555,-0.260092,-1.40281,0
35740,-1.35564,-0.269799,-1.39256,0
35760,-1.35664,-0.279133,-1.3826,0
35780,-1.35902,-0.287468,-1.37244,0
35800,-1.36308,-0.296211,-1.36149,0
35820,-1.36628,-0.306966,-1.35138,0
35840,-1.36789,-0.317624,-1.34228,0
35860,-1.371,-0.326034,-1.33339,0
35880,-1.37547,-0.332861,-1.32369,0
35900,-1.38069,-0.339593,-1.31371,0
35920,-1.38673,-0.346262,-1.30501,0
35940,-1.39122,-0.351735,-1.29891,0
35960,-1.39377,-0.358441,-1.29449,0
35980,-1.3963,-0.367082,-1.28984,0
36000,-1.39862,-0.376319,-1.28666,0
36020,-1.40217,-0.384537,-1.28536,0
36040,-1.40565,-0.392691,-1.28502,0
36060,-1.4084,-0.401332,-1.28463,0
36080,-1.41095,-0.410162,-1.28492,0
36100,-1.41327,-0.418762,-1.2872,0
36120,-1.41441,-0.426586,-1.29125,0
36140,-1.41585,-0.433131,-1.29559,0
36160,-1.41826,-0.438541,-1.30088,0
36180,-1.41839,-0.443609,-1.30734,0
36200,-1.41698,-0.449845,-1.31383,0
36220,-1.41652,-0.457618,-1.31993,0
36240,-1.41684,-0.464458,-1.32727,0
36260,-1.41748,-0.470589,-1.33523,0
36280,-1.41879,-0.476696,-1.34394,0
36300,-1.41899,-0.483288,-1.35408,0
36320,-1.4171,-0.490569,-1.36557,0
36330,-1.41496,-0.498004,-1.37831,0
36350,-1.41265,-0.505533,-1.39242,0
36360,-1.41083,-0.512691,-1.40741,0
36380,-1.40928,-0.520088,-1.42184,0
36400,-1.40812,-0.52813,-1.43602,0
36420,-1.40674,-0.536627,-1.45039,0
36440,-1.40583,-0.544544,-1.46579,0
36460,-1.40461,-0.552957,-1.48134,0
36470,-1.40331,-0.561122,-1.4974,0
36490,-1.40145,-0.56938,-1.51461,0
36510,-1.39824,-0.577678,-1.53351,0
36530,-1.39324,-0.586338,-1.5545,0
36550,-1.38749,-0.594919,-1.5763,0
36570,-1.38039,-0.603387,-1.59889,0
36590,-1.37268,-0.612081,-1.6213,0
36610,-1.3644,-0.622265,-1.64332,0
36630,-1.35461,-0.632737,-1.66655,0
36650,-1.3453,-0.642321,-1.69037,0
36670,-1.33598,-0.650895,-1.71449,0
36690,-1.32738,-0.657953,-1.73838,0
36710,-1.31799,-0.663999,-1.76264,0
36730,-1.30896,-0.667898,-1.78629,0
36750,-1.30016,-0.670357,-1.80883,0
36770,-1.29103,-0.673836,-1.82942,0
36790,-1.28226,-0.677359,-1.84817,0
36810,-1.27392,-0.680496,-1.86684,0
36830,-1.2669,-0.681022,-1.88541,0
36850,-1.26062,-0.67945,-1.904,0
36870,-1.25429,-0.676721,-1.92166,0
36890,-1.24772,-0.673266,-1.93841,0
36910,-1.24052,-0.669687,-1.95468,0
36930,-1.23332,-0.66561,-1.97109,0
36950,-1.2264,-0.660338,-1.9858,0
36970,-1.2201,-0.653117,-1.99935,0
36990,-1.21375,-0.646208,-2.01088,0
37010,-1.20855,-0.64047,-2.02055,0
37030,-1.2045,-0.635638,-2.02846,0
37050,-1.2043,-0.630284,-2.03547,0
37070,-1.2042,-0.622753,-2.04301,0
37090,-1.20395,-0.614647,-2.04967,0
37110,-1.20372,-0.607024,-2.05479,0
37130,-1.20257,-0.600531,-2.05924,0
37150,-1.20138,-0.593789,-2.06278,0
37170,-1.1994,-0.585608,-2.06636,0
37190,-1.19617,-0.577791,-2.07014,0
37210,-1.19355,-0.570882,-2.07381,0
37230,-1.19172,-0.565082,-2.076,0
37250,-1.18964,-0.560003,-2.07746,0
37270,-1.18827,-0.554911,-2.07803,0
37290,-1.18894,-0.550004,-2.07941,0
37310,-1.19207,-0.543502,-2.08094,0
37330,-1.19219,-0.535721,-2.08241,0
37350,-1.18908,-0.528308,-2.08297,0
37370,-1.18743,-0.521576,-2.08166,0
37390,-1.18763,-0.515208,-2.08073,0
37410,-1.18933,-0.508467,-2.07997,0
37430,-1.19043,-0.500568,-2.07941,0
37450,-1.19071,-0.492353,-2.078,0
37470,-1.19137,-0.485818,-2.07575,0
37490,-1.19301,-0.4805,-2.07303,0
37510,-1.19733,-0.474103,-2.06967,0
37530,-1.20086,-0.466463,-2.06596,0
37550,-1.20159,-0.458779,-2.06225,0
37570,-1.20175,-0.45324,-2.05709,0
37590,-1.20282,-0.448572,-2.05182,0
37610,-1.20712,-0.443088,-2.04634,0
37630,-1.21223,-0.437426,-2.04105,0
37650,-1.21461,-0.432076,-2.0356,0
37670,-1.21691,-0.427543,-2.02984,0
37690,-1.22017,-0.422822,-2.02404,0
37710,-1.2241,-0.417903,-2.01822,0
37730,-1.2264,-0.413166,-2.01266,0
37750,-1.22879,-0.408421,-2.00618,0
37770,-1.23164,-0.404452,-1.99957,0
37790,-1.23345,-0.401083,-1.9933,0
37810,-1.23492,-0.39754,-1.98745,0
37830,-1.23884,-0.394062,-1.98045,0
37850,-1.24393,-0.390295,-1.97318,0
37870,-1.24717,-0.386127,-1.96584,0
37890,-1.2496,-0.382349,-1.95845,0
37910,-1.2517,-0.378944,-1.95079,0
37930,-1.25496,-0.375079,-1.94254,0
37950,-1.26016,-0.371258,-1.93375,0
37970,-1.26488,-0.367632,-1.92517,0
37990,-1.26827,-0.363874,-1.91653,0
38010,-1.27246,-0.359639,-1.90733,0
38030,-1.27721,-0.3561,-1.89756,0
38050,-1.28164,-0.353002,-1.88801,0
38070,-1.28501,-0.349202,-1.87853,0
38090,-1.28925,-0.345617,-1.86818,0
38110,-1.29437,-0.343096,-1.85743,0
38130,-1.29755,-0.340267,-1.8479,0
38150,-1.30171,-0.336755,-1.83831,0
38170,-1.30789,-0.33388,-1.82778,0
38190,-1.31289,-0.331279,-1.8177,0
38210,-1.31535,-0.327801,-1.80851,0
38230,-1.31899,-0.324308,-1.79873,0
38250,-1.32497,-0.321399,-1.78823,0
38270,-1.33008,-0.319081,-1.77854,0
38290,-1.3337,-0.31699,-1.76959,0
38310,-1.33831,-0.314908,-1.75987,0
38330,-1.34326,-0.31347,-1.74925,0
38350,-1.34713,-0.313084,-1.73893,0
38370,-1.35079,-0.312421,-1.72824,0
38390,-1.35693,-0.31218,-1.71654,0
38410,-1.36277,-0.312401,-1.70515,0
38430,-1.36721,-0.311903,-1.69401,0
38450,-1.37293,-0.310932,-1.68275,0
38470,-1.37993,-0.31044,-1.67112,0
38490,-1.38564,-0.310159,-1.65918,0
38510,-1.39182,-0.309244,-1.64643,0
38530,-1.4002,-0.308292,-1.63299,0
38550,-1.40794,-0.308282,-1.61967,0
38570,-1.41403,-0.309298,-1.60635,0
38590,-1.42075,-0.310326,-1.59173,0
38610,-1.42939,-0.311653,-1.57627,0
38630,-1.43861,-0.313495,-1.56081,0
38650,-1.44636,-0.31581,-1.5449,0
38670,-1.45536,-0.318187,-1.52886,0
38690,-1.4641,-0.320077,-1.51277,0
38710,-1.47173,-0.322998,-1.49699,0
38730,-1.47765,-0.328179,-1.48121,0
38750,-1.48303,-0.334606,-1.465,0
38770,-1.48769,-0.340215,-1.44986,0
38790,-1.49139,-0.345517,-1.4348,0
38810,-1.49509,-0.352434,-1.4201,0
38830,-1.49978,-0.360462,-1.40582,0
38850,-1.5051,-0.367162,-1.39283,0
38870,-1.51134,-0.372499,-1.3793,0
38890,-1.51619,-0.378658,-1.36599,0
38910,-1.51883,-0.385639,-1.35328,0
38930,-1.5212,-0.39213,-1.34081,0
38950,-1.52491,-0.397529,-1.32812,0
38970,-1.53117,-0.402937,-1.31565,0
38990,-1.53296,-0.408117,-1.30471,0
39010,-1.53314,-0.412967,-1.29482,0
39030,-1.53676,-0.418893,-1.28394,0
39050,-1.54168,-0.426688,-1.27301,0
39070,-1.5438,-0.434744,-1.2642,0
39090,-1.54484,-0.441173,-1.25761,0
39110,-1.54842,-0.447589,-1.25037,0
39130,-1.55472,-0.456156,-1.24223,0
39150,-1.55755,-0.465891,-1.23609,0
39170,-1.55926,-0.475073,-1.23218,0
39190,-1.56234,-0.48417,-1.22803,0
39210,-1.56751,-0.494453,-1.22276,0
39230,-1.57253,-0.506671,-1.21935,0
39250,-1.57594,-0.518146,-1.21926,0
39270,-1.57934,-0.528292,-1.22,0
39290,-1.58423,-0.53812,-1.21998,0
39310,-1.5876,-0.548989,-1.22085,0
39330,-1.58932,-0.560553,-1.22377,0
39350,-1.5919,-0.57013,-1.22678,0
39370,-1.59829,-0.578074,-1.22825,0
39390,-1.60179,-0.58784,-1.22966,0
39410,-1.60117,-0.599401,-1.23397,0
39430,-1.6012,-0.61083,-1.24072,0
39450,-1.60192,-0.622321,-1.24949,0
39470,-1.60376,-0.633997,-1.25809,0
39490,-1.60531,-0.646072,-1.26856,0
39510,-1.6062,-0.658418,-1.28028,0
39540,-1.60488,-0.685078,-1.30505,0
39560,-1.60144,-0.69848,-1.31978,0
39580,-1.59669,-0.712114,-1.33615,0
39600,-1.59405,-0.725697,-1.35226,0
39620,-1.59204,-0.739876,-1.36855,0
39640,-1.58811,-0.755165,-1.38624,0
39660,-1.58354,-0.76957,-1.40648,0
39680,-1.57707,-0.782377,-1.42818,0
39700,-1.56899,-0.794667,-1.45077,0
39730,-1.55191,-0.817426,-1.49723,0
39740,-1.54286,-0.826321,-1.5215,0
39760,-1.53148,-0.833406,-1.54656,0
39780,-1.5197,-0.839417,-1.57183,0
39800,-1.50745,-0.844521,-1.5969,0
39820,-1.49377,-0.848423,-1.62232,0
39840,-1.47982,-0.850633,-1.64857,0
39860,-1.46537,-0.850221,-1.67557,0
39880,-1.44722,-0.848095,-1.7028,0
39900,-1.43047,-0.846418,-1.72653,0
39920,-1.41657,-0.845858,-1.74667,0
39940,-1.40222,-0.845366,-1.76743,0
39960,-1.39065,-0.844768,-1.7892,0
39980,-1.38038,-0.841108,-1.8116,0
40000,-1.36762,-0.835895,-1.83234,0
40020,-1.35373,-0.830426,-1.85045,0
40040,-1.33953,-0.82695,-1.86791,0
40060,-1.32586,-0.823175,-1.88428,0
40080,-1.31833,-0.815998,-1.89953,0
40100,-1.30917,-0.807146,-1.91369,0
40120,-1.29822,-0.800029,-1.9285,0
40140,-1.2881,-0.793728,-1.94147,0
40160,-1.2824,-0.786098,-1.95196,0
40180,-1.27625,-0.778252,-1.96183,0
40200,-1.2692,-0.770354,-1.97022,0
40220,-1.2631,-0.763465,-1.97833,0
40240,-1.25649,-0.757455,-1.98565,0
40260,-1.25066,-0.750823,-1.99196,0
40280,-1.24757,-0.744025,-1.99657,0
40300,-1.24505,-0.737679,-2.00072,0
40320,-1.24186,-0.731266,-2.00444,0
40340,-1.23925,-0.724763,-2.00842,0
40360,-1.23842,-0.718048,-2.01203,0
40380,-1.23875,-0.710229,-2.01693,0
40400,-1.23733,-0.700611,-2.02073,0
40420,-1.23599,-0.69102,-2.02249,0
40440,-1.23239,-0.683414,-2.02435,0
40460,-1.22824,-0.676516,-2.02609,0
40480,-1.22813,-0.66984,-2.02856,0
40500,-1.22844,-0.662378,-2.03143,0
40520,-1.22818,-0.653303,-2.03328,0
40540,-1.22875,-0.643998,-2.03265,0
40560,-1.22799,-0.635681,-2.03154,0
40580,-1.22693,-0.628226,-2.03087,0
40600,-1.22891,-0.620804,-2.03002,0
40620,-1.22933,-0.612956,-2.03013,0
40640,-1.22921,-0.60499,-2.02923,0
40660,-1.23096,-0.598039,-2.02718,0
40680,-1.23326,-0.591404,-2.0243,0
40700,-1.23595,-0.58468,-2.02057,0
40720,-1.23874,-0.578068,-2.01611,0
40740,-1.24215,-0.571744,-2.01125,0
40760,-1.24767,-0.56563,-2.00535,0
40780,-1.25351,-0.559963,-1.99949,0
40800,-1.2593,-0.553606,-1.99335,0
40820,-1.26498,-0.546075,-1.98672,0
40840,-1.27142,-0.539333,-1.97935,0
40860,-1.27795,-0.532695,-1.97103,0
40880,-1.28487,-0.525497,-1.96238,0
40900,-1.29209,-0.516967,-1.95339,0
40920,-1.30031,-0.50786,-1.94462,0
40940,-1.30977,-0.498482,-1.9351,0
40960,-1.3181,-0.489716,-1.92447,0
40980,-1.32667,-0.48112,-1.9136,0
41000,-1.33649,-0.473119,-1.90259,0
41020,-1.34478,-0.466993,-1.89157,0
41040,-1.35194,-0.462041,-1.88048,0
41060,-1.3593,-0.457444,-1.86859,0
41080,-1.36654,-0.454038,-1.85709,0
41100,-1.37246,-0.45092,-1.84586,0
41120,-1.37689,-0.447749,-1.83425,0
41140,-1.3818,-0.444783,-1.82182,0
41160,-1.38722,-0.442648,-1.80978,0
41180,-1.3913,-0.440129,-1.79788,0
41200,-1.39642,-0.437774,-1.78566,0
41220,-1.40159,-0.436116,-1.77282,0
41240,-1.40702,-0.434967,-1.75963,0
41260,-1.41239,-0.43335,-1.74616,0
41280,-1.41851,-0.431834,-1.73194,0
41300,-1.42685,-0.431161,-1.71746,0
41320,-1.4351,-0.430485,-1.70313,0
41340,-1.44354,-0.429763,-1.68916,0
41360,-1.45049,-0.428731,-1.6742,0
41380,-1.45839,-0.428008,-1.65869,0
41400,-1.46647,-0.428053,-1.64451,0
41420,-1.47381,-0.427343,-1.62967,0
41440,-1.48508,-0.427261,-1.61325,0
41460,-1.49628,-0.427435,-1.59731,0
41480,-1.50522,-0.427076,-1.58195,0
41500,-1.51457,-0.426938,-1.56593,0
41520,-1.5249,-0.428558,-1.54949,0
41540,-1.53532,-0.430552,-1.53388,0
41560,-1.54429,-0.432045,-1.51931,0
41580,-1.55282,-0.433977,-1.50359,0
41600,-1.56151,-0.437655,-1.48736,0
41620,-1.5685,-0.443251,-1.47188,0
41640,-1.57497,-0.448893,-1.45678,0
41660,-1.58288,-0.45403,-1.44086,0
41680,-1.59113,-0.460259,-1.42573,0
41700,-1.59824,-0.468013,-1.41179,0
41720,-1.6067,-0.476412,-1.39779,0
41740,-1.61627,-0.484648,-1.3834,0
41760,-1.62587,-0.493016,-1.36953,0
41770,-1.63139,-0.501293,-1.35665,0
41790,-1.63695,-0.510158,-1.34324,0
41810,-1.64403,-0.519845,-1.32836,0
41830,-1.6512,-0.530806,-1.31433,0
41850,-1.65634,-0.542257,-1.30288,0
41870,-1.66194,-0.553307,-1.29144,0
41890,-1.67235,-0.564129,-1.27755,0
41910,-1.68386,-0.57406,-1.26513,0
41930,-1.69186,-0.583602,-1.25669,0
41950,-1.69703,-0.593701,-1.25051,0
41970,-1.70055,-0.607257,-1.24335,0
41990,-1.70141,-0.623884,-1.23666,0
42010,-1.70242,-0.641313,-1.23105,0
42030,-1.70685,-0.658455,-1.22572,0
42050,-1.71179,-0.675784,-1.22178,0
42070,-1.71324,-0.693873,-1.22077,0
42090,-1.71677,-0.711058,-1.21893,0
42110,-1.72454,-0.727855,-1.2157,0
42130,-1.73109,-0.745628,-1.21393,0
42150,-1.73341,-0.763018,-1.2141,0
42170,-1.73735,-0.779748,-1.21599,0
42190,-1.74199,-0.794516,-1.22122,0
42210,-1.7416,-0.809918,-1.22819,0
42230,-1.73738,-0.827488,-1.23543,0
42250,-1.73603,-0.845481,-1.243,0
42270,-1.73603,-0.862734,-1.25362,0
42290,-1.7312,-0.877892,-1.2683,0
42310,-1.72463,-0.892957,-1.28386,0
42330,-1.71922,-0.908514,-1.29881,0
42350,-1.70981,-0.924047,-1.3164,0
42370,-1.69892,-0.938571,-1.33522,0
42390,-1.6886,-0.951784,-1.35467,0
42410,-1.67888,-0.962695,-1.37535,0
42430,-1.66611,-0.971404,-1.39724,0
42450,-1.65199,-0.97866,-1.41928,0
42470,-1.64061,-0.984844,-1.43976,0
42490,-1.6268,-0.990081,-1.46387,0
42510,-1.60783,-0.993862,-1.49005,0
42530,-1.59007,-0.997309,-1.51469,0
42550,-1.57469,-0.999671,-1.53732,0
42570,-1.55828,-1.00145,-1.56104,0
42590,-1.53976,-1.00316,-1.58445,0
42610,-1.52203,-1.00432,-1.60761,0
42630,-1.50334,-1.00388,-1.63179,0
42650,-1.48618,-1.00229,-1.65471,0
42670,-1.46939,-1.00107,-1.67582,0
42690,-1.45342,-0.999963,-1.6965,0
42710,-1.43852,-0.997564,-1.71691,0
42730,-1.42494,-0.994376,-1.73712,0
42750,-1.41045,-0.990081,-1.75735,0
42770,-1.39625,-0.986405,-1.77723,0
42790,-1.38077,-0.982676,-1.79775,0
42810,-1.36567,-0.978449,-1.81926,0
42830,-1.35241,-0.970863,-1.84003,0
42850,-1.33681,-0.961746,-1.86202,0
42870,-1.3207,-0.952615,-1.88361,0
42890,-1.30802,-0.944026,-1.90327,0
42910,-1.3061,-0.931792,-1.92031,0
42930,-1.30469,-0.919716,-1.94145,0
42950,-1.29462,-0.908122,-1.96471,0
42970,-1.29227,-0.896346,-1.97965,0
42990,-1.29447,-0.885507,-1.99021,0
43010,-1.29378,-0.875189,-1.99717,0
43030,-1.28964,-0.864244,-2.00052,0
43050,-1.2847,-0.854677,-2.00322,0
43070,-1.28255,-0.845921,-2.0068,0
43090,-1.28027,-0.836716,-2.01355,0
43110,-1.28164,-0.825504,-2.01984,0
43130,-1.28158,-0.812591,-2.02453,0
43150,-1.27811,-0.800585,-2.02863,0
43170,-1.27515,-0.789212,-2.03149,0
43190,-1.27554,-0.777695,-2.03364,0
43210,-1.28098,-0.764535,-2.03419,0
43230,-1.29026,-0.750565,-2.03511,0
43250,-1.30031,-0.736052,-2.03487,0
43270,-1.31123,-0.720964,-2.03281,0
43290,-1.32606,-0.706707,-2.02862,0
43310,-1.33789,-0.69431,-2.02621,0
43330,-1.34655,-0.681696,-2.02412,0
43350,-1.35647,-0.669527,-2.01951,0
43370,-1.36998,-0.658486,-2.01515,0
43390,-1.38323,-0.647049,-2.01283,0
43410,-1.39534,-0.63418,-2.01199,0
43430,-1.40797,-0.620847,-2.00843,0
43450,-1.41889,-0.609063,-2.00444,0
43470,-1.42614,-0.598845,-2.00061,0
43490,-1.43202,-0.591006,-1.99603,0
43510,-1.43738,-0.58366,-1.99155,0
43530,-1.44456,-0.576798,-1.98577,0
43550,-1.45407,-0.572343,-1.97914,0
43570,-1.46234,-0.568466,-1.97195,0
43590,-1.46991,-0.56345,-1.96459,0
43610,-1.47781,-0.558985,-1.95671,0
43630,-1.48465,-0.55638,-1.94904,0
43650,-1.49165,-0.553236,-1.94056,0
43670,-1.49915,-0.549113,-1.93172,0
43690,-1.50694,-0.546644,-1.92391,0
43710,-1.51185,-0.543651,-1.9166,0
43730,-1.51699,-0.539433,-1.90769,0
43750,-1.52202,-0.535942,-1.89891,0
43770,-1.52883,-0.532648,-1.8899,0
43790,-1.53748,-0.528402,-1.87981,0
43810,-1.54567,-0.52362,-1.87006,0
43830,-1.55162,-0.518407,-1.85872,0
43850,-1.55988,-0.514957,-1.84544,0
43870,-1.56939,-0.511921,-1.8323,0
43890,-1.57897,-0.507904,-1.81885,0
43910,-1.58842,-0.50465,-1.80456,0
43930,-1.59828,-0.503528,-1.78931,0
43950,-1.60781,-0.502618,-1.7745,0
43970,-1.61595,-0.501645,-1.75973,0
43990,-1.62352,-0.501146,-1.74468,0
44010,-1.63399,-0.500786,-1.72985,0
44030,-1.64537,-0.498921,-1.71485,0
44050,-1.65635,-0.497501,-1.69941,0
44070,-1.664,-0.496475,-1.68356,0
44090,-1.67456,-0.496112,-1.66664,0
44110,-1.68613,-0.495269,-1.64956,0
44130,-1.69791,-0.494709,-1.63136,0
44150,-1.71002,-0.495803,-1.61338,0
44170,-1.72159,-0.497085,-1.59594,0
44190,-1.73223,-0.498518,-1.5778,0
44210,-1.7414,-0.501286,-1.55873,0
44230,-1.75176,-0.505951,-1.53916,0
44250,-1.76189,-0.511957,-1.52119,0
44270,-1.76909,-0.518995,-1.5037,0
44290,-1.77526,-0.527537,-1.48569,0
44310,-1.78337,-0.537269,-1.46692,0
44330,-1.79208,-0.54566,-1.44859,0
44350,-1.7986,-0.553113,-1.4321,0
44370,-1.8057,-0.561427,-1.41515,0
44390,-1.81414,-0.571463,-1.3973,0
44410,-1.82338,-0.582384,-1.37959,0
44430,-1.83212,-0.593167,-1.36125,0
44450,-1.83992,-0.603472,-1.3424,0
44470,-1.8493,-0.617826,-1.32406,0
44490,-1.85248,-0.637598,-1.30677,0
44510,-1.85174,-0.659579,-1.2894,0
44530,-1.85267,-0.680485,-1.27168,0
44550,-1.85998,-0.702011,-1.25546,0
44570,-1.8646,-0.723366,-1.24447,0
44590,-1.86254,-0.743216,-1.2379,0
44610,-1.86395,-0.761791,-1.22822,2001
44630,-1.8733,-0.779288,-1.21839,0
44650,-1.87781,-0.794621,-1.2136,0
44670,-1.87688,-0.807395,-1.21228,0
44690,-1.87961,-0.819353,-1.20925,0
44710,-1.88527,-0.83098,-1.20606,0
44730,-1.88957,-0.839594,-1.20385,0
44750,-1.89402,-0.845427,-1.20258,0
44770,-1.89794,-0.850202,-1.20186,0
44790,-1.89956,-0.854725,-1.20153,0
44810,-1.90111,-0.859614,-1.20194,0
44830,-1.90407,-0.863811,-1.20246,0
44850,-1.90887,-0.866837,-1.2029,0
44870,-1.91491,-0.868143,-1.20383,0
44890,-1.91467,-0.868747,-1.20862,0
44910,-1.91227,-0.870474,-1.21434,0
44930,-1.91341,-0.872211,-1.21877,0
44950,-1.9215,-0.874094,-1.2213,0
44970,-1.9306,-0.875213,-1.22663,0
44990,-1.93209,-0.875195,-1.23998,0
45010,-1.92807,-0.874154,-1.25474,0
45030,-1.92159,-0.871305,-1.26606,0
45050,-1.91284,-0.867493,-1.27544,0
45070,-1.90377,-0.863441,-1.28644,0
45090,-1.8938,-0.859023,-1.29957,0
45110,-1.88567,-0.854274,-1.31247,0
45130,-1.87638,-0.849183,-1.32707,0
45150,-1.86389,-0.840991,-1.34184,0
45170,-1.84722,-0.830354,-1.35761,0
45190,-1.82662,-0.818554,-1.3745,0
45210,-1.80217,-0.805919,-1.39245,0
45220,-1.77783,-0.791533,-1.41178,0
45240,-1.7524,-0.772863,-1.43197,0
45260,-1.72498,-0.752934,-1.45172,0
45280,-1.69841,-0.731471,-1.46954,0
45300,-1.66912,-0.707127,-1.49051,0
45320,-1.64073,-0.679986,-1.51283,0
45340,-1.6185,-0.653285,-1.53213,0
45360,-1.59531,-0.626177,-1.54939,0
45380,-1.56874,-0.597416,-1.56653,0
45400,-1.54189,-0.567624,-1.58318,0
45420,-1.51425,-0.536584,-1.59791,0
45440,-1.49143,-0.506606,-1.60803,0
45460,-1.46958,-0.477625,-1.61534,0
45480,-1.44721,-0.449608,-1.62374,0
45500,-1.4293,-0.42181,-1.63056,0
45520,-1.41662,-0.393902,-1.63177,0
45540,-1.40643,-0.369122,-1.6295,0
45560,-1.3924,-0.348339,-1.62895,0
45580,-1.37935,-0.328889,-1.62819,0
45600,-1.3703,-0.311759,-1.62476,0
45620,-1.36109,-0.298295,-1.62084,0
45640,-1.35053,-0.287297,-1.61897,0
45660,-1.33972,-0.276271,-1.61803,0
45680,-1.33254,-0.266385,-1.61607,0
45700,-1.3262,-0.258228,-1.6135,0
45720,-1.31954,-0.249389,-1.61131,0
45740,-1.31351,-0.239962,-1.60972,0
45760,-1.31012,-0.230983,-1.60845,0
45780,-1.3084,-0.22317,-1.60608,0
45800,-1.3072,-0.216039,-1.60243,0
45820,-1.30411,-0.209443,-1.59786,0
45840,-1.29981,-0.203545,-1.59291,0
45860,-1.29738,-0.199032,-1.58649,0
45880,-1.29927,-0.196505,-1.58105,0
45900,-1.30193,-0.196543,-1.57589,0
45920,-1.30343,-0.197537,-1.57014,0
45940,-1.30555,-0.199493,-1.56364,0
45960,-1.30808,-0.201667,-1.55662,0
45980,-1.30899,-0.202983,-1.54947,0
46000,-1.31067,-0.203026,-1.54221,0
46020,-1.31401,-0.203233,-1.53526,0
46040,-1.31838,-0.203686,-1.52745,0
46060,-1.32145,-0.204694,-1.51911,0
46080,-1.32242,-0.206536,-1.51122,0
46100,-1.3218,-0.209615,-1.50326,0
46120,-1.32165,-0.213658,-1.49417,0
46140,-1.31996,-0.2177,-1.48462,0
46160,-1.31825,-0.222856,-1.47539,0
46180,-1.31762,-0.229523,-1.46622,0
46200,-1.31854,-0.237401,-1.45585,0
46220,-1.32131,-0.245103,-1.44426,0
46240,-1.32348,-0.252573,-1.43263,0
46260,-1.32536,-0.260317,-1.4213,0
46280,-1.32674,-0.269909,-1.40944,0
46300,-1.32838,-0.280844,-1.39789,0
46320,-1.33208,-0.29073,-1.3873,0
46340,-1.33627,-0.29868,-1.37725,0
46360,-1.3405,-0.305947,-1.3681,0
46380,-1.3446,-0.31345,-1.35913,0
46400,-1.34663,-0.321928,-1.35209,0
46420,-1.34765,-0.329532,-1.34676,0
46440,-1.3492,-0.336422,-1.34309,0
46460,-1.35015,-0.34485,-1.33935,0
46480,-1.35155,-0.354692,-1.33568,0
46500,-1.35461,-0.363656,-1.33377,0
46520,-1.35746,-0.371163,-1.33422,0
46540,-1.35891,-0.380193,-1.33536,0
46560,-1.35974,-0.38952,-1.3365,0
46580,-1.36228,-0.398713,-1.33793,0
46600,-1.36667,-0.40789,-1.33964,0
46620,-1.37072,-0.417383,-1.34144,0
46640,-1.37414,-0.426529,-1.34322,0
46660,-1.37836,-0.43457,-1.34434,0
46680,-1.38423,-0.441891,-1.34615,0
46700,-1.39154,-0.447808,-1.34858,0
46720,-1.39854,-0.451815,-1.35333,0
46740,-1.40564,-0.453503,-1.35955,0
46760,-1.41145,-0.452771,-1.36733,0
46780,-1.41547,-0.449977,-1.37634,0
46800,-1.41593,-0.446584,-1.38824,0
46820,-1.41454,-0.442591,-1.40162,0
46840,-1.40977,-0.435557,-1.41458,0
46860,-1.40293,-0.425833,-1.42603,0
46880,-1.39174,-0.417018,-1.43526,0
46900,-1.3781,-0.408159,-1.44335,0
46920,-1.36769,-0.400047,-1.44942,0
46940,-1.3627,-0.392809,-1.45471,0
46960,-1.35645,-0.38673,-1.45967,0
46980,-1.35084,-0.380983,-1.46318,0
47000,-1.34972,-0.376249,-1.46443,0
47020,-1.34964,-0.37359,-1.46582,0
47040,-1.34892,-0.371755,-1.46724,0
47060,-1.3476,-0.369725,-1.46789,0
47080,-1.34595,-0.366463,-1.46779,0
47090,-1.3467,-0.362515,-1.46743,0
47120,-1.3481,-0.358238,-1.46845,0
47140,-1.35107,-0.35414,-1.47061,0
47160,-1.35533,-0.350235,-1.47393,0
47180,-1.36034,-0.344403,-1.47799,0
47200,-1.3633,-0.3364,-1.48298,0
47220,-1.36343,-0.327957,-1.4882,0
47230,-1.36266,-0.321756,-1.49428,0
47250,-1.36177,-0.315969,-1.50171,0
47270,-1.36467,-0.308525,-1.50932,0
47290,-1.37065,-0.30051,-1.51685,0
47310,-1.37579,-0.293054,-1.52431,0
47330,-1.37817,-0.285776,-1.53188,0
47350,-1.37997,-0.277969,-1.53878,0
47370,-1.38042,-0.269591,-1.54535,0
47390,-1.38045,-0.260789,-1.55196,0
47410,-1.38164,-0.252629,-1.55876,0
47430,-1.38409,-0.245715,-1.56536,0
47450,-1.38583,-0.238957,-1.5715,0
47470,-1.388,-0.231256,-1.57654,0
47490,-1.38682,-0.223814,-1.58101,0
47510,-1.38394,-0.218436,-1.58468,0
47530,-1.38132,-0.213367,-1.58737,0
47550,-1.38048,-0.208207,-1.58725,0
47570,-1.37972,-0.202645,-1.58482,0
47590,-1.37572,-0.19739,-1.5799,0
47610,-1.37004,-0.191915,-1.57665,0
47630,-1.36749,-0.188827,-1.5725,0
47650,-1.36777,-0.188754,-1.56719,0
47670,-1.36747,-0.189112,-1.56135,0
47690,-1.36696,-0.191034,-1.55466,0
47710,-1.36673,-0.194696,-1.54612,0
47730,-1.3674,-0.198666,-1.53751,0
47750,-1.36932,-0.20256,-1.52901,0
47770,-1.37135,-0.205595,-1.5205,0
47790,-1.37195,-0.209654,-1.51117,0
47810,-1.37194,-0.21629,-1.50123,0
47830,-1.37152,-0.223247,-1.49236,0
47850,-1.3719,-0.229232,-1.48444,0
47870,-1.37351,-0.234548,-1.47596,0
47890,-1.37386,-0.239426,-1.46698,0
47910,-1.37333,-0.244833,-1.4575,0
47930,-1.3737,-0.249304,-1.4484,0
47950,-1.37438,-0.25257,-1.43951,0
47970,-1.3742,-0.254867,-1.43039,0
47990,-1.37321,-0.25787,-1.42116,0
48010,-1.37266,-0.26176,-1.4125,0
48030,-1.37201,-0.266036,-1.40443,0
48050,-1.37358,-0.270766,-1.3964,0
48070,-1.37454,-0.276041,-1.38828,0
48090,-1.37486,-0.281471,-1.38104,0
48110,-1.37441,-0.286854,-1.37499,0
48130,-1.3718,-0.292158,-1.36934,0
48150,-1.37138,-0.299296,-1.36383,0
48170,-1.37208,-0.306982,-1.35893,0
48190,-1.37203,-0.313907,-1.35588,0
48210,-1.37307,-0.320263,-1.35316,0
48230,-1.37515,-0.327195,-1.34966,0
48250,-1.37709,-0.33404,-1.34701,0
48270,-1.37828,-0.340221,-1.34613,0
48290,-1.37895,-0.345736,-1.34592,0
48310,-1.38015,-0.351443,-1.34563,0
48330,-1.38177,-0.357972,-1.34588,0
48350,-1.38254,-0.364909,-1.34677,0
48370,-1.38389,-0.371497,-1.34734,0
48390,-1.38601,-0.378062,-1.34744,0
48410,-1.38817,-0.386586,-1.34672,0
48430,-1.39178,-0.396474,-1.3455,0
48450,-1.39572,-0.406023,-1.34424,0
48470,-1.39893,-0.413649,-1.34383,0
48490,-1.40205,-0.420963,-1.34267,0
48510,-1.40517,-0.429257,-1.34046,0
48530,-1.40811,-0.436593,-1.33868,0
48550,-1.41187,-0.441892,-1.33795,0
48570,-1.4153,-0.446574,-1.33803,0
48590,-1.41715,-0.452439,-1.33903,0
48610,-1.41615,-0.45882,-1.33992,0
48630,-1.41438,-0.464689,-1.34108,0
48650,-1.41184,-0.468871,-1.34472,0
48670,-1.40923,-0.472438,-1.34936,0
48690,-1.40928,-0.477173,-1.353,0
48710,-1.41035,-0.482232,-1.35567,0
48730,-1.41242,-0.485803,-1.35857,0
48750,-1.41424,-0.486952,-1.36352,0
48770,-1.41631,-0.485895,-1.36932,0
48790,-1.41925,-0.482658,-1.37456,0
48810,-1.42235,-0.479206,-1.38111,0
48830,-1.4242,-0.474583,-1.38874,0
48850,-1.42517,-0.470235,-1.39644,0
48870,-1.42419,-0.465449,-1.40446,0
48890,-1.42146,-0.45921,-1.41328,0
48910,-1.41953,-0.452074,-1.42148,0
48930,-1.41524,-0.444886,-1.42979,0
48950,-1.41106,-0.436985,-1.43629,0
48970,-1.40676,-0.429638,-1.43968,0
48990,-1.40355,-0.42245,-1.44042,0
49010,-1.4012,-0.416964,-1.44219,0
49030,-1.39924,-0.411899,-1.44543,0
49050,-1.39824,-0.405549,-1.44845,0
49070,-1.39903,-0.399672,-1.45074,0
49090,-1.39925,-0.395429,-1.4539,0
49110,-1.39912,-0.390564,-1.45838,0
49130,-1.39873,-0.382765,-1.46243,0
49150,-1.39678,-0.374407,-1.46714,0
49170,-1.39436,-0.366882,-1.47242,0
49190,-1.39348,-0.358819,-1.47837,0
49210,-1.39434,-0.349736,-1.48456,0
49230,-1.39561,-0.340922,-1.49081,0
49250,-1.39614,-0.333167,-1.49721,0
49270,-1.39562,-0.32483,-1.50397,0
49290,-1.39632,-0.317023,-1.51086,0
49310,-1.39597,-0.310288,-1.51819,0
49330,-1.39658,-0.303798,-1.52528,0
49350,-1.3994,-0.296651,-1.53257,0
49370,-1.40053,-0.289713,-1.54146,0
49390,-1.40136,-0.281316,-1.55087,0
49410,-1.40163,-0.271718,-1.5605,0
49430,-1.39976,-0.261386,-1.56977,0
49450,-1.39624,-0.251124,-1.57799,0
49470,-1.39335,-0.241456,-1.58565,0
49490,-1.39164,-0.232035,-1.59229,0
49510,-1.39153,-0.223737,-1.59753,0
49530,-1.39102,-0.216765,-1.60167,0
49550,-1.39064,-0.210936,-1.60494,0
49570,-1.39026,-0.205871,-1.60787,0
49590,-1.3888,-0.201175,-1.61046,0
49610,-1.38634,-0.196963,-1.61249,0
49630,-1.38437,-0.194176,-1.61233,0
49650,-1.38209,-0.19182,-1.61082,0
49670,-1.37654,-0.18903,-1.60787,0
49690,-1.37224,-0.186343,-1.60347,0
49710,-1.36965,-0.185568,-1.59751,0
49730,-1.36924,-0.185492,-1.59016,0
49750,-1.3687,-0.184514,-1.58269,0
49770,-1.36845,-0.183878,-1.57393,0
49790,-1.36736,-0.183624,-1.56385,0
49810,-1.36533,-0.185569,-1.55308,0
49830,-1.3638,-0.189361,-1.54166,0
49850,-1.36106,-0.194211,-1.52922,0
49870,-1.35675,-0.200744,-1.51586,0
49890,-1.35387,-0.209019,-1.5032,0
49910,-1.35281,-0.21647,-1.49233,0
49930,-1.35223,-0.221594,-1.48223,0
49950,-1.35134,-0.225931,-1.47156,0
49970,-1.35163,-0.231528,-1.45988,0
49990,-1.35129,-0.238453,-1.45021,0
50010,-1.35215,-0.243539,-1.44256,0
50030,-1.35358,-0.246952,-1.43562,0
50050,-1.35591,-0.250852,-1.42815,0
50070,-1.35696,-0.25558,-1.42038,0
50090,-1.3566,-0.260348,-1.41398,0
50110,-1.35589,-0.264482,-1.40902,0
50130,-1.35582,-0.26824,-1.40566,0
50150,-1.356,-0.271642,-1.40296,0
50170,-1.35683,-0.275467,-1.40032,0
50190,-1.35462,-0.278483,-1.39878,0
50210,-1.35082,-0.280115,-1.39846,0
50230,-1.34886,-0.280704,-1.39825,0
50250,-1.3469,-0.281402,-1.39818,0
50270,-1.34291,-0.282382,-1.39854,0
50290,-1.33827,-0.283029,-1.39968,0
50310,-1.33151,-0.283955,-1.40188,0
50330,-1.32253,-0.28582,-1.4038,0
50350,-1.31495,-0.288048,-1.40602,0
50370,-1.30686,-0.29022,-1.40963,0
50390,-1.29665,-0.292147,-1.41433,0
50410,-1.28802,-0.294438,-1.41721,0
50430,-1.28301,-0.296925,-1.41794,0
50450,-1.27844,-0.298178,-1.4193,0
50470,-1.27356,-0.2988,-1.42162,0
50490,-1.26849,-0.298524,-1.42382,0
50510,-1.26449,-0.298769,-1.42465,0
50530,-1.26017,-0.302368,-1.42598,0
50550,-1.25119,-0.310184,-1.42937,0
50570,-1.24243,-0.320679,-1.43553,0
50590,-1.23582,-0.330787,-1.44327,0
50610,-1.23163,-0.336704,-1.4485,0
50630,-1.23335,-0.33817,-1.45165,0
50650,-1.23486,-0.336557,-1.45322,0
50670,-1.23346,-0.335233,-1.45311,0
50690,-1.23037,-0.334528,-1.45215,0
50700,-1.22591,-0.33362,-1.45115,0
50720,-1.22272,-0.332651,-1.45081,0
50740,-1.22044,-0.331295,-1.45159,0
50760,-1.21905,-0.329295,-1.45256,0
50780,-1.21902,-0.327505,-1.45255,0
50800,-1.21862,-0.326431,-1.45301,0
50820,-1.21455,-0.327024,-1.45576,0
50840,-1.20833,-0.32889,-1.46046,0
50860,-1.20313,-0.33011,-1.46521,0
50880,-1.1994,-0.329657,-1.4695,0
50900,-1.19691,-0.327961,-1.47236,0
50920,-1.19487,-0.325426,-1.47281,0
50940,-1.19095,-0.321166,-1.47268,0
50960,-1.18597,-0.317351,-1.47336,0
50980,-1.18312,-0.314241,-1.47375,0
51000,-1.18138,-0.310154,-1.47415,0
51020,-1.18262,-0.306919,-1.47444,0
51040,-1.1866,-0.306848,-1.47382,0
51060,-1.18945,-0.307216,-1.47395,0
51080,-1.18611,-0.307735,-1.47484,0
51100,-1.18654,-0.307441,-1.47476,0
51120,-1.1877,-0.304562,-1.47507,0
51140,-1.18999,-0.301892,-1.47536,0
51160,-1.19399,-0.303048,-1.47385,0
51180,-1.1935,-0.304453,-1.47142,0
51200,-1.18838,-0.305143,-1.46907,0
51220,-1.18053,-0.309878,-1.46836,0
51240,-1.17515,-0.315874,-1.46817,0
51260,-1.17735,-0.319503,-1.46607,0
51280,-1.18349,-0.318939,-1.46494,0
51300,-1.18958,-0.31552,-1.46576,0
51320,-1.19486,-0.311681,-1.46736,0
51340,-1.19994,-0.30777,-1.46579,0
51360,-1.20186,-0.308024,-1.45817,0
51380,-1.2019,-0.311128,-1.45345,0
51400,-1.2014,-0.312895,-1.45414,0
51420,-1.20279,-0.313407,-1.45784,0
51440,-1.20656,-0.311512,-1.46245,0
51460,-1.21136,-0.307012,-1.46928,0
51480,-1.21597,-0.300574,-1.47744,0
51500,-1.21733,-0.294201,-1.48526,0
51520,-1.21346,-0.289357,-1.49248,0
51540,-1.2099,-0.287199,-1.49929,0
51560,-1.21051,-0.286012,-1.50535,0
51580,-1.21423,-0.28403,-1.50954,0
51600,-1.22043,-0.281846,-1.51125,0
51620,-1.22535,-0.27898,-1.51083,0
51640,-1.22634,-0.273888,-1.50953,0
51660,-1.22411,-0.268498,-1.50675,0
51680,-1.2209,-0.264973,-1.50417,0
51700,-1.2182,-0.262438,-1.50243,0
51720,-1.21666,-0.26044,-1.50123,0
51740,-1.21616,-0.259463,-1.49955,0
51760,-1.21738,-0.258316,-1.49827,0
51780,-1.21811,-0.255873,-1.49641,0
51800,-1.21776,-0.253686,-1.49539,0
51820,-1.21535,-0.251655,-1.49573,0
51840,-1.2148,-0.250297,-1.49693,0
51860,-1.21814,-0.249688,-1.49945,0
51880,-1.22251,-0.250206,-1.50165,0
51900,-1.2264,-0.252153,-1.50218,0
51920,-1.22947,-0.25585,-1.49978,0
51940,-1.2311,-0.260744,-1.49785,0
51960,-1.23524,-0.2685,-1.49976,0
51980,-1.24484,-0.278778,-1.50625,0
52000,-1.25682,-0.288345,-1.51568,0
52020,-1.26754,-0.294053,-1.52507,0
52040,-1.27524,-0.294889,-1.53482,0
52060,-1.27691,-0.293664,-1.54387,0
52080,-1.27201,-0.292698,-1.5531,0
52100,-1.26604,-0.289788,-1.56354,0
52120,-1.26551,-0.283624,-1.57618,0
52140,-1.26977,-0.276596,-1.58926,0
52160,-1.27443,-0.269427,-1.60194,0
52180,-1.28354,-0.262357,-1.61309,0
52200,-1.30038,-0.255673,-1.62192,0
52220,-1.31628,-0.24898,-1.63044,0
52240,-1.32813,-0.241889,-1.63675,0
52260,-1.33471,-0.235987,-1.63949,0
52280,-1.33734,-0.2307,-1.63912,0
52300,-1.33635,-0.226095,-1.63864,0
52320,-1.33439,-0.223012,-1.63862,0
52340,-1.33435,-0.22104,-1.63905,0
52360,-1.33727,-0.22086,-1.63745,0
52380,-1.34181,-0.22143,-1.6354,0
52400,-1.34475,-0.222092,-1.63273,0
52420,-1.34582,-0.222798,-1.62875,0
52440,-1.34445,-0.223455,-1.62192,0
52460,-1.34013,-0.223941,-1.61404,0
52480,-1.33682,-0.226212,-1.6065,0
52500,-1.33575,-0.228328,-1.59992,0
52520,-1.33579,-0.229164,-1.59268,0
52540,-1.33719,-0.230333,-1.58475,0
52560,-1.34093,-0.232129,-1.57742,0
52580,-1.34578,-0.234217,-1.57165,0
52600,-1.34803,-0.236434,-1.56481,0
52620,-1.35064,-0.23883,-1.55736,0
52640,-1.3521,-0.239985,-1.54968,0
52660,-1.34924,-0.23869,-1.54134,0
52680,-1.34541,-0.236067,-1.53284,0
52690,-1.34033,-0.233334,-1.52534,0
52710,-1.33337,-0.230991,-1.51936,0
52730,-1.32719,-0.228541,-1.51555,0
52750,-1.32153,-0.224915,-1.51293,0
52770,-1.31661,-0.221094,-1.51103,0
52790,-1.31163,-0.218404,-1.50918,0
52810,-1.30486,-0.215657,-1.50831,0
52830,-1.29721,-0.213294,-1.50836,0
52850,-1.28989,-0.210414,-1.50881,0
52870,-1.28279,-0.206232,-1.509,0
52890,-1.2756,-0.200872,-1.50944,0
52910,-1.26882,-0.197144,-1.51062,0
52930,-1.26262,-0.19435,-1.51224,0
52950,-1.25787,-0.190754,-1.51323,0
52970,-1.25175,-0.186564,-1.51286,0
52990,-1.24528,-0.184926,-1.51212,0
53010,-1.24007,-0.185823,-1.51184,0
53030,-1.23828,-0.187714,-1.51145,0
53050,-1.23876,-0.187194,-1.51144,0
53070,-1.24124,-0.183613,-1.51291,0
53090,-1.24331,-0.180037,-1.51508,0
53110,-1.24386,-0.177944,-1.51705,0
53130,-1.24289,-0.174713,-1.5184,0
53150,-1.24134,-0.170404,-1.52034,0
53170,-1.2383,-0.16793,-1.52444,0
53190,-1.23634,-0.167996,-1.52804,0
53210,-1.23624,-0.168421,-1.53127,0
53230,-1.23775,-0.167531,-1.5337,0
53250,-1.23633,-0.167013,-1.53489,0
53270,-1.2343,-0.167455,-1.53511,0
53290,-1.22999,-0.168483,-1.53585,0
53310,-1.2251,-0.169839,-1.53717,0
53330,-1.22256,-0.171879,-1.53977,0
53350,-1.22101,-0.172349,-1.54293,0
53370,-1.21806,-0.171154,-1.54518,0
53390,-1.21639,-0.170639,-1.54598,0
53410,-1.21671,-0.170564,-1.5471,0
53430,-1.21646,-0.169343,-1.54865,0
53450,-1.21601,-0.168514,-1.55048,0
53470,-1.21591,-0.167766,-1.55131,0
53490,-1.21516,-0.166041,-1.5513,0
53510,-1.21428,-0.164496,-1.55173,0
53530,-1.21189,-0.162726,-1.55116,0
53550,-1.20922,-0.160253,-1.54975,0
53570,-1.20639,-0.157923,-1.54793,0
53590,-1.20253,-0.156092,-1.54626,0
53610,-1.19821,-0.153502,-1.54438,0
53630,-1.19645,-0.151697,-1.544,0
53650,-1.19515,-0.149539,-1.54453,0
53670,-1.1947,-0.146276,-1.54463,0
53690,-1.19354,-0.141703,-1.544,0
53710,-1.19173,-0.138996,-1.54205,0
53730,-1.19288,-0.138922,-1.54065,0
53750,-1.19217,-0.138326,-1.53995,0
53770,-1.19124,-0.13803,-1.53976,0
53790,-1.19084,-0.138516,-1.53985,0
53810,-1.19035,-0.13893,-1.53972,0
53830,-1.191,-0.139162,-1.53974,0
53850,-1.19314,-0.137896,-1.53911,0
53870,-1.19599,-0.137262,-1.53715,0
53890,-1.19671,-0.13847,-1.53425,0
53910,-1.1991,-0.140181,-1.53203,0
53930,-1.20444,-0.143433,-1.53105,0
53950,-1.2124,-0.149139,-1.53099,0
53970,-1.22304,-0.15709,-1.53195,0
53990,-1.23583,-0.16713,-1.5336,0
54010,-1.24684,-0.177712,-1.53604,0
54030,-1.25582,-0.186941,-1.54144,0
54050,-1.26294,-0.192815,-1.54779,0
54070,-1.26896,-0.196032,-1.55328,0
54090,-1.27342,-0.198375,-1.55883,0
54110,-1.27673,-0.199357,-1.56507,0
54130,-1.27884,-0.199875,-1.57361,0
54150,-1.27959,-0.200774,-1.58295,0
54170,-1.2793,-0.202611,-1.59087,0
54190,-1.27637,-0.205275,-1.59857,0
54210,-1.27346,-0.208193,-1.60737,0
54230,-1.27083,-0.209281,-1.61594,0
54250,-1.26815,-0.208231,-1.62362,0
54270,-1.26562,-0.207017,-1.62862,0
54290,-1.26221,-0.206146,-1.63155,0
54310,-1.2564,-0.204758,-1.63475,0
54330,-1.25206,-0.202201,-1.63788,0
54350,-1.25187,-0.199694,-1.63917,0
54370,-1.2545,-0.197788,-1.63899,0
54390,-1.25709,-0.196594,-1.63811,0
54410,-1.25829,-0.195219,-1.63706,0
54430,-1.25833,-0.193622,-1.63575,0
54450,-1.25857,-0.192996,-1.6339,0
54470,-1.25938,-0.1933,-1.63148,0
54490,-1.26004,-0.193752,-1.62918,0
54510,-1.25981,-0.193754,-1.6262,0
54530,-1.26017,-0.193935,-1.62301,0
54550,-1.26084,-0.194656,-1.62039,0
54570,-1.26161,-0.195379,-1.61826,0
54590,-1.26503,-0.196044,-1.61604,0
54610,-1.26997,-0.197526,-1.61355,0
54630,-1.27421,-0.198853,-1.61143,0
54650,-1.27754,-0.200377,-1.60997,0
54670,-1.28084,-0.201138,-1.60872,0
54690,-1.28127,-0.200715,-1.60739,0
54710,-1.28118,-0.199724,-1.60518,0
54730,-1.28201,-0.198685,-1.60124,0
54750,-1.28263,-0.19719,-1.59701,2000
54770,-1.2823,-0.197673,-1.59362,0
54790,-1.28269,-0.200594,-1.59139,0
54810,-1.28358,-0.203933,-1.58878,0
54830,-1.28388,-0.206957,-1.58452,0
54850,-1.28613,-0.210744,-1.58012,0
54870,-1.2898,-0.215217,-1.57627,0
54890,-1.29484,-0.218958,-1.57153,0
54910,-1.29828,-0.221852,-1.56472,0
54930,-1.29776,-0.224972,-1.55648,0
54950,-1.29597,-0.228615,-1.54704,0
54970,-1.29529,-0.232788,-1.53776,0
54990,-1.2957,-0.237463,-1.52793,0
55010,-1.29637,-0.242969,-1.51801,0
55030,-1.29817,-0.248756,-1.50903,0
55050,-1.30015,-0.253644,-1.49992,0
55070,-1.303,-0.257938,-1.49053,0
55090,-1.30567,-0.262295,-1.48106,0
55110,-1.30656,-0.267001,-1.47293,0
55130,-1.30641,-0.271401,-1.4651,0
55150,-1.30723,-0.276445,-1.45698,0
55170,-1.30751,-0.282843,-1.44939,0
55190,-1.30774,-0.290936,-1.44402,0
55210,-1.3084,-0.299607,-1.43964,0
55230,-1.31078,-0.307635,-1.43512,0
55250,-1.31554,-0.315363,-1.43097,0
55270,-1.31875,-0.323134,-1.428,0
55290,-1.32056,-0.330314,-1.42606,0
55310,-1.32246,-0.336813,-1.4241,0
55330,-1.32539,-0.344047,-1.42155,0
55350,-1.32817,-0.352155,-1.42036,0
55370,-1.32919,-0.360622,-1.42148,0
55390,-1.32913,-0.368789,-1.42395,0
55410,-1.33009,-0.376897,-1.42732,0
55430,-1.33103,-0.385099,-1.43072,0
55450,-1.33204,-0.393567,-1.43376,0
55470,-1.33225,-0.4026,-1.43748,0
55490,-1.33169,-0.412383,-1.44182,0
55510,-1.33112,-0.422338,-1.44638,0
55530,-1.33065,-0.432535,-1.45053,0
55550,-1.33137,-0.441925,-1.45472,0
55570,-1.3331,-0.450409,-1.46071,0
55590,-1.3337,-0.458086,-1.4693,0
55610,-1.33462,-0.465277,-1.4799,0
55630,-1.33475,-0.472938,-1.49075,0
55650,-1.33295,-0.481203,-1.50203,0
55670,-1.33094,-0.490691,-1.514,0
55690,-1.32879,-0.500717,-1.52752,0
55720,-1.3264,-0.523334,-1.56027,0
55740,-1.32592,-0.534173,-1.57852,0
55750,-1.32242,-0.557053,-1.61722,0
55770,-1.32053,-0.569179,-1.63699,0
55790,-1.31841,-0.581271,-1.65872,0
55800,-1.3144,-0.593113,-1.68205,0
55820,-1.30973,-0.604376,-1.70557,0
55840,-1.30538,-0.615781,-1.7296,0
55860,-1.29996,-0.625905,-1.75472,0
55880,-1.29348,-0.634581,-1.77996,0
55900,-1.28577,-0.642195,-1.8057,0
55920,-1.27759,-0.649721,-1.83029,0
55940,-1.269,-0.657032,-1.85309,0
55960,-1.26049,-0.663486,-1.87535,0
55980,-1.25386,-0.668569,-1.89573,0
56000,-1.24675,-0.672288,-1.91627,0
56020,-1.23991,-0.674321,-1.93638,0
56040,-1.23427,-0.675147,-1.95501,0
56060,-1.22896,-0.673461,-1.97268,0
56080,-1.22317,-0.670361,-1.98849,0
56090,-1.21662,-0.667166,-2.00215,0
56110,-1.21201,-0.662258,-2.01273,0
56130,-1.20927,-0.65691,-2.02075,0
56150,-1.20991,-0.652427,-2.02759,0
56170,-1.21015,-0.648095,-2.03803,0
56190,-1.20974,-0.6426,-2.05026,0
56210,-1.2115,-0.635512,-2.06145,0
56230,-1.2115,-0.626733,-2.07171,0
56250,-1.2086,-0.618791,-2.08113,0
56270,-1.20431,-0.611165,-2.08803,0
56290,-1.20085,-0.602503,-2.09397,0
56310,-1.19579,-0.59429,-2.10038,0
56330,-1.19073,-0.586213,-2.10724,0
56350,-1.18859,-0.577914,-2.11353,0
56370,-1.1891,-0.569185,-2.11977,0
56390,-1.19096,-0.560595,-2.12471,0
56410,-1.19192,-0.552818,-2.12722,0
56430,-1.19294,-0.545679,-2.12912,0
56450,-1.19128,-0.539728,-2.13181,0
56470,-1.18934,-0.533504,-2.13516,0
56490,-1.19022,-0.526557,-2.1381,0
56510,-1.19025,-0.519268,-2.14116,0
56530,-1.18866,-0.512886,-2.14296,0
56550,-1.18791,-0.507074,-2.14397,0
56570,-1.18861,-0.500934,-2.14506,0
56590,-1.18794,-0.493758,-2.14632,0
56610,-1.18804,-0.485885,-2.14659,0
56630,-1.18738,-0.479549,-2.14666,0
56650,-1.18776,-0.473941,-2.14734,0
56670,-1.19138,-0.46731,-2.14827,0
56690,-1.19355,-0.459985,-2.14918,0
56710,-1.19251,-0.45195,-2.14984,0
56730,-1.18936,-0.4441,-2.14955,0
56750,-1.18744,-0.436895,-2.14831,0
56770,-1.18844,-0.429298,-2.14667,0
56790,-1.19273,-0.421405,-2.14565,0
56810,-1.19881,-0.413866,-2.14403,0
56830,-1.20385,-0.407063,-2.14203,0
56850,-1.20838,-0.400588,-2.13965,0
56870,-1.21128,-0.394722,-2.13711,0
56890,-1.21376,-0.389226,-2.13398,0
56910,-1.2164,-0.384996,-2.1307,0
56930,-1.21741,-0.381311,-2.12824,0
56950,-1.21842,-0.377736,-2.12599,0
56970,-1.22115,-0.374876,-2.1226,0
56990,-1.22433,-0.372185,-2.11925,0
57010,-1.22764,-0.369232,-2.1156,0
57030,-1.23106,-0.366348,-2.11106,0
57050,-1.23202,-0.362591,-2.10596,0
57070,-1.23332,-0.358913,-2.10042,0
57090,-1.23434,-0.356184,-2.09466,0
57110,-1.23563,-0.353266,-2.08886,0
57130,-1.23872,-0.349611,-2.08183,0
57150,-1.24254,-0.347188,-2.07409,0
57170,-1.24514,-0.345352,-2.06667,0
57190,-1.24735,-0.343153,-2.05931,0
57210,-1.25091,-0.339834,-2.05068,0
57230,-1.25703,-0.336388,-2.04114,0
57250,-1.26321,-0.333191,-2.03149,0
57270,-1.26644,-0.329745,-2.02238,0
57290,-1.27004,-0.326017,-2.01293,0
57310,-1.27459,-0.32189,-2.00289,0
57330,-1.27984,-0.317358,-1.99288,0
57350,-1.28372,-0.312712,-1.98313,0
57370,-1.28576,-0.308101,-1.97338,0
57390,-1.28766,-0.303698,-1.96385,0
57410,-1.29092,-0.299277,-1.95378,0
57430,-1.29317,-0.29599,-1.94273,0
57450,-1.2953,-0.293214,-1.93093,0
57470,-1.29909,-0.291339,-1.919,0
57490,-1.30399,-0.290368,-1.9071,0
57510,-1.30875,-0.290231,-1.89564,0
57530,-1.3147,-0.290014,-1.88431,0
57550,-1.32272,-0.290054,-1.87268,0
57570,-1.32992,-0.290138,-1.8607,0
57590,-1.33569,-0.290263,-1.84829,0
57610,-1.34065,-0.290161,-1.83545,0
57630,-1.34568,-0.290773,-1.82179,0
57650,-1.35104,-0.29143,-1.80831,0
57670,-1.357,-0.290663,-1.79521,0
57690,-1.36405,-0.289143,-1.782,0
57710,-1.37249,-0.287583,-1.76747,0
57730,-1.38048,-0.286526,-1.75201,0
57750,-1.38769,-0.285353,-1.73636,0
57770,-1.39562,-0.284443,-1.71957,0
57790,-1.40465,-0.284647,-1.70155,0
57810,-1.41409,-0.28585,-1.68285,0
57830,-1.4242,-0.287596,-1.6642,0
57850,-1.43433,-0.289457,-1.64541,0
57870,-1.44469,-0.292114,-1.62619,0
57890,-1.45293,-0.294591,-1.60755,0
57910,-1.46106,-0.297788,-1.58952,0
57930,-1.46888,-0.301727,-1.57186,0
57950,-1.4754,-0.30594,-1.55486,0
57970,-1.48071,-0.310381,-1.53916,0
57990,-1.48748,-0.314377,-1.52376,0
58010,-1.49448,-0.318984,-1.50818,0
58030,-1.49805,-0.325539,-1.49361,0
58050,-1.49964,-0.332635,-1.47986,0
58070,-1.50253,-0.33959,-1.4668,0
58080,-1.50704,-0.345655,-1.45284,0
58100,-1.51144,-0.35288,-1.43945,0
58120,-1.51441,-0.360882,-1.42712,0
58140,-1.51773,-0.369656,-1.41504,0
58160,-1.52287,-0.378103,-1.40323,0
58180,-1.52782,-0.386109,-1.3929,0
58200,-1.53199,-0.394075,-1.3838,0
58220,-1.53661,-0.403396,-1.37449,0
58240,-1.54189,-0.41409,-1.36449,0
58260,-1.54575,-0.424555,-1.35733,0
58280,-1.54799,-0.43431,-1.35297,0
58300,-1.55178,-0.444036,-1.34908,0
58320,-1.55585,-0.453819,-1.34533,0
58340,-1.5584,-0.464231,-1.34314,0
58360,-1.55876,-0.474655,-1.34315,0
58380,-1.56045,-0.484755,-1.34303,0
58400,-1.56411,-0.494826,-1.34283,0
58420,-1.56501,-0.505671,-1.34493,0
58440,-1.5654,-0.516856,-1.3496,0
58460,-1.5679,-0.526482,-1.35427,0
58480,-1.5718,-0.534978,-1.35694,0
58500,-1.57304,-0.545717,-1.35915,0
58520,-1.57381,-0.558027,-1.36146,0
58540,-1.57422,-0.570396,-1.36598,0
58560,-1.57504,-0.582533,-1.37123,0
58580,-1.5779,-0.594881,-1.37634,0
58600,-1.58089,-0.60738,-1.38066,0
58620,-1.5816,-0.620679,-1.38597,0
58640,-1.58059,-0.634202,-1.39273,0
58660,-1.58077,-0.647707,-1.3997,0
58680,-1.58178,-0.660135,-1.40668,0
58700,-1.58215,-0.672192,-1.41524,0
58720,-1.58049,-0.684132,-1.426,0
58740,-1.57641,-0.696805,-1.43967,0
58760,-1.57131,-0.707878,-1.45443,0
58780,-1.56564,-0.718807,-1.47099,0
58800,-1.5582,-0.729198,-1.48931,0
58820,-1.54974,-0.740237,-1.50695,0
58840,-1.54222,-0.751191,-1.52381,0
58860,-1.53492,-0.761619,-1.54172,0
58880,-1.52526,-0.771615,-1.56098,0
58900,-1.51616,-0.780609,-1.57986,0
58920,-1.50667,-0.789289,-1.59938,0
58940,-1.49751,-0.798273,-1.61855,0
58960,-1.48816,-0.807111,-1.63724,0
58980,-1.47957,-0.815095,-1.65621,0
59000,-1.46949,-0.822268,-1.67595,0
59020,-1.45922,-0.828104,-1.69548,0
59040,-1.44957,-0.833118,-1.7144,0
59060,-1.43906,-0.837758,-1.73325,0
59080,-1.42771,-0.841888,-1.75383,0
59100,-1.41488,-0.844062,-1.77423,0
59120,-1.40272,-0.845639,-1.79312,0
59140,-1.39002,-0.847166,-1.81273,0
59160,-1.37685,-0.847117,-1.83233,0
59180,-1.36469,-0.844529,-1.85082,0
59200,-1.35283,-0.841791,-1.86832,0
59220,-1.33949,-0.839136,-1.88499,0
59240,-1.32697,-0.83616,-1.90129,0
59260,-1.31679,-0.831764,-1.91781,0
59280,-1.30554,-0.826418,-1.93441,0
59300,-1.29423,-0.820042,-1.94934,0
59320,-1.28444,-0.81346,-1.96176,0
59340,-1.27616,-0.806514,-1.97308,0
59360,-1.26859,-0.799164,-1.9839,0
59380,-1.26231,-0.791531,-1.99315,0
59400,-1.25744,-0.783122,-2.00233,0
59420,-1.2524,-0.775089,-2.01081,0
59440,-1.24895,-0.767301,-2.01824,0
59460,-1.24544,-0.759198,-2.02602,0
59480,-1.24102,-0.751874,-2.03432,0
59500,-1.23652,-0.7443,-2.0435,0
59520,-1.23219,-0.736494,-2.0533,0
59540,-1.22409,-0.729913,-2.06322,0
59560,-1.21724,-0.724577,-2.06893,0
59580,-1.2123,-0.719699,-2.07281,0
59600,-1.20985,-0.714863,-2.07491,0
59620,-1.20888,-0.708577,-2.07538,0
59640,-1.20709,-0.700711,-2.07392,0
59660,-1.20578,-0.691863,-2.071,0
59680,-1.20472,-0.682891,-2.06954,0
59700,-1.20172,-0.67475,-2.06841,0
59720,-1.20018,-0.667221,-2.06557,0
59740,-1.19922,-0.660783,-2.06203,0
59760,-1.19779,-0.654554,-2.05927,0
59780,-1.19812,-0.648503,-2.05661,0
59800,-1.19894,-0.643053,-2.05392,0
59820,-1.20196,-0.637578,-2.05029,0
59840,-1.20492,-0.63193,-2.04746,0
59860,-1.20638,-0.626165,-2.04558,0
59880,-1.20827,-0.620004,-2.04327,0
59900,-1.20939,-0.614357,-2.04094,0
59920,-1.21161,-0.607743,-2.03743,0
59940,-1.21515,-0.600633,-2.0342,0
59960,-1.21651,-0.594066,-2.03161,0
59980,-1.21728,-0.587556,-2.02831,0
60000,-1.22025,-0.581133,-2.02375,0
60020,-1.22406,-0.575297,-2.01948,0
60040,-1.22708,-0.569454,-2.01634,0
60060,-1.23037,-0.563131,-2.0117,0
60080,-1.23528,-0.556632,-2.00494,0
60100,-1.23855,-0.551357,-1.99792,0
60120,-1.24048,-0.547726,-1.99052,0
60140,-1.24358,-0.544593,-1.98242,0
60160,-1.24915,-0.541335,-1.97418,0
60180,-1.25539,-0.5378,-1.96661,0
60200,-1.26032,-0.533747,-1.95781,0
60220,-1.26349,-0.530554,-1.94824,0
60240,-1.26679,-0.528489,-1.93896,0
60260,-1.27142,-0.525907,-1.92963,0
60280,-1.27464,-0.521507,-1.92011,0
60300,-1.27786,-0.517915,-1.90914,0
60320,-1.28164,-0.516516,-1.8966,0
60340,-1.28587,-0.51757,-1.88267,0
60360,-1.2914,-0.518813,-1.86911,0
60380,-1.29716,-0.519414,-1.85726,0
60400,-1.3033,-0.519548,-1.84612,0
60420,-1.30989,-0.519214,-1.83438,0
60440,-1.31622,-0.518406,-1.82206,0
60460,-1.32166,-0.517539,-1.81061,0
60480,-1.32563,-0.515557,-1.80033,0
60500,-1.33068,-0.512915,-1.79023,0
60520,-1.33799,-0.510676,-1.78033,0
60540,-1.34634,-0.508133,-1.76973,0
60560,-1.35454,-0.504181,-1.75952,0
60580,-1.36237,-0.500342,-1.74963,0
60600,-1.36875,-0.497185,-1.73931,0
60620,-1.37486,-0.494609,-1.72886,0
60640,-1.38137,-0.49208,-1.71825,0
60660,-1.38855,-0.4905,-1.70693,0
60680,-1.39586,-0.489464,-1.69465,0
60700,-1.40406,-0.488284,-1.68188,0
60720,-1.41172,-0.48737,-1.66923,0
60740,-1.41928,-0.486989,-1.65613,0
60760,-1.4274,-0.486825,-1.64251,0
60780,-1.4364,-0.486669,-1.62926,0
60800,-1.44483,-0.487147,-1.61609,0
60820,-1.45118,-0.487523,-1.60285,0
60840,-1.45875,-0.48814,-1.58766,0
60860,-1.46971,-0.489629,-1.57138,0
60880,-1.47931,-0.492218,-1.55529,0
60900,-1.48816,-0.495756,-1.53806,0
60920,-1.4999,-0.499953,-1.51936,0
60940,-1.51312,-0.504323,-1.50072,0
60960,-1.52284,-0.509634,-1.4831,0
60980,-1.53152,-0.515602,-1.46481,0
61000,-1.54322,-0.521865,-1.44597,0
61020,-1.55536,-0.528208,-1.42771,0
61040,-1.56511,-0.535,-1.40977,0
61060,-1.5741,-0.542644,-1.39166,0
61080,-1.5843,-0.54981,-1.37406,0
61100,-1.59533,-0.555873,-1.35711,0
61120,-1.60692,-0.56289,-1.34071,0
61140,-1.61728,-0.570904,-1.32493,0
61160,-1.62864,-0.579064,-1.31,0
61180,-1.64038,-0.586546,-1.29636,0
61200,-1.65041,-0.594217,-1.28388,0
61220,-1.65627,-0.604077,-1.2721,0
61240,-1.66207,-0.613955,-1.26077,0
61260,-1.66962,-0.62207,-1.24951,0
61280,-1.678,-0.632151,-1.23784,0
61300,-1.68466,-0.645665,-1.22552,0
61320,-1.69325,-0.659941,-1.21315,0
61340,-1.7036,-0.673588,-1.20287,0
61360,-1.71457,-0.68619,-1.19326,0
61380,-1.7252,-0.699432,-1.1836,0
61400,-1.73622,-0.714037,-1.17473,0
61420,-1.74479,-0.728935,-1.16889,0
61440,-1.75043,-0.742202,-1.16511,0
61460,-1.75675,-0.755776,-1.16158,0
61480,-1.76398,-0.770199,-1.1569,0
61500,-1.77053,-0.786277,-1.15416,0
61520,-1.7745,-0.801541,-1.15485,0
61540,-1.77954,-0.815423,-1.15402,0
61550,-1.78602,-0.828536,-1.15523,0
61570,-1.79046,-0.843059,-1.15839,0
61590,-1.7916,-0.858732,-1.1643,0
61610,-1.79042,-0.873295,-1.17143,0
61630,-1.79081,-0.887094,-1.17945,0
61650,-1.78982,-0.901044,-1.19,0
61670,-1.78734,-0.914448,-1.20253,0
61690,-1.78335,-0.927551,-1.21584,0
61710,-1.77777,-0.939949,-1.23099,0
61730,-1.77132,-0.951305,-1.24813,0
61750,-1.76232,-0.961412,-1.2674,0
61770,-1.75009,-0.971099,-1.28806,0
61790,-1.73721,-0.981253,-1.31015,0
61810,-1.72377,-0.990305,-1.33353,0
61830,-1.70714,-0.998016,-1.36082,0
61850,-1.68793,-1.0052,-1.38961,0
61870,-1.66811,-1.01306,-1.4182,0
61890,-1.64995,-1.02106,-1.44577,0
61910,-1.62945,-1.02872,-1.47489,0
61930,-1.60659,-1.03507,-1.50482,0
61950,-1.5845,-1.04036,-1.53411,0
61970,-1.56366,-1.04407,-1.56399,0
61990,-1.54179,-1.04604,-1.59502,0
62010,-1.51648,-1.04512,-1.62781,0
62030,-1.49228,-1.04212,-1.65761,0
62050,-1.46776,-1.03909,-1.68831,0
62070,-1.44086,-1.03589,-1.72193,0
62090,-1.41439,-1.02978,-1.75387,0
62110,-1.39081,-1.02342,-1.78516,0
62130,-1.36739,-1.01737,-1.81367,0
62150,-1.34497,-1.01116,-1.84008,0
62170,-1.32601,-1.00462,-1.86453,0
62190,-1.30721,-0.996603,-1.88902,0
62210,-1.28986,-0.987142,-1.91154,0
62230,-1.27523,-0.977136,-1.93132,0
62250,-1.26174,-0.968125,-1.95076,0
62270,-1.25097,-0.958376,-1.96944,0
62290,-1.24462,-0.94679,-1.9848,0
62310,-1.23868,-0.933835,-1.99739,0
62330,-1.23128,-0.922785,-2.00835,0
62350,-1.22568,-0.912476,-2.01748,0
62370,-1.22646,-0.901297,-2.02455,0
62390,-1.2286,-0.888663,-2.03221,0
62410,-1.22937,-0.875016,-2.04077,0
62430,-1.22668,-0.862066,-2.04825,0
62450,-1.22511,-0.852431,-2.05287,0
62470,-1.22572,-0.844983,-2.05708,0
62490,-1.2295,-0.835055,-2.06124,0
62510,-1.23231,-0.822895,-2.06817,0
62530,-1.23121,-0.810595,-2.07368,0
62550,-1.23057,-0.800304,-2.07505,0
62570,-1.22792,-0.791704,-2.07713,0
62590,-1.22538,-0.782207,-2.08081,0
62610,-1.22685,-0.771789,-2.08327,0
62630,-1.23025,-0.76142,-2.08488,0
62650,-1.23169,-0.751617,-2.08656,0
62670,-1.23182,-0.742053,-2.08777,0
62690,-1.23544,-0.732303,-2.08581,0
62710,-1.23922,-0.723547,-2.08225,0
62730,-1.24026,-0.715453,-2.08005,0
62750,-1.24146,-0.708124,-2.07805,0
62770,-1.24531,-0.701289,-2.07423,0
62790,-1.24879,-0.694497,-2.07104,0
62810,-1.25346,-0.687274,-2.06648,0
62830,-1.26016,-0.680154,-2.06173,0
62850,-1.26643,-0.672768,-2.05783,0
62870,-1.27096,-0.665184,-2.05289,0
62890,-1.27416,-0.657096,-2.04712,0
62910,-1.27833,-0.650569,-2.04097,0
62930,-1.28229,-0.644542,-2.0363,0
62950,-1.28575,-0.637851,-2.03204,0
62970,-1.29199,-0.630767,-2.02635,0
62990,-1.29927,-0.624637,-2.01999,0
63010,-1.30407,-0.618804,-2.01376,0
63030,-1.30945,-0.613456,-2.00711,0
63050,-1.315,-0.607214,-2.00139,0
63070,-1.32282,-0.600125,-1.99405,0
63090,-1.33048,-0.593644,-1.98602,0
63110,-1.33523,-0.587715,-1.97693,0
63130,-1.34123,-0.582641,-1.96677,0
63150,-1.3475,-0.577521,-1.95783,0
63170,-1.35481,-0.572699,-1.94857,0
63190,-1.36376,-0.568343,-1.93743,0
63210,-1.37331,-0.563708,-1.92622,0
63230,-1.38168,-0.55885,-1.91587,0
63250,-1.38961,-0.554496,-1.90383,0
63270,-1.39848,-0.550267,-1.89016,0
63290,-1.40838,-0.546007,-1.87656,0
63310,-1.41664,-0.542474,-1.86381,0
63330,-1.42443,-0.53933,-1.84981,0
63350,-1.43497,-0.537261,-1.83545,0
63370,-1.44586,-0.534818,-1.82143,0
63390,-1.45646,-0.532222,-1.80663,0
63410,-1.46673,-0.529968,-1.79087,0
63430,-1.47758,-0.527894,-1.77478,0
63450,-1.48868,-0.525563,-1.75787,0
63470,-1.50042,-0.524786,-1.74032,0
63490,-1.51191,-0.524652,-1.72258,0
63510,-1.5244,-0.523825,-1.70507,0
63530,-1.53661,-0.52342,-1.68796,0
63540,-1.54821,-0.52414,-1.67039,0
63560,-1.56091,-0.525047,-1.6522,0
63580,-1.57344,-0.526119,-1.63469,0
63600,-1.5841,-0.527071,-1.61769,0
63620,-1.59419,-0.528074,-1.59991,0
63640,-1.60444,-0.530136,-1.58205,0
63660,-1.61635,-0.533183,-1.56517,0
63680,-1.628,-0.536082,-1.54927,0
63700,-1.63983,-0.539577,-1.53334,0
63720,-1.65156,-0.543536,-1.51849,0
63740,-1.66193,-0.547968,-1.50464,0
63760,-1.67106,-0.552254,-1.49005,0
63780,-1.67993,-0.557639,-1.47498,0
63800,-1.6881,-0.564888,-1.46,0
63820,-1.69586,-0.572936,-1.44518,0
63840,-1.70498,-0.581414,-1.43088,0
63860,-1.71536,-0.590999,-1.41763,0
63880,-1.72602,-0.600814,-1.40507,0
63900,-1.73431,-0.611024,-1.39258,0
63920,-1.74153,-0.622531,-1.37925,0
63940,-1.74815,-0.635302,-1.36526,0
63960,-1.7556,-0.647903,-1.35195,0
63980,-1.76171,-0.660508,-1.34,0
64000,-1.76757,-0.673271,-1.32736,0
64020,-1.77516,-0.687514,-1.31346,0
64040,-1.78514,-0.701833,-1.30105,0
64060,-1.7949,-0.714422,-1.29012,0
64080,-1.80234,-0.725065,-1.27897,0
64100,-1.80737,-0.736503,-1.26698,0
64120,-1.8096,-0.748632,-1.25546,0
64140,-1.81401,-0.763017,-1.24248,2001
64160,-1.8212,-0.778054,-1.22952,0
64180,-1.83155,-0.790839,-1.21928,0
64200,-1.84326,-0.801139,-1.21161,0
64220,-1.85552,-0.81036,-1.20407,0
64240,-1.86463,-0.818049,-1.19721,0
64260,-1.86992,-0.824309,-1.19274,0
64280,-1.87459,-0.828962,-1.18959,0
64300,-1.88071,-0.832092,-1.18617,0
64320,-1.88302,-0.835308,-1.18591,0
64340,-1.88218,-0.838701,-1.18835,0
64360,-1.88133,-0.841404,-1.1916,0
64380,-1.88119,-0.843196,-1.19527,0
64400,-1.88087,-0.843457,-1.20115,0
64420,-1.87843,-0.843139,-1.21254,0
64440,-1.87033,-0.841804,-1.22996,0
64460,-1.85522,-0.838933,-1.25047,0
64480,-1.83726,-0.833473,-1.27194,0
64500,-1.81426,-0.826889,-1.29843,0
64520,-1.7866,-0.816984,-1.32986,0
64540,-1.7559,-0.801439,-1.36237,0
64560,-1.72584,-0.78093,-1.39547,0
64580,-1.69096,-0.755967,-1.43166,0
64600,-1.65279,-0.727005,-1.47042,0
64620,-1.61642,-0.693948,-1.50616,0
64640,-1.58684,-0.659087,-1.53703,0
64660,-1.55807,-0.623354,-1.56678,0
64680,-1.52547,-0.588005,-1.59792,0
64700,-1.49566,-0.550713,-1.62304,0
64720,-1.47564,-0.512394,-1.64029,0
64740,-1.45273,-0.481368,-1.65748,0
64760,-1.42613,-0.45179,-1.67347,0
64780,-1.40213,-0.420537,-1.68314,0
64800,-1.38429,-0.391848,-1.68666,0
64820,-1.36447,-0.368754,-1.69181,0
64840,-1.34387,-0.347664,-1.69797,0
64860,-1.33128,-0.328797,-1.69977,0
64880,-1.32127,-0.314255,-1.69783,0
64900,-1.31009,-0.303846,-1.69568,0
64920,-1.29645,-0.294352,-1.69312,0
64940,-1.28655,-0.287661,-1.68731,0
64960,-1.28019,-0.284382,-1.68049,0
64980,-1.27405,-0.282749,-1.67553,0
65000,-1.26722,-0.280276,-1.6717,0
65020,-1.26553,-0.277264,-1.66772,0
65040,-1.26905,-0.272912,-1.66382,0
65060,-1.27305,-0.267394,-1.66128,0
65080,-1.2739,-0.261214,-1.65938,0
65100,-1.27446,-0.255579,-1.65621,0
65120,-1.27268,-0.249507,-1.65423,0
65140,-1.26833,-0.243604,-1.65342,0
65160,-1.26871,-0.238656,-1.6517,0
65180,-1.27142,-0.235026,-1.64828,0
65200,-1.2776,-0.233074,-1.64379,0
65220,-1.28054,-0.230445,-1.63862,2000
65240,-1.28155,-0.227914,-1.63201,0
65260,-1.28299,-0.226075,-1.62375,0
65280,-1.28447,-0.224028,-1.61581,0
65300,-1.28767,-0.222609,-1.6089,0
65320,-1.29373,-0.220864,-1.60146,0
65340,-1.30085,-0.217388,-1.59301,0
65360,-1.30745,-0.213701,-1.58475,0
65380,-1.3101,-0.21084,-1.5772,0
65400,-1.31063,-0.209312,-1.56987,0
65420,-1.31125,-0.208949,-1.56159,0
65440,-1.31051,-0.209829,-1.55311,0
65460,-1.30979,-0.212671,-1.54425,0
65480,-1.31015,-0.216682,-1.53548,0
65500,-1.31067,-0.222026,-1.52562,0
65520,-1.31107,-0.228546,-1.5156,0
65540,-1.31188,-0.235497,-1.50555,0
65560,-1.31372,-0.242777,-1.4962,0
65580,-1.31517,-0.250232,-1.48778,0
65600,-1.31703,-0.258466,-1.47864,0
65620,-1.3183,-0.267391,-1.46929,0
65640,-1.31824,-0.27635,-1.46094,0
65660,-1.31782,-0.285748,-1.45304,0
65680,-1.31787,-0.295892,-1.44486,0
65700,-1.32027,-0.305654,-1.43626,0
65720,-1.3234,-0.313986,-1.42932,0
65740,-1.32438,-0.32183,-1.42377,0
65760,-1.32468,-0.328621,-1.4186,0
65780,-1.32599,-0.335574,-1.41321,0
65800,-1.32853,-0.34324,-1.40887,0
65820,-1.32928,-0.351347,-1.40512,0
65840,-1.32732,-0.360492,-1.40335,0
65860,-1.32532,-0.37074,-1.40222,0
65880,-1.32496,-0.380336,-1.40211,0
65900,-1.32385,-0.38976,-1.40386,0
65920,-1.32207,-0.400814,-1.40681,0
65940,-1.3212,-0.413204,-1.41022,0
65960,-1.32204,-0.424902,-1.41586,0
65980,-1.32415,-0.435418,-1.42485,0
66000,-1.32437,-0.446484,-1.43617,0
66020,-1.3219,-0.459442,-1.4488,0
66040,-1.3195,-0.472469,-1.46366,0
66060,-1.31739,-0.484542,-1.48107,0
66080,-1.31489,-0.496871,-1.50076,0
66100,-1.31131,-0.509216,-1.52159,0
66120,-1.30536,-0.522143,-1.54524,0
66140,-1.29967,-0.5341,-1.57142,0
66160,-1.29285,-0.545538,-1.60223,0
66180,-1.28332,-0.557573,-1.63394,0
66190,-1.27206,-0.56957,-1.66502,0
66210,-1.26244,-0.581368,-1.69485,0
66230,-1.25342,-0.593938,-1.72215,0
66250,-1.24543,-0.606595,-1.74623,0
66270,-1.23744,-0.61949,-1.77001,0
66290,-1.23011,-0.631888,-1.79486,0
66310,-1.22412,-0.642319,-1.8205,0
66330,-1.21808,-0.649848,-1.84727,0
66350,-1.21004,-0.656456,-1.87425,0
66370,-1.19994,-0.662916,-1.89984,0
66390,-1.18847,-0.668658,-1.92386,0
66410,-1.17669,-0.674507,-1.94695,0
66430,-1.1655,-0.680237,-1.96958,0
66450,-1.15542,-0.684462,-1.99294,0
66470,-1.1462,-0.688144,-2.01547,0
66490,-1.13898,-0.690983,-2.03446,0
66510,-1.13208,-0.69107,-2.05294,0
66530,-1.12481,-0.689761,-2.0712,0
66550,-1.11878,-0.686737,-2.08776,0
66570,-1.1124,-0.683132,-2.10182,0
66590,-1.10678,-0.678566,-2.1148,0
66610,-1.10245,-0.672429,-2.12952,0
66630,-1.09595,-0.665781,-2.14364,0
66650,-1.09074,-0.658491,-2.15554,0
66670,-1.08854,-0.651421,-2.16561,0
66690,-1.08736,-0.642089,-2.17583,0
66710,-1.08285,-0.630958,-2.18504,0
66730,-1.07517,-0.620741,-2.19113,0
66750,-1.06943,-0.61329,-2.19414,0
66770,-1.06716,-0.607981,-2.19719,0
66790,-1.06976,-0.600947,-2.19984,0
66810,-1.07092,-0.592514,-2.20224,0
66830,-1.07088,-0.58337,-2.20298,0
66850,-1.07232,-0.575014,-2.20301,0
66870,-1.07525,-0.566518,-2.20161,0
66890,-1.07995,-0.556526,-2.20108,0
66910,-1.08108,-0.544344,-2.20081,0
66930,-1.08169,-0.531688,-2.19804,0
66950,-1.08074,-0.521391,-2.1916,0
66970,-1.07762,-0.5131,-2.1831,0
66990,-1.0752,-0.50663,-2.17474,0
67000,-1.0783,-0.500131,-2.16755,0
67020,-1.08483,-0.492747,-2.1601,0
67040,-1.09408,-0.484249,-2.15216,0
67060,-1.10017,-0.47663,-2.14359,0
67080,-1.10325,-0.470291,-2.13335,0
67100,-1.10549,-0.46407,-2.12345,0
67120,-1.10693,-0.457943,-2.11485,0
67140,-1.11129,-0.451243,-2.10635,0
67160,-1.11824,-0.444661,-2.09703,0
67180,-1.12289,-0.437392,-2.08808,0
67200,-1.12641,-0.430278,-2.07951,0
67220,-1.1287,-0.424158,-2.07044,0
67240,-1.13138,-0.418332,-2.06094,0
67260,-1.13673,-0.412162,-2.05203,0
67280,-1.13862,-0.406185,-2.04373,0
67300,-1.14116,-0.399955,-2.03437,0
67320,-1.14502,-0.394731,-2.02402,0
67340,-1.14821,-0.389814,-2.01504,0
67360,-1.14994,-0.384904,-2.00641,0
67380,-1.15607,-0.379475,-1.99623,0
