Timestamp, Rotation x, Rotation y, Rotation z, Marker
30,-4,5.875,9.5,0
50,-4.5,4.1875,9.9375,0
70,-3.4375,2.5,9.375,0
90,-1.5625,1.9375,8.1875,0
110,-1.1875,2.375,6,0
130,-1.125,2.5625,4.5625,0
150,-2.625,2.8125,3.5625,0
170,-2,3.75,3.4375,0
180,-2,4.625,3.5625,0
180,-2,5.5625,3.9375,0
230,-2.1875,6.25,3.75,0
250,-2.5625,5.4375,3.5625,0
260,-2.5625,4.125,3.625,0
290,-0.9375,3.625,2.875,0
310,-1.8125,2.625,3.125,0
330,-1.3125,1.375,3,0
350,-1,-0.0625,2.6875,0
370,-0.625,0,2.3125,0
390,-0.125,0.6875,1.5,0
410,-0.9375,0.4375,1.1875,0
430,-1.3125,0.0625,1.125,0
450,-1.0625,-0.3125,1.0625,0
470,-0.8125,0.25,0.5,0
490,0.0625,1.4375,-0.5625,0
510,-0.6875,1.6875,-0.875,0
530,-1.125,0.875,-0.4375,0
550,-0.5,0.5625,-0.3125,0
570,-0.125,1,-0.125,0
590,-0.125,1.8125,0.25,0
610,-0.875,1.9375,0.375,0
630,-1.0625,1.5625,0.75,0
650,-1.75,1.5,1.9375,0
670,-2.5625,2.1875,3.5,0
690,-2.625,2.875,3.9375,0
710,-2.0625,3.4375,3.4375,0
730,-2.0625,3.25,2.5,0
750,-2.3125,2.6875,2,0
770,-1,2.5,0.9375,0
790,-0.25,2.1875,-0.5625,0
810,0.6875,1.9375,-1.875,0
830,1.125,1.3125,-2.6875,0
850,1,0.625,-2.1875,0
870,-0.125,0.3125,-0.9375,0
890,-0.25,0.5625,0.5,0
910,-0.0625,0.6875,1.5625,0
930,-0.125,0.75,2.3125,0
950,-0.375,0.8125,2.75,0
970,-0.8125,0.25,3.1875,0
990,-1.125,-0.0625,2.875,0
1010,0.3125,0.0625,2.0625,0
1030,0.375,-0.4375,1.1875,0
1050,0.1875,-1.375,0.9375,0
1070,0.25,-2,0.6875,0
1090,0.8125,-1.5,-0.1875,0
1110,1.25,-0.5,-0.75,0
1130,0.4375,-0.5,-0.4375,0
1150,-0.0625,-1.1875,0.375,0
1170,0.0625,-1.3125,0.875,0
1190,0.875,-0.5625,0.4375,0
1210,1.375,-0.125,-0.0625,0
1230,0.6875,-0.8125,-0.125,0
1250,0.6875,-1.1875,0.125,0
1260,1.0625,-0.9375,-0.125,0
1280,1.625,-0.8125,-0.25,0
1300,0.875,-1.6875,-0.0625,0
1320,0.875,-2.0625,-0.0625,0
1340,1.1875,-2.125,-0.625,0
1360,1.25,-2.25,-0.875,0
1380,1.0625,-1.5,-0.875,0
1400,0.625,-0.25,-0.6875,0
1420,0.625,-0.0625,-0.75,0
1440,0.3125,-0.4375,-0.8125,0
1460,0.9375,-0.5,-0.75,0
1480,0.875,-0.4375,-0.625,0
1500,0.5,-1,-0.125,0
1520,0.1875,-1.3125,0.4375,0
1540,-0.4375,-1.3125,1.0625,0
1560,-0.375,-0.1875,1.1875,0
1580,0.0625,1.1875,1,0
1600,-0.8125,1.3125,1.75,0
1620,-1.5625,0.375,2.625,0
1640,-0.25,1.0625,2.9375,0
1660,0,1.8125,2.375,0
1680,-0.625,1.5,2.625,0
1700,-1.5,0.875,3,0
1720,-0.5,1,3.1875,0
1740,-0.5625,1.0625,3.125,0
1760,-0.0625,0.8125,2.9375,0
1780,-0.375,0.5,2.25,0
1800,0,0.125,1.25,0
1820,0.5625,0.1875,0.75,0
1840,0.25,-0.125,0.6875,0
1860,0.5625,0.125,0.4375,0
1880,0.5625,0.25,0.125,0
1900,0.6875,0.375,0.1875,0
1920,0.125,0.4375,0.75,0
1940,0.1875,0.625,1.1875,0
1960,0.0625,0.75,1.75,0
1980,0.375,0.6875,1.5,0
2000,0.3125,1.5,0.875,0
2020,0.5,2.3125,0.3125,0
2040,-0.125,2.375,0.8125,0
2060,-0.5625,1.875,2,0
2080,-0.8125,1.875,3,0
2100,-1.1875,1.4375,3.5,0
2120,-1.375,1.1875,3.3125,0
2140,-1.1875,1.0625,2.8125,0
2160,-1.3125,0.9375,2.3125,0
2180,-1.375,0.625,1.6875,0
2200,-0.0625,0.4375,0.375,0
2220,0.5625,-0.25,-0.875,0
2240,0.75,-0.6875,-1.4375,0
2260,0.6875,-0.625,-1.875,0
2280,0.8125,-0.6875,-2,0
2300,0.75,-0.9375,-1.625,0
2320,0.8125,-0.5625,-1.375,0
2340,0.5,0,-0.75,0
2360,0.5,0.375,-0.125,0
2380,0.375,0.1875,0.5,0
2400,0.375,-0.3125,0.75,0
2420,0.875,-0.5,0.75,0
2440,0.75,-0.8125,1,0
2460,0.125,-1.1875,1.1875,0
2480,0.3125,-1.25,1.25,0
2500,0.8125,-1.25,0.875,0
2520,0.875,-1.0625,0.25,0
2540,0.5625,-0.9375,0.375,0
2560,0.375,-0.8125,0.625,0
2580,0.25,-1.1875,0.8125,0
2600,0.375,-1.3125,0.125,0
2620,0.625,-0.9375,-0.5625,0
2640,0.8125,-0.875,-1.125,0
2660,0.75,-0.625,-0.875,0
2680,0.5,-0.75,-0.5625,0
2700,0.375,-0.625,-0.8125,0
2720,1.0625,-0.5,-1.25,0
2740,0.625,-0.75,-1.25,0
2760,1,-0.75,-1.4375,0
2780,1.3125,-0.25,-1.625,0
2800,0.75,-0.4375,-1.375,0
2810,0.125,-0.9375,-1.0625,0
2830,0.5625,-0.9375,-0.8125,0
2850,0.4375,-0.3125,-0.875,0
2870,0.5,0.1875,-0.4375,0
2890,0,-0.125,0.25,0
2910,-0.3125,-0.3125,0.625,0
2930,0.125,-0.5,0.6875,0
2950,0.1875,-0.0625,0.4375,0
2970,0.125,0,0.4375,0
2990,-0.1875,0.0625,0.9375,0
3010,-0.4375,0.125,0.5625,0
3030,-0.125,0.3125,0.0625,0
3050,0.375,0.4375,-0.4375,0
3070,-0.125,0.5625,-0.3125,0
3090,-0.125,0.125,0,0
3110,-0.3125,0.1875,0.3125,0
3130,0.0625,0.125,0.25,0
3150,-0.5,-0.125,0.4375,0
3170,-0.25,-0.25,0.5,0
3190,-0.1875,0.1875,0.375,0
3210,-0.5,0.25,0.4375,0
3230,-0.4375,0.125,0.4375,0
3250,-0.25,0.125,0.0625,0
3270,-0.0625,0,-0.125,0
3290,-0.25,-0.0625,-0.5,0
3310,0,0.25,-0.6875,0
3330,-0.25,0.25,-0.6875,0
3350,-0.0625,-0.3125,-0.1875,0
3370,-0.25,-0.1875,-0.0625,0
3390,-0.0625,0.6875,-0.5625,0
3410,-0.1875,0.5625,-0.3125,0
3430,-0.3125,0.0625,-0.125,0
3450,-0.25,-0.0625,-0.1875,0
3470,-0.0625,0,-0.25,0
3490,-0.3125,-0.25,-0.4375,0
3510,0.1875,-0.5,-0.625,0
3530,0,-0.75,-0.75,0
3550,0.5,-0.75,-1,0
3570,0.1875,-0.4375,-1,0
3590,0.3125,-0.3125,-0.75,0
3610,0.25,-0.25,-0.75,0
3630,0,-0.1875,-0.6875,0
3650,-0.3125,0.4375,-0.5625,0
3670,-0.5625,1,-0.125,0
3690,-0.6875,0.75,0.25,0
3710,-0.1875,0.5,0.1875,0
3730,-0.375,0.125,-0.3125,0
3750,-0.25,-0.0625,-0.6875,0
3770,-0.0625,0.125,-0.4375,0
3790,-0.375,0.5625,-0.25,0
3810,-0.6875,0.875,0.5625,0
3830,-1,1.25,0.5625,0
3850,-0.875,1.3125,0.625,0
3870,-0.8125,1,0.625,0
3890,-1.125,0.625,0.6875,0
3910,-0.375,0.8125,0.6875,0
3930,-0.375,1.3125,0.9375,0
3950,-0.75,0.9375,1.5,0
3970,-0.6875,0.25,2.0625,0
3990,-0.5,-0.1875,2.875,0
4010,-1.125,0.0625,2.8125,0
4030,-0.875,0.75,2.375,0
4050,-1.25,1.125,1.8125,0
4070,-1.5625,1.125,1.5,0
4090,-0.6875,1.625,0.625,0
4110,-0.75,1.875,0.0625,0
4130,-0.3125,1.875,-0.3125,0
4150,-0.625,1.4375,-0.625,0
4170,-0.4375,0.8125,-0.8125,0
4190,0.375,0.6875,-1.25,0
4210,0.375,0.8125,-1.375,0
4230,0.0625,0.4375,-0.9375,0
4250,0.4375,0.375,-1.0625,0
4270,0.8125,0.3125,-1.125,0
4290,1,0.3125,-1.125,0
4310,0.4375,-0.3125,-0.8125,0
4330,0.375,-0.4375,-0.3125,0
4350,0.3125,-0.25,-0.25,0
4370,0.625,0.125,-0.0625,0
4390,0.3125,-0.125,0.125,0
4410,0.3125,-0.375,0.375,0
4430,-0.0625,-0.5625,0.3125,0
4450,0.1875,-0.4375,0.3125,0
4470,0.5625,0,-0.125,0
4490,0,0.0625,-0.25,0
4510,0.5625,-0.4375,-0.5625,0
4530,0.3125,-0.5,-0.875,0
4550,0.625,-0.5625,-0.9375,0
4570,0.4375,-1.125,-0.75,0
4590,0.4375,-1,-0.5,0
4610,0.75,-0.375,-0.6875,0
4630,0,-0.375,-0.25,0
4650,-0.0625,-0.4375,0.25,0
4670,0,-0.3125,0.4375,0
4690,0.3125,-0.375,0.1875,0
4700,-0.125,-0.6875,-0.125,0
4720,0.4375,-0.375,-0.25,0
4740,-0.375,0,-0.4375,0
4760,0.1875,0,-0.3125,0
4780,-0.25,-0.25,-0.3125,0
4800,0.1875,0.125,-0.3125,0
4820,-0.0625,0.4375,-0.25,0
4840,-0.3125,0.3125,0.0625,0
4860,-0.125,-0.25,0.25,0
4880,-0.25,-0.3125,0.3125,0
4900,-0.25,-0.3125,0.375,0
4920,-0.25,-0.625,0.0625,0
4940,0.1875,-0.75,-0.125,0
4960,0.4375,-0.5,-0.5625,0
4980,0,-0.0625,-0.75,0
5000,0.125,0.0625,-0.8125,0
5020,0.0625,0.4375,-0.8125,0
5040,-0.0625,0.4375,-0.625,0
5060,-0.3125,0.1875,-0.375,0
5080,-0.25,-0.0625,-0.0625,0
5100,0.1875,0.1875,-0.125,0
5120,0.1875,0,-0.25,0
5140,0.1875,-0.25,-0.25,0
5160,-0.125,0.1875,-0.25,0
5180,0.0625,0.75,0,0
5200,-0.125,0.4375,0.25,0
5210,-0.0625,-0.4375,0.5625,0
5230,-0.1875,-0.625,0.6875,0
5260,-0.25,0.375,0.8125,0
5280,-0.375,0,0.75,0
5300,-0.25,-0.3125,0.75,0
5320,0.125,-0.3125,0.3125,0
5330,0,-0.3125,0,0
5350,0,-1.25,-0.25,0
5370,0.5625,-1,-0.375,0
5390,0.5625,0.125,-0.125,0
5410,-0.1875,-0.0625,0.8125,0
5430,-0.125,0.1875,0.625,0
5450,0,-0.25,0.8125,0
5460,0.125,-0.75,0.875,0
5480,0.1875,-0.5,0.875,0
5490,-0.25,-0.375,1,0
5510,-0.1875,-0.0625,0.875,0
5530,-0.375,-0.375,0.625,0
5550,-0.25,-0.9375,0,0
5570,0.25,-1.125,-1.3125,0
5590,0.6875,-0.25,-2.9375,0
5610,0.5625,0.5625,-4.625,0
5630,1.3125,0.3125,-6.8125,0
5650,3,2.25,-8.6875,0
5670,9.4375,8.375,-5.0625,0
5690,18.5,12.875,-7.6875,0
5710,19.25,13,-23,0
5730,8.625,9.625,-24,0
5750,6.875,8,-24,0
5770,4.125,4.625,-21.4375,0
5790,-6.4375,5.4375,-14.9375,0
5810,-8.75,8.4375,-7.1875,0
5830,-10.9375,10.1875,-0.6875,0
5840,-15.5,11.625,3.5625,0
5860,-18.5625,13.5,5.9375,0
5880,-19.25,16.375,6.1875,0
5900,-19.0625,19.8125,4.125,0
5920,-18,23.9375,0.5625,0
5940,-22.0625,31.375,-4.5,0
5960,-21.625,34,-10.1875,0
5980,-19.5,34.9375,-12.375,0
6000,-17.625,34.125,-12.75,0
6020,-18.625,32.8125,-13,0
6040,-16.0625,31.4375,-15.1875,0
6060,-14.125,30.375,-15.8125,0
6080,-13.625,28.9375,-12,0
6100,-18,29.875,-13.25,0
6120,-26.625,31.4375,-10,0
6140,-27.875,29.875,-3.1875,0
6160,-28.8125,24.6875,3.4375,0
6180,-30.4375,19.375,9.4375,0
6200,-29.625,16.5625,16.1875,0
6220,-29.1875,15.4375,18.4375,0
6240,-30.8125,12.9375,16.1875,0
6260,-30.875,10.75,13.6875,0
6280,-30.625,10,11.6875,0
6300,-31.1875,9.8125,9.8125,0
6320,-30.0625,10.0625,7.75,0
6340,-25.8125,6.1875,2.9375,0
6360,-18.6875,-0.1875,-5.8125,0
6380,-12.9375,-7.375,-16.3125,0
6400,-14.75,-12.3125,-30.6875,0
6420,-24.3125,-15.875,-51.125,0
6440,-24.6875,-23.9375,-81.5,0
6460,-44.625,-32.5625,-89.125,0
6480,-59.6875,-42,-97.25,0
6500,-55.375,-49.0625,-121.625,0
6520,-49.5625,-53.75,-145.688,0
6540,-53.5,-61.8125,-169.688,0
6560,-64.25,-74.25,-193.562,0
6580,-72.1875,-89.5625,-200.25,0
6600,-64.8125,-101.75,-204.375,0
6620,-51.9375,-114.812,-212.5,0
6640,-44.3125,-127.562,-218.25,0
6660,-42.6875,-139.625,-218.875,0
6680,-36.75,-149.625,-215.188,0
6700,-24.25,-153.062,-206.062,0
6720,-12.1875,-158.938,-191.5,0
6740,-1.0625,-168.688,-175.125,0
6760,4.9375,-182.125,-157.5,0
6780,-0.25,-190.688,-138.312,0
6800,12.3125,-218.438,-133.562,0
6820,17.5625,-206.812,-102.562,0
6840,9.375,-185.875,-74.875,0
6860,11.25,-170.25,-58.75,0
6880,19.625,-152.188,-37.4375,0
6900,19.875,-106.688,-22.8125,0
6920,22,-73.9375,-14.25,0
6940,9.125,-47.3125,-7.1875,0
6960,-3.125,-21.3125,-0.9375,0
6980,-1.5,-5.25,4.625,0
7000,-5.0625,7.75,6.4375,0
7040,-24.0625,22.5,9.375,0
7060,-31.875,24.25,9.0625,0
7080,-31.6875,23.75,11.625,0
7100,-31.1875,21.75,14.8125,0
7120,-32.25,19.9375,14.9375,0
7140,-35,20.5625,12.6875,0
7160,-39.4375,20.625,11.75,0
7180,-40.0625,22.625,13.25,0
7200,-36.625,25,13.5,0
7220,-32.875,22.5625,15.125,0
7240,-30.8125,18.375,12.25,0
7260,-30.9375,14.8125,10.375,0
7280,-31.125,11.75,8.75,0
7300,-29.1875,8.4375,9.3125,0
7320,-27.875,3.5,9.8125,0
7340,-26.875,-1.1875,7.4375,0
7360,-25.25,-0.6875,2.8125,0
7380,-23.25,1.875,-0.1875,0
7400,-24.5625,5.6875,-3,0
7420,-27.8125,8.125,-6.5,0
7440,-28.6875,6.625,-6.8125,0
7460,-27,3.5625,-12,0
7480,-23.0625,1.375,-11.5,0
7500,-22.1875,-1.5625,-10.75,0
7520,-24.25,-0.125,-8.25,0
7540,-22.4375,-3.375,-6.875,0
7560,-19.625,-4.5625,-4.8125,0
7580,-17.9375,-4.4375,-4.125,0
7600,-17.5,-3.125,-3.75,0
7620,-15.6875,-3.125,-3.1875,0
7640,-12.375,-5.8125,-3.0625,0
7660,-13.4375,-4,-2.8125,0
7680,-13.875,-1.5,-4.4375,0
7700,-14.125,-0.6875,-5.0625,0
7710,-13.3125,-0.6875,-6.375,0
7730,-12.875,-0.5,-7.25,0
7750,-11.5625,0.6875,-8.4375,0
7770,-9.5,1.8125,-7.25,0
7790,-9.3125,2.875,-6.875,0
7810,-6.75,2.0625,-5.5,0
7830,-4.375,0.875,-4.625,0
7850,-2.4375,-0.9375,-4.5625,0
7870,-2.0625,-1.1875,-3.875,0
7890,-2.875,1.125,-1.625,0
7910,-1.4375,5.0625,0.6875,0
7930,-1.4375,9.5,1.3125,0
7950,-1.1875,10.1875,-1.375,0
7970,3.75,16.625,0,0
7990,12.625,27.75,1.625,0
8010,26.875,43.625,4.4375,0
8030,49.375,55.3125,10.875,0
8050,70.25,63.5,20,0
8070,86.5,74.375,32.8125,0
8090,110.125,94.1875,49.3125,0
8110,138.625,112.375,63.6875,0
8130,165.438,113.062,87.1875,0
8150,182.562,116.625,112.062,0
8170,207.438,108.625,128.562,0
8190,219.625,99.6875,146.375,0
8210,221.75,97.75,156.25,0
8230,212.688,77.75,175.438,0
8250,209.312,59.625,194.75,0
8270,193.875,33.3125,210.062,0
8290,157.812,12.0625,214.75,0
8310,122.75,1.8125,200.062,0
8330,79.5625,-22,160.062,0
8350,46.25,-52.25,128.312,0
8370,78.8125,-75.1875,133.25,0
8390,72.75,-87.4375,126.125,0
8410,75.375,-93.3125,121.688,0
8430,74.5,-95.3125,107.188,0
8450,67.375,-101.875,90.25,0
8470,69.0625,-114,70.8125,0
8490,87.625,-120.938,59.3125,0
8510,94.3125,-114.5,54.625,0
8530,100.5,-100,64.5,0
8550,105.375,-85.375,44.375,0
8570,89.1875,-75.625,4.1875,0
8590,96,-86.125,11.3125,0
8610,117.312,-88.4375,55.375,0
8630,92.6875,-73.625,51.5,0
8650,86.25,-56.625,31.625,0
8670,94.1875,-62.8125,51.75,0
8690,103.938,-81.375,80.875,0
8710,89.9375,-82.5625,95.25,0
8730,74.8125,-77.8125,95.0625,0
8750,87.9375,-92.125,112.875,0
8770,85.375,-116.188,137.312,0
8790,83.0625,-141.812,142.875,0
8810,58.375,-144.812,125.875,0
8830,43.9375,-131.375,95.75,0
8850,43.4375,-105.312,77.125,0
8870,35.9375,-76.625,55.875,0
8890,38.8125,-50.875,46,0
8910,40.375,-29.1875,37.25,0
8930,39.3125,-10.5,30.25,0
8950,30.75,-0.875,29.4375,0
8970,24.3125,1.125,35.9375,0
8990,19.3125,2.5,47.8125,0
9010,10.0625,8.25,59.6875,0
9030,6.75,9.5,60.5,0
9050,2.4375,-1.375,57.875,0
9070,1.6875,-13.625,56.375,0
9090,3.4375,-17.6875,50.1875,0
9110,4.4375,-14.25,40.5625,0
9130,3.0625,-8.875,34.6875,0
9150,5.4375,-6,28,0
9170,1.625,-3.875,16.5625,0
9190,-6.75,2.4375,1.5,0
9210,-7,10.25,-12.125,0
9230,-1.3125,17.3125,-20.5,0
9250,3.6875,26.875,-28.25,0
9270,8.625,38.0625,-36.75,0
9290,4.0625,50.4375,-41.875,0
9310,-3.3125,62.1875,-45.75,0
9330,-11.25,73.3125,-56.125,0
9350,-19.125,83.3125,-65.5625,0
9370,-18.5625,91,-71.1875,0
9390,-9.8125,93.625,-76.0625,0
9410,-0.6875,92.625,-82.1875,0
9430,1.5625,91.3125,-84.6875,0
9450,-0.3125,89.25,-84.6875,0
9470,-0.1875,83.625,-83.5,0
9490,3.1875,73.0625,-84.9375,0
9510,6.5625,65.125,-86,0
9530,2.1875,58.6875,-86.5,0
9550,0.875,50.0625,-89.1875,0
9570,0.875,42.3125,-93.1875,0
9590,-2.25,37.25,-93.875,0
9610,-6.0625,32.3125,-92.3125,0
9630,-7.625,28.875,-88.6875,0
9650,-9.0625,23.75,-82.9375,0
9670,-10,18.375,-75.6875,0
9690,-15.4375,14.4375,-68.625,0
9710,-21.9375,11.625,-61.875,0
9730,-26.0625,9.75,-56.4375,0
9750,-24.0625,6.125,-50.6875,0
9770,-18.5625,1.3125,-44.8125,0
9790,-15.6875,-0.5625,-40.8125,0
9820,-5.5,-1.5,-31.125,0
9840,-1.3125,-6.875,-25.4375,0
9880,-4.0625,-19.75,-18.1875,0
9900,-3.9375,-22.4375,-15.3125,0
9920,-0.3125,-24.0625,-13,0
9940,0,-22.6875,-9.9375,0
9960,-3,-20.5,-7.9375,0
9970,-7.1875,-21.25,-7.5,0
9990,-9.875,-22.625,-8.25,0
10010,-11.25,-22.1875,-9.4375,0
10030,-11.8125,-21.6875,-10.625,0
10050,-12.0625,-21.875,-13.6875,0
10070,-13.1875,-21.875,-17.5625,0
10090,-16.3125,-21.8125,-22.4375,0
10110,-17.875,-19.375,-26.25,0
10130,-16,-14.5,-28.9375,0
10150,-11,-6.5,-28.625,0
10170,-5.9375,-0.9375,-26.5,0
10190,-2.625,-0.0625,-24.0625,0
10210,-6.5625,-3.125,-21.3125,0
10230,-11.25,-6.375,-19.875,0
10240,-13.9375,-8.125,-18.6875,0
10260,-14.625,-9.75,-15.8125,0
10280,-16.625,-13.25,-16.375,0
10300,-22.0625,-18.4375,-21.6875,0
10320,-27.9375,-22.3125,-28.3125,0
10340,-30.6875,-25,-34.3125,0
10360,-31.125,-27.3125,-37,0
10380,-29.9375,-28.375,-36.8125,0
10400,-30.5625,-30.5,-38.25,0
10420,-31.625,-33.5625,-39.8125,0
10440,-33.625,-37.6875,-41.4375,0
10460,-33,-42.625,-42.1875,0
10480,-28.8125,-47.1875,-41.8125,0
10500,-22.875,-53.875,-44.0625,0
10520,-18.125,-60.9375,-48,0
10540,-17.5,-63.8125,-51.3125,0
10560,-17.5625,-67.625,-48.75,0
10580,-11.1875,-75.8125,-48.125,0
10600,-10,-87,-53.4375,0
10620,-8.625,-93.9375,-58.1875,0
10640,-11.125,-96.875,-61.125,0
10660,-3.9375,-99,-58.4375,0
10680,-0.125,-97.9375,-62.1875,0
10700,-10.5625,-97.75,-67.1875,0
10720,-11.8125,-103,-63.0625,0
10740,-2.0625,-112.125,-55.25,0
10760,-2.8125,-106.625,-58.8125,0
10780,-13,-100.312,-56.375,0
10800,-14.1875,-104.625,-48.5625,0
10820,-4.8125,-108.125,-38,0
10840,-3.9375,-97.3125,-35.5625,0
10860,-9.875,-87.5,-31.6875,0
10880,-12.3125,-87.3125,-26.875,0
10900,-4.5625,-85.1875,-19.75,0
10920,1.6875,-77.25,-10.375,0
10940,-2.0625,-67,-6.625,0
10960,-8.125,-60.1875,-6.5625,0
10980,-5.6875,-58.125,-4.9375,0
11000,-8.125,-52.3125,-4.6875,0
11010,-11.5,-46.125,-7.625,0
11030,-17.1875,-39.25,-9.625,0
11040,-10.875,-32.5625,-8,0
11060,-14,-23.3125,-10.0625,0
11080,-22.9375,-21.3125,-14.0625,0
11100,-17.625,-23.5625,-8.375,0
11120,-6.625,-20.3125,-3.625,0
11140,0.6875,-24.5,2.625,0
11160,5.3125,-25.75,5.5625,0
11180,-2.0625,-18.5,-3.6875,0
11200,-9.5,-16.9375,-10.75,0
11220,-4,-24.8125,-12.4375,0
11240,-0.25,-25.375,-13,0
11260,-3.3125,-15.125,-4.9375,0
11280,-3.75,-9.1875,-1.5,0
11300,-1.3125,-8.125,0.3125,0
11320,8.625,-5.75,5.375,0
11340,-4.25,1.125,0.75,0
11360,-9.875,6.9375,0,0
11380,-7.6875,14.375,4.375,0
11400,-0.25,13.375,5.5,0
11420,1.8125,9.1875,2.625,0
11430,5.6875,-1.75,-7.0625,0
11440,6.5,-4.375,-7.625,0
11460,2.9375,1.875,-3.375,0
11480,1.375,7.375,1.4375,0
11520,-10.375,15.625,16,0
11540,-11.0625,16.4375,18,0
11560,-9.875,9.4375,14.0625,0
11580,-9.9375,4.6875,8.6875,0
11600,-7.5,6.625,5,0
11620,-0.9375,4.75,1.5625,0
11640,3.1875,3.9375,-2.4375,0
11660,2.125,6.5625,-3.5625,0
11680,2.75,11,-0.625,0
11730,9.5,9.0625,8.0625,0
11750,6.375,8.1875,8.4375,0
11770,10.9375,5.25,10.75,0
11790,12.6875,3.5625,11,0
11810,5.3125,7.25,13.25,0
11830,-0.5,11,13.8125,0
11850,2.125,6.625,12.875,0
11870,1.5,4.75,10.9375,0
11890,0.8125,4.6875,10.5625,0
11910,3.125,0.875,11.8125,0
11930,11.1875,-1.25,14.375,0
11950,15.5625,-2.0625,16,0
11970,14.75,-1.625,11.875,0
11990,8.75,0.375,0.25,0
12010,5.8125,-0.375,-2.4375,0
12030,4.25,3.3125,-1.125,0
12050,3.4375,4.125,0.0625,0
12070,4.625,5.9375,2.9375,0
12090,3.625,6.3125,4.4375,0
12110,2.25,2.375,3.875,0
12130,-1.8125,-0.6875,2.75,0
12150,-4.1875,3.75,4.1875,0
12170,-2.625,5.5,8.75,0
12190,-3.3125,2.625,11.75,0
12210,-2.4375,2.5625,8.9375,0
12230,-3.5625,4.0625,5.6875,0
12250,-2.875,4.875,4.3125,0
12270,-0.75,5.875,5.8125,0
12290,-0.5,3,5.5625,0
12310,6.25,-0.8125,6,0
12330,7.9375,0.375,0.625,0
12350,3.375,2,-4.875,0
12360,1.1875,1.375,-4,0
12380,7.25,-2.5,-1.5625,0
12400,8.1875,-6.0625,-6.3125,0
12420,0.5625,-6.0625,-11.25,0
12440,-2.9375,-4.1875,-8.6875,0
12470,4.375,-1.6875,-0.625,0
12490,-0.6875,5.1875,-1.6875,0
12510,-6.0625,8.625,-3.75,0
12530,-7.6875,3.3125,-3.125,0
12550,-4.75,-3.875,-1.1875,0
12570,-4.6875,-6.8125,-2.1875,0
12590,-6.9375,-4.625,-6.6875,0
12610,-10.4375,1.3125,-11.875,0
12630,-15.25,5.8125,-11.25,0
12650,-8.375,-2.875,-3.5625,0
12660,2.4375,-12.5625,4.6875,0
12680,2.8125,-19.75,7.0625,0
12700,0.4375,-19.125,4,0
12720,-5.0625,-13.375,0.1875,0
12730,-8.375,-8.25,-0.5,0
12750,-12,0.0625,-0.0625,0
12750,-14.1875,4.75,0.5625,0
12770,-10.875,5.1875,1.4375,0
12790,-4.625,4.625,4.6875,0
12810,-0.6875,1.25,6.875,0
12830,-0.0625,3.625,1.8125,0
12850,-4.8125,12.0625,-4.3125,0
12860,-9.375,16.1875,-6.0625,0
12880,-3.8125,9.0625,-0.875,0
12900,-0.1875,2.25,3.9375,0
12920,5.25,-0.375,5.25,0
12940,3.75,-0.25,0.25,0
12960,1.375,-0.6875,-3.25,0
12980,0.125,2.8125,-0.3125,0
13000,1.4375,1.1875,5.75,0
13040,8.375,-4.125,8.3125,0
13060,6.5,0.625,7.25,0
13080,4.0625,3.125,7,0
13100,3.375,2.75,3.25,0
13120,3.25,2.75,1.5,0
13140,3.4375,1.625,-2.1875,0
13160,3.125,1,-9.3125,0
13180,-0.875,2.3125,-19.0625,0
13200,-2.75,2.25,-18.5625,0
13220,-3.8125,2.25,-13.125,0
13240,-3.75,0.6875,-10.9375,0
13260,-1.6875,-3.125,-12.0625,0
13280,-4.3125,-6.375,-14.4375,0
13300,-7.4375,-4.5,-8.5625,0
13320,-5.125,-1.0625,1.375,0
13340,-3.5,0.5,4.625,0
13360,-4.8125,1.25,1.8125,0
13380,-7.5,1.1875,1.0625,0
13400,-4.4375,2.0625,4.5,0
13420,-1.5625,1.4375,6,0
13440,5.8125,-1,6.4375,0
13460,5.75,0.0625,4.875,0
13480,5.5625,-1.1875,2.8125,0
13500,7.625,1.125,3.6875,0
13520,7,7.25,5.125,0
13540,12.125,12.125,9.375,0
13560,12.375,10.0625,5.75,0
13580,9.8125,2,-3.6875,0
13600,2.625,-0.4375,-7.9375,0
13620,-0.4375,-0.75,-13.0625,0
13640,-0.75,-1.5,-11.9375,0
13660,2.125,-2.25,-6,0
13680,2.8125,-0.5625,1.625,0
13690,2.4375,0.75,9.125,0
13710,5.6875,1.3125,11.625,0
13730,5.25,1.875,8.75,0
13750,-0.6875,0.6875,5.25,0
13770,-2.875,-1.1875,0.4375,0
13790,-5.0625,-1.5,-3.625,0
13810,-6.1875,0.8125,-5,0
13830,-9.125,3.125,-6.875,0
13850,-10.5,3.5,-5.0625,0
13870,-10.8125,3.6875,4.6875,0
13890,-3.9375,2.4375,15.3125,0
13910,2.75,2.8125,16,0
13930,1.25,1.125,14.5,0
13950,0.8125,-0.375,10,0
13970,0.125,0.6875,5.9375,0
13990,2.625,-0.25,3.6875,0
14010,2.9375,0.375,1.5625,0
14030,3.125,-0.1875,1.0625,0
14050,3.8125,-2.0625,2.0625,0
14070,4.5,-3.625,2.8125,0
14090,4.3125,-2.8125,3.4375,0
14110,3.8125,-1.125,5,0
14130,2.75,-0.3125,5.3125,0
14150,2.3125,0.25,4.75,0
14170,3.375,-1.3125,4.6875,0
14190,4.1875,-0.9375,6.1875,0
14210,4.5,1.375,6.0625,0
14230,5.4375,2.875,5.3125,0
14250,5.75,3.5,5.0625,0
14270,5.75,2.375,4.0625,0
14290,6.625,2.9375,2.875,0
14310,6.75,3.1875,1.875,0
14330,7.3125,2,0.9375,0
14350,8.4375,0.5,-0.125,0
14370,6,4.125,0.0625,0
14390,3.6875,3.1875,-1,0
14410,1.9375,1.875,-1.5,0
14430,1.375,2.1875,-3,0
14450,0.4375,3.875,-2.75,0
14470,0.125,4.9375,-0.75,0
14490,-2.25,4.8125,0.9375,0
14510,-1.0625,4.8125,1.125,0
14540,-0.3125,5.3125,-0.875,0
14560,-1.9375,2.8125,-0.5625,0
14580,-2.375,1.625,2.875,0
14620,1.25,2.4375,2.0625,0
14640,1.9375,2.0625,0.375,0
14660,1.75,1.25,-0.25,0
14680,2,2.125,0.8125,0
14700,3.375,2.1875,-0.5,0
14720,4.5,1.625,-1.6875,0
14740,5.25,1.625,-2.6875,0
14770,2.9375,0.6875,-2.375,0
14790,3.625,2.0625,-4.1875,0
14820,2,1.125,-0.9375,0
14840,1,0.0625,-0.9375,0
14860,-1,1.75,-0.8125,0
14880,-2.375,4.0625,-0.0625,0
14900,-2.0625,6.25,2.125,0
14920,0.25,5.6875,1.6875,0
14940,-0.25,5.8125,0.4375,0
14960,0.875,5,1.5,0
14980,0.1875,4.25,2.75,0
15000,0.8125,3.5625,3.875,0
15020,2.8125,1.8125,3.0625,0
15040,3.25,1.0625,0.9375,0
15060,2.625,3.25,0.3125,0
15080,1.8125,4.6875,0.625,0
15100,3.125,3.625,-0.3125,0
15120,3.875,-0.5625,-0.125,0
15130,3.625,-0.875,-0.1875,0
15150,2.1875,-0.75,-3,0
15170,0,-1.75,-1.6875,0
15190,0.6875,-3.625,0.375,0
15210,-1.375,-1.75,1.25,0
15230,-3.75,0.625,3.3125,0
15250,-5.1875,-1.1875,5.0625,0
15270,-3.3125,-0.8125,6.5625,0
15290,-4.875,-1.125,8.75,0
15310,0,-3.0625,11.6875,0
15340,4.625,0.1875,15.1875,0
15360,2.125,1.9375,12.75,0
15380,2.25,-0.75,11.8125,0
15400,0.625,-1,8.9375,0
15420,-0.4375,-2.5,3.875,0
15440,-2.6875,-3.0625,-0.0625,0
15460,-1.375,-3.625,-0.875,0
15480,0.25,-2.625,-1,0
15500,1.9375,-1.1875,-1.125,0
15520,1.8125,0.4375,-0.125,0
15540,4.3125,0.0625,1.5,0
15560,6.5625,1.125,2.0625,0
15580,6.0625,1.875,1,0
15600,5.875,0.25,0.125,0
15620,5.5,-0.75,-0.5625,0
15640,4.375,0,-0.1875,0
15660,2.375,2.9375,0,0
15680,0.875,3.875,-1.25,0
15700,0.5625,3.375,-1.1875,0
15720,0.5,2.4375,0.25,0
15740,0.625,2.125,2.375,0
15760,0.8125,0.75,4.3125,0
15780,2.75,0.4375,4.0625,0
15800,3.25,0.9375,3.375,0
15820,1.875,2.375,1.875,0
15840,-0.3125,3.4375,-0.6875,0
15860,-0.0625,2.6875,-1.9375,0
15880,3,2.1875,-0.4375,0
15900,5.0625,2.0625,0.6875,0
15920,3.9375,1.8125,-1.5625,0
15940,1.0625,1.9375,-4,0
15960,-0.375,2.4375,-6.8125,0
15980,-2.3125,2.125,-7.875,0
16000,-3.0625,3.0625,-6.1875,0
16020,0.4375,4.1875,-2,0
16040,-1.5,3.5,-3,0
16060,0.875,-0.0625,-0.375,0
16080,3.3125,-1.8125,5.375,0
16100,3.5,-3.5625,3.0625,0
16120,1.1875,-6.5625,4.5625,0
16140,4.875,-7.0625,10.0625,0
16160,9,-5.5625,11.8125,0
16180,6.9375,-4.0625,11.0625,0
16200,5.75,-4.5,6.875,0
16220,6.25,-3.5625,2.4375,0
16240,6.1875,-3.25,-0.1875,0
16260,5.6875,-3.3125,0.125,0
16280,7.25,-0.625,0.9375,0
16300,8.1875,1.75,-0.4375,0
16320,7.5,1.0625,-1.5625,0
16340,7.6875,3.875,-3.6875,0
16360,6.4375,2.5625,-0.6875,0
16380,7.0625,1.3125,5.8125,0
16400,9.6875,-0.0625,6.3125,0
16420,11,-1,0.5625,0
16440,4.75,0.1875,-1.9375,0
16460,1.8125,-0.0625,0.625,0
16480,2,-1.125,1.75,0
16500,3.125,-2.375,0.9375,0
16520,1.25,-1.875,2.5625,0
16540,0.3125,-0.4375,0.4375,0
16560,-0.25,-1,-2.875,0
16580,-0.625,-1.3125,-2.125,0
16600,0.1875,-2.75,-1.5,0
16620,0.0625,-3.9375,-5.0625,0
16640,2.1875,-1.8125,-6.6875,0
16660,4.4375,-5.875,-15.75,0
16680,5.625,-6.125,-15.5,0
16700,1.3125,-3.9375,-13.9375,0
16720,2.375,-4.4375,-13.4375,0
16740,1,-2.4375,-13.8125,0
16760,1.0625,-0.9375,-16.8125,0
16780,-1.125,-0.5,-18.5625,0
16800,0.9375,-0.6875,-16.5625,0
16820,3.125,0.25,-15.6875,0
16840,5.75,1.25,-12.6875,0
16860,4.375,1.75,-9.3125,0
16880,3.3125,0.625,-8.5,0
16900,0.9375,-1.1875,-8.625,0
16920,0.125,-1.5625,-10.125,0
16940,0.75,-2.3125,-7.5625,0
16960,-2.8125,-1.25,-1.125,0
16980,-5.8125,0.75,1.5,0
17000,-7.5625,2.6875,0.75,0
17020,-5.3125,1.25,0.5625,0
17040,-7.8125,1,1.625,0
17060,-9.875,1.8125,5.75,0
17080,-9.875,6.0625,5.0625,0
17100,-3.5625,5.0625,6.3125,0
17120,-0.6875,2.125,8.25,0
17140,-3.8125,2.3125,8.4375,0
17160,-5.125,3,6.75,0
17180,-0.9375,1.75,5,0
17200,-0.9375,-0.4375,6.1875,0
17220,-3,-0.375,8.0625,0
17240,-4.375,0.0625,6.75,0
17260,1.6875,-0.375,5.75,0
17280,5.625,0,5,0
17300,7.4375,2.375,6.3125,0
17320,8.0625,4.6875,3.625,0
17340,10.5,3.1875,-0.8125,0
17360,11.875,2.4375,-0.875,0
17380,13.0625,1.375,-0.875,0
17400,12.375,2.3125,-3.5625,0
17420,7.6875,3.875,-4.125,0
17440,5.25,2.1875,-2.3125,0
17460,4.1875,1.5625,-4,0
17480,3.0625,3.5,-6.5,0
17500,-2.0625,7,-11.4375,0
17520,-5.9375,6.125,-17.625,0
17540,-1.5,3.125,-12.3125,0
17560,3.6875,1.25,-3.8125,0
17580,7.1875,2.25,-0.4375,0
17600,6.25,4.0625,-4.25,0
17620,1.1875,3.3125,-7.6875,0
17640,5.625,-2.25,-5.375,0
17660,4.9375,-0.9375,-1.6875,0
17680,-0.4375,0.625,-1.125,0
17690,-0.375,0.75,-2.0625,0
17710,-1.75,1.6875,-4,0
17730,1.1875,-0.6875,-5.4375,0
17750,0.75,2.25,-4.3125,0
17770,-3,5.4375,2.4375,0
17790,-2.5625,5.5625,4.25,0
17810,0.4375,5.1875,4.25,0
17830,0.125,6.0625,8.3125,0
17850,2.125,4.3125,8.625,0
17870,1.5,5.125,5.5,0
17890,-0.9375,3.875,2.5625,0
17910,0.5625,0.4375,2,0
17930,2.6875,1.1875,3.0625,0
17950,0.1875,2.5625,1.8125,0
17970,-1.0625,3,0.625,0
17990,-1.4375,3.1875,-3.125,0
18010,-3.125,3.25,-3.5625,0
18030,-3.0625,1.25,-2.5,0
18050,-2.5,-0.625,-1.625,0
18070,-1.4375,-1.4375,-3.625,0
18090,-1.375,-1.5625,-4.3125,0
18110,-1.1875,-0.9375,-4.25,0
18130,0.3125,0.375,-4.5625,0
18150,1.375,1.25,-4.25,0
18170,2.375,0.4375,-3.6875,0
18190,3.25,-0.5,-4.25,0
18210,2.4375,0.125,-5.25,0
18230,0.1875,-1.0625,-6.3125,0
18250,0.4375,-5.5625,-5.125,0
18270,4.375,-10.5625,-4.25,0
18290,3.25,-10.8125,-8.375,0
18310,-0.8125,-5.5,-9.8125,0
18330,-5.5625,3.125,-7.4375,0
18350,-5.75,5,-3.125,0
18370,-4,1.375,-0.6875,0
18390,-2.75,-1.3125,-0.6875,0
18410,-3.1875,-1.1875,-1.125,0
18430,-4,-0.3125,-2.125,0
18450,-4.3125,-0.375,-1.75,0
18470,-4.1875,-1.6875,-1.6875,0
18490,-2.4375,-1.0625,-1.625,0
18510,-2.1875,-1.4375,-4.1875,0
18530,-2,-2.9375,-5.4375,0
18550,-0.9375,-3.25,-4.0625,0
18570,-0.25,-3.375,-1.875,0
18590,1.375,-3.125,-0.1875,0
18610,1,-0.75,1,0
18630,2.0625,-1.75,1.1875,0
18650,3.125,0.5,4.5,0
18670,5.0625,3.625,7,0
18690,4.5,9.1875,8.5625,0
18710,4.9375,9.9375,8.25,0
18730,4.9375,3.8125,3.5625,0
18750,6.6875,-2.625,1.625,0
18770,7.4375,-6.6875,1.75,0
18790,7.9375,-3.5,0.4375,0
18810,6.75,-2.1875,-2.875,0
18830,2.6875,-3.125,-6.5,0
18850,0.5625,-2.9375,-8.75,0
18870,-2.375,-0.4375,-6.9375,0
18890,-0.875,-0.5625,0,0
18910,1.4375,-1.6875,2.1875,0
18930,1.3125,-2.9375,1.5625,0
18950,-1.1875,-2.6875,2.375,0
18970,-2.375,-0.625,0.9375,0
18990,-5.1875,-2.125,-2.25,0
19010,-6.25,-2.6875,-1.5,0
19030,-5,-2.0625,-0.25,0
19050,-4.75,-1.625,0.0625,0
19070,-3,-3.375,2.375,0
19090,1.6875,-3.8125,6.25,0
19110,4.3125,1.25,3.25,0
19130,2.25,5.4375,0.8125,0
19150,1.875,10.6875,7.3125,0
19170,7.1875,7.25,7.25,0
19190,10.6875,5.0625,3.9375,0
19210,9.4375,1.4375,0.5625,0
19230,5.9375,-3.0625,-2.25,0
19250,9.875,-7.375,-0.875,0
19270,11.5625,-5.5,-4.9375,0
19290,7.875,0.9375,-9.75,0
19310,0.4375,2.8125,-9.5,0
19330,-1,1.875,-7.0625,0
19350,1.8125,0.875,-7.5,0
19370,0.3125,0.9375,-5.6875,0
19390,-3,0.5,-5.0625,0
19410,-4.875,-0.5,-4.6875,0
19430,-5.3125,-0.5,-1.6875,0
19450,-4.75,-0.625,1.625,0
19470,-3,-0.125,4.125,0
19490,-2.3125,0.125,3.1875,0
19510,-2.8125,1.0625,2.9375,0
19530,-4.625,3.375,2.8125,0
19550,-4.875,4.3125,2.75,0
19570,-3.1875,3.6875,3.6875,0
19590,-1.0625,3.4375,5.375,0
19610,0.375,3.1875,5,0
19630,0.375,1.875,4.4375,0
19650,1.25,0.875,4.375,0
19670,1.25,1.1875,1.4375,0
19690,3.6875,0.8125,1.375,0
19710,3.5625,-0.375,-0.0625,0
19730,2.1875,2.1875,-3.125,0
19750,2.375,4.75,-2.0625,0
19770,5.75,2.6875,-0.5625,0
19790,10.75,-2.5625,1.25,0
19810,10.5625,-3.6875,0.875,0
19830,7.625,-2.6875,-3.5,0
19850,5.5625,-0.6875,-7.8125,0
19870,7,1.5,-4.9375,0
19890,7.375,1.375,-5.375,0
19910,7.9375,0.375,-4.625,0
19930,3.375,-1.25,-5.125,0
19950,1.75,-2.9375,-6.875,0
19970,1.1875,-2.9375,-6.875,0
19990,-0.8125,-4,-5.375,0
20010,0.375,-6.5625,-3.625,0
20030,-1.625,-4.125,-0.625,0
20050,-4.25,-1.1875,0.9375,0
20070,-2.75,-2.375,0.75,0
20090,-3.375,-2.4375,-1.0625,0
20110,-6.1875,-1.4375,-2.5,0
20130,-6.75,-2.75,-3.3125,0
20150,-6.5625,-3.75,-4.0625,0
20170,-5.25,-3.0625,-3.125,0
20190,-3.5,-2.25,-1.8125,0
20210,-3.0625,-0.875,-1.3125,0
20230,-2.1875,-1.25,-1.0625,0
20250,-1.5,-3.8125,-1.875,0
20260,-1,-4.5,-4.5,0
20280,-1.9375,-0.1875,-1.6875,0
20300,-3.25,5.5,5.4375,0
20320,-0.25,8.375,7.3125,0
20340,1.5,5.0625,5.4375,0
20360,1.9375,4.75,2.25,0
20380,2.625,3.5625,2.875,0
20400,5.0625,0.875,3.1875,0
20420,3.5,0.375,-2.375,0
20430,1.9375,-0.3125,-5.125,0
20450,1.125,0.25,-5.5,0
20470,0.5,1.875,-3.0625,0
20490,0,-0.125,-2.1875,0
20510,2,-2.8125,-0.8125,0
20530,0.375,-3.1875,0.25,0
20550,-0.3125,-3.4375,1.25,0
20570,0.875,-2.0625,1.875,0
20590,-0.8125,-1.1875,0.875,0
20610,-1.625,-4.0625,-0.25,0
20630,-1.125,-7.4375,2.6875,0
20650,0.125,-8.75,3.8125,0
20670,-3.9375,-5.875,1.4375,0
20690,-5.875,-7.6875,-0.5625,0
20710,-2.9375,-7.25,6.25,0
20730,0.25,-3.125,12.9375,0
20750,3.4375,-4.25,9.5,0
20770,3.8125,-8.875,5.625,0
20790,3.9375,-5.8125,5.0625,0
20810,3.375,0.6875,4.0625,0
20830,0.5,1.1875,0.375,0
20850,0.5625,-0.375,-2.75,0
20870,-0.5625,-3.9375,-7.375,0
20890,-1.5625,-1.5,-10.125,0
20910,-0.5625,-0.0625,-4.5625,0
20930,1.375,-4.4375,-6.5625,0
20950,0.3125,-1.5,-5.5,0
20970,-0.75,-1.125,-3.9375,0
20990,-1.5625,-4.125,-4.375,0
21010,-2.75,-1.5625,-2.8125,0
21030,-3.875,0.0625,0.0625,0
21050,-3.625,-0.5625,0.3125,0
21070,-2.3125,6,6.4375,0
21090,-2.8125,2.4375,9.625,0
21110,-2.375,-4.25,3.1875,0
21130,-6.8125,4.0625,3,0
21150,-7,1.375,3.1875,0
21170,-3.0625,-1.3125,2.9375,0
21190,-3.6875,2.625,2.375,0
21210,-3.3125,1.625,2.375,0
21230,-2.9375,2.625,1.375,0
21250,-2.3125,3.875,1.3125,0
21270,-1.5,4.1875,2.9375,0
21290,-1.75,5.1875,3.1875,0
21310,-1.625,6.8125,1.4375,0
21330,-1.875,6.375,-1.9375,0
21350,-3.5,6,-4.25,0
21370,-3.125,5.375,-4,0
21390,-0.75,3.1875,-2.3125,0
21410,1.75,3.9375,-1.3125,0
21430,1.75,3.4375,-3,0
21450,0.75,3.4375,-4.75,0
21470,-0.5,5.375,-4,0
21490,0.5625,4.6875,0,0
21510,3.1875,6.0625,3.5,0
21530,1.4375,6.125,2.375,0
21550,0.5625,4,2.125,0
21570,1.5625,2.8125,4.8125,0
21590,3.125,1.5625,8.3125,0
21610,3.0625,2.125,8.9375,0
21630,1.5625,3.5,6.5625,0
21650,3.125,1,4,0
21670,2.75,2.3125,4.8125,0
21690,-0.875,5.8125,4.5,0
21710,-2.4375,5.5625,0.625,0
21730,-2.875,3.3125,-2.5,0
21750,-2.0625,2.5,-1.3125,0
21770,-0.4375,1.5,2.25,0
21790,-0.25,0.125,2.8125,0
21810,-0.0625,-1.3125,0.0625,0
21830,1.3125,-1.1875,-0.3125,0
21850,0.625,1.25,0.875,0
21870,-4.125,-0.375,0.875,0
21890,-5,-1.5625,1,0
21910,1.6875,0.125,5,0
21930,-1.6875,4.25,8.125,0
21950,-4.8125,3.125,6.0625,0
21970,-0.0625,-2.9375,6.625,0
21990,2.375,-6.75,9.5625,0
22010,7.4375,-8.375,8.0625,0
22030,4.4375,-8.8125,2.375,0
22050,2.5625,-11.625,-4.0625,0
22070,0.375,-10.8125,-9.0625,0
22090,-0.5625,-6.8125,-9.125,0
22110,0.25,-5.125,-6.1875,0
22130,2.75,-5.1875,-3.25,0
22150,3.0625,-2,-0.4375,0
22170,-0.375,3.5625,1.4375,0
22190,-4.625,6.25,2.6875,0
22210,-2.625,3.3125,2.3125,0
22230,-1.625,6.1875,4.4375,0
22250,-4.4375,7.8125,-0.9375,0
22270,-6.375,6.5,-2.6875,0
22290,-7.125,5.75,-4.5,0
22310,-6.9375,3.25,-4.5625,0
22330,-6.5625,2.875,-3.625,0
22350,-7.25,1.6875,-5.5625,0
22370,-6.6875,0.5,-7.0625,0
22390,-4.8125,-2.8125,-6.3125,0
22410,-6.1875,-4.6875,-7.0625,0
22430,-1.5625,-4.125,-5.1875,0
22450,0.1875,-2.375,-6.375,0
22470,1.625,-2.25,-6.0625,0
22490,8.875,-3.9375,-0.5625,0
22510,14.1875,-6.125,4.1875,0
22530,14.4375,-7.3125,4.25,0
22550,15.0625,-7.75,5.625,0
22570,16.625,-3.625,9.625,0
22590,16,0.1875,12.3125,0
22610,10.625,0.125,11.5625,0
22630,8.125,-2.875,10,0
22650,8.6875,-11.5,3.6875,0
22670,13.1875,-12.0625,7.5625,0
22690,13.1875,-4.375,15.5625,0
22710,7.625,-4.25,12.375,0
22730,9.1875,-6.1875,3,0
22750,11.25,-4.1875,3.9375,0
22770,14.625,-5,6.3125,0
22790,12.125,-6,5.875,0
22810,7.375,-4.1875,5.625,0
22820,7.75,5.625,6.8125,0
22840,2.1875,11,4.4375,0
22860,-6.5625,8.4375,5,0
22880,-13.6875,6.8125,9.3125,0
22900,-14.1875,7,10.9375,0
22920,-15.125,7.875,3.4375,0
22940,-17,5.6875,-0.5625,0
22960,-15.25,5.125,1.125,0
22980,-8.9375,6.375,3.5625,0
23000,-4,6.375,1.375,0
23020,-2.75,6.75,-3.5,0
23040,-4.375,3.4375,-8.375,0
23060,-7.25,-1.1875,-9.6875,0
23080,-6.9375,-3.3125,-10.125,0
23100,-3.9375,-5.125,-9,0
23120,-2.75,-3.875,-9.3125,0
23140,-5.375,-1.9375,-12.375,0
23160,-4.3125,-1.1875,-12.0625,0
23180,1.125,0.25,-9.0625,0
23200,3.125,3.1875,-4.875,0
23220,0.25,6.5625,-1.9375,0
23240,0.0625,8,-1.3125,0
23260,3.125,3.75,-2.75,0
23280,6.1875,-0.5625,-4.8125,0
23300,8.4375,-4.1875,-3.25,0
23320,12,-7.5,2.3125,0
23340,13.6875,-4.9375,6.0625,0
23360,11.1875,-3.625,2.625,0
23380,12.6875,-5.25,2.9375,0
23400,11.5,-2.3125,7.1875,0
23420,4.875,0.4375,4.4375,0
23440,2.375,2.4375,1.9375,0
23460,4.6875,3,0.9375,0
23470,8,3.875,3.3125,0
23490,7.8125,3.5625,3.8125,0
23510,6.1875,3.1875,2.0625,0
23530,6.125,5.1875,5.625,0
23550,9.125,9.6875,13.4375,0
23570,7.6875,8.5,11.375,0
23590,2.5,3.5,11.625,0
23610,-2.1875,5.4375,9.9375,0
23630,-8,9.8125,5.4375,0
23650,-10.3125,12.625,3.4375,0
23670,-10.125,14.375,2.625,0
23690,-10.3125,12.125,0.9375,0
23710,-10.5,8.1875,-2.375,0
23730,-9.6875,3.0625,-6.1875,0
23750,-10.125,-1,-7.75,0
23770,-9.875,0.4375,-6.6875,0
23790,-10.375,4.125,-6.8125,0
23810,-11.0625,5.375,-10.3125,0
23830,-9.6875,4.375,-11.0625,0
23850,-9.9375,4.3125,-11,0
23870,-8.5625,3.0625,-10.3125,0
23890,-8.875,1.75,-10.375,0
23910,-6.6875,1.5625,-8.8125,0
23930,-3.6875,0.125,-6.75,0
23950,-1.75,-0.5,-5.3125,0
23970,-2.0625,-1.5625,-5,0
23990,-3.0625,-4.3125,-3.5,0
24010,-2.3125,-7.5,-0.3125,0
24030,0.5,-7.3125,3.375,0
24050,3.8125,-6.9375,7.25,0
24070,8.0625,-6,9.1875,0
24090,6.0625,-3.375,6.25,0
24110,1.625,-2.75,0.375,0
24130,-0.3125,-3.125,-1.5625,0
24150,-0.6875,-1.6875,-2,0
24170,1.1875,-1.3125,-0.4375,0
24190,2.1875,-2,0.1875,0
24210,1.1875,-3.6875,0.4375,0
24230,0.1875,-1.875,0.6875,0
24250,-1,0,-0.125,0
24270,-1.625,1.125,-1.8125,0
24290,0.875,-0.875,-3.9375,0
24310,8,-6.6875,-0.0625,0
24330,13.625,-12.25,7.75,0
24350,10.875,-9.5625,10.9375,0
24370,6.125,-8.375,8,0
24390,6.5625,-12.6875,3.1875,0
24410,7.0625,-8.4375,3.5625,0
24430,0.5,1.25,4.3125,0
24450,-3.5,2.625,3.375,0
24470,0.8125,-1,5.0625,0
24490,5.5625,-2.125,5.375,0
24510,4.4375,2,5.5625,0
24530,2.9375,4.0625,7.25,0
24550,5.25,3.6875,11.875,0
24570,6.625,4.625,7.75,0
24590,6.6875,4.375,4.1875,0
24610,6.625,1.125,5.1875,0
24630,6.5,4.125,9.625,0
24650,5.125,8.6875,13.75,0
24670,8.375,7.3125,8.875,0
24690,3.4375,4.375,4.75,0
24710,1.3125,4.5625,10.4375,0
24730,2.5625,3.25,6.4375,0
24750,2.125,-0.25,0.3125,0
24770,2.3125,-2.3125,2.0625,0
24790,-0.5625,-2.5,4.125,0
24810,-0.8125,-6.0625,2.1875,0
24830,1.3125,-8.5,0.5625,0
24850,4.1875,-6.875,2.5,0
24870,5.5,-1.125,3.25,0
24890,1,0.375,2.6875,0
24910,0.3125,-4.5625,-0.8125,0
24930,-1.125,-7.75,-2.25,0
24950,-2.5,-6.75,0.875,0
24970,-3.5,-4,0.8125,0
24990,-2.125,-2.8125,-1,0
25010,-3.5,-1.4375,-0.3125,0
25030,-1.875,-3,0.8125,0
25050,2.75,-1.4375,3,0
25070,4.5625,1.4375,9.25,0
25090,4.125,-3.1875,3.875,0
25110,2.375,-3.5,-3.75,0
25130,0.1875,-1.0625,-4.875,0
25150,4.9375,-0.625,0.875,0
25170,5.8125,-0.5,-0.6875,0
25190,1.9375,-1.6875,-1.75,0
25210,-4.6875,0.875,-0.375,0
25230,-8.4375,4,-4,0
25250,-9.3125,1.125,-5.75,0
25270,-10.75,-1.4375,-5.9375,0
25290,-11.9375,-0.9375,-4.375,0
25310,-12.0625,1.75,-3.1875,0
25330,-12.125,2.4375,-4,0
25350,-12,2.25,-5.6875,0
25370,-11.625,4.0625,-5.9375,0
25380,-11.125,3.8125,-5.25,0
25400,-9.875,2.375,-4.1875,0
25420,-8.3125,2.0625,-3.5625,0
25440,-6.125,1.8125,-2.1875,0
25460,-5.4375,1.625,-1.75,0
25480,-4.6875,1.1875,-2.4375,0
25500,-3.5,0.1875,-1.3125,0
25520,-3.875,0.9375,-1.8125,0
25540,-2.25,-0.9375,-1.5,0
25560,-2.1875,-1.6875,-2.6875,0
25580,-2.5,-1.875,-3.6875,0
25600,-3.4375,0.25,-4,0
25620,-6.25,2.9375,-5.125,0
25640,-7.5,4.625,-5.4375,0
25660,-5.25,3.25,-4.1875,0
25680,-5.9375,0.5625,-4.375,0
25700,-6.125,-0.3125,-4.375,0
25720,-6.5625,0.1875,-4.6875,0
25740,-4.125,0.9375,-4.25,0
25760,-3.75,-0.8125,-4.4375,0
25780,-2.5625,-1.125,-3.25,0
25800,2.0625,-3.375,0.9375,0
25820,6.0625,-4.125,4.5625,0
25840,2.5625,-0.75,3.9375,0
25860,3.9375,-6,0.25,0
25880,6.6875,-15,-1.75,0
25900,6.8125,-18.4375,-1.4375,0
25920,1.5,-9.9375,-1.5625,0
25940,-4.9375,-2.875,-3.0625,0
25960,-5.625,-1.25,-2.5,0
25980,1,-4.0625,-0.0625,0
26000,4.1875,-5.5625,2.0625,0
26020,3.0625,-6.9375,0.9375,0
26040,0.9375,-6,-3.9375,0
26060,0.375,-3.75,-3.8125,0
26080,0.3125,-3.625,-1.125,0
26100,-0.875,-2.75,-2.0625,0
26120,-2.9375,-3.9375,-4.25,0
26140,-1.75,-5.375,-5.125,0
26160,-1.375,-2.625,-2.5625,0
26180,-2.5625,2.625,3.0625,0
26200,-4.0625,-0.6875,-1,0
26220,0.9375,-1.5625,1.625,0
26240,7.3125,3.625,6.75,0
26260,10.9375,4.375,11.625,0
26280,5.9375,7,13.3125,0
26300,1.875,5.625,6.6875,0
26320,-2.75,3.5,-0.25,0
26340,-4.0625,0.375,-1.625,0
26360,-4.3125,-0.5625,-1.9375,0
26380,-2.5,1.1875,-1.6875,0
26400,-1.875,3.4375,-0.5625,0
26420,-3.75,5.1875,-1.0625,0
26440,-4.1875,6.5625,-2.75,0
26460,-4.0625,7.3125,-6,0
26480,-2.9375,5.75,-7.25,0
26500,-2.9375,1.375,-6.4375,0
26520,-0.125,-1.6875,-3.0625,0
26540,3.125,0.375,1.0625,0
26560,2.6875,3.875,3.125,0
26580,3.4375,1.75,3.5,0
26600,4.0625,-0.5625,3.4375,0
26620,3.9375,0.5625,2.4375,0
26640,4.8125,1.25,1.9375,0
26660,4.6875,2.3125,2.4375,0
26680,3.125,3.75,2.1875,0
26700,1.75,5.6875,0.5,0
26720,0.0625,5.4375,0.1875,0
26740,-0.3125,5.5625,1.5,0
26760,-0.1875,3,1.0625,0
26780,-1.5625,-0.375,0.4375,0
26800,-0.5,0.75,0.3125,0
26820,-1.25,2.6875,0,0
26840,-1.1875,2.375,-0.875,0
26860,-0.875,1.3125,-1.8125,0
26880,0.75,-0.6875,-1.625,0
26900,2.5625,-1.75,-1.5,0
26920,2.0625,-1.3125,-2,0
26940,0.625,-0.75,-1.75,0
26960,0.375,-1.75,-1.625,0
26980,1.6875,-1.8125,-1,0
27000,2.3125,-1.1875,-1.0625,0
27020,1.625,-1.1875,-1.3125,0
27040,-0.25,-1.1875,-0.3125,0
27060,0.375,-1,2.375,0
27080,1.625,-0.625,2.5625,0
27100,0.9375,-1.0625,0.625,0
27120,-1.875,-1.3125,0.875,0
27140,-1.4375,-1.25,0.9375,0
27160,-0.4375,-1.5625,-0.75,0
27180,0.25,-1.5625,-1,0
27200,0.0625,-1.5625,-0.75,0
27220,-0.5,-0.75,-1.0625,0
27240,-0.25,0.75,-1,0
27260,0.125,-0.25,0,0
27280,-1.0625,-0.4375,0.5,0
27300,-0.3125,0.8125,1.0625,0
27320,-1,1.625,0.625,0
27340,-0.875,1.4375,1,0
27360,-0.875,2.4375,1.625,0
27380,-0.25,3.6875,1.25,0
27400,-0.125,3.75,0.875,0
27420,0.4375,4.3125,0.9375,0
27440,0.875,5.375,1.125,0
27460,-0.4375,6.625,-0.3125,0
27480,-0.75,9,-0.4375,0
27500,-0.1875,12.4375,-0.375,0
27520,-0.125,17.6875,0.5625,0
27540,3.25,29.5,5.375,0
27560,9.4375,44.375,16.125,0
27580,26,63.4375,36.3125,0
27600,38.8125,85.375,59.75,0
27620,55.4375,112.938,81.375,0
27640,83.5,176.25,120.75,0
27660,91.5,207.5,142,0
27680,97.0625,238.062,170.625,0
27700,99,265.875,189.875,0
27720,92.0625,292.5,198.25,0
27740,77.75,307.125,186.062,0
27760,65.3125,303.125,158.625,0
27780,62.6875,280.438,146.312,0
27800,43.75,253.188,138.938,0
27800,30.75,218.062,118.688,0
27820,1.1875,191.5,99.9375,0
27840,-5.375,149.812,85.3125,0
27860,2.75,107.125,86.625,0
27900,5.8125,92.875,97.0625,0
27920,14.9375,84.25,101.062,0
27940,21.6875,84.4375,105.625,0
27950,26.375,99.125,123.25,0
27970,-34.9375,33.125,87.5,0
27990,-59.625,-56.6875,-3.0625,0
28010,-145.688,-30.125,-47.5,0
28030,-57.3125,-4.8125,-12.625,0
28050,15,7.3125,20.375,0
28070,28.6875,14.1875,19.625,0
28090,37.75,13.75,8.1875,0
28110,39.5,-0.3125,-9.125,0
28130,26.8125,-6.5625,-11.3125,0
28150,9.625,-5.5,-11.1875,0
28170,-7,-0.25,-11.9375,0
28190,-9,6.25,-9.5,0
28210,-0.0625,8.1875,-6.3125,0
28230,5.4375,9,-1.6875,0
28250,4.375,6.8125,1.625,0
28270,-0.75,3.5,1.8125,0
28290,0.0625,2.0625,0.25,0
28310,3.0625,1.3125,-0.1875,0
28330,5.8125,1.5625,2.0625,0
28350,6.5,2.0625,3.0625,0
28370,3.75,1.5,0.25,0
28390,1.8125,1.8125,-3.375,0
28400,1.875,4,-5.125,0
28420,3.625,4.6875,-5.875,0
28440,3.0625,3.125,-4.5625,0
28460,4.125,-3.75,-1.375,0
28480,2.5625,4.6875,-1.4375,0
28500,0.9375,-6.25,6.125,0
28520,-0.375,3.75,1.25,0
28550,-5.9375,-5.125,6.3125,0
28570,-1.875,-6.4375,6.1875,0
28590,2.625,-5,3.25,0
28610,4,-4.1875,2.5,0
28630,2.5625,-4.625,4.125,0
28650,-1.5625,-4.5625,5.5,0
28670,-4.25,-2.875,7.25,0
28690,-3.5625,-3.375,6.8125,0
28710,-9.875,-7.9375,12.9375,0
28730,-20.5625,-4.125,13.625,0
28750,-21.8125,-6.5,11.5625,0
28770,-24.25,-4.375,11.0625,0
28790,-21.4375,-6.375,11.0625,0
28810,-15.3125,-6.625,8.75,0
28830,-11,-5.4375,6,0
28850,-9.3125,-4.1875,4.625,0
28870,-6,-2.875,2.5,0
28890,-0.9375,-1.6875,1.25,0
28910,3.625,-0.4375,-3.6875,0
28930,4.5625,2.125,-6.0625,0
28950,6.25,3.3125,-8.5625,0
28970,9.5625,3.4375,-10.0625,0
28990,11.0625,3.125,-11.6875,0
29010,8,3.375,-10.25,0
29030,7.625,5,-10.875,0
29050,10.4375,4.4375,-10.5,0
29060,2.875,3.0625,-7.8125,0
29090,3,3.5625,-6.375,0
29110,2.875,-0.3125,-3.6875,0
29120,0,1.25,-1.25,0
29140,-0.125,-1.25,0.625,0
29160,3.0625,0.9375,0.25,0
29180,-5.5625,-1.125,2.8125,0
29200,4.6875,-3.8125,-1.6875,0
29220,3.125,-2.375,-3.125,0
29240,-4.6875,-2.9375,0.5625,0
29260,2.625,-3.75,1.3125,0
29280,6.25,-1.75,0.3125,0
29300,-3,-0.375,0.9375,0
29320,-5.9375,-2.9375,5.1875,0
29340,3.4375,-3.9375,4.0625,0
29360,4.5,-0.875,3.375,0
29380,-4.6875,1.125,1.5,0
29410,-2.25,-0.3125,2.6875,0
29440,2.3125,1.5,-2.0625,0
29460,-2.5625,7.1875,-2.1875,0
29480,-1.3125,3.625,-1.9375,0
29500,-0.6875,2.0625,-2.4375,0
29520,1.375,0.75,-4.125,0
29540,0.3125,0.8125,-4.125,0
29560,0.5,1.5625,-2.125,0
29580,-4.4375,-0.6875,1.6875,0
29600,-0.25,1.25,-0.375,0
29620,-3.875,-3.125,3.625,0
29640,5.1875,-3.125,2,0
29660,5,-0.1875,-0.375,0
29680,-2.6875,0.875,2.3125,0
29700,-6.125,-0.875,3.1875,0
29720,-0.0625,-2.1875,0.0625,0
29740,5.6875,-0.75,0.9375,0
29760,1.875,2,0.1875,0
29780,3.125,6.9375,-4.375,0
29800,-1.3125,4.8125,-1.25,0
29820,-0.3125,1.625,-2,0
29840,0.0625,1.375,-1.6875,0
29850,-0.25,1.5625,-1.3125,0
29870,-0.125,1.3125,-1.125,0
29890,0.125,1,-0.875,0
29910,0.3125,0.8125,-0.8125,0
29930,0.5625,0.5625,-0.6875,0
29950,0.8125,0.3125,-0.5,0
29970,0.875,0.0625,-0.3125,0
29990,1.1875,-0.375,-0.1875,0
30010,1.25,-0.5625,-0.125,0
30030,1.0625,-0.6875,0.0625,0
30050,0.875,-0.625,0.375,0
30070,0.5625,-0.6875,0.5625,0
30090,0.25,-0.6875,0.4375,0
30110,0.375,-0.5625,0.1875,0
30130,0.5,-0.375,-0.0625,0
30150,0.5,-0.25,-0.0625,0
30170,0.3125,-0.0625,-0.3125,0
30190,0.25,0.0625,-0.5625,0
30210,0.125,0.0625,-0.8125,0
30230,0.5625,0,-0.875,0
30250,0.375,-0.0625,-0.625,0
30270,0.5625,-0.25,-0.0625,0
30290,0.75,-0.625,-0.25,0
30310,0.8125,-0.6875,-0.375,0
30330,0.625,-0.625,0.125,0
30350,0.1875,-0.75,0.6875,0
30370,0.375,-0.6875,0.75,0
30390,0.625,-0.6875,0.5,0
30410,0.4375,-0.3125,-0.0625,0
30430,0.375,-0.25,-0.5,0
30450,0.5625,-0.3125,-0.8125,0
30470,1,-0.1875,-1,0
30490,1.1875,-0.0625,-1.1875,0
30510,0.9375,-0.0625,-1.625,0
30530,0.875,0,-1.6875,0
30550,0.8125,0.0625,-1.625,0
30570,0.5,0.0625,-1.1875,0
30590,0.1875,0.125,-0.625,0
30610,0.0625,0,-0.5625,0
30630,0.875,-0.3125,-0.75,0
30650,2.0625,-0.5,-1.0625,0
30670,2.1875,-0.6875,-1.4375,0
30690,2,-0.75,-1.5,0
30710,2.1875,-0.8125,-1.4375,0
30730,2.0625,-0.625,-1.5,0
30750,2,-0.5625,-1.25,0
30770,1.5625,-0.6875,-1.25,0
30790,1.375,-0.375,-1.375,0
30810,1.25,-0.3125,-1.375,0
30830,1.5625,-0.5,-1.625,0
30850,2.0625,-0.5625,-1.75,0
30870,2.3125,-0.4375,-1.875,0
30890,2.5625,-0.5625,-1.8125,0
30910,2.375,-0.4375,-1.5625,0
30930,2.0625,-0.4375,-1.125,0
30950,2.125,-0.3125,-1,0
30970,2.3125,-0.5625,-0.875,0
30990,2.0625,-0.6875,-0.4375,0
31010,2.125,-0.6875,-0.25,0
31030,1.9375,-0.625,-0.1875,0
31050,1.5,-0.625,-0.4375,0
31070,1.5,-0.875,-0.5,0
31090,1.0625,-0.8125,-0.375,0
31110,1.5,-0.875,-0.4375,0
31130,1.6875,-0.8125,-0.75,0
31150,1.4375,-0.75,-1.125,0
31170,1.0625,-0.8125,-1.25,0
31190,1.125,-0.6875,-1,0
31210,0.75,-0.5625,-0.375,0
31230,0.4375,-0.5,-0.125,0
31250,0.625,-0.5,0.0625,0
31270,0.1875,-0.6875,-0.625,0
31290,0.25,-0.5625,-0.875,0
31310,0.375,-0.375,-1,0
31330,0,-0.25,-0.8125,0
31350,-0.5625,-0.25,-0.3125,0
31370,-0.5,-0.4375,-0.1875,0
31390,0.0625,-0.5625,-0.25,0
31410,0.375,-0.625,-0.5625,0
31430,0.3125,-0.5,-0.625,0
31450,0.25,-0.375,-0.5625,0
31470,0.1875,-0.375,-0.625,0
31490,0.125,-0.375,-0.4375,0
31510,0.125,-0.3125,-0.375,0
31530,0.375,-0.125,-0.0625,0
31550,0.3125,-0.25,0.0625,0
31570,-0.0625,-0.25,0.4375,0
31590,-0.625,-0.125,0.625,0
31610,-0.25,-0.25,0.375,0
31630,-0.3125,-0.3125,0.125,0
31650,-0.125,-0.25,0.25,0
31670,-0.1875,-0.1875,0.4375,0
31690,-0.5625,-0.3125,0.375,0
31710,-0.9375,-0.125,0.4375,0
31730,-0.875,-0.125,0.25,0
31750,-0.625,-0.0625,0.0625,0
31770,-0.4375,-0.0625,0.0625,0
31790,-0.625,-0.25,0.125,0
31810,-1,-0.125,0.5,0
31830,-0.3125,-0.25,0.25,0
31850,-0.1875,-0.125,0,0
31870,-0.4375,-0.125,-0.25,0
31890,-0.875,-0.1875,-0.1875,0
31910,-0.9375,-0.1875,0.25,0
31930,-1.375,0.0625,0.6875,0
31950,-1.5625,0.125,0.9375,0
31970,-1.25,0,0.75,0
31990,-0.75,-0.1875,0.25,0
32010,-0.25,-0.25,-0.3125,0
32030,-0.3125,-0.1875,-0.25,0
32050,-0.75,0,0.0625,0
32070,-1.5,0.0625,0.25,0
32090,-1.4375,0.0625,0.5625,0
32110,-0.9375,0.0625,0.625,0
32130,-0.5625,0,0.4375,0
32150,-0.1875,-0.25,0.1875,0
32170,-0.3125,-0.25,0,0
32190,-0.3125,-0.25,-0.125,0
32210,-0.25,-0.125,-0.25,0
32230,0.0625,-0.25,0,0
32250,0.0625,-0.1875,0.125,0
32270,-0.0625,-0.375,0.25,0
32290,-0.4375,-0.3125,0.125,0
32310,-0.25,-0.25,0.125,0
32330,-0.1875,-0.375,0.0625,0
32350,0.0625,-0.375,0.125,0
32370,0.125,-0.1875,0.0625,0
32390,0.25,-0.4375,-0.125,0
32410,0.375,-0.4375,-0.1875,0
32430,0.3125,-0.4375,-0.3125,0
32450,0.125,-0.3125,-0.0625,0
32470,0,-0.25,0,0
32490,0.25,-0.375,-0.375,0
32510,-0.125,-0.5,0,0
32530,-0.25,-0.3125,0,0
32550,0.25,-0.5,-0.0625,0
32570,0.6875,-0.5625,-0.125,0
32590,0.5625,-0.375,-0.1875,0
32610,-0.125,-0.4375,-0.25,0
32630,-0.4375,-0.4375,-0.1875,0
32650,-0.3125,-0.25,0.0625,0
32670,-0.3125,-0.1875,0.1875,0
32690,-0.1875,-0.25,0.3125,0
32710,0.0625,-0.25,0.125,0
32730,0.125,-0.375,-0.0625,0
32750,0.125,-0.375,-0.1875,0
32770,0,-0.3125,-0.125,0
32790,-0.5625,-0.0625,0.0625,0
32810,-0.4375,-0.125,0.25,0
32830,0.3125,-0.25,0.125,0
32850,0.3125,-0.375,-0.125,0
32870,-0.25,-0.125,0.3125,0
32890,-0.0625,-0.125,0.1875,0
32910,-0.3125,-0.25,-0.0625,0
32930,-0.3125,-0.1875,0.0625,0
32950,-0.25,-0.1875,0.125,0
32970,-0.125,-0.125,0.125,0
32990,0.0625,-0.125,0.125,0
33010,0.0625,-0.0625,0.0625,0
33030,-0.375,-0.1875,0.1875,0
33050,-0.1875,-0.1875,0.25,0
33070,-0.25,-0.25,0.5,0
33080,-0.0625,-0.0625,0.1875,0
33100,0.1875,-0.125,0.0625,0
33120,0.375,-0.0625,-0.1875,0
33140,0.25,-0.0625,-0.1875,0
33160,0.0625,0.125,-0.0625,0
33180,-0.1875,0.3125,-0.1875,0
33200,0.0625,0.25,-0.375,0
33220,0.0625,0.25,-0.1875,0
33240,0.625,0.125,0,0
33260,1.125,-0.125,-0.125,0
33280,1.125,-0.1875,-0.25,0
33300,0.5,0,-0.25,0
33320,-0.125,-0.0625,-0.1875,0
33340,-0.1875,0.1875,0.1875,0
33360,-0.1875,0.1875,0.4375,0
33380,-0.25,0.125,0.375,0
33400,0.1875,-0.0625,0.1875,0
33420,0.6875,-0.125,-0.125,0
33440,0.875,-0.0625,-0.5,0
33460,0.8125,-0.125,-0.5,0
33480,0.125,0,-0.25,0
33500,-0.1875,0.1875,-0.0625,0
33520,0.375,0.0625,0.25,0
33540,0.75,0.125,0.0625,0
33560,0.6875,0,0,0
33580,0.5625,0,-0.125,0
33600,0.8125,0,-0.0625,0
33620,1.0625,-0.125,-0.3125,0
33640,0.9375,-0.125,-0.125,0
33660,1,-0.1875,-0.25,0
33680,1.0625,0,-0.4375,0
33700,1.0625,-0.1875,-0.5,0
33720,1.0625,-0.0625,-0.5,0
33740,0.8125,0.0625,-0.3125,0
33760,0.8125,0,-0.1875,0
33780,0.25,0,0,0
33800,-0.0625,0.375,0.375,0
33820,0,0.3125,0.3125,0
33840,0.3125,0,0.125,0
33860,0.1875,0,0.0625,0
33880,0.1875,0.0625,-0.125,0
33900,-0.125,0.3125,0.0625,0
33920,-0.125,0.25,0.5,0
33940,0.3125,0.0625,0.4375,0
33960,0.875,-0.375,-0.125,0
33980,0.9375,-0.0625,-0.375,0
34000,0.125,0.125,-0.5625,0
34020,0,0.375,-0.4375,0
34040,0.1875,0.25,0.25,0
34060,-0.125,-0.125,0.5625,0
34080,-0.25,-0.125,0.6875,0
34100,-0.3125,-0.125,0.5625,0
34120,-0.125,-0.0625,0.3125,0
34140,0.0625,0,0.25,0
34160,0,0.1875,0.0625,0
34180,-0.6875,0.3125,0.3125,0
34200,-0.5,-0.0625,0.5,0
34220,0.0625,0,0.375,0
34240,0.1875,0.0625,0.0625,0
34260,0.0625,0.125,0,0
34280,-0.375,0.1875,-0.0625,0
34300,-0.4375,0.0625,0.375,0
34320,-0.25,0.0625,0.125,0
34340,-0.0625,0.1875,-0.0625,0
34360,-0.25,0.1875,-0.125,0
34380,-0.625,0.3125,0,0
34400,-0.625,0.5,0,0
34420,-0.625,0.25,0.1875,0
34440,-0.75,0.3125,0.4375,0
34460,-0.5625,0.25,0.4375,0
34480,-0.875,0.3125,0.4375,0
34500,-0.875,0.1875,0.4375,0
34520,-0.5625,0.25,0.3125,0
34540,-0.5,0,0,0
34560,-0.6875,0.25,0.0625,0
34580,-0.625,0.25,0.375,0
34600,-0.75,0.0625,0.5625,0
34620,-0.6875,-0.125,0.375,0
34640,-0.25,-0.1875,-0.1875,0
34660,-0.375,0.0625,-0.5,0
34680,-0.375,0.125,-0.6875,0
34700,-0.5,-0.1875,-0.3125,0
34720,-0.1875,-0.3125,0.1875,0
34740,-0.5625,-0.3125,0.3125,0
34760,-0.625,-0.3125,0.0625,0
34780,-0.6875,-0.125,-0.1875,0
34800,-0.4375,-0.0625,-0.25,0
34820,-0.3125,0,-0.125,0
34840,-0.6875,0,0,0
34860,-1.125,0,0.1875,0
34880,-0.75,-0.1875,0.125,0
34900,0.125,-0.0625,-0.125,0
34920,0.4375,-0.0625,-0.375,0
34940,0.375,-0.25,-0.5,0
34960,0.0625,-0.1875,-0.4375,0
34980,-0.1875,-0.125,-0.375,0
34990,-0.0625,0,-0.375,0
35010,-0.1875,-0.125,-0.375,0
35030,0.25,-0.25,-0.375,0
35050,0.375,-0.125,-0.25,0
35070,0.0625,-0.0625,-0.125,0
35090,-0.125,-0.1875,0.0625,0
35110,-0.3125,-0.125,0.0625,0
35130,-0.25,-0.3125,0,0
35150,0.1875,-0.3125,-0.1875,0
35170,0.3125,-0.25,-0.5,0
35190,0.5,0.125,-0.3125,0
35210,0.0625,0,-0.3125,0
35230,0.3125,-0.125,-0.4375,0
35250,-0.25,-0.0625,-0.5,0
35270,-0.1875,-0.125,-0.375,0
35290,-0.375,-0.125,-0.125,0
35310,0.6875,-0.25,-0.3125,0
35330,0.625,-0.25,-0.375,0
35350,0.1875,-0.125,-0.5625,0
35370,-0.25,-0.25,-0.4375,0
35390,-0.4375,-0.25,-0.125,0
35410,-0.375,-0.125,0.0625,0
35430,-0.3125,-0.1875,0.0625,0
35450,-0.25,-0.25,0.0625,0
35470,0.0625,-0.1875,-0.25,0
35490,0.125,-0.25,-0.4375,0
35510,0.125,-0.375,-0.5,0
35530,-0.0625,-0.25,-0.375,0
35550,-0.625,0,-0.375,0
35570,-0.5625,-0.0625,-0.125,0
35590,0,0,0.0625,0
35610,0.25,0,-0.1875,0
35630,0.1875,-0.1875,-0.1875,0
35650,0.25,-0.25,-0.3125,0
35670,0.1875,-0.3125,-0.4375,0
35690,0.125,-0.25,-0.5,0
35710,0.25,0,-0.25,0
35730,0.0625,-0.0625,-0.25,0
35750,-0.0625,-0.1875,-0.5625,0
35770,0.0625,-0.125,-0.9375,0
35790,0.8125,0,-1.4375,0
35810,0.75,-0.0625,-1.5625,0
35830,0.25,0,-0.9375,0
35850,0.375,0.125,-0.5,0
35870,0.0625,0.1875,-0.25,0
35890,-0.1875,-0.0625,-0.3125,0
35910,-0.125,0,-0.125,0
35930,-0.375,0,0.0625,0
35950,-0.625,0.0625,0.0625,0
35970,-0.75,0.125,0.1875,0
35990,-0.5625,-0.0625,0.125,0
36010,0.25,-0.3125,-0.1875,0
36030,1.375,0,0.25,0
36050,0.25,-0.25,-0.5625,0
36070,-0.6875,-0.1875,-0.3125,0
36090,-0.5,-0.1875,-0.1875,0
36110,-0.1875,-0.0625,-0.375,0
36130,-0.1875,-0.0625,-0.25,0
36150,-0.3125,0,0,0
36170,0.0625,0.0625,0.25,0
36190,-0.1875,-0.0625,-0.0625,0
36210,0,-0.0625,-0.125,0
36230,0.125,-0.0625,-0.25,0
36250,-0.125,-0.0625,-0.1875,0
36270,-0.0625,-0.1875,-0.25,0
36290,-0.0625,-0.25,0.0625,0
36310,0.5625,0,0.375,0
36330,0.5,-0.1875,0.25,0
36350,0.5,-0.25,0.1875,0
36370,0.0625,-0.125,0.0625,0
36390,-0.1875,-0.0625,0.0625,0
36410,-0.375,-0.0625,0,0
36430,-0.1875,-0.0625,0,0
36450,-0.1875,-0.125,0.0625,0
36470,-0.25,0.0625,0.0625,0
36490,-0.5,0.0625,0.125,0
36510,-0.625,0.125,0,0
36530,-0.75,0,0,0
36550,-0.3125,-0.0625,0,0
36570,-0.25,0,-0.125,0
36590,0.125,0.0625,-0.25,0
36610,0.1875,-0.0625,-0.125,0
36630,0.0625,-0.0625,-0.125,0
36650,-0.1875,-0.125,-0.125,0
36670,-0.3125,-0.1875,0,0
36690,-0.4375,-0.125,0.1875,0
36710,0.0625,-0.125,0.25,0
36730,0.8125,-0.1875,-0.125,0
36750,1.0625,-0.1875,-0.4375,0
36770,0.75,0.25,0.0625,0
36790,-0.375,-0.125,-0.125,0
36810,-0.8125,-0.125,0.1875,0
36830,-0.4375,-0.0625,0.25,0
36850,-0.125,0,0.1875,0
36870,0.0625,-0.125,0.0625,0
36890,0.375,-0.1875,-0.25,0
36910,0.3125,-0.1875,-0.25,0
36930,0.25,-0.25,-0.25,0
36950,-0.375,0,-0.125,0
36970,-0.8125,0.125,0,0
36990,-0.375,0.0625,0.125,0
37010,0.3125,0.0625,0.1875,0
37030,0.375,-0.0625,0.25,0
37050,0.375,-0.125,0.0625,0
37070,0.25,-0.125,-0.1875,0
37090,0.125,-0.125,-0.25,0
37110,0.3125,-0.0625,-0.3125,0
37130,0.125,0.0625,-0.0625,0
37150,0.25,0.125,0.0625,0
37170,0.125,0.1875,0,0
37190,0.0625,0.125,0,0
37210,-0.125,0.0625,0,0
37230,-0.125,0.125,0.0625,0
37250,0,0.0625,0.125,0
37270,0.25,0.0625,0.25,0
37290,0.3125,-0.0625,0.25,0
37310,0.375,-0.0625,0.1875,0
37330,0.5625,0.0625,0.125,0
37350,0.3125,-0.1875,0.1875,0
37370,0.3125,0,0,0
37390,0.5625,-0.0625,-0.25,0
37410,0.5,0,-0.25,0
37430,0.4375,-0.125,-0.125,0
37450,0.9375,-0.3125,0.125,0
37470,1.3125,-0.375,0,0
37490,1.0625,-0.3125,-0.0625,0
37510,0.3125,-0.25,0.125,0
37530,-0.0625,-0.125,0.25,0
37550,0.0625,-0.125,0.5,0
37570,0.25,-0.1875,0.5625,0
37590,0.3125,-0.1875,0.5,0
37610,0.5625,-0.3125,0.4375,0
37630,0.875,-0.3125,0,0
37650,0.875,-0.1875,-0.25,0
37670,0.5625,-0.1875,-0.1875,0
37690,0.0625,0.0625,0,0
37710,-0.1875,0.0625,0.3125,0
37730,0.4375,-0.1875,0.4375,0
37750,0.6875,-0.125,0.25,0
37770,0.6875,-0.25,0.0625,0
37790,1.125,-0.1875,-0.25,0
37810,1.0625,-0.125,-0.3125,0
37830,1.1875,-0.125,-0.25,0
37850,0.625,-0.125,-0.0625,0
37870,0.4375,-0.25,-0.0625,0
37890,0.5,-0.3125,-0.0625,0
37910,0.6875,-0.3125,-0.1875,0
37930,0.9375,-0.375,-0.4375,0
37950,0.875,-0.3125,-0.4375,0
37970,1,-0.375,-0.3125,0
37990,0.8125,-0.5625,-0.3125,0
38010,0.875,-0.5625,-0.25,0
38030,0.625,-0.5,-0.1875,0
38050,0.875,-0.25,-0.125,0
38070,0.6875,-0.25,-0.25,0
38090,0.4375,-0.25,-0.375,0
38110,-0.125,-0.3125,-0.25,0
38130,-0.375,-0.3125,0,0
38150,-0.0625,-0.25,0.375,0
38170,0.75,-0.375,-0.25,0
38190,0.9375,-0.375,-0.5625,0
38210,0.375,-0.3125,-0.8125,0
38230,-0.25,-0.1875,-0.5625,0
38250,-0.125,-0.25,-0.0625,0
38260,-0.3125,-0.25,0.0625,0
38280,-0.375,-0.3125,0.125,0
38300,-0.3125,-0.1875,0,0
38320,-0.1875,-0.25,-0.375,0
38340,-0.0625,-0.3125,-0.625,0
38360,-0.25,-0.125,-0.4375,0
38380,-0.875,0.0625,-0.0625,0
38400,-0.75,0,0.1875,0
38420,0,-0.125,-0.1875,0
38440,-0.0625,-0.125,-0.5,0
38460,-0.375,-0.1875,-0.1875,0
38480,-0.4375,-0.0625,-0.25,0
38500,-0.6875,-0.0625,-0.3125,0
38520,-0.375,0.25,0,0
38540,-0.375,-0.0625,-0.5,0
38560,-0.3125,-0.1875,-0.4375,0
38580,-0.375,0.0625,-0.3125,0
38600,-0.5625,0.125,-0.1875,0
38620,-0.75,0.125,-0.125,0
38640,-0.9375,0,0.0625,0
38660,-0.75,0.0625,0.125,0
38680,-0.625,0.0625,0.375,0
38700,-0.625,0.0625,0.1875,0
38720,-0.5,0,-0.0625,0
38740,-0.5,-0.0625,-0.125,0
38760,-0.3125,-0.1875,-0.125,0
38780,0,-0.3125,-0.5625,0
38800,-0.125,-0.1875,-0.75,0
38820,-0.25,-0.125,-0.25,0
38840,-0.5625,0.25,0.3125,0
38860,-0.6875,-0.0625,0.1875,0
38880,-0.4375,-0.3125,0.0625,0
38900,0.625,-0.1875,-0.1875,0
38920,1.375,0.375,0.3125,0
38940,0.0625,-0.25,-0.375,0
38960,-0.5,-0.0625,0.0625,0
38980,-0.625,-0.0625,0.125,0
39000,-0.6875,0,0.1875,0
39020,-0.5625,-0.0625,0.1875,0
39040,0,-0.125,-0.1875,0
39060,0.3125,-0.375,-0.3125,0
39080,0.5625,-0.375,-0.4375,0
39100,0.25,-0.3125,-0.25,0
39120,0.3125,0.125,0.375,0
39140,-0.3125,-0.25,0.0625,0
39160,0.3125,-0.3125,0,0
39180,0.1875,-0.375,-0.1875,0
39200,-0.125,-0.4375,0.0625,0
39220,0.5,-0.375,-0.0625,0
39240,0.3125,-0.125,-0.1875,0
39260,0.8125,-0.3125,-0.4375,0
39280,0.375,-0.3125,-0.4375,0
39300,0.1875,-0.125,-0.1875,0
39320,-0.25,0,-0.125,0
39340,-0.4375,-0.0625,0.0625,0
39360,-0.25,-0.1875,-0.0625,0
39380,0,-0.0625,-0.0625,0
39400,0.125,-0.125,-0.1875,0
39420,0.4375,-0.0625,-0.0625,0
39440,0.5,-0.1875,0.0625,0
39460,0,-0.25,-0.1875,0
39480,0.25,-0.1875,-0.125,0
39500,0.3125,-0.125,-0.125,0
39520,0.375,-0.1875,-0.1875,0
39540,0.1875,-0.125,-0.125,0
39560,-0.125,-0.125,-0.25,0
39580,-0.1875,-0.125,-0.25,0
39600,-0.5,-0.0625,0.0625,0
39620,-0.3125,-0.1875,0.125,0
39640,0.3125,-0.3125,0.0625,0
39660,1.1875,-0.5,-0.25,0
39680,0.5625,-0.1875,-0.4375,0
39700,-0.0625,-0.125,-0.1875,0
39720,-0.3125,-0.25,0.125,0
39740,0.1875,0.1875,0.5625,0
39760,-0.6875,-0.125,0.1875,0
39780,-0.5,0,0.3125,0
39800,-0.25,-0.0625,0.0625,0
39820,0.125,-0.125,-0.25,0
39840,0.25,-0.1875,-0.375,0
39860,-0.125,-0.125,-0.25,0
39880,-0.625,-0.125,-0.5,0
39900,-0.6875,-0.125,-0.1875,0
39920,-0.25,0.0625,0.1875,0
39940,-0.125,0.0625,-0.1875,0
39960,0.375,-0.125,-0.3125,0
39980,0.5625,-0.1875,-0.25,0
40000,0.5625,-0.0625,-0.25,0
40020,0.375,0,-0.125,0
40040,0.25,0,0.125,0
40060,0,0.125,0.125,0
40080,0.0625,0.0625,-0.0625,0
40100,-0.0625,0.125,-0.1875,0
40120,-0.6875,0,0.125,0
40130,-1.875,0.25,0.5625,0
40150,-2.25,0.1875,0.875,0
40170,-1.375,0.1875,0.375,0
40190,-0.5,0.0625,-0.1875,0
40210,0.375,-0.0625,-0.375,0
40230,0.75,0,-0.3125,0
40250,0.8125,0.125,-0.125,0
40270,0.3125,0.0625,-0.0625,0
40290,0.3125,0.0625,0.0625,0
40310,0.375,0.0625,0.25,0
40330,0.5,0.125,0.25,0
40350,0.4375,0.125,0.0625,0
40370,0.1875,0.125,0.0625,0
40390,0.125,0.0625,0.1875,0
40410,0.6875,-0.125,0.1875,0
40430,1.375,-0.25,-0.0625,0
40450,1.25,-0.125,-0.3125,0
40470,0.5,-0.1875,-0.375,0
40490,0.0625,-0.125,-0.125,0
40510,-0.125,0,0.3125,0
40530,-0.375,0.1875,0.5625,0
40550,-0.4375,0,0.6875,0
40570,-0.125,0,0.5625,0
40590,0.3125,-0.125,0.125,0
40610,0.125,-0.0625,-0.125,0
40630,-0.0625,0.125,0.125,0
40650,-0.6875,0.1875,0.1875,0
40670,-0.75,0.125,0.375,0
40690,0,0.0625,0.3125,0
40710,0,0.0625,0.0625,0
40730,0.25,0,0,0
40750,0.125,-0.0625,0,0
40770,0.625,0.125,-0.125,0
40790,0.4375,0.1875,-0.0625,0
40810,0.1875,0.1875,0,0
40830,0,0.3125,0,0
40850,0.1875,0.1875,0,0
40870,0.125,0.25,-0.125,0
40890,0.125,0.1875,0,0
40910,-0.375,0.25,0.3125,0
40930,-0.625,0,0.25,0
40950,-0.5625,-0.0625,0.25,0
40970,-0.4375,-0.0625,0.0625,0
40990,-0.375,-0.0625,-0.25,0
41010,-0.125,-0.125,-0.1875,0
41030,-0.1875,-0.125,-0.1875,0
41050,-0.25,-0.1875,-0.125,0
41070,-0.125,-0.1875,-0.25,0
41090,-0.3125,-0.125,-0.375,0
41110,-0.3125,-0.0625,-0.5,0
41130,-0.625,0,-0.3125,0
41150,-0.5,-0.0625,0.0625,0
41170,0.25,-0.375,-0.0625,0
41190,0.5,-0.4375,-0.4375,0
41210,0,-0.3125,-0.75,0
41230,-0.625,-0.1875,-0.8125,0
41250,-0.375,-0.25,-0.4375,0
41270,-0.25,-0.375,-0.1875,0
41290,-0.3125,-0.3125,-0.125,0
41310,-0.1875,-0.375,-0.3125,0
41330,-0.25,-0.3125,-0.5,0
41350,-0.0625,-0.25,-0.5,0
41370,0.125,-0.25,-0.625,0
41390,-0.75,-0.375,-0.375,0
41410,-0.8125,-0.5625,0,0
41430,-0.3125,-0.4375,0.125,0
41450,0.125,-0.5,-0.4375,0
41470,0,-0.625,-0.5,0
41490,0.25,-0.375,-0.5,0
41510,0.25,-0.3125,-0.4375,0
41530,0.25,-0.25,-0.625,0
41550,0.125,-0.3125,-0.625,0
41570,0.1875,-0.25,-0.75,0
41590,0.25,-0.25,-0.5,0
41610,0.25,-0.0625,-0.5,0
41630,0.125,-0.0625,-0.25,0
41650,0.3125,0.125,0.25,0
41670,0,-0.25,-0.3125,0
41690,-0.0625,-0.375,-0.3125,0
41710,0.3125,-0.25,-0.3125,0
41730,-0.125,-0.1875,-0.0625,0
41750,-0.0625,-0.1875,-0.1875,0
41770,-0.0625,-0.25,-0.3125,0
41790,0.1875,-0.25,-0.3125,0
41810,0.0625,-0.4375,-0.4375,0
41830,-0.125,-0.375,0,0
41850,0.125,-0.375,-0.25,0
41870,-0.0625,-0.3125,-0.1875,0
41890,-0.1875,-0.25,-0.1875,0
41910,0,-0.125,0,0
41930,0.6875,-0.5,-0.1875,0
41950,2.0625,0,0.25,0
41970,0.6875,-0.0625,-0.5625,0
41990,-0.1875,-0.25,-0.4375,0
42010,-0.4375,-0.25,-0.375,0
42030,-0.3125,-0.25,-0.25,0
42050,-0.375,-0.25,-0.3125,0
42070,-0.3125,-0.1875,-0.125,0
42090,0.0625,-0.125,-0.0625,0
42110,0.25,-0.0625,-0.1875,0
42130,0.125,-0.25,-0.5,0
42150,-0.125,-0.375,-0.375,0
42170,-0.4375,-0.1875,-0.3125,0
42190,-0.3125,0,0.0625,0
42210,0.25,0,-0.0625,0
42230,0.125,-0.1875,-0.375,0
42250,-0.1875,-0.0625,0,0
42270,-0.1875,-0.125,-0.0625,0
42290,-0.0625,0.0625,-0.1875,0
42310,-0.125,0.25,-0.1875,0
42330,-0.125,0.0625,-0.0625,0
42350,-0.25,0.125,-0.125,0
42370,-0.1875,0.125,0.125,0
42390,-0.375,0.1875,-0.0625,0
42410,-0.375,0.125,0.125,0
42430,-0.375,0.0625,0.125,0
42450,-0.375,0,0.1875,0
42470,-0.5,0,0.0625,0
42490,-0.5,0.0625,0.0625,0
42510,-0.3125,0.0625,0.1875,0
42530,-0.125,0.0625,0.125,0
42550,-0.125,0.125,0.0625,0
42570,0,0.0625,-0.0625,0
42590,-0.25,0.0625,-0.0625,0
42610,-0.4375,0.125,0.125,0
42630,-0.5625,0.1875,-0.0625,0
42650,-0.5625,0.1875,-0.0625,0
42670,-0.75,0.0625,0,0
42690,-0.4375,0,0.25,0
42710,0.1875,0,0.125,0
42730,0.25,0.0625,-0.125,0
42750,-0.5625,0,-0.375,0
42770,-0.9375,0.0625,-0.25,0
42790,-0.75,0.0625,0.0625,0
42810,-0.75,0.25,0.25,0
42830,-0.75,0.1875,0.3125,0
42850,-0.625,0.125,0.375,0
42870,-0.1875,0.125,0,0
42890,-0.0625,0.0625,-0.1875,0
42910,-0.1875,0,-0.0625,0
42930,-0.6875,0.125,0.1875,0
42950,-1.375,0.375,0.1875,0
42970,-0.875,0.125,0.125,0
42990,-0.3125,0.125,0,0
43010,-0.1875,0,0.0625,0
43030,-0.125,0,0.0625,0
43050,0,0.0625,0,0
43070,-0.0625,0.0625,-0.125,0
43090,-0.25,0.0625,-0.25,0
43110,-0.25,0.0625,-0.125,0
43130,-0.4375,0.0625,0,0
43150,-0.3125,0.1875,0.125,0
43170,-0.3125,0.25,0.125,0
43190,-0.5,0.125,0.125,0
43210,-0.25,0.1875,0.1875,0
43230,-0.4375,0.1875,0.0625,0
43250,-0.3125,0.1875,-0.0625,0
43270,-0.25,0.3125,-0.0625,0
43290,-0.125,0.3125,-0.125,0
43310,-0.1875,0.25,-0.0625,0
43330,-0.1875,0.25,-0.125,0
43350,-0.125,0.1875,-0.125,0
43370,-0.0625,0.25,-0.0625,0
43390,-0.1875,0.1875,0,0
43410,-0.1875,0.1875,0,0
43430,-0.375,0.375,0.125,0
43440,-0.4375,0.25,0.3125,0
43460,-0.4375,0.1875,0.375,0
43480,0.3125,0.0625,0.1875,0
43500,0.75,0.0625,-0.1875,0
43520,0.25,0.1875,-0.3125,0
43540,-0.1875,0,-0.1875,0
43560,-0.375,0.1875,-0.0625,0
43580,-0.5625,0.125,0.3125,0
43600,-0.5625,0.25,0.375,0
43620,-0.375,0.25,0.25,0
43640,-0.0625,0.125,0,0
43660,0.125,0.125,-0.1875,0
43680,0,0.25,-0.25,0
43700,-0.5625,0.1875,-0.0625,0
43720,-1.0625,0.375,0.25,0
43740,-0.625,0.1875,0.375,0
43760,0,0.125,0.25,0
43780,-0.125,0.125,0.1875,0
43800,-0.0625,0.125,0.1875,0
43820,0,0.25,0.0625,0
43840,0.0625,0.125,-0.0625,0
43860,-0.1875,0.25,-0.1875,0
43880,-0.25,0.1875,0.0625,0
43900,-0.3125,0.25,0.0625,0
43920,-0.375,0.25,0.1875,0
43940,-0.375,0.4375,0,0
43960,-0.5625,0.0625,0.0625,0
43980,-0.375,0.1875,0.125,0
44000,-0.1875,0.125,0.125,0
44020,-0.0625,0.1875,0.1875,0
44040,-0.1875,0.1875,0.1875,0
44060,-0.1875,0.1875,0.125,0
44080,0,0.0625,0.0625,0
44100,-0.1875,-0.0625,-0.0625,0
44120,-0.125,0.0625,-0.0625,0
44140,-0.1875,0.0625,-0.3125,0
44160,-0.375,0.1875,-0.1875,0
44180,-0.9375,0.125,0,0
44200,-0.6875,-0.0625,0.3125,0
44220,-0.3125,-0.125,0.125,0
44240,0.25,-0.125,-0.25,0
44260,0.125,-0.0625,-0.4375,0
44280,-0.6875,0.0625,-0.5,0
44300,-0.875,-0.0625,-0.0625,0
44320,-0.6875,-0.0625,0.375,0
44340,-0.8125,-0.125,0.3125,0
44360,-0.625,-0.125,0.0625,0
44380,-0.625,-0.0625,-0.25,0
44400,-0.1875,-0.0625,-0.5,0
44420,-0.25,-0.0625,-0.375,0
44440,-0.5,0,0,0
44460,-1.125,0.125,0,0
44480,-0.8125,0.0625,0.125,0
44500,-0.375,-0.0625,-0.0625,0
44520,-0.125,0,-0.25,0
44540,-0.25,-0.0625,-0.125,0
44560,-0.25,0.0625,-0.125,0
44580,-0.375,0,-0.125,0
44600,-0.6875,0,-0.125,0
44620,-0.6875,0.125,-0.0625,0
44640,-0.8125,0.1875,0.0625,0
44660,-0.75,0.125,-0.0625,0
44680,-0.6875,0.125,0.125,0
44700,-0.75,0.125,0.0625,0
44720,-0.8125,0.0625,0.3125,0
44740,-0.6875,0.0625,0.4375,0
44760,-0.5,0.125,0.25,0
44780,-0.375,0.125,0,0
44800,-0.25,-0.0625,-0.125,0
44820,-0.3125,0.125,0.0625,0
44840,-0.4375,0.125,0.1875,0
44860,-0.5625,0.1875,0.25,0
44880,-0.625,0.125,0.1875,0
44900,-0.5625,-0.0625,0.0625,0
44920,-0.3125,0,-0.125,0
44940,-0.25,-0.0625,-0.0625,0
44960,-0.5,0.0625,0.25,0
44980,-0.0625,-0.125,0.1875,0
45000,0.375,-0.25,-0.0625,0
45020,0.125,-0.125,-0.1875,0
45040,-0.5625,0,-0.125,0
45060,-0.5625,0,0.125,0
45080,-0.5,0.0625,0.375,0
45100,-0.5,0.0625,0.375,0
45120,-0.25,0.0625,0.4375,0
45140,-0.1875,0,-0.125,0
45160,-0.125,-0.1875,-0.375,0
45180,0,-0.0625,-0.1875,0
45200,-0.1875,0.0625,-0.125,0
45220,-0.4375,0.375,0.4375,0
45240,-0.875,0.125,0.0625,0
45260,-0.25,0.0625,0,0
45280,0.1875,0,-0.0625,0
45300,0.25,-0.125,-0.0625,0
45320,0.3125,-0.125,-0.125,0
45330,0.0625,0,-0.125,0
45350,-0.125,-0.125,0,0
45370,-0.3125,0,0.125,0
45390,-0.625,0.1875,0.375,0
45410,-1,0.1875,0.4375,0
45430,-0.9375,0.25,0.25,0
45450,-0.75,0.0625,0.125,0
45470,-0.6875,-0.0625,0,0
45490,-0.5,0,0,0
45510,-0.3125,-0.125,0,0
45530,-0.3125,0.0625,-0.0625,0
45550,-0.4375,0.0625,0.0625,0
45570,-0.625,0.1875,0.1875,0
45590,-1.4375,0.25,0.8125,0
45610,-3.3125,0.875,1.75,0
45630,-5.625,1.125,2.875,0
45650,-7,1.1875,4.125,0
45670,-7.8125,0.9375,6.3125,0
45690,-9.75,2.0625,8.8125,0
45710,-10.875,3.1875,8,0
45730,-13.625,2.875,7.5625,0
45750,-11.875,3.4375,6.8125,0
45770,-10.1875,2.8125,3.1875,0
45790,-11.4375,-0.5,1.3125,0
45810,-7.875,-2.5625,-1.4375,0
45830,-5.375,-2,-3.375,0
45850,-2.75,-1.0625,-3.375,0
45870,0,0.125,-4.1875,0
45890,3.375,0.8125,-4.9375,0
45910,4.25,1.625,-4.5,0
45930,2.1875,2.125,-4.25,0
45950,0.4375,1.875,-4.1875,0
45970,0.25,0.8125,-3.875,0
45990,0.625,1.125,-3.375,0
46010,1.5,1,-1.875,0
46030,1.6875,1.0625,-0.9375,0
46050,1.1875,0.8125,0.5,0
46070,0,0.5625,1.375,0
46090,-0.1875,0.25,1.6875,0
46110,0,0.3125,0.9375,0
46130,0.125,0.8125,0.1875,0
46150,-0.125,1.1875,-0.1875,0
46170,-0.875,1.25,0.125,0
46190,-1.5625,1.3125,-0.125,0
46210,-1.75,1.0625,-0.0625,0
46230,-1.6875,0.9375,0.25,0
46250,-1.0625,1.1875,0.125,0
46270,-1.25,1.4375,-0.25,0
46290,-2.5,1.75,-1.0625,0
46310,-1.875,1.875,-1.3125,0
46330,-1.8125,1.9375,-1.125,0
46350,-2.25,2.125,-0.5625,0
46370,-3.625,2.375,0.4375,0
46390,-5.25,2.8125,1,0
46410,-5.5,2.8125,1.75,0
46430,-6.4375,2.875,2.9375,0
46450,-5.375,1.1875,2.875,0
46470,-4.5625,0.6875,2.8125,0
46490,-5.0625,0.6875,1.375,0
46510,-2.8125,0.9375,1.375,0
46530,-2.1875,0.625,0.8125,0
46550,-1.9375,0.375,0.25,0
46570,-2.8125,0.3125,0.5625,0
46590,-4.875,0.5,0.875,0
46610,-4.3125,-0.875,0.125,0
46630,-6,-3.5,0.25,0
46650,-7.0625,-5.0625,-1.375,0
46670,-5.25,-6.25,-3.75,0
46690,-5.6875,-8.125,-6.75,0
46710,-3.125,-11.4375,-10.125,0
46730,-4.0625,-14,-11.75,0
46750,-8.5625,-15.75,-12.1875,0
46770,-16.75,-19.625,-13.9375,0
46790,-18.25,-23.875,-15.1875,0
46810,-16,-28.9375,-18.8125,0
46830,-20.4375,-32.6875,-23.0625,0
46850,-27.25,-39.375,-25.9375,0
46870,-35.25,-46.1875,-30.6875,0
46890,-40.875,-54.375,-46.9375,0
46910,-43.625,-66.0625,-62.5,0
46930,-46.5,-75.625,-70.9375,0
46950,-46.25,-82.25,-83.9375,0
46970,-39.3125,-89.8125,-87.25,0
46990,-35.5,-95.5,-85.875,0
47010,-43.6875,-101.438,-85.4375,0
47030,-38.3125,-104.125,-83.8125,0
47050,-33.75,-101.938,-71.375,0
47070,-34.625,-92.875,-59.125,0
47090,-39.25,-81.1875,-46.875,0
47110,-36.3125,-72.1875,-34.6875,0
47130,-28.5,-59.0625,-26.625,0
47150,-15.8125,-43.4375,-18.875,0
47170,-5.3125,-30.5,-8.375,0
47190,0.125,-22.4375,5.5,0
47210,12.1875,-14.1875,13.75,0
47230,19.75,-9.4375,17.9375,0
47250,16.6875,-6.8125,21.5,0
47270,9.0625,-7.6875,29.375,0
47290,7.75,-8.8125,35.0625,0
47310,5.8125,-5.6875,31,0
47330,0.4375,-2.25,26.3125,0
47350,-4.9375,-1.75,24.625,0
47370,-3.4375,0.6875,18.1875,0
47390,4.5,4.3125,9.9375,0
47410,7.1875,6.75,3.4375,0
47430,4.5,8,0.625,0
47450,2.875,8.3125,1.625,0
47470,3.1875,9.125,5.4375,0
47490,4.5,13,8.3125,0
47510,4.1875,14.0625,8.625,0
47530,0.75,13.6875,9.9375,0
47550,0,13.25,13.3125,0
47570,0.3125,11.375,14.625,0
47580,3.0625,7.3125,12.6875,0
47600,2.75,0.8125,10.9375,0
47620,5.1875,-5.9375,9.375,0
47640,9.4375,-9.8125,4.3125,0
47660,14.125,-14.75,2.875,0
47680,17.4375,-18.25,-1.6875,0
47700,18.9375,-17.6875,-5.625,0
47720,17.25,-20,-5.9375,0
47740,16.0625,-21,-8.1875,0
47760,17.875,-18.0625,-9.375,0
47780,15,-17.625,-7.1875,0
47800,9.75,-17.5,-6.5,0
47820,4,-16.9375,-5.0625,0
47840,2.3125,-16.5625,-4.125,0
47860,4.125,-14.75,-2.4375,0
47880,4.75,-11.5625,-4.125,0
47900,5.625,-8.3125,-6.5625,0
47920,5.625,-6.125,-9.3125,0
47940,5.5625,-4.625,-9.875,0
47960,7.5,-3.75,-7.5,0
47980,9.75,-5.25,-5.375,0
48000,8.375,-5.5625,-5.875,0
48020,3.6875,-5.6875,-4.375,0
48040,0.375,-6.1875,-2.0625,0
48060,-2.5625,-4.75,-0.6875,0
48080,-3.6875,-2.25,1,0
48100,-3.8125,-0.8125,2,0
48120,-2.9375,0.9375,1.1875,0
48140,-2.5625,3.375,1,0
48160,-3.0625,2.0625,1.5625,0
48180,-1.9375,-1.125,2.625,0
48200,-3.375,-3,3.625,0
48220,-4.25,-4.375,4.0625,0
48240,-3.9375,-4.5,5,0
48260,-3.5,-3,5.8125,0
48280,-4.125,-0.375,5.8125,0
48300,-4.0625,3.9375,4.875,0
48320,-4.1875,7.0625,3.25,0
48340,-2.3125,9.125,2.4375,0
48360,2.875,9.4375,1.1875,0
48380,5.8125,8.4375,1.25,0
48400,4.5,6.0625,1.9375,0
48420,2,3.9375,1.25,0
48440,0.1875,1.5,2.125,0
48460,-0.4375,-0.75,2.4375,0
48480,-3,-2.3125,0.875,0
48500,-4.0625,-2.4375,-0.625,0
48520,-3.6875,-2.25,-1.4375,0
48540,-2.8125,-1.0625,-2.25,0
48560,-1.8125,0,-2.625,0
48580,-1.9375,-0.1875,-2.625,0
48600,-0.6875,-0.6875,-1.5,0
48610,-1.625,-1,-1,0
48630,-0.4375,-0.75,0.3125,0
48650,0.625,-1.0625,1.1875,0
48670,0.5,-0.6875,0.5625,0
48690,1,-1,0.875,0
48710,1.3125,-1.375,0.3125,0
48730,1.375,-0.6875,-0.375,0
48750,0,-0.5625,-0.8125,0
48770,0.625,-0.5625,-0.5,0
48790,-0.1875,-0.8125,-0.4375,0
48810,-0.1875,-1.1875,-0.8125,0
48830,0.75,-1.875,-0.625,0
48850,-1.0625,-1.6875,-0.4375,0
48870,-1.875,-1.75,0.375,0
48890,-1.3125,-1.75,-0.5625,0
48910,-1.4375,-1.625,-1.0625,0
48930,-0.6875,-0.375,-1.5,0
48950,0.625,2.4375,-3.625,0
48970,5.75,6.1875,-3.5,0
48990,7.375,11.25,-3,0
49010,10.5625,16.6875,-4.5,0
49030,16.1875,25.0625,-4.4375,0
49050,24,35.3125,-2.5,0
49070,30.875,45.5,4.3125,0
49090,35.8125,56.4375,11.0625,0
49110,36.5625,67.0625,17.25,0
49130,33.125,85.6875,20.875,0
49150,34.9375,94.5,26.75,0
49170,44.3125,101.188,40.625,0
49190,47.5625,103.812,47.3125,0
49210,58.6875,109.625,50,0
49230,53.875,117.625,48.6875,0
49250,54.5625,130.375,64.75,0
49270,58.4375,135,59.9375,0
49290,81.0625,129.5,42.375,0
49310,121.812,114,7.9375,0
49330,174.875,107.75,-0.875,0
49350,190.562,99.4375,-12.1875,0
49370,150.562,85.9375,1.75,0
49390,74.3125,47.9375,-13.3125,0
49410,-39.375,1.375,-14.6875,0
49430,-75.25,-4.8125,21.0625,0
49450,-98.3125,-12.125,12.875,0
49470,-85.8125,-15,21.75,0
49490,-49.75,-7.0625,39,0
49510,-26.75,2.25,38,0
49530,-1.875,2.9375,33.5625,0
49550,27.75,0.5,24.4375,0
49570,40,-4.6875,13.5,0
49590,36.625,-10.5625,6,0
49610,27.5625,-15,0.875,0
49630,15.0625,-17.3125,-8.1875,0
49650,14.125,-13.625,-11.375,0
49670,21.6875,-7.4375,-8,0
49690,31.75,-3.875,-8.375,0
49710,37.5625,-4.0625,-8.3125,0
49730,36.25,-6.3125,-6.5,0
49750,29.1875,-9.0625,-2.9375,0
49770,19.625,-11.25,-2.3125,0
49790,8.9375,-11.8125,-2.625,0
49810,1.875,-10.0625,-1.875,0
49830,-2.3125,-5.75,-0.5,0
49850,-3.25,-1.75,1.25,0
49870,-5.25,0.125,2.3125,0
49890,-5.0625,0.8125,2.3125,0
49910,-2.75,0.1875,1.0625,0
49930,-1.625,-0.625,-0.4375,0
49950,-2.75,-0.75,-0.5,0
49970,-4.0625,0.375,-0.6875,0
49990,-4.0625,0.875,-0.5625,0
50010,-3.5,1.75,0.0625,0
50030,-3.0625,2.0625,0.375,0
50050,-2.8125,1.6875,0.1875,0
50070,-3.0625,0.8125,-0.6875,0
50090,-3.9375,0.1875,-1.1875,0
50110,-4.5625,0.5625,-1.1875,0
50130,-3.625,0.5625,-0.8125,0
50150,-2.5,0.8125,-0.8125,0
50170,-1.5625,0.75,-0.5,0
50190,-1.4375,0.9375,0.5625,0
50210,-1.9375,1,0.9375,0
50230,-2.8125,0.75,0.625,0
50250,-4.3125,0.4375,-0.125,0
50270,-7.6875,1.3125,0.0625,0
50290,-17.9375,2.5625,2.375,0
50310,-19.9375,0.3125,-6,0
50330,-15.25,-5.125,-22.9375,0
50350,-17.5,-13.3125,-36.0625,0
50370,-19,-19.75,-54.6875,0
50390,-26.5,-28.75,-80.125,0
50410,-32,-40.625,-86.125,0
50430,-29.5625,-58.125,-72.5625,0
50450,2.25,-89.75,-76.4375,0
50470,11.4375,-119.625,-120.312,0
50490,2.6875,-137.312,-134.062,0
50500,-16.1875,-158.75,-131.188,0
50520,-23.125,-175.312,-135.625,0
50550,-19.4375,-197,-133,0
50580,-39.0625,-218.688,-121.375,0
50600,-37.875,-227.438,-109.062,0
50630,-24.375,-233.375,-83.3125,0
50670,4.8125,-182.812,-16.875,0
50690,9.1875,-165.625,-3.875,0
50710,15,-151.75,3.375,0
50730,16.5625,-138.375,6.0625,0
50750,14,-121.562,2.3125,0
50770,15,-110.375,2.875,0
50790,22.6875,-103.312,6.5625,0
50810,18.75,-88.9375,6.375,0
50830,10.8125,-69.5625,-1.0625,0
50850,6.1875,-58.5,-4.375,0
50870,5.75,-51.375,-1.9375,0
50890,3.625,-12.1875,-1.125,0
50910,3.5625,-7.3125,0.3125,0
50930,5.4375,-4.8125,1.0625,0
50940,4.375,-5.25,-0.6875,0
50960,5,-8.4375,-5,0
50990,4,2.5,-15.3125,0
51010,9.625,5.625,-8.375,0
51030,16.5625,2.1875,1.5,0
51050,19.125,-4.0625,9.125,0
51070,18.8125,-8.8125,10.5,0
51090,8.0625,7.25,3.375,0
51110,1.875,4.4375,-1.5,0
51130,7.3125,-2.625,-8.0625,0
51160,1.1875,-0.625,-1.5625,0
51200,-1.375,-0.5625,0.75,0
51210,-3,0.3125,3,0
51230,-4.625,-0.5625,4.375,0
51250,-5,-0.125,3.375,0
51260,-4.4375,0.5625,1.25,0
51280,-5.25,0.25,0.75,0
51290,-9.375,-6.75,-6.6875,0
51310,-11,-2.75,-6.375,0
51330,-12.5,0.6875,-4.375,0
51350,-10.25,0,-3.375,0
51380,-7.4375,-1.4375,-2.0625,0
51400,-7.625,3.3125,8.1875,0
51420,-9.5,1.3125,7.6875,0
51440,-10.75,-0.3125,5.1875,0
51460,-10.3125,0,2.5,0
51510,-12,-2.5625,-3.625,0
51530,-14.25,-1.125,-5.875,0
51550,-16.3125,-1.0625,-9.625,0
51570,-13.6875,-0.1875,-6.875,0
51590,-11.125,4.125,-1.1875,0
51600,-11.9375,6.8125,-1.5625,0
51620,-13.3125,7.8125,-2.5625,0
51640,-9.5,6.5,-0.5,0
51660,-4.5,2.4375,1.0625,0
51680,-6.6875,-1.375,-1.5625,0
51700,-12.5625,-1.0625,-7.25,0
51720,-15.3125,-1.1875,-10,0
51740,-11.6875,-3.375,-6.875,0
51760,-9.5625,-3.25,-3.5625,0
51780,-10.5625,-3.875,-1.375,0
51800,-10.625,-2.6875,2.8125,0
51820,-3.8125,2.5625,10.5,0
51840,-2.5,3.0625,9.625,0
51860,-11.9375,6.75,12.375,0
51880,-18.8125,9.0625,10.625,0
51900,-18.3125,1.25,6.625,0
51920,-15.9375,-5.375,2.1875,0
51940,-13.375,-7.4375,-2.125,0
51960,-12.625,-6.5,-3.9375,0
51980,-11.25,-3.3125,-4.3125,0
52000,-10.125,0.0625,-5.375,0
52020,-9.1875,1,-5.5,0
52040,-9.1875,0.8125,-3,0
52060,-8.125,0.6875,-1.1875,0
52080,-6,1.1875,-0.25,0
52100,-7.125,3.6875,1.1875,0
52120,-9.375,6.375,2.875,0
52140,-10.875,8.5,3,0
52160,-10,8,2,0
52180,-7.3125,6.375,1.25,0
52200,-6.5625,5.8125,1,0
52220,-6.8125,7.1875,2.375,0
52240,-4.375,7.1875,2.1875,0
52260,-0.8125,4.1875,2.625,0
52280,-2.3125,5.125,2.375,0
52300,-3.9375,3.8125,0.1875,0
52320,-4.4375,2.1875,0,0
52340,-4.5,2.3125,0.5625,0
52360,-7.375,2.75,0.4375,0
52380,-8.125,3.8125,0.6875,0
52400,-10.25,6.4375,-1.125,0
52420,-8.25,4.875,-2.0625,0
52440,-10.125,5.0625,-0.75,0
52460,-12.3125,3.75,1.4375,0
52480,-10.5625,2.4375,1.4375,0
52500,-7.4375,-3.0625,-0.5,0
52520,-6.375,-8.3125,-2.125,0
52540,-3.9375,-8.125,-2.6875,0
52560,-1.9375,-5.0625,-2.125,0
52580,-1.875,-3.75,-0.5625,0
52600,-0.0625,-2.5625,-0.25,0
52620,0,-3.625,-0.625,0
52640,-0.25,-5.25,-2.375,0
52660,-0.375,-5,-4.0625,0
52680,-1.3125,-5,-4.3125,0
52700,-1.5625,-4.625,-2.625,0
52720,-2.75,-1.8125,-1.9375,0
52740,-2,0.125,-1.75,0
52760,-2.5,-0.5625,-2.125,0
52780,-2.3125,-2.5625,-3.125,0
52800,-4.25,-4.125,-2.6875,0
52820,-3.0625,-2.875,-1.5,0
52840,-0.8125,-2.1875,-0.875,0
52860,1.3125,-1.3125,0.1875,0
52880,0.375,-1.875,1.3125,0
52900,1.1875,-3.0625,2.6875,0
52920,3,-4.125,1.25,0
52940,3.375,-4.3125,1.5625,0
52960,2.0625,-2.625,2.375,0
52980,0.6875,-0.75,1.125,0
53000,0.625,-1.25,0.375,0
53020,-0.25,-1.625,-0.0625,0
53040,-3.625,-1.4375,0.9375,0
53060,-5.5,2.0625,1.1875,0
53080,-5.375,5.3125,1.1875,0
53100,-5.875,7.125,0.3125,0
53120,-7.1875,4.8125,-2.875,0
53140,-7,3.125,-4.9375,0
53160,-6.6875,3.6875,-5.0625,0
53180,-5.375,5.75,-3.5,0
53200,-4.1875,8.125,-0.25,0
53220,-4,9.9375,0.3125,0
53240,-3,8.25,-0.1875,0
53260,0.5625,5.625,0.4375,0
53280,3.8125,6.6875,1.8125,0
53300,4,11.75,2.375,0
53320,2.4375,15.4375,2.75,0
53340,4.8125,17.5,4.625,0
53360,6.8125,18.4375,6.25,0
53380,6.0625,17.875,5.5,0
53400,2.625,15.125,3,0
53410,-0.75,11.4375,1.8125,0
53430,-0.125,10.6875,2.875,0
53450,0.9375,12.375,4.75,0
53470,2.125,13.9375,7.0625,0
53490,2.75,16.0625,10.0625,0
53510,1.75,19.125,13.875,0
53520,4.375,25.875,17.125,0
53540,7.0625,28.6875,18.5625,0
53560,8.625,31,17.3125,0
53570,9.25,31.8125,15,0
53590,8.5,31.8125,13.875,0
53620,11,42,14.5,0
53640,10.75,47.625,11.25,0
53660,8.0625,55,12.125,0
53680,10.5625,66.1875,20.5,0
53700,17.9375,81.3125,33.0625,0
53720,26.25,96.0625,42.5625,0
53740,33.375,113.938,52.6875,0
53760,40.5,136.438,66.5,0
53780,45.0625,165.188,80.0625,0
53800,49.9375,189.625,92.3125,0
53820,49.5625,214.812,104,0
53840,44.4375,240.312,122.938,0
53860,39.875,274,143.062,0
53880,46.5625,282.562,139.188,0
53900,44,270.062,123.688,0
53920,38.0625,261.875,120.062,0
53940,21.4375,254.062,118.688,0
53950,7.5625,221.75,88.5625,0
53970,0.375,195.625,83.125,0
53990,-3.25,178.688,89.3125,0
54010,-11,158,80.875,0
54030,-11.625,132.562,72.5625,0
54050,11.75,94.5625,59,0
54070,34.8125,68.9375,74.8125,0
54090,37.6875,66.625,75.875,0
54110,17.9375,77.6875,67.375,0
54130,-7.3125,76.3125,64.6875,0
54150,-34.1875,49.5,55.5625,0
54170,-46.0625,-1.375,25.3125,0
54190,-34.8125,-38.375,3.8125,0
54210,-57.8125,-32.125,-8.75,0
54230,-28.0625,-26.875,-0.3125,0
54250,6.1875,-16.75,4.875,0
54270,17.5625,1.0625,8.75,0
54290,23.125,9.3125,6.125,0
54310,17.75,8.375,2.9375,0
54330,17.375,2.625,-0.0625,0
54350,13.9375,-5.875,-5.25,0
54370,-0.9375,-6.125,-7.625,0
54390,-10,-3.0625,-4.125,0
54410,-0.5625,0.0625,0,0
54430,7.375,5.375,0.875,0
54450,12,8.5625,0.3125,0
54470,9.8125,6.625,-0.875,0
54490,6.875,2.6875,-1.25,0
54510,3.875,-0.9375,-1.25,0
54530,1.1875,-2.5625,-2.125,0
54550,-0.125,-0.8125,-2.25,0
54570,0.5,2.0625,-1.4375,0
54590,2.4375,2.0625,-2,0
54610,4.5625,-0.125,-3.3125,0
54630,5,-3.125,-4.375,0
54650,3.875,-4.375,-4.5,0
54670,1.6875,-3.625,-3.5,0
54690,-0.4375,-0.9375,-0.6875,0
54710,-1.4375,1.625,2.25,0
54730,-1,2.8125,2.8125,0
54750,-1,2.875,1.9375,0
54770,-2.0625,2.75,1.3125,0
54790,-3.1875,3.125,0.875,0
54810,-5.6875,4.8125,2.0625,0
54830,-5.1875,6.4375,4.0625,0
54850,-2.4375,3.5625,4.25,0
54870,4.5625,-0.625,-1.125,0
54890,4.5625,-2.375,-5,0
54910,-1.3125,0.125,-4.125,0
54930,0.1875,4.1875,-2.125,0
54950,5.8125,4.3125,-1.375,0
54970,5.5,0.125,-4.3125,0
54990,0.9375,-2.3125,-4.8125,0
55010,-2.75,-0.375,-1,0
55030,-1.5,1.1875,2.5,0
55050,0.1875,0.5625,3.6875,0
55070,-0.1875,-0.9375,2.5625,0
55090,-1.125,-1.375,1.3125,0
55110,-0.875,-0.75,0.25,0
55130,1.25,-0.1875,-0.5625,0
55150,3.1875,0.5625,-1.0625,0
55170,3.4375,0.8125,-1.625,0
55190,1.625,0.5,-1.625,0
55210,0.1875,0.25,-0.9375,0
55230,-0.1875,0.125,-0.1875,0
55250,0.1875,0.5625,0.125,0
55260,0.125,0.5,-0.1875,0
55280,0,0.4375,-0.5,0
55300,-0.375,0.375,-0.3125,0
55320,-0.1875,0.5,-0.1875,0
55340,0.1875,0.5,-0.3125,0
55360,0.1875,0.3125,-0.5625,0
55380,0.25,0.4375,-0.6875,0
55400,-0.8125,0.875,-0.5625,0
55420,-1.875,1.1875,0.5,0
55440,-3.375,0.625,2.25,0
55450,-6.0625,-0.1875,4.8125,0
55470,-9.6875,0.4375,7,0
55490,-11.5625,1.9375,8.6875,0
55510,-15.0625,0.8125,5.75,0
55530,-14.625,-1.375,5.8125,0
55550,-14.8125,-2.625,3.9375,0
55570,-10.4375,-2.25,2.75,0
55590,-6.625,-1.6875,1.8125,0
55610,-3.5625,-0.5,-0.0625,0
55630,-1.125,-0.125,-2.625,0
55650,0.5625,-0.3125,-4.4375,0
55670,2.6875,-0.75,-4.375,0
55690,4.5625,-0.8125,-3.875,0
55710,4.3125,0,-2.8125,0
55730,2.625,0.75,-1.1875,0
55750,1.5625,0.875,-0.3125,0
55770,1.4375,0.625,-0.0625,0
55790,1.8125,0.25,-0.1875,0
55810,2.0625,0.4375,-0.25,0
55830,2.6875,0.8125,-0.25,0
55850,2.8125,0.875,-0.4375,0
55870,3.5625,0.5625,-0.8125,0
55890,3.5625,0.0625,-1.125,0
55910,2.9375,-0.0625,-1.3125,0
55930,2.0625,0.0625,-1.0625,0
55950,1.25,0.375,-0.625,0
55970,0.5625,0.75,-0.125,0
55990,-0.5,0.875,0.125,0
56010,-1,0.5,0.125,0
56030,-0.4375,0.25,0.0625,0
56050,0,0.25,-0.375,0
56070,0.5,0.125,-0.6875,0
56090,0.9375,0.125,-0.4375,0
56110,0.6875,-0.0625,-0.4375,0
56130,0.625,0,-0.3125,0
56150,0.625,0,0.0625,0
56170,-0.5625,0.3125,0.4375,0
56190,-1.0625,0.625,0.8125,0
56210,-1.1875,0.6875,0.875,0
56230,-0.9375,0.4375,0.6875,0
56250,-0.8125,0.3125,0.6875,0
56270,0.6875,0,0.3125,0
56290,2.125,-0.1875,-0.5,0
56310,2.3125,0,-0.9375,0
56330,1.5,0.125,-0.875,0
56350,1,0.125,-0.3125,0
56370,1.125,-0.3125,-0.1875,0
56390,1.3125,-0.375,0.25,0
56410,0.9375,-0.25,0.5,0
56430,0.8125,-0.0625,0.6875,0
56450,0.375,-0.125,0.625,0
56470,-0.0625,-0.1875,0.3125,0
56490,-0.1875,-0.125,0.1875,0
56510,-0.6875,0.125,0.25,0
56530,-0.5,0.125,0.125,0
56550,-0.5,0.1875,-0.0625,0
56570,-0.75,0.125,-0.5,0
56590,-0.75,0.125,-0.875,0
56610,-0.75,0.3125,-1.0625,0
56630,-0.6875,0.3125,-1.0625,0
56650,-0.8125,0.0625,-0.8125,0
56670,-0.6875,-0.125,-0.625,0
56690,-0.1875,-0.25,-0.5,0
56710,0.125,-0.125,-0.4375,0
56730,-0.1875,-0.125,-0.1875,0
56750,-0.4375,0.0625,0.0625,0
56770,-0.5625,0.0625,0.1875,0
56790,-0.75,0.1875,0.0625,0
56810,-0.625,0.1875,0,0
56830,-0.4375,0.1875,-0.0625,0
56850,-0.1875,0.0625,0,0
56870,0,-0.125,-0.25,0
56890,0.6875,-0.3125,-0.5625,0
56910,1.5625,-0.625,-0.6875,0
56930,3.5625,-1.3125,-0.9375,0
56950,6.25,-2.375,-1.3125,0
56970,8.6875,-3.4375,-2,0
56990,10.9375,-4.125,-2.1875,0
57010,12.5,-4.9375,-2.625,0
57030,12.0625,-5.9375,-1.8125,0
57050,10.0625,-5.875,0.0625,0
57070,6.5625,-3.4375,-0.3125,0
57090,-0.75,-2.25,0.125,0
57110,-7.0625,-1.5,0.875,0
57130,-10.125,-0.5625,-2.3125,0
57150,-28.375,-0.1875,-7.6875,0
57170,-44.625,-7.5,-6.5625,0
57190,-49.5625,-17.8125,-4.4375,0
57210,-46,-32.9375,-12.125,0
57230,-30,-56.4375,-25.125,0
57250,-10.875,-83.125,-32.75,0
57270,-6.75,-105,-43.0625,0
57290,-15.0625,-126.688,-54.25,0
57310,-16.75,-147.688,-70.125,0
57330,-14.8125,-156.438,-66.75,0
57350,-8.9375,-155.438,-65.375,0
57370,-16.75,-145,-84.125,0
57390,-26.5625,-127.625,-78.75,0
57410,-41.3125,-107.688,-56.25,0
57430,-43.375,-88.125,-41.1875,0
57450,-33.5625,-74.4375,-37.5625,0
57470,-27.6875,-66.75,-35.125,0
57490,-26.625,-58.375,-22.75,0
57510,-25.25,-50,-13.4375,0
57530,-21.5,-41.4375,-10.5,0
57550,-16.8125,-38.8125,-4.6875,0
57570,-17.375,-36.875,1.3125,0
57590,-17.375,-33.8125,2.8125,0
57610,-17.25,-32.1875,1.5625,0
57630,-15.25,-30.375,1.9375,0
57650,-15.125,-28.75,3.625,0
57670,-12.125,-24.6875,5.5,0
57690,-8.375,-21.3125,3.6875,0
57710,-7.75,-16.5625,1.125,0
57730,-12,-12,5.5,0
57750,-10.625,-7.375,11.5,0
57770,-5.875,-3.5,15.625,0
57790,-1.875,-1.125,13.625,0
57810,-2.0625,1,13.8125,0
57830,-4.9375,3.25,15,0
57850,-8.5625,3.4375,15,0
57870,-8.75,2.4375,12.8125,0
57890,-5.4375,-0.0625,10.9375,0
57910,-6.6875,0.875,9.625,0
57930,-7.3125,3.875,10.3125,0
57950,-6.25,7,10.6875,0
57970,-2.4375,10.6875,10.8125,0
57990,-3.9375,14.0625,9.3125,0
58010,-2.9375,16,9.3125,0
58030,-4.625,17.1875,8.5625,0
58050,-5.25,17.1875,10.375,0
58070,-5.125,15.3125,12.4375,0
58090,-3.375,13.9375,12,0
58110,-4.875,12,9.75,0
58130,-7.1875,9.4375,7.9375,0
58150,-6.375,5.375,6.0625,0
58170,-2.5,6.5,3.9375,0
58190,-3.75,9.75,3.25,0
58210,-7.875,11.125,4.1875,0
58230,-4.875,12.3125,1.5,0
58250,2.375,8.6875,-0.5,0
58270,3.5625,2.3125,-0.375,0
58290,-1.8125,-2.75,1.9375,0
58310,-2.8125,-7.5,3.25,0
58330,0.5,-9.25,4.625,0
58350,-1,-6.8125,5.25,0
58370,-2,-4.75,5.5625,0
58390,-0.625,-3,3.75,0
58410,2.4375,-2.125,1.25,0
58430,2.8125,-3.8125,-0.75,0
58450,5.125,-3.625,-3.625,0
58470,3.0625,-3.4375,-6.75,0
58490,5,-5.8125,-8.8125,0
58510,6.1875,-8.5,-11.1875,0
58530,6.5625,-13.25,-8.875,0
58550,7.125,-14.8125,-7.9375,0
58560,7.6875,-12.0625,-8.25,0
58580,5.6875,-8,-6.375,0
58600,-1.625,-4.8125,-2.8125,0
58620,-3.375,-3.25,-1.625,0
58640,0.125,-2.0625,-1.5,0
58660,-1.125,-1.25,-1.625,0
58680,-0.375,-1.875,-1.375,0
58700,-0.0625,-3.3125,0.4375,0
58720,-1.5,-3.625,0.6875,0
58740,-0.25,-3.0625,1,0
58760,-0.1875,-1.75,2,0
58780,-2.3125,-0.1875,1.4375,0
58800,-4.125,1.3125,1.1875,0
58820,-3,3.1875,3.4375,0
58840,-3.125,5.375,3.875,0
58860,-3.125,6,2.375,0
58880,-0.1875,5.625,3.5,0
58900,0.1875,3.9375,4.375,0
58920,0.125,2.8125,3.875,0
58940,0.5,1.25,3.6875,0
58960,1.5,0.4375,3,0
58980,0.4375,-0.125,2.5,0
59000,-2.8125,0.4375,1.5625,0
59020,-2.0625,1,1.3125,0
59040,-1.875,0,1.1875,0
59060,-3.0625,-1.75,0.625,0
59080,-1.375,-1.6875,0.1875,0
59100,-0.5,-1.8125,-0.25,0
59120,-0.25,-2.6875,0.1875,0
59140,-1.25,-3.3125,1,0
59160,-1.4375,-2.5625,1.1875,0
59180,-1,-1.125,1.4375,0
59200,-1.4375,0.1875,2.125,0
59220,-1.5625,0.6875,2.1875,0
59240,-1.875,1.3125,1.125,0
59260,-1.5,2.875,-0.125,0
59280,1.25,3,0.4375,0
59300,-1.5625,1.5,1.4375,0
59320,-2.625,0.6875,0.75,0
59340,0.25,0.5625,1.125,0
59360,-1.3125,1.25,1.1875,0
59380,-1.5,1.625,1.0625,0
59400,-1.4375,0.625,1.3125,1000
59420,-1,0.5,1.125,0
59440,-0.25,0.75,0.875,0
59460,-1.9375,0.875,-1.6875,0
59480,-0.125,-0.0625,-0.5,0
59500,-0.0625,-0.8125,-0.9375,0
59520,-0.1875,-1.8125,-0.625,0
59540,-0.125,-3.125,-0.1875,0
59560,1.125,-4.375,-1.1875,0
59580,1.0625,-6.875,-0.375,0
59600,1.125,-8.5,-0.1875,0
59620,1.6875,-8.6875,-0.5625,0
59640,2,-9,-1.375,0
59660,2.625,-11,-2.75,0
59680,4.625,-13,-3.4375,0
59700,7.0625,-13.9375,-3.25,0
59720,8.5,-14.6875,-4.5625,0
59740,11,-15.75,-6.75,0
59760,11.125,-17.6875,-8,0
59780,8.875,-19.75,-6.3125,0
59800,7.875,-17.8125,-4.4375,0
59820,9.5625,-15.25,-4.5,0
59840,9.9375,-13.0625,-4.1875,0
59870,5.5625,-10.6875,-0.1875,0
59890,8.75,-10.25,-1.125,0
59910,9.375,-10.0625,-5.6875,0
59930,8.75,-12.8125,-5.9375,0
59950,7.4375,-15.9375,-3.8125,0
59970,8.5,-18.4375,-5.0625,0
59990,8.75,-18.5,-10.5,0
60010,8.3125,-19.125,-12.3125,0
60030,6.875,-20.25,-10.5625,0
60050,6.625,-20,-9.25,0
60070,5.875,-18.625,-10.3125,0
60090,7.125,-16.125,-12.125,0
60110,5.75,-12.4375,-11.5625,0
60130,6,-9.6875,-8.8125,0
60150,4.9375,-8.875,-10.125,0
60170,6.625,-5.5625,-16.0625,0
60190,6.4375,-5.1875,-16.3125,0
60210,4.5,-8.25,-10.375,0
60230,2.375,-7.9375,-6.6875,0
60250,5.625,-8,-7.4375,0
60270,5.625,-8.375,-8.6875,0
60290,3.25,-5.4375,-5,0
60310,0.9375,-3.6875,-3.625,0
60330,2.625,-2.9375,-4.125,0
60340,1.1875,-2.5,-3.5,0
60370,3.3125,-3.8125,-5.875,0
60390,4.1875,-6.1875,-4.9375,0
60410,4.3125,-7.8125,-5.75,0
60420,4.625,-8.375,-7.4375,0
60440,5.8125,-11.25,-10.875,0
60460,6.5625,-13.75,-12,0
60480,7.1875,-16.1875,-14.5625,0
60500,7.375,-16.125,-15.125,0
60520,5.1875,-17.0625,-15.0625,0
60540,5.75,-17.25,-15.875,0
60560,4.4375,-16.5,-16.5625,0
60580,3.6875,-14.75,-16.5,0
60600,1.875,-14.875,-16.0625,0
60620,-2.8125,-15.4375,-19.3125,0
60640,-1.625,-16.375,-22.25,0
60660,-2.8125,-13.875,-22.5,0
60680,-1.3125,-14.0625,-22.625,0
60680,-1,-12.0625,-27.6875,0
60700,-2.5,-10.125,-30.8125,0
60720,-4.375,-10.4375,-29.6875,0
60740,-5.1875,-10.1875,-31.3125,0
60760,-5.25,-9.5625,-32.625,0
60780,-6.75,-8.9375,-33.5,0
60800,-8.625,-7.875,-32.875,0
60820,-10.4375,-6.875,-33.1875,0
60840,-11.125,-5.6875,-33.1875,0
60860,-12.25,-3.8125,-34.375,0
60880,-13.4375,-1.5625,-34.625,0
60910,-13.4375,2,-35.4375,0
60930,-12.6875,5.1875,-35.875,0
60950,-13.9375,9.5,-37.3125,0
60970,-15.625,13.3125,-36,0
60990,-14.875,14.3125,-35.3125,0
61000,-14.875,14,-34.75,0
61020,-13.1875,14.5625,-33.1875,0
61030,-14.0625,16.75,-30.125,0
61050,-15.5625,18.5625,-29.25,0
61070,-16.4375,19.0625,-28.5,0
61100,-14.3125,22.375,-23.875,0
61150,-10.5625,24.5,-24.0625,0
61180,-11.5625,26.9375,-22.0625,0
61210,-9,26.9375,-21.8125,0
61240,-8.8125,24.375,-23.3125,0
61270,-12.5,28.8125,-22.9375,0
61290,-12.9375,30.75,-23.1875,0
61310,-12.9375,30.6875,-22.5,0
61330,-14.5,30.6875,-20,0
61350,-15.1875,31.625,-16.4375,0
61370,-17.3125,33.75,-18.4375,0
61390,-15.4375,32.1875,-18.8125,0
61410,-16.125,30.3125,-16.5625,0
61430,-18,29.0625,-13.1875,0
61450,-20.5,29.9375,-13.8125,0
61470,-19.75,32.625,-12.25,0
61490,-19.5,36.625,-13.5,0
61510,-15.6875,34.9375,-15.375,0
61530,-15.3125,30.1875,-14.375,0
61550,-16.125,28.1875,-12,0
61570,-19.1875,37.125,-3,0
61590,-17.1875,38.3125,0.8125,0
61610,-8.6875,32.9375,-5.625,0
61630,-4.5,27,-5.5625,0
61650,-8.0625,27.5625,-1.5,0
61670,-8.25,29.4375,5,0
61690,-8.8125,27.0625,7,0
61710,-5.25,26.3125,9.0625,0
61740,-2.875,18.5,18.9375,0
61770,4.5,15.9375,24.625,0
61790,6.125,15.9375,26.4375,0
61800,4.1875,7,29.5625,0
61840,5,0.875,33.5,0
61860,1.25,0.875,33.5625,0
61880,1.5,1.5,32.5,0
61900,6.625,-0.4375,30.6875,0
61920,7.375,-3.1875,31.625,0
61940,2.6875,-2.3125,30.875,0
61960,-0.25,-2.1875,29.375,0
61980,4.625,-2.5,30.125,0
62000,12,-3.5,29.125,0
62020,13.375,-2.3125,26.1875,0
62040,7.625,0.125,25,0
62060,4.1875,1.9375,24.25,0
62080,3,2.375,27.3125,0
62100,7.875,5.875,25.6875,0
62120,7.625,7,26.3125,0
62140,6.1875,7.375,26,0
62160,1.5,5.3125,28.3125,0
62180,-0.5625,3.3125,28,0
62200,0.75,2.75,28.375,0
62220,0.5,1.9375,29.8125,0
62240,-1.3125,-1.3125,27.6875,0
62260,-0.375,-4.1875,25.9375,0
62280,3.0625,-5.0625,25.125,0
62300,1.9375,-3.0625,23.0625,0
62320,-2.875,-5.5,22.625,0
62340,0.0625,-6.1875,22.0625,0
62360,2.0625,-6.0625,22.625,0
62380,-1.8125,-3.75,21.1875,0
62400,-4.3125,-3.0625,20.3125,0
62420,-1.6875,-2.125,19.625,0
62440,2.4375,0.125,19.75,0
62460,-0.5,2.0625,17.5,0
62480,-1.4375,2.4375,18.75,0
62500,-3.5,0,20.0625,0
62520,-5.0625,-0.4375,18.6875,0
62540,-2.5,-0.8125,18.1875,0
62560,-0.8125,-3.3125,17.75,0
62580,-2.6875,-6.6875,17.3125,0
62600,-5.5625,-8.25,16.125,0
62620,-4,-8.375,16.8125,0
62640,-1.25,-7.25,17.75,0
62660,-2.25,-5.5,18.0625,0
62680,-3.125,-3.3125,16.6875,0
62700,-1.0625,-2.875,17.3125,0
62720,-0.125,-6,17.9375,0
62740,-2.125,-7.75,18.0625,0
62760,-6.6875,-9.6875,15.4375,0
62780,-6.875,-9.9375,15.1875,0
62800,-3.1875,-10.0625,15.6875,0
62820,-2.8125,-11.6875,13.1875,0
62840,-6.6875,-11.1875,12.375,0
62860,-7.625,-10,13.25,0
62880,-6.75,-10.5,13.3125,0
62900,-4.25,-10,12.5,0
62920,-4.375,-9.5625,11.875,0
62940,-5.4375,-8.625,11.125,0
62960,-4.75,-10.5,10.5625,0
62980,-1.875,-13.9375,11.875,0
63000,-2.8125,-16.5625,11.5,0
63020,-6.6875,-19.25,11.5,0
63040,-12.0625,-22.375,13.3125,0
63060,-12.6875,-25.75,15.375,0
63080,-13.75,-28.8125,15.9375,0
63100,-15.875,-29.75,14.6875,0
63120,-17.875,-31.9375,14.625,0
63140,-11.9375,-33.125,13.1875,0
63160,-7.4375,-35.4375,11,0
63180,-6.625,-37.875,8.375,0
63200,-8.875,-39.6875,5.8125,0
63220,-6.875,-41.5625,5.5,0
63240,-1.625,-42.3125,4.8125,0
63260,-2.0625,-45.0625,4.5,0
63280,-5.875,-45.8125,1.4375,0
63300,-3.125,-46.0625,0.125,0
63310,1.875,-47.8125,0.25,0
63330,0.8125,-47.5625,0.0625,0
63350,-0.875,-45.1875,-3.875,0
63370,3.5625,-43.4375,-7.875,0
63390,12.8125,-38.4375,-10.25,0
63410,13.9375,-40.5625,-11.9375,0
63430,8.875,-40.5,-15.4375,0
63450,7.4375,-41.6875,-12.3125,0
63470,5.6875,-38.5,-11.6875,0
63490,2.75,-35.6875,-10.75,0
63510,0.1875,-35.625,-7.75,0
63530,3.625,-33.8125,-8.3125,0
63550,6.6875,-31,-9.3125,0
63570,2.0625,-27.375,-11.9375,0
63590,2.4375,-27.5,-15.0625,0
63610,8,-29.3125,-15.9375,0
63630,8.25,-30.0625,-16.75,0
63650,8.25,-31.375,-19.8125,0
63670,5.25,-31.3125,-21.25,0
63690,4.3125,-31.5625,-19.3125,0
63710,9.9375,-32.75,-16.8125,0
63730,8.875,-31.9375,-17.75,0
63750,7.375,-27.3125,-22.125,0
63770,2.9375,-23.6875,-22.3125,0
63790,1.375,-21.75,-25.5625,0
63810,7.125,-24.25,-28.0625,0
63830,10.3125,-22.4375,-32.5,0
63850,6.0625,-19.875,-40.0625,0
63870,1.3125,-21.4375,-40.1875,0
63890,1.75,-22.5625,-37.3125,0
63910,-1.1875,-23.125,-40.1875,0
63930,-1.6875,-23.5,-41.8125,0
63950,-6.6875,-21.25,-37.125,0
63970,-10.625,-16.8125,-36.75,0
63990,-11.125,-13.3125,-40.375,0
64010,-12.6875,-11.0625,-41.125,0
64030,-15.8125,-5.1875,-41.5625,0
64050,-17.875,-3,-39.75,0
64070,-17.5,-1.75,-37.6875,0
64090,-18.5625,1.625,-39.5,0
64110,-18.4375,3.5,-39.625,0
64130,-20.3125,4.9375,-35.8125,0
64150,-22.375,7.625,-36.25,0
64170,-23.125,10.3125,-38.1875,0
64190,-22.8125,11.125,-38.3125,0
64210,-22.5,10.75,-35.1875,0
64230,-23.6875,10.4375,-36,0
64250,-23.375,13.875,-36,0
64270,-23.5,17.375,-35.875,0
64290,-24.375,19.9375,-36,0
64310,-24.875,19.9375,-36.4375,0
64330,-23.875,19.75,-37.375,0
64350,-23.6875,22.3125,-37.125,0
64370,-23.75,25,-35.5,0
64390,-23.375,26.375,-35.3125,0
64410,-22.25,27,-35.25,0
64430,-21,27.0625,-34.6875,0
64450,-21.3125,27.875,-33.5,0
64470,-23.0625,28.25,-33.5,0
64490,-24.3125,29.875,-32.25,0
64510,-24.25,32.5,-31,0
64530,-23.25,33.5625,-30.1875,0
64550,-23,34.1875,-28.375,0
64570,-24.625,35.4375,-26.625,0
64590,-25.3125,37.625,-24.625,0
64610,-24.5,41.25,-19.25,0
64630,-23.625,44.6875,-18.75,0
64650,-21.1875,45.5,-20.5625,0
64670,-22.125,46.5,-18.6875,0
64690,-24.75,51.3125,-12.3125,0
64710,-26.625,54.25,-9.3125,0
64730,-22.125,48.875,-12.8125,0
64750,-19,45.125,-11.875,0
64770,-18.8125,47.3125,-6,0
64790,-20.75,52.625,0,0
64810,-24.0625,50.0625,4.375,0
64830,-19.3125,46.875,7.4375,0
64850,-9.0625,45.9375,11.4375,0
64870,-10.4375,52.9375,17.5,0
64890,-20.1875,53.75,23.5625,0
64910,-21.6875,49,26.5625,0
64930,-14.375,44.375,29.4375,0
64950,-8.625,41.5,30.125,0
64970,-7.625,37.875,31.125,0
64990,-14.3125,31.375,33.375,0
65010,-19.4375,24.625,36.9375,0
65030,-16.75,22.8125,36.9375,0
65050,-12.1875,23.625,35.125,0
65070,-9.625,22.625,35.0625,0
65090,-11,20.9375,34.1875,0
65110,-11.8125,16.1875,33.1875,0
65130,-10.375,12.4375,32.5,0
65150,-9.4375,12.75,35.375,0
65170,-10.75,11.625,36.75,0
65190,-8.8125,9.3125,36.4375,0
65210,-6.4375,6.0625,35.1875,0
65220,-6.4375,4.625,33.75,0
65240,-7.6875,3.0625,31.3125,0
65260,-4.125,2.75,29.75,0
65280,-1.875,0.75,30.4375,0
65300,-2.25,-0.8125,27.6875,0
65320,-4.125,-2.5625,27.3125,0
65340,-1.8125,-5.9375,27.25,0
65360,3.125,-8,25.875,0
65380,-0.3125,-13.1875,26.5625,0
65400,-4.5625,-15.1875,25.75,0
65420,-3.25,-14.6875,27.0625,0
65440,0.0625,-12.1875,25.4375,0
65460,3.875,-12.6875,23.125,0
65480,3.6875,-13.8125,21.9375,0
65500,1.9375,-15.8125,21.9375,0
65520,3.3125,-17.3125,24.75,0
65540,3.625,-16.125,23.25,0
65560,2.4375,-16.3125,22.1875,0
65580,-0.75,-17.75,22.5625,0
65600,1,-16.25,22.3125,0
65620,0.75,-14.6875,20.5625,0
65640,0.4375,-13.6875,21.875,0
65660,-0.9375,-13.5625,21.9375,0
65680,0.3125,-11.4375,20.375,0
65700,0.875,-11,19.3125,0
65720,0.625,-13.25,19.1875,0
65740,4.9375,-13.3125,17.5625,0
65760,10.125,-12.375,15.375,0
65780,8.6875,-11.1875,15.75,0
65800,6.3125,-10.8125,18.4375,0
65820,6.25,-9.875,20.8125,0
65840,4.3125,-8.25,20.9375,0
65860,0,-9.8125,20.875,0
65880,-2.1875,-11.5,21.125,0
65900,-0.125,-11.375,21.0625,0
65920,0.8125,-10.3125,19.4375,0
65940,0.1875,-9.8125,17.9375,0
65960,1,-10.5625,17.375,0
65980,4.625,-11.5,17,0
66000,2.8125,-12.125,15.3125,0
66020,-0.3125,-14.75,15.375,0
66040,-2.5625,-17.375,16.875,0
66060,-2.625,-16.75,16.5625,0
66080,-4.5,-18.8125,14.875,0
66100,-4.5,-19.5625,14.1875,0
66120,-4.6875,-20.75,13.6875,0
66140,-4.125,-23,13.1875,0
66160,-4.0625,-23.6875,11.5,0
66180,-4,-25.375,9.875,0
66200,-1,-27.625,9.5625,0
66220,0.1875,-29.25,9.125,0
66240,-2.875,-31.625,7.4375,0
66260,-1.375,-33.625,7.0625,0
66280,0.1875,-34.5625,7,0
66300,1.8125,-35.75,4.75,0
66320,0.25,-37.3125,3.9375,0
66340,-0.9375,-41.9375,4.75,0
66360,-0.6875,-43.125,2.4375,0
66380,2.25,-40.8125,1.125,0
66400,2.25,-39.3125,-0.6875,0
66420,0.25,-42.1875,-1.3125,0
66440,2.75,-43.8125,-2,0
66460,6.875,-41.9375,-5.4375,0
66480,6.5,-41,-7.375,0
66500,3.6875,-44.4375,-5.9375,0
66520,3.0625,-46,-6.8125,0
66540,6.25,-44.1875,-8.625,0
66560,7.4375,-44.0625,-9.5,0
66580,5.1875,-45.3125,-10.75,0
66600,5.1875,-45.8125,-12.8125,0
66620,9.5625,-42.75,-14.5625,0
66640,9.3125,-40.5625,-14.6875,0
66660,7.6875,-41.125,-18.0625,0
66680,10.875,-40.125,-21.1875,0
66700,15.625,-37.6875,-20.125,0
66720,8.8125,-36.6875,-18.8125,0
66740,2,-35.75,-19.6875,0
66760,3.875,-33.5625,-21.0625,0
66780,8.25,-27.6875,-21.625,0
66800,8.5,-26.375,-24.4375,0
66820,5.1875,-27.125,-28.25,0
66840,8.75,-26,-33.8125,0
66860,11.375,-24,-33.6875,0
66880,6.5625,-25.5625,-31.9375,0
66900,2.4375,-25.25,-32.1875,0
66920,6,-21.0625,-36.5,0
66940,10.1875,-15.875,-40,0
66960,5.875,-12.5,-35.9375,0
66980,-5.9375,-12.1875,-34.6875,0
67000,-6.9375,-10.6875,-36.0625,0
67020,-0.5625,-3.6875,-38,0
67040,0.875,4.25,-40.0625,0
67060,-5.5,6.5,-39.625,0
67080,-12.25,5.875,-39.875,0
67100,-12.125,7.375,-42.5,0
67120,-7.5625,10.1875,-45.3125,0
67140,-13.0625,12.75,-42.75,0
67160,-20.0625,12.3125,-41.4375,0
67180,-21.0625,9.3125,-42.5625,0
67200,-20.125,11,-45.3125,0
67220,-19.0625,12.9375,-44.5,0
67240,-24.875,16.875,-40.75,0
67260,-29.8125,20.375,-39.4375,0
67280,-28.5,21.6875,-41.625,0
67300,-24.5,24.5625,-43.0625,0
67320,-24.625,25.625,-41.1875,0
67340,-28.625,25.75,-41.3125,0
67360,-30.8125,26.9375,-40.875,0
67380,-30.5,27.9375,-40.875,0
67410,-32.1875,29.3125,-28.5,0
67430,-31.75,31.0625,-26.375,0
67450,-28.1875,32.0625,-22.625,0
67470,-26.875,31.125,-19,0
67490,-28,29.5,-18.5,0
67510,-29.125,29.75,-17.125,0
67530,-28.8125,31.9375,-15.0625,0
67550,-23.9375,32.5625,-15.875,0
67570,-18.375,33.25,-16.875,0
67590,-15.3125,35.8125,-14.8125,0
67610,-18.0625,38.625,-13.8125,0
67630,-18.125,39.125,-12.875,0
67650,-13.1875,40.875,-12.8125,0
67670,-7.5,41.4375,-11.4375,0
67690,-6.0625,39.0625,-11.8125,0
67710,-7.4375,38.125,-6.5625,0
67730,-10,40.3125,-2.125,0
67750,-13.375,39.8125,1.375,0
67770,-8.875,36.25,2.375,0
67790,-5.4375,35.6875,5.8125,0
67810,-5.8125,38.5,8.6875,0
67830,-12,39.0625,10.5,0
67850,-9.25,35,9.875,0
67870,-4,31.5,11.625,0
67890,-3.625,31.5,14.25,0
67910,-6,31.6875,17.25,0
67930,-9.3125,30.875,21.3125,0
67950,-10.3125,29,27.375,0
67970,-11.3125,27.8125,27.6875,0
67990,-11.6875,23.4375,30.25,0
68010,-10.875,19.5625,33.1875,0
68030,-15.75,15.4375,34.1875,0
68050,-18.4375,14.875,34.4375,0
68070,-20.3125,12.5,37.4375,0
68090,-18.9375,11.75,37.4375,0
68110,-12.9375,12.6875,35.8125,0
68130,-12.625,8.9375,34.875,0
68150,-14.1875,3.125,31.9375,0
68170,-14.125,0.0625,29.9375,0
68190,-15.1875,0.4375,30.75,0
68210,-13.875,2.125,28.125,0
68230,-10.625,4.125,25.9375,0
68250,-6.75,6.25,25.875,0
68270,-4.4375,7.375,24.625,0
68290,-4.75,5.9375,24.1875,0
68310,-6.875,6.375,20.9375,0
68330,-4.9375,8.75,21.0625,0
68350,-3.1875,10,20.625,0
68370,-2.8125,8.0625,22.25,0
68390,-1.5,8.5625,20.25,0
68410,-3.125,7.375,18.4375,0
68430,-4.875,6.625,19.25,0
68450,-7.8125,3.625,21.3125,0
68460,-4.9375,3.875,21.625,0
68480,-3.25,3.5,19.3125,0
68500,-3.125,4.625,17.9375,0
68520,-7.25,1.625,19.5625,0
68540,-6.375,0.125,20.5,0
68560,-4,1.625,19,0
68580,-1.125,2.1875,18.0625,0
68600,-0.8125,1.3125,17,0
68620,-0.4375,2.6875,16.0625,0
68640,3.125,3.3125,16.75,0
68660,4.4375,2.6875,13.75,0
68680,1.5625,-0.125,13.25,0
68700,-2.125,-2.125,10.1875,0
68720,-2.0625,-5.875,12.1875,0
68740,-4.5625,-7.125,11.5,0
68760,-9,-6.875,10.875,0
68780,-9.9375,-8.75,13.5,0
68800,-9.3125,-11.5,13.375,0
68820,-6.375,-10.625,12.1875,0
68840,-4.8125,-9.8125,11.3125,0
68860,-3.5625,-10.375,11.5,0
68880,-2.8125,-10.375,12.4375,0
68900,-1.25,-10.4375,11.9375,0
68920,-1.5625,-9.0625,11.0625,0
68940,-2.8125,-8.625,11.6875,0
68960,-3.25,-9.6875,13.375,0
68980,-3.0625,-11.75,12,0
69000,-6,-11,13.6875,0
69020,-9.75,-10.3125,15.4375,0
69040,-9.9375,-14.25,17.0625,0
69060,-7.75,-14.8125,14.875,0
69080,-5.375,-17.0625,13.9375,0
69100,-1.6875,-20.8125,14.375,0
69120,2.4375,-22,13.5625,0
69140,3.75,-23.375,13,0
69160,5.1875,-24.5625,14.9375,0
69180,1.0625,-26.5,14.6875,0
69200,-3.5625,-29.875,14.125,0
69220,-6.625,-32.5625,12.4375,0
69240,-4.3125,-34.875,12,0
69260,-1.4375,-36.75,11.0625,0
69280,-2.5625,-38.0625,11.0625,0
69300,-4.5,-39.75,10,0
69320,-6.0625,-40.75,7.4375,0
69340,-5.25,-39.5625,7.375,0
69360,-2.4375,-38.375,7.625,0
69380,-1.3125,-39.75,6.375,0
69400,-0.5625,-41.25,4.9375,0
69420,0.75,-41.5,4.1875,0
69440,-1,-40.75,2.5625,0
69460,-6.6875,-40.3125,1.6875,0
69480,-9.4375,-43.75,2.9375,0
69500,-6.9375,-45.9375,0.3125,0
69520,-2.3125,-45.5,-3.75,0
69540,-1.25,-48.4375,-5.0625,0
69560,-2.4375,-51.3125,-6.1875,0
69580,-4.375,-53.5,-7.6875,0
69600,-3.0625,-53.875,-10.5,0
69620,-2.8125,-56.25,-10.875,0
69640,-1.625,-57.3125,-10.625,0
69660,-1.3125,-56.8125,-13.5625,0
69680,-0.5,-56.125,-16.9375,0
69700,2.6875,-56.25,-18.0625,0
69720,7,-56.5625,-17,0
69740,5.625,-54.8125,-17.5,0
69760,4.0625,-52.25,-19.9375,0
69780,5,-49.5625,-22,0
69800,11.0625,-49.75,-21.4375,0
69820,8.0625,-46.75,-20.875,0
69840,6.625,-38.3125,-23.5,0
69860,6.25,-35.875,-23.4375,0
69880,5.875,-37.125,-22.9375,0
69900,9,-33.8125,-24.4375,0
69920,11,-28.625,-25.625,0
69940,8.0625,-28.25,-23.1875,0
69960,4.1875,-29.25,-23.3125,0
69980,5.5625,-27.0625,-26.375,0
70000,7.4375,-23.5,-27.5625,0
70020,5,-21.5625,-26.6875,0
70040,4.75,-18.6875,-28.625,0
70060,7.5625,-14.5625,-33,0
70080,12.9375,-10.4375,-35.375,0
70100,10.375,-8.5,-30.75,0
70120,5.5625,-8.9375,-27.1875,0
70140,6.1875,-6.5625,-27.5625,0
70160,10.0625,-2.8125,-29.8125,0
70180,12.25,-3.25,-24,0
70200,6,-6.125,-18.4375,0
70220,4.3125,-4,-21.75,0
70240,3.5625,-1.75,-21.3125,0
70260,2.3125,-1.5625,-15.4375,0
70280,1.3125,0.8125,-13.8125,0
70300,5,3.1875,-17.9375,0
70320,6.0625,3,-19.75,0
70340,4.875,0.5,-14.5,0
70360,3.9375,-1.375,-12.75,0
70370,5.1875,-2.875,-15.375,0
70390,4.4375,-4.1875,-14.875,0
70410,2.3125,-5.1875,-11.4375,0
70430,-0.1875,-4.5,-9.875,0
70450,1.25,-4.3125,-11.3125,0
70470,3,-5.8125,-11.1875,1001
70490,0.9375,-7.375,-7.5,0
70510,0.8125,-5.9375,-6.1875,0
70530,2.8125,-7.8125,-6.5,0
70550,3.3125,-9.5625,-5,0
70570,2.5625,-9.9375,-2.8125,0
70590,-1.1875,-11.25,0.75,0
70610,-1.8125,-11.3125,2.375,0
70630,-1.9375,-9.5625,2.8125,0
70650,-3.75,-7.5625,2.6875,0
70670,-2.3125,-5.125,2.5625,0
70690,-0.1875,-0.6875,1.625,0
70710,-2.375,2.875,0.5,0
70730,-2.875,4.875,-0.875,0
70750,0,4.25,-1.875,0
70770,0,2.75,0.6875,0
70790,-1.125,0.375,1.6875,0
70810,-1.5,-0.25,2.0625,0
70830,-0.3125,-2.0625,0.375,0
70850,0.5625,-3.0625,-0.625,0
70870,0.1875,-2.5625,-0.6875,0
70890,-1.1875,-0.375,0.1875,0
70910,-1,0.125,-0.375,0
70930,-0.125,-0.25,-0.3125,0
70950,-1.75,0.0625,-0.0625,0
70970,-3.25,1.1875,-0.4375,0
70990,-4.25,1.1875,-0.5625,0
71010,-5.0625,1.625,-0.8125,0
71030,-6,2.5,-0.1875,0
71050,-6.125,7.5,6.3125,0
71070,-3.75,13.625,10.5625,0
71090,-1.125,16.125,8.9375,0
71110,-1.5625,17.125,6.1875,0
71130,-4.625,16.75,3.875,0
71150,-9.8125,13.6875,3.75,0
71170,-12.625,10.375,5.8125,0
71190,-10.25,3.5625,5.75,0
71210,-9.75,-4.6875,3.125,0
71230,-13.1875,-13.625,4.3125,0
71250,-11,-23.9375,3.9375,0
71270,-6.0625,-30.25,3.0625,0
71290,-1.875,-30.25,0.1875,0
71310,0.375,-25.3125,-1.1875,0
71330,1.625,-15.875,-2.3125,0
71350,1.625,-4.5625,-2.9375,0
71370,3.625,7.125,-2.1875,0
71390,6.625,16.9375,-2,0
71410,9.6875,28.4375,-2.4375,0
71430,10.25,37,4.375,0
71450,10.1875,46.1875,16.3125,0
71470,14.8125,54,20.0625,0
71490,17.5,62.75,23.6875,0
71510,15.4375,75.125,34.9375,0
71530,17.5625,84.1875,40.8125,0
71550,25.0625,81.8125,38.625,0
71570,29.25,76.875,39.5,0
71600,30.4375,79,54.0625,0
71620,36.375,75.1875,52,0
71640,42.5625,72.4375,58.875,0
71660,49.1875,77.3125,78.1875,0
71680,43.3125,79.625,85.5625,0
71700,38.1875,76.6875,82.1875,0
71720,32.0625,85.25,85.125,0
71740,29.1875,94.0625,96.125,0
71760,24.9375,86.25,88.3125,0
71780,26.875,69.6875,80,0
71800,22.125,61.6875,71.875,0
71820,16.4375,61.4375,67.0625,0
71840,6.875,53.3125,61.875,0
71860,-7.375,37.125,55.1875,0
71880,-19.25,23.6875,44.4375,0
71900,-26.5,17.25,37.5625,0
71920,-28.8125,13.375,36.1875,0
71940,-28.5,8.875,31.3125,0
71960,-25.625,1.125,24.5625,0
71980,-17.9375,-5.0625,19.3125,0
72000,-14.4375,-5.625,15.9375,0
72020,-17.4375,-0.6875,17.0625,0
72040,-23.9375,-0.375,14.25,0
72060,-16.5,-4,13.625,0
72080,1.25,-8.3125,18.0625,0
72100,11.4375,-9.5,13.3125,0
72120,11.9375,-5.5625,5.0625,0
72140,9.3125,-3.125,3.5,0
72160,7.3125,-1.8125,4.5,0
72180,4.25,-1.75,3.3125,0
72200,4.3125,-3.75,1.1875,0
72220,2.4375,-3.4375,0.875,0
72240,0.625,-2,1.9375,0
72260,1.4375,-3.25,-0.5625,0
72280,2.75,-6.0625,-2.25,0
72300,2.9375,-9.5,-5.0625,0
72320,3.8125,-11.5625,-7,1000
72340,5.375,-11.6875,-8,0
72360,5.5,-11.375,-6.25,0
72380,2.25,-10.75,-5.4375,0
72400,3.4375,-9.625,-5.0625,0
72420,3.25,-8.625,-5.4375,0
72440,3.125,-8.5,-5.6875,0
72460,4.375,-8.375,-5,0
72480,5.125,-8.5625,-3.6875,0
72500,5.625,-9.6875,-5.375,0
72520,7.4375,-10.375,-5.3125,0
72540,5.5625,-10.375,-2.625,0
72560,5.125,-7.9375,-1.5,0
72580,4,-4.375,-2.5625,0
72600,2,-1.5625,-0.875,0
72620,-0.1875,-1.25,-0.0625,0
72640,-1.1875,-0.25,-1.0625,0
72660,-2.8125,2,-0.5,0
72680,-5,4.0625,0.5,0
72700,-5.5,4.875,0.5625,0
72720,-4.5,5.4375,0.5,0
72740,-2.125,4.6875,-0.125,0
72760,-0.875,3.4375,0.8125,0
72780,-1.125,1.75,1.8125,0
72800,-1.125,0.75,1.625,0
72820,-2.1875,1.25,0.9375,0
72840,-3.5625,2.8125,1.4375,0
72860,-4.0625,3.1875,2.4375,0
72880,-2.75,2.6875,2.9375,0
72900,-1.0625,2.375,1,0
72920,-0.375,2.5,0.125,0
72940,0.375,1.4375,0.4375,0
72960,-0.3125,0.5625,0.75,0
72980,-0.1875,0,1,0
73000,-1.125,-0.3125,1.375,0
73020,-1.75,-0.1875,2.5,0
73040,-2,-0.5,2.75,0
73060,-2.625,-0.625,1.6875,0
73080,-2.8125,-0.6875,1.9375,0
73100,-2.6875,-0.3125,3.125,0
73120,-2.75,0.0625,2.8125,0
73140,-1.5625,-0.9375,1.875,0
73160,-1.1875,-1.875,1.375,0
73180,-1.1875,-2.5,1.125,0
73200,-0.3125,-3.9375,0.9375,0
73220,-0.9375,-4.9375,1.1875,0
73240,-1.5625,-6.8125,0.875,0
73260,-1.5,-8.6875,2.125,0
73280,-3,-9.375,1.6875,0
73300,-1.875,-9.6875,1.3125,0
73320,-0.75,-10.8125,2.0625,0
73340,-0.4375,-12,2.4375,0
73360,-0.6875,-12.1875,2.25,0
73380,-0.5,-10.8125,1.625,0
73400,1.625,-11.125,1.9375,0
73420,2.3125,-12.4375,1.4375,0
73440,2.0625,-13.3125,0.8125,0
73460,1.6875,-14.375,1.9375,0
73480,2.75,-16.625,0.75,0
73500,3.0625,-17.75,-1,0
73520,0.5625,-18.6875,-0.0625,0
73540,-2.1875,-20.4375,1.4375,0
73560,-0.5625,-22.4375,1.9375,0
73580,0.5,-23.5625,1.5,0
73600,-0.5625,-23.0625,1.125,0
73620,-0.3125,-23.4375,1.5,0
73640,3.375,-27.25,-1.375,0
73660,6.5625,-30.875,-4.6875,0
73670,6.625,-33.875,-6.6875,0
73690,7.0625,-31.6875,-7.75,0
73710,3.5,-31.375,-7.375,0
73730,0.625,-33,-8,0
73750,-0.6875,-31.875,-7.75,0
73770,-0.1875,-29.625,-7.75,0
73790,2.75,-28.75,-8.125,0
73810,1.1875,-29.75,-10.9375,0
73830,-1.875,-31.6875,-13.5625,0
73850,-1.9375,-32.875,-13.8125,0
73870,1.1875,-34.375,-13.25,0
73890,0.75,-32.8125,-14.5625,0
73910,-2.9375,-30.0625,-15.9375,0
73930,-5.125,-29.125,-15.1875,0
73950,-6.375,-29.8125,-17,0
73970,-4.6875,-30.4375,-18,0
73990,-2.5625,-29.4375,-18.625,0
74010,-6.1875,-26.3125,-22.25,0
74030,-10,-22.6875,-24.375,0
74050,-10.6875,-21.1875,-27.125,0
74060,-7.9375,-20.375,-28.0625,0
74080,-8.125,-16.875,-31.125,0
74100,-14,-11.5625,-32.9375,0
74120,-19.4375,-7.3125,-32.1875,0
74140,-18.125,-7.5,-31.1875,0
74160,-17.25,-7.5,-31.1875,0
74180,-17.5,-5.1875,-30.25,0
74200,-21,-1.75,-31.3125,0
74230,-23.5,0.5625,-32.1875,0
74250,-24.125,1.3125,-32.8125,0
74270,-22.125,1.375,-31.4375,0
74290,-17.0625,0.875,-34.25,0
74310,-14.6875,0.1875,-37.0625,0
74330,-15.9375,0.1875,-39.75,0
74350,-19.875,-0.4375,-40.375,0
74380,-18.875,-0.0625,-40.5,0
74400,-19.6875,0.875,-39.9375,0
74430,-25.5625,10.625,-38.75,0
74460,-20.1875,21.25,-37.9375,0
74490,-21.6875,41.4375,-30.4375,0
74510,-18.5625,53.375,-28.1875,0
74540,-14.6875,58.875,-21.9375,0
74560,-12.25,61.125,-19.1875,0
74570,-13.9375,64.6875,-16.75,0
74590,-17.1875,65.875,-13.375,0
74610,-16,61.5625,-9.125,0
74630,-11.1875,57.25,-4.375,0
74650,-10.75,58,-4,0
74670,-14.5,59.5625,-0.9375,0
74690,-19.625,55.5,1.75,0
74710,-13.625,46.1875,4.0625,0
74730,-8.5625,44.3125,1.9375,0
74750,-10.3125,49.0625,2,0
74770,-16.625,54.5,3.5,0
74790,-14.6875,47.6875,1.75,0
74810,-5.875,39.1875,-0.75,0
74830,-2.4375,39.9375,-2.8125,0
74850,-6.75,45.5625,-3.75,0
74870,-11,40.25,-2,0
74890,-7.25,33.1875,-2.25,0
74910,-0.3125,27.5,-2.625,0
74940,-5.375,30.9375,-0.625,0
74960,-8.25,28.375,4.125,0
74980,-2.75,25,9,0
75000,7,27.1875,6.5625,0
75020,11.75,27.5,5.6875,0
75040,6.3125,27.5,11.25,0
75060,-4.375,24.5625,16.8125,0
75080,-1.6875,20.8125,18.5,0
75100,1.625,18.125,18.75,0
75120,4.8125,18.1875,18.5625,0
75140,4.625,17.5625,21.625,0
75160,3.0625,13.6875,20,0
75180,5.5625,10.5625,21.4375,0
75200,1.5625,10.625,23.25,0
75210,-2.75,10.875,27.25,0
75230,-2.875,6.9375,28.1875,0
75250,-3.5,2.8125,29.75,0
75270,-5,0.9375,30.3125,0
75290,-10.25,-0.8125,32.375,0
75310,-11,-2.9375,33.25,0
75330,-5.8125,-3.4375,32.375,0
75350,-4.0625,-5.3125,30.625,0
75370,-6.75,-7,28.5,0
75390,-11.5,-9.625,30,0
75410,-13,-10.8125,30,0
75430,-7.3125,-10.5,27.875,0
75450,-4.5,-10.875,27.125,0
75470,-5.875,-11.1875,25.6875,0
75490,-8.4375,-10.625,25.5,0
75510,-10.625,-9.75,25.0625,0
75530,-7.375,-9.0625,24.75,0
75550,-8.5625,-6.5625,25.0625,0
75570,-9.6875,-7.0625,23.4375,0
75590,-4.4375,-7.5,22.625,0
75610,-4.375,-8.4375,23.0625,0
75630,-8.875,-10,24.3125,0
75650,-10.0625,-11.375,24.875,0
75670,-10,-10.9375,25,0
75690,-8,-9.5625,25.5,0
75710,-7.875,-9.6875,25.5,0
75730,-10.625,-11,25.375,0
75750,-12.125,-12.125,25.5,0
75770,-10.5625,-11.0625,24.9375,0
75790,-11.5,-12.375,24.9375,0
75810,-9.75,-15,23.9375,0
75830,-8.5625,-14.5625,21.875,0
75850,-8.875,-12.375,22.5,0
75870,-12.3125,-9.8125,22.25,0
75890,-12.4375,-7.6875,22,0
75910,-10.5625,-6.9375,22.5625,0
75930,-8.9375,-5,22.0625,0
75950,-8.3125,-5.125,19.5,0
75970,-8.0625,-5.8125,19,0
75990,-9,-7.8125,19.3125,0
76010,-9,-8.375,20,0
76030,-9,-8.25,19.625,0
76050,-6.375,-8.9375,18.375,0
76070,-5.375,-10.3125,18.6875,0
76090,-6,-11.8125,18.5,0
76110,-5.3125,-13.0625,17.3125,0
76130,-1.8125,-15.4375,17.0625,0
76150,-1.25,-16.125,17.3125,0
76170,-4.625,-15.6875,17.4375,0
76190,-8,-16,16.3125,0
76210,-5.375,-16.625,16.125,0
76230,0.25,-17.0625,16.125,0
76250,-0.125,-18.3125,13.875,0
76270,-1.5,-18.6875,11.375,0
76290,-4.25,-18.875,12.875,0
76310,-5.25,-18.8125,14.125,0
76330,-4.375,-20.125,14.3125,0
76350,-2.8125,-20.5625,13.1875,0
76370,-5.8125,-18.6875,13.6875,0
76390,-9.875,-19.4375,15.125,0
76410,-12.4375,-20,16.5,0
76430,-8,-21.4375,14.125,0
76450,-4,-21.125,12.0625,0
76470,-7.3125,-23.875,10.6875,0
76490,-9.9375,-28,11.1875,0
76510,-7,-29.75,7.375,0
76530,-4.3125,-30.5625,6.5,0
76550,-6.625,-31.8125,6.9375,0
76570,-9.0625,-36.0625,6.875,0
76590,-7.5625,-37.9375,4.4375,0
76610,-3.3125,-39.8125,2.5625,0
76630,-4.4375,-41.875,0.875,0
76650,-7.0625,-42.8125,1.4375,0
76670,-8.375,-44.875,0.6875,0
76690,-3.0625,-43.75,-1.375,0
76710,-1.75,-43.4375,-1.75,0
76730,-4.25,-45.1875,-0.875,0
76750,-4.625,-49,-3,0
76770,-1.125,-48.625,-4.3125,0
76790,1,-49,-5.25,0
76810,-1.5625,-51.125,-7.1875,0
76830,-3.3125,-53.3125,-9,0
76850,-0.375,-54.125,-11.875,0
76870,2.5,-53.375,-14.8125,0
76890,0.8125,-51.75,-17.875,0
76910,1.0625,-51.4375,-16.125,0
76930,4.25,-53.3125,-16.8125,0
76950,11.75,-53.75,-20.9375,0
76970,12.75,-48.9375,-26.1875,0
76990,7.625,-43.0625,-24.375,0
77010,4.0625,-41.3125,-19.125,0
77030,8.625,-41.8125,-21.6875,0
77050,18.0625,-40.875,-27.625,0
77070,17,-36.125,-29.3125,0
77090,8.8125,-31.5,-22.625,0
77110,4.375,-25.9375,-17.1875,0
77130,6.0625,-26.8125,-19.9375,0
77150,9.4375,-28.1875,-23.5625,0
77170,10.625,-27.8125,-23,0
77190,0.375,-24.3125,-22.1875,0
77210,-3.75,-25.1875,-25.0625,0
77230,-1.3125,-29.0625,-26.75,0
77250,-0.1875,-28.0625,-30.3125,0
77270,-0.625,-26.5,-30.5625,0
77290,-3.375,-23.4375,-32,0
77310,-2.8125,-24.8125,-34.1875,0
77330,-3.0625,-22.1875,-36.625,0
77350,-8.75,-18.4375,-33.875,0
77370,-13.625,-15.5625,-33.125,0
77390,-14.625,-16,-34.375,0
77410,-10.9375,-15.8125,-34.75,0
77430,-10.9375,-14.1875,-35.625,0
77450,-14.5,-13.4375,-36.125,0
77470,-17.5,-11.375,-36.875,0
77490,-19.3125,-8.1875,-35.5,0
77510,-20,-6.0625,-35,0
77530,-20.875,-4.25,-39.0625,0
77550,-19.875,-2.75,-41.6875,0
77570,-22.1875,2.3125,-41.875,0
77590,-23.8125,5.6875,-43.6875,0
77610,-22.5,6.5,-47.625,0
77630,-18.875,6,-52.5,0
77650,-18.4375,7.625,-53.9375,0
77660,-23,11.8125,-53,0
77680,-26.5625,14.875,-51.75,0
77700,-26.5625,16.6875,-51.8125,0
77720,-25,17.625,-50.5625,0
77740,-24.25,19.8125,-48.5625,0
77760,-27.3125,25,-46.3125,0
77780,-29.0625,29.9375,-44.25,0
77800,-28.0625,30.875,-43.5,0
77820,-25.1875,30.625,-42.875,0
77830,-23.9375,32.5625,-40.6875,0
77850,-25.8125,38.0625,-39.0625,0
77870,-26,40.3125,-37.5,0
77890,-21.6875,39.125,-36.375,0
77910,-19.1875,38.375,-36.625,0
77930,-18.5625,40.25,-35.125,0
77950,-20.9375,44.9375,-30.875,0
77970,-22,47.875,-28.75,0
77990,-18.875,49.75,-26.3125,0
78010,-17.0625,53.1875,-22.5,0
78030,-18.375,58.375,-20.125,0
78050,-18.75,60.5,-16.875,0
78070,-16.5,56.75,-13.75,0
78090,-12.625,52.9375,-13.9375,0
78110,-11.125,50.5625,-13.1875,0
78130,-15.625,52,-10.5,0
78150,-16.625,53.25,-3.6875,0
78170,-13.625,48.6875,-1.5625,0
78190,-8.625,47.4375,-2.1875,0
78210,-10.25,52.1875,1.3125,0
78230,-16.5,54,7,0
78250,-15.625,51.6875,11.75,0
78270,-8.3125,49.3125,11.5,0
78290,-7.125,50.375,11.75,0
78310,-8.125,47.875,16.5,0
78330,-4.0625,40.75,21.625,0
78350,-1.125,34.625,21.8125,0
78370,-1.8125,34.8125,21.625,0
78390,-5.8125,35.6875,25.875,0
78410,-5.8125,36,31.9375,0
78430,0.625,32.4375,30.0625,0
78450,0.5625,31,30,0
78470,-3.3125,29.9375,32,0
78490,-6.1875,29.375,33.8125,0
78510,-0.4375,31.3125,35.9375,0
78520,-0.1875,33.625,36.8125,0
78540,-5.0625,32.5,36,0
78560,-3.8125,28.0625,34.0625,0
78580,0.25,24.875,34.5,0
78600,0.125,25.9375,32.0625,0
78620,-3.5,25.5625,29.4375,0
78640,-5.1875,23.1875,29.75,0
78660,-5.75,23.5625,31.25,0
78680,-11.375,25.0625,29.375,0
78700,-7.3125,26.0625,30.4375,0
78720,-3.6875,25.8125,31.6875,0
78740,-4.8125,24.1875,29.6875,0
78760,-8.0625,22.25,25.1875,0
78780,-8.8125,19.5625,25.875,0
78800,-9.5625,16,26,0
78820,-11.5625,15.1875,23.5,0
78840,-13.4375,14.375,24.25,0
78860,-13.8125,14.125,26.75,0
78880,-13.625,14.625,25.875,0
78900,-13.9375,13.9375,24.8125,0
78920,-12.125,14.9375,22.875,0
78940,-12.25,12.25,21.875,0
78960,-7.6875,9,23.5625,0
78980,-10.1875,4.9375,22.9375,0
79000,-15.4375,1.9375,22.625,0
79020,-15,1.8125,25.25,0
79040,-10.3125,0.8125,24,0
79060,-8.4375,-2,22.8125,0
79080,-12.3125,-4.0625,21.5625,0
79100,-15,-5.8125,23.125,0
79120,-13.6875,-9.1875,22.25,0
79140,-14.0625,-13.1875,20.9375,0
79160,-15.5,-15.5625,19.875,0
79180,-15.5,-13.8125,20.25,0
79200,-14.5,-13.875,19.4375,0
79220,-7.8125,-14.875,18.125,0
79240,-5.1875,-17.1875,17.625,0
79260,-7.5625,-15.8125,18.375,0
79280,-11.375,-15.6875,19.1875,0
79300,-13.8125,-16.5625,20.9375,0
79320,-12.9375,-17.375,20.6875,0
79340,-10.3125,-19.0625,20.125,0
79360,-9.3125,-20.375,19.25,0
79380,-7.875,-22.5,19.625,0
79400,-4.25,-24.6875,18.4375,0
79420,-2.4375,-26.0625,16.625,0
79440,-2.5625,-28.4375,16.8125,0
79460,-0.9375,-29.5625,15.6875,0
79480,-0.1875,-29.8125,14.5,0
79500,0.0625,-30,14.375,0
79520,-0.6875,-28.6875,15.875,0
79540,-2.75,-29.3125,13.4375,0
79560,-1.3125,-30.375,12.6875,0
79580,-0.75,-30.6875,13.5,0
79600,-4,-31.5,12.625,0
79620,-6.375,-30.375,11.25,0
79640,-7.4375,-31.25,12,0
79660,-5.1875,-31.5,11.8125,0
79680,-5.4375,-32.375,8.25,0
79700,-6.5,-33.5,8.125,0
79720,-5.9375,-36.5625,7.4375,0
79740,-4.1875,-39.9375,6.125,0
79760,-8.1875,-43.4375,4.75,0
79780,-9.0625,-47.375,4.375,0
79800,-9.25,-51.1875,3.75,0
79820,-7.25,-52.75,1.25,0
79840,-9.25,-54.3125,0.25,0
79860,-9.1875,-57.25,-0.125,0
79880,-6.25,-59.5625,1.8125,0
79900,-5.6875,-60.5,0,0
79920,-6.375,-57.4375,-4.0625,0
79940,-5.125,-57.5,-4.75,0
79960,2.1875,-60,-4.9375,0
79980,5.1875,-62.5,-8.1875,0
80000,4.9375,-61.125,-12.8125,0
80020,0.3125,-58.9375,-12.5,0
80040,0.6875,-60.8125,-13.25,0
80060,9.1875,-58.375,-13.1875,0
80080,6.9375,-55.0625,-13,0
80100,3.1875,-53.0625,-15.375,0
80120,5.4375,-49.125,-16.9375,0
80140,8.5,-44.875,-15.8125,0
80160,5.6875,-40.9375,-17.3125,0
80180,5.1875,-39.3125,-19.5625,0
80200,11.0625,-36.5,-23.75,0
80220,14.25,-31.3125,-26.375,0
80240,6.125,-28.625,-20.625,0
80260,4.9375,-28.6875,-19.25,0
80280,11.625,-31.8125,-24.6875,0
80300,12.375,-34.1875,-28.625,0
80320,3.8125,-33.8125,-24.6875,0
80340,-5.625,-31.4375,-20.6875,0
80360,-7.5,-27.625,-25.1875,0
80380,-0.375,-25.5625,-32.1875,0
80400,1,-23.0625,-34.4375,0
80410,-4.125,-18.4375,-33.5625,0
80430,-0.75,-16.4375,-38.8125,0
80450,0,-20,-42.9375,0
80470,-2.5,-18.125,-40.3125,0
80490,-8.875,-13.5625,-34.6875,0
80510,-10.25,-8.1875,-34.625,0
80520,-4.4375,-5.9375,-40.4375,0
80540,-4.1875,-4.625,-40.25,0
80560,-14.25,1.1875,-35.8125,0
80580,-14.3125,4,-36.25,0
80600,-22.25,12.3125,-34.0625,0
80620,-20.375,14.4375,-38.1875,0
80630,-17.3125,12.4375,-42.6875,0
80650,-17.1875,11.8125,-40.9375,0
80670,-20.9375,13.125,-42.25,0
80700,-20.375,11.25,-48.0625,0
80720,-21.375,13.1875,-46.8125,0
80740,-23.625,16.875,-44.25,0
80760,-24,19.5625,-45.375,0
80780,-21.625,18.625,-47.5625,0
80800,-21.125,16.8125,-46.5625,0
80820,-23.0625,19.8125,-42.875,0
80840,-24.75,25.25,-40,0
80860,-24,27.125,-38.375,0
80880,-21.875,28.9375,-36.375,0
80900,-21.1875,30.5625,-35.25,0
80920,-22.125,32.375,-33.3125,0
80940,-22,34.75,-28.9375,0
80960,-22.0625,39,-24.1875,0
80980,-24.4375,42.375,-22.3125,0
81000,-23.9375,45.625,-22,0
81020,-22.3125,48.125,-20.3125,0
81040,-22,51.5625,-18.75,0
81060,-22.25,55.9375,-15.375,0
81080,-21.75,56.1875,-9.6875,0
81100,-18.4375,54.875,-5.9375,0
81120,-14.875,54.3125,-3.75,0
81140,-15.75,57.625,4.8125,0
81160,-22.0625,59.5625,12.625,0
81180,-21.625,56.4375,18.9375,0
81200,-15.8125,53.25,19.5625,0
81220,-11.8125,56.8125,24.875,0
81240,-9.5,60.4375,29,0
81260,-12.5625,57.6875,34.625,0
81280,-12.5,57.0625,34.5625,0
81300,-8.75,60.6875,34.3125,0
81320,-3.1875,60.8125,36.4375,0
81340,-0.1875,52.625,41.25,0
81360,-0.4375,47.0625,40.5625,0
81380,1.0625,43.125,38.1875,0
81400,3.375,39.5625,40.875,0
81420,-2.625,36.9375,43.6875,0
81440,-13.9375,33.3125,41.625,0
81460,-18.625,27.0625,41.25,0
81480,-14.5,25.75,43.8125,0
81500,-9.625,33,43.1875,0
81520,-8.4375,36,42.5,0
81540,-6.4375,30.25,41.125,0
81560,-5.875,26.6875,38.3125,0
81580,-5.375,27.3125,35.4375,0
81600,-2.8125,25.875,33.75,0
81620,-8.75,20.75,32.5,0
81640,-15.625,12.75,30.25,0
81660,-16.0625,10.125,26.25,0
81680,-14.8125,3.4375,25.0625,0
81700,-14.6875,-1.625,24.3125,0
81720,-24,-3.5,28.4375,0
81740,-27.75,-2.6875,28.75,0
81760,-24.9375,-3.6875,27.0625,0
81780,-22.3125,-5.6875,26.5,0
81800,-28.125,-6.4375,27.3125,0
81820,-31.25,-6.75,24.3125,0
81840,-26.25,-4.4375,25.0625,0
81860,-26.5625,-8.25,26.75,0
81880,-34.0625,-13.1875,27.625,0
81900,-39.75,-13.6875,26.5,0
81920,-35.375,-16.1875,27.25,0
81940,-24.25,-22.375,25.5,0
81960,-25.625,-26.6875,25.6875,0
81980,-33.9375,-23.625,23,0
82000,-33.3125,-22.6875,24.5,0
82020,-28.125,-26.875,24.125,0
82040,-17.8125,-30.9375,22.625,0
82060,-15.75,-33.375,19.3125,0
82080,-19.6875,-31.5,18.6875,0
82100,-23.625,-33.0625,16.5625,0
82120,-16.5,-35.9375,17.5625,0
82140,-8.625,-39.875,17.75,0
82160,-12.25,-40.5625,12.6875,0
82180,-17.9375,-39.6875,9.5,0
82200,-21.1875,-45.625,14.3125,0
82220,-22.0625,-50.3125,17.625,0
82240,-22.75,-51,13.9375,0
82260,-22.75,-51.8125,9.625,0
82280,-24.8125,-56.5,11.4375,0
82300,-27.9375,-60.1875,13.9375,0
82320,-25.5625,-58.6875,11.6875,0
82340,-23.1875,-58.375,8.5,0
82360,-20.125,-61.375,5.9375,0
82380,-19.375,-62.6875,6.5,0
82400,-22.5,-60.5,6.6875,0
82420,-19.0625,-54.1875,2.5,0
82440,-8.1875,-49.6875,-0.1875,0
82460,-0.1875,-51.6875,0.1875,0
82480,-0.9375,-50.125,-5.875,0
82500,2.9375,-45.8125,-11.3125,0
82520,8.375,-48.8125,-14.3125,0
82540,12,-52.75,-15.9375,0
82560,8.75,-53.3125,-19.75,0
82580,6.8125,-53.1875,-21,0
82600,6.875,-53.5625,-22.125,0
82620,9.0625,-53.625,-25,0
82640,10.8125,-55.0625,-31.5625,0
82660,11.125,-55,-33.625,0
82680,9.8125,-55.125,-35.6875,0
82700,16.4375,-52.5,-38.375,0
82720,15.75,-48.25,-40.5,0
82740,13.0625,-45.5,-42.875,0
82760,9.875,-43.875,-43.1875,0
82780,15.8125,-41.5625,-45.5625,0
82800,20.0625,-37.125,-44.125,0
82820,14.4375,-31.9375,-43.25,0
82840,8.1875,-29.4375,-42.75,0
82860,10.4375,-25.0625,-43,0
82880,16.8125,-18.9375,-41.125,0
82900,17.1875,-16.3125,-38.375,0
82920,10.625,-15.75,-39.3125,0
82940,8.875,-14.375,-38.4375,0
82960,15.25,-11.5625,-34.5625,0
82980,12.5,-10.3125,-29.125,0
83000,7.75,-9.5,-26.4375,0
83020,4.125,-7.5,-25.3125,0
83040,2.0625,-4,-20.3125,0
83060,4.5,-1.1875,-15.8125,0
83080,3.375,-3.0625,-12.1875,0
83100,2.0625,-2.5625,-14.5,0
83120,-0.3125,-0.625,-13.5625,0
83140,0.8125,0,-15.4375,0
83160,3.6875,-2.3125,-16.9375,1001
83180,5,-8.125,-16,0
83200,4.1875,-9.9375,-15.1875,0
83220,2.4375,-10.4375,-14.5,0
83240,3.625,-10.125,-11.9375,0
83260,0.3125,-8.375,-9.3125,0
83280,-2.3125,-6.75,-11.1875,0
83300,1.5625,-6.5625,-10.875,0
83320,2,-5.4375,-6.9375,0
83340,-0.875,-3.4375,-3.1875,0
83360,0.5,-2.4375,-5.375,0
83380,2.5,-4.625,-7.6875,0
83400,1,-2.125,-7.1875,0
83420,-0.9375,1.6875,-5.0625,0
83440,-0.8125,3,-1.5625,0
83460,2.6875,3.8125,-3.375,0
83480,2.4375,5.5,-5.625,0
83500,0.25,9.125,-7.4375,0
83520,-1.4375,10.3125,-5.125,0
83540,0.1875,9.4375,-5.125,0
83560,2.375,10.4375,-7.9375,0
83580,0.9375,13,-8.75,0
83600,-1.5625,15.25,-7.125,0
83610,-4.0625,17.8125,-3.3125,0
83630,-2.4375,21.8125,0.5625,0
83650,1.9375,27.9375,-0.0625,0
83670,5.5625,29.625,-1.8125,0
83690,9.4375,33.3125,4.875,0
83710,9,40.6875,13,0
83730,16.8125,46.25,15.0625,0
83750,20.125,54.5,16.5,0
83770,22.1875,64.8125,29.5625,0
83790,13.4375,73.625,52.625,0
83810,12.0625,83.3125,60.9375,0
83830,19.4375,93.6875,68.5,0
83850,15.5625,109.625,83.125,0
83870,13.8125,122.5,95.375,0
83900,21.875,125.188,84.5,0
83920,22,117.438,89.9375,0
83960,15.6875,100.562,88.875,0
83980,20,91.375,86.9375,0
84000,10.8125,81.625,93.75,0
84020,-3.0625,68.5625,94.375,0
84040,-8.5,50.875,89.9375,0
84060,-6.1875,37.125,88.25,0
84080,-9.8125,33.75,81.8125,0
84100,-16.625,30.5625,70.8125,0
84120,-18.375,18.0625,62.8125,0
84140,-9.8125,8.4375,49.0625,0
84160,1.5625,1.875,38.625,0
84180,4,-0.875,26.625,0
84200,5.125,-6.75,16.4375,0
84220,10.0625,-12.5,9.3125,0
84240,23.25,-14.75,3.9375,0
84260,21.8125,-13.875,4.625,0
84280,8.125,-12.75,5.1875,0
84300,4.1875,-10.875,5.125,0
84320,10.75,-11.1875,8.5,0
84340,8.9375,-11.625,8.75,0
84360,11.625,-11.375,5.4375,0
84380,8.75,-9.625,1.125,0
84400,9,-10.1875,-2.4375,0
84420,13,-13.8125,-3.125,0
84440,14.875,-15.25,-3.8125,0
84460,11.5,-13.1875,-5.6875,0
84480,10,-10.3125,-9.5,0
84500,9.8125,-9.4375,-10.25,1000
84520,10.5,-9.25,-5.875,0
84540,8.5625,-7.1875,-5.375,0
84560,7.1875,-5,-8.9375,0
84580,8.375,-4.6875,-8.875,0
84600,6.625,-4.25,-7.25,0
84620,3.375,-3.4375,-5.5625,0
84640,1.125,-4,-6.0625,0
84660,2.875,-5.4375,-5.625,0
84680,1.1875,-5.3125,-3.625,0
