Timestamp, Rotation x, Rotation y, Rotation z, Marker
30,1.6875,-0.3125,-0.1875,0
50,0.25,0.125,0.25,0
70,-1.5,0.6875,0.4375,0
90,-3.5625,-0.25,1.1875,0
110,-5,-0.25,2.25,0
130,-2.3125,0,1.875,0
140,-1,0.375,1.1875,0
140,-1.8125,0.75,1.25,0
190,-1.5625,1.125,0.5,0
210,-1.25,0.5625,-0.375,0
230,-0.125,0.8125,-0.0625,0
250,-0.8125,0,0,0
270,-1.75,-0.3125,0.0625,0
290,-1.9375,-0.375,0.0625,0
300,-0.6875,-0.0625,-0.3125,0
330,0.875,0.1875,-0.375,0
350,0.8125,0.375,-0.125,0
370,-0.125,0.375,-0.25,0
390,-1.9375,0.875,0.1875,0
410,-2.4375,0.8125,0,0
420,-2.625,0.5625,-0.3125,0
440,-3,0.625,-0.375,0
460,-2.6875,0.5,-0.5625,0
480,-3.8125,1,0.5625,0
500,-3.4375,1.25,1.1875,0
520,-4,-0.25,1.5,0
540,-3.0625,-1.1875,1.9375,0
560,-2.375,-0.4375,2.125,0
580,-3.3125,-0.25,2.8125,0
600,-3.4375,-0.3125,2.5,0
620,-3,-0.5,2.25,0
640,-2,-0.1875,2.4375,0
660,-3.5,0.9375,2.875,0
680,-6.6875,1.75,3.125,0
700,-8.375,2.1875,2.5625,0
720,-7.9375,3,1,0
740,-6.4375,3.875,-0.5,0
760,-5.3125,4.3125,-1.625,0
780,-4.375,4.375,-1.4375,0
800,-2.5,4.625,-1.3125,0
820,-0.375,3.9375,-1.125,0
840,0.6875,3.3125,-0.5625,0
860,0.9375,3.1875,-0.6875,0
880,0.0625,2.625,-0.25,0
900,-0.9375,1.625,0.0625,0
920,-1.0625,-0.1875,1.125,0
940,-0.625,0.4375,1.4375,0
960,-0.75,0.8125,1.3125,0
980,-1.875,1.0625,1.9375,0
1000,-4.125,0.5,3,0
1020,-5.875,0,3.5625,0
1040,-6.5,0.625,3.5625,0
1060,-5.9375,0.5625,3.125,0
1080,-5.6875,1.1875,2.6875,0
1100,-5.1875,1.5625,2.25,0
1120,-4.5625,1.4375,2.25,0
1140,-3.25,1.6875,1.0625,0
1160,-2.5,2.0625,0.8125,0
1180,0,2.5,-0.1875,0
1200,3.3125,3.125,-0.5,0
1220,6.5,1.1875,-1.5,0
1240,4.375,-0.4375,-0.1875,0
1260,0.9375,0.625,-0.4375,0
1280,-2.0625,1.5,-0.5,0
1300,-1.75,1.3125,0.1875,0
1320,-1.4375,0.75,-0.1875,0
1340,-1.625,0.6875,0,0
1360,-2.25,0.8125,0.0625,0
1380,-2.4375,0.75,-0.125,0
1400,-1.375,0,-0.25,0
1420,-0.25,-0.5625,-0.625,0
1440,0.125,-0.4375,-0.625,0
1460,1.625,-1.25,-1.0625,0
1480,2.75,-2.125,-1.25,0
1500,3.875,-1.8125,-1.9375,0
1520,4.375,-2.6875,-2.5625,0
1540,5.125,-3.375,-2.625,0
1560,5.9375,-3.25,-3.125,0
1580,6.25,-4.0625,-2.3125,0
1600,5.625,-4.1875,-1.5,0
1620,4.875,-4.1875,-1.5625,0
1640,4.4375,-4.4375,-1.25,0
1660,4.1875,-3.9375,-1.4375,0
1680,3.5,-3.4375,-1.4375,0
1700,3.0625,-2.8125,-1.4375,0
1720,2.5,-2.875,-1.375,0
1740,2.25,-2.4375,-1.4375,0
1760,1.625,-1.6875,-1.375,0
1780,0.5625,-1.25,-1.375,0
1800,1.3125,-0.75,-1.6875,0
1820,1.75,-1.1875,-2,0
1840,2.1875,-0.875,-1.875,0
1860,1.75,-0.3125,-1.875,0
1880,1.5625,0.0625,-2.0625,0
1900,2.375,1.75,-2.5,0
1920,3.0625,2.3125,-3.8125,0
1940,4.25,2.3125,-4.5625,0
1960,3.4375,2.1875,-4.375,0
1980,3.25,1.875,-3.6875,0
2000,3.5625,1.0625,-3.3125,0
2020,3.75,-0.25,-2.4375,0
2040,2.8125,-1.1875,-1.5,0
2060,1.6875,-1.5625,-0.4375,0
2080,1.4375,-2.3125,0.25,0
2100,1.3125,-3.25,0.8125,0
2120,1.6875,-3.3125,0.4375,0
2140,1.125,-3.1875,0.3125,0
2160,1.4375,-2.6875,0.25,0
2180,1.875,-2.5,-0.125,0
2200,2.4375,-2.0625,-0.9375,0
2220,1.375,-1.8125,-0.875,0
2240,0.6875,-1.75,-0.8125,0
2260,0.75,-1.1875,-1,0
2280,1.4375,-0.9375,-1.0625,0
2300,1.3125,-0.8125,-1.125,0
2320,1,-0.375,-1.0625,0
2340,0.4375,-0.1875,-0.75,0
2360,-0.5625,-0.1875,-0.5,0
2380,-1.0625,-0.1875,-0.125,0
2400,-1.375,-0.0625,-0.0625,0
2420,-1.375,0.625,0.125,0
2440,-1.625,0.5625,0.1875,0
2460,-1.875,1.125,0.125,0
2480,-2.375,3,-0.625,0
2500,-1.0625,6.1875,-3.3125,0
2520,2,8.4375,-8.75,0
2540,5.5625,8.5625,-10.4375,0
2560,5.1875,7.5625,-8.1875,0
2580,6.0625,6.4375,-7,0
2600,6.8125,5.625,-6.3125,0
2620,6.5625,5,-5.375,0
2640,3.875,4.5,-3.1875,0
2660,2.1875,3.125,-2.3125,0
2680,1.5,0.8125,-1.625,0
2700,0.9375,-0.6875,-1,0
2720,-0.1875,-1.75,0.375,0
2740,-1.0625,-2.875,1.9375,0
2760,-2,-3.9375,3.4375,0
2780,-2.1875,-4.625,4.0625,0
2800,-3,-4.3125,4.125,0
2820,-3.75,-4.375,4.25,0
2840,-3.375,-4,4.125,0
2860,-1.6875,-3.125,3.6875,0
2880,-1,-2.625,2.625,0
2900,-0.5,-2,2.1875,0
2920,-1.125,-1.125,1.3125,0
2940,0.0625,-0.8125,0.5,0
2960,0.8125,-0.8125,-0.0625,0
2980,1.0625,-0.5625,-0.5625,0
3000,1,0.1875,-0.9375,0
3020,0.9375,0.375,-0.5,0
3040,0.125,0.3125,0,0
3060,1.125,-0.25,-0.0625,0
3080,1.875,-1.125,-0.75,0
3100,2.375,-1.1875,-0.125,0
3110,2.25,-1.3125,0.5625,0
3130,0.8125,-1.4375,1,0
3150,0.125,-1.625,1.375,0
3170,0.0625,-1.5,1.5,0
3190,-0.25,-1.75,1.625,0
3210,-0.5625,-1.5,1.8125,0
3230,-1.6875,-1.5,1.75,0
3250,-2.5625,-1.375,2.1875,0
3270,-3.0625,-1.375,2.1875,0
3290,-3.3125,-1.625,2.0625,0
3310,-3.125,-2.0625,1.6875,0
3330,-2.5625,-1.3125,2,0
3350,-0.5625,-2,1.375,0
3370,-0.6875,-0.4375,-0.75,0
3390,-0.0625,0.25,0.5,0
3410,-0.75,0.3125,0.6875,0
3430,1.3125,0.625,-0.8125,0
3450,1.625,0.25,0.1875,0
3470,1.8125,0.625,-0.4375,0
3490,0.8125,0.25,-0.4375,0
3510,0.8125,0.0625,-0.5625,0
3530,1,0.25,-1,0
3550,0.375,0,-0.375,0
3570,0.0625,-0.3125,-0.25,0
3590,0.3125,-0.6875,0.25,0
3610,0.375,-1.1875,0.25,0
3630,0.6875,-0.9375,0.1875,0
3650,0.25,-1.0625,-0.5625,0
3670,0.5625,-0.25,-1.3125,0
3690,0.125,-0.375,-0.4375,0
3710,0.8125,-1.0625,-1.25,0
3730,2.4375,-0.5625,-1.375,0
3750,1.75,-0.125,-0.625,0
3770,1.125,0.4375,-0.5625,0
3790,0.3125,1.0625,-1.4375,0
3810,0.75,1.375,-1.8125,0
3830,0,0.8125,-1.1875,0
3850,-0.6875,1.25,-0.75,0
3870,-1.5,1.75,-0.5,0
3890,-2,1.0625,0.1875,0
3910,-1.875,0.375,0.5625,0
3930,-2.125,0.375,1,0
3950,-2.75,0.0625,1.25,0
3970,-2.9375,0.375,1.25,0
3990,-2.875,0.5,1.125,0
4010,-2.5625,0.6875,1.3125,0
4030,-2.5,0.125,1.0625,0
4050,-2.1875,0.4375,0.6875,0
4070,-2.5625,0.75,0.5,0
4090,-2.5,1,0.75,0
4110,-2.0625,0.6875,0.375,0
4130,-1.9375,0.75,-0.0625,0
4150,-1.625,0.625,-0.5625,0
4170,-0.875,1.25,-0.8125,0
4190,0,1.25,-1.125,0
4210,0.375,1.1875,-1.125,0
4230,0.375,0.4375,-1.125,0
4250,0.9375,-0.5,-0.75,0
4270,1.9375,-0.9375,-0.9375,0
4290,2.3125,-1.125,-0.875,0
4310,1.3125,-0.6875,-0.1875,0
4330,0.6875,-0.6875,0.125,0
4350,1,-0.9375,0.5,0
4370,0.9375,-1.0625,0.5,0
4390,1,-0.5,0.4375,0
4410,0.3125,-0.8125,0.4375,0
4430,0.6875,-1.0625,0.8125,0
4450,0.8125,-1,0.6875,0
4470,1.1875,-1,0.6875,0
4490,0.625,-0.6875,0.25,0
4510,0.5,-0.8125,0.375,0
4530,1.3125,-1.125,0,0
4550,1.625,-1.125,-0.375,0
4570,1.75,-0.625,-0.625,0
4590,1.5,-0.9375,-0.5,0
4610,1.5625,-1.25,-0.875,0
4630,2.0625,-1.25,-0.9375,0
4650,2.1875,-0.9375,-1.3125,0
4670,1.6875,-0.6875,-1.3125,0
4690,1.25,-0.125,-1.5,0
4710,0.9375,-0.4375,-1.25,0
4730,0.125,-0.8125,-0.6875,0
4750,0.1875,-0.9375,-0.5,0
4770,0.5625,-0.75,-0.5,0
4790,0.5625,-0.625,-0.25,0
4810,0,-0.4375,0.1875,0
4830,0,-1.0625,-0.0625,0
4850,0.5,-1.375,0.1875,0
4870,1.5,-1.5625,-0.1875,0
4890,2.125,-1.375,-0.5625,0
4910,2.9375,-2.6875,-0.5625,0
4930,5.1875,-2.75,-0.25,0
4950,6.3125,-2.0625,-0.6875,0
4970,6.375,-1.9375,-0.625,0
4990,4.6875,-1.125,-0.125,0
5010,3.375,-1.0625,0,0
5030,1.625,0,-0.4375,0
5050,-1,0.5,-0.5625,0
5070,-3.5625,0.0625,-0.25,0
5080,-4.125,0.6875,-1.0625,0
5100,-2.3125,0.5625,-2.125,0
5120,0.0625,-0.3125,-3.25,0
5140,2.5,-0.6875,-4.0625,0
5160,3.6875,-1,-2.9375,0
5180,4.0625,-0.3125,-2,0
5200,3,0.5625,-1.4375,0
5220,1.4375,0.125,-0.0625,0
5240,0.375,0.625,0.625,0
5260,-0.625,0.4375,0.5,0
5280,-1.6875,0.125,0.75,0
5300,-3.375,0.6875,1.0625,0
5320,-5.1875,1,2.25,0
5340,-5.3125,1.25,2.3125,0
5360,-4.75,0.875,2.4375,0
5380,-3.9375,0.5,2.4375,0
5400,-4.0625,0.375,2.1875,0
5420,-4.5625,0.6875,2,0
5440,-5.125,1,1.875,0
5460,-4.875,0.9375,1.5,0
5480,-3.6875,0.6875,1.125,0
5500,-2.9375,0.875,0.5625,0
5520,-2.375,0.75,0.375,0
5540,-1.625,0.5,0.125,0
5560,-0.9375,0.3125,0.25,0
5580,-0.75,0.3125,0.125,0
5600,-1.25,0.1875,0.0625,0
5620,-1.75,0.125,0.375,0
5640,-1.8125,-0.0625,0.5,0
5660,-1.8125,-0.1875,0.5625,0
5680,-1.4375,-0.125,0.5,0
5700,-1.625,0.1875,0.3125,0
5720,-0.875,-0.125,0.8125,0
5740,-0.8125,-0.1875,0.9375,0
5760,-0.0625,0,0.5625,0
5780,-0.3125,0,0.25,0
5800,0.375,-0.125,0.0625,0
5820,1,-0.1875,-0.375,0
5840,0.9375,0.125,-0.375,0
5860,0.25,0.1875,0.25,0
5880,-0.5,0.0625,0.3125,0
5900,-0.25,0.125,-0.125,0
5920,-0.0625,0.0625,-0.1875,0
5940,-0.25,0,-0.25,0
5960,-0.5625,0.5,-0.1875,0
5980,-1.125,0.625,0.0625,0
6000,-1.5,0.6875,0.25,0
6020,-1.5,0.5625,0.1875,0
6040,-1.75,0,0.3125,0
6060,-1.3125,0.1875,0.0625,0
6080,-1.125,0.0625,-0.25,0
6100,-0.0625,0,-0.5625,0
6120,0.5625,-0.125,-0.75,0
6140,1.25,-0.375,-1,0
6160,1.25,-0.4375,-1.1875,0
6180,1.0625,-0.5625,-1.375,0
6200,1.4375,-0.5625,-1.375,0
6220,1.4375,-0.4375,-1.375,0
6240,1.9375,-0.5,-1.4375,0
6260,2.1875,-0.3125,-1.5,0
6280,2.125,-0.5,-1.25,0
6300,2.0625,-0.6875,-1.3125,0
6320,2.125,-0.5625,-1.1875,0
6340,1.5625,-0.4375,-1,0
6360,1.25,-0.375,-0.9375,0
6380,0.875,-0.3125,-0.8125,0
6400,0.9375,-0.375,-0.875,0
6420,0.75,-0.3125,-0.875,0
6440,0.4375,-0.25,-0.6875,0
6460,0.125,-0.25,-0.5625,0
6480,0.9375,-0.3125,-0.6875,0
6500,0.875,-0.5625,-0.4375,0
6520,0.6875,-0.8125,-0.5,0
6540,0.6875,-1.5625,-0.375,0
6560,1.75,-0.6875,-1,0
6580,2.4375,-0.0625,-1.4375,0
6600,2.3125,-0.4375,-1.0625,0
6620,2.1875,-0.8125,-0.9375,0
6640,2.5,-0.6875,-0.6875,0
6660,1.5625,-0.8125,-0.5625,0
6680,1.3125,-0.75,-0.75,0
6700,1.125,-0.6875,-0.75,0
6720,1.0625,-0.75,-0.6875,0
6740,1.25,-0.4375,-0.6875,0
6760,1.25,-0.25,-0.75,0
6780,1.1875,0,-0.75,0
6800,0.875,-0.1875,-0.5625,0
6820,1.0625,-0.375,-0.5625,0
6840,0.75,0.0625,-0.5625,0
6860,0.5,-0.25,-0.375,0
6880,0.6875,-0.25,-0.625,0
6900,0.875,-0.3125,-0.5,0
6920,0.8125,-0.4375,-0.4375,0
6940,0.5,-0.375,-0.375,0
6960,0.4375,-0.1875,-0.5,0
6980,0.125,-0.125,-0.5,0
7000,0.125,-0.0625,-0.375,0
7020,0.3125,-0.1875,-0.5,0
7040,0.25,-0.1875,-0.3125,0
7060,0.0625,-0.25,-0.1875,0
7080,-0.0625,-0.0625,-0.125,0
7100,-0.5,0,0.0625,0
7120,-0.625,-0.0625,0.125,0
7140,-0.5625,0.125,-0.0625,0
7160,-0.4375,0.125,0,0
7180,-0.25,0.1875,-0.125,0
7200,-0.0625,0.1875,-0.1875,0
7220,-0.25,0.1875,-0.25,0
7240,-0.5,0.25,-0.4375,0
7260,-0.6875,0.125,-0.375,0
7280,-0.25,0.1875,-0.4375,0
7300,-0.5,0.0625,-0.0625,0
7320,-1,0.3125,-0.1875,0
7340,-0.9375,0.25,-0.125,0
7360,-0.0625,0,-0.1875,0
7380,0.1875,0.0625,-0.375,0
7400,0.0625,0.375,-0.25,0
7420,-0.5625,0.1875,0,0
7440,-1,0.0625,0.3125,0
7460,-1.25,0.125,0.375,0
7480,-1.3125,-0.125,0.3125,0
7500,-0.9375,0.1875,0.1875,0
7520,-1,0.3125,0.3125,0
7540,-0.875,0.3125,0.1875,0
7560,-0.6875,0.375,-0.0625,0
7580,-0.75,0.375,0.1875,0
7600,-0.9375,0,0.3125,0
7620,-0.375,0.1875,0.375,0
7640,-0.5,0.125,0.4375,0
7660,-1.5,0.25,0.8125,0
7680,-2.1875,0.625,0.6875,0
7700,-2.1875,0.75,1,0
7720,-1.5625,0.625,0.8125,0
7740,-1.0625,0.875,0.125,0
7760,-1.5625,1,-0.3125,0
7780,-2.125,0.4375,0,0
7800,-1,-0.3125,0,0
7820,0.5625,-0.6875,-0.1875,0
7840,1.5,-0.6875,-0.375,0
7860,1.75,-0.5625,-0.5625,0
7880,1.25,-0.1875,-0.4375,0
7900,0.5,0.375,-0.3125,0
7920,-0.625,1,-0.0625,0
7940,-2.6875,1.625,0.6875,0
7960,-4.125,1.625,0.9375,0
7980,-4.125,1.3125,0.8125,0
8000,-3.9375,1.1875,0.625,0
8020,-3.4375,0.75,0.9375,0
8040,-2.75,0.5625,0.9375,0
8060,-2.125,0.3125,0.5625,0
8080,-2,-0.125,0.9375,0
8100,-1.375,0,0.8125,0
8120,-1.5,0.1875,0.3125,0
8140,-2.6875,0.75,0,0
8160,-3.0625,0.3125,-0.125,0
8180,-1.8125,0.1875,-0.25,0
8200,-0.125,0,-0.8125,0
8220,0.5625,0.125,-1.25,0
8240,0.625,0.1875,-0.6875,0
8260,0.0625,0.0625,-0.375,0
8280,-0.375,0,-0.4375,0
8300,-0.875,0.125,-0.8125,0
8320,-1.1875,0,-0.75,0
8340,-1.5625,0.5,-0.4375,0
8360,-1.4375,0.875,-0.1875,0
8380,-1.125,0.4375,-0.1875,0
8400,-0.5,0.3125,-0.125,0
8420,-0.25,-0.25,0.0625,0
8440,0.25,-0.375,-0.25,0
8460,0.3125,-0.125,-0.1875,0
8480,-0.3125,-0.0625,0.25,0
8500,-1.375,0.4375,-0.125,0
8510,-2.3125,0.625,0.0625,0
8530,-3.0625,0.5625,0,0
8550,-3.125,0.5625,0,0
8570,-2.5,0.5,-0.25,0
8590,-1.5625,0.375,-0.4375,0
8610,-0.6875,0.4375,-0.375,0
8630,0.0625,0.25,-0.4375,0
8650,1.4375,-0.1875,-0.875,0
8670,2.4375,-0.5,-1.25,0
8690,2.8125,-0.75,-1.375,0
8710,2.8125,-0.8125,-1.0625,0
8730,3.0625,-0.875,-1.0625,0
8750,3.125,-0.8125,-1.25,0
8770,3.3125,-0.875,-1.3125,0
8790,3.0625,-1,-1.25,0
8810,2.6875,-1.0625,-1.25,0
8830,2.625,-1,-1.125,0
8850,2.8125,-1.0625,-1.125,0
8870,2.8125,-1.0625,-1.1875,0
8890,3.0625,-1.1875,-1.4375,0
8910,3.625,-1.4375,-1.25,0
8930,3.9375,-1.6875,-0.8125,0
8950,3.4375,-1.5,-0.6875,0
8970,3,-1.6875,-0.375,0
8990,2.75,-1.75,-0.375,0
9010,2.6875,-1.625,-0.3125,0
9030,2,-1.0625,-0.125,0
9050,1.1875,-0.6875,0,0
9070,0.125,-0.4375,0.5,0
9090,-0.75,-0.1875,0.5,0
9110,-0.125,-0.4375,0.625,0
9130,0.0625,-0.8125,0.4375,0
9150,0.625,-0.625,0.1875,0
9170,0.75,-0.75,0,0
9190,1.1875,-0.5,-0.1875,0
9210,1.375,-0.375,-0.1875,0
9230,1.0625,-0.1875,-0.375,0
9250,0.625,0,-0.5,0
9270,0.3125,0.375,-0.5,0
9290,0.25,0.375,-0.4375,0
9310,0.125,0.375,-0.375,0
9330,0.4375,0.1875,-0.4375,0
9350,0.4375,0.25,-0.25,0
9370,0.0625,0.125,-0.1875,0
9390,0.0625,0.1875,-0.125,0
9410,0.0625,0.1875,0,0
9430,-0.5,0.0625,0.1875,0
9450,-0.8125,0.1875,0.375,0
9470,-1.1875,0.1875,0.5625,0
9490,-1.375,0.5625,0.8125,0
9510,-2,0.4375,1,0
9530,-2.6875,0.625,1.3125,0
9550,-3.125,1,1.125,0
9570,-3.625,1.375,1.3125,0
9590,-4.125,1.25,1.5,0
9610,-4.25,1.625,1.25,0
9630,-4.25,1.375,1.3125,0
9650,-3.9375,1.4375,1.3125,0
9670,-3.5625,1.375,1.1875,0
9690,-3.375,1.4375,1.125,0
9710,-3.375,1.125,1.1875,0
9730,-2.8125,0.9375,0.5625,0
9750,-2.125,0.6875,0.3125,0
9770,-1,0.5625,-0.1875,0
9790,0.125,0.8125,-0.375,0
9810,0.375,0.9375,-0.1875,0
9830,-0.3125,0.5,-0.0625,0
9850,-1.5,0.5625,0.3125,0
9870,-1.9375,0.625,0.1875,0
9890,-2.1875,0.75,0.0625,0
9910,-2.5,0.875,0.3125,0
9930,-2.9375,1.0625,0.3125,0
9950,-3,1.5,0.4375,0
9970,-3.0625,1.3125,0.6875,0
9990,-2.875,1.125,0.625,0
10010,-2.5625,0.5625,0.4375,0
10030,-2.75,0.6875,0.5625,0
10050,-2.3125,0.3125,0.4375,0
10070,-0.875,0.125,0.1875,0
10090,0.9375,-0.25,-0.125,0
10110,2.1875,-0.125,-0.8125,0
10130,2.4375,-0.25,-1.125,0
10150,3.125,-0.625,-1.3125,0
10170,3.875,-1.0625,-1.3125,0
10190,3.3125,-1.5,-0.9375,0
10210,2.625,-2.0625,-0.25,0
10230,2.5,-2.1875,-0.125,0
10250,2.5,-2.0625,-0.125,0
10270,1.9375,-1.875,-0.3125,0
10290,1.125,-1.3125,-0.4375,0
10310,0.6875,-0.625,-0.5625,0
10330,0.625,0,-1.0625,0
10350,0.75,0.25,-1.3125,0
10370,1.3125,0.0625,-1.625,0
10390,1.6875,-0.125,-1.9375,0
10410,2,-0.1875,-2.0625,0
10430,2.3125,-0.125,-1.875,0
10450,2.5,-0.4375,-1.875,0
10470,2.3125,-0.3125,-2.125,0
10490,2.1875,-0.4375,-2.3125,0
10500,1.875,-0.125,-2,0
10520,2.1875,-0.25,-1.5625,0
10540,2.0625,-0.1875,-1.3125,0
10560,1.375,-0.3125,-0.875,0
10580,0.3125,-0.25,-0.375,0
10600,-0.4375,-0.25,-0.0625,0
10620,-0.4375,-0.4375,0.25,0
10640,-0.5,-0.5,0.25,0
10660,-0.0625,-0.4375,0.125,0
10680,0.25,-0.4375,-0.125,0
10700,0.9375,-0.3125,-0.25,0
10720,1.375,-0.4375,-0.5625,0
10740,1.5,-0.625,-0.5625,0
10760,1.6875,-0.5,-0.8125,0
10780,1.75,-0.4375,-0.875,0
10800,1.4375,-0.25,-0.8125,0
10820,1.125,0.0625,-0.75,0
10840,0.6875,-0.1875,-0.375,0
10860,0.0625,-0.125,-0.3125,0
10880,-0.875,0.375,-0.375,0
10900,-1.375,0.375,0.0625,0
10920,-1.5,0.0625,0,0
10940,-0.875,0,-0.25,0
10960,0,0.0625,-0.375,0
10980,0.5,-0.125,-0.4375,0
11000,1.25,-0.5,-0.5,0
11020,1.6875,-0.6875,-0.5,0
11040,1.5,-0.625,-0.3125,0
11060,1.125,-0.5625,-0.1875,0
11080,1,-0.4375,-0.1875,0
11100,0.75,-0.4375,-0.125,0
11120,0.25,-0.25,-0.0625,0
11140,-0.1875,-0.0625,-0.3125,0
11160,0,0,-0.5625,0
11180,0.125,0.25,-0.375,0
11200,-0.1875,0.25,-0.5,0
11220,-0.375,0.25,-0.5625,0
11240,0.1875,0.125,-0.9375,0
11260,0.6875,-0.1875,-1.125,0
11280,1.4375,-0.25,-0.875,0
11300,0.6875,0.0625,-0.75,0
11320,0.0625,-0.1875,-0.125,0
11340,-0.5,-0.0625,-0.0625,0
11360,-0.25,-0.1875,-0.25,0
11380,0.0625,-0.25,-0.1875,0
11400,0.3125,-0.3125,0,0
11420,0.5,-0.375,-0.1875,0
11440,0.625,0,-0.25,0
11460,0.25,0,-0.0625,0
11480,-0.5,0,0.125,0
11500,-0.5625,-0.125,0.125,0
11520,-0.4375,0,0.0625,0
11540,-0.3125,0.25,-0.125,0
11560,-0.1875,0.125,-0.625,0
11580,0.5,-0.1875,-0.75,0
11600,1,-0.25,-0.9375,0
11620,0.75,-0.125,-0.875,0
11640,0.3125,0.0625,-0.875,0
11660,0.0625,0.0625,-0.5625,0
11680,0.1875,0.1875,-0.375,0
11700,0.0625,0.25,-0.25,0
11720,-0.0625,0.0625,-0.125,0
11740,-0.0625,0.0625,0.0625,0
11760,-0.1875,0.0625,0.1875,0
11780,-0.625,0.0625,0.5,0
11800,-0.875,0.0625,0.5625,0
11820,-0.75,0.1875,0.625,0
11840,-0.6875,0.125,0.375,0
11860,-0.375,0.0625,0.25,0
11880,-0.1875,0.0625,0.0625,0
11900,0,0.1875,0,0
11920,-0.375,0.125,0,0
11940,-0.4375,0.3125,0,0
11960,-0.3125,0.1875,0.0625,0
11980,-0.5,0.25,-0.0625,0
12000,-0.5625,0.1875,-0.0625,0
12020,0.1875,0.25,-0.4375,0
12040,0.75,0,-0.25,0
12060,0.75,0.1875,0.0625,0
12080,0.125,0.1875,0.125,0
12100,-0.75,0.25,0.625,0
12120,-1.5,0.1875,0.875,0
12140,-1.625,0,0.75,0
12160,-1.3125,0.0625,0.6875,0
12180,-1.4375,0.125,0.625,0
12200,-1.1875,0.3125,0.625,0
12220,-1.4375,0.5,0.8125,0
12240,-1.625,0.5625,0.875,0
12260,-2.3125,0.5,1.0625,0
12280,-2.3125,0.3125,0.875,0
12300,-2.1875,0.625,0.5,0
12320,-1.8125,0.4375,0.4375,0
12340,-1,0.4375,0.125,0
12360,-0.1875,0.1875,0,0
12380,0.25,0.1875,-0.0625,0
12400,0,0.1875,-0.25,0
12420,-0.375,0.5,-0.3125,0
12440,-0.1875,0.5625,-0.375,0
12460,-0.125,0.375,-0.3125,0
12480,-0.1875,0.3125,0.0625,0
12500,-0.3125,0.375,0.125,0
12520,-0.625,0.375,0.25,0
12540,-1.125,0.375,0.4375,0
12560,-1.25,0.125,0.625,0
12580,-1.5,0.25,0.4375,0
12600,-1.5,0.375,0.5,0
12620,-1.375,0.375,0.4375,0
12640,-1,0.25,0.3125,0
12660,-0.6875,0.125,0,0
12680,0,0,-0.0625,0
12700,0.0625,-0.3125,-0.125,0
12720,0,-0.1875,-0.4375,0
12740,0.0625,-0.125,-0.5625,0
12760,1,-0.125,-1.1875,0
12780,1.5,-0.125,-1.25,0
12800,2.125,-0.0625,-1.1875,0
12820,1.375,-0.125,-1,0
12840,0.75,-0.25,-0.6875,0
12860,0.1875,-0.3125,-0.75,0
12880,0.75,-0.5,-1,0
12900,0.875,-0.5625,-0.8125,0
12920,0.875,-0.3125,-0.8125,0
12940,0.6875,-0.125,-0.75,0
12960,0.75,-0.125,-0.8125,0
12980,0.625,-0.25,-0.5625,0
13000,0.25,-0.375,-0.125,0
13020,-0.0625,-0.3125,-0.25,0
13040,-0.1875,-0.0625,-0.1875,0
13060,-0.1875,-0.25,-0.1875,0
13080,0.0625,-0.125,-0.375,0
13100,0.375,0,-0.4375,0
13120,0.1875,-0.0625,-0.5,0
13140,-0.25,0.125,-0.6875,0
13160,-0.3125,0.3125,-0.75,0
13180,-0.4375,0.25,-0.6875,0
13200,-0.625,0.3125,-0.5,0
13220,-0.75,0.375,-0.1875,0
13240,-0.75,0.3125,-0.25,0
13260,-0.8125,0.3125,-0.125,0
13280,-1.125,0.375,0,0
13300,-1.4375,0.125,0.25,0
13320,-1,0,0.3125,0
13340,-0.25,0,0,0
13360,0.5,-0.4375,-0.1875,0
13380,1.3125,-0.4375,-0.3125,0
13400,1.5625,-0.625,-0.125,0
13420,1.4375,-0.5,-0.1875,0
13440,1.125,-0.5,-0.3125,0
13460,0.875,-0.5625,-0.5,0
13480,1.3125,-0.625,-0.8125,0
13500,1.625,-0.75,-0.9375,0
13520,1.4375,-0.375,-1.25,0
13540,1.6875,-0.1875,-1.4375,0
13560,2.25,0,-1.6875,0
13580,2.4375,0.0625,-1.625,0
13600,2.3125,0.25,-1.375,0
13620,1.0625,0.0625,-0.875,0
13640,0.3125,-0.0625,-0.3125,0
13660,-0.125,-0.1875,0.0625,0
13680,0.0625,-0.5,0,0
13700,0.375,-0.8125,0.125,0
13720,0.75,-0.6875,-0.125,0
13740,1.125,-0.75,-0.125,0
13760,1.5625,-0.75,-0.1875,0
13780,1.75,-0.8125,-0.3125,0
13800,1.375,-0.875,-0.1875,0
13820,1.6875,-1,-0.3125,0
13840,1.625,-0.8125,-0.5,0
13860,1.875,-0.8125,-0.625,0
13880,1.6875,-0.6875,-0.875,0
13890,1.9375,-0.4375,-1.125,0
13910,1.875,-0.1875,-1.125,0
13930,1.375,-0.1875,-1.1875,0
13950,0.9375,0,-1.25,0
13970,0.875,0.1875,-1.25,0
13990,0.9375,0.125,-1.25,0
14010,1.125,-0.0625,-1.0625,0
14030,0.9375,0,-0.875,0
14050,0.4375,0.0625,-0.5,0
14070,0,0,-0.25,0
14090,-0.4375,-0.0625,0,0
14110,-0.6875,-0.125,0.125,0
14130,-0.6875,-0.25,0.1875,0
14150,-0.75,-0.3125,0.3125,0
14170,-0.625,0,0.25,0
14190,-0.6875,0,0.25,0
14210,-0.625,0,0.125,0
14230,-0.6875,0.375,0,0
14250,-1,0.3125,-0.0625,0
14270,-1,0.0625,-0.0625,0
14290,-0.5625,0.375,-0.1875,0
14310,-0.8125,0.4375,-0.5,0
14330,-1.125,0.5625,-0.375,0
14350,-0.75,0.5625,-0.6875,0
14370,0,0.4375,-0.9375,0
14390,0.25,0.625,-0.9375,0
14410,-0.25,0.75,-0.6875,0
14430,-0.6875,0.6875,-0.25,0
14450,-1.4375,0.5,0.0625,0
14470,-1.5,0.375,0.25,0
14490,-1.0625,0.0625,0.125,0
14510,-0.4375,-0.3125,0.125,0
14530,0.125,0,0,0
14550,0.125,0.3125,0.25,0
14570,0.0625,0.4375,0.5,0
14590,-0.9375,0.875,0.75,0
14610,-1.4375,0.6875,1.125,0
14630,-2.375,0.75,1.3125,0
14650,-3.0625,0.8125,1.3125,0
14670,-3.5625,0.625,1.625,0
14690,-3.25,0.5625,1.3125,0
14710,-2.625,0.625,0.875,0
14730,-2.5625,0.75,0.625,0
14750,-2.375,1,0.25,0
14770,-1.375,0.9375,-0.1875,0
14790,-0.125,0.8125,-0.5625,0
14810,0.4375,0.6875,-0.625,0
14830,0.5625,0.75,-0.75,0
14850,0.3125,0.4375,-0.3125,0
14870,0.0625,0.5,0,0
14890,-0.4375,0.3125,0.25,0
14910,-1,0.25,0.625,0
14930,-1.3125,0,0.8125,0
14950,-1.3125,-0.125,1,0
14970,-1.3125,0,1,0
14990,-1.125,0,1.125,0
15010,-1,0.0625,0.9375,0
15030,-0.875,0.1875,0.8125,0
15050,-0.75,0.1875,0.5625,0
15070,-0.6875,-0.0625,0.625,0
15090,-0.25,0.25,0.4375,0
15110,-0.25,-0.0625,0.5625,0
15130,-0.5,0.1875,0.3125,0
15150,-0.5,0.125,0.1875,0
15170,0.25,0.125,-0.25,0
15190,1,0,-0.5625,0
15210,1.3125,0.125,-0.5,0
15230,0.5,-0.0625,-0.125,0
15250,-0.25,0.125,0.1875,0
15270,-0.25,0.0625,0.1875,0
15290,0.0625,-0.4375,0.125,0
15310,0.25,-0.375,0.125,0
15330,0.375,-0.1875,0.25,0
15350,0.25,-0.125,0.3125,0
15370,0.125,-0.0625,0.375,0
15390,-0.25,-0.125,0.4375,0
15410,-0.5625,-0.4375,0.5,0
15430,-0.6875,-0.25,0.375,0
15450,-0.3125,-0.25,0.125,0
15470,0.625,-0.3125,-0.25,0
15490,1.0625,-0.4375,-0.5,0
15510,1.3125,-0.3125,-0.875,0
15530,1,-0.1875,-1.0625,0
15550,0.75,-0.125,-1.125,0
15570,0.6875,0,-1.1875,0
15590,0.625,-0.0625,-1.25,0
15610,0.4375,0.0625,-1.125,0
15630,0.5625,0.125,-1,0
15650,0.8125,-0.125,-1,0
15670,0.75,-0.1875,-0.875,0
15690,0.25,-0.25,-0.375,0
15710,-0.3125,-0.1875,-0.25,0
15730,-0.75,-0.0625,-0.0625,0
15750,-0.8125,0,-0.1875,0
15770,-0.75,0.1875,-0.375,0
15790,-0.75,0.125,-0.5,0
15810,-0.1875,0.1875,-0.8125,0
15830,0.375,0.1875,-1,0
15850,0.625,0.0625,-1.125,0
15870,0.6875,0.125,-1.4375,0
15880,1.125,-0.0625,-1.875,0
15900,2.5,-0.4375,-2.1875,0
15920,3.75,-0.625,-2.4375,0
15940,5.1875,-0.9375,-2.5625,0
15960,5.125,-1.125,-2.1875,0
15980,4.5625,-1.0625,-1.5,0
16000,3.1875,-0.8125,-0.9375,0
16020,2.1875,-0.8125,-0.6875,0
16040,1.5,-0.875,-0.0625,0
16060,0.5,-0.625,0.25,0
16080,-0.25,-0.1875,0.3125,0
16100,-0.5,0,0.5,0
16120,-0.1875,-0.0625,0.5,0
16140,-0.125,-0.25,0.1875,0
16160,0.3125,-0.0625,-0.4375,0
16180,0.5625,-0.125,-0.75,0
16200,1.4375,-0.4375,-0.9375,0
16220,2.375,-0.625,-1.1875,0
16240,3.1875,-0.8125,-1.375,0
16260,3.5,-0.875,-1.375,0
16280,3.375,-1,-1.4375,0
16300,3,-0.8125,-1.375,0
16320,2.6875,-0.5625,-1.1875,0
16340,2,-0.1875,-1,0
16360,0.5,0.4375,-0.5625,0
16380,-0.5,0.5625,0.1875,0
16400,-0.9375,0.6875,0.375,0
16420,-1.3125,0.5625,0.625,0
16440,-1.5625,0.375,0.75,0
16460,-1.25,0,0.625,0
16480,-0.375,-0.0625,0.4375,0
16500,0.4375,-0.375,0.125,0
16520,0.75,-0.4375,0.1875,0
16540,0.9375,-0.4375,0.125,0
16560,0.9375,-0.5625,-0.1875,0
16580,0.75,-0.5,-0.625,0
16600,1,-0.25,-1,0
16620,0.875,-0.25,-1.0625,0
16640,0.5,-0.0625,-1.0625,0
16660,0.4375,0.0625,-1.25,0
16680,1.1875,-0.125,-1.625,0
16700,2,-0.375,-1.375,0
16720,2.625,-0.3125,-1.25,0
16740,2.5625,-0.3125,-0.75,0
16760,1.75,-0.1875,-0.3125,0
16780,1.25,0.1875,-0.125,0
16800,0.625,0.125,-0.125,0
16820,0.25,0.6875,0.0625,0
16840,0.3125,0.9375,-0.0625,0
16860,0.875,1.6875,0,0
16880,0.8125,1.6875,0.1875,0
16900,0.375,1.875,0.4375,0
16920,-1,1.875,1.4375,0
16940,-1.375,3.8125,0.8125,0
16960,2.6875,4,-0.625,0
16980,2.9375,1.3125,1.3125,0
17000,3.125,0.5,1.8125,0
17020,2.4375,-0.25,1.6875,0
17040,-1.3125,-2,2.4375,0
17060,-2.0625,-2.125,1.6875,0
17080,-3,-3.375,1.4375,0
17100,-4.1875,-1.25,1.6875,0
17120,-6.125,0.4375,4.625,0
17140,-8.125,1.1875,4.125,0
17160,-12.625,1.3125,2.8125,0
17180,-12.5,1.9375,2.1875,0
17200,-11.625,1.75,3,0
17220,-12.9375,3.5625,3.5625,0
17240,-12.125,4.4375,3.625,0
17260,-9.6875,4.625,2,0
17280,-6.25,3.125,0.125,0
17300,-5.75,4.125,-1.9375,0
17320,-4.9375,3.125,-2.8125,0
17340,-4.3125,4.75,-1.25,0
17360,-2.75,2.5,-3.75,0
17380,-0.0625,3.75,-5.5625,0
17400,-4,3,-4.875,0
17420,-8,2.25,-4.3125,0
17440,-6.125,1.75,-6.625,0
17460,-3.3125,0.8125,-10.375,0
17480,-1.25,-1.9375,-15.25,0
17500,0.0625,-5.4375,-20.1875,0
17520,3.625,-6.125,-23.6875,0
17540,7.1875,-6.3125,-29.5625,0
17560,8.5,-5.9375,-32.5625,0
17580,10.375,-8.25,-36.75,0
17600,13.125,-10.0625,-39.25,0
17620,14.8125,-10.75,-42.3125,0
17640,15.4375,-11,-44.6875,0
17660,15.0625,-10.5625,-47.1875,0
17680,14.625,-9.9375,-48.25,0
17700,11.9375,-8,-47.6875,0
17720,9.9375,-6.6875,-46.5,0
17740,9.9375,-7,-45.4375,0
17760,10.4375,-5.375,-43.4375,0
17780,9.1875,-3.625,-40.375,0
17800,4.0625,-2.9375,-36.3125,0
17820,0.25,-2.4375,-32.9375,0
17840,-4.4375,-2.1875,-29.4375,0
17860,-6.5,-1.75,-25.25,0
17880,-7.5625,-2.25,-21.1875,0
17900,-8.625,-5,-16.875,0
17920,-9.125,-6.6875,-14.9375,0
17940,-9.875,-8.625,-13.5625,0
17960,-11,-11,-13.25,0
17980,-10.875,-14.375,-12.8125,0
18000,-16.875,-17.0625,-10.6875,0
18020,-21.9375,-19.9375,-10.6875,0
18040,-23.6875,-23.1875,-13.25,0
18060,-23.5625,-25.5625,-14.8125,0
18080,-21.0625,-25.9375,-15.3125,0
18100,-18.0625,-24.375,-17.5,0
18120,-9,-24.0625,-21.625,0
18140,-2.8125,-21.5,-22.1875,0
18160,2.75,-17.125,-23.0625,0
18180,7.6875,-12.5,-21.6875,0
18200,13.0625,-7.1875,-19.1875,0
18220,16.875,-3.375,-18.1875,0
18240,17.9375,-0.8125,-16.9375,0
18260,17.5625,2.1875,-18.5,0
18280,17.625,3.6875,-20.5,0
18300,17.375,3.4375,-21.375,0
18320,16,1,-23.5625,0
18340,15.9375,-0.4375,-26.3125,0
18360,15.8125,-1.125,-29,0
18380,14.125,-1.375,-31.4375,0
18400,12.9375,-2.125,-31,0
18420,12.5625,-2.375,-29.4375,0
18440,13.5,-2.4375,-26.5625,0
18460,8.5625,-3.125,-23.0625,0
18480,2.875,-1.8125,-21.625,0
18500,-3.5,-1.6875,-21.8125,0
18520,-6.8125,-5.125,-20.125,0
18540,-7.0625,-9.1875,-20.125,0
18560,-5.5625,-13.875,-20.4375,0
18580,-5,-17.1875,-21.875,0
18600,-2.8125,-20.625,-25.0625,0
18620,-5.5625,-23.625,-24,0
18640,-7.375,-27.0625,-23.8125,0
18660,-4.0625,-31.1875,-23.25,0
18680,-6.5,-34.25,-22.8125,0
18700,-9.5,-33.25,-23,0
18720,-8.25,-33.8125,-21.9375,0
18740,-4.25,-35.9375,-23.5625,0
18760,-4.375,-33.5625,-24.375,0
18780,-1.875,-29.4375,-26,0
18800,-3,-27.75,-24.6875,0
18820,0.1875,-28.625,-21.75,0
18840,0.1875,-26.25,-18.8125,0
18860,-1.375,-24.75,-18.125,0
18880,-1.25,-24.6875,-17.0625,0
18900,-2.1875,-25.5,-15.5,0
18920,-1.3125,-26.9375,-16,0
18940,-0.875,-25.9375,-16.75,0
18960,-2.0625,-25,-15.6875,0
18980,-1.75,-24.25,-16,0
19000,-1.5,-24.8125,-17.375,0
19020,0.9375,-23.6875,-18.625,0
19040,1.625,-21.3125,-17.4375,0
19060,1.875,-20.5625,-15.25,0
19080,1.5,-20.375,-12.5625,0
19100,0.8125,-20,-10.375,0
19120,0.4375,-18.8125,-6.8125,0
19140,1.5,-18.8125,-2.625,0
19160,1.5625,-20.4375,2.8125,0
19180,2.9375,-23.6875,8.75,0
19200,6,-27.875,13.125,0
19220,7.125,-30.8125,16.625,0
19240,7.25,-34.25,18.9375,0
19260,8.1875,-37.25,22.5625,0
19270,8.6875,-39.875,26,0
19290,8.375,-41.1875,27.5625,0
19310,10.375,-41.125,26.625,0
19330,9.75,-40.1875,24.9375,0
19350,8.375,-39.5625,23.4375,0
19370,10.375,-40.25,23.0625,0
19390,11,-38.4375,22.4375,0
19410,10.75,-35,22.4375,0
19430,8.75,-30.4375,23.375,0
19450,5.3125,-25.4375,24.6875,0
19470,4.9375,-21.4375,24.375,0
19490,3.25,-17.6875,23.1875,0
19510,1.5,-14.9375,22.4375,0
19530,0.625,-12.0625,20.0625,0
19550,-0.1875,-9.8125,16.5625,0
19570,-1,-6.375,13.875,0
19590,-1.8125,-3.375,11.4375,0
19610,-2.875,-1.875,10.125,0
19630,-2.75,-0.9375,10.8125,0
19650,-3.625,-0.8125,10,0
19670,-3.25,-1.4375,8.5,0
19690,-3.625,-3.125,6.3125,0
19710,-3.0625,-4.5,4.9375,0
19730,-2.8125,-5.5,5.8125,0
19750,-2.75,-6,6.1875,0
19770,-2.875,-6.625,4.25,0
19790,-2,-4.3125,2.625,0
19810,-2.3125,-4.25,2.125,0
19830,-2.0625,-3.75,-0.0625,0
19850,-2,-2.25,-0.875,0
19870,-2.3125,-0.5,-1.0625,0
19890,-3.9375,1.375,-1.3125,0
19910,-3.9375,3.0625,-1.5625,0
19930,-2,3.4375,0.6875,0
19950,-1.5,3.625,2.3125,0
19970,2.6875,2.1875,2.625,0
19990,2.6875,1.25,0.625,0
20010,3.6875,0.5625,-2.3125,0
20030,4.4375,0.875,-4.25,0
20050,3.9375,1.5,-5.875,0
20070,2,2.8125,-5.75,0
20090,2,4.1875,-6,0
20110,2.4375,5.875,-5.25,0
20130,2.25,8.1875,-3.3125,0
20150,1.75,9,-1.0625,0
20170,0.5,9.6875,1.25,0
20190,-0.1875,10.25,3.5625,0
20210,-0.0625,10,6.25,0
20230,0.0625,9.4375,8.375,0
20250,1.8125,8.25,9.4375,0
20270,2.625,5.625,10.5,0
20290,4.625,3.125,11.9375,0
20310,3.6875,2.25,14.5625,0
20330,3.0625,0.625,17.625,0
20350,-0.75,-0.5,20.25,0
20370,-4.25,0.375,23.0625,0
20390,-7.625,2.0625,27.3125,0
20410,-12.625,4.875,33.0625,0
20430,-15.5625,5.5,36.375,0
20450,-17.3125,2.75,36.5625,0
20470,-16.125,-0.4375,34.25,0
20490,-13.75,-3.1875,26.875,0
20510,-10.5625,-6.0625,20.5625,0
20530,-6.125,-9.375,17.1875,0
20550,-2.375,-12.375,15.3125,0
20570,-0.875,-13,12.625,0
20590,0,-13.375,6,0
20610,0,-12.375,5.25,0
20630,0.1875,-10.125,3.3125,0
20650,1.25,-9.0625,3,0
20690,0.75,-3.5625,3.875,0
20710,-3.625,3.375,6.75,0
20730,-6.25,6.8125,8.75,0
20750,-6.625,5.8125,14.0625,0
20770,-6.875,6.5625,15,0
20790,-8.1875,9.375,14.25,0
20810,-11.3125,8.6875,14.5,0
20830,-9.375,6.0625,15.25,0
20850,-6.125,2.6875,13.5625,0
20870,-6.375,2.625,10.625,0
20890,-6.3125,0.1875,6,0
20910,-5.0625,-2.5,6.5,0
20930,-0.375,-7.5,6.1875,0
20950,2.4375,-9,5.0625,0
20970,1.9375,-8.75,2.0625,0
20990,1.125,-8.5,-0.3125,0
21010,-0.4375,-9,-1.25,0
21030,2.625,-10.6875,-1.25,0
21050,6,-11.75,-1,0
21070,4.0625,-11,-2.625,0
21090,1.1875,-7.875,-4.1875,0
21110,2.0625,-6.8125,-5.5,0
21130,1.4375,-5.375,-4,0
21150,-1.25,-4.8125,-3,0
21170,-2.25,-1.1875,-3.3125,0
21190,-0.0625,-1.6875,-2.375,0
21210,-0.625,-1,-0.625,0
21230,0,-1.25,-1.9375,0
21250,-0.875,-1.0625,-3,0
21260,-1.1875,-0.875,-3.5625,0
21280,-1.1875,-0.5,-3.625,0
21300,-1.375,0.5,-3.3125,0
21320,-1.625,0.3125,-2.875,0
21340,-1.875,1.25,-4.1875,0
21360,-2.1875,1.4375,-4.375,0
21380,-0.25,4.8125,-2.9375,0
21400,1.5,6.1875,-2.1875,0
21420,-0.25,6.0625,-0.1875,0
21440,-2.75,6.375,0.5,0
21460,-1.9375,8.1875,-0.375,0
21480,-0.125,7.25,-0.3125,0
21500,-0.5,5.8125,-0.25,0
21520,-3.25,4.8125,0,0
21540,-2.9375,6.875,0.6875,0
21560,-2.5625,5.875,2.875,0
21580,-4.25,4.8125,6,0
21600,-4.4375,5.75,5.9375,0
21620,-5.0625,5.125,7.125,0
21640,-5.3125,2.25,7.8125,0
21660,-3.75,0.1875,5,0
21680,-2.125,-2.8125,3.5625,0
21700,-1,-3.625,2.25,0
21720,-2.9375,-5.5,3.1875,0
21740,-2.5625,-5.9375,4.6875,0
21760,-2.4375,-6.125,4.3125,0
21780,-2.1875,-3.125,3.4375,0
21800,0.125,-1,2.6875,0
21820,3,0,2.125,0
21840,5.25,0.5,2.625,0
21860,7.0625,0.4375,2.875,0
21880,6.3125,1.25,2.1875,0
21900,3.25,1.125,4.3125,0
21920,4.25,-0.1875,5.375,0
21940,2.3125,-1.875,1.5625,2000
21960,2.1875,-0.875,-0.3125,0
21980,1.6875,0.1875,0.5,0
22000,2.5625,-1.1875,1.5,0
22020,-0.3125,-2.4375,1,0
22040,-3.1875,-3.0625,0.6875,0
22060,-2.75,-3.8125,0.5625,0
22080,-3.5625,-2.9375,2.3125,0
22100,-4.3125,-2.625,3.375,0
22120,-4.1875,-2.5625,2.5,0
22140,-2.875,-1.625,2.8125,0
22160,-2,-2.0625,3.0625,0
22180,-0.5,-2.8125,2.6875,0
22200,0.25,-3.875,2.5,0
22220,0.9375,-3.5625,1.9375,0
22240,1.75,-3,2.125,0
22260,1.3125,-3.8125,3,0
22280,1.5,-3.875,2.6875,0
22300,1.9375,-3.5,2.25,0
22320,2.9375,-3.375,1.75,0
22340,2.75,-3.375,2.75,0
22360,3.75,-4.5,2.25,0
22380,4.3125,-3.8125,1.625,0
22400,3.25,-3.9375,1.5625,0
22420,1.75,-4.625,0.25,0
22440,1.75,-5.375,-0.375,0
22460,1.625,-5.3125,0.625,0
22480,1.1875,-6.0625,0.75,0
22500,1.5625,-6.25,0.0625,0
22520,0.8125,-7,0.1875,0
22540,-0.4375,-7.0625,0.875,0
22560,-2.25,-6.4375,1.8125,0
22580,-2.5625,-6.375,1,0
22600,-0.3125,-5,0.5,0
22620,0.8125,-5.3125,0.25,0
22640,-0.5,-6,-0.1875,0
22660,-1.75,-5.75,-2,0
22680,-1.75,-5.375,-2.25,0
22700,-0.625,-5.5625,-2,0
22720,1.1875,-5.4375,-3.125,0
22740,2.125,-5.9375,-4,0
22760,1,-8,-3.25,0
22780,0.0625,-8.6875,-3.3125,0
22800,0.1875,-8.125,-3.3125,0
22820,0.4375,-8.5,-2.5,0
22840,-0.3125,-7.5625,-1.5625,0
22860,-0.125,-6.6875,-1.125,0
22880,0.875,-6.125,-2.5,0
22900,1.0625,-5.5625,-3.4375,0
22920,2.6875,-6.0625,-0.75,0
22940,5.25,-5.9375,-0.5,0
22960,5.75,-6,-2,0
22980,4.0625,-5.5,-2.1875,0
23000,3.75,-4.3125,-1.75,0
23020,3.5625,-4.4375,-1.6875,0
23040,4.75,-5.5625,-5.0625,0
23060,5.3125,-7,-7.4375,0
23080,6.625,-8.25,-7.75,0
23100,6.0625,-9.1875,-7.875,0
23120,5.6875,-9.25,-8.4375,0
23140,5.5,-8.375,-9,0
23160,4.875,-8.3125,-9.375,0
23180,4.9375,-8,-8.5625,0
23200,3.875,-7,-7.25,0
23220,4.75,-6.875,-6.9375,0
23240,5.25,-8.25,-5.25,0
23260,2.5,-8.25,-4.375,0
23280,2.6875,-6.75,-3.6875,0
23300,0.8125,-5.5,-4,0
23320,1.1875,-6.3125,-3.125,0
23340,2.625,-5.75,-3.5,0
23360,4.3125,-5.375,-6.5,0
23380,3.25,-3.4375,-7.625,0
23400,5.5,-1.375,-8.625,0
23420,4.5,-1.1875,-7.75,0
23440,4.0625,-0.4375,-7.5,0
23460,1.0625,0.125,-8.3125,0
23480,1.125,1.625,-9.0625,0
23500,-0.625,3.625,-9.8125,0
23520,-1.1875,4,-9.75,0
23540,2,4.75,-11.375,0
23560,3.0625,5.9375,-11.25,0
23580,2.4375,7.5625,-10.25,0
23600,1.5,8.25,-10.875,0
23620,-0.3125,9.6875,-11.625,0
23640,-2,10.1875,-12.875,0
23660,-1.6875,10.25,-14.3125,0
23680,-1.5625,11.75,-14.5,0
23700,-2.125,11.875,-15.6875,0
23720,-1.75,10.6875,-17.25,0
23740,-1.875,10,-18.4375,0
23760,-3.4375,8.8125,-18.125,0
23780,-4.125,8.0625,-17.875,0
23800,-5.75,7.75,-17.125,0
23820,-6.5625,6.75,-16.625,0
23840,-7.25,7.1875,-16.5,0
23860,-7.9375,7.6875,-16.375,0
23880,-7.125,7.5,-16.5,0
23900,-5.3125,7.25,-17.25,0
23920,-3.0625,7.375,-18,0
23940,-3.1875,7.5,-19.75,0
23960,-2.8125,8.0625,-19.125,0
23980,-2.5,7.0625,-18.4375,0
24000,-1.8125,7.75,-18,0
24020,-2.1875,9,-18.9375,0
24040,-2.875,10.25,-18,0
24060,-2.6875,10.6875,-17.0625,0
24080,-2.0625,11.3125,-15.0625,0
24100,-3.1875,13.25,-13.6875,0
24120,-4.1875,14.625,-12.8125,0
24140,-4.9375,14.5,-11.6875,0
24160,-3.5625,14.6875,-11.5625,0
24180,-4,15.125,-11.125,0
24200,-4.3125,16.0625,-11.5,0
24220,-4.4375,15.1875,-12.3125,0
24240,-5.125,15.9375,-13.0625,0
24260,-4.875,16.6875,-13.6875,0
24280,-3.4375,16.6875,-14.3125,0
24300,-4.3125,17.25,-14.6875,0
24320,-4,17.375,-16.375,0
24340,-3.5,16.8125,-17.5,0
24360,-3.6875,16.375,-18.75,0
24380,-4.125,15.3125,-19.3125,0
24400,-4.5,14.1875,-19.9375,0
24420,-5.3125,14.5625,-19.5625,0
24440,-5.25,15.1875,-19.5625,0
24460,-6,14.6875,-19.3125,0
24480,-5.6875,14.5,-18.625,0
24500,-5.375,14.5,-17.5625,0
24520,-4.9375,14.0625,-16.125,0
24540,-5,13.6875,-15.1875,0
24560,-5.375,13.6875,-13.9375,0
24580,-5.125,14.0625,-13.3125,0
24600,-5.375,14.1875,-13.25,0
24620,-4.75,14.875,-12.375,0
24640,-4.375,14.75,-12.0625,0
24660,-3.1875,14.1875,-12.3125,0
24670,-3.8125,13.75,-12.875,0
24690,-3.3125,13.875,-13.8125,0
24710,-3.5625,14.125,-14.1875,0
24730,-3.25,13.75,-14.1875,0
24750,-3,13.1875,-14.0625,0
24770,-3.5625,13.0625,-14,0
24790,-3.9375,13.5,-14.375,0
24810,-4,14.5625,-13.625,0
24830,-3.25,15.3125,-13.5625,0
24850,-3.4375,14.25,-13.75,0
24870,-3.875,13,-14.4375,0
24890,-4.1875,12.9375,-14.8125,0
24910,-3.5,12.625,-15.25,0
24930,-3.125,12.1875,-16.125,0
24950,-3.625,11.6875,-15.5,0
24970,-2.6875,11.5625,-14.1875,0
24990,-3.0625,11.75,-13.3125,0
25010,-3.9375,11.375,-12.25,0
25030,-4.4375,10.5,-10.875,0
25050,-4.25,9.75,-10.5,0
25070,-3.25,9.25,-9.75,0
25090,-3.0625,8.375,-9.6875,0
25110,-3.6875,7.1875,-10.5625,0
25130,-1.5,6.1875,-10.625,0
25150,-2.0625,4.9375,-9.0625,0
25170,-2.875,4.25,-9.75,0
25190,-4.0625,4.6875,-9.0625,0
25210,-4.4375,4.9375,-9.25,0
25230,-3.6875,5.4375,-8,0
25250,-2.4375,4.8125,-7.5,0
25270,-4.0625,4.375,-7.25,0
25290,-2.9375,4.3125,-6.1875,0
25310,-3.125,6.25,-5.125,0
25330,-4.625,6.3125,-6.6875,0
25350,-2.0625,5.5,-7.75,0
25370,-1.375,5.375,-7.5625,0
25390,-1.625,5.4375,-6.0625,0
25410,-1.4375,5.8125,-6.5,0
25430,-1.125,6.75,-5.875,0
25450,-1.5,7.4375,-5.5,0
25470,-2.5625,6.1875,-5.9375,0
25490,-2.9375,6.375,-6.5,0
25510,-2.4375,6.6875,-5.8125,0
25530,-0.75,7.6875,-4,0
25550,-0.9375,7.75,-5.0625,0
25570,-1.375,7.25,-6.5625,0
25590,-1.9375,7.25,-6.9375,0
25610,-0.5625,7.4375,-8.125,0
25630,-0.75,7.75,-7.75,0
25650,0.6875,7.625,-10.375,0
25670,0.5625,6.8125,-11.625,0
25690,0.4375,6.8125,-12.375,0
25710,0.5625,6.6875,-11.0625,0
25730,0.5625,6.375,-10.875,0
25750,-2,5.875,-9.3125,0
25770,-4,6.625,-8.625,0
25790,-3.4375,6.375,-7.625,0
25810,-3.9375,6.3125,-7.0625,0
25830,-4.5625,5.8125,-7.4375,0
25850,-5,5.5,-5.25,0
25870,-6.3125,5.875,-4.4375,0
25890,-5.875,6,-2.3125,0
25910,-6.8125,5.9375,-1.6875,0
25930,-5.875,5.75,-1.5,0
25950,-5.0625,5.5625,0.6875,0
25970,-5.8125,6.3125,3.0625,0
25990,-6.3125,4.8125,1.625,0
26010,-5.5,3.125,3.0625,0
26030,-4.375,2.8125,4.125,0
26050,-1.9375,1.0625,4.3125,0
26070,-1.375,-0.0625,5.625,0
26090,-0.75,-1.1875,4.875,0
26110,-0.8125,-1.0625,1.75,0
26130,0.5,-3.6875,3.125,0
26150,1.4375,-3.9375,3.4375,0
26170,2.375,-4,2.375,0
26190,2.3125,-2.6875,2.4375,0
26210,3.9375,-2.25,3.375,0
26230,3.25,-1.5,4,0
26250,3.0625,0.1875,4.8125,0
26270,2.75,0.25,5.6875,0
26290,2.1875,0.8125,4.875,0
26310,2.1875,1.875,4.5,0
26330,4.625,2.375,4.25,0
26350,5.5,1.0625,5,0
26370,4.3125,1.5,4.1875,0
26390,3.0625,1.5625,4.4375,0
26410,2.3125,1,4.9375,0
26430,1.3125,0.375,5.125,0
26450,0.6875,0.8125,5.5,0
26470,1.875,0.1875,4.9375,0
26490,1,-0.25,6.0625,0
26510,-0.4375,-1,6.75,0
26530,-1.375,-1.375,6.625,0
26550,0.5,0.1875,6.1875,0
26570,1.6875,-0.4375,5.9375,0
26590,1.75,-1.9375,8,0
26610,3,-2,6.5625,0
26620,6.375,-1.0625,3.5625,0
26640,9.5625,0.0625,2.625,0
26660,10.125,-0.125,5.0625,0
26680,9.8125,-0.8125,5.4375,0
26700,10.875,-1.75,5.125,0
26720,10.5625,-1.8125,4.25,0
26740,8.25,-1.625,4.75,0
26760,10.375,-1.5625,5.3125,0
26780,10.8125,-3,5.25,0
26800,10,-3.8125,5.5625,0
26820,9,-2.5,6.375,0
26840,7.0625,-2.8125,8.75,0
26860,6.25,-3.1875,10.75,0
26880,6.125,-3.625,9.75,0
26900,5.375,-5.625,9,0
26920,1.3125,-5.9375,9.8125,0
26940,1.0625,-7.25,9.8125,0
26960,1.3125,-7,9.4375,0
26980,1.1875,-7.25,10.125,0
27000,1.4375,-5.4375,9.75,0
27020,1.875,-6.1875,9.25,0
27040,2.4375,-6.625,8.9375,0
27060,2.6875,-6.875,7.25,0
27080,1.375,-8.5,7.1875,0
27100,1.375,-9.0625,7.25,0
27120,2,-9.375,6.1875,0
27140,1,-9.875,7.25,0
27160,0.4375,-10.375,7.8125,0
27180,0.25,-11.6875,6.9375,0
27200,-0.125,-11.875,8.1875,0
27220,-0.625,-11.875,10.25,0
27240,-2.5625,-11.875,11.4375,0
27260,-2.1875,-11.375,12.125,0
27280,-2.25,-9.8125,12.0625,0
27300,-0.75,-10.1875,12.5,0
27320,2.125,-8.9375,11.9375,0
27340,3.5,-8.4375,10.9375,0
27360,3,-8.375,11.5625,0
27380,4.9375,-9.3125,12.5625,0
27400,5.3125,-9.25,13.125,0
27420,1.6875,-11,13.25,0
27440,-2.25,-12.9375,14.0625,0
27460,-1.625,-13.4375,14.1875,0
27480,-0.1875,-14.3125,13,0
27500,0.125,-13.625,12.1875,0
27520,1.8125,-12.5625,10.9375,0
27540,3.4375,-12.9375,10,0
27560,2.125,-14.25,8.8125,0
27580,0.1875,-15.25,8.375,0
27600,-1,-15.875,8.3125,0
27620,1.4375,-14.6875,7.25,0
27640,2.6875,-13.5625,7.125,0
27660,1.4375,-13.75,7.9375,0
27680,0.0625,-14.25,8.8125,0
27700,1.3125,-14.0625,9.5625,0
27720,2.75,-13.1875,9.6875,0
27740,1.3125,-12.875,9.3125,0
27760,-1,-12.9375,9.25,0
27780,0.0625,-12.9375,9.625,0
27800,2.1875,-12.75,9.5625,0
27820,3,-13,10.875,0
27840,2.4375,-14.5625,10.875,0
27860,3.4375,-15.4375,10.1875,0
27880,5.25,-14.4375,10.4375,0
27900,5.5,-14.625,10.625,0
27920,5.6875,-15.25,11.6875,0
27940,5,-14.6875,12.5,0
27960,4.625,-14.9375,13.125,0
27980,3.375,-15.25,14.125,0
28000,5.9375,-13.9375,13.4375,0
28020,6.9375,-13.875,12.9375,0
28040,8.75,-14.5,11.9375,0
28060,8.5,-15.0625,10.5625,0
28080,8.3125,-14.0625,10.4375,0
28100,9.4375,-13.875,10.3125,0
28120,10.1875,-14.1875,9.5625,0
28140,8.4375,-12.875,9.1875,0
28160,7.625,-12.1875,10.125,0
28180,5.5625,-13.5625,9.5625,0
28200,6.0625,-15.0625,8.75,0
28220,3.8125,-15.125,8.125,0
28240,3.0625,-15,7.1875,0
28260,3.0625,-16.0625,7.3125,0
28280,3.5625,-16.8125,7.0625,0
28300,3.6875,-15.6875,7.125,0
28320,2.8125,-15.4375,7.1875,0
28340,1.875,-16.25,7.1875,0
28360,2.4375,-15.625,6.5,0
28380,2.3125,-16.0625,7.125,0
28400,1.0625,-16.375,8.5,0
28420,0,-16.75,8,0
28440,0.5,-15.5,6.9375,0
28460,-0.75,-15.8125,6.9375,0
28480,-0.6875,-16.75,7.1875,0
28500,1.125,-17.75,6.5625,0
28520,1.5,-17.9375,4.875,0
28540,1.5625,-17.6875,5.125,0
28560,0.0625,-17.625,5.5,0
28580,-0.625,-17.0625,4.6875,0
28600,-0.8125,-16.625,2.375,0
28620,-1,-16,1.4375,0
28640,-0.8125,-16.375,-0.625,0
28660,1.1875,-17.125,-2,0
28680,0.6875,-18.0625,-2.75,0
28700,1.8125,-18.125,-4.5625,0
28720,-0.1875,-17.625,-4.25,0
28740,-1.0625,-16.6875,-4.625,0
28760,0.8125,-16.5,-6.1875,0
28780,1.4375,-16.5,-6.5,0
28800,3.875,-15.8125,-6.625,0
28820,4.5,-14.375,-7.25,0
28840,2.9375,-13.6875,-5.8125,0
28860,2.8125,-14.25,-3.6875,0
28880,4.4375,-15.8125,-5.625,0
28900,6.625,-15.25,-6.25,0
28920,4.625,-14,-4.625,0
28940,2.5625,-13.5625,-3.875,0
28960,2.1875,-12.6875,-4.8125,0
28980,4.5625,-13.4375,-5.5625,0
29000,5.9375,-14.5625,-4.6875,0
29020,4.75,-14.875,-3.75,0
29040,5.25,-14.9375,-3.5625,0
29060,3.6875,-11.3125,-2.625,0
29080,3.8125,-10,-3.625,0
29100,3,-5.6875,-1.25,0
29120,5.3125,-6.5,-0.4375,0
29140,6.125,-6.4375,-1,0
29160,5.5625,-5.1875,-4.1875,0
29180,5.5,-5.5625,-6.875,0
29200,7.4375,-8,-5,0
29220,7.875,-7.8125,-4.75,0
29240,7.9375,-8.875,-4,0
29260,2.5,-10.125,-3.25,0
29280,-0.0625,-9.3125,-3.125,0
29300,-0.6875,-7.9375,-3.6875,0
29320,0.625,-7.6875,-4.625,0
29340,0.5625,-7.3125,-6.75,0
29360,0.625,-6.3125,-9.1875,0
29380,1.9375,-5.4375,-12,0
29400,1.1875,-5.375,-12.0625,0
29420,1.6875,-5,-13.625,0
29440,-0.0625,-3.5,-13.6875,0
29460,-0.5625,-4.5625,-15.25,0
29480,-0.625,-5.4375,-15.625,0
29500,-0.375,-5.0625,-16.1875,0
29520,-0.375,-4.625,-16.75,0
29540,-2.6875,-3.0625,-15.3125,0
29560,-5.25,-0.8125,-13.0625,0
29580,-6.75,-1,-11.125,0
29600,-6.1875,-0.375,-10.125,0
29620,-7.9375,1.75,-9.5,0
29640,-11.0625,4,-8.875,0
29660,-11.0625,5.25,-9.0625,0
29680,-10.0625,4.5,-8.125,0
29700,-9.1875,6.25,-8.5625,0
29720,-11.4375,6.5,-10.5,0
29740,-11.625,6.6875,-13,0
29760,-11.1875,7.4375,-15.375,0
29780,-8.75,7.8125,-16.0625,0
29800,-7.8125,7.25,-16.6875,0
29820,-6.875,7.375,-19.25,0
29840,-8.375,8.75,-19.8125,0
29860,-9.3125,8.8125,-19.875,0
29880,-8.875,10.1875,-18.4375,0
29900,-9.9375,11.875,-17.5625,0
29920,-10.8125,12.5,-18,0
29940,-13.8125,13.5,-17,0
29960,-15.0625,14.625,-16.625,0
29980,-15.4375,16.375,-16.5625,0
30000,-14.1875,16.8125,-18.125,0
30020,-13.6875,16.5,-19.5,0
30040,-13.875,16.6875,-21.5625,0
30050,-13.625,17.0625,-22.25,0
30070,-13.9375,16.875,-21.75,0
30090,-13.1875,17.1875,-22.125,0
30110,-13.8125,18,-22.375,0
30130,-15.0625,18.625,-21.875,0
30150,-13.9375,18.3125,-21.125,0
30170,-12.625,17.6875,-19.625,0
30190,-12.1875,18.3125,-18.625,0
30210,-12.25,19.4375,-18.375,0
30230,-12.75,19.25,-17.875,0
30250,-11.1875,18.1875,-17.25,0
30270,-11.9375,18.125,-15.5625,0
30290,-12.875,19.375,-14.0625,0
30310,-12,18.75,-12.9375,0
30330,-11.1875,17.75,-12.5625,0
30350,-11.875,17.8125,-12.8125,0
30370,-11.6875,18.625,-12.75,0
30390,-10.5625,18.1875,-12.9375,0
30410,-9.5,16.3125,-13.1875,0
30430,-8.25,14.875,-14.25,0
30450,-9.625,14.875,-15.5625,0
30470,-10.4375,15.875,-14.875,0
30490,-8.3125,15.1875,-15.25,0
30510,-6.75,13.5625,-16,0
30530,-7.6875,13.9375,-17.3125,0
30550,-8.75,15.0625,-17.5,0
30570,-9.375,15.5625,-17,0
30590,-9.4375,16.125,-16.625,0
30610,-10,17.1875,-16.5,0
30630,-9.75,17.5,-16.625,0
30650,-11.1875,18.375,-17.0625,0
30670,-9.125,17.9375,-15.4375,0
30690,-9.5625,18.3125,-15.5625,0
30710,-10.9375,17.1875,-15.8125,0
30730,-11.5625,16.375,-14.5,0
30750,-11.375,14.875,-12.9375,0
30770,-9.3125,13.4375,-12.375,0
30790,-9.125,13.25,-12.875,0
30810,-8.625,12,-12.5625,0
30830,-8.0625,11.25,-12.375,0
30850,-7.6875,11.9375,-12.75,0
30870,-6.6875,12.75,-12.25,0
30890,-7.9375,13.0625,-10.875,0
30910,-6.5625,12.4375,-9.75,0
30930,-5.4375,11.25,-9.6875,0
30950,-5.1875,12.1875,-8.5,0
30970,-6.3125,13.0625,-7.375,0
30990,-5.625,12.4375,-8.5,0
31010,-4,11.3125,-8.6875,0
31030,-2.4375,11.625,-9.125,0
31050,-1.3125,11.875,-9.1875,0
31070,-2.5625,12.6875,-10,0
31090,-1.5625,12.75,-10.0625,0
31110,-1.875,11.75,-10,0
31130,0.375,10.125,-10.75,0
31150,-1,9.0625,-11,0
31170,-2.8125,10.9375,-10.875,0
31190,-3.125,11.5,-11.875,0
31210,-3.375,10.8125,-10.75,0
31230,-2.375,10,-10.75,0
31250,-2.125,9.9375,-11.0625,0
31270,-2.625,11.0625,-11.25,0
31290,-2.0625,10.5625,-11.25,0
31310,-1.5,8.75,-8.75,0
31330,-4.1875,8.375,-6.25,0
31350,-3.25,6.9375,-5,0
31370,-5.5,6,-4.25,0
31390,-5.875,5.6875,-2.4375,0
31410,-5.5,4.6875,-1.875,0
31430,-6,4,-1.9375,0
31450,-5.9375,2.375,-1.9375,0
31470,-6.3125,3.625,-2.5,0
31490,-3.625,3.875,-3.5625,0
31510,-2.5625,3.9375,-2.75,0
31530,-0.9375,2.5625,-2.4375,0
31550,-1,1.75,-2.3125,0
31570,-0.75,1.125,-1.3125,0
31590,-2.25,-0.1875,0.25,0
31610,-2.8125,0.125,1.5,0
31630,-2.5,0,0.625,0
31650,-2.25,-0.5625,0.5,0
31670,-1.375,-2.1875,1.0625,0
31690,-0.875,-1.6875,1.8125,0
31710,-0.5625,-1,2.8125,0
31730,-3.25,0.4375,2.875,0
31750,-1.625,1.875,3.375,0
31770,-1.4375,1.25,3.1875,0
31790,-3.0625,0.6875,3.8125,0
31810,-3.0625,1.75,2.6875,0
31830,-1.125,1.9375,1.375,0
31850,0.1875,0.75,2.3125,0
31870,0.4375,-0.125,0.9375,0
31890,0.0625,-0.375,1,0
31910,-1.0625,-1.0625,1.9375,0
31930,-1.375,-1.4375,3,0
31950,-2,-1.5,4.125,0
31970,0.0625,-2.125,4.125,0
31990,-1,-1.875,5.4375,0
32010,-1.8125,-2.4375,6.6875,0
32030,-3.3125,-2.625,8.6875,0
32040,-4.5,-2.875,10.4375,0
32060,-3.5,-1.5625,10.75,0
32080,-2.5625,-0.8125,11.625,0
32100,-2.8125,0.3125,12.375,0
32120,-2,1,12.4375,0
32140,-1.875,1.4375,12.6875,0
32160,-1.4375,1.8125,12.8125,0
32180,0.625,2.4375,12,0
32200,1.8125,3.625,12.3125,0
32220,2.6875,3.0625,12.8125,0
32240,0.8125,2.125,11.8125,0
32260,1.3125,0.875,11.625,0
32280,1.3125,0.4375,12.125,0
32300,1.75,0.625,11.8125,0
32320,2.1875,-0.3125,10.1875,0
32340,2.125,-2.0625,9,0
32360,2.5625,-2.5625,8.625,0
32380,4.75,-2.9375,8.1875,0
32400,5.75,-4.75,9.125,0
32420,5.3125,-5.5625,10.125,0
32440,2.5625,-5.75,11.1875,0
32460,2.25,-5.875,12.375,0
32480,1.0625,-6.8125,13.0625,0
32500,2.3125,-7,12.625,0
32520,3.125,-7.625,12.25,0
32540,2.25,-7.9375,12.125,0
32560,3.1875,-7.875,11.75,0
32580,2.8125,-8.9375,11.5,0
32600,2.1875,-8.5,12.0625,0
32620,1.375,-8.875,12.25,0
32640,2.3125,-8.25,11.875,0
32660,2.9375,-7,11.75,0
32680,2.5625,-6.5,11.4375,0
32700,0.6875,-7.5,11.125,0
32720,0.5,-6.6875,9.625,0
32740,1.9375,-6.125,8.375,0
32760,2.8125,-6.75,8.5,0
32780,2.6875,-6.3125,8.4375,0
32800,1.875,-6.1875,8.8125,0
32820,0.5625,-4.75,8.8125,0
32840,2.125,-4.9375,8.375,0
32860,1.1875,-6.0625,9.1875,0
32880,1.5,-6.3125,9.75,0
32900,2.625,-6.75,8.4375,0
32920,2.625,-7.25,8.625,0
32940,2.0625,-8.4375,9.5625,0
32960,2.375,-9.9375,9.6875,0
32980,3.5625,-12,10.0625,0
33000,4.5625,-13.4375,9.9375,0
33020,2.375,-14.3125,11.1875,0
33040,1.0625,-15.375,12.75,0
33060,2.5,-16.0625,13.625,0
33080,2.3125,-17.375,14.6875,0
33100,0.6875,-16.625,15.25,0
33120,1.3125,-16.3125,15.1875,0
33140,2.5625,-16.6875,14.5625,0
33160,3.1875,-16.9375,15.375,0
33180,4,-16.875,15,0
33200,4.0625,-16.8125,14.25,0
33220,4.0625,-17.875,13.5625,0
33240,3.4375,-17.8125,13.1875,0
33260,3.6875,-18,13.6875,0
33280,4.375,-17.5,13.25,0
33300,5.25,-16.9375,13.5,0
33320,3.25,-17.625,14.25,0
33340,3.1875,-17.75,12.875,0
33360,3,-18.25,12.875,0
33380,3.9375,-18.3125,13.375,0
33400,3.625,-18.1875,11.8125,0
33420,2.6875,-19.1875,12.1875,0
33440,1.8125,-19.1875,12,0
33460,3,-19.1875,12.625,0
33480,3.75,-19.0625,12.125,0
33500,3.5625,-17.875,12.1875,0
33520,3.25,-17.5625,12.1875,0
33540,4.25,-17.75,13.0625,0
33560,4.6875,-19.0625,13.5,0
33580,4.5,-19.375,13.9375,0
33600,3.5625,-19.3125,14.1875,0
33620,1.625,-21.125,14,0
33640,1.5625,-21.6875,14.6875,0
33660,0.9375,-22.75,15.125,0
33680,1.625,-22.6875,14.9375,0
33700,1.8125,-23,14.0625,0
33720,2.875,-23.8125,11.9375,0
33740,4,-24.0625,12.125,0
33760,2.8125,-23,11.5,0
33780,2.8125,-22.125,10.875,0
33800,2.8125,-22.125,10,0
33820,2.4375,-23.0625,10.5,0
33840,1.75,-21.5625,8.75,0
33860,2.375,-21.25,7.75,0
33880,3,-20.1875,6.6875,0
33900,4.8125,-19.5625,5.6875,0
33920,5.25,-20.75,3.8125,0
33940,5.5625,-20.5625,2.8125,0
33960,6.125,-21.4375,1.6875,0
33980,5.1875,-22.375,1.125,0
34000,4.3125,-23.3125,0.75,0
34020,2.8125,-23.625,-0.5625,0
34040,2.3125,-23.4375,-0.875,0
34060,2.5625,-23.1875,-3.125,0
34080,3.375,-23.75,-6.25,0
34100,3.8125,-23.8125,-7.75,0
34120,4.25,-23.6875,-8.5,0
34140,4.0625,-24.3125,-8.75,0
34160,3.6875,-23.625,-9.875,0
34180,2.1875,-23.25,-12.125,0
34200,0.75,-22.4375,-11.5,0
34220,0.875,-20.4375,-11.125,0
34240,2.625,-19.5,-13.6875,0
34260,4.0625,-18.125,-15.5,0
34280,6,-16.4375,-17.4375,0
34300,7.1875,-14.3125,-19.375,0
34320,8.125,-13.0625,-21.25,0
34340,7.5,-11,-19.6875,0
34360,6.75,-10.375,-20.4375,0
34380,7.375,-11.3125,-21.875,0
34400,6.5,-9.625,-21.8125,0
34420,5.0625,-7.125,-20.0625,0
34440,2.3125,-5.75,-20.1875,0
34460,4.75,-5.875,-23.3125,0
34480,5.9375,-6.5625,-23.5625,0
34500,4.8125,-6.8125,-23.0625,0
34520,1.75,-6.4375,-23.125,0
34540,0.4375,-5.9375,-23.625,0
34560,-1,-5.625,-22.9375,0
34580,-0.6875,-5.3125,-22.25,0
34600,-2,-6.8125,-21.625,0
34620,-4.375,-5.5,-24.0625,0
34640,-4.6875,-2.625,-24,0
34660,-3.75,-1.5625,-22.5625,0
34680,-1.75,-1.25,-23.5625,0
34700,-1.375,0.875,-25.625,0
34720,-1.9375,2.6875,-23.8125,0
34740,-2.8125,4.6875,-21.8125,0
34760,-2.1875,5.375,-22,0
34780,-3.625,4.1875,-21.1875,0
34800,-4.9375,5.75,-23,0
34820,-6.8125,6.375,-21.75,0
34840,-5.4375,6.125,-21.3125,0
34860,-5.5,6.8125,-21.6875,0
34880,-8.8125,7.5625,-22.125,0
34900,-9.5625,9.8125,-21.4375,0
34920,-11.125,10.3125,-21.25,0
34940,-11.125,11.375,-21.8125,0
34960,-11.25,12.875,-21.6875,0
34980,-12.875,14,-21.9375,0
35000,-14.9375,15.0625,-22.125,0
35020,-13.375,15.5625,-22.6875,0
35040,-13.3125,15.875,-22.3125,0
35060,-15.0625,15.8125,-22.5,0
35080,-14.375,14.8125,-22,0
35100,-14.3125,13.8125,-22.875,0
35120,-14.6875,13.0625,-22.3125,0
35140,-15.5625,12.875,-21.625,0
35160,-14.75,12.5625,-21.8125,0
35180,-15.1875,12.4375,-21.5625,0
35200,-14.8125,12.25,-22.4375,0
35220,-14.3125,12.3125,-22.5,0
35240,-14.0625,13.25,-22.75,0
35260,-15.1875,15.5625,-21.6875,0
35280,-13.75,15.875,-21.3125,0
35300,-13.5,16.1875,-21.8125,0
35320,-12.9375,16.5,-21.625,0
35340,-13.875,17.1875,-21.1875,0
35360,-13.875,17.125,-20,0
35380,-13.6875,16,-18.625,0
35400,-14.125,16.875,-17.4375,0
35420,-14.5,17.4375,-17.625,0
35440,-15.4375,16.8125,-15.9375,0
35450,-14.3125,16.25,-14.9375,0
35470,-14,17.125,-14.0625,0
35490,-13.5,16.75,-13.5625,0
35510,-14.125,17,-11.5625,0
35530,-15.125,18.375,-10.25,0
35550,-15.0625,18.9375,-7.5625,0
35570,-14.25,17.5625,-5.3125,0
35590,-11.625,17.625,-5.0625,0
35610,-11.75,17.8125,-3.8125,0
35630,-10.875,18.5625,-3.25,0
35650,-11.0625,17.6875,-3.6875,0
35670,-10.5625,16,-1.25,0
35690,-10.875,17.5625,-1.625,0
35710,-9.25,19.3125,-1.25,0
35730,-6.875,20.0625,1.875,0
35750,-4.3125,19.5,3.0625,0
35770,-2.9375,18.6875,2.8125,0
35790,-5.5,18.3125,4.3125,0
35810,-5.3125,16.625,5.375,0
35830,-1.4375,13.6875,6.3125,0
35850,-0.4375,14.5625,8.625,0
35870,-0.0625,16.0625,9.875,0
35890,-2.3125,17.625,13,0
35910,-3.3125,15.3125,14.9375,0
35930,-3.6875,13,16.1875,0
35950,-3,14.0625,14.25,0
35970,-3.125,15,16.3125,0
35990,-0.1875,12.6875,18.0625,0
36010,-1.375,11.0625,18.5,0
36030,-3.0625,10.125,18,0
36050,-4.6875,8.9375,18.25,0
36070,-3.5625,7.25,19.5625,0
36090,-0.5625,5.0625,18.5625,0
36110,-0.75,4.5,17.6875,0
36130,-2.5,5.25,18.5,0
36150,0.75,5.3125,18.625,0
36170,3.1875,3.375,19.25,0
36190,4.6875,2.5625,17.5625,0
36210,4.125,2,16.5625,0
36230,3.9375,0.3125,17.25,0
36250,4,0.125,16.875,0
36270,4.5625,-1.3125,16.625,0
36290,4.8125,-2.25,16.125,0
36310,4.25,-2.375,15.8125,0
36330,4.4375,-2.3125,15.0625,0
36350,5.375,-3,14.8125,0
36370,5.125,-3.0625,14.375,0
36390,5,-3.5,14.3125,0
36410,6,-5.25,12.9375,0
36430,5.1875,-5.9375,13.4375,0
36450,6.875,-5.375,13.3125,0
36470,7.0625,-6.6875,12.8125,0
36490,8.25,-7.5625,12.125,0
36510,6.5625,-9.4375,11.625,0
36530,4.875,-10.25,11.875,0
36550,5.6875,-11.125,11.1875,0
36570,5.6875,-12.3125,11.125,0
36590,4.6875,-12.6875,11.8125,0
36610,5.25,-12.625,11.0625,0
36630,7.75,-12.8125,11.1875,0
36650,8.5,-12.375,10.75,0
36670,6.8125,-14.875,9.25,0
36690,6.75,-16.0625,9.0625,0
36710,7.75,-14.4375,9.125,0
36730,10.1875,-13.6875,10.375,0
36750,8.1875,-14,11.6875,0
36770,6.5,-13.4375,13,0
36790,3.625,-13.9375,14.75,0
36810,2.6875,-12.8125,16.3125,0
36830,3.4375,-12.25,17,0
36850,1.4375,-11.25,18.5,0
36870,-0.1875,-11.25,17.9375,0
36890,-2.5625,-9.3125,19,0
36910,-1.5625,-5.875,17.625,0
36930,2.1875,-5.75,17.5,0
36950,4,-5.5625,17.4375,0
36970,5.1875,-2.3125,15.8125,0
36990,6.625,-1.625,15.125,0
37010,9.125,-0.4375,14.0625,0
37030,9.3125,-0.3125,11.75,0
37050,12.25,-1.8125,10.1875,0
37070,12.5625,-5,9.6875,0
37090,11,-6.8125,8.8125,0
37110,8.6875,-6.8125,8.6875,0
37130,7,-9.1875,8.625,0
37150,4.375,-13.1875,8.875,0
37170,1.5,-16.5625,8.8125,0
37190,0.5625,-20.6875,8.8125,0
37210,0.5,-22,8.6875,0
37230,0.625,-23.625,8.3125,0
37250,1.375,-25.625,7.125,0
37270,3,-28.375,6.3125,0
37290,4.9375,-30.8125,5.375,0
37310,3.4375,-34.3125,4.5,0
37330,2.9375,-35.375,2.9375,0
37350,4.125,-36.125,2.75,0
37370,4.3125,-36.75,3.25,0
37390,2.8125,-34.25,3.5625,0
37410,2.0625,-33.625,2.9375,0
37430,1.6875,-34.8125,3.125,0
37440,4.625,-33.625,2.1875,0
37460,7.9375,-32.1875,0.5625,0
37480,7.4375,-31.125,-0.4375,0
37500,5.75,-30.0625,-1.8125,0
37520,5.1875,-28.9375,-1.1875,0
37540,6.5625,-30.625,-2.25,0
37560,8.375,-29.25,-3.5,0
37580,7.8125,-27.5625,-2.9375,0
37600,3.375,-25.9375,-5.625,0
37620,-0.5625,-25.3125,-6.9375,0
37640,2.5625,-26.5,-9.625,0
37660,5.625,-26.75,-13.4375,0
37680,4.625,-25.5,-18.625,0
37700,1.1875,-24,-22.5625,0
37720,1.8125,-24.25,-25.1875,0
37740,4.125,-25.375,-27.9375,0
37760,3.9375,-22.4375,-28.9375,0
37780,3.8125,-20.1875,-31.1875,0
37800,5.3125,-19.5,-32.375,0
37820,3.8125,-19.6875,-30.5625,0
37840,2.625,-20.1875,-29.4375,0
37860,1.375,-18.625,-28.25,0
37880,2.5625,-18.375,-30.8125,0
37900,0.125,-17.0625,-28.1875,0
37920,-1.75,-14.5625,-25.5625,0
37940,0,-15.4375,-27.25,0
37960,1.25,-14.875,-25.1875,0
37980,-0.75,-10.5,-23.9375,2001
38000,-1.1875,-8.5,-20.0625,0
38020,-1.1875,-6.0625,-16.6875,0
38040,-1.375,-4.875,-18,0
38060,-2.0625,-5.125,-16.1875,0
38080,-1.5,-5,-12.5625,0
38100,0,-6.8125,-10.6875,0
38120,0.25,-9.125,-8.5625,0
38140,0.8125,-6.4375,-7.375,0
38160,-1.4375,-0.25,-4,0
38180,-4.9375,5.125,2,0
38200,-8.0625,2.625,7.0625,0
38220,-4.9375,-6.6875,14.125,0
38240,-1.4375,-10.5,13.5625,0
38260,0.625,-2.6875,6.25,0
38280,2.375,-0.5625,3.375,0
38300,4,-3.9375,2.625,0
38320,2.9375,-4.0625,-0.25,0
38340,2.625,-2.9375,-1.8125,0
38360,1.875,-2.3125,0.8125,0
38380,0.3125,0.625,-0.0625,0
38400,-1.1875,4.0625,1,0
38420,-2.625,4.5,2.625,0
38440,-2.6875,3.375,1.625,0
38460,-3.875,3.8125,0.5,0
38480,-6.1875,5.1875,-1,0
38500,-5.75,6.875,-1.5625,0
38520,-5.0625,10,-3.5,0
38540,-4.5,10.8125,-4.125,0
38560,-3.1875,11.125,-3.5625,0
38580,-4.4375,10.875,-2.5,0
38600,-5.1875,14.0625,-1.6875,0
38620,-6.4375,16.8125,1.4375,0
38640,-7.875,16.125,3.0625,0
38660,-5.5,15.75,0.5,0
38680,-4.8125,14.75,0.3125,0
38700,-6.1875,15.3125,-1.5625,0
38720,-7.375,16.625,-2.1875,0
38740,-5.25,15.875,-1.9375,0
38760,-4.4375,14.9375,-1.125,0
38780,-3.25,13.75,-1.5,0
38800,-5.5,13.25,-2.625,0
38820,-6.875,13.625,0.25,0
38840,-9.375,13.625,5,0
38860,-7.4375,11,5.1875,0
38880,-6.125,7.1875,3.9375,0
38900,-6.25,3.125,2.0625,0
38920,-6.6875,1.8125,0.875,0
38940,-6.6875,3.0625,0,0
38960,-5,3.5625,-0.625,0
38980,-4.9375,4.875,1.1875,0
39000,-2.625,2.5,4,0
39020,-2.25,4.625,7.1875,0
39040,-3.8125,11.375,9.375,0
39060,-3.8125,16.375,17.5,0
39080,-6,25.6875,27.875,0
39100,-9.125,34.3125,42.25,0
39120,-6.9375,39.75,55.1875,0
39140,-2.875,47,66,0
39160,-9.5,54.75,76.4375,0
39180,-7.25,62.25,81.8125,0
39200,-2.5625,66.125,89.6875,0
39220,0.125,63.875,93.375,0
39240,2.5,63.625,91,0
39260,4.875,60.75,90.4375,0
39280,12,56,84.8125,0
39300,15.1875,49.0625,81.125,0
39320,17.375,40.1875,78.125,0
39340,20.25,31.125,69.875,0
39360,23.8125,23.4375,61.6875,0
39380,24.75,16,55.3125,0
39400,23.25,9.0625,54.625,0
39420,18.5,4.4375,55.875,0
39440,14.25,3.4375,54.3125,0
39460,11.875,2.9375,52.5625,0
39480,10.0625,5.75,51.375,0
39500,6.1875,7.3125,50.6875,0
39520,4,4.8125,48.875,0
39540,5.1875,4.8125,42.9375,0
39560,10.375,4.125,36.6875,0
39580,8.75,4.625,33.8125,0
39600,7.1875,1.0625,26.875,0
39620,12.3125,-2.9375,21.75,0
39640,14.1875,-4.3125,17.25,0
39660,14.25,-4.6875,12.5625,0
39680,12.625,-5.875,11.3125,0
39700,11.1875,-6.25,10.1875,0
39720,10.625,-6,9.625,0
39740,8.4375,-5.75,11,0
39760,7.375,-6.5,12.625,0
39780,6,-6.3125,12.1875,0
39800,4.875,-5.4375,10.25,0
39820,6.375,-4.375,10.3125,0
39840,7.25,-5.1875,11.4375,0
39860,6.8125,-4.1875,8.4375,0
39880,5.25,-2.5625,5.9375,0
39900,3.875,-2.0625,3.75,0
39920,2.5625,-2.25,3.9375,0
39940,0.5625,-4.0625,4.625,0
39960,0.3125,-3.5,3.375,2000
39980,-0.5625,-4.5625,3,0
40000,-2,-5.5,3.125,0
40020,-3.25,-5.1875,1,0
40040,-1.9375,-5.375,-1.3125,0
40060,-2.25,-5.3125,-2.875,0
40080,-2.25,-8.125,-1.9375,0
40100,0.9375,-10.75,-0.25,0
40120,-0.6875,-11.1875,-2,0
40140,-3.625,-11.25,-2.0625,0
40160,-1.75,-13.9375,-0.8125,0
40180,0.125,-13.25,-2.6875,0
40200,1.125,-12.9375,-2.875,0
40220,-0.4375,-13.125,-2.625,0
40240,0.5,-13.4375,-2.625,0
40260,2.25,-14.4375,-2.1875,0
40280,0.0625,-15.1875,-2.875,0
40300,-3.375,-15.5,-3.0625,0
40320,-3.375,-15.3125,-6.6875,0
40340,-4.1875,-15.8125,-8.125,0
40360,-2.625,-17.1875,-8.375,0
40380,0.75,-18.6875,-8.0625,0
40400,2.125,-16,-8.75,0
40420,-1.9375,-14.1875,-6.5,0
40440,-2.6875,-12.6875,-3.625,0
40460,-2.4375,-12,-2.8125,0
40480,0.3125,-11.0625,-3.1875,0
40500,1.1875,-9.9375,-1.3125,0
40520,0.875,-8.5625,-0.3125,0
40540,-1.9375,-6.9375,-0.875,0
40560,-2.5,-7.1875,-1.375,0
40580,-3.6875,-7.8125,-0.9375,0
40600,-2.5,-8.125,-1.25,0
40620,-2.8125,-7.6875,-0.8125,0
40640,2.125,-9.875,-0.8125,0
40660,0.75,-6.625,-5.1875,0
40680,-2.375,-6.5625,-6.625,0
40700,-2.125,-7.75,-5.6875,0
40720,-1.625,-9.375,-4.6875,0
40740,-1.25,-9.25,-5.25,0
40760,-3.9375,-7.8125,-4.625,0
40780,-3.125,-4.4375,-4,0
40800,-0.6875,-3.1875,-4.375,0
40820,0.4375,-2.0625,-4.6875,0
40840,-1.625,-1.0625,-7.375,0
40850,-5.125,1.5625,-11.375,0
40870,-4.5,1.5625,-13.6875,0
40890,-5.1875,0.125,-15.125,0
40910,-6.9375,1.125,-17.125,0
40930,-6.8125,1.75,-21.3125,0
40950,-7.6875,1.9375,-23.25,0
40970,-7.875,3.6875,-24.3125,0
40990,-12.6875,7.125,-24.125,0
41010,-12.6875,8,-25.125,0
41030,-9.9375,7.8125,-26.3125,0
41050,-8.75,10.5625,-28.5625,0
41070,-9,13.625,-29.5,0
41090,-6.125,13.25,-29.1875,0
41110,-4.625,12.4375,-26.6875,0
41130,-5.125,11.0625,-25.9375,0
41150,-7.625,12.625,-26.125,0
41170,-9.75,14.0625,-25.4375,0
41190,-9.8125,13.125,-21.9375,0
41210,-10.125,10.625,-20.0625,0
41230,-9.875,10.375,-19.875,0
41250,-11.1875,13.375,-21.3125,0
41270,-11.0625,14.4375,-21.5,0
41290,-8.375,12.5,-21.5,0
41310,-6.9375,11.8125,-21.1875,0
41330,-7.875,12.625,-21.4375,0
41350,-6.5625,14,-21.8125,0
41370,-7.0625,15.8125,-23.5,0
41390,-7.125,16.3125,-24.375,0
41410,-7,15.3125,-24.1875,0
41430,-7.75,16.0625,-24.625,0
41450,-9.1875,16.8125,-24.8125,0
41470,-10.375,17.375,-24.6875,0
41490,-11.1875,17.8125,-24.375,0
41510,-13.3125,18.4375,-24.3125,0
41530,-13.75,19.625,-24.125,0
41550,-13.5625,20.4375,-23.375,0
41570,-14.875,21.125,-22.8125,0
41590,-16.125,22,-22.875,0
41610,-15.5,20.75,-22.25,0
41630,-15.1875,19.5,-22.0625,0
41650,-14.125,19.4375,-21.5625,0
41670,-13,19.3125,-21.8125,0
41690,-12.4375,20.375,-23.0625,0
41710,-10.6875,18.3125,-23.5,0
41730,-10.375,17.8125,-23.625,0
41750,-9.625,18.1875,-23.75,0
41770,-9.75,19.375,-24.0625,0
41790,-10.9375,19.8125,-23.4375,0
41810,-11.1875,19.1875,-22.25,0
41830,-11.6875,19,-21.6875,0
41850,-12.9375,20.375,-21.625,0
41870,-14.5625,23.1875,-21.3125,0
41890,-14,24.125,-19.75,0
41910,-12.75,24.3125,-19.1875,0
41930,-13.375,26.1875,-21.125,0
41950,-14.5625,29.5625,-22.75,0
41970,-14.125,31.125,-22.0625,0
41990,-12.3125,29.625,-20.25,0
42010,-11.1875,29.3125,-19.1875,0
42030,-10.375,29.6875,-19.6875,0
42050,-12.125,30.75,-21.25,0
42070,-12.625,29.8125,-19.5625,0
42090,-12.25,28.125,-18.9375,0
42110,-11,26.75,-18.9375,0
42130,-11.25,26.875,-20.1875,0
42150,-12.3125,26.375,-20.1875,0
42170,-9.8125,24,-20.0625,0
42190,-9.9375,21.875,-20.125,0
42210,-9.8125,21.125,-21.6875,0
42230,-8.9375,20.75,-22.9375,0
42250,-7.875,20.4375,-22.875,0
42270,-7.0625,19.0625,-21.25,0
42290,-4.375,18.3125,-20.125,0
42310,-5.1875,18.3125,-19.1875,0
42330,-5.3125,19.125,-18.75,0
42350,-8,19.9375,-16.5,0
42370,-5.8125,18.4375,-12.9375,0
42390,-5.625,17.6875,-10.375,0
42410,-6.125,18.875,-11,0
42430,-8.4375,20.5,-10.6875,0
42450,-9.375,19.0625,-8.3125,0
42470,-7,17.375,-4.75,0
42490,-7.625,15.8125,-3.875,0
42510,-8.375,17.3125,-4.5625,0
42530,-9,17.4375,-4.3125,0
42550,-5.6875,15.6875,-2.0625,0
42570,-2.875,12.75,-0.125,0
42590,-1.6875,12.1875,-0.75,0
42610,-4.0625,12.6875,-2.75,0
42630,-6.0625,12.875,-4.0625,0
42650,-2.625,11.625,-3.9375,0
42670,0.0625,8.625,-2.4375,0
42690,0.0625,7.0625,-0.8125,0
42710,-0.9375,5.25,-0.75,0
42730,-2.5625,4.8125,-2.6875,0
42750,-0.0625,2.8125,-0.25,0
42770,-1.875,3.3125,3.375,0
42790,-2.4375,1.875,2.4375,0
42810,-1.75,2.1875,0,0
42820,-3.125,2.6875,0.4375,0
42840,-4,2.5625,4.375,0
42860,-5.1875,1.875,7.875,0
42880,-4.9375,1.1875,8.625,0
42900,-3.3125,0.5,8.5625,0
42920,-2.75,1.8125,11.5,0
42940,-6.5,1.9375,14.4375,0
42960,-7.25,0.625,16.625,0
42980,-5.625,-1.125,17.1875,0
43000,-1.875,-2.9375,16.625,0
43020,-0.3125,-1.8125,19,0
43040,-0.625,-4.0625,20.5,0
43060,0.0625,-4.875,21.6875,0
43080,2.3125,-5.5,19.625,0
43100,4.875,-6.4375,18.9375,0
43120,7.0625,-7.5625,20.1875,0
43140,6,-8.1875,18.9375,0
43160,5.4375,-7.3125,17.5625,0
43180,6.125,-5.6875,17.0625,0
43200,9.375,-6.1875,15.25,0
43220,8.9375,-5.5,15.6875,0
43240,5.6875,-3.1875,15.625,0
43260,6.5,-4.875,12.3125,0
43280,7.375,-7,11.6875,0
43300,9.5625,-8.0625,13.375,0
43320,8.375,-8.25,13.6875,0
43340,7.625,-9.5625,14.75,0
43360,6.5,-11.5,15.8125,0
43380,6.625,-11.875,16.125,0
43400,6.8125,-11.5,16.125,0
43420,5.8125,-13.875,16.5,0
43440,7.125,-13.875,16.6875,0
43460,8.5,-12.125,15.75,0
43480,9.625,-12.5625,15.1875,0
43500,7.875,-13.4375,14.9375,0
43520,7.0625,-12,14.1875,0
43540,7.5,-11.125,14.875,0
43560,8.375,-12.4375,17.5625,0
43580,7,-13,17.5,0
43600,4.9375,-14.0625,16.9375,0
43620,3.125,-15.25,17.625,0
43640,2.625,-15.875,19,0
43660,2.1875,-16.375,21,0
43680,2.125,-15.8125,21,0
43700,2,-15.1875,20.9375,0
43720,3.625,-16.5,20.5,0
43740,3.75,-16.8125,21.125,0
43760,3.625,-16.6875,21.6875,0
43770,5.125,-17.625,20.875,0
43790,5.5625,-17.875,19.6875,0
43810,6.1875,-18.1875,19.1875,0
43830,6.3125,-18.5,18.1875,0
43850,6.4375,-19.5,19.0625,0
43870,5.5625,-19.75,18.75,0
43890,6.375,-21.125,17.0625,0
43910,6.25,-22.4375,15.9375,0
43930,4.6875,-22.8125,15.4375,0
43950,4.875,-22.9375,15.6875,0
43970,7.625,-22,15.3125,0
43990,7.9375,-22.6875,14,0
44010,7.625,-23.625,13.875,0
44030,6.375,-25.75,14.3125,0
44050,7.625,-26.9375,14.75,0
44070,7.1875,-28.875,16.625,0
44090,6.6875,-28.9375,19.25,0
44110,6.6875,-28.5,20.0625,0
44130,7.5,-28.75,21.0625,0
44150,7.6875,-28.25,20.0625,0
44170,11.6875,-28.4375,18,0
44190,13.3125,-29.8125,16.8125,0
44210,12.75,-29.875,14.4375,0
44230,14.125,-30.5625,11.8125,0
44250,14.5,-31.125,10.125,0
44270,13.6875,-30.75,8.8125,0
44290,12.375,-30.8125,7.625,0
44310,13,-31.125,6.4375,0
44330,12.875,-31.4375,5.0625,0
44350,11.1875,-31.375,4.1875,0
44370,10.6875,-30.75,2.625,0
44390,9.5625,-32,1.375,0
44410,8.75,-31.75,1.0625,0
44430,8.25,-30.8125,1.25,0
44450,7.375,-30.1875,0.3125,0
44470,6.625,-30,-0.0625,0
44490,4.1875,-31.3125,1.5625,0
44510,0.5625,-30.1875,3.875,0
44530,-1.6875,-27.6875,4.5,0
44550,-5.1875,-24.625,5.5,0
44570,-2.875,-22.125,4.0625,0
44590,0.375,-24.5,1.6875,0
44610,5.0625,-23.875,-0.4375,0
44630,5.0625,-21.125,-4.75,0
44650,6.375,-19.25,-8.5,0
44670,3.25,-20,-9.6875,0
44690,4.9375,-20.0625,-8.1875,0
44710,5.5625,-21.5,-5.9375,0
44730,4.3125,-17.125,-7.875,0
44750,-1.6875,-15,-10.375,0
44770,-5.625,-15.5,-9.1875,0
44790,-7.5625,-18.0625,-6.125,0
44810,-5.8125,-17.125,-5.625,0
44830,-2.4375,-16,-8.6875,0
44850,-6.4375,-12.625,-9.9375,0
44870,-10.8125,-9.75,-11.8125,0
44890,-8.4375,-10.4375,-15.875,0
44910,-3.1875,-8.625,-18.3125,0
44930,-0.875,-7.375,-22.375,0
44950,-2.75,-5.5625,-21.625,0
44970,-3.875,-5.5,-22.25,0
44990,-4.875,-4.25,-23.8125,0
45010,-6.5625,-1.375,-23.5,0
45030,-7.75,2.125,-24.0625,0
45050,-8.75,4.8125,-25.875,0
45070,-7.75,5.1875,-27.625,0
45090,-7.4375,6.0625,-29.3125,0
45110,-7.3125,9,-31.5625,0
45130,-10.875,10.4375,-31.625,0
45150,-12.875,13.0625,-31.5625,0
45170,-13.1875,15.1875,-32.625,0
45190,-13.5625,15.5,-32.875,0
45210,-15.3125,15.6875,-33.6875,0
45230,-15.5625,17.375,-32.625,0
45250,-17,20.8125,-32.9375,0
45270,-17.6875,21.8125,-33.0625,0
45290,-18,21.1875,-32.25,0
45310,-18.4375,23,-32.9375,0
45330,-18.25,25.125,-33.125,0
45350,-17.9375,25.1875,-32.625,0
45370,-16,24.75,-31.875,0
45390,-15.5,24.5625,-31.5625,0
45410,-15.0625,24.1875,-31.5,0
45430,-13.5,23.625,-30.3125,0
45450,-11.9375,23.0625,-28.25,0
45470,-13.0625,23.375,-25.9375,0
45490,-14.0625,22.75,-23.1875,0
45510,-12.9375,20.75,-19.875,0
45530,-13.875,20.25,-17.4375,0
45550,-13.875,19.5625,-16.375,0
45570,-12.5,19.5,-16.4375,0
45590,-10.375,20,-17.5,0
45610,-8.625,20,-18.8125,0
45630,-6.6875,19.6875,-20.6875,0
45650,-6.6875,19.875,-22.1875,0
45670,-5.625,20.9375,-22.8125,0
45690,-6.4375,23.5625,-24.5,0
45710,-7.375,25.375,-23.6875,0
45730,-6.9375,23.4375,-22,0
45750,-5.6875,21.125,-21.25,0
45770,-6.1875,21.875,-21.5,0
45790,-7.125,21.25,-22.6875,0
45810,-8,21.375,-23.875,0
45830,-7.3125,22.0625,-23.5,0
45850,-7.9375,21.125,-22.3125,0
45870,-6.625,18.625,-21.875,0
45890,-5.4375,19,-21.5,0
45910,-8.6875,21.4375,-21,0
45930,-11.6875,21.0625,-19.5,0
45950,-10.125,19.125,-18.375,0
45970,-8.4375,17.25,-16.625,0
45990,-9.375,16.3125,-15.6875,0
46010,-12.1875,16.4375,-16.3125,0
46030,-13.125,17,-14.9375,0
46050,-12.4375,14.5,-11.6875,0
46070,-13.25,12.5,-8.5,0
46090,-12.375,12.75,-6,0
46110,-13.0625,13.5625,-5.8125,0
46130,-13.375,14,-4.375,0
46150,-12.75,12.625,-1.625,0
46170,-11.375,12.625,1.25,0
46190,-10.125,14.6875,0.25,0
46210,-8.75,15.6875,2.125,0
46230,-4.75,13.25,2,0
46240,-5.8125,10.75,0,0
46260,-7,12,-0.375,0
46280,-6.6875,11.9375,0.625,0
46300,-5.1875,8.5625,2.4375,0
46320,-1.0625,6.3125,4.75,0
46340,1.875,5.375,7.1875,0
46360,-0.5,6.0625,8.625,0
46380,0.625,5.375,10.8125,0
46400,2.0625,3.9375,14.875,0
46420,2.4375,1.0625,16.375,0
46440,1.125,3.1875,17,0
46460,0.625,2.25,18.0625,0
46480,2.75,-0.375,20.9375,0
46500,3.9375,-1.125,20.5,0
46520,5.25,0,21.125,0
46540,5.75,-0.6875,21.25,0
46560,3,-1.25,24.5625,0
46580,2.75,-0.4375,26.875,0
46600,5.25,-2.625,26.5,0
46620,6.75,-3.6875,26.3125,0
46640,5.25,-3,25.125,0
46660,4.0625,-2.875,26.125,0
46680,3.5625,-2.625,28.8125,0
46700,4.9375,-4.875,29.375,0
46720,4.125,-5.5,28.75,0
46740,4.625,-3.625,25.9375,0
46760,3.1875,-4,24.5,0
46780,5.75,-4.1875,24.3125,0
46800,6.75,-4.6875,23.1875,0
46820,9.0625,-4.125,21.6875,0
46840,10.8125,-4.75,20.1875,0
46860,10.375,-4.125,20.125,0
46880,10.6875,-5.5,20.5625,0
46900,9.8125,-7,21.3125,0
46920,9.1875,-7.6875,20.75,0
46940,9.9375,-7.6875,19.125,0
46960,8.25,-8.25,17.8125,0
46980,9.0625,-9.75,16.9375,0
47000,11.75,-10,15.9375,0
47020,10.9375,-10.5625,15.75,0
47040,10.4375,-11.8125,15.8125,0
47060,9.5,-13.25,16.3125,0
47080,8.6875,-15.0625,16.0625,0
47100,7.875,-16,17.625,0
47120,5.5,-16.9375,18.0625,0
47140,4.5625,-18.75,18.3125,0
47160,5,-19.9375,17.5625,0
47180,6.3125,-20.0625,17.6875,0
47200,6.0625,-19.8125,18.625,0
47220,6.1875,-21.0625,18.875,0
47240,5.4375,-20.9375,19.0625,0
47260,6.375,-20.0625,19.0625,0
47280,8.9375,-18.625,18.8125,0
47300,9.5,-19.375,19.5625,0
47320,7.6875,-19.75,19.3125,0
47340,7.5625,-20.25,19.3125,0
47360,9.3125,-21.6875,18.125,0
47380,9.5625,-22.125,16.75,0
47400,8.25,-23.6875,16.6875,0
47420,9.0625,-24.9375,16.5625,0
47440,10,-26,15.0625,0
47460,9.6875,-26.6875,13.625,0
47480,11.9375,-26.625,12.375,0
47500,12.3125,-27.3125,11.125,0
47520,12.625,-26.125,11.0625,0
47540,14.1875,-27.6875,8.125,0
47560,13.0625,-27.8125,7.5625,0
47580,12.9375,-27.25,6.5,0
47600,12.1875,-29.1875,5.375,0
47620,9.8125,-29.75,5.25,0
47640,8.1875,-29.125,4.75,0
47660,7.875,-28.1875,4.8125,0
47680,6.5,-28.875,3.9375,0
47700,4.625,-28.4375,3.5625,0
47720,3.75,-28.875,2.0625,0
47740,3.75,-31.4375,0.8125,0
47760,3.1875,-31.6875,0.4375,0
47780,3.9375,-31.25,-0.375,0
47800,4.5,-30.625,-2.375,0
47820,3.0625,-30,-2.25,0
47840,1.875,-30.3125,-1,0
47860,1.9375,-32.6875,-0.9375,0
47880,2.5625,-34.875,-1.75,0
47900,2.75,-33.1875,-1.5625,0
47920,0.625,-28.375,2.25,0
47940,3.875,-24.125,0.8125,0
47960,7.75,-22.5625,-6,0
47980,8.875,-22.6875,-7.9375,0
48000,10.5,-21.9375,-8.75,0
48020,10.125,-19.75,-7.375,0
48040,8.875,-19.9375,-7.4375,0
48060,9.5,-19.25,-8.3125,0
48080,6.5,-19.3125,-9.3125,0
48100,3.125,-20.3125,-8,0
48120,0.125,-20.8125,-7.25,0
48140,2.25,-23.8125,-10,0
48160,3.875,-22.5,-11.3125,0
48180,5.3125,-24.125,-11.75,0
48200,2.25,-24.6875,-11.0625,0
48210,1.75,-26.1875,-12.5625,0
48230,1.125,-26.6875,-13.5,0
48250,0.0625,-26.75,-12.625,0
48270,0,-27.4375,-12.8125,0
48290,-2,-26.75,-14.6875,0
48310,-1.9375,-24.125,-15.9375,0
48330,-1.3125,-24.375,-17.5625,0
48350,-0.9375,-24.25,-18.0625,0
48370,-0.0625,-20.5,-21.3125,0
48390,-4,-18.3125,-22.125,0
48410,-4.9375,-16.375,-22.4375,0
48430,-3.625,-15.8125,-23.5625,0
48450,-2.3125,-14.875,-25.6875,0
48470,-4.3125,-12.4375,-26.75,0
48490,-7.6875,-9.625,-27,0
48510,-7.9375,-8.4375,-26.6875,0
48530,-8.375,-8.875,-27.75,0
48550,-8.9375,-6.9375,-29.4375,0
48570,-13.3125,-0.5625,-30.3125,0
48590,-15.6875,1.8125,-30.8125,0
48610,-14.25,2.9375,-29.3125,0
48630,-13.0625,2.125,-29.875,0
48650,-13.625,6.625,-32.125,0
48670,-15.0625,9,-32.75,0
48690,-14.3125,8.5,-33.375,0
48710,-13.875,9.8125,-33.9375,0
48730,-14.6875,11.8125,-34.6875,0
48750,-16.5,14.1875,-35.375,0
48770,-16.5,14.5625,-35,0
48790,-17.25,15.375,-34.5625,0
48810,-19.8125,16.9375,-33.3125,0
48830,-21.375,17.5625,-30.25,0
48850,-22.4375,17.25,-28.25,0
48870,-23.4375,17.4375,-26.25,0
48890,-26.6875,20.1875,-24.6875,0
48910,-26.8125,20.9375,-24.5625,0
48930,-25.0625,21.625,-25.3125,0
48950,-23.4375,21.625,-26.75,0
48970,-25.1875,22.375,-27.0625,0
48990,-27.4375,24.75,-26.5625,0
49010,-26,25.0625,-25.625,0
49030,-24.75,25.125,-25.375,0
49050,-27.4375,25.625,-24.25,0
49070,-28.6875,28.0625,-23.375,0
49090,-29.375,30.5625,-21.1875,0
49110,-26.4375,29.5,-19.25,0
49130,-25.4375,29.5,-17.1875,0
49150,-22.75,28.3125,-16.1875,0
49170,-22.3125,28,-16.125,0
49190,-22.375,28,-14.9375,0
49210,-23.4375,25.375,-14.25,0
49230,-22.4375,24.6875,-13,0
49250,-24.875,28.5,-13.75,0
49270,-21.875,27.375,-10.1875,0
49290,-18.5,24.75,-5.8125,0
49310,-17.6875,26.3125,-2.8125,0
49330,-21.5625,32.375,0.1875,0
49350,-23.0625,33.8125,1.375,0
49370,-16.75,27.875,3.1875,0
49390,-10.375,23,3.9375,0
49410,-12.3125,24.6875,4.25,0
49430,-13.0625,26.3125,4.9375,0
49450,-12.25,24.6875,6.0625,0
49470,-9.4375,23.8125,7,0
49490,-3.4375,23.125,6.8125,0
49510,1.8125,24.8125,8.125,0
49530,3.75,21.4375,9.3125,0
49550,-1.125,21.4375,12.625,0
49570,-3.0625,18.8125,13.4375,0
49590,-3.5,20.5,15,0
49610,0.625,17.4375,14.8125,0
49630,0.9375,16.25,12.875,0
49650,1.5625,17.0625,12.75,0
49670,1.25,14.5,13.8125,0
49690,2.5625,11.8125,15.5625,0
49710,2.9375,10.6875,15,0
49730,1.5,12.625,14.8125,0
49750,-0.25,15,18.375,0
49770,0.0625,13.3125,21.375,0
49790,1.875,12.125,22.5625,0
49810,4.5625,12.875,21.0625,0
49830,4.9375,12.75,20.125,0
49850,3,11.5625,22.75,0
49870,1,8.1875,22.9375,0
49890,2.125,8,22.5625,0
49910,4.6875,5.625,22.1875,0
49930,3.3125,2.75,22.5625,0
49950,-0.625,2.0625,22.5,0
49970,1.8125,1.625,23.4375,0
49990,3.875,-0.5,25.25,0
50010,5.6875,-0.25,25.25,0
50030,5.0625,2.875,24.1875,0
50050,4.9375,5.4375,24.4375,0
50070,5.375,4.8125,24.3125,0
50090,9.125,4.3125,25.6875,0
50110,9.75,3.4375,25.375,0
50130,7.625,1.875,26.5625,0
50150,5.3125,-0.125,26.1875,0
50170,2.625,-1.4375,26.0625,0
50190,5,-3.5,26.4375,0
50210,5.625,-4.5625,26.0625,0
50230,5.8125,-7.1875,23.9375,0
50250,6.875,-12.125,22.5,0
50270,7.4375,-15.875,20.8125,0
50290,7.25,-20.625,18.5,0
50310,4.3125,-25.1875,17.5625,0
50330,2.8125,-27.9375,17.5625,0
50350,3.125,-29.3125,19.75,0
50370,4.0625,-29.75,22.5625,0
50390,5.9375,-29,22.6875,0
50410,4.75,-29.0625,23.75,0
50430,4.375,-28.75,23.9375,0
50450,6.0625,-28.5,23.0625,0
50470,9.1875,-28.875,23.3125,0
50490,9.0625,-29.5625,23.6875,0
50510,6,-30.5625,24.8125,0
50530,6.5625,-30.6875,25.125,0
50550,3.9375,-31.0625,23.625,0
50570,0.8125,-31.1875,22.6875,0
50590,0.9375,-31,21.5625,0
50610,2.6875,-30.6875,19.8125,0
50630,0.9375,-30.0625,19.5,0
50650,-1,-30.125,20,0
50670,-0.3125,-28.8125,20.25,0
50690,2.0625,-28.875,17.3125,0
50710,-1.125,-29.1875,14.375,0
50730,-2.4375,-29.5,11.4375,0
50750,0.1875,-31.9375,6.8125,0
50770,2.125,-33.0625,3,0
50790,1.8125,-33,0.5,0
50810,3,-33.5,-0.5625,0
50830,1.8125,-32.5,-3.0625,0
50850,1.9375,-32.625,-6.1875,0
50870,4.9375,-32.8125,-7.375,0
50890,8.3125,-31.8125,-9.9375,0
50910,9.375,-31,-12.25,0
50930,8.9375,-29.6875,-13.5,0
50950,10.5,-30.0625,-13.5,0
50970,10.4375,-31.375,-14.875,0
50990,9.0625,-31.25,-15.8125,0
51010,6.0625,-30.1875,-14.8125,0
51030,6.1875,-32.375,-13.875,0
51050,4.75,-32.375,-15.1875,0
51070,6.0625,-32,-17.8125,0
51090,6.3125,-32.125,-20.25,0
51110,6.6875,-29.125,-20.125,0
51130,10.8125,-26.75,-22.625,0
51150,11.375,-25.8125,-22.3125,0
51170,9.0625,-29.5,-19.0625,0
51190,8.8125,-29.9375,-18,0
51210,5.9375,-27.1875,-17.8125,0
51230,4,-24.8125,-15.5625,0
51250,3.9375,-22.625,-16,0
51270,7,-25.5625,-19.0625,0
51290,11.625,-26.8125,-22.5625,0
51310,13.1875,-24.125,-25.5,0
51330,9.6875,-21.3125,-27,0
51350,8,-19.875,-27,0
51370,9.625,-21.25,-26.0625,0
51390,10.0625,-21.875,-25.0625,0
51410,7.1875,-21.8125,-24.5,0
51430,3.5,-19.875,-19.25,0
51450,3.8125,-20.625,-16.0625,0
51470,0,-25.9375,-15.6875,0
51490,1.625,-27.1875,-14.6875,0
51510,-2.4375,-24.625,-17.625,2001
51530,-4.625,-23.75,-16.1875,0
51550,-3.5625,-23,-13.75,0
51570,-2.8125,-19.5625,-12.6875,0
51590,-4,-14.625,-10.75,0
51610,-5,-9.125,-5.8125,0
51620,-4.875,-6.125,-2.1875,0
51640,-4.5625,-3,-0.6875,0
51660,-4.625,-0.75,-1.125,0
51680,-4.375,0.3125,-2.625,0
51700,-2.6875,-0.375,-3.25,0
51720,-0.9375,-0.8125,-2.0625,0
51740,0.1875,-2.1875,1.5,0
51760,1.0625,-1.5625,3.25,0
51780,0.0625,-0.5625,3.8125,0
51800,-1.5625,3.9375,5,0
51820,-2.25,8.0625,6.125,0
51840,-5.25,11.1875,8.375,0
51860,-4.875,13.875,6,0
51880,-4.1875,19.9375,3.125,0
51900,0.4375,24.6875,-1.1875,0
51920,-0.25,28.1875,0,0
51940,-2.125,35.0625,3.125,0
51960,-4.3125,44.1875,3.4375,0
51980,-10.5,55.875,7.6875,0
52000,-8.5,61.9375,11.6875,0
52020,-9.75,68.0625,11.75,0
52040,-15.1875,71.8125,12.4375,0
52060,-22.3125,75.875,18.1875,0
52080,-20.625,81.875,26.875,0
52100,-21.5,82.0625,34.375,0
52120,-20.9375,76.4375,42.3125,0
52140,-21.875,79.875,43.4375,0
52160,-19.75,84.25,44.1875,0
52180,-19.9375,80.875,55.125,0
52200,-15.8125,69.5,66.3125,0
52220,-9.125,63.1875,63.5,0
52240,-1.5,60.5625,55.1875,0
52260,2.4375,56.0625,54.625,0
52280,2,52.125,55.125,0
52300,9.6875,48.1875,57.1875,0
52320,16.875,40,64.8125,0
52340,20.625,35.75,66.5625,0
52360,20.875,34.5625,64.625,0
52380,18.125,34,66.1875,0
52400,17.5,31.25,64.5625,0
52420,20.8125,25.8125,62.875,0
52430,23.4375,20.625,61.625,0
52450,23.5,17.5,59.3125,0
52470,20.6875,13.875,56.625,0
52490,17,8.75,54.9375,0
52530,11.8125,-3.625,50.75,0
52550,9.125,-3.9375,48.8125,0
52570,5.25,-0.6875,47.0625,0
52590,0.9375,2,45.1875,0
52610,0.875,-0.0625,43.625,0
52630,1.5625,-0.125,41.25,0
52650,0.6875,1.6875,34.875,0
52670,0.75,2.25,30.5625,0
52690,1.3125,4.25,27.25,0
52710,0.875,4.375,25,0
52730,1.0625,2.0625,21.875,0
52750,1.25,1.5,16.9375,0
52770,4.125,1,12.625,0
52790,0.1875,0.3125,10.4375,0
52810,-0.5625,-1.875,7.25,0
52830,-0.3125,-3.0625,6.0625,0
52850,1.0625,-2.125,5,0
52870,-1.375,-1.8125,4.25,0
52890,-2.0625,-4.3125,5,0
52910,-3,-4.0625,4.3125,0
52930,-5,-1.3125,0.6875,0
52950,-7.5,0.5625,0.375,0
52970,-7.75,1.5,-0.0625,0
52990,-9.1875,2.5625,-0.8125,0
53010,-9.6875,3.875,1.875,2000
53030,-11.875,5.75,1.125,0
53050,-6.8125,5.6875,2.0625,0
53070,-5.25,4.8125,2.6875,0
53090,-2.125,2.625,1.875,0
53110,2.0625,-0.6875,2.375,0
53130,5.125,-1.9375,3.625,0
53150,5.25,-4.875,3.0625,0
53170,2.125,-5.375,2.6875,0
53190,0.5,-5.9375,-0.125,0
53210,3.5,-7.875,-1.75,0
53230,6.25,-11.375,-1.8125,0
53250,5.8125,-12.125,-3.1875,0
53270,2.875,-12.375,-4.625,0
53290,1.125,-14.8125,-5.5625,0
53310,1.9375,-19.3125,-4.3125,0
53330,2.9375,-20.75,-4.5625,0
53350,-0.25,-19.5625,-4.1875,0
53370,-4.375,-21.625,-1.875,0
53390,-3.875,-22.625,3,0
53410,-4.375,-20.5,5.8125,0
53430,-5.75,-18.25,5.4375,0
53450,-7.25,-18.1875,6,0
53470,-6.0625,-16.9375,5.0625,0
53490,-3.3125,-15.875,3.875,0
53500,-2.3125,-12.625,0.875,0
53530,-2.3125,-10.3125,-2.125,0
53550,-0.9375,-10.875,-3.875,0
53570,0.5,-11.75,-4,0
53590,0.375,-9.8125,-5.5,0
53600,0.25,-9.125,-7.375,0
53620,-0.6875,-7.8125,-8.5625,0
53640,-1.125,-7.5625,-7.625,0
53660,-4.25,-6.1875,-5.625,0
53680,-4.875,-5.375,-6.125,0
53700,-5.125,-5.9375,-7.5,0
53720,-4.8125,-4.6875,-8.5,0
53740,-5.9375,-2.9375,-7.375,0
53760,-6.0625,-2.25,-7.1875,0
53780,-7.25,-1.125,-8.4375,0
53800,-7.125,0.5,-10.5625,0
53820,-6.75,3.3125,-12.125,0
53840,-4.375,4.75,-14.4375,0
53860,-2.8125,4.9375,-16.1875,0
53880,-2,3.875,-16.3125,0
53900,-1.625,6.125,-17.3125,0
53920,-3.1875,7.4375,-19.125,0
53940,-2.5625,8.5,-19.5,0
53960,-3.625,10.8125,-20.3125,0
53980,-4.75,13.9375,-21.4375,0
54000,-5.75,16.8125,-21.4375,0
54020,-5.8125,17.75,-18.5625,0
54040,-5.125,20.4375,-15.875,0
54060,-6.625,21.5,-14.25,0
54080,-7.875,22.875,-14.25,0
54100,-7.875,21.4375,-16.0625,0
54120,-5.9375,18.5625,-15.875,0
54140,-4.4375,19.6875,-16.5,0
54160,-4.9375,20.375,-18.125,0
54180,-4.875,18.375,-19.6875,0
54200,-4.0625,16.3125,-18.8125,0
54220,-3.875,15.6875,-18.25,0
54240,-4.5625,14.9375,-19.3125,0
54260,-6,15.75,-20.3125,0
54280,-7.375,17.8125,-21.375,0
54300,-6.75,17.625,-21.875,0
54320,-6.0625,18.125,-22.625,0
54340,-7.5,18.8125,-24.8125,0
54360,-7.9375,19,-27.1875,0
54380,-8.1875,20.4375,-29.1875,0
54400,-8.5,21.5,-31.0625,0
54420,-7.125,19.5,-32.125,0
54440,-6.25,19.25,-32.3125,0
54460,-7,20.75,-32.9375,0
54480,-7.1875,22.3125,-34.375,0
54500,-5.5,23.0625,-35.625,0
54520,-5.5625,23.25,-36.1875,0
54540,-6.0625,24.1875,-36.4375,0
54560,-6.6875,24.9375,-35.875,0
54580,-8.4375,25.25,-35.3125,0
54600,-10.375,25.0625,-34.25,0
54620,-11.5,26.25,-32.6875,0
54640,-12.3125,26.5,-32.1875,0
54660,-11.75,26.5,-32.3125,0
54680,-11.9375,26.3125,-32.875,0
54700,-12.3125,25.5,-33.6875,0
54720,-11.625,24.25,-33.9375,0
54740,-11.9375,23.8125,-34.25,0
54760,-12.5,23.625,-34.5,0
54780,-13.375,23.4375,-34.8125,0
54800,-15.0625,24.375,-34.3125,0
54820,-14.4375,23.375,-34.1875,0
54840,-12.8125,23,-34.4375,0
54860,-12.9375,21.9375,-33.4375,0
54880,-12.6875,22.6875,-33.0625,0
54900,-13.5,23.4375,-32.375,0
54920,-15.0625,24.8125,-31,0
54940,-14.5625,23.9375,-29.125,0
54960,-13.125,22.1875,-27.0625,0
54980,-11.8125,21.875,-25.8125,0
55000,-13.25,23.0625,-25.4375,0
55020,-13.375,22.375,-24.125,0
55040,-13.75,20.75,-23.25,0
55060,-13.6875,19.125,-23.75,0
55080,-13.875,17.1875,-24.75,0
55100,-12.875,16.5,-24,0
55120,-13.5625,15.125,-23.125,0
55140,-13.5625,13.3125,-23.625,0
55160,-13.375,9.9375,-22.5625,0
55180,-10.9375,5.9375,-21.4375,0
55200,-9.625,4.5625,-20.125,0
55220,-10.25,5,-18.9375,0
55240,-12.1875,5.0625,-18.1875,0
55260,-13.9375,4.5625,-16.125,0
55280,-13.625,4.375,-14,0
55300,-14.6875,4.25,-11.9375,0
55320,-14.375,6.625,-9.9375,0
55340,-15.375,7.25,-8.9375,0
55360,-13.75,6.1875,-6.75,0
55380,-11.1875,4.8125,-5.625,0
55400,-10.375,4.4375,-3.75,0
55420,-11.375,6.75,-1.5625,0
55440,-12.5625,10.1875,-0.6875,0
55460,-9.125,8.625,2.125,0
55480,-6.875,5.25,3.25,0
55500,-5.4375,3.875,4.4375,0
55520,-8.9375,6.75,7.6875,0
55540,-9.75,4,8.8125,0
55560,-6.375,0.0625,9.125,0
55580,-2.1875,-1.875,8.25,0
55600,-3.5625,-0.8125,9.125,0
55620,-4.125,-2.0625,11.6875,0
55640,-3.8125,-2.625,10.875,0
55660,-2.625,-3.25,10.125,0
55680,-5.125,-2.1875,11.0625,0
55700,-2.5,-2.375,11.75,0
55720,-2.75,-4.0625,13.0625,0
55740,1.25,-6.75,11.8125,0
55760,-0.0625,-8.1875,11.5,0
55780,-0.625,-6.5,14.1875,0
55800,-3.5,-4.3125,18.4375,0
55820,-2.5625,-4,17.125,0
55840,-1.0625,-5.9375,15.125,0
55860,2,-3.75,14.6875,0
55880,-0.3125,-0.3125,15.8125,0
55900,-4.5625,-0.25,19.3125,0
55920,-3.125,-0.25,19,0
55940,-1.125,-1.25,15.6875,0
55960,2.625,-1.125,16.5625,0
55980,5.25,-1.9375,18.6875,0
56000,5.375,-2.4375,17.4375,0
56020,4.9375,-0.0625,15.9375,0
56040,6.75,-0.3125,15.375,0
56060,7.6875,-2.8125,15.1875,0
56080,9.6875,-5.9375,13.375,0
56100,9.1875,-6.125,13.875,0
56120,9.8125,-7.1875,13.1875,0
56140,7.6875,-8.0625,14.875,0
56160,4.0625,-8.4375,14.1875,0
56180,2.75,-7.75,13.75,0
56200,6.375,-9.625,13.0625,0
56220,8.4375,-10.25,14.75,0
56240,6.875,-9.125,13.25,0
56260,4.75,-9,12.5,0
56280,4.625,-10.375,14.1875,0
56300,6.125,-12.5,14.8125,0
56320,8.0625,-14.0625,13.75,0
56340,7.875,-15.375,13.125,0
56360,6.6875,-16.125,12.875,0
56380,6.1875,-17.9375,13.0625,0
56400,5.25,-18.8125,13.1875,0
56420,5.6875,-20,13.75,0
56440,7.25,-19.8125,14,0
56460,6.4375,-20,14.125,0
56480,5.5,-20,14.25,0
56500,4.625,-21.1875,13.25,0
56520,5,-20.6875,14.5625,0
56540,5.75,-18.625,14.8125,0
56560,5.75,-18.625,13.6875,0
56580,6.125,-19.1875,14.8125,0
56600,5.5625,-19.25,14.5,0
56620,4.9375,-18.3125,16,0
56640,4.3125,-16.3125,17.9375,0
56660,5.125,-16.625,19.1875,0
56680,4.4375,-17.375,21.4375,0
56700,3.375,-17,22.25,0
56720,2,-17.375,22.1875,0
56740,2.8125,-18.75,22.6875,0
56760,2.0625,-19.75,22.9375,0
56780,2.625,-18.5625,23,0
56800,2.875,-17.0625,22.4375,0
56820,4.1875,-17.625,21.4375,0
56840,5.3125,-17.375,22.5,0
56860,8.5,-17.25,22.3125,0
56880,9.4375,-18.3125,20.1875,0
56900,9.75,-18.0625,19,0
56920,11.25,-19.25,19.4375,0
56940,10.8125,-21.5,18.6875,0
56960,9.125,-22.875,19,0
56980,9.0625,-23.1875,18.5,0
57000,7.5625,-25.0625,18.8125,0
57010,6.25,-26,19.5625,0
57030,5.9375,-26.4375,19.4375,0
57050,6.1875,-27.5,19.5625,0
57070,5.8125,-29,18.75,0
57090,5.4375,-29.625,19.3125,0
57110,8.6875,-30.625,18.1875,0
57130,11.125,-31.375,16.1875,0
57150,9.625,-31.6875,14.5625,0
57170,7.5,-31.3125,13.0625,0
57190,7.8125,-31.6875,14.5625,0
57210,7.9375,-30.5,15.8125,0
57230,8,-30.3125,14.9375,0
57250,4.8125,-30.4375,15.6875,0
57270,2,-30.5,16.25,0
57290,0.875,-30,17.125,0
57310,2.4375,-29.6875,16.0625,0
57330,2.625,-29.4375,14.9375,0
57350,2.5,-29,14.75,0
57370,0.75,-28.3125,12.9375,0
57390,1.625,-28.6875,11.1875,0
57410,2.4375,-29.25,9.375,0
57430,3.1875,-30.25,8.4375,0
57450,0.4375,-31.3125,7.5625,0
57470,0,-33.875,5.125,0
57490,-0.8125,-36.3125,4.0625,0
57510,-1.5625,-36.8125,3.8125,0
57530,-3.0625,-35.625,2.75,0
57550,-2.6875,-34.125,-0.125,0
57570,-2.1875,-34.125,-3.4375,0
57590,-0.5,-32.75,-4.375,0
57610,0.25,-31.9375,-6.5,0
57630,-0.0625,-30.5,-10,0
57650,1.125,-30.75,-12.1875,0
57670,2.25,-29.6875,-13.875,0
57690,2.25,-26.9375,-17.375,0
57710,2.25,-26.625,-19.4375,0
57730,2.8125,-25.5,-19.125,0
57750,4.375,-26.9375,-22.1875,0
57770,4.125,-25.8125,-23.3125,0
57790,0.4375,-22.875,-20.0625,0
57810,-2.1875,-19.5625,-18.875,0
57830,-4.4375,-18.5,-18.375,0
57850,-4.5,-18.875,-20.5,0
57870,-4.125,-17.3125,-21.75,0
57890,-5.9375,-16.1875,-23.9375,0
57910,-4,-15.75,-24.6875,0
57930,-5.6875,-13.1875,-23.5,0
57950,-4.125,-11.5625,-24.3125,0
57970,-5.25,-10.875,-23.6875,0
57990,-6.5,-7.6875,-21.8125,0
58010,-11.25,-0.375,-19.1875,0
58030,-11.0625,2.9375,-20.6875,0
58050,-10.9375,4.25,-20.8125,0
58070,-11.5,6.5625,-21.3125,0
58090,-11.125,9.75,-22.875,0
58110,-14.1875,13.8125,-24.75,0
58130,-14.6875,16.25,-25.625,0
58150,-15.25,18.875,-24.375,0
58170,-16.8125,19.625,-25.8125,0
58190,-19.9375,21.25,-29.8125,0
58210,-22.6875,23.375,-32.0625,0
58230,-23.1875,25.6875,-34.125,0
58250,-22.75,26.75,-34.3125,0
58270,-23.875,25.5625,-35.75,0
58290,-25.25,25.0625,-36.875,0
58310,-24.9375,26.25,-38.125,0
58330,-25.25,26.3125,-36.625,0
58350,-24.5,25,-36.4375,0
58370,-23,22.5,-36.6875,0
58390,-23,21.375,-36.8125,0
58410,-22.3125,20.3125,-36.3125,0
58430,-21.75,20.4375,-35.625,0
58450,-20.25,20.3125,-33.6875,0
58470,-19.4375,19.875,-32.375,0
58490,-18.9375,18.75,-30.4375,0
58510,-17.5625,19.5625,-28,0
58530,-17.5,21.75,-25,0
58550,-17.4375,24.125,-23.9375,0
58570,-15.8125,23.5,-23.1875,0
58590,-15.625,25,-21.9375,0
58610,-15.6875,27.125,-19.375,0
58630,-13.875,28.0625,-18.0625,0
58650,-14.5625,27.375,-17.5625,0
58670,-14.875,26.625,-16.5625,0
58690,-14.5,26.1875,-15.3125,0
58710,-13.4375,25.125,-16.125,0
58730,-13,24.125,-18.6875,0
58750,-13.6875,22.9375,-19.875,0
58770,-12.5,22.875,-19.5625,0
58790,-11.375,22.4375,-19.5625,0
58810,-12.5,22.25,-19.8125,0
58830,-13.4375,22.875,-19.4375,0
58850,-15.6875,23.125,-17.4375,0
58870,-14.875,22.5,-15.4375,0
58890,-14.5625,21.875,-15.5625,0
58910,-16.8125,20.5,-15.4375,0
58930,-17.875,20.875,-14,0
58950,-16.375,19.5625,-14.125,0
58970,-15.5625,17.1875,-13.625,0
58990,-15.8125,17.75,-14.1875,0
59000,-17.4375,17.3125,-13.0625,0
59020,-15.875,17.5625,-10.3125,0
59040,-14.875,18.25,-7.9375,0
59060,-15.5,20.1875,-7.8125,0
59080,-18.875,20.3125,-5.9375,0
59100,-20.875,18.125,-1.6875,0
59120,-19.75,18.1875,0.5,0
59140,-17.875,19.6875,3.4375,0
59160,-18.375,19.1875,8.1875,0
59180,-15.1875,16.6875,7.5625,0
59200,-16.25,15.5,8.4375,0
59220,-17.625,14.3125,9.4375,0
59240,-14.875,10.4375,10.375,0
59260,-12.6875,6,7.875,0
59280,-11.5625,4.125,6.1875,0
59300,-11.6875,5.375,5.75,0
59320,-11.25,7.875,9.625,0
59340,-7.0625,7.3125,10.25,0
59360,-5.0625,4.4375,10.75,0
59380,-5.9375,4.625,12.125,0
59400,-5.1875,5.625,11.4375,0
59420,-7.5625,4.5625,14.5,0
59440,-5.1875,4.6875,15.875,0
59460,-3.125,4.25,15.1875,0
59480,-0.3125,1.125,15.8125,0
59500,-2.25,-0.375,15.1875,0
59520,-1.6875,-0.5,14.125,0
59540,-2.5,0.1875,15.625,0
59560,-0.1875,0.75,16.1875,0
59580,1.0625,0.25,16.625,0
59600,0.1875,-0.875,16.875,0
59620,1.0625,0.5625,18.25,0
59640,4.4375,-0.0625,17.0625,0
59660,3.9375,-0.3125,18.5,0
59680,4.25,-1.0625,17.875,0
59700,3.9375,-1.5,18.125,0
59720,4.875,-1.625,19.1875,0
59740,6.9375,-3.625,19,0
59760,9.0625,-6,17.875,0
59780,7.0625,-5.875,16.9375,0
59800,7.5625,-7.5625,17.9375,0
59820,8,-10.1875,18.5,0
59840,7.9375,-10.8125,17.875,0
59860,8.375,-11.125,18.25,0
59880,8.1875,-12,18.5625,0
59900,8.5,-12.8125,18.875,0
59920,9.25,-13.4375,18.9375,0
59940,8.5625,-13.375,18.9375,0
59960,10.125,-13.375,18.3125,0
59980,13.4375,-14.125,17.9375,0
60000,16.8125,-15.375,16.8125,0
60020,14.875,-14.75,18,0
60040,14.6875,-14.625,17.4375,0
60060,15.6875,-14.4375,17.375,0
60080,18.375,-14.125,18.0625,0
60100,17,-14.125,18.5,0
60120,16.3125,-13.5625,18.4375,0
60140,15.1875,-13.9375,18.0625,0
60160,13.8125,-15.9375,18.0625,0
60180,12.6875,-17.1875,18.625,0
60200,11.6875,-16.9375,17.75,0
60220,12.25,-16.1875,16.125,0
60240,12.875,-16,16.1875,0
60260,13.4375,-16.25,15.25,0
60280,12.8125,-17,13.75,0
60300,11.75,-16.5,12.625,0
60320,13.4375,-16.5625,11.5625,0
60340,13.1875,-17.75,13.125,0
60360,10.4375,-17.5625,13.5625,0
60380,7.8125,-17.25,14.5,0
60400,8.6875,-17.8125,13.3125,0
60420,7.75,-19.0625,13.1875,0
60440,7.0625,-18.375,15.125,0
60460,6.3125,-16.75,16,0
60480,6.5625,-16.5625,15.8125,0
60500,6.375,-16.8125,16.5625,0
60520,5.5625,-17.5625,16.1875,0
60540,6.625,-17.625,15.875,0
60560,7.3125,-19.0625,15.0625,0
60580,8.1875,-21.0625,14,0
60600,7.9375,-22.625,13.1875,0
60620,6.5,-23.6875,12.75,0
60640,5.875,-25.0625,11.5,0
60660,5.375,-24.0625,9.875,0
60680,6.125,-23.125,9.125,0
60700,7.5,-23.3125,8.6875,0
60730,8.25,-23.5,4.75,0
60750,9.3125,-23.0625,4,0
60770,11.5,-23.125,3.625,0
60790,15.4375,-24.875,1.25,0
60810,15.6875,-27.375,0.75,0
60830,14.875,-27.5625,-0.4375,0
60850,15.1875,-27.6875,-2.5,0
60870,12.3125,-26.4375,-0.375,0
60890,12.8125,-27.5625,-0.875,0
60910,12.4375,-29.125,-2.8125,0
60930,12.4375,-30.75,-4,0
60950,10.25,-30.0625,-5.6875,0
60970,7.8125,-31.25,-5.8125,0
60990,5.5625,-32.625,-6.875,0
61010,7.9375,-34.1875,-8.4375,0
61030,10.625,-34.4375,-9.0625,0
61050,11.6875,-33.9375,-10,0
61070,8.625,-32.1875,-9.0625,0
61090,8.125,-30.375,-8.9375,0
61110,11.4375,-29.8125,-10.125,0
61130,16.3125,-30.75,-11.25,0
61150,16.1875,-31.4375,-13,0
61170,15.125,-31.5625,-12.625,0
61190,14.6875,-32,-14,0
61210,13.625,-32.5,-13.9375,0
61230,12.1875,-32.0625,-14.125,0
61250,9.8125,-32.625,-13.625,0
61270,8.875,-31,-12.6875,0
61290,7.5625,-29.0625,-14.4375,0
61310,3.5625,-27.6875,-13.5625,0
61330,1.9375,-26.9375,-13.0625,0
61350,1.3125,-24.875,-14.0625,0
61370,1.4375,-24.75,-17.0625,0
61390,-2,-23.375,-16.875,0
61410,-2.5625,-22.875,-17.9375,0
61430,-3.125,-22.625,-19.625,0
61450,-2.6875,-20.6875,-23.3125,0
61470,-5.125,-18.625,-23.875,0
61490,-7.125,-15.875,-25.125,0
61510,-8.5,-12.9375,-26.25,0
61530,-7,-11.4375,-27.875,0
61550,-9.1875,-8.1875,-26.9375,0
61570,-10.375,-5.5625,-27.9375,0
61590,-10.375,-3.8125,-27.1875,0
61610,-10.0625,-2.75,-26.875,0
61630,-10,-1.8125,-28.3125,0
61650,-13.6875,0.9375,-27.3125,0
61670,-14.5,5.4375,-27.75,0
61690,-11,6.8125,-27.9375,0
61710,-9.0625,7.4375,-27.0625,0
61730,-10.9375,7.4375,-26.8125,0
61750,-12.5,9.125,-26.875,0
61770,-10.375,10.125,-26.5,0
61790,-11.375,11.4375,-25.9375,0
61810,-11.9375,12.875,-27.1875,0
61830,-12.3125,13.0625,-28.4375,0
61850,-10.4375,10.5625,-30.0625,0
61870,-9.125,8.0625,-29.75,0
61890,-9.875,8.25,-31.125,0
61910,-14.1875,11.5,-30.1875,0
61930,-18.375,14.75,-26.875,0
61950,-18.375,13.5625,-25.25,0
61970,-19.25,12.625,-25.5,0
61990,-22.4375,12.625,-24.25,0
62010,-23.8125,13.6875,-23.625,0
62030,-26.375,16.8125,-23.4375,0
62050,-27.3125,18.5,-23.8125,0
62070,-27.8125,18.75,-23.9375,0
62090,-27.25,17,-24.125,0
62110,-27.25,15.9375,-24.25,0
62130,-27.5625,17.125,-24.25,0
62150,-30,19.9375,-23,0
62170,-30.9375,20.25,-21.0625,0
62190,-29.25,19.1875,-19.5625,0
62210,-28.625,18.5,-19.625,0
62230,-29.125,18.5625,-19.3125,0
62250,-29.1875,20.8125,-17.4375,0
62270,-30.125,25,-15.5,0
62290,-28.75,28.6875,-13.875,0
62310,-28.5,30.5,-12.75,0
62330,-29.3125,29.5625,-11.75,0
62350,-26.625,29.375,-12,0
62370,-26,29.75,-10.75,0
62390,-25.625,30.5,-9.5,0
62410,-25.25,30.375,-8.25,0
62420,-25.375,30.6875,-7.625,0
62440,-25.8125,32.25,-4.5625,0
62460,-23.1875,32.5,-1.5625,0
62480,-20.875,32.625,-1.25,0
62500,-22.9375,31.5625,-0.75,0
62520,-23.0625,30.8125,1.4375,0
62540,-19.375,31.0625,1.875,0
62560,-16.3125,28.125,1.8125,0
62580,-14.5625,25.8125,1.4375,0
62600,-14.4375,23.4375,0.3125,0
62620,-13.0625,22.125,0.6875,0
62640,-8.5625,20,-0.875,0
62660,-6.125,17.875,0.5,0
62680,-5.25,17.125,0.375,0
62700,-2.8125,16.5625,-1.125,0
62720,-2.5625,18.0625,0.6875,0
62740,-4.75,19,4,0
62760,-5.875,17.6875,6.25,0
62780,-6.625,18.75,6.9375,0
62800,-3.25,18.375,4.4375,0
62820,-4.0625,18.3125,6.3125,0
62840,-11.4375,19.0625,11.375,0
62860,-11,18.5,11.8125,0
62880,-8.0625,19.5625,9.6875,0
62900,-8.25,20.9375,9.4375,0
62920,-4.9375,22.875,7.25,0
62940,-5.875,22,6.0625,0
62960,-6.1875,20.3125,8.125,0
62980,-7.25,22.5625,7.5625,0
63000,-7.5,23.75,6.375,0
63020,-6.875,22.9375,7.4375,0
63040,-5.3125,21.75,8.625,0
63060,-6.25,21.625,9.375,0
63080,-5.8125,21.9375,10.125,0
63100,-5.1875,19.875,9.9375,0
63120,-1.375,18.375,9,0
63140,-0.8125,18.6875,7.4375,0
63160,-1,16.1875,9.0625,0
63180,-0.5625,14,9.75,0
63200,-2.0625,12.125,9.5625,0
63220,0.625,11.625,11,0
63240,2.5625,10.25,15.625,0
63260,0.375,6.5625,17.6875,0
63280,-1.3125,3.9375,17.5,0
63300,0.3125,2.5,18.625,0
63320,-2.25,-1,20.1875,0
63340,-2,-2,23.0625,0
63360,-1.0625,-0.75,22.625,0
63380,1.1875,-2.6875,22.375,0
63400,0.625,-5.25,22.1875,0
63420,1.5,-4.75,23,0
63440,2.8125,-2.8125,22.9375,0
63460,6.4375,-2.0625,23.25,0
63480,5.25,-2.3125,23.6875,0
63500,5.4375,-1.9375,22.625,0
63520,5.25,-0.6875,22.125,0
63540,9.0625,-1.25,20.25,0
63560,9.3125,-3.125,19.8125,0
63580,8.3125,-5.5,18.75,0
63600,6.3125,-7.8125,17.5,0
63620,6.5,-8.1875,15.5,0
63640,7.125,-11.625,15.1875,0
63660,7.4375,-14.375,15.25,0
63680,5.625,-15.0625,14.875,0
63700,5.9375,-14.875,15.125,0
63720,6.6875,-14.5625,14.25,0
63740,7,-15,13.8125,0
63760,7.875,-14.75,12.8125,0
63780,8.9375,-16.5,12.8125,0
63800,10.75,-16.875,12.625,0
63820,8.875,-15.5625,13.75,0
63840,5.9375,-14.5625,14.9375,0
63860,4.1875,-16.4375,15.75,0
63880,4.375,-15.625,16.3125,0
63900,6.0625,-15.6875,17.0625,0
63920,6.875,-16.875,16.375,0
63940,5.1875,-16.25,16.75,0
63960,4.875,-15.9375,15,0
63980,7.6875,-15.625,14,0
64000,9,-15.375,14.1875,0
64020,9.8125,-16,13.625,0
64040,9.6875,-16.875,13.25,0
64060,9.1875,-16.4375,12.9375,0
64080,9.4375,-14.5,14.1875,0
64100,8.0625,-15.375,14.875,0
64120,7.3125,-16.8125,15.625,0
64140,5.875,-17.3125,16,0
64160,6,-16.625,16.375,0
64180,7.5625,-16.25,15,0
64200,7.3125,-17,15.125,0
64220,8.5,-17.625,13.75,0
64240,10,-19.5,12.625,0
64260,10.5625,-20.25,12.0625,0
64280,9.4375,-22.0625,13.5625,0
64300,6.25,-23.8125,14.4375,0
64320,2.6875,-26.5625,14,0
64340,-0.625,-29,15,0
64360,-1.375,-31.5625,14.6875,0
64380,-1.875,-34.25,13.875,0
64390,-1.375,-36.375,13.5625,0
64410,-2.9375,-37.375,11.9375,0
64430,-3.375,-36.9375,12.25,0
64450,-2.6875,-38.25,11,0
64470,0,-38.9375,8.6875,0
64490,1.4375,-38.6875,6.375,0
64510,1.6875,-36.75,4.625,0
64530,2.6875,-36.8125,2.25,0
64550,3.5625,-38.4375,1,0
64570,4.4375,-36.5625,-0.6875,0
64590,5.0625,-33,-2.3125,0
64610,4,-32.125,-3.3125,0
64630,3,-34.6875,-4.375,0
64650,3.5,-37.1875,-6.3125,0
64670,0.1875,-35.5625,-7.375,0
64690,-1.1875,-32.5625,-7.5,0
64710,-1.5625,-30.6875,-7.8125,0
64730,-2,-32,-9,0
64750,-0.9375,-33.6875,-10.875,0
64770,-0.6875,-33.125,-10.5625,0
64790,-0.1875,-31.0625,-12.8125,0
64810,-1.0625,-30.5625,-14.0625,0
64830,-0.625,-30.5,-15.8125,0
64850,-1.75,-29.9375,-17.8125,0
64870,-1,-28.875,-19,0
64890,-0.4375,-27.5625,-19.625,0
64910,2.375,-27.5625,-21.25,0
64930,3.25,-27.3125,-23.375,0
64950,1.1875,-26.375,-25.1875,0
64970,-1.75,-26.5625,-24.25,0
64990,-4,-26.6875,-24.8125,0
65010,-5.9375,-25.5,-27.5,0
65030,-4.5625,-25.4375,-28.6875,0
65050,-5.625,-24.3125,-29.6875,0
65070,-6.0625,-22.3125,-30.8125,0
65090,-8.4375,-19.625,-33.1875,0
65110,-10,-17.4375,-34,0
65130,-9.875,-16,-33.875,0
65150,-6.75,-14.375,-35.5625,0
65170,-7.0625,-9.5,-35,0
65190,-10.8125,-6.125,-33,0
65210,-11.875,-5.5625,-32,2001
65230,-11,-6.5,-29.25,0
65250,-12.9375,-7,-24.0625,0
65270,-16.9375,-6.75,-17.625,0
65290,-16.5,-9,-10,0
65310,-13.875,-7.1875,-1.6875,0
65330,-15.25,-3.5625,1.9375,0
65350,-12.125,-4.4375,4.875,0
65370,-10.6875,-2.625,4.0625,0
65390,-6.375,-1.8125,4.8125,0
65410,-3.3125,-1.4375,6.5,0
65430,0.25,-0.9375,2.6875,0
65450,4.3125,2.25,0.75,0
65470,3.5,2.1875,-0.9375,0
65490,8.875,2.0625,-0.0625,0
65510,10.0625,2.5,-0.375,0
65530,10.625,4.8125,3.125,0
65550,9.4375,5.6875,3.5625,0
65570,8.25,6.3125,1.625,0
65590,9.5,7.5,0.625,0
65610,7.875,10.25,-0.5625,0
65630,5.1875,14.5,-0.4375,0
65650,4.3125,18.8125,-3.375,0
65670,1.9375,23.5,-5.5,0
65690,1.3125,28.375,-5.375,0
65710,0.0625,30.5625,-4.625,0
65730,2.125,33.4375,-0.1875,0
65750,-0.6875,37.5,4.8125,0
65770,-3.4375,42,9.625,0
65790,-0.6875,43.5,11.6875,0
65810,-5,49.0625,12.375,0
65830,-3.625,53.5625,19.5625,0
65850,-3.375,58.4375,27.25,0
65870,-1,58.625,35.6875,0
65890,2.5625,59.1875,45.9375,0
65910,1.875,62.125,54.3125,0
65930,-1.5625,65.9375,59,0
65950,1.625,66.9375,60.875,0
65970,6.875,63.3125,70.9375,0
65990,11.375,59.125,81.875,0
66010,13.4375,57.5625,86.9375,0
66030,20.1875,55.125,91.1875,0
66050,22.875,54.5625,95.0625,0
66070,24.1875,51.625,96.0625,0
66090,31.3125,45.75,95.25,0
66110,35.5,42.1875,93.1875,0
66130,35.4375,36.9375,87.125,0
66150,37.0625,33.25,80.9375,0
66170,37.875,27.25,77.75,0
66190,37.375,19.375,74.5625,0
66210,39,12,71.375,0
66230,37,7.3125,68.5,0
66250,31,5.0625,63.0625,0
66270,26.75,4.9375,54.875,0
66290,23.9375,3.9375,51.625,0
66310,20.8125,5.0625,47.0625,0
66330,16.0625,7.4375,43.6875,0
66350,11.875,8.3125,38.75,0
66370,10.9375,8.125,34.5625,0
66390,8.6875,5.375,30.4375,0
66410,10.125,4.0625,27.9375,0
66430,7.1875,4.3125,25.5,0
66450,4,6,22.5625,0
66470,3.4375,5.5,20,0
66490,1.9375,3.875,21.875,0
66510,2.25,4.0625,21.25,0
66540,1.625,2.9375,15.25,0
66560,0.6875,2.25,13.25,0
66580,1,0.75,12.5625,0
66600,3.9375,-1.25,10.375,0
66620,4.5625,-2.625,6.75,0
66640,3.25,-2.9375,5.1875,0
66660,1.75,-3,5.25,0
66680,0.4375,-1.6875,5.6875,0
66700,-2.5625,-0.5625,5.0625,0
66720,-3.875,0.3125,2.625,0
66740,-2.625,-0.8125,2.25,0
66760,-1.5,-1.6875,2.5,0
66780,-2.375,-1.5,0.25,0
66800,-2.875,-3.1875,0.3125,2000
66820,-5.75,-2.1875,0.75,0
66840,-3.9375,-3.1875,1.125,0
66860,-3.4375,-5,2.9375,0
66880,-1.8125,-6.6875,3.1875,0
66900,-0.25,-6.25,3.1875,0
66920,2.0625,-6.875,2.1875,0
66940,4.8125,-8.375,3.0625,0
66960,4.9375,-7.6875,2.3125,0
66980,5.8125,-7.5625,1.8125,0
67000,3.75,-7.6875,1.25,0
67010,4.9375,-8,1.8125,0
67030,5.5625,-10.0625,2,0
67050,2.75,-12.125,3.9375,0
67070,0.4375,-13.1875,1.875,0
67090,1.25,-15.25,1.625,0
67110,0.3125,-18.625,-0.5625,0
67130,0.6875,-20.5625,-4.6875,0
67150,-1.6875,-19.375,-8.125,0
67170,-4.25,-18.1875,-9.375,0
67190,-5.375,-19.4375,-4.75,0
67210,-8.9375,-19.3125,-0.4375,0
67230,-12.1875,-17.3125,-2.0625,0
67250,-15.8125,-14.25,-1.5,0
67270,-13.875,-13.3125,-1.9375,0
67290,-11,-12.4375,-0.875,0
67310,-11.125,-11.75,-1.375,0
67330,-10.5625,-11.4375,-4.375,0
67350,-10.625,-10.6875,-7,0
67370,-9.25,-8.9375,-8.625,0
67390,-9.9375,-5.8125,-9.125,0
67410,-8.8125,-4.25,-9.625,0
67430,-8.4375,-1.5,-11.375,0
67450,-7.3125,1.0625,-14.625,0
67470,-7.75,1.8125,-15.75,0
67490,-7.1875,4.25,-15.8125,0
67510,-6.6875,4.625,-16.4375,0
67530,-8.125,6.0625,-16.375,0
67550,-8.5,7.25,-17.75,0
67570,-12.125,9,-18.3125,0
67590,-15.75,9.4375,-17.1875,0
67610,-16.0625,11.625,-16.5625,0
67630,-14,14.6875,-18.5625,0
67650,-12.4375,15.6875,-21.1875,0
67670,-13,16.9375,-20.125,0
67690,-13.375,17.875,-18.8125,0
67710,-14.1875,17.75,-18.8125,0
67730,-14.0625,19.125,-18.75,0
67750,-11.875,21.6875,-19.9375,0
67770,-13.375,23.8125,-20.1875,0
67780,-15.0625,24.375,-20,0
67800,-15.5,27,-20.25,0
67820,-13.75,29,-21.25,0
67840,-12.875,27.625,-19.8125,0
67860,-13.625,26.125,-17.4375,0
67880,-14.3125,25.125,-17.4375,0
67900,-15.5625,25.125,-17.5,0
67920,-16.1875,25.0625,-17.25,0
67940,-18.4375,24.9375,-17.25,0
67960,-17.4375,24.5625,-17.9375,0
67980,-16.25,25.3125,-17.25,0
68000,-15.8125,25.375,-17.6875,0
68020,-13.875,24.875,-20.25,0
68040,-13.375,25.6875,-24.125,0
68060,-12.25,26.125,-26.5625,0
68080,-10.9375,26.75,-29.3125,0
68100,-10.8125,25.375,-29.5,0
68120,-9.75,24.9375,-28.9375,0
68140,-9.375,25.875,-28.75,0
68160,-10,27,-29.0625,0
68180,-11.75,27.5625,-29.875,0
68200,-12.75,27.8125,-29.9375,0
68220,-13.25,28.9375,-30.125,0
68240,-14.75,30,-30.75,0
68260,-16.5,30.9375,-30.3125,0
68280,-16.75,31.5625,-29.8125,0
68300,-17.125,32,-29.1875,0
68320,-17.1875,33.375,-28.9375,0
68340,-18.5,35.625,-29.3125,0
68360,-19.375,35.9375,-29.125,0
68380,-18.5,36.3125,-27.4375,0
68400,-18.0625,36.3125,-26.3125,0
68420,-18.4375,37.0625,-25.4375,0
68440,-18,37.5625,-24.3125,0
68460,-16.4375,38,-24.625,0
68480,-15.5,37.3125,-25.875,0
68500,-12.9375,36.5,-26.625,0
68520,-12.5,36.0625,-28.6875,0
68540,-12.75,37.5,-31.1875,0
68560,-12.125,36.6875,-33,0
68580,-11,36.375,-34.125,0
68600,-9.625,35.5,-34.25,0
68620,-8.4375,34.5,-35,0
68640,-8.5,34.125,-35.4375,0
68660,-8.0625,34.4375,-34.75,0
68680,-7.625,33.1875,-31.0625,0
68700,-5.375,30.75,-26.375,0
68720,-5.1875,30.5625,-21.6875,0
68740,-5.4375,31.25,-18,0
68760,-6.25,31.75,-14.6875,0
68780,-6.25,31.25,-14.1875,0
68800,-4.4375,30,-12.75,0
68820,-2.5,29,-12.3125,0
68840,1.6875,26.9375,-11.6875,0
68860,2.875,27.1875,-11.125,0
68880,3.4375,26.625,-10.75,0
68900,3.125,26.0625,-9.125,0
68920,2.75,22.0625,-6.9375,0
68940,3.9375,19.1875,-5.5625,0
68960,3.125,16.5625,-3.5,0
68980,3.75,16.6875,-2.25,0
69000,3.375,18.5625,-1.3125,0
69020,0.0625,19.4375,0.375,0
69040,0.9375,17.125,2.9375,0
69060,1,13.6875,6.0625,0
69080,3.125,11.75,6.25,0
69100,2.6875,14.125,6.0625,0
69120,0,13.375,4.875,0
69140,0.1875,11.375,5.25,0
69160,3.1875,8.75,5.9375,0
69180,4.0625,8.8125,5.375,0
69200,2.5,8.1875,2.9375,0
69220,2.5625,5.4375,1.8125,0
69240,3.3125,5.9375,1.5625,0
69260,5.4375,4.5,0.9375,0
69280,4.625,4.5,-0.125,0
69300,4.5625,3.9375,-0.75,0
69320,4.5625,3.0625,-1.375,0
69340,3.625,2.625,-0.5,0
69360,2.5625,2.375,0.4375,0
69380,3.625,3.5,-0.0625,0
69400,3.0625,3.5625,0.1875,0
69420,1.4375,3.0625,4.375,0
69440,2,1.6875,6.0625,0
69460,4.875,0.1875,6.6875,0
69480,8.5,-1.875,6.375,0
69500,9,-0.5,5.1875,0
69520,8.5,-0.0625,5.0625,0
69540,7.875,-1,5.5625,0
69560,12.1875,-2.9375,6.3125,0
69580,13.625,-4.3125,9.6875,0
69600,12.125,-6.25,11.5625,0
69620,10.5,-7.375,10.625,0
69640,9.875,-7.375,9.125,0
69660,10.0625,-8.4375,12.4375,0
69680,10,-12,14.9375,0
69700,10.3125,-11.75,16,0
69720,9.625,-11.1875,17.3125,0
69740,8.3125,-10.625,18.0625,0
69750,8.3125,-10.5625,17.875,0
69770,9.625,-12,16.125,0
69790,11.8125,-13.125,14.25,0
69810,11.125,-12.375,11.625,0
69830,10.4375,-12.125,11.375,0
69850,10.4375,-11.3125,12.125,0
69870,10.875,-12.8125,12.5625,0
69890,11.6875,-14.5,13.0625,0
69910,10.4375,-14.6875,12.9375,0
69930,9.4375,-15.4375,14.0625,0
69950,7.625,-16.125,14.875,0
69970,6.6875,-16.125,16.25,0
69990,6.25,-16.75,17.875,0
70010,4.125,-18.125,19.8125,0
70030,3.9375,-17.5,18.625,0
70050,4.8125,-16.5625,18.5625,0
70070,6.9375,-18.625,19.6875,0
70090,6,-19.25,19.375,0
70110,5.625,-17.375,19,0
70130,3.375,-17.4375,18.5,0
70150,4.3125,-18.8125,18.25,0
70170,5.75,-19.6875,19.0625,0
70190,7.875,-20.125,17.6875,0
70210,5.9375,-21.1875,16.75,0
70230,2.875,-20.75,17,0
70250,2.0625,-21,15.125,0
70270,3.8125,-22.25,15.3125,0
70290,4.4375,-24.0625,15.625,0
70310,2.25,-23.6875,15.75,0
70330,2.625,-23.3125,16.8125,0
70350,2.5625,-24.875,16.1875,0
70370,1.625,-25.875,16.25,0
70390,0.75,-24.375,16.4375,0
70410,0.5,-24.8125,17.125,0
70430,1.9375,-25.25,18.1875,0
70450,2.625,-24.75,17.875,0
70470,1.9375,-24.25,17.625,0
70490,0.75,-23.5625,19,0
70510,1.1875,-23.1875,20.125,0
70530,1.8125,-22.375,21.6875,0
70550,1.625,-21.25,22.5625,0
70570,-0.3125,-20.5,23.6875,0
70590,0.125,-19.1875,23.8125,0
70610,1.625,-19.3125,23.75,0
70630,2.9375,-19.5,23.6875,0
70650,4.6875,-19.125,21.9375,0
70670,5.1875,-19.4375,21,0
70690,7.625,-20.1875,17.9375,0
70710,11.4375,-20.3125,15.25,0
70730,14.3125,-20.0625,13.875,0
70750,15.875,-20.125,12.5625,0
70770,17.1875,-21.625,11,0
70790,15.75,-23.3125,11.4375,0
70810,14.4375,-24.8125,12.0625,0
70830,12.1875,-25.5,11.1875,0
70850,10.375,-26.6875,10.25,0
70870,8.625,-27.6875,11.9375,0
70890,6.25,-27,13.5625,0
70910,4.6875,-27.8125,16.625,0
70930,4.9375,-28.375,16.75,0
70950,4.0625,-28.1875,16.1875,0
70970,2.625,-28.3125,17,0
70990,1.625,-29.625,17.75,0
71010,3,-30.0625,15.875,0
71030,4.125,-30.9375,15,0
71050,1.125,-31.875,15.375,0
71070,0.9375,-31.3125,14.4375,0
71090,1.625,-29.9375,13.8125,0
71110,4,-29.875,14.0625,0
71130,1.375,-29.5,12.4375,0
71150,1,-28.3125,10.9375,0
71170,0.8125,-27.125,8.6875,0
71190,2.625,-25.3125,7.5625,0
71210,3.125,-24.5625,7.1875,0
71230,3.3125,-23,5.9375,0
71250,1.6875,-22.125,5.0625,0
71270,1.6875,-21.375,5.375,0
71290,1.9375,-22.875,6.4375,0
71310,1.375,-23.1875,4.6875,0
71330,0.5,-23.1875,3.0625,0
71350,-0.4375,-24.0625,2.1875,0
71370,2.75,-25.5,0.75,0
71390,4.6875,-26.25,-1.375,0
71410,4.6875,-27.375,-2.8125,0
71430,2,-27.875,-3.125,0
71450,3.75,-28.25,-2.375,0
71470,5.25,-26.875,-1,0
71490,5.875,-27.0625,-0.125,0
71510,4.25,-25.25,0.6875,0
71530,3.75,-22.8125,1.625,0
71550,2.125,-22.6875,2.375,0
71570,2.3125,-22.1875,0.4375,0
71590,2.625,-20.1875,0.1875,0
71610,2.1875,-18.625,0.875,0
71630,-0.9375,-19.75,-0.375,0
71650,-2.6875,-20.375,-2.875,0
71670,1.25,-19.375,-4.1875,0
71690,0.125,-18.625,-4.875,0
71710,-2.6875,-18.0625,-6.25,0
71730,-2.1875,-18.875,-6.8125,0
71750,-1.375,-17,-9.4375,0
71770,-3.3125,-14.25,-10.625,0
71790,-4.9375,-12.875,-8.4375,0
71810,-3.25,-11.375,-8.125,0
71830,-3.125,-11.5625,-10.75,0
71850,-2.5,-10,-10.625,0
71870,-5.625,-4.4375,-12.6875,0
71890,-5.8125,-3.25,-13.6875,0
71910,-5.0625,-4.25,-14,0
71930,-3.3125,-4.75,-16.75,0
71950,-6.4375,-3.75,-19.125,0
71970,-6.8125,-3.875,-21.25,0
71990,-7.8125,-2.75,-21.0625,0
72010,-8.6875,-0.75,-21.1875,0
72030,-9.3125,0.75,-21.125,0
72050,-11.5625,2.375,-20.625,0
72070,-13.8125,3.6875,-21,0
72090,-13.5625,7.0625,-21.5625,0
72110,-13.875,9.3125,-22.5625,0
72130,-15.5,10.25,-21.6875,0
72150,-17.5,12.25,-22.3125,0
72170,-18.5,14.5,-25,0
72190,-18.3125,16.375,-27.25,0
72210,-18.125,17,-28.25,0
72230,-17.6875,17.375,-30.8125,0
72250,-19.375,18.9375,-33,0
72270,-20.8125,20.5,-34.8125,0
72290,-20.8125,21.125,-33.6875,0
72310,-21.25,19.75,-32.8125,0
72330,-21.5,20.4375,-31.6875,0
72350,-23,21.3125,-29.625,0
72370,-24.375,20.0625,-25.8125,0
72390,-26.6875,20.75,-22.1875,0
72410,-25.75,21.4375,-21.125,0
72430,-26,21.1875,-20.8125,0
72450,-24.125,20.4375,-22.0625,0
72470,-25.4375,22.0625,-23,0
72490,-23.6875,22.75,-24.0625,0
72510,-20.4375,21.9375,-24.25,0
72530,-19.25,21.5625,-23.625,0
72550,-19.25,21.6875,-24.125,0
72570,-19.625,24.3125,-25.5,0
72590,-21.125,25.9375,-26,0
72610,-18.8125,25.3125,-24.625,0
72630,-18,25.8125,-23.25,0
72650,-19.8125,27.75,-22.125,0
72670,-20.1875,28.625,-21.6875,0
72690,-20.125,28.5,-21.1875,0
72710,-19.875,28,-21.1875,0
72730,-20.3125,28.75,-22.5,0
72750,-20.1875,29.4375,-22.75,0
72770,-18.625,27.375,-21.3125,0
72790,-18.25,26.875,-21.9375,0
72810,-18.625,27.125,-23.1875,0
72830,-19.1875,26.75,-24.375,0
72850,-18.9375,27.9375,-24.5625,0
72870,-19.625,28.25,-25,0
72890,-18.5625,27.25,-24.9375,0
72910,-19.125,29.8125,-24.8125,0
72930,-19.25,31.375,-24.5,0
72950,-20.0625,30.9375,-23.4375,0
72970,-20.3125,31.3125,-23.25,0
72990,-18.5625,31.0625,-22.625,0
73010,-18.9375,31.5625,-22.875,0
73030,-18.5625,31.75,-23.25,0
73050,-16.1875,28.5,-23.375,0
73070,-13.625,26.8125,-22.8125,0
73090,-12.375,25.5,-21.625,0
73110,-11,25.6875,-22.1875,0
73130,-11.5,25.4375,-21.1875,0
73150,-14.1875,25.625,-18.9375,0
73170,-16.5625,26.875,-16.9375,0
73180,-15.25,26.6875,-14.375,0
73200,-13.3125,23.625,-12.0625,0
73220,-12,21.8125,-12.3125,0
73240,-10.5,19.625,-11.375,0
73260,-8.9375,19.5,-8.4375,0
73280,-7.75,17.375,-5.25,0
73300,-8.9375,15.25,-2.625,0
73320,-10.3125,14.0625,0.625,0
73340,-10.4375,14.0625,7.1875,0
73360,-9.375,12.375,13.875,0
73380,-9.625,11,15.75,0
73400,-9.625,10.5625,15.4375,0
73420,-11.5625,10.8125,17,0
73440,-13.625,15.25,16.5625,0
73460,-11.8125,14.5,19.3125,0
73480,-5.4375,8,21.375,0
73500,-4.5,2.4375,19.625,0
73520,-3.625,-2.3125,19,0
73540,-1.5,-1.125,17.0625,0
73560,-3.5,3.1875,15.3125,0
73580,-4.625,5.9375,16.9375,0
73600,-7.8125,6.125,20.5625,0
73620,-3.4375,0.5,23.1875,0
73640,2.125,-6.8125,23.375,0
73660,5.125,-14.1875,22.25,0
73680,5.5,-10.75,19.875,0
73700,-0.8125,-4.9375,16.875,0
73720,-6,-1.9375,20.3125,0
73740,-0.1875,-4.125,22.6875,0
73760,8.6875,-8.25,20.5625,0
73780,6.875,-11.625,20.0625,0
73800,2.625,-12.625,19.5625,0
73820,3.1875,-12.1875,16.5,0
73840,4.5625,-10.125,14.4375,0
73860,5.75,-9.25,15.375,0
73880,8.6875,-11.5,14.375,0
73900,13.0625,-9.5,11.5,0
73920,10.25,-10.5625,15.5,0
73940,7.75,-14.5,18.625,0
73960,6.625,-15.0625,17.125,0
73980,4.4375,-14.1875,13.875,0
74000,3.8125,-14.875,12.6875,0
74020,7.9375,-16.875,15,0
74040,12.125,-16.5,15.875,0
74060,13.375,-12.75,14.9375,0
74080,10.4375,-10,18.75,0
74100,6.5,-10.0625,23.25,0
74120,8.75,-12.3125,21,0
74140,11.5625,-12.0625,18.875,0
74160,8.0625,-13.375,18.5,0
74180,5.375,-14.375,18.8125,0
74200,6.9375,-15.0625,18.75,0
74220,14.1875,-13.375,16,0
74240,19.875,-8.375,12.5625,0
74260,16.6875,-4.25,17.1875,0
74280,14.4375,-5.75,17.625,0
74300,14.125,-8.625,13.8125,0
74320,9.375,-12.75,12.4375,0
74340,5.5625,-16.8125,13.375,0
74360,4.1875,-18.6875,15.1875,0
74380,3.375,-18.3125,13.8125,0
74400,2.625,-16.1875,14.25,0
74420,3.375,-14,15,0
74440,5.8125,-13.3125,14.8125,0
74460,6.1875,-13.625,15.75,0
74480,5,-16.25,17.0625,0
74500,3.8125,-18.625,17.875,0
74520,4.0625,-22.0625,16.8125,0
74540,2.625,-24.625,17.625,0
74560,1.5,-25.375,19.5625,0
74580,6.5,-23.8125,16.125,0
74600,11.6875,-23.375,12.6875,0
74620,13,-22.125,12.125,0
74640,13.5625,-19.75,10.75,0
74660,16.375,-17.3125,9.6875,0
74680,19.4375,-16.75,7.9375,0
74700,17,-17.3125,9.75,0
74720,13.0625,-19.875,9.4375,0
74740,6.8125,-23,10.0625,0
74760,2.0625,-24.8125,12.1875,0
74780,0.9375,-25.375,13.75,0
74800,0.8125,-22.8125,13.75,0
74820,0,-19.625,13.625,0
74840,1.5625,-17.25,13,0
74860,5.9375,-17.9375,9.625,0
74880,8.25,-18.8125,9.375,0
74900,7.6875,-17.8125,10.9375,0
74920,4.5,-18.875,13.0625,0
74940,4.8125,-21.4375,10.9375,0
74960,3.3125,-24.9375,12.1875,0
74980,3.25,-24.875,14.3125,0
75000,4.625,-24.8125,11.75,0
75020,4.125,-24.625,10.125,0
75040,4.875,-23.125,10.3125,0
75060,6.375,-21.25,10.5625,0
75080,9.3125,-20.5625,10.5,0
75100,9.5,-23.5625,9.375,0
75120,6.625,-26.9375,7.9375,0
75140,6.1875,-28.125,9.4375,0
75160,7.4375,-27.75,8.625,0
75170,9.125,-28.4375,8.6875,0
75190,7.6875,-29,6.25,0
75210,7.6875,-27.125,5.9375,0
75230,8.125,-26.625,5.3125,0
75250,10.625,-25.3125,4.25,0
75270,10.1875,-27.0625,3.8125,0
75290,8.1875,-28.3125,2,0
75310,3.375,-27.125,0.4375,0
75330,3.625,-28.5,0.5625,0
75350,8,-29.8125,-2.5625,0
75370,7.6875,-29.5625,-6.3125,0
75390,4.8125,-28.25,-6.9375,0
75410,2.625,-27.3125,-8.0625,0
75430,5,-30.5,-7.4375,0
75450,7.625,-34.125,-10.5,0
75470,4.3125,-33.4375,-12,0
75490,1.6875,-34.5,-12.75,0
75510,2.1875,-33.5,-13,0
75530,5.125,-32.875,-16.125,0
75550,7.875,-31.6875,-18,0
75570,7.875,-29.5625,-19.125,0
75590,7,-27.0625,-19.125,0
75610,6.4375,-26.3125,-16.0625,0
75630,6.875,-25.625,-13.75,0
75650,7.75,-25.8125,-13.1875,0
75670,6.3125,-26.375,-12.1875,0
75690,5.25,-25.3125,-10.6875,0
75710,5.8125,-21.1875,-10.625,0
75730,3.875,-18.375,-11.625,0
75750,3.5,-18.5,-12.5,0
75770,4.5625,-22.6875,-14.9375,0
75790,7.3125,-25.875,-14.4375,0
75810,4.6875,-26,-13.0625,0
75830,2.125,-26.125,-13.75,0
75850,-3.1875,-24.75,-11.125,0
75870,-3.6875,-24.1875,-12.3125,0
75890,-3.375,-23.25,-10.9375,0
75910,-3.25,-24.6875,-11.9375,0
75930,-3.375,-25.5,-12.4375,0
75950,-3.3125,-24.625,-14.6875,0
75970,-4,-22.1875,-15.0625,0
75990,-6.5625,-17.75,-18,0
76010,-7.125,-14.25,-19.9375,0
76030,-8.375,-11.6875,-20.75,0
76050,-5.9375,-12.6875,-21.125,0
76070,-7.5625,-10.875,-23.1875,0
76090,-10.875,-6.125,-25.125,0
76110,-13.75,-0.9375,-27.25,0
76130,-15.5,1.5,-28.6875,0
76150,-17.0625,3.625,-28.375,0
76170,-19.8125,7.3125,-30.625,0
76190,-23.5625,10.5,-32.8125,0
76210,-23.625,13.75,-34.9375,0
76230,-24.8125,14.625,-33.9375,0
76250,-26.8125,17.3125,-32.5,0
76260,-30.9375,19.6875,-33.1875,0
76280,-34.8125,22.8125,-32.3125,0
76300,-37.0625,23.6875,-32.9375,0
76320,-36.875,22.9375,-34.3125,0
76340,-35.75,22.25,-35.3125,0
76360,-34.6875,22.5,-35.5,0
76380,-36,22.375,-34.4375,0
76400,-34.6875,21.8125,-33.9375,0
76420,-33.5625,23.0625,-33.9375,0
76430,-34.8125,25.75,-32.1875,0
76450,-33.8125,23.5,-28.875,0
76470,-31.25,22.5625,-26,0
76490,-31,23.875,-24.125,0
76510,-32.4375,27.3125,-23.3125,0
76530,-31.3125,28.125,-21.5625,0
76550,-30.25,27.25,-20.9375,0
76570,-31.1875,28.5625,-20.875,0
76590,-32,29.6875,-21.875,0
76610,-30.9375,30.375,-23.5625,0
76630,-30.9375,31.625,-23.875,0
76650,-29.75,30.875,-23.6875,0
76670,-28.5,29.875,-24.3125,0
76690,-27.6875,30.75,-24.8125,0
76710,-29.4375,33.9375,-23.25,0
76730,-29.25,35.125,-20.0625,0
76750,-25.9375,32.8125,-18.0625,0
76770,-24.1875,30.9375,-16.4375,0
76790,-23.375,28.9375,-16.125,0
76810,-23.5625,28.5,-15.875,0
76830,-22.4375,28.125,-14.3125,0
76850,-22.3125,27.8125,-12.4375,0
76870,-21.875,27.6875,-11.4375,0
76890,-22.5,28.5,-8.5,0
76910,-20.0625,26.8125,-7.125,0
76930,-18.8125,26.125,-6.125,0
76950,-20.125,25.5625,-5.625,0
76970,-18.6875,24,-4.5625,0
76990,-16.8125,23.625,-2.9375,0
77010,-15.9375,25.3125,-1.6875,0
77030,-15.125,25.6875,-0.375,0
77050,-15.4375,24.1875,1.375,0
77070,-14.75,23.4375,4.25,0
77090,-15.6875,24.125,5.25,0
77110,-14.875,23.6875,6.1875,0
77130,-14.125,22.75,7.5625,0
77150,-12.8125,19.3125,8.3125,0
77170,-11.9375,17.375,8.1875,0
77190,-10.75,14.375,7.8125,0
77210,-9,11.875,7.3125,0
77230,-9.4375,11.4375,6.6875,0
77250,-10.5,15.9375,7.625,0
77270,-8.9375,14.75,7.875,0
77290,-6.8125,10.6875,9.1875,0
77310,-5.5625,10.25,7.0625,0
77330,-5.75,15.25,7.875,0
77350,-7.125,15.875,10.125,0
77370,-5.375,15.125,12,0
77390,-1.4375,14.25,12.3125,0
77410,2.6875,11.3125,12.0625,0
77430,0.9375,10.8125,13.1875,0
77450,-1.0625,12.6875,14.6875,0
77470,-0.1875,11.6875,12.8125,0
77490,0.4375,10.375,13.8125,0
77510,1,9.625,14.75,0
77530,5.6875,6.4375,15.4375,0
77550,4.8125,5.9375,15.25,0
77570,-0.75,8,15.625,0
77590,-0.5,8.6875,17.8125,0
77610,5.625,6.6875,18.5625,0
77630,9.625,4.4375,18.25,0
77650,7.8125,3.125,16.8125,0
77670,2.625,9.125,17.0625,0
77690,0.75,12.8125,17.8125,0
77710,5.9375,9.5625,19.875,0
77730,10.125,6.4375,20.9375,0
77750,8.5,8,18.5,0
77770,6,7.375,18.875,0
77790,2.5625,4.3125,20.625,0
77810,4.4375,3.6875,19.75,0
77830,6.8125,2.9375,18.0625,0
77850,10.4375,1.6875,16.75,0
77870,10.375,-0.25,16.75,0
77890,9.625,-0.375,17.125,0
77910,7.625,-1.5,18.4375,0
77930,9.875,-1.5,19.5625,0
77950,11.375,0,18.9375,0
77970,11.125,-1.5625,20.4375,0
77990,8.9375,-3.3125,21.375,0
78010,5.625,-1.4375,22,0
78030,5.375,-0.625,22.625,0
78050,6.6875,-2.9375,22.25,0
78070,6.3125,-6.5625,20.875,0
78090,5.6875,-6.625,20.4375,0
78110,5.75,-7.6875,19.9375,0
78130,9.875,-5.4375,20.4375,0
78150,9.375,-4.75,19.0625,0
78170,9.4375,-9.25,17.625,0
78190,8.6875,-14.4375,16.5625,0
78210,7.625,-16.9375,16.875,0
78230,10.5,-18,17.4375,0
78250,10.875,-18.1875,18.5,0
78270,10.8125,-19.125,19.5,0
78290,9.75,-19.3125,19.4375,0
78310,9.25,-20.625,19.0625,0
78330,8.6875,-21.75,18.625,0
78350,10.8125,-21.25,18.0625,0
78370,12.0625,-21.9375,16.5,0
78390,12.4375,-23.125,16.4375,0
78410,12.375,-23.0625,16.25,0
78430,14.0625,-22.6875,17.25,0
78450,13.4375,-23,17.9375,0
78470,11.9375,-24,18,0
78490,10.1875,-24.125,19,0
78510,10.4375,-24.125,20.25,0
78530,10.9375,-26.0625,20.625,0
78540,9.3125,-26.5625,20.8125,0
78560,8.625,-27.375,20,0
78580,8.125,-28.8125,18.375,0
78600,9.5,-30.6875,18.625,0
78620,8.5,-32.125,17.9375,0
78640,7.375,-32.75,18.25,0
78660,7.5625,-33.0625,16.8125,0
78680,6.125,-32.625,16.8125,0
78700,6.0625,-33.5625,17.5,0
78720,8.6875,-32.4375,15.875,0
78740,10.1875,-30.125,14.75,0
78760,9.1875,-29.125,13.9375,0
78780,10,-29.875,11.25,0
78800,11.1875,-29.75,8.6875,0
78820,9.875,-31,6.875,0
78840,9.3125,-32.6875,5.9375,0
78860,6.5,-35.5,3.75,0
78880,3.5625,-36.5625,1.75,0
78900,2.0625,-35.875,-0.4375,0
78920,2.125,-36.375,-1.5,0
78940,2.1875,-37.8125,-2.875,0
78960,2.1875,-38.6875,-5.0625,0
78980,0.6875,-38.125,-7.1875,0
79000,0.125,-38.1875,-9.125,0
79020,-0.6875,-38,-10.0625,0
79040,-1.625,-39,-12.625,0
79060,-3.1875,-40.3125,-12.9375,0
79080,-3.6875,-40.75,-14.6875,0
79100,-2.8125,-39.75,-16.0625,0
79120,-3,-38.625,-19.8125,0
79140,-4.625,-35.6875,-19.25,0
79160,-4.4375,-35.625,-21.0625,0
79180,-4,-36.3125,-23.9375,0
79200,-2.6875,-37,-25.8125,0
79220,-2,-36.9375,-24.625,0
79240,-2.5625,-36.125,-26.1875,0
79260,-5.1875,-35,-25.5,0
79280,-7.6875,-33.8125,-24.875,0
79300,-5.1875,-32.375,-24.0625,0
79320,-3.625,-32.9375,-26.3125,0
79350,-1.1875,-28.6875,-29.25,0
79370,0.3125,-25.1875,-31.3125,0
79390,-0.375,-23.5,-28.625,0
79410,2.625,-22.875,-30.25,0
79430,2.625,-20.4375,-31.0625,0
79450,1.6875,-17,-30.125,0
79480,-2.25,-9.375,-26.5625,0
79500,-0.3125,-7.9375,-24.3125,2001
79520,-4.125,-2.8125,-20.1875,0
79560,-1.875,-1.5,-15.625,0
79580,-5,0.6875,-12.8125,0
79600,-6.25,3.5,-9.625,0
79610,-3.625,3.125,-4.75,0
79630,-3.875,2.5625,-4.0625,0
79650,-5.1875,1.125,-3.4375,0
79670,-6.8125,-0.4375,-1.375,0
79700,1.3125,-10.125,4.9375,0
79720,0.0625,-8.625,4.625,0
79740,3.9375,-3.5625,4.6875,0
79760,5.25,0,-0.875,0
79780,3.5,-0.8125,-5.9375,0
79800,2.625,-1.5,-8,0
79820,3.5,0.75,-6,0
79840,3.625,4.125,-2.6875,0
79870,0.6875,11.8125,-0.625,0
79890,-2.0625,15.875,-1.125,0
79910,-2.875,19.8125,0.0625,0
79930,-3,23.75,2.875,0
79950,-2,25.375,10.875,0
79970,-2.625,28.875,18.1875,0
79990,-2.8125,34.5625,25.3125,0
80010,-2.375,41.5,32.4375,0
80030,-3.5625,45.375,44.3125,0
80050,-4.9375,51.3125,58.125,0
80070,2.25,59.6875,64.3125,0
80090,-0.4375,69.1875,68.125,0
80110,-1.8125,73.375,75,0
80130,4.5625,73.375,85,0
80150,10.0625,75.5,91.875,0
80170,13.3125,77.75,89.9375,0
80190,15.0625,76.875,88.5625,0
80210,19.4375,76.625,90.4375,0
80230,24.9375,74.6875,91.125,0
80250,30.375,70.4375,91.6875,0
80270,32.125,69.0625,88,0
80290,36.3125,63.875,81.375,0
80310,37.0625,56.8125,77.9375,0
80330,42.5625,47.0625,75.375,0
80350,41.875,38.75,69.6875,0
80370,39.375,32.5625,58.875,0
80390,38.5625,26.4375,51.875,0
80410,41.625,15.875,50.5625,0
80420,40.4375,5.8125,48.8125,0
80440,34.4375,1.9375,45.5625,0
80460,25.125,3.375,42.1875,0
80480,20.4375,2.125,44.5,0
80500,16.9375,1.5625,44.625,0
80520,16.1875,1.375,41.6875,0
80540,13.4375,2.3125,37.9375,0
80560,9.6875,5.375,33.5,0
80580,8.5,5.9375,30.4375,0
80600,5.3125,4.5625,31.3125,0
80620,5.8125,0.5625,32.875,0
80640,4.5,0.9375,31.25,0
80660,2.5,2.8125,25.75,0
80680,1.25,2.1875,23.75,0
80700,1.9375,0.3125,21.5,0
80720,4.25,-1.4375,17.9375,0
80740,3.4375,-1.5,14.875,0
80760,2.25,-0.125,11.1875,0
80780,3.6875,0.125,7.875,0
80800,3.5,0.125,6.4375,0
80820,2.625,-0.75,4.9375,0
80840,-1.125,-0.25,4.125,0
80860,-3.375,1.75,3,0
80880,-3.375,3.125,4.5,0
80900,-3.8125,3.9375,5.875,2000
80920,-1.375,5.25,5.6875,0
80940,-4.25,5.4375,2.3125,0
80950,-3.0625,4.6875,3.0625,0
80970,-1.0625,2.5625,4.3125,0
80990,1.3125,-0.375,4.375,0
81010,3.9375,-3.8125,4.0625,0
81030,4.8125,-6.375,2.75,0
81050,3.8125,-6.5,2,0
81070,1.8125,-7.125,1.75,0
81090,0.25,-8.5625,2.125,0
81110,-0.375,-10.875,0.6875,0
81130,0.4375,-10.3125,-0.4375,0
81150,1.3125,-11.3125,-0.8125,0
81170,2.0625,-13.875,-0.25,0
81190,1.375,-14.5,0.1875,0
81210,-0.25,-15,0.75,0
81230,-6.5625,-14.8125,1.125,0
81250,-9.3125,-15.5,1.6875,0
81270,-10.1875,-17.0625,0.875,0
81290,-9.375,-18.875,-1.75,0
81310,-9.6875,-18.1875,-4.0625,0
81330,-9.9375,-18.1875,-4.75,0
81350,-7.3125,-18.8125,-4.5,0
81370,-7,-18.9375,-6.6875,0
81390,-8.1875,-18.5625,-8.125,0
81410,-11.8125,-17.0625,-9.125,0
81430,-13.9375,-14.6875,-7.75,0
81450,-15.1875,-12.3125,-8.375,0
81470,-14.4375,-11.375,-9.25,0
81490,-11.5625,-8.3125,-11.9375,0
81510,-12.375,-3.5,-15.5,0
81530,-12.5625,-0.375,-19.0625,0
81550,-8.875,2.5,-22.875,0
81570,-5.75,7,-27.5625,0
81590,-6.8125,9.875,-29.875,0
81610,-6.6875,12.3125,-30.5625,0
81630,-6.375,14.25,-29.625,0
81650,-7.1875,18.5,-28.625,0
81670,-9.875,18.75,-25.8125,0
81690,-13.1875,17.875,-24.3125,0
81710,-15.75,17.4375,-22.5625,0
81730,-17.9375,20,-24,0
81750,-18.1875,20.8125,-27,0
81770,-15.375,21.375,-30.375,0
81790,-12.4375,19,-31.75,0
81810,-10.8125,17.1875,-32.125,0
81830,-11.625,17.3125,-33.9375,0
81850,-12.125,18,-35.8125,0
81870,-12.9375,17.75,-37.4375,0
81890,-15.375,18.5,-39.1875,0
81910,-17.25,19.125,-40.25,0
81930,-18.1875,21.4375,-41.125,0
81950,-18.75,23,-40.625,0
81970,-18.75,24.125,-39.0625,0
81990,-19.5625,27.3125,-37.875,0
82010,-19.625,28.625,-35.625,0
82030,-19.9375,27.6875,-33.5,0
82050,-18.8125,28.0625,-32.25,0
82070,-20.375,30.1875,-31.875,0
82090,-21.6875,32.4375,-32.0625,0
82110,-22.625,35.25,-31.125,0
82130,-21.75,34.3125,-30.0625,0
82150,-20.875,36.625,-28.875,0
82170,-21.0625,38.5,-29,0
82190,-20.9375,39,-28.6875,0
82210,-21.3125,38.875,-28.125,0
82230,-20.625,39.8125,-28.875,0
82250,-20.9375,42.0625,-30.6875,0
82270,-21.25,42.625,-30.6875,0
82290,-21.9375,42.8125,-29.5625,0
82310,-23.0625,43.375,-29.25,0
82330,-22,43.375,-29.4375,0
82350,-21.625,44.75,-30.375,0
82370,-21,44.625,-30,0
82390,-20.5625,45,-28.8125,0
82410,-19.8125,44.4375,-27.375,0
82430,-17.5625,44.375,-27.25,0
82450,-15.8125,45.1875,-28,0
82470,-14,45.1875,-27.625,0
82490,-13.6875,44.75,-27.4375,0
82510,-11.75,42.375,-26.4375,0
82530,-10.875,41.5625,-25.6875,0
82550,-11.4375,41.3125,-25.3125,0
82570,-10.625,38.375,-24.125,0
82590,-8.6875,34.125,-22.875,0
82610,-7.5625,32.3125,-22.4375,0
82630,-8.875,32.75,-20.9375,0
82650,-8.1875,29.5,-20.875,0
82670,-6.125,25.375,-20.6875,0
82690,-4.3125,23.625,-18.375,0
82710,-3.8125,24,-16.375,0
82730,-4,24.6875,-16.1875,0
82750,-6.5,26.0625,-17.375,0
82770,-4.125,23.875,-16.5,0
82790,-2.5625,22,-14,0
82810,-3.4375,22.0625,-10.1875,0
82830,-2.5625,21.1875,-7.625,0
82850,-0.0625,18.625,-8.0625,0
82870,0.6875,15.75,-3.375,0
82890,1,14.125,0.9375,0
82910,-4.25,14.3125,2.5625,0
82930,-4,10.8125,5.875,0
82950,-2.5625,8.0625,8.25,0
82970,-2.6875,6.3125,10.625,0
82990,-1.1875,3.1875,13.75,0
83010,0.1875,0.0625,15.4375,0
83030,4,-2.8125,17.25,0
83050,2.8125,-3,16.25,0
83070,0.875,-3.875,16.8125,0
83090,3.375,-5.6875,19.25,0
83110,4.875,-7.625,19.9375,0
83130,6.125,-9,20.0625,0
83150,3.75,-8.5625,22.5,0
83170,4.5,-10.125,22.9375,0
83190,6.4375,-12.5,22.1875,0
83210,11.1875,-14.6875,26.625,0
83230,10.75,-14.125,25.5625,0
83250,8.375,-12.375,21.9375,0
83270,8.0625,-12,20.75,0
83290,10.125,-11.75,22.3125,0
83310,11.5,-12.8125,23.6875,0
83330,12.375,-13.375,22.8125,0
83350,11.1875,-13.5625,18.125,0
83370,11.1875,-13.375,14.75,0
83390,14.375,-17.375,16.9375,0
83410,12.5625,-16.6875,18.4375,0
83430,10.8125,-16.9375,15.625,0
83450,6.1875,-16.3125,13.5625,0
83470,8.75,-18.375,15,0
83490,10.1875,-19.3125,16.75,0
83510,8,-17.75,16.5625,0
83530,5.6875,-17.3125,13.125,0
83550,5,-18.4375,13.3125,0
83570,7.1875,-20.375,15.125,0
83590,8.375,-19.5625,14.375,0
83610,8.625,-18.5625,13,0
83630,6.5625,-19.375,14.75,0
83650,7.125,-19.625,16.9375,0
83670,8.6875,-20.5625,16.375,0
83690,10.4375,-21.375,16.875,0
83710,7.875,-21.8125,17.25,0
