Timestamp, Rotation x, Rotation y, Rotation z, Marker
10,-27.25,136.188,20.25,0
50,-24.1875,119.75,70.125,0
70,0.5625,39.4375,46.375,0
90,2.25,-87.75,-54,0
90,68.875,-65.1875,-0.4375,0
110,77.4375,-37.875,32.5,0
120,123.438,10.125,100.625,0
140,141.938,10.5,111.875,0
160,123,-1.5625,111.625,0
180,114.062,-18.875,103.25,0
220,48.875,53.875,47.4375,0
240,30.25,77.875,36.625,0
240,-20.25,94.375,-26.3125,0
260,-49.125,123.625,-34.4375,0
260,-46.375,144.312,-32.75,0
270,-26.875,137.562,-0.0625,0
300,-30.8125,107.375,0.75,0
350,99.4375,118.625,124.625,0
370,194.188,31.0625,0.8125,0
390,189,76.5625,-32.3125,0
410,203.312,121.312,39,0
430,213.812,87.4375,-15.4375,0
450,180.562,50.8125,-13.75,0
470,76,-6.1875,-41.1875,0
490,72.3125,-13.5625,-1.75,0
510,81.125,-23.5625,11.6875,0
530,171.25,-2.9375,24.625,0
540,195.5,-9.3125,-38,0
560,101.75,-41.125,-69.0625,0
580,46.625,-42.6875,-101.438,0
600,1.1875,-36.125,-94.25,0
620,86.75,-0.875,-110.875,0
640,64.75,-58.75,-71.0625,0
660,118.562,-81.625,-61.125,0
680,108.312,-88.9375,-31.3125,0
700,64.8125,-82.1875,-46.1875,0
720,56.9375,-89.9375,-62.9375,0
740,76.625,-93.125,-85.75,0
760,43.6875,-104.625,-75.1875,0
780,1.9375,-105.438,-84.1875,0
800,-3.5625,-105.312,-100.812,0
820,-20.125,-95.0625,-85.9375,0
840,-30,-90.125,-57.75,0
860,5.75,-91.25,-49.3125,0
880,34.3125,-118.375,-13.125,0
900,89.625,-55.9375,9.1875,0
920,77.25,-71.375,-42.4375,0
940,91.4375,-59.6875,-25.8125,0
960,99.4375,-47,-76.75,0
980,81.4375,-41.625,-79.8125,0
1000,57.6875,-19.125,-39.8125,0
1020,37.5,10.8125,-15.8125,0
1040,19,28.375,13.3125,0
1060,24.8125,21.375,53.6875,0
1080,30.5,2.25,82.4375,0
1100,19.9375,-18.6875,81.25,0
1120,-0.0625,-34.3125,63.125,0
1140,-37.75,-42.1875,45.25,0
1160,-57.5,-50.125,31.75,0
1180,-48.75,-65.125,28.375,0
1200,-49.4375,-82.0625,36.375,0
1220,-49.4375,-100.625,45.875,0
1240,-61.875,-104.75,50.5625,0
1260,-75.5625,-105.625,51.875,0
1280,-92.8125,-111.688,60.6875,0
1300,-106.25,-110.625,68.1875,0
1320,-93.0625,-102.188,54.8125,0
1340,-104.875,-99.375,36.3125,0
1360,-95.875,-82.375,27.4375,0
1380,-104.062,-60.4375,24.125,0
1400,-85.6875,-51.5625,37.3125,0
1420,-66.875,-43.875,54.625,0
1440,-27.75,-50.8125,62.25,0
1460,-6.8125,-59.4375,60.9375,0
1480,-44.4375,-59.3125,49.5625,0
1500,-96.375,-58.75,24.1875,0
1520,-106.625,-56.0625,-14.625,0
1540,-58.6875,-63.625,-47.8125,0
1560,-14.9375,-72.5625,-51.1875,0
1580,8.9375,-72.375,-28.3125,0
1600,-1.1875,-62.3125,-12.125,0
1620,-32.3125,-58.625,-9.125,0
1640,-44.375,-69,-11.875,0
1660,-34,-79.625,-7.5,0
1680,-22.0625,-77.9375,7.625,0
1700,-25.5625,-68.875,24.375,0
1720,-29.125,-55.25,27.375,0
1740,-21.9375,-59.625,33.1875,0
1760,-36.25,-71.75,47.125,0
1780,-26.375,-68.75,63,0
1800,-0.1875,-56.125,67.5625,0
1820,13.375,-57.125,58.5625,0
1840,-2.3125,-62.9375,43.375,0
1860,-11.4375,-59,35.25,0
1880,-24.0625,-51.6875,32.4375,0
1900,-46.8125,-45.25,24.1875,0
1920,-45.375,-32.5625,19.6875,0
1940,-33.0625,-32.125,19.1875,0
1960,-11.25,-29.5,19.375,0
1980,-1.9375,-35.375,17.25,0
2000,-5.625,-31.9375,15.375,0
2020,-20,-25.75,7.75,0
2040,-18.6875,-32.4375,-3.375,0
2060,-18.5625,-38.75,-12.375,0
2080,-28.625,-36.6875,-11.0625,0
2100,-31.625,-35.0625,-9.0625,0
2120,-19.4375,-38.6875,-7.25,0
2140,-10.875,-36.1875,-8.0625,0
2160,-6.375,-34.1875,-0.5,0
2180,-15.5,-37.875,1.5,0
2200,-17.8125,-34.6875,-1,0
2220,-2.0625,-30.375,5.375,0
2240,3.625,-27.625,13.625,0
2260,-10.375,-22.625,13.875,0
2280,-5.3125,-21.125,20.875,0
2300,10.5,-16.5,28,0
2320,7.4375,-12.9375,27.625,0
2340,-0.875,-5,30.6875,0
2360,-10.125,4.875,25,0
2380,-17.3125,0,19.8125,0
2400,-0.4375,-12.125,9.5625,0
2420,32.5625,-6.625,8.75,0
2440,43.3125,-10.75,34.4375,0
2460,38.625,-2.8125,28.375,0
2480,30.25,6,-8.8125,0
2500,13.5,9.3125,-26.9375,0
2520,0.25,14.75,-23.875,0
2540,-3.8125,15.1875,-28.5,0
2560,2.5625,12.6875,-27.75,0
2580,11.1875,15.0625,-20.75,0
2600,-1.5,10.3125,-22,0
2620,-18.4375,9.4375,-21.5,0
2640,-24.6875,8.625,-21.375,0
2660,-13.3125,13.5625,-18.125,0
2680,4.1875,17.625,-15.1875,0
2700,-5.8125,30.4375,-18,0
2720,-21.8125,76.5,-14.5,0
2740,-20.9375,118.75,-9.3125,0
2760,-6.8125,139.5,-1.5,0
2780,12.3125,138.5,-8.6875,0
2800,18.75,136.5,-27.125,0
2820,23.1875,129.188,-50.9375,0
2840,26.8125,124.25,-62,0
2860,-0.375,123.312,-56.625,0
2880,-23.8125,125.375,-44.125,0
2900,-23.5,124.688,-33.3125,0
2920,4.75,125.188,-14.5,0
2940,34,120.562,13.4375,0
2960,45.5625,108.375,39.5625,0
2980,61.25,104.312,54.5,0
3000,81,119.562,59.875,0
3020,80.875,143.5,63.1875,0
3040,46.5,156.875,78.25,0
3060,-2.5625,158.875,115.312,0
3080,-26.1875,160.938,157.25,0
3100,-17.1875,158.125,182.562,0
3120,26.625,153.062,203.625,0
3140,61.625,142.438,217.125,0
3160,64.6875,137.125,215.125,0
3180,60.9375,139,212.562,0
3200,75.625,137.188,217.25,0
3220,80.25,123.125,205.312,0
3240,69.5625,111.25,179.812,0
3260,68.5,113.062,171.062,0
3270,79.4375,115.5,174.062,0
3300,87.4375,97.1875,157.688,0
3320,103.688,89.375,136.375,0
3340,125.688,84.4375,144,0
3360,142.562,88.375,170.062,0
3380,131.5,91.0625,176.125,0
3400,106.5,86.75,164.625,0
3420,98.125,90.625,171.125,0
3440,97.125,98.375,188.188,0
3460,73.375,77.5625,188.188,0
3480,63.375,50.3125,178.812,0
3500,70.3125,39.8125,190.562,0
3520,67.375,27.375,199.562,0
3530,47.5625,-2.0625,179,0
3550,42.625,-29,157.438,0
3570,46.5,-41.875,161.125,0
3590,31.9375,-53.5625,154.688,0
3610,11.1875,-68,123.625,0
3630,8.5,-75.625,103.875,0
3650,-10,-55.4375,109.75,0
3670,-17.8125,-83.375,97.3125,0
3690,-23.5,-90.375,68.375,0
3710,-27.9375,-82.8125,64.25,0
3730,-91.5625,-65.0625,88.625,0
3740,-83.8125,-53.375,80.0625,0
3760,-65.8125,-46.25,55,0
3780,-67.5,-29.875,35.3125,0
3800,-63.8125,1.0625,24.4375,0
3820,-30.3125,-2.125,3.25,0
3840,-21.375,-3.6875,0,0
3860,-17.1875,-7.375,2.0625,0
3870,-13.3125,-10.25,2.5625,0
3890,-7.6875,-11.5625,-0.25,0
3910,-13.875,-3.25,1.25,0
3930,-21.8125,4.25,-4.0625,0
3950,-22.125,9.3125,-4.9375,0
3960,-12.0625,7.5,-4.125,0
3980,-0.4375,-8.75,8.5625,0
3990,9.875,-15.4375,23.4375,0
4010,-12.625,-8.0625,-10.75,0
4050,10.9375,-17.5625,-8.625,0
4070,1.4375,-24.5,-6.4375,0
4090,-2.0625,-21.375,1.0625,0
4090,1.8125,-13.1875,17.25,0
4100,22.1875,-0.125,15.5625,0
4120,21.0625,5.375,13.9375,0
4150,4.4375,8.875,11.6875,0
4170,-4.75,7.5625,7.375,0
4180,-9.5,7.9375,3.125,0
4190,-4.6875,7.6875,4.9375,0
4220,2.5,3.8125,5.1875,0
4240,6.0625,4.3125,2.875,0
4260,4.3125,5.1875,0.4375,0
4270,3.25,6.9375,-2.25,0
4290,6.1875,6.9375,-4.625,0
4320,23.25,13.5625,-9.25,0
4350,47,20.75,-5.375,0
4370,51.75,19.8125,-4.0625,0
4390,42.25,21,-2,0
4420,6.125,10.9375,4.4375,0
4440,-7.625,10.0625,7.25,0
4460,-15.9375,1.625,8.5,0
4480,-12.5,-3.6875,10.4375,0
4510,-2.9375,-8.875,13.4375,0
4520,-11.25,-9.4375,11.0625,0
4540,-21.1875,-3.3125,21.875,0
4560,-28.3125,-6.625,32.5625,0
4570,-32.625,-11.5625,30.625,0
4590,-18.125,-25.9375,18.1875,0
4620,-56.25,-14.375,-1.8125,0
4640,-90.25,-13.75,0.6875,0
4660,-89,-15.5,-0.3125,0
4670,-74.3125,-18.6875,8.1875,0
4690,-35.375,-23.6875,23.3125,0
4710,32.3125,-22.875,35.3125,0
4730,61.5,-10.3125,39.125,0
4750,65.3125,-0.4375,17.1875,0
4770,28.9375,10.3125,-10.3125,0
4790,-20.625,2.9375,-14.5625,0
4810,-42.6875,-3.6875,-6.875,0
4830,-38.6875,-7.3125,8.4375,0
4850,-41.125,-15.5625,17.5625,0
4870,-23.5,-12.6875,16.1875,0
4890,-8.5625,-6.0625,15.75,0
4910,0.5,-3.5625,8.25,0
4930,25.3125,-7.1875,2.4375,0
4950,37.8125,5.125,-3.1875,0
4970,34.75,6.5625,-5.5625,0
4990,39.0625,7.5,-3.625,0
5010,28,5.375,-0.625,0
5030,20.1875,1.375,-1.375,0
5050,12.625,-1.25,-4.4375,0
5070,7.0625,-3.4375,-5.5,0
5090,4.3125,-5.8125,-3.875,0
5110,2.75,-8.125,-0.875,0
5130,2.625,-8.9375,3.375,0
5150,-1.6875,-6.5,2.3125,0
5170,-7.1875,-3.0625,-2.4375,0
5190,-12.875,1.8125,-8.375,0
5210,-14.5625,5.875,-11.5625,0
5230,-12,7.3125,-11,0
5250,-0.625,5.625,-10.125,0
5260,10.125,4.625,-10.9375,0
5280,15.625,7.625,-10.5,0
5300,13.25,12.1875,-8,0
5320,9.875,17.0625,-10.4375,0
5340,6.1875,24.8125,-14.3125,0
5370,26.9375,29.625,-19.625,0
5390,50.375,29.375,-21.4375,0
5410,69,29.8125,-25.3125,0
5430,84.8125,34.5625,-32.6875,0
5450,90.75,41.875,-44.875,0
5470,64.6875,42.5,-21.4375,0
5490,34.375,39.625,-23.75,0
5540,56.9375,74.4375,-32.25,0
5560,51.875,75.8125,-29.25,0
5580,49.375,78.375,-43.5,0
5600,43,87.0625,-39.625,0
5620,33.6875,90.375,-38.3125,0
5640,24.3125,89.875,-32.4375,0
5660,25.75,85.875,-23.1875,0
5680,33.5625,83.25,-15.875,0
5700,23.0625,72.3125,-6.6875,0
5720,6.9375,56.4375,11.875,0
5740,-4.5625,39.125,29.875,0
5760,-16.0625,36.4375,34.0625,0
5780,-19.0625,54.375,23.1875,0
5800,-24.375,68.375,16.9375,0
5820,-34.875,72.5625,19.4375,0
5840,-41.1875,72.4375,25.625,0
5860,-47.75,67.3125,33.5,0
5880,-36.9375,62,37.8125,0
5900,-18.625,54.5625,35.8125,0
5920,-16.6875,46.6875,45.125,0
5940,-27.8125,45.5625,52.5,0
5960,-33.6875,51.625,46.125,0
5980,-31.125,51.75,39.8125,0
6000,-26.8125,42.4375,37.9375,0
6010,-21.1875,30.8125,45.0625,0
6020,-14.5625,22.0625,48.5625,0
6040,-8.125,14.0625,41,0
6060,8.125,7.375,37.6875,0
6080,22.8125,3.0625,39.25,0
6100,22.6875,-0.4375,40.4375,0
6120,10.625,0.75,38.875,0
6140,6.0625,2.9375,33.25,0
6160,8.875,1.625,31.6875,0
6180,8.3125,-2.1875,37.125,0
6200,2.8125,-6.0625,38.375,0
6220,7.875,-7.875,41.875,0
6240,17.6875,-7.375,50.9375,0
6260,18.0625,-2.9375,60.3125,0
6280,12.5,-2.375,58.9375,0
6300,13.4375,-0.125,62.9375,0
6320,9.875,-1.1875,83.625,0
6340,-0.75,-7.0625,117.688,0
6360,-50.25,-9.875,113.438,0
6380,-134.062,-16.5625,61.875,0
6420,-84.0625,-19.8125,21.0625,0
6430,-57,-18.6875,31.1875,0
6450,5,-1.625,36.4375,0
6470,71.75,19,37.5,0
6490,79.625,23.125,45.25,0
6510,30.875,27.5,52.3125,0
6530,-16,41.1875,46.625,0
6550,-30.6875,42.625,43.0625,0
6570,-16.375,33.25,56.6875,0
6590,-23,23.5,67.625,0
6610,-28.8125,9.6875,47.625,0
6630,50.75,-10.375,12.1875,0
6650,100.625,-20.625,10.0625,0
6670,46.875,-14.0625,37,0
6690,-13.4375,3.25,30.5,0
6710,-36.25,14.25,10.125,0
6730,-23.375,5.25,16.5625,0
6750,-0.0625,2.8125,25.125,0
6770,27.625,2.8125,24.875,0
6790,43.875,0.625,25.8125,0
6810,27.1875,0.3125,33.8125,0
6830,1.5,4.9375,37.125,0
6850,-9.5625,-0.5625,39.375,0
6870,-6.8125,-6.3125,42.0625,0
6890,-10.75,-10.5,44.875,0
6910,-9.5625,-5.25,40.25,0
6930,-11.8125,-4.6875,43.0625,0
6950,-18.9375,-8.5,44.75,0
6970,-17.0625,-10.0625,44.25,0
6990,-1.9375,-10.625,43.9375,0
7010,12.1875,-11.375,43.75,0
7030,13.4375,-10.1875,42.1875,0
7050,6.3125,-7.25,38.375,0
7070,0.6875,-4.5625,35.9375,0
7090,2.0625,-2.125,35.625,0
7110,3.3125,0.5625,35.4375,0
7130,6.375,1.625,39.375,0
7150,4,3.8125,40.625,0
7170,6.625,10.25,37.4375,0
7190,19,10.0625,35.4375,0
7210,28.8125,13.4375,32.25,0
7230,15.5,22.125,21.375,0
7250,13.6875,31.5625,13.6875,0
7270,24.875,39.9375,7.625,0
7290,31,46.5,1.3125,0
7310,26,50.6875,-9.5625,0
7330,47.625,54.125,-8.8125,0
7350,67.25,59.5625,-5.5625,0
7370,56.3125,46.5625,-0.375,0
7390,65.1875,48.125,-8.8125,0
7410,85.1875,39.5,-13.125,0
7430,53.5625,43.125,-17.625,0
7450,-7.25,-5.1875,-18.8125,0
7470,-22.6875,-14.9375,-45,0
7490,-27.75,-16.375,-42.9375,0
7510,-34.8125,-5.6875,-48.75,0
7530,-42.0625,11.0625,-56.0625,0
7550,78.3125,-112.688,-147.375,0
7570,11.0625,-12.5,-91.8125,0
7590,0.625,-19.25,-77,0
7610,4.5625,-29.75,-98.375,0
7630,18.875,-27.5625,-93.3125,0
7650,27.6875,-19.9375,-86.375,0
7670,5.75,2.0625,-73.875,0
7690,-6.1875,8.5625,-81.75,0
7710,6.6875,7.9375,-76.625,0
7730,42.8125,7.3125,-73,0
7750,76.8125,5.625,-78.875,0
7770,55.75,11.0625,-73,0
7790,66.4375,3.3125,-75,0
7810,52.5625,-4.9375,-80.3125,0
7830,28.9375,-8.25,-74.4375,0
7850,23.3125,-8.5625,-70.875,0
7870,30.5625,-16.75,-62.875,0
7890,37.375,-23.25,-48.3125,0
7910,28.1875,-23.5625,-37.0625,0
7930,12.625,-25.75,-27.875,0
7950,-18.8125,-28.5625,-40.0625,0
7970,-36.1875,-35.25,-41.625,0
7990,-26.0625,-22.75,-37.125,0
8010,-1.375,4.75,-41.75,0
8030,8.5625,10.75,-50.9375,0
8050,-7,6.875,-62.625,0
8070,-12.0625,7.4375,-77,0
8090,-5.8125,5.5625,-90.0625,0
8110,3.75,0.8125,-98.4375,0
8130,28,0.875,-108.062,0
8150,54.0625,-0.125,-122.625,0
8170,58.25,-6.625,-132.125,0
8190,41,-15.5625,-136.5,0
8210,10.9375,-20.5,-156.312,0
8230,-16.125,-20.3125,-178.688,0
8250,-27.875,-18.875,-195.938,0
8270,-16.8125,-28.625,-209.062,0
8290,4.8125,-36.9375,-220.312,0
8310,16.5,-42.8125,-236.25,0
8330,12.375,-57.25,-249.062,0
8350,2.8125,-70.875,-261.438,0
8370,-6.0625,-88.1875,-271.062,0
8390,-17.3125,-105.812,-282.938,0
8410,-28.375,-117.625,-312.375,0
8430,-32.1875,-148.188,-339.25,0
8450,-41.625,-179.875,-342.562,0
8470,-75.625,-182.188,-341.25,0
8490,-92.3125,-169.312,-346.812,0
8510,-90.25,-164.562,-339.875,0
8530,-94.5625,-173.25,-306.938,0
8550,-80.9375,-174.812,-275.188,0
8570,-62.875,-166.938,-253.188,0
8590,-55.8125,-152.5,-216.625,0
8610,-54.6875,-139.375,-190.438,0
8630,-61.0625,-140.875,-173.062,0
8650,-67.8125,-143.688,-167.5,0
8690,-26.9375,-185.188,-114.312,0
8710,-19.8125,-184.125,-95.5,0
8730,-21.0625,-176.938,-83.3125,0
8750,-28,-161.062,-72.6875,0
8770,-18.25,-141.188,-60.625,0
8790,0.0625,-128.562,-47.3125,0
8810,6.3125,-115.5,-32.1875,0
8830,-12.4375,-91.9375,-19.6875,0
8850,2.6875,-83.8125,-29.8125,0
8880,12.9375,-58.625,-65.5625,0
8900,-6.375,27.75,36.5,0
8910,-4.375,34.0625,3.3125,0
8940,-2,37,52.1875,0
8960,6.125,30.375,59.8125,0
8980,2.375,31.3125,81.0625,0
9000,1.625,31.4375,78.9375,0
9010,-12,34.375,73.875,0
9030,-24.375,32.5,72.9375,0
9050,-29.125,21.5625,68.25,0
9070,-26.875,15.75,60.4375,0
9090,-31.75,13.8125,52.3125,0
9110,-33.25,2.1875,52.0625,0
9130,-27.75,-13.0625,59.0625,0
9150,-28.8125,-21.0625,61.625,0
9170,-32.125,-45.125,59.5,0
9190,-13.4375,-82.25,54.75,0
9200,-3.125,-100.125,40.4375,0
9220,-12.3125,-101.25,19.4375,0
9240,-29,-111.438,-14.8125,0
9250,-66.5,-103.188,-101.75,0
9270,-62.6875,-89.125,-134.062,0
9290,-68.125,-69.0625,-155.438,0
9310,-66.25,-4.75,-155.188,0
9330,43.75,-55.9375,-11.125,0
9350,53.5625,-60.1875,14.25,0
9370,41.3125,-45.0625,25,0
9410,31.5625,-31.125,-24.5,0
9430,35,-33.625,-24,0
9430,64.3125,-3.0625,12.0625,0
9440,16,26.3125,5.6875,0
9470,-0.75,46.25,-6.1875,0
9490,-10.9375,29.8125,-29.5,0
9510,-23,32.0625,-24.375,0
9520,-7.75,25.875,-29.625,0
9540,-16,58.875,-21.375,0
9560,-26.8125,65.0625,-22.625,0
9600,19.9375,100.688,-5,0
9620,19.375,86.4375,-2.3125,0
9640,11.5625,93.25,-1.75,0
9660,8.6875,104,-5.5625,0
9680,9.625,100.75,1.5625,0
9700,13.5625,97.875,19.0625,0
9720,28.625,85.0625,41,0
9740,53.6875,67.8125,48.4375,0
9790,93.4375,217,102.188,0
9800,124.312,209.938,132.188,0
9820,103.438,173.75,136.938,0
9840,104.625,163.25,135.438,0
9860,130.312,178.625,155.188,0
9880,135.812,180,167.5,0
9900,90.0625,165.562,168.562,0
9920,87.125,165.25,166.312,0
9940,107.312,169.688,178.75,0
9960,82.75,149.562,187.938,0
9980,32.6875,125.188,188.25,0
10000,23.875,107.125,181.938,0
10020,20.875,94.5625,187.75,0
10040,6.25,78.25,191.312,0
10060,-17.6875,47.6875,164.5,0
10080,-24.5,23.8125,146.812,0
10100,-19.1875,23.4375,154.375,0
10120,-27.8125,34.25,160.438,0
10140,-33.3125,45.8125,156.625,0
10160,-33.3125,57.5625,153.25,0
10180,-78.125,56.8125,148.125,0
10200,-125.562,57.0625,163.375,0
10220,-135,58.5625,179.875,0
10240,-86.25,36.4375,172.062,0
10260,-65.1875,-28.6875,-23.125,0
10280,-167.375,13.625,-66.375,0
10300,-131.875,-18,-31.4375,0
10320,-62.625,-0.6875,-31.4375,0
10330,36.75,21.6875,-18.9375,0
10350,96.625,36.6875,-2,0
10370,125.312,26.9375,1.25,0
10390,126.688,12.9375,-15.125,0
10410,102.5,-0.375,-24.75,0
10430,75.5,-5.625,-16.4375,0
10450,50.875,-4.8125,-10.125,0
10470,32.5,-4.6875,-7,0
10490,18.625,0.3125,-2.6875,0
10510,2.875,4,-2.625,0
10530,-9.9375,4.875,-5.6875,0
10550,-16.75,3.25,-4.375,0
10570,-22.375,3.4375,-1.375,0
10590,-19.5625,3,-0.375,0
10610,-10.75,1.0625,-1.5625,0
10630,-0.125,-0.625,-3.25,0
10650,6.125,-2.5625,-3.625,0
10670,9.125,-3.625,-3.0625,0
10690,8.125,-4.5,-0.8125,0
10710,5.75,-4.4375,1.8125,0
10720,3.0625,-3.6875,4.1875,0
10740,-1.3125,-2.9375,4.9375,0
10760,-4.625,-2.125,3.5625,0
10780,-5.5625,-1.1875,1.1875,0
10800,-4.8125,-0.5,0.0625,0
10820,-3.375,0.1875,-1.375,0
10840,-3.5625,0.1875,-3.4375,0
10860,-2.9375,-0.625,-4.75,0
10880,0.1875,-1.75,-5.0625,0
10900,1.125,-2.1875,-3.375,0
10920,-1.6875,-2.875,-0.6875,0
10940,-4.1875,-3.5625,-0.25,0
10960,-4.5,-3.75,0.375,0
10980,-5.625,-3.8125,0.625,0
11000,-8.1875,-4.4375,0.8125,0
11020,-9.5625,-5.625,1.3125,0
11040,-9.375,-7.6875,4.25,0
11060,-13.5,-6.5625,6.25,0
11080,-15.125,-8.3125,7.3125,0
11100,-18.625,-9.3125,9.625,0
11120,-24.5,-8.3125,9.8125,0
11140,-29.125,-7.5625,10.1875,0
11160,-26.6875,-4.4375,7.625,0
11180,-19.25,-0.3125,2.8125,0
11200,-9.1875,4.75,-0.0625,0
11220,8.375,7.875,-2.5,0
11240,31.9375,10.5625,-6.9375,0
11260,51.875,11.375,-6.9375,0
11280,73.6875,14.4375,-4.8125,0
11300,88.1875,23.1875,-4.0625,0
11320,91.0625,24.0625,-0.3125,0
11340,84.75,26,-0.375,0
11360,82.125,31.5625,-4.8125,0
11380,75.0625,39.8125,-9.1875,0
11400,63.0625,45.625,-13.8125,0
11420,48.0625,49.6875,-18.6875,0
11440,44.8125,55,-20.5,0
11460,48.875,57.6875,-21.4375,0
11480,58.25,56.125,-18.9375,0
11500,69.875,53,-12.8125,0
11520,78.9375,48.3125,-9.6875,0
11540,83.25,41.6875,-6.3125,0
11560,85.5625,33.625,-4.375,0
11580,85.375,24.5,-6,0
11600,79.6875,18.25,-10.1875,0
11620,70,13.25,-11.125,0
11640,61.8125,10.5625,-8.0625,0
11660,54.8125,6.9375,-7,0
11680,43.9375,2.8125,-6,0
11700,34.375,-0.5625,-0.9375,0
11720,21.9375,-3.9375,-1.1875,0
11740,2.5,-2.6875,-4.3125,0
11760,-14.8125,-4.5,-7.5625,0
11780,-29.4375,-5.4375,-4.75,0
11800,-36.8125,-5,-5,0
11820,-37.75,-4.4375,-5.5625,0
11840,-33.125,-2.5625,-2.875,0
11860,-21.5,-0.875,2.5,0
11880,0.0625,-3.9375,4.625,0
11900,31.875,-11.5,-7.375,0
11920,23.875,-1.1875,3.375,0
11940,1.375,8.5,-3.1875,0
11960,-18.4375,4.375,-10.0625,0
11980,-17.375,-2.625,-10.625,0
12000,5.125,-3.3125,-9,0
12020,16.3125,-1.875,-4.125,0
12040,12.75,-0.625,6.5625,0
12060,25.625,-10.6875,0.4375,0
12080,9.9375,1.25,7,0
12100,3.875,5.25,7.6875,0
12120,3.0625,8.9375,5.0625,0
12140,0.625,11.1875,2.6875,0
12160,-4,11.3125,0.875,0
12180,-9.5,9.1875,-3.125,0
12200,-3,2,9.375,0
12220,4.75,-2.4375,20.625,0
12240,-5.25,-6.8125,23.125,0
12260,-26.25,-25.6875,27.9375,0
12280,-54,-66,9.75,0
12300,-61.625,-69.5,4.75,0
12320,-60.0625,-96.625,-28.875,0
12340,-34.1875,-136.375,-101.562,0
12360,8.625,-159.375,-105.125,0
12380,40.8125,-177.812,-111.25,0
12400,57.25,-193.625,-118.562,0
12420,50.75,-200.188,-115.625,0
12440,33.3125,-195.938,-102.5,0
12460,22.375,-181.75,-94.9375,0
12480,15.5,-165.875,-87.8125,0
12500,5.9375,-151.938,-72,0
12520,-4.125,-131.938,-54.375,0
12540,-3.6875,-107.188,-40.6875,0
12560,-0.875,-85.0625,-28.0625,0
12580,-7.25,-65.25,-17.6875,0
12600,-14.4375,-46.125,-8,0
12620,-20.875,-29.5,-0.375,0
12640,-23.8125,-16.6875,4,0
12660,-23.3125,-9.3125,9.625,0
12680,-19.75,-4.25,13.5625,0
12700,-13.6875,2.1875,12.875,0
12720,-12.125,4.75,8,0
12740,-16.8125,5.6875,3.75,0
12760,-23.75,6.75,0.9375,0
12780,-31.3125,4,-0.625,0
12800,-30.625,0.4375,-1.1875,0
12820,-25.625,-1.1875,-3.75,0
12840,-23.5625,-2.375,-8.3125,0
12860,-25.875,-3.4375,-16.5625,0
12880,-40.125,-6.8125,-26.3125,0
12900,-65.8125,-16.0625,-31.6875,0
12920,-92.625,-20.375,-32.125,0
12940,-115.625,-16.9375,-15.75,0
12960,-138.938,-11.0625,5,0
12980,-142.875,0.9375,10.875,0
13000,-117.25,13.25,9.3125,0
13020,-90.25,22.5,2.375,0
13040,-56.625,22.4375,0.0625,0
13060,-35,17.6875,-2.0625,0
13080,-28.3125,16.5,-1.5625,0
13100,-36.5625,15.375,-3.875,0
13120,-45.25,14,-7.5625,0
13140,-50.75,12.6875,-8.8125,0
13160,-42.25,10.625,-6.6875,0
13180,-37.875,5.6875,-6.375,0
13200,-36.0625,1.75,-8.0625,0
13220,-19.5625,4.6875,0.125,0
13240,-5.1875,3.1875,2.625,0
13260,8.75,0.625,-0.3125,0
13280,10.6875,-3.125,3.625,0
13300,5.8125,0.875,7.6875,0
13320,4.875,-2.3125,2.625,0
13340,2.625,-0.6875,-4.4375,0
13360,1,6.875,-3.0625,0
13380,-27.875,4.625,-5.8125,0
13400,-12.625,-3.25,-8.5,0
13420,-13.4375,4.6875,-9.875,0
13440,-4.8125,-1.3125,-2.25,0
13460,14.25,-8.8125,4.8125,0
13480,24.375,-1.375,9.9375,0
13500,22.0625,4,6.5,0
13520,21.5,-1.5625,-5.1875,0
13540,5.4375,4.9375,-4.875,0
13560,-12.625,17.8125,0.75,0
13580,-30.125,11.1875,5.9375,0
13600,-9.625,9,-2.8125,0
13620,-11.5,14.0625,-7.4375,0
13640,-8.875,-1.25,-6.5625,0
13660,9.125,-4,3.4375,0
13680,10,-0.125,13.4375,0
13690,7.875,-0.8125,1.75,0
13710,5.625,-2.875,2.6875,0
13730,-11.375,1.5625,4.5,0
13750,-22.375,7,1.75,0
13770,-26.0625,6.25,0.0625,0
13790,-24.375,4.8125,-1.75,0
13810,-12.75,6.5,-2.9375,0
13830,0.875,7.875,-2.75,0
13850,4.3125,5.0625,-0.75,0
13870,2.8125,3.5,1.5,0
13890,-0.375,6.125,4.3125,0
13910,-0.4375,8.8125,8.125,0
13930,3.1875,10.625,12.0625,0
13950,6.125,12.375,16.3125,0
13970,6.6875,12.75,21.75,0
13990,5.5625,11.375,27.875,0
14010,10.3125,12.25,33.25,0
14030,15.25,13.1875,36.5,0
14050,10.9375,12.4375,34.875,0
14070,7.9375,13.8125,28.25,0
14090,2.875,8.75,21.625,0
14110,5.875,-0.25,17.625,0
14130,15.875,-8.5,7.9375,0
14150,20,-17.25,-7.1875,0
14170,11.3125,-24.625,-19.75,0
14190,0.8125,-32.0625,-25.125,0
14210,-2.1875,-37.375,-29.9375,0
14230,4.9375,-42.625,-39.75,0
14250,12.9375,-49.4375,-46.9375,0
14270,15.4375,-56.625,-53.375,0
14290,17.9375,-64.8125,-60.1875,0
14310,22.5625,-70.625,-72.625,0
14330,26.75,-79.3125,-83.625,0
14350,25.25,-88.5,-92.75,0
14370,17.0625,-91.625,-98.875,0
14390,8.75,-89.375,-106.375,0
14410,-2.375,-89.25,-103.812,0
14430,-6,-92.8125,-100.688,0
14450,-5.6875,-94.375,-97.75,0
14470,-9.75,-91.6875,-94.1875,0
14490,-16.125,-91.4375,-81.9375,0
14510,-10.8125,-86.1875,-76.5625,0
14530,-13.375,-81.6875,-70.25,0
14550,-21.375,-82.6875,-60.5625,0
14570,-19.25,-80.9375,-57.75,0
14590,-15.25,-75.25,-51,0
14610,-13.25,-68.875,-36.125,0
14630,-8.875,-61.4375,-26.0625,0
14650,-7.25,-56.1875,-22.625,0
14670,-7.25,-50.6875,-17.375,0
14690,-6.125,-44.625,-5.6875,0
14710,-0.6875,-30.9375,0.9375,0
14730,28,-3.1875,10.75,0
14750,-47.875,23.9375,0.1875,0
14770,-48.9375,1.0625,16.625,0
14790,21.6875,-1.5625,2.4375,0
14810,38.9375,-4.25,1.25,0
14830,20.6875,-13.1875,7.4375,0
14850,2.9375,-11.375,3.875,0
14870,-4.5,-8.1875,1.25,0
14890,-11.125,-10.375,6.0625,0
14910,3.1875,-9.5,8.125,0
14930,10.8125,-6.5,5,0
14950,2.9375,-3.1875,6.1875,0
14970,6.3125,-1.875,-2.9375,0
14990,5.25,-3.1875,-11.4375,0
15010,-1.1875,1.625,-16.25,0
15030,-7,5.5,-15.0625,0
15050,-10.125,6.625,-15.5625,0
15070,-10.125,7.4375,-15.8125,0
15090,-10.625,8.6875,-9.9375,0
15110,-9.0625,16.125,0.6875,0
15130,0.0625,22.1875,15.1875,0
15150,4.8125,33.3125,37.375,0
15170,31.25,40.75,47.9375,0
15190,45.4375,53.25,48.6875,0
15210,39.9375,68.875,56.375,0
15230,35.8125,85.8125,62.4375,0
15250,23.4375,104.312,67.75,0
15270,8.75,113.75,74.9375,0
15290,-3.9375,116.375,83.375,0
15310,1.75,119.375,86.75,0
15330,13.5625,120.562,85.6875,0
15350,3.125,121.25,89.5,0
15370,-11.1875,119.875,94.8125,0
15390,-24.9375,112.188,99.4375,0
15410,-43.25,106.875,98.625,0
15430,-47.375,101.188,90.1875,0
15450,-35.3125,90.3125,85.0625,0
15470,-23.6875,77.5625,78.8125,0
15490,-27.5,68.1875,66.4375,0
15510,-31.25,62.8125,59.625,0
15530,-11.0625,52.5625,53.875,0
15550,-6,42.9375,51.5,0
15570,-20.25,35.9375,44.5,0
15590,-17.9375,24.125,32.875,0
15610,-18.125,19.0625,32.625,0
15630,-4.25,21.1875,31.6875,0
15650,1,19.75,21.3125,0
15670,-3.625,12.0625,11.25,0
15690,-5.125,4.75,4.75,0
15710,0.8125,0.0625,2.6875,0
15730,16,-1.25,0.3125,0
15750,33.8125,-6,-2.6875,0
15770,29.875,-5,-7.375,0
15790,10.0625,-10.25,-7.6875,0
15810,4,-5.6875,-11.875,0
15830,-0.1875,-5.3125,-20,0
15850,-15.1875,-11.6875,0.5625,0
15870,-5,-12.375,17.9375,0
15890,-4.0625,-1.5,9.5,0
15910,-16.875,0,-3.375,0
15930,-13.1875,-9.5625,-9.625,0
15950,17.5,-16.9375,-5.4375,0
15970,40.5,-13.375,0,0
15990,36.8125,-11,-0.875,0
16010,20.5,-14.5625,-15.3125,0
16030,1.4375,-11.8125,-20.8125,0
16050,-25.6875,-8.6875,-13.8125,0
16070,-41.4375,-14.875,-5.625,0
16090,-24.4375,-15.0625,-18.625,0
16110,-6.125,-10.875,-24.5625,0
16130,-3.1875,-13.0625,-16.4375,0
16150,-2,-18.875,-12.125,0
16170,4.625,-19.75,-10.0625,0
16190,5.875,-19.8125,-13.4375,0
16210,-10.875,-19.6875,-20.5,0
16230,-20.1875,-19.875,-31.3125,0
16250,-7.8125,-18,-49.75,0
16270,-4.8125,-22.0625,-71.3125,0
16290,-13.1875,-22.8125,-88.4375,0
16310,-11.625,-23.5625,-108.812,0
16330,-10.6875,-28.875,-134.375,0
16350,-17.8125,-27.8125,-157.188,0
16370,-29.125,-25.3125,-173.5,0
16390,-39.6875,-30.6875,-190.688,0
16410,-46.8125,-36.25,-205.562,0
16430,-44.4375,-45.875,-214.812,0
16450,-51.3125,-60.125,-219.812,0
16470,-59.375,-73,-219.5,0
16490,-59.625,-88.3125,-215.812,0
16510,-58.5,-107.25,-206.75,0
16530,-65.125,-128.062,-190.375,0
16550,-67.25,-141.75,-171.375,0
16570,-56.8125,-154.625,-154.5,0
16590,-53.75,-168.062,-138.438,0
16610,-54.9375,-175.25,-118.875,0
16630,-46.1875,-175.875,-98.625,0
16650,-38.375,-180.125,-78.25,0
16670,-35.875,-182.125,-61.75,0
16690,-24.3125,-170.125,-40.1875,0
16710,-21.4375,-158.062,-19.6875,0
16730,-19.875,-152.875,-5.8125,0
16750,-25.875,-144.75,-3.0625,0
16770,-36.9375,-125.062,-2.4375,0
16790,-32.6875,-104,5.1875,0
16810,-30.625,-95.4375,10.5,0
16830,-25.3125,-90.25,3.875,0
16850,-28.25,-76,-3.9375,0
16870,-28.5,-54.8125,-1.4375,0
16890,-25,-45.5,3.4375,0
16910,-27.1875,-50.125,5.4375,0
16930,-40.0625,-42.875,4.0625,0
16940,-51.125,-34.1875,7.25,0
16960,-48.125,-28.125,3,0
16980,-26.25,-30.75,-2.75,0
17000,-16.75,-24.9375,-5.8125,0
17020,-16,-24.75,8.375,0
17040,-14.75,-28.375,26.5625,0
17060,-18.4375,-18.0625,27.3125,0
17080,-15.0625,-5.5,8.4375,0
17100,-13.8125,2.5,-7.25,0
17120,-4.8125,1.6875,-3.1875,0
17140,-5,-2.75,-14.75,0
17160,-23.375,-5.125,-17.9375,0
17180,-23.3125,-2.3125,-4.75,0
17200,-48.4375,0.3125,-12.9375,0
17220,-77.0625,4.6875,-29.0625,0
17240,-77.5,-4.5,-28.3125,0
17260,-73.5625,-11.375,-29.375,0
17280,-81.3125,-11.25,-30.5,0
17300,-84.8125,-16.8125,-18.5625,0
17320,-75.9375,-23.375,-19.4375,0
17340,-72.0625,-33.4375,-21.625,0
17360,-66.0625,-35.1875,-23.75,0
17380,-36.8125,-37.25,-15.75,0
17400,-12.25,-40.625,-5.6875,0
17420,1.6875,-35.125,-5.4375,0
17440,13.875,-33.625,-16.8125,0
17460,8.75,-29.625,-18.1875,0
17480,3.75,-26.5625,-10.375,0
17500,5.5,-17.0625,-9.3125,0
17520,11.5625,-19.9375,-9.1875,0
17540,5.4375,-9.625,23.9375,0
17560,-12.5625,-13.1875,42.875,0
17580,-32.1875,-11.875,33.25,0
17600,-1.125,4.375,12.125,0
17620,36.9375,21.875,5,0
17640,87.375,35,15.6875,0
17660,110,54,18.5,0
17680,106.312,69.3125,17.8125,0
17700,91.8125,69.25,19.25,0
17720,70.875,65.3125,13.25,0
17740,38,77.375,8.625,0
17760,25.1875,91,6.125,0
17780,25.4375,97.5,-2.375,0
17800,33.875,105.812,-1.4375,0
17820,50.4375,122.062,11.25,0
17840,80.375,125.875,26.4375,0
17860,72.4375,119,31.3125,0
17880,71.5,125.75,30.3125,0
17900,58.25,132.938,28,0
17920,54.8125,134.5,38.125,0
17940,47.0625,136.312,56,0
17960,60.8125,149.688,75.5625,0
17980,94.25,163.062,107.25,0
18000,138.938,166.75,136.812,0
18020,141.562,151.812,139.312,0
18040,137.688,152.688,148.438,0
18060,149.375,165.375,173.875,0
18080,162.25,153.5,182.938,0
18100,137.375,131.125,185.75,0
18120,100.438,123.562,202.5,0
18140,93.8125,122.188,220.625,0
18160,100.438,103.75,224,0
18180,78.6875,78.25,220.625,0
18200,32.5,69.625,222.938,0
18220,-19.8125,74.625,229.438,0
18240,-88.9375,78.5625,217.625,0
18260,-93.625,70.6875,192.062,0
18280,-51.25,48.8125,187.5,0
18300,-31.625,33.1875,178.062,0
18320,-63.0625,53.5,157.75,0
18340,-81.5,91.4375,151.562,0
18360,-76.25,89.625,134.438,0
18400,-71.8125,56.6875,74.0625,0
18420,-42.625,60.5,59.375,0
18440,10.625,60.0625,49.5625,0
18460,49.6875,52.1875,34.375,0
18480,59.375,46.25,20,0
18500,46.5,39.5,7.25,0
18520,33.0625,30.4375,-1.375,0
18540,29.25,22.75,-1.5625,0
18560,28.75,15.875,1.8125,0
18580,18.6875,10.4375,-1.3125,0
18600,4.9375,3.375,-4.9375,0
18620,-13.375,-1.0625,-4.8125,0
18640,-17.5625,-1.0625,-4.3125,0
18660,-9.5625,-1.75,-7.0625,0
18680,-4.4375,-3.125,-8.25,0
18700,-10.4375,-0.4375,-5.4375,0
18720,-2.9375,6.3125,-4.8125,0
18740,5.4375,11,-6.1875,0
18760,0.8125,14.4375,-2.6875,0
18780,-2.1875,18.6875,3.125,0
18800,12.625,20.4375,2.625,0
18820,13.75,19.0625,-2.9375,0
18840,9.0625,23.25,-12.1875,0
18860,10.75,20.125,-1.1875,0
18880,22.5,17.5,23.4375,0
18900,7.5,27.3125,32.75,0
18920,-0.3125,24.3125,14.75,0
18940,-7.4375,21.0625,8.0625,0
18960,2.4375,17.8125,14,0
18980,21.1875,17.25,17.125,0
19000,32.9375,19.25,22.6875,0
19020,31.6875,21.875,26.75,0
19040,24.3125,27.4375,28.3125,0
19060,16.875,33.8125,37.125,0
19080,9.5625,37.75,50.375,0
19100,-0.9375,39.9375,63.0625,0
19120,6.625,41.5,72.375,0
19140,23.5,42.375,82.75,0
19160,29.4375,38.8125,92.9375,0
19180,22.4375,40.125,94.5,0
19200,15.25,47.4375,96.5,0
19220,12.75,48.6875,103,0
19240,3,44.5,108.5,0
19260,-2,50.375,114,0
19280,-8.125,63.0625,122.812,0
19300,-18.3125,64.5,127.625,0
19320,-40.9375,58.25,124.062,0
19340,-44.3125,52.375,123,0
19360,-32.3125,48,130,0
19380,-27.1875,44.9375,135.375,0
19400,-38.25,42.6875,136.688,0
19420,-105,17.5625,116.312,0
19440,-190.25,-26.125,-3.0625,0
19460,-182.188,-104.812,-84.5625,0
19480,-116.562,-65.25,-17.4375,0
19500,21.8125,2.75,16.4375,0
19520,167.062,32.5,-5.5625,0
19540,259.75,19.9375,-13.4375,0
19560,220.875,21.3125,-7.6875,0
19580,103.688,39,-3.4375,0
19600,-25.5625,34.375,1,0
19620,-107.688,18.4375,3.4375,0
19640,-125.938,7.4375,-0.6875,0
19660,-94.6875,-3.4375,-7.3125,0
19680,-42.375,-6.5,-7.8125,0
19700,11.5,-2.25,-6.0625,0
19720,53.75,1.3125,-0.625,0
19740,76.5,2.25,1.75,0
19760,72.5,1.3125,0.875,0
19780,45.5,0,-2.5,0
19800,10.75,0.1875,-3.875,0
19820,-17.1875,1.4375,-4.0625,0
19840,-31.5625,-0.0625,-4.75,0
19860,-27.125,-1.6875,-3.4375,0
19880,-10.6875,-4,-2.25,0
19900,8.6875,-7.9375,-2.625,0
19920,21.875,-9.0625,-2,0
19940,26,-6.3125,-0.25,0
19960,19,-4.375,-1.0625,0
19970,7.4375,-2.375,-1.625,0
19990,-2.9375,-0.5625,-1.6875,0
20010,-8.4375,-0.5,-1.625,0
20030,-8.3125,-0.4375,-1.1875,0
20050,-3.5625,-0.9375,-0.75,0
20070,1.1875,-2,-0.8125,0
20090,4.0625,-1.0625,-0.1875,0
20110,3.6875,0.5625,0.3125,0
20130,2.4375,0.9375,-0.125,0
20150,1.5,-1.0625,-1.125,0
20170,0.375,-2.375,-1.25,0
20190,-0.9375,-2.25,-0.375,0
20210,-1.8125,-2.125,-0.125,0
20230,-2.5,-3.625,-0.625,0
20250,-2.9375,-5.0625,-0.875,0
20270,-5.4375,-5.5,0.3125,0
20290,-8.1875,-6.3125,2,0
20310,-15.1875,-8.875,1.75,0
20330,-26.25,-12.1875,2.8125,0
20350,-30,-16.375,2.5625,0
20370,-25.375,-24.25,0.5,0
20390,-43.5625,-36.125,-1.6875,0
20410,-9.5,-29.4375,-22.5625,0
20430,17.4375,-20.9375,-46.9375,0
20450,46.1875,-36.9375,-63.3125,0
20470,17.5,-55.75,-71.5625,0
20490,-1.75,-67.875,-95.875,0
20510,-6.875,-89.1875,-122.062,0
20530,2.1875,-106.5,-138.125,0
20550,20.1875,-116.438,-149.875,0
20570,32.9375,-124.812,-157.75,0
20590,36.5625,-131.938,-164.625,0
20590,34.375,-131.688,-172.5,0
20610,23.5625,-127.625,-169.188,0
20630,7.625,-119.375,-162.875,0
20650,-2.75,-103.938,-151.125,0
20670,2.6875,-85,-134.5,0
20690,-0.875,-67,-117.812,0
20710,-14.25,-55.25,-93.9375,0
20730,-7.4375,-47.5625,-65.6875,0
20750,6.8125,-39.9375,-43.75,0
20770,18.625,-30.8125,-24.0625,0
20790,21.1875,-18.875,-8.625,0
20810,22.5,-15.3125,0.3125,0
20830,18.125,-15.625,2.875,0
20850,7.6875,-14,-0.125,0
20870,-8.875,-9.9375,-1.5625,0
20890,-17.3125,-9,-3,0
20910,-18,-12.0625,-8.9375,0
20930,-12.6875,-17.4375,-12.6875,0
20950,-7.0625,-21.1875,-10.6875,0
20970,4,-24.4375,-9.125,0
20990,10.125,-27,-10.5,0
21010,9,-27.5,-8.0625,0
21030,5,-26,-3.875,0
21050,-3.75,-27.1875,-0.625,0
21070,-8.875,-29.75,2.6875,0
21090,-9.4375,-29.3125,6.75,0
21110,-9.5,-27.8125,10.625,0
21130,-10.8125,-27.0625,11.8125,0
21150,-8.3125,-25.5,11.4375,0
21170,-6.4375,-23.25,11.125,0
21190,-7.3125,-20.375,12.6875,0
21210,-7.8125,-15.4375,14.0625,0
21230,-4.9375,-10.5,13.875,0
21250,-10.75,-10.125,15,0
21270,-13.25,-8.1875,15.1875,0
21290,-9.1875,-2.9375,13.5,0
21310,-4.5625,-2.6875,14.0625,0
21330,4.6875,-7.125,16.9375,0
21350,11.875,-5.5,21.9375,0
21360,15.6875,-2.9375,21,0
21380,4.4375,-0.9375,16.3125,0
21400,-2.0625,-2.8125,10.125,0
21420,-4.8125,-5.75,6.6875,0
21440,-8,-5.75,7,0
21460,-0.5,-3.0625,5.125,0
21480,8.5625,-5.25,3.0625,0
21500,10.75,-8.875,3.625,0
21520,8.4375,-9.1875,5.1875,0
21540,13.0625,-9.0625,8,0
21560,14.125,-9.625,4.375,0
21580,13.0625,-16.6875,-4,0
21600,3.5625,-15.25,-10.4375,0
21620,5.25,-21.5625,-22.125,0
21640,9.8125,-35.375,-36.3125,0
21660,12.625,-43.25,-31.6875,0
21680,4.9375,-46.6875,-27.9375,0
21700,4.375,-45.8125,-37.3125,0
21720,-3.875,-46,-46.4375,0
21740,-9.0625,-47.375,-45.5625,0
21760,-1.8125,-46.5,-41.6875,0
21780,3,-44.0625,-45.0625,0
21800,4.5625,-40.25,-47.75,0
21820,6.75,-36.5,-44.8125,0
21840,8.25,-30.25,-44.6875,0
21860,-9.875,-20.1875,-46.3125,0
21880,-19.125,-10.0625,-40.3125,0
21900,-8.0625,-3.3125,-39.5,0
21920,-9.5,5.625,-43.1875,0
21940,-25.1875,19.4375,-41.1875,0
21960,-20.8125,28.875,-34.0625,0
21980,-7.5,32.375,-36.375,0
22000,-11.5,43.875,-41.875,0
22020,-26.9375,55.875,-38.3125,0
22040,-34.0625,60.25,-33,0
22060,-25.1875,60.75,-34.375,0
22080,-29.25,67.5625,-42.875,0
22100,-33.5,75,-45.75,0
22120,-40.6875,72.6875,-38.3125,0
22140,-50.1875,67.125,-29.25,0
22160,-39.6875,71.4375,-20.5625,0
22180,-18.375,72.3125,-14.3125,0
22200,-15.5,61.8125,-10.0625,0
22220,-16.9375,50.3125,3.0625,0
22240,-3.875,34.0625,19.8125,0
22260,7.0625,16.1875,23.4375,0
22280,-5.5625,-1.1875,29.9375,0
22300,-4.5625,-25.75,41.0625,0
22320,8.6875,-50.4375,54,0
22340,17.4375,-62.8125,62.125,0
22360,25,-68.5,62,0
22380,20.9375,-68.9375,65.4375,0
22400,12.9375,-72.5625,67.625,0
22420,3.0625,-72.6875,62.8125,0
22440,2.4375,-66.5625,61.3125,0
22460,8.125,-57.9375,60.5625,0
22480,11.375,-46.25,52.6875,0
22500,10.8125,-33.875,44.9375,0
22520,9.875,-23.875,40.5,0
22540,5.6875,-13.5,39.3125,0
22560,0.8125,-2.625,39.8125,0
22580,12.5,4.875,37,0
22600,18.1875,8,35.9375,0
22620,17.1875,13.3125,33.3125,0
22640,15.0625,16.375,24.9375,0
22660,12.5625,14.4375,22.5,0
22680,18.625,9.5,23.8125,0
22700,21.25,7.8125,21.5,0
22720,13.1875,8.1875,17,0
22740,4.875,8.8125,14.625,0
22760,2.3125,4.9375,8.625,0
22780,-3.6875,2.9375,5.5625,0
22800,-2.9375,3.9375,10.5625,1000
22820,0.8125,5,11.375,0
22840,7.3125,2,9.375,0
22860,15.25,4.75,10.1875,0
22880,12.625,9.3125,3.75,0
22900,7.4375,10.5,0.875,0
22920,2.125,6.9375,1.875,0
22940,4.125,3.5625,0.875,0
22960,12,-2,1.5625,0
22980,9.875,-4.8125,-0.5,0
23000,0.125,-5.1875,-5.375,0
23020,-3.0625,-7.8125,-7.8125,0
23040,-1.6875,-14,-8.125,0
23060,3.75,-18.625,-10.3125,0
23080,1.375,-18.6875,-8.8125,0
23100,8,-18.0625,-8.25,0
23120,9.0625,-20.9375,-16.875,0
23130,-1.9375,-19.75,-19.8125,0
23150,-4.9375,-21.25,-16.75,0
23170,4,-24.1875,-16.5,0
23190,9.25,-27.125,-22.5625,0
23200,-7.375,-27.375,-42.25,0
23220,-8,-28.875,-47.25,0
23240,0.625,-33.1875,-48.375,0
23260,-0.625,-33.875,-50.6875,0
23280,-11.625,-30.125,-50.3125,0
23300,-3.625,-25.375,-46.4375,0
23320,8.125,-21.1875,-50.4375,0
23340,3.75,-20.0625,-53.0625,0
23360,-12.875,-20.75,-49.1875,0
23380,-8.6875,-16.3125,-44.8125,0
23400,-2.375,-3.9375,-54.125,0
23420,-11.9375,10.125,-62.5,0
23440,-29.375,13.3125,-55.375,0
23460,-36.3125,15,-46.1875,0
23480,-26.6875,28.375,-47.125,0
23500,-20.875,46.625,-55.6875,0
23520,-26.1875,54.875,-54.0625,0
23540,-36.8125,54.75,-42.5625,0
23560,-34.1875,63.8125,-46.375,0
23580,-35.375,80.5625,-53.0625,0
23600,-39.5625,88.125,-41.75,0
23620,-34.25,88.8125,-34.5,0
23640,-32,92.3125,-38.6875,0
23660,-33.3125,93.9375,-29.25,0
23680,-25.8125,88.375,-11.375,0
23700,-24,82.25,-6.125,0
23720,-20.375,82.5,-0.9375,0
23740,-13.1875,79.125,17,0
23760,-3.6875,68.375,30,0
23780,1.0625,62.4375,31.875,0
23800,13.1875,62.0625,38,0
23820,19.1875,55.875,45.875,0
23840,9.75,55.125,49.6875,0
23860,4.8125,57.625,52.0625,0
23880,2.4375,52.125,55,0
23900,-5.875,44.3125,56.8125,0
23920,3.0625,43.75,55.9375,0
23940,11.75,37.6875,61.8125,0
23960,6.875,33.4375,62.25,0
23980,3.6875,37.4375,57.0625,0
24000,1,27.8125,57.9375,0
24020,-13.1875,11.375,60.5625,0
24040,8.375,4.375,55.0625,0
24060,22.3125,7.0625,50.0625,0
24080,16.125,9,47.75,0
24100,1.25,8.5625,40.75,0
24120,-7.125,-3.375,37.375,0
24140,-7.5,-15.6875,35.875,0
24160,1.5625,-17.25,34.3125,0
24180,-0.5625,-25.75,30.0625,0
24200,-8.375,-42.3125,27.75,0
24220,-11.375,-50.125,26.3125,0
24240,-13.5,-56,23.25,0
24260,-19.6875,-70.25,21.875,0
24280,-21.8125,-77.875,20.6875,0
24300,-18.25,-82.0625,17.375,0
24320,-17.625,-90.75,15.4375,0
24340,-29.5625,-97.4375,13.4375,0
24360,-36,-97.6875,11.375,0
24380,-35.3125,-96.8125,6,0
24400,-36.375,-104.062,0,0
24420,-43.125,-109.188,-5.8125,0
24440,-37.25,-107.812,-12.375,0
24460,-22.4375,-108.312,-21.625,0
24480,-16.1875,-110.062,-31.5625,0
24500,-10.9375,-103.688,-42.5,0
24520,-5.75,-95.25,-53.9375,0
24540,-3.6875,-98.6875,-60.875,0
24560,-4.8125,-99.6875,-68.1875,0
24580,6.5625,-89.5,-74.8125,0
24600,7.6875,-79,-77.875,0
24620,1.75,-73.125,-79.1875,0
24640,-9.3125,-70.5,-79,0
24660,-8.1875,-64.875,-77.75,0
24680,-9.375,-53.625,-77.125,0
24700,-16.75,-35.1875,-71.875,0
24720,-29.125,-27.875,-59.3125,0
24740,-24.9375,-20.125,-55.9375,0
24760,-23.1875,-6.4375,-57.9375,0
24780,-30.125,3.5625,-51.3125,0
24800,-36.5,7.625,-37.375,0
24820,-36.3125,17.625,-31.125,0
24840,-26.4375,37.75,-31.25,0
24860,-21.125,52.5,-30.375,0
24880,-28.0625,69.5,-27.0625,0
24890,-30.625,86.0625,-26,0
24890,-20.3125,92.0625,-19.8125,0
24910,-8.6875,98.8125,-17.625,0
24930,-8.1875,103.375,-17.75,0
24940,-8.75,105.062,-14,0
24970,-0.8125,110,-6.25,0
24980,3,112.375,2.9375,0
25000,0.125,111.875,9.625,0
25020,3.4375,110.312,11.3125,0
25040,10.0625,104.688,19.875,0
25060,22.0625,96.75,28.0625,0
25080,25.25,97.0625,27.75,0
25100,9.5,100.938,34.5625,0
25120,0.5,89.0625,43.75,0
25140,1.4375,78.5625,45.3125,0
25160,9.875,77.4375,50.4375,0
25180,12.125,73.1875,51.375,0
25200,9.125,60.0625,53.625,0
25220,1.5,54.375,54.9375,0
25240,-9.625,52.0625,55.0625,0
25260,-18.5625,43.625,56.4375,0
25280,-26.125,31.75,56.375,0
25300,-38.875,22.1875,51.875,0
25320,-52.5,11.5625,51.6875,0
25340,-45.25,-3,48.5625,0
25360,-34.125,-20.5625,43.75,0
25380,-34.9375,-32.5625,42.5,0
25400,-32.6875,-45.125,39.9375,0
25420,-41.8125,-56.125,39.375,0
25440,-51.5,-64.75,35.875,0
25460,-53.75,-78.5,30.75,0
25480,-47.6875,-90.4375,30.5625,0
25500,-41.3125,-96.4375,29,0
25520,-44.625,-106.875,23.375,0
25540,-54.25,-122.188,19.875,0
25560,-60.9375,-133.562,13.125,0
25580,-55.0625,-139.438,-0.9375,0
25600,-45.6875,-142.125,-12.3125,0
25620,-49.8125,-137.625,-21.0625,0
25640,-43.5625,-129.5,-35.0625,0
25650,-24.9375,-124.75,-47.5,0
25680,-13.5625,-122,-52.625,0
25700,-6.0625,-114.375,-56.75,0
25720,9.5,-105.062,-66.8125,0
25740,34.875,-101.5,-73.3125,0
25760,28.125,-95.6875,-76.125,0
25780,16.875,-74.3125,-79.125,0
25800,5.1875,-62.375,-81.75,0
25820,-2.125,-64.375,-78.625,0
25840,-4.75,-62.9375,-81.25,0
25860,-1.625,-49.25,-85.1875,0
25880,-5.25,-44.4375,-78.5625,0
25900,-6.0625,-41.4375,-71.5,0
25920,-9.4375,-30,-77.125,0
25940,-13.1875,-12.1875,-78.1875,0
25960,-25.875,0.5625,-69.9375,0
25980,-28.5,10.625,-64.5,0
26000,-26.0625,24.25,-66.0625,0
26020,-22.875,34.25,-65.4375,0
26030,-22.375,42.1875,-56.3125,0
26050,-15.625,58.4375,-46.6875,0
26070,-13.4375,74,-42.25,0
26090,-27,77.25,-39.8125,0
26110,-25.4375,79.9375,-37.8125,0
26130,-20.5625,87.625,-36.5625,0
26150,-16.0625,93.0625,-33.0625,0
26170,-12.6875,96,-30.0625,0
26190,-9.9375,100.438,-29.625,0
26210,-12,103.25,-29.5625,0
26230,-14.0625,105.062,-22.375,0
26250,-12.5625,108.062,-10.9375,0
26270,-14.6875,111.062,-5.625,0
26290,-25,114,3.3125,0
26310,-25.5,112.625,18.75,0
26330,-16.75,104.75,29.125,0
26350,-19.125,101.375,45.25,0
26370,-7.6875,95.875,58.875,0
26390,-0.375,81.5,66.8125,0
26410,-11.75,70.1875,73.1875,0
26430,-26.0625,68.5,82.625,0
26450,-29.125,58.0625,83.875,0
26470,-29.8125,44.0625,77.1875,0
26490,-32.4375,40.875,77.375,0
26510,-31.875,34.375,74.0625,0
26530,-37.3125,23.8125,72.3125,0
26550,-39.25,13.4375,66.375,0
26570,-26.5625,5.3125,59.875,0
26590,-19.4375,-3.375,56.125,0
26610,-24.6875,-6.5,58.875,0
26630,-26.5,-9.125,54.8125,0
26650,-31.3125,-16.375,49.9375,0
26670,-40,-25.5625,50.5625,0
26690,-40.8125,-38.1875,46.6875,0
26710,-41.8125,-48.125,42.125,0
26730,-28.6875,-59.6875,36.4375,0
26750,-29.5625,-71.5625,31.5625,0
26770,-35.9375,-79.0625,23.8125,0
26790,-30.4375,-88.0625,15.75,0
26810,-20.8125,-98.9375,8.125,0
26830,-15.4375,-105.125,-0.5625,0
26850,-13.1875,-106.5,-10.375,0
26870,-8.6875,-108,-19.875,0
26890,-2.125,-111.812,-31.1875,0
26910,8.125,-109.562,-39.3125,0
26930,16.6875,-101.188,-46,0
26950,25.1875,-94.25,-51.9375,0
26970,22.8125,-94.8125,-56,0
26990,16.5,-93.375,-61,0
27010,23.5625,-85.1875,-64.125,0
27030,29.1875,-68.75,-65.9375,0
27050,22.9375,-58.9375,-61.25,0
27070,7.4375,-57.375,-57.1875,0
27090,6.8125,-54.5,-61.875,0
27110,11.5625,-46.8125,-61.9375,0
27130,22.875,-42.25,-55.25,0
27150,16.375,-33.9375,-55.75,0
27170,8.625,-25.1875,-55.8125,0
27190,7.875,-19.4375,-54,0
27210,10.75,-13.5,-50.375,0
27230,6.8125,-12.6875,-48.875,0
27250,-3.6875,-10.4375,-46.0625,0
27270,-10.5625,-2.9375,-41.9375,0
27300,-18.5,2.125,-44.625,0
27320,-19.875,5.125,-38.125,0
27340,-10.6875,8.9375,-31.6875,0
27360,5.125,9.375,-25.6875,0
27380,13.9375,14.0625,-20.0625,0
27400,13.5625,19.375,-16.625,1001
27420,5.125,21.4375,-15.375,0
27440,-7.625,22.75,-12.875,0
27460,-13.5,23.3125,-4.0625,0
27480,-10.25,21.3125,2.625,0
27500,-0.375,14.375,4.5625,0
27520,4,7.875,6.0625,0
27540,3.1875,7.1875,8.625,0
27560,-6.3125,7.625,5.8125,0
27580,-31.5,9.4375,0.9375,0
27600,-42,6.6875,1.4375,0
27620,-29.4375,-2.125,11.6875,0
27640,-22.3125,-0.375,27.3125,0
27660,-0.625,1.125,29.8125,0
27680,-5.5,5.875,25.9375,0
27700,-8.1875,8.5,37.1875,0
27720,-4.9375,5.9375,60.75,0
27740,-10.4375,5.5,79.5625,0
27760,-7.9375,13,90,0
27780,10.8125,15.9375,107.5,0
27800,29.75,9.0625,124.75,0
27820,21.375,2.125,134.562,0
27840,30.3125,5,143.188,0
27860,49.625,10.75,153.562,0
27880,57.25,3.8125,155.812,0
27900,51.125,1,152.438,0
27920,42.25,9.875,148.938,0
27940,34.6875,14.9375,136.75,0
27960,40.5625,10.625,114.562,0
27980,46.375,5.375,97.375,0
28000,54.3125,7.4375,80.5625,0
28020,57.6875,1.5,59.5,0
28040,53.75,-4.6875,43.6875,0
28060,46.4375,-7,31.1875,0
28080,31.25,-9.375,18.75,0
28100,19.1875,-10.25,10.0625,0
28120,11.125,-8.625,8.625,0
28140,7.8125,-2.4375,3.625,0
28160,-1.75,2.6875,-0.1875,0
28180,-4.3125,2,2.3125,0
28200,4.25,2.8125,4.4375,0
28220,17.9375,6.25,4.25,0
28240,22.625,5.5625,2.5625,0
28260,24.625,10.625,2.375,0
28280,28.75,10.1875,-0.5625,0
28300,21.875,6.25,-6.5625,0
28320,8.75,3.4375,-11.1875,0
28340,3.9375,4.4375,-11.1875,0
28360,5.6875,2.8125,-10.875,0
28380,5.3125,-2,-12.5,0
28400,5.5,-8.1875,-10.25,1000
28420,15.1875,-9.125,-10.75,0
28440,17.75,-9.875,-13,0
28460,17.8125,-15.8125,-10.875,0
28480,20.3125,-16.375,-12.75,0
28500,20.4375,-16.375,-14,0
28520,12.875,-19.625,-14.9375,0
28540,10.0625,-24.875,-18.375,0
28560,0.5,-27.3125,-23,0
28580,-6.125,-32.375,-27,0
28600,4.875,-40.625,-31,0
28620,7.25,-46.125,-38.9375,0
28640,3.125,-48.625,-43.25,0
28660,-1.0625,-48.8125,-44.5625,0
28680,8.3125,-48.75,-46.25,0
28700,1.125,-51.5,-47.5,0
28720,-17.375,-47.8125,-42.6875,0
28740,-19.625,-39.3125,-38,0
28760,-11,-33.375,-33.75,0
28780,-9.5,-36,-26.75,0
28800,-9.625,-36.4375,-20.1875,0
28820,-13,-27.6875,-17.9375,0
28840,-3.75,-21.5,-20.125,0
28860,-6.1875,-14.1875,-26.6875,0
28880,-13.75,-2.125,-27.125,0
28900,-10.3125,12.1875,-29.25,0
28920,-8.0625,19.125,-36.5625,0
28940,-18.5625,28.75,-41.4375,0
28960,-26.5625,43,-39.125,0
28980,-21.1875,52.375,-36.5625,0
29000,-13.375,59.5,-37.0625,0
29020,-18.8125,68.125,-41.375,0
29040,-29.4375,81.1875,-51.3125,0
29060,-34.8125,88.625,-50.4375,0
29080,-34.5,88.3125,-42.25,0
29100,-33,91.25,-48.8125,0
29120,-35.5,97.8125,-53.0625,0
29140,-37,98.3125,-40.75,0
29160,-29.375,95.375,-32.1875,0
29180,-26,92.8125,-33,0
29200,-24.6875,92.25,-24.8125,0
29220,-15.9375,90.125,-12.0625,0
29230,-14.5625,83.75,-9.625,0
29250,-19.125,76.5,-7.4375,0
29270,-18.1875,73.25,2.75,0
29290,-12.625,70.25,10.75,0
29310,-12.875,67.8125,13.4375,0
29330,-14.875,67.4375,18.0625,0
29350,-4.1875,63.8125,27.875,0
29370,13.1875,57.9375,31.375,0
29390,15.75,58.625,31.4375,0
29410,8.1875,57.3125,36.75,0
29430,12.375,54.5625,41.4375,0
29450,18.5625,50.25,39.5,0
29470,21.5625,52.9375,33.875,0
29490,20.6875,49.875,34.9375,0
29510,15.75,34.3125,35,0
29530,18.375,28.4375,31.5625,0
29550,26.5625,28.0625,33.125,0
29570,14.4375,22.75,33.4375,0
29590,1.6875,12.3125,31.3125,0
29610,1.75,3.6875,33,0
29630,5.5625,-2.5,34.125,0
29650,10.125,-10.75,36.75,0
29670,4.1875,-18.125,37,0
29690,-8.25,-26.625,34.5,0
29710,-14.125,-38.125,33.4375,0
29730,-20.5625,-46,31.875,0
29750,-14.8125,-49.4375,32.5625,0
29770,-8.9375,-59.125,31.9375,0
29790,-16.625,-66.75,31.4375,0
29810,-19.6875,-65.375,31.4375,0
29830,-19.5,-69.0625,32,0
29850,-28.25,-77.3125,30.625,0
29870,-30.0625,-80.75,28.0625,0
29890,-25.0625,-84.8125,24.625,0
29910,-21.0625,-89.0625,21.0625,0
29930,-19.125,-91.25,19.0625,0
29950,-20.375,-94.4375,15.5625,0
29970,-20.9375,-97.125,11.125,0
29990,-16,-99.125,7.375,0
30010,-19.3125,-102.312,3.8125,0
30030,-27.8125,-104.562,-0.625,0
30050,-22.1875,-104.125,-6.375,0
30070,-12.3125,-103.938,-13.1875,0
30090,-9.5,-104.188,-21.625,0
30110,-11.9375,-100.5,-29.8125,0
30130,-5.5,-95.375,-37.25,0
30150,4.5625,-92.3125,-46.3125,0
30170,-2.5625,-88.625,-53.25,0
30190,-7.5625,-81.25,-54.75,0
30210,-0.25,-75.75,-57.5,0
30230,7.75,-72,-61.1875,0
30250,3.5,-65.9375,-66.125,0
30270,-6,-56.875,-66.5,0
30290,-8.25,-47.6875,-66.5,0
30310,-9.8125,-42.5,-65.6875,0
30330,-24,-33.0625,-66.8125,0
30350,-32.375,-21.125,-62.875,0
30370,-26.5625,-8.0625,-57.1875,0
30390,-20.125,5.5625,-58.6875,0
30410,-25.9375,16.75,-53.5625,0
30430,-17.8125,25.5625,-45.4375,0
30450,-15.8125,36.375,-46.8125,0
30470,-28.375,53.4375,-49.8125,0
30490,-45.875,62.9375,-41.4375,0
30510,-44.875,66.5625,-35.3125,0
30530,-56.9375,77.4375,-35.3125,0
30550,-66.5,82.375,-28.5,0
30570,-49.375,83.5,-16.3125,0
30580,-21,88.875,-15.625,0
30620,-14.8125,98.9375,14.6875,0
30640,4.8125,87.0625,19.75,0
30660,8.25,80.5,19.375,0
30680,-3.25,78.1875,24.625,0
30700,-11.625,75.4375,34.3125,0
30720,-16.6875,71.4375,35.5625,0
30740,-24.4375,72.5625,36.6875,0
30760,-27,68.6875,42.3125,0
30780,-24.8125,57.5,49.8125,0
30800,-10.3125,49.5625,51.0625,0
30820,5.75,46.3125,52.1875,0
30840,1.25,44.5,49.9375,0
30860,-8.5,42.5625,51.625,0
30880,-26.375,30.8125,49.1875,0
30900,-34.8125,17.4375,49.625,0
30920,-24,8.125,50.0625,0
30940,-18.5625,-5.9375,46.5625,0
30960,-16.1875,-22,43.625,0
30980,-16.5,-36.4375,34.8125,0
31000,-9.875,-44.875,26.75,0
31020,-3.5,-52.375,21.875,0
31040,3.1875,-62.25,17.625,0
31060,9,-65.9375,15.875,0
31080,13.5625,-69.9375,18.0625,0
31100,8.125,-77.375,20.1875,0
31120,-6.3125,-81.75,22,0
31140,-21.5,-83.125,21.8125,0
31160,-23.875,-83.5625,18.625,0
31180,-20.6875,-88.8125,13.625,0
31200,-25.75,-95.125,9.75,0
31220,-16.5625,-99.125,8.125,0
31240,-12.6875,-101.938,6.375,0
31260,-16.0625,-100,4.0625,0
31280,-23.875,-97.625,-0.4375,0
31300,-25.75,-98.875,-6.375,0
31320,-26.5,-101.375,-11,0
31340,-25.0625,-98.4375,-13.6875,0
31360,-17.625,-88.3125,-18.5,0
31380,-4.9375,-81.5,-26.875,0
31400,0.125,-78.5625,-34.8125,0
31420,-3.3125,-74.125,-40,0
31440,-1.5625,-66.8125,-45.4375,0
31460,7.5625,-60.9375,-52.75,0
31480,12.125,-55.1875,-61.3125,0
31500,12.6875,-49.6875,-63.9375,0
31520,7.875,-35.9375,-66.5,0
31540,8.75,-23.75,-70.9375,0
31560,17.4375,-16.1875,-73.5,0
31580,19.0625,-11.5,-77.6875,0
31590,14,-1.6875,-80.75,0
31610,-2.1875,10.125,-77.25,0
31630,-6.8125,20.3125,-73.6875,0
31650,-8.5625,28.875,-73.125,0
31670,-12,36.3125,-70.4375,0
31690,-21.75,44.375,-64.3125,0
31710,-17.5,51.3125,-58.5625,0
31730,-16.0625,61.875,-54.75,0
31750,-22,66.375,-48.8125,0
31770,-20.5625,71.5625,-43.6875,0
31790,-11.6875,79.0625,-39.6875,0
31810,-13.625,82.5625,-33.6875,0
31830,-20.125,81.0625,-26.5,0
31850,-13.6875,82.5625,-21.75,0
31870,-7.3125,88.5625,-16.9375,0
31890,-12,93.9375,-12.1875,0
31910,-14.5,97,-6,0
31930,-11.875,97.25,-1.1875,0
31950,-8.9375,92.25,0.625,0
31970,-3.375,86.6875,7.1875,0
31990,7.5625,87.125,15.375,0
32010,10.9375,83.375,20.1875,0
32030,1.0625,76.5625,22.625,0
32050,-18.25,75.4375,32.0625,0
32070,-14.375,75.4375,43,0
32090,-12.1875,69.5625,45.125,0
32110,-18.1875,67.375,46.25,0
32120,-18.4375,65.3125,49.75,0
32140,-24.8125,67.0625,54.875,0
32160,-47.1875,58.625,59,0
32180,-64.4375,47.0625,64.5625,0
32200,-67.3125,41.875,75,0
32220,-54.3125,28.625,72.125,0
32240,-64.5,19.875,66.9375,0
32260,-78.375,13.0625,60.4375,0
32280,-75.3125,-2,48.5,0
32300,-72.125,-20.625,46.9375,0
32320,-69.8125,-35.1875,47.625,0
32340,-70.25,-49.9375,38.25,0
32360,-62.8125,-67.8125,33.9375,0
32380,-61.4375,-79.8125,34.75,0
32400,-66.5,-84.4375,31.0625,0
32420,-73.25,-92.125,21.6875,0
32440,-65.3125,-109.125,13.125,0
32460,-51.625,-117.625,5.1875,0
32480,-39.75,-120.375,-1.6875,0
32500,-34.25,-125.375,-10.5625,0
32520,-31.375,-131.25,-18.9375,0
32540,-28.5625,-130.062,-29,0
32560,-18.1875,-122.188,-38.1875,0
32580,-17.5625,-113.938,-45.375,0
32600,-15.0625,-107.438,-50.0625,0
32620,-8.1875,-104.5,-54.25,0
32640,1.75,-96.375,-55.75,0
32660,15.9375,-80.5,-54.25,0
32680,20.9375,-70.6875,-54.4375,0
32700,24.0625,-69.1875,-58.625,0
32720,23.625,-69.1875,-60.0625,0
32740,29,-64.875,-73.5,0
32760,24.625,-50.25,-80.9375,0
32780,13.125,-37.5,-76.625,0
32800,10.875,-27.1875,-78.5,0
32820,17.3125,-23.125,-81.0625,0
32840,29.1875,-17.5625,-75.1875,0
32860,40.5,-6.75,-67.625,0
32880,43.5625,0,-63.3125,0
32900,23.1875,8.1875,-61,0
32920,8.5,16.875,-56,0
32940,0.4375,18.8125,-48.9375,0
32960,-17.1875,19.4375,-38.8125,0
32980,-21.3125,25.625,-29.375,0
33000,-18.5625,27.5625,-21.6875,0
33020,-10.9375,23.1875,-15.125,0
33040,-5,19.9375,-6.875,1001
33060,-13.125,18.8125,-0.9375,0
33080,-15.6875,19.25,6.8125,0
33100,-5.3125,12.5,13.5625,0
33120,-1.75,5.75,15.4375,0
33140,0.5625,3.75,15.75,0
33160,1.375,3.125,15.1875,0
33180,-5.0625,2.875,12.75,0
33200,-13.375,2.4375,6.3125,0
33220,-25.8125,3.5625,-3.5,0
33240,-28.875,2.8125,-1.625,0
33260,-22.25,6.6875,9.4375,0
33280,-17.75,11.25,18.5,0
33300,-1.125,12.25,28.6875,0
33320,15.375,8,43.6875,0
33350,32.6875,5.5625,67.25,0
33380,29,7.3125,95.5625,0
33400,7.4375,1.4375,111.375,0
33420,20.375,9.1875,124.5,0
33440,64.125,6.5,134,0
33460,58.8125,-10.5,139.5,0
33480,62.8125,0.8125,135.375,0
33500,65.5,19.5,137.438,0
33520,62.125,18.9375,120.875,0
33540,48.4375,10.875,96.1875,0
33560,40.125,16.25,90.5,0
33580,45.5,18.875,76.25,0
33600,50.75,11.9375,51.6875,0
33620,49.0625,9.6875,44.8125,0
33640,45.125,16.0625,45.8125,0
33660,26.5,16.625,36.9375,0
33680,2.9375,13.1875,29.875,0
33700,-2.9375,13.9375,32.25,0
33720,4.875,10.375,33.625,0
33740,11.8125,8,26.5,0
33760,20.5,12,20.4375,0
33780,29.125,15,16.5625,0
33800,24.1875,13.75,9.125,0
33810,11.5,14.875,2.4375,0
33830,9.5,14.5,-1,0
33850,9.3125,10.8125,-0.875,0
33870,13.75,5.4375,-1.5,0
33890,19.5,7.75,-3.125,0
33910,20.3125,11.375,-8.5625,0
33930,19.25,13.3125,-18.8125,0
33950,12.6875,11.75,-19.75,0
33970,8.375,12,-17.875,0
33990,9.6875,12.1875,-22,1000
34010,18,7.5,-21.8125,0
34040,27.125,-0.0625,-7.0625,0
34060,20.4375,-6.8125,-7.375,0
34080,4.875,-10.375,-5.25,0
34100,-0.4375,-14.6875,-10.4375,0
34120,-4.3125,-15.625,-16.8125,0
34140,-4.125,-18.375,-15.625,0
34160,2.625,-21.8125,-15.1875,0
34180,9.8125,-24,-17,0
34200,11.75,-20.625,-16.875,0
34220,8.875,-20.625,-14.875,0
34240,3.3125,-19.5,-14.9375,0
34260,4.8125,-19.4375,-15.8125,0
34280,9.75,-21.125,-21.0625,0
34300,12.0625,-25.6875,-27.25,0
34320,17.375,-30.5625,-37.75,0
34340,11.6875,-37.8125,-38.75,0
34360,2.6875,-43.875,-37.125,0
34380,12.5625,-43.3125,-37.9375,0
34400,11.375,-44.5,-40.625,0
34420,-0.375,-43.5,-38.1875,0
34440,-5.1875,-42.3125,-28.3125,0
34460,10.875,-45.75,-19.5,0
34480,19,-46.0625,-23.625,0
34500,7.625,-36.3125,-30.5,0
34530,-6.75,-27.25,-32.4375,0
34550,1.6875,-23.625,-38.125,0
34570,-0.375,-7.3125,-47.1875,0
34590,-9.25,6.875,-49.3125,0
34610,-19.25,14.875,-40.375,0
34630,-11.1875,21.8125,-43,0
34650,-14.8125,32.5,-55.9375,0
34670,-23.875,45.5,-58.3125,0
34690,-35.75,51.1875,-48.9375,0
34710,-39,58.125,-36,0
34730,-31.75,66.8125,-35.625,0
34750,-32.0625,78.4375,-47.4375,0
34770,-39.8125,83.625,-49.875,0
34790,-49.6875,78.25,-34.6875,0
34810,-41.6875,79.0625,-29.5625,0
34830,-34.3125,85.625,-34.75,0
34850,-38.1875,89,-24.375,0
34870,-32.5625,88.3125,-15.0625,0
34890,-26.8125,90.5625,-21.1875,0
34910,-29.6875,91.8125,-20.25,0
34930,-28.0625,87.5625,-10.4375,0
34950,-22.8125,83.4375,-4.125,0
34970,-19.1875,82.875,-0.5625,0
34990,-16.625,78.875,8.625,0
35010,-13.5625,70.8125,14.5,0
35030,-5.75,66.125,18.75,0
35050,-2.5,62.3125,25.5625,0
35070,-2.9375,57.4375,24.5625,0
35090,-4.75,52.625,23,0
35110,-5.25,48.8125,23.8125,0
35130,-9.5,45.75,27.3125,0
35150,-14.625,40.9375,30.75,0
35170,-10.0625,37.75,30.5,0
35190,4.375,32.625,28.9375,0
35210,7.8125,31,30.5,0
35220,-1.0625,29.9375,29.4375,0
35240,-8.0625,24.9375,27.3125,0
35260,-1.3125,14.75,28.5,0
35280,7.5625,9.0625,33.5625,0
35300,11.125,2.1875,43.3125,0
35320,-8.6875,-1.3125,53.8125,0
35340,-34.8125,3.625,66.3125,0
35360,-47.9375,6.375,75.25,0
35380,-47.5625,2.0625,75,0
35400,-34.75,-2.0625,67.4375,0
35420,-36.8125,-2.4375,55.875,0
35440,-41.375,-6.3125,39.875,0
35460,-44.5,-17.1875,27.375,0
35480,-37.625,-31.8125,19.4375,0
35500,-21.6875,-42.1875,11.875,0
35520,4.3125,-51.5625,6.25,0
35540,18.1875,-61.3125,5.25,0
35560,15.9375,-67.5625,5.375,0
35580,6.8125,-68.5,-3.6875,0
35600,24.4375,-71.625,-15.0625,0
35620,33.8125,-79.125,-20.75,0
35640,30.4375,-86.125,-20.5,0
35660,18.8125,-88.125,-15.5625,0
35680,18.625,-89.9375,-8.8125,0
35700,14.4375,-93.375,-4,0
35720,0.8125,-96.0625,1.8125,0
35740,-11.25,-94.75,2.25,0
35760,-15,-95.1875,0.625,0
35780,-18.1875,-99.75,0.6875,0
35800,-19.1875,-101.062,1.3125,0
35820,-15.125,-98.625,1.625,0
35840,-12.3125,-96.125,0.1875,0
35860,-13.9375,-95.4375,-3.8125,0
35880,-20.1875,-92.6875,-9.25,0
35900,-19.3125,-87.6875,-16,0
35920,-17.5,-82.9375,-23.0625,0
35940,-8.1875,-78.625,-30,0
35960,-4.625,-72.8125,-35.375,0
35980,-6.8125,-64.5625,-39.25,0
36000,-3.75,-56.625,-42.375,0
36020,2.8125,-52.8125,-43.125,0
36040,7.3125,-49.3125,-44.125,0
36060,16.5,-39.4375,-48.125,0
36080,17.875,-27.4375,-52.75,0
36100,9.4375,-24.875,-53.3125,0
36120,-7.5625,-22.0625,-54.1875,0
36140,-16.8125,-10.3125,-58.6875,0
36160,-28.1875,3.0625,-58.3125,0
36180,-35.1875,13,-52.6875,0
36200,-30.1875,24.3125,-49.25,0
36220,-26.3125,32.4375,-46.9375,0
36240,-20.9375,37.75,-41.8125,0
36260,-14.5625,48.5625,-40.25,0
36280,-12.625,64.3125,-41.3125,0
36300,-21.8125,66.375,-33.8125,0
36310,-23.9375,66.625,-29,0
36330,-26.8125,78.9375,-34.125,0
36350,-38.8125,89.75,-36.1875,0
36370,-41.25,90.4375,-30.625,0
36390,-32.375,93.375,-29.125,0
36410,-22.1875,98.4375,-29.9375,0
36430,-23.875,99.75,-22.875,0
36450,-19.375,97.3125,-14.125,0
36470,-15.5,97.6875,-15.8125,0
36490,-19.1875,94.9375,-16.75,0
36510,-25.4375,90.625,-6.375,0
36530,-24.125,89.3125,6.9375,0
36550,-22,85.125,13.3125,0
36570,-20.3125,78.6875,17.375,0
36590,-6.3125,71.6875,27.5625,0
36610,1.75,66,35.75,0
36630,-7.0625,64.875,38.5,0
36650,-12.4375,63.0625,41.8125,0
36670,-5.625,54.875,43.6875,0
36690,-11.8125,47.0625,44,0
36710,-17.6875,49.5,46.75,0
36730,-11.4375,48.625,47.8125,0
36750,-13.625,40.625,43.1875,0
36770,-16.4375,39.25,39.1875,0
36790,-3.5625,47,40.5,0
36810,-10.5,49.625,38.375,0
36840,-22.875,44.5625,36.75,0
36860,-7.875,35.5,36.5625,0
36880,2.5,29.875,36.1875,0
36900,-3.1875,20.8125,33.8125,0
36920,-8.0625,12.0625,31.875,0
36940,-14,2.0625,32.9375,0
36960,-19.0625,-7.6875,33.375,0
36980,-28.8125,-19.5625,28.5,0
37000,-27.3125,-33.5,28.8125,0
37020,-25.4375,-44.0625,32.3125,0
37040,-25.1875,-51.625,31.0625,0
37060,-26.5625,-59.1875,29.375,0
37080,-23.4375,-66.375,28.25,0
37100,-16,-69.75,24.8125,0
37120,-18.5625,-74.5,23.8125,0
37140,-18.1875,-74.375,25.1875,0
37160,-2,-74.25,23.0625,0
37180,-3.3125,-72.3125,22.5625,0
37200,-9.9375,-67.1875,17.8125,0
37220,4.5625,-67.0625,13.8125,0
37240,-1.0625,-71.125,7.375,0
37260,0.75,-74.875,-0.8125,0
37280,3.375,-73.0625,-8.625,0
37300,23.0625,-71.125,-13.875,0
37320,27.75,-75.3125,-19.6875,0
37340,14.75,-73,-31.6875,0
37360,13.875,-76.25,-40.875,0
37380,12.1875,-83.25,-46.5625,0
37400,20.5625,-77.0625,-56.0625,0
37420,27.5,-73.75,-63.5,0
37440,37.6875,-79.875,-68.8125,0
37460,23,-80.125,-75.3125,0
37480,21.1875,-75.375,-79.5,0
37500,23.5,-74.125,-83.625,0
37520,24.125,-72.75,-81.125,0
37540,12.8125,-65.125,-87.125,0
37560,-8.1875,-47.625,-86.5625,0
37580,-17.0625,-37.8125,-81.5625,0
37600,-11.25,-34.5,-82.25,0
37620,-8.625,-22.0625,-86.5,0
37640,-16.8125,-3.125,-77.5,0
37660,-20.9375,10.5625,-63.75,0
37680,-14.8125,14.9375,-59.75,0
37700,-13.8125,17.5625,-61.875,0
37720,-21,29.6875,-58.6875,0
37740,-31.5,45.5625,-49.3125,0
37760,-38.6875,57.3125,-43.25,0
37780,-45.5,65.8125,-42.875,0
37800,-41.5625,73.0625,-42.125,0
37820,-42.25,76.5625,-38.0625,0
37840,-30.3125,77.5625,-31.3125,0
37860,-7.9375,82.4375,-20.4375,0
37880,3.25,89.25,-13,0
37900,1.6875,90.0625,-9.1875,0
37920,-4.9375,87.6875,-2.0625,0
37940,7.3125,87.75,7.3125,0
37960,12.5625,86.4375,17,0
37980,9.8125,82.875,27.6875,0
38000,14.5625,83.5,44.25,0
38020,11.5625,77.25,54.3125,0
38040,-4.375,67.1875,54.1875,0
38060,-27.4375,59.8125,60.6875,0
38080,-28.8125,53.75,71.625,0
38100,-22.9375,39.9375,69.125,0
38120,-27.5,32.375,63.3125,0
38140,-37.1875,33.25,66.3125,0
38160,-46.625,33.3125,67.25,0
38170,-54.1875,16.6875,63.9375,0
38200,-70.1875,5.875,74.4375,0
38220,-60.4375,5.875,71.75,0
38240,-62.625,1.0625,60.4375,0
38250,-78,-4.25,56.625,0
38270,-84.5,-14.25,48.5625,0
38290,-78.25,-37.0625,45.375,0
38310,-62.5625,-48.3125,50.875,0
38330,-38.875,-59.5625,45.6875,0
38350,-40.5625,-74.1875,31.625,0
38370,-37.75,-87.9375,18.9375,0
38390,-13.625,-102.812,6.375,0
38410,6.25,-113.812,-10.375,0
38430,24.6875,-116.938,-23.5,0
38450,27,-118.562,-37.4375,0
38470,31,-116.688,-50.4375,0
38490,43,-110.062,-59.6875,0
38510,47.875,-103.125,-62.4375,0
38530,44.8125,-96.25,-64.4375,0
38550,44.8125,-89,-69.375,0
38570,41.6875,-80.1875,-69.5625,0
38590,31.4375,-68.25,-62.8125,0
38610,22.125,-60.6875,-60.25,0
38630,18.125,-60.125,-61.6875,0
38650,27.1875,-57.1875,-67.125,0
38670,38.5625,-43.3125,-63.8125,0
38690,35.5625,-23.4375,-49.625,0
38710,24.375,-12.5,-40.1875,0
38730,7,-12.5,-47,0
38750,7.625,-7.375,-51.75,0
38770,6.5625,4.3125,-43.0625,0
38790,12.875,7.0625,-33.4375,0
38810,6.375,5.4375,-27.875,0
38830,-6.625,3,-27.375,0
38850,-24.375,3.4375,-25.375,0
38870,-36.375,2.6875,-17.4375,0
38890,-49.9375,5.375,-10.5,1001
38910,-65.1875,8.1875,-6.875,0
38930,-75.4375,2.8125,-2.3125,0
38950,-60.0625,1.1875,3.375,0
38970,-27.6875,-1,19.375,0
38990,-3.875,0.8125,37.125,0
39010,27.4375,11.25,45,0
39030,28.375,18.875,42.375,0
39050,15.875,24.75,42.375,0
39070,-9.875,27,46.5625,0
39090,-32.0625,28.875,53.25,0
39110,-33.625,35.1875,69.1875,0
39120,-6.9375,41.6875,84.75,0
39140,24.1875,33.375,93.8125,0
39160,20.75,28.75,92.4375,0
39180,28.75,40.6875,101.688,0
39200,51.1875,48,114.562,0
39220,58.1875,33,113.625,0
39240,41.9375,30.75,106.312,0
39260,39.25,44.625,108.812,0
39280,46.125,41.25,105.625,0
39300,34,24.25,95.875,0
39320,34.5625,27.8125,95.6875,0
39340,45.875,31.25,88.75,0
39360,43.1875,22.625,68.375,0
39380,37.125,16.75,58.375,0
39400,28.8125,13.875,55.75,0
39420,21.6875,8.5625,42.875,0
39440,21.9375,4.625,28.0625,0
39460,27.625,-0.875,22,0
39480,30.5625,-12.125,19.9375,0
39500,20.3125,-23.4375,15,0
39520,15.8125,-27.9375,8.4375,0
39540,10.625,-32.3125,3.0625,0
39560,-0.4375,-42.125,1.875,0
39580,-22.125,-49.5625,6.0625,0
39600,-31.5,-38.125,8.8125,0
39620,-37.125,-23.0625,11.8125,0
39640,-44.375,-17.6875,14.5625,1000
39660,-40.75,-13.9375,11.125,0
39690,-9.3125,-17.875,0.125,0
39710,6.5,-21.0625,-0.5,0
39730,17.875,-18.75,-2,0
39750,20.3125,-16.875,-13,0
39770,18.625,-19.5,-27,0
39790,14.5,-29.125,-34.4375,0
39810,20.375,-38.375,-35.25,0
39830,34.8125,-50,-41.9375,0
39850,18.1875,-57.75,-49,0
39870,0.5625,-61.8125,-48.6875,0
39890,-6.75,-69.0625,-48.5,0
39910,0.6875,-71.375,-47.1875,0
39940,7.1875,-58.875,-47.8125,0
39960,-6.625,-51.25,-43.25,0
39980,-16.5,-45.625,-38.6875,0
40000,-16.125,-35.5,-37.9375,0
40020,-15.5625,-22.125,-39.3125,0
40040,-12.5625,-11.375,-28.9375,0
40060,2.3125,2.4375,-22.9375,0
40080,11.8125,21.0625,-31.625,0
40100,2.25,32.1875,-38.75,0
40120,-17.5,42.9375,-39.625,0
40140,-31.625,58.5625,-38.8125,0
40160,-34.5625,73.3125,-39.375,0
40180,-32.125,80.125,-43.5,0
40200,-30.875,81.8125,-41.9375,0
40220,-33.6875,88.875,-42.0625,0
40240,-45,96.4375,-44.0625,0
40260,-54.6875,101.125,-35.125,0
40280,-50.8125,106.938,-27.625,0
40300,-49.125,114.812,-33.5625,0
40320,-59.5625,123.875,-30.125,0
40340,-57.0625,135.375,-11.625,0
40360,-35.4375,144.5,-0.875,0
40380,-25.125,143.875,-3.1875,0
40400,-24.9375,140.688,2.5625,0
40420,-9.75,131.188,19.9375,0
40440,13.75,120.75,24.5,0
40460,11.625,114.938,22.25,0
40480,4.625,110.25,25.625,0
40500,9.0625,101.125,28.25,0
40520,14.125,90.1875,25.4375,0
40540,11.875,82.25,24.75,0
40560,7.375,75.4375,32,0
40580,7.5,66.8125,38.75,0
40600,15.375,55.3125,39.1875,0
40620,14.5,49.0625,37.3125,0
40640,14.625,46.5,38.5,0
40660,6.5625,36.3125,40.25,0
40680,1,21.4375,40.875,0
40700,11.5625,10.3125,43.3125,0
40720,17.1875,3.3125,42.9375,0
40740,8.6875,-6.125,41.3125,0
40760,-9.75,-19.3125,40.625,0
40780,-11.875,-30.1875,40.25,0
40800,2.25,-40.8125,35.6875,0
40820,6.5,-47.875,31.125,0
40840,2.125,-48.6875,30.625,0
40860,-0.125,-55.9375,26.0625,0
40880,-2.0625,-67.375,22.1875,0
40900,2.625,-74.5625,21.0625,0
40920,1.0625,-83.25,20.8125,0
40940,-6.3125,-92.4375,23.875,0
40960,-21.1875,-99.6875,25.25,0
40980,-33.75,-106.625,23.6875,0
41000,-37.3125,-114.562,21.9375,0
41020,-40.1875,-119.062,18.1875,0
41040,-42.1875,-121.5,16.1875,0
41060,-45.375,-124.688,15.9375,0
41080,-37.125,-127.188,8.3125,0
41100,-31.6875,-129.312,1.5625,0
41120,-30.625,-130.75,-2.3125,0
41140,-27.6875,-129.938,-9.9375,0
41160,-16.625,-129.375,-20.5625,0
41200,-16.5,-120.125,-47.4375,0
41210,-10.8125,-116.375,-55.9375,0
41230,-5.5,-108.312,-66.3125,0
41250,-1.5625,-95.5625,-79.125,0
41270,-2.9375,-82.6875,-87,0
41290,-0.75,-71.375,-86.125,0
41310,-3.9375,-60.25,-86.625,0
41330,-9.375,-43.25,-88.5625,0
41350,-5.5625,-26.3125,-86.6875,0
41370,-11.6875,-6.875,-80.25,0
41390,-21.8125,12.9375,-73.0625,0
41400,-29.1875,34.875,-70.4375,0
41420,-36.75,46.0625,-67.3125,0
41440,-36.25,55.4375,-59.6875,0
41460,-37.8125,75.25,-52.0625,0
41480,-47.625,93.125,-42,0
41500,-49,102.5,-30.75,0
41520,-33.375,107,-23.0625,0
41540,-30.875,116,-24.8125,0
41560,-36.4375,124.625,-22.0625,0
41580,-23.6875,122.375,-12.125,0
41600,-13.5625,118.938,-12.5625,0
41620,-16.8125,117.688,-18.75,0
41640,-27.0625,114.812,-13.25,0
41660,-15.375,115,-2.0625,0
41680,-6.4375,112,1.75,0
41700,-9.0625,107.562,5.75,0
41720,-2.25,96.75,16.5625,0
41740,5.25,87.0625,25.1875,0
41760,14.6875,82.125,34.125,0
41780,12.375,78.3125,46.9375,0
41800,-0.3125,76.8125,60.875,0
41820,-24.5625,73.1875,71.1875,0
41840,-59.3125,64.25,75.8125,0
41860,-70.75,52.3125,80.3125,0
41880,-50.75,33.125,76.3125,0
41900,-21.5625,15.5,63.0625,0
41920,10.4375,7.75,54.875,0
41940,36.6875,4.6875,48.125,0
41960,33.9375,-0.25,44.1875,0
41980,3.0625,-13.6875,45.6875,0
42000,-20.125,-25.9375,47.5,0
42020,-19.625,-39.4375,43.6875,0
42040,-19.5625,-55.9375,42.8125,0
42060,-27.875,-71.625,44.6875,0
42080,-27,-81.8125,40.125,0
42100,-17.375,-92.5,35.75,0
42120,-30.5625,-104.625,32.1875,0
42140,-49.8125,-112.75,29.4375,0
42170,-52.625,-131.375,20.3125,0
42190,-52.4375,-139.25,9.0625,0
42210,-36.4375,-140.188,-1.0625,0
42230,-5.5,-137.625,-12.6875,0
42250,19.6875,-133.625,-28,0
42270,35.8125,-129.75,-50.0625,0
42290,45.625,-127.562,-70.9375,0
42310,37,-125.25,-84,0
42330,16.125,-114.188,-95.0625,0
42350,-8.9375,-99.5,-99.25,0
42370,-16,-89.5625,-97.625,0
42390,-5.8125,-77.3125,-100.438,0
42410,-0.3125,-60.875,-101.625,0
42430,0.4375,-43.9375,-94.3125,0
42450,3.75,-27.8125,-85.125,0
42470,-6.4375,-12.125,-79.125,0
42490,-20.3125,1.4375,-76.125,0
42510,-28.4375,15.25,-75.25,0
42530,-29.5625,32.125,-72.3125,0
42550,-41.8125,49.625,-64.4375,0
42570,-69.1875,65.75,-56.8125,0
42590,-63.25,78.375,-52,0
42610,-41.625,89.875,-48.6875,0
42630,-37.875,100.562,-47,0
42650,-31.75,109.562,-40.75,0
42670,-2.3125,113.375,-31.875,0
42690,2.1875,117.625,-34.1875,0
42710,-20.6875,126.312,-34.8125,0
42730,-16.5625,133.75,-25.9375,0
42750,-9.3125,136.188,-19.4375,0
42770,-24.5,133.25,-14.3125,0
42790,-21.375,129.562,1.5625,0
42810,16.875,121.5,17.625,0
42830,28.25,114.688,28.8125,0
42850,7.9375,111.688,48.0625,0
42870,0.5625,112.938,71.25,0
42890,-9.3125,116.875,104.938,0
42910,-93.5625,98.0625,131.625,0
42930,-162.188,52.1875,150.25,0
42950,-170.562,3.75,148.062,0
42970,-122.5,-29.9375,119.188,0
42990,-77.5625,-54,88.0625,0
43010,-57,-68.125,68.9375,0
43030,-33.625,-80.125,46.625,0
43050,-24.3125,-101.375,27.5,0
43070,-24.125,-119.438,19.4375,0
43090,-29.9375,-126.312,17.9375,0
43110,-37.9375,-128.75,13.3125,0
43130,-46.875,-130,4.75,0
43150,-49.8125,-129.438,-2.1875,0
43170,-47,-125.812,-9.4375,0
43190,-47.4375,-118.812,-18.25,0
43210,-43.25,-111.312,-24.8125,0
43230,-23.3125,-102.938,-32.4375,0
43250,-3.125,-93.375,-37.5,0
43270,10.5,-80.5,-40.1875,0
43290,8.3125,-67.8125,-43.0625,0
43310,1.875,-53.0625,-46.3125,0
43330,5.875,-38.125,-48.75,0
43350,12.5,-25.5,-49.75,0
43370,18.25,-14.5,-50.8125,0
43390,35.375,-8.1875,-50.6875,0
43410,44,-2.5,-51.0625,0
43430,54.4375,4.0625,-51.0625,0
43450,33.5625,13.3125,-51.8125,0
43470,17.875,23.375,-48.9375,0
43490,17.9375,24.5625,-42.625,0
43510,19.75,19.5,-35.75,0
43530,20.1875,18,-31.3125,0
43550,18.6875,15.25,-30.25,0
43570,11.0625,8.75,-27.1875,0
43590,0.5625,9.25,-18.4375,0
43610,-14.6875,11.375,-12.4375,0
43630,-31.4375,10.6875,-12.75,0
43650,-43.5,12.0625,-18.375,0
43670,-58.4375,15.6875,-13.9375,0
43690,-55.5,9.9375,-2.375,0
43710,-38.375,0.375,16.6875,0
43730,-12.375,5.75,33.625,0
43750,11.375,12.3125,40.3125,0
43770,-4.875,13.25,37.0625,0
43790,-20,10.8125,42.625,0
43810,-15.3125,10.625,48.75,0
43830,-5.375,7.875,44.4375,0
43850,-2.9375,5.6875,37.125,0
43870,4.375,4.6875,31.3125,0
43890,3.3125,1.3125,18.9375,0
43910,-6.5,4.25,8.25,0
43930,-2,9.625,6.125,0
43950,-3.25,6,-1.9375,0
43970,-4.5625,-1.125,-13,0
43990,-5.375,-4.875,-19.1875,0
44010,-5.25,-6.6875,-20.5625,0
44050,4.625,-18.1875,-25.9375,0
44070,5.4375,-17.4375,-27.1875,0
44090,-0.3125,-16.25,-27,0
44110,-4.6875,-16.6875,-23.8125,0
44130,-7.8125,-15.1875,-21.4375,0
44150,-6.5625,-9.625,-18.375,0
44160,-9.5,-7.25,-13.3125,1001
44190,-3.1875,-6.625,-8.6875,0
44210,2.9375,-6.625,-3.25,0
44230,9.4375,-3.6875,4.4375,0
44250,4.1875,-0.9375,5.875,0
44270,-3.3125,0.0625,5.25,0
44290,-9.875,-2.5,6.25,0
44310,-13.4375,-3.9375,8.8125,0
44320,-8.375,1.5,15,0
44340,2.875,7.625,20.75,0
44360,5.75,14.875,25.4375,0
44380,0.625,21.4375,35.25,0
44400,-2.875,27.3125,46.9375,0
44420,1.0625,30.9375,63.5,0
44440,3.6875,31.4375,81.375,0
44460,4.3125,33.6875,93.5625,0
44480,3.0625,40.8125,99.125,0
44500,12.0625,47.8125,108.875,0
44520,15.9375,43.6875,122,0
44540,-4.375,36.8125,122.125,0
44560,-0.25,44.25,124.375,0
44580,25.375,48.0625,131.5,0
44600,45.9375,41.625,123.625,0
44620,55,34.6875,113.625,0
44640,63.375,28.625,110.125,0
44660,71.0625,13.125,94.9375,0
44680,67.375,-0.25,78,0
44700,56.0625,-5.0625,72.5,0
44720,40.375,-12.25,63.9375,0
44740,20.3125,-19.375,44.5625,0
44760,17.125,-25.125,27.125,0
44780,32.6875,-30.125,12.75,0
44820,47.625,-32.125,-3.375,0
44840,45.25,-27.9375,-8.125,0
44860,28.5625,-25.5625,-7.4375,0
44880,8.625,-29.75,-2.6875,0
44900,-2.8125,-31.125,0.4375,0
44920,-2.1875,-28.3125,2.3125,0
44940,-2.3125,-30.25,-0.375,0
44960,4.125,-31.5,-1.4375,0
44980,17.6875,-21.875,-4.5625,0
45000,32.25,-13.875,-13.1875,0
45020,30.875,-15.4375,-24,0
45040,22.25,-16.3125,-28.5,0
45060,13.4375,-16,-32.6875,0
45080,11.125,-22.25,-37.25,0
45100,16.625,-29.1875,-37.125,0
45120,9.75,-33.0625,-31,0
45140,0.3125,-33,-22.5625,0
45160,3.0625,-31.5,-14.8125,0
45180,6.25,-29.1875,-10.6875,0
45200,5.625,-30.0625,-3.0625,0
45220,-4,-28.4375,0.25,0
45240,-5.9375,-20.6875,1.5625,0
45260,10,-21.125,-9.125,0
45280,10.6875,-28.9375,-20.5625,0
45300,-0.125,-34.5625,-29,0
45320,-10.75,-44.5625,-34.625,0
45340,-13.9375,-57.25,-33.875,0
45360,-15.125,-60.875,-30.625,0
45380,-18.1875,-55,-33.125,0
45400,-16.5,-51.1875,-37.9375,0
45420,-9.25,-47.1875,-35.5625,0
45440,4,-36.8125,-32.3125,0
45460,1.0625,-19.25,-37.5625,0
45480,0.125,-0.6875,-44.375,0
45500,-9.5,7.875,-53.125,0
45520,-23.25,14.8125,-48.875,0
45540,-25.3125,27.625,-50.5625,0
45560,-19.8125,45.4375,-58.6875,0
45580,-20,55.0625,-60.125,0
45600,-24.375,65,-52.0625,0
45620,-30.0625,76.125,-60.125,0
45640,-38.125,84.9375,-65.8125,0
45660,-29.6875,90.5,-61.8125,0
45680,-26.25,96.125,-70.5625,0
45700,-22.625,106.125,-78.8125,0
45720,-14.75,112.25,-75.9375,0
45740,-17.25,106.375,-71.1875,0
45760,-28.5,105.438,-63.5625,0
45780,-33.25,111.938,-45.75,0
45800,-26.125,117.125,-27.5,0
45820,-18.8125,112.75,-11.25,0
45840,-8.375,104.75,7.1875,0
45860,-0.4375,104.25,23.625,0
45880,8.6875,103.375,36.4375,0
45900,4,91.5,41.8125,0
45920,-17.4375,69.25,49.625,0
45940,-32.75,36.0625,64.5,0
45960,-34.375,1.4375,83,0
45980,-18.75,-29.375,92.625,0
46000,9.4375,-54.1875,85.0625,0
46020,15.5625,-76.625,82.5625,0
46040,7.4375,-90.5,76.6875,0
46060,-1.875,-95.625,66.25,0
46080,2.25,-102.938,63.5,0
46100,4.125,-104.438,64.4375,0
46120,8.5625,-95.6875,54.5625,0
46140,13.0625,-83.125,46.75,0
46160,15.3125,-67.9375,41.5,0
46180,7.0625,-55.3125,33.0625,0
46200,0.3125,-49.75,25.9375,0
46220,-2.25,-40.5,28.75,0
46240,3.5,-31.25,31.25,0
46260,7.1875,-21.6875,30.9375,0
46280,8.375,-12.125,30.5625,0
46300,-0.375,-6.75,24.9375,0
46320,-7,-9,18.6875,0
46340,-5.125,-10.875,20.375,0
46360,0.875,-14.8125,22.5625,0
46380,-1.5,-13.0625,19.3125,0
46400,-2.125,-10,14.875,0
46420,-10.9375,-12.125,10.3125,0
46440,-15.3125,-17.1875,10.5625,0
46460,-12.375,-14.3125,12.4375,0
46480,-7.4375,-8.25,12.5,0
46500,-7.9375,-5.25,9.4375,0
46520,-5.8125,-7.625,8.5625,0
46540,-0.125,-7.25,11.125,0
46560,10.875,-0.375,9.625,0
46580,10.875,2.375,4.625,0
46600,-4.0625,3.25,5.3125,0
46620,-8.125,1.9375,7.5,0
46640,-3.4375,-6.125,6.875,0
46660,-4.875,-7.0625,9.8125,0
46680,5.4375,-9.75,16.6875,0
46700,19.0625,-18,8,0
46720,14.625,-25.8125,0.625,0
46740,9.875,-21.75,-0.875,0
46760,14.0625,-31.5,-18.125,0
46780,24.625,-50.1875,-35.0625,0
46800,22.3125,-64,-32.6875,0
46820,9.6875,-68.125,-26.625,0
46840,5.5625,-71.375,-34.0625,0
46860,-0.1875,-71.75,-39.6875,0
46890,22.1875,-46.5,-39.125,0
46910,12.125,-35.25,-40.3125,0
46930,8.4375,-31.125,-35.375,0
46950,4.4375,-19,-32.1875,0
46970,-6.625,4.6875,-37.5625,0
46990,-16.6875,21,-37.1875,0
47010,-17,27.625,-32.0625,0
47030,-7.9375,38.75,-42.0625,0
47050,-14.125,58.5,-59.875,0
47070,-21,73,-67.3125,0
47090,-33.6875,72.625,-62.8125,0
47110,-33.5,75,-60.5,0
47130,-35.5,84.1875,-68.3125,0
47150,-45.4375,89.125,-69,0
47170,-51.5,87.75,-62.4375,0
47190,-42.9375,83,-62.8125,0
47210,-44.125,74.5,-60,0
47230,-49,70.0625,-49.5,0
47250,-39.9375,71.1875,-47.125,0
47270,-39.75,67.9375,-50.0625,0
47290,-44.9375,56.0625,-37.6875,0
47300,-28.4375,37.5625,-16.5,0
47320,11.625,-20.625,28.1875,0
47350,6.75,-47.4375,57.3125,0
47370,6.375,-56.25,64.4375,0
47390,14.25,-59,72.8125,0
47410,28.25,-59.6875,82.75,0
47430,35.25,-61.3125,88.125,0
47450,38.125,-55.5,90.75,0
47460,40.0625,-44.4375,101.625,0
47480,34.5,-36.625,104.25,0
47500,25.5625,-31.125,91.0625,0
47520,23.625,-20.1875,80.125,0
47540,6.75,-12.5,72.0625,0
47560,-13.5625,-4.5,58.875,0
47580,-16,3.4375,53.4375,0
47600,4.0625,7.625,51.6875,0
47620,18.9375,7.6875,39,0
47640,5.75,11.4375,28.4375,0
47660,-0.4375,16.9375,29.8125,0
47680,14,10.8125,26.5,0
47700,28.5625,-2.375,14.875,0
47720,35.0625,-2.9375,7.9375,0
47740,18.3125,0.1875,9.875,0
47760,2.3125,1.625,9.8125,0
47780,-1.25,-2.5,7.3125,0
47800,-5.5625,-7.1875,11.5625,0
47820,-11.875,-2.75,11,0
47840,-15.8125,5.125,1.75,1000
47860,-5.625,5.5625,1.75,0
47880,13.625,1.3125,3.1875,0
47900,21.0625,2.75,-7,0
47920,17,2,-8.375,0
47940,8,1.3125,-2.4375,0
47960,4.5,0.3125,-1.75,0
47980,6.25,-1.25,-6.9375,0
48000,2.4375,-2.375,-4,0
48020,7.5,-1.3125,1,0
48040,16.0625,-5.75,-3.8125,0
48060,8.5,-7.25,-6.25,0
48080,-2.5,-5.5625,-2.5,0
48100,-5.0625,-12.75,0.625,0
48120,-4.375,-13.25,-4.8125,0
48140,-21.125,-6.3125,-8.125,0
48160,-15.6875,-6.125,-4,0
48180,-4.125,-4.625,-4.5625,0
48200,4.5,-4.75,-0.4375,0
48220,9.25,-1.125,-2.4375,0
48240,9.6875,-1.0625,-11.75,0
48260,15.5625,-6.6875,-18.4375,0
48280,22.0625,-16.125,-20.75,0
48300,20.75,-25.8125,-22.5625,0
48320,11.875,-30.125,-27.875,0
48340,12.5625,-33.625,-32.4375,0
48360,17.125,-38.1875,-34.0625,0
48380,2.5625,-42.8125,-27.25,0
48400,-10.0625,-44.125,-11.9375,0
48420,-20.1875,-40.625,-0.3125,0
48440,-29.375,-30.3125,2.1875,0
48460,-46,-18,9.125,0
48480,-56.3125,-11,25.0625,0
48500,-46.4375,-5.75,33.5625,0
48520,-24.375,5.25,24.1875,0
48540,-14.875,10.6875,12.8125,0
48560,-7.9375,11.0625,9.75,0
48580,-5.625,12.9375,1.4375,0
48600,-5.75,20.125,-12.75,0
48620,-12.75,27.6875,-23.8125,0
48640,-20.75,29.375,-30.25,0
48660,-31.375,31.8125,-32.1875,0
48680,-33.375,40.125,-33.25,0
48700,-27.3125,44.6875,-39.6875,0
48720,-26.75,44.5,-38.875,0
48740,-27.0625,50.3125,-35.3125,0
48760,-22.0625,62.125,-43.0625,0
48780,-27.125,65.5625,-47.375,0
48800,-34.25,69,-45.5,0
48820,-32.4375,73.8125,-53.125,0
48840,-29.1875,78.6875,-60.6875,0
48860,-30.8125,78.625,-56.3125,0
48880,-29.125,78.9375,-53.75,0
48900,-23,82.1875,-55.625,0
48920,-23.5,86.125,-53.8125,0
48940,-21.9375,84.9375,-46.8125,0
48960,-26.6875,84.8125,-38.8125,0
48980,-25.9375,86.8125,-28.125,0
49000,-11.0625,81.1875,-16.4375,0
49020,6.3125,70.375,-10.625,0
49040,11.5625,62.375,-7.0625,0
49060,2.1875,59.25,3.125,0
49080,5,55.1875,15.25,0
49100,12,45.875,15.125,0
49120,13.3125,40.75,19.375,0
49140,19.9375,39.8125,32.875,0
49160,8.25,43.25,35.1875,0
49180,-16.3125,43.6875,31.8125,0
49200,-20.125,37.5625,35.9375,0
49220,-13.3125,25.5625,50.5625,0
49240,-12.25,20.5625,58.0625,0
49260,-13.125,26,62.1875,0
49280,1,33.125,70.4375,0
49300,-9.4375,29.9375,65.25,0
49320,-32.375,25.0625,53.625,0
49340,-29.375,16.375,49.9375,0
49360,-12.875,-2.0625,42.25,0
49380,-18.9375,-14.5625,32.4375,0
49380,1.625,-16.6875,28.25,0
49400,16.5625,-33.875,23.75,0
49420,-3.6875,-51.375,20.875,0
49440,-13.375,-60.25,25.5625,0
49460,-7.9375,-72.125,28.5625,0
49480,-13.375,-82.6875,26.4375,0
49500,-31,-92.875,25.625,0
49520,-43,-100,26.3125,0
49540,-40.9375,-111.125,21.75,0
49560,-41.8125,-127.875,15,0
49580,-49.0625,-140.312,12.1875,0
49600,-46.6875,-147.188,9.25,0
49620,-48.5625,-151.062,-2.8125,0
49640,-50.3125,-150.812,-19.3125,0
49660,-29.625,-146.25,-36.9375,0
49690,-3.5625,-122.125,-62.1875,0
49710,11.6875,-111.75,-74.0625,0
49730,24.8125,-108.938,-83.625,0
49750,44.625,-99.6875,-89.75,0
49790,29.375,-58.3125,-91.25,0
49810,33.25,-50.125,-89.6875,0
49830,26.125,-46.9375,-93.5,0
49850,17.125,-36.75,-100.375,0
49870,10.125,-23.5,-95.75,0
49890,9.9375,-18.8125,-86.1875,0
49910,-4.1875,-18,-76,0
49930,-16.875,-7.625,-70.125,0
49950,-27.5,9,-66.5,0
49970,-33.75,20.625,-54.1875,0
49990,-36,30.25,-45.625,0
50010,-37.6875,45.375,-44.4375,0
50030,-53.375,56.5,-40.5,0
50050,-42.625,70.25,-32.75,0
50070,-42.875,84.4375,-31.1875,0
50090,-59.5625,95.5,-31.25,0
50110,-58.875,100,-16.8125,0
50130,-36.75,103.688,-3.9375,0
50150,-37.0625,108.812,-6.4375,0
50170,-48.5625,113.125,-5.375,0
50190,-32.3125,111.688,8.8125,0
50210,-28.75,106,12.6875,0
50230,-38.25,106,6.625,0
50250,-33.25,105,15.9375,0
50270,-16,98.625,24.6875,0
50290,-17.375,89.5,17.6875,0
50310,-23.25,88.5,20.6875,0
50330,-18.5625,93.3125,30.75,0
50350,-17.1875,89.4375,36.625,0
50370,-25.5,74.625,43.9375,0
50390,-28.8125,62.9375,69.6875,0
50410,-7.8125,54.3125,97.75,0
50430,22.1875,45.25,101.188,0
50440,18.4375,41.875,95.75,0
50460,-2.25,46,85.3125,0
50480,-18.875,40.375,67.125,0
50500,-38.4375,23.125,51.9375,0
50520,-38.9375,6.3125,46.6875,0
50540,-10.625,-4.625,45.3125,0
50560,11.3125,-15.5625,40.125,0
50580,2.1875,-28.1875,39.3125,0
50600,-8.1875,-34.75,39.25,0
50620,-10.3125,-42.8125,34.375,0
50640,-14.3125,-53.8125,29.25,0
50660,-10.625,-59.6875,24.625,0
50680,-0.8125,-64.5,20.5625,0
50700,12.5,-76.1875,20.25,0
50730,-2.625,-99.0625,17.6875,0
50750,-26.75,-109.438,18.9375,0
50770,-54.875,-121.375,20.0625,0
50790,-62.1875,-130.688,13.0625,0
50810,-69.375,-135.062,3.8125,0
50830,-73.4375,-132.625,-8.4375,0
50850,-56.5625,-131.75,-24.1875,0
50870,-29,-127.812,-40.375,0
50890,-13.5,-120.062,-56.5625,0
50910,1.5,-109.688,-71.5625,0
50930,23.75,-96.9375,-83.1875,0
50950,39.8125,-84.3125,-95,0
50970,46.5,-71.125,-109.062,0
50990,38.6875,-60.25,-117.25,0
51010,22.3125,-49.25,-121.25,0
51030,0.1875,-34.5,-122.062,0
51050,-18.25,-22.4375,-119.875,0
51070,-30,-16.0625,-117.062,0
51090,-26.9375,-8.875,-109.062,0
51110,-17.1875,4.5,-97.75,0
51130,-20.6875,19.8125,-85.625,0
51150,-17.9375,34.125,-75.875,0
51170,-13.75,39.875,-67.875,0
51190,-24.25,52.625,-58.4375,0
51210,-37.875,65.0625,-47.8125,0
51230,-37.5625,76.5625,-37.6875,0
51250,-35.1875,86.5625,-30.6875,0
51270,-47,96.0625,-24.5625,0
51290,-39.4375,100.375,-13.6875,0
51310,-27.125,102.438,-5.125,0
51330,-33.375,100.938,-3.3125,0
51350,-50.6875,97.125,5.75,0
51370,-34.25,94.1875,18.875,0
51390,-11.25,93.1875,22.4375,0
51410,-11.4375,90.125,24.9375,0
51430,-8.0625,92.5,34.9375,0
51450,-6.625,93.4375,40.125,0
51470,-32.3125,90.375,49.5,0
51490,-62.5625,86.5,64.6875,0
51510,-60.125,66.5625,82.375,0
51530,-49.5625,55.4375,97.6875,0
51550,-35.5,52.625,106.375,0
51570,-35.1875,49.1875,97.5625,0
51590,-42,38.0625,88.875,0
51610,-58.8125,27.4375,85.125,0
51630,-63.8125,21.375,81.9375,0
51650,-48,15.75,75.375,0
51670,-44.375,10.5625,67.75,0
51690,-75.4375,0,66.8125,0
51710,-84.25,-21.875,68.5,0
51730,-64.625,-31.375,67.9375,0
51750,-32.625,-41,57.625,0
51760,-34.375,-49.8125,34.5,0
51780,-32.4375,-55.625,17.625,0
51800,-17,-65.375,5.3125,0
51820,5.4375,-77.6875,-7.5,0
51840,26.0625,-88.8125,-15.1875,0
51860,38.25,-95.5625,-15.125,0
51880,41.0625,-99.1875,-18.4375,0
51900,33.875,-105.188,-24.25,0
51920,8.25,-111.5,-30.875,0
51940,-0.75,-113.25,-37.375,0
51960,7.0625,-116.438,-47.875,0
51980,5,-114.312,-51.6875,0
52000,-8.1875,-105.75,-47.875,0
52020,-8.1875,-100.125,-52.0625,0
52040,7.9375,-100.062,-59.9375,0
52060,19.6875,-96.5,-61.5625,0
52080,18.3125,-85.875,-60.0625,0
52100,18.9375,-68.6875,-62.5,0
52120,11.5,-56.5,-65.1875,0
52140,12.9375,-49.8125,-63.625,0
52160,17,-46.6875,-63.3125,0
52180,17.75,-42.9375,-72.25,0
52200,19.3125,-33.625,-76.5625,0
52220,18.5,-22.1875,-69.4375,0
52240,8.4375,-11.25,-57.9375,0
52260,-6.125,-5.125,-52.25,0
52280,-12.3125,-4.875,-53.3125,0
52300,-19.375,2.125,-43.6875,0
52320,-22.25,15,-30.9375,0
52340,-14.625,21.9375,-26.875,0
52360,-9.4375,19.125,-23.5,0
52380,-5.5,17.125,-12.1875,1001
52400,4.75,16.625,-3.5,0
52420,7,11.625,-4.1875,0
52440,9.3125,10.0625,-6.25,0
52460,9.625,5.5,-7.3125,0
52480,-5.625,3.125,-7,0
52500,-7.5625,6.3125,0,0
52520,-3.75,7.6875,2.25,0
52540,-12.75,4.875,1.75,0
52560,-22.375,1.5625,3.9375,0
52580,-24.0625,-0.25,8.4375,0
52600,-32.1875,3.75,6.9375,0
52620,-33.6875,16.8125,12.4375,0
52640,-21.25,16.625,24.6875,0
52660,-11.875,9.375,46.25,0
52680,19.375,10.625,70.4375,0
52700,31.25,18.625,83.0625,0
52720,19,26.25,86.4375,0
52740,8.875,30.8125,92.5625,0
52760,8.1875,33.1875,102.812,0
52780,0.125,32.375,112.438,0
52800,1.875,33.5,118.438,0
52820,22.6875,36.125,126.062,0
52840,39,34.9375,129.812,0
52860,38.5,30.0625,124.375,0
52880,39.75,25.3125,128.25,0
52900,62,27.8125,133.688,0
52920,74.625,20.125,124.938,0
52940,53.5625,12.75,108.312,0
52960,47.375,19.5625,97.1875,0
52980,55.8125,19.375,80,0
53000,40.9375,7.0625,60.8125,0
53020,37.75,5.25,54.375,0
53040,50.4375,10.25,50.4375,0
53060,44.8125,2.625,38.9375,0
53080,32.0625,-5.4375,29.0625,0
53100,27,-4.375,29.5625,0
53120,23.3125,-3.0625,29.5,0
53140,12.125,-9.25,20.4375,0
53160,2.125,-9.8125,11.75,0
53180,0.1875,-3.125,11,0
53200,-6.375,-2.25,12.4375,0
53220,-2.1875,-5,9.625,0
53240,8.5,-0.3125,5.5,0
53260,15.75,3.75,3.9375,0
53280,10.9375,3.8125,1.6875,0
53300,8.375,6.125,-1.875,0
53320,8.8125,8.0625,-3.6875,0
53340,6.5625,8,-8.375,0
53360,6.5625,7.8125,-13.9375,0
53380,2.5,8.25,-14.5625,1000
53400,-2.375,7.75,-11,0
53420,3.9375,3.6875,-11.375,0
53440,9.25,-0.5,-12.5625,0
53460,9.75,-3.5625,-9.0625,0
53480,10.0625,-2.4375,-8.9375,0
53500,9.75,-2.75,-11.6875,0
53520,6.25,-8.25,-11,0
53570,4.8125,-24.8125,-9.8125,0
53600,24.9375,-33.4375,-8.8125,0
53620,8.9375,-44.25,-25.6875,0
53630,-14.9375,-49.8125,-27.8125,0
53650,-5.5625,-58.3125,-24.75,0
53670,10.0625,-62.5625,-31.625,0
53690,7.5,-61.25,-34.1875,0
53710,-3.625,-54.8125,-33.5,0
53730,-7.625,-51.3125,-36.5,0
53750,-2.375,-49.375,-37.5625,0
53770,4.0625,-44.875,-35.4375,0
53790,1.9375,-33,-37.5625,0
53810,2.25,-20.9375,-40.0625,0
53830,3.375,-15.1875,-36.0625,0
53850,4,-9.75,-35.5,0
53870,7.25,2.875,-43.75,0
53890,5.5,12.875,-50.5,0
53910,-9.5,17.25,-47.5625,0
53930,-21.1875,26.125,-37.375,0
53950,-20.3125,42.5,-39,0
53970,-11.625,55.4375,-48.5625,0
53990,-22.5,59.3125,-41.75,0
54010,-32.75,66.0625,-33,0
54030,-28.375,76.8125,-40.25,0
54050,-29.8125,85.25,-40.4375,0
54070,-33.875,87.1875,-30.875,0
54090,-31.75,94.125,-37.875,0
54110,-34.1875,98.9375,-46.625,0
54130,-42,98.75,-42.625,0
54150,-45.6875,95.0625,-34.8125,0
54170,-36.6875,94.125,-34.1875,0
54190,-26.375,93.375,-34.4375,0
54210,-22.4375,88.5,-27.75,0
54230,-17.125,78.1875,-16,0
54250,-20.125,67.4375,-13.1875,0
54270,-15.75,63.5625,-16.625,0
54290,-14.8125,61.1875,-12.9375,0
54310,-21.875,56.125,-7.5,0
54330,-30.875,53.875,-4.3125,0
54350,-35.5625,54.3125,5.375,0
54370,-20.125,50.6875,12.625,0
54380,-5.0625,45.0625,14.0625,0
54400,6.75,41.3125,16.5625,0
54420,17.8125,45.75,27.1875,0
54430,34.1875,44.125,33,0
54450,11.375,52.125,24.75,0
54470,0.125,45.8125,32.5625,0
54490,3,33.1875,37.4375,0
54510,25.6875,24.75,36.75,0
54530,43.0625,26.4375,36.875,0
54550,28.5,26.1875,39.0625,0
54570,4.125,19.5625,39.3125,0
54600,13.4375,1.4375,50.25,0
54620,11.875,-3.6875,46.4375,0
54640,4.8125,0,48.625,0
54660,6.9375,-6.625,52.0625,0
54680,-6.6875,-22.25,51.5,0
54700,-11.8125,-27.5,49.125,0
54720,-5.3125,-29.4375,48.5,0
54740,-16.9375,-43.6875,43.0625,0
54760,-27.75,-60.8125,40.875,0
54780,-22.5625,-73.9375,41.125,0
54800,-20.5625,-84.25,36.8125,0
54820,-31.625,-94.8125,30.75,0
54840,-38,-105.125,24.9375,0
54860,-35.6875,-114.25,15.5625,0
54880,-33.3125,-124.938,4.625,0
54900,-22.5625,-134.875,-5.5,0
54920,-8.1875,-137.562,-14.625,0
54940,1.0625,-137.062,-25.625,0
54960,3.1875,-137.312,-37,0
54980,2.9375,-134.312,-46.75,0
55010,6.6875,-114.625,-67.4375,0
55050,43.6875,-101.438,-86.0625,0
55070,40.75,-108.062,-91.375,0
55090,33.8125,-99.5,-93.75,0
55110,31.375,-79.5625,-89.3125,0
55130,36.75,-63.1875,-88.5,0
55150,24.125,-59.6875,-91.75,0
55170,-3.3125,-53.375,-82,0
55190,-23.375,-34.875,-70.6875,0
55210,-31.125,-14.875,-62.6875,0
55230,-29.75,-6.125,-50.0625,0
55250,-16,-2.75,-37.375,0
55270,-13.75,10.0625,-37.0625,0
55290,-28.5,26,-37.0625,0
55310,-41.5625,33.5,-28.0625,0
55330,-54.0625,42,-30.375,0
55350,-69.1875,62.8125,-39.3125,0
55370,-78.375,77.0625,-31.125,0
55390,-64.3125,84.9375,-20.3125,0
55410,-45.9375,96.4375,-23.0625,0
55430,-43.75,105.938,-27.75,0
55450,-49.4375,103.375,-18.125,0
55470,-45.875,101.625,-10.1875,0
55490,-42.5,104.625,-15.6875,0
55510,-48.3125,105.062,-17.5,0
55530,-52.8125,97.5625,-8.4375,0
55550,-42.5,91.875,-1.8125,0
55570,-37.0625,91.9375,-3.125,0
55590,-37.4375,91.6875,2.875,0
55610,-24.5625,90.25,15,0
55630,-8.875,88.125,17.1875,0
55650,-12.25,88.375,15.5625,0
55670,-15.3125,90.5,21.5625,0
55690,-1.375,90.25,27.375,0
55710,15.375,88.25,29.5625,0
55730,7.4375,86.125,29.4375,0
55750,-15.5,80.6875,35,0
55770,-17.8125,74.6875,48.25,0
55790,10.1875,57.875,51.0625,0
55810,28.875,49.5625,45.75,0
55830,13.5,51.8125,47.9375,0
55850,-3.8125,54.6875,58.4375,0
55870,-6.75,39.6875,58.0625,0
55890,-9.9375,28.625,54.0625,0
55910,-14.25,23.5625,59.375,0
55930,-18.75,11.25,63.625,0
55950,-10.875,-7.125,61,0
55970,-6.6875,-17.8125,62.4375,0
55990,-10.75,-23.5,61.625,0
56010,-37.8125,-36.5625,58.625,0
56030,-53.625,-50.5,52.0625,0
56050,-42.6875,-64.6875,46.0625,0
56070,-30.625,-82.625,37.75,0
56090,-21.4375,-90.9375,30.75,0
56110,-5.3125,-94.375,25.9375,0
56130,7.625,-105.312,13.0625,0
56150,18.75,-117.812,-5,0
56170,35.875,-121.125,-16.4375,0
56190,55,-123.438,-19.5,0
56210,40.625,-131.25,-19.3125,0
56230,10.3125,-134.875,-18.5,0
56250,-0.3125,-132.375,-16.75,0
56270,6.3125,-129.75,-15.125,0
56290,-1.125,-125.438,-15.4375,0
56310,-20.125,-120.75,-17.3125,0
56330,-27.875,-118.375,-21.6875,0
56350,-21.8125,-115.5,-30.4375,0
56370,-14.5,-111.125,-38.9375,0
56390,-8.9375,-103.25,-44.625,0
56410,-4.75,-91.1875,-49.4375,0
56430,-5.125,-79,-57.3125,0
56450,-10.25,-68.0625,-67.375,0
56470,-17.625,-55.375,-72.125,0
56490,-16.25,-41.75,-71.25,0
56510,-11.6875,-26.125,-70.75,0
56530,-3.5625,-11.8125,-68.625,0
56550,-5.4375,-3.3125,-62.9375,0
56570,-14.75,5.4375,-63.0625,0
56580,-23.1875,15.8125,-64.125,0
56600,-35.9375,24.9375,-57.1875,0
56620,-55.625,35.1875,-49.8125,0
56640,-71.25,47.4375,-42.8125,0
56660,-51.625,56.75,-35.375,0
56680,-41.0625,61.5625,-25.4375,0
56700,-48.625,64.3125,-16.375,0
56720,-40.5625,75.875,-16.125,0
56740,-38.25,88.375,-16.3125,0
56760,-36.125,92.0625,-14.5,0
56780,-37.8125,95.625,-13.625,0
56800,-35.8125,101.562,-14.625,0
56820,-41.5,103.438,-18.125,0
56840,-49.75,102.062,-15.75,0
56860,-38.6875,103.375,-8.875,0
56880,-26.625,102,-5.625,0
56900,-22.125,98,-1.4375,0
56920,-14.6875,92.5625,9.9375,0
56940,-12.75,88.25,18,0
56960,-8.125,84.3125,25.125,0
56980,-5.875,82.5625,34.25,0
57000,-18.75,83.125,44.1875,0
57020,-35,79.875,55.25,0
57040,-39,74.875,63.1875,0
57060,-40.4375,65.875,73.375,0
57080,-45.9375,57.0625,83.375,0
57100,-46.6875,43.25,83.8125,0
57120,-48.25,41.3125,88.375,0
57140,-59.4375,41.5625,98.1875,0
57160,-65,33.9375,91.6875,0
57180,-65.5625,11.1875,77.25,0
57200,-82.6875,-2.4375,73.8125,0
57220,-70,-9.3125,63.1875,0
57240,-59.125,-27.5,40.875,0
57260,-60.125,-44.0625,25.625,0
57280,-41.4375,-51.5,15.25,0
57300,-0.625,-61.25,12.1875,0
57320,22.8125,-73.875,15.1875,0
57340,14.0625,-78.6875,18.875,0
57360,1.75,-77.6875,20.9375,0
57380,-5.75,-81,19.6875,0
57400,-16.1875,-88.8125,15.5,0
57420,-18.6875,-96.125,9.9375,0
57440,-9.9375,-105.562,1.625,0
57460,6.4375,-114.5,-5.875,0
57480,22.3125,-120.312,-18.5,0
57500,18.5625,-124.5,-31.875,0
57520,11.5,-123.438,-42.9375,0
57540,6.9375,-119.625,-53.9375,0
57560,6.875,-118.312,-61.4375,0
57580,19.375,-116.875,-70.8125,0
57600,32.125,-102.312,-75.8125,0
57620,35.6875,-90.25,-73,0
57640,27,-86.4375,-71,0
57660,21.375,-79.6875,-75.0625,0
57680,29,-63.75,-80.1875,0
57700,17.9375,-47.875,-73,0
57720,11.1875,-36.25,-65.5625,0
57740,14.25,-30.8125,-67.625,0
57760,16.5625,-22.125,-79,0
57780,12.6875,-8.375,-71.0625,0
57800,6.9375,-0.125,-56.125,0
57820,1.5,4.5625,-50.5,0
57840,-7.4375,6.9375,-54.4375,0
57860,-15.4375,9.75,-51.5625,0
57880,-15.75,16.5625,-38.125,0
57900,-19.9375,22.125,-23.3125,1001
57920,-25.6875,15.75,-17.375,0
57940,-24.625,15,-16.1875,0
57960,-11.625,15.75,-2.1875,0
57980,1.6875,9.8125,9.9375,0
58000,-1.375,7.9375,19.1875,0
58020,-8.8125,8.75,19.375,0
58040,-32.1875,6.375,12.25,0
58060,-42,4.75,7.75,0
58080,-43.6875,4.1875,10.3125,0
58100,-35.3125,4.375,14.125,0
58120,-20.125,6.0625,18,0
58140,-2.75,5.4375,29.6875,0
58160,6,1.3125,42.625,0
58180,4.4375,4.625,55.0625,0
58200,4.0625,12.25,67.0625,0
58220,17,14.125,78.4375,0
58240,8.0625,5.4375,88.3125,0
58260,6.3125,2.6875,96.9375,0
58280,18.8125,4.75,108.75,0
58300,30.875,-2.3125,118.938,0
58320,33.6875,-9.9375,120.312,0
58340,55.8125,-0.5,126.5,0
58360,58.3125,4.8125,134.25,0
58380,38.8125,2.3125,127.438,0
58390,39.125,7.5625,116.875,0
58410,53.375,13.375,112.688,0
58430,41.625,6.625,97.4375,0
58450,38.75,7.125,76.9375,0
58470,54.375,15.125,65.75,0
58490,57.4375,14.375,53.5,0
58520,27.0625,18.6875,30.5625,0
58530,23.75,19.375,25.375,0
58550,22.375,9.5,17.625,0
58570,21.125,5.1875,16.375,0
58590,21.4375,9.3125,19.5,0
58610,17.1875,12.4375,15.25,0
58640,13.8125,3.1875,6.125,0
58660,21.125,5.6875,7.6875,1000
58680,26.8125,10.8125,0.25,0
58700,16.4375,14.4375,-5.5625,0
58720,3.0625,14.375,-3.8125,0
58740,-1.6875,10.25,-6.6875,0
58760,1.4375,5.4375,-8.4375,0
58780,14.375,2.75,-7.875,0
58820,-5.0625,-59.6875,-26.8125,0
58840,-0.25,-73.375,-37.625,0
58860,-3.9375,-71.75,-38.625,0
58880,-0.875,-66.5,-41.5625,0
58900,1.625,-63.1875,-46.25,0
58920,6.1875,-54.75,-42.5,0
58940,13.3125,-41.3125,-42.25,0
58960,12.9375,-22.0625,-51.3125,0
58980,6.9375,-8.125,-50.0625,0
59000,-5.5625,-1.625,-43.625,0
59020,-9.875,11.5,-43.625,0
59040,-12.1875,29.25,-49,0
59060,-15.8125,43.6875,-48.6875,0
59080,-27.125,51.875,-41.3125,0
59100,-30.875,59.3125,-37.25,0
59120,-32.4375,74.4375,-46.8125,0
59140,-36.6875,82.5,-49.6875,0
59160,-46.9375,84.3125,-38.375,0
59180,-51.1875,85.0625,-37.8125,0
59200,-54.6875,94.1875,-47.375,0
59220,-58.625,99.625,-37.75,0
59240,-47.25,94.9375,-24.1875,0
59260,-40.6875,90.3125,-22.6875,0
59280,-39.3125,91.5,-22.375,0
59300,-37,97.875,-10.375,0
59320,-32.5625,98.1875,0.625,0
59340,-36.75,93.8125,6.875,0
59360,-39.75,92.4375,13.0625,0
59380,-21.125,92.4375,20,0
59400,-1.375,87.125,19.5,0
59420,-0.1875,81.6875,15.9375,0
59440,0.25,83.875,22.25,0
59460,3.5625,84.5625,30.25,0
59480,4.875,79.375,26.875,0
59500,9.25,74.5625,26.8125,0
59520,12.75,70.9375,30.1875,0
59540,1.6875,68,28.4375,0
59560,-11.0625,58.75,33,0
59580,-0.875,45,40.5625,0
59600,22.5625,33.125,38.625,0
59620,34.375,21.625,37.6875,0
59630,28.4375,15,43.5625,0
59650,35.25,22,47.25,0
59670,46.4375,18.75,45.5625,0
59690,39.9375,8,37.8125,0
59710,15.1875,2.75,42.5625,0
59730,-3.8125,-10.1875,52.1875,0
59750,-11.3125,-30.3125,50.5625,0
59770,-9.25,-48.5,44.1875,0
59790,-6.5625,-64.3125,39,0
59810,-11.125,-82.0625,35.25,0
59830,-17.4375,-95.3125,28.375,0
59850,-18.125,-104.562,24.1875,0
59870,-24.25,-110.875,23.3125,0
59890,-24.125,-115.375,19,0
59910,-14.25,-123.625,11.6875,0
59930,-8.25,-133,3.25,0
59950,-9.625,-139.562,-5.5,0
59970,-16,-141.938,-13.875,0
59990,-18.3125,-138.938,-26,0
60010,-11.5,-140.125,-41.25,0
60030,-10.625,-144.812,-54.1875,0
60050,-5.5,-145.188,-60.375,0
60070,14.5,-134,-69,0
60090,32.5625,-119.875,-77.375,0
60110,38.0625,-114.75,-77.9375,0
60130,26.5,-107.875,-77.9375,0
60150,20.125,-95.0625,-83.6875,0
60170,4.25,-82.0625,-82.8125,0
60190,-10.9375,-72.75,-77.5625,0
60210,-15.6875,-59.125,-79.0625,0
60230,-16.5625,-44.5625,-81.875,0
60250,-18.875,-28.4375,-77.0625,0
60270,-15.9375,-14.9375,-70.4375,0
60290,-15.5625,3.1875,-67.3125,0
60310,-22.9375,24.9375,-67.875,0
60330,-39.375,41.9375,-63.75,0
60350,-40.5,52.8125,-52.6875,0
60370,-41.0625,69.1875,-46.8125,0
60390,-54.0625,88.625,-44.8125,0
60400,-60.625,102.75,-34.75,0
60420,-43.3125,109.812,-22.5625,0
60440,-35.6875,122.25,-19.0625,0
60460,-51.125,131.875,-18.0625,0
60480,-49.625,139.188,-3.125,0
60500,-24.8125,148.625,21.5,0
60520,-0.875,157,29.3125,0
60540,-15.9375,162.375,24,0
60560,-25.5,161.125,19.9375,0
60580,-10.8125,138.25,31.0625,0
60600,-19.6875,112.562,33.3125,0
60620,-27.1875,105.375,43.125,0
60630,-22,104.125,58.375,0
60650,7.5625,68.75,60.6875,0
60670,8.6875,65.4375,67.5625,0
60690,-13.9375,60.375,67.5,0
60710,-19.875,50.0625,75.5625,0
60730,3.4375,33.1875,80.25,0
60750,-6.625,25.625,79.625,0
60770,-26.125,26.375,79.5625,0
60790,-38.4375,14.1875,79.6875,0
60810,-35.3125,-5.375,78.5625,0
60830,-39.25,-19.75,65.8125,0
60850,-52.4375,-31.3125,57.4375,0
60870,-54.625,-52.9375,48.25,0
60890,-48.75,-78.75,34,0
60910,-28.375,-97.1875,19.625,0
60930,-3.1875,-112,12.0625,0
60950,-3.5625,-128.375,6.6875,0
60970,-19.5625,-142.938,-3.3125,0
60990,-40.125,-156.062,-13.8125,0
61010,-44.75,-163.312,-23.5625,0
61030,-43.5,-166.438,-35.125,0
61050,-50.3125,-166.5,-44.4375,0
61070,-39.8125,-160.875,-52.8125,0
61090,-22.5,-145.375,-65.5625,0
61110,-7.5,-129.5,-71.625,0
61130,10.125,-123.5,-74.6875,0
61150,15.75,-104.875,-90.25,0
61170,-7.0625,-86.3125,-94.6875,0
61190,-17.4375,-79.3125,-95.6875,0
61210,-18.5,-66,-100.438,0
61230,-29,-39.0625,-95.125,0
61250,-26.875,-13.5,-83,0
61290,-9.9375,1.625,-90.9375,0
61310,-12.125,19,-91.75,0
61330,-32.1875,37.25,-77,0
61350,-36.125,47.8125,-65.4375,0
61370,-23.125,61.875,-61.375,0
61390,-24.75,81.25,-59.9375,0
61410,-52.0625,97.9375,-51.1875,0
61430,-44.75,113.25,-38.9375,0
61450,-22.0625,121.062,-34.1875,0
61470,-12.875,116,-38,0
61490,-11.9375,105.75,-26.1875,0
61510,15.125,107.562,-1.625,0
61530,23.125,115.625,8.6875,0
61550,7.6875,112.312,13.6875,0
61570,-0.75,98.5,29.3125,0
61590,13.5625,89.625,40.6875,0
61610,25.8125,86.9375,43.1875,0
61630,14.625,87.4375,54,0
61650,-11.75,90.625,59.8125,0
61670,-15.375,94.625,58.5,0
61690,-13.625,90.0625,67.125,0
61710,-7.125,95.375,76.9375,0
61730,-36.0625,109.062,83.1875,0
61750,-65.625,97.125,93.5625,0
61770,-36.8125,68.125,100.062,0
61790,-5.1875,42.75,85.625,0
61810,-26.75,39.375,71.0625,0
61830,-63.25,27.875,62.125,0
61850,-82.125,0.1875,54.6875,0
61870,-92.625,-21.75,47.375,0
61890,-84.6875,-30.0625,33.625,0
61910,-66.4375,-52.5,25.1875,0
61930,-56.25,-78.1875,25.25,0
61950,-50.75,-86,18.8125,0
61970,-54.25,-89,9.875,0
61990,-39.625,-103.25,2.5625,0
62010,-21.3125,-123.688,-10.0625,0
62030,-14.0625,-137.625,-22.6875,0
62050,5.0625,-139.312,-30.5625,0
62070,20.5,-135.25,-40.1875,0
62090,5.8125,-133,-47.5,0
62110,-19.875,-131.938,-54.6875,0
62130,-21.6875,-123.938,-61.75,0
62150,-9.9375,-109.875,-62.25,0
62170,-7.3125,-100,-57.75,0
62190,10,-100.688,-59.4375,0
62210,37.5625,-100.875,-68.75,0
62230,37.5625,-87,-69.3125,0
62250,19.25,-74.875,-59.3125,0
62270,10.5625,-74.1875,-60.3125,0
62290,11.5625,-72.6875,-69,0
62310,17,-54.625,-66,0
62330,2.875,-24.625,-52.5,0
62350,-6.6875,-9,-44.0625,0
62370,8.75,-9,-44.625,0
62390,30.4375,-6,-47.0625,0
62410,25.875,12.5625,-38.4375,0
62430,1.6875,36.625,-22.625,0
62450,-13.125,48.1875,-16.25,0
62470,-32.375,42.625,-18.9375,0
62490,-36.8125,31.625,-15.75,0
62510,-23.125,28.25,-4.3125,0
62530,-1.6875,28.625,1.75,1001
62550,8,24.875,3.875,0
62570,2.9375,19.75,6.8125,0
62590,-11.5625,16.9375,5.625,0
62610,-25.3125,11.4375,-0.0625,0
62620,-36.8125,5.625,-15.5,0
62650,-32.6875,1.0625,3.5625,0
62670,-9.5625,-5.1875,24.25,0
62690,3.375,-0.0625,36.8125,0
62710,2.5,9.3125,40.125,0
62730,5.75,9.9375,46.375,0
62750,6.6875,7.25,51.75,0
62770,10.0625,5.5,60.6875,0
62790,9.5625,3.625,68.8125,0
62810,9.125,5.125,75.1875,0
62830,20.375,12.75,89.9375,0
62850,33.25,16.6875,106.875,0
62870,13.125,15.8125,115.75,0
62890,0,17.8125,125.688,0
62910,12.6875,18.0625,139.312,0
62930,27.4375,13,135.812,0
62950,33.4375,12.0625,127,0
62960,41.3125,19.0625,125.75,0
62980,40.625,17,106.312,0
63000,36.25,11.9375,75.75,0
63020,34.8125,10.75,63.5,0
63040,27.0625,7.5625,51.5625,0
63060,30.5,7.125,33.6875,0
63080,41.8125,7.5625,22.9375,0
63100,47.125,1.75,18.25,0
63120,35.5625,-2.4375,12.625,0
63140,24.125,0.3125,12.0625,0
63160,16.5625,-1.25,18.1875,0
63180,5.5625,-10,25.625,0
63220,12.125,-15.5625,22.3125,0
63240,7.5,-16.9375,16.875,0
63260,-1.625,-13.1875,17.125,0
63280,-2.875,-6.75,11.5,0
63300,-6.3125,-5.9375,0.4375,0
63310,-4.625,-7.3125,-5.375,0
63330,1.125,-7.4375,-7.5625,0
63370,9.875,-20,-14.8125,0
63390,22.5,-28,-9.5625,1000
63410,33.8125,-28.875,-6.9375,0
63450,28.75,-49.6875,-31.3125,0
63470,-0.5625,-59.6875,-40.375,0
63480,-21.6875,-64.5,-44.875,0
63500,-23.4375,-62.125,-52.0625,0
63520,-3.125,-59.5,-55.6875,0
63540,6.4375,-51.875,-53.1875,0
63560,5.25,-37.1875,-53.875,0
63580,-0.375,-22,-51.4375,0
63600,-11.125,-14,-43.5,0
63620,-9.75,0.5625,-42.3125,0
63640,-5.375,23.4375,-47.5,0
63660,-7.125,44.75,-51,0
63680,-21.9375,54.3125,-42.375,0
63700,-32.4375,61.25,-37.125,0
63720,-30.5625,77.625,-40.75,0
63740,-28.5,96.25,-39.6875,0
63760,-39.6875,97.625,-25.75,0
63780,-45.75,96.4375,-19.5,0
63800,-44.4375,105.438,-17.6875,0
63820,-37.4375,116.688,-10.6875,0
63840,-33.1875,118.875,-6.625,0
63860,-39.875,113.25,-9.3125,0
63880,-35.9375,110.375,-5.0625,0
63900,-25.25,109.375,-0.4375,0
63920,-21.9375,102.438,-1.9375,0
63940,-22.8125,97.1875,1.1875,0
63970,-7.0625,93.875,7.25,0
63990,-4.5,84.9375,7.5625,0
64010,3.75,77.0625,13.5625,0
64030,18.375,75.25,15.875,0
64050,15.875,78.75,16.25,0
64070,8.375,75.375,20.25,0
64090,15.0625,63.4375,26.6875,0
64110,31.9375,52.3125,31.625,0
64130,39.3125,44.5,28.5625,0
64150,16.4375,39.125,32.9375,0
64170,-2.6875,19.625,36.375,0
64190,-2,-5.25,33.875,0
64210,4.9375,-12.1875,41.3125,0
64230,4.9375,-11.8125,46.375,0
64250,3.625,-18.375,44.875,0
64270,0.9375,-25.9375,43.5,0
64290,22.25,-28.375,44.5625,0
64310,49.0625,-34.875,43,0
64330,24.125,-37.4375,38.4375,0
64350,-1,-39,34.9375,0
64370,-9.0625,-51.125,29.625,0
64390,-4.0625,-64.375,24,0
64410,3.6875,-73.5,22.125,0
64430,10,-83.125,21.625,0
64450,6.25,-91.625,19.25,0
64470,-5.5625,-97.0625,14.125,0
64490,-20.875,-104.562,7.4375,0
64510,-28.875,-115.812,3.4375,0
64530,-19.3125,-123.188,-1.3125,0
64550,-2.625,-126,-8.1875,0
64570,-4,-130.125,-13.625,0
64590,-15.5625,-133.625,-18.8125,0
64610,-12.75,-132.125,-28.3125,0
64630,-2.75,-127.5,-38.5,0
64650,-4.125,-123,-48.4375,0
64670,2.25,-118.562,-58.25,0
64690,19.8125,-113.562,-69,0
64710,27.125,-106.562,-77.0625,0
64730,18.75,-95.875,-74.9375,0
64750,18.125,-83,-75.3125,0
64770,13.5625,-77.1875,-80.0625,0
64790,0.25,-68.4375,-80.5625,0
64810,-14.25,-47,-73.3125,0
64830,-21.25,-25.75,-65.4375,0
64850,-14.625,-13.1875,-57.6875,0
64870,-10.625,-1.8125,-52.5,0
64890,-16.0625,16.1875,-46.75,0
64910,-20.5625,32.25,-46.3125,0
64930,-29.1875,45,-43.25,0
64950,-46.75,60.9375,-40.9375,0
64970,-55.0625,84,-37.4375,0
65000,-44.0625,103.75,-27.8125,0
65020,-42,114.625,-29,0
65040,-47.9375,126,-27.0625,0
65060,-44.875,122.625,-17.5,0
65080,-35.75,116.188,-12.6875,0
65100,-29.8125,112.25,-14.9375,0
65120,-31,110.875,-11.875,0
65140,-25.25,105.188,3.75,0
65160,-0.875,97.75,9.5625,0
65190,-4.6875,92.9375,23,0
65210,-16,88.9375,34.25,0
65230,-7.75,80.4375,30.625,0
65250,-4.8125,74.375,37.75,0
65270,-3.0625,81.0625,53.75,0
65290,-20.875,80.25,58.1875,0
65310,-52.75,69.0625,46,0
65330,-79.4375,58.625,53.6875,0
65350,-73.25,58.9375,74.1875,0
65370,-25.9375,59.0625,69.375,0
65390,-15.6875,60.375,56.3125,0
65410,-26.8125,45.4375,57.9375,0
65430,-36.4375,15.875,58.5625,0
65450,-11.25,-1.9375,56.5,0
65470,9.375,-5,48.75,0
65490,-18.5625,-7.125,44.8125,0
65510,-39.25,-25.125,41.3125,0
65530,-48.625,-48.5,31.875,0
65550,-35.5625,-68.5625,21.625,0
65570,-11.9375,-89.6875,19.5,0
65590,-1.1875,-104.188,22.1875,0
65610,-16.75,-112.062,18.875,0
65630,-37.9375,-123.688,12,0
65650,-48,-133.438,7.1875,0
65660,-41.875,-138,1.25,0
65680,-47.25,-143.562,-7.3125,0
65700,-52.9375,-148.938,-19.75,0
65720,-42.4375,-146.812,-35.4375,0
65740,-21.1875,-142.75,-51.8125,0
65760,-17.375,-147.125,-69.0625,0
65780,-9.875,-149.688,-88.125,0
65800,-2.9375,-138.125,-101.375,0
65820,4,-126.375,-104.625,0
65840,9.9375,-118.062,-106.438,0
65860,12.875,-93.6875,-101.875,0
65880,0.125,-62.75,-89.3125,0
65900,-1.125,-42.3125,-79.6875,0
65920,6.5,-34.3125,-79.6875,0
65940,4.4375,-24.5,-77.125,0
65960,-5.5625,-11.8125,-68.125,0
65980,-9.125,-1.0625,-64.0625,0
66000,-11.625,7.125,-64.4375,0
66020,-18.5625,21.0625,-63.4375,0
66040,-36.3125,41.0625,-57.875,0
66060,-39.25,57.875,-50.25,0
66080,-32.75,70.5,-48.4375,0
66100,-38.8125,81.9375,-50.625,0
66120,-36.625,93.9375,-43.8125,0
66140,-19.125,105.812,-29.4375,0
66160,-16.1875,115.812,-20.8125,0
66180,-27.8125,122.688,-20.1875,0
66200,-26.75,127.188,-14.5,0
66220,-19.625,127.312,-6.25,0
66240,-28.125,127.125,-3.1875,0
66260,-22,130.25,5.8125,0
66280,-5.5625,131.938,16.9375,0
66300,0.25,128.562,22.3125,0
66320,-12.125,120.875,27.9375,0
66340,-5.75,114.938,39.75,0
66360,17.8125,105.312,51.125,0
66380,15.25,96.875,60,0
66400,-10.3125,92.625,67.125,0
66420,-14,93.9375,81.1875,0
66440,-13.75,78.3125,86.25,0
66460,-37.9375,59.875,78.9375,0
66480,-47.25,58.8125,85.625,0
66500,-37.875,52.9375,91.375,0
66520,-47.8125,37.0625,85.25,0
66540,-57.625,24.625,78.5625,0
66560,-47.125,14.5625,71.4375,0
66580,-47.75,0.4375,65.25,0
66600,-73.375,-17,59.0625,0
66620,-100.312,-23.625,54.3125,0
66640,-88.1875,-35.25,45.875,0
66660,-78.1875,-60.9375,38.125,0
66680,-67.3125,-71.5,30.625,0
66700,-39.9375,-77.125,25.125,0
66720,-29.0625,-93.75,23,0
66740,-26.375,-105.062,7.5625,0
66760,-17.75,-110.312,-7.3125,0
66780,-4,-118.438,-16,0
66800,3.375,-128.875,-29.5,0
66820,5.6875,-135.312,-44.8125,0
66840,12.9375,-131.5,-54.4375,0
66860,31.625,-122.688,-59.3125,0
66880,24.5625,-118.625,-62.1875,0
66900,15.25,-121.188,-67.25,0
66920,22.6875,-118.75,-74.3125,0
66940,39.1875,-103.5,-76.125,0
66960,27.1875,-87.625,-69.1875,0
66980,13,-81.1875,-63.5625,0
67000,16.375,-76.25,-70.4375,0
67020,31.0625,-58.5,-75.875,0
67040,13.375,-35.375,-65.625,0
67060,3.4375,-22.1875,-54.5,0
67080,14.375,-19.9375,-55.3125,0
67100,25.0625,-17.5,-57.75,0
67120,15,-3.5,-47.75,0
67140,8.0625,6.0625,-34.625,0
67160,9.625,6.1875,-27.75,0
67180,9,4.1875,-27.6875,0
67200,3.75,4.75,-29.875,0
67220,0.6875,9,-24.4375,0
67240,-2.8125,8.875,-17.625,0
67260,-2.125,10.75,-14.625,1001
67280,-0.3125,9.0625,-15.375,0
67300,-0.875,5.6875,-12.5625,0
67320,1.875,3.5625,-9.4375,0
67340,4.625,5.875,-8.4375,0
67360,-3.125,6.75,-6.5625,0
67380,-13.5,6.4375,-2.6875,0
67400,-22.1875,5.3125,-0.9375,0
67420,-25.8125,4.9375,0.5625,0
67440,-29,3.3125,1.25,0
67460,-43.1875,7.125,2.5625,0
67480,-33.5625,16.75,11.5,0
67500,-33.0625,21.875,25.0625,0
67520,-26.125,23.25,31.375,0
67550,12,48,64.5,0
67570,25.6875,55.5625,68.625,0
67590,29.5,62.5625,73,0
67610,22.9375,68.5625,79.5,0
67630,26.3125,76.375,92,0
67650,39.5625,84.125,112,0
67670,36.5625,86.375,131.75,0
67690,34.5,94.25,152.5,0
67710,54,114.25,178.938,0
67730,75.8125,135.5,210.312,0
67750,56.4375,157.938,240.812,0
67770,45.375,199,270.25,0
67790,85.5625,233.688,294.625,0
67810,83.875,238,287.688,0
67830,43.625,232.75,262.688,0
67850,73.125,234.125,240.062,0
67870,158.875,228.25,236.5,0
67890,171.125,227.875,263.188,0
67910,125.062,270,299.875,0
67930,85.1875,295.812,309.312,0
67950,-289.438,123.75,-198.812,0
67970,175.688,-136.812,-294.375,0
67990,-22.6875,-133.875,-91.1875,0
68010,84.1875,-84.25,5.875,0
68030,265.125,-74.6875,25.4375,0
68050,261.938,-58.1875,42.375,0
68070,139.75,-17.25,65.75,0
68090,-2.5,8.3125,99.1875,0
68110,-111.5,-1.8125,58,0
68130,-176.625,-40.8125,-33.125,0
68150,-192.125,-44.875,-67.1875,0
68170,-172,-31.9375,-57.4375,0
68190,-113.312,-5.375,-35.125,0
68210,-4.5625,23.75,-9.6875,0
68230,116.312,22.875,5.3125,0
68290,93.6875,14.125,-7.25,0
68310,45.9375,10.3125,-17.375,0
68330,7.5625,9.75,-12.75,0
68370,-24.9375,-3.5625,0.4375,0
68370,-26.375,-5,4.8125,0
68390,-26.9375,-5.4375,10.875,0
68410,-24.1875,-7.0625,13.5625,0
68430,-16.25,-7.625,13.375,0
68450,-7.0625,-6.75,9.5,0
68470,-1.0625,-5.6875,5.9375,0
68490,0.625,-4.4375,4.5625,0
68510,-0.125,-1.875,1.875,0
68530,-1,0.5625,0.75,0
68550,1.875,0.625,-0.875,0
68570,4.1875,-0.5625,-3.0625,0
68590,4.625,-2.25,-2.625,0
68610,-3.625,-3.125,1.5,0
68630,-12,-4.5,7.125,0
68650,-18.875,-7.25,13.9375,0
68660,-24.0625,-7.8125,18.6875,0
68680,-24,-4.1875,18.125,0
68700,-18.625,-4.1875,12,0
68720,-21.5625,-8.1875,3.9375,0
68740,-21.875,-7.5,-1.375,0
68760,-14.25,-6.125,-0.1875,0
68780,0.3125,-6.25,3.3125,0
68800,19.25,-4,1.125,0
68820,12.4375,7.5,-6.875,0
68840,2.8125,14.5625,-1.9375,0
68860,29.0625,1.6875,19.125,0
68880,69.9375,-10.9375,11,0
68900,74.9375,-43.5,9.8125,0
68920,-3.0625,-72,20.5,0
68940,-79.4375,-96.6875,13,0
68960,-93.75,-107.812,-37.625,0
68980,-84.75,-131.75,-86.125,0
69000,-71.4375,-162.562,-97.5,0
69020,-45.75,-183.062,-107,0
69040,-24.0625,-187.25,-126.875,0
69060,-25,-181.938,-140,0
69080,-33.9375,-176.25,-140.562,0
69110,-46.125,-148,-136.75,0
69140,-20.625,-107.125,-85.75,0
69160,-14.9375,-93,-56.4375,0
69180,-13.0625,-80.625,-29.6875,0
69200,-13.8125,-68.3125,-12.25,0
69220,-15,-50.0625,-1.625,0
69240,-25.5625,-30.75,4.75,0
69260,-41.9375,-17.625,12.875,0
69280,-46.0625,-11.0625,21.25,0
69300,-21.5,-10.125,21,0
69320,1.875,-15,25.75,0
69340,11,-14.8125,36.125,0
69360,10.0625,-5.4375,31.4375,0
69380,15,1.125,18,0
69400,2.4375,-4.9375,13.3125,0
69420,-25,-10.8125,16.8125,0
69440,-25.3125,-9,13.125,0
69460,-1.25,-9.8125,7.9375,0
69480,10.375,-15.875,9.5,0
69500,12.1875,-7.0625,-2.3125,0
69520,3.8125,-4.125,-11.5625,0
69530,-2.75,-5.5,-8.1875,0
69550,6.4375,-6.9375,-11.9375,0
69570,18.1875,-14.9375,-18.25,0
69590,27.9375,-27.6875,-18.75,0
69610,43.1875,-34.1875,-20.6875,0
69630,39.125,-42.8125,-27.875,1000
69650,20.125,-54.875,-37.0625,0
69670,-8.0625,-65.75,-40.375,0
69690,-26.375,-65.4375,-48.125,0
69710,-22.375,-58,-53.875,0
69720,-3.0625,-53.75,-55.25,0
69740,8.1875,-60.25,-50.75,0
69760,9.125,-64.6875,-38.4375,0
69780,13.5,-61.25,-29.625,0
69800,9.375,-54.375,-26.625,0
69820,2.5,-48.25,-22.125,0
69840,-4.4375,-38.75,-15.625,0
69860,-17.5625,-26.5625,-15,0
69880,-23.5,-14.5625,-14.8125,0
69900,-26.3125,-0.625,-14.375,0
69920,-27.9375,16.125,-20.125,0
69940,-31.8125,31.125,-25.125,0
69960,-24.25,38.25,-20.8125,0
69980,-11.0625,38.875,-21.0625,0
70000,-20.875,44.25,-33.25,0
70020,-31.125,47.5625,-35.6875,0
70040,-20.75,35.125,-16.5,0
70060,-16.5,33.3125,-16,0
70080,-17.6875,33.6875,-21.1875,0
70100,-29.5,28.9375,-23,0
70120,-44.0625,23.0625,-19.375,0
70140,-43.4375,26.375,-19.875,0
70160,-29.5,35.1875,-23.875,0
70180,-17.3125,43.875,-28.875,0
70200,-14.1875,52.5,-37.4375,0
70220,-15.625,63.375,-48,0
70240,-15.4375,73.375,-59.8125,0
70260,-14.625,79.9375,-63.625,0
70280,-17.375,86.75,-57.625,0
70300,-8.3125,92.4375,-56.5,0
70320,-3.75,92.0625,-57.75,0
70340,-8.625,89.5625,-54.375,0
70360,-15.875,84.375,-44.375,0
70380,-19.4375,80,-31.25,0
70400,-22.6875,78.1875,-23.6875,0
70420,-16.875,77.6875,-16.9375,0
70440,-24.25,71.875,-3.6875,0
70460,-24.375,68.5625,10.6875,0
70480,-7.125,67.9375,19,0
70500,3.5625,72.0625,20.25,0
70520,-3.6875,77.1875,18.5,0
70530,-27.125,83.375,29.1875,0
70550,-25.0625,79.6875,42.1875,0
70570,-9.8125,71,43.1875,0
70590,4.0625,68.9375,44.875,0
70610,10.5625,70.875,53.0625,0
70630,5.4375,66.5,61.75,0
70650,2.25,56.125,58.375,0
70670,-8.4375,44,55.25,0
70690,-22.9375,31.1875,64.4375,0
70710,-31.5,16.75,70.3125,0
70730,-33.1875,2.625,64.75,0
70750,-32.5,-10,63.75,0
70770,-35.5,-23.8125,66.5625,0
70790,-35.8125,-36.6875,64.625,0
70810,-34.375,-48.375,56.0625,0
70830,-37.6875,-59.0625,52.75,0
70850,-42,-73,50.9375,0
70870,-37.25,-88.6875,41.25,0
70890,-29.75,-103.938,35.625,0
70910,-25.8125,-115,33.25,0
70930,-20.9375,-125.062,24.1875,0
70950,-17.6875,-137.812,14.75,0
70970,-19.75,-149.812,5.9375,0
70990,-13,-156.625,-3.5,0
71010,-8.5625,-158.25,-14.3125,0
71030,-4.1875,-161.438,-25.125,0
71050,-6.75,-165.562,-35,0
71070,-5.5625,-163.188,-44.8125,0
71090,-1.0625,-153.438,-55.9375,0
71110,4.6875,-141.812,-70.0625,0
71130,1.875,-136.125,-77,0
71150,-10.8125,-130.75,-78.25,0
71170,-5.6875,-92.5625,-83,0
71180,-5.25,-75.25,-76.0625,0
71200,-7.375,-62.25,-67.875,0
71220,-13.8125,-46.125,-67.3125,0
71230,-16.3125,-27.1875,-71.1875,0
71250,-25.125,-16.375,-62.6875,0
71270,-41.25,-10.1875,-43.8125,0
71290,-37.4375,6.4375,-36.875,0
71310,-42.3125,28.625,-43.1875,0
71330,-50.0625,48.9375,-39.5625,0
71350,-52.0625,60.375,-29.25,0
71370,-53.5,78.4375,-31.625,0
71390,-62.1875,98.4375,-36.0625,0
71410,-54,111,-26.8125,0
71430,-41.9375,116.188,-20.8125,0
71450,-40,124.25,-24.0625,0
71470,-37.5,130.438,-19.875,0
71490,-29.125,127.375,-10.5625,0
71510,-24.375,117.938,-10.125,0
71530,-31.5,114.438,-14.25,0
71550,-28.75,110.5,-5.75,0
71570,-9.9375,102.875,4.75,0
71590,-3.8125,95.9375,4.3125,0
71610,-6,87.75,3.8125,0
71630,-11.4375,79.0625,16.5625,0
71650,-9.875,73.25,28.5625,0
71670,-7.0625,69.4375,32.75,0
71690,-2.0625,70.9375,40.6875,0
71710,16.5,65.3125,50.9375,0
71720,9.25,53.375,53.875,0
71740,8.5625,48.6875,56.25,0
71760,-0.75,59.375,66.5,0
71780,-22.9375,53.875,65.125,0
71800,-50.375,35.625,61.125,0
71820,-47.5625,19.5,68.3125,0
71840,-16.25,0.875,68.4375,0
71860,-6.125,-9.25,63.6875,0
71880,-19.375,-14.125,61.875,0
71900,-32.8125,-26.4375,58.75,0
71920,-40.8125,-46.125,52.5,0
71940,-42.4375,-61.5,46.6875,0
71960,-29,-71,43.5625,0
71980,-9.8125,-88.6875,40.875,0
72000,-21.375,-109.688,40.0625,0
72020,-36.125,-112.375,36.1875,0
72040,-17.5,-110.625,25.625,0
72060,-26.9375,-118.562,14.75,0
72080,-42.0625,-128.062,5.3125,0
72100,-49.5,-131.75,-8,0
72120,-27.5625,-136.25,-23,0
72140,0.6875,-144.562,-36,0
72160,11.6875,-150,-43.0625,0
72180,11.6875,-148.562,-54.5,0
72200,6.8125,-142.438,-65.1875,0
72220,-2.5625,-138.125,-68.3125,0
72240,-10.6875,-133,-71.125,0
72260,-10.625,-116.875,-81,0
72280,-16.5,-97.5625,-83.875,0
72300,-15.625,-85.375,-80.3125,0
72320,-6.0625,-74.4375,-83.9375,0
72340,-3.4375,-50.75,-84.875,0
72360,-7.375,-26.3125,-79,0
72380,-16.3125,-12,-71.1875,0
72390,-21.5625,-7.1875,-59.4375,0
72410,-20.1875,4.375,-64.4375,0
72430,-20.375,29.875,-72.875,0
72450,-30.1875,55.0625,-67.625,0
72470,-58.75,70.25,-61,0
72490,-84.5625,87.8125,-57.1875,0
72510,-76.125,103.625,-48.25,0
72530,-51.5,110.25,-33.4375,0
72550,-29.125,114.812,-23.8125,0
72570,-17.0625,116.5,-19.3125,0
72590,-8.1875,114,-11.6875,0
72610,4.1875,109.812,-5.6875,0
72630,4.25,104.5,-4.375,0
72650,13.5,101.688,2.9375,0
72670,28.875,105.312,17.625,0
72690,22.625,111.562,30.75,0
72710,1.0625,112.188,43.0625,0
72730,-16.0625,110.25,54.625,0
72750,-34.3125,107.5,62.4375,0
72770,-57.875,100.625,72,0
72790,-68.0625,92.5,85.0625,0
72810,-60,87.125,78.9375,0
72830,-47.3125,76.3125,65.75,0
72850,-47.25,59.5,58.125,0
72870,-29.75,43.6875,59,0
72890,0.4375,37.125,55.9375,0
72910,13.5625,31.625,54.125,0
72930,-1.9375,20.625,48.5,0
72950,-11.125,7.125,48.4375,0
72970,-15.8125,-1.0625,58.125,0
72990,-3.5625,-17.1875,61.375,0
73010,-25.1875,-33,63.5,0
73030,-37.375,-34.5,65.5,0
73040,-53.6875,-44.875,61.9375,0
73060,-71.75,-66.375,51.4375,0
73080,-65,-80.125,43.9375,0
73100,-38.4375,-87.25,31.625,0
73120,-15.6875,-93.5,20.25,0
73140,-10.6875,-105.5,10.375,0
73160,-11.75,-115,-2.5625,0
73180,-6.4375,-117.25,-16,0
73200,9.6875,-116.312,-28.375,0
73220,27.3125,-114.75,-39,0
73240,41.0625,-116.75,-50.25,0
73260,57.4375,-122.25,-59.9375,0
73280,69.5625,-118.688,-66.8125,0
73300,81.9375,-106.688,-63.9375,0
73320,69.9375,-99.375,-60.3125,0
73340,38.5625,-97.8125,-59.9375,0
73360,12.9375,-94.875,-60.625,0
73380,6.0625,-90.5625,-61.5625,0
73400,-3.0625,-84.25,-52.25,0
73420,-34.4375,-72.1875,-21.5625,0
73440,-42.5,-41.3125,-13.0625,0
73460,-86.875,-36.625,-56.3125,0
73480,-87.9375,-41.25,-70.375,0
73500,-18.875,-25.125,-47.125,0
73520,26.6875,-1.4375,-34.5,0
73540,25.6875,11.5625,-39,0
73560,8.875,8.5625,-51,0
73580,6.125,2.8125,-54.0625,0
73600,-0.4375,12.5625,-42.6875,0
73620,-24.3125,31.3125,-30.6875,1001
73640,-42.4375,38.6875,-24.1875,0
73660,-46.625,32.75,-16.875,0
73680,-47,28.625,-10.125,0
73700,-49.1875,29.8125,-8.6875,0
73720,-44.75,23.125,-9.75,0
73740,-26.6875,12.0625,7.5625,0
73760,-16.6875,11.5,40.0625,0
73780,12.4375,16.625,52.625,0
73800,23.1875,18.9375,40,0
73820,5.5625,17.4375,26.5625,0
73840,-8.1875,17.8125,34.3125,0
73860,-17.125,17,43.625,0
73880,-23,18.4375,49.125,0
73900,-13,19.5,62.5,0
73920,6.0625,17.8125,76.25,0
73940,25.4375,16.625,84.5625,0
73960,38.5,16.5625,90,0
73980,53.3125,15.5625,87.6875,0
74000,56.375,11.125,75.3125,0
74020,74.375,10,68.8125,0
74040,77.75,12.4375,66.125,0
74060,66.8125,14.4375,58.125,0
74080,54.0625,12.5,58.5,0
74100,47.375,16.9375,65.3125,0
74120,47.8125,22.9375,62.25,0
74140,52.0625,27.1875,58.5625,0
74160,63.25,27,65.9375,0
74180,57.5,22.8125,70.625,0
74200,52.3125,13.625,69.4375,0
74220,51,18.4375,80.3125,0
74240,63.9375,23.8125,91.1875,0
74260,50.5625,19.8125,80.0625,0
74280,19.25,20.6875,65.875,0
74300,-1.6875,21.1875,59.625,0
74320,-12.8125,8.6875,44.25,0
74340,-12.125,-7.4375,24.6875,0
74360,5.3125,-11.75,12.375,0
74380,20.5625,-10,0.8125,0
74400,29.875,-12.4375,-10.5,0
74420,26.3125,-12.875,-16.875,0
74440,18.3125,-9.0625,-18.5625,0
74460,6,-10.1875,-18,0
74480,8.875,-8.8125,-14.8125,0
74500,26.125,-6.875,-13.625,0
74520,32.5625,-6.1875,-16.875,0
74540,24.1875,-3.625,-19.875,0
74560,13.5,-1.8125,-17,0
74580,6.125,-4.9375,-13.875,0
74600,1.4375,-5,-14.5625,0
74620,3.25,-1.1875,-11.375,0
74640,4.0625,-3.8125,-4.3125,0
74660,8.375,-13,0.375,0
74680,15.5,-15.25,1.9375,0
74700,21.875,-17.3125,2.1875,1000
74720,13.875,-29.625,-7.625,0
74730,8.0625,-50,-21.125,0
74750,2.375,-62.0625,-29.25,0
74780,-12.25,-79.3125,-53.0625,0
74800,-1.0625,-91.125,-58.5625,0
74820,12.1875,-96.3125,-59,0
74840,11.5625,-94.125,-56.4375,0
74860,6.0625,-88.4375,-50,0
74880,11.5,-74.0625,-43.3125,0
74900,14.75,-55.625,-44.5625,0
74920,11.125,-38.375,-45.4375,0
74940,-7.0625,-19.8125,-37.8125,0
74960,-14.625,5.875,-37.0625,0
74980,-15.375,33.25,-48.1875,0
75000,-17.375,48.75,-44.9375,0
75020,-20.625,59.75,-28.4375,0
75040,-25.4375,70.8125,-38.25,0
75060,-32.875,84.6875,-46.5625,0
75080,-45.6875,92.9375,-34.1875,0
75100,-57.3125,95.6875,-20.125,0
75120,-59.4375,101.938,-26.75,0
75140,-65,114.938,-39.6875,0
75160,-78.125,113.625,-33.3125,0
75180,-85.3125,107,-16.3125,0
75220,-47.875,102.25,-29.3125,0
75240,-54.4375,94.9375,-15.625,0
75260,-57,90.8125,-11.8125,0
75280,-53.9375,86.125,7,0
75300,-34.125,81,23.3125,0
75320,-13,74.375,28.9375,0
75340,-8.1875,69.6875,33.25,0
75360,-4.9375,63.125,40.6875,0
75380,7.6875,48.75,42.875,0
75400,26.375,39.625,41.3125,0
75420,21.5,45.625,41.9375,0
75440,-10.4375,51.4375,39.0625,0
75460,-15.625,47.9375,35.625,0
75470,5.125,33.125,38.1875,0
75490,19.4375,23,39.375,0
75510,22.0625,37,39.375,0
75530,8.8125,46.0625,36.375,0
75550,-4.6875,34.875,33.5,0
75570,-5.5,21.6875,33.375,0
75590,10.1875,17.1875,32.6875,0
75610,21.1875,21.4375,28.1875,0
75630,17.8125,16.0625,28.3125,0
75650,-7.5625,6.625,30.6875,0
75670,6.6875,-26.625,19.625,0
75690,-10.75,-29.875,19.75,0
75710,7.1875,-35.4375,19.0625,0
75730,20.3125,-55.1875,20.0625,0
75750,5.6875,-71.5625,25.5,0
75770,-4.25,-76.6875,31.375,0
75790,-7.125,-89,31.8125,0
75810,-21,-112.062,25.625,0
75830,-44.8125,-127.25,18.625,0
75850,-47.9375,-133,12.875,0
75870,-32.6875,-141.812,3.8125,0
75890,-28.75,-153.625,-7.25,0
75910,-29.875,-157.188,-15.8125,0
75930,-25.3125,-153.875,-24.0625,0
75950,-19.625,-145.875,-37,0
75970,-13.9375,-135.5,-47.25,0
75990,-8.0625,-121.25,-50.6875,0
76010,-8,-102.375,-54.0625,0
76030,-18.0625,-81.8125,-55.5625,0
76050,-8.8125,-65.6875,-56.375,0
76070,4.875,-52.4375,-60.4375,0
76090,5.1875,-37.1875,-57.0625,0
76110,7.3125,-25.9375,-56.0625,0
76130,9.0625,-13.375,-60.8125,0
76150,12.375,3.6875,-66.8125,0
76170,4.875,10.8125,-77.3125,0
76190,-11.1875,15.75,-93.625,0
76210,-14.5,26.75,-103.438,0
76230,-13,38.875,-100.5,0
76250,-10.75,53.875,-94.625,0
76270,-18.4375,72.1875,-90.375,0
76290,-41.8125,86.1875,-81.625,0
76310,-43.1875,92.75,-63.4375,0
76330,-34.0625,96.5,-43.4375,0
76350,-30.625,101.75,-28.25,0
76370,-16.125,106.5,-10.6875,0
76390,1.75,109.562,14.75,0
76410,6.375,108.062,29.625,0
76430,-1.375,112,37.875,0
76450,-11.6875,113.438,49.6875,0
76470,-17.625,105.688,60.5625,0
76490,-15.25,97.0625,67.625,0
76510,-3.75,96,72.9375,0
76530,-29.4375,96.875,75.6875,0
76550,-54.5,78.75,70.1875,0
76570,-51.3125,48.25,69.6875,0
76590,-33.3125,34.625,68.5,0
76610,-53.5625,45.75,65.5,0
76630,-73.9375,52.9375,67.1875,0
76650,-71.4375,19.625,61.4375,0
76670,-58.3125,-16.5,62.9375,0
76690,-22.5625,-32.9375,70.125,0
76710,8.125,-49.5,57.0625,0
76730,-5.6875,-64.5625,43.5,0
76750,-18.5,-76.4375,34.5,0
76770,-5.8125,-98.375,19.625,0
76790,5.875,-124.25,11.25,0
76810,13.125,-133.562,1.5625,0
76830,12.75,-136.688,-8.75,0
76850,5.625,-142.438,-19.625,0
76870,1.3125,-152.188,-32.25,0
76890,-13.1875,-156.625,-44.875,0
76910,-14.9375,-151.75,-57.375,0
76930,-15.25,-141.5,-73.3125,0
76950,-13.375,-137.625,-80.0625,0
76970,6,-129.875,-83.3125,0
76990,22.5625,-108.125,-86.875,0
77010,22.9375,-82.5,-87.25,0
77030,10.25,-68,-83.9375,0
77050,1.4375,-59.3125,-88.4375,0
77070,-6.125,-35.25,-96.25,0
77090,-14.1875,-10.8125,-89.75,0
77110,-26.5,1,-78.625,0
77130,-37.125,9.0625,-72.0625,0
77150,-41.0625,25.8125,-71.75,0
77170,-54.875,50.6875,-65.5,0
77190,-75.375,68.75,-49.5625,0
77210,-85.375,84.375,-33.1875,0
77230,-78.375,99.1875,-24.0625,0
77250,-72.3125,105.438,-21.75,0
77270,-57.125,104.188,-14.4375,0
77290,-24.6875,103.312,-3.875,0
77310,-0.25,104.375,6.3125,0
77330,-0.6875,110.688,10,0
77350,-2.9375,117.562,10.875,0
77370,-10.5625,117.875,13.75,0
77390,-20.4375,112.938,16.5625,0
77410,-21.5625,113.188,23.25,0
77430,-8.625,110.312,35.25,0
77450,-2.6875,102.688,40.125,0
77470,-8.375,99,48.3125,0
77490,-7.125,90.4375,60.5625,0
77510,-5.5625,77.6875,67.75,0
77530,-29.4375,67.5,73.25,0
77550,-62.125,67.3125,87.75,0
77570,-79.25,58.375,98.25,0
77590,-86.9375,43.375,91.125,0
77610,-63.5,13.75,78.25,0
77630,-40.3125,-29.1875,67.125,0
77650,-40,-40.875,70,0
77670,-61,-53.3125,51,0
77690,-96.5625,-80.1875,21.875,0
77710,-115.812,-99.375,14.625,0
77730,-93.5,-111.438,10.625,0
77750,-61.0625,-124.75,3.75,0
77770,-39.1875,-135.938,2.5625,0
77790,-31,-142.375,4.6875,0
77810,-40.5625,-149.812,4.875,0
77820,-58.625,-156.312,-0.9375,0
77840,-62.375,-156.688,-11.375,0
77860,-44.625,-158.625,-13.125,0
77880,-25.5,-153.25,-12,0
77900,-15.0625,-132.062,-36.3125,0
77920,-17.875,-116.438,-56.8125,0
77940,-7.3125,-106.812,-57.375,0
77960,19,-88.4375,-59.1875,0
77980,32.0625,-64,-65.125,0
78000,44.3125,-50.1875,-65.3125,0
78020,53.25,-41.5625,-62.25,0
78040,42.75,-26.5,-46.375,0
78060,13.6875,-2.25,-19.25,0
78080,-9.6875,18.9375,-20.625,0
78100,-39,18.875,-40.6875,0
78120,-46.25,18.3125,-32.375,0
78140,-10.3125,28.0625,-12.125,0
78160,0.1875,30.25,-21.6875,0
78180,-5.5625,21.875,-27.125,0
78200,9,17.8125,-21.6875,0
78220,12.6875,20.4375,-22.1875,0
78240,-3.25,21.5625,-21.1875,0
78260,-21.0625,12.8125,-26.5625,0
78280,-22.25,3.875,-27.6875,0
78300,-7.125,10.5,-17.8125,0
78320,-11.125,14.5,-6.3125,0
78340,-22.1875,18.75,-0.3125,1001
78360,-25.25,26.25,4.5625,0
78380,-37.5625,23.75,12.4375,0
78400,-47.1875,17.5625,16.4375,0
78420,-21.1875,16.375,20.8125,0
78440,-1.6875,18,20.875,0
78460,-1.875,21.0625,17.25,0
78480,-7.125,22.6875,11.75,0
78500,-7.5625,20.125,15.5625,0
78520,-5.9375,16.875,16,0
78540,-0.1875,18.75,7.1875,0
78560,5.1875,21.6875,2.25,0
78580,5.6875,18,2.0625,0
78600,6.6875,16.3125,-0.625,0
78620,9.9375,13.875,-7.25,0
78640,-1.0625,13.5625,-13.1875,0
78660,-22.1875,13.4375,-19.1875,0
78680,-37.6875,13.375,-24.3125,0
78700,-23.3125,3.6875,-13.8125,0
78720,-9.125,-0.5,2.25,0
78740,13.4375,4.8125,4.9375,0
78760,30.875,7.9375,7.75,0
78780,35.375,9.4375,15.9375,0
78800,32.125,11,21.375,0
78820,24.625,8.375,20.8125,0
78840,20.0625,2.6875,21.3125,0
78860,32.375,2.75,21.4375,0
78880,49.625,7.0625,23,0
78900,48.75,10.5625,24.3125,0
78920,46.4375,17,25.5625,0
78940,56.0625,22.25,28.75,0
78960,59.4375,29.8125,27.9375,0
78980,55.1875,40.875,25.5625,0
79000,63.9375,57.5625,32.3125,0
79020,79.5625,73.125,47.3125,0
79040,74.125,89.0625,61.875,0
79060,70.125,106.5,63.1875,0
79080,81.625,131.875,61.625,0
79100,92.8125,151.875,85.75,0
79120,90.875,164.25,121.062,0
79140,70.375,175.625,141.062,0
79160,64.3125,200.375,156.25,0
79180,72.5625,229.938,179.688,0
79200,61.875,239.5,202.5,0
79220,35.5625,223.5,218.875,0
79240,59.25,225.5,223.125,0
79260,107.188,220.75,206.625,0
79280,89.4375,227.062,189.875,0
79300,31.0625,234.312,189.312,0
79320,-24.1875,231.875,199.438,0
79340,-63.4375,231.625,203.625,0
79360,-99.375,222.938,207.812,0
79380,-122.188,197.438,224,0
79400,-327.375,176.625,138.938,0
79420,-160.875,-31.625,-202.75,0
79440,224.125,-111.562,-158.5,0
79460,320,-103.875,19.5,0
79480,381.562,-26.1875,82.125,0
79500,286.188,33.875,27.25,0
79520,118.75,37,-21.6875,0
79540,-91.25,22.0625,-24.25,0
79560,-211.812,21.625,0,0
79580,-205,23.1875,-7.625,0
79600,-149,10.75,-13.625,0
79620,-82.5,-0.625,-12.25,0
79640,-17.4375,-11.5625,-6.625,0
79660,58.3125,-8.5625,11,0
79690,83.6875,-5.3125,4.625,0
79710,58.1875,-2.375,2.25,0
79730,10.5625,-0.0625,4.875,0
79750,-37,-2.0625,7.625,0
79770,-79.25,-6.6875,16.125,0
79790,-151.938,-10.625,29.3125,0
79810,-193.375,-33.3125,23.6875,0
79830,-244.125,-43.0625,19.125,0
79850,-256.5,-28.6875,-1.25,0
79870,-201.5,-16,-9.4375,0
79890,-112.312,-26.875,-0.75,0
79910,-30.5,-46.875,11.875,0
79930,-7.5,-44.8125,12.1875,0
79950,-26.75,-30.5,9.0625,0
79970,-22.8125,-13.3125,-1.8125,0
79990,9.875,6.75,-8.4375,0
80010,30.9375,14.1875,-9.1875,0
80030,60.3125,11.875,-9.875,0
80050,51.75,-5.6875,-27.5625,0
80070,35,-16.3125,-19.5625,0
80090,27.1875,-19.375,-6.9375,0
80110,1.5625,-12.3125,-10.3125,0
80130,-6.625,-3.0625,-3.375,0
80150,19.375,-3.875,-5.375,0
80170,6.6875,3.6875,-12.75,0
80190,5.875,7.3125,-7.6875,0
80210,5.5625,3.5625,-0.0625,0
