Timestamp, Angle x, Angle y, Angle z, Marker
10,2.66717,-0.723105,-2.70789,0
50,2.65864,-0.772419,-2.7096,0
70,2.66065,-0.803632,-2.71642,0
90,2.63881,-0.753077,-2.70129,0
90,2.68823,-0.703069,-2.72086,0
110,2.72699,-0.691248,-2.74054,0
120,2.85135,-0.71334,-2.81225,0
140,2.93386,-0.726219,-2.86174,0
160,3.01224,-0.73188,-2.914,0
180,3.08635,-0.728322,-2.96405,0
220,-3.04573,-0.739161,-3.06902,0
240,-3.01685,-0.76264,-3.09307,0
240,-3.00872,-0.861068,-3.10738,0
260,-3.05452,-0.944697,-3.08592,0
260,-3.08218,-0.996653,-3.07212,0
270,-3.11085,-1.09714,-3.06449,0
300,-3.1361,-1.18182,-3.07087,0
350,-1.70297,-1.35081,2.04282,0
370,-1.57623,-1.35176,1.98299,0
390,-1.38191,-1.36075,1.85162,0
410,-1.15178,-1.33549,1.68849,0
430,-0.956679,-1.32487,1.56447,0
450,-0.829899,-1.31858,1.49864,0
470,-0.782627,-1.32991,1.47645,0
490,-0.799134,-1.33018,1.51753,0
510,-0.841199,-1.32448,1.58806,0
530,-0.813243,-1.31779,1.6205,0
540,-0.711225,-1.32924,1.58596,0
560,-0.623871,-1.35624,1.53322,0
580,-0.496369,-1.38822,1.42009,0
600,-0.41302,-1.40417,1.33406,0
620,-0.180907,-1.41361,1.12917,0
640,-0.128874,-1.4317,1.09715,0
660,0.045801,-1.46013,0.962154,0
680,0.204136,-1.49079,0.84132,0
700,0.518443,-1.51281,0.548119,0
720,1.18725,-1.51822,-0.100828,0
740,1.7597,-1.49285,-0.64881,0
760,2.05454,-1.45626,-0.929588,0
780,2.17937,-1.41155,-1.05478,0
800,2.22894,-1.3614,-1.10635,0
820,2.25918,-1.3215,-1.14427,0
840,2.29387,-1.28913,-1.19073,0
860,2.33013,-1.25681,-1.22688,0
880,2.41014,-1.2234,-1.29943,0
900,2.47405,-1.20821,-1.33527,0
920,2.47648,-1.17087,-1.31391,0
940,2.49099,-1.14256,-1.30014,0
960,2.48973,-1.10361,-1.2628,0
980,2.49371,-1.06395,-1.23501,0
1000,2.50895,-1.04553,-1.22721,0
1020,2.52013,-1.047,-1.22225,0
1040,2.53779,-1.05917,-1.23083,0
1060,2.58883,-1.07808,-1.27367,0
1080,2.66786,-1.09683,-1.34558,0
1100,2.74621,-1.10617,-1.42209,0
1120,2.80421,-1.10484,-1.48528,0
1140,2.83543,-1.09866,-1.53354,0
1160,2.85324,-1.08932,-1.57447,0
1180,2.87345,-1.07383,-1.6146,0
1200,2.89622,-1.05186,-1.65926,0
1220,2.91989,-1.02197,-1.70649,0
1240,2.93832,-0.991071,-1.75363,0
1260,2.94965,-0.959314,-1.79887,0
1280,2.95614,-0.925923,-1.84689,0
1300,2.95867,-0.893047,-1.89674,0
1320,2.95691,-0.862113,-1.93661,0
1340,2.94161,-0.831055,-1.96505,0
1360,2.92431,-0.808858,-1.9874,0
1380,2.90131,-0.791357,-2.00596,0
1400,2.89043,-0.780908,-2.03138,0
1420,2.88969,-0.775152,-2.06322,0
1440,2.89892,-0.767821,-2.09454,0
1460,2.91033,-0.755028,-2.12257,0
1480,2.9032,-0.739401,-2.14419,0
1500,2.87419,-0.72306,-2.15712,0
1520,2.83686,-0.703875,-2.15748,0
1540,2.80651,-0.68245,-2.14437,0
1560,2.78725,-0.656252,-2.12927,0
1580,2.77751,-0.631912,-2.12116,0
1600,2.76706,-0.611166,-2.11853,0
1620,2.74978,-0.590475,-2.119,0
1640,2.73342,-0.566919,-2.12316,0
1660,2.72592,-0.541197,-2.13284,0
1680,2.72517,-0.51822,-2.14794,0
1700,2.7249,-0.499638,-2.16747,0
1720,2.72286,-0.4833,-2.18586,0
1740,2.72496,-0.464624,-2.20731,0
1760,2.72448,-0.443451,-2.23529,0
1780,2.72979,-0.426624,-2.26844,0
1800,2.74686,-0.414488,-2.30218,0
1820,2.76583,-0.39995,-2.33215,0
1840,2.77399,-0.381796,-2.35593,0
1860,2.77609,-0.364821,-2.3757,0
1880,2.77267,-0.350607,-2.39347,0
1900,2.76061,-0.337893,-2.40776,0
1920,2.74939,-0.32947,-2.41938,0
1940,2.74275,-0.320198,-2.43082,0
1960,2.74308,-0.312797,-2.44188,0
1980,2.74448,-0.304637,-2.45232,0
2000,2.74392,-0.296648,-2.46164,0
2020,2.73739,-0.289345,-2.4675,0
2040,2.73119,-0.279245,-2.47084,0
2060,2.72528,-0.265079,-2.47238,0
2080,2.71588,-0.250648,-2.47425,0
2100,2.70562,-0.238095,-2.47659,0
2120,2.70099,-0.225876,-2.48042,0
2140,2.6996,-0.213988,-2.48377,0
2160,2.69926,-0.202436,-2.489,0
2180,2.69524,-0.191281,-2.49527,0
2200,2.69026,-0.181766,-2.50034,0
2220,2.6909,-0.173933,-2.50681,0
2240,2.69438,-0.167058,-2.51554,0
2260,2.69259,-0.161237,-2.52355,0
2280,2.69238,-0.15683,-2.53338,0
2300,2.69867,-0.155763,-2.54507,0
2320,2.70214,-0.154026,-2.55559,0
2340,2.70324,-0.155139,-2.56623,0
2360,2.70126,-0.159889,-2.57362,0
2380,2.69428,-0.161567,-2.57955,0
2400,2.6926,-0.157701,-2.58404,0
2420,2.70378,-0.155302,-2.58785,0
2440,2.71736,-0.154886,-2.59992,0
2460,2.72982,-0.157144,-2.60908,0
2480,2.73918,-0.15794,-2.6053,0
2500,2.74296,-0.158032,-2.59531,0
2520,2.74155,-0.16073,-2.58553,0
2540,2.73785,-0.162215,-2.5741,0
2560,2.73678,-0.16231,-2.56325,0
2580,2.74051,-0.16415,-2.55464,0
2600,2.73953,-0.162504,-2.54624,0
2620,2.73283,-0.158259,-2.53805,0
2640,2.72425,-0.153031,-2.53005,0
2660,2.7199,-0.150806,-2.52255,0
2680,2.71937,-0.151192,-2.51508,0
2700,2.71243,-0.15756,-2.50425,0
2720,2.70069,-0.178758,-2.48791,0
2740,2.68978,-0.213862,-2.4668,0
2760,2.68276,-0.255824,-2.44446,0
2780,2.67986,-0.29608,-2.41919,0
2800,2.67578,-0.332948,-2.3876,0
2820,2.66983,-0.364192,-2.34886,0
2840,2.6626,-0.392513,-2.30626,0
2860,2.64492,-0.421256,-2.26479,0
2880,2.61898,-0.451881,-2.2259,0
2900,2.59374,-0.483295,-2.18946,0
2920,2.57995,-0.517779,-2.15808,0
2940,2.58063,-0.555999,-2.13652,0
2960,2.59046,-0.595717,-2.12633,0
2980,2.60891,-0.637246,-2.12258,0
3000,2.63392,-0.684289,-2.11854,0
3020,2.6576,-0.738884,-2.11228,0
3040,2.67183,-0.799338,-2.11017,0
3060,2.6818,-0.86599,-2.12567,0
3080,2.70354,-0.940252,-2.16547,0
3100,2.75115,-1.01711,-2.23004,0
3120,2.84833,-1.09237,-2.33068,0
3140,3.00471,-1.15792,-2.4795,0
3160,-3.07502,-1.20976,-2.67468,0
3180,-2.82451,-1.24468,-2.91807,0
3200,-2.5283,-1.25474,3.08118,0
3220,-2.25509,-1.23841,2.82275,0
3240,-2.04359,-1.20816,2.62392,0
3260,-1.86961,-1.16857,2.46285,0
3270,-1.72305,-1.11856,2.33289,0
3300,-1.6146,-1.06741,2.24564,0
3320,-1.52179,-1.01962,2.18103,0
3340,-1.43661,-0.96691,2.13297,0
3360,-1.35631,-0.903349,2.09653,0
3380,-1.28862,-0.836787,2.06975,0
3400,-1.23575,-0.773503,2.05057,0
3420,-1.18968,-0.706333,2.03614,0
3440,-1.14861,-0.631745,2.02707,0
3460,-1.12356,-0.55968,2.02994,0
3480,-1.10648,-0.494518,2.04258,0
3500,-1.08915,-0.427138,2.06185,0
3520,-1.07522,-0.359053,2.08787,0
3530,-1.06861,-0.301886,2.12002,0
3550,-1.06303,-0.256107,2.1566,0
3570,-1.05637,-0.212004,2.19803,0
3590,-1.05433,-0.172449,2.24184,0
3610,-1.05771,-0.145436,2.28429,0
3630,-1.06095,-0.125721,2.32551,0
3650,-1.06913,-0.0995137,2.36135,0
3670,-1.08635,-0.0798518,2.40377,0
3690,-1.10479,-0.0719747,2.44346,0
3710,-1.12133,-0.0642442,2.4797,0
3730,-1.16031,-0.042545,2.51359,0
3740,-1.1981,-0.0219341,2.54162,0
3760,-1.22811,-0.0106244,2.56363,0
3780,-1.25704,-0.00318695,2.5775,0
3800,-1.31079,0.0129802,2.58508,0
3820,-1.3344,0.01597,2.58809,0
3840,-1.33994,0.0161183,2.58938,0
3860,-1.3435,0.0170743,2.59206,0
3870,-1.34574,0.0166272,2.59571,0
3890,-1.34566,0.0144694,2.59969,0
3910,-1.34903,0.0124328,2.60099,0
3930,-1.35585,0.00997563,2.59919,0
3950,-1.36252,0.00754313,2.59568,0
3960,-1.36455,0.00615276,2.5928,0
3980,-1.37182,-0.00686991,2.59079,0
3990,-1.36061,-0.000286162,2.60363,0
4010,-1.39,0.00932606,2.63622,0
4050,-1.38134,-0.00684636,2.64425,0
4070,-1.37588,-0.0140875,2.65845,0
4090,-1.37744,-0.0158893,2.66581,0
4090,-1.38309,-0.00844465,2.67792,0
4100,-1.36692,0.00563636,2.68707,0
4120,-1.35978,0.0109483,2.68624,0
4150,-1.35191,0.0207628,2.6818,0
4170,-1.35253,0.0230535,2.67978,0
4180,-1.35448,0.0231441,2.67747,0
4190,-1.35481,0.0240022,2.67517,0
4220,-1.35258,0.0266771,2.67285,0
4240,-1.34936,0.0275075,2.67156,0
4260,-1.3468,0.0274381,2.66995,0
4270,-1.34491,0.0268247,2.66738,0
4290,-1.3421,0.0254395,2.66463,0
4320,-1.32771,0.0209187,2.656,0
4350,-1.28766,0.019949,2.63287,0
4370,-1.27011,0.0211162,2.62588,0
4390,-1.25587,0.0229278,2.61862,0
4420,-1.23836,0.0295268,2.60552,0
4440,-1.24019,0.0330544,2.60302,0
4460,-1.2506,0.0395245,2.60235,0
4480,-1.25522,0.0422037,2.60471,0
4510,-1.25694,0.0473338,2.6135,0
4520,-1.25963,0.0470766,2.62233,0
4540,-1.2667,0.0511022,2.6257,0
4560,-1.27631,0.0578908,2.63129,0
4570,-1.28477,0.0630299,2.63836,0
4590,-1.28758,0.0641989,2.6491,0
4620,-1.3129,0.0611576,2.66307,0
4640,-1.34399,0.0613976,2.66783,0
4660,-1.37373,0.0612433,2.67322,0
4670,-1.39881,0.0632896,2.68016,0
4690,-1.41207,0.0705168,2.68958,0
4710,-1.40154,0.0826124,2.69926,0
4730,-1.38159,0.0963393,2.70515,0
4750,-1.35687,0.104798,2.70663,0
4770,-1.34639,0.103665,2.70238,0
4790,-1.35196,0.100758,2.70042,0
4810,-1.36655,0.0998408,2.70126,0
4830,-1.38037,0.103202,2.70427,0
4850,-1.39418,0.11005,2.71071,0
4870,-1.40338,0.114615,2.7159,0
4890,-1.40824,0.118872,2.71857,0
4910,-1.40811,0.121903,2.72034,0
4930,-1.39962,0.121407,2.72285,0
4950,-1.38777,0.117989,2.72074,0
4970,-1.37591,0.115667,2.71812,0
4990,-1.36204,0.113968,2.7153,0
5010,-1.3519,0.113777,2.71349,0
5030,-1.34394,0.113842,2.71306,0
5050,-1.33876,0.112323,2.71328,0
5070,-1.33599,0.110109,2.71395,0
5090,-1.33443,0.107992,2.71559,0
5110,-1.33306,0.106797,2.71828,0
5130,-1.33134,0.107341,2.72166,0
5150,-1.33141,0.108449,2.72415,0
5170,-1.33327,0.108449,2.72494,0
5190,-1.33734,0.106661,2.72377,0
5210,-1.34248,0.103788,2.72085,0
5230,-1.34621,0.10069,2.71754,0
5250,-1.34598,0.0974212,2.71477,0
5260,-1.34241,0.0931049,2.71239,0
5280,-1.33737,0.0890512,2.70891,0
5300,-1.3334,0.0867497,2.70424,0
5320,-1.33067,0.0845086,2.69741,0
5340,-1.32945,0.0821104,2.68786,0
5370,-1.31951,0.0775152,2.66461,0
5390,-1.30339,0.0738337,2.65271,0
5410,-1.28053,0.0688312,2.64017,0
5430,-1.25171,0.0619072,2.62515,0
5450,-1.22134,0.0556329,2.60623,0
5470,-1.20003,0.0598232,2.5896,0
5490,-1.18824,0.0595164,2.57371,0
5540,-1.13435,0.0512544,2.42536,0
5560,-1.11785,0.0545772,2.39706,0
5580,-1.10278,0.0528149,2.36567,0
5600,-1.09023,0.0541028,2.33224,0
5620,-1.0816,0.0568156,2.29798,0
5640,-1.07594,0.0604894,2.26489,0
5660,-1.07002,0.0653695,2.23457,0
5680,-1.06253,0.0711162,2.20621,0
5700,-1.05901,0.0764649,2.18276,0
5720,-1.0602,0.0828779,2.1673,0
5740,-1.06399,0.0896315,2.16032,0
5760,-1.07098,0.0946454,2.15487,0
5780,-1.07954,0.100093,2.14183,0
5800,-1.09065,0.110009,2.12346,0
5820,-1.10364,0.124751,2.10393,0
5840,-1.11689,0.142621,2.08556,0
5860,-1.1316,0.1641,2.06993,0
5880,-1.14383,0.188538,2.05617,0
5900,-1.15185,0.211718,2.04382,0
5920,-1.15972,0.234893,2.0351,0
5940,-1.1704,0.25935,2.02766,0
5960,-1.18253,0.285719,2.01755,0
5980,-1.19342,0.314492,2.00642,0
6000,-1.20247,0.344089,1.99809,0
6010,-1.2096,0.373365,1.99396,0
6020,-1.21529,0.400128,1.99258,0
6040,-1.21832,0.422573,1.9928,0
6060,-1.21498,0.442456,1.99503,0
6080,-1.20565,0.461241,1.99904,0
6100,-1.19448,0.478444,2.00503,0
6120,-1.18781,0.493463,2.01061,0
6140,-1.18373,0.506103,2.01455,0
6160,-1.17911,0.51781,2.01858,0
6180,-1.17469,0.529943,2.02434,0
6200,-1.17063,0.540636,2.03193,0
6220,-1.16228,0.551605,2.04194,0
6240,-1.14878,0.564808,2.05374,0
6260,-1.13761,0.580908,2.06466,0
6280,-1.12829,0.596088,2.07513,0
6300,-1.11762,0.612639,2.08645,0
6320,-1.10346,0.635902,2.10349,0
6340,-1.08743,0.670436,2.13003,0
6360,-1.0885,0.702761,2.15709,0
6380,-1.12316,0.718438,2.17638,0
6420,-1.19235,0.714009,2.19139,0
6430,-1.21672,0.71103,2.1959,0
6450,-1.21571,0.716475,2.1991,0
6470,-1.19321,0.732443,2.1963,0
6490,-1.16659,0.75488,2.19444,0
6510,-1.15279,0.777775,2.19548,0
6530,-1.15526,0.798065,2.19304,0
6550,-1.16079,0.817604,2.19143,0
6570,-1.15646,0.839876,2.19712,0
6590,-1.15298,0.863462,2.20718,0
6610,-1.14563,0.88032,2.22263,0
6630,-1.11283,0.886957,2.23757,0
6650,-1.06946,0.888544,2.24918,0
6670,-1.05385,0.903969,2.25516,0
6690,-1.06062,0.914172,2.25615,0
6710,-1.07577,0.918349,2.25245,0
6730,-1.08192,0.921291,2.2547,0
6750,-1.07862,0.922958,2.25944,0
6770,-1.06558,0.926061,2.26395,0
6790,-1.04746,0.934895,2.26873,0
6810,-1.03512,0.948713,2.27456,0
6830,-1.03271,0.962165,2.27903,0
6850,-1.02772,0.973574,2.28979,0
6870,-1.01638,0.984259,2.30673,0
6890,-1.0031,0.994274,2.32725,0
6910,-0.994727,1.00464,2.34221,0
6930,-0.986677,1.01762,2.35757,0
6950,-0.976365,1.02951,2.37755,0
6970,-0.963039,1.0399,2.4002,0
6990,-0.943298,1.04986,2.42377,0
7010,-0.91649,1.05977,2.44938,0
7030,-0.888674,1.06985,2.4757,0
7050,-0.863345,1.07908,2.50084,0
7070,-0.841188,1.08779,2.52458,0
7090,-0.821406,1.09547,2.54537,0
7110,-0.8039,1.1029,2.5638,0
7130,-0.784179,1.1123,2.58376,0
7150,-0.763734,1.12256,2.60495,0
7170,-0.743163,1.13319,2.62446,0
7190,-0.715854,1.14344,2.64589,0
7210,-0.688536,1.15401,2.66397,0
7230,-0.671039,1.16508,2.67529,0
7250,-0.660818,1.17593,2.67945,0
7270,-0.658624,1.18606,2.6709,0
7290,-0.664348,1.19874,2.65193,0
7310,-0.684459,1.2114,2.61964,0
7330,-0.706872,1.22076,2.57811,0
7350,-0.727104,1.23264,2.53194,0
7370,-0.748732,1.24915,2.48932,0
7390,-0.780445,1.26317,2.43295,0
7410,-0.795868,1.27341,2.38604,0
7430,-0.832671,1.29205,2.32881,0
7450,-0.853389,1.29387,2.30995,0
7470,-0.89465,1.28693,2.27663,0
7490,-0.925971,1.2789,2.25451,0
7510,-0.960595,1.26392,2.2302,0
7530,-1.00791,1.2489,2.19498,0
7550,-0.964957,1.18487,2.21126,0
7570,-1.00093,1.162,2.16915,0
7590,-1.02404,1.13406,2.14411,0
7610,-1.03956,1.09823,2.12501,0
7630,-1.04782,1.06131,2.10804,0
7650,-1.04973,1.02918,2.09355,0
7670,-1.06343,1.0061,2.07333,0
7690,-1.08597,0.980585,2.0475,0
7710,-1.10159,0.954809,2.02443,0
7730,-1.10703,0.929227,1.99955,0
7750,-1.10275,0.903274,1.97312,0
7770,-1.10425,0.885571,1.94753,0
7790,-1.09789,0.866929,1.92638,0
7810,-1.095,0.845269,1.90714,0
7830,-1.09689,0.82301,1.89209,0
7850,-1.0996,0.800539,1.87806,0
7870,-1.09555,0.779342,1.87008,0
7890,-1.08422,0.762234,1.86862,0
7910,-1.07454,0.748426,1.86911,0
7930,-1.07188,0.736923,1.87062,0
7950,-1.08337,0.720927,1.86868,0
7970,-1.09937,0.699993,1.86993,0
7990,-1.11523,0.677781,1.86637,0
8010,-1.13105,0.659816,1.85089,0
8030,-1.1444,0.645827,1.83225,0
8050,-1.15881,0.629751,1.81622,0
8070,-1.1737,0.607954,1.7994,0
8090,-1.18727,0.579497,1.78147,0
8110,-1.19532,0.547226,1.76545,0
8130,-1.19403,0.512229,1.74918,0
8150,-1.1841,0.472314,1.73089,0
8170,-1.17196,0.428501,1.71327,0
8190,-1.1644,0.382373,1.698,0
8210,-1.16695,0.329028,1.68196,0
8230,-1.17814,0.268243,1.66343,0
8250,-1.19215,0.202618,1.64328,0
8270,-1.20039,0.132206,1.62571,0
8290,-1.19949,0.0573384,1.60984,0
8310,-1.19336,-0.023147,1.59378,0
8330,-1.18712,-0.109634,1.57996,0
8350,-1.1831,-0.201592,1.5681,0
8370,-1.18225,-0.298582,1.56027,0
8390,-1.1856,-0.401564,1.55652,0
8410,-1.19247,-0.515064,1.55292,0
8430,-1.20521,-0.641459,1.55811,0
8450,-1.23423,-0.774478,1.58104,0
8470,-1.28717,-0.907304,1.61686,0
8490,-1.35942,-1.03903,1.66549,0
8510,-1.46571,-1.1647,1.74919,0
8530,-1.65962,-1.27199,1.92047,0
8550,-1.99816,-1.34926,2.24153,0
8570,-2.50502,-1.38289,2.7365,0
8590,-2.97653,-1.3641,-3.08596,0
8610,3.00283,-1.31612,-2.79349,0
8630,2.82097,-1.25372,-2.62605,0
8650,2.70261,-1.1855,-2.5249,0
8690,2.46341,-0.807558,-2.41448,0
8710,2.46808,-0.736999,-2.43258,0
8730,2.47208,-0.6713,-2.45195,0
8750,2.47216,-0.611446,-2.46983,0
8770,2.47417,-0.559033,-2.48611,0
8790,2.48192,-0.512619,-2.50262,0
8810,2.49178,-0.472036,-2.51992,0
8830,2.49432,-0.434787,-2.53549,0
8850,2.49692,-0.400335,-2.54466,0
8880,2.49854,-0.322083,-2.53738,0
8900,2.53845,-0.273451,-2.56596,0
8910,2.53397,-0.316933,-2.56105,0
8940,2.50921,-0.430605,-2.55157,0
8960,2.53506,-0.495445,-2.58361,0
8980,2.56169,-0.546579,-2.62378,0
9000,2.57456,-0.572509,-2.64487,0
9010,2.58216,-0.597291,-2.66422,0
9030,2.58784,-0.622215,-2.6851,0
9050,2.59387,-0.644098,-2.7079,0
9070,2.60045,-0.663044,-2.72962,0
9090,2.60437,-0.679315,-2.74935,0
9110,2.6092,-0.692938,-2.77148,0
9130,2.62131,-0.702978,-2.80099,0
9150,2.63278,-0.709706,-2.83194,0
9170,2.64311,-0.707927,-2.86547,0
9190,2.66514,-0.696905,-2.90593,0
9200,2.68754,-0.673863,-2.94277,0
9220,2.70014,-0.646252,-2.97002,0
9240,2.69877,-0.610122,-2.98486,0
9250,2.64692,-0.520233,-2.96707,0
9270,2.61078,-0.471525,-2.9378,0
9290,2.57019,-0.42372,-2.90024,0
9310,2.44772,-0.307346,-2.77153,0
9330,2.44386,-0.137131,-2.67879,0
9350,2.4846,-0.100319,-2.70876,0
9370,2.58816,-0.0293475,-2.79428,0
9410,2.6257,0.00255169,-2.75646,0
9430,2.63774,0.0180716,-2.75484,0
9430,2.67997,0.072536,-2.76227,0
9440,2.69558,0.0684322,-2.75782,0
9470,2.69782,0.0459416,-2.74344,0
9490,2.69575,0.0393378,-2.72963,0
9510,2.6892,0.0344573,-2.71703,0
9520,2.68688,0.0282193,-2.70372,0
9540,2.65186,-0.0233924,-2.62616,0
9560,2.64269,-0.0396711,-2.60844,0
9600,2.59563,-0.280091,-2.37138,0
9620,2.59524,-0.304878,-2.35379,0
9640,2.5916,-0.331001,-2.33469,0
9660,2.58642,-0.36098,-2.31239,0
9680,2.58184,-0.391328,-2.29274,0
9700,2.57815,-0.424541,-2.27787,0
9720,2.58383,-0.458249,-2.27256,0
9740,2.59987,-0.489273,-2.27321,0
9790,-2.02808,-1.17181,2.88962,0
9800,-1.78804,-1.15193,2.67576,0
9820,-1.61148,-1.11218,2.52055,0
9840,-1.46746,-1.06351,2.39961,0
9860,-1.33329,-0.999407,2.29682,0
9880,-1.22561,-0.925264,2.22259,0
9900,-1.15648,-0.849562,2.17332,0
9920,-1.09641,-0.77306,2.13313,0
9940,-1.03923,-0.689844,2.10371,0
9960,-1.00444,-0.606222,2.09195,0
9980,-0.993322,-0.527525,2.09108,0
10000,-0.986602,-0.454084,2.09502,0
10020,-0.982756,-0.380864,2.10435,0
10040,-0.985733,-0.308804,2.11954,0
10060,-0.996487,-0.249565,2.13763,0
10080,-1.00847,-0.200201,2.15844,0
10100,-1.01841,-0.150213,2.18024,0
10120,-1.03085,-0.0966505,2.19922,0
10140,-1.04384,-0.04171,2.21328,0
10160,-1.05527,0.0153261,2.22251,0
10180,-1.08149,0.0715623,2.23011,0
10200,-1.12491,0.133504,2.23792,0
10220,-1.17108,0.201333,2.24511,0
10240,-1.19902,0.261346,2.25623,0
10260,-1.21998,0.250294,2.2629,0
10280,-1.28182,0.229231,2.2506,0
10300,-1.3284,0.21662,2.25366,0
10320,-1.36182,0.206409,2.24901,0
10330,-1.36024,0.200788,2.23811,0
10350,-1.33561,0.203134,2.22392,0
10370,-1.29471,0.206493,2.21454,0
10390,-1.25165,0.203622,2.20847,0
10410,-1.21523,0.196095,2.20594,0
10430,-1.18395,0.190429,2.20665,0
10450,-1.16295,0.185373,2.2075,0
10470,-1.14877,0.179974,2.20846,0
10490,-1.13921,0.177321,2.20847,0
10510,-1.13577,0.175673,2.2073,0
10530,-1.13753,0.173909,2.20519,0
10550,-1.14287,0.172376,2.20377,0
10570,-1.15077,0.17191,2.20239,0
10590,-1.15884,0.172642,2.20119,0
10610,-1.16404,0.172794,2.20045,0
10630,-1.1655,0.172433,2.19985,0
10650,-1.16432,0.171564,2.20005,0
10670,-1.16151,0.170678,2.20055,0
10690,-1.15903,0.170311,2.20194,0
10710,-1.15653,0.170492,2.20359,0
10720,-1.15509,0.17181,2.20548,0
10740,-1.15469,0.173578,2.20715,0
10760,-1.15558,0.174957,2.20838,0
10780,-1.15689,0.175819,2.20915,0
10800,-1.15767,0.176295,2.20937,0
10820,-1.15857,0.176602,2.2092,0
10840,-1.15989,0.17604,2.20873,0
10860,-1.16083,0.174776,2.2082,0
10880,-1.16074,0.172998,2.20798,0
10900,-1.16037,0.171644,2.20824,0
10920,-1.16052,0.171133,2.20914,0
10940,-1.16144,0.170412,2.2103,0
10960,-1.16255,0.169916,2.21166,0
10980,-1.16383,0.16955,2.21305,0
11000,-1.16603,0.169187,2.21457,0
11020,-1.16879,0.168757,2.2167,0
11040,-1.17145,0.16885,2.21983,0
11060,-1.17515,0.170315,2.22286,0
11080,-1.17968,0.172013,2.22655,0
11100,-1.18585,0.174235,2.23083,0
11120,-1.19406,0.176798,2.23488,0
11140,-1.20384,0.179392,2.23857,0
11160,-1.21275,0.181436,2.24108,0
11180,-1.22018,0.181964,2.2413,0
11200,-1.22473,0.181895,2.23951,0
11220,-1.22403,0.181048,2.23634,0
11240,-1.21551,0.178629,2.23152,0
11260,-1.19974,0.176009,2.22661,0
11280,-1.17651,0.174108,2.22105,0
11300,-1.14896,0.174364,2.21256,0
11320,-1.12112,0.177335,2.20442,0
11340,-1.09458,0.180435,2.19567,0
11360,-1.06931,0.183549,2.18483,0
11380,-1.04674,0.187937,2.17067,0
11400,-1.02897,0.193215,2.15397,0
11420,-1.01663,0.19839,2.13528,0
11440,-1.00551,0.204657,2.11463,0
11460,-0.993206,0.211732,2.0932,0
11480,-0.977013,0.219762,2.07279,0
11500,-0.956219,0.229268,2.05457,0
11520,-0.931,0.239024,2.03888,0
11540,-0.9029,0.249163,2.02617,0
11560,-0.872987,0.25927,2.01645,0
11580,-0.842079,0.267651,2.00909,0
11600,-0.813245,0.272836,2.00265,0
11620,-0.787525,0.275763,1.99708,0
11640,-0.764219,0.277011,1.9931,0
11660,-0.743405,0.276656,1.99037,0
11680,-0.726136,0.275243,1.98875,0
11700,-0.712221,0.273739,1.98915,0
11720,-0.703386,0.269875,1.98991,0
11740,-0.703317,0.265854,1.98927,0
11760,-0.710082,0.262051,1.98786,0
11780,-0.722037,0.258871,1.98745,0
11800,-0.737269,0.255983,1.98668,0
11820,-0.752895,0.253313,1.98578,0
11840,-0.766742,0.252325,1.9851,0
11860,-0.77624,0.253576,1.9854,0
11880,-0.777574,0.254926,1.98698,0
11900,-0.767067,0.248961,1.9879,0
11920,-0.757844,0.250542,1.98923,0
11940,-0.757914,0.254447,1.9863,0
11960,-0.765779,0.255992,1.98247,0
11980,-0.77249,0.255163,1.98022,0
12000,-0.771476,0.253484,1.97871,0
12020,-0.766144,0.253149,1.97803,0
12040,-0.760191,0.255773,1.98015,0
12060,-0.748434,0.251571,1.9834,0
12080,-0.74291,0.251906,1.9854,0
12100,-0.73936,0.252556,1.98664,0
12120,-0.737478,0.253541,1.98605,0
12140,-0.737732,0.25685,1.98412,0
12160,-0.740239,0.257527,1.98139,0
12180,-0.745574,0.25675,1.97813,0
12200,-0.748418,0.260336,1.97957,0
12220,-0.749786,0.263467,1.98439,0
12240,-0.752214,0.263084,1.99149,0
12260,-0.758156,0.261878,2.00509,0
12280,-0.768351,0.248926,2.02508,0
12300,-0.779427,0.234689,2.04521,0
12320,-0.792895,0.2043,2.06318,0
12340,-0.802797,0.145604,2.07273,0
12360,-0.798102,0.0810665,2.08715,0
12380,-0.782952,0.0105374,2.10398,0
12400,-0.763201,-0.0660676,2.12152,0
12420,-0.747037,-0.143877,2.14011,0
12440,-0.738962,-0.218087,2.16031,0
12460,-0.735881,-0.287049,2.17905,0
12480,-0.735921,-0.350034,2.19598,0
12500,-0.741,-0.405656,2.21463,0
12520,-0.750683,-0.451864,2.23375,0
12540,-0.760061,-0.488528,2.25108,0
12560,-0.769568,-0.514567,2.26736,0
12580,-0.780258,-0.533797,2.28141,0
12600,-0.791693,-0.546882,2.29275,0
12620,-0.804037,-0.554645,2.30161,0
12640,-0.815522,-0.557486,2.3077,0
12660,-0.826604,-0.556576,2.31324,0
12680,-0.836261,-0.554124,2.31836,0
12700,-0.842993,-0.551198,2.32145,0
12720,-0.848108,-0.54906,2.32245,0
12740,-0.853306,-0.547558,2.32151,0
12760,-0.860739,-0.547035,2.31974,0
12780,-0.871475,-0.547457,2.31864,0
12800,-0.883787,-0.54873,2.31922,0
12820,-0.894808,-0.551122,2.31988,0
12840,-0.904072,-0.554738,2.31949,0
12860,-0.911852,-0.560507,2.31653,0
12880,-0.923225,-0.5694,2.31197,0
12900,-0.94307,-0.582424,2.30857,0
12920,-0.97207,-0.597989,2.30612,0
12940,-1.01371,-0.606527,2.30856,0
12960,-1.06569,-0.607747,2.31403,0
12980,-1.11711,-0.604431,2.31612,0
13000,-1.15678,-0.599414,2.31299,0
13020,-1.18601,-0.59365,2.30598,0
13040,-1.20206,-0.587106,2.29797,0
13060,-1.20896,-0.583231,2.29002,0
13080,-1.21432,-0.581378,2.28282,0
13100,-1.22308,-0.580322,2.27603,0
13120,-1.2345,-0.580555,2.26901,0
13140,-1.247,-0.581402,2.26184,0
13160,-1.25774,-0.581404,2.25611,0
13180,-1.26927,-0.580714,2.25305,0
13200,-1.28034,-0.582913,2.25107,0
13220,-1.28545,-0.582719,2.24874,0
13240,-1.28572,-0.580773,2.24723,0
13260,-1.28264,-0.580622,2.24703,0
13280,-1.27928,-0.579557,2.24844,0
13300,-1.27516,-0.576908,2.24765,0
13320,-1.27279,-0.575453,2.24816,0
13340,-1.27123,-0.577634,2.24762,0
13360,-1.26986,-0.577522,2.24485,0
13380,-1.27576,-0.577838,2.24106,0
13400,-1.27886,-0.580073,2.24047,0
13420,-1.28384,-0.581793,2.23855,0
13440,-1.287,-0.583723,2.23949,0
13460,-1.28478,-0.584797,2.24385,0
13480,-1.27685,-0.582491,2.24541,0
13500,-1.26863,-0.579851,2.24458,0
13520,-1.26067,-0.580877,2.24427,0
13540,-1.25804,-0.583073,2.24206,0
13560,-1.25963,-0.582977,2.23567,0
13580,-1.26637,-0.57986,2.231,0
13600,-1.26673,-0.577627,2.22662,0
13620,-1.2694,-0.575477,2.22134,0
13640,-1.26976,-0.5773,2.21954,0
13660,-1.26855,-0.578632,2.22205,0
13680,-1.26703,-0.574097,2.22434,0
13690,-1.26378,-0.57321,2.22451,0
13710,-1.26266,-0.573153,2.22601,0
13730,-1.26779,-0.57301,2.22652,0
13750,-1.27432,-0.572352,2.22403,0
13770,-1.28167,-0.571075,2.22137,0
13790,-1.28825,-0.5705,2.21884,0
13810,-1.29038,-0.570375,2.21552,0
13830,-1.28834,-0.570174,2.21212,0
13850,-1.28608,-0.569817,2.21023,0
13870,-1.2842,-0.569778,2.20893,0
13890,-1.28252,-0.568887,2.2065,0
13910,-1.28052,-0.566069,2.20362,0
13930,-1.27738,-0.561351,2.20057,0
13950,-1.27335,-0.554643,2.19742,0
13970,-1.26942,-0.545981,2.19482,0
13990,-1.26664,-0.536182,2.19366,0
14010,-1.2626,-0.524363,2.19293,0
14030,-1.25686,-0.511098,2.1923,0
14050,-1.25362,-0.498641,2.19232,0
14070,-1.25006,-0.487518,2.19063,0
14090,-1.24959,-0.476948,2.19048,0
14110,-1.24826,-0.467932,2.19254,0
14130,-1.24382,-0.463581,2.19643,0
14150,-1.23892,-0.465518,2.20169,0
14170,-1.23894,-0.47275,2.20864,0
14190,-1.24378,-0.483626,2.21793,0
14210,-1.24848,-0.497497,2.22777,0
14230,-1.25041,-0.514781,2.23803,0
14250,-1.25081,-0.534772,2.25023,0
14270,-1.25128,-0.557455,2.26425,0
14290,-1.25206,-0.584187,2.28064,0
14310,-1.2521,-0.615713,2.29781,0
14330,-1.2542,-0.652291,2.31851,0
14350,-1.26072,-0.69287,2.34322,0
14370,-1.27253,-0.736317,2.37012,0
14390,-1.28834,-0.781117,2.39704,0
14410,-1.31042,-0.82445,2.42646,0
14430,-1.33876,-0.86634,2.46121,0
14450,-1.37322,-0.906836,2.50219,0
14470,-1.414,-0.946016,2.54745,0
14490,-1.46236,-0.980028,2.59841,0
14510,-1.51181,-1.01129,2.65178,0
14530,-1.56497,-1.03796,2.7076,0
14550,-1.62568,-1.05972,2.76844,0
14570,-1.68844,-1.07871,2.83201,0
14590,-1.75094,-1.09251,2.89585,0
14610,-1.80926,-1.09957,2.95551,0
14630,-1.86033,-1.10286,3.00883,0
14650,-1.9062,-1.10436,3.05698,0
14670,-1.94647,-1.10336,3.09924,0
14690,-1.98043,-1.0993,3.13448,0
14710,-2.0039,-1.09505,-3.12382,0
14730,-2.00301,-1.09036,-3.11628,0
14750,-2.01179,-1.09121,-3.12661,0
14770,-2.00976,-1.08684,3.13831,0
14790,-1.98887,-1.0839,3.12656,0
14810,-1.97718,-1.08298,3.12874,0
14830,-1.97866,-1.08193,3.13799,0
14850,-1.98442,-1.08091,-3.13765,0
14870,-1.9934,-1.07856,-3.12991,0
14890,-2.00372,-1.07456,-3.12309,0
14910,-2.00611,-1.07076,-3.11927,0
14930,-2.00596,-1.06743,-3.11559,0
14950,-2.00506,-1.06538,-3.1153,0
14970,-2.00524,-1.06786,-3.11272,0
14990,-2.00903,-1.07162,-3.10642,0
15010,-2.01519,-1.07694,-3.10057,0
15030,-2.01997,-1.08203,-3.0982,0
15050,-2.02273,-1.08712,-3.09868,0
15070,-2.02406,-1.09225,-3.1005,0
15090,-2.0233,-1.09613,-3.10509,0
15110,-2.01863,-1.0983,-3.11455,0
15130,-2.00694,-1.09647,-3.12897,0
15150,-1.97581,-1.0882,3.12054,0
15170,-1.92751,-1.07793,3.07845,0
15190,-1.87293,-1.06806,3.03341,0
15210,-1.8138,-1.05694,2.98011,0
15230,-1.7481,-1.04435,2.9171,0
15250,-1.6746,-1.02618,2.84101,0
15270,-1.6067,-1.00304,2.76398,0
15290,-1.54758,-0.974167,2.69103,0
15310,-1.49117,-0.941963,2.62238,0
15330,-1.43599,-0.908099,2.55882,0
15350,-1.39039,-0.871434,2.50107,0
15370,-1.35553,-0.831661,2.44909,0
15390,-1.33256,-0.789744,2.40531,0
15410,-1.32091,-0.748191,2.36671,0
15430,-1.31386,-0.709382,2.33139,0
15450,-1.3041,-0.672602,2.29977,0
15470,-1.29602,-0.639118,2.27494,0
15490,-1.29204,-0.610475,2.25357,0
15510,-1.28988,-0.582874,2.23356,0
15530,-1.28281,-0.556765,2.21728,0
15550,-1.27574,-0.53298,2.20467,0
15570,-1.2756,-0.512511,2.19461,0
15590,-1.27795,-0.495683,2.18857,0
15610,-1.28099,-0.479126,2.18434,0
15630,-1.27828,-0.46336,2.1788,0
15650,-1.27427,-0.451633,2.17323,0
15670,-1.27368,-0.443472,2.16987,0
15690,-1.2746,-0.437844,2.16845,0
15710,-1.27411,-0.434627,2.16862,0
15730,-1.26886,-0.432689,2.16916,0
15750,-1.25826,-0.431884,2.17125,0
15770,-1.24948,-0.433209,2.17278,0
15790,-1.24876,-0.436328,2.17623,0
15810,-1.25022,-0.440108,2.17796,0
15830,-1.25095,-0.445957,2.17779,0
15850,-1.2575,-0.447498,2.18201,0
15870,-1.26211,-0.445091,2.18863,0
15890,-1.26713,-0.444174,2.19154,0
15910,-1.27387,-0.445532,2.19149,0
15930,-1.27818,-0.448948,2.19341,0
15950,-1.27357,-0.452375,2.19872,0
15970,-1.26259,-0.454025,2.20408,0
15990,-1.25242,-0.455611,2.20851,0
16010,-1.24639,-0.46211,2.21181,0
16030,-1.24711,-0.469312,2.21376,0
16050,-1.25706,-0.474869,2.21541,0
16070,-1.2737,-0.478261,2.22033,0
16090,-1.28302,-0.484626,2.22347,0
16110,-1.28841,-0.492201,2.226,0
16130,-1.29348,-0.497991,2.23034,0
16150,-1.29699,-0.503454,2.23624,0
16170,-1.29876,-0.508208,2.24288,0
16190,-1.30215,-0.513982,2.25026,0
16210,-1.31151,-0.521079,2.25709,0
16230,-1.32196,-0.531092,2.26223,0
16250,-1.32601,-0.547273,2.26455,0
16270,-1.33118,-0.570513,2.2677,0
16290,-1.33861,-0.598889,2.26965,0
16310,-1.34255,-0.636878,2.26911,0
16330,-1.34607,-0.684158,2.26848,0
16350,-1.35032,-0.739117,2.26509,0
16370,-1.3568,-0.79939,2.25938,0
16390,-1.36721,-0.865433,2.25463,0
16410,-1.38095,-0.937025,2.25165,0
16430,-1.39926,-1.01252,2.25517,0
16450,-1.43162,-1.0904,2.27213,0
16470,-1.48549,-1.16849,2.3092,0
16490,-1.57435,-1.2444,2.38261,0
16510,-1.73319,-1.31338,2.52753,0
16530,-2.01415,-1.36413,2.79304,0
16550,-2.41151,-1.38391,-3.10875,0
16570,-2.8029,-1.36652,-2.73023,0
16590,-3.07769,-1.31917,-2.46718,0
16610,3.04358,-1.2586,-2.31899,0
16630,2.95432,-1.19395,-2.24175,0
16650,2.90744,-1.12721,-2.20549,0
16670,2.88194,-1.06091,-2.19158,0
16690,2.87389,-1.00007,-2.1929,0
16710,2.87542,-0.944874,-2.20476,0
16730,2.88165,-0.892539,-2.22257,0
16750,2.88472,-0.843041,-2.23942,0
16770,2.88146,-0.800192,-2.25352,0
16790,2.88006,-0.764781,-2.2684,0
16810,2.87761,-0.73093,-2.28298,0
16830,2.87418,-0.699708,-2.2938,0
16850,2.86749,-0.672777,-2.30022,0
16870,2.85949,-0.652665,-2.30523,0
16890,2.85275,-0.635537,-2.3108,0
16910,2.84611,-0.616862,-2.31811,0
16930,2.83318,-0.600446,-2.32345,0
16940,2.81765,-0.588369,-2.32982,0
16960,2.80255,-0.579694,-2.33427,0
16980,2.79652,-0.570683,-2.33821,0
17000,2.79096,-0.561307,-2.33931,0
17020,2.7848,-0.5518,-2.34391,0
17040,2.78143,-0.54299,-2.35516,0
17060,2.77886,-0.540573,-2.36669,0
17080,2.77756,-0.540605,-2.37167,0
17100,2.7729,-0.538762,-2.36955,0
17120,2.77069,-0.535294,-2.36814,0
17140,2.76648,-0.531368,-2.36305,0
17160,2.75145,-0.529454,-2.35516,0
17180,2.73817,-0.527929,-2.35152,0
17200,2.7181,-0.526861,-2.34633,0
17220,2.68655,-0.527016,-2.33534,0
17240,2.65885,-0.525319,-2.32808,0
17260,2.63122,-0.520498,-2.3209,0
17280,2.597,-0.513457,-2.31173,0
17300,2.56492,-0.503823,-2.30849,0
17320,2.53858,-0.492656,-2.30763,0
17340,2.51473,-0.480603,-2.30863,0
17360,2.49259,-0.468038,-2.30972,0
17380,2.48243,-0.455389,-2.31407,0
17400,2.4821,-0.443426,-2.32222,0
17420,2.48853,-0.433031,-2.33008,0
17440,2.49624,-0.421493,-2.33346,0
17460,2.49824,-0.409251,-2.3341,0
17480,2.49819,-0.399424,-2.33601,0
17500,2.49816,-0.391351,-2.33618,0
17520,2.50329,-0.380732,-2.33798,0
17540,2.50822,-0.375125,-2.3472,0
17560,2.50863,-0.37255,-2.3628,0
17580,2.50011,-0.374362,-2.37468,0
17600,2.50208,-0.381551,-2.37788,0
17620,2.51758,-0.389321,-2.37589,0
17640,2.54815,-0.40034,-2.37375,0
17660,2.58421,-0.418786,-2.36838,0
17680,2.6173,-0.441275,-2.36021,0
17700,2.64038,-0.460589,-2.3509,0
17720,2.65404,-0.479043,-2.33985,0
17740,2.65438,-0.501488,-2.32495,0
17760,2.64967,-0.5285,-2.30698,0
17780,2.64462,-0.557113,-2.28526,0
17800,2.64436,-0.588985,-2.26359,0
17820,2.64962,-0.627652,-2.24279,0
17840,2.66724,-0.670293,-2.22669,0
17860,2.6836,-0.71214,-2.21422,0
17880,2.6979,-0.756382,-2.20001,0
17900,2.70595,-0.802337,-2.18345,0
17920,2.71587,-0.851041,-2.17159,0
17940,2.72986,-0.903396,-2.16887,0
17960,2.75559,-0.962985,-2.17482,0
17980,2.80981,-1.03109,-2.2009,0
18000,2.90981,-1.10149,-2.26017,0
18020,3.04101,-1.16312,-2.35082,0
18040,-3.06614,-1.21917,-2.48866,0
18060,-2.80538,-1.26495,-2.70907,0
18080,-2.48227,-1.28221,-2.98766,0
18100,-2.17858,-1.26689,3.02839,0
18120,-1.92961,-1.22439,2.80297,0
18140,-1.74131,-1.16043,2.63584,0
18160,-1.61484,-1.08547,2.53437,0
18180,-1.54092,-1.00812,2.4803,0
18200,-1.50081,-0.929746,2.44503,0
18220,-1.48434,-0.848127,2.41453,0
18240,-1.49304,-0.769579,2.38378,0
18260,-1.50646,-0.69947,2.35611,0
18280,-1.51279,-0.631998,2.3388,0
18300,-1.51833,-0.568752,2.329,0
18320,-1.53051,-0.513209,2.31017,0
18340,-1.54282,-0.459312,2.27587,0
18360,-1.55479,-0.410408,2.24238,0
18400,-1.58774,-0.338526,2.19612,0
18420,-1.59353,-0.311474,2.17276,0
18440,-1.58196,-0.288204,2.15012,0
18460,-1.55853,-0.270616,2.13093,0
18480,-1.53309,-0.258467,2.11427,0
18500,-1.5137,-0.250974,2.10026,0
18520,-1.4994,-0.247215,2.08923,0
18540,-1.48678,-0.244523,2.08092,0
18560,-1.47632,-0.241684,2.07561,0
18580,-1.47081,-0.24006,2.07222,0
18600,-1.47058,-0.239341,2.07125,0
18620,-1.47503,-0.239832,2.07133,0
18640,-1.47999,-0.241838,2.07134,0
18660,-1.48352,-0.244704,2.07178,0
18680,-1.48567,-0.247768,2.07275,0
18700,-1.48892,-0.251298,2.07265,0
18720,-1.48863,-0.255062,2.06999,0
18740,-1.48544,-0.258734,2.06586,0
18760,-1.48416,-0.260897,2.06067,0
18780,-1.48169,-0.260828,2.05359,0
18800,-1.47436,-0.259804,2.04602,0
18820,-1.46668,-0.260282,2.03881,0
18840,-1.46108,-0.264187,2.02994,0
18860,-1.45541,-0.264904,2.02264,0
18880,-1.44637,-0.258669,2.01738,0
18900,-1.44116,-0.24807,2.009,0
18920,-1.43694,-0.241006,2.00043,0
18940,-1.43633,-0.235913,1.99299,0
18960,-1.43293,-0.229929,1.98695,0
18980,-1.42303,-0.224148,1.98145,0
19000,-1.40968,-0.216582,1.97573,0
19020,-1.39598,-0.207542,1.96934,0
19040,-1.38386,-0.197912,1.96108,0
19060,-1.37453,-0.184453,1.95152,0
19080,-1.36839,-0.165388,1.94177,0
19100,-1.36473,-0.141013,1.93206,0
19120,-1.35847,-0.112453,1.92267,0
19140,-1.3482,-0.0794051,1.91432,0
19160,-1.33779,-0.0438069,1.90839,0
19180,-1.32889,-0.0088306,1.90247,0
19200,-1.32229,0.0287551,1.89465,0
19220,-1.31831,0.0682777,1.88705,0
19240,-1.31759,0.109031,1.88145,0
19260,-1.31884,0.15196,1.8744,0
19280,-1.32311,0.199563,1.86353,0
19300,-1.3321,0.249504,1.85208,0
19320,-1.34907,0.297275,1.8418,0
19340,-1.36707,0.34431,1.83273,0
19360,-1.38116,0.393527,1.82459,0
19380,-1.39417,0.444735,1.81681,0
19400,-1.41144,0.496478,1.80911,0
19420,-1.44992,0.539002,1.80789,0
19440,-1.5109,0.537042,1.81831,0
19460,-1.55407,0.506263,1.8592,0
19480,-1.58222,0.500156,1.88509,0
19500,-1.58232,0.487613,1.88063,0
19520,-1.53053,0.485113,1.86747,0
19540,-1.44436,0.482449,1.85897,0
19560,-1.37145,0.482885,1.85004,0
19580,-1.34209,0.486913,1.83489,0
19600,-1.35375,0.497945,1.82335,0
19620,-1.39339,0.501128,1.81704,0
19640,-1.43758,0.500956,1.81454,0
19660,-1.46674,0.494491,1.8173,0
19680,-1.47879,0.486317,1.82017,0
19700,-1.47497,0.479915,1.82075,0
19720,-1.45796,0.477898,1.81952,0
19740,-1.43285,0.478937,1.81809,0
19760,-1.40889,0.480586,1.81707,0
19780,-1.39328,0.481918,1.8169,0
19800,-1.38887,0.482226,1.81688,0
19820,-1.3943,0.481921,1.81655,0
19840,-1.40447,0.480275,1.81662,0
19860,-1.41284,0.477994,1.81757,0
19880,-1.41518,0.475729,1.81917,0
19900,-1.41086,0.473544,1.8222,0
19920,-1.40166,0.471471,1.82536,0
19940,-1.39198,0.470886,1.82762,0
19960,-1.38549,0.470823,1.82886,0
19970,-1.38286,0.470428,1.82949,0
19990,-1.38415,0.469998,1.82943,0
20010,-1.38723,0.469636,1.82949,0
20030,-1.39004,0.469036,1.82956,0
20050,-1.3913,0.468593,1.8298,0
20070,-1.39082,0.467931,1.83042,0
20090,-1.38944,0.467571,1.83061,0
20110,-1.38825,0.467512,1.83043,0
20130,-1.38746,0.467505,1.83,0
20150,-1.3868,0.467162,1.83023,0
20170,-1.38642,0.46663,1.83115,0
20190,-1.38605,0.466342,1.83202,0
20210,-1.38617,0.466427,1.83287,0
20230,-1.38646,0.466247,1.83412,0
20250,-1.38695,0.465891,1.83609,0
20270,-1.38758,0.465744,1.83824,0
20290,-1.38959,0.466531,1.84071,0
20310,-1.39423,0.466506,1.84367,0
20330,-1.40259,0.466,1.84794,0
20350,-1.41186,0.46475,1.85371,0
20370,-1.41822,0.461734,1.86233,0
20390,-1.43048,0.455563,1.8747,0
20410,-1.42828,0.439154,1.88516,0
20430,-1.41795,0.419544,1.8914,0
20450,-1.40101,0.397133,1.90016,0
20470,-1.38937,0.370086,1.91597,0
20490,-1.38186,0.334782,1.93483,0
20510,-1.37638,0.28776,1.95852,0
20530,-1.36782,0.233804,1.98661,0
20550,-1.35408,0.175049,2.01623,0
20570,-1.33753,0.112976,2.04665,0
20590,-1.32121,0.0475556,2.07786,0
20590,-1.29456,-0.0902989,2.13586,0
20610,-1.28886,-0.158912,2.16253,0
20630,-1.29035,-0.224998,2.18699,0
20650,-1.29631,-0.285689,2.20812,0
20670,-1.30029,-0.339293,2.22483,0
20690,-1.30585,-0.385693,2.23746,0
20710,-1.31901,-0.424139,2.25015,0
20730,-1.32847,-0.451556,2.26256,0
20750,-1.3338,-0.469722,2.2749,0
20770,-1.33451,-0.480106,2.28569,0
20790,-1.33255,-0.484481,2.29334,0
20810,-1.32839,-0.485068,2.29959,0
20830,-1.32508,-0.485457,2.30589,0
20850,-1.32508,-0.487607,2.31134,0
20870,-1.32993,-0.490162,2.31503,0
20890,-1.33653,-0.49241,2.31779,0
20910,-1.34327,-0.49542,2.321,0
20930,-1.34885,-0.499682,2.32586,0
20950,-1.35292,-0.504106,2.33229,0
20970,-1.35422,-0.509266,2.34028,0
20990,-1.35485,-0.515621,2.34962,0
21010,-1.35648,-0.521354,2.35967,0
21030,-1.35953,-0.525728,2.36945,0
21050,-1.36605,-0.529146,2.38006,0
21070,-1.37457,-0.531457,2.3918,0
21090,-1.38325,-0.532105,2.40353,0
21110,-1.39186,-0.531472,2.41502,0
21130,-1.40017,-0.530589,2.42588,0
21150,-1.40761,-0.529351,2.43633,0
21170,-1.4134,-0.527818,2.44561,0
21190,-1.41909,-0.525959,2.4538,0
21210,-1.42395,-0.523826,2.46014,0
21230,-1.42744,-0.520785,2.46476,0
21250,-1.43412,-0.516691,2.46991,0
21270,-1.44088,-0.512166,2.47404,0
21290,-1.44643,-0.507087,2.47656,0
21310,-1.45039,-0.500818,2.47911,0
21330,-1.45163,-0.493726,2.48325,0
21350,-1.44986,-0.485103,2.48684,0
21360,-1.44644,-0.476466,2.48954,0
21380,-1.44622,-0.468916,2.49098,0
21400,-1.44837,-0.463359,2.49288,0
21420,-1.45254,-0.45909,2.49611,0
21440,-1.4569,-0.455075,2.49881,0
21460,-1.45764,-0.451717,2.50018,0
21480,-1.45593,-0.449065,2.50251,0
21500,-1.45448,-0.446657,2.50639,0
21520,-1.45356,-0.444427,2.51039,0
21540,-1.45065,-0.440372,2.5142,0
21560,-1.44728,-0.43695,2.51798,0
21580,-1.44651,-0.43665,2.5247,0
21600,-1.44974,-0.437577,2.53091,0
21620,-1.45235,-0.439962,2.53881,0
21640,-1.45351,-0.447448,2.55049,0
21660,-1.45646,-0.456313,2.56595,0
21680,-1.46341,-0.46536,2.58348,0
21700,-1.47098,-0.476407,2.60044,0
21720,-1.4808,-0.489013,2.6172,0
21740,-1.49071,-0.502129,2.63371,0
21760,-1.50003,-0.51528,2.65113,0
21780,-1.50915,-0.529418,2.66855,0
21800,-1.51646,-0.54389,2.68439,0
21820,-1.52114,-0.559341,2.69818,0
21840,-1.52599,-0.574827,2.71058,0
21860,-1.53545,-0.589256,2.71928,0
21880,-1.54323,-0.603029,2.72235,0
21900,-1.54548,-0.619035,2.72269,0
21920,-1.54877,-0.636652,2.72078,0
21940,-1.55376,-0.652073,2.71289,0
21960,-1.55177,-0.667259,2.6991,0
21980,-1.54527,-0.684738,2.68437,0
22000,-1.53852,-0.702857,2.6654,0
22020,-1.53133,-0.718457,2.63938,0
22040,-1.52325,-0.735179,2.61004,0
22060,-1.51195,-0.753299,2.58042,0
22080,-1.50092,-0.772386,2.54803,0
22100,-1.48802,-0.789905,2.51129,0
22120,-1.47634,-0.802914,2.47433,0
22140,-1.46678,-0.813814,2.43787,0
22160,-1.45014,-0.823087,2.39815,0
22180,-1.42632,-0.828999,2.35862,0
22200,-1.40424,-0.832501,2.32352,0
22220,-1.38385,-0.832235,2.2926,0
22240,-1.36479,-0.827128,2.27057,0
22260,-1.34866,-0.820995,2.25792,0
22280,-1.34471,-0.815002,2.2555,0
22300,-1.35016,-0.808859,2.26651,0
22320,-1.36173,-0.799925,2.29172,0
22340,-1.37739,-0.789463,2.32534,0
22360,-1.39264,-0.778637,2.36175,0
22380,-1.40935,-0.765417,2.3983,0
22400,-1.42998,-0.74983,2.43638,0
22420,-1.45302,-0.734804,2.47319,0
22440,-1.47322,-0.71853,2.50627,0
22460,-1.48862,-0.700196,2.53485,0
22480,-1.50016,-0.682524,2.55812,0
22500,-1.50793,-0.66552,2.57543,0
22520,-1.51252,-0.648819,2.58765,0
22540,-1.51673,-0.631241,2.5957,0
22560,-1.51896,-0.611571,2.59844,0
22580,-1.51379,-0.59067,2.59728,0
22600,-1.50678,-0.570872,2.59522,0
22620,-1.50006,-0.552734,2.59153,0
22640,-1.49302,-0.536348,2.58623,0
22660,-1.48605,-0.521721,2.58119,0
22680,-1.4783,-0.508557,2.57834,0
22700,-1.47087,-0.496558,2.57659,0
22720,-1.46662,-0.487214,2.5748,0
22740,-1.46457,-0.479801,2.57238,0
22760,-1.4637,-0.474554,2.57113,0
22780,-1.46479,-0.470781,2.57025,0
22800,-1.46516,-0.466724,2.56908,1000
22820,-1.46483,-0.462373,2.56788,0
22840,-1.46186,-0.458101,2.56739,0
22860,-1.45612,-0.454074,2.56608,0
22880,-1.45184,-0.451211,2.56338,0
22900,-1.44964,-0.448468,2.56032,0
22920,-1.44796,-0.445958,2.55783,0
22940,-1.44569,-0.443366,2.55639,0
22960,-1.4426,-0.440793,2.5575,0
22980,-1.44081,-0.439436,2.55973,0
23000,-1.4416,-0.440029,2.56149,0
23020,-1.44356,-0.441421,2.56389,0
23040,-1.44611,-0.443429,2.56883,0
23060,-1.4485,-0.446935,2.5759,0
23080,-1.44998,-0.451016,2.58222,0
23100,-1.44889,-0.455328,2.58833,0
23120,-1.4497,-0.461994,2.59594,0
23130,-1.45544,-0.468646,2.60357,0
23150,-1.46198,-0.473142,2.61179,0
23170,-1.46474,-0.477353,2.62055,0
23190,-1.46713,-0.483558,2.63072,0
23200,-1.48059,-0.502032,2.65063,0
23220,-1.48792,-0.514172,2.6604,0
23240,-1.49397,-0.527365,2.67236,0
23260,-1.50221,-0.541767,2.68552,0
23280,-1.51114,-0.557325,2.69607,0
23300,-1.51533,-0.572991,2.70424,0
23320,-1.51691,-0.588458,2.712,0
23340,-1.52114,-0.603549,2.72016,0
23360,-1.52915,-0.619421,2.72749,0
23380,-1.5332,-0.638036,2.7322,0
23400,-1.53463,-0.659517,2.73302,0
23420,-1.53815,-0.680607,2.72935,0
23440,-1.54498,-0.69985,2.72316,0
23460,-1.55103,-0.71935,2.71454,0
23480,-1.55052,-0.740089,2.70039,0
23500,-1.54395,-0.761552,2.67873,0
23520,-1.5357,-0.781851,2.65245,0
23540,-1.52943,-0.801518,2.62499,0
23560,-1.51837,-0.822768,2.59254,0
23580,-1.5002,-0.843474,2.55033,0
23600,-1.47904,-0.860473,2.50299,0
23620,-1.45439,-0.875268,2.45437,0
23640,-1.42598,-0.890056,2.40233,0
23660,-1.39614,-0.900763,2.34872,0
23680,-1.36655,-0.905275,2.29927,0
23700,-1.33945,-0.908262,2.25371,0
23720,-1.30921,-0.908875,2.20703,0
23740,-1.27846,-0.903082,2.16387,0
23760,-1.25236,-0.892487,2.13025,0
23780,-1.22754,-0.880824,2.10055,0
23800,-1.19994,-0.865964,2.07286,0
23820,-1.17554,-0.848657,2.05158,0
23840,-1.15437,-0.829788,2.03114,0
23860,-1.13342,-0.808407,2.00972,0
23880,-1.11858,-0.784974,1.99401,0
23900,-1.10906,-0.761121,1.98226,0
23920,-1.09697,-0.737168,1.97119,0
23940,-1.0869,-0.711502,1.96592,0
23960,-1.07931,-0.685523,1.96247,0
23980,-1.07127,-0.659262,1.9567,0
24000,-1.06806,-0.632136,1.95597,0
24020,-1.07349,-0.605647,1.96178,0
24040,-1.07248,-0.581793,1.96943,0
24060,-1.06767,-0.56084,1.97626,0
24080,-1.06511,-0.541124,1.98243,0
24100,-1.06643,-0.520235,1.9869,0
24120,-1.07239,-0.501317,1.99501,0
24140,-1.08089,-0.487705,2.00724,0
24160,-1.08854,-0.474279,2.02077,0
24180,-1.09777,-0.460881,2.03619,0
24200,-1.10918,-0.452153,2.05574,0
24220,-1.12336,-0.446785,2.07807,0
24240,-1.14192,-0.440902,2.10303,0
24260,-1.16379,-0.437211,2.13249,0
24280,-1.18647,-0.43644,2.16411,0
24300,-1.20989,-0.436621,2.19747,0
24320,-1.23606,-0.437534,2.2346,0
24340,-1.26679,-0.440438,2.27386,0
24360,-1.29913,-0.444744,2.31284,0
24380,-1.33209,-0.447528,2.35177,0
24400,-1.36321,-0.454386,2.39165,0
24420,-1.39725,-0.462781,2.43318,0
24440,-1.4295,-0.472387,2.47453,0
24460,-1.45694,-0.483667,2.51599,0
24480,-1.48327,-0.497796,2.55845,0
24500,-1.50676,-0.514914,2.59848,0
24520,-1.52952,-0.532841,2.63677,0
24540,-1.55464,-0.551137,2.67798,0
24560,-1.58038,-0.572102,2.72026,0
24580,-1.60128,-0.595322,2.75956,0
24600,-1.62193,-0.618522,2.7963,0
24620,-1.64503,-0.64075,2.83227,0
24640,-1.67158,-0.662027,2.86783,0
24660,-1.69683,-0.684256,2.90176,0
24680,-1.7226,-0.70807,2.93327,0
24700,-1.74653,-0.7299,2.95735,0
24720,-1.77132,-0.74747,2.97711,0
24740,-1.791,-0.766782,2.99262,0
24760,-1.80686,-0.787641,3.00286,0
24780,-1.82443,-0.805938,3.01019,0
24800,-1.8421,-0.822054,3.01419,0
24820,-1.85373,-0.839102,3.01144,0
24840,-1.85405,-0.85793,2.99852,0
24860,-1.84792,-0.877563,2.9787,0
24880,-1.8298,-0.917486,2.92558,0
24890,-1.78978,-0.958831,2.84582,0
24890,-1.757,-0.977085,2.79595,0
24910,-1.71459,-0.993125,2.73977,0
24930,-1.6638,-1.00446,2.67577,0
24940,-1.61001,-1.01311,2.60825,0
24970,-1.49019,-1.01959,2.46437,0
24980,-1.42614,-1.0152,2.39044,0
25000,-1.36542,-1.00623,2.31891,0
25020,-1.30628,-0.994225,2.25042,0
25040,-1.25179,-0.977639,2.18968,0
25060,-1.19886,-0.959981,2.13631,0
25080,-1.14853,-0.942078,2.08653,0
25100,-1.10831,-0.91688,2.04106,0
25120,-1.07502,-0.890291,2.00231,0
25140,-1.04881,-0.863278,1.97224,0
25160,-1.02453,-0.833987,1.94708,0
25180,-1.00257,-0.804352,1.92585,0
25200,-0.986156,-0.77646,1.91119,0
25220,-0.975125,-0.749527,1.90024,0
25240,-0.968795,-0.722086,1.89068,0
25260,-0.968991,-0.694747,1.88555,0
25280,-0.974925,-0.669106,1.88502,0
25300,-0.986752,-0.64581,1.88679,0
25320,-1.00442,-0.623296,1.89168,0
25340,-1.02362,-0.603736,1.90159,0
25360,-1.04437,-0.587975,1.91816,0
25380,-1.06673,-0.574434,1.93808,0
25400,-1.08943,-0.565047,1.96143,0
25420,-1.11898,-0.55785,1.98946,0
25440,-1.15426,-0.55041,2.02045,0
25460,-1.19269,-0.544761,2.05586,0
25480,-1.23038,-0.541471,2.09518,0
25500,-1.26905,-0.538366,2.13783,0
25520,-1.30899,-0.539253,2.18303,0
25540,-1.35549,-0.541062,2.23407,0
25560,-1.4063,-0.543988,2.28935,0
25580,-1.45633,-0.549943,2.34644,0
25600,-1.50408,-0.557407,2.40484,0
25620,-1.55296,-0.565623,2.46192,0
25640,-1.59828,-0.576404,2.51631,0
25650,-1.63721,-0.589524,2.56987,0
25680,-1.6726,-0.602989,2.62353,0
25700,-1.70478,-0.617022,2.67504,0
25720,-1.73089,-0.633635,2.72446,0
25740,-1.7488,-0.651839,2.77384,0
25760,-1.77368,-0.67126,2.82502,0
25780,-1.80001,-0.693548,2.86962,0
25800,-1.82705,-0.714016,2.90957,0
25820,-1.85689,-0.731331,2.95068,0
25840,-1.88798,-0.750311,2.99218,0
25860,-1.91736,-0.770982,3.03088,0
25880,-1.94675,-0.788788,3.06739,0
25900,-1.97553,-0.805823,3.10245,0
25920,-2.00447,-0.827442,3.1352,0
25940,-2.03192,-0.85037,-3.12048,0
25960,-2.05931,-0.87212,-3.09946,0
25980,-2.08217,-0.893851,-3.08472,0
26000,-2.09895,-0.917726,-3.07615,0
26020,-2.11291,-0.942539,-3.07047,0
26030,-2.1231,-0.968211,-3.06989,0
26050,-2.12028,-0.994891,-3.08161,0
26070,-2.10691,-1.02161,-3.10468,0
26090,-2.09425,-1.04813,-3.13194,0
26110,-2.07541,-1.07526,3.11821,0
26130,-2.0448,-1.10295,3.07512,0
26150,-2.00398,-1.13076,3.02271,0
26170,-1.95222,-1.15733,2.96064,0
26190,-1.88731,-1.18006,2.8862,0
26210,-1.81328,-1.20095,2.80164,0
26230,-1.7277,-1.21682,2.705,0
26250,-1.63096,-1.22596,2.59723,0
26270,-1.52735,-1.2289,2.48193,0
26290,-1.42475,-1.22529,2.36371,0
26310,-1.33034,-1.21192,2.25402,0
26330,-1.25189,-1.19252,2.16367,0
26350,-1.18988,-1.1661,2.08958,0
26370,-1.13359,-1.13461,2.02665,0
26390,-1.09517,-1.10249,1.98529,0
26410,-1.07279,-1.07119,1.95733,0
26430,-1.05716,-1.03657,1.93239,0
26450,-1.05219,-1.0011,1.91794,0
26470,-1.05381,-0.969976,1.91058,0
26490,-1.05599,-0.939138,1.90359,0
26510,-1.06157,-0.910214,1.90053,0
26530,-1.07507,-0.882003,1.90391,0
26550,-1.09107,-0.85592,1.91003,0
26570,-1.10425,-0.833235,1.9181,0
26590,-1.11882,-0.814581,1.93046,0
26610,-1.13504,-0.795533,1.94347,0
26630,-1.15172,-0.776908,1.95643,0
26650,-1.17248,-0.760289,1.97196,0
26670,-1.19984,-0.744633,1.99195,0
26690,-1.23116,-0.73038,2.01691,0
26710,-1.26403,-0.717301,2.04451,0
26730,-1.29532,-0.705866,2.07623,0
26750,-1.33134,-0.69715,2.11348,0
26770,-1.37045,-0.690239,2.15249,0
26790,-1.4097,-0.683856,2.19479,0
26810,-1.44909,-0.679889,2.24188,0
26830,-1.48558,-0.682548,2.28983,0
26850,-1.52141,-0.687335,2.33814,0
26870,-1.5568,-0.693966,2.38758,0
26890,-1.59192,-0.703117,2.4396,0
26910,-1.62321,-0.714139,2.49128,0
26930,-1.65059,-0.727023,2.54042,0
26950,-1.67925,-0.737288,2.59113,0
26970,-1.71085,-0.746928,2.64377,0
26990,-1.74258,-0.758581,2.69534,0
27010,-1.77024,-0.774043,2.74429,0
27030,-1.7957,-0.790735,2.78944,0
27050,-1.82269,-0.804366,2.832,0
27070,-1.85053,-0.815858,2.87096,0
27090,-1.87687,-0.829448,2.90866,0
27110,-1.90044,-0.843715,2.94408,0
27130,-1.91945,-0.857231,2.97775,0
27150,-1.93836,-0.872305,3.00808,0
27170,-1.95673,-0.887726,3.03433,0
27190,-1.97354,-0.90285,3.05805,0
27210,-1.98777,-0.9179,3.0792,0
27230,-2.00422,-0.932675,3.101,0
27250,-2.02332,-0.947237,3.12122,0
27270,-2.03992,-0.961421,3.13621,0
27300,-2.07203,-0.992685,-3.12244,0
27320,-2.08614,-1.00665,-3.11372,0
27340,-2.09455,-1.01906,-3.10829,0
27360,-2.09603,-1.02989,-3.10453,0
27380,-2.09178,-1.03998,-3.10434,0
27400,-2.08417,-1.05067,-3.10844,1001
27420,-2.07867,-1.06189,-3.11348,0
27440,-2.07598,-1.07238,-3.12055,0
27460,-2.06993,-1.07879,-3.13304,0
27480,-2.05965,-1.08198,3.13461,0
27500,-2.04989,-1.08311,3.12338,0
27520,-2.04061,-1.08322,3.11487,0
27540,-2.03264,-1.0832,3.10703,0
27560,-2.03001,-1.0837,3.10129,0
27580,-2.03536,-1.08599,3.0948,0
27600,-2.04728,-1.08661,3.09146,0
27620,-2.0565,-1.0799,3.08982,0
27640,-2.05466,-1.07027,3.07933,0
27660,-2.04497,-1.06029,3.06822,0
27680,-2.03872,-1.05248,3.05808,0
27700,-2.02932,-1.04213,3.04337,0
27720,-2.01669,-1.02408,3.02525,0
27740,-2.00183,-1.00054,3.00239,0
27760,-1.98008,-0.974919,2.97276,0
27780,-1.94841,-0.942702,2.93862,0
27800,-1.91422,-0.90309,2.90854,0
27820,-1.8877,-0.859266,2.8838,0
27840,-1.85794,-0.812921,2.85842,0
27860,-1.82179,-0.763049,2.83252,0
27880,-1.78889,-0.711378,2.81345,0
27900,-1.7616,-0.661237,2.79888,0
27920,-1.73687,-0.612889,2.78277,0
27940,-1.7157,-0.568038,2.76734,0
27960,-1.69544,-0.529716,2.75641,0
27980,-1.67307,-0.499318,2.7484,0
28000,-1.64898,-0.47313,2.74147,0
28020,-1.62693,-0.452233,2.73891,0
28040,-1.60776,-0.437076,2.73961,0
28060,-1.59218,-0.426344,2.74178,0
28080,-1.58239,-0.418509,2.74511,0
28100,-1.57708,-0.41385,2.74887,0
28120,-1.57406,-0.410865,2.75203,0
28140,-1.57218,-0.408922,2.75308,0
28160,-1.57309,-0.407066,2.75237,0
28180,-1.57379,-0.402934,2.75139,0
28200,-1.57114,-0.398783,2.75001,0
28220,-1.56534,-0.395458,2.74817,0
28240,-1.55846,-0.392345,2.74677,0
28260,-1.54848,-0.389042,2.74279,0
28280,-1.53691,-0.386641,2.73897,0
28300,-1.52995,-0.386361,2.73709,0
28320,-1.52735,-0.388466,2.73597,0
28340,-1.52511,-0.390926,2.73411,0
28360,-1.52306,-0.392781,2.73295,0
28380,-1.52213,-0.394378,2.73375,0
28400,-1.5212,-0.395762,2.73668,1000
28420,-1.51755,-0.397504,2.73998,0
28440,-1.51411,-0.39974,2.74403,0
28460,-1.51127,-0.401907,2.75016,0
28480,-1.50686,-0.405777,2.75627,0
28500,-1.50359,-0.408897,2.76268,0
28520,-1.50295,-0.411884,2.77014,0
28540,-1.50389,-0.415956,2.77954,0
28560,-1.50879,-0.421506,2.78981,0
28580,-1.51501,-0.428298,2.80121,0
28600,-1.51953,-0.436235,2.81621,0
28620,-1.52428,-0.446641,2.83314,0
28640,-1.53076,-0.459016,2.85117,0
28660,-1.53782,-0.472532,2.8689,0
28680,-1.54384,-0.487151,2.88761,0
28700,-1.55488,-0.502318,2.90852,0
28720,-1.56964,-0.516524,2.92724,0
28740,-1.58188,-0.530475,2.94184,0
28760,-1.59163,-0.542939,2.95499,0
28780,-1.6048,-0.552621,2.97108,0
28800,-1.61765,-0.559175,2.98714,0
28820,-1.62822,-0.56526,2.99886,0
28840,-1.63534,-0.572154,3.00858,0
28860,-1.64342,-0.581542,3.01652,0
28880,-1.65039,-0.591787,3.01889,0
28900,-1.65123,-0.604105,3.01462,0
28920,-1.65167,-0.619825,3.00862,0
28940,-1.6555,-0.637385,2.99987,0
28960,-1.65538,-0.653556,2.98319,0
28980,-1.64809,-0.669431,2.96052,0
29000,-1.63734,-0.687938,2.9355,0
29020,-1.62752,-0.709208,2.9075,0
29040,-1.61613,-0.732522,2.87255,0
29060,-1.6014,-0.755309,2.83214,0
29080,-1.58582,-0.776323,2.79101,0
29100,-1.56952,-0.798823,2.74898,0
29120,-1.54861,-0.820694,2.70115,0
29140,-1.52447,-0.837262,2.65032,0
29160,-1.49825,-0.850353,2.60048,0
29180,-1.47162,-0.862906,2.55174,0
29200,-1.44189,-0.871855,2.50121,0
29220,-1.40921,-0.875625,2.45149,0
29230,-1.37984,-0.878021,2.40619,0
29250,-1.35374,-0.879607,2.36395,0
29270,-1.32833,-0.877508,2.32379,0
29290,-1.30417,-0.871944,2.28722,0
29310,-1.28122,-0.864521,2.2525,0
29330,-1.25951,-0.854338,2.21868,0
29350,-1.23683,-0.839585,2.18862,0
29370,-1.2126,-0.823455,2.16377,0
29390,-1.18883,-0.80762,2.14012,0
29410,-1.16813,-0.790657,2.11792,0
29430,-1.14812,-0.770645,2.09855,0
29450,-1.12813,-0.750511,2.08194,0
29470,-1.10666,-0.731767,2.06401,0
29490,-1.08765,-0.711623,2.04887,0
29510,-1.07487,-0.69224,2.04047,0
29530,-1.06169,-0.67441,2.0335,0
29550,-1.04787,-0.656943,2.02851,0
29570,-1.03966,-0.639662,2.02589,0
29590,-1.03726,-0.623759,2.02629,0
29610,-1.03705,-0.607623,2.03039,0
29630,-1.03823,-0.592771,2.03782,0
29650,-1.04041,-0.578871,2.04901,0
29670,-1.04463,-0.565868,2.06221,0
29690,-1.05401,-0.555629,2.07759,0
29710,-1.06859,-0.547326,2.0974,0
29730,-1.08639,-0.541093,2.11947,0
29750,-1.10322,-0.534639,2.14307,0
29770,-1.12096,-0.529415,2.17078,0
29790,-1.14238,-0.526809,2.20083,0
29810,-1.16379,-0.524031,2.23006,0
29830,-1.18664,-0.52017,2.26099,0
29850,-1.21506,-0.51731,2.2954,0
29870,-1.24421,-0.514495,2.33055,0
29890,-1.27161,-0.512401,2.36659,0
29910,-1.29898,-0.511804,2.40427,0
29930,-1.32708,-0.510701,2.44305,0
29950,-1.35574,-0.509346,2.48265,0
29970,-1.38409,-0.509592,2.52262,0
29990,-1.41237,-0.510346,2.56375,0
30010,-1.44028,-0.513339,2.60515,0
30030,-1.47128,-0.516952,2.64714,0
30050,-1.50004,-0.521483,2.68891,0
30070,-1.52595,-0.527185,2.73078,0
30090,-1.5513,-0.534974,2.77304,0
30110,-1.57693,-0.544868,2.81418,0
30130,-1.60053,-0.554651,2.85405,0
30150,-1.62221,-0.56617,2.89431,0
30170,-1.64741,-0.579959,2.93438,0
30190,-1.67228,-0.594441,2.97162,0
30210,-1.69333,-0.608703,3.007,0
30230,-1.71263,-0.623067,3.04233,0
30250,-1.73446,-0.639662,3.07719,0
30270,-1.7576,-0.656831,3.10868,0
30290,-1.77955,-0.674163,3.13684,0
30310,-1.80315,-0.690998,-3.11844,0
30330,-1.82984,-0.709331,-3.09378,0
30350,-1.85366,-0.727285,-3.07573,0
30370,-1.87174,-0.745061,-3.06364,0
30390,-1.88683,-0.763334,-3.05498,0
30410,-1.89926,-0.781528,-3.05234,0
30430,-1.90344,-0.800687,-3.05614,0
30450,-1.90461,-0.822089,-3.06374,0
30470,-1.90594,-0.845522,-3.07819,0
30490,-1.90678,-0.868117,-3.10004,0
30510,-1.90414,-0.889618,-3.12562,0
30530,-1.9003,-0.911311,3.12557,0
30550,-1.89267,-0.931217,3.08651,0
30570,-1.87215,-0.948411,3.04076,0
30580,-1.83863,-0.964524,2.99113,0
30620,-1.41349,-1.03698,2.38841,0
30640,-1.35878,-1.02802,2.32821,0
30660,-1.31163,-1.01825,2.27701,0
30680,-1.27284,-1.00696,2.23053,0
30700,-1.2383,-0.99138,2.18646,0
30720,-1.20765,-0.974493,2.14557,0
30740,-1.18175,-0.955714,2.10649,0
30760,-1.16269,-0.932774,2.0738,0
30780,-1.15011,-0.907513,2.05009,0
30800,-1.13566,-0.882327,2.03076,0
30820,-1.12032,-0.858167,2.01619,0
30840,-1.10684,-0.836619,2.00233,0
30860,-1.0976,-0.81295,1.98983,0
30880,-1.09941,-0.789843,1.98329,0
30900,-1.11028,-0.767652,1.98405,0
30920,-1.1185,-0.746497,1.98769,0
30940,-1.12984,-0.729044,1.99754,0
30960,-1.14505,-0.714013,2.01399,0
30980,-1.16184,-0.704496,2.03367,0
31000,-1.17806,-0.69887,2.05574,0
31020,-1.19542,-0.694936,2.08132,0
31040,-1.21337,-0.693758,2.11073,0
31060,-1.22959,-0.693412,2.14123,0
31080,-1.24694,-0.692982,2.17466,0
31100,-1.27032,-0.692345,2.21285,0
31120,-1.29998,-0.691696,2.25304,0
31140,-1.33338,-0.691132,2.29273,0
31160,-1.36865,-0.688765,2.33294,0
31180,-1.40511,-0.685496,2.3757,0
31200,-1.44323,-0.68363,2.41991,0
31220,-1.47915,-0.682133,2.46586,0
31240,-1.51341,-0.681873,2.51229,0
31260,-1.55134,-0.678948,2.55982,0
31280,-1.58939,-0.67626,2.60502,0
31300,-1.62849,-0.673835,2.65085,0
31320,-1.66701,-0.674166,2.69691,0
31340,-1.70654,-0.67239,2.74325,0
31360,-1.74109,-0.671635,2.78546,0
31380,-1.76994,-0.671717,2.82565,0
31400,-1.79813,-0.67359,2.86616,0
31420,-1.82551,-0.678161,2.90472,0
31440,-1.84957,-0.684375,2.94036,0
31460,-1.87058,-0.692162,2.97507,0
31480,-1.89021,-0.703477,3.00951,0
31500,-1.90992,-0.718466,3.04314,0
31520,-1.92708,-0.736192,3.07115,0
31540,-1.94089,-0.754127,3.09465,0
31560,-1.95134,-0.772911,3.11665,0
31580,-1.96227,-0.794611,3.139,0
31590,-1.97455,-0.818922,-3.12383,0
31610,-1.98721,-0.84467,-3.10999,0
31630,-1.99633,-0.872,-3.10224,0
31650,-2.00381,-0.899845,-3.0979,0
31670,-2.00997,-0.926118,-3.09708,0
31690,-2.01415,-0.952785,-3.10241,0
31710,-2.01125,-0.980328,-3.11398,0
31730,-2.00207,-1.00754,-3.13272,0
31750,-1.99019,-1.03346,3.12642,0
31770,-1.96894,-1.06004,3.0934,0
31790,-1.93589,-1.08552,3.05101,0
31810,-1.89849,-1.10742,3.00296,0
31830,-1.86023,-1.12698,2.95175,0
31850,-1.80886,-1.14513,2.88991,0
31870,-1.74691,-1.16063,2.81916,0
31890,-1.67813,-1.1735,2.73958,0
31910,-1.60144,-1.18216,2.65117,0
31930,-1.51957,-1.18526,2.55873,0
31950,-1.44113,-1.18465,2.47103,0
31970,-1.36411,-1.17919,2.38762,0
31990,-1.28933,-1.16875,2.31017,0
32010,-1.22422,-1.15651,2.24382,0
32030,-1.16911,-1.14326,2.18488,0
32050,-1.12411,-1.12594,2.13019,0
32070,-1.08598,-1.10252,2.08401,0
32090,-1.05621,-1.07826,2.04756,0
32110,-1.03066,-1.05306,2.01375,0
32120,-1.00973,-1.02785,1.98492,0
32140,-0.995451,-0.999957,1.96045,0
32160,-0.995748,-0.971676,1.94373,0
32180,-1.00628,-0.94304,1.93298,0
32200,-1.02322,-0.910196,1.92853,0
32220,-1.04219,-0.880365,1.93133,0
32240,-1.06633,-0.855979,1.93609,0
32260,-1.09443,-0.833184,1.94054,0
32280,-1.12574,-0.813894,1.94984,0
32300,-1.16352,-0.797768,1.96812,0
32320,-1.20496,-0.782737,1.99263,0
32340,-1.24842,-0.771017,2.02092,0
32360,-1.29387,-0.762294,2.05602,0
32380,-1.34276,-0.755004,2.09667,0
32400,-1.39654,-0.746718,2.14024,0
32420,-1.45492,-0.738839,2.1866,0
32440,-1.51306,-0.73623,2.23881,0
32460,-1.56863,-0.734317,2.29444,0
32480,-1.62117,-0.732652,2.35148,0
32500,-1.67357,-0.731554,2.41127,0
32520,-1.72728,-0.73113,2.47422,0
32540,-1.77974,-0.732022,2.5372,0
32560,-1.82677,-0.734547,2.59759,0
32580,-1.87231,-0.73801,2.65558,0
32600,-1.91627,-0.741415,2.71204,0
32620,-1.95719,-0.744688,2.76788,0
32640,-1.99518,-0.746739,2.82239,0
32660,-2.02592,-0.749036,2.87163,0
32680,-2.05386,-0.749833,2.91804,0
32700,-2.07872,-0.750722,2.96332,0
32720,-2.10336,-0.752794,3.00874,0
32740,-2.12748,-0.760769,3.05596,0
32760,-2.15331,-0.774156,3.10151,0
32780,-2.17846,-0.788673,3.14078,0
32800,-2.20063,-0.804601,-3.10729,0
32820,-2.2202,-0.820391,-3.07261,0
32840,-2.23387,-0.835762,-3.04104,0
32860,-2.24062,-0.852312,-3.01447,0
32880,-2.24606,-0.870104,-2.98988,0
32900,-2.25667,-0.889947,-2.96827,0
32920,-2.26775,-0.910289,-2.95232,0
32940,-2.27861,-0.928214,-2.93998,0
32960,-2.29248,-0.944665,-2.93148,0
32980,-2.30139,-0.959322,-2.93017,0
33000,-2.3065,-0.97171,-2.93243,0
33020,-2.30837,-0.983073,-2.93535,0
33040,-2.30742,-0.991898,-2.93976,1001
33060,-2.30629,-0.998211,-2.94705,0
33080,-2.30257,-1.00311,-2.9583,0
33100,-2.29354,-1.00384,-2.97079,0
33120,-2.28457,-1.0017,-2.98159,0
33140,-2.27632,-0.999402,-2.9909,0
33160,-2.27001,-0.997113,-2.99804,0
33180,-2.26717,-0.994937,-3.00388,0
33200,-2.27018,-0.993803,-3.00654,0
33220,-2.28054,-0.994698,-3.00543,0
33240,-2.29104,-0.994775,-3.00534,0
33260,-2.29185,-0.991922,-3.01309,0
33280,-2.28518,-0.988547,-3.02784,0
33300,-2.27071,-0.981879,-3.04578,0
33320,-2.25007,-0.968574,-3.06507,0
33350,-2.19556,-0.935209,-3.11026,0
33380,-2.12742,-0.886976,3.11394,0
33400,-2.1,-0.854294,3.08179,0
33420,-2.06465,-0.818363,3.0447,0
33440,-2.01699,-0.777416,3.01032,0
33460,-1.9799,-0.732155,2.98685,0
33480,-1.94195,-0.690491,2.96244,0
33500,-1.90065,-0.649605,2.93313,0
33520,-1.86421,-0.612681,2.90895,0
33540,-1.83703,-0.587276,2.89249,0
33560,-1.81239,-0.564073,2.87531,0
33580,-1.7866,-0.541966,2.85954,0
33600,-1.76269,-0.526486,2.84971,0
33620,-1.74178,-0.515133,2.84254,0
33640,-1.72267,-0.503762,2.83377,0
33660,-1.71126,-0.49245,2.82599,0
33680,-1.70745,-0.482314,2.81944,0
33700,-1.70404,-0.471103,2.81175,0
33720,-1.69809,-0.457834,2.80527,0
33740,-1.68983,-0.446966,2.79998,0
33760,-1.67802,-0.438914,2.79347,0
33780,-1.6645,-0.432308,2.78676,0
33800,-1.65408,-0.427454,2.78137,0
33810,-1.64702,-0.425595,2.77531,0
33830,-1.64083,-0.424379,2.76958,0
33850,-1.63619,-0.421976,2.76562,0
33870,-1.62988,-0.419822,2.76322,0
33890,-1.62116,-0.420018,2.76005,0
33910,-1.61329,-0.422298,2.75624,0
33930,-1.60606,-0.426417,2.75199,0
33950,-1.60116,-0.431048,2.74827,0
33970,-1.59702,-0.435947,2.74406,0
33990,-1.59287,-0.440734,2.74011,1000
34010,-1.58719,-0.444365,2.73817,0
34040,-1.57091,-0.447326,2.73851,0
34060,-1.55901,-0.449315,2.74338,0
34080,-1.55952,-0.449608,2.74763,0
34100,-1.56359,-0.453985,2.75717,0
34120,-1.56778,-0.458334,2.76321,0
34140,-1.57113,-0.462735,2.76982,0
34160,-1.57318,-0.468166,2.77802,0
34180,-1.57355,-0.474413,2.78715,0
34200,-1.57328,-0.48131,2.79537,0
34220,-1.57404,-0.487842,2.80347,0
34240,-1.5771,-0.493506,2.81151,0
34260,-1.57973,-0.497542,2.8196,0
34280,-1.5808,-0.501658,2.82822,0
34300,-1.58119,-0.507569,2.83839,0
34320,-1.58141,-0.516346,2.85088,0
34340,-1.58542,-0.524537,2.86649,0
34360,-1.59198,-0.533583,2.88362,0
34380,-1.59465,-0.545592,2.9005,0
34400,-1.60104,-0.558932,2.91949,0
34420,-1.61227,-0.569837,2.93859,0
34440,-1.62226,-0.577116,2.95586,0
34460,-1.62686,-0.583642,2.97407,0
34480,-1.63191,-0.592588,2.9943,0
34500,-1.64114,-0.601974,3.01208,0
34530,-1.66132,-0.621433,3.03709,0
34550,-1.6685,-0.636029,3.04934,0
34570,-1.67525,-0.653021,3.05665,0
34590,-1.68034,-0.669889,3.05741,0
34610,-1.68482,-0.686604,3.05324,0
34630,-1.68504,-0.706615,3.04639,0
34650,-1.68646,-0.730557,3.03709,0
34670,-1.68691,-0.753039,3.02181,0
34690,-1.68528,-0.77152,3.00072,0
34710,-1.67977,-0.789261,2.9739,0
34730,-1.66963,-0.808457,2.94339,0
34750,-1.65617,-0.829172,2.90776,0
34770,-1.64204,-0.848839,2.8684,0
34790,-1.62981,-0.864268,2.82876,0
34810,-1.61282,-0.879044,2.78722,0
34830,-1.59049,-0.894379,2.74199,0
34850,-1.5658,-0.906863,2.69292,0
34870,-1.5375,-0.916123,2.64264,0
34890,-1.50638,-0.925745,2.59111,0
34910,-1.47564,-0.933694,2.53867,0
34930,-1.44453,-0.937202,2.48751,0
34950,-1.41267,-0.937553,2.43822,0
34970,-1.38098,-0.935927,2.39045,0
34990,-1.35073,-0.930021,2.34584,0
35010,-1.32354,-0.92161,2.30652,0
35030,-1.29722,-0.911232,2.27151,0
35050,-1.27369,-0.898241,2.24098,0
35070,-1.2529,-0.886363,2.21365,0
35090,-1.23353,-0.874688,2.18792,0
35110,-1.21612,-0.862363,2.16477,0
35130,-1.20358,-0.848512,2.14515,0
35150,-1.19547,-0.833451,2.1291,0
35170,-1.1863,-0.818511,2.11414,0
35190,-1.17471,-0.803827,2.10225,0
35210,-1.16383,-0.788878,2.09233,0
35220,-1.15641,-0.774627,2.08307,0
35240,-1.15189,-0.760607,2.07503,0
35260,-1.14835,-0.746036,2.07181,0
35280,-1.14636,-0.730462,2.07366,0
35300,-1.14721,-0.71418,2.08095,0
35320,-1.15655,-0.697307,2.09113,0
35340,-1.17234,-0.675604,2.09959,0
35360,-1.1916,-0.648793,2.10742,0
35380,-1.21106,-0.621022,2.11621,0
35400,-1.22693,-0.596457,2.12552,0
35420,-1.24115,-0.576096,2.1323,0
35440,-1.25645,-0.560826,2.13827,0
35460,-1.27539,-0.548832,2.14737,0
35480,-1.29491,-0.540161,2.16137,0
35500,-1.30949,-0.535191,2.17813,0
35520,-1.31731,-0.533603,2.19832,0
35540,-1.32381,-0.534468,2.22311,0
35560,-1.33308,-0.536483,2.25075,0
35580,-1.34363,-0.541504,2.27712,0
35600,-1.34871,-0.549226,2.30401,0
35620,-1.35424,-0.559158,2.33467,0
35640,-1.36432,-0.569325,2.36938,0
35660,-1.378,-0.578725,2.40475,0
35680,-1.39313,-0.585553,2.44195,0
35700,-1.41273,-0.589469,2.48215,0
35720,-1.43775,-0.591474,2.52389,0
35740,-1.46559,-0.593042,2.56455,0
35760,-1.49534,-0.59386,2.60566,0
35780,-1.52744,-0.592816,2.64886,0
35800,-1.55835,-0.59274,2.6916,0
35820,-1.58841,-0.590424,2.73406,0
35840,-1.6174,-0.587406,2.77565,0
35860,-1.64728,-0.584487,2.81723,0
35880,-1.67839,-0.582669,2.85765,0
35900,-1.70768,-0.582315,2.89597,0
35920,-1.7356,-0.583201,2.9328,0
35940,-1.76036,-0.585404,2.96899,0
35960,-1.78364,-0.589691,3.00381,0
35980,-1.80594,-0.595923,3.03559,0
36000,-1.82498,-0.602571,3.06446,0
36020,-1.84085,-0.608762,3.09188,0
36040,-1.8543,-0.616696,3.11809,0
36060,-1.86315,-0.627512,3.14116,0
36080,-1.87045,-0.640607,-3.12228,0
36100,-1.88158,-0.654007,-3.10248,0
36120,-1.89743,-0.669569,-3.08396,0
36140,-1.91375,-0.687938,-3.06954,0
36160,-1.93057,-0.706895,-3.06042,0
36180,-1.94693,-0.725548,-3.05602,0
36200,-1.95685,-0.743847,-3.05744,0
36220,-1.96229,-0.762489,-3.06313,0
36240,-1.96261,-0.781602,-3.07274,0
36260,-1.95719,-0.802498,-3.08749,0
36280,-1.94627,-0.824458,-3.10925,0
36300,-1.93692,-0.84426,-3.13349,0
36310,-1.92546,-0.86522,3.12277,0
36330,-1.90923,-0.889067,3.08915,0
36350,-1.89199,-0.913633,3.04903,0
36370,-1.87098,-0.936554,3.00483,0
36390,-1.84234,-0.958504,2.95575,0
36410,-1.80593,-0.980026,2.90192,0
36430,-1.76616,-0.998865,2.84413,0
36450,-1.72179,-1.01443,2.7834,0
36470,-1.67343,-1.02839,2.72024,0
36490,-1.6266,-1.04053,2.6576,0
36510,-1.58129,-1.04827,2.59499,0
36530,-1.53448,-1.04945,2.53151,0
36550,-1.48961,-1.04555,2.47134,0
36570,-1.44834,-1.03948,2.41612,0
36590,-1.40812,-1.0293,2.36766,0
36610,-1.37135,-1.01571,2.32623,0
36630,-1.33933,-1.00137,2.28676,0
36650,-1.30977,-0.985009,2.24867,0
36670,-1.28611,-0.967141,2.21937,0
36690,-1.27132,-0.949911,2.19738,0
36710,-1.25586,-0.931402,2.17319,0
36730,-1.23925,-0.911188,2.15025,0
36750,-1.22684,-0.892243,2.13161,0
36770,-1.21418,-0.876528,2.11212,0
36790,-1.19797,-0.85949,2.09228,0
36810,-1.18606,-0.840229,2.0731,0
36840,-1.17208,-0.7989,2.03807,0
36860,-1.16625,-0.777608,2.02754,0
36880,-1.15995,-0.757681,2.02049,0
36900,-1.15732,-0.740489,2.01652,0
36920,-1.15834,-0.725119,2.01569,0
36940,-1.16567,-0.710405,2.02024,0
36960,-1.17822,-0.697314,2.02937,0
36980,-1.19746,-0.686444,2.04307,0
37000,-1.21935,-0.676275,2.06211,0
37020,-1.24295,-0.666984,2.08551,0
37040,-1.26869,-0.658271,2.11211,0
37060,-1.29585,-0.650636,2.14104,0
37080,-1.3243,-0.643743,2.17315,0
37100,-1.35201,-0.637275,2.207,0
37120,-1.38005,-0.631026,2.24153,0
37140,-1.40605,-0.624489,2.27499,0
37160,-1.42812,-0.617537,2.30934,0
37180,-1.45087,-0.610101,2.34298,0
37200,-1.47171,-0.604147,2.37259,0
37220,-1.48891,-0.598512,2.40285,0
37240,-1.51078,-0.59364,2.43558,0
37260,-1.53234,-0.591816,2.46935,0
37280,-1.55015,-0.594315,2.50102,0
37300,-1.56263,-0.597364,2.53306,0
37320,-1.57765,-0.602087,2.56869,0
37340,-1.59717,-0.609912,2.60385,0
37360,-1.6176,-0.620488,2.64055,0
37380,-1.63989,-0.633683,2.68041,0
37400,-1.65914,-0.648643,2.71893,0
37420,-1.67505,-0.664752,2.75653,0
37440,-1.68899,-0.683477,2.79718,0
37460,-1.71013,-0.704763,2.83966,0
37480,-1.73262,-0.725842,2.88207,0
37500,-1.75409,-0.747788,2.92458,0
37520,-1.77632,-0.770875,2.96767,0
37540,-1.80504,-0.796967,3.01159,0
37560,-1.83907,-0.82189,3.05041,0
37580,-1.87107,-0.844122,3.08358,0
37600,-1.89946,-0.86766,3.11525,0
37620,-1.9273,-0.894434,-3.13772,0
37640,-1.9529,-0.919427,-3.1155,0
37660,-1.97123,-0.941134,-3.10352,0
37680,-1.98307,-0.962459,-3.09624,0
37700,-1.99473,-0.98582,-3.08855,0
37720,-2.00555,-1.0113,-3.08624,0
37740,-2.01034,-1.0366,-3.09512,0
37760,-2.00754,-1.0627,-3.11522,0
37780,-1.99746,-1.08949,3.13832,0
37800,-1.9785,-1.11509,3.10045,0
37820,-1.95111,-1.13898,3.05408,0
37840,-1.90942,-1.16238,2.99771,0
37860,-1.84776,-1.18192,2.92845,0
37880,-1.77436,-1.19794,2.85038,0
37900,-1.69554,-1.21121,2.76643,0
37920,-1.60765,-1.22059,2.67195,0
37940,-1.51105,-1.22248,2.57317,0
37960,-1.42412,-1.21697,2.48541,0
37980,-1.34706,-1.20641,2.40719,0
38000,-1.26851,-1.1884,2.32998,0
38020,-1.20475,-1.16465,2.26752,0
38040,-1.16494,-1.14224,2.22383,0
38060,-1.14264,-1.11815,2.19047,0
38080,-1.12645,-1.08813,2.16416,0
38100,-1.11811,-1.05916,2.14883,0
38120,-1.1191,-1.03558,2.14117,0
38140,-1.12348,-1.01216,2.1336,0
38160,-1.12999,-0.987029,2.12509,0
38170,-1.14668,-0.964967,2.12563,0
38200,-1.17281,-0.940551,2.13182,0
38220,-1.19632,-0.914716,2.13825,0
38240,-1.22123,-0.892106,2.14513,0
38250,-1.25461,-0.871447,2.15486,0
38270,-1.29534,-0.852775,2.16966,0
38290,-1.34202,-0.833715,2.19514,0
38310,-1.38491,-0.812711,2.22425,0
38330,-1.42443,-0.793336,2.25899,0
38350,-1.47149,-0.7767,2.30133,0
38370,-1.51866,-0.763666,2.34741,0
38390,-1.55835,-0.760311,2.39746,0
38410,-1.5951,-0.761532,2.45314,0
38430,-1.62738,-0.766164,2.51107,0
38450,-1.66053,-0.774492,2.57101,0
38470,-1.69261,-0.78625,2.63138,0
38490,-1.72047,-0.800595,2.6905,0
38510,-1.74616,-0.815211,2.74812,0
38530,-1.77742,-0.826804,2.80796,0
38550,-1.80714,-0.839951,2.86543,0
38570,-1.83835,-0.855064,2.92165,0
38590,-1.86932,-0.868286,2.97235,0
38610,-1.90056,-0.879069,3.0193,0
38630,-1.93183,-0.889081,3.0655,0
38650,-1.95997,-0.900552,3.11196,0
38670,-1.98047,-0.914517,-3.13059,0
38690,-1.99477,-0.928339,-3.10053,0
38710,-2.00782,-0.939436,-3.07738,0
38730,-2.02567,-0.951334,-3.05461,0
38750,-2.03973,-0.966017,-3.03491,0
38770,-2.04929,-0.980397,-3.02189,0
38790,-2.05435,-0.991186,-3.01224,0
38810,-2.06066,-1.00091,-3.00342,0
38830,-2.07135,-1.01225,-2.99455,0
38850,-2.08517,-1.02318,-2.98842,0
38870,-2.10216,-1.03148,-2.98359,0
38890,-2.12315,-1.03758,-2.98014,1001
38910,-2.14615,-1.04322,-2.98078,0
38930,-2.1667,-1.045,-2.98588,0
38950,-2.18107,-1.04335,-2.99203,0
38970,-2.18385,-1.03378,-2.99984,0
38990,-2.17101,-1.02282,-3.01584,0
39010,-2.14536,-1.01389,-3.03591,0
39030,-2.11942,-1.00722,-3.05658,0
39050,-2.09796,-1.00036,-3.078,0
39070,-2.08399,-0.992829,-3.10139,0
39090,-2.07341,-0.984518,-3.1295,0
39110,-2.05165,-0.972469,3.11357,0
39120,-2.01297,-0.953847,3.0649,0
39140,-1.97341,-0.928662,3.02546,0
39160,-1.93833,-0.905107,2.99043,0
39180,-1.8961,-0.877498,2.94943,0
39200,-1.84451,-0.844448,2.90574,0
39220,-1.80111,-0.809512,2.87441,0
39240,-1.76715,-0.776523,2.84784,0
39260,-1.7313,-0.74251,2.81651,0
39280,-1.69705,-0.70786,2.78995,0
39300,-1.67268,-0.674429,2.77258,0
39320,-1.64732,-0.641623,2.75444,0
39340,-1.6196,-0.609654,2.73717,0
39360,-1.59604,-0.583952,2.72517,0
39380,-1.5765,-0.56251,2.71638,0
39400,-1.56193,-0.542385,2.70994,0
39420,-1.55114,-0.525575,2.70592,0
39440,-1.54054,-0.513205,2.70327,0
39460,-1.52976,-0.502264,2.70312,0
39480,-1.52087,-0.491504,2.70796,0
39500,-1.51663,-0.483972,2.71676,0
39520,-1.51441,-0.479982,2.72704,0
39540,-1.51705,-0.477667,2.74002,0
39560,-1.52764,-0.475652,2.758,0
39580,-1.54602,-0.475754,2.77822,0
39600,-1.56521,-0.477968,2.79388,0
39620,-1.58381,-0.477619,2.80357,0
39640,-1.60335,-0.472935,2.81084,1000
39660,-1.62038,-0.468224,2.81631,0
39690,-1.63664,-0.462662,2.82753,0
39710,-1.63685,-0.461075,2.83531,0
39730,-1.63279,-0.459789,2.84211,0
39750,-1.62796,-0.461928,2.84862,0
39770,-1.626,-0.467098,2.85719,0
39790,-1.62694,-0.471669,2.86959,0
39810,-1.62584,-0.476071,2.88483,0
39830,-1.62261,-0.483426,2.90516,0
39850,-1.62736,-0.494786,2.92883,0
39870,-1.6398,-0.506099,2.95481,0
39890,-1.65483,-0.516757,2.98307,0
39910,-1.66843,-0.527894,3.01272,0
39940,-1.69444,-0.55221,3.0701,0
39960,-1.71079,-0.563955,3.09437,0
39980,-1.72889,-0.575054,3.11592,0
40000,-1.7455,-0.585624,3.13401,0
40020,-1.75939,-0.596969,-3.13612,0
40040,-1.76841,-0.60668,-3.12875,0
40060,-1.76932,-0.616343,-3.12709,0
40080,-1.76453,-0.629323,-3.13161,0
40100,-1.76132,-0.644713,-3.13984,0
40120,-1.76098,-0.662948,3.12984,0
40140,-1.75901,-0.682356,3.10805,0
40160,-1.75281,-0.701801,3.07896,0
40180,-1.74393,-0.722498,3.04693,0
40200,-1.73273,-0.743885,3.0132,0
40220,-1.71976,-0.765687,2.97556,0
40240,-1.70589,-0.7872,2.93264,0
40260,-1.6909,-0.804586,2.8848,0
40280,-1.67045,-0.819366,2.83237,0
40300,-1.64634,-0.835669,2.77571,0
40320,-1.61977,-0.850274,2.71204,0
40340,-1.58567,-0.858021,2.64046,0
40360,-1.5401,-0.860139,2.56362,0
40380,-1.49227,-0.860302,2.48793,0
40400,-1.44575,-0.855902,2.41432,0
40420,-1.39873,-0.843712,2.34725,0
40440,-1.35006,-0.828487,2.28815,0
40460,-1.30594,-0.812698,2.23355,0
40480,-1.26725,-0.794675,2.1829,0
40500,-1.23233,-0.775218,2.13901,0
40520,-1.19638,-0.75865,2.09838,0
40540,-1.16549,-0.743536,2.06323,0
40560,-1.13916,-0.726156,2.03276,0
40580,-1.11584,-0.704891,2.00767,0
40600,-1.0942,-0.683337,1.98884,0
40620,-1.07479,-0.66285,1.9727,0
40640,-1.0573,-0.64152,1.95913,0
40660,-1.04715,-0.619791,1.95122,0
40680,-1.04308,-0.598593,1.94969,0
40700,-1.03797,-0.577973,1.95284,0
40720,-1.03276,-0.55996,1.95877,0
40740,-1.03282,-0.544915,1.96836,0
40760,-1.04111,-0.531902,1.98206,0
40780,-1.05216,-0.519694,1.99949,0
40800,-1.06102,-0.511018,2.0203,0
40820,-1.06977,-0.506614,2.04307,0
40840,-1.07978,-0.50188,2.06581,0
40860,-1.0912,-0.498305,2.09014,0
40880,-1.10623,-0.497418,2.11849,0
40900,-1.12246,-0.497797,2.15012,0
40920,-1.14117,-0.498517,2.18492,0
40940,-1.16428,-0.500095,2.22384,0
40960,-1.19429,-0.501597,2.2658,0
40980,-1.22768,-0.505883,2.30933,0
41000,-1.26389,-0.510404,2.3559,0
41020,-1.30213,-0.515277,2.40399,0
41040,-1.34185,-0.519353,2.45326,0
41060,-1.38333,-0.52204,2.50401,0
41080,-1.42248,-0.525808,2.5554,0
41100,-1.46064,-0.530329,2.60775,0
41120,-1.49915,-0.534348,2.6609,0
41140,-1.53637,-0.539248,2.71379,0
41160,-1.57009,-0.546335,2.76675,0
41200,-1.67346,-0.577134,2.92473,0
41210,-1.70606,-0.590793,2.97621,0
41230,-1.73647,-0.607292,3.026,0
41250,-1.76787,-0.625813,3.07466,0
41270,-1.79904,-0.645657,3.12042,0
41290,-1.82793,-0.664536,-3.1204,0
41310,-1.85606,-0.684371,-3.08167,0
41330,-1.88235,-0.707216,-3.04887,0
41350,-1.90366,-0.731803,-3.02227,0
41370,-1.92435,-0.757751,-3.00255,0
41390,-1.94254,-0.783922,-2.99161,0
41400,-1.95452,-0.810966,-2.99185,0
41420,-1.96452,-0.83912,-2.99808,0
41440,-1.97095,-0.867167,-3.00908,0
41460,-1.97023,-0.895236,-3.03068,0
41480,-1.96142,-0.921919,-3.06581,0
41500,-1.93978,-0.945944,-3.1144,0
41520,-1.90668,-0.967014,3.11363,0
41540,-1.86541,-0.988301,3.05043,0
41560,-1.81689,-1.00808,2.97738,0
41580,-1.75968,-1.02261,2.90036,0
41600,-1.69807,-1.03507,2.82261,0
41620,-1.63607,-1.04711,2.74374,0
41640,-1.5756,-1.05503,2.66327,0
41660,-1.50921,-1.05661,2.58108,0
41680,-1.44245,-1.05407,2.50194,0
41700,-1.38089,-1.04757,2.42745,0
41720,-1.32311,-1.03973,2.36097,0
41740,-1.2686,-1.02683,2.30202,0
41760,-1.21901,-1.00896,2.25183,0
41780,-1.17724,-0.986985,2.20986,0
41800,-1.14681,-0.961216,2.17551,0
41820,-1.13425,-0.932626,2.15084,0
41840,-1.13546,-0.900917,2.12979,0
41860,-1.14382,-0.866125,2.11413,0
41880,-1.1536,-0.833068,2.10837,0
41900,-1.15944,-0.806443,2.10982,0
41920,-1.15388,-0.784945,2.11205,0
41940,-1.14075,-0.767466,2.11578,0
41960,-1.13276,-0.751648,2.12315,0
41980,-1.13893,-0.736968,2.13623,0
42000,-1.15564,-0.721749,2.15394,0
42020,-1.17629,-0.708381,2.17706,0
42040,-1.20416,-0.696769,2.20876,0
42060,-1.23784,-0.685912,2.24622,0
42080,-1.27087,-0.677423,2.28555,0
42100,-1.30568,-0.670354,2.33043,0
42120,-1.34728,-0.667098,2.37949,0
42140,-1.39722,-0.663657,2.43157,0
42170,-1.50476,-0.654983,2.54505,0
42190,-1.56074,-0.652036,2.60658,0
42210,-1.61067,-0.650554,2.66809,0
42230,-1.6495,-0.65114,2.72881,0
42250,-1.67965,-0.65514,2.78884,0
42270,-1.70459,-0.665745,2.84899,0
42290,-1.72783,-0.682553,2.91066,0
42310,-1.7564,-0.702794,2.97424,0
42330,-1.7929,-0.726185,3.03634,0
42350,-1.84228,-0.746077,3.0986,0
42370,-1.89066,-0.764812,-3.12623,0
42390,-1.93043,-0.787643,-3.07336,0
42410,-1.96569,-0.811282,-3.02529,0
42430,-2.00101,-0.830249,-2.98066,0
42450,-2.03142,-0.849275,-2.9428,0
42470,-2.05894,-0.868478,-2.91292,0
42490,-2.08539,-0.888904,-2.89012,0
42510,-2.11049,-0.913568,-2.87298,0
42530,-2.13278,-0.941129,-2.86106,0
42550,-2.15311,-0.968589,-2.85788,0
42570,-2.1718,-0.997904,-2.86686,0
42590,-2.17725,-1.03132,-2.8874,0
42610,-2.16642,-1.06414,-2.91742,0
42630,-2.1426,-1.09689,-2.95953,0
42650,-2.10366,-1.12989,-3.0157,0
42670,-2.04078,-1.15928,-3.08577,0
42690,-1.96519,-1.18817,3.11585,0
42710,-1.87707,-1.21613,3.01372,0
42730,-1.76343,-1.23841,2.88667,0
42750,-1.6302,-1.25245,2.74261,0
42770,-1.49677,-1.25811,2.5931,0
42790,-1.36447,-1.25204,2.44643,0
42810,-1.24004,-1.23508,2.32161,0
42830,-1.13599,-1.21145,2.22176,0
42850,-1.05861,-1.17959,2.14245,0
42870,-1.00183,-1.1395,2.08225,0
42890,-0.971738,-1.08782,2.04623,0
42910,-0.995493,-1.03153,2.03703,0
42930,-1.06595,-0.976775,2.05474,0
42950,-1.1518,-0.92839,2.08893,0
42970,-1.22364,-0.891996,2.12735,0
42990,-1.27584,-0.863406,2.16424,0
43010,-1.32263,-0.841565,2.20381,0
43030,-1.3645,-0.82618,2.24695,0
43050,-1.41226,-0.821491,2.30059,0
43070,-1.46604,-0.818887,2.36257,0
43090,-1.52432,-0.815066,2.42776,0
43110,-1.58589,-0.810162,2.49379,0
43130,-1.65008,-0.805448,2.55961,0
43150,-1.71448,-0.800574,2.62465,0
43170,-1.7765,-0.795541,2.688,0
43190,-1.83622,-0.791007,2.74813,0
43210,-1.89193,-0.787062,2.80478,0
43230,-1.93844,-0.784622,2.85855,0
43250,-1.97797,-0.778816,2.91059,0
43270,-2.01076,-0.774894,2.95854,0
43290,-2.04184,-0.77456,3.00219,0
43310,-2.0709,-0.778477,3.04005,0
43330,-2.09399,-0.784519,3.07189,0
43350,-2.11202,-0.791929,3.09939,0
43370,-2.1232,-0.801743,3.12148,0
43390,-2.12661,-0.812139,3.14095,0
43410,-2.1254,-0.824746,-3.1249,0
43430,-2.12042,-0.840446,-3.10911,0
43450,-2.12102,-0.859953,-3.09636,0
43470,-2.12188,-0.879951,-3.08943,0
43490,-2.11905,-0.897008,-3.08655,0
43510,-2.11194,-0.911547,-3.08639,0
43530,-2.10273,-0.925266,-3.08792,0
43550,-2.09497,-0.938441,-3.08854,0
43570,-2.09397,-0.950687,-3.08496,0
43590,-2.0942,-0.961899,-3.08433,0
43610,-2.0977,-0.97098,-3.08637,0
43630,-2.11031,-0.978622,-3.08559,0
43650,-2.12478,-0.987049,-3.08635,0
43670,-2.14049,-0.99311,-3.09137,0
43690,-2.16079,-0.993003,-3.09197,0
43710,-2.16946,-0.987355,-3.09769,0
43730,-2.1607,-0.980572,-3.11311,0
43750,-2.14376,-0.971365,-3.13038,0
43770,-2.13634,-0.963575,3.13938,0
43790,-2.12927,-0.956678,3.12128,0
43810,-2.11471,-0.946868,3.09824,0
43830,-2.09901,-0.93505,3.07783,0
43850,-2.08474,-0.925849,3.06071,0
43870,-2.06917,-0.920188,3.04546,0
43890,-2.05863,-0.918419,3.03592,0
43910,-2.05266,-0.920248,3.02761,0
43930,-2.04244,-0.920807,3.01658,0
43950,-2.03437,-0.922099,3.00837,0
43970,-2.0339,-0.925806,3.00812,0
43990,-2.0372,-0.931094,3.01201,0
44010,-2.04129,-0.935628,3.01699,0
44050,-2.09866,-0.962304,3.09281,0
44070,-2.11345,-0.965885,3.11232,0
44090,-2.13071,-0.969996,3.13191,0
44110,-2.14884,-0.974121,-3.13229,0
44130,-2.1672,-0.977491,-3.11453,0
44150,-2.1826,-0.979804,-3.10008,0
44160,-2.19612,-0.981533,-3.08903,1001
44190,-2.20543,-0.981902,-3.08025,0
44210,-2.21001,-0.980166,-3.07421,0
44230,-2.21035,-0.97718,-3.07097,0
44250,-2.21177,-0.97491,-3.06912,0
44270,-2.21582,-0.973109,-3.06742,0
44290,-2.22204,-0.970552,-3.06548,0
44310,-2.22741,-0.967647,-3.06538,0
44320,-2.22625,-0.96465,-3.07074,0
44340,-2.21769,-0.961029,-3.08066,0
44360,-2.20553,-0.957081,-3.09441,0
44380,-2.19073,-0.95122,-3.11403,0
44400,-2.1712,-0.943215,-3.14077,0
44420,-2.14542,-0.930678,3.10941,0
44440,-2.11686,-0.912304,3.07293,0
44460,-2.08704,-0.890435,3.03414,0
44480,-2.05585,-0.868362,2.99239,0
44500,-2.01566,-0.842036,2.94432,0
44520,-1.9774,-0.809519,2.89887,0
44540,-1.951,-0.775326,2.8592,0
44560,-1.92177,-0.740476,2.81731,0
44580,-1.88424,-0.70267,2.77525,0
44600,-1.84502,-0.66558,2.74015,0
44620,-1.80736,-0.630382,2.7117,0
44640,-1.77042,-0.595049,2.68835,0
44660,-1.73206,-0.564021,2.67218,0
44680,-1.70065,-0.539016,2.66479,0
44700,-1.67532,-0.516886,2.66078,0
44720,-1.65825,-0.496688,2.6613,0
44740,-1.64975,-0.481596,2.66533,0
44760,-1.64331,-0.471109,2.67226,0
44780,-1.63397,-0.464197,2.68224,0
44820,-1.61198,-0.459381,2.70695,0
44840,-1.60233,-0.459888,2.71851,0
44860,-1.59861,-0.459021,2.72939,0
44880,-1.60168,-0.456377,2.74139,0
44900,-1.60845,-0.453727,2.75369,0
44920,-1.61559,-0.450418,2.76532,0
44940,-1.6238,-0.447724,2.77803,0
44960,-1.62768,-0.446713,2.79026,0
44980,-1.62413,-0.448849,2.79836,0
45000,-1.61515,-0.453633,2.80389,0
45020,-1.60732,-0.461426,2.81025,0
45040,-1.60308,-0.470903,2.81728,0
45060,-1.60186,-0.480758,2.82415,0
45080,-1.6024,-0.491142,2.83343,0
45100,-1.60343,-0.500781,2.84598,0
45120,-1.60915,-0.508752,2.86082,0
45140,-1.61673,-0.514967,2.87495,0
45160,-1.62212,-0.518987,2.88794,0
45180,-1.62612,-0.521602,2.89989,0
45200,-1.63193,-0.521894,2.91295,0
45220,-1.63941,-0.52054,2.92454,0
45240,-1.64388,-0.517728,2.932,0
45260,-1.64277,-0.51746,2.93979,0
45280,-1.64541,-0.520645,2.95211,0
45300,-1.65422,-0.526114,2.96765,0
45320,-1.6671,-0.531878,2.9866,0
45340,-1.6823,-0.538088,3.00989,0
45360,-1.70085,-0.543674,3.03601,0
45380,-1.72059,-0.54976,3.06057,0
45400,-1.73831,-0.55692,3.08362,0
45420,-1.75104,-0.566074,3.10424,0
45440,-1.75915,-0.578022,3.12166,0
45460,-1.76676,-0.592674,3.13368,0
45480,-1.77153,-0.608321,3.13919,0
45500,-1.77785,-0.62704,-3.14136,0
45520,-1.78619,-0.64694,3.14071,0
45540,-1.79225,-0.668014,3.13463,0
45560,-1.79156,-0.69179,3.1213,0
45580,-1.7888,-0.717842,3.10414,0
45600,-1.78327,-0.743463,3.08122,0
45620,-1.77561,-0.771951,3.05292,0
45640,-1.76506,-0.805503,3.01878,0
45660,-1.74812,-0.839774,2.98034,0
45680,-1.72583,-0.875617,2.93758,0
45700,-1.69356,-0.908891,2.88573,0
45720,-1.65172,-0.940093,2.82626,0
45740,-1.60881,-0.967577,2.76589,0
45760,-1.566,-0.991081,2.70174,0
45780,-1.51736,-1.00676,2.62968,0
45800,-1.46079,-1.01333,2.552,0
45820,-1.40452,-1.01199,2.47784,0
45840,-1.35159,-1.00298,2.41164,0
45860,-1.30027,-0.987216,2.35038,0
45880,-1.25088,-0.965164,2.2947,0
45900,-1.20587,-0.942616,2.24462,0
45920,-1.17861,-0.91844,2.20823,0
45940,-1.17729,-0.893882,2.19636,0
45960,-1.19188,-0.865195,2.20497,0
45980,-1.20925,-0.837149,2.22713,0
46000,-1.22624,-0.815617,2.26109,0
46020,-1.25013,-0.798865,2.30626,0
46040,-1.28166,-0.786341,2.35738,0
46060,-1.31741,-0.776847,2.40924,0
46080,-1.35537,-0.764232,2.465,0
46100,-1.39233,-0.749737,2.5205,0
46120,-1.42313,-0.737443,2.56998,0
46140,-1.44675,-0.726806,2.61174,0
46160,-1.46528,-0.716677,2.64649,0
46180,-1.48336,-0.706509,2.67533,0
46200,-1.50158,-0.696318,2.70097,0
46220,-1.51552,-0.684349,2.7207,0
46240,-1.52403,-0.670888,2.73569,0
46260,-1.52836,-0.657154,2.74622,0
46280,-1.5298,-0.642982,2.75256,0
46300,-1.53388,-0.630394,2.75703,0
46320,-1.53942,-0.618465,2.76163,0
46340,-1.5435,-0.605642,2.76619,0
46360,-1.54654,-0.593487,2.77249,0
46380,-1.54987,-0.584756,2.77804,0
46400,-1.55385,-0.577664,2.78273,0
46420,-1.56164,-0.570911,2.78854,0
46440,-1.57128,-0.565204,2.79595,0
46460,-1.57958,-0.560848,2.80221,0
46480,-1.58593,-0.556501,2.80666,0
46500,-1.59232,-0.552042,2.81002,0
46520,-1.59723,-0.547646,2.81381,0
46540,-1.59897,-0.543498,2.8167,0
46560,-1.59611,-0.540366,2.8172,0
46580,-1.59373,-0.538241,2.81726,0
46600,-1.5951,-0.536263,2.81615,0
46620,-1.59739,-0.533807,2.81523,0
46640,-1.59963,-0.531038,2.81762,0
46660,-1.60149,-0.527064,2.8197,0
46680,-1.59949,-0.520783,2.82242,0
46700,-1.59632,-0.516806,2.82949,0
46720,-1.59674,-0.513869,2.84008,0
46740,-1.59758,-0.509558,2.84888,0
46760,-1.59668,-0.509744,2.86056,0
46780,-1.59657,-0.515609,2.88021,0
46800,-1.60294,-0.521371,2.90691,0
46820,-1.61526,-0.524908,2.93561,0
46840,-1.62839,-0.529844,2.96528,0
46860,-1.64173,-0.537728,2.99432,0
46890,-1.66272,-0.570449,3.06849,0
46910,-1.66811,-0.582285,3.08506,0
46930,-1.67288,-0.594031,3.09937,0
46950,-1.67825,-0.607078,3.10971,0
46970,-1.68353,-0.621227,3.11126,0
46990,-1.68646,-0.634728,3.10481,0
47010,-1.68597,-0.649719,3.09436,0
47030,-1.68023,-0.671497,3.0798,0
47050,-1.67363,-0.697516,3.05847,0
47070,-1.66487,-0.724083,3.03056,0
47090,-1.65774,-0.749476,3.00069,0
47110,-1.64796,-0.775701,2.96825,0
47130,-1.63471,-0.803853,2.93052,0
47150,-1.62075,-0.831304,2.88842,0
47170,-1.60491,-0.856262,2.84349,0
47190,-1.58714,-0.880684,2.8001,0
47210,-1.57153,-0.903891,2.75985,0
47230,-1.55562,-0.92652,2.71865,0
47250,-1.53364,-0.948119,2.67471,0
47270,-1.51236,-0.969091,2.63194,0
47290,-1.49546,-0.98654,2.59348,0
47300,-1.47941,-0.99665,2.56434,0
47320,-1.47519,-1.00309,2.56794,0
47350,-1.51583,-0.98425,2.62425,0
47370,-1.54334,-0.969334,2.66031,0
47390,-1.56711,-0.951153,2.69588,0
47410,-1.58426,-0.928152,2.72994,0
47430,-1.59812,-0.902163,2.7633,0
47450,-1.6061,-0.875156,2.79142,0
47460,-1.60793,-0.840344,2.81268,0
47480,-1.6074,-0.804199,2.82894,0
47500,-1.6049,-0.773395,2.84034,0
47520,-1.60061,-0.746251,2.84755,0
47540,-1.60093,-0.719631,2.85195,0
47560,-1.60503,-0.694903,2.85225,0
47580,-1.60518,-0.67008,2.84743,0
47600,-1.59774,-0.64474,2.84111,0
47620,-1.58914,-0.622879,2.8375,0
47640,-1.58497,-0.604601,2.83297,0
47660,-1.57969,-0.585558,2.82486,0
47680,-1.57055,-0.566033,2.81931,0
47700,-1.56054,-0.551096,2.82008,0
47720,-1.55105,-0.54187,2.82244,0
47740,-1.54687,-0.53527,2.82354,0
47760,-1.54539,-0.529347,2.82283,0
47780,-1.54486,-0.524101,2.82309,0
47800,-1.54922,-0.519142,2.82659,0
47820,-1.5566,-0.515515,2.82911,0
47840,-1.56109,-0.514201,2.827,0
47860,-1.56066,-0.513068,2.82414,1000
47880,-1.55577,-0.511584,2.82365,0
47900,-1.54969,-0.512619,2.82344,0
47920,-1.54461,-0.514273,2.82319,0
47940,-1.54092,-0.515527,2.82232,0
47960,-1.53951,-0.516395,2.82226,0
47980,-1.53898,-0.517271,2.82342,0
48000,-1.538,-0.517828,2.82403,0
48020,-1.53443,-0.517455,2.824,0
48040,-1.52977,-0.518322,2.82615,0
48060,-1.52831,-0.520564,2.82903,0
48080,-1.52931,-0.522937,2.83068,0
48100,-1.5329,-0.525011,2.83552,0
48120,-1.53686,-0.528198,2.84057,0
48140,-1.54679,-0.531735,2.8438,0
48160,-1.55491,-0.533647,2.84693,0
48180,-1.559,-0.535065,2.84962,0
48200,-1.55935,-0.533853,2.85203,0
48220,-1.55635,-0.531871,2.85247,0
48240,-1.55261,-0.531682,2.85253,0
48260,-1.5476,-0.533995,2.85467,0
48280,-1.54264,-0.537847,2.86069,0
48300,-1.54032,-0.542536,2.87081,0
48320,-1.5407,-0.54858,2.8819,0
48340,-1.5417,-0.556126,2.89437,0
48360,-1.54432,-0.564376,2.90984,0
48380,-1.55428,-0.57164,2.92826,0
48400,-1.56901,-0.576359,2.9472,0
48420,-1.58669,-0.578902,2.96487,0
48440,-1.60758,-0.57984,2.97956,0
48460,-1.63132,-0.57612,2.98883,0
48480,-1.65349,-0.566682,2.9929,0
48500,-1.66863,-0.555746,2.99317,0
48520,-1.67462,-0.548374,2.98948,0
48540,-1.67678,-0.543726,2.98435,0
48560,-1.67611,-0.541992,2.97898,0
48580,-1.67488,-0.545435,2.97342,0
48600,-1.67321,-0.552761,2.96603,0
48620,-1.6727,-0.562228,2.95592,0
48640,-1.67383,-0.57353,2.94491,0
48660,-1.67682,-0.586331,2.93227,0
48680,-1.6781,-0.600407,2.91599,0
48700,-1.67705,-0.615899,2.89838,0
48720,-1.6754,-0.632203,2.88052,0
48740,-1.67225,-0.649589,2.85999,0
48760,-1.6646,-0.66906,2.83479,0
48780,-1.65747,-0.689901,2.80778,0
48800,-1.64978,-0.712111,2.77772,0
48820,-1.63993,-0.736402,2.74554,0
48840,-1.62788,-0.761379,2.71119,0
48860,-1.6144,-0.784428,2.67536,0
48880,-1.59776,-0.80753,2.63743,0
48900,-1.57718,-0.830997,2.59722,0
48920,-1.55481,-0.85326,2.55432,0
48940,-1.53041,-0.872243,2.51036,0
48960,-1.50484,-0.887936,2.46421,0
48980,-1.47556,-0.89911,2.41497,0
49000,-1.44134,-0.905337,2.36713,0
49020,-1.4076,-0.909103,2.327,0
49040,-1.37745,-0.91182,2.29301,0
49060,-1.34983,-0.911476,2.25956,0
49080,-1.32224,-0.906072,2.22833,0
49100,-1.29717,-0.899335,2.20327,0
49120,-1.27599,-0.891402,2.18305,0
49140,-1.25749,-0.880248,2.16784,0
49160,-1.24124,-0.868318,2.15093,0
49180,-1.22803,-0.855298,2.12952,0
49200,-1.21818,-0.838869,2.11161,0
49220,-1.21707,-0.81797,2.10583,0
49240,-1.21873,-0.79613,2.10409,0
49260,-1.21545,-0.773547,2.09788,0
49280,-1.20598,-0.746062,2.09004,0
49300,-1.2019,-0.718124,2.08399,0
49320,-1.20524,-0.693142,2.07765,0
49340,-1.21011,-0.668316,2.07503,0
49360,-1.21678,-0.646728,2.08097,0
49380,-1.22543,-0.63084,2.08907,0
49380,-1.22677,-0.616827,2.09735,0
49400,-1.22962,-0.605042,2.11363,0
49420,-1.24318,-0.596424,2.13657,0
49440,-1.26081,-0.588454,2.16275,0
49460,-1.28103,-0.581177,2.19481,0
49480,-1.30872,-0.574777,2.23276,0
49500,-1.34393,-0.568757,2.27419,0
49520,-1.38359,-0.563241,2.31791,0
49540,-1.42396,-0.560668,2.36523,0
49560,-1.46837,-0.559126,2.41903,0
49580,-1.51735,-0.557191,2.47772,0
49600,-1.56691,-0.554393,2.53895,0
49620,-1.61792,-0.552866,2.60166,0
49640,-1.66917,-0.554588,2.66444,0
49660,-1.71246,-0.56065,2.7262,0
49690,-1.78158,-0.582901,2.84119,0
49710,-1.80747,-0.598279,2.89408,0
49730,-1.82984,-0.616272,2.94794,0
49750,-1.84873,-0.635092,3.00209,0
49790,-1.88645,-0.676361,3.09079,0
49810,-1.90076,-0.694119,3.12775,0
49830,-1.91802,-0.713507,-3.11837,0
49850,-1.93453,-0.74046,-3.08533,0
49870,-1.95338,-0.763342,-3.05551,0
49890,-1.97042,-0.78269,-3.02864,0
49910,-1.99044,-0.800234,-3.00399,0
49930,-2.01058,-0.819341,-2.98492,0
49950,-2.02962,-0.840214,-2.97323,0
49970,-2.04596,-0.860278,-2.96833,0
49990,-2.05865,-0.880193,-2.96945,0
50010,-2.06578,-0.901632,-2.97829,0
50030,-2.07349,-0.925989,-2.99354,0
50050,-2.07045,-0.951607,-3.01737,0
50070,-2.06058,-0.977224,-3.04971,0
50090,-2.05017,-1.00495,-3.08913,0
50110,-2.02542,-1.0274,3.14048,0
50130,-1.98478,-1.04518,3.07808,0
50150,-1.93891,-1.06263,3.01009,0
50170,-1.89023,-1.07929,2.93496,0
50190,-1.82986,-1.08923,2.85375,0
50210,-1.76937,-1.0944,2.77415,0
50230,-1.71152,-1.09948,2.69396,0
50250,-1.65014,-1.09921,2.61213,0
50270,-1.5865,-1.09612,2.5347,0
50290,-1.53268,-1.0933,2.4672,0
50310,-1.47759,-1.08905,2.39711,0
50330,-1.4179,-1.07845,2.32418,0
50350,-1.36862,-1.06257,2.262,0
50370,-1.33644,-1.04366,2.21536,0
50390,-1.31237,-1.01571,2.17823,0
50410,-1.29251,-0.978535,2.15433,0
50430,-1.27611,-0.940456,2.14415,0
50440,-1.25898,-0.907252,2.13331,0
50460,-1.24147,-0.877345,2.1154,0
50480,-1.23196,-0.850697,2.09947,0
50500,-1.23732,-0.827652,2.09242,0
50520,-1.24807,-0.805992,2.09251,0
50540,-1.25302,-0.785012,2.09802,0
50560,-1.25542,-0.767909,2.10923,0
50580,-1.26408,-0.754348,2.12551,0
50600,-1.27685,-0.741564,2.14374,0
50620,-1.29342,-0.730002,2.16562,0
50640,-1.31609,-0.720814,2.19291,0
50660,-1.33793,-0.712604,2.2216,0
50680,-1.35709,-0.705135,2.25181,0
50700,-1.37743,-0.698058,2.28867,0
50730,-1.44222,-0.685482,2.38348,0
50750,-1.48481,-0.681718,2.43452,0
50770,-1.54034,-0.67615,2.49054,0
50790,-1.60052,-0.670346,2.55015,0
50810,-1.66383,-0.664735,2.6113,0
50830,-1.7272,-0.660491,2.67102,0
50850,-1.7836,-0.658764,2.73038,0
50870,-1.83029,-0.660648,2.78974,0
50890,-1.87133,-0.66677,2.84803,0
50910,-1.90644,-0.677396,2.90481,0
50930,-1.93356,-0.688863,2.9595,0
50950,-1.95453,-0.705256,3.01219,0
50970,-1.97198,-0.729988,3.0626,0
50990,-1.9925,-0.758139,3.11175,0
51010,-2.01862,-0.78847,-3.12371,0
51030,-2.05126,-0.820693,-3.07958,0
51050,-2.0886,-0.852661,-3.03861,0
51070,-2.13038,-0.883589,-2.99795,0
51090,-2.16978,-0.912843,-2.95993,0
51110,-2.20372,-0.938595,-2.92641,0
51130,-2.23207,-0.964451,-2.902,0
51150,-2.25385,-0.991268,-2.88514,0
51170,-2.27333,-1.01797,-2.87041,0
51190,-2.28949,-1.04596,-2.86408,0
51210,-2.30145,-1.07545,-2.86809,0
51230,-2.30176,-1.10603,-2.88457,0
51250,-2.2914,-1.13575,-2.91182,0
51270,-2.27373,-1.1664,-2.95108,0
51290,-2.23059,-1.19301,-3.0128,0
51310,-2.16842,-1.2163,-3.08957,0
51330,-2.10111,-1.23645,3.10934,0
51350,-2.03274,-1.25455,3.01809,0
51370,-1.9409,-1.26609,2.90917,0
51390,-1.83083,-1.27202,2.79049,0
51410,-1.72265,-1.27469,2.67355,0
51430,-1.60825,-1.27067,2.55188,0
51450,-1.50465,-1.26037,2.44111,0
51470,-1.41758,-1.24457,2.33846,0
51490,-1.35131,-1.22316,2.24696,0
51510,-1.31888,-1.19372,2.19146,0
51530,-1.30036,-1.15735,2.15459,0
51550,-1.29335,-1.11717,2.1338,0
51570,-1.28036,-1.08197,2.10806,0
51590,-1.27874,-1.05047,2.09208,0
51610,-1.28795,-1.02066,2.08194,0
51630,-1.30336,-0.991819,2.0764,0
51650,-1.31771,-0.963663,2.07523,0
51670,-1.33529,-0.938153,2.07821,0
51690,-1.36973,-0.915475,2.08777,0
51710,-1.41186,-0.890434,2.10505,0
51730,-1.44734,-0.863941,2.12398,0
51750,-1.47432,-0.842186,2.14661,0
51760,-1.50432,-0.829484,2.17221,0
51780,-1.53628,-0.819928,2.20075,0
51800,-1.56683,-0.811579,2.23437,0
51820,-1.59577,-0.805534,2.27534,0
51840,-1.6229,-0.800918,2.32313,0
51860,-1.64816,-0.797624,2.37422,0
51880,-1.6756,-0.795049,2.42864,0
51900,-1.7042,-0.797372,2.48372,0
51920,-1.74403,-0.800634,2.54227,0
51940,-1.78859,-0.804402,2.60275,0
51960,-1.83325,-0.809624,2.66682,0
51980,-1.87893,-0.8145,2.73117,0
52000,-1.92587,-0.816885,2.79086,0
52020,-1.97146,-0.819562,2.84884,0
52040,-2.01291,-0.823072,2.90877,0
52060,-2.05299,-0.822823,2.97024,0
52080,-2.09043,-0.824781,3.02705,0
52100,-2.124,-0.83063,3.0781,0
52120,-2.15714,-0.837291,3.12497,0
52140,-2.18583,-0.842897,-3.1154,0
52160,-2.21177,-0.849326,-3.07427,0
52180,-2.23926,-0.858974,-3.03103,0
52200,-2.26676,-0.870977,-2.98808,0
52220,-2.29154,-0.883718,-2.9502,0
52240,-2.31419,-0.896057,-2.91998,0
52260,-2.3372,-0.907967,-2.8951,0
52280,-2.36098,-0.92006,-2.87092,0
52300,-2.38289,-0.932141,-2.85262,0
52320,-2.39892,-0.944819,-2.84342,0
52340,-2.40917,-0.957247,-2.83804,0
52360,-2.41595,-0.967976,-2.83435,0
52380,-2.41738,-0.975563,-2.83515,1001
52400,-2.41253,-0.981124,-2.83937,0
52420,-2.40853,-0.985862,-2.84157,0
52440,-2.40627,-0.991522,-2.84124,0
52460,-2.40678,-0.995934,-2.83776,0
52480,-2.4111,-0.999806,-2.83503,0
52500,-2.4132,-1.00344,-2.83634,0
52520,-2.41299,-1.00571,-2.83882,0
52540,-2.41711,-1.00674,-2.84007,0
52560,-2.42412,-1.00762,-2.84141,0
52580,-2.43087,-1.00688,-2.84391,0
52600,-2.44142,-1.00595,-2.84606,0
52620,-2.44411,-1.00523,-2.85731,0
52640,-2.437,-1.00051,-2.8753,0
52660,-2.41915,-0.991476,-2.90154,0
52680,-2.3839,-0.977722,-2.93675,0
52700,-2.34141,-0.961439,-2.97698,0
52720,-2.30372,-0.94583,-3.01814,0
52740,-2.26636,-0.92925,-3.06297,0
52760,-2.22329,-0.908321,-3.11404,0
52780,-2.18399,-0.883072,3.11825,0
52800,-2.14427,-0.855294,3.06727,0
52820,-2.09787,-0.824548,3.01608,0
52840,-2.04981,-0.790327,2.96877,0
52860,-2.00796,-0.755853,2.92841,0
52880,-1.96883,-0.71866,2.89199,0
52900,-1.92388,-0.679065,2.85698,0
52920,-1.88091,-0.640537,2.83014,0
52940,-1.85049,-0.606499,2.81095,0
52960,-1.81932,-0.580014,2.78998,0
52980,-1.78845,-0.556518,2.77283,0
53000,-1.76777,-0.537956,2.76369,0
53020,-1.74797,-0.522412,2.7558,0
53040,-1.72395,-0.506527,2.74695,0
53060,-1.70661,-0.492711,2.74367,0
53080,-1.69495,-0.4818,2.74403,0
53100,-1.6845,-0.470902,2.74371,0
53120,-1.67625,-0.459467,2.74365,0
53140,-1.67371,-0.450064,2.74658,0
53160,-1.67445,-0.44494,2.74987,0
53180,-1.67623,-0.440669,2.75132,0
53200,-1.67971,-0.434387,2.75208,0
53220,-1.68103,-0.428759,2.75357,0
53240,-1.67786,-0.425237,2.75342,0
53260,-1.67318,-0.4231,2.75241,0
53280,-1.67034,-0.421781,2.75157,0
53300,-1.66637,-0.421519,2.74929,0
53320,-1.66128,-0.422636,2.74598,0
53340,-1.65763,-0.425543,2.74307,0
53360,-1.65502,-0.430044,2.74089,0
53380,-1.6538,-0.434319,2.73846,1000
53400,-1.65312,-0.437209,2.73566,0
53420,-1.65141,-0.439184,2.73467,0
53440,-1.6485,-0.440852,2.73527,0
53460,-1.64639,-0.442506,2.7371,0
53480,-1.64432,-0.444628,2.73876,0
53500,-1.64243,-0.446433,2.74052,0
53520,-1.64213,-0.44769,2.74426,0
53570,-1.6525,-0.450027,2.76551,0
53600,-1.64953,-0.440003,2.79905,0
53620,-1.65433,-0.443929,2.81701,0
53630,-1.66871,-0.447658,2.83738,0
53650,-1.67985,-0.449161,2.86041,0
53670,-1.68684,-0.453976,2.88567,0
53690,-1.69634,-0.461384,2.91135,0
53710,-1.70887,-0.468392,2.93467,0
53730,-1.72096,-0.475668,2.9564,0
53750,-1.73074,-0.484185,2.9774,0
53770,-1.73883,-0.493501,2.99736,0
53790,-1.74663,-0.50429,3.01323,0
53810,-1.75142,-0.516241,3.0245,0
53830,-1.75445,-0.528605,3.03298,0
53850,-1.75695,-0.54216,3.03986,0
53870,-1.75732,-0.558154,3.04295,0
53890,-1.75692,-0.575465,3.04277,0
53910,-1.76009,-0.592478,3.04032,0
53930,-1.76313,-0.608186,3.03258,0
53950,-1.76185,-0.625845,3.01794,0
53970,-1.75555,-0.646622,2.99906,0
53990,-1.75138,-0.665629,2.97765,0
54010,-1.74752,-0.683798,2.95196,0
54030,-1.73833,-0.704814,2.92131,0
54050,-1.72563,-0.725995,2.88576,0
54070,-1.71197,-0.745737,2.84756,0
54090,-1.69583,-0.767621,2.80634,0
54110,-1.67842,-0.790558,2.76265,0
54130,-1.66099,-0.811813,2.71681,0
54150,-1.64376,-0.830726,2.67061,0
54170,-1.62159,-0.847862,2.62315,0
54190,-1.59431,-0.863706,2.57465,0
54210,-1.56573,-0.877119,2.52698,0
54230,-1.53921,-0.885763,2.48446,0
54250,-1.51852,-0.893705,2.44806,0
54270,-1.49799,-0.903497,2.41367,0
54290,-1.47722,-0.911852,2.37989,0
54310,-1.46071,-0.918181,2.3487,0
54330,-1.44768,-0.922504,2.3184,0
54350,-1.43413,-0.922333,2.28642,0
54370,-1.4167,-0.918277,2.25684,0
54380,-1.39616,-0.913472,2.23015,0
54400,-1.37275,-0.909204,2.20548,0
54420,-1.34275,-0.901625,2.17842,0
54430,-1.31061,-0.891667,2.15498,0
54450,-1.25445,-0.872963,2.10474,0
54470,-1.2342,-0.856849,2.08191,0
54490,-1.2195,-0.837372,2.06742,0
54510,-1.20163,-0.818901,2.0584,0
54530,-1.17987,-0.801588,2.05098,0
54550,-1.16341,-0.783565,2.04418,0
54570,-1.15486,-0.76456,2.03859,0
54600,-1.15265,-0.719569,2.04799,0
54620,-1.15331,-0.700057,2.05697,0
54640,-1.15288,-0.680878,2.06306,0
54660,-1.15629,-0.659484,2.07412,0
54680,-1.16909,-0.639258,2.0918,0
54700,-1.18279,-0.621226,2.10995,0
54720,-1.19583,-0.60346,2.12927,0
54740,-1.21618,-0.586858,2.15364,0
54760,-1.24307,-0.572331,2.18372,0
54780,-1.27103,-0.560234,2.21898,0
54800,-1.30224,-0.550211,2.25874,0
54820,-1.33889,-0.541927,2.3017,0
54840,-1.37565,-0.540059,2.34607,0
54860,-1.41328,-0.540087,2.39345,0
54880,-1.45245,-0.542807,2.44494,0
54900,-1.48952,-0.547662,2.49997,0
54920,-1.5225,-0.554612,2.55622,0
54940,-1.55302,-0.563886,2.61286,0
54960,-1.58349,-0.575518,2.67017,0
54980,-1.61453,-0.589697,2.72739,0
55010,-1.6721,-0.625296,2.83361,0
55050,-1.70938,-0.670682,2.9323,0
55070,-1.73102,-0.695683,2.98752,0
55090,-1.75898,-0.721266,3.0436,0
55110,-1.78238,-0.745142,3.09136,0
55130,-1.8018,-0.766299,3.13419,0
55150,-1.82962,-0.787528,-3.10363,0
55170,-1.86654,-0.807903,-3.06011,0
55190,-1.90085,-0.826032,-3.02782,0
55210,-1.92851,-0.840923,-3.00713,0
55230,-1.95015,-0.852121,-2.99328,0
55250,-1.96406,-0.861027,-2.9832,0
55270,-1.97288,-0.872709,-2.97904,0
55290,-1.98152,-0.888353,-2.98213,0
55310,-1.98952,-0.904875,-2.99133,0
55330,-2.00007,-0.923608,-3.00337,0
55350,-2.00853,-0.947229,-3.02448,0
55370,-2.00859,-0.970962,-3.05806,0
55390,-1.99552,-0.993538,-3.10089,0
55410,-1.97106,-1.01649,3.1333,0
55430,-1.93663,-1.03961,3.0748,0
55450,-1.89941,-1.05854,3.01182,0
55470,-1.85701,-1.07362,2.9449,0
55490,-1.80927,-1.08939,2.87371,0
55510,-1.75985,-1.10432,2.79898,0
55530,-1.71281,-1.11846,2.7257,0
55550,-1.66266,-1.12782,2.65325,0
55570,-1.609,-1.13485,2.57943,0
55590,-1.55195,-1.13827,2.5024,0
55610,-1.48992,-1.1365,2.42522,0
55630,-1.42745,-1.13024,2.35308,0
55650,-1.36929,-1.12296,2.28405,0
55670,-1.30883,-1.11171,2.21224,0
55690,-1.24741,-1.09509,2.14461,0
55710,-1.19234,-1.07567,2.08892,0
55730,-1.14813,-1.05636,2.04101,0
55750,-1.114,-1.03425,1.99665,0
55770,-1.08473,-1.00504,1.95827,0
55790,-1.06034,-0.976101,1.93575,0
55810,-1.03748,-0.953533,1.92138,0
55830,-1.0181,-0.932307,1.90548,0
55850,-1.00469,-0.905352,1.89055,0
55870,-0.999273,-0.877438,1.88393,0
55890,-0.999738,-0.853331,1.8828,0
55910,-1.00521,-0.82909,1.88599,0
55930,-1.01692,-0.803492,1.8956,0
55950,-1.02972,-0.781317,1.91135,0
55970,-1.04385,-0.761856,1.93134,0
55990,-1.0617,-0.744032,1.95401,0
56010,-1.09055,-0.728843,1.97991,0
56030,-1.12727,-0.715895,2.00985,0
56050,-1.16487,-0.704718,2.04517,0
56070,-1.20368,-0.698202,2.08749,0
56090,-1.23966,-0.695172,2.13153,0
56110,-1.27272,-0.692425,2.17778,0
56130,-1.3017,-0.696813,2.22604,0
56150,-1.32929,-0.707321,2.27817,0
56170,-1.35201,-0.721551,2.33133,0
56190,-1.3708,-0.736336,2.38698,0
56210,-1.39925,-0.750114,2.44807,0
56230,-1.44042,-0.762515,2.51193,0
56250,-1.4847,-0.772744,2.57525,0
56270,-1.52787,-0.780219,2.63894,0
56290,-1.57386,-0.785366,2.70208,0
56310,-1.62501,-0.788893,2.76317,0
56330,-1.67776,-0.792007,2.82327,0
56350,-1.72825,-0.795845,2.88269,0
56370,-1.77621,-0.800355,2.94178,0
56390,-1.82074,-0.805565,2.99839,0
56410,-1.86443,-0.807994,3.05325,0
56430,-1.90501,-0.813892,3.10354,0
56450,-1.94508,-0.822836,-3.1321,0
56470,-1.98587,-0.834162,-3.08806,0
56490,-2.02139,-0.846741,-3.04995,0
56510,-2.05076,-0.861135,-3.01833,0
56530,-2.0723,-0.876017,-2.99312,0
56550,-2.09172,-0.890006,-2.97209,0
56570,-2.11249,-0.906744,-2.95406,0
56580,-2.13322,-0.926353,-2.93965,0
56600,-2.15425,-0.94587,-2.93082,0
56620,-2.17548,-0.964928,-2.92964,0
56640,-2.19358,-0.984875,-2.938,0
56660,-2.19726,-1.00435,-2.95483,0
56680,-2.19179,-1.02274,-2.97803,0
56700,-2.18479,-1.04195,-3.00638,0
56720,-2.16695,-1.06463,-3.04325,0
56740,-2.14031,-1.08914,-3.08934,0
56760,-2.10778,-1.11368,-3.14065,0
56780,-2.06658,-1.13869,3.08201,0
56800,-2.01414,-1.16032,3.01068,0
56820,-1.95776,-1.18176,2.93345,0
56840,-1.89648,-1.20031,2.84889,0
56860,-1.82028,-1.2146,2.75315,0
56880,-1.73439,-1.22482,2.65183,0
56900,-1.6437,-1.23318,2.54776,0
56920,-1.55396,-1.23442,2.44757,0
56940,-1.46684,-1.22936,2.35111,0
56960,-1.38461,-1.21952,2.2617,0
56980,-1.31101,-1.20532,2.182,0
57000,-1.2508,-1.18632,2.11127,0
57020,-1.20555,-1.16337,2.05059,0
57040,-1.17139,-1.13598,2.00048,0
57060,-1.15213,-1.10368,1.96572,0
57080,-1.14709,-1.06927,1.94411,0
57100,-1.14981,-1.03761,1.93145,0
57120,-1.15185,-1.00481,1.91849,0
57140,-1.16126,-0.968601,1.90942,0
57160,-1.17857,-0.933678,1.90588,0
57180,-1.205,-0.905213,1.91257,0
57200,-1.23627,-0.879953,1.92059,0
57220,-1.26446,-0.857804,1.9299,0
57240,-1.29724,-0.843031,1.9478,0
57260,-1.33792,-0.834174,1.97384,0
57280,-1.37049,-0.82791,1.9999,0
57300,-1.39381,-0.821871,2.03158,0
57320,-1.41751,-0.816376,2.07267,0
57340,-1.44571,-0.811543,2.11608,0
57360,-1.47639,-0.805043,2.15792,0
57380,-1.51159,-0.796783,2.20173,0
57400,-1.55448,-0.787313,2.25008,0
57420,-1.60074,-0.776601,2.30192,0
57440,-1.6413,-0.772228,2.35411,0
57460,-1.67959,-0.768853,2.41101,0
57480,-1.71469,-0.768151,2.4714,0
57500,-1.75318,-0.770635,2.53473,0
57520,-1.79468,-0.775367,2.5989,0
57540,-1.83787,-0.782112,2.66302,0
57560,-1.88255,-0.789422,2.72862,0
57580,-1.9237,-0.798172,2.79548,0
57600,-1.95774,-0.809213,2.85781,0
57620,-1.99138,-0.816735,2.91798,0
57640,-2.02657,-0.822292,2.97638,0
57660,-2.06206,-0.831269,3.03284,0
57680,-2.09353,-0.844008,3.08602,0
57700,-2.12338,-0.856022,3.13108,0
57720,-2.14974,-0.866651,-3.11411,0
57740,-2.17318,-0.878648,-3.07821,0
57760,-2.1977,-0.895441,-3.04065,0
57780,-2.22018,-0.912575,-3.00904,0
57800,-2.23881,-0.928087,-2.98486,0
57820,-2.25539,-0.943853,-2.96542,0
57840,-2.27351,-0.95994,-2.94672,0
57860,-2.29335,-0.976068,-2.92964,0
57880,-2.30757,-0.991339,-2.91983,0
57900,-2.31767,-1.00461,-2.91736,1001
57920,-2.32929,-1.01379,-2.91499,0
57940,-2.33744,-1.0211,-2.91535,0
57960,-2.3364,-1.02514,-2.92152,0
57980,-2.32978,-1.02604,-2.92918,0
58000,-2.32369,-1.02621,-2.93825,0
58020,-2.3212,-1.02593,-2.94636,0
58040,-2.32974,-1.02528,-2.9512,0
58060,-2.34054,-1.02405,-2.95603,0
58080,-2.35035,-1.02112,-2.96241,0
58100,-2.35546,-1.01767,-2.97104,0
58120,-2.35393,-1.01324,-2.98146,0
58140,-2.34339,-1.00546,-2.99579,0
58160,-2.32929,-0.993926,-3.01157,0
58180,-2.31066,-0.981926,-3.0337,0
58200,-2.28566,-0.968521,-3.06387,0
58220,-2.25342,-0.949406,-3.09761,0
58240,-2.22732,-0.924787,-3.12866,0
58260,-2.19753,-0.899061,3.11997,0
58280,-2.16187,-0.868763,3.0829,0
58300,-2.12526,-0.833351,3.04911,0
58320,-2.09291,-0.796272,3.02137,0
58340,-2.05182,-0.758541,2.99112,0
58360,-2.01107,-0.718441,2.96092,0
58380,-1.98102,-0.679567,2.93565,0
58390,-1.95245,-0.644468,2.91222,0
58410,-1.91972,-0.610316,2.88902,0
58430,-1.89418,-0.582474,2.87174,0
58450,-1.8713,-0.561549,2.85775,0
58470,-1.84209,-0.543524,2.84257,0
58490,-1.81502,-0.528184,2.8307,0
58520,-1.7809,-0.508718,2.81151,0
58530,-1.76609,-0.499392,2.801,0
58550,-1.75476,-0.489984,2.79548,0
58570,-1.74497,-0.481947,2.79183,0
58590,-1.73457,-0.474593,2.78656,0
58610,-1.72578,-0.467795,2.78071,0
58640,-1.71255,-0.457463,2.77461,0
58660,-1.70361,-0.453811,2.77183,1000
58680,-1.69387,-0.452233,2.76825,0
58700,-1.68633,-0.452201,2.76321,0
58720,-1.68198,-0.4519,2.75737,0
58740,-1.67915,-0.452473,2.75294,0
58760,-1.67676,-0.453185,2.75068,0
58780,-1.67235,-0.453751,2.75031,0
58820,-1.69714,-0.443413,2.8338,0
58840,-1.72185,-0.450765,2.89199,0
58860,-1.73601,-0.457471,2.92176,0
58880,-1.74784,-0.463905,2.94957,0
58900,-1.75829,-0.472759,2.97645,0
58920,-1.76618,-0.485106,3.00026,0
58940,-1.77117,-0.499864,3.01985,0
58960,-1.775,-0.516506,3.0336,0
58980,-1.77829,-0.531322,3.04201,0
59000,-1.78367,-0.546575,3.04694,0
59020,-1.78757,-0.565866,3.0466,0
59040,-1.78943,-0.586552,3.04004,0
59060,-1.78926,-0.606905,3.02757,0
59080,-1.79019,-0.627854,3.01081,0
59100,-1.78927,-0.650276,2.98985,0
59120,-1.78555,-0.675905,2.96329,0
59140,-1.78105,-0.701817,2.93347,0
59160,-1.77756,-0.725633,2.90083,0
59180,-1.77414,-0.750081,2.86699,0
59200,-1.76771,-0.77708,2.82843,0
59220,-1.75824,-0.801384,2.78487,0
59240,-1.74459,-0.820743,2.74164,0
59260,-1.72984,-0.838485,2.70014,0
59280,-1.71313,-0.856476,2.65729,0
59300,-1.68971,-0.871082,2.60787,0
59320,-1.66394,-0.880387,2.5576,0
59340,-1.64007,-0.885793,2.50835,0
59360,-1.6138,-0.889227,2.45673,0
59380,-1.57933,-0.888891,2.40389,0
59400,-1.54207,-0.886347,2.35534,0
59420,-1.50791,-0.883522,2.31099,0
59440,-1.47112,-0.878019,2.26451,0
59460,-1.43255,-0.867945,2.2179,0
59480,-1.39557,-0.855881,2.17434,0
59500,-1.36078,-0.84209,2.1349,0
59520,-1.32954,-0.826757,2.10038,0
59540,-1.30367,-0.811706,2.06807,0
59560,-1.28368,-0.793107,2.03927,0
59580,-1.26535,-0.770999,2.01847,0
59600,-1.2467,-0.750339,2.00605,0
59620,-1.22939,-0.732187,2.00041,0
59630,-1.21375,-0.715657,1.9969,0
59650,-1.19216,-0.696934,1.98985,0
59670,-1.17136,-0.676796,1.98691,0
59690,-1.15666,-0.659325,1.98849,0
59710,-1.15207,-0.641144,1.99306,0
59730,-1.15776,-0.620647,2.00425,0
59750,-1.171,-0.601301,2.02315,0
59770,-1.18747,-0.585321,2.04842,0
59790,-1.20494,-0.572777,2.07841,0
59810,-1.22758,-0.564569,2.11473,0
59830,-1.25535,-0.559878,2.15555,0
59850,-1.28549,-0.561157,2.20003,0
59870,-1.31914,-0.562015,2.24671,0
59890,-1.35392,-0.563425,2.29517,0
59910,-1.38705,-0.566327,2.34666,0
59930,-1.42093,-0.57099,2.40209,0
59950,-1.45694,-0.577419,2.46018,0
59970,-1.49649,-0.58524,2.51969,0
59990,-1.53653,-0.595116,2.57813,0
60010,-1.57581,-0.608044,2.63827,0
60030,-1.61718,-0.623486,2.70164,0
60050,-1.65803,-0.639243,2.76654,0
60070,-1.69093,-0.657071,2.82854,0
60090,-1.7161,-0.67683,2.88656,0
60110,-1.74021,-0.695869,2.94418,0
60130,-1.76819,-0.714681,3.00024,0
60150,-1.80212,-0.733133,3.05633,0
60170,-1.83973,-0.750759,3.10841,0
60190,-1.87938,-0.766254,-3.12687,0
60210,-1.9165,-0.782317,-3.08446,0
60230,-1.94983,-0.799171,-3.04748,0
60250,-1.98003,-0.816534,-3.01695,0
60270,-2.00505,-0.835657,-2.99268,0
60290,-2.0245,-0.85772,-2.97603,0
60310,-2.03885,-0.882033,-2.96946,0
60330,-2.05283,-0.907628,-2.97113,0
60350,-2.06165,-0.933261,-2.98003,0
60370,-2.06261,-0.959733,-2.99865,0
60390,-2.05697,-0.988143,-3.03031,0
60400,-2.03795,-1.01592,-3.07819,0
60420,-2.00245,-1.04076,-3.13778,0
60440,-1.95218,-1.06446,3.07292,0
60460,-1.89532,-1.08721,2.98779,0
60480,-1.82282,-1.1039,2.88672,0
60500,-1.7272,-1.10897,2.77004,0
60520,-1.61848,-1.10599,2.64776,0
60540,-1.51448,-1.09961,2.52449,0
60560,-1.41626,-1.08971,2.40389,0
60580,-1.33433,-1.07173,2.30713,0
60600,-1.27749,-1.05145,2.23444,0
60620,-1.23397,-1.02663,2.17341,0
60630,-1.19639,-0.995872,2.12074,0
60650,-1.12503,-0.939906,2.04331,0
60670,-1.10235,-0.909422,2.0216,0
60690,-1.08753,-0.878192,2.0012,0
60710,-1.07759,-0.843641,1.98655,0
60730,-1.07253,-0.809687,1.98582,0
60750,-1.07576,-0.778457,1.99025,0
60770,-1.0839,-0.747284,1.99312,0
60790,-1.09838,-0.715514,2.0001,0
60810,-1.11855,-0.68516,2.01576,0
60830,-1.14137,-0.660726,2.03403,0
60850,-1.17098,-0.641158,2.05535,0
60870,-1.20823,-0.624961,2.085,0
60890,-1.24929,-0.613182,2.1232,0
60910,-1.28504,-0.607362,2.16619,0
60930,-1.31406,-0.611832,2.21407,0
60950,-1.34818,-0.61832,2.26904,0
60970,-1.39197,-0.627405,2.33006,0
60990,-1.44725,-0.638568,2.3973,0
61010,-1.50699,-0.650267,2.46856,0
61030,-1.56878,-0.662446,2.5426,0
61050,-1.6347,-0.674228,2.61857,0
61070,-1.69724,-0.685541,2.69394,0
61090,-1.75161,-0.698825,2.76481,0
61110,-1.79767,-0.712567,2.83053,0
61130,-1.83797,-0.72612,2.89574,0
61150,-1.87432,-0.744978,2.95639,0
61170,-1.92061,-0.76111,3.01496,0
61190,-1.96943,-0.777541,3.07193,0
61210,-2.01311,-0.799709,3.12329,0
61230,-2.05896,-0.822116,-3.1155,0
61250,-2.09289,-0.841374,-3.08496,0
61290,-2.14827,-0.886171,-3.02963,0
61310,-2.17481,-0.915975,-3.00456,0
61330,-2.20108,-0.945197,-2.98942,0
61350,-2.21924,-0.974813,-2.98467,0
61370,-2.22567,-1.0072,-2.98844,0
61390,-2.22604,-1.04262,-3.00058,0
61410,-2.22366,-1.08123,-3.02647,0
61430,-2.19452,-1.11723,-3.07708,0
61450,-2.1427,-1.152,3.14025,0
61470,-2.08351,-1.18527,3.07087,0
61490,-2.01548,-1.21243,2.99319,0
61510,-1.91685,-1.22991,2.89359,0
61530,-1.79645,-1.24009,2.77467,0
61550,-1.67935,-1.24375,2.65366,0
61570,-1.57406,-1.24227,2.54244,0
61590,-1.47233,-1.23175,2.44072,0
61610,-1.37846,-1.21739,2.3515,0
61630,-1.30173,-1.19955,2.27557,0
61650,-1.23667,-1.17631,2.2025,0
61670,-1.17432,-1.14835,2.13095,0
61690,-1.126,-1.11544,2.07484,0
61710,-1.0882,-1.07772,2.03086,0
61730,-1.06518,-1.03441,1.9902,0
61750,-1.0587,-0.985848,1.95806,0
61770,-1.0644,-0.941504,1.95005,0
61790,-1.06356,-0.901426,1.94885,0
61810,-1.06788,-0.871528,1.94492,0
61830,-1.0862,-0.845488,1.94317,0
61850,-1.12272,-0.823301,1.95473,0
61870,-1.17096,-0.80598,1.97569,0
61890,-1.21724,-0.792382,1.9975,0
61910,-1.26436,-0.78207,2.02871,0
61930,-1.31491,-0.775749,2.07084,0
61950,-1.36591,-0.771609,2.11611,0
61970,-1.41972,-0.767497,2.16271,0
61990,-1.46965,-0.769401,2.21358,0
62010,-1.52109,-0.774427,2.2749,0
62030,-1.57477,-0.781729,2.3432,0
62050,-1.62321,-0.789881,2.41338,0
62070,-1.66659,-0.799398,2.48309,0
62090,-1.71635,-0.809206,2.55367,0
62110,-1.77653,-0.819145,2.62583,0
62130,-1.83617,-0.829589,2.69602,0
62150,-1.88819,-0.838627,2.76085,0
62170,-1.94031,-0.840168,2.82426,0
62190,-1.9831,-0.84447,2.88565,0
62210,-2.0187,-0.850736,2.95003,0
62230,-2.05628,-0.857929,3.01315,0
62250,-2.09445,-0.861592,3.06859,0
62270,-2.13387,-0.864106,3.12283,0
62290,-2.1738,-0.869794,-3.10447,0
62310,-2.20851,-0.878999,-3.05483,0
62330,-2.23639,-0.889306,-3.02114,0
62350,-2.258,-0.898412,-2.9985,0
62370,-2.27042,-0.907215,-2.97864,0
62390,-2.27795,-0.91886,-2.95687,0
62410,-2.28343,-0.933612,-2.94199,0
62430,-2.285,-0.949168,-2.94289,0
62450,-2.28325,-0.964678,-2.95334,0
62470,-2.28719,-0.979397,-2.96331,0
62490,-2.29072,-0.990552,-2.97358,0
62510,-2.28533,-0.998508,-2.98852,0
62530,-2.27128,-1.00485,-3.00513,1001
62550,-2.25672,-1.01051,-3.01894,0
62570,-2.24563,-1.01509,-3.03121,0
62590,-2.24209,-1.01919,-3.04084,0
62610,-2.24926,-1.02263,-3.04369,0
62620,-2.26918,-1.02736,-3.03666,0
62650,-2.31214,-1.03205,-3.03836,0
62670,-2.31406,-1.0244,-3.04188,0
62690,-2.30139,-1.01513,-3.0562,0
62710,-2.28596,-1.00622,-3.07478,0
62730,-2.26804,-0.99501,-3.09524,0
62750,-2.24777,-0.982467,-3.11764,0
62770,-2.22363,-0.967716,3.14041,0
62790,-2.20092,-0.950833,3.11569,0
62810,-2.1775,-0.933539,3.08946,0
62830,-2.14354,-0.913261,3.05528,0
62850,-2.10203,-0.885011,3.01672,0
62870,-2.06906,-0.853183,2.979,0
62890,-2.04031,-0.818227,2.94034,0
62910,-2.00775,-0.778095,2.90136,0
62930,-1.97515,-0.737149,2.8685,0
62950,-1.94484,-0.698342,2.84066,0
62960,-1.91255,-0.660405,2.81263,0
62980,-1.88428,-0.627963,2.79008,0
63000,-1.85976,-0.60649,2.7736,0
63020,-1.8384,-0.587961,2.76042,0
63040,-1.82121,-0.571826,2.75013,0
63060,-1.80284,-0.561346,2.74154,0
63080,-1.78246,-0.55331,2.7348,0
63100,-1.76369,-0.544872,2.73201,0
63120,-1.75054,-0.538028,2.73168,0
63140,-1.74058,-0.531294,2.73011,0
63160,-1.73404,-0.521433,2.72921,0
63180,-1.73285,-0.508229,2.73125,0
63220,-1.7251,-0.471181,2.74465,0
63240,-1.72544,-0.464938,2.75038,0
63260,-1.72757,-0.460023,2.7543,0
63280,-1.72938,-0.456741,2.75623,0
63300,-1.73239,-0.455501,2.75832,0
63310,-1.73515,-0.455786,2.76136,0
63330,-1.73672,-0.45694,2.76485,0
63370,-1.74306,-0.460861,2.78589,0
63390,-1.74256,-0.455237,2.79822,1000
63410,-1.73761,-0.448205,2.8105,0
63450,-1.72874,-0.44435,2.847,0
63470,-1.73998,-0.449987,2.87231,0
63480,-1.75964,-0.457216,2.89999,0
63500,-1.77995,-0.465631,2.92763,0
63520,-1.80957,-0.4855,2.9822,0
63540,-1.81893,-0.498303,3.00716,0
63560,-1.82797,-0.512348,3.0275,0
63580,-1.83651,-0.526076,3.04218,0
63600,-1.84604,-0.540301,3.05264,0
63620,-1.85184,-0.558382,3.0571,0
63640,-1.8525,-0.579101,3.05377,0
63660,-1.84992,-0.600571,3.04247,0
63680,-1.84916,-0.622215,3.0262,0
63700,-1.84897,-0.645671,3.00553,0
63720,-1.84351,-0.670927,2.97813,0
63740,-1.83321,-0.695283,2.94315,0
63760,-1.82543,-0.715172,2.9057,0
63780,-1.81613,-0.733566,2.86588,0
63800,-1.80033,-0.74944,2.81944,0
63820,-1.77678,-0.763464,2.76591,0
63840,-1.75011,-0.774947,2.71037,0
63860,-1.72667,-0.786185,2.65684,0
63880,-1.70137,-0.795527,2.60327,0
63900,-1.67181,-0.802466,2.54932,0
63920,-1.64276,-0.808473,2.4982,0
63940,-1.616,-0.820023,2.4497,0
63970,-1.55275,-0.832934,2.35237,0
63990,-1.52102,-0.83518,2.3079,0
64010,-1.48821,-0.834433,2.26669,0
64030,-1.45072,-0.832006,2.22661,0
64050,-1.41277,-0.827636,2.18475,0
64070,-1.37943,-0.819455,2.14571,0
64090,-1.34699,-0.806988,2.11236,0
64110,-1.31265,-0.792653,2.0853,0
64130,-1.28014,-0.780203,2.06329,0
64150,-1.25703,-0.765695,2.04433,0
64170,-1.24574,-0.748495,2.03408,0
64190,-1.24177,-0.733964,2.03504,0
64210,-1.24112,-0.720039,2.04225,0
64230,-1.24275,-0.704593,2.05132,0
64250,-1.24783,-0.68782,2.06392,0
64270,-1.25356,-0.670864,2.07817,0
64290,-1.25238,-0.653689,2.09333,0
64310,-1.24845,-0.637923,2.11428,0
64330,-1.25266,-0.624564,2.13519,0
64350,-1.26235,-0.611787,2.15427,0
64370,-1.2773,-0.600372,2.17749,0
64390,-1.29562,-0.59101,2.20681,0
64410,-1.31477,-0.582158,2.24044,0
64430,-1.33353,-0.574611,2.27772,0
64450,-1.35543,-0.5693,2.31819,0
64470,-1.38396,-0.565398,2.36121,0
64490,-1.41576,-0.567322,2.40519,0
64510,-1.4529,-0.569897,2.45363,0
64530,-1.4884,-0.573069,2.5051,0
64550,-1.51912,-0.577034,2.55795,0
64570,-1.55198,-0.581693,2.613,0
64590,-1.58948,-0.586924,2.66966,0
64610,-1.62607,-0.593982,2.72606,0
64630,-1.65913,-0.60302,2.78162,0
64650,-1.69236,-0.614105,2.83627,0
64670,-1.72348,-0.627731,2.89039,0
64690,-1.74896,-0.644326,2.94434,0
64710,-1.77228,-0.662791,2.99725,0
64730,-1.8008,-0.677527,3.04903,0
64750,-1.82782,-0.69222,3.09681,0
64770,-1.856,-0.707389,-3.1396,0
64790,-1.88798,-0.723978,-3.09507,0
64810,-1.92031,-0.74076,-3.05904,0
64830,-1.9473,-0.75678,-3.03357,0
64850,-1.9665,-0.771411,-3.01535,0
64870,-1.97991,-0.785899,-3.00288,0
64890,-1.98966,-0.802343,-2.99917,0
64910,-1.99615,-0.822532,-3.00199,0
64930,-2.00244,-0.845172,-3.01035,0
64950,-2.00881,-0.870168,-3.0266,0
64970,-2.00617,-0.897439,-3.05676,0
65000,-1.97203,-0.95066,3.13864,0
65020,-1.94019,-0.975811,3.08141,0
65040,-1.90058,-1.00058,3.01338,0
65060,-1.85548,-1.02053,2.94123,0
65080,-1.80569,-1.03669,2.86834,0
65100,-1.75287,-1.05125,2.79487,0
65120,-1.69807,-1.06271,2.71931,0
65140,-1.64082,-1.0665,2.64379,0
65160,-1.57804,-1.07012,2.57192,0
65190,-1.4612,-1.06845,2.44151,0
65210,-1.41019,-1.05851,2.378,0
65230,-1.36127,-1.04738,2.32039,0
65250,-1.32049,-1.03281,2.27252,0
65270,-1.28184,-1.01263,2.22698,0
65290,-1.25248,-0.989483,2.18498,0
65310,-1.24079,-0.970645,2.15015,0
65330,-1.24111,-0.950019,2.12003,0
65350,-1.23895,-0.919023,2.09124,0
65370,-1.22408,-0.885492,2.06541,0
65390,-1.20676,-0.854799,2.0396,0
65410,-1.20077,-0.824832,2.02319,0
65430,-1.20878,-0.796414,2.02125,0
65450,-1.21483,-0.771385,2.02808,0
65470,-1.21663,-0.750728,2.03709,0
65490,-1.22653,-0.732705,2.045,0
65510,-1.2476,-0.717574,2.05963,0
65530,-1.28073,-0.704937,2.08501,0
65550,-1.31615,-0.694726,2.11901,0
65570,-1.34862,-0.687726,2.16172,0
65590,-1.38029,-0.686615,2.21031,0
65610,-1.42015,-0.685622,2.26257,0
65630,-1.47023,-0.685438,2.31941,0
65650,-1.52591,-0.685034,2.38016,0
65660,-1.58138,-0.684085,2.44322,0
65680,-1.64027,-0.682846,2.50902,0
65700,-1.7023,-0.682601,2.57713,0
65720,-1.76022,-0.685186,2.6451,0
65740,-1.81114,-0.690617,2.71327,0
65760,-1.86507,-0.698243,2.78685,0
65780,-1.92021,-0.709072,2.86545,0
65800,-1.97254,-0.722979,2.94274,0
65820,-2.02167,-0.737197,3.01757,0
65840,-2.06912,-0.750617,3.09146,0
65860,-2.11088,-0.7644,-3.12639,0
65880,-2.15562,-0.774812,-3.06996,0
65900,-2.18983,-0.784096,-3.02637,0
65920,-2.21769,-0.793349,-2.98663,0
65940,-2.24601,-0.803126,-2.94896,0
65960,-2.27393,-0.81357,-2.91757,0
65980,-2.29797,-0.826173,-2.89212,0
66000,-2.32062,-0.842104,-2.86954,0
66020,-2.34316,-0.861761,-2.85083,0
66040,-2.36619,-0.886312,-2.84023,0
66060,-2.38316,-0.914664,-2.83849,0
66080,-2.3923,-0.945195,-2.8431,0
66100,-2.39918,-0.978984,-2.85227,0
66120,-2.39888,-1.01581,-2.869,0
66140,-2.37722,-1.05052,-2.90244,0
66160,-2.34235,-1.08493,-2.94927,0
66180,-2.30163,-1.12013,-3.00627,0
66200,-2.24657,-1.15374,-3.07742,0
66220,-2.17459,-1.18291,3.11973,0
66240,-2.0917,-1.20841,3.01995,0
66260,-1.98721,-1.22847,2.90036,0
66280,-1.85974,-1.23995,2.76334,0
66300,-1.72684,-1.2433,2.62294,0
66320,-1.60531,-1.2388,2.49008,0
66340,-1.49158,-1.22474,2.36775,0
66360,-1.39189,-1.20306,2.26821,0
66380,-1.30884,-1.17876,2.18553,0
66400,-1.24399,-1.15248,2.11314,0
66420,-1.18752,-1.117,2.04871,0
66440,-1.15429,-1.07817,2.00865,0
66460,-1.14353,-1.04457,1.98393,0
66480,-1.13714,-1.00889,1.96117,0
66500,-1.13594,-0.970526,1.94736,0
66520,-1.14705,-0.935373,1.94316,0
66540,-1.16388,-0.904366,1.94244,0
66560,-1.18119,-0.876649,1.94633,0
66580,-1.20682,-0.852369,1.95839,0
66600,-1.2451,-0.834069,1.97628,0
66620,-1.29391,-0.817833,1.9955,0
66640,-1.34131,-0.799273,2.01851,0
66660,-1.39414,-0.784232,2.05332,0
66680,-1.44293,-0.772597,2.08974,0
66700,-1.48388,-0.761561,2.12842,0
66720,-1.52954,-0.75041,2.17688,0
66740,-1.57411,-0.747152,2.22788,0
66760,-1.61718,-0.747176,2.28119,0
66780,-1.65839,-0.74842,2.33878,0
66800,-1.70149,-0.75214,2.40244,0
66820,-1.74727,-0.75891,2.47097,0
66840,-1.79027,-0.767388,2.53897,0
66860,-1.82541,-0.776665,2.60451,0
66880,-1.86387,-0.785194,2.67013,0
66900,-1.9076,-0.792818,2.73842,0
66920,-1.94956,-0.801899,2.80754,0
66940,-1.98245,-0.812285,2.87132,0
66960,-2.02003,-0.81903,2.93152,0
66980,-2.05846,-0.822484,2.9871,0
67000,-2.09418,-0.830289,3.04134,0
67020,-2.12347,-0.843609,3.09193,0
67040,-2.15169,-0.85568,3.13171,0
67060,-2.17524,-0.865346,-3.12163,0
67080,-2.19256,-0.875507,-3.09378,0
67100,-2.20753,-0.887403,-3.06471,0
67120,-2.22263,-0.900234,-3.04211,0
67140,-2.23222,-0.910619,-3.02868,0
67160,-2.23647,-0.919151,-3.02022,0
67180,-2.24104,-0.927783,-3.01107,0
67200,-2.24893,-0.937726,-3.00052,0
67220,-2.25641,-0.946646,-2.99255,0
67240,-2.26143,-0.954133,-2.98843,0
67260,-2.26307,-0.9617,-2.98752,1001
67280,-2.26415,-0.968613,-2.98617,0
67300,-2.2663,-0.973285,-2.98378,0
67320,-2.26801,-0.977092,-2.98135,0
67340,-2.26821,-0.981457,-2.9795,0
67360,-2.27094,-0.985502,-2.97847,0
67380,-2.27591,-0.987868,-2.9788,0
67400,-2.2838,-0.989013,-2.97934,0
67420,-2.29162,-0.989981,-2.98121,0
67440,-2.30123,-0.990058,-2.98222,0
67460,-2.31675,-0.99144,-2.98315,0
67480,-2.32224,-0.991283,-2.99213,0
67500,-2.31886,-0.988488,-3.01096,0
67520,-2.31045,-0.984432,-3.03302,0
67550,-2.22613,-0.960492,-3.13976,0
67570,-2.18035,-0.950878,3.09617,0
67590,-2.13119,-0.939852,3.04572,0
67610,-2.08082,-0.926121,2.99107,0
67630,-2.02289,-0.908353,2.92891,0
67650,-1.95557,-0.883909,2.86049,0
67670,-1.89029,-0.850496,2.79183,0
67690,-1.8261,-0.808481,2.72193,0
67710,-1.7531,-0.755989,2.64665,0
67730,-1.67415,-0.689897,2.569,0
67750,-1.60624,-0.610247,2.49145,0
67770,-1.54416,-0.516864,2.40778,0
67790,-1.47577,-0.409012,2.32344,0
67810,-1.42053,-0.298266,2.24878,0
67830,-1.38804,-0.193504,2.18175,0
67850,-1.35052,-0.0938417,2.11739,0
67870,-1.29117,0.00728104,2.06066,0
67890,-1.23572,0.118886,2.01262,0
67910,-1.20357,0.249412,1.95899,0
67930,-1.19071,0.39171,1.89991,0
67950,-1.31554,0.339378,1.83291,0
67970,-1.24957,0.227456,1.85026,0
67990,-1.25744,0.179785,1.8839,0
68010,-1.23704,0.167559,1.91056,0
68030,-1.14004,0.166367,1.93828,0
68050,-1.04525,0.170777,1.96344,0
68070,-0.993339,0.187994,1.9807,0
68090,-0.986293,0.222845,1.9986,0
68110,-1.02075,0.23955,2.01069,0
68130,-1.07868,0.221879,2.01803,0
68150,-1.14283,0.192627,2.02216,0
68170,-1.20184,0.16763,2.0246,0
68190,-1.24257,0.153047,2.02207,0
68210,-1.24909,0.146409,2.01258,0
68230,-1.20997,0.150125,2.00552,0
68290,-1.06657,0.15133,1.98836,0
68310,-1.04875,0.144528,1.98265,0
68330,-1.04486,0.14097,1.97763,0
68370,-1.05792,0.141882,1.97762,0
68370,-1.06688,0.144019,1.98002,0
68390,-1.07682,0.147512,1.98331,0
68410,-1.08531,0.151871,1.98772,0
68430,-1.09002,0.156136,1.99225,0
68450,-1.09184,0.159074,1.99598,0
68470,-1.09228,0.161543,1.9986,0
68490,-1.09201,0.16375,2.00063,0
68510,-1.09136,0.165454,2.00169,0
68530,-1.09109,0.165836,2.00178,0
68550,-1.08854,0.167166,2.00167,0
68570,-1.08535,0.167512,2.00164,0
68590,-1.08271,0.167084,2.00205,0
68610,-1.08345,0.166858,2.00339,0
68630,-1.08763,0.167416,2.00572,0
68650,-1.09437,0.169435,2.01029,0
68660,-1.10189,0.173148,2.01568,0
68680,-1.1085,0.17848,2.02014,0
68700,-1.11372,0.182247,2.0234,0
68720,-1.12027,0.182992,2.02675,0
68740,-1.12612,0.1831,2.02909,0
68760,-1.12961,0.183406,2.03125,0
68780,-1.1281,0.183812,2.03402,0
68800,-1.11922,0.18324,2.03565,0
68820,-1.11239,0.183601,2.03281,0
68840,-1.11125,0.188056,2.02813,0
68860,-1.1011,0.195683,2.03046,0
68880,-1.07812,0.199466,2.03523,0
68900,-1.05555,0.195357,2.04926,0
68920,-1.05141,0.183861,2.07518,0
68940,-1.06527,0.159811,2.10871,0
68960,-1.09196,0.127744,2.13609,0
68980,-1.11832,0.0792482,2.1639,0
69000,-1.14133,0.0238596,2.20073,0
69020,-1.15722,-0.0378217,2.24382,0
69040,-1.16789,-0.106414,2.28617,0
69060,-1.18203,-0.177047,2.32633,0
69080,-1.20169,-0.245612,2.36596,0
69110,-1.25295,-0.373966,2.4393,0
69140,-1.32356,-0.514962,2.53534,0
69160,-1.34399,-0.536378,2.56635,0
69180,-1.36349,-0.547033,2.59559,0
69200,-1.38119,-0.552743,2.62155,0
69220,-1.39541,-0.555597,2.64086,0
69240,-1.40908,-0.554402,2.65259,0
69260,-1.42538,-0.548182,2.65926,0
69280,-1.44113,-0.537268,2.66319,0
69300,-1.44878,-0.524168,2.66703,0
69320,-1.45127,-0.510671,2.67399,0
69340,-1.45047,-0.496582,2.68137,0
69360,-1.44766,-0.485227,2.68446,0
69380,-1.44184,-0.477077,2.68459,0
69400,-1.44336,-0.47019,2.68769,0
69420,-1.45562,-0.463994,2.69324,0
69440,-1.46506,-0.458721,2.6968,0
69460,-1.46614,-0.454941,2.70039,0
69480,-1.4641,-0.450805,2.71313,0
69500,-1.46038,-0.453329,2.71558,0
69520,-1.45875,-0.456825,2.71626,0
69530,-1.45989,-0.457884,2.71779,0
69550,-1.45946,-0.457537,2.72033,0
69570,-1.45611,-0.457999,2.72564,0
69590,-1.45215,-0.459237,2.73616,0
69610,-1.44418,-0.461466,2.74909,0
69630,-1.43603,-0.467093,2.76367,1000
69650,-1.43518,-0.47944,2.78184,0
69670,-1.44607,-0.496728,2.80408,0
