Timestamp, Rotation x, Rotation y, Rotation z, Marker
40,-2.6875,-0.5,6.9375,0
60,-3.0625,2.25,8.6875,0
80,-11.0625,4.8125,7.9375,0
100,-26.3125,4.75,10.125,0
120,-32,3.4375,13.0625,0
130,-32.375,2.3125,14.875,0
130,-29.1875,1.6875,14.875,0
180,-22.4375,1.25,13.6875,0
200,-17.125,0.8125,11.9375,0
220,-12.25,0.25,9.0625,0
240,-9.0625,0,6.0625,0
260,-5.25,-0.625,2.5,0
280,1.8125,-0.875,1.3125,0
300,5.6875,-0.6875,-0.9375,0
320,7,-1.4375,-1.125,0
340,6.5625,-2.1875,-1.25,0
360,7.4375,-4.25,-0.3125,0
380,10.0625,-3.9375,-1,0
400,9.75,-4,0.75,0
420,8.8125,-4.3125,2.5,0
440,10.125,-3.4375,2.5625,0
460,8.5,-4.3125,2.875,0
480,8.625,-3.5625,3.0625,0
500,8.8125,-3.875,4.6875,0
520,9.125,-4.8125,6.375,0
540,11.1875,-4.8125,7.625,0
560,14.5,-4.625,6.375,0
580,8.75,-1.625,7.5625,0
600,0.3125,-2.375,-3,0
620,-2.0625,-6.75,-4.25,0
640,3.5625,-6.3125,-0.125,0
660,3.6875,-6.0625,-0.0625,0
680,5.25,-6.875,-0.875,0
700,3.6875,-7.125,-1.375,0
720,3.375,-5.8125,-0.9375,0
740,-2.6875,-2.6875,0.9375,0
770,-7.4375,0.75,5.1875,0
790,-6.6875,0.9375,3.25,0
830,-0.375,0.5,-1.9375,0
850,0.3125,0.6875,-2,0
870,2.3125,0.875,-1.625,0
890,4.3125,1,-2.1875,0
910,4.5,1.75,-2.6875,0
930,3.8125,2,-1.875,0
950,1.625,2.3125,-0.1875,0
970,-0.125,1.9375,1.0625,0
980,-0.0625,1.375,1.6875,0
1000,-0.5625,1.1875,2.1875,0
1020,-1.3125,0.5,2.75,0
1040,-2.1875,-0.3125,3.375,0
1060,-1.8125,-0.75,3.1875,0
1080,-0.1875,-0.5625,2.75,0
1100,0.6875,-0.25,2.125,0
1120,1.875,-0.3125,1.375,0
1140,2.375,-0.4375,0.9375,0
1160,2,0.0625,0.9375,0
1180,1.1875,0,1.1875,0
1200,-0.5625,0.5625,1.5,0
1220,-2,0.875,1.9375,0
1240,-2.6875,0.75,1.75,0
1260,-2.375,0.9375,1.3125,0
1280,-2.125,1.0625,0.625,0
1300,-0.75,1.25,-0.0625,0
1320,0.0625,1.0625,-0.625,0
1340,0.5,0.6875,-0.4375,0
1360,0.125,0.375,-0.125,0
1380,0.5625,-0.0625,-0.0625,0
1400,0.6875,-0.75,-0.625,0
1420,0.9375,-1.25,-0.625,0
1440,2.0625,-1.5,-0.0625,0
1460,2.625,-1.5,0.75,0
1480,3.4375,-1.5625,2.4375,0
1500,1.8125,-1.1875,3.125,0
1520,0.3125,-2.3125,4.125,0
1540,-0.125,-2.625,3.875,0
1560,-0.0625,-3.875,3.0625,0
1580,2.5,-5.0625,2.875,0
1600,6.25,-5.6875,1.75,0
1620,10.1875,-5.1875,-0.3125,0
1640,14.75,-5.75,-2.375,0
1660,20.0625,-7.4375,-4.25,0
1680,22.25,-7.5625,-5.4375,0
1700,22.4375,-7.6875,-6.375,0
1720,20.6875,-8.125,-6.5625,0
1740,21.0625,-10.5625,-3.875,0
1760,21.0625,-11.75,-1.8125,0
1780,21.375,-11.5625,1,0
1800,22.5625,-12.4375,6.625,0
1820,25.8125,-13,4.0625,0
1840,24.4375,-13.25,1.625,0
1860,23.25,-15.25,3.8125,0
1880,22,-15.4375,4.4375,0
1900,16.0625,-13.75,7,0
1920,12.4375,-12.0625,12.875,0
1940,15.375,-14.0625,16.75,0
1960,22.3125,-13.8125,9.875,0
1980,22.3125,-12.0625,1.6875,0
2000,23.1875,-8.75,0.1875,0
2020,25.875,-6.6875,-1.5,0
2040,33.5625,-4.6875,-0.0625,0
2060,45.1875,-7.125,-2.125,0
2080,58.8125,-8.5625,-4.4375,0
2100,64.4375,-11.9375,-9.0625,0
2120,65.125,-14.625,-6.0625,0
2140,70.25,-15.4375,-14.0625,0
2160,70.3125,-18.1875,-14.25,0
2180,80.0625,-22,-14.6875,0
2200,81,-23.3125,-17.875,0
2220,78.5625,-22.6875,-21.25,0
2240,69.75,-18.375,-17.5625,0
2260,57.5,-14.0625,-14.4375,0
2280,42.75,-11.1875,-12.875,0
2300,29.25,-7.5625,-11.625,0
2320,17.875,-2.25,-6.1875,0
2340,10.75,0.4375,-5.5625,0
2360,6,2.1875,-2.75,0
2380,3.4375,1.875,-2.6875,0
2400,4.4375,1.375,-2.6875,0
2420,5.5,1.5,-3.8125,0
2440,6.125,1.75,-4.375,0
2460,5.9375,2.125,-3.9375,0
2480,4.875,2.1875,-3.6875,0
2500,3.625,2.375,-3.75,0
2520,0.8125,2.4375,-3.4375,0
2540,-2.4375,2.5625,-2.25,0
2560,-4.4375,2.5,-1.75,0
2580,-5.1875,2.4375,-1.25,0
2600,-4.9375,2.3125,-0.375,0
2620,-4.125,1.625,0.875,0
2640,-2.6875,1,2.625,0
2660,-1.25,0.625,2.875,0
2680,0.9375,0.0625,2.3125,0
2700,1.8125,0,2.75,0
2720,3.125,-0.5,2.25,0
2740,3.875,-0.375,1.8125,0
2760,3.0625,0,0.3125,0
2780,1.875,0.4375,-1,0
2800,1.125,0.875,-2.25,0
2820,0.8125,1.4375,-2.875,0
2840,-0.625,1.5625,-3.3125,0
2860,-1.3125,1.75,-3,0
2880,-1,1.5,-2.9375,0
2900,-1.125,0.9375,-1.9375,0
2920,0.5,0.3125,-0.5,0
2940,2,0.1875,0.0625,0
2960,2.875,-0.3125,0.3125,0
2980,2.8125,-0.6875,0.3125,0
3000,2.875,-0.9375,0.4375,0
3020,2.875,-1.125,0.25,0
3040,2.625,-1.1875,0.0625,0
3060,2.9375,-1.25,0.0625,0
3080,2.4375,-1.1875,-0.1875,0
3100,1.875,-0.8125,-0.3125,0
3120,1.4375,-0.625,-0.625,0
3140,1.5,-0.5,-0.5625,0
3160,1.25,-0.5625,-1.1875,0
3180,1.75,-0.875,-2,0
3200,2.8125,-1.125,-2.125,0
3220,3.5625,-1.125,-2.0625,0
3240,2.3125,-0.6875,-2.3125,0
3260,0.5,-0.4375,-2.9375,0
3280,0.625,-0.75,-2.375,0
3300,1.625,-0.9375,-1.5,0
3320,2.875,-1,-0.9375,0
3340,4.3125,-1.4375,-0.9375,0
3360,5.375,-2.5625,-0.1875,0
3380,7.875,-3.375,0.5,0
3400,8.6875,-3.4375,-0.1875,0
3420,5.875,-3.4375,-0.75,0
3440,5.5625,-3.5,-0.3125,0
3460,6.4375,-4,0.625,0
3480,6.375,-5.3125,-0.0625,0
3500,7.8125,-6.3125,-0.25,0
3520,12.875,-8.875,-0.6875,0
3540,20.8125,-10.3125,-0.4375,0
3560,29.5625,-13.375,-1.5625,0
3580,36.8125,-18.5625,-3.125,0
3600,45.125,-22.3125,-1.4375,0
3620,50.375,-19,-0.125,0
3640,47,-14.6875,2.1875,0
3660,41.3125,-9.4375,5,0
3680,33.875,-6.5,8.875,0
3690,24.8125,-5.75,12.4375,0
3710,18.4375,-3.25,10.375,0
3730,13.0625,-2.1875,8.3125,0
3750,10.6875,-1.375,3.1875,0
3770,6.6875,-3,-1.75,0
3790,4,-2.4375,-3.8125,0
3810,1.625,-0.375,-3.1875,0
3830,2.5,0,-1.5625,0
3850,1.9375,-1,-0.3125,0
3870,2.1875,-0.0625,1.875,0
3890,-0.6875,0.8125,1.75,0
3910,-2.4375,0.9375,1.375,0
3930,-1.4375,1,1.8125,0
3950,0.9375,0.875,1.4375,0
3970,0.9375,0.125,-0.75,0
3990,0.3125,-0.25,-0.3125,0
4010,0.0625,0.25,0.6875,0
4030,-0.875,-0.25,0.375,0
4050,0.25,-0.1875,-0.125,0
4070,2.0625,-0.6875,-0.6875,0
4090,2.3125,-1,-0.875,0
4110,2.125,-0.1875,-0.0625,0
4130,1.125,0.25,0.0625,0
4150,-0.125,-0.1875,0.6875,0
4170,0.3125,-0.5,0.875,0
4190,0.0625,-0.9375,-0.625,0
4210,-0.75,-0.875,-1.375,0
4230,-1.6875,-0.375,-1.25,0
4250,-2.5,0.4375,-1.25,0
4270,-3.3125,0.9375,-1.5625,0
4290,-3,0.8125,-1.3125,0
4310,-3.5,1.8125,-1.1875,0
4330,-7.5625,3,-1.6875,0
4350,-10.125,3.5625,-1.875,0
4370,-11.5,3.5625,-2.3125,0
4390,-11.5625,3.6875,-3,0
4410,-14.0625,5.3125,-4.5625,0
4430,-19.5625,8.0625,-3.9375,0
4450,-25.9375,9.9375,-2.375,0
4470,-27.9375,8.9375,-2,0
4490,-25.3125,8.1875,-2.4375,0
4510,-25.875,9.4375,-3.6875,0
4530,-25.625,9.0625,-3.1875,0
4550,-20.75,6.8125,-1.8125,0
4570,-13.875,4.125,-1.375,0
4590,-7.75,3.25,-1.9375,0
4610,-9.3125,3.6875,-3.375,0
4630,-10.125,2.6875,-3.9375,0
4650,-8.0625,0.125,-3.25,0
4670,-5.0625,-0.0625,-3.375,0
4690,-4.5625,1.125,-3.25,0
4710,-7.4375,2.3125,-3.25,0
4730,-9.4375,2.0625,-2.75,0
4750,-9.4375,1.6875,-2.5625,0
4770,-8.0625,2.4375,-2.3125,0
4790,-8.6875,3.75,-1.6875,0
4810,-9.6875,3.5625,-1.625,0
4830,-7.1875,2.375,-0.3125,0
4850,-3.8125,2.375,0.1875,0
4870,-1.5625,1.875,0.75,0
4890,-0.125,1.4375,1.6875,0
4910,0,1.5625,2.4375,0
4930,-0.5,1.25,2.1875,0
4950,-0.4375,0.8125,1.5625,0
4970,-0.375,0.75,0.9375,0
4990,-0.375,0.9375,0.75,0
5010,-0.75,1.0625,0.5625,0
5030,-1.4375,0.75,0.0625,0
5050,-1.625,0.4375,-0.1875,0
5070,-1.6875,0.625,-0.1875,0
5090,-1.3125,0.9375,0.1875,0
5110,-1.9375,1.4375,0.5625,0
5130,-2.875,1.125,0.625,0
5150,-2.6875,1,0.9375,0
5170,-2.3125,0.9375,0.5625,0
5190,-1.5625,0.9375,0.1875,0
5210,-1.6875,0.9375,-0.125,0
5230,-1.9375,0.625,-0.375,0
5250,-1.5,0.5,-0.1875,0
5270,-1.375,0.625,-0.125,0
5290,-1.3125,0.9375,0.0625,0
5310,-1.5,0.6875,0,0
5330,-1.5,0.625,0.0625,0
5350,-1.375,0.5,0.25,0
5370,-1.5,0.6875,0.625,0
5390,-1.625,0.6875,1,0
5410,-1.625,0.6875,1,0
5430,-1,0.5,0.75,0
5450,-0.8125,0.375,0.1875,0
5470,-0.5625,0.5625,0.125,0
5490,-0.9375,0.6875,0.25,0
5510,-2.25,1.25,0.4375,0
5530,-3.8125,1.8125,0.5625,0
5550,-6.75,3.1875,1.1875,0
5570,-11.625,5.8125,2.625,0
5590,-19,9.125,2.625,0
5610,-27.4375,12.375,2.25,0
5630,-33,13.8125,1.25,0
5650,-35.25,13.5,-0.1875,0
5670,-34.5,12.4375,-3.6875,0
5680,-32.625,11.5,-3.9375,0
5700,-30.3125,10.125,-4.3125,0
5720,-27.75,10.5,-3.3125,0
5740,-27.25,10.9375,-2.375,0
5760,-28.5,10.75,-1.875,0
5780,-28.8125,10.9375,0.5625,0
5800,-27.75,10.375,2.5,0
5820,-24.5,10.375,3.4375,0
5840,-22,9.875,5.4375,0
5860,-20.1875,10.0625,7,0
5880,-20.1875,10.6875,7.625,0
5900,-21.375,11.1875,9.8125,0
5920,-24,10.875,12.125,0
5940,-24.25,10.25,12.75,0
5960,-23.125,9.125,12,0
5980,-19.3125,7.125,10.625,0
6000,-12.625,5.3125,9.375,0
6020,-6.125,3.25,8.3125,0
6040,-0.6875,1.25,6.625,0
6060,2.9375,0,4.8125,0
6080,4.6875,-1,3.8125,0
6100,5.8125,-2.0625,3.4375,0
6120,6.6875,-2.6875,3.0625,0
6140,7.125,-2.875,2.25,0
6160,7,-2.6875,1.625,0
6180,6.625,-2.375,1.3125,0
6200,7.3125,-2.625,1.1875,0
6220,8.4375,-2.875,1,0
6240,9.125,-2.6875,0.375,0
6260,8.5625,-3.0625,0.4375,0
6280,9.25,-3.375,1.3125,0
6300,6.5,-2.5625,2.1875,0
6320,1.1875,-1.625,2.875,0
6340,-5.25,-0.375,4.375,0
6360,-11.375,1,5.375,0
6380,-17.25,3.0625,5.9375,0
6400,-25.4375,4.5,4.5625,0
6420,-26.8125,3.8125,2.625,0
6440,-22.4375,2.5,1.375,0
6460,-13.0625,1.5625,-0.1875,0
6480,-2.875,0.3125,-2.5,0
6500,4.625,-0.4375,-3.5625,0
6520,8.0625,-0.8125,-4.375,0
6540,9.3125,-1.0625,-4.125,0
6560,9.8125,-1.375,-3.125,0
6580,10.4375,-1.5,-2.1875,0
6600,12,-1.8125,-1.875,0
6620,15.6875,-2.8125,-2.8125,0
6640,20.5625,-3.9375,-4.125,0
6660,24.3125,-4.3125,-4.5,0
6680,22.9375,-3.6875,-3.0625,0
6700,18.5,-3.125,-1.875,0
6720,13.1875,-2.375,-1.3125,0
6740,8.5625,-1.6875,-0.5,0
6760,5.125,-0.75,0.4375,0
6780,2.625,-0.375,0.5,0
6800,1.875,0.0625,0.875,0
6820,2.8125,0,0.5,0
6840,3.8125,-0.25,-0.375,0
6860,4,-0.125,-0.625,0
6880,4.4375,0,-0.75,0
6900,4,0.1875,-0.8125,0
6920,1.5,0,-1.5,0
6940,2,-0.375,-1.8125,0
6960,1.6875,-0.0625,-1.9375,0
6980,1.4375,0.625,-2.8125,0
7000,1,1.0625,-2.5625,0
7020,3.1875,1.5,-2.375,0
7040,7.0625,3,-2.375,0
7060,9.1875,2.75,-5.5,0
7080,5.8125,2.75,-8.1875,0
7100,2.5,3.1875,-8.6875,0
7120,0,4,-6.9375,0
7140,-1.25,4.8125,-5.125,0
7160,-2.4375,4,-5.1875,0
7180,-1.6875,3,-6.125,0
7200,1.8125,3.6875,-4.8125,0
7220,3.8125,3.5625,-6.1875,0
7240,1,1.875,-8.125,0
7260,-0.375,0.375,-7,0
7280,-0.1875,-1.25,-6.25,0
7300,1.4375,-1.6875,-4.9375,0
7320,3.4375,-2.5625,-5.4375,0
7340,4.9375,-0.375,-7.625,0
7360,3.4375,0.3125,-4.6875,0
7380,6.125,-1.75,0.875,0
7400,10.5,-3.6875,4,0
7420,11.875,-4.3125,3,0
7440,8.3125,-1.9375,0.5625,0
7460,7.3125,0.375,2.8125,0
7480,9,-0.6875,7.3125,0
7500,14.5,-4.0625,10.0625,0
7520,17.9375,-5.3125,8.875,0
7540,13.125,-4.75,4.1875,0
7560,6.125,-2.25,2.8125,0
7580,0.9375,1.0625,5.5,0
7600,-4.625,2.875,7.3125,0
7620,-7.5,3.5,7.5,0
7640,-8.5,4.625,7.375,0
7660,-8.5625,5.75,6.8125,0
7680,-8.875,5.6875,4.1875,0
7700,-13.8125,4.875,-2.125,0
7720,-15,4.625,-5.25,0
7740,-14.75,5.125,-5.125,0
7760,-12.4375,4.1875,-3.375,0
7780,-8.5,1.5,-1.6875,0
7800,-5.4375,-1.0625,-0.25,0
7820,-2.1875,-2.4375,1.4375,0
7840,0.4375,-2.125,2.0625,0
7860,4.875,-2,2.125,0
7880,9.875,-1.625,1,0
7900,12.125,-1.75,-0.4375,0
7920,11,-1.75,-0.6875,0
7940,5.625,-1.5,-0.8125,0
7960,-1.6875,-0.8125,-1,0
7980,-6.0625,-0.5,-0.375,0
8000,-5.1875,-1.375,1.0625,0
8020,-1.75,-2.5625,1.375,0
8040,2.875,-4.8125,0.9375,0
8060,8.75,-8,0.5625,0
8080,16.25,-10.5,-0.6875,0
8100,23.3125,-10.75,-2.5625,0
8120,25.3125,-9.4375,-4.9375,0
8140,19.625,-7.875,-5.4375,0
8160,8.8125,-8.5,-4.3125,0
8180,1.8125,-8.75,-1.3125,0
8200,-1.75,-4.5625,3.0625,0
8220,-4.8125,-1.5625,2.375,0
8240,-9.5625,0.4375,1.375,0
8260,-22.625,9.1875,7.375,0
8280,-29.4375,14.6875,15.4375,0
8300,-11.5625,5.375,14.9375,0
8320,24.0625,-10.25,-3.625,0
8340,31.75,-12.375,-18,0
8360,22.5,-4.875,-19.6875,0
8380,9.4375,3.8125,-12.875,0
8400,-1,6.1875,-6.0625,0
8420,-6.25,5.5625,1.3125,0
8440,-8,2.375,3.5,0
8460,-6.3125,-1.4375,0,0
8480,-8.125,-1.1875,-0.25,0
8500,-7.375,1.9375,1.6875,0
8520,-1.625,2.0625,2.125,0
8540,4.5625,-1,1.125,0
8560,9.375,-3.5625,0.625,0
8580,8.5,-3.5,1.375,0
8600,4.4375,-2.1875,2.9375,0
8620,0.6875,-0.25,3.625,0
8640,-0.125,0.875,3.125,0
8660,0.4375,1.3125,2.8125,0
8680,0.875,1.125,0.5,0
8700,0.9375,1.1875,0.0625,0
8720,0.9375,1.5625,-0.3125,0
8740,-0.125,1.875,-0.125,0
8760,-2.0625,1.625,-0.125,0
8780,-2.25,1,0.5,0
8800,-0.8125,0.875,0.0625,0
8820,0.5,0.625,-0.8125,0
8840,1.0625,0.875,-1.3125,0
8860,0.0625,1,-1.4375,0
8880,-0.5625,1.375,-0.9375,0
8900,-1.5,1.375,-1,0
8920,-1,1,-1.125,0
8940,-0.3125,1.1875,-1.25,0
8960,0.625,1.5,-1.5,0
8980,0.4375,1.4375,-1.5625,0
9000,0.125,1,-1.75,0
9020,-0.875,1.0625,-1.5,0
9040,-0.875,0.8125,-0.5,0
9060,-0.5,0.4375,0,0
9080,-0.625,0.5,0.25,0
9100,-0.5625,0.3125,0.6875,0
9110,-0.6875,-0.25,0.875,0
9130,-0.5,-0.5625,0.8125,0
9150,-1.0625,-0.75,0.75,0
9170,-1.25,-0.875,1.5,0
9190,-1.125,-0.6875,2.0625,0
9210,-0.8125,-0.5625,2.375,0
9230,-0.1875,-0.6875,2.3125,0
9250,0,-0.75,1.6875,0
9270,0,-0.375,1.375,0
9290,0.125,0.1875,1.25,0
9310,0.4375,0.5625,0.5,0
9330,-0.0625,0.75,-0.5,0
9350,-1,1,-1.4375,0
9370,-1.5,1.3125,-1.875,0
9390,-1.6875,1.5,-1.8125,0
9410,-2.25,1.5625,-1.625,0
9430,-2.375,1.5625,-1.1875,0
9450,-2.0625,1.1875,-0.875,0
9470,-1,0.625,-1.0625,0
9490,-0.3125,0.3125,-1,0
9510,-0.4375,0.375,-0.5625,0
9530,-0.375,0.125,-0.0625,0
9550,-1.3125,0.1875,0.125,0
9570,-2,0.125,0.5,0
9590,-1.8125,0.0625,0.75,0
9610,-1.9375,0.25,1.0625,0
9630,-1.5625,0.375,1,0
9650,-0.875,0.1875,0.625,0
9670,-0.125,0.125,0.25,0
9690,-0.125,0.25,0.25,0
9710,-0.5,0.6875,0.6875,0
9730,-1.3125,0.9375,0.75,0
9750,-1.5625,0.9375,0.5,0
9770,-1.75,1.0625,0.3125,0
9790,-0.9375,0.9375,0.25,0
9810,-0.0625,0.6875,-0.125,0
9830,0.1875,0.5,-0.6875,0
9850,0.25,0.1875,-0.75,0
9870,0.1875,0.25,-0.375,0
9890,0.1875,0.375,0.125,0
9910,-0.0625,0.375,0.3125,0
9930,-0.3125,0.5,0.625,0
9950,-0.1875,0.5625,0.75,0
9970,-0.3125,0.4375,1.0625,0
9990,-0.1875,0.375,1.3125,0
10010,0.0625,0.375,1.1875,0
10030,0.25,0.375,1.25,0
10050,0.4375,0.3125,1,0
10070,0.5,0.1875,0.75,0
10090,0.75,0.1875,0.3125,0
10110,0.875,0.25,0.0625,0
10130,0.625,0.4375,0.125,0
10150,0.3125,0.3125,0.25,0
10170,0.125,0.4375,0.1875,0
10190,-0.0625,0.4375,-0.0625,0
10210,-0.0625,0.3125,0.0625,0
10230,-0.125,0.4375,0.3125,0
10250,0.375,0.5,0.625,0
10270,0.25,0.3125,0.5,0
10290,0.3125,0.25,0.125,0
10310,0.1875,0.1875,0,0
10330,0.25,0.25,-0.0625,0
10350,0.75,0.125,-0.125,0
10370,0.5,0,-0.125,0
10390,-0.0625,0.0625,0.25,0
10410,-0.1875,0.125,0.25,0
10430,0,0.0625,0.0625,0
10450,0.1875,0.0625,-0.25,0
10470,0.4375,0.125,-0.25,0
10490,-0.125,0.375,0,0
10510,-0.6875,0.5,0,0
10530,-0.8125,0.5,0,0
10550,-0.125,0.4375,0.1875,0
10570,0.25,0.3125,0.125,0
10590,0.1875,0.25,0.1875,0
10610,0.3125,0.25,0.125,0
10630,0.3125,0.125,-0.25,0
10650,0.25,-0.0625,-0.125,0
10670,0.375,0.0625,-0.125,0
10690,0.375,0,-0.3125,0
10710,0.0625,0,-0.3125,0
10730,0.125,0,-0.375,0
10750,-0.125,-0.0625,-0.4375,0
10770,-0.25,0,-0.3125,0
10790,-0.0625,0,-0.4375,0
10810,-0.3125,0.1875,-0.375,0
10830,-0.5625,0.125,-0.3125,0
10850,-0.125,0,-0.25,0
10870,-0.25,0.0625,-0.375,0
10890,-0.25,-0.0625,-0.5,0
10910,-0.25,-0.125,-0.5,0
10930,-0.25,-0.0625,-0.75,0
10950,-0.4375,0.0625,-0.5625,0
10970,-0.5,0.125,-0.375,0
10990,-0.3125,0,-0.25,0
11010,0.375,-0.1875,-0.1875,0
11030,0.8125,-0.375,-0.25,0
11050,1.0625,-0.1875,-0.375,0
11070,0.9375,-0.25,-0.4375,0
11090,0.3125,-0.1875,-0.4375,0
11100,0,0,-0.3125,0
11120,-0.4375,-0.125,-0.125,0
11140,-0.5,-0.0625,0,0
11160,-0.3125,-0.1875,-0.1875,0
11180,0.0625,-0.125,-0.375,0
11200,0.3125,0,-0.5625,0
11220,0.25,-0.1875,-0.5625,0
11240,-0.0625,0,-0.4375,0
11260,-0.75,0.125,-0.125,0
11280,-0.625,0.0625,0,0
11300,-0.125,0.25,0.125,0
11320,0.25,0.25,0.0625,0
11340,0.6875,-0.0625,-0.0625,0
11360,0.375,0.0625,-0.0625,0
11380,0,0.1875,-0.0625,0
11400,-0.1875,0.125,0.125,0
11420,-0.5,0.25,0.3125,0
11440,-0.4375,0.125,0.1875,0
11460,0,0,0,0
11480,0.25,-0.0625,-0.3125,0
11500,0.25,0.125,-0.3125,0
11520,0.0625,0.1875,-0.1875,0
11540,-0.0625,0.0625,-0.125,0
11560,-0.125,0.125,-0.0625,0
11580,0.1875,0,-0.0625,0
11600,0.9375,-0.125,-0.1875,0
11620,1.25,-0.25,-0.25,0
11640,1.1875,-0.125,-0.0625,0
11660,0.6875,0,0.125,0
11680,0.5625,-0.0625,0.125,0
11700,0.3125,0,0.0625,0
11720,0.0625,0.25,0.25,0
11740,-0.0625,0.25,0.375,0
11760,-0.25,0.125,0.625,0
11780,-0.3125,0.25,0.5625,0
11800,0.3125,0.125,0.4375,0
11820,0.6875,0.125,-0.0625,0
11840,1.0625,0.0625,-0.4375,0
11860,0.75,-0.125,-0.5625,0
11880,0.1875,0.0625,-0.5625,0
11900,-0.4375,0.125,-0.25,0
11920,-0.9375,0.25,0.25,0
11940,-0.75,0.1875,0.375,0
11960,-0.25,-0.125,0.125,0
11980,0.1875,-0.0625,-0.25,0
12000,0.625,-0.125,-0.3125,0
12020,0.3125,0,-0.0625,0
12040,-0.25,0.0625,0,0
12060,-0.5625,0,0.25,0
12080,-0.125,0.125,0.3125,0
12100,0.75,0.0625,0.25,0
12120,1.125,-0.0625,0.125,0
12140,1.1875,-0.0625,0.0625,0
12160,1,0.125,0,0
12180,0.5,-0.0625,0,0
12200,0.4375,0.0625,0.1875,0
12220,0.5625,0.0625,0.1875,0
12240,0.4375,0.125,0.1875,0
12260,0.3125,0,0,0
12280,0.3125,0,0,0
12300,0.1875,0,-0.25,0
12320,0.25,-0.125,0,0
12340,-0.1875,0.0625,0.0625,0
12360,-0.4375,0.0625,0.125,0
12380,-0.375,0.125,0.0625,0
12400,-0.125,-0.125,-0.1875,0
12420,-0.25,-0.0625,0,0
12440,-0.0625,0.125,0.1875,0
12460,0.1875,0.125,0.0625,0
12480,0,0.1875,0.125,0
12500,-0.125,0.25,0.125,0
12520,-0.125,0.3125,0.1875,0
12540,-0.125,0.25,0.375,0
12560,-0.3125,0.25,0.4375,0
12580,-0.0625,0.25,0.4375,0
12600,0.1875,0.1875,0.1875,0
12620,0.5,0.0625,-0.0625,0
12640,0.6875,0,-0.3125,0
12660,-0.0625,0.125,-0.1875,0
12680,-0.5625,0.3125,0.125,0
12700,-1.125,0.375,0.375,0
12720,-1.25,0.375,0.5625,0
12740,-1.3125,0.375,0.6875,0
12760,-0.875,0.125,0.25,0
12780,-0.5625,0.0625,-0.1875,0
12800,-0.0625,0.25,-0.125,0
12820,-0.25,0.5,-0.0625,0
12840,-1.0625,0.5,0.125,0
12860,-1.4375,0.5625,0.4375,0
12880,-0.8125,0.5625,0.8125,0
12900,0.3125,0.375,0.875,0
12920,0.875,0.3125,0.6875,0
12940,1,0.375,0.625,0
12960,0.6875,0.375,0.5,0
12980,0.3125,0.4375,0.4375,0
13000,0.25,0.5625,0.4375,0
13020,0.4375,0.5,0.4375,0
13040,0.0625,0.5,0.1875,0
13060,-0.3125,0.5,0.125,0
13080,-0.375,0.375,-0.0625,0
13100,-0.375,0.5,-0.0625,0
13120,-0.0625,0.375,0.5,0
13140,0.1875,0.3125,0.625,0
13160,0.5625,0.3125,0.625,0
13180,0.625,0.1875,0.5625,0
13200,0.5,0.25,0.625,0
13220,0.5,0.375,0.6875,0
13240,0.625,0.375,0.4375,0
13260,0.25,0.375,0.5,0
13280,-0.125,0.5,0.5,0
13300,-0.25,0.5625,0.4375,0
13320,-0.1875,0.375,0.4375,0
13340,-0.0625,0.4375,0.8125,0
13360,0.25,0.4375,1.0625,0
13380,0.6875,0.4375,0.8125,0
13400,1,0.5,0,0
13420,1.25,0.4375,-0.375,0
13440,0.6875,0.25,-0.9375,0
13460,0.4375,0.1875,-0.9375,0
13480,-0.375,0.25,-0.4375,0
13500,-0.9375,0.5,0.1875,0
13520,-1,0.4375,0.875,0
13540,-0.3125,0.0625,0.8125,0
13560,0.75,-0.375,0.625,0
13580,1.3125,-0.75,0.25,0
13600,0.5625,-0.6875,0.5,0
13620,-0.625,-0.375,1,0
13640,-1.5625,-0.0625,1.1875,0
13660,-1.25,0.125,1.0625,0
13680,-0.125,0.0625,0.1875,0
13700,0.875,-0.25,-1.625,0
13720,1.6875,-0.4375,-2.8125,0
13740,1.1875,-0.0625,-2.5625,0
13760,-0.5625,0.1875,-1.75,0
13780,-2.5625,0.1875,-0.75,0
13800,-3.875,0.3125,0.25,0
13820,-3.75,0.1875,0.4375,0
13840,-1.5,-0.5,0.625,0
13860,2.0625,-1,-0.0625,0
13880,5.1875,-1.1875,-0.875,0
13900,4.8125,-1.1875,-1.25,0
13920,1.9375,-0.4375,-0.5625,0
13940,-1,0.5,0.875,0
13960,-2.625,1,2,0
13980,-2.25,1,2.125,0
14000,-0.875,0.625,1.5,0
14020,1.75,-0.1875,0.375,0
14040,2.6875,-0.6875,-0.4375,0
14060,2.3125,-0.875,-0.9375,0
14080,1.0625,-0.625,-0.9375,0
14100,-0.5625,0,-0.5,0
14120,-0.9375,0.125,0.125,0
14140,-0.25,0.3125,0.3125,0
14160,0.625,0.1875,0.25,0
14180,1.3125,0,-0.0625,0
14200,1.6875,-0.1875,-0.375,0
14220,1.3125,-0.3125,-0.625,0
14240,0.6875,-0.1875,-0.5,0
14260,-0.3125,0.125,0,0
14280,-0.625,0.1875,0.625,0
14300,-0.5,0.125,0.5625,0
14320,-0.3125,0.1875,0.125,0
14340,-0.125,0.25,-0.0625,0
14360,-0.0625,0.1875,0.0625,0
14380,-0.3125,0.125,-0.0625,0
14400,-0.625,0.1875,-0.1875,0
14420,-0.375,0.1875,-0.25,0
14440,0.1875,0.1875,0,0
14460,0.25,0.25,0.25,0
14480,0.4375,0.125,0.4375,0
14500,0.125,0.0625,0.5,0
14520,0.125,0,0.5,0
14530,0.375,0.0625,0.25,0
14550,0.375,0.125,0.25,0
14570,0.0625,0,0.1875,0
14590,0.4375,-0.25,0.0625,0
14610,0.75,-0.4375,0,0
14630,0.875,-0.4375,-0.125,0
14650,0.4375,-0.25,0,0
14670,0,0,0.25,0
14690,0.0625,0.125,0.1875,0
14710,0.375,0.1875,0,0
14730,0.875,0.1875,-0.3125,0
14750,1.125,0.0625,-0.4375,0
14770,0.9375,0.0625,-0.5,0
14790,0.75,0.0625,-0.6875,0
14810,0.375,0,-0.3125,0
14830,0,0.1875,0.25,0
14850,0.1875,0.125,0.75,0
14870,0.5,0,0.6875,0
14890,0.5625,-0.0625,0.4375,0
14910,0.8125,-0.25,0.25,0
14930,0.8125,-0.1875,0.25,0
14950,0.6875,-0.0625,0.3125,0
14970,0.5625,0,0.125,0
14990,-0.125,0.4375,0.1875,0
15010,-0.8125,0.4375,-0.125,0
15030,-1.125,0.5,-0.1875,0
15050,-1.4375,0.5,-0.25,0
15070,-1.4375,0.5625,0.0625,0
15090,-0.8125,0.4375,0.4375,0
15110,-0.4375,0.25,0.625,0
15130,0,0.0625,0.5625,0
15150,0.3125,0.0625,0.4375,0
15170,0.375,0.125,0.3125,0
15190,-0.0625,0.25,0.0625,0
15210,-0.8125,0.1875,0.25,0
15230,-1.25,0.0625,0.4375,0
15250,-1,0.1875,0.75,0
15270,-0.6875,0.1875,1,0
15290,-0.0625,0.3125,0.8125,0
15310,0.625,0,0.0625,0
15330,0.6875,0.125,-0.25,0
15350,0.625,0.125,-0.1875,0
15370,0,0.1875,-0.0625,0
15390,-0.125,0.1875,0,0
15410,-0.1875,0.375,-0.1875,0
15430,-0.1875,0.3125,-0.0625,0
15450,-0.3125,0.125,0.125,0
15470,-0.1875,0.0625,0.375,0
15490,0.375,0.1875,0.25,0
15510,0.6875,-0.0625,0.125,0
15530,0.8125,-0.25,-0.0625,0
15550,0.8125,-0.1875,-0.0625,0
15570,0.4375,-0.0625,0.125,0
15590,0.6875,-0.125,0.3125,0
15610,0.6875,-0.1875,0.3125,0
15630,0.8125,-0.125,0.25,0
15650,0.75,0.0625,0.0625,0
15670,0.375,0,-0.1875,0
15690,0.25,0.125,-0.3125,0
15710,0.25,0.125,-0.375,0
15730,0.1875,0.0625,-0.1875,0
15750,0.1875,-0.0625,-0.0625,0
15770,0.5625,0.0625,-0.0625,0
15790,0.8125,0,-0.125,0
15810,0.75,0.1875,-0.125,0
15830,0.5,0.0625,-0.1875,0
15850,0.4375,0.0625,-0.3125,0
15870,0.625,0.0625,-0.375,0
15890,0.5,-0.1875,-0.25,0
15910,0.125,-0.3125,0.375,0
15930,0,-0.5,0.6875,0
15950,-0.0625,-0.5625,0.75,0
15970,-0.25,-0.5,0.75,0
15990,0.125,-0.25,0.6875,0
16010,0,-0.0625,0.5,0
16030,0.0625,0,0,0
16050,-0.125,0.1875,-0.3125,0
16070,0.0625,0.375,-0.3125,0
16090,-0.3125,0.625,-0.5,0
16110,-0.4375,0.4375,-0.5625,0
16130,-0.375,0.3125,-0.3125,0
16150,-0.1875,0.375,-0.1875,0
16170,0.125,0.25,0.1875,0
16190,0.0625,0.3125,0.25,0
16210,0.0625,-0.125,0.3125,0
16230,-0.4375,-0.375,0.75,0
16250,-0.3125,-0.25,0.75,0
16270,-0.25,-0.125,0.375,0
16290,-0.3125,0.125,0.4375,0
16310,-0.25,0.125,0.4375,0
16330,0.0625,0.0625,0.4375,0
16350,-0.0625,0.25,0.0625,0
16370,-0.1875,0.25,-0.125,0
16390,-0.0625,0.3125,0.125,0
16410,-0.5,0.4375,-0.0625,0
16430,-0.125,0.3125,-0.25,0
16450,-0.0625,0.3125,-0.375,0
16470,-0.3125,0.4375,-0.3125,0
16490,-0.4375,0.4375,-0.1875,0
16510,-0.375,0.25,-0.1875,0
16520,-0.0625,0.0625,-0.1875,0
16540,0,-0.125,-0.125,0
16560,0,0.0625,0.4375,0
16580,-0.0625,-0.0625,0.4375,0
16600,0.125,0.0625,0.375,0
16620,0.375,-0.125,0.125,0
16640,0.125,-0.1875,-0.125,0
16660,0.125,0,-0.0625,0
16680,-0.125,0,-0.25,0
16700,-0.25,0.125,-0.125,0
16720,-0.0625,0.125,0.0625,0
16740,0.3125,0.0625,-0.5625,0
16760,0.4375,0.0625,-1,0
16780,0.3125,0.0625,-0.9375,0
16800,0.125,0.0625,-0.5,0
16820,-0.4375,0.0625,-0.1875,0
16840,-0.75,0.0625,0.25,0
16860,-0.4375,-0.0625,0.875,0
16880,0.5625,-0.125,1.4375,0
16900,0.9375,-0.375,1.1875,0
16920,1.375,-0.5,0.8125,0
16940,1.375,-0.1875,0.5,0
16960,0.8125,-0.125,-0.0625,0
16980,0.3125,-0.0625,-0.25,0
17000,0.3125,0.125,-0.4375,0
17020,0.1875,0.25,-0.875,0
17040,0.0625,0.1875,-0.875,0
17060,-0.125,0.25,-0.6875,0
17080,0.0625,0.125,-0.375,0
17100,0.0625,0.0625,-0.1875,0
17120,0.125,0.1875,0.1875,0
17140,0.375,0.0625,0.5,0
17160,0.5625,0.125,0.5625,0
17180,0.625,-0.1875,0.4375,0
17200,0.625,-0.25,0.4375,0
17220,0.875,-0.0625,0.4375,0
17240,0.6875,-0.3125,0.125,0
17260,0.5625,-0.25,0.25,0
17280,0.4375,-0.125,0.25,0
17300,-0.1875,0,-0.125,0
17320,-0.375,0.125,-0.125,0
17340,-0.5,0.1875,0,0
17360,-0.5625,0.1875,0.25,0
17380,-0.0625,0.1875,0,0
17400,0.1875,0.125,-0.1875,0
17420,0.25,0.125,-0.3125,0
17440,-0.125,0.125,-0.375,0
17460,-0.8125,0.125,-0.375,0
17480,-0.8125,0.1875,-0.3125,0
17500,-0.8125,0,-0.125,0
17520,-0.6875,0,0.25,0
17540,-0.4375,-0.1875,0,0
17560,-0.375,-0.25,-0.125,0
17580,-0.1875,-0.1875,-0.25,0
17600,0.1875,-0.1875,-0.1875,0
17620,0.3125,-0.1875,-0.25,0
17640,-0.0625,-0.125,-0.3125,0
17660,0.0625,-0.0625,-0.375,0
17680,-0.375,0.3125,0.0625,0
17700,-0.625,0.25,0,0
17720,-0.5625,0.1875,-0.1875,0
17740,-0.375,0.1875,-0.375,0
17760,-0.25,0.0625,-0.5625,0
17780,-0.1875,0.125,-0.3125,0
17800,-0.5,0.25,-0.125,0
17820,-0.9375,0.1875,0,0
17840,-1.0625,0.0625,-0.125,0
17860,-0.9375,0.0625,-0.125,0
17880,-0.6875,0,0,0
17900,-0.5,-0.125,-0.125,0
17920,-0.375,0,0,0
17940,-0.625,0.125,0,0
17960,-0.8125,0.1875,0.125,0
17980,-0.8125,0.1875,0.125,0
18000,-0.6875,0.1875,0,0
18020,-0.4375,0.125,0,0
18040,-0.375,0.0625,-0.125,0
18060,-0.5625,0.1875,-0.125,0
18080,-0.8125,0.25,-0.125,0
18100,-0.5,0.1875,-0.125,0
18120,-0.5625,0.125,-0.0625,0
18140,-0.5,0.1875,0.125,0
18160,-0.375,0.0625,0.25,0
18180,0.0625,0,0.125,0
18200,0.25,0,-0.1875,0
18220,0.625,-0.125,-0.25,0
18240,0,-0.125,-0.125,0
18260,-0.3125,-0.0625,-0.125,0
18280,-0.6875,0,-0.125,0
18300,-0.625,0,0,0
18320,-0.375,-0.0625,0.0625,0
18340,-0.3125,-0.125,-0.125,0
18360,-0.125,-0.1875,-0.375,0
18380,0,-0.125,-0.375,0
18400,-0.0625,-0.125,-0.3125,0
18420,-0.375,0,-0.25,0
18440,-0.375,-0.0625,-0.25,0
18460,-0.3125,0.125,0.1875,0
18480,0.125,0.125,0.25,0
18500,0.375,0.0625,0.0625,0
18520,0.6875,-0.125,-0.125,0
18540,0.75,-0.125,-0.25,0
18560,0.5,-0.125,-0.375,0
18580,0.3125,-0.0625,-0.125,0
18600,0.3125,-0.125,0,0
18620,-0.1875,-0.0625,0,0
18640,-0.375,0,0,0
18660,-0.625,0.125,-0.125,0
18680,-0.5,0.125,0,0
18700,-0.5,0.0625,-0.0625,0
18720,-0.1875,0.0625,-0.25,0
18740,-0.3125,0.0625,-0.0625,0
18760,-0.3125,0.0625,0.125,0
18780,-0.375,0.125,0.25,0
18800,-0.375,0.1875,0.1875,0
18820,-0.1875,0,0.0625,0
18840,-0.625,0.1875,0,0
18860,-2.125,0.5,0.25,0
18880,-4.5,0.875,0.625,0
18900,-8.625,1.6875,1.0625,0
18920,-15.5625,1.875,1.1875,0
18940,-25.3125,0.75,1.9375,0
18960,-39.3125,-0.6875,-7.8125,0
18980,-73.875,-6.8125,-18.875,0
19000,-95.375,-18.6875,-17.25,0
19020,-83.9375,-21.125,-19.0625,0
19040,-49.3125,-23.625,-22.3125,0
19060,-39.5625,-24.375,-27.625,0
19080,-50.375,-36.6875,-35.4375,0
19100,-45.25,-60.9375,-62.8125,0
19120,-16.9375,-81.6875,-96.0625,0
19140,1.375,-82.5625,-88.1875,0
19160,3.0625,-77.75,-69.4375,0
19180,-30.125,-84.875,-52.4375,0
19200,-55.5,-90.9375,-45.125,0
19220,-54.375,-95.75,-43.375,0
19240,-44.875,-91.4375,-38.75,0
19260,-36.5,-85.9375,-39.5,0
19280,-32.4375,-83.25,-42.125,0
19300,-36.25,-81,-31.125,0
19320,-40.75,-73.0625,-22.125,0
19340,-38.75,-67.25,-13.75,0
19360,-42.0625,-61.0625,-4,0
19380,-46.625,-58,-0.8125,0
19400,-47.875,-58.9375,-1.1875,0
19420,-38.4375,-60.875,-1.125,0
19440,-29.75,-60.9375,-3.6875,0
19460,-23.5625,-58.375,-6.875,0
19480,-20.625,-54.75,-8.5,0
19500,-17.375,-49.1875,-7.625,0
19520,-12.5625,-44,-6.875,0
19540,-9.625,-36.8125,-7.5,0
19560,-4.75,-29,-8.8125,0
19580,-4.875,-23.3125,-6.5625,0
19600,-9,-19.5625,-7.875,0
19620,-8.875,-14.8125,-9.4375,0
19640,-4.8125,-10,-9.125,0
19660,-8,-6.0625,-9.875,0
19680,-12.5625,-3.1875,-11.9375,0
19700,-11.5,-2.1875,-12.375,0
19720,-11.9375,-0.625,-16.25,0
19740,-10.5,1.25,-19.875,0
19760,-8.125,2.6875,-21.875,0
19780,-6.9375,4.5,-24.9375,0
19800,-4.5625,5.25,-25.3125,0
19820,-2.4375,6.625,-21.0625,0
19840,0.6875,8.8125,-16.6875,0
19860,1.5,9.25,-13.9375,0
19880,1.5,6.6875,-8.5,0
19900,-0.3125,2.6875,-3.625,0
19920,1.1875,-0.5,0.875,0
19930,-1.375,-3.3125,3.75,0
19950,-7.25,-5.6875,3.375,0
19970,-7.5625,-7.8125,1.1875,0
19990,-7.1875,-9.3125,-0.5625,0
20010,-7.5625,-9.75,-3.75,0
20030,-7.1875,-10.4375,-7.5625,0
20050,-4.9375,-10.75,-10.1875,0
20070,-3.625,-11,-11,0
20090,-2.1875,-10.5625,-10,0
20110,-0.875,-9,-7.5,0
20130,-0.375,-6.5625,-4.5,0
20150,1.5625,-4.4375,-0.3125,0
20170,3.625,-2.5625,3.875,0
20190,5.625,-1.375,7.3125,0
20210,6.5,-1.375,10.4375,0
20230,4.6875,-0.8125,13.5,0
20250,3.5,-0.8125,15.875,0
20270,-0.5625,-2.3125,17.5,0
20290,-0.5,-3.6875,15.25,0
20310,-0.75,-6.0625,12.125,0
20330,-3.5625,-9,8,0
20350,-3.8125,-10.875,3.875,0
20370,-3.3125,-12.375,1.875,0
20390,-0.8125,-12.375,-0.8125,0
20410,1,-13.5,-3.4375,0
20430,1.6875,-13.1875,-4,0
20450,2.3125,-12.0625,-3.25,0
20470,4.5,-11.1875,-1.5,0
20490,5.4375,-10.25,-0.5625,0
20510,8.375,-8.9375,1.75,0
20530,8.0625,-6.8125,5.375,0
20550,5.9375,-4.5,8.375,0
20570,6.25,-2.625,11.4375,0
20590,3.8125,-1.25,11.1875,0
20610,0.0625,-1.125,10.25,0
20630,-1.0625,-1.6875,8.5625,0
20650,-0.4375,-1.75,5.9375,0
20670,-2.0625,-1.1875,3.25,0
20690,-3.625,-1.3125,1.5,0
20710,-3.125,-2.125,-0.9375,0
20730,-3.1875,-2.6875,-2.875,0
20750,-2.75,-2.3125,-3.3125,0
20770,-2.4375,-2.3125,-2.6875,0
20790,-1.375,-2.1875,-1.3125,0
20810,-1.5625,-2.3125,-1.1875,0
20830,-0.8125,-2.375,-0.3125,0
20850,-0.5,-2.75,0.125,0
20870,-2.125,-2.875,-0.125,0
20890,-2.25,-2.25,-1.125,0
20910,-0.625,-1.9375,-4.625,0
20930,1.625,-1.6875,-8,0
20950,1.1875,-0.8125,-10.1875,0
20970,2.75,-0.5,-10.125,0
20990,2.5625,-0.125,-11.125,0
21010,3.6875,0.125,-10.9375,0
21030,5.0625,0.75,-9.125,0
21050,5.1875,-0.4375,-5.75,0
21070,5.9375,-1.4375,-2.5625,0
21090,4.5625,-2.125,0.375,0
21110,4.75,-3.4375,1.8125,0
21130,4.3125,-5.0625,4.8125,0
21150,4.75,-6.25,5.875,0
21170,6.0625,-5.9375,6,0
21190,6.8125,-5,5.125,0
21210,7.375,-5.25,5.5625,0
21230,8.875,-5.625,4.4375,0
21250,10.25,-5.125,2.625,0
21270,10.75,-4.125,1.4375,0
21290,11.5,-3.8125,0.9375,0
21310,13.75,-2.25,0.4375,0
21330,12.6875,-1.0625,3.125,0
21350,13.5,-1.5,3.8125,0
21370,15.1875,-0.9375,2.5625,0
21390,16.125,2.375,1.25,0
21410,16.375,4.625,4.75,0
21440,19.3125,9.4375,8.9375,0
21460,19.3125,12.375,9.875,0
21480,13.375,13.125,6.1875,0
21500,9.6875,9.75,4.6875,0
21520,4.9375,6.75,3.6875,0
21540,7.375,0.375,-4.8125,0
21560,11.9375,-2.625,-11.1875,0
21580,25.25,-4.0625,-4.375,0
21600,31.3125,-6.5,1.6875,0
21620,25.875,-6.75,1.3125,0
21640,18.5,-6.875,-1.3125,0
21660,14.6875,-11.25,-4.5,0
21680,8.1875,-13.1875,-9.125,0
21700,0.0625,-12.25,-16.3125,0
21720,-4.5,-10.9375,-22.0625,0
21740,-3.1875,-11.25,-27.9375,0
21760,1.5625,-10.875,-32.8125,0
21780,5.5,-7.375,-35.625,0
21800,5.125,-3.9375,-37.3125,0
21820,6.125,-0.625,-37.0625,0
21840,9.5,3,-34.125,0
21860,16.125,7.625,-29.375,0
21880,21.5625,11.4375,-26.375,0
21900,25.375,13.8125,-24.3125,0
21910,26.75,16.5,-18.5625,0
21930,25.9375,17.375,-10.4375,0
21950,23.8125,18.8125,-3.875,0
21970,20.5,19.875,0.0625,0
21990,17.6875,18.5625,3.75,0
22010,15.6875,15.25,8.1875,0
22030,12,11.4375,9,0
22050,10.1875,6.0625,8.125,0
22070,3.8125,3.0625,6.5625,0
22090,-4.3125,-0.75,4.25,0
22110,-11.1875,-8.9375,-3,0
22130,-20.75,-18.125,-16.3125,0
22150,-22.8125,-25.875,-28.5625,0
22170,-26.3125,-32.6875,-39.6875,0
22190,-27.8125,-41.0625,-46.5,0
22210,-27.3125,-47.0625,-44.3125,0
22230,-31.5,-45.875,-38.6875,0
22250,-39.8125,-38.1875,-26.3125,0
22270,-53.3125,-38.125,-18.9375,0
22290,-53.5625,-41.1875,-13.875,0
22310,-44.1875,-47.5,-11.125,0
22330,-34.75,-45.875,-20.625,0
22350,-10.9375,-36.4375,-16.5,0
22370,-8,-18.8125,1.625,0
22390,-17.1875,11.75,27.875,0
22410,-26.375,20.3125,62.5625,0
22430,-28.25,16.5625,70.9375,0
22450,-27.125,12.375,50.875,0
22470,-5.25,9.1875,37.75,0
22490,10.25,8.4375,32.8125,0
22510,13.5,20.8125,24.6875,0
22530,9.4375,29.75,8.625,0
22550,17.375,31.1875,-8.9375,0
22570,18.5,29.125,-15.25,0
22590,15.5,25.25,-11.75,0
22610,9.1875,21.625,-13.8125,0
22630,10.625,17.3125,-14.625,0
22650,11.5,11.375,-11.625,0
22670,8,6.625,-9.125,0
22690,5.9375,7.4375,-12.25,0
22710,6.4375,6.875,-13.0625,0
22730,14.375,8.625,-8.375,0
22750,9.625,12.8125,-6.5625,0
22770,6.4375,13.8125,-6.9375,0
22790,7.5,12.75,-6.4375,0
22810,4.875,13.5625,-2.8125,0
22830,-2.9375,16.3125,-3.3125,0
22850,-4.375,16.4375,-5.875,0
22870,-2.4375,9.6875,-4.4375,0
22890,0,2.625,-5.0625,0
22910,-2.75,-2,-7.3125,0
22930,-6.5625,-0.5625,-5.375,0
22950,-2.625,-0.4375,-4.0625,0
22970,-1.1875,-0.1875,-6.375,0
22990,3.4375,1.4375,-5.9375,0
23010,-1.75,3.8125,-4.75,0
23030,-0.875,4.0625,-2.125,0
23050,8,1.1875,-0.4375,0
23070,9.375,1.125,0.6875,0
23090,5.3125,1.1875,5,0
23110,-1.125,1.375,7.0625,0
23130,-5.1875,0.875,7.75,0
23150,-5,0.9375,8.5625,0
23170,1.8125,1.875,10.3125,0
23190,4.4375,2.25,7.625,0
23210,7.375,3.1875,11.3125,0
23230,6.4375,4.125,14.375,0
23250,1.75,7.625,12.0625,0
23270,3.5625,9.25,5.8125,0
23290,10.0625,6.625,1.625,0
23310,17.9375,6.375,1.625,0
23330,16.625,4.625,5,0
23350,17.0625,-0.125,9.8125,0
23370,15.125,-1.125,7.4375,0
23390,14.875,-0.875,1.75,0
23410,21.125,2.4375,-1.5625,0
23430,15.6875,6.3125,-7.375,0
23450,17.1875,6.875,-10.0625,0
23470,15.4375,3.3125,-11.6875,0
23490,13.875,-0.6875,-9.3125,0
23510,14.25,2.9375,-5.9375,0
23530,17.4375,5.8125,-4.5625,0
23550,21.5,3.9375,-8.375,0
23570,24.5,2.3125,-13.75,0
23590,25.4375,1.875,-11,0
23610,22,3.25,-4.4375,0
23630,26.3125,2.0625,-7.125,0
23650,27.0625,-1.25,-14.5625,0
23670,30.9375,3.5625,-17.5625,0
23690,28.9375,7.0625,-15.8125,0
23710,26.625,5.25,-13.0625,0
23730,30.875,1.25,-7.6875,0
23750,27.8125,8.5625,-5.5,0
23770,21.4375,15.9375,-5.4375,0
23790,19.6875,15.625,-7.0625,0
23810,21.0625,12.4375,-7.25,0
23830,21.625,8.125,-3.3125,0
23850,18.875,5.5625,0.4375,0
23870,17.25,4.5625,4.1875,0
23890,17.1875,3.875,8.8125,0
23910,15.875,4.3125,12.625,0
23930,12.75,5.125,11.25,0
23950,7.5,5.875,7.875,0
23970,9.375,1.9375,4,0
23990,13.125,-2.875,4.9375,0
24010,13.75,-5.125,9.5,0
24030,9.75,-6.5625,12.1875,0
24050,10.8125,-8.5,11.75,0
24070,11.625,-7.5625,6.9375,0
24090,6.3125,-4,2.625,0
24110,3.8125,-3,2.6875,0
24130,6.8125,-3.1875,2.5625,0
24150,7.125,-3.625,1,0
24170,5.5625,-4.4375,2.375,0
24190,5.375,-6.75,3.875,0
24210,6,-9.4375,0.9375,0
24230,8.25,-14.125,-2.25,0
24250,9.25,-17.0625,-5.0625,0
24270,7.25,-15.9375,-7.6875,0
24290,6.25,-14.25,-8,0
24310,7.3125,-10.125,-6.25,0
24330,4.5625,-5.125,-3.9375,0
24350,6.625,-0.9375,1.3125,0
24370,10.8125,0.25,4.25,0
24390,14.25,4.1875,7.5625,0
24410,9.1875,9.3125,8.5625,0
24430,9.0625,10.0625,7.4375,0
24450,13.4375,7.4375,6.6875,0
24470,16.5,7.8125,9.125,0
24490,15.375,7.375,9.875,0
24510,14,6.625,10.0625,0
24530,10.75,4,8.875,0
24550,5.0625,-1.4375,10,0
24570,3.25,-5.3125,11.75,0
24590,-1.9375,-8.8125,11.3125,0
24610,-7.3125,-10.6875,11.6875,0
24630,-6,-10.1875,10.1875,0
24650,-7.75,-7.625,8.0625,0
24670,-8.6875,-7.125,8,0
24690,-6.75,-7.0625,7.75,0
24710,-5.25,-4.4375,5.5625,0
24730,-4.9375,-0.8125,1.5,0
24750,-5.6875,3.4375,-1.625,0
24770,-6.5,6.625,-4.9375,0
24790,-6.125,9.6875,-6.375,0
24810,-6.125,12.375,-6.4375,0
24830,-6,15.8125,-4.375,0
24850,-5.625,17,-2.6875,0
24870,-4.6875,16.75,-0.75,0
24890,-2.9375,15.8125,1.4375,0
24910,-0.375,15.125,2.75,0
24930,0.25,13.9375,4.75,0
24950,1.875,14.375,7.8125,0
24970,2.1875,14.375,9.5625,0
24990,1.5,12.8125,7.25,0
25010,-3.4375,9.125,2.9375,0
25030,-5.875,6.5,-5.625,0
25050,-6,6.875,-7.5625,0
25070,-7,9.375,-3.1875,0
25090,-9.4375,11.25,1.25,0
25110,-10.5,9.4375,2.5,0
25130,-10.9375,8.875,-2.9375,0
25150,-12.125,11.8125,-11.6875,0
25170,-15.125,11.75,-16.5,0
25190,-13.125,4.75,-13.375,0
25210,-6.875,-2.5625,-11.5625,0
25230,-2.125,-6.125,-10.9375,0
25250,-2.3125,-7.0625,-13.875,0
25270,-9.375,-9.3125,-17.5,0
25290,-3.5625,-13.75,-15.75,0
25310,1.125,-20.0625,-14.875,0
25330,0.625,-21.4375,-14,0
25340,-2,-14.375,-11.6875,0
25360,-8.5625,-6.1875,-11.5,0
25380,-11.9375,-9.625,-12.5,0
25400,-5.4375,-16.6875,-8.625,0
25420,-5.9375,-15.4375,-9.125,0
25440,-8.125,-13.9375,-12.1875,0
25460,-2.6875,-14.125,-10.0625,0
25480,-3.1875,-16.0625,-8.75,0
25500,-2.75,-13.625,-8.125,0
25520,-2.4375,-8.8125,-6.5625,0
25540,0.6875,-4.75,-3.625,0
25560,4.625,-3.3125,-0.25,0
25580,4.5625,2.875,-0.4375,0
25600,2.25,14.0625,-1.0625,0
25620,2.3125,20.75,-1.6875,0
25640,1.875,18.1875,-1.125,0
25660,1.625,9.875,-0.875,0
25680,-1.875,3.875,-3.875,0
25700,-5,1.6875,-7.0625,0
25720,-8.5625,-1,-6.6875,0
25740,-1.4375,-3.4375,-0.6875,0
25760,0.75,-3.5625,-1.375,0
25780,-2.75,-2.0625,-6.8125,0
25800,-2.9375,0.875,-11,0
25820,-0.125,3.125,-10,0
25840,5.1875,3.1875,-4.5625,0
25860,4.875,5.4375,-0.25,0
25880,1.9375,8,1.5,0
25900,2.75,9.9375,1.875,0
25920,3.4375,15.4375,-0.25,0
25940,6,22.625,-3.25,0
25960,5.9375,27.5,-5.0625,0
25980,6.5625,26.125,-4.875,0
26000,5,20.875,-3.9375,0
26020,0.5625,16.5,-3.875,0
26040,-2.3125,13.3125,-1.75,0
26060,-2.125,11.6875,1.125,0
26080,-1.4375,8.5,-0.375,0
26100,-1.75,5.75,-3.9375,0
26120,-3.8125,4.75,-3.4375,0
26140,-4.6875,3.9375,-1.8125,0
26160,0.75,1.875,-0.1875,0
26180,3.25,3.125,-0.75,0
26200,2.625,6.3125,-3.6875,0
26220,1.75,5.9375,-7.9375,0
26240,2.4375,4.1875,-6.375,0
26260,1.875,5,-6.0625,0
26280,1.625,4.5625,-5.375,0
26310,2.375,-1.875,-1.5625,0
26330,3.6875,-6.125,0.5,0
26350,3.5625,-5.625,2.6875,0
26370,1.875,-3.375,4.0625,0
26390,0.6875,-1.9375,3.5625,0
26410,2,-6.4375,3.625,0
26430,3.0625,-10.75,5.1875,0
26450,1.0625,-10,8.125,0
26460,-0.75,-9.5,6.8125,0
26480,0.3125,-14.0625,8.125,0
26500,3.6875,-14.1875,7.5,0
26520,-0.4375,-9.0625,2.8125,0
26540,-2.125,-4.4375,1.375,0
26560,-4,-3.5,-0.625,0
26580,-4.75,-5.625,1.125,0
26600,-4.5,-7.875,3.6875,0
26620,-7.25,-10.75,5.25,0
26640,-6.125,-13,7.875,0
26680,-9.4375,2.3125,12.3125,0
26700,-9.8125,1.875,8.6875,0
26720,-11.4375,1,4.75,0
26740,-16.6875,0.75,1.4375,0
26760,-25.375,0.5,-1.75,0
26790,-38.25,-0.875,-9.375,0
26810,-40.875,-2.75,-15.1875,0
26830,-38.75,-3.125,-21.25,0
26850,-39.375,-3.375,-24.4375,0
26870,-44.25,-0.875,-24.0625,0
26890,-46.75,2.25,-24.1875,0
26910,-48.25,6.6875,-22.1875,0
26930,-48.375,12.25,-20.8125,0
26950,-49.5625,19.0625,-17.5,0
26970,-50,19.125,-9.6875,0
26990,-49.625,22.125,-3.9375,0
27010,-40.875,26.25,2.625,0
27030,-39.1875,31.1875,4.0625,0
27050,-33.8125,28.75,1.125,0
27070,-32.875,20.8125,0.875,0
27090,-22.8125,13.8125,1.75,0
27110,-16.5,11.25,2,0
27130,-10.8125,8.25,-1.3125,0
27150,-5.375,5.5,-3.1875,0
27170,-6,2.75,-2.375,0
27190,-5.625,0.3125,3.625,0
27210,-9.5625,1.6875,5.0625,0
27230,-9,6.125,7.375,0
27250,-3.5625,9.4375,8.875,0
27270,-1,11.625,8.0625,0
27290,-0.5,13.625,5.4375,0
27300,-1.125,13.5625,3.625,0
27320,-1.125,12.8125,6.5,0
27340,-1.5,10.8125,9.625,0
27360,-2.25,8.875,7.625,0
27380,2.375,8.375,4.3125,0
27400,2.625,9.625,2.9375,0
27420,0.4375,10.3125,2.375,0
27440,-2.8125,8.625,3.625,0
27460,-6.125,4.5,3.5,0
27480,-6.3125,1,1.5,0
27500,-1.75,0,-1.4375,0
27520,2.625,-1.375,-6.125,0
27540,7.3125,-2.875,-7.4375,0
27560,8.625,-4.375,-6.0625,0
27580,6.4375,-7.25,-4.9375,0
27600,7.9375,-9.25,-5.75,0
27620,7.5625,-7.125,-7.5625,0
27640,10.125,-6,-6.5625,0
27660,6.3125,-6.625,-7.4375,0
27680,6.6875,-9.875,-6.3125,0
27710,-3.125,-11.0625,-3.4375,0
27730,-5.75,-8.75,-1,0
27750,-7.3125,-6.5,-0.875,0
27770,-4.3125,-6.375,-1.625,0
27790,-2.9375,-5.125,-3.1875,0
27810,-3.625,-1.9375,-4.75,0
27830,-3.4375,0,-5.0625,0
27850,-2.5625,2.625,-3.625,0
27870,-2.125,4.5625,-2.0625,0
27890,-0.25,5.0625,-0.75,0
27910,0.5,5.5625,-1.125,0
27930,-1.5,6.8125,-0.75,0
27950,-2.4375,6.8125,-0.3125,0
27970,-0.8125,5.5625,-0.4375,0
27990,0.4375,3.4375,1,0
28010,-1.625,2.3125,3.6875,0
28030,-1.75,2.1875,3.9375,0
28050,-1.0625,2.375,2.4375,0
28070,-0.9375,1.8125,1.375,0
28090,-0.125,0.5,2.4375,0
28110,-0.6875,-0.25,2.4375,0
28130,-1.0625,0.125,1.25,0
28150,0.4375,0.375,-0.5,0
28170,0.5625,0.125,-1.1875,0
28190,1.1875,-0.375,-0.875,0
28210,2.0625,-0.875,-1,0
28230,4,-1.0625,-1.4375,0
28250,3.8125,-0.4375,-1.1875,0
28270,3.375,-0.125,-0.9375,0
28290,2.9375,0.5,-1.625,0
28310,3.3125,0.6875,-1.875,0
28330,3.875,0.5625,-0.9375,0
28350,4.125,0.5,0,0
28370,2.875,0.1875,-0.6875,0
28390,2.4375,-0.125,-2.125,0
28410,2.875,-1.375,-3.0625,0
28430,2.5625,-1.8125,-3.75,0
28450,1.375,-0.8125,-3.6875,0
28470,0.25,-1.1875,-2.875,0
28490,-1.375,-2.6875,-0.5,0
28510,-2.1875,-3.625,1,0
28530,-1.25,-3.0625,0.0625,0
28550,1.1875,-1.4375,-1.5625,0
28570,0.6875,-1,-1.875,0
28590,-0.5625,-1.1875,-1.625,0
28610,-0.3125,-0.0625,-1.25,0
28630,-0.3125,1.5625,-0.9375,0
28650,-0.8125,2.5625,0.25,0
28670,-2.3125,3.125,0.25,0
28690,-3.5625,2.8125,0.25,0
28710,-3.25,1.4375,0.9375,0
28730,-5.125,0.375,1.9375,0
28750,-4.125,-0.4375,1.6875,0
28770,-2.125,-0.9375,1.125,0
28790,-0.8125,-1.8125,0.875,0
28810,-0.9375,-2.1875,0.6875,0
28830,-1,-1.4375,0,0
28850,0.125,-0.8125,0.25,0
28870,1.0625,-0.125,0.875,0
28890,1.25,1.0625,0.375,0
28910,1.4375,1.0625,-0.25,0
28930,0.5625,0.8125,-0.125,0
28950,-0.1875,0.6875,-0.1875,0
28970,-0.0625,0.625,-0.1875,0
28990,-0.1875,0.375,-0.125,0
29010,-0.5,0.1875,0.375,0
29030,-1.4375,-0.0625,0.3125,0
29050,-0.8125,-0.4375,0.125,0
29070,-1.125,-0.4375,-0.25,0
29090,-1.125,-0.125,0.0625,0
29110,-0.6875,0,0.6875,0
29130,-0.25,-0.25,1,0
29150,-1,-0.3125,1,0
29170,-0.375,-0.0625,0.75,0
29190,-0.6875,0,0,2000
29210,-0.3125,0.125,0.5,0
29230,-0.0625,-0.125,1.3125,0
29250,-0.625,-0.0625,2.0625,0
29270,-0.9375,-0.875,1,0
29290,-0.4375,-0.625,-1.8125,0
29310,0.125,0.125,-4.25,0
29330,-0.8125,-0.25,-3.9375,0
29350,-2.4375,-1.3125,-2,0
29370,-2.75,-1.375,-0.125,0
29390,-2.875,-1.375,0.9375,0
29410,-3.6875,-1.3125,0.875,0
29430,-2.5,-1.5,-0.25,0
29450,-2,-1.5625,-0.375,0
29470,-2.375,-1.625,-0.0625,0
29490,-1.625,-2.8125,0.0625,0
29510,-0.5,-3.875,0,0
29530,0.25,-3.9375,0.0625,0
29550,0.125,-3.875,-0.5,0
29570,0.3125,-3.6875,-0.875,0
29590,1.5,-4.1875,0.375,0
29610,0.6875,-6.3125,2.4375,0
29630,-1.5625,-8.0625,2.9375,0
29650,-3.75,-9,3.4375,0
29670,-2.875,-10.4375,4.125,0
29690,0.25,-12.125,3.6875,0
29710,0.4375,-13.25,2.875,0
29730,-0.625,-13.25,3.875,0
29750,-1.25,-13.875,4,0
29770,0.125,-16.375,3.5625,0
29790,-1.6875,-19.3125,4.9375,0
29810,-4.375,-18,5,0
29830,-2.9375,-16.5625,3.625,0
29850,0.875,-16.0625,0.1875,0
29870,1.8125,-17.6875,-1.3125,0
29890,-0.1875,-19,-0.0625,0
29910,-4.3125,-18.9375,1.4375,0
29930,-2.9375,-22.9375,-0.875,0
29950,-0.5,-26.25,-3.4375,0
29970,-2.8125,-26.5,-3.375,0
29990,-3.6875,-23.375,-2.8125,0
30010,-2.0625,-25.125,-6.9375,0
30040,-1.6875,-29.125,-13.9375,0
30060,-5,-28.375,-15.6875,0
30080,-5.75,-27.875,-18.5625,0
30100,-3.875,-29.375,-22.1875,0
30120,-10.125,-21.9375,-24.9375,0
30140,-11.9375,-19.4375,-28.625,0
30150,-13.9375,-17.5625,-30.375,0
30170,-13.3125,-18.6875,-34.8125,0
30190,-15.8125,-19.75,-38.6875,0
30210,-21.0625,-18.4375,-42.375,0
30230,-23.625,-18.1875,-44.875,0
30250,-24.125,-16.6875,-46.75,0
30270,-26,-12.25,-49.125,0
30290,-28.75,-8.5625,-49.5,0
30310,-30.0625,-5.4375,-50.5625,0
30330,-32.3125,-0.3125,-53,0
30350,-34.5625,6.9375,-54,0
30370,-36.75,14.25,-54.4375,0
30390,-36.8125,21.75,-53.8125,0
30410,-36.1875,28.25,-51.1875,0
30430,-33.4375,34,-48.625,0
30450,-34.25,39.9375,-46.5,0
30470,-34.5,46.0625,-44,0
30500,-36.25,55.9375,-39.5,0
30510,-36.1875,63.5,-39.0625,0
30530,-35.25,64.4375,-41.3125,0
30550,-35.9375,60.6875,-40.4375,0
30570,-34.875,60.4375,-33.3125,0
30590,-35.75,57.25,-24,0
30620,-39.4375,54.75,-22.5,0
30630,-35.125,55.5,-22.875,0
30650,-27.75,53.625,-17.6875,0
30670,-23.6875,52.875,-10.8125,0
30690,-21.5625,47.6875,-7.8125,0
30710,-17.6875,45.4375,-7.125,0
30730,-17.875,47.625,-2.125,0
30750,-17,47.625,0.375,0
30770,-7.5,38.875,-4.1875,0
30790,-0.5,29.5,-2.3125,0
30810,-7.6875,30.5,7.0625,0
30830,-7.4375,35.75,10.9375,0
30850,-10.4375,28.9375,8.4375,0
30870,-5.1875,24.0625,5.5625,0
30890,2.75,20.5625,7.6875,0
30910,-3.1875,19.8125,14.0625,0
30930,-6.625,19.5,18.4375,0
30950,-7.125,18.375,22.25,0
30970,-10.125,17.3125,24.4375,0
30990,-7.5,13.75,24,0
31010,-5.125,9.25,26.625,0
31030,-7.625,11.125,30.8125,0
31050,-6.6875,13.125,37.0625,0
31070,-10.25,10.6875,45.0625,0
31090,-15.5,9.5,49.4375,0
31110,-13,9.375,48.8125,0
31130,-6.0625,7.25,44.75,0
31150,-3.3125,3.3125,44.1875,0
31170,-4.875,1.6875,45.625,0
31190,-12.9375,0.8125,42.5,0
31210,-13.875,-0.8125,40.6875,0
31230,-5.6875,-2.6875,39.1875,0
31250,-1.625,-5.3125,37.6875,0
31270,0.0625,-7.5,38.125,0
31290,-3.5,-8.25,37.1875,0
31310,-5.625,-10.625,36.3125,0
31330,-7.8125,-14.25,37,0
31350,-7.0625,-17,37.75,0
31370,-8.1875,-18.5625,37.0625,0
31390,-10.1875,-20.1875,35.75,0
31410,-10.625,-22.1875,37.3125,0
31430,-13.875,-24.4375,37.1875,0
31450,-14.9375,-29.6875,34.3125,0
31470,-12.25,-33.3125,29.625,0
31490,-8.75,-35.5,28.3125,0
31510,-11.8125,-43.0625,28.25,0
31530,-14.4375,-48.75,27.5,0
31550,-16.5625,-52.1875,25.125,0
31570,-20.8125,-57.0625,22,0
31590,-21.125,-60.6875,20.3125,0
31610,-16.8125,-62.125,18.1875,0
31630,-12.6875,-61.8125,15.3125,0
31650,-13.5625,-62.4375,13.5625,0
31670,-18.5,-62.4375,9.625,0
31690,-9.375,-58.9375,6.75,0
31710,-1.3125,-58.4375,1.9375,0
31730,-0.625,-60.5625,-1.875,0
31750,-7.5625,-61.0625,-4.5,0
31770,-2.375,-60.3125,-7.5625,0
31790,5.875,-58.625,-14.1875,0
31810,9.25,-58.3125,-18.0625,0
31830,-2.4375,-55.875,-12.1875,0
31850,-7.125,-56.375,-9.5625,0
31870,1.0625,-55.5,-15.875,0
31890,9.375,-56.25,-19.9375,0
31910,0.9375,-56.5,-19.9375,0
31930,-13.6875,-53.9375,-8.6875,0
31950,-19.8125,-51.5625,-9.5625,0
31970,-12.5625,-51.625,-18.375,0
31990,-9.5,-44.9375,-19.25,0
32010,-13.75,-38.625,-14.375,0
32030,-16.5,-37.6875,-16.5,0
32050,-15.9375,-40.3125,-24.75,0
32070,-17.1875,-39.375,-32.875,0
32090,-14.3125,-29.9375,-35.875,0
32110,-9.125,-18.3125,-43,0
32130,-5.5625,-19.375,-54.3125,0
32150,-3.875,-21.0625,-63.0625,0
32170,-8.9375,-18,-65.8125,0
32190,-16.625,-10.375,-65.4375,0
32210,-17.0625,-5.5625,-70.4375,0
32230,-18.25,-0.25,-73.4375,0
32250,-17.375,4.9375,-65.1875,0
32270,-29.0625,7.0625,-56.0625,0
32290,-33.5,13,-57.5625,0
32310,-35.4375,22.5625,-61.3125,0
32330,-36.375,31.4375,-57.25,0
32350,-38.75,32.5625,-52.8125,0
32370,-40.0625,36.4375,-48.8125,0
32390,-38.1875,45.0625,-45,0
32410,-36.25,52.25,-44.4375,0
32430,-35.5625,56.5,-42.4375,0
32450,-34,59.875,-38.625,0
32470,-31.3125,62.8125,-36.0625,0
32490,-32.125,64.9375,-36.25,0
32510,-31,67,-33.875,0
32530,-29.1875,68.25,-25.5625,0
32550,-26.125,67.6875,-19.6875,0
32570,-26.625,65.9375,-17.5,0
32590,-25.5,62.1875,-13.1875,0
32610,-22.5625,57.0625,-5.6875,0
32630,-18.5625,54.875,1.3125,0
32640,-15.4375,53.375,4.5,0
32660,-12.375,52.125,8.5625,0
32680,-11.5625,44.4375,10.125,0
32700,-10.4375,35.8125,10.9375,0
32720,-8.75,34.5,16.75,0
32740,-6.0625,33.9375,19.8125,0
32760,-1.0625,29.75,16.8125,0
32780,1.75,22.375,19.875,0
32800,3.625,21.8125,25.6875,0
32820,0,24.1875,32.6875,0
32840,-0.125,25.5,30.25,0
32860,-1.5,22.0625,32.75,0
32880,1.25,18.3125,38.3125,0
32900,0.6875,19.6875,44.0625,0
32920,-2.1875,22.6875,45.6875,0
32940,-4.375,22.75,47.6875,0
32960,-6.3125,21.875,47.3125,0
32980,-6.8125,16.6875,48.6875,0
33000,-2.8125,12.1875,51.625,0
33020,-2.4375,12,49.25,0
33040,-2.125,8.6875,45.9375,0
33060,-5.625,4.1875,45.1875,0
33080,-6.4375,-0.5625,45.75,0
33100,-6.625,-4.1875,43.8125,0
33120,-9.25,-10.5625,41.5,0
33140,-5.1875,-12.5,37.625,0
33160,-0.875,-14.8125,37.1875,0
33180,-2.3125,-17.1875,38.625,0
33200,-3.125,-17.375,37.8125,0
33220,-1.5,-17.75,36.0625,0
33240,0.625,-19.5625,32.25,0
33260,5.3125,-24.5,31.625,0
33280,3.8125,-25.875,30.8125,0
33300,-0.1875,-27.0625,29.8125,0
33320,-3.1875,-31.875,29,0
33340,-1.0625,-35.1875,26.0625,0
33360,3.1875,-37.25,23.625,0
33380,1.8125,-40.3125,23.0625,0
33400,-1.4375,-44.625,21.375,0
33420,-2.75,-50.5,18.375,0
33440,-1.375,-53.875,16.9375,0
33460,-5.625,-58.1875,17.3125,0
33480,-13.3125,-63.875,16,0
33500,-12.375,-66.6875,10.75,0
33520,-5.625,-66,6.4375,0
33540,-3.5625,-67.25,4.125,0
33560,-9.25,-69.1875,1.3125,0
33580,-5.375,-66.125,-5.0625,0
33600,4.25,-62.3125,-9.625,0
33620,7.8125,-63.625,-11.375,0
33640,-1.3125,-66.25,-11.625,0
33660,2.25,-64.6875,-16.6875,0
33680,10.5625,-55.875,-24.8125,0
33700,18.125,-51.0625,-24.4375,0
33720,2.375,-53.125,-18.5625,0
33740,2.0625,-53.4375,-18.125,0
33760,9.375,-45.4375,-28.875,0
33780,16.125,-40.25,-35.5625,0
33800,1.125,-40.6875,-34.1875,0
33820,-1.75,-39.5625,-32,0
33840,-2.625,-35.1875,-36.1875,0
33860,2.0625,-26.8125,-40.5625,0
33880,-2.3125,-22.9375,-41.375,0
33900,-1.9375,-22.8125,-44.8125,0
33920,-3.25,-18.375,-49.1875,0
33940,-9.4375,-11.625,-49.125,0
33960,-17.25,-3.625,-45.75,0
33980,-16.8125,-2.6875,-49.0625,0
34000,-16.3125,0.125,-51.9375,0
34020,-19.5,7.1875,-51.375,0
34040,-21.5,17.125,-45.75,0
34060,-24.375,23.125,-44.375,0
34080,-22.9375,23.6875,-49.25,0
34100,-27.3125,23.1875,-50.25,0
34120,-31.3125,27.875,-47,0
34140,-32.5,32.5625,-44.8125,0
34160,-30.1875,35.9375,-45.625,0
34180,-28.9375,39.5625,-46.25,0
34200,-29.9375,40.8125,-43.625,0
34220,-30.25,42.125,-41.1875,0
34240,-27.1875,43.5,-41.375,0
34260,-27.3125,45.875,-40.375,0
34280,-28.3125,47.1875,-36.9375,0
34300,-27.1875,45.9375,-32.625,0
34320,-24.9375,45.3125,-30.125,0
34340,-24.5625,45.6875,-28.75,0
34360,-23.9375,48.125,-24.25,0
34380,-23.125,51.5,-16,0
34390,-17.75,53.0625,-8.4375,0
34400,-14.3125,53.1875,-5.875,0
34420,-14.25,51.4375,-6.5625,0
34440,-13.5,50.875,0.0625,0
34460,-12.5625,51.375,6.875,0
34480,-7.375,50.625,13.1875,0
34500,-8.0625,47.5625,15.3125,0
34520,-13.5625,44.375,17.25,0
34540,-10.6875,44.25,21.375,0
34560,-10.0625,42.1875,22.9375,0
34580,-6,39,27.4375,0
34600,-7.25,34.9375,32.25,0
34620,-8.625,31.25,29.875,0
34640,-8.25,30.375,30.4375,0
34660,-5.25,32.375,31.1875,0
34680,-0.125,30.4375,37.4375,0
34700,-5.5,25.8125,44.75,0
34720,-12.4375,24.25,44.375,0
34740,-12.0625,25.6875,39.75,0
34760,-6.5625,22.125,40.625,0
34780,-5.3125,12,43.375,0
34800,-8.5,6.5625,42.4375,0
34820,-15.375,4.75,40,0
34840,-15.375,6.75,38.0625,0
34860,-12.5,1.875,40.75,0
34880,-8.0625,-1,42.1875,0
34900,-10.4375,-1.5,40.8125,0
34920,-11.0625,-1.5,36.3125,0
34940,-7.75,1.1875,34.375,0
34960,-8.75,-3.5,33.0625,0
34980,-10.75,-9.75,32.4375,0
35000,-8.5625,-10.75,27.9375,0
35020,-2.375,-12.5625,23.375,0
35040,-0.75,-16.3125,23.5625,0
35060,-5.0625,-20.8125,21.625,0
35080,-6.75,-22.5625,20.25,0
35100,-4.875,-23.5625,19.75,0
35120,-2.125,-27.9375,17.625,0
35140,0.125,-31.25,18.4375,0
35160,-0.5625,-36.1875,18.375,0
35180,-4.5625,-39.1875,17.1875,0
35200,-9.8125,-40.375,19,0
35220,-13.4375,-45.0625,19.375,0
35240,-12.875,-46.8125,18.5625,0
35260,-13.875,-49.1875,16.3125,0
35280,-14.125,-47.5625,14.4375,0
35300,-10.1875,-49.0625,12.1875,0
35320,-6.5625,-52.8125,9,0
35340,-4.875,-53.25,6.4375,0
35360,-7.9375,-51.625,6.3125,0
35380,-10.875,-50.25,3.8125,0
35400,-7.6875,-50.3125,0.9375,0
35420,-2.1875,-50.5,-3.875,0
35440,-3.5625,-53.875,-4.25,0
35460,-6.375,-55.3125,-4.375,0
35480,-5.5,-52.75,-7.25,0
35500,-2.6875,-47.8125,-8.875,0
35520,-1.6875,-48.125,-10,0
35540,0.5625,-47.375,-11.0625,0
35560,3.375,-45.125,-15.3125,0
35580,3.5625,-45.25,-18.75,0
35600,6.8125,-43.4375,-19.5625,0
35620,11.75,-41.5625,-22,0
35640,13.375,-43.5625,-26.25,0
35660,10.4375,-43.4375,-28.125,0
35680,8.375,-39.9375,-26.6875,0
35700,9.0625,-33.375,-25.25,0
35720,14.0625,-29.5625,-28.0625,0
35740,14,-29.375,-28.9375,0
35760,8.1875,-29.5,-29.125,0
35780,4.875,-28.5,-30.25,0
35800,12.0625,-25.3125,-33.0625,0
35820,13.25,-22.3125,-32.25,0
35840,10,-22.875,-28.3125,0
35860,4,-23.6875,-27.3125,0
35880,7.9375,-21.9375,-30.625,0
35900,11.5625,-17.75,-32,0
35920,8.5,-16.375,-28.9375,0
35940,3.8125,-15.75,-26.6875,0
35960,4.0625,-13.5,-28.1875,0
35980,8.375,-9.0625,-30.9375,0
36000,7.8125,-7.9375,-27.625,0
36020,5.5,-5,-22.625,0
36030,5,-1.8125,-21.75,2001
36050,4.5625,1.75,-22.3125,0
36070,1.6875,1.625,-19.5,0
36090,0.8125,1.75,-16.3125,0
36110,1.0625,2.4375,-13.25,0
36130,-0.4375,4.3125,-8.75,0
36150,-3.375,4,-6.3125,0
36170,-3.5625,3.5625,-4.8125,0
36190,-3.3125,3.4375,-0.9375,0
36210,-1.75,3.125,2.8125,0
36230,-0.6875,1.75,1.625,0
36250,-2.375,0.8125,1,0
36270,-0.375,-1.25,1.1875,0
36290,2.5,-4.25,3.4375,0
36310,3.75,-4.1875,6.25,0
36330,7.0625,-0.75,3.6875,0
36350,6.8125,1.6875,-2.3125,0
36370,5.625,3.875,-4.625,0
36390,9.4375,3.625,-4.6875,0
36410,11.5,4.0625,-1.4375,0
36430,13.6875,5.25,-0.8125,0
36450,16.8125,6.125,-3.3125,0
36470,18.625,11.3125,-1.375,0
36490,17.5625,17.3125,4.5625,0
36510,20.9375,21.375,11.6875,0
36530,28.625,24.75,13.3125,0
36550,33.6875,31.375,13.5625,0
36570,33.9375,40.875,18.1875,0
36590,25.5,47.375,30.5,0
36610,31.375,54.375,41.75,0
36630,40.25,66.375,52.25,0
36650,39.8125,75.5625,57.9375,0
36670,35.5,77.4375,58.9375,0
36690,33.8125,75.375,61.5,0
36710,38.25,77,70.3125,0
36730,35.6875,81.875,77.625,0
36750,31.375,81.1875,76.625,0
36770,34.875,75.5625,77.3125,0
36790,31.1875,70.3125,84.375,0
36810,24.3125,63.3125,94.375,0
36830,17.75,52.1875,91.5625,0
36850,17.0625,46,79.125,0
36890,15.5625,35.375,55.5625,0
36910,13.9375,22.6875,49.8125,0
36930,9.8125,10.4375,45.0625,0
36950,7.875,6.4375,39.9375,0
36970,4,5.5,29.75,0
36990,7.3125,2.4375,19.9375,0
37010,12.125,-4.625,12.0625,0
37030,14.5,-9.5,8.4375,0
37050,13.75,-9.3125,7.875,0
37070,9,-10.1875,3.5625,0
37090,7.75,-10.0625,0.3125,0
37110,10.8125,-10.625,-0.125,0
37130,11.75,-9.625,2,0
37150,8.0625,-6.1875,4.875,0
37170,6.125,-3.3125,5.5,0
37190,5.9375,-3.0625,4.5625,0
37210,6.5625,-4.375,5.4375,0
37230,5.25,-3,7.25,0
37250,4.25,-0.5,5.125,0
37270,8.25,-0.125,3.625,0
37290,7.4375,-1.1875,4.125,0
37310,3.9375,-0.875,4.3125,0
37330,2.8125,-0.3125,3.3125,0
37350,4,-0.0625,3.0625,0
37370,3.6875,0.25,3.3125,0
37390,1.125,0.5,3.0625,0
37410,-1.125,0.1875,2.3125,0
37430,-0.3125,-0.75,2.375,0
37450,0.125,-0.3125,1.5,0
37470,-0.125,-0.375,0.125,0
37490,-0.1875,-1.75,-0.6875,0
37510,0.8125,-2.9375,-0.6875,0
37530,0.3125,-2.4375,0.75,0
37550,-1.6875,-1.75,1.3125,0
37570,-0.4375,-1.8125,0.875,0
37590,0.25,-1.5625,0.5,2000
37610,-0.6875,-0.6875,2.625,0
37630,-2.875,-1.0625,2.75,0
37650,-2.4375,-1.4375,-1.5,0
37670,-0.875,-1.4375,-3.375,0
37690,-0.625,-1.125,-1.375,0
37710,-0.6875,0.1875,2.5625,0
37730,-1.3125,0.75,6.25,0
37750,-1.8125,-1.75,4.6875,0
37770,-1.625,-3.8125,0.1875,0
37790,-2.5,-6.8125,-2.25,0
37810,-1.5625,-9.75,-2.5625,0
37830,-1.4375,-11.625,-1.875,0
37850,-1.125,-13,-1.4375,0
37870,-0.5,-13.25,0.125,0
37890,-2.3125,-14.0625,0.6875,0
37910,-3.375,-15.875,1.25,0
37930,-2.3125,-17.0625,2.625,0
37950,-1.5,-17.6875,2.0625,0
37970,-1,-19.4375,-1.625,0
37990,-0.8125,-22.4375,-4.4375,0
38010,-2.25,-24.875,-4.8125,0
38020,-3.4375,-23.9375,-3.25,0
38040,-1,-21.4375,-1.5,0
38060,0.4375,-22.75,-6.9375,0
38080,1.5,-25,-11.125,0
38100,1.75,-25.75,-10.625,0
38120,1.6875,-24.5,-11.0625,0
38140,3.4375,-23.9375,-12.0625,0
38160,2.1875,-25.25,-14.6875,0
38180,1.375,-26.6875,-16,0
38200,0.3125,-25.75,-16.375,0
38220,-0.9375,-24.6875,-16.8125,0
38250,-3.5,-16.0625,-14.3125,0
38270,-1.8125,-16,-15.125,0
38290,-1.875,-16.125,-17.1875,0
38310,-3.25,-13.125,-17.5625,0
38330,-5.625,-13.5625,-18.1875,0
38350,-6.4375,-13.375,-21.5625,0
38370,-4.9375,-10.5,-21.0625,0
38390,-5.6875,-6.6875,-21.9375,0
38410,-6.5625,-4.375,-24.8125,0
38430,-8.6875,-3.0625,-26.4375,0
38450,-11.1875,-1.25,-30.0625,0
38470,-9.3125,2.125,-31.3125,0
38490,-9.5625,5.75,-33.625,0
38510,-9,5.625,-34,0
38530,-11.6875,6.375,-36.75,0
38540,-17.0625,8.9375,-38.8125,0
38560,-19.25,12.125,-39.5625,0
38580,-17.4375,16.75,-38.6875,0
38600,-13.6875,21.5,-37.9375,0
38620,-15.375,25.4375,-41.125,0
38640,-18.4375,28.25,-43.0625,0
38660,-20.125,29.9375,-41.6875,0
38680,-17.125,33,-40.8125,0
38700,-16.8125,35.5,-42.5,0
38710,-18.125,36.125,-46.5625,0
38720,-18.9375,36.4375,-48.4375,0
38740,-20.25,38.1875,-46.8125,0
38760,-20.5,38.4375,-45.0625,0
38780,-20.625,37.875,-44.5,0
38800,-21.6875,39.9375,-44.75,0
38810,-23.5,41.5625,-43.375,0
38830,-24.5,42.5,-40.375,0
38850,-23.875,42.9375,-35.9375,0
38870,-26.25,44.625,-32,0
38890,-25.6875,47.6875,-31.1875,0
38910,-24.8125,49.25,-29.6875,0
38920,-27.3125,47.75,-23.875,0
38940,-26.6875,45.4375,-25,0
38960,-22.5,43.1875,-22.5625,0
38980,-19.4375,41.5625,-21.625,0
39000,-20.8125,39.9375,-24.625,0
39020,-18.375,39,-25.4375,0
39040,-17.125,36.1875,-23.5,0
39060,-13.4375,33.5625,-17.75,0
39080,-14.75,34.8125,-13.9375,0
39100,-15.625,35.75,-13.8125,0
39120,-12.25,34.25,-14.3125,0
39140,-10.125,31.25,-11.625,0
39160,-9.8125,28.75,-5.6875,0
39180,-10.6875,28.125,-3.5,0
39200,-7.8125,28.0625,-1.8125,0
39220,-3.25,27.5,-1.1875,0
39240,-4.1875,26.625,1.5,0
39260,-5.5,26.5,2.375,0
39280,-9.4375,21.25,5.9375,0
39300,-7.8125,20.25,13.5625,0
39320,-6.375,21.5,15.5,0
39340,-3.4375,20.875,12.875,0
39360,0.5625,18.0625,9.6875,0
39380,1.0625,18.0625,13.4375,0
39400,-0.75,19.125,21.625,0
39420,-3.5,18.625,27.125,0
39440,-6.875,17.5625,28.6875,0
39460,-5.3125,17.0625,29.0625,0
39480,-3.5,15.75,33.5,0
39500,-6.1875,12.875,40.6875,0
39520,-12.6875,12.4375,46.1875,0
39540,-14.875,10.3125,45.625,0
39560,-17.5625,8.375,43.4375,0
39580,-17.875,6.875,44.875,0
39600,-14.75,4.75,45.5,0
39620,-14.125,2.6875,43.5,0
39640,-14,-1.625,39.6875,0
39660,-15,-4.1875,37,0
39680,-15.0625,-7.1875,32.5,0
39700,-9.3125,-11.875,32.1875,0
39720,-3.375,-14,29.875,0
39740,-2,-17.5,27.4375,0
39760,-5.1875,-22.125,28.0625,0
39780,-6.4375,-20.1875,26.125,0
39800,-3.25,-17.8125,25.4375,0
39820,-0.375,-20.4375,25.25,0
39840,0.875,-22.1875,25.4375,0
39860,0.1875,-21.25,25.3125,0
39880,-1.0625,-19.875,25.4375,0
39900,-1.3125,-21.6875,24.125,0
39920,1.75,-22.0625,24.6875,0
39940,-1.4375,-21.1875,27.125,0
39960,-5.125,-21.6875,24.75,0
39980,-2.625,-22.5,23.5625,0
40000,-1.625,-22.0625,24.75,0
40020,-4.4375,-22.25,27.5,0
40040,-7.5,-22.625,26.4375,0
40060,-4.875,-22.8125,22.5625,0
40080,1.5,-24.5625,20.75,0
40100,-1.125,-28.5625,22.4375,0
40120,-10.5625,-31,26.25,0
40140,-15.375,-31.4375,23.6875,0
40160,-15.3125,-34.8125,22.1875,0
40180,-12.6875,-39.25,21.625,0
40200,-12.25,-42.75,23,0
40220,-16.25,-43.5625,20.9375,0
40240,-16.6875,-45.375,15.375,0
40260,-13.3125,-48,14.5,0
40280,-9.4375,-50.375,11.1875,0
40300,-9.8125,-52.625,10,0
40320,-13.25,-53.875,7.875,0
40340,-8.9375,-55.6875,2.8125,0
40360,-1.25,-58.5,-1.8125,0
40380,0.0625,-59.0625,-4,0
40400,-7.25,-58.0625,-3.4375,0
40420,-6.9375,-57.75,-4.75,0
40440,4,-56.875,-13.3125,0
40460,10.375,-53.1875,-12.9375,0
40480,0.8125,-54.4375,-8.375,0
40500,-6,-56.4375,-6.1875,0
40520,-0.8125,-54.8125,-12.9375,0
40540,5.9375,-52.125,-16.9375,0
40560,-2.625,-47.6875,-14.3125,0
40580,-9,-44.625,-11.375,0
40600,-4.9375,-43.9375,-11.875,0
40620,-3.375,-43.625,-14.8125,0
40640,-3.75,-41.4375,-13.625,0
40660,-10.8125,-35.9375,-10.25,0
40680,-13.75,-33.125,-10.625,0
40700,-7.25,-32.5,-16.375,0
40720,0.9375,-29.25,-20.4375,0
40740,-0.625,-25.375,-23.25,0
40760,-3.9375,-23.375,-24.75,0
40780,-3.6875,-20.875,-28.375,0
40800,1.875,-19.4375,-36.4375,0
40820,5.125,-17.875,-42.3125,0
40840,-0.125,-16.4375,-42.8125,0
40860,-6.125,-12.9375,-46.125,0
40880,-4.875,-8.125,-50.375,0
40900,-3.4375,-4.625,-52.25,0
40920,-10.25,-2.9375,-53.75,0
40940,-14.5625,-2.375,-55.5625,0
40960,-15.5,0.8125,-59.25,0
40980,-15.625,6,-58.625,0
41000,-19.8125,7.875,-56.625,0
41020,-25.0625,9.75,-57.4375,0
41040,-25.75,14.875,-60,0
41060,-26.1875,21.5,-60.125,0
41080,-26.375,25.75,-56.9375,0
41100,-31.3125,29.9375,-54.75,0
41120,-31.9375,34.75,-54.875,0
41140,-31.625,39.8125,-56.75,0
41160,-32.5625,43.875,-57.0625,0
41180,-33.375,47.6875,-53.25,0
41200,-31.6875,53.1875,-48.25,0
41220,-30.5,57.3125,-44.5625,0
41240,-30.625,59,-43.3125,0
41260,-29.625,59.75,-40,0
41280,-30.75,62.75,-35.625,0
41300,-28.8125,63.125,-29.875,0
41310,-26.5,61.0625,-24.125,0
41330,-26.1875,59.875,-22.1875,0
41350,-26.4375,58.25,-21.8125,0
41370,-24.9375,55.5625,-18.1875,0
41390,-20.9375,54.25,-12.6875,0
41410,-20.25,55.25,-3.5625,0
41430,-16.1875,54,7.0625,0
41450,-11.8125,50.0625,11.5,0
41470,-10.1875,49.375,8.0625,0
41490,-8.3125,50.25,3.75,0
41510,-10.75,46.4375,9.625,0
41530,-8.1875,37.625,19.375,0
41550,-4.25,32.75,22.25,0
41570,-4.6875,29.8125,20.1875,0
41590,-6.25,27.375,17.125,0
41610,-2.3125,25.8125,19.0625,0
41630,2.4375,21.9375,24.4375,0
41650,2.5,16.625,31.75,0
41670,0.5625,16.75,33.875,0
41690,-6.25,17.3125,30.125,0
41710,-6.125,14.0625,30.625,0
41730,1.4375,9.625,32.0625,0
41750,0.375,7.9375,37.3125,0
41770,-3.375,12,42.3125,0
41790,-7.0625,14.625,38.1875,0
41810,1.5,11.25,35,0
41830,5.375,7.625,37.6875,0
41850,1.25,8.1875,38.1875,0
41870,-8.1875,8.25,38.125,0
41890,-9.4375,5.3125,38.75,0
41910,-5.75,2.25,36.9375,0
41930,-4.25,-1.1875,37.1875,0
41950,-5.5625,-2.6875,36.25,0
41970,-5.1875,-4.5,33.3125,0
41990,-2.8125,-7.625,29.625,0
42010,3.5,-8.6875,30.1875,0
42030,0.5625,-8.8125,31.875,0
42050,-2.75,-11.5,30.3125,0
42070,1.5,-12.5625,29.625,0
42090,2.4375,-13.125,29.1875,0
42110,0.375,-15.875,30.6875,0
42130,-3.5625,-17.4375,30.3125,0
42150,-5.125,-17.9375,30.1875,0
42170,-3.0625,-17.5,29.1875,0
42190,-3.5625,-16.875,28.9375,0
42210,-4,-19.375,30.125,0
42230,-5.125,-20,30.875,0
42250,-2.5,-17.0625,29,0
42270,-2.3125,-16.375,26.0625,0
42290,-3.5625,-18.9375,26.4375,0
42310,-8.1875,-23.8125,27.6875,0
42330,-6.3125,-24.0625,27.9375,0
42350,-4.0625,-26.1875,22.75,0
42370,-4.6875,-31.1875,21.3125,0
42390,-7.5,-36.875,22.25,0
42410,-11.0625,-39.75,21.4375,0
42430,-11.4375,-43.375,19.3125,0
42450,-11.875,-47.5625,16.5625,0
42470,-9.375,-50.9375,15.125,0
42490,-12.1875,-52.5,16.0625,0
42510,-15.4375,-51.5625,14.0625,0
42530,-10.875,-50.5625,12.375,0
42550,-8.0625,-53.0625,11.125,0
42570,-10.75,-53.75,8.5625,0
42590,-12.3125,-53.8125,9.0625,0
42610,-13.6875,-54.75,6.25,0
42630,-6.1875,-54.25,1.625,0
42650,-3.625,-55.0625,-3.8125,0
42670,-4.0625,-56.1875,-6.1875,0
42690,-4.6875,-58,-8.125,0
42710,-0.6875,-57.4375,-11.5625,0
42730,4.875,-56.9375,-15.0625,0
42750,2.875,-58.125,-16.375,0
42770,2.5,-56.25,-15.1875,0
42790,7,-50.875,-18.5625,0
42810,14.875,-46.875,-25.25,0
42830,14.5625,-48.6875,-25.25,0
42850,6.375,-53.6875,-23.5625,0
42870,1.1875,-54.4375,-25.375,0
42890,6.75,-50.5625,-35.5625,0
42910,17.6875,-45.0625,-43.4375,0
42930,11.8125,-45.4375,-45.6875,0
42950,3.9375,-43.25,-42.75,0
42970,4.5,-40.125,-52.875,0
42990,9.0625,-32.8125,-63.3125,0
43010,5.625,-28.1875,-60.125,0
43030,-1,-23.3125,-53.875,0
43050,-5.75,-20.25,-61.5,0
43070,-5.875,-14,-67.375,0
43090,-10.0625,-6.3125,-61.25,0
43110,-18.5625,-0.9375,-55.75,0
43130,-18.3125,-2.0625,-56.75,0
43150,-21.9375,-0.6875,-58.4375,0
43170,-25.6875,6.375,-55.8125,0
43190,-30.1875,12.9375,-53.4375,0
43210,-29.9375,16.5,-54.3125,0
43230,-30.625,19.0625,-53.0625,0
43240,-33.75,22.25,-52.1875,0
43270,-35.125,27.5,-53.375,0
43280,-33.9375,34.4375,-52.5625,0
43300,-34.9375,39.125,-49.3125,0
43320,-35.875,41.6875,-45.4375,0
43340,-36.5,45.1875,-43.5,0
43360,-35.6875,50.6875,-41.9375,0
43380,-35.1875,54.1875,-39.4375,0
43400,-33.5,55,-34.3125,0
43420,-32.5,55.8125,-28.625,0
43440,-31.5,56.625,-27.25,0
43460,-31.8125,56.625,-26.25,0
43480,-31.3125,57.5625,-24,0
43500,-28.25,57.4375,-17.625,0
43520,-23.625,60.0625,-10.375,0
43540,-18.875,60.3125,-8.0625,0
43560,-17.5625,57.4375,-9.0625,0
43580,-20.25,57.4375,-3.5,0
43600,-17.25,54.75,3.8125,0
43620,-14.4375,52.25,10.5,0
43640,-10,50.125,13,0
43660,-10.3125,47.25,14.4375,0
43680,-14.5625,42.9375,23.4375,0
43700,-11.6875,40,33.25,0
43720,-11.1875,38.75,41.0625,0
43740,-10.125,37,39.5,0
43760,-11.1875,31.0625,38.625,0
43780,-7.8125,26.8125,44.25,0
43800,-4.875,24,46,0
43820,-11.125,21.3125,52.25,0
43840,-15.9375,19.4375,51.375,0
43860,-13.8125,20.875,45.6875,0
43880,-4.9375,24.6875,46.375,0
43900,-5.0625,21.75,49.6875,0
43920,-5.625,19,50.6875,0
43940,-6,19.3125,46.4375,0
43960,-4.5,20,43.625,0
43980,-2.8125,18.1875,43.25,0
44000,-9.5,15.125,49.1875,0
44020,-13.4375,15.1875,49.4375,0
44040,-14,15.125,43.25,0
44060,-11.8125,8.5,40.75,0
44080,-14.75,2.0625,38.125,0
44100,-16.5625,-2.0625,36.9375,0
44120,-13.8125,-4.0625,33.3125,0
44140,-11,-4.125,30.625,0
44160,-3.875,-3.9375,31.625,0
44180,0.875,-3.75,30.1875,0
44200,-1.25,-6.9375,28,0
44220,-6.9375,-6.3125,26.625,0
44240,-10.6875,-10.25,26.875,0
44260,-15.3125,-17.375,26.75,0
44280,-20.1875,-22,23.625,0
44300,-21.0625,-25.6875,21.0625,0
44320,-18.375,-28.4375,19.0625,0
44340,-12.75,-33.25,17.25,0
44360,-5.875,-36.3125,15.5625,0
44380,-2.8125,-39.75,12,0
44400,-1,-42.125,11,0
44420,-1.1875,-46.25,7.3125,0
44440,-1.6875,-48.375,8.9375,0
44460,-8.25,-50.3125,12.75,0
44480,-16.9375,-49.375,13.4375,0
44500,-18.875,-48.75,10.5,0
44520,-11.1875,-46.8125,9.875,0
44540,-10.375,-49.375,10.1875,0
44560,-12.375,-52.5625,7.3125,0
44580,-14.125,-53.4375,3.75,0
44600,-10.6875,-54.875,-0.6875,0
44620,-5.875,-56.75,-3.3125,0
44640,-1.5,-56.5,-5.1875,0
44660,1.4375,-53.75,-7.625,0
44680,1.5625,-52.125,-9.25,0
44700,1.3125,-52.9375,-9.625,0
44720,-2.0625,-55.25,-11.1875,0
44740,-1.75,-55,-11.1875,0
44760,3.1875,-54,-11.75,0
44780,1.5625,-51.5,-12.6875,0
44800,-3.6875,-52.3125,-13.3125,0
44820,0.75,-51.5625,-15.6875,0
44840,8.4375,-49.0625,-17.625,0
44860,3.5625,-48.5625,-17.875,0
44880,2.1875,-47.125,-19.0625,0
44900,7.375,-39.6875,-24.625,0
44920,14.75,-33.875,-29.125,0
44940,17.75,-35.3125,-29.375,0
44960,18.5625,-34.125,-30.5625,0
44980,20.25,-28.4375,-35.5,0
45000,18.3125,-26.3125,-35.375,0
45020,15.75,-25.1875,-33.375,0
45040,17,-22.875,-35.4375,0
45060,20.5625,-21.4375,-35.625,0
45080,14.75,-19.8125,-32.8125,0
45100,16.5,-17.0625,-30,0
45120,20.5,-14,-29.5,0
45140,17.6875,-11.625,-27.6875,0
45160,13.25,-9.875,-27.1875,0
45180,14,-9.125,-31.125,0
45200,14.625,-10.375,-30.6875,0
45220,15.3125,-10.0625,-26.6875,0
45240,10.125,-7.75,-27.5625,2001
45260,8.125,-9.625,-29,0
45280,9.125,-9.375,-26.1875,0
45300,7.8125,-6.5625,-21.8125,0
45320,4.3125,-4.4375,-18.4375,0
45340,4.875,-2.6875,-16.25,0
45360,3.0625,0.125,-12.1875,0
45380,1.6875,2.375,-7.625,0
45400,0.4375,2.75,-6.125,0
45420,-0.4375,1.5,-6.5625,0
45440,-0.0625,0.625,-3,0
45460,0.9375,-1,-1.625,0
45480,1.625,-1.75,0.5,0
45500,2.375,0.6875,1.5,0
45520,4.9375,3.8125,-0.375,0
45540,9.3125,5.125,0.625,0
45560,12.6875,6.8125,1.5625,0
45580,11.1875,13.25,0.8125,0
45600,14.9375,20.5625,1.375,0
45620,23.4375,26.9375,4.8125,0
45640,31.375,36.875,13,0
45660,30.8125,46.125,31.4375,0
45680,27.3125,52.875,41.875,0
45700,29.875,58.1875,38.6875,0
45720,34.9375,67.875,43.6875,0
45740,33.4375,73.3125,63,0
45760,31.8125,79.3125,68.4375,0
45780,37,83.6875,62.625,0
45800,44.875,88.6875,64.625,0
45820,39,89.5625,71.5,0
45840,39.25,89.9375,70.5,0
45860,42.375,92.3125,66.3125,0
45880,41.125,91.8125,66.0625,0
45900,36.9375,82.4375,67.5625,0
45920,35.25,71.75,63.4375,0
45940,33.5,64.625,57.0625,0
45960,31.375,62.25,48.125,0
45980,29.375,54.5,43.625,0
46000,26.125,44.6875,40,0
46020,25.75,34.8125,37.5625,0
46040,21.125,29.6875,31.125,0
46060,16.625,23.75,26.375,0
46080,15.3125,16.4375,23.125,0
46100,12.8125,11.1875,21.0625,0
46120,11.625,9.125,18.3125,0
46140,10.1875,5.1875,14.3125,0
46160,7.875,1.0625,13.375,0
46180,2.5625,-2.4375,12.9375,0
46200,0.8125,-1.75,10.3125,0
46220,2.6875,-0.375,5.3125,0
46240,4.1875,-1.75,4.25,0
46260,3,-3.75,4.875,0
46280,3,-3.75,5,0
46300,3.875,-4.5625,2.4375,0
46320,4.375,-4.625,-2.5,0
46340,4.875,-4.1875,-2.0625,0
46360,6.0625,-5.625,0.375,0
46380,5.4375,-4.5625,0.5625,0
46400,3.875,-2.5625,-0.1875,0
46420,1.5625,-0.5,1.0625,0
46440,0.5,1.75,2.0625,0
46460,0.875,2.1875,3.5625,0
46480,0.625,1.3125,3.625,0
46500,-0.6875,0.125,3.4375,2000
46520,-1.1875,-0.0625,2.375,0
46540,-1.4375,0.3125,2.625,0
46560,-3.75,-0.0625,4.4375,0
46580,-2.0625,-1.5625,3.9375,0
46600,-2.6875,-2.0625,1.0625,0
46620,-2.25,-2.5,-1.875,0
46640,-1,-3.4375,-3.9375,0
46660,-0.8125,-2.5,-3,0
46680,-2.5,-2.1875,0.75,0
46700,-2.0625,-2.1875,1.875,0
46720,-1.125,-4.25,-0.6875,0
46730,-1.8125,-5.0625,-2.5625,0
46750,-2.625,-6.5625,-2,0
46770,-2.25,-8.125,-0.625,0
46790,-2.125,-10.4375,0.5625,0
46810,-1.1875,-12.75,0.5,0
46830,1.1875,-14.4375,-3.3125,0
46850,1.625,-16.25,-6.0625,0
46870,2.375,-19,-6.25,0
46890,2.625,-20.125,-5.9375,0
46910,1.5,-21.625,-7.875,0
46930,0.875,-22.875,-9.5625,0
46950,-0.3125,-25,-9.25,0
46970,2,-24.9375,-9.1875,0
46990,3.75,-25.6875,-11.0625,0
47010,4.0625,-26.4375,-14.75,0
47030,2,-29.875,-14.8125,0
47050,-0.875,-32.3125,-12.625,0
47070,0.25,-33.0625,-13.375,0
47090,1.875,-32.4375,-13.3125,0
47110,-0.9375,-32.625,-10.875,0
47130,-2.625,-34.0625,-10.1875,0
47150,-3.4375,-34.625,-8.5,0
47170,-5.8125,-33,-6,0
47190,-7.5625,-30.125,-2.6875,0
47210,-5.3125,-30.25,-3.25,0
47230,-3.375,-30.875,-6.3125,0
47250,-5.25,-31,-7.625,0
47270,-7.5,-27.3125,-9.75,0
47290,-5.8125,-23.6875,-12.6875,0
47330,-3.625,-22,-21.625,0
47330,-5.8125,-21,-27.4375,0
47350,-2.75,-18.5,-31.3125,0
47350,-9.3125,-18.5625,-35.375,0
47370,-12.5,-14.25,-37.75,0
47390,-10.6875,-11,-40.875,0
47410,-12.4375,-7.625,-41.8125,0
47430,-15.375,-4.9375,-46.0625,0
47450,-17.0625,-3.3125,-50.625,0
47470,-22.1875,-1.3125,-52.8125,0
47490,-26.5625,2.5,-53.875,0
47510,-30.6875,6.125,-53.375,0
47530,-33.75,10.4375,-54.5625,0
47550,-34.9375,12.375,-58.1875,0
47570,-35.375,20.125,-59.8125,0
47590,-40.4375,26.0625,-57.3125,0
47610,-43.25,29,-54.75,0
47630,-41.125,32.8125,-53.875,0
47650,-38.875,36.1875,-53.9375,0
47670,-39.0625,40.3125,-52.4375,0
47690,-40.625,42.8125,-47.8125,0
47710,-40.0625,45.3125,-40.9375,0
47730,-36.5625,48.1875,-35.125,0
47750,-35,54.125,-31.4375,0
47770,-34.9375,61.3125,-29.5625,0
47790,-35.4375,64.1875,-24.5625,0
47830,-27.9375,67.125,-11.875,0
47850,-28.25,68.6875,-14.9375,0
47870,-30.9375,68.3125,-9.25,0
47890,-28.8125,66.5,-6.8125,0
47910,-26.3125,61.875,-3.6875,0
47930,-26.5625,61.6875,-4.375,0
47950,-25.125,64.3125,-4.5625,0
47970,-26.0625,59.375,-2.25,0
47990,-13.25,54.9375,2.25,0
48010,-10.5,51.5625,3.8125,0
48030,-10.5,51.4375,3.875,0
48050,-8.5,47.9375,4.375,0
48070,-5.5625,44.4375,4.125,0
48090,-2.0625,40,9.4375,0
48110,-3.125,37.625,16.5,0
48130,-8.0625,33.5,16.375,0
48150,-7.75,28.625,16.0625,0
48170,-0.0625,27.375,20.625,0
48190,1.875,27.1875,30.75,0
48210,-3.75,23.875,32.125,0
48230,-6.4375,19.75,26,0
48250,-0.9375,21.6875,28.5625,0
48260,1.1875,23.1875,36.4375,0
48290,1.8125,23.0625,43.5,0
48310,-3.5,19.5,39.25,0
48330,-3.3125,16.0625,37.6875,0
48350,-5.875,15.5625,41.0625,0
48370,-2.9375,12.8125,45.6875,0
48390,-0.875,9.0625,46.75,0
48410,-3.8125,4.6875,44.9375,0
48430,-7.3125,0,43.6875,0
48450,-8.125,-3.8125,43.8125,0
48470,-6.0625,-7.3125,42.125,0
48490,-8.5625,-10.375,42.5625,0
48510,-18.3125,-12.5,42.0625,0
48530,-21.8125,-13.75,39.9375,0
48550,-15.0625,-13.9375,37.5625,0
48570,-8.9375,-16.6875,35.8125,0
48590,-11.4375,-17.375,33.9375,0
48610,-16.5625,-20,33.5,0
48620,-16.125,-20.5625,33.1875,0
48640,-11.6875,-20.1875,32.5625,0
48660,-9.875,-21.8125,32.5,0
48680,-10.875,-21.0625,32.1875,0
48700,-7.25,-19.0625,32.125,0
48720,-2.875,-17.8125,30.125,0
48740,-2.5625,-19.875,30.1875,0
48760,-7.5625,-22.5,28.6875,0
48780,-7.1875,-25.375,27.3125,0
48800,-3.25,-28.5625,23.5625,0
48820,-2.9375,-33.75,22.125,0
48840,-8.9375,-39,20.375,0
48860,-11.75,-43.75,22.0625,0
48880,-8.4375,-48.625,19.0625,0
48900,-5,-50.4375,15.5625,0
48920,-7.625,-50.1875,14.25,0
48940,-9.3125,-52.25,14.0625,0
48960,-7.5625,-53.625,11.6875,0
48980,-1.25,-54.8125,7.3125,0
49000,-3.8125,-56.5625,5.5625,0
49020,-5.25,-58.8125,4.1875,0
49040,-8.4375,-61.625,0.625,0
49060,-6.1875,-61.625,-4.1875,0
49080,-1.375,-61.8125,-5.8125,0
49100,-1.8125,-60.4375,-4.75,0
49120,-8.4375,-60.25,-2.3125,0
49140,-6,-59.6875,-5.3125,0
49160,-1,-55.875,-7.0625,0
49180,-1.875,-50.125,-6.5625,0
49200,-0.0625,-48.25,-3.25,0
49220,1.5625,-46.6875,-5.6875,0
49240,5.875,-45.25,-12.25,0
49260,9,-45.6875,-16.125,0
49280,6.1875,-45.4375,-13.25,0
49300,3.4375,-45.875,-11.75,0
49320,5.6875,-43.4375,-12.875,0
49340,7.8125,-38.8125,-17.3125,0
49360,4.3125,-32.0625,-19.6875,0
49380,6.0625,-31,-24.125,0
49400,8.1875,-31.3125,-30.8125,0
49420,11.5,-28.625,-35.4375,0
49440,15,-22.5,-46.5,0
49460,10.0625,-20.25,-48.8125,0
49480,8.8125,-24.375,-55.8125,0
49500,9,-23.8125,-66.9375,0
49520,4.6875,-21.375,-67.0625,0
49540,-2.3125,-16.1875,-67.875,0
49560,-7.9375,-15.1875,-72.75,0
49580,-15.4375,-15.375,-77.5625,0
49600,-20.3125,-10.8125,-74.8125,0
49620,-25,-6.75,-65.8125,0
49640,-27.125,-2.75,-59.6875,0
49660,-30.4375,0.75,-62.625,0
49680,-35.5,3.6875,-67.8125,0
49700,-39.5,6.125,-64.0625,0
49720,-40.625,8.625,-57.875,0
49740,-39.125,14.5625,-57.375,0
49760,-41.0625,22.6875,-61.0625,0
49780,-44.0625,29.8125,-61,0
49800,-44,34.125,-57.75,0
49820,-40.5,39.375,-54.625,0
49840,-39.25,46.1875,-52.4375,0
49860,-38.75,51.8125,-51.9375,0
49880,-38.875,53.3125,-49.6875,0
49900,-34.9375,55.625,-42.0625,0
49920,-31.6875,59.3125,-35.25,0
49940,-31.0625,61.375,-32.0625,0
49960,-31,60.5625,-29,0
49980,-29.0625,58.625,-21.625,0
50000,-24.8125,55.8125,-11.625,0
50020,-23.625,55.3125,-6.9375,0
50040,-22.125,55.125,-5.375,0
50060,-18.375,55.375,-5,0
50080,-15.5625,51.9375,-0.8125,0
50100,-13.75,49.375,6.875,0
50120,-12.6875,50,13.9375,0
50140,-8.8125,50.375,17.1875,0
50160,-8.5625,49.0625,20.75,0
50180,-6.625,44,28.4375,0
50200,-1.0625,40.375,33.125,0
50220,-2.625,35.9375,31.8125,0
50240,-4.6875,35.875,29.875,0
50260,-3.875,33.1875,34.1875,0
50280,-2.125,28.9375,46.625,0
50300,-0.9375,25.375,55.125,0
50320,-7.375,26.1875,49.3125,0
50340,-7.25,25.4375,47,0
50360,-2.625,22.9375,52.0625,0
50380,-3.6875,18.625,57.0625,0
50400,-7.0625,16.1875,55.9375,0
50420,-9.875,9.9375,53.8125,0
50440,-2,4.5625,49.1875,0
50460,-1.5625,1.625,46.0625,0
50480,-11.5,-6.75,47.8125,0
50500,-23.3125,-9.5,48.25,0
50520,-26.875,-10.0625,45.4375,0
50540,-19.5,-10.5,43.125,0
50560,-14.25,-12,40.6875,0
50580,-11.0625,-13.25,38.9375,0
50600,-9.1875,-13.25,39.4375,0
50620,-11.75,-10.8125,40.6875,0
50640,-17.375,-8.3125,38.6875,0
50660,-16,-9.5625,36,0
50680,-12.4375,-14.5,36.5,0
50700,-15.5,-18.125,38.0625,0
50720,-21.625,-18.375,37.5625,0
50740,-25.3125,-19.75,36.75,0
50760,-25.8125,-22.4375,35.25,0
50780,-25.3125,-24.4375,35.1875,0
50800,-26.625,-26.1875,32.875,0
50820,-27.0625,-32.4375,30.8125,0
50840,-18.25,-36.875,25.5,0
50860,-10.75,-42.1875,18.9375,0
50880,-9.1875,-46.9375,16.625,0
50900,-13.875,-48.1875,15.125,0
50920,-11.8125,-53,14.625,0
50940,-5.75,-54.125,9.75,0
50960,-4.9375,-54.0625,8.0625,0
50980,-10.8125,-53.625,9.125,0
51000,-16.875,-57.5625,12.875,0
51020,-16.5625,-59.625,9.6875,0
51040,-10.8125,-59.75,4.875,0
51060,-10.875,-61.3125,1.375,0
51080,-13.4375,-62.875,1.375,0
51100,-8.0625,-61.4375,-1.6875,0
51120,1.5625,-58.625,-8,0
51140,4.75,-57.1875,-12.875,0
51160,1.625,-60.375,-14,0
51180,-0.375,-60.8125,-16.25,0
51200,8.25,-54.875,-19.25,0
51220,13.5625,-50.5,-23.125,0
51240,7.6875,-50.4375,-19.4375,0
51260,-0.25,-51.8125,-17.6875,0
51280,-1.1875,-53.4375,-20.375,0
51300,4.25,-52.3125,-26.25,0
51320,6.125,-48.625,-26.625,0
51340,-0.8125,-45.75,-23.8125,0
51360,-1.4375,-46.9375,-25.625,0
51380,2.8125,-45.5625,-33.4375,0
51400,2.375,-40.75,-38.625,0
51420,-0.125,-36.6875,-37.0625,0
51440,0.25,-36.125,-40.625,0
51460,3.3125,-36,-49.3125,0
51480,6.4375,-32.8125,-54.875,0
51500,-6.75,-27.5,-52.5625,0
51520,-7.1875,-22.1875,-54.625,0
51540,-9.875,-21.4375,-61.3125,0
51560,-11.1875,-16.1875,-59.125,0
51580,-19.375,-10.0625,-56.25,0
51600,-23.3125,-3.125,-54.375,0
51620,-22.1875,2.875,-59.3125,0
51640,-24,6.25,-61.8125,0
51660,-27.9375,9.875,-56.75,0
51680,-33.5,13.5,-51,0
51700,-31.5625,16.25,-53.125,0
51720,-31.75,19.25,-59.0625,0
51740,-29.0625,24.875,-58,0
51760,-31,29.4375,-55.0625,0
51780,-31.9375,35.4375,-52.9375,0
51800,-28.75,41.9375,-51.5625,0
51820,-24.4375,46.5,-49.4375,0
51840,-25.875,52.125,-47.875,0
51860,-24.8125,59,-44.8125,0
51880,-24.75,62.5,-40.0625,0
51900,-25.1875,64.25,-35.3125,0
51920,-23.625,64,-32.875,0
51940,-22.25,65.6875,-27.25,0
51960,-22.75,69.5,-19.5625,0
51980,-24,73.125,-11.625,0
52000,-20.375,71.1875,-7.8125,0
52020,-16.375,69.3125,-1.375,0
52040,-15.625,68,2.1875,0
52050,-15.8125,68.9375,6.75,0
52070,-15.4375,70.4375,13.8125,0
52090,-12.1875,67.9375,18.4375,0
52110,-7.1875,64,20.875,0
52130,-4.25,57.125,24.3125,0
52150,-12.6875,53.9375,26.375,0
52170,-9,53.0625,33.75,0
52190,-3.9375,51.75,43.375,0
52210,2.5625,49.1875,47.3125,0
52230,1.9375,46.4375,46.5625,0
52250,-4.5625,44.5,50,0
52270,-11.1875,44.375,53.375,0
52290,-10.375,44.6875,57.0625,0
52310,-7.6875,39.9375,57.1875,0
52330,-6.8125,32.75,58.5625,0
52350,-10.625,31.3125,60,0
52370,-15.75,36.5625,58.75,0
52390,-16.8125,35.75,56.4375,0
52410,-17,27.1875,57.25,0
52430,-20.9375,19.8125,58.375,0
52450,-23.5625,17.0625,56.5625,0
52470,-28.5,10.4375,49.5625,0
52490,-25.875,-0.25,44.25,0
52510,-27.25,-12.5625,40.75,0
52530,-31.875,-17.4375,37.9375,0
52550,-30.375,-17.8125,34.875,0
52570,-21.3125,-22.125,34.0625,0
52590,-16.25,-26.375,31.125,0
52610,-15.8125,-27.875,30.3125,0
52630,-14.5,-28.9375,27.375,0
52650,-10.1875,-30.875,26.6875,0
52670,-10.625,-35.3125,24.25,0
52690,-12.125,-38.5625,23.5625,0
52710,-12.1875,-39.6875,20.5,0
52730,-12.625,-45.5,20.625,0
52750,-11.9375,-51.375,19.0625,0
52770,-11.6875,-56.5625,14.875,0
52790,-10.9375,-60.25,12.1875,0
52810,-10.6875,-65.9375,11.1875,0
52830,-7.5625,-68.4375,9,0
52850,-7.9375,-71.75,6,0
52870,-8.375,-72.125,2.3125,0
52890,-8.5,-73.8125,-0.6875,0
52910,-9.9375,-73.9375,-0.9375,0
52930,-11.875,-71.625,-2.25,0
52950,-13.4375,-72,-5.375,0
52970,-13.125,-71.25,-9.625,0
52990,-6.25,-67.0625,-13.6875,0
53010,-1.625,-64.125,-15.625,0
53030,-0.8125,-60.5,-18.875,0
53050,1.4375,-56.9375,-22.1875,0
53070,3.8125,-56.6875,-25.0625,0
53090,7.125,-55,-30.3125,0
53110,11.9375,-50.4375,-32.3125,0
53130,12.0625,-45.375,-34.6875,0
53150,12.125,-43.0625,-35.8125,0
53170,11.5,-42.1875,-38.5625,0
53190,14.3125,-42.25,-43.5,0
53210,12.8125,-39.3125,-40.625,0
53230,10.4375,-38.125,-38.125,0
53250,13.875,-35.75,-41.9375,0
53270,18,-28.5625,-44.1875,0
53290,15.1875,-26.625,-39.125,0
53310,7.8125,-28.0625,-35.3125,0
53330,9.6875,-25.75,-40.125,0
53350,16.25,-21.25,-45.0625,0
53370,17.6875,-20.25,-42.5,0
53390,8.4375,-21.6875,-35.4375,0
53410,2.75,-19.875,-32.4375,0
53430,11.625,-15.0625,-35.25,0
53450,14.6875,-12.5,-35,0
53470,10.4375,-10.125,-26.875,0
53490,3.6875,-8.4375,-19.25,2001
53510,4.8125,-5.6875,-18.875,0
53530,6.6875,-1.0625,-17.125,0
53550,3.4375,-0.5,-11,0
53570,-0.3125,-3,-6.625,0
53590,1.5625,-1.75,-6.3125,0
53610,1.25,0.8125,-4.875,0
53630,-1.375,0.25,-0.9375,0
53650,-2.4375,-2.0625,2.0625,0
53670,-3.0625,-4.5625,1.75,0
53690,-0.0625,-3.125,0.3125,0
53710,3.4375,-1.8125,0,0
53730,7.0625,-2,-2.5,0
53750,13.6875,-2,-7.125,0
53770,19.9375,2.9375,-10.0625,0
53790,22.125,10.8125,-4.6875,0
53810,23.9375,17.125,6.625,0
53830,30.9375,22.9375,13.4375,0
53850,41.3125,32.0625,11.75,0
53870,43.1875,39.8125,15.0625,0
53890,38.0625,43.75,27.1875,0
53910,39.3125,52.3125,38.75,0
53930,49.5625,64.9375,44.5625,0
53950,51.5625,71.8125,49.5625,0
53970,37.4375,73,62.625,0
53990,44.9375,78.25,61.875,0
54010,58.0625,84.6875,54.1875,0
54030,64.625,91.75,67.75,0
54040,49.625,94,76.25,0
54060,52.6875,87.1875,71.6875,0
54080,58.1875,85.5,67.5625,0
54100,53.875,87.875,71.5625,0
54120,44.8125,82.8125,71.875,0
54140,46.625,69.9375,65.375,0
54160,48.875,62.625,56.1875,0
54180,45.125,59.3125,50.125,0
54200,40.875,52.5,44.1875,0
54220,38.375,42.25,37.3125,0
54240,37.9375,35.4375,31.9375,0
54260,37,36,24.875,0
54280,33.4375,34.1875,21.1875,0
54300,25.8125,28.5625,18.4375,0
54320,22.6875,22.1875,17.1875,0
54340,20.0625,17.375,11.8125,0
54360,16,12.6875,5.3125,0
54380,11.5,6.8125,2.0625,0
54400,7.5,0.875,1.5,0
54420,3.0625,-1,1.625,0
54440,0.6875,-1.125,-0.4375,0
54460,0.3125,-2.9375,-0.1875,0
54480,0.125,-4.75,1.5,0
54500,-3.25,-4.5625,2.375,0
54520,-5.25,-3.8125,2.4375,0
54540,-5.1875,-4.9375,2.875,0
54560,-3.3125,-4.375,5.125,0
54580,-3.625,-2.5,5.9375,0
54600,-4.5625,0.5625,4.1875,0
54620,-3.4375,1.625,3.625,0
54640,-2.5,1.125,3.375,0
54660,-1.875,0.125,4.125,0
54680,-3.0625,0.5625,2.875,0
54700,-1.3125,0.4375,1.6875,2000
54720,-2.3125,1.125,2.5,0
54740,-4.375,2.9375,3.5,0
54760,-1.875,2.375,2.25,0
54780,-2.3125,1.5625,-2,0
54800,-4.4375,0,-4,0
54820,-4.4375,-1.0625,-0.875,0
54840,-2.875,-0.8125,1.1875,0
54860,-1.75,-2.3125,2.0625,0
54880,-2.25,-4.5,3.4375,0
54900,-1.1875,-5.5625,2.125,0
54920,-2.375,-5.875,-1.875,0
54940,-1.375,-9.125,-2.875,0
54960,-2.1875,-12.3125,1.6875,0
54980,-0.875,-14.1875,3.9375,0
55000,0.0625,-16.625,0.9375,0
55020,1.75,-18.8125,-3.25,0
55040,0.3125,-22.0625,-3.8125,0
55060,-2.75,-23.375,-1.375,0
55080,-2.8125,-23.1875,-0.8125,0
55100,1.0625,-24.375,-4.125,0
55120,0.875,-25.75,-7.1875,0
55140,-0.75,-28.4375,-6.5,0
55160,-1.4375,-28.75,-5.375,0
55180,-0.6875,-28.6875,-6.6875,0
55200,-2.8125,-30.0625,-10.9375,0
55220,-5,-33.0625,-9.9375,0
55230,-3,-31.25,-5,0
55250,-3.125,-31.375,-9.5,0
55270,-4.3125,-33.9375,-11.25,0
55290,-4.1875,-33.125,-11.8125,0
55310,-4.375,-34.75,-13.4375,0
55330,-8.875,-34.6875,-12.125,0
55340,-9.5,-35.375,-11.6875,0
55360,-8.3125,-33.0625,-15.3125,0
55370,-8.875,-31.0625,-15.3125,0
55390,-11.5625,-29.4375,-14.75,0
55410,-10.1875,-25.1875,-15.8125,0
55420,-13.25,-21.9375,-21.125,0
55430,-15.5,-14.5,-27.1875,0
55460,-22.875,-6.125,-36.1875,0
55480,-25.5,-2.6875,-39.5,0
55500,-25.1875,0.875,-40.9375,0
55520,-27.875,3.25,-42.875,0
55540,-30.75,7.8125,-45.9375,0
55560,-32.125,12.8125,-48.375,0
55580,-35.0625,19.375,-49,0
55600,-38.875,24.875,-49.25,0
55620,-38.0625,28.875,-50.625,0
55640,-38.25,31.5625,-53.25,0
55660,-39.75,38.0625,-50.5,0
55680,-38.4375,40.375,-45.9375,0
55700,-36.125,41.8125,-43.8125,0
55720,-36.0625,44.375,-44.875,0
55740,-37.4375,48.4375,-46,0
55760,-33.5625,51.6875,-44,0
55780,-33.25,55.6875,-40.375,0
55800,-33.8125,61.75,-39.0625,0
55810,-27.5,63.125,-31.0625,0
55840,-26.1875,67.625,-16.5625,0
55860,-25.25,65.3125,-16.875,0
55880,-25.875,61.125,-15.875,0
55900,-28.875,56.9375,-12.9375,0
55920,-24.9375,55.0625,-9.75,0
55940,-21.75,50.75,-13.625,0
55960,-21.5,46,-16.5625,0
55980,-17.125,40.625,-14.375,0
56000,-13.875,40.1875,-9.875,0
56020,-13.9375,43.625,-7.8125,0
56040,-11.5625,44.6875,-9.1875,0
56060,-6.125,43.5625,-8.5625,0
56080,-2.5,46.5,-3.9375,0
56100,1,48.375,2.1875,0
56120,2.375,48.375,6.5,0
56140,-2.5,43.0625,12,0
56160,1.1875,43,18.625,0
56180,1.8125,41.4375,25,0
56200,0.0625,40.125,27.1875,0
56220,-2.375,35.3125,28.75,0
56240,-3.1875,27.9375,34.0625,0
56260,-2.8125,23.5,39.75,0
56280,-4.625,23.0625,42.0625,0
56300,-9.125,17,40.5625,0
56320,-6.5625,11.125,38.8125,0
56340,-5.8125,7.4375,42.6875,0
56360,-6.3125,4.5,42.125,0
56380,-7.25,0.625,38.6875,0
56400,-9.6875,-2.25,36.9375,0
56420,-7.5625,-3.1875,35.0625,0
56440,-2.25,-5.625,35.25,0
56460,0.9375,-8,33.3125,0
56480,-1.3125,-9.25,30.75,0
56500,-4.75,-10,28.9375,0
56520,-3.1875,-9.5625,28.5625,0
56540,-0.5,-8.1875,31.5625,0
56560,1,-10.125,32.8125,0
56580,-1,-14.3125,32.9375,0
56600,-3.5,-15.1875,32.5,0
56620,-5.8125,-14.8125,36,0
56640,-9.75,-14.3125,37.5625,0
56660,-6.4375,-13.625,35.8125,0
56680,-0.625,-17.9375,34.4375,0
56700,2.3125,-17.625,33.625,0
56720,2.875,-15.875,34.125,0
56740,0.875,-19.4375,30.1875,0
56760,4.5,-21.5,26.75,0
56780,5.5,-22.8125,29.5625,0
56800,-1.75,-24.875,30.1875,0
56820,-8.0625,-27.9375,28.875,0
56840,-6,-30.9375,26.0625,0
56860,-1.625,-34.25,28.0625,0
56880,-7.9375,-36.8125,31.125,0
56900,-15.3125,-39.0625,28.625,0
56920,-11.9375,-40.25,24.9375,0
56940,-4.625,-41.625,22.3125,0
56960,-5.4375,-44,21.8125,0
56980,-8.375,-49.4375,20.8125,0
57000,-12.1875,-49.375,15.25,0
57020,-11.5625,-51.875,18.1875,0
57040,-12.125,-51.9375,19.4375,0
57060,-16.5,-54.8125,18.0625,0
57080,-17.9375,-55.5,12.75,0
57100,-10.8125,-56.4375,7.625,0
57120,-4.3125,-56.25,5.8125,0
57140,-6.3125,-57.9375,5.3125,0
57160,-11.125,-59.75,1.75,0
57180,-6.3125,-59.1875,-4.625,0
57200,4.1875,-56.5625,-8.1875,0
57220,5.1875,-56.875,-8.5625,0
57240,-4.125,-57.75,-7.3125,0
57260,-3.4375,-58.125,-9.75,0
57280,8.3125,-54.4375,-13.5625,0
57290,11.5,-55.0625,-17.625,0
57310,1.4375,-55.1875,-14.75,0
57330,-1.4375,-55.4375,-13.375,0
57350,3.3125,-54.375,-22,0
57370,7.0625,-50.8125,-31.125,0
57390,9.625,-46,-31.6875,0
57410,4.3125,-46.25,-30.8125,0
57430,4.125,-46.1875,-37.5,0
57450,3.375,-45.5,-42.75,0
57470,5.8125,-38.1875,-45.625,0
57490,8.75,-31.125,-46.375,0
57510,3.625,-30.3125,-46.0625,0
57530,2.6875,-26.3125,-51.125,0
57550,0.6875,-24.3125,-65.1875,0
57570,-6.0625,-20.9375,-66.75,0
57590,-9.375,-16.4375,-64.0625,0
57610,-13.625,-14.6875,-70.0625,0
57630,-16.625,-11.5625,-72.9375,0
57650,-19.6875,-6.875,-76,0
57670,-25.9375,-5.9375,-76,0
57690,-34.75,-6,-71.9375,0
57710,-37.375,-0.8125,-71.125,0
57730,-39.875,8.25,-70.25,0
57750,-42.0625,12.625,-67.0625,0
57770,-45.75,16.0625,-61.5,0
57790,-47.6875,22.625,-57.6875,0
57810,-48.9375,32.125,-55.1875,0
57830,-49.4375,37.875,-54.8125,0
57850,-48.6875,44.125,-52.5625,0
57870,-44.625,52.1875,-47.375,0
57890,-40.25,57.8125,-43.5625,0
57910,-38.5,61.625,-41.1875,0
57930,-39.75,66.5,-38.3125,0
57950,-39.5625,69.0625,-30.75,0
57970,-33.875,67.9375,-26.0625,0
57990,-28.5,65.9375,-20.8125,0
58010,-30.1875,64.0625,-16.25,0
58030,-28.6875,61.875,-9.1875,0
58050,-25.1875,60.3125,-4,0
58070,-21.125,58.25,-3.3125,0
58090,-19.375,55.1875,-2.9375,0
58110,-19.875,53.375,1.8125,0
58130,-14.875,49.625,9.125,0
58150,-13.4375,49.5625,13.4375,0
58170,-11.75,46.8125,8.5625,0
58190,-11.6875,44.0625,7,0
58210,-12.6875,41.0625,16,0
58230,-9.25,40.6875,24.8125,0
58250,-6.6875,39.5,23.75,0
58270,-2.5,36.75,15,0
58290,2.25,31.6875,13.625,0
58310,-0.8125,27.75,21.6875,0
58330,-1,26.875,28.75,0
58350,-3.875,26.125,32,0
58370,-4.6875,21.6875,31.9375,0
58390,-7,19,33.5625,0
58410,-9.5,22.0625,40.9375,0
58430,-9.5,23.1875,49.3125,0
58450,-8.8125,17.75,53.1875,0
58470,-13.1875,13.6875,49.5625,0
58490,-15.8125,12.3125,49,0
58510,-17.25,13.375,52.375,0
58530,-17.4375,5.3125,58.375,0
58550,-20.625,-0.0625,60.6875,0
58570,-25.875,-1.5625,52.25,0
58590,-28.5625,-9.5625,50,0
58610,-22.75,-18.4375,51.625,0
58630,-20.9375,-23.5625,47.8125,0
58650,-18.1875,-23,42.3125,0
58670,-12.6875,-21.1875,39.5,0
58690,-7.625,-24.75,38.4375,0
58710,-9.5,-25.25,40.3125,0
58730,-9.1875,-23.3125,37.4375,0
58750,-8.6875,-22.9375,36.3125,0
58770,-8.375,-26.1875,38.25,0
58790,-8.8125,-25.25,38,0
58810,-10.9375,-22.3125,34.6875,0
58830,-16.375,-27.3125,36.6875,0
58850,-14.8125,-33.125,32.6875,0
58870,-7.375,-33.875,27.3125,0
58890,-6.875,-35.5625,23.0625,0
58910,-11.5625,-42,25.5625,0
58930,-13.0625,-45.375,24.125,0
58950,-12.625,-47.6875,19.75,0
58970,-15.5625,-52.1875,19.75,0
58990,-16.6875,-59.625,19.125,0
59010,-17.875,-61.375,18.5625,0
59030,-19.6875,-64.4375,12.25,0
59050,-19.75,-69.625,8.6875,0
59070,-14.0625,-71.625,3.75,0
59090,-9.6875,-73.125,-1.0625,0
59110,-10.125,-71.6875,-3.75,0
59130,-4.6875,-67.8125,-11.75,0
59150,5.5,-67.0625,-16,0
59170,3.1875,-68.8125,-18.25,0
59190,0.5,-67.25,-20.3125,0
59210,2.6875,-65.3125,-23.6875,0
59230,4.4375,-64.1875,-24.625,0
59250,-1.125,-66.4375,-24.0625,0
59270,-3.625,-62.75,-20.6875,0
59280,-4.75,-55.75,-19.6875,0
59300,-1.5,-54.875,-20,0
59320,2.9375,-55.8125,-24.125,0
59340,1.8125,-53.1875,-27.125,0
59360,1.1875,-50,-26.4375,0
59380,2.3125,-49.375,-27.5625,0
59400,8.875,-48.625,-35.625,0
59420,13.5,-45.3125,-43.625,0
59440,7.4375,-40.3125,-40.6875,0
59460,0.875,-37.625,-41.5,0
59480,2.9375,-35.5625,-47.9375,0
59500,5.625,-29.25,-54.5,0
59520,5.9375,-23.25,-54,0
59540,-4.6875,-20.125,-47.75,0
59560,-8.1875,-17.375,-49.875,0
59580,-7.1875,-9.625,-53.9375,0
59600,-9.125,-5.5625,-56,0
59620,-13.5,-2.625,-52.3125,0
59640,-15.875,2.3125,-55.375,0
59660,-20.125,6.3125,-57.25,0
59680,-24.5625,8.5625,-58.4375,0
59700,-24.4375,11.6875,-57.0625,0
59720,-23.4375,16.0625,-58.25,0
59740,-25.0625,19.9375,-59.25,0
59760,-30.5,24,-56.75,0
59780,-32.75,28.6875,-54.6875,0
59800,-34.625,34.1875,-50.9375,0
59820,-31.5,39.5,-49.6875,0
59840,-31.1875,42.5,-47.375,0
59860,-35.0625,45.375,-43.6875,0
59880,-33.5625,48.8125,-40.25,0
59900,-32.3125,52.3125,-37.5,0
59920,-30.5625,54.75,-35.875,0
59940,-30.375,56,-33.875,0
59960,-31.0625,56.625,-29.9375,0
59980,-29.125,57.375,-23.9375,0
60000,-26.875,60.5625,-18.125,0
60020,-24.5,63.375,-12.75,0
60040,-20.5,63.8125,-8.6875,0
60060,-19.1875,63.4375,-5.8125,0
60080,-19.4375,64.8125,-0.25,0
60100,-22.6875,64.4375,8.4375,0
60120,-16.6875,63.75,14.375,0
60150,-9.25,60.75,17.5625,0
60170,-8.0625,61.0625,24.625,0
60190,-9.625,61.375,27.5625,0
60210,-10.6875,56.4375,33.75,0
60230,-10.5625,53,42.8125,0
60250,-10.9375,51.1875,46.9375,0
60270,-14.4375,49.5,46,0
60290,-10.3125,45.625,48.25,0
60310,-10.8125,39.875,54.125,0
60330,-16.25,34.3125,57.5,0
60350,-16.75,33.75,55.1875,0
60370,-14.125,30.8125,54.75,0
60390,-14.25,25.5,54.875,0
60410,-18.25,20.6875,53.625,0
60430,-20,15.375,49.5625,0
60450,-15.375,17.0625,50.75,0
60470,-7.25,18.4375,51.4375,0
60490,-1.25,14.3125,46.625,0
60510,-3.75,9.4375,44.1875,0
60530,-11.5625,6.5625,40.9375,0
60550,-13,3.4375,39.5,0
60570,-7.9375,-1.8125,38.1875,0
60590,-2.5625,-4.8125,35.9375,0
60610,-4.0625,-8.75,31.125,0
60630,-8.5,-12.8125,29.5,0
60650,-6,-17.375,31.0625,0
60670,-1.9375,-21.0625,28.4375,0
60690,-5.4375,-22.625,25.25,0
60710,-8.75,-23,22.75,0
60730,-5.9375,-27,26.4375,0
60750,-4,-29.4375,26.3125,0
60770,-10.8125,-29,22.5,0
60790,-14.4375,-28.625,21.5625,0
60810,-7.875,-29.6875,22.0625,0
60830,-2.0625,-31.1875,22.8125,0
60850,-8.5,-29.5,17.9375,0
60870,-12.25,-33.875,15.875,0
60890,-7.1875,-34.5625,14.125,0
60910,-1.8125,-36.125,14.1875,0
60930,-2.6875,-37.1875,11.25,0
60950,-5.6875,-41,9.9375,0
60970,-8.0625,-44.375,8.125,0
60990,-8.5,-46.6875,6.9375,0
61010,-8.875,-49.875,5.1875,0
61030,-12.0625,-53.25,3.3125,0
61050,-13.25,-56.375,1.6875,0
61070,-11.9375,-57.625,0.4375,0
61090,-12.6875,-57,-3,0
61110,-10.5625,-59.1875,-4.6875,0
61130,-7.625,-59.8125,-6.875,0
61150,-3.5625,-58.5,-11.4375,0
61170,0.625,-58.5,-13.25,0
61190,-1.875,-58.375,-15.8125,0
61210,-4.375,-56.0625,-14.9375,0
61230,-0.75,-54,-14.5625,0
61250,2.125,-51.875,-18.25,0
61270,2.0625,-53.75,-20.625,0
61290,0.6875,-56.0625,-20.6875,0
61310,1.1875,-55.3125,-20.75,0
61330,4.875,-52.0625,-21.5,0
61350,4.5625,-47.1875,-21.9375,0
61370,3.1875,-46.4375,-22.75,0
61390,2.3125,-45,-24.5625,0
61410,7.1875,-41.0625,-27.9375,0
61430,15.625,-37.625,-28.4375,0
61450,15,-36.1875,-31.125,0
61470,18.0625,-34.5625,-35.8125,0
61490,23.25,-31.25,-37.8125,0
61510,23.0625,-28.1875,-38.5,0
61530,20.125,-27.3125,-39.3125,0
61550,22,-26.9375,-40.375,0
61570,28.6875,-23.0625,-44.125,0
61590,28.8125,-19.6875,-44,0
61610,18.5625,-18.375,-39.625,0
61630,15.375,-17.375,-35.75,0
61650,20.375,-15.4375,-38.125,0
61670,23.5,-12.875,-39.625,0
61690,14.25,-11.125,-33.125,0
61710,9.4375,-8.375,-28.625,0
61730,10.3125,-4.0625,-25.5625,2001
61750,11.4375,0.125,-20.4375,0
61770,3.4375,0.375,-13.6875,0
61790,-0.8125,-0.0625,-11,0
61810,0.5,2.5,-7.9375,0
61830,-0.1875,6,-3.125,0
61850,-2.875,7.0625,0.5625,0
61870,-2.25,4.5625,0.5,0
61890,-0.625,3.1875,-0.8125,0
61910,1.25,3,0.625,0
61930,2.1875,0.875,2.5625,0
61950,4.3125,-2.25,0.625,0
61970,6.0625,-1.5,-3.6875,0
61990,10.9375,2.625,-2.375,0
62010,20.3125,7.8125,1.3125,0
62030,26.0625,11.875,3,0
62050,28.6875,18.5,6.0625,0
62070,29.9375,29.125,10.0625,0
62090,39.125,39.9375,11.625,0
62110,48.0625,48,13.4375,0
62130,48.3125,55,29.8125,0
62150,38.8125,65.125,49.1875,0
62170,40.625,78.125,52.3125,0
62190,51.1875,89.75,43.5,0
62210,54.5,94.9375,50.125,0
62230,41.875,99.4375,63.75,0
62250,48.9375,100.188,62.375,0
62270,58.0625,101.688,58.125,0
62290,58.5,101.812,63.3125,0
62310,46.125,101.125,66.6875,0
62340,53.0625,90.125,56.8125,0
62360,48.25,84.4375,55.625,0
62380,41.4375,73.4375,53.5,0
62400,40.0625,58.8125,48.5625,0
62420,37.9375,50.6875,45.1875,0
62440,35.4375,47.6875,40.4375,0
62460,29.8125,41.4375,33.5,0
62480,22.5625,30.6875,29.375,0
62500,11.3125,22.75,30.875,0
62520,-0.375,20.3125,29.5625,0
62540,-1.9375,16.5625,21.4375,0
62560,0.3125,8.0625,13.25,0
62580,-1.8125,1.9375,9.4375,0
62600,-5.375,-0.5,6.375,0
62620,-7.4375,-1.6875,0.625,0
62640,-4.0625,-4.0625,-3.0625,0
62660,-3.5,-3.75,-4.6875,0
62680,-1.6875,-1.75,-4.1875,0
62690,-0.5,-0.5,-2.8125,0
62710,0.5,-0.3125,-1.625,0
62730,-0.375,0.6875,-2,0
62750,-1.625,3.6875,0.4375,0
62770,1.5625,6.6875,3.1875,0
62790,3.1875,8.8125,2.625,0
62810,2.875,8.9375,0.75,0
62830,1.75,6.875,1.625,0
62850,-1,6.0625,2.1875,0
62870,-2.8125,6.75,2.6875,0
62890,-4.625,5.6875,2.9375,0
62910,-4.5625,3.8125,3.25,0
62930,-4.125,2.6875,3.125,0
62950,-5.5,3.8125,3.25,0
62970,-6.375,3.6875,1.6875,0
62990,-5.5625,3.4375,1.5,0
63010,-3.8125,0.875,1.625,0
63030,-2.625,1.5,2.5625,2000
63050,-2.5625,2.5,3.25,0
63070,-4.3125,2.8125,2.5,0
63090,-3.25,2.4375,-1.375,0
63110,-2.6875,-0.1875,-1.8125,0
63130,-1.6875,-3.6875,1.625,0
63150,-0.375,-4.4375,3.625,0
63170,0.4375,-4.0625,3.9375,0
63190,-0.5625,-4.5625,6.1875,0
63210,-5,-7.375,5.625,0
63230,-3,-10,2.375,0
63250,-0.375,-13.4375,-0.875,0
63270,0.0625,-17.125,0.4375,0
63290,-3.5,-19.5,2.1875,0
63310,-4.75,-17.5625,0.0625,0
63330,-0.4375,-18,-4.0625,0
63350,1.9375,-23.375,-9,0
63370,0.6875,-27.8125,-9.5,0
63390,-2.3125,-30.9375,-6.25,0
63410,-0.9375,-30.6875,-7.6875,0
63430,0.25,-29.875,-14.0625,0
63450,-0.3125,-30.1875,-15.625,0
63470,-4.625,-35.4375,-14.125,0
63490,-10.1875,-37.5625,-11.0625,0
63510,-13.75,-35.375,-13.1875,0
63530,-11.5625,-34.1875,-16.875,0
63550,-8.125,-34.875,-21.4375,0
63570,-10.4375,-35.75,-20.75,0
63590,-16.3125,-34.3125,-16.0625,0
63610,-17.8125,-36.125,-14.75,0
63630,-19.0625,-37.5,-16,0
63650,-20.5,-36.25,-15.25,0
63660,-19.6875,-33.8125,-14.5625,0
63680,-17.4375,-32,-18.125,0
63710,-15,-31.4375,-27.125,0
63740,-8.9375,-28.375,-32.9375,0
63760,-13,-24.5625,-37.1875,0
63780,-19.1875,-22.5,-39.4375,0
63800,-22.625,-18.9375,-41,0
63820,-21.8125,-10.875,-43,0
63840,-24.125,-4.375,-46.25,0
63860,-33.25,2.4375,-50.3125,0
63880,-39.375,8.4375,-55.25,0
63900,-38.375,14.625,-54.125,0
63920,-41.75,21.25,-53,0
63940,-46.8125,27.5625,-56.625,0
63960,-49.625,35.5625,-60.25,0
63980,-51.5625,42.4375,-60.8125,0
64000,-52,48.8125,-58.75,0
64020,-49.4375,54.625,-54.8125,0
64060,-45.6875,68.75,-47.75,0
64080,-43.6875,69.75,-44.75,0
64100,-36.9375,68.25,-39.625,0
64120,-35.0625,68.875,-35,0
64140,-37.5,73.125,-31.4375,0
64160,-34.5,73.8125,-25.3125,0
64180,-29.5,68.1875,-16.8125,0
64200,-23.5,66.25,-8.0625,0
64220,-28,67.4375,-7.25,0
64240,-30.4375,70.4375,-5.375,0
64260,-24.1875,66.625,-4.125,0
64280,-18.5,64.4375,-2.5625,0
64300,-7.9375,60.9375,1.375,0
64320,-8.625,58.3125,0.4375,0
64340,-8.5,54,1.5,0
64360,-8.5,54.5,2.625,0
64380,-6.75,48.875,4.3125,0
64400,0.3125,47,11.5625,0
64420,-0.1875,45,17.0625,0
64440,-3.125,43.5625,20.6875,0
64460,-0.125,36,18.125,0
64480,-2.0625,32.25,21.8125,0
64500,-0.5625,37,30.5625,0
64520,-2.4375,34.5,39.5625,0
64540,-5.8125,25.8125,39.6875,0
64560,-3.5,20.0625,32.5,0
64580,-3.875,23.4375,35.625,0
64600,-5.375,19.875,46.25,0
64610,-2.625,14.9375,48.125,0
64630,-4.1875,9.4375,45.4375,0
64650,-2.6875,9.5625,41.9375,0
64670,-1.5625,6.6875,45.1875,0
64690,2.375,2.0625,44.0625,0
64710,-0.5625,-1.8125,42.5,0
64730,-4.625,-2.5625,37.4375,0
64750,-7.125,-8.8125,35.75,0
64770,-5.5,-13.5,37.9375,0
64790,0.8125,-16.375,39.875,0
64810,-0.875,-16.4375,35.3125,0
64830,-5.125,-17.125,34.1875,0
64850,-8.25,-19.375,37.5,0
64870,-9.8125,-18.875,41.1875,0
64890,-9.8125,-14.5,40.375,0
64910,-10.125,-14.625,37.0625,0
64930,-6.0625,-18.1875,38.125,0
64950,-2.8125,-18.0625,38.4375,0
64970,-3.875,-17.3125,33.8125,0
64990,-7.25,-23.3125,33.4375,0
65010,-5.9375,-28.5625,34.875,0
65030,-7.25,-30.6875,32.6875,0
65050,-11.3125,-36.875,33.125,0
65070,-16.3125,-39.625,30.875,0
65090,-14.125,-42.375,31.6875,0
65110,-11.3125,-45.75,32.1875,0
65130,-15.375,-48.625,29.5,0
65150,-20.8125,-51.5,25.4375,0
65170,-20.75,-54.8125,23.625,0
65190,-15.5625,-55.4375,20.875,0
65210,-12,-55.25,20.5,0
65230,-13.5,-57.125,17.0625,0
65250,-15.125,-59.25,12.625,0
65270,-10.6875,-58.25,6.4375,0
65290,-6.0625,-58.875,4.9375,0
65310,-9.1875,-59.8125,4.6875,0
65330,-12,-59.0625,1.5,0
65350,-3.625,-59.5625,-4.9375,0
65370,4.8125,-55.9375,-7.6875,0
65390,-1.625,-54.625,-9.1875,0
65410,-5.6875,-53.625,-9.6875,0
65430,-3.125,-52.4375,-9.9375,0
65450,6.75,-49.3125,-12.1875,0
65470,7.3125,-49.875,-14.0625,0
65490,-1.125,-51.875,-11.5625,0
65510,-1.125,-53.9375,-12.8125,0
65530,2.8125,-56.4375,-17.3125,0
65550,6.25,-55.3125,-16.1875,0
65570,-0.3125,-51.75,-14.5,0
65590,-3.125,-48.75,-13.6875,0
65610,2.125,-49.375,-18.9375,0
65630,2.6875,-46,-25.1875,0
65650,-0.3125,-42.0625,-23.25,0
65670,-1,-35.8125,-22.1875,0
65690,7.625,-33.0625,-28.5,0
65710,12,-31.375,-35.5625,0
65730,9.125,-29.125,-34.625,0
65750,6.625,-25.9375,-33.375,0
65770,2.625,-23.8125,-35.0625,0
65790,8.875,-19,-40.6875,0
65810,10.0625,-16.4375,-44.1875,0
65830,2.625,-15.375,-39.25,0
65850,-6.125,-13.375,-39.0625,0
65870,-7.6875,-12.9375,-47.25,0
65890,-6,-12.125,-49.875,0
65910,-15.9375,-11.125,-49.25,0
65930,-21.3125,-9.75,-46.4375,0
65950,-26.8125,-7.75,-48.6875,0
65970,-31.3125,-3.4375,-55.8125,0
65990,-30.5625,0.75,-56.375,0
66010,-32.3125,4.875,-53.75,0
66030,-35.5,10.6875,-55.3125,0
66050,-38.8125,16.375,-58.75,0
66070,-40.125,21.125,-55.375,0
66090,-40.625,25.125,-53.1875,0
66110,-40.9375,31.5625,-54.4375,0
66130,-41.5,38.4375,-53.875,0
66150,-39.875,44.5625,-49.6875,0
66170,-37.625,50.625,-46.0625,0
66190,-38.125,55.625,-43.4375,0
66210,-36.375,58.5,-39.875,0
66230,-36.4375,61.75,-35.25,0
66250,-36.3125,64.1875,-32.375,0
66270,-34.25,66,-31.6875,0
66290,-31.125,69.1875,-28.4375,0
66310,-26.625,69.625,-21.875,0
66330,-25.25,68.625,-17.25,0
66350,-22.5,68.25,-17.0625,0
66370,-19,67.25,-17,0
66390,-14.875,65.25,-12.25,0
66410,-12.8125,63.8125,-3.4375,0
66430,-15.8125,62.75,0.625,0
66450,-18.5,58.8125,-0.25,0
66470,-12.5625,58.375,0.75,0
66490,-10.25,56.375,8.0625,0
66510,-8.375,55.4375,17.125,0
66530,-7.375,54.125,23.25,0
66550,-10.5625,51.1875,22.5625,0
66570,-8.625,46.25,24.3125,0
66590,-2.0625,42.6875,30,0
66610,1.1875,39.5625,37.6875,0
66630,-3.5625,37.75,38.5,0
66650,-7.75,35.4375,37.4375,0
66670,-1.25,32.5625,39.125,0
66690,4.25,30.6875,46.25,0
66710,4.3125,29.5625,52.9375,0
66730,-10.9375,27,49.4375,0
66750,-15.625,24.1875,46.0625,0
66770,-8.625,19.375,47.3125,0
66790,-1.125,19.5,50.1875,0
66810,-4.875,17.25,42.875,0
66830,-8.125,14,42.625,0
66850,-4.375,9.9375,46.125,0
66870,3.625,5.875,44.5625,0
66890,3.75,3.9375,41.1875,0
66910,-3.625,1.5,38.875,0
66930,-6.125,-1.8125,40.625,0
66950,-1.75,-2.625,40.0625,0
66970,-0.25,-1.625,39.0625,0
66990,-5.3125,-6.25,38.375,0
67010,-7.8125,-9.75,36.75,0
67030,-2.4375,-10.75,34.6875,0
67050,4.1875,-11.75,33.9375,0
67070,1.6875,-16.1875,35.0625,0
67090,-5.8125,-18.875,35.125,0
67110,-10.5,-20.6875,33.25,0
67130,-10.875,-23.875,32.3125,0
67150,-8.0625,-27.9375,32.9375,0
67170,-10.8125,-30.625,31.8125,0
67190,-14.9375,-35.8125,29.25,0
67210,-11.6875,-40.25,23.75,0
67230,-5.25,-41.375,20.375,0
67250,-5.5,-45.5625,20,0
67270,-10.625,-50.8125,22.375,0
67290,-13.9375,-50.4375,20.375,0
67310,-18.5,-52.125,17.25,0
67330,-23.5,-57,17.75,0
67350,-26.5,-58.375,16.875,0
67370,-26.375,-59.625,16.625,0
67390,-30.25,-58.6875,15.5625,0
67410,-30.75,-61.3125,11.5625,0
67430,-28.4375,-66.5625,8.9375,0
67450,-22.5,-67.5625,5.375,0
67470,-18.6875,-66.0625,3.6875,0
67490,-19.4375,-66.375,4.4375,0
67510,-19.875,-66.4375,1.1875,0
67530,-13.875,-64.25,-5.4375,0
67550,-4.0625,-63.6875,-8.0625,0
67570,-3.75,-63.8125,-9.1875,0
67590,-3.5,-61.0625,-11.4375,0
67610,-0.5625,-59.8125,-15.3125,0
67630,3.8125,-58.5,-20.25,0
67650,8.375,-59.6875,-23.5,0
67670,8.3125,-57.75,-21.125,0
67690,1.0625,-54.25,-22.4375,0
67710,7.25,-52.6875,-27.75,0
67730,14.875,-54.1875,-34.5,0
67750,13.0625,-55.75,-33.4375,0
67770,5.5,-54.125,-28.375,0
67790,6.875,-50,-30.0625,0
67810,13.5625,-48.5,-36,0
67830,11.9375,-49.6875,-37.25,0
67850,0.25,-49,-30.875,0
67870,-6.1875,-44.5,-28.125,0
67890,-1.6875,-40.0625,-36.3125,0
67910,1.625,-37.875,-41.875,0
67930,-3.3125,-36.5625,-37.1875,0
67950,-7.125,-31.8125,-40.125,0
67970,-7.875,-24.6875,-48.6875,0
67990,-8.625,-23.0625,-52.9375,0
68010,-14.5,-21.0625,-48.625,0
68020,-17.25,-13.8125,-41.75,0
68040,-14.6875,-7.3125,-46.8125,0
68060,-14.9375,-2.8125,-54.0625,0
68080,-21.5,-1.0625,-53.375,0
68100,-27.875,2.875,-45.75,0
68120,-27.125,9.75,-45.375,0
68140,-24.0625,17.4375,-52.4375,0
68160,-26.1875,18.8125,-55.3125,0
68180,-30.125,18.8125,-53.9375,0
68200,-32.8125,20.6875,-49.25,0
68220,-29.625,27.625,-49.875,0
68240,-30.8125,31.5,-49.875,0
68260,-33.25,34.6875,-50.5,0
68280,-33.5,38.5625,-50.3125,0
68300,-32.3125,43.5625,-46.9375,0
68320,-30.9375,47.625,-41.3125,0
68340,-29.1875,50.0625,-36.4375,0
68360,-30.1875,53.4375,-33.375,0
68380,-32.625,57.9375,-31,0
68400,-31.5,59.9375,-27.0625,0
68420,-28.5625,60.5,-23.125,0
68440,-27,62.875,-18.4375,0
68460,-27.25,66.875,-12.125,0
68480,-26.5,70.0625,-5.625,0
68500,-23.875,71.0625,-4.1875,0
68520,-21.3125,71,-5.0625,0
68540,-18.375,68.9375,-3.0625,0
68560,-18,64.75,1.75,0
68580,-18.4375,65,6.4375,0
68600,-14.6875,63,7.875,0
68620,-12.75,58.125,7.875,0
68640,-10.625,55.0625,13.625,0
68660,-7.25,51.5625,18.25,0
68680,-7.6875,47.625,20.625,0
68700,-11.5,43,26.25,0
68720,-14.75,38.9375,32.6875,0
68740,-13.8125,37.375,37,0
68760,-9.625,33.375,40.4375,0
68780,-9.75,28.5,43.6875,0
68800,-15.4375,28.8125,50.375,0
68820,-14.5,29.8125,54.8125,0
68840,-13.1875,27.5625,58.375,0
68860,-13.5625,25.4375,57.1875,0
68880,-15,25.4375,54.8125,0
68900,-12.6875,23.625,54.1875,0
68920,-10.625,21.875,56.6875,0
68940,-11.75,23.125,51.25,0
68960,-15.25,20.0625,47.8125,0
68980,-8.3125,20.6875,45.8125,0
69000,4.9375,22.25,46.125,0
69020,1.0625,18.4375,47.375,0
69040,-10.6875,12.6875,44.9375,0
69060,-14.4375,6.375,40.8125,0
69080,-7.1875,-3.5,40.1875,0
69100,-1.75,-10.5,38.1875,0
69120,-5.25,-16.1875,36.8125,0
69140,-13.3125,-23.625,36.875,0
69160,-12.6875,-25.375,33.8125,0
69180,-8.25,-28.4375,34.75,0
69200,-8.375,-35.0625,31.1875,0
69220,-7.125,-38.0625,29,0
69240,-5.375,-37.625,27.375,0
69260,-2.1875,-41.875,26.9375,0
69280,-0.25,-44.625,25.3125,0
69300,-2.0625,-47.75,23.0625,0
69320,-7.5,-49.5625,21.4375,0
69340,-10.125,-50.6875,20.125,0
69360,-11.0625,-50.625,19.6875,0
69380,-10.125,-52.875,19.4375,0
69400,-8.375,-54,16.6875,0
69420,-8.9375,-57.6875,12,0
69440,-15.25,-62.875,8.3125,0
69460,-19.375,-65.75,5.125,0
69480,-14.75,-66.25,0.75,0
69500,-4.6875,-68.25,-1.3125,0
69520,-1.6875,-65.4375,-5.5625,0
69540,-2.5,-62.3125,-10.5,0
69560,-4.1875,-66.375,-11.8125,0
69580,0,-66.75,-15.125,0
69600,5.4375,-64.4375,-19.25,0
69620,5.4375,-64.5,-20,0
69640,4.8125,-64,-21.375,0
69660,7.5,-59.4375,-24.0625,0
69680,9.9375,-56.5,-27.0625,0
69700,9.375,-56.125,-27.6875,0
69720,8.625,-54.5,-28.3125,0
69740,11.625,-51.25,-31.6875,0
69760,13.5625,-49.125,-33.6875,0
69780,12.6875,-46.375,-30.0625,0
69800,11.3125,-46,-31.875,0
69820,12.3125,-44.1875,-34.875,0
69840,12.375,-40.375,-34.25,0
69860,12.9375,-40.125,-33.0625,0
69880,10.5625,-35.625,-35.8125,0
69900,13.1875,-29.4375,-39.25,0
69920,17.875,-26.5625,-36.6875,0
69940,16.8125,-25.75,-35.875,0
69960,12.3125,-21.625,-36.625,0
69980,12.0625,-16.0625,-37.8125,0
70000,14.1875,-13.875,-38.5625,0
70020,11.125,-12.5,-35.0625,0
70030,8.3125,-10.375,-33.0625,0
70050,5.8125,-7.625,-30.125,0
70070,3.6875,-4.125,-25.8125,2001
70090,3.6875,-3.5,-25,0
70110,3.125,-4.75,-23.8125,0
70130,-2.0625,-5.1875,-18.5625,0
70150,-4.125,-3.6875,-14,0
70170,-3.25,-4.5,-13.25,0
70190,-3.125,-4.3125,-11.125,0
70210,-3.5,-3.375,-7.625,0
70230,-1.9375,-2.75,-7.6875,0
70250,-0.625,-1.9375,-7.125,0
70270,-2.125,-2.6875,-5,0
70290,-1.5,-3.0625,0.1875,0
70310,1.25,-3,3.1875,0
70330,3.25,-2.4375,0.9375,0
70350,5,1.75,-1.625,0
70370,9.4375,7.375,3.5625,0
70390,14.6875,12.5,12.6875,0
70410,20.75,20.625,17.0625,0
70430,26.8125,29.125,18.1875,0
70450,31.3125,39,22.6875,0
70470,33.5,48.5625,27.25,0
70490,37.25,58.75,32.8125,0
70510,46,71.375,39.125,0
70530,57.5625,80.625,46.75,0
70550,51.4375,86.75,60.125,0
70570,47.75,95.3125,60.125,0
70590,55.25,103.562,49.875,0
70610,64.1875,108,52.75,0
70630,53.75,107.312,66.4375,0
70650,52.625,107.375,70.375,0
70670,57,111.25,64.4375,0
70690,56.5625,112.562,57.9375,0
70710,43.375,100.938,57.6875,0
70730,41.625,83.3125,60.3125,0
70750,38.25,73.4375,58.3125,0
70770,36.5625,68.625,52.375,0
70790,33.625,59.3125,39.8125,0
70810,31.3125,43.4375,32.0625,0
70830,26.3125,31.0625,33.875,0
70850,16.3125,25,36,0
70870,4.9375,22.5,32.375,0
70890,3.1875,14.8125,26.1875,0
70910,1.5625,3.875,23.375,0
70930,-2.8125,1.5625,20.25,0
70950,-2.625,0.4375,15.625,0
70970,-2.5,-2.25,12.4375,0
70990,-2.5625,-4.5625,11.25,0
71010,-0.8125,-5.4375,6.875,0
71030,2,-4.125,1.25,0
71050,4.5,-3.0625,-1.625,0
71070,3.5625,-2.875,-1.75,0
71090,0.25,-3.875,2.5625,0
71110,-2.4375,-2.25,3.8125,0
71130,0.625,-1.25,2.5,0
71150,2.25,-1.3125,1.5,0
71170,-0.5625,-1.5625,2.5,0
71190,-3.375,0,4.25,0
71210,-4,0.8125,4.6875,2000
71230,-2.5625,3.3125,5.0625,0
71250,-3.6875,4.0625,5.6875,0
71270,-3.625,2.9375,3.8125,0
71290,-3.6875,-0.875,0.9375,0
71310,-4.3125,-4.0625,0.25,0
71330,-3.5,-4.9375,1.75,0
71350,-1.375,-7.6875,4.75,0
71370,-1.5,-10.9375,6.6875,0
71390,-1,-11.5,7.8125,0
71410,-1.25,-13.3125,6.4375,0
71430,-1,-16.5625,3.4375,0
71450,1.9375,-18.1875,-0.875,0
71470,4.8125,-20.8125,-1.375,0
71490,6.1875,-23.75,1.25,0
71510,1.3125,-25.625,-0.0625,0
71530,-2.1875,-26.5625,-3.5625,0
71550,2.5,-26.5625,-8.5625,0
71570,2.75,-29.0625,-10.1875,0
71590,2.9375,-30.125,-8,0
71610,-1.25,-28.125,-4.25,0
71630,-1.625,-26.4375,-3.0625,0
71640,0,-30.25,-6.0625,0
71660,3.8125,-32.5625,-10,0
71690,-1.0625,-33,-9.6875,0
71710,-3.125,-37.375,-8.5,0
71740,-2.4375,-38.3125,-12.5625,0
71760,1.75,-36.75,-14.375,0
71780,0.375,-34.0625,-14.5,0
71800,-3.4375,-33.375,-14.375,0
71820,-7.5625,-35,-14.25,0
71840,-8.9375,-33.1875,-13.75,0
71860,-1.9375,-29.4375,-12.375,0
71900,-3.375,-19,-19.5625,0
71920,-5.3125,-17.875,-25.4375,0
71940,-5.0625,-15.625,-30.3125,0
71960,-7.5,-11.1875,-33,0
71980,-16.3125,-2.5625,-37.4375,0
72000,-19.5,-0.125,-40.375,0
72030,-28.125,65.4375,-31.875,0
72040,-24.8125,64.75,-27.875,0
72060,-20.5,61.125,-26.375,0
72080,-24.75,60.8125,-29.4375,0
72100,-27.75,60.125,-30.25,0
72120,-23.625,60.8125,-23.75,0
72140,-20.4375,62.75,-15.1875,0
72160,-20.9375,57.625,-14,0
72180,-19.8125,52.4375,-17.9375,0
72200,-18.5625,53.3125,-15.1875,0
72220,-23.125,53.25,-6.5625,0
72240,-19.625,52.625,-0.625,0
72260,-12.3125,47.6875,3.125,0
72280,-10,44.375,1.5,0
72300,-12,45.5625,2.0625,0
72320,-13.3125,46.0625,5.375,0
72340,-4.5625,42.6875,12.3125,0
72360,-1.625,35.5625,13.0625,0
72380,-2.125,33.6875,13.1875,0
72400,-6.3125,31.5625,15.125,0
72420,-10.4375,26.6875,21.75,0
72440,-6.5,24.25,25,0
72460,-1.3125,21.4375,26.625,0
72480,-0.75,17.1875,29.5,0
72500,-9.875,13.125,32.3125,0
72520,-14.75,14.875,35.25,0
72540,-9.5,15.1875,40.875,0
72560,0.75,12.0625,45.3125,0
72580,-0.75,6.25,41.8125,0
72600,-9.625,3.0625,41.5,0
72620,-14.5625,5.625,41.4375,0
72640,-9.6875,3.375,45.9375,0
72660,-4.5,-2.75,50.4375,0
72680,-5.125,-4,43.3125,0
72700,-10.6875,-8.25,36.875,0
72720,-6.75,-14.0625,40.8125,0
72740,-4.375,-15.5,40.6875,0
72760,-6.3125,-17.5,41.4375,0
72780,-11.8125,-18.6875,37.9375,0
72800,-13.5,-17.375,37.9375,0
72820,-10.5625,-18.125,40.3125,0
72840,-8.1875,-17.125,43.625,0
72860,-12,-16.9375,39.6875,0
72880,-16.75,-18,36.8125,0
72900,-15.75,-24.3125,40.1875,0
72920,-15.5,-24.875,40.0625,0
72940,-17.375,-26.75,37.4375,0
72960,-25.0625,-32.625,37.875,0
72980,-27.4375,-36.25,39.5625,0
73000,-22.625,-35.875,35.5625,0
73020,-18.625,-40.5,31.25,0
73040,-15.25,-44.0625,31.75,0
73050,-18,-47.625,27.5625,0
73070,-19.25,-52.125,23.4375,0
73090,-18.9375,-57.1875,20,0
73110,-15.875,-62.4375,16.375,0
73130,-13,-66.6875,11.0625,0
73150,-12.625,-66.875,8.375,0
73170,-12.75,-67.625,8,0
73190,-14.0625,-68.5,5.5,0
73210,-8.0625,-68.5,0.25,0
73230,-4.375,-67.625,-4.125,0
73250,-5,-67.125,-5.625,0
73270,-4.25,-71.0625,-7.3125,0
73290,-1.625,-70.1875,-10.4375,0
73310,4.5625,-64.8125,-16.625,0
73330,6.125,-63.625,-17.0625,0
73350,3.6875,-61.125,-11.75,0
73370,4.625,-61.0625,-15.4375,0
73390,9.3125,-60.4375,-20.8125,0
73410,6.8125,-59.6875,-20.875,0
73430,-2.5625,-55.6875,-17.1875,0
73450,1.8125,-54.6875,-19.375,0
73470,6.75,-56,-27.625,0
73490,6.875,-54.5625,-29.5,0
73510,0.75,-51.375,-27.125,0
73530,-3.4375,-45.3125,-31.125,0
73550,2.9375,-45.0625,-37.25,0
73570,3.9375,-40.3125,-41.8125,0
73590,-1.625,-36.3125,-38.4375,0
73610,-7.8125,-35.25,-36,0
73630,-9.25,-31.8125,-40.5625,0
73650,-7.9375,-28,-48.25,0
73670,-9.875,-23.9375,-49,0
73690,-15.5,-20.25,-45.9375,0
73710,-19.125,-13.5,-52.6875,0
73730,-17.4375,-6.8125,-65.9375,0
73750,-21.3125,-5.875,-68.4375,0
73770,-29.5,-4,-66,0
73790,-32.5625,0.9375,-66.5625,0
73810,-31.875,3.0625,-73.9375,0
73830,-33.25,8.3125,-77.625,0
73850,-36.9375,10.9375,-72.8125,0
73870,-42.25,16.3125,-67.625,0
73890,-43.75,23.0625,-66.3125,0
73910,-44.1875,29.9375,-68.1875,0
73930,-43.4375,35.4375,-64.4375,0
73950,-44.4375,38.875,-55.3125,0
73970,-43.0625,46.3125,-47.3125,0
73990,-39.9375,53.75,-45.375,0
74010,-36.9375,57.5,-43.1875,0
74030,-36.5,58.3125,-38.125,0
74050,-35.9375,63,-27.5,0
74070,-30.25,68.0625,-17.6875,0
74090,-26.875,69,-15.5,0
74110,-27.9375,70.875,-15.25,0
74130,-25.75,71.0625,-10.625,0
74150,-20.375,69.6875,-5.0625,0
74170,-17.375,68.75,0,0
74190,-15.5,69.9375,4.6875,0
74210,-11.8125,65.625,10.375,0
74230,-10.3125,63.75,10.6875,0
74250,-8.75,63.6875,10.625,0
74270,-8.625,61.375,16.6875,0
74290,-6.75,57.5625,25.125,0
74310,-2.875,54.875,29.0625,0
74330,-3.6875,49.625,25.9375,0
74350,-7.0625,46.875,27.1875,0
74370,-4.5625,42.5,34.375,0
74390,2.25,37.375,39.5625,0
74410,0.6875,35.4375,45.0625,0
74430,-11.3125,37.8125,43.9375,0
74450,-16.0625,39.375,42.0625,0
74470,-5.4375,36.0625,45.5625,0
74490,0.375,34.625,56.8125,0
74510,-10.1875,34.3125,54.8125,0
74530,-19.4375,35.5625,41.1875,0
74550,-16.75,31.0625,47.5625,0
74570,-10.9375,23.5625,57.1875,0
74590,-11.5625,18.0625,50,0
74610,-14.625,14.3125,39.0625,0
74630,-7.25,9.0625,36.8125,0
74650,-2.75,2.0625,41.9375,0
74670,-1.375,-0.8125,41.0625,0
74690,-4.5,-0.0625,35.625,0
74710,-3.25,-6.4375,33.25,0
74730,-1.125,-13.5,32,0
74750,-0.3125,-16,35.1875,0
74770,-0.125,-16.4375,34.625,0
74790,-1.375,-18.3125,32.1875,0
74810,-2,-23.4375,34.9375,0
74830,-3.8125,-25.8125,36.9375,0
74850,-4.875,-27.4375,36.125,0
74870,-7,-26.1875,35.1875,0
74890,-13.1875,-29.0625,33.8125,0
74910,-17.9375,-36.1875,36.8125,0
74930,-17.75,-37.8125,35.875,0
74950,-15.8125,-40.4375,33.9375,0
74970,-17.25,-45.875,31.625,0
74990,-21.8125,-54.9375,29.5,0
75010,-20.25,-57.5,27.4375,0
75030,-18.125,-56.5,22.125,0
75050,-18.125,-59.8125,19.1875,0
75060,-17.25,-64.3125,18.3125,0
75080,-14.1875,-64.8125,14.6875,0
75100,-11.1875,-63.625,8.375,0
75120,-14.1875,-64.8125,4.9375,0
75140,-18.75,-68.75,4.125,0
75160,-13.125,-69.5625,0.8125,0
75180,-7.3125,-68.875,-3.6875,0
75200,-6.9375,-71.1875,-8.1875,0
75220,-7,-70.875,-11.8125,0
75240,-3.75,-69.75,-15.1875,0
75260,-3.8125,-68.5625,-19.625,0
75280,-1.8125,-67.9375,-22.6875,0
75300,0.9375,-67.5625,-25.375,0
75320,5.625,-63.0625,-29.9375,0
75340,6.0625,-61.625,-30.5,0
75360,-0.25,-62,-31.8125,0
75380,5.125,-59,-31.625,0
75400,3.1875,-53.0625,-31.25,0
75420,2.875,-46.375,-30.4375,0
75440,-5.8125,-42.1875,-29.625,0
75460,-4.125,-40.5625,-31.5,0
75480,0.25,-41.1875,-39.25,0
75500,-0.4375,-38.6875,-41.75,0
75520,-2.25,-34.5,-41.875,0
75540,-1.25,-30.875,-44.9375,0
75560,-1.3125,-27.8125,-50.5,0
75580,-5.375,-24.0625,-53.625,0
75600,-15.625,-21.4375,-53.375,0
75620,-21.25,-18.4375,-54.6875,0
75640,-17.75,-14.6875,-59,0
75660,-13.75,-8.625,-65.125,0
75680,-16.75,-2.9375,-63.875,0
75700,-27.25,1.125,-61.1875,0
75710,-23.6875,13.5,-63,0
75730,-20,16.125,-62.625,0
75750,-22,21.625,-55.5625,0
75770,-25.8125,29.375,-51.25,0
75790,-24.8125,34.625,-49.6875,0
75810,-24.5,37.375,-46.875,0
75830,-26.4375,39.875,-44.9375,0
75850,-28.625,44.0625,-42.5,0
75870,-26.75,50.375,-39.0625,0
75890,-24.5,53.875,-37.5,0
75910,-23.375,55.9375,-37.8125,0
75930,-22.375,56.4375,-35.875,0
75950,-23.75,57.5625,-31,0
75970,-24.875,60.5,-25.875,0
75990,-26.25,62.9375,-20.625,0
76010,-25.75,64.1875,-15.5625,0
76030,-23.125,64.875,-12.25,0
76050,-21.125,65.375,-9.5625,0
76070,-20.875,64.5,-4.125,0
76090,-20.8125,63.6875,-1,0
76110,-17.875,62.25,2.5625,0
76130,-15,60.375,8.1875,0
76150,-13.1875,58.0625,13.4375,0
76170,-16.25,54.375,18.625,0
76190,-14.625,52.6875,23.875,0
76210,-10.375,49.4375,28.0625,0
76230,-9.1875,45.625,30.125,0
76250,-4.8125,39.75,33.0625,0
76270,-3.6875,35.625,38.1875,0
76290,-12,36,42.8125,0
76310,-9.1875,37.375,44.125,0
76330,0.9375,34.875,42.25,0
76350,5.5,31.125,46.875,0
76370,-1.1875,32.5625,51.375,0
76390,-6.125,33.6875,51.5,0
76410,-4.1875,31.875,47.625,0
76430,-0.0625,28,46.75,0
76450,0.9375,24.875,46.5625,0
76470,-0.4375,15.75,40.375,0
76490,2,13.25,39.4375,0
76510,13.75,17.5,39.125,0
76530,15.375,10.75,40.0625,0
76550,11.25,3.875,35.5,0
76570,3,3.4375,35.625,0
76590,10.0625,3.5,38.0625,0
76610,16.375,3.5,39,0
76630,15.4375,2.25,38.3125,0
76650,8,0.9375,36.5,0
76670,8.25,-1.4375,35.5625,0
76690,12.1875,-0.75,31.4375,0
76710,8.9375,-4.875,30.25,0
76730,3.375,-10.25,28.9375,0
76750,2.4375,-13.125,26.9375,0
76770,7.875,-15.0625,24.0625,0
76790,6.8125,-22.5625,21.3125,0
76810,2.0625,-26.4375,21,0
76830,1.375,-29.8125,20.0625,0
76850,3.625,-37.9375,21.9375,0
76870,1.625,-43.75,21.25,0
76890,-4.5625,-44.5625,22.3125,0
76910,-12.3125,-49.375,20.25,0
76930,-16.3125,-54.0625,19.875,0
76950,-21.75,-63.375,21.6875,0
76970,-29.875,-68.4375,21.9375,0
76990,-35.25,-70.875,16.5625,0
77010,-31.125,-76.4375,9.9375,0
77030,-21.5625,-80.5625,8.375,0
77050,-15.875,-80.5,10.875,0
77070,-17.3125,-78.3125,5.25,0
77090,-13.375,-78.5,-3.3125,0
77110,-6.0625,-82.625,-7.1875,0
77130,2.4375,-83.25,-13.1875,0
77150,2.5,-81.875,-14.1875,0
77170,-0.5,-78.625,-18.5625,0
77190,6.9375,-69.9375,-24.0625,0
77210,11.5,-67.0625,-27,0
77230,5.75,-68.25,-26.625,0
77250,9.375,-63.25,-29.25,0
77270,16.125,-56.0625,-38.4375,0
77290,23.4375,-51,-41.5625,0
77310,15.375,-52.4375,-38.3125,0
77330,13.5,-51.5,-36.375,0
77350,19.5625,-46.8125,-45.75,0
77370,18.375,-43.8125,-47.5625,0
77390,10.125,-43.0625,-42.875,0
77410,9.875,-41.875,-39.9375,0
77430,14.25,-36.5,-42.3125,0
77450,15.3125,-29.0625,-42.9375,0
77470,10.75,-25.625,-39.4375,0
77490,8.3125,-23.6875,-37.8125,0
77510,13,-20.875,-38.8125,0
77530,15.8125,-14.4375,-36.1875,0
77550,8.0625,-9.3125,-27.375,0
77570,6.625,-6.875,-22.75,2001
77590,8,-4.8125,-24.25,0
77610,3.75,-1.75,-19.4375,0
77630,-0.75,1.8125,-8.3125,0
77650,-3.3125,4.125,0.0625,0
77670,-5.375,6.875,4.1875,0
77690,-7.6875,5.1875,2.125,0
77710,-7,0.625,0.875,0
77730,-1.9375,-1.4375,2,0
77750,0.5,0.125,1.1875,0
77770,0.4375,0.625,0.3125,0
77790,1.5,-2.3125,1.8125,0
77810,2.5,-6.0625,3,0
77830,3.875,-6.1875,1.625,0
77850,10.375,-1.5,3.5,0
77870,16.6875,4.3125,6.875,0
77890,20.3125,10.9375,9.6875,0
77910,22.875,22,13.75,0
77930,27.75,34.75,25,0
77950,33.9375,49.5625,40.625,0
77970,40.0625,64.1875,49.625,0
77990,48,82.9375,56.9375,0
78010,46.375,95.0625,68.875,0
78030,41.875,103.438,76.25,0
78050,51.375,116.438,69.375,0
78070,59.375,118.688,66.3125,0
78090,52.375,120.312,76.3125,0
78110,53.5,121,74.625,0
78130,55.375,124.375,74.5,0
78150,47.5625,125.812,68.0625,0
78170,41.6875,112.062,60.9375,0
78190,38.875,92.6875,61.375,0
78210,33.25,81.4375,54.9375,0
78230,27.3125,73.3125,46.4375,0
78250,22.5625,57.5,38.875,0
78270,16.125,39.3125,34.5625,0
78290,8.25,28.4375,29,0
78310,5.5625,21.625,22.875,0
78330,2.6875,14.9375,21.375,0
78350,-1,7.5,23.0625,0
78370,-4.875,3.5,16.8125,0
78390,-2.875,0.875,8.8125,0
78410,-0.875,-2.625,4.75,0
78430,-1.75,-5.1875,6.75,0
78440,-2.6875,-7.5,8.25,0
78460,-0.875,-7.25,5.0625,0
78480,2.25,-5.75,-0.4375,0
78500,5,-4.1875,-2.125,0
78520,5.1875,-2.625,0.4375,0
78540,2.375,-1.75,2.8125,0
78560,1.0625,-0.125,3.9375,0
78580,0.875,0.375,4.25,0
78600,1.375,0.6875,2.1875,0
78620,1.4375,0.25,2.125,0
78640,-1.875,0,5,2000
78660,-4.5,0.5625,8.1875,0
78680,-3.625,1.75,9.4375,0
78700,1.625,3.5,3.3125,0
78720,3.5625,2.75,-5.375,0
78740,1.875,0.4375,-5.4375,0
78760,-0.3125,-2.0625,-1.625,0
78780,-1.25,-2.375,0.375,0
78800,-1.0625,-3.5625,0.125,0
78820,-3,-5.6875,-0.9375,0
78840,-4.25,-7.1875,-2,0
78860,-4.25,-9.625,-2.5625,0
78880,-3.8125,-12.1875,-0.875,0
78900,-2.6875,-15.5625,2.5,0
78920,-2.8125,-20.125,3.25,0
78940,-2.6875,-23.25,3.125,0
78960,-1.625,-24.5625,2.75,0
78980,3.125,-27.375,-0.875,0
79000,3.625,-30.75,-5.625,0
79020,3,-32.8125,-7.25,0
79040,-0.25,-34,-6.5625,0
79060,1.0625,-37.4375,-10.1875,0
79080,1.75,-38.1875,-13.75,0
79100,-1.25,-39.3125,-15,0
79120,-2.3125,-39,-11.5625,0
79140,-4.125,-40.8125,-11.5,0
79160,-3,-41.1875,-16.0625,0
79180,-4.5625,-43.0625,-17.1875,0
79200,-7.625,-42.1875,-12,0
79220,-9.3125,-39.3125,-5.625,0
79240,-8.875,-36.5,-10.0625,0
79260,-7.875,-38.375,-12.9375,0
79300,-11,-38.375,-11.8125,0
79320,-13.1875,-37.625,-9.0625,0
79340,-11.25,-36.6875,-12,0
79360,-11.75,-36.4375,-19.5625,0
79380,-12.0625,-33.375,-22.375,0
79400,-6.8125,-30.5625,-23.625,0
79420,-4.8125,-26.3125,-26.1875,0
79440,-8.9375,-24,-29.0625,0
79460,-12.4375,-24,-33.8125,0
79480,-13.9375,-21.3125,-38.25,0
79500,-15.25,-16.25,-40.125,0
79520,-15.9375,-9.9375,-43.125,0
79540,-23.5,-5.1875,-46.5625,0
79560,-29.25,2.0625,-52.4375,0
79580,-33.9375,7.3125,-57.375,0
79590,-35.375,14.875,-55.6875,0
79630,-47.5625,38.0625,-55,0
79650,-48.375,44,-53.0625,0
79670,-45.9375,52.1875,-50.5625,0
79690,-49.125,56.6875,-49.875,0
79710,-48.75,61.6875,-48.8125,0
79730,-41.875,66.1875,-44.125,0
79750,-38.625,71.5,-38.625,0
79770,-38.9375,76.375,-37.25,0
79800,-36.4375,76.375,-33.5625,0
79830,-30,75.6875,-25.125,0
79850,-27,75.5625,-22.4375,0
79880,-29.375,69.9375,-17.125,0
79900,-21.375,69.5,-10.75,0
79920,-20.4375,68.5625,-6.625,0
79940,-21.8125,67.25,-7.875,0
79960,-24.875,60.375,-12.25,0
79980,-18.6875,56.6875,-12.3125,0
80000,-10.375,57.4375,-9.875,0
80020,-8.25,57.4375,-6.75,0
80040,-6.4375,53.3125,-7.9375,0
80060,-4.1875,50.3125,-11.8125,0
80080,-5.5,49.125,-8.875,0
80100,-4.6875,52.3125,2.8125,0
80120,-1.5,51.4375,10.625,0
80140,1.3125,47.6875,7.125,0
80160,2.6875,44.9375,6.125,0
80180,-0.0625,39.3125,14,0
80200,0.625,40.1875,21.375,0
80220,0.1875,35.9375,28.0625,0
80240,-0.75,31.3125,31.5625,0
80260,-0.8125,26.6875,33,0
80280,-2.875,25.0625,36.3125,0
80300,4.0625,24.375,41.5,0
80320,4.75,21.625,46.375,0
80340,-0.875,19.125,48.0625,0
80350,-4.375,16.9375,41.0625,0
80370,-1.625,16.4375,40.875,0
80390,1.4375,11.375,48.375,0
80410,3.125,10.125,51.125,0
80430,4.0625,6.8125,44.1875,0
80450,4.375,-0.375,41.5625,0
80470,1.1875,-2.9375,45.0625,0
80490,-3.3125,-3.375,47.9375,0
80510,-5.5,-7.9375,47.9375,0
80530,-0.0625,-12.8125,44.25,0
80550,-0.6875,-16.5,44.125,0
80570,-5.4375,-17.9375,44.9375,0
80590,-8.9375,-18.0625,43.0625,0
80610,-10.6875,-21.5625,43.1875,0
80630,-13.875,-27.5,45.125,0
80650,-16.75,-28.5,41.625,0
80670,-16.5625,-28.375,40.125,0
80690,-19.5,-31.3125,42.1875,0
80710,-22.125,-34.0625,43.0625,0
80730,-22,-31.6875,37.25,0
80750,-23,-33.25,31.625,0
80770,-22.8125,-37.3125,34.5,0
80790,-22.3125,-39.4375,34,0
80810,-20.75,-44.4375,29.75,0
80830,-20.875,-51.5625,24.4375,0
80850,-24.1875,-59.3125,22.5625,0
80870,-24.25,-63.8125,24.875,0
80890,-27.125,-63.25,23.3125,0
80910,-31,-67.0625,20.125,0
80930,-29.25,-67.1875,18,0
80950,-21.375,-67.6875,18.5,0
80970,-13.0625,-65,14.125,0
80990,-18.25,-70.125,8.5625,0
81010,-19,-72.0625,2.25,0
81030,-7.9375,-70.5625,-3.0625,0
81050,6.375,-69.0625,-10.0625,0
81070,8.9375,-73.8125,-12.875,0
81090,-3.3125,-74,-15.3125,0
81110,-0.875,-73,-16.8125,0
81130,11.75,-66.4375,-17.5,0
81150,13.6875,-65.8125,-22.875,0
81170,2.125,-68.125,-21.25,0
81190,-1.8125,-68.0625,-17.9375,0
81210,0.75,-64.875,-22.75,0
81230,4.0625,-64.1875,-29.875,0
81250,-2.75,-59.875,-24.8125,0
81270,-8.0625,-52.5,-20.4375,0
81290,0.4375,-49,-32.75,0
81310,2.1875,-49.5625,-42.1875,0
81330,1.8125,-48.625,-40.9375,0
81350,-0.5,-40.875,-39.25,0
81370,-7.4375,-37.75,-43.625,0
81390,-5,-37.6875,-51.25,0
81410,-3.3125,-34.375,-56.1875,0
81430,-11,-27.4375,-53.375,0
81450,-19.0625,-21.4375,-53.375,0
81470,-20.25,-16.875,-61.1875,0
81490,-19.5625,-11.875,-65.75,0
81510,-24.4375,-8.6875,-64.8125,0
81530,-27.875,-1.3125,-65,0
81550,-33,3.1875,-68.25,0
81570,-32.625,7.875,-71.4375,0
81590,-35.625,12.1875,-71.0625,0
81610,-38.9375,15.5,-70.8125,0
81630,-41.8125,22.75,-68.8125,0
81650,-42.25,30.8125,-66.625,0
81670,-43.5,37.75,-62.6875,0
81690,-43.25,42.5,-57.6875,0
81710,-40.875,47.0625,-51.5,0
81730,-38.125,54.125,-46.9375,0
81750,-35,60.1875,-42.375,0
81770,-34.125,65.3125,-35.5625,0
81790,-33.5625,66.125,-22.75,0
81810,-32.5,68.625,-10.5625,0
81830,-29.125,72.3125,-9.875,0
81850,-28.25,73.4375,-13.75,0
81870,-26.1875,71.125,-10,0
81890,-22.25,69.0625,0.5625,0
81910,-23.125,72,9.875,0
81930,-22.5625,69.3125,6.0625,0
81950,-15.8125,65.9375,-0.1875,0
81970,-11.1875,63.8125,0.9375,0
81990,-10.3125,63.1875,10.75,0
82010,-12.625,61.0625,17.6875,0
82030,-10.9375,56.9375,12.0625,0
82050,-12.75,51.8125,12,0
82070,-7.625,49.6875,22.6875,0
82090,-9.75,50.8125,34.25,0
82110,-7.875,47.4375,31.125,0
82130,-1.8125,42.25,25.4375,0
82150,-0.125,37.1875,30.3125,0
82170,-1.75,33,40.8125,0
82190,-5.625,31.75,46.8125,0
82210,-9.3125,27.3125,43.875,0
82230,-9.625,20.6875,40.25,0
82250,-6.8125,13.5,44.5,0
82270,-7.3125,9.75,51,0
82290,-14.8125,10.3125,52.375,0
82310,-23.25,11.1875,48.6875,0
82330,-22.125,4.5,48.75,0
82350,-10.1875,-3.375,47.6875,0
82370,-5,-0.6875,43.9375,0
82390,-7.8125,2.25,44.6875,0
82410,-13.0625,-2,45.125,0
82430,-12.0625,-7.375,43.8125,0
82450,-2.8125,-4.875,41.5625,0
82470,-3,0,42.4375,0
82490,-7.25,0.0625,48.375,0
82510,-14.125,0.9375,46.375,0
82530,-10.8125,2,48.625,0
82550,-6.375,7.5625,46.4375,0
82570,-10.6875,0,40.0625,0
