Timestamp, Angle x, Angle y, Angle z, Marker
40,-0.934846,0.434993,1.03792,0
60,-0.935605,0.436467,1.03912,0
80,-0.939889,0.438671,1.03923,0
100,-0.948556,0.441913,1.04008,0
120,-0.95952,0.446167,1.04179,0
130,-0.970359,0.450787,1.04399,0
130,-0.98032,0.455628,1.04624,0
180,-0.987694,0.460136,1.04844,0
200,-0.993119,0.463978,1.05061,0
220,-0.99676,0.466995,1.05225,0
240,-0.999437,0.469093,1.05353,0
260,-1.00088,0.470224,1.0542,0
280,-1.00024,0.470565,1.05473,0
300,-0.998718,0.470344,1.05452,0
320,-0.996348,0.470143,1.05479,0
340,-0.994262,0.469672,1.05499,0
360,-0.991635,0.469002,1.05596,0
380,-0.987909,0.468405,1.05698,0
400,-0.983936,0.468385,1.05845,0
420,-0.980348,0.469081,1.06019,0
440,-0.9768,0.469985,1.06149,0
460,-0.973017,0.470679,1.06337,0
480,-0.96898,0.471976,1.06539,0
500,-0.964546,0.473272,1.06769,0
520,-0.960002,0.475009,1.07076,0
540,-0.954679,0.476178,1.07401,0
560,-0.948131,0.476516,1.07697,0
580,-0.943531,0.477868,1.07951,0
600,-0.943067,0.474892,1.07954,0
620,-0.943797,0.470878,1.08049,0
640,-0.942191,0.467795,1.08233,0
660,-0.940414,0.464915,1.08402,0
680,-0.938315,0.461722,1.08566,0
700,-0.936888,0.458989,1.08735,0
720,-0.93518,0.455972,1.08872,0
740,-0.934838,0.454139,1.09011,0
770,-0.938422,0.455781,1.09242,0
790,-0.941115,0.457453,1.0927,0
830,-0.942667,0.457767,1.092,0
850,-0.94248,0.457326,1.09143,0
870,-0.941614,0.457185,1.09088,0
890,-0.940572,0.456737,1.09011,0
910,-0.939611,0.455992,1.08889,0
930,-0.938884,0.455562,1.08779,0
950,-0.938862,0.455754,1.08681,0
970,-0.939149,0.456465,1.08636,0
980,-0.939177,0.457067,1.0863,0
1000,-0.939227,0.457649,1.08642,0
1020,-0.939379,0.458581,1.08717,0
1040,-0.939528,0.459413,1.08807,0
1060,-0.93956,0.460231,1.08919,0
1080,-0.939226,0.460944,1.08993,0
1100,-0.938855,0.461764,1.09048,0
1120,-0.938213,0.461957,1.09068,0
1140,-0.93733,0.462054,1.09113,0
1160,-0.936494,0.462346,1.09131,0
1180,-0.935759,0.46264,1.09144,0
1200,-0.935906,0.463187,1.09182,0
1220,-0.936433,0.463823,1.09193,0
1240,-0.937463,0.464595,1.09207,0
1260,-0.938523,0.465228,1.09189,0
1280,-0.939378,0.465692,1.09181,0
1300,-0.939869,0.46605,1.09136,0
1320,-0.940125,0.466093,1.0908,0
1340,-0.940125,0.466093,1.0908,0
1360,-0.940125,0.466093,1.0908,0
1380,-0.940164,0.466086,1.09083,0
1400,-0.940164,0.466086,1.09083,0
1420,-0.939491,0.465675,1.0911,0
1440,-0.938483,0.465269,1.09153,0
1460,-0.937412,0.464755,1.0922,0
1480,-0.936,0.4645,1.09307,0
1500,-0.934911,0.464713,1.09415,0
1520,-0.93401,0.465008,1.09592,0
1540,-0.933729,0.465454,1.09751,0
1560,-0.933247,0.465833,1.09907,0
1580,-0.931694,0.466048,1.10118,0
1600,-0.929319,0.465552,1.10318,0
1620,-0.925291,0.464285,1.10459,0
1640,-0.919947,0.462465,1.10557,0
1660,-0.912939,0.459547,1.10667,0
1680,-0.90475,0.455887,1.10758,0
1700,-0.896218,0.452002,1.10856,0
1720,-0.888425,0.448431,1.10946,0
1740,-0.880376,0.445238,1.1116,0
1760,-0.872654,0.442214,1.11421,0
1780,-0.864132,0.439824,1.11757,0
1800,-0.854849,0.439033,1.12258,0
1820,-0.84466,0.437361,1.12696,0
1840,-0.834947,0.434579,1.13106,0
1860,-0.824791,0.431808,1.13629,0
1880,-0.814756,0.428619,1.14181,0
1900,-0.806723,0.426184,1.14738,0
1920,-0.79899,0.425755,1.15442,0
1940,-0.790004,0.426167,1.16288,0
1960,-0.779957,0.425398,1.169,0
1980,-0.770856,0.422996,1.17278,0
2000,-0.760982,0.420854,1.17537,0
2020,-0.750588,0.419018,1.17701,0
2040,-0.73791,0.41791,1.17855,0
2060,-0.720812,0.416261,1.18004,0
2080,-0.698191,0.413549,1.18145,0
2100,-0.674366,0.408826,1.18228,0
2120,-0.651095,0.403944,1.18369,0
2140,-0.627875,0.39668,1.18256,0
2160,-0.604494,0.389515,1.18179,0
2180,-0.578162,0.381951,1.18128,0
2200,-0.550348,0.372561,1.18017,0
2220,-0.522413,0.361357,1.1783,0
2240,-0.497524,0.351496,1.17635,0
2260,-0.476558,0.343847,1.17463,0
2280,-0.460652,0.337518,1.1728,0
2300,-0.449628,0.33255,1.17078,0
2320,-0.443263,0.330093,1.1693,0
2340,-0.438718,0.328732,1.16785,0
2360,-0.436096,0.328698,1.1668,0
2380,-0.434576,0.328698,1.16591,0
2400,-0.433212,0.328634,1.16483,0
2420,-0.431757,0.32878,1.16329,0
2440,-0.430088,0.329029,1.1616,0
2460,-0.428299,0.329243,1.16008,0
2480,-0.426939,0.329469,1.15853,0
2500,-0.425947,0.329638,1.15699,0
2520,-0.425628,0.329717,1.1556,0
2540,-0.426307,0.329878,1.15462,0
2560,-0.427466,0.330285,1.15393,0
2580,-0.42896,0.330663,1.1534,0
2600,-0.430301,0.331,1.15301,0
2620,-0.431203,0.331529,1.15324,0
2640,-0.431303,0.332036,1.15409,0
2660,-0.431126,0.332537,1.15513,0
2680,-0.430008,0.332815,1.15607,0
2700,-0.428426,0.333285,1.15713,0
2720,-0.42685,0.333552,1.15808,0
2740,-0.425124,0.333816,1.15889,0
2760,-0.423986,0.334133,1.15904,0
2780,-0.423472,0.334231,1.15858,0
2800,-0.423422,0.334345,1.15763,0
2820,-0.423527,0.3345,1.15654,0
2840,-0.423851,0.334486,1.15527,0
2860,-0.424351,0.334751,1.15416,0
2880,-0.42498,0.334778,1.15289,0
2900,-0.425331,0.334519,1.1523,0
2920,-0.42521,0.334447,1.1523,0
2940,-0.424421,0.334227,1.15235,0
2960,-0.423051,0.333961,1.15259,0
2980,-0.421406,0.333583,1.15297,0
3000,-0.420004,0.333348,1.15336,0
3020,-0.418545,0.332939,1.15375,0
3040,-0.417147,0.33267,1.15396,0
3060,-0.415872,0.33223,1.15436,0
3080,-0.414845,0.331867,1.15441,0
3100,-0.413969,0.331579,1.1545,0
3120,-0.413429,0.331227,1.15456,0
3140,-0.412646,0.330974,1.15444,0
3160,-0.412382,0.330702,1.15418,0
3180,-0.411732,0.330255,1.15361,0
3200,-0.410663,0.329528,1.1531,0
3220,-0.409594,0.328803,1.15259,0
3240,-0.408884,0.328292,1.15208,0
3260,-0.4087,0.327621,1.15121,0
3280,-0.408601,0.327051,1.15049,0
3300,-0.408137,0.326333,1.15011,0
3320,-0.407305,0.325711,1.1499,0
3340,-0.405896,0.325043,1.14987,0
3360,-0.403947,0.323983,1.1502,0
3380,-0.400906,0.322898,1.15086,0
3400,-0.397879,0.321582,1.15124,0
3420,-0.395484,0.320517,1.15159,0
3440,-0.393278,0.319312,1.15189,0
3460,-0.390702,0.318264,1.1527,0
3480,-0.388477,0.316677,1.15341,0
3500,-0.385965,0.314773,1.15412,0
3520,-0.382191,0.312002,1.15481,0
3540,-0.375424,0.30908,1.15575,0
3560,-0.364941,0.30577,1.15684,0
3580,-0.352328,0.300597,1.15802,0
3600,-0.336784,0.293103,1.16008,0
3620,-0.319487,0.285404,1.16206,0
3640,-0.302643,0.278205,1.16421,0
3660,-0.286833,0.274191,1.16725,0
3680,-0.272478,0.272251,1.1713,0
3690,-0.260326,0.271014,1.17677,0
3710,-0.250588,0.271007,1.18137,0
3730,-0.24334,0.270682,1.18493,0
3750,-0.237494,0.270919,1.18677,0
3770,-0.233832,0.270037,1.18668,0
3790,-0.231557,0.26877,1.18595,0
3810,-0.230532,0.268342,1.18512,0
3830,-0.229849,0.268058,1.18457,0
3850,-0.22944,0.267314,1.18445,0
3870,-0.228659,0.267042,1.18493,0
3890,-0.228835,0.267425,1.18552,0
3910,-0.229361,0.268189,1.18609,0
3930,-0.229491,0.268843,1.18667,0
3950,-0.228813,0.269366,1.18715,0
3970,-0.228637,0.269397,1.18715,0
3990,-0.228528,0.269325,1.18715,0
4010,-0.228413,0.269275,1.18733,0
4030,-0.228413,0.269275,1.18733,0
4050,-0.228304,0.269204,1.18733,0
4070,-0.227546,0.268782,1.18709,0
4090,-0.226589,0.267964,1.18702,0
4110,-0.225448,0.267641,1.1871,0
4130,-0.224811,0.267663,1.18712,0
4150,-0.224744,0.267765,1.18712,0
4170,-0.224744,0.267765,1.18712,0
4190,-0.224562,0.267817,1.1873,0
4210,-0.224712,0.267388,1.18683,0
4230,-0.225121,0.267014,1.1865,0
4250,-0.22595,0.266736,1.18602,0
4270,-0.226976,0.266595,1.18551,0
4290,-0.22793,0.266576,1.18517,0
4310,-0.228999,0.266608,1.18465,0
4330,-0.231235,0.267388,1.1839,0
4350,-0.234616,0.268489,1.18306,0
4370,-0.238423,0.269684,1.18207,0
4390,-0.242263,0.27058,1.1809,0
4410,-0.246991,0.2716,1.17896,0
4430,-0.253284,0.273421,1.17719,0
4450,-0.26192,0.276285,1.17573,0
4470,-0.271707,0.279019,1.17422,0
4490,-0.281237,0.281221,1.17241,0
4510,-0.291169,0.283842,1.17016,0
4530,-0.300995,0.28685,1.16804,0
4550,-0.309348,0.289285,1.16645,0
4570,-0.315397,0.290823,1.16519,0
4590,-0.319052,0.291817,1.16405,0
4610,-0.322761,0.293011,1.16246,0
4630,-0.326489,0.293927,1.16087,0
4650,-0.329505,0.29358,1.15972,0
4670,-0.331477,0.292705,1.15865,0
4690,-0.33326,0.292108,1.15739,0
4710,-0.336279,0.292447,1.15603,0
4730,-0.33974,0.292843,1.15499,0
4750,-0.343667,0.292935,1.15377,0
4770,-0.347342,0.293436,1.15254,0
4790,-0.351175,0.294617,1.15123,0
4810,-0.355135,0.29565,1.15027,0
4830,-0.358189,0.296345,1.14963,0
4850,-0.359776,0.297019,1.14939,0
4870,-0.360057,0.297528,1.14949,0
4890,-0.359892,0.297983,1.1499,0
4910,-0.359682,0.298768,1.1506,0
4930,-0.359591,0.299594,1.15114,0
4950,-0.359541,0.30012,1.15154,0
4970,-0.359658,0.30019,1.15154,0
4990,-0.359658,0.30019,1.15154,0
5010,-0.360055,0.30077,1.15164,0
5030,-0.360676,0.300988,1.15143,0
5050,-0.361359,0.301133,1.15141,0
5070,-0.362135,0.301149,1.15125,0
5090,-0.362641,0.301296,1.15105,0
5110,-0.363282,0.301742,1.15116,0
5130,-0.364077,0.302153,1.15124,0
5150,-0.364868,0.302594,1.15149,0
5170,-0.365663,0.303005,1.15157,0
5190,-0.366308,0.303422,1.1515,0
5210,-0.366985,0.303813,1.15129,0
5230,-0.367763,0.303829,1.15113,0
5250,-0.368333,0.303874,1.15094,0
5270,-0.368814,0.303851,1.15078,0
5290,-0.36919,0.304233,1.15074,0
5310,-0.369577,0.304339,1.15071,0
5330,-0.370328,0.304352,1.15052,0
5350,-0.370829,0.304559,1.15067,0
5370,-0.371302,0.304762,1.15078,0
5390,-0.37168,0.305095,1.15103,0
5410,-0.372239,0.305396,1.15128,0
5430,-0.372239,0.305396,1.15128,0
5450,-0.372239,0.305396,1.15128,0
5470,-0.372239,0.305396,1.15128,0
5490,-0.372242,0.305366,1.15111,0
5510,-0.373067,0.305782,1.15122,0
5530,-0.37459,0.306039,1.15115,0
5550,-0.376905,0.306954,1.15098,0
5570,-0.380844,0.308732,1.15117,0
5590,-0.387171,0.311574,1.15102,0
5610,-0.396328,0.315534,1.15018,0
5630,-0.407353,0.32029,1.14892,0
5650,-0.419411,0.324974,1.14717,0
5670,-0.431589,0.328817,1.14443,0
5680,-0.443531,0.3321,1.14145,0
5700,-0.454798,0.334468,1.13841,0
5720,-0.465676,0.337024,1.13554,0
5740,-0.476098,0.339805,1.13294,0
5760,-0.486902,0.342515,1.13036,0
5780,-0.498052,0.345959,1.12844,0
5800,-0.509243,0.349457,1.12717,0
5820,-0.51942,0.353046,1.12585,0
5840,-0.528317,0.357268,1.1254,0
5860,-0.5363,0.361461,1.12525,0
5880,-0.543911,0.366126,1.12552,0
5900,-0.551471,0.370829,1.12621,0
5920,-0.559557,0.376105,1.12794,0
5940,-0.56768,0.38163,1.12978,0
5960,-0.575518,0.387103,1.13144,0
5980,-0.582116,0.391767,1.13309,0
6000,-0.58687,0.395853,1.13456,0
6020,-0.589289,0.399001,1.13604,0
6040,-0.58992,0.401173,1.13743,0
6060,-0.589011,0.402454,1.13884,0
6080,-0.587143,0.403058,1.14001,0
6100,-0.584717,0.40334,1.14145,0
6120,-0.581795,0.403326,1.14292,0
6140,-0.578939,0.402993,1.14432,0
6160,-0.575703,0.402449,1.14541,0
6180,-0.572932,0.40198,1.14634,0
6200,-0.570092,0.401336,1.14729,0
6220,-0.566969,0.400602,1.14808,0
6240,-0.563866,0.399882,1.14857,0
6260,-0.560561,0.399002,1.14943,0
6280,-0.557223,0.398164,1.15043,0
6300,-0.554194,0.397525,1.15168,0
6320,-0.55267,0.397374,1.15319,0
6340,-0.55344,0.397674,1.15491,0
6360,-0.55655,0.398795,1.15643,0
6380,-0.561848,0.400328,1.15786,0
6400,-0.570086,0.402698,1.15868,0
6420,-0.579622,0.404741,1.15852,0
6440,-0.588096,0.406244,1.15818,0
6460,-0.593722,0.407134,1.1575,0
6480,-0.5959,0.407037,1.1562,0
6500,-0.595441,0.406181,1.15488,0
6520,-0.593625,0.40494,1.1535,0
6540,-0.591056,0.403579,1.1523,0
6560,-0.5881,0.402411,1.15159,0
6580,-0.584682,0.40139,1.15115,0
6600,-0.581086,0.400718,1.15083,0
6620,-0.576461,0.399574,1.15026,0
6640,-0.570276,0.397829,1.14933,0
6660,-0.56273,0.39577,1.1485,0
6680,-0.554994,0.393956,1.14807,0
6700,-0.548291,0.392434,1.1483,0
6720,-0.543288,0.391501,1.14855,0
6740,-0.539737,0.390415,1.14874,0
6760,-0.537664,0.390187,1.14915,0
6780,-0.536318,0.390018,1.14952,0
6800,-0.535517,0.39004,1.14986,0
6820,-0.534634,0.390182,1.14986,0
6840,-0.533497,0.389964,1.14976,0
6860,-0.532169,0.389774,1.14964,0
6880,-0.530726,0.389575,1.1494,0
6900,-0.529315,0.38955,1.14912,0
6920,-0.528918,0.389413,1.14866,0
6940,-0.528649,0.388863,1.14813,0
6960,-0.528382,0.388271,1.14742,0
6980,-0.528353,0.387846,1.14637,0
7000,-0.528295,0.387695,1.14527,0
7020,-0.527766,0.38736,1.14425,0
7040,-0.526223,0.3878,1.1426,0
7060,-0.523952,0.38775,1.1403,0
7080,-0.523062,0.3873,1.13725,0
7100,-0.523096,0.387111,1.13395,0
7120,-0.52394,0.387167,1.13108,0
7140,-0.5252,0.388072,1.12855,0
7160,-0.526962,0.388881,1.12599,0
7180,-0.52852,0.388785,1.12345,0
7200,-0.528712,0.38881,1.12122,0
7220,-0.528549,0.388669,1.11841,0
7240,-0.52866,0.388122,1.11568,0
7260,-0.529304,0.387435,1.11358,0
7280,-0.529775,0.385888,1.11175,0
7300,-0.529426,0.384394,1.11074,0
7320,-0.52881,0.382021,1.1094,0
7340,-0.528524,0.380232,1.10671,0
7360,-0.527854,0.379787,1.10505,0
7380,-0.525008,0.379306,1.106,0
7400,-0.520214,0.378322,1.10816,0
7420,-0.515911,0.37684,1.10977,0
7440,-0.513998,0.375784,1.1098,0
7460,-0.511673,0.37626,1.11042,0
7480,-0.507411,0.377523,1.11301,0
7500,-0.500633,0.377994,1.11724,0
7520,-0.492955,0.377599,1.12115,0
7540,-0.48711,0.376212,1.12337,0
7560,-0.483799,0.375196,1.12505,0
7580,-0.48221,0.375852,1.12686,0
7600,-0.482052,0.378058,1.12925,0
7620,-0.482991,0.380801,1.13154,0
7640,-0.484849,0.384039,1.13339,0
7660,-0.487208,0.387523,1.13455,0
7680,-0.490355,0.390638,1.135,0
7700,-0.496082,0.392206,1.13333,0
7720,-0.502727,0.392826,1.13063,0
7740,-0.508947,0.393601,1.12792,0
7760,-0.51421,0.394405,1.1259,0
7780,-0.517999,0.394485,1.12499,0
7800,-0.520729,0.393832,1.12465,0
7820,-0.522156,0.392773,1.12525,0
7840,-0.522443,0.391937,1.12597,0
7860,-0.521203,0.391385,1.12674,0
7880,-0.517924,0.390745,1.12724,0
7900,-0.513761,0.390076,1.12731,0
7920,-0.509339,0.389347,1.12774,0
7940,-0.506266,0.388639,1.12808,0
7960,-0.505971,0.388363,1.1283,0
7980,-0.507531,0.388605,1.12851,0
8000,-0.508797,0.389099,1.1292,0
8020,-0.509039,0.389164,1.13012,0
8040,-0.507756,0.388578,1.13117,0
8060,-0.504659,0.386893,1.13263,0
8080,-0.499041,0.383876,1.13416,0
8100,-0.49106,0.379896,1.13495,0
8120,-0.482523,0.375659,1.13485,0
8140,-0.475363,0.371843,1.13468,0
8160,-0.47108,0.367809,1.135,0
8180,-0.469693,0.363626,1.13619,0
8200,-0.470226,0.361133,1.13772,0
8220,-0.472336,0.360011,1.13862,0
8240,-0.475417,0.360001,1.13897,0
8260,-0.481526,0.36531,1.14049,0
8280,-0.488041,0.375377,1.14395,0
8300,-0.490111,0.382562,1.14817,0
8320,-0.48456,0.378055,1.14766,0
8340,-0.478555,0.369203,1.14237,0
8360,-0.474707,0.36309,1.13611,0
8380,-0.472278,0.361939,1.1315,0
8400,-0.471246,0.363288,1.12937,0
8420,-0.471946,0.365947,1.1293,0
8440,-0.473716,0.367324,1.1303,0
8460,-0.475739,0.366288,1.13068,0
8480,-0.478763,0.364922,1.13078,0
8500,-0.481175,0.365271,1.13096,0
8520,-0.481448,0.36635,1.13144,0
8540,-0.479322,0.36646,1.13194,0
8560,-0.475565,0.365171,1.13285,0
8580,-0.472179,0.36375,1.13391,0
8600,-0.470153,0.363179,1.1353,0
8620,-0.469498,0.363455,1.13655,0
8640,-0.469349,0.364388,1.13735,0
8660,-0.468925,0.36556,1.13816,0
8680,-0.468839,0.366489,1.13806,0
8700,-0.469007,0.36721,1.13763,0
8720,-0.468992,0.367794,1.13726,0
8740,-0.469066,0.36817,1.13688,0
8760,-0.469728,0.368664,1.13666,0
8780,-0.470377,0.369123,1.13673,0
8800,-0.470377,0.369123,1.13673,0
8820,-0.470503,0.369195,1.13673,0
8840,-0.470559,0.369119,1.13595,0
8860,-0.470643,0.369252,1.13529,0
8880,-0.470687,0.369456,1.13495,0
8900,-0.471111,0.369839,1.13444,0
8920,-0.471718,0.369914,1.13395,0
8940,-0.472143,0.369982,1.13328,0
8960,-0.472577,0.370121,1.13249,0
8980,-0.472889,0.37015,1.13153,0
9000,-0.473319,0.370012,1.13076,0
9020,-0.473838,0.36998,1.13013,0
9040,-0.473773,0.369805,1.13014,0
9060,-0.473773,0.369805,1.13014,0
9080,-0.473712,0.369908,1.13013,0
9100,-0.473586,0.369836,1.13013,0
9110,-0.473586,0.369836,1.13013,0
9130,-0.473586,0.369836,1.13013,0
9150,-0.473914,0.36957,1.13048,0
9170,-0.474169,0.369373,1.13112,0
9190,-0.474074,0.36917,1.1319,0
9210,-0.473791,0.36935,1.133,0
9230,-0.473545,0.369496,1.13395,0
9250,-0.473305,0.369565,1.13455,0
9270,-0.473167,0.369775,1.13501,0
9290,-0.473186,0.370227,1.13541,0
9310,-0.473186,0.370227,1.13541,0
9330,-0.473254,0.370364,1.13523,0
9350,-0.474056,0.370647,1.13455,0
9370,-0.475109,0.370759,1.13372,0
9390,-0.476045,0.371037,1.1327,0
9410,-0.476969,0.371114,1.13205,0
9430,-0.4778,0.37129,1.13135,0
9450,-0.478559,0.371367,1.13102,0
9470,-0.479102,0.371266,1.13054,0
9490,-0.479102,0.371266,1.13054,0
9510,-0.478976,0.371194,1.13055,0
9530,-0.47901,0.371198,1.13058,0
9550,-0.47935,0.371133,1.13056,0
9570,-0.479868,0.371282,1.13083,0
9590,-0.480611,0.371365,1.13097,0
9610,-0.481095,0.371511,1.13121,0
9630,-0.481588,0.371766,1.1315,0
9650,-0.481741,0.371733,1.13148,0
9670,-0.481741,0.371733,1.13148,0
9690,-0.481741,0.371733,1.13148,0
9710,-0.481741,0.371733,1.13148,0
9730,-0.482302,0.372124,1.13158,0
9750,-0.482742,0.37272,1.13167,0
9770,-0.483402,0.373103,1.13139,0
9790,-0.483402,0.373103,1.13139,0
9810,-0.483402,0.373103,1.13139,0
9830,-0.483529,0.373175,1.13139,0
9850,-0.483402,0.373103,1.13139,0
9870,-0.483529,0.373175,1.13139,0
9890,-0.483529,0.373175,1.13139,0
9910,-0.48359,0.373073,1.1314,0
9930,-0.48359,0.373073,1.1314,0
9950,-0.483624,0.373076,1.13143,0
9970,-0.483616,0.373321,1.13171,0
9990,-0.483417,0.373635,1.13215,0
10010,-0.483348,0.373983,1.13241,0
10030,-0.483152,0.374258,1.13268,0
10050,-0.482895,0.374636,1.13293,0
10070,-0.482895,0.374636,1.13293,0
10090,-0.483022,0.374708,1.13293,0
10110,-0.483083,0.374606,1.13294,0
10130,-0.483083,0.374606,1.13294,0
10150,-0.483022,0.374708,1.13293,0
10170,-0.483022,0.374708,1.13293,0
10190,-0.483083,0.374606,1.13294,0
10210,-0.483083,0.374606,1.13294,0
10230,-0.483209,0.374678,1.13294,0
10250,-0.483209,0.374678,1.13294,0
10270,-0.483083,0.374606,1.13294,0
10290,-0.483083,0.374606,1.13294,0
10310,-0.483083,0.374606,1.13294,0
10330,-0.483083,0.374606,1.13294,0
10350,-0.483083,0.374606,1.13294,0
10370,-0.483022,0.374708,1.13293,0
10390,-0.483022,0.374708,1.13293,0
10410,-0.483022,0.374708,1.13293,0
10430,-0.483209,0.374678,1.13294,0
10450,-0.483209,0.374678,1.13294,0
10470,-0.483209,0.374678,1.13294,0
10490,-0.483209,0.374678,1.13294,0
10510,-0.483209,0.374678,1.13294,0
10530,-0.483336,0.37475,1.13294,0
10550,-0.483336,0.37475,1.13294,0
10570,-0.483209,0.374678,1.13294,0
10590,-0.483336,0.37475,1.13294,0
10610,-0.483209,0.374678,1.13294,0
10630,-0.483209,0.374678,1.13294,0
10650,-0.483209,0.374678,1.13294,0
10670,-0.483209,0.374678,1.13294,0
10690,-0.483209,0.374678,1.13294,0
10710,-0.483209,0.374678,1.13294,0
10730,-0.483209,0.374678,1.13294,0
10750,-0.483209,0.374678,1.13294,0
10770,-0.483209,0.374678,1.13294,0
10790,-0.483209,0.374678,1.13294,0
10810,-0.483209,0.374678,1.13294,0
10830,-0.483209,0.374678,1.13294,0
10850,-0.483209,0.374678,1.13294,0
10870,-0.483209,0.374678,1.13294,0
10890,-0.483209,0.374678,1.13294,0
10910,-0.483209,0.374678,1.13294,0
10930,-0.483209,0.374678,1.13294,0
10950,-0.4834,0.374609,1.13278,0
10970,-0.4834,0.374609,1.13278,0
10990,-0.4834,0.374609,1.13278,0
11010,-0.4834,0.374609,1.13278,0
11030,-0.4834,0.374609,1.13278,0
11050,-0.483088,0.374399,1.13284,0
11070,-0.483091,0.374361,1.13267,0
11090,-0.483091,0.374361,1.13267,0
11100,-0.482965,0.374289,1.13267,0
11120,-0.482965,0.374289,1.13267,0
11140,-0.483091,0.374361,1.13267,0
11160,-0.483091,0.374361,1.13267,0
11180,-0.483091,0.374361,1.13267,0
11200,-0.483152,0.374258,1.13268,0
11220,-0.483152,0.374258,1.13268,0
11240,-0.483152,0.374258,1.13268,0
11260,-0.483152,0.374258,1.13268,0
11280,-0.483212,0.374156,1.13269,0
11300,-0.483212,0.374156,1.13269,0
11320,-0.483212,0.374156,1.13269,0
11340,-0.483212,0.374156,1.13269,0
11360,-0.483212,0.374156,1.13269,0
11380,-0.483146,0.373981,1.1327,0
11400,-0.483146,0.373981,1.1327,0
11420,-0.483146,0.373981,1.1327,0
11440,-0.483146,0.373981,1.1327,0
11460,-0.483181,0.373985,1.13273,0
11480,-0.483181,0.373985,1.13273,0
11500,-0.483307,0.374057,1.13273,0
11520,-0.483181,0.373985,1.13273,0
11540,-0.483368,0.373954,1.13274,0
11560,-0.483371,0.373916,1.13257,0
11580,-0.483371,0.373916,1.13257,0
11600,-0.483371,0.373916,1.13257,0
11620,-0.482838,0.373733,1.13259,0
11640,-0.482558,0.373695,1.13262,0
11660,-0.482432,0.373623,1.13262,0
11680,-0.482527,0.373524,1.13266,0
11700,-0.482527,0.373524,1.13266,0
11720,-0.482527,0.373524,1.13266,0
11740,-0.482527,0.373524,1.13266,0
11760,-0.482527,0.373524,1.13266,0
11780,-0.482527,0.373524,1.13266,0
11800,-0.482527,0.373524,1.13266,0
11820,-0.482527,0.373524,1.13266,0
11840,-0.482221,0.373238,1.13238,0
11860,-0.482221,0.373238,1.13238,0
11880,-0.482221,0.373238,1.13238,0
11900,-0.482221,0.373238,1.13238,0
11920,-0.482221,0.373238,1.13238,0
11940,-0.482221,0.373238,1.13238,0
11960,-0.482221,0.373238,1.13238,0
11980,-0.482282,0.373135,1.13239,0
12000,-0.482282,0.373135,1.13239,0
12020,-0.482282,0.373135,1.13239,0
12040,-0.482282,0.373135,1.13239,0
12060,-0.482282,0.373135,1.13239,0
12080,-0.482343,0.373033,1.1324,0
12100,-0.482343,0.373033,1.1324,0
12120,-0.482063,0.372995,1.13242,0
12140,-0.481596,0.372987,1.13243,0
12160,-0.481317,0.372949,1.13246,0
12180,-0.48119,0.372877,1.13246,0
12200,-0.48119,0.372877,1.13246,0
12220,-0.48119,0.372877,1.13246,0
12240,-0.48119,0.372877,1.13246,0
12260,-0.48119,0.372877,1.13246,0
12280,-0.48119,0.372877,1.13246,0
12300,-0.48119,0.372877,1.13246,0
12320,-0.48119,0.372877,1.13246,0
12340,-0.481251,0.372774,1.13247,0
12360,-0.481124,0.372702,1.13247,0
12380,-0.481251,0.372774,1.13247,0
12400,-0.481251,0.372774,1.13247,0
12420,-0.481124,0.372702,1.13247,0
12440,-0.481311,0.372672,1.13248,0
12460,-0.481346,0.372675,1.13251,0
12480,-0.481219,0.372603,1.13251,0
12500,-0.481219,0.372603,1.13251,0
12520,-0.481219,0.372603,1.13251,0
12540,-0.481219,0.372603,1.13251,0
12560,-0.481222,0.372565,1.13234,0
12580,-0.48128,0.372501,1.13252,0
12600,-0.481153,0.372429,1.13252,0
12620,-0.481153,0.372429,1.13252,0
12640,-0.481153,0.372429,1.13252,0
12660,-0.481153,0.372429,1.13252,0
12680,-0.481156,0.37239,1.13235,0
12700,-0.481559,0.372539,1.1325,0
12720,-0.481928,0.372684,1.13262,0
12740,-0.482233,0.372971,1.1329,0
12760,-0.482233,0.372971,1.1329,0
12780,-0.482236,0.372932,1.13272,0
12800,-0.482297,0.37283,1.13273,0
12820,-0.482297,0.37283,1.13273,0
12840,-0.482703,0.37294,1.13271,0
12860,-0.483138,0.37326,1.13282,0
12880,-0.483138,0.37326,1.13282,0
12900,-0.483138,0.37326,1.13282,0
12920,-0.483138,0.37326,1.13282,0
12940,-0.48276,0.373359,1.13297,0
12960,-0.482634,0.373287,1.13297,0
12980,-0.48276,0.373359,1.13297,0
13000,-0.482573,0.37339,1.13296,0
13020,-0.482573,0.37339,1.13296,0
13040,-0.482634,0.373287,1.13297,0
13060,-0.482634,0.373287,1.13297,0
13080,-0.482634,0.373287,1.13297,0
13100,-0.482573,0.37339,1.13296,0
13120,-0.482634,0.373287,1.13297,0
13140,-0.482634,0.373287,1.13297,0
13160,-0.482634,0.373287,1.13297,0
13180,-0.48276,0.373359,1.13297,0
13200,-0.482634,0.373287,1.13297,0
13220,-0.48276,0.373359,1.13297,0
13240,-0.48276,0.373359,1.13297,0
13260,-0.482634,0.373287,1.13297,0
13280,-0.482634,0.373287,1.13297,0
13300,-0.482634,0.373287,1.13297,0
13320,-0.482634,0.373287,1.13297,0
13340,-0.482573,0.37339,1.13296,0
13360,-0.482351,0.373771,1.13325,0
13380,-0.482317,0.373767,1.13322,0
13400,-0.482042,0.374006,1.13322,0
13420,-0.481552,0.374066,1.13308,0
13440,-0.481492,0.374168,1.13307,0
13460,-0.481552,0.374066,1.13308,0
13480,-0.481552,0.374066,1.13308,0
13500,-0.481426,0.373994,1.13309,0
13520,-0.481365,0.374096,1.13308,0
13540,-0.481365,0.374096,1.13308,0
13560,-0.481365,0.374096,1.13308,0
13580,-0.480795,0.373949,1.13325,0
13600,-0.480795,0.373949,1.13325,0
13620,-0.480746,0.373784,1.13376,0
13640,-0.481014,0.374106,1.13418,0
13660,-0.481313,0.374599,1.13457,0
13680,-0.481313,0.374599,1.13457,0
13700,-0.481302,0.374382,1.13397,0
13720,-0.481207,0.373853,1.13312,0
13740,-0.480951,0.373248,1.13224,0
13760,-0.481123,0.37304,1.13182,0
13780,-0.481463,0.372976,1.13181,0
13800,-0.482644,0.373341,1.13188,0
13820,-0.483826,0.373707,1.13195,0
13840,-0.484187,0.373614,1.13226,0
13860,-0.483683,0.373158,1.13234,0
13880,-0.482253,0.372442,1.13217,0
13900,-0.480736,0.37162,1.13187,0
13920,-0.480143,0.371058,1.1318,0
13940,-0.480143,0.371058,1.1318,0
13960,-0.480877,0.371869,1.13229,0
13980,-0.481363,0.372814,1.13276,0
14000,-0.481351,0.373581,1.13329,0
14020,-0.480726,0.373813,1.13343,0
14040,-0.479761,0.373626,1.1335,0
14060,-0.478861,0.372816,1.13333,0
14080,-0.478395,0.372325,1.13327,0
14100,-0.478395,0.372325,1.13327,0
14120,-0.478395,0.372325,1.13327,0
14140,-0.478395,0.372325,1.13327,0
14160,-0.478522,0.372397,1.13326,0
14180,-0.477929,0.372318,1.13328,0
14200,-0.4775,0.372275,1.13315,0
14220,-0.476945,0.372161,1.13303,0
14240,-0.476945,0.372161,1.13303,0
14260,-0.476819,0.372089,1.13303,0
14280,-0.476819,0.372089,1.13303,0
14300,-0.476819,0.372089,1.13303,0
14320,-0.476945,0.372161,1.13303,0
14340,-0.476945,0.372161,1.13303,0
14360,-0.476945,0.372161,1.13303,0
14380,-0.476945,0.372161,1.13303,0
14400,-0.476945,0.372161,1.13303,0
14420,-0.476945,0.372161,1.13303,0
14440,-0.477006,0.372059,1.13304,0
14460,-0.477006,0.372059,1.13304,0
14480,-0.477006,0.372059,1.13304,0
14500,-0.477009,0.37202,1.13286,0
14520,-0.477009,0.37202,1.13286,0
14530,-0.477009,0.37202,1.13286,0
14550,-0.477009,0.37202,1.13286,0
14570,-0.477009,0.37202,1.13286,0
14590,-0.477009,0.37202,1.13286,0
14610,-0.477009,0.37202,1.13286,0
14630,-0.477009,0.37202,1.13286,0
14650,-0.477009,0.37202,1.13286,0
14670,-0.477009,0.37202,1.13286,0
14690,-0.477006,0.372059,1.13304,0
14710,-0.477006,0.372059,1.13304,0
14730,-0.477009,0.37202,1.13286,0
14750,-0.476641,0.371876,1.13274,0
14770,-0.476641,0.371876,1.13274,0
14790,-0.476701,0.371773,1.13275,0
14810,-0.476701,0.371773,1.13275,0
14830,-0.476701,0.371773,1.13275,0
14850,-0.476701,0.371773,1.13275,0
14870,-0.476701,0.371773,1.13275,0
14890,-0.476701,0.371773,1.13275,0
14910,-0.476575,0.371701,1.13276,0
14930,-0.476701,0.371773,1.13275,0
14950,-0.476575,0.371701,1.13276,0
14970,-0.476572,0.37174,1.13293,0
14990,-0.476446,0.371668,1.13293,0
15010,-0.476385,0.37177,1.13292,0
15030,-0.476762,0.371671,1.13276,0
15050,-0.477297,0.371814,1.13256,0
15070,-0.477828,0.371996,1.13254,0
15090,-0.477702,0.371924,1.13254,0
15110,-0.477702,0.371924,1.13254,0
15130,-0.477702,0.371924,1.13254,0
15150,-0.477702,0.371924,1.13254,0
15170,-0.477702,0.371924,1.13254,0
15190,-0.477576,0.371852,1.13254,0
15210,-0.477576,0.371852,1.13254,0
15230,-0.47788,0.372138,1.13282,0
15250,-0.477754,0.372066,1.13282,0
15270,-0.477806,0.372207,1.13311,0
15290,-0.477806,0.372207,1.13311,0
15310,-0.477806,0.372207,1.13311,0
15330,-0.477993,0.372177,1.13312,0
15350,-0.477993,0.372177,1.13312,0
15370,-0.477806,0.372207,1.13311,0
15390,-0.477806,0.372207,1.13311,0
15410,-0.477867,0.372105,1.13312,0
15430,-0.477867,0.372105,1.13312,0
15450,-0.477806,0.372207,1.13311,0
15470,-0.477806,0.372207,1.13311,0
15490,-0.477806,0.372207,1.13311,0
15510,-0.477806,0.372207,1.13311,0
15530,-0.477806,0.372207,1.13311,0
15550,-0.47784,0.372211,1.13314,0
15570,-0.477714,0.372139,1.13314,0
15590,-0.477714,0.372139,1.13314,0
15610,-0.477714,0.372139,1.13314,0
15630,-0.477714,0.372139,1.13314,0
15650,-0.477711,0.372177,1.13331,0
15670,-0.477711,0.372177,1.13331,0
15690,-0.477711,0.372177,1.13331,0
15710,-0.477711,0.372177,1.13331,0
15730,-0.477524,0.372208,1.13331,0
15750,-0.477524,0.372208,1.13331,0
15770,-0.477584,0.372105,1.13332,0
15790,-0.477584,0.372105,1.13332,0
15810,-0.477458,0.372033,1.13332,0
15830,-0.477458,0.372033,1.13332,0
15850,-0.477458,0.372033,1.13332,0
15870,-0.477458,0.372033,1.13332,0
15890,-0.477458,0.372033,1.13332,0
15910,-0.477332,0.371961,1.13332,0
15930,-0.477332,0.371961,1.13332,0
15950,-0.477206,0.371889,1.13332,0
15970,-0.477206,0.371889,1.13332,0
15990,-0.477145,0.371992,1.13331,0
16010,-0.477145,0.371992,1.13331,0
16030,-0.477145,0.371992,1.13331,0
16050,-0.477145,0.371992,1.13331,0
16070,-0.477145,0.371992,1.13331,0
16090,-0.477053,0.371923,1.13334,0
16110,-0.47705,0.371962,1.13352,0
16130,-0.47705,0.371962,1.13352,0
16150,-0.47705,0.371962,1.13352,0
16170,-0.47705,0.371962,1.13352,0
16190,-0.476923,0.37189,1.13352,0
16210,-0.476923,0.37189,1.13352,0
16230,-0.476797,0.371818,1.13352,0
16250,-0.476797,0.371818,1.13352,0
16270,-0.476797,0.371818,1.13352,0
16290,-0.476797,0.371818,1.13352,0
16310,-0.476797,0.371818,1.13352,0
16330,-0.476797,0.371818,1.13352,0
16350,-0.476797,0.371818,1.13352,0
16370,-0.476671,0.371746,1.13352,0
16390,-0.476671,0.371746,1.13352,0
16410,-0.476671,0.371746,1.13352,0
16430,-0.476671,0.371746,1.13352,0
16450,-0.47661,0.371848,1.13351,0
16470,-0.476671,0.371746,1.13352,0
16490,-0.47661,0.371848,1.13351,0
16510,-0.476481,0.371814,1.13369,0
16520,-0.476481,0.371814,1.13369,0
16540,-0.476542,0.371712,1.1337,0
16560,-0.476576,0.371715,1.13373,0
16580,-0.476449,0.371643,1.13373,0
16600,-0.476389,0.371746,1.13372,0
16620,-0.476389,0.371746,1.13372,0
16640,-0.476389,0.371746,1.13372,0
16660,-0.476263,0.371674,1.13372,0
16680,-0.476263,0.371674,1.13372,0
16700,-0.476263,0.371674,1.13372,0
16720,-0.476263,0.371674,1.13372,0
16740,-0.476263,0.371674,1.13372,0
16760,-0.476263,0.371674,1.13372,0
16780,-0.476263,0.371674,1.13372,0
16800,-0.476136,0.371602,1.13372,0
16820,-0.476136,0.371602,1.13372,0
16840,-0.476197,0.371499,1.13373,0
16860,-0.476071,0.371427,1.13373,0
16880,-0.47559,0.37174,1.13437,0
16900,-0.475013,0.371836,1.13482,0
16920,-0.47438,0.371829,1.13515,0
16940,-0.473911,0.37186,1.13534,0
16960,-0.473911,0.37186,1.13534,0
16980,-0.47385,0.371962,1.13533,0
17000,-0.47385,0.371962,1.13533,0
17020,-0.47385,0.371962,1.13533,0
17040,-0.47385,0.371962,1.13533,0
17060,-0.47385,0.371962,1.13533,0
17080,-0.473724,0.37189,1.13533,0
17100,-0.473785,0.371788,1.13534,0
17120,-0.473785,0.371788,1.13534,0
17140,-0.473785,0.371788,1.13534,0
17160,-0.473659,0.371716,1.13534,0
17180,-0.473656,0.371754,1.13552,0
17200,-0.473656,0.371754,1.13552,0
17220,-0.473656,0.371754,1.13552,0
17240,-0.473656,0.371754,1.13552,0
17260,-0.47353,0.371682,1.13552,0
17280,-0.47353,0.371682,1.13552,0
17300,-0.47353,0.371682,1.13552,0
17320,-0.47353,0.371682,1.13552,0
17340,-0.47353,0.371682,1.13552,0
17360,-0.473404,0.37161,1.13552,0
17380,-0.473404,0.37161,1.13552,0
17400,-0.473438,0.371613,1.13555,0
17420,-0.473438,0.371613,1.13555,0
17440,-0.473312,0.371541,1.13555,0
17460,-0.473312,0.371541,1.13555,0
17480,-0.473312,0.371541,1.13555,0
17500,-0.473312,0.371541,1.13555,0
17520,-0.473312,0.371541,1.13555,0
17540,-0.473186,0.371469,1.13556,0
17560,-0.473186,0.371469,1.13556,0
17580,-0.473186,0.371469,1.13556,0
17600,-0.473186,0.371469,1.13556,0
17620,-0.473186,0.371469,1.13556,0
17640,-0.473186,0.371469,1.13556,0
17660,-0.473121,0.371294,1.13557,0
17680,-0.473121,0.371294,1.13557,0
17700,-0.473121,0.371294,1.13557,0
17720,-0.47306,0.371397,1.13556,0
17740,-0.473121,0.371294,1.13557,0
17760,-0.473121,0.371294,1.13557,0
17780,-0.473029,0.371226,1.1356,0
17800,-0.473026,0.371264,1.13577,0
17820,-0.4729,0.371192,1.13577,0
17840,-0.473148,0.371059,1.13579,0
17860,-0.473022,0.370987,1.13579,0
17880,-0.473148,0.371059,1.13579,0
17900,-0.473022,0.370987,1.13579,0
17920,-0.473022,0.370987,1.13579,0
17940,-0.473022,0.370987,1.13579,0
17960,-0.473083,0.370885,1.1358,0
17980,-0.473022,0.370987,1.13579,0
18000,-0.473083,0.370885,1.1358,0
18020,-0.473083,0.370885,1.1358,0
18040,-0.472957,0.370812,1.1358,0
18060,-0.472957,0.370812,1.1358,0
18080,-0.472831,0.37074,1.13581,0
18100,-0.472865,0.370744,1.13584,0
18120,-0.472865,0.370744,1.13584,0
18140,-0.472865,0.370744,1.13584,0
18160,-0.472926,0.370642,1.13585,0
18180,-0.472926,0.370642,1.13585,0
18200,-0.472926,0.370642,1.13585,0
18220,-0.4728,0.370569,1.13585,0
18240,-0.4728,0.370569,1.13585,0
18260,-0.4728,0.370569,1.13585,0
18280,-0.4728,0.370569,1.13585,0
18300,-0.472861,0.370467,1.13586,0
18320,-0.472861,0.370467,1.13586,0
18340,-0.472861,0.370467,1.13586,0
18360,-0.472861,0.370467,1.13586,0
18380,-0.472861,0.370467,1.13586,0
18400,-0.472735,0.370395,1.13586,0
18420,-0.472735,0.370395,1.13586,0
18440,-0.47283,0.370296,1.1359,0
18460,-0.47283,0.370296,1.1359,0
18480,-0.472704,0.370224,1.1359,0
18500,-0.472704,0.370224,1.1359,0
18520,-0.472704,0.370224,1.1359,0
18540,-0.472704,0.370224,1.1359,0
18560,-0.472704,0.370224,1.1359,0
18580,-0.472704,0.370224,1.1359,0
18600,-0.472578,0.370152,1.1359,0
18620,-0.472578,0.370152,1.1359,0
18640,-0.472452,0.37008,1.1359,0
18660,-0.472513,0.369977,1.13591,0
18680,-0.472513,0.369977,1.13591,0
18700,-0.472547,0.369981,1.13594,0
18720,-0.472547,0.369981,1.13594,0
18740,-0.472421,0.369909,1.13594,0
18760,-0.472421,0.369909,1.13594,0
18780,-0.472421,0.369909,1.13594,0
18800,-0.472421,0.369909,1.13594,0
18820,-0.472296,0.369837,1.13595,0
18840,-0.472296,0.369837,1.13595,0
18860,-0.473166,0.369955,1.1359,0
18880,-0.474651,0.370085,1.136,0
18900,-0.477251,0.370408,1.13618,0
18920,-0.482115,0.371122,1.13655,0
18940,-0.49046,0.371299,1.13724,0
18960,-0.503611,0.370635,1.13525,0
18980,-0.528838,0.365976,1.13124,0
19000,-0.561564,0.35773,1.12976,0
19020,-0.593471,0.348038,1.12732,0
19040,-0.613709,0.33587,1.12466,0
19060,-0.628651,0.322063,1.12163,0
19080,-0.648346,0.302574,1.11874,0
19100,-0.668043,0.26793,1.11346,0
19120,-0.679114,0.217411,1.10409,0
19140,-0.681083,0.170135,1.09795,0
19160,-0.680478,0.12903,1.09605,0
19180,-0.688913,0.0934384,1.1009,0
19200,-0.707131,0.0574642,1.10929,0
19220,-0.725892,0.0200779,1.11983,0
19240,-0.742069,-0.0140399,1.13109,0
19260,-0.755293,-0.046493,1.14157,0
19280,-0.767221,-0.0770921,1.15091,0
19300,-0.779715,-0.104729,1.16279,0
19320,-0.794288,-0.12853,1.17539,0
19340,-0.80836,-0.148403,1.1888,0
19360,-0.823507,-0.162981,1.20329,0
19380,-0.840894,-0.174596,1.21811,0
19400,-0.858722,-0.185675,1.23315,0
19420,-0.874128,-0.19712,1.24927,0
19440,-0.886688,-0.209646,1.26499,0
19460,-0.89724,-0.22235,1.27944,0
19480,-0.907218,-0.234472,1.29294,0
19500,-0.916118,-0.244914,1.30526,0
19520,-0.923927,-0.254576,1.31648,0
19540,-0.929945,-0.263543,1.32557,0
19560,-0.934071,-0.270859,1.33223,0
19580,-0.938641,-0.276743,1.33811,0
19600,-0.944368,-0.282951,1.34256,0
19620,-0.949553,-0.289133,1.34538,0
19640,-0.953483,-0.293889,1.34696,0
19660,-0.958643,-0.298669,1.34737,0
19680,-0.96462,-0.303043,1.34649,0
19700,-0.969851,-0.307433,1.34511,0
19720,-0.974417,-0.312996,1.34228,0
19740,-0.9771,-0.319321,1.33794,0
19760,-0.978688,-0.325731,1.33275,0
19780,-0.979336,-0.332655,1.32638,0
19800,-0.978268,-0.339114,1.31935,0
19820,-0.976377,-0.344311,1.31276,0
19840,-0.973406,-0.347992,1.30636,0
19860,-0.970568,-0.350442,1.30056,0
19880,-0.968367,-0.351419,1.29654,0
19900,-0.967316,-0.352581,1.29471,0
19920,-0.967097,-0.353921,1.29509,0
19930,-0.968872,-0.355785,1.29718,0
19950,-0.972673,-0.358767,1.29979,0
19970,-0.976585,-0.362628,1.30252,0
19990,-0.980609,-0.367225,1.30549,0
20010,-0.984592,-0.37256,1.30792,0
20030,-0.988237,-0.378434,1.30986,0
20050,-0.990482,-0.384173,1.31116,0
20070,-0.992127,-0.390036,1.31238,0
20090,-0.992963,-0.395003,1.31341,0
20110,-0.993574,-0.398749,1.31467,0
20130,-0.993435,-0.401218,1.31553,0
20150,-0.992655,-0.402125,1.31664,0
20170,-0.99194,-0.401424,1.3181,0
20190,-0.990829,-0.399811,1.32021,0
20210,-0.990322,-0.397991,1.32305,0
20230,-0.990387,-0.395545,1.32634,0
20250,-0.991041,-0.392529,1.33007,0
20270,-0.993415,-0.389639,1.33457,0
20290,-0.995676,-0.388093,1.33901,0
20310,-0.997932,-0.387783,1.34363,0
20330,-1.00121,-0.38934,1.3482,0
20350,-1.00425,-0.391928,1.35252,0
20370,-1.00722,-0.394627,1.35686,0
20390,-1.0088,-0.397867,1.36058,0
20410,-1.00944,-0.401327,1.36407,0
20430,-1.00995,-0.404535,1.36735,0
20450,-1.00993,-0.406676,1.37044,0
20470,-1.00986,-0.407578,1.37383,0
20490,-1.00901,-0.408176,1.37691,0
20510,-1.00747,-0.408164,1.3802,0
20530,-1.0069,-0.407295,1.38384,0
20550,-1.00679,-0.405491,1.38732,0
20570,-1.00722,-0.403225,1.39099,0
20590,-1.00817,-0.400965,1.39413,0
20610,-1.01007,-0.39879,1.39695,0
20630,-1.0125,-0.397562,1.39964,0
20650,-1.01458,-0.397237,1.40187,0
20670,-1.01661,-0.397254,1.40316,0
20690,-1.01873,-0.39764,1.40417,0
20710,-1.02031,-0.398968,1.40484,0
20730,-1.02197,-0.400709,1.40533,0
20750,-1.02308,-0.402468,1.40547,0
20770,-1.02407,-0.403849,1.40565,0
20790,-1.0246,-0.405096,1.40613,0
20810,-1.02499,-0.40644,1.40645,0
20830,-1.02534,-0.40778,1.40705,0
20850,-1.02587,-0.409281,1.40802,0
20870,-1.0271,-0.410988,1.40893,0
20890,-1.02839,-0.41295,1.40956,0
20910,-1.02827,-0.416376,1.40921,0
20930,-1.02703,-0.420773,1.40816,0
20950,-1.02545,-0.42564,1.40618,0
20970,-1.02341,-0.429774,1.40415,0
20990,-1.02142,-0.433779,1.40188,0
21010,-1.01945,-0.437114,1.39981,0
21030,-1.01693,-0.439099,1.39788,0
21050,-1.01439,-0.440161,1.39667,0
21070,-1.01212,-0.440342,1.39656,0
21090,-1.01092,-0.439945,1.39739,0
21110,-1.00956,-0.439011,1.39865,0
21130,-1.00904,-0.437533,1.40123,0
21150,-1.00878,-0.43626,1.40458,0
21170,-1.00828,-0.434958,1.40779,0
21190,-1.00697,-0.433646,1.41052,0
21210,-1.00554,-0.432153,1.41326,0
21230,-1.0041,-0.431558,1.4162,0
21250,-1.002,-0.431439,1.41872,0
21270,-0.999222,-0.431151,1.42038,0
21290,-0.995813,-0.430924,1.42183,0
21310,-0.991649,-0.429965,1.42273,0
21330,-0.988052,-0.428124,1.42401,0
21350,-0.984288,-0.426585,1.42541,0
21370,-0.979613,-0.425051,1.42633,0
21390,-0.97376,-0.422295,1.42584,0
21410,-0.967193,-0.417259,1.4252,0
21440,-0.955303,-0.410513,1.42473,0
21460,-0.949362,-0.408906,1.42372,0
21480,-0.943656,-0.408482,1.42095,0
21500,-0.939006,-0.408258,1.41888,0
21520,-0.935461,-0.406796,1.41706,0
21540,-0.93073,-0.405559,1.4152,0
21560,-0.922714,-0.404135,1.41221,0
21580,-0.911281,-0.400879,1.41135,0
21600,-0.902553,-0.401339,1.4142,0
21620,-0.897419,-0.405966,1.41778,0
21640,-0.893755,-0.412192,1.42029,0
21660,-0.890891,-0.420019,1.42308,0
21680,-0.890951,-0.428987,1.42572,0
21700,-0.893106,-0.438659,1.4265,0
21720,-0.895436,-0.4484,1.42503,0
21740,-0.896337,-0.459731,1.42234,0
21760,-0.89431,-0.472128,1.41784,0
21780,-0.889329,-0.483851,1.41137,0
21800,-0.882464,-0.494624,1.40257,0
21820,-0.873859,-0.503385,1.39237,0
21840,-0.862831,-0.51017,1.38122,0
21860,-0.849483,-0.515269,1.36988,0
21880,-0.834425,-0.519167,1.35824,0
21900,-0.818132,-0.521946,1.34648,0
21910,-0.801825,-0.523146,1.33555,0
21930,-0.787796,-0.523242,1.3271,0
21950,-0.775972,-0.522175,1.32041,0
21970,-0.765954,-0.51936,1.31488,0
21990,-0.757493,-0.515422,1.31072,0
22010,-0.75152,-0.511623,1.309,0
22030,-0.747645,-0.508929,1.30881,0
22050,-0.745157,-0.508069,1.3099,0
22070,-0.745157,-0.509095,1.3114,0
22090,-0.748971,-0.5125,1.31369,0
22110,-0.756816,-0.520397,1.31679,0
22130,-0.767304,-0.533795,1.31866,0
22150,-0.777436,-0.551205,1.31903,0
22170,-0.787475,-0.57189,1.31805,0
22190,-0.797434,-0.59474,1.3172,0
22210,-0.808039,-0.617631,1.3187,0
22230,-0.819996,-0.638965,1.32125,0
22250,-0.834891,-0.654374,1.32465,0
22270,-0.854224,-0.665694,1.32945,0
22290,-0.874347,-0.673644,1.33654,0
22310,-0.893966,-0.682608,1.3472,0
22330,-0.907443,-0.695348,1.3543,0
22350,-0.913619,-0.705822,1.36073,0
22370,-0.921838,-0.70832,1.3686,0
22390,-0.929521,-0.696589,1.37166,0
22410,-0.941779,-0.673334,1.37914,0
22430,-0.958512,-0.648248,1.391,0
22450,-0.972211,-0.629448,1.39876,0
22470,-0.974328,-0.61298,1.40281,0
22490,-0.974375,-0.600914,1.40823,0
22510,-0.973931,-0.591832,1.40975,0
22530,-0.968817,-0.586439,1.40297,0
22550,-0.957152,-0.584132,1.39097,0
22570,-0.943494,-0.582633,1.37749,0
22590,-0.93242,-0.579838,1.36645,0
22610,-0.923627,-0.578058,1.35586,0
22630,-0.914217,-0.577354,1.34613,0
22650,-0.905305,-0.576432,1.33874,0
22670,-0.899967,-0.575411,1.33422,0
22690,-0.896185,-0.573857,1.32931,0
22710,-0.891644,-0.572787,1.3241,0
22730,-0.884741,-0.572016,1.31961,0
22750,-0.878704,-0.571388,1.31405,0
22770,-0.872581,-0.571174,1.30755,0
22790,-0.86715,-0.570946,1.30184,0
22810,-0.86389,-0.57009,1.29748,0
22830,-0.862179,-0.569064,1.29186,0
22850,-0.859517,-0.568273,1.28476,0
22870,-0.857107,-0.567702,1.28,0
22890,-0.85508,-0.568479,1.27738,0
22910,-0.85416,-0.570915,1.27537,0
22930,-0.854609,-0.572247,1.27344,0
22950,-0.854883,-0.57296,1.27244,0
22970,-0.854032,-0.574409,1.27062,0
22990,-0.851215,-0.574594,1.26818,0
23010,-0.850831,-0.5737,1.26599,0
23030,-0.849295,-0.572271,1.26361,0
23050,-0.845527,-0.572305,1.26275,0
23070,-0.841398,-0.573107,1.26215,0
23090,-0.838828,-0.572611,1.26245,0
23110,-0.839446,-0.57115,1.26364,0
23130,-0.841817,-0.568536,1.26531,0
23150,-0.843697,-0.565021,1.26691,0
23170,-0.844156,-0.562227,1.26911,0
23190,-0.843062,-0.560367,1.27036,0
23210,-0.84088,-0.556542,1.27207,0
23230,-0.839754,-0.551359,1.27462,0
23250,-0.839325,-0.54583,1.27537,0
23270,-0.83689,-0.541641,1.27387,0
23290,-0.832283,-0.538354,1.27222,0
23310,-0.826046,-0.534415,1.27117,0
23330,-0.820565,-0.530579,1.27129,0
23350,-0.815227,-0.527981,1.27365,0
23370,-0.810093,-0.525739,1.27557,0
23390,-0.803766,-0.523723,1.27556,0
23410,-0.797094,-0.522616,1.27499,0
23430,-0.790301,-0.524379,1.27143,0
23450,-0.78244,-0.527508,1.26682,0
23470,-0.774792,-0.529273,1.26252,0
23490,-0.767359,-0.5295,1.25936,0
23510,-0.759802,-0.528467,1.25626,0
23530,-0.75091,-0.528109,1.25255,0
23550,-0.740431,-0.530198,1.24845,0
23570,-0.727113,-0.533026,1.24241,0
23590,-0.715347,-0.53484,1.2382,0
23610,-0.705709,-0.536325,1.23553,0
23630,-0.693486,-0.538196,1.23197,0
23650,-0.680529,-0.541819,1.22697,0
23670,-0.666296,-0.544745,1.22041,0
23690,-0.653934,-0.547611,1.2143,0
23710,-0.64227,-0.549724,1.20897,0
23730,-0.629643,-0.552156,1.20595,0
23750,-0.618522,-0.552129,1.20247,0
23770,-0.608658,-0.550148,1.19718,0
23790,-0.599365,-0.54867,1.19154,0
23810,-0.589033,-0.547657,1.18615,0
23830,-0.580116,-0.546951,1.18326,0
23850,-0.573177,-0.546343,1.18224,0
23870,-0.567097,-0.545015,1.18251,0
23890,-0.562009,-0.543124,1.18464,0
23910,-0.558446,-0.540951,1.18825,0
23930,-0.555612,-0.539249,1.19105,0
23950,-0.554084,-0.537555,1.19278,0
23970,-0.551063,-0.536859,1.19355,0
23990,-0.547024,-0.536667,1.1956,0
24010,-0.543823,-0.537302,1.19961,0
24030,-0.542637,-0.53812,1.2049,0
24050,-0.54085,-0.539607,1.21038,0
24070,-0.538502,-0.541779,1.21409,0
24090,-0.537337,-0.543604,1.21606,0
24110,-0.537367,-0.544409,1.2178,0
24130,-0.536111,-0.544945,1.21961,0
24150,-0.533947,-0.545783,1.22053,0
24170,-0.532397,-0.546663,1.22206,0
24190,-0.531759,-0.547695,1.22467,0
24210,-0.530873,-0.549665,1.22698,0
24230,-0.529205,-0.553496,1.22916,0
24250,-0.527,-0.559057,1.23096,0
24270,-0.524903,-0.565552,1.23155,0
24290,-0.521958,-0.571608,1.23125,0
24310,-0.518358,-0.576449,1.23055,0
24330,-0.515164,-0.579189,1.22956,0
24350,-0.51184,-0.579695,1.22948,0
24370,-0.507503,-0.579969,1.23022,0
24390,-0.502897,-0.579029,1.23167,0
24410,-0.499506,-0.575621,1.23245,0
24430,-0.495654,-0.570729,1.23269,0
24450,-0.490483,-0.567021,1.23304,0
24470,-0.484402,-0.563474,1.2343,0
24490,-0.478553,-0.55976,1.23563,0
24510,-0.473599,-0.556457,1.23725,0
24530,-0.470334,-0.553505,1.23932,0
24550,-0.469964,-0.551952,1.24294,0
24570,-0.471764,-0.552052,1.24836,0
24590,-0.475951,-0.552667,1.25444,0
24610,-0.481966,-0.553868,1.26083,0
24630,-0.487809,-0.554994,1.26683,0
24650,-0.493208,-0.555089,1.27144,0
24670,-0.499205,-0.554979,1.27609,0
24690,-0.504302,-0.555128,1.28062,0
24710,-0.508501,-0.555242,1.28382,0
24730,-0.510673,-0.555569,1.28464,0
24750,-0.512002,-0.555398,1.28346,0
24770,-0.512161,-0.55458,1.28006,0
24790,-0.511382,-0.553252,1.2754,0
24810,-0.510426,-0.551162,1.27048,0
24830,-0.508816,-0.547394,1.265,0
24850,-0.507157,-0.542705,1.26004,0
24870,-0.505344,-0.537199,1.2556,0
24890,-0.503116,-0.531449,1.25198,0
24910,-0.501313,-0.525577,1.24958,0
24930,-0.500406,-0.51974,1.24854,0
24950,-0.499771,-0.513213,1.2484,0
24970,-0.499902,-0.506167,1.24931,0
24990,-0.500508,-0.499649,1.25003,0
25010,-0.503073,-0.494645,1.25008,0
25030,-0.50517,-0.492724,1.24755,0
25050,-0.507138,-0.491344,1.24458,0
25070,-0.508874,-0.488992,1.24187,0
25090,-0.51083,-0.485349,1.23994,0
25110,-0.513632,-0.482361,1.23878,0
25130,-0.516255,-0.481805,1.23613,0
25150,-0.517832,-0.481874,1.22995,0
25170,-0.518289,-0.481673,1.22139,0
25190,-0.518451,-0.482535,1.21515,0
25210,-0.516864,-0.485688,1.21051,0
25230,-0.514525,-0.490034,1.20712,0
25250,-0.513184,-0.495067,1.20352,0
25270,-0.513704,-0.500774,1.19888,0
25290,-0.512938,-0.506982,1.19573,0
25310,-0.511805,-0.5148,1.19447,0
25330,-0.511421,-0.523232,1.19394,0
25340,-0.511859,-0.53,1.19278,0
25360,-0.513374,-0.534397,1.19003,0
25380,-0.515213,-0.539476,1.18697,0
25400,-0.516065,-0.54609,1.18673,0
25420,-0.518096,-0.552626,1.18653,0
25440,-0.519685,-0.559312,1.18487,0
25460,-0.519945,-0.565058,1.18403,0
25480,-0.520715,-0.571242,1.18393,0
25500,-0.521445,-0.576867,1.18373,0
25520,-0.522316,-0.581002,1.18339,0
25540,-0.52159,-0.583724,1.18291,0
25560,-0.520024,-0.585655,1.18336,0
25580,-0.518492,-0.58614,1.18288,0
25600,-0.516557,-0.583367,1.18002,0
25620,-0.513018,-0.578329,1.175,0
25640,-0.509216,-0.572849,1.17047,0
25660,-0.507043,-0.569212,1.16793,0
25680,-0.507047,-0.568529,1.16599,0
25700,-0.508162,-0.569018,1.1637,0
25720,-0.509678,-0.56989,1.1613,0
25740,-0.509036,-0.571283,1.16102,0
25760,-0.508326,-0.572919,1.16096,0
25780,-0.508504,-0.574567,1.15905,0
25800,-0.508006,-0.575615,1.15525,0
25820,-0.505209,-0.576,1.15074,0
25840,-0.501015,-0.575388,1.14788,0
25860,-0.498447,-0.573601,1.14659,0
25880,-0.496789,-0.570929,1.14533,0
25900,-0.494978,-0.568279,1.14387,0
25920,-0.492278,-0.56488,1.14098,0
25940,-0.488079,-0.559577,1.13579,0
25960,-0.482567,-0.552479,1.12891,0
25980,-0.476638,-0.545635,1.12218,0
26000,-0.471344,-0.540591,1.11636,0
26020,-0.468209,-0.536516,1.1117,0
26040,-0.466203,-0.532641,1.1079,0
26060,-0.465402,-0.528634,1.10587,0
26080,-0.465384,-0.525476,1.1045,0
26100,-0.46492,-0.523518,1.10208,0
26120,-0.465326,-0.521993,1.10004,0
26140,-0.465733,-0.5198,1.09832,0
26160,-0.464651,-0.518304,1.09777,0
26180,-0.462124,-0.516827,1.09635,0
26200,-0.460629,-0.515294,1.0943,0
26220,-0.458014,-0.514113,1.09035,0
26240,-0.45597,-0.513562,1.08744,0
26260,-0.453347,-0.512799,1.08424,0
26280,-0.451483,-0.511994,1.08147,0
26310,-0.44799,-0.511524,1.07849,0
26330,-0.44675,-0.513537,1.07949,0
26350,-0.446076,-0.515544,1.08129,0
26370,-0.446421,-0.515982,1.08334,0
26390,-0.446942,-0.515563,1.08498,0
26410,-0.446986,-0.516134,1.0871,0
26430,-0.447523,-0.517976,1.09079,0
26450,-0.449371,-0.519597,1.09548,0
26460,-0.451296,-0.520862,1.09934,0
26480,-0.453252,-0.523035,1.10445,0
26500,-0.454607,-0.526195,1.10973,0
26520,-0.456022,-0.528543,1.11237,0
26540,-0.457355,-0.529591,1.1136,0
26560,-0.459114,-0.530626,1.11412,0
26580,-0.461493,-0.532475,1.1155,0
26600,-0.46414,-0.535063,1.11817,0
26620,-0.467964,-0.538018,1.12163,0
26640,-0.472808,-0.541574,1.12695,0
26680,-0.484826,-0.54152,1.13636,0
26700,-0.489705,-0.540479,1.13901,0
26720,-0.494628,-0.540849,1.14063,0
26740,-0.501722,-0.541895,1.14168,0
26760,-0.511209,-0.543764,1.14144,0
26790,-0.536142,-0.549842,1.13858,0
26810,-0.549876,-0.555119,1.13487,0
26830,-0.561742,-0.561858,1.12916,0
26850,-0.573261,-0.56907,1.12244,0
26870,-0.586519,-0.575748,1.1155,0
26890,-0.60017,-0.581665,1.10779,0
26910,-0.613158,-0.585967,1.09926,0
26930,-0.624484,-0.588097,1.08916,0
26950,-0.634684,-0.587218,1.07787,0
26970,-0.646251,-0.583723,1.06909,0
26990,-0.658754,-0.578018,1.06159,0
27010,-0.669327,-0.569883,1.05551,0
27030,-0.677716,-0.559617,1.04792,0
27050,-0.683108,-0.549408,1.03939,0
27070,-0.689437,-0.540216,1.03296,0
27090,-0.693938,-0.532756,1.02901,0
27110,-0.697152,-0.526308,1.02599,0
27130,-0.697894,-0.522478,1.02255,0
27150,-0.697044,-0.520318,1.01937,0
27170,-0.696999,-0.518703,1.01725,0
27190,-0.698285,-0.516691,1.01772,0
27210,-0.701607,-0.513407,1.01862,0
27230,-0.704538,-0.507943,1.01902,0
27250,-0.7064,-0.501884,1.01952,0
27270,-0.706893,-0.496368,1.0191,0
27290,-0.706608,-0.490902,1.0175,0
27300,-0.705893,-0.485041,1.01509,0
27320,-0.705847,-0.477307,1.01383,0
27340,-0.707289,-0.469542,1.01437,0
27360,-0.708712,-0.464321,1.01466,0
27380,-0.708217,-0.460994,1.01418,0
27400,-0.707166,-0.457817,1.01281,0
27420,-0.706299,-0.454501,1.01102,0
27440,-0.706863,-0.451135,1.00995,0
27460,-0.709509,-0.448208,1.0101,0
27480,-0.712438,-0.446,1.01055,0
27500,-0.713565,-0.444373,1.01039,0
27520,-0.712531,-0.444213,1.00916,0
27540,-0.708802,-0.445193,1.0075,0
27560,-0.704926,-0.446375,1.00661,0
27580,-0.702056,-0.448079,1.00667,0
27600,-0.699706,-0.451035,1.00724,0
27620,-0.696985,-0.45465,1.00694,0
27640,-0.693939,-0.458609,1.00681,0
27660,-0.692066,-0.46388,1.00647,0
27680,-0.690759,-0.470669,1.00737,0
27710,-0.694098,-0.483696,1.01129,0
27730,-0.697773,-0.48761,1.01356,0
27750,-0.701166,-0.490617,1.01515,0
27770,-0.703082,-0.493464,1.01618,0
27790,-0.704394,-0.496294,1.01651,0
27810,-0.705039,-0.497805,1.01548,0
27830,-0.705444,-0.498143,1.01393,0
27850,-0.705671,-0.497298,1.0123,0
27870,-0.705823,-0.49589,1.01066,0
27890,-0.704942,-0.493913,1.00904,0
27910,-0.70389,-0.492304,1.00722,0
27930,-0.703635,-0.4901,1.00533,0
27950,-0.703798,-0.488055,1.00354,0
27970,-0.703557,-0.486253,1.00214,0
27990,-0.702967,-0.484809,1.00148,0
28010,-0.703307,-0.483443,1.00185,0
28030,-0.703922,-0.48266,1.00232,0
28050,-0.704119,-0.482252,1.00235,0
28070,-0.704075,-0.481853,1.00214,0
28090,-0.704261,-0.481295,1.00268,0
28110,-0.704595,-0.481159,1.00334,0
28130,-0.704958,-0.481099,1.00361,0
28150,-0.704996,-0.481073,1.00376,0
28170,-0.704682,-0.480303,1.00341,0
28190,-0.704184,-0.479657,1.00317,0
28210,-0.703194,-0.47888,1.00297,0
28230,-0.701924,-0.478537,1.00285,0
28250,-0.700756,-0.478309,1.00283,0
28270,-0.699616,-0.478248,1.00261,0
28290,-0.698338,-0.47822,1.00205,0
28310,-0.696758,-0.478059,1.00131,0
28330,-0.695035,-0.478207,1.00079,0
28350,-0.693349,-0.478422,1.00062,0
28370,-0.692622,-0.47894,1.00056,0
28390,-0.691721,-0.479515,1.00002,0
28410,-0.690746,-0.480872,0.99952,0
28430,-0.689858,-0.482844,0.999058,0
28450,-0.689417,-0.484546,0.998365,0
28470,-0.688984,-0.485203,0.997766,0
28490,-0.689511,-0.485493,0.998269,0
28510,-0.690831,-0.486325,0.999511,0
28530,-0.691434,-0.487606,1.00009,0
28550,-0.690676,-0.488699,0.999842,0
28570,-0.690019,-0.489599,0.999408,0
28590,-0.689898,-0.490815,0.999063,0
28610,-0.689918,-0.492029,0.998772,0
28630,-0.689541,-0.492402,0.99806,0
28650,-0.689752,-0.49235,0.997549,0
28670,-0.690716,-0.492377,0.997098,0
28690,-0.691636,-0.491881,0.996531,0
28710,-0.692831,-0.491019,0.996486,0
28730,-0.694652,-0.489924,0.996885,0
28750,-0.696051,-0.489264,0.997316,0
28770,-0.696695,-0.488863,0.997691,0
28790,-0.696809,-0.488664,0.998227,0
28810,-0.697153,-0.488863,0.998758,0
28830,-0.697395,-0.488854,0.999002,0
28850,-0.697331,-0.488712,0.999053,0
28870,-0.696876,-0.488556,0.999221,0
28890,-0.69618,-0.488316,0.998955,0
28910,-0.695606,-0.488026,0.998717,0
28930,-0.695727,-0.487976,0.998744,0
28950,-0.695708,-0.488142,0.998814,0
28970,-0.69567,-0.488168,0.998666,0
28990,-0.69567,-0.488168,0.998666,0
29010,-0.69567,-0.488168,0.998666,0
29030,-0.696161,-0.488391,0.998835,0
29050,-0.696161,-0.488391,0.998835,0
29070,-0.696513,-0.488523,0.99876,0
29090,-0.696877,-0.488372,0.99884,0
29110,-0.696877,-0.488372,0.99884,0
29130,-0.696934,-0.488272,0.999108,0
29150,-0.697233,-0.488072,0.99943,0
29170,-0.697233,-0.488072,0.99943,0
29190,-0.697233,-0.488072,0.99943,2000
29210,-0.697233,-0.488072,0.99943,0
29230,-0.697104,-0.487881,0.999722,0
29250,-0.697275,-0.487398,1.00014,0
29270,-0.697982,-0.487229,1.00066,0
29290,-0.698546,-0.487926,1.00065,0
29310,-0.698634,-0.488792,0.999644,0
29330,-0.698555,-0.4894,0.998592,0
29350,-0.699408,-0.489998,0.998371,0
29370,-0.700348,-0.490137,0.998693,0
29390,-0.701531,-0.490051,0.999162,0
29410,-0.702902,-0.490272,0.999707,0
29430,-0.703824,-0.490362,1,0
29450,-0.704319,-0.490585,1.00018,0
29470,-0.70471,-0.490692,1.00025,0
29490,-0.705075,-0.490724,1.00071,0
29510,-0.705478,-0.49082,1.00152,0
29530,-0.705741,-0.491224,1.00255,0
29550,-0.706248,-0.491436,1.00345,0
29570,-0.706251,-0.491925,1.00413,0
29590,-0.706004,-0.492273,1.00506,0
29610,-0.706372,-0.493041,1.00719,0
29630,-0.708533,-0.494146,1.01027,0
29650,-0.711206,-0.494967,1.01358,0
29670,-0.713932,-0.49594,1.01744,0
29690,-0.715993,-0.497587,1.02179,0
29710,-0.718177,-0.499347,1.02625,0
29730,-0.720152,-0.50104,1.0306,0
29750,-0.722117,-0.503064,1.03512,0
29770,-0.724899,-0.505895,1.04058,0
29790,-0.72967,-0.509042,1.0477,0
29810,-0.734173,-0.511814,1.05396,0
29830,-0.737454,-0.51521,1.05926,0
29850,-0.738919,-0.519208,1.06348,0
29870,-0.740756,-0.523556,1.06804,0
29890,-0.743888,-0.527788,1.07349,0
29910,-0.74854,-0.532022,1.07925,0
29930,-0.752643,-0.537197,1.08527,0
29950,-0.756477,-0.54313,1.09176,0
29970,-0.760966,-0.549436,1.09836,0
29990,-0.764953,-0.556251,1.10401,0
30010,-0.76841,-0.564641,1.10907,0
30040,-0.774048,-0.584498,1.11773,0
30060,-0.778262,-0.595202,1.12165,0
30080,-0.78252,-0.606868,1.12484,0
30100,-0.786208,-0.61899,1.12764,0
30120,-0.797567,-0.657295,1.13091,0
30140,-0.80026,-0.671171,1.12828,0
30150,-0.80253,-0.683932,1.12432,0
30170,-0.80461,-0.699127,1.11995,0
30190,-0.807625,-0.716428,1.11488,0
30210,-0.811291,-0.734017,1.10834,0
30230,-0.814172,-0.751242,1.10019,0
30250,-0.816055,-0.768863,1.09068,0
30270,-0.816581,-0.786495,1.07849,0
30290,-0.817222,-0.803045,1.065,0
30310,-0.816577,-0.819452,1.04962,0
30330,-0.814058,-0.835465,1.03103,0
30350,-0.810441,-0.850275,1.00955,0
30370,-0.804798,-0.863762,0.984547,0
30390,-0.796588,-0.875094,0.956516,0
30410,-0.786783,-0.884007,0.926685,0
30430,-0.775283,-0.890782,0.895934,0
30450,-0.762214,-0.895215,0.862979,0
30470,-0.747832,-0.896292,0.828525,0
30500,-0.718114,-0.89131,0.756475,0
30510,-0.701309,-0.887468,0.717981,0
30530,-0.683412,-0.883422,0.678553,0
30550,-0.667504,-0.878436,0.641168,0
30570,-0.654196,-0.869968,0.607418,0
30590,-0.645416,-0.860294,0.579114,0
30620,-0.632044,-0.841399,0.525648,0
30630,-0.624721,-0.830837,0.499098,0
30650,-0.617174,-0.819337,0.475648,0
30670,-0.610161,-0.805407,0.455172,0
30690,-0.603327,-0.792134,0.436691,0
30710,-0.596883,-0.780291,0.419989,0
30730,-0.594459,-0.767437,0.406821,0
30750,-0.592302,-0.75377,0.394652,0
30770,-0.58538,-0.741465,0.381695,0
30790,-0.57819,-0.731713,0.372161,0
30810,-0.575488,-0.721199,0.365739,0
30830,-0.573248,-0.707376,0.359866,0
30850,-0.573292,-0.694084,0.355324,0
30870,-0.571687,-0.6832,0.350854,0
30890,-0.568891,-0.673948,0.348518,0
30910,-0.568861,-0.664612,0.348077,0
30930,-0.570279,-0.653827,0.348926,0
30950,-0.572544,-0.641555,0.351294,0
30970,-0.577513,-0.628866,0.355155,0
30990,-0.582142,-0.617645,0.360003,0
31010,-0.586468,-0.607508,0.3663,0
31030,-0.59179,-0.596655,0.373443,0
31050,-0.597227,-0.582864,0.381929,0
31070,-0.605472,-0.567789,0.393639,0
31090,-0.617324,-0.552627,0.40737,0
31110,-0.628951,-0.537049,0.421271,0
31130,-0.637034,-0.522267,0.43388,0
31150,-0.64262,-0.510008,0.446273,0
31170,-0.648909,-0.499264,0.459309,0
31190,-0.658564,-0.488862,0.471916,0
31210,-0.669393,-0.478209,0.484871,0
31230,-0.6772,-0.467933,0.497496,0
31250,-0.683418,-0.459102,0.510158,0
31270,-0.688854,-0.450743,0.523414,0
31290,-0.695889,-0.442687,0.536487,0
31310,-0.704949,-0.435059,0.550507,0
31330,-0.714926,-0.428156,0.565386,0
31350,-0.7242,-0.42149,0.580829,0
31370,-0.734324,-0.415786,0.596573,0
31390,-0.745388,-0.410685,0.61237,0
31410,-0.757169,-0.405868,0.629124,0
31430,-0.770217,-0.401241,0.646437,0
31450,-0.783563,-0.398224,0.664125,0
31470,-0.796493,-0.396658,0.681767,0
31490,-0.809484,-0.395299,0.700213,0
31510,-0.824325,-0.396556,0.720602,0
31530,-0.83982,-0.398948,0.742295,0
31550,-0.856377,-0.401158,0.764421,0
31570,-0.874902,-0.405507,0.787422,0
31590,-0.89354,-0.411704,0.81099,0
31610,-0.910305,-0.419306,0.834549,0
31630,-0.9255,-0.425947,0.857614,0
31650,-0.942873,-0.432656,0.881284,0
31670,-0.961028,-0.442343,0.904226,0
31690,-0.97449,-0.452171,0.925095,0
31710,-0.985132,-0.461008,0.945117,0
31730,-0.997193,-0.470262,0.965901,0
31750,-1.01028,-0.481582,0.985958,0
31770,-1.02089,-0.495119,1.00501,0
31790,-1.02845,-0.510096,1.02275,0
31810,-1.03682,-0.52376,1.0409,0
31830,-1.04822,-0.534622,1.05885,0
31850,-1.05953,-0.54569,1.07667,0
31870,-1.06827,-0.559987,1.09362,0
31890,-1.07631,-0.574975,1.11138,0
31910,-1.08765,-0.589074,1.12954,0
31930,-1.10406,-0.6006,1.14885,0
31950,-1.12074,-0.613691,1.16654,0
31970,-1.13422,-0.628721,1.18285,0
31990,-1.14693,-0.642381,1.19762,0
32010,-1.15994,-0.653678,1.21077,0
32030,-1.17371,-0.666444,1.22342,0
32050,-1.18814,-0.681214,1.23652,0
32070,-1.20017,-0.696976,1.24695,0
32090,-1.20917,-0.713365,1.25359,0
32110,-1.21192,-0.7332,1.25378,0
32130,-1.21216,-0.757357,1.25239,0
32150,-1.21296,-0.782138,1.25148,0
32170,-1.21681,-0.807352,1.25048,0
32190,-1.22031,-0.83208,1.24567,0
32210,-1.22057,-0.857874,1.23706,0
32230,-1.21737,-0.882618,1.22415,0
32250,-1.2149,-0.904945,1.21152,0
32270,-1.21584,-0.924971,1.19873,0
32290,-1.21312,-0.945179,1.18037,0
32310,-1.20524,-0.964795,1.15523,0
32330,-1.19538,-0.981748,1.12681,0
32350,-1.18475,-0.996757,1.09706,0
32370,-1.17099,-1.0108,1.06388,0
32390,-1.15214,-1.02233,1.02563,0
32410,-1.12871,-1.03252,0.982806,0
32430,-1.10219,-1.04066,0.93698,0
32450,-1.07226,-1.04613,0.888336,0
32470,-1.04053,-1.04982,0.838838,0
32490,-1.00682,-1.05225,0.787048,0
32510,-0.972903,-1.0525,0.735251,0
32530,-0.939811,-1.04919,0.685409,0
32550,-0.908957,-1.04318,0.639375,0
32570,-0.881153,-1.03577,0.596299,0
32590,-0.857766,-1.02705,0.558527,0
32610,-0.838387,-1.01659,0.526886,0
32630,-0.821508,-1.00467,0.499844,0
32640,-0.806018,-0.991645,0.475518,0
32660,-0.792029,-0.977447,0.4542,0
32680,-0.780893,-0.963026,0.436829,0
32700,-0.77274,-0.951098,0.423758,0
32720,-0.768148,-0.938276,0.415123,0
32740,-0.763306,-0.924628,0.40762,0
32760,-0.756142,-0.912004,0.399856,0
32780,-0.751723,-0.900297,0.396753,0
32800,-0.74848,-0.888501,0.396033,0
32820,-0.749214,-0.874642,0.398278,0
32840,-0.747339,-0.860419,0.397962,0
32860,-0.748419,-0.845677,0.40038,0
32880,-0.752058,-0.830569,0.407034,0
32900,-0.757057,-0.813581,0.415408,0
32920,-0.761845,-0.795659,0.422533,0
32940,-0.767766,-0.776477,0.430244,0
32960,-0.774185,-0.757174,0.437829,0
32980,-0.782337,-0.73918,0.447702,0
33000,-0.789967,-0.721415,0.459276,0
33020,-0.797555,-0.703465,0.470604,0
33040,-0.804881,-0.687173,0.481783,0
33060,-0.813263,-0.673031,0.493424,0
33080,-0.823009,-0.658964,0.506759,0
33100,-0.833782,-0.645407,0.520946,0
33120,-0.846582,-0.634074,0.536679,0
33140,-0.857302,-0.6246,0.551534,0
33160,-0.867408,-0.615835,0.567332,0
33180,-0.878787,-0.607743,0.584195,0
33200,-0.889383,-0.600179,0.600417,0
33220,-0.900268,-0.591899,0.616778,0
33240,-0.910431,-0.584594,0.632812,0
33260,-0.920226,-0.579323,0.650435,0
33280,-0.929575,-0.57454,0.66777,0
33300,-0.940135,-0.569624,0.685016,0
33320,-0.953431,-0.565499,0.704172,0
33340,-0.965945,-0.563182,0.723573,0
33360,-0.976727,-0.561579,0.742893,0
33380,-0.988669,-0.560458,0.763295,0
33400,-1.00195,-0.560167,0.7846,0
33420,-1.01756,-0.562221,0.807972,0
33440,-1.03362,-0.564798,0.832495,0
33460,-1.05208,-0.567438,0.858631,0
33480,-1.07324,-0.572082,0.886256,0
33500,-1.09431,-0.578689,0.914163,0
33520,-1.11287,-0.585297,0.941203,0
33540,-1.13062,-0.592173,0.968498,0
33560,-1.14973,-0.601036,0.995823,0
33580,-1.16641,-0.611969,1.02094,0
33600,-1.17996,-0.622223,1.04499,0
33620,-1.19471,-0.631707,1.07073,0
33640,-1.21174,-0.642486,1.09681,0
33660,-1.22622,-0.655209,1.12128,0
33680,-1.23475,-0.669476,1.14103,0
33700,-1.24312,-0.68171,1.16116,0
33720,-1.25556,-0.693242,1.18164,0
33740,-1.26743,-0.705833,1.20182,0
33760,-1.27449,-0.720858,1.21783,0
33780,-1.28028,-0.736791,1.23279,0
33800,-1.29076,-0.752898,1.24767,0
33820,-1.30284,-0.768382,1.26308,0
33840,-1.31242,-0.78451,1.27523,0
33860,-1.31797,-0.800805,1.28351,0
33880,-1.3235,-0.818091,1.28981,0
33900,-1.3294,-0.836843,1.29639,0
33920,-1.33491,-0.855831,1.30109,0
33940,-1.34144,-0.873603,1.3036,0
33960,-1.34582,-0.890609,1.30077,0
33980,-1.34831,-0.909198,1.29637,0
34000,-1.34991,-0.92795,1.29068,0
34020,-1.3498,-0.946017,1.28121,0
34040,-1.34733,-0.961867,1.26769,0
34060,-1.3409,-0.976871,1.24897,0
34080,-1.33122,-0.993225,1.22763,0
34100,-1.32293,-1.01005,1.20609,0
34120,-1.31219,-1.02521,1.18052,0
34140,-1.29755,-1.03975,1.15054,0
34160,-1.27965,-1.05364,1.11769,0
34180,-1.2583,-1.06665,1.0814,0
34200,-1.23596,-1.07825,1.04386,0
34220,-1.21069,-1.08906,1.0034,0
34240,-1.18157,-1.09923,0.960174,0
34260,-1.15093,-1.10814,0.915297,0
34280,-1.11923,-1.11457,0.86895,0
34300,-1.08765,-1.11928,0.82349,0
34320,-1.05482,-1.1227,0.777914,0
34340,-1.02199,-1.12544,0.732363,0
34360,-0.989284,-1.12574,0.687237,0
34380,-0.958289,-1.12214,0.644299,0
34390,-0.927927,-1.11576,0.604107,0
34400,-0.897525,-1.1081,0.565294,0
34420,-0.868909,-1.09993,0.528419,0
34440,-0.846298,-1.08972,0.498018,0
34460,-0.825702,-1.07731,0.470474,0
34480,-0.806965,-1.06313,0.447074,0
34500,-0.791732,-1.04845,0.427449,0
34520,-0.781794,-1.03403,0.411384,0
34540,-0.774963,-1.01832,0.399464,0
34560,-0.767636,-1.00228,0.387947,0
34580,-0.762455,-0.985336,0.380438,0
34600,-0.760937,-0.968761,0.376898,0
34620,-0.76091,-0.952722,0.374413,0
34640,-0.761351,-0.936164,0.372722,0
34660,-0.759529,-0.91862,0.369819,0
34680,-0.758226,-0.90138,0.370132,0
34700,-0.760699,-0.883707,0.373746,0
34720,-0.771258,-0.866012,0.381988,0
34740,-0.780837,-0.847858,0.388357,0
34760,-0.787173,-0.829209,0.394479,0
34780,-0.793909,-0.812882,0.403269,0
34800,-0.802933,-0.798969,0.413644,0
34820,-0.816041,-0.786533,0.425075,0
34840,-0.828493,-0.77309,0.435291,0
34860,-0.839753,-0.760117,0.446676,0
34880,-0.849335,-0.747938,0.458559,0
34900,-0.862144,-0.735876,0.471953,0
34920,-0.874072,-0.725814,0.48377,0
34940,-0.881829,-0.71475,0.492577,0
34960,-0.892031,-0.704899,0.503526,0
34980,-0.906042,-0.696722,0.517561,0
35000,-0.918164,-0.689923,0.530336,0
35020,-0.927108,-0.684363,0.541953,0
35040,-0.937298,-0.679174,0.555575,0
35060,-0.949623,-0.676415,0.570178,0
35080,-0.962711,-0.674509,0.585148,0
35100,-0.97602,-0.671388,0.600705,0
35120,-0.988794,-0.669052,0.617258,0
35140,-1.00105,-0.667437,0.634838,0
35160,-1.01446,-0.667683,0.654128,0
35180,-1.03035,-0.668744,0.674591,0
35200,-1.04926,-0.667611,0.696417,0
35220,-1.06917,-0.667653,0.719057,0
35240,-1.08825,-0.668264,0.741886,0
35260,-1.10926,-0.670304,0.765984,0
35280,-1.13074,-0.671778,0.789735,0
35300,-1.15046,-0.673189,0.81336,0
35320,-1.1692,-0.67644,0.837803,0
35340,-1.18652,-0.680898,0.86158,0
35360,-1.20409,-0.684932,0.884592,0
35380,-1.223,-0.689391,0.90723,0
35400,-1.24188,-0.693822,0.930403,0
35420,-1.25921,-0.699272,0.953524,0
35440,-1.27692,-0.704344,0.977558,0
35460,-1.29466,-0.710763,1.00141,0
35480,-1.31234,-0.718697,1.02461,0
35500,-1.3286,-0.725205,1.04627,0
35520,-1.34392,-0.732141,1.06775,0
35540,-1.35798,-0.739772,1.08866,0
35560,-1.37142,-0.747615,1.10903,0
35580,-1.38484,-0.756264,1.12939,0
35600,-1.39621,-0.765985,1.14886,0
35620,-1.40519,-0.77621,1.16733,0
35640,-1.41495,-0.78725,1.18704,0
35660,-1.42668,-0.799073,1.20758,0
35680,-1.43759,-0.810862,1.22621,0
35700,-1.44479,-0.822457,1.24089,0
35720,-1.44921,-0.834568,1.25388,0
35740,-1.45582,-0.84643,1.26844,0
35760,-1.46515,-0.858032,1.28364,0
35780,-1.47367,-0.870365,1.2971,0
35800,-1.47848,-0.883432,1.30895,0
35820,-1.48355,-0.896326,1.32074,0
35840,-1.49023,-0.907687,1.33314,0
35860,-1.49864,-0.918746,1.3456,0
35880,-1.50484,-0.930857,1.35685,0
35900,-1.50901,-0.943856,1.36671,0
35920,-1.51383,-0.955572,1.37597,0
35940,-1.51949,-0.966956,1.3846,0
35960,-1.52401,-0.978577,1.39189,0
35980,-1.52566,-0.990447,1.39711,0
36000,-1.52836,-1.00109,1.40299,0
36020,-1.52988,-1.0106,1.40666,0
36030,-1.52935,-1.02016,1.40792,2001
36050,-1.52717,-1.02928,1.40688,0
36070,-1.52698,-1.03704,1.40682,0
36090,-1.52627,-1.04396,1.40595,0
36110,-1.52512,-1.04978,1.40481,0
36130,-1.52396,-1.05461,1.40284,0
36150,-1.52279,-1.05812,1.40002,0
36170,-1.52243,-1.06096,1.39801,0
36190,-1.52197,-1.0626,1.39596,0
36210,-1.52049,-1.06287,1.39369,0
36230,-1.52012,-1.06347,1.39288,0
36250,-1.52055,-1.0635,1.39241,0
36270,-1.52158,-1.06315,1.39335,0
36290,-1.52323,-1.06212,1.39632,0
36310,-1.52449,-1.0603,1.39934,0
36330,-1.52214,-1.05939,1.39956,0
36350,-1.51889,-1.06015,1.39856,0
36370,-1.51438,-1.06122,1.39559,0
36390,-1.50904,-1.06169,1.39321,0
36410,-1.50273,-1.0614,1.39046,0
36430,-1.49347,-1.06087,1.38566,0
36450,-1.48215,-1.06146,1.3798,0
36470,-1.46908,-1.06076,1.37217,0
36490,-1.45249,-1.0573,1.36018,0
36510,-1.4301,-1.05164,1.34362,0
36530,-1.40139,-1.04565,1.32352,0
36550,-1.3695,-1.03926,1.30115,0
36570,-1.3379,-1.02945,1.27778,0
36590,-1.30675,-1.01465,1.25181,0
36610,-1.26932,-0.995462,1.22188,0
36630,-1.22868,-0.971523,1.19073,0
36650,-1.19107,-0.944662,1.16131,0
36670,-1.15506,-0.916756,1.13227,0
36690,-1.12164,-0.887695,1.10607,0
36710,-1.09291,-0.855801,1.08591,0
36730,-1.06868,-0.821402,1.06887,0
36750,-1.04533,-0.787268,1.05187,0
36770,-1.02414,-0.752932,1.03919,0
36790,-1.00888,-0.716873,1.0323,0
36810,-1.00071,-0.679703,1.0318,0
36830,-0.996968,-0.64585,1.03488,0
36850,-0.992228,-0.617097,1.03682,0
36890,-0.983145,-0.57172,1.03891,0
36910,-0.980776,-0.554484,1.04283,0
36930,-0.981268,-0.540737,1.04972,0
36950,-0.982333,-0.528413,1.0568,0
36970,-0.982577,-0.518689,1.06115,0
36990,-0.980702,-0.511796,1.06434,0
37010,-0.977468,-0.508258,1.0679,0
37030,-0.974102,-0.506588,1.07271,0
37050,-0.971469,-0.504712,1.07735,0
37070,-0.970684,-0.504211,1.0817,0
37090,-0.969601,-0.504466,1.08513,0
37110,-0.967511,-0.505044,1.08854,0
37130,-0.965014,-0.504697,1.09208,0
37150,-0.964231,-0.503413,1.09546,0
37170,-0.963516,-0.501522,1.09804,0
37190,-0.962282,-0.499387,1.09991,0
37210,-0.961888,-0.496766,1.10284,0
37230,-0.962407,-0.494154,1.10609,0
37250,-0.961841,-0.492229,1.10753,0
37270,-0.959056,-0.49032,1.10826,0
37290,-0.957213,-0.488388,1.10963,0
37310,-0.956955,-0.487034,1.11126,0
37330,-0.956642,-0.48591,1.1121,0
37350,-0.955823,-0.48476,1.11296,0
37370,-0.95532,-0.4836,1.11383,0
37390,-0.955209,-0.48251,1.11448,0
37410,-0.955321,-0.481671,1.11463,0
37430,-0.955579,-0.48107,1.11532,0
37450,-0.956083,-0.480209,1.11597,0
37470,-0.956083,-0.480209,1.11597,0
37490,-0.955747,-0.480482,1.11613,0
37510,-0.955278,-0.480491,1.11667,0
37530,-0.955221,-0.480061,1.11744,0
37550,-0.956228,-0.479544,1.11827,0
37570,-0.956676,-0.47914,1.11904,0
37590,-0.956473,-0.47879,1.11947,2000
37610,-0.956674,-0.477531,1.12004,0
37630,-0.957847,-0.476515,1.12095,0
37650,-0.958808,-0.476692,1.1211,0
37670,-0.959167,-0.477114,1.12093,0
37690,-0.959582,-0.477153,1.12103,0
37710,-0.959892,-0.475779,1.12141,0
37730,-0.959868,-0.473637,1.1221,0
37750,-0.960488,-0.472637,1.12349,0
37770,-0.961661,-0.472732,1.12465,0
37790,-0.963527,-0.473359,1.12649,0
37810,-0.96569,-0.474139,1.12922,0
37830,-0.96737,-0.475432,1.13246,0
37850,-0.96871,-0.477097,1.13594,0
37870,-0.970338,-0.478947,1.14001,0
37890,-0.972879,-0.481042,1.14457,0
37910,-0.976144,-0.483348,1.14984,0
37930,-0.979065,-0.485646,1.15558,0
37950,-0.981813,-0.488418,1.16152,0
37970,-0.984629,-0.493165,1.16741,0
37990,-0.988296,-0.498973,1.17398,0
38010,-0.992319,-0.504738,1.18111,0
38020,-0.995953,-0.509833,1.18778,0
38040,-0.998876,-0.51506,1.19432,0
38060,-1.00125,-0.521881,1.20022,0
38080,-1.00325,-0.529546,1.20618,0
38100,-1.0056,-0.537018,1.21239,0
38120,-1.00809,-0.544454,1.21842,0
38140,-1.01021,-0.552188,1.22427,0
38160,-1.01259,-0.56086,1.23,0
38180,-1.01541,-0.569816,1.23594,0
38200,-1.01862,-0.578531,1.24168,0
38220,-1.02178,-0.587007,1.2468,0
38250,-1.03883,-0.629307,1.2677,0
38270,-1.04048,-0.637654,1.27004,0
38290,-1.04156,-0.646081,1.2717,0
38310,-1.04393,-0.654002,1.27313,0
38330,-1.04686,-0.662193,1.27443,0
38350,-1.04955,-0.671092,1.2749,0
38370,-1.05119,-0.680046,1.2746,0
38390,-1.05156,-0.689009,1.2721,0
38410,-1.05167,-0.698713,1.26845,0
38430,-1.05192,-0.708174,1.26383,0
38450,-1.05117,-0.718437,1.25715,0
38470,-1.04882,-0.729085,1.24888,0
38490,-1.04517,-0.739042,1.23852,0
38510,-1.04146,-0.749886,1.2284,0
38530,-1.03801,-0.761532,1.21703,0
38540,-1.03498,-0.773647,1.20395,0
38560,-1.03101,-0.785136,1.18871,0
38580,-1.02391,-0.79567,1.17097,0
38600,-1.01477,-0.805144,1.15175,0
38620,-1.00481,-0.814973,1.13018,0
38640,-0.994393,-0.824787,1.1066,0
38660,-0.983078,-0.833306,1.08186,0
38680,-0.969599,-0.840592,1.05566,0
38700,-0.955213,-0.847657,1.02813,0
38710,-0.939771,-0.855479,0.998755,0
38720,-0.923493,-0.862823,0.968125,0
38740,-0.907458,-0.869406,0.937331,0
38760,-0.891846,-0.874741,0.906814,0
38780,-0.876017,-0.879757,0.876292,0
38800,-0.860521,-0.884234,0.845304,0
38810,-0.844635,-0.887227,0.813395,0
38830,-0.829141,-0.888551,0.781875,0
38850,-0.815347,-0.88823,0.752411,0
38870,-0.802914,-0.886504,0.723731,0
38890,-0.789424,-0.883573,0.693955,0
38910,-0.774669,-0.879468,0.663516,0
38920,-0.751053,-0.869933,0.608765,0
38940,-0.738691,-0.863808,0.581115,0
38960,-0.727067,-0.856843,0.555977,0
38980,-0.716625,-0.850663,0.532925,0
39000,-0.706035,-0.846097,0.50919,0
39020,-0.695208,-0.841859,0.485946,0
39040,-0.684343,-0.835793,0.463858,0
39060,-0.674933,-0.829424,0.445242,0
39080,-0.667776,-0.822661,0.428524,0
39100,-0.66113,-0.816024,0.411826,0
39120,-0.653315,-0.80923,0.395341,0
39140,-0.646021,-0.802452,0.380733,0
39160,-0.640832,-0.794513,0.369305,0
39180,-0.637371,-0.786811,0.359373,0
39200,-0.633113,-0.778487,0.349987,0
39220,-0.627361,-0.77033,0.340892,0
39240,-0.623026,-0.762582,0.333241,0
39260,-0.61959,-0.753842,0.326208,0
39280,-0.618891,-0.744517,0.321581,0
39300,-0.620812,-0.7345,0.320852,0
39320,-0.621733,-0.723935,0.319994,0
39340,-0.621539,-0.713976,0.318633,0
39360,-0.620461,-0.705857,0.317469,0
39380,-0.619981,-0.697171,0.317426,0
39400,-0.620724,-0.6863,0.319519,0
39420,-0.623141,-0.674066,0.323368,0
39440,-0.627909,-0.662063,0.328337,0
39460,-0.633098,-0.650137,0.334084,0
39480,-0.638881,-0.638024,0.341682,0
39500,-0.647145,-0.625216,0.352312,0
39520,-0.656878,-0.611656,0.363769,0
39540,-0.668062,-0.597713,0.375746,0
39560,-0.678977,-0.584504,0.386706,0
39580,-0.69018,-0.571336,0.398342,0
39600,-0.700574,-0.557875,0.410545,0
39620,-0.710879,-0.544962,0.422711,0
39640,-0.720272,-0.53393,0.434302,0
39660,-0.73116,-0.523998,0.446278,0
39680,-0.741293,-0.515237,0.457501,0
39700,-0.750164,-0.507264,0.469948,0
39720,-0.757313,-0.499995,0.482364,0
39740,-0.763338,-0.495221,0.494702,0
39760,-0.771661,-0.493357,0.508749,0
39780,-0.77993,-0.491171,0.52172,0
39800,-0.78582,-0.487041,0.53338,0
39820,-0.791251,-0.483943,0.545793,0
39840,-0.797591,-0.481839,0.559296,0
39860,-0.803958,-0.479637,0.572515,0
39880,-0.810604,-0.47676,0.585259,0
39900,-0.817432,-0.474852,0.598166,0
39920,-0.82391,-0.472131,0.61169,0
39940,-0.831913,-0.467953,0.625635,0
39960,-0.839455,-0.464931,0.638491,0
39980,-0.846596,-0.462509,0.651396,0
40000,-0.853982,-0.459956,0.664649,0
40020,-0.863209,-0.457032,0.679013,0
40040,-0.873101,-0.453989,0.692919,0
40060,-0.881091,-0.451006,0.705751,0
40080,-0.887958,-0.448821,0.719046,0
40100,-0.896825,-0.448005,0.734215,0
40120,-0.908785,-0.447125,0.750529,0
40140,-0.921938,-0.445323,0.766356,0
40160,-0.935486,-0.444419,0.782826,0
40180,-0.949253,-0.444952,0.800818,0
40200,-0.963749,-0.445741,0.820463,0
40220,-0.978565,-0.446973,0.839428,0
40240,-0.992975,-0.450104,0.857651,0
40260,-1.00699,-0.45362,0.876917,0
40280,-1.02009,-0.45846,0.896529,0
40300,-1.03407,-0.463406,0.916895,0
40320,-1.04845,-0.468888,0.937059,0
40340,-1.06121,-0.476658,0.956961,0
40360,-1.07221,-0.486048,0.977341,0
40380,-1.08317,-0.496057,0.997938,0
40400,-1.09609,-0.505825,1.01822,0
40420,-1.10795,-0.517081,1.03784,0
40440,-1.11602,-0.530332,1.05622,0
40460,-1.12365,-0.54176,1.07456,0
40480,-1.13526,-0.551222,1.09451,0
40500,-1.1484,-0.561119,1.11477,0
40520,-1.15799,-0.573522,1.13293,0
40540,-1.16776,-0.586505,1.1515,0
40560,-1.18034,-0.598103,1.16911,0
40580,-1.19332,-0.608354,1.18534,0
40600,-1.20303,-0.618504,1.2004,0
40620,-1.2123,-0.628703,1.21521,0
40640,-1.22519,-0.638992,1.23166,0
40660,-1.23894,-0.647752,1.24617,0
40680,-1.25153,-0.655831,1.25874,0
40700,-1.25862,-0.66539,1.2686,0
40720,-1.26295,-0.676338,1.2774,0
40740,-1.26976,-0.688218,1.28628,0
40760,-1.27719,-0.699604,1.29414,0
40780,-1.28214,-0.710982,1.29971,0
40800,-1.28225,-0.725234,1.30231,0
40820,-1.282,-0.742096,1.30472,0
40840,-1.2846,-0.760629,1.30742,0
40860,-1.28619,-0.778806,1.30687,0
40880,-1.2855,-0.797488,1.30358,0
40900,-1.28606,-0.815804,1.30064,0
40920,-1.28673,-0.836713,1.29561,0
40940,-1.28618,-0.858142,1.28839,0
40960,-1.28457,-0.879436,1.27906,0
40980,-1.28259,-0.899141,1.26833,0
41000,-1.28205,-0.919009,1.25745,0
41020,-1.27983,-0.939296,1.24323,0
41040,-1.2734,-0.960087,1.22434,0
41060,-1.26354,-0.979682,1.20109,0
41080,-1.25382,-0.997833,1.17722,0
41100,-1.24139,-1.01445,1.14899,0
41120,-1.2245,-1.03084,1.11572,0
41140,-1.20291,-1.04723,1.07745,0
41160,-1.17831,-1.06243,1.03559,0
41180,-1.15201,-1.07529,0.991392,0
41200,-1.12149,-1.08494,0.943493,0
41220,-1.0871,-1.09217,0.892036,0
41240,-1.0492,-1.09767,0.837298,0
41260,-1.01133,-1.10127,0.782923,0
41280,-0.973762,-1.10177,0.728474,0
41300,-0.93731,-1.09908,0.676206,0
41310,-0.903785,-1.09468,0.628027,0
41330,-0.871629,-1.08922,0.581658,0
41350,-0.840842,-1.0826,0.536803,0
41370,-0.813893,-1.07471,0.496669,0
41390,-0.791134,-1.06577,0.462227,0
41410,-0.771391,-1.05398,0.431841,0
41430,-0.75507,-1.03939,0.407115,0
41450,-0.74079,-1.02388,0.386808,0
41470,-0.726443,-1.00947,0.366576,0
41490,-0.711266,-0.995392,0.34565,0
41510,-0.702862,-0.980011,0.331181,0
41530,-0.698392,-0.964799,0.323239,0
41550,-0.694603,-0.950235,0.318127,0
41570,-0.692735,-0.936738,0.314604,0
41590,-0.690974,-0.924579,0.310573,0
41610,-0.689099,-0.91278,0.3081,0
41630,-0.687667,-0.901161,0.308694,0
41650,-0.689215,-0.890039,0.313591,0
41670,-0.693239,-0.877653,0.320323,0
41690,-0.698652,-0.864407,0.325465,0
41710,-0.70538,-0.852111,0.332181,0
41730,-0.709884,-0.840728,0.340201,0
41750,-0.716312,-0.829549,0.350423,0
41770,-0.725314,-0.816313,0.361795,0
41790,-0.733535,-0.802701,0.370599,0
41810,-0.737572,-0.789833,0.378253,0
41830,-0.742576,-0.777282,0.388754,0
41850,-0.747788,-0.764448,0.398339,0
41870,-0.756634,-0.751625,0.408116,0
41890,-0.767513,-0.739217,0.41948,0
41910,-0.777558,-0.727318,0.431281,0
41930,-0.786503,-0.715669,0.443445,0
41950,-0.795866,-0.705119,0.455526,0
41970,-0.805349,-0.695892,0.467561,0
41990,-0.813449,-0.688716,0.478956,0
42010,-0.81922,-0.681344,0.490739,0
42030,-0.825869,-0.673294,0.502677,0
42050,-0.835618,-0.666919,0.516083,0
42070,-0.844968,-0.660585,0.530193,0
42090,-0.852832,-0.654297,0.543512,0
42110,-0.86113,-0.648599,0.557619,0
42130,-0.871493,-0.643546,0.572278,0
42150,-0.882794,-0.638723,0.587215,0
42170,-0.892816,-0.63382,0.601569,0
42190,-0.902358,-0.628555,0.615216,0
42210,-0.913526,-0.623216,0.630603,0
42230,-0.925395,-0.618494,0.646238,0
42250,-0.934563,-0.613591,0.659871,0
42270,-0.943172,-0.608179,0.672513,0
42290,-0.954033,-0.603098,0.686842,0
42310,-0.966994,-0.5989,0.702766,0
42330,-0.979796,-0.594047,0.718962,0
42350,-0.990971,-0.590281,0.734419,0
42370,-1.00322,-0.588035,0.751243,0
42390,-1.01826,-0.587044,0.770664,0
42410,-1.03471,-0.586025,0.790791,0
42430,-1.05142,-0.585652,0.811527,0
42450,-1.06845,-0.587033,0.833082,0
42470,-1.08586,-0.589463,0.855967,0
42490,-1.10476,-0.591614,0.879821,0
42510,-1.12332,-0.594308,0.902474,0
42530,-1.13959,-0.597305,0.924128,0
42550,-1.1566,-0.601124,0.947444,0
42570,-1.17432,-0.605263,0.970479,0
42590,-1.19244,-0.609063,0.993606,0
42610,-1.21064,-0.613982,1.01655,0
42630,-1.22662,-0.619914,1.03927,0
42650,-1.24178,-0.627127,1.06168,0
42670,-1.25767,-0.634256,1.0847,0
42690,-1.27328,-0.642402,1.10793,0
42710,-1.2873,-0.651806,1.13055,0
42730,-1.30059,-0.661872,1.15367,0
42750,-1.31467,-0.671999,1.17733,0
42770,-1.32775,-0.681619,1.19983,0
42790,-1.33792,-0.692389,1.21997,0
42810,-1.34508,-0.70514,1.23863,0
42830,-1.3541,-0.71737,1.25896,0
42850,-1.3679,-0.728641,1.28199,0
42870,-1.38323,-0.741315,1.30512,0
42890,-1.39481,-0.757793,1.32563,0
42910,-1.40286,-0.775199,1.3448,0
42930,-1.41338,-0.793666,1.36432,0
42950,-1.42636,-0.811534,1.38352,0
42970,-1.43689,-0.832275,1.40005,0
42990,-1.44482,-0.855024,1.41404,0
43010,-1.45422,-0.876751,1.42733,0
43030,-1.46347,-0.897572,1.43795,0
43050,-1.47211,-0.920411,1.44624,0
43070,-1.48013,-0.944141,1.45255,0
43090,-1.4896,-0.965343,1.45768,0
43110,-1.49577,-0.985511,1.45665,0
43130,-1.50145,-1.0054,1.45579,0
43150,-1.50903,-1.02606,1.45507,0
43170,-1.51498,-1.04642,1.4508,0
43190,-1.51655,-1.06637,1.44032,0
43210,-1.5157,-1.08632,1.42703,0
43230,-1.51483,-1.10545,1.4133,0
43240,-1.51053,-1.125,1.39505,0
43270,-1.50079,-1.14451,1.37052,0
43280,-1.48546,-1.16342,1.34025,0
43300,-1.46473,-1.18078,1.30408,0
43320,-1.43809,-1.19641,1.26154,0
43340,-1.40551,-1.21138,1.2129,0
43360,-1.36498,-1.22419,1.15623,0
43380,-1.3168,-1.23516,1.09203,0
43400,-1.26523,-1.24287,1.02511,0
43420,-1.21247,-1.248,0.957449,0
43440,-1.15579,-1.25106,0.886374,0
43460,-1.09912,-1.25256,0.815155,0
43480,-1.04257,-1.25151,0.744394,0
43500,-0.987945,-1.24759,0.676775,0
43520,-0.934682,-1.24014,0.612434,0
43540,-0.884526,-1.23079,0.552738,0
43560,-0.839227,-1.22154,0.498427,0
43580,-0.801125,-1.20976,0.450742,0
43600,-0.770887,-1.19604,0.412383,0
43620,-0.746185,-1.18129,0.381141,0
43640,-0.724767,-1.16532,0.355042,0
43660,-0.708707,-1.1499,0.334137,0
43680,-0.703009,-1.13374,0.322926,0
43700,-0.700111,-1.11629,0.316524,0
43720,-0.703189,-1.09716,0.316822,0
43740,-0.707056,-1.07844,0.318106,0
43760,-0.71306,-1.0612,0.321489,0
43780,-0.72258,-1.04397,0.3302,0
43800,-0.730898,-1.02679,0.339105,0
43820,-0.744086,-1.00884,0.351508,0
43840,-0.75784,-0.992117,0.362972,0
43860,-0.768551,-0.975873,0.371493,0
43880,-0.776078,-0.957018,0.379523,0
43900,-0.784392,-0.937955,0.388806,0
43920,-0.794401,-0.920217,0.399947,0
43940,-0.802542,-0.902996,0.408678,0
43960,-0.809875,-0.885065,0.416661,0
43980,-0.817486,-0.867866,0.425364,0
44000,-0.828114,-0.851172,0.436082,0
44020,-0.839191,-0.834189,0.445952,0
44040,-0.85034,-0.816341,0.454667,0
44060,-0.862544,-0.800603,0.465384,0
44080,-0.874973,-0.78762,0.476206,0
44100,-0.888423,-0.775598,0.487867,0
44120,-0.900722,-0.764151,0.499192,0
44140,-0.911424,-0.753425,0.509432,0
44160,-0.920638,-0.743362,0.520555,0
44180,-0.928438,-0.734063,0.531466,0
44200,-0.937579,-0.726842,0.543029,0
44220,-0.948058,-0.719373,0.553789,0
44240,-0.962338,-0.712196,0.567029,0
44260,-0.980495,-0.706432,0.583223,0
44280,-0.999312,-0.70282,0.599173,0
44300,-1.01787,-0.699977,0.615133,0
44320,-1.03654,-0.697183,0.632182,0
44340,-1.05553,-0.695922,0.651528,0
44360,-1.07263,-0.695802,0.671719,0
44380,-1.08838,-0.696757,0.692143,0
44400,-1.10489,-0.697665,0.713884,0
44420,-1.12207,-0.700485,0.736653,0
44440,-1.13873,-0.703006,0.75964,0
44460,-1.15852,-0.705417,0.784193,0
44480,-1.18109,-0.707246,0.80847,0
44500,-1.20403,-0.709104,0.832159,0
44520,-1.22411,-0.710688,0.855267,0
44540,-1.24497,-0.712752,0.879692,0
44560,-1.26764,-0.716115,0.905538,0
44580,-1.29028,-0.719904,0.930897,0
44600,-1.31258,-0.723989,0.956986,0
44620,-1.3328,-0.728493,0.983159,0
44640,-1.35085,-0.733982,1.00892,0
44660,-1.36678,-0.740567,1.03311,0
44680,-1.38314,-0.746644,1.05727,0
44700,-1.40103,-0.751725,1.08257,0
44720,-1.42042,-0.757186,1.10881,0
44740,-1.43842,-0.76363,1.13409,0
44760,-1.45502,-0.770782,1.1595,0
44780,-1.47261,-0.776949,1.18466,0
44800,-1.49241,-0.782701,1.21028,0
44820,-1.51006,-0.789666,1.23541,0
44840,-1.52448,-0.797084,1.25957,0
44860,-1.54121,-0.804954,1.28413,0
44880,-1.55825,-0.813395,1.30826,0
44900,-1.57016,-0.822763,1.3282,0
44920,-1.57747,-0.832913,1.3454,0
44940,-1.58495,-0.843925,1.36388,0
44960,-1.59302,-0.856531,1.38285,0
44980,-1.59886,-0.869991,1.3992,0
45000,-1.60435,-0.882848,1.41454,0
45020,-1.61098,-0.895115,1.42977,0
45040,-1.61699,-0.908453,1.44444,0
45060,-1.62196,-0.921219,1.45893,0
45080,-1.62746,-0.93334,1.47197,0
45100,-1.63032,-0.944491,1.48285,0
45120,-1.63184,-0.955309,1.49307,0
45140,-1.63503,-0.965943,1.50337,0
45160,-1.63781,-0.97645,1.5118,0
45180,-1.63897,-0.987812,1.51904,0
45200,-1.64168,-0.999239,1.52791,0
45220,-1.64455,-1.01013,1.53707,0
45240,-1.64827,-1.0211,1.54509,2001
45260,-1.65216,-1.03218,1.55308,0
45280,-1.65633,-1.04257,1.56143,0
45300,-1.66041,-1.05132,1.56874,0
45320,-1.66405,-1.05858,1.57426,0
45340,-1.66658,-1.06503,1.57865,0
45360,-1.66788,-1.06985,1.58089,0
45380,-1.66713,-1.07389,1.58055,0
45400,-1.66679,-1.07674,1.58006,0
45420,-1.66735,-1.07952,1.58029,0
45440,-1.66767,-1.08069,1.58044,0
45460,-1.66751,-1.08131,1.58074,0
45480,-1.66825,-1.08097,1.58219,0
45500,-1.66738,-1.08033,1.58211,0
45520,-1.66193,-1.08013,1.57817,0
45540,-1.65454,-1.07934,1.57362,0
45560,-1.64626,-1.07796,1.56908,0
45580,-1.63387,-1.07659,1.55952,0
45600,-1.61321,-1.0757,1.54242,0
45620,-1.58446,-1.07352,1.51979,0
45640,-1.54969,-1.06758,1.49282,0
45660,-1.51314,-1.05505,1.46261,0
45680,-1.47198,-1.03966,1.42662,0
45700,-1.42596,-1.02453,1.3866,0
45720,-1.37841,-1.00543,1.3456,0
45740,-1.33554,-0.978807,1.30838,0
45760,-1.28966,-0.949813,1.26799,0
45780,-1.24262,-0.921423,1.22796,0
45800,-1.20045,-0.8903,1.19395,0
45820,-1.16451,-0.857167,1.16432,0
45840,-1.12846,-0.82508,1.13531,0
45860,-1.09287,-0.793606,1.10742,0
45880,-1.06293,-0.761455,1.08416,0
45900,-1.03979,-0.729417,1.06749,0
45920,-1.01951,-0.699571,1.05465,0
45940,-1.00005,-0.672674,1.04307,0
45960,-0.982192,-0.648709,1.03183,0
45980,-0.96833,-0.627786,1.02395,0
46000,-0.956907,-0.609139,1.01864,0
46020,-0.94662,-0.592767,1.01596,0
46040,-0.937396,-0.579004,1.01327,0
46060,-0.930261,-0.56757,1.0116,0
46080,-0.92622,-0.558269,1.01251,0
46100,-0.924371,-0.550612,1.015,0
46120,-0.921775,-0.543891,1.01694,0
46140,-0.918279,-0.538792,1.01825,0
46160,-0.916423,-0.534453,1.021,0
46180,-0.917689,-0.5312,1.02495,0
46200,-0.919402,-0.528606,1.02834,0
46220,-0.918794,-0.526529,1.02949,0
46240,-0.917807,-0.524587,1.03096,0
46260,-0.917165,-0.522687,1.03298,0
46280,-0.916729,-0.521054,1.03509,0
46300,-0.916295,-0.519967,1.03709,0
46320,-0.915164,-0.519902,1.03797,0
46340,-0.91389,-0.519125,1.03882,0
46360,-0.913011,-0.518255,1.04087,0
46380,-0.911785,-0.517741,1.04236,0
46400,-0.911,-0.517267,1.0432,0
46420,-0.9112,-0.516132,1.04395,0
46440,-0.911108,-0.51436,1.04392,0
46460,-0.910906,-0.512313,1.0441,0
46480,-0.910645,-0.510944,1.0445,0
46500,-0.911326,-0.509795,1.04522,2000
46520,-0.912615,-0.509121,1.04623,0
46540,-0.913211,-0.508137,1.04657,0
46560,-0.914471,-0.507108,1.04747,0
46580,-0.915449,-0.505962,1.04879,0
46600,-0.916395,-0.505706,1.04944,0
46620,-0.917215,-0.506281,1.04974,0
46640,-0.917724,-0.5074,1.04991,0
46660,-0.918199,-0.507313,1.05009,0
46680,-0.919316,-0.506112,1.05085,0
46700,-0.920479,-0.504782,1.05186,0
46720,-0.921473,-0.50439,1.05317,0
46730,-0.922323,-0.504303,1.05402,0
46750,-0.923814,-0.50411,1.05542,0
46770,-0.92562,-0.504049,1.05783,0
46790,-0.927015,-0.504546,1.06081,0
46810,-0.928458,-0.506317,1.0646,0
46830,-0.929439,-0.509833,1.06815,0
46850,-0.930045,-0.514395,1.07157,0
46870,-0.930813,-0.520108,1.07591,0
46890,-0.931578,-0.526615,1.08059,0
46910,-0.933296,-0.53383,1.08549,0
46930,-0.935847,-0.541415,1.0908,0
46950,-0.938318,-0.549041,1.09641,0
46970,-0.93992,-0.557137,1.10191,0
46990,-0.941388,-0.565942,1.10763,0
47010,-0.942803,-0.575278,1.11296,0
47030,-0.945451,-0.584659,1.1192,0
47050,-0.950182,-0.594174,1.12722,0
47070,-0.954587,-0.604377,1.13526,0
47090,-0.958623,-0.614453,1.14341,0
47110,-0.963587,-0.623058,1.15186,0
47130,-0.970004,-0.631543,1.16137,0
47150,-0.977849,-0.640463,1.17208,0
47170,-0.986622,-0.648683,1.18278,0
47190,-0.994999,-0.655295,1.19286,0
47210,-1.00264,-0.662251,1.20297,0
47230,-1.00971,-0.670142,1.21284,0
47250,-1.01717,-0.678333,1.22239,0
47270,-1.0246,-0.686183,1.2304,0
47290,-1.02961,-0.694651,1.23595,0
47330,-1.0357,-0.717541,1.24334,0
47330,-1.03822,-0.730194,1.24469,0
47350,-1.04327,-0.754788,1.24636,0
47350,-1.04943,-0.782658,1.2469,0
47370,-1.05099,-0.797346,1.24328,0
47390,-1.05063,-0.812979,1.23774,0
47410,-1.04926,-0.828268,1.23012,0
47430,-1.04717,-0.844913,1.22033,0
47450,-1.04511,-0.86206,1.20912,0
47470,-1.04266,-0.87946,1.19556,0
47490,-1.03982,-0.896998,1.17977,0
47510,-1.03645,-0.913516,1.16174,0
47530,-1.03151,-0.929913,1.1406,0
47550,-1.02528,-0.94725,1.11736,0
47570,-1.01491,-0.964219,1.08909,0
47590,-1.00383,-0.979831,1.05788,0
47610,-0.992383,-0.993602,1.02534,0
47630,-0.977433,-1.00625,0.989926,0
47650,-0.960381,-1.01733,0.952843,0
47670,-0.942056,-1.0264,0.914096,0
47690,-0.923885,-1.03323,0.874995,0
47710,-0.904929,-1.03678,0.835831,0
47730,-0.88602,-1.03775,0.798033,0
47750,-0.865133,-1.03631,0.7585,0
47770,-0.842737,-1.03237,0.717113,0
47790,-0.821532,-1.02709,0.676875,0
47830,-0.761227,-0.993183,0.565499,0
47850,-0.742157,-0.980626,0.530283,0
47870,-0.726496,-0.965789,0.498055,0
47890,-0.710649,-0.949479,0.467087,0
47910,-0.69698,-0.933201,0.439871,0
47930,-0.686018,-0.917331,0.414591,0
47950,-0.676395,-0.900328,0.390687,0
47970,-0.667269,-0.883187,0.368092,0
47990,-0.656643,-0.865546,0.349268,0
48010,-0.647231,-0.849405,0.332941,0
48030,-0.638519,-0.833424,0.317154,0
48050,-0.630591,-0.81773,0.303258,0
48070,-0.622989,-0.802384,0.290939,0
48090,-0.616629,-0.786844,0.282113,0
48110,-0.612769,-0.771305,0.276562,0
48130,-0.613124,-0.756517,0.273382,0
48150,-0.614145,-0.742496,0.271428,0
48170,-0.61292,-0.727834,0.270915,0
48190,-0.613066,-0.711612,0.273917,0
48210,-0.616563,-0.696385,0.278626,0
48230,-0.621463,-0.684173,0.283014,0
48250,-0.624357,-0.670141,0.287399,0
48260,-0.626135,-0.654101,0.293131,0
48290,-0.629066,-0.636962,0.30137,0
48310,-0.634277,-0.621545,0.309404,0
48330,-0.640678,-0.607838,0.318291,0
48350,-0.648537,-0.593326,0.328379,0
48370,-0.654832,-0.578927,0.339589,0
48390,-0.66048,-0.564778,0.35178,0
48410,-0.667497,-0.551122,0.364416,0
48430,-0.676525,-0.538802,0.377918,0
48450,-0.686814,-0.52784,0.392681,0
48470,-0.695698,-0.518533,0.407326,0
48490,-0.704542,-0.50915,0.422155,0
48510,-0.717754,-0.500289,0.437652,0
48530,-0.732945,-0.492661,0.453237,0
48550,-0.744953,-0.485492,0.467797,0
48570,-0.755184,-0.478754,0.482745,0
48590,-0.765217,-0.472268,0.496929,0
48610,-0.778076,-0.466558,0.511881,0
48620,-0.790899,-0.460919,0.527003,0
48640,-0.801482,-0.454516,0.541577,0
48660,-0.811955,-0.449299,0.556554,0
48680,-0.822884,-0.445629,0.571498,0
48700,-0.832074,-0.441366,0.585613,0
48720,-0.839656,-0.4361,0.598957,0
48740,-0.847107,-0.430773,0.612816,0
48760,-0.857041,-0.426939,0.627218,0
48780,-0.867122,-0.424555,0.64218,0
48800,-0.876031,-0.422581,0.657154,0
48820,-0.886177,-0.421082,0.673609,0
48840,-0.898662,-0.420558,0.691124,0
48860,-0.912172,-0.42058,0.71032,0
48880,-0.924501,-0.423579,0.730179,0
48900,-0.936346,-0.428647,0.750072,0
48920,-0.948946,-0.433053,0.769826,0
48940,-0.96236,-0.437115,0.790254,0
48960,-0.975275,-0.442814,0.81065,0
48980,-0.986611,-0.450594,0.830881,0
49000,-0.998307,-0.458805,0.85133,0
49020,-1.01101,-0.467116,0.872433,0
49040,-1.02498,-0.477028,0.893715,0
49060,-1.03715,-0.488789,0.914122,0
49080,-1.04748,-0.50045,0.93433,0
49100,-1.05862,-0.511348,0.954749,0
49120,-1.0732,-0.522584,0.976156,0
49140,-1.08638,-0.535069,0.996844,0
49160,-1.09654,-0.546691,1.01572,0
49180,-1.10584,-0.556094,1.03265,0
49200,-1.11507,-0.565369,1.04994,0
49220,-1.12378,-0.57634,1.06652,0
49240,-1.13092,-0.587769,1.08186,0
49260,-1.1377,-0.597958,1.09746,0
49280,-1.14528,-0.608217,1.11333,0
49300,-1.15364,-0.619663,1.12937,0
49320,-1.16145,-0.631299,1.1449,0
49340,-1.16688,-0.642128,1.1579,0
49360,-1.16992,-0.652938,1.16665,0
49380,-1.1714,-0.665532,1.17419,0
49400,-1.17192,-0.680887,1.18081,0
49420,-1.17169,-0.696638,1.18675,0
49440,-1.1681,-0.714734,1.1884,0
49460,-1.16487,-0.733787,1.18848,0
49480,-1.16126,-0.755976,1.18815,0
49500,-1.15632,-0.781287,1.18568,0
49520,-1.15467,-0.806318,1.18379,0
49540,-1.15334,-0.832337,1.17917,0
49560,-1.15145,-0.860044,1.17207,0
49580,-1.14982,-0.888855,1.16282,0
49600,-1.14892,-0.91584,1.15202,0
49620,-1.15323,-0.939363,1.14424,0
49640,-1.1561,-0.961136,1.13438,0
49660,-1.15508,-0.983154,1.11973,0
49680,-1.15235,-1.00568,1.10121,0
49700,-1.15095,-1.02735,1.08248,0
49720,-1.1491,-1.04742,1.06302,0
49740,-1.1416,-1.06621,1.03833,0
49760,-1.12607,-1.08449,1.00434,0
49780,-1.10628,-1.10131,0.964522,0
49800,-1.08379,-1.11615,0.921756,0
49820,-1.05588,-1.12876,0.874814,0
49840,-1.02065,-1.13899,0.820619,0
49860,-0.980848,-1.14714,0.761797,0
49880,-0.937933,-1.15238,0.699912,0
49900,-0.895214,-1.15404,0.639792,0
49920,-0.853135,-1.15182,0.581682,0
49940,-0.812752,-1.14802,0.525298,0
49960,-0.773981,-1.14261,0.471103,0
49980,-0.739939,-1.13487,0.422755,0
50000,-0.7133,-1.12484,0.383999,0
50020,-0.69099,-1.11346,0.350343,0
50040,-0.670284,-1.10131,0.318789,0
50060,-0.649221,-1.08853,0.288316,0
50080,-0.629846,-1.07504,0.261277,0
50100,-0.615859,-1.06058,0.240852,0
50120,-0.605952,-1.04408,0.225506,0
50140,-0.59886,-1.02619,0.2142,0
50160,-0.594254,-1.00779,0.205909,0
50180,-0.592337,-0.989015,0.202157,0
50200,-0.591065,-0.970208,0.201723,0
50220,-0.591516,-0.953433,0.202591,0
50240,-0.593636,-0.937172,0.203912,0
50260,-0.597761,-0.919973,0.208258,0
50280,-0.605323,-0.901567,0.218366,0
50300,-0.615733,-0.882599,0.232864,0
50320,-0.625934,-0.86426,0.24432,0
50340,-0.636649,-0.845368,0.255851,0
50360,-0.646615,-0.825508,0.269126,0
50380,-0.657699,-0.805726,0.284413,0
50400,-0.670024,-0.786201,0.299797,0
50420,-0.685305,-0.768237,0.316988,0
50440,-0.69744,-0.753246,0.333744,0
50460,-0.708762,-0.739089,0.349793,0
50480,-0.724389,-0.727669,0.368054,0
50500,-0.744885,-0.717455,0.387324,0
50520,-0.7664,-0.707196,0.405688,0
50540,-0.784559,-0.696076,0.423274,0
50560,-0.799262,-0.68623,0.43946,0
50580,-0.813768,-0.67828,0.455994,0
50600,-0.827062,-0.671114,0.472378,0
50620,-0.840496,-0.662903,0.487821,0
50640,-0.855081,-0.653638,0.501802,0
50660,-0.869746,-0.644915,0.515879,0
50680,-0.884499,-0.637338,0.531727,0
50700,-0.899802,-0.629658,0.548295,0
50720,-0.917404,-0.620781,0.564791,0
50740,-0.936448,-0.61298,0.581536,0
50760,-0.955293,-0.606932,0.598238,0
50780,-0.97507,-0.600444,0.616009,0
50800,-0.995888,-0.593353,0.633956,0
50820,-1.01742,-0.587214,0.65351,0
50840,-1.03622,-0.583625,0.673332,0
50860,-1.05292,-0.583077,0.69387,0
50880,-1.07019,-0.58384,0.71589,0
50900,-1.08762,-0.584079,0.737333,0
50920,-1.10609,-0.586289,0.760879,0
50940,-1.12306,-0.590731,0.784618,0
50960,-1.13921,-0.594609,0.807768,0
50980,-1.15709,-0.59758,0.830852,0
51000,-1.17855,-0.600041,0.856389,0
51020,-1.2005,-0.604277,0.882453,0
51040,-1.21966,-0.608949,0.907822,0
51060,-1.23925,-0.614426,0.933554,0
51080,-1.25946,-0.620185,0.959636,0
51100,-1.27756,-0.62721,0.985035,0
51120,-1.29114,-0.63568,1.00862,0
51140,-1.30467,-0.643795,1.03209,0
51160,-1.32045,-0.652415,1.0572,0
51180,-1.33611,-0.66317,1.08188,0
51200,-1.3474,-0.674896,1.10414,0
51220,-1.35593,-0.686041,1.12447,0
51240,-1.36873,-0.694767,1.14657,0
51260,-1.38437,-0.70389,1.16919,0
51280,-1.4002,-0.71467,1.19223,0
51300,-1.41341,-0.72712,1.2144,0
51320,-1.42666,-0.738333,1.23602,0
51340,-1.44115,-0.74906,1.25654,0
51360,-1.45546,-0.761339,1.27699,0
51380,-1.46941,-0.775762,1.29779,0
51400,-1.4832,-0.790569,1.31726,0
51420,-1.49711,-0.804364,1.33546,0
51440,-1.5095,-0.819606,1.35244,0
51460,-1.52075,-0.83733,1.36943,0
51480,-1.53348,-0.855692,1.38767,0
51500,-1.54889,-0.874056,1.40348,0
51520,-1.56092,-0.893909,1.41548,0
51540,-1.57357,-0.916203,1.42732,0
51560,-1.58834,-0.937052,1.43959,0
51580,-1.60283,-0.957341,1.44812,0
51600,-1.61457,-0.977972,1.45221,0
51620,-1.62278,-1.00036,1.45257,0
51640,-1.63152,-1.02284,1.45241,0
51660,-1.64187,-1.0435,1.45178,0
51680,-1.64951,-1.06291,1.44664,0
51700,-1.65373,-1.08338,1.43861,0
51720,-1.65448,-1.10593,1.42718,0
51740,-1.65181,-1.12832,1.41254,0
51760,-1.64557,-1.15021,1.39335,0
51780,-1.63238,-1.17185,1.36671,0
51800,-1.6098,-1.19261,1.33137,0
51820,-1.58097,-1.21234,1.29082,0
51840,-1.54257,-1.23103,1.23988,0
51860,-1.49228,-1.24726,1.17727,0
51880,-1.43453,-1.26055,1.10702,0
51900,-1.36864,-1.27085,1.02846,0
51920,-1.29684,-1.27844,0.94483,0
51940,-1.22258,-1.2826,0.859116,0
51960,-1.14879,-1.28183,0.773592,0
51980,-1.07595,-1.27628,0.688759,0
52000,-1.00594,-1.26757,0.608342,0
52020,-0.94396,-1.25564,0.537736,0
52040,-0.890819,-1.24211,0.476281,0
52050,-0.84504,-1.22642,0.422302,0
52070,-0.807683,-1.20725,0.37722,0
52090,-0.777493,-1.18714,0.340621,0
52110,-0.749972,-1.16681,0.309036,0
52130,-0.730497,-1.14714,0.28688,0
52150,-0.718078,-1.12774,0.269337,0
52170,-0.710944,-1.10695,0.258676,0
52190,-0.708276,-1.08354,0.25499,0
52210,-0.706974,-1.0598,0.255297,0
52230,-0.704334,-1.03695,0.254453,0
52250,-0.706941,-1.01373,0.25708,0
52270,-0.714642,-0.989727,0.262439,0
52290,-0.722142,-0.964153,0.268273,0
52310,-0.729069,-0.937883,0.275037,0
52330,-0.738461,-0.914053,0.285182,0
52350,-0.74995,-0.891007,0.29628,0
52370,-0.759569,-0.866813,0.303467,0
52390,-0.769251,-0.840755,0.310035,0
52410,-0.781165,-0.816621,0.319585,0
52430,-0.796392,-0.795685,0.33185,0
52450,-0.813845,-0.774825,0.345069,0
52470,-0.832562,-0.756247,0.357618,0
52490,-0.850072,-0.740829,0.371039,0
52510,-0.870058,-0.729869,0.387338,0
52530,-0.892443,-0.721654,0.404625,0
52550,-0.913001,-0.71356,0.420633,0
52570,-0.932283,-0.705302,0.438388,0
52590,-0.950736,-0.699474,0.457212,0
52610,-0.969122,-0.694592,0.47622,0
52630,-0.986193,-0.690978,0.494532,0
52650,-1.00378,-0.687,0.514389,0
52670,-1.02199,-0.684989,0.535047,0
52690,-1.04189,-0.683706,0.557232,0
52710,-1.06039,-0.682458,0.578261,0
52730,-1.08176,-0.681575,0.602473,0
52750,-1.10542,-0.682318,0.629565,0
52770,-1.12926,-0.684327,0.657563,0
52790,-1.15294,-0.686174,0.686272,0
52810,-1.17838,-0.689639,0.717583,0
52830,-1.20346,-0.693628,0.749944,0
52850,-1.22977,-0.698565,0.783549,0
52870,-1.25609,-0.703506,0.817014,0
52890,-1.28276,-0.709445,0.851107,0
52910,-1.31143,-0.715632,0.886315,0
52930,-1.34034,-0.720961,0.92069,0
52950,-1.36876,-0.726516,0.954571,0
52970,-1.39701,-0.733223,0.988092,0
52990,-1.42128,-0.740808,1.01941,0
53010,-1.44351,-0.748411,1.0499,0
53030,-1.46441,-0.756803,1.07872,0
53050,-1.48352,-0.765439,1.10609,0
53070,-1.50131,-0.775179,1.13306,0
53090,-1.51762,-0.786722,1.15938,0
53110,-1.53184,-0.79888,1.18443,0
53130,-1.54505,-0.81211,1.20772,0
53150,-1.55778,-0.825159,1.23026,0
53170,-1.57075,-0.83865,1.25261,0
53190,-1.58418,-0.853604,1.27619,0
53210,-1.59774,-0.867832,1.29912,0
53230,-1.61009,-0.881699,1.32011,0
53250,-1.62065,-0.897649,1.34036,0
53270,-1.62873,-0.913704,1.35834,0
53290,-1.63857,-0.927316,1.37651,0
53310,-1.6509,-0.94063,1.395,0
53330,-1.66192,-0.955497,1.41257,0
53350,-1.66976,-0.971943,1.4288,0
53370,-1.6782,-0.987135,1.44569,0
53390,-1.69124,-0.999373,1.46396,0
53410,-1.70397,-1.01148,1.47998,0
53430,-1.71071,-1.0251,1.49274,0
53450,-1.71695,-1.03816,1.50567,0
53470,-1.72571,-1.04832,1.51877,0
53490,-1.73256,-1.0558,1.52788,2001
53510,-1.73797,-1.06369,1.53557,0
53530,-1.74059,-1.0711,1.54053,0
53550,-1.74325,-1.07609,1.5443,0
53570,-1.74692,-1.07951,1.54815,0
53590,-1.75004,-1.08305,1.55181,0
53610,-1.75103,-1.08575,1.55304,0
53630,-1.75252,-1.08697,1.55394,0
53650,-1.75493,-1.08662,1.55561,0
53670,-1.75918,-1.08648,1.55907,0
53690,-1.76176,-1.08584,1.5618,0
53710,-1.76208,-1.08518,1.56354,0
53730,-1.75928,-1.08652,1.56364,0
53750,-1.75509,-1.08916,1.56478,0
53770,-1.74706,-1.09265,1.56361,0
53790,-1.73311,-1.09414,1.55647,0
53810,-1.71201,-1.09204,1.54228,0
53830,-1.68241,-1.08843,1.52161,0
53850,-1.64363,-1.08529,1.49481,0
53870,-1.60276,-1.07987,1.46535,0
53890,-1.56093,-1.07001,1.4329,0
53910,-1.51073,-1.05678,1.3924,0
53930,-1.45288,-1.04048,1.34667,0
53950,-1.39843,-1.01961,1.30393,0
53970,-1.34935,-0.993981,1.26244,0
53990,-1.29442,-0.967587,1.21811,0
54010,-1.23783,-0.941453,1.17546,0
54030,-1.18964,-0.908394,1.1419,0
54040,-1.14659,-0.872832,1.10957,0
54060,-1.1058,-0.83931,1.08168,0
54080,-1.06849,-0.807078,1.05872,0
54100,-1.03962,-0.773392,1.04149,0
54120,-1.01473,-0.739881,1.02661,0
54140,-0.990096,-0.709924,1.01479,0
54160,-0.965578,-0.683965,1.00457,0
54180,-0.945679,-0.659831,0.996625,0
54200,-0.930084,-0.638629,0.991351,0
54220,-0.915148,-0.621249,0.987271,0
54240,-0.899984,-0.606736,0.983786,0
54260,-0.884117,-0.593725,0.978579,0
54280,-0.87159,-0.581372,0.974416,0
54300,-0.862997,-0.570679,0.971737,0
54320,-0.855849,-0.561554,0.970492,0
54340,-0.848581,-0.554397,0.9689,0
54360,-0.842115,-0.55023,0.966531,0
54380,-0.838092,-0.548315,0.965555,0
54400,-0.835863,-0.547121,0.965745,0
54420,-0.835948,-0.54609,0.966964,0
54440,-0.835526,-0.545075,0.967077,0
54460,-0.835133,-0.544553,0.967494,0
54480,-0.835734,-0.544456,0.969193,0
54500,-0.838007,-0.544284,0.971372,0
54520,-0.840148,-0.543552,0.972744,0
54540,-0.842598,-0.54306,0.974819,0
54560,-0.844472,-0.541613,0.977141,0
54580,-0.846803,-0.539507,0.979452,0
54600,-0.848608,-0.537437,0.980341,0
54620,-0.849737,-0.535031,0.980566,0
54640,-0.850094,-0.532607,0.980713,0
54660,-0.850863,-0.530992,0.981645,0
54680,-0.85188,-0.529885,0.982106,0
54700,-0.851867,-0.528707,0.982035,2000
54720,-0.852846,-0.527635,0.982354,0
54740,-0.853851,-0.526097,0.98212,0
54760,-0.854214,-0.524495,0.981841,0
54780,-0.855105,-0.523369,0.98118,0
54800,-0.856762,-0.522047,0.980488,0
54820,-0.8587,-0.520381,0.980784,0
54840,-0.859656,-0.5183,0.981113,0
54860,-0.859998,-0.516567,0.981918,0
54880,-0.860613,-0.515084,0.983589,0
54900,-0.861314,-0.514995,0.985496,0
54920,-0.862662,-0.515789,0.986609,0
54940,-0.863782,-0.516866,0.988493,0
54960,-0.86572,-0.51775,0.9923,0
54980,-0.867941,-0.51911,0.997269,0
55000,-0.870139,-0.52216,1.00245,0
55020,-0.871778,-0.526384,1.00732,0
55040,-0.874594,-0.530963,1.01315,0
55060,-0.878461,-0.535576,1.01982,0
55080,-0.882016,-0.540867,1.02635,0
55100,-0.884428,-0.547291,1.03256,0
55120,-0.887065,-0.554375,1.03868,0
55140,-0.890788,-0.561446,1.04586,0
55160,-0.894839,-0.568632,1.05335,0
55180,-0.899483,-0.576645,1.0611,0
55200,-0.904406,-0.585636,1.06818,0
55220,-0.909725,-0.594588,1.07596,0
55230,-0.921882,-0.611725,1.09371,0
55250,-0.927235,-0.621414,1.10165,0
55270,-0.932854,-0.631946,1.10991,0
55290,-0.939517,-0.641561,1.11847,0
55310,-0.947272,-0.651808,1.12789,0
55330,-0.956874,-0.662361,1.1378,0
55340,-0.966706,-0.673381,1.14792,0
55360,-0.975269,-0.684633,1.15647,0
55370,-0.982653,-0.695645,1.16396,0
55390,-0.990608,-0.705723,1.17082,0
55410,-0.998535,-0.715583,1.17701,0
55420,-1.00621,-0.726356,1.18092,0
55430,-1.01667,-0.749851,1.18065,0
55460,-1.0264,-0.790163,1.16708,0
55480,-1.02866,-0.804052,1.15793,0
55500,-1.02912,-0.817964,1.14659,0
55520,-1.02974,-0.832264,1.13409,0
55540,-1.02912,-0.84662,1.11849,0
55560,-1.0262,-0.860653,1.09968,0
55580,-1.02183,-0.87437,1.07748,0
55600,-1.01585,-0.887345,1.05195,0
55620,-1.00704,-0.899542,1.0235,0
55640,-0.997308,-0.911328,0.993477,0
55660,-0.985804,-0.920985,0.960666,0
55680,-0.973834,-0.928753,0.928075,0
55700,-0.959891,-0.935188,0.894367,0
55720,-0.944219,-0.941076,0.858773,0
55740,-0.927099,-0.945834,0.820741,0
55760,-0.907869,-0.948761,0.78185,0
55780,-0.887571,-0.949506,0.74194,0
55800,-0.865476,-0.948817,0.699645,0
55810,-0.823128,-0.941522,0.620542,0
55840,-0.769418,-0.912458,0.514987,0
55860,-0.752988,-0.901892,0.482786,0
55880,-0.738997,-0.891285,0.453228,0
55900,-0.728746,-0.880001,0.427006,0
55920,-0.719305,-0.867674,0.403295,0
55940,-0.707918,-0.855902,0.378969,0
55960,-0.697124,-0.846766,0.355447,0
55980,-0.688426,-0.838613,0.335967,0
56000,-0.679959,-0.829773,0.318336,0
56020,-0.671168,-0.819089,0.300358,0
56040,-0.661196,-0.80753,0.281867,0
56060,-0.649771,-0.795939,0.264061,0
56080,-0.638891,-0.782972,0.248102,0
56100,-0.62781,-0.768191,0.233903,0
56120,-0.618988,-0.751653,0.222591,0
56140,-0.614032,-0.735003,0.21471,0
56160,-0.608691,-0.716723,0.208963,0
56180,-0.605802,-0.697578,0.206732,0
56200,-0.604757,-0.678875,0.205936,0
56220,-0.605551,-0.660979,0.206937,0
56240,-0.60843,-0.643831,0.211339,0
56260,-0.612755,-0.625695,0.218667,0
56280,-0.618278,-0.606561,0.226903,0
56300,-0.62639,-0.589932,0.236331,0
56320,-0.633722,-0.576144,0.246402,0
56340,-0.641041,-0.562901,0.258026,0
56360,-0.648715,-0.549981,0.270046,0
56380,-0.656593,-0.538615,0.281952,0
56400,-0.665736,-0.528257,0.294025,0
56420,-0.674324,-0.519494,0.305933,0
56440,-0.680853,-0.512444,0.318205,0
56460,-0.685002,-0.505856,0.329872,0
56480,-0.689595,-0.499501,0.340832,0
56500,-0.6962,-0.493541,0.352019,0
56520,-0.702344,-0.488182,0.363013,0
56540,-0.706857,-0.481751,0.374128,0
56560,-0.711109,-0.474178,0.386026,0
56580,-0.718024,-0.468036,0.399714,0
56600,-0.725917,-0.46307,0.413387,0
56620,-0.734716,-0.45624,0.427885,0
56640,-0.742964,-0.447984,0.441733,0
56660,-0.750174,-0.44093,0.455082,0
56680,-0.758183,-0.436478,0.470238,0
56700,-0.765093,-0.431421,0.485061,0
56720,-0.770429,-0.424559,0.499004,0
56740,-0.775804,-0.420317,0.512517,0
56760,-0.780289,-0.418382,0.525867,0
56780,-0.786473,-0.4153,0.541029,0
56800,-0.794791,-0.411366,0.556524,0
56820,-0.804462,-0.409802,0.572098,0
56840,-0.813742,-0.409724,0.587915,0
56860,-0.823792,-0.408831,0.605896,0
56880,-0.835986,-0.407851,0.625085,0
56900,-0.847619,-0.40895,0.643026,0
56920,-0.859326,-0.410528,0.66096,0
56940,-0.870042,-0.413227,0.679418,0
56960,-0.881512,-0.415737,0.698492,0
56980,-0.8949,-0.419094,0.719205,0
57000,-0.908096,-0.425098,0.738108,0
57020,-0.921863,-0.430754,0.758871,0
57040,-0.936811,-0.43478,0.780193,0
57060,-0.954461,-0.439119,0.802671,0
57080,-0.970966,-0.445114,0.823663,0
57100,-0.984259,-0.45307,0.843855,0
57120,-0.996312,-0.460355,0.86427,0
57140,-1.01046,-0.467242,0.885707,0
57160,-1.02528,-0.476236,0.906841,0
57180,-1.03649,-0.487722,0.925933,0
57200,-1.04469,-0.499004,0.944258,0
57220,-1.05399,-0.50968,0.963296,0
57240,-1.06591,-0.520479,0.982789,0
57260,-1.0764,-0.532936,1.00144,0
57280,-1.08211,-0.545409,1.01831,0
57290,-1.08791,-0.558945,1.03551,0
57310,-1.09754,-0.572616,1.05339,0
57330,-1.10821,-0.587021,1.07158,0
57350,-1.11599,-0.603019,1.08791,0
57370,-1.11993,-0.620012,1.1007,0
57390,-1.12421,-0.636809,1.11309,0
57410,-1.13177,-0.654893,1.12648,0
57430,-1.13783,-0.674681,1.13821,0
57450,-1.14247,-0.694187,1.14829,0
57470,-1.14397,-0.714341,1.15478,0
57490,-1.14499,-0.736138,1.15981,0
57510,-1.14652,-0.759008,1.164,0
57530,-1.14645,-0.781598,1.16533,0
57550,-1.14544,-0.806462,1.16358,0
57570,-1.14667,-0.831358,1.16102,0
57590,-1.14689,-0.857193,1.1561,0
57610,-1.14536,-0.885372,1.14775,0
57630,-1.1433,-0.912857,1.13738,0
57650,-1.14203,-0.939201,1.12551,0
57670,-1.14265,-0.965493,1.11335,0
57690,-1.1453,-0.991907,1.10072,0
57710,-1.14515,-1.01766,1.08421,0
57730,-1.14116,-1.04039,1.06234,0
57750,-1.13613,-1.06167,1.03834,0
57770,-1.12891,-1.0819,1.01123,0
57790,-1.1167,-1.09985,0.978299,0
57810,-1.09856,-1.11525,0.938449,0
57830,-1.07577,-1.12867,0.893531,0
57850,-1.04646,-1.14006,0.842085,0
57870,-1.00924,-1.14755,0.783993,0
57890,-0.967344,-1.1516,0.722638,0
57910,-0.923891,-1.15317,0.660218,0
57930,-0.880148,-1.15191,0.596722,0
57950,-0.838263,-1.14639,0.53556,0
57970,-0.796459,-1.13809,0.477058,0
57990,-0.759264,-1.12822,0.425324,0
58010,-0.728559,-1.11697,0.379808,0
58030,-0.704275,-1.1041,0.341744,0
58050,-0.68214,-1.08991,0.307617,0
58070,-0.66257,-1.07574,0.277462,0
58090,-0.645098,-1.06175,0.250218,0
58110,-0.631018,-1.04699,0.226728,0
58130,-0.620507,-1.03115,0.209422,0
58150,-0.612397,-1.01423,0.195297,0
58170,-0.60361,-0.998813,0.180671,0
58190,-0.595765,-0.984776,0.167043,0
58210,-0.592658,-0.969047,0.158908,0
58230,-0.591638,-0.952271,0.155073,0
58250,-0.591415,-0.935722,0.152408,0
58270,-0.586867,-0.920921,0.146467,0
58290,-0.582448,-0.907665,0.14238,0
58310,-0.582265,-0.894532,0.142589,0
58330,-0.585193,-0.880662,0.146573,0
58350,-0.589257,-0.865103,0.151427,0
58370,-0.594922,-0.850236,0.157737,0
58390,-0.602917,-0.83624,0.165874,0
58410,-0.612949,-0.820241,0.175756,0
58430,-0.623547,-0.801951,0.187493,0
58450,-0.635481,-0.783687,0.201792,0
58470,-0.648438,-0.767136,0.215535,0
58490,-0.663698,-0.750922,0.230129,0
58510,-0.677687,-0.733423,0.243964,0
58530,-0.693104,-0.717508,0.261104,0
58550,-0.713437,-0.702831,0.281891,0
58570,-0.734273,-0.688489,0.300205,0
58590,-0.755526,-0.675746,0.319126,0
58610,-0.775589,-0.664768,0.340242,0
58630,-0.795227,-0.657541,0.361771,0
58650,-0.813358,-0.651523,0.381709,0
58670,-0.82899,-0.644366,0.400229,0
58690,-0.843341,-0.638241,0.419537,0
58710,-0.8589,-0.632625,0.439637,0
58730,-0.873794,-0.626623,0.458418,0
58750,-0.886788,-0.619802,0.475767,0
58770,-0.901393,-0.614117,0.495202,0
58790,-0.917081,-0.608691,0.514873,0
58810,-0.931742,-0.602154,0.532114,0
58830,-0.94882,-0.595473,0.551082,0
58850,-0.966898,-0.592088,0.571585,0
58870,-0.983149,-0.58911,0.591809,0
58890,-0.997189,-0.587233,0.610546,0
58910,-1.01466,-0.585437,0.632317,0
58930,-1.03355,-0.584838,0.65514,0
58950,-1.05205,-0.585153,0.677856,0
58970,-1.0718,-0.585335,0.701812,0
58990,-1.09484,-0.587849,0.729284,0
59010,-1.11964,-0.590195,0.757909,0
59030,-1.14414,-0.593891,0.786141,0
59050,-1.16841,-0.598447,0.81531,0
59070,-1.19183,-0.604508,0.845239,0
59090,-1.21509,-0.612632,0.876054,0
59110,-1.23695,-0.621124,0.905544,0
59130,-1.25464,-0.631015,0.932029,0
59150,-1.26988,-0.641505,0.958883,0
59170,-1.28741,-0.653028,0.986962,0
59190,-1.30524,-0.664989,1.01431,0
59210,-1.32078,-0.677468,1.04021,0
59230,-1.33619,-0.690184,1.0662,0
59250,-1.35538,-0.703514,1.0941,0
59270,-1.3753,-0.716116,1.12138,0
59280,-1.39355,-0.726889,1.14578,0
59300,-1.40959,-0.737474,1.16926,0
59320,-1.42572,-0.749239,1.19416,0
59340,-1.44346,-0.761796,1.21924,0
59360,-1.46002,-0.773561,1.24268,0
59380,-1.47452,-0.786009,1.26488,0
59400,-1.48755,-0.801273,1.28746,0
59420,-1.49957,-0.818141,1.30977,0
59440,-1.5122,-0.833253,1.32974,0
59460,-1.5255,-0.849067,1.34813,0
59480,-1.53873,-0.866875,1.36666,0
59500,-1.54852,-0.886401,1.38184,0
59520,-1.55879,-0.905191,1.39632,0
59540,-1.57119,-0.922754,1.40912,0
59560,-1.58395,-0.941592,1.42084,0
59580,-1.59307,-0.961823,1.4283,0
59600,-1.60086,-0.982077,1.43344,0
59620,-1.60944,-1.00243,1.43757,0
59640,-1.61776,-1.02368,1.43993,0
59660,-1.62655,-1.04494,1.44081,0
59680,-1.63476,-1.0662,1.43959,0
59700,-1.6411,-1.08763,1.43637,0
59720,-1.64439,-1.10952,1.43021,0
59740,-1.64478,-1.13199,1.42039,0
59760,-1.64361,-1.15339,1.40677,0
59780,-1.63936,-1.17359,1.38883,0
59800,-1.62697,-1.19297,1.36221,0
59820,-1.60573,-1.21268,1.32746,0
59840,-1.58159,-1.23057,1.28952,0
59860,-1.55159,-1.24713,1.24445,0
59880,-1.5118,-1.26167,1.19006,0
59900,-1.46344,-1.274,1.12742,0
59920,-1.40792,-1.28529,1.0581,0
59940,-1.34582,-1.2947,0.982244,0
59960,-1.27853,-1.30158,0.901167,0
59980,-1.20777,-1.30527,0.817381,0
60000,-1.13618,-1.30372,0.733592,0
60020,-1.0654,-1.2998,0.651213,0
60040,-0.997545,-1.29257,0.573447,0
60060,-0.933465,-1.28297,0.500047,0
60080,-0.879116,-1.27046,0.436342,0
60100,-0.837427,-1.25436,0.384673,0
60120,-0.801766,-1.23682,0.341224,0
60150,-0.740371,-1.1995,0.269389,0
60170,-0.720643,-1.17846,0.245518,0
60190,-0.706866,-1.15657,0.227152,0
60210,-0.699027,-1.13446,0.215044,0
60230,-0.696797,-1.1114,0.209553,0
60250,-0.697813,-1.08716,0.207584,0
60270,-0.70258,-1.064,0.207836,0
60290,-0.708048,-1.04117,0.210801,0
60310,-0.715959,-1.01796,0.216931,0
60330,-0.728396,-0.995021,0.226497,0
60350,-0.74014,-0.972882,0.23506,0
60370,-0.752373,-0.950658,0.244896,0
60390,-0.763956,-0.928774,0.254832,0
60410,-0.775234,-0.907978,0.263912,0
60430,-0.78885,-0.890441,0.274375,0
60450,-0.804101,-0.871714,0.287213,0
60470,-0.814629,-0.851292,0.298208,0
60490,-0.818312,-0.834078,0.305691,0
60510,-0.825478,-0.818967,0.315509,0
60530,-0.838631,-0.804504,0.32749,0
60550,-0.852095,-0.790843,0.339795,0
60570,-0.863144,-0.778841,0.352037,0
60590,-0.873005,-0.767498,0.36512,0
60610,-0.885785,-0.758197,0.379667,0
60630,-0.899829,-0.751356,0.39448,0
60650,-0.913863,-0.74505,0.411034,0
60670,-0.926792,-0.739798,0.428043,0
60690,-0.941661,-0.73512,0.445307,0
60710,-0.955939,-0.731653,0.461155,0
60730,-0.971825,-0.728078,0.480019,0
60750,-0.987661,-0.724873,0.499803,0
60770,-1.00504,-0.723244,0.518445,0
60790,-1.02183,-0.721449,0.535549,0
60810,-1.03823,-0.718434,0.554236,0
60830,-1.05474,-0.715963,0.574744,0
60850,-1.06945,-0.714749,0.591489,0
60870,-1.08625,-0.714513,0.60964,0
60890,-1.10322,-0.713808,0.628842,0
60910,-1.11942,-0.712927,0.649256,0
60930,-1.13438,-0.713852,0.668612,0
60950,-1.15004,-0.715136,0.688508,0
60970,-1.16834,-0.717396,0.710158,0
60990,-1.18843,-0.719746,0.733503,0
61010,-1.20938,-0.722651,0.757963,0
61030,-1.23006,-0.726585,0.782275,0
61050,-1.25205,-0.731489,0.807861,0
61070,-1.27556,-0.736418,0.835064,0
61090,-1.29852,-0.742228,0.861493,0
61110,-1.32107,-0.748019,0.888653,0
61130,-1.34287,-0.754694,0.91609,0
61150,-1.3624,-0.762903,0.942527,0
61170,-1.38122,-0.770852,0.969542,0
61190,-1.40146,-0.779364,0.996826,0
61210,-1.42128,-0.78804,1.02282,0
61230,-1.44024,-0.796056,1.04871,0
61250,-1.45831,-0.804231,1.07418,0
61270,-1.47704,-0.812958,1.10068,0
61290,-1.49692,-0.821987,1.12823,0
61310,-1.51676,-0.831169,1.15589,0
61330,-1.53531,-0.840591,1.1829,0
61350,-1.5534,-0.84947,1.20833,0
61370,-1.57219,-0.858179,1.23404,0
61390,-1.59047,-0.86728,1.25868,0
61410,-1.60608,-0.8777,1.282,0
61430,-1.61812,-0.887335,1.30406,0
61450,-1.62933,-0.898166,1.32522,0
61470,-1.63993,-0.910773,1.34645,0
61490,-1.64879,-0.923746,1.36709,0
61510,-1.65732,-0.936413,1.38695,0
61530,-1.66605,-0.949774,1.40596,0
61550,-1.67323,-0.964295,1.42432,0
61570,-1.6778,-0.980419,1.44178,0
61590,-1.68427,-0.995292,1.46029,0
61610,-1.69283,-1.00887,1.47725,0
61630,-1.69997,-1.02183,1.49191,0
61650,-1.70467,-1.0356,1.50565,0
61670,-1.71048,-1.04981,1.521,0
61690,-1.71787,-1.06143,1.5345,0
61710,-1.72411,-1.07224,1.54483,0
61730,-1.72659,-1.08276,1.55158,2001
61750,-1.72754,-1.09082,1.55645,0
61770,-1.73047,-1.09627,1.56038,0
61790,-1.73379,-1.10116,1.56345,0
61810,-1.73484,-1.10505,1.5643,0
61830,-1.73339,-1.10755,1.56211,0
61850,-1.73069,-1.10887,1.55775,0
61870,-1.72852,-1.10972,1.55443,0
61890,-1.72738,-1.11081,1.55268,0
61910,-1.72552,-1.11145,1.55102,0
61930,-1.72377,-1.11105,1.54989,0
61950,-1.72289,-1.11009,1.55077,0
61970,-1.72148,-1.11069,1.55169,0
61990,-1.71497,-1.11103,1.54892,0
62010,-1.70041,-1.1105,1.54111,0
62030,-1.6812,-1.10892,1.53014,0
62050,-1.65761,-1.1063,1.51504,0
62070,-1.62403,-1.10309,1.48967,0
62090,-1.57828,-1.09906,1.45472,0
62110,-1.52612,-1.09328,1.41564,0
62130,-1.47557,-1.08062,1.37731,0
62150,-1.42412,-1.06095,1.33417,0
62170,-1.36301,-1.03968,1.28167,0
62190,-1.29539,-1.01843,1.2253,0
62210,-1.23755,-0.992201,1.17847,0
62230,-1.18533,-0.960624,1.13347,0
62250,-1.13467,-0.927089,1.09254,0
62270,-1.0841,-0.893481,1.05463,0
62290,-1.03981,-0.857299,1.02341,0
62310,-1.00418,-0.819785,0.996846,0
62340,-0.936816,-0.755488,0.953081,0
62360,-0.910561,-0.72506,0.937916,0
62380,-0.890226,-0.69793,0.92785,0
62400,-0.873571,-0.675,0.922128,0
62420,-0.859284,-0.654961,0.918956,0
62440,-0.846376,-0.63743,0.916076,0
62460,-0.835743,-0.622777,0.913468,0
62480,-0.829419,-0.611053,0.913515,0
62500,-0.828423,-0.600548,0.916365,0
62520,-0.831375,-0.590612,0.919451,0
62540,-0.832733,-0.582485,0.920415,0
62560,-0.833316,-0.577221,0.921714,0
62580,-0.834765,-0.573186,0.923552,0
62600,-0.836774,-0.569914,0.925048,0
62620,-0.838236,-0.567584,0.924894,0
62640,-0.839162,-0.565877,0.924974,0
62660,-0.840048,-0.56443,0.92461,0
62680,-0.840247,-0.562569,0.923964,0
62690,-0.839257,-0.560008,0.922936,0
62710,-0.838237,-0.557841,0.922264,0
62730,-0.837553,-0.555751,0.921232,0
62750,-0.837213,-0.552932,0.919966,0
62770,-0.835684,-0.549862,0.918708,0
62790,-0.833337,-0.547027,0.916626,0
62810,-0.83061,-0.544979,0.913945,0
62830,-0.829352,-0.543876,0.912317,0
62850,-0.829504,-0.543116,0.911395,0
62870,-0.829861,-0.541761,0.910096,0
62890,-0.830098,-0.539939,0.908785,0
62910,-0.83077,-0.538667,0.908099,0
62930,-0.832045,-0.537857,0.908101,0
62950,-0.833525,-0.536239,0.907626,0
62970,-0.834758,-0.534146,0.906617,0
62990,-0.836045,-0.531931,0.90586,0
63010,-0.837139,-0.529995,0.905897,0
63030,-0.837575,-0.528063,0.905773,2000
63050,-0.83837,-0.525605,0.905819,0
63070,-0.838914,-0.522968,0.905216,0
63090,-0.839712,-0.520565,0.904265,0
63110,-0.840227,-0.518599,0.903719,0
63130,-0.840947,-0.517082,0.904966,0
63150,-0.84182,-0.516168,0.907054,0
63170,-0.841879,-0.515038,0.908935,0
63190,-0.842797,-0.513775,0.911579,0
63210,-0.846033,-0.513113,0.915028,0
63230,-0.848887,-0.513829,0.918768,0
63250,-0.85096,-0.516645,0.922583,0
63270,-0.853572,-0.519378,0.927934,0
63290,-0.856994,-0.522195,0.933889,0
63310,-0.859984,-0.525979,0.938588,0
63330,-0.862157,-0.530609,0.942947,0
63350,-0.863654,-0.537277,0.947569,0
63370,-0.866231,-0.544572,0.953542,0
63390,-0.870963,-0.551095,0.961483,0
63410,-0.875092,-0.558509,0.968981,0
63430,-0.878224,-0.568137,0.974817,0
63450,-0.881792,-0.578439,0.980571,0
63470,-0.887874,-0.588257,0.988452,0
63490,-0.896602,-0.597809,0.997807,0
63510,-0.905254,-0.608514,1.00559,0
63530,-0.912769,-0.620238,1.01231,0
63550,-0.919248,-0.632999,1.01866,0
63570,-0.927087,-0.645286,1.02561,0
63590,-0.937825,-0.656502,1.03367,0
63610,-0.950081,-0.668816,1.04305,0
63630,-0.963038,-0.681267,1.05285,0
63650,-0.975969,-0.693313,1.06219,0
63660,-0.986699,-0.705449,1.07011,0
63680,-0.995323,-0.718532,1.0762,0
63710,-1.02039,-0.761744,1.09289,0
63740,-1.03414,-0.793986,1.10242,0
63760,-1.0401,-0.811643,1.10395,0
63780,-1.04702,-0.829154,1.10408,0
63800,-1.05257,-0.846838,1.1013,0
63820,-1.05552,-0.864455,1.09508,0
63840,-1.057,-0.88285,1.08552,0
63860,-1.05857,-0.901135,1.07182,0
63880,-1.05875,-0.919012,1.05383,0
63900,-1.05626,-0.935339,1.03291,0
63920,-1.05292,-0.950559,1.00923,0
63940,-1.04635,-0.96553,0.980057,0
63960,-1.03593,-0.980389,0.945056,0
63980,-1.02197,-0.993986,0.905485,0
64000,-1.00493,-1.00486,0.862162,0
64020,-0.9848,-1.01317,0.816523,0
64060,-0.909219,-1.02367,0.666032,0
64080,-0.878611,-1.0222,0.611871,0
64100,-0.84937,-1.0187,0.561753,0
64120,-0.822349,-1.01306,0.514719,0
64140,-0.794994,-1.00556,0.46662,0
64160,-0.769115,-0.994072,0.42156,0
64180,-0.747405,-0.981523,0.383397,0
64200,-0.729208,-0.966233,0.351648,0
64220,-0.71369,-0.949656,0.321005,0
64240,-0.699109,-0.931721,0.2904,0
64260,-0.684781,-0.913611,0.262608,0
64280,-0.670454,-0.895678,0.237095,0
64300,-0.657313,-0.878838,0.216826,0
64320,-0.644232,-0.861553,0.196667,0
64340,-0.63332,-0.844947,0.179019,0
64360,-0.624444,-0.827784,0.163338,0
64380,-0.61688,-0.8122,0.150097,0
64400,-0.60987,-0.795841,0.140917,0
64420,-0.605317,-0.779381,0.134751,0
64440,-0.602107,-0.761323,0.129831,0
64460,-0.598682,-0.744459,0.126077,0
64480,-0.598752,-0.728551,0.125619,0
64500,-0.599897,-0.710617,0.127342,0
64520,-0.602123,-0.691312,0.131812,0
64540,-0.607342,-0.674358,0.138631,0
64560,-0.612418,-0.659754,0.145268,0
64580,-0.617883,-0.642475,0.151998,0
64600,-0.624644,-0.624475,0.162254,0
64610,-0.631168,-0.6075,0.174136,0
64630,-0.639074,-0.592915,0.186728,0
64650,-0.644693,-0.57832,0.197415,0
64670,-0.650256,-0.564345,0.209521,0
64690,-0.654557,-0.552854,0.222299,0
64710,-0.660239,-0.542333,0.235437,0
64730,-0.667671,-0.531439,0.247815,0
64750,-0.676852,-0.522195,0.26118,0
64770,-0.685746,-0.514353,0.276261,0
64790,-0.693181,-0.507599,0.292479,0
64810,-0.700454,-0.501464,0.307394,0
64830,-0.709681,-0.495863,0.322325,0
64850,-0.720244,-0.490706,0.338634,0
64870,-0.730588,-0.484461,0.355234,0
64890,-0.7411,-0.476211,0.370744,0
64910,-0.750725,-0.469254,0.385035,0
64930,-0.760124,-0.463137,0.400959,0
64950,-0.769542,-0.456314,0.417254,0
64970,-0.779176,-0.449328,0.432319,0
64990,-0.789863,-0.444763,0.448416,0
65010,-0.802147,-0.441485,0.466877,0
65030,-0.814434,-0.437653,0.485273,0
65050,-0.828711,-0.434771,0.505272,0
65070,-0.844248,-0.433936,0.525284,0
65090,-0.860033,-0.43362,0.54663,0
65110,-0.875498,-0.433166,0.569117,0
65130,-0.892395,-0.433534,0.591743,0
65150,-0.911027,-0.435546,0.614299,0
65170,-0.929759,-0.439476,0.637532,0
65190,-0.947202,-0.444257,0.660688,0
65210,-0.963313,-0.448211,0.683745,0
65230,-0.979495,-0.452686,0.706597,0
65250,-0.995568,-0.45951,0.729096,0
65270,-1.00909,-0.467888,0.749753,0
65290,-1.02265,-0.475953,0.771297,0
65310,-1.03797,-0.483708,0.793604,0
65330,-1.05266,-0.493197,0.814568,0
65350,-1.06272,-0.505525,0.833877,0
65370,-1.07102,-0.517225,0.852602,0
65390,-1.08185,-0.528814,0.870968,0
65410,-1.09327,-0.540888,0.88861,0
65430,-1.10309,-0.553007,0.905674,0
65450,-1.10933,-0.56466,0.921665,0
65470,-1.11783,-0.575184,0.938991,0
65490,-1.12908,-0.585323,0.957226,0
65510,-1.14005,-0.596948,0.975593,0
65530,-1.14988,-0.611,0.994519,0
65550,-1.15982,-0.62362,1.01401,0
65570,-1.17115,-0.635306,1.03246,0
65590,-1.18244,-0.647264,1.04968,0
65610,-1.19187,-0.661247,1.0666,0
65630,-1.20037,-0.676367,1.08169,0
65650,-1.20973,-0.690164,1.09583,0
65670,-1.21668,-0.70376,1.10705,0
65690,-1.22006,-0.719155,1.11652,0
65710,-1.22188,-0.735854,1.12505,0
65730,-1.22472,-0.751906,1.13313,0
65750,-1.22852,-0.766937,1.1407,0
65770,-1.23136,-0.782207,1.14598,0
65790,-1.23008,-0.798877,1.14834,0
65810,-1.22953,-0.815232,1.15067,0
65830,-1.23265,-0.830601,1.15402,0
65850,-1.23547,-0.845644,1.15439,0
65870,-1.23658,-0.863135,1.15254,0
65890,-1.23894,-0.880983,1.15159,0
65910,-1.24491,-0.899203,1.15071,0
65930,-1.25215,-0.917606,1.1494,0
65950,-1.25928,-0.936068,1.14602,0
65970,-1.26322,-0.956398,1.13754,0
65990,-1.26593,-0.976742,1.12743,0
66010,-1.26882,-0.996379,1.11656,0
66030,-1.26925,-1.01589,1.1015,0
66050,-1.26531,-1.03579,1.0805,0
66070,-1.25923,-1.05447,1.05667,0
66090,-1.25031,-1.07196,1.02958,0
66110,-1.23639,-1.08913,0.996989,0
66130,-1.21659,-1.10462,0.957807,0
66150,-1.19173,-1.11805,0.913844,0
66170,-1.16062,-1.12863,0.864207,0
66190,-1.12402,-1.13655,0.80884,0
66210,-1.08497,-1.1419,0.751622,0
66230,-1.04536,-1.14405,0.693713,0
66250,-1.00345,-1.14401,0.633666,0
66270,-0.959116,-1.14221,0.571964,0
66290,-0.913436,-1.13781,0.510076,0
66310,-0.872793,-1.12999,0.454806,0
66330,-0.834938,-1.12041,0.403194,0
66350,-0.798914,-1.10915,0.354423,0
66370,-0.763749,-1.0973,0.307674,0
66390,-0.731622,-1.08443,0.265936,0
66410,-0.705702,-1.06963,0.231895,0
66430,-0.685253,-1.05347,0.202461,0
66450,-0.668236,-1.03754,0.175629,0
66470,-0.651328,-1.02152,0.151134,0
66490,-0.638135,-1.00426,0.131825,0
66510,-0.627565,-0.985748,0.116825,0
66530,-0.620455,-0.965786,0.106455,0
66550,-0.617077,-0.946654,0.0983771,0
66570,-0.615827,-0.927995,0.0934973,0
66590,-0.612517,-0.909077,0.09031,0
66610,-0.610996,-0.890429,0.0912301,0
66630,-0.612792,-0.87214,0.0938501,0
66650,-0.617827,-0.853426,0.097869,0
66670,-0.622631,-0.834275,0.104175,0
66690,-0.625262,-0.814048,0.11194,0
66710,-0.629008,-0.793082,0.121827,0
66730,-0.637251,-0.772493,0.130881,0
66750,-0.64905,-0.753056,0.140998,0
66770,-0.658549,-0.73507,0.151947,0
66790,-0.665255,-0.716099,0.163408,0
66810,-0.672915,-0.698769,0.173312,0
66830,-0.682269,-0.682401,0.183955,0
66850,-0.691996,-0.667131,0.197195,0
66870,-0.698603,-0.653824,0.210388,0
66890,-0.704657,-0.640957,0.222881,0
66910,-0.711998,-0.629086,0.234547,0
66930,-0.721438,-0.618851,0.247791,0
66950,-0.730378,-0.608818,0.261674,0
66970,-0.738123,-0.597856,0.274664,0
66990,-0.746243,-0.588373,0.287519,0
67010,-0.756626,-0.579534,0.301531,0
67030,-0.766876,-0.570599,0.316205,0
67050,-0.774386,-0.563261,0.3306,0
67070,-0.783067,-0.557621,0.346247,0
67090,-0.795376,-0.552321,0.36305,0
67110,-0.808489,-0.547211,0.379305,0
67130,-0.822049,-0.541996,0.396074,0
67150,-0.836124,-0.538334,0.41479,0
67170,-0.851714,-0.535929,0.43402,0
67190,-0.868314,-0.534518,0.453716,0
67210,-0.884368,-0.534819,0.473653,0
67230,-0.898235,-0.535088,0.493347,0
67250,-0.911667,-0.537589,0.513651,0
67270,-0.929039,-0.542242,0.536903,0
67290,-0.948253,-0.546121,0.560097,0
67310,-0.968858,-0.549315,0.583052,0
67330,-0.991994,-0.552893,0.607999,0
67350,-1.01579,-0.557908,0.632938,0
67370,-1.04064,-0.563793,0.65883,0
67390,-1.06682,-0.568201,0.68448,0
67410,-1.09368,-0.572621,0.710698,0
67430,-1.12057,-0.578136,0.738562,0
67450,-1.14409,-0.585878,0.765684,0
67470,-1.16559,-0.593791,0.791875,0
67490,-1.18839,-0.600634,0.819126,0
67510,-1.21085,-0.608228,0.845796,0
67530,-1.23004,-0.617212,0.870786,0
67550,-1.24664,-0.627512,0.895931,0
67570,-1.26336,-0.63816,0.921341,0
67590,-1.27898,-0.648827,0.945312,0
67610,-1.29351,-0.660505,0.96871,0
67630,-1.30651,-0.673188,0.991644,0
67650,-1.31809,-0.686552,1.01477,0
67670,-1.33114,-0.699137,1.03854,0
67690,-1.34495,-0.711937,1.06041,0
67710,-1.35584,-0.72602,1.0812,0
67730,-1.36594,-0.741353,1.10337,0
67750,-1.37841,-0.755712,1.12719,0
67770,-1.39323,-0.769051,1.15086,0
67790,-1.4062,-0.783377,1.17266,0
67810,-1.41803,-0.798749,1.19479,0
67830,-1.43257,-0.814112,1.2188,0
67850,-1.45096,-0.827474,1.24298,0
67870,-1.47012,-0.839864,1.26523,0
67890,-1.48653,-0.854473,1.28554,0
67910,-1.50174,-0.87051,1.30532,0
67930,-1.51866,-0.885064,1.32516,0
67950,-1.53483,-0.901011,1.34233,0
67970,-1.54889,-0.918639,1.35624,0
67990,-1.56496,-0.937006,1.37144,0
