Timestamp, Angle x, Angle y, Angle z, Marker
30,-0.598673,-0.341129,-2.59593,0
40,-0.596347,-0.344361,-2.59837,0
80,-0.59039,-0.353022,-2.60709,0
100,-0.589895,-0.354937,-2.60985,0
120,-0.589121,-0.356605,-2.61245,0
140,-0.587851,-0.357717,-2.61463,0
160,-0.587137,-0.358449,-2.6158,0
170,-0.586948,-0.358354,-2.61582,0
170,-0.586778,-0.357863,-2.61483,0
210,-0.586919,-0.356839,-2.61307,0
230,-0.586217,-0.355285,-2.61122,0
250,-0.58545,-0.353315,-2.60923,0
270,-0.584845,-0.351407,-2.60659,0
290,-0.583917,-0.349552,-2.60382,0
310,-0.582742,-0.348469,-2.60124,0
330,-0.58206,-0.347998,-2.59928,0
350,-0.581665,-0.348128,-2.59731,0
370,-0.581113,-0.348377,-2.59564,0
390,-0.58075,-0.348661,-2.59428,0
410,-0.580942,-0.34875,-2.59318,0
430,-0.581216,-0.348872,-2.59229,0
450,-0.581647,-0.348878,-2.59164,0
470,-0.582134,-0.348945,-2.59129,0
490,-0.582668,-0.349016,-2.59149,0
510,-0.582553,-0.348778,-2.59208,0
530,-0.582105,-0.34818,-2.59307,0
550,-0.581177,-0.347632,-2.59438,0
580,-0.57921,-0.345201,-2.59803,0
600,-0.578135,-0.343729,-2.59986,0
610,-0.576786,-0.342932,-2.60143,0
640,-0.574396,-0.341727,-2.6058,0
660,-0.574098,-0.341042,-2.60767,0
680,-0.574142,-0.33998,-2.6094,0
700,-0.574345,-0.338567,-2.61099,0
720,-0.574759,-0.336806,-2.61243,0
760,-0.574897,-0.333147,-2.6147,0
780,-0.574737,-0.331786,-2.61563,0
800,-0.574343,-0.330743,-2.61703,0
820,-0.573716,-0.3299,-2.6185,0
840,-0.573459,-0.329363,-2.61937,0
860,-0.573471,-0.329602,-2.6203,0
880,-0.572835,-0.330919,-2.62177,0
900,-0.572816,-0.332049,-2.62403,0
920,-0.573603,-0.332384,-2.62657,0
940,-0.574909,-0.332362,-2.62975,0
960,-0.575519,-0.332356,-2.63443,0
980,-0.575076,-0.332653,-2.64103,0
1000,-0.573767,-0.333106,-2.64914,0
1030,-0.572601,-0.331283,-2.6684,0
1050,-0.572904,-0.328979,-2.67946,0
1070,-0.572723,-0.326682,-2.69166,0
1090,-0.571297,-0.324819,-2.70611,0
1110,-0.570598,-0.322753,-2.72126,0
1130,-0.570689,-0.320277,-2.73624,0
1150,-0.567938,-0.318032,-2.7518,0
1170,-0.561407,-0.317457,-2.76766,0
1190,-0.556148,-0.317654,-2.78234,0
1210,-0.5549,-0.317334,-2.79472,0
1230,-0.557688,-0.316514,-2.80408,0
1250,-0.560777,-0.316199,-2.81083,0
1270,-0.562392,-0.3163,-2.81496,0
1290,-0.565208,-0.31729,-2.8155,0
1310,-0.571425,-0.319149,-2.81294,0
1330,-0.579567,-0.320986,-2.80823,0
1350,-0.588023,-0.322061,-2.80197,0
1370,-0.597397,-0.322452,-2.79432,0
1390,-0.607884,-0.321641,-2.78593,0
1410,-0.618467,-0.320379,-2.77628,0
1430,-0.627857,-0.319678,-2.76558,0
1450,-0.63636,-0.319143,-2.75487,0
1470,-0.644834,-0.318897,-2.74442,0
1490,-0.652821,-0.31919,-2.73396,0
1510,-0.659719,-0.319962,-2.72426,0
1530,-0.665872,-0.320964,-2.71548,0
1550,-0.672099,-0.322294,-2.70791,0
1570,-0.678748,-0.32327,-2.70122,0
1590,-0.685381,-0.323079,-2.6944,0
1610,-0.688936,-0.323193,-2.68698,0
1630,-0.689246,-0.323467,-2.68,0
1650,-0.690631,-0.323312,-2.67356,0
1670,-0.696023,-0.322335,-2.66521,0
1690,-0.702773,-0.321927,-2.65365,0
1710,-0.709211,-0.321824,-2.64012,0
1730,-0.716951,-0.321719,-2.62713,0
1750,-0.727157,-0.320976,-2.61484,0
1770,-0.739088,-0.319845,-2.60081,0
1790,-0.748776,-0.3189,-2.58507,0
1810,-0.754559,-0.318471,-2.57131,0
1830,-0.758419,-0.316605,-2.56071,0
1850,-0.76105,-0.314023,-2.55252,0
1870,-0.761645,-0.31222,-2.54553,0
1890,-0.758821,-0.312708,-2.54016,0
1910,-0.754711,-0.314722,-2.5373,0
1940,-0.737755,-0.322365,-2.5433,0
1960,-0.729367,-0.323496,-2.54753,0
1980,-0.718045,-0.323279,-2.55197,0
2000,-0.704916,-0.321912,-2.55505,0
2020,-0.693891,-0.32138,-2.55624,0
2040,-0.686398,-0.322295,-2.5577,0
2060,-0.681288,-0.324255,-2.56039,0
2080,-0.675996,-0.32705,-2.56525,0
2100,-0.66899,-0.329848,-2.57206,0
2120,-0.660975,-0.331545,-2.57873,0
2140,-0.651766,-0.332679,-2.58414,0
2160,-0.641186,-0.333296,-2.58869,0
2180,-0.62921,-0.334067,-2.59376,0
2200,-0.617873,-0.335009,-2.59916,0
2220,-0.607451,-0.335853,-2.60463,0
2240,-0.598518,-0.3366,-2.60908,0
2260,-0.592137,-0.337354,-2.61171,0
2280,-0.587707,-0.337768,-2.61366,0
2300,-0.582783,-0.337964,-2.61655,0
2320,-0.578352,-0.337994,-2.62077,0
2340,-0.574494,-0.337885,-2.62503,0
2360,-0.570852,-0.33783,-2.62917,0
2380,-0.567643,-0.337308,-2.63297,0
2400,-0.564337,-0.336537,-2.63683,0
2420,-0.560314,-0.336169,-2.6406,0
2440,-0.556557,-0.335862,-2.64382,0
2460,-0.553986,-0.335571,-2.64595,0
2480,-0.552835,-0.335162,-2.64711,0
2500,-0.553096,-0.33449,-2.64789,0
2520,-0.554165,-0.334123,-2.64786,0
2540,-0.554739,-0.334268,-2.64729,0
2560,-0.555615,-0.334841,-2.64598,0
2580,-0.556336,-0.335524,-2.64497,0
2600,-0.557281,-0.335922,-2.64414,0
2620,-0.558522,-0.336064,-2.64357,0
2640,-0.559499,-0.335719,-2.64297,0
2660,-0.559657,-0.335016,-2.64246,0
2680,-0.559598,-0.334361,-2.64193,0
2700,-0.559035,-0.333954,-2.64147,0
2720,-0.558706,-0.333643,-2.64097,0
2740,-0.558643,-0.333345,-2.64027,0
2750,-0.558373,-0.332981,-2.63969,0
2770,-0.557619,-0.332653,-2.63931,0
2790,-0.556447,-0.332607,-2.63921,0
2810,-0.555067,-0.332494,-2.63924,0
2830,-0.553796,-0.332442,-2.63957,0
2840,-0.552844,-0.332581,-2.63987,0
2900,-0.549431,-0.332294,-2.64068,0
2940,-0.549001,-0.332456,-2.64044,0
2970,-0.548987,-0.332696,-2.63974,0
3020,-0.54953,-0.332281,-2.63852,0
3040,-0.549452,-0.332069,-2.63866,0
3060,-0.54932,-0.332094,-2.63866,0
3080,-0.548819,-0.331809,-2.63871,0
3120,-0.547689,-0.331496,-2.63921,0
3140,-0.547557,-0.331521,-2.63921,0
3160,-0.547557,-0.331521,-2.63921,0
3180,-0.547557,-0.331521,-2.63921,0
3200,-0.548138,-0.331661,-2.63918,0
3220,-0.548717,-0.331625,-2.63896,0
3240,-0.54972,-0.331549,-2.63844,0
3260,-0.550458,-0.331579,-2.63811,0
3280,-0.551274,-0.331935,-2.63803,0
3300,-0.551986,-0.332408,-2.63783,0
3320,-0.553094,-0.332748,-2.63744,0
3340,-0.553963,-0.33311,-2.63694,0
3360,-0.55483,-0.333351,-2.63646,0
3380,-0.555565,-0.33356,-2.63577,0
3400,-0.556197,-0.333585,-2.63533,0
3420,-0.556697,-0.333635,-2.63489,0
3440,-0.55785,-0.333976,-2.63394,0
3460,-0.559936,-0.334264,-2.63259,0
3480,-0.562818,-0.3344,-2.63126,0
3500,-0.565333,-0.334758,-2.62999,0
3520,-0.568649,-0.335025,-2.62853,0
3540,-0.574627,-0.335084,-2.62636,0
3560,-0.581892,-0.335294,-2.6233,0
3580,-0.589601,-0.336502,-2.61927,0
3600,-0.59855,-0.338228,-2.61471,0
3620,-0.609277,-0.340916,-2.60918,0
3640,-0.6213,-0.344111,-2.60365,0
3660,-0.634201,-0.347525,-2.59871,0
3680,-0.647619,-0.350773,-2.59456,0
3700,-0.659894,-0.353474,-2.59009,0
3720,-0.671275,-0.355586,-2.58444,0
3740,-0.681823,-0.357302,-2.57699,0
3760,-0.691516,-0.358609,-2.56996,0
3780,-0.700561,-0.360019,-2.56421,0
3790,-0.710415,-0.361286,-2.55918,0
3810,-0.721987,-0.362072,-2.55354,0
3830,-0.734931,-0.362824,-2.54596,0
3850,-0.747734,-0.365109,-2.53791,0
3870,-0.759406,-0.36844,-2.53016,0
3890,-0.770294,-0.371218,-2.52364,0
3910,-0.780773,-0.374752,-2.5174,0
3930,-0.791085,-0.378639,-2.50965,0
3950,-0.801656,-0.381593,-2.5012,0
3970,-0.811685,-0.385617,-2.49455,0
3990,-0.820855,-0.389423,-2.48636,0
4010,-0.827911,-0.393285,-2.47962,0
4030,-0.833393,-0.396673,-2.4756,0
4050,-0.838897,-0.398683,-2.47149,0
4070,-0.842588,-0.399839,-2.4674,0
4090,-0.844773,-0.401066,-2.46553,0
4110,-0.845174,-0.402501,-2.46489,0
4130,-0.844893,-0.404294,-2.46546,0
4150,-0.844713,-0.40562,-2.46643,0
4170,-0.845244,-0.406032,-2.46708,0
4190,-0.846698,-0.405751,-2.46697,0
4210,-0.848812,-0.404397,-2.46649,0
4230,-0.850768,-0.401813,-2.46658,0
4250,-0.851921,-0.3989,-2.46643,0
4270,-0.852472,-0.396815,-2.46645,0
4290,-0.852345,-0.395671,-2.46575,0
4310,-0.851366,-0.394774,-2.46584,0
4330,-0.850631,-0.393544,-2.46639,0
4350,-0.850598,-0.393728,-2.46646,0
4370,-0.849231,-0.394275,-2.46577,0
4390,-0.846625,-0.395764,-2.46663,0
4410,-0.844538,-0.397019,-2.46802,0
4430,-0.843103,-0.398152,-2.46994,0
4450,-0.841815,-0.398871,-2.47167,0
4470,-0.840667,-0.399317,-2.47318,0
4490,-0.83998,-0.399433,-2.47492,0
4510,-0.839596,-0.397968,-2.47779,0
4530,-0.839294,-0.395816,-2.48047,0
4550,-0.838488,-0.393836,-2.48286,0
4570,-0.837631,-0.39256,-2.48511,0
4590,-0.837335,-0.391487,-2.48673,0
4610,-0.836689,-0.390996,-2.48847,0
4630,-0.837283,-0.390708,-2.48926,0
4650,-0.83914,-0.390733,-2.48828,0
4660,-0.840546,-0.391909,-2.48766,0
4680,-0.842245,-0.393692,-2.48727,0
4700,-0.845397,-0.395747,-2.48624,0
4720,-0.849935,-0.397467,-2.48414,0
4740,-0.854401,-0.39888,-2.48158,0
4760,-0.858198,-0.399481,-2.4777,0
4780,-0.86103,-0.400156,-2.47525,0
4800,-0.86351,-0.400935,-2.47321,0
4820,-0.866569,-0.402354,-2.46979,0
4840,-0.869614,-0.403649,-2.46643,0
4860,-0.871544,-0.40434,-2.46383,0
4880,-0.873587,-0.403832,-2.46022,0
4900,-0.874639,-0.404438,-2.45685,0
4920,-0.874014,-0.405645,-2.45568,0
4940,-0.873415,-0.407185,-2.45609,0
4960,-0.873856,-0.408123,-2.45609,0
4980,-0.874913,-0.407437,-2.45659,0
5000,-0.87684,-0.406279,-2.45651,0
5020,-0.879151,-0.404718,-2.4557,0
5040,-0.881832,-0.402937,-2.45351,0
5060,-0.884532,-0.401628,-2.45102,0
5080,-0.886822,-0.401154,-2.44955,0
5100,-0.889263,-0.401232,-2.44734,0
5120,-0.891966,-0.401151,-2.44528,0
5140,-0.894961,-0.401632,-2.44186,0
5160,-0.897469,-0.401984,-2.43783,0
5180,-0.899372,-0.402409,-2.43431,0
5200,-0.901498,-0.40192,-2.43059,0
5220,-0.904107,-0.401408,-2.42679,0
5240,-0.905429,-0.401126,-2.42414,0
5260,-0.905101,-0.400971,-2.42283,0
5290,-0.903039,-0.401902,-2.42217,0
5310,-0.902186,-0.402659,-2.42084,0
5330,-0.901547,-0.402238,-2.41978,0
5350,-0.902176,-0.401474,-2.41877,0
5370,-0.902872,-0.400974,-2.41806,0
5390,-0.903538,-0.400714,-2.41718,0
5410,-0.903596,-0.400785,-2.41702,0
5420,-0.904505,-0.400865,-2.41748,0
5440,-0.906058,-0.400534,-2.41739,0
5460,-0.907696,-0.399408,-2.41587,0
5480,-0.908741,-0.397838,-2.41544,0
5500,-0.909919,-0.396116,-2.41439,0
5520,-0.911161,-0.395518,-2.41204,0
5540,-0.912054,-0.396141,-2.4098,0
5560,-0.913218,-0.39739,-2.40704,0
5580,-0.915068,-0.398707,-2.40384,0
5600,-0.915916,-0.399316,-2.40045,0
5620,-0.91543,-0.400502,-2.39746,0
5640,-0.916061,-0.400916,-2.39563,0
5660,-0.917731,-0.399976,-2.39426,0
5680,-0.918383,-0.398078,-2.39428,0
5700,-0.91781,-0.394981,-2.39426,0
5720,-0.915731,-0.391054,-2.39553,0
5740,-0.913351,-0.387198,-2.39889,0
5760,-0.91083,-0.382719,-2.4032,0
5780,-0.907335,-0.377752,-2.40923,0
5800,-0.901179,-0.372277,-2.41646,0
5820,-0.894279,-0.367272,-2.42389,0
5840,-0.889007,-0.362215,-2.43123,0
5860,-0.885464,-0.357694,-2.4403,0
5880,-0.884201,-0.352874,-2.44945,0
5900,-0.884374,-0.348167,-2.45762,0
5920,-0.883827,-0.344353,-2.46417,0
5940,-0.883254,-0.340284,-2.4697,0
5960,-0.882325,-0.336095,-2.47505,0
5980,-0.882595,-0.333,-2.47844,0
6000,-0.883828,-0.331368,-2.48099,0
6020,-0.887397,-0.330554,-2.48099,0
6040,-0.892932,-0.328447,-2.47788,0
6060,-0.899243,-0.32521,-2.47338,0
6080,-0.906486,-0.322478,-2.46902,0
6100,-0.914857,-0.319199,-2.46387,0
6120,-0.922874,-0.314794,-2.45947,0
6140,-0.930067,-0.309625,-2.45593,0
6160,-0.936223,-0.303718,-2.45092,0
6180,-0.941674,-0.297667,-2.44427,0
6200,-0.946927,-0.291558,-2.43814,0
6220,-0.953685,-0.284979,-2.43211,0
6240,-0.961503,-0.277355,-2.42629,0
6260,-0.969555,-0.269505,-2.42127,0
6280,-0.977594,-0.262089,-2.41602,0
6300,-0.984051,-0.25588,-2.4111,0
6320,-0.987988,-0.250488,-2.40685,0
6340,-0.991005,-0.245954,-2.40255,0
6360,-0.99435,-0.243121,-2.39704,0
6380,-0.998561,-0.241547,-2.39278,0
6400,-1.00268,-0.240814,-2.38953,0
6420,-1.0067,-0.240073,-2.3856,0
6440,-1.01085,-0.239267,-2.3823,0
6460,-1.01534,-0.237314,-2.3794,0
6480,-1.01976,-0.234954,-2.3766,0
6500,-1.02364,-0.23238,-2.37489,0
6520,-1.02765,-0.229219,-2.37361,0
6540,-1.03169,-0.225864,-2.37201,0
6560,-1.03415,-0.223236,-2.3716,0
6580,-1.03476,-0.220521,-2.37192,0
6600,-1.03452,-0.217926,-2.37216,0
6620,-1.0351,-0.216659,-2.37282,0
6640,-1.03551,-0.216012,-2.37333,0
6660,-1.03584,-0.215241,-2.37357,0
6680,-1.03652,-0.214492,-2.37407,0
6700,-1.03825,-0.213434,-2.37409,0
6720,-1.03961,-0.212708,-2.37478,0
6740,-1.04102,-0.212269,-2.37488,0
6760,-1.0426,-0.211995,-2.37425,0
6780,-1.04497,-0.212712,-2.37309,0
6800,-1.04765,-0.214302,-2.37171,0
6820,-1.05154,-0.215694,-2.36959,0
6840,-1.05604,-0.215925,-2.36719,0
6860,-1.05862,-0.215903,-2.36565,0
6880,-1.05933,-0.215554,-2.36347,0
6900,-1.05969,-0.216382,-2.36094,0
6920,-1.05977,-0.217509,-2.35876,0
6940,-1.05847,-0.217855,-2.35681,0
6960,-1.05524,-0.217406,-2.35306,0
6980,-1.05277,-0.2187,-2.34889,0
7000,-1.05207,-0.219093,-2.34715,0
7020,-1.05142,-0.218223,-2.34596,0
7040,-1.05058,-0.217833,-2.34439,0
7060,-1.04842,-0.218168,-2.34326,0
7080,-1.04618,-0.217668,-2.34259,0
7090,-1.0456,-0.216895,-2.34194,0
7110,-1.0465,-0.216356,-2.34067,0
7120,-1.04616,-0.216463,-2.33893,0
7140,-1.04483,-0.216555,-2.33759,0
7160,-1.04512,-0.218474,-2.33725,2000
7180,-1.04592,-0.220047,-2.33748,0
7200,-1.04408,-0.221268,-2.33848,0
7220,-1.03744,-0.221383,-2.33971,0
7240,-1.0318,-0.220256,-2.33929,0
7260,-1.03148,-0.221311,-2.33958,0
7280,-1.03425,-0.22289,-2.33972,0
7300,-1.0364,-0.224667,-2.33979,0
7320,-1.03494,-0.225947,-2.34059,0
7340,-1.03145,-0.225426,-2.34045,0
7360,-1.02964,-0.224677,-2.34074,0
7380,-1.03047,-0.224064,-2.34107,0
7400,-1.03258,-0.223607,-2.34169,0
7420,-1.03383,-0.223334,-2.34228,0
7440,-1.03488,-0.222943,-2.34232,0
7460,-1.03632,-0.222685,-2.34251,0
7480,-1.03766,-0.221436,-2.34347,0
7500,-1.03785,-0.218582,-2.34414,0
7520,-1.03762,-0.215839,-2.34505,0
7540,-1.03695,-0.212653,-2.34569,0
7560,-1.03626,-0.210395,-2.34624,0
7580,-1.03604,-0.208319,-2.34636,0
7600,-1.03544,-0.206849,-2.34639,0
7620,-1.03476,-0.206014,-2.34643,0
7640,-1.03411,-0.206191,-2.34604,0
7650,-1.03313,-0.207352,-2.34605,0
7670,-1.03309,-0.208793,-2.34549,0
7690,-1.03409,-0.210342,-2.34467,0
7700,-1.03563,-0.211487,-2.34348,0
7740,-1.03804,-0.215061,-2.33921,0
7760,-1.03989,-0.217013,-2.3365,0
7780,-1.04263,-0.218416,-2.33398,0
7800,-1.0457,-0.219479,-2.33134,0
7820,-1.04812,-0.220293,-2.32899,0
7840,-1.04998,-0.221229,-2.32613,0
7860,-1.05105,-0.222455,-2.32361,0
7880,-1.05153,-0.224152,-2.3206,0
7900,-1.05216,-0.22656,-2.3167,0
7920,-1.05291,-0.229036,-2.313,0
7940,-1.05354,-0.231116,-2.30904,0
7960,-1.05464,-0.23373,-2.30462,0
7980,-1.05559,-0.236662,-2.30068,0
8000,-1.05671,-0.239325,-2.29634,0
8020,-1.05847,-0.241702,-2.29137,0
8040,-1.06023,-0.243913,-2.28631,0
8050,-1.06238,-0.246302,-2.28187,0
8070,-1.06444,-0.249071,-2.27774,0
8090,-1.0659,-0.252125,-2.27344,0
8110,-1.0658,-0.255971,-2.26906,0
8130,-1.065,-0.2611,-2.26467,0
8150,-1.06474,-0.266092,-2.26136,0
8170,-1.06472,-0.270273,-2.25844,0
8190,-1.06472,-0.274587,-2.25552,0
8210,-1.06337,-0.279114,-2.25309,0
8240,-1.06061,-0.286712,-2.24828,0
8250,-1.06047,-0.290413,-2.24645,0
8260,-1.06083,-0.29718,-2.24481,0
8280,-1.05985,-0.300268,-2.24396,0
8320,-1.05479,-0.308726,-2.2435,0
8340,-1.05254,-0.313065,-2.24368,0
8360,-1.05135,-0.317516,-2.24364,0
8380,-1.05042,-0.322724,-2.24367,0
8400,-1.04827,-0.327716,-2.24458,0
8420,-1.04565,-0.332328,-2.24566,0
8440,-1.04387,-0.336936,-2.24607,0
8460,-1.04221,-0.341794,-2.24745,0
8480,-1.04025,-0.346769,-2.25045,0
8500,-1.03861,-0.351205,-2.25458,0
8520,-1.0372,-0.355758,-2.25917,0
8540,-1.03524,-0.360599,-2.2636,0
8560,-1.03185,-0.366169,-2.26875,0
8580,-1.02827,-0.372499,-2.27535,0
8600,-1.0259,-0.379563,-2.28241,0
8620,-1.02434,-0.386879,-2.28932,0
8640,-1.02275,-0.394601,-2.2964,0
8660,-1.02077,-0.401996,-2.30427,0
8680,-1.01934,-0.409721,-2.31125,0
8700,-1.01842,-0.417085,-2.31789,0
8720,-1.01765,-0.423989,-2.3251,0
8740,-1.01701,-0.429882,-2.33168,0
8760,-1.01677,-0.435653,-2.33724,0
8780,-1.01701,-0.441249,-2.34316,0
8800,-1.01715,-0.445904,-2.34943,0
8820,-1.017,-0.449929,-2.35556,0
8840,-1.01614,-0.453064,-2.36211,0
8860,-1.01478,-0.454913,-2.36876,0
8880,-1.01329,-0.456389,-2.37526,0
8900,-1.01142,-0.4584,-2.38165,0
8920,-1.00933,-0.460195,-2.38881,0
8940,-1.0074,-0.461703,-2.3962,0
8960,-1.00507,-0.463501,-2.40327,0
8980,-1.0032,-0.465818,-2.41006,0
9000,-1.00125,-0.467886,-2.4173,0
9020,-0.999089,-0.469929,-2.42541,0
9040,-0.996983,-0.471831,-2.43363,0
9060,-0.99443,-0.473601,-2.44202,0
9080,-0.992168,-0.475558,-2.44966,0
9100,-0.990259,-0.477225,-2.45723,0
9120,-0.988919,-0.478548,-2.46436,0
9140,-0.987661,-0.479298,-2.472,0
9160,-0.986118,-0.479365,-2.47974,0
9180,-0.984171,-0.480404,-2.48668,0
9200,-0.98256,-0.48218,-2.49369,0
9220,-0.980913,-0.484328,-2.50115,0
9240,-0.979966,-0.486138,-2.50854,0
9260,-0.978998,-0.487798,-2.51628,0
9280,-0.977355,-0.489728,-2.52465,0
9300,-0.975429,-0.491667,-2.53327,0
9320,-0.973489,-0.493452,-2.54224,0
9340,-0.971321,-0.495141,-2.55127,0
9360,-0.969207,-0.496438,-2.5605,0
9380,-0.966887,-0.49762,-2.56942,0
9400,-0.964677,-0.499096,-2.57838,0
9420,-0.961849,-0.500309,-2.58758,0
9440,-0.959927,-0.501464,-2.59599,0
9460,-0.958088,-0.502853,-2.60397,0
9480,-0.955897,-0.504024,-2.61204,0
9500,-0.954244,-0.50546,-2.61955,0
9520,-0.952713,-0.507243,-2.6272,0
9540,-0.951219,-0.509256,-2.63504,0
9560,-0.949696,-0.511071,-2.64312,0
9580,-0.947866,-0.512761,-2.65152,0
9600,-0.946122,-0.5142,-2.65941,0
9620,-0.943936,-0.51601,-2.66704,0
9640,-0.941595,-0.518012,-2.67475,0
9660,-0.939804,-0.520124,-2.68284,0
9680,-0.938242,-0.521645,-2.69071,0
9700,-0.936612,-0.523304,-2.69854,0
9720,-0.934841,-0.524259,-2.70614,0
9740,-0.932883,-0.524613,-2.7137,0
9760,-0.931602,-0.523892,-2.72068,0
9780,-0.930887,-0.523399,-2.72693,0
9800,-0.930304,-0.522987,-2.73241,0
9820,-0.929916,-0.522733,-2.73826,0
9840,-0.930425,-0.522603,-2.74385,0
9860,-0.930796,-0.522142,-2.74935,0
9880,-0.930021,-0.521658,-2.75621,0
9900,-0.928775,-0.521134,-2.7629,0
9920,-0.926991,-0.520859,-2.76975,0
9940,-0.925036,-0.520548,-2.77652,0
9960,-0.923356,-0.520198,-2.78354,0
9970,-0.921937,-0.519138,-2.79034,0
9990,-0.920131,-0.517801,-2.79681,0
10010,-0.9186,-0.516432,-2.80292,0
10030,-0.91709,-0.514645,-2.80875,0
10050,-0.915104,-0.51312,-2.81448,0
10070,-0.912677,-0.511992,-2.8204,0
10090,-0.91016,-0.511369,-2.82616,0
10110,-0.907609,-0.511569,-2.83151,0
10130,-0.904425,-0.51226,-2.83665,0
10150,-0.901156,-0.512981,-2.84124,0
10170,-0.898172,-0.514174,-2.84533,0
10190,-0.896321,-0.515766,-2.84845,0
10210,-0.895589,-0.517713,-2.85112,0
10230,-0.895088,-0.51892,-2.85349,0
10250,-0.894799,-0.520308,-2.85558,0
10270,-0.893789,-0.521307,-2.85777,0
10290,-0.893323,-0.522242,-2.85918,0
10310,-0.893408,-0.522852,-2.86056,0
10330,-0.892435,-0.523181,-2.86254,0
10350,-0.891515,-0.523917,-2.86478,0
10370,-0.8902,-0.524437,-2.86691,0
10390,-0.888888,-0.524913,-2.86922,0
10410,-0.887105,-0.525153,-2.87196,0
10430,-0.885176,-0.525106,-2.8744,0
10450,-0.883172,-0.525216,-2.8772,0
10470,-0.881766,-0.525139,-2.88023,0
10490,-0.880838,-0.524338,-2.88361,0
10510,-0.880287,-0.522956,-2.88726,0
10530,-0.87975,-0.521487,-2.89039,0
10550,-0.87912,-0.520568,-2.89346,0
10570,-0.877836,-0.519796,-2.89687,0
10590,-0.877092,-0.519666,-2.89949,0
10610,-0.876603,-0.519182,-2.90195,0
10630,-0.876499,-0.518307,-2.90417,0
10650,-0.876756,-0.517047,-2.90679,0
10670,-0.877454,-0.515107,-2.90943,0
10690,-0.878067,-0.512918,-2.91155,0
10710,-0.878775,-0.510942,-2.91316,0
10730,-0.879152,-0.509298,-2.91425,0
10750,-0.878988,-0.508043,-2.91559,0
10770,-0.879839,-0.506967,-2.91698,0
10790,-0.880118,-0.505174,-2.9187,0
10810,-0.881029,-0.502927,-2.92,0
10830,-0.881785,-0.501096,-2.92065,0
10850,-0.882104,-0.499667,-2.92126,0
10870,-0.882479,-0.498501,-2.92183,0
10890,-0.883425,-0.496758,-2.92202,0
10910,-0.88378,-0.494491,-2.92268,0
10930,-0.88443,-0.491775,-2.92323,0
10950,-0.884726,-0.489535,-2.92423,0
10970,-0.885447,-0.487453,-2.92494,0
10990,-0.885015,-0.485923,-2.92565,0
11010,-0.884274,-0.485121,-2.9261,0
11030,-0.883994,-0.48488,-2.92649,0
11050,-0.885035,-0.483862,-2.92675,0
11070,-0.886705,-0.482256,-2.92693,0
11090,-0.888723,-0.480088,-2.92647,0
11110,-0.890299,-0.477803,-2.92548,0
11130,-0.892289,-0.47531,-2.92434,0
11150,-0.893872,-0.472754,-2.92368,0
11170,-0.894996,-0.46964,-2.92307,0
11190,-0.895994,-0.467064,-2.9224,0
11210,-0.8973,-0.464401,-2.92154,0
11230,-0.898014,-0.461361,-2.92109,0
11250,-0.898519,-0.458062,-2.92069,0
11270,-0.898877,-0.454123,-2.92015,0
11290,-0.898925,-0.450777,-2.91995,0
11310,-0.899054,-0.447498,-2.9193,0
11330,-0.899815,-0.444859,-2.9185,0
11350,-0.90039,-0.442776,-2.91768,0
11370,-0.901457,-0.441136,-2.91659,0
11390,-0.902145,-0.43966,-2.91587,0
11410,-0.903553,-0.438691,-2.91469,0
11430,-0.905384,-0.438237,-2.91314,0
11450,-0.907713,-0.437508,-2.91162,0
11470,-0.909777,-0.436757,-2.91005,0
11490,-0.911968,-0.435971,-2.90842,0
11510,-0.913882,-0.434794,-2.90656,0
11530,-0.915755,-0.433725,-2.90494,0
11550,-0.917754,-0.43248,-2.90325,0
11570,-0.920359,-0.431193,-2.90121,0
11590,-0.923018,-0.429525,-2.89927,0
11610,-0.926441,-0.427671,-2.89698,0
11630,-0.930452,-0.425331,-2.89461,0
11650,-0.935015,-0.421836,-2.89226,0
11670,-0.939511,-0.417709,-2.88954,0
11690,-0.94277,-0.413931,-2.88721,0
11710,-0.94459,-0.409964,-2.88475,0
11730,-0.946479,-0.406621,-2.88153,0
11750,-0.948945,-0.40336,-2.87883,0
11770,-0.952238,-0.39934,-2.87668,0
11790,-0.955995,-0.394093,-2.87414,0
11810,-0.959463,-0.3886,-2.87142,0
11830,-0.962287,-0.38319,-2.86856,0
11850,-0.964665,-0.377618,-2.86623,0
11870,-0.967068,-0.371862,-2.86469,0
11890,-0.969188,-0.365866,-2.86295,0
11910,-0.971039,-0.361187,-2.86013,0
11930,-0.971711,-0.357473,-2.85741,0
11950,-0.971436,-0.354077,-2.85523,0
11970,-0.972247,-0.35056,-2.85263,0
11990,-0.974061,-0.347058,-2.8499,0
12010,-0.975892,-0.343922,-2.84734,0
12030,-0.977461,-0.340918,-2.84447,0
12050,-0.97865,-0.338503,-2.8413,0
12070,-0.979111,-0.33617,-2.83878,0
12090,-0.979761,-0.334001,-2.83632,0
12110,-0.980961,-0.332437,-2.83344,0
12130,-0.981657,-0.330865,-2.83076,0
12150,-0.98163,-0.329247,-2.82817,0
12170,-0.981758,-0.327482,-2.82532,0
12190,-0.982743,-0.32553,-2.82224,0
12210,-0.984345,-0.322912,-2.81936,0
12230,-0.985845,-0.320208,-2.81687,0
12250,-0.98656,-0.318171,-2.81471,0
12270,-0.987137,-0.316437,-2.81174,0
12290,-0.987634,-0.315056,-2.80832,0
12310,-0.988347,-0.313574,-2.80503,0
12330,-0.98915,-0.311683,-2.80208,0
12350,-0.99013,-0.309662,-2.79947,0
12370,-0.990584,-0.307762,-2.79673,0
12390,-0.991221,-0.306084,-2.79363,0
12410,-0.991415,-0.3048,-2.79092,0
12430,-0.991799,-0.304222,-2.78767,0
12450,-0.992089,-0.304046,-2.78461,0
12470,-0.993035,-0.30323,-2.781,0
12490,-0.994653,-0.302815,-2.77747,0
12510,-0.996184,-0.302119,-2.77394,0
12530,-0.998219,-0.301271,-2.76996,0
12550,-0.999612,-0.300726,-2.76617,0
12570,-1.00051,-0.300125,-2.76299,0
12590,-1.00163,-0.299964,-2.75961,0
12610,-1.00293,-0.300677,-2.75515,0
12630,-1.00322,-0.301878,-2.75085,0
12650,-1.00294,-0.302826,-2.7465,0
12670,-1.00391,-0.30378,-2.74159,0
12690,-1.00601,-0.30439,-2.73685,0
12710,-1.00908,-0.304246,-2.73203,0
12730,-1.01183,-0.303702,-2.72696,0
12750,-1.01356,-0.303231,-2.72152,0
12770,-1.01492,-0.302937,-2.71605,0
12790,-1.01571,-0.302277,-2.71087,0
12810,-1.01707,-0.301299,-2.70525,0
12830,-1.01964,-0.300583,-2.69904,0
12850,-1.02254,-0.299769,-2.6928,0
12870,-1.0257,-0.298538,-2.6867,0
12890,-1.02898,-0.297185,-2.68098,0
12910,-1.03201,-0.295368,-2.6752,0
12930,-1.03476,-0.293291,-2.66973,0
12950,-1.03675,-0.291675,-2.66379,0
12970,-1.03829,-0.290336,-2.65824,0
12990,-1.04039,-0.288861,-2.65264,0
13010,-1.04286,-0.287701,-2.6472,0
13030,-1.04507,-0.286701,-2.64227,0
13050,-1.04673,-0.286007,-2.63719,0
13070,-1.04836,-0.286209,-2.63127,0
13090,-1.04977,-0.286519,-2.62576,0
13110,-1.0512,-0.286281,-2.62065,0
13130,-1.05282,-0.286008,-2.61525,0
13150,-1.05466,-0.286216,-2.60917,0
13170,-1.05592,-0.286844,-2.60285,0
13190,-1.05695,-0.287852,-2.5963,0
13210,-1.05857,-0.288876,-2.58915,0
13230,-1.06109,-0.290038,-2.58233,0
13250,-1.0642,-0.290803,-2.57558,0
13270,-1.06793,-0.291327,-2.56836,0
13290,-1.07213,-0.291499,-2.56129,0
13310,-1.07571,-0.291009,-2.55447,0
13330,-1.07863,-0.290055,-2.54742,0
13350,-1.08106,-0.289322,-2.5403,0
13370,-1.08397,-0.288695,-2.53333,0
13390,-1.08721,-0.288351,-2.527,0
13410,-1.09075,-0.287768,-2.52097,0
13420,-1.09363,-0.287154,-2.51461,0
13440,-1.09602,-0.286758,-2.50793,0
13460,-1.09855,-0.287088,-2.50063,0
13480,-1.10205,-0.287803,-2.4934,0
13500,-1.10576,-0.288518,-2.48656,0
13520,-1.10987,-0.289416,-2.47967,0
13540,-1.11367,-0.29161,-2.4727,0
13560,-1.11716,-0.294159,-2.46593,0
13580,-1.12049,-0.297085,-2.4589,0
13600,-1.12339,-0.300283,-2.45187,0
13620,-1.12611,-0.304132,-2.44502,0
13640,-1.12905,-0.308281,-2.43847,0
13660,-1.13164,-0.312836,-2.4327,0
13680,-1.13467,-0.31742,-2.42659,0
13700,-1.13787,-0.322236,-2.42009,0
13720,-1.14052,-0.326878,-2.41386,0
13740,-1.14327,-0.330895,-2.40823,0
13760,-1.14627,-0.334351,-2.40258,0
13780,-1.14907,-0.337329,-2.39659,0
13800,-1.15151,-0.339957,-2.39061,0
13820,-1.15388,-0.342088,-2.38517,0
13840,-1.1568,-0.343464,-2.38012,0
13860,-1.15971,-0.343892,-2.37517,0
13880,-1.16235,-0.343504,-2.36983,0
13900,-1.16409,-0.343019,-2.36448,0
13920,-1.16599,-0.342239,-2.35872,0
13940,-1.16812,-0.341725,-2.35375,0
13960,-1.17121,-0.340656,-2.34928,0
13980,-1.17453,-0.339136,-2.34473,0
14000,-1.17789,-0.337386,-2.33986,0
14020,-1.17956,-0.336303,-2.33549,0
14040,-1.18001,-0.335406,-2.33158,0
14060,-1.18039,-0.334861,-2.32792,0
14080,-1.18183,-0.33442,-2.32334,0
14100,-1.18337,-0.334548,-2.31871,0
14120,-1.18456,-0.334767,-2.31367,0
14140,-1.18585,-0.33547,-2.30815,0
14160,-1.18791,-0.336385,-2.30256,0
14180,-1.19015,-0.337245,-2.29726,0
14200,-1.19284,-0.338305,-2.29112,0
14220,-1.19582,-0.340038,-2.28458,0
14240,-1.19821,-0.342356,-2.27809,0
14260,-1.20032,-0.345198,-2.27088,0
14280,-1.20211,-0.349046,-2.2639,0
14300,-1.20421,-0.352763,-2.25801,0
14320,-1.20642,-0.356033,-2.25221,0
14340,-1.2087,-0.359632,-2.24589,0
14360,-1.21039,-0.363759,-2.23913,0
14380,-1.21093,-0.368071,-2.23276,0
14400,-1.21234,-0.372462,-2.22618,0
14420,-1.21402,-0.376993,-2.22018,0
14440,-1.21557,-0.381459,-2.21481,0
14460,-1.21718,-0.385869,-2.20939,0
14480,-1.21881,-0.390309,-2.20367,0
14500,-1.22039,-0.394562,-2.19757,0
14520,-1.22143,-0.39951,-2.19217,0
14540,-1.22235,-0.404371,-2.18769,0
14560,-1.22324,-0.408722,-2.18288,0
14580,-1.2246,-0.413482,-2.17729,0
14600,-1.22568,-0.418454,-2.17083,0
14620,-1.22634,-0.423719,-2.16545,0
14640,-1.22763,-0.429032,-2.15985,0
14660,-1.22975,-0.433881,-2.15433,0
14680,-1.23236,-0.438425,-2.14892,0
14700,-1.23498,-0.442965,-2.14342,0
14720,-1.23621,-0.447623,-2.13835,0
14740,-1.2375,-0.45237,-2.13314,0
14760,-1.23956,-0.456889,-2.12799,0
14780,-1.24173,-0.460596,-2.1231,0
14800,-1.24308,-0.464294,-2.1188,0
14820,-1.24398,-0.468413,-2.11525,0
14840,-1.2453,-0.471933,-2.11123,0
14860,-1.24634,-0.474729,-2.10768,0
14880,-1.24713,-0.477551,-2.1046,0
14900,-1.24772,-0.480543,-2.10137,0
14920,-1.24815,-0.483826,-2.09809,0
14940,-1.24882,-0.487152,-2.0957,0
14960,-1.25003,-0.489639,-2.09359,0
14980,-1.25028,-0.492107,-2.09134,0
15000,-1.24954,-0.495194,-2.08939,0
15020,-1.24971,-0.499486,-2.08683,0
15040,-1.24982,-0.503437,-2.08549,0
15060,-1.25062,-0.506309,-2.08454,0
15080,-1.25107,-0.509537,-2.08329,0
15100,-1.25059,-0.513167,-2.08259,0
15120,-1.25033,-0.517435,-2.08213,0
15140,-1.25025,-0.521522,-2.08172,0
15160,-1.25008,-0.525615,-2.08198,0
15180,-1.24957,-0.529663,-2.08191,0
15190,-1.24884,-0.53366,-2.08193,0
15220,-1.24875,-0.537588,-2.08129,0
15240,-1.24914,-0.541345,-2.08065,0
15260,-1.24991,-0.54539,-2.08014,0
15280,-1.25139,-0.549664,-2.07943,0
15300,-1.25325,-0.553265,-2.07827,0
15320,-1.25385,-0.556947,-2.07766,0
15340,-1.25442,-0.561108,-2.07672,0
15360,-1.25552,-0.56587,-2.07584,0
15380,-1.25657,-0.570039,-2.07519,0
15390,-1.25812,-0.573841,-2.07402,0
15410,-1.25884,-0.578071,-2.07357,0
15430,-1.25938,-0.581515,-2.07407,0
15450,-1.26035,-0.584972,-2.07387,0
15470,-1.26131,-0.588613,-2.07395,0
15490,-1.26229,-0.592405,-2.07395,0
15510,-1.26327,-0.596131,-2.07377,0
15530,-1.26396,-0.600039,-2.07403,0
15550,-1.26426,-0.603784,-2.07441,0
15570,-1.2642,-0.607378,-2.07603,0
15590,-1.26392,-0.611363,-2.07707,0
15610,-1.26395,-0.615376,-2.07809,0
15630,-1.26394,-0.619781,-2.07894,0
15650,-1.26375,-0.624261,-2.08012,0
15670,-1.26423,-0.62946,-2.08123,0
15690,-1.26518,-0.634618,-2.08257,0
15710,-1.26566,-0.639426,-2.08433,0
15730,-1.26649,-0.644363,-2.08549,0
15750,-1.26725,-0.648958,-2.08678,0
15770,-1.26857,-0.653868,-2.08818,0
15790,-1.26914,-0.658425,-2.09062,0
15810,-1.26988,-0.662659,-2.09328,0
15830,-1.27103,-0.666636,-2.09551,0
15850,-1.27097,-0.670255,-2.09773,0
15870,-1.2703,-0.674399,-2.10081,0
15890,-1.26992,-0.677827,-2.10429,0
15910,-1.27018,-0.679586,-2.10726,0
15930,-1.26996,-0.682217,-2.10993,0
15950,-1.26944,-0.685394,-2.11299,0
15970,-1.26951,-0.689049,-2.11609,0
15990,-1.26938,-0.692785,-2.11955,0
16010,-1.26936,-0.696476,-2.12296,0
16030,-1.26894,-0.700294,-2.12637,0
16050,-1.26829,-0.704112,-2.13076,0
16070,-1.26774,-0.707676,-2.13513,0
16090,-1.26635,-0.709942,-2.14081,0
16120,-1.26404,-0.718095,-2.15101,0
16140,-1.26346,-0.721271,-2.15684,0
16160,-1.26262,-0.724753,-2.16273,0
16180,-1.26117,-0.728153,-2.16929,0
16200,-1.25951,-0.731344,-2.17608,0
16220,-1.2579,-0.734189,-2.18301,0
16230,-1.25651,-0.737199,-2.19008,0
16240,-1.25439,-0.739763,-2.19775,0
16260,-1.25225,-0.741753,-2.20591,0
16280,-1.25022,-0.74373,-2.21381,0
16300,-1.24798,-0.745858,-2.22186,0
16320,-1.24557,-0.747352,-2.23016,0
16340,-1.24343,-0.749511,-2.23832,0
16360,-1.24134,-0.75163,-2.2461,0
16380,-1.23914,-0.754296,-2.25445,0
16400,-1.23656,-0.75676,-2.26372,0
16420,-1.23338,-0.759041,-2.27315,0
16440,-1.23013,-0.76132,-2.28227,0
16460,-1.22736,-0.763317,-2.29111,0
16480,-1.22425,-0.765203,-2.30035,0
16500,-1.2215,-0.767373,-2.30887,0
16520,-1.21877,-0.76986,-2.31694,0
16540,-1.21585,-0.772283,-2.3252,0
16560,-1.21314,-0.774723,-2.33329,0
16580,-1.21048,-0.776815,-2.34078,0
16600,-1.20716,-0.778606,-2.34865,0
16620,-1.20374,-0.780586,-2.35685,0
16640,-1.20084,-0.782073,-2.36505,0
16660,-1.19779,-0.783973,-2.3726,0
16680,-1.19448,-0.786376,-2.38066,0
16700,-1.19101,-0.7888,-2.38906,0
16720,-1.18715,-0.791156,-2.39803,0
16740,-1.18333,-0.793691,-2.40635,0
16760,-1.17969,-0.795769,-2.41392,0
16780,-1.17651,-0.797785,-2.42222,0
16800,-1.17344,-0.799537,-2.43076,0
16820,-1.17055,-0.800676,-2.43861,0
16840,-1.16739,-0.801622,-2.4471,0
16860,-1.16407,-0.802581,-2.45595,0
16880,-1.16011,-0.803516,-2.46466,0
16900,-1.15592,-0.804737,-2.47389,0
16920,-1.15233,-0.80597,-2.48292,0
16940,-1.14848,-0.806942,-2.49182,0
16960,-1.14434,-0.808013,-2.50123,0
16980,-1.13994,-0.808734,-2.51066,0
17000,-1.13613,-0.809534,-2.51935,0
17020,-1.13237,-0.809806,-2.52776,0
17040,-1.12898,-0.810134,-2.53665,0
17060,-1.12504,-0.809976,-2.54594,0
17080,-1.12106,-0.809707,-2.5547,0
17100,-1.1172,-0.809873,-2.56331,0
17120,-1.11333,-0.810036,-2.57161,0
17140,-1.10961,-0.810259,-2.57971,0
17160,-1.1059,-0.81056,-2.58765,0
17180,-1.10206,-0.810795,-2.59549,0
17200,-1.09872,-0.81102,-2.60268,0
17220,-1.09628,-0.811734,-2.6092,0
17240,-1.09362,-0.812635,-2.61576,0
17260,-1.09176,-0.813244,-2.62211,0
17280,-1.0895,-0.813153,-2.6291,0
17300,-1.0872,-0.812781,-2.63653,0
17320,-1.08458,-0.812065,-2.64461,0
17340,-1.08133,-0.811286,-2.6529,0
17360,-1.0772,-0.811067,-2.66163,0
17380,-1.07341,-0.810839,-2.67036,0
17400,-1.06911,-0.810826,-2.67952,0
17420,-1.0644,-0.810668,-2.68877,0
17440,-1.05985,-0.810579,-2.69754,0
17460,-1.05603,-0.810628,-2.70559,0
17480,-1.05351,-0.810692,-2.71265,0
17500,-1.05131,-0.810208,-2.71989,0
17520,-1.04888,-0.809016,-2.72742,0
17540,-1.04819,-0.807612,-2.73275,0
17560,-1.04631,-0.806402,-2.73855,0
17580,-1.0447,-0.804919,-2.74443,0
17600,-1.04319,-0.803029,-2.75045,0
17620,-1.04147,-0.800656,-2.75618,0
17640,-1.03881,-0.798751,-2.76223,0
17660,-1.03582,-0.796555,-2.7687,0
17680,-1.03299,-0.794361,-2.77548,0
17700,-1.03033,-0.792174,-2.78193,0
17720,-1.027,-0.790514,-2.78851,0
17740,-1.02429,-0.789154,-2.79405,0
17760,-1.02109,-0.788183,-2.79977,0
17780,-1.01699,-0.787164,-2.80677,0
17800,-1.01235,-0.785904,-2.81372,0
17820,-1.00826,-0.784594,-2.81987,0
17840,-1.00448,-0.783359,-2.82582,0
17860,-1.00237,-0.782279,-2.83028,0
17880,-1.00172,-0.781419,-2.83402,0
17900,-1.00174,-0.779777,-2.83796,0
17920,-1.00317,-0.778226,-2.84061,0
17940,-1.00414,-0.776791,-2.84264,0
17960,-1.00472,-0.775607,-2.84457,0
17980,-1.00536,-0.773815,-2.84652,0
18000,-1.00643,-0.771847,-2.84806,0
18020,-1.00908,-0.769906,-2.84785,0
18040,-1.00983,-0.767161,-2.84822,0
18060,-1.01,-0.763496,-2.84873,0
18080,-1.01063,-0.759047,-2.84943,0
18100,-1.01146,-0.754013,-2.85018,0
18120,-1.01152,-0.748132,-2.85124,0
18140,-1.01125,-0.74304,-2.85141,0
18160,-1.01102,-0.739709,-2.85134,0
18180,-1.01005,-0.737226,-2.85212,0
18200,-1.00956,-0.734113,-2.85372,0
18220,-1.00994,-0.730458,-2.85534,0
18240,-1.01094,-0.726245,-2.85608,0
18260,-1.01173,-0.723011,-2.85543,0
18280,-1.01204,-0.720426,-2.85493,0
18300,-1.01333,-0.717775,-2.85502,0
18320,-1.01562,-0.714688,-2.85537,0
18340,-1.01764,-0.711851,-2.85592,0
18360,-1.02052,-0.709937,-2.85518,0
18380,-1.02263,-0.708635,-2.85509,0
18400,-1.02505,-0.706773,-2.8551,0
18420,-1.02791,-0.704756,-2.85534,0
18440,-1.0318,-0.70248,-2.85469,0
18460,-1.03524,-0.700026,-2.85403,0
18480,-1.03839,-0.696637,-2.85315,0
18500,-1.04222,-0.69305,-2.85268,0
18520,-1.04634,-0.689242,-2.85236,0
18540,-1.0503,-0.685823,-2.85165,0
18560,-1.05419,-0.683549,-2.85046,0
18580,-1.05766,-0.681861,-2.84956,0
18600,-1.06085,-0.679235,-2.84897,0
18620,-1.06761,-0.672058,-2.84688,0
18640,-1.07141,-0.668113,-2.84586,0
18660,-1.07463,-0.663785,-2.84591,0
18680,-1.07726,-0.659495,-2.84637,0
18700,-1.0794,-0.655218,-2.84662,0
18720,-1.0806,-0.65109,-2.84696,0
18740,-1.0817,-0.646917,-2.84695,0
18750,-1.08212,-0.643048,-2.8478,0
18770,-1.08265,-0.639156,-2.84861,0
18790,-1.08359,-0.635848,-2.84903,0
18810,-1.08495,-0.632632,-2.84928,0
18830,-1.08595,-0.628382,-2.84941,0
18850,-1.08771,-0.623668,-2.8492,0
18870,-1.08992,-0.618251,-2.84908,0
18890,-1.09225,-0.612939,-2.84914,0
18910,-1.09402,-0.608042,-2.84888,0
18930,-1.09571,-0.603781,-2.84812,0
18950,-1.09775,-0.599216,-2.84763,0
18990,-1.10537,-0.584642,-2.84615,0
19010,-1.10577,-0.580631,-2.84593,0
19030,-1.10569,-0.576642,-2.84655,0
19050,-1.10598,-0.572875,-2.84727,0
19070,-1.107,-0.569775,-2.84748,0
19090,-1.10748,-0.566846,-2.84802,0
19110,-1.1069,-0.563826,-2.84845,0
19110,-1.10559,-0.561138,-2.84896,0
19130,-1.10477,-0.558644,-2.84871,0
19150,-1.10414,-0.557121,-2.84826,0
19170,-1.10411,-0.55549,-2.84812,0
19190,-1.1049,-0.552739,-2.84683,0
19210,-1.10504,-0.550301,-2.84557,0
19230,-1.10487,-0.548112,-2.84449,0
19250,-1.10534,-0.545236,-2.84353,0
19270,-1.10614,-0.542157,-2.84273,0
19290,-1.10754,-0.539071,-2.84191,0
19310,-1.10918,-0.535823,-2.84055,0
19330,-1.11014,-0.532536,-2.83915,0
19350,-1.11029,-0.530319,-2.83801,0
19370,-1.1106,-0.528046,-2.83756,0
19390,-1.11204,-0.525977,-2.83717,0
19410,-1.11365,-0.524177,-2.83644,0
19430,-1.11475,-0.522107,-2.83606,0
19450,-1.11519,-0.520082,-2.83628,0
19470,-1.11506,-0.517296,-2.83705,0
19490,-1.11517,-0.514414,-2.83714,0
19510,-1.11457,-0.511992,-2.83671,0
19530,-1.11405,-0.510334,-2.83601,0
19550,-1.11477,-0.508568,-2.83562,0
19570,-1.11685,-0.506093,-2.83507,0
19590,-1.11885,-0.503834,-2.83411,0
19610,-1.11969,-0.501398,-2.83288,0
19630,-1.12016,-0.498974,-2.83064,0
19650,-1.12047,-0.497293,-2.82785,0
19670,-1.12161,-0.495719,-2.82524,0
19690,-1.12388,-0.494001,-2.82266,0
19710,-1.12699,-0.491938,-2.81977,0
19730,-1.13026,-0.490034,-2.81667,0
19750,-1.13275,-0.488477,-2.81363,0
19770,-1.13423,-0.487471,-2.81099,0
19790,-1.13582,-0.48628,-2.80831,0
19810,-1.13743,-0.485393,-2.80537,0
19830,-1.13861,-0.484803,-2.80317,0
19850,-1.13982,-0.483916,-2.80099,0
19870,-1.14172,-0.48332,-2.79829,0
19890,-1.14309,-0.482865,-2.79608,0
19910,-1.1453,-0.482384,-2.79308,0
19930,-1.14774,-0.481208,-2.7905,0
19950,-1.15087,-0.47951,-2.78762,0
19970,-1.15353,-0.478331,-2.78482,0
19990,-1.15598,-0.476696,-2.78179,0
20010,-1.15793,-0.475441,-2.77887,0
20030,-1.15933,-0.474454,-2.7761,0
20050,-1.16099,-0.474151,-2.7732,0
20070,-1.16261,-0.474208,-2.77036,0
20090,-1.16474,-0.473905,-2.76699,0
20110,-1.1672,-0.473376,-2.76327,0
20130,-1.17001,-0.472431,-2.75943,0
20150,-1.17291,-0.471104,-2.75604,0
20170,-1.17571,-0.468834,-2.75213,0
20190,-1.17853,-0.466935,-2.74837,0
20210,-1.18055,-0.465041,-2.74505,0
20230,-1.18179,-0.463195,-2.74226,0
20250,-1.18279,-0.461397,-2.73906,0
20270,-1.18368,-0.459997,-2.73523,0
20290,-1.1846,-0.458911,-2.73164,0
20340,-1.1885,-0.454799,-2.72216,0
20360,-1.19006,-0.453488,-2.71904,0
20380,-1.19125,-0.451984,-2.71584,0
20400,-1.19324,-0.450845,-2.71184,0
20420,-1.1947,-0.450194,-2.70803,0
20440,-1.19568,-0.449617,-2.70479,0
20460,-1.19659,-0.448928,-2.70161,0
20480,-1.19907,-0.448472,-2.69724,0
20500,-1.20176,-0.448315,-2.69314,0
20520,-1.20439,-0.447478,-2.6892,0
20540,-1.20738,-0.446256,-2.68526,0
20560,-1.21092,-0.444838,-2.68035,0
20580,-1.21389,-0.443896,-2.67638,0
20600,-1.21696,-0.4422,-2.67252,0
20620,-1.2205,-0.440705,-2.66807,0
20640,-1.22321,-0.439538,-2.66328,0
20660,-1.22431,-0.438622,-2.65865,0
20680,-1.22554,-0.438284,-2.65397,0
20690,-1.22762,-0.437814,-2.64917,0
20710,-1.23126,-0.437004,-2.64437,0
20730,-1.23557,-0.436303,-2.63964,0
20750,-1.23856,-0.435304,-2.63524,0
20770,-1.24081,-0.434636,-2.63074,0
20790,-1.24248,-0.434129,-2.62713,0
20810,-1.2443,-0.433517,-2.6239,0
20830,-1.24673,-0.432984,-2.61939,0
20850,-1.24918,-0.432848,-2.61502,0
20870,-1.2513,-0.432389,-2.61108,0
20890,-1.25359,-0.431573,-2.60767,0
20910,-1.25694,-0.431175,-2.60382,0
20930,-1.25951,-0.431344,-2.59997,0
20950,-1.26018,-0.431626,-2.59662,0
20970,-1.26069,-0.431988,-2.59317,0
20990,-1.26175,-0.432269,-2.58893,0
21010,-1.26378,-0.432177,-2.5846,0
21030,-1.26634,-0.43231,-2.58049,0
21050,-1.26945,-0.432277,-2.5762,0
21070,-1.27355,-0.431863,-2.57113,0
21090,-1.27721,-0.43109,-2.56594,0
21110,-1.27953,-0.430583,-2.5614,0
21130,-1.28164,-0.430498,-2.55667,0
21150,-1.2838,-0.43079,-2.55155,0
21170,-1.28564,-0.430995,-2.5467,0
21190,-1.28753,-0.431212,-2.54213,0
21210,-1.28951,-0.431486,-2.5374,0
21230,-1.29168,-0.431965,-2.53256,0
21250,-1.2937,-0.432275,-2.52795,0
21270,-1.29573,-0.432326,-2.52365,0
21290,-1.29825,-0.432434,-2.51982,0
21310,-1.30026,-0.432434,-2.51597,0
21330,-1.30212,-0.432948,-2.51158,0
21350,-1.30332,-0.433919,-2.50743,0
21370,-1.30409,-0.434459,-2.50378,0
21390,-1.30509,-0.434931,-2.50036,0
21410,-1.30622,-0.435407,-2.49696,0
21430,-1.30662,-0.435676,-2.49357,0
21450,-1.30669,-0.43558,-2.48986,0
21470,-1.30694,-0.435859,-2.4855,0
21490,-1.30743,-0.436832,-2.48164,0
21510,-1.30851,-0.437135,-2.47822,0
21530,-1.31063,-0.436856,-2.47404,0
21550,-1.31252,-0.436807,-2.46911,0
21570,-1.31424,-0.437175,-2.46454,0
21590,-1.31646,-0.437676,-2.45927,0
21610,-1.3189,-0.438263,-2.4537,0
21630,-1.32147,-0.439342,-2.44832,0
21650,-1.32397,-0.440894,-2.44312,0
21670,-1.32643,-0.443156,-2.43738,0
21690,-1.32893,-0.445413,-2.43164,0
21710,-1.33065,-0.44814,-2.42584,0
21730,-1.33207,-0.450892,-2.41969,0
21750,-1.33397,-0.453648,-2.41291,0
21770,-1.33737,-0.456232,-2.40539,0
21790,-1.34212,-0.459059,-2.39725,0
21810,-1.34709,-0.462155,-2.38963,0
21830,-1.35207,-0.464694,-2.38169,0
21850,-1.35699,-0.467028,-2.37346,0
21870,-1.3617,-0.469789,-2.36499,0
21890,-1.3665,-0.472351,-2.3565,0
21910,-1.37071,-0.474985,-2.3484,0
21930,-1.3747,-0.477361,-2.33964,0
21950,-1.37908,-0.480044,-2.33069,0
21970,-1.38344,-0.483256,-2.3223,0
21990,-1.38819,-0.486362,-2.31414,0
22010,-1.39435,-0.489448,-2.30572,0
22030,-1.40109,-0.49183,-2.29726,0
22050,-1.40782,-0.493873,-2.28865,0
22070,-1.41288,-0.496715,-2.28069,0
22090,-1.41695,-0.499183,-2.27263,0
22110,-1.42112,-0.501642,-2.26489,0
22130,-1.42524,-0.503131,-2.2579,0
22150,-1.42889,-0.503851,-2.25206,0
22170,-1.43364,-0.504082,-2.24478,0
22190,-1.4392,-0.504198,-2.23671,0
22210,-1.44315,-0.504584,-2.22935,0
22230,-1.44592,-0.505133,-2.22299,0
22250,-1.44942,-0.505631,-2.21689,0
22270,-1.45354,-0.505367,-2.21037,0
22290,-1.45736,-0.505172,-2.20308,0
22310,-1.46054,-0.506035,-2.19566,0
22330,-1.4637,-0.507596,-2.18847,0
22350,-1.46673,-0.509649,-2.18171,0
22370,-1.46955,-0.511492,-2.17512,0
22390,-1.47181,-0.513817,-2.16831,0
22410,-1.47394,-0.516591,-2.1607,0
22430,-1.47539,-0.520483,-2.15334,0
22450,-1.47757,-0.524456,-2.14625,0
22470,-1.48119,-0.528153,-2.13911,0
22490,-1.48488,-0.531988,-2.13238,0
22510,-1.48794,-0.535512,-2.12598,0
22530,-1.48995,-0.53941,-2.12011,0
22550,-1.49175,-0.543495,-2.11407,0
22570,-1.49414,-0.547271,-2.1081,0
22590,-1.49659,-0.550986,-2.10228,0
22610,-1.49824,-0.554962,-2.0969,0
22630,-1.50011,-0.559289,-2.09093,0
22650,-1.50106,-0.563803,-2.08587,0
22670,-1.50092,-0.568118,-2.08103,0
22690,-1.50032,-0.573236,-2.07607,0
22710,-1.5005,-0.579123,-2.0706,0
22730,-1.50114,-0.585081,-2.0657,0
22750,-1.50194,-0.590691,-2.06114,0
22770,-1.50212,-0.596619,-2.05665,0
22790,-1.50193,-0.60299,-2.05229,0
22810,-1.50271,-0.609112,-2.04738,0
22830,-1.50442,-0.614876,-2.0417,0
22850,-1.50684,-0.621375,-2.03568,0
22870,-1.50918,-0.62827,-2.03026,0
22890,-1.51151,-0.634724,-2.02545,0
22910,-1.5145,-0.639839,-2.0204,0
22930,-1.51813,-0.644733,-2.01502,0
22950,-1.52087,-0.649257,-2.01026,0
22970,-1.52277,-0.654098,-2.00633,0
22990,-1.52523,-0.659209,-2.00286,0
23010,-1.52703,-0.663163,-2.00036,0
23030,-1.52798,-0.667273,-1.99813,0
23050,-1.52886,-0.671856,-1.99617,0
23070,-1.52985,-0.676567,-1.99472,0
23090,-1.53169,-0.680312,-1.9933,0
23110,-1.53295,-0.683371,-1.99238,0
23130,-1.53369,-0.686808,-1.99169,0
23150,-1.53385,-0.691101,-1.99189,0
23170,-1.53543,-0.695137,-1.99176,0
23190,-1.53744,-0.698504,-1.99206,0
23210,-1.53741,-0.701845,-1.9935,0
23230,-1.53622,-0.705952,-1.995,0
23250,-1.53526,-0.711498,-1.99727,0
23270,-1.53547,-0.716362,-1.99955,0
23290,-1.53538,-0.720819,-2.00157,0
23310,-1.53493,-0.724924,-2.00357,0
23330,-1.53429,-0.729468,-2.00641,0
23350,-1.53349,-0.733292,-2.01012,0
23370,-1.53203,-0.736601,-2.0131,0
23390,-1.53063,-0.741174,-2.01548,0
23410,-1.52948,-0.746236,-2.01745,0
23430,-1.52883,-0.751248,-2.01988,0
23450,-1.52855,-0.755668,-2.02214,0
23470,-1.52834,-0.759709,-2.02365,0
23490,-1.5284,-0.764306,-2.02437,0
23510,-1.52954,-0.768789,-2.02474,0
23530,-1.53093,-0.772763,-2.02486,0
23550,-1.53117,-0.776968,-2.02513,0
23570,-1.53248,-0.781199,-2.02446,0
23590,-1.53331,-0.785441,-2.02501,0
23610,-1.53383,-0.78962,-2.02636,0
23630,-1.53321,-0.792618,-2.02835,0
23650,-1.53285,-0.795512,-2.02978,0
23670,-1.53241,-0.79878,-2.03079,0
23690,-1.53223,-0.802925,-2.03112,0
23710,-1.53334,-0.807706,-2.03083,0
23730,-1.53593,-0.812549,-2.03091,0
23750,-1.53755,-0.816739,-2.03153,0
23770,-1.53869,-0.820818,-2.03144,0
23790,-1.54006,-0.824788,-2.03099,0
23810,-1.54197,-0.83026,-2.02978,0
23830,-1.54397,-0.836638,-2.02919,0
23850,-1.5468,-0.842491,-2.02842,0
23870,-1.54913,-0.848091,-2.02801,0
23890,-1.54999,-0.85365,-2.02795,0
23910,-1.55074,-0.8596,-2.0277,0
23930,-1.55188,-0.865753,-2.02728,0
23950,-1.55373,-0.871857,-2.02668,0
23970,-1.55604,-0.877676,-2.0264,0
23990,-1.55743,-0.88357,-2.02711,0
24010,-1.55833,-0.889312,-2.02766,0
24030,-1.55947,-0.894701,-2.0282,0
24050,-1.56081,-0.900301,-2.02829,0
24070,-1.56052,-0.905951,-2.03033,0
24090,-1.55962,-0.912055,-2.03357,0
24100,-1.55943,-0.91843,-2.03605,0
24120,-1.55891,-0.924581,-2.03891,0
24140,-1.55838,-0.931109,-2.0412,0
24160,-1.55713,-0.937355,-2.045,0
24180,-1.5567,-0.944564,-2.04881,0
24200,-1.55709,-0.951153,-2.05122,0
24220,-1.55776,-0.957646,-2.05326,0
24240,-1.55728,-0.963668,-2.05703,0
24260,-1.55665,-0.969228,-2.0613,0
24280,-1.55543,-0.974867,-2.06598,0
24300,-1.55395,-0.980065,-2.0705,0
24320,-1.55207,-0.984941,-2.07536,0
24340,-1.55038,-0.99006,-2.08095,0
24360,-1.54569,-0.994939,-2.08966,0
24380,-1.53881,-0.999841,-2.10048,0
24400,-1.53208,-1.00438,-2.11041,0
24420,-1.52639,-1.0087,-2.11889,0
24440,-1.5201,-1.01312,-2.12739,0
24460,-1.51521,-1.01795,-2.13569,0
24480,-1.50531,-1.02683,-2.15398,0
24500,-1.49986,-1.03079,-2.16313,0
24520,-1.49542,-1.03517,-2.1713,0
24540,-1.49185,-1.0394,-2.17867,0
24560,-1.48753,-1.04344,-2.18685,0
24580,-1.48319,-1.04739,-2.19617,0
24600,-1.47695,-1.05018,-2.20687,0
24620,-1.47034,-1.0532,-2.21731,0
24640,-1.46361,-1.05622,-2.22751,0
24660,-1.45822,-1.05953,-2.23717,0
24680,-1.45163,-1.063,-2.24728,0
24700,-1.44526,-1.06655,-2.25814,0
24720,-1.43801,-1.06933,-2.26989,0
24740,-1.43046,-1.07201,-2.28124,0
24760,-1.42293,-1.0747,-2.29235,0
24780,-1.41417,-1.07743,-2.30523,0
24800,-1.40545,-1.07983,-2.3181,0
24820,-1.3968,-1.08185,-2.33135,0
24840,-1.3871,-1.08345,-2.34478,0
24860,-1.3778,-1.08501,-2.35801,0
24880,-1.3677,-1.08688,-2.37184,0
24900,-1.35809,-1.08849,-2.3854,0
24920,-1.34778,-1.08955,-2.39903,0
24940,-1.33826,-1.09103,-2.41154,0
24960,-1.32927,-1.09274,-2.42372,0
24980,-1.32044,-1.09408,-2.43607,0
25000,-1.31239,-1.09455,-2.44775,0
25020,-1.30378,-1.09406,-2.46024,0
25040,-1.29451,-1.09253,-2.47299,0
25060,-1.28516,-1.09019,-2.48588,0
25080,-1.27554,-1.08783,-2.49775,0
25100,-1.26538,-1.08548,-2.50938,0
25120,-1.25442,-1.08302,-2.52203,0
25140,-1.24206,-1.07971,-2.53703,0
25160,-1.23069,-1.07522,-2.55225,0
25180,-1.21901,-1.07006,-2.56665,0
25200,-1.20567,-1.066,-2.58112,0
25220,-1.19445,-1.06335,-2.59433,0
25240,-1.18464,-1.06018,-2.60736,0
25260,-1.17508,-1.05607,-2.62035,0
25280,-1.16606,-1.0513,-2.63267,0
25300,-1.15807,-1.0462,-2.64339,0
25310,-1.15174,-1.04139,-2.65274,0
25340,-1.14557,-1.03671,-2.66152,0
25360,-1.14105,-1.03246,-2.66823,0
25380,-1.13644,-1.02916,-2.6739,0
25400,-1.13063,-1.02586,-2.6805,0
25420,-1.1256,-1.02261,-2.68666,0
25440,-1.12355,-1.0203,-2.68935,0
25460,-1.12113,-1.01865,-2.69167,0
25500,-1.11878,-1.0095,-2.697,0
25520,-1.11837,-1.00719,-2.6979,0
25540,-1.11641,-1.00416,-2.69986,0
25560,-1.11289,-1.00027,-2.70422,0
25580,-1.11023,-0.995817,-2.70767,0
25600,-1.10898,-0.992299,-2.70947,0
25620,-1.10742,-0.988856,-2.71113,0
25640,-1.10451,-0.985267,-2.71412,0
25660,-1.10259,-0.981267,-2.71581,0
25680,-1.10087,-0.976809,-2.71852,0
25700,-1.09928,-0.971538,-2.72232,0
25720,-1.09847,-0.965301,-2.72577,0
25740,-1.09805,-0.959282,-2.72877,0
25760,-1.09728,-0.953806,-2.73058,0
25780,-1.09607,-0.94817,-2.73373,0
25800,-1.09818,-0.943281,-2.73496,0
25820,-1.10046,-0.938043,-2.73614,0
25840,-1.10124,-0.933245,-2.73842,0
25860,-1.09929,-0.928661,-2.74351,0
25880,-1.09824,-0.923462,-2.74887,0
25900,-1.09916,-0.917413,-2.75346,0
25920,-1.10066,-0.910647,-2.75655,0
25940,-1.10035,-0.904723,-2.75869,0
25960,-1.09796,-0.90038,-2.76096,0
25980,-1.09515,-0.895857,-2.76449,0
26000,-1.09219,-0.890211,-2.76943,0
26020,-1.09253,-0.884992,-2.77225,0
26040,-1.09305,-0.880678,-2.77358,0
26050,-1.09234,-0.876588,-2.7749,0
26070,-1.09197,-0.872419,-2.77541,0
26090,-1.09441,-0.868585,-2.77411,0
26110,-1.09788,-0.865015,-2.77255,0
26130,-1.10274,-0.862118,-2.77103,0
26150,-1.1086,-0.858998,-2.76924,0
26170,-1.11352,-0.855673,-2.76729,0
26190,-1.11756,-0.851709,-2.765,0
26210,-1.11989,-0.847401,-2.76361,0
26230,-1.12205,-0.842721,-2.76191,0
26250,-1.12294,-0.837711,-2.76073,0
26270,-1.12167,-0.83312,-2.76063,0
26290,-1.1193,-0.828827,-2.76208,0
26310,-1.11758,-0.823822,-2.76364,0
26330,-1.1169,-0.818832,-2.76534,0
26350,-1.11665,-0.814152,-2.7669,0
26370,-1.11659,-0.809405,-2.768,0
26390,-1.11588,-0.804281,-2.76912,0
26410,-1.11633,-0.800309,-2.76942,0
26430,-1.11675,-0.796559,-2.76983,0
26450,-1.11701,-0.792271,-2.77192,0
26470,-1.11809,-0.786512,-2.77481,0
26490,-1.1215,-0.780022,-2.77579,0
26510,-1.12497,-0.773685,-2.77532,0
26530,-1.12618,-0.76848,-2.77451,0
26550,-1.12598,-0.763431,-2.7747,0
26570,-1.12635,-0.757169,-2.77502,0
26590,-1.12861,-0.750139,-2.77463,0
26610,-1.13084,-0.744221,-2.77417,0
26630,-1.133,-0.73881,-2.77457,0
26650,-1.13521,-0.73331,-2.77399,0
26670,-1.13738,-0.728189,-2.77293,0
26690,-1.13945,-0.724017,-2.771,0
26710,-1.14116,-0.720584,-2.76951,0
26730,-1.14342,-0.71704,-2.7678,0
26750,-1.14686,-0.713876,-2.76498,0
26770,-1.15074,-0.711232,-2.76192,0
26790,-1.15313,-0.708331,-2.75939,0
26810,-1.15355,-0.705547,-2.75805,0
26830,-1.15099,-0.703075,-2.75745,0
26850,-1.14577,-0.700986,-2.75739,0
26870,-1.14131,-0.698668,-2.75686,0
26890,-1.14001,-0.696112,-2.75515,0
26910,-1.14097,-0.693002,-2.75265,0
26930,-1.14126,-0.688267,-2.75104,0
26950,-1.14146,-0.683542,-2.74973,0
26970,-1.14159,-0.679016,-2.74793,0
26990,-1.14273,-0.674942,-2.74519,0
27010,-1.14333,-0.671315,-2.74268,0
27030,-1.14259,-0.668444,-2.74066,0
27050,-1.14228,-0.666126,-2.739,0
27070,-1.14324,-0.66354,-2.73684,0
27090,-1.14538,-0.662096,-2.7341,0
27110,-1.14485,-0.660836,-2.73284,0
27130,-1.14255,-0.660142,-2.73174,0
27150,-1.14066,-0.660219,-2.72971,0
27170,-1.14023,-0.660062,-2.7278,0
27190,-1.14122,-0.659073,-2.72641,0
27210,-1.14304,-0.657267,-2.72474,0
27230,-1.14531,-0.655062,-2.7224,0
27250,-1.14835,-0.652126,-2.71858,0
27270,-1.15161,-0.649368,-2.71455,0
27290,-1.15511,-0.647446,-2.71001,0
27310,-1.15819,-0.646085,-2.7056,0
27330,-1.16039,-0.645211,-2.70175,0
27350,-1.16272,-0.644455,-2.69727,0
27370,-1.1658,-0.643894,-2.69233,0
27390,-1.16967,-0.642558,-2.68697,0
27410,-1.17321,-0.640807,-2.68123,0
27430,-1.17607,-0.639543,-2.67548,0
27450,-1.17862,-0.638463,-2.67005,0
27470,-1.18168,-0.63746,-2.6645,0
27490,-1.18519,-0.636396,-2.65889,0
27530,-1.1901,-0.634795,-2.64796,0
27550,-1.19213,-0.634385,-2.64203,0
27570,-1.19495,-0.633428,-2.63634,0
27590,-1.19903,-0.632315,-2.63027,0
27610,-1.20197,-0.631593,-2.62477,0
27630,-1.20469,-0.631561,-2.61872,0
27650,-1.2073,-0.631391,-2.61245,0
27670,-1.20995,-0.631356,-2.60669,0
27690,-1.21232,-0.631202,-2.60099,0
27710,-1.2151,-0.631152,-2.59497,0
27730,-1.21782,-0.630841,-2.58881,0
27750,-1.22074,-0.630449,-2.58258,0
27770,-1.22344,-0.630137,-2.57643,0
27780,-1.22631,-0.629933,-2.57025,0
27800,-1.2293,-0.629664,-2.56395,0
27820,-1.23208,-0.629577,-2.55741,0
27840,-1.23498,-0.629544,-2.55069,0
27860,-1.23853,-0.629719,-2.54332,0
27880,-1.24264,-0.629734,-2.53548,0
27900,-1.24676,-0.629621,-2.52834,0
27920,-1.2504,-0.629141,-2.52137,0
27940,-1.25429,-0.628752,-2.51381,0
27960,-1.25808,-0.628664,-2.50564,0
27980,-1.26191,-0.62889,-2.4974,0
28000,-1.26586,-0.628863,-2.48989,0
28030,-1.28346,-0.628007,-2.46171,0
28050,-1.2873,-0.62807,-2.45443,0
28070,-1.29086,-0.628669,-2.4473,0
28080,-1.29863,-0.630153,-2.43448,0
28100,-1.30329,-0.63071,-2.42758,0
28120,-1.30773,-0.631589,-2.42028,0
28140,-1.31084,-0.632847,-2.41351,0
28160,-1.31383,-0.634187,-2.40712,0
28180,-1.31796,-0.635591,-2.39969,0
28200,-1.32322,-0.637056,-2.3915,0
28220,-1.32936,-0.638538,-2.3827,0
28240,-1.33546,-0.640452,-2.37344,0
28260,-1.34081,-0.642883,-2.36387,0
28280,-1.34522,-0.646138,-2.3546,0
28300,-1.34992,-0.649243,-2.34579,0
28320,-1.35554,-0.652292,-2.33654,0
28340,-1.3611,-0.655278,-2.3274,0
28360,-1.36629,-0.658222,-2.31776,0
28380,-1.37127,-0.661584,-2.30752,0
28400,-1.37558,-0.66551,-2.2973,0
28420,-1.37978,-0.67013,-2.28701,0
28440,-1.38603,-0.673852,-2.27628,0
28460,-1.39384,-0.677129,-2.26556,0
28480,-1.40135,-0.679365,-2.25565,0
28500,-1.4085,-0.681926,-2.24615,0
28520,-1.41526,-0.684856,-2.23632,0
28540,-1.42124,-0.6877,-2.22669,0
28560,-1.4272,-0.690268,-2.2167,0
28580,-1.4326,-0.693606,-2.20712,0
28600,-1.43809,-0.69708,-2.19777,0
28620,-1.44412,-0.7008,-2.18823,0
28640,-1.45073,-0.704606,-2.17801,0
28660,-1.45692,-0.708965,-2.16736,0
28680,-1.46423,-0.712983,-2.15577,0
28700,-1.47271,-0.717046,-2.14395,0
28720,-1.48149,-0.720812,-2.13173,0
28740,-1.4907,-0.724965,-2.11969,0
28760,-1.50022,-0.72904,-2.10756,0
28780,-1.50828,-0.733702,-2.09583,0
28800,-1.51567,-0.738685,-2.08337,0
28820,-1.52247,-0.744958,-2.07016,0
28840,-1.52835,-0.752467,-2.05673,0
28860,-1.53348,-0.761013,-2.04447,0
28880,-1.53854,-0.770492,-2.03301,0
28900,-1.54383,-0.779445,-2.02215,0
28920,-1.54966,-0.788399,-2.00979,0
28940,-1.5558,-0.797389,-1.99601,0
28960,-1.56148,-0.806477,-1.98254,0
28980,-1.56834,-0.814633,-1.96872,0
29000,-1.57703,-0.821875,-1.95493,0
29020,-1.58597,-0.82906,-1.94105,0
29040,-1.59197,-0.836958,-1.92942,0
29060,-1.59809,-0.845396,-1.91663,0
29080,-1.60577,-0.853181,-1.90329,0
29100,-1.61273,-0.86073,-1.89195,0
29120,-1.61804,-0.867868,-1.88176,0
29140,-1.62338,-0.875332,-1.87046,0
29160,-1.62891,-0.883116,-1.8598,0
29180,-1.63339,-0.890756,-1.85016,0
29200,-1.63678,-0.898507,-1.84255,0
29220,-1.641,-0.90568,-1.83504,0
29240,-1.64592,-0.9118,-1.82753,0
29260,-1.64817,-0.916386,-1.82188,0
29280,-1.64881,-0.921445,-1.81729,0
29300,-1.65074,-0.926621,-1.81203,0
29320,-1.6522,-0.931367,-1.80752,0
29340,-1.65347,-0.93746,-1.8038,0
29360,-1.65405,-0.943642,-1.80107,0
29380,-1.65405,-0.950189,-1.79888,0
29390,-1.65366,-0.957191,-1.79637,0
29410,-1.65254,-0.964308,-1.79338,0
29430,-1.65272,-0.972726,-1.78932,0
29450,-1.65324,-0.980893,-1.78574,0
29470,-1.65458,-0.988276,-1.78209,0
29490,-1.6554,-0.99499,-1.77766,0
29510,-1.65927,-1.00238,-1.76953,2001
29530,-1.66679,-1.00993,-1.76035,0
29550,-1.67363,-1.01712,-1.75323,0
29570,-1.67884,-1.02323,-1.74875,0
29590,-1.68276,-1.02762,-1.74422,0
29610,-1.68741,-1.03137,-1.73859,0
29630,-1.6917,-1.03508,-1.73311,0
29650,-1.69511,-1.03915,-1.72928,0
29670,-1.69799,-1.04231,-1.72674,0
29690,-1.69792,-1.04375,-1.72642,0
29710,-1.70041,-1.04364,-1.7236,0
29730,-1.70233,-1.04193,-1.72215,0
29750,-1.70067,-1.03963,-1.72467,0
29770,-1.69651,-1.03667,-1.73019,0
29790,-1.69237,-1.03299,-1.73656,0
29810,-1.68818,-1.02854,-1.74232,0
29830,-1.68429,-1.02348,-1.7472,0
29850,-1.67783,-1.01888,-1.75481,0
29870,-1.67011,-1.01452,-1.76477,0
29890,-1.65992,-1.00966,-1.77844,0
29910,-1.64705,-1.00345,-1.7952,0
29930,-1.63286,-0.994923,-1.81239,0
29950,-1.61624,-0.985543,-1.83117,0
29970,-1.59739,-0.976415,-1.85392,0
29990,-1.57812,-0.965965,-1.8783,0
30010,-1.5599,-0.952977,-1.90168,0
30030,-1.54229,-0.9381,-1.9244,0
30050,-1.52313,-0.921795,-1.94808,0
30070,-1.50176,-0.906118,-1.97465,0
30090,-1.48233,-0.8889,-2.0007,0
30110,-1.46309,-0.869038,-2.0262,0
30130,-1.44194,-0.847827,-2.05186,0
30150,-1.42019,-0.828242,-2.07534,0
30170,-1.4002,-0.810823,-2.09784,0
30190,-1.38096,-0.791987,-2.11968,0
30210,-1.35919,-0.771659,-2.14149,0
30230,-1.33775,-0.75097,-2.16048,0
30250,-1.31557,-0.732628,-2.17958,0
30270,-1.29477,-0.715671,-2.1986,0
30290,-1.27451,-0.696851,-2.21493,0
30310,-1.25598,-0.677367,-2.22704,0
30330,-1.23503,-0.660381,-2.2417,0
30350,-1.21165,-0.644354,-2.26022,0
30370,-1.18753,-0.628543,-2.27896,0
30390,-1.16499,-0.612825,-2.29361,0
30410,-1.14466,-0.599771,-2.30451,0
30430,-1.12534,-0.587932,-2.31499,0
30450,-1.10661,-0.576443,-2.32768,0
30470,-1.0876,-0.564817,-2.34194,0
30490,-1.06976,-0.553311,-2.35502,0
30510,-1.05059,-0.542368,-2.36856,0
30530,-1.02937,-0.531674,-2.38363,0
30550,-1.00837,-0.51988,-2.39835,0
30570,-0.988287,-0.508539,-2.41254,0
30590,-0.96573,-0.497211,-2.42762,0
30610,-0.941459,-0.484985,-2.44666,0
30630,-0.919725,-0.470941,-2.46423,0
30650,-0.899617,-0.457808,-2.47699,0
30670,-0.875621,-0.444437,-2.49032,0
30690,-0.852706,-0.428274,-2.50491,0
30710,-0.834235,-0.408894,-2.51851,0
30730,-0.820385,-0.38928,-2.53001,0
30750,-0.802443,-0.37119,-2.54329,0
30770,-0.780066,-0.353464,-2.55906,0
30810,-0.740558,-0.315036,-2.58756,0
30830,-0.722555,-0.297686,-2.59919,0
30850,-0.705002,-0.279697,-2.60977,0
30870,-0.689183,-0.259575,-2.62186,0
30890,-0.676633,-0.238048,-2.6311,0
30910,-0.666494,-0.216529,-2.63658,0
30930,-0.656479,-0.195805,-2.64089,0
30950,-0.648934,-0.175525,-2.64503,0
30970,-0.642414,-0.155085,-2.64998,0
30990,-0.642026,-0.134783,-2.6536,0
31010,-0.64185,-0.118403,-2.65361,0
31030,-0.638134,-0.104895,-2.65456,0
31050,-0.631094,-0.094544,-2.6562,0
31070,-0.623409,-0.0873846,-2.65729,0
31090,-0.614402,-0.0821595,-2.66058,0
31110,-0.612339,-0.0794685,-2.66447,0
31130,-0.611181,-0.0788627,-2.66982,0
31150,-0.610598,-0.0799463,-2.67508,0
31170,-0.609812,-0.0821016,-2.67852,0
31190,-0.608078,-0.083894,-2.68139,0
31210,-0.607403,-0.084903,-2.68378,0
31230,-0.608722,-0.0855299,-2.68636,0
31250,-0.609729,-0.0863109,-2.68834,0
31270,-0.608325,-0.0877414,-2.68987,0
31290,-0.605463,-0.0880353,-2.6914,0
31310,-0.603729,-0.0876982,-2.69209,0
31330,-0.603,-0.0868737,-2.6932,0
31350,-0.602076,-0.0853082,-2.69478,0
31370,-0.600861,-0.0827796,-2.69642,0
31380,-0.599798,-0.0792411,-2.69746,0
31400,-0.598814,-0.075104,-2.69742,0
31420,-0.597485,-0.0708345,-2.698,0
31440,-0.595764,-0.0669809,-2.69968,0
31460,-0.594472,-0.0637051,-2.70096,0
31480,-0.593063,-0.0609002,-2.70197,0
31500,-0.592008,-0.0589283,-2.70249,0
31520,-0.592013,-0.058791,-2.7025,0
31540,-0.591814,-0.0585868,-2.70254,0
31560,-0.591917,-0.0579662,-2.70273,0
31580,-0.592081,-0.0578249,-2.70324,0
31600,-0.592809,-0.0577006,-2.7038,0
31620,-0.593555,-0.057749,-2.70405,0
31640,-0.594206,-0.0577988,-2.70424,0
31660,-0.595275,-0.0580619,-2.70456,0
31680,-0.596363,-0.0583707,-2.70507,0
31700,-0.596651,-0.058241,-2.7057,0
31720,-0.596675,-0.0585037,-2.70616,0
31740,-0.596787,-0.0590296,-2.70624,0
31760,-0.597022,-0.0594515,-2.70606,0
31780,-0.59683,-0.0598084,-2.70625,0
31800,-0.597247,-0.0594374,-2.70662,0
31820,-0.597224,-0.059759,-2.70591,0
31840,-0.59678,-0.0610585,-2.70556,0
31860,-0.595737,-0.0617558,-2.70584,0
31880,-0.595607,-0.0620102,-2.70529,0
31900,-0.595537,-0.0626307,-2.70468,0
31920,-0.594706,-0.0635017,-2.70351,0
31940,-0.593717,-0.0637913,-2.70201,0
31960,-0.594519,-0.0643699,-2.70057,0
31980,-0.59507,-0.0658886,-2.69991,0
32000,-0.595339,-0.0672481,-2.70071,0
32020,-0.59561,-0.0688107,-2.7026,0
32040,-0.597008,-0.0699505,-2.70433,0
32060,-0.598593,-0.0705185,-2.70559,0
32080,-0.599499,-0.0713917,-2.70606,0
32100,-0.59992,-0.072065,-2.70643,0
32120,-0.600643,-0.0719662,-2.70659,0
32140,-0.602037,-0.0719659,-2.70713,0
32160,-0.603165,-0.0715329,-2.70778,0
32180,-0.603864,-0.0718831,-2.70812,0
32200,-0.604629,-0.0728274,-2.70786,0
32220,-0.605147,-0.0748589,-2.70627,0
32240,-0.605825,-0.0776631,-2.70342,0
32260,-0.608547,-0.0824258,-2.70065,0
32280,-0.613655,-0.0885988,-2.6964,0
32300,-0.619249,-0.0965791,-2.69192,0
32320,-0.626253,-0.106851,-2.68769,0
32340,-0.636197,-0.117023,-2.68423,0
32360,-0.647453,-0.125754,-2.68165,0
32380,-0.65729,-0.134443,-2.67916,0
32400,-0.664575,-0.142442,-2.67691,0
32420,-0.670522,-0.150617,-2.67469,0
32440,-0.677458,-0.159154,-2.6701,0
32460,-0.687478,-0.169122,-2.66212,0
32480,-0.699793,-0.180891,-2.65293,0
32500,-0.713822,-0.194995,-2.64562,0
32520,-0.730075,-0.209411,-2.63889,0
32540,-0.748003,-0.222273,-2.63174,0
32560,-0.764496,-0.23595,-2.62541,0
32580,-0.777884,-0.249802,-2.61828,0
32600,-0.788862,-0.263425,-2.61083,0
32620,-0.797931,-0.276625,-2.60467,0
32640,-0.80671,-0.289246,-2.5996,0
32660,-0.815818,-0.300875,-2.59349,0
32680,-0.824429,-0.31175,-2.58615,0
32700,-0.832595,-0.324432,-2.57973,0
32720,-0.840744,-0.335112,-2.57567,0
32740,-0.849383,-0.343925,-2.56895,0
32760,-0.856299,-0.352886,-2.56336,0
32780,-0.859442,-0.359535,-2.55889,0
32800,-0.860385,-0.364421,-2.55424,0
32820,-0.860669,-0.368182,-2.55215,0
32840,-0.860255,-0.369403,-2.55098,0
32860,-0.859219,-0.367572,-2.54989,0
32880,-0.856135,-0.364325,-2.5492,0
32900,-0.854614,-0.3597,-2.54707,0
32920,-0.85346,-0.355202,-2.54401,0
32940,-0.852756,-0.352084,-2.54207,0
32960,-0.853122,-0.347527,-2.53972,0
32980,-0.856279,-0.343119,-2.53616,0
33000,-0.861068,-0.340742,-2.53355,0
33020,-0.866113,-0.339274,-2.53119,0
33040,-0.870464,-0.339148,-2.52781,0
33060,-0.875434,-0.341135,-2.52285,0
33080,-0.881112,-0.346092,-2.51731,0
33100,-0.887551,-0.353855,-2.51077,0
33120,-0.894269,-0.362247,-2.50405,0
33140,-0.90182,-0.371256,-2.495,0
33160,-0.908801,-0.381366,-2.48459,0
33180,-0.914596,-0.391468,-2.47507,0
33200,-0.920963,-0.400281,-2.4649,0
33220,-0.930127,-0.407358,-2.4527,0
33240,-0.94032,-0.412939,-2.43915,0
33260,-0.94881,-0.417814,-2.4282,0
33280,-0.957793,-0.421806,-2.41733,0
33300,-0.966765,-0.425325,-2.40547,0
33320,-0.973361,-0.429762,-2.39654,0
33340,-0.97899,-0.432885,-2.38931,0
33360,-0.986451,-0.435766,-2.37829,0
33370,-0.991543,-0.438368,-2.36896,0
33400,-1.00116,-0.446883,-2.35481,0
33430,-1.01093,-0.454774,-2.34104,0
33450,-1.01478,-0.458404,-2.33673,0
33460,-1.01887,-0.461619,-2.3334,0
33480,-1.02638,-0.466089,-2.3246,0
33490,-1.02969,-0.466906,-2.32162,0
33510,-1.03337,-0.467024,-2.31879,0
33530,-1.03673,-0.46676,-2.31741,0
33550,-1.03886,-0.465359,-2.31527,0
33570,-1.04039,-0.46287,-2.31331,0
33590,-1.04136,-0.460578,-2.31237,0
33610,-1.04205,-0.458964,-2.31229,0
33630,-1.04241,-0.457111,-2.31216,0
33650,-1.04246,-0.455743,-2.31114,0
33670,-1.04115,-0.454529,-2.31188,0
33690,-1.03984,-0.454304,-2.31226,0
33710,-1.03982,-0.45515,-2.31191,0
33730,-1.03987,-0.455802,-2.31156,0
33750,-1.04051,-0.456523,-2.31076,0
33770,-1.04099,-0.456954,-2.30891,0
33790,-1.04121,-0.457944,-2.30667,0
33810,-1.04179,-0.459776,-2.30398,0
33830,-1.0429,-0.462361,-2.30044,0
33850,-1.04362,-0.4653,-2.29737,0
33870,-1.04432,-0.468048,-2.29451,0
33890,-1.0447,-0.470009,-2.29225,0
33910,-1.0442,-0.473941,-2.29129,0
33930,-1.04243,-0.478286,-2.29134,0
33950,-1.04166,-0.482813,-2.29139,0
33970,-1.04261,-0.487259,-2.29137,0
33990,-1.04239,-0.491279,-2.29247,0
34010,-1.04262,-0.495543,-2.29263,0
34030,-1.04343,-0.498861,-2.29193,0
34050,-1.04455,-0.501199,-2.29083,0
34070,-1.04602,-0.50307,-2.28936,0
34090,-1.04879,-0.504532,-2.28721,0
34110,-1.05158,-0.5053,-2.28575,0
34130,-1.05319,-0.504893,-2.28565,0
34150,-1.0539,-0.50361,-2.28529,0
34170,-1.05385,-0.501447,-2.28366,0
34190,-1.05336,-0.498375,-2.282,0
34210,-1.05248,-0.495882,-2.28124,0
34230,-1.05131,-0.494491,-2.28182,0
34250,-1.05177,-0.493033,-2.28161,0
34270,-1.05238,-0.491852,-2.2817,0
34290,-1.05113,-0.490803,-2.28221,0
34310,-1.04875,-0.490651,-2.28408,0
34320,-1.0456,-0.49078,-2.2874,0
34340,-1.04229,-0.489841,-2.28879,0
34360,-1.04052,-0.489709,-2.28803,0
34380,-1.03939,-0.4902,-2.28964,0
34400,-1.04041,-0.491147,-2.29053,0
34420,-1.04038,-0.493156,-2.29044,0
34440,-1.03745,-0.49512,-2.29109,0
34460,-1.03299,-0.495734,-2.29176,0
34480,-1.03088,-0.495962,-2.29043,0
34500,-1.02934,-0.496459,-2.28864,0
34520,-1.02797,-0.497185,-2.28709,0
34540,-1.02798,-0.497064,-2.28507,0
34560,-1.0283,-0.49643,-2.28325,0
34580,-1.02854,-0.495026,-2.28087,0
34600,-1.02768,-0.494656,-2.27877,0
34620,-1.02696,-0.494258,-2.27708,0
34640,-1.02485,-0.493461,-2.27675,0
34660,-1.0234,-0.492988,-2.27578,0
34680,-1.02298,-0.492985,-2.2744,0
34700,-1.02317,-0.491995,-2.27353,0
34720,-1.02318,-0.490586,-2.27308,0
34730,-1.0232,-0.489376,-2.27199,0
34750,-1.02363,-0.488063,-2.27097,0
34770,-1.02531,-0.485885,-2.27084,0
34790,-1.02792,-0.483162,-2.27097,0
34810,-1.0295,-0.479377,-2.27169,0
34830,-1.02925,-0.475184,-2.27163,0
34850,-1.0279,-0.471624,-2.27134,0
34870,-1.02546,-0.469302,-2.27284,2000
34890,-1.02336,-0.466714,-2.27332,0
34910,-1.02414,-0.4648,-2.27376,0
34930,-1.02538,-0.464343,-2.27479,0
34950,-1.02577,-0.46354,-2.2755,0
34970,-1.02691,-0.462669,-2.27558,0
34990,-1.02994,-0.462858,-2.27432,0
35010,-1.03385,-0.462997,-2.27362,0
35030,-1.03701,-0.462058,-2.27325,0
35050,-1.03932,-0.460577,-2.27361,0
35070,-1.04042,-0.459003,-2.27363,0
35090,-1.041,-0.457028,-2.27417,0
35110,-1.04086,-0.453783,-2.27572,0
35130,-1.0403,-0.449897,-2.27773,0
35150,-1.03966,-0.44554,-2.27836,0
35170,-1.03907,-0.440987,-2.27828,0
35190,-1.0384,-0.436974,-2.27856,0
35210,-1.03909,-0.434221,-2.27858,0
35230,-1.04117,-0.432403,-2.27644,0
35250,-1.04337,-0.43233,-2.27348,0
35270,-1.04432,-0.432358,-2.27087,0
35290,-1.0453,-0.432641,-2.26844,0
35310,-1.04743,-0.432805,-2.26592,0
35330,-1.05003,-0.433462,-2.26338,0
35350,-1.05146,-0.434285,-2.261,0
35370,-1.05201,-0.435052,-2.25823,0
35390,-1.05224,-0.436089,-2.25573,0
35410,-1.05329,-0.437067,-2.25337,0
35430,-1.05543,-0.437935,-2.24923,0
35440,-1.05981,-0.442484,-2.24015,0
35460,-1.06305,-0.44522,-2.23507,0
35480,-1.067,-0.447606,-2.22948,0
35500,-1.07481,-0.45476,-2.21265,0
35540,-1.09037,-0.461344,-2.18722,0
35560,-1.09442,-0.463534,-2.18193,0
35580,-1.09918,-0.465012,-2.1765,0
35600,-1.10256,-0.466774,-2.17124,0
35620,-1.10465,-0.469857,-2.1671,0
35640,-1.10669,-0.473297,-2.16357,0
35660,-1.10907,-0.475771,-2.1605,0
35680,-1.11065,-0.478998,-2.15787,0
35700,-1.11195,-0.48187,-2.15571,0
35720,-1.11296,-0.484976,-2.15373,0
35740,-1.11489,-0.487726,-2.15113,0
35760,-1.11762,-0.491668,-2.14826,0
35780,-1.1202,-0.494616,-2.14613,0
35800,-1.12254,-0.497286,-2.14361,0
35820,-1.12534,-0.50027,-2.14067,0
35840,-1.12807,-0.503559,-2.13817,0
35860,-1.13063,-0.506945,-2.13603,0
35880,-1.13266,-0.51014,-2.1349,0
35900,-1.13356,-0.514211,-2.13371,0
35920,-1.13437,-0.519285,-2.13366,0
35940,-1.13575,-0.523728,-2.13348,0
35960,-1.13638,-0.528633,-2.13432,0
35980,-1.13652,-0.533316,-2.13538,0
36000,-1.13669,-0.537225,-2.13712,0
36020,-1.13643,-0.541046,-2.13978,0
36040,-1.13633,-0.54497,-2.14207,0
36080,-1.13654,-0.553157,-2.1465,0
36100,-1.13669,-0.557138,-2.14942,0
36120,-1.13679,-0.561883,-2.15339,0
36140,-1.13681,-0.56664,-2.15766,0
36160,-1.13669,-0.571596,-2.16184,0
36180,-1.136,-0.577088,-2.16627,0
36200,-1.13539,-0.582875,-2.17101,0
36220,-1.1343,-0.588815,-2.17642,0
36240,-1.13363,-0.594799,-2.18185,0
36260,-1.13317,-0.601018,-2.18717,0
36280,-1.13249,-0.606889,-2.19279,0
36300,-1.13184,-0.612306,-2.19829,0
36320,-1.13142,-0.617102,-2.2039,0
36340,-1.13049,-0.620601,-2.21027,0
36360,-1.12885,-0.623409,-2.21818,0
36380,-1.12642,-0.625603,-2.22588,0
36400,-1.12352,-0.62802,-2.23304,0
36420,-1.12053,-0.630589,-2.24045,0
36440,-1.11781,-0.632846,-2.24821,0
36460,-1.11482,-0.635231,-2.2561,0
36480,-1.11149,-0.638028,-2.26391,0
36500,-1.10791,-0.641127,-2.27221,0
36520,-1.10474,-0.643918,-2.28058,0
36530,-1.10132,-0.646561,-2.28892,0
36560,-1.09762,-0.648844,-2.2972,0
36570,-1.09433,-0.650902,-2.30528,0
36590,-1.09146,-0.652573,-2.31288,0
36610,-1.08851,-0.654558,-2.31999,0
36630,-1.08537,-0.656284,-2.32689,0
36650,-1.08254,-0.658638,-2.33382,0
36670,-1.08041,-0.660872,-2.34049,0
36690,-1.07928,-0.663174,-2.34639,0
36710,-1.07792,-0.665764,-2.3524,0
36730,-1.07621,-0.668119,-2.35888,0
36750,-1.0738,-0.669528,-2.36638,0
36770,-1.07178,-0.671595,-2.37324,0
36790,-1.07067,-0.674802,-2.38034,0
36810,-1.07005,-0.677586,-2.38821,0
36830,-1.06921,-0.680302,-2.39693,0
36850,-1.06801,-0.683291,-2.40642,0
36870,-1.06624,-0.686212,-2.41627,0
36890,-1.06443,-0.689463,-2.42679,0
36910,-1.06303,-0.692482,-2.43771,0
36930,-1.061,-0.695733,-2.44889,0
36950,-1.05886,-0.69916,-2.45971,0
36970,-1.05766,-0.703075,-2.46974,0
36990,-1.05719,-0.706827,-2.4793,0
37010,-1.0561,-0.710462,-2.48949,0
37030,-1.0544,-0.713628,-2.49997,0
37050,-1.05331,-0.71677,-2.50953,0
37070,-1.05179,-0.720085,-2.519,0
37090,-1.04971,-0.723341,-2.52858,0
37110,-1.04689,-0.726534,-2.53929,0
37130,-1.04466,-0.728852,-2.54941,0
37150,-1.04202,-0.731262,-2.55932,0
37170,-1.039,-0.733211,-2.56894,0
37190,-1.03598,-0.73477,-2.57849,0
37210,-1.03442,-0.735962,-2.58684,0
37230,-1.03325,-0.736409,-2.5944,0
37250,-1.03074,-0.736522,-2.60346,0
37270,-1.02855,-0.736246,-2.61212,0
37290,-1.0263,-0.735867,-2.62055,0
37310,-1.02402,-0.735723,-2.62877,0
37330,-1.0213,-0.735836,-2.6365,0
37350,-1.01873,-0.736032,-2.64506,0
37370,-1.01638,-0.735598,-2.65372,0
37390,-1.01377,-0.735,-2.66233,0
37410,-1.01103,-0.734242,-2.67059,0
37430,-1.00848,-0.733308,-2.67819,0
37450,-1.00663,-0.732154,-2.6857,0
37470,-1.00447,-0.730245,-2.69393,0
37490,-1.00279,-0.727968,-2.70142,0
37510,-1.00101,-0.726201,-2.70858,0
37530,-0.999267,-0.724937,-2.71513,0
37550,-0.998531,-0.72404,-2.72081,0
37570,-0.997769,-0.72267,-2.7268,0
37590,-0.997146,-0.721321,-2.73251,0
37610,-0.996732,-0.720235,-2.73711,0
37630,-0.995525,-0.719921,-2.74261,0
37650,-0.995441,-0.719571,-2.74741,0
37670,-0.995439,-0.719774,-2.75202,0
37690,-0.995593,-0.719924,-2.75651,0
37710,-0.996321,-0.719913,-2.76032,0
37730,-0.996702,-0.719058,-2.76371,0
37750,-0.996989,-0.718323,-2.76762,0
37770,-0.997012,-0.717126,-2.77158,0
37790,-0.997808,-0.715949,-2.77553,0
37810,-0.999084,-0.714272,-2.77905,0
37830,-0.999459,-0.712052,-2.78277,0
37850,-0.999788,-0.709768,-2.78665,0
37870,-0.999695,-0.707147,-2.79081,0
37890,-0.999879,-0.704136,-2.7954,0
37910,-1.00008,-0.700675,-2.79999,0
37930,-0.999801,-0.697281,-2.80441,0
37950,-0.998865,-0.694336,-2.80849,0
37970,-0.99831,-0.691484,-2.81242,0
37990,-0.9975,-0.68836,-2.81674,0
38010,-0.997431,-0.684619,-2.82035,0
38030,-0.996264,-0.681836,-2.82318,0
38050,-0.995142,-0.67986,-2.82516,0
38070,-0.994438,-0.678148,-2.82759,0
38090,-0.994954,-0.675792,-2.8296,0
38110,-0.995481,-0.673123,-2.8313,0
38130,-0.995305,-0.670878,-2.83265,0
38150,-0.99532,-0.669298,-2.83346,0
38170,-0.996039,-0.6679,-2.83338,0
38190,-0.996901,-0.666771,-2.83351,0
38210,-0.997961,-0.66499,-2.83446,0
38230,-1.00012,-0.661788,-2.83465,0
38250,-1.00191,-0.658244,-2.8348,0
38270,-1.00379,-0.654976,-2.83459,0
38290,-1.0051,-0.651346,-2.83519,0
38310,-1.00692,-0.646918,-2.836,0
38330,-1.00918,-0.64156,-2.83676,0
38350,-1.01137,-0.635684,-2.83738,0
38370,-1.01328,-0.62988,-2.83728,0
38390,-1.01538,-0.624043,-2.8374,0
38410,-1.01923,-0.617957,-2.83726,0
38430,-1.02273,-0.611607,-2.83749,0
38450,-1.02554,-0.605799,-2.83821,0
38470,-1.02761,-0.599982,-2.83923,0
38490,-1.03008,-0.594467,-2.84022,0
38510,-1.03228,-0.589061,-2.84057,0
38530,-1.03423,-0.584323,-2.84074,0
38550,-1.03624,-0.579873,-2.84089,0
38570,-1.03908,-0.57444,-2.84144,0
38590,-1.04244,-0.568716,-2.84172,0
38610,-1.04625,-0.562904,-2.84016,0
38630,-1.04971,-0.557517,-2.8383,0
38650,-1.05356,-0.552324,-2.83653,0
38670,-1.0576,-0.545445,-2.83504,0
38690,-1.06168,-0.537897,-2.83374,0
38710,-1.06616,-0.530447,-2.83182,0
38730,-1.0691,-0.523663,-2.82978,0
38750,-1.07116,-0.517191,-2.82858,0
38780,-1.07431,-0.505315,-2.82619,0
38800,-1.076,-0.499344,-2.82482,0
38820,-1.07757,-0.493252,-2.82377,0
38840,-1.07946,-0.486682,-2.82296,0
38860,-1.08141,-0.480686,-2.82131,0
38880,-1.083,-0.475579,-2.81935,0
38900,-1.08386,-0.471111,-2.81795,0
38920,-1.08474,-0.466787,-2.81655,0
38940,-1.08524,-0.462933,-2.81542,0
38960,-1.08603,-0.459845,-2.81432,0
38980,-1.08737,-0.456704,-2.81263,0
39000,-1.08952,-0.453856,-2.81097,0
39020,-1.09123,-0.451463,-2.80929,0
39040,-1.09246,-0.449384,-2.80761,0
39060,-1.094,-0.44757,-2.80563,0
39080,-1.09527,-0.446038,-2.80386,0
39100,-1.09688,-0.444907,-2.80227,0
39120,-1.09825,-0.443153,-2.80092,0
39140,-1.10029,-0.441095,-2.79859,0
39160,-1.10212,-0.439601,-2.79643,0
39180,-1.10401,-0.438321,-2.79386,0
39200,-1.10582,-0.436989,-2.79147,0
39220,-1.1076,-0.435883,-2.78948,0
39240,-1.10866,-0.434741,-2.7879,0
39260,-1.10899,-0.433937,-2.78605,0
39280,-1.10913,-0.433571,-2.78389,0
39300,-1.10922,-0.432663,-2.78134,0
39320,-1.11004,-0.431784,-2.7789,0
39340,-1.11125,-0.4298,-2.77644,0
39360,-1.11332,-0.42727,-2.77339,0
39380,-1.11579,-0.424406,-2.76986,0
39400,-1.11744,-0.422102,-2.76618,0
39420,-1.11921,-0.420288,-2.76204,0
39440,-1.1214,-0.419342,-2.75762,0
39460,-1.12345,-0.418169,-2.75334,0
39480,-1.12551,-0.41693,-2.74844,0
39500,-1.12768,-0.415669,-2.74328,0
39520,-1.13072,-0.414109,-2.73826,0
39540,-1.13458,-0.41184,-2.73323,0
39560,-1.1381,-0.409439,-2.72771,0
39580,-1.14055,-0.407364,-2.72188,0
39600,-1.14288,-0.405264,-2.71499,0
39620,-1.14514,-0.40381,-2.70763,0
39640,-1.14784,-0.402348,-2.70036,0
39660,-1.15141,-0.400301,-2.69257,0
39680,-1.15545,-0.398766,-2.68447,0
39700,-1.15904,-0.397382,-2.67679,0
39720,-1.16359,-0.395381,-2.66887,0
39740,-1.16834,-0.39328,-2.66039,0
39760,-1.17288,-0.39159,-2.65206,0
39780,-1.1763,-0.389917,-2.64485,0
39800,-1.17913,-0.387803,-2.63834,0
39820,-1.18205,-0.385069,-2.63194,0
39840,-1.18536,-0.382196,-2.62469,0
39860,-1.1878,-0.379678,-2.61734,0
39880,-1.18868,-0.377983,-2.61091,0
39900,-1.18895,-0.376891,-2.6053,0
39920,-1.18897,-0.375517,-2.5997,0
39940,-1.1887,-0.374968,-2.59329,0
39960,-1.18816,-0.375217,-2.58675,0
39980,-1.18755,-0.375178,-2.58026,0
40000,-1.18823,-0.375026,-2.57267,0
40010,-1.18992,-0.374916,-2.56437,0
40030,-1.19247,-0.374769,-2.55626,0
40050,-1.19572,-0.374335,-2.54769,0
40070,-1.19944,-0.374107,-2.53858,0
40090,-1.20329,-0.374515,-2.52948,0
40110,-1.20731,-0.374844,-2.52034,0
40130,-1.21156,-0.375318,-2.51049,0
40150,-1.21501,-0.376059,-2.50086,0
40170,-1.21764,-0.376285,-2.49193,0
40190,-1.22065,-0.376058,-2.48247,0
40210,-1.22444,-0.376123,-2.47219,0
40230,-1.22809,-0.375945,-2.46257,0
40250,-1.23177,-0.376001,-2.4528,0
40270,-1.23541,-0.37617,-2.44371,0
40290,-1.2396,-0.376218,-2.43365,0
40310,-1.24348,-0.37722,-2.42342,0
40330,-1.24626,-0.378951,-2.41327,0
40350,-1.24882,-0.380101,-2.40326,0
40370,-1.25218,-0.38188,-2.39291,0
40390,-1.25686,-0.383557,-2.3824,0
40410,-1.26252,-0.385388,-2.37152,0
40430,-1.26832,-0.387424,-2.35974,0
40450,-1.27405,-0.389932,-2.34782,0
40470,-1.27959,-0.39305,-2.3364,0
40490,-1.28482,-0.396306,-2.32609,0
40510,-1.29097,-0.399054,-2.31542,0
40530,-1.29699,-0.402039,-2.30433,0
40550,-1.30203,-0.40537,-2.2924,0
40570,-1.30565,-0.409107,-2.28119,0
40590,-1.30927,-0.412303,-2.27069,0
40610,-1.31407,-0.415539,-2.25974,0
40630,-1.31886,-0.418708,-2.24913,0
40650,-1.32337,-0.422158,-2.23913,0
40670,-1.32788,-0.425502,-2.22825,0
40690,-1.33381,-0.429186,-2.21674,0
40710,-1.33941,-0.433292,-2.20556,0
40730,-1.34445,-0.437924,-2.19532,0
40750,-1.3491,-0.442463,-2.18496,0
40770,-1.35341,-0.447156,-2.17392,0
40790,-1.3581,-0.452913,-2.16237,0
40810,-1.3626,-0.45924,-2.15048,0
40830,-1.36753,-0.465746,-2.13874,0
40850,-1.3716,-0.472212,-2.12767,0
40870,-1.37531,-0.478727,-2.11688,0
40890,-1.37958,-0.484967,-2.10532,0
40910,-1.3847,-0.490911,-2.09351,0
40930,-1.38997,-0.49657,-2.0818,0
40950,-1.39484,-0.502584,-2.07072,0
40970,-1.39969,-0.508529,-2.06022,0
40990,-1.40483,-0.513834,-2.04984,0
41010,-1.40997,-0.518828,-2.03955,0
41030,-1.41322,-0.524132,-2.0304,0
41050,-1.4159,-0.529086,-2.02182,0
41070,-1.41797,-0.533363,-2.01401,0
41090,-1.41968,-0.537936,-2.00684,0
41110,-1.42049,-0.542958,-2.00046,0
41130,-1.42169,-0.5474,-1.99477,0
41150,-1.42265,-0.551904,-1.98912,0
41170,-1.4229,-0.557575,-1.98386,0
41190,-1.42298,-0.56413,-1.97896,0
41210,-1.42451,-0.570696,-1.97433,0
41230,-1.42579,-0.576339,-1.97065,0
41250,-1.42618,-0.582015,-1.96735,0
41270,-1.4255,-0.58887,-1.96417,0
41290,-1.42606,-0.596225,-1.96015,0
41310,-1.42688,-0.603363,-1.95658,0
41330,-1.42778,-0.611094,-1.95301,0
41350,-1.42814,-0.618343,-1.9507,0
41370,-1.42855,-0.624619,-1.94773,0
41390,-1.42947,-0.631191,-1.94379,0
41410,-1.43058,-0.638575,-1.94024,0
41430,-1.43254,-0.645639,-1.93806,0
41450,-1.43555,-0.650558,-1.93602,0
41470,-1.4374,-0.655038,-1.93469,0
41490,-1.43722,-0.660922,-1.93361,0
41510,-1.4383,-0.667197,-1.933,0
41530,-1.44011,-0.672784,-1.93218,0
41550,-1.44162,-0.678634,-1.93104,0
41570,-1.44316,-0.684708,-1.92955,0
41590,-1.44432,-0.691458,-1.92862,0
41610,-1.44629,-0.698129,-1.92763,0
41630,-1.44877,-0.704507,-1.92626,0
41650,-1.45113,-0.710729,-1.92487,0
41670,-1.45261,-0.716076,-1.92448,0
41690,-1.45391,-0.721896,-1.92429,0
41710,-1.45497,-0.727764,-1.9238,0
41730,-1.45728,-0.733333,-1.92273,0
41750,-1.45982,-0.738843,-1.92123,0
41770,-1.46147,-0.7442,-1.92083,0
41790,-1.46242,-0.749285,-1.92123,0
41810,-1.46353,-0.753897,-1.92191,0
41830,-1.4654,-0.758882,-1.92201,0
41850,-1.46657,-0.763302,-1.92242,0
41870,-1.46749,-0.767955,-1.92294,0
41890,-1.4682,-0.772937,-1.92409,0
41910,-1.46948,-0.778153,-1.92576,0
41930,-1.47051,-0.783433,-1.9281,0
41950,-1.47164,-0.788606,-1.93002,0
41970,-1.47186,-0.794338,-1.93195,0
41990,-1.47169,-0.800429,-1.9353,0
42000,-1.4721,-0.806556,-1.93859,0
42020,-1.47224,-0.812472,-1.94223,0
42040,-1.47205,-0.81836,-1.94605,0
42060,-1.4723,-0.824379,-1.94979,0
42080,-1.4725,-0.83008,-1.95469,0
42100,-1.47173,-0.835241,-1.95976,0
42120,-1.47123,-0.84084,-1.96487,0
42140,-1.47074,-0.846362,-1.97015,0
42160,-1.471,-0.85162,-1.97624,0
42180,-1.47058,-0.856261,-1.9828,0
42200,-1.46997,-0.861079,-1.98913,0
42220,-1.46865,-0.866002,-1.99631,0
42240,-1.46669,-0.870718,-2.00444,0
42260,-1.46502,-0.875584,-2.01225,0
42280,-1.46384,-0.88035,-2.0198,0
42300,-1.46212,-0.885005,-2.02815,0
42320,-1.46028,-0.889486,-2.03653,0
42340,-1.45903,-0.893556,-2.04468,0
42360,-1.45758,-0.897385,-2.05282,0
42380,-1.45507,-0.901157,-2.06209,0
42400,-1.45256,-0.90459,-2.07085,0
42420,-1.45035,-0.908014,-2.07983,0
42440,-1.44767,-0.911293,-2.08922,0
42460,-1.44422,-0.914728,-2.09857,0
42480,-1.44039,-0.919071,-2.10844,0
42500,-1.43655,-0.923543,-2.11891,0
42520,-1.43198,-0.927713,-2.12988,0
42540,-1.42641,-0.931891,-2.14117,0
42560,-1.42069,-0.93641,-2.15189,0
42580,-1.41587,-0.941232,-2.16227,0
42600,-1.41159,-0.946084,-2.17212,0
42620,-1.40709,-0.950437,-2.18248,0
42640,-1.40154,-0.954654,-2.19367,0
42660,-1.39617,-0.957754,-2.20442,0
42680,-1.39149,-0.960753,-2.21462,0
42700,-1.38584,-0.963247,-2.22509,0
42720,-1.37979,-0.965571,-2.23647,0
42730,-1.37306,-0.967272,-2.24865,0
42750,-1.36554,-0.969027,-2.26167,0
42770,-1.35747,-0.970583,-2.27404,0
42790,-1.35101,-0.972785,-2.28548,0
42810,-1.34499,-0.974564,-2.29672,0
42830,-1.33881,-0.97615,-2.30812,0
42850,-1.33133,-0.977403,-2.32079,0
42870,-1.32369,-0.978798,-2.33265,0
42890,-1.31729,-0.980555,-2.34384,0
42910,-1.31114,-0.982343,-2.35472,0
42930,-1.30467,-0.983684,-2.36611,0
42950,-1.2966,-0.984708,-2.37881,0
42970,-1.2876,-0.984755,-2.39206,0
42990,-1.27948,-0.984711,-2.4053,0
43010,-1.27097,-0.984072,-2.41863,0
43030,-1.26269,-0.983499,-2.43211,0
43050,-1.25474,-0.981778,-2.44545,0
43070,-1.24546,-0.979793,-2.45977,0
43090,-1.23676,-0.978339,-2.47359,0
43110,-1.22929,-0.977613,-2.48684,0
43130,-1.22217,-0.976498,-2.50009,0
43150,-1.21476,-0.974907,-2.5136,0
43170,-1.20681,-0.973036,-2.52634,0
43190,-1.19992,-0.971627,-2.53774,0
43210,-1.19424,-0.969443,-2.54802,0
43230,-1.18781,-0.967317,-2.55946,0
43250,-1.18217,-0.964391,-2.56975,0
43270,-1.17822,-0.96131,-2.57753,0
43290,-1.17364,-0.958974,-2.58597,0
43310,-1.16916,-0.957069,-2.59513,0
43330,-1.16517,-0.954772,-2.60419,0
43350,-1.16103,-0.95195,-2.61329,0
43370,-1.15654,-0.948864,-2.62194,0
43390,-1.15381,-0.945804,-2.62805,0
43410,-1.15148,-0.943775,-2.63296,0
43430,-1.14841,-0.941753,-2.63929,0
43450,-1.14551,-0.939262,-2.64667,0
43470,-1.14347,-0.935556,-2.65304,0
43490,-1.14119,-0.931613,-2.65834,0
43510,-1.13837,-0.927922,-2.66412,0
43530,-1.13569,-0.92453,-2.66973,0
43550,-1.13362,-0.920846,-2.67534,0
43570,-1.13075,-0.915727,-2.68196,0
43590,-1.12764,-0.91096,-2.68825,0
43610,-1.12512,-0.906943,-2.69382,0
43630,-1.12288,-0.903143,-2.69907,0
43650,-1.11984,-0.899355,-2.70506,0
43670,-1.1169,-0.895763,-2.70976,0
43690,-1.11535,-0.892087,-2.71251,0
43710,-1.11358,-0.888065,-2.7159,0
43730,-1.11255,-0.883649,-2.71938,0
43750,-1.11323,-0.879192,-2.72123,0
43770,-1.11417,-0.874884,-2.72268,0
43790,-1.11447,-0.87051,-2.72471,0
43810,-1.11532,-0.865671,-2.72673,0
43830,-1.11611,-0.859583,-2.72926,0
43850,-1.11636,-0.853743,-2.73076,0
43870,-1.11594,-0.849442,-2.73202,0
43890,-1.11485,-0.84593,-2.73414,0
43910,-1.11374,-0.841396,-2.73715,0
43930,-1.11207,-0.836147,-2.74048,0
43950,-1.11086,-0.831945,-2.74253,0
43970,-1.10981,-0.828376,-2.74415,0
43990,-1.10908,-0.82456,-2.7462,0
44020,-1.10987,-0.814733,-2.74932,0
44040,-1.10991,-0.810304,-2.74981,0
44060,-1.10897,-0.806352,-2.75126,0
44070,-1.10851,-0.797456,-2.75456,0
44090,-1.10875,-0.793752,-2.75478,0
44110,-1.10822,-0.790702,-2.75506,0
44150,-1.10975,-0.77444,-2.75792,0
44170,-1.10934,-0.77056,-2.75874,0
44190,-1.10935,-0.765873,-2.7607,0
44210,-1.11022,-0.759946,-2.76241,0
44230,-1.11121,-0.754138,-2.76313,0
44250,-1.11118,-0.749094,-2.76383,0
44270,-1.11196,-0.743957,-2.764,0
44290,-1.11464,-0.738441,-2.76332,0
44310,-1.118,-0.732543,-2.76193,0
44330,-1.121,-0.727175,-2.76037,0
44350,-1.12487,-0.722148,-2.75934,0
44370,-1.12921,-0.716506,-2.75949,0
44390,-1.13538,-0.70932,-2.75801,0
44410,-1.14097,-0.702069,-2.7554,0
44430,-1.14434,-0.695079,-2.75397,0
44450,-1.14684,-0.688128,-2.75377,0
44470,-1.1502,-0.680693,-2.753,0
44490,-1.15454,-0.672912,-2.75134,0
44510,-1.15929,-0.665231,-2.75067,0
44530,-1.16333,-0.657624,-2.75123,0
44550,-1.16805,-0.650139,-2.75144,0
44570,-1.17501,-0.64318,-2.74976,0
44590,-1.18174,-0.637396,-2.74845,0
44610,-1.18675,-0.632268,-2.74723,0
44630,-1.19217,-0.62762,-2.74469,0
44650,-1.19793,-0.624246,-2.74135,0
44670,-1.20361,-0.621101,-2.73763,0
44690,-1.20925,-0.618137,-2.73448,0
44710,-1.21514,-0.615439,-2.73278,0
44730,-1.22195,-0.611711,-2.73079,0
44750,-1.2304,-0.607149,-2.72683,0
44770,-1.23617,-0.602772,-2.72349,0
44790,-1.23955,-0.598635,-2.72207,0
44810,-1.24276,-0.593385,-2.72026,0
44830,-1.24852,-0.589668,-2.71576,0
44850,-1.25486,-0.587666,-2.71064,0
44870,-1.26012,-0.585382,-2.70565,0
44890,-1.26579,-0.583081,-2.69896,0
44910,-1.27353,-0.580845,-2.69126,0
44930,-1.28175,-0.577235,-2.68459,0
44950,-1.28939,-0.572988,-2.67905,0
44970,-1.29614,-0.568928,-2.67358,0
44990,-1.30172,-0.565393,-2.66818,0
45010,-1.30576,-0.562237,-2.66304,0
45030,-1.30896,-0.559889,-2.65856,0
45050,-1.31301,-0.557077,-2.6537,0
45070,-1.3191,-0.554569,-2.64754,0
45090,-1.32451,-0.552264,-2.64235,0
45110,-1.32706,-0.550066,-2.6391,0
45130,-1.32848,-0.547263,-2.63517,0
45150,-1.33077,-0.545281,-2.63036,0
45170,-1.33293,-0.542512,-2.62567,0
45190,-1.33506,-0.540057,-2.62019,0
45210,-1.33707,-0.537515,-2.61535,0
45230,-1.3405,-0.534816,-2.61048,0
45250,-1.34485,-0.531696,-2.60509,0
45270,-1.3489,-0.528853,-2.59962,0
45290,-1.35261,-0.526264,-2.59451,0
45310,-1.35625,-0.524303,-2.58954,0
45320,-1.3593,-0.521786,-2.58518,0
45340,-1.36269,-0.520172,-2.57978,0
45360,-1.36597,-0.519151,-2.57422,0
45380,-1.36901,-0.517798,-2.56843,0
45400,-1.37289,-0.516391,-2.56226,0
45420,-1.37727,-0.514902,-2.55627,0
45440,-1.38148,-0.512773,-2.55061,0
45460,-1.38546,-0.510751,-2.54468,0
45480,-1.38883,-0.509267,-2.53823,0
45500,-1.39203,-0.508058,-2.53214,0
45520,-1.39499,-0.506335,-2.52626,0
45540,-1.3987,-0.505144,-2.51982,0
45560,-1.40304,-0.503743,-2.51325,0
45580,-1.40614,-0.502339,-2.50718,0
45600,-1.40838,-0.501013,-2.50133,0
45620,-1.41038,-0.499831,-2.49519,0
45640,-1.41236,-0.498651,-2.48818,0
45670,-1.41488,-0.497481,-2.47369,0
45690,-1.41824,-0.497068,-2.46575,0
45710,-1.42252,-0.496311,-2.45826,0
45730,-1.42709,-0.495087,-2.45078,0
45750,-1.43156,-0.49449,-2.44292,0
45770,-1.43504,-0.494338,-2.43493,0
45780,-1.43847,-0.494644,-2.42729,0
45790,-1.44231,-0.495271,-2.41986,0
45810,-1.44688,-0.495498,-2.41259,0
45830,-1.45123,-0.49512,-2.40476,0
45850,-1.45527,-0.495831,-2.39641,0
45870,-1.45896,-0.496341,-2.38814,0
45890,-1.46321,-0.496736,-2.38032,0
45910,-1.46831,-0.497302,-2.37249,0
45930,-1.47268,-0.498029,-2.36468,0
45950,-1.47703,-0.499074,-2.35584,0
45970,-1.48085,-0.500756,-2.34694,0
45990,-1.48407,-0.502673,-2.3378,0
46010,-1.48862,-0.505156,-2.32805,0
46030,-1.49382,-0.507621,-2.31825,0
46050,-1.49973,-0.509935,-2.30739,0
46070,-1.50654,-0.512563,-2.29652,0
46090,-1.51289,-0.515054,-2.28575,0
46110,-1.51977,-0.51709,-2.27441,0
46130,-1.52715,-0.519346,-2.26146,0
46150,-1.53456,-0.522317,-2.24838,0
46170,-1.54195,-0.526058,-2.23607,0
46190,-1.55006,-0.529989,-2.22414,0
46210,-1.55832,-0.534169,-2.21244,0
46230,-1.56583,-0.538014,-2.19991,0
46250,-1.57285,-0.541858,-2.18616,0
46270,-1.57842,-0.546672,-2.17289,0
46290,-1.5836,-0.552061,-2.16081,0
46310,-1.58929,-0.556958,-2.15006,0
46330,-1.59644,-0.560824,-2.13918,0
46350,-1.60385,-0.564215,-2.12736,0
46370,-1.60995,-0.568928,-2.11546,0
46390,-1.61522,-0.574366,-2.10377,0
46410,-1.62066,-0.580066,-2.09278,0
46430,-1.6271,-0.584649,-2.08101,0
46450,-1.63342,-0.589005,-2.06857,0
46470,-1.63966,-0.593848,-2.05594,0
46490,-1.64586,-0.59978,-2.04373,0
46510,-1.65188,-0.605456,-2.03245,0
46530,-1.65837,-0.610283,-2.02186,0
46550,-1.66432,-0.61408,-2.01071,0
46570,-1.67074,-0.617697,-1.99865,0
46590,-1.67673,-0.621348,-1.9865,0
46610,-1.68227,-0.625622,-1.97534,0
46630,-1.68787,-0.629279,-1.96525,0
46640,-1.69431,-0.632333,-1.95446,0
46670,-1.69954,-0.635619,-1.94374,0
46690,-1.70359,-0.640016,-1.93317,0
46710,-1.70724,-0.644705,-1.92368,0
46730,-1.71053,-0.649061,-1.91487,0
46750,-1.71378,-0.653464,-1.90609,0
46770,-1.71631,-0.65891,-1.89748,0
46790,-1.71813,-0.665316,-1.8898,0
46810,-1.71902,-0.671958,-1.88333,0
46830,-1.7201,-0.678225,-1.87665,0
46850,-1.72143,-0.684594,-1.86932,0
46870,-1.72254,-0.691303,-1.86193,0
46890,-1.72301,-0.698474,-1.8559,0
46910,-1.7226,-0.705583,-1.85157,0
46930,-1.72248,-0.711837,-1.84777,0
46950,-1.72131,-0.718012,-1.8441,0
46970,-1.72035,-0.724379,-1.84001,0
46990,-1.72018,-0.729311,-1.83541,0
47010,-1.71996,-0.734825,-1.83079,0
47030,-1.71829,-0.741422,-1.82759,0
47050,-1.7184,-0.747704,-1.82438,0
47070,-1.71901,-0.752293,-1.82121,0
47090,-1.71908,-0.756608,-1.81699,0
47110,-1.71976,-0.761783,-1.81189,0
47130,-1.72261,-0.767007,-1.80582,0
47150,-1.72676,-0.77095,-1.80016,0
47170,-1.72976,-0.774629,-1.79523,0
47190,-1.73402,-0.779166,-1.78887,0
47210,-1.73868,-0.783461,-1.78211,0
47230,-1.74346,-0.788409,-1.7756,0
47250,-1.7475,-0.793981,-1.76915,0
47270,-1.75311,-0.799671,-1.76161,0
47280,-1.75883,-0.805395,-1.75513,0
47300,-1.76355,-0.811129,-1.74912,0
47320,-1.76832,-0.816829,-1.74276,0
47340,-1.77385,-0.822361,-1.73607,0
47360,-1.78081,-0.828199,-1.72919,0
47380,-1.78685,-0.833954,-1.72285,0
47400,-1.79269,-0.839323,-1.71641,0
47420,-1.79894,-0.844626,-1.7095,0
47440,-1.80519,-0.849894,-1.70237,0
47460,-1.8115,-0.855794,-1.69625,0
47480,-1.81694,-0.86182,-1.69155,0
47500,-1.82355,-0.866538,-1.68556,0
47520,-1.83016,-0.871597,-1.67831,0
47540,-1.83632,-0.87784,-1.67169,0
47560,-1.84219,-0.884808,-1.6667,0
47580,-1.84731,-0.890698,-1.66255,0
47600,-1.85146,-0.895842,-1.65905,0
47620,-1.856,-0.901646,-1.6546,0
47640,-1.86027,-0.908226,-1.65053,0
47660,-1.8642,-0.914683,-1.64872,0
47680,-1.86753,-0.919878,-1.64765,0
47700,-1.87036,-0.924868,-1.64638,0
47720,-1.87178,-0.930501,-1.64699,0
47740,-1.87263,-0.936047,-1.64982,0
47760,-1.872,-0.941103,-1.65445,0
47780,-1.87044,-0.945791,-1.65948,0
47800,-1.86948,-0.951457,-1.66353,0
47820,-1.86961,-0.958132,-1.66783,0
47840,-1.86752,-0.96431,-1.67504,0
47860,-1.86456,-0.970361,-1.68248,0
47880,-1.86347,-0.976645,-1.6881,0
47900,-1.86313,-0.983781,-1.69413,0
47920,-1.86246,-0.991283,-1.70102,0
47940,-1.86065,-0.997924,-1.7087,0
47960,-1.85894,-1.00498,-1.71569,0
47980,-1.85755,-1.01192,-1.72258,0
48000,-1.8559,-1.01907,-1.73033,0
48020,-1.85296,-1.02556,-1.73978,0
48040,-1.85019,-1.03181,-1.7474,0
48060,-1.84899,-1.03841,-1.75449,0
48080,-1.84681,-1.04449,-1.76283,0
48100,-1.84413,-1.05021,-1.77168,0
48120,-1.84069,-1.05599,-1.78069,0
48140,-1.83667,-1.06218,-1.79035,0
48160,-1.83171,-1.06808,-1.80187,0
48180,-1.82491,-1.07334,-1.8151,0
48200,-1.81703,-1.07846,-1.828,0
48220,-1.80955,-1.08397,-1.84177,0
48240,-1.80294,-1.08877,-1.85609,0
48260,-1.79414,-1.09324,-1.87223,0
48280,-1.78434,-1.09778,-1.88822,0
48300,-1.77527,-1.10192,-1.90317,0
48320,-1.76645,-1.10601,-1.91875,0
48340,-1.75495,-1.10991,-1.93699,0
48360,-1.7432,-1.11371,-1.95572,0
48380,-1.72987,-1.11709,-1.97523,0
48400,-1.71653,-1.12024,-1.99403,0
48420,-1.70322,-1.12287,-2.01339,0
48440,-1.69084,-1.12538,-2.03152,0
48460,-1.67831,-1.12791,-2.04943,0
48480,-1.66383,-1.13068,-2.06976,0
48500,-1.64851,-1.13283,-2.09028,0
48520,-1.63448,-1.13484,-2.10921,0
48540,-1.62066,-1.13681,-2.1279,0
48560,-1.60656,-1.13796,-2.14795,0
48580,-1.59013,-1.13792,-2.16981,0
48600,-1.57432,-1.13826,-2.1897,0
48620,-1.55899,-1.13922,-2.20947,0
48640,-1.54233,-1.13953,-2.23149,0
48660,-1.52179,-1.13815,-2.2582,0
48680,-1.4995,-1.13493,-2.2851,0
48700,-1.48201,-1.13272,-2.30604,0
48720,-1.4673,-1.1317,-2.32436,0
48740,-1.45263,-1.13104,-2.34413,0
48770,-1.41958,-1.12482,-2.38849,0
48790,-1.40384,-1.12102,-2.40842,0
48810,-1.39062,-1.11763,-2.42519,0
48830,-1.37834,-1.1137,-2.4412,0
48850,-1.36479,-1.10904,-2.45936,0
48870,-1.35085,-1.10358,-2.47802,0
48890,-1.34121,-1.0974,-2.49139,0
48910,-1.33368,-1.09204,-2.50205,0
48930,-1.32592,-1.08591,-2.51176,0
48950,-1.31737,-1.07916,-2.52229,0
48970,-1.30886,-1.0721,-2.53243,0
48990,-1.30129,-1.06568,-2.54184,0
49010,-1.29525,-1.05894,-2.55059,0
49030,-1.28796,-1.05239,-2.56072,0
49050,-1.28063,-1.04555,-2.57121,0
49070,-1.27634,-1.03931,-2.57954,0
49090,-1.27322,-1.03235,-2.587,0
49110,-1.26962,-1.02574,-2.59467,0
49130,-1.2658,-1.01972,-2.60162,0
49150,-1.26013,-1.01332,-2.60953,0
49170,-1.25651,-1.0069,-2.61718,0
49190,-1.25316,-0.999698,-2.62556,0
49210,-1.25057,-0.992474,-2.63269,0
49230,-1.24568,-0.985731,-2.64035,0
49250,-1.23861,-0.978894,-2.64975,0
49270,-1.23334,-0.972489,-2.65839,0
49290,-1.23069,-0.965254,-2.66505,0
49310,-1.22774,-0.959026,-2.67176,0
49330,-1.22448,-0.952158,-2.67892,0
49350,-1.22364,-0.944432,-2.68499,0
49370,-1.22477,-0.936494,-2.68845,0
49390,-1.2238,-0.928973,-2.69352,0
49410,-1.2231,-0.920218,-2.6997,0
49430,-1.22377,-0.90972,-2.70649,0
49450,-1.22572,-0.899165,-2.71222,0
49470,-1.22627,-0.889656,-2.7186,0
49490,-1.22511,-0.880227,-2.72586,0
49510,-1.22247,-0.870891,-2.73343,0
49530,-1.21998,-0.862267,-2.73917,0
49550,-1.21662,-0.853994,-2.74663,0
49570,-1.21643,-0.844485,-2.75419,0
49590,-1.22037,-0.833034,-2.76164,0
49610,-1.22562,-0.820037,-2.76713,0
49630,-1.2297,-0.807719,-2.77111,0
49650,-1.23188,-0.79713,-2.77558,0
49670,-1.23656,-0.78742,-2.78082,0
49690,-1.24429,-0.776937,-2.78585,0
49710,-1.25263,-0.766841,-2.78923,0
49730,-1.25783,-0.758134,-2.79234,0
49750,-1.2598,-0.750292,-2.79598,0
49770,-1.2608,-0.742374,-2.79938,0
49790,-1.26348,-0.735462,-2.80116,0
49810,-1.2669,-0.729541,-2.80374,0
49830,-1.27139,-0.723141,-2.80667,0
49850,-1.27725,-0.716648,-2.80897,0
49870,-1.28327,-0.710717,-2.80984,0
49890,-1.28606,-0.70614,-2.81121,0
49910,-1.28729,-0.701275,-2.81287,0
49930,-1.29053,-0.695268,-2.81337,0
49950,-1.29514,-0.689374,-2.81239,0
49970,-1.29766,-0.684306,-2.81122,0
49990,-1.30048,-0.679475,-2.80964,0
50010,-1.30479,-0.67445,-2.80877,0
50030,-1.31219,-0.668596,-2.80801,0
50050,-1.32092,-0.66219,-2.80726,0
50070,-1.32917,-0.656348,-2.80646,0
50090,-1.33576,-0.651559,-2.80617,0
50110,-1.34226,-0.647152,-2.80571,0
50130,-1.34929,-0.642897,-2.80559,0
50150,-1.35686,-0.638678,-2.80549,0
50170,-1.36434,-0.634162,-2.80506,0
50190,-1.37017,-0.629848,-2.80486,0
50210,-1.37569,-0.625077,-2.80568,0
50230,-1.38203,-0.619955,-2.80665,0
50250,-1.38857,-0.615634,-2.80685,0
50280,-1.40506,-0.605428,-2.80281,0
50290,-1.41118,-0.602581,-2.8006,0
50320,-1.42236,-0.594672,-2.79841,0
50340,-1.42397,-0.591342,-2.79643,0
50350,-1.4256,-0.588179,-2.79381,0
50370,-1.42868,-0.584903,-2.79068,0
50390,-1.43192,-0.582391,-2.78764,0
50410,-1.43395,-0.578802,-2.78558,0
50430,-1.43698,-0.575436,-2.7828,0
50450,-1.44052,-0.572262,-2.78069,0
50470,-1.44407,-0.568626,-2.77847,0
50490,-1.44806,-0.564962,-2.77513,0
50510,-1.45122,-0.562476,-2.77079,0
50530,-1.45361,-0.560891,-2.76527,0
50550,-1.45652,-0.560047,-2.75888,0
50570,-1.4601,-0.559964,-2.75293,0
50590,-1.46509,-0.559926,-2.74799,0
50610,-1.47077,-0.559223,-2.74351,0
50630,-1.47641,-0.55859,-2.73811,0
50640,-1.48181,-0.557899,-2.73202,0
50660,-1.48664,-0.55817,-2.72606,0
50680,-1.4908,-0.557878,-2.71996,0
50700,-1.49409,-0.55803,-2.71297,0
50720,-1.49612,-0.558108,-2.70577,0
50740,-1.49807,-0.558505,-2.69772,0
50760,-1.50101,-0.558441,-2.69031,0
50780,-1.5066,-0.557351,-2.6827,0
50800,-1.5127,-0.55623,-2.67409,0
50820,-1.51665,-0.55524,-2.66492,0
50840,-1.51926,-0.554814,-2.65601,0
50860,-1.52187,-0.554183,-2.6473,0
50880,-1.52564,-0.55339,-2.63816,0
50900,-1.52992,-0.552025,-2.62886,0
50920,-1.53301,-0.55167,-2.61961,0
50940,-1.5366,-0.551682,-2.6112,0
50960,-1.54072,-0.551782,-2.60288,0
50980,-1.54534,-0.552462,-2.59397,0
51000,-1.5488,-0.553005,-2.58484,0
51020,-1.55235,-0.553628,-2.57547,0
51040,-1.55635,-0.554176,-2.56615,0
51060,-1.56073,-0.554737,-2.55691,0
51080,-1.56545,-0.555103,-2.54795,0
51100,-1.5706,-0.55512,-2.53877,0
51120,-1.57584,-0.555857,-2.52939,0
51140,-1.58017,-0.556655,-2.52018,0
51160,-1.58369,-0.55757,-2.51112,0
51180,-1.58761,-0.558044,-2.5016,0
51200,-1.59236,-0.558699,-2.49209,0
51220,-1.59788,-0.558726,-2.48224,0
51240,-1.6037,-0.558697,-2.47134,0
51260,-1.60829,-0.559158,-2.46043,0
51280,-1.61275,-0.56017,-2.44925,0
51300,-1.61763,-0.561146,-2.438,0
51320,-1.62444,-0.562495,-2.42643,0
51340,-1.6302,-0.563555,-2.41556,0
51360,-1.63396,-0.564891,-2.4046,0
51380,-1.63713,-0.567448,-2.39369,0
51400,-1.64039,-0.570728,-2.38393,0
51420,-1.6453,-0.57357,-2.37409,0
51440,-1.6487,-0.575933,-2.3643,0
51460,-1.65176,-0.578871,-2.35249,0
51480,-1.65503,-0.583041,-2.3398,0
51500,-1.66048,-0.587558,-2.32732,0
51520,-1.66676,-0.591737,-2.31692,0
51540,-1.67469,-0.594227,-2.30707,0
51560,-1.68386,-0.596282,-2.29698,0
51580,-1.69233,-0.597588,-2.28574,0
51600,-1.69826,-0.600074,-2.27375,0
51620,-1.70232,-0.604631,-2.26164,0
51640,-1.70701,-0.610682,-2.25082,0
51660,-1.71264,-0.615019,-2.24122,0
51680,-1.71895,-0.618065,-2.2308,0
51700,-1.72469,-0.620101,-2.21799,0
51720,-1.72994,-0.623917,-2.20268,0
51740,-1.73435,-0.630486,-2.18898,0
51760,-1.73806,-0.6372,-2.17852,0
51780,-1.74331,-0.642057,-2.1693,0
51800,-1.75001,-0.645147,-2.15821,0
51820,-1.75631,-0.648569,-2.14459,0
51840,-1.76068,-0.654008,-2.12969,0
51860,-1.76406,-0.661179,-2.11561,0
51880,-1.76811,-0.668545,-2.10267,0
51900,-1.7734,-0.674728,-2.08912,0
51920,-1.77968,-0.680869,-2.07411,0
51940,-1.78448,-0.688974,-2.05937,0
51960,-1.78677,-0.698304,-2.04586,0
51980,-1.78808,-0.707591,-2.0328,0
52000,-1.79073,-0.716544,-2.02,0
52020,-1.7941,-0.725358,-2.00658,0
52040,-1.79812,-0.734969,-1.99238,0
52060,-1.80054,-0.745028,-1.97887,0
52080,-1.80186,-0.755869,-1.96561,0
52100,-1.80268,-0.766832,-1.95282,0
52120,-1.80444,-0.778121,-1.94048,0
52140,-1.80528,-0.79016,-1.92921,0
52160,-1.80628,-0.802506,-1.91709,0
52180,-1.80713,-0.815519,-1.90501,0
52200,-1.80771,-0.829301,-1.89421,0
52220,-1.80725,-0.843086,-1.88439,0
52240,-1.80794,-0.855788,-1.87478,0
52260,-1.80971,-0.868025,-1.86538,0
52280,-1.81107,-0.879592,-1.85668,0
52300,-1.81241,-0.891005,-1.84814,0
52320,-1.81417,-0.90233,-1.841,0
52340,-1.81725,-0.913177,-1.83543,0
52360,-1.82066,-0.921169,-1.8304,0
52380,-1.82354,-0.929197,-1.82436,0
52400,-1.82494,-0.938539,-1.81634,2001
52420,-1.82629,-0.949754,-1.80962,0
52440,-1.82866,-0.960334,-1.80511,0
52460,-1.834,-0.969318,-1.80079,0
52480,-1.83853,-0.97805,-1.79628,0
52500,-1.84195,-0.985889,-1.79045,0
52520,-1.84413,-0.994569,-1.78581,0
52540,-1.84503,-1.00287,-1.78095,0
52560,-1.84816,-1.01071,-1.77508,0
52570,-1.84775,-1.02229,-1.77349,0
52590,-1.84389,-1.02592,-1.77493,0
52600,-1.83897,-1.02758,-1.77687,0
52620,-1.83162,-1.02813,-1.78397,0
52640,-1.8198,-1.02634,-1.79669,0
52660,-1.80495,-1.02242,-1.8126,0
52680,-1.78939,-1.0169,-1.82884,0
52700,-1.77368,-1.0118,-1.84722,0
52720,-1.75371,-1.00632,-1.87124,0
52740,-1.73427,-0.998049,-1.89545,0
52760,-1.71469,-0.987464,-1.92006,0
52780,-1.69124,-0.976305,-1.94769,0
52800,-1.66525,-0.962843,-1.97739,0
52820,-1.64131,-0.948235,-2.00564,0
52840,-1.62061,-0.933414,-2.0297,0
52860,-1.60481,-0.917442,-2.0487,0
52880,-1.58841,-0.900386,-2.06736,0
52900,-1.57188,-0.88354,-2.08494,0
52920,-1.556,-0.868128,-2.10143,0
52940,-1.54033,-0.852625,-2.11624,0
52960,-1.52768,-0.832326,-2.12632,0
52980,-1.51762,-0.81015,-2.13252,0
53000,-1.50815,-0.790662,-2.13751,0
53020,-1.49627,-0.772352,-2.14489,0
53040,-1.48585,-0.750678,-2.15037,0
53060,-1.47765,-0.725319,-2.15202,0
53080,-1.46946,-0.702382,-2.15169,0
53100,-1.45889,-0.680936,-2.15319,0
53120,-1.44725,-0.656184,-2.15493,0
53140,-1.43779,-0.627934,-2.15323,0
53160,-1.42719,-0.601331,-2.15184,0
53180,-1.41546,-0.57542,-2.15196,0
53200,-1.40439,-0.548298,-2.15243,0
53220,-1.39433,-0.522663,-2.15271,0
53240,-1.38524,-0.499223,-2.15289,0
53260,-1.37731,-0.476928,-2.15148,0
53280,-1.36829,-0.456963,-2.14859,0
53300,-1.36007,-0.44087,-2.14542,0
53320,-1.35329,-0.42687,-2.14391,0
53340,-1.356,-0.415008,-2.14567,0
53360,-1.36492,-0.397343,-2.14419,0
53380,-1.37171,-0.384781,-2.14281,0
53400,-1.37464,-0.370528,-2.14306,0
53420,-1.36978,-0.357031,-2.14572,0
53440,-1.36655,-0.34499,-2.14628,0
53460,-1.3655,-0.334085,-2.14456,0
53480,-1.36516,-0.325549,-2.14398,0
53500,-1.36422,-0.317696,-2.14464,0
53520,-1.3632,-0.309109,-2.14527,0
53540,-1.36212,-0.301107,-2.1446,0
53560,-1.3596,-0.294526,-2.14389,0
53580,-1.35609,-0.290419,-2.14498,0
53600,-1.35331,-0.286714,-2.14798,0
53620,-1.35137,-0.282999,-2.15049,0
53640,-1.34978,-0.279762,-2.15129,0
53660,-1.34687,-0.27724,-2.15225,0
53680,-1.34442,-0.274661,-2.15392,0
53700,-1.34184,-0.271744,-2.157,0
53720,-1.33979,-0.268117,-2.16019,0
53740,-1.33834,-0.265135,-2.16213,0
53760,-1.33638,-0.262936,-2.16319,0
53780,-1.33384,-0.261728,-2.16484,0
53800,-1.33135,-0.260857,-2.16666,0
53820,-1.32951,-0.260196,-2.16816,0
53840,-1.32692,-0.259233,-2.1698,0
53860,-1.32399,-0.257553,-2.17026,0
53880,-1.32163,-0.256697,-2.1699,0
53900,-1.32055,-0.257066,-2.1695,2000
53920,-1.32041,-0.25757,-2.16914,0
53940,-1.32015,-0.258214,-2.1691,0
53960,-1.32015,-0.258214,-2.1691,0
53980,-1.31967,-0.257869,-2.16838,0
54000,-1.31878,-0.257801,-2.16788,0
54020,-1.31804,-0.258024,-2.16802,0
54040,-1.31773,-0.258159,-2.16757,0
54060,-1.31715,-0.258946,-2.16721,0
54080,-1.31586,-0.259421,-2.16709,0
54100,-1.31471,-0.259578,-2.16663,0
54120,-1.3144,-0.259747,-2.16517,0
54140,-1.31456,-0.259754,-2.1635,0
54160,-1.31454,-0.259352,-2.16141,0
54180,-1.31526,-0.258688,-2.15798,0
54200,-1.31607,-0.259018,-2.1541,0
54220,-1.31649,-0.259642,-2.15124,0
54240,-1.31665,-0.259912,-2.14885,0
54260,-1.31724,-0.260007,-2.14664,0
54280,-1.31735,-0.260363,-2.14368,0
54300,-1.31651,-0.260831,-2.14097,0
54320,-1.31511,-0.261903,-2.13849,0
54340,-1.31424,-0.263638,-2.1354,0
54360,-1.31416,-0.265966,-2.13165,0
54380,-1.31457,-0.26861,-2.12735,0
54400,-1.31476,-0.271592,-2.1236,0
54420,-1.3154,-0.274279,-2.12019,0
54440,-1.31638,-0.276305,-2.11639,0
54460,-1.31736,-0.277911,-2.11145,0
54480,-1.31829,-0.279792,-2.1061,0
54500,-1.31884,-0.282209,-2.10167,0
54520,-1.31998,-0.284904,-2.09706,0
54540,-1.32048,-0.28779,-2.09216,0
54560,-1.32105,-0.290657,-2.08756,0
54580,-1.32131,-0.293362,-2.08324,0
54600,-1.32174,-0.295761,-2.07839,0
54620,-1.32227,-0.298811,-2.07445,0
54640,-1.3224,-0.302379,-2.07089,0
54660,-1.32276,-0.305399,-2.06754,0
54680,-1.32275,-0.308798,-2.06395,0
54700,-1.32274,-0.313002,-2.06005,0
54720,-1.32334,-0.317324,-2.05636,0
54740,-1.32429,-0.32115,-2.05335,0
54760,-1.32487,-0.324564,-2.05114,0
54780,-1.32557,-0.328091,-2.04861,0
54800,-1.32608,-0.33113,-2.04601,0
54820,-1.32645,-0.333846,-2.04378,0
54840,-1.32572,-0.336889,-2.04246,0
54860,-1.32521,-0.340198,-2.04084,0
54880,-1.32463,-0.344256,-2.03938,0
54900,-1.32497,-0.348683,-2.03824,0
54920,-1.32539,-0.352615,-2.03703,0
54940,-1.32572,-0.356361,-2.03548,0
54960,-1.32594,-0.36021,-2.03319,0
54980,-1.32626,-0.364251,-2.03115,0
55000,-1.32789,-0.368574,-2.02906,0
55020,-1.32943,-0.372554,-2.0269,0
55040,-1.33089,-0.376248,-2.02483,0
55060,-1.33214,-0.380162,-2.02354,0
55080,-1.33329,-0.383848,-2.02238,0
55100,-1.33409,-0.387331,-2.02115,0
55120,-1.33468,-0.390824,-2.02013,0
55140,-1.33499,-0.394905,-2.01915,0
55160,-1.33558,-0.398188,-2.0192,0
55180,-1.33683,-0.400898,-2.01924,0
55200,-1.33759,-0.403914,-2.01909,0
55220,-1.33746,-0.407553,-2.01941,0
55240,-1.33775,-0.411474,-2.02067,0
55260,-1.33822,-0.414776,-2.02208,0
55280,-1.33795,-0.417922,-2.02358,0
55300,-1.33721,-0.420989,-2.02584,0
55320,-1.33608,-0.424141,-2.02849,0
55340,-1.33518,-0.427426,-2.03095,0
55360,-1.33461,-0.43117,-2.03336,0
55380,-1.33427,-0.434835,-2.03583,0
55400,-1.33346,-0.438362,-2.03904,0
55420,-1.33202,-0.441816,-2.04221,0
55440,-1.33118,-0.445359,-2.04505,0
55460,-1.3308,-0.449038,-2.04842,0
55480,-1.33007,-0.452478,-2.05246,0
55500,-1.32924,-0.455114,-2.05639,0
55520,-1.3279,-0.457986,-2.06002,0
55540,-1.32668,-0.460983,-2.0643,0
55560,-1.32615,-0.464253,-2.0688,0
55580,-1.32574,-0.467076,-2.07358,0
55600,-1.32521,-0.47022,-2.07822,0
55620,-1.32465,-0.473469,-2.08329,0
55640,-1.32434,-0.476038,-2.08865,0
55660,-1.32379,-0.478933,-2.09443,0
55680,-1.32318,-0.482069,-2.10044,0
55700,-1.32222,-0.484761,-2.10708,0
55720,-1.32174,-0.487814,-2.11307,0
55740,-1.32073,-0.491003,-2.11923,0
55760,-1.31887,-0.493762,-2.12695,0
55780,-1.31777,-0.49747,-2.1344,0
55800,-1.31711,-0.500508,-2.14171,0
55820,-1.31593,-0.503755,-2.14907,0
55840,-1.31469,-0.507525,-2.1566,0
55860,-1.31384,-0.511143,-2.16412,0
55880,-1.31297,-0.514634,-2.17169,0
55900,-1.31243,-0.517832,-2.1791,0
55920,-1.31151,-0.52079,-2.18681,0
55940,-1.31025,-0.523594,-2.19445,0
55960,-1.30877,-0.526964,-2.20191,0
55980,-1.30771,-0.529993,-2.20938,0
56000,-1.30682,-0.532794,-2.21722,0
56040,-1.30073,-0.542284,-2.2419,0
56060,-1.29848,-0.545391,-2.24961,0
56080,-1.29605,-0.548735,-2.25705,0
56100,-1.2941,-0.552506,-2.26454,0
56120,-1.29301,-0.555608,-2.27198,0
56140,-1.29182,-0.558306,-2.27875,0
56160,-1.29027,-0.560897,-2.28526,0
56180,-1.28893,-0.563904,-2.29194,0
56200,-1.28791,-0.5666,-2.29887,0
56220,-1.28626,-0.569018,-2.30601,0
56240,-1.2838,-0.571639,-2.31319,0
56260,-1.28132,-0.574126,-2.32042,0
56280,-1.27935,-0.576603,-2.32726,0
56300,-1.27743,-0.57914,-2.3346,0
56320,-1.27494,-0.581495,-2.34197,0
56340,-1.27224,-0.583744,-2.35001,0
56360,-1.26984,-0.585825,-2.35796,0
56380,-1.26709,-0.587575,-2.36558,0
56400,-1.26389,-0.588997,-2.37346,0
56420,-1.2604,-0.590503,-2.38193,0
56440,-1.25734,-0.591949,-2.39051,0
56460,-1.25373,-0.593398,-2.39894,0
56480,-1.24979,-0.595137,-2.4072,0
56500,-1.24568,-0.597459,-2.41549,0
56520,-1.24251,-0.59986,-2.42394,0
56540,-1.2391,-0.602028,-2.43227,0
56560,-1.23516,-0.60418,-2.44078,0
56580,-1.2314,-0.606113,-2.4493,0
56600,-1.22804,-0.607494,-2.45739,0
56620,-1.22444,-0.609342,-2.46535,0
56640,-1.22033,-0.611416,-2.47358,0
56660,-1.21699,-0.613999,-2.48112,0
56680,-1.21438,-0.61652,-2.48878,0
56700,-1.21158,-0.618797,-2.49689,0
56720,-1.20778,-0.620503,-2.50529,0
56740,-1.20394,-0.622587,-2.51383,0
56760,-1.20067,-0.624501,-2.52222,0
56780,-1.19695,-0.626055,-2.53109,0
56800,-1.19355,-0.627072,-2.54003,0
56820,-1.1901,-0.62751,-2.54892,0
56840,-1.18692,-0.627613,-2.55787,0
56860,-1.18377,-0.627329,-2.56678,0
56880,-1.18028,-0.626868,-2.57591,0
56900,-1.17679,-0.626465,-2.58488,0
56920,-1.17309,-0.625878,-2.5938,0
56940,-1.16992,-0.624755,-2.60248,0
56960,-1.16728,-0.623738,-2.61028,0
56980,-1.1641,-0.622991,-2.61818,0
57000,-1.16125,-0.622305,-2.6265,0
57020,-1.15813,-0.620997,-2.63543,0
57040,-1.15523,-0.619296,-2.644,0
57060,-1.15295,-0.618144,-2.65075,0
57080,-1.15077,-0.617748,-2.65712,0
57100,-1.14819,-0.617366,-2.66403,0
57120,-1.14628,-0.616595,-2.6709,0
57140,-1.1454,-0.615005,-2.677,0
57160,-1.14485,-0.6129,-2.68224,0
57180,-1.14335,-0.610663,-2.68746,0
57200,-1.14185,-0.608922,-2.69269,0
57220,-1.14046,-0.606945,-2.69806,0
57240,-1.1392,-0.604469,-2.70341,0
57260,-1.13862,-0.601739,-2.70808,0
57280,-1.13688,-0.599045,-2.71274,0
57300,-1.13482,-0.596087,-2.7172,0
57320,-1.1318,-0.593471,-2.72193,0
57340,-1.12874,-0.590663,-2.7266,0
57360,-1.12569,-0.588086,-2.73083,0
57380,-1.12292,-0.586072,-2.73412,0
57400,-1.12071,-0.584111,-2.73697,0
57420,-1.11922,-0.581124,-2.73999,0
57440,-1.11846,-0.577358,-2.74305,0
57460,-1.11732,-0.573697,-2.74572,0
57480,-1.11708,-0.570974,-2.74757,0
57500,-1.11709,-0.568665,-2.74985,0
57520,-1.11799,-0.565614,-2.7525,0
57540,-1.11977,-0.561167,-2.75468,0
57560,-1.12185,-0.556578,-2.75608,0
57580,-1.12322,-0.552174,-2.75749,0
57600,-1.12471,-0.547676,-2.75981,0
57620,-1.12581,-0.541767,-2.7637,0
57640,-1.12699,-0.535603,-2.76686,0
57660,-1.12796,-0.53012,-2.76905,0
57680,-1.12743,-0.524983,-2.77146,0
57700,-1.1274,-0.520125,-2.77462,0
57720,-1.12872,-0.514525,-2.77786,0
57740,-1.13152,-0.508341,-2.78015,0
57760,-1.13397,-0.502237,-2.78203,0
57780,-1.13453,-0.495911,-2.78475,0
57800,-1.13486,-0.489685,-2.78761,0
57820,-1.13576,-0.483591,-2.78941,0
57840,-1.1365,-0.477914,-2.79137,0
57860,-1.13685,-0.472204,-2.79348,0
57880,-1.13744,-0.466476,-2.79557,0
57900,-1.13739,-0.460658,-2.79721,0
57920,-1.13719,-0.455577,-2.79775,0
57940,-1.13705,-0.451012,-2.79839,0
57960,-1.13737,-0.446575,-2.79899,0
57980,-1.13939,-0.442662,-2.79901,0
58000,-1.14234,-0.438927,-2.79861,0
58010,-1.14445,-0.434901,-2.79821,0
58030,-1.14585,-0.430966,-2.79743,0
58050,-1.14786,-0.426949,-2.79656,0
58070,-1.15034,-0.422598,-2.79618,0
58090,-1.1536,-0.417994,-2.79546,0
58110,-1.15668,-0.41339,-2.79423,0
58130,-1.15904,-0.409416,-2.79324,0
58150,-1.16035,-0.405289,-2.79319,0
58170,-1.16144,-0.400063,-2.79308,0
58190,-1.16331,-0.394974,-2.79201,0
58210,-1.16593,-0.390418,-2.79066,0
58230,-1.16834,-0.385672,-2.78972,0
58250,-1.1703,-0.380294,-2.78972,0
58270,-1.17175,-0.374797,-2.78971,0
58290,-1.17239,-0.369599,-2.78939,0
58310,-1.1716,-0.364412,-2.78992,0
58330,-1.17048,-0.358683,-2.791,0
58350,-1.16948,-0.35289,-2.79126,0
58370,-1.16848,-0.346962,-2.79081,0
58390,-1.16766,-0.342053,-2.7898,0
58410,-1.16674,-0.3377,-2.78916,0
58430,-1.16694,-0.33389,-2.78827,0
58450,-1.16761,-0.330634,-2.78735,0
58460,-1.16859,-0.327892,-2.78582,0
58480,-1.16959,-0.325695,-2.78326,0
58500,-1.17057,-0.323981,-2.77951,0
58520,-1.17147,-0.323588,-2.77545,0
58540,-1.17244,-0.323739,-2.77102,0
58560,-1.17484,-0.324303,-2.76623,0
58580,-1.17788,-0.324676,-2.76173,0
58600,-1.18087,-0.32452,-2.75783,0
58620,-1.18409,-0.323437,-2.75375,0
58640,-1.18747,-0.321899,-2.74927,0
58660,-1.19099,-0.320724,-2.74421,0
58680,-1.19303,-0.319308,-2.73975,0
58700,-1.19479,-0.31799,-2.73495,0
58720,-1.19657,-0.317286,-2.72968,0
58740,-1.19898,-0.31634,-2.72417,0
58760,-1.20079,-0.315853,-2.71854,0
58780,-1.20264,-0.315161,-2.71262,0
58800,-1.20482,-0.314635,-2.70631,0
58820,-1.20697,-0.31439,-2.69996,0
58840,-1.20965,-0.314095,-2.69296,0
58860,-1.21265,-0.31443,-2.68599,0
58880,-1.21678,-0.314987,-2.67959,0
58900,-1.22075,-0.314956,-2.67375,0
58920,-1.22424,-0.314596,-2.6671,0
58940,-1.22715,-0.314528,-2.66033,0
58960,-1.23009,-0.31504,-2.65372,0
58980,-1.23329,-0.315136,-2.64775,0
59000,-1.23734,-0.314929,-2.64178,0
59020,-1.24175,-0.315219,-2.63522,0
59040,-1.24495,-0.315591,-2.62921,0
59060,-1.24671,-0.315599,-2.62356,0
59080,-1.24864,-0.315418,-2.61768,0
59100,-1.25194,-0.315337,-2.61158,0
59120,-1.25528,-0.314802,-2.6058,0
59140,-1.25795,-0.313849,-2.59973,0
59160,-1.26044,-0.313579,-2.59276,0
59180,-1.2629,-0.31379,-2.58599,0
59200,-1.26591,-0.31375,-2.57927,0
59220,-1.26893,-0.313745,-2.57214,0
59240,-1.27225,-0.314315,-2.56454,0
59260,-1.27526,-0.315194,-2.5568,0
59280,-1.27804,-0.315751,-2.54999,0
59300,-1.28049,-0.315895,-2.54274,0
59320,-1.28253,-0.316057,-2.53539,0
59340,-1.2844,-0.316695,-2.52752,0
59360,-1.28548,-0.317509,-2.51987,0
59380,-1.28617,-0.318127,-2.5128,0
59400,-1.28868,-0.318474,-2.50518,0
59420,-1.2925,-0.318417,-2.49737,0
59440,-1.29614,-0.317993,-2.48926,0
59460,-1.29896,-0.317658,-2.48156,0
59480,-1.30117,-0.317398,-2.47355,0
59500,-1.30403,-0.317226,-2.46509,0
59520,-1.30802,-0.317287,-2.45621,0
59540,-1.31241,-0.317832,-2.44679,0
59560,-1.31502,-0.319176,-2.43755,0
59580,-1.31654,-0.321054,-2.42938,0
59600,-1.31838,-0.322546,-2.42194,0
59620,-1.32114,-0.323408,-2.41399,0
59640,-1.32344,-0.324075,-2.40583,0
59660,-1.32533,-0.324573,-2.39709,0
59680,-1.32702,-0.325105,-2.38855,0
59700,-1.32931,-0.325578,-2.38018,0
59720,-1.33226,-0.326414,-2.37175,0
59740,-1.3362,-0.327598,-2.36349,0
59760,-1.34054,-0.328116,-2.35478,0
59780,-1.34413,-0.328425,-2.34568,0
59800,-1.34765,-0.328948,-2.33696,0
59820,-1.35196,-0.328925,-2.32823,0
59840,-1.35862,-0.328189,-2.31919,0
59860,-1.36663,-0.326687,-2.30927,0
59880,-1.37397,-0.325965,-2.29961,0
59900,-1.37986,-0.326224,-2.29026,0
59920,-1.38494,-0.327397,-2.28022,0
59940,-1.39037,-0.328886,-2.27015,0
59960,-1.39592,-0.330867,-2.25948,0
59980,-1.40153,-0.334012,-2.24883,0
60000,-1.40715,-0.338025,-2.23806,0
60020,-1.41217,-0.342272,-2.22802,0
60040,-1.41665,-0.346566,-2.21816,0
60060,-1.42101,-0.350508,-2.20806,0
60080,-1.42537,-0.354229,-2.19667,0
60100,-1.42941,-0.358663,-2.1847,0
60120,-1.43297,-0.363358,-2.17369,0
60140,-1.43645,-0.367628,-2.16383,0
60160,-1.44165,-0.371197,-2.15387,0
60180,-1.44787,-0.374296,-2.14353,0
60200,-1.45371,-0.37735,-2.1337,0
60220,-1.45829,-0.380253,-2.12456,0
60240,-1.46265,-0.38301,-2.11473,0
60260,-1.46705,-0.386244,-2.10506,0
60280,-1.47071,-0.389253,-2.09665,0
60300,-1.47314,-0.391285,-2.08935,0
60320,-1.4759,-0.39299,-2.08185,0
60340,-1.47864,-0.395253,-2.07395,0
60360,-1.48003,-0.397944,-2.06759,0
60380,-1.48036,-0.400123,-2.06225,0
60400,-1.48122,-0.402487,-2.05666,0
60420,-1.48181,-0.405747,-2.05116,0
60440,-1.48152,-0.40932,-2.04624,0
60460,-1.48062,-0.413136,-2.04126,0
60480,-1.47933,-0.417642,-2.03604,0
60500,-1.47806,-0.422996,-2.03088,0
60520,-1.47646,-0.428732,-2.02629,0
60540,-1.47475,-0.43478,-2.02262,0
60560,-1.47255,-0.441246,-2.02024,0
60580,-1.47027,-0.447575,-2.01758,0
60600,-1.46831,-0.453853,-2.0139,0
60620,-1.466,-0.461616,-2.01015,0
60640,-1.46426,-0.469121,-2.00686,0
60660,-1.46346,-0.475478,-2.00411,0
60680,-1.46294,-0.481248,-2.00126,0
60700,-1.46273,-0.486961,-1.99859,0
60720,-1.46275,-0.492394,-1.99482,0
60740,-1.46283,-0.498297,-1.99076,0
60760,-1.46239,-0.504479,-1.9874,0
60780,-1.46351,-0.5102,-1.98443,0
60800,-1.46518,-0.515256,-1.98161,0
60820,-1.46664,-0.520582,-1.97855,0
60840,-1.46669,-0.526535,-1.97583,0
60860,-1.46656,-0.533118,-1.97327,0
60880,-1.46714,-0.539708,-1.97051,0
60900,-1.4678,-0.545984,-1.96843,0
60920,-1.46878,-0.552336,-1.96641,0
60940,-1.46897,-0.558535,-1.96449,0
60960,-1.46999,-0.564883,-1.96255,0
60980,-1.4713,-0.571233,-1.96081,0
61000,-1.47275,-0.577209,-1.95889,0
61020,-1.47397,-0.582827,-1.95703,0
61040,-1.47556,-0.588117,-1.95522,0
61060,-1.47742,-0.593511,-1.95355,0
61080,-1.47918,-0.598786,-1.95295,0
61100,-1.4808,-0.604029,-1.95242,0
61120,-1.48301,-0.60932,-1.95169,0
61140,-1.48466,-0.614384,-1.95123,0
61160,-1.48643,-0.619285,-1.95097,0
61180,-1.4881,-0.623905,-1.9511,0
61200,-1.48977,-0.629063,-1.95102,0
61220,-1.49057,-0.634533,-1.95162,0
61240,-1.49093,-0.640594,-1.95288,0
61260,-1.49232,-0.646669,-1.95391,0
61280,-1.49318,-0.652594,-1.95559,0
61300,-1.49387,-0.658637,-1.95759,0
61320,-1.49438,-0.664412,-1.95985,0
61340,-1.49453,-0.670049,-1.96173,0
61360,-1.49532,-0.67586,-1.96317,0
61380,-1.49612,-0.681297,-1.96506,0
61400,-1.49535,-0.686434,-1.96808,0
61410,-1.49458,-0.691886,-1.97051,0
61430,-1.49523,-0.697773,-1.97216,0
61450,-1.49604,-0.703249,-1.97513,0
61470,-1.49542,-0.707745,-1.97951,0
61490,-1.49434,-0.711639,-1.98375,0
61510,-1.49355,-0.716827,-1.98684,0
61530,-1.49264,-0.721934,-1.99032,0
61550,-1.49178,-0.727229,-1.99442,0
61570,-1.49097,-0.732162,-1.99881,0
61590,-1.48991,-0.737372,-2.00304,0
61610,-1.48849,-0.743237,-2.00822,0
61630,-1.48735,-0.748725,-2.01376,0
61650,-1.4865,-0.753733,-2.01891,0
61670,-1.48559,-0.759045,-2.02368,0
61690,-1.48506,-0.764563,-2.02896,0
61710,-1.48418,-0.769722,-2.03545,0
61730,-1.48257,-0.775082,-2.04298,0
61750,-1.48034,-0.780312,-2.05045,0
61770,-1.47721,-0.785892,-2.05904,0
61790,-1.4738,-0.791385,-2.06815,0
61810,-1.47096,-0.797096,-2.07641,0
61830,-1.46818,-0.80336,-2.08491,0
61850,-1.46503,-0.809432,-2.09398,0
61870,-1.4616,-0.815353,-2.10355,0
61890,-1.45875,-0.821182,-2.11231,0
61910,-1.45638,-0.826792,-2.12074,0
61930,-1.45401,-0.832153,-2.12947,0
61950,-1.45181,-0.836748,-2.13833,0
61970,-1.44931,-0.841625,-2.14715,0
61990,-1.44683,-0.846751,-2.15605,0
62010,-1.44369,-0.85109,-2.16609,0
62030,-1.43953,-0.855798,-2.17615,0
62050,-1.43536,-0.860569,-2.18602,0
62070,-1.43114,-0.86511,-2.19663,0
62090,-1.42605,-0.869098,-2.20799,0
62110,-1.42084,-0.872548,-2.21917,0
62130,-1.41567,-0.875287,-2.23042,0
62150,-1.41042,-0.877729,-2.24197,0
62170,-1.40541,-0.880292,-2.25317,0
62190,-1.39956,-0.882648,-2.26526,0
62210,-1.39365,-0.88493,-2.27765,0
62230,-1.38775,-0.887374,-2.28944,0
62250,-1.38206,-0.88983,-2.30066,0
62270,-1.3767,-0.892293,-2.31164,0
62290,-1.37123,-0.894789,-2.3234,0
62310,-1.3661,-0.896769,-2.33482,0
62330,-1.36151,-0.898409,-2.34528,0
62350,-1.3573,-0.899308,-2.35533,0
62370,-1.35291,-0.90017,-2.36569,0
62390,-1.34825,-0.900594,-2.37664,0
62410,-1.34367,-0.900448,-2.38777,0
62430,-1.33891,-0.899648,-2.39859,0
62450,-1.3341,-0.899191,-2.40863,0
62470,-1.32888,-0.89771,-2.42031,0
62490,-1.32495,-0.895024,-2.43114,0
62510,-1.3223,-0.891169,-2.43988,0
62530,-1.31976,-0.887959,-2.4471,0
62550,-1.31772,-0.885436,-2.45372,0
62570,-1.31624,-0.883444,-2.46108,0
62590,-1.31444,-0.880711,-2.4694,0
62610,-1.31173,-0.877896,-2.47786,0
62630,-1.30958,-0.875315,-2.48486,0
62650,-1.30716,-0.873771,-2.49187,0
62670,-1.30458,-0.8726,-2.49933,0
62690,-1.30142,-0.870681,-2.5084,0
62710,-1.29901,-0.867365,-2.51686,0
62730,-1.29646,-0.864344,-2.52416,0
62750,-1.29228,-0.862097,-2.53299,0
62770,-1.28812,-0.860599,-2.54231,0
62790,-1.28541,-0.858157,-2.55039,0
62810,-1.28259,-0.85542,-2.55804,0
62830,-1.27945,-0.852434,-2.56503,0
62850,-1.27714,-0.84968,-2.57111,0
62870,-1.27534,-0.846335,-2.57767,0
62890,-1.27352,-0.842699,-2.58491,0
62910,-1.27164,-0.837682,-2.59144,0
62930,-1.27023,-0.833413,-2.5962,0
62950,-1.27028,-0.830225,-2.59878,0
62970,-1.27066,-0.826941,-2.60171,0
62990,-1.27013,-0.822807,-2.60649,0
63010,-1.27055,-0.818668,-2.61063,0
63030,-1.27212,-0.815013,-2.61229,0
63050,-1.27235,-0.811113,-2.6148,0
63070,-1.27156,-0.805811,-2.61832,0
63080,-1.27106,-0.80022,-2.62134,0
63100,-1.27133,-0.795884,-2.62313,0
63120,-1.27117,-0.792018,-2.62562,0
63140,-1.27027,-0.787093,-2.63036,0
63160,-1.27054,-0.781053,-2.635,0
63180,-1.2714,-0.77553,-2.63787,0
63200,-1.27147,-0.770971,-2.6403,0
63220,-1.27082,-0.76687,-2.64423,0
63240,-1.26974,-0.761594,-2.65014,0
63260,-1.26937,-0.755397,-2.65565,0
63280,-1.27053,-0.749476,-2.65881,0
63300,-1.27151,-0.74518,-2.66115,0
63320,-1.27065,-0.741079,-2.6657,0
63340,-1.26978,-0.736089,-2.67127,0
63350,-1.27237,-0.725155,-2.6783,0
63360,-1.27315,-0.720043,-2.68166,0
63380,-1.27417,-0.71441,-2.68603,0
63400,-1.27646,-0.70803,-2.68971,0
63420,-1.27945,-0.701992,-2.692,0
63440,-1.28139,-0.69635,-2.69444,0
63460,-1.28302,-0.690551,-2.69763,0
63480,-1.28496,-0.684641,-2.70112,0
63500,-1.28768,-0.67829,-2.7039,0
63520,-1.28958,-0.672424,-2.70642,0
63540,-1.29148,-0.667525,-2.70854,0
63560,-1.2933,-0.66207,-2.71135,0
63580,-1.29665,-0.655825,-2.71416,0
63600,-1.30047,-0.648851,-2.71662,0
63620,-1.30492,-0.642369,-2.71711,0
63640,-1.30978,-0.636172,-2.71628,0
63660,-1.31407,-0.630239,-2.71656,0
63680,-1.31863,-0.623803,-2.71759,0
63700,-1.32299,-0.617241,-2.71892,0
63720,-1.32801,-0.61085,-2.71906,0
63740,-1.33267,-0.605092,-2.7189,0
63760,-1.33621,-0.599433,-2.71894,0
63780,-1.33823,-0.594096,-2.71945,0
63800,-1.34028,-0.588996,-2.71982,0
63820,-1.34286,-0.583504,-2.71945,0
63840,-1.34545,-0.578289,-2.7185,0
63860,-1.3476,-0.573729,-2.71824,0
63880,-1.35008,-0.569252,-2.7176,0
63900,-1.35287,-0.564753,-2.71626,0
63920,-1.3545,-0.56104,-2.71506,0
63940,-1.35471,-0.557656,-2.71453,0
63960,-1.35645,-0.553982,-2.71317,0
63980,-1.35937,-0.550062,-2.71106,0
64000,-1.36134,-0.546408,-2.7095,0
64020,-1.36217,-0.542819,-2.70852,0
64040,-1.36332,-0.538549,-2.70755,0
64060,-1.3658,-0.534654,-2.70572,0
64080,-1.36828,-0.531352,-2.70378,0
64100,-1.36982,-0.528161,-2.70219,0
64120,-1.37188,-0.524629,-2.70065,0
64140,-1.37473,-0.520402,-2.69912,0
64160,-1.37647,-0.516257,-2.69771,0
64180,-1.37786,-0.513043,-2.69613,0
64200,-1.37933,-0.5098,-2.69476,0
64220,-1.38168,-0.50656,-2.69165,0
64240,-1.38436,-0.504866,-2.68789,0
64260,-1.38624,-0.503336,-2.68493,0
64280,-1.38855,-0.501792,-2.68288,0
64300,-1.39062,-0.499312,-2.68119,0
64320,-1.39275,-0.496881,-2.67825,0
64340,-1.39428,-0.49491,-2.67505,0
64360,-1.39576,-0.493708,-2.6719,0
64380,-1.39746,-0.492001,-2.66922,0
64400,-1.39991,-0.48951,-2.6663,0
64420,-1.40239,-0.487744,-2.66252,0
64440,-1.40452,-0.486965,-2.65909,0
64460,-1.40491,-0.486376,-2.65642,0
64480,-1.40584,-0.486001,-2.65324,0
64500,-1.40783,-0.486024,-2.64902,0
64520,-1.40967,-0.486003,-2.64521,0
64540,-1.41124,-0.48616,-2.64182,0
64560,-1.4123,-0.486073,-2.63895,0
64580,-1.41319,-0.485365,-2.63513,0
64600,-1.4143,-0.484877,-2.63073,0
64620,-1.41581,-0.484389,-2.62614,0
64640,-1.41763,-0.483583,-2.62161,0
64660,-1.42038,-0.482351,-2.61646,0
64680,-1.42323,-0.480666,-2.61159,0
64700,-1.42635,-0.477936,-2.6067,0
64720,-1.4298,-0.475549,-2.60137,0
64740,-1.43202,-0.473487,-2.59652,0
64760,-1.43332,-0.471533,-2.59239,0
64780,-1.43483,-0.469627,-2.58798,0
64800,-1.4365,-0.468198,-2.58324,0
64820,-1.43646,-0.467663,-2.57957,0
64840,-1.43463,-0.466924,-2.57574,0
64860,-1.43394,-0.465773,-2.57045,0
64880,-1.43539,-0.465258,-2.56327,0
64900,-1.43806,-0.465864,-2.55653,0
64920,-1.44122,-0.466227,-2.55013,0
64940,-1.44584,-0.466536,-2.54279,0
64960,-1.45109,-0.467013,-2.53514,0
64980,-1.45608,-0.467009,-2.52754,0
65000,-1.45999,-0.467036,-2.52037,0
65020,-1.46287,-0.466724,-2.5128,0
65040,-1.46569,-0.467171,-2.5053,0
65060,-1.46895,-0.467522,-2.49813,0
65080,-1.47219,-0.467856,-2.49142,0
65100,-1.47463,-0.467933,-2.48534,0
65120,-1.47742,-0.467569,-2.47884,0
65140,-1.48086,-0.466968,-2.47226,0
65160,-1.48413,-0.465346,-2.4655,0
65180,-1.48773,-0.463817,-2.45906,0
65200,-1.49122,-0.462356,-2.45282,0
65220,-1.49487,-0.460536,-2.44621,0
65240,-1.49884,-0.459398,-2.43922,0
65260,-1.50211,-0.458957,-2.43262,0
65280,-1.50473,-0.45847,-2.42697,0
65300,-1.50616,-0.457614,-2.42154,0
65320,-1.50835,-0.456922,-2.41496,0
65340,-1.50962,-0.456775,-2.40813,0
65360,-1.51087,-0.457066,-2.4009,0
65380,-1.51313,-0.45799,-2.39342,0
65400,-1.51651,-0.459079,-2.38571,0
65420,-1.52096,-0.460037,-2.37788,0
65440,-1.52536,-0.461126,-2.36975,0
65460,-1.52948,-0.462646,-2.36113,0
65480,-1.53296,-0.465164,-2.35228,0
65500,-1.53654,-0.468301,-2.34341,0
65520,-1.54119,-0.471611,-2.33455,0
65540,-1.54607,-0.474313,-2.32598,0
65560,-1.55098,-0.476686,-2.31677,0
65580,-1.55561,-0.479629,-2.30681,0
65600,-1.55989,-0.482858,-2.29715,0
65620,-1.56406,-0.486038,-2.28811,0
65640,-1.56928,-0.489191,-2.27862,0
65660,-1.57361,-0.49185,-2.26893,0
65680,-1.57731,-0.495705,-2.2595,0
65700,-1.58083,-0.499918,-2.25048,0
65720,-1.58482,-0.503399,-2.24146,0
65740,-1.58874,-0.506292,-2.2318,0
65760,-1.59296,-0.508948,-2.22104,0
65780,-1.5977,-0.512377,-2.21066,0
65800,-1.60268,-0.516237,-2.20239,0
65820,-1.60652,-0.519109,-2.19481,0
65840,-1.61106,-0.521369,-2.18523,0
65860,-1.6144,-0.524024,-2.17448,0
65880,-1.61676,-0.52785,-2.16362,0
65900,-1.61857,-0.533174,-2.15434,0
65920,-1.62245,-0.538116,-2.14574,0
65940,-1.62759,-0.542513,-2.13623,0
65960,-1.63063,-0.546617,-2.12632,0
65980,-1.63169,-0.551476,-2.11568,0
66000,-1.63322,-0.557404,-2.10338,0
66020,-1.63649,-0.564697,-2.09157,0
66040,-1.6413,-0.571942,-2.08115,0
66060,-1.64665,-0.578231,-2.07183,0
66080,-1.65135,-0.583275,-2.06147,0
66100,-1.65597,-0.588606,-2.04965,0
66120,-1.66036,-0.595473,-2.03726,0
66140,-1.66404,-0.603001,-2.0267,0
66160,-1.66921,-0.60957,-2.01745,0
66180,-1.67506,-0.614662,-2.00846,0
66200,-1.67992,-0.619273,-1.99937,0
66220,-1.6821,-0.624216,-1.99029,0
66240,-1.6838,-0.630067,-1.98106,0
66260,-1.68719,-0.636806,-1.97285,0
66280,-1.69213,-0.643237,-1.9664,0
66300,-1.69574,-0.648244,-1.96197,0
66320,-1.69798,-0.65284,-1.95626,0
66340,-1.69934,-0.659065,-1.94994,0
66360,-1.69994,-0.665853,-1.94419,0
66380,-1.70072,-0.672515,-1.93964,0
66400,-1.70214,-0.678415,-1.93529,0
66420,-1.70302,-0.683916,-1.93124,0
66440,-1.70476,-0.689856,-1.92668,0
66460,-1.70674,-0.695744,-1.92288,0
66480,-1.70789,-0.700596,-1.92002,0
66500,-1.70998,-0.705475,-1.9164,0
66520,-1.7128,-0.710662,-1.91207,0
66540,-1.71668,-0.716069,-1.90688,0
66560,-1.72057,-0.722498,-1.90202,0
66580,-1.72448,-0.728078,-1.89776,0
66600,-1.72866,-0.733161,-1.89332,0
66620,-1.73233,-0.738305,-1.88876,0
66640,-1.73568,-0.743893,-1.88448,0
66660,-1.73956,-0.749314,-1.87931,0
66680,-1.74401,-0.755306,-1.87426,0
66700,-1.74943,-0.761096,-1.86982,0
66720,-1.75409,-0.766365,-1.86681,0
66740,-1.75667,-0.771001,-1.86447,0
66760,-1.75952,-0.77626,-1.86152,0
66780,-1.76361,-0.781772,-1.85863,0
66790,-1.76741,-0.787265,-1.8565,0
66810,-1.77002,-0.79193,-1.85598,0
66830,-1.77174,-0.79617,-1.85587,0
66850,-1.77318,-0.80078,-1.85502,0
66870,-1.7748,-0.806381,-1.85512,0
66890,-1.77517,-0.810867,-1.85758,0
66910,-1.77592,-0.813911,-1.86003,0
66930,-1.77755,-0.817584,-1.86087,0
66950,-1.78018,-0.822374,-1.86166,0
66970,-1.78243,-0.826857,-1.86463,0
66990,-1.78398,-0.830885,-1.86827,0
67010,-1.7857,-0.835101,-1.87045,0
67030,-1.78752,-0.83975,-1.87182,0
67050,-1.79014,-0.845179,-1.87286,0
67070,-1.79435,-0.850953,-1.87426,0
67090,-1.79771,-0.856143,-1.87669,0
67110,-1.79933,-0.861307,-1.87936,0
67130,-1.8002,-0.867179,-1.88112,0
67150,-1.80219,-0.87394,-1.88235,0
67200,-1.8075,-0.893049,-1.8893,0
67240,-1.80714,-0.904405,-1.89874,0
67260,-1.80675,-0.908927,-1.90401,0
67280,-1.80695,-0.913278,-1.90937,0
