Timestamp, Rotation x, Rotation y, Rotation z, Marker
20,0.5625,-0.0625,-0.375,0
50,0.875,-0.125,-0.3125,0
70,1,-0.25,-0.0625,0
90,0.8125,-0.25,0,0
110,0.75,-0.25,0.0625,0
130,0.8125,-0.25,0.125,0
150,1.125,-0.25,0.125,0
170,1,-0.25,0.0625,0
170,0.75,-0.125,-0.125,0
210,0.4375,-0.0625,-0.25,0
230,0.75,0,-0.5,0
250,1.25,0.0625,-0.4375,0
270,1.9375,0.1875,-0.5625,0
290,2.625,-0.125,-1,0
310,2.625,-0.375,-0.9375,0
330,2,-0.125,-0.5,0
350,1.0625,-0.25,-0.25,0
370,0.25,-0.3125,0.1875,0
390,0.0625,-0.3125,0.4375,0
410,0.5,-0.25,0.3125,0
430,0.9375,-0.125,0.1875,0
450,1.0625,-0.125,-0.4375,0
470,1.0625,-0.25,-1.0625,0
490,1.0625,-0.25,-1.1875,0
510,0.9375,-0.125,-0.9375,0
530,0.9375,0.0625,-0.4375,0
550,0.875,0,0.25,0
570,0.75,-0.0625,0.625,0
590,0.5,-0.125,0.5,0
610,0.3125,-0.1875,0.1875,0
630,0.6875,-0.0625,-0.3125,0
650,1.25,0,-0.5625,0
670,1.8125,0,-0.5625,0
690,2.125,-0.0625,-0.625,0
710,2.0625,-0.1875,-0.875,0
730,2.0625,-0.25,-0.9375,0
750,1.75,-0.25,-0.875,0
770,1.5,-0.1875,-0.5625,0
790,1.1875,-0.1875,-0.4375,0
810,0.8125,-0.125,-0.3125,0
830,0.75,-0.0625,-0.0625,0
850,0.8125,-0.1875,0,0
870,1.1875,-0.1875,0.0625,0
890,1.1875,-0.125,0.0625,0
910,1.5625,-0.1875,0,0
930,1.75,-0.25,0,0
950,2,-0.25,-0.0625,0
970,2.0625,-0.3125,-0.0625,0
990,1.875,-0.3125,-0.125,0
1010,1.4375,-0.375,0.0625,0
1030,0.625,-0.1875,0.0625,0
1050,0,-0.125,0,0
1070,-0.5,0.1875,0.125,0
1090,-0.625,0.125,0.3125,0
1110,-1.125,0.3125,0.1875,0
1130,-1.9375,0.5,-0.375,0
1150,-3.8125,1.0625,-1,0
1170,-5.5625,1.6875,-1.625,0
1190,-6.0625,1.875,-1.75,0
1210,-4.6875,1.625,-1.1875,0
1230,-1.9375,0.6875,-0.3125,0
1250,0.8125,0.1875,0.5,0
1270,2.875,0.1875,1.125,0
1290,3.875,-0.125,1.125,0
1310,3.6875,-0.5,1,0
1330,2.4375,-0.1875,0.875,0
1350,2.4375,-0.1875,0.25,0
1370,3.6875,-0.9375,0,0
1390,3.6875,-1.0625,0.0625,0
1410,4.25,-1.125,-0.125,0
1430,6.0625,-1.6875,-0.625,0
1450,7.5,-2.5,-0.75,0
1470,8.5625,-2.375,-0.9375,0
1490,9.6875,-2.25,-0.875,0
1510,10.375,-2.375,-0.4375,0
1530,9.625,-2.3125,0.375,0
1550,7.9375,-1.5,1.3125,0
1570,6.3125,-1.0625,2,0
1590,4.75,-1,2.5,0
1610,3.25,-0.8125,2.6875,0
1630,1.0625,-0.6875,2.3125,0
1650,-1.25,-0.25,1.4375,0
1670,-3.25,0.125,0.625,0
1690,-4.75,0.5625,-0.125,0
1710,-6.125,1.0625,-0.6875,0
1730,-7.1875,1.5,-1.4375,0
1750,-7.9375,1.75,-1.8125,0
1770,-8.125,2.3125,-1.8125,0
1790,-8.125,2.75,-1.5625,0
1810,-8.125,2.8125,-0.9375,0
1830,-7.5625,2.8125,-0.3125,0
1850,-6.5,2.3125,0.0625,0
1870,-5.5625,1.8125,0.4375,0
1890,-4.9375,1.625,0.625,0
1910,-4.8125,1.625,0.9375,0
1930,-4.6875,1.0625,1.0625,0
1950,-4.4375,0.8125,1.3125,0
1970,-3.875,0.3125,1.8125,0
1990,-3,-0.25,2.0625,0
2010,-2.25,-0.4375,1.9375,0
2030,-2.0625,-0.625,1.6875,0
2050,-2.5,-0.4375,1.5,0
2070,-3.125,-0.25,1.5,0
2090,-2.875,-0.25,1.75,0
2100,-2.375,-0.1875,1.75,0
2120,-1.875,0.125,1.5625,0
2140,-1.3125,0.25,0.9375,0
2160,-0.5,0.125,0.125,0
2180,0.1875,0.125,-0.4375,0
2200,0.625,0.3125,-0.625,0
2220,0.8125,0.5,-0.4375,0
2240,0.6875,0.375,0.1875,0
2260,0.9375,0.125,0.75,0
2280,1,0,1.125,0
2300,0.9375,-0.3125,1.25,0
2320,0.75,-0.5625,1.125,0
2340,0.75,-0.75,1,0
2360,0.5,-0.5625,1.5625,0
2380,-0.1875,-0.3125,2.1875,0
2400,-0.875,0,2.5,0
2420,-1.375,0.1875,2.6875,0
2440,-1.25,0.25,2.6875,0
2460,-0.8125,0.0625,2.1875,0
2480,-0.5,-0.0625,1.4375,0
2500,-0.5,-0.0625,0.875,0
2520,-0.75,0.125,0.4375,0
2540,-1.375,0.4375,0.0625,0
2560,-1.6875,0.5625,0.125,0
2580,-1.9375,0.625,0.25,0
2600,-2.125,0.5625,0.4375,0
2620,-2.3125,0.625,0.6875,0
2640,-1.8125,0.0625,1,0
2660,-2.3125,-0.8125,1.125,0
2680,-2.8125,-0.5625,0.4375,0
2700,-2.1875,0.0625,0.4375,0
2720,-1.5,0.625,0.625,0
2740,-0.375,0.5,0.8125,0
2760,-0.875,0.125,0.625,0
2780,-1.9375,0.1875,0.5,0
2800,-2.3125,0.0625,0.25,0
2820,-1.625,0.0625,0.1875,0
2840,-0.875,-0.0625,0,0
2860,0,-0.125,-0.0625,0
2880,0.8125,-0.25,-0.0625,0
2900,0.875,-0.125,0.1875,0
2920,0.5,-0.125,0.4375,0
2940,-0.3125,-0.125,0.5,0
2960,-0.625,-0.25,0.8125,0
2980,-0.75,-0.25,0.625,0
3000,-0.8125,-0.1875,0.6875,0
3020,-1.375,0,0.8125,0
3040,-1.8125,-0.125,0.3125,0
3060,-1.75,-0.1875,0.125,0
3080,-1.375,0.25,0,0
3100,-0.5625,0.25,0,0
3120,-0.125,0.3125,0.25,0
3140,0.0625,0.125,0.1875,0
3160,-0.5,0.1875,0.5,0
3180,-1.1875,0.125,0.4375,0
3200,-1.625,-0.0625,0.125,0
3220,-1.8125,0.0625,0.0625,0
3240,-1.5625,0.25,-0.0625,0
3260,-1.5,0.5,0,0
3280,-1.3125,0.5,-0.3125,0
3300,-1.0625,0.4375,-0.5625,0
3320,-0.75,0.5,-0.4375,0
3340,-0.875,0.4375,-0.3125,0
3360,-0.875,0.3125,-0.4375,0
3380,-1.125,0.25,-0.375,0
3400,-1.0625,0.25,-0.4375,0
3420,-0.8125,0.0625,-0.4375,0
3440,-0.5,0.125,-0.625,0
3460,-0.375,0.25,-0.6875,0
3480,-0.125,0.125,-0.75,0
3500,0.25,0,-0.625,0
3520,0.5,0,-0.5625,0
3540,0.6875,-0.25,-0.375,0
3560,1,-0.375,-0.375,0
3580,1.25,-0.5,-0.25,0
3600,1.3125,-0.5625,-0.125,0
3620,1.25,-0.4375,-0.1875,0
3640,1.0625,-0.25,-0.3125,0
3660,1,0,-0.5625,0
3680,1.3125,-0.0625,-0.3125,0
3700,1.6875,-0.0625,-0.1875,0
3720,2.1875,-0.25,-0.375,0
3740,2.75,-0.4375,-0.5,0
3760,2.125,-0.125,-0.3125,0
3780,1.1875,-0.0625,-0.3125,0
3800,0.0625,0,-0.1875,0
3820,-0.5,-0.1875,0.25,0
3840,-0.4375,-0.125,0.0625,0
3860,-0.3125,0.125,-0.0625,0
3880,-0.3125,0.3125,-0.375,0
3900,-0.1875,-0.0625,-1.25,0
3920,0.1875,-0.25,-1.5,0
3940,0.5625,-0.6875,-0.875,0
3960,0.75,0.75,0.3125,0
3980,1.3125,0.375,0.5,0
4000,1.9375,-0.625,0.75,0
4020,1.0625,-0.4375,1.125,0
4040,0.5625,-0.25,1.625,0
4060,-0.0625,-0.875,1,0
4080,-0.875,-0.3125,0.25,0
4100,-1.1875,0.1875,0,0
4120,-0.3125,0.375,-0.25,0
4140,-0.125,0.25,-0.9375,0
4160,0.0625,0.4375,-1.4375,0
4180,0.875,0.375,-1.5625,0
4200,1.375,0.1875,-1.625,0
4220,1.1875,0.125,-1.375,0
4240,0.8125,0.375,-1.0625,0
4260,0.6875,0.3125,-0.6875,0
4280,1.0625,0.1875,-0.375,0
4300,1.1875,0,-0.4375,0
4320,1.1875,-0.25,-0.5625,0
4340,0.875,-0.25,-0.375,0
4360,0.625,-0.125,-0.25,0
4380,0.5625,-0.25,-0.375,0
4400,0.875,-0.3125,-0.5,0
4420,1,-0.375,-0.5625,0
4440,1.3125,-0.4375,-0.6875,0
4460,1.3125,-0.5625,-0.6875,0
4480,1.5625,-0.5625,-0.5,0
4500,2,-0.5,-0.5,0
4520,2.125,-0.25,-0.5625,0
4540,2.5625,-0.1875,-0.8125,0
4560,3.0625,-0.4375,-0.875,0
4580,3.4375,-0.625,-0.6875,0
4600,4.1875,-0.75,-0.75,0
4620,4.6875,-0.9375,-0.8125,0
4640,4.375,-0.8125,-0.9375,0
4660,3.1875,-0.75,-0.875,0
4680,1.75,-0.5,-1,0
4700,1.125,-0.5,-0.625,0
4720,1.3125,-0.5625,-0.8125,0
4740,1.625,-0.4375,-0.9375,0
4760,1.5,-0.125,-1.1875,0
4780,0.6875,-0.25,-1.75,0
4800,0.875,-0.0625,-2,0
4820,1.125,-0.0625,-2,0
4840,1.875,0.125,-1.75,0
4860,1.9375,0.0625,-1.5,0
4880,1.75,0.0625,-0.9375,0
4900,1.5625,0.0625,-0.6875,0
4920,0.9375,-0.125,-0.4375,0
4940,0.5625,-0.125,-0.5,0
4960,0.8125,-0.1875,-0.625,0
4980,0.75,-0.25,-0.5,0
5000,0.625,-0.125,-0.25,0
5020,0.1875,-0.1875,-0.1875,0
5040,0.0625,-0.125,0,0
5060,-0.0625,-0.125,0.25,0
5080,0.0625,-0.125,0.25,0
5100,-0.0625,-0.125,0.25,0
5120,-0.1875,0,0,0
5130,-0.25,0,-0.25,0
5150,0,0.1875,-0.25,0
5170,-0.1875,0.125,-0.3125,0
5190,-0.1875,0.25,-0.25,0
5210,-0.25,0.4375,-0.3125,0
5230,-0.4375,0.4375,-0.3125,0
5250,-0.5,0.25,-0.25,0
5270,-0.5625,0.25,-0.1875,0
5290,-0.625,0.375,-0.125,0
5310,-0.625,0.1875,-0.125,0
5330,-0.5,0.125,-0.125,0
5350,-0.5,0.25,-0.0625,0
5370,-0.75,0.0625,0.125,0
5390,-1,0,0.3125,0
5410,-1.4375,0.25,0.1875,0
5430,-1.625,0.375,-0.0625,0
5450,-1.0625,0.375,0.0625,0
5470,-0.5625,0.1875,0.1875,0
5490,-0.0625,-0.0625,0.1875,0
5510,0.125,-0.0625,0.0625,0
5530,-0.25,0.25,-0.1875,0
5550,-0.5,0.375,-0.25,0
5570,-1.1875,0.375,-0.25,0
5590,-1.8125,0.1875,-0.1875,0
5610,-1.6875,0.1875,-0.25,0
5630,-1.375,0.4375,-0.4375,0
5650,-1.25,0.6875,-0.8125,0
5670,-1.125,0.625,-1.75,0
5690,-0.5625,0.5625,-2.1875,0
5710,0.0625,0.3125,-1.9375,0
5730,0.5625,0.125,-1.3125,0
5750,0.375,0.125,-0.3125,0
5770,0.125,0,0.625,0
5790,-0.75,0.25,1.3125,0
5810,-1.5625,0.1875,1.4375,0
5830,-2.3125,0.1875,1.0625,0
5850,-2.4375,0.125,0.25,0
5870,-2,0.25,-0.25,0
5890,-1.3125,0.375,-0.3125,0
5910,-0.5,0.375,-1.0625,0
5930,1.25,0.3125,-1.5625,0
5950,2.5,0.125,-1.8125,0
5970,3.6875,0,-1.9375,0
5990,4.125,-0.1875,-1.5,0
6010,4.3125,-0.25,-0.8125,0
6030,4.375,-0.375,0.0625,0
6050,4.5,-0.5625,0.8125,0
6070,4.8125,-0.625,1.1875,0
6090,5.375,-0.8125,1.125,0
6110,6.1875,-1.0625,1.1875,0
6130,6.25,-1.125,1.0625,0
6150,6.0625,-1.25,0.75,0
6170,6.125,-1.375,0.4375,0
6190,5.9375,-1.3125,-0.0625,0
6210,5.75,-1.375,-0.6875,0
6230,6.25,-1.5,-1.125,0
6250,7.125,-1.4375,-1.75,0
6270,7.4375,-1.75,-2.0625,0
6290,7.6875,-1.75,-2.0625,0
6310,7.6875,-1.875,-1.6875,0
6330,7.5,-1.6875,-1.0625,0
6350,6.375,-1.3125,-0.25,0
6370,4.8125,-0.875,0.8125,0
6390,2.875,-0.6875,1.875,0
6410,1.125,-0.5,2.5,0
6430,0.4375,-0.5,2.5625,0
6450,-0.6875,-0.125,1.875,0
6470,-1.875,0.0625,0.6875,0
6490,-3,0.1875,-0.5625,0
6510,-3.375,0.4375,-1.25,0
6530,-3.4375,0.375,-1.8125,0
6550,-3.1875,0.625,-2.1875,0
6570,-3.4375,0.9375,-2.0625,0
6590,-3.875,0.9375,-2.3125,0
6610,-4.125,0.8125,-2.25,0
6630,-4.125,1,-1.75,0
6650,-4.125,1.1875,-1.0625,0
6670,-3.6875,1.0625,-0.0625,0
6690,-3.25,0.9375,0.9375,0
6710,-2.9375,0.6875,1.5625,0
6730,-2.5,0.4375,2.0625,0
6750,-2.125,0.125,2.0625,0
6770,-1.6875,-0.125,1.8125,0
6790,-1.25,-0.25,1.625,0
6810,-1.125,-0.25,1.5625,0
6830,-1.4375,-0.1875,1.5,0
6850,-1.5625,-0.0625,1.3125,0
6870,-1.6875,0,1.1875,0
6890,-1.375,0,1,0
6910,-1.1875,0,0.875,0
6930,-1.3125,0,0.5,0
6950,-1.3125,0,0.3125,0
6970,-1.125,0.0625,0.25,0
6990,-1,0.125,0.3125,0
7010,-1.1875,0.1875,0.4375,0
7030,-1.6875,0.3125,0.5625,0
7050,-1.9375,0.4375,0.75,0
7070,-2.125,0.3125,1.0625,0
7090,-2.5,0.3125,1,0
7110,-2.75,0.1875,0.9375,0
7130,-2.875,0.1875,0.8125,0
7150,-2.875,0.25,0.5,0
7170,-2.5625,0.125,0.4375,0
7190,-2.3125,0.125,0.375,0
7210,-2.5625,0.25,0.375,0
7230,-3.125,0.5,0.375,0
7250,-3.0625,0.625,0.375,0
7270,-2.75,0.6875,0.625,0
7290,-2.3125,0.625,0.8125,0
7310,-1.3125,0.0625,0.625,0
7330,-1,-0.5,0.5,0
7350,-2.75,-0.8125,0.375,0
7370,-3,0.0625,0.4375,0
7390,-3.9375,-0.0625,0.5625,0
7410,-2.8125,0.125,1.4375,0
7430,-2.875,0.1875,0.9375,0
7450,-2.5,0.25,1.3125,0
7470,-3.0625,0.5,1.25,0
7490,-3.25,0.3125,0.875,0
7510,-3.125,0,0.375,0
7530,-2.6875,0.375,0,0
7550,-1.875,0.5,0.125,0
7570,-0.75,0.5,0.1875,0
7590,-0.0625,0.4375,0.625,0
7610,-0.1875,0.25,0.9375,0
7630,-0.5625,0.3125,0.875,0
7650,-0.6875,0.25,0.625,0
7670,-0.3125,0.375,0.3125,0
7690,-0.0625,0.25,0.25,0
7710,-0.125,0.4375,0.125,0
7730,-0.25,0.4375,-0.125,0
7750,-0.125,0.3125,-0.3125,0
7770,0.1875,0.1875,-0.3125,0
7790,0.25,0.125,-0.3125,0
7810,0.125,0.0625,-0.4375,0
7830,0.1875,0.0625,-0.4375,0
7850,0.3125,-0.125,-0.375,0
7870,0.375,-0.25,-0.3125,0
7890,0.5,-0.25,-0.25,0
7910,0.5,-0.125,-0.25,0
7930,1,-0.125,0,0
7950,1.25,-0.1875,-0.125,0
7970,1.25,-0.25,-0.125,0
7990,1.25,-0.125,-0.125,0
8010,1.125,-0.1875,-0.25,0
8030,0.875,-0.1875,-0.125,0
8050,0.5625,-0.125,-0.625,0
8070,0.3125,0,-0.875,0
8090,0.5,-0.0625,-1.125,0
8110,1.125,-0.125,-0.9375,0
8130,1.5,-0.125,-0.8125,0
8150,2.125,-0.1875,-0.875,0
8170,2.3125,-0.25,-0.8125,0
8190,2.0625,0,-0.8125,0
8210,1.5,0,-0.625,0
8230,0.625,-0.0625,-0.375,0
8250,0.125,-0.125,-0.125,0
8270,0.5625,-0.25,-0.3125,0
8290,1,0,-0.3125,0
8310,1.0625,0,-0.6875,0
8320,0.9375,-0.0625,-1.375,0
8340,1.25,-0.125,-1.6875,0
8360,1.6875,-0.125,-1.5,0
8380,1.8125,-0.0625,-1.0625,0
8400,1.5625,0,-0.375,0
8420,1.625,-0.0625,0.1875,0
8440,1.4375,-0.125,0.25,0
8460,1.1875,-0.125,0.25,0
8480,1,-0.25,0,0
8500,1,-0.1875,-0.375,0
8520,1.125,0,-0.4375,0
8540,1.25,0.0625,-0.4375,0
8560,1.125,0.1875,-0.6875,0
8580,1.3125,0.1875,-0.625,0
8600,0.9375,0,-0.8125,0
8620,0.5,-0.0625,-0.6875,0
8640,-0.125,0.125,-0.6875,0
8660,-0.3125,0.1875,-0.4375,0
8680,-0.125,0.1875,-0.5,0
8700,0,0.0625,-0.625,0
8720,-0.0625,0.125,-0.5,0
8740,0.0625,0.25,-0.4375,0
8760,0.1875,0.375,-0.375,0
8780,0.1875,0.125,-0.875,0
8800,0.75,-0.5,-1.6875,0
8820,4,-1.625,-3,0
8840,9.5,-2.875,-4.375,0
8860,15,-4,-5.4375,0
8880,14.6875,1.9375,-6.25,0
8900,20.75,4.1875,-13.0625,0
8920,19.6875,4.25,-15.5,0
8940,25.9375,4.6875,-15,0
8960,30.9375,2.625,-17.4375,0
8980,34.25,-1.625,-25.625,0
9000,32.375,-2,-34.625,0
9020,34.75,10.125,-35.8125,0
9040,40.375,21,-25.875,0
9060,48.8125,2.0625,-27.3125,0
9080,31.8125,-1.75,-30.625,0
9100,13.9375,-10.625,-34.0625,0
9120,5.1875,-18.8125,-47.5625,0
9140,-7.3125,-29.75,-52.375,0
9160,-6.75,-37.125,-71.5,0
9180,12.5,-49,-87.5,0
9200,21,-45.6875,-101.562,0
9220,23.3125,-43.1875,-94.5625,0
9240,13.5,-50.5625,-79,0
9260,5.25,-42.1875,-55.125,0
9280,11.0625,-52.5625,-118.188,0
9300,-10.125,-62.625,-92.8125,0
9320,7.875,-73.375,-137.5,0
9340,-0.8125,-77.8125,-138.25,0
9360,-21.875,-73.625,-141.062,0
9380,-38.875,-73.4375,-151.062,0
9400,-45.5,-74.5625,-154.188,0
9410,-47.3125,-75.625,-159.812,0
9430,-53.1875,-78.125,-163.5,0
9460,-66,-77.3125,-149.438,0
9480,-69.3125,-76.4375,-143.75,0
9500,-69.5625,-75.0625,-137.188,0
9520,-69.5,-74.4375,-128.312,0
9540,-63.1875,-76.5,-122.5,0
9560,-63.3125,-74.9375,-114.625,0
9580,-62.75,-71.3125,-112,0
9620,-37.9375,-48.1875,-77.0625,0
9630,-31.9375,-41.25,-64.375,0
9650,-13.8125,-8.1875,-27.875,0
9680,-12.4375,-5,-20.5,0
9700,-10.875,-4.375,-17.9375,0
9740,-9.3125,-6.125,-14.5625,0
9760,-8.3125,-6.8125,-12.4375,0
9800,-7.5,-8.75,-13.125,0
9820,-5.75,-10,-12.6875,0
9880,-3.4375,-10.6875,-6.875,0
9910,-1.75,-10.9375,-5.6875,0
9950,-2.0625,-10.5,-5.5625,0
9970,-1.875,-8.5,-5.0625,0
9990,-3.6875,-7.1875,-2.8125,0
10010,-1.625,-7.3125,-2.25,0
10040,-2.5625,-10.6875,-1.8125,0
10060,-3.125,-10,-1.6875,0
10080,-3.3125,-8.6875,-2.875,0
10100,-3.25,-7.5625,-3.75,0
10120,-4.375,-6.6875,-3.875,0
10150,-1.125,-6.9375,-2.375,0
10170,2.625,-8,-1.4375,0
10190,0.4375,-8.0625,-1.75,0
10210,-4.5,-7,-2.5,0
10230,-4.1875,-5.3125,-3.25,0
10250,-0.6875,-4,-3,0
10270,-0.75,-3.125,-2.4375,0
10290,-2.125,-2.6875,-1.5625,0
10330,1.875,-2.5,1.1875,0
10350,1.125,-1.875,2,0
10370,-1.6875,-2.0625,2.75,0
10390,-2.1875,-0.8125,3.0625,0
10410,-2.0625,-0.5,2.75,0
10430,-1.8125,-1.4375,1.8125,0
10450,-1.8125,-0.8125,1.0625,0
10470,-2.125,-0.25,0.3125,0
10490,-0.9375,-0.375,0.1875,0
10510,-2.25,-0.3125,-0.4375,0
10530,-1.25,-0.5625,-1.375,0
10550,-1,-0.3125,-1.125,0
10570,-1.0625,-1,-0.5625,0
10590,-1.875,-1.375,-0.75,0
10610,-1.5,-1.25,-0.1875,0
10630,-0.4375,-0.8125,0.1875,0
10650,-1.375,-0.625,0.25,0
10670,-2.6875,-0.9375,-0.1875,0
10690,-2.75,-1.125,0.1875,0
10710,-1.0625,-1.0625,0.75,0
10730,-1.875,-0.9375,0.5625,0
10750,-2.1875,-1.6875,-0.125,0
10770,-2.0625,-2.25,-0.1875,0
10790,-0.75,-2.375,-0.125,0
10810,-1.125,-2.1875,-0.25,0
10830,-2.625,-2,-0.75,0
10850,-2.5,-1.8125,-0.625,0
10870,-0.625,-1.3125,0.125,0
10890,-0.875,-0.75,0.1875,0
10920,-2.875,-1.375,0.375,0
10940,-1.3125,-1.875,0.125,0
10950,-0.4375,-1.9375,0.1875,0
10960,-1.125,-1.625,0,0
10980,-2,-1.25,0.4375,0
11000,-1.3125,-1.3125,-0.0625,0
11020,-0.75,-1.375,-0.4375,0
11040,-1.6875,-3.625,-0.8125,0
11060,-2.0625,-2.75,-1.75,0
11080,-0.625,-3.25,1.0625,0
11100,1.8125,-4.25,3.0625,0
11120,4.75,-5.875,2.3125,0
11140,5.25,-4.625,-2.125,0
11160,2.25,-1.9375,-6.5625,0
11180,-2.25,3,-7.25,0
11200,-7.375,5.625,-7.5,0
11220,-6.6875,2.8125,-5.8125,0
11240,0.1875,1.375,0.9375,0
11260,4.75,-1.75,-1.5625,0
11280,-1.375,-5.4375,-1.3125,0
11300,-0.9375,-7.6875,7.375,0
11320,7.8125,-8.3125,12.6875,0
11340,6.8125,-6,7.9375,0
11360,-3.0625,-3.5,5.875,0
11380,-2.4375,-1.875,2.625,0
11400,-0.5,-0.375,-1,0
11420,-4,-0.375,-1.75,0
11440,-2.9375,-2.3125,-3.25,0
11460,-2.1875,-3.3125,-4.1875,0
11480,-1.5625,-4.875,-3.9375,0
11500,-0.875,-5.875,-3.375,0
11520,-1.5625,-5.625,-0.1875,0
11540,-2.875,-5.4375,1.625,0
11560,-2.9375,-6.4375,1.25,0
11580,-3.3125,-5.4375,0.4375,0
11600,-5.5,-4.5,-0.75,0
11620,-5.75,-4.625,-0.375,0
11640,-3.9375,-5.6875,-1.5,0
11660,-4.4375,-7.375,-2.4375,0
11680,-4.375,-7.875,-3.125,0
11700,-3.5,-8.625,-3.375,0
11720,-5.125,-8.4375,-3.5,0
11740,-5.75,-8,-2.3125,0
11770,-4.9375,-7.4375,-0.6875,0
11800,-6.0625,-6.75,0,0
11820,-5.5625,-7.375,-0.8125,0
11840,-7.9375,-7.25,-1.3125,0
11860,-8.875,-7.3125,-1.625,0
11880,-8.4375,-8.25,-2.25,0
11900,-9.625,-8.125,-2.75,0
11910,-10.4375,-8.25,-3.75,0
11930,-9.6875,-7.375,-3.875,0
11950,-8.9375,-6.6875,-3.3125,0
11970,-7.8125,-6.75,-3.125,0
12000,-7.75,-6.3125,-2.3125,0
12020,-7.4375,-6.3125,-2.125,0
12040,-6.0625,-6.25,-1.75,0
12050,-4.9375,-5.5,-1.75,0
12070,-4.8125,-5.1875,-1.875,0
12090,-5.3125,-4.9375,-2.0625,0
12110,-5.625,-4.625,-1.75,0
12130,-3.625,-4.9375,-2.375,0
12150,-3.6875,-5.5,-2.6875,0
12160,-3.9375,-5.375,-1.8125,0
12190,-3.125,-4.625,-1.6875,0
12210,-2.75,-4.75,-2.3125,0
12220,-3,-4.75,-2.4375,0
12240,-3.125,-4.5,-2.625,0
12260,-2.125,-4.75,-3.25,0
12280,-2.4375,-4.75,-4.0625,0
12300,-2.75,-4.1875,-3.25,0
12320,-1.9375,-3.75,-3.4375,0
12330,-1.9375,-3.375,-3.0625,0
12350,-1.0625,-3.5625,-3.0625,0
12370,-1.375,-2.875,-3.0625,0
12390,-0.6875,-2.6875,-2.5,0
12410,-0.4375,-2.75,-2.375,0
12430,-1.125,-2.375,-0.875,0
12450,-0.0625,-1.9375,-0.8125,0
12480,-0.4375,-2.1875,-1.4375,0
12500,0.0625,-1.9375,-1.75,0
12520,-0.25,-1.875,-1.8125,0
12540,0.125,-1.9375,-2.4375,0
12560,0,-1.6875,-2.6875,0
12580,-0.375,-2,-2.375,0
12600,-0.75,-1.5625,-2.0625,0
12620,0.3125,-1.375,-1.75,0
12630,-0.3125,-1.5,-2.0625,0
12640,1.75,-1.5625,-0.9375,0
12660,0.375,-1.9375,0,0
12680,1.125,-1.125,0.875,0
12700,0.6875,-0.8125,0.5625,0
12720,-1,-0.9375,0.6875,0
12720,0.5,-0.5,1.125,0
12740,6.3125,0.6875,1.6875,0
12760,9.5625,1.1875,2.375,0
12780,6.125,1.625,2.4375,0
12800,7.375,1.375,3.5625,0
12820,18.0625,-0.875,7.75,0
12840,32.8125,-4.9375,14.5625,0
12860,47.875,-9.25,31,0
12880,80.0625,-12.625,59.3125,0
12900,120.562,-10.75,93.4375,0
12930,162.812,9.75,163.375,0
12950,180.188,19.375,190.25,0
12970,184.062,25.1875,207.5,0
13000,181.625,7.4375,226.125,0
13010,178.625,-14.8125,226,0
13040,228.188,-0.8125,166.75,0
13060,187.75,-5.125,146.25,0
13080,158.625,-1.25,137.062,0
13100,177.438,3.4375,72.375,0
13140,9.25,-35.0625,-30.5,0
13170,-17.875,-31.375,-21.4375,0
13200,16.5625,-21.8125,6.6875,0
13220,27,-28.9375,11.3125,0
13240,28.4375,-27.3125,-5.5625,0
13260,-0.5,-7.8125,-29.3125,0
13280,-25.0625,3.4375,-25.25,0
13300,-12.375,-32.5,-1.125,0
13320,35.9375,-4.375,59.3125,0
13340,47.1875,-5.5,30.5,0
13360,37.8125,-41.5,-47.5,0
13380,34.4375,-22.375,-51.5,0
13400,85.0625,1.875,-41.4375,0
13420,95.4375,11.625,-59.8125,0
13440,74.75,-5.5,-51.5625,0
13460,52,-12.8125,-26.3125,0
13480,23.5625,-0.3125,-19.25,0
13500,-21.625,0.8125,-8.125,0
13520,-39.625,10.125,3.1875,0
13540,-32.75,4.8125,1.5625,0
13560,-33.8125,-2.25,3,0
13580,-31.6875,-4.0625,4.0625,0
13600,-20.0625,-8.6875,-14.75,0
13620,-15.0625,-5.25,-19.6875,0
13640,-13.0625,2.8125,-8.5625,0
13650,-14.6875,6.5,-9.4375,0
13670,-13.4375,4,-5.4375,0
13690,-21.875,-0.25,-1.25,0
13710,-20.9375,-3.8125,-9.75,0
13730,-29.875,-2.375,-24.5,0
13750,-29.8125,-0.1875,-39.1875,0
13770,-11.3125,-2.1875,-59.5,0
13790,1.75,6.1875,-72.5,0
13810,0.5,13.5,-81.125,0
13830,-16.8125,35.5,-87.5,0
13850,-32.125,49.5625,-87.4375,0
13870,-36.1875,45.75,-85.75,0
13890,-45.3125,60.375,-74.3125,0
13910,-65.625,65.3125,-52.0625,0
13930,-69.25,71.375,-53.0625,0
13950,-64.1875,78.625,-46.6875,0
13970,-91,92.875,-29.1875,0
13990,-93.0625,92.625,-10.75,0
14010,-69.5625,93.5625,1.25,0
14030,-51.375,95.1875,12.625,0
14050,-67.875,98.5625,28.9375,0
14070,-60.375,98.3125,43.3125,0
14090,-37.75,106.438,46.1875,0
14110,-37.875,110.188,53.6875,0
14120,-61.9375,108.438,64.5,0
14140,-56.8125,107.438,57.375,0
14170,-27.9375,106.312,50.8125,0
14190,-3.4375,115.625,61.0625,0
14210,17.5,123.938,54.1875,0
14230,10.9375,121.125,45.1875,0
14250,-18.375,119.938,41.0625,0
14270,-39.4375,115.812,29.0625,0
14280,-6.9375,94.75,34.0625,0
14300,23.375,84.375,44.0625,0
14320,50,77.0625,54.1875,0
14340,35.0625,77.625,60.5,0
14360,4.625,84.75,62.9375,0
14380,-18.6875,79.9375,57.9375,0
14400,-26.75,71.0625,58.5,0
14420,-27.6875,61,57.1875,0
14440,-21.5,55.5,53.6875,0
14460,-7.125,52.625,48.25,0
14480,9.375,46.9375,45.4375,0
14500,25.0625,37.25,47.125,0
14520,29.0625,32.625,40.75,0
14540,15.5,24,23.6875,0
14560,1.25,17.25,2.375,0
14580,-4.875,5.5625,-13.3125,0
14600,-5.6875,-5.0625,-18.375,0
14620,3.5,-15.4375,-8.6875,0
14640,9.3125,-27,-0.9375,0
14660,0.0625,-37.875,0.875,0
14680,-20.4375,-46.5625,-2.875,0
14700,-27.375,-48.125,-1.625,0
14720,-24.25,-47.25,10.4375,0
14740,-11.375,-48.6875,22.375,0
14760,4,-45.1875,24.5,0
14780,26.625,-52.0625,20.625,0
14800,25,-41.6875,11.6875,0
14840,-2.9375,-20.25,25.0625,0
14850,7.5,3.4375,39.5,0
14870,25.4375,20.6875,50.125,0
14890,45.125,41.0625,58.5,0
14910,58.5,56.8125,66.125,0
14930,60.75,68.8125,69.5,0
14950,59.875,79.5625,66.625,0
14970,33.9375,85,57.8125,0
14990,5,96.25,59.3125,0
15010,-15.6875,104.875,57.375,0
15030,-35.125,112.875,44.9375,0
15050,-53.6875,124.688,29.3125,0
15070,-37.3125,15.5625,-22.5,0
15120,51.25,-27.5625,-7.25,0
15140,-7.375,-5.5,17.125,0
15160,-48.125,7.0625,-2.625,0
15180,-49.625,-1.875,-7.25,0
15200,-16.9375,-9,-7.625,0
15220,14.4375,-14.8125,-10,0
15240,13.5,-20.5625,-4.125,0
15260,-4.125,-21.75,-5.25,0
15260,-29.4375,-16.5,-5.5,0
15260,-45.4375,-12.6875,-6.3125,0
15280,-45.5625,-13.25,-7.9375,0
15300,-11.125,-7.375,-8.5,0
15340,1.25,-1,-1.125,0
15360,-3.1875,0.9375,-1.5,0
15380,-3.8125,0.5625,-0.5,0
15400,-2.875,-1.4375,0.5625,0
15420,-0.5,-4.5,1.25,0
15440,-0.375,-6.125,1.5,0
15460,-1.5625,-5.875,4.125,0
15480,-2.875,-4.5625,6.3125,0
15500,-0.8125,-5.5,7.625,0
15520,1.9375,-6.6875,14.0625,0
15540,0.375,-3.25,24.625,0
15560,-8.625,-5.5,19.125,0
15580,-25.0625,-10.5,8.6875,0
15600,-29.5625,-13.3125,3.5625,0
15620,-20.0625,-12.9375,-1.0625,0
15640,-10.375,-10.3125,-2.3125,0
15660,-16.75,-1.375,-10.5625,0
15680,-9.1875,14.625,-11.5625,0
15700,-4.25,19.9375,-15.25,0
15720,9.6875,17.5625,-16.375,0
15740,23.625,6.9375,-2.375,0
15760,28.5,-1.25,17.875,0
15780,24.25,-2.1875,43.4375,0
15800,0.0625,-15.375,35.4375,0
15860,-6.875,1.5,-7.375,0
15880,4.625,10.1875,-3.5,0
15900,-2.1875,18.5,-12.625,0
15920,-0.5625,23,-25.3125,0
15940,4.375,17.6875,-22.9375,0
15960,20.1875,4.9375,-7.3125,0
15980,32.25,-4.8125,14.6875,0
16000,30.125,-9.875,30.5,0
16020,-0.5,-22.25,23.875,0
16040,-37.3125,-27.625,10.4375,0
16060,-54.3125,-21.25,-0.25,0
16080,-43.875,-10.9375,0.1875,0
16110,-18.625,-15.125,22.25,0
16150,-18.0625,-37.5,19.875,0
16170,-42.625,-45.6875,0.8125,0
16190,-55.1875,-57.375,-12.5,0
16210,-51.75,-75.3125,-33.0625,0
16230,-41.1875,-89.875,-46.875,0
16250,-32.375,-103.875,-51,0
16270,-32.875,-111.188,-56.5,0
16290,-39.9375,-114,-65,0
16310,-47.8125,-114.75,-73.375,0
16330,-51.0625,-113.625,-77.3125,0
16350,-52.625,-109.125,-75,0
16370,-50.8125,-102.562,-71,0
16390,-48.5,-93.25,-64.375,0
16410,-45.375,-84,-56.125,0
16430,-43.375,-74.375,-48.5625,0
16450,-43.375,-66.375,-39.3125,0
16470,-40.6875,-57.75,-29.5,0
16490,-37.375,-43.8125,-18.625,0
16510,-32,-27.0625,-3.25,0
16530,-35.875,-22.9375,2,0
16550,-43.5625,-12.6875,17.875,0
16580,-21.5,-5.5625,22.5,0
16600,-5.875,0.125,23.125,0
16620,8.9375,2.75,21.125,0
16640,3.9375,0.3125,14.625,0
16660,-7.5625,-1.1875,8.0625,0
16680,-11.25,1.0625,3.375,0
16700,-5.4375,-0.8125,-2.125,0
16720,2.8125,-4.75,-5.8125,0
16740,8.625,-6.5625,-6.375,0
16760,10.25,-7.375,-5.75,0
16780,6.5,-8.5,-3.6875,2000
16800,5.4375,-10.0625,-1.4375,0
16820,2.0625,-12.0625,-0.0625,0
16840,2.625,-7.6875,-0.75,0
16860,-1.1875,-6.8125,-8.0625,0
16880,-0.1875,-10.0625,-14,0
16900,2.0625,-16.5625,-10.9375,0
16920,1.125,-21.75,-9.0625,0
16940,-5.3125,-24.9375,-10.4375,0
16960,-6.625,-26.8125,-14.125,0
16980,-7.3125,-27.75,-16.0625,0
17000,-9.625,-27.625,-16.875,0
17020,-2.1875,-27.125,-14.9375,0
17040,7.5625,-27.375,-15.125,0
17060,7,-26.0625,-15.5,0
17080,7.4375,-22.125,-16.3125,0
17100,3.25,-18.8125,-21.625,0
17120,3.25,-14.625,-22,0
17140,9.875,-10.25,-22.9375,0
17170,3.875,0.375,-33.75,0
17190,10.3125,11,-33.5,0
17210,16.4375,13.25,-38.5625,0
17230,6.375,18.8125,-37.875,0
17250,-4.875,25.1875,-40,0
17270,-0.5625,39,-45.625,0
17290,-1.8125,44.5625,-48.125,0
17310,-13.5,46.5,-41.6875,0
17330,-16.75,52.4375,-41.5,0
17350,-18.375,60.5625,-45.3125,0
17370,-22.375,62.625,-42.375,0
17390,-25.8125,61,-37.125,0
17410,-17.9375,59.625,-34.75,0
17430,-14.875,60.75,-31,0
17450,-17.375,58.375,-23.5625,0
17470,-22.9375,53.125,-21.625,0
17490,-28.8125,51.0625,-21.6875,0
17510,-32.5625,51.6875,-19.625,0
17530,-32.9375,50.4375,-9.9375,0
17550,-26.625,43.8125,-4.0625,0
17570,-18.75,41.3125,-5.125,0
17590,-21.4375,40.5625,-4,0
17610,-19.75,39.125,5.875,0
17630,-10.5,35.25,7.5625,0
17650,-7.1875,35.375,5.5,0
17670,-6.25,41.125,4.0625,0
17690,-1.4375,41.3125,1.0625,0
17710,3.125,39.25,3.8125,0
17730,7.5,36.5,13.9375,0
17750,8.375,35.375,17.9375,0
17770,-0.1875,36.9375,13.75,0
17790,-5.375,35.625,17.6875,0
17810,-1.9375,29.4375,31.1875,0
17830,3.9375,20.625,36.625,0
17850,6.25,15.1875,35.3125,0
17870,5.375,12,37.0625,0
17890,-0.5,6.5,41.5625,0
17910,-3.4375,-2.6875,43.625,0
17930,-3.5625,-10.5,42.6875,0
17960,-7.0625,-27.3125,39.1875,0
17980,-0.875,-34.4375,37.4375,0
18000,1.75,-37.6875,31.875,0
18020,0.875,-38.375,22,0
18040,0.4375,-42.3125,19.875,0
18060,-0.3125,-48.125,18.0625,0
18080,-2.125,-55.8125,13.1875,0
18100,-4.625,-64.875,9.8125,0
18120,1.75,-71.75,6.9375,0
18140,2.6875,-77.75,0.875,0
18160,-4.6875,-83.9375,-1.4375,0
18180,-8.875,-89.5,-4.5,0
18200,-12.25,-94.375,-9.5,0
18220,-15.3125,-97.625,-16.8125,0
18240,-14.625,-99.625,-22.875,0
18260,-12.5625,-98.125,-25.3125,0
18280,-16.1875,-94.8125,-29.125,0
18300,-16.875,-91.375,-34.5,0
18320,-14.625,-87.5625,-37.5625,0
18340,-9.1875,-83.0625,-41.5,0
18360,2.1875,-66,-44.4375,0
18380,-5.1875,-59.6875,-44.8125,0
18400,-13.375,-50.875,-41.5625,0
18420,-13.75,-39.25,-38.75,0
18440,-5.875,-26,-40,0
18460,-10.125,-13.5625,-35.75,0
18480,-16.125,-0.4375,-28.9375,0
18500,-16.1875,12.3125,-25.4375,0
18510,-24.8125,26.4375,-21.3125,0
18530,-25.4375,37.6875,-19.125,0
18550,-26.3125,43.875,-23.4375,0
18570,-20.625,50.3125,-27,0
18590,-19.875,61.25,-27.125,0
18610,-23.3125,71.125,-27,0
18630,-25,73.75,-25.6875,0
18650,-23.9375,77.75,-27.875,0
18670,-23,83.875,-30.5,0
18690,-23.1875,86.625,-26.5,0
18700,-15.5625,83.5,-22.125,0
18730,-20.3125,73.125,-19.75,0
18750,-21.0625,70,-12.1875,0
18770,-24.5,70.0625,-8.875,0
18790,-28.625,73.5,-3,0
18810,-23.8125,74.875,8,0
18830,-16.9375,72.25,13.75,0
18850,-10.3125,68.9375,15.6875,0
18870,-8.1875,69.9375,22.3125,0
18890,-8.3125,65,26.25,0
18910,-11.125,60.5,24.3125,0
18930,-13.5625,58.5,25.5625,0
18950,-11,50.8125,31.0625,0
18970,-10.875,35.5625,43,0
18990,-11.625,26.8125,52.125,0
19010,-10,34,52.4375,0
19030,-12.6875,39.875,54.875,0
19050,-25.6875,11,38.1875,0
19070,-12.6875,-2.6875,36.875,0
19090,-12.8125,-13.5,35.3125,0
19110,-15.1875,-21.6875,30.375,0
19130,-13.9375,-31.625,26.75,0
19150,-7.5625,-44,22.1875,0
19170,-4.625,-56.1875,19.5,0
19190,-1.8125,-64.8125,19.75,0
19210,-1.3125,-71.8125,16.125,0
19230,-9.25,-81.125,12.625,0
19260,15.625,-96.1875,-69.8125,0
19270,19.8125,-86.1875,-68,0
19280,20.5,-73.375,-66.875,0
19300,25.8125,-64.9375,-72.25,0
19320,31.6875,-57.5625,-74.6875,0
19340,23.4375,-48.125,-74.1875,0
19360,9.8125,-37.75,-71.375,0
19380,-4.875,-28.125,-66.875,0
19400,-19.8125,-23.5625,-58.5,0
19420,-31.3125,-18.375,-50,0
19440,-31.5625,-7.6875,-50.0625,0
19460,-28.1875,3.4375,-51.8125,0
19480,-34.8125,12.5625,-42.4375,0
19500,-27.5,28.8125,-37.3125,0
19520,-27.1875,46.375,-40.9375,0
19540,-26.1875,60,-44.1875,0
19560,-20.4375,71.25,-44.875,0
19580,-22,83.6875,-45.0625,0
19600,-32.5625,94.25,-40.375,0
19620,-41.875,101.125,-32.9375,0
19640,-41.75,107.625,-27.4375,0
19660,-34.375,112,-21.625,0
19680,-21.875,111.812,-8,0
19700,-14.375,107.75,6.375,0
19720,-12.4375,106.125,16.375,0
19740,-14.25,106.25,21.6875,0
19760,-15.125,104.438,25.8125,0
19780,-13.8125,100.812,32.4375,0
19800,-22.1875,101.625,38.0625,0
19820,-31.8125,100.938,43.9375,0
19840,-29.875,94.125,54.0625,0
19860,-6.5625,80.6875,61.6875,0
19880,1.4375,70.6875,59.1875,0
19900,-7.375,63.875,63.25,0
19920,-10.25,53.6875,68,0
19940,-0.8125,33.625,61.875,0
19960,-2.375,21.5,55.5625,0
19980,-12.625,16.75,56.875,0
20000,-21.4375,5.9375,55.125,0
20020,-26.5625,-10.875,53.3125,0
20040,-21.375,-22.375,50.25,0
20060,-16.25,-26.5625,48.875,0
20080,-18.6875,-24.5625,54.1875,0
20100,-29.5625,-25.4375,62,0
20120,-31.75,-30.25,62.9375,0
20140,-30.5,-39.5,54.25,0
20160,-30,-47.9375,43,0
20180,-18.1875,-57.5625,34.5625,0
20200,-12.125,-67.25,18.625,0
20220,-2.5625,-76.9375,2.625,0
20240,5.375,-89.375,-10.875,0
20260,7.3125,-100.562,-21.1875,0
20280,10.8125,-106.562,-29.25,0
20300,4.125,-109.125,-38.125,0
20320,-3.3125,-111.812,-45.625,0
20360,-12.3125,-107.438,-51.5625,0
20380,-13.25,-99.5625,-48.625,0
20400,-26.75,-91.625,-49.1875,0
20420,-20.125,-84.375,-50.5,0
20440,-11.1875,-80.4375,-50.4375,0
20460,-10.875,-75.125,-44.1875,0
20480,-7.375,-69.9375,-38.3125,0
20500,-6.8125,-66.125,-40.4375,0
20520,-8.0625,-62.5625,-40.8125,0
20540,-5.25,-56.4375,-36.4375,0
20560,-9.6875,-47.75,-35.125,0
20580,-12.8125,-38.25,-39.8125,0
20600,-5.0625,-28.3125,-40.3125,0
20620,-1.75,-20.3125,-33.75,0
20640,-4.6875,-16.125,-23.625,0
20660,-11.0625,-8.125,-21.625,0
20680,-1.4375,3.625,-25.4375,0
20700,7.5625,10.125,-28.625,0
20720,-0.8125,9.3125,-26.1875,0
20740,-8.75,12.4375,-17.5,0
20760,-9.5,19.1875,-10.1875,0
20780,-13.5625,25,-9.5,0
20800,-15.6875,29.75,-6.5,0
20820,-10.25,33.3125,-3.4375,2001
20840,-10.25,32.8125,-5.8125,0
20860,-8.9375,34.0625,-8.4375,0
20880,-9.125,34.8125,-6.5,0
20900,-3.5625,30.3125,-6.75,0
20920,-3.75,23.3125,-9.5625,0
20940,-9.75,18.375,-8.625,0
20960,-12.4375,18.1875,-6.75,0
20980,-21.375,19.0625,-8.0625,0
21000,-12.6875,6.375,-4.5,0
21020,-14,0.3125,7,0
21040,-18.5625,-3.75,16.9375,0
21060,-6.625,-4.0625,23.375,0
21080,9.5625,-15.6875,34.5625,0
21100,28,-15.5625,49.9375,0
21120,35,-13.4375,63.6875,0
21140,31.3125,-17.375,73.125,0
21160,33.25,-12.75,85.125,0
21180,41,-5.5,91.5,0
21200,49.75,-2.3125,97.4375,0
21220,43.5,-5.625,106.188,0
21240,53.0625,-1.4375,105.5,0
21260,58.9375,-0.25,101.75,0
21280,46.6875,-2.75,93.875,0
21300,48.4375,-3.0625,84,0
21320,50.4375,-5.4375,73.5625,0
21340,43.25,-11.0625,64.3125,0
21360,37.8125,-13.125,55.875,0
21380,45.9375,-13.1875,44.8125,0
21400,40.3125,-17.0625,31.625,0
21420,28.5625,-17.625,22.5,0
21440,24.5625,-17.875,16.4375,0
21460,29.8125,-18.6875,8.875,0
21480,28.6875,-21.1875,1.3125,0
21500,20.9375,-20.9375,-0.6875,0
21520,16.9375,-18.1875,0.8125,0
21540,9.375,-16.1875,-0.9375,0
21560,-7,-12.8125,-5.125,0
21580,-7.4375,-13.5,-9.3125,0
21600,7.4375,-21.3125,-0.625,0
21620,18.5625,-21.375,16.5625,2000
21640,36.25,-14.5625,24.375,0
21660,26.625,-17.9375,12.6875,0
21680,-1.625,-22.25,0.75,0
21700,-27.75,-23.3125,-7.375,0
21720,-21.8125,-23,-15.8125,0
21740,-3.5,-25.25,-22.875,0
21760,14.125,-23.5625,-23.1875,0
21780,18.6875,-20.0625,-25.5625,0
21800,16.8125,-18.75,-31.25,0
21820,10.4375,-20.9375,-32.5625,0
21840,1.125,-20.25,-28,0
21860,-0.4375,-16.375,-30.25,0
21880,1.6875,-13,-32.6875,0
21900,4,-6.5,-26.5625,0
21920,12.5,1.1875,-23.75,0
21940,15.75,4.75,-27.8125,0
21960,8.1875,12.4375,-28.75,0
21980,-6.125,24.375,-27.625,0
22000,-20.0625,35.6875,-26.8125,0
22020,-15.375,43.625,-29.375,0
22040,-11.0625,56.8125,-34.9375,0
22060,-7.375,72.1875,-38.9375,0
22080,-8,79.375,-40.125,0
22100,-13.75,86.5625,-41.5,0
22120,-19.0625,94.5625,-43.8125,0
22140,-27.6875,102.312,-43.125,0
22160,-34.1875,103.938,-41.875,0
22180,-37.3125,103.062,-43.125,0
22200,-40.1875,98.25,-42.4375,0
22220,-39.25,95.1875,-39.125,0
22240,-34.6875,93.25,-38.1875,0
22250,-28.625,92.0625,-35.875,0
22270,-25.5,87.25,-31.625,0
22290,-27.375,80.5,-23.625,0
22310,-25.4375,72.6875,-16.0625,0
22330,-17.4375,65.25,-13.375,0
22350,-9,62.375,-4.8125,0
22370,0.25,55.25,4.125,0
22390,5.8125,42.125,8.125,0
22410,12.25,34.5,7.6875,0
22430,14.5625,34.8125,10.8125,0
22450,10.25,29.9375,19.0625,0
22470,7.9375,21,24.8125,0
22490,10.5625,18.625,22.3125,0
22510,9.75,22.25,26.375,0
22530,14.875,25.3125,33.4375,0
22550,30.375,25.8125,30.75,0
22570,41.5,27.6875,24.6875,0
22590,42.4375,31.6875,22.1875,0
22610,36.4375,31.875,18.625,0
22630,38.8125,27,21.75,0
22650,50.125,18.25,26.875,0
22670,41.125,12.6875,30.5625,0
22690,25.125,3.6875,30.1875,0
22710,23.875,-9.625,27.625,0
22730,16.0625,-23.5625,30,0
22750,10,-31.9375,36.9375,0
22770,21.875,-38.375,40.125,0
22790,15.125,-48.3125,38.8125,0
22810,-3.4375,-57.5625,38.75,0
22830,-1.6875,-65.375,36,0
22850,7.8125,-76,29.75,0
22870,2.1875,-86.3125,25.9375,0
22890,-7.375,-91.5625,24.625,0
22910,-6.1875,-94.3125,19.6875,0
22930,1.75,-99.0625,12,0
22950,9.125,-104.625,9.1875,0
22960,-8.4375,-106.812,-0.625,0
22970,-10.1875,-108.75,-6,0
22990,-0.6875,-107.375,-13.625,0
23010,4.625,-101.812,-22.1875,0
23030,14.25,-90.3125,-46.75,0
23050,21.75,-83.5625,-56.875,0
23070,33.875,-77.875,-64.4375,0
23090,44.3125,-74.875,-68.25,0
23110,45.1875,-68.75,-66.9375,0
23130,32.4375,-60.625,-66.375,0
23150,12.0625,-52.0625,-66.125,0
23170,-4.5,-42.375,-64.5625,0
23190,-16.125,-36.75,-63.375,0
23210,-21.6875,-30.375,-57.625,0
23230,-27.75,-19.1875,-49.1875,0
23250,-35.6875,-7.9375,-47.9375,0
23270,-47.75,4.375,-45.25,0
23290,-46.25,15.375,-40.75,0
23310,-43.75,23.375,-36.125,0
23330,-50.5,33,-28.6875,0
23350,-59.25,43.5,-19.6875,0
23370,-63.125,48.875,-20.75,0
23390,-56.25,54.9375,-24.75,0
23440,-47.3125,76.875,-17.0625,0
23460,-39.1875,73,-10.125,0
23480,-32,69.0625,-1.875,0
23500,-22.5,67.375,9.8125,0
23520,-18.25,67.375,11.0625,0
23540,-18.3125,64.75,14.4375,0
23560,-16.8125,66.5625,24.4375,0
23580,-10.9375,65.375,35.3125,0
23600,-4.5625,66.875,39.8125,0
23620,-16.375,70.4375,33.3125,0
23640,-26.375,75.5,33.8125,0
23660,-0.625,71.25,40.9375,0
23680,20.75,57.3125,42.3125,0
23700,25.875,52.875,42.625,0
23720,9.5625,58,41.375,0
23740,8.875,52.6875,42,0
23760,11.1875,32.8125,42.5625,0
23780,-4.5,23.375,44.125,0
23800,-18.8125,16.8125,49.25,0
23820,-18.0625,4.75,50.1875,0
23840,-14.4375,-13.0625,49.625,0
23860,-8.375,-26.1875,50.5625,0
23880,-3.75,-34.0625,51.125,0
23900,-15.1875,-42.0625,46.0625,0
23920,-22.125,-52.3125,40.1875,0
23940,-18.625,-62.75,35.5,0
23960,-17.5,-71.0625,30.4375,0
23990,-2.75,-88.375,16.5625,0
24010,-3.875,-93.8125,-55.9375,0
24030,-1.6875,-88,-56.5625,0
24050,2.0625,-80.4375,-59.0625,0
24070,-0.5,-71.375,-61.6875,0
24090,-3.9375,-63.1875,-61.125,0
24110,-9,-59.8125,-58.875,0
24130,-10.5,-52.125,-53.625,0
24150,-13.6875,-38.125,-57.875,0
24170,-11.125,-24.0625,-59.0625,0
24190,-2.75,-18.5,-53.875,0
24210,-21.8125,-12.5625,-49.8125,0
24230,-42.6875,4.3125,-47.125,0
24250,-49.4375,18.5,-53.25,0
24270,-35.5625,26.0625,-57,0
24280,-34.375,46.5625,-43.125,0
24300,-36.6875,63.5,-45.375,0
24320,-17.1875,76,-49.875,0
24330,-13.8125,83.3125,-50.125,0
24340,-27.1875,91.25,-43.8125,0
24370,-28,98.375,-35.6875,0
24410,-1.125,87.25,-11.6875,0
24430,1.5625,89.5,0.125,0
24450,1.5,86.625,8.0625,0
24470,-2.3125,79.625,16.25,0
24490,-5.4375,77.875,25.25,0
24510,-2.5625,76.125,34.3125,0
24530,1.25,71.3125,50.625,0
24550,2.5,52.75,64.5,0
24560,-3.4375,41.6875,66.875,0
24590,3.6875,22.0625,72.5,0
24610,-8,3.6875,63.625,0
24630,-18.0625,-7.5625,64.6875,0
24650,-19.875,-21.75,67.0625,0
24670,-34.6875,-35,58.0625,0
24690,-46.5625,-44.5,50.75,0
24710,-48.75,-58.125,48.0625,0
24730,-41,-75.6875,42.625,0
24750,-34,-86.375,32.1875,0
24770,-27.6875,-91.625,21,0
24790,-34.125,-99.1875,13.125,0
24810,-31.25,-106.938,5.4375,0
24830,-18.75,-113.188,-8.1875,0
24850,-9.3125,-115.125,-21.5,0
24870,-4.375,-113,-28.625,0
24890,-9.8125,-109.188,-34.5,0
24900,-15.625,-104.625,-39.875,0
24920,-13.125,-98.4375,-45.0625,0
24940,-15.4375,-88.4375,-49,0
24960,-6.9375,-74.875,-50.9375,0
24980,5.6875,-61.5625,-50.0625,0
25000,4.4375,-50.1875,-45.5,0
25020,0.125,-41.25,-42.6875,0
25040,1.375,-32.75,-46.5,0
25060,3.6875,-23.3125,-49,0
25080,2.6875,-14.25,-43.75,0
25100,-0.25,-8.0625,-38.875,0
25120,-5.6875,-2.625,-38.3125,0
25140,-12.1875,2.625,-36.3125,0
25160,-16.25,8.6875,-32.875,0
25180,-22.3125,16.25,-30.125,0
25200,-21.625,17.625,-26,0
25220,-9.625,15.875,-18.25,0
25240,4.6875,17.75,-7.0625,2001
25260,4.625,17.9375,-4.0625,0
25280,-4.0625,16.875,-5.125,0
25300,-18,12.3125,1.3125,0
25320,-25.1875,9.9375,11.3125,0
25340,-28.75,6.6875,19.5625,0
25360,-31.125,0.875,15.1875,0
25380,-27.9375,-3.6875,14.5,0
25400,-20.1875,-3.875,22,0
25420,-3.0625,-2.3125,24.5,0
25440,8.75,-4.3125,29.625,0
25460,7,-10.1875,40.0625,0
25480,13.9375,-6.4375,47.0625,0
25500,20.9375,4.25,48.6875,0
25520,24.1875,11.8125,55.25,0
25540,25.0625,11.0625,67.625,0
25560,42.3125,13.25,77.875,0
25580,55.6875,24.75,86.25,0
25600,54.8125,32.25,92.75,0
25620,45.125,29.875,100.438,0
25640,48.0625,35.3125,107.438,0
25660,53.0625,45.6875,110.312,0
25680,50.875,46.625,104.938,0
25700,35.5,40.1875,97.75,0
25720,31.875,39.5,97.5625,0
25740,38.6875,38.1875,96.0625,0
25760,43.4375,31.5,85.0625,0
25780,35.9375,23.1875,79.0625,0
25800,24.875,19.3125,79.0625,0
25820,8.375,12.25,69.6875,0
25840,-0.625,3.875,53.1875,0
25860,1.875,-3.625,42.5625,0
25880,4.75,-12.25,30.75,0
25900,12.875,-15.375,17.375,0
25920,16.1875,-17.6875,8.6875,0
25940,16.8125,-19.1875,0.5625,0
25960,11,-17.9375,-8.5,0
25980,3.5625,-13.9375,-15,0
26000,-2.75,-8.0625,-17.4375,0
26020,-3.875,-5.9375,-17.1875,0
26040,10.875,-6.25,-17.5625,0
26060,26.3125,-8.25,-19.25,0
26080,26.375,-8.9375,-19.4375,2000
26100,16.375,-11.0625,-15.0625,0
26120,2.625,-14.0625,-10.625,0
26140,-8.875,-20.125,-9.125,0
26160,-21.125,-30.3125,-7.9375,0
26180,-18.875,-37.75,-3.5,0
26200,-11.4375,-40.0625,-4.125,0
26220,-6.8125,-41.375,-7.9375,0
26240,-1.9375,-41.3125,-12.875,0
26260,1.9375,-40.8125,-20.875,0
26280,12.125,-39.3125,-28.25,0
26300,21.5625,-33,-29.875,0
26320,22.1875,-25.5625,-30.5,0
26340,16.1875,-20.375,-33.9375,0
26360,4.125,-16.3125,-35.5625,0
26380,6.375,-9.5625,-41.125,0
26400,10.75,-1.5625,-43.375,0
26420,5.1875,5.5625,-36.8125,0
26440,-3.125,14,-32.25,0
26460,-8.125,25.1875,-33.0625,0
26480,-3.5625,37.6875,-39.125,0
26500,-10.5,46.6875,-38.875,0
26520,-24.6875,49,-31.6875,0
26540,-32.375,56.9375,-24.25,0
26560,-27.0625,72.5,-24.5,0
26580,-20.375,75.5,-29.5625,0
26600,-29.625,72.625,-21.1875,0
26620,-30.0625,78.125,-23.1875,0
26640,-18.75,81,-35.0625,0
26660,-23.5,76.8125,-32.4375,0
26680,-27.375,77.375,-26.1875,0
26700,-21.1875,81.5625,-26.375,0
26720,-13.6875,80.25,-28.1875,0
26740,-19,75.375,-28.625,0
26760,-22.125,73.3125,-31.5625,0
26780,-22.375,72.125,-32.3125,0
26800,-22.5,70.5,-26.375,0
26820,-18.1875,68.875,-24.0625,0
26840,-21,67.25,-26.6875,0
26860,-23.625,68.4375,-21.8125,0
26880,-14.3125,65.625,-16.375,0
26900,-7.875,62.3125,-12.9375,0
26920,-8.5,59.1875,-8.5625,0
26940,-6.5625,55.8125,-4.5625,0
26960,-6.1875,54.375,-0.875,0
26980,-9.875,52.625,6.1875,0
27000,10.5625,50.0625,14.3125,0
27020,20.3125,49,13,0
27030,1.3125,41.5625,12.5,0
27050,0.375,37.875,23.25,0
27070,19.0625,35,26.125,0
27090,21.8125,31.875,25.6875,0
27110,16.75,31,26,0
27130,19.5625,27.5625,30.3125,0
27150,23.0625,19.625,33.5625,0
27170,10.5625,14.875,33.625,0
27190,-5.1875,17.3125,35.0625,0
27210,-1.125,9.625,34.1875,0
27230,5.0625,-7.9375,36.625,0
27270,12.875,-29.875,47,0
27290,0.6875,-30.9375,45.1875,0
27310,-12.9375,-39.5,41.5,0
27350,-7.3125,-46.8125,44.5,0
27380,-20.0625,-46.875,33.3125,0
27400,-27.0625,-53.5,27.9375,0
27420,-20.875,-74.5,20,0
27430,-14.125,-80.0625,15.875,0
27470,-19.625,-92.5625,5.125,0
27490,-18.25,-96.1875,1.1875,0
27510,-18.75,-99.25,-4.875,0
27530,-19.1875,-101.562,-11,0
27550,-10.6875,-102.312,-16.3125,0
27570,-6.1875,-102.812,-22.5,0
27590,-8.3125,-102.25,-25.4375,0
27610,-18.25,-101.875,-26.5,0
27630,-16.4375,-100,-30.125,0
27650,-7.375,-96.875,-37.0625,0
27670,-5.5,-91.8125,-38.3125,0
27690,-4.375,-85.375,-38.375,0
27710,-6.625,-79.0625,-42.25,0
27730,-11.0625,-73.875,-48.4375,0
27750,-21.3125,-70.0625,-48.8125,0
27770,-31.9375,-65.875,-45.6875,0
27790,-25.8125,-61,-45.625,0
27810,-11.625,-54.1875,-42.8125,0
27820,-5.0625,-45.25,-40.5625,0
27840,-9.75,-38.1875,-36.9375,0
27860,-10,-31.1875,-36.1875,0
27880,-10.625,-20.3125,-39.5,0
27900,-13.5,-7.8125,-40.1875,0
27920,-14.75,2.4375,-40.3125,0
27940,-7.75,9.5625,-43,0
27960,-8.375,19.875,-49.375,0
27980,-19.9375,29.5625,-47.5,0
28000,-16.4375,33.8125,-43.3125,0
28020,-9.375,38,-45.5625,0
28040,-12,47.8125,-44.5625,0
28060,-19.25,59.125,-36.8125,0
28080,-22.4375,58.875,-34.25,0
28100,-23.9375,59.0625,-34.5,0
28120,-27.875,67.25,-34.125,0
28130,-37.5625,71.8125,-31.9375,0
28150,-39.0625,71.8125,-25.875,0
28170,-26.25,71.6875,-26.0625,0
28180,-25.6875,77.5,-20.0625,0
28200,-16.25,77.625,-12.875,0
28210,-7.9375,77.3125,-12.625,0
28250,-17.6875,72.6875,2.6875,0
28270,-6.9375,72.25,3.3125,0
28290,-10.1875,63.3125,3.25,0
28310,-8.5625,60.1875,10.4375,0
28330,-10.5625,55.5,23.375,0
28350,-1.625,52.75,36.875,0
28370,18.3125,52.125,33.9375,0
28390,12.4375,51.875,27.375,0
28410,-3,49.1875,25.3125,0
28430,-15.25,45.625,36.1875,0
28450,-4.125,39.3125,45.375,0
28470,4.1875,28.5,45.8125,0
28490,-17.125,27.8125,46.3125,0
28510,-40.25,27.375,53.375,0
28530,-41.6875,9.4375,55.8125,0
28550,-40.8125,-5.3125,62.625,0
28570,-21.4375,-13.625,69.0625,0
28590,-5.3125,-22.5,60.9375,0
28610,-1.0625,-31.125,51.125,0
28630,-14.9375,-35.8125,47.5625,0
28650,-27.4375,-42.3125,42.5,0
28670,-38.25,-51,34.875,0
28690,-39.0625,-57.25,27.3125,0
28710,-28.1875,-63.875,20.5625,0
28730,-21.625,-69.6875,17,0
28750,-20.9375,-73.3125,15.75,0
28770,-18.9375,-73.9375,11.5,0
28790,-16.125,-73.4375,2.6875,0
28810,-15.6875,-76.0625,-1.4375,0
28830,-18.25,-78.625,-2.5625,0
28870,-9.5625,-74.9375,-24.0625,0
28890,3.1875,-78,-35.375,0
28930,-2.8125,-71.25,-50.25,0
28950,-1.5625,-64,-51.3125,0
28970,7.5,-56.1875,-56.75,0
28990,12,-51.75,-60.25,0
29010,3.8125,-47,-55.4375,0
29030,-5.4375,-38.1875,-53.0625,0
29050,-4.5,-26.9375,-56.8125,0
29070,-2.9375,-20.3125,-62.0625,0
29090,-5.8125,-15.1875,-58.0625,0
29110,-11.4375,-4.875,-54.0625,0
29130,-15.625,8.5,-55.1875,0
29150,-10.6875,17.375,-56.8125,0
29170,-9.25,23.9375,-51.5625,0
29190,-18.5,33.5625,-46.125,0
29210,-28.25,43.875,-42.9375,0
29230,-36.125,52,-40.1875,0
29250,-29.8125,59.8125,-36.4375,0
29270,-22.5625,67.5625,-32.5625,0
29290,-23,72.875,-25.3125,0
29310,-26.375,79.0625,-14.4375,0
29330,-23.25,83.8125,-9.9375,0
29350,-1.5625,84.625,-5.5,0
29370,-4.625,78.4375,-6.9375,0
29380,-19.6875,76.5625,-6.8125,0
29400,-26.125,74.75,-7.0625,0
29420,-27,70.5625,0.0625,0
29430,-11.9375,64.875,12.3125,0
29450,1.375,56.4375,19.125,0
29470,0.875,51.125,21.125,0
29490,-2.9375,45.6875,23.5625,0
29510,-5.375,42.0625,29,0
29530,-9.0625,35.3125,41.125,0
29550,-8,30.4375,53.125,0
29570,-15.6875,28.0625,57.25,0
29590,-28.3125,25.5625,55.6875,0
29610,-25.3125,19.3125,54,0
29630,-16.875,15.125,54.0625,0
29650,-12.625,8.625,54.125,0
29670,-14.8125,4,56.5,0
29690,-16.75,-1.125,55.6875,0
29710,-17.3125,-9,45.375,0
29730,-25.5625,-17.375,40.375,0
29750,-29.1875,-24.3125,41,0
29770,-21.375,-32.3125,36.625,0
29790,2.125,-43.125,20.875,0
29810,17.75,-52.5,5.1875,0
29830,28.8125,-58.625,-3.5625,0
29850,32.3125,-66.3125,-7.5625,0
29870,28.875,-75.25,-7,0
29890,9.6875,-82.0625,-6.4375,0
29910,-7.0625,-83.625,-7.875,0
29930,-10.9375,-84.6875,-9.6875,0
29950,-8.125,-85.4375,-7.5,0
29970,4.875,-85.375,-5.9375,0
29990,11.1875,-85.6875,-10,0
30010,22.625,-85.5,-16.75,0
30030,19.6875,-85.5625,-18.9375,0
30050,8.1875,-85.1875,-22,0
30070,-2.375,-84.4375,-33.3125,0
30090,-3.75,-78.3125,-46,0
30110,-4.625,-75.4375,-45.0625,0
30120,-0.5625,-69.8125,-46.0625,0
30140,0,-61.0625,-45.8125,0
30160,3.5625,-52.3125,-40.8125,0
30180,6.8125,-44.5625,-35.625,0
30200,8.125,-36.4375,-28.875,0
30220,12.625,-24.1875,-19.5625,0
30240,13.25,-15.0625,-19.375,0
30260,8.375,-12.875,-23.4375,0
30280,3.625,-8.625,-20.75,0
30290,0.3125,-1.0625,-15.125,0
30310,7.6875,1.8125,-11.5,0
30330,8.375,1.6875,-6.1875,0
30350,-0.5,7.125,0.3125,0
30370,-5.125,7.9375,1.125,0
30390,-1.125,5.0625,0.5625,0
30410,-0.0625,6.4375,3,0
30430,10.875,8.375,4.625,2001
30450,17.0625,8.25,6.4375,0
30470,15,6.9375,6.1875,0
30490,6.9375,9.3125,6.3125,0
30510,-3.8125,8.1875,3.875,0
30530,-16.1875,5.1875,0.625,0
30550,-15.5,4.875,-3.9375,0
30570,-3.0625,3,-8,0
30590,9,2.4375,-4.5,0
30610,14.875,2.375,-2.125,0
30630,9.9375,3.0625,-0.6875,0
30640,-2.1875,4.875,1.375,0
30660,-10.8125,7.5625,0.6875,0
30680,-19,11.9375,3.5625,0
30700,-21.75,17.4375,8.5625,0
30720,-14.25,14.375,19.9375,0
30740,0.4375,8.3125,30.5625,0
30760,3.3125,8.375,38,0
30780,-1.4375,8.9375,49.6875,0
30800,7.6875,12.75,62.9375,0
30820,31.6875,21.125,84.75,0
30840,53.625,24.6875,102.188,0
30860,58.0625,26.125,108.812,0
30880,51.6875,31.25,113.5,0
30900,44.0625,34.0625,120,0
30920,33.875,36.125,119,0
30940,38.5625,36.3125,115.75,0
30960,43.75,36.5625,113.188,0
30980,38.9375,34.1875,107.125,0
31000,33.5625,31.5,96.75,0
31020,37.125,28.375,85.5625,0
31040,34.25,25.5625,69.9375,0
31070,21.5,14.25,45.875,0
31090,13.1875,12.25,43.0625,0
31110,13.3125,10.75,32.25,0
31130,17.6875,6.8125,19.4375,0
31150,21,2.375,15.25,0
31170,21.9375,1,17.875,0
31190,15.375,0.4375,19.375,0
31210,14.375,-2.1875,12.875,0
31230,13.875,-4.75,2.625,0
31250,1.1875,-5.5,-3.5,0
31270,-3.75,-2.875,-6,0
31290,3.8125,-4.875,-9.5,0
31310,12.75,-10,-11,0
31330,12.4375,-6.625,-13,0
31350,12.875,-5.25,-15.0625,2000
31370,1.8125,-8.5625,-17.5,0
31390,-4.875,-10.625,-16.3125,0
31410,-1.125,-15.625,-13.375,0
31430,3,-20.125,-15.25,0
31450,6.4375,-23.5,-17.375,0
31470,5.375,-28.875,-20.6875,0
31490,-4.1875,-33.0625,-25.625,0
31510,-10.125,-32.9375,-30.5625,0
31530,-3.875,-29.25,-36.25,0
31550,11,-23.125,-38.25,0
31570,11.5625,-15.625,-37.5,0
31590,8.3125,-6.75,-30.75,0
31610,17.4375,8.375,-30.3125,0
31630,21.125,20.0625,-37.5625,0
31650,2.125,30.0625,-34.875,0
31670,-10.375,39.625,-29.4375,0
31690,-2.9375,46.75,-33.0625,0
31710,7,51.25,-36.625,0
31730,-1.375,61.8125,-31.625,0
31750,-9.875,74,-27.9375,0
31770,-4.4375,81.1875,-32.875,0
31790,-0.5,81.875,-35.875,0
31810,-7.75,85.75,-35.375,0
31830,-8.25,90.75,-35.3125,0
31850,-4.1875,93.5,-35.5625,0
31870,-7.375,90.0625,-30.5625,0
31890,-9,88.0625,-25.8125,0
31910,-11.0625,85.125,-27.8125,0
31930,-15.8125,80.5625,-27.875,0
31950,-16.9375,72.9375,-25,0
31970,-12.1875,65.1875,-23.25,0
31990,-15,57.4375,-20.75,0
32010,-17.875,53.5,-13.625,0
32030,-17.4375,51.3125,-9.75,0
32050,-11.625,47.9375,-11.3125,0
32070,-10.125,43,-11.75,0
32090,-13.1875,39.25,-6.1875,0
32110,-17.125,38.5,5.0625,0
32130,-8.75,35.9375,11.1875,0
32150,-2.75,34.8125,9.75,0
32170,5.25,33.875,12.75,0
32190,4.625,33.0625,26.875,0
32210,1.5,34.5,44.5625,0
32230,5.5,38.1875,56.3125,0
32250,7.3125,41.9375,55.4375,0
32270,-4.125,49.125,48.6875,0
32290,-6.75,47.125,51.0625,0
32310,5.875,33.375,52.375,0
32330,12.125,19.6875,49.4375,0
32350,8.8125,11.625,44.25,0
32370,7.375,1,35.9375,0
32390,4.6875,-13.5,32.375,0
32410,5.5,-24,35.3125,0
32430,12,-31.0625,38.625,0
32450,19.4375,-47.0625,39,0
32470,0.125,-66.75,39.5625,0
32490,-6.5,-77.1875,39.25,0
32510,-11.5,-88.5625,33.625,0
32530,-24.875,-100,23.8125,0
32550,-38.1875,-109.625,15.875,0
32570,-40.4375,-120.125,7.875,0
32590,-32.8125,-130.438,-13.375,0
32610,-21.9375,-130.625,-22.875,0
32630,-19.625,-129,-28.0625,0
32680,-16.8125,-104.562,-38.4375,0
32700,-15.3125,-95.375,-38.0625,0
32720,-7.6875,-87.9375,-39.75,0
32740,-4.0625,-79.9375,-43.0625,0
32760,-3.0625,-69.3125,-45.5625,0
32780,-3.0625,-58.75,-46.75,0
32800,-0.25,-53.8125,-51.8125,0
32820,-0.1875,-49.5625,-57,0
32840,-1.375,-37.3125,-57.9375,0
32860,3.5,-24.0625,-60.4375,0
32880,2.5625,-16.625,-63,0
32900,-10.125,-13.5625,-58.75,0
32920,-24.125,-2.875,-55.1875,0
32940,-28.5,13.9375,-56.8125,0
32960,-23.3125,28.25,-53.75,0
32980,-8.5625,38,-45.875,0
33000,-4,47.5625,-39.8125,0
33020,-18.375,61.3125,-36.3125,0
33040,-24.625,72.5,-31.0625,0
33060,-23.8125,80,-26.1875,0
33080,-23.75,87,-25.0625,0
33100,-22.8125,93.3125,-22.6875,0
33120,-23.6875,97,-13.6875,0
33140,-19.25,96.4375,-10.375,0
33160,-20.625,92.75,-14.4375,0
33180,-26.5,90.0625,-17.375,0
33220,-14,80.9375,-4.5625,0
33240,-9.25,75.5625,1.875,0
33260,-4.4375,70.25,6.3125,0
33280,-6.9375,68.5,6.3125,0
33300,-14.5625,68.8125,5.375,0
33340,-2.4375,60.125,14.4375,0
33360,6.375,53.25,28.4375,0
33380,8.1875,52.875,32.875,0
33400,-5.25,52.5625,44.875,0
33420,-26.6875,47.25,63.875,0
33440,-36.875,33.5625,70.875,0
33460,-34.9375,23.25,65.6875,0
33480,-32.8125,18.9375,59.0625,0
33500,-31.125,10.625,54,0
33520,-20,-1.5625,55.0625,0
33540,-11.875,-13,53.75,0
33550,-16.625,-16.6875,48.1875,0
33570,-20.8125,-23.125,35.25,0
33590,-29.0625,-35.9375,24.75,0
33610,-30.75,-47.0625,26.75,0
33630,-20.0625,-64.25,19.375,0
33650,-16.125,-73.25,11.5625,0
33670,-22.375,-79.5,10,0
33680,-18.4375,-85.1875,9.6875,0
33690,-12.6875,-90.25,1.4375,0
33710,-0.5625,-109.812,-17.125,0
33740,-21.3125,-108.375,-42.875,0
33750,-13,-102.5,-51,0
33770,-3.125,-97.8125,-53.8125,0
33790,0.125,-91.1875,-55.5,0
33810,6.125,-80.375,-64.1875,0
33830,8.375,-70.3125,-73.375,0
33850,9.6875,-50.625,-70.375,0
33870,7.625,-37.3125,-70.4375,0
33890,3.375,-28.625,-74.75,0
33910,-1.5625,-22.0625,-74.125,0
33920,-9.0625,-15.1875,-68.625,0
33930,-26.375,-4.3125,-59.375,0
33950,-36.5625,11.25,-56.4375,0
33970,-37,18.75,-60.125,0
33980,-35.3125,24.875,-55.9375,0
34000,-36.375,38.5,-48.3125,0
34020,-43,56.0625,-44.375,0
34030,-30.6875,69.6875,-36.5625,0
34050,-26.25,91.4375,-28.1875,0
34070,-28.625,94,-20,0
34090,-20.8125,92.625,-13.9375,0
34100,-6.4375,93.4375,-7.8125,0
34120,-6.25,88.125,18.8125,0
34150,-2.1875,72.875,39.0625,0
34170,8.6875,68.125,43.4375,0
34190,15,62.625,43.6875,0
34210,7.1875,60.125,48,0
34240,-36.25,11.1875,52.8125,0
34260,-41.0625,-2.875,58.75,0
34280,-33.6875,-15.4375,70.6875,0
34300,-28.25,-27.8125,64,0
34320,-34.875,-41.0625,50.1875,0
34340,-45,-50.875,43.75,0
34360,-44.375,-56.4375,39.6875,0
34380,-33.4375,-65.5625,29.5625,0
34400,-31.0625,-76.25,13.875,0
34420,-31.8125,-81.375,3.875,0
34440,-33.9375,-81.1875,0.375,0
34460,-23.75,-81.5,-1.1875,0
34480,-25.5,-83.6875,-2.6875,0
34500,-34.5625,-80.5625,-2.4375,0
34510,-37.1875,-75.3125,-6.125,0
34540,-17.1875,-69.3125,-21.125,0
34560,-3.625,-64.625,-24.8125,0
34580,5.1875,-60.875,-32.125,0
34600,2.5625,-59.25,-39.4375,0
34620,0.375,-54.125,-42.5625,0
34630,-0.5,-46.9375,-45.6875,0
34640,1.875,-40,-47.3125,0
34670,12.4375,-22.75,-42.8125,0
34710,0,0.5,-35.875,0
34720,5.375,2.75,-34.25,0
34740,1.75,5,-32.375,0
34760,-4.8125,7.5625,-31.0625,0
34780,-7.8125,11.25,-28.875,0
34800,-15.5,14,-27.1875,0
34820,-16.75,12.8125,-26.0625,2001
34840,-10.5625,11.0625,-22.1875,0
34860,-3.625,9.5625,-18.9375,0
34880,2.4375,4.5,-18.1875,0
34900,4.75,-2.875,-16.4375,0
34920,-2.1875,-5.4375,-8.625,0
34940,-9.8125,-5.6875,2.125,0
34960,-16.125,-6.5625,7.1875,0
34980,-29.5,-6.0625,2.5625,0
35000,-28.1875,-5.6875,-3.0625,0
35020,-7.75,-7.5,-0.25,0
35040,2.75,-3.9375,7.5625,0
35060,16.5625,-0.625,15,0
35080,30.9375,1.375,25.25,0
35100,49.9375,-4.5,37.25,0
35120,56.8125,-8.4375,50.3125,0
35140,67.375,-4.875,66.1875,0
35160,69.3125,-1,80.375,0
35180,64.1875,4.5625,94.0625,0
35200,51.8125,13.375,103.688,0
35220,49.125,22.625,111.625,0
35240,50.6875,23.1875,118.75,0
35260,51.4375,21.3125,120.875,0
35280,49.875,25.875,113.25,0
35300,56.4375,30.9375,105.75,0
35330,43.875,19.1875,86.5625,0
35340,37.1875,20.375,79.25,0
35360,32,16.1875,66.125,0
35370,22.375,10.625,51.1875,0
35390,11.6875,7.8125,38.0625,0
35410,15.875,2.9375,25.4375,0
35430,19.3125,-3.25,15.625,0
35450,21.1875,-5.9375,6.625,0
35470,20.75,-8.125,-2.1875,0
35490,14.5625,-12.4375,-9.5,0
35510,5.9375,-11.375,-12.25,0
35530,17.25,-5.3125,-14.75,0
35550,20.5,-0.6875,-13.5,0
35570,-5,1.875,-4.125,0
35590,-5.3125,2.1875,0.1875,0
35610,-3.375,3.6875,-3.3125,0
35630,4.75,3.625,8.875,0
35650,10.9375,-0.625,19.0625,0
35670,6.1875,-15.25,17.3125,0
35690,-13.5,-20.8125,3.4375,0
35710,-26.375,-20.6875,-8.6875,0
35730,-19.75,-21.75,-14.875,0
35750,-1.6875,-25.4375,-15,0
35770,10.8125,-29.0625,-15.25,0
35790,14.4375,-30.6875,-19.8125,0
35810,9.6875,-30,-25.875,0
35830,-1.4375,-28.25,-29.0625,0
35850,-2.25,-25.3125,-29.0625,0
35870,5.1875,-23.75,-31.3125,0
35890,9.375,-18.125,-31.6875,0
35910,3.3125,-9.625,-28.5,0
35930,-3.25,0.5,-25.8125,0
35950,-3.5,8.9375,-29,0
35970,-3.6875,19.3125,-28.5,0
35990,-7.1875,33.4375,-18.0625,0
36010,-10.75,46.0625,-11.6875,0
36030,-17.875,51.6875,-17.6875,0
36050,-12.3125,59,-18.875,0
36070,-0.9375,73.0625,-13.375,0
36090,5.125,82.8125,-12.25,0
36110,-3.3125,86.5,-17.875,0
36130,-9.4375,87.375,-20.75,0
36150,-1.4375,80,-28.125,0
36170,3.75,74.3125,-35.625,0
36180,3.5,77.125,-34.0625,0
36200,-4.9375,71.125,-36.4375,0
36220,-18.4375,46.9375,-37.5,0
36240,-30.3125,35.4375,-41.3125,0
36260,-27.25,23.875,-37.0625,0
36280,-22.125,7.125,-22.5625,0
36300,-14.125,-9.875,-11.0625,0
36320,-0.25,-26.1875,-8.5625,0
36340,15.1875,-42.8125,4.75,0
36360,7.875,-41,25.5,0
36380,20.0625,-38.4375,41.625,0
36400,25.125,-46.4375,39.3125,0
36420,14.5,-52.9375,41.4375,0
36440,6.5,-54.625,45.5,0
36460,2.3125,-52.375,47.125,0
36480,6.5625,-44.5625,50.0625,0
36500,7.3125,-40.125,49.8125,0
36520,12.8125,-36.75,42.6875,0
36540,10.3125,-31,35.4375,0
36560,-7.0625,-23.5625,32.75,0
36580,-15.0625,-16.375,30.9375,0
36600,-8.4375,-11.1875,25.9375,0
36620,-0.5,-9.375,25.4375,0
36640,3.625,-8.5,29.0625,0
36660,8.5625,-8.1875,26.9375,0
36680,8.5625,-5.5,18.9375,0
36700,8.8125,-4.0625,14.125,0
36720,10.375,-8.875,7.375,0
36740,21.4375,-11.4375,-0.6875,0
36760,30.875,-16.25,-3.5625,2000
36780,31.0625,-17.3125,-5.375,0
36800,19.5625,-18.1875,-15,0
36820,12.1875,-25.625,-26.1875,0
36840,4.375,-29,-31.3125,0
36860,-0.1875,-33.6875,-28.875,0
36880,1.5625,-32.75,-31.25,0
36880,12.3125,-32.375,-34.375,0
36900,8.25,-33,-35.3125,0
36920,-7.75,-33.8125,-32.125,0
36940,-14.875,-27.1875,-25.125,0
36960,-5.75,-15.0625,-21.625,0
36980,1.5625,-3,-25.6875,0
37000,2.125,7.8125,-26.9375,0
37020,-9.4375,24.9375,-22.5625,0
37040,-0.4375,46.1875,-19.375,0
37060,13.4375,62.25,-30,0
37080,10.8125,74.5625,-36.375,0
37100,-3.9375,85.3125,-40.375,0
37120,-20.375,94.1875,-43.1875,0
37140,-18.75,105.688,-40,0
37160,-6.4375,114.312,-45.5625,0
37180,-3.4375,117.125,-47.6875,0
37200,-7.75,115.5,-41.6875,0
37220,-18.25,107.312,-45.3125,0
37240,-29.5,102.312,-49.1875,0
37260,-30,97.875,-50.875,0
37280,-27.375,89.6875,-46.1875,0
37300,-24.3125,82.375,-39.875,0
37320,-25.5,75.5625,-36,0
37340,-27.375,68.5625,-29.6875,0
37360,-12.125,62.875,-22.4375,0
37380,3.125,54.25,-21.375,0
37400,9.75,42.75,-17.625,0
37420,3.6875,40,-9.4375,0
37440,9.0625,34.9375,0.75,0
37460,9.1875,29.25,10.0625,0
37480,11.0625,29,15.25,0
37520,3.1875,29.3125,26.4375,0
37540,27.375,24.5,37.1875,0
37560,35.3125,18.8125,36.5,0
37580,17.625,15.6875,34.625,0
37600,6.8125,10.125,39.6875,0
37620,7.3125,3.625,48.5625,0
37640,12.375,-10.1875,49.875,0
37660,1.75,-22.625,48.5,0
37680,-12.25,-27.0625,44.875,0
37720,-0.75,-63.875,30.9375,0
37740,8.6875,-88.5625,26.875,0
37760,9,-101.688,26.375,0
37780,-4.6875,-106.875,18.0625,0
37800,-16.125,-116.875,10.1875,0
37820,-28.0625,-126.688,8.625,0
37840,-31.4375,-132.062,6.0625,0
37860,-17.25,-132.562,-1.4375,0
37880,-1.9375,-129.875,-7.8125,0
37900,-0.125,-125,-12.375,0
37920,-7.25,-121.688,-16,0
37940,-8.25,-114.375,-22,0
37960,14.5625,-108.188,-29.9375,0
37980,20.1875,-107.062,-36.3125,0
38000,3.25,-102.688,-43.4375,0
38020,-5.5625,-93.125,-51.25,0
38040,-3.875,-83.3125,-56.375,0
38060,-5.3125,-75.75,-55.3125,0
38080,-13.5,-66.0625,-53.0625,0
38100,-17.4375,-53.3125,-54.75,0
38110,-21.375,-37.75,-55.8125,0
38130,-19.375,-22.5625,-54.1875,0
38150,-18.875,-9.9375,-48.8125,0
38170,-22.3125,3.1875,-43.6875,0
38190,-30.625,20.4375,-39.5,0
38210,-30.25,38.3125,-36.625,0
38230,-21.5625,52.0625,-35.125,0
38250,-28.75,61.375,-32.4375,0
38270,-40.8125,74.125,-24.5625,0
38290,-29.875,89.25,-22,0
38310,-26,100.312,-27.25,0
38330,-38.125,100.625,-26.75,0
38350,-40.1875,100.5,-20.75,0
38380,-36.0625,99.75,-31,0
38400,-28.3125,93.875,-22.125,0
38420,-29.5625,88.75,-19.0625,0
38450,-10.0625,73.625,5.75,0
38460,-1.8125,66.9375,11,0
38480,2.0625,65.5,26.4375,0
38500,11.8125,61.75,34.625,0
38520,13.8125,56.75,35.25,0
38540,12.3125,52.5625,33.1875,0
38560,-4.0625,55.875,38.5,0
38580,-5,51.8125,50.8125,0
38600,18.5,38.625,58,0
38620,23.25,24.9375,53.125,0
38640,3,10.875,41.75,0
38660,-3.75,-9.6875,43.8125,0
38680,8,-34.9375,54.8125,0
38720,-8.8125,-67.25,58,0
38740,-28.875,-79.375,47.125,0
38760,-36.75,-94.875,45.5,0
38780,-25.6875,-111.312,45.4375,0
38800,-17.25,-123.25,38.625,0
38840,-25.375,-127.438,13.3125,0
38860,-11.75,-130.688,1.125,0
38880,-3.125,-132.625,-6.3125,0
38900,2.6875,-127.312,-11.6875,0
38920,5.875,-119.312,-24.0625,0
38940,8.5,-114.375,-37.0625,0
38960,3.625,-111,-44,0
38980,-5.9375,-103.688,-48.4375,0
39000,-1.8125,-92.4375,-55.1875,0
39020,1.0625,-82.125,-62,0
39040,-3.875,-71.0625,-63.625,0
39060,-4.625,-59.3125,-61.9375,0
39080,-7.4375,-45.875,-66.4375,0
39090,-12.875,-31.5,-71.1875,0
39110,-15,-18.625,-69.4375,0
39130,-17.3125,-7.8125,-68.9375,0
39150,-24.8125,3.75,-70.0625,0
39180,-50.8125,81.625,-50.0625,0
39210,-42.4375,98.4375,-32.4375,0
39230,-42.3125,104.5,-22.75,0
39250,-38.3125,109.75,-12.4375,0
39270,-18.5,105.562,-6.25,0
39290,-4.125,104.438,8.625,0
39330,8.375,87.4375,41.875,0
39340,-0.25,83.125,49.4375,0
39360,-16.9375,49.6875,72.5,0
39380,4.875,39.3125,78.5625,0
39410,-3.75,15.25,81.625,0
39430,-8.5625,1.875,74.125,0
39450,-3.5,-15.125,65.0625,0
39480,-2.4375,-39.8125,65.8125,0
39510,-27.125,-65.9375,49.625,0
39530,-22.5,-65.8125,52.6875,0
39550,-17.375,-64.0625,53.6875,0
39570,-29.9375,-63.9375,50.125,0
39590,-34.5,-61.0625,42.5625,0
39610,-34.4375,-57.3125,37.375,0
39630,-29.3125,-57.125,25.25,0
39650,-13.1875,-57.75,8.6875,0
39670,-4.125,-57.375,-3.6875,0
39690,-0.875,-54.6875,-13.4375,0
39710,0.6875,-52.8125,-25.8125,0
39730,0.125,-53.25,-36.5625,0
39750,-0.25,-52.6875,-41,0
39770,-4.3125,-50.1875,-44.25,0
39790,0.25,-48.25,-48.4375,0
39810,0.875,-47.5625,-49.875,0
39830,-1.75,-43.25,-51.875,0
39850,-6.25,-39.25,-53.625,0
39880,-3.6875,-35.3125,-50.5,0
39900,-0.5,-28.9375,-46.25,0
39920,-2.625,-23,-42.9375,0
39940,-5,-19.8125,-37.625,0
39960,-5.75,-15.375,-32.1875,0
39980,-17.875,-9.125,-28.8125,0
40000,-19.25,-2.875,-30.6875,0
40020,-25.5625,0.25,-35.0625,0
40040,-28.9375,-2.1875,-32.8125,0
40060,-19.0625,-3.375,-24,2001
40080,-9.1875,-1.625,-15.625,0
40110,-6.8125,-3.5,-7.3125,0
40130,-5.875,-4.1875,-7.8125,0
40150,3.0625,-2.75,-5.4375,0
40170,16.5625,-1.375,5.5625,0
40190,15.1875,1.3125,13.0625,0
40210,7.3125,2.4375,12.375,0
40230,-4.4375,1.125,6.875,0
40250,-13.9375,-0.75,1.375,0
40270,-11.125,2.3125,6.75,0
40290,-3.3125,7.4375,9.5,0
40310,7.75,12.4375,11.3125,0
40330,13.0625,10.8125,13.375,0
40350,9.4375,7.3125,22.25,0
40370,21.25,2.5625,40.375,0
40390,25.5,1,56.125,0
40400,28,2.875,68.9375,0
40420,36.9375,2,88.625,0
40440,54.25,2.25,108.25,0
40450,66.25,9.75,113.875,0
40470,78.4375,27.625,120.062,0
40490,67.1875,33,125.688,0
40510,55.4375,42.625,123.062,0
40530,55.3125,50.125,118.438,0
40550,48.5,45.5,113.5,0
40570,43.4375,42.6875,105,0
40590,45.875,44,89.125,0
40610,43.5625,38.625,74.625,0
40630,30.5625,30.0625,62.8125,0
40650,18.375,26.3125,51.4375,0
40670,8.1875,23.25,38,0
40690,-0.25,16.625,26.625,0
40710,0.8125,8.6875,17.1875,0
40730,9.8125,3.5,8.5625,0
40750,11.9375,1.75,0.125,0
40770,7.375,1.1875,-3.75,0
40790,0.8125,-2,-3.4375,0
40810,-3.1875,-5.375,-3.9375,0
40830,-9.4375,-6.25,-2.625,0
40850,-6.8125,-6.375,-0.3125,0
40870,-4.75,-7.875,-2.25,0
40890,-9,-7.3125,-3.625,0
40910,-8,-10.6875,-1.125,2000
40930,-10.3125,-15.3125,0.5625,0
40950,-13.125,-17,1.3125,0
40970,-7.875,-19.4375,-6.3125,0
40990,-5.0625,-22.125,-14.875,0
41010,-4.4375,-27.3125,-18.625,0
41030,-5.25,-33.125,-16.8125,0
41050,-1.5625,-34.6875,-14.25,0
41070,13.1875,-35.3125,-13,0
41090,23.9375,-32.3125,-15.6875,0
41110,21.25,-25.625,-17.6875,0
41130,-2.375,-20.125,-17.875,0
41150,-7.125,-17.4375,-22,0
41170,21.75,-8.1875,-19.5625,0
41190,41.5,-1.3125,-21.6875,0
41210,44.3125,5.5,-25.625,0
41230,31.3125,12.625,-36.5,0
41250,7.5,20.6875,-45.125,0
41270,-2.125,37.9375,-41.375,0
41290,4.9375,52.0625,-44.25,0
41310,15.3125,62.625,-44.4375,0
41330,12.8125,72.125,-44.375,0
41350,4.8125,86.5,-43.6875,0
41370,3.4375,94.125,-48.5625,0
41390,-9,92.5625,-40.6875,0
41410,-20.1875,94.8125,-41.875,0
41430,-22,97.0625,-49,0
41450,-18.8125,93.5,-45.3125,0
41470,-19.625,84.125,-36.625,0
41490,-29.9375,78.25,-35.6875,0
41510,-45.1875,81.3125,-42.0625,0
41530,-61.0625,90.875,-40.1875,0
41550,-57.625,92.8125,-26.8125,0
41570,-28,83.25,-22.5,0
41590,0.1875,71.375,-21.0625,0
41610,18.9375,66.0625,-17.9375,0
41630,18.125,67.3125,-14.5,0
41650,9.125,68.1875,-8.9375,0
41670,-10.9375,65.25,-2.0625,0
41690,-8.0625,61.9375,8.5,0
41710,8.0625,56,9.8125,0
41730,13.375,50.5,12.875,0
41750,14.5,51.1875,20.5625,0
41770,23.5,44,23.125,0
41790,28.75,24.375,26.9375,0
41810,36.3125,4.75,41.25,0
41830,33.75,-3.75,45.8125,0
41850,12.0625,-7.3125,40.6875,0
41870,-23.75,-17.5625,41.625,0
41890,-39,-31.6875,47.125,0
41930,-15.6875,-53.5625,49.3125,0
41950,-14.875,-57.5625,48.375,0
41970,-11.0625,-60.75,46.125,0
41990,-12.375,-67.8125,40,0
42010,-15.9375,-76.25,31.5,0
42030,-16,-115.688,-6.5625,0
42050,-4.375,-117.688,-22.375,0
42060,6.1875,-123.312,-37.0625,0
42060,6.8125,-129.562,-45.125,0
42090,7.625,-122,-58.375,0
42110,3.5625,-111.75,-65.8125,0
42130,0.25,-102.875,-70.625,0
42150,9.8125,-95.375,-67.375,0
42170,19.875,-84.0625,-67.4375,0
42190,23.875,-67.4375,-66.625,0
42210,27.875,-51.75,-64.25,0
42230,20.1875,-39.0625,-65.75,0
42250,10.75,-23.8125,-64.0625,0
42270,-0.0625,-4.9375,-64.25,0
42290,-15.6875,13.875,-66.6875,0
42310,-29.375,32.25,-64.4375,0
42330,-33.9375,43.3125,-62.0625,0
42350,-28,53.4375,-62.1875,0
42370,-29.9375,66.125,-55.75,0
42390,-34,79.625,-46,0
42410,-32,88.5625,-42.5,0
42430,-30.9375,90.875,-41.125,0
42440,-31.4375,95.0625,-35.3125,0
42460,-38.75,96,-29.5,0
42480,-40.1875,94.375,-24,0
42500,-35,91.4375,-17.0625,0
42530,-21.9375,81.875,3.4375,0
42550,-21.3125,76.8125,11.75,0
42570,-20.875,73.6875,17.625,0
42590,-20.0625,71.4375,20.5,0
42610,-19.3125,64.875,27.625,0
42630,-17.4375,58.25,43.75,0
42650,3.0625,56.625,53.6875,0
42670,16.9375,53.9375,50.625,0
42690,8.5625,50.1875,58.6875,0
42710,1.1875,50.6875,73.375,0
42730,-16,47.75,70.75,0
42750,-21.6875,33.5625,63,0
42770,-24,16.375,73.8125,0
42790,-29.1875,-3.5625,84.25,0
42810,-35.625,-27.5625,84.1875,0
42830,-38.75,-54.9375,76.0625,0
42850,-52.875,-73.6875,62.75,0
42870,-58.9375,-86.6875,51.75,0
42890,-60.3125,-99.375,38.5625,0
42910,-56.125,-110.875,30.9375,0
42930,-56.375,-118.75,21.6875,0
42950,-47.375,-120.062,4.6875,0
42970,-21.5,-123.312,-9.1875,0
42990,-0.0625,-125.5,-16.5625,0
43010,2.0625,-120.25,-24,0
43030,-0.625,-111.625,-37.625,0
43050,3.1875,-106.5,-54.1875,0
43070,3.0625,-101.938,-67.625,0
43090,3.3125,-94.625,-76,0
43110,7.75,-87.75,-81.1875,0
43130,9.8125,-80.3125,-85.625,0
43150,13.75,-71.3125,-86.875,0
43170,14.4375,-62.1875,-84.6875,0
43180,13.0625,-50.25,-81.125,0
43200,4.625,-34.6875,-83.375,0
43210,5.9375,-14,-82.3125,0
43230,-9.5625,-3.9375,-72.4375,0
43250,-23.6875,11.75,-69.3125,0
43270,-21.25,26.125,-71.625,0
43290,-11.3125,32.0625,-69.75,0
43300,-21.375,39.5625,-60.0625,0
43330,-27.125,67.3125,-49.875,0
43370,-20.9375,95.3125,-20.875,0
43390,-11.9375,103.25,-18.1875,0
43410,-5.125,105.75,-15.875,0
43430,10.9375,108.25,26.8125,0
43470,-19.4375,106.188,52.0625,0
43480,-20.375,87.375,50.6875,0
43500,-23.9375,44.3125,72.9375,0
43520,-52.5,25.4375,66.0625,0
43540,-56.3125,2.5625,69.5625,0
43560,-35.4375,-17.6875,74.75,0
43580,-43.625,-29.75,75.1875,0
43600,-54.625,-43.9375,65.625,0
43620,-48.75,-63.6875,50.6875,0
43640,-36.75,-82.25,46.25,0
43660,-32.5625,-92.75,45.125,0
43680,-30.4375,-98.375,32.9375,0
43700,-44.1875,-103.938,17.1875,0
43720,-49.9375,-109.125,4.5,0
43740,-38.1875,-115.688,-5.625,0
43760,-24.875,-117.5,-14.25,0
43780,-10.5625,-111.562,-21.5625,0
43800,-1.6875,-103.312,-30,0
43820,-9.0625,-97.0625,-34.875,0
43840,-15.9375,-90.375,-37.8125,0
43860,-15.0625,-81.5,-43.9375,0
43880,-13.4375,-70.75,-46.4375,0
43900,-2.375,-62.9375,-45.0625,0
43920,8.25,-53.0625,-43.5625,0
43940,5.375,-41.5625,-43.4375,0
43960,0.375,-32.0625,-44.375,0
43980,-3.6875,-23.125,-42.125,0
44000,-2.625,-14.625,-39.5625,0
44020,-7.5,-6.875,-37.0625,0
44040,-3.6875,-0.4375,-32.25,0
44060,6.5,6.5625,-28.1875,0
44080,3,12.0625,-23.25,0
44100,-0.5,14.6875,-19.3125,0
44120,-0.125,18.0625,-13.3125,0
44120,7.375,19.75,-9.5,0
44170,-5.25,14.25,-14.4375,0
44230,-27.1875,13.6875,2.9375,0
44250,-28.625,8.25,-3.8125,0
44270,-31.25,9.5625,-0.5,0
44290,-13,7.5625,7.8125,0
44310,5.875,7.125,13.875,0
44330,14.4375,5,18.4375,0
44350,20.625,3.5625,25.6875,0
44370,18.875,5.3125,29.8125,0
44390,16.6875,6.5,32.8125,0
44410,0.5625,2.1875,42.6875,0
44430,4.6875,4.9375,50.4375,0
44450,38.3125,5.125,52.8125,0
44470,33.4375,-0.1875,55.8125,0
44490,19.75,4.9375,59.375,0
44510,20.375,14.1875,50,0
44530,3.0625,16.125,29.625,0
44550,-29.5,4.3125,-9.9375,0
44570,-14.9375,-1.4375,-22.75,0
44590,-7.4375,-6.0625,-31.875,0
44610,-15,-6.625,-37.25,0
44620,-28.6875,-8.0625,-42.1875,0
44640,-34.5625,-10.375,-46.625,0
44660,-33.625,-12.3125,-48.25,0
44690,-16.4375,-11.5,-49.3125,0
44710,-15.75,-9.9375,-45.375,0
44730,-14.1875,-5.125,-42.75,0
44750,-16.0625,-0.4375,-41.875,2001
44770,-29.3125,3.0625,-37.375,0
44790,-30.625,7.875,-29.4375,0
44810,-15.25,7.1875,-22,0
44830,-1.75,4.9375,-12.6875,0
44850,5.3125,5.75,-1.8125,0
44870,2.625,7.5,3.1875,0
44890,-9.4375,6.375,4,0
44910,-15.6875,5.125,8.0625,0
44930,-15.8125,3.375,14.75,0
44950,-7,3.3125,19.75,0
44970,0.5625,4.625,24,0
44990,6.625,3.9375,30.3125,0
45010,7.8125,0.75,36.5,0
45030,11.5,-0.25,42.5625,0
45050,16.25,-2.3125,48.1875,0
45070,22.8125,-3.1875,57.375,0
45090,31.875,-1.625,70.5625,0
45110,34.375,5.1875,84.1875,0
45130,38.4375,11,94.1875,0
45150,55.125,9.4375,102.562,0
45170,62.6875,14.75,111.375,0
45190,70.6875,26.9375,115.562,0
45210,74.8125,33.75,116.125,0
45230,68.6875,33.1875,118.625,0
45250,54.1875,33.5,113.875,0
45270,44.875,37.8125,99.6875,0
45290,52.125,35.5625,89.5,0
45310,39.8125,24.625,87.6875,0
45330,23.625,20,82.6875,0
45350,16.625,21.25,67.5625,0
45370,16.875,19.125,52,0
45410,11.75,7.8125,36,0
45430,9.9375,5.4375,30.25,0
45450,9.8125,2.9375,23.25,0
45470,9.875,-0.6875,16.375,0
45490,7.75,-4.3125,11.3125,0
45510,4.75,-10.375,8,0
45530,4.9375,-15,2.125,0
45550,7.4375,-18.8125,-4.8125,0
45570,9.25,-23.6875,-9.3125,2000
45590,7.875,-28.5625,-10.5625,0
45610,5.6875,-30.6875,-14.25,0
45630,3.625,-32.875,-19.5,0
45650,2.5625,-36.125,-25.625,0
45670,-4.0625,-40,-25.875,0
45690,-17,-37.0625,-22.5625,0
45710,-24.375,-27.4375,-23.1875,0
45730,-21.625,-17.375,-22.25,0
45750,-18,-6.625,-13.6875,0
45770,-13.0625,-0.0625,-2.9375,0
45790,-5.5625,2.625,4.5625,0
45810,-6.5,8.375,6.375,0
45830,-12.3125,18,4.75,0
45850,-28.5,28.9375,0.5625,0
45870,-28.9375,41.125,-1.8125,0
45890,-9.5625,46.5625,-6.0625,0
45910,13.25,51,-7.5,0
45930,27.3125,61.3125,-5.5,0
45950,29.8125,71.9375,-14.8125,0
45970,17.8125,82.5,-31.1875,0
45990,4.6875,92.5,-40.25,0
46010,-5.875,100.75,-42.25,0
46030,4.6875,107.25,-46.6875,0
46050,16.8125,106.5,-56.8125,0
46070,20.875,99.625,-57.125,0
46090,21.625,91.625,-49.1875,0
46110,25.875,78.1875,-48.9375,0
46130,26.75,68.375,-53.125,0
46150,22.875,65.3125,-49.875,0
46170,14.375,62.6875,-39.1875,0
46190,7.625,61.3125,-33.0625,0
46210,2.6875,61.1875,-30.5625,0
46230,-3.1875,61,-25.375,0
46250,0.8125,56.625,-15.875,0
46270,10.9375,50.8125,-5.3125,0
46290,13.0625,52.0625,3.4375,0
46310,18.6875,52.75,9.6875,0
46330,15.75,51.6875,8.0625,0
46350,2.625,49.625,10.8125,0
46370,-1.375,45.8125,25.0625,0
46390,15.4375,36.1875,39.5,0
46410,28.125,24.5625,42.9375,0
46430,27.75,22.0625,32.5625,0
46450,21.75,11.8125,15.375,0
46470,32.8125,-5.3125,3.75,0
46490,46.0625,-19.4375,11.0625,0
46510,44.25,-29.8125,26.9375,0
46530,33.0625,-42.3125,31.0625,0
46550,11.625,-54.75,17.875,0
46570,-5.875,-70.4375,13.375,0
46590,-20.25,-88,22.9375,0
46610,-21.3125,-101.312,32.4375,0
46630,-26.9375,-112.375,32,0
46650,-36,-123.188,29.75,0
46670,-44,-130.75,29.1875,0
46690,-39.8125,-136.062,25.0625,0
46710,-33.8125,-142.875,13.875,0
46730,-26.9375,-144.062,2.5625,0
46750,-13.5625,-138.688,-6.25,0
46770,-5.5,-134.312,-23.125,0
46790,1.9375,-133,-38.9375,0
46810,-1.1875,-130.188,-48.5,0
46830,-6.5,-121.688,-56.5625,0
46850,-1.4375,-112.062,-67.1875,0
46870,6.875,-99.6875,-72.3125,0
46890,8.8125,-86.6875,-69.25,0
46910,2.5,-75.125,-64.625,0
46930,0.625,-63.6875,-61.6875,0
46950,2.875,-49.75,-60.75,0
46970,7.25,-34.125,-58.0625,0
46990,-10.0625,-0.375,-53.5,0
47010,-9.8125,19.75,-56.625,0
47030,-10.3125,37.5,-64.75,0
47050,-14.5,52.4375,-72.9375,0
47070,-22.5625,66.4375,-73.375,0
47090,-30.625,80.3125,-71.3125,0
47110,-32,89.5,-73.3125,0
47140,-19.125,104.438,-67.9375,0
47160,-26.625,103.562,-56.75,0
47180,-33.3125,103.875,-47.3125,0
47200,-27.6875,107.25,-45.4375,0
47240,-21.5625,88.1875,0.4375,0
47260,-16.875,79.0625,7.1875,0
47280,-9.4375,73.25,10.9375,0
47300,-2.1875,61.6875,18.0625,0
47320,3.9375,49.375,28.6875,0
47340,8.3125,41.4375,35.0625,0
47360,11.875,38.9375,29.6875,0
47380,5.3125,40.5,27.875,0
47400,-4.375,40.8125,31.5625,0
47420,-0.1875,39.0625,36.9375,0
47440,7.3125,37.9375,44.625,0
47460,15.5625,35.5,48.125,0
47480,10.875,35.9375,43.4375,0
47500,5.8125,32.5,43,0
47520,-1,27.1875,52.9375,0
47540,-2.5,17.75,65.6875,0
47560,-10.5,8.75,66.4375,0
47580,-23.875,2.5,63.4375,0
47600,-40.125,-9.375,65.3125,0
47630,-59.5,-46.1875,73.375,0
47650,-58.9375,-59.25,73.5,0
47670,-61.375,-72.8125,60.875,0
47690,-71.625,-86.4375,50.875,0
47710,-68.3125,-96.875,44.9375,0
47730,-47.4375,-104.625,33.375,0
47750,-27.9375,-122.25,-13.0625,0
47780,3.4375,-114.812,-51.4375,0
47800,6.4375,-107.062,-60.75,0
47820,13.125,-97.6875,-70.75,0
47840,20.1875,-88.5625,-75.625,0
47860,13.9375,-79.125,-75.1875,0
47880,14.125,-70.375,-75,0
47900,9.5,-60.125,-78.3125,0
47920,6.3125,-50.125,-79.625,0
47940,-0.4375,-41.8125,-72.5625,0
47960,2.5,-32.1875,-67.4375,0
47980,2.5,-20.875,-65.875,0
48000,-4,-8.4375,-63,0
48020,-18.0625,3.6875,-60,0
48040,-15.0625,14.25,-60.4375,0
48060,-19,24,-59.1875,0
48080,-20,35.125,-51.75,0
48080,-25,41.5,-46.75,0
48120,-45.8125,77.0625,-35.25,0
48140,-37.4375,80.25,-31.4375,0
48190,-22.3125,94.6875,-17.9375,0
48200,-24.8125,93.0625,-13.25,0
48220,-26.6875,90.4375,2.75,0
48240,-15.875,90.5625,14.5625,0
48250,-10.9375,90.5625,19,0
48250,-21.3125,83.0625,28.5,0
48270,-28.8125,75.125,45.9375,0
48290,-21.125,69.75,57.875,0
48300,-3.6875,64.5625,65.5625,0
48320,-23,55.375,80.0625,0
48340,-38.75,37,96.1875,0
48360,-38.875,25.0625,101.125,0
48380,-33.3125,-13.6875,78.9375,0
48400,-39.8125,-29.75,80.125,0
48420,-50.9375,-41.8125,77.3125,0
48440,-56,-49.6875,62.1875,0
48460,-61.5625,-57.5625,44.8125,0
48480,-51.375,-68.3125,35.0625,0
48500,-25.25,-79.375,30.5,0
48520,-2.875,-82.875,20.75,0
48540,0.5,-84.8125,9.4375,0
48560,2.8125,-87.25,-0.8125,0
48580,5.875,-89.3125,-12.0625,0
48600,3.9375,-91.5625,-18.4375,0
48620,0.25,-94.875,-22.5625,0
48640,3.375,-94,-29.375,0
48660,6.25,-89.75,-37.1875,0
48680,8.5625,-82.875,-41.3125,0
48700,3.9375,-79.5,-42.625,0
48720,-2.375,-74.4375,-42.0625,0
48740,-5,-67.4375,-41.1875,0
48760,-2.1875,-59.625,-41.625,0
48780,-0.875,-54.3125,-40.625,0
48800,-0.625,-46.8125,-35.25,0
48820,-1.875,-39.6875,-33.25,0
48840,-3.875,-32.5625,-32.5625,0
48860,-2.5,-28.25,-31.125,0
48880,-2.5625,-23.75,-29.1875,0
48920,-4.9375,-12.9375,-22.8125,0
48940,-8.5,-7.9375,-21.625,0
48960,-19.5,-5.5,-23.375,0
48980,-31.5625,-2.4375,-18,0
49000,-29.875,1.75,-13.0625,2001
49020,-9.75,1.6875,-5.875,0
49040,11.125,-0.9375,-0.6875,0
49060,19,-0.25,-0.6875,0
49080,13.5,1.1875,-0.1875,0
49100,4.875,2.9375,2.4375,0
49120,-5.0625,5,-0.125,0
49140,-15.375,6.3125,-2.5625,0
49160,-16.75,6.6875,-3.125,0
49180,-11.8125,6.875,0.5,0
49200,-5.25,9.5625,1.9375,0
49230,7,13.625,3.3125,0
49250,6.875,10.5,2.4375,0
49270,14.6875,11.25,11.25,0
49280,19.25,15.6875,17.875,0
49300,22.8125,17.5,25.8125,0
49320,33.125,16.8125,42.5625,0
49340,45.25,18.9375,59.3125,0
49360,58.1875,27.125,76.0625,0
49380,47.875,28.25,92.75,0
49400,35.0625,28.125,108,0
49420,52.75,35,118.938,0
49440,62.9375,44.75,121.125,0
49460,58.5,43.6875,120,0
49480,49.0625,44.125,120.312,0
49500,55.875,54.4375,117.125,0
49520,49.75,54.625,102.5,0
49540,46.9375,52.375,80.625,0
49560,45.4375,50.875,66.875,0
49580,33.4375,48.1875,61.0625,0
49600,17.6875,39.3125,54,0
49620,11.8125,34.5625,50.75,0
49640,15.875,27,47.125,0
49660,19.9375,15.8125,31,0
49680,18.875,9.5,18.5,0
49700,10.625,4.8125,12.6875,0
49720,1,-0.8125,6.25,0
49740,-0.9375,-7.375,-1,0
49760,4.3125,-10.25,-3.875,0
49780,9.875,-11.3125,-3.6875,0
49800,3.75,-14.125,-0.9375,0
49820,-6.375,-12.625,4,0
49840,-13.9375,-8.8125,6.8125,0
49860,-3.375,-12.1875,2.6875,0
49880,4.9375,-17.75,-1.375,2000
49900,5.0625,-21.1875,-0.6875,0
49920,2.4375,-26.125,-6.6875,0
49940,-6.25,-31.6875,-14,0
49960,-14.125,-36.8125,-17.6875,0
49980,-16.75,-40.125,-19.4375,0
50000,-4.25,-40.8125,-19.0625,0
50020,11.25,-36.9375,-21.375,0
50060,13.25,-22.0625,-32.5625,0
50060,14.5625,-9.875,-39.625,0
50080,24.25,0.6875,-42.875,0
50100,28.1875,10.3125,-51.75,0
50120,29.8125,20.125,-59.5,0
50140,22.625,29.125,-64.5,0
50160,9.375,33.375,-59.3125,0
50180,6.5,37.75,-46.3125,0
50200,18.4375,48.25,-39.9375,0
50220,27.875,61.5,-47.4375,0
50240,17.6875,60.375,-53.8125,0
50260,-7.5,55.5625,-47.75,0
50280,-35.1875,59.625,-46.0625,0
50300,-36.1875,73.125,-42.5625,0
50320,-15.9375,77.125,-43.125,0
50340,-8,76.1875,-40.875,0
50360,-16.1875,78.5625,-34.75,0
50380,-17.375,84.1875,-37.3125,0
50400,-16.25,85,-46.875,0
50420,-23.625,84.625,-46.25,0
50460,-30.1875,89.6875,-32.75,0
50470,-29.4375,85.6875,-27.6875,0
50490,-34.1875,78.8125,-25.3125,0
50510,-25.8125,72.875,-24.3125,0
50530,-5.8125,64.8125,-19.4375,0
50550,14.875,54.5625,-8.1875,0
50570,11.125,46.6875,-0.5,0
50590,-6.1875,47.125,1.9375,0
50610,-7.5,41.625,6.0625,0
50630,-12.625,32.875,20.25,0
50650,-1.125,28.6875,33.25,0
50670,15.25,27.875,34.4375,0
50690,11.75,24.125,30.3125,0
50710,0.625,16.875,35.875,0
50730,5.375,10.3125,46.75,0
50750,7.8125,7.6875,50.3125,0
50770,0.5625,5,47.3125,0
50790,-10.0625,-2.625,46.6875,0
50810,-2.4375,-15.75,46.8125,0
50830,-4.5,-25.1875,50.6875,0
50850,-16,-31.375,52.625,0
50870,-29.1875,-39.5625,47.9375,0
50890,-39.75,-51.5,44.4375,0
50910,-39.25,-65.0625,38.875,0
50930,-30.6875,-77.125,32.6875,0
50950,-23.4375,-86.625,26.625,0
50970,-14.25,-91.4375,21.75,0
50990,-11.0625,-96.1875,13.5625,0
51010,-9.1875,-103.75,3.625,0
51030,-9,-108.562,-5.375,0
51050,-1.875,-109,-20,0
51070,-17.8125,-105.5,-27,0
51090,-30.5,-104.438,-30.5625,0
51110,-23.1875,-103.062,-34.125,0
51130,-9.9375,-98.0625,-37.625,0
51150,4.625,-94,-39.5,0
51170,8.625,-86.75,-40.8125,0
51190,2.5,-76.125,-42.5625,0
51210,-0.5625,-62.875,-43.4375,0
51230,2.3125,-47.1875,-44.4375,0
51250,4.125,-32.375,-47.5625,0
51270,-0.3125,-20.3125,-44.5625,0
51290,3.6875,-4.25,-33.75,0
51310,4.9375,11.5,-35.875,0
51330,2.8125,26.1875,-43.0625,0
51350,-14.75,41.5,-35.5,0
51370,-4.8125,63,-43.6875,0
51390,-12.6875,75.0625,-46.1875,0
51410,-19.6875,83.5625,-43.1875,0
51430,-28.8125,84.3125,-41.25,0
51450,-25.625,89.5,-43.4375,0
51470,-20.5,96.0625,-50.125,0
51490,-31.5,93.875,-45.625,0
51510,-27.625,89.5625,-34.9375,0
51530,-12.25,84.5625,-40.5625,0
51550,-4.125,80.6875,-49.75,0
51570,-10.5,74.625,-47.4375,0
51590,-13.625,70.875,-38.6875,0
51610,-16.4375,71.5625,-28.9375,0
51620,-9.9375,67.125,-3.875,0
51630,-1.25,63.375,2.5,0
51650,3.6875,58.25,7.5,0
51670,10.5,54.75,16.5,0
51690,14.4375,56.4375,35.4375,0
51710,9.3125,57,49.25,0
51730,-0.25,52.5625,47.75,0
51750,-10.125,45.6875,46,0
51770,-7.9375,41.375,59.5,0
51790,5.875,33.5,74.0625,0
51810,-3.5625,27.375,74.625,0
51830,-42,26.25,64.5,0
51850,-60.375,14.6875,56.625,0
51870,-67.125,-2.4375,57.875,0
51890,-46.125,-10.5,55.75,0
51910,-28.3125,-16.4375,46.6875,0
51930,-22.5625,-25.25,43.1875,0
51950,-17.625,-39.5,38.8125,0
51970,-19.1875,-52.0625,38.875,0
51990,-31.6875,-56.375,47.9375,0
52010,-42.5,-63,51.9375,0
52030,-53.0625,-75.1875,38.75,0
52050,-56.25,-93.375,22.125,0
52070,-65.125,-107.875,14.5625,0
52090,-48.25,-113.75,6.875,0
52110,-19.6875,-119.688,-12.1875,0
52110,13.125,-118.25,-59.0625,0
52130,7.9375,-115.438,-68.875,0
52150,-3.3125,-114.812,-76.6875,0
52160,-4.875,-103,-86.75,0
52180,-5.5625,-89.5625,-87.6875,0
52200,-0.5625,-78.5,-83.6875,0
52220,-3.3125,-71.9375,-81.75,0
52240,-8.75,-59.9375,-84.875,0
52260,-13.625,-45.1875,-88.25,0
52280,-7.0625,-31.9375,-84.5,0
52300,-1.6875,-18.5625,-79.4375,0
52320,-8.9375,-2.625,-74.8125,0
52340,-15.5625,11,-70.9375,0
52360,-13.375,22.1875,-66.8125,0
52380,-12.125,35.5625,-65.625,0
52400,-25.0625,49.4375,-59.625,0
52420,-31.1875,60.5,-46.0625,0
52440,-18.125,70.125,-36.25,0
52460,-13.875,82.875,-29.75,0
52480,-21.5,92.875,-19.8125,0
52500,-14.25,97.6875,-7.4375,0
52510,-3.8125,102.562,-1.3125,0
52530,-13.375,107.812,-3.875,0
52540,-18.875,108.25,-1.1875,0
52560,-6.875,104.938,3.5,0
52610,-10.8125,84.8125,39.9375,0
52620,-11.5625,73.625,45.6875,0
52640,-23.6875,57.875,56.5625,0
52660,-36.875,49.375,73.0625,0
52680,-28.9375,37.0625,87.375,0
52700,-30.3125,27.3125,85.4375,0
52720,-50.1875,19.5,73.1875,0
52740,-71.0625,10.5625,72.4375,0
52760,-67.4375,-0.125,82.625,0
52780,-75.3125,-19.875,87.4375,0
52800,-103.625,-36.4375,78.8125,0
52820,-124.125,-50,63.5,0
52840,-117.812,-64.125,44.4375,0
52860,-98.9375,-78.25,29.25,0
52880,-57.875,-89.0625,16.625,0
52900,-18.25,-98.75,0.875,0
52920,-5.875,-111.25,-13.125,0
52940,-18.25,-119.062,-23.8125,0
52960,-22.3125,-118.625,-34.0625,0
52980,-23.75,-118.75,-46.3125,0
52990,-21.5,-117.75,-53.25,0
53010,-16,-113.062,-54.5,0
53030,-11.5625,-106.5,-58.9375,0
53050,0.0625,-102.438,-67.9375,0
53060,1.6875,-98.8125,-69.4375,0
53090,9.1875,-68,-63.1875,0
53110,13.875,-58.875,-62.5,0
53130,13.4375,-47.4375,-60.5,0
53150,14.3125,-36.4375,-59.5,0
53170,17.875,-26.5,-55.5625,0
53190,13.1875,-18.25,-49.25,0
53200,9.1875,-10.4375,-41,0
53210,6.0625,-5.5,-32.375,0
53230,3.125,-5.6875,-21.4375,0
53250,-12.25,-3.9375,-11.625,0
53260,-23.0625,-2,1.1875,0
53280,-23.8125,2.1875,12,0
53300,-19.0625,8.875,20.0625,0
53320,-8.9375,14.375,35,0
53340,18.875,17.9375,38.6875,0
53360,23.75,23.5625,28.875,0
53380,5.4375,26.5,21.75,0
53400,-16.4375,18.75,16.9375,0
53420,-27.3125,8,9.875,0
53440,-41.4375,3.125,1.6875,0
53460,-45.25,3.8125,-5.4375,2001
53480,-23.3125,1.5625,-10.125,0
53500,-1.75,-4.5,-13.875,0
53520,-1.0625,-5.25,-13.5625,0
53540,-7.25,0.5625,-15,0
53560,-2.125,-3.375,-16.9375,0
53580,7.75,-4.75,-14.4375,0
53600,14.625,0.125,-9.9375,0
53620,18.8125,4.75,-7.875,0
53640,14.6875,7.8125,-6.1875,0
53660,8.1875,9.1875,-4.3125,0
53680,3.75,10.1875,-2.5,0
53700,0,9.5,0.75,0
53720,-1.25,6.875,3.0625,0
53740,1.25,4.875,7.4375,0
53760,0.5625,1.6875,15.375,0
53780,-13.5625,-0.4375,22.5625,0
53800,-9.5,-4.5,31.6875,0
53820,14.1875,-11.5625,43.4375,0
53840,20.0625,-16.4375,56.1875,0
53860,18.25,-13.75,69,0
53880,25.375,-10.6875,81.125,0
53900,44.625,-11.6875,93.6875,0
53920,39.5625,-17.0625,101.688,0
53940,42.5625,-5.125,112.562,0
53960,65.1875,9.1875,122.812,0
53980,81.3125,11.1875,122.25,0
54000,68.0625,12.3125,119.938,0
54020,62,22.875,120.25,0
54040,59.25,29.625,113.125,0
54060,52.875,25.6875,104.688,0
54080,38.6875,19.9375,98.875,0
54100,31.875,22.6875,86.125,0
54120,27.3125,24.75,67.875,0
54140,18.6875,23.5,53.125,0
54160,19.3125,19.25,44.25,0
54180,23.6875,13.25,33.875,0
54200,23.75,9,21.5,0
54220,28.5,5.125,10.3125,0
54240,29.875,0.375,3.25,0
54260,25.75,-5.75,-3.8125,0
54280,16.4375,-10.9375,-11.875,0
54300,5.9375,-11.8125,-17,0
54320,1.8125,-14.625,-18,2000
54340,-0.75,-19.25,-18,0
54360,-0.5625,-22.25,-19.5625,0
54380,2.375,-22.625,-22.9375,0
54400,8.1875,-26.5625,-25.875,0
54420,5.3125,-32.5625,-24.75,0
54440,6.625,-36.375,-20.6875,0
54460,11.0625,-37.125,-21.5625,0
54480,10.125,-38,-24.625,0
54500,9.4375,-36.9375,-24.625,0
54520,15.5,-34.125,-25.25,0
54540,17.875,-27.625,-26.0625,0
54560,9.6875,-16.4375,-25,0
54580,10.0625,-4.8125,-24.75,0
54600,23.625,5.5625,-29.5,0
54620,47.6875,14.3125,-34.625,0
54640,59,20.1875,-29.625,0
54660,48.4375,28.4375,-20,0
54680,44.875,44.8125,-22.625,0
54700,43.75,64.25,-33.25,0
54720,27.25,71.875,-42.8125,0
54740,11.0625,80.625,-43.25,0
54760,11.5,90.9375,-45.8125,0
54780,12.0625,98.375,-55.6875,0
54800,0.75,103.375,-58.5625,0
54820,-3.75,106.062,-56.375,0
54840,3.0625,105.125,-60.1875,0
54860,4.5625,99.6875,-64.9375,0
54880,-7.25,94.6875,-61.625,0
54900,-15.1875,91.75,-57.5,0
54920,-21.875,82.6875,-55.875,0
54940,-24.75,76.3125,-51.25,0
54960,-22.9375,70.5625,-46.3125,0
54980,-20.125,64.625,-40.5,0
55000,-17.8125,57.625,-35.1875,0
55020,-17.375,52.0625,-27.5625,0
55040,-19.375,50.1875,-16.625,0
55060,-13.6875,50,-7.125,0
55080,-12.75,49.3125,-1.5625,0
55100,-17.9375,46.375,7.8125,0
55120,-11.8125,42.25,22.375,0
55140,2.625,33.875,30.5,0
55160,10.1875,33.3125,33.8125,0
55180,8.5625,35.375,35.375,0
55200,3.5,31.125,35.625,0
55220,13.75,22.5625,39.25,0
55240,25.3125,17.125,42.125,0
55260,19.3125,18.6875,40.4375,0
55280,8.75,15.0625,33.6875,0
55300,0.3125,7.375,35.6875,0
55320,6.5,-0.0625,38,0
55340,15,-6.3125,37.875,0
55360,10.4375,-9.875,38.9375,0
55380,-0.625,-9.0625,45.8125,0
55400,-5.3125,-10.1875,55.5625,0
55420,-12.125,-14.75,58.8125,0
55440,-15.875,-17.75,56.75,0
55460,-16.125,-20,52.4375,0
55480,-8.375,-28.4375,48.6875,0
55500,-9.75,-35.6875,44.1875,0
55520,-19.5625,-40.0625,35.1875,0
55540,-22.875,-46.375,25.8125,0
55560,-19.3125,-56.8125,17,0
55580,-16.75,-67.9375,11.625,0
55600,-18.1875,-75.3125,6.375,0
55620,-11.9375,-81,1.875,0
55630,-15.625,-95.375,-7.1875,0
55650,-27.875,-99.375,-8.625,0
55670,-26.625,-103.312,-14.5,0
55690,-17.375,-106.5,-22.4375,0
55710,-22.8125,-108.375,-24.3125,0
55730,-25.4375,-107.5,-25.125,0
55750,-19.75,-106.625,-30.4375,0
55770,-14.375,-102.125,-36,0
55790,-7.5625,-95.6875,-40.8125,0
55810,-4,-93.25,-44.625,0
55830,3.5,-91.1875,-47.125,0
55850,18.5,-84.4375,-47,0
55870,17.9375,-74.0625,-48.125,0
55890,9.1875,-61.9375,-48.625,0
55910,-10.875,-51.8125,-47.625,0
55930,-22.1875,-42.0625,-45.125,0
55950,-28,-28.9375,-44.5,0
55970,-35.6875,-17.0625,-45,0
55990,-23.75,-6.5,-40.8125,0
56010,-14.5,2.4375,-37.25,0
56030,-10.5,17.3125,-36.75,0
56050,-23.125,31.125,-41.5,0
56070,-33.625,39.4375,-42.625,0
56090,-30.4375,45.9375,-40.9375,0
56110,-32,58.375,-40.75,0
56130,-32.875,69.375,-40.1875,0
56150,-36.9375,72.8125,-39.125,0
56170,-40.9375,72.125,-38.8125,0
56190,-38.1875,74.875,-38.4375,0
56210,-38.375,79.4375,-35.9375,0
56230,-37.4375,82.125,-29.3125,0
56250,-32.0625,81.375,-26.4375,0
56260,-25.3125,80.8125,-26.0625,0
56280,-23.25,79.125,-26.625,0
56300,-29.0625,76.6875,-25.125,0
56320,-35.8125,75.125,-18.875,0
56340,-34.4375,71.5,-13.3125,0
56360,-22.0625,68.25,-8.625,0
56380,-8.9375,64.25,0.3125,0
56400,-7.8125,58.875,18,0
56430,4.4375,45,37.875,0
56450,14.9375,35.8125,47.75,0
56470,24.1875,39.25,62.875,0
56490,1.5625,48.5625,61,0
56510,-27.375,44.6875,46.125,0
56530,-35.4375,31.625,44.5,0
56550,-20.75,22.9375,49.3125,0
56570,0.1875,18.375,49.75,0
56590,20.125,14.0625,46.5,0
56610,15.6875,14.125,46.1875,0
56630,0.0625,13.3125,43.9375,0
56650,-21,3.9375,35.5625,0
56670,-29.25,-8.125,35.0625,0
56690,-12.4375,-19.5625,39.3125,0
56710,3.75,-27.9375,39.3125,0
56730,8.375,-35.3125,32.75,0
56750,2.8125,-40.3125,28.5,0
56790,-14.125,-58.0625,28.4375,0
56850,-22.4375,-93.9375,30.25,0
56870,-44.1875,-99.125,27.5,0
56890,-44.875,-96.9375,11.25,0
56910,-22.1875,-97.8125,-4.6875,0
56930,-9.4375,-105.125,-6.1875,0
56970,-8.6875,-99.1875,-43.6875,0
56990,-8.625,-95.9375,-43.3125,0
57010,-1.875,-90.4375,-43.75,0
57030,-0.875,-83.125,-48.25,0
57050,-1.0625,-74.25,-53.8125,0
57060,-3.8125,-66.25,-55.5,0
57080,-2.75,-59.375,-55.9375,0
57100,4.8125,-51,-58,0
57120,13.3125,-40,-61.625,0
57140,9.125,-29.4375,-63.8125,0
57160,-1.3125,-18.5625,-62.375,0
57180,-6.625,-9.6875,-65.5625,0
57200,-6.1875,0.6875,-68.9375,0
57220,-8.0625,11.875,-66.0625,0
57240,-20.125,20.6875,-62.5625,0
57260,-19.0625,30.125,-62.6875,0
57280,-9.0625,38.8125,-65.1875,0
57300,-13.25,47.0625,-58.75,0
57320,-25.8125,55.125,-51.125,0
57340,-30.4375,65.5,-51.25,0
57350,-33.9375,76.9375,-52.5,0
57370,-40.9375,85.6875,-45.625,0
57390,-40.6875,87.4375,-35.3125,0
57410,-32.125,91.5,-28.625,0
57450,-28.0625,93,-8.8125,0
57480,0.6875,86.4375,9.3125,0
57510,-24.4375,87.8125,21.25,0
57530,-29.75,80.875,26.1875,0
57550,-17.6875,68.25,36.625,0
57570,-4.4375,63,50.4375,0
57590,-9.25,66.125,59.125,0
57610,-27.375,67.375,63.8125,0
57630,-34.5,56.8125,66.375,0
57650,-28.1875,37.6875,68.75,0
57670,-17.3125,31,76.8125,0
57690,-10.8125,27.625,82,0
57710,-23.625,21.4375,74.3125,0
57730,-31.6875,8.4375,62.375,0
57750,-43,-1.1875,57.1875,0
57770,-39.625,-9.75,57.5,0
57790,-36,-23.4375,49.25,0
57810,-41.1875,-36.25,37.6875,0
57830,-28.8125,-40.5,30.375,0
57850,-4.0625,-47.75,23.6875,0
57870,-0.1875,-60.5625,19.0625,0
57890,-12.625,-67.5,18,0
57910,-21.6875,-70.25,13.6875,0
57930,-28.3125,-77.3125,3,0
57950,-26,-86.375,-3,0
57970,-25.875,-97.25,-5.25,0
57990,-26.0625,-101.812,-9.125,0
58010,-23.875,-101.5,-17,0
58030,-14.875,-101.688,-26.9375,0
58050,-16.25,-105.062,-31.3125,0
58070,-17.125,-105.375,-32,0
58090,-11.75,-101.812,-38.9375,0
58110,-5.875,-95.875,-44.5625,0
58130,0.6875,-89.1875,-45.5625,0
58150,9.1875,-83.3125,-45.3125,0
58170,7.3125,-77.625,-49.8125,0
58190,7.9375,-68,-52.1875,0
58210,12.5,-57.875,-51.8125,0
58220,9.125,-51.5,-50,0
58240,6.9375,-44.375,-44.3125,0
58260,16.5625,-24.6875,-51.125,0
58260,12.75,-18.0625,-52.4375,0
58280,10.5625,-14.5625,-48.3125,0
58300,-0.0625,-14.5,-45.375,0
58320,0.375,-18.875,-46,0
58340,6.5625,-15.3125,-47.5,0
58360,9.125,-5.5,-41.125,0
58380,8.1875,5.4375,-29.1875,0
58400,12.5,10.9375,-24.5,0
58420,11.8125,12.75,-25.75,2001
58440,-6.625,16.1875,-24.625,0
58460,-16.8125,19.875,-16.375,0
58480,-15.875,22.5,-12.75,0
58500,-8.5625,13.1875,-13.5625,0
58520,4.0625,1.3125,-13,0
58540,-1.25,3.8125,-5.5625,0
58560,0.375,9.1875,3.375,0
58580,1.9375,4.625,5.5625,0
58600,9.5625,-2.875,8.6875,0
58620,-1.75,-0.6875,9.75,0
58640,-9.875,4.375,14.1875,0
58660,-13.625,7.25,15.125,0
58680,-9.8125,7.6875,19.0625,0
58700,4,7.75,25,0
58720,24.5625,9.6875,33.0625,0
58740,33.9375,10.1875,44.25,0
58760,41.0625,8.25,55.9375,0
58780,54,8.8125,67.375,0
58810,44,18.6875,84.1875,0
58830,47.25,29.125,100,0
58850,67.75,41.4375,113.438,0
58870,74.9375,45.1875,114.312,0
58890,64.75,41.9375,113.75,0
58910,63,46.1875,115.75,0
58930,64.6875,51.0625,107.438,0
58960,41.125,38.625,85.125,0
58980,21.3125,31.8125,70.625,0
59000,11.5,31,56.3125,0
59020,7.1875,25.9375,47.4375,0
59040,13.0625,16.125,42.0625,0
59060,17.3125,7.8125,32.75,0
59080,18.375,2.625,23.8125,0
59100,13.5625,1.875,20.25,0
59120,12.5,-2.875,18.4375,0
59140,8.75,-9,13.4375,0
59160,1.1875,-11.5,13.3125,0
59180,8.1875,-13.0625,11.8125,0
59200,15.375,-15.6875,4.8125,0
59220,14.4375,-15.5625,-2.25,0
59230,8.6875,-17.125,-5.9375,0
59250,10.9375,-19.1875,-10.875,2000
59270,9.8125,-20.875,-11.5625,0
59290,4.5625,-16.9375,-11.9375,0
59310,0.9375,-19.9375,-14.25,0
59330,-3.375,-24.375,-16.6875,0
59350,-1.875,-29.25,-17.4375,0
59370,2.1875,-33.25,-18.0625,0
59390,4.375,-35.625,-19.5,0
59410,2.6875,-38.25,-22.6875,0
59430,0,-36.75,-23,0
59450,5.0625,-30,-22.875,0
59470,9.4375,-22,-21.375,0
59490,15.125,-12.9375,-23.4375,0
59510,20.3125,-4.875,-27.25,0
59530,19,3.0625,-27.3125,0
59550,19,12.875,-33.875,0
59570,20.875,23.25,-38.375,0
59590,9,30,-34.6875,0
59610,-2.25,39.0625,-33.625,0
59630,-18.6875,48,-35.625,0
59650,-19.125,58.9375,-34.9375,0
59670,-16.125,67.8125,-41.375,0
59690,-18.75,74.125,-42.625,0
59710,-24.875,81.125,-42.4375,0
59730,-26.75,87.4375,-41.875,0
59750,-22.5625,90.875,-42.625,0
59770,-28.75,92.25,-42.6875,0
59790,-36.4375,92.625,-38.8125,0
59810,-37.5625,90.1875,-37.625,0
59830,-37.625,83.25,-37.375,0
59850,-37,75.625,-34.5625,0
59870,-40.1875,71.25,-29.3125,0
59890,-40.375,68.4375,-24.4375,0
59910,-36.4375,61.5,-24.5625,0
59930,-40.625,56.625,-21.25,0
59950,-49.125,56.9375,-11.25,0
59970,-46.4375,56.4375,0.625,0
59990,-23.4375,51.9375,5,0
60010,0.0625,46.1875,2.125,0
60030,-2.625,46.8125,5.1875,0
60050,-18.625,46.1875,12.1875,0
60070,-22.4375,41.5625,10.125,0
60090,-16.5625,33.125,8.6875,0
60110,-10.5625,31.625,13.875,0
60150,3.8125,38.125,19.25,0
60190,11.625,29.9375,17.25,0
60210,19.5,34.5625,15.25,0
60230,20.5625,39.75,7.125,0
60250,23,39.5,1.4375,0
60270,32.875,32.0625,5.5,0
60290,36.6875,24,10.4375,0
60310,28.1875,18.5625,15.4375,0
60330,20.8125,12.5625,20.0625,0
60350,24,2.125,28,0
60370,26.25,-12.25,34.6875,0
60390,14.0625,-22.875,37.8125,0
60410,-1.375,-27.25,42.5625,0
60430,-5.25,-36.0625,42,0
60450,-7.9375,-48.375,37.125,0
60470,-13.75,-57.625,37.6875,0
60490,-15.25,-63,37.5,0
60510,-12.75,-69.3125,31.5625,0
60530,-10.25,-76.75,24.1875,0
60550,-16.625,-83.5,20.75,0
60570,-17.0625,-88.0625,17.875,0
60590,-6.75,-91,10.5625,0
60610,0.6875,-94.8125,2.8125,0
60630,0.875,-98.4375,-4.375,0
60650,6,-101.062,-12.75,0
60670,10.5,-103.688,-22.875,0
60690,10.625,-107.5,-33.8125,0
60690,5.6875,-111.875,-43.625,0
60710,-3.625,-106.75,-42.4375,0
60730,-8.75,-101.875,-43.3125,0
60750,0.125,-100.125,-43.875,0
60770,5,-96.8125,-41.8125,0
60790,-0.25,-90.5,-39.6875,0
60810,-7.5,-82.8125,-35.375,0
60830,-9.4375,-75.8125,-34.4375,0
60850,-12.8125,-70.875,-31.125,0
60870,-15.875,-65,-24.875,0
60890,-22.125,-57.375,-21.75,0
60910,-22.125,-48.9375,-22.875,0
60930,-16.875,-40.5625,-23.3125,0
60950,-12.875,-29.4375,-20.75,0
60970,-16,-18.5625,-16.0625,0
60990,-27,-6.3125,-18.0625,0
61010,-29.75,3.4375,-25.1875,0
61030,-16.3125,13.8125,-29.0625,0
61050,-11.375,29.0625,-31.4375,0
61070,-18.125,43.9375,-34.125,0
61120,-39.375,64.4375,-43.875,0
61150,-34.125,81.1875,-34.875,0
61170,-42.625,83.0625,-30.75,0
61190,-41.3125,84.1875,-29.4375,0
61210,-32,87,-33.6875,0
61230,-27.25,90.625,-32.6875,0
61250,-26.8125,90.6875,-25.6875,0
61260,-23.75,83.625,-10.0625,0
61280,-28.75,84.875,-3.25,0
61300,-10.625,71.0625,9.75,0
61320,-10.9375,69.5,19.0625,0
61340,-3.0625,65.9375,27.75,0
61360,2.875,58.8125,31.875,0
61380,6.625,54.125,32.625,0
61400,1.8125,52.9375,34.375,0
61410,-1.5625,48.1875,38.75,0
61430,0.75,39.5625,45.1875,0
61450,7.0625,30.4375,45.8125,0
61470,2.875,27.375,41.375,0
61490,-5.75,25.25,43,0
61510,-4.5625,15.8125,48.3125,0
61530,-0.3125,7,49.3125,0
61550,4.0625,3.8125,48.1875,0
61570,1.875,2.9375,49.9375,0
61590,-9.25,-1.4375,55.5625,0
61610,-12.625,-6.75,61.25,0
61630,-8.9375,-10.625,60.3125,0
61650,-12.5625,-13.9375,53.9375,0
61670,-14,-20.4375,51.1875,0
61690,-7.9375,-30.125,47.1875,0
61710,1.5,-43,40.375,0
61730,-4.375,-51.3125,34.9375,0
61750,6.1875,-56.375,30,0
61770,6.8125,-67,24.125,0
61790,-0.875,-75.125,22.4375,0
61810,-7.8125,-81.3125,22.6875,0
61880,-14.0625,-104.438,-6.375,0
61900,-7.9375,-106,-21.5625,0
61920,-4.4375,-108.688,-33,0
61940,-12.25,-104.25,-36.375,0
61960,-14.75,-95.4375,-45.5,0
61980,-13.125,-88.5,-59.1875,0
62000,-9.1875,-82.25,-67.9375,0
62020,-3,-72.9375,-70.5,0
62040,5.1875,-62.6875,-72.5,0
62050,11.625,-52.75,-72.1875,0
62060,7.5,-44.8125,-71.1875,0
62080,-5.3125,-36.8125,-69.875,0
62100,-10,-26.5,-69,0
62120,-16.3125,-14.8125,-66.4375,0
62140,-25.625,-5.8125,-58.9375,0
62160,-33.625,-0.5,-52.5,0
62180,-28.0625,10.5625,-52.625,0
62200,-21.1875,22.125,-55,0
62220,-34.0625,32.375,-47.25,0
62240,-37.5625,39.5625,-39.4375,0
62260,-34.75,47.8125,-44.3125,0
62280,-40.5,58.5625,-50.375,0
62300,-57.0625,68.1875,-43.6875,0
62320,-50.125,75.75,-35.0625,0
62340,-34.375,83.8125,-32.6875,0
62370,-42,96.0625,-26.3125,0
62430,3.875,46.625,55.8125,0
62450,1.5625,36.8125,57,0
62470,5,29.5,50.375,0
62490,1.5625,24.9375,48.875,0
62510,-19.6875,21.3125,53.5625,0
62530,-31.8125,10.9375,61.375,0
62550,-26.5625,3.3125,65.75,0
62560,-16.375,2.3125,64.25,0
62580,-15.6875,-1.625,60.75,0
62600,-25.75,-7.3125,64.9375,0
62620,-21.8125,-14.4375,66.5,0
62640,-20.75,-25.4375,62.125,0
62660,-20.3125,-31.5625,55.125,0
62680,-32,-35.25,49.875,0
62700,-40.4375,-41.875,46.6875,0
62720,-36.75,-53.6875,39.8125,0
62740,-30.625,-60.6875,29.125,0
62760,-23.1875,-66.375,20.8125,0
62780,-25.5,-74.8125,14.125,0
62800,-17.375,-79.8125,6.875,0
62820,-3.75,-84.6875,-5.25,0
62840,1.375,-90.75,-16.375,0
62860,-2.3125,-91.125,-28.75,0
62880,-0.0625,-86.3125,-40.5625,0
62910,17.625,-79.375,-49.125,0
62940,20.9375,-68.6875,-53.75,0
62960,12.125,-59.5625,-54.5,0
62970,8.5625,-52.3125,-52.25,0
62990,7.9375,-45.75,-47.375,0
63000,10.125,-40.4375,-42.625,0
63020,2.9375,-36.25,-41.875,0
63030,7.125,-24.5,-41.1875,0
63050,6.9375,-17.1875,-36.5625,0
63070,-2,-15.5,-30.5,0
63090,-7.75,-12.3125,-27.6875,0
63110,-9.4375,-8.625,-30.25,0
63130,-14,-4.875,-29.1875,0
63150,-16.375,-0.75,-23.5,0
63170,-15.875,-0.8125,-17.9375,0
63190,-17.6875,-1.75,-13.9375,2001
63210,-13.0625,-0.8125,-11.5,0
63230,-8.75,0.25,-9.5,0
63250,-5.75,-1.5625,-9.3125,0
63270,-4.375,-2.5625,-6.0625,0
63290,-4.8125,-0.875,-2.5625,0
63310,-5.0625,0.0625,-4.6875,0
63330,-7.1875,0.0625,-6.625,0
63350,-7.5625,1.4375,-6.3125,0
63370,-2.75,4.6875,-4.875,0
63390,5.5625,8.75,-4.875,0
63410,11.5,10.75,-3.5,0
63430,16.8125,12.3125,-0.5625,0
63450,27.875,12.75,7.0625,0
63470,42.0625,13.6875,13.75,0
63490,54.75,14.75,21.5625,0
63510,54.3125,13.625,33.625,0
63530,47.3125,15.125,49.1875,0
63550,57.9375,20.5625,58.625,0
63570,68.5625,25.375,63.625,0
63590,63.5625,29.8125,71.625,0
63610,69.4375,36.8125,78.875,0
63620,88.0625,46.25,85.125,0
63640,92.5625,47.125,94.5625,0
63660,72.4375,50.5625,102.438,0
63680,72.875,65.75,104.188,0
63700,73.5625,75.5,95.125,0
63720,84,77.3125,81.5,0
63740,95.75,77.5625,68.0625,0
63760,95.625,80.125,63.0625,0
63780,100.25,81.8125,62.5625,0
63800,103.875,84.25,62.125,0
63820,97.0625,88,52.5625,0
63840,73.875,94.375,39.5625,0
63850,91.8125,124.375,48.5,0
63870,83.625,128.938,59.1875,0
63890,58.1875,135.75,70.5,0
63910,50.75,147.375,74.875,0
63930,51.6875,155.625,73.9375,0
63950,39.4375,154.562,74.625,0
63960,34.6875,151.312,70.4375,0
63960,59.1875,149.375,58.375,0
63980,114.688,142.5,30.75,0
64000,124.5,142.25,50.75,0
64020,157.562,136.062,49,0
64040,187.938,126.125,31.1875,0
64060,197.688,121.125,32.125,0
64080,127.688,68.3125,30.375,0
64100,41.625,-0.125,5,0
64120,-53.8125,-15.75,18.75,0
64140,-106.188,-7.375,22.9375,0
64160,-105.688,3.375,17.4375,0
64180,-72.5,8.8125,0.375,0
64200,-10.3125,5.125,-2.6875,0
64220,36.0625,1.1875,-0.75,0
64240,58.1875,-7.6875,-2.3125,0
64260,52.4375,-19.3125,-9.1875,0
64280,32.5625,-25.9375,-8.125,0
64300,11.125,-25.0625,-2.8125,0
64320,1.5625,-15,1,0
64360,1.625,-5.125,2,0
64380,0.125,-3.75,0.125,0
64400,-1.4375,-2.25,1.1875,0
64420,-0.4375,-0.875,2.6875,0
64440,0.625,-0.75,4.125,0
64460,-1.5,-0.25,6.3125,0
64480,-2.875,1.5625,3.875,0
64500,-5.875,0.625,5.375,0
64520,-8.8125,1.625,6.8125,0
64540,-12,0.75,6.5625,0
64560,-11,1.5625,6.9375,0
64580,-11.625,-0.5,5.5625,0
64600,-6.625,-1,3.8125,0
64620,-3.125,-1.6875,2.375,0
64640,0.875,-2.0625,1.4375,0
64660,1.75,-2.375,-0.125,0
64680,1.125,-1.5,-1,0
64700,0.8125,-1.125,-0.9375,0
64720,0.6875,-0.75,-0.375,0
64740,0.9375,-0.6875,-0.125,0
64760,1.5625,-0.8125,0.4375,0
64780,2.875,-1.1875,1,0
64800,2.75,-1.0625,1.875,0
64820,1.375,-0.75,2.125,0
64840,0.125,-1,2.3125,0
64860,-0.1875,-1.0625,2.0625,0
64880,0.125,-1.375,1.4375,0
64900,2.125,-1.0625,0.625,0
64910,1.9375,-1.375,-0.25,0
64930,1.4375,-0.9375,-0.5,0
64950,1.0625,-1.0625,-0.875,0
64970,1.5625,-0.5625,-1.125,0
64990,1.9375,-0.6875,-1.25,0
65010,1.6875,-0.4375,-1.5,0
65030,1.3125,-0.4375,-1.1875,0
65050,0.9375,-0.25,-1.625,0
65070,1.5,-0.3125,-1.75,0
65090,1.8125,-0.25,-1.3125,0
65110,1.25,-0.25,-1.25,0
65130,0.875,-0.25,-0.875,0
65150,0.4375,-0.1875,-0.4375,0
65170,0.875,-0.25,-0.0625,0
65200,0.6875,-0.4375,0.875,0
65220,0.9375,-0.5,0.875,0
65240,0.5625,-0.4375,0.75,0
65260,0.25,-0.25,0.5,0
65280,0.375,-0.25,0.625,0
65300,0.625,-0.375,0.5625,0
65320,1.1875,-0.625,0.5625,0
65340,1.5625,-0.3125,0.0625,0
65360,1.1875,-0.25,-0.3125,0
65380,0.375,-0.0625,-0.1875,0
65400,-0.6875,-0.125,0.5,0
65420,-1.3125,0.3125,0.5,0
65440,-1.375,-0.0625,0.125,0
65460,-0.5625,0.3125,-0.0625,0
65480,-0.1875,0.125,-0.25,0
65500,0.375,-0.1875,-0.4375,0
65520,0.5,-0.1875,-0.625,0
65540,0.1875,-0.1875,-0.625,0
65560,0.375,-0.3125,-0.8125,0
65580,0.375,-0.3125,-0.3125,0
65600,0.3125,-0.125,0.25,0
65620,0,0.0625,0.4375,0
65640,-0.25,0,0.8125,0
65660,-0.375,0.125,0.8125,0
65680,-0.5625,0.125,0.625,0
65700,0.1875,0,0.5625,0
65710,0.5,-0.25,0.4375,0
65730,0.3125,-0.25,-0.125,0
65750,0.125,-0.0625,-0.3125,0
65770,0.3125,0,-0.4375,0
65790,0.125,-0.1875,-0.3125,0
65810,-0.125,-0.1875,-0.25,0
65830,-0.375,0.0625,-0.1875,0
65850,-0.5,0.125,-0.0625,0
65870,-0.4375,-0.0625,-0.4375,0
65890,-0.1875,0,-0.375,0
65910,0,-0.0625,-0.375,0
65930,0,0,-0.375,0
65950,0.125,0,0,0
65970,0.25,0.0625,0.3125,0
65990,-0.0625,0.125,0.125,0
66010,-0.5,0.1875,-0.1875,0
66030,0.125,0.125,-0.0625,0
66050,0.625,0,0.4375,0
66070,1.3125,-0.0625,0.4375,0
66090,1,-0.125,0,0
66100,0.875,-0.25,-0.125,0
66130,-1.4375,0.25,0.6875,0
66150,-1.5625,0.375,0.75,0
66170,-1.125,0.1875,0.375,0
66190,-0.125,0.0625,-0.0625,0
66210,0.6875,-0.0625,-0.5,0
66230,0.8125,-0.375,-0.5625,0
66250,0.1875,-0.0625,-0.8125,0
66270,-0.1875,0,-0.8125,0
66290,-0.375,-0.0625,-0.4375,0
66310,-0.0625,0,0.1875,0
66330,-0.125,0.0625,0.5625,0
66350,-0.5,0.25,0.5625,0
66370,-0.5,0.1875,0.75,0
66390,-0.0625,0.0625,0.4375,0
66410,0.4375,0.0625,0.375,0
66430,0.75,-0.25,0,0
66450,0.5625,-0.1875,-0.1875,0
66470,0.0625,-0.1875,-0.375,0
66490,-0.125,-0.0625,-0.25,0
66510,-0.1875,0.25,-0.0625,0
66530,-0.1875,0.25,0.125,0
66550,-0.0625,0.25,0.1875,0
66570,-0.25,0.3125,0.25,0
66590,0,0.1875,0,0
66610,0.375,0.25,-0.125,0
66630,0.4375,-0.0625,0.25,0
66650,0.375,0.25,0.25,0
66670,-0.4375,0.0625,0.125,0
66690,-0.5625,0.1875,0.125,0
66710,-0.1875,0.0625,0.1875,0
66730,-0.3125,0.1875,0.375,0
66750,-0.25,0.1875,0.125,0
66770,-0.375,0.1875,0,0
66790,-0.4375,0.25,-0.1875,0
66810,-0.0625,-0.125,-0.0625,0
66830,0.25,0.0625,-0.0625,0
66850,1.125,0,0.0625,0
66870,1.125,0.0625,-0.25,0
66890,0.0625,0.0625,-0.0625,0
66910,-1.1875,0.4375,0.375,0
66930,-2.1875,0.3125,0.75,0
66950,-2.125,0.375,0.8125,0
66970,-0.9375,0.0625,0.3125,0
66990,-0.3125,0.0625,0.125,0
67010,-0.0625,-0.0625,-0.25,0
67030,-0.0625,-0.0625,-0.5,0
67050,-0.3125,0.0625,-0.375,0
67080,-0.5625,0,0,0
67100,-0.5625,0.0625,0.4375,0
67120,-0.375,0.25,0.75,0
67140,-0.5,0.1875,1,0
67160,-0.75,0.1875,0.875,0
67180,-0.6875,0.0625,0.75,0
67200,-0.25,0.0625,0.625,0
67210,-0.25,-0.0625,0.5,0
67230,-0.5625,-0.125,0.4375,0
67250,-2.5625,-0.5,0.625,0
67270,-9.5,-2.875,1.3125,0
67290,-21.875,-9.3125,3.125,0
67310,-49.25,-9.25,17,0
67330,-98.625,-11.5625,24.125,0
67350,-177.688,-19.375,25.1875,0
67370,-220.625,-44.875,21.4375,0
67390,-252.125,-71.3125,-7.75,0
67410,-209.625,-90.9375,-31.8125,0
67430,-163.062,-119.25,-49.3125,0
67450,-97.8125,-137,-80.125,0
67470,-39.0625,-143.625,-82.5625,0
67490,-34.125,-155.562,-89.125,0
67510,-61.75,-159.375,-104.812,0
67530,-88.875,-156.688,-121.625,0
67550,-110.75,-149.438,-131.188,0
67570,-115.125,-138.5,-128.625,0
67590,-101,-125.812,-126.438,0
67610,-88.125,-111.562,-121.562,0
67630,-85.875,-99.0625,-110.312,0
67650,-82.9375,-85.5,-101.688,0
67670,-92.8125,-70.75,-96.625,0
67690,-99.875,-54.6875,-85.375,0
67710,-90.875,-37.3125,-70.3125,0
67730,-77.1875,-19.8125,-56.3125,0
67750,-69.5625,-5.25,-40.5625,0
67770,-62.9375,6.1875,-25.125,0
67790,-59.4375,16.1875,-18.5,0
67810,-54.9375,21.25,-14.0625,0
67830,-57.6875,21.4375,1.8125,0
67850,-95.4375,16.625,25.4375,0
67860,-133.562,20.4375,41.4375,0
67880,-123.5,30.6875,40.6875,0
67910,-68.125,25.1875,29.3125,0
67930,-27.5,19.1875,27.25,0
67970,-7.875,17.4375,-11.25,0
67990,-3.6875,12,-8.5,0
68010,10.25,-1.3125,-8.1875,0
68020,17.0625,-1.5,-6.9375,0
68030,19.3125,0.375,-7.0625,0
68040,14.8125,-0.9375,-5.8125,0
68050,-4.5,-3.1875,-2,0
68070,-2.9375,-0.4375,0.3125,0
68090,10,3.5625,-4.5,0
68110,6.125,2.625,-4.9375,0
68130,-6.875,6.625,-0.875,0
68150,-4.125,9.25,0.75,0
68170,3.5,7.25,-3.3125,1000
68190,3.625,5.375,0.0625,0
68210,-3.5,4.625,4.3125,0
68230,5.5,7.0625,0.4375,0
68250,14.25,4.4375,0.75,0
68270,17.3125,-2.25,3.1875,0
68290,7.9375,-12.0625,-0.625,0
68310,5.3125,-22.625,-16.6875,0
68330,1.6875,-30.5625,-26.5625,0
68350,6.125,-36.4375,-29.625,0
68370,4.25,-46.375,-34.0625,0
68390,-6.0625,-54,-35.1875,0
68410,-4.9375,-60.125,-35,0
68430,-4.4375,-67.625,-34.9375,0
68450,-13.125,-75.625,-31.5,0
68470,-9.0625,-78.4375,-25.0625,0
68490,-5.25,-76.125,-19.8125,0
68510,-8.9375,-74.8125,-12.375,0
68530,-13.5625,-77.3125,-5.25,0
68550,-11.8125,-77,1.4375,0
68570,1.75,-70.1875,7.0625,0
68590,15.625,-63.5625,16.6875,0
68610,22.75,-64.9375,30.625,0
68630,18,-61.75,42.3125,0
68650,20.125,-45.375,46.5,0
68670,24.375,-31.3125,53,0
68690,21.9375,-30,65.375,0
68710,24.9375,-25.3125,76.4375,0
68730,39.5625,-11.5625,85.375,0
68750,38.1875,3.125,85.375,0
68770,25.9375,9.8125,88.5,0
68790,27.3125,17.375,94.25,0
68810,24.875,29.1875,97.125,0
68820,10.3125,38.5625,95.625,0
68840,8.0625,45.4375,91.6875,0
68860,-2.4375,49.75,85.25,0
68880,-16.625,53.125,77.625,0
68900,-26.6875,58.6875,75.1875,0
68920,-40.0625,61.75,72.6875,0
68940,-39.625,67.5625,64.1875,0
68960,-30.0625,74.4375,52.8125,0
68980,-34.8125,82.25,41.1875,0
69000,-27.5625,88.1875,29.9375,0
69020,-21.375,90.5625,16.1875,0
69040,-24.9375,91.3125,5.4375,0
69060,-22.6875,97.3125,-7.9375,0
69080,-20.8125,101.312,-22.4375,0
69100,-14.1875,103.688,-25.625,0
69120,-15.1875,103.312,-25.8125,0
69140,-5.0625,103.5,-33.6875,0
69160,15.25,98.75,-41.875,0
69180,11.875,90.875,-37.5625,0
69200,23.5,88.5,-28.125,0
69230,46.625,39,-65.1875,0
69250,47.125,20.0625,-71.25,0
69270,38.6875,2.3125,-75.125,0
69290,36.5625,-10.125,-78.1875,0
69310,41.125,-34.3125,-83.6875,0
69330,35.625,-44.9375,-79.0625,0
69340,26.0625,-53.0625,-75.625,0
69360,14.5,-61.25,-72.9375,0
69380,1.875,-67.5625,-68,0
69400,0.5,-71.125,-61.875,0
69420,-4.1875,-73.4375,-55.75,0
69440,-11.875,-79,-47.6875,0
69460,-19.375,-83.5625,-37.9375,0
69480,-18.3125,-80.5,-33.375,0
69500,-12.625,-73.625,-30.25,0
69520,-5.375,-75.1875,-18.6875,0
69540,-3.375,-83.125,-7.375,0
69560,2.125,-79.625,0.375,0
69580,12.125,-66.625,5.25,0
69600,17,-57.5625,11.5,0
69620,20.3125,-54.25,22.5625,0
69640,27.75,-47.25,36.375,0
69660,38.6875,-36.5,48,0
69680,45.1875,-27.3125,54.75,0
69690,57.125,-17.5,62.8125,0
69710,85,-0.25,75.6875,0
69730,108.5,14.375,86,0
69750,97.25,18.5,92.125,0
69770,94.4375,26.9375,82.4375,0
69790,85.3125,41.375,75.1875,0
69810,59.375,48.5,77.75,0
69830,33.6875,46.625,81.8125,0
69850,26.25,47.625,80,0
69870,17.5,53.9375,73.625,0
69890,7.625,53.125,65.625,0
69910,-7.9375,51,61.875,0
69930,-22.5,51.9375,54,0
69950,-25.6875,54.8125,41.3125,0
69970,-33.3125,59.0625,30.4375,0
69990,-44.375,65.8125,21.625,0
70010,-47.5,72.5,13.4375,0
70030,-44,76.75,8.6875,0
70050,-39.875,79.5625,6.5,0
70070,-27.1875,81.9375,1.1875,0
70090,-26.75,84.625,-1.3125,0
70110,-44.5,88,2.1875,0
70130,-60.125,92.8125,-3.875,0
70150,-41.1875,88.0625,-19.625,0
70170,-17.875,80.5,-32.1875,0
70190,-9.625,73.6875,-39.3125,0
70210,9.25,64.1875,-50.625,0
70240,18.375,31.0625,-73.8125,0
70260,19.8125,-0.9375,-82.5,0
70280,21.625,-10.6875,-81.0625,0
70300,17.625,-21.4375,-79.375,0
70320,11.25,-30.375,-77.75,0
70340,3.4375,-39.5625,-74.625,0
70360,-5.4375,-46.5,-71.75,0
70380,-13.125,-50.875,-67.75,0
70400,-20.125,-55.1875,-61.0625,0
70420,-27.1875,-57.375,-56.9375,0
70440,-17.875,-57.5625,-53.875,0
70460,-7.9375,-58.6875,-48.3125,0
70480,-7.875,-60.8125,-42.1875,0
70520,23.5625,-41.9375,-9.5625,0
70540,28.625,-27.6875,-14.8125,0
70560,58.9375,11.75,38.25,0
70590,63.375,27.5,58.3125,0
70600,68.25,34.875,83.5625,0
70610,60.875,36.875,85,0
70630,40,51,96,0
70670,-2.125,50.4375,40.0625,0
70710,-36.625,60.5,27.5,0
70710,-46.5625,57.125,20.0625,0
70730,-39.125,55.6875,10.75,0
70750,-37.6875,57.5625,7.1875,0
70770,-43.375,60.875,9.75,0
70790,-36.1875,61.25,9.6875,0
70810,-14.9375,53.5625,-17.375,0
70830,-16.5625,53.8125,-22.6875,0
70850,-12.4375,47,-32.25,0
70870,-2.6875,38.6875,-46.0625,0
70900,22.5625,8.1875,-60.25,0
70920,25.625,-3.875,-63.0625,0
70940,47.4375,-17.875,-66.1875,0
70960,64.9375,-27.375,-74.0625,0
70980,57.8125,-33.625,-77.125,0
71000,37.0625,-40,-77.9375,0
71020,3.6875,-44.5,-78.3125,0
71040,-12.875,-43.8125,-75.4375,0
71060,-12.4375,-43.0625,-75.3125,0
71080,-7.5,-46.0625,-74.625,0
71100,-0.5,-48.8125,-68.5,0
71120,8.75,-49.0625,-65.5,0
71140,12.625,-48.625,-65.1875,0
71150,0.375,-45.5,-62.625,0
71170,-14.1875,-43.1875,-57.5,0
71180,-11.5,-39.0625,-48.875,0
71200,-10.5,-35.1875,-43.6875,0
71220,-8.875,-32.5,-36.9375,0
71240,-2.25,-28.8125,-32.5,0
71260,2.5,-26.875,-33,0
71280,-0.375,-26.75,-31.125,0
71300,-3.9375,-24.5,-22.8125,0
71320,-2.3125,-21.875,-13.9375,0
71340,-1.375,-22.125,-8.375,0
71360,7.625,-22.375,-3.375,0
71380,11.4375,-20.75,-1.875,0
71410,11.6875,-2.25,-10,0
71410,17.1875,1.8125,-11.25,0
71430,16.0625,3.8125,-5.4375,0
71450,11.9375,1.75,-0.9375,0
71470,8.5,3.125,-2.8125,1001
71510,11.875,19,4.5625,0
71510,12.625,18.75,11.8125,0
71510,-2.3125,25.0625,5.125,0
71530,-4.6875,26.1875,-1.5625,0
71550,-2.8125,21.875,5.0625,0
71570,0.3125,20.25,13.8125,0
71590,8.1875,18.8125,12.8125,0
71610,16.9375,18,10.1875,0
71630,14.625,15.0625,9.75,0
71650,4.5625,7.25,14.125,0
71660,-6.5,-2.3125,20.1875,0
71690,-5.875,-18.3125,15.6875,0
71710,1.6875,-28.1875,15.875,0
71730,11.4375,-39.8125,20.5625,0
71750,13.6875,-57.8125,19.25,0
71810,-4.625,-68,16.125,0
71810,-8.1875,-62.9375,11.3125,0
71830,-22.9375,-60.375,9.0625,0
71850,-33.6875,-51.9375,4.6875,0
71870,-33.5625,-44.1875,0.25,0
71890,-32.9375,-42.25,1.125,0
71910,-25.5625,-39.25,6.75,0
71930,-21.9375,-30.375,7.25,0
71950,-21.8125,-19.8125,5.8125,0
71970,-27.25,-10.3125,1.3125,0
71990,-39.875,-0.6875,-2.375,0
72010,-51.125,12.0625,-2.0625,0
72030,-65.4375,19,2.375,0
72050,-52.6875,22.25,13.6875,0
72070,-21.3125,20.4375,21.8125,0
72090,-0.625,20.5625,23.625,0
72110,-4.25,22.25,21.1875,0
72130,-20.0625,24.125,16.5,0
72150,-32.25,24.125,9.625,0
72170,-29.5,28,7.6875,0
72190,-21.375,24.9375,13.3125,0
72210,4.5625,17.75,15.25,0
72230,26.25,15.375,11.125,0
72250,21.625,16.625,7.9375,0
72270,3.625,14.9375,7.3125,0
72290,-4.625,12.625,2.875,0
72310,3.4375,9,-1.8125,0
72330,14.5,5.3125,-2.625,0
72350,22.8125,-3.8125,-3.375,0
72370,21.875,-12,0.1875,1000
72390,13.5,-15.875,3,0
72410,2.6875,-20.25,-8.375,0
72430,-0.1875,-24.8125,-23.625,0
72450,11.4375,-32.5625,-25.625,0
72470,22.75,-40.6875,-25.6875,0
72490,21.9375,-48.125,-31.875,0
72510,12.5,-54.5,-34.25,0
72530,2.5,-59.9375,-34.375,0
72550,-6,-66.6875,-30.125,0
72570,-3.5625,-72.625,-26.125,0
72590,2.8125,-76.125,-24.1875,0
72610,8.1875,-77.75,-22.5,0
72630,12.3125,-79.25,-15.75,0
72650,32.5,-80.6875,-6.9375,0
72670,49.4375,-73.75,0.625,0
72690,51.6875,-66.125,8.625,0
72710,40.375,-64.625,19.0625,0
72730,29.3125,-62.8125,23.125,0
72750,30,-48.3125,22,0
72770,35.5625,-34.25,26.0625,0
72790,32.5625,-30.75,44.75,0
72810,42.625,-27.125,61.8125,0
72830,49.5,-17.75,65.3125,0
72850,48.25,-3.4375,61.625,0
72870,39.3125,8.5,67.875,0
72890,28.625,17.4375,77.875,0
72900,24.25,25.75,81.5625,0
72920,29.125,35.3125,82.9375,0
72940,25.875,43.1875,84.5625,0
72960,5.25,48.5,86.375,0
72980,-5.75,56.3125,82.25,0
73000,-5,64.25,72,0
73020,-12.1875,68.625,65.375,0
73040,-16.375,75.5,59.6875,0
73060,-19.0625,85.1875,49.8125,0
73080,-24.6875,89.1875,37.1875,0
73100,-29.0625,90.75,31.75,0
73120,-23.9375,93.875,30.1875,0
73140,-19.5625,91.375,29.3125,0
73160,-29.375,90.625,24.0625,0
73180,-25.6875,96,18.3125,0
73200,-8.4375,99.875,8.75,0
73220,-1.4375,91.9375,-0.1875,0
73240,-5.125,90.75,-1.875,0
73250,-17.6875,88.3125,-11.4375,0
73270,-16.75,82.125,-5.8125,0
73290,7.0625,81.4375,-6.625,0
73310,26.5625,73.5625,-14.3125,0
73330,16,56.5625,-20.5625,0
73350,10.5,45,-29.875,0
73370,9,38.3125,-35.9375,0
73390,18.5625,25,-40.5,0
73410,33.3125,9.375,-46.8125,0
73430,42.5625,2.125,-48.75,0
73450,29,-1.375,-51.3125,0
73470,21.125,-7.4375,-54.1875,0
73490,28.875,-13.625,-55.5625,0
73510,29.8125,-17.6875,-55.75,0
73530,28.6875,-23.875,-60.1875,0
73550,24.3125,-27.9375,-62.125,0
73570,16.6875,-30,-61.625,0
73590,13.6875,-34.5625,-58.375,0
73610,5.8125,-43.625,-51.75,0
73630,-9.375,-49.625,-44.8125,0
73650,-18.625,-49.8125,-41.6875,0
73670,-19.3125,-48.125,-41,0
73690,-11.5,-51.25,-36.8125,0
73710,-10.9375,-56.375,-25.3125,0
73730,-4.875,-54.3125,-17.6875,0
73750,-6.25,-49.25,-25.75,0
73770,0,-45.125,-39.6875,0
73790,1.3125,-45.375,-40.6875,0
73810,1.125,-44.6875,-38.25,0
73830,6.125,-43.625,-37.6875,0
73850,13.625,-44.6875,-45.0625,0
73870,1,-42.375,-49.8125,0
73890,-7.3125,-38.3125,-44.75,0
73910,-12.0625,-36.625,-36.4375,0
73930,-10.6875,-39.1875,-34.875,0
73950,-12.9375,-41.75,-33.4375,0
73970,-16.4375,-37.25,-27.5,0
73990,-14.75,-34.375,-20.3125,0
74010,-10.0625,-35.4375,-12.8125,0
74030,-2.6875,-35,-1.75,0
74050,-0.875,-30.75,3.5625,0
74070,-3.125,-27.875,6.0625,0
74090,-8.5,-26.875,6.375,0
74110,-8.375,-25.5,10.6875,0
74120,1.75,-22.9375,22.0625,0
74140,12.25,-22.5625,28.75,0
74160,9.75,-23.1875,33.625,0
74180,9.6875,-21.4375,39.1875,0
74200,12.5,-17.6875,38.625,0
74220,12.9375,-15.75,42.5,0
74240,12.5,-16.0625,52.375,0
74260,18.6875,-14.9375,61,0
74280,30.6875,-9.0625,68,0
74300,37,0.375,79.3125,0
74310,42.5625,18.6875,89.625,0
74320,39.4375,20.625,88.4375,0
74340,34.8125,27.125,90.0625,0
74350,32.125,30.5625,89.3125,0
74370,28.5,30.625,86.6875,0
74390,14.125,30.5,81.9375,0
74410,4.375,33.75,70.75,0
74430,-1.0625,35.1875,58.8125,0
74450,-5.4375,34.0625,51.4375,0
74470,-5.6875,36.875,45.125,0
74490,-7.125,42.25,37.5,0
74510,-12.625,46.3125,30.75,0
74520,-18.375,52.1875,29.375,0
74540,-8.6875,54.625,21.375,0
74570,-4,64.9375,-2.125,0
74610,-6.625,59.25,-8.9375,0
74630,-4.5625,66,-9.5625,0
74650,9,68.75,-16.3125,0
74670,19.25,66.5625,-18.625,0
74690,15.125,67.8125,-13.3125,0
74710,4.75,64.3125,-13.375,0
74730,10.25,51.8125,-23.3125,0
74750,10.4375,40.6875,-24,0
74770,15.5625,37.25,-20.1875,0
74800,5.75,20.5625,-34,0
74820,8.375,4.75,-40.75,0
74830,17.5625,-1.125,-40.625,0
74860,8.625,-7.0625,-47.375,0
74880,-3.875,-14.4375,-47.875,0
74910,2.25,-14.0625,-46.6875,0
74940,13,-20.375,-37.9375,0
74960,3.3125,-21.6875,-36.75,0
74980,2.5625,-22.5,-40.5,0
75000,4.6875,-24.9375,-44.1875,0
75020,0,-25.125,-43.1875,0
75040,5.5625,-24.875,-42.125,0
75060,5.8125,-26.3125,-49.3125,0
75080,-0.4375,-26.3125,-54,0
75100,0.3125,-24.6875,-53.9375,0
75120,7.5625,-26.25,-57.25,0
75140,12.5,-28.4375,-62.875,0
75160,11.0625,-28.9375,-62.5,0
75180,9.625,-29.5,-62.25,0
75200,9.625,-29.5625,-63.625,0
75220,5.5,-31.1875,-63.25,0
75240,2.0625,-33.0625,-58.875,0
75260,-10.0625,-30.75,-54.6875,0
75280,-19.0625,-30,-50,0
75310,-1.5,-37.125,-37.1875,0
75320,3.125,-36.0625,-31,0
75340,-0.6875,-35.25,-24.5625,0
75350,-12.5,-35.25,-17.875,0
75370,-20.75,-37.25,-11.875,0
75390,-21.0625,-35.5,0.1875,0
75410,-3.5625,-32.1875,16.6875,0
75430,18.5,-26.6875,31.9375,0
75450,34,-22.125,42.125,0
75470,32.25,-14.5625,48.125,0
75490,28.5,-9.625,54.0625,0
75510,31,-7.125,63.375,0
75520,-29.1875,34.625,43.6875,0
75540,-13.8125,31.0625,37.5625,0
75560,2.5,30.6875,28,0
75580,-1.3125,31.3125,25.8125,0
75600,-15.5625,35,27.125,0
75620,-26.625,39.375,25,0
75640,-20.75,37.5,25.8125,0
75660,-5.5625,36.1875,25.0625,0
75680,-1,42.8125,18.8125,0
75700,-13.4375,45.9375,15.0625,0
75720,-29.9375,44.3125,13.375,0
75770,-0.3125,36.4375,-2.3125,0
75780,-9.625,34.1875,-20,0
75800,-9.0625,32.1875,-18.1875,0
75820,-4.375,31.9375,-16.4375,0
75840,-3.5,29.1875,-17.3125,0
75850,1.1875,28.4375,-20.3125,0
75850,5.8125,27.4375,-22.625,0
75870,4.75,26.6875,-19.8125,0
75890,3.375,23,-19.0625,0
75910,2.375,17.6875,-23.25,0
75930,1.75,13.25,-23.4375,0
75950,-5.25,11.125,-21.3125,0
75970,-11.5,7.4375,-20.875,0
75990,-12.3125,0.625,-21.9375,0
75990,-13.0625,2.0625,-21.375,0
76010,-16.4375,4.1875,-24.1875,0
76020,-9.125,2.625,-25.625,0
76040,-17.75,0.1875,-29.625,0
76060,-11.1875,-2.5625,-30.0625,0
76080,-5.75,-3.4375,-28.75,0
76100,-4.3125,-5.0625,-27.4375,0
76120,-10.625,-5.5,-28.125,0
76140,-10.875,-4.25,-29.5,0
76160,-5.5625,-4,-28.75,0
76180,-2.875,-5.625,-27.8125,0
76200,-3.25,-6.9375,-27.1875,0
76220,-5.8125,-6.8125,-27.6875,0
76240,-6.875,-7.6875,-29.8125,0
76260,-4.6875,-7.5625,-30.875,0
76280,-1.9375,-6.9375,-29.875,0
76300,1.25,-5.8125,-29.6875,0
76320,4.875,-4.8125,-30.4375,0
76340,7.75,-5.5,-32.25,0
76360,5.6875,-5.75,-32.875,0
76380,3.6875,-5.375,-32.875,0
76390,0.375,-8,-34.75,0
76410,2.25,-10.75,-33.9375,0
76430,2.375,-14.375,-34.375,0
76450,6.8125,-19.75,-35.5,0
76470,10.125,-24.6875,-36.5625,0
76490,4.6875,-26.6875,-38.625,0
76510,-4.25,-26.6875,-40.5,0
76530,-8.25,-27.8125,-42.6875,0
76550,-11.125,-30.0625,-44.6875,0
76570,-11.4375,-30.9375,-45.5,0
76590,-9.25,-29.5,-45.1875,0
76610,-2.5,-27.125,-44.3125,0
76630,6.25,-26.625,-42.3125,0
76650,15.625,-24.5625,-39.4375,0
76670,25.125,-21.125,-37.5625,0
76690,27.5625,-21.4375,-37.0625,0
76710,20.5625,-22.375,-33.9375,0
76730,16.8125,-19.8125,-28.0625,0
76750,29.375,-16.375,-19,0
76770,33.25,-19.125,-5.625,0
76790,18.875,-16.3125,5.9375,0
76810,8.4375,-11.375,3.6875,0
76830,7.3125,-5.625,1.75,1001
76850,8.125,-6.8125,5.875,0
76870,16.875,-8.5,9.125,0
76900,30.625,1.625,5.8125,0
76910,27.75,-0.75,9.8125,0
76940,4.25,-23.4375,4.125,0
76950,19.8125,-48.8125,7.875,0
76960,30.0625,-63.375,16.9375,0
77000,9.875,-61.9375,20.375,0
77000,17,-60.625,17,0
77060,-1.6875,-50.4375,12.0625,0
77080,-6.3125,-43.625,13.3125,0
77100,-13.4375,-34.125,9.125,0
77120,-11.4375,-28,12.625,0
77140,-6.375,-22.5625,26.9375,0
77160,2.125,-13.9375,38.25,0
77180,-1.8125,-5.375,34.1875,0
77200,-9.3125,4.0625,27.3125,0
77220,-27.0625,14.4375,21.0625,0
77240,-39.8125,24.5625,16.1875,0
77260,-42.375,26.75,12.3125,0
77280,-29.75,25.375,13.0625,0
77300,-10.375,23.6875,13.3125,0
77320,5.3125,21.4375,9.9375,0
77340,1.5625,20.5625,6.0625,0
77360,-4.6875,23.0625,0.5625,0
77380,-11.4375,26.0625,-4.25,0
77400,-4.5625,18,-2.5625,0
77420,5.75,6.5625,2.0625,0
77440,11.5,3.875,1.3125,0
77460,3.6875,3.5625,-4.875,0
77480,-17.875,-1.25,-5.375,0
77500,-31.6875,-8.3125,-5.5,0
77520,-25.3125,-15.3125,-8.5,0
77540,-12.8125,-23.4375,-11.0625,1000
77560,-13.1875,-21.1875,-12.8125,0
77580,-2.8125,-27.9375,-17.125,0
77600,10.1875,-22.25,-29.6875,0
77620,11.0625,-26.0625,-31.25,0
77640,5.4375,-29.875,-27.3125,0
77660,-14.875,-37.9375,-24.9375,0
77680,-14.25,-49.8125,-26.75,0
77700,-3.75,-54.8125,-27.5,0
77720,-5.375,-54.5625,-20.875,0
77740,-2.3125,-54.6875,-19.125,0
77760,2.75,-55.25,-20,0
77780,-0.0625,-53.5625,-13.5,0
77800,-2.875,-56.1875,-6.6875,0
77820,-5.1875,-55.75,-9.5625,0
77840,-5.375,-54,-14.25,0
77850,0.4375,-54.0625,-10.8125,0
77870,4,-55.3125,-2.5625,0
77890,5.5625,-56.9375,-2.9375,0
77910,4.375,-54.25,-5.625,0
77930,2.6875,-51.75,-4.75,0
77950,6.8125,-52,-2.25,0
77970,13.625,-50.6875,1.1875,0
78020,38.875,-35.5625,23.9375,0
78040,34.5,-29.6875,33.5,0
78070,38.8125,-12.25,62.625,0
78090,34.6875,-11.8125,69.4375,0
78110,28.5625,-5,67.375,0
78130,30.75,2.4375,64.625,0
78150,30.125,4.5,62.6875,0
78170,26.0625,6.125,63.75,0
78190,29.6875,8.625,66.3125,0
78210,32.125,11.9375,68.6875,0
78230,27.6875,14.625,69,0
78250,27.5625,15.1875,63.1875,0
78270,23.375,15.8125,60.6875,0
78290,14.875,18.25,60.4375,0
78310,8.75,19.4375,54.4375,0
78330,4.8125,22.8125,50,0
78350,8.75,25.125,46.4375,0
78370,10.1875,27.9375,42.875,0
78390,4.3125,30.875,38.8125,0
78410,-1.375,35.125,34.9375,0
78430,-10.5625,41.5,32.0625,0
78450,-17.9375,45.75,29.25,0
78470,-16.625,48.625,27.625,0
78490,-7.9375,52.125,31.4375,0
78510,0.5625,58.4375,33.6875,0
78530,-4.875,64.0625,36.1875,0
78550,-23.4375,67.375,37.1875,0
78570,-22.0625,70.75,37.4375,0
78590,-5.4375,77.375,38.375,0
78610,3.5,75.25,33.25,0
78630,-5.6875,76.875,26.0625,0
78650,-17.125,84.625,23,0
78670,-24.375,85.0625,12.625,0
78700,-2.125,79.5,2.3125,0
78720,5.9375,76.8125,-0.625,0
78740,10.375,76.6875,-6.4375,0
78760,13.0625,74.1875,-9.9375,0
78780,16.875,66.375,-12.5,0
78800,22.125,62.5,-18.1875,0
78820,26.8125,57.1875,-23.1875,0
78840,22.75,50.875,-28.0625,0
78860,16.5,45.375,-29.5,0
78880,12.6875,39,-32.6875,0
78900,8.125,32.5625,-37.6875,0
78920,10.3125,29.5,-40.4375,0
78940,15.875,27.8125,-40.9375,0
78960,13.3125,23.375,-42.375,0
78980,9.0625,20.375,-44.375,0
79000,12.5,17.875,-46.5,0
79020,18.625,12.625,-47.4375,0
79040,19.375,6.125,-50,0
79060,18.5625,1.9375,-53.25,0
79080,18.8125,-2.625,-55.625,0
79100,23.5,-5.375,-57.75,0
79120,32.875,-8.375,-61.3125,0
79140,49.75,-13.625,-66.875,0
79160,63.5,-20.75,-76.5625,0
79180,66.5,-29.375,-83.8125,0
79200,55.1875,-36.625,-85.0625,0
79220,37.5625,-37.5625,-88.25,0
79240,19.5625,-35,-88.3125,0
79260,-2.25,-38.125,-79.4375,0
79280,-13.4375,-44.125,-66.625,0
79300,-16.125,-49,-61.125,0
79320,-23.5625,-51.4375,-57.875,0
79340,-29.125,-55,-45.625,0
79360,-26.6875,-58.375,-37.8125,0
79380,-22.9375,-62.25,-33.5,0
79400,-21.9375,-61.9375,-22.25,0
79420,-19,-60.75,-18.8125,0
79440,-14.4375,-57.625,-21.4375,0
79460,-12.1875,-56.8125,-18.8125,0
79480,-9.75,-56.4375,-18,0
79500,-10.5,-51.5625,-22.4375,0
79520,-10.625,-45.9375,-20.375,0
79540,-5.9375,-44.1875,-16.1875,0
79560,-4.75,-47.5625,-13.375,0
79580,-10.75,-47.75,-10.375,0
79600,-8.1875,-42.6875,-5.8125,0
79610,0.8125,-39.1875,2.125,0
79630,14.4375,-37.625,16.5,0
79650,22.9375,-38.3125,29.3125,0
79670,24,-36.1875,33.5625,0
79690,22.0625,-32.0625,32.1875,0
79710,18.625,-28.375,34.9375,0
79730,14.625,-28.3125,39.0625,0
79750,24.75,-25.75,46.6875,0
79770,38.375,-19.875,58.0625,0
79790,52.6875,-10.0625,69.625,0
79810,60.25,0.5,79.625,0
79830,73.625,8,85.6875,0
79850,74.9375,12.4375,90.5625,0
79880,-8.25,25.5625,59.375,0
79900,-17,25.75,55.5,0
79910,-19,26.4375,52.4375,0
79930,-16.125,29.375,46.625,0
79960,-5.3125,37.5,35.75,0
79970,-26.5,47.0625,33.0625,0
79980,-29.25,52.625,25.6875,0
80000,-26.75,56.9375,23.5625,0
80020,-19.6875,62.3125,25.6875,0
80040,-12.4375,68.5625,31.5,0
80050,-5,75.5,29.875,0
80070,-3.375,81.3125,19.1875,0
80090,-17.25,86.4375,15.8125,0
80120,1.5625,93.5,12.25,0
80140,15.875,85.5,9.4375,0
80160,9.8125,80.875,-0.625,0
80180,1.0625,83.4375,-13.3125,0
80200,-3.25,78.75,-19.5,0
80220,-6.625,68.1875,-22.625,0
80240,-1.1875,60.625,-28.5,0
80260,9.4375,55.875,-37.375,0
80270,24.75,50.875,-43.75,0
80300,17.6875,17.6875,-60.125,0
80320,14.3125,13.625,-60,0
80340,7.875,7.5625,-60.0625,0
80360,8.75,3.75,-59.0625,0
80380,6.5,1.25,-55.625,0
80400,-3.5,-2.0625,-53.9375,0
80420,-10.8125,-6.9375,-54.375,0
80440,-10.375,-10.75,-55.3125,0
80460,-12.25,-12.5625,-55.1875,0
80480,-9.8125,-14.25,-51.75,0
80500,-1.6875,-16.6875,-50.8125,0
80520,1.75,-19.9375,-54.4375,0
80540,8,-22.875,-61.1875,0
80560,22.125,-29,-66.1875,0
80580,29.75,-39.1875,-67.3125,0
80600,25.875,-45,-70.375,0
80620,21,-46.3125,-74.9375,0
80640,12.4375,-48.8125,-75.25,0
80660,8.875,-51.0625,-70.25,0
80670,10.75,-49.75,-62.8125,0
80690,16.4375,-42.4375,-55,0
80710,21,-39.0625,-47.5625,0
80730,21.375,-43.375,-40.875,0
80750,10.9375,-46.5,-30.9375,0
80770,6.75,-39.5,-24.625,0
80790,9.5625,-33.8125,-20.5625,0
80810,15.375,-34.75,-11.6875,0
80830,15.75,-37.125,-0.75,0
80850,10.4375,-28.0625,7.8125,0
80870,10.6875,-19.75,10.625,0
80890,13.25,-18.4375,15.3125,0
80910,19.0625,-17.3125,25.125,0
80930,31.625,-9.5625,38.75,0
80950,40.1875,-2.875,44.9375,0
80960,39.8125,2.4375,47.5625,0
80980,47.3125,12.1875,50,0
81000,61.9375,24,54.5,0
81000,22.9375,28.125,60.3125,0
81010,4.0625,26.4375,50.5625,0
81040,-5.0625,35.875,53.1875,0
81050,-13.875,41.5,43,0
81050,7,45.9375,-22.5625,0
81070,0.125,40.8125,-24.5625,0
81090,1.6875,36.1875,-28.4375,0
81110,8.625,30.8125,-32.3125,0
81130,16.25,26.25,-34.3125,0
81150,20.4375,21,-30.125,0
81170,13.1875,17.5625,-28.8125,0
81190,4.1875,13.9375,-33.9375,0
81210,-6.25,6.875,-35.9375,0
81210,-8.1875,-8.625,-27.4375,0
81240,-8.8125,-18.5625,-44.8125,0
81240,-8.75,-19.9375,-45.625,0
81260,-11.5,-20.1875,-41.6875,0
81280,-17.75,-20.1875,-42.4375,0
81300,-24.5,-21.1875,-45.4375,0
81320,-25.8125,-22,-46.1875,0
81330,-19.0625,-21.125,-45.0625,0
81390,-7.8125,-13,-43.1875,0
81410,-10.8125,-14.5625,-44.625,0
81430,-9.0625,-18.625,-41.875,0
81450,-11.875,-20.875,-41.125,0
81470,-18.6875,-20.4375,-41.75,0
81490,-19,-17.75,-40.1875,0
81510,-7.8125,-18.4375,-37.9375,0
81530,-1.1875,-19.9375,-34.9375,0
81550,-1.625,-19.75,-31.1875,0
81570,-4.4375,-18.3125,-30.8125,0
81590,-4.1875,-17.8125,-32.0625,0
81610,-9.375,-19.625,-31.8125,0
81630,-11.25,-20.3125,-29.6875,0
81650,-7.0625,-18.875,-27.125,0
81670,-5.875,-18,-24.375,0
81690,-5.875,-16.5,-21.9375,0
81710,4.0625,-14.375,-21.9375,0
81730,7.625,-13.3125,-20.75,0
81750,4.6875,-10.75,-16.25,0
81770,4.6875,-8.75,-14.5625,0
81790,7.875,-9.375,-16.3125,0
81810,9.875,-7.0625,-18.5625,0
81830,15.125,-3.4375,-18.125,0
81850,14.6875,-3.0625,-13.125,0
81870,16.375,-2.3125,-11.1875,0
81890,13.8125,-1.5625,-15.3125,0
81910,10.625,-0.875,-17.625,0
