Timestamp, Rotation x, Rotation y, Rotation z, Marker
40,0.1875,-0.4375,-0.3125,0
60,0.1875,-0.3125,-0.5,0
80,0.375,-0.1875,-0.625,0
100,0.6875,-0.1875,-0.5625,0
120,0.4375,-0.0625,-0.375,0
120,0,0,-0.125,0
160,-0.4375,0.125,0.5,0
180,-0.5625,0.0625,0.5,0
200,-0.3125,0,0.375,0
220,0.25,-0.0625,0.375,0
240,0.5,-0.1875,0.125,0
260,0.625,-0.125,-0.125,0
280,0.4375,-0.0625,-0.0625,0
300,0.1875,0,0,0
320,-0.1875,0.0625,0.0625,0
340,-0.3125,0.0625,0.1875,0
360,-0.5,0.125,0.1875,0
380,-0.6875,0.0625,0.0625,0
400,-0.5,0.0625,0,0
420,0.125,-0.0625,-0.1875,0
440,0.75,-0.0625,-0.0625,0
460,1.1875,-0.3125,0.0625,0
480,0.9375,-0.25,-0.0625,0
500,0.5,0,0.1875,0
520,-0.875,-0.0625,0.4375,0
540,-1.5625,0.25,0.1875,0
560,-1.25,0.3125,-0.125,0
580,-0.375,0.1875,-0.1875,0
600,0.1875,0,-0.125,0
620,0.125,-0.25,-0.5,0
640,-0.0625,-0.25,-0.625,0
660,0.25,-0.1875,-0.5,0
680,0.25,-0.0625,-0.4375,0
700,0,0.125,0.0625,0
720,-0.25,0.25,0.1875,0
740,-0.5625,0.0625,0.4375,0
760,-0.5625,0.1875,0.375,0
780,-0.25,-0.125,0.1875,0
800,0.3125,-0.0625,0.0625,0
820,0.5,-0.1875,-0.125,0
840,0.375,-0.0625,-0.1875,0
860,0.4375,0,-0.0625,0
880,0.25,-0.0625,0,0
900,-0.1875,0.0625,0.0625,0
920,-0.5,0.0625,0.125,0
940,-0.5,0.0625,0.125,0
960,-0.5,0.125,0.125,0
980,-0.5625,0.1875,-0.0625,0
1000,-0.25,0.0625,-0.25,0
1020,0.1875,0.1875,-0.25,0
1040,0.8125,-0.1875,-0.125,0
1060,1.125,-0.4375,0,0
1080,0.75,-0.25,-0.0625,0
1100,-0.375,-0.125,0.125,0
1120,-1.3125,0,0.0625,0
1140,-1.5625,0.375,0,0
1160,-0.9375,0.3125,-0.125,0
1180,-0.25,0.25,-0.0625,0
1200,-0.125,-0.0625,-0.3125,0
1220,-0.3125,-0.25,-0.5,0
1240,-0.25,-0.1875,-0.625,0
1260,0.125,-0.125,-0.5625,0
1280,0.125,0,-0.3125,0
1300,-0.3125,0.3125,-0.1875,0
1320,-0.8125,0.25,0.5625,0
1340,-0.8125,0.1875,0.5625,0
1360,-0.5,0.125,0.5,0
1380,-0.1875,0,0.375,0
1400,0.125,-0.0625,0.1875,0
1420,0.1875,-0.0625,-0.0625,0
1440,0.1875,0,-0.125,0
1460,0.3125,0.0625,-0.0625,0
1480,-0.125,0.0625,0.0625,0
1500,-0.4375,0.0625,0.125,0
1520,-0.625,0.0625,0.1875,0
1540,-0.5625,0.0625,0,0
1550,-0.6875,0.125,-0.0625,0
1570,-0.5625,0.1875,-0.0625,0
1590,-0.25,0.0625,-0.125,0
1610,0.125,0.25,-0.125,0
1630,0.625,-0.0625,0,0
1650,0.625,-0.25,-0.0625,0
1670,0.125,-0.0625,0.125,0
1690,-0.75,0.0625,0.3125,0
1710,-1.6875,0.1875,0.1875,0
1730,-1.5,0.3125,-0.1875,0
1750,-0.75,0.3125,-0.3125,0
1770,0,0.125,-0.3125,0
1790,-0.125,-0.25,-0.4375,0
1810,-0.375,-0.25,-0.5625,0
1830,-0.125,-0.125,-0.625,0
1850,0.125,0,-0.5,0
1870,0.0625,0.1875,-0.3125,0
1890,-0.25,0.1875,0.125,0
1910,-0.6875,0.125,0.4375,0
1930,-0.75,0.1875,0.375,0
1950,-0.3125,0,0.375,0
1970,0.125,-0.125,0.125,0
1990,0.375,-0.0625,0.0625,0
2010,0.3125,-0.125,0,0
2030,0.3125,0,-0.0625,0
2050,0.3125,0,-0.125,0
2070,-0.1875,-0.0625,0.0625,0
2090,-0.3125,0,0.1875,0
2110,-0.4375,-0.0625,0.1875,0
2130,-0.25,0,0,0
2150,-0.1875,0.125,0,0
2170,-0.4375,0.1875,-0.0625,0
2190,-0.25,0.125,-0.25,0
2210,0,0.0625,-0.1875,0
2230,0.4375,-0.0625,-0.125,0
2250,0.625,-0.375,0.0625,0
2270,0.5625,-0.25,-0.0625,0
2290,0,0.125,0.1875,0
2310,-1.25,0.125,0.25,0
2330,-1.5625,0.25,0.0625,0
2350,-1.25,0.3125,-0.1875,0
2370,-0.375,0.25,-0.125,0
2390,-0.125,-0.0625,-0.25,0
2410,-0.25,-0.3125,-0.4375,0
2430,-0.3125,-0.0625,-0.5625,0
2450,0.0625,-0.0625,-0.625,0
2470,0.0625,0,-0.5,0
2490,-0.1875,0.1875,-0.25,0
2510,-0.5625,0.25,0.1875,0
2530,-0.6875,0.0625,0.5,0
2550,-0.5,0,0.5,0
2570,-0.125,-0.0625,0.4375,0
2590,0.0625,-0.125,0.3125,0
2610,0.3125,-0.0625,-0.0625,0
2630,0.375,-0.0625,-0.125,0
2650,0.1875,-0.0625,-0.125,0
2670,-0.5,0.25,-0.0625,0
2690,-2.375,0.625,0.1875,0
2710,-5.375,1.3125,0.125,0
2730,-7.4375,2.0625,-0.25,0
2750,-8.6875,2.5,-1.0625,0
2770,-9.4375,3,-2.125,0
2790,-10.1875,3.625,-3.125,0
2810,-10.875,4.5,-3.625,0
2830,-11.0625,5.125,-3.9375,0
2850,-10.875,5.1875,-4.25,0
2870,-11.25,5.125,-4.3125,0
2890,-12,5.75,-4.0625,0
2910,-12.9375,6.25,-3.125,0
2930,-15,7.25,-2.0625,0
2950,-17.8125,8.375,-1.1875,0
2970,-20.6875,9.4375,-0.3125,0
2990,-22.5625,9.75,0.1875,0
3010,-23.8125,10.125,0.3125,0
3030,-26.4375,11.5,1.375,0
3050,-27.0625,12.0625,1.8125,0
3070,-27.25,12.5625,2.375,0
3090,-26.25,13.3125,3.125,0
3110,-26.3125,13.8125,4.4375,0
3130,-25.4375,14.0625,5.6875,0
3150,-25,14,6.625,0
3170,-24.5,13.75,7.25,0
3190,-24.3125,13.6875,7.5625,0
3210,-23.25,13.375,7.4375,0
3230,-22.625,12.875,7.9375,0
3250,-22.4375,12.625,7.875,0
3270,-22.4375,11.75,7.625,0
3290,-21.8125,11.6875,7.5,0
3310,-22.0625,11.25,7.9375,0
3330,-22.375,11.125,7.625,0
3350,-21.5625,11.25,7.625,0
3370,-22.5,12.4375,8.625,0
3390,-23.4375,13.875,8.5,0
3410,-23.8125,14.5625,7.625,0
3430,-21.9375,14.5,7.0625,0
3450,-16.875,14.6875,5.5625,0
3470,-12.875,12.8125,5.6875,0
3490,-11.5625,12.8125,6.8125,0
3510,-9.9375,12.4375,6.75,0
3530,-13.25,11.0625,7.375,0
3550,-15.6875,10.75,6.625,0
3570,-20.125,9.625,7.625,0
3590,-18.6875,9.3125,8.125,0
3610,-16.6875,8.5,9,0
3630,-12.9375,7.1875,10.8125,0
3650,-15.75,6.4375,12.0625,0
3660,-15.3125,6,11.9375,0
3700,-15.5625,5.1875,11.8125,0
3700,-16.3125,5.0625,12.1875,0
3720,-17.625,5.75,11.1875,0
3740,-19.8125,5.4375,10,0
3770,-21.8125,8.125,7.9375,0
3790,-17.6875,9.5,6.3125,0
3840,-4.875,8.625,4.875,0
3900,-14.8125,2.8125,10.875,0
3980,-8.6875,1.125,7.125,0
4040,1.375,1.8125,-2.625,0
4060,3.1875,2,-2.8125,0
4080,4.125,2.25,-2.9375,0
4150,12.0625,-5.375,4.125,0
4180,19.0625,-7.6875,1.75,0
4220,43.25,-17.25,-5.75,0
4240,41.5,-17.5625,-6.1875,0
4260,38.8125,-17.5625,-6.5,0
4290,44,-21.0625,-8.4375,0
4310,45.875,-21.875,-9.25,0
4330,47.8125,-22.9375,-9.5625,0
4350,48.3125,-23.9375,-9.25,0
4370,48.5625,-23.75,-9.3125,0
4390,48.25,-23.75,-9.1875,0
4410,49.8125,-23.9375,-9.75,0
4430,51.1875,-23.9375,-10.3125,0
4450,52.5,-23.375,-10.375,0
4470,53.6875,-23,-10.625,0
4490,54.375,-23.375,-10.75,0
4510,55.75,-24.6875,-10.5625,0
4530,57.1875,-25.75,-10.5,0
4550,57.375,-26.5625,-9.6875,0
4570,57.0625,-27,-9,0
4590,56.8125,-27.3125,-8.375,0
4610,54.4375,-27.375,-7.625,0
4630,52.5625,-27.25,-6.8125,0
4650,51.625,-27.4375,-6.5625,0
4670,51.75,-27.875,-7.125,0
4690,52.125,-28.4375,-8.3125,0
4710,53.125,-29.25,-8.5,0
4730,53.625,-29.9375,-8.5625,0
4750,53.5,-30.375,-8.75,0
4770,52.75,-30.5625,-9.5625,0
4790,51.625,-30.6875,-10.1875,0
4810,50.25,-30.4375,-10.25,0
4830,49.0625,-30,-10.5625,0
4850,47.9375,-29.625,-10.375,0
4870,46.125,-28.875,-10.25,0
4890,43.3125,-27.8125,-8.5625,0
4910,39.6875,-26.0625,-7.9375,0
4930,33.8125,-24.0625,-7.5,0
4950,28.3125,-22.5625,-7.75,0
4970,25.4375,-22,-7.8125,0
4990,22.9375,-21.0625,-7.125,0
5010,21.9375,-20.9375,-7.5,0
5030,20.5625,-20.25,-8.4375,0
5050,16.25,-18.4375,-8.1875,0
5070,13.3125,-16.6875,-7.5,0
5090,12,-15.625,-7.625,0
5110,9.6875,-13.9375,-7.3125,0
5130,6.1875,-13.1875,-7.5625,0
5150,3.625,-12.5,-8.6875,0
5170,0.125,-11.8125,-8.875,0
5190,-2.4375,-11.1875,-8.8125,0
5210,-2.125,-10,-7.6875,0
5230,1.375,-8.5625,-8.25,0
5240,3.625,-7.3125,-8.875,0
5260,3.625,-5.125,-9.0625,0
5280,1.25,-2.875,-9.125,0
5300,-1,-1.75,-8.3125,0
5320,-1.6875,-0.5625,-8.3125,0
5340,-1.5625,0.1875,-7.3125,0
5360,-0.9375,0.5625,-7.625,0
5380,-1.1875,0.8125,-7.3125,0
5400,-2.25,1.625,-7.5625,0
5420,-4.1875,3,-6.9375,0
5440,-7,4.3125,-5.4375,0
5460,-10.5625,5.9375,-3.6875,0
5480,-14.5625,7.1875,-1.375,0
5510,-26.0625,11.5,3.9375,0
5540,-34.5,15.8125,5.6875,0
5570,-41.9375,18.875,7.8125,0
5590,-40.875,17.9375,8.5,0
5610,-36.8125,15.5625,8.75,0
5630,-34.3125,14.75,8.5,0
5650,-32.5625,14.4375,8.1875,0
5670,-31.6875,14.75,7.75,0
5690,-32.125,14.9375,7.375,0
5710,-33.375,15.5625,7.75,0
5730,-35.625,16.625,9.25,0
5750,-39.3125,18.3125,10.9375,0
5770,-42.8125,19.875,12.5,0
5790,-46,20.8125,13.6875,0
5810,-48.4375,20.75,14.6875,0
5830,-50.125,20.375,15.25,0
5850,-51.25,20.0625,15.3125,0
5870,-50.9375,19.25,15.5,0
5890,-49.375,18.125,15.75,0
5910,-46.8125,17.4375,15.8125,0
5930,-43.5,16.875,16.75,0
5950,-40.9375,16.625,17.3125,0
5970,-38.9375,16.9375,17.8125,0
5990,-37.9375,17.125,18.375,0
6010,-36.6875,17.375,18.3125,0
6030,-35.375,18,17.75,0
6050,-34.125,18.3125,17.5,0
6070,-33.5625,18.8125,17.5,0
6090,-32.75,18.375,16.625,0
6110,-31.6875,18.1875,16.375,0
6130,-31.25,17.3125,15.1875,0
6150,-30.75,16.625,13.125,0
6170,-30.625,16.375,11.375,0
6190,-32,15.6875,9.875,0
6210,-32.8125,15.9375,8.375,0
6230,-33.5625,14.6875,6.5,0
6250,-33.3125,14.625,4.625,0
6270,-34.625,15.375,1.9375,0
6290,-39.625,17.4375,0.8125,0
6310,-43.75,18.625,-0.4375,0
6330,-44.6875,19.625,-1,0
6350,-45.625,21.125,1.875,0
6370,-44.8125,21.9375,4.875,0
6390,-41.625,22.5625,7.125,0
6410,-35.4375,22.5625,8.25,0
6430,-29.9375,21.3125,8.3125,0
6450,-26.3125,19.6875,9.0625,0
6470,-25.8125,17.1875,9.4375,0
6490,-21.9375,14.625,8.5625,0
6510,-19.0625,12.9375,9.6875,0
6530,-19.0625,11.125,10.25,0
6550,-17.3125,10.125,11.5625,0
6570,-12.6875,6.8125,11.9375,0
6590,-7.125,4.4375,10.625,0
6610,-5.8125,3.8125,12.5,0
6630,-7.5,3.4375,11.625,0
6650,-8.6875,2.5625,13,0
6670,-10.0625,0.5,15.3125,0
6690,-10.375,0.3125,14.75,0
6710,-10.125,-0.0625,12.125,0
6730,-12.3125,1.125,12.375,0
6750,-13.5625,0.6875,12.5,0
6770,-14.1875,0,11.6875,0
6790,-13.625,0.0625,9.875,0
6810,-10.875,-0.125,7.0625,0
6830,-5.5625,-1.0625,5.1875,0
6850,2.4375,-1.9375,0.5,0
6870,9.75,-1.9375,-2,0
6890,12.8125,-2.0625,-4,0
6900,13.75,-1.8125,-5.9375,0
6920,14.5625,-1.8125,-6.8125,0
6930,17.25,-2.625,-7.25,0
6940,19.9375,-3.875,-7.5625,0
6960,22.625,-5.125,-8.25,0
6990,26.1875,-8.3125,-9.375,0
7010,27.8125,-9.625,-9.625,0
7020,29,-10.4375,-9,0
7030,29.6875,-11.4375,-8.5,0
7070,30.0625,-13.9375,-6.75,0
7100,31.125,-15.75,-7.625,0
7120,28.6875,-13.6875,-6.5625,0
7140,27.3125,-13.125,-6.25,0
7160,26.1875,-12.75,-6.4375,0
7180,24.75,-12.3125,-6.625,0
7200,22.75,-11.625,-6.5625,0
7220,21.125,-10.8125,-5.625,0
7240,20.125,-9.9375,-5.6875,0
7260,20,-9.625,-6.375,0
7280,20.5,-9.75,-6.9375,0
7300,20.8125,-10.3125,-6.75,0
7320,20.375,-9.6875,-5.6875,0
7340,19.3125,-8.75,-4.5625,0
7360,17.875,-7.4375,-3.625,0
7380,16.5,-6.5,-2.6875,0
7400,15.875,-5.4375,-2.0625,0
7420,15.8125,-5.5625,-1.625,0
7440,15.5625,-5.8125,-0.8125,0
7460,13.9375,-5.875,0.9375,0
7480,12.25,-5.375,0.875,0
7500,10.75,-5.25,1.125,0
7520,9.5625,-4.75,1.5,0
7540,8.5625,-4.1875,1.3125,0
7560,7.8125,-3.875,1,0
7580,6.9375,-3.3125,1.0625,0
7600,5.875,-2.875,0.875,0
7620,4.6875,-2.1875,0.8125,0
7640,3.875,-1.6875,0.6875,0
7660,3.0625,-1.3125,0.875,0
7680,2.5,-1.125,0.8125,0
7700,2.3125,-0.875,0.5625,0
7720,1.25,-0.6875,0.625,0
7740,1.0625,-0.125,0.5,0
7760,0.625,0.125,0.25,0
7780,0.25,0.25,-0.125,0
7800,0.1875,0.1875,0,0
7820,0.6875,0.0625,-0.125,0
7840,1.3125,-0.25,-0.25,0
7860,3.625,-1.75,0.4375,0
7880,4.9375,-1.4375,2.25,0
7900,5.8125,0.0625,0.9375,0
7920,2.6875,-0.6875,0.125,0
7940,0.75,-0.375,-0.25,0
7960,-0.25,0.0625,0.5,0
7980,-0.625,-0.125,1,0
8000,-0.75,-0.5,1.375,0
8020,-1.1875,-1.0625,1.3125,0
8040,-1.375,-1.3125,1,0
8060,-1.5625,-1.0625,0.75,0
8080,-0.9375,-0.875,0.6875,0
8100,0.125,-0.9375,0.75,0
8120,0.5625,-0.4375,0.875,0
8140,0.375,-0.5,1.4375,0
8160,0.5,-0.875,1.625,0
8180,1.3125,-0.8125,1.4375,0
8200,1.4375,-1.125,1.5625,0
8220,1.625,-1.25,1.25,0
8240,1.375,-1.3125,1.3125,0
8260,1.125,-1.3125,1.5625,0
8280,1,-1.1875,1.3125,0
8300,1.0625,-0.9375,0.9375,0
8320,1.3125,-0.9375,0.6875,0
8340,2.0625,-1.0625,0,0
8360,2.4375,-1.5,-0.1875,0
8380,3.3125,-1.75,-0.5,0
8400,3.9375,-1.875,-0.625,0
8420,4.125,-1.875,-0.9375,0
8440,4.25,-1.875,-0.875,0
8460,4.25,-1.8125,-0.8125,0
8480,3.8125,-1.5,-0.625,0
8500,3.1875,-1.4375,-0.1875,0
8520,2,-1.375,-0.4375,0
8540,1.8125,-1.0625,-0.625,0
8560,2,-1.0625,-1.1875,0
8580,2.5,-0.9375,-1.625,0
8600,2.8125,-1.3125,-1.6875,0
8620,2.8125,-1.5625,-2.125,0
8640,2.375,-1.625,-2.125,0
8660,2.5,-1.1875,-2.375,0
8680,2.8125,-1.25,-2.125,0
8700,3.375,-1.125,-2,0
8720,3.625,-1.4375,-2,0
8740,3.5625,-1.75,-1.8125,0
8760,3.25,-1.5,-1.5,0
8780,2.6875,-1.3125,-1.125,0
8800,2.375,-1.125,-1.25,0
8820,2.3125,-1.0625,-1.0625,0
8840,2.5,-1.125,-1.0625,0
8860,2.875,-1.1875,-1.1875,0
8880,2.6875,-1.0625,-1.3125,0
8900,2.0625,-0.9375,-1.25,0
8920,1.625,-0.875,-1.25,0
8940,1.125,-0.375,-1.0625,0
8960,0.375,-0.125,-0.9375,0
8980,-0.25,0.0625,-0.5,0
9000,-0.25,-0.0625,-0.1875,0
9020,0.4375,-0.4375,-0.1875,0
9040,0.75,-0.6875,-0.5,0
9060,0.6875,-0.5625,-0.75,0
9080,-0.4375,-0.5625,-1,0
9100,-1.0625,-0.125,-1.5,0
9120,-1,0.0625,-1.9375,0
9140,-0.375,0.25,-2.125,0
9160,0.8125,0.1875,-2.1875,0
9180,1,-0.0625,-2,0
9200,0.4375,-0.0625,-1.875,0
9220,-0.1875,0.1875,-1.5,0
9240,-0.4375,0.1875,-1.25,0
9260,-0.125,0,-1,0
9280,-0.0625,0,-0.8125,0
9300,-0.3125,0,-0.75,0
9320,-0.4375,0,-0.875,0
9340,-0.4375,0.0625,-0.875,0
9360,-0.1875,0,-0.875,0
9380,0.25,0,-0.625,0
9400,0.75,-0.25,-0.5625,0
9420,0.75,-0.25,-0.4375,0
9440,0.8125,-0.25,-0.4375,0
9460,0.75,-0.375,-0.375,0
9480,1.0625,-0.4375,-0.25,0
9500,1.125,-0.3125,-0.4375,0
9520,1,-0.3125,-0.5,0
9540,1.125,-0.1875,-0.5,0
9560,1.6875,-0.4375,-0.6875,0
9580,1.9375,-0.875,-0.6875,0
9600,2.625,-1.375,-0.125,0
9620,3,-1.3125,-0.25,0
9640,2.4375,-1.4375,-0.0625,0
9660,1.0625,-0.8125,0.1875,0
9680,0.375,-0.5,0.1875,0
9700,0.4375,-0.3125,0,0
9720,0.4375,-0.0625,0.0625,0
9740,0.625,-0.0625,0.375,0
9760,0.1875,-0.3125,0.5,0
9780,-0.0625,-0.3125,0.4375,0
9800,-0.1875,-0.25,0.4375,0
9820,0.3125,-0.3125,-0.0625,0
9840,0.4375,-0.1875,-0.3125,0
9860,0.625,0,-0.5,0
9880,0.125,-0.125,-0.5,0
9900,-0.0625,-0.1875,-0.5,0
9920,0.1875,-0.125,-0.5,0
9940,0.5,-0.1875,-0.5,0
9960,0.5625,-0.125,-0.5,0
9980,0.5625,-0.1875,-0.5,0
9990,0.625,-0.1875,-0.5,0
10010,0.5,-0.4375,-0.3125,0
10030,0.4375,-0.25,-0.5,0
10050,0.1875,-0.375,-0.4375,0
10070,-0.0625,-0.125,-0.5,0
10090,-0.3125,-0.0625,-0.4375,0
10110,-0.4375,-0.1875,-0.3125,0
10130,0.1875,-0.25,-0.25,0
10150,0.9375,-0.5625,-0.375,0
10170,2.1875,-1.1875,-0.4375,0
10190,2.6875,-1.75,-0.25,0
10210,2.1875,-1.1875,-0.125,0
10230,1,-0.75,0.625,0
10250,0.125,-0.375,0.75,0
10270,0.25,-0.1875,0.4375,0
10290,0.4375,0,0.375,0
10310,1.125,-0.1875,0.375,0
10330,1.6875,-0.5625,0.125,0
10350,1.9375,-1,-0.3125,0
10370,2,-1.375,-0.375,0
10390,2.0625,-1.0625,-0.4375,0
10410,1.6875,-0.9375,-0.0625,0
10430,1.75,-0.75,-0.375,0
10450,0.875,-0.75,0,0
10470,0.3125,-0.5,-0.125,0
10490,-0.3125,-0.5,0,0
10510,-0.8125,-0.1875,0.625,0
10530,-0.9375,-0.1875,0.5,0
10550,-1.0625,-0.25,0.375,0
10570,-1.125,-0.1875,0.0625,0
10590,-1,-0.375,-0.125,0
10610,-0.75,-0.25,-0.1875,0
10630,-0.625,-0.3125,-0.1875,0
10650,-1.25,-0.25,-0.3125,0
10670,-1.75,0.25,-0.125,0
10690,-1.625,0.125,0.125,0
10710,-1,-0.0625,0.6875,0
10730,-0.4375,-0.125,0.625,0
10750,0.1875,-0.1875,1,0
10770,0.8125,-0.5,0.8125,0
10790,0.625,-0.5,0.8125,0
10810,0.0625,-0.5,1.1875,0
10830,-0.3125,-0.3125,1.0625,0
10850,-0.1875,-0.125,0.9375,0
10870,-0.0625,-0.125,0.5,0
10890,0.4375,-0.0625,0.625,0
10910,0.4375,-0.4375,1.125,0
10930,0.4375,-0.5,0.5,0
10950,0.4375,-0.5625,0.1875,0
10970,0.6875,-0.4375,-0.0625,0
10990,1,-0.5,-0.25,0
11010,1,-0.625,0,0
11030,1,-0.375,0.125,0
11050,0.75,-0.5,0.25,0
11070,0.875,-0.5625,0.1875,0
11090,1,-0.5625,0.0625,0
11110,1.375,-0.5625,-0.125,0
11130,1.5,-0.625,-0.4375,0
11150,1.875,-0.6875,-0.5625,0
11170,1.875,-0.6875,-0.625,0
11190,1.9375,-1.0625,-0.75,0
11210,1.5,-0.875,-0.5625,0
11230,0.6875,-0.5,-0.6875,0
11250,0.25,-0.5,-0.875,0
11270,0.375,-0.375,-1.0625,0
11290,1.125,-0.5,-1.25,0
11310,1.5625,-0.6875,-1.4375,0
11330,1.875,-0.8125,-1.1875,0
11350,1.4375,-0.75,-1,0
11370,1.0625,-0.5,-0.5625,0
11390,0.25,-0.3125,0,0
11410,-0.8125,-0.0625,0.375,0
11430,-1.0625,0.0625,-0.0625,0
11450,-0.75,0.1875,-0.375,0
11470,0.1875,-0.0625,-0.25,0
11490,0.625,-0.3125,-0.3125,0
11510,0.375,-0.4375,-0.5,0
11530,0.25,-0.5,-0.8125,0
11550,0.875,-0.5625,-1.1875,0
11570,1.25,-0.5625,-1.5,0
11590,1.4375,-0.5625,-1.8125,0
11610,1.25,-0.5,-1.875,0
11630,1.5625,-0.4375,-2,0
11650,2.1875,-1,-2,0
11670,2.4375,-0.9375,-1.5625,0
11690,2.375,-0.6875,-0.9375,0
11710,1.6875,-0.5,-0.625,0
11730,0.9375,-0.3125,-0.5,0
11750,0.0625,0.0625,-0.5,0
11770,-0.4375,0.125,-0.4375,0
11790,-0.25,0.1875,-0.4375,0
11810,-0.125,0.125,-0.6875,0
11830,-0.6875,0.25,-0.6875,0
11850,-1.0625,0.25,-0.6875,0
11870,-1.0625,0.125,-0.6875,0
11890,-0.8125,-0.0625,-0.8125,0
11910,-0.375,-0.375,-0.5,0
11930,-0.3125,-0.25,-0.625,0
11950,-1.125,0.125,-0.5,0
11970,-2.4375,0.5,-0.0625,0
11990,-3.5625,0.75,0.3125,0
12010,-3.9375,0.9375,0.0625,0
12030,-3.8125,1.0625,-0.0625,0
12050,-3,1,-0.0625,0
12070,-2.5625,0.8125,0,0
12090,-2.8125,0.8125,-0.25,0
12110,-2.9375,0.9375,-0.4375,0
12130,-2.6875,1,-0.5625,0
12150,-2.125,0.9375,-0.5625,0
12170,-1.875,0.875,-0.75,0
12190,-1.9375,0.75,-0.75,0
12210,-1.75,0.6875,-0.875,0
12230,-1.375,0.5,-1.1875,0
12250,-0.6875,0.25,-1.3125,0
12270,-0.125,-0.0625,-1.4375,0
12290,0.125,-0.25,-1.5625,0
12310,0,-0.1875,-1.6875,0
12330,-0.375,0,-1.9375,0
12350,-0.5,-0.0625,-2.0625,0
12370,-0.9375,0.0625,-2.125,0
12390,-1.3125,-0.1875,-2,0
12410,-0.875,-0.5,-1.8125,0
12430,0.5,-0.625,-1.1875,0
12450,1.8125,-1.25,-0.5,0
12470,1.6875,-1.1875,0.25,0
12490,1.25,-1,1.1875,0
12510,0.25,-0.6875,1.6875,0
12530,0.0625,0,1.875,0
12550,0.9375,-0.375,2.0625,0
12570,0.6875,-0.8125,2.375,0
12590,-0.0625,-0.4375,2.5625,0
12610,-1.125,0,2.75,0
12630,-2.0625,0.4375,3.3125,0
12650,-3.4375,0.875,4.125,0
12670,-4.75,1.375,4.375,0
12690,-6.1875,2.1875,4.25,0
12710,-7.625,2.4375,3.75,0
12730,-9.0625,1.0625,2.75,0
12750,-11.6875,-2.25,2.8125,0
12770,-11.6875,-11.1875,4.3125,0
12790,-11.625,-13.9375,4.875,0
12810,-19.8125,-15.5625,-0.125,0
12830,-42.8125,-19.3125,-13.5,0
12850,-69.5,-38.375,-24.375,0
12870,-92.375,-57.625,-29.125,0
12890,-105.188,-75.625,-32.5,0
12910,-79.8125,-97.6875,-36.6875,0
12930,-10.8125,-127.188,-32.3125,0
12950,56.8125,-136.812,-29.1875,0
12970,56.25,-133.125,-39.875,0
12990,34.9375,-124.75,-28.75,0
13010,13.6875,-114.812,-23,0
13030,20.5625,-110.562,-10.875,0
13050,6.25,-104.312,-7.5,0
13070,4.5,-98.875,0.625,0
13090,1,-98.9375,8.6875,0
13110,-7.5625,-76.625,27.3125,0
13130,-21.5,-54.6875,41.875,0
13150,-16.625,-47.8125,28.125,0
13160,-0.875,-52.1875,26.5625,0
13180,11.5,-48.6875,53.625,0
13200,8.25,-39.125,56.4375,0
13220,-1.1875,-30.625,37.4375,0
13240,-19.3125,-27.125,6.1875,0
13260,-14.5,-32.6875,26.75,0
13280,16.5625,-42.625,24.75,0
13300,24.75,-34.9375,16.75,0
13320,20.3125,-21.4375,2.3125,0
13340,0.1875,-20.8125,6.875,0
13360,-10.9375,-19.3125,6.1875,0
13380,-5.5625,-26.4375,-2.5,0
13400,-6.6875,-25.875,-8.75,0
13420,-4.875,-23.1875,-8.4375,0
13440,-6.8125,-16.875,-9.3125,0
13460,-7.8125,-10.25,-14.125,0
13480,-7,-8.5,-15.625,0
13500,-0.8125,-9.75,-17.125,0
13520,-6.1875,-13.75,-17.5,0
13550,-14.875,-10.875,-21.4375,0
13570,-18.0625,-10.4375,-23.6875,0
13590,-12.875,-14.5625,-26.875,0
13610,-11.25,-14.4375,-33.625,0
13630,-8.1875,-9.6875,-38.4375,0
13650,-0.8125,-8.8125,-37.4375,0
13670,-3.5,-10.125,-35.75,0
13690,-4.125,-13.0625,-38.125,0
13710,-4.5,-11.9375,-47.875,0
13730,-8.1875,-5.25,-62.375,0
13750,-2.125,2.0625,-74.4375,0
13770,2.125,6.8125,-78.25,0
13790,20.25,0.5,-79.8125,0
13810,20.3125,5,-80.5625,0
13830,4.875,19.4375,-89.875,0
13850,-9,30.1875,-88.375,0
13870,-16.875,40.0625,-83,0
13890,-28.3125,41.75,-78.25,0
13910,-23.625,32.8125,-73.3125,0
13930,-26.6875,33.25,-59.125,0
13950,-29.0625,42.1875,-50.75,0
13970,-23.0625,42.75,-54.8125,0
13980,-15.6875,32.875,-47.125,0
14000,-21.3125,24.8125,-25.0625,0
14010,-26.5625,36.5625,-40.1875,0
14030,-30.25,33.375,-28.875,0
14040,-16.4375,30.125,-2.625,0
14070,-2.5625,32.0625,11.4375,0
14090,-4.4375,35.6875,17.75,0
14120,12.1875,29.75,11.4375,0
14140,7.3125,29.0625,21.125,0
14140,8.9375,27,16,0
14140,15.5625,24,5.75,0
14150,34.875,12.4375,3.375,0
14150,46.3125,6.9375,13.625,0
14170,44.8125,6.5625,20.375,0
14170,31.125,10.1875,18.125,0
14190,22.1875,17.0625,13.5625,0
14210,17.125,17.75,6.875,0
14230,27.5625,17.875,2.4375,0
14250,40.9375,18.0625,0.4375,0
14270,46,22.75,-0.6875,0
14290,37.5,26.6875,4.1875,0
14310,24.875,28.1875,7.8125,0
14330,13.8125,25.375,10.8125,0
14350,10.5625,20.625,11.875,0
14370,9.875,17.25,9.9375,0
14390,11.25,18,10.5,0
14410,12.1875,21.375,11.8125,0
14430,13.1875,28.75,14.8125,0
14430,17.25,54.9375,22.125,0
14450,14,71.5625,27.4375,0
14480,-18.875,90.3125,22.375,0
14500,-27.25,88.75,15.3125,0
14520,-29.3125,101.312,16.125,0
14540,-16.5625,111.812,23,0
14580,70.0625,53.6875,-9.6875,0
14620,-31.0625,20.4375,29.5625,0
14640,-25.25,6,26.625,0
14670,-34.25,-14.8125,6.75,0
14690,-46.5625,-12.5625,13.9375,0
14720,-36.5625,-6.3125,14,0
14720,-30.3125,-6.8125,12.1875,0
14740,-17.9375,-9.125,6.6875,0
14760,-9.125,-7.3125,7.5625,0
14780,-7.0625,-5.1875,6.5,0
14800,-1.6875,-0.8125,5.5,0
14830,1.1875,2.9375,3.375,0
14850,1,1.4375,0.1875,0
14870,0.3125,-0.625,-2.875,0
14890,-2.125,0.0625,-4.625,0
14910,-3.5,-0.25,-4.5625,0
14930,-2.75,-0.0625,-2.375,0
14950,-2.5625,1.125,-0.0625,0
14970,-2.0625,2.3125,0.125,0
14990,-4.125,3.125,0.25,0
15010,-4.875,4.25,0.4375,0
15030,-4.5,5.1875,-0.375,0
15050,-4.75,5.875,0.3125,0
15070,-4.5,5.5625,0.8125,0
15090,-4.375,4.375,1.0625,0
15110,-3.5,4.3125,0.9375,0
15130,-4,4.6875,1.3125,0
15150,-4.125,4.75,1.8125,0
15170,-5.3125,5,2.3125,0
15190,-5.5,4.625,2.3125,0
15210,-6.1875,4,2.25,0
15230,-4.9375,3.1875,2.0625,0
15250,-3.6875,2.9375,2.375,0
15270,-2.8125,2.6875,3,0
15290,-4,2.75,3.5,0
15310,-5.4375,2.8125,3.5,0
15330,-6.4375,1.875,3.5,0
15350,-6.3125,1.375,3.1875,0
15370,-3.9375,1.875,3.0625,0
15390,-3.0625,1.5,3.25,0
15410,-2.75,1.3125,3.3125,0
15430,-1.875,0.4375,2.1875,0
15450,-0.8125,-1.0625,-0.625,0
15470,0.3125,-2.6875,-2.5625,0
15490,0.875,-3.5,-3.625,0
15510,1.9375,-3.875,-4.6875,0
15530,4.3125,-5.375,-6.4375,0
15550,6.9375,-6.5625,-7.75,0
15570,8.9375,-8.875,-6.4375,0
15590,13.5,-12.625,-2.75,0
15610,18.375,-14.8125,1.375,0
15630,15.5,-16.6875,9.125,0
15650,6.625,-18.25,17.125,0
15660,-9.625,-19.75,11.5,0
15680,-16.125,-27.3125,9.1875,0
15700,-15.875,-41.75,4.0625,0
15720,1.5625,-56.125,1.875,0
15740,21.125,-69.4375,0.1875,0
15760,15.5,-77.5,-4.125,0
15780,-23.4375,-84.4375,-4.3125,0
15800,-30,-92.375,-13.75,0
15820,-40.6875,-106,-21.9375,0
15840,-45.8125,-109.5,-17.625,0
15860,-42.5,-111.625,-21.125,0
15880,-39.1875,-112.562,-26.5,0
15900,-36.1875,-113.125,-26.875,0
15920,-41,-114.375,-27.6875,0
15940,-52.0625,-110.875,-30.75,0
15960,-62.5,-100.625,-33.25,0
15980,-66.5625,-89.4375,-37.375,0
16000,-55.4375,-90.75,-34.9375,0
16020,-36.625,-91.5625,-30.25,0
16040,-15.75,-35.375,-29,0
16070,-5,-19.1875,-16.125,0
16090,-3.375,-18.0625,-10.0625,0
16110,-7.5625,-13.0625,-8.125,0
16130,-2.3125,-7.4375,-9.5,0
16150,5.4375,-3.375,-11.875,0
16170,-4.0625,-3.5625,-8.8125,0
16190,-14.125,-1.9375,-7.4375,0
16220,-12.5625,-0.375,-15.3125,0
16230,-11.625,1.5,-14.5625,0
16250,-7.875,2.8125,-12.5625,0
16270,-5.8125,-3.875,-7.375,0
16290,-15.25,-5.0625,-4.0625,0
16310,-16.5,-2.1875,-6.3125,0
16330,-9.4375,-4.3125,-4.8125,0
16350,-7.5,-6,-2.5,0
16370,-1.75,-3.5625,-1.0625,0
16390,1.8125,-4.5,1.375,0
16410,-2.4375,-5.25,2.375,0
16430,-2.875,-2.125,0.4375,0
16450,0.1875,2.0625,-0.6875,0
16470,5.625,4.5,0.1875,0
16490,4.375,5.1875,-0.0625,0
16510,6.4375,7.8125,-3.5,0
16530,11.8125,10.6875,-7.5625,0
16550,25.75,13.875,-13.5625,0
16570,47.125,16.8125,-17.75,0
16590,47,19.625,-12.9375,0
16610,36.0625,29.875,-5.0625,0
16630,19.0625,46.625,0,0
16650,-4.0625,58.25,8.8125,0
16670,-19.8125,71.5,19.6875,0
16690,-30.125,85.875,30.0625,0
16710,-27.0625,100,46.8125,0
16710,-22.625,109.688,63.75,0
16730,-16.5625,122.438,75.625,0
16750,-3.4375,142.188,81.1875,0
16770,24.9375,160.312,79.8125,0
16780,38.25,157.188,75.625,0
16800,33.625,139.562,59.9375,0
16820,33.625,129.438,46.6875,0
16840,39.9375,126.125,38.125,0
16860,49.4375,116.375,18.9375,0
16880,67.4375,113.875,3.875,0
16900,85.625,116.25,-0.25,0
16920,100.062,117.875,2.25,0
16940,94.8125,106.562,-16.0625,0
16960,102.312,58.4375,-56.25,0
16980,133.125,-2.75,-63.8125,0
17000,95.25,-16.5,-56.25,0
17010,2.1875,-20.125,0.1875,0
17030,-11.25,-16.125,12.5,0
17050,-27.5625,-7.125,23.875,0
17070,-48.9375,-5.9375,22.6875,0
17090,-65.4375,-16.5625,11.1875,0
17110,-51.1875,-37.375,4.75,0
17130,-26.1875,-42.375,7.875,0
17150,-8.4375,-34.6875,19.6875,0
17190,-6.625,-18.6875,30.625,0
17210,-25.75,-17.125,29.5,0
17230,-27.8125,-16.3125,23,0
17250,-16.0625,-14.75,15.8125,0
17270,-2.75,-15.8125,11.4375,0
17290,7.0625,-16,9.4375,0
17310,11.0625,-13.8125,7.75,0
17330,11.4375,-10.0625,4.625,0
17350,8.3125,-5.75,0.3125,0
17370,7.125,-4.3125,-4.25,0
17390,13.125,-5.8125,-11,0
17410,18.3125,-7.3125,-11.875,0
17430,19.8125,-6.5,-10.375,0
17450,18.3125,-3,-8.875,0
17460,13.8125,-1.3125,-7.5625,0
17480,0.5625,2.5625,-1.6875,0
17500,-3,2.5625,2.125,0
17520,-4.4375,2.125,4.375,0
17540,-4.9375,0.8125,6.375,0
17560,-5.625,0.125,6.9375,0
17580,-6.5,-0.1875,6.875,0
17600,-6.75,0.3125,7.1875,0
17620,-6.125,0,8,0
17640,-5.875,0.25,7.875,0
17660,-5.8125,0,6.875,0
17680,-6.25,-0.0625,6.125,0
17690,-4.75,0.125,5.9375,0
17710,-3.6875,-0.5,6,0
17730,-2.5625,-0.875,5.8125,0
17750,-3.375,0.3125,4.5,0
17770,-4.5625,1.1875,2.1875,0
17790,-5.125,2.625,0.9375,0
17810,-4.75,3.5625,0.1875,0
17830,-3.3125,4,0.25,0
17850,-2.375,4.125,0.6875,0
17870,-1.75,4.3125,1.6875,0
17890,-0.75,3.75,1.25,0
17910,-1.25,2.75,1.8125,0
17930,-2.5,2.375,4.5,0
17950,-2.5,3.75,5.5,0
17970,-4.5,3.5,4.9375,0
17990,-6.4375,2.9375,4.3125,0
18010,-6.25,3.875,3.875,0
18030,-4.5,4.5,5.0625,0
18050,-2.5625,5.125,5.9375,0
18070,-1.5625,4.875,5.75,0
18090,-2.625,5.25,6.1875,0
18110,-4.5625,5.5625,6.625,0
18130,-7.1875,5.875,7.1875,0
18150,-9.375,6.375,7.75,0
18170,-9.0625,7.1875,8.75,0
18190,-8.875,7.9375,10.4375,0
18210,-7.5625,7.5625,10.375,0
18230,-7.5,6.125,10.4375,0
18250,-7,4.375,9.0625,0
18270,-4.875,2.75,6.0625,0
18290,-7,5,4.5,0
18310,-10.5625,3.25,3.6875,0
18330,-16.6875,5.0625,3.3125,0
18350,-16.9375,5.9375,2.4375,0
18370,-11.25,5,2.125,0
18390,-10.6875,7,2.8125,0
18410,-14.0625,6.0625,4.6875,0
18430,-13.8125,2.625,4.9375,0
18450,-11.625,2.6875,4.25,0
18470,-9.375,4.1875,5.375,0
18490,-7.9375,6.75,7.1875,0
18510,-7,8.4375,7.4375,0
18530,-6.875,6.125,7.6875,0
18550,-6.9375,4.6875,7.625,0
18570,-4.875,4.5,8.0625,0
18590,0.9375,4.375,8.6875,0
18600,2.875,4.1875,10.75,0
18620,0.75,2.0625,12.0625,0
18640,4.125,-5.125,10.25,0
18660,10.875,-10.3125,5.4375,0
18680,11.4375,-7.5,5.9375,0
18700,17.5625,-10.0625,2.8125,0
18720,25.75,-14.625,-2.8125,0
18740,30.25,-20,-9.6875,0
18760,32.625,-22.125,-12.875,0
18780,22.875,-18.0625,-15.625,0
18800,20.625,-18.5625,-14.4375,0
18820,29.6875,-21.4375,-18.6875,0
18840,27.625,-18.625,-23.9375,0
18860,33.875,-22.0625,-21.875,0
18880,33.875,-34.125,-10.25,0
18900,16.3125,-49.0625,2.625,0
18920,-22.0625,-52.375,8.625,0
18940,-50.0625,-62,5.75,0
18960,-50.375,-81.4375,7.0625,0
18980,-51.5625,-99,-4.25,0
19000,-62.0625,-105.375,-5.8125,0
19010,-85.1875,-104.188,-10.4375,0
19030,-105.188,-103.812,-17.25,0
19050,-101.188,-104.875,-23.0625,0
19070,-79.375,-105.938,-23.875,0
19090,-61.1875,-95.75,-25.875,0
19110,-67.3125,-78.0625,-39.75,0
19130,-63.75,-66.625,-51.1875,0
19150,-56.0625,-65.875,-55.375,0
19170,-40.0625,-68.625,-54.375,0
19190,-24.5,-68.25,-51.875,0
19210,-13.8125,-66,-48.3125,0
19210,-7.625,-38.875,-32.375,0
19230,2.5,-31.375,-27.875,0
19250,4.1875,-28,-22.6875,0
19270,3.3125,-19.9375,-15.75,0
19290,1.1875,-10.75,-10.625,0
19310,2.0625,-8.875,-8.3125,0
19330,-5.75,-3.75,-11.8125,0
19350,-14.6875,-1.25,-10.5625,0
19370,-10.5625,-2.0625,-10.5625,0
19390,2.6875,-7.5625,-7.5,0
19410,7.375,-8.25,-6,0
19430,6.1875,-4.3125,-5.25,0
19450,13.25,-4.125,-4.5625,0
19470,1.8125,-3.3125,-2.5,0
19490,-4.6875,0.4375,2,0
19510,0.875,3.5,5.625,0
19530,6.75,5.25,7.875,0
19550,12.1875,5.5,7,0
19570,7.125,7.875,2.6875,0
19590,6.9375,8.625,-3,0
19610,1.875,8.75,-4.75,0
19630,2.25,9.375,-4.125,0
19660,-0.1875,9.625,-5.5,0
19690,-1.5625,2.5625,-0.375,0
19710,4.625,1.1875,-0.9375,0
19730,6.0625,0.1875,-3.1875,0
19750,-2.75,0.875,-3.125,0
19770,-1.625,-0.375,-3.375,0
19790,4.3125,-5.25,-1.3125,2000
19810,2.8125,1.125,-3.125,0
19830,-0.3125,1.3125,-5.0625,0
19850,2.25,-0.0625,-7.375,0
19870,-2.6875,0.3125,-2.125,0
19890,-2.875,-2.5,3.25,0
19910,-4.625,-6.125,2.375,0
19930,2.625,-10.1875,-1.0625,0
19950,5,-8.75,-6,0
19970,5.5,-5.9375,-8.0625,0
19990,4.75,-8.875,-5.9375,0
20010,5.5625,-11.9375,-4.375,0
20030,7.5625,-12.4375,-7.9375,0
20050,10.125,-14.6875,-12.6875,0
20070,7.25,-18.75,-14.4375,0
20090,8.0625,-19.375,-13.5625,0
20110,10.8125,-20.1875,-12.1875,0
20130,7,-21.375,-10.625,0
20150,3.0625,-20.125,-7.9375,0
20170,5.3125,-15.8125,-9.375,0
20190,6.0625,-11.9375,-8.9375,0
20210,4.4375,-10.6875,-7.4375,0
20230,9.8125,-10.625,-6.6875,0
20250,10.8125,-10,-6.9375,0
20270,4.625,-8.4375,-6.9375,0
20290,1.8125,-7.1875,-6.4375,0
20310,8,-3.25,-10.8125,0
20330,16.25,-2.125,-16.5,0
20350,13,-6.5,-18.375,0
20370,6.75,-6.375,-16.1875,0
20390,10.125,-3.1875,-17.3125,0
20410,20.0625,0,-21.1875,0
20430,18.5625,2.25,-20.75,0
20450,14.5,5.375,-23.375,0
20470,8.5,9.625,-27.125,0
20490,8,10.375,-27.9375,0
20510,6.4375,12.375,-30.6875,0
20530,-0.0625,13.9375,-36.9375,0
20540,8.6875,28.6875,-49.3125,0
20580,-28.25,35.8125,-53.4375,0
20650,-24.875,33.125,-44.875,0
20670,-26.5,25.5625,-34.4375,0
20720,-27.25,37.4375,-5.4375,0
20740,-31.5625,39.8125,0.1875,0
20760,-18.125,34,-12.4375,0
20820,-5.375,19.25,-2.8125,0
20840,-3,12.875,-5.3125,0
20860,1.125,8.375,-6.125,0
20880,10.1875,5.875,-2.8125,0
20900,9.1875,6.25,4.0625,0
20920,3.75,5.875,8.6875,0
20940,0.625,2.25,10.6875,0
20960,6.6875,-6.5,10.8125,0
20980,10.8125,-6.25,14.0625,0
21000,4.25,-4,21.5625,0
21020,-7.125,-3.875,25.875,0
21040,-24.5,-1.5,26.1875,0
21060,-21.4375,-0.3125,26.5625,0
21080,-3.3125,2.375,25.8125,0
21100,6.0625,2.75,25,0
21120,1.625,0.3125,22.5,0
21170,25.4375,-23.4375,19.5625,0
21190,27,-25.8125,20.0625,0
21200,21.5625,-30.5,19.875,0
21220,16.75,-33.125,24.5,0
21240,19.9375,-37.3125,24.3125,0
21250,20.3125,-35.5,20.5625,0
21270,24.5,-36.6875,18,0
21290,20.25,-39.3125,16.8125,0
21310,25,-41.1875,19.8125,0
21330,37.25,-40.625,14.625,0
21350,47.1875,-43.5,8.25,0
21370,35.4375,-49.4375,8.8125,0
21390,24.9375,-51.5625,12.75,0
21410,18.875,-49.875,11.3125,0
21450,10.375,-61.125,23.875,0
21470,7.375,-61.625,20.8125,0
21490,-0.3125,-62.5625,24.5625,0
21520,2.1875,-59.75,21,0
21540,6.5,-59.9375,20.25,0
21560,1.3125,-56.75,21.625,0
21580,0.25,-53.75,17.0625,0
21600,-0.5,-50.6875,11.6875,0
21620,0.5625,-46.875,11,0
21640,3.4375,-43.875,7.5625,0
21660,12.6875,-41.6875,3.75,0
21680,8.3125,-40.9375,5.4375,0
21700,-0.8125,-34.125,5.75,0
21720,1.125,-28.5,0.25,0
21740,6.25,-27.125,-1.6875,0
21770,5,-22.6875,-6.6875,0
21790,0.5,-16.8125,-11.8125,0
21810,-0.3125,-15.0625,-14.0625,0
21830,0.8125,-12.9375,-15.0625,0
21850,2.625,-11.0625,-19.1875,0
21870,-5.4375,-7,-22.9375,0
21900,-14.75,19.5,-36.9375,0
21920,-12.625,22.625,-38.25,0
21940,-19.0625,25.5,-37.75,0
21960,-23.3125,31.8125,-38.625,0
21980,-25.9375,34.75,-40.9375,0
22000,-21.25,34.25,-42.5625,0
22020,-22.0625,34.875,-43.9375,0
22040,-26.375,35.6875,-42,0
22060,-25.5625,37.5,-41.8125,0
22080,-27.1875,37.5,-40,0
22100,-26.875,34.875,-39.1875,0
22120,-26.4375,30.25,-41.125,0
22140,-26.375,29.0625,-43.625,0
22160,-26.3125,26,-44.5,0
22180,-27.8125,22.875,-41.9375,0
22200,-27.5,21.4375,-38.3125,0
22220,-21.5,17.3125,-36.0625,0
22240,-20.3125,12.1875,-35.5,0
22260,-21.375,9.125,-34.3125,0
22280,-20.5625,6.875,-34.4375,0
22300,-19.125,6.375,-32.25,0
22320,-16.5625,4.5,-30.25,0
22340,-14.625,3.3125,-28.1875,0
22360,-11.9375,5,-27,0
22380,-12.9375,7,-24.125,0
22400,-17.1875,13.4375,-16.8125,0
22420,-18.5,16.875,-14.1875,0
22440,-16.25,18.3125,-18.1875,0
22460,-11.375,18.5625,-17.75,0
22480,-11.125,22.5,-11.9375,0
22500,-7.5,25.875,-6.9375,0
22520,-6.625,24.1875,-3.6875,0
22540,-10.0625,23,-1.5625,0
22560,-7.3125,24.9375,-6.375,0
22580,-3.6875,24.1875,-9.1875,0
22600,1,19.875,-4.125,0
22620,-1.25,16.5625,-0.0625,0
22640,-6.875,17.0625,-1.6875,0
22660,-4.3125,14.875,-5.75,0
22680,-7.1875,12.6875,-2.375,0
22720,-2.0625,12,4.6875,0
22740,-0.25,13.375,4.1875,0
22760,-4,14.8125,6.75,0
22780,-8.0625,16.625,9.875,0
22820,-11.1875,4.5625,25.5,0
22830,-20.25,-2.5,32.0625,0
22850,-21.625,-5.8125,34.375,0
22870,-16,-2.375,37.3125,0
22890,-9.3125,1.875,36.1875,0
22910,-4.5,0,35.0625,0
22930,-9.5,-0.3125,35.75,0
22950,-16,1.125,35.4375,0
22970,-9.25,0.125,36.0625,0
22990,-5.125,-3.0625,35.5625,0
23010,0.6875,-2.75,33.5,0
23030,-8.4375,-5.3125,33.125,0
23050,-17.9375,-11.5625,36.1875,0
23070,-20.9375,-18.0625,37.1875,0
23100,-10.875,-24.1875,31.625,0
23130,-10.1875,-24.875,27.1875,0
23150,1,-25.375,18.875,0
23160,-1.25,-22.3125,21.875,0
23180,-3.6875,-21.125,18.5,0
23220,0.5625,-22.0625,16.6875,0
23240,6,-24,17.4375,0
23260,-0.5,-24,15.75,0
23280,-3.5625,-22.25,12.4375,0
23300,-5.875,-28.5,11.6875,0
23320,-1.625,-33.6875,13.25,0
23340,5.4375,-37.625,10.625,0
23360,12.625,-43.25,4.625,0
23390,10.5625,-58.75,-5.875,0
23410,15.3125,-58.8125,-11.6875,0
23430,15.875,-59.625,-16,0
23450,9.25,-61.4375,-12.3125,0
23470,11.875,-59.5625,-13.625,0
23490,11.0625,-60.875,-19.5,0
23510,5.5,-38.0625,-26,0
23530,-0.0625,-30.5625,-25.5,0
23550,-3.5625,-24.875,-28.0625,0
23580,-2.3125,-11,-33.125,0
23600,-2.0625,-5.3125,-37,0
23610,-8.25,0.5625,-36.5,0
23630,-11.75,9.4375,-38.5,0
23640,-20.875,18.125,-42.1875,0
23660,-23.625,22.375,-44.9375,0
23680,-20.4375,24.9375,-50.6875,0
23690,-17.125,28.25,-52.9375,0
23710,-20,29.5,-54.4375,0
23730,-31.5,32.625,-52.25,0
23750,-38.8125,35.8125,-52.625,0
23770,-38,35.375,-53.8125,0
23790,-38.25,33.6875,-49.875,0
23810,-38.5625,34.6875,-45.6875,0
23830,-41.875,36.125,-40.6875,0
23850,-44.375,37.75,-36.125,0
23870,-42.875,41,-31.0625,0
23900,-37.1875,35.875,-23.75,0
23920,-41.625,30.3125,-22.9375,0
23940,-38.5,29.5,-24.75,0
23960,-35.8125,27.6875,-22.1875,0
23980,-30.3125,26.0625,-15.375,0
24000,-26.125,25.25,-13,0
24020,-25.625,26,-16.25,0
24040,-32,26.75,-13.75,0
24060,-29.1875,29.625,-7.25,0
24080,-25.25,32.25,-1.9375,0
24100,-19.4375,36,2,0
24120,-14.6875,37.5,3.875,0
24140,-19.8125,39.625,7.4375,0
24160,-20.9375,44.3125,13.0625,0
24180,-16.375,48.5,13.5625,0
24200,-7.375,46.5,15.9375,0
24220,-7.125,41.75,17.75,0
24240,-9.875,42.0625,18.1875,0
24260,-7.125,40.1875,15.375,0
24280,-8.0625,38.125,16.25,0
24300,-9.375,37.125,17.25,0
24320,-6.9375,32.8125,17.5625,0
24340,-7.9375,27.875,17.6875,0
24360,-7.25,24.9375,17.25,0
24380,0.375,22.0625,10.625,0
24400,-1.8125,18.5,11,0
24420,1.5,15.25,15.25,0
24440,-0.1875,10.375,15.8125,0
24460,-0.25,3.25,15.125,0
24490,3.75,-3,19.6875,0
24520,-4.75,-3.4375,20.875,0
24540,1.125,-2.375,21.875,0
24560,6.5,-3.1875,22.75,0
24580,4.6875,-4.1875,22.6875,0
24600,-0.4375,-2.0625,24.1875,0
24620,-3.8125,-4.75,28.25,0
24640,-5.375,-8.4375,27.6875,0
24660,-1,-7.75,25.75,0
24680,6.8125,-4.25,24.5625,0
24700,16,-3.625,20.5,0
24720,12.5,-7.5,20.75,0
24740,8.75,-12.375,23.375,0
24760,2.25,-12.3125,22.0625,0
24780,0.0625,-9.5,23.0625,0
24800,8.5625,-12.0625,22.4375,0
24820,14.6875,-15.625,25.5,0
24840,6.5625,-15.4375,27.625,0
24850,-1.625,-11.6875,26.875,0
24870,4.25,-7.5625,22.9375,0
24890,22.8125,-5.1875,23.75,0
24910,34.125,-3.8125,25.8125,0
24930,34.9375,-1.6875,25.625,0
24950,31,-2,22.5,0
24970,16.75,-7.5,20.1875,0
24990,7.25,-14.75,21.625,0
25010,6.3125,-19.25,22.5,0
25030,3.75,-24.75,23.3125,0
25050,-1.1875,-26.1875,24.8125,0
25070,-2.75,-29.5,20.9375,0
25090,-6.4375,-35.4375,21.8125,0
25110,-14.0625,-37.125,24.3125,0
25130,-19.25,-39.125,21.0625,0
25150,-13.125,-42.5625,16.4375,0
25170,-14.5625,-49.5,14.875,0
25190,-16.875,-52.0625,16.75,0
25210,-13.125,-53.9375,11.125,0
25230,-7.5625,-57.9375,3.125,0
25250,-7.375,-62.75,1.125,0
25270,-4.1875,-65.6875,0.125,0
25290,-5.875,-67.6875,-2.8125,0
25310,-4.3125,-67.75,-4.375,0
25330,-1.5625,-68.375,-8.6875,0
25350,0.75,-67,-10.5625,0
25370,-4.75,-64.5625,-10.9375,0
25390,0.1875,-60,-13.625,0
25410,10.375,-56.8125,-19.25,0
25430,12.5625,-54.1875,-20.375,0
25450,10.875,-49.4375,-18.125,0
25470,12.25,-42.625,-23.75,0
25490,4.5,-39,-35,0
25510,3.8125,-32.125,-36.375,0
25530,14.4375,-26.25,-35.875,0
25550,22.4375,-25.3125,-40.875,0
25570,12.375,-20.9375,-40.375,0
25590,6.125,-14.5625,-39.25,0
25610,0.5625,-12,-39.875,0
25630,-1.75,-8.9375,-39.5625,0
25650,-0.8125,-4.5,-35.5,0
25670,2.1875,-1.875,-31.1875,0
25690,2.875,-0.5,-24.9375,2001
25710,-1.5625,0.375,-27.375,0
25730,-9.0625,3.875,-25.6875,0
25750,-11.875,4.3125,-19.625,0
25750,-11.375,5.5,-13.875,0
25770,-7.75,4.3125,-9.9375,0
25790,-3.6875,4.5625,-6.6875,0
25810,-6.0625,6.75,-2.4375,0
25850,5.375,11.0625,18.8125,0
25860,-1.8125,14,20.3125,0
25920,34.75,42.875,47.5,0
25960,34.5,55.125,59.125,0
25980,36.8125,59.125,62.3125,0
26000,37.125,65.3125,65.9375,0
26020,42.0625,70.5,72.375,0
26040,37.75,71.25,73.8125,0
26060,42,75.75,72.625,0
26080,45.75,74.5625,71.625,0
26110,25.0625,52.4375,59.625,0
26130,11.1875,44.8125,48.3125,0
26150,4.6875,36.4375,37.4375,0
26160,9.75,18,24.125,0
26180,10.1875,7.5,18.125,0
26200,12.5,0.75,8.5625,0
26210,15.3125,-2.3125,-1.5,0
26250,7.0625,-10.0625,-2.875,2000
26290,3.375,-11.5625,-6.25,0
26310,1.5,-10.375,-5.4375,0
26350,1.25,-4.5,0.4375,0
26400,0.1875,0.375,0.3125,0
26420,2.6875,2.0625,3.9375,0
26440,0,0.9375,5.0625,0
26450,3.375,1.25,4.6875,0
26460,3.25,1.125,3.125,0
26480,0.4375,1.25,2.4375,0
26500,2.5625,1.125,2.4375,0
26520,5.125,-1.5,0.9375,0
26540,7.0625,-5.5,1.3125,0
26560,5.125,-9.1875,0.1875,0
26580,1.625,-12.3125,-3.5,0
26600,0.375,-16.8125,-4.4375,0
26620,5.375,-23.3125,-4.6875,0
26640,3.0625,-28.8125,-2.4375,0
26660,0.4375,-31.4375,0,0
26680,-2.375,-30.6875,-3.6875,0
26700,-1.5,-23.9375,-7.875,0
26710,0.5625,-23.9375,-8.6875,0
26730,-10.0625,-19.25,-5.4375,0
26750,-17.5625,-11.375,1.5,0
26770,-5.375,-5.0625,1,0
26790,-6.625,-3.9375,-1.375,0
26800,-9.9375,-3.4375,-6.6875,0
26820,-15.25,-3.125,-13.4375,0
26840,-12.25,-0.375,-16.9375,0
26860,-5.875,-0.625,-19.5,0
26880,-5.75,1.375,-32.6875,0
26910,-9.125,18.625,-46.5625,0
26930,-22.75,29.75,-51.375,0
26950,-22.75,33,-54.6875,0
26980,-28.75,34.25,-55.4375,0
27000,-30.8125,39.8125,-53.75,0
27020,-32.25,41.875,-49.5,0
27040,-33.0625,42.4375,-47.625,0
27060,-34.1875,43.4375,-37.8125,0
27070,-34.0625,42.3125,-31.75,0
27090,-31.25,41.6875,-29.5625,0
27110,-33.0625,36.875,-30.9375,0
27130,-31.0625,31.625,-32.4375,0
27150,-29.6875,32.3125,-29.5625,0
27170,-27.25,31.25,-11.125,0
27190,-22.125,30.375,-14.125,0
27210,-13.3125,30.75,-14.75,0
27230,-9.1875,31.625,-6.25,0
27250,-10.1875,33.3125,-0.125,0
27270,-10.625,32.375,-1.5,0
27290,-4.9375,28.875,-0.0625,0
27300,-0.625,24.125,1.125,0
27320,6.25,21.875,2.0625,0
27340,3.5625,22.3125,1.9375,0
27360,-0.625,19.5625,5.5625,0
27380,5.75,13.875,7.625,0
27400,13,8.875,6.25,0
27420,13.0625,5.4375,8.75,0
27430,9.8125,4.1875,9.1875,0
27450,8.1875,2.1875,10.8125,0
27460,13.3125,0.625,20.3125,0
27490,11.0625,0.5625,24.25,0
27510,16.375,-2.25,25.375,0
27530,9.9375,-1.625,27.625,0
27550,7,-3.25,28.5,0
27570,4.9375,-7.0625,27.1875,0
27590,5.3125,-8.6875,26.8125,0
27620,4.5,-11.25,22.625,0
27640,0,-16.75,23.3125,0
27660,-3.875,-19.6875,24.625,0
27670,4.125,-24.25,24.375,0
27690,4.8125,-24.5625,26.4375,0
27710,-2.375,-24.75,28.5625,0
27720,-11.75,-28.5,33.0625,0
27740,-19.25,-32.6875,37.4375,0
27760,-15.25,-32.75,30.4375,0
27820,0.9375,-37.3125,17.5625,0
27850,-7.25,-38.0625,13,0
27870,-2.1875,-40.875,7.625,0
27910,-0.0625,-58.25,-4.8125,0
27940,7.375,-57.5625,-9.875,0
27960,0.5625,-54.5,-5.875,0
27980,1.625,-53.8125,-4.0625,0
28000,12.625,-51.125,-5.9375,0
28010,11.4375,-46.75,-6.875,0
28030,10.5,-44.25,-7.6875,0
28050,5.75,-45.0625,-9.1875,0
28060,2.1875,-41.3125,-8.25,0
28070,5.8125,-35.875,-10.5625,0
28090,11.5625,-32.9375,-15.875,0
28110,11.8125,-29.6875,-17.375,0
28130,7.9375,-24.5,-19.25,0
28150,5.375,-17.9375,-23,0
28170,10.4375,-12.3125,-26.875,0
28190,10.75,-5,-28.1875,0
28210,5.9375,8,-29.1875,0
28230,4.1875,15.3125,-31.9375,0
28250,1.75,20.0625,-35.875,0
28270,-1.4375,23.75,-43.375,0
28290,-7.625,28.75,-46.125,0
28310,-9,34.9375,-49.1875,0
28330,-10.6875,36.75,-52.8125,0
28350,-19.9375,39.5625,-53.5625,0
28370,-23.5625,43.625,-57.0625,0
28390,-25,44.5,-63.0625,0
28410,-27.9375,45.5625,-63.125,0
28430,-32.0625,49.4375,-61.875,0
28450,-37.5,53.75,-61.4375,0
28470,-40.75,57.3125,-57.5625,0
28490,-42.1875,63.3125,-50.5,0
28510,-36,63.25,-47.5,0
28530,-34.3125,58.625,-48.5,0
28550,-35.75,53.5,-43.8125,0
28570,-37.6875,50.125,-39.6875,0
28590,-35.375,46.4375,-37.9375,0
28610,-31.4375,43.1875,-36.6875,0
28630,-28.5625,38.6875,-33.5625,0
28650,-21.375,36.125,-31.1875,0
28670,-15.5,33.25,-32.3125,0
28690,-16.1875,33.125,-27.5625,0
28710,-22.125,32.5,-15.0625,0
28730,-16.875,31.4375,-11.875,0
28750,-17.5,27.6875,-14.1875,0
28770,-20.0625,26.3125,-6.375,0
28790,-28.8125,29.875,8.5,0
28810,-25.6875,28.75,18.625,0
28830,-16.125,23.75,18.25,0
28850,-8.1875,22.0625,11.8125,0
28860,-0.875,20.625,15.4375,0
28900,0.625,20.1875,25.1875,0
28920,1.375,17.3125,24.4375,0
28940,1.9375,13.25,21.25,0
28960,1.125,12.6875,24.9375,0
28980,8.8125,9.6875,30.75,0
29000,1.25,6.9375,33,0
29020,2.125,8.5,35.75,0
29040,4.3125,4.0625,35.4375,0
29060,2.1875,1.625,37.875,0
29080,4.125,0.125,38,0
29100,1.5625,-0.5,38.375,0
29120,1.9375,-1.4375,37.6875,0
29140,3.6875,-2.5,35.9375,0
29160,9.4375,-2.875,34.625,0
29180,15.8125,-6.125,31.3125,0
29200,13.75,-11.1875,30,0
29220,16.5,-13.5,29.3125,0
29240,13.875,-16.1875,28,0
29260,11.1875,-18.125,29.1875,0
29280,9.3125,-18.6875,29.9375,0
29300,5.6875,-19.25,34.1875,0
29320,7.6875,-24.375,29.125,0
29340,5.4375,-24.75,24.625,0
29360,14.8125,-28.6875,24.5625,0
29380,8.5625,-30.9375,26.5,0
29400,3.625,-32,25.5625,0
29420,-2.5625,-35.1875,21.75,0
29440,0.375,-37.4375,22,0
29460,2.1875,-43.375,25.8125,0
29480,-7.8125,-48.75,31.75,0
29500,-14.6875,-50.625,28.9375,0
29520,-17,-53.75,23.5,0
29540,-19.6875,-59.75,25.3125,0
29560,-17.8125,-63.5625,29.375,0
29580,-11.4375,-65.75,24.75,0
29600,-4.25,-68.375,14.125,0
29620,-4.4375,-72.0625,9.8125,0
29640,-9.625,-69.9375,12.125,0
29660,-3.8125,-64.75,5.1875,0
29680,10.25,-67.9375,-5.25,0
29700,8.125,-71.5625,-7.75,0
29720,3.4375,-66.5,-13.375,0
29740,12.8125,-64.4375,-20.6875,0
29750,9.625,-62.5625,-17.8125,0
29780,-9.3125,-58.1875,-16.1875,0
29800,2.1875,-54,-24.0625,0
29840,10.1875,-48.9375,-31.75,0
29860,6.1875,-44.25,-31.0625,0
29880,3.3125,-39.875,-35.75,0
29900,0.3125,-36.875,-37.75,0
29920,1.25,-35.125,-36.1875,0
29930,-1.25,-24.75,-37.8125,0
29950,-10.9375,-20,-39.3125,0
29960,-44.4375,-2.375,-34.3125,0
29960,-54.75,2.25,-36.9375,0
29980,-54.625,11.6875,-38.5,0
29990,-44.625,18.75,-38.875,0
30010,-47.375,25.6875,-45.375,0
30030,-49.8125,36.625,-49.8125,0
30070,-44.625,53,-47.0625,0
30090,-45.8125,57.75,-44.125,0
30110,-42.375,60.25,-45.4375,0
30180,-33.9375,63.75,-32.875,0
30200,-33.8125,64.1875,-27.0625,0
30220,-26.0625,63.8125,-22.8125,0
30240,-19.9375,57.1875,-18.3125,0
30260,-31.5625,51.5625,-10,0
30300,-39.25,55.625,2.625,0
30320,-34.125,55.5625,8.0625,0
30340,-19.4375,63.1875,17,0
30360,-10.625,61.875,19,0
30380,-11.9375,58,26.125,0
30400,-12.5625,58.6875,23.3125,0
30420,-11.75,52.25,17.6875,0
30440,0.1875,52.5,20.0625,0
30460,9,47.3125,23.1875,0
30480,9.5,42.75,25.5625,0
30500,9.125,35.625,24.4375,0
30520,-6.125,28.1875,23.4375,0
30540,-24.4375,34.4375,27.5625,0
30560,-19.75,41.4375,30.6875,0
30580,-10.5,37.1875,27.6875,0
30600,4.125,28.625,32.5625,0
30620,12.3125,28.9375,38.8125,0
30640,-7.6875,29.0625,32.4375,0
30660,-28.4375,26.875,32.6875,0
30700,-2.9375,11.25,31.9375,0
30720,-0.6875,3.6875,33.6875,0
30740,-14.625,5.9375,35.8125,0
30760,-25,1.6875,30,0
30780,-15.125,-5.0625,32.3125,0
30800,-10.75,-7.375,39.5,0
30820,-5.1875,-5.75,37.875,0
30840,-17.6875,-15.75,31.875,0
30860,-28.375,-21,38.375,0
30880,-24.6875,-19.625,43.3125,0
30920,-17.6875,-30.9375,35.0625,0
30960,-27.25,-42.0625,35.375,0
30980,-32,-49.1875,34.75,0
31000,-43.5,-55,32.75,0
31020,-45.3125,-57.4375,32.125,0
31040,-49.3125,-56.5,30.125,0
31060,-41.5,-59.9375,25.875,0
31080,-37.375,-63.75,24.625,0
31100,-35.625,-64.75,15.8125,0
31120,-20.3125,-65.5,7.75,0
31140,-19.9375,-70.6875,6.75,0
31160,-23.375,-71.0625,2.75,0
31180,-10,-69.4375,-8.375,0
31200,5.0625,-72.125,-19.4375,0
31220,0.8125,-75.4375,-20.5625,0
31240,-11.125,-72.375,-21.6875,0
31260,1.4375,-67.625,-31.1875,0
31280,23.5625,-71.4375,-40,0
31300,22.625,-75.4375,-41.6875,0
31320,20.0625,-73.125,-42.4375,0
31340,12.0625,-73.25,-51.375,0
31360,10.125,-73.3125,-54,0
31380,15.375,-68.875,-53.9375,0
31400,15.0625,-65.8125,-54.4375,0
31420,16.375,-60.75,-54.875,0
31440,18.9375,-53.5625,-56.3125,0
31460,14.625,-52.5625,-56.125,0
31480,5.4375,-46.375,-47.375,0
31500,7.1875,-34.75,-50.125,0
31520,15.625,-30.375,-46.6875,0
31540,8.125,-27.5,-42.625,0
31560,3.375,-18.3125,-39.8125,0
31580,0.6875,-7.3125,-40.625,0
31600,2.8125,-1.375,-36.1875,0
31620,9.75,1.3125,-32.625,0
31640,4.625,7.0625,-31.625,0
31660,2,15.3125,-23.625,2001
31670,-0.375,14.625,-18.875,0
31690,-5.625,15.3125,-14.625,0
31710,-14.0625,17.625,-10.625,0
31730,0.6875,18.3125,-5,0
31750,10.3125,15.5,-0.0625,0
31770,3.875,15.0625,1.3125,0
31790,-10,13.375,-1.3125,0
31810,-10,7.4375,1.9375,0
31830,0.125,5.25,5.25,0
31850,14.9375,5.3125,14.75,0
31870,6.375,3.8125,22.75,0
31890,-5.125,0.9375,22.25,0
31910,-2.5,-3.125,20.25,0
31930,11.125,-5.75,23.625,0
31950,22.0625,-7.1875,33,0
31960,26.875,-2.75,43.8125,0
31960,36.125,7.25,51.625,0
31980,38.1875,20.625,64.25,0
31990,48.1875,26.4375,70.375,0
32010,69.8125,33.75,68.25,0
32020,81,33.625,63.4375,0
32040,70.125,29.875,65.125,0
32060,66.875,41.4375,68.625,0
32080,77,47.1875,68.0625,0
32100,75.0625,37.5,69.875,0
32120,64.3125,34.25,71.125,0
32140,65.1875,42.9375,62,0
32170,55.0625,32.625,76.375,0
32180,31.9375,31.4375,48.875,0
32210,38.625,37.625,39.1875,0
32230,36.75,34.25,25.8125,0
32240,20.25,29.1875,22.9375,0
32260,17,30.5625,18.875,0
32280,21.8125,25.6875,10.375,0
32300,28.1875,17.625,4.375,0
32320,21.25,11.5625,3,0
32340,11.8125,8,-0.625,0
32360,5.9375,5.875,-7.0625,0
32380,9.0625,0.6875,-10.375,0
32400,8.0625,-5.25,-5.6875,0
32420,3.5,-3.5625,-4,0
32440,6.625,-1.5625,-9.0625,0
32460,3.625,-3.3125,-7.25,0
32480,2.4375,-1.5,-2.5625,0
32500,2,1.3125,2.5,0
32520,2.875,1.4375,6,0
32540,-6.75,1.125,6.125,0
32560,-2.8125,5.1875,1.1875,0
32580,7.75,3.3125,-0.8125,2000
32600,9.125,-1.25,4.375,0
32620,5.3125,-6.5625,3.625,0
32640,3.0625,-6.375,-7.0625,0
32660,5.5625,-8.375,-13.6875,0
32680,11.5,-13.4375,-5.9375,0
32700,11.5,-18.0625,1.4375,0
32720,5.125,-22.9375,-0.5,0
32740,3.25,-26.3125,-9.1875,0
32760,5.375,-29.4375,-11.25,0
32780,8.3125,-35.4375,-4.875,0
32800,10.5,-37.8125,3.9375,0
32820,12.3125,-38.25,3.4375,0
32840,9.125,-41.625,0.1875,0
32860,9.3125,-42.3125,4.25,0
32880,11.9375,-40.25,4.375,0
32900,17.375,-39.9375,0.3125,0
32920,18.375,-40.375,2.5,0
32940,6.3125,-37.4375,7.0625,0
32960,12.4375,-31.5,5.8125,0
32980,20.625,-28.5625,-1,0
33000,19.75,-25.75,0.375,0
33020,21.5625,-22.125,0.25,0
33040,11.75,-16.5625,-1.875,0
33060,8.3125,-12.5,-12.625,0
33080,11.3125,-9.25,-19.375,0
33100,6.625,-3.6875,-29.875,0
33120,1.9375,-1.1875,-38.625,0
33140,-2.9375,2,-41.875,0
33160,-1.9375,6.875,-50.25,0
33180,-9.5625,10.4375,-58.1875,0
33200,-19.0625,10.375,-61.75,0
33250,-51.0625,66.1875,-36.5,0
33280,-38.4375,35.5625,-35.8125,0
33310,-34.4375,29.9375,-25.125,0
33330,-35,27.25,-22.6875,0
33350,-36.125,28.25,-17.5,0
33370,-26.9375,28.4375,-13.9375,0
33390,-12.8125,23.625,-12.4375,0
33410,-6.5,22.5625,-9.125,0
33430,-16.375,28.875,-6.3125,0
33460,4.5625,30.5,0.4375,0
33480,5.5625,30.875,4.9375,0
33500,-4.8125,33.0625,14.9375,0
33520,-6.125,26,18.75,0
33540,-8.8125,21.875,22.0625,0
33560,0.75,20,22.75,0
33580,8.125,18.1875,21.3125,0
33600,4.8125,17.625,28.4375,0
33620,-1.0625,13.125,32.8125,0
33640,-11.9375,8.875,33.5,0
33660,-3.0625,6.625,35.25,0
33680,6.25,3.9375,37,0
33700,13.625,-1.25,33.9375,0
33720,6.75,-6.25,29.25,0
33740,9.625,-10.75,29.3125,0
33760,20.8125,-12.6875,32.75,0
33780,17.75,-12,37.375,0
33800,16.1875,-14.0625,34.8125,0
33820,15.0625,-17.5,28.5625,0
33840,15.6875,-18.6875,32.125,0
33880,-3.3125,-40.625,37.625,0
33920,-9.9375,-70,30.125,0
33940,-19.375,-72.5625,34.875,0
33960,-22.8125,-74.625,28.5,0
33980,-24.0625,-76.375,21.5,0
33990,-21.375,-75,15.25,0
34010,-10.5,-74.9375,7.875,0
34030,-3.0625,-77.5,4.375,0
34040,-3.5625,-75.25,2.3125,0
34050,4.6875,-66.75,-7.1875,0
34090,-10.9375,3.875,-50.8125,0
34110,-15.625,2.25,-53.4375,0
34130,-14.4375,9.1875,-54.375,0
34150,-17.4375,15.6875,-58.8125,0
34170,-20.75,16.5,-60.1875,0
34190,-30.375,20.0625,-55.0625,0
34210,-34.6875,25.5625,-51.0625,0
34230,-41.125,29,-43.9375,0
34250,-38.625,36.9375,-46.3125,0
34270,-41,43.5625,-50.5625,0
34290,-48.125,48.4375,-49.125,0
34310,-54.0625,51,-50.5,0
34330,-55.4375,49.875,-50.0625,0
34350,-54.625,52.3125,-47.1875,0
34370,-53.9375,53.6875,-46.125,0
34390,-50.875,51.1875,-44.875,0
34410,-48.125,50.0625,-41.8125,0
34430,-47.375,51.5,-38.625,0
34450,-51.625,54.9375,-29.875,0
34470,-48.25,55.625,-17.6875,0
34490,-42.125,52.625,-15.625,0
34510,-20.5,47.3125,-14.25,0
34530,-17,46.75,-6,0
34550,-26.625,57.5625,13,0
34570,-36,62.25,28.0625,0
34590,-39.1875,63.4375,27,0
34610,-20.5,61.4375,27.1875,0
34630,-4.75,62.4375,30.625,0
34650,-10.9375,63.75,35.25,0
34670,-22.4375,61.5,35.6875,0
34690,-37.3125,53,29.9375,0
34710,-29.875,48.9375,28.75,0
34730,-12.0625,46.0625,30.625,0
34770,-12.5,42.1875,32.5,0
34790,-11.8125,37.25,30.6875,0
34810,-5.3125,32.25,27.6875,0
34830,-2.25,25.125,27,0
34850,-6.4375,22.875,28.375,0
34870,-8.9375,17.5,31,0
34890,-7.25,9.125,28.625,0
34910,-2.9375,2.375,28.0625,0
34930,1.5625,-2.9375,28.8125,0
34950,2.6875,-6.875,30.4375,0
34970,-1.5625,-6.8125,36.8125,0
34990,7.75,-11.75,42.3125,0
35010,8.6875,-17.875,42.0625,0
35050,22.0625,-17.25,36.5625,0
35070,20.1875,-24.125,37.1875,0
35090,9.5625,-30.75,38.4375,0
35110,8.0625,-35.4375,35.8125,0
35130,7.5,-37.6875,34.25,0
35150,5.6875,-41.6875,34.25,0
35170,1.6875,-40.5625,33.625,0
35180,0.6875,-45,35.4375,0
35200,-9.25,-46.9375,42.8125,0
35220,-13.3125,-46.0625,42.6875,0
35240,-8.1875,-45.4375,33.3125,0
35260,-9.9375,-49.5,32.3125,0
35280,-11,-53.4375,32.9375,0
35300,-14.8125,-55.9375,30.375,0
35320,-10.125,-59.8125,21.9375,0
35340,-10.125,-67,15.4375,0
35360,-11.9375,-72.1875,15.625,0
35380,-11.75,-75.875,11.8125,0
35400,-8.5,-80.4375,5.9375,0
35420,-7.75,-81.8125,0.6875,0
35440,-2.1875,-85.25,-13.3125,0
35470,5.4375,-83.4375,-24.8125,0
35490,11.1875,-84.625,-29.625,0
35510,10.4375,-87.25,-31.25,0
35530,9,-84.8125,-31.75,0
35550,3.25,-78.875,-34.4375,0
35570,3.8125,-71.3125,-32.8125,0
35590,3.4375,-66.125,-35.625,0
35610,4.875,-60.4375,-42.6875,0
35630,0.6875,-53.125,-46.3125,0
35650,-2.375,-48.625,-47.75,0
35670,7.9375,-42.4375,-50.875,0
35690,6.3125,-37.625,-55.5625,0
35710,-3.625,-34.1875,-60,0
35730,-14.3125,-31.875,-58,0
35750,-15.625,-30.25,-59.75,0
35770,-12.625,-24.25,-63.3125,0
35790,-16.4375,-16.4375,-61.375,0
35810,-21.875,-7.0625,-54.625,0
35830,-24.75,-2.0625,-48.6875,0
35830,-34.3125,3.125,-42.875,0
35860,-27.5625,26.9375,-41.625,0
35880,-44.75,34.6875,-42.125,0
35890,-56.375,42.75,-36.4375,0
35910,-54.6875,49.4375,-33.0625,0
35930,-43.625,54.375,-33.625,0
35950,-38.1875,59.0625,-34.3125,0
35970,-40.25,66.1875,-34.375,0
35990,-44.5,70.875,-34.5625,0
36010,-43.5,70.5,-35.4375,0
36080,-14.1875,55.5,17.375,0
36100,-18.3125,51.625,16.75,0
36120,-17.75,48.3125,20.1875,0
36140,-15.5625,44.3125,25.3125,0
36160,-12,42.75,24.875,0
36180,-16.75,41.25,24.3125,0
36200,-15.4375,38.875,29.5625,0
36220,-12.625,35.6875,29.1875,0
36240,-5.0625,37.625,27.5625,0
36260,-3.9375,40.375,30.5625,0
36300,6.625,36.4375,29.0625,0
36320,21.5,32,27.8125,0
36340,20.375,29.1875,27.5625,0
36360,10,25.25,29.875,0
36380,0.875,18.0625,33.3125,0
36400,-3.8125,11.125,33.1875,0
36420,-1.875,4.4375,32.375,0
36440,-4.5625,-4.5,34.5625,0
36460,-16.25,-7.4375,38.25,0
36480,-20.9375,-6.625,38.875,0
36500,-15.625,-7.375,35.9375,0
36520,-9,-9.1875,39.375,0
36530,-6.75,-12.0625,40.1875,0
36560,-14.6875,-12.4375,37.6875,0
36570,-16.1875,-20.0625,34.1875,0
36590,-16.75,-24.75,33.5,0
36610,-6.375,-28.6875,30.625,0
36630,-0.5,-39.125,22.9375,0
36650,-8.25,-47.5,21.875,0
36670,-22,-53.5625,24.25,0
36690,-16.5625,-56.75,20.8125,0
36710,-6.25,-63.4375,13.1875,0
36730,-5.0625,-68.9375,17.9375,0
36750,-15.6875,-69.6875,23.4375,0
36770,-24.25,-72.4375,19.375,0
36790,-25.25,-73.9375,14.375,0
36810,-23.625,-71.5625,12.6875,0
36830,-21.5625,-70.3125,8.8125,0
36850,-10.875,-73.4375,1.625,0
36870,-5,-77.25,-3.1875,0
36890,3,-76.125,-8.375,0
36910,4.3125,-74.125,-16.3125,0
36930,-6.1875,-75.5625,-16.5625,0
36950,-6.4375,-77.0625,-18.0625,0
36980,4.5,-76.4375,-34.25,0
37000,-6.8125,-72.5625,-33.375,0
37020,-9.5,-66.6875,-30.125,0
37040,-3.875,-61.875,-32.0625,0
37060,-2.875,-55.75,-36.75,0
37080,-0.5,-45.3125,-34.9375,0
37100,3.875,-39.25,-32.3125,0
37120,3.625,-31.5,-31.875,0
37140,0.375,-23,-34.375,0
37160,-2.5625,-18.4375,-31.0625,0
37180,-4.875,-14.5,-29.1875,0
37200,-13.5625,-6.0625,-30,0
37220,-11.75,0,-30.6875,0
37240,-0.5625,-1.875,-31.3125,0
37260,-6.5625,-1.25,-27.5625,0
37280,-11.8125,4.75,-22.375,0
37300,-6.25,6.25,-21.375,0
37320,-10.5625,5.9375,-20.6875,2001
37340,-10.125,4.25,-17.5,0
37360,-7.375,3.375,-12.6875,0
37380,-5.0625,4.3125,-7.875,0
37400,-0.75,7.125,-1.8125,0
37420,3.875,7.5,2.75,0
37440,2.0625,4.6875,6.375,0
37460,-2.875,4.75,8.5,0
37480,-1.625,2.625,9.9375,0
37500,1,1.0625,5.25,0
37520,2.6875,1.25,3,0
37540,8.6875,1.25,4.8125,0
37560,17.25,-4.125,5.5,0
37580,13.3125,-8.5625,7.75,0
37590,6.375,-4.6875,17.3125,0
37610,-3.0625,-0.5,22.5,0
37630,4.4375,6.8125,23.8125,0
37650,26.6875,11.5625,27.875,0
37670,48.9375,10.25,40.3125,0
37690,54.625,12,51.5625,0
37710,51,23.75,57.0625,0
37730,58.6875,34.5,59.5625,0
37750,63.75,35.5625,59.375,0
37770,63.75,40.0625,56.875,0
37790,87.6875,52.5625,60.25,0
37810,110.812,58.3125,60.0625,0
37830,99.5,58.4375,57.8125,0
37850,81.5625,61.875,61.3125,0
37870,81.375,67.375,52.9375,0
37890,95.125,71.625,51.9375,0
37910,96.875,65.625,63,0
37930,80.125,63.6875,68.0625,0
37950,63.6875,74.6875,62.9375,0
37970,50.8125,78.5625,59.5,0
37990,41.1875,71.375,55.125,0
38010,25.4375,65.8125,53.75,0
38030,25.1875,66,48.625,0
38050,31.6875,59.875,35.5,0
38060,27.25,52.875,21.5,0
38080,19.75,47.25,10.75,0
38100,11.125,39.375,3.875,0
38120,12.1875,28.9375,0.1875,0
38140,26.8125,14.75,-4.5,0
38160,29.875,4.25,-4.4375,0
38180,22,1.25,-4.625,0
38200,6.0625,2.5625,-7.4375,0
38220,-3.875,-0.75,-6.125,0
38240,-6.5625,-8.375,0.5,0
38260,-1.4375,-11.4375,5.0625,0
38280,7.5625,-13,5.8125,2000
38290,7.1875,-12.75,4.1875,0
38310,-0.6875,-10.625,10.0625,0
38330,5.0625,-5.8125,10.4375,0
38340,12.4375,4.1875,7.9375,0
38350,4,4.25,10.1875,0
38370,-11.5,4.4375,8.5,0
38390,-8.5625,2.6875,2.125,0
38410,4.6875,-0.8125,0.6875,0
38420,15.125,-4.5,2.1875,0
38450,-7.4375,-14.3125,-3.75,0
38470,3.8125,-20.875,-7.0625,0
38490,10.5,-30.4375,-5.9375,0
38510,9.25,-37.375,-3.625,0
38520,0.3125,-46.75,-16.1875,0
38550,1.875,-38.375,-14.5625,0
38570,7.8125,-33.375,-33.9375,0
38590,8.5,-29.8125,-31.5625,0
38610,7.875,-27.1875,-32,0
38630,9.25,-26.3125,-36.0625,0
38650,4.4375,-27.4375,-42.375,0
38670,-5.9375,-25.5,-48.875,0
38690,-10.625,-16.1875,-47.125,0
38710,-6,-7.25,-48.4375,0
38730,-1.5625,-2.25,-55.625,0
38750,-32,46,-56.75,0
38750,-30.125,55.25,-57.9375,0
38770,-44.75,60,-49.4375,0
38790,-44.6875,58.375,-45.625,0
38810,-51,59.1875,-41.3125,0
38830,-57.375,62.5625,-35.875,0
38850,-56.9375,62.3125,-21.1875,0
38870,-44.8125,55.9375,-12.1875,0
38890,-28.9375,50.375,-7.5625,0
38910,-33.25,47,-7.1875,0
38930,-42.9375,44.75,-8.4375,0
38950,-38.125,40.625,-5.75,0
38970,-20.0625,30.5625,-4.5625,0
38990,-9.4375,27.5,-3.625,0
39010,-0.5,29.125,-0.125,0
39030,-4.75,31.9375,1.4375,0
39050,-16.375,28.125,10.5,0
39070,-13.25,20.875,16.875,0
39090,-2.4375,17,16.625,0
39110,2.125,16.9375,18.5,0
39130,-0.5,14.8125,19.1875,0
39150,-9.3125,10.875,20.1875,0
39170,-9.8125,9.8125,20.4375,0
39190,-3.0625,12,20.75,0
39200,-3.1875,8.0625,27.9375,0
39220,-22.3125,4,41.9375,0
39240,-37.5625,2.8125,46.875,0
39250,-28.875,7.125,34.375,0
39270,-8.5625,7.5,30.75,0
39290,-4.25,4.5,39.0625,0
39310,-0.4375,4.875,39.875,0
39330,-3.25,0.875,33.4375,0
39350,4.8125,-3.9375,33.875,0
39360,4.9375,-7.1875,37.5625,0
39380,11.4375,-7.1875,35.875,0
39400,14.75,-11.5625,33.4375,0
39420,8.9375,-18,34.8125,0
39450,-7.6875,-32,38.1875,0
39450,-9.625,-35.75,32.9375,0
39460,2.25,-38.4375,33,0
39480,-0.4375,-43.375,32.8125,0
39500,-18.25,-60,32.1875,0
39520,18.875,-71.5625,-30,0
39540,13.375,-66.875,-27.375,0
39560,22.0625,-61.25,-35.625,0
39570,21.8125,-54.1875,-35.3125,0
39610,7.625,-3.75,-38.8125,0
39620,-1.6875,-2.5625,-42.6875,0
39640,-4.5,5.9375,-41.125,0
39650,-7.4375,6.625,-50.3125,0
39670,-14.5,10.25,-53.0625,0
39670,-28.125,13.4375,-53.75,0
39690,-38.125,17.4375,-56,0
39710,-42.25,20.625,-58,0
39730,-39.6875,24.8125,-61.1875,0
39750,-46.125,35.9375,-65.8125,0
39770,-61,49.4375,-66.125,0
39790,-71.6875,61.9375,-59,0
39810,-66.8125,70.3125,-52.875,0
39830,-59.625,73.375,-53.9375,0
39860,-63.125,76.0625,-52,0
39880,-67.5,75.5625,-49.4375,0
39900,-62,76.8125,-38.6875,0
39920,-53.125,75.5625,-29.6875,0
39940,-40.875,73.5625,-26.125,0
39960,-45.5,71,-25.1875,0
39980,-38.75,66.1875,-25.25,0
40000,-34.8125,67.625,-17.0625,0
40020,-17.75,72.6875,-7.75,0
40040,-7.375,69.5625,7.8125,0
40060,-13.3125,73.375,13,0
40080,-31.875,77.25,11.6875,0
40100,-31.375,79.4375,20.4375,0
40120,-11.0625,74.375,28.875,0
40140,-2.6875,64.25,41.125,0
40160,-16.125,57.125,46.375,0
40160,-23.8125,51,39.125,0
40180,-16.375,40.8125,36.25,0
40200,-7.125,36.4375,38.25,0
40220,-0.3125,33.375,38.5625,0
40240,-0.9375,34.8125,33.375,0
40280,5.375,24.1875,42.1875,0
40300,9.9375,25.625,37.625,0
40340,7.875,14.1875,38.5625,0
40370,-4.1875,4.625,44.75,0
40390,-8.5625,-4.5,42.75,0
40410,-12.8125,-10.75,39.375,0
40430,-4.75,-11.5,39.625,0
40450,4.375,-21.375,38.75,0
40470,-4.9375,-30.5625,35.4375,0
40490,-9.375,-34.75,37.75,0
40520,1.0625,-38.5625,30.4375,0
40540,6.25,-41.625,29.625,0
40560,12.8125,-47.3125,24.6875,0
40580,4.25,-54.3125,24.125,0
40600,-6.625,-58.5,29.5,0
40620,-14.3125,-53.6875,29.9375,0
40640,-4.375,-51.875,23.8125,0
40660,-4.1875,-58,21.5,0
40680,-12.1875,-62.1875,26.0625,0
40700,-15.0625,-63.75,27.75,0
40720,-16.3125,-66.6875,21.4375,0
40740,-22.5625,-75.4375,21.75,0
40760,-38.625,-81.4375,26,0
40780,-28,-79.8125,20,0
40800,-9.6875,-84,8.75,0
40820,-6.25,-88.9375,4.9375,0
40840,-17.6875,-84.5625,5.375,0
40860,-15.1875,-80.75,-6.75,0
40880,-3.25,-83.1875,-17.875,0
40920,-6.25,-73.4375,-27.875,0
40970,7,-59.5625,-39.3125,0
40990,4.25,-57.1875,-43.8125,0
41010,-2.625,-53.6875,-46,0
41030,-7.4375,-50,-46.5625,0
41050,-11.6875,-47.125,-48.4375,0
41070,-11.9375,-41.75,-50.5,0
41090,-13.6875,-34.5,-49.6875,0
41110,-14.6875,-26.1875,-44.4375,0
41130,-8,-17.375,-46.375,0
41150,-10.3125,-9.9375,-52.4375,0
41170,-20.8125,-1.25,-56,0
41190,-26.0625,6.5,-53.875,0
41210,-22.75,15.5625,-57.9375,0
41230,-25.625,27.1875,-60.25,0
41250,-27.25,34.625,-54.75,0
41270,-29.6875,41.125,-53.75,0
41290,-33.1875,47.25,-54.6875,0
41310,-40.75,50.4375,-56.4375,0
41330,-48.625,55.25,-57.1875,0
41350,-56.375,58,-53.8125,0
41370,-53.375,63.0625,-51.125,0
41390,-42.625,68.3125,-46.75,0
41430,-36.9375,75.5625,-39.8125,0
41450,-36.5,75,-34.875,0
41480,-29.625,77.4375,-4.125,0
41500,-27.375,73.4375,2.8125,0
41520,-31.5625,69.5625,5.875,0
41530,-29.1875,69.4375,12.5,0
41560,-25,63.5625,25.625,0
41580,-30.25,63.5,31.875,0
41590,-25.75,57.8125,35.375,0
41610,-25.0625,58.125,35.0625,0
41620,-31.5,54.625,39.25,0
41640,-37.125,49.5,39.875,0
41660,-10.875,45,42.8125,0
41680,-6.5625,34.5,44.125,0
41690,-25.1875,35.8125,43.5,0
41710,-37.875,30.5,45.0625,0
41730,-29.1875,20,46.875,0
41750,-9.1875,9.6875,47.75,0
41770,-10.5625,6.5,50.0625,0
41790,-34.125,11,49.3125,0
41810,-44.5,8.25,49,0
41830,-32.3125,-3.5,50.375,0
41850,-8.6875,-4.125,46.375,0
41870,0.875,-1.75,40.875,0
41890,-5.4375,-9.0625,37.375,0
41910,-15.4375,-17.1875,39.125,0
41930,-13.5,-22.25,32.75,0
41950,1.1875,-27.625,28.75,0
41970,0.1875,-29.125,25.6875,0
41990,-5.6875,-30.375,25.9375,0
42010,-7.25,-28.875,24.875,0
42030,7.6875,-33.625,17.5,0
42050,10.4375,-42.1875,14.3125,0
42070,7.6875,-45.0625,14.9375,0
42090,-2.4375,-48.5,15.3125,0
42110,-5.125,-50.625,14.0625,0
42130,-1.5625,-55.5625,11.6875,0
42150,-4.75,-63.0625,12.0625,0
42170,-10.75,-67.125,10.875,0
42190,-11.125,-69.625,6.3125,0
42210,-9.5625,-72.9375,0.375,0
42230,-5.625,-75.75,-1.8125,0
42250,-3.4375,-81.9375,-5.0625,0
42270,-12.625,-85.625,-5.6875,0
42290,-22,-88.3125,-6.75,0
42310,-32.0625,-87.75,-7.875,0
42330,-27.625,-87.5625,-17.5,0
42350,-23.5625,-88.75,-22.3125,0
42370,-24.25,-85.5,-23.9375,0
42390,-8.4375,-75.125,-34.375,0
42410,6.9375,-75.5,-46.8125,0
42430,-2.0625,-75.5625,-46.5,0
42450,-2.625,-67.375,-44.625,0
42470,1.8125,-62.25,-43.5625,0
42490,-1,-56.25,-40.875,0
42520,-5.625,-43.4375,-37.4375,0
42540,3.6875,-39.9375,-37.5625,0
42560,14.25,-34.125,-35.5,0
42580,7.625,-30.875,-36.8125,0
42600,-9.375,-26.75,-40.125,0
42620,-14.5,-22.5,-38.0625,0
42640,-3.375,-17.5,-38.5,0
42660,3.0625,-12.3125,-37.5,0
42680,6.375,-6.1875,-36.1875,0
42700,-3.5625,3.25,-34.375,2001
42720,-9.0625,7.5,-30,0
42740,-18.0625,11.5,-30.25,0
42760,-16.5,17.25,-22.625,0
42780,-5.4375,19.75,-15.25,0
42800,0.625,21.0625,-13.6875,0
42820,-14.3125,18.375,-7.0625,0
42840,-20.375,17.3125,0.4375,0
42860,-8.5,14.8125,6.25,0
42880,7.625,11.625,8.25,0
42900,14.3125,8.125,5.375,0
42920,12.5,7,8.75,0
42940,20.6875,7.5,23.0625,0
42960,23,6.9375,32.0625,0
42980,34.9375,11.0625,35.75,0
43000,51.6875,14.75,37.9375,0
43020,63.6875,11.5625,45.4375,0
43040,62.5625,11.1875,56.25,0
43060,66.125,19.125,58.0625,0
43070,79.625,32.1875,52.375,0
43090,86.25,34.625,53.6875,0
43100,75.25,36.375,67.25,0
43120,82.6875,43.875,75.4375,0
43140,103.125,54.6875,70.25,0
43160,103.938,55.1875,77.125,0
43180,80.25,58.375,89.6875,0
43200,73.4375,65.4375,88.625,0
43220,75.5,69.25,86.5625,0
43240,70.1875,62.5,88.3125,0
43290,31.6875,38.6875,45.75,0
43310,27.0625,33.5,38.9375,0
43330,25.375,26.5,24.1875,0
43350,23.1875,18.1875,10.6875,0
43370,27.3125,11.6875,7,0
43390,17,8.5,9.3125,0
43410,9.9375,9.125,8.9375,0
43430,5.5625,8.125,7.25,0
43450,4.0625,7.1875,4.6875,0
43470,9.9375,8.75,3.875,0
43480,6,6.625,8.6875,0
43500,4.1875,8.6875,9.4375,0
43520,10.0625,7.5625,2.5,0
43540,10.9375,2.4375,-0.125,2000
43560,6.25,-0.375,7.375,0
43580,12.0625,1.625,10.125,0
43600,20,-0.5,5.8125,0
43620,15,-5.5,3.25,0
43640,-2.25,-10.0625,2.9375,0
43660,-10.1875,-11.25,3.1875,0
43680,4.3125,-15.75,2.4375,0
43700,18.8125,-20.375,1.8125,0
43720,12.75,-20.75,1.8125,0
43740,3.5625,-19,-2.5,0
43760,6.1875,-18.5,-8.1875,0
43770,11.1875,-23.125,-8.4375,0
43780,10.5625,-25.75,-6.3125,0
43800,11.6875,-28.625,-6.1875,0
43820,8.4375,-30.5,-6,0
43840,5.625,-29.5,-7.4375,0
43860,9.0625,-30.5625,-11.75,0
43880,8.75,-34.5,-10.0625,0
43900,1.5,-31.1875,-1,0
43920,6.125,-24.375,-6.8125,0
43940,9.8125,-20.5625,-16.125,0
43950,-0.0625,-20.6875,-12.9375,0
43970,-5.3125,-17.3125,-8.25,0
43990,4.4375,-12.25,-15.4375,0
44010,10.9375,-7.0625,-27.0625,0
44020,6.125,-2.875,-35.0625,0
44040,-7.6875,2.625,-35.125,0
44050,-15.75,10.9375,-38.25,0
44070,-24,19.75,-41.5625,0
44090,-32.5625,31.6875,-43,0
44110,-36.625,42.9375,-41.875,0
44130,-35,53.875,-43.6875,0
44140,-36.8125,70.875,-50.875,0
44160,-46.5625,76.25,-50.4375,0
44170,-48.4375,77.875,-55.3125,0
44190,-44.875,76.625,-57.125,0
44210,-41.9375,77.1875,-56.75,0
44230,-42.9375,75.3125,-58.25,0
44250,-44.375,73.3125,-55,0
44270,-45.25,72.125,-50,0
44290,-45.75,68.4375,-48.75,0
44310,-45.5625,61.5625,-52.5,0
44330,-44.375,55,-49.5625,0
44350,-43.3125,53.4375,-43.125,0
44360,-41.625,53,-34.125,0
44380,-39.875,50.5,-27.3125,0
44400,-32.5,47.75,-25.3125,0
44420,-30.1875,43.875,-23.9375,0
44440,-21.1875,42.875,-18,0
44490,-9.4375,26.125,-5.0625,0
44510,-12.0625,26.4375,-1,0
44530,-11.8125,22.1875,1.9375,0
44550,-7.8125,14.6875,6.8125,0
44570,-2.3125,10.8125,9.9375,0
44590,-5,11.625,11.375,0
44610,-6.3125,13.625,11.625,0
44630,5.1875,12.9375,13.25,0
44650,14.0625,12.8125,18.5,0
44670,12.3125,11.4375,16.75,0
44690,11.25,14,12.5,0
44710,19.0625,9.3125,16.5625,0
44730,19.5,3.3125,19.5,0
44750,29.3125,-1.8125,22.5625,0
44770,36.9375,-10.4375,17.875,0
44790,33.6875,-18.1875,16.375,0
44810,28.125,-21.875,17.1875,0
44830,23.75,-22.25,18.375,0
44850,25.3125,-21.5625,17.3125,0
44870,26.3125,-22.8125,17.9375,0
44910,6.25,-25.25,42.875,0
44930,6.9375,-30.375,41.25,0
44960,4.9375,-58.625,28.125,0
44980,2.8125,-58.6875,20.8125,0
45000,-4.1875,-64.6875,21.625,0
45010,-4.9375,-71.375,26.5625,0
45030,9.0625,-73.625,21.25,0
45040,-2.5,-79.75,21.4375,0
45080,-1.25,-80.625,15.5625,0
45100,6.6875,-83.625,16.8125,0
45120,6.5625,-84.125,16.125,0
45140,7.5625,-81.6875,9.8125,0
45200,17.4375,-74.375,-6.375,0
45220,18.5,-69.1875,-7,0
45240,27.375,-65.4375,-15.0625,0
45260,27.75,-57.0625,-27.9375,0
45280,19.125,-47.875,-30.875,0
45300,11.0625,-45.0625,-31.1875,0
45320,2.1875,-37.25,-35.375,0
45340,8.9375,-29,-43.625,0
45360,10.625,-26.6875,-44.375,0
45380,-1.9375,-23.375,-41.5,0
45400,-13.875,-20.1875,-43.8125,0
45420,-10,-14.5625,-50.375,0
45440,-8.625,-9.1875,-55.75,0
45470,-27.625,19.75,-65.875,0
45510,-46.0625,32.9375,-70.125,0
45530,-62.3125,40.625,-67,0
45550,-66.25,44.9375,-65,0
45570,-62.75,50,-64.375,0
45590,-66.5,56.3125,-64.4375,0
45610,-76.0625,64.5,-60.3125,0
45630,-83.5625,67.9375,-53.125,0
45650,-81.6875,69.6875,-50,0
45670,-72,65.375,-49.75,0
45690,-71.9375,58.125,-45.625,0
45710,-75.9375,58.9375,-38.625,0
45730,-70.25,67.0625,-29.8125,0
45750,-58.375,64.0625,-25.3125,0
45770,-43.9375,62.375,-21,0
45790,-33.875,63.375,-16,0
45810,-34.625,58.8125,-17.4375,0
45830,-34.875,58.125,-21.375,0
45850,-26.5625,58.875,-17,0
45870,-15.875,57.75,-7.0625,0
45890,-15.8125,53.9375,1.625,0
45910,-15.25,49.625,9.875,0
45930,-14.25,43.3125,15.875,0
45950,-7.625,42.6875,22.375,0
45970,-2.3125,43.5,26.8125,0
45990,-7.8125,43.8125,34.0625,0
46010,-12.6875,38.125,42,0
46030,-10.6875,32.625,46.0625,0
46050,1.6875,32,48.375,0
46070,10.4375,29.0625,47.75,0
46090,-4.875,24.8125,46,0
46110,-11.375,24.8125,49.8125,0
46130,-1.625,17.375,53.125,0
46150,2,8,53.125,0
46170,5.9375,9.125,52.6875,0
46190,6.1875,4.5,52.625,0
46210,-6.75,-4.9375,54.1875,0
46210,-8.9375,-7.3125,59.5,0
46270,-0.25,-28.75,34.75,0
46290,-0.4375,-32.9375,29.9375,0
46310,0.1875,-37.5625,26,0
46330,6.5625,-40.9375,23.5,0
46350,4,-45.6875,17.125,0
46370,8.125,-47.25,14.25,0
46390,2.25,-54.625,17.9375,0
46410,-3.3125,-60.5625,18.8125,0
46430,2.75,-64.1875,19.1875,0
46450,3.9375,-67.75,17.6875,0
46470,-4.9375,-72.1875,17.9375,0
46490,-13.3125,-79.5625,17.375,0
46510,-18,-88,17.5,0
46530,-20.5625,-89.8125,12.8125,0
46550,-10.1875,-92.375,5,0
46570,-15.4375,-98.25,3.6875,0
46590,-20.25,-97.8125,4.125,0
46610,-8.3125,-94.5625,-4.5,0
46630,-1.8125,-91.3125,-16.1875,0
46650,2.5,-87.75,-24.1875,0
46690,11.3125,-80.0625,-33.6875,0
46710,8.625,-73.75,-37.8125,0
46730,-1.25,-69.8125,-35.25,0
46750,-9.3125,-67.5625,-36.875,0
46840,-30.375,-41.3125,-40.9375,0
46860,-36.0625,-38.75,-37.625,0
46880,-29.25,-36.1875,-40.75,0
46890,-25.6875,-30.8125,-46.9375,0
46920,-29.625,-24.1875,-44.8125,0
46930,-40.3125,-16.75,-42.1875,0
46950,-53.125,-4.5625,-47.625,0
46970,-57.0625,10.25,-47.3125,0
46990,-50.9375,22.5,-44.0625,0
47000,-45.1875,33.1875,-41.9375,0
47020,-52.125,49.25,-37.8125,0
47040,-61.125,64.875,-32.25,0
47060,-59.3125,74.75,-33.25,0
47080,-56.8125,83.4375,-37.9375,0
47100,-57.75,91,-38.75,0
47120,-58.25,95.25,-35.9375,0
47140,-57.25,97.4375,-26.3125,0
47160,-49.625,96.9375,-21.6875,0
47180,-44.0625,94.625,-22.6875,0
47200,-42.0625,90.75,-20.375,0
47220,-37.5625,86.25,-11.125,0
47240,-39.5,80.75,-3.5,0
47260,-36.75,74.1875,1.375,0
47280,-31.625,69.0625,5.125,0
47300,-22.75,68.1875,7.1875,0
47320,-18.75,64.6875,15.1875,0
47340,-20.3125,62.75,24.125,0
47360,-19.25,59.8125,28.8125,0
47380,-14.875,50.5625,33.125,0
47400,-17.4375,47.375,33.3125,0
47420,-21.4375,45.8125,32.25,0
47440,-15.125,44.125,35.0625,0
47460,-8.5625,42.5625,36.8125,0
47480,1,38.1875,40.25,0
47500,-3.75,35,42.6875,0
47520,-17.5,31.1875,39.375,0
47540,-19.4375,26.4375,36.875,0
47560,-11.3125,23.6875,40.5625,0
47580,-16.125,17.125,51.1875,0
47600,-31.8125,11.6875,54.375,0
47620,-26.6875,5.6875,51.5,0
47640,-23.0625,-0.3125,51.75,0
47660,-23.3125,-0.25,51.4375,0
47680,-20.5625,-2.875,44,0
47700,-25.125,-8.75,39.5625,0
47720,-22.375,-10.6875,37.3125,0
47740,-14.9375,-10.75,33.5625,0
47760,-4.5625,-10.875,29.9375,0
47780,2.6875,-12.8125,27.1875,0
47800,-4.25,-14.1875,24.9375,0
47820,-10,-17.5,23.6875,0
47840,-10.0625,-18.1875,22.1875,0
47860,0.0625,-19.875,20.3125,0
47880,7.875,-24.25,19.3125,0
47900,5.6875,-25.875,19.4375,0
47920,-0.75,-28.4375,17.9375,0
47940,-7.375,-32.4375,13.75,0
47960,-1.4375,-38.75,12.75,0
47980,-2.8125,-42.6875,13.75,0
48000,2.5625,-44.0625,11.125,0
48020,-0.5625,-50.8125,8.625,0
48040,-11.9375,-54.5625,9.375,0
48060,-15.875,-57.875,6.875,0
48080,-17.8125,-61.0625,6.4375,0
48100,-26.5,-64.5625,9.125,0
48120,-34.0625,-60.1875,8.1875,0
48140,-33.125,-57.6875,0.4375,0
48160,-21.875,-58.8125,-3.8125,0
48180,-15.625,-62.6875,-6.5,0
48200,-14.1875,-65.1875,-8.6875,0
48220,-18.25,-63.4375,-16.875,0
48240,-15.1875,-61.625,-22.75,0
48260,-11.9375,-61.8125,-21.375,0
48280,-16.8125,-62.9375,-21.5,0
48300,-14.1875,-61.625,-27.25,0
48320,-10.1875,-61.8125,-29.875,0
48340,-15.75,-59.0625,-33.25,0
48360,-19.3125,-52.6875,-30.375,0
48380,-17.75,-50.6875,-29.1875,0
48400,-17,-49.9375,-31.5625,0
48430,-9.5625,-39.6875,-29.1875,0
48450,-8.75,-33.6875,-29,0
48470,-9.3125,-31.8125,-30.125,0
48490,-8.1875,-30.1875,-33.625,0
48510,-11.875,-26.25,-35.8125,0
48530,-12.6875,-20.5,-33.0625,0
48550,-11.625,-17.875,-33.25,0
48570,-9.5625,-13.1875,-33.6875,0
48590,0.125,-7.6875,-31.75,0
48610,-4.125,-2.4375,-29.5,2001
48630,-8.1875,2.25,-26.5625,0
48650,-8.5,4.3125,-20.0625,0
48660,-3.8125,6.375,-13.1875,0
48680,0.375,5.8125,-13.875,0
48690,-3.3125,6.8125,-15.1875,0
48710,-8.1875,6.875,-8.8125,0
48730,-10.75,6.4375,-2.5,0
48750,-0.9375,6.4375,1.1875,0
48770,3.875,3.9375,5,0
48790,9,0.75,6.25,0
48810,3.75,1.75,-0.3125,0
48810,-2,4.5,3.875,0
48830,2.5,6.5,12.9375,0
48850,10.625,5.5,15,0
48870,25.9375,3.6875,17.1875,0
48890,45.75,6.375,25.3125,0
48910,50.25,13.8125,40.5625,0
48930,57.3125,20.25,54,0
48950,72.625,24.5,56.4375,0
48970,84.3125,25,58.4375,0
48990,84.375,24.6875,64.75,0
49010,83.625,30.8125,66.6875,0
49030,98.5625,44,69.5625,0
49050,119.812,50.375,70,0
49070,116.5,47.875,70.875,0
49090,102.375,49.4375,72.375,0
49110,112.375,52.875,71.25,0
49130,128.438,52.9375,69.5,0
49150,111.375,52.1875,69.9375,0
49170,83.25,55.0625,68.375,0
49190,74.375,52.5,61.4375,0
49210,64.25,41.125,52.125,0
49230,58.5625,38.125,48,0
49250,49.9375,38.9375,42.5625,0
49270,33.5625,40.125,29.3125,0
49290,29.5,38.9375,19.5,0
49310,27.0625,35.125,17.625,0
49330,20.4375,33.5,18.625,0
49360,21.4375,30.9375,5.375,0
49380,12.625,30.9375,-0.4375,0
49400,10.6875,23.625,2,0
49420,13.8125,13,6.25,0
49440,14.4375,7.9375,6.8125,0
49460,3.8125,0.0625,1.125,0
49480,4.125,-5.125,3.0625,0
49500,3.4375,-12.6875,9.625,0
49510,5.4375,-13,13.875,0
49530,6.9375,-11.75,1.9375,0
49550,8.8125,-11.125,-10.3125,0
49560,7.75,-11.8125,-8.9375,0
49580,-1.375,-16.625,4.3125,0
49600,5.0625,-16.3125,15.5625,0
49620,8.875,-17.3125,10.375,0
49640,6.5,-18.8125,-2.125,0
49660,1.0625,-20.125,-3.1875,0
49680,0.9375,-20.1875,0.25,0
49700,4.875,-21.8125,1.25,0
49720,10.8125,-25.8125,-5.625,0
49740,7.625,-29.0625,-5.5,0
49750,0.375,-35.75,-5.5,0
49770,7.3125,-33.5625,-5.875,0
49790,9.875,-32.8125,-2.625,0
49810,4.75,-29.0625,-2.75,0
49830,3.875,-22.4375,-8.6875,0
49850,4,-23.5625,-14.6875,0
49870,-4.625,-22.8125,-9,0
49880,-0.5,-19.125,-4.1875,0
49900,9.3125,-16.6875,-14.25,0
49920,5.3125,-17.5,-14.4375,0
49940,0.0625,-12.75,-5.5625,0
49960,-3.6875,-14.875,-8.3125,0
49980,-7.1875,-11,-16.25,0
50000,-11.0625,-4.5625,-14.25,0
50020,-20.6875,3.5625,-10.5625,0
50040,-33.625,15,-8.5,0
50060,-44.4375,25.6875,-6.6875,0
50080,-35.6875,36.125,-0.125,0
50100,-16.625,56.25,17.125,0
50120,14.5,68.375,27.125,0
50140,14.1875,67.5625,44.1875,0
50160,-3.8125,74.4375,46.6875,0
50180,-19,73.5625,31.875,0
50200,-26.9375,66.125,21.5625,0
50220,1.9375,59.25,25.6875,0
50240,21.375,51.75,32.8125,0
50260,22.125,40.375,24.4375,0
50260,3,34.0625,10.5625,0
50280,26.375,13.75,4.5,0
50290,25.5,7.1875,7.9375,0
50310,13.75,5.625,4.75,0
50310,7.875,0.3125,-2.6875,0
50330,9.1875,-9.5625,-6.5625,0
50350,18.125,-11.5625,-7.125,0
50350,29.5625,-11.875,-8.0625,0
50370,29.125,-11.9375,-6,2000
50390,12.875,-12,-1.0625,0
50420,12.625,-13.8125,-3.5625,0
50420,14.3125,-12.3125,1.0625,0
50440,11.3125,-7.5625,0.4375,0
50440,-23.0625,-10.1875,-1.5625,0
50470,-15.5,-4,18.25,0
50470,-7.1875,-3.4375,9.1875,0
50490,-9.3125,-7.0625,-3.375,0
50510,-7.5,-11.125,-1.625,0
50520,4.375,-15.25,5.875,0
50530,8.0625,-15.75,8.5,0
50550,-4.9375,-20.125,9.8125,0
50560,-15.0625,-23.9375,5.125,0
50580,-10.8125,-29.3125,2.75,0
50600,-2.125,-34.625,8.4375,0
50620,-2.125,-41.375,9.125,0
50640,-12.6875,-44.1875,9.25,0
50660,10.5,-44.9375,2.9375,0
50680,15.625,-43.625,2.25,0
50700,15.0625,-39.3125,1.0625,0
50720,14.25,-39.3125,-6.875,0
50740,6.9375,-35.0625,-20.9375,0
50760,2.25,-27.375,-23.25,0
50780,10.0625,-22.0625,-21.6875,0
50800,15.0625,-21,-30.125,0
50820,8.1875,-15.4375,-35.6875,0
50840,5.5,-10.6875,-45.0625,0
50870,-8.125,2.375,-48.9375,0
50890,-9.5625,8.8125,-54.4375,0
50910,-9.375,12.875,-58.9375,0
50920,-13.3125,18.5625,-66.625,0
50960,-38.1875,45.4375,-64.75,0
50970,-50.875,75.75,-61.1875,0
51000,-52.5625,73.25,-60.8125,0
51020,-52.375,72.1875,-50,0
51040,-57.75,67.6875,-47.0625,0
51060,-63.6875,66,-42.1875,0
51070,-52.9375,64.3125,-38.6875,0
51070,-28.5625,60.0625,-18.8125,0
51090,-39.1875,51.8125,-13.8125,0
51110,-39.5,51.8125,-8.0625,0
51130,-12.125,46.0625,-4.6875,0
51150,-1.5625,41.75,-1.4375,0
51170,-6.125,41.1875,8.5,0
51190,-11.25,37.9375,14.4375,0
51210,-19.8125,33.875,15.375,0
51230,-8.25,29.6875,15.3125,0
51250,6.125,24.4375,16.8125,0
51270,-2.5,25.3125,26.125,0
51290,-7.0625,24.5,27.8125,0
51310,-8.875,18.9375,26.5625,0
51330,-8.5625,12.0625,28.875,0
51350,-11.3125,10.25,32.625,0
51370,-16.75,13.0625,37.6875,0
51390,-29.125,9.625,41.125,0
51410,-35.5,6,37.5625,0
51430,-22.25,3.375,33,0
51450,-0.125,-1.0625,31.0625,0
51470,-3.1875,-6,29.0625,0
51490,-10.625,-8.6875,27,0
51510,-13.5,-13.3125,21.6875,0
51530,-8,-19.125,22.3125,0
51550,6.3125,-22.75,24.625,0
51600,-2.3125,-57.375,12.5,0
51620,-9.1875,-62,16.75,0
51640,-19.125,-63.6875,19.875,0
51660,-15.625,-64.75,12.6875,0
51680,-8.9375,-63.6875,9.1875,0
51710,-14.625,-67.4375,12.625,0
51730,-11.25,-67.6875,9.0625,0
51750,-1.25,-66,3.5625,0
51760,-25.8125,-72.6875,8.75,0
51770,-2.5625,-72.5,-2.6875,0
51790,-6.375,-71.25,-1.1875,0
51810,-2.375,-68.0625,-6.9375,0
51830,3.25,-67.3125,-13.8125,0
51850,-2.875,-67.5625,-15.4375,0
51870,-4.8125,-65,-16.5,0
51890,2.375,-62.375,-19.5,0
51910,14.1875,-60.5625,-24.5,0
51930,20.125,-57.4375,-29,0
51990,22.3125,-26.625,-37.3125,0
52010,0.875,-18.6875,-33.0625,0
52060,-7.0625,29.375,-62.625,0
52070,-9.3125,33.625,-64,0
52090,-13.4375,43.5,-78,0
52110,-19.5625,54.875,-82.875,0
52130,-28.375,62.9375,-79.375,0
52150,-33.0625,71.75,-75.125,0
52170,-42,83.625,-77.5625,0
52190,-49.375,90.6875,-73.5,0
52210,-55.8125,95.75,-67.0625,0
52230,-50.3125,99.125,-57.6875,0
52250,-45.5,100.812,-52.625,0
52270,-47.9375,96.1875,-52.8125,0
52290,-48.125,90.25,-45.125,0
52310,-47.0625,82.5625,-40.1875,0
52330,-40,71,-32.25,0
52350,-33.25,62.4375,-26.25,0
52370,-36.5,59.5,-20.125,0
52390,-35,56.875,-12.125,0
52410,-22.5,53,1.75,0
52430,-11.125,55.375,9.5625,0
52450,-3.875,57.5625,20.1875,0
52470,-16.0625,54.8125,20.3125,0
52490,-22.4375,46.125,13.0625,0
52510,-4.6875,41.375,20.875,0
52530,0.25,42.9375,34.125,0
52550,0.0625,40.9375,41.1875,0
52570,-14.8125,35.375,40.4375,0
52590,-22.875,24.1875,36.3125,0
52640,-38.8125,15.5,49,0
52660,-18.875,9.5,46.3125,0
52690,-23.1875,6.75,52.1875,0
52710,-15,5.125,46.4375,0
52720,-20.625,-4.875,38.4375,0
52730,-22.1875,-5.9375,46.25,0
52750,-12.6875,2.625,45.1875,0
52780,4.375,-9.75,34.1875,0
52800,8.875,-12.5,35.9375,0
52820,13.5,-12.3125,31.625,0
52840,0.8125,-19.5625,33.375,0
52860,-8,-22.125,31.3125,0
52880,6.9375,-31.875,28,0
52900,9,-41.875,27,0
52920,-8.9375,-42.6875,28.4375,0
52940,-12,-42.5,26,0
52960,-13.4375,-51.0625,23.875,0
52980,-7.875,-51.9375,23.4375,0
53000,6.0625,-52.0625,19.375,0
53020,1.9375,-57.25,18.75,0
53040,-15.875,-59,19.0625,0
53060,-21.375,-59.6875,16.875,0
53080,-13.875,-64.375,14.0625,0
53100,-8.9375,-67.0625,11.25,0
53120,-14.625,-68.875,7.9375,0
53140,-14.625,-71.75,1.125,0
53160,-12.125,-74.75,-5.625,0
53180,-9.125,-76.8125,-9.6875,0
53200,-8,-78.75,-14.375,0
53220,-5.125,-83,-19.875,0
53240,-6.8125,-86,-18.8125,0
53260,-11.6875,-87.125,-19.3125,0
53280,-15.5625,-84.0625,-22.5625,0
53300,-16.8125,-81.25,-25.5625,0
53320,-10.8125,-78.875,-34,0
53330,-5.75,-76.75,-39.0625,0
53350,-0.5625,-75.25,-42.9375,0
53370,-1.8125,-54,-53.375,0
53390,-9.375,-49,-48.625,0
53400,-12.1875,-40.9375,-45.25,0
53420,-12.625,-31.75,-47.1875,0
53440,-14.875,-24.375,-51.9375,0
53460,-19.125,-14.375,-51,0
53470,-25.625,-4.3125,-49.5625,0
53490,-29.9375,5.25,-50.4375,0
53510,-30.125,19.125,-55.4375,0
53530,-36,29.75,-60.9375,0
53540,-38.1875,37.8125,-53.8125,0
53550,-49.375,65.3125,-41.5625,0
53560,-63.25,72.5,-35.6875,0
53580,-60.375,79.9375,-28.8125,0
53600,-50.3125,84.4375,-24.4375,0
53620,-47.3125,87.875,-21.5625,0
53630,-31.9375,84.0625,6.25,0
53650,-32.3125,78.5,6.8125,0
53680,-15.625,59.3125,21,0
53700,-15.625,61.75,25.5,0
53720,-30,61.375,29.8125,0
53740,-33.125,56.0625,32.9375,0
53760,-28.0625,53.625,35.8125,0
53780,-19.125,50,44.25,0
53800,-15.375,49.6875,53.3125,0
53820,-20.4375,55.6875,57.5,0
53840,-20.1875,63.875,63.875,0
53860,-13.75,59,67.375,0
53880,-13.625,48.8125,59.375,0
53900,-19.5625,38.5625,54.3125,0
53920,-16.5625,20.4375,51.625,0
53940,-28,9.875,51.0625,0
53960,-26.5,0.5,50.75,0
53980,-19.6875,-9.625,43.9375,0
54000,-23.75,-18.875,47.625,0
54020,-48.3125,-22.6875,45.5,0
54040,-50.625,-24.4375,43.625,0
54060,-44.0625,-34,43.125,0
54080,-32.9375,-36.9375,42.6875,0
54100,-22.9375,-35.75,35.5,0
54120,-33.875,-39.75,33.0625,0
54140,-39.25,-41.375,33.4375,0
54160,-29.1875,-45.5625,27.875,0
54180,-13.4375,-48.75,19.5625,0
54200,-10.1875,-48.5,15.125,0
54220,-13,-51.9375,12.8125,0
54240,-11.3125,-59.375,4.6875,0
54260,-7.125,-67.6875,0.875,0
54280,-9.6875,-67.25,-1,0
54300,-7.0625,-66.75,-3.75,0
54320,-17.25,-68.8125,-2.1875,0
54340,-17.625,-68,-4,0
54360,-1.625,-71.125,-11,0
54380,-3.9375,-74.875,-12.9375,0
54400,-14,-72.1875,-14.5625,0
54420,-17.75,-67.875,-18.4375,0
54440,-11.6875,-66.9375,-22.4375,0
54460,0.8125,-68.5625,-27.0625,0
54480,-0.625,-69.6875,-28.0625,0
54500,-6.75,-68.125,-29.25,0
54520,-12.875,-67.125,-33.5625,0
54540,-24.0625,-66.8125,-35.5,0
54560,-29.9375,-65.8125,-31.75,0
54580,-16.875,-63.125,-32.125,0
54600,1.5,-58.6875,-35.3125,0
54620,-10.6875,-52.625,-28.0625,0
54640,-22.875,-42.625,-21.375,0
54660,-16.625,-34.75,-26.0625,0
54680,-15.0625,-28.875,-27.6875,0
54690,-2,-24.5,-22.375,0
54710,14.125,-25.4375,-26.875,0
54730,14.6875,-23.25,-33.75,0
54750,6.125,-12.75,-31.8125,0
54770,7,0.0625,-37,0
54790,18.25,7,-41.4375,0
54810,33.4375,2.875,-38.625,0
54830,27.25,6.8125,-36.6875,0
54850,24.1875,17,-35.8125,0
54870,18.125,16.8125,-43.1875,0
54890,-0.1875,11.1875,-45.0625,0
54910,-3,7,-40.9375,0
54930,16.5,6.0625,-32.9375,0
54950,15.9375,8.1875,-26,0
54970,5.6875,13.75,-19.6875,0
54990,-5.875,14.0625,-13.375,0
55010,-5.5,11.875,-11.1875,0
55030,3,9.1875,-7,0
55050,4.5,3.875,-1.8125,0
55070,1.875,2,1.125,0
55090,1,-0.25,2.375,0
55110,-0.3125,-2.5,3.4375,0
55130,-0.3125,-2.5,6.375,0
55150,5.4375,-4.25,6.9375,2001
55170,7.75,-7.5,6.0625,0
55210,1.5,-11,5.5,0
55230,-4.1875,-8.5625,4.9375,0
55250,1.5,-4.875,3.3125,0
55270,7.625,-7.0625,1.625,0
55290,12.9375,-11.3125,0.25,0
55310,17.125,-13.4375,-0.75,0
55330,15.75,-11.8125,0.1875,0
55350,9.9375,-8.5625,0.0625,0
55370,12.9375,-8.5,0.8125,0
55390,22.4375,-8.25,2.1875,0
55410,38.625,1.8125,19.25,0
55430,53.625,7.5625,33.625,0
55450,71.6875,8.6875,36.8125,0
55470,79.1875,11.4375,34.1875,0
55490,87.8125,22.125,35.875,0
55510,115.438,42.375,37.125,0
55510,164.812,61.75,11.4375,0
55530,169.188,61.9375,18.5625,0
55550,148.875,57.4375,31.875,0
55570,144.75,61.5,36.25,0
55580,140.375,72.3125,29.125,0
55630,86.125,81.375,58.1875,0
55630,68.75,89.5,57.3125,0
55670,45.625,79.1875,32.8125,0
55700,44.125,56.125,11,0
55710,11.4375,11.1875,-0.0625,0
55730,10.1875,3.625,-3.125,0
55750,2.3125,-1.875,-6.4375,0
55760,6.25,-5.9375,-8.9375,0
55810,13.25,0.875,-1.375,0
55870,4.6875,-20.0625,5.75,0
55910,0.9375,-24.375,4.8125,0
55920,1.6875,-25.5625,2.25,0
55940,5.375,-27.1875,2.4375,0
55940,11.0625,-34.75,4.9375,0
55960,14.9375,-35.8125,0.4375,0
56000,2.625,-32.4375,-5.125,0
56020,-3.5,-23.375,-10.625,0
56040,9.9375,-17.1875,-15.25,0
56040,-4.5,-11,-20.8125,0
56060,-11.875,-11.1875,-14.75,0
56090,-35,4.625,-6.0625,0
56110,-49.875,15.0625,3.3125,0
56130,-55.25,27.1875,2.125,0
56170,-16.4375,57,34.3125,0
56190,-10.1875,72.4375,35.9375,0
56210,-14.1875,70.5,37.1875,0
56230,-19.75,88.25,29.9375,0
56320,12.4375,0.625,6,0
56340,10.125,-2.4375,1.1875,0
56380,3.5,-15.25,-3.75,2000
56410,-32,-8.3125,2.3125,0
56430,17.9375,-2.25,2.3125,0
56470,-19.8125,-10.4375,-12.875,0
56500,18.75,-29.3125,-8.3125,0
56510,1.875,-33.125,-4.4375,0
56520,-19.8125,-39,-6.25,0
56540,-4.1875,-51,-7.5,0
56560,-11.8125,-45.625,-23.375,0
56570,-8.875,-42.25,-21.5,0
56600,-6.1875,-34.125,-16.5,0
56620,-4.6875,-28.125,-13.5625,0
56640,-7.1875,-23.75,-14.125,0
56660,-6.0625,-15.0625,-15.6875,0
56680,-3.375,-7.25,-21.875,0
56690,-16.5625,6.75,-37,0
56710,-44.1875,55.0625,-59.1875,0
56730,-43.3125,64,-57.5625,0
56740,-52.875,70.5625,-37.625,0
56760,-58.1875,62.875,-29.0625,0
56780,-56.8125,58.25,-32.3125,0
56810,-37.25,42.1875,-23.5625,0
56820,-32.3125,38.5,-20.9375,0
56840,-33.5,35.75,-15.6875,0
56870,-23.1875,23.25,-11.875,0
56890,-13.4375,23.5625,-0.125,0
56910,-3.875,18.125,3.1875,0
56930,-6.8125,14.5625,12.875,0
56950,-11.8125,13.75,15.8125,0
56970,-14.75,11.8125,17.3125,0
56990,-14.6875,11,11.5,0
57010,-8.375,10.625,13.375,0
57030,-4.1875,10.6875,16.125,0
57050,-7.5625,7.4375,15.75,0
57070,-20.3125,12.4375,13,0
57090,-28.3125,13.6875,13.375,0
57110,-16.375,11.5625,17.0625,0
57130,-8.25,6.9375,24.0625,0
57150,-13.3125,6.8125,30.75,0
57170,-15.25,4.125,31.375,0
57190,-13.1875,2.125,30.5,0
57210,-4.125,-0.0625,32.4375,0
57230,-0.0625,-1.5,29.375,0
57250,6.25,-2.5,25.1875,0
57270,8.1875,-4.875,23.125,0
57290,10.1875,-9.1875,24.375,0
57310,10.5625,-10.5625,20,0
57330,11.9375,-13.3125,19.25,0
57350,8.9375,-17.4375,21.6875,0
57370,10.625,-20.375,18.9375,0
57400,10.9375,-27.625,21.5,0
57420,-8.1875,-48.9375,19.625,0
57440,-23.375,-55.25,26.375,0
57470,-25,-64.3125,28.75,0
57500,-20.3125,-71.5625,30.125,0
57510,-28.0625,-80.1875,29.625,0
57530,10.5,-48.75,-30.25,0
57570,6.25,-32.8125,-36.5625,0
57600,5.375,-24.0625,-31.5,0
57620,3.1875,-16.625,-33.25,0
57640,-1.75,-7,-34.625,0
57650,-4.1875,-0.1875,-30.4375,0
57680,10.3125,3.9375,-43.0625,0
57700,5.0625,8.125,-48.875,0
57720,-6.625,17.5,-48.1875,0
57740,-17.1875,24.125,-49.8125,0
57760,-14.625,28.5,-56.5625,0
57780,-16.25,27.6875,-57.8125,0
57800,-14,30.6875,-59.875,0
57820,-19.5625,33.25,-67.1875,0
57840,-30.625,35.4375,-74.0625,0
57860,-36.125,42.625,-67.5625,0
57880,-43.5,51.8125,-60,0
57900,-46.8125,57.375,-53.6875,0
57920,-52.125,57.3125,-52.5625,0
57940,-52.25,58.1875,-47.25,0
57960,-47.25,63.375,-40.8125,0
57980,-45.5625,67.125,-36.5,0
58000,-45.9375,63.3125,-25.4375,0
58020,-56,62.1875,-17.375,0
58040,-49.4375,62.625,-8.1875,0
58060,-35.75,60.8125,0,0
58080,-17.1875,57.125,8.8125,0
58110,1.3125,49.0625,26.875,0
58130,-6.0625,44.1875,27.8125,0
58150,-25.9375,38.0625,16.875,0
58170,-26.5625,33.8125,10.1875,0
58190,-11.5625,30.0625,12.9375,0
58210,-1.4375,34.375,16.9375,0
58230,-2.875,38.75,14,0
58250,-8.9375,39.75,13.1875,0
58270,-7.625,40.8125,11.125,0
58290,-6.375,44.8125,9.0625,0
58310,-4.8125,45.9375,10.5,0
58330,-10.8125,53.1875,20.5,0
58350,-4,60.4375,27.1875,0
58370,16.625,59.625,28.625,0
58390,-0.1875,56,21.75,0
58410,-11.375,49.1875,27,0
58440,0.3125,31.875,28.0625,0
58470,-21.75,5.75,38.9375,0
58490,-27.5,3.375,41.3125,0
58510,-0.875,-10.125,40,0
58530,-13.0625,-11.1875,43.6875,0
58540,-19.875,-9.6875,37.1875,0
58550,-9.5,-10.9375,25.8125,0
58570,-4.0625,-20.125,24.4375,0
58590,5.75,-26.9375,24.5625,0
58610,17.5625,-29.625,24.375,0
58630,2.5,-29.25,19.4375,0
58650,-14.1875,-30.4375,15.125,0
58670,-24.5,-38.4375,18.375,0
58690,-14.0625,-41.5,19.0625,0
58710,6.25,-36.625,14.875,0
58730,-1.3125,-40.375,16.1875,0
58750,-36.5,-46.1875,23.9375,0
58770,-41.5,-44.6875,23.125,0
58790,-18.625,-45.0625,20.3125,0
58810,-7.75,-51.75,22.125,0
58830,-14.625,-58.8125,29.5,0
58850,-38.9375,-59,36.25,0
58870,-41.125,-55.3125,32.125,0
58890,-30.5,-53,22,0
58910,-21.75,-53.5,20.0625,0
58930,-17,-57.375,17.9375,0
58950,-3.8125,-60.9375,11.25,0
58970,0.1875,-64.125,6.25,0
58990,-9.3125,-65.5625,3.4375,0
59020,-13.3125,-62.5625,-7.3125,0
59040,-7,-65.4375,-15.375,0
59060,-5.25,-69.375,-21.5,0
59080,-4.5625,-65.8125,-24.125,0
59100,1.75,-63.9375,-32.0625,0
59120,-3.625,-64,-38.6875,0
59140,-6.875,-59.4375,-39.0625,0
59160,-7.875,-54.5625,-40.5,0
59180,-4.25,-53.6875,-44.125,0
59190,-3,-55.375,-46.3125,0
59210,-6.8125,-54.4375,-44.875,0
59240,-17.125,-44.9375,-40,0
59260,-16.4375,-39.6875,-37.75,0
59280,-16.5625,-39.1875,-40,0
59300,-17.5,-34.0625,-39.8125,0
59310,-14.625,-24.1875,-38.9375,0
59320,-26.5625,-7.1875,-32.375,0
59320,-22,-1.125,-31.1875,0
59340,-11.3125,3.4375,-32.125,0
59360,-5.5625,8.625,-31.9375,0
59390,-22,43.1875,-45.1875,0
59410,-31.6875,56.375,-39.4375,0
59430,-40,57.9375,-38,0
59450,-47.5,60.625,-35.875,0
59470,-41.5625,62.375,-33.0625,0
59470,-30.4375,65.4375,-27.75,0
59480,-25.8125,66,-16,0
59500,-30.5,65.8125,-8.8125,0
59520,-42.125,68.3125,-7.1875,0
59540,-45.9375,67.625,0.9375,0
59560,-43.5,66.8125,10.875,0
59580,-33.375,70.1875,14.8125,0
59600,-19.625,67.6875,18.25,0
59620,-30.25,64.75,26.4375,0
59640,-39.1875,67.4375,30.8125,0
59660,-35.875,68.4375,37.125,0
59680,-32.625,66.0625,40.5,0
59700,-26.1875,62.3125,43.375,0
59720,-28.3125,57.0625,46.1875,0
59740,-33.1875,50.4375,49.5625,0
59760,-29.6875,43.0625,52.75,0
59780,-25.6875,37.75,48.9375,0
59800,-32.1875,39.75,40.25,0
59820,-40.0625,39.0625,36.5625,0
59840,-36.5625,34.125,38.1875,0
59860,-13.8125,33,36.4375,0
59880,1.5625,29.1875,34.1875,0
59900,-7,28.5,33.8125,0
59920,-32.5,30.1875,31.5,0
59940,-25.6875,25.1875,32,0
59960,2.9375,19.375,29.6875,0
59980,-2.8125,16.0625,28.6875,0
60000,-9.5,13.1875,25.3125,0
60030,-0.125,4.75,25.25,0
60060,2.8125,2.1875,27.0625,0
60080,1.25,-6.0625,25.125,0
60100,0.3125,-10.1875,21.0625,0
60120,3.125,-16.4375,22.25,0
60140,-1.25,-22.3125,21.9375,0
60160,-14.625,-18.9375,22.1875,0
60180,-10.6875,-20.6875,18.8125,0
60200,-10.375,-29.9375,14.875,0
60200,-17.1875,-31.75,14.9375,0
60200,-11.9375,-31.375,15.8125,0
60220,-1.3125,-32.875,10.6875,0
60240,-5.125,-36.8125,10.1875,0
60260,-5.1875,-41.3125,8.1875,0
60280,-2.875,-41.4375,7.875,0
60300,-6.4375,-42.0625,3,0
60320,-7.75,-44,-1.625,0
60340,-14.375,-50.625,-0.8125,0
60360,-11.8125,-48.0625,-3.1875,0
60380,1.1875,-54.1875,-8.75,0
60400,-7.9375,-62.0625,-9.9375,0
60420,-34.25,-66.375,-8.875,0
60440,-46.5625,-70.0625,-13.4375,0
60460,-35.4375,-75.0625,-20.8125,0
60480,-27.0625,-83.8125,-22.6875,0
60500,-35.5,-83.5625,-22.5625,0
60520,-24.375,-78.75,-28.3125,0
60540,-19.125,-79.4375,-32.75,0
60560,-31.25,-76,-33.875,0
60580,-35.75,-69.5625,-32.9375,0
60600,-20,-64.875,-33.3125,0
60620,-2.625,-59.125,-34.875,0
60640,-1.375,-50,-35.0625,0
60660,-5.625,-35.75,-29,0
60680,-8.125,-32.25,-30.0625,0
60700,-4.5,-31.375,-32.5,0
60720,0.8125,-25.3125,-28.6875,0
60740,3,-22.3125,-30.125,0
60760,-0.125,-19.875,-33.8125,0
60780,-4.0625,-20.875,-33.5625,0
60800,-6.125,-19.75,-35.8125,0
60820,-0.8125,-14.5625,-36.6875,0
60840,5.9375,-11.75,-38.3125,0
60860,4.0625,-13.9375,-42.875,0
60880,-2.875,-11.5625,-50.625,0
60900,-17.375,-5.0625,-50.6875,0
60920,-17.375,-1.6875,-47.75,0
60940,-12.0625,0.5625,-41.25,0
60960,-6.5,2.8125,-35.0625,0
60980,7.25,5.9375,-30.125,0
61000,8.5,10.625,-25,0
61020,-3.625,13.1875,-18.375,0
61040,-12.8125,14.625,-10.875,0
61060,-5.5,16.8125,-6.8125,0
61080,2.1875,12.1875,-2.0625,0
61100,2,7.5,2.9375,2001
61120,0.125,7.125,0.8125,0
61140,-1.5,3.875,2.5625,0
61160,-2.75,-1.75,3.5625,0
61180,-4.4375,-6.1875,5.375,0
61200,1.9375,-7.5,4.375,0
61220,4.5,-7.125,0.8125,0
61230,3.1875,-9.8125,-3.1875,0
61250,5.3125,-12.0625,-3.8125,0
61270,10.1875,-13.875,-0.6875,0
61290,12.25,-14.625,-1.375,0
61310,3.9375,-13.4375,-3.6875,0
61330,-3,-15.6875,-3.9375,0
61350,2.25,-18.4375,-4.25,0
61380,6.25,-13.375,2.0625,0
61400,10.4375,-4,3.5,0
61430,15.3125,-0.125,14.6875,0
61450,38.3125,-6.5,29.125,0
61470,50.1875,3.4375,37.8125,0
61490,68.4375,16.3125,41.75,0
61510,66.75,22.5,52.75,0
61530,62.25,22.625,60.5,0
61550,74.6875,20.3125,60.9375,0
61570,93.3125,25.375,59.5625,0
61590,89.3125,27.4375,62.6875,0
61610,78.75,29,69.75,0
61630,81.3125,35.8125,71.0625,0
61660,92.5,28.5625,67.625,0
61680,84.375,24.25,65.5,0
61700,84.25,24.1875,58.75,0
61720,94.6875,25,59.3125,0
61740,92.875,14.875,62.5625,0
61760,88.6875,12,62.625,0
61780,96.125,15.1875,55.125,0
61800,91.4375,14.0625,45.75,0
61820,77.3125,18.6875,43.5625,0
61840,72.25,26.125,44.75,0
61860,76.5625,29,40,0
61880,83.0625,27.75,32.875,0
61900,82.75,23.8125,28,0
61920,73.875,24.3125,26.125,2000
61940,70.4375,24.3125,21.375,0
61950,63,24.375,11.9375,0
61980,1.9375,-8.3125,-5.0625,0
62000,6.75,-44.75,-1.0625,0
62030,4.5,-21,-8.625,0
62070,3.625,-11.4375,5.0625,0
62100,10.625,-4.75,-18.5,0
62120,7.625,-0.3125,-23.9375,0
62140,0.125,6.5625,-24.8125,0
62160,-11.5625,24.5625,-40.25,0
62170,-15.6875,28.75,-40,0
62200,-32.0625,33.625,-40.4375,0
62240,-30.625,44.875,-40.5625,0
62260,-26.3125,38.625,-42.25,0
62280,-29.25,29.75,-40.5,0
62300,-23.3125,29.6875,-31.3125,0
62320,-27.5625,22.0625,-19.625,0
62340,-17.8125,21.4375,-9.125,0
62360,-22.3125,19.625,-9.0625,0
62380,-21.625,21.4375,-9,0
62390,-12.8125,19.8125,-9.9375,0
62410,-11.125,17.8125,-5.4375,0
62430,-14.5625,20.4375,0.25,0
62440,-15.625,21.0625,2.6875,0
62450,-19.125,22.3125,2.625,0
62470,-14,20.3125,-0.6875,0
62490,-4.6875,16.75,-1.4375,0
62510,-1.5,13.75,6.625,0
62530,-15.1875,10.75,10.25,0
62550,-22.5625,13.75,9.4375,0
62570,-11.0625,10.375,5.4375,0
62590,-4.0625,7.1875,12.1875,0
62610,-6.375,8.8125,21.125,0
62630,-8.5625,6.3125,21.9375,0
62650,-15.5,2.9375,22.3125,0
62670,-12.4375,2.8125,28.1875,0
62690,-4.5625,2.75,32.375,0
62710,-9.875,3.375,32.1875,0
62730,-1.875,4.5625,31.4375,0
62750,0.9375,5.9375,23.25,0
62770,10.625,8.5,21.0625,0
62790,8.8125,4.5,21.875,0
62820,8.75,-1.875,21.625,0
62840,3.375,-4.5,22.375,0
62860,0.25,-7.875,21.4375,0
62880,5.1875,-12.4375,18.5,0
62900,9.0625,-13.5,16.9375,0
62920,6.0625,-14.375,7.8125,0
62940,-4.625,-15.75,5.9375,0
62960,0.0625,-13.625,6.5625,0
62980,9.75,-7.125,4.75,0
63000,15.3125,-2.0625,4.375,0
63020,1.6875,0.9375,5.625,0
63040,-9.625,0.125,9.4375,0
63050,-9.5625,-1.125,15,0
63070,0.5625,0.625,14.6875,0
63090,1.1875,-0.125,13.875,0
63110,-6.6875,-0.0625,13.5,0
63130,-8.8125,1.125,8.5625,0
63150,1,-1.125,4.8125,0
63170,5.25,-3.3125,9.5625,0
63190,3.75,1.0625,14.5,0
63230,0,-4.1875,19.5625,0
63240,-0.875,-6.6875,21.5625,0
63260,5.0625,-7.5,21.0625,0
63270,3,-12.4375,21.875,0
63290,-4.4375,-14.6875,22.75,0
63310,3.75,-23.5,25.4375,0
63330,-2.75,-26.625,25.5,0
63330,1.375,-35.0625,21.875,0
63350,1.6875,-37.3125,19.375,0
63370,-1.375,-42.8125,19.375,0
63390,-4.9375,-45.625,21.875,0
63410,-5.1875,-44.9375,21.75,0
63430,-2.3125,-45.375,19.3125,0
63440,-4.375,-48.75,19.8125,0
63480,-10.5,-50.75,15,0
63500,-4.375,-51.875,14.25,0
63520,-1.375,-54.25,16.0625,0
63540,-6.625,-55.5625,14.9375,0
63560,-7.8125,-56.3125,13,0
63580,-9.375,-58.375,12.625,0
63600,-8.875,-61.0625,10.5,0
63600,-8.875,-64.3125,8.3125,0
63620,-6.25,-65.6875,4.5,0
63630,1.875,-69.0625,-2.75,0
63670,3.8125,-68.375,-9.375,0
63700,8.1875,-59.625,-22.6875,0
63720,9.875,-58.0625,-21.9375,0
63740,6.0625,-52.375,-22.875,0
63760,9.0625,-37.375,-29.75,0
63780,7.375,-34.25,-28,0
63800,4.8125,-29.1875,-23.875,0
63820,9.0625,-18.5,-21.8125,0
63840,17.125,-8.75,-27.6875,0
63850,13.25,-5.4375,-27,0
63850,4,-2.125,-27.5,0
63870,6.625,3.375,-35.0625,0
63890,11.4375,5.5,-41.5625,0
63910,1.875,12,-42.75,0
63950,-5.0625,25.125,-47.375,0
63980,-9.1875,34.5,-61.6875,0
64000,-7.0625,36.875,-59,0
64020,-12,41.4375,-57.8125,0
64040,-21.9375,39,-54,0
64060,-31.25,37.4375,-51.9375,0
64080,-33.75,38.3125,-53.5,0
64100,-36.75,37.125,-52.8125,0
64120,-38.4375,36.1875,-51.6875,0
64140,-45,37.25,-49,0
64160,-48.9375,40.8125,-42.5625,0
64180,-46.875,40.875,-40.25,0
64200,-41.9375,40.25,-40.8125,0
64220,-41.5625,37.5625,-40.9375,0
64240,-43,34.1875,-35.4375,0
64260,-40.6875,29.8125,-34.4375,0
64280,-41.125,29.1875,-29.75,0
64300,-42.1875,28.125,-25.3125,0
64320,-40.3125,24,-23,0
64340,-38.0625,23.25,-18.625,0
64360,-33.5625,22.375,-14,0
64380,-26.875,21.125,-11.6875,0
64400,-25.25,18.8125,-8.3125,0
64420,-33.75,22.0625,-5.8125,0
64440,-33.1875,24.75,-3.3125,0
64460,-22.4375,30.3125,1.0625,0
64480,-11.375,33.6875,7.5,0
64500,-13.125,34.5625,8.3125,0
64520,-27.375,41.0625,6.4375,0
64540,-36.8125,45.625,17.5,0
64560,-31.3125,51.875,30.125,0
64580,-14.1875,53.4375,30.75,0
64600,-2.875,57.4375,28.625,0
64620,-12,54.0625,23.0625,0
64640,-15.4375,49.625,25.5,0
64660,-16.5625,45.875,30,0
64680,-9.375,44.125,29.5,0
64700,-1.375,41.125,29.75,0
64720,-4.6875,37.9375,32.5,0
64740,-16.5625,36.5,36.3125,0
64760,-16.8125,31.0625,37.0625,0
64780,-8.625,24.125,36.75,0
64790,-22.4375,24.5,43,0
64830,0.4375,22.875,31.625,0
64840,7.5,13.875,27.8125,0
64860,-5.3125,9.1875,27.9375,0
64880,-9.625,6.4375,23.1875,0
64890,-12.5,-3.1875,24.9375,0
64910,-3.5,-7.5625,30.5625,0
64920,-5.75,-23.3125,25.125,0
64940,-11.625,-32.25,29.8125,0
64960,-9.8125,-34.625,28.625,0
64980,-1.125,-36.875,25.125,0
65000,-1.375,-41.375,25.3125,0
65020,-7.375,-45.375,24.875,0
65040,-15.3125,-51.25,24.5,0
65060,-15.4375,-51.375,26.125,0
65080,-8.0625,-46.125,23.375,0
65100,-5.125,-47.5,22.1875,0
65120,-14.3125,-52.3125,22.5625,0
65140,-10.125,-51.625,19.4375,0
65160,3.4375,-53.1875,15.125,0
65180,-2.0625,-54,12.8125,0
65200,-17,-54.0625,13.6875,0
65220,-16.375,-55.1875,11.25,0
65240,-7.8125,-60.8125,7.9375,0
65260,-9.1875,-66.375,10.1875,0
65280,-10.9375,-68.5625,12.9375,0
65300,-11.75,-70,7.9375,0
65320,-13.6875,-72.1875,3.5,0
65340,-18.1875,-77.25,7.5,0
65360,-18.9375,-80,7.4375,0
65380,-11.0625,-80.0625,0.4375,0
65400,-5.0625,-77.9375,-2.6875,0
65420,-8.0625,-77.875,-6.625,0
65440,-9.25,-75.8125,-6.8125,0
65460,-3.8125,-74.125,-12.4375,0
65480,5.5625,-73.0625,-25.25,0
65500,0.0625,-69.9375,-29.8125,0
65520,-12.5,-62.8125,-29.9375,0
65540,-14.5,-61.25,-32.9375,0
65560,-2.0625,-57.5625,-39.4375,0
65580,2,-51.1875,-42.75,0
65610,11.75,-41.9375,-45,0
65630,12.6875,-41.125,-56,0
65650,3.375,-36.5,-61.875,0
65670,-6.8125,-32.125,-59.0625,0
65690,-9.1875,-27.9375,-56.8125,0
65710,-7.8125,-28.0625,-56,0
65730,-16,-25.1875,-54.25,0
65750,-26.5625,-22.5,-50.5,0
65770,-39.625,-15.75,-42.8125,0
65790,-40.0625,-7.75,-37.5,0
65810,-38.9375,-0.625,-37.625,0
65830,-40.625,7.3125,-35,0
65850,-30.8125,49.125,-37.5625,0
65860,-27.9375,61.75,-38.8125,0
65880,-30.5,64.25,-37.4375,0
65900,-32.75,66.375,-31.875,0
65920,-37.1875,69.5625,-28.8125,0
65940,-37.875,71.875,-25.9375,0
65960,-36.25,70.75,-18.875,0
65970,-32.4375,73.5,-13.3125,0
66010,-25,76.9375,-3.5,0
66030,-22.8125,75.4375,0.5,0
66060,-18,79.25,24.5625,0
66100,-19.25,66.875,24.75,0
66120,-14.9375,64.6875,27,0
66140,-17.0625,66.25,36.25,0
66160,-9,64,46.8125,0
66180,-15,59.6875,47.875,0
66200,-20.5625,55.875,39.875,0
66220,-23.9375,47.0625,47.125,0
66240,-23.375,45.6875,54.1875,0
66260,-4.375,40.875,51.75,0
66280,-13.0625,35.25,51.4375,0
66300,-26.875,19.3125,37.625,0
66320,-15.1875,13,40.0625,0
66340,-4.875,7.375,40.75,0
66360,-7,-0.6875,35.75,0
66380,-23.5,-9.1875,31.0625,0
66400,-28.8125,-12.625,30.5625,0
66420,-9.0625,-18,29.625,0
66440,-3.5625,-19.75,26.875,0
66460,-2.1875,-19,24.5,0
66480,-13,-21.3125,24.25,0
66500,-6,-25.25,21,0
66520,-5.875,-32.3125,23.8125,0
66540,-6.3125,-26.125,28.1875,0
66560,-2.625,-24.375,28.25,0
66580,-9.875,-31,23.75,0
66590,-11.5625,-31.9375,24.0625,0
66610,5.625,-33.5,22,0
66630,13.75,-36.8125,18.25,0
66650,9.1875,-36.25,15.0625,0
66670,10.125,-40.4375,9.875,0
66690,11.1875,-45.75,6.875,0
66710,16.625,-47.875,7,0
66730,11.9375,-50.9375,4.3125,0
66750,-2.0625,-54.0625,-0.5,0
66760,-12.4375,-59.3125,-6.5,0
66790,-6.75,-64.9375,-10.75,0
66810,-7.25,-68.3125,-11.3125,0
66830,-15.9375,-68.75,-10.875,0
66850,-24,-71.5625,-13.125,0
66870,-23.8125,-75.25,-16.75,0
66890,-25.9375,-81.1875,-18.625,0
66910,-25.6875,-81.0625,-18.0625,0
66930,-20.1875,-80.125,-20.75,0
66950,-16.875,-80.125,-27,0
66970,-15,-78.25,-30.625,0
66990,-19.75,-74.25,-30.5625,0
67010,-13.4375,-69.5,-32.875,0
67030,-7.75,-65.9375,-37.375,0
67050,-6.0625,-62.0625,-39.0625,0
67070,-13,-56.6875,-33.5625,0
67090,-13.3125,-50.5,-33.3125,0
67110,-2.1875,-47.5625,-39.5,0
67130,-4.0625,-43.25,-42.125,0
67150,-2.4375,-36.4375,-41.25,0
67170,-5.75,-29.1875,-39.875,0
67190,-0.25,-23.75,-41.4375,0
67210,2,-19.625,-43.8125,0
67230,-1.4375,-11.6875,-44.0625,0
67250,-8.75,-3.375,-40.1875,0
67270,-10.1875,2.125,-33,0
67290,3.8125,3.0625,-28.625,2001
67310,12.875,3.3125,-22.625,0
67330,7.625,7.125,-14,0
67350,1.75,14.5,-18.0625,0
67370,-2.3125,17.5625,-19.3125,0
67390,0.375,14.4375,-11,0
67410,5.375,13,-0.3125,0
67430,14.0625,12.0625,5.3125,0
67450,11.4375,-0.9375,3.9375,0
67490,43.9375,8,9.3125,0
67510,48.8125,9.125,16.125,0
67530,58.4375,17.0625,30.5625,0
67550,73.75,28.5625,38.125,0
67570,95.4375,35.8125,42.75,0
67610,118,46.375,44.6875,0
67630,109.938,43.0625,61.875,0
67650,108.5,47.125,69.6875,0
67670,126.375,60.125,57.3125,0
67690,124.875,77.1875,52.0625,0
67720,122.688,67.4375,58,0
67750,32.625,40.75,28,0
67790,36.25,3.5,-10.1875,0
67810,23.5625,-0.8125,-8.375,0
67810,23.3125,-0.1875,1.1875,0
67820,2.4375,2.4375,6.9375,0
67830,3.375,4.3125,4.6875,0
67860,7.5625,6.8125,9,0
67880,6.75,9.5,9,2000
67890,8.8125,8.4375,2.625,0
67910,11.5625,6.625,2.0625,0
67930,-12.3125,0.0625,0.8125,0
67960,8.5,-1.5,-0.25,0
67970,7.0625,0,-2,0
67990,-1.25,-4.75,-2.9375,0
68010,-2.375,-10.625,-1.5,0
68030,1.0625,-9.9375,0.0625,0
68050,5.5,-6.9375,-0.3125,0
68090,-0.3125,-12.25,-2.75,0
68100,5.0625,-16.8125,-2.6875,0
68100,-10.4375,-39.1875,12.4375,0
68130,-13.125,-37.3125,10.5625,0
68150,-7.125,-36.875,8.0625,0
68170,-1.5625,-33.6875,11.1875,0
68190,-0.5625,-34.375,0.6875,0
68210,-1.5625,-34.0625,-1.4375,0
68230,-1.125,-34.125,4.875,0
68250,6.75,-33.25,3.6875,0
68270,7.125,-34.5625,-5.375,0
68310,-7,-33.9375,-6.6875,0
68310,-5.5,-29.125,-6.1875,0
68340,-52.3125,37.1875,-31.1875,0
68360,-35.8125,28.6875,-21.8125,0
68360,-37.6875,30.4375,-17.875,0
68380,-38.5625,34.1875,-11.5,0
68400,-29.5625,34.4375,-13.1875,0
68420,-20.375,28.5625,-15.125,0
68440,-17.625,27.125,-9.75,0
68480,-29.3125,32.125,2.1875,0
68500,-25.875,31.9375,0.8125,0
68510,-13,29.3125,-5.75,0
68530,-3.9375,28.0625,0.5625,0
68570,-12.125,24.375,13.4375,0
68590,-6.25,20.5625,11.5,0
68610,4.4375,17.875,11.3125,0
68630,6.25,15.625,13.9375,0
68650,-4.1875,15.5625,17.4375,0
68670,-11,13.25,20.5625,0
68690,0.25,9.375,16.75,0
68710,9.9375,6.1875,17.4375,0
68730,2.1875,6.6875,22.9375,0
68750,-6.75,8.6875,26.125,0
68770,0.875,5,25,0
68790,5.8125,3.25,21.9375,0
68810,7.3125,3.3125,24.9375,0
68840,10.875,-0.875,17.6875,0
68850,12,-4.4375,21.8125,0
68870,7.6875,-8.5,25.8125,0
68890,1,-9.0625,27.75,0
68910,0.9375,-13.75,31,0
68930,1.5625,-17.5,29.8125,0
68950,-6.8125,-20.125,32.6875,0
68980,6.3125,-20.8125,25.375,0
68980,17.9375,-32.3125,27.125,0
69000,13.125,-36,22.5,0
69020,10.3125,-37.0625,25.5,0
69060,-2.3125,-45.6875,29.875,0
69090,-7.0625,-53.8125,26.625,0
69110,-6.8125,-56.3125,28.3125,0
69150,-7.9375,-56.5625,23.75,0
69170,-7.8125,-56.1875,19.4375,0
69190,-6.5625,-59.1875,22.0625,0
69210,-7.5625,-59.75,21.6875,0
69230,-8.4375,-62.0625,20.8125,0
69250,-17.875,-63.75,18.25,0
69270,-16.75,-66.9375,17.6875,0
69300,-4.1875,-68.4375,13.625,0
69320,-7.1875,-70.75,6,0
69340,-10.0625,-70.125,4.9375,0
69380,0.9375,-72.625,-3.5,0
69420,4.6875,-68.375,-8.5,0
69440,3.9375,-67,-14.6875,0
69460,7.0625,-64.625,-14.375,0
69480,5.875,-54.8125,-20.0625,0
69500,3.25,-50.5625,-21.1875,0
69520,7.125,-44,-25.8125,0
69530,1.25,-35.75,-27.375,0
69550,2.5,-29.4375,-31.0625,0
69570,4.5,-24.25,-37.4375,0
69590,-2,-4.0625,-50.6875,0
69660,-32.375,21.1875,-57.4375,0
69690,-31.5625,36.125,-60.9375,0
69710,-45.9375,44,-61.5625,0
69730,-60.1875,47.5625,-56.6875,0
69750,-67,52.6875,-56.75,0
69770,-59.5625,60.875,-58.5625,0
69790,-54.9375,70.4375,-55.5,0
69810,-68.0625,76.625,-43.625,0
69830,-71.6875,79.875,-36.125,0
69850,-71.875,81.9375,-34.1875,0
69860,-62.875,84.0625,-30.4375,0
69880,-51.75,85.0625,-24.625,0
69900,-46.1875,82.9375,-18.5625,0
69920,-46.5625,76.6875,-13.5625,0
69940,-49.75,68.625,-10.625,0
69960,-45.9375,64.3125,-5.6875,0
69980,-30.3125,58.1875,-7.125,0
70000,-12.375,52.0625,-5.4375,0
70020,-8.5625,48.3125,0.4375,0
70040,-15.625,43.625,3.25,0
70060,-31.875,44.0625,5.625,0
70080,-24.9375,46.125,9.5625,0
70100,-1.4375,45.3125,13.5,0
70120,8.8125,44.9375,21.5,0
70140,2.3125,40.25,26.8125,0
70160,-10.5,38.4375,24.125,0
70180,-8.6875,35,24.8125,0
70200,3.6875,34,28.3125,0
70220,8.375,33.125,27.3125,0
70240,-0.1875,30.4375,27.4375,0
70260,-0.6875,28,29.25,0
70280,-0.5625,29.9375,27.8125,0
70300,11.625,31.5,30.75,0
70320,12.3125,26.875,31.6875,0
70340,5.8125,19.1875,32.4375,0
70370,-8.6875,-26.0625,42.6875,0
70390,-9.1875,-25.5625,31.25,0
70410,-5.625,-31.8125,27.1875,0
70430,3.4375,-40.875,29.25,0
70450,13.4375,-41.75,28.75,0
70470,11.5625,-44.1875,24.6875,0
70490,3.125,-43.5625,21.75,0
70510,8.25,-46.75,22,0
70530,18.1875,-51.9375,25.75,0
70550,16.75,-51.625,27.9375,0
70570,8.625,-52.25,26.8125,0
70590,-4.75,-51.375,26.8125,0
70610,0.875,-48.1875,26.3125,0
70620,15.4375,-50.5625,22.9375,0
70640,14.0625,-51.375,23.8125,0
70660,8.25,-49.3125,22.3125,0
70680,-0.6875,-46.9375,15.25,0
70700,7.4375,-51.8125,7.875,0
70730,2.75,-61.1875,5.5625,0
70750,-21.9375,-81.625,1,0
70770,-24.6875,-79.4375,1.625,0
70790,-13.375,-80.6875,-8.4375,0
70810,-26.6875,-86.6875,-5.6875,0
70830,-9.375,-87.25,-23.6875,0
70850,-21.375,-83.3125,-22.1875,0
70870,-10.25,-78.8125,-23.375,0
70890,-3.3125,-72,-31.4375,0
70890,-10.8125,-69.1875,-37.6875,0
70910,-20.3125,-62.5,-38.8125,0
70930,-14.875,-56.9375,-37,0
70950,-14,-51.75,-34.8125,0
70970,-26,-43.3125,-37.625,0
70990,-30.875,-33.4375,-38.8125,0
71010,-30.0625,-24.5625,-35.875,0
71030,-31.875,-14.125,-36.1875,0
71060,-40.9375,6.3125,-50.5,0
71080,-41.875,19.3125,-50.0625,0
71100,-37.0625,29.75,-55.3125,0
71120,-36.6875,42.125,-62.875,0
71160,-58.625,78.8125,-48.4375,0
71180,-60.4375,83.5,-46.5,0
71200,-53.5,81.5625,-36.25,0
71220,-51.375,84.25,-25.625,0
71240,-56.6875,87.625,-20.3125,0
71270,-42.3125,87.75,2.3125,0
71280,-39.875,90.3125,2.4375,0
71300,-34.0625,90.6875,7.4375,0
71320,-39.3125,90.375,23.625,0
71340,-33.3125,88.0625,33,0
71360,-29.5,83.5625,31.5625,0
71380,-23.75,79.625,33.6875,0
71400,-20.3125,75.625,40.9375,0
71420,-20.1875,71.5,49.6875,0
71440,-39.625,66.8125,51.0625,0
71460,-41.625,56.625,51.5625,0
71480,-45.5625,43.25,52.4375,0
71500,-36.375,38.25,57.6875,0
71510,-39.25,36.1875,58.3125,0
71530,-48.75,28.25,52.625,0
71550,-48.5625,17.5,47.875,0
71570,-35.6875,13.0625,43.75,0
71590,-16.875,15.8125,44,0
71610,-24,14.0625,41.6875,0
71620,-35.1875,0.875,32.625,0
71640,-8.3125,2.1875,26,0
71660,1.25,3.625,30.5,0
71680,-15.125,3.375,27.875,0
71700,-19.4375,1.125,20.8125,0
71720,-2.125,-5.875,20.4375,0
71740,2.3125,-9.8125,23.375,0
71760,-0.6875,-10.5,22.75,0
71780,-5.75,-10.25,18.25,0
71800,-1.375,-15.25,19.125,0
71820,1.375,-22.625,18.1875,0
71840,2.5625,-24.5,19.3125,0
71860,3.25,-27,22.875,0
71880,-7.375,-30.875,25.5,0
71900,-16.9375,-38.6875,27.75,0
71920,-21.5625,-46.75,36.3125,0
71940,-27.125,-51.0625,41.125,0
71960,-36,-54.9375,39.625,0
71980,-44.125,-60.5625,39.4375,0
72000,-46.375,-64.9375,38.9375,0
72020,-39.125,-67.625,32.9375,0
72040,-27.125,-72,21.875,0
72060,-28.875,-73.25,15.875,0
72080,-31.25,-73.5,10.8125,0
72100,-20.8125,-72.5,2.625,0
72120,-10,-69.8125,-9.25,0
72140,-4.1875,-70.375,-16.125,0
72160,-5.8125,-70.25,-22.9375,0
72180,3.8125,-66.25,-30.75,0
72200,18.6875,-64.5625,-38.5,0
72220,14.4375,-63.3125,-36.625,0
72240,3,-63.125,-32.1875,0
72260,-3.1875,-60.3125,-32.375,0
72290,3.75,-57.6875,-36.5,0
72310,-8.6875,-56.25,-37.8125,0
72330,-14.625,-53.1875,-42.3125,0
72350,-12.0625,-52.125,-46.25,0
72370,-7.3125,-53.3125,-49.125,0
72390,-6.6875,-51.625,-48.75,0
72410,-14.1875,-48.5625,-45.1875,0
72430,-20.25,-46.5,-48.5625,0
72450,-26.8125,-44.875,-50.0625,0
72470,-25,-42.75,-45.375,0
72490,-16.0625,-38.0625,-43.125,0
72510,-7.9375,-29.875,-40.6875,0
72530,-8.625,-20.875,-37.25,0
72550,-10.875,-10.875,-38.1875,0
72570,-8.125,-6.1875,-33.4375,0
72590,2.4375,-4.9375,-21.375,2001
72610,15.4375,2.4375,-19,0
72630,6.3125,11.4375,-23.125,0
72640,-16.75,15.8125,-18.5,0
72660,-16.625,15.875,-6.5,0
72680,5.6875,15.1875,3,0
72700,28.25,15.875,6.75,0
72710,-6.8125,14.25,11.5,0
72750,33.125,2.5,27.6875,0
72760,27.375,3.1875,28.9375,0
72780,30.0625,6.125,36,0
72800,45,5.625,34.9375,0
72820,64.8125,4.5,24.875,0
72840,68.5,16.0625,14.1875,0
72860,81.875,19.375,20.9375,0
72880,88.125,20.875,30.25,0
72900,102.75,32.125,33.3125,0
72900,126.625,43.6875,36.1875,0
72900,133.688,48.5,42,0
72920,117.188,48.75,49.3125,0
72920,128.688,63.8125,52.375,0
72940,90.5,68.0625,63.125,0
72950,98.3125,64.75,49.5,0
72970,84,58.6875,41.5625,0
72990,65.5,61.5,42.0625,0
73010,43.875,38.8125,16.5625,0
73030,24.1875,39.75,6.8125,0
73050,7.6875,40.125,4.8125,0
73070,8.5,32.75,0.9375,0
73090,6,25.25,-4.5625,0
73110,15.6875,21.3125,-10.6875,0
73130,20.875,11.0625,-7.25,0
73150,3.8125,8.25,-4.6875,0
73170,-5.125,7.3125,-7.375,0
73190,-2.9375,2.5625,-5,2000
73220,13.5,-1.375,6.5,0
73220,10.3125,-1.8125,5.5625,0
73280,-11.6875,2.1875,2.4375,0
73320,-0.3125,2.25,2.3125,0
73340,0.1875,1.0625,-0.375,0
73360,-1.5,0.75,-1.0625,0
73380,-5.125,-0.75,0,0
73410,5.5625,-7.125,-4.0625,0
73430,8.8125,-11.25,-2.875,0
73470,-3.6875,-23.125,-1.4375,0
73490,-8,-30.6875,-0.9375,0
73510,-3.9375,-36.75,0.3125,0
73530,3.625,-44.875,2.375,0
73540,-1.5,-47.0625,-8.4375,0
73570,-0.75,-40.625,-10.5625,0
73590,-0.0625,-36.25,-18.875,0
73630,-6.1875,-21.125,-33.1875,0
73650,-9.625,-16.875,-44.4375,0
73670,-12,-14.125,-49.5,0
73690,-16,-7.875,-52.25,0
73710,-14.25,2.25,-49.875,0
73730,-9.75,12.5625,-55.75,0
73750,-20.75,17.0625,-56.9375,0
73770,-36.125,19.4375,-52.25,0
73790,-48.5625,25.125,-50.3125,0
73800,-65.125,73.75,-40.875,0
73820,-53.5625,91.25,-39.875,0
73840,-54.4375,92.25,-35.1875,0
73860,-50.6875,90.375,-35.3125,0
73880,-54.625,90.4375,-37.5625,0
73900,-61.875,86.9375,-37.375,0
73920,-61.1875,81.25,-36.6875,0
73940,-49.3125,76.375,-30.8125,0
73960,-39,74.125,-18.875,0
73980,-34.9375,69.75,-17.5625,0
74000,-38.75,67.4375,-19.625,0
74020,-28.625,58.8125,-11.875,0
74040,-10.3125,52.8125,-2.8125,0
74100,-0.3125,33.5625,4.375,0
74120,8.625,32.375,9.875,0
74140,-3.25,28.0625,21.6875,0
74160,-19.5625,24.6875,21.125,0
74180,-21.5625,19.0625,16.9375,0
74200,11.625,13.3125,26.0625,0
74220,18.8125,10.4375,39.125,0
74240,0.8125,9.3125,44.4375,0
74260,-17.8125,3.8125,36,0
74280,-30.8125,2.4375,33.5625,0
74300,-11.25,0.8125,39,0
74320,9,0.3125,39.5625,0
74340,24.9375,-5.25,30.6875,0
74360,12.9375,-10.4375,22.5625,0
74380,5.5625,-12.6875,25.375,0
74400,10.0625,-12.3125,25.375,0
74420,16.9375,-13.6875,23.6875,0
74440,12.0625,-18.9375,30.25,0
74450,2.5625,-22.125,37.0625,0
74470,-13.8125,-18.875,41.25,0
74490,-12.5,-22.3125,42.4375,0
74510,-8.9375,-26.6875,43,0
74560,4.9375,-58.125,22.9375,0
74580,4.25,-62,21.6875,0
74600,4.625,-68.5,17.3125,0
74620,-2.6875,-76.3125,15.1875,0
74640,-5.6875,-80.75,17.8125,0
74660,-7.25,-81.9375,15.6875,0
74680,1.0625,-84.4375,10,0
74700,3.875,-84.1875,6.9375,0
74720,3.3125,-84.5625,3.6875,0
74730,-2.9375,-88.1875,1.375,0
74750,2.625,-87.375,-2.4375,0
74770,12.0625,-87.375,-6,0
74790,1.75,-80,-16.8125,0
74790,13.6875,-82.1875,-19,0
74830,28.5625,-75.375,-33.0625,0
74850,15.0625,-73,-34.625,0
74870,-7.125,-69.625,-33.4375,0
74880,-2.625,-55.375,-49.6875,0
74900,1.9375,-33.4375,-40.3125,0
74920,-1.5625,-22.1875,-41.9375,0
74950,0.5625,4.1875,-52.9375,0
74960,11.3125,14.8125,-52.9375,0
74980,3.25,24.625,-54.5,0
75000,-12,31.3125,-54.5,0
75020,-28.375,37.5,-58.6875,0
75040,-36.25,48,-65.5625,0
75060,-42.4375,58.9375,-60.375,0
75080,-45.4375,69.3125,-50.8125,0
75100,-50.25,80.3125,-52.1875,0
75120,-57.5,87.125,-51.25,0
75140,-64.375,90.875,-49.1875,0
75160,-65,95.6875,-46.3125,0
75180,-63.8125,98.4375,-40.5625,0
75200,-65.1875,94.8125,-30.4375,0
75220,-66.375,90.0625,-23.9375,0
75240,-66.875,87.3125,-24,0
75260,-62,80.25,-19.25,0
75280,-53.4375,76.9375,-13.5,0
75300,-47.3125,72.8125,-10.125,0
75320,-46.5625,68.6875,-3.0625,0
75340,-54.125,59.6875,1.9375,0
75360,-41.625,52.5,3.25,0
75380,-30.0625,44,12.4375,0
75400,-35.75,34,26.5625,0
75420,-50.0625,41.6875,39.6875,0
75440,-57.875,54.875,44.8125,0
75460,-68.625,59.875,54.25,0
75480,-49.5,61.25,61.3125,0
75500,-8.3125,57.6875,50.25,0
75520,14.8125,54.875,44.625,0
75540,-0.9375,53.0625,46.875,0
75560,-42.0625,55.75,45,0
75580,-35.5,47.3125,39.4375,0
75600,-16.5,17.5625,35.625,0
75620,-26.4375,10.3125,27.5625,0
75640,-21.875,4,25.625,0
75660,0.25,-5.5,28.3125,0
75680,10.6875,-9,29.6875,0
75700,14.25,-8.75,25.4375,0
75720,0.1875,-16.1875,23.5625,0
75740,-1.8125,-24.5625,28.125,0
75760,9.5625,-29.1875,25.4375,0
75780,16.9375,-33.9375,27.4375,0
75800,18.4375,-36.5625,29.5,0
75820,3.625,-43.9375,24.4375,0
75840,-12.5625,-46.25,24.8125,0
75860,2.1875,-47.5,25.875,0
75880,20.625,-49.0625,20.3125,0
75900,26.8125,-51.625,17.875,0
75910,-0.625,-59.8125,18.8125,0
75920,-11.375,-58,16.8125,0
75940,1.9375,-60.9375,12.5,0
75960,0.4375,-60.5,15.5,0
75980,1,-59.25,12.8125,0
76000,3.8125,-61.375,10.375,0
76020,7.0625,-62.1875,11.8125,0
76040,-1.625,-62.1875,14.3125,0
76060,-1.5625,-63.5,15.4375,0
76080,-8.625,-70,11.5625,0
76100,-6.8125,-76.0625,5.5,0
76130,-12.0625,-79,2.5625,0
76150,-16.5625,-79.25,1.625,0
76170,-13.25,-77.4375,-5.5,0
76180,-0.75,-76.875,-14.625,0
76210,-13.3125,-65.25,-26.4375,0
76230,-12.1875,-63.625,-36,0
76250,-10.5,-64.4375,-38.75,0
76270,-8.8125,-61.9375,-38,0
76290,-7.75,-57.875,-39.5625,0
76310,-1.5,-52.6875,-45.875,0
76330,-6.5,-49.6875,-46.1875,0
76350,-16.6875,-45.75,-40.5,0
76370,-11.375,-42,-40.125,0
76390,-11.5625,-38.0625,-43.0625,0
76410,-14.3125,16.5,-41.0625,0
76440,-24.3125,29.125,-43.1875,0
76460,-27.3125,38.625,-44.625,0
76480,-16.9375,43.9375,-50.375,0
76500,-15.625,47.1875,-51.625,0
76510,-18.5,52.8125,-50,0
76530,-23.6875,60,-51.4375,0
76550,-29,62.375,-50.6875,0
76570,-28.3125,63.6875,-47.375,0
76650,-30.375,74.0625,-1.6875,0
76680,-36.5,77.8125,1.8125,0
76700,-29.5,80.4375,12,0
76720,-9.375,82.375,20.0625,0
76730,-1.0625,81.25,21.5,0
76750,-21.6875,80.75,17.9375,0
76770,-24.0625,77.9375,22.9375,0
76790,-9.125,73.875,26.9375,0
76810,-9.5,72.5625,30.5625,0
76830,-16.9375,70.5625,34.4375,0
76850,-21.5625,64.375,31.5625,0
76870,-3.4375,52.75,39.1875,0
76900,-19.4375,24.125,38,0
76920,-2.75,20.75,39.1875,0
76940,1.8125,17.0625,40.75,0
76960,-19.4375,14.125,39.875,0
76980,-34.5625,11.375,36.375,0
77000,-24.8125,2.625,35,0
77020,-16.25,-4.3125,43.0625,0
77040,-11.4375,-6.4375,45.1875,0
77060,-22.375,-10.375,36,0
77080,-25.8125,-16.3125,30.75,0
77100,-24.4375,-24.125,33.3125,0
77120,-12.6875,-29.0625,29.9375,0
77140,-10.5625,-36.5,27.375,0
77160,-17.875,-43.125,28.625,0
77180,-27.0625,-48.625,26.75,0
77200,-15.6875,-48.8125,20.5,0
77220,-6.5,-57,17,0
77240,-10.125,-63.375,20.8125,0
77260,-7.625,-59.8125,18.0625,0
77280,-3.3125,-62.0625,14.9375,0
77300,-10.625,-65.8125,15.0625,0
77320,-22.125,-70.75,14.4375,0
77340,-34.3125,-73.125,14.375,0
77360,-29.1875,-73.5,11.5,0
77380,-26,-76.375,9.875,0
77390,-26.375,-73.5625,5.8125,0
77410,-12.625,-71.875,-6.375,0
77430,-4.9375,-72,-13,0
77450,-2.1875,-70.0625,-15.875,0
77470,-1.5625,-69.375,-20.0625,0
77490,0.9375,-70.8125,-26.5625,0
77510,-1.75,-69.5625,-28.1875,0
77530,-10.25,-69.5625,-26.4375,0
77550,-19.125,-68.5,-28,0
77570,-11,-69.8125,-32.6875,0
77590,-11.0625,-71,-26.5625,0
77610,-23.0625,-66.625,-22.5,0
77630,-28.375,-61.875,-27.125,0
77650,-30.875,-57.25,-29.625,0
77670,-23.625,-55.5625,-28.1875,0
77690,-15.875,-50.875,-24.3125,0
77710,-17.375,-39.5,-22.875,0
77730,-22.375,-28.75,-26.375,0
77750,-30.5,-26.6875,-26.75,0
77770,-28.5625,-26.25,-23.625,0
77790,-13.6875,-21.8125,-22.375,0
77810,-9.4375,-13.5,-24.375,0
77830,-16.8125,-1.25,-30.875,0
77850,-19.25,5.9375,-28.875,0
77870,-13.75,11.75,-25.375,0
77890,-13.625,17.6875,-26.0625,0
77910,-6.25,24.8125,-27.5,0
77930,2.8125,29,-25.75,2001
77950,0.1875,31.5,-18.5625,0
77950,-1.5,25.9375,-16.6875,0
77970,-1.8125,21.625,-18.5625,0
77990,-6.3125,21.1875,-8,0
78010,-4.6875,19.75,0.5625,0
78030,-2.4375,15,3.75,0
78050,4.5625,8.5625,1.25,0
78070,-3.625,3.75,3,0
78090,-5.3125,1.875,4.5625,0
78110,2.3125,-0.125,3.3125,0
78160,24.75,7,2.5,0
78160,48.6875,11.25,9,0
78180,53.1875,18.125,14.6875,0
78190,45.4375,23.375,19,0
78230,75.1875,31.4375,23.625,0
78250,82.875,29.1875,32,0
78270,74.5,32.6875,40.125,0
78290,71.625,40.625,48.5625,0
78310,86.0625,48.5,48.5625,0
78330,91.625,42.3125,54.8125,0
78350,75.8125,33.4375,65.125,0
78370,83.875,30.25,65.1875,0
78390,100.312,34.0625,61.6875,0
78410,102.875,30.1875,65.0625,0
78430,86.0625,26.75,71.5625,0
78450,71.4375,27.125,83.375,0
78470,80.125,28.375,81.125,0
78490,84.25,27,77.625,0
78510,83.4375,33.25,75.6875,0
78540,86.5625,41.25,68.6875,0
78550,68.375,39.375,47.125,0
78570,81.8125,40.25,30.0625,0
78590,75.75,19.75,-1.1875,0
78600,65.6875,14.25,-6.3125,0
78610,61.8125,13.125,-8.5,0
78640,28.1875,18,13,0
78660,14.5625,26.6875,16.3125,0
78680,-0.875,36.4375,17.625,0
78700,-12.6875,50.4375,21.8125,0
78720,-19.9375,67.5625,30.375,0
78740,-24.625,85.9375,39.0625,0
78760,-21.8125,104.875,46.4375,0
78780,-18.5625,123.75,54.875,0
78800,-13.5625,143.438,67.8125,0
78820,-2.3125,155.25,77.0625,0
78840,15.75,163.438,79.75,0
78890,81.6875,181.688,1.25,0
78910,96.4375,174.812,-4.6875,0
78950,111.438,153.25,-2.9375,0
78970,101.125,146.625,2.5625,0
78990,105.188,112.875,15.75,0
79010,149.188,21.625,-9.5625,0
79030,138.375,-22.9375,-39.5625,0
79040,-35.8125,-30.625,-39.0625,0
79050,-100.875,-14.3125,-6.5,0
79070,-57.3125,-19.625,3.1875,0
79090,-12,-21.8125,28.75,0
79110,21.875,-27.5,42.4375,0
79130,13.125,-42,25.25,0
79150,-10.5,-40.875,7.25,0
79170,-22.375,-25.3125,8.0625,0
79190,-7.1875,-16.1875,15.125,0
79210,16.0625,-15,9.6875,0
79230,19.875,-16.0625,4.375,0
79250,12.8125,-16.375,3,0
79270,10.1875,-17,3.75,0
79270,13.6875,-16.75,3.75,0
79290,15.375,-14.4375,4.125,0
79310,15.5,-13.8125,3,0
79330,17.1875,-15.25,1.5,0
79350,17.1875,-16.625,0.6875,0
79370,15.875,-15.75,0.5625,0
79390,14.25,-14.25,-0.0625,0
79410,14.375,-13.25,-0.6875,0
79430,15.8125,-11.3125,-1.75,0
79450,15.375,-8.1875,-2.375,0
79470,11.875,-6.4375,-2.0625,0
79490,8.125,-5,-2.6875,0
79510,4.0625,-3.25,-2.8125,0
79530,1.875,-2.5,-2.5,0
79550,1.25,-2.1875,-2.125,0
79570,1.125,-2.25,-0.9375,0
79590,1.9375,-2.125,-0.3125,0
79610,2.125,-2,1,0
79630,1.8125,-1.5,2.3125,0
79650,1,-1.25,2.625,0
79670,-0.1875,-1.0625,2.4375,0
79690,-1.9375,-0.875,2.5625,0
79710,-3.625,-0.125,2.625,0
79730,-4.625,0.9375,2.375,0
79750,-5.5,1.4375,2.125,0
79770,-6.3125,2,1.3125,0
79790,-6.8125,2.5625,0.9375,0
79810,-7.375,2.8125,0.6875,0
79830,-6.875,3.0625,0.375,0
79850,-5.375,2.5625,0.25,0
79870,-3.9375,1.6875,-0.3125,0
79890,-2.375,0.6875,-0.4375,0
79910,-1.4375,0.625,-1.3125,0
79960,-6,2.875,-2.6875,0
79980,-7.0625,4,-2.25,0
80000,-7.125,3.625,-1.0625,0
80020,-9.375,2.5,-0.75,0
80040,-11.1875,2.5625,0.0625,0
80060,-10.1875,3.125,0.5625,0
80080,-9.375,3,1.3125,0
80100,-9,3.6875,2.3125,0
80120,-9.6875,4,3.5,0
80140,-9.875,3.6875,3.9375,0
80160,-10.9375,3.5625,4.3125,0
80180,-10.625,4.25,3.8125,0
80200,-9.875,4.25,3.3125,0
80220,-9.75,4.4375,3.5625,0
80240,-10.625,4.4375,1.875,0
80260,-11.1875,4.875,1.5625,0
80280,-11.125,5,1.875,0
80300,-10.1875,4.5625,1.5,0
80320,-9.3125,4.5,1.375,0
80340,-8.375,4,0.75,0
80360,-6.625,3.375,0.375,0
80380,-5.875,2.75,0.4375,0
80400,-5.8125,2.4375,0.5625,0
80420,-5.5625,2.875,0.4375,0
80440,-5.75,3.3125,0.1875,0
80460,-6.125,3.3125,0.375,0
80480,-6.0625,3,0.125,0
80500,-5.3125,2.5,0.4375,0
80520,-3.75,2.1875,0.625,0
80540,-2.3125,1.9375,0.625,0
80560,-1.8125,1.5625,0.375,0
80580,-1.75,1.75,0.125,0
80600,-1.875,1.625,0.0625,0
80620,-2.125,1.875,-0.0625,0
80640,-1.875,1.6875,0.5,0
80660,-2.0625,1.625,1,0
80680,-3.1875,1.4375,1.3125,0
80700,-4,1.5,1.625,0
80720,-3.875,1.4375,1.75,0
80740,-3.25,1.25,1.1875,0
80760,-3.8125,1.375,1.3125,0
80780,-2.9375,1.75,1.8125,0
80800,-1.5625,0.75,1.5625,0
80820,-1.875,0.6875,0.5,0
80840,-2.5625,0.9375,1,0
80860,-2.1875,0.8125,0.5625,0
80880,-1.0625,0.3125,1.3125,0
80900,-1.375,-0.125,1.375,0
80920,-1.1875,0.125,2.25,0
80940,-1.375,0.1875,1.875,0
80960,-2.125,0.6875,2.125,0
80980,-3.5,1.1875,2,0
81000,-4.4375,1.125,1.4375,0
81020,-5.1875,0.8125,1.3125,0
81040,-4.4375,0.6875,2.25,0
81060,-2.125,0.1875,1.8125,0
81080,-1.75,-0.0625,1.125,0
81100,-2.3125,0.75,1.25,0
81120,-2.625,0.6875,0.875,0
81140,-2.75,0.4375,0.75,0
81160,-3.0625,1.0625,1.0625,0
81180,-3.25,1.1875,1.375,0
81210,-1.25,0.875,0.9375,0
81230,-1.0625,0.8125,0.4375,0
81250,-1.0625,0.5,0.3125,0
81270,-1.5625,0.75,-0.125,0
81290,-0.5,0.375,-0.0625,0
81310,0.125,0.3125,-0.375,0
81330,0.3125,0.0625,-0.75,0
81350,1.25,-0.375,-1,0
81370,2.625,-1.125,-1.375,0
81390,3.5,-2.0625,-1.625,0
81410,3.875,-2.0625,-1.75,0
81430,4.0625,-1.875,-1.6875,0
81450,3.25,-1.4375,-2.125,0
81470,1.875,-1.3125,-2.6875,0
81490,1.125,-1.3125,-3.0625,0
81510,1.5625,-1.5,-2.875,0
81530,1.875,-1.5625,-2.375,0
81550,1.625,-1.125,-1.625,0
81570,0.8125,-0.625,-0.5,0
81590,-0.3125,0,-0.25,0
81610,-0.0625,0,0.25,0
81630,0.5625,-0.0625,0,0
81650,1.25,-0.5625,0.125,0
81670,1.4375,-0.5625,-0.375,0
81690,1,-0.625,-0.9375,0
81710,2.125,-0.8125,-1.125,0
81730,0.625,-0.3125,-1.4375,0
81750,0.9375,-0.375,-1.375,0
81770,0.9375,-0.8125,-1.25,0
81790,1.375,-0.625,-0.875,0
81810,0.4375,0.125,-0.875,0
81830,0.125,-0.3125,-1.125,0
81850,1.0625,-1.875,1.25,0
81870,1.875,-0.5,4.0625,0
81890,1,-1.625,6.5625,0
81910,4.1875,-5.4375,10.1875,0
81930,7.375,-8.3125,15.5,0
81950,7.4375,-12.1875,17.375,0
81970,-0.125,-11.375,17.0625,0
81990,-11.5625,-10.625,11.9375,0
82010,-13.6875,-2.5625,0.8125,0
82030,2.375,9.875,-9.625,0
82050,20.625,18.375,-16.125,0
82070,27.5,15.5,-18.1875,0
82090,20.875,13.5,-17.8125,0
82110,23.125,13.375,-18.875,0
82130,25.125,12.5,-19.125,0
82150,28.375,14.375,-11,0
82170,36.6875,14.625,-9.3125,0
82190,44.375,16.1875,-12.9375,0
82210,36.5,7.125,-3.875,0
82230,19.6875,-1.3125,6.875,0
82250,3.375,-1.8125,11.375,0
82270,-2.0625,-0.6875,9.375,0
82290,1.625,2.5,1.625,0
82310,8.625,3.875,-4.5,0
82330,6.8125,3.3125,-5.8125,0
82350,-1.625,0.375,-4.8125,0
82370,-10.5,-0.4375,-1.375,0
82390,-12.3125,-0.875,1.5,0
82410,-7.5,-2.5,2,0
82430,-9.4375,-2.625,5.6875,0
82450,-11.3125,-1.25,7.875,0
82470,-10.0625,-1.9375,6.4375,0
82490,-5,-1.1875,4.8125,0
82510,-2.75,0.625,3.4375,0
82530,1.625,2,0.625,0
82550,5.3125,1.8125,-2.0625,0
82570,4.125,0.0625,-3,0
82590,1.0625,-1.6875,-4.5,0
82600,-1.75,-2.8125,-3.1875,0
82620,-5.375,-2.9375,0,0
82640,-7.9375,-3.125,2.1875,0
82660,-9.25,-2.875,2.625,0
82680,-9.375,-1.875,3.3125,0
82700,-6.3125,-0.8125,3.4375,0
82720,-2.5625,-0.375,2.6875,0
82740,2,-0.5,1.3125,0
82760,3.8125,-0.75,-0.3125,0
82780,4.3125,-0.4375,-1,0
82800,3.8125,-0.3125,-0.875,0
82820,3.3125,-0.875,-0.8125,0
82840,2,-1.375,0.3125,0
82860,-0.3125,-1.1875,1.3125,0
82880,-2,-0.9375,1.0625,0
82900,-3.25,-0.5,0.625,0
82920,-1.75,-0.375,0.5625,0
82940,0.625,-0.375,0.375,0
82960,2.125,-0.625,-0.5,0
82980,2.5625,-1.5,-1.1875,0
83000,0.75,-1.75,-1.9375,0
83010,-0.875,-0.5,-1.0625,0
83040,-0.375,0.3125,-0.25,0
83060,0.5,0.375,0.375,0
83080,-0.0625,0,0.1875,0
83100,-1.0625,-1.125,0.375,0
83110,-2.375,-1.375,1.5,0
83130,-1.9375,-0.375,1.5,0
83140,-0.4375,-0.625,0.5625,0
83160,-0.9375,-0.9375,0.1875,0
83180,-2.125,0.0625,-0.0625,0
83200,-1.125,0.625,0.1875,0
83220,0.3125,0,0.5,0
83240,0,-0.25,0.75,0
83260,-0.625,0.25,0.3125,0
83280,-1.375,0.8125,0.5,0
83300,-0.6875,1.1875,0.25,0
83320,-0.625,0.125,-0.125,0
83340,-0.9375,0.25,0.25,0
83360,-1.125,0,0.25,0
83380,-0.9375,0.375,0.25,0
83400,-0.5625,0.5,0.5,0
83420,-0.625,0,0.375,0
83440,0.0625,-0.1875,0.4375,0
83460,0.375,-0.5,0.5,0
