Timestamp, Angle x, Angle y, Angle z, Marker
40,-0.912554,0.392899,-0.920235,0
60,-0.912554,0.392899,-0.920235,0
80,-0.912554,0.392899,-0.920235,0
100,-0.912554,0.392899,-0.920235,0
120,-0.912455,0.392789,-0.920137,0
120,-0.912455,0.392789,-0.920137,0
160,-0.912324,0.392831,-0.920109,0
180,-0.912324,0.392831,-0.920109,0
200,-0.912324,0.392831,-0.920109,0
220,-0.912455,0.392789,-0.920137,0
240,-0.912455,0.392789,-0.920137,0
260,-0.912455,0.392789,-0.920137,0
280,-0.912324,0.392831,-0.920109,0
300,-0.912324,0.392831,-0.920109,0
320,-0.912324,0.392831,-0.920109,0
340,-0.912225,0.392722,-0.920011,0
360,-0.912225,0.392722,-0.920011,0
380,-0.912225,0.392722,-0.920011,0
400,-0.912324,0.392831,-0.920109,0
420,-0.912324,0.392831,-0.920109,0
440,-0.912324,0.392831,-0.920109,0
460,-0.911917,0.3927,-0.920015,0
480,-0.911917,0.3927,-0.920015,0
500,-0.911811,0.392788,-0.920012,0
520,-0.911811,0.392788,-0.920012,0
540,-0.912091,0.39285,-0.919876,0
560,-0.912427,0.39283,-0.920005,0
580,-0.912427,0.39283,-0.920005,0
600,-0.912427,0.39283,-0.920005,0
620,-0.912427,0.39283,-0.920005,0
640,-0.912427,0.39283,-0.920005,0
660,-0.912559,0.392789,-0.920033,0
680,-0.912559,0.392789,-0.920033,0
700,-0.912559,0.392789,-0.920033,0
720,-0.912427,0.39283,-0.920005,0
740,-0.912427,0.39283,-0.920005,0
760,-0.912329,0.392721,-0.919907,0
780,-0.912329,0.392721,-0.919907,0
800,-0.912329,0.392721,-0.919907,0
820,-0.912329,0.392721,-0.919907,0
840,-0.912329,0.392721,-0.919907,0
860,-0.912427,0.39283,-0.920005,0
880,-0.912329,0.392721,-0.919907,0
900,-0.912329,0.392721,-0.919907,0
920,-0.912354,0.392767,-0.919932,0
940,-0.912354,0.392767,-0.919932,0
960,-0.912222,0.392809,-0.919904,0
980,-0.912354,0.392767,-0.919932,0
1000,-0.912256,0.392658,-0.919834,0
1020,-0.912256,0.392658,-0.919834,0
1040,-0.912256,0.392658,-0.919834,0
1060,-0.911611,0.392656,-0.919709,0
1080,-0.911513,0.392547,-0.919611,0
1100,-0.911381,0.392589,-0.919583,0
1120,-0.911748,0.392505,-0.919534,0
1140,-0.912261,0.392548,-0.919632,0
1160,-0.912261,0.392548,-0.919632,0
1180,-0.912261,0.392548,-0.919632,0
1200,-0.912129,0.392589,-0.919604,0
1220,-0.912154,0.392635,-0.919629,0
1240,-0.912227,0.392699,-0.919702,0
1260,-0.912129,0.392589,-0.919604,0
1280,-0.912154,0.392635,-0.919629,0
1300,-0.912154,0.392635,-0.919629,0
1320,-0.912056,0.392526,-0.919531,0
1340,-0.912056,0.392526,-0.919531,0
1360,-0.912056,0.392526,-0.919531,0
1380,-0.912056,0.392526,-0.919531,0
1400,-0.912056,0.392526,-0.919531,0
1420,-0.912056,0.392526,-0.919531,0
1440,-0.912056,0.392526,-0.919531,0
1460,-0.911826,0.392458,-0.919405,0
1480,-0.911826,0.392458,-0.919405,0
1500,-0.911851,0.392504,-0.91943,0
1520,-0.911851,0.392504,-0.91943,0
1540,-0.911851,0.392504,-0.91943,0
1550,-0.911851,0.392504,-0.91943,0
1570,-0.911879,0.392464,-0.919562,0
1590,-0.911879,0.392464,-0.919562,0
1610,-0.911851,0.392504,-0.91943,0
1630,-0.911851,0.392504,-0.91943,0
1650,-0.911851,0.392504,-0.91943,0
1670,-0.91172,0.392546,-0.919402,0
1690,-0.91172,0.392546,-0.919402,0
1710,-0.912,0.392608,-0.919266,0
1730,-0.912467,0.392547,-0.919423,0
1750,-0.912467,0.392547,-0.919423,0
1770,-0.912566,0.392656,-0.919521,0
1790,-0.912566,0.392656,-0.919521,0
1810,-0.912566,0.392656,-0.919521,0
1830,-0.912566,0.392656,-0.919521,0
1850,-0.912467,0.392547,-0.919423,0
1870,-0.912467,0.392547,-0.919423,0
1890,-0.912361,0.392634,-0.91942,0
1910,-0.912361,0.392634,-0.91942,0
1930,-0.912361,0.392634,-0.91942,0
1950,-0.912263,0.392525,-0.919322,0
1970,-0.912263,0.392525,-0.919322,0
1990,-0.912361,0.392634,-0.91942,0
2010,-0.912361,0.392634,-0.91942,0
2030,-0.912361,0.392634,-0.91942,0
2050,-0.912263,0.392525,-0.919322,0
2070,-0.912263,0.392525,-0.919322,0
2090,-0.912263,0.392525,-0.919322,0
2110,-0.912263,0.392525,-0.919322,0
2130,-0.912263,0.392525,-0.919322,0
2150,-0.912263,0.392525,-0.919322,0
2170,-0.912263,0.392525,-0.919322,0
2190,-0.912263,0.392525,-0.919322,0
2210,-0.912263,0.392525,-0.919322,0
2230,-0.912263,0.392525,-0.919322,0
2250,-0.912164,0.392416,-0.919224,0
2270,-0.912058,0.392503,-0.919221,0
2290,-0.912058,0.392503,-0.919221,0
2310,-0.912366,0.392524,-0.919218,0
2330,-0.912699,0.392592,-0.91924,0
2350,-0.912982,0.392567,-0.919211,0
2370,-0.913007,0.392613,-0.919236,0
2390,-0.913007,0.392613,-0.919236,0
2410,-0.913007,0.392613,-0.919236,0
2430,-0.912982,0.392567,-0.919211,0
2450,-0.912982,0.392567,-0.919211,0
2470,-0.913007,0.392613,-0.919236,0
2490,-0.912909,0.392504,-0.919138,0
2510,-0.912909,0.392504,-0.919138,0
2530,-0.912937,0.392463,-0.91927,0
2550,-0.912937,0.392463,-0.91927,0
2570,-0.912839,0.392354,-0.919172,0
2590,-0.912839,0.392354,-0.919172,0
2610,-0.912937,0.392463,-0.91927,0
2630,-0.912839,0.392354,-0.919172,0
2650,-0.912839,0.392354,-0.919172,0
2670,-0.912708,0.392395,-0.919144,0
2690,-0.913288,0.392675,-0.919101,0
2710,-0.914923,0.393001,-0.919386,0
2730,-0.917374,0.393588,-0.919865,0
2750,-0.920436,0.393898,-0.920747,0
2770,-0.923978,0.39397,-0.922006,0
2790,-0.92815,0.394004,-0.923792,0
2810,-0.932409,0.39392,-0.925871,0
2830,-0.936802,0.393897,-0.928189,0
2850,-0.941278,0.39393,-0.930589,0
2870,-0.945959,0.393526,-0.932986,0
2890,-0.95069,0.393416,-0.935433,0
2910,-0.955945,0.393537,-0.938094,0
2930,-0.96183,0.394076,-0.940558,0
2950,-0.968642,0.395016,-0.943227,0
2970,-0.976574,0.396621,-0.946092,0
2990,-0.985176,0.398348,-0.948909,0
3010,-0.994512,0.40002,-0.95205,0
3030,-1.01438,0.404629,-0.958326,0
3050,-1.02482,0.407268,-0.961684,0
3070,-1.03506,0.409978,-0.965062,0
3090,-1.04518,0.413011,-0.968651,0
3110,-1.05561,0.41644,-0.972256,0
3130,-1.06535,0.420104,-0.97561,0
3150,-1.07521,0.424306,-0.979107,0
3170,-1.08473,0.428423,-0.982189,0
3190,-1.09466,0.4329,-0.985589,0
3210,-1.1041,0.437138,-0.988823,0
3230,-1.11311,0.441541,-0.991859,0
3250,-1.12197,0.44573,-0.994744,0
3270,-1.13101,0.449925,-0.997622,0
3290,-1.13992,0.454057,-1.00058,0
3310,-1.14868,0.458176,-1.00311,0
3330,-1.1578,0.462309,-1.006,0
3350,-1.16642,0.466156,-1.0088,0
3370,-1.1757,0.470663,-1.0119,0
3390,-1.18527,0.475605,-1.01553,0
3410,-1.19522,0.480128,-1.01963,0
3430,-1.20493,0.484451,-1.024,0
3450,-1.21323,0.488643,-1.02879,0
3470,-1.21935,0.492191,-1.03268,0
3490,-1.22499,0.496058,-1.03641,0
3510,-1.23019,0.499996,-1.04012,0
3530,-1.23604,0.503465,-1.04324,0
3550,-1.24311,0.506736,-1.04638,0
3570,-1.25116,0.51002,-1.04899,0
3590,-1.25889,0.513075,-1.05147,0
3610,-1.26578,0.516363,-1.05364,0
3630,-1.27648,0.524178,-1.05681,0
3650,-1.28791,0.53312,-1.05899,0
3660,-1.29346,0.537634,-1.05985,0
3700,-1.30519,0.546776,-1.0614,0
3700,-1.31071,0.551383,-1.06186,0
3720,-1.3173,0.55593,-1.0629,0
3740,-1.32419,0.559927,-1.0637,0
3770,-1.34152,0.568094,-1.06802,0
3790,-1.35895,0.574902,-1.07445,0
3840,-1.39642,0.591205,-1.09992,0
3900,-1.41664,0.606861,-1.10759,0
3980,-1.44412,0.627291,-1.10706,0
4040,-1.45242,0.631152,-1.11078,0
4060,-1.45181,0.630071,-1.11174,0
4080,-1.45067,0.628948,-1.11277,0
4150,-1.42227,0.626184,-1.10653,0
4180,-1.4029,0.628949,-1.09796,0
4220,-1.28446,0.613659,-1.06014,0
4240,-1.26664,0.6101,-1.05396,0
4260,-1.24973,0.606269,-1.04781,0
4290,-1.17889,0.587907,-1.02297,0
4310,-1.15943,0.582225,-1.01625,0
4330,-1.13888,0.575875,-1.00913,0
4350,-1.11813,0.569131,-1.00185,0
4370,-1.09719,0.562378,-0.994716,0
4390,-1.07678,0.555614,-0.987956,0
4410,-1.05588,0.548214,-0.981239,0
4430,-1.03457,0.540853,-0.974753,0
4450,-1.01333,0.533678,-0.969,0
4470,-0.991818,0.526368,-0.963434,0
4490,-0.970197,0.519185,-0.958022,0
4510,-0.948011,0.511435,-0.952412,0
4530,-0.925492,0.503386,-0.946748,0
4550,-0.902759,0.495327,-0.940851,0
4570,-0.880032,0.48727,-0.934843,0
4590,-0.857883,0.479259,-0.928994,0
4610,-0.836353,0.47132,-0.923035,0
4630,-0.815323,0.46345,-0.917046,0
4650,-0.794836,0.455451,-0.911073,0
4670,-0.774783,0.446985,-0.905744,0
4690,-0.754502,0.437979,-0.900499,0
4710,-0.733862,0.428765,-0.895313,0
4730,-0.713356,0.419387,-0.890266,0
4750,-0.692969,0.409788,-0.885472,0
4770,-0.672689,0.399858,-0.881026,0
4790,-0.653113,0.389473,-0.876802,0
4810,-0.634096,0.379054,-0.873064,0
4830,-0.615769,0.368663,-0.869719,0
4850,-0.598296,0.358136,-0.866746,0
4870,-0.581392,0.347827,-0.864015,0
4890,-0.565335,0.338001,-0.86113,0
4910,-0.550401,0.329047,-0.858415,0
4930,-0.537568,0.320675,-0.856004,0
4950,-0.526548,0.312464,-0.854161,0
4970,-0.516383,0.304492,-0.852336,0
4990,-0.507267,0.296851,-0.850611,0
5010,-0.498667,0.288923,-0.849146,0
5030,-0.490656,0.28102,-0.848232,0
5050,-0.484108,0.273723,-0.84752,0
5070,-0.478658,0.267245,-0.846835,0
5090,-0.473845,0.26101,-0.846562,0
5110,-0.469987,0.25551,-0.846516,0
5130,-0.467116,0.249949,-0.846692,0
5150,-0.465029,0.244425,-0.84722,0
5170,-0.464237,0.23901,-0.847795,0
5190,-0.464461,0.233854,-0.848706,0
5210,-0.464652,0.229012,-0.849421,0
5230,-0.463559,0.224225,-0.850411,0
5240,-0.461909,0.219756,-0.851947,0
5260,-0.460271,0.216034,-0.85383,0
5280,-0.4597,0.213194,-0.856213,0
5300,-0.460401,0.211058,-0.858507,0
5320,-0.461336,0.209299,-0.861079,0
5340,-0.462415,0.207957,-0.863396,0
5360,-0.463406,0.206909,-0.865926,0
5380,-0.464277,0.205909,-0.868442,0
5400,-0.465375,0.205056,-0.871041,0
5420,-0.46715,0.204738,-0.87366,0
5440,-0.469698,0.204969,-0.876057,0
5460,-0.47358,0.205815,-0.878106,0
5480,-0.478657,0.207593,-0.879712,0
5510,-0.501873,0.216869,-0.88221,0
5540,-0.524117,0.227143,-0.883913,0
5570,-0.565305,0.247001,-0.887192,0
5590,-0.579477,0.253935,-0.888007,0
5610,-0.592147,0.260228,-0.888474,0
5630,-0.604023,0.266072,-0.888812,0
5650,-0.615165,0.271678,-0.889389,0
5670,-0.626108,0.277361,-0.890023,0
5690,-0.637175,0.283075,-0.890934,0
5710,-0.64883,0.288721,-0.891957,0
5730,-0.661366,0.294969,-0.892892,0
5750,-0.675215,0.301966,-0.893951,0
5770,-0.690254,0.309923,-0.894811,0
5790,-0.706501,0.318616,-0.895854,0
5810,-0.723605,0.327541,-0.896784,0
5830,-0.741466,0.336753,-0.897617,0
5850,-0.75954,0.345665,-0.898483,0
5870,-0.777839,0.354513,-0.899493,0
5890,-0.795561,0.363178,-0.90015,0
5910,-0.812445,0.37143,-0.900933,0
5930,-0.82808,0.379611,-0.901399,0
5950,-0.842755,0.387895,-0.90172,0
5970,-0.856579,0.39627,-0.902205,0
5990,-0.870199,0.404748,-0.902667,0
6010,-0.883423,0.413049,-0.903324,0
6030,-0.896264,0.421325,-0.904388,0
6050,-0.908642,0.429504,-0.90577,0
6070,-0.920998,0.438112,-0.907394,0
6090,-0.933049,0.446311,-0.909074,0
6110,-0.944747,0.454655,-0.910963,0
6130,-0.956227,0.462492,-0.912881,0
6150,-0.96762,0.46979,-0.915152,0
6170,-0.979292,0.476972,-0.917739,0
6190,-0.991547,0.483502,-0.920631,0
6210,-1.00452,0.490097,-0.92417,0
6230,-1.01792,0.495557,-0.927646,0
6250,-1.03161,0.500381,-0.93172,0
6270,-1.0462,0.504301,-0.936692,0
6290,-1.06335,0.507987,-0.942925,0
6310,-1.08199,0.511028,-0.949543,0
6330,-1.10136,0.513506,-0.956793,0
6350,-1.12148,0.516824,-0.964428,0
6370,-1.14086,0.521037,-0.971598,0
6390,-1.15887,0.525598,-0.978724,0
6410,-1.17462,0.530437,-0.985736,0
6430,-1.18771,0.535145,-0.9921,0
6450,-1.19911,0.540705,-0.99773,0
6470,-1.21,0.545857,-1.00254,0
6490,-1.21917,0.550324,-1.0065,0
6510,-1.2275,0.554994,-1.01004,0
6530,-1.23533,0.559375,-1.01268,0
6550,-1.24299,0.56423,-1.01538,0
6570,-1.2484,0.568355,-1.01669,0
6590,-1.25144,0.57116,-1.01723,0
6610,-1.25399,0.574849,-1.01745,0
6630,-1.25667,0.578546,-1.0174,0
6650,-1.25912,0.582811,-1.01657,0
6670,-1.26143,0.587923,-1.01468,0
6690,-1.26377,0.592783,-1.01281,0
6710,-1.26616,0.596858,-1.01104,0
6730,-1.27001,0.601687,-1.0101,0
6750,-1.27432,0.606835,-1.00897,0
6770,-1.2787,0.611457,-1.00778,0
6790,-1.28327,0.615808,-1.00687,0
6810,-1.28762,0.61912,-1.00655,0
6830,-1.29011,0.621632,-1.00618,0
6850,-1.28982,0.6221,-1.00603,0
6870,-1.28691,0.621715,-1.00593,0
6890,-1.28276,0.620683,-1.00583,0
6900,-1.2782,0.618676,-1.00593,0
6920,-1.27333,0.61633,-1.00619,0
6930,-1.26159,0.611119,-1.00606,0
6940,-1.25436,0.608153,-1.0055,0
6960,-1.24605,0.604908,-1.00473,0
6990,-1.22702,0.597433,-1.00164,0
7010,-1.21598,0.592899,-0.999284,0
7020,-1.20436,0.588574,-0.996468,0
7030,-1.19245,0.584408,-0.993484,0
7070,-1.16711,0.576163,-0.985556,0
7100,-1.12719,0.562515,-0.971578,0
7120,-1.08959,0.548747,-0.959267,0
7140,-1.07804,0.544807,-0.955616,0
7160,-1.06681,0.54061,-0.95209,0
7180,-1.05641,0.536631,-0.949014,0
7200,-1.04674,0.532585,-0.94609,0
7220,-1.03755,0.528772,-0.943169,0
7240,-1.02909,0.525419,-0.940803,0
7260,-1.02085,0.521823,-0.938754,0
7280,-1.01264,0.518174,-0.936754,0
7300,-1.00417,0.513696,-0.93459,0
7320,-0.995927,0.509693,-0.93257,0
7340,-0.987722,0.506034,-0.930411,0
7360,-0.980163,0.502983,-0.928518,0
7380,-0.972932,0.500449,-0.926568,0
7400,-0.966194,0.498669,-0.925027,0
7420,-0.95951,0.497034,-0.923347,0
7440,-0.952758,0.49523,-0.9214,0
7460,-0.946501,0.494246,-0.919155,0
7480,-0.940884,0.49325,-0.916951,0
7500,-0.936062,0.492465,-0.914939,0
7520,-0.931736,0.491915,-0.913024,0
7540,-0.928023,0.491325,-0.911521,0
7560,-0.924337,0.490875,-0.909846,0
7580,-0.921335,0.490543,-0.908553,0
7600,-0.918688,0.490191,-0.907415,0
7620,-0.916556,0.490038,-0.90649,0
7640,-0.914992,0.490097,-0.905933,0
7660,-0.913506,0.490103,-0.905252,0
7680,-0.912237,0.490131,-0.904688,0
7700,-0.911319,0.490142,-0.904274,0
7720,-0.910477,0.490308,-0.903834,0
7740,-0.909909,0.490509,-0.903669,0
7760,-0.909909,0.490509,-0.903669,0
7780,-0.909876,0.490549,-0.903536,0
7800,-0.909876,0.490549,-0.903536,0
7820,-0.909876,0.490549,-0.903536,0
7840,-0.909459,0.490318,-0.90352,0
7860,-0.908309,0.489957,-0.903074,0
7880,-0.90605,0.490047,-0.902225,0
7900,-0.90373,0.490415,-0.901818,0
7920,-0.902424,0.490247,-0.901417,0
7940,-0.90229,0.490287,-0.901384,0
7960,-0.90229,0.490287,-0.901384,0
7980,-0.901974,0.490589,-0.900968,0
8000,-0.901727,0.490932,-0.900318,0
8020,-0.901579,0.491274,-0.899567,0
8040,-0.901808,0.491446,-0.89889,0
8060,-0.902211,0.491447,-0.898489,0
8080,-0.902211,0.491447,-0.898489,0
8100,-0.902211,0.491447,-0.898489,0
8120,-0.902211,0.491447,-0.898489,0
8140,-0.901895,0.49175,-0.898072,0
8160,-0.901514,0.492132,-0.897389,0
8180,-0.900631,0.492427,-0.896709,0
8200,-0.899809,0.492527,-0.896087,0
8220,-0.898721,0.492498,-0.895301,0
8240,-0.897759,0.492522,-0.89444,0
8260,-0.896905,0.492661,-0.893686,0
8280,-0.896216,0.492721,-0.893098,0
8300,-0.89537,0.492767,-0.892453,0
8320,-0.894475,0.49271,-0.89186,0
8340,-0.893428,0.492756,-0.891416,0
8360,-0.892259,0.492543,-0.891052,0
8380,-0.890806,0.491945,-0.890504,0
8400,-0.889144,0.491438,-0.89005,0
8420,-0.887231,0.490713,-0.889646,0
8440,-0.885501,0.490052,-0.889225,0
8460,-0.883806,0.489351,-0.888941,0
8480,-0.882081,0.48869,-0.888526,0
8500,-0.880682,0.488401,-0.888034,0
8520,-0.879764,0.488058,-0.887721,0
8540,-0.878775,0.487561,-0.887439,0
8560,-0.877796,0.486973,-0.887266,0
8580,-0.876883,0.486309,-0.887363,0
8600,-0.875971,0.485645,-0.887461,0
8620,-0.874952,0.485072,-0.887553,0
8640,-0.873967,0.484139,-0.887479,0
8660,-0.873332,0.483308,-0.887755,0
8680,-0.872281,0.482338,-0.88792,0
8700,-0.87102,0.481345,-0.887976,0
8720,-0.869699,0.480545,-0.887971,0
8740,-0.868409,0.479591,-0.887897,0
8760,-0.867083,0.478881,-0.887788,0
8780,-0.865936,0.478235,-0.887655,0
8800,-0.864899,0.477498,-0.887532,0
8820,-0.86406,0.477081,-0.887505,0
8840,-0.863337,0.476485,-0.887595,0
8860,-0.862264,0.475993,-0.887435,0
8880,-0.861303,0.475528,-0.887489,0
8900,-0.860442,0.475061,-0.88744,0
8920,-0.859644,0.474402,-0.887457,0
8940,-0.859196,0.474073,-0.887518,0
8960,-0.859196,0.474073,-0.887518,0
8980,-0.859196,0.474073,-0.887518,0
9000,-0.859196,0.474073,-0.887518,0
9020,-0.859196,0.474073,-0.887518,0
9040,-0.859064,0.474113,-0.887486,0
9060,-0.859064,0.474113,-0.887486,0
9080,-0.859064,0.474113,-0.887486,0
9100,-0.85933,0.4736,-0.887757,0
9120,-0.859674,0.473152,-0.888104,0
9140,-0.860146,0.472435,-0.888785,0
9160,-0.860113,0.471929,-0.889364,0
9180,-0.859846,0.471348,-0.889811,0
9200,-0.85985,0.471032,-0.890223,0
9220,-0.860188,0.470789,-0.890665,0
9240,-0.860501,0.470496,-0.891082,0
9260,-0.860399,0.470381,-0.89098,0
9280,-0.860399,0.470381,-0.89098,0
9300,-0.860399,0.470381,-0.89098,0
9320,-0.860423,0.470431,-0.891005,0
9340,-0.860291,0.470471,-0.890974,0
9360,-0.860189,0.470356,-0.890872,0
9380,-0.860222,0.470318,-0.891007,0
9400,-0.860354,0.470278,-0.891038,0
9420,-0.860354,0.470278,-0.891038,0
9440,-0.860354,0.470278,-0.891038,0
9460,-0.860252,0.470163,-0.890937,0
9480,-0.859664,0.469964,-0.890858,0
9500,-0.859184,0.469674,-0.890785,0
9520,-0.85847,0.46931,-0.89058,0
9540,-0.858018,0.469188,-0.890738,0
9560,-0.857337,0.468786,-0.890669,0
9580,-0.856744,0.468242,-0.89069,0
9600,-0.855614,0.467829,-0.890273,0
9620,-0.854487,0.467533,-0.890062,0
9640,-0.853249,0.467091,-0.889436,0
9660,-0.852631,0.466929,-0.889226,0
9680,-0.852656,0.466979,-0.889251,0
9700,-0.852656,0.466979,-0.889251,0
9720,-0.852554,0.466864,-0.889151,0
9740,-0.852554,0.466864,-0.889151,0
9760,-0.852554,0.466864,-0.889151,0
9780,-0.852554,0.466864,-0.889151,0
9800,-0.852346,0.466839,-0.889044,0
9820,-0.852346,0.466839,-0.889044,0
9840,-0.852346,0.466839,-0.889044,0
9860,-0.852214,0.466879,-0.889013,0
9880,-0.852214,0.466879,-0.889013,0
9900,-0.852113,0.466764,-0.888913,0
9920,-0.852113,0.466764,-0.888913,0
9940,-0.852113,0.466764,-0.888913,0
9960,-0.852036,0.466699,-0.888837,0
9980,-0.852036,0.466699,-0.888837,0
9990,-0.851905,0.466739,-0.888806,0
10010,-0.851905,0.466739,-0.888806,0
10030,-0.851937,0.466702,-0.888941,0
10050,-0.851937,0.466702,-0.888941,0
10070,-0.851836,0.466587,-0.888841,0
10090,-0.85186,0.466637,-0.888866,0
10110,-0.851729,0.466677,-0.888835,0
10130,-0.851628,0.466562,-0.888734,0
10150,-0.851628,0.466562,-0.888734,0
10170,-0.850899,0.466145,-0.88862,0
10190,-0.849527,0.465399,-0.888068,0
10210,-0.848302,0.46487,-0.887558,0
10230,-0.847545,0.464716,-0.887006,0
10250,-0.847603,0.464728,-0.887167,0
10270,-0.84737,0.464654,-0.887035,0
10290,-0.84737,0.464654,-0.887035,0
10310,-0.846591,0.464569,-0.886662,0
10330,-0.845838,0.464651,-0.886518,0
10350,-0.845024,0.464377,-0.886316,0
10370,-0.844035,0.463922,-0.885941,0
10390,-0.842914,0.463508,-0.885536,0
10410,-0.842127,0.463283,-0.885361,0
10430,-0.841139,0.462828,-0.884989,0
10450,-0.841139,0.462828,-0.884989,0
10470,-0.841039,0.462713,-0.88489,0
10490,-0.841072,0.462676,-0.885025,0
10510,-0.841072,0.462676,-0.885025,0
10530,-0.840865,0.46265,-0.88492,0
10550,-0.840923,0.462769,-0.884571,0
10570,-0.840922,0.462651,-0.884368,0
10590,-0.840922,0.462651,-0.884368,0
10610,-0.840922,0.462651,-0.884368,0
10630,-0.84079,0.462691,-0.884337,0
10650,-0.840854,0.46238,-0.884201,0
10670,-0.841347,0.462256,-0.88419,0
10690,-0.841752,0.462275,-0.884086,0
10710,-0.841684,0.462123,-0.884122,0
10730,-0.841684,0.462123,-0.884122,0
10750,-0.841305,0.46226,-0.883741,0
10770,-0.841305,0.46226,-0.883741,0
10790,-0.841205,0.462145,-0.883642,0
10810,-0.840893,0.462434,-0.883226,0
10830,-0.84062,0.462363,-0.882647,0
10850,-0.840645,0.462412,-0.882673,0
10870,-0.840678,0.462375,-0.882808,0
10890,-0.840645,0.462412,-0.882673,0
10910,-0.839903,0.462514,-0.882131,0
10930,-0.839927,0.462563,-0.882157,0
10950,-0.839927,0.462563,-0.882157,0
10970,-0.839927,0.462563,-0.882157,0
10990,-0.839316,0.4624,-0.881953,0
11010,-0.838473,0.462161,-0.88162,0
11030,-0.837697,0.462075,-0.881251,0
11050,-0.837722,0.462124,-0.881277,0
11070,-0.83749,0.462049,-0.881147,0
11090,-0.836772,0.461974,-0.880939,0
11110,-0.835931,0.461736,-0.880607,0
11130,-0.835221,0.461576,-0.88051,0
11150,-0.834141,0.461123,-0.880248,0
11170,-0.833365,0.460811,-0.880188,0
11190,-0.832155,0.460399,-0.879897,0
11210,-0.831373,0.460172,-0.87973,0
11230,-0.831274,0.460057,-0.879632,0
11250,-0.831274,0.460057,-0.879632,0
11270,-0.830968,0.459691,-0.879739,0
11290,-0.83054,0.459281,-0.879926,0
11310,-0.829873,0.458539,-0.879982,0
11330,-0.829166,0.458036,-0.879995,0
11350,-0.828492,0.457378,-0.879942,0
11370,-0.827926,0.457094,-0.87999,0
11390,-0.827827,0.456979,-0.879893,0
11410,-0.827852,0.457027,-0.879918,0
11430,-0.827852,0.456908,-0.879716,0
11450,-0.827721,0.456948,-0.879685,0
11470,-0.827721,0.456948,-0.879685,0
11490,-0.827721,0.456948,-0.879685,0
11510,-0.827721,0.456948,-0.879685,0
11530,-0.827614,0.457037,-0.87968,0
11550,-0.827147,0.456406,-0.879731,0
11570,-0.826581,0.455779,-0.879888,0
11590,-0.82599,0.455105,-0.88002,0
11610,-0.825425,0.454598,-0.88038,0
11630,-0.824893,0.453936,-0.880675,0
11650,-0.824198,0.453009,-0.880912,0
11670,-0.823438,0.452274,-0.881081,0
11690,-0.822433,0.451751,-0.881107,0
11710,-0.821544,0.45128,-0.880936,0
11730,-0.821568,0.451328,-0.880962,0
11750,-0.821568,0.451328,-0.880962,0
11770,-0.821471,0.451213,-0.880866,0
11790,-0.82134,0.451254,-0.880836,0
11810,-0.821243,0.451139,-0.880739,0
11830,-0.821243,0.451139,-0.880739,0
11850,-0.821406,0.451062,-0.880906,0
11870,-0.821537,0.45068,-0.881045,0
11890,-0.821537,0.45068,-0.881045,0
11910,-0.821537,0.45068,-0.881045,0
11930,-0.821309,0.450606,-0.880919,0
11950,-0.821505,0.450373,-0.881019,0
11970,-0.822338,0.450491,-0.881136,0
11990,-0.823343,0.450551,-0.881016,0
12010,-0.824479,0.45069,-0.88113,0
12030,-0.825876,0.450867,-0.881507,0
12050,-0.827021,0.450923,-0.881731,0
12070,-0.827953,0.451155,-0.881948,0
12090,-0.829025,0.451263,-0.882305,0
12110,-0.830032,0.451562,-0.882593,0
12130,-0.831243,0.451545,-0.883092,0
12150,-0.832119,0.451541,-0.883458,0
12170,-0.832823,0.451476,-0.883859,0
12190,-0.833396,0.45145,-0.884228,0
12210,-0.834207,0.451296,-0.884634,0
12230,-0.834812,0.451234,-0.885139,0
12250,-0.835122,0.450828,-0.885352,0
12270,-0.835366,0.45039,-0.885805,0
12290,-0.835396,0.450011,-0.886047,0
12310,-0.835565,0.449507,-0.886429,0
12330,-0.835841,0.449032,-0.887017,0
12350,-0.836083,0.448594,-0.88747,0
12370,-0.836654,0.448225,-0.887946,0
12390,-0.837265,0.447617,-0.888464,0
12410,-0.837728,0.446876,-0.888838,0
12430,-0.837561,0.446268,-0.888885,0
12450,-0.836757,0.445537,-0.888601,0
12470,-0.835782,0.445086,-0.888247,0
12490,-0.834803,0.444943,-0.887474,0
12510,-0.834127,0.44482,-0.886698,0
12530,-0.833518,0.445309,-0.885978,0
12550,-0.832736,0.445735,-0.885292,0
12570,-0.832086,0.446001,-0.884434,0
12590,-0.831371,0.446459,-0.883508,0
12610,-0.831162,0.446964,-0.882678,0
12630,-0.831322,0.447643,-0.881805,0
12650,-0.831876,0.448885,-0.88081,0
12670,-0.832831,0.450266,-0.879909,0
12690,-0.834525,0.45189,-0.879441,0
12710,-0.836567,0.453643,-0.878913,0
12730,-0.839478,0.455107,-0.878447,0
12750,-0.843469,0.455839,-0.877342,0
12770,-0.847361,0.455634,-0.873809,0
12790,-0.85014,0.453673,-0.868869,0
12810,-0.854793,0.450403,-0.864167,0
12830,-0.866354,0.444303,-0.860943,0
12850,-0.883426,0.431922,-0.853498,0
12870,-0.905805,0.412651,-0.840927,0
12890,-0.935401,0.387448,-0.825217,0
12910,-0.953289,0.354789,-0.802872,0
12930,-0.946598,0.318467,-0.771462,0
12950,-0.917423,0.279998,-0.73793,0
12970,-0.890764,0.238348,-0.709137,0
12990,-0.872362,0.201531,-0.681311,0
13010,-0.862607,0.168102,-0.655369,0
13030,-0.851758,0.139184,-0.628464,0
13050,-0.846059,0.112751,-0.602653,0
13070,-0.841276,0.0898511,-0.576466,0
13090,-0.839669,0.0683975,-0.548823,0
13110,-0.841516,0.0556917,-0.522471,0
13130,-0.850812,0.0558981,-0.498665,0
13150,-0.854387,0.0550122,-0.479611,0
13160,-0.85144,0.0519629,-0.459515,0
13180,-0.844693,0.0574977,-0.434309,0
13200,-0.826197,0.0718824,-0.385678,0
13220,-0.82275,0.0735058,-0.368798,0
13240,-0.838313,0.0661217,-0.353223,0
13260,-0.842584,0.066534,-0.338444,0
13280,-0.836294,0.0633263,-0.321719,0
13300,-0.830001,0.0569721,-0.30894,0
13320,-0.823299,0.0524852,-0.302822,0
13340,-0.822634,0.0505966,-0.29588,0
13360,-0.82647,0.0487837,-0.289502,0
13380,-0.830361,0.0424341,-0.283398,0
13400,-0.834114,0.0339973,-0.278748,0
13420,-0.836606,0.0263433,-0.274856,0
13440,-0.839589,0.0200372,-0.272661,0
13460,-0.844074,0.0143121,-0.273237,0
13480,-0.847624,0.00902957,-0.274612,0
13500,-0.848482,0.00389365,-0.276131,0
13520,-0.850324,-0.00341096,-0.276459,0
13550,-0.861365,-0.0190258,-0.279343,0
13570,-0.867066,-0.0270354,-0.281941,0
13590,-0.870742,-0.0368795,-0.284107,0
13610,-0.8744,-0.0485686,-0.287853,0
13630,-0.877554,-0.0615437,-0.293828,0
13650,-0.878618,-0.0746254,-0.29981,0
13670,-0.879035,-0.0868745,-0.305067,0
13690,-0.879525,-0.0996986,-0.310097,0
13710,-0.881563,-0.114579,-0.317389,0
13730,-0.884649,-0.131844,-0.32965,0
13750,-0.886077,-0.150767,-0.346434,0
13770,-0.88399,-0.168866,-0.36549,0
13790,-0.874773,-0.187889,-0.383483,0
13810,-0.865693,-0.206255,-0.402996,0
13830,-0.860143,-0.224809,-0.428776,0
13850,-0.85623,-0.241025,-0.457808,0
13870,-0.854567,-0.252695,-0.488295,0
13890,-0.856491,-0.261127,-0.518276,0
13910,-0.858686,-0.270497,-0.544384,0
13930,-0.862055,-0.277669,-0.567415,0
13950,-0.8646,-0.282294,-0.591262,0
13970,-0.862673,-0.288281,-0.616901,0
13980,-0.859446,-0.293069,-0.638094,0
14000,-0.861704,-0.294085,-0.664524,0
14010,-0.864389,-0.298409,-0.684435,0
14030,-0.867902,-0.306807,-0.725175,0
14040,-0.867659,-0.301318,-0.735241,0
14070,-0.861576,-0.2868,-0.750956,0
14090,-0.860493,-0.277056,-0.7569,0
14120,-0.86489,-0.226933,-0.789856,0
14140,-0.860932,-0.217354,-0.792967,0
14140,-0.857606,-0.208783,-0.796448,0
14140,-0.85156,-0.203852,-0.801391,0
14150,-0.829977,-0.195737,-0.809167,0
14150,-0.814221,-0.190949,-0.807712,0
14170,-0.800185,-0.185699,-0.804105,0
14170,-0.790113,-0.180673,-0.802243,0
14190,-0.7831,-0.174115,-0.80297,0
14210,-0.777432,-0.167528,-0.805382,0
14230,-0.76792,-0.161868,-0.809106,0
14250,-0.755206,-0.15717,-0.813032,0
14270,-0.740011,-0.151837,-0.818471,0
14290,-0.726845,-0.144934,-0.823618,0
14310,-0.717382,-0.135751,-0.828105,0
14330,-0.711787,-0.126049,-0.83105,0
14350,-0.7076,-0.116564,-0.8326,0
14370,-0.704281,-0.108879,-0.833929,0
14390,-0.700831,-0.101425,-0.835102,0
14410,-0.697704,-0.0930878,-0.836626,0
14430,-0.694557,-0.0824695,-0.838935,0
14430,-0.685883,-0.0513211,-0.848737,0
14450,-0.682637,-0.0284478,-0.857108,0
14480,-0.687602,0.0306259,-0.882585,0
14500,-0.696307,0.0581328,-0.898151,0
14520,-0.707805,0.0885627,-0.916688,0
14540,-0.715999,0.123544,-0.936323,0
14580,-0.656375,0.334402,-1.04727,0
14620,-0.669917,0.34917,-1.07777,0
14640,-0.6754,0.359439,-1.07107,0
14670,-0.692053,0.362003,-1.0598,0
14690,-0.706229,0.36245,-1.05304,0
14720,-0.730362,0.362819,-1.0413,0
14720,-0.738602,0.36612,-1.03604,0
14740,-0.742871,0.36692,-1.03176,0
14760,-0.743462,0.36854,-1.02732,0
14780,-0.744541,0.370384,-1.02421,0
14800,-0.744569,0.373286,-1.02237,0
14830,-0.744422,0.380431,-1.02176,0
14850,-0.744446,0.382313,-1.02223,0
14870,-0.745021,0.38278,-1.02297,0
14890,-0.747089,0.382686,-1.02463,0
14910,-0.749851,0.38211,-1.02619,0
14930,-0.75169,0.381883,-1.0271,0
14950,-0.75294,0.382226,-1.02747,0
14970,-0.753914,0.382706,-1.02809,0
14990,-0.755511,0.383398,-1.02878,0
15010,-0.757313,0.384841,-1.02961,0
15030,-0.759279,0.38614,-1.03104,0
15050,-0.761425,0.388016,-1.03238,0
15070,-0.763108,0.390009,-1.03345,0
15090,-0.764567,0.391603,-1.03424,0
15110,-0.766106,0.393052,-1.03514,0
15130,-0.767771,0.394659,-1.03603,0
15150,-0.769398,0.396371,-1.03666,0
15170,-0.771096,0.398223,-1.03725,0
15190,-0.773076,0.400144,-1.0377,0
15210,-0.775302,0.401963,-1.0382,0
15230,-0.776985,0.403141,-1.03832,0
15250,-0.778485,0.404644,-1.03866,0
15270,-0.77921,0.405938,-1.03843,0
15290,-0.780535,0.407264,-1.03818,0
15310,-0.782373,0.408642,-1.03803,0
15330,-0.784553,0.409817,-1.03761,0
15350,-0.786465,0.410635,-1.03706,0
15370,-0.788094,0.411673,-1.03695,0
15390,-0.789106,0.413044,-1.0366,0
15410,-0.789562,0.414471,-1.03589,0
15430,-0.789902,0.415665,-1.03531,0
15450,-0.790242,0.415959,-1.03531,0
15470,-0.790215,0.415705,-1.03531,0
15490,-0.78948,0.4151,-1.03514,0
15510,-0.788568,0.414533,-1.03521,0
15530,-0.787043,0.41311,-1.03546,0
15550,-0.784703,0.410611,-1.03572,0
15570,-0.781275,0.407652,-1.03514,0
15590,-0.776218,0.404479,-1.03275,0
15610,-0.769194,0.401445,-1.02891,0
15630,-0.762637,0.400469,-1.02264,0
15650,-0.756919,0.401,-1.01322,0
15660,-0.756611,0.398372,-1.00478,0
15680,-0.756786,0.392309,-0.994587,0
15700,-0.756358,0.380915,-0.982062,0
15720,-0.750323,0.362545,-0.967219,0
15740,-0.735519,0.339739,-0.949161,0
15760,-0.721879,0.313548,-0.930459,0
15780,-0.720617,0.284671,-0.910194,0
15800,-0.724864,0.252803,-0.891442,0
15820,-0.734277,0.218791,-0.871925,0
15840,-0.745878,0.18491,-0.850262,0
15860,-0.75754,0.149913,-0.828835,0
15880,-0.768661,0.114004,-0.808106,0
15900,-0.779431,0.0782535,-0.78719,0
15920,-0.792101,0.0424152,-0.765677,0
15940,-0.80943,0.00707558,-0.745437,0
15960,-0.831346,-0.0257285,-0.727663,0
15980,-0.854879,-0.0556344,-0.713069,0
16000,-0.873582,-0.0833631,-0.696901,0
16020,-0.88559,-0.109909,-0.679135,0
16040,-0.915385,-0.180351,-0.645056,0
16070,-0.92098,-0.191426,-0.641571,0
16090,-0.923061,-0.19458,-0.638446,0
16110,-0.926879,-0.197157,-0.636312,0
16130,-0.92788,-0.19927,-0.636109,0
16150,-0.927194,-0.201977,-0.63742,0
16170,-0.92927,-0.205277,-0.638211,0
16190,-0.932875,-0.208838,-0.639372,0
16220,-0.94198,-0.217457,-0.644525,0
16230,-0.946282,-0.220258,-0.647743,0
16250,-0.949341,-0.221154,-0.650914,0
16270,-0.952556,-0.221902,-0.651053,0
16290,-0.958387,-0.223205,-0.650337,0
16310,-0.963734,-0.223959,-0.651056,0
16330,-0.967496,-0.223764,-0.650653,0
16350,-0.970518,-0.223952,-0.64943,0
16370,-0.970496,-0.223848,-0.648729,0
16390,-0.96952,-0.22368,-0.647228,0
16410,-0.970656,-0.224627,-0.645363,0
16430,-0.971673,-0.225622,-0.644631,0
16450,-0.970984,-0.225507,-0.645371,0
16470,-0.969032,-0.224337,-0.646744,0
16490,-0.966536,-0.22295,-0.648314,0
16510,-0.962181,-0.22068,-0.651686,0
16530,-0.954584,-0.216269,-0.656931,0
16550,-0.942115,-0.209729,-0.664111,0
16570,-0.925003,-0.200789,-0.672617,0
16590,-0.909134,-0.189629,-0.680441,0
16610,-0.897096,-0.175702,-0.689513,0
16630,-0.891734,-0.157944,-0.701826,0
16650,-0.896002,-0.135608,-0.715135,0
16670,-0.905923,-0.108393,-0.729901,0
16690,-0.918355,-0.0757377,-0.746992,0
16710,-0.927336,-0.0403388,-0.764918,0
16710,-0.935238,0.000898093,-0.782327,0
16730,-0.94108,0.0470105,-0.801266,0
16750,-0.942454,0.0976256,-0.824698,0
16770,-0.935535,0.151159,-0.853348,0
16780,-0.925957,0.203791,-0.881758,0
16800,-0.918558,0.249084,-0.90828,0
16820,-0.911385,0.288814,-0.934432,0
16840,-0.904442,0.325153,-0.961836,0
16860,-0.896196,0.354218,-0.991002,0
16880,-0.883364,0.378404,-1.02284,0
16900,-0.86564,0.402613,-1.05631,0
16920,-0.843352,0.428414,-1.0893,0
16940,-0.823983,0.446299,-1.12352,0
16960,-0.799211,0.442482,-1.15377,0
16980,-0.757888,0.421252,-1.16968,0
17000,-0.729687,0.386864,-1.1814,0
17010,-0.717227,0.361072,-1.17774,0
17030,-0.7208,0.353835,-1.17105,0
17050,-0.729403,0.351954,-1.16334,0
17070,-0.744016,0.3533,-1.15558,0
17090,-0.762575,0.35247,-1.14784,0
17110,-0.774552,0.344868,-1.13616,0
17130,-0.779015,0.333658,-1.12303,0
17150,-0.778052,0.327774,-1.10901,0
17190,-0.751587,0.342616,-1.06409,0
17210,-0.752978,0.347328,-1.05057,0
17230,-0.757325,0.349032,-1.03961,0
17250,-0.758932,0.35004,-1.03112,0
17270,-0.755994,0.350549,-1.02345,0
17290,-0.750015,0.350655,-1.01651,0
17310,-0.743122,0.350764,-1.01057,0
17330,-0.737272,0.350604,-1.00653,0
17350,-0.734275,0.350626,-1.00512,0
17370,-0.732958,0.350039,-1.00567,0
17390,-0.730037,0.346856,-1.00764,0
17410,-0.725248,0.342594,-1.00946,0
17430,-0.719219,0.338445,-1.0109,0
17450,-0.713396,0.335443,-1.01267,0
17460,-0.708326,0.332403,-1.01414,0
17480,-0.687765,0.317885,-1.02261,0
17500,-0.688181,0.317731,-1.0224,0
17520,-0.689391,0.318274,-1.0216,0
17540,-0.690373,0.319153,-1.01999,0
17560,-0.69144,0.319945,-1.01794,0
17580,-0.692686,0.320824,-1.01585,0
17600,-0.693962,0.322003,-1.01375,0
17620,-0.694786,0.323169,-1.0112,0
17640,-0.6956,0.324666,-1.00894,0
17660,-0.696059,0.325866,-1.00658,0
17680,-0.697068,0.326997,-1.00467,0
17690,-0.697596,0.328466,-1.00288,0
17710,-0.69773,0.329861,-1.00093,0
17730,-0.697588,0.33113,-0.998819,0
17750,-0.698058,0.332661,-0.99763,0
17770,-0.699189,0.333643,-0.997158,0
17790,-0.700889,0.334421,-0.99738,0
17810,-0.702754,0.335115,-0.998206,0
17830,-0.703982,0.335963,-0.999022,0
17850,-0.705026,0.336792,-0.999765,0
17870,-0.705635,0.337771,-1.00028,0
17890,-0.705796,0.338468,-1.00079,0
17910,-0.706131,0.33919,-1.00094,0
17930,-0.706345,0.340596,-1.00005,0
17950,-0.706376,0.342699,-0.99911,0
17970,-0.707415,0.344558,-0.998576,0
17990,-0.709142,0.345707,-0.997827,0
18010,-0.71121,0.347058,-0.997735,0
18030,-0.712752,0.348909,-0.99739,0
18050,-0.713414,0.351016,-0.996986,0
18070,-0.713669,0.353247,-0.996492,0
18090,-0.714205,0.355477,-0.995957,0
18110,-0.714854,0.358054,-0.995188,0
18130,-0.716618,0.360825,-0.994343,0
18150,-0.719273,0.363805,-0.993644,0
18170,-0.721474,0.367359,-0.992758,0
18190,-0.723696,0.371688,-0.991522,0
18210,-0.725499,0.375705,-0.990432,0
18230,-0.727049,0.379639,-0.988782,0
18250,-0.728658,0.38293,-0.987154,0
18270,-0.73003,0.384936,-0.986148,0
18290,-0.732106,0.387557,-0.985999,0
18310,-0.735096,0.389716,-0.985557,0
18330,-0.740204,0.392164,-0.98565,0
18350,-0.745856,0.394661,-0.986291,0
18370,-0.750058,0.396873,-0.986973,0
18390,-0.754166,0.399189,-0.987974,0
18410,-0.75844,0.402433,-0.988045,0
18430,-0.761977,0.404704,-0.986929,0
18450,-0.765693,0.406419,-0.986353,0
18470,-0.769525,0.407969,-0.986332,0
18490,-0.772619,0.410221,-0.986365,0
18510,-0.775268,0.413515,-0.986603,0
18530,-0.777361,0.41639,-0.986117,0
18550,-0.778936,0.418533,-0.985062,0
18570,-0.780033,0.420583,-0.984057,0
18590,-0.779379,0.423042,-0.982827,0
18600,-0.777958,0.425945,-0.981211,0
18620,-0.776856,0.429847,-0.978619,0
18640,-0.774132,0.432517,-0.974591,0
18660,-0.76972,0.431354,-0.97087,0
18680,-0.76539,0.430459,-0.967625,0
18700,-0.759073,0.42788,-0.964783,0
18720,-0.749857,0.422883,-0.962098,0
18740,-0.738847,0.414668,-0.959844,0
18760,-0.726844,0.403135,-0.957949,0
18780,-0.718111,0.390906,-0.957592,0
18800,-0.708044,0.379985,-0.956189,0
18820,-0.697339,0.36673,-0.956113,0
18840,-0.689752,0.353011,-0.958997,0
18860,-0.677817,0.34095,-0.959951,0
18880,-0.661588,0.328233,-0.95423,0
18900,-0.646672,0.313917,-0.94062,0
18920,-0.645843,0.299496,-0.925323,0
18940,-0.655579,0.281795,-0.909032,0
18960,-0.664764,0.259224,-0.888164,0
18980,-0.675632,0.229107,-0.866667,0
19000,-0.704868,0.168305,-0.821864,0
19010,-0.730937,0.137941,-0.800426,0
19030,-0.765022,0.106672,-0.779993,0
19050,-0.798149,0.0744594,-0.759755,0
19070,-0.824782,0.0427279,-0.738566,0
19090,-0.848512,0.0121938,-0.719934,0
19110,-0.874292,-0.0173042,-0.708354,0
19130,-0.898084,-0.045947,-0.701559,0
19150,-0.918691,-0.0732049,-0.695322,0
19170,-0.932815,-0.0997946,-0.687516,0
19190,-0.942809,-0.125613,-0.679045,0
19210,-0.948914,-0.150848,-0.670051,0
19210,-0.962595,-0.205131,-0.649425,0
19230,-0.962251,-0.216461,-0.646024,0
19250,-0.962196,-0.226422,-0.642292,0
19270,-0.961534,-0.233065,-0.639712,0
19290,-0.960168,-0.236329,-0.639086,0
19310,-0.958017,-0.238076,-0.638556,0
19330,-0.958742,-0.240025,-0.640014,0
19350,-0.963996,-0.240885,-0.641832,0
19370,-0.967435,-0.240623,-0.643341,0
19390,-0.966061,-0.240011,-0.642662,0
19410,-0.963349,-0.23996,-0.641659,0
19430,-0.960232,-0.239328,-0.641646,0
19450,-0.955746,-0.239742,-0.641324,0
19470,-0.956372,-0.241182,-0.640666,0
19490,-0.958003,-0.240603,-0.64029,0
19510,-0.956946,-0.237999,-0.64047,0
19530,-0.95349,-0.235464,-0.640633,0
19550,-0.948131,-0.233879,-0.640948,0
19570,-0.944859,-0.233742,-0.642775,0
19590,-0.942546,-0.235135,-0.64569,0
19610,-0.942785,-0.236521,-0.64891,0
19630,-0.943016,-0.236286,-0.652005,0
19660,-0.942188,-0.234843,-0.65919,0
19690,-0.94589,-0.231449,-0.662378,0
19710,-0.943273,-0.231395,-0.663142,0
19730,-0.940091,-0.232366,-0.664141,0
19750,-0.940094,-0.233532,-0.665206,0
19770,-0.939577,-0.234492,-0.666066,0
19790,-0.937555,-0.235552,-0.664986,2000
19810,-0.936544,-0.236641,-0.665897,0
19830,-0.935414,-0.237261,-0.667618,0
19850,-0.934862,-0.23903,-0.669017,0
19870,-0.936289,-0.238692,-0.669376,0
19890,-0.937491,-0.236893,-0.668069,0
19910,-0.938402,-0.235841,-0.665925,0
19930,-0.937701,-0.237746,-0.663342,0
19950,-0.937005,-0.24155,-0.661974,0
19970,-0.935486,-0.243594,-0.661793,0
19990,-0.933599,-0.244809,-0.660682,0
20010,-0.931873,-0.247829,-0.658281,0
20030,-0.929421,-0.252022,-0.656507,0
20050,-0.926713,-0.256092,-0.654929,0
20070,-0.924945,-0.261494,-0.652487,0
20090,-0.922839,-0.267229,-0.649925,0
20110,-0.920636,-0.273206,-0.646497,0
20130,-0.919543,-0.279541,-0.642653,0
20150,-0.918727,-0.287346,-0.63878,0
20170,-0.917705,-0.295504,-0.63621,0
20190,-0.916978,-0.300952,-0.634437,0
20210,-0.91508,-0.306663,-0.633348,0
20230,-0.910583,-0.313169,-0.632179,0
20250,-0.907245,-0.319771,-0.630836,0
20270,-0.906056,-0.327379,-0.629819,0
20290,-0.905075,-0.335543,-0.629499,0
20310,-0.900664,-0.341136,-0.631392,0
20330,-0.89491,-0.344983,-0.634284,0
20350,-0.889802,-0.34919,-0.636584,0
20370,-0.886499,-0.35439,-0.638573,0
20390,-0.882133,-0.36069,-0.641636,0
20410,-0.874936,-0.366389,-0.646174,0
20430,-0.867792,-0.370311,-0.651288,0
20450,-0.860574,-0.374301,-0.658383,0
20470,-0.854561,-0.379984,-0.667603,0
20490,-0.849502,-0.385913,-0.676929,0
20510,-0.844766,-0.390856,-0.687434,0
20530,-0.8412,-0.39538,-0.700038,0
20540,-0.816688,-0.417076,-0.757172,0
20580,-0.794159,-0.462067,-0.897344,0
20650,-0.782091,-0.5021,-1.01772,0
20670,-0.779438,-0.519989,-1.07497,0
20720,-0.775918,-0.526907,-1.135,0
20740,-0.778649,-0.52011,-1.14734,0
20760,-0.775605,-0.51404,-1.16204,0
20820,-0.751899,-0.495465,-1.20321,0
20840,-0.748793,-0.490026,-1.20921,0
20860,-0.745271,-0.486611,-1.21381,0
20880,-0.739368,-0.48436,-1.21664,0
20900,-0.733981,-0.480774,-1.21804,0
20920,-0.731108,-0.475997,-1.21801,0
20940,-0.731324,-0.470402,-1.21579,0
20960,-0.731095,-0.467597,-1.21104,0
20980,-0.73016,-0.466362,-1.20521,0
21000,-0.730511,-0.464103,-1.19843,0
21020,-0.734765,-0.461184,-1.19095,0
21040,-0.745312,-0.456942,-1.18367,0
21060,-0.753113,-0.449789,-1.1773,0
21080,-0.753937,-0.43912,-1.17204,0
21100,-0.751856,-0.426426,-1.16675,0
21120,-0.751001,-0.414317,-1.16181,0
21170,-0.738402,-0.380437,-1.12774,0
21190,-0.734184,-0.377466,-1.11531,0
21200,-0.732839,-0.3769,-1.10162,0
21220,-0.733324,-0.376561,-1.08624,0
21240,-0.734118,-0.376437,-1.06925,0
21250,-0.733428,-0.377316,-1.0543,0
21270,-0.732032,-0.378157,-1.03925,0
21290,-0.732679,-0.381119,-1.02391,0
21310,-0.730605,-0.383967,-1.00779,0
21330,-0.722825,-0.386829,-0.993581,0
21350,-0.712398,-0.392673,-0.979954,0
21370,-0.706528,-0.403301,-0.964871,0
21390,-0.705598,-0.414461,-0.948008,0
21410,-0.707554,-0.423187,-0.931433,0
21450,-0.73043,-0.452629,-0.866745,0
21470,-0.740127,-0.463086,-0.843562,0
21490,-0.752885,-0.472737,-0.818892,0
21520,-0.798219,-0.497819,-0.743326,0
21540,-0.80905,-0.506607,-0.719528,0
21560,-0.820334,-0.515707,-0.696628,0
21580,-0.832055,-0.524593,-0.675354,0
21600,-0.843632,-0.532814,-0.655933,0
21620,-0.854151,-0.53947,-0.637724,0
21640,-0.862893,-0.546394,-0.621195,0
21660,-0.867426,-0.554384,-0.606286,0
21680,-0.874306,-0.562921,-0.590929,0
21700,-0.882494,-0.569847,-0.577666,0
21720,-0.888034,-0.576704,-0.568077,0
21740,-0.89108,-0.58422,-0.559258,0
21770,-0.896556,-0.59986,-0.544385,0
21790,-0.898537,-0.607332,-0.541555,0
21810,-0.900973,-0.61532,-0.539296,0
21830,-0.902812,-0.622922,-0.537859,0
21850,-0.903267,-0.630382,-0.537934,0
21870,-0.904939,-0.638925,-0.540574,0
21900,-0.896553,-0.674246,-0.59247,0
21920,-0.890983,-0.681705,-0.610062,0
21940,-0.88518,-0.688706,-0.629716,0
21960,-0.879176,-0.693889,-0.651992,0
21980,-0.8723,-0.698307,-0.676282,0
22000,-0.864236,-0.704057,-0.700645,0
22020,-0.855787,-0.710235,-0.725744,0
22040,-0.847118,-0.71598,-0.751707,0
22060,-0.837795,-0.722375,-0.778439,0
22080,-0.829621,-0.728204,-0.804503,0
22100,-0.822522,-0.73356,-0.829104,0
22120,-0.815436,-0.739899,-0.852865,0
22140,-0.807414,-0.746782,-0.877697,0
22160,-0.800144,-0.754154,-0.901703,0
22180,-0.794808,-0.761304,-0.923561,0
22200,-0.789168,-0.767436,-0.944749,0
22220,-0.782029,-0.772997,-0.964293,0
22240,-0.775959,-0.779886,-0.982012,0
22260,-0.771183,-0.787501,-0.998247,0
22280,-0.766654,-0.795509,-1.01388,0
22300,-0.761954,-0.802483,-1.02854,0
22320,-0.757747,-0.809561,-1.04194,0
22340,-0.75359,-0.816478,-1.05424,0
22360,-0.748224,-0.823184,-1.06677,0
22380,-0.743158,-0.829085,-1.07911,0
22400,-0.739767,-0.831589,-1.09089,0
22420,-0.736802,-0.83082,-1.1031,0
22440,-0.732972,-0.829899,-1.11607,0
22460,-0.727127,-0.829315,-1.12936,0
22480,-0.721668,-0.826521,-1.14184,0
22500,-0.713969,-0.820188,-1.15458,0
22520,-0.707426,-0.813114,-1.16558,0
22540,-0.703839,-0.806075,-1.17456,0
22560,-0.698409,-0.799157,-1.18535,0
22580,-0.691544,-0.792934,-1.19675,0
22600,-0.684978,-0.787281,-1.20511,0
22620,-0.680937,-0.783022,-1.21071,0
22640,-0.67819,-0.778466,-1.21749,0
22660,-0.67519,-0.774241,-1.22399,0
22680,-0.674998,-0.770661,-1.2283,0
22720,-0.671758,-0.762407,-1.23419,0
22740,-0.669119,-0.757632,-1.23723,0
22760,-0.668737,-0.75145,-1.23945,0
22780,-0.669942,-0.743865,-1.24117,0
22820,-0.692847,-0.70101,-1.22501,0
22830,-0.736755,-0.673472,-1.19138,0
22850,-0.751201,-0.666273,-1.17912,0
22870,-0.763246,-0.657726,-1.16718,0
22890,-0.771749,-0.647779,-1.15715,0
22910,-0.778084,-0.638786,-1.14729,0
22930,-0.786505,-0.630752,-1.13707,0
22950,-0.797171,-0.622665,-1.12729,0
22970,-0.806452,-0.612956,-1.11675,0
22990,-0.814201,-0.604425,-1.10561,0
23010,-0.819455,-0.596409,-1.09541,0
23030,-0.82868,-0.588271,-1.08408,0
23050,-0.843213,-0.579888,-1.07009,0
23070,-0.859503,-0.572107,-1.05395,0
23100,-0.885397,-0.560593,-1.0225,0
23130,-0.907656,-0.554832,-0.992858,0
23150,-0.923856,-0.552408,-0.965647,0
23160,-0.94357,-0.548102,-0.917287,0
23180,-0.951208,-0.546939,-0.905743,0
23220,-0.99853,-0.534777,-0.822058,0
23240,-1.00341,-0.533032,-0.809549,0
23260,-1.00967,-0.532771,-0.797834,0
23280,-1.01641,-0.531453,-0.787521,0
23300,-1.02549,-0.529571,-0.774775,0
23320,-1.03466,-0.528475,-0.75971,0
23340,-1.04139,-0.52867,-0.743969,0
23360,-1.04527,-0.531844,-0.72783,0
23390,-1.07997,-0.575149,-0.633409,0
23410,-1.08634,-0.58709,-0.613295,0
23430,-1.09319,-0.600694,-0.593347,0
23450,-1.10292,-0.614413,-0.571889,0
23470,-1.11143,-0.627636,-0.551038,0
23490,-1.12152,-0.641837,-0.529855,0
23510,-1.19984,-0.770855,-0.376341,0
23530,-1.20818,-0.784921,-0.365659,0
23550,-1.21637,-0.798255,-0.357397,0
23580,-1.22551,-0.824067,-0.351797,0
23600,-1.22609,-0.837722,-0.353523,0
23610,-1.22503,-0.850626,-0.35951,0
23630,-1.22191,-0.862771,-0.370053,0
23640,-1.21894,-0.87396,-0.38494,0
23660,-1.21527,-0.8852,-0.402095,0
23680,-1.20635,-0.898269,-0.423692,0
23690,-1.19311,-0.912773,-0.448606,0
23710,-1.17835,-0.928434,-0.476163,0
23730,-1.16639,-0.94295,-0.505148,0
23750,-1.15484,-0.956726,-0.536543,0
23770,-1.14289,-0.970082,-0.567903,0
23790,-1.13147,-0.981978,-0.598365,0
23810,-1.11854,-0.993641,-0.630256,0
23830,-1.10553,-1.00379,-0.663197,0
23850,-1.09215,-1.01146,-0.696851,0
23870,-1.07759,-1.01586,-0.731128,0
23900,-1.05085,-1.021,-0.79356,0
23920,-1.04254,-1.02379,-0.819669,0
23940,-1.03331,-1.0275,-0.846152,0
23960,-1.02371,-1.0307,-0.871517,0
23980,-1.0138,-1.03228,-0.894342,0
24000,-1.00209,-1.0332,-0.917231,0
24020,-0.989601,-1.03471,-0.941036,0
24040,-0.981348,-1.03537,-0.963075,0
24060,-0.972912,-1.03274,-0.984278,0
24080,-0.964688,-1.02751,-1.00393,0
24100,-0.953394,-1.02084,-1.02461,0
24120,-0.940766,-1.01312,-1.04491,0
24140,-0.929852,-1.00403,-1.06514,0
24160,-0.919907,-0.991197,-1.0847,0
24180,-0.908248,-0.976277,-1.10483,0
24200,-0.894485,-0.961053,-1.12358,0
24220,-0.883636,-0.947451,-1.13878,0
24240,-0.874579,-0.933715,-1.15303,0
24260,-0.866284,-0.920612,-1.16602,0
24280,-0.859583,-0.907294,-1.17737,0
24300,-0.853294,-0.893459,-1.18869,0
24320,-0.847696,-0.880423,-1.19789,0
24340,-0.844494,-0.868439,-1.20446,0
24360,-0.842809,-0.856575,-1.20929,0
24380,-0.838504,-0.846886,-1.21462,0
24400,-0.835631,-0.838137,-1.21847,0
24420,-0.83363,-0.82952,-1.21992,0
24440,-0.832066,-0.821544,-1.22039,0
24460,-0.832831,-0.815845,-1.21788,0
24490,-0.84395,-0.793165,-1.1948,0
24520,-0.855925,-0.785082,-1.18022,0
24540,-0.86136,-0.7788,-1.17209,0
24560,-0.864983,-0.772509,-1.1637,0
24580,-0.868505,-0.768415,-1.15572,0
24600,-0.873809,-0.762331,-1.14787,0
24620,-0.882996,-0.754039,-1.13689,0
24640,-0.892359,-0.747893,-1.12554,0
24660,-0.89882,-0.743606,-1.11573,0
24680,-0.900291,-0.737797,-1.10847,0
24700,-0.897946,-0.731571,-1.10211,0
24720,-0.898319,-0.725765,-1.09417,0
24740,-0.901934,-0.721095,-1.08332,0
24760,-0.90865,-0.717466,-1.07215,0
24780,-0.916562,-0.711474,-1.06132,0
24800,-0.921305,-0.704857,-1.05018,0
24820,-0.92478,-0.700376,-1.03704,0
24840,-0.930181,-0.69655,-1.02442,0
24850,-0.93642,-0.691054,-1.01407,0
24870,-0.937678,-0.685428,-1.00701,0
24890,-0.932915,-0.679188,-0.99999,0
24910,-0.925333,-0.673616,-0.992216,0
24930,-0.916527,-0.667322,-0.985549,0
24950,-0.911071,-0.659394,-0.977964,0
24970,-0.912989,-0.652186,-0.968097,0
24990,-0.919571,-0.646797,-0.955784,0
25010,-0.92777,-0.641909,-0.941452,0
25030,-0.937897,-0.638646,-0.925028,0
25050,-0.950837,-0.635088,-0.907577,0
25070,-0.964009,-0.63256,-0.890104,0
25090,-0.9791,-0.632066,-0.870845,0
25110,-0.997869,-0.63082,-0.850214,0
25130,-1.01831,-0.629847,-0.829718,0
25150,-1.0375,-0.628959,-0.808319,0
25170,-1.05766,-0.630709,-0.78525,0
25190,-1.07869,-0.632548,-0.761191,0
25210,-1.0981,-0.635252,-0.737404,0
25230,-1.11586,-0.640605,-0.713628,0
25250,-1.13393,-0.648102,-0.688358,0
25270,-1.15211,-0.65659,-0.661592,0
25290,-1.17177,-0.665936,-0.633964,0
25310,-1.19047,-0.676449,-0.606516,0
25330,-1.20835,-0.688292,-0.57939,0
25350,-1.2261,-0.699584,-0.551857,0
25370,-1.24488,-0.71099,-0.525522,0
25390,-1.25993,-0.723042,-0.501695,0
25410,-1.2726,-0.736583,-0.478271,0
25430,-1.28559,-0.750014,-0.454737,0
25450,-1.29649,-0.762006,-0.433689,0
25470,-1.30422,-0.775598,-0.41669,0
25490,-1.3142,-0.792733,-0.401455,0
25510,-1.32304,-0.80813,-0.388867,0
25530,-1.32651,-0.821523,-0.378601,0
25550,-1.32595,-0.837227,-0.369788,0
25570,-1.3276,-0.854476,-0.362839,0
25590,-1.32939,-0.870419,-0.358927,0
25610,-1.33126,-0.885327,-0.3568,0
25630,-1.33243,-0.900173,-0.356347,0
25650,-1.33266,-0.914121,-0.357425,0
25670,-1.33025,-0.926997,-0.35985,0
25690,-1.32687,-0.937413,-0.362952,2001
25710,-1.32508,-0.949358,-0.366278,0
25730,-1.32408,-0.960155,-0.371695,0
25750,-1.32469,-0.968202,-0.376284,0
25750,-1.32399,-0.973314,-0.381777,0
25770,-1.32301,-0.9775,-0.386187,0
25790,-1.31864,-0.984195,-0.393993,0
25810,-1.31678,-0.984802,-0.398898,0
25850,-1.29247,-0.966015,-0.419667,0
25860,-1.28662,-0.957782,-0.426474,0
25920,-1.18838,-0.846231,-0.499783,0
25960,-1.14028,-0.797839,-0.530478,0
25980,-1.11772,-0.772913,-0.543917,0
26000,-1.09421,-0.746431,-0.558445,0
26020,-1.07035,-0.716269,-0.57197,0
26040,-1.04981,-0.686209,-0.583593,0
26060,-1.02831,-0.656493,-0.595508,0
26080,-1.00883,-0.628112,-0.604804,0
26110,-0.968981,-0.553822,-0.620613,0
26130,-0.964863,-0.534797,-0.623621,0
26150,-0.962672,-0.51924,-0.626407,0
26160,-0.958023,-0.494275,-0.628881,0
26180,-0.955238,-0.485633,-0.62712,0
26200,-0.951217,-0.48094,-0.625735,0
26210,-0.94624,-0.479098,-0.625301,0
26250,-0.940521,-0.478884,-0.621656,2000
26290,-0.940671,-0.481168,-0.616817,0
26310,-0.941083,-0.48219,-0.614755,0
26350,-0.941259,-0.479688,-0.611735,0
26400,-0.937443,-0.472781,-0.611137,0
26420,-0.936689,-0.469049,-0.610882,0
26440,-0.936733,-0.466125,-0.610206,0
26450,-0.935521,-0.464761,-0.609692,0
26460,-0.934911,-0.464057,-0.6091,0
26480,-0.934757,-0.462646,-0.608989,0
26500,-0.933403,-0.460399,-0.609063,0
26520,-0.931288,-0.458817,-0.608521,0
26540,-0.92949,-0.457877,-0.606638,0
26560,-0.928797,-0.457159,-0.603817,0
26580,-0.929379,-0.457771,-0.600926,0
26600,-0.930946,-0.459242,-0.596793,0
26620,-0.932438,-0.461328,-0.590235,0
26640,-0.936135,-0.464353,-0.581241,0
26660,-0.940999,-0.46878,-0.571241,0
26680,-0.945204,-0.47524,-0.562493,0
26700,-0.948255,-0.481449,-0.556771,0
26710,-0.952819,-0.487769,-0.550202,0
26730,-0.96032,-0.492674,-0.544351,0
26750,-0.968781,-0.495446,-0.540109,0
26770,-0.97222,-0.497669,-0.537892,0
26790,-0.976753,-0.500883,-0.536207,0
26800,-0.980448,-0.503859,-0.536335,0
26820,-0.983978,-0.507365,-0.538693,0
26840,-0.986137,-0.511862,-0.54244,0
26860,-0.986212,-0.518854,-0.5465,0
26880,-0.981124,-0.537472,-0.560765,0
26910,-0.967382,-0.600711,-0.626204,0
26930,-0.951472,-0.637211,-0.688909,0
26950,-0.945025,-0.648055,-0.713978,0
26980,-0.934446,-0.669773,-0.764753,0
27000,-0.928275,-0.680199,-0.792701,0
27020,-0.915751,-0.698019,-0.849368,0
27040,-0.910175,-0.705914,-0.877221,0
27060,-0.899577,-0.716251,-0.931239,0
27070,-0.895701,-0.71937,-0.955486,0
27090,-0.891359,-0.721713,-0.978981,0
27110,-0.888035,-0.7249,-1.00144,0
27130,-0.884534,-0.729313,-1.02264,0
27150,-0.881512,-0.732881,-1.04294,0
27170,-0.872343,-0.727331,-1.09633,0
27190,-0.868804,-0.724595,-1.11222,0
27210,-0.862225,-0.721014,-1.12851,0
27230,-0.855881,-0.71571,-1.14204,0
27250,-0.850717,-0.709066,-1.15443,0
27270,-0.827426,-0.676731,-1.20504,0
27290,-0.821647,-0.667533,-1.21539,0
27300,-0.815787,-0.659282,-1.22377,0
27320,-0.808295,-0.651533,-1.23111,0
27340,-0.800936,-0.643688,-1.23895,0
27360,-0.796455,-0.634843,-1.24451,0
27380,-0.791568,-0.62634,-1.24732,0
27400,-0.784543,-0.619604,-1.24945,0
27420,-0.778478,-0.613874,-1.24963,0
27430,-0.773932,-0.609013,-1.24919,0
27450,-0.771174,-0.604689,-1.2473,0
27460,-0.765875,-0.591337,-1.23875,0
27490,-0.76661,-0.567672,-1.21947,0
27510,-0.766152,-0.559599,-1.2109,0
27530,-0.767934,-0.55188,-1.20177,0
27550,-0.771556,-0.544401,-1.19183,0
27570,-0.776249,-0.5382,-1.18134,0
27590,-0.780774,-0.531544,-1.17053,0
27620,-0.787097,-0.517351,-1.15141,0
27640,-0.792665,-0.512762,-1.14006,0
27660,-0.799649,-0.509239,-1.12783,0
27670,-0.809654,-0.503651,-1.10157,0
27690,-0.814919,-0.502316,-1.08716,0
27710,-0.823932,-0.500375,-1.07166,0
27720,-0.837971,-0.497167,-1.05359,0
27740,-0.855087,-0.494649,-1.03352,0
27760,-0.900415,-0.485846,-0.977679,0
27820,-0.967517,-0.481197,-0.873546,0
27850,-1.0272,-0.489124,-0.786204,0
27870,-1.03629,-0.491466,-0.770267,0
27910,-1.09781,-0.532063,-0.65882,0
27940,-1.12232,-0.562918,-0.599237,0
27960,-1.13275,-0.57485,-0.579815,0
27980,-1.14399,-0.585578,-0.559512,0
28000,-1.14996,-0.595595,-0.5409,0
28010,-1.15599,-0.605043,-0.523679,0
28030,-1.16206,-0.614279,-0.507521,0
28050,-1.17089,-0.624243,-0.490517,0
28060,-1.18054,-0.633691,-0.474444,0
28070,-1.18753,-0.642819,-0.460904,0
28090,-1.19096,-0.652844,-0.449514,0
28110,-1.19366,-0.662269,-0.439406,0
28130,-1.19663,-0.672247,-0.431633,0
28150,-1.19741,-0.682701,-0.427731,0
28170,-1.19607,-0.693159,-0.425902,0
28190,-1.19293,-0.703259,-0.427029,0
28210,-1.18714,-0.712686,-0.434178,0
28230,-1.17946,-0.721389,-0.44518,0
28250,-1.17094,-0.73059,-0.45888,0
28270,-1.16263,-0.742144,-0.474835,0
28290,-1.15263,-0.754292,-0.494886,0
28310,-1.13943,-0.765932,-0.519277,0
28330,-1.12658,-0.777851,-0.544857,0
28350,-1.11551,-0.790108,-0.572154,0
28370,-1.10207,-0.802452,-0.603386,0
28390,-1.08683,-0.816545,-0.637232,0
28410,-1.07166,-0.831068,-0.672196,0
28430,-1.05672,-0.844799,-0.708556,0
28450,-1.04094,-0.857729,-0.74808,0
28470,-1.02447,-0.868647,-0.789258,0
28490,-1.00625,-0.876274,-0.832551,0
28510,-0.986444,-0.881879,-0.874938,0
28530,-0.966552,-0.887765,-0.916552,0
28550,-0.949457,-0.892819,-0.954648,0
28570,-0.932673,-0.896611,-0.991919,0
28590,-0.916336,-0.899603,-1.02726,0
28610,-0.900248,-0.902174,-1.06088,0
28630,-0.885177,-0.90369,-1.09144,0
28650,-0.869406,-0.904785,-1.1201,0
28670,-0.851995,-0.906774,-1.14805,0
28690,-0.835939,-0.907832,-1.17436,0
28710,-0.825186,-0.905072,-1.19609,0
28730,-0.814368,-0.899613,-1.21618,0
28750,-0.805635,-0.89482,-1.23401,0
28770,-0.801512,-0.890003,-1.24783,0
28790,-0.803696,-0.88208,-1.25753,0
28810,-0.806762,-0.87013,-1.26388,0
28830,-0.806909,-0.858263,-1.26884,0
28850,-0.80312,-0.849252,-1.27573,0
28860,-0.798273,-0.839851,-1.28039,0
28900,-0.792241,-0.817125,-1.28367,0
28920,-0.789578,-0.805672,-1.28409,0
28940,-0.788765,-0.795522,-1.28289,0
28960,-0.789437,-0.784722,-1.28001,0
28980,-0.789284,-0.772549,-1.27423,0
29000,-0.79262,-0.761819,-1.26706,0
29020,-0.795529,-0.749733,-1.25969,0
29040,-0.799564,-0.738257,-1.25035,0
29060,-0.805764,-0.726807,-1.23926,0
29080,-0.812278,-0.716323,-1.22706,0
29100,-0.818265,-0.706262,-1.21565,0
29120,-0.824548,-0.696919,-1.20416,0
29140,-0.830364,-0.687355,-1.19254,0
29160,-0.833853,-0.676899,-1.18129,0
29180,-0.835054,-0.667412,-1.17021,0
29200,-0.837365,-0.660117,-1.15788,0
29220,-0.839772,-0.653749,-1.14478,0
29240,-0.843436,-0.648419,-1.1311,0
29260,-0.848605,-0.644042,-1.11648,0
29280,-0.855716,-0.639103,-1.10076,0
29300,-0.870835,-0.627433,-1.0693,0
29320,-0.878957,-0.623348,-1.05249,0
29340,-0.887204,-0.619031,-1.03675,0
29360,-0.893487,-0.615506,-1.01937,0
29380,-0.901566,-0.613903,-1.00135,0
29400,-0.910367,-0.612968,-0.98381,0
29420,-0.922089,-0.612416,-0.965899,0
29440,-0.933849,-0.610531,-0.946743,0
29460,-0.947169,-0.608575,-0.924226,0
29480,-0.964628,-0.607266,-0.89923,0
29500,-0.984167,-0.606323,-0.874301,0
29520,-1.0059,-0.605634,-0.848568,0
29540,-1.03047,-0.606364,-0.820134,0
29560,-1.05473,-0.606563,-0.789981,0
29580,-1.07592,-0.607436,-0.760105,0
29600,-1.09487,-0.61131,-0.730997,0
29620,-1.11557,-0.61884,-0.700437,0
29640,-1.13616,-0.627208,-0.670842,0
29660,-1.15323,-0.633784,-0.644473,0
29680,-1.16702,-0.641421,-0.617163,0
29700,-1.18178,-0.651745,-0.589125,0
29720,-1.19652,-0.665406,-0.563604,0
29740,-1.20889,-0.681096,-0.538717,0
29750,-1.22364,-0.694577,-0.513168,0
29780,-1.26253,-0.717623,-0.463314,0
29800,-1.27543,-0.730272,-0.442823,0
29840,-1.29624,-0.761545,-0.402257,0
29860,-1.30722,-0.776237,-0.384494,0
29880,-1.31765,-0.791353,-0.368925,0
29900,-1.3296,-0.806712,-0.353869,0
29920,-1.34057,-0.82172,-0.339493,0
29930,-1.35626,-0.8512,-0.317833,0
29950,-1.37658,-0.882971,-0.300227,0
29960,-1.45167,-0.952766,-0.274012,0
29960,-1.47103,-0.964319,-0.275034,0
29980,-1.48188,-0.977286,-0.284721,0
29990,-1.48567,-0.99071,-0.29887,0
30010,-1.48623,-1.00723,-0.317993,0
30030,-1.48119,-1.02552,-0.344454,0
30070,-1.45182,-1.06034,-0.415531,0
30090,-1.42907,-1.0755,-0.460115,0
30110,-1.39936,-1.08998,-0.510256,0
30180,-1.19605,-1.13741,-0.803888,0
30200,-1.15277,-1.13975,-0.864096,0
30220,-1.10973,-1.13946,-0.921136,0
30240,-1.07446,-1.13943,-0.968394,0
30260,-1.04363,-1.13809,-1.01348,0
30300,-0.994762,-1.12075,-1.09497,0
30320,-0.972187,-1.10771,-1.13222,0
30340,-0.943066,-1.08991,-1.17112,0
30360,-0.914808,-1.07118,-1.20554,0
30380,-0.892623,-1.0514,-1.23367,0
30400,-0.870106,-1.03029,-1.26186,0
30420,-0.851453,-1.01236,-1.28668,0
30440,-0.832094,-0.992725,-1.30769,0
30460,-0.814919,-0.974799,-1.32278,0
30480,-0.798197,-0.956747,-1.33645,0
30500,-0.787967,-0.941418,-1.34367,0
30520,-0.787714,-0.93075,-1.34643,0
30540,-0.791666,-0.917824,-1.35117,0
30560,-0.795578,-0.897735,-1.35516,0
30580,-0.796787,-0.877901,-1.35878,0
30600,-0.794715,-0.860809,-1.35866,0
30620,-0.792399,-0.842833,-1.35573,0
30640,-0.791492,-0.828274,-1.35769,0
30660,-0.799562,-0.813089,-1.35826,0
30700,-0.815527,-0.77923,-1.34698,0
30720,-0.818237,-0.769975,-1.34028,0
30740,-0.827696,-0.758614,-1.33208,0
30760,-0.84206,-0.748819,-1.3235,0
30780,-0.855529,-0.740845,-1.31139,0
30800,-0.868116,-0.732027,-1.29725,0
30820,-0.877828,-0.720276,-1.28462,0
30840,-0.892711,-0.714149,-1.27027,0
30860,-0.913949,-0.70988,-1.25231,0
30880,-0.935161,-0.699532,-1.23305,0
30920,-0.97068,-0.689281,-1.19472,0
30960,-1.01913,-0.68007,-1.14684,0
30980,-1.04971,-0.677732,-1.11809,0
31000,-1.08451,-0.677047,-1.0885,0
31020,-1.11944,-0.675804,-1.05859,0
31040,-1.15373,-0.672626,-1.03058,0
31060,-1.18608,-0.668617,-1.00148,0
31080,-1.21857,-0.664324,-0.970736,0
31100,-1.25036,-0.662748,-0.940748,0
31120,-1.27691,-0.662319,-0.910744,0
31140,-1.30579,-0.662952,-0.878141,0
31160,-1.33543,-0.665163,-0.845801,0
31180,-1.35983,-0.668954,-0.814766,0
31200,-1.38028,-0.676566,-0.782717,0
31220,-1.40464,-0.68586,-0.748007,0
31240,-1.43152,-0.696265,-0.715147,0
31260,-1.45154,-0.706214,-0.685017,0
31280,-1.46725,-0.71709,-0.651778,0
31300,-1.48407,-0.730997,-0.616854,0
31320,-1.50097,-0.746571,-0.58272,0
31340,-1.5222,-0.765694,-0.547492,0
31360,-1.54355,-0.784856,-0.512353,0
31380,-1.56275,-0.802258,-0.47816,0
31400,-1.58364,-0.820101,-0.443249,0
31420,-1.60254,-0.839935,-0.41065,0
31440,-1.61912,-0.860099,-0.380345,0
31460,-1.64214,-0.879501,-0.346443,0
31480,-1.66274,-0.896628,-0.317839,0
31500,-1.67921,-0.915172,-0.294505,0
31520,-1.69477,-0.930795,-0.270155,0
31540,-1.71062,-0.946495,-0.248299,0
31560,-1.72453,-0.962583,-0.231141,0
31580,-1.73537,-0.978799,-0.219331,0
31600,-1.74073,-0.992814,-0.212521,0
31620,-1.74393,-1.00628,-0.206303,0
31640,-1.74547,-1.0198,-0.203783,0
31660,-1.74105,-1.03135,-0.209079,2001
31670,-1.73591,-1.04158,-0.215659,0
31690,-1.73294,-1.04941,-0.222012,0
31710,-1.72931,-1.05486,-0.232037,0
31730,-1.71834,-1.0578,-0.244616,0
31750,-1.70613,-1.05969,-0.254585,0
31770,-1.69471,-1.06175,-0.266109,0
31790,-1.6887,-1.06233,-0.276441,0
31810,-1.68625,-1.05929,-0.282985,0
31830,-1.67959,-1.05603,-0.289767,0
31850,-1.66704,-1.05116,-0.297408,0
31870,-1.66011,-1.04335,-0.302438,0
31890,-1.65693,-1.03507,-0.307193,0
31910,-1.65388,-1.02636,-0.310392,0
31930,-1.6477,-1.01595,-0.311647,0
31950,-1.63987,-1.00329,-0.310844,0
31960,-1.6259,-0.989162,-0.31458,0
31960,-1.6033,-0.973304,-0.324792,0
31980,-1.55495,-0.938183,-0.348772,0
31990,-1.52498,-0.916535,-0.364546,0
32010,-1.48648,-0.894865,-0.381763,0
32020,-1.44911,-0.875752,-0.394854,0
32040,-1.41778,-0.857082,-0.404693,0
32060,-1.38146,-0.83511,-0.421095,0
32080,-1.34177,-0.809617,-0.438085,0
32100,-1.31114,-0.78223,-0.446115,0
32120,-1.286,-0.755118,-0.451311,0
32140,-1.25506,-0.730648,-0.462869,0
32170,-1.18429,-0.654325,-0.470293,0
32180,-1.14023,-0.591346,-0.483295,0
32210,-1.11126,-0.554918,-0.49329,0
32230,-1.09649,-0.540736,-0.499922,0
32240,-1.08778,-0.527727,-0.505422,0
32260,-1.0794,-0.515181,-0.51207,0
32280,-1.069,-0.505713,-0.518926,0
32300,-1.05763,-0.498963,-0.523743,0
32320,-1.04991,-0.4944,-0.526491,0
32340,-1.04487,-0.492431,-0.529107,0
32360,-1.04058,-0.49254,-0.532766,0
32380,-1.03721,-0.492912,-0.534618,0
32400,-1.03592,-0.493092,-0.533428,0
32420,-1.03491,-0.493854,-0.532956,0
32440,-1.03232,-0.495994,-0.534141,0
32460,-1.0312,-0.498444,-0.534421,0
32480,-1.03036,-0.499944,-0.53433,0
32500,-1.02943,-0.499742,-0.534359,0
32520,-1.0285,-0.49801,-0.533821,0
32540,-1.03131,-0.496324,-0.532997,0
32560,-1.03066,-0.494034,-0.534883,0
32580,-1.02648,-0.491346,-0.536518,2000
32600,-1.02273,-0.488561,-0.535818,0
32620,-1.02087,-0.487889,-0.533553,0
32640,-1.01919,-0.489177,-0.533239,0
32660,-1.01728,-0.49161,-0.533268,0
32680,-1.01494,-0.493136,-0.529947,0
32700,-1.01309,-0.494284,-0.523981,0
32720,-1.01319,-0.496701,-0.517144,0
32740,-1.0146,-0.501368,-0.510624,0
32760,-1.01644,-0.506245,-0.502939,0
32780,-1.01861,-0.511308,-0.492067,0
32800,-1.02097,-0.51566,-0.478721,0
32820,-1.02295,-0.520568,-0.465113,0
32840,-1.0265,-0.52775,-0.451,0
32860,-1.02992,-0.534771,-0.436031,0
32880,-1.0334,-0.541661,-0.421096,0
32900,-1.0351,-0.548417,-0.406758,0
32920,-1.03855,-0.553691,-0.390883,0
32940,-1.04516,-0.558098,-0.375634,0
32960,-1.04852,-0.563304,-0.362617,0
32980,-1.04859,-0.570338,-0.35161,0
33000,-1.04827,-0.576455,-0.341397,0
33020,-1.0462,-0.581331,-0.332689,0
33040,-1.04648,-0.585822,-0.326338,0
33060,-1.04452,-0.593366,-0.324554,0
33080,-1.04198,-0.603132,-0.32436,0
33100,-1.03844,-0.614167,-0.32847,0
33120,-1.03339,-0.626593,-0.336236,0
33140,-1.02896,-0.639986,-0.34607,0
33160,-1.02281,-0.655181,-0.358976,0
33180,-1.01808,-0.671006,-0.374878,0
33200,-1.01627,-0.687068,-0.391299,0
33250,-0.901354,-0.787733,-0.937546,0
33280,-0.875329,-0.796378,-1.0589,0
33310,-0.870635,-0.802875,-1.10017,0
33330,-0.869413,-0.805529,-1.11835,0
33350,-0.869362,-0.805618,-1.13557,0
33370,-0.86605,-0.803541,-1.15228,0
33390,-0.85882,-0.802291,-1.16695,0
33410,-0.851047,-0.801145,-1.1797,0
33430,-0.844809,-0.797786,-1.19442,0
33460,-0.823447,-0.771709,-1.23212,0
33480,-0.812724,-0.761747,-1.24301,0
33500,-0.805899,-0.747467,-1.25223,0
33520,-0.804355,-0.732609,-1.25618,0
33540,-0.806374,-0.718258,-1.25711,0
33560,-0.804399,-0.704325,-1.25792,0
33580,-0.800148,-0.69164,-1.25828,0
33600,-0.797961,-0.677095,-1.25659,0
33620,-0.800348,-0.662015,-1.25157,0
33640,-0.808094,-0.648024,-1.24488,0
33660,-0.81286,-0.633621,-1.23708,0
33680,-0.813913,-0.618701,-1.22881,0
33700,-0.812637,-0.605903,-1.21991,0
33720,-0.813972,-0.596102,-1.21083,0
33740,-0.815823,-0.588344,-1.1997,0
33760,-0.816038,-0.582074,-1.18636,0
33780,-0.816293,-0.575015,-1.17279,0
33800,-0.81644,-0.568159,-1.15973,0
33820,-0.818478,-0.562626,-1.14626,0
33840,-0.821962,-0.556957,-1.13095,0
33880,-0.878536,-0.504127,-0.940856,0
33920,-1.00728,-0.504527,-0.723726,0
33940,-1.03124,-0.505656,-0.690967,0
33960,-1.05521,-0.507468,-0.659152,0
33980,-1.08054,-0.510576,-0.627368,0
33990,-1.12707,-0.518182,-0.565583,0
34010,-1.14554,-0.523857,-0.536659,0
34030,-1.16354,-0.530743,-0.506275,0
34040,-1.17962,-0.538766,-0.477626,0
34050,-1.18943,-0.549195,-0.454025,0
34090,-1.25085,-0.756685,-0.322237,0
34110,-1.25057,-0.774432,-0.330945,0
34130,-1.24818,-0.792044,-0.34261,0
34150,-1.24505,-0.80962,-0.357403,0
34170,-1.24201,-0.827552,-0.373266,0
34190,-1.24072,-0.843167,-0.390591,0
34210,-1.23869,-0.857808,-0.41066,0
34230,-1.23684,-0.871974,-0.432488,0
34250,-1.22773,-0.88735,-0.461133,0
34270,-1.21593,-0.903051,-0.49425,0
34290,-1.20562,-0.917795,-0.52884,0
34310,-1.19504,-0.932172,-0.566375,0
34330,-1.18348,-0.946091,-0.604707,0
34350,-1.17042,-0.95782,-0.644342,0
34370,-1.15536,-0.967702,-0.685481,0
34390,-1.13904,-0.977162,-0.726527,0
34410,-1.12251,-0.985856,-0.766507,0
34430,-1.10419,-0.993677,-0.807694,0
34450,-1.08705,-0.997414,-0.849015,0
34470,-1.07148,-0.996723,-0.88743,0
34490,-1.05557,-0.994746,-0.922998,0
34510,-1.03756,-0.993231,-0.953288,0
34530,-1.02009,-0.989668,-0.980921,0
34550,-1.00472,-0.979618,-1.00976,0
34570,-0.995593,-0.962731,-1.03509,0
34590,-0.988736,-0.943494,-1.05952,0
34610,-0.978424,-0.922671,-1.08093,0
34630,-0.962825,-0.902646,-1.10192,0
34650,-0.946547,-0.882977,-1.12444,0
34670,-0.935891,-0.861601,-1.14508,0
34690,-0.935861,-0.84045,-1.16063,0
34710,-0.934349,-0.820811,-1.17481,0
34730,-0.927689,-0.801991,-1.18712,0
34770,-0.916601,-0.764024,-1.20833,0
34790,-0.914624,-0.7456,-1.21517,0
34810,-0.910901,-0.728646,-1.2211,0
34830,-0.908735,-0.713931,-1.22397,0
34850,-0.909445,-0.699514,-1.22513,0
34870,-0.912256,-0.684425,-1.2239,0
34890,-0.914883,-0.671056,-1.22097,0
34910,-0.917973,-0.6586,-1.21557,0
34930,-0.921311,-0.647309,-1.20786,0
34950,-0.924037,-0.638101,-1.19885,0
34970,-0.927843,-0.626606,-1.1892,0
34990,-0.930883,-0.613139,-1.17597,0
35010,-0.934909,-0.60334,-1.1607,0
35050,-0.936723,-0.587028,-1.13094,0
35070,-0.939744,-0.579253,-1.11342,0
35090,-0.947519,-0.572923,-1.09323,0
35110,-0.957845,-0.568048,-1.07176,0
35130,-0.968443,-0.563409,-1.04983,0
35150,-0.980267,-0.560238,-1.02663,0
35170,-0.992535,-0.556216,-1.00426,0
35180,-1.00628,-0.552159,-0.979728,0
35200,-1.02366,-0.547423,-0.953843,0
35220,-1.042,-0.541501,-0.928486,0
35240,-1.05889,-0.53729,-0.904469,0
35260,-1.07638,-0.534028,-0.879553,0
35280,-1.09475,-0.530024,-0.853383,0
35300,-1.11379,-0.525851,-0.827237,0
35320,-1.13212,-0.523988,-0.800588,0
35340,-1.15282,-0.524843,-0.771691,0
35360,-1.17487,-0.526041,-0.740883,0
35380,-1.19585,-0.528419,-0.709843,0
35400,-1.21607,-0.533114,-0.677815,0
35420,-1.23614,-0.539788,-0.64578,0
35440,-1.27112,-0.560137,-0.582726,0
35470,-1.30594,-0.586296,-0.518711,0
35490,-1.32118,-0.600501,-0.486447,0
35510,-1.33811,-0.616489,-0.452631,0
35530,-1.35597,-0.634205,-0.41885,0
35550,-1.37575,-0.653202,-0.386784,0
35570,-1.39333,-0.669771,-0.357508,0
35590,-1.40894,-0.685585,-0.330884,0
35610,-1.42263,-0.702884,-0.306803,0
35630,-1.43828,-0.720986,-0.284228,0
35650,-1.45489,-0.740438,-0.262744,0
35670,-1.46551,-0.76013,-0.24417,0
35690,-1.4768,-0.781245,-0.226817,0
35710,-1.49223,-0.804039,-0.209619,0
35730,-1.51127,-0.825718,-0.19278,0
35750,-1.53012,-0.846835,-0.176552,0
35770,-1.54704,-0.869665,-0.161978,0
35790,-1.56314,-0.892403,-0.150658,0
35810,-1.57691,-0.912691,-0.144203,0
35830,-1.59153,-0.930633,-0.138889,0
35830,-1.60727,-0.946347,-0.136202,0
35860,-1.6244,-0.991722,-0.160275,0
35880,-1.62738,-1.00893,-0.17705,0
35890,-1.62709,-1.02235,-0.201606,0
35910,-1.619,-1.03287,-0.233465,0
35930,-1.60328,-1.04431,-0.269389,0
35950,-1.58241,-1.05837,-0.309289,0
35970,-1.55444,-1.07309,-0.357205,0
35990,-1.52217,-1.08678,-0.411273,0
36010,-1.4876,-1.09943,-0.467149,0
36080,-1.01871,-1.08187,-1.06933,0
36100,-0.997657,-1.06876,-1.09882,0
36120,-0.979836,-1.05458,-1.12501,0
36140,-0.967297,-1.03922,-1.14459,0
36160,-0.954432,-1.02405,-1.16262,0
36180,-0.944351,-1.00942,-1.17981,0
36200,-0.936775,-0.993187,-1.19327,0
36220,-0.93109,-0.977276,-1.20405,0
36240,-0.921604,-0.961316,-1.21581,0
36260,-0.901555,-0.926347,-1.23837,0
36300,-0.884515,-0.888785,-1.25572,0
36320,-0.871392,-0.872692,-1.26175,0
36340,-0.860538,-0.857168,-1.26536,0
36360,-0.856423,-0.841893,-1.26585,0
36380,-0.858501,-0.827649,-1.26226,0
36400,-0.864266,-0.815013,-1.25581,0
36420,-0.871305,-0.803478,-1.24704,0
36440,-0.882023,-0.794254,-1.23405,0
36460,-0.896868,-0.785832,-1.22031,0
36480,-0.914207,-0.775126,-1.20598,0
36500,-0.929533,-0.765172,-1.19229,0
36520,-0.94229,-0.754832,-1.17779,0
36530,-0.954086,-0.745221,-1.16294,0
36560,-0.96761,-0.73545,-1.14894,0
36570,-0.984273,-0.727617,-1.13227,0
36590,-1.0026,-0.720133,-1.11374,0
36610,-1.01807,-0.712247,-1.09441,0
36630,-1.03344,-0.709582,-1.07252,0
36650,-1.05386,-0.709305,-1.04745,0
36670,-1.07935,-0.708741,-1.02025,0
36690,-1.10381,-0.707341,-0.992158,0
36710,-1.12577,-0.709957,-0.962581,0
36730,-1.15088,-0.712874,-0.928782,0
36750,-1.18215,-0.712899,-0.892683,0
36770,-1.21566,-0.714033,-0.856531,0
36790,-1.24873,-0.71707,-0.821011,0
36810,-1.2808,-0.718465,-0.786337,0
36830,-1.31126,-0.719227,-0.752995,0
36850,-1.33837,-0.720838,-0.71865,0
36870,-1.36413,-0.724585,-0.683143,0
36890,-1.38649,-0.731094,-0.648615,0
36910,-1.40946,-0.740384,-0.614035,0
36930,-1.43739,-0.748421,-0.578067,0
36950,-1.46388,-0.755293,-0.542429,0
36980,-1.51383,-0.77775,-0.469037,0
37000,-1.54296,-0.791684,-0.432655,0
37020,-1.57062,-0.803784,-0.399051,0
37040,-1.59516,-0.814585,-0.367244,0
37060,-1.62,-0.826353,-0.33631,0
37080,-1.641,-0.83804,-0.309782,0
37100,-1.65809,-0.849347,-0.286477,0
37120,-1.67344,-0.860041,-0.266034,0
37140,-1.68757,-0.87172,-0.24896,0
37160,-1.70093,-0.883078,-0.234572,0
37180,-1.71443,-0.894562,-0.221264,0
37200,-1.72564,-0.906043,-0.21392,0
37220,-1.73214,-0.916514,-0.211156,0
37240,-1.73743,-0.926994,-0.205684,0
37260,-1.74474,-0.937995,-0.200309,0
37280,-1.74898,-0.948446,-0.20042,0
37300,-1.74977,-0.956857,-0.20194,0
37320,-1.75255,-0.964,-0.203123,2001
37340,-1.75605,-0.970327,-0.203336,0
37360,-1.75922,-0.975695,-0.203087,0
37380,-1.75973,-0.979699,-0.204592,0
37400,-1.75609,-0.981306,-0.209155,0
37420,-1.75023,-0.980373,-0.214423,0
37440,-1.74773,-0.979217,-0.217023,0
37460,-1.74533,-0.978038,-0.221066,0
37480,-1.74228,-0.975968,-0.224922,0
37500,-1.73948,-0.974354,-0.227256,0
37520,-1.73693,-0.973269,-0.229079,0
37540,-1.73017,-0.971253,-0.232596,0
37560,-1.72374,-0.968422,-0.23222,0
37580,-1.72332,-0.965734,-0.227114,0
37590,-1.72281,-0.960137,-0.225544,0
37610,-1.72,-0.951575,-0.229235,0
37630,-1.70938,-0.942199,-0.238632,0
37650,-1.68881,-0.930498,-0.250749,0
37670,-1.66386,-0.915636,-0.260087,0
37690,-1.63741,-0.899796,-0.269341,0
37710,-1.60468,-0.883693,-0.286738,0
37730,-1.56646,-0.864564,-0.308255,0
37750,-1.5291,-0.844296,-0.327578,0
37770,-1.48766,-0.826574,-0.350269,0
37790,-1.43418,-0.808085,-0.377918,0
37810,-1.37798,-0.785082,-0.402029,0
37830,-1.3297,-0.765344,-0.422642,0
37850,-1.28928,-0.744235,-0.441868,0
37870,-1.24605,-0.723163,-0.464385,0
37890,-1.20131,-0.698481,-0.485089,0
37910,-1.16432,-0.671174,-0.497115,0
37930,-1.13419,-0.645349,-0.506719,0
37950,-1.10518,-0.619574,-0.521991,0
37970,-1.0814,-0.591827,-0.537557,0
37990,-1.06367,-0.564584,-0.549962,0
38010,-1.05174,-0.539322,-0.560793,0
38030,-1.03922,-0.515506,-0.572647,0
38050,-1.02398,-0.495615,-0.584716,0
38060,-1.00845,-0.479221,-0.59784,0
38080,-0.995313,-0.465665,-0.611263,0
38100,-0.986349,-0.454496,-0.623195,0
38120,-0.97824,-0.444755,-0.632381,0
38140,-0.965819,-0.438425,-0.638348,0
38160,-0.953822,-0.435584,-0.640912,0
38180,-0.944937,-0.435694,-0.64256,0
38200,-0.941018,-0.436026,-0.645384,0
38220,-0.941903,-0.434649,-0.646591,0
38240,-0.945684,-0.4328,-0.643672,0
38260,-0.948088,-0.431336,-0.638976,0
38280,-0.947496,-0.430524,-0.633726,2000
38290,-0.946071,-0.430334,-0.629108,0
38310,-0.954943,-0.426459,-0.611147,0
38330,-0.954934,-0.423841,-0.606995,0
38340,-0.947751,-0.418923,-0.604524,0
38350,-0.946557,-0.415452,-0.603773,0
38370,-0.950905,-0.410756,-0.603127,0
38390,-0.954129,-0.406879,-0.603239,0
38410,-0.952366,-0.404613,-0.603042,0
38420,-0.947186,-0.402871,-0.601347,0
38450,-0.951772,-0.402114,-0.591671,0
38470,-0.952658,-0.40405,-0.586605,0
38490,-0.953477,-0.407494,-0.577982,0
38510,-0.955451,-0.412357,-0.566819,0
38520,-0.983863,-0.466504,-0.510444,0
38550,-0.993303,-0.49542,-0.490157,0
38570,-0.994062,-0.529529,-0.479088,0
38590,-0.992613,-0.546313,-0.475997,0
38610,-0.990963,-0.564525,-0.473956,0
38630,-0.989499,-0.583038,-0.472269,0
38650,-0.989591,-0.601862,-0.471563,0
38670,-0.991247,-0.62139,-0.473333,0
38690,-0.991852,-0.639752,-0.478588,0
38710,-0.989887,-0.657643,-0.486722,0
38730,-0.983876,-0.676427,-0.498669,0
38750,-0.926965,-0.771454,-0.681017,0
38750,-0.895848,-0.786912,-0.755865,0
38770,-0.829158,-0.812586,-0.950508,0
38790,-0.819357,-0.814729,-0.986531,0
38810,-0.813629,-0.815723,-1.02097,0
38830,-0.810762,-0.814395,-1.05423,0
38850,-0.811124,-0.808767,-1.08282,0
38870,-0.807404,-0.800926,-1.10852,0
38890,-0.80162,-0.793972,-1.12993,0
38910,-0.799013,-0.788748,-1.14957,0
38930,-0.797557,-0.783372,-1.17072,0
38950,-0.793217,-0.773889,-1.19116,0
38970,-0.788813,-0.765434,-1.20544,0
38990,-0.783144,-0.759471,-1.21701,0
39010,-0.772597,-0.752728,-1.22971,0
39030,-0.762806,-0.743951,-1.24287,0
39050,-0.760784,-0.731942,-1.25124,0
39070,-0.762139,-0.719597,-1.25378,0
39090,-0.762205,-0.709842,-1.25445,0
39110,-0.758261,-0.700101,-1.25582,0
39130,-0.756022,-0.690077,-1.25633,0
39150,-0.758996,-0.680117,-1.25459,0
39170,-0.763317,-0.671133,-1.25193,0
39190,-0.764981,-0.661126,-1.24971,0
39200,-0.770955,-0.650068,-1.24258,0
39220,-0.786602,-0.637348,-1.2303,0
39240,-0.806021,-0.623919,-1.21802,0
39250,-0.817777,-0.609574,-1.21165,0
39270,-0.822556,-0.593081,-1.20629,0
39290,-0.825659,-0.576477,-1.19864,0
39310,-0.826194,-0.559878,-1.19135,0
39330,-0.829753,-0.545618,-1.1836,0
39350,-0.833138,-0.533554,-1.17347,0
39360,-0.836733,-0.522945,-1.16148,0
39380,-0.836906,-0.511874,-1.15043,0
39400,-0.838156,-0.501977,-1.13805,0
39420,-0.842641,-0.494636,-1.12298,0
39450,-0.865945,-0.483187,-1.08543,0
39450,-0.892406,-0.477372,-1.04547,0
39460,-0.923858,-0.462976,-0.987702,0
39480,-0.933552,-0.461328,-0.966493,0
39500,-1.05229,-0.441842,-0.773385,0
39520,-1.25827,-0.562068,-0.385438,0
39540,-1.2666,-0.577307,-0.362187,0
39560,-1.27852,-0.610687,-0.318188,0
39570,-1.28202,-0.627805,-0.29993,0
39610,-1.29598,-0.755281,-0.234776,0
39620,-1.2961,-0.771106,-0.237319,0
39640,-1.29366,-0.799543,-0.249588,0
39650,-1.29232,-0.817301,-0.257448,0
39670,-1.29181,-0.835793,-0.267192,0
39670,-1.29486,-0.853906,-0.278678,0
39690,-1.2986,-0.872907,-0.293219,0
39710,-1.30206,-0.892294,-0.309668,0
39730,-1.30288,-0.913088,-0.328589,0
39750,-1.29897,-0.93579,-0.355589,0
39770,-1.29312,-0.957352,-0.390964,0
39790,-1.2829,-0.974102,-0.434932,0
39810,-1.2669,-0.987486,-0.483714,0
39830,-1.24305,-1.00065,-0.537687,0
39860,-1.18963,-1.02475,-0.652201,0
39880,-1.16231,-1.03444,-0.711601,0
39900,-1.13243,-1.03909,-0.771033,0
39920,-1.10176,-1.0407,-0.828137,0
39940,-1.06858,-1.04046,-0.882595,0
39960,-1.03792,-1.04017,-0.935841,0
39980,-1.00858,-1.03975,-0.985228,0
40000,-0.981782,-1.03472,-1.03034,0
40020,-0.950868,-1.02509,-1.0739,0
40040,-0.91989,-1.01086,-1.11165,0
40060,-0.891472,-0.99505,-1.14875,0
40080,-0.87058,-0.976235,-1.18542,0
40100,-0.857395,-0.950134,-1.2146,0
40120,-0.84254,-0.921497,-1.23745,0
40140,-0.828294,-0.894082,-1.25376,0
40160,-0.823382,-0.867482,-1.26398,0
40160,-0.820464,-0.840794,-1.27508,0
40180,-0.818106,-0.816571,-1.28195,0
40200,-0.814753,-0.796337,-1.28631,0
40220,-0.810415,-0.778233,-1.28904,0
40240,-0.804749,-0.76103,-1.29365,0
40280,-0.801243,-0.721897,-1.28942,0
40300,-0.798907,-0.702744,-1.28669,0
40340,-0.797154,-0.668618,-1.27553,0
40370,-0.811709,-0.637538,-1.25332,0
40390,-0.824057,-0.624689,-1.2387,0
40410,-0.837269,-0.616039,-1.22385,0
40430,-0.846698,-0.605093,-1.20933,0
40450,-0.855453,-0.594964,-1.19158,0
40470,-0.867187,-0.590768,-1.17263,0
40490,-0.881661,-0.588315,-1.15146,0
40520,-0.907422,-0.582614,-1.10871,0
40540,-0.916641,-0.579977,-1.0877,0
40560,-0.926368,-0.578063,-1.06459,0
40580,-0.940545,-0.580048,-1.039,0
40600,-0.959348,-0.584991,-1.01098,0
40620,-0.979056,-0.587458,-0.985089,0
40640,-0.996232,-0.586519,-0.960061,0
40660,-1.01453,-0.587981,-0.933108,0
40680,-1.03631,-0.590105,-0.904064,0
40700,-1.05937,-0.589972,-0.874,0
40720,-1.08141,-0.590474,-0.84507,0
40740,-1.11026,-0.592071,-0.811133,0
40760,-1.14612,-0.593414,-0.774066,0
40780,-1.17589,-0.59497,-0.739372,0
40800,-1.19972,-0.599664,-0.704375,0
40820,-1.22465,-0.608189,-0.667057,0
40840,-1.25252,-0.615902,-0.63137,0
40860,-1.27817,-0.624159,-0.598268,0
40880,-1.30112,-0.63487,-0.564082,0
40920,-1.38929,-0.688529,-0.434604,0
40970,-1.44851,-0.736113,-0.35101,0
40990,-1.46593,-0.75311,-0.32488,0
41010,-1.48536,-0.770355,-0.299723,0
41030,-1.50524,-0.786888,-0.276042,0
41050,-1.5269,-0.803622,-0.252617,0
41070,-1.54861,-0.821405,-0.230256,0
41090,-1.56925,-0.83972,-0.210617,0
41110,-1.58603,-0.856434,-0.195854,0
41130,-1.59757,-0.872639,-0.18495,0
41150,-1.60907,-0.890539,-0.176194,0
41170,-1.62144,-0.910143,-0.17146,0
41190,-1.63021,-0.928846,-0.172429,0
41210,-1.63475,-0.949086,-0.177795,0
41230,-1.63537,-0.970715,-0.189115,0
41250,-1.6325,-0.990382,-0.20562,0
41270,-1.62544,-1.00967,-0.227347,0
41290,-1.61498,-1.03079,-0.254182,0
41310,-1.60347,-1.05356,-0.284862,0
41330,-1.58964,-1.07569,-0.320873,0
41350,-1.57349,-1.09566,-0.361965,0
41370,-1.54666,-1.11458,-0.412596,0
41390,-1.50933,-1.13149,-0.470476,0
41430,-1.41382,-1.15904,-0.604692,0
41450,-1.36188,-1.16847,-0.675173,0
41480,-1.19901,-1.16607,-0.887807,0
41500,-1.15051,-1.15813,-0.950071,0
41520,-1.1103,-1.14966,-1.00537,0
41530,-1.07147,-1.1377,-1.05821,0
41560,-0.977642,-1.09308,-1.18186,0
41580,-0.959749,-1.07368,-1.2123,0
41590,-0.950105,-1.054,-1.23335,0
41610,-0.936976,-1.03407,-1.25669,0
41620,-0.93022,-1.01346,-1.27576,0
41640,-0.931428,-0.990873,-1.28833,0
41660,-0.925669,-0.944927,-1.31046,0
41680,-0.916675,-0.90556,-1.3207,0
41690,-0.919432,-0.886415,-1.32605,0
41710,-0.930194,-0.8642,-1.3272,0
41730,-0.942523,-0.8432,-1.32296,0
41750,-0.951411,-0.825435,-1.31415,0
41770,-0.959795,-0.810758,-1.30495,0
41790,-0.9734,-0.795632,-1.29912,0
41810,-0.994036,-0.775579,-1.29048,0
41830,-1.01448,-0.757659,-1.27669,0
41850,-1.02437,-0.743321,-1.26476,0
41870,-1.02895,-0.728455,-1.25576,0
41890,-1.03808,-0.715633,-1.24369,0
41910,-1.05493,-0.70348,-1.22728,0
41930,-1.07024,-0.693923,-1.21086,0
41950,-1.0816,-0.687138,-1.19328,0
41970,-1.09294,-0.681982,-1.17588,0
41990,-1.10536,-0.676442,-1.15867,0
42010,-1.11888,-0.670581,-1.14169,0
42030,-1.12965,-0.665456,-1.12294,0
42050,-1.14011,-0.66409,-1.10207,0
42070,-1.15212,-0.664389,-1.08015,0
42090,-1.1687,-0.664636,-1.05665,0
42110,-1.18654,-0.663683,-1.03234,0
42130,-1.20488,-0.662853,-1.00595,0
42150,-1.22575,-0.664249,-0.976765,0
42170,-1.24862,-0.666855,-0.946464,0
42190,-1.27205,-0.670055,-0.915609,0
42210,-1.29592,-0.674774,-0.883951,0
42230,-1.31999,-0.678566,-0.85016,0
42250,-1.34596,-0.684144,-0.813289,0
42270,-1.37688,-0.691091,-0.774305,0
42290,-1.41271,-0.698296,-0.733159,0
42310,-1.45054,-0.704085,-0.692964,0
42330,-1.48601,-0.711047,-0.653602,0
42350,-1.52177,-0.719397,-0.612758,0
42370,-1.55609,-0.729338,-0.573402,0
42390,-1.58239,-0.740136,-0.538369,0
42410,-1.60705,-0.751766,-0.500239,0
42430,-1.63604,-0.764765,-0.461139,0
42450,-1.66191,-0.778329,-0.426111,0
42470,-1.68704,-0.791406,-0.391551,0
42490,-1.71278,-0.803622,-0.358508,0
42520,-1.7594,-0.822856,-0.30388,0
42540,-1.77732,-0.832621,-0.27872,0
42560,-1.79017,-0.842775,-0.255858,0
42580,-1.80579,-0.85493,-0.233251,0
42600,-1.82622,-0.868611,-0.212212,0
42620,-1.84614,-0.880435,-0.193719,0
42640,-1.86073,-0.891854,-0.177249,0
42660,-1.87125,-0.905132,-0.163181,0
42680,-1.88009,-0.919575,-0.150894,0
42700,-1.88901,-0.93467,-0.143119,2001
42720,-1.89665,-0.947987,-0.139066,0
42740,-1.90516,-0.960763,-0.137443,0
42760,-1.90752,-0.970907,-0.142004,0
42780,-1.90439,-0.978341,-0.148873,0
42800,-1.89965,-0.986937,-0.15556,0
42820,-1.89645,-0.992155,-0.165236,0
42840,-1.89331,-0.993704,-0.177251,0
42860,-1.88444,-0.992356,-0.190041,0
42880,-1.8708,-0.990061,-0.201843,0
42900,-1.85833,-0.98832,-0.209881,0
42920,-1.84592,-0.985661,-0.218352,0
42940,-1.81176,-0.972511,-0.24075,0
42960,-1.7919,-0.961453,-0.253332,0
42980,-1.76459,-0.94887,-0.26931,0
43000,-1.73161,-0.935545,-0.28571,0
43020,-1.69918,-0.920502,-0.297759,0
43040,-1.66667,-0.903976,-0.309796,0
43060,-1.62918,-0.888065,-0.326185,0
43070,-1.5828,-0.873116,-0.348014,0
43090,-1.53998,-0.856749,-0.365586,0
43100,-1.50234,-0.835759,-0.381729,0
43120,-1.45865,-0.811419,-0.401179,0
43140,-1.40685,-0.785394,-0.423332,0
43160,-1.35822,-0.755899,-0.441919,0
43180,-1.32475,-0.724144,-0.455032,0
43200,-1.29081,-0.692287,-0.470961,0
43220,-1.25733,-0.660287,-0.486761,0
43240,-1.23171,-0.628412,-0.495916,0
43290,-1.15386,-0.537258,-0.533179,0
43310,-1.14279,-0.522123,-0.538472,0
43330,-1.13234,-0.510848,-0.54349,0
43350,-1.12257,-0.503907,-0.547904,0
43370,-1.11388,-0.497489,-0.54981,0
43390,-1.10872,-0.490893,-0.550449,0
43410,-1.10469,-0.485262,-0.552056,0
43430,-1.10137,-0.480623,-0.553845,0
43450,-1.09867,-0.476086,-0.555823,0
43470,-1.09501,-0.470442,-0.557796,0
43480,-1.09267,-0.464469,-0.558465,0
43500,-1.08759,-0.457891,-0.561018,0
43520,-1.08057,-0.451859,-0.564342,0
43540,-1.07597,-0.446523,-0.56533,2000
43560,-1.07401,-0.440617,-0.563968,0
43580,-1.06877,-0.434537,-0.563535,0
43600,-1.06055,-0.429242,-0.56289,0
43620,-1.05579,-0.425775,-0.560647,0
43640,-1.05742,-0.424655,-0.557129,0
43660,-1.06164,-0.423737,-0.553169,0
43680,-1.06203,-0.423099,-0.547735,0
43700,-1.05835,-0.425172,-0.540576,0
43720,-1.05655,-0.429429,-0.533384,0
43740,-1.05639,-0.433865,-0.528043,0
43760,-1.05544,-0.438209,-0.523748,0
43770,-1.05574,-0.442767,-0.516898,0
43780,-1.05663,-0.447576,-0.508947,0
43800,-1.05677,-0.453349,-0.500231,0
43820,-1.05748,-0.460049,-0.491205,0
43840,-1.05877,-0.466735,-0.482826,0
43860,-1.05969,-0.473142,-0.474423,0
43880,-1.06285,-0.479249,-0.463773,0
43900,-1.06796,-0.484169,-0.452901,0
43920,-1.07294,-0.49663,-0.435452,0
43940,-1.07272,-0.50364,-0.43078,0
43950,-1.07652,-0.509057,-0.425217,0
43970,-1.08061,-0.51352,-0.420765,0
43990,-1.07963,-0.520824,-0.419296,0
44010,-1.07616,-0.530834,-0.421222,0
44020,-1.07346,-0.542009,-0.425701,0
44040,-1.07298,-0.553488,-0.433096,0
44050,-1.07324,-0.5655,-0.444052,0
44070,-1.07472,-0.577369,-0.458777,0
44090,-1.0771,-0.586931,-0.477721,0
44110,-1.07862,-0.594217,-0.500787,0
44130,-1.07572,-0.600754,-0.528891,0
44140,-1.0608,-0.611899,-0.598431,0
44160,-1.05551,-0.61648,-0.636916,0
44170,-1.04869,-0.621584,-0.677692,0
44190,-1.03957,-0.62777,-0.718959,0
44210,-1.02987,-0.634331,-0.760343,0
44230,-1.0207,-0.641843,-0.801176,0
44250,-1.01242,-0.648759,-0.840881,0
44270,-1.0043,-0.654446,-0.879713,0
44290,-0.996841,-0.660447,-0.917304,0
44310,-0.990059,-0.667993,-0.953253,0
44330,-0.986145,-0.676121,-0.985347,0
44350,-0.983454,-0.683945,-1.01504,0
44360,-0.981515,-0.688591,-1.04258,0
44380,-0.978926,-0.690839,-1.06833,0
44400,-0.97481,-0.692305,-1.0928,0
44420,-0.971099,-0.69405,-1.1152,0
44440,-0.96397,-0.694266,-1.13666,0
44490,-0.93406,-0.675735,-1.20354,0
44510,-0.929487,-0.671147,-1.21492,0
44530,-0.926492,-0.665439,-1.2238,0
44550,-0.92374,-0.658773,-1.22933,0
44570,-0.920957,-0.652945,-1.23221,0
44590,-0.919679,-0.647255,-1.23463,0
44610,-0.917498,-0.639927,-1.23831,0
44630,-0.912172,-0.631019,-1.24097,0
44650,-0.90526,-0.620343,-1.24189,0
44670,-0.898206,-0.611326,-1.24308,0
44690,-0.890396,-0.60129,-1.24606,0
44710,-0.882555,-0.589499,-1.2458,0
44730,-0.876262,-0.579572,-1.24258,0
44750,-0.86696,-0.569849,-1.23748,0
44770,-0.85652,-0.563509,-1.23052,0
44790,-0.849059,-0.56112,-1.22097,0
44810,-0.843985,-0.560647,-1.21012,0
44830,-0.840983,-0.560699,-1.19895,0
44850,-0.838238,-0.559632,-1.18737,0
44870,-0.836171,-0.557936,-1.17501,0
44910,-0.845486,-0.506466,-1.05768,0
44930,-0.853484,-0.497331,-1.03724,0
44960,-0.934627,-0.484214,-0.817514,0
44980,-0.947115,-0.486656,-0.792702,0
45000,-0.963434,-0.489107,-0.765618,0
45010,-0.979934,-0.491975,-0.735818,0
45030,-0.991763,-0.496569,-0.706368,0
45040,-1.02316,-0.508614,-0.643214,0
45080,-1.05641,-0.520186,-0.580135,0
45100,-1.07259,-0.526439,-0.546319,0
45120,-1.08895,-0.533627,-0.51223,0
45140,-1.10198,-0.542334,-0.480985,0
45200,-1.13095,-0.578363,-0.395267,0
45220,-1.14059,-0.591654,-0.369033,0
45240,-1.1465,-0.607192,-0.344893,0
45260,-1.14993,-0.626157,-0.325801,0
45280,-1.15394,-0.643911,-0.310702,0
45300,-1.16202,-0.661574,-0.295426,0
45320,-1.16951,-0.678572,-0.28469,0
45340,-1.17086,-0.695537,-0.279263,0
45360,-1.17251,-0.713117,-0.273822,0
45380,-1.17865,-0.730081,-0.268709,0
45400,-1.18662,-0.748101,-0.266193,0
45420,-1.18957,-0.767388,-0.267816,0
45440,-1.19156,-0.788147,-0.271752,0
45470,-1.19062,-0.870495,-0.327951,0
45510,-1.17903,-0.912473,-0.381912,0
45530,-1.17531,-0.930552,-0.41549,0
45550,-1.16926,-0.947308,-0.452813,0
45570,-1.15906,-0.963997,-0.493403,0
45590,-1.14645,-0.980345,-0.538192,0
45610,-1.1325,-0.994042,-0.587992,0
45630,-1.11889,-1.00439,-0.639864,0
45650,-1.10155,-1.01245,-0.694354,0
45670,-1.08277,-1.02037,-0.746759,0
45690,-1.06832,-1.02866,-0.793807,0
45710,-1.05349,-1.0353,-0.841683,0
45730,-1.03311,-1.0366,-0.893355,0
45750,-1.01188,-1.03503,-0.941101,0
45770,-0.98737,-1.03207,-0.987046,0
45790,-0.961229,-1.02805,-1.03047,0
45810,-0.935225,-1.02437,-1.07352,0
45830,-0.907331,-1.01909,-1.11844,0
45850,-0.879925,-1.00974,-1.15988,0
45870,-0.855007,-0.998768,-1.19494,0
45890,-0.83323,-0.986241,-1.22515,0
45910,-0.816395,-0.972314,-1.24927,0
45930,-0.805858,-0.958019,-1.26605,0
45950,-0.796394,-0.943384,-1.27905,0
45970,-0.786245,-0.926056,-1.29059,0
45990,-0.779886,-0.904811,-1.299,0
46010,-0.782415,-0.882355,-1.29973,0
46030,-0.786641,-0.861206,-1.29728,0
46050,-0.785797,-0.838412,-1.29463,0
46070,-0.783123,-0.817232,-1.29103,0
46090,-0.785118,-0.798434,-1.28717,0
46110,-0.790659,-0.77659,-1.28147,0
46130,-0.798802,-0.75456,-1.27009,0
46150,-0.805629,-0.73649,-1.25705,0
46170,-0.809848,-0.718532,-1.24511,0
46190,-0.817591,-0.700286,-1.22993,0
46210,-0.831191,-0.684928,-1.2119,0
46210,-0.844881,-0.668986,-1.19286,0
46270,-0.921067,-0.607359,-1.05419,0
46290,-0.93462,-0.603181,-1.03394,0
46310,-0.945939,-0.600781,-1.01427,0
46330,-0.955765,-0.59815,-0.993996,0
46350,-0.964882,-0.599592,-0.974314,0
46370,-0.973608,-0.601568,-0.954339,0
46390,-0.987803,-0.602921,-0.929913,0
46410,-1.00542,-0.605825,-0.90306,0
46430,-1.02125,-0.607965,-0.874977,0
46450,-1.03795,-0.610904,-0.845285,0
46470,-1.05901,-0.614254,-0.813847,0
46490,-1.08442,-0.61751,-0.779595,0
46510,-1.11423,-0.621407,-0.741362,0
46530,-1.14548,-0.627308,-0.702732,0
46550,-1.17545,-0.635671,-0.662746,0
46570,-1.20834,-0.645734,-0.620368,0
46590,-1.24067,-0.655266,-0.579066,0
46610,-1.26807,-0.666039,-0.539573,0
46630,-1.29356,-0.680046,-0.501643,0
46650,-1.31706,-0.695313,-0.464999,0
46690,-1.35907,-0.727232,-0.39389,0
46710,-1.38058,-0.745562,-0.360824,0
46730,-1.40566,-0.762001,-0.328027,0
46750,-1.43223,-0.777106,-0.296481,0
46840,-1.55434,-0.858764,-0.166132,0
46860,-1.58425,-0.869392,-0.144276,0
46880,-1.61134,-0.880978,-0.123101,0
46890,-1.63678,-0.896003,-0.102951,0
46920,-1.66304,-0.912093,-0.0843256,0
46930,-1.6896,-0.927827,-0.0699162,0
46950,-1.71628,-0.945433,-0.0611225,0
46970,-1.73771,-0.961938,-0.0604259,0
46990,-1.75096,-0.978781,-0.0670784,0
47000,-1.75573,-0.996422,-0.0811601,0
47020,-1.75392,-1.01448,-0.105876,0
47040,-1.74451,-1.03159,-0.142663,0
47060,-1.72608,-1.04915,-0.188364,0
47080,-1.69844,-1.06916,-0.243129,0
47100,-1.6647,-1.08952,-0.304844,0
47120,-1.62465,-1.10768,-0.373165,0
47140,-1.57628,-1.12071,-0.449359,0
47160,-1.5225,-1.1308,-0.528126,0
47180,-1.46626,-1.13971,-0.607301,0
47200,-1.41027,-1.14748,-0.685241,0
47220,-1.35458,-1.15068,-0.760352,0
47240,-1.30261,-1.14945,-0.831543,0
47260,-1.2547,-1.14453,-0.897024,0
47280,-1.21113,-1.13707,-0.955703,0
47300,-1.16685,-1.12842,-1.01209,0
47320,-1.13046,-1.1175,-1.05862,0
47340,-1.09989,-1.10253,-1.09952,0
47360,-1.07231,-1.08549,-1.13626,0
47380,-1.05237,-1.06831,-1.16316,0
47400,-1.03782,-1.05138,-1.18547,0
47420,-1.02503,-1.03418,-1.20665,0
47440,-1.01601,-1.01517,-1.22223,0
47460,-1.00713,-0.995065,-1.23561,0
47480,-0.995804,-0.975958,-1.24679,0
47500,-0.989059,-0.957099,-1.25443,0
47520,-0.990618,-0.939034,-1.25923,0
47540,-0.993963,-0.920614,-1.26229,0
47560,-0.997276,-0.901976,-1.2621,0
47580,-1.00791,-0.863965,-1.2552,0
47600,-1.02425,-0.843771,-1.24707,0
47620,-1.04189,-0.824898,-1.23596,0
47640,-1.05839,-0.808031,-1.22346,0
47660,-1.07227,-0.792325,-1.21319,0
47680,-1.0858,-0.77803,-1.20302,0
47700,-1.1019,-0.766378,-1.19145,0
47720,-1.1176,-0.755642,-1.17924,0
47740,-1.13087,-0.744964,-1.16765,0
47760,-1.13931,-0.735044,-1.15718,0
47780,-1.14553,-0.726723,-1.14659,0
47800,-1.15416,-0.719446,-1.13577,0
47820,-1.16579,-0.712855,-1.12366,0
47840,-1.17682,-0.705852,-1.11214,0
47860,-1.18514,-0.698596,-1.0997,0
47880,-1.19147,-0.693444,-1.08574,0
47900,-1.19868,-0.689297,-1.07174,0
47920,-1.20898,-0.684378,-1.05646,0
47940,-1.22254,-0.680467,-1.03988,0
47960,-1.2361,-0.677066,-1.02057,0
47980,-1.251,-0.674857,-0.999646,0
48000,-1.26352,-0.672846,-0.978991,0
48020,-1.27928,-0.672184,-0.955343,0
48040,-1.29962,-0.672352,-0.930201,0
48060,-1.32352,-0.672864,-0.903017,0
48080,-1.34951,-0.672872,-0.87389,0
48100,-1.37942,-0.673436,-0.843542,0
48120,-1.41001,-0.672857,-0.81523,0
48140,-1.43865,-0.673041,-0.789025,0
48160,-1.46457,-0.6729,-0.761684,0
48180,-1.4885,-0.674237,-0.733454,0
48200,-1.51227,-0.6776,-0.704065,0
48220,-1.53695,-0.683896,-0.675505,0
48240,-1.56128,-0.69169,-0.647088,0
48260,-1.58526,-0.697676,-0.617697,0
48280,-1.61019,-0.703553,-0.588419,0
48300,-1.63383,-0.711377,-0.559692,0
48320,-1.65711,-0.71941,-0.529893,0
48340,-1.68383,-0.729629,-0.499613,0
48360,-1.71023,-0.737823,-0.471948,0
48380,-1.73483,-0.743178,-0.445461,0
48400,-1.76,-0.750135,-0.418376,0
48430,-1.80295,-0.767044,-0.370025,0
48450,-1.82064,-0.77402,-0.349942,0
48470,-1.8376,-0.780705,-0.3307,0
48490,-1.85492,-0.790381,-0.311276,0
48510,-1.87305,-0.802021,-0.292472,0
48530,-1.88964,-0.812566,-0.27644,0
48550,-1.90406,-0.822709,-0.262392,0
48570,-1.91645,-0.833831,-0.250162,0
48590,-1.93436,-0.855213,-0.228544,0
48610,-1.94312,-0.867113,-0.220159,2001
48630,-1.9513,-0.878087,-0.214464,0
48650,-1.95623,-0.886113,-0.212091,0
48660,-1.95684,-0.89197,-0.21288,0
48680,-1.95734,-0.898436,-0.212361,0
48690,-1.95924,-0.90579,-0.211863,0
48710,-1.96224,-0.91091,-0.212392,0
48730,-1.96329,-0.913398,-0.215627,0
48750,-1.95973,-0.91355,-0.220035,0
48770,-1.95606,-0.912631,-0.223176,0
48790,-1.95205,-0.912374,-0.22437,0
48810,-1.95029,-0.914549,-0.225128,0
48810,-1.94482,-0.913926,-0.231191,0
48830,-1.93411,-0.908245,-0.241348,0
48850,-1.9214,-0.901387,-0.250699,0
48870,-1.90589,-0.894999,-0.257693,0
48890,-1.88121,-0.886674,-0.267562,0
48910,-1.85045,-0.874199,-0.283354,0
48930,-1.81411,-0.857844,-0.303265,0
48950,-1.77047,-0.840194,-0.325431,0
48970,-1.72514,-0.820475,-0.34531,0
48990,-1.68208,-0.799833,-0.363092,0
49010,-1.6346,-0.781502,-0.385027,0
49030,-1.57705,-0.76311,-0.412751,0
49050,-1.51899,-0.739409,-0.436524,0
49070,-1.46604,-0.714195,-0.455532,0
49090,-1.41901,-0.687958,-0.473365,0
49110,-1.36923,-0.661425,-0.490859,0
49130,-1.31612,-0.634787,-0.505819,0
49150,-1.27123,-0.607574,-0.51803,0
49170,-1.24127,-0.585431,-0.527667,0
49190,-1.21418,-0.563904,-0.536619,0
49210,-1.19304,-0.544607,-0.541894,0
49230,-1.17507,-0.526955,-0.545778,0
49250,-1.15892,-0.512084,-0.550817,0
49270,-1.14509,-0.501476,-0.559452,0
49290,-1.13194,-0.490928,-0.569109,0
49310,-1.12068,-0.478492,-0.577408,0
49330,-1.11093,-0.465769,-0.585527,0
49360,-1.08584,-0.443334,-0.603675,0
49380,-1.07637,-0.433902,-0.614494,0
49400,-1.06886,-0.424079,-0.622323,0
49420,-1.06162,-0.415651,-0.625961,0
49440,-1.05469,-0.409364,-0.627922,0
49460,-1.04765,-0.401537,-0.629036,0
49480,-1.04696,-0.39846,-0.626942,0
49500,-1.04752,-0.396225,-0.621045,0
49510,-1.0478,-0.394673,-0.614345,0
49530,-1.04597,-0.39641,-0.610671,0
49550,-1.04272,-0.400133,-0.609217,0
49560,-1.04098,-0.402856,-0.607047,0
49580,-1.04342,-0.4039,-0.600951,0
49600,-1.04374,-0.402534,-0.593076,0
49620,-1.04225,-0.402497,-0.585968,0
49640,-1.04319,-0.406173,-0.579819,0
49660,-1.04662,-0.410629,-0.57322,0
49680,-1.04978,-0.414617,-0.566128,0
49700,-1.05125,-0.418079,-0.558612,0
49720,-1.05075,-0.425064,-0.543553,0
49740,-1.05154,-0.429057,-0.534972,0
49750,-1.0709,-0.460647,-0.466371,0
49770,-1.07265,-0.466064,-0.456237,0
49790,-1.07475,-0.472756,-0.445127,0
49810,-1.07878,-0.481375,-0.434872,0
49830,-1.08068,-0.489301,-0.428671,0
49850,-1.08209,-0.497108,-0.422961,0
49870,-1.08763,-0.504977,-0.416207,0
49880,-1.09273,-0.512511,-0.409205,0
49900,-1.0931,-0.520995,-0.404923,0
49920,-1.09347,-0.529086,-0.40115,0
49940,-1.09563,-0.53714,-0.397476,0
49960,-1.10124,-0.550772,-0.392337,0
49980,-1.10816,-0.567307,-0.389268,0
50000,-1.11637,-0.58157,-0.387548,0
50020,-1.12745,-0.594071,-0.387697,0
50040,-1.13952,-0.603944,-0.392474,0
50060,-1.15218,-0.609124,-0.401657,0
50080,-1.1633,-0.6093,-0.411827,0
50100,-1.16305,-0.600432,-0.428143,0
50120,-1.14837,-0.586404,-0.448483,0
50140,-1.13217,-0.567939,-0.46705,0
50160,-1.121,-0.549375,-0.487642,0
50180,-1.11487,-0.530499,-0.509816,0
50200,-1.11213,-0.510816,-0.530955,0
50220,-1.10109,-0.490052,-0.548625,0
50240,-1.08401,-0.468272,-0.562633,0
50260,-1.06949,-0.449685,-0.573126,0
50260,-1.06212,-0.434485,-0.583704,0
50280,-1.04352,-0.410286,-0.596123,0
50290,-1.03292,-0.401542,-0.597508,0
50310,-1.02497,-0.393715,-0.599471,0
50310,-1.01947,-0.387254,-0.601117,0
50330,-1.01602,-0.384558,-0.599617,0
50350,-1.01097,-0.384862,-0.59732,0
50350,-1.0017,-0.387533,-0.594953,0
50370,-0.991848,-0.39046,-0.592754,2000
50390,-0.987921,-0.392142,-0.589426,0
50420,-0.990415,-0.399196,-0.579413,0
50420,-0.988032,-0.403226,-0.574962,0
50440,-0.985642,-0.405975,-0.572178,0
50440,-1.00052,-0.409971,-0.568555,0
50470,-1.01859,-0.407229,-0.557094,0
50470,-1.02151,-0.40445,-0.554403,0
50490,-1.02575,-0.40342,-0.552565,0
50510,-1.03053,-0.403564,-0.549073,0
50520,-1.03114,-0.403495,-0.543103,0
50530,-1.02985,-0.4029,-0.536701,0
50550,-1.0333,-0.401944,-0.528898,0
50560,-1.04156,-0.402198,-0.520238,0
50580,-1.05,-0.402819,-0.50976,0
50600,-1.05596,-0.403791,-0.496763,0
50620,-1.0675,-0.409908,-0.467343,0
50640,-1.07788,-0.412349,-0.451097,0
50660,-1.10195,-0.422123,-0.403365,0
50680,-1.10226,-0.427759,-0.388419,0
50700,-1.10167,-0.434226,-0.375133,0
50720,-1.10304,-0.444914,-0.362267,0
50740,-1.10494,-0.458284,-0.353545,0
50760,-1.10746,-0.470673,-0.347749,0
50780,-1.10754,-0.481737,-0.342876,0
50800,-1.10626,-0.495481,-0.339435,0
50820,-1.10465,-0.510216,-0.339486,0
50840,-1.10122,-0.526582,-0.343472,0
50870,-1.09841,-0.558203,-0.359028,0
50890,-1.09559,-0.574365,-0.372,0
50910,-1.09071,-0.592674,-0.3877,0
50920,-1.08571,-0.613359,-0.406784,0
50960,-1.07042,-0.66619,-0.489542,0
50970,-1.02617,-0.726759,-0.688013,0
51000,-0.998885,-0.746117,-0.817933,0
51020,-0.978415,-0.754818,-0.902473,0
51040,-0.971676,-0.75873,-0.941955,0
51060,-0.967443,-0.760795,-0.979711,0
51070,-0.961992,-0.761625,-1.01528,0
51070,-0.931043,-0.7552,-1.10866,0
51090,-0.926254,-0.751009,-1.13411,0
51110,-0.923843,-0.737542,-1.18071,0
51130,-0.915185,-0.727258,-1.19952,0
51150,-0.902444,-0.717812,-1.21714,0
51170,-0.891726,-0.70742,-1.23272,0
51190,-0.885165,-0.694741,-1.24466,0
51210,-0.88472,-0.680475,-1.25384,0
51230,-0.880344,-0.666467,-1.26197,0
51250,-0.873166,-0.654748,-1.26748,0
51270,-0.868886,-0.641212,-1.27116,0
51290,-0.867543,-0.626219,-1.2737,0
51310,-0.868808,-0.611191,-1.27379,0
51330,-0.87418,-0.597284,-1.26981,0
51350,-0.881813,-0.584518,-1.26411,0
51370,-0.891154,-0.570267,-1.25798,0
51390,-0.905146,-0.554286,-1.2506,0
51410,-0.919742,-0.538081,-1.24407,0
51430,-0.929486,-0.521625,-1.23782,0
51450,-0.932907,-0.506702,-1.2304,0
51470,-0.935048,-0.496346,-1.22311,0
51490,-0.940055,-0.487889,-1.21542,0
51510,-0.949512,-0.480531,-1.2059,0
51530,-0.957332,-0.47478,-1.19481,0
51550,-0.95983,-0.469367,-1.18247,0
51600,-1.0914,-0.46078,-0.936778,0
51620,-1.10786,-0.462764,-0.911328,0
51640,-1.12676,-0.46507,-0.885202,0
51660,-1.14324,-0.468519,-0.860263,0
51680,-1.15831,-0.47112,-0.835637,0
51710,-1.19278,-0.478162,-0.782543,0
51730,-1.20876,-0.482556,-0.756556,0
51750,-1.22035,-0.486674,-0.731814,0
51760,-1.25976,-0.497951,-0.674855,0
51770,-1.31518,-0.509782,-0.593529,0
51790,-1.33182,-0.515832,-0.565563,0
51810,-1.34669,-0.522603,-0.539092,0
51830,-1.36061,-0.530322,-0.512521,0
51850,-1.3763,-0.53831,-0.486187,0
51870,-1.39155,-0.545831,-0.460925,0
51890,-1.40305,-0.554203,-0.437128,0
51910,-1.41022,-0.565235,-0.41429,0
51930,-1.41588,-0.576672,-0.392068,0
51990,-1.45878,-0.660614,-0.270338,0
52010,-1.46511,-0.673526,-0.262116,0
52060,-1.44314,-0.77605,-0.296747,0
52070,-1.43402,-0.800277,-0.315764,0
52090,-1.42125,-0.82708,-0.341507,0
52110,-1.40627,-0.852862,-0.373291,0
52130,-1.3884,-0.877337,-0.41146,0
52150,-1.3663,-0.900664,-0.456463,0
52170,-1.34031,-0.923666,-0.50955,0
52190,-1.31173,-0.942879,-0.56838,0
52210,-1.27945,-0.958112,-0.632917,0
52230,-1.24148,-0.969362,-0.700821,0
52250,-1.19994,-0.9756,-0.770481,0
52270,-1.16056,-0.984422,-0.838109,0
52290,-1.1253,-0.990484,-0.900985,0
52310,-1.09303,-0.994439,-0.959315,0
52330,-1.0629,-0.996698,-1.01107,0
52350,-1.03453,-0.998914,-1.05748,0
52370,-1.01042,-0.998253,-1.1,0
52390,-0.991308,-0.995112,-1.13646,0
52410,-0.974675,-0.987493,-1.16527,0
52430,-0.952532,-0.976442,-1.19479,0
52450,-0.9286,-0.960712,-1.22223,0
52470,-0.911277,-0.94362,-1.24723,0
52490,-0.900406,-0.929865,-1.26824,0
52510,-0.890254,-0.913883,-1.28176,0
52530,-0.879918,-0.895438,-1.29214,0
52550,-0.87062,-0.875527,-1.30034,0
52570,-0.87014,-0.853951,-1.30489,0
52590,-0.880195,-0.836855,-1.30237,0
52640,-0.943583,-0.737542,-1.26642,0
52660,-0.954736,-0.718435,-1.25844,0
52690,-0.974654,-0.688021,-1.24011,0
52710,-0.983484,-0.669213,-1.23196,0
52720,-0.99698,-0.656159,-1.22108,0
52730,-1.01073,-0.643522,-1.20909,0
52750,-1.01882,-0.627596,-1.20089,0
52780,-1.02663,-0.600324,-1.18316,0
52800,-1.02998,-0.58973,-1.17099,0
52820,-1.03204,-0.579611,-1.15954,0
52840,-1.03992,-0.571139,-1.14514,0
52860,-1.0496,-0.561933,-1.13106,0
52880,-1.05778,-0.552815,-1.11323,0
52900,-1.06705,-0.549394,-1.09195,0
52920,-1.08003,-0.547889,-1.07156,0
52940,-1.09519,-0.543125,-1.05093,0
52960,-1.1127,-0.541331,-1.02764,0
52980,-1.127,-0.540835,-1.0046,0
53000,-1.13753,-0.538441,-0.981368,0
53020,-1.15254,-0.538774,-0.955593,0
53040,-1.17345,-0.539963,-0.929074,0
53060,-1.19546,-0.539453,-0.903146,0
53080,-1.21604,-0.539452,-0.875704,0
53100,-1.23527,-0.54157,-0.847194,0
53120,-1.25667,-0.545143,-0.818445,0
53140,-1.27812,-0.549164,-0.789503,0
53160,-1.29849,-0.554973,-0.760309,0
53180,-1.31919,-0.562607,-0.729719,0
53200,-1.34021,-0.571274,-0.698473,0
53220,-1.36225,-0.581348,-0.665029,0
53240,-1.38598,-0.592151,-0.629677,0
53260,-1.41173,-0.60348,-0.593769,0
53280,-1.43737,-0.615941,-0.559214,0
53300,-1.4628,-0.629163,-0.525797,0
53320,-1.48661,-0.644059,-0.492846,0
53330,-1.50981,-0.658718,-0.459517,0
53350,-1.53189,-0.673937,-0.426057,0
53370,-1.64162,-0.759605,-0.274023,0
53390,-1.6657,-0.774791,-0.246306,0
53400,-1.68734,-0.7898,-0.222809,0
53420,-1.70657,-0.804065,-0.2031,0
53440,-1.72599,-0.818758,-0.185205,0
53460,-1.74452,-0.833532,-0.170994,0
53470,-1.76266,-0.848969,-0.161216,0
53490,-1.77774,-0.865749,-0.156512,0
53510,-1.78732,-0.884443,-0.158798,0
53530,-1.79481,-0.905686,-0.166227,0
53540,-1.79906,-0.925717,-0.178851,0
53550,-1.78279,-0.985558,-0.257009,0
53560,-1.77342,-1.00459,-0.295596,0
53580,-1.753,-1.02098,-0.344304,0
53600,-1.72561,-1.03587,-0.397049,0
53620,-1.69301,-1.05001,-0.454248,0
53630,-1.48575,-1.07699,-0.777889,0
53650,-1.44238,-1.07625,-0.838687,0
53680,-1.2976,-1.05228,-1.0394,0
53700,-1.26632,-1.04257,-1.08028,0
53720,-1.24089,-1.02995,-1.11965,0
53740,-1.22156,-1.01461,-1.15364,0
53760,-1.20519,-0.99726,-1.18292,0
53780,-1.19126,-0.979131,-1.20606,0
53800,-1.17566,-0.962182,-1.22837,0
53820,-1.16029,-0.94319,-1.25232,0
53840,-1.1452,-0.914892,-1.27687,0
53860,-1.13432,-0.880463,-1.29467,0
53880,-1.12682,-0.850302,-1.30826,0
53900,-1.12479,-0.825443,-1.31756,0
53920,-1.12956,-0.776758,-1.32429,0
53940,-1.13966,-0.757169,-1.32074,0
53960,-1.15451,-0.736492,-1.31168,0
53980,-1.16794,-0.721146,-1.30039,0
54000,-1.18603,-0.707468,-1.28468,0
54020,-1.21232,-0.695142,-1.26852,0
54040,-1.23966,-0.68098,-1.2523,0
54060,-1.26736,-0.667414,-1.23196,0
54080,-1.29164,-0.65579,-1.21111,0
54100,-1.31125,-0.644542,-1.19177,0
54120,-1.3351,-0.63501,-1.17167,0
54140,-1.36075,-0.624648,-1.15123,0
54160,-1.38434,-0.614394,-1.12913,0
54180,-1.40086,-0.609649,-1.10761,0
54200,-1.41625,-0.607028,-1.08641,0
54220,-1.43557,-0.601003,-1.06268,0
54240,-1.45486,-0.59788,-1.03696,0
54260,-1.4741,-0.597647,-1.00805,0
54280,-1.49389,-0.598101,-0.979474,0
54300,-1.51267,-0.599148,-0.951104,0
54320,-1.53501,-0.600646,-0.922178,0
54340,-1.55775,-0.600901,-0.893276,0
54360,-1.57695,-0.601058,-0.862435,0
54380,-1.59756,-0.603401,-0.829728,0
54400,-1.62058,-0.607865,-0.798539,0
54420,-1.64406,-0.612133,-0.768924,0
54440,-1.66498,-0.615681,-0.739694,0
54460,-1.68367,-0.619886,-0.708471,0
54480,-1.70459,-0.624625,-0.675911,0
54500,-1.72688,-0.629266,-0.643844,0
54520,-1.75149,-0.63465,-0.61177,0
54540,-1.78002,-0.640807,-0.579504,0
54560,-1.80964,-0.645141,-0.54818,0
54580,-1.83334,-0.64852,-0.518173,0
54600,-1.85224,-0.653431,-0.488003,0
54620,-1.87373,-0.657733,-0.461041,0
54640,-1.89591,-0.660012,-0.439447,0
54660,-1.91453,-0.663228,-0.420051,0
54680,-1.93144,-0.66825,-0.40279,0
54690,-1.94194,-0.670646,-0.388382,0
54710,-1.94696,-0.673657,-0.373016,0
54730,-1.95361,-0.683251,-0.356362,0
54750,-1.96137,-0.696335,-0.343656,0
54770,-1.96366,-0.710417,-0.336774,0
54790,-1.96004,-0.723227,-0.332513,0
54810,-1.95334,-0.735576,-0.326202,0
54830,-1.94677,-0.752516,-0.322349,0
54850,-1.93962,-0.769994,-0.322123,0
54870,-1.93468,-0.785984,-0.321227,0
54890,-1.93717,-0.799794,-0.318124,0
54910,-1.94078,-0.81404,-0.314405,0
54930,-1.93813,-0.826317,-0.310565,0
54950,-1.93623,-0.836724,-0.307519,0
54970,-1.935,-0.845491,-0.308388,0
54990,-1.93561,-0.851288,-0.311329,0
55010,-1.93455,-0.855714,-0.315068,0
55030,-1.9314,-0.858269,-0.318184,0
55050,-1.92826,-0.858764,-0.32009,0
55070,-1.92627,-0.858282,-0.321612,0
55090,-1.92649,-0.858071,-0.32133,0
55110,-1.92828,-0.857592,-0.319676,0
55130,-1.92754,-0.855536,-0.320288,0
55150,-1.92502,-0.852584,-0.320466,2001
55170,-1.92371,-0.850691,-0.31837,0
55210,-1.92653,-0.846654,-0.311057,0
55230,-1.92953,-0.845654,-0.308424,0
55250,-1.92907,-0.844502,-0.307682,0
55270,-1.92802,-0.841749,-0.304958,0
55290,-1.92593,-0.839861,-0.300763,0
55310,-1.92354,-0.838976,-0.295057,0
55330,-1.9223,-0.837462,-0.289441,0
55350,-1.92107,-0.835233,-0.285738,0
55370,-1.91808,-0.832679,-0.282923,0
55390,-1.91066,-0.830187,-0.280812,0
55410,-1.87958,-0.821833,-0.285733,0
55430,-1.84946,-0.811969,-0.298221,0
55450,-1.81447,-0.80134,-0.309684,0
55470,-1.77641,-0.793546,-0.32184,0
55490,-1.72735,-0.787846,-0.341787,0
55510,-1.66802,-0.777986,-0.366718,0
55510,-1.51337,-0.766746,-0.427339,0
55530,-1.43437,-0.758367,-0.456065,0
55550,-1.36618,-0.744404,-0.480217,0
55570,-1.3,-0.727395,-0.503919,0
55580,-1.23403,-0.710788,-0.530988,0
55630,-1.09426,-0.643494,-0.59081,0
55630,-1.06287,-0.61887,-0.609703,0
55670,-1.00743,-0.5742,-0.649912,0
55700,-0.946626,-0.518181,-0.69908,0
55710,-0.908059,-0.482578,-0.730241,0
55730,-0.901599,-0.479146,-0.732963,0
55750,-0.898301,-0.478226,-0.734961,0
55760,-0.896643,-0.479161,-0.735014,0
55810,-0.878036,-0.47267,-0.730538,0
55870,-0.884919,-0.448956,-0.698374,0
55910,-0.890013,-0.451026,-0.6816,0
55920,-0.891049,-0.455445,-0.674186,0
55940,-0.892431,-0.461616,-0.665578,0
55940,-0.897568,-0.475,-0.64218,0
55960,-0.897562,-0.485044,-0.630937,0
56000,-0.918391,-0.540051,-0.578925,0
56020,-0.942303,-0.584511,-0.546052,0
56040,-0.940282,-0.595825,-0.543894,0
56040,-0.940852,-0.620134,-0.545593,0
56060,-0.954104,-0.646996,-0.542134,0
56090,-0.976857,-0.669559,-0.543807,0
56110,-0.996017,-0.67364,-0.545594,0
56130,-1.01371,-0.675233,-0.552489,0
56170,-1.0237,-0.656896,-0.572873,0
56190,-1.01598,-0.637545,-0.591462,0
56210,-1.00947,-0.617444,-0.609683,0
56230,-0.990711,-0.538869,-0.676607,0
56320,-0.924677,-0.404707,-0.738942,0
56340,-0.918561,-0.399672,-0.739179,0
56380,-0.917306,-0.405319,-0.730696,2000
56410,-0.933573,-0.422703,-0.697777,0
56430,-0.930186,-0.427871,-0.693922,0
56470,-0.934169,-0.431823,-0.695398,0
56500,-0.934619,-0.444127,-0.678042,0
56510,-0.93714,-0.447113,-0.669166,0
56520,-0.947944,-0.451551,-0.658653,0
56540,-0.989833,-0.499741,-0.583446,0
56560,-0.998564,-0.516867,-0.573498,0
56570,-1.00772,-0.533419,-0.56321,0
56600,-1.025,-0.561184,-0.542563,0
56620,-1.03075,-0.570918,-0.535402,0
56640,-1.03706,-0.579469,-0.529469,0
56660,-1.04022,-0.5888,-0.527349,0
56680,-1.04107,-0.600352,-0.528966,0
56690,-1.04052,-0.625944,-0.545915,0
56710,-0.991655,-0.718367,-0.761277,0
56730,-0.980409,-0.726401,-0.800904,0
56740,-0.918788,-0.731354,-1.09269,0
56760,-0.919025,-0.729809,-1.12363,0
56780,-0.91651,-0.727769,-1.15568,0
56810,-0.911898,-0.724422,-1.20572,0
56820,-0.910387,-0.724421,-1.22528,0
56840,-0.910029,-0.723916,-1.24326,0
56870,-0.915069,-0.71507,-1.28221,0
56890,-0.903444,-0.694426,-1.33084,0
56910,-0.901468,-0.686868,-1.33615,0
56930,-0.902387,-0.6803,-1.33793,0
56950,-0.903204,-0.673719,-1.3404,0
56970,-0.906325,-0.665609,-1.34123,0
56990,-0.91035,-0.658136,-1.34246,0
57010,-0.912332,-0.649848,-1.34298,0
57030,-0.911653,-0.641286,-1.34388,0
57050,-0.9126,-0.635099,-1.34389,0
57070,-0.917238,-0.628338,-1.34582,0
57090,-0.925172,-0.617965,-1.34765,0
57110,-0.931196,-0.606555,-1.34728,0
57130,-0.934776,-0.596054,-1.34424,0
57150,-0.939822,-0.584552,-1.34037,0
57170,-0.947471,-0.573074,-1.33472,0
57190,-0.954467,-0.56176,-1.32878,0
57210,-0.958213,-0.549802,-1.322,0
57230,-0.959489,-0.539036,-1.31588,0
57250,-0.959292,-0.528915,-1.30986,0
57270,-0.960003,-0.521022,-1.3029,0
57290,-0.960111,-0.513415,-1.29467,0
57310,-0.959477,-0.506343,-1.28701,0
57330,-0.959951,-0.500269,-1.27807,0
57350,-0.961717,-0.494717,-1.26745,0
57370,-0.962785,-0.489927,-1.25676,0
57400,-0.967931,-0.4835,-1.23084,0
57420,-1.04009,-0.506011,-1.02699,0
57440,-1.09682,-0.505615,-0.955102,0
57470,-1.14049,-0.501697,-0.900172,0
57500,-1.18496,-0.496118,-0.839914,0
57510,-1.23286,-0.491735,-0.773317,0
57530,-1.36527,-0.594143,-0.478185,0
57570,-1.38371,-0.632523,-0.436506,0
57600,-1.39287,-0.655526,-0.416432,0
57620,-1.39418,-0.668837,-0.412122,0
57640,-1.39489,-0.682,-0.41173,0
57650,-1.396,-0.692876,-0.413364,0
57680,-1.3858,-0.720198,-0.423333,0
57700,-1.38074,-0.73853,-0.429876,0
57720,-1.37634,-0.755898,-0.441318,0
57740,-1.37409,-0.773671,-0.455409,0
57760,-1.36926,-0.793522,-0.472078,0
57780,-1.36391,-0.813347,-0.489332,0
57800,-1.3543,-0.834495,-0.510215,0
57820,-1.34548,-0.857515,-0.532596,0
57840,-1.33795,-0.883269,-0.558261,0
57860,-1.32845,-0.905364,-0.588114,0
57880,-1.3176,-0.924755,-0.622631,0
57900,-1.30341,-0.941134,-0.661447,0
57920,-1.28935,-0.955894,-0.701672,0
57940,-1.27543,-0.968779,-0.741945,0
57960,-1.25605,-0.978474,-0.78599,0
57980,-1.23425,-0.986056,-0.831759,0
58000,-1.21526,-0.990117,-0.874144,0
58020,-1.2006,-0.991232,-0.915123,0
58040,-1.1834,-0.98857,-0.955565,0
58060,-1.16628,-0.98288,-0.991211,0
58080,-1.14757,-0.974354,-1.02119,0
58110,-1.10847,-0.953059,-1.06843,0
58130,-1.09491,-0.942045,-1.08654,0
58150,-1.08877,-0.932723,-1.10418,0
58170,-1.08228,-0.923475,-1.12218,0
58190,-1.07443,-0.914317,-1.13602,0
58210,-1.06235,-0.904712,-1.15055,0
58230,-1.04895,-0.895145,-1.16751,0
58250,-1.03681,-0.883718,-1.18557,0
58270,-1.02524,-0.872295,-1.20303,0
58290,-1.0129,-0.862028,-1.22148,0
58310,-1.0011,-0.853577,-1.23945,0
58330,-0.990061,-0.839887,-1.25822,0
58350,-0.975715,-0.820451,-1.27811,0
58370,-0.957443,-0.796805,-1.295,0
58390,-0.943254,-0.775508,-1.31313,0
58410,-0.935714,-0.753154,-1.32707,0
58440,-0.932723,-0.692639,-1.34019,0
58470,-0.941541,-0.658909,-1.33396,0
58490,-0.95291,-0.643287,-1.32693,0
58510,-0.967755,-0.617305,-1.30511,0
58530,-0.978332,-0.608379,-1.2918,0
58540,-0.989807,-0.600727,-1.28112,0
58550,-0.998944,-0.592724,-1.27116,0
58570,-1.00908,-0.584441,-1.2575,0
58590,-1.01691,-0.579919,-1.24178,0
58610,-1.02123,-0.578095,-1.22494,0
58630,-1.02882,-0.578451,-1.20984,0
58650,-1.04263,-0.578036,-1.1952,0
58670,-1.06182,-0.577598,-1.17693,0
58690,-1.07706,-0.578759,-1.15797,0
58710,-1.08391,-0.578523,-1.14158,0
58730,-1.09582,-0.577241,-1.12262,0
58750,-1.12107,-0.577351,-1.1006,0
58770,-1.14599,-0.575894,-1.08014,0
58790,-1.1634,-0.570251,-1.05988,0
58810,-1.17986,-0.564485,-1.03582,0
58830,-1.20187,-0.560083,-1.00739,0
58850,-1.23004,-0.556416,-0.979528,0
58870,-1.25719,-0.551773,-0.95431,0
58890,-1.27991,-0.547522,-0.931025,0
58910,-1.30005,-0.543036,-0.907546,0
58930,-1.31941,-0.539088,-0.882703,0
58950,-1.33459,-0.5379,-0.857076,0
58970,-1.34933,-0.539294,-0.8302,0
58990,-1.36822,-0.542451,-0.802803,0
59020,-1.40677,-0.551378,-0.750783,0
59040,-1.42447,-0.55712,-0.724219,0
59060,-1.44256,-0.566694,-0.696228,0
59080,-1.4587,-0.577747,-0.669983,0
59100,-1.47354,-0.59011,-0.644096,0
59120,-1.49093,-0.604967,-0.617496,0
59140,-1.50891,-0.61994,-0.59233,0
59160,-1.52573,-0.634335,-0.569403,0
59180,-1.54116,-0.648291,-0.546516,0
59190,-1.55787,-0.663081,-0.521928,0
59210,-1.57699,-0.678837,-0.496672,0
59240,-1.61883,-0.707886,-0.450559,0
59260,-1.6374,-0.718712,-0.431038,0
59280,-1.65637,-0.729998,-0.411272,0
59300,-1.6764,-0.743272,-0.392341,0
59310,-1.69307,-0.756701,-0.37702,0
59320,-1.72256,-0.778142,-0.360761,0
59320,-1.73216,-0.786729,-0.357811,0
59340,-1.73732,-0.796249,-0.35651,0
59360,-1.73988,-0.807711,-0.356952,0
59390,-1.72329,-0.899438,-0.427712,0
59410,-1.69728,-0.952725,-0.500471,0
59430,-1.6863,-0.970746,-0.531624,0
59450,-1.67364,-0.987266,-0.567053,0
59470,-1.65749,-1.00168,-0.603976,0
59470,-1.63318,-1.01412,-0.64515,0
59480,-1.60617,-1.02428,-0.687601,0
59500,-1.57986,-1.03274,-0.731228,0
59520,-1.55453,-1.03924,-0.777708,0
59540,-1.5303,-1.0415,-0.824566,0
59560,-1.50438,-1.03946,-0.871657,0
59580,-1.47234,-1.03582,-0.921383,0
59600,-1.4408,-1.03051,-0.966188,0
59620,-1.41494,-1.02257,-1.00825,0
59640,-1.38935,-1.01225,-1.05276,0
59660,-1.36495,-0.99734,-1.09492,0
59680,-1.34303,-0.979113,-1.13364,0
59700,-1.32267,-0.959835,-1.16783,0
59720,-1.30751,-0.940695,-1.19716,0
59740,-1.29909,-0.919915,-1.22052,0
59760,-1.29372,-0.898823,-1.23873,0
59780,-1.28761,-0.882057,-1.25565,0
59800,-1.28167,-0.868102,-1.27465,0
59820,-1.28097,-0.85198,-1.29201,0
59840,-1.28145,-0.834304,-1.30615,0
59860,-1.27403,-0.817535,-1.32003,0
59880,-1.26404,-0.803903,-1.33119,0
59900,-1.25746,-0.791651,-1.3418,0
59920,-1.259,-0.778484,-1.35343,0
59940,-1.26113,-0.762259,-1.36167,0
59960,-1.2524,-0.734982,-1.37412,0
59980,-1.2488,-0.72249,-1.37892,0
60000,-1.24898,-0.710009,-1.38209,0
60030,-1.25123,-0.687787,-1.38141,0
60060,-1.25023,-0.663427,-1.37793,0
60080,-1.2541,-0.651631,-1.37151,0
60100,-1.259,-0.642433,-1.36394,0
60120,-1.2647,-0.63243,-1.3535,0
60140,-1.27341,-0.626368,-1.34098,0
60160,-1.28481,-0.619931,-1.33027,0
60180,-1.29688,-0.61128,-1.31838,0
60200,-1.31069,-0.607041,-1.30305,0
60200,-1.32594,-0.603623,-1.28807,0
60200,-1.33817,-0.597109,-1.27359,0
60220,-1.34807,-0.592983,-1.25835,0
60240,-1.35961,-0.590211,-1.24186,0
60260,-1.37245,-0.587798,-1.22344,0
60280,-1.38433,-0.585931,-1.20536,0
60300,-1.39745,-0.586107,-1.18689,0
60320,-1.41104,-0.585908,-1.16835,0
60340,-1.42916,-0.587463,-1.14666,0
60360,-1.44555,-0.588031,-1.12608,0
60380,-1.46013,-0.588778,-1.10255,0
60400,-1.47998,-0.59172,-1.07542,0
60420,-1.5093,-0.595758,-1.04677,0
60440,-1.54228,-0.598569,-1.01732,0
60460,-1.57299,-0.601987,-0.98535,0
60480,-1.60353,-0.607362,-0.94918,0
60500,-1.63538,-0.614688,-0.913827,0
60520,-1.6634,-0.621773,-0.879515,0
60540,-1.69201,-0.629726,-0.843384,0
60560,-1.72417,-0.639194,-0.80823,0
60580,-1.75623,-0.647631,-0.775955,0
60600,-1.78196,-0.653939,-0.745127,0
60620,-1.80137,-0.662067,-0.715767,0
60640,-1.82005,-0.673159,-0.688927,0
60660,-1.83561,-0.680825,-0.668924,0
60680,-1.85022,-0.687244,-0.650867,0
60700,-1.86562,-0.694872,-0.63165,0
60720,-1.87673,-0.702204,-0.615418,0
60740,-1.88569,-0.710013,-0.600847,0
60760,-1.8973,-0.718076,-0.5855,0
60780,-1.90986,-0.725961,-0.57015,0
60800,-1.92324,-0.735806,-0.554742,0
60820,-1.9328,-0.746705,-0.5417,0
60840,-1.94014,-0.757041,-0.528918,0
60860,-1.9511,-0.76884,-0.513229,0
60880,-1.96465,-0.784869,-0.496951,0
60900,-1.98006,-0.801126,-0.484222,0
60920,-1.99436,-0.815594,-0.47335,0
60940,-2.00344,-0.827788,-0.46573,0
60960,-2.01011,-0.839469,-0.459606,0
60980,-2.01128,-0.850981,-0.455185,0
61000,-2.01086,-0.862053,-0.453031,0
61020,-2.01354,-0.87107,-0.45285,0
61040,-2.01549,-0.877712,-0.45683,0
61060,-2.01223,-0.883163,-0.463342,0
61080,-2.00746,-0.885806,-0.468781,0
61100,-2.00302,-0.886632,-0.473486,2001
61120,-1.99974,-0.88868,-0.477457,0
61140,-1.99817,-0.889656,-0.479985,0
61160,-1.99913,-0.890306,-0.480056,0
61180,-2.00114,-0.88973,-0.478921,0
61200,-2.00158,-0.88954,-0.476981,0
61220,-2.00237,-0.890243,-0.473786,0
61230,-2.00524,-0.891834,-0.468473,0
61250,-2.00651,-0.892356,-0.463338,0
61270,-2.00599,-0.891741,-0.458082,0
61290,-2.0073,-0.891914,-0.450891,0
61310,-2.01202,-0.892071,-0.442995,0
61330,-2.01921,-0.891149,-0.434808,0
61350,-2.02494,-0.888766,-0.425765,0
61380,-2.03114,-0.884848,-0.412591,0
61400,-2.02758,-0.883215,-0.412172,0
61430,-2.01191,-0.869333,-0.421006,0
61450,-1.99464,-0.85864,-0.425417,0
61470,-1.96777,-0.849522,-0.43671,0
61490,-1.93098,-0.839955,-0.453424,0
61510,-1.8929,-0.826263,-0.473421,0
61530,-1.85745,-0.809081,-0.493016,0
61550,-1.81678,-0.792016,-0.512029,0
61570,-1.76934,-0.775848,-0.53196,0
61590,-1.72663,-0.75833,-0.549571,0
61610,-1.68768,-0.737941,-0.567108,0
61630,-1.64434,-0.716687,-0.588213,0
61660,-1.55759,-0.671345,-0.619604,0
61680,-1.52169,-0.650026,-0.6296,0
61700,-1.48423,-0.63196,-0.640058,0
61720,-1.44424,-0.610864,-0.649383,0
61740,-1.41154,-0.586872,-0.651292,0
61760,-1.37997,-0.56492,-0.651787,0
61780,-1.34521,-0.548192,-0.653598,0
61800,-1.31367,-0.535258,-0.654065,0
61820,-1.2867,-0.520903,-0.656125,0
61840,-1.26008,-0.503595,-0.660414,0
61860,-1.23175,-0.487144,-0.665507,0
61880,-1.20348,-0.47162,-0.669864,0
61900,-1.17737,-0.457679,-0.672189,0
61920,-1.15203,-0.445788,-0.675911,2000
61940,-1.12774,-0.436164,-0.679869,0
61950,-1.10599,-0.428521,-0.685031,0
61980,-0.991874,-0.440419,-0.688854,0
62000,-0.982354,-0.497132,-0.615569,0
62030,-1.02864,-0.578823,-0.507102,0
62070,-1.03467,-0.597119,-0.477094,0
62100,-1.02801,-0.608085,-0.476667,0
62120,-1.02457,-0.61533,-0.480584,0
62140,-1.02207,-0.621278,-0.487193,0
62160,-1.00646,-0.639335,-0.531277,0
62170,-1.00078,-0.644809,-0.55075,0
62200,-0.992775,-0.654148,-0.5955,0
62240,-0.874911,-0.736787,-1.08414,0
62260,-0.86656,-0.740265,-1.11064,0
62280,-0.860831,-0.745685,-1.13399,0
62300,-0.850889,-0.755579,-1.17433,0
62320,-0.84214,-0.758389,-1.22657,0
62340,-0.829525,-0.757101,-1.2796,0
62360,-0.830674,-0.757004,-1.28943,0
62380,-0.831082,-0.754669,-1.29995,0
62390,-0.828525,-0.751229,-1.31002,0
62410,-0.826564,-0.748475,-1.3183,0
62430,-0.825499,-0.745483,-1.32638,0
62440,-0.825515,-0.740689,-1.33337,0
62450,-0.827038,-0.73403,-1.34065,0
62470,-0.827005,-0.72707,-1.34806,0
62490,-0.823308,-0.721752,-1.35511,0
62510,-0.820606,-0.716384,-1.35852,0
62530,-0.823802,-0.711507,-1.36026,0
62550,-0.828124,-0.70393,-1.3635,0
62570,-0.830535,-0.696492,-1.36555,0
62590,-0.832639,-0.689213,-1.36426,0
62610,-0.833808,-0.679567,-1.36283,0
62630,-0.836553,-0.669751,-1.36028,0
62650,-0.843072,-0.661136,-1.356,0
62670,-0.849935,-0.65175,-1.35001,0
62690,-0.856155,-0.641777,-1.34182,0
62710,-0.861092,-0.633014,-1.33578,0
62730,-0.862076,-0.623402,-1.33069,0
62750,-0.862286,-0.614219,-1.32742,0
62770,-0.858593,-0.60375,-1.32531,0
62790,-0.858494,-0.592947,-1.32056,0
62820,-0.858999,-0.560109,-1.30432,0
62840,-0.863614,-0.549611,-1.296,0
62860,-0.869142,-0.539494,-1.28704,0
62880,-0.8732,-0.53222,-1.27773,0
62900,-0.876323,-0.527265,-1.26813,0
62920,-0.884404,-0.519502,-1.24397,0
62940,-0.891684,-0.520443,-1.23633,0
62960,-0.896354,-0.524435,-1.22958,0
62980,-0.89559,-0.528723,-1.22569,0
63000,-0.893084,-0.531525,-1.22293,0
63020,-0.894849,-0.532056,-1.2208,0
63040,-0.901127,-0.53193,-1.21771,0
63050,-0.908095,-0.531341,-1.21273,0
63070,-0.910636,-0.529883,-1.2089,0
63090,-0.911657,-0.529365,-1.20557,0
63110,-0.912934,-0.530326,-1.20343,0
63130,-0.9148,-0.529736,-1.20285,0
63150,-0.915586,-0.527521,-1.20099,0
63170,-0.915345,-0.526728,-1.19791,0
63190,-0.912484,-0.522644,-1.19214,0
63230,-0.914761,-0.510357,-1.1837,0
63240,-0.917297,-0.50517,-1.17699,0
63260,-0.91739,-0.499446,-1.17037,0
63270,-0.919276,-0.494663,-1.16174,0
63290,-0.923826,-0.49089,-1.1525,0
63310,-0.932864,-0.476235,-1.11958,0
63330,-0.938812,-0.473589,-1.10601,0
63330,-0.960211,-0.470275,-1.05995,0
63350,-0.966543,-0.469898,-1.04396,0
63370,-0.97559,-0.472061,-1.02568,0
63390,-0.986731,-0.474558,-1.00578,0
63410,-0.997891,-0.475741,-0.986119,0
63430,-1.00752,-0.477477,-0.967,0
63440,-1.0305,-0.484468,-0.9249,0
63480,-1.0693,-0.490612,-0.86229,0
63500,-1.0813,-0.493776,-0.841229,0
63520,-1.09384,-0.495549,-0.818394,0
63540,-1.10853,-0.497643,-0.795215,0
63560,-1.12235,-0.499604,-0.772672,0
63580,-1.13672,-0.501304,-0.749484,0
63600,-1.15218,-0.503726,-0.725322,0
63600,-1.16741,-0.507359,-0.700465,0
63620,-1.18113,-0.512075,-0.675808,0
63630,-1.19299,-0.519472,-0.650342,0
63670,-1.21827,-0.540122,-0.598719,0
63700,-1.25045,-0.577579,-0.53162,0
63720,-1.26056,-0.589959,-0.510014,0
63740,-1.27,-0.603516,-0.491078,0
63760,-1.28117,-0.631176,-0.463538,0
63780,-1.28795,-0.642642,-0.450891,0
63800,-1.29298,-0.65336,-0.440923,0
63820,-1.29327,-0.663003,-0.435471,0
63840,-1.28868,-0.67384,-0.4344,0
63850,-1.28592,-0.683935,-0.433923,0
63850,-1.28294,-0.694493,-0.436363,0
63870,-1.27666,-0.707569,-0.442696,0
63890,-1.26815,-0.72261,-0.450105,0
63910,-1.26186,-0.737874,-0.460275,0
63950,-1.24525,-0.767232,-0.492378,0
63980,-1.17882,-0.828514,-0.592364,0
64000,-1.16158,-0.84444,-0.620181,0
64020,-1.14467,-0.859739,-0.65046,0
64040,-1.13232,-0.873639,-0.678634,0
64060,-1.1218,-0.886354,-0.707543,0
64080,-1.11087,-0.898702,-0.738082,0
64100,-1.09959,-0.911039,-0.76928,0
64120,-1.08803,-0.92355,-0.800969,0
64140,-1.07874,-0.934932,-0.832663,0
64160,-1.07023,-0.943402,-0.864844,0
64180,-1.05898,-0.950665,-0.898719,0
64200,-1.04465,-0.957656,-0.933346,0
64220,-1.03133,-0.964621,-0.966833,0
64240,-1.0213,-0.970289,-0.996783,0
64260,-1.01172,-0.97659,-1.02499,0
64280,-1.00417,-0.981929,-1.05088,0
64300,-0.999073,-0.986622,-1.07492,0
64320,-0.994767,-0.991038,-1.09656,0
64340,-0.991481,-0.993777,-1.11593,0
64360,-0.988291,-0.99471,-1.13335,0
64380,-0.983193,-0.996142,-1.15027,0
64400,-0.979339,-0.997354,-1.16456,0
64420,-0.97679,-0.996669,-1.18077,0
64440,-0.975192,-0.993423,-1.1963,0
64460,-0.96984,-0.987172,-1.21191,0
64480,-0.96265,-0.978996,-1.22562,0
64500,-0.955609,-0.971968,-1.23956,0
64520,-0.949733,-0.964775,-1.25841,0
64540,-0.94887,-0.952083,-1.27493,0
64560,-0.947715,-0.932757,-1.28979,0
64580,-0.938863,-0.912195,-1.30603,0
64600,-0.924463,-0.89098,-1.32428,0
64620,-0.911413,-0.87206,-1.34419,0
64640,-0.902701,-0.852351,-1.36016,0
64660,-0.899881,-0.832121,-1.37047,0
64680,-0.894422,-0.812943,-1.38077,0
64700,-0.886307,-0.794653,-1.39022,0
64720,-0.882259,-0.777686,-1.39629,0
64740,-0.884261,-0.759003,-1.40038,0
64760,-0.888833,-0.739458,-1.40124,0
64780,-0.896548,-0.72316,-1.39706,0
64790,-0.908464,-0.708022,-1.39231,0
64830,-0.930988,-0.618427,-1.40039,0
64840,-0.928414,-0.604173,-1.39877,0
64860,-0.928389,-0.593162,-1.39733,0
64880,-0.931698,-0.581989,-1.39476,0
64890,-0.940517,-0.572293,-1.38719,0
64910,-0.946114,-0.56323,-1.37769,0
64920,-0.960158,-0.540239,-1.344,0
64940,-0.975067,-0.536071,-1.32537,0
64960,-0.988206,-0.534002,-1.30712,0
64980,-0.997293,-0.531814,-1.28921,0
65000,-1.00713,-0.529894,-1.26982,0
65020,-1.02084,-0.528311,-1.24858,0
65040,-1.03959,-0.528922,-1.2249,0
65060,-1.05696,-0.530851,-1.20145,0
65080,-1.07058,-0.530999,-1.18045,0
65100,-1.08463,-0.530508,-1.15845,0
65120,-1.10181,-0.53228,-1.13504,0
65140,-1.11638,-0.533227,-1.11308,0
65160,-1.12793,-0.535441,-1.09025,0
65180,-1.14189,-0.539387,-1.06713,0
65200,-1.15927,-0.542961,-1.04491,0
65220,-1.17607,-0.544982,-1.02254,0
65240,-1.19215,-0.547617,-0.997896,0
65260,-1.2103,-0.550751,-0.970503,0
65280,-1.22893,-0.553725,-0.942353,0
65300,-1.24702,-0.558123,-0.914639,0
65320,-1.26728,-0.562598,-0.885768,0
65340,-1.29137,-0.565189,-0.853888,0
65360,-1.31611,-0.568793,-0.820819,0
65380,-1.33748,-0.575159,-0.788523,0
65400,-1.35799,-0.580951,-0.756144,0
65420,-1.37957,-0.587674,-0.723988,0
65440,-1.40117,-0.593464,-0.692529,0
65460,-1.41998,-0.599884,-0.662001,0
65480,-1.43662,-0.610667,-0.631775,0
65500,-1.45685,-0.624069,-0.601298,0
65520,-1.47956,-0.635498,-0.573893,0
65540,-1.50122,-0.645232,-0.54747,0
65560,-1.51869,-0.657279,-0.522126,0
65580,-1.53458,-0.671606,-0.498343,0
65610,-1.55416,-0.697899,-0.45956,0
65630,-1.56288,-0.715854,-0.440364,0
65650,-1.5755,-0.737401,-0.421761,0
65670,-1.59046,-0.75751,-0.404602,0
65690,-1.60633,-0.776545,-0.388556,0
65710,-1.62209,-0.794264,-0.371776,0
65730,-1.64023,-0.811223,-0.355854,0
65750,-1.66346,-0.827357,-0.339465,0
65770,-1.68797,-0.841658,-0.326701,0
65790,-1.7085,-0.85441,-0.31905,0
65810,-1.72671,-0.867995,-0.314003,0
65830,-1.74154,-0.881921,-0.313808,0
65850,-1.742,-0.961537,-0.388061,0
65860,-1.69447,-1.01437,-0.486259,0
65880,-1.67212,-1.031,-0.52505,0
65900,-1.6475,-1.04631,-0.56769,0
65920,-1.61795,-1.05969,-0.616098,0
65940,-1.58728,-1.07126,-0.666503,0
65960,-1.5544,-1.07969,-0.718147,0
65970,-1.51508,-1.08632,-0.775043,0
66010,-1.42817,-1.08976,-0.893203,0
66030,-1.38436,-1.08833,-0.951087,0
66060,-1.25549,-1.06071,-1.11716,0
66100,-1.19152,-1.03162,-1.20383,0
66120,-1.16618,-1.0174,-1.23885,0
66140,-1.14207,-0.998558,-1.27246,0
66160,-1.11932,-0.975952,-1.30157,0
66180,-1.10147,-0.952428,-1.32689,0
66200,-1.08973,-0.931814,-1.34875,0
66220,-1.0871,-0.909564,-1.36154,0
66240,-1.08362,-0.885323,-1.37407,0
66260,-1.07426,-0.862841,-1.385,0
66280,-1.07106,-0.841048,-1.39221,0
66300,-1.08231,-0.804588,-1.39878,0
66320,-1.08792,-0.788077,-1.39665,0
66340,-1.09067,-0.772003,-1.39261,0
66360,-1.09586,-0.758817,-1.38648,0
66380,-1.10916,-0.749528,-1.37743,0
66400,-1.12432,-0.740321,-1.36775,0
66420,-1.13545,-0.731402,-1.35471,0
66440,-1.14385,-0.725369,-1.34257,0
66460,-1.15069,-0.719689,-1.33117,0
66480,-1.16244,-0.712477,-1.31879,0
66500,-1.17489,-0.705295,-1.30362,0
66520,-1.18927,-0.701209,-1.28541,0
66540,-1.19978,-0.695603,-1.27087,0
66560,-1.20996,-0.686091,-1.25614,0
66580,-1.22485,-0.679455,-1.23866,0
66590,-1.23985,-0.673111,-1.22135,0
66610,-1.24922,-0.665461,-1.20382,0
66630,-1.2559,-0.661079,-1.18555,0
66650,-1.26317,-0.658094,-1.16834,0
66670,-1.27228,-0.655763,-1.1491,0
66690,-1.28251,-0.65572,-1.12779,0
66710,-1.29299,-0.655219,-1.10464,0
66730,-1.30628,-0.655806,-1.08011,0
66750,-1.32452,-0.658255,-1.05493,0
66760,-1.34695,-0.662957,-1.02827,0
