Timestamp, Angle x, Angle y, Angle z, Marker
40,-1.01195,0.793991,-0.362011,0
60,-1.01233,0.794066,-0.361836,0
80,-1.01233,0.794066,-0.361836,0
100,-1.01162,0.794254,-0.36173,0
120,-1.01162,0.794254,-0.36173,0
140,-1.01158,0.79432,-0.3616,0
160,-1.01158,0.79432,-0.3616,0
180,-1.01158,0.79432,-0.3616,0
180,-1.0101,0.794414,-0.361228,0
200,-1.00919,0.794386,-0.36089,0
230,-1.00842,0.794293,-0.360625,0
250,-1.00842,0.794293,-0.360625,0
270,-1.00842,0.794293,-0.360625,0
290,-1.00732,0.794402,-0.360389,0
310,-1.00637,0.794302,-0.360058,0
330,-1.00569,0.794419,-0.359776,0
350,-1.00581,0.794563,-0.359888,0
370,-1.00581,0.794563,-0.359888,0
390,-1.00581,0.794563,-0.359888,0
410,-1.00569,0.794419,-0.359776,0
430,-1.00569,0.794419,-0.359776,0
450,-1.00569,0.794419,-0.359776,0
470,-1.00573,0.79449,-0.359769,0
490,-1.00573,0.79449,-0.359769,0
510,-1.00573,0.79449,-0.359769,0
530,-1.00573,0.79449,-0.359769,0
550,-1.00561,0.794346,-0.359657,0
570,-1.00561,0.794346,-0.359657,0
590,-1.00542,0.794339,-0.35959,0
610,-1.00542,0.794339,-0.35959,0
630,-1.00542,0.794339,-0.35959,0
650,-1.00534,0.794267,-0.359471,0
670,-1.00534,0.794267,-0.359471,0
690,-1.00534,0.794267,-0.359471,0
710,-1.00534,0.794267,-0.359471,0
730,-1.00542,0.794339,-0.35959,0
750,-1.00542,0.794339,-0.35959,0
770,-1.00542,0.794339,-0.35959,0
790,-1.00542,0.794339,-0.35959,0
810,-1.00534,0.794267,-0.359471,0
830,-1.00587,0.794215,-0.35968,0
850,-1.00587,0.794215,-0.35968,0
870,-1.00575,0.794071,-0.359568,0
890,-1.00575,0.794071,-0.359568,0
910,-1.00575,0.794071,-0.359568,0
930,-1.00655,0.794099,-0.359962,0
950,-1.00643,0.793954,-0.35985,0
970,-1.00643,0.793954,-0.35985,0
990,-1.00643,0.793954,-0.35985,0
1010,-1.00673,0.793962,-0.35986,0
1030,-1.00728,0.79412,-0.360232,0
1050,-1.00766,0.794337,-0.360225,0
1070,-1.00793,0.794273,-0.360242,0
1090,-1.00881,0.79451,-0.360619,0
1110,-1.0095,0.794598,-0.360759,0
1130,-1.01022,0.794757,-0.360894,0
1150,-1.0111,0.794851,-0.361103,0
1170,-1.01152,0.795003,-0.361227,0
1190,-1.01152,0.795003,-0.361227,0
1210,-1.01171,0.79501,-0.361294,0
1230,-1.01159,0.794866,-0.361182,0
1250,-1.01213,0.794881,-0.361386,0
1270,-1.01217,0.794953,-0.361379,0
1290,-1.01232,0.794887,-0.361453,0
1310,-1.01232,0.794887,-0.361453,0
1340,-1.01232,0.794887,-0.361453,0
1360,-1.01232,0.794887,-0.361453,0
1380,-1.01232,0.794887,-0.361453,0
1400,-1.01232,0.794887,-0.361453,0
1410,-1.01236,0.794821,-0.361583,0
1430,-1.01236,0.794821,-0.361583,0
1450,-1.01236,0.794821,-0.361583,0
1470,-1.01227,0.794749,-0.361464,0
1490,-1.01227,0.794749,-0.361464,0
1510,-1.01243,0.794684,-0.361538,0
1530,-1.01288,0.794765,-0.361487,0
1550,-1.01288,0.794765,-0.361487,0
1570,-1.01288,0.794765,-0.361487,0
1590,-1.01288,0.794765,-0.361487,0
1610,-1.01292,0.794699,-0.361616,0
1630,-1.01254,0.794481,-0.361622,0
1650,-1.01254,0.794481,-0.361622,0
1670,-1.01254,0.794481,-0.361622,0
1690,-1.01272,0.794488,-0.36169,0
1710,-1.01272,0.794488,-0.36169,0
1730,-1.01272,0.794488,-0.36169,0
1750,-1.01264,0.794278,-0.361707,0
1770,-1.01283,0.794285,-0.361774,0
1790,-1.01275,0.794213,-0.361655,0
1810,-1.01275,0.794213,-0.361655,0
1830,-1.01279,0.794147,-0.361785,0
1850,-1.01245,0.794067,-0.36178,0
1870,-1.01257,0.794211,-0.361893,0
1890,-1.01257,0.794211,-0.361893,0
1910,-1.01257,0.794211,-0.361893,0
1930,-1.01245,0.794067,-0.36178,0
1950,-1.01257,0.794211,-0.361893,0
1970,-1.01257,0.794211,-0.361893,0
1990,-1.01276,0.794218,-0.36196,0
2010,-1.01276,0.794218,-0.36196,0
2030,-1.01195,0.79419,-0.361565,0
2050,-1.01138,0.794104,-0.361368,0
2070,-1.01108,0.794096,-0.361357,0
2090,-1.01055,0.794147,-0.361149,0
2110,-1.01032,0.79435,-0.36112,0
2130,-1.00964,0.794328,-0.360974,0
2150,-1.009,0.794379,-0.360822,0
2170,-1.00816,0.794561,-0.360467,0
2190,-1.00816,0.794561,-0.360467,0
2210,-1.00808,0.794351,-0.360484,0
2230,-1.00728,0.794324,-0.36009,0
2250,-1.00659,0.794237,-0.35995,0
2270,-1.00583,0.794143,-0.359686,0
2290,-1.00583,0.794143,-0.359686,0
2310,-1.00568,0.794209,-0.359612,0
2330,-1.00568,0.794209,-0.359612,0
2350,-1.00568,0.794209,-0.359612,0
2370,-1.00556,0.794064,-0.3595,0
2390,-1.00556,0.794064,-0.3595,0
2410,-1.0056,0.794136,-0.359494,0
2430,-1.00496,0.79405,-0.359479,0
2450,-1.00455,0.794049,-0.359831,0
2470,-1.0038,0.79397,-0.360178,0
2490,-1.00302,0.794101,-0.360564,0
2510,-1.00231,0.793958,-0.361042,0
2530,-1.00156,0.79367,-0.361228,0
2550,-1.00038,0.793233,-0.361292,0
2570,-0.999086,0.792789,-0.361109,0
2590,-0.998019,0.792287,-0.361126,0
2610,-0.997105,0.79172,-0.361216,0
2630,-0.995846,0.790867,-0.361143,0
2650,-0.994618,0.790077,-0.360761,0
2670,-0.993614,0.789084,-0.36041,0
2690,-0.992763,0.788027,-0.360133,0
2710,-0.992217,0.78712,-0.360035,0
2730,-0.991563,0.786416,-0.359851,0
2750,-0.991324,0.785581,-0.359753,0
2770,-0.991156,0.784888,-0.359644,0
2790,-0.990992,0.784061,-0.359672,0
2810,-0.990043,0.783352,-0.359484,0
2830,-0.988984,0.782702,-0.359043,0
2850,-0.988798,0.782696,-0.358977,0
2870,-0.989006,0.782273,-0.358542,0
2890,-0.989288,0.781857,-0.358233,0
2910,-0.989238,0.781366,-0.357923,0
2930,-0.989124,0.781223,-0.357814,0
2950,-0.989162,0.781158,-0.357944,0
2970,-0.989796,0.781105,-0.358087,0
2990,-0.991148,0.781416,-0.358511,0
3010,-0.992989,0.782083,-0.359032,0
3030,-0.995435,0.782628,-0.359705,0
3050,-0.997657,0.783367,-0.360051,0
3070,-1.00027,0.784194,-0.360828,0
3090,-1.00274,0.785095,-0.361843,0
3110,-1.00497,0.785931,-0.363288,0
3130,-1.00716,0.786839,-0.364912,0
3150,-1.00951,0.787681,-0.366614,0
3170,-1.01238,0.788056,-0.368502,0
3190,-1.01493,0.787928,-0.36988,0
3210,-1.01701,0.787853,-0.370871,0
3230,-1.01883,0.787699,-0.371678,0
3250,-1.02025,0.787321,-0.371881,0
3270,-1.02151,0.786799,-0.371846,0
3290,-1.02211,0.785848,-0.371765,0
3310,-1.02176,0.785074,-0.371089,0
3330,-1.0216,0.784794,-0.370985,0
3350,-1.02216,0.784675,-0.371318,0
3370,-1.02381,0.785066,-0.371948,0
3390,-1.02642,0.785417,-0.373041,0
3410,-1.02942,0.785989,-0.374437,0
3430,-1.03143,0.786667,-0.375246,0
3450,-1.0333,0.787272,-0.37612,0
3470,-1.0355,0.787473,-0.3771,0
3490,-1.03722,0.787664,-0.377999,0
3510,-1.03703,0.787458,-0.378676,0
3530,-1.03496,0.786926,-0.378821,0
3550,-1.03257,0.787143,-0.378596,0
3570,-1.03155,0.787187,-0.378619,0
3590,-1.0321,0.786718,-0.378612,0
3610,-1.03332,0.786265,-0.378445,0
3630,-1.03312,0.785633,-0.377695,0
3650,-1.0327,0.784999,-0.377058,0
3670,-1.03186,0.784419,-0.376162,0
3690,-1.03133,0.783987,-0.375448,0
3710,-1.03075,0.783755,-0.374475,0
3730,-1.03053,0.783331,-0.373772,0
3750,-1.02966,0.78282,-0.373055,0
3770,-1.02831,0.782429,-0.371828,0
3790,-1.02658,0.782166,-0.37064,0
3810,-1.025,0.781837,-0.369526,0
3830,-1.02295,0.781834,-0.368065,0
3850,-1.02129,0.782054,-0.367204,0
3870,-1.01924,0.781913,-0.365879,0
3890,-1.01777,0.781512,-0.364413,0
3910,-1.01588,0.780954,-0.362527,0
3930,-1.01374,0.780176,-0.360294,0
3950,-1.01168,0.779803,-0.357603,0
3970,-1.00999,0.779306,-0.355181,0
3990,-1.00907,0.779043,-0.353183,0
4010,-1.00868,0.778803,-0.351684,0
4030,-1.00868,0.778993,-0.350636,0
4050,-1.00994,0.779513,-0.35068,0
4070,-1.01176,0.780132,-0.351519,0
4090,-1.01325,0.780602,-0.352364,0
4110,-1.01429,0.781333,-0.353292,0
4130,-1.01533,0.781924,-0.354055,0
4150,-1.01605,0.782089,-0.354486,0
4170,-1.01583,0.782149,-0.354292,0
4190,-1.01583,0.782149,-0.354292,0
4210,-1.01575,0.782076,-0.354175,0
4230,-1.01567,0.781868,-0.354193,0
4250,-1.01521,0.781918,-0.353809,0
4270,-1.0151,0.781775,-0.353699,0
4290,-1.0151,0.781775,-0.353699,0
4310,-1.01532,0.781716,-0.353893,0
4330,-1.01572,0.782347,-0.353905,0
4350,-1.01649,0.782992,-0.354049,0
4370,-1.0176,0.783439,-0.353863,0
4390,-1.01875,0.783957,-0.353671,0
4410,-1.01995,0.784617,-0.353771,0
4430,-1.02118,0.785212,-0.354002,0
4450,-1.02261,0.785677,-0.354437,0
4470,-1.02399,0.786004,-0.354883,0
4490,-1.02455,0.786711,-0.35484,0
4510,-1.02642,0.787538,-0.355566,0
4530,-1.02905,0.788463,-0.356257,0
4550,-1.03114,0.789025,-0.356718,0
4570,-1.03243,0.789556,-0.357394,0
4590,-1.03317,0.789929,-0.357697,0
4610,-1.03422,0.789968,-0.358285,0
4630,-1.03533,0.79015,-0.35886,0
4650,-1.03583,0.79003,-0.359377,0
4670,-1.03613,0.789835,-0.359829,0
4690,-1.03621,0.789907,-0.360252,0
4710,-1.03656,0.789851,-0.360696,0
4730,-1.0368,0.789997,-0.361059,0
4750,-1.03675,0.789858,-0.361066,0
4770,-1.03672,0.789787,-0.361073,0
4780,-1.03654,0.790264,-0.361207,0
4800,-1.03628,0.790391,-0.361187,0
4820,-1.03583,0.79065,-0.361269,0
4840,-1.03524,0.79118,-0.36114,0
4860,-1.03483,0.791372,-0.361046,0
4880,-1.03442,0.791564,-0.360952,0
4900,-1.0335,0.791736,-0.360475,0
4920,-1.03235,0.791762,-0.359939,0
4940,-1.03177,0.791671,-0.359435,0
4960,-1.03114,0.791441,-0.35894,0
4980,-1.03032,0.791203,-0.358379,0
5000,-1.02935,0.79089,-0.357577,0
5020,-1.02834,0.790643,-0.356646,0
5040,-1.02837,0.790714,-0.356639,0
5060,-1.02825,0.790571,-0.356526,0
5080,-1.02713,0.790322,-0.356258,0
5100,-1.02591,0.790278,-0.356212,0
5120,-1.02472,0.790371,-0.355549,0
5140,-1.02472,0.790371,-0.355549,0
5160,-1.02472,0.790371,-0.355549,0
5180,-1.02341,0.790112,-0.354609,0
5200,-1.02207,0.790061,-0.354012,0
5220,-1.02092,0.790086,-0.353478,0
5240,-1.01992,0.789839,-0.352855,0
5260,-1.01908,0.789875,-0.352333,0
5280,-1.01867,0.790066,-0.352238,0
5300,-1.01886,0.790074,-0.352304,0
5320,-1.01859,0.789994,-0.352119,0
5340,-1.01859,0.789994,-0.352119,0
5360,-1.01862,0.789927,-0.352248,0
5380,-1.01851,0.789784,-0.352137,0
5400,-1.01851,0.789784,-0.352137,0
5420,-1.01851,0.789784,-0.352137,0
5440,-1.01912,0.789808,-0.352463,0
5460,-1.01969,0.789898,-0.352659,0
5480,-1.01973,0.78997,-0.352652,0
5500,-1.01969,0.790036,-0.352523,0
5520,-1.0195,0.790029,-0.352456,0
5540,-1.0195,0.790029,-0.352456,0
5560,-1.0195,0.790029,-0.352456,0
5580,-1.0195,0.790029,-0.352456,0
5600,-1.01954,0.789962,-0.352585,0
5620,-1.01961,0.789826,-0.35254,0
5640,-1.01961,0.789826,-0.35254,0
5660,-1.01961,0.789826,-0.35254,0
5680,-1.01961,0.789826,-0.35254,0
5700,-1.01984,0.789767,-0.352736,0
5720,-1.01984,0.789767,-0.352736,0
5740,-1.01984,0.789767,-0.352736,0
5760,-1.01984,0.789767,-0.352736,0
5780,-1.01984,0.789767,-0.352736,0
5800,-1.01984,0.789767,-0.352736,0
5820,-1.01984,0.789767,-0.352736,0
5840,-1.0198,0.789696,-0.352743,0
5860,-1.01992,0.789839,-0.352855,0
5880,-1.02011,0.789847,-0.352922,0
5900,-1.02065,0.790208,-0.352546,0
5920,-1.02157,0.790239,-0.352277,0
5940,-1.02244,0.789994,-0.352155,0
5960,-1.0232,0.790091,-0.352115,0
5980,-1.02355,0.790035,-0.352256,0
6000,-1.02451,0.79021,-0.352584,0
6020,-1.02609,0.790548,-0.353104,0
6040,-1.02752,0.79081,-0.353687,0
6060,-1.02845,0.791192,-0.354056,0
6080,-1.02935,0.791502,-0.354433,0
6100,-1.03052,0.792031,-0.354862,0
6120,-1.03158,0.792417,-0.355179,0
6140,-1.03267,0.792736,-0.355625,0
6160,-1.03338,0.793178,-0.355803,0
6180,-1.03425,0.793556,-0.356359,0
6200,-1.03512,0.794073,-0.35678,0
6220,-1.03614,0.794527,-0.357276,0
6240,-1.03712,0.794703,-0.357613,0
6260,-1.0383,0.795233,-0.358051,0
6280,-1.03929,0.795755,-0.358422,0
6300,-1.04012,0.795995,-0.358686,0
6320,-1.04012,0.795995,-0.358686,0
6340,-1.04098,0.796167,-0.359079,0
6360,-1.0423,0.796288,-0.359258,0
6380,-1.04349,0.796198,-0.359625,0
6400,-1.04365,0.796134,-0.3597,0
6420,-1.04377,0.796278,-0.359815,0
6440,-1.04377,0.796278,-0.359815,0
6460,-1.04377,0.796278,-0.359815,0
6480,-1.04365,0.796134,-0.3597,0
6500,-1.04365,0.796134,-0.3597,0
6520,-1.04365,0.796134,-0.3597,0
6540,-1.04365,0.796134,-0.3597,0
6560,-1.04388,0.796074,-0.359896,0
6580,-1.043,0.795556,-0.359468,0
6600,-1.043,0.795556,-0.359468,0
6620,-1.04228,0.795253,-0.359149,0
6640,-1.04164,0.794883,-0.358784,0
6660,-1.04164,0.794883,-0.358784,0
6680,-1.04152,0.79474,-0.358669,0
6700,-1.04159,0.794743,-0.35879,0
6720,-1.04112,0.794448,-0.358668,0
6730,-1.04045,0.794144,-0.35848,0
6750,-1.04045,0.794144,-0.35848,0
6770,-1.04045,0.794144,-0.35848,0
6790,-1.04045,0.794144,-0.35848,0
6810,-1.04045,0.794144,-0.35848,0
6830,-1.04045,0.794144,-0.35848,0
6850,-1.04048,0.794076,-0.358608,0
6870,-1.04036,0.793933,-0.358494,0
6890,-1.0404,0.794005,-0.358486,0
6910,-1.0399,0.793984,-0.358406,0
6930,-1.03922,0.793474,-0.358353,0
6950,-1.03874,0.793179,-0.358232,0
6970,-1.03878,0.793251,-0.358225,0
6990,-1.03866,0.793108,-0.358111,0
7010,-1.03866,0.793108,-0.358111,0
7030,-1.03866,0.793108,-0.358111,0
7050,-1.03866,0.793108,-0.358111,0
7070,-1.03854,0.792964,-0.357997,0
7090,-1.03854,0.792964,-0.357997,0
7110,-1.03857,0.793036,-0.35799,0
7130,-1.03845,0.792893,-0.357876,0
7150,-1.03849,0.792825,-0.358004,0
7170,-1.03849,0.792825,-0.358004,0
7190,-1.03837,0.792682,-0.357891,0
7210,-1.03841,0.792754,-0.357883,0
7230,-1.03841,0.792754,-0.357883,0
7250,-1.03829,0.792611,-0.357769,0
7270,-1.03829,0.792611,-0.357769,0
7290,-1.03832,0.792543,-0.357898,0
7310,-1.03832,0.792543,-0.357898,0
7330,-1.03832,0.792543,-0.357898,0
7350,-1.0382,0.7924,-0.357784,0
7370,-1.03824,0.792471,-0.357776,0
7390,-1.0382,0.7924,-0.357784,0
7410,-1.0382,0.7924,-0.357784,0
7430,-1.03839,0.792408,-0.357851,0
7450,-1.0382,0.7924,-0.357784,0
7470,-1.03846,0.792411,-0.357972,0
7490,-1.03835,0.792268,-0.357858,0
7510,-1.03835,0.792268,-0.357858,0
7530,-1.03835,0.792268,-0.357858,0
7550,-1.03835,0.792268,-0.357858,0
7570,-1.03835,0.792268,-0.357858,0
7590,-1.03835,0.792268,-0.357858,0
7610,-1.03835,0.792268,-0.357858,0
7630,-1.03823,0.792125,-0.357744,0
7650,-1.03823,0.792125,-0.357744,0
7670,-1.03835,0.792268,-0.357858,0
7690,-1.03835,0.792268,-0.357858,0
7710,-1.03835,0.792268,-0.357858,0
7730,-1.03835,0.792268,-0.357858,0
7750,-1.03855,0.792345,-0.357622,0
7770,-1.03858,0.792417,-0.357614,0
7790,-1.03858,0.792417,-0.357614,0
7810,-1.03858,0.792417,-0.357614,0
7830,-1.03862,0.792349,-0.357743,0
7850,-1.03858,0.792277,-0.35775,0
7870,-1.03835,0.792268,-0.357858,0
7890,-1.03786,0.792454,-0.357946,0
7910,-1.03805,0.792462,-0.358013,0
7930,-1.03809,0.792395,-0.358141,0
7950,-1.03786,0.792454,-0.357946,0
7970,-1.03805,0.792462,-0.358013,0
7990,-1.03809,0.792395,-0.358141,0
8010,-1.038,0.792323,-0.35802,0
8030,-1.038,0.792323,-0.35802,0
8050,-1.0375,0.792303,-0.35794,0
8070,-1.0375,0.792303,-0.35794,0
8090,-1.0375,0.792303,-0.35794,0
8110,-1.03742,0.792231,-0.357819,0
8130,-1.0375,0.792303,-0.35794,0
8150,-1.0375,0.792303,-0.35794,0
8170,-1.03732,0.792295,-0.357873,0
8190,-1.03735,0.792366,-0.357866,0
8210,-1.03735,0.792366,-0.357866,0
8230,-1.03712,0.792426,-0.35767,0
8250,-1.037,0.792283,-0.357557,0
8270,-1.03704,0.792215,-0.357685,0
8290,-1.03704,0.792215,-0.357685,0
8310,-1.037,0.792283,-0.357557,0
8330,-1.03708,0.792287,-0.357678,0
8350,-1.03708,0.792287,-0.357678,0
8370,-1.03696,0.792144,-0.357564,0
8390,-1.03696,0.792144,-0.357564,0
8410,-1.03696,0.792144,-0.357564,0
8430,-1.03641,0.791984,-0.357492,0
8450,-1.03641,0.791984,-0.357492,0
8470,-1.03629,0.791842,-0.357378,0
8490,-1.03629,0.791842,-0.357378,0
8510,-1.03633,0.791913,-0.357371,0
8530,-1.03633,0.791913,-0.357371,0
8550,-1.03633,0.791913,-0.357371,0
8570,-1.03633,0.791913,-0.357371,0
8590,-1.03621,0.79177,-0.357257,0
8610,-1.03621,0.79177,-0.357257,0
8630,-1.03624,0.791702,-0.357386,0
8650,-1.03624,0.791702,-0.357386,0
8670,-1.03624,0.791702,-0.357386,0
8690,-1.03613,0.791559,-0.357272,0
8710,-1.03613,0.791559,-0.357272,0
8730,-1.03616,0.791631,-0.357265,0
8750,-1.03616,0.791631,-0.357265,0
8770,-1.03627,0.791428,-0.357347,0
8790,-1.03608,0.79142,-0.35728,0
8810,-1.03627,0.791428,-0.357347,0
8830,-1.03627,0.791428,-0.357347,0
8850,-1.03615,0.791285,-0.357233,0
8870,-1.03615,0.791285,-0.357233,0
8890,-1.03599,0.791348,-0.357159,0
8910,-1.03618,0.791356,-0.357226,0
8930,-1.03615,0.791285,-0.357233,0
8950,-1.03615,0.791285,-0.357233,0
8970,-1.03615,0.791285,-0.357233,0
8990,-1.03618,0.791217,-0.357362,0
9010,-1.03618,0.791217,-0.357362,0
9030,-1.03618,0.791217,-0.357362,0
9050,-1.03618,0.791217,-0.357362,0
9070,-1.0359,0.790931,-0.35731,0
9090,-1.03531,0.790632,-0.357246,0
9110,-1.03483,0.790199,-0.357264,0
9130,-1.0344,0.789976,-0.357139,0
9150,-1.0344,0.789976,-0.357139,0
9170,-1.0337,0.789742,-0.356827,0
9190,-1.03361,0.789671,-0.356707,0
9210,-1.03365,0.789603,-0.356836,0
9230,-1.03365,0.789603,-0.356836,0
9250,-1.03353,0.78946,-0.356723,0
9270,-1.03345,0.789389,-0.356602,0
9290,-1.03326,0.789381,-0.356536,0
9310,-1.03326,0.789381,-0.356536,0
9330,-1.03326,0.789381,-0.356536,0
9350,-1.03314,0.789238,-0.356423,0
9370,-1.03318,0.789309,-0.356416,0
9390,-1.03321,0.789242,-0.356544,0
9410,-1.03309,0.789099,-0.356431,0
9430,-1.03309,0.789099,-0.356431,0
9450,-1.03309,0.789099,-0.356431,0
9470,-1.03309,0.789099,-0.356431,0
9490,-1.03301,0.789027,-0.356311,0
9510,-1.03301,0.789027,-0.356311,0
9530,-1.03308,0.788754,-0.356098,0
9550,-1.03354,0.788841,-0.356048,0
9570,-1.0339,0.788992,-0.356052,0
9590,-1.03393,0.789063,-0.356044,0
9610,-1.03409,0.789,-0.356118,0
9630,-1.034,0.788929,-0.355998,0
9650,-1.034,0.788929,-0.355998,0
9670,-1.0342,0.789005,-0.356064,0
9690,-1.0342,0.789005,-0.356064,0
9710,-1.03424,0.789076,-0.356056,0
9730,-1.03424,0.789076,-0.356056,0
9750,-1.03424,0.789076,-0.356056,0
9770,-1.03424,0.789076,-0.356056,0
9790,-1.03412,0.788933,-0.355944,0
9810,-1.03393,0.788925,-0.355877,0
9830,-1.03385,0.788853,-0.355757,0
9850,-1.03385,0.788853,-0.355757,0
9870,-1.03385,0.788853,-0.355757,0
9890,-1.03424,0.788937,-0.355889,0
9910,-1.03434,0.788873,-0.355835,0
9930,-1.03428,0.789215,-0.355745,0
9950,-1.03477,0.789716,-0.356029,0
9970,-1.03543,0.790018,-0.356213,0
9990,-1.03618,0.790392,-0.356518,0
10010,-1.03614,0.79046,-0.356389,0
10030,-1.03663,0.790961,-0.356675,0
10050,-1.0371,0.791255,-0.356793,0
10070,-1.03758,0.79155,-0.356912,0
10090,-1.03783,0.791905,-0.356836,0
10110,-1.03835,0.792478,-0.357116,0
10120,-1.03873,0.792975,-0.357457,0
10140,-1.0388,0.79284,-0.357411,0
10160,-1.03924,0.793203,-0.357402,0
10180,-1.0398,0.793571,-0.357341,0
10200,-1.04078,0.794095,-0.357408,0
10220,-1.04126,0.794392,-0.357225,0
10240,-1.04129,0.794808,-0.356956,0
10260,-1.04118,0.79584,-0.356813,0
10280,-1.04206,0.79719,-0.356874,0
10300,-1.04456,0.798338,-0.356495,0
10320,-1.04838,0.800188,-0.355164,0
10340,-1.05586,0.803296,-0.352713,0
10360,-1.07053,0.807261,-0.349523,0
10380,-1.09282,0.810632,-0.346539,0
10400,-1.12187,0.818046,-0.3442,0
10420,-1.16034,0.822524,-0.336414,0
10440,-1.20835,0.825519,-0.326315,0
10460,-1.27737,0.8278,-0.315583,0
10480,-1.36073,0.831218,-0.299415,0
10500,-1.45502,0.836425,-0.274483,0
10520,-1.55515,0.841034,-0.242613,0
10540,-1.64891,0.843467,-0.205464,0
10560,-1.72499,0.842988,-0.161628,0
10580,-1.77548,0.838644,-0.117051,0
10600,-1.80187,0.832101,-0.0826424,0
10620,-1.79561,0.814555,-0.0532374,0
10640,-1.76566,0.805381,-0.0334215,0
10660,-1.72552,0.804435,-0.0234348,0
10680,-1.69329,0.804062,-0.0264182,0
10700,-1.67241,0.802114,-0.0381521,0
10720,-1.65741,0.798545,-0.0573941,0
10740,-1.65023,0.794083,-0.0888072,0
10760,-1.64993,0.790616,-0.127071,0
10780,-1.64793,0.787731,-0.161894,0
10800,-1.6273,0.786139,-0.187857,0
10820,-1.59277,0.793866,-0.225596,0
10840,-1.53503,0.810655,-0.252748,0
10860,-1.48822,0.819364,-0.259507,0
10880,-1.43559,0.822339,-0.239178,0
10900,-1.35702,0.828435,-0.207268,0
10920,-1.26967,0.836462,-0.166098,0
10940,-1.22174,0.854268,-0.132301,0
10960,-1.19667,0.872021,-0.0971386,0
10980,-1.20349,0.881095,-0.0675998,0
11000,-1.20875,0.881066,-0.0423189,0
11030,-1.16391,0.82849,0.0481331,0
11060,-0.95973,0.81562,0.0195865,0
11080,-0.917541,0.821118,0.00277813,0
11100,-0.888205,0.825891,-0.0129811,0
11120,-0.865685,0.828765,-0.023521,0
11140,-0.853985,0.827386,-0.0327427,0
11160,-0.836708,0.821669,-0.0316484,0
11180,-0.820659,0.815859,-0.02982,0
11200,-0.808453,0.813375,-0.0272207,0
11220,-0.799919,0.811863,-0.0218497,0
11240,-0.791242,0.809942,-0.0122119,0
11260,-0.785637,0.807352,-0.00326349,0
11280,-0.790579,0.807069,0.00222998,0
11300,-0.799836,0.807082,0.00819992,0
11320,-0.810414,0.807341,0.0139723,0
11340,-0.821354,0.809328,0.019026,0
11360,-0.833856,0.813203,0.0221036,0
11380,-0.847832,0.818327,0.0233084,0
11400,-0.861781,0.823297,0.0236724,0
11420,-0.874763,0.829555,0.023793,0
11440,-0.885452,0.835462,0.0245563,0
11460,-0.894012,0.840765,0.0254269,0
11480,-0.900366,0.845669,0.0258058,0
11500,-0.904426,0.849561,0.0258165,0
11520,-0.907448,0.852378,0.0250088,0
11540,-0.91017,0.854254,0.0232387,0
11560,-0.91211,0.855471,0.0211688,0
11580,-0.913642,0.856954,0.0191886,0
11600,-0.915355,0.858754,0.0169106,0
11620,-0.91737,0.860834,0.0150744,0
11640,-0.919942,0.862947,0.0138323,0
11660,-0.923313,0.86457,0.012815,0
11680,-0.92827,0.86581,0.0108426,0
11700,-0.934209,0.866435,0.00839732,0
11720,-0.940563,0.866168,0.00554308,0
11740,-0.94617,0.865149,0.00301482,0
11760,-0.950622,0.863218,0.000961771,0
11780,-0.954349,0.859476,-0.00184648,0
11800,-0.956925,0.854287,-0.00456917,0
11820,-0.958108,0.846752,-0.00649735,0
11840,-0.956834,0.837104,-0.00597306,0
11860,-0.95817,0.832491,-0.000612029,0
11880,-0.976137,0.83049,0.00309366,0
11890,-1.0094,0.824093,0.0092498,0
11920,-1.04999,0.815309,0.0208219,0
11940,-1.09949,0.801713,0.0411179,0
11950,-1.15927,0.782329,0.0676101,0
11970,-1.23064,0.760886,0.0944596,0
11990,-1.29509,0.741282,0.125535,0
12010,-1.3421,0.725014,0.155834,0
12030,-1.36319,0.713186,0.186209,0
12050,-1.36079,0.702166,0.21643,0
12070,-1.3484,0.69606,0.242331,0
12090,-1.33966,0.693062,0.259822,0
12110,-1.34496,0.690452,0.271021,0
12130,-1.36361,0.687447,0.277749,0
12150,-1.38739,0.68349,0.280434,0
12170,-1.41065,0.679459,0.279581,0
12190,-1.4299,0.67642,0.276761,0
12210,-1.4454,0.676733,0.269816,0
12230,-1.45849,0.679083,0.260595,0
12250,-1.46943,0.6811,0.250579,0
12270,-1.48154,0.682722,0.238177,0
12290,-1.49355,0.682938,0.223303,0
12310,-1.50228,0.681026,0.207358,0
12330,-1.506,0.676556,0.189593,0
12350,-1.50542,0.672217,0.166484,0
12370,-1.50706,0.672177,0.14142,0
12390,-1.50904,0.673101,0.120708,0
12410,-1.51146,0.673606,0.100644,0
12430,-1.51436,0.674637,0.0801956,0
12450,-1.51548,0.67836,0.0595128,0
12470,-1.51391,0.68547,0.0407136,0
12490,-1.50823,0.692651,0.0239448,0
12510,-1.50346,0.695699,0.00757018,0
12530,-1.49825,0.694671,-0.0103079,0
12550,-1.48969,0.695752,-0.0328018,0
12570,-1.47742,0.69924,-0.0538827,0
12590,-1.46144,0.697629,-0.0753046,0
12610,-1.44701,0.696573,-0.09874,0
12630,-1.43287,0.699505,-0.116649,0
12650,-1.41649,0.698495,-0.129463,0
12670,-1.3976,0.693078,-0.14283,0
12690,-1.37414,0.689611,-0.151616,0
12710,-1.3451,0.684742,-0.155616,0
12730,-1.31064,0.677365,-0.158968,0
12750,-1.27642,0.668387,-0.161014,0
12770,-1.24266,0.650734,-0.161139,0
12790,-1.20941,0.627642,-0.16978,0
12810,-1.19023,0.58561,-0.185315,0
12830,-1.17929,0.515273,-0.198373,0
12850,-1.15485,0.426877,-0.208817,0
12870,-1.13184,0.333637,-0.216038,0
12890,-1.11033,0.234179,-0.217793,0
12910,-1.08147,0.13162,-0.213944,0
12930,-1.04622,0.0369124,-0.206737,0
12950,-1.02076,-0.0510343,-0.198035,0
12970,-1.00258,-0.343913,0.051121,0
12990,-1.03986,-0.355748,0.104551,0
13010,-1.07903,-0.362932,0.160905,0
13030,-1.12645,-0.361235,0.221878,0
13050,-1.19452,-0.351201,0.290051,0
13070,-1.27127,-0.333668,0.359488,0
13090,-1.35367,-0.309439,0.425981,0
13110,-1.44401,-0.278532,0.483852,0
13130,-1.53381,-0.241139,0.53089,0
13150,-1.61514,-0.195655,0.567417,0
13170,-1.68164,-0.145732,0.596245,0
13190,-1.74112,-0.0944034,0.616434,0
13210,-1.80176,-0.0462567,0.627619,0
13230,-1.86512,-0.00211927,0.629582,0
13250,-1.92859,0.0368759,0.625275,0
13270,-1.9891,0.0681351,0.617743,0
13290,-2.0348,0.0900096,0.607911,0
13310,-2.06062,0.10945,0.598533,0
13330,-2.08523,0.126937,0.587228,0
13350,-2.11722,0.140756,0.576015,0
13370,-2.15075,0.150004,0.567124,0
13390,-2.18775,0.155281,0.557613,0
13410,-2.22495,0.160384,0.54732,0
13430,-2.2506,0.168811,0.536683,0
13450,-2.26979,0.180832,0.52377,0
13470,-2.28501,0.194699,0.510298,0
13490,-2.29471,0.206662,0.497545,0
13510,-2.3049,0.218559,0.484741,0
13530,-2.31945,0.231594,0.472432,0
13550,-2.33324,0.245857,0.462324,0
13570,-2.34551,0.26043,0.452271,0
13590,-2.35574,0.275006,0.44153,0
13610,-2.36264,0.289453,0.430348,0
13630,-2.36091,0.304718,0.418733,0
13650,-2.35612,0.31888,0.404966,0
13670,-2.3546,0.331003,0.388841,0
13690,-2.34939,0.340065,0.372439,0
13710,-2.34299,0.344788,0.355113,0
13730,-2.33209,0.348299,0.336958,0
13750,-2.31468,0.351059,0.317606,0
13770,-2.29728,0.354021,0.295564,0
13790,-2.27853,0.354782,0.275698,0
13810,-2.26333,0.35245,0.260037,0
13830,-2.24944,0.35003,0.253231,0
13850,-2.21748,0.336849,0.240375,0
13870,-2.16834,0.326112,0.220911,0
13890,-2.1228,0.320387,0.195407,0
13910,-2.07616,0.311509,0.165925,0
13920,-2.02854,0.301464,0.133264,0
13940,-1.93318,0.292332,0.0619289,0
13960,-1.8871,0.290245,0.031306,0
13980,-1.84104,0.28773,0.00621044,0
14000,-1.73935,0.282595,-0.0225415,0
14010,-1.68254,0.27929,-0.02532,0
14030,-1.62336,0.274141,-0.0238198,0
14050,-1.56,0.265465,-0.0202429,0
14070,-1.49687,0.255099,-0.017345,0
14090,-1.43505,0.24364,-0.0168297,0
14110,-1.37476,0.231084,-0.0180417,0
14140,-1.27274,0.205988,-0.0254752,0
14160,-1.22218,0.192266,-0.0295267,0
14180,-1.1772,0.177877,-0.0288649,0
14200,-1.14111,0.163955,-0.027441,0
14250,-1.04796,0.102867,0.00642802,0
14270,-1.03545,0.0935522,0.0206588,0
14290,-1.02417,0.0880006,0.0386806,0
14330,-0.973165,0.170466,0.0739133,0
14350,-0.952906,0.208276,0.0779718,0
14370,-0.940775,0.25169,0.0791962,0
14390,-0.945731,0.30192,0.0748544,0
14410,-0.964978,0.351267,0.0627425,0
14430,-0.990662,0.406014,0.045503,0
14450,-1.01769,0.468117,0.0255616,0
14470,-1.04624,0.533523,-0.000405664,0
14490,-1.07488,0.597054,-0.0354797,0
14510,-1.10117,0.655832,-0.0774734,0
14530,-1.11859,0.688092,-0.0827806,0
14550,-1.10807,0.672224,-0.0776988,0
14570,-1.14527,0.654387,-0.0891921,0
14590,-1.16221,0.629496,-0.0799395,0
14610,-1.15507,0.60677,-0.0640059,0
14630,-1.13259,0.601626,-0.0516093,0
14650,-1.09908,0.607076,-0.0326592,0
14670,-1.05257,0.621099,-0.00711434,0
14690,-1.01011,0.626887,0.0116726,0
14710,-0.987041,0.620362,0.0264773,0
14730,-0.980719,0.602903,0.0368317,0
14750,-1.00095,0.594448,0.0312344,0
14770,-1.03338,0.592411,0.0226923,0
14790,-1.05942,0.588589,0.0133953,0
14810,-1.06948,0.585454,0.00571452,0
14830,-1.06508,0.587024,0.0029685,0
14850,-1.05744,0.592939,0.00178964,0
14870,-1.05422,0.600801,0.00103831,0
14890,-1.05336,0.6074,0.00146438,0
14910,-1.04921,0.612817,0.00750922,0
14930,-1.04703,0.617957,0.0214645,0
14950,-1.05961,0.623163,0.0331381,0
14970,-1.08246,0.62588,0.0357159,0
14990,-1.10317,0.627195,0.0320864,0
15010,-1.11262,0.626794,0.0262634,0
15030,-1.10778,0.625032,0.0224114,0
15050,-1.0963,0.622748,0.0186845,0
15060,-1.08487,0.620446,0.0145312,0
15080,-1.07599,0.617721,0.0111853,0
15100,-1.0694,0.614867,0.00955934,0
15120,-1.06564,0.61253,0.00932282,0
15140,-1.06438,0.611394,0.00932514,0
15160,-1.06533,0.611568,0.00879736,0
15180,-1.0677,0.612096,0.00817955,0
15200,-1.06997,0.612647,0.00787739,0
15220,-1.07144,0.613737,0.00851375,0
15240,-1.07314,0.61516,0.00930674,0
15260,-1.07523,0.616152,0.00981,0
15280,-1.07768,0.616426,0.00973893,0
15300,-1.08025,0.616559,0.00934695,0
15320,-1.08274,0.616571,0.00855282,0
15340,-1.08521,0.616812,0.00743151,0
15360,-1.08839,0.617684,0.00657097,0
15380,-1.09362,0.619329,0.00612142,0
15400,-1.10242,0.622966,0.0057611,0
15420,-1.1152,0.626775,0.00772636,0
15440,-1.1293,0.630957,0.0113609,0
15460,-1.1399,0.634947,0.0145248,0
15480,-1.15287,0.635007,0.0208245,0
15500,-1.15832,0.626636,0.0362581,0
15520,-1.15254,0.605765,0.0561271,0
15540,-1.13926,0.572139,0.0737789,0
15560,-1.12644,0.527807,0.0963031,0
15580,-1.12191,0.468698,0.12007,0
15600,-1.12146,0.39584,0.14093,0
15620,-1.12323,0.309091,0.162238,0
15640,-1.12946,0.217933,0.18422,0
15660,-1.12673,0.12668,0.204936,0
15680,-1.11424,0.0377648,0.2258,0
15700,-1.10039,-0.041796,0.244492,0
15720,-1.09496,-0.106263,0.260311,0
15740,-1.10037,-0.156493,0.274981,0
15760,-1.11446,-0.198346,0.288046,0
15780,-1.13244,-0.22982,0.301572,0
15800,-1.14622,-0.253821,0.310712,0
15820,-1.16074,-0.27073,0.320304,0
15840,-1.17618,-0.284664,0.327397,0
15860,-1.19631,-0.295057,0.331801,0
15880,-1.21444,-0.296645,0.3327,0
15900,-1.22124,-0.290334,0.330145,0
15920,-1.21686,-0.284532,0.327741,0
15940,-1.21287,-0.278199,0.324953,0
15960,-1.2123,-0.269897,0.3209,0
15980,-1.21201,-0.264792,0.315746,0
16000,-1.2147,-0.265037,0.310418,0
16020,-1.21866,-0.267911,0.306516,0
16040,-1.21856,-0.271361,0.304437,0
16060,-1.21486,-0.275023,0.305244,0
16080,-1.21221,-0.280583,0.308375,0
16100,-1.21321,-0.287862,0.311656,0
16120,-1.21908,-0.293976,0.314461,0
16140,-1.22876,-0.298476,0.317749,0
16160,-1.23862,-0.30111,0.320568,0
16180,-1.24635,-0.302161,0.322468,0
16200,-1.25076,-0.302862,0.323555,0
16220,-1.25429,-0.303975,0.324846,0
16240,-1.25757,-0.30474,0.325524,0
16260,-1.25982,-0.304957,0.32524,0
16280,-1.26068,-0.304954,0.324995,0
16300,-1.26167,-0.304701,0.325519,0
16320,-1.26308,-0.304806,0.326134,0
16340,-1.26522,-0.305085,0.326463,0
16360,-1.26828,-0.305223,0.326931,0
16380,-1.27122,-0.305299,0.32703,0
16400,-1.2739,-0.305588,0.327068,0
16420,-1.2763,-0.305872,0.327165,0
16440,-1.27722,-0.30494,0.32641,0
16460,-1.27782,-0.303378,0.325069,0
16480,-1.27923,-0.300752,0.323326,0
16500,-1.28149,-0.29721,0.322165,0
16520,-1.28337,-0.293219,0.321181,0
16540,-1.28434,-0.288605,0.319622,0
16560,-1.28554,-0.284995,0.319038,0
16580,-1.28776,-0.282218,0.319193,0
16600,-1.29036,-0.279028,0.319434,0
16620,-1.2927,-0.276375,0.32047,0
16640,-1.2951,-0.27452,0.321505,0
16660,-1.29797,-0.272888,0.322383,0
16680,-1.30135,-0.27136,0.323305,0
16700,-1.30549,-0.269611,0.323795,0
16720,-1.3082,-0.266684,0.323447,0
16740,-1.30866,-0.26314,0.323445,0
16760,-1.30773,-0.259338,0.323672,0
16780,-1.30748,-0.254952,0.324676,0
16800,-1.30655,-0.250544,0.325518,0
16820,-1.30465,-0.247109,0.32642,0
16840,-1.30327,-0.244475,0.327292,0
16860,-1.30298,-0.242758,0.327906,0
16880,-1.30401,-0.241734,0.328752,0
16900,-1.30508,-0.240707,0.328531,0
16920,-1.30562,-0.239563,0.327466,0
16940,-1.30683,-0.238186,0.326228,0
16960,-1.30798,-0.236846,0.324083,0
16980,-1.30881,-0.23585,0.32089,0
17000,-1.30902,-0.234881,0.317552,0
17010,-1.30794,-0.233387,0.315213,0
17030,-1.30356,-0.232769,0.314328,0
17050,-1.29883,-0.233052,0.3142,0
17070,-1.2979,-0.233572,0.313606,0
17090,-1.30027,-0.234461,0.31301,0
17110,-1.30501,-0.235421,0.311762,0
17130,-1.3093,-0.235508,0.310213,0
17150,-1.31264,-0.23418,0.309352,0
17170,-1.31392,-0.232383,0.308705,0
17190,-1.31451,-0.230094,0.308304,0
17210,-1.31531,-0.227107,0.308178,0
17230,-1.31539,-0.224238,0.307522,0
17250,-1.31546,-0.221843,0.306908,0
17270,-1.31547,-0.219674,0.306447,0
17290,-1.31528,-0.217815,0.306194,0
17310,-1.3142,-0.216097,0.306639,0
17330,-1.31203,-0.21417,0.307288,0
17350,-1.31031,-0.212884,0.30853,0
17370,-1.31024,-0.212017,0.309863,0
17390,-1.30969,-0.21097,0.30985,0
17410,-1.30832,-0.210032,0.310201,0
17430,-1.30649,-0.209154,0.311295,0
17450,-1.30368,-0.208879,0.312157,0
17470,-1.3009,-0.208996,0.31271,0
17490,-1.30027,-0.20974,0.313905,1000
17510,-1.29976,-0.211163,0.31565,0
17530,-1.30055,-0.212626,0.316959,0
17550,-1.30267,-0.213238,0.318222,0
17570,-1.30454,-0.214092,0.320066,0
17590,-1.30537,-0.214627,0.321138,0
17610,-1.30597,-0.215174,0.322464,0
17630,-1.30603,-0.215923,0.323984,0
17650,-1.30579,-0.216724,0.326093,0
17670,-1.30561,-0.217406,0.328582,0
17690,-1.30595,-0.218183,0.3319,0
17710,-1.30639,-0.2194,0.335099,0
17730,-1.3077,-0.221044,0.338232,0
17750,-1.30977,-0.222621,0.341351,0
17770,-1.31041,-0.22435,0.344697,0
17790,-1.30843,-0.227833,0.348769,0
17810,-1.30712,-0.232207,0.352615,0
17830,-1.30755,-0.235858,0.357251,0
17850,-1.30817,-0.239172,0.361681,0
17870,-1.30755,-0.242758,0.365696,0
17890,-1.30743,-0.246117,0.370594,0
17910,-1.30722,-0.248822,0.375739,0
17930,-1.30788,-0.252336,0.38143,0
17950,-1.30978,-0.25667,0.386719,0
17970,-1.31204,-0.261271,0.391687,0
17990,-1.31445,-0.265475,0.397524,0
18010,-1.31658,-0.269812,0.403703,0
18030,-1.31662,-0.275223,0.410454,0
18050,-1.31819,-0.280918,0.418188,0
18070,-1.32036,-0.285312,0.425416,0
18090,-1.32133,-0.289994,0.433308,0
18110,-1.32383,-0.296028,0.442457,0
18130,-1.32693,-0.303365,0.451782,0
18150,-1.33014,-0.310634,0.460643,0
18170,-1.33404,-0.317415,0.468946,0
18190,-1.33895,-0.325017,0.476736,0
18210,-1.34365,-0.333257,0.482972,0
18230,-1.34808,-0.340787,0.48845,0
18250,-1.35025,-0.347372,0.494155,0
18270,-1.35024,-0.353411,0.50034,0
18290,-1.34987,-0.359426,0.506676,0
18310,-1.35041,-0.36597,0.512219,0
18330,-1.35199,-0.373342,0.516973,0
18350,-1.3558,-0.381146,0.521547,0
18370,-1.36047,-0.388923,0.52614,0
18390,-1.36561,-0.402654,0.532249,0
18410,-1.36793,-0.409823,0.535194,0
18430,-1.36982,-0.416834,0.537538,0
18450,-1.3713,-0.423797,0.539656,0
18470,-1.37409,-0.430356,0.541406,0
18490,-1.37845,-0.43701,0.542939,0
18510,-1.38339,-0.444231,0.543313,0
18530,-1.38731,-0.451683,0.542863,0
18550,-1.39026,-0.458962,0.542164,0
18570,-1.39258,-0.466365,0.540987,0
18590,-1.39515,-0.474216,0.539507,0
18610,-1.39903,-0.482052,0.537694,0
18630,-1.40508,-0.48937,0.535124,0
18650,-1.41111,-0.496088,0.530934,0
18670,-1.41449,-0.503136,0.526631,0
18690,-1.41703,-0.51047,0.522339,0
18710,-1.42071,-0.516248,0.516773,0
18730,-1.42656,-0.521304,0.512056,0
18750,-1.43378,-0.526876,0.507632,0
18770,-1.44023,-0.532672,0.50204,0
18790,-1.44526,-0.537147,0.495001,0
18810,-1.45071,-0.540616,0.488838,0
18830,-1.45737,-0.543559,0.482924,0
18850,-1.46335,-0.54655,0.475101,0
18870,-1.46999,-0.548491,0.466538,0
18890,-1.47657,-0.549914,0.457525,0
18910,-1.48248,-0.550981,0.448436,0
18930,-1.48917,-0.550416,0.440011,0
18950,-1.49707,-0.548342,0.431988,0
18970,-1.50586,-0.545862,0.423932,0
18990,-1.5144,-0.543703,0.414815,0
19010,-1.52278,-0.541717,0.404212,0
19030,-1.5314,-0.540233,0.392325,0
19050,-1.53932,-0.53908,0.379376,0
19070,-1.54647,-0.538342,0.365156,0
19090,-1.55257,-0.537852,0.350333,0
19110,-1.5582,-0.537234,0.334222,0
19130,-1.56367,-0.53626,0.31727,0
19150,-1.56944,-0.535028,0.299688,0
19170,-1.5746,-0.53319,0.281126,0
19190,-1.57844,-0.530754,0.261483,0
19210,-1.58144,-0.529526,0.242332,0
19230,-1.58441,-0.529032,0.222781,0
19250,-1.58617,-0.528251,0.202539,0
19270,-1.5874,-0.528065,0.183551,0
19290,-1.58737,-0.528486,0.164896,0
19310,-1.58656,-0.527961,0.145998,0
19330,-1.58571,-0.527245,0.127129,0
19350,-1.5868,-0.525238,0.108393,0
19370,-1.58579,-0.521907,0.0898658,0
19390,-1.58162,-0.517941,0.0707384,0
19410,-1.57732,-0.513182,0.0504224,0
19430,-1.575,-0.507985,0.0301565,0
19450,-1.57358,-0.50271,0.00882914,0
19470,-1.57147,-0.496147,-0.0118569,0
19490,-1.56867,-0.488076,-0.0316823,0
19510,-1.56475,-0.478247,-0.0501561,0
19530,-1.56014,-0.467705,-0.0680498,0
19550,-1.55778,-0.456228,-0.0846822,0
19570,-1.55752,-0.443333,-0.0994171,0
19590,-1.55665,-0.428906,-0.112161,0
19610,-1.55163,-0.413098,-0.12421,0
19630,-1.54554,-0.397024,-0.135145,0
19650,-1.54476,-0.381981,-0.145828,0
19670,-1.55068,-0.368705,-0.156526,0
19690,-1.55816,-0.35572,-0.167431,0
19710,-1.56099,-0.341977,-0.177365,0
19730,-1.55954,-0.328142,-0.186571,0
19750,-1.55758,-0.315203,-0.195023,0
19770,-1.55845,-0.303153,-0.2021,0
19790,-1.56013,-0.292327,-0.208285,0
19810,-1.56042,-0.281796,-0.213214,0
19830,-1.55872,-0.27122,-0.217514,0
19850,-1.55966,-0.262067,-0.221066,0
19870,-1.56317,-0.254083,-0.224642,0
19890,-1.56587,-0.246283,-0.227939,0
19910,-1.56687,-0.238289,-0.230746,0
19930,-1.56597,-0.229982,-0.23265,0
19950,-1.56283,-0.222192,-0.233844,0
19970,-1.55954,-0.215779,-0.234523,0
19990,-1.55874,-0.210274,-0.235729,0
20010,-1.56007,-0.204756,-0.236621,0
20030,-1.56124,-0.198865,-0.236671,0
20050,-1.55942,-0.192526,-0.235168,0
20070,-1.55648,-0.187714,-0.231788,0
20090,-1.55385,-0.184349,-0.228036,0
20110,-1.55452,-0.182496,-0.224279,0
20130,-1.55727,-0.181132,-0.220261,0
20150,-1.5588,-0.1798,-0.215831,0
20170,-1.55876,-0.178038,-0.211802,0
20190,-1.55929,-0.174509,-0.207936,0
20210,-1.56034,-0.170594,-0.203624,0
20230,-1.56263,-0.166807,-0.200238,0
20250,-1.56389,-0.161958,-0.197381,0
20270,-1.56395,-0.156819,-0.194963,0
20290,-1.5631,-0.152985,-0.192121,0
20310,-1.56261,-0.148844,-0.189585,0
20330,-1.56127,-0.144276,-0.187117,0
20350,-1.55872,-0.139606,-0.185056,0
20370,-1.55585,-0.134651,-0.183283,0
20380,-1.55455,-0.129411,-0.181123,0
20400,-1.55585,-0.124667,-0.179422,0
20420,-1.55616,-0.119573,-0.178726,0
20440,-1.55562,-0.113538,-0.177551,0
20460,-1.55491,-0.107058,-0.17526,0
20480,-1.55247,-0.100868,-0.173306,0
20500,-1.55008,-0.0944246,-0.171774,0
20520,-1.54904,-0.0883636,-0.169575,0
20540,-1.55054,-0.0827054,-0.166724,0
20560,-1.55304,-0.0775522,-0.16345,0
20580,-1.55415,-0.0727208,-0.160143,0
20600,-1.55592,-0.0683733,-0.156566,0
20620,-1.55673,-0.0651655,-0.152174,0
20640,-1.55506,-0.0633315,-0.147363,0
20660,-1.55286,-0.0619905,-0.142567,0
20680,-1.55079,-0.0607646,-0.136644,0
20700,-1.55009,-0.059561,-0.13007,0
20720,-1.55319,-0.0581596,-0.123823,0
20740,-1.55752,-0.0562121,-0.117099,0
20760,-1.56254,-0.0541021,-0.109681,0
20780,-1.56739,-0.0523802,-0.101679,0
20800,-1.57002,-0.0500007,-0.093391,0
20820,-1.57023,-0.0471506,-0.0841365,0
20840,-1.57095,-0.0451836,-0.0733145,0
20860,-1.57223,-0.0435723,-0.0621427,0
20890,-1.5756,-0.0459463,-0.00886896,0
20910,-1.5779,-0.0488402,0.00552732,0
20930,-1.58075,-0.0529949,0.0200376,0
20950,-1.58503,-0.0570806,0.0354679,0
20970,-1.58712,-0.0615019,0.0512012,0
20990,-1.58455,-0.0662312,0.0667969,0
21010,-1.5839,-0.0723939,0.0829002,0
21030,-1.58784,-0.079561,0.0978169,0
21050,-1.59205,-0.0862462,0.111654,0
21070,-1.59708,-0.092825,0.126261,0
21090,-1.6018,-0.0993704,0.140726,0
21110,-1.60278,-0.105365,0.154935,0
21130,-1.60111,-0.110809,0.169262,0
21150,-1.60221,-0.11682,0.18386,0
21170,-1.60756,-0.123019,0.197099,0
21190,-1.61352,-0.129204,0.209648,0
21210,-1.6195,-0.134805,0.222758,0
21230,-1.62556,-0.139368,0.236326,0
21250,-1.62931,-0.143899,0.248978,0
21270,-1.63152,-0.148696,0.260942,0
21290,-1.63417,-0.153336,0.273576,0
21310,-1.63741,-0.158216,0.286299,0
21330,-1.6391,-0.164729,0.297772,0
21350,-1.63805,-0.172667,0.306898,0
21370,-1.63807,-0.18123,0.314241,0
21390,-1.64135,-0.189007,0.321973,0
21410,-1.64669,-0.196664,0.33092,0
21430,-1.6482,-0.204755,0.339356,0
21450,-1.64748,-0.212248,0.346486,0
21470,-1.64681,-0.218944,0.354201,0
21490,-1.64797,-0.22672,0.362384,0
21510,-1.64983,-0.235729,0.369432,0
21530,-1.65243,-0.245291,0.376113,0
21550,-1.6562,-0.25406,0.384107,0
21570,-1.65936,-0.261469,0.391612,0
21590,-1.66165,-0.26963,0.398739,0
21610,-1.66518,-0.279342,0.406031,0
21630,-1.67008,-0.28893,0.412689,0
21650,-1.67447,-0.299712,0.418904,0
21670,-1.67681,-0.311942,0.424174,0
21690,-1.67809,-0.322996,0.429389,0
21710,-1.67936,-0.332931,0.435254,0
21730,-1.68292,-0.34343,0.442442,0
21750,-1.68802,-0.3557,0.449268,0
21770,-1.69513,-0.368621,0.455137,0
21790,-1.70261,-0.380161,0.460161,0
21810,-1.70955,-0.389773,0.464694,0
21830,-1.71643,-0.399894,0.468373,0
21850,-1.72281,-0.410389,0.469545,0
21870,-1.72935,-0.417578,0.469687,0
21890,-1.73713,-0.422533,0.469876,0
21910,-1.74498,-0.428483,0.469451,0
21930,-1.75285,-0.436721,0.467961,0
21950,-1.763,-0.445458,0.465004,0
21970,-1.77545,-0.453861,0.460315,0
21990,-1.78732,-0.461607,0.454038,0
22010,-1.79711,-0.469587,0.445978,0
22030,-1.80477,-0.477986,0.437236,0
22050,-1.81165,-0.486212,0.42757,0
22070,-1.81781,-0.49254,0.416442,0
22090,-1.82377,-0.498584,0.405142,0
22110,-1.82862,-0.504325,0.394235,0
22130,-1.83234,-0.509568,0.382656,0
22150,-1.83576,-0.514219,0.370005,0
22170,-1.83991,-0.519161,0.357339,0
22190,-1.84484,-0.524189,0.34406,0
22210,-1.85007,-0.529064,0.330447,0
22230,-1.85435,-0.533686,0.316749,0
22250,-1.85814,-0.538127,0.303569,0
22260,-1.8598,-0.542168,0.290176,0
22280,-1.85986,-0.545523,0.276544,0
22300,-1.85949,-0.548152,0.262256,0
22320,-1.86134,-0.550692,0.247643,0
22340,-1.86593,-0.553612,0.232548,0
22360,-1.86925,-0.555895,0.215309,0
22380,-1.87041,-0.557263,0.197372,0
22400,-1.86942,-0.55733,0.178661,0
22420,-1.86628,-0.555483,0.158801,0
22440,-1.86046,-0.552519,0.139001,0
22460,-1.85403,-0.548712,0.120015,0
22480,-1.84688,-0.544695,0.100534,0
22500,-1.84095,-0.540587,0.0809524,0
22520,-1.83621,-0.536502,0.0613468,0
22540,-1.83481,-0.532608,0.0413586,0
22560,-1.83625,-0.529364,0.0203985,0
22580,-1.83845,-0.52596,-0.000305761,0
22600,-1.83752,-0.520577,-0.0205886,0
22620,-1.83125,-0.512814,-0.0399807,0
22640,-1.82314,-0.503946,-0.0577169,0
22660,-1.81604,-0.494943,-0.0742543,0
22680,-1.8109,-0.486265,-0.0888425,0
22700,-1.80871,-0.478278,-0.102036,0
22720,-1.80738,-0.470665,-0.115065,0
22740,-1.80728,-0.46416,-0.127341,0
22760,-1.80644,-0.456836,-0.139304,0
22780,-1.80396,-0.447838,-0.149905,0
22800,-1.79692,-0.438389,-0.160135,0
22820,-1.78789,-0.429773,-0.169836,0
22840,-1.78047,-0.422093,-0.179652,0
22860,-1.77567,-0.414344,-0.189765,0
22880,-1.77333,-0.406912,-0.200357,0
22900,-1.77241,-0.398841,-0.211486,0
22920,-1.76841,-0.388354,-0.222234,0
22940,-1.75931,-0.37825,-0.231715,0
22960,-1.75131,-0.370091,-0.241191,0
22980,-1.74601,-0.36276,-0.250426,0
23000,-1.74375,-0.356047,-0.258371,0
23020,-1.74128,-0.34995,-0.266696,0
23040,-1.73794,-0.344213,-0.274813,0
23060,-1.73491,-0.338219,-0.282763,0
23080,-1.73353,-0.331645,-0.288799,0
23100,-1.73143,-0.324359,-0.293432,0
23120,-1.72841,-0.317046,-0.298478,0
23140,-1.72745,-0.309286,-0.302842,0
23160,-1.72872,-0.302139,-0.306171,0
23180,-1.73005,-0.295578,-0.309015,0
23200,-1.73141,-0.289146,-0.311339,0
23220,-1.73315,-0.281905,-0.312891,0
23240,-1.73474,-0.274479,-0.31363,0
23260,-1.73517,-0.267868,-0.314789,0
23280,-1.73546,-0.262213,-0.315972,0
23300,-1.73781,-0.255798,-0.318424,0
23320,-1.73964,-0.248419,-0.320793,0
23340,-1.74148,-0.241179,-0.322857,0
23360,-1.74309,-0.233127,-0.325875,0
23380,-1.7436,-0.22508,-0.329004,0
23400,-1.7427,-0.217969,-0.331703,0
23420,-1.74141,-0.211935,-0.334458,0
23440,-1.73806,-0.20602,-0.337626,0
23460,-1.73293,-0.200527,-0.340486,0
23480,-1.72838,-0.194993,-0.342829,0
23500,-1.7209,-0.189363,-0.344119,0
23520,-1.71396,-0.184037,-0.3449,0
23540,-1.70841,-0.178395,-0.345195,0
23560,-1.70545,-0.172767,-0.344418,0
23580,-1.70369,-0.168087,-0.342668,0
23600,-1.70159,-0.164068,-0.339927,0
23620,-1.70027,-0.15988,-0.335578,0
23640,-1.69976,-0.156489,-0.330414,0
23660,-1.69905,-0.153939,-0.323891,0
23680,-1.69888,-0.15243,-0.316076,0
23700,-1.70037,-0.151237,-0.307703,0
23720,-1.7022,-0.149945,-0.298516,0
23740,-1.70482,-0.14921,-0.289521,0
23760,-1.70809,-0.148232,-0.280846,0
23780,-1.71038,-0.147755,-0.271886,0
23800,-1.71291,-0.147208,-0.26281,0
23820,-1.71632,-0.146488,-0.254755,0
23840,-1.71789,-0.145275,-0.24713,0
23860,-1.71715,-0.143279,-0.237755,0
23880,-1.71521,-0.142062,-0.227818,0
23900,-1.71333,-0.141676,-0.21809,0
23920,-1.71316,-0.141905,-0.20796,0
23940,-1.71456,-0.141811,-0.197145,0
23960,-1.71502,-0.142232,-0.185317,0
23980,-1.71462,-0.143281,-0.173693,0
24000,-1.71395,-0.144892,-0.161604,0
24020,-1.71338,-0.146802,-0.149761,0
24040,-1.71331,-0.148582,-0.137888,0
24060,-1.71464,-0.150536,-0.125844,0
24080,-1.71606,-0.151778,-0.114786,0
24100,-1.71665,-0.153375,-0.103495,0
24120,-1.7179,-0.155163,-0.0919826,0
24140,-1.71827,-0.156119,-0.080499,0
24160,-1.71692,-0.157827,-0.0683971,0
24180,-1.71569,-0.160003,-0.056358,0
24200,-1.71476,-0.16231,-0.0445434,0
24220,-1.71401,-0.164851,-0.0320933,0
24240,-1.71421,-0.167631,-0.0189393,0
24260,-1.71492,-0.17052,-0.0059885,0
24280,-1.71525,-0.173659,0.00703914,0
24300,-1.71958,-0.177449,0.0206451,0
24320,-1.72823,-0.18133,0.0341606,0
24340,-1.73796,-0.185958,0.0475549,0
24360,-1.74782,-0.19014,0.0609716,0
24380,-1.75888,-0.194143,0.0747305,0
24400,-1.768,-0.198027,0.0880861,0
24420,-1.77383,-0.201865,0.101401,0
24440,-1.77702,-0.206693,0.114058,0
24460,-1.78053,-0.211039,0.12602,0
24480,-1.78328,-0.2148,0.137774,0
24500,-1.78603,-0.218892,0.150547,0
24520,-1.78954,-0.223478,0.16263,0
24540,-1.79237,-0.228527,0.174182,0
24560,-1.79853,-0.232943,0.18655,0
24580,-1.80581,-0.236324,0.19977,0
24600,-1.81118,-0.239889,0.21466,0
24620,-1.81314,-0.242929,0.230467,0
24640,-1.813,-0.2462,0.247013,0
24660,-1.81556,-0.251218,0.262967,0
24680,-1.82347,-0.256889,0.278074,0
24700,-1.83171,-0.262079,0.293068,0
24720,-1.83657,-0.266804,0.307908,0
24740,-1.83823,-0.270928,0.321406,0
24750,-1.83996,-0.275095,0.334596,0
24770,-1.8433,-0.280174,0.346982,0
24790,-1.84817,-0.286274,0.358145,0
24810,-1.85483,-0.292763,0.369115,0
24830,-1.85905,-0.298481,0.379683,0
24850,-1.8601,-0.302995,0.389697,0
24870,-1.86069,-0.308249,0.39951,0
24890,-1.86404,-0.315684,0.406841,0
24910,-1.87425,-0.324903,0.412014,0
24930,-1.89062,-0.334301,0.416152,0
24950,-1.90465,-0.342199,0.420962,0
24970,-1.91118,-0.348339,0.426307,0
24990,-1.91238,-0.353259,0.430939,0
25010,-1.91153,-0.357954,0.433917,0
25030,-1.9141,-0.363425,0.436813,0
25050,-1.92239,-0.370599,0.439389,0
25070,-1.93224,-0.377335,0.441123,0
25090,-1.94076,-0.383144,0.442051,0
25110,-1.94803,-0.387582,0.442151,0
25130,-1.95479,-0.391746,0.442106,0
25150,-1.9635,-0.396886,0.441792,0
25170,-1.97579,-0.401609,0.44086,0
25190,-1.99206,-0.406904,0.439313,0
25210,-2.00897,-0.413488,0.435809,0
25230,-2.02431,-0.420517,0.430862,0
25250,-2.03735,-0.427115,0.425391,0
25270,-2.04738,-0.432849,0.418023,0
25290,-2.05407,-0.438048,0.409828,0
25310,-2.05876,-0.443591,0.400847,0
25330,-2.0631,-0.449483,0.39032,0
25350,-2.06865,-0.455254,0.379465,0
25370,-2.07516,-0.460174,0.368197,0
25390,-2.08094,-0.464583,0.355851,0
25410,-2.08584,-0.468802,0.343004,0
25430,-2.08974,-0.472552,0.329401,0
25450,-2.09193,-0.475757,0.315322,0
25470,-2.09385,-0.478926,0.300967,0
25490,-2.0965,-0.481096,0.286424,0
25510,-2.09777,-0.481995,0.271781,0
25530,-2.09912,-0.483651,0.257543,0
25550,-2.101,-0.486649,0.242388,0
25570,-2.10216,-0.490706,0.226701,0
25590,-2.1014,-0.494637,0.21089,0
25610,-2.09762,-0.498243,0.195088,0
25630,-2.09073,-0.502049,0.179251,0
25640,-2.08393,-0.506859,0.163081,0
25660,-2.0791,-0.510794,0.147016,0
25680,-2.07391,-0.513808,0.131501,0
25700,-2.06761,-0.516067,0.116121,0
25720,-2.06113,-0.518607,0.100034,0
25740,-2.05498,-0.520382,0.0842723,0
25760,-2.04987,-0.521779,0.0687978,0
25780,-2.04482,-0.522948,0.0525459,0
25800,-2.03793,-0.523137,0.0369893,0
25820,-2.02912,-0.522213,0.0221647,0
25840,-2.01877,-0.520475,0.00725364,0
25860,-2.00996,-0.519224,-0.00699969,0
25880,-2.00457,-0.518804,-0.0210474,0
25900,-2.00206,-0.518057,-0.0356233,0
25920,-2.00029,-0.517849,-0.0500325,0
25940,-1.99785,-0.518703,-0.0657644,0
25960,-1.99398,-0.51919,-0.0824484,0
25980,-1.9891,-0.517942,-0.0990415,0
26000,-1.98291,-0.515231,-0.115542,0
26020,-1.9723,-0.510437,-0.131855,0
26040,-1.95865,-0.504953,-0.147724,0
26060,-1.94633,-0.499604,-0.163177,0
26080,-1.9357,-0.493881,-0.178603,0
26100,-1.92599,-0.487644,-0.193117,0
26120,-1.91449,-0.481486,-0.206706,0
26140,-1.90304,-0.475182,-0.220043,0
26160,-1.89283,-0.468702,-0.231973,0
26180,-1.88431,-0.461963,-0.242534,0
26200,-1.87788,-0.455506,-0.252637,0
26220,-1.87276,-0.449045,-0.262759,0
26240,-1.86833,-0.441971,-0.272996,0
26260,-1.86437,-0.434957,-0.28279,0
26280,-1.86299,-0.429238,-0.292883,0
26300,-1.86427,-0.424135,-0.303226,0
26320,-1.86562,-0.41799,-0.31409,0
26340,-1.86518,-0.410655,-0.324654,0
26360,-1.86085,-0.402389,-0.334833,0
26380,-1.85359,-0.393877,-0.343585,0
26400,-1.84652,-0.385464,-0.351425,0
26420,-1.84138,-0.377306,-0.358662,0
26440,-1.83735,-0.369617,-0.365869,0
26460,-1.83452,-0.363075,-0.372715,0
26480,-1.83446,-0.357394,-0.378497,0
26500,-1.8356,-0.350173,-0.3832,0
26520,-1.83348,-0.342335,-0.387387,0
26540,-1.83019,-0.335545,-0.389178,0
26560,-1.82951,-0.329198,-0.390153,0
26580,-1.82987,-0.324051,-0.390533,0
26600,-1.82916,-0.31972,-0.390121,0
26620,-1.82764,-0.315133,-0.388737,0
26640,-1.82511,-0.311264,-0.386884,0
26660,-1.81906,-0.308097,-0.38636,0
26680,-1.81116,-0.302943,-0.386562,0
26700,-1.80299,-0.296507,-0.384953,0
26720,-1.79439,-0.290617,-0.381942,0
26740,-1.78856,-0.285832,-0.379295,0
26760,-1.78324,-0.282789,-0.377418,0
26780,-1.78041,-0.279918,-0.375581,0
26800,-1.78032,-0.276497,-0.374079,0
26820,-1.77797,-0.271887,-0.37241,0
26840,-1.77255,-0.266885,-0.370296,0
26860,-1.76656,-0.262166,-0.368399,0
26880,-1.7622,-0.256725,-0.365697,0
26900,-1.75831,-0.251843,-0.361573,0
26920,-1.7534,-0.24838,-0.357459,0
26940,-1.74969,-0.244804,-0.353225,0
26960,-1.74746,-0.240377,-0.348949,0
26980,-1.74316,-0.236586,-0.344146,0
27000,-1.73695,-0.233831,-0.337981,0
27020,-1.73325,-0.230213,-0.332276,0
27040,-1.73069,-0.22688,-0.326381,0
27060,-1.72702,-0.224816,-0.318928,0
27080,-1.72484,-0.222424,-0.309655,0
27100,-1.72402,-0.220582,-0.299867,0
27120,-1.72237,-0.219381,-0.288727,0
27140,-1.72002,-0.219414,-0.274615,0
27160,-1.71838,-0.220157,-0.259951,0
27180,-1.71742,-0.22108,-0.24499,0
27200,-1.71797,-0.223904,-0.228262,0
27220,-1.72086,-0.227085,-0.211525,0
27240,-1.72281,-0.229497,-0.192571,0
27260,-1.7233,-0.231816,-0.17239,0
27280,-1.72237,-0.234561,-0.152363,0
27300,-1.72273,-0.238184,-0.132845,0
27320,-1.72399,-0.242366,-0.113963,0
27340,-1.72775,-0.24746,-0.0949685,0
27360,-1.72979,-0.251873,-0.0766612,0
27380,-1.72932,-0.254801,-0.0576319,0
27400,-1.72857,-0.258666,-0.0381215,0
27420,-1.7292,-0.263227,-0.0199453,0
27440,-1.73158,-0.267608,-0.00330281,0
27460,-1.73615,-0.271398,0.0128405,0
27480,-1.73949,-0.27577,0.0288029,0
27500,-1.74008,-0.280594,0.0435612,0
27520,-1.74075,-0.28405,0.0580477,0
27540,-1.74359,-0.287426,0.0741687,0
27560,-1.74403,-0.292873,0.0900733,0
27580,-1.74082,-0.298811,0.104073,0
27590,-1.73984,-0.303469,0.1183,0
27610,-1.74147,-0.30851,0.134306,0
27630,-1.74137,-0.31415,0.150991,0
27650,-1.73931,-0.32015,0.167408,0
27670,-1.73948,-0.326572,0.183567,0
27690,-1.74238,-0.333329,0.198761,0
27710,-1.74535,-0.340677,0.212676,0
27730,-1.74752,-0.348579,0.225133,0
27750,-1.75018,-0.354746,0.238258,0
27770,-1.74995,-0.360791,0.252167,0
27790,-1.74449,-0.368864,0.265214,0
27810,-1.74004,-0.376555,0.278058,0
27830,-1.73968,-0.382985,0.29302,0
27850,-1.74185,-0.391885,0.309017,0
27870,-1.74477,-0.406212,0.322227,0
27890,-1.74895,-0.419354,0.331205,0
27910,-1.75563,-0.428672,0.341549,0
27930,-1.76222,-0.440145,0.354506,0
27950,-1.76471,-0.454318,0.365074,0
27970,-1.76392,-0.467342,0.373834,0
27990,-1.76368,-0.479206,0.38369,0
28010,-1.76179,-0.492836,0.392585,0
28030,-1.76138,-0.508248,0.40063,0
28050,-1.76596,-0.522785,0.407557,0
28070,-1.7735,-0.534638,0.414967,0
28090,-1.77684,-0.546414,0.422141,0
28110,-1.77807,-0.560287,0.428192,0
28130,-1.78434,-0.573546,0.432472,0
28150,-1.79225,-0.584728,0.435922,0
28170,-1.79584,-0.595192,0.43749,0
28190,-1.79738,-0.604672,0.43804,0
28210,-1.80015,-0.613232,0.43629,0
28230,-1.80516,-0.622347,0.431349,0
28250,-1.81212,-0.630262,0.425055,0
28270,-1.81909,-0.634083,0.419134,0
28290,-1.82076,-0.633821,0.413095,0
28310,-1.81583,-0.631912,0.40786,0
28330,-1.80816,-0.630645,0.403818,0
28350,-1.80307,-0.630849,0.401351,0
28370,-1.80325,-0.632709,0.400162,0
28390,-1.80674,-0.634707,0.399069,0
28410,-1.80927,-0.63604,0.397977,0
28430,-1.80992,-0.636078,0.397373,0
28450,-1.80867,-0.635719,0.397241,0
28470,-1.80818,-0.636223,0.398362,0
28490,-1.80855,-0.637138,0.399131,0
28510,-1.80939,-0.637741,0.399716,0
28530,-1.81087,-0.638051,0.400957,0
28550,-1.81246,-0.6386,0.401894,0
28570,-1.81192,-0.639249,0.402009,0
28590,-1.81288,-0.63979,0.402824,0
28610,-1.81622,-0.639558,0.403775,0
28630,-1.81977,-0.6394,0.404719,0
28650,-1.8243,-0.639603,0.405905,0
28670,-1.82757,-0.640026,0.40566,0
28690,-1.83017,-0.641058,0.405385,0
28710,-1.83318,-0.641748,0.404733,0
28730,-1.83543,-0.64237,0.402778,0
28750,-1.83628,-0.642915,0.399393,0
28770,-1.83737,-0.643419,0.395053,0
28790,-1.83898,-0.643369,0.390341,0
28810,-1.83911,-0.643743,0.384043,1001
28830,-1.83881,-0.644599,0.376236,0
28850,-1.84108,-0.645546,0.366846,0
28870,-1.84329,-0.645469,0.357525,0
28890,-1.841,-0.643196,0.346176,0
28910,-1.83491,-0.639075,0.335399,0
28930,-1.82629,-0.635877,0.323954,0
28950,-1.81707,-0.634458,0.311028,0
28970,-1.81198,-0.633236,0.297642,0
28990,-1.81083,-0.630601,0.284667,0
29010,-1.80708,-0.625552,0.271464,0
29030,-1.80013,-0.619764,0.260714,0
29050,-1.79196,-0.612073,0.251773,0
29070,-1.78088,-0.606086,0.244471,0
29090,-1.77282,-0.604405,0.239599,0
29110,-1.77243,-0.604294,0.236175,0
29130,-1.77499,-0.603479,0.234812,0
29150,-1.77684,-0.603042,0.236433,0
29170,-1.77691,-0.60213,0.240254,0
29190,-1.77701,-0.600475,0.24504,0
29210,-1.77758,-0.597645,0.252038,0
29230,-1.77876,-0.595949,0.259642,0
29250,-1.78372,-0.594122,0.268267,0
29270,-1.78938,-0.591973,0.277957,0
29290,-1.79377,-0.588629,0.287777,0
29310,-1.79412,-0.581293,0.296806,0
29330,-1.79434,-0.569439,0.306304,0
29350,-1.79063,-0.554642,0.31518,0
29370,-1.78149,-0.538349,0.322693,0
29390,-1.76753,-0.520716,0.329814,0
29410,-1.74958,-0.49996,0.336142,0
29430,-1.73132,-0.477084,0.341058,0
29450,-1.71016,-0.454108,0.345552,0
29470,-1.68703,-0.430139,0.349663,0
29490,-1.65975,-0.405867,0.352773,0
29510,-1.63839,-0.379256,0.356221,0
29530,-1.62016,-0.35126,0.358946,0
29550,-1.599,-0.324123,0.361727,0
29570,-1.58107,-0.296987,0.366463,0
29590,-1.56991,-0.268652,0.37079,0
29610,-1.5605,-0.241365,0.37317,0
29630,-1.55054,-0.216543,0.376546,0
29650,-1.54443,-0.194684,0.382557,0
29670,-1.53853,-0.178172,0.38727,0
29690,-1.53215,-0.16531,0.390019,0
29710,-1.52992,-0.153383,0.393794,0
29730,-1.52906,-0.143099,0.398373,0
29750,-1.52556,-0.135715,0.401643,0
29770,-1.52012,-0.12905,0.403241,0
29790,-1.51364,-0.120172,0.404228,0
29810,-1.5086,-0.112321,0.406412,0
29830,-1.50323,-0.106197,0.408146,0
29850,-1.49873,-0.100138,0.409851,0
29870,-1.49766,-0.0939938,0.411815,0
29890,-1.49953,-0.0881259,0.413722,0
29910,-1.50347,-0.0818818,0.414741,0
29930,-1.50518,-0.0765317,0.416073,0
29950,-1.50324,-0.0716375,0.417997,0
29970,-1.49758,-0.067303,0.420783,0
29990,-1.49056,-0.0641838,0.423718,0
30010,-1.48505,-0.0620579,0.426235,0
30030,-1.4818,-0.0609332,0.428675,0
30050,-1.47995,-0.0615491,0.431005,0
30070,-1.47828,-0.0625519,0.432881,0
30090,-1.47637,-0.0630192,0.435048,0
30110,-1.47406,-0.0637409,0.437355,0
30130,-1.47279,-0.0646227,0.438872,0
30150,-1.47089,-0.0659033,0.439417,0
30170,-1.46875,-0.0669805,0.440562,0
30190,-1.46673,-0.0679539,0.441636,0
30210,-1.46515,-0.0690422,0.442249,0
30230,-1.46373,-0.0703725,0.442609,0
30250,-1.46239,-0.0715652,0.442697,0
30270,-1.46084,-0.0731225,0.442229,0
30290,-1.46093,-0.0752779,0.441683,0
30310,-1.46201,-0.0773943,0.441171,0
30330,-1.46151,-0.0789225,0.44092,0
30350,-1.46069,-0.0798319,0.441377,0
30370,-1.46019,-0.0806077,0.441953,0
30390,-1.45917,-0.0814664,0.442315,0
30410,-1.45848,-0.0823707,0.442621,0
30430,-1.45961,-0.0830329,0.443154,0
30450,-1.46088,-0.0837843,0.444134,0
30470,-1.46125,-0.0841724,0.444572,0
30490,-1.46047,-0.084303,0.445336,0
30510,-1.45938,-0.0843541,0.446282,0
30530,-1.45841,-0.0849683,0.447101,0
30550,-1.45713,-0.0860978,0.447462,0
30570,-1.45691,-0.0868665,0.447766,0
30590,-1.45765,-0.0873677,0.448224,0
30610,-1.45776,-0.0876657,0.449015,0
30630,-1.45685,-0.0876306,0.449429,0
30650,-1.45595,-0.0875174,0.449938,0
30670,-1.45592,-0.0873894,0.450651,0
30690,-1.45562,-0.087844,0.450982,0
30710,-1.45493,-0.0883947,0.451639,0
30730,-1.45444,-0.0884631,0.452242,0
30750,-1.45326,-0.0883415,0.45301,0
30770,-1.45205,-0.0880526,0.453783,0
30790,-1.45207,-0.0878373,0.454763,1000
30810,-1.45262,-0.0877163,0.455782,0
30830,-1.45354,-0.0875314,0.456347,0
30850,-1.45431,-0.0872288,0.457099,0
30870,-1.45431,-0.0868931,0.457467,0
30890,-1.45431,-0.0865573,0.457835,0
30910,-1.45539,-0.0861563,0.457904,0
30930,-1.45611,-0.0851558,0.457863,0
30950,-1.45558,-0.0841587,0.458172,0
30970,-1.45403,-0.0832392,0.458968,0
30990,-1.45229,-0.0829575,0.460278,0
31000,-1.45161,-0.0830212,0.461498,0
31020,-1.45238,-0.0836584,0.46326,0
31040,-1.45321,-0.0843058,0.465209,0
31060,-1.45247,-0.084741,0.467742,0
31080,-1.45262,-0.0851772,0.470495,0
31100,-1.45344,-0.085204,0.473727,0
31120,-1.45341,-0.0855846,0.477722,0
31140,-1.45343,-0.0869792,0.481477,0
31160,-1.45509,-0.0886361,0.485384,0
31180,-1.45668,-0.0898676,0.490086,0
31200,-1.45671,-0.0916025,0.49582,0
31220,-1.45705,-0.0936957,0.501633,0
31240,-1.45851,-0.0964173,0.507648,0
31260,-1.46068,-0.0992534,0.514144,0
31280,-1.46152,-0.102004,0.52122,0
31300,-1.46158,-0.10505,0.529177,0
31320,-1.46283,-0.108881,0.53787,0
31340,-1.46489,-0.113083,0.546322,0
31360,-1.46678,-0.117457,0.554893,0
31380,-1.46848,-0.121613,0.563402,0
31400,-1.46958,-0.125165,0.572547,0
31420,-1.46997,-0.129428,0.581109,0
31440,-1.47068,-0.134257,0.588778,0
31460,-1.47104,-0.139379,0.595914,0
31480,-1.4696,-0.144781,0.6022,0
31500,-1.46719,-0.14954,0.608208,0
31520,-1.46554,-0.154867,0.614142,0
31540,-1.46482,-0.161667,0.620026,0
31560,-1.46395,-0.168824,0.625338,0
31580,-1.46272,-0.175585,0.630829,0
31600,-1.46188,-0.182359,0.636281,0
31620,-1.46174,-0.189641,0.641958,0
31640,-1.46029,-0.197397,0.648382,0
31660,-1.45739,-0.205413,0.655665,0
31680,-1.45568,-0.213127,0.663094,0
31700,-1.45488,-0.221238,0.671246,0
31720,-1.45526,-0.229993,0.679262,0
31740,-1.45555,-0.238398,0.68676,0
31760,-1.45439,-0.245657,0.694144,0
31780,-1.4516,-0.253186,0.701559,0
31800,-1.44959,-0.260836,0.708529,0
31820,-1.4483,-0.268938,0.714059,0
31840,-1.44863,-0.277935,0.718404,0
31860,-1.44976,-0.286496,0.721859,0
31880,-1.44952,-0.294191,0.72461,0
31900,-1.44823,-0.301789,0.726471,0
31920,-1.44796,-0.309596,0.727337,0
31940,-1.45008,-0.317195,0.72641,0
31960,-1.45168,-0.324389,0.724394,0
31980,-1.45025,-0.331345,0.721464,0
32000,-1.44766,-0.338369,0.718844,0
32020,-1.44631,-0.345147,0.715932,0
32040,-1.44704,-0.351983,0.712398,0
32060,-1.44873,-0.359074,0.70754,0
32080,-1.44946,-0.366256,0.701206,0
32100,-1.44871,-0.373372,0.693606,0
32120,-1.44716,-0.380562,0.685693,0
32140,-1.44478,-0.389044,0.676414,0
32160,-1.44242,-0.398505,0.665178,0
32180,-1.44088,-0.407979,0.652471,0
32200,-1.43923,-0.418444,0.638919,0
32220,-1.43722,-0.429922,0.623884,0
32240,-1.43528,-0.441965,0.607091,0
32260,-1.43232,-0.453514,0.587931,0
32290,-1.42282,-0.492397,0.499921,0
32310,-1.41072,-0.512711,0.421406,0
32330,-1.40843,-0.518871,0.395689,0
32350,-1.4067,-0.525061,0.370211,0
32370,-1.40535,-0.530417,0.346616,0
32390,-1.40401,-0.534514,0.325185,0
32410,-1.40143,-0.538855,0.30589,0
32430,-1.3989,-0.542646,0.287898,0
32450,-1.39815,-0.545358,0.271169,0
32470,-1.39783,-0.547422,0.255579,0
32490,-1.39758,-0.547894,0.241928,0
32510,-1.3951,-0.54848,0.22987,0
32530,-1.39271,-0.548642,0.218765,0
32550,-1.39128,-0.547352,0.207923,0
32570,-1.38979,-0.545497,0.198197,0
32590,-1.38749,-0.544359,0.189938,0
32610,-1.3851,-0.543736,0.182264,0
32630,-1.38464,-0.54347,0.1751,0
32650,-1.38528,-0.543347,0.168588,0
32670,-1.38494,-0.54292,0.162718,0
32690,-1.38374,-0.542609,0.157537,0
32710,-1.38233,-0.542624,0.151919,0
32730,-1.3823,-0.542394,0.145239,0
32750,-1.38414,-0.541267,0.138026,0
32770,-1.38427,-0.540061,0.130134,0
32790,-1.38369,-0.539291,0.121003,0
32810,-1.38243,-0.537098,0.109821,0
32830,-1.38106,-0.533676,0.0981003,0
32840,-1.37777,-0.530235,0.085607,0
32860,-1.37298,-0.526193,0.0720906,0
32880,-1.366,-0.521636,0.0570807,0
32900,-1.35921,-0.517429,0.0418634,0
32920,-1.35501,-0.513761,0.0273959,0
32940,-1.35377,-0.509884,0.0145422,0
32960,-1.35288,-0.506399,0.00231614,0
32980,-1.35167,-0.502082,-0.0097275,0
33000,-1.349,-0.495518,-0.0211418,0
33020,-1.34522,-0.488122,-0.030983,0
33040,-1.33959,-0.480347,-0.0394121,0
33060,-1.33439,-0.472604,-0.0473418,0
33080,-1.33134,-0.464975,-0.0556197,0
33100,-1.33031,-0.456492,-0.0640563,0
33120,-1.32963,-0.447812,-0.0721148,0
33140,-1.32718,-0.439872,-0.0797613,0
33160,-1.32473,-0.432105,-0.0872041,0
33180,-1.32219,-0.424814,-0.0942542,0
33200,-1.32212,-0.418237,-0.10113,0
33220,-1.32223,-0.410722,-0.107744,0
33240,-1.32059,-0.403478,-0.112956,0
33260,-1.31783,-0.397686,-0.117723,0
33280,-1.31613,-0.392627,-0.122318,0
33300,-1.31672,-0.387237,-0.126871,0
33320,-1.31683,-0.382005,-0.130539,0
33340,-1.31588,-0.377997,-0.134865,0
33360,-1.31632,-0.374156,-0.139822,0
33380,-1.31576,-0.369958,-0.14519,0
33400,-1.31363,-0.366209,-0.149768,0
33420,-1.31275,-0.362693,-0.1537,0
33440,-1.31274,-0.357448,-0.157559,0
33460,-1.3111,-0.35186,-0.160412,0
33480,-1.30911,-0.34698,-0.161678,0
33500,-1.30891,-0.34233,-0.162525,0
33520,-1.31175,-0.336949,-0.164407,0
33540,-1.31458,-0.331089,-0.165307,0
33560,-1.31455,-0.326173,-0.164768,0
33580,-1.31265,-0.322167,-0.164716,0
33600,-1.31162,-0.318897,-0.165558,0
33620,-1.31191,-0.316325,-0.166575,0
33640,-1.31228,-0.314027,-0.166708,0
33660,-1.31175,-0.312159,-0.166429,0
33680,-1.31203,-0.31019,-0.166014,0
33700,-1.31384,-0.307222,-0.165923,0
33720,-1.31624,-0.303326,-0.165671,0
33740,-1.32038,-0.299691,-0.165725,0
33760,-1.32489,-0.295102,-0.166659,0
33780,-1.32751,-0.288684,-0.167146,0
33800,-1.32861,-0.281725,-0.166946,0
33820,-1.32876,-0.275239,-0.166565,0
33840,-1.32913,-0.269227,-0.166164,0
33860,-1.32976,-0.26364,-0.164457,0
33880,-1.33006,-0.258008,-0.162967,0
33900,-1.32988,-0.253521,-0.16206,0
33920,-1.3327,-0.25041,-0.161622,0
33940,-1.33756,-0.246711,-0.161371,0
33960,-1.33941,-0.242151,-0.160713,0
33980,-1.3375,-0.237971,-0.160005,0
34000,-1.33495,-0.233647,-0.159437,0
34020,-1.33305,-0.229761,-0.158474,0
34040,-1.33355,-0.226601,-0.157122,0
34060,-1.33466,-0.222912,-0.156157,0
34080,-1.33503,-0.218823,-0.154464,0
34100,-1.33527,-0.214549,-0.151967,0
34120,-1.33426,-0.210413,-0.149102,0
34140,-1.33549,-0.206043,-0.145703,0
34160,-1.33895,-0.200751,-0.141513,0
34180,-1.34148,-0.194849,-0.136766,0
34200,-1.34273,-0.189424,-0.131674,0
34220,-1.34417,-0.183938,-0.126511,0
34240,-1.34652,-0.178197,-0.121666,0
34260,-1.34793,-0.172295,-0.116208,0
34280,-1.34957,-0.166518,-0.109733,0
34300,-1.35118,-0.161531,-0.103078,0
34320,-1.35231,-0.156784,-0.0964187,0
34340,-1.35351,-0.153105,-0.0887597,0
34360,-1.35491,-0.150941,-0.0808288,0
34380,-1.35682,-0.149741,-0.0728796,0
34400,-1.3561,-0.14963,-0.0646528,0
34420,-1.35469,-0.150131,-0.0554991,0
34440,-1.35508,-0.151534,-0.046479,0
34460,-1.35612,-0.152986,-0.0378465,0
34480,-1.35878,-0.154023,-0.0291366,0
34500,-1.36394,-0.155296,-0.021288,0
34520,-1.36866,-0.155344,-0.0149192,0
34540,-1.37359,-0.15435,-0.00729737,0
34560,-1.3795,-0.152045,0.00155887,0
34580,-1.38445,-0.149504,0.0101742,0
34600,-1.38847,-0.147755,0.0181053,0
34620,-1.39402,-0.14523,0.025861,0
34640,-1.39893,-0.1421,0.0338623,0
34660,-1.40172,-0.139479,0.0424383,0
34680,-1.404,-0.136587,0.051085,0
34700,-1.40735,-0.133107,0.0594887,0
34710,-1.4123,-0.130545,0.0685142,0
34750,-1.42499,-0.125897,0.0858705,0
34770,-1.42872,-0.123672,0.0946676,0
34790,-1.4329,-0.121873,0.103886,0
34810,-1.43487,-0.121069,0.112473,0
34830,-1.43678,-0.120783,0.121196,0
34850,-1.44145,-0.120453,0.12973,0
34870,-1.44655,-0.120582,0.138261,0
34890,-1.45235,-0.11957,0.146549,0
34910,-1.46064,-0.117413,0.156153,0
34930,-1.46845,-0.115688,0.16613,0
34950,-1.47467,-0.114852,0.175277,0
34970,-1.4825,-0.114173,0.184673,0
34990,-1.4921,-0.113741,0.195286,0
35010,-1.49954,-0.113619,0.206122,0
35030,-1.50494,-0.113645,0.217195,0
35050,-1.51062,-0.114327,0.228805,0
35070,-1.52038,-0.114805,0.241343,0
35090,-1.53073,-0.114949,0.254807,0
35110,-1.53655,-0.115679,0.269164,0
35130,-1.53969,-0.119035,0.284774,0
35150,-1.54377,-0.124713,0.300012,0
35170,-1.5473,-0.130372,0.314145,0
35190,-1.547,-0.136189,0.329194,0
35210,-1.54386,-0.142277,0.344862,0
35230,-1.53902,-0.149051,0.361045,0
35250,-1.53389,-0.156027,0.376238,0
35270,-1.53321,-0.162774,0.391436,0
35290,-1.53582,-0.170082,0.406044,0
35310,-1.53912,-0.178355,0.419442,0
35330,-1.54325,-0.187026,0.432182,0
35350,-1.54757,-0.195193,0.444741,0
35370,-1.54948,-0.203581,0.458029,0
35390,-1.55035,-0.211858,0.471258,0
35410,-1.55286,-0.219401,0.484345,0
35430,-1.55495,-0.226304,0.49724,0
35450,-1.55691,-0.233293,0.510188,0
35470,-1.55999,-0.240296,0.522768,0
35490,-1.56431,-0.247068,0.534756,0
35510,-1.56666,-0.253815,0.546198,0
35530,-1.56715,-0.259519,0.557487,0
35550,-1.56463,-0.264572,0.569492,0
35570,-1.55946,-0.271094,0.581663,0
35590,-1.55521,-0.278691,0.59245,0
35610,-1.55368,-0.286159,0.601729,0
35630,-1.55477,-0.294292,0.611245,0
35650,-1.55288,-0.304998,0.620814,0
35670,-1.54902,-0.316287,0.628587,0
35690,-1.54621,-0.326462,0.636029,0
35710,-1.54479,-0.336448,0.644437,0
35730,-1.54278,-0.347849,0.650879,0
35750,-1.54006,-0.35936,0.655578,0
35770,-1.53965,-0.370107,0.661209,0
35790,-1.54131,-0.380534,0.667349,0
35810,-1.54286,-0.391945,0.67236,0
35830,-1.54477,-0.403845,0.676688,0
35850,-1.54673,-0.415246,0.680401,0
35870,-1.54723,-0.426224,0.684866,0
35890,-1.5471,-0.438042,0.689664,0
35910,-1.54726,-0.451,0.693331,0
35930,-1.54869,-0.464142,0.695465,0
35950,-1.55206,-0.478732,0.69701,0
35970,-1.55607,-0.493249,0.69748,0
35990,-1.55906,-0.505845,0.696284,0
36010,-1.55957,-0.517935,0.693884,0
36030,-1.55705,-0.531025,0.691452,0
36050,-1.55596,-0.545363,0.688666,0
36070,-1.55872,-0.559992,0.685391,0
36090,-1.56337,-0.573143,0.680495,0
36110,-1.56725,-0.585887,0.673975,0
36130,-1.56859,-0.598629,0.665872,0
36150,-1.56811,-0.610816,0.656685,0
36170,-1.56654,-0.622374,0.645937,0
36190,-1.56479,-0.633916,0.633481,0
36210,-1.56213,-0.645495,0.618594,0
36220,-1.55805,-0.656537,0.602377,0
36240,-1.55319,-0.667121,0.58494,0
36260,-1.54735,-0.678006,0.565503,0
36280,-1.5408,-0.687793,0.544403,0
36300,-1.53363,-0.696859,0.521545,0
36320,-1.5256,-0.705984,0.497335,0
36340,-1.51685,-0.714361,0.47281,0
36360,-1.50674,-0.72111,0.447739,0
36380,-1.49662,-0.727921,0.422394,0
36400,-1.48629,-0.734037,0.397137,0
36420,-1.47395,-0.739171,0.372279,0
36440,-1.46185,-0.743968,0.348264,0
36460,-1.45145,-0.747801,0.326937,0
36480,-1.44141,-0.750457,0.306911,0
36500,-1.4296,-0.753401,0.28788,0
36520,-1.4168,-0.756192,0.270513,0
36540,-1.40465,-0.758611,0.254676,0
36560,-1.3941,-0.761945,0.23909,0
36580,-1.38499,-0.766101,0.223607,0
36600,-1.37498,-0.769405,0.208319,0
36620,-1.36192,-0.772163,0.192592,0
36640,-1.34753,-0.775871,0.177965,0
36660,-1.33463,-0.778561,0.164177,0
36680,-1.32479,-0.779349,0.151045,0
36700,-1.31626,-0.77816,0.138351,0
36720,-1.30583,-0.775913,0.125429,0
36740,-1.29649,-0.772741,0.113215,0
36760,-1.28966,-0.767414,0.101984,0
36780,-1.28318,-0.761286,0.0911111,0
36800,-1.27548,-0.754991,0.0809739,0
36820,-1.26891,-0.747764,0.0720674,0
36840,-1.26347,-0.739978,0.0632609,0
36860,-1.2582,-0.732113,0.0542277,0
36880,-1.25267,-0.723361,0.0448185,0
36900,-1.24672,-0.713271,0.0353792,0
36920,-1.24037,-0.702581,0.0273942,0
36940,-1.23207,-0.692178,0.0206854,0
36960,-1.22237,-0.68367,0.0144912,0
36980,-1.21679,-0.676197,0.00898934,0
37000,-1.21421,-0.669218,0.00385017,0
37020,-1.21168,-0.662958,-0.00137029,0
37040,-1.20743,-0.656722,-0.00538848,0
37060,-1.20217,-0.64988,-0.00838685,0
37080,-1.19696,-0.644003,-0.010688,0
37100,-1.19331,-0.639124,-0.0134094,0
37120,-1.19196,-0.633555,-0.0161794,0
37140,-1.1914,-0.626401,-0.0190477,0
37160,-1.18844,-0.618313,-0.0206395,0
37180,-1.18405,-0.610402,-0.0215691,0
37200,-1.18012,-0.602613,-0.0222527,0
37220,-1.17692,-0.5941,-0.0238434,0
37240,-1.17369,-0.585844,-0.0262606,0
37260,-1.17321,-0.577531,-0.0290383,0
37280,-1.17423,-0.568415,-0.0330941,0
37300,-1.17286,-0.557879,-0.0373468,0
37320,-1.16936,-0.548002,-0.0406883,0
37340,-1.1659,-0.539091,-0.0442839,0
37360,-1.16416,-0.529672,-0.0481499,0
37380,-1.16275,-0.519644,-0.0518664,0
37400,-1.15986,-0.509182,-0.0562395,0
37420,-1.15713,-0.498765,-0.0601408,0
37440,-1.15606,-0.488596,-0.0641125,0
37460,-1.15616,-0.478201,-0.069177,0
37480,-1.15737,-0.467194,-0.0740918,0
37500,-1.15761,-0.456335,-0.0783542,0
37520,-1.15641,-0.445961,-0.0830577,0
37540,-1.15678,-0.436268,-0.0876395,0
37560,-1.15809,-0.426313,-0.0919902,0
37580,-1.15824,-0.416797,-0.0961863,0
37600,-1.15878,-0.407721,-0.100473,0
37620,-1.15971,-0.398264,-0.105401,0
37640,-1.16007,-0.388024,-0.111071,0
37660,-1.16173,-0.378541,-0.115503,0
37680,-1.16265,-0.36896,-0.118854,0
37700,-1.15917,-0.360192,-0.122838,0
37720,-1.15563,-0.352392,-0.126714,0
37740,-1.15596,-0.345257,-0.130545,0
37760,-1.15615,-0.338102,-0.134368,0
37780,-1.15543,-0.33135,-0.137931,0
37800,-1.15548,-0.324685,-0.141633,0
37820,-1.15644,-0.31785,-0.145494,0
37840,-1.15722,-0.311069,-0.149921,0
37860,-1.15685,-0.303811,-0.154829,0
37880,-1.15738,-0.295784,-0.159644,0
37900,-1.1583,-0.286498,-0.164224,0
37920,-1.15813,-0.276953,-0.16847,0
37940,-1.1564,-0.26773,-0.172947,0
37960,-1.15597,-0.258959,-0.176868,0
37980,-1.1571,-0.249845,-0.180746,0
38000,-1.15946,-0.240407,-0.184918,0
38020,-1.1646,-0.23189,-0.18822,0
38040,-1.17134,-0.223639,-0.190426,0
38060,-1.17771,-0.214864,-0.192641,0
38080,-1.18493,-0.205904,-0.193973,0
38100,-1.19441,-0.197726,-0.195076,0
38120,-1.2032,-0.189701,-0.196199,0
38140,-1.21112,-0.182342,-0.196814,0
38160,-1.21909,-0.175287,-0.196855,0
38180,-1.22708,-0.168239,-0.195873,0
38190,-1.23492,-0.161874,-0.194471,0
38210,-1.24353,-0.156401,-0.192344,0
38230,-1.25306,-0.151154,-0.189781,0
38250,-1.26134,-0.146839,-0.186121,0
38270,-1.26825,-0.14385,-0.181546,0
38290,-1.27651,-0.141126,-0.176293,0
38310,-1.28401,-0.138348,-0.170768,0
38330,-1.28997,-0.136011,-0.16415,0
38350,-1.2978,-0.133928,-0.157014,0
38370,-1.30736,-0.132118,-0.149639,0
38390,-1.31618,-0.130717,-0.141626,0
38410,-1.32487,-0.129153,-0.132919,0
38430,-1.33204,-0.128269,-0.123824,0
38450,-1.34005,-0.127526,-0.114098,0
38470,-1.34748,-0.127292,-0.103613,0
38490,-1.35439,-0.12703,-0.0917039,0
38510,-1.36029,-0.127542,-0.078823,0
38530,-1.36694,-0.129344,-0.065599,0
38550,-1.37624,-0.131068,-0.0519169,0
38570,-1.3867,-0.133345,-0.0377844,0
38590,-1.39787,-0.137084,-0.023192,0
38610,-1.41245,-0.14051,-0.0083001,0
38630,-1.42551,-0.144022,0.00676827,0
38650,-1.4348,-0.147548,0.0225495,0
38670,-1.44446,-0.151107,0.0385664,0
38690,-1.45332,-0.15503,0.0538375,0
38710,-1.46151,-0.159904,0.0692165,0
38730,-1.47089,-0.165183,0.0841125,0
38750,-1.48038,-0.169891,0.098661,0
38770,-1.4887,-0.174902,0.113674,0
38790,-1.49793,-0.180357,0.128368,0
38810,-1.50592,-0.185419,0.142677,0
38830,-1.51276,-0.190208,0.157201,0
38850,-1.52148,-0.195133,0.172472,0
38870,-1.53025,-0.19943,0.188338,0
38890,-1.53756,-0.204146,0.204635,0
38910,-1.54626,-0.211896,0.220958,0
38930,-1.55828,-0.220376,0.236174,0
38950,-1.57004,-0.227566,0.251569,0
38970,-1.57906,-0.234249,0.268417,0
38990,-1.58389,-0.240981,0.285997,0
39010,-1.58743,-0.249088,0.303348,0
39030,-1.59288,-0.257499,0.319889,0
39050,-1.60225,-0.265717,0.336341,0
39070,-1.61366,-0.273992,0.352505,0
39090,-1.62322,-0.282345,0.368378,0
39110,-1.62981,-0.289557,0.384047,0
39130,-1.6352,-0.296135,0.399673,0
39150,-1.64137,-0.303415,0.415553,0
39170,-1.64793,-0.311458,0.430934,0
39190,-1.65378,-0.319375,0.445309,0
39210,-1.65995,-0.327269,0.459385,0
39230,-1.66518,-0.335018,0.474282,0
39250,-1.66706,-0.343437,0.490607,0
39270,-1.66884,-0.354114,0.507572,0
39290,-1.67533,-0.366981,0.523883,0
39310,-1.68393,-0.380208,0.540303,0
39330,-1.6903,-0.393129,0.556428,0
39350,-1.69426,-0.403824,0.572114,0
39370,-1.69552,-0.413339,0.58762,0
39390,-1.6955,-0.423762,0.602015,0
39410,-1.69763,-0.434081,0.615233,0
39430,-1.7022,-0.442746,0.627984,0
39450,-1.70686,-0.450315,0.640331,0
39470,-1.71072,-0.457914,0.651822,0
39490,-1.71623,-0.466355,0.663205,0
39510,-1.72302,-0.474433,0.673565,0
39530,-1.72808,-0.481401,0.683757,0
39550,-1.73138,-0.488562,0.693951,0
39570,-1.73363,-0.496699,0.703708,0
39590,-1.73667,-0.504824,0.711765,0
39610,-1.74043,-0.51336,0.7196,0
39630,-1.74513,-0.521542,0.728104,0
39650,-1.7482,-0.529086,0.737123,0
39670,-1.75045,-0.536947,0.74525,0
39690,-1.75506,-0.546737,0.75245,0
39710,-1.76235,-0.556378,0.758744,0
39730,-1.76949,-0.564684,0.765597,0
39750,-1.7759,-0.57214,0.772118,0
39770,-1.77978,-0.579724,0.777126,0
39790,-1.78413,-0.58824,0.781309,0
39810,-1.79099,-0.597624,0.784107,0
39830,-1.79948,-0.60747,0.785656,0
39850,-1.80654,-0.6169,0.786309,0
39870,-1.81045,-0.625505,0.785584,0
39890,-1.81329,-0.633657,0.783427,0
39910,-1.81695,-0.642248,0.780759,0
39930,-1.82255,-0.650282,0.776868,0
39950,-1.82813,-0.658389,0.771088,0
39970,-1.83414,-0.667146,0.765127,0
39990,-1.84072,-0.674621,0.758234,0
40010,-1.84565,-0.681373,0.750797,0
40030,-1.84829,-0.688698,0.74257,0
40050,-1.85146,-0.695916,0.734153,0
40070,-1.85598,-0.702904,0.725867,0
40090,-1.85993,-0.710341,0.716214,0
40110,-1.86357,-0.717301,0.705293,0
40130,-1.86729,-0.723584,0.693635,0
40150,-1.86984,-0.729266,0.681145,0
40170,-1.87081,-0.735124,0.667771,0
40190,-1.87173,-0.741685,0.654052,0
40210,-1.87309,-0.748509,0.639785,0
40230,-1.87455,-0.753905,0.624865,0
40250,-1.87416,-0.758674,0.61006,0
40270,-1.87109,-0.764464,0.595273,0
40290,-1.86665,-0.771047,0.57936,0
40310,-1.86326,-0.77701,0.563181,0
40330,-1.86043,-0.782358,0.547235,0
40350,-1.85708,-0.788305,0.530773,0
40370,-1.85254,-0.795302,0.513057,0
40390,-1.84778,-0.801396,0.494899,0
40410,-1.84191,-0.807275,0.476349,0
40430,-1.83437,-0.812679,0.456875,0
40450,-1.82635,-0.817027,0.437521,0
40470,-1.81727,-0.820754,0.417687,0
40490,-1.8076,-0.824318,0.397511,0
40510,-1.79764,-0.827004,0.377745,0
40530,-1.7887,-0.829356,0.358318,0
40550,-1.78031,-0.831562,0.338723,0
40570,-1.77187,-0.832533,0.318676,0
40590,-1.76408,-0.833045,0.299385,0
40610,-1.75586,-0.832456,0.279865,0
40630,-1.74571,-0.830255,0.260797,0
40650,-1.73478,-0.827601,0.243691,0
40670,-1.7246,-0.825418,0.227704,0
40690,-1.71636,-0.822937,0.212102,0
40710,-1.70902,-0.820506,0.196432,0
40730,-1.70188,-0.817898,0.181341,0
40750,-1.69444,-0.815313,0.166501,0
40770,-1.68685,-0.812134,0.152145,0
40790,-1.67842,-0.808213,0.138863,0
40810,-1.66887,-0.80521,0.126019,0
40830,-1.66066,-0.802251,0.113635,0
40850,-1.65312,-0.798788,0.10085,0
40870,-1.64586,-0.796074,0.0880502,0
40890,-1.63917,-0.793291,0.0746093,0
40910,-1.63212,-0.788623,0.0607778,0
40930,-1.62407,-0.782535,0.0479206,0
40950,-1.61789,-0.775955,0.0368622,0
40970,-1.61398,-0.76858,0.026225,0
40990,-1.60996,-0.761887,0.0151289,0
41010,-1.60474,-0.755872,0.00277215,0
41030,-1.60193,-0.749055,-0.00835625,0
41050,-1.59924,-0.742282,-0.0196087,0
41070,-1.59388,-0.736483,-0.0319203,0
41090,-1.58956,-0.72947,-0.0436789,0
41110,-1.58721,-0.721079,-0.0532461,0
41130,-1.58267,-0.712197,-0.0636942,0
41150,-1.57544,-0.7031,-0.0752981,0
41170,-1.57123,-0.694712,-0.0865229,0
41190,-1.5699,-0.686312,-0.098706,0
41210,-1.56856,-0.676873,-0.111246,0
41230,-1.56463,-0.666799,-0.123926,0
41250,-1.5593,-0.656608,-0.136435,0
41270,-1.55473,-0.646629,-0.148803,0
41290,-1.54996,-0.635987,-0.160885,0
41310,-1.5456,-0.625321,-0.172341,0
41330,-1.541,-0.614635,-0.183661,0
41350,-1.53563,-0.604757,-0.195341,0
41370,-1.53189,-0.594653,-0.206475,0
41390,-1.52885,-0.583115,-0.216665,0
41410,-1.52418,-0.571667,-0.227188,0
41430,-1.51921,-0.561355,-0.237931,0
41450,-1.51854,-0.550592,-0.247859,0
41470,-1.5178,-0.53883,-0.25657,0
41490,-1.51297,-0.526997,-0.264804,0
41510,-1.50778,-0.516445,-0.271808,0
41530,-1.50645,-0.506824,-0.277719,0
41550,-1.50582,-0.497484,-0.28365,0
41560,-1.50328,-0.488859,-0.288886,0
41580,-1.50155,-0.480168,-0.292674,0
41600,-1.49953,-0.471519,-0.294975,0
41620,-1.49707,-0.464613,-0.296436,0
41640,-1.49725,-0.458613,-0.297461,0
41660,-1.4994,-0.452548,-0.298782,0
41680,-1.49972,-0.44703,-0.299214,0
41700,-1.49924,-0.441675,-0.29887,0
41720,-1.49881,-0.436419,-0.298255,0
41740,-1.49936,-0.431394,-0.29679,0
41760,-1.50217,-0.426878,-0.294164,0
41780,-1.50463,-0.422493,-0.291471,0
41800,-1.50749,-0.418778,-0.288615,0
41820,-1.51236,-0.415345,-0.285396,0
41840,-1.51865,-0.411655,-0.282169,0
41860,-1.52332,-0.407196,-0.278555,0
41880,-1.52693,-0.402397,-0.274231,0
41900,-1.52963,-0.397661,-0.27017,0
41920,-1.53276,-0.393681,-0.265702,0
41940,-1.53713,-0.39004,-0.261754,0
41960,-1.54165,-0.386848,-0.258381,0
41980,-1.54684,-0.383758,-0.255858,0
42000,-1.5518,-0.379917,-0.253521,0
42020,-1.55622,-0.376447,-0.251386,0
42040,-1.56024,-0.37285,-0.249987,0
42060,-1.56406,-0.369413,-0.248999,0
42080,-1.56772,-0.366581,-0.248331,0
42100,-1.57263,-0.363284,-0.24769,0
42120,-1.57693,-0.358858,-0.247018,0
42140,-1.5789,-0.35412,-0.24585,0
42160,-1.5844,-0.349705,-0.243489,0
42180,-1.59454,-0.344482,-0.242445,0
42200,-1.60619,-0.339923,-0.242198,0
42220,-1.61796,-0.33571,-0.241277,0
42240,-1.62812,-0.331473,-0.240322,0
42260,-1.63588,-0.327137,-0.239821,0
42280,-1.64148,-0.323109,-0.238698,0
42300,-1.64574,-0.318569,-0.237679,0
42320,-1.64785,-0.315421,-0.236525,0
42340,-1.65034,-0.31271,-0.236019,0
42360,-1.6543,-0.309414,-0.23592,0
42380,-1.65695,-0.306406,-0.235955,0
42400,-1.65649,-0.304189,-0.235189,0
42420,-1.65765,-0.300853,-0.234322,0
42440,-1.65863,-0.297495,-0.233486,0
42460,-1.65819,-0.295541,-0.232612,0
42480,-1.66069,-0.292774,-0.232614,0
42500,-1.66223,-0.289973,-0.233952,0
42520,-1.66155,-0.287389,-0.234742,0
42540,-1.66123,-0.284415,-0.235572,0
42560,-1.6609,-0.280902,-0.23624,0
42580,-1.65725,-0.278414,-0.236012,0
42600,-1.65365,-0.276575,-0.234714,0
42620,-1.65192,-0.274449,-0.233498,0
42640,-1.64889,-0.272305,-0.231578,0
42660,-1.64553,-0.270287,-0.227684,0
42680,-1.64427,-0.268884,-0.222168,0
42700,-1.64578,-0.267199,-0.216746,0
42720,-1.64654,-0.264962,-0.21083,0
42740,-1.64667,-0.263967,-0.203193,0
42760,-1.64923,-0.263877,-0.196224,0
42780,-1.65418,-0.262807,-0.189655,0
42800,-1.65917,-0.261572,-0.182132,0
42820,-1.66442,-0.261201,-0.174552,0
42840,-1.66835,-0.260464,-0.167785,0
42860,-1.67103,-0.259723,-0.160283,0
42880,-1.67494,-0.260093,-0.152275,0
42900,-1.68001,-0.260555,-0.144779,0
42910,-1.68287,-0.260805,-0.137069,0
42940,-1.68684,-0.261344,-0.127599,0
42960,-1.69238,-0.262323,-0.118278,0
42980,-1.69623,-0.263591,-0.107751,0
43000,-1.69955,-0.266292,-0.0950048,0
43020,-1.70549,-0.270529,-0.0813976,0
43040,-1.71327,-0.275059,-0.0669463,0
43060,-1.72112,-0.28052,-0.0499221,0
43080,-1.73183,-0.286921,-0.0319902,0
43100,-1.74512,-0.293474,-0.0148156,0
43120,-1.75827,-0.301074,0.00141215,0
43140,-1.76834,-0.308305,0.015862,0
43160,-1.77845,-0.313225,0.0304288,0
43180,-1.78849,-0.317567,0.0458942,0
43200,-1.79495,-0.321789,0.0610743,0
43220,-1.79767,-0.325035,0.0763482,0
43240,-1.80107,-0.329583,0.0922783,0
43260,-1.81166,-0.335736,0.107408,0
43280,-1.82529,-0.342273,0.120872,0
43300,-1.83881,-0.347673,0.134883,0
43320,-1.85072,-0.350983,0.150081,0
43340,-1.86012,-0.352498,0.166725,0
43360,-1.86529,-0.355839,0.184324,0
43380,-1.87121,-0.36039,0.200812,0
43400,-1.88221,-0.365526,0.217594,0
43420,-1.89535,-0.37193,0.234463,0
43430,-1.90652,-0.380049,0.250584,0
43460,-1.91577,-0.387078,0.265595,0
43480,-1.92063,-0.390762,0.281058,0
43500,-1.92136,-0.393227,0.298081,0
43520,-1.92152,-0.397837,0.315707,0
43530,-1.9214,-0.404599,0.332053,0
43550,-1.92234,-0.412604,0.34742,0
43570,-1.92676,-0.420381,0.36301,0
43590,-1.93434,-0.428765,0.378247,0
43610,-1.9424,-0.439282,0.392049,0
43630,-1.95203,-0.449903,0.403807,0
43650,-1.95958,-0.457738,0.414291,0
43670,-1.96104,-0.46336,0.425496,0
43690,-1.95747,-0.468218,0.436324,0
43710,-1.95021,-0.473352,0.446366,0
43730,-1.94505,-0.480346,0.456609,0
43750,-1.94636,-0.487919,0.466759,0
43770,-1.94893,-0.494949,0.475338,0
43790,-1.94926,-0.501634,0.484669,0
43810,-1.94828,-0.507328,0.494219,0
43830,-1.94848,-0.513906,0.50372,0
43850,-1.94781,-0.521147,0.513249,0
43870,-1.94801,-0.527128,0.521186,0
43890,-1.95049,-0.532516,0.52831,0
43910,-1.95332,-0.540363,0.534459,0
43930,-1.95757,-0.551534,0.5394,0
43950,-1.96245,-0.56103,0.543346,0
43970,-1.96511,-0.568677,0.546631,0
43990,-1.9624,-0.575408,0.548879,0
44010,-1.95699,-0.580326,0.55127,0
44030,-1.9503,-0.585096,0.553804,0
44050,-1.94606,-0.591488,0.557146,0
44070,-1.94379,-0.599542,0.560329,0
44090,-1.94631,-0.60771,0.563867,0
44110,-1.94959,-0.614824,0.566553,0
44130,-1.95211,-0.621117,0.568599,0
44150,-1.95225,-0.627299,0.570483,0
44170,-1.95143,-0.633178,0.573638,0
44190,-1.95348,-0.638104,0.578476,0
44210,-1.95791,-0.641673,0.581764,0
44230,-1.9615,-0.644681,0.58459,1001
44250,-1.96437,-0.646715,0.587915,0
44270,-1.96557,-0.647753,0.589543,0
44290,-1.96672,-0.649739,0.591627,0
44310,-1.96931,-0.651623,0.593109,0
44330,-1.97228,-0.652151,0.594805,0
44350,-1.97352,-0.652437,0.596529,0
44370,-1.97299,-0.653069,0.598881,0
44390,-1.97249,-0.654121,0.601665,0
44410,-1.97297,-0.655203,0.60469,0
44430,-1.97455,-0.656232,0.609044,0
44450,-1.97627,-0.658123,0.613743,0
44470,-1.97916,-0.660486,0.618194,0
44490,-1.98417,-0.663096,0.622266,0
44510,-1.99003,-0.665097,0.626313,0
44530,-1.99476,-0.667053,0.629718,0
44550,-1.99854,-0.667873,0.632583,0
44570,-2.00289,-0.669144,0.635451,0
44590,-2.00881,-0.67004,0.63864,0
44610,-2.01438,-0.671462,0.640063,0
44630,-2.01726,-0.672678,0.640324,0
44650,-2.01701,-0.672659,0.639065,0
44670,-2.01501,-0.671845,0.636615,0
44690,-2.01421,-0.670823,0.635171,0
44710,-2.01329,-0.670063,0.633194,0
44730,-2.01053,-0.669631,0.629407,0
44750,-2.00663,-0.668703,0.625499,0
44770,-2.00106,-0.666227,0.622425,0
44790,-1.99162,-0.663177,0.618592,0
44810,-1.98031,-0.660226,0.614659,0
44830,-1.97023,-0.656414,0.611977,0
44850,-1.96206,-0.652406,0.610613,0
44870,-1.95298,-0.649763,0.609608,0
44890,-1.94287,-0.6481,0.608431,0
44910,-1.93251,-0.646559,0.607519,0
44930,-1.92297,-0.64569,0.607036,0
44950,-1.91329,-0.646012,0.606855,0
44970,-1.90269,-0.646989,0.606201,0
44990,-1.89283,-0.647589,0.606224,0
45010,-1.88443,-0.646999,0.606504,0
45030,-1.8747,-0.645806,0.606407,0
45050,-1.86084,-0.644459,0.604489,0
45070,-1.8471,-0.641928,0.602447,0
45090,-1.83331,-0.63796,0.60052,0
45110,-1.81761,-0.633629,0.598648,0
45130,-1.80024,-0.630653,0.59554,0
45150,-1.78431,-0.627107,0.59292,0
45170,-1.77156,-0.621849,0.59145,0
45190,-1.75555,-0.616673,0.589062,0
45210,-1.73608,-0.611587,0.585174,0
45230,-1.71564,-0.605428,0.580387,0
45250,-1.69277,-0.599952,0.573706,0
45270,-1.66846,-0.594884,0.56588,0
45290,-1.64498,-0.588276,0.557315,0
45310,-1.62071,-0.579688,0.547989,0
45330,-1.59694,-0.570118,0.540526,0
45350,-1.57374,-0.559597,0.534702,0
45370,-1.55106,-0.547412,0.52851,0
45390,-1.5301,-0.534797,0.521837,0
45410,-1.51211,-0.521404,0.514974,0
45430,-1.49857,-0.507685,0.508804,0
45450,-1.48845,-0.49263,0.503222,0
45470,-1.4818,-0.475592,0.498722,0
45490,-1.47539,-0.458713,0.494915,0
45510,-1.4675,-0.441428,0.491049,0
45530,-1.46109,-0.422379,0.488048,0
45550,-1.45546,-0.402083,0.485667,0
45570,-1.44902,-0.381874,0.483504,0
45590,-1.44285,-0.362095,0.481026,0
45610,-1.43953,-0.343054,0.478718,0
45630,-1.43736,-0.322693,0.47592,0
45650,-1.43597,-0.302183,0.472985,0
45670,-1.43383,-0.282944,0.470176,0
45690,-1.43181,-0.264785,0.467434,0
45710,-1.43115,-0.248241,0.464144,0
45730,-1.43467,-0.233464,0.459819,0
45750,-1.44006,-0.219715,0.454112,0
45770,-1.44388,-0.20711,0.447902,0
45790,-1.44542,-0.196566,0.441318,0
45810,-1.444,-0.186605,0.435375,0
45830,-1.44251,-0.177843,0.430486,0
45850,-1.44093,-0.169485,0.425144,0
45870,-1.44025,-0.162127,0.419944,0
45890,-1.43976,-0.15588,0.415954,0
45910,-1.43924,-0.15061,0.413157,0
45930,-1.43808,-0.146244,0.410655,0
45950,-1.43735,-0.1424,0.408582,0
45970,-1.4378,-0.139368,0.407004,0
45990,-1.43786,-0.136326,0.405829,0
46010,-1.43813,-0.133955,0.405445,0
46030,-1.43722,-0.132443,0.405379,0
46050,-1.43575,-0.131009,0.405563,0
46070,-1.43431,-0.129568,0.405921,0
46090,-1.43273,-0.128522,0.406597,0
46110,-1.43162,-0.128162,0.40781,0
46130,-1.43047,-0.128071,0.409258,0
46150,-1.42844,-0.128212,0.410845,0
46170,-1.42651,-0.128979,0.412837,0
46190,-1.42516,-0.129766,0.414498,0
46210,-1.42519,-0.130848,0.416106,0
46230,-1.42515,-0.132232,0.418432,0
46250,-1.42456,-0.133727,0.421058,0
46270,-1.42384,-0.134764,0.422917,0
46290,-1.42338,-0.135637,0.424703,0
46310,-1.42466,-0.137268,0.426106,0
46330,-1.42664,-0.138466,0.42684,0
46350,-1.42784,-0.139493,0.427212,0
46370,-1.4283,-0.140207,0.427632,0
46390,-1.42762,-0.140479,0.427852,0
46410,-1.42743,-0.140211,0.42741,0
46430,-1.42667,-0.140009,0.427203,0
46450,-1.42531,-0.13941,0.426988,0
46470,-1.42332,-0.138939,0.426729,0
46490,-1.42185,-0.138548,0.426503,0
46510,-1.42186,-0.137808,0.42734,0
46530,-1.42265,-0.138411,0.427251,0
46550,-1.42313,-0.139422,0.426777,0
46570,-1.42229,-0.139886,0.426797,0
46590,-1.42136,-0.139348,0.427571,0
46610,-1.4202,-0.138457,0.428459,0
46630,-1.41967,-0.137201,0.429038,0
46650,-1.41942,-0.135802,0.429558,0
46670,-1.41957,-0.134742,0.429984,0
46690,-1.41811,-0.133692,0.430506,0
46710,-1.41618,-0.132579,0.431186,0
46730,-1.41496,-0.13207,0.432061,0
46750,-1.41355,-0.132022,0.43297,0
46770,-1.41277,-0.132283,0.434147,0
46790,-1.41236,-0.132977,0.435606,0
46810,-1.41088,-0.134127,0.437513,0
46830,-1.40986,-0.13514,0.439429,0
46850,-1.40992,-0.1363,0.441577,0
46870,-1.41039,-0.13768,0.443204,0
46890,-1.41079,-0.138822,0.444765,0
46910,-1.41171,-0.139938,0.446441,0
46920,-1.41236,-0.140807,0.448014,0
46940,-1.41203,-0.141065,0.448962,0
46960,-1.41183,-0.141,0.449499,0
46980,-1.41193,-0.140679,0.45023,0
47000,-1.41198,-0.140429,0.451327,0
47020,-1.41097,-0.139636,0.452661,0
47040,-1.41006,-0.1387,0.454549,0
47060,-1.41025,-0.138188,0.457091,0
47080,-1.41131,-0.137875,0.460197,0
47100,-1.41133,-0.137813,0.46341,0
47120,-1.4117,-0.138195,0.467422,0
47140,-1.41185,-0.139253,0.472281,0
47160,-1.41083,-0.140766,0.47705,0
47180,-1.41038,-0.142966,0.481905,0
47200,-1.41106,-0.145956,0.486942,0
47220,-1.41234,-0.149546,0.492173,0
47240,-1.4132,-0.153087,0.497577,0
47260,-1.41429,-0.156469,0.503261,0
47280,-1.41554,-0.160326,0.509404,0
47300,-1.41649,-0.164027,0.515651,0
47320,-1.41646,-0.167801,0.52218,0
47340,-1.41737,-0.17193,0.529138,0
47360,-1.41847,-0.176122,0.535399,0
47380,-1.41978,-0.180266,0.541694,0
47400,-1.42162,-0.184556,0.548307,0
47420,-1.42369,-0.189055,0.555206,0
47440,-1.42525,-0.19419,0.562166,0
47460,-1.42686,-0.198793,0.56871,0
47480,-1.428,-0.203139,0.575877,0
47500,-1.4291,-0.207755,0.583429,0
47520,-1.43044,-0.212991,0.59081,0
47540,-1.43248,-0.217863,0.598473,0
47560,-1.43387,-0.222446,0.605835,0
47580,-1.4356,-0.227511,0.613427,0
47600,-1.43869,-0.232431,0.620618,0
47620,-1.44165,-0.237282,0.627385,0
47640,-1.44391,-0.24209,0.633902,0
47660,-1.44582,-0.246615,0.640171,0
47680,-1.44732,-0.251346,0.646319,0
47700,-1.44834,-0.255802,0.652236,0
47720,-1.44949,-0.260596,0.65765,0
47740,-1.45137,-0.265079,0.662963,0
47760,-1.45224,-0.268909,0.668105,0
47780,-1.45141,-0.273433,0.673146,0
47800,-1.4503,-0.278254,0.677501,0
47820,-1.45021,-0.283076,0.681798,0
47840,-1.45122,-0.287747,0.686079,0
47860,-1.45219,-0.292138,0.690452,0
47880,-1.45289,-0.296406,0.694611,0
47900,-1.45398,-0.300702,0.698468,0
47920,-1.45539,-0.304858,0.70201,0
47940,-1.45682,-0.309044,0.70546,0
47960,-1.45816,-0.313617,0.709023,0
47980,-1.45929,-0.318236,0.712382,0
48000,-1.46016,-0.322413,0.715242,0
48020,-1.46138,-0.32701,0.717977,0
48040,-1.46346,-0.331957,0.720404,0
48060,-1.46453,-0.337052,0.722206,0
48080,-1.4657,-0.341768,0.724222,0
48100,-1.46672,-0.346538,0.72586,0
48120,-1.46804,-0.351597,0.727087,0
48140,-1.46867,-0.356522,0.727363,0
48160,-1.46858,-0.36098,0.72734,0
48180,-1.46859,-0.365996,0.727242,0
48200,-1.46836,-0.371044,0.725994,0
48220,-1.46861,-0.375454,0.724613,0
48240,-1.46889,-0.379741,0.722775,0
48260,-1.4693,-0.384069,0.720761,0
48280,-1.47038,-0.388344,0.718502,0
48300,-1.47059,-0.392181,0.716264,0
48320,-1.47119,-0.396382,0.713844,0
48340,-1.4711,-0.401368,0.710833,0
48360,-1.47058,-0.406034,0.707644,0
48380,-1.47113,-0.410246,0.705407,0
48400,-1.47206,-0.414531,0.703147,0
48420,-1.47354,-0.418517,0.700341,0
48440,-1.47704,-0.421703,0.696685,0
48460,-1.48164,-0.423874,0.692956,0
48480,-1.48558,-0.425186,0.688795,0
48500,-1.48998,-0.426327,0.684355,0
48520,-1.4938,-0.426393,0.679591,0
48540,-1.49752,-0.4253,0.674384,0
48560,-1.49942,-0.421998,0.668065,0
48580,-1.50126,-0.416643,0.661027,0
48600,-1.50123,-0.409242,0.652053,0
48620,-1.50208,-0.400329,0.641011,0
48640,-1.50299,-0.389481,0.628856,0
48660,-1.5034,-0.377294,0.616073,0
48680,-1.50301,-0.363482,0.60302,0
48700,-1.49972,-0.349306,0.589463,0
48720,-1.49448,-0.334753,0.576112,0
48740,-1.48815,-0.320296,0.563219,0
48760,-1.4821,-0.30672,0.550551,0
48780,-1.47558,-0.294466,0.537063,0
48800,-1.47243,-0.282807,0.524406,0
48820,-1.47114,-0.270881,0.512374,0
48840,-1.46836,-0.258843,0.501588,0
48860,-1.4641,-0.247947,0.49141,0
48870,-1.45911,-0.237332,0.482145,0
48890,-1.45568,-0.22708,0.473643,0
48910,-1.4532,-0.217496,0.465915,0
48930,-1.4515,-0.208743,0.458896,0
48950,-1.44931,-0.201157,0.453616,0
48970,-1.44699,-0.193566,0.448168,0
48990,-1.44441,-0.185859,0.443374,0
49010,-1.44274,-0.179627,0.438875,0
49030,-1.44225,-0.173647,0.434581,0
49050,-1.44128,-0.168104,0.43092,0
49070,-1.43927,-0.163553,0.428334,0
49090,-1.43678,-0.158742,0.426545,0
49110,-1.43332,-0.15453,0.425384,0
49130,-1.43052,-0.151249,0.424407,0
49150,-1.42919,-0.148652,0.423928,0
49170,-1.42882,-0.146372,0.424299,0
49190,-1.42834,-0.14487,0.425326,0
49210,-1.42693,-0.143673,0.426207,0
49230,-1.42609,-0.142471,0.427391,0
49250,-1.42613,-0.14188,0.42885,0
49270,-1.4261,-0.141974,0.429907,0
49290,-1.42719,-0.142792,0.430089,0
49310,-1.42957,-0.143087,0.430131,0
49330,-1.43007,-0.143452,0.42977,0
49350,-1.42947,-0.143313,0.429486,0
49370,-1.42851,-0.142724,0.429547,0
49390,-1.42875,-0.142275,0.429053,0
49410,-1.42905,-0.141783,0.42821,0
49430,-1.42938,-0.140923,0.427214,0
49450,-1.42909,-0.139723,0.426102,0
49470,-1.42911,-0.138683,0.425363,0
49490,-1.42936,-0.137664,0.424202,0
49510,-1.42956,-0.136217,0.422678,0
49530,-1.43009,-0.1348,0.421731,0
49550,-1.42938,-0.133682,0.421399,0
49570,-1.42809,-0.132365,0.420257,0
49590,-1.42715,-0.130888,0.4194,0
49610,-1.42709,-0.129745,0.419034,0
49630,-1.42626,-0.128888,0.418585,0
49650,-1.42537,-0.128428,0.41813,0
49670,-1.42526,-0.127962,0.417534,0
49690,-1.42518,-0.127624,0.417547,0
49710,-1.42307,-0.127514,0.418416,0
49730,-1.42108,-0.127867,0.419203,0
49750,-1.41967,-0.127859,0.420814,0
49770,-1.41897,-0.128202,0.422892,0
49790,-1.41927,-0.128454,0.424488,0
49810,-1.4199,-0.128517,0.425674,0
49830,-1.42066,-0.128296,0.426972,0
49850,-1.42168,-0.128267,0.428517,0
49870,-1.42294,-0.127917,0.429329,0
49890,-1.4241,-0.127223,0.429511,0
49910,-1.42455,-0.127246,0.429972,0
49930,-1.42573,-0.127674,0.429653,0
49950,-1.42619,-0.127893,0.429306,0
49970,-1.42523,-0.127714,0.428912,0
49990,-1.42319,-0.128158,0.428789,0
50010,-1.42159,-0.129011,0.428646,0
50030,-1.42117,-0.129216,0.428713,0
50050,-1.42119,-0.129576,0.429035,0
50070,-1.42153,-0.129829,0.429495,0
50090,-1.42221,-0.129285,0.430177,0
50110,-1.42244,-0.128983,0.431447,0
50130,-1.42302,-0.129419,0.432615,0
50150,-1.42395,-0.129769,0.43397,0
50170,-1.42471,-0.130294,0.435758,0
50190,-1.42444,-0.131336,0.438073,0
50210,-1.42412,-0.13278,0.440383,0
50230,-1.42416,-0.133985,0.443074,0
50250,-1.4256,-0.135467,0.446363,0
50270,-1.42615,-0.137072,0.449865,0
50290,-1.42654,-0.138728,0.453873,0
50310,-1.42804,-0.140211,0.458511,0
50330,-1.42964,-0.142215,0.463481,0
50350,-1.42986,-0.144695,0.468817,0
50370,-1.4302,-0.147524,0.474667,0
50390,-1.43099,-0.15053,0.480635,0
50410,-1.43175,-0.154101,0.486938,0
50430,-1.43304,-0.158014,0.493365,0
50450,-1.43495,-0.161606,0.499869,0
50470,-1.43581,-0.165267,0.506478,0
50490,-1.43601,-0.169402,0.51348,0
50510,-1.4359,-0.173277,0.520144,0
50530,-1.43614,-0.176036,0.525789,0
50550,-1.43564,-0.178954,0.531493,0
50570,-1.43556,-0.182625,0.537008,0
50590,-1.43628,-0.186168,0.542509,0
50610,-1.43823,-0.189294,0.54805,0
50630,-1.44021,-0.192413,0.55361,0
50650,-1.44036,-0.196252,0.558719,0
50670,-1.44084,-0.200075,0.564244,0
50690,-1.44188,-0.203733,0.570004,0
50710,-1.443,-0.208304,0.576763,0
50730,-1.44358,-0.213461,0.583549,0
50750,-1.4451,-0.218023,0.590648,0
50770,-1.44682,-0.222806,0.597871,0
50790,-1.44849,-0.228287,0.605376,0
50810,-1.45071,-0.233551,0.612595,0
50830,-1.45258,-0.238456,0.619544,0
50850,-1.45436,-0.243616,0.626696,0
50870,-1.45603,-0.249095,0.633472,0
50890,-1.45797,-0.25407,0.640056,0
50910,-1.45981,-0.258428,0.646447,0
50930,-1.46234,-0.262348,0.652878,0
50950,-1.46423,-0.26631,0.658782,0
50970,-1.46526,-0.270229,0.664616,0
50990,-1.46556,-0.273478,0.669721,0
51010,-1.46627,-0.276457,0.674782,0
51030,-1.46739,-0.280055,0.679371,0
51050,-1.46835,-0.284375,0.682729,0
51070,-1.46966,-0.288444,0.684483,0
51090,-1.47267,-0.292335,0.684504,0
51110,-1.47682,-0.295888,0.681829,0
51130,-1.48136,-0.298021,0.675378,0
51150,-1.48599,-0.298134,0.666371,0
51170,-1.48993,-0.296397,0.655685,0
51190,-1.4911,-0.293213,0.644266,0
51210,-1.48922,-0.287855,0.631717,0
51230,-1.48523,-0.280661,0.619311,0
51250,-1.48026,-0.273813,0.606577,0
51270,-1.4776,-0.267989,0.593929,0
51290,-1.47892,-0.262114,0.580808,0
51310,-1.48197,-0.257393,0.567555,0
51330,-1.48449,-0.252586,0.554345,0
51350,-1.48454,-0.247084,0.54207,0
51370,-1.48176,-0.239998,0.530173,0
51390,-1.47723,-0.232202,0.520237,0
51410,-1.47395,-0.22444,0.511021,0
51430,-1.47112,-0.216984,0.502441,0
51450,-1.46734,-0.211148,0.495046,0
51470,-1.46395,-0.205424,0.488953,0
51490,-1.46055,-0.199845,0.485153,0
51510,-1.45736,-0.195521,0.481605,0
51530,-1.45594,-0.191643,0.477855,0
51550,-1.45457,-0.188368,0.475169,0
51570,-1.45217,-0.185738,0.472751,0
51590,-1.45001,-0.18355,0.471143,0
51610,-1.44994,-0.181904,0.469325,1000
51630,-1.44955,-0.180315,0.467473,0
51650,-1.44876,-0.179568,0.465575,0
51670,-1.44886,-0.178905,0.464355,0
51690,-1.44828,-0.177898,0.463458,0
51710,-1.44687,-0.177004,0.462413,0
51730,-1.44666,-0.176318,0.461256,0
51750,-1.44723,-0.176004,0.460152,0
51770,-1.44755,-0.175315,0.459135,0
51790,-1.4473,-0.174148,0.458359,0
51810,-1.44622,-0.172621,0.457358,0
51830,-1.44432,-0.170556,0.456958,0
51850,-1.44206,-0.168665,0.456788,0
51870,-1.44001,-0.16722,0.456898,0
51890,-1.43837,-0.165717,0.456761,0
51910,-1.43804,-0.1639,0.456383,0
51930,-1.43828,-0.162591,0.456284,0
51950,-1.43845,-0.162106,0.456231,0
51970,-1.4379,-0.161263,0.456322,0
51990,-1.43735,-0.159872,0.456434,0
52010,-1.43729,-0.15849,0.456507,0
52030,-1.43784,-0.157436,0.45606,0
52050,-1.43859,-0.156511,0.455619,0
52070,-1.43888,-0.155269,0.455599,0
52090,-1.43855,-0.153898,0.455289,0
52110,-1.4378,-0.152714,0.45503,0
52130,-1.43685,-0.151871,0.454842,0
52150,-1.4366,-0.151495,0.454936,0
52170,-1.43665,-0.151073,0.455574,0
52190,-1.43666,-0.15102,0.455683,0
52210,-1.43688,-0.150602,0.455709,0
52230,-1.43719,-0.150444,0.455823,0
52250,-1.43714,-0.150353,0.455731,0
52260,-1.43647,-0.15001,0.456068,0
52280,-1.43601,-0.149796,0.456409,0
52300,-1.43601,-0.149796,0.456409,0
52320,-1.43622,-0.149435,0.456974,0
52340,-1.43555,-0.149126,0.457836,0
52360,-1.43466,-0.149159,0.458769,0
52380,-1.43445,-0.149259,0.460272,0
52400,-1.4349,-0.149501,0.462251,0
52420,-1.43534,-0.150111,0.464389,0
52440,-1.43527,-0.150649,0.46649,0
52460,-1.43536,-0.151231,0.469157,0
52480,-1.43616,-0.152249,0.472094,0
52500,-1.43724,-0.153801,0.4754,0
52520,-1.43764,-0.155632,0.47828,0
52540,-1.43783,-0.157123,0.480808,0
52560,-1.43899,-0.158626,0.483775,0
52580,-1.4404,-0.160181,0.486385,0
52600,-1.44203,-0.161858,0.489008,0
52620,-1.44347,-0.162885,0.491659,0
52640,-1.44425,-0.164022,0.494712,0
52660,-1.44357,-0.164472,0.498051,0
52680,-1.44199,-0.165297,0.501771,0
52700,-1.44103,-0.166398,0.505599,0
52720,-1.4415,-0.167892,0.509875,0
52740,-1.44185,-0.170166,0.514474,0
52760,-1.44125,-0.172547,0.519022,0
52780,-1.44113,-0.174875,0.524033,0
52800,-1.44145,-0.177297,0.529735,0
52820,-1.44219,-0.180577,0.535692,0
52840,-1.44268,-0.184321,0.541812,0
52860,-1.44264,-0.187616,0.548193,0
52880,-1.44214,-0.19105,0.554889,0
52900,-1.44194,-0.19472,0.562061,0
52920,-1.44271,-0.198805,0.569071,0
52940,-1.44367,-0.203347,0.576432,0
52950,-1.44326,-0.207969,0.583878,0
52970,-1.44256,-0.213337,0.59138,0
52990,-1.44298,-0.219181,0.598539,0
53010,-1.44381,-0.224798,0.605489,0
53030,-1.4447,-0.230174,0.613105,0
53050,-1.44522,-0.235683,0.620705,0
53070,-1.44583,-0.241256,0.627891,0
53090,-1.446,-0.246299,0.635133,0
53110,-1.44611,-0.251107,0.642785,0
53130,-1.44615,-0.255758,0.650621,0
53150,-1.44664,-0.260395,0.658629,0
53170,-1.4478,-0.265492,0.666346,0
53190,-1.44896,-0.270499,0.673999,0
53210,-1.45074,-0.275105,0.681876,0
53230,-1.45235,-0.279482,0.689722,0
53250,-1.45307,-0.284887,0.697409,0
53270,-1.45445,-0.290368,0.70446,0
53290,-1.45669,-0.295156,0.710982,0
53310,-1.45917,-0.300007,0.717852,0
53330,-1.4609,-0.305865,0.72447,0
53350,-1.46225,-0.312289,0.730599,0
53370,-1.46404,-0.318279,0.736908,0
53390,-1.46697,-0.323967,0.743325,0
53410,-1.46987,-0.329971,0.74921,0
53430,-1.4722,-0.336136,0.754666,0
53470,-1.48278,-0.357507,0.771064,0
53490,-1.48417,-0.361704,0.772646,0
53510,-1.48474,-0.366355,0.773845,0
53530,-1.48499,-0.370517,0.77393,0
53570,-1.48453,-0.377123,0.771684,0
53610,-1.48285,-0.383742,0.761335,0
53630,-1.48067,-0.386332,0.756476,0
53650,-1.47863,-0.389117,0.750028,0
53670,-1.47738,-0.391963,0.742389,0
53690,-1.47604,-0.396019,0.734304,0
53710,-1.47483,-0.401246,0.72656,0
53730,-1.47291,-0.406675,0.718494,0
53750,-1.47101,-0.412494,0.711114,0
53770,-1.47131,-0.418244,0.704812,0
53790,-1.47265,-0.42433,0.699202,0
53810,-1.47415,-0.430224,0.693828,0
53830,-1.47551,-0.43608,0.688529,0
53850,-1.47707,-0.441046,0.682875,0
53870,-1.4796,-0.445279,0.677331,0
53890,-1.48101,-0.448577,0.671422,0
53910,-1.4812,-0.451796,0.665271,0
53930,-1.48125,-0.454835,0.659265,0
53950,-1.48209,-0.457394,0.653707,0
53970,-1.48221,-0.460408,0.648301,0
54020,-1.48405,-0.468495,0.634058,0
54030,-1.48564,-0.485524,0.588511,0
54050,-1.486,-0.489032,0.578919,0
54070,-1.48525,-0.501604,0.531887,0
54070,-1.48385,-0.503424,0.517604,0
54080,-1.47242,-0.51103,0.441983,0
54110,-1.46785,-0.525232,0.3723,0
54170,-1.4607,-0.550045,0.243973,0
54190,-1.45752,-0.551395,0.231629,0
54210,-1.45419,-0.551905,0.219556,0
54230,-1.45148,-0.552033,0.208021,0
54250,-1.44818,-0.551583,0.196623,0
54270,-1.44598,-0.550445,0.186012,0
54290,-1.443,-0.549855,0.175813,0
54310,-1.44055,-0.550014,0.165833,0
54330,-1.43789,-0.549879,0.156345,0
54360,-1.43322,-0.549644,0.138445,0
54380,-1.43142,-0.549302,0.129945,0
54390,-1.42976,-0.54884,0.121828,0
54410,-1.42818,-0.547799,0.114401,0
54420,-1.42658,-0.545974,0.107058,0
54440,-1.42605,-0.543949,0.0994426,0
54460,-1.42565,-0.54086,0.0915091,0
54480,-1.42505,-0.537389,0.084189,0
54500,-1.42417,-0.533634,0.0759888,0
54520,-1.42312,-0.528849,0.0673901,0
54540,-1.41985,-0.523192,0.0591041,0
54560,-1.41441,-0.518392,0.0518825,0
54580,-1.40897,-0.514216,0.0445057,0
54600,-1.40506,-0.511039,0.0367259,0
54620,-1.40362,-0.506807,0.0266656,0
54640,-1.40239,-0.502079,0.0149162,0
54660,-1.40239,-0.497369,0.0017244,0
54680,-1.40146,-0.490717,-0.0115065,0
54700,-1.39806,-0.483676,-0.0238956,0
54720,-1.39201,-0.477244,-0.0361286,0
54740,-1.38704,-0.471777,-0.0486486,0
54760,-1.38609,-0.465148,-0.061412,0
54780,-1.38461,-0.458144,-0.0732487,0
54800,-1.38095,-0.45247,-0.0847425,0
54820,-1.37864,-0.446179,-0.0962743,0
54840,-1.3775,-0.43933,-0.107171,0
54860,-1.37772,-0.433724,-0.116634,0
54880,-1.37738,-0.428439,-0.125469,0
54900,-1.37519,-0.423406,-0.133184,0
54920,-1.37332,-0.418936,-0.140915,0
54940,-1.37087,-0.414513,-0.147509,0
54960,-1.3684,-0.411231,-0.153174,0
54980,-1.36824,-0.408997,-0.158459,0
55000,-1.36981,-0.406633,-0.164209,0
55020,-1.37204,-0.402429,-0.170429,0
55040,-1.37211,-0.396366,-0.176204,0
55060,-1.36922,-0.390664,-0.181142,0
55080,-1.36682,-0.386328,-0.186265,0
55100,-1.36795,-0.381395,-0.192105,0
55120,-1.37086,-0.375361,-0.197978,0
55140,-1.37002,-0.36948,-0.202648,0
55160,-1.36795,-0.365092,-0.206443,0
55180,-1.36656,-0.360672,-0.20996,0
55200,-1.36775,-0.356967,-0.212995,0
55220,-1.36991,-0.353416,-0.216513,0
55240,-1.37167,-0.34955,-0.219192,0
55260,-1.37368,-0.346034,-0.221044,0
55280,-1.37584,-0.342514,-0.223236,0
55300,-1.37964,-0.338182,-0.225494,0
55320,-1.38304,-0.332705,-0.228396,0
55340,-1.3855,-0.327325,-0.231324,0
55360,-1.38853,-0.322491,-0.233789,0
55380,-1.39307,-0.317388,-0.23626,0
55400,-1.39665,-0.310801,-0.238386,0
55420,-1.39764,-0.303817,-0.239855,0
55440,-1.39855,-0.298714,-0.240948,0
55460,-1.40162,-0.294303,-0.241847,0
55480,-1.4064,-0.289609,-0.241949,0
55500,-1.40852,-0.2846,-0.242431,0
55520,-1.40986,-0.280707,-0.242218,0
55540,-1.41303,-0.276605,-0.241403,0
55560,-1.41691,-0.27253,-0.240111,0
55580,-1.42045,-0.268941,-0.238934,0
55600,-1.42332,-0.26562,-0.237871,0
55620,-1.42671,-0.261944,-0.236268,0
55640,-1.42995,-0.258206,-0.233909,0
55660,-1.43304,-0.254649,-0.231072,0
55680,-1.43478,-0.251459,-0.228454,0
55700,-1.43751,-0.24895,-0.226585,0
55720,-1.44171,-0.246097,-0.2258,0
55740,-1.44508,-0.24245,-0.225067,0
55760,-1.44714,-0.238784,-0.223747,0
55780,-1.4482,-0.234756,-0.222252,0
55800,-1.45026,-0.230906,-0.221114,0
55820,-1.45398,-0.227553,-0.22051,0
55840,-1.45938,-0.224376,-0.219917,0
55860,-1.46429,-0.220642,-0.218804,0
55880,-1.46755,-0.216497,-0.217123,0
55900,-1.46846,-0.211868,-0.214884,0
55920,-1.47072,-0.208008,-0.212113,0
55940,-1.47398,-0.204663,-0.209921,0
55960,-1.47622,-0.20086,-0.20779,0
55980,-1.47966,-0.197464,-0.204803,0
56000,-1.48443,-0.194196,-0.201694,0
56020,-1.48669,-0.190325,-0.198644,0
56040,-1.48641,-0.18622,-0.195309,0
56060,-1.48782,-0.182561,-0.191264,0
56080,-1.48938,-0.17933,-0.187796,0
56100,-1.49078,-0.176573,-0.185287,0
56120,-1.49183,-0.17283,-0.182651,0
56140,-1.49205,-0.169672,-0.178491,0
56160,-1.49073,-0.167492,-0.175098,0
56180,-1.48942,-0.164685,-0.172474,0
56200,-1.4893,-0.161765,-0.16844,0
56220,-1.4895,-0.159839,-0.164148,0
56240,-1.48818,-0.158655,-0.160202,0
56260,-1.48705,-0.156636,-0.155852,0
56280,-1.48658,-0.154584,-0.15153,0
56300,-1.48629,-0.153255,-0.146888,0
56320,-1.48667,-0.152753,-0.142314,0
56340,-1.48538,-0.15132,-0.138796,0
56360,-1.48427,-0.149861,-0.134121,0
56380,-1.48417,-0.14805,-0.129093,0
56400,-1.48257,-0.146579,-0.124286,0
56420,-1.48131,-0.145575,-0.119391,0
56440,-1.4819,-0.143919,-0.113874,0
56460,-1.48335,-0.14233,-0.107797,0
56480,-1.48512,-0.140647,-0.102121,0
56500,-1.48657,-0.138685,-0.0963849,0
56520,-1.4882,-0.136396,-0.0900927,0
56540,-1.49035,-0.13465,-0.0836337,0
56560,-1.49235,-0.133569,-0.0773818,0
56580,-1.49484,-0.131702,-0.071508,0
56600,-1.49902,-0.129131,-0.064546,0
56620,-1.50289,-0.125697,-0.0563711,0
56640,-1.50606,-0.121846,-0.0492955,0
56660,-1.51071,-0.117723,-0.0427278,0
56680,-1.51931,-0.114442,-0.0353846,0
56700,-1.52616,-0.112727,-0.0277699,0
56720,-1.53032,-0.11128,-0.0205001,0
56740,-1.53487,-0.109476,-0.0123453,0
56760,-1.53882,-0.108418,-0.0038078,0
56780,-1.54064,-0.108548,0.00441164,0
56800,-1.54277,-0.10945,0.0135935,0
56820,-1.54739,-0.111082,0.0229953,0
56840,-1.55266,-0.113362,0.0324322,0
56860,-1.55667,-0.115369,0.0427646,0
56880,-1.56031,-0.117433,0.0536935,0
56900,-1.56256,-0.119337,0.0636813,0
56920,-1.56479,-0.120703,0.0731559,0
56940,-1.5695,-0.121513,0.0833945,0
56960,-1.57417,-0.122618,0.0938128,0
56980,-1.57515,-0.123976,0.102884,0
57000,-1.57732,-0.124732,0.111858,0
57020,-1.58172,-0.125511,0.121671,0
57030,-1.58391,-0.126564,0.131006,0
57050,-1.58397,-0.127488,0.139776,0
57070,-1.58589,-0.128634,0.148845,0
57090,-1.58873,-0.129514,0.158151,0
57110,-1.59052,-0.130548,0.166964,0
57130,-1.59255,-0.131992,0.17537,0
57150,-1.59682,-0.133637,0.1842,0
57170,-1.60017,-0.13438,0.19322,0
57190,-1.60121,-0.134625,0.203294,0
57210,-1.60405,-0.135696,0.215432,0
57230,-1.60763,-0.138219,0.228721,0
57250,-1.61096,-0.141357,0.24212,0
57270,-1.61563,-0.144971,0.255658,0
57290,-1.62214,-0.148548,0.269635,0
57310,-1.62683,-0.151171,0.283561,0
57330,-1.62886,-0.153713,0.297742,0
57350,-1.63129,-0.156588,0.311899,0
57370,-1.63331,-0.159529,0.325879,0
57390,-1.63491,-0.163162,0.339093,0
57410,-1.63758,-0.166968,0.351555,0
57430,-1.64008,-0.16998,0.364961,0
57450,-1.6409,-0.173364,0.378519,0
57470,-1.64098,-0.177446,0.390831,0
57490,-1.64282,-0.181752,0.403002,0
57510,-1.64598,-0.185579,0.415302,0
57530,-1.64977,-0.189882,0.428181,0
57550,-1.65263,-0.194851,0.441389,0
57570,-1.65269,-0.199588,0.454685,0
57590,-1.65252,-0.204514,0.467732,0
57610,-1.65491,-0.210074,0.479703,0
57630,-1.65967,-0.215839,0.491674,0
57650,-1.66376,-0.223319,0.503017,0
57670,-1.66742,-0.230465,0.512635,0
57690,-1.67079,-0.237188,0.521161,0
57710,-1.67238,-0.243925,0.529942,0
57730,-1.67136,-0.25052,0.538571,0
57750,-1.66969,-0.256556,0.546702,0
57770,-1.6693,-0.263362,0.553827,0
57790,-1.67109,-0.270336,0.560591,0
57810,-1.6733,-0.276378,0.566913,0
57830,-1.67427,-0.282145,0.572587,0
57850,-1.67407,-0.288247,0.577213,0
57870,-1.67505,-0.294262,0.581681,0
57890,-1.67509,-0.299348,0.585641,0
57910,-1.67358,-0.304676,0.588997,0
57930,-1.67235,-0.310741,0.592307,0
57950,-1.67187,-0.316959,0.595398,0
57970,-1.67061,-0.324369,0.598193,0
57990,-1.66813,-0.332283,0.60055,0
58010,-1.66623,-0.34022,0.602461,0
58030,-1.66464,-0.348679,0.604124,0
58050,-1.66202,-0.357581,0.605991,0
58070,-1.65845,-0.367022,0.608272,0
58090,-1.6547,-0.376528,0.609956,0
58110,-1.65276,-0.386128,0.612468,0
58130,-1.65172,-0.396584,0.61471,0
58150,-1.65253,-0.407717,0.616981,0
58170,-1.65363,-0.418861,0.619258,0
58190,-1.65417,-0.430001,0.621998,0
58210,-1.65469,-0.440936,0.624466,0
58230,-1.65577,-0.451955,0.627017,0
58250,-1.65776,-0.463043,0.629747,0
58270,-1.66001,-0.473726,0.631519,0
58290,-1.66346,-0.484547,0.633575,0
58310,-1.66717,-0.494805,0.635225,0
58330,-1.66895,-0.504765,0.635615,0
58350,-1.67053,-0.51423,0.635641,0
58370,-1.67309,-0.522222,0.635674,0
58390,-1.67536,-0.530092,0.635265,0
58410,-1.67754,-0.537961,0.634293,0
58430,-1.68047,-0.544754,0.633596,0
58450,-1.68226,-0.550963,0.632595,0
58470,-1.68329,-0.558188,0.630588,0
58490,-1.68611,-0.565443,0.628205,0
58510,-1.69043,-0.571935,0.625268,0
58530,-1.69407,-0.578643,0.621701,0
58550,-1.69593,-0.585076,0.617176,0
58570,-1.69684,-0.59063,0.612222,0
58590,-1.69701,-0.596247,0.607228,0
58610,-1.69737,-0.602121,0.601022,0
58630,-1.69888,-0.607113,0.5943,0
58650,-1.69945,-0.611691,0.587305,0
58670,-1.69935,-0.616266,0.580085,0
58690,-1.69976,-0.62026,0.572391,0
58710,-1.69957,-0.623835,0.564508,0
58730,-1.69902,-0.626529,0.557125,0
58750,-1.69936,-0.629079,0.550123,0
58770,-1.70022,-0.631308,0.543066,0
58790,-1.69978,-0.634009,0.535534,0
58810,-1.69962,-0.636433,0.528058,0
58830,-1.69966,-0.637682,0.520853,0
58850,-1.69886,-0.639079,0.513209,0
58870,-1.69902,-0.640455,0.505329,0
58890,-1.70042,-0.641086,0.496619,0
58910,-1.70014,-0.640894,0.486794,0
58930,-1.70058,-0.641514,0.477787,0
58950,-1.70072,-0.641597,0.467686,0
58970,-1.70033,-0.642417,0.457504,0
58980,-1.70017,-0.644275,0.447197,0
59000,-1.7006,-0.646019,0.436345,0
59020,-1.70147,-0.647692,0.425705,0
59040,-1.70158,-0.649694,0.414799,0
59060,-1.70153,-0.651937,0.403749,0
59080,-1.70128,-0.653803,0.39186,0
59100,-1.70033,-0.656432,0.378876,0
59110,-1.6999,-0.659285,0.365024,0
59120,-1.69968,-0.661589,0.34951,0
59130,-1.69712,-0.663099,0.332969,0
59150,-1.69292,-0.664429,0.316039,0
59160,-1.68879,-0.665503,0.299734,0
59180,-1.68473,-0.666613,0.282465,0
59200,-1.68187,-0.667222,0.26479,0
59220,-1.67962,-0.666961,0.247563,0
59240,-1.67744,-0.666228,0.230942,0
59260,-1.67407,-0.665957,0.213844,0
59280,-1.67082,-0.664701,0.197329,0
59300,-1.66869,-0.662709,0.182499,0
59320,-1.66554,-0.660977,0.167726,0
59340,-1.66238,-0.659795,0.152469,0
59360,-1.66361,-0.657494,0.137896,0
59380,-1.66381,-0.65345,0.123604,0
59400,-1.66124,-0.649887,0.109906,0
59420,-1.65729,-0.645942,0.0970788,0
59440,-1.65365,-0.642011,0.0836339,0
59460,-1.65079,-0.638835,0.0690466,0
59480,-1.64796,-0.635601,0.0541998,0
59500,-1.64464,-0.631323,0.0401949,0
59520,-1.64122,-0.627198,0.0274526,0
59540,-1.63656,-0.622972,0.0146107,0
59560,-1.63282,-0.617823,0.00276728,0
59580,-1.63021,-0.612634,-0.00882804,0
59600,-1.62609,-0.60841,-0.0207405,0
59620,-1.62119,-0.605509,-0.0327518,0
59640,-1.6169,-0.603135,-0.0441923,0
59660,-1.614,-0.600587,-0.0555385,0
59680,-1.60935,-0.59749,-0.0669395,0
59700,-1.60284,-0.593336,-0.0768922,0
59720,-1.59607,-0.590123,-0.0864553,0
59740,-1.5922,-0.587288,-0.0962828,0
59760,-1.59162,-0.583477,-0.106311,0
59780,-1.59001,-0.578865,-0.116415,0
59800,-1.58684,-0.575264,-0.127516,0
59820,-1.5861,-0.571664,-0.139853,0
59840,-1.58679,-0.566225,-0.152814,0
59860,-1.5833,-0.559601,-0.165936,0
59880,-1.57545,-0.552155,-0.178721,0
59900,-1.56628,-0.54432,-0.190553,0
59920,-1.55893,-0.536943,-0.20217,0
59940,-1.55448,-0.529448,-0.213995,0
59960,-1.55178,-0.521754,-0.225153,0
59980,-1.54801,-0.513885,-0.235944,0
60000,-1.54361,-0.505741,-0.245828,0
60020,-1.53913,-0.497893,-0.255129,0
60040,-1.53488,-0.489501,-0.263436,0
60060,-1.53119,-0.481217,-0.270038,0
60080,-1.52843,-0.473934,-0.276588,0
60100,-1.5275,-0.467253,-0.282922,0
60120,-1.52857,-0.460823,-0.288365,0
60140,-1.52856,-0.454453,-0.294661,0
60160,-1.52681,-0.447909,-0.300854,0
60180,-1.5249,-0.441594,-0.305768,0
60200,-1.5231,-0.436726,-0.311262,0
60220,-1.52389,-0.432441,-0.317308,0
60240,-1.52692,-0.427964,-0.322793,0
60260,-1.52885,-0.421903,-0.328466,0
60280,-1.5274,-0.415205,-0.333851,0
60300,-1.52408,-0.409078,-0.338588,0
60320,-1.52268,-0.403336,-0.342447,0
60340,-1.52262,-0.398268,-0.346205,0
60360,-1.5228,-0.39341,-0.349187,0
60380,-1.52304,-0.388375,-0.351098,0
60400,-1.52226,-0.383686,-0.351947,0
60420,-1.52078,-0.379678,-0.352174,0
60440,-1.52005,-0.376064,-0.351826,0
60460,-1.52077,-0.372611,-0.351302,0
60480,-1.52042,-0.368887,-0.351091,0
60500,-1.51936,-0.365215,-0.350083,0
60520,-1.51869,-0.361604,-0.34775,0
60540,-1.51694,-0.358355,-0.346051,0
60560,-1.51499,-0.355523,-0.344947,0
60580,-1.5145,-0.352585,-0.343483,0
60600,-1.51418,-0.349499,-0.341939,0
60620,-1.51262,-0.34603,-0.340775,0
60640,-1.50911,-0.342508,-0.339127,0
60660,-1.50598,-0.339236,-0.33709,0
60680,-1.50482,-0.334877,-0.334296,0
60700,-1.50384,-0.330643,-0.331337,0
60720,-1.50232,-0.327393,-0.328939,0
60740,-1.50186,-0.323789,-0.326123,0
60760,-1.50018,-0.320441,-0.323096,0
60780,-1.49797,-0.317018,-0.32034,0
60800,-1.49612,-0.313744,-0.317789,0
60820,-1.4948,-0.309769,-0.314842,0
60840,-1.49366,-0.306006,-0.311653,0
60860,-1.49165,-0.30318,-0.308747,0
60880,-1.49083,-0.300714,-0.305939,0
60900,-1.49073,-0.29739,-0.302933,0
60920,-1.48925,-0.294758,-0.299476,0
60940,-1.48741,-0.292088,-0.295865,0
60960,-1.48749,-0.289879,-0.292042,0
60980,-1.48825,-0.287332,-0.287959,0
61000,-1.48834,-0.284347,-0.283426,0
61020,-1.48911,-0.281466,-0.278644,0
61040,-1.49075,-0.2793,-0.274606,0
61060,-1.49358,-0.277112,-0.270545,0
61080,-1.49642,-0.273602,-0.266148,0
61100,-1.49719,-0.269914,-0.26161,0
61120,-1.4983,-0.266705,-0.257327,0
61140,-1.49993,-0.263817,-0.253278,0
61160,-1.50052,-0.260022,-0.248701,0
61180,-1.50027,-0.256404,-0.243458,0
61200,-1.4995,-0.253529,-0.237884,0
61220,-1.50028,-0.251189,-0.232326,0
61240,-1.50106,-0.248404,-0.227012,0
61260,-1.50099,-0.245891,-0.221105,0
61280,-1.50231,-0.243185,-0.214869,0
61300,-1.50485,-0.240262,-0.207952,0
61320,-1.50772,-0.23736,-0.200993,0
61340,-1.51217,-0.23521,-0.193816,0
61360,-1.51784,-0.233236,-0.186234,0
61380,-1.52198,-0.23144,-0.17886,0
61400,-1.52579,-0.229244,-0.171542,0
61420,-1.52942,-0.227098,-0.164337,0
61440,-1.53239,-0.224967,-0.157144,0
61460,-1.53522,-0.223769,-0.149905,0
61480,-1.53943,-0.222645,-0.143211,0
61500,-1.54142,-0.221614,-0.136171,0
61520,-1.54173,-0.220731,-0.1289,0
61540,-1.54312,-0.219655,-0.12089,0
61560,-1.54527,-0.219051,-0.112369,0
61580,-1.54822,-0.218919,-0.103185,0
61600,-1.55061,-0.21943,-0.0930024,0
61620,-1.55578,-0.220744,-0.0818545,0
61640,-1.56022,-0.222325,-0.0702504,0
61660,-1.56466,-0.224467,-0.0582021,0
61680,-1.57145,-0.22645,-0.0462336,0
61700,-1.57805,-0.228443,-0.0338378,0
61720,-1.58313,-0.230424,-0.0202963,0
61740,-1.58818,-0.233389,-0.00604673,0
61760,-1.59327,-0.237251,0.00780956,0
61780,-1.59841,-0.241667,0.0214448,0
61800,-1.60151,-0.246153,0.0356336,0
61820,-1.60498,-0.251104,0.0506072,0
61840,-1.60935,-0.256002,0.0655474,0
61860,-1.61213,-0.261428,0.0798171,0
61880,-1.61633,-0.267293,0.0944919,0
61900,-1.62246,-0.272959,0.109023,0
61920,-1.62805,-0.279371,0.123479,0
61940,-1.63346,-0.286095,0.137283,0
61960,-1.63925,-0.291865,0.151162,0
61980,-1.64459,-0.297251,0.16571,0
62000,-1.64947,-0.303427,0.180364,0
62020,-1.65343,-0.309036,0.194634,0
62040,-1.65754,-0.31399,0.209372,0
62060,-1.66519,-0.319222,0.224064,0
62080,-1.67419,-0.324584,0.238713,0
62100,-1.68301,-0.329694,0.254095,0
62120,-1.69155,-0.3338,0.270492,0
62140,-1.69864,-0.338446,0.287365,0
62160,-1.70418,-0.34359,0.304431,0
62180,-1.70992,-0.349504,0.322039,0
62200,-1.71855,-0.355455,0.339576,0
62220,-1.72794,-0.361688,0.35713,0
62240,-1.73634,-0.367411,0.374549,0
62260,-1.74266,-0.372738,0.392135,0
62280,-1.74909,-0.37874,0.409023,0
62300,-1.75757,-0.385294,0.424996,0
62310,-1.76497,-0.391509,0.43962,0
62330,-1.77026,-0.397659,0.454133,0
62350,-1.7762,-0.405031,0.467888,0
62370,-1.78221,-0.413019,0.479851,0
62390,-1.78536,-0.420978,0.491582,0
62410,-1.7874,-0.428679,0.50353,0
62430,-1.78944,-0.436146,0.515122,0
62450,-1.78961,-0.444375,0.526617,0
62470,-1.79146,-0.4531,0.537751,0
62490,-1.7941,-0.460877,0.547525,0
62510,-1.79578,-0.468304,0.558227,0
62530,-1.79358,-0.476615,0.569287,0
62550,-1.79243,-0.486199,0.580061,0
62570,-1.79354,-0.496492,0.590071,0
62590,-1.7964,-0.507331,0.600484,0
62610,-1.79967,-0.517932,0.610501,0
62630,-1.80256,-0.528457,0.620001,0
62650,-1.80541,-0.539016,0.629399,0
62670,-1.80847,-0.548951,0.638446,0
62690,-1.81107,-0.559763,0.647029,0
62710,-1.81449,-0.571675,0.654517,0
62730,-1.82157,-0.583063,0.661407,0
62750,-1.82982,-0.591919,0.667502,0
62770,-1.83474,-0.599638,0.673119,0
62790,-1.83774,-0.607733,0.678794,0
62810,-1.84264,-0.61648,0.683528,0
62830,-1.84977,-0.624986,0.686337,0
62850,-1.85872,-0.632607,0.688331,0
62870,-1.86485,-0.639179,0.68946,0
62890,-1.86691,-0.645753,0.689772,0
62910,-1.86954,-0.652485,0.689191,0
62930,-1.87403,-0.65985,0.687538,0
62950,-1.88026,-0.667777,0.685024,0
62970,-1.88538,-0.675447,0.681179,0
62990,-1.88773,-0.682099,0.675958,0
63010,-1.88984,-0.687616,0.671039,0
63030,-1.89354,-0.692954,0.666137,0
63050,-1.89736,-0.698534,0.660592,0
63070,-1.90168,-0.704581,0.653698,0
63090,-1.90771,-0.711066,0.64593,0
63110,-1.91376,-0.718224,0.636942,0
63130,-1.91769,-0.725209,0.627629,0
63150,-1.92085,-0.731552,0.618104,0
63170,-1.9241,-0.73774,0.608583,0
63190,-1.92667,-0.744855,0.597823,0
63210,-1.93072,-0.752459,0.586969,0
63230,-1.93449,-0.758994,0.575892,0
63250,-1.93652,-0.764506,0.56399,0
63270,-1.93762,-0.768857,0.551652,0
63290,-1.93773,-0.771698,0.539823,0
63310,-1.93791,-0.775227,0.528136,0
63330,-1.9389,-0.779481,0.516239,0
63350,-1.94046,-0.783791,0.503386,0
63370,-1.94261,-0.788196,0.490198,0
63390,-1.94296,-0.791556,0.476125,0
63410,-1.94159,-0.794111,0.46211,0
63430,-1.9381,-0.796237,0.447781,0
63450,-1.93221,-0.797989,0.43264,0
63470,-1.92541,-0.800601,0.417382,0
63490,-1.91976,-0.804019,0.402028,0
63510,-1.91607,-0.807418,0.386012,0
63530,-1.91144,-0.810299,0.36969,0
63550,-1.90379,-0.813681,0.352711,0
63570,-1.89558,-0.816283,0.336168,0
63590,-1.88831,-0.818625,0.320775,0
63610,-1.88099,-0.821729,0.305999,0
63630,-1.87516,-0.825034,0.29081,0
63650,-1.87032,-0.826669,0.275521,0
63670,-1.86431,-0.828273,0.260702,0
63690,-1.85753,-0.830602,0.246438,0
63710,-1.8516,-0.832293,0.232361,0
63730,-1.84582,-0.8335,0.219013,0
63750,-1.8393,-0.834993,0.205311,0
63770,-1.83239,-0.836405,0.190965,0
63790,-1.82428,-0.837116,0.176101,0
63810,-1.8162,-0.8379,0.161504,0
63830,-1.80837,-0.838075,0.146726,0
63850,-1.79959,-0.837352,0.132048,0
63870,-1.78963,-0.83683,0.117051,0
63890,-1.77858,-0.835671,0.101541,0
63910,-1.76734,-0.833438,0.0862534,0
63930,-1.75504,-0.830386,0.0709987,0
63950,-1.74339,-0.826952,0.0563146,0
63970,-1.73296,-0.822739,0.0417392,0
63990,-1.72329,-0.818525,0.0269608,0
64010,-1.71359,-0.814103,0.0123699,0
64030,-1.70443,-0.809573,-0.00224524,0
64050,-1.69642,-0.803694,-0.0163976,0
64070,-1.68648,-0.796794,-0.0302545,0
64090,-1.67618,-0.789372,-0.0425183,0
64110,-1.66794,-0.781946,-0.0536651,0
64130,-1.66033,-0.774757,-0.0650465,0
64150,-1.65305,-0.767496,-0.0770532,0
64170,-1.6471,-0.759584,-0.0885359,0
64190,-1.64071,-0.751684,-0.100185,0
64210,-1.63227,-0.743672,-0.112019,0
64230,-1.62667,-0.735126,-0.123128,0
64250,-1.62368,-0.725029,-0.134228,0
64270,-1.62061,-0.713323,-0.144637,0
64280,-1.61803,-0.701874,-0.153951,0
64300,-1.61698,-0.691145,-0.163589,0
64320,-1.61748,-0.680383,-0.173339,0
64340,-1.62017,-0.669433,-0.182825,0
64360,-1.62278,-0.658011,-0.191497,0
64380,-1.62231,-0.64663,-0.200933,0
64400,-1.62058,-0.635176,-0.210064,0
64420,-1.62091,-0.622333,-0.217337,0
64440,-1.62021,-0.610659,-0.224393,0
64460,-1.61785,-0.600908,-0.232177,0
64480,-1.62003,-0.590694,-0.238886,0
64500,-1.62536,-0.580619,-0.245279,0
64520,-1.62985,-0.571769,-0.252123,0
64540,-1.6333,-0.562635,-0.258622,0
64560,-1.63915,-0.552853,-0.263694,0
64580,-1.64413,-0.5434,-0.269276,0
64600,-1.6472,-0.534207,-0.274334,0
64620,-1.65082,-0.524604,-0.27847,0
64640,-1.65559,-0.514568,-0.28158,0
64660,-1.65991,-0.505159,-0.284991,0
64680,-1.66295,-0.49699,-0.288324,0
64700,-1.66529,-0.489316,-0.29209,0
64720,-1.66668,-0.481109,-0.295514,0
64740,-1.66845,-0.473476,-0.29839,0
64760,-1.67076,-0.466456,-0.301091,0
64780,-1.67354,-0.459626,-0.303959,0
64800,-1.67393,-0.452043,-0.306695,0
64820,-1.67183,-0.443958,-0.308358,0
64840,-1.67032,-0.436587,-0.30881,0
64860,-1.66951,-0.429731,-0.308622,0
64880,-1.66824,-0.423965,-0.308441,0
64900,-1.66737,-0.417988,-0.308078,0
64920,-1.66849,-0.41151,-0.30625,0
64940,-1.66965,-0.405472,-0.304175,0
64960,-1.67103,-0.399452,-0.301864,0
64980,-1.67337,-0.393055,-0.299579,0
65000,-1.67497,-0.386921,-0.296457,0
65020,-1.67762,-0.381427,-0.29262,0
65040,-1.68069,-0.376442,-0.288798,0
65060,-1.68202,-0.371937,-0.285489,0
65080,-1.6824,-0.36742,-0.281632,0
65100,-1.68336,-0.362603,-0.277345,0
65120,-1.6824,-0.358036,-0.273037,0
65140,-1.68013,-0.353659,-0.267795,0
65160,-1.67893,-0.350279,-0.261813,0
65180,-1.67871,-0.347565,-0.2568,0
65200,-1.67773,-0.345046,-0.252167,0
65220,-1.67698,-0.342212,-0.246357,0
65240,-1.67525,-0.338682,-0.23985,0
65260,-1.67063,-0.334964,-0.23429,0
65280,-1.66311,-0.332121,-0.228247,0
65300,-1.65493,-0.329587,-0.221794,0
65320,-1.6504,-0.327255,-0.215142,0
65340,-1.64656,-0.325982,-0.207967,0
65360,-1.64269,-0.325385,-0.199715,0
65380,-1.64003,-0.324636,-0.19048,0
65400,-1.63735,-0.324488,-0.180427,0
65420,-1.6352,-0.325297,-0.170133,0
65440,-1.63725,-0.326936,-0.159928,0
65460,-1.63995,-0.329438,-0.15039,0
65480,-1.64221,-0.331589,-0.140136,0
65500,-1.64479,-0.333073,-0.128531,0
65520,-1.64794,-0.335162,-0.116685,0
65540,-1.65072,-0.338197,-0.105161,0
65560,-1.65523,-0.341234,-0.0939424,0
65580,-1.66171,-0.344328,-0.0828775,0
65600,-1.66879,-0.347145,-0.0719708,0
65620,-1.67419,-0.34961,-0.0602913,0
65640,-1.68083,-0.35112,-0.0473709,0
65660,-1.6916,-0.351229,-0.0324589,0
65680,-1.70572,-0.351383,-0.01758,0
65700,-1.71787,-0.353379,-0.00429874,0
65720,-1.73277,-0.354623,0.00823146,0
65740,-1.75178,-0.355515,0.0213257,0
65760,-1.76973,-0.356864,0.0340469,0
65780,-1.78336,-0.356976,0.0459805,0
65800,-1.79435,-0.356087,0.0580334,0
65820,-1.80701,-0.356081,0.0697103,0
65840,-1.82073,-0.356794,0.0801072,0
65860,-1.83126,-0.35712,0.0904152,0
65880,-1.83818,-0.357278,0.101375,0
65900,-1.84445,-0.357471,0.111702,0
65920,-1.85025,-0.357603,0.121505,0
65940,-1.8552,-0.358388,0.13178,0
65960,-1.86207,-0.35976,0.142168,0
65980,-1.8683,-0.360754,0.152407,0
66000,-1.87293,-0.361384,0.163626,0
66020,-1.87471,-0.362719,0.175222,0
66040,-1.87582,-0.365532,0.187396,0
66060,-1.87899,-0.369005,0.199831,0
66080,-1.88289,-0.372616,0.213196,0
66100,-1.88372,-0.37617,0.227378,0
66120,-1.88207,-0.380478,0.243615,0
66140,-1.88025,-0.386872,0.260186,0
66160,-1.87842,-0.394122,0.275418,0
66180,-1.88216,-0.401818,0.29094,0
66200,-1.89353,-0.410332,0.306105,0
66220,-1.90574,-0.418353,0.319667,0
66240,-1.91487,-0.425579,0.33309,0
66260,-1.91849,-0.430902,0.346847,0
66280,-1.91462,-0.435836,0.360967,0
66300,-1.91054,-0.44312,0.374532,0
66320,-1.91103,-0.450573,0.387864,0
66340,-1.91377,-0.458468,0.401313,0
66360,-1.91629,-0.467652,0.414311,0
66380,-1.91646,-0.477408,0.425953,0
66400,-1.91528,-0.486134,0.436467,0
66420,-1.91397,-0.494925,0.447814,0
66440,-1.91483,-0.502557,0.459742,0
66460,-1.91445,-0.509,0.472085,0
66480,-1.91293,-0.516835,0.484517,0
66500,-1.91591,-0.528048,0.495859,0
66520,-1.92044,-0.542642,0.504252,0
66540,-1.92288,-0.557267,0.512379,0
66560,-1.92397,-0.569381,0.52081,0
66580,-1.91965,-0.580892,0.527399,0
66600,-1.91404,-0.592441,0.53456,0
66620,-1.90936,-0.603488,0.540864,0
66640,-1.90736,-0.642079,0.560819,0
66650,-1.90678,-0.661457,0.573846,1001
66670,-1.90956,-0.666596,0.580181,0
