Timestamp, Electrode 1, Electrode 2, Electrode 3, Electrode 4, Electrode 5, Electrode 6, Electrode 7, Electrode 8, Marker
0,1,3,-1,-1,-1,-2,2,6,0
5,3,-7,-3,-3,-1,-1,-11,13,0
10,-3,-2,-1,-1,-1,0,1,-4,0
15,0,-1,-1,0,-3,0,-1,2,0
20,-2,-1,-2,-1,-1,0,1,1,0
25,-2,1,0,-1,-2,-2,4,-4,0
30,1,-1,-1,-3,-2,-3,0,12,0
35,-1,1,-1,-2,0,1,5,7,0
40,-7,-2,-2,0,-2,1,-4,-24,0
45,3,3,2,-1,-2,2,7,15,0
50,-5,-1,-2,0,-1,2,7,-19,0
55,-1,0,-1,-1,-2,-3,4,13,0
60,-3,-2,-1,-1,2,1,-2,-11,0
65,2,-1,-3,1,-1,-1,-1,-1,0
70,4,1,-1,-1,0,0,-2,16,0
75,-4,-2,1,0,0,-2,0,-7,0
80,2,-2,-1,-4,-2,-1,-3,4,0
85,-9,-1,-1,0,3,0,-3,-17,0
90,-1,0,0,1,0,-2,-1,-6,0
95,-5,-2,-1,0,-1,-2,-7,-22,0
100,1,0,0,2,2,4,-2,5,0
105,-2,-2,-1,-1,-1,-1,-1,-8,0
110,0,-1,-1,1,2,-1,-5,-4,0
115,-3,-2,-2,-3,-3,-3,-13,-23,0
120,-3,-1,0,-1,0,-3,4,-3,0
125,2,3,-4,-2,0,2,4,11,0
130,2,-2,-2,-3,-2,-2,-7,9,0
135,-12,-5,-3,-3,0,-2,-7,-36,0
140,2,-1,-3,-1,-2,-1,-1,3,0
145,-4,-1,1,-1,0,-1,4,-2,0
150,-5,-5,-2,-3,-1,-1,-6,-11,0
155,3,0,-1,1,2,3,2,11,0
160,-2,-4,-2,-3,-4,-3,-2,4,0
165,-4,2,0,-2,-2,-1,4,-11,0
170,2,0,-1,1,-1,-2,4,16,0
175,1,0,1,-3,-2,0,-1,4,0
180,-3,1,-1,-1,-2,-2,-1,-5,0
185,1,-2,-1,-1,-2,-1,-1,-3,0
190,-4,0,-1,0,-1,-1,0,-7,0
195,1,0,0,0,-1,0,2,8,0
200,2,0,-2,0,2,-3,-2,1,0
205,-1,-1,-1,0,0,-4,-6,-2,0
210,0,0,-2,-2,-2,-1,3,0,0
215,12,-1,-2,-2,-4,-5,-7,46,0
220,-4,-4,2,1,-1,-2,-7,-12,0
225,-2,-2,-1,1,0,-1,-4,-3,0
230,-1,0,-3,-1,-1,-1,-4,-5,0
235,-8,-3,-4,1,-2,-1,2,-23,0
240,-1,0,-2,-4,1,6,2,-3,0
245,-1,0,0,0,-2,-2,4,8,0
250,-1,-2,-2,-1,-3,-3,-1,3,0
255,-1,-1,-2,0,-1,-3,-3,-1,0
260,-2,0,-2,-2,1,-1,2,-4,0
265,-1,-1,-1,-3,0,-1,-1,-2,0
270,-5,0,-1,-2,-1,-1,1,-7,0
275,-3,-3,-2,-3,-4,-1,-2,-8,0
280,-2,1,-2,1,0,-5,-8,-8,0
285,3,1,0,-1,-1,0,0,13,0
290,-6,-1,0,1,2,0,-4,-16,0
295,2,0,-2,-3,-2,-2,0,5,0
300,-4,-3,-2,-2,-2,-2,-6,-11,0
305,3,0,1,-1,-2,-3,7,19,0
310,-1,-2,-1,1,-2,-3,-3,1,0
315,-6,-2,-2,-1,-1,1,-1,-14,0
320,4,1,-1,-1,-4,0,0,5,0
325,-2,0,0,0,2,2,2,-6,0
330,7,-5,-4,-4,-3,-6,-17,12,0
335,-1,-1,1,-1,-1,-1,-3,-7,0
340,0,1,-1,0,-1,-1,1,8,0
345,1,0,0,-2,0,0,-5,-7,0
350,3,0,-1,-1,-2,1,14,34,0
355,0,-1,0,1,-1,-3,-7,-4,0
360,0,-2,-1,-2,-2,-1,-2,2,0
365,1,2,0,0,0,-1,0,-1,0
370,-3,-2,-1,-2,-1,0,3,-1,0
375,-4,-4,-2,1,2,5,0,-4,0
380,-6,-2,1,0,-1,-4,-1,-8,0
385,-5,-5,-2,-1,-2,-4,-11,-23,0
390,0,0,-1,-1,-1,-1,3,9,0
395,-4,-4,-2,-3,-1,-1,-12,-36,0
400,9,2,0,-1,3,3,-7,13,0
405,-1,1,-1,-2,-1,-1,-2,0,0
410,-2,-3,0,0,1,-1,0,-5,0
415,0,-2,-2,-1,-2,-3,1,9,0
420,-1,0,0,2,1,1,2,-1,0
425,-3,-3,-4,-4,-2,-4,-1,-3,0
430,-2,0,1,-1,-1,1,-4,-10,0
435,-6,-2,-4,-1,-2,-3,1,-12,0
440,-6,-1,0,-1,1,3,11,-5,0
445,3,-1,0,0,-3,-2,-3,13,0
450,-6,-3,-4,-4,-4,-3,-5,-15,0
455,3,2,-1,0,-3,-2,1,2,0
460,-5,-2,-2,0,0,1,2,0,0
465,-2,-1,0,-1,-1,0,0,-1,0
470,2,-1,1,-1,3,1,-4,-6,0
475,2,-1,-1,0,-1,-2,0,8,0
480,0,-2,-2,-3,-1,-4,-3,-2,0
485,-1,1,-1,2,0,-2,0,8,0
490,-5,-2,-2,0,-1,2,-7,-25,0
495,-2,-1,-1,-1,1,-1,-1,-3,0
500,-7,0,-1,1,0,-2,1,-17,0
505,-5,-4,-4,-1,-2,0,-1,-20,0
510,-4,-3,-2,0,-3,-1,-3,-7,0
515,2,0,-3,-1,-1,-1,-4,1,0
520,0,0,0,1,-1,-1,1,2,0
525,-6,-1,-1,-2,0,0,5,2,0
530,7,0,-2,-3,-1,-5,-13,15,0
535,-1,1,0,1,1,2,3,9,0
540,0,-1,-1,-1,-2,-1,1,3,0
545,4,0,1,-1,-3,-1,-2,24,0
550,-1,-2,-2,-2,-3,-1,-2,-5,0
555,0,-2,0,0,0,0,-1,0,0
560,-1,-1,-2,-1,1,-3,-1,0,0
565,-1,0,0,-2,-2,-1,1,-3,0
570,0,-2,-2,-1,-1,0,0,2,0
575,-2,-1,0,-2,1,1,-1,-3,0
580,-1,-1,-1,-1,-3,-5,-2,2,0
585,-1,0,-4,-2,-1,-2,-3,-4,0
590,2,1,-1,1,1,-1,-1,-2,0
595,0,0,0,0,-1,-1,-2,-2,0
600,0,-3,0,0,-3,1,-2,-2,0
605,1,1,1,-1,4,-1,-2,-1,0
610,-2,-2,2,2,3,5,1,-1,0
615,-1,-1,-1,-3,-5,-6,2,0,0
620,0,1,-1,5,7,8,1,4,0
625,-1,0,-3,-8,-8,-5,-3,-3,0
630,0,-1,-3,-3,-15,-25,-3,-2,0
635,0,-1,-2,-3,8,21,-1,-2,0
640,0,-1,-2,-5,-11,-26,-9,-3,0
645,-4,-4,-3,-4,1,35,8,-4,0
650,0,1,1,-4,-4,-16,6,4,0
655,3,0,2,9,20,-3,-12,3,0
660,1,0,6,12,9,37,24,6,0
665,-8,-11,-8,-17,-11,8,2,-6,0
670,-5,-2,4,16,4,-13,-15,-8,0
675,-6,-4,0,5,-8,-32,-10,-4,0
680,-3,-8,-22,-14,10,18,0,4,0
685,2,-2,1,-6,-14,-30,-23,0,0
690,-5,-6,-6,-19,0,36,22,-7,0
695,-6,-7,-2,-14,-25,-43,-26,-7,0
700,-2,-2,-2,6,-7,14,-6,-8,0
705,5,8,2,7,16,-21,3,11,0
710,-3,0,3,18,8,9,-7,-7,0
715,-1,2,2,-1,3,3,7,6,0
720,0,1,-7,2,-6,-22,-1,1,0
725,-5,-7,-5,-11,-18,5,2,-8,0
730,-4,-2,-1,-9,-14,-3,-20,-11,0
735,1,-4,-3,2,-3,0,10,7,0
740,-3,-4,-1,-22,9,-14,-9,-2,0
745,0,1,1,26,11,-8,8,3,0
750,4,5,-7,-6,12,26,5,5,0
755,-6,-3,-1,2,-7,-14,-23,-9,0
760,5,4,6,2,-8,0,14,5,0
765,5,11,19,9,13,-18,-19,3,0
770,4,0,-7,1,15,32,17,7,0
775,1,2,-6,-16,-24,-3,9,-2,0
780,-1,-2,4,-4,-3,1,10,1,0
785,-7,-4,-1,1,1,29,9,-8,0
790,1,-2,-5,2,16,-30,-33,1,0
795,5,6,4,3,7,18,27,11,0
800,1,9,24,17,4,-1,-1,-3,0
805,0,-7,-1,-3,-25,-5,18,2,0
810,-3,-8,-15,-20,-14,-18,-12,-4,0
815,0,2,7,0,2,1,-6,-9,0
820,-6,-7,-14,-4,-37,-28,-19,-15,0
825,6,2,-9,-23,6,11,11,13,0
830,11,18,21,-4,-25,-7,-8,2,0
835,0,1,6,22,22,17,20,4,0
840,-11,-15,-2,-7,1,-4,-24,-17,0
845,-4,1,-11,-18,-12,4,8,-10,0
850,-2,-5,-15,-8,-10,-34,-26,3,0
855,1,-1,-1,6,14,28,17,-1,0
860,0,4,7,-3,8,-25,-17,5,0
865,-4,-1,2,18,4,-3,0,-4,0
870,-5,-7,6,4,8,9,9,0,0
875,-4,-7,-12,-6,6,14,-1,-11,0
880,2,3,1,9,0,-10,14,7,0
885,-1,-4,-2,-12,7,17,-9,-5,0
890,-2,-2,-3,4,-13,-4,24,3,0
895,1,-2,3,-1,-6,-16,-35,-5,0
900,7,5,4,-5,-1,10,12,17,0
905,-2,-2,-7,-6,8,-1,2,3,0
910,-7,-5,-4,10,8,7,-1,-12,0
915,7,1,0,0,2,-2,21,13,0
920,0,4,5,9,7,3,-7,-3,0
925,0,0,0,-8,-15,-1,9,-4,0
930,0,1,1,-3,-11,-13,-11,1,0
935,-2,-3,-1,6,13,11,-27,-8,0
940,-1,-3,3,9,1,-7,37,5,0
945,2,6,-4,-16,-6,1,-3,6,0
950,-2,-2,1,-2,5,0,-13,-6,0
955,-3,1,-1,-2,-17,-10,4,-3,0
960,0,-4,-1,11,13,12,-2,4,0
965,-5,-1,-1,-9,-10,-21,-7,-4,0
970,6,4,-5,-24,-7,14,31,7,0
975,0,0,1,11,12,-12,-11,-2,0
980,-14,-8,-1,5,3,7,-3,-18,0
985,4,3,3,6,0,-8,13,10,0
990,-8,-6,-8,-9,-12,6,-28,-22,0
995,9,6,7,7,12,5,19,23,0
1000,-12,-7,-9,-12,-14,-16,-9,-24,0
1005,0,-2,-1,0,2,-10,-32,-12,0
1010,1,-10,0,3,2,10,51,16,0
1015,4,14,9,17,16,10,-11,12,0
1020,-1,-3,-6,-13,-17,-10,-2,-2,0
1025,-8,-4,-3,1,3,1,-14,-12,0
1030,2,-1,-5,-7,-3,3,15,3,0
1035,-13,-13,-4,-6,-11,-20,-31,-21,0
1040,9,8,7,1,12,24,48,27,0
1045,1,2,3,1,-9,-3,15,1,0
1050,5,2,-4,-4,11,18,-6,-7,0
1055,-7,-6,-3,-3,-6,3,9,-3,0
1060,4,7,4,6,10,-1,-9,7,0
1065,-9,-1,-1,-8,-8,-3,-28,-23,0
1070,-2,-9,-14,-13,-21,-7,14,6,0
1075,5,3,0,1,10,-15,-31,5,0
1080,0,1,-1,0,3,10,26,4,0
1085,-3,-3,-3,0,5,-3,8,-16,0
1090,7,2,1,4,1,11,34,31,0
1095,-4,-3,-5,-1,1,-3,-32,-4,0
1100,-17,-6,-6,-8,-8,-7,-12,-61,0
1105,1,-1,1,0,10,8,12,12,0
1110,4,7,9,14,15,4,-20,-20,0
1115,-2,-2,-6,-3,-9,2,13,-11,0
1120,-1,4,5,8,7,2,-10,63,0
1125,8,-6,-7,-8,-11,-3,-7,-12,0
1130,-4,-5,1,7,1,-13,-7,-1,0
1135,0,2,3,0,0,13,6,9,0
1140,-4,-1,0,-1,0,-2,5,1,0
1145,-4,-6,-1,1,5,1,9,-1,0
1150,1,7,0,-9,-8,-13,-25,7,0
1155,4,-2,-1,-2,2,21,31,6,0
1160,0,-6,-12,-1,-11,-25,-59,-39,0
1165,-5,-2,3,-1,-3,5,19,-2,0
1170,1,0,4,10,12,-3,-25,-4,0
1175,-12,-6,-6,-10,-8,3,9,-16,0
1180,2,1,4,-4,-3,3,15,14,0
1185,3,2,-2,8,5,-17,-36,4,0
1190,-7,-8,-6,-4,-8,-6,-2,-5,0
1195,-1,0,-1,-4,1,12,25,12,0
1200,8,2,3,1,-9,-15,-13,1,0
1205,-6,1,1,2,4,0,13,-55,0
1210,-9,-2,-3,-4,-1,15,-1,-13,0
1215,5,1,0,3,-1,-17,-33,4,0
1220,-7,-11,-5,-3,-9,-23,-13,-16,0
1225,5,7,2,-1,-2,-9,0,59,0
1230,3,6,3,2,5,11,39,25,0
1235,-1,1,1,2,12,2,-11,7,0
1240,-6,-4,-2,-4,-3,4,5,-14,0
1245,-7,-6,-7,-5,-3,17,24,-11,0
1250,-7,-5,-3,-3,-10,-25,-59,-20,0
1255,-1,-1,-2,-4,1,-2,2,15,0
1260,-1,0,0,4,3,-1,4,-4,0
1265,-7,-10,-5,-6,-8,-13,-11,-39,0
1270,10,1,-1,-2,9,6,3,27,0
1275,-2,-2,-5,-6,-23,-29,-18,11,0
1280,4,-1,-2,-3,4,0,-29,-36,0
1285,-20,-8,-3,-7,-23,7,38,-31,0
1290,13,-5,-4,1,11,18,9,-11,0
1295,-6,0,8,2,-5,-6,-11,-2,0
1300,5,-1,-3,-1,0,-3,8,46,0
1305,5,2,1,5,16,-7,-32,24,0
1310,-11,-4,-2,-6,-14,-5,21,-13,0
1315,2,1,1,-1,0,7,28,12,0
1320,2,5,2,2,4,-2,-10,-1,0
1325,15,2,-1,3,-1,10,38,61,0
1330,-10,0,2,-2,-10,-39,0,24,0
1335,6,0,-4,-5,14,33,4,-1,0
1340,-3,-3,-4,-4,-33,-27,-18,-38,0
1345,-9,0,4,7,0,-19,-49,-13,0
1350,3,-2,-4,-4,2,0,-11,-11,0
1355,-2,-8,-10,-11,-13,0,8,-15,0
1360,-4,2,4,2,6,6,-18,6,0
1365,-4,-2,-2,-3,10,9,-5,-19,0
1370,-2,0,-1,4,0,-21,-45,1,0
1375,-12,-3,-2,0,14,8,22,-39,0
1380,-7,-6,-3,-4,-8,-15,-24,-22,0
1385,7,-1,-2,-3,-12,-23,1,1,0
1390,4,7,4,0,23,68,37,36,0
1395,-3,-8,-6,-3,-11,-38,-39,-2,0
1400,6,5,3,4,9,16,17,22,0
1405,-11,-10,-7,-6,-5,1,7,-27,0
1410,-4,-1,-3,-1,-5,18,23,2,0
1415,10,7,4,4,2,-12,-36,3,0
1420,5,1,0,0,13,19,62,10,0
1425,0,-2,1,-1,-5,-12,-22,2,0
1430,-3,-3,-4,-4,-4,-11,-3,-7,0
1435,-3,-5,-1,-4,0,11,0,-6,0
1440,-2,-6,-3,-1,4,-12,-8,-29,0
1445,3,8,7,8,23,29,-1,1,0
1450,-3,-7,-5,-5,-23,-23,-32,4,0
1455,-5,-7,-4,-5,-31,-27,2,-30,0
1460,0,5,4,5,12,11,7,33,0
1465,-8,-10,-7,-8,1,18,23,-54,0
1470,-5,-2,1,2,5,-19,-47,5,0
1475,1,5,1,-3,-3,35,39,26,0
1480,-8,-10,-13,-11,-10,-22,-31,-2,0
1485,2,1,3,9,3,-19,-14,9,0
1490,-4,-2,-2,1,3,10,20,-23,0
1495,-7,0,-1,-4,2,0,8,-17,0
1500,-6,2,-1,1,6,20,14,24,0
1505,8,2,-1,-3,-4,-12,-15,4,0
1510,-11,-6,-1,2,17,0,-32,-24,0
1515,3,-3,1,5,-1,9,23,26,0
1520,5,7,7,5,1,-30,-6,35,0
1525,3,1,-4,-13,-20,19,44,1,0
1530,1,5,4,7,-2,17,12,19,0
1535,-1,-3,-2,-5,-18,-22,-6,-3,0
1540,-2,-4,-1,-5,-9,16,14,-13,0
1545,-3,2,-1,8,25,-9,-30,44,0
1550,4,4,1,-2,-15,-60,-5,44,0
1555,8,-6,-1,-2,-11,-2,3,-2,0
1560,-5,15,8,2,1,23,47,29,0
1565,5,2,-2,0,22,15,-6,-4,0
1570,24,12,2,-5,-39,-13,12,-4,0
1575,-21,-3,1,8,17,-9,-21,1,0
1580,17,-15,-11,-11,-18,6,0,18,0
1585,-2,8,10,3,-4,24,37,46,0
1590,2,-10,-10,-7,5,-18,-12,-18,0
1595,-3,-3,0,0,-7,0,-17,12,0
1600,0,-3,-1,-2,-7,-10,-11,-41,0
1605,-13,-3,-3,-2,-5,-14,-17,-10,0
1610,-10,-10,-7,-9,6,34,22,-24,0
1615,-1,2,-2,0,19,14,12,26,0
1620,-19,-2,-2,3,10,-8,-15,8,0
1625,5,-3,-3,-10,-36,-25,2,-3,0
1630,-9,-7,-1,2,6,-36,-30,-30,0
1635,9,8,1,-1,20,46,30,13,0
1640,-9,4,3,1,12,16,10,15,0
1645,22,-3,-5,-8,-4,-3,-5,-20,0
1650,-10,-4,0,-3,-6,7,-4,3,0
1655,-8,5,6,5,7,-15,-38,21,0
1660,16,-6,-7,-8,-14,-2,22,-6,0
1665,1,-1,0,5,0,7,6,20,0
1670,-20,-8,-6,-5,-1,0,5,-44,0
1675,-4,-8,-9,-4,2,-5,-47,-67,0
1680,-5,3,3,-2,-20,-18,-23,15,0
1685,-35,-28,-11,-6,-4,-5,-14,-108,0
1690,-16,16,3,0,-1,15,-1,21,0
1695,34,3,-2,-5,-12,0,16,57,0
1700,-17,-6,0,9,26,-20,-64,-54,0
1705,39,3,-5,-7,-20,-6,-20,18,0
1710,-9,-9,-2,1,-5,-1,10,0,0
1715,-11,-2,-4,-1,11,5,53,7,0
1720,4,4,3,0,0,27,-17,35,0
1725,-31,-10,-3,-5,-6,-31,-46,-29,0
1730,18,4,2,2,21,34,39,37,0
1735,0,3,0,0,-6,-17,-3,-2,0
1740,-2,-5,-3,-1,0,-8,-2,-33,0
1745,6,5,3,0,5,4,25,27,0
1750,3,-2,-3,-4,-8,19,1,5,0
1755,0,1,1,-1,8,-9,-4,9,0
1760,-6,-9,-6,-3,11,-1,-1,-41,0
1765,-2,6,3,6,13,17,13,17,0
1770,6,3,3,0,-24,-2,17,10,0
1775,2,1,1,0,6,1,-10,9,0
1780,-21,-6,-3,-5,-15,-10,3,-25,0
1785,17,4,-1,-1,5,2,24,-6,0
1790,-6,-4,0,8,17,-21,-41,-24,0
1795,3,-1,-3,-3,-16,-13,-12,-32,0
1800,-3,-3,-1,-6,-13,-1,14,6,0
1805,-20,-4,0,3,6,4,-1,-9,0
1810,-6,2,1,-2,11,-2,6,3,0
1815,-2,-8,-12,-12,-26,7,30,6,0
1820,8,3,3,7,12,8,-11,21,0
1825,-2,1,0,3,-1,-5,-7,-29,0
1830,-8,-7,-2,2,9,-2,-13,-54,0
1835,-2,3,1,-2,-6,-3,3,-9,0
1840,9,2,-4,-1,1,-1,34,34,0
1845,-1,1,1,-5,-15,-7,8,16,0
1850,4,0,1,-4,-4,24,20,9,0
1855,-8,-2,-1,2,0,-12,-10,-15,0
1860,-11,-11,-7,-4,-11,3,6,-22,0
1865,2,7,7,5,11,4,1,26,0
1870,8,-1,-3,-2,2,-7,-24,-7,0
1875,10,3,4,0,4,-3,-6,19,0
1880,2,1,-2,-1,9,-12,-9,-42,0
1885,-14,-8,-8,-3,-2,-16,-4,-2,0
1890,-1,-2,-1,-2,-4,28,26,36,0
1895,-5,-1,0,2,4,6,-1,-18,0
1900,-3,-3,-2,-2,-9,-18,-21,-46,0
1905,3,4,4,0,5,6,2,20,0
1910,15,-2,-1,0,-1,0,16,-8,0
1915,-5,-1,0,2,4,-9,-19,0,0
1920,-1,1,0,-1,-1,-1,-1,-12,0
1925,0,0,0,-6,-10,10,29,3,0
1930,-13,-2,-3,-3,1,-16,-20,14,0
1935,17,2,2,3,7,9,-15,16,0
1940,6,-1,-1,0,8,-2,-14,11,0
1945,6,2,0,-6,-11,23,15,27,0
1950,-2,5,3,3,2,-12,-32,16,0
1955,-18,-11,-4,-2,-2,-6,10,-25,0
1960,3,2,-2,-4,-1,5,9,69,0
1965,-1,-10,-7,-3,-7,-20,-28,-7,0
1970,10,-4,-2,-4,-4,-4,14,-28,0
1975,-16,0,1,5,7,-7,-26,0,0
1980,9,4,2,1,-13,-9,-3,29,0
1985,-4,-4,-4,-1,-1,1,9,24,0
1990,-6,-1,-1,-2,-10,-10,7,20,0
1995,5,1,-1,-2,-1,-8,-26,-18,0
2000,8,5,3,1,7,11,36,35,0
2005,-9,-2,-3,-2,-5,-14,-16,-37,0
2010,-4,-9,-6,-4,-2,6,7,-1,0
2015,-2,6,0,-3,0,-14,-30,-16,0
2020,1,-1,0,-2,-8,-2,2,14,0
2025,-12,-3,-1,1,6,-27,-23,-42,0
2030,8,6,3,3,7,31,22,54,0
2035,-15,-13,-7,-10,-14,-4,20,10,0
2040,11,5,5,3,8,26,3,4,0
2045,4,0,0,1,2,-18,-32,21,0
2050,3,0,0,-3,-2,9,14,-15,0
2055,3,2,3,4,3,-9,0,13,0
2060,-11,-1,1,-3,-4,-7,-38,-32,0
2065,-8,-4,-5,-2,-1,20,24,-1,0
2070,15,1,-1,-1,1,-9,-15,-32,0
2075,-6,-6,-2,-5,-8,9,14,4,0
2080,11,-1,-3,-5,-5,-2,27,8,0
2085,-6,-2,-2,1,6,15,5,-48,0
2090,-11,-4,-2,3,4,-30,-29,8,0
2095,-3,0,-1,-5,-25,-3,-19,-12,0
2100,-15,-7,-6,-1,-3,-17,-5,-13,0
2105,0,3,2,1,2,13,8,21,0
2110,-1,-1,-3,1,-1,14,15,40,0
2115,6,-7,-7,-5,-7,-6,7,-42,0
2120,-4,2,3,5,6,-9,-27,9,0
2125,-3,1,2,1,-4,-3,-15,6,0
2130,12,8,4,-1,-3,-15,-15,-14,0
2135,-8,-10,-5,-2,6,13,28,38,0
2140,0,-5,-7,-4,-8,8,2,-29,0
2145,3,-1,-1,0,3,-2,22,10,0
2150,-6,0,3,0,-1,-4,-16,-4,0
2155,-5,-4,-4,-3,-4,28,45,18,0
2160,-8,-5,-2,3,1,-44,-56,-51,0
2165,1,1,3,-1,-2,11,2,16,0
2170,-10,1,-5,-7,-8,-15,-6,-67,0
2175,-14,-27,-6,0,1,1,6,6,0
2180,-1,4,3,-1,-3,11,6,9,0
2185,36,29,11,1,3,-24,-19,10,0
2190,-6,5,1,0,-2,1,4,8,0
2195,9,5,-3,-2,6,14,11,2,0
2200,-17,-22,-4,-1,1,-2,4,-1,0
2205,2,-3,1,0,-5,11,11,43,0
2210,-23,-8,-4,-3,-6,16,41,10,0
2215,31,2,-3,-1,3,-38,-61,-45,0
2220,-1,2,-1,-2,-4,18,19,0,0
2225,0,7,1,4,8,4,5,27,0
2230,4,-8,-8,-9,-14,24,43,-3,0
2235,-13,7,9,10,7,-20,-35,-24,0
2240,7,8,3,-2,-5,10,26,15,0
2245,-10,-12,-8,-7,3,-14,-20,-31,0
2250,-7,-11,-3,0,-3,4,-3,-16,0
2255,-2,10,4,1,7,-13,-17,12,0
2260,8,1,-2,-1,-5,13,7,6,0
2265,-21,-4,-2,-1,-3,-1,0,-23,0
2270,14,5,2,0,4,-6,-11,13,0
2275,3,6,5,3,-2,8,16,13,0
2280,-4,1,-1,0,2,-15,-17,10,0
2285,-4,-8,-6,-7,-9,15,15,-12,0
2290,-13,-2,2,5,8,-31,-50,-75,0
2295,-10,1,2,4,2,9,17,-32,0
2300,7,-2,-4,-2,5,9,10,-15,0
2305,2,0,0,0,-6,7,14,48,0
2310,-2,-3,-3,1,-1,-18,-20,20,0
2315,-12,-9,-6,-5,0,6,0,-35,0
2320,11,-2,1,-1,-4,-2,5,15,0
2325,-16,-2,-3,1,5,-4,-14,-16,0
2330,-3,-1,0,-2,1,0,-4,10,0
2335,-1,10,4,4,3,-10,-8,29,0
2340,5,-7,-4,-3,-5,5,30,36,0
2345,10,-7,-6,-9,-9,3,-17,-17,0
2350,-4,-5,1,-4,-8,-4,11,0,0
2355,-2,-7,-8,-8,-17,-4,-9,7,0
2360,-16,1,-4,-4,4,-12,-35,-31,0
2365,11,-3,-2,-1,-10,-14,1,-5,0
2370,-1,1,-2,-2,-3,10,10,13,0
2375,3,-3,-1,-1,-3,-6,-6,9,0
2380,-6,7,2,-2,-2,-3,-2,-6,0
2385,-3,1,-2,2,-4,-6,6,10,0
2390,-8,-7,-4,3,11,-1,-31,-17,0
2395,2,0,2,0,-13,-13,-13,-19,0
2400,8,4,2,2,3,-7,14,36,0
2405,4,-3,-5,2,10,0,-18,0,0
2410,2,4,5,9,-2,7,16,23,0
2415,-6,5,2,0,8,-13,-13,-17,0
2420,7,3,0,-6,-22,0,2,12,0
2425,3,3,4,3,11,-2,4,10,0
2430,-3,-4,-7,-13,-8,-15,-17,7,0
2435,-4,-4,2,3,19,14,20,3,0
2440,11,9,5,5,13,-2,-20,-17,0
2445,-1,-2,-3,-3,-9,-3,3,25,0
2450,-2,-2,-2,-4,9,5,-5,-10,0
2455,7,3,5,6,8,17,14,8,0
2460,1,-2,-2,0,-7,0,21,2,0
2465,-2,-3,-4,1,11,10,-6,-11,0
2470,-3,-1,-1,0,-4,13,12,0,0
2475,1,3,2,2,6,-10,-5,0,0
2480,-8,-6,-4,-7,-13,-7,9,-1,0
2485,-3,-8,-6,-4,-4,-1,-13,-10,0
2490,0,1,1,3,8,-8,4,-3,0
2495,1,1,0,-1,5,11,0,-4,0
2500,-4,-1,1,1,2,-5,5,4,0
2505,1,-3,-2,1,0,4,6,-5,0
2510,-3,2,3,3,7,-7,-9,4,0
2515,16,1,-3,-4,-6,-8,-10,9,0
2520,0,0,4,3,1,4,12,18,0
2525,-3,-2,0,1,-1,-11,-9,-21,0
2530,2,2,0,-2,-9,0,19,59,0
2535,-9,-4,-2,-2,4,-3,-21,-58,0
2540,5,1,0,6,16,6,-18,-5,0
2545,3,4,0,-4,-14,2,33,32,0
2550,3,-3,-4,-1,-3,3,-7,-28,0
2555,3,-2,-1,-1,-15,-14,5,10,0
2560,-4,0,-1,0,1,10,-33,-7,0
2565,-6,-6,-5,-3,-2,-16,-18,-46,0
2570,-3,2,2,1,-4,3,-2,-27,0
2575,-7,1,2,-1,4,16,15,30,0
2580,-2,-3,-3,-3,-4,-29,-31,-21,0
2585,-1,-3,-2,-1,2,2,-13,0,0
2590,1,0,-2,3,14,7,1,-2,0
2595,-2,0,1,-3,-12,-10,-13,8,0
2600,-5,-2,-3,-3,-2,1,-4,-16,0
2605,6,4,2,3,6,8,15,36,0
2610,0,-2,-1,-6,-10,-12,-11,-1,0
2615,4,-6,-6,-3,-2,-16,-26,-49,0
2620,3,2,3,-1,3,8,36,4,0
2625,4,0,-1,-2,-15,-5,7,22,0
2630,1,-1,-3,-4,-12,3,18,9,0
2635,-13,-7,-5,1,5,-18,-22,-49,0
2640,-3,-4,-5,-6,-10,3,12,14,0
2645,-6,-3,-1,0,2,-14,-20,-62,0
2650,-10,-6,-5,-7,-2,37,9,-15,0
2655,-7,0,1,-1,-3,-20,-27,7,0
2660,9,4,0,2,8,13,34,42,0
2665,-10,-1,1,-1,1,4,-1,9,0
2670,14,-2,-1,-1,-1,-16,-25,-6,0
2675,-5,1,0,1,9,27,21,5,0
2680,-7,0,0,0,-2,3,5,1,0
2685,10,-2,-2,-2,-5,-8,-18,20,0
2690,-8,1,3,1,6,8,2,2,0
2695,15,4,4,4,7,8,25,42,0
2700,-2,-4,-4,-3,-9,-21,-4,0,0
2705,-6,-1,-3,-2,7,11,-2,-23,0
2710,-2,0,0,1,-10,-13,-7,-5,0
2715,-1,2,0,2,5,13,22,64,0
2720,-16,-10,-6,-7,-10,-12,-18,-71,0
2725,1,1,1,-1,15,31,17,18,0
2730,-3,-3,-2,-2,-21,-27,-28,-6,0
2735,0,4,0,0,-4,-3,13,31,0
2740,-4,-2,-1,0,-6,1,5,-37,0
2745,-9,-7,-6,-5,-4,-14,-15,-47,0
2750,9,3,-1,-1,0,12,53,33,0
2755,-8,-5,-3,-2,-8,-24,-35,-18,0
2760,6,-3,0,1,5,9,-4,7,0
2765,4,6,3,2,3,6,14,20,0
2770,-14,-3,0,-2,-4,-23,-5,-13,0
2775,8,-2,-4,-10,-11,14,6,-21,0
2780,-9,0,3,2,7,11,18,24,0
2785,12,-3,-4,-3,-4,-19,-36,-6,0
2790,-2,0,0,-2,-2,18,7,55,0
2795,1,-2,1,2,2,-11,-9,21,0
2800,-9,-7,-4,-5,-6,1,3,-22,0
2805,-1,4,4,4,2,3,0,15,0
2810,-5,-1,-1,4,8,-4,-22,5,0
2815,1,1,0,-3,-5,0,1,-15,0
2820,7,1,-1,-1,2,3,13,16,0
2825,-6,-6,-5,-4,-10,-7,-2,-10,0
2830,6,-1,-3,-1,4,3,-6,-7,0
2835,-18,-9,-5,-6,-3,-6,-21,-37,0
2840,3,-9,-8,-8,-6,-3,-28,-70,0
2845,-10,-1,2,-1,0,5,12,-20,0
2850,14,2,2,3,9,-20,-15,19,0
2855,-16,-3,-5,-3,3,25,-8,-68,0
2860,1,-3,-5,-3,-11,-19,-16,43,0
2865,6,3,2,5,9,-3,6,-4,0
2870,-11,-8,-7,-3,0,10,-8,-34,0
2875,0,-1,-1,0,0,-9,16,14,0
2880,-7,1,2,0,-2,-9,-1,11,0
2885,-3,0,0,1,1,9,-1,16,0
2890,31,3,-1,-3,-2,-1,22,1,0
2895,1,2,3,2,5,-3,-6,10,0
2900,1,1,1,-2,1,9,4,18,0
2905,-4,-4,-3,-3,-19,-25,-9,-13,0
2910,-6,0,1,3,10,-4,-3,32,0
2915,-4,-3,0,1,2,-1,4,-51,0
2920,3,-2,-1,-3,-3,3,-6,0,0
2925,-5,-3,-4,-7,-18,-9,27,9,0
2930,-9,-1,-1,-2,6,14,-3,-30,0
2935,23,8,6,8,9,-11,-12,76,0
2940,-1,1,0,2,5,12,16,5,0
2945,0,-2,1,1,10,-12,-21,-9,0
2950,-3,-1,-1,-3,-10,24,25,3,0
2955,-6,0,0,-2,-7,-2,8,29,0
2960,7,-2,-1,0,2,-3,-3,-18,0
2965,-9,-2,-2,-1,1,7,0,-21,0
2970,7,1,0,-1,1,-2,6,23,0
2975,-2,-3,-2,-1,0,-12,-8,-4,0
2980,-5,2,1,1,-2,4,4,15,0
2985,-1,0,0,-2,2,6,4,1,0
2990,-9,1,-1,-1,-2,-8,-11,-53,0
2995,-8,-5,-1,0,-5,-15,-22,-13,0
3000,2,4,0,1,3,7,35,34,0
3005,-1,-5,-3,-3,-3,8,1,-25,0
3010,-5,2,1,1,2,2,4,38,0
3015,12,-3,-6,-8,-7,-1,-7,2,0
3020,-7,-4,1,0,0,-6,7,12,0
3025,25,3,-1,0,2,2,-4,9,0
3030,3,2,2,0,0,-5,-6,-18,0
3035,-5,-3,-2,-3,-3,4,1,30,0
3040,-13,-1,0,0,-1,-3,4,23,0
3045,-4,-4,-1,0,-5,9,16,8,0
3050,1,-2,-2,-1,4,2,-4,-3,0
3055,9,7,5,6,6,6,8,46,0
3060,-4,-3,-2,-2,-1,1,10,-10,0
3065,2,5,3,2,2,3,17,54,0
3070,2,-7,-6,0,2,-1,-30,-87,0
3075,-10,-3,-1,0,-2,-9,-8,-25,0
3080,-1,-1,-2,-3,-7,-7,-7,4,0
3085,-12,-7,-2,-1,3,4,2,-16,0
3090,7,2,3,6,4,-26,-36,12,0
3095,-16,-5,-1,0,0,-1,-13,-33,0
3100,5,-6,-8,-10,-1,13,-5,-56,0
3105,-5,-1,-3,-2,5,-8,7,-5,0
3110,-5,-1,-2,-2,-10,1,5,5,0
3115,-5,-1,2,-1,4,15,13,-29,0
3120,-1,1,0,0,-4,-15,-6,-13,0
3125,-8,-7,-1,-1,4,11,-18,-8,0
3130,15,6,2,-2,-4,-1,9,15,0
3135,-26,-11,-9,-4,-1,5,8,-31,0
3140,-11,-10,-1,4,4,1,6,-3,0
3145,21,22,7,1,-4,-15,-12,-30,0
3150,-9,-6,-3,-3,2,9,6,3,0
3155,-13,-2,-2,-1,-3,-17,-23,-19,0
3160,1,6,2,1,0,5,15,41,0
3165,6,-12,-6,-2,-4,-6,-7,16,0
3170,7,3,2,1,0,5,5,5,0
3175,5,5,3,2,1,16,21,14,0
3180,-6,-6,-6,-5,-9,9,18,3,0
3185,-6,-11,-6,-2,-1,5,-9,-53,0
3190,16,11,2,3,0,-11,-14,18,0
3195,-11,-3,-3,-2,-3,-7,-2,20,0
3200,-25,-13,-1,-4,-2,0,7,-58,0
3205,16,-1,-4,-7,-8,11,23,22,0
3210,19,0,-4,-2,0,-11,-27,14,0
3215,-25,-20,-5,-1,-1,-7,-6,-46,0
3220,28,34,12,2,2,3,15,28,0
3225,19,7,1,1,-1,-4,-6,35,0
3230,-5,-3,-4,-5,0,6,12,-9,0
3235,-15,-5,-2,-4,-15,-15,-17,-8,0
3240,-16,-15,-8,-3,0,-11,-11,8,0
3245,0,2,3,-1,-2,13,21,-20,0
3250,7,5,1,0,2,-18,-38,16,0
3255,-11,-3,-3,-2,0,24,25,9,0
3260,-6,-2,0,3,5,-38,-52,5,0
3265,3,-9,-9,-8,0,28,10,-60,0
3270,-5,9,6,6,1,7,20,39,0
3275,-8,-10,-9,-6,-4,13,1,-57,0
3280,5,5,4,1,1,-1,-3,-45,0
3285,-5,4,1,-2,-1,-17,-6,59,0
3290,1,-8,-2,2,-4,11,37,-6,0
3295,13,7,4,3,11,-7,-13,-2,0
3300,-13,-9,-10,-6,-9,18,2,-18,0
3305,-13,-6,-1,5,10,-20,-13,15,0
3310,3,-2,-1,-5,-5,-6,-24,-45,0
3315,14,11,4,-3,-2,4,32,64,0
3320,-14,-9,-4,-4,-13,4,9,0,0
3325,11,-2,-4,0,6,-4,-17,-6,0
3330,10,0,-2,-4,-2,2,8,26,0
3335,-9,1,0,5,14,29,2,-37,0
3340,14,-4,-1,-2,-9,-22,-37,14,0
3345,-3,2,1,-4,-13,2,34,1,0
3350,0,-4,0,1,1,-13,-17,9,0
3355,5,4,3,1,8,20,15,96,0
3360,-6,1,-2,-3,0,-6,-3,-18,0
3365,7,-1,0,-2,-1,27,50,69,0
3370,-17,-7,-3,-2,3,-6,-18,2,0
3375,9,7,3,4,-2,-36,-27,-9,0
3380,-3,-7,-7,-3,-1,5,3,21,0
3385,0,1,-1,2,-2,4,2,3,0
3390,12,3,0,1,-1,-13,-30,2,0
3395,-9,-3,-2,-5,-7,-2,30,11,0
3400,7,-4,-7,-5,2,-2,-2,-4,0
3405,-11,-6,-1,7,9,-8,-22,-41,0
3410,-17,5,1,-10,-17,21,57,14,0
3415,25,6,6,10,17,-17,-34,40,0
3420,-11,-7,-1,1,-7,9,31,-1,0
3425,-3,-7,-4,-2,-14,-17,-36,12,0
3430,2,14,2,0,2,9,13,-23,0
3435,-3,-4,-6,-10,-9,11,0,-85,0
3440,18,-1,2,2,3,-19,-9,58,0
3445,1,12,7,0,-1,4,2,-23,0
3450,3,-17,-11,2,3,-16,-21,8,0
3455,-3,-11,-6,-1,-8,-3,-1,7,0
3460,1,-10,-5,2,0,8,19,-8,0
3465,-3,5,1,-4,2,-12,-64,-3,0
3470,-3,-4,-1,-2,-4,-2,-9,-7,0
3475,11,5,0,1,-3,-11,19,50,0
3480,-6,-4,3,3,-4,4,-1,-9,0
3485,5,0,-3,-5,-5,0,-7,-2,0
3490,5,-5,0,0,0,-1,5,24,0
3495,-2,3,4,-2,9,7,-8,-53,0
3500,12,5,-1,-2,-13,2,7,21,0
3505,-7,-7,-4,0,1,-4,-4,-11,0
3510,-13,-4,-1,-2,2,-7,-12,-50,0
3515,-4,-1,3,-2,-9,-5,-7,8,0
3520,-5,0,-3,-2,2,2,14,-6,0
3525,-5,-2,-2,-1,8,29,8,24,0
3530,-8,-5,-4,-5,-10,-14,1,-58,0
3535,-4,-1,-3,-3,-2,-2,-15,14,0
3540,5,0,2,4,8,8,3,10,0
3545,0,-1,3,-2,-5,-16,-1,18,0
3550,0,10,1,2,4,8,2,17,0
3555,11,1,-1,1,-3,-1,0,-2,0
3560,-12,-6,-5,-3,-8,1,-2,-6,0
3565,18,2,3,2,0,-9,-12,-12,0
3570,-5,4,-4,-3,0,-5,-3,9,0
3575,-9,-5,-2,0,-2,-5,-12,-50,0
3580,-3,3,0,2,1,6,11,30,0
3585,-15,-11,-5,-4,-4,-6,-21,-52,0
3590,10,1,4,4,2,11,16,13,0
3595,-19,-8,-7,-4,1,1,-4,-48,0
3600,6,2,3,1,1,-28,-21,10,0
3605,3,2,0,-1,2,-2,-6,45,0
3610,-4,-7,-4,-5,-4,16,15,-18,0
3615,-7,2,1,-1,2,-15,-34,20,0
3620,-3,-3,2,3,6,16,18,8,0
3625,3,9,0,1,-4,-15,5,-14,0
3630,-1,-5,-4,-2,4,14,-1,3,0
3635,-7,-1,-2,0,-2,4,-2,-5,0
3640,-8,-3,-5,-3,-3,-1,8,-17,0
3645,12,2,2,1,7,-21,-32,14,0
3650,-2,3,0,2,-4,12,7,16,0
3655,1,0,0,-2,1,4,12,0,0
3660,-3,-6,-6,-6,-3,17,11,-5,0
3665,1,0,0,-2,-13,-9,-6,-11,0
3670,3,2,1,2,4,-3,1,2,0
3675,3,-2,0,-1,-20,-18,-5,22,0
3680,4,2,0,3,9,-2,-13,-7,0
3685,-6,-4,-3,-2,-15,-4,17,-6,0
3690,-2,-3,-1,-2,-6,-6,12,7,0
3695,1,-8,-3,0,6,-20,-14,17,0
3700,-4,8,2,0,-2,11,3,-11,0
3705,-7,-3,-4,-3,-3,2,16,-15,0
3710,9,3,1,0,2,2,13,26,0
3715,1,2,-1,-1,3,5,-5,-2,0
3720,2,-1,-1,-6,-11,-19,-18,-6,0
3725,-5,-6,-9,0,-2,0,0,-6,0
3730,1,0,2,-1,-4,11,-1,7,0
3735,-4,-4,-4,1,4,15,13,-4,0
3740,6,4,3,-3,-18,-28,-2,1,0
3745,1,3,3,1,4,3,-14,-2,0
3750,-7,-8,-8,-8,-9,-12,-2,-4,0
3755,0,0,-1,3,2,-15,-1,-5,0
3760,-1,-1,-1,1,10,23,-6,-6,0
3765,-3,-3,-1,-1,-1,-13,16,2,0
3770,0,1,2,2,1,-7,-20,-8,0
3775,6,4,2,1,12,17,-1,10,0
3780,-2,-4,-2,-2,-13,-7,16,5,0
3785,-1,0,1,2,5,-26,-56,60,0
3790,-2,-5,-5,-3,0,2,4,-40,0
3795,1,1,-1,-4,-8,4,12,31,0
3800,-5,-4,-2,-1,7,0,-10,-10,0
3805,-4,0,1,3,9,25,27,-18,0
3810,-12,-2,-2,-6,-19,-22,-28,3,0
3815,12,0,-1,3,2,2,4,-42,0
3820,2,-1,-3,-3,1,5,11,22,0
3825,-8,3,3,0,-2,4,16,8,0
3830,10,-4,-3,0,6,5,-7,36,0
3835,13,8,3,-2,-8,10,21,14,0
3840,5,3,2,4,4,-17,-17,15,0
3845,-5,-3,-1,-4,-1,7,4,-17,0
3850,-2,1,0,0,3,-3,10,12,0
3855,-12,-6,-2,-4,-12,0,-12,13,0
3860,11,0,-1,1,3,-20,-15,-2,0
3865,3,-3,-3,-6,-6,21,15,11,0
3870,-5,-2,-3,-1,-3,8,15,-13,0
3875,-6,-2,-2,-3,11,2,-2,-3,0
3880,-1,1,3,5,11,3,-9,-23,0
3885,1,-1,-3,-6,-32,-7,22,-19,0
3890,5,3,1,2,5,0,-4,13,0
3895,-5,-3,-3,-3,-3,4,0,5,0
3900,-10,-5,-2,1,6,10,3,-11,0
3905,7,1,0,-1,-2,-11,-6,6,0
3910,-1,0,0,1,2,0,1,-2,0
3915,0,0,-1,-4,-9,-7,-15,4,0
3920,-8,-2,-4,-1,-9,-11,-5,-3,0
3925,5,-3,-4,-4,1,23,19,-13,0
3930,0,3,2,4,5,-10,-1,4,0
3935,-5,-3,3,-1,3,2,10,-10,0
3940,-1,-2,-4,-4,13,7,3,10,0
3945,-1,-2,0,-3,-9,-15,-17,-9,0
3950,-3,0,2,-1,2,0,-4,-8,0
3955,2,-1,-1,-2,-8,6,4,24,0
3960,-2,-4,-3,0,-1,-3,-16,-37,0
3965,4,7,2,3,10,-3,-8,-7,0
3970,-4,-4,-3,-4,0,12,17,5,0
3975,0,0,1,-1,-5,-21,-9,-7,0
3980,0,1,1,-2,1,-3,-2,10,0
3985,-4,-4,-1,1,5,8,4,-1,0
3990,-4,-1,0,-2,-4,-4,-21,-35,0
3995,3,4,0,2,7,2,9,42,0
4000,-4,-3,0,-4,-4,17,2,-12,0
4005,0,-4,-4,2,1,-16,-8,0,0
4010,5,2,-1,-2,-4,-1,-13,14,0
4015,-10,-6,-5,-4,-6,0,1,-21,0
4020,1,2,2,2,6,-5,-7,7,0
4025,-5,-5,-4,-7,-1,5,6,-7,0
4030,-2,1,1,-1,5,2,-2,-4,0
4035,-4,-3,-3,-1,-5,2,1,-19,0
4040,-4,-3,1,-4,-4,-3,-3,-19,0
4045,0,4,1,-1,4,6,6,7,0
4050,-1,-2,-4,0,3,0,6,7,0
4055,-2,-5,-1,0,3,-7,-4,-9,0
4060,-1,3,1,-2,-10,6,19,9,0
4065,3,1,2,2,8,-3,-16,11,0
4070,0,-2,0,-1,4,1,4,-1,0
4075,-3,-2,-1,-1,5,-4,-13,-4,0
4080,-2,-5,-3,-1,-5,7,19,-2,0
4085,3,0,-1,-2,2,-3,-41,-29,0
4090,-20,-3,0,-2,-10,-8,3,-49,0
4095,1,-4,-2,0,8,-3,1,11,0
4100,-10,-5,-2,-3,-7,-9,22,-43,0
4105,-3,-5,-2,-3,-3,3,5,-40,0
4110,-13,0,2,5,3,0,-17,-28,0
4115,5,-1,-3,-4,-12,-17,-7,-8,0
4120,2,2,1,-1,-5,-7,-3,35,0
4125,-7,1,-1,0,1,12,14,8,0
4130,4,-2,-1,0,9,-25,1,11,0
4135,-5,2,1,1,-9,16,-5,-7,0
4140,7,3,1,1,2,-14,-19,2,0
4145,1,-1,1,4,5,-2,-6,33,0
4150,2,-3,-4,-5,-1,10,-2,12,0
4155,4,1,0,-2,4,0,7,7,0
4160,2,3,-3,-1,-7,-8,-17,7,0
4165,-4,-10,-8,-4,0,4,-5,4,0
4170,8,2,2,-1,-8,-6,11,19,0
4175,-5,-1,1,-1,3,0,-5,-13,0
4180,-5,-6,-4,-2,-2,-1,-13,0,0
4185,-2,3,2,1,-1,0,17,-4,0
4190,3,-2,-3,-5,-3,-2,-22,-12,0
4195,-5,-3,-2,-4,-15,-6,21,-44,0
4200,-2,0,1,2,12,-10,-30,5,0
4205,4,-3,-1,0,2,1,2,-46,0
4210,-1,-7,-5,-3,-12,0,9,-61,0
4215,5,7,2,2,5,-3,-9,34,0
4220,-5,-10,-2,-6,-3,20,20,10,0
4225,5,14,5,3,5,-4,20,21,0
4230,1,0,0,-1,-9,1,-9,26,0
4235,3,-1,0,-2,-1,-4,11,15,0
4240,-10,-3,-2,-1,1,0,-11,-23,0
4245,-2,-3,-3,0,-4,-7,-3,21,0
4250,3,0,-1,0,10,14,10,22,0
4255,-7,-2,-4,-3,-7,-11,-12,-23,0
4260,4,0,0,-3,5,20,8,16,0
4265,1,2,4,1,0,0,-8,4,0
4270,11,-4,-8,-4,-2,-8,-15,-11,0
4275,-3,-3,-1,0,-1,3,21,12,0
4280,8,5,1,5,4,4,-1,14,0
4285,-1,-2,-3,-4,-5,-1,-8,-3,0
4290,-2,2,4,3,-1,-3,6,7,0
4295,-1,-3,0,4,7,2,-12,1,0
4300,1,-1,-2,-4,-10,3,22,0,0
4305,-4,-2,0,-2,-5,6,6,8,0
4310,2,2,3,1,-4,-30,-25,17,0
4315,-1,-1,0,1,4,6,8,-3,0
4320,-2,0,0,1,-6,9,12,2,0
4325,-3,-5,-4,-6,-11,-20,-21,4,0
4330,0,4,0,-2,-2,10,20,9,0
4335,2,-1,-1,2,-3,-7,1,0,0
4340,5,3,1,0,2,-14,-22,37,0
4345,0,1,1,0,4,3,0,3,0
4350,-1,-3,-1,-1,-4,10,32,13,0
4355,-3,-3,-2,-3,2,-2,-16,-7,0
4360,1,1,-2,-1,0,-10,-13,-3,0
4365,-1,-4,0,1,2,1,7,-7,0
4370,-2,4,1,-2,-2,7,19,43,0
4375,2,-4,-3,-1,1,8,-20,-61,0
4380,2,0,2,-1,3,-1,8,20,0
4385,-3,-7,-5,-4,-7,-5,7,-3,0
4390,-2,-2,-2,1,4,12,10,-8,0
4395,-4,3,-1,-3,-15,0,8,22,0
4400,-4,-3,-3,0,1,-22,-26,-26,0
4405,1,-1,0,2,4,7,-2,-5,0
4410,-1,-1,-1,-1,-3,-5,-9,3,0
4415,-1,1,-1,0,1,5,14,50,0
4420,6,-4,-4,-4,-5,-5,4,-49,0
4425,-1,0,1,1,2,1,-1,8,0
4430,-3,-2,-1,-2,1,-5,-12,6,0
4435,0,-1,-1,-2,0,2,-13,-12,0
4440,-3,3,1,1,-9,3,12,63,0
4445,2,1,0,-3,-2,-5,-1,-1,0
4450,3,1,0,1,-4,11,16,-5,0
4455,-2,-3,-1,2,4,-18,-10,-4,0
4460,-4,-2,-3,-2,-4,2,1,7,0
4465,1,1,2,3,4,15,31,33,0
4470,5,-4,-3,-2,-11,-23,-45,-36,0
4475,4,2,0,-1,5,-18,-27,-7,0
4480,-8,-7,-4,-3,3,13,-2,-28,0
4485,-3,-4,-3,-5,-19,-26,-6,3,0
4490,-7,-2,-1,-2,0,11,11,-19,0
4495,-6,0,1,1,-1,-2,-1,2,0
4500,3,-3,0,0,6,10,-18,-40,0
4505,-5,-1,-3,-3,-10,-8,2,13,0
4510,-3,0,1,-1,17,1,-12,1,0
4515,2,-5,-4,-5,-13,5,-3,-6,0
4520,-6,0,2,2,8,13,9,-28,0
4525,-1,-2,-4,-6,-10,10,11,7,0
4530,-7,-4,-4,-1,-2,-22,-31,-27,0
4535,-1,1,-1,-3,1,5,22,1,0
4540,2,2,-2,-2,-15,-20,-23,7,0
4545,5,1,2,4,20,21,20,-8,0
4550,-6,-6,-4,-3,-6,-8,4,-4,0
4555,-3,-1,-2,-3,-7,9,3,-11,0
4560,-3,-4,-2,-1,0,-4,-7,10,0
4565,4,3,1,0,4,-18,-17,-19,0
4570,-4,-3,-1,-4,-13,8,32,3,0
4575,10,6,7,7,5,2,26,51,0
4580,0,-2,-3,0,-5,17,17,-32,0
4585,-7,-5,-3,0,7,-2,-12,-6,0
4590,4,1,-1,-4,-4,-4,8,2,0
4595,2,-2,-2,-2,2,1,-5,22,0
4600,-4,-4,-1,-5,-4,-17,-16,-14,0
4605,-6,-2,-2,-4,-5,1,-9,-10,0
4610,-1,1,0,1,9,16,4,5,0
4615,-1,0,0,4,9,-15,-29,-6,0
4620,1,0,0,0,0,11,22,18,0
4625,-2,-2,-2,-1,-4,-11,-22,12,0
4630,0,-1,1,0,4,19,16,5,0
4635,-8,-3,0,0,5,-25,-22,-18,0
4640,-5,-1,-2,-4,-10,-22,-7,20,0
4645,3,-5,-1,0,8,21,28,-39,0
4650,3,0,0,3,2,-13,-15,21,0
4655,1,-1,-2,1,-3,24,28,9,0
4660,-7,0,0,-2,-4,-6,18,15,0
4665,-3,-2,-2,-2,-7,-9,2,10,0
4670,0,1,-2,-1,-2,-9,-16,-9,0
4675,-12,-1,-2,-5,-4,1,4,-21,0
4680,0,0,-1,-2,10,-3,-2,5,0
4685,0,-1,1,2,-4,-30,-35,-5,0
4690,2,2,-2,-2,-2,8,25,27,0
4695,0,-1,-1,1,1,4,-8,-5,0
4700,-9,-11,-7,-3,6,-5,-21,-35,0
4705,-9,-4,-5,-4,-5,15,29,14,0
4710,15,1,0,3,-6,-33,-50,8,0
4715,-6,0,0,2,7,18,17,9,0
4720,-7,-10,-7,-9,-5,3,9,-94,0
4725,-2,-1,0,-2,-1,-2,5,16,0
4730,6,0,0,-3,-5,-15,-40,-5,0
4735,-11,-3,-2,-2,-7,-9,-5,-6,0
4740,27,8,5,5,1,17,32,90,0
4745,0,0,1,2,5,-6,-6,-6,0
4750,-10,-3,-1,-2,0,9,12,-18,0
4755,-5,1,1,2,-1,-5,-7,-16,0
4760,-3,1,0,-1,-4,7,11,22,0
4765,4,4,1,-2,0,0,-2,9,0
4770,-6,-6,-5,-3,-2,-2,3,-25,0
4775,-3,-2,-2,-2,-2,1,1,-3,0
4780,-5,1,1,3,1,0,-10,-13,0
4785,-5,-4,-3,0,-3,-6,-20,-62,0
4790,-13,-3,-1,0,3,0,-2,-25,0
4795,0,-4,-4,-5,-5,-1,-2,-35,0
4800,-11,-9,-4,-5,-3,-2,-8,-16,0
4805,1,3,3,1,-2,-15,-21,27,0
4810,3,1,2,5,3,-13,-19,4,0
4815,-1,0,-1,-1,-5,4,10,12,0
4820,-7,-2,0,-2,2,22,31,38,0
4825,-8,-5,-2,-1,-1,-2,3,-24,0
4830,-9,-6,-3,-4,-3,4,4,-14,0
4835,13,3,0,-2,1,-14,-21,7,0
4840,6,0,0,1,0,-3,6,12,0
4845,2,-3,-3,-3,-2,1,-4,18,0
4850,6,-1,-2,-1,1,-2,4,-6,0
4855,-5,0,-1,-2,0,-3,-9,-13,0
4860,-4,-1,-4,1,1,12,10,-9,0
4865,-6,-2,-2,-4,-7,-1,3,-6,0
4870,-5,4,3,3,5,-2,3,4,0
4875,3,1,-3,-3,2,2,-14,-1,0
4880,0,-6,-5,-5,-11,-11,-8,-17,0
4885,-7,-2,-1,0,1,0,4,-5,0
4890,1,3,1,0,1,-11,-19,11,0
4895,-4,-5,-3,-5,-14,10,25,-2,0
4900,1,-1,-1,-2,-1,5,16,13,0
4905,-1,-3,-4,-1,-8,2,18,13,0
4910,-2,0,3,2,18,16,-5,-6,0
4915,0,2,3,-1,-5,-7,1,14,0
4920,1,-7,-2,-3,2,6,-6,4,0
4925,-5,1,0,-1,0,-11,2,-12,0
4930,-3,-5,-6,-6,-9,-2,1,-8,0
4935,-1,0,-1,3,9,-3,-10,0,0
4940,2,2,3,5,1,4,10,9,0
4945,-3,-3,-3,0,6,-3,-8,-13,0
4950,-2,1,-2,-3,-4,6,4,-5,0
4955,3,-2,-1,2,-3,-16,-18,2,0
4960,-1,-1,-1,0,-1,-9,-4,14,0
4965,-1,-1,-2,-1,-3,-3,1,-7,0
4970,2,1,0,-3,-6,4,16,11,0
4975,3,-1,0,2,7,10,-5,1,0
4980,-3,-2,-4,-2,-1,-7,9,1,0
4985,-9,-2,-3,-2,1,-1,-13,-6,0
4990,0,1,0,-3,-10,-10,-8,0,0
4995,3,2,1,-3,1,3,-15,-4,0
5000,6,2,2,5,3,5,10,18,0
5005,-4,-3,-3,-1,-3,2,0,-1,0
5010,-2,0,0,-2,1,-10,-19,11,0
5015,-10,-5,-2,-3,0,3,5,-34,0
5020,0,0,-1,0,0,1,10,-1,0
5025,5,3,-1,0,8,10,2,3,0
5030,4,1,2,6,-4,-12,-12,14,0
5035,-3,-2,-2,2,8,2,1,9,0
5040,0,-2,0,-2,-2,4,9,-1,0
5045,-3,-4,-5,-5,3,-16,-8,-8,0
5050,-3,-2,-4,-4,-8,10,2,-13,0
5055,1,3,0,-2,0,1,4,7,0
5060,-3,-4,-1,4,2,0,2,-15,0
5065,-5,-4,-1,-3,-8,-5,-4,-6,0
5070,1,-3,-3,-3,1,-3,-14,-12,0
5075,-2,2,1,-1,-5,-13,-6,8,0
5080,-2,-2,-2,-6,4,12,-20,-6,0
5085,1,2,1,5,10,16,24,8,0
5090,-1,-1,-3,3,6,19,11,-9,0
5095,1,-4,-4,-4,-5,-7,1,-4,0
5100,1,5,3,-2,-4,-15,-10,7,0
5105,-7,-4,-4,-4,-3,27,39,3,0
5110,2,1,4,3,10,-23,-33,2,0
5115,-3,-1,-2,-4,-2,14,18,15,0
5120,-4,-3,-4,-4,-15,-12,-14,-20,0
5125,3,1,-1,-2,-4,3,9,-6,0
5130,-4,-1,-2,-3,-4,-14,-13,-3,0
5135,-1,1,1,-2,0,7,-1,-21,0
5140,-2,-2,1,1,1,12,19,12,0
5145,0,-2,-2,-3,-8,-39,-35,1,0
5150,-8,-5,-4,-3,-14,-5,4,-17,0
5155,2,-2,1,1,-1,-7,-16,10,0
5160,-3,-4,-6,-3,0,11,18,-14,0
5165,-4,-8,-2,-2,-2,-5,-26,-18,0
5170,-2,6,2,1,8,-14,-8,10,0
5175,0,0,-1,0,3,12,20,8,0
5180,3,-1,-1,1,-1,-9,-11,-34,0
5185,7,-1,1,0,2,14,-6,13,0
5190,-3,-4,-4,-5,-4,2,22,10,0
5195,-2,0,1,1,3,8,4,20,0
5200,-3,-3,-1,-1,4,5,6,-16,0
5205,-3,1,1,-1,-4,-13,-21,1,0
5210,1,-1,-1,0,4,9,12,22,0
5215,1,3,3,-2,1,-5,-2,1,0
5220,5,-2,-2,0,-4,3,1,28,0
5225,2,1,0,-2,-6,3,1,-17,0
5230,0,2,2,2,6,-19,-11,18,0
5235,1,0,0,-1,-3,-2,-7,-19,0
5240,1,-1,-2,-4,-4,9,12,10,0
5245,-2,-4,-2,-3,-3,-11,1,8,0
5250,2,-3,-1,-2,-4,5,4,33,0
5255,-9,-2,-2,1,-1,-4,-7,-25,0
5260,-7,4,0,0,-2,12,15,-24,0
5265,7,4,3,0,2,-15,-25,-4,0
5270,-3,-3,-1,0,-2,3,5,2,0
5275,0,1,-2,-6,-3,1,-1,-4,0
5280,0,-1,-1,2,1,0,8,12,0
5285,-6,-1,-1,-2,3,1,4,9,0
5290,-3,-2,-1,-2,-13,-6,0,1,0
5295,3,-2,-2,0,-1,-2,-5,-21,0
5300,-3,-1,-3,-3,6,15,11,-6,0
5305,-3,2,4,12,24,-16,-23,5,0
5310,5,2,1,-9,-41,-4,23,28,0
5315,-7,-5,-5,-2,0,-4,-11,0,0
5320,0,-1,-1,-3,-5,-3,0,5,0
5325,-2,-3,0,0,5,13,14,-24,0
5330,-1,0,-1,2,-2,-6,-8,-9,0
5335,3,1,2,2,2,-8,-15,16,0
5340,-2,-4,-4,-3,-5,-6,-7,-5,0
5345,-2,-4,-3,0,-7,9,13,16,0
5350,-5,-6,-2,-2,9,-13,-15,-21,0
5355,-1,3,0,-2,-2,8,8,16,0
5360,11,13,2,0,3,-6,-3,-3,0
5365,-2,-3,-4,-4,-6,-1,-4,-15,0
5370,-2,-4,-3,-2,7,10,1,4,0
5375,-4,-8,-2,1,4,-6,7,-1,0
5380,-6,-6,-2,3,1,7,-12,-12,0
5385,2,1,0,-3,-4,11,26,26,0
5390,6,-2,-1,-4,2,-15,-28,-39,0
5395,-2,2,-2,0,-8,6,-3,22,0
5400,-7,-4,0,1,-6,-24,-16,-36,0
5405,-10,-1,-3,-3,1,17,11,-11,0
5410,3,-1,-2,4,7,-11,-9,5,0
5415,-4,0,0,-3,-12,-6,6,-18,0
5420,-1,-3,-2,-5,-14,-11,-9,5,0
5425,-5,-3,-4,3,20,-8,-14,-10,0
5430,3,4,-6,-19,-35,16,31,47,0
5435,1,3,2,2,6,-1,-1,27,0
5440,-1,-3,3,11,17,3,1,14,0
5445,8,3,4,-7,-15,-16,-3,-1,0
5450,0,-2,-4,-3,0,14,-2,11,0
5455,1,-2,0,1,3,-8,12,11,0
5460,3,4,-2,-2,5,21,6,3,0
5465,-2,-2,1,3,-4,10,6,-3,0
5470,-5,2,4,7,11,-27,-22,18,0
5475,7,-5,-9,-10,-5,6,-1,-29,0
5480,-6,-7,-3,-3,-5,-26,-3,-6,0
5485,-13,-5,-3,1,17,34,5,-15,0
5490,10,10,-3,-1,-7,4,-9,-55,0
5495,-8,-3,-1,-2,4,6,5,-7,0
5500,0,2,-5,2,0,-19,-19,14,0
5505,-2,-7,0,-14,-18,-5,10,12,0
5510,-12,-8,-11,-5,3,18,-1,-12,0
5515,-1,0,5,4,11,-24,-9,-2,0
5520,-1,-4,-6,-2,-1,-5,-9,-18,0
5525,2,5,-5,-4,-4,-3,-12,-16,0
5530,-5,-2,1,-5,-11,0,8,-5,0
5535,-3,-1,1,2,-6,2,2,-10,0
5540,-2,-2,1,-2,-10,3,1,7,0
5545,1,-4,-5,-3,-2,-21,-10,-5,0
5550,0,-1,4,1,7,-3,0,2,0
5555,-2,2,-2,-4,-6,-1,0,10,0
5560,3,0,6,1,9,11,7,5,0
5565,6,1,-2,-2,-11,-16,-9,0,0
5570,3,1,1,7,17,1,4,28,0
5575,-5,-8,-3,1,4,1,-8,-24,0
5580,-11,0,2,-1,-7,18,20,33,0
5585,-3,-9,-6,-2,2,-37,-40,-75,0
5590,0,-2,4,4,3,5,8,35,0
5595,11,5,-4,2,1,-2,-6,29,0
5600,-1,2,4,-3,-2,3,1,3,0
5605,-4,-2,-1,-2,-9,5,6,8,0
5610,-8,-4,1,8,16,0,-7,-24,0
5615,1,1,2,0,3,2,-1,-11,0
5620,-3,-6,-7,-12,-12,-5,-7,-39,0
5625,-5,-1,-1,-3,-13,-4,0,11,0
5630,2,1,-1,3,3,5,-1,-17,0
5635,-4,-1,0,-3,-10,14,12,1,0
5640,4,0,-3,-4,-2,19,0,11,0
5645,4,4,6,5,8,-11,2,14,0
5650,-2,0,1,5,2,-2,2,-10,0
5655,-1,-1,-5,-3,5,-5,-6,16,0
5660,-5,-4,2,6,4,-5,4,-65,0
5665,11,1,-5,-2,1,12,-14,-6,0
5670,-14,0,0,-1,5,6,17,29,0
5675,7,1,2,-4,-6,-4,5,-7,0
5680,6,-2,-2,-4,-4,-6,-2,32,0
5685,-3,-3,-3,-1,-3,3,-4,-37,0
5690,-3,0,1,-2,-1,-4,10,18,0
5695,28,3,0,0,-2,5,-4,70,0
5700,-14,-7,-3,-4,-2,-11,-10,-31,0
5705,5,7,2,-2,-5,4,17,28,0
5710,-1,-6,-2,-3,-2,2,-4,8,0
5715,-8,1,-2,-1,-3,-4,-5,-42,0
5720,14,1,-2,-3,-1,-3,-6,13,0
5725,-2,-1,0,1,1,4,3,13,0
5730,0,-4,-5,-6,-4,-6,-11,-52,0
5735,-8,-2,0,-3,-5,-9,-7,-1,0
5740,-6,0,-1,-1,3,-1,3,1,0
5745,-8,-2,-1,-1,-2,2,5,-6,0
5750,-2,-3,-3,-6,-4,-3,-11,-20,0
5755,-9,-3,-1,2,1,-1,-1,-16,0
5760,1,-1,-2,0,-2,-2,0,20,0
5765,-6,-2,0,0,-3,-2,10,29,0
5770,3,1,0,-2,0,4,5,-4,0
5775,-6,-5,-2,-2,-2,-6,-15,-27,0
5780,3,-1,-1,1,1,-2,-5,-4,0
5785,8,3,1,2,3,9,15,45,0
5790,-2,4,3,1,1,-3,3,46,0
5795,-5,0,1,-1,-1,4,11,27,0
5800,2,1,2,3,-2,-9,4,31,0
5805,-2,-2,0,0,4,5,-9,-25,0
5810,3,3,1,2,1,0,2,6,0
5815,7,0,1,0,-1,-1,5,8,0
5820,3,0,-1,-2,-1,1,-6,10,0
5825,4,-1,-2,-1,-4,-5,-7,-11,0
5830,-7,-4,-3,-1,1,-4,-10,-25,0
5835,-5,-1,-1,-4,-1,-1,-5,-13,0
5840,-11,-5,-4,0,4,1,-4,-46,0
5845,-8,0,-1,-7,-11,-4,3,-9,0
5850,11,0,-3,-3,-2,-3,-2,4,0
5855,-12,-4,-3,-1,-4,4,17,-13,0
5860,7,0,0,-1,1,-3,-3,46,0
5865,-1,-1,-3,-1,-3,-1,0,14,0
5870,-7,-6,-1,-2,-1,0,-10,-14,0
5875,2,-1,-1,-1,-1,-3,7,55,0
5880,-2,0,-2,-2,-1,-3,-1,-6,0
5885,3,0,0,-1,3,9,-7,-2,0
5890,-1,-2,1,-2,-3,-8,6,9,0
5895,-2,-4,-3,-2,-3,-5,-5,-18,0
5900,8,6,3,5,10,13,17,2,0
5905,-4,-3,-2,1,0,-11,-18,-11,0
5910,0,0,-2,-2,-2,1,1,-13,0
5915,-1,0,0,-2,0,-9,-8,2,0
5920,-5,-4,-2,-2,-2,-4,-7,2,0
5925,0,-5,-2,-2,1,-1,-8,-30,0
5930,-3,0,-2,0,-1,-3,-7,9,0
5935,2,-1,0,0,2,3,7,0,0
5940,11,-1,-4,-5,-4,1,-8,-9,0
5945,-7,-4,-4,1,3,0,0,11,0
5950,1,-5,-5,-5,-6,0,2,-30,0
5955,-8,-3,-3,0,0,1,-10,-20,0
5960,-16,-2,-2,-3,-3,-10,-5,1,0
5965,-6,-6,-3,-5,-4,-3,0,-17,0
5970,5,3,3,3,5,7,1,10,0
5975,-4,-2,0,-1,0,-1,2,-7,0
5980,-2,-1,0,-3,-3,-3,-2,-4,0
5985,3,1,1,2,-2,-5,1,29,0
5990,-3,-1,-2,0,0,-5,-14,-39,0
5995,0,0,0,-3,1,17,17,-12,0
6000,14,-4,-6,-8,-9,-17,-25,4,0
6005,-5,1,2,0,-1,-2,10,6,0
6010,2,0,0,1,2,5,4,15,0
6015,-6,-2,-2,-2,-1,-9,-20,-48,0
6020,-2,-1,-1,-1,-2,10,8,3,0
6025,0,0,-1,-1,1,-1,5,4,0
6030,-10,-3,-1,-2,-3,-4,7,30,0
6035,4,0,-3,-1,-3,-7,-7,14,0
6040,-1,2,3,-1,-1,16,18,21,0
6045,3,0,1,0,1,-2,-15,-5,0
6050,3,2,1,0,0,-4,13,63,0
6055,-3,-1,1,3,4,6,-1,-14,0
6060,2,-1,-1,-2,2,-1,-5,1,0
6065,0,-3,-1,-2,-4,-1,0,4,0
6070,-2,-4,-4,-2,-1,-2,-13,-51,0
6075,6,-2,-1,0,-1,-3,-5,12,0
6080,10,3,0,-1,0,3,2,13,0
6085,-10,-3,-2,0,0,2,1,-41,0
6090,-1,-1,0,-3,-4,-1,-3,-8,0
6095,2,2,-1,0,-3,-4,2,2,0
6100,-9,-2,-1,2,4,1,-2,-26,0
6105,3,-1,-3,-2,-2,-1,1,19,0
6110,13,1,-2,-3,-2,0,-13,-12,0
6115,-1,1,0,-3,-3,0,-1,4,0
6120,-3,1,1,1,-3,-6,0,6,0
6125,9,1,-2,0,0,6,8,26,0
6130,-3,0,-2,-2,0,-1,2,-17,0
6135,-11,-2,0,0,0,-3,5,2,0
6140,12,-2,-1,0,-3,-1,-17,-8,0
6145,1,0,-1,-2,-2,-5,-1,13,0
6150,-16,-7,-3,2,2,2,-2,-42,0
6155,1,0,-2,-3,-4,-4,-5,9,0
6160,-8,-3,0,0,-2,-1,4,0,0
6165,-4,-1,2,1,-1,-3,2,7,0
6170,5,2,-1,0,0,6,5,37,0
6175,-6,-5,-1,-1,1,-2,5,20,0
6180,-6,-2,-3,-1,4,0,-5,-28,0
6185,-4,-3,-3,-3,-3,0,-2,-20,0
6190,-5,-3,-1,-1,-3,-2,1,-4,0
6195,-1,-1,-3,-1,-2,-1,-5,-9,0
6200,-5,-2,-1,1,-2,-4,0,5,0
6205,-3,-2,-3,-2,0,-3,-10,-27,0
6210,-4,1,1,1,-1,-1,3,7,0
6215,13,-3,-2,1,2,0,-14,5,0
6220,-2,-1,-1,-2,-4,-4,1,5,0
6225,0,-1,-2,0,1,0,-3,-4,0
6230,0,-1,-1,-2,-1,-5,-5,-15,0
6235,-5,0,0,-2,1,4,0,-27,0
6240,5,2,-1,0,1,-2,4,16,0
6245,7,2,2,-1,-2,-5,-8,-3,0
6250,-1,-5,-2,-2,-5,2,8,32,0
6255,-1,-1,-2,0,0,-4,-4,-13,0
6260,-7,-3,-3,-3,-3,-4,-1,-15,0
6265,-4,0,0,1,0,1,4,9,0
6270,4,3,-2,1,-1,-3,1,20,0
6275,1,1,-1,-4,-4,-2,9,24,0
6280,-8,-4,-1,-2,-1,0,-5,-13,0
6285,1,-6,-4,-3,-1,-4,-18,-39,0
6290,-5,-2,-1,0,-2,-2,-6,-21,0
6295,-1,0,-1,-1,1,0,0,0,0
6300,-1,0,0,0,-1,-1,-4,-3,0
6305,-16,-5,-3,-3,0,1,14,-24,0
6310,3,0,-1,-1,0,0,0,-1,0
6315,-3,0,1,-1,-3,-1,6,26,0
6320,7,2,-1,0,5,-1,0,28,0
6325,-3,-1,0,2,0,8,10,21,0
6330,0,-1,-1,-3,-2,-2,-4,-7,0
6335,-3,-3,-1,0,-1,-3,-2,-16,0
6340,-9,-1,0,-1,-1,-3,7,9,0
6345,0,-1,-1,0,-1,-3,-6,2,0
6350,-7,-2,0,-3,2,2,5,-5,0
6355,7,1,2,1,1,2,3,39,0
6360,-7,-3,-1,-2,-1,0,0,-25,0
6365,-3,0,-1,-1,0,-2,0,5,0
6370,-5,-3,-1,0,-2,-3,-1,0,0
6375,4,0,-3,-4,-4,-3,-4,-9,0
6380,-5,-3,1,0,2,-2,-8,-45,0
6385,3,-2,-1,-3,-1,-3,0,3,0
6390,2,0,-2,-3,-2,-3,-3,5,0
6395,-8,-4,-2,-2,-2,-2,-7,-25,0
6400,-5,-4,-4,-2,-2,-4,-14,-61,0
6405,-4,1,1,1,1,0,6,20,0
6410,1,-1,0,0,0,-1,-1,-2,0
6415,-7,-2,0,-1,-1,0,-1,-16,0
6420,5,3,1,0,-4,-3,5,31,0
6425,-6,-1,0,-2,1,-2,-5,-17,0
6430,1,-1,-1,0,1,0,-4,-14,0
6435,-2,-2,-2,-1,-1,-4,-4,-9,0
6440,1,1,0,0,1,-1,3,23,0
6445,6,0,-2,-1,-2,-2,-1,10,0
6450,7,-1,-2,-2,2,-2,-9,4,0
6455,7,2,2,0,0,1,-2,31,0
6460,-4,-3,-2,-2,-1,-1,-1,-5,0
6465,9,2,-1,-1,-4,-4,3,41,0
6470,0,0,0,-2,-2,-2,5,6,0
6475,-8,-3,-3,1,4,5,-6,-26,0
6480,3,-1,0,-1,-3,-2,0,6,0
6485,-5,-1,0,-1,-3,-1,1,6,0
6490,-13,-3,-1,0,1,-2,5,-5,0
6495,1,-1,0,-3,-2,-5,4,16,0
6500,-2,2,-1,0,1,4,1,5,0
6505,-4,-4,-3,0,-2,-3,-2,-10,0
6510,-3,-2,0,1,0,1,0,2,0
6515,2,0,-1,-2,0,-4,-2,-2,0
6520,8,0,-1,1,1,1,6,71,0
6525,6,-1,-3,-3,-3,-4,-9,-15,0
6530,4,0,-3,0,-2,-1,0,21,0
6535,-3,-4,-2,-1,2,-1,1,-5,0
6540,2,0,1,-4,-1,-4,1,0,0
6545,-2,-1,-2,-1,-1,1,1,-5,0
6550,3,0,1,0,-4,-1,1,9,0
6555,-13,-4,0,1,-1,0,-3,-29,0
6560,-1,-2,-2,-1,-1,-2,2,3,0
6565,-1,0,-1,-1,0,-2,-1,25,0
6570,-1,-1,0,1,2,-2,-8,-21,0
6575,-14,-3,0,0,1,2,1,-44,0
6580,-13,-5,-2,-1,-2,0,1,-23,0
6585,-13,-5,-2,-3,-4,-3,-9,-73,0
6590,-2,1,-2,0,-1,-1,-4,-1,0
6595,2,1,-3,-2,-3,-2,-2,10,0
6600,-4,1,-1,1,2,1,2,0,0
6605,3,-2,-2,-1,0,-1,5,38,0
6610,-5,-3,-3,-4,-2,-1,-1,-12,0
6615,4,-1,-1,-1,-1,-4,-2,-7,0
6620,3,1,-3,-2,-2,-1,-3,-9,0
6625,-1,3,2,1,1,2,14,32,0
6630,4,1,0,-1,-3,-1,-2,-4,0
6635,1,0,-2,0,3,-1,-5,12,0
6640,12,0,-2,-6,-7,-2,-1,11,0
6645,2,0,0,1,2,0,-1,2,0
6650,-7,-5,-2,1,0,-2,-1,0,0
6655,-2,-2,-2,0,-2,-1,-4,-20,0
6660,-14,-5,-1,-2,-2,2,0,-33,0
6665,-2,-1,0,0,-2,-3,0,1,0
6670,6,1,-2,-2,-2,-4,-2,1,0
6675,5,-2,-3,-4,-3,-4,-3,9,0
6680,-4,-3,0,1,-2,-3,-2,-6,0
6685,-3,-2,-1,-1,-2,-1,-2,-6,0
6690,-1,-1,-1,-1,2,-1,-3,-10,0
6695,-2,1,1,-1,-3,-2,4,33,0
6700,-1,-3,-2,-2,2,-3,-6,-16,0
6705,12,0,-2,-2,-3,-2,-17,-28,0
6710,-2,-3,-3,-1,-2,0,-1,-15,0
6715,2,2,0,0,1,0,5,15,0
6720,-5,0,1,1,2,4,5,29,0
6725,-8,-3,0,2,0,0,0,-35,0
6730,-4,-2,-1,-1,-1,-1,-2,-2,0
6735,-4,-2,-1,-2,-1,0,-4,-34,0
6740,-1,2,0,1,0,1,9,21,0
6745,0,0,0,-1,-1,-1,3,11,0
6750,-2,-2,-1,-3,-4,-1,-1,6,0
6755,0,-1,-3,0,-2,-1,1,4,0
6760,-3,-2,1,-2,0,-1,-6,-13,0
6765,-1,-1,-2,-1,1,-2,-3,9,0
6770,2,0,0,0,0,-1,-3,-4,0
6775,-4,-2,0,0,0,0,-1,-4,0
6780,-2,-2,-4,-1,-4,-3,-3,-3,0
6785,12,2,-3,-1,1,-2,-13,10,0
6790,-19,-3,-1,0,-2,-3,5,-12,0
6795,2,-1,-3,-4,-1,-1,-6,-22,0
6800,0,-3,-2,-2,-3,-2,-5,-13,0
6805,-9,-4,-3,-3,-1,-2,5,14,0
6810,8,0,-1,1,-1,-1,-4,19,0
6815,-1,-2,0,0,-2,-2,-2,2,0
6820,4,0,0,-1,-2,0,-3,15,0
6825,0,-1,1,-2,-1,-3,1,5,0
6830,4,0,-2,-1,-2,-1,0,-2,0
6835,-4,-2,-2,-1,-3,-3,4,1,0
6840,5,1,-2,-1,-1,-2,-2,7,0
6845,-3,-1,0,-2,-4,-1,1,3,0
6850,-2,-2,0,0,0,1,-1,-7,0
6855,0,-1,-2,-1,-1,-1,-1,7,0
6860,-6,-3,-1,-1,1,-1,1,2,0
6865,8,1,-2,-1,-1,-3,-8,-18,0
6870,5,-1,-3,-3,1,-2,-11,-31,0
6875,5,0,-1,-1,2,0,2,20,0
6880,5,-2,-3,-2,-1,-2,-11,-22,0
6885,-3,-2,-2,-1,-1,0,4,10,0
6890,-1,1,-3,0,-2,-2,0,7,0
6895,2,1,0,-1,2,-1,-6,9,0
6900,-6,-1,-3,-3,-3,-2,-2,-33,0
6905,1,2,2,1,-1,4,9,11,0
6910,-7,0,0,1,1,0,4,10,0
6915,-5,-4,-2,1,1,1,1,-3,0
6920,-4,-3,-3,-1,-1,-1,0,-5,0
6925,-3,0,0,0,0,0,-3,3,0
6930,1,0,0,-3,-4,-2,-2,13,0
6935,-10,-4,-1,0,1,0,-3,-23,0
6940,6,-1,0,-6,-4,-4,-11,-7,0
6945,-4,-2,-1,0,-1,-2,-2,-10,0
6950,-1,-1,-1,-1,-2,-3,0,-3,0
6955,-2,0,-2,-2,-2,-3,-3,-9,0
6960,-12,-4,-1,0,1,-3,-2,-35,0
6965,-3,0,-2,-1,-2,-2,0,-9,0
6970,0,-2,1,-2,-2,-2,-5,-12,0
6975,2,2,1,-2,-4,-1,3,17,0
6980,-7,1,1,1,1,1,5,3,0
6985,-4,-3,-1,-2,-2,-1,-5,-20,0
6990,-3,-3,-1,-1,0,1,1,2,0
6995,1,0,1,0,0,-1,-1,-7,0
7000,1,0,0,0,0,-2,3,21,0
7005,-1,-3,-3,-1,1,-1,-2,0,0
7010,0,-1,-4,-2,0,-1,3,16,0
7015,-14,-6,-2,-1,-6,-4,-1,-46,0
7020,12,5,0,1,1,-1,3,53,0
7025,-1,-1,0,-3,-3,-4,2,19,0
7030,-2,-3,0,-1,1,-1,-5,8,0
7035,6,1,-1,-2,-4,-1,2,14,0
7040,-5,-2,1,0,1,1,1,-4,0
7045,-1,1,-3,-3,-2,-2,2,-9,0
7050,0,-2,0,-1,0,-2,-1,-3,0
7055,3,1,-1,-1,0,0,4,37,0
7060,-3,-4,0,0,0,0,-6,-13,0
7065,6,3,0,0,2,3,3,16,0
7070,-4,-3,-1,-3,0,1,-1,-14,0
7075,3,-2,-1,-1,-3,-1,-4,2,0
7080,3,1,-2,-1,-2,-1,-3,4,0
7085,-9,-5,-2,-1,0,-2,-5,-15,0
7090,-10,-3,-2,-1,1,-2,-3,-41,0
7095,4,-1,-2,-2,-4,-2,-2,-4,0
7100,-9,1,-3,-1,0,-1,0,-33,0
7105,0,-2,-1,0,-1,0,0,3,0
7110,-3,0,0,-1,-3,-1,2,9,0
7115,8,1,-2,1,2,0,-9,-5,0
7120,-2,-5,-4,-1,-2,-2,-8,-19,0
7125,-1,-1,-2,-3,-4,-3,-2,5,0
7130,0,-2,-2,-2,0,-2,-3,2,0
7135,-2,-2,-2,-1,-1,-2,2,0,0
7140,-3,-1,0,-2,1,0,-1,-10,0
7145,-1,-3,-2,-2,-6,-2,-4,0,0
7150,0,1,0,0,1,1,4,11,0
7155,-8,-4,-1,-1,-1,0,-1,-16,0
7160,4,2,1,-2,0,-2,-1,11,0
7165,-1,-1,1,-2,0,-3,0,-10,0
7170,11,3,0,-1,-2,0,-1,17,0
7175,10,3,-2,0,-1,-2,2,56,0
7180,-4,2,0,3,-1,2,10,14,0
7185,0,-1,-3,-2,0,0,-5,-21,0
7190,3,1,-3,-1,-3,0,-1,11,0
7195,-3,0,-3,-3,-1,-1,-2,-9,0
7200,-6,-5,-3,-1,-3,-3,-8,-15,0
7205,-3,-2,-2,0,0,-2,-1,-2,0
7210,-2,0,1,0,-3,0,0,1,0
7215,-6,-2,-2,0,1,0,-2,-14,0
7220,3,0,-2,-1,-1,-2,-2,13,0
7225,-5,-1,0,-2,0,0,-3,-7,0
7230,-3,-3,-1,-2,0,-3,-1,-17,0
7235,2,1,0,-4,-4,-3,0,10,0
7240,-5,-3,0,-1,0,-1,0,1,0
7245,-1,0,1,1,4,1,2,1,0
7250,-3,-3,2,0,3,1,-13,-57,0
7255,-5,0,-2,-1,-1,-2,0,-5,0
7260,2,-3,0,-4,-5,-3,-6,-1,0
7265,-2,-2,-2,1,-1,-1,-3,6,0
7270,0,-1,-2,-2,-4,-3,-3,6,0
7275,-6,0,1,1,-1,0,2,17,0
7280,-6,-6,-5,-5,1,-1,-11,-66,0
7285,3,0,1,-1,-2,-1,1,11,0
7290,-1,-1,0,-1,0,-1,2,22,0
7295,-6,-4,-1,-1,-1,-3,-6,-35,0
7300,0,2,1,0,-3,-2,8,31,0
7305,1,0,-1,0,1,-1,-3,15,0
7310,-5,-1,-3,-1,-4,-4,-8,-26,0
7315,-1,-1,0,0,-1,2,-2,-10,0
7320,4,-1,-1,-1,2,0,-1,13,0
7325,5,0,-2,-2,-3,-3,-7,-11,0
7330,3,-2,2,-2,0,-1,4,23,0
7335,-2,-1,-1,0,-2,-1,-1,-5,0
7340,6,3,1,-1,-4,0,9,48,0
7345,-2,-2,-2,0,0,-1,2,10,0
7350,0,-1,-2,-1,-1,-1,2,12,0
7355,-1,-2,-1,-2,0,-1,-2,-5,0
7360,0,-3,-3,0,-1,-1,-1,-1,0
7365,-3,-2,1,-1,-1,1,0,-6,0
7370,-2,1,-2,-1,-2,1,2,3,0
7375,-1,0,2,-1,0,0,0,-4,0
7380,-3,-1,-1,-1,2,-2,-2,-3,0
7385,2,0,0,-1,-2,-1,-3,-7,0
7390,-2,0,-2,-2,0,0,-2,-6,0
7395,-1,-1,-2,0,-1,0,-2,2,0
7400,0,0,-2,-2,-3,-2,-3,-3,0
7405,-3,0,0,-1,-2,-2,1,-3,0
7410,0,-1,-1,-2,-2,-2,2,6,0
7415,-1,-2,0,-1,1,0,0,-3,0
7420,1,0,1,0,1,-1,4,15,0
7425,-3,-2,-4,-1,-2,-2,-2,-13,0
7430,-1,-1,-3,-3,-1,-3,-1,-8,0
7435,2,1,-1,-1,-3,-1,3,27,0
7440,-1,0,-1,-1,-2,-1,-6,-16,0
7445,-6,-2,0,-1,1,0,0,-11,0
7450,4,1,0,-2,-1,-2,0,9,0
7455,0,0,0,0,1,-1,2,1,0
7460,4,0,-2,-2,-1,1,-5,-1,0
7465,11,0,0,0,0,0,2,35,0
7470,-6,-2,-1,-2,-1,1,3,8,0
7475,-1,-2,-1,0,-1,-5,-1,-1,0
7480,-6,-3,-1,1,0,-2,-1,-10,0
7485,-7,-1,0,0,-1,0,1,-5,0
7490,6,1,-3,0,1,-1,-1,7,0
7495,-2,-2,1,-1,-2,-1,-4,-8,0
7500,0,-1,0,-1,0,0,2,22,0
7505,-11,-3,0,0,-1,-2,3,-12,0
7510,3,2,-1,-3,-4,-3,3,21,0
7515,-5,-3,-1,0,0,0,-2,-18,0
7520,0,-2,0,1,-1,-3,-2,-7,0
7525,-3,-2,-1,-2,-2,-2,-3,0,0
7530,-16,-2,1,0,1,-1,0,-14,0
7535,2,-1,0,-3,-2,-2,-4,-3,0
7540,-2,0,-2,-2,-2,0,1,-2,0
7545,4,1,-2,-2,-2,0,-2,4,0
7550,-1,0,-1,0,-1,-1,-1,-2,0
7555,-2,0,-3,0,-4,-3,-3,-3,0
7560,-1,-2,-2,0,-2,-2,-2,-8,0
7565,-3,1,-1,-1,-1,-1,2,0,0
7570,3,0,0,-1,-3,-1,0,-6,0
7575,-5,-1,-2,-1,0,2,4,4,0
7580,-2,-1,-3,-1,1,-1,-1,-4,0
7585,6,1,-3,-2,-4,-1,-3,20,0
7590,-7,-4,1,-2,-2,-2,-8,-34,0
7595,-7,-1,2,0,3,-1,-3,-22,0
7600,-1,0,0,-2,-3,-1,0,1,0
7605,3,-1,1,1,-1,1,5,30,0
7610,2,-1,-3,2,3,-1,-1,3,0
7615,1,2,-1,-4,-3,-1,1,3,0
7620,-4,0,1,-2,2,0,0,-10,0
7625,-8,-2,-1,1,3,0,4,-4,0
7630,-1,0,0,-3,-2,0,-2,-3,0
7635,-1,-2,-4,0,-1,-3,-1,-7,0
7640,1,1,-1,-2,-2,0,5,8,0
7645,-8,-9,-4,-2,-2,-3,-6,-13,0
7650,1,0,-1,-1,-1,-1,2,5,0
7655,3,0,-2,-2,-3,0,0,19,0
7660,-5,-3,1,-1,0,-1,-5,-19,0
7665,-1,1,-1,-4,-5,-4,-7,-52,0
7670,-1,-2,0,-1,1,1,0,11,0
7675,3,1,-2,0,0,-2,-2,4,0
7680,2,1,0,-2,-2,1,-1,12,0
7685,-3,-1,1,-1,2,1,-1,-9,0
7690,0,1,0,-1,-1,0,-3,-14,0
7695,-1,0,-1,-1,1,-2,-1,-6,0
7700,-1,-1,-1,0,-1,1,-1,1,0
7705,-1,1,0,0,-2,-2,2,10,0
7710,-1,-2,-1,-3,-2,-2,0,4,0
7715,1,-1,1,-1,1,-1,0,3,0
7720,-1,-3,-3,-1,0,-3,-4,-8,0
7725,1,-2,-2,-2,-1,0,-1,7,0
7730,0,-3,-3,-1,-1,-1,-2,0,0
7735,-2,-4,-1,0,-1,0,-3,-7,0
7740,-3,0,-1,1,0,1,1,0,0
7745,-3,2,-1,-2,-3,0,0,5,0
7750,-1,-4,-3,2,3,-1,-6,-3,0
7755,3,-2,-2,-2,-3,-3,-7,-11,0
7760,-1,-2,-2,-3,0,-1,-6,-20,0
7765,-2,-3,-2,-1,-1,-1,0,6,0
7770,2,3,2,1,-2,0,3,48,0
7775,-1,-2,-2,0,-2,-1,-4,-4,0
7780,2,0,0,-2,-4,-1,3,25,0
7785,0,-3,-1,1,0,-2,-3,-7,0
7790,-1,0,-1,-4,-2,0,2,4,0
7795,-1,0,-2,-1,-2,1,1,2,0
7800,-4,-4,-2,-3,-1,-4,-6,-21,0
7805,4,1,0,0,0,-1,-1,5,0
7810,-3,-2,-3,-2,-1,-3,-5,-24,0
7815,-2,-2,2,-2,-3,-2,0,6,0
7820,1,-1,-1,1,-2,-3,-2,-1,0
7825,-5,-2,-2,-1,2,1,-4,-7,0
7830,4,0,-2,-3,-1,-3,-8,-19,0
7835,-10,2,1,-1,0,-1,7,16,0
7840,3,0,-1,0,-1,-3,0,12,0
7845,3,-1,-1,-1,-1,-1,-1,3,0
7850,-4,-3,-1,-1,3,1,2,1,0
7855,-2,0,-4,-1,-3,0,1,1,0
7860,-5,-2,-1,-2,0,1,1,5,0
7865,1,-1,-2,-2,-2,-2,-3,-3,0
7870,-3,-2,-1,-1,-2,-1,-2,-2,0
7875,-11,-4,-2,-3,0,2,-6,-61,0
7880,0,0,0,0,1,-1,0,0,0
7885,2,1,-1,-2,-2,-2,0,-3,0
7890,-4,-2,-1,1,0,-2,1,-3,0
7895,4,-1,0,0,-2,-2,-1,12,0
7900,3,0,-1,2,1,1,1,26,0
7905,-4,0,-1,-2,-4,-2,6,22,0
7910,-3,-2,-1,-1,1,0,-4,-11,0
7915,0,0,-2,-1,0,0,-1,5,0
7920,-3,0,-3,-1,-1,-2,0,-2,0
7925,-1,-1,1,-2,-1,0,3,6,0
7930,1,1,-1,-1,-3,0,2,2,0
7935,1,-2,0,-2,-1,-2,1,12,0
7940,-2,0,0,-1,-3,0,-1,-10,0
7945,-1,-1,-1,0,1,1,-3,-11,0
7950,-3,0,-1,-2,-3,-2,0,-2,0
7955,3,-1,-3,0,0,0,-4,-3,0
7960,0,0,-1,-1,1,-1,-3,-2,0
7965,1,-2,-1,-1,-3,-3,-4,-6,0
7970,4,1,-1,-1,-3,-1,3,21,0
7975,1,0,1,-1,-1,-1,0,15,0
7980,-6,-3,-3,-3,-4,-1,-2,-25,0
7985,1,-2,0,2,-3,-1,-2,-10,0
7990,-3,-2,-1,0,0,0,1,5,0
7995,5,2,0,0,1,-1,2,15,0
8000,-4,-3,-2,-1,2,-1,-1,-1,0
8005,-3,0,-2,-1,1,0,0,3,0
8010,-2,-3,0,-2,-2,-2,-2,-10,0
8015,2,-2,0,-2,1,-1,-1,-1,0
8020,-3,-2,-1,0,-2,1,3,-2,0
8025,-1,-1,0,1,0,1,0,2,0
8030,0,-1,0,-2,-2,-1,-3,-2,0
8035,-4,-2,-1,-1,-2,-1,-1,-8,0
8040,3,-4,-1,-2,0,-3,-7,-7,0
8045,-3,-1,1,-1,0,1,-3,-7,0
8050,1,-1,-1,0,0,-2,0,-1,0
8055,-1,-2,-1,-2,-4,-4,-2,4,0
8060,1,0,0,-2,-2,-1,-2,-3,0
8065,-4,-2,-2,-1,-2,-3,-4,-27,0
8070,-4,-1,-3,-1,-1,-3,-5,-6,0
8075,-1,-4,-2,0,1,-2,-1,4,0
8080,2,0,0,-1,0,-1,0,8,0
8085,2,0,-2,-2,0,-3,1,5,0
8090,-6,-2,1,-2,-1,2,3,-1,0
8095,1,-4,-2,-1,-3,-3,-17,-56,0
8100,0,1,-3,-2,0,-2,3,6,0
8105,-4,-3,-1,-1,-1,-1,0,3,0
8110,-1,0,1,0,-1,1,1,0,0
8115,5,1,-3,-3,-3,2,1,11,0
8120,0,0,0,-2,-1,-2,0,7,0
8125,-2,0,-2,-3,0,2,-2,-6,0
8130,3,-1,0,-1,-4,-2,3,8,0
8135,-4,1,1,1,0,0,7,10,0
8140,0,-2,-2,-2,-1,-1,-1,0,0
8145,-3,-2,-1,-2,0,-4,-1,-1,0
8150,-3,-1,0,2,3,-1,-1,-6,0
8155,-7,-2,-1,-2,-1,-2,-7,-18,0
8160,-2,0,-1,-1,-4,-1,1,-5,0
8165,5,1,0,-1,-3,1,0,14,0
8170,-5,-3,-4,-1,0,0,-2,-11,0
8175,-7,-3,-3,-1,1,-1,6,2,0
8180,3,-2,2,-1,1,1,-7,-6,0
8185,-1,-2,-1,-2,-3,-2,4,9,0
8190,-3,-1,-2,-1,-2,-5,-5,-28,0
8195,-4,-1,-1,1,1,2,0,-2,0
8200,-9,-1,-1,0,-2,0,0,-2,0
8205,-5,-3,-4,-3,-1,-2,-7,-37,0
8210,0,-2,-2,0,0,0,1,6,0
8215,1,-1,1,0,0,-2,3,14,0
8220,0,-1,-2,-1,1,-1,1,8,0
8225,3,-1,-1,-1,-3,-1,-2,7,0
8230,3,1,-1,0,-2,-1,-1,16,0
8235,-11,-6,-2,-1,2,-1,-12,-69,0
8240,2,-1,-1,-1,0,-2,-1,3,0
8245,0,-1,0,-1,0,-1,0,4,0
8250,-2,-4,0,-2,-2,1,-3,-6,0
8255,7,2,0,1,-4,-4,2,28,0
8260,-5,-2,0,0,-4,-1,3,1,0
8265,-3,-1,1,1,1,1,-1,-10,0
8270,-6,-1,0,0,-2,-1,5,22,0
8275,4,0,0,0,0,1,-2,10,0
8280,-5,-1,-2,0,1,-1,-1,-7,0
8285,0,0,-3,-1,-1,-2,4,31,0
8290,-3,-4,-4,-6,-4,-3,-4,-22,0
8295,-8,-1,-2,0,-1,0,0,-12,0
8300,4,0,-2,-1,-2,-1,-3,-2,0
8305,-2,-1,-1,0,1,0,-1,3,0
8310,3,2,-1,-3,-4,-2,-3,-1,0
8315,-2,-1,-1,-2,-1,-1,0,10,0
8320,-1,-1,1,1,-2,-1,-6,-8,0
8325,2,1,-1,-2,-1,0,-3,5,0
8330,-11,-4,-2,1,2,-2,-4,-24,0
8335,4,0,-1,0,-5,-1,-1,10,0
8340,0,-1,-3,-2,-1,-3,2,6,0
8345,2,0,-1,1,0,-1,-3,9,0
8350,-8,-3,-2,0,1,0,-8,-47,0
8355,7,-1,-3,-4,-3,-2,-2,10,0
8360,0,-1,-1,1,1,-1,-4,-9,0
8365,0,0,0,0,0,1,11,37,0
8370,11,1,-3,-1,-2,0,0,27,0
8375,-6,-3,1,-1,1,-2,0,1,0
8380,4,-2,-2,-3,-2,0,-6,-11,0
8385,0,-3,-2,-1,0,1,-1,-6,0
8390,4,1,1,-2,-2,-2,1,18,0
8395,1,0,-3,-2,-2,-1,0,7,0
8400,-1,-1,0,-1,1,-2,1,13,0
8405,-4,-4,1,1,-1,-2,-4,-17,0
8410,0,-1,0,1,-2,-1,0,2,0
8415,-2,0,0,0,2,0,-2,-3,0
8420,-3,0,-2,-1,-4,-4,0,-2,0
8425,-2,-2,-2,0,-4,-3,-4,-11,0
8430,-4,-2,0,-1,2,-1,1,-1,0
8435,2,-1,0,1,0,-1,0,12,0
8440,15,3,0,-1,-2,-2,-3,35,0
8445,-1,2,0,0,-1,1,3,14,0
8450,9,4,0,1,2,2,5,31,0
8455,-3,-2,0,-3,-3,-2,2,8,0
8460,-3,-3,1,-1,3,2,-1,-4,0
8465,4,-1,-2,-3,-1,0,-4,-16,0
8470,-3,-1,0,-1,-3,0,1,2,0
8475,-2,-1,-2,0,-1,-1,0,0,0
8480,-2,-1,-3,-2,-2,-1,-1,-8,0
8485,-4,-1,-2,2,-1,-3,1,-2,0
8490,-5,-1,0,0,0,-1,-1,-6,0
8495,0,-1,-3,-5,-4,-4,-8,-11,0
8500,-4,-3,-1,-1,-1,-3,-1,-5,0
8505,0,-1,-2,-1,0,-2,-3,-7,0
8510,-2,-2,-1,-1,-3,-2,0,2,0
8515,-2,-2,-2,0,1,0,-3,-21,0
8520,-2,-2,0,0,1,0,2,4,0
8525,0,0,-1,-1,0,-1,-1,9,0
8530,5,0,-2,-2,-2,-4,-4,7,0
8535,-7,-1,-1,-1,-2,-2,3,-7,0
8540,5,-1,-1,-2,-1,0,-10,-13,0
8545,-1,0,-1,0,1,3,-6,-19,0
8550,3,1,1,1,0,0,10,59,0
8555,6,0,0,0,2,0,-1,22,0
8560,-4,1,0,0,0,0,0,3,0
8565,-4,-1,-2,-3,-4,-3,-3,-17,0
8570,-1,1,0,-2,-1,1,-3,-12,0
8575,0,0,0,-1,0,-1,-4,-5,0
8580,-4,-7,-2,-1,2,-1,3,-6,0
8585,0,-2,-1,-2,-1,-1,-1,3,0
8590,-9,-3,-3,-1,1,-1,-9,-59,0
8595,7,0,-1,0,-2,0,-6,-2,0
8600,-4,-2,-1,0,0,1,-2,-7,0
8605,-3,-1,-2,-1,2,-1,-2,-1,0
8610,4,-2,-3,-3,-2,-3,-3,2,0
8615,-17,-4,-1,-1,-1,-2,6,0,0
8620,0,1,2,0,-1,0,2,0,0
8625,-1,-2,-1,-2,-2,-2,-4,-30,0
8630,-2,-2,-2,-1,2,1,0,1,0
8635,-4,-2,-1,0,-1,-2,5,19,0
8640,8,4,-1,1,0,0,-2,35,0
8645,-7,-3,0,0,0,-2,-1,-17,0
8650,-4,-1,-1,-2,-2,-3,-4,-7,0
8655,-3,-2,1,-2,-2,0,-1,-11,0
8660,-2,-1,-2,-2,-1,-3,-3,6,0
8665,0,0,-2,-1,0,-3,-2,4,0
8670,-3,-1,-3,1,3,-1,1,7,0
8675,3,-1,-2,-1,-3,-1,-2,2,0
8680,2,-3,-3,-3,-4,-1,-7,-22,0
8685,0,2,1,-1,-1,0,2,12,0
8690,-2,-2,-2,0,-1,0,0,2,0
8695,-4,0,-1,0,2,1,3,-2,0
8700,-7,0,0,0,-2,0,2,-6,0
8705,-2,-2,-1,-3,-5,-3,-2,-2,0
8710,-5,-1,-3,1,4,3,-5,-51,0
8715,-1,-2,-3,-1,-4,-2,-3,-17,0
8720,0,0,-1,-3,0,-1,2,-1,0
8725,0,-2,-3,0,-1,0,-1,6,0
8730,-3,-3,-3,-4,-4,-1,5,22,0
8735,-4,-2,-3,-1,1,0,-3,-10,0
8740,1,0,-1,-2,-1,-3,0,-4,0
8745,-2,0,0,-2,-2,0,5,19,0
8750,7,1,0,0,-3,0,-3,14,0
8755,3,-1,-1,0,-1,1,-3,4,0
8760,-8,-4,-1,1,-1,-3,-1,-10,0
8765,-2,0,0,-1,-2,-1,-1,3,0
8770,0,0,-1,-1,-1,-2,-3,-2,0
8775,-7,-1,0,0,0,1,4,6,0
8780,-4,-3,-2,-2,-4,1,-3,-6,0
8785,1,0,-1,0,3,-1,-1,0,0
8790,-3,-4,-2,-2,0,0,-1,-6,0
8795,-2,-3,1,-1,-1,-2,0,3,0
8800,-7,-1,-2,1,-2,-2,2,2,0
8805,6,3,-2,-2,-2,-3,-7,2,0
8810,-4,-2,-2,-1,0,-1,-7,-24,0
8815,2,-2,-2,-2,-2,-2,-1,3,0
8820,-1,0,1,0,0,1,-1,5,0
8825,1,-2,0,-1,-1,0,1,6,0
8830,5,0,2,-2,-1,0,5,42,0
8835,1,1,0,-2,-1,-1,-2,-2,0
8840,3,-1,-1,-1,1,-2,-8,-29,0
8845,-5,-1,0,2,0,0,1,0,0
8850,0,0,-2,-1,-4,0,0,4,0
8855,2,0,-3,-2,0,-4,-2,0,0
8860,-1,-1,-3,-1,1,1,5,10,0
8865,8,0,-1,0,-1,-1,-7,4,0
8870,-3,-2,-1,0,1,-2,0,9,0
8875,1,-1,-2,-1,-2,0,0,-3,0
8880,-3,0,0,0,-1,2,-1,-1,0
8885,0,-1,0,-1,-2,0,-3,-26,0
8890,-5,-4,-2,-1,-2,0,-2,-16,0
8895,1,0,-1,0,2,0,2,0,0
8900,2,-1,-2,-2,0,-1,-2,-3,0
8905,-4,-2,-2,-1,-1,1,5,11,0
8910,-2,-2,0,0,0,0,-1,3,0
8915,9,-1,-3,-4,-4,-1,-10,-9,0
8920,1,2,-1,-2,0,-2,-3,7,0
8925,-7,-5,-3,-1,-1,-1,-3,-9,0
8930,-3,-1,-1,0,-2,-3,-1,-6,0
8935,-6,-1,1,-2,-1,0,1,-2,0
8940,-2,-1,-2,-1,0,-1,0,5,0
8945,-8,-1,0,-1,-2,1,3,-4,0
8950,3,0,-4,-2,0,-3,-9,-9,0
8955,-1,2,-1,1,2,0,-1,13,0
8960,-9,-5,-4,-3,-5,-2,-2,-44,0
8965,1,-2,-1,-1,-2,-1,0,-4,0
8970,-4,-1,-1,-2,-1,-2,5,2,0
8975,5,1,1,1,1,0,-2,8,0
8980,4,1,1,-1,1,0,3,29,0
8985,2,0,-2,-5,-4,-1,0,6,0
8990,1,3,1,0,-2,-2,3,-3,0
8995,0,-2,-2,0,-2,0,-2,-3,0
9000,-6,-3,-2,-3,-1,0,4,11,0
9005,5,1,0,0,2,-2,1,19,0
9010,-2,1,0,-2,0,2,-2,-13,0
9015,-3,-2,0,0,0,-1,3,2,0
9020,0,-1,-2,-2,0,0,-3,-12,0
9025,-1,-1,-1,0,-1,-1,-5,0,0
9030,-6,-3,0,-3,-3,0,-2,-21,0
9035,-1,1,-3,-1,-2,0,4,19,0
9040,-6,2,0,1,-1,-1,6,14,0
9045,-4,-2,-2,0,-3,-2,-1,-7,0
9050,0,1,0,-2,0,-1,-2,13,0
9055,-9,-6,-2,-1,1,1,-2,-10,0
9060,12,1,1,-5,-5,-3,-3,17,0
9065,0,-3,-1,-2,1,-1,-2,2,0
9070,1,-3,-2,0,-2,-2,1,20,0
9075,-4,-2,-2,-2,-2,-2,-4,-14,0
9080,-7,1,-1,1,1,-1,1,-8,0
9085,0,0,0,-2,-1,0,-1,-2,0
9090,1,0,0,0,1,-1,1,19,0
9095,3,1,-2,-2,-2,-2,-10,-48,0
9100,-2,-2,-1,-1,-3,-2,-1,-11,0
9105,-1,1,1,1,2,0,-1,-3,0
9110,-5,-3,0,-1,0,-1,0,-9,0
9115,-9,-1,2,1,0,1,8,12,0
9120,3,0,-3,-2,-4,0,-4,-3,0
9125,-4,-1,1,0,0,0,-1,-6,0
9130,1,1,-3,-3,0,-1,1,9,0
9135,0,0,0,0,1,1,1,25,0
9140,2,-2,-1,-1,0,-2,-7,-17,0
9145,3,-1,-3,-2,-2,-1,0,7,0
9150,1,1,-1,1,1,0,2,4,0
9155,-3,-1,-1,1,0,-1,1,7,0
9160,-2,-2,-2,-1,1,-1,0,1,0
9165,-4,-1,0,0,-1,-2,1,-7,0
9170,-3,-2,0,1,-1,1,-2,-10,0
9175,1,-1,0,-4,0,-1,-4,-6,0
9180,-5,-1,2,2,2,1,1,11,0
9185,-5,-2,-3,-2,-2,0,-2,-5,0
9190,-4,-3,-2,-3,1,2,-4,-24,0
9195,-2,-3,-1,-3,-2,-4,-7,-23,0
9200,-2,0,-2,1,2,1,-4,-5,0
9205,7,1,0,-2,-4,-1,2,41,0
9210,-8,-2,-1,-1,-2,0,6,5,0
9215,1,1,-2,-2,0,-1,0,5,0
9220,-3,-4,-3,-2,1,-1,-8,-17,0
9225,-4,-2,-4,-3,-2,0,-2,-14,0
9230,3,1,0,0,0,0,0,-5,0
9235,-3,-1,1,0,-3,-2,5,8,0
9240,6,0,-1,1,0,0,-1,22,0
9245,-3,-2,-4,-1,0,-1,2,-2,0
9250,1,0,0,-2,-1,-1,-2,2,0
9255,-1,-3,-2,0,-1,0,-3,-7,0
9260,-2,-2,0,-2,-3,-1,1,-5,0
9265,-4,-4,-2,-3,1,-3,-11,-54,0
9270,1,1,-1,0,-2,-1,0,3,0
9275,0,1,-3,-4,-4,-4,-3,-11,0
9280,-3,-3,-1,-3,-1,-1,0,-5,0
9285,1,0,-1,-1,-1,-2,1,19,0
9290,-1,-3,-2,-1,-2,-3,-2,7,0
9295,-2,-2,-1,-1,0,-1,0,4,0
9300,-3,-3,0,-2,1,1,-11,-56,0
9305,1,0,0,-1,-3,0,-4,-5,0
9310,2,3,0,-1,0,-1,7,22,0
9315,-3,-2,-3,0,0,2,0,4,0
9320,-3,-3,-3,-3,-2,-1,3,16,0
9325,1,1,1,2,3,0,-4,-3,0
9330,-1,2,-1,-2,-2,-2,-4,-12,0
9335,2,-2,-2,0,2,-1,-7,2,0
9340,-1,1,0,0,-1,-2,2,11,0
9345,0,1,0,0,2,3,3,24,0
9350,-15,-9,-5,-1,-1,-2,-8,-60,0
9355,2,-1,0,-3,-4,-1,0,-2,0
9360,2,-1,0,1,-1,-1,-2,3,0
9365,-4,-2,-1,1,-1,-1,1,3,0
9370,-2,-2,-2,3,1,-1,-3,-10,0
9375,-1,-1,-3,-2,1,0,1,5,0
9380,-9,-2,0,0,-1,0,2,-5,0
9385,1,-2,-2,-2,-3,-2,0,-4,0
9390,4,0,1,-2,-1,1,1,16,0
9395,1,1,-1,1,-1,-1,-1,7,0
9400,8,2,-1,-2,0,0,-2,2,0
9405,-3,-6,-1,-3,-2,-2,0,-5,0
9410,1,-2,-2,-1,-2,1,-3,5,0
9415,-2,1,-1,0,1,-1,-1,1,0
9420,2,0,-1,-2,-2,-3,5,48,0
9425,-4,-1,-1,0,-1,1,-1,-10,0
9430,-2,-3,-4,-4,-4,-5,-11,-47,0
9435,4,-1,2,0,-1,0,2,14,0
9440,-1,-1,-1,0,-1,-2,0,4,0
9445,-9,0,-2,-1,-2,-2,-4,-20,0
9450,-4,-4,-1,-1,-1,-3,2,17,0
9455,-1,0,-1,0,-1,-1,-3,-2,0
9460,-1,-1,-4,-2,-2,-1,-2,-17,0
9465,-3,0,-2,0,2,-2,2,12,0
9470,-4,1,0,-2,1,0,3,-7,0
9475,-3,-1,0,0,-2,1,-3,-6,0
9480,-2,-2,0,0,-3,0,1,-2,0
9485,3,-1,-1,0,2,-1,2,6,0
9490,1,-1,-1,-1,-2,-1,-2,11,0
9495,-3,-4,-1,1,-1,-1,-1,-7,0
9500,1,-3,1,1,4,1,-6,-3,0
9505,3,1,-2,-3,-2,0,0,2,0
9510,10,1,1,-1,1,0,3,69,0
9515,0,-3,-1,-3,-2,-2,-1,-2,0
9520,-3,-3,-1,-1,-4,-2,0,6,0
9525,0,0,-1,0,1,-1,-3,-5,0
9530,-2,0,-1,0,-1,-3,-4,-16,0
9535,0,1,-2,-3,-3,-2,0,-3,0
9540,-1,-2,-2,-2,-4,-3,0,5,0
9545,3,-1,0,0,-2,-2,0,11,0
9550,-3,-2,-1,-1,0,0,-4,-25,0
9555,-7,-1,-1,-1,-1,0,4,0,0
9560,0,1,-1,-1,-3,-2,-5,-20,0
9565,0,0,0,0,-2,1,0,17,0
9570,3,-1,-1,0,1,0,-4,0,0
9575,4,0,-2,-3,-3,-3,2,16,0
9580,-2,-2,-2,0,2,1,1,4,0
9585,0,0,0,0,0,-1,0,-1,0
9590,3,1,-1,-2,-1,0,0,4,0
9595,-2,-1,0,1,1,0,-4,-4,0
9600,-2,0,0,0,-2,-1,-2,0,0
9605,-10,-5,-1,-2,-1,-3,-10,-57,0
9610,0,0,0,-1,-3,-2,2,12,0
9615,4,-2,-2,-1,1,-2,-7,-9,0
9620,2,1,0,-1,-4,-3,1,3,0
9625,-6,-3,-4,0,0,0,-5,-40,0
9630,1,0,-1,-1,-4,-1,5,3,0
9635,2,0,-1,-2,0,0,-7,-24,0
9640,2,-3,-2,-2,-2,-1,-7,7,0
9645,0,0,-1,-1,1,1,3,12,0
9650,-3,-3,0,-2,1,0,-1,-5,0
9655,-6,-3,0,-1,-3,0,-3,-18,0
9660,1,2,0,-2,0,0,2,6,0
9665,-1,0,-1,0,0,0,1,10,0
9670,-3,-4,-3,-2,-1,1,-2,-2,0
9675,1,0,-2,-2,-4,-1,1,7,0
9680,-4,-1,-2,-2,1,-1,-2,-15,0
9685,-1,-2,-1,-2,-3,-1,6,18,0
9690,1,0,-3,-2,2,-1,1,13,0
9695,0,-2,0,-1,-1,-2,-4,13,0
9700,-1,-2,-3,1,-1,2,-1,-2,0
9705,-2,0,0,-1,-1,0,0,4,0
9710,-7,-2,1,1,-1,-1,0,1,0
9715,-5,2,-1,-2,-1,2,7,-2,0
9720,-1,-1,-1,-2,-1,-1,1,5,0
9725,-3,-1,-1,-1,-2,-2,2,7,0
9730,-4,-3,-2,1,-1,-2,0,-5,0
9735,-5,-4,-2,0,1,-1,-6,-38,0
9740,2,0,0,0,-2,1,4,5,0
9745,1,0,0,-2,0,0,1,2,0
9750,-1,-1,-1,-3,-4,-2,0,4,0
9755,2,0,-3,-3,-1,-1,1,13,0
9760,-5,-3,-2,1,0,-2,-4,-25,0
9765,3,-3,0,0,1,-1,-2,-2,0
9770,2,3,0,-2,-3,-1,-3,3,0
9775,0,-2,-1,1,0,-1,0,-1,0
9780,0,1,0,-1,-1,1,6,1,0
9785,5,0,-1,0,-2,-3,1,17,0
9790,-8,-1,-3,0,0,0,-3,-19,0
9795,0,-2,0,-1,-1,-1,0,6,0
9800,-8,-1,-1,-1,-1,0,3,8,0
9805,-4,-3,-3,-1,1,0,-6,-27,0
9810,15,0,-3,-2,-2,-3,-7,5,0
9815,0,-4,-2,0,-1,-2,-2,10,0
9820,-2,-1,-1,-2,-3,-4,-7,-17,0
9825,1,0,-2,-2,-3,-1,0,9,0
9830,-4,0,-1,-1,0,-1,1,-3,0
9835,2,1,1,1,-1,0,6,36,0
9840,2,-2,0,-2,-3,0,1,1,0
9845,3,0,-1,-2,-2,-3,-1,6,0
9850,3,2,0,-2,-2,1,1,4,0
9855,-4,-3,0,2,1,1,1,-1,0
9860,1,0,-1,-1,-2,-1,0,7,0
9865,-2,-1,-2,2,-2,-2,-2,-4,0
9870,-3,-3,-2,0,1,0,-1,9,0
9875,-5,-4,-1,-4,0,-3,-4,-9,0
9880,-3,-2,-1,-1,0,-1,-3,-15,0
9885,8,0,-1,-2,-2,-1,-7,0,0
9890,-5,-2,-1,-1,-1,0,-1,-12,0
9895,0,-1,-3,-2,-3,-1,0,-1,0
9900,8,-1,-2,-1,-5,-2,-11,-15,0
9905,0,-1,0,-2,0,-2,-2,2,0
9910,-3,-2,2,0,2,0,7,28,0
9915,2,2,-1,1,0,1,-2,2,0
9920,-1,0,-1,-1,2,0,0,11,0
9925,-5,-2,-2,-3,-2,-2,2,-2,0
9930,4,-1,-1,-1,0,-1,-7,1,0
9935,-2,2,0,0,-1,-1,2,2,0
9940,0,0,-2,-1,-2,0,1,6,0
9945,1,0,-2,0,2,0,1,-3,0
9950,-9,-2,-2,1,0,-1,0,-22,0
9955,-3,-4,-1,-4,-3,-1,-4,-8,0
9960,-3,-4,-3,-2,0,0,-7,-28,0
9965,-3,-2,-1,0,1,-1,0,1,0
9970,0,-1,1,0,-2,-2,1,-1,0
9975,-4,0,-2,-1,2,1,1,-11,0
9980,-4,-1,-1,0,-1,0,6,6,0
9985,-4,-1,0,-1,0,2,-3,-18,0
9990,4,0,-1,-2,-1,-2,-3,-5,0
9995,-5,-1,-3,-1,-1,-3,-1,-11,0
10000,-1,-1,0,0,1,-1,-1,1,0
10005,4,2,0,0,-4,-3,2,46,0
10010,-9,-4,-4,-1,-1,0,-2,-29,0
10015,4,0,0,-2,-4,0,-1,7,0
10020,-2,0,-1,-1,-1,-3,2,9,0
10025,3,-1,-4,-3,-3,-2,-3,10,0
10030,2,-1,-1,-1,0,-2,-2,1,0
10035,-1,-3,-3,-3,-2,-3,-2,-1,0
10040,0,-1,-2,-1,2,-2,-2,1,0
10045,-6,-2,0,-1,0,1,0,-19,0
10050,3,2,-3,-2,-1,-1,1,7,0
10055,8,1,0,1,0,-1,-3,20,0
10060,-4,-2,-1,-3,-2,-3,1,4,0
10065,-12,-1,1,0,0,2,4,-3,0
10070,14,3,-4,-3,-4,-1,-3,21,0
10075,-9,1,0,0,2,1,2,-14,0
10080,4,1,0,-3,-3,-2,4,47,0
10085,-4,-1,-2,-3,-2,-1,-1,-15,0
10090,-4,-2,-2,-1,0,-1,0,-3,0
10095,-1,-3,-2,-1,-1,0,-2,-9,0
10100,-2,0,1,1,-2,-2,0,-1,0
10105,1,0,1,1,-2,-3,-3,-5,0
10110,-6,-3,1,-4,-3,-1,0,-4,0
10115,1,-2,-1,-3,0,0,-4,4,0
10120,-6,-4,-2,-1,-2,-2,-7,-25,0
10125,2,-1,-2,-1,0,-1,-1,4,0
10130,-3,-2,-3,1,-1,1,-3,-15,0
10135,-5,0,0,0,0,-3,-1,-10,0
10140,-3,0,0,-1,-2,1,-2,-26,0
10145,-1,-1,-2,-1,0,-1,-3,-5,0
10150,-7,-5,-2,2,-2,-2,-1,-2,0
10155,0,-2,-2,-2,-3,-2,-3,2,0
10160,-3,-3,-3,0,1,-2,-12,-41,0
10165,-2,-3,-2,-1,-2,-3,-1,-2,0
10170,3,1,1,0,-1,0,2,31,0
10175,-1,1,0,0,-2,1,5,23,0
10180,2,-3,-1,-2,0,0,3,16,0
10185,-1,-2,-4,-2,-2,-2,0,-1,0
10190,-1,-1,-2,-1,2,0,-1,-12,0
10195,-2,-1,-1,-2,-2,-2,0,-13,0
10200,1,1,-1,0,-2,1,2,6,0
10205,0,-3,-1,-2,-1,0,-3,-1,0
10210,1,0,-1,-1,-1,0,4,6,0
10215,0,-1,-2,-1,-1,-1,-2,-6,0
10220,0,1,-1,0,1,-1,-1,-3,0
10225,4,0,-1,0,0,2,1,21,0
10230,-4,-2,-3,0,1,-1,-3,-13,0
10235,-2,-1,0,-2,-2,-3,-3,-5,0
10240,2,-1,-1,-2,-2,-1,2,13,0
10245,-1,-1,2,0,0,-2,-3,-2,0
10250,-3,-3,-1,0,1,-1,-7,-13,0
10255,11,2,-1,0,0,2,0,43,0
10260,0,-1,-3,-2,-2,-3,3,3,0
10265,-11,-2,-1,-3,-1,-3,7,-3,0
10270,2,-2,0,-3,0,-2,1,-2,0
10275,-3,-1,-1,-2,-1,-3,-1,-1,0
10280,-2,-2,-2,-1,0,1,0,-4,0
10285,5,0,-2,-1,-4,-3,0,17,0
10290,-2,0,1,-3,-2,-2,-1,0,0
10295,-3,-2,-2,-1,1,-1,0,-15,0
10300,-1,-1,-2,-2,-1,-2,-1,0,0
10305,-3,-2,0,-1,-1,-1,-2,-13,0
10310,0,0,-1,-1,-2,-3,-1,1,0
10315,-3,-2,-2,-3,1,0,-6,-36,0
10320,0,1,0,-1,-2,-2,-1,6,0
10325,-2,-3,-1,1,1,-1,-2,-2,0
10330,-9,-4,-1,-2,-1,-3,-6,-35,0
10335,-2,-3,-1,0,-1,0,0,-1,0
10340,2,-1,0,0,3,-2,-5,11,0
10345,0,0,-3,-3,-1,1,-5,-20,0
10350,-3,-1,-1,-1,-2,0,0,5,0
10355,-4,-3,-2,-3,-3,-1,-1,-7,0
10360,-6,-3,1,1,0,-1,0,-4,0
10365,5,0,-2,0,0,-3,-3,1,0
10370,3,1,-1,-2,1,1,2,17,0
10375,2,1,0,1,-1,0,6,12,0
10380,-1,-2,-1,-2,-3,-1,2,0,0
10385,-2,-1,1,-1,1,3,0,-9,0
10390,0,-1,-2,-1,-3,-1,2,13,0
10395,-5,-3,-3,1,-1,-2,-3,-14,0
10400,-5,-3,2,0,0,-1,-2,-10,0
10405,0,2,-1,-1,-1,-3,2,17,0
10410,-1,-2,-1,0,0,0,-1,8,0
10415,-2,-1,1,-3,-2,-1,-7,-3,0
10420,-2,0,-3,-1,-3,-2,2,-16,0
10425,1,-2,-2,0,0,5,1,5,0
10430,-1,1,0,0,-3,-1,0,-4,0
10435,-2,-2,-2,0,2,-5,-2,-7,0
10440,-1,-2,-3,-2,-3,-3,-6,-1,0
10445,-1,-1,-2,-3,-5,-9,-6,-4,0
10450,-5,-1,-1,-1,5,15,10,-20,0
10455,-2,-1,1,-2,-1,-4,-3,1,0
10460,-2,0,-2,-1,-1,-1,-2,1,0
10465,-2,-2,-2,-1,-1,-4,1,-6,0
10470,-3,-3,1,0,-6,-15,-11,0,0
10475,5,3,0,1,2,27,26,6,0
10480,-2,-4,-1,1,1,-5,-1,1,0
10485,-1,-1,-2,3,4,-3,-13,-8,0
10490,0,-4,-4,-5,-7,-15,-19,-6,0
10495,-7,-3,0,0,-2,-2,9,-4,0
10500,-5,-6,-6,-4,-3,20,10,-1,0
10505,4,0,-1,-1,-1,-19,-5,0,0
10510,-4,2,1,-2,7,12,4,0,0
10515,1,-2,-5,-6,-6,-18,-17,-1,0
10520,0,1,5,4,4,-6,-15,1,0
10525,-8,-6,-10,-7,-8,-17,6,-9,0
10530,2,-4,2,7,17,12,1,7,0
10535,-6,0,-4,-1,-6,11,3,-4,0
10540,-3,-3,-6,-7,-5,-10,7,-2,0
10545,2,3,5,5,9,7,-1,6,0
10550,-1,-6,-4,-3,-3,-5,-5,-2,0
10555,0,0,3,5,2,8,5,1,0
10560,-3,-1,-3,0,-10,-9,0,-1,0
10565,-5,-3,-4,-12,-14,-25,-23,-10,0
10570,-4,0,3,5,-8,-20,4,-2,0
10575,0,2,-4,-3,14,21,4,5,0
10580,9,2,4,1,6,2,9,3,0
10585,-14,-4,1,-3,-11,-4,-2,-17,0
10590,8,6,3,-2,10,31,-1,8,0
10595,4,-4,-9,7,-5,-42,-23,5,0
10600,-8,-11,-4,0,2,13,10,-1,0
10605,-6,-4,-9,-13,-10,5,4,-3,0
10610,9,11,17,11,-5,-29,-9,10,0
10615,-11,-5,0,-7,-9,19,12,-20,0
10620,3,2,-3,-2,15,9,-9,9,0
10625,5,-2,-2,2,6,14,2,0,0
10630,-6,-7,-12,-2,-5,2,7,-6,0
10635,0,-7,2,-4,-6,-18,-14,0,0
10640,-3,15,3,1,-12,-5,-9,-8,0
10645,-3,-3,4,7,11,10,4,3,0
10650,6,1,-2,-10,2,5,3,2,0
10655,0,0,1,8,1,0,2,-1,0
10660,-3,3,1,-4,-10,-12,-8,-1,0
10665,10,10,10,10,12,4,3,11,0
10670,-4,-2,2,1,-2,7,15,-3,0
10675,-3,-1,-2,-12,-5,-8,-11,-3,0
10680,2,0,-3,-17,-13,-23,-21,-4,0
10685,-1,1,10,3,7,43,43,6,0
10690,-8,-6,-7,10,-3,4,5,-9,0
10695,2,4,5,-5,1,-9,-15,1,0
10700,2,-4,-2,7,6,3,2,2,0
10705,5,6,-3,-9,-16,-29,-16,0,0
10710,-2,-2,0,3,11,13,5,-5,0
10715,4,1,0,1,0,7,0,1,0
10720,-2,-5,-1,3,7,2,2,-2,0
10725,-4,-2,2,-17,-14,-9,-10,-4,0
10730,-5,-1,2,1,-12,-21,-13,-15,0
10735,2,-1,-4,-3,-6,-7,0,10,0
10740,-1,-1,6,6,6,4,-4,9,0
10745,-2,-3,-1,0,1,3,17,4,0
10750,-5,-13,-13,-12,-6,-5,-4,-1,0
10755,-2,17,9,4,3,0,-1,-9,0
10760,0,-1,-4,0,3,4,2,2,0
10765,-1,-3,-2,4,2,1,-11,0,0
10770,-3,0,-2,-11,-15,-14,-7,-6,0
10775,-6,-10,-8,0,0,9,5,3,0
10780,0,-2,-2,-1,1,1,7,-5,0
10785,2,4,-7,5,4,1,-8,2,0
10790,-1,-3,1,0,1,-5,-2,1,0
10795,1,-3,-8,-9,-3,-5,-4,-3,0
10800,-5,-6,-20,-4,-1,0,1,-1,0
10805,-5,-4,2,-3,-11,-1,-6,-11,0
10810,10,1,-3,-5,-4,2,4,71,0
10815,-2,-3,1,-2,3,-3,1,1,0
10820,4,0,1,1,-2,-3,4,13,0
10825,-5,-3,-3,-1,2,8,-5,-19,0
10830,-3,-3,-5,-2,-1,1,-1,-10,0
10835,0,-2,-5,-1,-3,-6,-3,-6,0
10840,-6,-16,-1,2,-1,0,-1,-2,0
10845,-2,17,7,2,3,1,4,10,0
10850,-4,2,9,5,2,7,0,-17,0
10855,-3,-7,-8,-7,-2,-14,-10,-6,0
10860,-3,-4,-1,-1,-3,4,-1,-16,0
10865,0,-6,1,3,-1,-2,-3,2,0
10870,-4,-3,-11,-11,-4,2,-7,-12,0
10875,1,2,13,4,3,1,3,0,0
10880,-2,1,3,-3,-12,-8,-8,0,0
10885,0,-12,-12,-3,-5,-6,-3,-2,0
10890,4,6,2,-2,4,4,1,-5,0
10895,0,-3,3,0,4,1,0,5,0
10900,0,7,8,2,4,4,-1,-4,0
10905,-4,-7,-2,5,5,5,11,1,0
10910,-3,-7,-9,-3,-3,-15,-11,-12,0
10915,-3,-3,-2,0,-2,9,0,-1,0
10920,-1,0,8,-4,-6,-7,-1,0,0
10925,0,-1,-3,-1,9,8,-4,-1,0
10930,1,3,8,4,4,5,1,1,0
10935,-5,-5,-3,5,-11,-11,0,-2,0
10940,-7,-5,-17,-20,-18,-4,-6,-12,0
10945,-2,-2,-3,-7,-4,-5,-5,3,0
10950,-5,-2,-2,3,4,-1,-9,-27,0
10955,-2,-6,-4,2,-1,-4,-1,-4,0
10960,-7,10,1,-6,-2,-7,-9,-11,0
10965,4,-4,-5,-1,-4,-7,-8,-2,0
10970,10,4,-7,-8,-1,4,19,8,0
10975,-12,-10,-7,-3,-2,-2,-10,1,0
10980,1,0,9,7,-2,-4,3,2,0
10985,-2,-4,-5,-6,0,3,-2,-3,0
10990,2,3,5,3,12,17,15,8,0
10995,5,-1,5,2,-7,-4,-6,-2,0
11000,-4,-9,-16,-14,-16,-11,-9,-2,0
11005,-7,-3,-4,-9,-7,-9,-4,-9,0
11010,0,-8,12,7,3,2,-1,4,0
11015,4,6,0,-3,2,-4,-5,2,0
11020,-2,-1,6,0,0,4,4,-3,0
11025,4,5,3,6,4,-4,0,3,0
11030,-6,-14,-20,-5,-9,-15,-14,-3,0
11035,-2,-2,-2,-4,1,19,7,-1,0
11040,-3,-1,-2,4,7,2,-2,1,0
11045,5,17,9,2,-2,-9,-7,0,0
11050,2,-1,-7,-8,-5,0,2,-3,0
11055,-14,-11,-7,-8,-3,-6,-4,-7,0
11060,-1,4,-3,-9,-13,-5,-8,-5,0
11065,0,-4,2,4,4,15,8,4,0
11070,3,6,0,1,2,-1,4,5,0
11075,1,1,-4,-1,-3,2,-2,3,0
11080,-3,-8,0,-5,-3,-5,-7,-2,0
11085,-2,-3,-2,-2,0,-7,-3,4,0
11090,2,-1,-1,-1,1,8,18,9,0
11095,-1,-1,3,6,3,3,-3,-1,0
11100,-4,0,3,-5,-5,-4,-3,-8,0
11105,10,2,1,8,4,4,9,31,0
11110,-4,-4,-7,-4,-5,-11,-10,-4,0
11115,-2,-2,-2,-3,1,7,4,-4,0
11120,2,3,3,5,1,8,8,7,0
11125,-3,-2,-1,-1,-2,-4,0,7,0
11130,-12,-7,-5,-6,-4,-3,-9,-58,0
11135,-4,1,-6,-9,-6,-2,-1,-6,0
11140,-5,-1,0,-3,-1,-6,-9,3,0
11145,0,-13,-7,-4,0,2,5,1,0
11150,4,5,0,1,-2,0,-5,17,0
11155,9,3,2,2,0,1,6,-5,0
11160,-7,1,-2,3,6,-2,-11,-26,0
11165,2,-4,-1,0,4,1,1,15,0
11170,-4,-5,5,0,-4,-9,-7,7,0
11175,1,-1,-5,-7,-7,7,-1,0,0
11180,0,0,1,-7,-3,-7,-2,24,0
11185,-7,2,2,-3,-4,-5,-2,-21,0
11190,1,-2,-3,3,8,9,1,7,0
11195,0,2,-1,3,1,-2,1,3,0
11200,3,0,0,-3,-7,-5,0,6,0
11205,-4,1,-3,-5,-7,-5,-3,-15,0
11210,-6,-5,-2,2,1,-3,-5,-3,0
11215,9,4,1,-2,-1,-3,-8,3,0
11220,-4,-11,-10,-5,-2,-5,7,-12,0
11225,7,25,-1,-3,-4,-6,-8,21,0
11230,7,-2,-2,-1,-2,-4,3,15,0
11235,-10,-11,-7,-4,-6,-3,0,-38,0
11240,-9,-6,-7,2,-3,-4,-10,-7,0
11245,6,-7,-3,-4,-1,0,7,9,0
11250,-10,2,-5,-5,0,-2,-8,15,0
11255,-6,-1,0,-1,-1,-6,-7,1,0
11260,1,3,7,5,2,4,6,-12,0
11265,-11,-11,-6,0,2,2,-7,-31,0
11270,1,-2,2,3,2,1,1,3,0
11275,10,5,8,0,-7,-3,1,34,0
11280,-7,-7,-10,-8,-9,-3,2,-5,0
11285,-2,-2,-2,0,2,7,2,-2,0
11290,1,0,3,3,8,6,4,-18,0
11295,-3,2,6,6,3,6,1,12,0
11300,10,0,-6,-4,-5,-2,0,16,0
11305,-1,2,9,-3,1,-4,2,-10,0
11310,-6,-4,0,-2,-3,-2,-2,-6,0
11315,-4,-3,-10,-5,-8,0,-2,-10,0
11320,7,7,9,7,5,-2,3,18,0
11325,-6,-5,-4,2,0,7,2,-15,0
11330,6,0,-2,-5,1,-4,6,45,0
11335,-6,1,-2,0,2,-7,-10,-8,0
11340,-1,-1,-3,-2,3,7,-3,3,0
11345,2,-2,0,1,1,3,5,7,0
11350,-3,-6,-7,-6,-11,-7,-3,-7,0
11355,-5,-14,-5,-10,-9,-2,7,-3,0
11360,6,16,4,3,13,18,9,1,0
11365,-8,-5,-3,-1,-1,-9,-10,-19,0
11370,-8,-4,2,-1,-3,3,-4,-12,0
11375,-5,-3,-1,2,3,-3,-11,-64,0
11380,-3,-5,0,-2,1,-1,4,6,0
11385,2,7,5,-4,0,0,0,4,0
11390,0,0,1,13,6,-3,-11,-13,0
11395,-6,-3,-12,-8,-9,-10,4,10,0
11400,-4,-7,-7,-14,-10,-1,6,-8,0
11405,-2,-6,-8,2,-1,-7,-10,-11,0
11410,-7,-14,-2,-1,-2,12,3,-1,0
11415,8,18,3,3,1,-10,-5,14,0
11420,-3,0,1,9,10,12,5,-45,0
11425,2,-1,0,-3,1,-3,5,21,0
11430,3,4,-6,-8,-10,-13,-10,-11,0
11435,-8,-5,1,-3,1,4,-9,-9,0
11440,3,5,9,-4,-8,-8,3,31,0
11445,-3,2,1,3,0,-1,-5,-4,0
11450,7,8,10,2,2,9,6,-13,0
11455,-5,-8,-1,3,4,2,6,14,0
11460,-1,0,-7,4,2,-6,-9,8,0
11465,-3,-9,-6,-12,-11,-4,-10,-8,0
11470,6,4,2,-4,-5,-6,1,31,0
11475,-1,-2,2,1,4,4,0,14,0
11480,0,-12,-11,-2,-5,-4,-1,-10,0
11485,-5,-8,-10,-7,-14,-8,-5,-15,0
11490,-7,-4,0,-8,-3,-1,-3,-6,0
11495,9,3,0,9,11,5,6,11,0
11500,-3,-3,-8,-5,0,-3,-10,-3,0
11505,3,0,9,6,1,1,9,35,0
11510,1,-8,-14,-7,-4,-3,-11,-3,0
11515,-17,-8,-5,-4,0,-3,-2,-38,0
11520,-1,4,8,2,0,-9,-17,-22,0
11525,-1,2,-6,-2,3,2,1,-6,0
11530,-1,-4,-1,-3,-1,-2,-4,-7,0
11535,16,24,-2,-3,-2,-2,5,40,0
11540,-9,-19,4,-5,-8,-3,0,2,0
11545,-6,2,0,2,2,6,8,-46,0
11550,3,0,1,-2,-2,-7,-2,7,0
11555,-5,-6,-1,-1,-2,0,-6,-2,0
11560,-2,-14,-12,-4,2,2,-7,-7,0
11565,-2,14,7,0,-5,-5,-1,-3,0
11570,-3,-3,-2,3,2,5,9,1,0
11575,-7,0,0,6,1,-6,-8,-14,0
11580,1,2,0,2,6,-5,-9,2,0
11585,-2,-7,0,3,1,1,2,-2,0
11590,-3,-3,-3,-7,-8,-1,2,1,0
11595,3,11,0,-2,2,-7,-12,-7,0
11600,4,4,-1,1,2,1,4,37,0
11605,-9,-3,3,-3,1,-4,-11,-56,0
11610,-2,4,3,5,1,-13,1,-1,0
11615,-11,-19,-4,-3,-7,2,-5,-9,0
11620,1,3,-2,-4,0,-4,-4,12,0
11625,-5,-2,2,1,0,16,8,-8,0
11630,9,3,-1,1,7,1,0,7,0
11635,13,3,4,5,6,0,-9,-19,0
11640,-6,0,-6,-5,-12,-2,7,-10,0
11645,-8,-9,-4,0,-4,-1,-7,6,0
11650,1,4,2,1,-3,15,6,-17,0
11655,1,3,6,6,1,-3,4,15,0
11660,-3,1,5,2,7,4,-13,-8,0
11665,2,-2,-1,4,3,-8,5,4,0
11670,-2,1,0,3,-1,1,-2,10,0
11675,-4,-2,9,-1,-6,-5,11,11,0
11680,-3,-7,-13,-8,-5,-1,6,-15,0
11685,-10,-6,-1,2,-3,-8,-10,2,0
11690,10,2,1,3,8,8,2,6,0
11695,-5,-9,-5,1,0,-3,-1,-3,0
11700,0,16,10,4,2,18,17,-8,0
11705,2,-4,-4,-5,-5,-10,-8,19,0
11710,0,-2,3,-3,-7,-5,3,8,0
11715,-4,-1,-7,-9,1,-6,-12,-29,0
11720,6,9,0,0,-3,-7,12,8,0
11725,7,-6,-6,-2,3,7,-12,27,0
11730,-3,3,4,2,3,-5,3,-16,0
11735,-2,-1,-1,10,4,2,-4,5,0
11740,0,-19,-16,-15,-16,-7,7,-8,0
11745,-20,0,-8,-5,-10,-14,-6,10,0
11750,5,1,-1,2,4,10,12,3,0
11755,5,0,0,-4,-4,-13,-8,21,0
11760,-4,-9,-9,-7,-9,-11,-19,7,0
11765,1,2,-3,-2,3,2,1,-37,0
11770,1,3,10,-2,-6,-4,-13,-7,0
11775,-7,-20,-6,-1,-5,1,2,14,0
11780,-13,0,-15,-13,-8,-17,-12,-17,0
11785,1,-3,-2,-1,-2,-12,-1,-1,0
11790,7,4,0,1,5,23,13,7,0
11795,-1,-6,-6,-2,-1,-6,-3,6,0
11800,-3,-7,-6,1,3,3,4,9,0
11805,8,9,-4,6,6,14,-2,-2,0
11810,3,6,1,2,-2,-2,4,18,0
11815,-5,-4,0,-2,1,0,-1,2,0
11820,7,0,-8,-4,-1,-5,-3,0,0
11825,-1,-1,1,1,7,0,-7,0,0
11830,4,1,-2,-3,-5,-7,-9,-7,0
11835,-5,-4,-7,-8,-13,0,13,4,0
11840,-3,-6,-1,1,4,1,0,-9,0
11845,-4,2,-1,-7,-6,-25,-20,2,0
11850,3,5,-3,3,7,26,17,0,0
11855,0,-4,10,3,1,9,19,6,0
11860,-9,-13,-8,-10,9,-23,-31,-21,0
11865,-4,-5,0,-1,-3,-7,1,-8,0
11870,10,-1,-2,2,1,8,20,9,0
11875,-11,-19,-9,-5,-5,-3,-8,-7,0
11880,-14,-5,-8,-4,-7,-11,-9,-47,0
11885,-1,-3,-3,-5,4,18,17,12,0
11890,-5,-2,4,5,6,1,-15,-8,0
11895,6,14,-3,8,6,12,13,7,0
11900,8,4,12,5,-4,-4,-2,15,0
11905,-1,13,2,-5,-2,-15,-2,6,0
11910,2,-6,-2,0,-2,2,-9,17,0
11915,4,13,10,-2,5,11,26,-8,0
11920,-4,-12,-3,4,5,14,-13,4,0
11925,1,11,6,2,0,-2,11,4,0
11930,0,-2,-2,-6,-6,-7,7,6,0
11935,-9,-13,-4,-2,-3,-8,-24,-23,0
11940,-3,-1,-5,-3,-6,-7,-5,-10,0
11945,-2,-10,-4,-5,-5,-7,-9,6,0
11950,-9,-5,-6,-4,-1,-1,4,-3,0
11955,5,1,5,-3,-2,0,0,11,0
11960,9,11,3,1,1,-4,6,12,0
11965,-12,-5,-4,3,-3,-3,-14,-39,0
11970,7,6,5,2,-2,2,4,52,0
11975,-14,-13,-12,-8,-7,-10,-17,-47,0
11980,-7,-10,0,0,1,-12,-22,-2,0
11985,-1,9,-1,-7,-1,20,26,-3,0
11990,-13,4,-2,-7,-7,2,11,-12,0
11995,0,0,3,6,1,-3,-12,19,0
12000,3,-4,-8,-10,-8,-10,3,-10,0
12005,-10,-2,6,2,-1,-2,-6,-18,0
12010,6,0,-1,4,5,10,14,12,0
12015,0,2,6,-2,-3,-1,3,3,0
12020,1,2,-6,-2,2,-2,-12,14,0
12025,3,1,-2,-2,3,1,9,6,0
12030,2,-1,-8,-4,1,0,3,-3,0
12035,1,-2,-1,7,4,1,-5,2,0
12040,-1,-18,-1,3,4,0,2,14,0
12045,-1,6,2,-4,-8,-4,-9,-9,0
12050,3,-2,-5,-7,-1,9,7,-7,0
12055,2,0,-1,-2,1,8,16,13,0
12060,-4,1,0,-2,0,2,3,-2,0
12065,-4,-6,-2,-1,2,-19,-22,-46,0
12070,-3,-4,0,5,1,-2,4,22,0
12075,3,-2,1,-1,-1,6,-10,8,0
12080,-3,5,0,-3,-3,-3,8,0,0
12085,4,1,-3,1,4,1,10,9,0
12090,0,1,3,0,-4,-2,-13,-11,0
12095,1,-4,-5,-2,3,-3,2,-7,0
12100,1,7,6,3,0,15,18,-3,0
12105,-1,-7,-8,-8,-1,2,-8,13,0
12110,-1,-3,1,-3,-10,-12,-5,0,0
12115,-1,-9,-19,-11,-7,-6,-10,2,0
12120,1,8,2,2,1,-6,1,-4,0
12125,-2,-9,-4,-3,-2,10,0,12,0
12130,-7,-10,-5,-7,-9,-7,-11,-17,0
12135,-2,2,5,4,3,-1,0,2,0
12140,8,0,-1,0,1,-5,-2,1,0
12145,-11,-15,0,5,3,9,10,8,0
12150,-1,-3,-2,-2,-1,-12,-15,-9,0
12155,1,-4,0,3,4,24,20,5,0
12160,-3,0,-5,-1,-3,-12,-11,-1,0
12165,1,4,1,2,-2,3,-6,-1,0
12170,2,0,0,-1,-2,-3,5,-2,0
12175,-8,-4,0,2,1,-16,-11,-4,0
12180,-2,-4,-6,-9,-6,-2,-4,-6,0
12185,2,0,-9,-3,-2,1,-5,2,0
12190,-1,-3,-2,2,4,-5,-4,0,0
12195,-3,1,3,-6,-6,-8,3,2,0
12200,2,0,4,2,-7,-3,-7,-6,0
12205,-3,2,1,-2,5,4,7,0,0
12210,4,-3,1,2,4,-6,-14,2,0
12215,4,6,-2,-2,2,0,6,-1,0
12220,-3,0,0,-1,-5,-7,1,17,0
12225,-2,-2,-6,-6,-11,-1,-8,3,0
12230,2,3,1,-1,3,12,8,-4,0
12235,-5,-4,0,1,1,-2,-8,-30,0
12240,-1,-1,-5,-3,-2,-4,-3,-5,0
12245,0,1,-1,-2,-5,-17,-5,3,0
12250,0,-2,-1,-1,1,3,3,26,0
12255,2,2,1,0,-7,-3,-3,7,0
12260,-4,-4,2,1,-1,6,4,-3,0
12265,-4,-3,-3,0,9,1,-1,-3,0
12270,-5,-3,-2,-1,-4,-4,-8,-25,0
12275,-8,-8,-6,-6,-13,-12,-14,-9,0
12280,-8,-1,-1,-4,2,8,5,-13,0
12285,7,5,2,4,0,-5,6,17,0
12290,-1,-2,0,-1,-3,5,-4,1,0
12295,7,4,-1,1,6,-4,5,25,0
12300,-4,-4,-2,-2,-3,-6,-3,-22,0
12305,1,5,1,0,7,7,-8,6,0
12310,-8,-4,-2,-2,-4,-1,-5,-55,0
12315,1,-2,0,0,1,8,11,23,0
12320,-1,-1,-3,0,-5,-8,-20,-5,0
12325,-6,-5,0,-1,-5,-11,-3,-3,0
12330,2,-7,-4,-5,-1,13,15,20,0
12335,-2,13,4,-1,1,2,-6,2,0
12340,4,1,-2,1,2,3,5,-1,0
12345,-2,-1,-5,1,-3,2,1,-6,0
12350,-9,-3,-1,-1,-2,-5,-8,-43,0
12355,-6,-5,-4,-3,-8,3,7,-16,0
12360,2,0,1,-7,-6,2,0,24,0
12365,-3,-1,0,-1,4,-3,3,-13,0
12370,5,3,3,1,-4,9,23,26,0
12375,-4,-7,1,3,12,-12,-26,-31,0
12380,-7,-2,-3,-4,-2,-9,-7,-19,0
12385,6,0,0,-4,-8,5,6,35,0
12390,-6,-2,0,0,-4,-13,-13,-3,0
12395,0,-1,0,-1,-10,-9,-2,12,0
12400,2,-2,-2,5,19,-4,0,9,0
12405,-3,-1,-4,-4,-2,13,4,-9,0
12410,-1,-1,-2,1,0,-6,4,10,0
12415,-1,-3,-1,-4,-22,-21,-12,-9,0
12420,-8,-5,-2,-16,-1,-8,-19,-14,0
12425,0,-1,3,10,16,59,30,-1,0
12430,5,3,3,6,0,-44,-26,12,0
12435,-2,-5,-11,-9,-11,5,-5,0,0
12440,-7,-6,-7,-5,-11,-22,-12,-13,0
12445,-1,0,3,0,0,28,17,1,0
12450,-2,-3,-2,-6,-15,5,-2,6,0
12455,-4,-1,-2,0,3,-23,-9,-38,0
12460,5,5,6,10,33,41,5,3,0
12465,-7,-4,-9,-7,-17,-36,-12,-7,0
12470,-4,-2,-3,-5,1,23,17,-16,0
12475,-4,-2,1,2,0,-2,1,-8,0
12480,1,-1,-4,-7,-25,-3,-4,-18,0
12485,-1,-3,-3,-6,2,-23,-9,-12,0
12490,-3,0,2,1,3,13,12,6,0
12495,7,3,3,-3,1,-14,-19,20,0
12500,-7,-7,-7,-3,-16,0,8,-1,0
12505,-1,1,-1,-6,5,-22,-16,2,0
12510,5,2,4,4,10,15,15,8,0
12515,0,-4,1,5,17,15,9,7,0
12520,1,0,0,0,-17,-16,-3,4,0
12525,-4,-5,-4,-12,-4,-16,-22,-9,0
12530,2,-5,-1,-3,2,-10,-9,34,0
12535,5,12,3,3,2,1,-5,6,0
12540,2,-1,-1,3,13,6,8,6,0
12545,-7,-6,-3,-5,-3,16,9,-4,0
12550,9,3,3,6,-3,-17,1,3,0
12555,-2,0,1,7,1,1,-10,-5,0
12560,5,-1,-1,-1,0,10,-5,-8,0
12565,-2,-3,-6,-2,-1,-7,5,10,0
12570,10,4,-1,1,8,14,6,33,0
12575,-1,-3,-1,0,-6,-3,-4,-34,0
12580,-1,1,-1,-3,-11,-14,-12,-2,0
12585,-1,-2,0,-5,-5,10,17,9,0
12590,-1,0,-1,6,20,31,16,12,0
12595,5,1,2,4,-1,-14,-6,18,0
12600,-11,-2,-1,-4,-6,-13,-12,-25,0
12605,-4,-9,-7,-10,-2,-1,-15,-10,0
12610,-2,14,4,2,6,8,20,-12,0
12615,0,1,2,5,-4,-6,-1,0,0
12620,-5,0,-4,-3,-4,-3,2,-4,0
12625,4,-1,1,3,7,8,4,24,0
12630,-6,-7,-4,-5,-2,-3,2,-12,0
12635,2,0,-1,-1,-4,7,0,13,0
12640,0,-3,-2,-3,-3,-26,-17,-2,0
12645,-2,-3,0,2,-1,27,14,2,0
12650,10,5,6,6,8,-33,-16,20,0
12655,-7,-5,-3,-1,-1,-6,-13,-18,0
12660,-2,-2,1,2,-2,12,9,6,0
12665,-2,-3,-2,-3,-2,-32,-11,-9,0
12670,-9,-4,1,-1,6,31,21,4,0
12675,-6,-3,-3,-2,-4,6,-7,-20,0
12680,3,1,-1,1,-5,-22,-7,1,0
12685,1,-1,-2,0,10,23,10,-2,0
12690,-6,-4,0,0,-14,-27,-8,-1,0
12695,2,-3,0,0,18,30,12,16,0
12700,-10,-12,-2,-3,-5,3,-6,-6,0
12705,4,13,-2,-3,-2,-11,4,1,0
12710,8,-3,-6,-7,-6,-1,-26,10,0
12715,-2,-1,2,-2,-10,-25,-5,7,0
12720,1,-1,-4,-3,7,24,10,-2,0
12725,2,-2,4,2,1,5,3,10,0
12730,-3,-2,-2,-1,-1,-20,-7,-7,0
12735,0,-1,-2,-4,-6,-5,-3,11,0
12740,2,5,-1,2,10,14,5,-14,0
12745,-6,-4,-2,4,0,3,-2,-7,0
12750,-4,0,-3,-8,-7,4,-4,-8,0
12755,-9,-7,4,2,-2,-13,-23,-69,0
12760,3,-2,-6,-3,2,-5,-2,4,0
12765,-11,-8,-1,-1,0,7,-1,-19,0
12770,2,-5,-1,0,2,0,-4,0,0
12775,7,8,0,0,0,4,8,21,0
12780,-1,7,3,-1,-3,-6,-4,-8,0
12785,3,-1,2,-2,0,2,4,19,0
12790,-11,-12,-3,-1,0,1,-3,-19,0
12795,5,12,-1,-5,-4,-3,8,10,0
12800,3,-2,-6,-3,-5,-2,-5,6,0
12805,-4,-2,0,-1,-1,-2,14,5,0
12810,8,3,2,1,1,-6,3,25,0
12815,-9,-11,-8,-5,-4,-5,-12,-3,0
12820,-4,0,-2,-5,-9,-14,1,-8,0
12825,-1,0,-2,-3,7,30,2,-11,0
12830,7,2,3,7,2,-1,23,12,0
12835,-1,-3,1,1,-8,-24,-10,-1,0
12840,-6,-5,-5,-1,11,30,-4,-9,0
12845,-2,-1,-1,-2,-7,-24,-13,-6,0
12850,-8,-1,-3,-6,-2,-8,-13,-23,0
12855,5,-4,3,2,-2,34,22,19,0
12860,0,-1,-2,-1,-2,-26,-10,2,0
12865,-2,-5,-2,-2,-2,-7,-11,0,0
12870,-5,4,1,-2,-3,-9,-8,-17,0
12875,3,-8,3,6,5,-11,-6,47,0
12880,-4,-6,-3,-3,0,27,22,-19,0
12885,11,5,3,5,6,-3,17,22,0
12890,-1,-12,-2,-5,-9,1,-5,18,0
12895,1,7,-1,-1,1,2,-2,1,0
12900,-2,1,1,0,0,-15,-28,3,0
12905,-9,-2,-1,-3,-4,16,7,-21,0
12910,2,1,4,2,2,-9,22,19,0
12915,2,1,-1,5,20,32,-8,-17,0
12920,5,-1,3,-3,-23,-22,-27,-12,0
12925,0,-5,1,-3,1,14,22,-4,0
12930,6,9,1,2,10,23,30,25,0
12935,-5,-1,-2,-1,4,6,25,2,0
12940,-5,-1,-2,0,5,-12,25,4,0
12945,2,-3,-1,-3,-7,-8,-38,-8,0
12950,3,-5,-3,-3,-6,-1,-11,-2,0
12955,-8,0,0,1,-1,-6,11,3,0
12960,-2,-4,-1,-3,-3,8,18,21,0
12965,-4,0,-1,1,-2,-14,-9,-15,0
12970,-1,-8,-2,2,3,1,-47,-24,0
12975,-3,-4,-5,-7,-8,-10,-3,-13,0
12980,-1,-3,-1,-2,-3,-8,4,5,0
12985,-4,1,0,0,-2,-11,-31,-7,0
12990,11,7,5,8,10,18,32,37,0
12995,-10,-14,-3,-7,-9,-1,-10,-11,0
13000,4,11,-5,-2,-14,-19,-7,-6,0
13005,5,-3,-1,-1,16,-16,-3,12,0
13010,-13,-2,-4,-6,-4,35,-1,-30,0
13015,2,-1,-1,-4,-8,-28,4,-2,0
13020,-1,2,10,10,12,-2,-19,3,0
13025,10,4,1,4,4,13,14,5,0
13030,-4,16,2,-2,-8,-39,-16,-7,0
13035,8,5,-2,2,5,20,-2,-2,0
13040,0,-4,3,-3,-8,-20,-19,-10,0
13045,-19,-6,-5,-2,-7,-5,-4,-9,0
13050,-3,-7,-1,-3,1,11,11,-14,0
13055,-15,-10,-6,-3,-2,12,-19,-18,0
13060,9,3,0,0,8,8,6,40,0
13065,8,-5,-4,-6,-11,4,-20,-3,0
13070,-3,-3,-2,2,0,-24,19,2,0
13075,-5,-2,0,-3,-4,-12,2,-19,0
13080,-7,-8,-6,-6,-4,-5,-12,-5,0
13085,6,7,1,7,9,16,17,13,0
13090,-18,-10,-5,-10,-16,-20,-34,-37,0
13095,20,8,1,1,-2,-16,-17,64,0
13100,-24,-2,0,-1,5,13,-3,-22,0
13105,4,0,-2,0,-3,1,43,9,0
13110,-1,-8,-4,-2,2,5,-21,-10,0
13115,7,6,2,0,-4,-10,3,12,0
13120,0,-1,0,-1,3,5,10,3,0
13125,-10,-3,-1,-3,-6,-5,-11,-23,0
13130,-8,-10,-2,-1,-4,-9,-4,9,0
13135,-8,-1,-4,-4,2,32,45,-1,0
13140,20,8,5,7,10,14,-1,24,0
13145,-2,3,1,-3,-5,-3,7,3,0
13150,7,-2,-3,-6,-4,10,3,7,0
13155,-10,-1,-1,-2,1,5,7,-27,0
13160,-1,-4,-3,-4,-6,4,-28,-19,0
13165,-2,-3,-4,-3,-2,-19,13,17,0
13170,10,11,7,5,7,18,-5,22,0
13175,-3,-4,0,3,-2,-25,-13,18,0
13180,19,3,-2,-2,1,11,9,46,0
13185,-12,-7,-4,-11,-7,5,15,-9,0
13190,6,6,3,11,12,-17,-1,13,0
13195,4,0,-2,0,-5,-12,-9,-32,0
13200,5,-4,-2,-2,-2,14,22,10,0
13205,-5,-13,-6,-5,-8,-19,-52,-18,0
13210,-7,6,-4,-4,-8,-17,-25,-28,0
13215,6,0,0,1,8,48,38,22,0
13220,-14,-9,-3,-1,-5,-33,-15,-31,0
13225,2,7,3,4,7,16,27,11,0
13230,-1,-4,-2,0,1,2,6,24,0
13235,4,-2,-2,0,-4,-9,-33,-13,0
13240,-6,-5,-4,-5,-7,8,23,-22,0
13245,7,6,3,4,5,5,20,4,0
13250,2,0,-2,-2,1,13,2,3,0
13255,-2,0,2,5,3,-37,-30,-51,0
13260,2,1,3,2,1,17,2,13,0
13265,-10,3,-3,-4,-6,-20,-34,-18,0
13270,-5,-2,-2,-4,2,36,78,-6,0
13275,-6,-6,-1,-3,-2,-22,-40,-17,0
13280,8,13,-2,2,1,3,27,15,0
13285,2,1,7,1,-2,4,-9,-3,0
13290,-5,-5,-4,-5,-8,-3,-5,-10,0
13295,-3,2,2,-1,9,8,13,16,0
13300,-6,-4,-2,0,1,2,-4,-13,0
13305,1,-1,1,0,0,4,14,11,0
13310,3,3,1,4,9,-18,-3,-4,0
13315,-3,-4,-3,-5,-14,-1,18,14,0
13320,-4,1,-1,2,2,-6,-11,-8,0
13325,2,-1,0,1,2,-20,-22,-1,0
13330,0,-3,-2,-2,-2,5,-2,-1,0
13335,1,-1,-4,-3,-5,-25,-29,-15,0
13340,-8,-7,-3,-6,2,36,24,-11,0
13345,-3,-1,-1,-2,-7,-6,-11,-11,0
13350,-2,-7,-2,-2,-3,6,-4,-3,0
13355,-6,3,5,-3,-2,-10,29,-14,0
13360,3,1,2,4,5,9,17,35,0
13365,-6,-5,-6,0,1,30,-4,-21,0
13370,7,-1,2,3,-1,-41,-6,44,0
13375,-7,-2,-4,-5,-5,20,-4,-9,0
13380,1,-8,-2,-3,-3,-17,-10,-9,0
13385,-2,-2,-1,-2,-10,-8,-7,9,0
13390,0,0,-4,-8,3,15,1,-2,0
13395,0,-1,-1,3,3,13,6,9,0
13400,-3,2,1,0,-1,-22,-8,-11,0
13405,1,-1,-1,3,4,7,8,3,0
13410,-3,1,-2,-4,-18,-8,-6,-15,0
13415,-1,-5,-2,-2,1,1,-4,14,0
13420,-15,-8,-7,-14,-6,-7,-19,-45,0
13425,8,5,6,13,18,43,45,-1,0
13430,-5,-4,0,4,5,-4,-12,-24,0
13435,6,-2,-7,-5,-2,7,-23,-1,0
13440,-5,-2,-2,-6,-13,-11,-24,0,0
13445,-6,-5,-6,-9,-4,-16,-11,-2,0
13450,-3,-4,-3,-2,-2,-2,-9,-3,0
13455,7,3,1,4,3,2,12,15,0
13460,-5,1,1,1,-2,-6,11,1,0
13465,-3,-5,-4,-3,-2,-9,-13,-16,0
13470,5,2,1,-1,-3,-11,-5,9,0
13475,-5,-2,0,-3,-1,19,10,-8,0
13480,-1,-1,-4,-2,-1,0,-5,-15,0
13485,-10,-4,-2,-8,-6,-16,-14,-39,0
13490,0,0,0,5,0,-19,-4,4,0
13495,-2,0,1,-1,-4,-6,9,4,0
13500,1,0,-4,2,-5,-2,0,-1,0
13505,0,-4,-7,-8,4,20,3,11,0
13510,2,-1,-2,-5,-7,-9,-12,-5,0
13515,2,5,7,3,6,4,3,4,0
13520,1,-1,1,3,1,3,-4,4,0
13525,2,0,0,-1,-3,-20,-10,18,0
13530,-6,1,-2,-2,-5,0,-2,-13,0
13535,-7,-3,-7,-1,3,9,16,-7,0
13540,2,2,2,-2,4,-2,2,4,0
13545,-1,-1,2,5,-6,-18,0,-7,0
13550,-6,1,0,-3,6,33,4,-21,0
13555,-2,-1,-3,-2,-5,-24,-9,1,0
13560,-3,-3,-3,-2,-1,0,-2,-11,0
13565,4,2,0,2,-1,-8,6,12,0
13570,2,1,2,2,3,7,-6,-5,0
13575,-3,1,-2,-5,-7,10,6,-2,0
13580,1,-1,1,3,1,-9,2,-9,0
13585,2,0,1,-4,-8,2,-1,18,0
13590,0,-2,-3,-2,-3,-11,-2,9,0
13595,5,5,5,5,9,26,12,14,0
13600,-7,-6,-3,-6,-1,-4,-20,-12,0
13605,-2,-1,2,8,9,-14,4,13,0
13610,12,11,1,-1,-3,10,5,9,0
13615,-4,-4,-1,-2,-3,-8,-13,-9,0
13620,-2,1,-1,0,-5,-2,1,0,0
13625,-3,-3,-3,-4,-1,9,-4,0,0
13630,-7,-7,-4,0,-3,-13,-18,-13,0
13635,4,1,1,4,0,-18,-12,3,0
13640,2,1,0,-4,1,-8,3,16,0
13645,4,-1,-3,-1,4,38,26,18,0
13650,0,-4,0,1,0,-8,-13,-4,0
13655,-4,-2,-5,-3,-5,-1,-12,-18,0
13660,-4,-4,-2,0,-3,-21,-15,-1,0
13665,-2,-2,-2,1,0,1,5,5,0
13670,4,12,2,0,1,10,7,25,0
13675,-6,-4,0,-3,-5,-10,-8,-25,0
13680,2,3,-1,0,-1,5,-3,1,0
13685,2,1,-2,-4,-3,-14,-10,-6,0
13690,-7,-6,1,1,1,12,21,10,0
13695,-12,-6,-5,-4,-7,-21,-28,-54,0
13700,-2,-1,-2,-5,-10,21,22,7,0
13705,7,4,4,8,19,-18,-10,18,0
13710,-9,-7,-7,-4,-4,-2,-3,-20,0
13715,6,3,3,3,2,6,3,24,0
13720,3,-2,0,0,0,0,0,6,0
13725,-4,-1,0,-2,-6,-1,-3,-12,0
13730,-3,-13,-5,-3,-7,-13,3,27,0
13735,12,7,-3,2,7,6,2,15,0
13740,-5,-3,-1,1,1,-2,-11,-28,0
13745,0,0,-3,-5,-9,-7,-7,0,0
13750,4,1,2,4,7,4,27,11,0
13755,4,-7,-6,-6,-6,4,-5,-7,0
13760,1,1,0,6,5,0,4,18,0
13765,-4,-2,-5,-7,-9,-9,-14,-32,0
13770,-7,-3,-1,-2,4,12,-11,-26,0
13775,6,-1,0,3,0,-3,-2,13,0
13780,4,3,2,-3,7,8,-7,6,0
13785,1,0,6,4,2,-4,10,6,0
13790,-2,-3,-5,-7,-11,-6,-8,-4,0
13795,-1,-4,-4,-4,-8,3,8,30,0
13800,2,0,1,2,-2,-14,12,-8,0
13805,-1,-1,-4,-4,-7,1,-34,-2,0
13810,-2,-2,-2,-5,-1,1,-7,-9,0
13815,-7,-2,-1,-3,0,0,11,1,0
13820,1,-4,-3,-1,-3,1,-5,28,0
13825,6,3,-2,-5,-2,6,33,18,0
13830,2,-1,-2,-1,0,-3,-1,-1,0
13835,-4,-2,1,-2,0,-9,-6,-1,0
13840,-6,1,2,0,-2,-1,4,17,0
13845,-1,-4,-2,0,0,1,0,-4,0
13850,-2,-2,-1,-2,-3,0,-4,9,0
13855,-1,1,-3,-2,-1,-7,-3,19,0
13860,0,-6,-4,0,2,-1,9,-1,0
13865,-6,4,1,0,0,-1,2,-9,0
13870,-3,1,-1,1,-1,-2,2,15,0
13875,-2,-2,0,-5,-9,-14,-10,-2,0
13880,-3,0,1,0,2,36,8,-13,0
13885,4,0,1,0,2,-9,1,30,0
13890,-4,-4,-6,-7,-11,-26,1,12,0
13895,4,0,2,5,9,-32,-16,-2,0
13900,-1,-1,-1,-4,3,24,13,-14,0
13905,-5,-10,-5,-3,-6,-7,-7,-6,0
13910,8,16,-4,-6,-7,1,10,-11,0
13915,0,-3,-3,0,0,14,8,-4,0
13920,-1,1,2,-3,-3,-16,-4,7,0
13925,-10,-5,-7,-4,-4,3,-26,-33,0
13930,7,-5,3,2,2,-5,-20,0,0
13935,-6,-1,-2,-3,-2,8,3,-15,0
13940,1,0,-3,0,0,-7,12,-4,0
13945,-2,1,0,-1,3,5,14,-5,0
13950,-2,-3,4,3,5,2,-3,-9,0
13955,6,4,1,0,-1,1,14,42,0
13960,-10,-8,-6,-3,-3,-13,-37,-44,0
13965,-4,-1,-3,-2,2,1,13,1,0
13970,-12,-5,-2,-3,2,10,8,-27,0
13975,3,1,1,0,-2,4,7,42,0
13980,1,-8,-5,-3,-3,-21,-21,9,0
13985,11,14,2,-1,0,28,38,17,0
13990,0,-2,0,2,2,10,-10,-4,0
13995,-5,-2,2,-1,0,-25,-6,-16,0
14000,0,-2,1,6,1,-2,1,0,0
14005,-5,-9,-3,-3,-2,2,-8,-17,0
14010,-4,-4,2,1,1,-17,-12,0,0
14015,-6,-2,-1,-3,-8,13,6,-18,0
14020,0,-1,-10,-3,-3,-3,-2,1,0
14025,-5,-11,-3,-3,0,-4,-10,0,0
14030,16,20,1,-2,-3,3,21,36,0
14035,-13,-8,0,0,2,-6,-14,-32,0
14040,7,4,1,5,3,10,12,15,0
14045,-9,-6,-5,-3,-6,-19,-40,-51,0
14050,3,-5,0,3,4,6,40,11,0
14055,-1,-1,-5,-6,3,29,7,-2,0
14060,-3,2,4,3,3,-5,1,-25,0
14065,-11,-7,0,0,-5,-11,-5,2,0
14070,-5,-7,-4,-4,-7,-13,-29,-31,0
14075,1,0,-1,-6,-6,0,6,-8,0
14080,-1,5,3,1,3,8,-3,-15,0
14085,-3,-8,-3,-5,4,4,18,12,0
14090,1,11,1,1,4,7,-12,-4,0
14095,-4,-4,-3,-3,-10,-11,-26,-16,0
14100,-13,-7,-4,-7,3,-6,-16,-43,0
14105,7,7,5,7,3,10,27,22,0
14110,-5,-4,1,0,-2,-4,-12,2,0
14115,4,4,-3,0,-1,-14,-6,9,0
14120,7,4,0,4,3,11,16,25,0
14125,-5,0,0,-6,-9,-14,-28,-11,0
14130,-12,-14,-11,-7,-14,-10,-13,-69,0
14135,-2,-3,0,-1,20,18,4,-7,0
14140,13,6,3,2,-6,-2,9,33,0
14145,4,4,2,-2,-2,2,-5,9,0
14150,-2,0,3,1,5,5,4,14,0
14155,-6,-2,-2,-2,-4,-5,-5,-17,0
14160,-1,-2,-3,-2,-2,-12,8,13,0
14165,0,1,-4,0,0,-5,-15,-36,0
14170,-7,-11,-2,-2,-3,11,19,13,0
14175,-7,6,-4,-10,-13,-27,-56,-16,0
14180,8,-1,6,11,24,50,68,-4,0
14185,1,4,-4,0,-8,-22,-8,12,0
14190,-9,-8,-3,-5,-6,-9,2,-7,0
14195,0,-5,-1,3,13,26,23,-25,0
14200,-4,-1,-2,-6,-13,-6,-26,9,0
14205,-2,-2,-2,-1,2,-5,-2,11,0
14210,9,6,2,2,6,4,-16,18,0
14215,-1,-4,0,2,-8,-6,2,11,0
14220,-6,-2,-5,-8,-14,-22,-13,-3,0
14225,-4,-3,-4,-1,12,43,20,-1,0
14230,9,5,4,0,-5,-72,-37,39,0
14235,9,6,8,12,6,48,59,24,0
14240,-8,-6,-2,-1,10,8,-24,-10,0
14245,5,-1,-3,-3,-9,16,5,10,0
14250,-6,-3,-6,-4,-4,-25,-17,-11,0
14255,1,-7,2,5,7,14,-7,8,0
14260,2,7,-1,-5,-9,-15,-7,21,0
14265,0,-3,-1,-6,-8,-14,-14,0,0
14270,-1,1,3,2,7,23,20,-8,0
14275,8,-1,1,-2,-5,-36,-5,33,0
14280,-3,-2,-1,-2,-7,1,-10,5,0
14285,-1,1,4,4,8,-6,-4,-3,0
14290,-3,-3,-2,-3,-1,15,8,-5,0
14295,-2,3,-2,-4,-5,-7,0,15,0
14300,-5,-5,-1,-5,-11,-10,-2,-2,0
14305,-2,0,2,3,7,-11,-7,0,0
14310,5,1,-2,-1,6,20,11,-12,0
14315,2,4,1,4,2,11,6,3,0
14320,-5,-4,-5,-7,-5,-12,-11,-6,0
14325,-5,-4,-2,4,-4,-9,4,-23,0
14330,-3,-2,-1,1,0,19,4,4,0
14335,-8,-2,-5,-7,-2,-16,0,-20,0
14340,-4,-3,-1,-1,1,-6,-14,-30,0
14345,1,-2,-2,-1,-6,-12,-26,-27,0
14350,2,-1,-2,-3,-4,10,12,2,0
14355,-2,0,3,2,-2,-25,-16,-17,0
14360,-6,-4,0,2,13,27,3,-43,0
14365,0,-1,-4,-3,2,2,-3,-15,0
14370,-7,-5,-5,-6,-18,-18,-11,-15,0
14375,-1,-3,-7,-7,5,-3,-4,-1,0
14380,14,4,4,4,2,-1,8,31,0
14385,1,0,-2,-3,-11,-5,-12,14,0
14390,-5,-6,-1,4,12,6,20,1,0
14395,2,4,0,-5,-13,-4,5,-2,0
14400,-2,-1,-3,3,-2,-13,-6,15,0
14405,-9,-10,-8,-9,13,16,1,-9,0
14410,0,-1,2,6,-2,2,-6,0,0
14415,0,-2,-2,1,2,0,-3,0,0
14420,0,4,1,-2,-9,-14,-2,3,0
14425,5,3,1,2,0,13,10,30,0
14430,2,4,1,1,5,5,5,8,0
14435,0,-2,-3,-2,4,9,5,16,0
14440,-9,-3,-5,-5,-11,-22,-12,-58,0
14445,3,1,4,3,3,6,2,15,0
14450,-7,2,3,-1,7,-4,-12,-14,0
14455,3,-1,-1,-2,-14,3,22,17,0
14460,-1,-5,-6,-6,-14,-18,-21,3,0
14465,5,5,3,1,15,16,42,25,0
14470,0,1,1,3,8,7,-14,-10,0
14475,-6,-7,-3,0,-4,-5,-3,-17,0
14480,1,14,-1,-10,-7,-13,-8,7,0
14485,-7,-7,-2,2,-9,11,6,-8,0
14490,5,0,2,-1,-4,1,2,8,0
14495,-4,-5,-3,-1,-6,-10,-8,-17,0
14500,4,-2,0,0,15,11,13,21,0
14505,-9,0,-2,-3,-10,-10,-14,-41,0
14510,-1,-2,-4,-5,0,1,10,12,0
14515,1,0,1,-3,-6,0,1,6,0
14520,-7,-7,-7,0,0,1,-10,-13,0
14525,2,0,-1,-2,-4,-15,3,8,0
14530,-2,-3,-3,0,3,13,-6,-1,0
14535,-7,-5,0,3,5,-2,-3,-25,0
14540,5,0,1,1,-4,-3,5,23,0
14545,6,1,-5,-9,-11,0,14,16,0
14550,-1,-1,-2,-3,3,1,-7,-8,0
14555,3,-2,0,-2,1,-1,-6,28,0
14560,-2,-3,0,-3,9,13,25,17,0
14565,-1,0,-1,-1,-11,-18,-15,-10,0
14570,-9,-10,-5,0,-2,-1,2,-39,0
14575,-7,10,-1,-5,1,3,-16,-58,0
14580,-4,-6,0,-1,-1,-6,-12,-3,0
14585,-10,-2,-3,0,3,-7,0,-12,0
14590,3,-1,1,-2,-6,-5,5,26,0
14595,-1,-2,-4,1,4,15,8,5,0
14600,-3,-2,-1,-3,-5,-6,-5,-7,0
14605,-1,2,1,7,9,11,6,3,0
14610,1,4,3,-2,-11,-10,-7,-2,0
14615,2,-2,-1,1,10,10,3,7,0
14620,-1,0,1,2,-2,1,-1,0,0
14625,4,-3,3,-1,1,4,-5,17,0
14630,-1,0,0,-1,-5,-5,-1,4,0
14635,0,-2,1,-2,-1,-13,-2,-1,0
14640,2,1,1,-2,-2,11,4,8,0
14645,1,-2,-1,-1,-1,-8,-14,12,0
14650,-3,-4,-3,-3,-4,-8,-18,-37,0
14655,-3,-3,0,-3,1,-3,7,4,0
14660,3,0,-3,0,-1,5,-5,31,0
14665,2,1,0,-2,-5,-7,-6,-2,0
14670,2,2,0,-3,-1,1,9,16,0
14675,1,-2,-2,-2,-4,0,6,22,0
14680,0,-2,-3,2,2,-1,-6,-20,0
14685,3,3,1,-2,-4,0,-4,11,0
14690,4,-2,-1,0,7,-1,7,39,0
14695,-4,3,2,-2,-5,-2,-4,-11,0
14700,-3,-3,-1,1,-5,-8,8,-16,0
14705,4,1,2,2,14,19,-13,-4,0
14710,1,1,-2,0,0,2,8,11,0
14715,3,0,0,1,-4,-9,-6,31,0
14720,-3,-2,2,2,1,4,-4,-13,0
14725,-2,-1,-3,-2,5,-6,4,1,0
14730,-2,-1,-2,-8,-10,-5,-5,-7,0
14735,1,0,-2,0,-1,1,-2,1,0
14740,-5,-4,-1,-1,-1,0,1,-24,0
14745,-10,-3,-2,-4,-6,-11,7,-15,0
14750,-1,-3,-3,2,4,0,-5,-3,0
14755,-2,1,0,1,4,6,-3,-21,0
14760,-3,-3,-3,-2,-5,-3,1,6,0
14765,4,1,4,3,2,1,8,24,0
14770,-4,-1,-3,0,-11,-5,-9,-15,0
14775,0,0,1,-5,-1,-9,-3,-1,0
14780,-1,-1,-6,-6,4,7,-1,-2,0
14785,-3,-2,-1,-2,-8,-8,0,2,0
14790,-5,-3,-1,-2,0,-5,2,-20,0
14795,2,1,3,4,8,21,-8,-11,0
14800,0,3,4,1,-3,-14,-4,13,0
14805,2,1,-1,-1,2,11,-2,-1,0
14810,2,-1,0,2,-3,-6,2,17,0
14815,-3,-6,-7,-3,-3,-1,9,-4,0
14820,0,-2,-4,-4,-3,-6,-9,-5,0
14825,8,3,4,0,-5,-7,0,33,0
14830,2,2,1,0,6,9,7,11,0
14835,-4,-1,0,-4,-7,-4,16,21,0
14840,4,2,2,6,6,11,12,10,0
14845,1,2,1,-1,-6,-12,-7,-8,0
14850,0,-4,-5,-3,-4,1,-16,3,0
14855,-4,-2,-2,-4,-2,-4,3,-18,0
14860,-3,0,1,1,-2,-1,-3,1,0
14865,-1,0,-2,0,2,2,5,-13,0
14870,4,4,2,2,1,6,14,9,0
14875,-5,-4,-5,-2,-3,-5,-16,-11,0
14880,6,1,2,-3,-1,-1,8,28,0
14885,-4,-6,-3,-3,3,7,-9,-19,0
14890,-5,-2,-6,-1,0,-7,-9,-6,0
14895,3,1,0,1,-4,-3,-1,7,0
14900,-2,-1,-6,-3,-9,-10,6,-3,0
14905,-11,-16,-8,-3,13,11,-3,-2,0
14910,-2,1,2,-1,-1,3,-3,-5,0
14915,-4,0,0,0,-3,1,1,-7,0
14920,-6,-3,-1,-5,-12,-18,-15,-15,0
14925,-4,1,-3,-5,-4,2,12,-8,0
14930,3,0,0,-6,-10,-4,-16,13,0
14935,4,0,-2,4,19,18,17,-2,0
14940,4,2,2,2,3,-4,-2,2,0
14945,-2,2,0,-2,-11,7,-3,-7,0
14950,-2,-1,4,2,2,-13,-6,11,0
14955,5,1,3,-1,-6,-1,4,30,0
14960,-10,-2,-1,3,7,10,6,-27,0
14965,7,3,3,1,-3,0,4,23,0
14970,-8,-7,-8,-9,-7,-2,0,-22,0
14975,-4,-4,-4,-1,-6,-1,-4,8,0
14980,2,-4,1,2,8,-12,-12,-8,0
14985,6,5,-5,-2,-6,-5,-5,-4,0
14990,-4,4,8,6,8,-6,5,-1,0
14995,4,-3,0,-1,-5,-8,-4,4,0
15000,-5,-4,0,-1,-1,0,-9,4,0
15005,-13,-4,0,-2,-5,5,7,-60,0
15010,0,-1,-2,0,3,1,-1,-5,0
15015,-1,0,-1,2,2,-14,-1,-5,0
15020,-1,-2,-4,-2,1,17,17,2,0
15025,5,2,5,3,-2,-12,-13,27,0
15030,-3,-4,-7,-9,-4,14,2,-15,0
15035,-5,-1,-1,0,-4,-45,-33,-28,0
15040,3,-2,-5,1,1,0,-6,4,0
15045,-4,-9,3,0,1,6,8,10,0
15050,10,9,-6,-1,1,9,6,7,0
15055,-11,-3,-2,-7,-9,5,-10,-17,0
15060,2,1,0,1,3,1,2,7,0
15065,1,1,-2,-1,0,-14,-14,-3,0
15070,-5,-8,-3,-2,-2,9,30,-5,0
15075,6,4,3,0,2,2,-19,3,0
15080,-8,-6,-9,-7,-4,0,3,-47,0
15085,-2,-1,2,3,-5,-8,-12,18,0
15090,-2,-1,-3,0,2,2,9,-9,0
15095,-5,-2,-6,-5,-2,12,18,-17,0
15100,-10,-1,7,7,7,-16,-13,3,0
15105,2,0,-6,-2,-3,-5,0,12,0
15110,-4,-4,-5,-2,-2,-8,-19,-16,0
15115,-1,-3,-2,2,1,13,11,2,0
15120,4,3,4,-4,-5,10,-1,10,0
15125,-6,-8,-4,-5,-5,-6,-1,-16,0
15130,-6,0,5,4,6,-16,-10,-9,0
15135,2,1,4,3,0,-2,-10,4,0
15140,-1,-2,-10,-6,-3,15,9,-11,0
15145,-1,-4,-6,0,1,-7,4,2,0
15150,2,-1,4,0,0,12,5,10,0
15155,2,-2,-8,-7,2,13,16,22,0
15160,3,1,7,1,1,-7,6,17,0
15165,-2,1,-5,0,2,2,-13,19,0
15170,4,-2,-1,-2,-6,0,10,4,0
15175,-3,-2,-2,-1,-5,-11,-10,-4,0
15180,1,-2,-3,-2,-3,-1,1,7,0
15185,6,4,2,2,9,3,-3,1,0
15190,-5,0,0,-4,-2,-6,-7,-6,0
15195,-6,-3,-1,-2,-1,10,3,-4,0
15200,2,0,-1,-3,-5,-17,-15,24,0
15205,-10,-4,-1,2,3,8,5,-41,0
15210,0,-2,-1,3,-3,-4,-1,7,0
15215,0,1,-2,-1,2,3,8,3,0
15220,-8,-3,-1,-4,-6,-3,-6,-31,0
15225,0,2,3,2,-4,-10,1,-2,0
15230,-6,-9,-8,-6,0,0,-9,3,0
15235,1,-2,-1,-2,-4,-6,5,0,0
15240,15,4,0,-2,-1,13,1,45,0
15245,0,-1,-1,-5,-5,-10,-3,-5,0
15250,0,-3,1,-1,-1,6,-1,-3,0
15255,0,2,2,1,2,-2,-20,-8,0
15260,1,-2,-2,-2,-1,-5,19,3,0
15265,-4,2,1,-2,-2,4,-1,1,0
15270,9,-2,-4,-1,-3,-4,-18,25,0
15275,10,6,3,2,0,-6,-4,13,0
15280,-6,-2,-1,2,3,9,-17,-36,0
15285,-2,-1,-3,-7,-9,-19,-11,-26,0
15290,-1,4,3,2,1,5,7,-30,0
15295,1,0,1,0,-1,-4,11,0,0
15300,-11,-8,-2,0,0,-2,-39,-28,0
15305,11,11,2,-2,-2,-3,23,23,0
15310,-2,4,2,0,4,6,8,14,0
15315,-3,-4,-6,-2,-1,2,13,-8,0
15320,1,0,-4,-2,0,2,14,3,0
15325,-5,-4,-1,-1,0,5,-11,-19,0
15330,-3,-1,-1,-3,-5,-14,-5,-15,0
15335,-6,-1,-1,0,0,5,0,1,0
15340,-5,-5,-4,-6,-5,-8,-4,-17,0
15345,0,-3,-1,0,2,9,7,14,0
15350,-4,-3,-2,1,-2,-2,-24,-39,0
15355,-6,-4,-4,-5,-2,-1,15,-9,0
15360,5,1,1,0,-5,-7,2,34,0
15365,-4,-6,-3,1,4,3,5,16,0
15370,-7,2,5,0,-1,-4,-7,-11,0
15375,1,-3,-4,-4,-8,1,1,-2,0
15380,1,1,1,-5,7,12,7,1,0
15385,-5,-3,-2,0,-4,-13,-9,-9,0
15390,1,-2,-2,-5,0,-10,4,18,0
15395,3,1,0,3,-1,9,-8,11,0
15400,-1,-1,-1,3,1,5,3,9,0
15405,-2,-3,0,0,-3,2,3,-4,0
15410,-8,-4,-4,-5,-5,1,-4,-30,0
15415,0,1,2,0,-9,-23,-5,1,0
15420,4,-2,-5,-3,0,8,2,16,0
15425,-17,-5,0,-6,2,-1,2,-37,0
15430,0,2,2,3,-7,-19,-13,-1,0
15435,-3,-2,-4,-3,8,4,10,-8,0
15440,-2,-1,0,-2,-9,8,23,8,0
15445,6,0,-3,-1,4,-2,-11,24,0
15450,2,-1,0,1,5,9,7,1,0
15455,1,1,2,-1,-7,-6,-11,0,0
15460,-6,-8,-7,-9,0,-6,-2,1,0
15465,3,-3,0,4,7,1,-8,6,0
15470,-2,1,-1,-3,-7,-1,3,16,0
15475,-3,-1,-1,-1,2,10,-2,-35,0
15480,2,3,3,3,-6,-5,-3,-3,0
15485,-1,-1,0,-5,-8,-19,-3,1,0
15490,4,-1,-1,4,10,12,1,6,0
15495,-6,-3,-2,0,-2,2,1,6,0
15500,0,6,2,4,4,10,14,15,0
15505,-12,-9,-6,-5,-10,-11,-18,-57,0
15510,-4,-1,0,0,-3,-4,2,1,0
15515,2,-2,-4,-5,9,-1,-2,7,0
15520,0,2,2,6,1,1,17,11,0
15525,6,2,0,-4,-2,3,2,24,0
15530,-11,2,2,1,-4,-7,9,-12,0
15535,-3,-5,-4,0,3,5,-11,-29,0
15540,-1,-3,-5,-4,-5,-9,-7,-9,0
15545,2,1,1,1,3,-1,0,6,0
15550,-4,-2,1,-1,-6,-6,-3,-15,0
15555,8,1,-2,-5,-2,-5,-1,60,0
15560,2,3,5,7,6,8,14,-1,0
15565,0,0,-1,-3,-3,-3,-9,1,0
15570,-5,-4,-3,-3,-21,-23,-10,2,0
15575,-10,-8,-1,0,16,13,-10,-49,0
15580,4,-3,-1,-2,3,-2,-7,8,0
15585,-2,0,-3,-7,-12,-6,-6,-12,0
15590,4,-2,-1,-1,10,10,0,6,0
15595,4,3,2,4,-14,-13,7,30,0
15600,-5,-4,-5,-3,-2,2,-4,-10,0
15605,-7,-6,-2,-2,-3,-2,0,-4,0
15610,0,-2,-2,-3,-1,-4,-16,-12,0
15615,0,0,-2,0,-4,2,12,-5,0
15620,2,0,0,-1,5,3,-2,-2,0
15625,5,1,0,-1,-1,-2,1,15,0
15630,-4,-2,0,-1,2,1,-3,-12,0
15635,1,-1,-2,-3,-3,-1,-7,9,0
15640,-9,-1,1,1,0,-6,-3,-41,0
15645,2,0,1,0,-9,-6,-2,-2,0
15650,0,1,0,-3,19,8,9,-1,0
15655,-4,-6,-3,0,2,2,-12,-9,0
15660,-2,3,1,1,-2,-5,-1,-10,0
15665,2,1,-1,-1,3,4,-5,-7,0
15670,2,4,-1,-1,-7,-4,6,5,0
15675,-9,-4,-1,-3,3,3,5,3,0
15680,-4,-9,-6,-5,1,0,-7,-1,0
15685,0,1,-1,1,-5,-9,-5,8,0
15690,3,-1,-1,-6,-7,0,9,8,0
15695,1,1,0,2,4,4,-8,10,0
15700,1,1,-2,-7,-15,-16,-13,0,0
15705,-3,-3,-2,0,-3,-6,-4,0,0
15710,-3,-3,-3,2,12,3,7,3,0
15715,2,2,2,1,5,10,11,2,0
15720,1,-1,0,2,-2,3,-7,14,0
15725,0,0,-2,-1,-1,-7,-4,1,0
15730,1,1,-1,-1,-1,10,-6,1,0
15735,-1,-1,0,-3,-8,-9,1,-3,0
15740,7,1,0,-1,5,2,-14,2,0
15745,-3,2,4,2,2,-2,6,-9,0
15750,11,3,1,2,-2,-3,-6,40,0
15755,-10,-11,-11,-7,-8,-11,-8,-24,0
15760,-10,2,2,-3,-4,5,13,-10,0
15765,-3,-7,-5,-2,5,4,1,0,0
15770,-1,-2,-3,0,-5,-3,-3,-2,0
15775,10,6,2,5,2,1,16,41,0
15780,0,-1,-3,-2,-1,-1,3,7,0
15785,1,-3,-3,-2,-2,-3,-1,1,0
15790,-5,-5,-3,-1,11,5,0,-16,0
15795,-1,1,1,0,-5,-5,0,9,0
15800,-4,-4,-3,-5,-4,-5,-3,-14,0
15805,0,4,5,1,-3,-3,-1,5,0
15810,1,0,-1,0,0,-1,-1,11,0
15815,4,5,2,-1,-5,-7,0,35,0
15820,-4,-6,-2,-1,3,4,2,11,0
15825,2,-3,-2,-2,-1,4,-10,7,0
15830,-4,-2,0,0,-6,-8,-3,-21,0
15835,5,2,1,-2,-3,3,-1,6,0
15840,2,2,1,3,4,1,-12,-27,0
15845,-2,1,2,2,7,-1,0,-7,0
15850,-7,-2,0,-2,-6,-4,-10,-13,0
15855,1,-2,-2,-1,-1,3,5,-20,0
15860,2,3,0,4,4,-4,2,17,0
15865,-3,-2,-1,0,-2,1,-2,-23,0
15870,0,0,-1,-3,-13,-12,3,-5,0
15875,-8,-3,-2,-1,16,13,-16,-26,0
15880,-3,0,-1,-1,2,-6,0,1,0
15885,-1,-1,-4,-2,-6,2,1,7,0
15890,-1,-3,-1,1,10,11,10,10,0
15895,-2,-1,-2,-6,-12,-12,-1,-12,0
15900,0,0,-1,0,0,1,2,11,0
15905,0,3,-1,-1,2,0,0,35,0
15910,-2,-1,-2,-2,-5,-9,-6,-24,0
15915,-2,-2,-1,0,2,-2,-1,7,0
15920,-3,-1,-2,0,-7,-2,-2,1,0
15925,-3,-2,-3,-4,3,6,-1,-1,0
15930,2,-1,-1,-1,-6,-2,6,34,0
15935,0,-1,1,0,2,-2,5,-7,0
15940,-1,-1,-2,0,-6,-4,1,-1,0
15945,-7,-1,0,-2,1,2,6,-13,0
15950,-5,-5,-2,-4,-6,-2,-11,-12,0
15955,3,-1,-4,0,-7,-8,-7,9,0
15960,-2,-3,-3,-2,14,19,19,10,0
15965,6,-1,-3,-3,-9,-11,-12,1,0
15970,-6,-8,-2,-1,2,1,-2,-8,0
15975,-5,-2,-1,1,-5,-5,2,-1,0
15980,-5,-1,-2,-3,4,-6,-11,-22,0
15985,1,0,1,0,3,0,5,-3,0
15990,2,4,0,-3,-4,3,1,12,0
15995,0,-3,-1,1,3,6,-5,-6,0
16000,1,-1,0,0,-6,-7,4,7,0
16005,7,2,1,4,5,6,7,21,0
16010,1,2,0,1,0,1,4,-2,0
16015,-8,-3,-2,-4,1,-6,-2,-17,0
16020,4,2,1,0,-1,3,1,5,0
16025,2,0,-1,1,-4,-4,4,34,0
16030,-1,0,-2,-1,1,0,-3,-27,0
16035,1,1,0,-1,-1,-1,-2,1,0
16040,1,-2,-1,-3,-3,-2,0,1,0
16045,-3,0,1,0,1,0,-6,-14,0
16050,-2,0,-1,1,1,-3,-1,10,0
16055,1,0,1,2,1,4,-17,-28,0
16060,4,0,-2,-5,-10,-7,0,15,0
16065,-8,-4,-1,-4,-1,0,-2,-18,0
16070,-3,-3,-2,-1,-4,-7,0,0,0
16075,-7,-3,-3,-1,2,16,4,-27,0
16080,-3,-2,-1,-5,-4,-4,-4,1,0
16085,-7,-5,-3,-2,-3,-9,-12,-26,0
16090,0,-1,-1,-1,2,7,10,2,0
16095,3,1,1,1,3,4,11,36,0
16100,0,-2,-3,-1,0,-3,-4,0,0
16105,-3,-1,3,-1,-8,-8,-2,-11,0
16110,-2,-1,-3,-2,5,2,-5,-8,0
16115,-2,-4,-3,-4,-10,-20,-10,-3,0
16120,-4,-4,-1,-1,-1,-6,-20,-12,0
16125,5,0,0,-2,-3,13,22,-6,0
16130,1,1,1,-1,1,-4,-1,11,0
16135,-2,0,0,-1,4,2,5,16,0
16140,-2,4,1,1,-2,-3,-1,-2,0
16145,-7,-1,-5,-3,-2,-9,-6,-12,0
16150,0,0,-1,-2,0,-4,-2,1,0
16155,-1,0,-1,-3,-1,5,6,5,0
16160,-10,-4,-1,0,-2,-10,1,-20,0
16165,-4,0,-2,-3,-6,-9,-5,-7,0
16170,3,-1,-4,-1,13,28,6,21,0
16175,-3,-3,1,-2,-8,-10,-10,-8,0
16180,1,0,-2,-3,-6,1,12,21,0
16185,2,1,1,4,6,6,1,4,0
16190,-6,-2,1,-1,-7,-5,-3,-10,0
16195,0,-1,-3,0,0,-3,6,-1,0
16200,8,1,-2,-3,-3,5,12,37,0
16205,-2,-2,-2,0,3,0,-2,1,0
16210,2,-2,0,-1,-3,-8,-14,0,0
16215,0,0,-2,-3,-1,5,16,2,0
16220,-1,0,0,2,2,0,-3,-5,0
16225,-1,-2,-6,-5,-4,-3,-6,3,0
16230,-3,-1,1,2,-1,-4,-4,-10,0
16235,-3,-1,-1,-3,-6,-4,-9,-5,0
16240,-2,-2,0,-2,-11,-14,-5,-26,0
16245,-1,0,0,3,23,31,1,-1,0
16250,0,1,-2,-1,-10,-6,1,-2,0
16255,0,-1,1,2,2,-3,-5,5,0
16260,0,0,-1,0,-4,-3,-3,-3,0
16265,-1,0,2,-1,-5,-3,1,1,0
16270,-6,-5,-5,1,3,-4,-2,-25,0
16275,9,1,-1,-2,-6,-7,-19,11,0
16280,-1,-1,0,3,7,6,0,-2,0
16285,-5,-5,-5,-4,-3,-3,-1,-4,0
16290,2,2,2,0,-3,-1,0,19,0
16295,-5,-3,0,-1,-2,-6,0,-13,0
16300,-1,1,0,-2,3,6,-3,-18,0
16305,-1,-2,-3,-1,-2,-5,-7,-5,0
16310,0,1,0,-1,-4,-5,5,18,0
16315,-5,-2,-3,-1,-4,-8,6,-31,0
16320,-3,-1,-1,-1,9,8,-25,-17,0
16325,2,0,0,4,-6,-3,12,15,0
16330,-1,-1,0,-1,13,22,3,-7,0
16335,-4,-4,-3,-4,-10,-11,-3,6,0
16340,-2,-2,-3,-1,1,-2,4,9,0
16345,-4,-1,0,-3,-6,-12,-7,-16,0
16350,-2,0,1,1,-1,-3,-4,-6,0
16355,0,-1,0,-2,1,4,-4,-4,0
16360,-1,0,-1,-2,-5,-5,3,3,0
16365,-1,1,-2,0,3,2,-10,5,0
16370,-15,-6,-3,-5,-7,-10,-7,-72,0
16375,-4,0,-1,-2,-3,-6,-17,-22,0
16380,-3,-3,0,0,6,11,2,0,0
16385,7,5,0,3,2,8,10,18,0
16390,-2,-4,0,-1,-2,-9,-6,5,0
16395,4,1,-1,-1,-6,-2,3,22,0
16400,0,0,-1,-2,-2,-5,-6,-7,0
16405,-4,-2,-1,-3,-13,-14,-19,-9,0
16410,7,0,0,0,13,25,15,21,0
16415,-1,0,-1,1,-3,-5,1,1,0
16420,2,1,0,-2,-5,-4,8,19,0
16425,2,0,-2,-3,3,2,-5,2,0
16430,0,-2,-2,0,-11,-15,-8,2,0
16435,-2,-1,0,-2,0,7,-1,-5,0
16440,-1,-2,-2,-3,1,10,9,12,0
16445,-7,-3,0,0,-8,-15,-8,-44,0
16450,-1,1,-1,-4,0,-3,-2,3,0
16455,-7,0,2,1,10,13,8,1,0
16460,10,0,-2,1,-5,-8,1,30,0
16465,-1,-2,-3,-6,0,0,-6,4,0
16470,0,1,-3,-2,-6,-6,-6,6,0
16475,-6,-1,-3,0,-2,-3,16,-6,0
16480,-4,0,-1,-1,2,4,8,0,0
16485,2,-2,-1,0,2,1,-9,1,0
16490,5,0,1,0,2,-2,-1,21,0
16495,5,-1,1,-2,-10,-16,-10,22,0
16500,-9,-4,-2,-1,11,17,-1,-30,0
16505,-4,-1,0,0,-2,4,14,2,0
16510,5,1,-1,-3,-7,-9,-6,38,0
16515,3,-1,0,-1,3,10,4,1,0
16520,0,0,0,0,-5,-11,-13,-16,0
16525,-10,-1,-1,1,3,4,16,13,0
16530,-2,-3,-4,-4,-11,-7,0,-13,0
16535,-2,-1,0,-1,7,3,-9,-5,0
16540,-4,-3,-1,-2,-2,-7,-16,-24,0
16545,-2,-2,-1,-2,1,5,8,0,0
16550,0,2,2,1,1,-5,6,32,0
16555,-12,-4,-3,-2,0,-3,-9,-54,0
16560,-2,-1,-2,-2,-2,2,8,5,0
16565,6,-1,1,-1,-4,-6,-12,13,0
16570,-8,-4,-1,2,-1,-3,-9,-54,0
16575,5,-1,-5,-5,-5,-1,-1,7,0
16580,2,3,4,0,0,-2,-2,8,0
16585,-5,-2,-2,-3,1,-4,-2,-15,0
16590,2,0,-1,0,1,3,2,-1,0
16595,1,-1,0,0,3,8,11,22,0
16600,-7,-4,-2,0,-2,-7,-8,-30,0
16605,-8,-2,0,-1,0,3,13,2,0
16610,-5,-2,-1,-1,-1,-1,-4,3,0
16615,4,2,-1,1,-4,-8,-7,3,0
16620,-1,-2,-4,-2,2,-3,6,11,0
16625,-5,-3,-4,0,3,6,-9,-21,0
16630,-4,-2,-1,-1,-3,-5,3,-3,0
16635,-1,-1,-1,1,4,-1,-2,4,0
16640,3,1,-1,-3,-5,-6,1,13,0
16645,3,0,-1,0,-4,-4,-6,12,0
16650,-1,-1,-2,-5,2,2,-1,-36,0
16655,1,1,1,2,3,-1,-1,18,0
16660,2,2,1,2,1,2,1,3,0
16665,8,0,0,-4,-3,-2,2,16,0
16670,1,0,-2,-1,-3,-2,-4,14,0
16675,-7,-1,-1,-1,-2,0,4,-9,0
16680,-1,-2,-2,-2,-5,-4,-2,-3,0
16685,1,-1,-2,-2,1,1,-3,-1,0
16690,-3,-3,-1,-2,-5,-9,-12,-17,0
16695,-7,0,-1,-1,7,1,10,-2,0
16700,1,-6,-2,-2,0,9,-14,-25,0
16705,4,-1,-2,-3,-7,-9,-6,4,0
16710,2,0,-1,3,4,6,3,2,0
16715,1,-2,1,-3,-4,-6,-4,1,0
16720,-1,-1,-2,-1,-2,-3,2,10,0
16725,0,1,0,-1,-1,-1,7,19,0
16730,12,2,-1,-4,-7,-1,2,50,0
16735,-2,-1,-1,2,0,-5,-11,-26,0
16740,-3,-1,0,1,-3,4,10,10,0
16745,1,2,0,-1,3,-3,-4,-4,0
16750,-1,1,1,0,-2,10,6,8,0
16755,0,0,-1,-3,-4,-2,0,5,0
16760,1,-2,-2,-2,1,-4,-8,-11,0
16765,-2,-3,-1,0,-3,-3,-1,-7,0
16770,-6,-2,-2,0,0,-4,0,-17,0
16775,2,0,-1,-4,1,9,-2,-4,0
16780,-2,0,-1,-1,-7,-9,6,1,0
16785,6,-1,-2,-2,1,4,-14,-6,0
16790,-1,-2,-1,-2,2,-4,-5,-8,0
16795,4,1,0,-1,0,2,0,6,0
16800,-2,0,0,-4,-9,-6,-1,12,0
16805,2,0,0,-1,-5,-1,8,27,0
16810,-5,-3,-3,-3,-2,-7,-15,-42,0
16815,-2,-1,-3,-2,-6,-7,-3,2,0
16820,-2,-1,0,1,4,3,2,22,0
16825,-2,3,0,1,1,-4,2,-4,0
16830,-6,-3,2,1,-1,0,1,-5,0
16835,3,-1,-1,-1,1,4,-4,-2,0
16840,-1,-1,-3,-5,-3,-3,-2,-4,0
16845,-6,-4,-1,-1,-3,-3,-4,-20,0
16850,2,0,0,0,4,4,4,5,0
16855,-1,0,1,1,-2,-3,-1,-8,0
16860,-10,-1,0,1,-4,-7,3,-4,0
16865,0,-3,-3,-3,3,5,-3,-12,0
16870,-2,-2,-1,1,0,-4,-2,0,0
16875,1,-2,-1,0,0,3,1,8,0
16880,-7,-2,-1,-1,0,0,-13,-61,0
16885,0,0,-1,-4,-4,-1,4,1,0
16890,-3,-1,0,-3,0,0,1,-1,0
16895,-1,1,-2,-1,-2,-1,2,2,0
16900,-2,-3,-2,-1,1,1,-1,10,0
16905,2,-1,-1,0,-3,-2,-1,5,0
16910,-2,-3,-3,-3,-1,-7,-3,-8,0
16915,0,-1,-1,0,1,1,-1,2,0
16920,4,2,-3,0,3,-1,0,8,0
16925,-2,0,-2,0,0,-2,-4,-3,0
16930,0,1,0,-1,-2,7,6,-10,0
16935,-3,-4,-4,-3,-4,-8,-5,-6,0
16940,3,-1,-1,0,2,0,-4,5,0
16945,0,-1,-2,-2,1,0,3,-6,0
16950,5,2,2,2,-3,-5,6,29,0
16955,-3,-2,1,-1,0,5,-7,-15,0
16960,6,1,2,1,0,-2,-9,5,0
16965,8,1,0,-1,-2,-4,-11,12,0
16970,1,0,-1,-1,-4,-2,0,3,0
16975,1,0,-3,-1,-10,-13,0,10,0
16980,-8,-5,-4,-1,9,18,0,-21,0
16985,-9,-3,0,1,1,-9,-5,-8,0
16990,3,-3,-2,-3,-3,2,-8,0,0
16995,-1,0,0,1,-2,-3,5,1,0
17000,-2,0,-1,0,-5,-5,3,2,0
17005,-2,-2,-1,0,1,1,2,-3,0
17010,-12,-6,-3,-4,0,7,-6,-25,0
17015,-2,-1,1,-2,-1,-7,0,-8,0
17020,1,-1,1,-1,-4,-3,4,11,0
17025,-3,-2,-2,0,1,-1,-3,-7,0
17030,0,1,1,-1,-4,-10,6,18,0
17035,2,-1,-1,-2,1,12,2,-1,0
17040,4,2,-1,-2,1,-1,3,11,0
17045,1,-2,-2,1,4,2,-9,-33,0
17050,6,1,-2,-2,-2,-3,-5,12,0
17055,-6,-5,-4,-1,0,-2,-9,-22,0
17060,-8,-3,-1,-3,-4,-7,-6,-53,0
17065,1,0,0,0,-1,6,8,14,0
17070,-2,2,0,0,1,-3,2,4,0
17075,0,-3,-2,-3,-2,3,-3,-2,0
17080,1,1,0,-1,-3,-3,1,23,0
17085,-5,-3,0,-2,-5,-10,-3,-7,0
17090,3,-2,-3,-4,3,5,-3,-6,0
17095,2,3,1,0,-1,-4,1,21,0
17100,-3,-3,-2,-1,-5,-1,0,-7,0
17105,-1,-1,-2,-1,-6,-5,2,3,0
17110,-5,-2,-2,1,4,-4,-1,-7,0
17115,4,1,1,2,4,7,4,17,0
17120,3,0,0,-1,-3,-6,2,17,0
17125,-7,-4,-2,-3,-2,-3,-7,-26,0
17130,-3,1,1,0,-4,-9,2,6,0
17135,-9,-1,1,-2,0,1,3,-15,0
17140,7,-3,-3,-5,-2,-3,-20,-28,0
17145,-2,-2,0,-1,-1,-3,-5,7,0
17150,-2,1,-1,1,0,3,2,1,0
17155,-4,-3,-2,1,3,-2,-3,-30,0
17160,-1,0,-2,1,0,-2,3,17,0
17165,-1,1,-1,-3,-4,4,6,5,0
17170,-3,-3,-2,0,-1,2,-7,-23,0
17175,-2,-2,-1,-1,-3,-7,-4,5,0
17180,2,2,-1,-2,0,3,5,20,0
17185,-5,-1,-1,-2,0,4,-2,-11,0
17190,0,2,1,1,0,-1,6,11,0
17195,-1,0,-2,-3,-5,-4,-5,-14,0
17200,-2,-1,-1,2,0,-1,4,16,0
17205,-1,-2,-1,0,-1,1,-3,1,0
17210,-2,-2,-1,-3,-4,-1,-3,-7,0
17215,-5,-2,0,-2,-2,4,6,11,0
17220,-3,-5,-2,-4,-2,-5,-15,-36,0
17225,-1,0,-1,1,3,3,7,7,0
17230,6,-2,-1,-1,-6,-7,-15,4,0
17235,-5,-2,-2,-1,2,-3,2,-13,0
17240,-3,1,0,-1,0,0,10,19,0
17245,-2,0,0,-1,-1,4,2,3,0
17250,0,-3,-1,-3,-1,1,9,1,0
17255,7,0,-2,2,-2,-4,-15,-9,0
17260,1,0,1,-1,-3,0,3,18,0
17265,-4,-1,-2,-1,2,-7,0,1,0
17270,-3,-2,-3,-1,1,3,-3,-10,0
17275,2,0,-2,-3,-1,-1,5,29,0
17280,-4,-1,-1,2,1,0,2,-2,0
17285,0,-2,-2,-2,-4,-5,-2,-6,0
17290,-3,1,1,0,3,2,1,3,0
17295,2,1,0,-2,1,-1,0,8,0
17300,0,-2,-4,-5,-11,-8,-1,-3,0
17305,0,1,0,0,8,18,3,13,0
17310,-2,-1,0,0,0,-3,-3,-7,0
17315,1,-1,-1,1,-2,-2,3,25,0
17320,-8,-3,-2,-1,-3,-7,-6,-32,0
17325,0,-1,1,-2,1,5,4,0,0
17330,-3,0,-2,-2,2,-1,-1,-2,0
17335,8,0,1,-3,-6,-5,-14,13,0
17340,1,2,0,0,9,9,6,11,0
17345,0,0,1,1,-4,-6,6,9,0
17350,2,-1,-1,0,1,-1,-3,-3,0
17355,-5,-2,-2,0,-3,-1,5,-5,0
17360,2,0,1,3,4,0,-6,18,0
17365,-8,-3,-4,-3,-2,-5,-12,-51,0
17370,-1,-1,0,0,1,1,6,4,0
17375,-3,-1,-2,-1,-1,-5,-4,-14,0
17380,-2,-1,0,-2,-1,3,11,8,0
17385,-1,-4,-1,-3,2,3,-4,-14,0
17390,-2,-1,-2,-1,-3,-4,-4,-3,0
17395,1,-1,-1,-1,0,0,3,23,0
17400,0,0,-2,0,-1,1,-2,-6,0
17405,-2,0,-2,-1,-1,-9,-3,12,0
17410,13,1,2,-3,-3,-4,-7,30,0
17415,-3,-4,-2,-2,-1,2,-1,-13,0
17420,0,-1,0,2,-1,0,2,2,0
17425,0,-1,0,-2,-4,-5,1,9,0
17430,-4,0,-4,-5,-4,-6,3,2,0
17435,-1,-2,0,-1,1,5,-2,-9,0
17440,7,0,-1,-4,-13,-17,-22,-15,0
17445,2,-1,-1,1,13,15,0,0,0
17450,-4,-1,0,3,-1,2,4,2,0
17455,-4,-2,-1,-3,-2,-5,-4,-8,0
17460,-7,-3,-2,1,-1,-2,5,-7,0
17465,4,1,-1,-3,-7,-4,5,19,0
17470,-5,-2,-2,0,-1,-1,-6,-26,0
17475,-3,-2,-1,1,4,5,0,-9,0
17480,-4,-2,1,-2,1,0,11,4,0
17485,1,-2,-1,-1,-8,-9,-5,1,0
17490,-3,-1,-1,-1,1,5,0,-2,0
17495,-2,1,0,-1,-3,-3,1,-8,0
17500,-1,-3,-3,-2,-4,-5,-1,6,0
17505,2,0,-2,-1,3,12,1,7,0
17510,-5,-4,-2,-3,-5,-6,-3,-16,0
17515,-2,-1,-2,-1,0,0,0,-1,0
17520,2,1,-1,-2,5,8,-4,-5,0
17525,4,-3,-1,1,-3,-10,-19,-28,0
17530,2,0,-2,-2,0,1,1,2,0
17535,-1,0,-3,-2,-2,-5,-9,-13,0
17540,-2,-2,-1,0,2,0,-4,-15,0
17545,-4,0,-1,-1,-5,-4,6,6,0
17550,-2,-2,-1,1,2,6,-1,-5,0
17555,1,-1,1,-2,7,0,-1,-1,0
17560,-3,0,-1,1,1,2,1,1,0
17565,2,1,-3,0,-5,-10,1,25,0
17570,-10,-4,-3,-1,0,-4,-10,-54,0
17575,-3,-2,-3,-3,-10,-8,6,7,0
17580,8,1,0,-1,6,10,-11,10,0
17585,-6,-4,-3,-2,-3,-5,-1,-3,0
17590,-2,-2,0,-1,-4,-7,-4,-19,0
17595,2,0,-2,-1,1,2,-2,1,0
17600,-7,-2,-3,-3,-3,-5,-1,-10,0
17605,1,2,1,-4,-2,4,-1,6,0
17610,0,2,0,1,-1,-3,0,15,0
17615,0,0,-2,0,-1,-1,-1,-4,0
17620,-3,-2,-2,-1,-2,0,1,6,0
17625,-3,-1,1,0,1,3,7,3,0
17630,0,-1,-1,0,0,-5,-7,9,0
17635,-9,-4,-1,1,-4,-8,-3,-26,0
17640,-4,-2,-2,-1,1,-3,-4,-29,0
17645,1,-1,0,-2,-3,2,0,-3,0
17650,1,-1,1,-2,1,4,5,33,0
17655,4,2,-1,-1,-3,0,6,17,0
17660,-2,-1,-1,-2,-7,-3,5,-1,0
17665,4,1,1,0,8,8,0,15,0
17670,0,1,2,0,-1,0,8,11,0
17675,-2,-1,-3,-2,-2,-2,1,-3,0
17680,2,0,-1,-1,-2,-1,0,9,0
17685,-1,-5,-1,-1,-12,-16,-4,-4,0
17690,0,-1,-1,-1,10,30,-1,-8,0
17695,1,-1,-1,1,-5,-9,-8,3,0
17700,-2,0,-2,-1,2,1,1,-6,0
17705,-1,1,1,-1,-1,5,8,3,0
17710,-1,-1,2,2,-4,-11,-1,9,0
17715,-13,-3,-1,0,3,6,12,-6,0
17720,3,3,0,-4,-5,2,4,12,0
17725,-1,0,0,-2,0,1,2,12,0
17730,-3,-3,-2,-1,-7,-13,-9,-24,0
17735,-6,-2,-1,-2,5,6,-2,-18,0
17740,-13,-3,-1,-5,-6,-8,3,-31,0
17745,0,-1,-1,-2,1,-1,-4,-3,0
17750,-3,0,-2,-4,-5,-4,1,-5,0
17755,-1,-2,-2,0,-1,-4,-5,-5,0
17760,-1,-1,0,-2,-4,1,2,9,0
17765,3,0,-2,-2,-4,-2,-4,6,0
17770,-1,1,-1,-3,-5,-4,-4,7,0
17775,1,-1,-2,1,2,-4,0,3,0
17780,4,0,-3,-2,0,0,-3,11,0
17785,-2,-3,-3,-1,1,-3,-5,-4,0
17790,1,-2,-3,1,1,1,4,-1,0
17795,-1,1,-1,1,1,7,-4,-3,0
17800,0,-3,-1,0,1,-2,-1,3,0
17805,-7,-6,-3,-1,1,-2,-10,-25,0
17810,4,1,1,-1,-7,-11,8,51,0
17815,2,-1,-2,-4,3,-3,-10,-5,0
17820,1,-2,-3,0,-4,3,-2,1,0
17825,-6,-2,0,-1,-1,2,-4,-21,0
17830,5,-1,1,1,2,1,-7,8,0
17835,-2,-2,0,0,-7,-15,-2,0,0
17840,-3,-1,-2,-1,1,-3,-3,-9,0
17845,-10,-2,-3,-2,-2,-1,5,-5,0
17850,-2,0,-1,-2,-2,-2,3,-7,0
17855,5,1,0,-5,-5,-2,0,4,0
17860,2,1,-1,0,3,3,-7,-23,0
17865,2,-1,0,0,-3,-2,6,20,0
17870,-4,0,-2,1,2,3,-2,-4,0
17875,-3,-1,0,-1,-2,-5,-1,-3,0
17880,-1,-4,-1,-3,-4,-3,-10,-12,0
17885,7,2,1,0,1,-4,6,38,0
17890,-3,-5,-2,-1,3,1,-7,-14,0
17895,2,0,-2,-1,2,8,-1,-1,0
17900,-1,0,0,0,-3,-7,0,7,0
17905,3,0,-2,-1,-6,-10,2,0,0
17910,-2,-4,-3,-1,6,22,0,-7,0
17915,0,2,0,1,4,-1,6,7,0
17920,-2,-1,-3,0,2,5,1,11,0
17925,-1,0,-1,-3,-1,0,-3,-10,0
17930,3,2,0,-1,-3,-10,6,18,0
17935,-1,-2,-1,0,-5,-2,-1,-8,0
17940,-2,-2,0,-3,0,2,0,1,0
17945,2,0,0,-4,0,-1,-7,-2,0
17950,0,0,-1,0,1,-1,1,1,0
17955,0,0,-2,-2,-1,3,0,5,0
17960,0,0,-1,2,0,-7,-2,2,0
17965,-1,-1,-2,1,-5,0,-1,9,0
17970,-8,-3,1,2,6,10,4,-19,0
17975,3,0,-1,-4,-5,-7,1,6,0
17980,-4,0,1,0,1,3,3,-2,0
17985,0,1,0,1,1,1,2,9,0
17990,-4,-1,-1,-4,-7,-9,-5,-17,0
17995,7,0,0,2,0,0,2,36,0
18000,1,-3,-2,-4,2,0,-10,-16,0
18005,-1,0,0,1,-6,-8,1,3,0
18010,-3,0,-3,-3,5,14,-2,-13,0
18015,-7,-3,-3,-1,-5,-5,-4,-10,0
18020,-1,1,0,-1,1,-3,1,7,0
18025,-1,-2,0,-1,-11,-10,-10,-16,0
18030,-2,0,-1,0,3,13,5,1,0
18035,-3,-3,-3,0,-2,-3,-6,-24,0
18040,-4,-3,-1,1,3,1,1,1,0
18045,5,-2,-3,-1,3,5,-12,-15,0
18050,-4,0,1,0,-7,-16,2,-1,0
18055,-1,-1,-1,0,3,4,3,4,0
18060,-3,0,-2,0,-3,-3,4,-1,0
18065,-9,-3,-5,-4,1,1,-8,-48,0
18070,9,0,1,-4,-5,-5,3,43,0
18075,-1,-3,-2,-1,0,-2,-1,-7,0
18080,3,-1,-2,-3,1,1,0,6,0
18085,1,1,1,1,2,5,7,10,0
18090,2,-3,0,-1,-5,1,4,6,0
18095,4,-1,-1,1,0,-2,2,38,0
18100,-2,-2,-4,-1,7,8,-5,-10,0
18105,-2,-3,-1,-1,-6,-7,-5,-16,0
18110,-2,1,0,-2,-4,-4,-7,-4,0
18115,-7,-1,0,0,3,1,1,-4,0
18120,4,-2,-2,-3,-10,-19,-18,-29,0
18125,-4,-2,0,0,3,6,2,-1,0
18130,3,1,-1,-2,-1,4,2,6,0
18135,6,-1,-3,0,-3,-7,-17,6,0
18140,-3,1,-1,-1,2,6,1,-20,0
18145,-5,-1,-2,-2,-2,-3,9,9,0
18150,-2,-5,-1,-2,-1,-6,-5,-1,0
18155,-1,-1,0,-3,5,13,8,10,0
18160,-3,-3,-1,-1,-4,-8,0,4,0
18165,3,2,1,0,0,1,-3,-10,0
18170,-3,-1,-1,1,-1,1,2,5,0
18175,-6,-4,-1,0,-5,-5,-4,-22,0
18180,-4,-3,-1,-1,1,-2,0,1,0
18185,-2,-2,-1,-3,-7,-5,-7,-21,0
18190,3,0,0,0,2,-5,-3,1,0
18195,-3,-2,-2,-1,3,12,5,-9,0
18200,1,-1,0,1,-5,-10,-1,2,0
18205,-1,1,0,2,2,-2,-2,15,0
18210,2,0,-1,-3,0,3,-3,-1,0
18215,-2,0,-2,-3,-2,-2,1,-2,0
18220,11,1,0,-1,0,-3,1,61,0
18225,-5,-3,0,0,-2,6,-1,-9,0
18230,1,-4,-2,-1,-1,-1,-8,-2,0
18235,-3,0,-1,-1,1,3,7,-1,0
18240,-2,1,1,0,-1,-5,-2,4,0
18245,-3,2,1,1,4,3,-3,-11,0
18250,2,-1,-2,-1,-4,5,2,-5,0
18255,-5,-4,-2,-2,-2,-14,-4,-4,0
18260,-3,-1,-1,1,4,17,-1,-21,0
18265,3,-3,-1,-4,-3,-9,-2,10,0
18270,-6,-1,-2,-2,-3,0,2,-6,0
18275,1,1,-2,0,0,-10,1,0,0
18280,-5,-2,-1,-1,-5,-1,-4,-13,0
18285,4,0,-2,-2,1,0,-7,16,0
18290,-2,0,-2,-1,-1,-3,11,14,0
18295,9,-1,-1,-3,-2,-2,-17,3,0
18300,-1,-1,-1,-2,-5,-3,5,-7,0
18305,-3,-3,-3,-2,3,4,-14,-22,0
18310,-11,-4,-1,-2,-4,-1,-8,-56,0
18315,-2,0,0,1,7,8,4,0,0
18320,-2,-2,-1,2,3,-5,1,-6,0
18325,2,-1,0,-2,-7,-4,4,8,0
18330,10,3,0,0,0,-2,-10,18,0
18335,-6,-1,-2,-3,-4,-7,-3,-20,0
18340,-3,-3,-2,-4,-8,-4,-4,-11,0
18345,3,-1,-1,0,1,3,12,11,0
18350,-4,-1,-1,-2,0,-4,-7,-30,0
18355,-1,0,-1,-1,1,4,5,10,0
18360,0,1,-1,-1,-4,-1,-3,3,0
18365,-2,-2,0,-2,-2,-10,-4,-8,0
18370,-3,-3,-1,-1,-2,3,3,9,0
18375,-4,-3,-2,-1,0,0,-1,-14,0
18380,-6,-3,-2,-1,1,-2,-4,-12,0
18385,-1,-2,-2,-3,1,5,4,8,0
18390,0,-2,-1,2,0,-3,3,9,0
18395,-1,1,0,-1,-5,4,9,14,0
18400,-5,-4,-1,0,1,-6,-6,-38,0
18405,-2,-1,-2,-3,-3,4,1,4,0
18410,4,1,-2,0,1,4,0,20,0
18415,-5,-2,-2,-1,-3,-4,-4,-18,0
18420,1,0,-2,-3,-5,-5,1,10,0
18425,-9,0,0,-1,-1,-9,9,16,0
18430,1,-2,0,-2,-1,-1,-3,2,0
18435,2,1,0,-1,0,0,0,10,0
18440,-2,-4,0,0,2,0,-3,2,0
18445,-1,-1,-2,-3,-7,-3,2,5,0
18450,-1,-1,-1,0,-2,-4,-1,4,0
18455,3,0,0,1,1,4,4,28,0
18460,-4,-3,-3,-4,-3,-3,-8,-13,0
18465,6,-1,-1,0,2,2,-6,-5,0
18470,-4,-4,-1,1,2,3,6,1,0
18475,2,-1,-2,-3,-8,-3,-2,1,0
18480,-1,-1,0,3,2,1,2,5,0
18485,1,0,-1,-1,1,-2,-2,-1,0
18490,-3,-2,-2,-1,0,-4,-3,-6,0
18495,4,0,0,-3,-3,-8,7,30,0
18500,-5,-1,-2,-4,3,10,-5,-10,0
18505,1,-1,0,0,-3,-4,-3,8,0
18510,0,-1,-2,-2,2,-1,0,-1,0
18515,-5,-3,0,-1,-3,1,-2,-7,0
18520,3,-1,1,1,-2,-3,4,14,0
18525,1,-2,-1,2,1,-1,-8,-2,0
18530,11,1,-2,-4,-11,-18,-19,10,0
18535,-5,-4,-1,-1,5,4,0,-18,0
18540,3,0,-1,2,2,3,4,10,0
18545,-6,-3,-3,-2,-2,-2,-4,-35,0
18550,-4,1,3,1,4,2,9,4,0
18555,-5,-1,-1,-1,-4,-3,-7,-20,0
18560,4,-1,-1,-3,-5,-3,-4,5,0
18565,3,-3,-2,1,0,-1,-4,4,0
18570,0,0,-1,-1,-1,-4,-5,5,0
18575,-5,-1,-1,-1,0,1,-5,-21,0
18580,-2,0,-1,-2,0,-3,4,5,0
18585,-3,-1,-2,-4,-4,-5,-6,-17,0
18590,3,-1,0,-2,2,12,12,28,0
18595,0,-1,0,4,1,2,0,3,0
18600,-2,-1,-2,-2,0,0,-1,-1,0
18605,-3,-1,-1,0,-2,0,0,-6,0
18610,-2,0,0,-2,0,-3,-1,-6,0
18615,-3,0,0,-2,0,-3,2,-4,0
18620,-1,0,0,-1,1,0,-1,0,0
18625,4,0,1,-2,-2,-4,4,18,0
18630,-15,-3,-1,-3,-2,0,2,-37,0
18635,11,-3,-1,-1,-3,-4,-25,-13,0
18640,1,0,1,-1,-1,-2,1,-2,0
18645,-4,-2,-1,1,2,-1,0,-3,0
18650,-8,-2,-1,0,-2,-1,6,-4,0
18655,3,-3,-2,-3,-2,-2,1,27,0
18660,2,-1,-3,-2,-1,-1,-3,-2,0
18665,1,-2,-1,-1,3,3,-1,8,0
18670,-1,-1,-4,-1,-1,-3,-4,-6,0
18675,-4,-3,-5,-2,-6,-8,1,7,0
18680,1,1,-2,1,2,9,1,6,0
18685,1,-1,0,0,-2,-1,5,6,0
18690,-1,0,0,0,0,1,-4,-1,0
18695,2,1,0,2,2,0,5,24,0
18700,-4,-1,-1,-2,2,0,1,-7,0
18705,-4,-2,-2,-2,-8,-5,-6,-13,0
18710,1,-2,0,-1,1,1,-6,-4,0
18715,-1,-1,-1,-2,-3,-2,2,0,0
18720,-4,-2,-1,-2,-6,-9,-8,-32,0
18725,0,-1,0,0,0,2,-1,5,0
18730,-2,-1,0,-2,0,1,8,7,0
18735,-3,0,-1,-1,-3,-2,1,7,0
18740,-2,-2,-1,-2,1,-3,-7,1,0
18745,-2,0,1,-2,0,-1,4,-7,0
18750,-3,-4,-3,-1,-3,-1,-9,-9,0
18755,-4,-2,-1,-2,-2,-4,-1,-15,0
18760,-1,1,0,2,5,12,7,9,0
18765,-2,0,-1,-1,-3,-6,-2,1,0
18770,4,0,0,-3,1,5,1,7,0
18775,-2,-1,-2,-2,-3,-1,-1,-9,0
18780,7,0,0,0,-2,-3,4,24,0
18785,1,-2,-1,-2,1,2,0,-1,0
18790,-1,0,0,0,-1,-3,-5,-2,0
18795,0,1,-2,-2,1,-1,-2,-3,0
18800,-4,1,-1,-1,-7,-9,-1,-2,0
18805,0,-2,-3,-1,6,7,0,2,0
18810,-3,-1,-2,-1,-7,-5,0,1,0
18815,-2,0,0,-1,2,2,1,2,0
18820,-6,0,0,1,1,-2,3,-7,0
18825,8,1,-2,0,2,0,-10,-10,0
18830,0,1,1,-1,1,-1,1,0,0
18835,0,-3,-2,-3,-3,0,1,-10,0
18840,3,-2,-1,-5,-7,-9,-2,6,0
18845,-4,-2,-1,0,6,8,3,-6,0
18850,-5,-2,-1,0,1,-3,0,-12,0
18855,4,0,0,-2,0,0,-4,1,0
18860,-2,-1,-2,-1,0,-8,5,10,0
18865,-1,-1,0,-1,-1,4,-1,8,0
18870,2,-2,-1,-1,-2,-4,-1,5,0
18875,-3,-1,-1,-1,3,7,1,-5,0
18880,-1,-2,-2,-1,-3,-5,-7,-3,0
18885,-3,-1,0,0,-4,-1,3,-2,0
18890,8,3,-1,1,4,2,1,43,0
18895,0,0,0,0,-2,-2,3,-8,0
18900,2,-1,-1,-2,-1,-4,-4,-1,0
18905,0,0,0,-2,-8,-5,3,20,0
18910,-1,-1,-3,-3,-3,3,-1,2,0
18915,-5,-4,-1,1,3,2,-3,-10,0
18920,0,-2,-3,-3,-2,-2,-3,-3,0
18925,-3,-1,-2,-1,0,-5,1,1,0
18930,1,-1,-1,0,-2,-4,-1,-2,0
18935,-8,-1,1,-1,-1,-1,6,6,0
18940,-6,-3,-1,-1,2,3,5,-8,0
18945,0,-2,0,-3,-5,-4,-1,0,0
18950,-2,2,0,-1,0,-2,-2,-12,0
18955,-5,-1,-2,0,-1,1,1,-10,0
18960,-3,1,1,1,-1,3,2,4,0
18965,-2,0,-2,-1,-2,-1,0,-4,0
18970,-3,-2,-1,-3,-2,-1,-2,-9,0
18975,-1,-2,0,2,-1,-2,-3,-1,0
18980,-1,-2,-1,-2,-1,0,-6,-17,0
18985,-1,-1,-2,0,-1,-2,-4,-6,0
18990,-2,-3,-3,-2,0,2,-2,-11,0
18995,0,-1,0,-1,-1,-5,-5,-4,0
19000,-1,-2,-2,-3,-2,3,0,-1,0
19005,-2,-1,0,0,3,1,-2,-1,0
19010,1,0,0,1,0,0,6,15,0
19015,3,-1,-1,-1,1,7,0,16,0
19020,-1,-2,-1,-1,-2,2,-4,-7,0
19025,0,-1,-2,-3,-3,-5,-1,-1,0
19030,-1,0,0,1,0,-2,-2,6,0
19035,-5,-2,-3,-1,-1,6,8,-1,0
19040,-1,-2,-1,-1,-2,-5,-2,-1,0
19045,1,-1,0,-1,-2,-1,-8,3,0
19050,0,-2,-1,-2,-5,-2,-2,-11,0
19055,0,0,-1,-1,-2,-6,-3,-7,0
19060,-9,-3,-2,-2,0,0,-1,-26,0
19065,-3,-1,-2,-2,-2,-3,1,-2,0
19070,0,0,1,1,-1,-6,0,1,0
19075,1,-1,0,-1,1,0,-5,-3,0
19080,4,1,0,-1,-2,-1,0,21,0
19085,-4,-1,1,1,2,1,-2,-20,0
19090,-2,-1,-4,-2,-2,-3,-3,-9,0
19095,0,0,0,-3,-3,-1,-3,-1,0
19100,0,-2,-1,1,5,0,-4,-1,0
19105,1,2,-2,-3,-5,-4,1,8,0
19110,-2,-2,-2,-4,-3,-1,0,-4,0
19115,0,-1,-1,2,3,4,4,13,0
19120,-1,-2,-4,-1,-3,-4,-2,4,0
19125,-3,-1,-1,-2,0,-1,-7,-16,0
19130,0,0,0,-1,1,-4,-4,0,0
19135,-4,-1,-3,-3,-1,-9,-7,-11,0
19140,9,1,-1,-2,-3,5,-9,1,0
19145,6,1,-1,-1,-2,-3,5,33,0
19150,6,1,0,0,3,5,-10,6,0
19155,-4,-1,0,0,-1,-3,2,-19,0
19160,-1,1,0,1,-1,-3,5,4,0
19165,-3,-4,-2,1,2,1,-3,-10,0
19170,2,1,-1,-3,-7,-5,-1,-4,0
19175,5,-2,-3,-3,1,3,2,31,0
19180,-7,-3,-3,-2,0,0,-4,-25,0
19185,-3,0,-1,1,-1,-1,3,3,0
19190,-5,-4,-2,0,2,-1,2,-6,0
19195,1,-3,0,0,-2,0,-6,17,0
19200,-3,0,-1,-2,-1,0,2,2,0
19205,-3,-3,0,-3,1,-1,-1,-4,0
19210,-4,0,0,0,1,2,3,-7,0
19215,-1,3,2,1,-1,-1,3,8,0
19220,1,-1,-2,-5,-4,-1,-1,2,0
19225,-2,-3,-2,-1,-1,-2,-6,-9,0
19230,8,-2,-1,-1,-3,-1,-9,9,0
19235,-9,-1,-1,-1,-2,-3,4,-24,0
19240,-4,-1,-2,0,0,-2,-1,-4,0
19245,0,0,-1,-2,-2,-1,1,3,0
19250,-3,-2,-2,-1,-3,-1,1,-6,0
19255,0,-2,-2,0,1,-2,-5,-9,0
19260,1,-2,1,0,-1,-3,-1,-1,0
19265,-3,-2,0,-1,0,5,-2,-11,0
19270,-7,0,0,-1,1,-2,0,-6,0
19275,-5,-2,-2,-3,-3,-1,-6,-43,0
19280,-6,-2,-2,1,2,-3,-5,-27,0
19285,0,1,1,2,2,1,3,8,0
19290,-1,-2,-2,2,-3,-4,0,11,0
19295,4,-2,-2,-4,0,-2,-3,3,0
19300,0,0,2,2,5,6,-2,0,0
19305,-1,-2,-1,-2,-4,-4,-1,-5,0
19310,0,1,-3,-1,1,2,1,-3,0
19315,-5,-1,-1,-2,-3,-6,0,-5,0
19320,4,1,-1,-3,-4,-2,3,24,0
19325,-4,-3,-2,-1,0,0,-7,-10,0
19330,-7,-4,-1,0,1,-2,3,-4,0
19335,1,-1,-2,-1,-4,0,0,9,0
19340,7,0,-1,-1,-2,-4,-8,10,0
19345,2,-1,-1,-2,-1,-6,-3,7,0
19350,-2,-3,0,-1,2,1,-4,-7,0
19355,3,0,-2,0,-5,-3,-1,6,0
19360,-18,-8,-1,0,1,0,-13,-60,0
19365,-6,-1,-2,-5,-7,-6,2,8,0
19370,2,-1,-1,-1,3,0,-1,-2,0
19375,1,-1,-1,0,-1,-5,-3,0,0
19380,4,1,0,-1,2,1,6,23,0
19385,1,1,0,-1,0,8,6,6,0
19390,-4,-1,1,1,1,0,1,-12,0
19395,-1,-1,-1,-3,-1,-2,-3,-1,0
19400,6,-1,-1,-1,-4,-5,-2,13,0
19405,-1,0,-1,-1,-2,-7,-1,-11,0
19410,0,-1,0,0,0,3,2,9,0
19415,2,-3,-1,0,-1,-1,-7,-2,0
19420,-3,-1,0,2,0,-1,2,4,0
19425,6,0,-1,-2,0,1,-6,25,0
19430,-3,-2,-1,-2,-2,-2,-2,-15,0
19435,-10,-1,0,0,1,1,-1,-42,0
19440,-2,0,0,-3,-2,-1,4,12,0
19445,1,3,-3,-1,-3,-3,-1,-2,0
19450,1,-2,-1,-4,-6,-12,-7,5,0
19455,0,0,0,0,8,12,5,14,0
19460,2,-1,1,-3,-2,-1,3,12,0
19465,-6,-2,-1,-1,-3,-4,1,-20,0
19470,-2,1,-3,-2,-1,-2,0,1,0
19475,3,-2,-1,0,-5,-3,0,7,0
19480,0,-2,-4,0,2,4,-5,-1,0
19485,-1,0,1,0,-3,0,2,2,0
19490,-3,-3,-2,-3,-3,-3,-1,2,0
19495,0,1,2,-1,0,0,0,7,0
19500,6,1,-1,-1,-3,-3,-5,6,0
19505,3,-1,0,-1,1,-1,1,1,0
19510,-2,0,0,-1,0,5,4,5,0
19515,8,0,-1,-2,-2,-7,-18,-1,0
19520,-6,-2,-2,-2,-2,-4,-2,-25,0
19525,-4,-2,-2,0,2,3,-2,-3,0
19530,0,-1,-1,-1,-1,0,0,2,0
19535,-5,0,-2,-1,0,0,3,2,0
19540,-3,1,-1,0,-2,-1,3,9,0
19545,-3,-5,0,0,1,0,-4,-29,0
19550,-4,-1,-1,-3,0,0,-2,-1,0
19555,5,0,-2,-2,-3,-2,0,18,0
19560,-4,-2,-1,-1,0,-1,2,-3,0
19565,0,2,0,-1,1,1,2,5,0
19570,0,0,-1,0,0,1,2,-3,0
19575,-3,-2,-2,-1,3,-1,1,0,0
19580,1,-1,0,-2,-2,-2,-1,4,0
19585,1,-1,0,0,-1,1,1,10,0
19590,3,1,-1,1,1,0,-2,12,0
19595,-3,-1,-1,-1,-3,0,3,-6,0
19600,-5,-1,0,-1,-1,0,7,9,0
19605,-4,-3,-2,-3,-1,-2,-6,-13,0
19610,7,-1,-4,-1,1,0,-9,-3,0
19615,-2,-2,-1,-1,-4,-6,1,4,0
19620,-12,-6,-4,-2,-7,-15,-10,-38,0
19625,5,-2,-3,0,12,18,-11,-4,0
19630,4,1,1,-1,-4,-1,6,13,0
19635,-7,0,0,1,0,-1,3,2,0
19640,5,-1,-2,-2,-3,-3,0,18,0
19645,-2,-1,0,-3,-6,-7,6,29,0
19650,-5,-3,-1,-1,3,-1,0,-18,0
19655,2,-1,-2,0,-1,3,-2,-1,0
19660,3,2,0,0,-3,-4,1,15,0
19665,-2,-2,-1,-1,-2,-5,2,3,0
19670,0,-1,-1,-1,-1,-3,0,8,0
19675,-1,-1,-2,-1,-2,-1,2,-1,0
19680,0,-2,0,-1,2,4,-2,3,0
19685,-7,-3,-3,-4,-5,-5,-5,-28,0
19690,-6,-2,0,-1,-2,0,0,-5,0
19695,-1,0,-1,0,0,-1,-2,-8,0
19700,2,-1,0,-2,1,4,7,25,0
19705,-9,0,-1,-3,-5,-5,5,-14,0
19710,-3,-1,-3,-1,1,4,-2,-23,0
19715,1,0,-2,-3,-2,1,1,4,0
19720,-1,2,1,0,0,3,10,24,0
19725,9,1,0,-2,-6,-7,-13,-1,0
19730,-2,-1,-1,-2,-2,-5,-3,5,0
19735,-7,-6,-2,-4,-4,-3,-4,-27,0
19740,-1,-2,-4,-3,-3,-4,1,2,0
19745,4,-1,-1,2,4,10,5,10,0
19750,-5,-2,-1,-2,-5,-2,-3,-8,0
19755,6,0,-1,-2,1,3,-11,-9,0
19760,-2,-1,-2,-2,-4,-6,-5,-11,0
19765,-3,-1,-1,0,-2,-6,-1,-2,0
19770,2,0,1,0,1,4,2,5,0
19775,-3,-1,-1,-1,-6,-6,0,7,0
19780,-1,-4,-3,-2,3,6,-5,-10,0
19785,5,1,-1,1,-1,-1,3,42,0
19790,-5,-1,-1,-2,-2,0,6,-2,0
19795,-2,-2,-3,-1,-2,-3,-4,5,0
19800,6,-1,0,-1,2,0,-11,-13,0
19805,2,1,0,-2,-1,0,-1,10,0
19810,-5,-2,-1,-2,-2,-4,-2,-8,0
19815,1,1,0,-1,-2,-1,2,-1,0
19820,-6,1,0,-2,-3,-1,2,-7,0
19825,-4,-3,0,1,4,3,0,-2,0
19830,1,0,1,1,-5,-5,0,2,0
19835,1,-1,-1,0,3,4,-1,1,0
19840,-1,-1,1,-1,-1,-1,-2,1,0
19845,-10,-2,-2,0,0,-5,-3,-29,0
19850,-5,-2,-4,-1,-2,-3,-9,-19,0
19855,0,0,0,1,0,1,2,16,0
19860,-4,-1,-2,-1,-1,-1,0,-10,0
19865,4,0,1,-1,-2,-1,3,34,0
19870,4,-1,0,-3,-2,-5,0,11,0
19875,1,0,-1,0,8,10,-2,-5,0
19880,0,-1,-1,-1,0,1,3,-2,0
19885,0,2,-2,0,0,-3,0,-7,0
19890,-6,-3,-2,0,-1,-1,-2,-9,0
19895,-3,0,0,-2,-3,-4,2,1,0
19900,3,0,1,-1,-2,1,1,5,0
19905,-2,-3,-2,-2,-2,-1,-5,-13,0
19910,-4,0,-1,-1,-1,-7,-3,8,0
19915,1,-2,0,-2,2,5,0,-3,0
19920,-5,-2,0,-2,-4,3,-1,-3,0
19925,-3,-2,1,1,-2,-5,0,3,0
19930,4,1,-2,-1,3,5,-4,-2,0
19935,-1,-1,0,1,-4,-7,1,10,0
19940,-4,-2,-3,0,1,-2,-4,-15,0
19945,-1,-2,-1,1,0,0,0,-13,0
19950,1,0,-1,2,0,7,2,16,0
19955,-8,-1,0,0,1,0,-2,-39,0
19960,2,-1,-1,-3,-4,-5,1,-2,0
19965,1,-1,-2,0,0,0,1,5,0
19970,1,-2,0,-2,-2,0,-1,1,0
19975,-2,-2,0,-1,-3,-1,1,8,0
19980,-1,0,-1,-1,2,1,0,0,0
19985,-4,0,-3,-3,1,0,-3,-17,0
19990,-2,-2,-2,-1,-3,-2,0,-8,0
19995,-2,0,-1,-2,-1,-3,-3,6,0
20000,3,2,-1,-2,0,-3,-2,14,0
20005,3,-1,-1,-2,-3,-3,-4,5,0
20010,-6,2,0,-2,-3,0,6,0,0
20015,-3,-3,-2,-3,-1,-8,-1,-1,0
20020,1,0,0,0,-2,6,3,17,0
20025,6,-1,-2,-1,5,9,-12,-6,0
20030,-4,-5,-1,0,-2,-1,0,-7,0
20035,-2,-2,-2,-2,-4,-9,-11,-30,0
20040,1,-1,-1,1,1,3,0,1,0
20045,-4,-1,-2,0,-4,-3,5,6,0
20050,2,-1,1,-2,0,1,0,18,0
20055,1,-2,-4,-2,-3,-1,2,11,0
20060,0,-2,-1,-4,-2,-4,-2,-8,0
20065,0,0,0,-1,-1,-4,0,-10,0
20070,4,0,-1,-1,0,-1,0,7,0
20075,-1,0,0,1,0,1,3,5,0
20080,-5,-2,0,1,0,-1,-2,-6,0
20085,0,-1,-2,-1,-1,-3,-2,19,0
20090,-3,-2,-1,-3,-2,-1,-5,-16,0
20095,6,-1,-1,1,-2,-1,-1,8,0
20100,-1,-1,0,1,2,-2,-2,-8,0
20105,-5,-1,0,-3,-4,-1,0,-3,0
20110,6,3,0,1,0,0,-1,9,0
20115,-6,-4,0,-3,-6,-3,5,-4,0
20120,-6,-2,-1,0,2,-4,2,5,0
20125,-2,-4,-2,-1,1,3,-6,-36,0
20130,-2,0,-1,-1,-1,-3,-9,-21,0
20135,-1,-3,1,-1,-2,2,3,9,0
20140,-3,-1,1,0,-1,-2,-1,2,0
20145,2,0,-1,-3,-5,-2,6,34,0
20150,-5,-2,-1,0,0,2,3,-7,0
20155,6,-2,-2,-4,-2,-4,-10,-12,0
20160,-1,-2,-2,-1,-1,-2,-2,-7,0
20165,-4,0,-1,2,-3,-6,-1,-8,0
20170,1,-1,0,-1,5,4,0,1,0
20175,-3,1,1,-3,-3,-3,2,2,0
20180,-3,-1,-3,0,0,0,-7,-22,0
20185,-5,-1,-1,-4,-3,-4,-5,-35,0
20190,-3,-3,0,1,-2,-7,1,2,0
20195,0,0,-1,-2,1,-2,-4,-3,0
20200,19,1,0,-2,-1,4,-6,18,0
20205,-1,-1,-1,-1,-3,-5,-3,-1,0
20210,0,-5,-1,-1,-2,1,-1,-3,0
20215,1,0,0,1,-1,1,2,14,0
20220,-5,-2,-2,-5,-6,-6,3,-2,0
20225,-3,-2,-3,1,2,1,-2,-16,0
20230,4,1,1,-4,-5,-4,1,11,0
20235,3,1,-1,1,2,2,-2,11,0
20240,-3,1,-1,-1,-1,-2,5,17,0
20245,-4,-1,-1,-2,-2,-1,6,15,0
20250,-1,-2,-4,-2,-3,-2,-1,-4,0
20255,-7,-3,-2,0,0,2,-6,-40,0
20260,-1,0,-2,0,-1,-1,-2,-5,0
20265,-3,-2,1,-2,-2,-3,2,0,0
20270,-2,0,-1,2,6,2,-2,-10,0
20275,7,0,-3,1,4,8,5,45,0
20280,9,-3,-5,-1,-3,-4,-18,-8,0
20285,-2,0,1,1,0,-1,1,-1,0
20290,-4,0,-1,-2,-7,-5,0,-10,0
20295,-3,-1,1,1,6,3,0,-1,0
20300,-2,0,0,-1,-1,-1,2,-3,0
20305,3,-1,1,0,1,3,1,18,0
20310,-1,-1,-2,-4,-4,-4,1,4,0
20315,1,2,-2,-1,-4,-3,4,12,0
20320,-2,-2,-1,-1,0,5,2,4,0
20325,4,0,-1,-2,-2,-2,1,16,0
20330,0,-1,-1,-3,-4,-1,0,1,0
20335,1,1,1,0,-3,-1,-4,8,0
20340,-5,-2,1,1,0,1,6,6,0
20345,-1,-1,0,-1,-3,-3,-1,-5,0
20350,-1,-1,0,2,4,2,-2,0,0
20355,-7,-3,-2,-1,-1,-2,1,-10,0
20360,12,-3,-2,-4,-3,-8,-20,-3,0
20365,-1,-1,-2,-1,-1,-1,-2,-11,0
20370,-3,-2,-2,0,2,3,-4,-10,0
20375,-2,0,-1,-3,-8,-12,-2,-7,0
20380,-6,0,1,1,7,9,8,-4,0
20385,3,-1,-1,-1,2,3,-1,6,0
20390,9,0,-2,-3,-6,-3,-2,40,0
20395,-8,-4,-2,-1,-3,-4,-11,-52,0
20400,-6,-1,-2,0,0,-1,2,-21,0
20405,-5,0,-1,0,1,-1,-4,-11,0
20410,-5,-4,0,0,-2,-2,-3,-30,0
20415,2,-1,0,0,2,1,5,7,0
20420,-6,0,-1,-3,-6,-9,-5,-10,0
20425,-3,-2,-2,-1,0,2,-2,-11,0
20430,-1,0,0,-2,-5,1,-1,-3,0
20435,-1,-2,0,-1,4,1,6,8,0
20440,-4,-2,-1,-1,0,-1,1,-6,0
20445,1,-1,2,-2,-2,-2,4,8,0
20450,-2,-1,-1,-1,-2,-1,-2,0,0
20455,16,1,0,0,1,5,-14,7,0
20460,-3,0,0,-1,-2,1,3,8,0
20465,-6,0,-1,-1,-3,-1,-1,-12,0
20470,4,2,4,2,-3,-4,9,43,0
20475,-3,-1,-4,-7,-3,6,1,-12,0
20480,-7,-1,0,1,-2,-4,3,9,0
20485,9,2,-2,-2,-4,-3,3,32,0
20490,-4,-1,1,1,6,2,4,3,0
20495,4,2,0,-4,-8,-2,3,15,0
20500,-1,-2,-1,-2,-4,-1,0,-8,0
20505,-1,-1,-2,-3,-3,-4,2,6,0
20510,-4,-1,-2,1,3,-1,-4,-13,0
20515,-8,-3,-1,1,-1,-5,-6,-9,0
20520,5,-1,-1,-2,1,-3,-1,6,0
20525,4,-2,-2,-2,-1,-2,-12,-13,0
20530,-3,-2,-4,0,-5,-4,-5,-14,0
20535,-8,-1,-2,0,1,5,4,-10,0
20540,5,1,-1,-1,0,0,-6,3,0
20545,-3,0,1,2,3,4,2,-3,0
20550,-11,-5,-4,-2,1,-2,-10,-68,0
