Timestamp, Rotation x, Rotation y, Rotation z, Marker
40,-0.5,0.4375,0.5,0
60,0.0625,0.3125,0.125,0
80,0.3125,0.1875,-0.0625,0
100,0.25,0.25,0,0
120,-0.1875,0.4375,0.3125,0
140,-0.6875,0.5625,0.5625,0
160,-0.75,0.4375,0.75,0
160,-0.125,0.375,0.625,0
160,-0.0625,0.375,0.375,0
210,-0.1875,0.5,-0.0625,0
230,-0.375,0.4375,-0.1875,0
250,0,0.375,0.25,0
270,0.4375,0.125,0.25,0
290,0.0625,0.125,0.1875,0
310,-0.375,0.5,0.25,0
330,-0.1875,0.625,0.4375,0
350,-0.25,0.625,0.6875,0
370,-0.1875,0.8125,0.75,0
390,-0.3125,0.6875,0.875,0
410,-0.375,0.6875,0.875,0
430,-0.25,0.6875,0.8125,0
450,0,0.5625,0.875,0
470,-0.0625,0.5625,0.9375,0
490,0,0.5,0.75,0
510,0.0625,0.5,0.8125,0
530,0.25,0.5,0.6875,0
550,0.1875,0.625,0.5625,0
570,0.0625,0.5625,0.5625,0
590,-0.0625,0.5625,0.625,0
610,-0.25,0.5625,0.4375,0
630,-0.1875,0.5625,0.5,0
650,0,0.5625,0.375,0
670,-0.1875,0.5625,0.3125,0
690,0.0625,0.5,0.3125,0
710,0.375,0.1875,0.25,0
730,0.375,0.25,0.5625,0
750,-0.125,0.6875,0.375,0
770,-1.125,0.875,0.4375,0
790,-0.6875,0.9375,0.875,0
810,-0.5,0.6875,1.375,0
830,-0.1875,0.5,1.125,0
850,-0.125,0.375,0.875,0
870,0.25,0.375,0.625,0
890,0.4375,0.3125,0.4375,0
910,0.125,0.375,0.4375,0
930,-0.0625,0.6875,0.5,0
950,0.375,0.5625,0.625,0
970,0.3125,0.0625,0.6875,0
990,0.5,0.3125,0.6875,0
1010,0.625,0.25,0.375,0
1030,0.5,0.125,0.1875,0
1050,0.375,0.1875,0.25,0
1070,0.3125,0.125,0.1875,0
1090,0.25,-0.0625,0.25,0
1110,0.375,-0.0625,0.0625,0
1130,0.5,-0.0625,-0.0625,0
1150,0.4375,-0.25,-0.125,0
1160,0.125,-0.0625,-0.1875,0
1180,0.0625,-0.0625,-0.1875,0
1200,0.0625,-0.125,-0.3125,0
1220,0.25,-0.1875,-0.1875,0
1240,0.125,-0.25,-0.125,0
1260,0.4375,-0.3125,-0.125,0
1280,0.5,-0.375,-0.0625,0
1300,0.4375,-0.3125,-0.125,0
1320,0.375,-0.3125,-0.125,0
1340,0.5,-0.375,-0.125,0
1360,0.8125,-0.375,-0.25,0
1380,0.625,-0.375,-0.25,0
1400,0.3125,-0.3125,-0.1875,0
1420,0.1875,-0.1875,-0.25,0
1440,0.4375,-0.4375,-0.4375,0
1460,0.375,-0.375,-0.25,0
1480,0.5625,-0.5,-0.5625,0
1500,0.625,-0.375,-0.4375,0
1520,1.0625,-0.875,-0.5625,0
1540,0.9375,-1.125,-0.4375,0
1560,0.9375,-0.5625,-0.6875,0
1580,-0.3125,-0.1875,-0.75,0
1600,-0.3125,-0.0625,-0.4375,0
1620,-0.0625,-0.4375,0.0625,0
1640,0,-0.5625,0.1875,0
1660,0.0625,-0.4375,-0.125,0
1680,0.5,-0.75,-0.4375,0
1700,0.75,-0.5,-0.5625,0
1720,0.375,-0.5625,-0.5625,0
1740,0.125,-0.1875,-0.5625,0
1760,-0.375,0,-0.0625,0
1780,0.5,-0.625,0.125,0
1800,-0.375,-0.25,0.25,0
1820,-10.9375,-1.25,3.0625,0
1840,-21.3125,-2.4375,6.25,0
1860,11,-4.75,1.875,0
1880,28.5,1.5625,-8.6875,0
1900,24.125,2.5625,-9.4375,0
1920,39.5,-4.8125,-4.0625,0
1940,63.125,-12.5,-7,0
1960,89.875,-16.3125,-10.125,0
1980,87.4375,-18.0625,-2.8125,0
2000,86.25,-21.125,-1.625,0
2020,39.4375,-33.875,2.9375,0
2040,12.375,-39.9375,8.4375,0
2060,5.25,-49.125,8.5625,0
2080,9.0625,-53.125,12.5,0
2100,21.5,-63,12.0625,0
2120,37.875,-65.75,13.875,0
2140,36.5625,-69.5625,13,0
2160,18.6875,-75,10.875,0
2180,-1.5625,-80.6875,13.875,0
2200,-5,-85.3125,13.75,0
2220,-1.3125,-86,10.3125,0
2240,-3.5625,-84.5625,10.875,0
2260,-13.5,-84.5,11.6875,0
2280,-27.375,-87.125,13.5,0
2300,-22.125,-87.6875,12.8125,0
2320,-21.0625,-78.6875,10.25,0
2340,-24.125,-70.75,14.5625,0
2360,-32.6875,-70.5,12.4375,0
2380,-26.6875,-61.9375,7.125,0
2400,-0.8125,-51.4375,8.125,0
2420,6.3125,-40.3125,14.875,0
2440,-12.8125,-29.75,11.5625,0
2460,-16.5625,-25.375,1.375,0
2480,-19,-24.4375,-4.375,0
2500,-12.625,-19.25,-7.0625,0
2520,-4.375,-12.0625,-4.25,0
2540,4.4375,-13.6875,-11.5,0
2560,23.9375,-14.625,-14.625,0
2580,34.625,-18.625,-16.75,0
2600,23.875,-23,-13.25,0
2620,-1.8125,-18.1875,-8.5625,0
2640,-11.6875,-18.375,-4.0625,0
2660,-6.375,-24.75,-3.1875,0
2680,-10.125,-26.125,-1.5625,0
2700,-19.8125,-24.5,5.125,0
2720,-32.0625,-24.9375,8.1875,0
2740,-31.8125,-22.6875,4.0625,0
2760,-32,-12.25,4.3125,0
2780,-30.9375,-8.5,14.875,0
2800,-4.3125,-5.8125,13.625,0
2820,2.1875,1.875,20.3125,0
2840,8.3125,-0.9375,17.3125,0
2860,10,-2.875,5.625,0
2880,1.9375,7.1875,-11.1875,0
2900,-2.9375,-0.3125,-16.625,0
2920,0.25,-13,-21.75,0
2940,-2.75,-15,-21.5,0
2960,-1.0625,-18.375,-13.8125,0
2980,-10.1875,-19.375,-7.875,0
3000,-17.75,-17.125,-14,0
3020,-11.0625,-15.0625,-19.8125,0
3040,-8.75,-15.4375,-31.0625,0
3060,-17.6875,-8.9375,-49.25,0
3080,-11.6875,-15.1875,-43.5,0
3100,5.1875,-25.4375,-35.6875,0
3120,-5,-29.125,-37.25,0
3140,-10.25,-25.0625,-40.625,0
3160,-10.3125,-20.5,-40.25,0
3180,-10.5625,-15.625,-37.25,0
3200,-16.3125,-7.5625,-38.75,0
3220,-14.625,0.3125,-34.1875,0
3240,-11.3125,4.75,-29.625,0
3260,-12.1875,7.0625,-28.0625,0
3280,-11.5625,10.1875,-28.6875,0
3300,-11.4375,15.1875,-31.9375,0
3320,-8.5,14.4375,-32.1875,0
3340,-9.5625,12.625,-26.375,0
3360,-7.875,12.0625,-21.75,0
3380,-7.375,16.5,-22.3125,0
3400,-5.125,17.4375,-23.6875,0
3420,-3.0625,17.4375,-24,0
3440,-3.5,19.1875,-27,0
3460,-1.375,22.3125,-31.6875,0
3480,5.3125,16.875,-27.625,0
3500,2.0625,21.5625,-16.375,0
3520,-2.25,22.625,-17,0
3540,-3.75,23,-15.875,0
3560,-0.6875,23.625,-11.1875,0
3580,2.625,23.6875,-3.625,0
3600,6.25,20.0625,1.375,0
3620,3.25,18,-5.1875,0
3640,1.25,26.125,-11.8125,0
3660,-17.875,25.125,-13.5,0
3680,-8,19.8125,0.1875,0
3700,2.0625,12.625,6.3125,0
3720,6.75,11,1.3125,0
3740,10.8125,11.625,5.4375,0
3760,8.5625,16,10.125,0
3780,3.6875,18.6875,5.9375,0
3800,12.0625,15.125,3,0
3820,28.4375,9,7.3125,0
3840,20.125,9.5625,21.1875,0
3860,10.75,11.125,26.125,0
3880,15.9375,13.125,25.875,0
3900,17.9375,13.0625,25.875,0
3920,22.0625,9.5,21.5625,0
3940,20.875,8.3125,23,0
3960,12.25,3.9375,35.0625,0
3980,11.125,-1.1875,40.4375,0
4000,7.25,1.0625,32.3125,0
4020,4.4375,3.5,22.5,0
4040,3.875,1.8125,24.5,0
4060,3.0625,2.1875,24.125,0
4080,12.1875,0.9375,18.75,0
4100,13.9375,-1.875,13.3125,0
4110,7.3125,-3.3125,8,0
4130,3.75,-0.8125,7,0
4150,1.875,-0.5,1.5625,0
4170,2.0625,-0.625,-5.5625,0
4190,-5.1875,2.5625,-8.8125,0
4210,-7.9375,4.0625,-10.5,0
4230,-10.375,2.0625,-14.125,0
4250,-12.375,5.6875,-21.625,0
4270,-16.25,8.375,-26.8125,0
4290,-14.8125,10,-34.0625,0
4310,-6.375,12.25,-36.4375,0
4330,-1.375,11.875,-35.875,0
4350,-2.625,9.6875,-35.25,0
4370,-14.1875,9.4375,-31.4375,0
4390,-18.3125,6.625,-28,0
4410,-13.875,2.1875,-26.1875,0
4430,-10.75,-2.0625,-23.625,0
4450,-4.125,-3.375,-22.375,0
4470,0.0625,-0.25,-24.1875,0
4490,-1.125,2.3125,-25.6875,0
4510,-3.9375,3.1875,-22.125,0
4530,-4.25,-0.1875,-12.3125,0
4550,-7.5,-4,0.25,0
4570,-1.625,-3.875,6.9375,0
4590,-1.4375,-1.4375,12.125,0
4610,1.875,2.5,10.9375,0
4630,-1.375,0.3125,8.4375,0
4650,-0.25,-4.9375,12.125,0
4670,1.9375,-6.0625,11,0
4690,-0.75,-3.8125,4.5625,0
4710,0.1875,-5.5625,-0.5625,0
4730,3.875,-7,1.8125,0
4750,16.4375,-4,9.875,0
4770,17.3125,1.625,13.9375,0
4790,19.8125,5.5,15.3125,0
4810,21.6875,5.6875,20.0625,0
4830,26.875,4.3125,19.625,0
4850,23.4375,2.3125,11,0
4870,17.9375,3,3.9375,0
4890,-7.125,3.9375,3.25,0
4910,-19.125,1.0625,14.1875,0
4930,-18.8125,-1.0625,30.5,0
4950,-12.8125,4.8125,45.9375,0
4970,-5,23.1875,55.375,0
4990,-1.875,27.375,36.875,0
5010,-2.875,10.25,13.5,0
5030,-6.75,-9.0625,1.5625,0
5050,-13.375,-17.8125,7.8125,0
5070,-6.4375,-24.25,25.8125,0
5090,-1.8125,-13.4375,34.3125,0
5110,-9.875,-1.8125,31.0625,0
5130,-10.5,1.1875,26.875,0
5150,-12.4375,8,27.4375,0
5170,-18.75,14.875,24.8125,0
5190,-8.8125,16.5625,26.25,0
5210,1.625,22.6875,13.25,0
5230,20.875,4.75,-7.25,0
5250,24.25,3.125,-16.9375,0
5270,2.5625,4,-7.875,0
5290,0.0625,5.625,-10,0
5310,6.6875,14.125,-22.3125,0
5330,-10.3125,19.25,-20.6875,0
5350,-17.3125,19,-2.75,0
5370,-15.5625,13.25,3.9375,0
5390,-6.875,8.5625,-8.5625,0
5410,1.0625,6.625,-27.625,0
5430,-2.125,2.875,-29.8125,0
5450,-9.4375,0.8125,-17.1875,0
5470,-2.3125,-4.125,-22.5,0
5490,14.0625,-9.375,-36.375,0
5510,17.1875,-6.5625,-48.6875,0
5530,10.125,-0.1875,-55.4375,0
5550,1.1875,2.125,-57.1875,0
5570,-3.6875,1.75,-56.0625,0
5590,0,-0.125,-49.4375,0
5610,6.125,-1.25,-37.1875,0
5630,5.3125,-3.3125,-25.6875,0
5650,2,-3.5,-21.5625,0
5670,-2.1875,-5.3125,-19.0625,0
5690,-5.875,-8.625,-21.375,0
5710,-4.4375,-11.0625,-22.0625,0
5730,0.5625,-10.8125,-22.375,0
5750,-4.375,-10.875,-20.5,0
5770,-10.9375,-9.5625,-16.25,0
5790,-9.375,-6.6875,-11.625,0
5810,-8,-3.1875,-10.8125,0
5830,-8.875,0.1875,-15.5,0
5850,-11.75,2.375,-16.375,0
5870,-3.375,-1.375,-14.375,0
5890,-1.5,-0.375,-20.125,0
5910,-0.5,2.6875,-23.25,0
5930,-1.5,5.375,-18.875,0
5950,2,3.6875,-17.25,0
5970,6.5625,1.625,-21.5625,0
5990,9.9375,3.375,-21.5625,0
6010,6.8125,4.125,-21,0
6030,1.3125,4.625,-19.1875,0
6050,-1.8125,3.875,-14.5625,0
6070,0.9375,2,-15.5625,0
6090,5.875,1.5625,-10.25,0
6100,4.9375,1.6875,-2.0625,0
6120,-1.6875,-0.5625,2.875,0
6140,-2.8125,-2.25,4.6875,0
6160,-3.125,-3.6875,8.625,0
6180,-0.4375,-2.0625,7.375,0
6200,0.75,-2.625,6.125,0
6220,0.875,-1.8125,7.625,0
6240,-2.125,0.0625,2.25,0
6260,-0.5,0.5625,-1.125,0
6280,-3.8125,1.1875,1.3125,0
6300,-5.0625,0.25,4.6875,0
6320,-1.75,-1.875,1.8125,0
6340,-1.375,-1.4375,0.6875,0
6360,-4.3125,-1.4375,2.6875,0
6380,-3.1875,-5.375,2.0625,0
6400,-1.375,-8,-1.625,0
6420,-5,-5.625,-0.875,0
6440,-9,-2.875,-1,0
6460,-12.25,-2.1875,-0.625,0
6480,-8.625,-1.75,2.9375,0
6500,-4.125,2.6875,9.4375,0
6520,-3.6875,7.5625,9.5,0
6540,-8.4375,10.9375,7.0625,0
6560,-9.3125,15.125,4.875,0
6580,-7.4375,17.9375,6.3125,0
6600,-7.8125,21.75,12.9375,0
6620,-6.3125,24.3125,13.1875,0
6640,-5.125,23.1875,7.1875,0
6660,-6.3125,20.4375,7.5,0
6680,-7.625,16.375,8.5625,0
6700,-12.4375,16.75,6.0625,0
6720,-8.75,11.5,6,0
6740,2.0625,5.0625,10.625,0
6760,2.75,2.3125,11.25,0
6780,1.6875,-1.5,11.4375,0
6800,-0.125,-2,8.25,0
6820,6.5,-4.3125,6.5625,0
6840,1.3125,-8.5625,7.6875,0
6860,0.0625,-13.375,9.8125,0
6880,6.625,-18.6875,2.8125,0
6900,10,-23,-2.9375,0
6920,8.75,-21,-3.25,0
6940,1.875,-19.875,-1.25,0
6960,4,-20.4375,1.125,0
6980,3.9375,-20.9375,3.625,0
7000,4.875,-21.375,1.5,0
7020,2.625,-21,-1,0
7040,0.625,-22.75,-1.0625,0
7060,4.4375,-27.25,-0.375,0
7080,4.9375,-29.375,3.75,0
7100,0,-27.375,2.6875,0
7120,-5.3125,-25.3125,1.5625,0
7140,-7.625,-23.6875,-3.5625,0
7160,-6.5625,-24.4375,-2.9375,0
7180,-4,-25.125,3.9375,0
7200,-6.625,-25.3125,8.375,0
7220,-9.875,-28.5,4.625,0
7240,-8.625,-28.875,0.625,0
7260,-10.3125,-26.1875,-5.8125,0
7280,-6.625,-28,-1.8125,0
7300,-9.25,-28.5,1.8125,0
7320,-11.1875,-30.875,4,0
7340,-10.4375,-29.4375,4.9375,0
7360,-12.1875,-28.625,4.5625,0
7380,-13.625,-28.75,7.125,0
7400,-13.0625,-28.75,7.6875,0
7420,-7.75,-27.625,8.0625,0
7440,-5.5,-25.375,7.6875,0
7460,-5.0625,-23.5625,4.375,0
7480,-9.875,-20.125,1.875,0
7500,-9.3125,-18.9375,2.75,0
7520,-3.4375,-19.8125,7.875,0
7540,-6.875,-17.6875,10.0625,0
7560,-9.5625,-16.75,6.125,0
7580,-10.8125,-15.5,-2.375,0
7600,-10.3125,-16.9375,-9.0625,0
7620,-7.8125,-20.5625,-13,0
7640,-10.8125,-18.9375,-7.6875,0
7660,-13.875,-16.375,-3.4375,0
7680,-19.5625,-15.6875,-5.625,0
7700,-25.125,-14.6875,-6.875,0
7720,-35.6875,-8.6875,-8.125,0
7740,-39.5625,-7.6875,-16.125,0
7760,-27.1875,-9.5625,-13.0625,0
7780,-26.3125,-6.25,1.75,0
7800,-38.0625,-1.3125,-0.0625,0
7820,-39,-1.5,-4,0
7840,-27.75,-2.1875,-8.5,0
7860,-14.4375,-6.375,-3,0
7880,-14.1875,-10.4375,1.4375,0
7900,-18.1875,-10,-11.5,0
7920,-12.875,-11.1875,-13.8125,0
7940,-1.5625,-10.5625,-2.1875,0
7960,-10.375,-8.9375,1.125,0
7980,-11.375,-11.5,4.5,0
8000,-1.6875,-15.8125,9.8125,0
8020,7.1875,-15.4375,11.5,0
8040,-1.4375,-11.0625,7.375,0
8060,-8.875,-8.625,1.125,0
8080,-6.3125,-8.8125,4,0
8100,0.6875,-7.875,10.75,0
8120,-1.375,-6.75,12.75,0
8140,-9.625,-7.75,9.0625,0
8160,-5.5625,-7.4375,9.125,0
8180,2.0625,-9.6875,10.3125,0
8200,6.125,-10.625,8.5625,0
8220,0.875,-5.375,8.125,0
8240,-7.3125,-3.875,9.1875,0
8260,-6.5,-4.3125,9.75,0
8280,-3.25,-4.3125,8.0625,0
8300,-6.8125,-3.0625,5.3125,0
8320,-5.125,-3.875,4.4375,0
8340,-2.1875,-4.6875,4.0625,0
8360,-0.1875,-4.1875,2.9375,0
8380,-0.5625,-3.5625,4.4375,0
8400,-0.6875,-2.5625,4.375,0
8420,-0.125,-2.375,2.5,0
8440,-0.1875,-1.4375,0.75,0
8460,0.125,-1.1875,0.5625,0
8480,-0.9375,0.5,-0.5,0
8500,0.375,0.75,0.5625,0
8520,0.3125,1.125,2.5625,0
8540,-0.375,0.5,3.3125,0
8560,-0.125,-0.0625,3.1875,0
8580,-0.4375,-0.375,2.375,0
8600,1.1875,-0.625,4.125,0
8620,1.4375,-0.75,2.3125,0
8640,0.9375,0.0625,2.375,0
8660,-0.625,-0.3125,3.4375,0
8680,-0.8125,-1,3.6875,0
8700,0.8125,-1.125,2.5,0
8720,1.5625,-0.1875,1.875,0
8740,1.3125,-0.9375,1.9375,0
8760,0.25,0.125,2.5625,0
8780,1.0625,0.8125,2.6875,0
8800,2.625,0.6875,1,0
8820,2.6875,1.375,-2.25,0
8840,4.5625,2.6875,-2.1875,0
8860,1.4375,3.8125,2.1875,0
8880,2.1875,1.3125,3.625,0
8900,9.6875,-3.75,1.25,0
8920,10.1875,-6.875,-1.5,0
8940,9.9375,-8.25,-9.1875,0
8960,9,-10.4375,-16.3125,0
8980,8.0625,-10.3125,-14.75,0
9000,11,-9.3125,-13.9375,0
9020,13.125,-7.0625,-17.125,0
9040,13.9375,-2.5,-17.8125,0
9060,14.125,3.8125,-18.875,0
9080,21.1875,7.8125,-22.375,0
9100,26.6875,10.4375,-21.8125,0
9120,33.6875,11.875,-16.5625,0
9140,42.1875,14,-7.625,0
9160,46,16.1875,4.75,0
9180,44.4375,14.375,9.5625,0
9200,40.3125,11.625,13.5,0
9220,34.9375,8.6875,13.75,0
9240,35,6.1875,11.75,0
9260,34.1875,4.875,8,0
9280,26.5,4.3125,5.8125,0
9300,16.5625,4.5,3.5625,0
9320,3.125,4.25,2.375,0
9340,-5.1875,5.4375,3.125,0
9360,-3.3125,4.75,3.4375,0
9380,-1.1875,2.9375,3.8125,0
9400,1.625,0.6875,3.1875,0
9420,4.875,-2.0625,3.875,0
9440,4.8125,-0.6875,2.875,0
9460,3.8125,0.5625,3.375,0
9480,1.6875,-0.375,3.8125,0
9500,2,-0.6875,3.6875,0
9510,1,0.4375,3.4375,0
9530,-2.625,2.125,3.25,0
9550,-4.5625,0.9375,3.5,0
9570,-9,-3.5625,4.125,0
9590,-5.875,-5.375,4.6875,0
9610,-7.375,-4.75,3.0625,0
9630,-11.9375,-3.3125,-0.5625,0
9650,-21.0625,3.375,-2.9375,0
9670,-32.375,11.625,1.625,0
9690,-35.875,9.5,0.3125,0
9710,-26.5625,1.6875,-4.3125,0
9730,-9.9375,-4.375,-6,0
9750,1.625,-1.8125,-1,0
9770,7,0.25,4.875,0
9790,-3.25,3.0625,5.25,0
9810,-19.4375,3.9375,4.4375,0
9830,-31.625,2.6875,-2.8125,0
9850,-19.75,-0.625,-2.5,0
9870,-10.3125,1.375,-1.1875,0
9890,-8.5,2.875,-2.6875,0
9910,-7.875,-0.375,-0.5,0
9930,-10.125,-3,4.5625,0
9950,-10.4375,-0.875,8.25,0
9970,-13.375,1.1875,3.4375,0
9990,-7.8125,0.3125,0.8125,0
10010,-3.4375,-1.75,3.375,0
10030,-3.75,-3.375,3.6875,0
10050,-2.4375,-3.1875,4.5,0
10070,-0.75,-1.625,9,0
10090,1.4375,0.9375,9.1875,0
10110,4.9375,1.6875,8,0
10130,2.75,3.75,6.1875,0
10150,0.375,6.75,3,0
10170,0.3125,9.5,0.5,0
10190,6,10.0625,-1.9375,0
10210,2.875,10.25,-2.5,0
10230,-0.25,11.125,0.0625,0
10250,-3.625,9.625,-4.75,0
10270,-2.1875,8.625,-4.8125,0
10290,1.0625,7.5,-3.125,0
10310,-0.6875,5.6875,0.4375,0
10330,-2.9375,6.875,-2,0
10350,-2.625,10.75,-6,0
10370,-0.375,16.5,-11.1875,0
10390,0.625,19.0625,-15.25,0
10410,4.5,19.4375,-11.375,0
10430,-2.4375,25.5,-15.625,0
10450,2.0625,24.375,-16.8125,0
10470,2.875,20.9375,-15.4375,0
10490,-2.25,19.5625,-18.6875,0
10510,-8.5625,24.625,-26.8125,0
10530,5.625,23.25,-19,0
10550,6.375,21.1875,-7.75,0
10570,3.4375,20.125,-9.3125,0
10590,3.5625,22.0625,-13.5625,0
10610,10,24.375,-17.1875,0
10630,10.9375,25.125,-23.125,0
10650,14.3125,26.9375,-28.75,0
10670,11.8125,30,-24.375,0
10690,10.9375,30.4375,-18.125,0
10710,13.625,30.25,-17.0625,0
10730,18.5,31.9375,-13.4375,0
10750,20.5625,35.0625,-7.4375,0
10770,26.9375,35.75,-0.75,0
10790,30.25,35.9375,6.5625,0
10810,35.125,34.6875,14.875,0
10830,41.25,25.6875,19.875,0
10850,49.6875,15.1875,18,0
10870,39.25,5.375,14.75,0
10890,22.125,-1.875,6.3125,0
10910,0,-9.3125,2.3125,0
10930,-11.25,-8.1875,0.5,0
10950,-12.25,-1.3125,-1.9375,0
10970,-17.875,10.3125,-5.4375,0
10990,-33.5,18.0625,-12.3125,0
11010,-59.5625,24.25,-16.6875,0
11030,-73.8125,23.8125,-16.375,0
11050,-65.5625,16.1875,-16.375,0
11070,-37.25,11.625,-7.9375,0
11090,8.0625,3.875,-12.1875,0
11110,56.375,0.9375,-13.9375,0
11130,87.875,0.0625,8.5625,0
11150,58.75,-8.0625,35.8125,0
11170,5.1875,-11.1875,37.8125,0
11190,-42.0625,-9.5,19.625,0
11210,-47.625,-12.375,-8.3125,0
11230,-36,-6.0625,-12.5,0
11250,-40.3125,11.25,3.625,0
11270,-40.125,10.8125,10.4375,0
11290,-3.6875,-2.1875,-2,0
11310,18.5,-4.6875,-12.1875,0
11330,32.5,-2,-8.875,0
11350,38.5625,-1.5,-8.1875,0
11370,6,-11.75,5.5,0
11390,-15.5,-10.125,15.125,0
11410,-16.25,-4.125,7.6875,0
11430,-11.9375,0.9375,-3.0625,0
11450,-21.75,11.3125,3.5,0
11470,-27.625,10.1875,6.375,0
11490,-7.6875,4.5625,-11.4375,0
11500,17.0625,-0.4375,-21.125,0
11520,42.375,-1,-19.4375,0
11540,65,2.4375,-11.5,0
11560,31.8125,-12.5625,4.375,0
11580,-4.25,-23.6875,13.875,0
11600,-35.3125,-16.75,6.9375,0
11620,-39.1875,3.9375,2.875,0
11640,-36.875,12.25,4.8125,0
11660,-22.125,6.9375,-11.0625,0
11680,-12.5,1.25,-28.6875,0
11700,18.75,-1.6875,-21.0625,0
11720,64.375,-4.1875,-12.75,0
11740,50.375,-6.625,1.875,0
11760,19.375,-14.25,15.0625,0
11780,-19.375,-22.0625,5.625,0
11800,-32.125,-7.3125,-7.875,0
11820,-33.3125,10.25,-7.5625,0
11840,-47.4375,15.4375,-9.625,0
11860,-21.25,3.375,-7.25,0
11880,9.5,-3.0625,-8.75,0
11900,33.5625,0,-10.6875,0
11920,47,11.875,-11.1875,0
11940,46.5,15.4375,-3.875,0
11960,18.0625,-12.3125,12.25,0
11980,-11.875,-28.4375,11.875,0
12000,-46.5625,-16.6875,12.1875,0
12020,-46.6875,5.1875,18.3125,0
12040,-14.8125,7.5,0.0625,0
12060,12.9375,7.6875,-21.375,0
12080,28.4375,8.625,-13.4375,0
12100,51.1875,16.1875,-1.125,0
12120,55.3125,11.75,12.5625,0
12140,13.3125,-17.75,12.0625,0
12160,-19.125,-41.875,-1.8125,0
12180,-33.25,-35.6875,-7.25,0
12200,-28.5,-9.5,1.5625,0
12220,-33.0625,12.375,10,0
12240,-17.9375,11.375,6.125,0
12260,-4.1875,8,-6.6875,0
12280,32.3125,5.375,-7.1875,0
12300,75.4375,8.375,1.125,0
12320,73,6.875,8.375,0
12340,27.75,-19.1875,11.6875,0
12360,-10.0625,-32.8125,13.125,0
12380,-36.25,-20.5,6.25,0
12400,-40.25,2.5,1.75,0
12420,-39.1875,10.375,-4,0
12440,-18.9375,9.9375,-13.375,0
12460,12.6875,4.1875,-19.875,0
12480,55.6875,-2.4375,-9.5,0
12500,90.75,3.5,5.75,0
12520,44.625,-11.0625,8.875,0
12540,-2.125,-25.5,12.5,0
12560,-40.1875,-16.9375,10.9375,0
12580,-53.125,14.5625,7.9375,0
12600,-69.125,30.9375,0.625,0
12620,-49.125,26.875,-8.5,0
12640,-10,9,-29.875,0
12660,56.1875,-12.8125,-14.375,0
12680,118.625,-9.75,10.875,0
12700,88.375,-22.25,10.6875,0
12720,17.1875,-26.75,6.5625,0
12740,-51.9375,-11.625,7.9375,0
12760,-75.375,21.5,5.1875,0
12780,-93.875,36.25,-5.5,0
12800,-73.75,30,-9.75,0
12820,-23.8125,9.875,-28.0625,0
12840,50.5625,-13.625,-12.75,0
12860,125.375,-8.375,2.9375,0
12880,108.938,-20.8125,13.0625,0
12900,30.0625,-25.625,14.5625,0
12920,-48.0625,-11.6875,9.625,0
12940,-67,15.625,-3.4375,0
12960,-87.1875,30.8125,-4.5625,0
12980,-67.5,24.5,-6.25,0
13000,-13.625,8.375,-22.5,0
13020,54.1875,-9.25,-13.9375,0
13040,124,-8.875,2.125,0
13060,107.25,-20.375,11.1875,0
13080,13.6875,-21.0625,10.1875,0
13100,-56.9375,-7.375,12.6875,0
13120,-85.9375,21.5,-1.625,0
13140,-108.312,28.3125,-6.625,0
13160,-70.9375,25.5,-15.5,0
13180,-6.8125,3.4375,-23.8125,0
13200,69.125,-10.125,-7.5,0
13220,133.125,-3.8125,14.4375,0
13240,112.375,-24.5625,22.875,0
13260,12.8125,-23.8125,7.0625,0
13280,-58.375,-7.1875,-6.3125,0
13300,-87.25,16.75,-10.8125,0
13320,-97.4375,15.375,-2.0625,0
13340,-44.4375,10.4375,-6.5,0
13360,17.0625,-7.5625,-17.6875,0
13380,90.25,-3.9375,-9.25,0
13400,106.812,-13.9375,21.75,0
13420,64.9375,-24.125,15.6875,0
13440,-27.875,-19.125,0.0625,0
13460,-70.25,5.625,-11.3125,0
13480,-95.8125,22.5,-8.75,0
13500,-64.0625,22.1875,-3.5,0
13520,1.75,11.625,-15.125,0
13540,62.5625,1.375,-11.4375,0
13560,89.875,-12.9375,20.25,0
13580,63.8125,-20.375,21,0
13600,-11.875,-22,4.25,0
13620,-52.625,3.0625,-4.625,0
13640,-81.1875,27.3125,-11.5,0
13660,-74.5,26.0625,-12.9375,0
13680,-22.6875,17,-18.3125,0
13700,40.3125,-3.4375,-10.875,0
13720,87.0625,-8.25,12.25,0
13740,83.8125,-22.8125,23.25,0
13760,12.25,-22.1875,8.625,0
13780,-48.9375,-0.3125,1.875,0
13800,-80.375,18.1875,-9.25,0
13820,-68.1875,18.5625,-13.5625,0
13840,-15.75,7.1875,-11.875,0
13860,37.5625,-6.5625,-3,0
13880,81.625,-6.9375,7.3125,0
13900,73,-17.875,10.0625,0
13920,3.5625,-14.875,4.4375,0
13940,-60.125,3.9375,3.5,0
13960,-74.9375,15.0625,-11.75,0
13980,-34.5625,15.5625,-6.9375,0
14000,18.0625,4.75,-1.5625,0
14020,70.4375,-0.25,5.9375,0
14040,74.625,-11.1875,11.5,0
14060,39.875,-21.125,2.625,0
14080,-25.8125,-19.5,4.875,0
14100,-53.25,-5.125,1.8125,0
14120,-66.8125,11.4375,-6.0625,0
14140,-48.75,16.4375,-10,0
14160,-6.5,8.5,-15.5625,0
14180,37.6875,-0.875,-7.4375,0
14200,80.3125,1,3.625,0
14220,65.5,-17.125,7.8125,0
14240,1.0625,-21.5,4.25,0
14260,-54.875,-4.6875,7.875,0
14280,-75.875,6.9375,-2.0625,0
14300,-45.4375,10.75,-7.4375,0
14320,4.75,6.125,-9.1875,0
14340,41.375,2.75,-4.9375,0
14360,56.9375,-2.25,8.6875,0
14380,29.125,-18.75,10.5625,0
14400,-15.125,-16.3125,6.25,0
14420,-53.4375,-2.6875,5.3125,0
14440,-61.625,6.75,-1.9375,0
14460,-16.8125,13.375,-3.25,0
14480,20.75,2.6875,-2.125,0
14500,59.4375,3.6875,10.5,0
14520,61.25,-15.375,18.0625,0
14540,23.1875,-25.0625,3.5,0
14560,-30.875,-14.6875,-0.25,0
14580,-55.3125,5.125,-1.4375,0
14600,-39.125,12.5,-0.875,0
14620,2.1875,8,-5.8125,0
14640,35.3125,1.125,-5.0625,0
14660,48.1875,-3.5625,8.6875,0
14680,28.75,-13.1875,0.5,0
14700,-11.5,-15.125,-2.125,0
14720,-37.5,-2.4375,1.375,0
14740,-30.75,8.375,6.5625,0
14760,-8.0625,6.5625,3.875,0
14780,7.375,-3.3125,-4.25,0
14800,8.5,-11.1875,0.3125,0
14820,7.9375,-9.9375,1,0
14840,-1.375,-2.3125,-4.1875,0
14860,-6.9375,3.9375,-3.875,0
14880,-7.125,-0.0625,-2.5625,0
14900,-0.8125,-3.0625,0.625,0
14910,0.3125,-2.0625,-3.125,0
14930,-1.25,-3.25,-6.4375,0
14950,-0.625,-3.375,-0.375,0
14970,-1.9375,-3.25,2.9375,0
14990,1,-2.25,-1.875,0
15010,0,-2.875,-4,0
15030,-2.25,-2.5625,1.5625,0
15050,-2.9375,-1.0625,1.125,0
15070,1.375,-2.0625,-0.5625,0
15090,1.4375,-1.125,-0.4375,0
15110,1.25,0.0625,1,0
15130,0.0625,2.125,0.8125,0
15150,0.5,1.0625,-0.375,0
15170,3.25,-0.8125,1.5625,0
15190,2.5,-4.875,1.25,0
15210,4.0625,-11.25,-1.0625,0
15230,-1.3125,-3.875,-3.3125,0
15250,-3.9375,2.25,-2.9375,0
15270,-6,3.625,-6.0625,0
15290,-4.375,6.6875,-4.25,0
15310,-6.0625,10.9375,-4.25,0
15330,-2.9375,8.0625,-5,0
15350,1.125,6.0625,-0.75,0
15370,1.0625,4.1875,3,0
15390,7.875,2.625,2.0625,0
15410,15.625,-6.375,0.5,0
15430,14,-17.0625,-0.4375,0
15450,2.5,-14.25,-0.3125,0
15470,-7.1875,-9.375,-3.3125,0
15490,-6.9375,-3.9375,-6.4375,0
15510,-9.9375,4.75,-4.125,0
15530,-7.0625,10.625,-2.375,0
15550,-3.75,14.9375,-0.875,0
15570,6.0625,18.6875,-4.625,0
15590,22.25,17.4375,-6,0
15610,44.9375,13.875,-4.3125,0
15630,24.0625,-9.0625,1.1875,0
15650,6.625,-22.3125,7.4375,0
15670,-11.6875,-21.3125,5.75,0
15690,-11.4375,-11.5,-7.0625,0
15710,-10.125,9.1875,-14.1875,0
15730,-23.3125,14.875,-6.0625,0
15750,-30.875,16.375,2.1875,0
15770,-20.25,7.0625,-6,0
15790,8.1875,-1.75,-9.875,0
15810,44.5625,0.0625,-1.9375,0
15830,43.0625,-8.6875,8.25,0
15850,12.3125,-21,17.8125,0
15870,-14.3125,-17.5,12.6875,0
15890,-23.6875,-4.25,-2.875,0
15910,-22.5,12.6875,-9.75,0
15930,-34.9375,21.1875,0.875,0
15950,-17.1875,12.8125,-3.375,0
15970,2.5625,3.375,-12.4375,0
15990,38.625,2.25,-5.0625,0
16010,58.125,0.5625,4.4375,0
16030,30.375,-14.75,11.25,0
16050,-10.0625,-12.9375,8.8125,0
16070,-36.875,-4.5625,2.375,0
16090,-33.3125,5.25,-1.3125,0
16110,-33.5,18.4375,3.3125,0
16130,-18,13.4375,3.875,0
16150,-2.625,5.8125,-8.5625,0
16170,26.8125,2.5625,-7.6875,0
16190,64.6875,9.0625,-3.625,0
16210,39.375,-5.125,5.5,0
16230,6.5,-18.3125,14.125,0
16250,-31.1875,-17.3125,5.4375,0
16270,-31.6875,-9.9375,1.625,0
16290,-35.125,4,3.3125,0
16310,-17.4375,7.25,5.625,0
16330,0.4375,5.125,-10.8125,0
16350,19.6875,6.5625,-14.875,0
16370,53.25,13.25,-7.8125,0
16390,34.125,-6.4375,8.9375,0
16410,2.125,-17.375,13.375,0
16430,-31.5,-15.75,3.75,0
16450,-28.125,-0.125,-1.75,0
16470,-37.9375,15.8125,3.6875,0
16490,-6.9375,18.5,5.1875,0
16510,14,7.1875,-13.125,0
16530,34.1875,3.75,-20.8125,0
16550,57,2.1875,-15.8125,0
16570,34.375,-9.5,-0.75,0
16590,-1.6875,-10.0625,2.4375,0
16610,-25.25,-4.9375,-1.875,0
16630,-27.375,3.3125,-1.9375,0
16650,-26.3125,5.75,5.5,0
16670,-10.9375,0.6875,5.6875,0
16690,-0.875,-2.3125,-0.8125,0
16710,10.75,0.1875,-3.75,0
16730,15.5625,3.5625,-6,0
16750,15.0625,4.0625,-7.0625,0
16770,6.8125,4,-3.25,0
16790,0.6875,3.25,1.8125,0
16810,1,1.5625,2.75,0
16830,1.5625,3.625,1.9375,0
16850,1.6875,4.4375,-1.3125,0
16870,-0.125,5.875,-3,0
16890,0.375,4,-2.25,0
16910,2.1875,0.5625,-1.5625,0
16920,3.9375,-1.0625,-0.0625,0
16940,2.5,0.125,-0.3125,0
16960,-2.75,-1.1875,-0.6875,0
16980,-4.6875,-2.25,2.625,0
17000,-4.75,-3.375,4.0625,0
17020,-2.0625,-4.75,4.0625,0
17040,-1.1875,-6,4.0625,0
17060,-0.75,-5.1875,3.5625,0
17080,-0.375,-4.1875,2.8125,0
17100,0.375,-6.375,1.4375,0
17120,1.8125,-7.0625,2.5625,0
17140,2.4375,-4.1875,1.6875,0
17160,2.25,-0.4375,-1.9375,0
17180,0.4375,1.375,-3.625,0
17200,-1.1875,1.125,-3.0625,0
17220,-0.9375,-0.3125,0.375,0
17240,1.8125,-0.625,1.8125,0
17260,0.9375,1.375,2.1875,0
17280,-0.75,4.9375,0.1875,0
17300,-2.75,5.5,-0.5,0
17320,-2.375,2.0625,-1.1875,0
17340,1,-1.75,-0.25,0
17360,1.875,-2.1875,-1.0625,0
17380,-0.375,-1.5,-0.6875,0
17400,0.125,-3.4375,0.5625,0
17420,0.3125,-3.75,0.8125,0
17440,0.375,-3.875,0,0
17460,0,-7.5625,2.125,0
17480,-1.25,-7.625,2.9375,0
17500,-1.4375,-4.625,1.0625,0
17520,-3.3125,-2.375,-2.1875,0
17540,-5.375,-3.9375,-3.25,0
17560,-8.0625,-6.125,-1.25,0
17580,-7.25,-8.5625,1.1875,0
17600,-4.8125,-11,1.0625,0
17620,-2.4375,-12.9375,2.25,0
17640,-1.0625,-10.25,1.5,0
17660,-4.5625,-8.9375,-0.75,0
17680,-7.75,-9.875,-2.3125,0
17700,-8.25,-13.6875,1.3125,0
17720,-4.875,-15.1875,1.125,0
17740,-6.8125,-13.0625,2.1875,0
17760,-5.3125,-13.4375,1.4375,0
17780,-3.875,-11.5625,3.125,0
17800,-5.0625,-9.125,4.75,0
17820,-5.625,-7.8125,6.6875,0
17840,-9.375,-5.625,7.6875,0
17860,-6.9375,-6.4375,3.0625,0
17880,-1.3125,-10.9375,-0.125,0
17900,-1.0625,-11.625,-0.8125,0
17920,-3.6875,-8.6875,-0.6875,0
17940,-3.375,-6.6875,2.375,0
17960,-3.625,-3,4,0
17980,-2.6875,-2.3125,3.4375,0
18000,-2.75,-1,1.875,0
18020,-3,0.6875,1.8125,0
18040,-2.125,2.0625,2.5625,0
18060,-1.5,3.0625,2.4375,0
18080,0.0625,3.25,1.1875,0
18100,2.125,3.3125,1.3125,0
18120,1.4375,4.625,1.0625,0
18140,0,5.375,-1.3125,0
18160,0.3125,3.25,-0.5,0
18180,-0.625,2.6875,-0.625,0
18200,-1,2.0625,-1.125,0
18220,-1.4375,-0.25,1.8125,0
18240,0.625,0,0.6875,0
18260,-0.3125,-0.0625,0.3125,0
18280,-1.875,-0.6875,-2.1875,0
18300,-3.5,-1.5,-1.5,0
18320,-4.8125,-4.6875,0.625,0
18340,-3,-8.375,1.8125,0
18360,-2.4375,-7.125,1.0625,0
18380,-2.1875,-4.9375,-1,0
18400,0.0625,-6.75,-1.5625,0
18420,-0.8125,-2.625,-2.125,0
18440,0.75,0,-3.375,0
18460,-1,1,-3.375,0
18480,-0.75,0.875,-3.875,0
18500,-1.75,1.75,-8.5625,0
18520,-1.75,2.4375,-11.125,0
18540,-5.75,4.8125,-16.9375,0
18560,-3.8125,3.0625,-16,0
18580,-1.8125,3.25,-13.8125,0
18600,-9,8.1875,-9.5,0
18620,-6.1875,9.625,0.625,0
18640,-1.0625,9.875,16.5625,0
18660,-2.375,8.25,22.1875,0
18680,3.9375,9.125,15.5625,0
18700,8.25,12.75,8.6875,0
18720,11.875,11.8125,2.9375,0
18740,10.625,12.25,-2.6875,0
18760,8.625,14.0625,-2.0625,0
18780,10.6875,16.0625,-11.25,0
18800,8.375,13.1875,-27.625,0
18820,1.1875,12.5,-33.25,0
18840,-6.8125,15.75,-33.5,0
18860,-15.9375,21.875,-29.125,0
18880,-14.5,26.3125,-15.875,0
18900,-12.25,25.75,-2.4375,0
18920,-9.375,25.0625,10,0
18940,-10.9375,26.25,11.6875,0
18960,-9.0625,28.3125,9.4375,0
18980,-6.1875,31.875,7.6875,0
19000,2.125,33.8125,1.375,0
19020,5.5625,32.8125,-4.9375,0
19040,7.75,32.0625,-5.875,0
19060,14.0625,32.625,-6.625,0
19080,24.1875,32.9375,-8.5625,0
19100,36,27.625,-8.625,0
19120,39.9375,14.8125,-5.4375,0
19140,31.75,4.3125,5.3125,0
19160,22.6875,2.25,8.3125,0
19180,12.1875,8.625,-11.625,0
19200,10.875,4.0625,-22.8125,0
19220,-0.4375,5.875,-16.4375,0
19240,-13.4375,15.4375,-8.375,0
19260,-4.125,15.9375,-4.25,0
19280,16.9375,16.6875,-13.9375,0
19300,30.1875,17.625,-22.75,0
19320,28.8125,20,-26.5625,0
19340,26.3125,22.6875,-19.75,0
19360,23.5625,31.875,-16.8125,0
19380,20,43.0625,-18.125,0
19400,7.875,53.875,-15.5,0
19420,0.6875,56.9375,-12.625,0
19440,-0.3125,44.875,-6.4375,0
19460,5.5,26.8125,-4.0625,0
19480,0,14,-6.125,0
19500,-10.6875,5,-11.875,0
19520,-12.0625,-1.8125,-11.75,0
19540,-0.1875,-8.625,-4.3125,0
19560,9.9375,-10.3125,2.4375,0
19580,12.0625,-9.0625,5.75,0
19600,9.5,-7.9375,7.875,0
19620,6.875,-3.5,6.6875,0
19640,6.75,0.75,3.625,0
19660,6.1875,3.375,0.25,0
19680,1.375,4.375,0.875,0
19700,-1.75,4.0625,3.25,0
19720,-1.1875,1.1875,5.625,0
19740,0.25,-1.1875,5.6875,0
19760,-0.3125,-4.75,5.625,0
19780,-0.25,-7.625,6.8125,0
19800,1.8125,-9.1875,8.0625,0
19820,4.25,-10.0625,8.75,0
19840,4.5625,-9.375,9.875,0
19860,5.6875,-8,10.5,0
19880,4.75,-5.375,10.1875,0
19900,4.375,-2.875,9.75,0
19920,5.6875,-0.4375,8.25,0
19940,6.375,0.375,8.0625,0
19960,6.5625,0.875,8.1875,0
19980,6,1.1875,7.25,0
20000,6.0625,0.25,6.4375,0
20020,7.1875,-0.0625,5.625,0
20040,7.0625,-0.625,4.4375,0
20060,4.8125,-0.375,4,0
20080,3.0625,0.5,3.875,0
20100,2.9375,-0.125,2.625,0
20120,2.875,-1.5,2.75,0
20140,2.125,-2.875,3.625,0
20160,1.4375,-3.75,4.375,0
20180,3.1875,-4.5,5.0625,0
20200,2.6875,-4.5625,5.5,0
20220,0.5,-4.3125,7.0625,0
20240,0.8125,-2.8125,7.8125,0
20260,5.4375,-4.5625,6.9375,0
20280,7.75,-5.625,11.0625,0
20300,6.5,-3.5625,12.0625,0
20320,6.1875,-6.9375,10.25,0
20330,4.6875,-6.8125,8.5625,0
20350,3.75,-4.75,6.125,0
20370,0.4375,-1.625,2.6875,0
20390,-2.3125,2.0625,1.875,0
20410,-3.3125,3.9375,0.75,0
20430,-3.5625,3.1875,-0.1875,0
20450,-3.75,1.75,1.875,0
20470,-3.75,2.1875,6.3125,0
20490,-2,-0.1875,5.375,0
20510,-0.875,-6.9375,0.5625,0
20530,-1.5,-8.3125,0.3125,0
20550,2,-9.4375,2.25,0
20570,1.4375,-7.9375,0.875,0
20590,0,-6.25,-1.5,0
20610,-1.6875,-3.0625,-4.1875,0
20630,-1.625,-2.5,-3.8125,0
20650,0.75,-3.5,-5.5625,0
20670,1.4375,-4.0625,-6,0
20690,-1.1875,-2.5,-6.5,0
20710,-3.625,-1.25,-9.75,0
20730,-3.625,-5,-11,0
20750,-0.8125,-7.5,-7.4375,0
20770,-0.0625,-5.8125,-4.875,0
20790,-1.875,-6.125,-4.4375,0
20810,-1.625,-6.3125,-4.875,0
20830,-2.8125,-2.875,-3.125,0
20850,-3.3125,-2.75,-2,0
20870,-2.0625,-3.5625,-1.1875,0
20890,-1.6875,-2.4375,1.375,0
20910,-0.8125,-3.875,2.9375,0
20930,-5.5625,-5.9375,2.3125,0
20950,-6.875,-3.875,6.1875,0
20970,-2.1875,-5,9.0625,0
20990,0.5,-7.1875,9.875,0
21010,-2,-5.375,9.5,0
21030,0,-7.25,12.4375,0
21050,-0.5,-6.1875,12.125,0
21070,1.4375,-6.9375,14.875,0
21090,1.3125,-5.375,12.875,0
21110,0.9375,-5.75,12.75,0
21130,-0.0625,-5.4375,9.8125,0
21150,0.0625,-4.8125,8.375,0
21170,0.75,-6.4375,7.3125,0
21190,-1.125,-5,6.375,0
21210,-2.5625,-2.375,5.25,0
21230,-2.75,-3.0625,3.4375,0
21250,-2,-2.3125,4.3125,0
21270,-1.1875,-2.1875,2.5625,0
21290,0.1875,-1.8125,1.6875,0
21310,-2.375,-0.5,1.3125,0
21330,-3.5,0.1875,2.875,0
21350,-0.875,-0.6875,0.1875,0
21370,2,-1.5,-3.125,0
21390,2.3125,-1.5625,-2.5625,0
21410,-0.125,-3.0625,-0.9375,0
21430,0,-6.1875,-2.375,0
21450,-3.625,-11,-4.3125,0
21470,-8.375,-15.25,-0.4375,0
21490,-12.75,-18.625,1.125,0
21510,-12.375,-21.75,2.0625,0
21530,-10.0625,-23.375,3.125,0
21550,-9.875,-24.9375,6.375,0
21570,-9.3125,-25.875,11.8125,0
21590,-10.125,-26.375,17.75,0
21610,-6.9375,-27.375,20.4375,0
21630,-6.125,-29.375,20.0625,0
21650,-6.5,-29.9375,18.5,0
21670,-9.8125,-29.0625,16.1875,0
21690,-12.6875,-25.8125,11.625,0
21710,-12.75,-24.25,7.625,0
21730,-8,-25.125,4.4375,0
21750,-2.8125,-27.25,2.5,0
21770,-5.25,-28.5,2.75,0
21790,-11.0625,-25.875,2.6875,0
21810,-15.5625,-23.375,1.9375,0
21830,-14.25,-21.1875,0.125,0
21850,-9,-20.0625,1.5625,0
21870,-8.875,-18.25,1.3125,0
21890,-11.9375,-16.5,1.6875,0
21910,-13.8125,-14.4375,1.125,0
21930,-13.4375,-12.9375,0.6875,0
21950,-11.5625,-13.125,0.9375,0
21970,-9.6875,-12.1875,0.5625,0
21990,-8.0625,-10.5,0.1875,0
22010,-6.4375,-11.5,1.3125,0
22030,-6.4375,-10.75,1.875,0
22050,-6.1875,-7.375,0.375,0
22070,-4.8125,-6.5625,-0.3125,0
22090,-0.8125,-6.375,1.0625,0
22110,0.9375,-0.1875,-1.3125,0
22130,-2.75,1,0.0625,0
22150,-3.5,0.9375,-2.6875,0
22170,-1.8125,0.4375,-5.375,0
22190,-1.4375,3.5,-9.1875,0
22210,-5.3125,3.9375,-8.0625,0
22230,-8,2.4375,-3.9375,0
22250,-2.4375,-1.6875,-1.8125,0
22270,-0.0625,-2.3125,-3.875,0
22290,-0.6875,-0.1875,-6.625,0
22300,-6.4375,-0.875,-8,0
22320,-10.4375,-2.6875,-5.8125,0
22340,-3.1875,-6.75,-0.8125,0
22360,1.375,-5.25,-2.875,0
22380,-3.0625,-2.75,-3.75,0
22400,-4.5625,-4.1875,-4.0625,0
22420,-1.1875,-4.5625,-1.8125,0
22440,-0.625,-2.4375,-1.875,0
22460,-0.75,0.125,-4.6875,0
22480,-3.0625,-4.0625,-4.6875,0
22500,3.25,-4.4375,-2.75,0
22520,2.125,-1.375,-3.4375,0
22540,1.4375,1.375,-1.9375,0
22560,1.625,2.75,-0.5,0
22580,0.5625,4.4375,-2.3125,0
22600,-1.1875,4.5,-3.0625,0
22620,-0.625,4.5625,0.1875,0
22640,0.5,2.75,0.625,0
22660,-1.25,0,5.625,0
22680,3.8125,-0.25,7.375,0
22700,3.9375,1,4,0
22720,2.8125,-0.4375,2.5625,0
22740,1.75,-2.8125,4.375,0
22760,1.5625,-0.25,2.1875,0
22780,1.75,-1,-0.625,0
22800,0.25,-1.9375,2.875,0
22820,-0.8125,-5.4375,8.25,0
22840,1.625,-6.25,9.8125,0
22860,1.5,-5.8125,5.125,0
22880,1.5,-7.1875,4.25,0
22900,0.0625,-5.4375,11.25,0
22920,-3.0625,-3.4375,12.875,0
22940,-4.125,-1.25,10,0
22960,-2.75,-3.3125,10.4375,0
22980,-3.875,-2.5625,8.9375,0
23000,-4.75,-2.25,7.8125,0
23020,-7.1875,-1.25,7.375,0
23040,-7.3125,-0.8125,7.4375,0
23060,-7.4375,-2.6875,9,0
23080,-6.375,-2.875,9.3125,0
23100,-6.4375,-4,7.125,0
23120,-5.6875,-2.875,2.9375,0
23140,-6.375,-3.9375,4,0
23160,-3.1875,-6.5,10.3125,0
23180,-1.4375,-7.375,8.5625,0
23200,-3.4375,-6.9375,6.1875,0
23220,-7.4375,-3.5625,5.5,0
23240,-8.4375,-4.3125,3.9375,0
23260,-7.0625,-7.375,3.875,0
23280,-4.5,-9.625,4.5625,0
23300,-4.75,-8.6875,-1.75,0
23320,-5.0625,-7.625,-4.1875,0
23340,-6.375,-6.5,0.6875,0
23360,-4.625,-6.5,3.5625,0
23380,-3,-6.4375,4.625,0
23400,-1.75,-5.4375,5.4375,0
23420,-0.6875,-6,8.5625,0
23440,1.625,-6.6875,10,0
23460,3.375,-6.3125,12.1875,0
23480,2.9375,-4.375,12.25,0
23500,2.9375,-1.3125,11.25,0
23520,6.5625,-0.1875,12.1875,0
23540,5.5,-1.25,13,0
23560,-2.4375,-3.0625,17.0625,0
23580,1.25,-5.5625,21.1875,0
23600,0.75,-3.75,16,0
23620,-2.4375,-0.75,13.5,0
23640,-4.875,0.0625,15.875,0
23660,-5.25,0.25,19.0625,0
23680,-3.625,2.9375,20.875,0
23700,-5.8125,5.9375,20.0625,0
23720,-4.0625,5.375,18.5,0
23740,-4.0625,2.3125,21.4375,0
23760,-7,4.875,19.5,0
23780,-1.875,7.4375,10.25,0
23800,-3.4375,10,-0.4375,0
23820,-3.4375,11.1875,-2.1875,0
23840,-5.8125,9.625,0.5,0
23860,-2.4375,6.625,1.375,0
23880,1.8125,6.25,3,0
23900,2.625,5.5625,5.3125,0
23920,-4.3125,3.875,6.5625,0
23940,-9.3125,4.4375,9.875,0
23960,-7.875,6.5625,16.0625,0
23980,-9.3125,5.375,19.25,0
24000,-10.875,4.1875,19.875,0
24020,-10.8125,4.5625,21.1875,0
24040,-8.375,5.75,19.4375,0
24060,-9.25,8.25,18.5,0
24080,-12,9.1875,17.8125,0
24100,-10.1875,6.8125,16.3125,0
24120,-4.8125,5.25,15.4375,0
24140,3.0625,2.5,11,0
24160,4.25,2.3125,7.8125,0
24180,0.5625,3.125,8.0625,0
24200,1.6875,1.8125,6.75,0
24220,4.6875,-0.1875,4.125,0
24240,3.6875,-0.8125,5.125,0
24260,5.8125,-0.9375,6.875,0
24280,5.6875,-1.375,6.5,0
24300,6,-0.25,6.5625,0
24320,1.6875,0.9375,6.75,0
24340,-0.3125,1.4375,7.0625,0
24360,-1.125,1.0625,9.125,0
24380,1,0.1875,8.625,0
24400,3.75,0.5625,6.9375,0
24420,4.1875,0.4375,6.4375,0
24440,0.625,-0.1875,6.25,0
24460,0,0.375,5.25,0
24480,0.4375,0.625,4.6875,0
24500,0.125,-0.1875,4.25,0
24520,0,-0.3125,2.75,0
24540,0.875,0.3125,2.6875,0
24560,-0.625,0.8125,2.1875,0
24580,-2.8125,1.25,2.6875,0
24600,-1.1875,2.4375,2.8125,0
24620,-2.3125,3.3125,2.1875,0
24640,-4.8125,3.3125,1.6875,0
24660,-3.75,4.5,2.0625,0
24680,-0.8125,4.5625,1.9375,0
24700,-2.0625,3.875,2.5,0
24720,-3.875,4.5,1.625,0
24740,-3.8125,5.5625,0.25,0
24760,-4.1875,5.875,2.625,0
24780,-3.9375,5.375,2.5625,0
24800,-1.1875,5.8125,3.1875,0
24820,2.4375,6.4375,4.625,0
24840,0,6.1875,4.5,0
24860,1,6.125,4,0
24880,2.5625,6.125,3.25,0
24900,0.9375,2.8125,3.375,0
24920,4.25,3.25,5.75,0
24940,5.4375,5.1875,4.625,0
24960,3.9375,4.5625,0.8125,0
24980,0.8125,3.3125,0.0625,0
25000,0.375,3.125,1.6875,0
25020,2.4375,3.8125,2.3125,0
25040,3.625,4.4375,3.875,0
25060,-1.3125,5,4.25,0
25080,-3.375,4.0625,4.125,0
25100,-1.9375,3.625,4.1875,0
25120,-0.625,3.5,5.125,0
25140,1.4375,3.5,3.5625,0
25160,-2.3125,3.5,3.9375,0
25180,-4.1875,3.5625,3.0625,0
25200,-0.875,2.875,0.5625,0
25220,1.5,1.125,0.875,0
25240,0.6875,0.1875,3.3125,0
25260,-0.3125,0.0625,3.3125,2000
25280,-0.3125,0.6875,1.9375,0
25300,-2.3125,-0.8125,2.5,0
25320,-4.5625,-1.0625,3.4375,0
25340,-3.9375,0.125,1.9375,0
25360,-1.4375,-0.375,-0.25,0
25380,-0.1875,-1.3125,-0.125,0
25400,2,-1.5625,0.8125,0
25420,2.75,-1.5625,-0.0625,0
25440,0.8125,-1.1875,-0.125,0
25460,-1.75,-1.625,1.0625,0
25480,-1.1875,-1.8125,1,0
25500,0.4375,-1.375,1.25,0
25520,1.625,-0.75,0.9375,0
25540,0.875,-0.6875,1,0
25560,-0.4375,-0.625,1.0625,0
25580,1.4375,-0.4375,-0.25,0
25600,2.8125,-0.625,0.0625,0
25620,2.5625,-0.375,0.6875,0
25640,0.375,-0.25,0.375,0
25660,0.375,0.375,0.5625,0
25680,2.125,0.25,1,0
25700,2.0625,-0.75,0.375,0
25710,1.75,-0.75,-0.125,0
25730,1.4375,-0.3125,0.4375,0
25750,0,-0.6875,1.9375,0
25770,-0.125,-1.4375,2.0625,0
25790,0.9375,-1.25,1.4375,0
25810,0.4375,-1.625,1.8125,0
25830,0.8125,-2.375,2.3125,0
25850,2.5625,-2.3125,1.75,0
25870,0.4375,-2.9375,1.5625,0
25890,1.75,-3.1875,1.4375,0
25910,3.625,-3.9375,0.0625,0
25930,3.0625,-5.625,-0.5,0
25950,3.0625,-5.8125,-1.125,0
25970,5.5625,-6,-1.3125,0
25990,4.0625,-6.1875,-1.125,0
26010,1.75,-5.0625,-1.125,0
26030,0.25,-4.25,-0.625,0
26050,2,-3.875,-0.5,0
26070,1.5625,-3.9375,-0.75,0
26090,0.8125,-4.125,-1.625,0
26110,1.125,-4.6875,-1.9375,0
26130,2.1875,-5.1875,-1.25,0
26150,1.875,-6.125,-0.9375,0
26170,2.875,-6.4375,-1.3125,0
26190,4,-7.375,-1.5,0
26210,2.4375,-7.25,-0.5625,0
26230,3.25,-7.3125,-0.375,0
26250,3.75,-7.75,-1.5625,0
26270,4.0625,-8.875,-1.125,0
26290,5.125,-9.0625,-1.3125,0
26310,4.5625,-8.875,-1.6875,0
26330,4.0625,-8.625,-2.125,0
26350,3.4375,-8.75,-1.3125,0
26370,4.1875,-8.75,-0.4375,0
26390,6.5625,-9.0625,-0.9375,0
26410,6.1875,-8.9375,-2.3125,0
26430,4.5625,-8.375,-2.4375,0
26450,4.0625,-8.125,-2.5,0
26470,4.1875,-8.6875,-3.3125,0
26490,3.625,-8.6875,-2.9375,0
26510,4.25,-8.4375,-1.9375,0
26530,5.1875,-8.5625,-3.375,0
26550,4.9375,-8.9375,-4.5625,0
26570,3,-9,-5,0
26590,2.375,-8.3125,-4.5625,0
26610,0.75,-7.875,-4.5625,0
26630,1.875,-8.375,-4.8125,0
26650,2.6875,-8.9375,-3.9375,0
26670,3.8125,-8.5625,-5.25,0
26690,2.9375,-8.625,-5.25,0
26710,3.875,-8.5625,-6.1875,0
26730,3.5625,-9.1875,-7.1875,0
26750,3.9375,-8.0625,-6.875,0
26770,3.9375,-7.6875,-7.125,0
26790,1.0625,-8.5,-7.875,0
26810,2.3125,-7.4375,-8.125,0
26830,2.875,-5.8125,-7.9375,0
26850,1.4375,-5.0625,-7.8125,0
26870,1.125,-5.125,-7.1875,0
26890,1.5,-4.125,-7.0625,0
26910,0.8125,-4.5625,-7.4375,0
26930,-1.875,-4.625,-8.5625,0
26950,-1.4375,-5,-8.25,0
26970,-0.8125,-5.3125,-8.8125,0
26990,-0.9375,-5.6875,-9.4375,0
27010,-1.9375,-5.75,-10,0
27030,-0.3125,-6.4375,-10.5,0
27050,3.25,-8.5,-11.375,0
27070,1.4375,-8.875,-11.8125,0
27090,-1.375,-7.625,-12,0
27110,-2.125,-6.1875,-12.1875,0
27130,-3.5625,-5.125,-12.5,0
27150,-3.4375,-4.75,-12.4375,0
27170,-2.125,-4.6875,-12,0
27190,-1.125,-4.9375,-11.1875,0
27210,-0.25,-5,-10.8125,0
27230,-0.1875,-3.625,-11.9375,0
27250,-0.3125,-3.1875,-12.875,0
27270,-2.25,-3.125,-12.5625,0
27290,-3.125,-2.9375,-13.5,0
27310,-1.6875,-3.9375,-14.375,0
27330,0,-3.9375,-14.6875,0
27350,1.4375,-3.5625,-14.6875,0
27370,-0.25,-3.75,-15,0
27390,-1,-3.1875,-15.8125,0
27410,-2.9375,-2.5,-15,0
27430,-2.625,-2.8125,-14.25,0
27450,-1.4375,-3.5625,-15.625,0
27470,-2.375,-3.25,-15.5,0
27490,-4.5,-3.25,-14.5,0
27510,-3.8125,-2.3125,-15.1875,0
27530,-3.625,-1.1875,-14.625,0
27550,-7.0625,-0.375,-12.75,0
27570,-7.625,0.375,-13.4375,0
27590,-5.375,0.875,-13.5625,0
27610,-3.375,1.375,-14.3125,0
27630,-3.6875,0.75,-13.75,0
27650,-3.25,1.5,-13.375,0
27670,-2.75,2.5,-14.625,0
27690,-3,2.9375,-15.625,0
27700,-1.75,2.75,-15.375,0
27720,0,2.4375,-15.3125,0
27740,-0.375,3.125,-16.1875,0
27760,-2.5625,3.875,-16.375,0
27780,-3.125,4.0625,-16.25,0
27800,-0.5625,3.25,-16.875,0
27820,-0.625,2.75,-17.6875,0
27840,-3.5,3.1875,-17.5,0
27860,-4.8125,2.6875,-17.3125,0
27880,-3,2.9375,-17.8125,0
27900,-3.9375,3.4375,-17.75,0
27920,-7.125,3.5,-17.6875,0
27940,-9,4.5,-17.5625,0
27960,-8,5.5625,-16.8125,0
27980,-7.0625,5.625,-16.6875,0
28000,-6.875,5.75,-16.375,0
28020,-8.3125,6.6875,-16.4375,0
28040,-8.3125,7.625,-16.8125,0
28060,-8,8.5625,-15.625,0
28080,-7.5625,9.125,-16.5,0
28100,-9,9.1875,-16.875,0
28120,-9.25,8.0625,-16.25,0
28140,-7.0625,7.875,-16.375,0
28160,-7.1875,7.75,-17.4375,0
28180,-9.1875,7.375,-17.75,0
28200,-10.25,7.75,-17.0625,0
28220,-8.9375,7.5625,-17.1875,0
28240,-7.5625,6.75,-16.3125,0
28260,-7.125,6.6875,-16.4375,0
28280,-8.5,7.3125,-16.6875,0
28300,-9.3125,7.875,-16.5625,0
28320,-8.3125,7.8125,-15.8125,0
28340,-6.875,7.4375,-15.375,0
28360,-7.0625,7.375,-15.375,0
28380,-7.875,7.6875,-15.4375,0
28400,-8.8125,7.875,-14.125,0
28420,-8.375,8.0625,-13.625,0
28440,-7.875,9.75,-13.5,0
28460,-8.1875,12.5625,-13,0
28480,-6,13.0625,-11.375,0
28500,-4.125,12.625,-11.25,0
28520,-3.1875,12.125,-11.6875,0
28540,-3.875,13,-11.875,0
28560,-3.3125,12.25,-12.125,0
28580,-2.0625,11.625,-11.375,0
28600,-1.9375,10.1875,-11.1875,0
28620,-2.1875,9.0625,-11.625,0
28640,-3,8.5,-11.1875,0
28660,-4,9.0625,-12.0625,0
28680,-4.625,8.4375,-12.0625,0
28700,-5.75,8.5625,-11.3125,0
28720,-4.125,9,-10.5,0
28740,-3.375,9.75,-11.1875,0
28760,-4,11.4375,-12.375,0
28780,-5.625,11.5625,-11.8125,0
28800,-5.3125,10.625,-11.625,0
28820,-3.9375,11.75,-12.5625,0
28840,-3.75,11.8125,-13.125,0
28860,-4.875,11.25,-15.3125,0
28880,-5.8125,11.25,-16.625,0
28900,-8.125,10.1875,-17,0
28920,-6.75,9.5,-17,0
28940,-5.6875,9.5625,-17,0
28960,-4.875,9.375,-17.375,0
28980,-6.4375,9.5,-16.875,0
29000,-8.875,9.5,-16.3125,0
29020,-7.125,8.4375,-15.3125,0
29040,-4.625,8,-14.1875,0
29060,-3.75,7.25,-13.75,0
29080,-5.1875,7.1875,-13.0625,0
29100,-6.25,6.5625,-12.625,0
29120,-5.375,7.5625,-11.9375,0
29140,-5.1875,8.75,-10.75,0
29160,-5.5,8.3125,-9.4375,0
29180,-5,8.5,-8.625,0
29200,-3.8125,8.5625,-9.3125,0
29220,-4.1875,8.25,-8.6875,0
29240,-5.0625,7.4375,-8,0
29260,-3.625,6.8125,-7.625,0
29280,-3,6.9375,-7.375,0
29300,-1.3125,6.8125,-6.875,0
29320,-1.375,6.0625,-5.5,0
29340,-2.4375,4.25,-6.1875,0
29360,-3.375,4.9375,-6.9375,0
29380,-4.5625,4.875,-6.125,0
29400,-3.625,3.625,-5.1875,0
29420,-1.1875,2.5,-4.375,0
29440,0.625,2.6875,-3.375,0
29460,-1.0625,3.0625,-2.8125,0
29480,-3.125,2.875,-4.3125,0
29500,-3,2.0625,-4.0625,0
29520,-2.8125,1.375,-2.6875,0
29540,-0.875,0.375,-3.3125,0
29560,-0.75,-0.25,-4.1875,0
29580,-2.0625,0.3125,-4,0
29600,-2.9375,-0.3125,-3.9375,0
29620,-2.9375,-1.4375,-2.75,0
29640,-1.0625,-1.3125,-1.9375,0
29660,-2.625,-0.9375,-2.0625,0
29680,-6.625,-0.9375,-1.8125,0
29700,-9.4375,-0.9375,-1.5625,0
29720,-8.375,-0.5625,-2.375,0
29740,-5.125,0.625,-2.5,0
29760,-5.5625,1.5625,-4.25,0
29780,-6.375,2.0625,-4.0625,0
29800,-5.1875,1.75,-3.1875,0
29820,-2.9375,1.625,-2.375,0
29840,-3.625,1.75,-3.6875,0
29860,-3.5,3.375,-5.75,0
29880,-5.625,3.9375,-5.0625,0
29900,-4.5625,2.5625,-4.25,0
29920,-1.0625,3.5,-4.625,0
29940,0,4.875,-3.6875,0
29960,-2,7.125,-2.75,0
29980,-0.625,5.8125,-1.625,0
30000,0.9375,3.375,-1,0
30020,1.9375,2,0.1875,0
30040,1.3125,2.0625,0.4375,0
30060,-2.1875,3.3125,-1.625,0
30080,-4.25,4.75,-2.125,0
30100,-4.9375,5.4375,1.5625,0
30120,-1.8125,3.5,2.9375,0
30140,3.375,4,2.3125,0
30160,4,6.375,2.1875,0
30180,0.5,6.375,3.25,0
30200,-2.625,6.125,3.1875,0
30220,-1.375,5,4.9375,0
30240,1.5,6.5625,5.4375,0
30260,4,5.25,4.9375,0
30280,5.1875,4.25,1.9375,0
30300,5.125,3.75,2.3125,0
30320,3.0625,3.875,4.75,0
30340,3.75,3.5,3.625,0
30360,5.25,3.75,3.625,0
30380,2.25,2.0625,6.125,0
30400,0.8125,1.8125,6.25,0
30420,0.25,1.375,6.0625,0
30440,-1.3125,2.5625,5.125,0
30460,-2.5,2.75,5.3125,0
30480,-3,-0.375,6.0625,0
30500,1.8125,-1.4375,6.5,0
30520,4.0625,-0.1875,6.75,0
30540,1.4375,-0.5,7.5,0
30560,-0.5625,-0.125,7.625,0
30580,1,0.375,7.75,0
30600,2.625,0.5625,7.3125,0
30620,1.8125,1.0625,7.25,0
30640,-1.5625,2.9375,6.5625,0
30660,-3.875,3.3125,8.375,0
30680,-1.5625,2,9.625,0
30700,1.4375,2,9.875,0
30720,3.6875,2.25,10.125,0
30740,1.5625,2.875,9,0
30760,0.4375,2.4375,8.875,0
30780,-1,1.1875,8.625,0
30800,2.0625,0.1875,8,0
30820,3.3125,-0.4375,7.375,0
30840,2.6875,-1.3125,7.9375,0
30860,3.25,0.8125,7.4375,0
30880,2.875,-0.3125,7.875,0
30900,-0.125,-1.8125,8.8125,0
30920,-0.75,-0.5,9.5625,0
30940,-1.25,1.5,9.625,0
30960,-4.625,1.9375,9.625,0
30980,-2,1.4375,9.5,0
31000,2.9375,0,9.6875,0
31020,1.5,-2.5625,10.5,0
31040,2.625,-1.6875,10.4375,0
31060,4.375,1.25,10.8125,0
31080,2.4375,1.4375,11.125,0
31100,-1.25,-0.1875,11.3125,0
31110,-0.3125,-0.5,10.8125,0
31130,2.125,-0.25,12.25,0
31150,-0.625,1,13.3125,0
31170,-2.375,3.1875,10.9375,0
31190,-1.875,4.375,10.75,0
31210,-4.875,3.875,10.4375,0
31230,-3.8125,2.5625,9.6875,0
31250,-2.0625,2.625,10.4375,0
31270,3.0625,3.625,10.4375,0
31290,1.6875,3.4375,10.3125,0
31310,0.0625,4.25,9.75,0
31330,2.9375,3.75,9.3125,0
31350,3.5,1.9375,9.4375,0
31370,3.9375,1.25,10.0625,0
31390,3.75,1.1875,11.6875,0
31410,2.25,1.125,11.75,0
31430,0.9375,0.875,11.125,0
31450,0.375,0,10.1875,0
31470,3,-0.6875,9.125,0
31490,3.0625,-2,9.875,0
31510,0.625,-3.6875,11.0625,0
31530,1.3125,-3.875,10.5625,0
31550,1.9375,-3.4375,10,0
31570,-2.625,-3.8125,11.125,0
31590,-4.0625,-3.0625,10.5625,0
31610,-0.1875,-2.875,10.75,0
31630,2.1875,-4.0625,12.75,0
31650,-0.6875,-3.5625,13.0625,0
31670,-0.25,-1,12.3125,0
31690,0.8125,-0.5,13.5,0
31710,-4.1875,-1.75,15.25,0
31730,-1.625,-0.6875,15.0625,0
31750,1,1.9375,15.3125,0
31770,0.9375,1.25,15.125,0
31790,-1.4375,-0.3125,16,0
31810,1.25,0.25,15.3125,0
31830,2,-0.6875,14.4375,0
31850,2.9375,-1.8125,13.625,0
31870,3.375,-2.75,13,0
31890,3.75,-4,12.8125,0
31910,0.125,-4.25,14.25,0
31950,0.0625,-5.5625,13.75,0
31970,1,-5.6875,13.4375,0
31990,1.9375,-6.125,14.4375,0
32010,2.3125,-5.125,14,0
32030,2.75,-5.3125,14.5,0
32050,1.4375,-6.25,15.4375,0
32070,4.125,-5.625,13.875,0
32090,5.25,-5.625,13.4375,0
32110,1.8125,-5.75,13.8125,0
32130,4,-3.9375,12.25,0
32150,4.75,-3.75,12.9375,0
32170,1.625,-4.75,13.4375,0
32190,4.4375,-3.4375,11.6875,0
32210,6.6875,-3.125,11.5,0
32230,0.75,-6.0625,12.875,0
32250,-0.25,-5.8125,12.25,0
32270,3.125,-4.8125,11.75,0
32290,1.75,-6.6875,13.0625,0
32310,-1.375,-7.375,13.1875,0
32330,0.625,-6.5,12.375,0
32350,-1.375,-7.3125,12.625,0
32370,1.4375,-7.25,11.375,0
32390,3,-7.3125,12,0
32410,1.4375,-7.3125,12.625,0
32430,0.4375,-6.5,12.0625,0
32450,1.4375,-5.5,11.75,0
32470,2.125,-5.625,11.5,0
32490,4.4375,-6.4375,11.875,0
32510,6.6875,-6.6875,12.25,0
32530,6.0625,-6.4375,12.25,0
32550,5.1875,-6.375,12.9375,0
32570,5.8125,-6.625,13.1875,0
32590,5.75,-7.8125,13.875,0
32610,5.5625,-8.9375,13.875,0
32630,7.1875,-9.25,14.3125,0
32650,5.8125,-9.75,14.1875,0
32670,3.6875,-10.3125,13.5625,0
32690,3.4375,-9.875,13.5,0
32710,3.125,-9.6875,13.6875,0
32730,4.375,-10.0625,13.375,0
32750,3.6875,-10.375,13,0
32770,2.4375,-10.25,13.1875,0
32790,2,-10.3125,13.8125,0
32810,2.8125,-10.6875,13.6875,0
32830,2.9375,-10.625,13.6875,0
32850,4.375,-10.75,13.375,0
32870,4.75,-11.125,13,0
32890,2.25,-12.375,13.5,0
32910,2.8125,-13.0625,13.3125,0
32930,5.375,-12.75,12.5625,0
32950,3.125,-12.9375,12.375,0
32970,1.25,-12,12.125,0
32990,-1.4375,-11.75,12,0
33010,-0.75,-11.875,12.625,0
33030,-0.1875,-12.6875,12.375,0
33050,-0.1875,-12.375,11.5625,0
33070,1.125,-11.875,11.75,0
33090,0.625,-13.1875,12.5625,0
33100,-0.375,-14,11.6875,0
33120,4.0625,-13,11.4375,0
33140,3.5625,-12.6875,11.75,0
33160,-0.25,-12.75,11.375,0
33180,-0.0625,-12.3125,11.0625,0
33200,2.375,-12.75,11.3125,0
33220,1.6875,-13.3125,10.375,0
33240,1.75,-13.5625,9.5,0
33260,0.5625,-14.125,9.5,0
33280,2.8125,-14.75,8.375,0
33300,4.0625,-15.5625,7.8125,0
33320,4,-15.375,7.0625,0
33340,3.3125,-14.6875,6.875,0
33360,0.25,-15.875,7.5,0
33380,0.375,-16.25,7.9375,0
33400,1.4375,-16,7.5,0
33420,1.3125,-16.0625,7.375,0
33440,1,-15.3125,7.625,0
33460,0.6875,-15,7.1875,0
33480,0.1875,-15.1875,6.3125,0
33500,1.6875,-15.75,4.4375,0
33520,3.5,-16.1875,3.625,0
33540,0.625,-15.5625,5.875,0
33560,-1.75,-15.1875,8.5625,0
33580,2.5625,-14.625,8.375,0
33600,3.9375,-14.25,7.375,0
33620,0.875,-14.625,6.4375,0
33640,-2.75,-14.625,6.8125,0
33660,-2,-14.6875,8.5,0
33680,-0.0625,-14.4375,7.875,0
33700,0,-14.375,7.5,0
33720,-1.875,-14.4375,7.9375,0
33740,1.0625,-14.125,7.3125,0
33770,0.6875,-13.75,7.0625,0
33800,1.25,-13.875,7.5,0
33820,2.3125,-13.8125,6.875,0
33840,2.1875,-13.875,5.9375,0
33860,1.8125,-13.1875,4.875,0
33880,1.9375,-14.3125,4.4375,0
33900,3.5,-14.625,3.3125,0
33920,2.3125,-14.1875,3.125,0
33940,1.3125,-13.0625,2.75,0
33960,1.25,-12.375,1.75,0
33980,1.5,-10.5625,1.4375,0
34000,1.125,-10.1875,1.0625,0
34020,1.875,-10,0.6875,0
34040,3.75,-8.25,0.1875,0
34060,1.4375,-6.5625,0.5,0
34080,-1.4375,-5.4375,1.0625,0
34100,-0.5,-3.5,-0.3125,0
34120,1.5625,-2,-0.5625,0
34140,1.5625,-3.4375,-0.375,0
34160,-0.3125,-4.75,-1,0
34180,-1.9375,-4.3125,-1.75,0
34200,-2.0625,-3.5,-2.375,0
34220,-1.75,-4.8125,-2.125,0
34240,-1.0625,-5.6875,-3.625,0
34260,-0.625,-6,-3.375,0
34280,-3.6875,-6.4375,-3,0
34300,-2.25,-6.9375,-3.8125,0
34320,-3.375,-5.6875,-4,0
34340,-5,-3.6875,-3.1875,0
34360,-5.8125,-3.6875,-1.6875,0
34380,-2,-4.5625,-2.6875,0
34400,-1.1875,-4.125,-4.1875,0
34420,-3.5625,-3.375,-4.6875,0
34440,-3.75,-3.875,-5.5,0
34460,-1.9375,-3.375,-6.1875,0
34480,-2.5,-3.875,-7.125,0
34500,-1.9375,-4.25,-9.4375,0
34520,1.6875,-5.0625,-9.8125,0
34540,0.875,-6.0625,-10,0
34560,-0.9375,-6.125,-12.25,0
34580,-2.0625,-4.5625,-12.9375,0
34600,-4.0625,-3.8125,-13,0
34620,-3.25,-4.9375,-14.6875,0
34640,-0.625,-5.4375,-15.6875,0
34660,-1.9375,-5.0625,-16.3125,0
34680,-5.5,-4.75,-15.875,0
34700,-6.25,-4,-16.6875,0
34720,-3.75,-4.1875,-17.0625,0
34740,-3,-4.5,-16.6875,0
34760,-4.125,-3.875,-16.9375,0
34780,-6.3125,-3.25,-15.75,0
34800,-5.4375,-3.8125,-15.25,0
34820,-5.5625,-3.375,-15.375,0
34840,-9.625,-0.5,-15.4375,0
34860,-10.625,0.375,-15.375,0
34880,-8.875,0.5625,-14.375,0
34900,-8.5,1.25,-12.875,0
34920,-7,1.5,-12.875,0
34940,-4.875,2.4375,-13.4375,0
34960,-8.6875,3.8125,-12.6875,0
34980,-11.0625,4.125,-13.1875,0
35000,-9.4375,3.875,-14.5,0
35020,-8.625,2.6875,-14.875,0
35040,-7.9375,1.5,-15.8125,0
35060,-7.4375,0.5,-16.1875,0
35080,-7.3125,-0.1875,-17.125,0
35100,-8.4375,0.375,-18.75,0
35120,-8.6875,0,-19.0625,0
35140,-8.9375,-0.5625,-19.5,0
35160,-9.125,-0.625,-19.9375,0
35180,-10.0625,0.1875,-20.9375,0
35200,-8.3125,-0.5,-21.0625,0
35220,-6.9375,-1.0625,-21.75,0
35240,-7.5,0,-23.3125,0
35260,-11.25,1.8125,-24.6875,0
35280,-14.1875,3.1875,-24.3125,0
35300,-11.0625,3,-24.9375,0
35320,-8.8125,2.1875,-24.75,0
35340,-8.4375,3.25,-24.1875,0
35360,-10.5625,4.75,-23.25,0
35380,-10.6875,4.4375,-21.75,0
35400,-11.3125,5.75,-20.25,0
35420,-11.0625,7.625,-19.8125,0
35440,-11.875,8.5,-19,0
35460,-12,7.5,-18.3125,0
35480,-10.0625,6.3125,-17.5,0
35500,-8.0625,5.4375,-17.9375,0
35520,-9.5,5.5625,-18.8125,0
35540,-11.875,5.875,-18.9375,0
35560,-11.4375,5.125,-18.1875,0
35580,-9.8125,3.5625,-17.625,0
35600,-9.1875,3.125,-19,0
35620,-10.6875,3.5,-19.4375,0
35640,-11.6875,3.125,-19,0
35660,-12.125,3.4375,-18.6875,0
35680,-12.25,4.5625,-18.4375,0
35700,-8.5,6,-18.8125,0
35720,-8.875,6.5625,-19.1875,0
35740,-11.125,7.4375,-20.6875,0
35760,-10.8125,9.0625,-20.8125,0
35780,-10.75,9.6875,-18.625,0
35800,-8.4375,10.375,-18.75,0
35820,-8.375,11,-18.5625,0
35840,-10.1875,10.625,-18.875,0
35860,-11.1875,11.5625,-18.8125,0
35880,-10.375,12.6875,-18.5,0
35900,-9.375,11.875,-17.4375,0
35920,-10.0625,11,-16.75,0
35940,-7.6875,11.25,-15.1875,0
35960,-9.1875,11.875,-14.75,0
35980,-9.3125,11.25,-13.5625,0
36000,-9.0625,9.6875,-10.6875,0
36020,-9.5,9,-8.25,0
36040,-9.25,9.25,-6.375,0
36060,-10.625,8.625,-4.875,0
36080,-8.1875,8.6875,-5.75,0
36100,-7.6875,8.3125,-5.5,0
36120,-6.5,8.9375,-6.625,0
36140,-7.8125,8.25,-7.3125,0
36160,-6.25,7.3125,-8.3125,0
36180,-1,6.625,-8.5,0
36200,-1,7.0625,-8.5625,0
36220,-3,8.625,-10.75,0
36240,-5.5,8.5,-10.6875,0
36260,-7.25,7.6875,-9.1875,0
36280,-3.4375,9.375,-10.4375,0
36300,-0.25,10.5,-9.8125,0
36320,-3.1875,10.8125,-6.8125,0
36340,-11.0625,13.125,-4.75,0
36360,-9.25,14.0625,-10.5,0
36380,-3.4375,12.9375,-14,0
36400,-3,11.6875,-14.4375,0
36420,-0.25,11.375,-13.6875,0
36440,-0.8125,12.625,-13.125,0
36460,-2.875,14.8125,-9.5625,0
36470,-3.75,15.75,-6.375,0
36490,-3.875,16.4375,-5.0625,0
36510,-0.9375,18.125,-2.5,0
36530,-4.5,19.625,0,0
36550,-5.625,19.5625,-0.5625,0
36570,-1.75,17.625,-0.4375,0
36590,0.1875,16.0625,-1,0
36610,-2.5625,15.875,-2.75,0
36630,-3.25,14.125,-4.0625,0
36650,-1.8125,13.875,-4.875,0
36670,0.5625,13,-4.25,0
36690,-1.8125,11.125,-4.1875,0
36710,-2.1875,11.75,-4.5,0
36730,0.1875,12.3125,-3.875,0
36750,0.625,11.4375,-4,0
36770,-1.6875,9.875,-3.8125,0
36790,-3.4375,9.4375,-4.375,0
36810,-3.5,9.75,-4.625,0
36830,0.25,8.3125,-3.375,0
36850,-4.5625,7.0625,-0.6875,0
36870,-8.4375,6.5625,-0.4375,0
36890,-7.6875,5.9375,0.8125,0
36910,-9.4375,4.25,1.8125,0
36930,-9,5.5,1.0625,0
36950,-9.0625,5.375,1.5625,0
36970,-8.625,4.0625,1.9375,0
36990,-5.625,1.9375,1.8125,0
37010,-4.8125,-0.8125,2.1875,0
37030,-3.8125,-1.625,2.9375,0
37050,-4.625,0.25,3.5,0
37070,-9.375,2.25,4.9375,0
37090,-6.9375,3.5625,5.8125,0
37110,-3.4375,4.1875,6.3125,0
37130,-2.6875,4.0625,5.8125,0
37150,-0.1875,5.0625,4.6875,0
37170,0.4375,7,3.4375,0
37190,-0.5625,7.9375,1.5625,0
37210,-3.25,6.8125,1.9375,0
37230,-3.5,6.3125,1.0625,0
37250,2.1875,6.1875,-1.1875,0
37270,0.0625,5.25,-0.3125,0
37290,-4,6.5625,1.5,0
37310,-1.3125,7.625,2.5,0
37330,-3.4375,7.125,3.1875,0
37350,-3.6875,7,4.875,0
37370,-2.0625,7.8125,5.25,0
37390,0.3125,8.375,3.9375,0
37390,-3.75,7.375,3.5,0
37410,0.0625,9.75,3.75,0
37430,3.0625,10.8125,5.3125,0
37450,3.4375,8.625,4.8125,0
37470,5.5625,9.5,4.25,0
37490,4.875,11.375,4.1875,0
37510,0.125,10.5,3.8125,0
37530,-2.3125,9.625,4.25,0
37550,-1.3125,9.1875,4.8125,0
37580,1,7,7.9375,0
37600,-1.1875,6.625,7.4375,0
37620,-5.25,7,7,0
37640,-7.125,8.5,8.125,0
37660,-6.1875,9.125,9.5625,0
37680,-3.0625,8.1875,8.6875,0
37700,0.25,7.75,8.75,0
37720,0.375,7.8125,8.625,0
37740,-3.625,6.75,8.125,0
37760,-2.75,6.75,9.25,0
37780,0.5625,6.5625,8.5,0
37800,1.0625,5.125,8.5625,0
37820,-1.125,4.875,8.875,0
37840,-1.3125,5.1875,9.375,0
37860,-0.375,6.5,11.125,0
37880,-3.75,5.25,11,0
37900,-2.5,5.6875,10.75,0
37920,0.625,6,10.5625,0
37940,-0.625,3.5625,10.8125,0
37960,-0.6875,3.3125,10,0
37980,3,4.125,8.375,0
38000,3,1.1875,7.25,0
38020,1.6875,-1.25,7.375,0
38040,5.3125,-1.0625,6.75,0
38060,6.625,-1.5625,6.4375,0
38080,2.625,-2.3125,7.1875,0
38100,0.1875,-2.125,7.75,0
38120,1.125,-1.625,8.875,0
38140,1.4375,-2.25,10.0625,0
38160,-2.3125,-2.75,10.8125,0
38180,-4.375,-1.25,11,0
38200,-2.1875,0.125,10.8125,0
38220,-2.5625,-1,11.25,0
38240,-1.1875,-1.5,11.75,0
38260,-1.25,-2.375,12.5625,0
38270,-1.3125,-2.375,12.5,0
38300,0.6875,-2.75,12.625,0
38320,-2.1875,-3.5,13.0625,0
38330,-2.125,-3.8125,12.75,0
38350,0.625,-3.875,12.6875,0
38370,1.25,-4.3125,13.5625,0
38390,-1.625,-4.375,14.75,0
38410,-0.5625,-4.75,14.875,0
38430,1.625,-5.25,16.1875,0
38450,0.875,-5.375,16.75,0
38470,-1.875,-5.9375,15.5625,0
38490,-0.625,-6.25,14.6875,0
38510,3.1875,-6.4375,13.25,0
38530,4.6875,-7.5,12.1875,0
38550,2.75,-8.5625,12.1875,0
38570,2.9375,-8.625,11.5625,0
38590,6.25,-9.4375,10.125,0
38610,7.0625,-11.3125,10,0
38630,4.625,-11.8125,9.875,0
38650,8.1875,-10.8125,9.4375,0
38670,5.0625,-11.5625,10.5625,0
38690,4.375,-10.5625,10.375,0
38710,5.75,-8.75,11.25,0
38730,4.4375,-9.625,12.875,0
38750,4.0625,-9.5625,12.875,0
38770,5.75,-8.75,13.4375,0
38790,0.9375,-10.0625,14.0625,0
38810,0.6875,-9.875,13.4375,0
38830,1.9375,-9.4375,13.375,0
38850,3.5,-11.4375,14.1875,0
38870,2.4375,-13.5,14.125,0
38890,3.3125,-13,14.4375,0
38910,3.0625,-11.5,13.1875,0
38930,1.625,-11.5625,13.0625,0
38950,-0.125,-12.375,13.625,0
38970,3.1875,-12.4375,14,0
38990,5.375,-12.625,14.3125,0
39010,2.8125,-14,14,0
39030,0.125,-13.8125,13.9375,0
39050,0.3125,-12,12.9375,0
39070,1.25,-12,11.8125,0
39090,1.3125,-12.75,11.75,0
39110,1.5,-12.75,11.5,0
39130,2.375,-12.9375,11.6875,0
39150,3.6875,-13.375,10.75,0
39170,4.4375,-14.375,9.125,0
39190,5.625,-14.875,7.3125,0
39210,4.875,-15.3125,7.75,0
39230,2.25,-16.1875,9.6875,0
39250,2.3125,-16.0625,11.3125,0
39270,4.8125,-15.25,12,0
39290,3.6875,-15.4375,11.6875,0
39310,1.5625,-15.9375,11.4375,0
39330,1.4375,-17.0625,11.4375,0
39350,4.3125,-16.125,12.1875,0
39370,6.125,-15.625,11.1875,0
39390,2.1875,-16.6875,10.125,0
39410,1.8125,-17.5625,10.375,0
39430,2.5,-17.0625,10.625,0
39450,5.625,-16.875,10.1875,0
39470,2.8125,-18.4375,11.75,0
39490,2.1875,-18,12.0625,0
39510,3.875,-16.8125,12.0625,0
39530,3.75,-16.8125,12.125,0
39550,-0.5,-17.375,12.3125,0
39570,3.25,-17.375,11.875,0
39590,7,-17.625,12.0625,0
39610,3.9375,-19.5,12.8125,0
39630,4.625,-19.375,12.3125,0
39650,4.625,-18.375,12.5625,0
39670,1.4375,-17.8125,11.6875,0
39690,-1.6875,-17.8125,10.8125,0
39710,0.75,-16.625,11.0625,0
39730,1.6875,-16.1875,11.3125,0
39750,1.4375,-16,11.1875,0
39770,3.1875,-15.0625,11.4375,0
39790,2.1875,-13.625,11.6875,0
39810,2.5625,-12.8125,11.1875,0
39830,-1.3125,-12.4375,10.625,0
39850,-1.25,-11.9375,10.9375,0
39870,1.125,-12,11.3125,0
39890,1.8125,-13.5,10.5625,0
39910,1,-13.75,10,0
39930,1.75,-12.625,9.625,0
39950,-0.0625,-12.75,9.125,0
39970,-1.0625,-13.5625,8.1875,0
39990,2.1875,-13.625,7.875,0
40010,3.125,-13.8125,7.1875,0
40030,1.6875,-14.625,7.5,0
40050,2.5,-14.5,6.25,0
40070,3.6875,-14.25,5.0625,0
40090,2.5,-14.4375,4.6875,0
40110,1.875,-15.0625,5.4375,0
40130,2.1875,-15.3125,5.0625,0
40150,2.6875,-14.875,4.125,0
40170,2.5,-15.1875,3.625,0
40190,2.6875,-15.3125,3.25,0
40210,2.5,-15.875,2.0625,0
40230,2.6875,-16.625,0.4375,0
40250,-0.125,-17,-0.6875,0
40270,1.8125,-16.25,-1.4375,0
40290,3.0625,-16,-1.375,0
40310,4.9375,-16.3125,-2.6875,0
40330,3,-16.1875,-3.25,0
40350,0.3125,-15.125,-2.75,0
40370,-0.4375,-12.75,-3.4375,0
40390,4.25,-13.4375,-3.375,0
40410,5.5,-15.5625,-1.625,0
40430,3.375,-14.625,-1.1875,0
40450,-1.3125,-14.25,-2.25,0
40470,-6.8125,-13.4375,-2.0625,0
40490,-1.5,-12.5625,-2.375,0
40510,-0.25,-13.0625,-2.4375,0
40530,1.4375,-14.5,-4.375,0
40550,1.3125,-15.125,-4.75,0
40570,1.125,-14.8125,-4.8125,0
40590,0.0625,-13.9375,-5.9375,0
40610,-3.375,-13.125,-6.5,0
40630,-3.0625,-11.6875,-5.9375,0
40650,-0.8125,-10.8125,-5.9375,0
40670,-0.8125,-10.875,-6.4375,0
40690,1.5625,-10.875,-7.875,0
40710,3.75,-10.1875,-9.75,0
40730,2.75,-9.3125,-10.875,0
40750,-5.5,-10.3125,-7.1875,0
40770,-4.375,-9.3125,-8.5,0
40790,-0.3125,-7.1875,-9.8125,0
40810,-3.3125,-8.375,-10.5,0
40830,-5,-8.5625,-12.4375,0
40850,-5.0625,-7.9375,-13,0
40870,-4.875,-8.25,-13.3125,0
40890,-6.0625,-9.75,-14.875,0
40910,-6.8125,-9.5,-15.3125,0
40930,-10,-6.8125,-14.4375,0
40950,-9,-7,-15.125,0
40970,-6.6875,-8.4375,-14.625,0
40990,-7.125,-8.0625,-14.625,0
41010,-10.25,-6,-13.9375,0
41030,-8,-5.875,-14.5,0
41050,-4.5,-6.625,-14.875,0
41070,-6.9375,-7.3125,-15.9375,0
41090,-8.4375,-8.4375,-16.875,0
41110,-4.625,-7.9375,-17.3125,0
41130,-4.9375,-7.875,-17.875,0
41150,-10.5625,-5.25,-18.1875,0
41170,-11.375,-2,-17.375,0
41190,-5.8125,-4.5625,-17.75,0
41210,-6.375,-6.0625,-18.0625,0
41230,-7.125,-3.8125,-17.9375,0
41250,-8.125,-1.625,-18.0625,0
41270,-9.9375,1.5,-19,0
41290,-12.6875,3.4375,-19.25,0
41310,-13.1875,1.75,-19.375,0
41330,-9.5,1.875,-18.75,0
41350,-7.5625,4.75,-19.3125,0
41370,-9.8125,5.875,-20.0625,0
41390,-12.75,4.75,-19.875,0
41410,-9.8125,3.5,-19.125,0
41430,-8.875,3.6875,-18.1875,0
41450,-11.5625,5.125,-18.875,0
41470,-13.5625,5.6875,-18.8125,0
41490,-11.625,5.1875,-17.6875,0
41510,-10.4375,4.5625,-16.9375,0
41530,-12.75,4.3125,-17.75,0
41550,-15.3125,7,-17.1875,0
41570,-13.0625,8.375,-15.9375,0
41590,-12.5625,7.375,-16.5625,0
41610,-13,6.625,-17.75,0
41630,-13.5625,7.375,-18.75,0
41650,-10.125,8.6875,-19.1875,0
41670,-9.5625,8.6875,-19.0625,0
41690,-12.25,7.3125,-19.8125,0
41710,-10.5625,6.5625,-19.9375,0
41730,-8.1875,6.375,-19.5625,0
41750,-8.9375,6.3125,-19.125,0
41770,-12.1875,7.125,-19.0625,0
41780,-11.375,8.1875,-18.875,0
41800,-9,7.3125,-17.4375,0
41820,-8.9375,5.5,-16.875,0
41840,-10.9375,6.25,-16.375,0
41860,-11.5,9.125,-15.3125,0
41880,-10.1875,7.375,-14.875,0
41900,-7.6875,5.1875,-14.625,0
41920,-9.0625,5.8125,-14.1875,0
41940,-11.125,7.3125,-13.9375,0
41960,-11.5625,8.75,-12.75,0
41980,-8.5,9.3125,-11.25,0
42000,-7.1875,8.1875,-11.5625,0
42020,-7.75,7.875,-11.3125,0
42040,-8.5625,8.5,-11.75,0
42060,-7.8125,9.1875,-11.4375,0
42080,-5.25,8.125,-11.625,0
42100,-4.9375,6.5625,-12.375,0
42120,-5.75,5.6875,-12.625,0
42140,-4.375,6.5,-13.0625,0
42160,-4,7.375,-13.125,0
42180,-8.6875,6.8125,-12.25,0
42200,-8,7.3125,-11.375,0
42220,-3.125,9.125,-8.625,0
42240,-4.5625,8.6875,-8.6875,0
42260,-8.4375,6.9375,-9.9375,0
42280,-3.9375,9.8125,-9.6875,0
42300,-5.125,11.9375,-9.3125,0
42320,-13.4375,14.1875,-10.1875,0
42340,-10.25,16.8125,-8.5625,0
42360,-4.375,15.5,-6.3125,0
42380,-4.375,13.8125,-7.4375,0
42400,-8.8125,15.0625,-6.125,0
42420,-10.1875,16.8125,-4.1875,0
42440,-10.125,16.5,-3.0625,0
42460,-12,13.9375,-2.3125,0
42480,-16.5,13.3125,-1.8125,0
42500,-18.1875,15.8125,-2,0
42520,-22.375,18.4375,-2.6875,0
42540,-25.8125,22,-2.1875,0
42580,-14.125,15.625,0.5625,0
42600,-6.3125,14.75,-2.875,0
42620,-6.75,15.4375,-5,0
42640,-14.0625,16.375,-6.3125,0
42660,-18.1875,17.8125,-5.375,0
42680,-13,17,-6.1875,0
42700,-5.8125,13.6875,-6,0
42720,-5.6875,11.0625,-4.6875,0
42740,-7.1875,12.375,-4.8125,0
42760,-13.125,14.5625,-1.9375,0
42770,-13.9375,15,2.0625,0
42790,-9.5625,13.875,1.625,0
42810,-6.3125,12.9375,1.125,0
42830,-6.125,14.625,2,0
42850,-11.5625,16.875,1.375,0
42870,-11.75,17.1875,2.25,0
42890,-4.375,13.875,1.875,0
42910,-0.375,11.3125,1.5625,0
42930,-4.1875,9.9375,2.5625,0
42950,-11.125,11.5625,3.375,0
42970,-6.625,12.1875,4,0
42990,-6.5,9.3125,4.1875,0
43010,-7.8125,8.375,2.875,0
43030,-6.5625,9.75,2.75,0
43050,-4,8.625,1.5,0
43070,-4,5.8125,1.3125,0
43090,-1.25,6.125,1.0625,0
43110,-0.9375,6.6875,1,0
43130,-4.625,7.75,0.8125,0
43150,-6.625,9.125,2,0
43170,-4.4375,9.125,3,0
43190,-2.625,9.0625,3.625,0
43210,-0.625,10,3.625,0
43230,-0.9375,10.6875,3,0
43250,-4.875,11,3.1875,0
43270,-5.0625,12,2.75,0
43290,-2.8125,13.5625,3,0
43310,-2.375,13.6875,4,0
43330,-0.6875,13.5,3.8125,0
43350,0.1875,11.75,3.1875,0
43370,1.625,11,3.75,0
43390,1.6875,10.3125,4.4375,0
43410,-0.3125,10.75,4.6875,0
43430,1.4375,11.5625,5.8125,0
43450,0.3125,9,6.5,0
43470,-1.125,8.0625,7.3125,0
43490,-3.25,9.125,9.5625,0
43510,-6,9.5625,10.9375,0
43530,-1.9375,10,11.875,0
43550,-4.8125,8.5,12.5,0
43570,-6.4375,8.375,12.8125,0
43590,-11.75,10.5,14,0
43610,-16.25,9.625,15.5625,0
43630,-14.625,9.0625,16.375,0
43650,-8.4375,10.6875,15.5,0
43670,-8.375,8.75,12.625,0
43690,-7.8125,7.1875,11.5,0
43710,-5.125,6.375,10.625,0
43730,-1.375,5.6875,9.5625,0
43740,-2.125,4.5,10.75,0
43760,-0.1875,4.75,10.8125,0
43780,1.4375,5.75,11.375,0
43800,3.25,3.9375,11.25,0
43820,5.25,3.9375,11.5625,0
43840,5.0625,5.125,12.875,0
43860,-0.625,5.25,13.9375,0
43880,-1.9375,5.5625,14.375,0
43900,0.125,5,14.875,0
43920,0.875,3.625,13.375,0
43940,-0.625,2.5,12.25,0
43960,-2.5,2.8125,11.25,0
43980,0.1875,2.5,10.375,0
44000,1.3125,1,9.75,0
44020,2.6875,1.4375,7.75,0
44040,4.1875,1.6875,7.875,0
44060,1.9375,0.625,8.375,0
44080,1.375,-0.375,9.1875,0
44100,5.75,-0.5,9.25,0
44120,7.1875,-1.25,9,0
44140,3.25,-2.8125,8.9375,0
44160,0.875,-1.8125,9.125,0
44180,0.375,-1.25,9.4375,0
44200,1.625,-2.3125,9.125,0
44220,2.75,-3.8125,9.1875,0
44240,1.25,-3.5,9.625,0
44260,-1,-3,10.875,0
44280,-0.125,-3.375,11.5625,0
44300,3.0625,-3.875,11.0625,0
44320,4.3125,-4.0625,10.4375,0
44340,4.1875,-3.75,9.9375,0
44360,0.6875,-3,10.125,0
44380,0.5,-1.8125,10,0
44400,2,-2.8125,10.6875,0
44420,2.6875,-3.8125,11,0
44440,4.3125,-3.0625,10.75,0
44460,6.1875,-3.875,10.875,0
44480,1.4375,-7.125,12.9375,0
44500,-3.125,-7.8125,14.25,0
44520,0.9375,-6.1875,13.375,0
44540,3.3125,-6.0625,12.0625,0
44560,2.625,-8.0625,11.8125,0
44580,-1.875,-8.625,13.25,0
44600,-0.3125,-8.1875,15,0
44620,1.1875,-9.0625,16.625,0
44640,1.875,-10.125,16.375,0
44660,0.8125,-10.0625,14.875,0
44680,3.5,-9.4375,13.0625,0
44700,4,-10.625,13.75,0
44720,2.375,-11.1875,13.125,0
44740,-1.125,-11.375,13.875,0
44760,-1.3125,-12.125,14.875,0
44780,-4.75,-12.3125,15.875,0
44800,-6.4375,-12.0625,16.25,0
44820,-4,-11.4375,15.1875,0
44840,-3.3125,-12.375,14.9375,0
44860,-1.875,-11.9375,15.375,0
44880,0.875,-12.8125,15.625,0
44900,2.1875,-13.5,16.8125,0
44920,-0.3125,-14.3125,19.25,0
44940,-0.25,-14.4375,19.3125,0
44960,-2.25,-15.375,19.375,0
44980,-1.5,-16.3125,17.125,0
45000,-0.0625,-18.4375,15.6875,0
45020,2.5,-19.1875,14.375,0
45040,4.5625,-19.5,11.9375,0
45060,3.3125,-19.9375,10.125,0
45080,2.3125,-20.25,9.1875,0
45100,3.5625,-21.0625,8.9375,0
45120,5,-21.0625,8.75,0
45140,6.6875,-20.5625,7.625,0
45160,4.25,-22.125,8.6875,0
45180,2.75,-23.3125,8.8125,0
45200,12,-24.625,8.5625,0
45220,14.5625,-25.75,9.4375,0
45240,6.5,-23.875,9.125,0
45260,-2.875,-21.125,10.3125,0
45280,-7.3125,-19.875,10.9375,0
45300,-2.125,-19.5,10.5,0
45320,4.0625,-18.875,10.125,0
45340,2.1875,-19.1875,10.875,0
45360,-0.875,-17.0625,10.5625,0
45380,-2.25,-14.625,11.375,0
45400,-1.875,-13.3125,11.25,0
45420,-0.875,-12.3125,11.5,0
45440,0.4375,-12.9375,12,0
45460,3.6875,-12.9375,10.125,0
45480,5.6875,-12.375,8.25,0
45500,4,-13.5625,7.25,0
45520,4.3125,-14.4375,6.4375,0
45540,4.375,-14.25,5.75,0
45560,1.5,-14.4375,5.375,0
45580,4.125,-14.5,5.3125,0
45600,4.75,-15.5,5.9375,0
45620,6.875,-15.6875,4.6875,0
45640,6.0625,-16.5,4.625,0
45660,4.375,-16.8125,4.25,0
45680,5.875,-16.125,3.5,0
45700,5,-15.0625,2.625,0
45720,5.375,-15.625,1.5625,0
45740,6.8125,-16.25,0.5625,0
45760,6.375,-15.375,1.6875,0
45780,3.0625,-15.5,2.5625,0
45800,3.75,-15.375,2.75,0
45820,3.875,-15.3125,2.25,0
45840,3.1875,-15.4375,1.8125,0
45860,2.3125,-15.4375,0.4375,0
45880,3.5625,-16.625,-0.8125,0
45900,5.75,-16.9375,-1.4375,0
45920,9.8125,-17.375,-2,0
45940,7.5625,-18.3125,-1.25,0
45960,5.125,-17.3125,-2.25,0
45980,3.6875,-16.6875,-3,0
46000,3.9375,-16.3125,-3.25,0
46020,0.1875,-16.875,-3.4375,0
46040,2.5625,-16.875,-2.875,0
46060,5.625,-17.9375,-2.4375,0
46080,6,-18.625,-3.75,0
46100,2.5625,-17.5,-4.3125,0
46120,1.1875,-16.5625,-4.625,0
46140,1.0625,-17.3125,-5,0
46160,0.25,-17.125,-5.0625,0
46180,1.3125,-16.5,-5.1875,0
46200,4.0625,-16.8125,-4.0625,0
46220,4.5,-17.8125,-4,0
46240,6.125,-16.8125,-6.375,0
46260,5.25,-14.875,-7.625,0
46280,1.875,-13.8125,-8.5625,0
46300,0.3125,-13.125,-8.9375,0
46320,0.6875,-12.625,-9.375,0
46340,3.0625,-12.875,-10.25,0
46360,2.875,-13.4375,-9.375,0
46380,2.0625,-13.25,-10.125,0
46400,4,-12.375,-11.1875,0
46420,1.8125,-11.6875,-12.4375,0
46440,-1.3125,-10.9375,-11.75,0
46460,1.75,-9.625,-11.875,0
46480,5.375,-9.6875,-11.5,0
46500,1.3125,-11.875,-11.75,0
46520,-0.5,-11.625,-10.3125,0
46540,1.5625,-9.75,-9.75,0
46560,0.3125,-10.875,-9.625,0
46580,-1.875,-10.625,-9.6875,0
46600,-2,-9.125,-11.375,0
46620,0.625,-9.0625,-14.1875,0
46640,-0.25,-7.5625,-14.5625,0
46660,-4.8125,-5,-11.875,0
46680,0.6875,-4.5625,-9.0625,0
46700,5.5,-7.1875,-7.5,0
46720,5.375,-6.9375,-9.125,0
46740,1,-4.625,-10.625,0
46760,-3.6875,-1.5,-10.9375,0
46780,-3.25,-3.6875,-9.9375,0
46800,1.75,-6,-10.625,0
46820,2.375,-7.0625,-12.375,0
46840,1.5,-6.5,-12.875,0
46860,-0.1875,-6.125,-13.375,0
46880,-0.75,-7.25,-14.5625,0
46900,-1.3125,-8.1875,-14.9375,0
46920,-1.5,-8.4375,-13.3125,0
46940,-2.75,-7.625,-12.8125,0
46960,-2.3125,-3.875,-13.0625,2001
46980,-1.5,-2.5,-11.3125,0
47000,-0.625,-4.6875,-10.5,0
47020,1.5625,-6.5,-10.125,0
47040,-0.25,-4.875,-8.75,0
47060,-5.0625,-0.25,-9,0
47080,-7.125,1.5625,-8.3125,0
47100,-1.9375,-1.5,-7.8125,0
47120,2.3125,-3.5625,-9.8125,0
47140,2.125,-3.25,-9.75,0
47150,-2.25,0.6875,-9.0625,0
47170,-3,3.6875,-7.375,0
47190,-2.3125,1.8125,-7.75,0
47210,3.5,-0.25,-5.6875,0
47230,5.3125,-1.25,-5.125,0
47250,5.25,0.6875,-3.375,0
47270,2,1.625,-1.0625,0
47290,-0.8125,-0.5625,2.1875,0
47310,0.9375,-1.4375,5.375,0
47330,3,1,5.375,0
47350,2.125,3.625,5.1875,0
47370,0.375,5.9375,5.625,0
47390,-1.75,9,5.875,0
47410,1.875,13,5.5625,0
47430,0,12.3125,7.1875,0
47450,-0.5,15.375,15,0
47470,2.0625,22,19,0
47490,5.0625,28.4375,18.375,0
47510,2.625,32,24.3125,0
47530,-9.875,36.4375,30.25,0
47550,-5.875,40.625,34,0
47570,8.4375,42.5625,34.8125,0
47590,21.4375,43.25,36,0
47610,14.4375,39.5,40,0
47630,1.5,42.625,43.6875,0
47650,8.875,45.875,42.875,0
47670,14.3125,43.8125,39.5625,0
47690,7.625,40.5625,43.0625,0
47710,10.8125,42.25,46.5625,0
47730,21.9375,43.8125,46.875,0
47750,26.0625,41.8125,44.6875,0
47770,20.1875,40.4375,44.3125,0
47790,22.1875,49.125,45,0
47810,18.75,52.4375,46,0
47830,22.25,48.5,43.875,0
47850,19.6875,45.4375,43.8125,0
47870,19.6875,43,45.25,0
47890,29.5,38.1875,38.875,0
47910,28.375,34.0625,32.9375,0
47930,24.375,30.3125,30.75,0
47950,24.5625,27.375,27.5625,0
47970,29.5,20.375,21.875,0
47990,30.1875,13.875,17.5,0
48010,30.75,8.1875,13.3125,0
48030,29.125,7,7.875,0
48050,27.25,9.5,9,0
48070,22.4375,10.5625,7.875,0
48090,25.125,10.25,7.8125,0
48110,25.875,8.0625,10.1875,0
48130,20.125,3.125,14.5625,0
48150,18.8125,3.4375,16,0
48170,14.9375,7.25,14.75,0
48190,5.8125,9,16.0625,0
48210,-3.6875,7.25,15.5,0
48230,-1.3125,6.6875,12.4375,0
48250,3.1875,6.1875,11.625,0
48270,4.25,3.8125,11.625,0
48290,3,3.125,9.5,0
48310,1.5,6,6.875,0
48330,-2.75,7.125,3.8125,0
48350,-5.375,7.875,4.5625,0
48370,-2.375,7.5625,5.25,0
48390,1.8125,6.875,4.875,0
48410,3.4375,7.25,3.5625,0
48430,3.9375,7.75,2.4375,0
48450,0.1875,6.75,1.9375,0
48470,-1.625,5.5,0.1875,0
48490,-3.0625,5.6875,-1,0
48510,-3.25,6.5,-1.1875,0
48530,-1.5625,7.8125,-2.6875,0
48550,-1.0625,7.875,-1.4375,0
48570,-3.5,7,-1.125,0
48590,-2.25,6.625,-0.6875,0
48610,-1.375,6.9375,0,0
48630,0.75,6.9375,0.5625,0
48650,-1.4375,5.6875,2,0
48670,-3.1875,5.25,2.5,0
48690,-1.25,5.8125,1.75,0
48710,-3.875,5,3.875,0
48730,-5.0625,4,3.5625,0
48750,-1.6875,3.625,3.5,0
48770,-1.875,2.875,5.75,0
48790,-2,2.375,3.5625,0
48810,-1.125,1.375,4.3125,0
48830,-4.0625,2.0625,5.4375,0
48850,-3.4375,0,4.0625,0
48870,-0.875,-2.9375,3.4375,0
48890,2,-3.8125,3,2000
48910,2.5,-4.625,1.5,0
48930,1.25,-5,1.1875,0
48950,0.5625,-5.0625,0.0625,0
48970,1.4375,-5.125,-0.75,0
48990,1.6875,-4.8125,-0.5,0
49010,3.8125,-4.1875,0.0625,0
49030,6.25,-4.5625,-0.5,0
49050,3,-4.5,-0.5625,0
49070,0.125,-3.875,0.5625,0
49090,0,-3.4375,0,0
49110,1.5625,-3.5,-0.0625,0
49130,1.25,-4.25,0.8125,0
49140,4.125,-5.375,-0.625,0
49160,4.0625,-6.25,-1.6875,0
49180,3.4375,-6.4375,-2.5625,0
49200,2,-7.1875,-1.3125,0
49220,3.75,-7.4375,-0.9375,0
49240,4.6875,-7.6875,0.3125,0
49260,4.6875,-6.8125,-0.0625,0
49280,4,-7.5,-0.8125,0
49300,3.0625,-8.25,-1.625,0
49320,0.1875,-8.0625,-1.625,0
49340,-1.5625,-8,-0.5,0
49360,3.8125,-8.25,-0.9375,0
49380,5.375,-9.0625,-2.4375,0
49400,3.1875,-9.3125,-1.4375,0
49420,1.5625,-9.9375,-2.0625,0
49440,2.8125,-9.1875,-2.8125,0
49460,1.8125,-8.9375,-2.4375,0
49480,1.1875,-8.1875,-2,0
49500,-0.0625,-7.875,-1.6875,0
49520,1.4375,-8,-1.875,0
49540,2.125,-7.6875,-2.25,0
49560,1,-8.3125,-1.25,0
49580,0.4375,-9.4375,-1.5625,0
49600,0.1875,-9.125,-1.9375,0
49620,0.0625,-8.4375,-1.875,0
49640,-0.25,-8.8125,-3.5625,0
49660,0.3125,-9.9375,-3.25,0
49680,0.8125,-10.125,-2.9375,0
49700,-0.25,-9.0625,-2.875,0
49720,-0.75,-9.0625,-3.3125,0
49740,-0.5,-8.0625,-2.25,0
49760,1.375,-7.6875,-1.625,0
49780,1.4375,-7.125,-0.875,0
49800,1.0625,-7.4375,-0.5,0
49820,2.0625,-6.5,-0.5625,0
49840,3.25,-6.1875,-0.5,0
49860,1.6875,-6.875,-0.125,0
49880,1.1875,-7.4375,-0.25,0
49900,-0.125,-6.6875,-1.0625,0
49920,-0.0625,-5.9375,-1.375,0
49940,0.875,-5.625,-1.3125,0
49960,1,-6.3125,-1,0
49980,1.8125,-7.125,-1.125,0
50000,0.9375,-5.6875,-2.125,0
50020,-0.0625,-4.125,-1.4375,0
50040,-1.75,-5.625,-1.5,0
50060,-1.75,-6,-1.5625,0
50080,-1.3125,-3.875,-2,0
50100,-1.625,-2.8125,-2.3125,0
50120,-2,-2.625,-2.125,0
50140,-1.5625,-2.9375,-2.875,0
50160,-2.375,-2.8125,-3.5,0
50180,-2.625,-3.4375,-4.875,0
50200,-3.125,-4.5,-5.25,0
50220,-3.375,-5.4375,-5.6875,0
50240,-2.125,-3.875,-7.5,0
50260,-2.5625,-3.0625,-7.25,0
50280,-3.875,-4.125,-5,0
50300,-3.125,-4.625,-5.125,0
50320,-1.9375,-5.375,-5.9375,0
50340,-2.1875,-5.5,-6.75,0
50360,-2.1875,-6.5,-5.75,0
50380,-1.625,-7.0625,-4.5,0
50400,-0.6875,-5.6875,-5.3125,0
50420,-1,-4.875,-6.25,0
50440,-3.875,-4.3125,-5.9375,0
50460,-3.9375,-4.5625,-6.3125,0
50480,-1.75,-3.75,-5.0625,0
50500,-2.125,-2.375,-3.8125,0
50520,-3.75,-2.1875,-4.875,0
50540,-1.8125,-3.1875,-6.1875,0
50560,-1.5,-4.875,-4.625,0
50580,-2.1875,-4.25,-4.125,0
50600,-0.25,-3.1875,-4.375,0
50620,-2.5625,-1.375,-4.375,0
50640,-4.4375,0,-6.4375,0
50660,-6.5,1,-6.5625,0
50680,-9.4375,2.6875,-6.3125,0
50700,-11.75,2.9375,-6.875,0
50720,-11.25,4.0625,-7.75,0
50740,-6.9375,5,-8.1875,0
50760,-5.5625,5.0625,-8.0625,0
50780,-7.1875,4.6875,-9.1875,0
50800,-9.625,4.375,-10.125,0
50820,-10.0625,4.9375,-12.25,0
50840,-10,4.75,-13.0625,0
50860,-10.0625,3.625,-12.875,0
50880,-8.875,3.4375,-13.4375,0
50900,-6.9375,4.3125,-14.9375,0
50920,-6.375,4.6875,-14.9375,0
50940,-7.125,4,-14.75,0
50960,-7.125,4.0625,-13.9375,0
50980,-7,3.75,-14,0
51000,-6.9375,2.875,-13.8125,0
51020,-7.375,2.3125,-13.375,0
51040,-8.625,3.25,-13.25,0
51060,-7.125,4.25,-13.4375,0
51080,-5.75,4.625,-12.9375,0
51100,-4.0625,4.25,-13.75,0
51120,-5.4375,3.8125,-14.625,0
51140,-7.8125,3.0625,-14.75,0
51160,-8,3.4375,-14.875,0
51180,-7.375,5.625,-15.1875,0
51200,-8,6.125,-15.75,0
51220,-8.625,7.375,-15.4375,0
51240,-9.875,9.0625,-15.1875,0
51260,-10.3125,10.4375,-15.1875,0
51280,-8.1875,12.1875,-14.0625,0
51300,-7.75,12.6875,-14.75,0
51320,-9.3125,12.6875,-15.9375,0
51340,-9.9375,11.6875,-17.25,0
51360,-11.125,11.0625,-17.9375,0
51380,-12.125,10.9375,-18.0625,0
51400,-9.375,11.25,-18.375,0
51420,-9.0625,10.875,-18.0625,0
51440,-10.75,10.25,-17.875,0
51460,-11.375,10,-18.25,0
51480,-10.375,9.6875,-17.25,0
51500,-8.125,9.0625,-16.375,0
51520,-8.4375,8.25,-16.625,0
51540,-9.8125,7.875,-17.5,0
51560,-9.6875,6.4375,-18.0625,0
51580,-9.125,4.75,-17.3125,0
51600,-8.3125,4.0625,-16.6875,0
51620,-8.8125,5.0625,-17.75,0
51640,-7.9375,6,-17.4375,0
51660,-7.6875,5.375,-17.9375,0
51680,-9.9375,4.875,-17.8125,0
51700,-9.5625,4.75,-17.75,0
51720,-6.875,4.8125,-17.375,0
51740,-7.75,6.1875,-17.4375,0
51760,-8.4375,6.125,-18.5,0
51780,-10.4375,6.0625,-18.4375,0
51800,-10.6875,7.625,-19.125,0
51820,-10.625,9.1875,-21.3125,0
51840,-11.375,10.9375,-22.25,0
51860,-13.3125,12.125,-21.6875,0
51880,-12.25,12.3125,-21.75,0
51900,-9.625,14.1875,-22,0
51920,-9.9375,17.0625,-22.9375,0
51940,-11.375,18.8125,-23.8125,0
51960,-10.4375,17.5,-21.875,0
51980,-8.125,16.875,-21.375,0
52000,-5.6875,18.1875,-21.5,0
52020,-7.1875,19.9375,-20.375,0
52040,-10.125,19.625,-18.0625,0
52060,-9.8125,19.6875,-17.3125,0
52080,-6.75,20.375,-17.5625,0
52100,-6.125,20.9375,-17.0625,0
52120,-5.625,21.0625,-17.1875,0
52140,-5.0625,19.25,-16.6875,0
52160,-4,19.125,-16.4375,0
52180,-3.375,18.6875,-16.0625,0
52200,-5.8125,19.8125,-16.125,0
52220,-7.8125,21.6875,-15.0625,0
52240,-1.375,20.6875,-14.375,0
52260,3.3125,19.625,-15.125,0
52280,4.5625,19.625,-15.875,0
52300,1.9375,19.0625,-15.3125,0
52320,2.375,18.1875,-14.1875,0
52340,5,19.5625,-14.875,0
52360,4.25,18.875,-15.5,0
52380,3.8125,19.625,-14.625,0
52400,3.125,19.9375,-12.625,0
52420,4.0625,18.8125,-10,0
52440,4.0625,19.75,-7.1875,0
52460,5.3125,19.75,-7.9375,0
52480,4.3125,19,-7.0625,0
52500,3.6875,17.125,-7.125,0
52520,6.375,15.375,-6.1875,0
52540,7.25,12.625,-5,0
52550,8.875,9.8125,-6.25,0
52570,9.1875,8.875,-8,0
52590,5.8125,9.25,-8.8125,0
52610,1.5,7.5,-7,0
52630,2.5625,5.4375,-6.3125,0
52650,4.1875,7.1875,-5.625,0
52670,5.4375,8.3125,-6.9375,0
52690,9.125,4.25,-5.8125,0
52710,13.625,-0.125,-3.6875,0
52730,12.5625,-1.375,-4.5625,0
52750,7.4375,0.5,-7.1875,0
52770,1.5,3,-6.875,0
52790,0.3125,3.1875,-6.5625,0
52810,2.875,1.875,-4.6875,0
52830,5.3125,1.6875,-4.0625,0
52850,9.6875,2.375,-5.3125,0
52870,10.375,4.125,-4.375,0
52890,9,4.25,-4.4375,0
52910,6.375,4.25,-3.5625,0
52930,7.0625,5.9375,-1.6875,0
52950,5.875,7.875,-0.1875,0
52970,2.8125,9,0.75,0
52990,2.75,9,2.125,0
53010,0.6875,9.3125,5.375,0
53030,-2.125,9.4375,4.4375,0
53050,-5.9375,11,5.6875,0
53070,-4.25,12.1875,6.5,0
53090,-4.875,11.1875,6.1875,0
53110,-6.375,8.8125,6.125,0
53130,-0.25,7.375,6.75,0
53150,1.0625,7,7,0
53170,0.25,6.625,5.875,0
53190,-2,7.8125,5.5,0
53210,-2.5,7.1875,4.9375,0
53230,-3.0625,4.1875,4.375,0
53250,2.875,4.3125,3.375,0
53270,4.4375,4.0625,2.5,0
53290,-0.75,3.3125,2,0
53310,-3.6875,4.3125,2.375,0
53330,-4.4375,3.3125,2.9375,0
53350,-2.9375,1.0625,0.75,0
53370,-0.3125,0.9375,1.8125,0
53390,-2.625,2.0625,3.1875,0
53410,-2.0625,2.9375,3.375,0
53430,-2.125,3.375,4.375,0
53450,-2.5625,3.875,4.1875,0
53470,-2.3125,5.3125,3.375,0
53490,-5,7.625,5.9375,0
53510,-6.0625,8.25,8.875,0
53530,-3.125,7.0625,9.5625,0
53550,-5.4375,6.1875,9.1875,0
53570,-2.0625,6.8125,8.4375,0
53590,-2.5625,7.375,9.375,0
53610,-5.0625,6.625,11.0625,0
53630,-1.125,6.1875,11,0
53650,0.5625,6.0625,10.5,0
53670,1.25,5.1875,10.9375,0
53690,-2.25,4.0625,11.875,0
53710,1.125,4.875,11.625,0
53730,1,6.4375,10.875,0
53750,-1.4375,7.25,9.75,0
53770,-5.25,6.5,10.8125,0
53790,-1.5,5.5,11.4375,0
53810,-1.625,3.5625,12.0625,0
53830,-1.25,3.5,12.375,0
53850,-1.5,4.3125,12.625,0
53870,-1.1875,3.625,11.6875,0
53890,-3.3125,0.25,12.6875,0
53910,-1.8125,-2.5,13.5625,0
53930,3.6875,-2.5625,12.9375,0
53950,4.4375,-2.375,12.25,0
53970,0,-3.1875,12.5,0
53990,0.5,-4.625,14.4375,0
54010,4.625,-5.6875,16.5,0
54030,5.625,-4.75,15.75,0
54050,-0.4375,-3.125,13.9375,0
54070,-0.125,-2.75,11,0
54090,1.9375,-3.5625,10,0
54110,3.5,-5.875,10.5,0
54130,5.375,-7.3125,9.875,0
54150,6.6875,-6.8125,9.9375,0
54170,3.4375,-6.875,10.125,0
54190,-1.4375,-6.4375,10.5625,0
54210,-2.0625,-6.9375,11.8125,0
54230,1.375,-7.3125,13.0625,0
54250,1.9375,-8.75,14.6875,0
54270,1.8125,-8.4375,15.75,0
54290,0.75,-8.25,16.625,0
54310,-2.25,-7.75,17.6875,0
54330,-4.25,-7.25,18,0
54350,-2.1875,-6.875,17.8125,0
54370,1.5625,-7.5,18.125,0
54390,-1.375,-9.3125,18.75,0
54410,0.875,-9.4375,17.375,0
54430,11.4375,-10.1875,16.9375,0
54450,12.625,-13.0625,17.9375,0
54470,9.125,-13.5,16.125,0
54490,3.6875,-11.6875,16.75,0
54510,1.875,-9.875,18.875,0
54530,0.1875,-10.0625,20.125,0
54540,2.1875,-9.125,20.3125,0
54560,2.75,-7.875,21.0625,0
54580,0.375,-7.125,21.3125,0
54600,-1.75,-5.6875,19.75,0
54620,-1.6875,-4.75,18.75,0
54650,6,-7.125,18.9375,0
54670,3.4375,-6.625,19,0
54690,4.125,-6.375,19.4375,0
54710,1.875,-8.8125,20.0625,0
54730,3.9375,-9.8125,19.375,0
54750,1,-10.125,19.1875,0
54770,0.875,-11.125,19.0625,0
54790,0.875,-11.9375,18.25,0
54810,4.5,-12,15.875,0
54830,7.4375,-12.375,14.3125,0
54850,3.5625,-12.9375,14.1875,0
54870,3.5,-12.5,13.6875,0
54890,5.6875,-11.625,14,0
54910,2.8125,-11.9375,15.5625,0
54930,1.125,-11.8125,16.75,0
54950,2.875,-11,17.25,0
54970,-0.4375,-11.875,17,0
54990,1.0625,-11.875,17.875,0
55010,2.1875,-12.1875,18.25,0
55030,1.0625,-12.6875,18.1875,0
55050,0.5,-12.875,19.375,0
55070,-1.1875,-13.4375,19.4375,0
55090,1.125,-13.6875,18.8125,0
55110,-1.75,-14.625,19,0
55130,-1.0625,-15,19.0625,0
55150,-1.5,-14.75,18.75,0
55170,-4.5625,-13.875,17.6875,0
55190,-3.75,-13.625,17.8125,0
55210,-1.5625,-14.25,16.9375,0
55230,-0.1875,-14.8125,15.875,0
55250,1,-15.5625,14.6875,0
55270,-0.5,-15.6875,13.75,0
55290,-1.1875,-16.1875,14.625,0
55310,-0.875,-17.375,15.0625,0
55330,1.0625,-17.6875,13.5,0
55350,-1.25,-17.5,14.0625,0
55370,-2.8125,-17.5625,14.875,0
55390,-2.6875,-18.6875,13.8125,0
55410,-0.3125,-17.625,11.5,0
55430,1.5625,-17.1875,11.4375,0
55450,4.625,-19.6875,12.375,0
55470,3.75,-20.9375,11.3125,0
55490,1.875,-20.9375,12.0625,0
55510,-0.5625,-20.6875,12.875,0
55530,-1.25,-20.375,12.8125,0
55550,-1.8125,-21.125,12.875,0
55570,-1.3125,-21.4375,12.25,0
55590,0.1875,-20.3125,11.6875,0
55610,1.5625,-20.0625,12.0625,0
55630,-1.25,-21.4375,11.6875,0
55650,-4.8125,-20.1875,14.25,0
55670,-7.5625,-20.3125,15.375,0
55690,-1.125,-21.0625,13.5,0
55710,-1.25,-21.75,12.1875,0
55730,-2.75,-21.6875,10.5625,0
55750,-3.9375,-20.8125,7.5625,0
55770,-4.375,-20.625,4.75,0
55790,-5.75,-19.9375,3.75,0
55810,-3.6875,-19.6875,2.5625,0
55830,0.8125,-20.375,0.9375,0
55850,4.625,-21.6875,-0.5625,0
55870,1.5625,-20.1875,-0.9375,0
55890,-1.125,-17.4375,0,0
55910,0.0625,-15.3125,2.0625,0
55930,-2.6875,-15.6875,2,0
55950,-2.5,-15.375,2.1875,0
55970,-1.875,-14.3125,1.875,0
55990,-1.9375,-13.6875,1.4375,0
56010,-0.0625,-14.0625,2.4375,0
56030,1.9375,-13.1875,2.8125,0
56050,1.4375,-11.5625,2,0
56070,-3,-12.5625,3,0
56090,-4.9375,-14.25,4.5,0
56110,-2.875,-13,5.4375,0
56130,-2.375,-12.1875,5.625,0
56150,-5.75,-10.75,5.625,0
56170,-7.375,-10.8125,5.25,0
56190,-4.375,-12.25,4.375,0
56210,-1.25,-13.0625,1.5625,0
56230,-1.625,-12.625,0.1875,0
56250,-1.6875,-11.6875,-0.25,0
56270,-2.1875,-10.75,-1.125,0
56290,-1.9375,-10.9375,-4.1875,0
56310,-2,-12.5625,-5.6875,0
56330,-1.3125,-12.6875,-4.75,0
56350,-0.625,-11.4375,-5.5,0
56370,-3.5625,-10.1875,-6.3125,0
56390,-3.875,-9.875,-8.0625,0
56410,-5.875,-9.625,-8.5,0
56430,-3.8125,-11.1875,-7.75,0
56450,-1.5625,-10.8125,-6.75,0
56470,-2.4375,-9.25,-8.5625,0
56490,-6.125,-6.875,-9.875,0
56510,-6.6875,-8.6875,-9.4375,0
56530,-4.5,-10.625,-8.625,0
56550,-4.5625,-10.3125,-9.75,0
56570,-5.625,-7.5625,-11.8125,0
56590,-7.8125,-7.5625,-11.75,0
56610,-7.6875,-7.875,-11.375,0
56630,-6,-8.0625,-11.6875,0
56650,-4.3125,-8.3125,-10.75,0
56670,-4.4375,-8.0625,-10,0
56690,-3.625,-6.4375,-10.75,0
56710,-5.25,-4.5,-11.1875,0
56730,-7.5625,-3.6875,-11.875,0
56750,-6.875,-3.3125,-11.4375,0
56770,-2.5625,-1.375,-13.375,0
56790,-1,-0.75,-14.0625,0
56810,-2.6875,-1.125,-15.75,0
56830,-2.0625,-1.25,-17.3125,0
56850,-4.25,1.4375,-18.375,0
56870,-6.25,3.625,-18.25,0
56890,-5,2.8125,-18,0
56910,-3.25,1.125,-16.75,0
56930,-3.4375,2.5625,-18.125,0
56950,-7.4375,3.625,-19.375,0
56970,-11.6875,4.1875,-19.6875,0
56990,-9.5,4,-20.125,0
57010,-6.375,3.3125,-21.1875,0
57030,-4.75,3.5,-22.625,0
57050,-7.625,3.3125,-21.625,0
57070,-10.1875,1.875,-21.125,0
57090,-8.5625,2.1875,-21.0625,0
57110,-9.8125,4.75,-21.0625,0
57130,-10.25,6.875,-21.4375,0
57150,-8.1875,6.8125,-19.875,0
57170,-5.125,5.375,-19.3125,0
57190,-7.125,3.75,-19.125,0
57210,-9.375,4.625,-20.0625,0
57230,-8.5625,5.6875,-21.3125,0
57250,-6.4375,5.25,-21.8125,0
57270,-8.0625,6.125,-23.1875,0
57290,-8.8125,5.6875,-22.875,0
57310,-6,2.9375,-22.375,0
57330,-4.125,3.5,-23.0625,0
57350,-5.125,6.125,-22.3125,0
57370,-8.125,6.75,-20.5,0
57390,-8.4375,5,-19.125,0
57410,-6.875,4.625,-18.1875,0
57430,-7.25,3.9375,-17.375,0
57450,-9.75,5.3125,-17,0
57470,-10.5625,7.6875,-15.5,0
57490,-8.1875,7.5,-13.5,0
57510,-3.6875,4.375,-13.8125,0
57530,-3.875,3.125,-13.25,0
57550,-7.3125,3.875,-15,0
57570,-8.875,6.8125,-16.4375,0
57590,-6.4375,7.375,-17,0
57610,-6.9375,4.875,-16.8125,0
57630,-7,3.5625,-18.1875,0
57650,-5,3.6875,-18.625,0
57670,-4.9375,3.125,-18.625,0
57690,-7.125,3.0625,-19.375,0
57710,-8.75,4.1875,-19.4375,0
57730,-9.125,3.25,-17.4375,0
57750,-7.625,2.6875,-16.25,0
57770,-6.375,3.0625,-15.9375,0
57790,-9.5,4.375,-15.625,0
57810,-10.6875,4.1875,-15.5,0
57830,-10.125,4.1875,-15.375,0
57850,-8.4375,6,-15.3125,0
57870,-9.75,6.5,-15.3125,0
57890,-11.9375,5.5,-14.5,0
57910,-11,6.125,-13.6875,0
57920,-11.375,7,-12.625,0
57940,-13.125,7.5,-12.125,0
57960,-14.375,8.375,-10.875,0
57980,-14.1875,8.9375,-10.625,0
58000,-13.5625,9.375,-11.0625,0
58020,-10.0625,9.9375,-12.1875,0
58040,-7.875,9.25,-11.8125,0
58060,-11.125,8.625,-10.8125,0
58080,-10,9.5,-13.8125,0
58100,-7.25,11.3125,-13.8125,0
58120,-6.75,11.5,-14.75,0
58140,-5.25,9.875,-17.0625,0
58160,-4.8125,9.9375,-17.9375,0
58180,-4.75,10.5,-17.6875,0
58200,-5.875,10.9375,-17.3125,0
58220,-7.5625,11.5,-16.5,0
58240,-5.5,12.0625,-15.5625,0
58260,-2.875,13.4375,-13.75,0
58280,-0.9375,13.5625,-12.875,0
58300,1.5625,14.3125,-11.25,0
58320,-5.3125,14.0625,-9.6875,0
58340,-6.4375,15.8125,-8.875,0
58360,-2.8125,16.9375,-8.5625,0
58380,-0.5625,14.3125,-8.625,0
58400,3.6875,12.6875,-8.375,0
58420,2.9375,11.1875,-8.375,0
58440,0.0625,12.25,-9.0625,0
58460,0.1875,13.375,-8.375,0
58480,0.0625,12.625,-8.1875,0
58500,0.0625,11.625,-7.8125,0
58520,3.125,9.1875,-6.625,0
58540,4.6875,9.1875,-5.125,0
58560,1.875,13.5625,-4.875,0
58580,-1.3125,13.6875,-6.6875,0
58600,-3.5625,11.5,-5.625,0
58620,1.3125,9.5625,-4.125,0
58640,4.6875,10,-5.25,0
58660,-0.25,10.125,-5.8125,0
58680,-7.6875,8,-4.4375,0
58700,-3.75,6.8125,-4.9375,0
58720,1.1875,8.4375,-5.375,0
58740,-0.1875,10.5,-5.25,0
58760,-1.9375,12.0625,-4.1875,0
58780,-2.6875,11.875,-2.125,0
58800,1.4375,9.625,-2.5625,0
58820,3.125,8.375,-2.5625,0
58840,2.625,9.3125,-1.6875,0
58860,-1.125,11.6875,-1.5625,0
58880,-4.75,12.25,-1.4375,0
58900,-5.125,9.125,-0.5,0
58920,2.75,6.6875,0.8125,0
58940,9.625,5.875,1.375,0
58960,3.625,6.1875,0.3125,0
58980,-3.6875,8.6875,0.9375,0
59000,-3.8125,9.8125,1.3125,0
59020,-3,8.3125,2.5625,0
59040,-4.5,8.375,2.75,0
59060,-3.1875,9.75,3.125,0
59080,-3.125,13,4.125,0
59100,-4.3125,12.1875,4.3125,0
59120,-3.5625,9.4375,4.4375,0
59140,0.8125,8.875,3.9375,0
59150,-0.6875,9.625,0.625,0
59170,-3.75,9.5625,0.75,0
59190,-1.9375,10,-0.0625,0
59210,-2.9375,10.4375,-2.25,0
59230,-6.375,12,-2.75,0
59250,-3.5625,14.125,-2.4375,0
59270,2.75,12.875,-1.1875,0
59290,-0.3125,10.5625,-1.0625,0
59310,-2.5,11.875,0.75,0
59330,-1.1875,14.375,1.3125,0
59350,-1.875,13.3125,0.5,0
59370,-1.0625,11.25,1,0
59410,-3.125,11.5625,2.125,0
59450,0.4375,13.625,4.4375,0
59470,1.3125,11.375,3.375,0
59490,4,7.4375,7.0625,0
59510,0,6,7.3125,0
59530,-0.5,6.6875,6.9375,0
59550,1.875,6.5625,6.875,0
59570,-2.75,4.625,8.1875,0
59590,-1.1875,4.5,9,0
59610,4.3125,5.6875,7.125,0
59630,3.625,5.375,6.8125,0
59650,-1.3125,4.875,7.3125,0
59670,1,5.5625,6.3125,0
59690,1,6,7.625,0
59710,-1.625,5.125,9.8125,0
59730,-1.4375,5.4375,11,0
59750,0.5625,7.8125,9.125,0
59770,-3.6875,6.75,9.3125,0
59790,-6.25,6.9375,10.1875,0
59810,-2.125,5.9375,10.625,0
59820,-2.3125,5.8125,10.4375,0
59840,-0.8125,7.75,9.25,0
59860,-2.8125,11.4375,6.9375,0
59880,-8.8125,13.625,9.5625,0
59900,-1.9375,10,12.4375,0
59920,13.3125,6.625,12.0625,0
59940,13,4.625,10.8125,0
59960,5.5,5.0625,9.5625,0
59980,-5.75,4.9375,10.625,0
60000,-9.625,4.6875,12.0625,0
60020,-2.0625,2.75,10.3125,0
60040,0.375,-0.1875,9.8125,0
60060,3.375,0,9.5,0
60080,-13.6875,2.125,11.8125,0
60100,-16.625,5.3125,12.1875,0
60120,-15.5625,4.1875,10.5625,0
60140,-13.8125,0.25,11.75,0
60160,-11.625,0.125,13.8125,0
60180,-5.875,1.875,14.875,0
60200,-6.25,-0.6875,14.4375,0
60220,-5.0625,-3,14.875,0
60240,1.75,-1.25,13.9375,0
60260,-0.1875,-1.0625,13.875,0
60280,-9,-1.75,15.3125,0
60300,-5,-1.8125,15.125,0
60320,0.4375,-2.3125,13.875,0
60340,1.125,-2.8125,15.1875,0
60360,-4.1875,-3.1875,17.4375,0
60380,-7.25,-2.4375,18.3125,0
60400,-7.375,-1.0625,17.625,0
60420,-7.0625,-2.5625,17.375,0
60440,-6.3125,-4.1875,17.8125,0
60460,0.875,-3.625,15.625,0
60480,0.9375,-5.9375,16,0
60500,-2.5625,-5.8125,16.5,0
60520,-2.5625,-5.1875,17.5625,0
60540,0.6875,-4.625,16.3125,0
60560,1.0625,-4.875,16.125,0
60580,-2.75,-5.5625,17.3125,0
60600,-6,-5.1875,18.1875,0
60620,-8.5,-4.3125,17.625,0
60640,-9.3125,-5.9375,17.625,0
60660,-6.0625,-9.0625,18.6875,0
60680,-6.3125,-9.1875,20,0
60700,-7.125,-8.1875,18.8125,0
60720,-4.625,-9.75,16.5625,0
60740,-3.5,-12,15.875,0
60760,-1.625,-12.9375,16.875,0
60780,2.6875,-12.0625,16.4375,0
60800,4.9375,-12.25,15,0
60820,1.75,-12.6875,15.75,0
60840,-2.4375,-11.4375,16.3125,0
60860,-0.5625,-9.625,15.875,0
60880,2.5625,-10.375,15.125,0
60900,-2,-10.625,15.375,0
60920,-1.875,-11.125,15.75,0
60940,0,-11.5625,14.75,0
60960,2.1875,-11.625,13.875,0
60980,-1,-11.125,13.6875,0
61000,-4.125,-11.25,14.375,0
61020,-3.0625,-11.75,15.4375,0
61040,1.375,-11.875,14.3125,0
61060,0.25,-12.5,13.375,0
61080,-1,-12.0625,12,0
61100,1,-12.125,11.5625,0
61120,0.8125,-13.875,11.6875,0
61140,2.9375,-14.1875,12.25,0
61160,3.8125,-13.6875,11.8125,0
61180,2.3125,-13.8125,11.5625,0
61200,-2.0625,-14.25,13.9375,0
61220,-0.625,-15.5,14.75,0
61240,2.8125,-16.75,15.6875,0
61260,1.1875,-16.375,14.875,0
61280,-3.5625,-15.25,14.625,0
61300,-1.5625,-15.5625,13.9375,0
61320,2.375,-17.375,13.8125,0
61340,4.125,-18.875,14.4375,0
61360,2.0625,-18.4375,14,0
61380,-3.25,-17.375,13.625,0
61400,-2.625,-17.5625,12.3125,0
61420,-1.1875,-19.5625,12.125,0
61440,-1.6875,-21.0625,13,0
61460,-1.375,-20.625,13.3125,0
61480,1.5,-18.25,12.4375,0
61500,-4,-17.75,13,0
61520,-6.6875,-18.125,13.0625,0
61540,-2.9375,-18.5,11.8125,0
61560,1,-17.8125,11.25,0
61580,2.25,-16.875,9.5,0
61600,-1.5625,-17.625,8.0625,0
61620,-2.5,-18.0625,7.0625,0
61640,1.4375,-16,4.9375,0
61660,1.5,-16.8125,3.6875,0
61680,0.5,-19.0625,2.9375,0
61700,4.375,-19.125,2.4375,0
61720,7.375,-18.4375,1.4375,0
61740,5.75,-17.5625,1.5,0
61760,0.0625,-18.1875,1.875,0
61780,0.25,-18.25,1.8125,0
61800,6.9375,-17.9375,1.25,0
61820,8.375,-19.5,-0.3125,0
61840,6.625,-20.6875,-0.4375,0
61860,3,-19.8125,1.0625,0
61880,2.125,-19.5,1.875,0
61900,3.75,-19.75,1.5625,0
61920,6.3125,-21.3125,2.375,0
61940,2.875,-21.25,2.25,0
61960,4,-19.4375,1.4375,0
61980,5.4375,-19.4375,0.625,0
62000,2.5625,-20.375,0.9375,0
62020,1.25,-20.6875,0.8125,0
62040,0.75,-18.875,0.625,0
62060,2.4375,-19.4375,1.25,0
62080,4.125,-20.6875,2.5625,0
62100,9.5,-20.1875,2.4375,0
62120,5.75,-18.5,0.9375,0
62140,-2.4375,-15.4375,0.5,0
62160,-3.125,-16.5,-0.4375,0
62180,2.0625,-19.75,0.0625,0
62200,10.25,-20.5,0.5625,0
62220,10.375,-18.9375,-2.25,0
62240,2.375,-17.375,-2.3125,0
62260,-3,-18.1875,-1.4375,0
62280,-0.9375,-18.0625,-1.0625,0
62300,3.625,-17.5,-0.625,0
62320,4.4375,-18.125,-0.75,0
62340,3.125,-18.375,-0.4375,0
62360,1.625,-17.375,-1.4375,0
62380,1.9375,-16.6875,-3.0625,0
62400,0.8125,-16.125,-2.9375,0
62420,3.3125,-16.5,-2.5625,0
62440,5.625,-17.125,-2.125,0
62460,9.375,-15.75,-1.75,0
62480,9.5625,-13.6875,-2.5625,0
62500,4.75,-13.9375,-4.3125,0
62520,0.0625,-13.0625,-6,0
62540,1.5,-11.75,-5.8125,0
62560,3.5625,-12.25,-7.3125,0
62580,1.1875,-12.75,-7.125,0
62600,0.125,-11.625,-7,0
62620,0.875,-10.125,-9,0
62640,0.9375,-11.1875,-10.125,0
62660,-1.625,-11.875,-10.125,0
62680,1.125,-9.8125,-10.625,0
62700,3.75,-10.125,-11.8125,0
62720,0.25,-11.5625,-11.75,0
62740,-1.1875,-11.625,-10.875,0
62760,0.0625,-11.25,-11.375,0
62780,1.5,-10.8125,-12.125,0
62800,0.75,-11.75,-12.5,0
62820,0.25,-11.6875,-12.5,0
62840,-0.875,-10.625,-12,0
62860,-2.125,-10.125,-12.5625,0
62880,-2.0625,-9.5625,-12.4375,0
62900,0.1875,-9.5,-14.125,0
62920,0.5625,-9.5,-15.125,0
62940,-0.3125,-8.625,-15.8125,0
62960,-1.625,-5.0625,-17,0
62980,-4.5,-2.125,-15.3125,0
63000,-7.4375,-3.3125,-14.4375,0
63020,-6.375,-2.875,-15.75,0
63040,-4.3125,-0.0625,-14.75,0
63060,-2.5,1.4375,-15.9375,0
63080,-3.3125,-0.8125,-17.3125,0
63100,-5.8125,-1.875,-17,0
63120,-6.25,-1.3125,-16.625,0
63140,-3.9375,-1.8125,-16.8125,0
63160,-4.9375,-4.125,-17.25,0
63180,-5,-4.375,-18.25,0
63200,-5.375,-2.125,-19.3125,0
63220,-11.5625,-1.25,-18.625,0
63230,-8.4375,-2.8125,-17.4375,0
63250,-4.625,-2.5,-17.3125,0
63270,-5.75,-2.625,-19.375,0
63290,-9.5,-1.25,-19.75,0
63310,-9.1875,-0.3125,-18.5625,0
63330,-5.75,0.25,-19,0
63350,-7.8125,0.3125,-19.8125,0
63370,-7,2.125,-22.3125,0
63390,-8.375,2.625,-23.375,0
63410,-8.5625,3.4375,-22.8125,0
63430,-9.25,3.375,-24.0625,0
63450,-8,4.6875,-25.4375,0
63470,-4.9375,3.875,-25.625,0
63490,-5.9375,1.4375,-27.0625,0
63510,-7.3125,2.6875,-25.9375,0
63530,-10,3.9375,-24.8125,0
63550,-9.625,3.25,-24.25,0
63570,-7.3125,1.1875,-23.75,0
63590,-5.625,0.625,-23.75,0
63610,-8.25,0.875,-23.1875,0
63630,-8.375,0.8125,-22.125,0
63650,-7.125,1.25,-19.625,0
63670,-7.875,2.0625,-19.3125,0
63690,-8.5,3.0625,-20.0625,0
63710,-5.3125,3.6875,-19.1875,0
63730,-8.25,4.5625,-20,0
63750,-11.25,6.625,-21.3125,0
63770,-10.4375,8.4375,-19.875,0
63790,-6.125,7.625,-18.5625,0
63810,-3.3125,4.9375,-19.625,0
63830,-5.9375,4.5,-19.25,0
63850,-7.9375,5.3125,-17.875,0
63870,-11.5625,5.125,-17.25,0
63890,-8.25,4,-17.1875,0
63910,-8.125,4.375,-15.5625,0
63930,-10.75,4.1875,-15.4375,0
63950,-13.0625,4.625,-13.6875,0
63970,-8.625,5.4375,-11.6875,0
63990,-4.5625,7.5625,-11.4375,0
64010,-10,8.125,-12,0
64030,-11,7.9375,-12.75,0
64050,-6,8.4375,-11.4375,0
64070,-4,8.125,-10.4375,0
64090,-7.5625,7.5625,-11.0625,0
64110,-7.5625,8.6875,-9.75,0
64130,-8.1875,9.1875,-9.3125,0
64150,-6.4375,9.75,-10.3125,0
64170,-10.9375,9.1875,-10.0625,0
64190,-8.3125,10.5,-10.125,0
64210,-1.3125,12.4375,-8.625,0
64230,-4.375,10.3125,-10.0625,0
64250,-6.8125,11.25,-10.125,0
64270,-6.25,13.4375,-7.6875,0
64290,-4.3125,13.1875,-8.375,0
64310,-2,11.9375,-7.375,0
64330,-3.0625,13.125,-6.1875,0
64350,-5.875,14.1875,-7.875,0
64370,-7.125,15.25,-7.25,0
64390,-4.875,14.625,-6.1875,0
64410,-3.1875,14,-6.3125,0
64430,-3.5625,13.4375,-6,0
64450,-5.0625,14.125,-6.3125,0
64470,-5.75,15.125,-6,0
64490,-7.8125,14,-5.6875,0
64510,-6.25,13.875,-6,0
64530,-1.375,12.625,-4.6875,0
64550,-0.75,10.1875,-5.3125,0
64570,-5.8125,11.3125,-5.5625,0
64590,-9,13.3125,-3.5625,0
64610,-8.5625,14.875,-3.3125,0
64630,-13.3125,14.625,-1.875,0
64650,-10.5,15.5625,0.75,0
64670,-4,15.1875,1.4375,0
64690,-0.8125,14.6875,0.625,0
64710,-3.875,15.75,0.0625,0
64730,-12.8125,19.6875,1.1875,0
64750,-14.1875,21.0625,2,0
64770,-6.4375,17.9375,1.5,0
64790,2.3125,15,1.6875,0
64810,4.5,14.625,-0.8125,0
64830,-4.4375,17.8125,-1.8125,0
64850,-11.5625,18.6875,0.125,0
64870,-6.625,17,-0.625,0
64890,1.1875,15.1875,-0.75,0
64910,3.5,13.25,-2.375,0
64930,-4.0625,15.1875,-2,0
64950,-7.3125,16.6875,0.0625,0
64970,-8.3125,17.6875,-0.75,0
64990,-6.6875,16.3125,-0.8125,0
65010,-8.375,15.25,0.0625,0
65030,-6.5,15.75,0.3125,0
65050,-3.875,16.5,1.4375,0
65070,-10.125,15.9375,3.125,0
65090,-10.75,16.75,4.625,0
65110,-6.5625,15.8125,5,0
65130,-5.8125,14.5,4.9375,0
65150,-10.3125,13.6875,6.5,0
65170,-9,14.375,7.625,0
65190,-7.4375,14.375,7.375,0
65210,-7.9375,12.6875,7.0625,0
65220,-6,12.9375,7.0625,0
65240,-6.25,14.375,6.8125,0
65260,-5.5,13.75,3.125,0
65280,-7.0625,14.625,2.625,0
65300,-9.75,15.1875,2.8125,0
65320,-11.5625,13.4375,4.1875,0
65340,-7.3125,11.625,7.3125,0
65360,1,12.125,7.375,0
65380,-5,12.8125,7.9375,0
65400,-14.5,14.0625,7.625,0
65420,-12.375,16,7.4375,0
65440,-9.5,15.75,8.5,0
65460,-6.8125,12.9375,9.5,0
65480,-2.375,13,10.625,0
65500,-1.125,13.375,11.125,0
65520,-7.625,12.875,11.625,0
65540,-12.25,12.9375,12.625,0
65560,-11.3125,12.75,11.9375,0
65580,-9.125,9.4375,11.1875,0
65600,-6.0625,8.875,10.5,0
65620,-4.625,8.5625,9.4375,0
65640,-10.125,7.875,9.875,0
65660,-14.125,6.6875,11.25,0
65680,-10.8125,6.875,11.75,0
65700,-9.4375,5,12.875,0
65720,-5.5625,4.8125,12.25,0
65740,-8.75,3.9375,13.25,0
65760,-8.8125,3.1875,13.0625,0
65780,-10.5625,1,14.25,0
65800,-8.0625,0,14.5625,0
65820,-5.375,-1.375,14.5,0
65840,-8.4375,-2.5,13.3125,0
65860,-9.75,-2.625,13.5625,0
65880,-8.4375,-2.25,13.8125,0
65900,-10.3125,-2.9375,16.0625,0
65920,-17.1875,-3.9375,18.875,0
65940,-11.5625,-3.1875,18.6875,0
65960,-4.125,-3.9375,17.9375,0
65980,-5.4375,-5.8125,15.8125,0
66000,-4.4375,-5.5625,13.25,0
66020,-1.4375,-4.9375,11.375,0
66040,-0.0625,-6.375,10.375,0
66060,0.0625,-8,10.4375,0
66080,1.8125,-8.625,10.4375,0
66100,0.75,-7.75,10.1875,0
66120,0.9375,-7.125,9.3125,0
66140,2.0625,-7.1875,8.125,0
66160,7.8125,-7.5,7.6875,0
66180,12.875,-7.5625,6.9375,0
66200,10.5,-7.25,6.6875,0
66220,6.375,-5.4375,8.25,0
66240,0.375,-4.8125,9.5625,0
66260,2.1875,-5.5,12,0
66280,4.25,-5.375,12.25,0
66300,5.375,-4.6875,12.625,0
66320,-2.5,-3.875,13.8125,0
66340,-6.0625,-2.75,14.25,0
66360,-3.125,-2.6875,15.3125,0
66380,-1.4375,-3.8125,16,0
66400,-3.125,-3,15.75,0
66420,-1.8125,-1.8125,15.3125,0
66440,-0.9375,-2.4375,15.0625,0
66460,-4.9375,-3.0625,15.6875,0
66480,-3.25,-2.5625,14.875,0
66500,-0.625,-3.25,13.625,0
66520,-0.125,-4.5,12.3125,0
66540,-0.25,-5.4375,12.3125,0
66560,-0.5625,-6.3125,12.25,0
66580,0.25,-6.5625,12.125,0
66600,0.5,-8,11.9375,0
66620,0.3125,-8.9375,11.5,0
66640,-0.6875,-9.3125,12.0625,0
66660,-0.875,-9.5625,11.6875,0
66680,-2.9375,-9.75,12.125,0
66700,-2.875,-9.5,12.25,0
66720,-1.6875,-10.5,12.25,0
66740,-0.4375,-11.125,12.375,0
66760,-2.375,-11.3125,12.3125,0
66780,-2.3125,-10.875,12.25,0
66800,1.8125,-11.6875,12.125,0
66820,7,-12.9375,9.875,0
66840,4.75,-13.6875,9.6875,0
66860,-2.4375,-13.5625,10.125,0
66880,-1.1875,-13.625,11.0625,0
66900,2,-15.0625,11.6875,0
66920,-0.5,-15.75,12,0
66940,-6.625,-14.8125,12.9375,0
66960,-9,-14.125,13.375,0
66980,-6.875,-16.5625,13.1875,0
67000,-4.6875,-17.75,13.1875,0
67020,-2.0625,-17.625,12.3125,0
67040,-0.75,-19.75,10.0625,0
67060,-4.625,-20.25,9.625,0
67080,-5.0625,-18,9.25,0
67100,-4.75,-18,7.75,0
67120,-6.9375,-19,7.75,0
67140,-4.8125,-18.25,8.125,0
67160,-2,-18.375,8.0625,0
67180,-0.1875,-18.9375,7.5,0
67200,0.3125,-18.875,6.375,0
67220,0.6875,-19.5625,4.875,0
67240,1.8125,-19.5,3.4375,0
67260,3.375,-18.5625,3.5625,0
67280,3.1875,-17.875,3.75,0
67300,2.625,-17.375,3.25,0
67320,0.8125,-17.8125,4.6875,0
67340,3.5625,-17.5625,4,0
67360,5.625,-17.875,4.625,0
67380,4.3125,-19.6875,3.3125,0
67400,2.125,-20.25,3.875,0
67420,3.75,-19.8125,3.5625,0
67440,4,-20.75,3.3125,0
67460,0.125,-22.4375,4.8125,0
67480,-1.4375,-22.625,6.3125,0
67500,-2.5,-19.5625,7.25,0
67520,-4.9375,-18.4375,6.1875,0
67540,-3.75,-19.1875,3.4375,0
67560,1.8125,-20.8125,2.3125,0
67580,8.75,-21.875,1.0625,0
67600,6.9375,-21.125,0.25,0
67620,3.625,-20.4375,-1.25,0
67640,-1,-21.125,-1.3125,0
67660,-1.1875,-21.375,-0.9375,0
67680,5.6875,-21.25,-0.8125,0
67700,6.1875,-21.4375,-2.25,0
67720,1.5,-21.625,-2.4375,0
67740,1.8125,-21.875,-1.625,0
67760,5.1875,-22.375,-0.5,0
67780,5.3125,-23.0625,1.125,0
67800,1.8125,-23.75,1.625,0
67820,0.75,-22,0.5625,0
67840,0.75,-20.875,-0.3125,0
67860,0.625,-22.5,-0.375,0
67880,4.75,-23.5625,-0.375,0
67900,7.3125,-21.8125,-1.75,0
67920,6,-20.1875,-2.75,0
67940,0.5,-19.875,-3.5,0
67960,2.3125,-20.3125,-3.75,0
67980,5,-21.8125,-4.25,0
68000,6.4375,-22.1875,-4.75,0
68020,6.4375,-20.0625,-5.8125,0
68040,4.0625,-18.4375,-7.1875,0
68060,4.5,-17.875,-8.5625,0
68080,5.3125,-18.4375,-9.0625,0
68100,8.75,-19.875,-8.875,0
68120,9.4375,-19.9375,-8.5625,0
68140,10.6875,-18.1875,-10.4375,0
68160,6.5625,-17,-12.1875,0
68180,2.0625,-17.125,-11.6875,0
68200,0.25,-16.1875,-10.75,0
68220,5.125,-15.6875,-11.125,0
68240,7.375,-14.4375,-11.1875,0
68260,6.625,-15.125,-12.4375,0
68280,4.6875,-14.6875,-13.875,0
68300,5.25,-12.625,-14.3125,0
68320,3.375,-12.0625,-12.4375,0
68340,3.8125,-12.875,-12.8125,0
68360,5.0625,-14.125,-13.625,0
68380,6.9375,-13.375,-14.4375,0
68400,3.9375,-11.875,-14.375,0
68420,0.375,-11,-14.0625,0
68440,1.3125,-10.8125,-14.75,0
68460,5.1875,-9.875,-14.4375,0
68480,5.8125,-9.375,-15.25,0
68500,3.625,-8.375,-15.375,0
68520,4.0625,-7.375,-15.0625,0
68540,4.3125,-5.5,-15.5625,0
68560,0.375,-4.1875,-15.3125,2001
68580,-3.375,-3.375,-14.25,0
68600,0.9375,-2.1875,-12.6875,0
68620,5.6875,-3.0625,-12.1875,0
68630,5.5,-3.1875,-13.375,0
68650,-0.875,-2.5,-15,0
68670,-5.6875,-0.9375,-13.8125,0
68690,-5.8125,-0.3125,-11.3125,0
68710,0.625,-1.375,-9.6875,0
68730,3.125,0.0625,-7.9375,0
68750,-0.9375,2.375,-6.9375,0
68770,-5.5625,9.25,-6.3125,0
68790,-4.625,11.9375,-4.9375,0
68810,-3,9,-2.25,0
68830,3.1875,4.6875,-0.6875,0
68850,2.1875,2.375,1.1875,0
68870,-1.625,4.375,2.4375,0
68890,-6.0625,7,4.0625,0
68910,-3.5625,9.3125,4.8125,0
68930,-3.1875,10.9375,4.625,0
68950,-6.5,14.0625,5.1875,0
68970,-11.375,18.875,7,0
68990,-7.25,23.0625,5.75,0
69010,-1.1875,21.0625,4.75,0
69030,4.625,22.8125,11.875,0
69050,5.625,28.3125,18.125,0
69070,-6.375,35.875,22.4375,0
69090,-14.9375,39.625,27.5625,0
69110,-16.9375,42.125,32.3125,0
69130,-7.6875,43.8125,36.5625,0
69150,2.0625,43.625,40.625,0
69170,-4.125,41.8125,45,0
69190,-9.5,43.0625,44.5,0
69210,2.875,49.6875,43.375,0
69230,8.4375,49.6875,46.25,0
69250,-1.8125,46.125,50.75,0
69270,-0.4375,49.1875,52.5,0
69290,11.0625,55.9375,52.1875,0
69310,29.5,60.75,49.5,0
69330,35.0625,60.5,41.75,0
69350,29.6875,54.1875,35.8125,0
69370,22.6875,51.5,37.3125,0
69390,39.9375,51.4375,36.3125,0
69410,40.875,52.375,29.875,0
69430,42.0625,50.8125,28.0625,0
69450,36.875,47.5625,27.1875,0
69470,33.0625,43.75,24.3125,0
69490,31.75,39.3125,23.5625,0
69510,32.625,37.375,20.8125,0
69530,44.0625,36.9375,16.125,0
69550,44.5625,30.0625,15.6875,0
69570,35.1875,23.5625,19.625,0
69590,37.0625,21.5625,15.5625,0
69610,41.625,24.375,12.25,0
69630,31,23.5625,15.3125,0
69650,13.9375,18.0625,17.875,0
69670,14.75,14.4375,15.5625,0
69690,20.625,12.3125,11.4375,0
69710,10.9375,6.375,10.3125,0
69730,8.75,4.6875,7.4375,0
69750,9.6875,4.5,3.75,0
69770,7.0625,1.0625,1.625,0
69790,5.1875,-1.5,2.6875,0
69810,6.6875,-3.0625,0.875,0
69830,8.3125,-0.25,1.5,0
69850,-1,2.0625,-0.0625,0
69870,-4.375,1.6875,-2.5,0
69890,-1.75,1.75,-0.375,0
69910,0.375,0.375,1.5625,0
69930,2.9375,-1.25,1.3125,0
69950,2.125,-0.5625,-1.375,0
69970,0.375,0.3125,-1.375,0
69990,-3.125,1.125,0.375,0
70010,-1.3125,2.6875,2.5,0
70030,-4.25,6.4375,1.8125,0
70050,-6.6875,6.8125,2.9375,0
70070,-6.375,5.5625,3.5625,0
70090,-3.75,3.5,4.875,0
70110,1.125,2.6875,7.6875,0
70130,-1.5625,3.75,6.875,0
70150,-4.9375,3.9375,2.8125,0
70170,-9.25,1.875,5.125,0
70190,-11.375,-0.3125,5.875,2000
70210,-6.4375,0.6875,1.8125,0
70230,2.625,-0.75,-1.5625,0
70250,0.4375,-1.75,-0.4375,0
70270,2,-1.8125,1.9375,0
70290,5.125,-0.625,-0.25,0
70310,3.9375,-0.0625,-0.625,0
70330,0.1875,0,1.5625,0
70350,-2.25,-0.875,4.625,0
70370,-0.1875,0.6875,3.75,0
70390,0.625,1.375,2.25,0
70410,-1.25,0,1.8125,0
70430,-1.6875,-0.125,2.8125,0
70450,1.625,-0.25,1.875,0
70470,3.25,-0.8125,1.5,0
70490,1,-1.0625,0.9375,0
70510,-2.1875,-1.3125,0,0
70530,-2.5,-1.875,1.3125,0
70550,-0.0625,-2.875,0,0
70570,2.125,-3.625,-1.625,0
70590,-1.3125,-3.8125,-2.625,0
70600,-2.625,-3.625,-2.1875,0
70620,-1.1875,-3.1875,-0.9375,0
70640,0,-2.25,-1.125,0
70660,-1.125,-0.875,-0.75,0
70680,-3.75,-0.9375,-0.625,0
70700,-4.875,-1.5,0.25,0
70720,-2.6875,-1.75,0.125,0
70740,-0.375,-1.5,-1.375,0
70760,-2.875,-1.3125,-0.75,0
70780,-5.9375,-0.375,-0.3125,0
70800,-2.3125,0.625,0.25,0
70820,-1.1875,0.5,-1.375,0
70840,-3.375,-1.375,-2.8125,0
70860,-1.3125,-2.5625,-1.875,0
70880,1,-1.125,-2,0
70900,1.875,-1.1875,-2.625,0
70920,-1.75,-0.125,-0.6875,0
70940,-1.6875,-2.125,-0.25,0
70960,-2,-2.5,-4.3125,0
70980,-5.875,-3.3125,-4.4375,0
71000,-6.125,-2.25,1.875,0
71020,2,-2.5625,1.375,0
71040,1.8125,-2.9375,0.625,0
71060,-3.25,-2.5625,-0.75,0
71080,-4.3125,-3.5,-3.375,0
71100,-3.5,-3.0625,-1.9375,0
71120,-0.625,-3.625,-0.5625,0
71140,2.5,-3.1875,-1.8125,0
71160,3.1875,-3.25,-2.3125,0
71180,2.4375,-3.1875,-0.9375,0
71200,1.75,-2.5,1.125,0
71220,3.1875,-2.4375,-0.1875,0
71240,2.9375,-3.4375,-0.625,0
71260,1.8125,-3.375,-0.3125,0
71280,1.0625,-3.4375,0.4375,0
71300,5.125,-3.875,-0.625,0
71320,6.375,-3.8125,-0.75,0
71340,6.125,-4.5625,-1.4375,0
71360,2.9375,-5.75,-2,0
71380,1.6875,-5.3125,-2.375,0
71400,3.375,-5.3125,-3.1875,0
71420,5.3125,-5.8125,-3.0625,0
71440,5.6875,-6.8125,-2.875,0
71460,5.5625,-7.9375,-2.0625,0
71480,7.125,-7.25,-2.9375,0
71500,6.5625,-6.5,-4.75,0
71520,6.4375,-6.5,-3.6875,0
71540,4.25,-7.625,-0.75,0
71560,6.875,-9,-0.75,0
71580,9.6875,-8.625,-2,0
71600,8.4375,-7.8125,-3.125,0
71620,4.375,-8,-1.8125,0
71640,6.6875,-8.8125,-0.8125,0
71660,9.9375,-9.25,-1.9375,0
71680,9.625,-8.875,-2.6875,0
71700,7.9375,-9.0625,-2.0625,0
71720,7.0625,-8.625,-3.0625,0
71740,7.1875,-7.75,-4.3125,0
71760,5.75,-7.5625,-3.25,0
71780,5,-8.3125,-2,0
71800,6.625,-7.875,-0.5,0
71820,7.9375,-8.4375,-2.3125,0
71840,5.4375,-8.9375,-2.8125,0
71860,5.9375,-7.75,-3.25,0
71880,5.3125,-7.3125,-3.375,0
71900,6.3125,-7.5,-2.875,0
71920,8.3125,-7.6875,-2.875,0
71940,8.1875,-7.5,-2.3125,0
71960,8.5,-7.875,-2,0
71980,6.5625,-6.75,-3.5,0
72000,6.375,-6.3125,-3.5,0
72020,5.9375,-6.25,-2.3125,0
72040,5.8125,-6.8125,-1.125,0
72060,6.8125,-4.9375,-1.75,0
72080,5,-1.75,-0.5625,0
72100,3.875,-0.25,1.9375,0
72120,5.4375,1.6875,3.375,0
72140,5.4375,1.8125,2,0
72160,3.5625,2.8125,0.25,0
72180,3.5625,1.125,-0.625,0
72200,4.3125,-1.3125,-1.6875,0
72220,4.1875,-3.125,-2.625,0
72240,3.625,-2.75,-4.3125,0
72260,2.75,-2.5625,-6.8125,0
72280,1.1875,-4.375,-7.4375,0
72300,2.0625,-6.1875,-8.5625,0
72320,0.625,-5.75,-10.0625,0
72340,-0.8125,-5.375,-11.4375,0
72360,0.3125,-5.4375,-13.375,0
72380,-0.3125,-5.8125,-14.5625,0
72400,-1,-5.4375,-15.375,0
72420,0.375,-4.9375,-16.6875,0
72440,-0.3125,-4.75,-16.5,0
72460,-1.6875,-4.0625,-15.6875,0
72480,-2.4375,-3.875,-15.9375,0
72500,-3.0625,-3.5625,-16.375,0
72520,-5.0625,-3.625,-16,0
72540,-4.4375,-2.5625,-16.375,0
72560,-4,-2.625,-15.9375,0
72580,-2.25,-2.4375,-16.4375,0
72600,-2.5,-1.3125,-16.9375,0
72620,-2.375,-0.1875,-17.3125,0
72640,-1.1875,1,-15.375,0
72660,-0.5,1.875,-14.1875,0
72680,-1.75,3.25,-13.0625,0
72700,-4,3.625,-11.1875,0
72720,-4.875,4.3125,-10.75,0
72740,-6,6.125,-11.6875,0
72760,-7,6.5625,-12.8125,0
72780,-6.8125,6.25,-13.9375,0
72800,-7.8125,6.625,-15.1875,0
72820,-8.1875,6.625,-16.1875,0
72840,-6.25,5.3125,-16.9375,0
72860,-6.6875,4.125,-17.375,0
72880,-6.3125,3.625,-18,0
72900,-6.6875,4.75,-19.4375,0
72920,-7.25,5.0625,-19.4375,0
72940,-7,4.25,-20.4375,0
72960,-6.375,3.9375,-20.6875,0
72980,-5.125,3.375,-21.125,0
73000,-5.5625,4.6875,-21.625,0
73020,-5.875,5.625,-21.375,0
73040,-4.0625,6.4375,-22.4375,0
73060,-3.75,6.375,-21.875,0
73080,-4.875,6.6875,-22.875,0
73100,-4.25,6.5625,-23.8125,0
73120,-3.75,6.5625,-23.125,0
73140,-3.875,7.25,-23,0
73160,-7.125,8.75,-22.25,0
73180,-6.3125,9,-21.5625,0
73200,-5.6875,8.875,-21.25,0
73220,-5.625,8.9375,-23.625,0
73240,-7,9.1875,-23.875,0
73260,-9,8.3125,-22.5625,0
73280,-8.3125,8,-22.125,0
73300,-8.5625,9.5,-21.875,0
73320,-8.5,9.75,-22.4375,0
73340,-8.875,10.0625,-21.75,0
73360,-11.25,10.875,-22.25,0
73380,-11,11.8125,-24.25,0
73400,-11.125,11.9375,-26.4375,0
73420,-9.1875,11.3125,-28.75,0
73440,-5.625,9.125,-29.125,0
73460,-4.375,7,-30,0
73480,-4.375,7.75,-30.5625,0
73500,-6.625,10.25,-30.875,0
73520,-9.1875,11.9375,-30.5625,0
73540,-8.4375,12.125,-31.0625,0
73560,-4.5,12.1875,-29.3125,0
73580,-4.4375,11.75,-27.0625,0
73600,-5.4375,12.1875,-26.5625,0
73620,-6.1875,12.5,-25.75,0
73640,-3.8125,12.4375,-24.5625,0
73660,-2.5625,12.0625,-21.375,0
73680,-2.8125,11.8125,-19.75,0
73700,-2.0625,11.3125,-19.625,0
73720,-1.4375,11.1875,-18.75,0
73740,-2.8125,13.0625,-18.25,0
73760,-2.5,13.875,-18.0625,0
73780,-1.375,11.875,-16.625,0
73800,0.8125,11.1875,-15.3125,0
73820,0.4375,11.125,-16.5625,0
73840,-2.6875,10.75,-17.9375,0
73860,-2.9375,11.75,-17.375,0
73880,-1.5,12.8125,-16.375,0
73900,-0.25,13.0625,-16.1875,0
73920,-2.375,11.1875,-17,0
73940,-2.3125,9.3125,-17.1875,0
73960,0.0625,8,-15.875,0
73980,0.9375,8.125,-16.6875,0
74000,-0.4375,8.9375,-17.5,0
74020,-3.5625,10.5,-14.8125,0
74030,-1.6875,8.6875,-12.25,0
74050,0.875,7,-10.5625,0
74070,1.75,10.125,-11,0
74090,-2.25,13.8125,-10.3125,0
74110,-7,13.875,-9.1875,0
74130,-2.625,11.6875,-6.0625,0
74150,4.375,11.25,-5.125,0
74170,6.875,11.625,-4.25,0
74190,2.6875,11,-4.8125,0
74210,1.25,10.8125,-3.6875,0
74230,0.0625,11.1875,-2.125,0
74250,0.0625,13.0625,-1.625,0
74270,-0.0625,11.3125,0.5,0
74290,1.4375,10.875,2.4375,0
74310,4.0625,10.5625,2.6875,0
74330,4.25,12.6875,2,0
74350,3.8125,13.4375,2.5,0
74370,-0.3125,11.9375,3.75,0
74390,-0.625,10.8125,3.0625,0
74410,1.5625,11.75,1,0
74430,1.8125,9.6875,1.75,0
74450,1.9375,6.375,1.125,0
74470,4.9375,8.875,0.5625,0
74490,7.875,10.875,-0.375,0
74510,4.4375,10.0625,0.25,0
74530,3.5625,8.5,-0.0625,0
74550,2.75,5,-0.4375,0
74570,4.0625,5,0.75,0
74590,2,4,-1.375,0
74610,3.6875,3.75,-0.8125,0
74630,1.5,3.9375,2,0
74650,-0.8125,5.125,2.625,0
74670,-5,7.6875,2.875,0
74690,-3.4375,7.375,5.4375,0
74710,-1.3125,6,7.25,0
74730,-1.625,7.75,7.8125,0
74750,-6.5,10,7.25,0
74770,-8.0625,11.4375,6.6875,0
74790,-6,11.25,5.6875,0
74810,-3.5,9.125,5.375,0
74830,4,6.5625,4.3125,0
74850,6.875,6.75,1.875,0
74870,4.25,8.5,0.0625,0
74890,-2.5,9.5625,0.875,0
74910,0.3125,9.5,3.25,0
74930,5.8125,7.125,3.5,0
74950,3.5625,5.625,4.8125,0
74970,1.125,7.4375,5,0
74990,-0.8125,8.5625,5.25,0
75010,-2.875,9.125,4.25,0
75030,-4.0625,8.625,3.4375,0
75050,-4.8125,7,4,0
75070,-2.0625,5,4.125,0
75090,1.3125,4.625,3.25,0
75110,2.25,7.6875,2,0
75130,-0.125,9.75,4.9375,0
75150,-3.75,8.125,6.5625,0
75170,3.6875,9.1875,7.4375,0
75190,7.875,9.9375,9.8125,0
75210,3.25,9.3125,9.25,0
75230,-0.4375,8.9375,10.125,0
75250,-1.5625,9,10.6875,0
75270,0.625,7.3125,12.3125,0
75290,-0.9375,5.4375,13.625,0
75310,-0.5,3.625,13.5,0
75330,0.625,4.8125,12.6875,0
75350,2.75,6.125,11.5,0
75370,2.125,6,10.625,0
75390,2.75,6.125,10.1875,0
75410,3.5,7.375,10.75,0
75430,3.5625,9,11.4375,0
75450,2.9375,10.5625,12.4375,0
75470,4.4375,10.5,13.5625,0
75490,6.25,9.75,14.5,0
75510,6,10.3125,14.4375,0
75530,6.3125,11.4375,12.8125,0
75550,11.625,8.8125,9.875,0
75570,15.9375,6.875,7.5,0
75590,13.125,5.5625,9.25,0
75610,4.5,3.4375,10.375,0
75630,0.5625,4.625,13.9375,0
75650,5.8125,7.125,16.875,0
75670,10.625,5.25,17.8125,0
75690,11.0625,2.1875,18.875,0
75710,9.0625,-2,17.75,0
75730,6.3125,-4.625,15.9375,0
75750,5.5625,-3.5625,14.4375,0
75770,5.125,-2.1875,13.125,0
75790,5.3125,-2.0625,14.0625,0
75810,6.6875,-3.4375,15.8125,0
75830,7.625,-4.125,17,0
75850,3.6875,-1.3125,16.25,0
75870,-0.5625,-0.875,14.6875,0
75890,0.0625,-1.5625,13,0
75910,4,-2.3125,12.0625,0
75930,4.5,-2.8125,12.25,0
75950,1.4375,-3.5,11.1875,0
75970,2.375,-2.5,8.8125,0
75980,4.75,-2,6.5,0
76000,5.4375,-2.5,5.125,0
76020,4.9375,-3.5625,5.625,0
76040,4.0625,-3.5,4.9375,0
76060,4.6875,-3.75,5.75,0
76080,3.1875,-3.875,6.5,0
76100,2.375,-2.375,8.5625,0
76120,1.6875,-1.9375,10.625,0
76140,2.5625,-2.6875,11.875,0
76160,2.1875,-2.75,14.125,0
76180,1.5625,-3.25,16.125,0
76200,1.4375,-3.5,17.375,0
76220,2.75,-3.1875,17.625,0
76240,-0.25,-2.375,18.125,0
76260,1.5625,-2.6875,17.9375,0
76280,1.5625,-4.0625,18.1875,0
76300,3.5625,-4.5625,18.125,0
76320,2.9375,-4.5625,20.0625,0
76340,2.875,-5.3125,22.0625,0
76360,-0.0625,-5.5,22.1875,0
76380,0.5625,-2.75,25.4375,0
76400,-2.75,-1.25,28.8125,0
76420,-0.5,-2.1875,29.3125,0
76440,4.4375,-2.75,28.25,0
76460,5.25,-3.3125,25.8125,0
76480,3.25,-4.4375,25,0
76500,2.75,-5.9375,24.0625,0
76520,5.6875,-6.5,23.4375,0
76540,8.125,-6,23.5625,0
76560,5.5,-7.4375,23.4375,0
76580,5.9375,-9.0625,23.9375,0
76600,6.75,-10.75,23.5625,0
76620,4.875,-11.75,25,0
76640,1.375,-11.9375,25.6875,0
76660,1.3125,-13.125,25.9375,0
76680,1.75,-14.875,26.25,0
76700,4.3125,-15.125,26.5625,0
76720,2.1875,-15.3125,27.25,0
76740,0.375,-14.4375,26,0
76760,-0.4375,-14.5,25.9375,0
76780,-1.1875,-14.8125,26.9375,0
76800,0.3125,-16.4375,26.9375,0
76820,4.4375,-17.4375,26.6875,0
76840,6.25,-18.375,25.75,0
76860,2,-18.5625,23.25,0
76880,-1.0625,-18.625,22.5625,0
76900,2.5625,-20.4375,22,0
76920,5.25,-20.9375,22.25,0
76940,2.4375,-20.25,22.375,0
76960,-1.375,-20.75,22.375,0
76980,-1.6875,-20.625,21.6875,0
77000,-1,-18.5,20.25,0
77020,-0.4375,-17.6875,18.875,0
77040,2.8125,-17.8125,16.9375,0
77060,5.8125,-16.6875,18,0
77080,4.3125,-14.8125,17.125,0
77100,1.25,-12.9375,16.875,0
77120,4,-14,17.625,0
77140,6.625,-14.9375,15.875,0
77160,5.1875,-13.5,17.375,0
77180,3.625,-13.4375,19.8125,0
77200,1.4375,-14.3125,19.125,0
77220,1.6875,-14.125,17.3125,0
77240,2.5,-14.375,18.4375,0
77260,2.8125,-14.8125,20.5,0
77280,1.3125,-17.375,20.3125,0
77300,2.25,-17.125,18.9375,0
77320,2.3125,-16.25,19.1875,0
77340,2.3125,-15.9375,20.0625,0
77360,0.6875,-17.125,20.125,0
77380,1.75,-18.5625,18.1875,0
77400,3.6875,-17.9375,17.1875,0
77420,4.875,-16.375,18.0625,0
77440,1.8125,-15.8125,17.125,0
77460,1.4375,-15.375,12.5,0
77480,0.6875,-14.8125,8.625,0
77500,2.4375,-13.6875,8.125,0
77520,2.5,-13.4375,9.1875,0
77540,3.3125,-13.25,6.9375,0
77560,3.5,-11.9375,6.375,0
77580,0.5,-11.6875,8.625,0
77600,-3.5,-12.375,9.1875,0
77620,-3.125,-13.8125,8,0
77640,-1.4375,-14.75,6.25,0
77660,-2.3125,-14.625,6.5625,0
77680,-3.75,-13.9375,7.8125,0
77700,-3.875,-13.75,7.625,0
77720,-2.5625,-13.125,6.0625,0
77740,-3.1875,-12.5,6.375,0
77760,-2.375,-13.375,7.25,0
77780,-1.0625,-14.1875,6.625,0
77800,-0.1875,-11.625,4.25,0
77820,0.875,-9.0625,5.6875,0
77840,0.0625,-9.0625,6.8125,0
77860,-2.0625,-9,6.125,0
77880,-1.9375,-8.4375,5.5625,0
77900,-0.5625,-9.0625,5.5625,0
77920,0.25,-8.9375,5.25,0
77940,-3,-8.875,4.125,0
77960,-3.25,-8.75,2.125,0
77980,0.625,-9.0625,1.5,0
78000,0.125,-10.75,1.6875,0
78020,-3.1875,-12.5,0.5625,0
78040,-3.5,-11.9375,-0.0625,0
78060,-3.375,-11.9375,-1.1875,0
78080,-5,-12.5,-1.4375,0
78100,-7,-12.5,-1.8125,0
78120,-8.5625,-9.5625,-3.3125,0
78140,-9.3125,-7.0625,-5,0
78160,-11.125,-6.375,-5.125,0
78180,-8.9375,-7.4375,-5.3125,0
78200,-9.0625,-8.8125,-7.625,0
78220,-8.4375,-8.375,-11.1875,0
78240,-10.0625,-6.6875,-13.125,0
78260,-12.5,-7.25,-14.9375,0
78280,-12.8125,-9,-15.8125,0
78300,-12.1875,-8.6875,-16.8125,0
78320,-11.4375,-8,-17.75,0
78340,-11.5625,-8.0625,-18.625,0
78360,-11.0625,-9.3125,-19.875,0
78380,-11.4375,-8.6875,-20.6875,0
78400,-14.9375,-8.9375,-23.6875,0
78420,-13.875,-9.9375,-22.25,0
78440,-11.0625,-10.375,-20.6875,0
78460,-10.25,-10.625,-21.875,0
78480,-13.5,-9.5,-23.5,0
78500,-14,-9.875,-24.125,0
78520,-12.25,-10.6875,-23.8125,0
78540,-11.75,-10.5625,-24.875,0
78560,-10.5,-10.6875,-25.875,0
78580,-11.25,-10.5,-25.375,0
78600,-12.25,-11.1875,-25.1875,0
78620,-13.0625,-10.125,-25.3125,0
78640,-14.5,-9.25,-24.5625,0
78660,-13.6875,-8.375,-24.4375,0
78680,-11.6875,-6.875,-24.5,0
78700,-10.875,-5.875,-24.0625,0
78720,-14.3125,-6.5,-24.0625,0
78740,-14.75,-4.75,-23.9375,0
78760,-11.75,-4.125,-24.3125,0
78780,-11.9375,-4.4375,-24.1875,0
78800,-13.125,-5.25,-25.375,0
78820,-12.5625,-4.5,-26.5625,0
78840,-11.875,-4.3125,-27.375,0
78860,-11.5,-3.875,-28.25,0
78880,-15.0625,-3.375,-28.75,0
78900,-14.8125,-3.8125,-29.4375,0
78920,-13.4375,-4.3125,-30,0
78940,-12.1875,-4.4375,-30.6875,0
78960,-13.6875,-4.25,-30.25,0
78980,-14.3125,-3.625,-30.4375,0
79000,-13.9375,-2.9375,-32.0625,0
79020,-13.375,-3.0625,-33,0
79040,-13,-2.5,-33.6875,0
79060,-12,-1.875,-34.8125,0
79080,-10.1875,-2,-35.375,0
79100,-9,-2,-33.8125,0
79120,-9.3125,-3.0625,-31.6875,0
79140,-11.125,-1.875,-29.25,0
79160,-10.9375,0.375,-28.1875,0
79180,-11.625,1.375,-26.6875,0
79200,-10.75,1.25,-26.6875,0
79220,-9.1875,1.5,-26.1875,0
79240,-9,3,-25.125,0
79260,-10.75,3.8125,-25.0625,0
79280,-11.6875,4,-24.0625,0
79300,-9.875,3.625,-23.8125,0
79320,-8.5625,3.3125,-23.625,0
79340,-9,3.625,-23.1875,0
79360,-8.8125,4.1875,-24.25,0
79380,-7.75,3.8125,-25.4375,0
79400,-6.875,3.375,-25.625,0
79420,-8.1875,3.6875,-26.625,0
79430,-8.75,5.75,-27.6875,0
79450,-8.625,7.125,-26.3125,0
79470,-7.25,6.75,-25.5,0
79490,-6.375,6.4375,-24,0
79510,-8.0625,8.8125,-23.5625,0
79530,-9.25,10.9375,-22.6875,0
79550,-8.4375,11.8125,-22.375,0
79570,-7.8125,11.4375,-20.3125,0
79590,-8.375,11.4375,-19.25,0
79610,-9.125,11.6875,-19.125,0
79630,-9.1875,13.125,-17,0
79650,-9.6875,12.9375,-16.0625,0
79670,-9,14.4375,-17.5625,0
79690,-7.125,15.1875,-15.6875,0
79710,-5.3125,14.1875,-15.1875,0
79730,-5.25,13.9375,-16.0625,0
79750,-5.5,13.9375,-15,0
79770,-4.5,14.8125,-14.5,0
79790,-4.8125,16.8125,-15.125,0
79810,-4.9375,18.6875,-15.625,0
79830,-4.25,16.375,-15.125,0
79850,-1,11.8125,-13.8125,0
79870,2.3125,12.25,-13.375,0
79890,-1.3125,14.125,-12.1875,0
79910,-8.5625,15.6875,-13.25,0
79930,-10.9375,14.75,-10.875,0
79950,-5.25,13.75,-9.4375,0
79970,-1.125,12.5625,-10.1875,0
79990,-2.625,12.5625,-10.9375,0
80010,-1.25,12.25,-11.625,0
80030,-5.25,13.375,-11.4375,0
80050,-6.8125,13.0625,-11.875,0
80070,-4.6875,12.25,-10.9375,0
80090,-0.5,12.25,-8.25,0
80110,-3.0625,12.3125,-7.25,0
80130,-4.4375,11.4375,-8.4375,0
80150,-1.3125,10.375,-6.6875,0
80170,-4.125,10.8125,-4.5625,0
80190,-6.0625,12.9375,-6.375,0
80210,-3.625,11.25,-6.5,0
80230,-0.1875,9.4375,-5.125,0
80250,-2.75,8.5,-4.375,0
80270,-5.6875,8.8125,-4,0
80290,-1.375,9.625,-2.375,0
80310,0.3125,10.9375,-1.375,0
80330,-5.6875,10.5625,-0.875,0
80350,-5.75,7.8125,0,0
80370,0.375,6.5,2.6875,0
80390,-1.5,7.625,2.875,0
80410,-6,9.5,2,0
80430,-6.9375,9.5625,3.1875,0
80450,-4.9375,9.0625,4,0
80470,-3.1875,7.375,4.125,0
80490,-3.875,7.625,3.8125,0
80510,-0.0625,11.6875,3.875,0
80530,-4.6875,14.5625,4.25,0
80550,-9.625,10.3125,3.25,0
80570,-0.625,6.75,3.3125,0
80590,5.75,9.1875,4.4375,0
80610,1.9375,10.75,3.0625,0
80630,-1.5625,10.875,3.9375,0
80650,-0.1875,11,6.6875,0
80670,2.6875,10.9375,8.9375,0
80690,0.5625,10.4375,8.8125,0
80710,3.0625,10.625,12.4375,0
80730,2.625,9.5,15.6875,0
80770,-3.25,9.875,16.4375,0
80790,-1.75,11.6875,15.75,0
80810,0.5625,12.125,14.625,0
80830,2.5,9.6875,14.375,0
80850,3.625,9.25,14.5,0
80870,5.5,9.5625,14.125,0
80890,6.875,11.0625,14.5,0
80910,3.4375,9.9375,15.75,0
80930,1,7.75,15.4375,0
80950,5,6.25,16.9375,0
80970,9.375,5.4375,18,0
80990,5.875,4.0625,19.125,0
81010,5.0625,5.625,19.4375,0
81030,3.625,7.5625,19.8125,0
81050,1.0625,5.375,21.3125,0
81070,3.8125,1.375,22.3125,0
81090,10.125,0,23.125,0
81110,10.0625,0.0625,23.3125,0
81130,3,-0.1875,22.125,0
81150,3.3125,-0.25,20.1875,0
81170,6.75,-1.6875,20.125,0
81190,8.1875,-4.5625,21.1875,0
81210,11.5,-5.5625,22.3125,0
81230,10.8125,-5.4375,22.6875,0
81250,7.1875,-6.4375,22.9375,0
81270,9.9375,-7.75,23.625,0
81290,11.6875,-9.3125,23.5,0
81310,12,-10.125,24.125,0
81330,10.8125,-10.25,25.1875,0
81350,9.4375,-10.875,25.25,0
81370,9.5625,-11.6875,24.1875,0
81390,11.5,-12.5625,23.75,0
81400,11.0625,-12.5625,23.9375,0
81420,12,-13.5,24.125,0
81440,11.75,-14,25.8125,0
81460,8.625,-13.125,27.6875,0
81480,9.0625,-12.75,29.4375,0
81500,12.0625,-13.5625,30.875,0
81520,11.1875,-13.1875,32,0
81540,11.4375,-12.875,33.875,0
81560,9,-13.875,34.5,0
81580,10.625,-14.125,34.3125,0
81600,11.125,-15.25,34.125,0
81620,12,-15.5,34.8125,0
81640,8.1875,-16.9375,35,0
81660,10.1875,-16.375,33.6875,0
81680,11.5625,-16.125,34.25,0
81700,10.1875,-17,33.125,0
81720,10.9375,-17.0625,33,0
81740,9.5,-16.625,34,0
81760,8.25,-16.875,34.5625,0
81780,8.125,-17.8125,35,0
81800,7.75,-16.875,34.1875,0
81820,6.375,-16.25,33.125,0
81840,7.5,-16.625,32.3125,0
81860,11.8125,-16.75,31.5625,0
81880,11.0625,-16.125,29.3125,0
81900,9.0625,-17.1875,28.5625,0
81920,6.75,-18.25,28.25,0
81940,7.25,-16.875,29.3125,0
81960,6.0625,-16.0625,29.9375,0
81980,2.1875,-17.75,28.25,0
82000,5.8125,-17.375,28.125,0
82020,4.875,-17,28.625,0
82040,-1.5,-15.8125,27.4375,0
82060,-1,-15.625,28.8125,0
82080,0.25,-16.625,28.0625,0
82100,0.5625,-16.75,25.75,0
82120,-0.9375,-16.5625,24.625,0
82140,-1.1875,-14.625,24.875,0
82160,-3.625,-14.75,23.25,0
82180,-0.8125,-15.3125,19.1875,0
82200,2.5,-15.25,18.9375,0
82220,0.8125,-15.4375,18.1875,0
82240,-3,-15.8125,14.9375,0
82260,-1.5,-14.3125,14.9375,0
82280,0.0625,-15.1875,14.8125,0
82300,-3.1875,-15.625,12.875,0
82320,-4.625,-13.8125,12.1875,0
82340,-2.75,-11.9375,12.625,0
82360,-1.8125,-13,12,0
82380,-3.4375,-14.25,9.5625,0
82400,-2.875,-13.4375,7.875,0
82420,-0.125,-14.25,6.375,0
82440,-1.5,-15.1875,5.5,0
82460,-2.375,-16.25,4.5,0
82480,-1.75,-16.0625,3.625,0
82500,2.25,-17.875,3.125,0
82520,1.125,-19.3125,1.8125,0
82540,-0.1875,-16.875,2.1875,0
82560,1.25,-14.4375,3.5,0
82580,0.375,-14.125,4.5625,0
82600,-1.4375,-13.4375,4.4375,0
82620,0.25,-13.4375,4.75,0
82640,-0.125,-12.625,4.3125,0
82660,-1,-10.25,3.75,0
82680,-3.8125,-10.3125,3.9375,0
82700,-6.375,-11.3125,2.9375,0
82720,-5.4375,-11.125,1.0625,0
82740,0.875,-11.0625,-0.75,0
82760,1.4375,-12.9375,-0.125,0
82780,-6.5,-13.9375,-0.375,0
82800,-8.625,-12.0625,-0.25,0
82820,-7.375,-12.8125,1.3125,0
82840,-6,-16.1875,1.4375,0
82860,-7.375,-16.5,-0.6875,0
82880,-8.75,-14.125,-2.25,0
82900,-8.6875,-13.25,-3.4375,0
82920,-8.625,-14.5,-3.875,0
82940,-8.75,-14.75,-6.1875,0
82960,-5.3125,-14.125,-7.6875,0
82980,-5.875,-14.125,-6.9375,0
83000,-9.3125,-13.5625,-7.6875,0
83020,-10.8125,-12.3125,-7.6875,0
83040,-7.3125,-12.25,-7.625,0
83060,-8.125,-14.4375,-7.9375,0
83080,-10,-16.125,-9.25,0
83100,-10.9375,-13.5,-10.0625,0
83120,-9.625,-13.3125,-10.125,0
83140,-10.8125,-14.375,-10.125,0
83160,-12.8125,-15.1875,-11.5,0
83180,-11.375,-14.1875,-12.25,0
83200,-11.1875,-14.1875,-12,0
83220,-13.125,-16,-12.4375,0
83240,-14.6875,-16.3125,-12.6875,0
83260,-16.625,-15.125,-13.4375,0
83280,-14.3125,-14.3125,-13.125,0
83300,-14.6875,-13.9375,-13.3125,0
83320,-15.875,-13,-14,0
83340,-14.3125,-12.5625,-14.875,0
83360,-13.125,-13.1875,-16.375,0
83380,-12.625,-12.75,-16.8125,0
83400,-12.8125,-11.4375,-17.3125,0
83420,-13.3125,-9.625,-18.25,0
83440,-10.6875,-9,-18.4375,0
83460,-10.1875,-10.125,-18.0625,0
83480,-14.3125,-7.5,-18.75,0
83500,-15,-4.5,-19.0625,0
83520,-13.875,-3.875,-19.25,0
83540,-11.625,-5,-20.25,0
83560,-12.875,-3.9375,-21.8125,0
83580,-14.25,-1.4375,-22.75,0
83600,-15.0625,-1.0625,-23.0625,0
83620,-11.875,-2.625,-23.25,0
83640,-12.125,-2.625,-24,0
83660,-12.8125,-1.375,-23.625,0
83680,-12.125,-0.3125,-23.0625,0
83700,-11.9375,0.25,-22.6875,0
83720,-13.125,1,-22.1875,0
83740,-14.1875,0.875,-21.625,0
83760,-11,1.25,-21.625,0
83780,-9.125,2.125,-22.4375,0
83800,-13.625,2.25,-23,0
83820,-16,2.4375,-23.625,0
83840,-9.75,4.125,-24.1875,0
83860,-7.4375,4.125,-24.375,0
83880,-11.5625,3.9375,-24.625,0
83900,-13.875,4.625,-24.0625,0
83920,-10.4375,5.9375,-24.75,0
83940,-9.75,5.375,-25.0625,0
83960,-12.8125,4.9375,-26.4375,0
83980,-12,5.0625,-26.875,0
84000,-9.125,5,-26.875,0
84020,-11.75,5.375,-26.6875,0
84040,-12.4375,5.6875,-25.9375,0
84060,-11,6.125,-25.5625,0
84080,-10.5,6.875,-25.625,0
84100,-10,6.5625,-26.125,0
84120,-9.9375,6.5625,-26.1875,0
