Timestamp, Electrode 1, Electrode 2, Electrode 3, Electrode 4, Electrode 5, Electrode 6, Electrode 7, Electrode 8, Marker
0,-3,-1,0,-1,-3,-2,0,-1,0
5,-1,-1,-1,-3,-3,-2,0,-2,0
10,0,-1,-1,-1,-1,1,-3,-3,0
15,0,-2,0,0,-2,-2,0,-4,0
20,1,-1,-1,-1,0,3,1,-2,0
25,0,-4,-2,-2,-1,-1,-2,-3,0
30,-2,1,-1,0,-1,0,-1,0,0
35,0,-1,2,0,1,-1,2,-4,0
40,0,-1,-1,1,-1,-1,0,2,0
45,-2,0,-1,-3,1,1,2,0,0
50,-1,2,-1,-2,0,-2,-2,-3,0
55,-1,-2,-2,0,0,-1,0,-1,0
60,-2,-3,-1,0,-1,-2,-3,0,0
65,0,-1,-2,-2,-1,0,-1,0,0
70,-1,-5,2,-1,-2,-1,1,0,0
75,1,1,0,0,0,-2,-1,-1,0
80,-1,-1,-1,-2,-2,-3,-2,-1,0
85,-1,2,-4,-1,-3,3,3,-3,0
90,-2,-2,-1,-3,-1,-5,-3,-5,0
95,0,-3,-1,0,0,-1,-1,3,0
100,2,-1,-1,-1,0,-1,1,-3,0
105,0,-3,-3,-1,0,-2,-3,0,0
110,1,-1,0,-3,-1,0,-4,-4,0
115,0,0,0,0,-3,-2,-3,-1,0
120,-1,-2,0,-2,-1,-3,-5,-2,0
125,-3,2,2,0,0,-1,3,1,0
130,0,2,-2,-1,-1,-2,-2,1,0
135,-2,-2,-1,-2,0,-1,-4,-1,0
140,0,-2,-2,-3,0,-1,0,-3,0
145,0,-2,0,2,0,-1,0,-1,0
150,0,-1,-3,-1,0,-1,-2,1,0
155,1,-1,-2,-1,-3,0,-3,-1,0
160,0,-2,-2,-1,-3,-2,-5,2,0
165,0,-1,2,-2,1,-1,-1,-1,0
170,2,-3,0,1,2,2,1,-2,0
175,-2,-1,-1,-2,-2,-5,1,-2,0
180,0,1,-1,-1,-1,-1,-2,1,0
185,-3,-1,0,-1,-2,-2,-4,-3,0
190,1,-2,-1,-1,0,-3,-4,-1,0
195,0,-1,1,0,-1,-1,2,-1,0
200,-3,-1,-2,-2,-1,-2,-2,-4,0
205,0,-1,-2,1,-2,-1,-1,3,0
210,-2,-2,2,-1,-2,0,0,-2,0
215,-3,-2,-1,-1,-1,0,-3,4,0
220,0,-1,1,-2,-1,1,1,-1,0
225,-1,1,1,2,0,-4,-2,-1,0
230,1,0,1,4,0,-2,-2,0,0
235,-4,-3,-4,-8,-5,-1,-4,-2,0
240,0,1,1,3,2,-3,0,-4,0
245,1,-1,2,-3,2,2,2,-3,0
250,-2,-2,-2,-4,-6,-6,-2,-1,0
255,-2,-8,-10,-13,-12,-5,-3,-5,0
260,-3,-1,3,14,24,9,1,-1,0
265,1,2,-2,0,-18,-5,1,0,0
270,-3,2,5,2,8,2,-5,1,0
275,-1,-1,9,0,1,-1,1,-2,0
280,-1,-8,-24,-44,-50,-11,-2,-1,0
285,0,-4,0,28,29,6,1,-2,0
290,3,4,10,3,21,10,3,2,0
295,3,14,21,40,13,1,1,0,0
300,5,1,-32,-18,0,-4,1,0,0
305,-5,-5,-10,-27,-25,-8,-4,-4,0
310,-4,-11,-4,-4,-33,-4,-2,-2,0
315,-1,1,-3,5,43,6,-2,0,0
320,-1,12,11,11,-7,0,-1,0,0
325,-4,5,54,13,5,1,-1,1,0
330,3,-2,-63,-7,9,-4,-1,-3,0
335,-7,-12,0,-13,-23,-2,-5,-2,0
340,-4,-6,10,-5,4,-1,-2,4,0
345,0,0,-13,-22,-7,-5,-2,-6,0
350,-5,1,12,-20,-36,-8,-2,-1,0
355,-1,-1,-1,17,12,3,-1,-3,0
360,-2,2,4,16,21,3,0,-3,0
365,0,1,3,-1,9,2,-2,-1,0
370,0,-3,6,6,-5,-6,3,0,0
375,2,0,-16,-12,-11,0,-2,-1,0
380,-1,-5,11,14,12,4,0,-3,0
385,1,1,-4,10,5,-2,0,1,0
390,-3,-3,2,-20,-20,-5,-2,-1,0
395,-1,-7,-3,-10,-4,-1,0,4,0
400,0,4,6,23,14,1,-1,5,0
405,0,-5,-8,-14,1,3,2,3,0
410,-1,0,-4,0,-3,4,-2,-5,0
415,-2,-3,11,4,4,-1,-1,0,0
420,1,-5,-11,-20,-7,-4,-4,-5,0
425,-1,-3,-13,-20,-30,-6,0,-5,0
430,-3,-3,12,11,19,5,3,4,0
435,1,7,15,24,17,3,0,-4,0
440,-3,-12,-16,-4,-9,-3,-2,-11,0
445,-3,-6,-11,-18,-7,-4,-6,1,0
450,3,0,-21,20,5,1,2,-7,0
455,0,5,19,-1,19,4,-1,0,0
460,-1,-4,-9,-10,-15,-6,-1,-3,0
465,-6,-6,-1,-5,-13,-5,-5,-3,0
470,0,-7,-1,-10,-7,1,-3,0,0
475,0,3,-7,6,10,-4,-3,1,0
480,-2,5,16,14,4,2,-1,5,0
485,0,-5,-13,2,10,-1,-2,-5,0
490,-2,3,7,-2,-3,-2,0,-4,0
495,-1,-6,-8,-19,-18,-6,-5,3,0
500,-1,-4,0,-22,-10,-1,0,-1,0
505,2,2,4,25,15,4,2,8,0
510,-2,4,14,11,15,1,1,4,0
515,-1,-3,-13,-14,-22,-8,-2,-3,0
520,-5,-6,-1,-5,1,2,1,6,0
525,4,4,-9,6,4,-3,-1,-7,0
530,-4,-1,11,-3,-14,-17,-12,5,0
535,3,-2,-19,-8,-3,25,11,-7,0
540,1,6,8,6,10,-10,3,-5,0
545,-1,-3,2,1,3,1,-6,-2,0
550,-2,-4,-3,-2,-1,0,-2,0,0
555,-2,0,2,11,-3,-4,2,-4,0
560,4,6,17,-3,-3,0,-6,0,0
565,-3,-6,-16,-13,-15,-4,-5,7,0
570,3,6,9,11,17,4,-2,0,0
575,-3,-3,-1,-8,-6,-18,1,14,0
580,1,-5,-11,-10,-8,6,2,13,0
585,-3,-7,3,0,-4,-14,-11,-9,0
590,2,8,4,-3,3,4,0,-2,0
595,-4,1,-1,-2,-4,-5,-12,-7,0
600,-2,1,-5,1,5,5,0,-17,0
605,3,3,8,3,-2,8,3,-7,0
610,-6,-5,-6,-1,4,14,9,-7,0
615,4,0,0,-6,-2,-13,11,1,0
620,-5,-3,-5,4,-14,-22,-6,7,0
625,4,18,4,14,13,28,15,0,0
630,-5,11,-9,-17,-4,-2,-3,13,0
635,-9,-2,-12,-20,-18,12,-5,-1,0
640,5,-9,11,8,16,-11,0,1,0
645,-2,-20,-4,-3,0,-2,-6,-4,0
650,-2,-22,-1,-6,12,6,11,-1,0
655,-9,-32,-18,1,-25,3,-9,19,0
660,1,-3,2,19,4,-6,-3,3,0
665,-4,-31,-17,-26,-15,-7,-7,-1,0
670,-1,-23,-13,3,4,-13,-17,9,0
675,8,-80,14,5,-6,1,-13,-7,0
680,-8,-122,10,-9,-11,6,8,-13,0
685,-5,-67,16,19,12,3,14,18,0
690,-5,-49,-20,-11,-13,-7,6,-4,0
695,-14,52,-10,4,1,11,6,6,0
700,-27,66,-7,1,2,-9,-3,-1,0
705,40,119,3,-7,-9,-6,-13,2,0
710,-4,109,1,-4,-4,-14,-18,-3,0
715,4,68,6,-4,-2,-10,-5,-10,0
720,2,65,1,4,10,5,-2,3,0
725,-14,18,-9,-12,-11,11,4,-9,0
730,9,10,5,2,1,6,-13,4,0
735,-10,-3,-14,-16,-8,12,-1,4,0
740,16,8,-6,-8,2,-17,6,10,0
745,-1,-12,9,15,9,-2,12,-5,0
750,0,-25,-7,-7,-10,10,-5,-6,0
755,-11,8,3,2,15,8,13,-2,0
760,0,9,-6,-5,-8,11,-22,-7,0
765,-3,31,-5,7,3,-15,-8,4,0
770,10,42,-3,-5,-8,2,18,-4,0
775,-29,21,-4,-1,-4,-10,-6,-6,0
780,-2,6,-4,2,7,14,-5,-2,0
785,-10,-22,-10,-11,-19,-22,-2,-22,0
790,10,-8,10,11,6,5,-1,1,0
795,12,-17,-2,-3,-3,-29,-9,9,0
800,-19,-12,-2,1,0,14,3,5,0
805,-23,-16,5,10,17,11,-1,23,0
810,-47,-5,-5,-13,21,-28,-1,-10,0
815,-14,40,-2,5,54,2,-11,-9,0
820,-116,-2,12,7,16,2,-6,-7,0
825,-128,-53,12,12,9,-11,-27,-6,0
830,-95,-120,5,18,-30,3,-18,-81,0
835,106,-128,1,7,-28,1,-52,-101,0
840,127,-128,-29,-18,-33,-2,-65,-7,0
845,127,-70,1,-6,-1,13,6,41,0
850,54,-17,-1,8,-10,23,103,91,0
855,63,95,-7,14,-17,-37,127,93,0
860,65,89,1,13,-14,2,127,-1,0
865,-46,93,10,31,6,7,75,-8,0
870,-41,11,18,30,10,-14,-92,-117,0
875,-128,49,-9,27,-6,9,6,-128,0
880,36,-32,-27,38,9,16,-126,-117,0
885,-53,45,29,28,-17,15,-99,-117,0
890,-77,-32,106,6,-4,-2,96,-1,0
895,35,61,123,-18,-16,2,110,59,0
900,59,89,52,-30,-17,-17,127,116,0
905,127,95,-21,-56,-11,-21,122,111,0
910,127,124,-115,-34,1,-1,95,123,0
915,58,-48,-114,-33,16,7,46,92,0
920,25,43,-99,-60,2,18,1,91,0
925,29,-37,-76,-47,1,52,20,72,0
930,16,126,-37,-34,0,-42,-41,56,0
935,55,-28,-31,-24,2,3,-6,89,0
940,48,59,-2,-15,1,-21,-8,-7,0
945,0,17,-9,-15,-12,-43,-42,-18,0
950,19,-4,-10,-6,-14,3,-46,12,0
955,-50,-93,-18,12,8,-12,-43,-30,0
960,-16,-83,-17,15,13,-28,5,-8,0
965,-26,-55,-31,-11,12,-18,15,28,0
970,-32,-10,-26,-23,8,-12,37,5,0
975,-54,-4,-3,-12,-2,-10,-50,-34,0
980,-84,-13,12,0,-3,-9,-12,-39,0
985,-72,8,30,-13,-14,15,-2,-10,0
990,5,-21,35,15,8,40,-14,-12,0
995,-10,4,30,2,-20,37,-19,-18,0
1000,-12,-2,48,16,-23,0,-32,21,0
1005,24,-25,36,32,13,-5,-28,24,0
1010,61,-50,7,10,-3,22,-23,13,0
1015,-9,20,38,13,-1,4,-11,36,0
1020,-9,44,15,14,8,1,5,14,0
1025,17,47,-14,3,-8,-26,6,14,0
1030,3,13,1,2,26,-24,19,12,0
1035,-6,19,0,-2,29,-25,5,4,0
1040,-31,4,0,-12,-7,7,-9,7,0
1045,-4,22,9,5,-26,26,9,-24,0
1050,-23,-9,12,1,-32,33,4,-48,0
1055,-15,-34,-5,3,-9,27,-5,-36,0
1060,-53,-35,9,-2,10,-2,1,-12,0
1065,-76,-26,10,5,12,-8,5,-57,0
1070,-61,-42,-2,12,2,-12,-29,-38,0
1075,-64,-2,-2,5,4,-17,-51,-38,0
1080,-51,-24,12,11,7,3,-55,-33,0
1085,-3,-36,0,5,9,5,-35,-24,0
1090,-4,-10,1,-1,-6,-12,-32,-25,0
1095,9,-7,-9,16,1,4,-16,-6,0
1100,19,-10,-1,-4,-9,7,15,-2,0
1105,11,-13,5,11,7,-1,-6,-10,0
1110,4,2,5,7,11,4,14,3,0
1115,9,9,-4,-13,-17,-4,-10,-2,0
1120,24,2,-4,6,2,-4,14,-2,0
1125,8,-6,7,1,1,1,21,-1,0
1130,-8,-10,-5,-13,-13,-10,0,-7,0
1135,45,7,-3,-3,1,-1,-31,15,0
1140,-3,3,-3,-3,6,7,21,1,0
1145,5,-9,2,4,1,-10,-11,0,0
1150,6,-12,-15,-15,-14,-11,-8,2,0
1155,0,1,-7,-13,-10,-7,10,-2,0
1160,-9,2,1,2,8,25,16,-2,0
1165,7,10,14,14,17,-1,-12,5,0
1170,8,-15,-28,-19,-25,-5,5,4,0
1175,-11,8,-9,-11,-13,-12,9,-5,0
1180,12,3,-3,-6,1,3,6,2,0
1185,0,2,5,8,16,23,3,-5,0
1190,-3,13,10,15,5,1,-5,-1,0
1195,-6,5,-2,-8,-10,4,4,0,0
1200,-1,-2,6,1,27,-4,6,-1,0
1205,9,-10,-11,-10,1,-19,-3,1,0
1210,-2,-1,2,-3,-9,-12,-19,0,0
1215,-1,1,0,1,-14,3,12,-3,0
1220,-3,-4,5,-3,-39,-17,24,-6,0
1225,-4,-6,-13,-8,-24,-15,31,5,0
1230,9,-5,-16,-20,-11,3,-40,-2,0
1235,5,3,6,6,17,12,-31,2,0
1240,-3,11,2,12,19,-2,-20,1,0
1245,12,-4,-89,6,9,5,24,-4,0
1250,-12,4,84,24,14,11,36,21,0
1255,10,4,70,24,16,4,-14,43,0
1260,1,-3,32,16,11,-20,-15,-15,0
1265,-4,-4,5,-27,-1,-22,-23,-26,0
1270,-5,-4,-64,-37,5,-7,-19,-13,0
1275,-4,-6,-59,-39,-4,21,16,-27,0
1280,4,-8,-13,-26,-16,-8,-19,4,0
1285,-2,-4,-1,-7,-6,8,-6,-5,0
1290,16,8,1,22,23,9,2,-1,0
1295,-13,-9,-3,4,-5,-7,11,6,0
1300,-9,-9,-16,7,-3,5,-2,-3,0
1305,-8,6,12,3,-2,22,22,1,0
1310,1,0,6,19,-3,-14,-16,0,0
1315,2,8,5,5,2,-10,12,-12,0
1320,3,5,-6,14,-2,0,0,19,0
1325,4,1,19,-8,-8,-3,-18,1,0
1330,-13,5,20,5,-1,-6,-2,-5,0
1335,0,-7,-23,-11,7,9,39,-1,0
1340,4,5,-3,-6,-10,6,5,5,0
1345,-10,2,20,7,3,-9,-20,5,0
1350,-7,-7,-21,-4,3,8,6,0,0
1355,-5,15,18,8,6,-10,-14,-10,0
1360,-8,-5,-9,-6,5,9,24,-28,0
1365,-1,3,4,1,-5,-5,1,-33,0
1370,3,0,-1,-2,-8,-6,-5,-88,0
1375,1,-4,-7,-6,0,17,-2,26,0
1380,-3,-1,-8,-3,2,-16,0,82,0
1385,-1,-1,3,0,-3,7,17,36,0
1390,5,-8,-10,-6,0,-1,7,17,0
1395,-3,-4,4,3,-3,-5,19,-113,0
1400,7,14,17,1,-4,-4,14,-71,0
1405,5,2,6,9,9,12,-96,-11,0
1410,36,4,18,15,4,3,-87,30,0
1415,12,-8,-12,0,-10,-15,74,8,0
1420,15,-12,-13,-12,-10,-1,93,-64,0
1425,30,-6,-6,-8,-4,-1,127,-21,0
1430,-31,11,5,-1,10,21,92,13,0
1435,-41,-10,-18,-16,-7,-12,26,40,0
1440,-52,-4,0,-3,-2,1,-20,50,0
1445,-124,-2,3,-5,-6,2,-21,19,0
1450,23,-20,-7,-6,-4,-15,-32,-28,0
1455,92,-7,5,6,11,-1,-55,15,0
1460,111,-15,3,-1,-4,7,-59,-17,0
1465,82,-10,-11,1,-6,-16,-38,21,0
1470,-3,52,4,2,8,18,21,20,0
1475,-38,20,12,14,7,1,4,-24,0
1480,-21,-8,-7,-4,-8,-8,-32,11,0
1485,-41,-27,1,-1,0,-3,-18,0,0
1490,-30,-15,0,1,0,0,11,-17,0
1495,-14,3,-7,-5,-9,-9,-25,-11,0
1500,-2,10,1,-1,2,2,-27,-3,0
1505,6,-1,-7,-3,2,14,16,0,0
1510,14,4,3,8,4,-22,8,-8,0
1515,17,1,-12,-13,-15,-8,-35,13,0
1520,-10,6,-1,-3,1,2,9,4,0
1525,4,4,-2,1,-4,-5,16,-9,0
1530,8,-7,8,-1,-5,2,5,-3,0
1535,-5,13,19,17,19,4,15,19,0
1540,-20,-8,-9,-3,-3,-6,-1,-1,0
1545,19,3,-2,0,1,2,6,1,0
1550,-9,-10,-3,-1,0,-1,-1,-3,0
1555,-6,-13,-7,-9,-10,0,8,-6,0
1560,-3,-1,-1,2,-4,4,-5,8,0
1565,5,8,9,3,3,-6,-9,-7,0
1570,-1,-14,-8,-2,0,1,1,1,0
1575,-6,-3,-2,-5,-6,-10,-9,-14,0
1580,4,-2,-9,-4,3,-9,-9,5,0
1585,11,4,9,11,6,10,-5,2,0
1590,0,-3,-11,-7,-2,-4,-3,0,0
1595,0,1,-1,-4,-4,-8,-8,-1,0
1600,-10,-2,-7,-10,-11,0,-6,-5,0
1605,-3,0,-5,-6,-4,1,3,-1,0
1610,0,-7,0,-1,-2,2,-9,-6,0
1615,-2,-3,4,8,9,7,-3,-1,0
1620,-4,1,7,7,10,3,1,-9,0
1625,-3,-5,0,-11,-8,-5,0,-5,0
1630,4,2,2,-1,-6,-4,-1,-5,0
1635,1,-4,-5,2,-2,0,8,8,0
1640,-9,-3,-4,-8,-6,12,-6,6,0
1645,6,6,9,10,18,-9,4,0,0
1650,-5,-5,-6,-5,-11,15,5,-9,0
1655,-3,-5,1,-7,-3,-16,-8,-5,0
1660,-6,-2,-15,-18,-9,23,16,3,0
1665,-9,-5,1,5,-16,4,-15,-20,0
1670,3,2,4,0,15,29,22,5,0
1675,-5,-3,-8,1,-2,9,-14,-5,0
1680,4,3,3,1,8,1,15,6,0
1685,-1,-1,-6,-6,3,-15,3,3,0
1690,-1,-4,4,-2,-8,-7,-6,-3,0
1695,-15,1,-1,-1,-9,12,7,-6,0
1700,1,1,7,8,3,-16,-10,-3,0
1705,3,0,-8,-6,-5,1,3,1,0
1710,-2,3,12,1,4,-12,-7,-4,0
1715,-3,-1,0,2,2,-17,-3,-4,0
1720,2,-2,0,0,-3,1,-5,9,0
1725,-2,2,6,-1,5,5,2,-3,0
1730,4,-4,-2,3,0,-21,-10,2,0
1735,-1,1,-2,-7,-2,19,6,-3,0
1740,2,3,2,4,2,-20,-8,-1,0
1745,-1,-4,-6,-2,-1,15,4,-8,0
1750,-3,-2,-3,0,-9,-29,-5,2,0
1755,2,2,1,-1,1,-8,-15,1,0
1760,-2,1,1,3,3,-7,-5,-1,0
1765,-7,3,5,0,4,14,-3,-1,0
1770,5,1,-1,3,8,10,2,3,0
1775,2,-4,-9,-6,-11,0,2,-1,0
1780,-6,-3,1,-4,-7,-14,-9,-10,0
1785,-1,-3,-2,-9,-8,-3,3,0,0
1790,-3,0,-5,-7,-2,4,-3,-7,0
1795,0,-1,4,11,10,10,10,3,0
1800,-5,-5,-4,-1,3,7,5,-6,0
1805,-1,10,16,8,-5,-16,-5,1,0
1810,2,2,-4,-2,-6,-2,-4,-2,0
1815,3,-4,-13,-13,-6,-10,7,6,0
1820,-5,-5,-6,-6,-5,-10,-13,-9,0
1825,2,2,-1,4,13,12,10,5,0
1830,0,-1,9,1,3,3,10,0,0
1835,-2,-2,4,8,-2,0,2,-4,0
1840,2,-4,-11,-13,-17,4,-2,-1,0
1845,-2,-1,-8,-8,-6,-6,-6,0,0
1850,-9,-4,-4,-2,4,4,-5,-6,0
1855,4,1,1,-6,3,4,5,0,0
1860,-5,0,9,21,1,1,-1,-6,0
1865,-1,0,-2,-1,-1,-12,1,-6,0
1870,-1,-4,-5,-9,-11,-3,-18,-7,0
1875,0,-2,3,0,7,-7,1,3,0
1880,2,-4,-6,4,-1,-5,-3,3,0
1885,7,0,0,0,1,-8,-5,6,0
1890,-1,2,-1,-4,-1,-1,-1,-1,0
1895,-2,-2,1,5,6,0,-5,-5,0
1900,-4,3,-3,1,5,1,-2,0,0
1905,-3,-3,-2,-3,-11,-6,-6,-4,0
1910,4,-4,-6,-3,-1,20,24,6,0
1915,3,0,2,-8,-6,-22,-9,0,0
1920,-2,0,3,1,1,4,6,2,0
1925,-1,2,4,8,9,1,-11,-5,0
1930,-3,3,8,12,14,9,11,-7,0
1935,3,-9,-19,-17,-15,-2,3,1,0
1940,-6,0,0,-10,-8,3,2,-5,0
1945,0,1,7,5,5,4,3,2,0
1950,-1,4,-1,0,2,2,-4,0,0
1955,0,-5,-2,5,5,12,9,-1,0
1960,-3,-3,-3,-1,4,-7,1,2,0
1965,-2,-5,-7,-10,-10,1,4,0,0
1970,-5,-2,-5,0,0,5,3,-1,0
1975,-5,0,1,4,6,-1,-5,-5,0
1980,-1,-4,-1,-5,-4,12,6,1,0
1985,1,4,-1,3,-5,-9,-5,-2,0
1990,-2,-1,-8,-14,-4,-11,-14,-4,0
1995,5,9,12,8,7,8,5,3,0
2000,-5,-4,13,-2,-1,-12,-5,-5,0
2005,-2,-6,-15,-7,5,6,21,-3,0
2010,2,14,17,6,-9,-20,-18,8,0
2015,-2,3,11,5,8,18,10,0,0
2020,-4,4,7,2,3,3,4,-2,0
2025,2,-6,-19,-17,-14,-12,-9,-3,0
2030,-14,-48,-76,-29,-15,-14,-20,-18,0
2035,7,13,23,20,5,3,17,15,0
2040,1,-1,1,7,6,0,-4,-2,0
2045,-9,-2,9,3,-2,-7,-13,-4,0
2050,0,-3,7,2,-9,7,17,-3,0
2055,-8,34,-2,-3,-5,-6,-15,-2,0
2060,11,-5,1,4,1,0,-8,2,0
2065,-1,6,9,13,15,8,8,-2,0
2070,-5,-32,-12,-10,-2,1,-5,1,0
2075,-8,-46,-7,-15,-16,-11,-8,-12,0
2080,-1,-9,5,2,-6,-3,-6,-3,0
2085,-2,-8,-12,-4,0,1,-7,-7,0
2090,6,24,25,13,8,1,4,1,0
2095,-6,-3,-9,-7,-4,-2,-4,-8,0
2100,1,79,-15,-7,-7,-3,1,1,0
2105,4,8,3,3,-4,-5,5,1,0
2110,6,-18,18,5,12,4,10,2,0
2115,-6,-54,10,5,10,-2,-1,2,0
2120,10,-122,-21,-12,-18,-27,-34,-5,0
2125,-6,-60,16,4,-7,42,39,2,0
2130,100,-78,7,8,-10,-9,-10,21,0
2135,93,-128,-34,-10,-13,-7,-14,-13,0
2140,-66,14,-23,9,3,-3,-1,2,0
2145,-100,23,2,4,-6,-13,-1,13,0
2150,-107,-102,-3,0,2,-1,-8,69,0
2155,-47,75,46,27,14,9,35,-107,0
2160,8,65,49,23,11,7,-10,50,0
2165,127,126,17,4,11,-11,-116,104,0
2170,78,127,37,11,-4,-5,-107,15,0
2175,78,118,-31,-1,-5,17,33,-41,0
2180,-82,117,-49,-28,3,65,101,73,0
2185,44,-7,-36,-36,-12,23,127,45,0
2190,108,-47,-54,-32,4,42,127,127,0
2195,127,-40,2,-28,-2,-111,-2,127,0
2200,116,-21,14,-11,1,-124,4,18,0
2205,-27,18,33,-7,8,-62,-23,38,0
2210,-99,0,-29,-14,-13,52,-69,-83,0
2215,-124,10,-17,11,-7,68,-28,-47,0
2220,-106,-48,-26,-1,7,109,-17,-99,0
2225,-50,-63,10,11,13,62,-15,-37,0
2230,-49,-24,6,11,4,47,3,-69,0
2235,-79,-20,-5,-6,-12,91,22,5,0
2240,5,-53,11,-6,-22,34,5,-15,0
2245,-8,-46,4,7,-6,41,5,-46,0
2250,-37,8,21,1,4,-9,19,-44,0
2255,-64,-25,4,-7,-1,-12,-1,5,0
2260,0,-44,33,29,-1,-27,-18,-40,0
2265,-20,-29,-15,4,1,-13,-20,-62,0
2270,-24,18,26,13,12,-36,-13,-19,0
2275,-8,-16,4,-1,12,-37,-55,16,0
2280,37,-23,-9,-8,-6,-24,-40,-10,0
2285,2,-2,-5,9,-4,-15,-16,-34,0
2290,16,6,-2,2,-3,-24,5,7,0
2295,10,-2,-4,0,1,-10,-10,1,0
2300,21,0,5,1,9,8,-11,-8,0
2305,-3,-10,-6,0,-9,-13,-7,-3,0
2310,8,4,-5,-7,0,-13,7,1,0
2315,-7,-14,-33,-14,-8,13,28,-2,0
2320,7,8,22,12,4,14,17,21,0
2325,14,-3,-6,-2,10,6,3,28,0
2330,-5,-4,-4,-8,-13,-12,-23,-21,0
2335,-9,-2,-13,-8,-3,15,24,3,0
2340,4,-7,-11,-7,-11,-13,-9,3,0
2345,-2,-4,-3,5,-2,20,28,-12,0
2350,-2,14,14,10,8,0,4,-4,0
2355,-4,5,-4,-11,-8,-26,-19,-2,0
2360,9,-10,-10,-6,-6,7,-4,10,0
2365,-6,0,-8,-10,-10,1,-6,-16,0
2370,-3,5,-2,4,2,-28,2,-2,0
2375,0,5,7,1,3,20,-13,1,0
2380,2,-1,-2,1,3,-17,5,2,0
2385,-1,-5,-9,-9,-3,-2,3,1,0
2390,-8,-1,-5,-8,-8,16,9,-7,0
2395,14,9,15,14,13,-67,-22,13,0
2400,-1,-2,-4,-5,-2,9,0,-5,0
2405,1,0,0,0,3,-16,-18,3,0
2410,-2,-3,-1,1,-1,25,16,-4,0
2415,-3,0,-5,-6,-5,-9,12,11,0
2420,-1,-2,-3,-4,-1,9,18,10,0
2425,-3,-7,-9,-9,-4,-9,4,2,0
2430,-1,4,-1,-1,3,4,-7,2,0
2435,-1,-2,-4,0,-7,4,-17,-15,0
2440,-4,-2,-1,-3,1,-19,-19,-22,0
2445,-3,0,5,0,2,-11,-14,-50,0
2450,-3,-7,-6,-3,-5,-17,-5,-31,0
2455,-7,0,-3,-2,-2,18,2,-17,0
2460,4,3,0,-1,0,7,0,2,0
2465,5,-2,1,2,-3,5,-2,8,0
2470,-3,-1,-1,-1,-1,3,3,11,0
2475,0,-5,4,2,-2,6,-7,11,0
2480,-5,-8,-3,-2,1,-1,0,17,0
2485,-1,-2,-1,-3,-4,-5,-10,8,0
2490,2,0,3,1,2,-9,0,11,0
2495,-3,-3,-2,-1,-1,9,9,-11,0
2500,0,-1,-2,-4,-3,-5,-6,-18,0
2505,-3,3,1,0,-2,-3,0,-20,0
2510,-3,3,0,2,-3,-2,-2,-13,0
2515,-5,3,-4,0,-2,3,0,2,0
2520,2,-7,-7,-6,0,5,-2,8,0
2525,-3,-3,3,0,-1,-7,2,-1,0
2530,5,-1,1,1,0,-2,9,2,0
2535,-1,-1,-4,-3,-3,6,0,-1,0
2540,-4,4,0,-1,4,8,7,6,0
2545,8,0,2,0,0,-13,-12,9,0
2550,-5,1,-3,-1,-1,-1,4,-10,0
2555,-3,2,0,-1,-2,6,-6,-5,0
2560,-1,2,-3,-2,-3,2,2,-11,0
2565,0,1,1,1,1,3,-2,-8,0
2570,-4,0,0,2,-1,-6,1,-4,0
2575,0,-1,3,-4,-5,-7,-10,4,0
2580,-2,1,1,0,5,12,19,2,0
2585,0,-5,-7,-7,-5,0,-4,4,0
2590,2,5,4,-4,-1,-8,-9,5,0
2595,-5,-4,-3,0,2,5,6,5,0
2600,-1,-4,-6,-7,-7,-11,-9,-7,0
2605,-1,0,0,-2,1,3,1,5,0
2610,-2,-1,0,-1,0,2,2,5,0
2615,-2,1,1,1,-2,0,-2,-3,0
2620,-1,-1,-2,-1,1,0,-6,-2,0
2625,1,3,5,3,0,-3,1,-1,0
2630,-2,-4,-2,-5,-4,0,0,-3,0
2635,2,-1,3,3,6,4,2,-5,0
2640,0,1,-1,3,0,-7,-7,-3,0
2645,-2,-2,-8,-2,-3,-2,0,2,0
2650,-4,3,4,-2,-3,2,1,-4,0
2655,1,-5,-13,-5,-1,-4,-2,2,0
2660,1,0,-1,2,0,1,-4,-5,0
2665,3,-2,1,4,2,2,-1,0,0
2670,2,-2,-9,-6,-6,-9,0,0,0
2675,-1,0,13,0,0,2,2,1,0
2680,-1,-1,3,2,1,-2,-6,0,0
2685,-2,1,-1,4,2,2,1,-2,0
2690,4,-9,-3,0,2,-3,1,4,0
2695,3,3,-17,-6,-3,-5,-5,-3,0
2700,-3,-4,-5,-4,-2,1,2,-2,0
2705,0,-2,-3,-9,-4,-5,-1,-2,0
2710,-5,0,-7,-2,0,-1,-2,-4,0
2715,-1,-1,10,3,-1,-2,3,1,0
2720,-4,1,2,3,2,1,-1,-8,0
2725,0,-2,-4,-5,-5,-7,1,-2,0
2730,1,1,2,3,1,4,-3,2,0
2735,-1,1,3,7,7,-5,-3,-4,0
2740,4,1,-2,-15,-15,-8,-1,-1,0
2745,-5,-3,3,-5,-7,0,-4,-2,0
2750,-4,0,5,2,4,2,-4,-3,0
2755,-1,0,1,4,2,0,-2,-1,0
2760,-1,0,1,1,1,-7,1,1,0
2765,-1,7,-3,-8,-5,1,-2,-3,0
2770,-1,11,-1,11,1,-1,-4,-2,0
2775,-5,10,-5,0,3,1,2,1,0
2780,2,21,-6,-8,-12,-2,-3,0,0
2785,0,-22,-4,-3,-3,-2,6,-7,0
2790,3,-13,8,-2,-1,-3,1,19,0
2795,-1,-24,3,4,4,5,0,1,0
2800,0,-5,0,3,3,-2,2,2,0
2805,-2,-12,-3,3,3,4,0,-5,0
2810,-5,-22,-3,4,-4,-4,-5,-10,0
2815,-4,1,-4,-10,-9,1,0,-7,0
2820,0,2,-3,-5,-2,-3,0,-7,0
2825,-5,13,7,9,1,-4,-8,-9,0
2830,4,-4,-4,-6,-6,-10,-14,-3,0
2835,3,0,-4,-2,-8,-5,-3,-5,0
2840,-6,-5,0,2,1,-5,-5,-2,0
2845,-10,1,2,1,4,3,29,-2,0
2850,-12,17,5,5,5,-3,20,-18,0
2855,4,4,1,1,4,2,-28,5,0
2860,-4,-3,-17,-3,2,12,-1,-3,0
2865,2,2,7,-1,1,13,-8,4,0
2870,-1,-3,-3,-6,1,20,6,1,0
2875,-2,-6,-4,-9,-4,14,6,9,0
2880,1,-11,1,-1,-3,4,-6,7,0
2885,5,41,-1,5,3,3,-26,3,0
2890,-1,-46,-2,-6,-9,-15,-12,-4,0
2895,1,-13,3,-8,-6,-12,13,-10,0
2900,-2,-6,-1,-1,-5,-11,-4,-3,0
2905,-5,17,-3,-5,-3,-15,5,-7,0
2910,-12,21,1,3,0,-3,-2,-10,0
2915,-5,1,-1,6,0,-11,1,-4,0
2920,3,13,4,-1,3,-1,-6,6,0
2925,20,3,0,1,1,-9,3,0,0
2930,1,24,-3,-5,1,-7,6,8,0
2935,-14,2,2,-1,-2,-10,0,6,0
2940,-14,-10,7,2,0,9,2,5,0
2945,-9,-24,-14,-3,0,13,0,11,0
2950,12,-19,-9,-3,0,8,12,4,0
2955,9,2,-3,-3,-5,12,8,-11,0
2960,10,-10,3,1,1,-5,1,-6,0
2965,0,-11,6,2,-1,-8,-15,-6,0
2970,-10,44,-8,-5,-7,-6,-18,-7,0
2975,-11,-35,-2,-2,7,4,-4,-4,0
2980,-6,-25,3,5,-3,6,8,-16,0
2985,0,-10,-3,-10,-13,-5,14,-7,0
2990,1,17,-7,-9,-6,-12,5,13,0
2995,-1,31,4,3,-4,-17,-4,1,0
3000,-2,10,-6,-1,6,-2,-2,9,0
3005,-2,-11,1,3,4,-1,0,-6,0
3010,0,-10,2,2,3,3,7,-3,0
3015,17,1,4,-1,-2,-1,0,5,0
3020,37,-9,-8,-4,-1,-2,-12,2,0
3025,11,-1,3,-3,-3,0,-12,-2,0
3030,-13,-7,-6,0,1,14,-10,-11,0
3035,-21,-4,0,-1,-3,12,5,-7,0
3040,-30,0,3,0,-3,-3,-4,3,0
3045,-9,-8,-1,1,3,-12,33,-3,0
3050,7,-14,7,0,-6,-15,-7,-7,0
3055,-4,-1,-5,-3,-7,-10,-6,-4,0
3060,-5,6,0,-1,-2,-5,-25,3,0
3065,-5,3,-3,-1,4,2,-21,-4,0
3070,-5,-4,1,0,5,5,4,-3,0
3075,10,8,-6,-4,-2,0,8,0,0
3080,4,6,0,-5,2,-4,10,-2,0
3085,-2,0,3,3,0,6,-3,12,0
3090,-1,-3,-1,-2,-8,24,-6,-4,0
3095,-6,2,-1,-1,-4,5,-1,1,0
3100,7,-1,0,0,0,-16,6,2,0
3105,10,-3,-2,3,1,-21,1,-2,0
3110,26,-2,-1,-2,-4,-18,1,3,0
3115,12,-2,-5,-2,0,-2,3,5,0
3120,-16,-4,-3,-1,-2,6,9,0,0
3125,-19,-4,1,-2,-4,5,-6,-10,0
3130,-16,-2,-2,0,0,1,-8,5,0
3135,-9,-3,-1,-1,1,-1,-1,4,0
3140,-6,1,-1,-1,-1,2,4,2,0
3145,-10,2,3,-2,-3,2,-16,3,0
3150,-1,-1,-1,0,1,0,1,-5,0
3155,4,-18,-4,0,2,0,-11,-8,0
3160,12,3,-1,-4,-5,-1,0,-14,0
3165,10,11,-1,0,-1,4,-5,0,0
3170,-18,-3,1,1,1,-5,-5,-12,0
3175,0,6,-3,0,1,0,-4,-7,0
3180,3,-2,-2,-1,0,-2,1,0,0
3185,9,-1,-1,-4,1,4,0,4,0
3190,8,6,0,-1,1,-3,0,6,0
3195,0,1,1,1,-1,-4,0,6,0
3200,-2,0,-2,-1,-1,0,1,-1,0
3205,0,-3,-1,-2,0,-2,4,3,0
3210,1,-6,-2,0,0,-1,0,-1,0
3215,-8,-2,0,-2,-3,-3,-1,1,0
3220,0,0,0,1,-2,-3,-6,0,0
3225,-5,-3,-2,-3,-2,-3,2,3,0
3230,-1,-4,-1,-3,1,-1,-1,2,0
3235,-4,-2,-4,-3,0,0,-4,-4,0
3240,-3,0,-2,-3,-4,0,-2,-10,0
3245,-5,-2,0,1,-2,-1,-3,6,0
3250,0,-3,-3,-2,0,-2,1,0,0
3255,0,1,-3,-2,1,0,1,-1,0
3260,-2,-3,1,-1,0,-2,0,-1,0
3265,1,-4,1,1,-1,1,-1,-4,0
3270,0,-2,-2,-2,-2,1,2,-2,0
3275,0,3,-1,-1,-3,-3,0,-3,0
3280,-3,-2,-1,-2,-1,2,1,1,0
3285,-2,-4,-4,-2,-3,-1,1,-4,0
3290,-2,0,1,0,0,-1,0,-4,0
3295,-2,0,-1,-3,-3,-2,-1,3,0
3300,-1,1,1,-1,1,2,-2,-2,0
3305,0,0,-1,-1,-1,-3,2,-1,0
3310,2,0,-3,-2,1,-1,-2,1,0
3315,1,2,1,-1,-1,0,-3,0,0
3320,-27,-3,-2,-1,-2,1,1,-1,0
3325,-5,-2,-2,-1,-1,1,-2,0,0
3330,6,4,3,0,-2,-2,0,-10,0
3335,2,2,0,2,-1,0,-3,-1,0
3340,12,-1,-2,-2,-2,-2,0,4,0
3345,3,-2,-2,-1,-3,2,-4,1,0
3350,3,-1,-4,0,0,-3,-2,6,0
3355,5,-3,-3,0,1,1,4,-2,0
3360,6,0,-1,-5,-2,-2,0,-3,0
3365,0,-1,-1,0,2,1,-1,-2,0
3370,2,4,-1,-1,-4,-1,1,-3,0
3375,-5,35,0,-3,-2,-3,-1,-3,0
3380,-5,-28,-1,-1,0,0,0,2,0
3385,30,-16,-2,-2,-1,-1,-2,0,0
3390,19,-27,0,-2,-3,-1,-3,0,0
3395,-14,-4,-2,-1,0,-1,-2,2,0
3400,-35,13,-3,-3,0,-1,0,-1,0
3405,-31,-9,-2,0,-2,-5,-2,-7,0
3410,-15,1,-2,-1,2,-1,-3,-1,0
3415,10,-9,-2,-3,-4,0,3,-1,0
3420,-2,0,3,1,1,-2,1,-3,0
3425,-4,-5,-1,0,-2,-2,0,-1,0
3430,-1,0,-2,0,-2,-1,0,3,0
3435,-4,-13,2,0,1,-2,-2,-3,0
3440,-24,0,0,1,-1,0,-2,-4,0
3445,-2,6,0,-1,1,0,-1,0,0
3450,19,8,-1,-2,-4,-1,-1,-19,0
3455,4,-10,-1,-1,-1,-3,-2,6,0
3460,26,6,1,-2,-2,-1,-2,5,0
3465,7,14,-2,-1,-2,1,0,1,0
3470,-16,1,0,-2,0,0,-1,3,0
3475,6,-2,-4,-2,-2,-2,0,-6,0
3480,-8,4,0,0,-2,-3,-1,-2,0
3485,0,-1,-1,-2,-1,0,1,-1,0
3490,-6,-28,-1,-1,0,-2,0,3,0
3495,-14,3,-1,-1,-2,2,1,-17,0
3500,22,2,1,-2,2,-4,-3,8,0
3505,2,2,1,-3,-2,-2,0,5,0
3510,2,12,-3,-4,-2,1,-3,8,0
3515,14,7,-2,1,0,-1,2,6,0
3520,4,29,-3,1,-3,-1,-4,-7,0
3525,13,18,0,-2,0,0,-3,-7,0
3530,62,-20,1,-2,0,0,1,0,0
3535,11,-28,0,-3,0,-3,-4,-2,0
3540,-9,-28,-2,-1,0,3,3,-6,0
3545,-33,0,-1,-2,-2,1,-2,-1,0
3550,-43,14,-2,-1,-2,-3,2,-3,0
3555,-45,-11,-1,0,-1,0,0,2,0
3560,-13,-6,-3,-1,-1,-1,3,-4,0
3565,1,-7,0,0,-1,-1,-5,-5,0
3570,-16,-1,1,0,-1,1,-3,-5,0
3575,19,1,0,2,2,1,-1,10,0
3580,9,2,-1,-1,-5,-3,-3,5,0
3585,2,1,-2,0,-2,-2,2,2,0
3590,5,-1,1,0,0,-1,0,-2,0
3595,0,7,-3,-2,-5,-4,-2,-2,0
3600,9,1,-2,0,-2,2,0,1,0
3605,4,-12,-1,1,-2,-1,0,0,0
3610,-8,3,-3,-2,-1,-3,-1,1,0
3615,-1,3,-1,-1,-1,-2,2,-4,0
3620,7,-5,-4,-3,1,-4,-2,-4,0
3625,1,-3,-2,-2,-1,-1,-1,-5,0
3630,-8,2,-3,1,2,1,0,1,0
3635,-4,4,-2,-2,-2,-2,-2,-1,0
3640,7,-4,1,1,-1,-4,-2,-4,0
3645,-2,1,2,2,0,-1,-1,0,0
3650,-11,1,-2,-2,-3,0,-2,1,0
3655,3,-2,-2,-1,-2,1,0,-4,0
3660,3,-5,0,-1,-1,0,-1,0,0
3665,-4,-1,0,0,1,-2,-1,0,0
3670,-4,-1,0,0,-3,-3,-3,-1,0
3675,1,2,1,-2,0,-2,-3,-2,0
3680,-1,-1,0,-2,-2,-1,-4,0,0
3685,1,-2,-2,-1,-1,0,1,-2,0
3690,1,-1,-2,-2,-3,-3,-4,0,0
3695,-1,2,-2,-2,-1,-4,-2,-2,0
3700,0,-2,0,-1,-1,0,4,4,0
3705,-1,-3,-1,-1,-3,-1,-1,1,0
3710,-3,2,-1,0,2,0,-1,-2,0
3715,-2,1,-2,-2,-2,0,-2,3,0
3720,4,-1,-1,-1,-2,-1,-3,-3,0
3725,-1,-3,-1,-3,-3,-1,-2,2,0
3730,-5,1,0,-2,-1,0,-1,-1,0
3735,0,-3,-2,-1,-1,-1,0,0,0
3740,1,-2,0,0,-1,-2,-2,-3,0
3745,-2,0,-2,-2,-2,-1,2,-1,0
3750,0,0,0,0,0,-2,0,0,0
3755,-2,-2,0,-3,0,-2,-3,-2,0
3760,2,-3,2,-1,-3,-3,-2,-1,0
3765,-2,2,-3,0,-1,0,0,-1,0
3770,-5,0,-5,-2,-1,-3,-2,-1,0
3775,1,0,-3,1,-1,0,1,-3,0
3780,-1,0,0,-1,-2,-2,3,-1,0
3785,-1,-2,0,-1,0,-2,-5,-1,0
3790,1,-1,1,-1,-1,1,1,0,0
3795,0,-2,1,0,0,0,0,-1,0
3800,-2,0,-4,-3,1,-3,-1,1,0
3805,0,-2,-1,-1,-2,0,0,-1,0
3810,-2,-1,-1,-1,-1,0,0,3,0
3815,-2,-2,0,-2,-1,-2,-1,1,0
3820,-2,-2,1,-1,0,0,-2,-3,0
3825,2,-2,-3,0,0,-1,3,-1,0
3830,-6,-3,-1,-1,-2,-2,-2,-1,0
3835,-1,-1,3,-1,-3,0,-3,-4,0
3840,1,0,-2,0,-1,1,-2,2,0
3845,0,-1,-1,-2,-3,0,-1,1,0
3850,0,0,-1,0,0,0,0,0,0
3855,0,-1,-1,-2,-2,-2,-3,3,0
3860,2,0,-1,-3,-3,-2,-1,-2,0
3865,0,1,0,-1,1,1,-3,-4,0
3870,-3,-3,-3,-2,2,0,0,2,0
3875,-1,-2,-2,-1,-3,-3,-3,1,0
3880,-2,-2,-2,0,0,-2,1,-1,0
3885,-1,-2,-2,-3,0,-1,-2,-2,0
3890,-3,2,-1,1,0,-1,0,-2,0
3895,-1,0,-2,0,1,-1,0,-2,0
3900,-3,1,1,2,-1,2,-1,0,0
3905,1,-2,-2,-1,0,-2,-2,1,0
3910,0,0,2,0,-2,-1,-2,0,0
3915,1,0,-4,-1,-1,2,1,0,0
3920,2,0,-2,-2,-1,-4,0,-1,0
3925,-1,-2,-1,-2,-3,-1,1,-2,0
3930,-1,-1,-2,-2,-1,2,-3,-1,0
3935,-3,-2,0,-1,-1,0,-2,2,0
3940,-2,-1,-1,-2,0,-2,-5,1,0
3945,-2,0,0,-1,0,2,-3,1,0
3950,2,-1,-1,-1,-3,-3,-3,-1,0
3955,-2,-3,0,-1,0,-4,1,-1,0
3960,0,0,-2,1,0,4,-1,-3,0
3965,-3,-2,-1,-1,-2,-2,-3,0,0
3970,-1,-1,-3,-1,-2,1,-2,-4,0
3975,-1,0,1,-1,-1,1,-3,-1,0
3980,-1,0,-3,-1,-1,-2,-1,0,0
3985,-2,-1,-1,1,-2,-3,-2,-3,0
3990,0,-2,0,0,0,1,0,-3,0
3995,-2,-2,-2,-2,2,-3,1,-2,0
4000,0,-3,1,-2,-1,1,0,-1,0
4005,-2,-1,-2,0,-1,-1,-4,-4,0
4010,0,-1,-1,-3,0,-2,-1,1,0
4015,2,-2,-3,-3,-3,2,0,-2,0
4020,1,-2,2,-1,-4,-1,1,1,0
4025,1,-2,-1,-1,0,-2,0,0,0
4030,-2,-2,-2,0,-1,-3,0,-2,0
4035,0,-2,-2,-1,-1,-1,-1,-1,0
4040,-1,-2,-3,-1,0,1,-1,-2,0
4045,0,-3,0,0,0,-1,-2,2,0
4050,-4,0,-1,1,-1,0,-1,0,0
4055,-2,-2,0,-2,-1,-2,-1,-1,0
4060,-1,0,-3,0,-1,-4,0,-1,0
4065,0,-2,-1,-1,-2,-3,2,-1,0
4070,-2,-2,-1,-1,-1,-1,-2,0,0
4075,0,0,-2,-1,-1,1,-2,-2,0
4080,-4,-2,-1,-2,-1,-4,-3,-3,0
4085,-2,1,0,-1,-1,0,-2,-3,0
4090,0,-1,0,-1,-1,1,1,-1,0
4095,-3,-2,0,2,-1,-1,-1,3,0
4100,-2,0,2,-1,0,-1,-2,-1,0
4105,-2,-2,0,-1,-2,-3,0,2,0
4110,2,-2,-2,-3,0,0,-1,-1,0
4115,-1,-1,-2,-1,-2,0,-6,-1,0
4120,3,-1,-2,-1,-2,0,-1,1,0
4125,-3,0,0,0,-1,0,-2,1,0
4130,-1,0,-2,-1,-1,-4,0,-1,0
4135,-2,-2,-2,-1,0,-2,0,-1,0
4140,-2,0,0,-2,0,0,-1,-2,0
4145,0,-3,-1,-3,-1,2,1,-1,0
4150,-2,-2,0,-1,-2,-1,-2,1,0
4155,1,-3,-1,1,0,-1,-3,2,0
4160,-2,-3,0,1,-2,-2,1,2,0
4165,-2,0,1,0,1,0,0,0,0
4170,-1,1,-1,-3,-2,-2,-2,-1,0
4175,-2,-1,-1,-3,-3,1,0,-4,0
4180,-1,-1,-1,-3,0,-1,-2,0,0
4185,3,-1,-1,0,0,-1,0,4,0
4190,-2,-2,-2,-2,0,-3,-4,-2,0
4195,-1,1,0,0,-1,-2,-2,-3,0
4200,0,0,0,-2,-2,-2,-1,0,0
4205,-2,-3,-1,-1,-1,0,-1,-3,0
4210,-2,-1,0,0,0,-2,1,0,0
4215,1,-2,-2,-1,-1,0,0,1,0
4220,-2,-1,0,1,-1,0,-2,-4,0
4225,-2,-1,-2,-2,-2,-3,-3,-1,0
4230,3,0,-2,-2,1,1,-2,-2,0
4235,-4,-2,0,-3,-2,-2,0,-1,0
4240,0,-2,0,-1,2,0,-3,-3,0
4245,-2,0,1,0,1,-2,-1,-2,0
4250,-1,-1,-2,0,-1,0,-2,-2,0
4255,1,0,-1,-1,0,-1,-1,1,0
4260,2,-1,0,-2,-3,-1,-1,2,0
4265,1,-1,-2,0,-2,-3,-3,3,0
4270,-1,0,0,-1,-1,0,-1,-1,0
4275,-2,0,1,-1,-1,-3,0,0,0
4280,0,1,-1,-3,-1,-1,-3,-2,0
4285,-2,-1,-2,-2,-1,0,1,-2,0
4290,-2,-1,-2,-2,-2,-2,-1,0,0
4295,0,0,-3,0,0,0,0,-2,0
4300,-3,-2,-1,-1,-2,-1,-4,-1,0
4305,1,-2,-1,-2,-3,-3,-1,-3,0
4310,-2,-2,-1,-1,-2,-1,0,-3,0
4315,0,-2,-1,-2,-3,-1,0,0,0
4320,-1,-2,-2,-2,-2,-3,0,0,0
4325,-2,0,-1,1,1,0,0,-3,0
4330,-1,-1,-1,-2,-2,0,3,0,0
4335,-1,-3,-1,1,1,-3,-1,-2,0
4340,0,0,-1,-1,0,1,0,0,0
4345,-3,-1,-3,-2,-1,0,0,0,0
4350,-1,-2,0,1,0,-1,-1,-1,0
4355,-3,-2,-3,-1,0,0,2,-4,0
4360,-2,0,0,-2,-2,1,3,-2,0
4365,-1,-1,-2,-1,-1,-1,-2,2,0
4370,-3,0,1,0,-2,0,-1,-4,0
4375,-2,0,0,-2,-4,-1,0,0,0
4380,-1,-2,0,1,0,-1,-2,-2,0
4385,1,-1,-1,-3,-1,1,1,-4,0
4390,-2,-2,-3,-1,-2,-1,0,-2,0
4395,1,2,0,0,-1,0,-3,-2,0
4400,0,-2,-5,0,1,-1,-1,-1,0
4405,-3,2,-1,-1,-2,-2,0,-1,0
4410,0,2,-2,0,-2,0,2,0,0
4415,0,-3,-1,-1,1,0,-1,-1,0
4420,-1,-1,-2,-3,1,-1,-3,-1,0
4425,-4,-2,-3,1,-3,-2,0,-1,0
4430,-2,-3,-1,-1,-3,-2,-1,-1,0
4435,-3,-2,0,0,-1,-5,-2,-1,0
4440,-1,-1,0,0,-1,0,-4,0,0
4445,-1,-2,0,0,0,-1,-1,1,0
4450,0,-1,-1,-2,-1,0,0,-1,0
4455,-3,-2,-1,0,1,2,0,-1,0
4460,0,-1,-3,-1,-3,-2,0,-2,0
4465,0,-1,0,-1,1,-1,-1,-3,0
4470,-3,-1,-2,-1,-3,-3,-5,1,0
4475,0,0,0,-2,0,-4,-1,2,0
4480,0,0,-2,0,-1,-2,-1,-3,0
4485,-1,-2,0,-2,-2,-1,-1,-2,0
4490,-1,0,0,-1,0,-1,0,-3,0
4495,-1,-1,0,-3,-2,0,0,1,0
4500,-2,-2,1,-1,-1,-1,-1,-1,0
4505,-1,1,-2,0,-2,-3,-1,2,0
4510,-2,-2,-1,-1,-1,0,-2,-1,0
4515,-3,1,-2,0,0,0,-1,1,0
4520,-2,-1,-1,-2,-2,-3,2,0,0
4525,3,0,-1,-1,-2,0,-1,-1,0
4530,-2,-1,-3,-1,1,0,-1,-1,0
4535,-2,0,-1,-2,-4,1,-1,-4,0
4540,-1,-2,0,-1,0,-1,0,-2,0
4545,-1,-1,-1,-2,1,1,-5,-2,0
4550,-3,-1,0,1,1,-1,0,0,0
4555,-2,0,-2,-2,-2,-2,-2,-2,0
4560,3,-2,1,0,-2,-1,-3,-2,0
4565,0,-2,-1,-1,-2,-2,-1,-4,0
4570,0,0,-1,-2,-1,-2,-1,0,0
4575,-2,-1,1,-1,-1,-1,-2,-6,0
4580,0,1,-1,-3,-2,-3,-1,0,0
4585,-2,0,-1,-1,-1,0,-1,2,0
4590,1,-1,-4,-1,-1,1,0,1,0
4595,-1,-1,-2,-1,-3,-1,1,-1,0
4600,-3,0,-1,0,-1,-4,-1,2,0
4605,-3,-1,-1,0,0,0,1,-1,0
4610,2,0,2,-2,2,1,-2,-1,0
4615,-1,-3,-2,-2,-2,-4,-2,2,0
4620,-3,-1,0,0,1,1,-1,-3,0
4625,-2,-2,-4,-1,-1,-4,-1,-1,0
4630,-1,-2,0,-1,-2,-1,1,0,0
4635,1,1,-2,0,0,-2,0,-1,0
4640,-2,-2,0,-2,-3,-2,0,-1,0
4645,-3,-1,0,0,3,1,-2,1,0
4650,-4,-1,-3,-2,-4,-2,-1,-2,0
4655,0,-1,1,1,0,3,-1,-3,0
4660,0,0,-3,-2,-2,-1,1,-3,0
4665,0,1,-1,-1,-1,-3,-3,0,0
4670,-2,0,-1,-2,-2,0,-2,-1,0
4675,-1,-3,0,-1,1,-3,0,-2,0
4680,0,0,-3,0,-2,0,-2,-2,0
4685,1,-4,-1,-1,0,-2,1,-1,0
4690,-4,-2,-1,-1,0,-1,-2,0,0
4695,0,2,-1,-1,-1,-2,0,1,0
4700,2,0,-1,-1,2,-2,0,1,0
4705,-3,1,-3,-1,-2,1,-1,-3,0
4710,-2,-3,-1,0,0,0,-4,-2,0
4715,0,-3,0,-2,-1,0,-3,0,0
4720,-1,-2,2,-1,1,0,-3,0,0
4725,0,2,1,0,-1,-2,0,2,0
4730,-3,0,-3,-1,-1,-1,-2,-2,0
4735,-3,-3,-3,0,-3,-1,-2,-1,0
4740,-3,0,-2,-2,-1,-1,-1,0,0
4745,0,-2,-2,-1,-1,-1,-1,-3,0
4750,-1,2,-1,-2,-3,-3,-1,-3,0
4755,6,0,0,-1,0,-2,0,3,0
4760,-2,-1,-3,1,0,-2,0,-2,0
4765,-4,-2,-2,-2,-3,0,1,-2,0
4770,-1,-2,-4,-3,-1,-5,-1,0,0
4775,1,-1,1,0,-1,-1,-1,-3,0
4780,1,-1,-1,-2,-1,0,-2,0,0
4785,-1,-2,1,-3,-3,0,-4,0,0
4790,1,0,1,1,0,1,-1,-2,0
4795,-4,-1,-3,-1,-2,-2,-1,2,0
4800,-2,-2,0,-1,-1,0,-1,-1,0
4805,0,-3,0,-2,0,-2,0,-1,0
4810,2,1,-2,-1,-1,2,0,3,0
4815,-1,-1,-2,-3,-1,-2,-3,-2,0
4820,-1,0,-1,0,-4,-3,-2,1,0
4825,-1,-2,0,-1,0,0,1,-1,0
4830,-2,-4,1,-1,-1,0,2,-2,0
4835,-1,1,-1,1,2,0,-1,-3,0
4840,0,-2,-2,-3,-3,-2,-1,-1,0
4845,-1,2,-4,-2,0,-2,-1,1,0
4850,1,-1,1,0,-3,-2,2,0,0
4855,-4,-3,-3,-2,-2,-1,-5,-1,0
4860,1,-1,0,-1,0,0,-1,-1,0
4865,-2,0,0,1,-2,0,-3,-1,0
4870,-1,-1,-2,-1,0,-1,1,-4,0
4875,-1,1,-1,-1,-2,0,-1,-1,0
4880,0,0,2,-2,-1,-3,-1,0,0
4885,-1,-3,-1,0,-2,1,-1,-2,0
4890,-3,-3,-2,0,-1,-1,-2,1,0
4895,-3,-1,1,-1,-2,-3,1,-2,0
4900,-1,-2,-2,0,0,-2,1,-1,0
4905,2,2,0,-1,0,-1,0,-2,0
4910,1,-1,-2,-1,0,-1,-4,0,0
4915,-1,-3,-1,-3,-2,-2,-1,-2,0
4920,-1,0,0,2,-1,2,-1,0,0
4925,-3,-1,0,-1,-1,-2,-3,-1,0
4930,-1,-2,-1,-1,-3,-1,-2,2,0
4935,-2,0,-2,-2,0,-2,-2,0,0
4940,-1,0,-1,0,-2,-1,0,1,0
4945,0,-2,1,-1,0,0,-2,-2,0
4950,-3,-1,-2,0,0,-2,0,-3,0
4955,-2,0,-1,-2,-1,-1,-1,-1,0
4960,1,-1,-1,-2,1,1,-1,-1,0
4965,-1,0,-1,1,-1,0,-5,1,0
4970,-1,-3,1,-1,-2,-3,-3,-2,0
4975,2,-2,0,-2,-2,-2,0,-1,0
4980,-4,-1,0,0,-1,-2,-2,2,0
4985,0,-2,-1,-1,0,-2,-1,-2,0
4990,-4,2,-3,-2,0,-3,-2,0,0
4995,-3,-2,-2,-1,-1,-1,-1,-3,0
5000,-1,-2,0,-1,-1,-3,-2,-2,0
5005,0,-3,-1,-1,-1,0,2,-1,0
5010,0,-2,-3,-2,-1,-3,0,-3,0
5015,-2,1,0,1,2,3,0,0,0
5020,-3,1,-1,0,-1,-1,-3,-2,0
5025,-3,0,0,-1,-2,-2,-1,0,0
5030,1,2,3,0,0,2,-2,-5,0
5035,3,-2,-4,-1,-3,-3,-3,-2,0
5040,2,-2,-2,1,-2,1,-1,-2,0
5045,1,-3,-1,-2,0,-2,0,-3,0
5050,-4,-1,-3,-3,-1,-1,-1,1,0
5055,0,1,2,0,1,2,1,-4,0
5060,1,-1,-1,-2,1,1,1,0,0
5065,0,-1,-2,0,-3,-3,-2,2,0
5070,0,-2,-1,0,-1,-1,-2,-2,0
5075,-4,-2,-2,-3,-3,0,0,-1,0
5080,0,-2,-2,-1,0,-2,-1,-3,0
5085,-4,2,-2,0,-2,-1,-2,1,0
5090,-1,-3,-3,0,-2,-1,0,-2,0
5095,1,-3,-2,0,-2,-2,0,3,0
5100,-1,-3,-1,0,-2,-1,-1,0,0
5105,-3,-2,-1,-1,-1,0,-3,-1,0
5110,0,0,-1,-2,-1,-3,1,-1,0
5115,-3,-2,-3,-2,0,1,1,1,0
5120,0,-2,0,-1,-2,-2,2,1,0
5125,-2,-1,-2,-1,0,-2,-1,-3,0
5130,-2,-2,-3,-2,-1,2,0,-2,0
5135,0,1,0,-1,0,0,-1,0,0
5140,0,-2,1,-3,0,-2,-1,2,0
5145,1,0,-2,-2,1,0,1,0,0
5150,1,1,1,-1,0,-1,-4,0,0
5155,0,0,0,1,1,-1,0,-3,0
5160,-3,0,1,-2,-2,-1,-1,-3,0
5165,-2,1,-1,-1,0,-1,-1,0,0
5170,1,0,-1,-1,-3,0,1,3,0
5175,-1,-1,-1,-2,-1,1,-4,1,0
5180,-1,-2,0,-1,-1,-1,1,-1,0
5185,0,-2,-1,-2,-1,-1,0,-1,0
5190,-3,-2,-3,0,1,0,-2,-3,0
5195,0,-2,-1,-3,-2,-2,-6,-1,0
5200,-1,0,-1,0,-1,-2,0,-1,0
5205,0,-1,-3,-3,-2,-2,-1,0,0
5210,-1,0,-1,-2,-3,-1,1,-2,0
5215,2,-2,-1,-1,-2,-5,-3,-1,0
5220,-2,0,-2,-2,0,2,-1,1,0
5225,-1,-2,0,0,0,0,-3,-2,0
5230,0,0,0,-1,1,0,-3,2,0
5235,-4,-1,-2,0,-1,-1,2,-1,0
5240,1,0,0,-1,0,-1,-3,-1,0
5245,-3,-2,-3,-1,-1,-1,0,-1,0
5250,0,0,-1,0,-1,0,-2,0,0
5255,0,-2,-1,-1,-1,-2,-1,0,0
5260,-1,0,-2,-2,1,-3,-2,-1,0
5265,1,0,-1,-1,0,2,-1,-3,0
5270,0,-3,-1,-3,-1,0,-1,-2,0
5275,-2,0,1,-4,0,-2,3,0,0
5280,-2,1,-2,1,-1,0,-3,-1,0
5285,-1,0,-1,-2,-1,-2,-1,-1,0
5290,-3,-1,-2,0,-2,-3,1,2,0
5295,-2,-2,-1,0,-1,-1,-1,-1,0
5300,0,-2,-1,-1,0,0,1,-1,0
5305,-1,2,2,-1,-3,-2,-3,-2,0
5310,-3,1,-1,-2,1,0,-5,-2,0
5315,0,0,-1,-3,-3,-2,-3,-3,0
5320,-1,-1,-1,1,0,0,-2,-1,0
5325,-1,-1,-1,-1,-1,-1,2,0,0
5330,-2,-3,-1,-2,-2,-3,0,-2,0
5335,-2,0,-1,-1,-2,-1,-2,-1,0
5340,2,1,0,-1,-2,-1,-2,-5,0
5345,-2,-1,1,-1,-3,0,-2,1,0
5350,-2,0,1,-1,0,-1,-2,-1,0
5355,-1,-3,-2,1,-1,0,1,-4,0
5360,0,-1,-1,-1,-2,-2,1,-1,0
5365,-1,-1,-3,-2,-1,0,-3,0,0
5370,-2,0,-3,-2,-1,0,-3,-2,0
5375,-1,-2,-4,-2,-2,-1,-1,0,0
5380,1,-1,0,-2,-2,-4,0,1,0
5385,1,-2,0,-1,-1,-3,1,-1,0
5390,0,0,2,0,-1,-2,1,-1,0
5395,2,0,1,-2,-1,-3,0,-2,0
5400,1,-2,-3,-2,0,0,-3,-2,0
5405,-3,-2,0,-3,-2,-1,-2,1,0
5410,1,-3,-2,-1,1,-1,0,-1,0
5415,-1,-2,0,-2,1,0,2,0,0
5420,-5,-1,1,-2,0,-1,-2,2,0
5425,0,0,0,-1,-3,-2,0,-3,0
5430,0,0,0,-1,-1,-1,-3,0,0
5435,-1,-1,-1,-1,-2,-1,0,1,0
5440,2,-2,-2,-1,0,0,-2,0,0
5445,-2,0,0,-2,0,-1,-1,-3,0
5450,1,-1,-3,-1,-2,-3,0,-1,0
5455,-2,0,-1,0,-2,-1,-1,0,0
5460,-3,-1,-2,-3,-3,-3,0,1,0
5465,-2,-2,-1,-1,0,0,-2,-3,0
5470,1,-2,0,-1,-1,-1,-3,0,0
5475,-1,1,-4,0,1,0,-1,-2,0
5480,0,1,-1,0,-1,1,-1,-3,0
5485,0,-2,-2,-1,-1,0,-2,-2,0
5490,-3,-2,1,-1,-2,0,3,-1,0
5495,-1,-2,-3,-2,0,0,-3,-1,0
5500,-2,-1,1,0,-3,0,-1,2,0
5505,-1,-1,0,-1,-1,-2,-1,-2,0
5510,0,0,-1,0,-2,1,-2,1,0
5515,-2,-1,-3,-2,-1,-1,-2,1,0
5520,0,-1,0,-2,-1,-2,-1,-3,0
5525,1,-1,0,-2,2,1,-1,-2,0
5530,1,-1,-3,-1,-2,-5,-2,0,0
5535,0,1,3,-3,-2,-2,0,-3,0
5540,-2,-2,0,-2,-2,-3,-2,-1,0
5545,0,0,0,-1,-3,-2,0,0,0
5550,-2,-2,0,-2,-2,-2,-3,-2,0
5555,-2,-3,-1,2,-1,1,1,1,0
5560,0,-2,-2,-4,0,1,0,-1,0
5565,0,-1,-2,-1,-1,-3,0,-3,0
5570,-2,0,-2,-2,-1,0,1,-1,0
5575,0,-1,-3,-1,-2,-1,-1,0,0
5580,-2,-2,-2,0,-2,-2,-2,-3,0
5585,-2,-2,0,0,0,-2,0,1,0
5590,0,-1,1,0,0,2,-1,-3,0
5595,-3,-1,-1,-2,-1,-2,0,0,0
5600,-2,1,-1,2,0,1,-2,-1,0
5605,-1,-1,-2,-3,-2,0,-1,0,0
5610,-2,-1,-1,-1,0,2,-3,-2,0
5615,-2,-2,0,-2,1,-1,-1,1,0
5620,-1,-3,-1,-1,-1,-2,-2,-2,0
5625,0,0,-4,0,-1,0,-1,1,0
5630,0,0,-1,-2,-3,-2,4,0,0
5635,1,0,-1,0,-1,0,-1,-1,0
5640,0,1,-1,0,1,0,-1,0,0
5645,1,-3,1,0,0,-3,-4,-2,0
5650,-2,-2,-2,-3,0,-2,-2,-4,0
5655,-1,0,1,-1,-1,-3,-2,1,0
5660,-3,-2,1,-2,-2,-2,0,0,0
5665,2,-2,0,-2,-1,-1,0,-1,0
5670,-1,-1,1,2,-1,-1,0,-2,0
5675,-2,-1,-1,0,1,-2,-1,-3,0
5680,-1,-1,1,0,0,0,0,-1,0
5685,-4,-1,-2,-1,-3,-2,-1,1,0
5690,-2,0,-3,-3,0,-1,-4,3,0
5695,0,-2,1,-1,-1,-1,-4,-3,0
5700,-1,-2,0,-1,-2,-1,-1,-2,0
5705,-2,0,-1,-1,0,-1,1,-2,0
5710,-1,-2,-1,-1,-2,-3,-3,1,0
5715,-2,0,-1,-2,1,2,-4,1,0
5720,-1,-2,-2,-2,-1,-4,-1,-3,0
5725,-2,-2,0,0,-1,0,3,1,0
5730,-2,-2,-2,-2,1,0,0,-2,0
5735,0,0,-2,-2,2,0,-1,1,0
5740,0,0,1,0,0,0,-3,1,0
5745,2,-2,-2,-1,0,2,-2,-4,0
5750,2,-2,-2,-1,-1,-2,0,-1,0
5755,-1,-1,-1,-2,-4,0,2,-2,0
5760,0,-3,-2,0,-1,0,-2,-1,0
5765,0,0,-1,-1,2,-2,-1,-3,0
5770,0,-1,1,-1,-1,0,2,1,0
5775,0,-1,-1,0,-2,-1,-2,-1,0
5780,-3,-2,-2,-2,-1,-1,1,3,0
5785,-2,0,-1,-3,-2,0,-2,-4,0
5790,0,-2,-1,-2,-3,-2,0,-1,0
5795,-1,-1,-4,-2,0,-3,-2,-1,0
5800,1,0,-2,-2,1,1,1,0,0
5805,-2,2,-2,0,-1,-2,-4,-1,0
5810,0,-1,-2,-1,-1,-1,-2,-1,0
5815,0,-2,0,-1,-3,-3,-3,-1,0
5820,-2,0,-1,0,0,0,-2,0,0
5825,-2,-3,-2,-1,-2,-4,0,2,0
5830,-3,-1,-2,1,-2,0,-2,0,0
5835,1,-3,1,0,-2,-1,0,-2,0
5840,-1,0,-1,-2,-1,-2,1,-4,0
5845,-3,0,-1,-1,-2,1,-3,1,0
5850,-1,0,-1,-1,-2,-2,1,-1,0
5855,0,0,0,1,-2,-4,-3,-2,0
5860,-2,-2,0,-1,-2,-4,0,1,0
5865,0,-2,-2,1,-1,2,0,1,0
5870,-1,-1,0,-1,-1,0,-3,-3,0
5875,-1,-2,-2,-2,-2,-2,-1,1,0
5880,2,-2,-1,-1,-1,2,-1,2,0
5885,1,0,0,-3,1,-3,1,-3,0
5890,-2,-1,1,-1,1,3,-2,-4,0
5895,-4,-2,-2,-2,-4,0,1,-3,0
5900,-1,-2,1,-2,-3,-2,-1,-2,0
5905,-2,-3,-1,-1,-2,2,-1,0,0
5910,0,0,-2,0,-2,-3,1,3,0
5915,1,0,0,-3,-1,0,-1,0,0
5920,-2,0,-1,0,-1,-2,-1,-4,0
5925,0,-2,-1,-1,-1,-1,-3,2,0
5930,-2,-2,-2,-1,-2,-3,-2,-3,0
5935,0,-1,1,0,2,0,1,-1,0
5940,0,0,-2,0,-3,0,0,-1,0
5945,-1,0,0,-1,-1,-3,0,-3,0
5950,-1,-3,-1,-2,-1,0,-1,0,0
5955,-2,-2,-1,0,3,-1,0,1,0
5960,-3,0,-1,-2,-1,-4,0,-1,0
5965,-2,-2,-2,1,-3,-2,-2,-2,0
5970,-1,-1,-2,0,0,2,-2,-3,0
5975,-3,-1,-2,-2,-1,2,-1,-4,0
5980,-1,0,-3,-2,0,-1,-1,0,0
5985,-1,-2,-2,0,-1,0,-2,3,0
5990,2,-1,-1,-3,-1,-4,-7,0,0
5995,-1,-1,1,1,-1,0,3,-1,0
6000,-1,1,-1,0,-2,0,0,1,0
6005,0,-1,-2,-3,-2,-1,1,-4,0
6010,-2,0,-3,0,0,-2,-2,-1,0
6015,-2,0,-1,0,-1,-1,-3,-2,0
6020,0,-2,-2,-1,-2,-3,1,-1,0
6025,-1,-1,-1,-1,-1,-2,-3,-1,0
6030,0,-1,1,-2,-2,-1,1,1,0
6035,0,0,-2,-1,-2,-2,1,-1,0
6040,1,-2,1,-2,-3,-2,-1,-1,0
6045,0,-1,1,0,2,0,0,-4,0
6050,0,-1,1,-1,-3,-2,-1,-5,0
6055,0,-1,0,-1,-1,-3,-2,-1,0
6060,-1,-1,-2,-1,-3,1,-1,-2,0
6065,-1,0,0,-2,-1,-2,1,-2,0
6070,-2,-1,-1,0,1,2,-3,-1,0
6075,-1,-2,-1,-1,0,-1,-1,-3,0
6080,0,-2,0,-2,0,1,-2,-1,0
6085,-3,-1,-3,-1,-2,-2,-1,-2,0
6090,-2,-1,0,1,-1,-1,1,1,0
6095,0,-2,-2,0,1,-1,-1,-3,0
6100,0,-2,-2,1,0,-2,-2,-3,0
6105,-1,-1,-2,-1,-2,1,0,-3,0
6110,0,-1,-4,-2,-3,-1,0,2,0
6115,1,-1,-1,1,-2,-1,-2,-1,0
6120,-2,-2,1,-1,0,0,-2,-1,0
6125,-1,0,-2,1,-1,0,2,-3,0
6130,1,0,-4,-3,0,-1,-1,0,0
6135,2,-4,-2,-2,0,-3,0,4,0
6140,-1,-3,-1,-2,-4,-1,-3,0,0
6145,-2,0,-2,-2,-3,-2,-5,0,0
6150,-2,-2,3,-1,0,0,0,-6,0
6155,-1,1,-2,-2,-1,1,1,-3,0
6160,-1,-2,-1,0,2,-2,-1,-5,0
6165,0,-1,-1,-2,-1,-3,-1,1,0
6170,0,-4,-1,-1,-1,1,-1,1,0
6175,-1,-1,2,-1,-1,0,-2,2,0
6180,-1,0,0,0,0,-1,-1,1,0
6185,0,-1,1,-4,0,1,-1,-1,0
6190,-2,-1,-2,-1,0,-1,-2,-2,0
6195,-3,2,-2,-1,-3,-2,-2,-3,0
6200,0,-1,-4,-1,-2,1,-2,2,0
6205,-3,-1,0,2,-1,-2,-2,-3,0
6210,-4,0,-2,-1,0,-3,1,1,0
6215,-1,-4,0,0,-2,-1,0,2,0
6220,1,-1,-1,0,0,-2,-1,0,0
6225,2,-2,1,-1,0,-1,0,0,0
6230,-1,0,-1,0,-2,0,-1,-1,0
6235,-2,-2,-1,0,-2,1,-4,-2,0
6240,-3,-1,-1,-1,-1,-2,2,1,0
6245,2,-2,-2,-1,-1,-1,0,1,0
6250,2,0,-2,-2,0,1,1,0,0
6255,-4,0,-1,0,-1,-2,-1,-2,0
6260,0,-1,-2,-3,0,3,-2,-1,0
6265,0,-1,1,1,-2,-3,0,-1,0
6270,-1,1,-1,0,-1,-3,0,-3,0
6275,-2,-1,0,-2,0,-2,-3,-2,0
6280,-2,-1,1,-3,-3,-2,1,-1,0
6285,-3,0,-1,-1,0,-2,-1,-3,0
6290,1,-4,-1,-2,-1,0,1,2,0
6295,-1,-1,-2,0,-1,2,-2,0,0
6300,3,0,-2,2,0,-1,-1,-4,0
6305,0,-1,-4,-1,0,-2,0,-1,0
6310,1,0,0,-2,-3,-3,0,-1,0
6315,-1,1,-2,-1,-1,-1,-2,-1,0
6320,-1,-3,-1,-2,-2,-2,0,0,0
6325,0,0,0,-1,-1,1,-4,1,0
6330,-1,-3,0,-2,0,2,-2,0,0
6335,1,-3,-2,-2,-3,-2,-1,0,0
6340,0,-1,-1,2,-1,-1,-2,-3,0
6345,-1,0,1,-1,-1,-1,-3,0,0
6350,-3,-1,1,0,2,0,0,-1,0
6355,1,-2,-1,-1,-2,-1,-1,0,0
6360,-1,1,-1,0,0,-2,-1,-2,0
6365,-2,-2,0,-2,-1,-1,0,-1,0
6370,-2,-1,-2,0,-3,-1,-1,-2,0
6375,-2,1,-1,0,1,-3,1,1,0
6380,-1,-2,0,-2,0,-2,-4,1,0
6385,-1,-1,-2,-2,0,0,1,-1,0
6390,-3,0,-1,-1,-2,-1,0,0,0
6395,2,-1,-1,-2,-1,-2,2,-2,0
6400,-2,-2,-2,-3,-3,-2,-3,2,0
6405,2,-2,0,0,-1,-1,0,-1,0
6410,-1,0,-2,-1,0,-2,-3,-3,0
6415,-1,-1,0,-1,-1,-1,-1,0,0
6420,-3,-3,-1,0,0,-3,0,1,0
6425,-1,-1,-3,-2,0,0,1,-1,0
6430,0,0,-1,-1,0,-2,-2,-1,0
6435,-2,-3,1,-2,-2,0,-2,-2,0
6440,0,0,0,0,-1,1,0,-1,0
6445,-1,-2,-1,-1,-1,-1,0,-1,0
6450,1,-2,-3,-1,-2,-3,-3,-3,0
6455,0,0,-1,-1,-1,1,1,2,0
6460,0,-1,1,1,-1,-1,-1,-3,0
6465,-3,-2,-1,0,-1,0,-1,-1,0
6470,-3,-2,-1,-2,-2,-3,1,0,0
6475,1,-2,-2,0,-1,-3,-2,-2,0
6480,-2,2,0,-1,-2,-2,0,0,0
6485,-2,-3,-2,-1,-4,-3,0,-1,0
6490,-3,-1,0,0,2,1,-3,1,0
6495,-1,-1,-1,-1,0,0,-3,-3,0
6500,-2,-1,0,-2,1,-2,2,-1,0
6505,0,-1,-1,-3,-4,-1,-2,0,0
6510,0,-2,1,0,-2,-5,-2,0,0
6515,1,-1,-1,0,1,0,-1,-3,0
6520,0,-1,-1,-1,-1,2,-1,0,0
6525,-2,0,-1,-1,1,-2,-3,-2,0
6530,-1,-3,-2,0,-1,1,-2,0,0
6535,-3,0,1,-1,0,-2,0,1,0
6540,-1,-3,-1,-2,0,0,-3,-4,0
6545,-3,1,-3,0,-2,0,-2,-2,0
6550,-4,0,-2,-1,-2,-1,-1,-1,0
6555,-1,-1,-1,-2,-3,-2,1,-1,0
6560,-2,-1,-2,-3,-1,-2,-1,-2,0
6565,2,0,-1,-1,-2,-2,-2,-2,0
6570,-1,-1,-2,-2,-1,-2,0,-2,0
6575,-4,-3,-1,1,-1,0,0,1,0
6580,2,0,0,-1,0,-1,-1,-2,0
6585,0,-1,0,-3,3,3,0,0,0
6590,-3,-2,-3,-2,-2,-1,-2,-1,0
6595,0,0,-2,0,0,1,-4,-3,0
6600,0,-1,-1,0,-1,0,-2,-1,0
6605,-1,-3,-3,0,-1,-1,-1,3,0
6610,1,-2,0,-2,-1,-2,-1,-2,0
6615,0,-1,-3,-1,-1,-4,1,-4,0
6620,-2,0,-1,0,-3,-1,-2,-1,0
6625,-3,-2,0,-1,-1,1,0,-2,0
6630,-2,-1,-1,1,2,-1,4,-3,0
6635,0,-1,-1,-2,-1,-2,-2,1,0
6640,0,-2,-2,-1,-1,-1,-4,0,0
6645,-2,-1,-1,-1,-1,0,0,-1,0
6650,-1,1,-2,-2,0,0,-2,-1,0
6655,2,-2,0,-1,-1,0,0,-1,0
6660,0,-1,-1,-2,-1,-2,2,0,0
6665,-1,-1,-1,-1,-2,1,0,-2,0
6670,-3,-2,-1,0,-3,-3,-1,-2,0
6675,-1,0,-1,-2,-2,-1,-1,0,0
6680,-1,-2,-3,-1,0,0,-2,1,0
6685,0,0,1,-1,0,-2,-2,0,0
6690,-1,-2,-2,-2,-3,-2,-4,-1,0
6695,-3,-2,0,-2,0,0,0,-2,0
6700,-3,-2,-1,-2,-1,0,-3,-3,0
6705,-2,-1,-2,-1,-2,-3,0,2,0
6710,1,1,-2,-1,-1,1,-1,-1,0
6715,-1,-1,0,-1,-1,-4,-2,-1,0
6720,0,0,0,1,-1,-2,-3,-3,0
6725,-2,-2,-2,-1,0,-2,-2,-2,0
6730,-2,-2,-1,-1,0,0,-2,1,0
6735,-2,-3,-2,-1,-2,-1,0,-2,0
6740,-1,-2,0,0,-2,0,-2,-1,0
6745,2,0,-2,-2,-2,-2,0,0,0
6750,2,-2,2,0,0,0,-2,-2,0
6755,-1,0,0,-2,0,-3,0,-1,0
6760,0,-1,-1,-2,-1,0,2,2,0
6765,-1,-1,1,-2,0,-2,-4,-6,0
6770,-2,-1,0,-3,0,-1,0,2,0
6775,-2,0,-1,-1,-1,-1,-2,-2,0
6780,-2,-2,-2,1,0,0,0,-3,0
6785,-2,-1,-1,-1,-2,-1,-3,-2,0
6790,-1,-2,-3,-2,0,1,-1,-3,0
6795,3,0,3,1,-1,0,0,0,0
6800,1,0,0,-1,-1,-2,-1,-2,0
6805,2,-1,-1,-1,-1,0,-1,-2,0
6810,-2,-4,-1,-2,-1,-1,0,0,0
6815,-3,-2,-2,-1,-4,-1,-3,1,0
6820,0,-2,-2,0,0,0,-4,-3,0
6825,-2,-3,-3,0,2,-1,-3,1,0
6830,1,2,1,-2,0,-1,2,1,0
6835,0,2,0,-2,-1,2,-2,1,0
6840,-2,-1,1,-2,-2,-2,0,2,0
6845,-2,0,-1,-1,-1,-1,-1,0,0
6850,-1,-1,-2,-2,-4,-1,-2,-5,0
6855,0,-1,-1,-2,-1,-1,0,2,0
6860,2,-1,-1,-1,-2,0,-1,-2,0
6865,0,-1,0,-2,-2,0,0,0,0
6870,0,-1,-2,-2,-1,0,0,-5,0
6875,-1,1,1,-1,-2,-2,-5,1,0
6880,-1,0,-2,-1,0,-2,0,-2,0
6885,0,0,-1,0,-2,-4,-2,-2,0
6890,0,-1,-3,-2,-2,-4,-2,2,0
6895,0,-2,-3,-2,-2,0,2,-1,0
6900,-1,-2,-2,-1,2,-1,1,-1,0
6905,1,0,-1,-2,-1,-1,0,-2,0
6910,0,-3,-1,0,1,-1,-1,-1,0
6915,-2,-2,0,-1,0,0,1,0,0
6920,0,-2,-2,-2,-2,-2,0,-2,0
6925,-2,-2,-1,1,-5,-2,-1,0,0
6930,0,-2,-2,-2,-4,0,0,0,0
6935,-2,-2,-1,-1,-2,-4,-2,-2,0
6940,-2,0,2,0,2,2,-1,1,0
6945,-4,-3,-2,-4,-2,-2,-2,-1,0
6950,-2,-2,-1,0,1,-2,0,0,0
6955,-2,-2,0,1,-3,0,-1,-3,0
6960,-1,-3,-1,-1,-4,-1,0,-3,0
6965,-2,0,-1,-3,-1,1,0,1,0
6970,-3,-1,1,0,-2,3,-3,1,0
6975,1,-2,-4,-1,1,-3,-3,0,0
6980,0,-1,-1,-1,-1,-3,-1,0,0
6985,0,0,0,0,3,0,-2,-2,0
6990,0,-2,-2,-2,0,-1,1,-1,0
6995,-1,-1,-1,0,0,-1,-2,1,0
7000,-2,-1,0,-3,0,1,-2,-1,0
7005,0,-2,-4,-2,-2,-2,1,-2,0
7010,-2,0,0,0,-1,0,0,-2,0
7015,-1,-1,-2,-2,-1,-1,1,-3,0
7020,-4,-1,-2,0,0,-1,-3,-1,0
7025,1,-1,0,-3,-5,0,3,-1,0
7030,-2,1,-1,0,0,-2,-1,-2,0
7035,0,-1,-1,0,-1,-3,-3,1,0
7040,0,-3,-3,-1,0,-4,-2,1,0
7045,-4,-1,-2,0,-1,-2,-1,0,0
7050,-1,0,0,-2,-3,-1,0,-1,0
7055,0,-1,1,-1,0,0,1,-2,0
7060,-2,-1,-3,-1,1,-1,0,-3,0
7065,-1,-2,-1,1,-1,-1,-4,1,0
7070,-2,-1,-2,0,3,-1,-1,-2,0
7075,-2,-1,-2,-1,0,-2,0,0,0
7080,-1,-4,0,-1,-1,-2,0,2,0
7085,1,0,-1,-2,-1,-4,-1,-2,0
7090,-3,-1,-1,0,-1,-1,-4,-3,0
7095,-1,0,-1,2,-1,-1,-1,-4,0
7100,1,0,0,0,-1,-1,-1,-2,0
7105,-3,-3,-1,-1,0,-4,-4,-1,0
7110,0,0,0,1,0,-4,0,-1,0
7115,-2,-1,-1,-2,-1,-1,1,0,0
7120,-1,-3,-1,-2,-2,-3,-1,-3,0
7125,-4,-1,0,-1,0,0,-3,0,0
7130,1,-3,-1,-1,0,0,-1,0,0
7135,-1,-1,0,0,-1,-1,-3,-3,0
7140,0,-2,1,-2,-1,1,0,-1,0
7145,-1,0,-2,-1,0,2,-5,-1,0
7150,-1,-1,-1,-3,-1,-3,-1,-1,0
7155,0,-2,2,-3,1,-2,-3,-4,0
7160,-2,-1,-2,-1,-3,0,-1,-2,0
7165,1,0,2,-3,0,1,2,0,0
7170,0,-1,-3,-2,-2,1,0,0,0
7175,1,0,-1,0,-1,-2,0,4,0
7180,-3,-2,0,1,-4,-1,-2,1,0
7185,-2,-2,0,0,0,0,-4,-3,0
7190,-2,-1,0,-1,0,-2,-3,-2,0
7195,0,-3,-2,1,-2,-1,1,-2,0
7200,1,1,-3,-3,0,0,2,3,0
7205,-2,2,-3,-1,-2,0,4,-4,0
7210,2,-1,0,-1,-2,-1,-1,-1,0
7215,-2,-2,1,-2,-2,0,-3,1,0
7220,-4,1,0,-3,-2,-3,-1,-3,0
7225,0,-2,-4,-1,-1,0,-1,-1,0
7230,-1,-1,-3,-1,-2,-3,-1,1,0
7235,-2,0,-2,0,-1,0,1,-3,0
7240,-1,-2,0,1,1,-2,-1,-4,0
7245,0,-3,0,0,-3,-2,2,2,0
7250,-1,-1,-3,0,-1,-1,-4,0,0
7255,-1,-2,0,-1,0,-2,-4,-1,0
7260,0,-2,-1,-2,-1,-2,-2,2,0
7265,-1,0,-1,-2,-2,-3,-1,-3,0
7270,-1,0,0,-1,0,1,1,-4,0
7275,2,-2,-3,-4,-1,-1,1,-3,0
7280,2,-3,-2,-1,0,-1,-1,1,0
7285,0,0,-1,-1,-2,-2,-1,2,0
7290,-1,-3,-1,-3,-1,0,-1,-1,0
7295,-1,0,-3,0,0,-1,1,2,0
7300,-1,-1,1,1,-1,1,0,0,0
7305,-2,-2,-2,0,-1,-3,-2,0,0
7310,-2,0,-2,-1,-1,0,1,0,0
7315,-3,-1,0,-1,-1,-2,-2,0,0
7320,-2,0,-2,-1,0,-3,-3,1,0
7325,-4,-1,1,-1,0,1,2,-3,0
7330,-1,0,-2,-2,-3,-2,-2,0,0
7335,-2,-2,0,-1,1,-1,0,0,0
7340,-3,-1,-1,0,-2,-2,-2,-4,0
7345,0,-1,-1,-3,-2,0,-1,-3,0
7350,-2,-2,-2,-2,-3,-3,-4,-1,0
7355,-2,0,1,1,-1,1,3,3,0
7360,-1,2,-1,-1,-2,1,0,0,0
7365,-1,0,-1,-3,1,-3,-3,-2,0
7370,-2,-1,-2,0,1,0,2,1,0
7375,-1,0,0,-3,-3,-3,-2,-1,0
7380,-1,-2,0,-2,-1,2,-3,1,0
7385,1,-1,0,2,-1,-3,-2,0,0
7390,1,-2,1,0,0,-1,-1,-1,0
7395,0,-4,-3,-2,-3,-2,-2,-3,0
7400,-2,0,-1,-1,1,0,2,-2,0
7405,1,-2,-2,-3,-1,-1,-3,1,0
7410,-1,-2,-2,-3,-2,-3,1,-3,0
7415,-1,-4,-2,-1,0,0,0,-3,0
7420,-3,0,0,1,-2,-1,-2,0,0
7425,-2,-1,-4,-3,-2,-2,-3,0,0
7430,-4,2,1,-2,-3,-4,1,2,0
7435,-3,0,0,-2,-1,0,-2,-3,0
7440,1,-2,-3,-2,-1,1,1,0,0
7445,-2,0,0,0,1,2,0,-1,0
7450,-2,-3,-2,0,-2,-4,-1,-1,0
7455,2,0,0,-1,1,0,-1,-1,0
7460,-2,2,1,-1,-1,-1,-4,-4,0
7465,-3,-3,-4,-1,1,-2,2,2,0
7470,1,-1,-1,-2,0,2,1,-2,0
7475,2,-1,1,1,-1,-3,-2,-2,0
7480,-1,-2,-3,-3,0,-4,1,-2,0
7485,1,-2,0,1,0,-1,-1,0,0
7490,-1,-1,0,-2,-3,-2,-1,-2,0
7495,-3,1,-1,-2,-3,0,0,0,0
7500,1,1,-1,-1,-3,-2,-3,-1,0
7505,-6,-1,0,-2,-1,2,0,-2,0
7510,0,-2,-1,0,0,1,-1,-3,0
7515,0,-2,-2,-2,-5,-2,0,-2,0
7520,0,-3,0,-1,-1,-2,-1,2,0
7525,-2,-2,-3,-3,-5,-4,-4,-2,0
7530,0,0,-3,-1,1,-1,-1,1,0
7535,-2,0,-2,-1,-2,-2,-4,-2,0
7540,-2,-2,-1,-2,-1,-3,-1,-3,0
7545,-1,0,2,0,0,1,-2,0,0
7550,2,-2,-2,0,1,1,-1,-2,0
7555,0,0,-2,-1,-2,-1,-1,-1,0
7560,-1,0,-2,-1,1,-1,-2,0,0
7565,-3,-1,-2,-1,-1,-2,-2,-3,0
7570,-2,0,1,1,-1,-2,0,-2,0
7575,0,-2,-1,-2,-1,-2,-1,1,0
7580,-1,-1,-1,-1,1,-2,1,1,0
7585,2,-2,-1,-1,-2,-1,-6,-2,0
7590,1,0,2,-2,0,-2,-2,0,0
7595,0,1,0,1,0,-2,-1,-1,0
7600,-3,-1,0,-3,0,-1,1,-3,0
7605,1,-2,-2,0,-1,-2,0,-1,0
7610,-2,-1,1,-2,-3,-2,0,0,0
7615,-2,1,0,0,1,-2,-2,-3,0
7620,0,0,0,0,0,-2,-1,0,0
7625,-1,0,0,1,1,-1,1,0,0
7630,0,-3,-2,0,0,1,-4,0,0
7635,-2,-3,0,-2,-1,2,0,1,0
7640,0,-1,-2,-1,-1,0,-2,-1,0
7645,-1,-3,0,-1,-1,0,0,0,0
7650,1,-1,-1,-4,0,-3,-2,-2,0
7655,-1,-1,-1,2,2,-2,-2,1,0
7660,-3,0,-2,0,-2,1,-2,-3,0
7665,1,-1,0,-2,-1,0,-5,-1,0
7670,-2,0,-3,-3,-1,0,0,-1,0
7675,-2,-2,1,-1,-3,-3,-1,0,0
7680,-2,-3,-1,-3,-5,-3,1,-1,0
7685,1,0,-1,-1,0,0,0,-2,0
7690,-1,-2,0,0,0,0,-2,-1,0
7695,1,-1,-3,-3,-3,-1,-4,-4,0
7700,0,-3,0,0,1,2,3,0,0
7705,-1,0,-3,-3,-2,-4,-2,-2,0
7710,-2,-1,-1,0,-1,-3,-3,1,0
7715,-1,0,-1,-2,-1,-2,-1,1,0
7720,4,2,1,2,-1,-1,-2,1,0
7725,-1,0,-1,0,-1,0,2,-1,0
7730,-1,-2,0,-1,-1,1,1,-1,0
7735,2,-2,-1,-2,2,-1,1,-3,0
7740,-4,-1,-2,0,0,-1,-1,0,0
7745,1,0,-1,-1,0,2,2,-1,0
7750,-1,-1,-1,-2,-2,-1,1,-1,0
7755,-3,-1,1,-3,-2,0,-1,-2,0
7760,0,-3,-2,-2,-5,-2,1,-2,0
7765,-2,-2,0,1,-2,-4,-1,-1,0
7770,-3,0,-3,-2,0,-1,-3,-1,0
7775,-2,0,-1,-1,-1,1,-3,-3,0
7780,2,1,-3,-1,-2,-3,1,-1,0
7785,-2,-2,-1,0,-2,-3,-1,-4,0
7790,1,-1,-1,0,1,-1,1,-4,0
7795,-1,-3,-2,0,-2,-1,-2,1,0
7800,-1,-3,0,-1,-1,-2,-2,2,0
7805,0,-2,1,-4,2,-1,-2,1,0
7810,-2,0,-2,1,-3,-1,2,-2,0
7815,0,-1,-2,0,2,1,-1,1,0
7820,-2,-1,-1,0,-3,-1,-3,-4,0
7825,-1,-2,-3,0,-1,-1,0,-4,0
7830,0,-1,-1,-2,0,1,-1,-1,0
7835,-2,-1,-3,-1,0,0,1,0,0
7840,-1,-3,-1,-2,1,-2,-2,-2,0
7845,0,-1,-2,-2,-1,-3,-1,-1,0
7850,-3,1,-2,0,-3,1,-1,-1,0
7855,3,-1,0,0,-2,-2,0,0,0
7860,-1,-1,-3,-2,-2,-2,-4,2,0
7865,-2,1,0,-2,-2,0,0,-2,0
7870,-5,-1,-2,-2,-8,-7,-5,-1,0
7875,1,-2,2,2,12,7,3,-2,0
7880,1,-1,1,-1,-4,-5,-2,-1,0
7885,-5,-1,-1,-2,-4,-2,-1,-1,0
7890,0,1,1,-1,2,3,1,2,0
7895,-4,-3,-3,-4,-6,-6,0,1,0
7900,-1,-2,0,0,2,1,2,-1,0
7905,-1,-3,-1,0,0,0,-2,0,0
7910,-2,-1,-2,-4,-1,-4,-3,2,0
7915,1,0,0,0,0,2,2,0,0
7920,0,-2,-2,-1,2,1,1,-1,0
7925,-1,1,-2,-2,-4,-2,1,1,0
7930,1,1,0,-1,0,0,-3,-2,0
7935,-1,-1,1,-2,-2,-1,-5,0,0
7940,-2,0,-2,0,-1,0,0,-3,0
7945,-1,1,-2,0,2,0,-2,0,0
7950,0,-2,0,-3,1,-1,0,1,0
7955,2,-1,-1,-1,-4,-4,-1,-1,0
7960,-1,2,-3,-2,0,1,-5,-2,0
7965,-1,-2,1,-2,0,1,-2,-2,0
7970,-2,-3,-1,-1,0,2,1,-2,0
7975,-2,-1,-1,-1,-3,-5,-3,-1,0
7980,-2,-1,-2,-1,-1,0,2,-3,0
7985,-2,-1,-2,0,1,-3,-4,2,0
7990,0,0,0,-2,-3,1,-3,-3,0
7995,-1,-1,-2,-1,-2,0,-2,-2,0
8000,-3,-1,0,0,-1,-3,-2,0,0
8005,-2,0,0,-1,-2,-2,-2,-2,0
8010,2,-1,-1,2,0,-3,2,-3,0
8015,-2,-1,-1,-2,-4,-1,0,-1,0
8020,-1,-1,-1,-2,0,-1,-3,0,0
8025,-2,-3,-1,-3,-3,-1,-1,1,0
8030,2,-2,0,0,1,-3,-3,0,0
8035,0,-2,-3,-1,-2,1,-1,-3,0
8040,-1,-2,2,-2,-3,-1,-1,1,0
8045,1,-2,-1,-2,1,2,0,0,0
8050,1,-2,-1,0,0,0,-3,0,0
8055,-1,-1,-3,-3,-4,0,-2,-1,0
8060,-4,0,-3,-1,-1,-2,0,-1,0
8065,-1,-2,-3,-2,-3,-1,-1,-3,0
8070,-1,-1,0,0,0,0,1,3,0
8075,0,-1,2,-2,0,-3,1,-4,0
8080,-2,-1,-1,-1,-2,0,0,-1,0
8085,-2,0,-2,-1,-1,-1,0,1,0
8090,-1,-2,-2,-2,-2,-2,-1,-1,0
8095,-1,-1,0,0,-2,-3,-3,0,0
8100,0,-1,-2,-1,0,0,-3,1,0
8105,3,-2,0,-1,0,-2,-1,-4,0
8110,-1,-2,0,-1,0,-1,-1,0,0
8115,-3,1,0,-1,0,-1,0,0,0
8120,0,2,-2,-1,0,1,-2,-1,0
8125,-1,0,-1,1,-2,0,-2,-1,0
8130,-2,-2,-2,-3,-2,-2,-3,-1,0
8135,-2,-1,-1,-2,0,0,-2,-1,0
8140,1,-3,1,-2,-1,0,1,0,0
8145,-3,0,0,-1,1,0,0,-2,0
8150,-2,-3,-1,-1,-1,-2,-1,-3,0
8155,0,-2,-2,-2,-1,-1,0,2,0
8160,-2,-2,-2,-2,-2,-4,0,0,0
8165,-2,-2,-2,-1,-1,0,-2,-1,0
8170,-1,2,-1,-1,-1,0,-2,-4,0
8175,-2,0,0,0,-1,-3,-2,-1,0
8180,-1,-1,-2,-1,0,0,-1,-3,0
8185,-1,-2,0,0,0,-3,1,-2,0
8190,1,1,-1,0,-1,-3,-5,-2,0
8195,0,-1,-2,-3,1,-1,-1,-1,0
8200,0,-2,0,-2,-2,-2,-2,-1,0
8205,-1,0,-1,-1,-3,-1,1,-2,0
8210,-1,0,-1,0,0,1,1,-2,0
8215,1,0,-1,-2,-2,-2,-3,-2,0
8220,-3,-2,0,-1,-1,-2,-4,-3,0
8225,-2,0,-2,-1,-2,-2,0,1,0
8230,1,-2,-2,-1,-4,-4,0,-1,0
8235,-4,-1,-2,-1,-1,2,0,1,0
8240,-4,0,-2,-1,0,-2,-3,-3,0
8245,3,-2,1,0,2,-2,0,1,0
8250,-1,-1,-1,0,-2,2,0,1,0
8255,1,-2,-1,0,-1,-3,-4,0,0
8260,-3,-1,-2,-3,-6,-8,-2,0,0
8265,-1,0,-1,-1,4,14,-1,1,0
8270,3,-1,1,0,3,1,-1,0,0
8275,-1,-2,-1,0,-1,-2,2,-1,0
8280,1,-2,0,1,-2,-1,1,0,0
8285,-2,1,-5,-2,-4,-4,-2,-1,0
8290,-1,-1,-1,-2,-2,-1,-1,0,0
8295,0,-1,0,-2,-1,0,-1,-3,0
8300,-1,0,1,-2,2,4,-2,-1,0
8305,-1,-1,0,-3,-2,-5,-1,1,0
8310,-1,-1,-2,0,-1,-1,-1,-2,0
8315,-2,-1,-2,0,-1,-2,-2,-1,0
8320,-1,-2,-1,0,-2,-1,-1,0,0
8325,-1,-2,1,1,-1,-1,-1,-1,0
8330,0,0,0,-1,-1,-2,-1,-2,0
8335,1,1,1,-1,-1,1,-1,2,0
8340,1,-1,-1,-2,0,1,1,-1,0
8345,0,-1,-3,-2,-2,0,-1,-2,0
8350,-4,-1,0,-1,-3,-1,-1,2,0
8355,-3,-1,-1,-1,0,-2,-2,-4,0
8360,1,-2,-2,-2,-1,2,1,-3,0
8365,-1,-1,-1,-1,-1,-4,-1,2,0
8370,1,-1,1,-2,-2,-1,-1,-1,0
8375,-1,-2,-1,0,-2,1,0,-1,0
8380,-2,2,-1,1,0,-1,2,0,0
8385,1,-2,-3,-1,-3,-1,-2,-3,0
8390,-3,-2,0,-3,0,-1,1,0,0
8395,-1,-1,0,-1,-1,-3,-3,-1,0
8400,2,-3,-2,-1,2,0,-2,-1,0
8405,-3,-2,-1,-1,-2,-2,-2,-1,0
8410,-1,-1,-3,0,-3,-3,0,-1,0
8415,-1,-2,-3,-1,-3,0,1,3,0
8420,-4,-4,-1,-1,-1,3,-3,-1,0
8425,-1,2,-1,-2,-2,-4,-1,-2,0
8430,-1,-1,-2,-2,-1,0,-3,-1,0
8435,0,-1,0,-1,0,-1,3,-3,0
8440,1,-1,-1,-2,-1,-2,2,-2,0
8445,-1,-3,-1,0,0,2,1,-3,0
8450,0,-1,-1,0,-2,-2,0,-1,0
8455,-1,-3,-2,-1,-1,1,-2,-1,0
8460,-2,-3,-1,0,1,-2,-1,0,0
8465,-2,2,-1,-1,-2,-2,-3,-1,0
8470,0,-2,-1,-1,-1,-5,0,-1,0
8475,-1,1,-3,-1,1,3,-1,-1,0
8480,-2,2,-2,-2,-3,-3,-3,-1,0
8485,-1,-3,0,-4,-3,-3,-2,-2,0
8490,-2,0,-1,-2,-2,-3,-2,-4,0
8495,-4,-3,-1,-1,0,-2,-1,-1,0
8500,1,-1,-2,-2,-2,0,1,0,0
8505,0,0,-1,0,0,0,0,0,0
8510,-1,-1,-2,1,2,1,2,-1,0
8515,0,-2,0,-1,-4,-2,-2,-1,0
8520,0,0,-1,0,0,-1,-3,-1,0
8525,0,-3,-1,-3,-2,-3,-2,-1,0
8530,-2,-1,0,-2,-2,-1,-2,0,0
8535,1,-2,-1,-1,0,1,-2,-2,0
8540,-4,0,-1,0,-3,0,-1,-2,0
8545,-3,-1,-1,-2,-1,-2,-2,0,0
8550,-3,-2,-4,1,1,1,-4,-5,0
8555,1,-1,-2,-3,-2,-2,-1,0,0
8560,-1,-2,0,-1,-1,-4,-4,2,0
8565,-1,-2,-3,-1,-2,0,-3,-3,0
8570,-1,0,-1,-1,1,-3,1,-3,0
8575,-2,0,0,0,0,0,3,0,0
8580,-2,-1,-4,-1,-2,0,-6,-3,0
8585,-1,-1,-1,-2,0,-1,1,4,0
8590,-2,-2,-1,-2,-2,2,-1,1,0
8595,-1,0,-1,1,-1,-2,-1,-2,0
8600,-2,0,0,-1,-3,0,1,-3,0
8605,0,-1,-1,1,-1,-1,-2,-1,0
8610,-1,0,-2,0,-1,-4,-2,1,0
8615,-1,-1,0,-1,-1,-1,-1,-3,0
8620,1,-4,0,0,-1,0,-3,0,0
8625,1,-2,-2,1,0,0,-2,0,0
8630,0,-2,-1,-1,-1,0,-2,-1,0
8635,0,-2,0,-1,-1,-1,-1,-1,0
8640,0,-1,2,-1,-1,-1,1,0,0
8645,-2,-4,0,-2,1,-1,-2,-2,0
8650,2,0,2,-1,0,0,-3,-1,0
8655,-1,-1,-4,-1,0,1,-1,1,0
8660,0,-1,-1,0,-2,-5,1,-4,0
8665,1,-1,-1,-3,-1,1,4,-1,0
8670,0,-2,-1,-1,-2,-2,0,-4,0
8675,-3,-1,-3,-2,-1,-2,-4,-2,0
8680,-1,-2,0,-1,1,-1,2,0,0
8685,-1,-1,-4,0,-2,-1,2,0,0
8690,2,-2,1,-2,-1,0,-2,0,0
8695,0,0,-2,-2,-1,0,1,-3,0
8700,-4,-2,-3,-3,-2,-4,-4,-1,0
8705,-2,2,0,0,0,-1,-2,-3,0
8710,-3,-2,0,-2,-3,0,-1,-2,0
8715,2,-1,2,-1,-2,-3,1,-2,0
8720,-1,-2,-1,-1,-2,0,1,-1,0
8725,-4,-1,-2,-1,-1,1,-2,-1,0
8730,0,1,-1,-3,-1,-4,1,-1,0
8735,-2,0,3,-1,-2,-1,-3,-2,0
8740,-1,-1,-3,-3,-1,-2,0,1,0
8745,0,0,-1,-1,0,-2,-3,-1,0
8750,0,-2,-1,0,1,6,0,1,0
8755,-2,-2,-4,-1,-2,-5,-1,0,0
8760,0,-1,-3,-1,-1,-1,-2,-2,0
8765,-3,-1,-1,-1,-2,-2,0,1,0
8770,1,-1,-1,-2,-1,-1,-2,-4,0
8775,-1,-2,1,-1,-1,1,-1,-3,0
8780,2,2,-1,-1,1,0,0,1,0
8785,0,-3,0,-1,-1,0,-3,-3,0
8790,-4,-3,0,0,-1,-3,1,3,0
8795,0,-1,-1,0,1,0,-2,1,0
8800,0,0,-2,0,-1,-2,-2,-3,0
8805,-1,-1,0,-3,-1,-1,0,-2,0
8810,-1,-2,1,-2,-1,-2,-2,-2,0
8815,-1,-1,-1,-1,-1,-1,-1,2,0
8820,-1,-2,-2,-1,-2,-2,-1,3,0
8825,-2,-3,-3,0,-2,-1,0,3,0
8830,-2,1,1,-1,0,-1,-2,0,0
8835,-3,-2,-5,-1,-2,-2,0,-3,0
8840,0,-1,-1,1,2,1,0,0,0
8845,0,0,0,-1,-2,-1,0,-2,0
8850,-3,-1,-3,-1,1,-3,0,2,0
8855,-2,-1,-1,-2,-4,-2,1,0,0
8860,-3,0,2,0,3,0,1,-2,0
8865,2,-3,0,-2,-3,-2,-3,-3,0
8870,-1,0,-1,-1,-2,0,0,-2,0
8875,-2,0,-1,-1,0,-1,-2,0,0
8880,-1,-3,-3,0,0,-1,-1,0,0
8885,-1,-1,-2,0,-1,-1,1,-3,0
8890,-1,-1,-3,0,-1,-4,-2,-2,0
8895,-1,-1,1,-1,-3,-1,0,-3,0
8900,-3,2,-2,-2,0,1,-1,1,0
8905,-2,-2,-3,-1,0,-1,-2,2,0
8910,-1,-1,-1,-1,-2,0,0,-2,0
8915,0,-1,0,-2,1,-3,1,2,0
8920,-1,-1,1,-3,-3,-1,0,-1,0
8925,0,0,-2,0,-1,0,-3,-5,0
8930,-1,-1,0,0,0,1,-1,2,0
8935,0,-3,-2,-1,1,-2,0,-2,0
8940,1,-3,-1,-3,-2,-2,-2,-4,0
8945,-2,0,0,-2,0,-1,2,-1,0
8950,-2,-2,-2,-1,0,-2,-5,-2,0
8955,0,-2,1,0,0,0,0,1,0
8960,0,-1,-2,1,0,-1,-2,-2,0
8965,0,-1,-2,0,0,-1,1,2,0
8970,0,-1,1,-1,-3,-2,-1,-2,0
8975,1,0,-1,-1,2,0,-3,0,0
8980,-1,0,-1,-2,-1,1,-1,-3,0
8985,-2,-2,-1,1,-2,-1,2,-3,0
8990,0,-2,-1,-2,-2,-1,-1,0,0
8995,0,-1,1,-2,-3,0,-3,-2,0
9000,1,-2,1,-1,-1,1,0,0,0
9005,0,1,-1,-3,0,-1,-1,0,0
9010,-3,-4,-2,0,1,0,1,1,0
9015,-2,-1,-3,-1,-2,-2,-4,-2,0
9020,0,-3,-1,0,0,2,-3,2,0
9025,0,-2,2,-2,-2,-2,-1,-2,0
9030,2,-1,-2,-2,-1,-2,-1,-2,0
9035,1,-2,-1,-1,-1,-1,-1,-4,0
9040,-4,1,-2,0,0,-3,-1,-2,0
9045,1,1,0,-1,-1,-2,-5,-1,0
9050,-2,-1,0,-1,-1,-1,-2,-1,0
9055,1,1,0,-1,-2,-2,0,1,0
9060,-1,0,0,-1,-3,-2,-3,-1,0
9065,-2,-2,-1,-2,0,-1,-1,-3,0
9070,-1,-1,-1,1,0,-3,-2,1,0
9075,-4,1,-1,0,-2,2,2,-2,0
9080,-2,-3,-2,-2,-2,0,2,0,0
9085,1,-2,-1,-1,-2,-1,0,2,0
9090,0,0,-1,-1,-1,-2,-1,0,0
9095,-3,0,0,0,-1,-3,-1,-1,0
9100,-1,-1,0,2,-1,-1,0,0,0
9105,-2,-2,0,1,-1,1,-2,-4,0
9110,-1,0,-1,-2,-1,0,0,-2,0
9115,1,0,-1,-2,-1,-2,0,0,0
9120,2,-1,0,-2,0,0,-2,-3,0
9125,0,-1,-2,-1,-2,0,-1,0,0
9130,1,0,1,-2,0,-2,-1,-4,0
9135,-1,-1,-1,0,-1,-2,-1,0,0
9140,0,-1,-3,0,1,1,0,-1,0
9145,-4,0,-1,-2,-1,-2,0,1,0
9150,-1,-2,-2,-1,-1,0,0,-1,0
9155,-1,-2,0,-1,0,0,-1,-1,0
9160,-2,-1,-1,-2,-1,-2,0,-3,0
9165,1,0,-1,-2,-2,-3,-5,-1,0
9170,-3,-1,-1,-2,-2,1,-3,0,0
9175,0,-3,-3,0,1,3,0,-1,0
9180,-3,-2,-2,-2,-2,-2,-2,2,0
9185,-2,0,-3,-2,1,-1,0,0,0
9190,1,0,-1,0,0,0,-3,0,0
9195,-1,-2,-1,-1,-1,-3,0,0,0
9200,-2,1,-2,-2,-2,-2,-1,-4,0
9205,-1,-2,-1,0,0,1,-1,1,0
9210,-1,-1,0,-3,0,-1,-1,3,0
9215,-2,0,-1,-2,-1,-3,-2,-1,0
9220,0,-2,-2,-2,-1,-2,-2,1,0
9225,-1,-1,-2,-1,-2,-3,-1,-3,0
9230,-1,-1,-2,1,1,2,0,-1,0
9235,-5,-4,-1,0,-3,-1,-1,2,0
9240,-3,0,2,0,1,-1,0,-4,0
9245,-1,-1,-1,-1,-1,-2,-1,-2,0
9250,1,-2,0,-1,-3,-2,1,0,0
9255,-2,0,-1,-3,1,-2,-4,-2,0
9260,-3,-1,1,-1,-2,0,-2,-1,0
9265,0,-1,-1,-1,-2,0,1,-1,0
9270,-4,-1,-1,-1,-2,-2,-1,-3,0
9275,2,-1,0,-1,-2,-1,-1,1,0
9280,1,-1,0,0,-3,0,-2,0,0
9285,0,-1,-2,-2,1,-1,-2,-4,0
9290,1,2,-1,-2,-2,0,2,1,0
9295,0,0,-1,1,0,0,0,-3,0
9300,3,-2,-1,0,-2,-3,0,-3,0
9305,-2,-2,-1,-1,-2,-1,-2,-1,0
9310,-1,-2,2,0,-1,-1,-2,-3,0
9315,-1,0,-3,-1,2,3,1,0,0
9320,-2,0,-1,-2,-3,-3,-1,-2,0
9325,-1,-2,0,-3,-2,1,-2,1,0
9330,-2,0,-2,-1,-1,-2,-3,-2,0
9335,0,-1,-4,-1,-3,-3,0,2,0
9340,-1,-1,-2,-1,-1,1,-1,-2,0
9345,-2,-1,-1,-1,-1,-2,-2,0,0
9350,1,-1,-1,-3,1,1,2,1,0
9355,-2,-2,-1,-1,0,-2,-1,-1,0
9360,0,-2,-1,-1,-1,0,1,3,0
9365,0,-2,-2,-1,-2,-2,0,-1,0
9370,-2,0,-1,2,-1,-1,-5,-2,0
9375,-2,-1,-2,-2,-1,-2,-1,0,0
9380,1,-2,-2,-1,2,2,-1,2,0
9385,0,-2,-1,-1,-1,0,-1,-2,0
9390,-2,0,1,-1,-3,-2,1,-1,0
9395,-1,1,1,-2,-3,-2,-3,-4,0
9400,0,-1,-2,-1,-1,-2,-2,-1,0
9405,-1,1,0,0,-1,0,1,1,0
9410,-1,-3,0,-2,-3,-1,-2,0,0
9415,0,-1,1,-1,0,2,-3,0,0
9420,-2,-1,-1,-1,-1,-3,-3,-4,0
9425,-3,-1,-1,0,1,-1,1,-2,0
9430,-3,-1,-1,0,-1,-2,-1,-4,0
9435,0,1,-2,0,-2,-2,-2,-2,0
9440,0,-1,-4,0,-1,-4,0,-1,0
9445,1,0,1,-1,0,2,0,0,0
9450,0,0,0,0,-1,-3,-3,1,0
9455,0,0,-1,-2,-1,-1,0,-1,0
9460,-4,0,-1,-2,-1,-3,-1,-1,0
9465,-2,-1,-2,-3,-1,-3,-1,-2,0
9470,-3,0,-3,-1,-1,-1,1,-1,0
9475,-2,-1,-1,0,-1,-1,-4,-5,0
9480,0,-2,0,-1,-2,-1,-1,0,0
9485,0,-1,-3,-2,-4,-1,0,-1,0
9490,1,-2,-2,-2,0,-1,-3,-2,0
9495,-1,-1,0,-1,0,2,0,0,0
9500,-4,0,-1,-1,0,-1,1,1,0
9505,-1,0,2,0,0,-2,-2,-2,0
9510,-1,-3,-2,-1,-1,2,-1,-1,0
9515,-1,-1,0,-1,-1,-2,0,-3,0
9520,0,-1,-3,-2,-3,2,-1,-1,0
9525,0,-1,-1,1,-1,-3,-3,0,0
9530,0,0,-3,-2,-1,-1,0,0,0
9535,-4,-2,-1,-1,-1,-3,0,-1,0
9540,0,1,2,-3,1,1,-2,0,0
9545,0,-1,-3,-1,-1,-1,0,-3,0
9550,1,-2,3,0,-1,0,-3,0,0
9555,0,-2,-2,0,0,-3,-3,1,0
9560,0,-1,-1,0,-2,-1,-3,0,0
9565,-2,0,-2,-1,0,-1,-3,-1,0
9570,-1,-1,0,-1,0,-2,-1,-2,0
9575,-3,-1,-1,-1,-1,0,-1,-5,0
9580,-1,1,-1,-2,-2,-3,0,-3,0
9585,0,-2,1,-1,-1,0,0,1,0
9590,1,-1,-1,-1,-2,-1,0,-1,0
9595,-3,-5,0,0,-2,-1,0,1,0
9600,-3,0,-2,-1,0,1,2,-1,0
9605,-3,0,-2,-2,0,1,-1,2,0
9610,-2,0,-4,-1,-1,-1,-2,-4,0
9615,2,1,-1,-1,2,1,0,-3,0
9620,1,-3,0,0,-3,-2,1,-1,0
9625,-1,0,-1,-1,-2,-4,-3,-2,0
9630,-3,1,-1,-2,0,0,-3,-1,0
9635,2,-2,0,0,0,-1,1,-2,0
9640,-2,0,0,-1,-3,-1,0,1,0
9645,-1,-2,-1,-1,-3,-2,-1,-2,0
9650,0,-2,-2,-2,1,-3,0,0,0
9655,1,-1,-2,0,-2,-2,0,-3,0
9660,-1,0,-4,-2,0,0,-2,-1,0
9665,-2,-1,2,1,-1,1,1,1,0
9670,-1,-1,-2,-1,-2,0,3,-1,0
9675,-1,-2,-1,0,0,-2,0,1,0
9680,-3,-2,-1,-2,-2,-2,-3,-1,0
9685,0,-2,-1,-1,2,0,-1,-1,0
9690,0,-1,1,0,1,-1,1,0,0
9695,1,0,-1,-1,-2,-2,-4,-1,0
9700,0,-3,-2,0,0,-3,-1,-3,0
9705,-1,-3,-4,-1,-1,0,-1,0,0
9710,-2,-2,2,0,0,-4,-1,2,0
9715,0,-3,-2,-3,-2,-1,0,1,0
9720,0,0,0,-2,-2,-1,-2,0,0
9725,-1,1,-2,-1,-2,-2,2,-2,0
9730,0,0,-1,-2,-1,0,-1,0,0
9735,-1,1,0,-1,-1,1,1,-1,0
9740,0,-2,0,-2,2,0,-1,0,0
9745,1,-1,-1,-1,-1,-4,-2,0,0
9750,-1,-1,-1,0,-3,-2,0,-3,0
9755,-4,-3,-4,0,-1,0,1,2,0
9760,1,0,0,-1,-2,0,1,-3,0
9765,0,0,-1,-1,-3,-1,-1,1,0
9770,-2,-1,-3,-1,-2,-4,-2,-2,0
9775,-1,1,-2,-1,-1,-2,-4,-1,0
9780,-2,-2,-1,-1,-3,-3,-1,-2,0
9785,0,-1,-1,-1,0,0,-2,-1,0
9790,-4,-2,0,-1,-1,-2,-1,-1,0
9795,2,-4,-1,0,-1,-1,-3,-3,0
9800,-3,-1,-2,-2,-1,-2,4,1,0
9805,-2,-2,0,-2,0,-1,-4,-3,0
9810,0,-2,-1,-2,-2,2,-2,2,0
9815,-2,1,-1,-1,0,0,-1,-2,0
9820,3,-1,0,-2,-2,-5,-3,-2,0
9825,-1,-1,-1,-1,-1,0,-2,-2,0
9830,0,-2,-4,0,-1,-1,3,-3,0
9835,-3,0,-2,-2,-3,0,0,2,0
9840,-2,-2,-1,-1,-1,-2,-4,0,0
9845,-2,-1,-1,-2,1,0,1,-3,0
9850,-1,-2,0,-1,0,-1,-1,0,0
9855,-2,0,1,-1,-1,-1,-1,0,0
9860,-4,1,-2,-1,-1,-3,0,-1,0
9865,1,-2,-1,-3,-2,-2,-1,0,0
9870,1,0,3,0,0,1,-4,-3,0
9875,1,-3,1,-1,-2,-1,0,-1,0
9880,-3,0,0,-1,0,0,0,1,0
9885,-1,-2,0,-2,-3,-2,0,2,0
9890,-2,1,-3,-2,-2,-1,-1,-1,0
9895,-3,-1,-1,-2,0,-1,1,-2,0
9900,0,-1,0,0,-1,0,-4,-2,0
9905,1,0,0,-1,1,-2,-2,-2,0
9910,-1,-2,-1,-1,-1,-1,-2,0,0
9915,1,2,2,-2,0,1,-1,-2,0
9920,-2,-4,-2,-3,-1,0,0,-2,0
9925,-2,-1,-1,-1,-3,-2,0,0,0
9930,0,-2,-1,-2,0,-3,2,0,0
9935,0,-2,-2,-3,-5,-1,-1,-3,0
9940,0,0,0,-1,-1,-2,-1,-1,0
9945,2,-2,0,0,1,-1,-2,-1,0
9950,-2,-1,-1,-2,1,1,0,-2,0
9955,-2,-1,-3,-1,-2,-3,-2,1,0
9960,1,-1,0,-1,-1,-3,-1,-5,0
9965,-1,-3,-2,1,-1,-1,0,-2,0
9970,-2,0,-3,-2,1,-1,-2,-3,0
9975,-1,-2,0,-1,-1,-2,-1,-1,0
9980,-3,1,-3,0,0,2,0,-1,0
9985,0,0,0,-2,-2,0,-4,1,0
9990,1,-2,-2,-3,-3,-4,-3,-2,0
9995,-2,-2,-2,-2,-1,-1,-1,-1,0
10000,1,0,0,-2,-2,-1,-2,0,0
10005,0,-2,-2,-2,-1,-1,-1,1,0
10010,-1,0,-1,-1,-2,0,-2,-2,0
10015,-3,-3,-2,1,0,0,-1,-3,0
10020,-1,-1,0,0,-3,0,1,-1,0
10025,-4,-1,-2,0,0,-3,-1,-1,0
10030,-4,-1,1,-3,-1,0,0,1,0
10035,1,0,-1,-2,-2,0,0,-3,0
10040,-2,-2,0,-2,0,-2,-2,0,0
10045,-1,1,-3,-2,-1,1,0,-5,0
10050,-1,0,0,0,-2,-3,-1,-1,0
10055,-5,-1,0,-2,-3,-4,-2,0,0
10060,-1,-4,-5,0,1,0,-1,-1,0
10065,-2,-3,0,0,-1,-1,-1,1,0
10070,-1,0,1,0,-1,-2,0,2,0
10075,2,-2,-2,-1,0,-1,0,0,0
10080,3,0,-2,-1,-1,-2,-2,-2,0
10085,-1,-1,1,-2,-1,-2,3,0,0
10090,-2,-2,0,0,0,-4,0,-1,0
10095,-1,0,-3,-1,0,1,-2,-2,0
10100,-2,1,-1,-4,0,1,1,-1,0
10105,-1,0,-2,0,0,-3,-2,0,0
10110,0,-2,1,0,-1,0,0,-3,0
10115,-1,1,-1,0,0,-1,-4,1,0
10120,-1,-2,-4,-2,-2,-3,-2,-1,0
10125,-2,-1,-1,0,0,-2,-1,0,0
10130,0,-2,-3,-1,-2,0,-3,-1,0
10135,-1,-2,0,0,0,-1,0,-2,0
10140,-1,-1,2,-1,-1,0,-1,-1,0
10145,2,0,2,-1,0,-1,-3,0,0
10150,-1,0,-2,-1,0,-1,1,-2,0
10155,1,0,0,-2,-2,-1,3,-1,0
10160,0,0,2,0,0,1,-3,1,0
10165,-2,-2,-1,0,-2,-1,-1,-1,0
10170,-2,-1,-1,-1,-2,-3,0,3,0
10175,-2,-2,-3,-1,-2,-3,-1,1,0
10180,-3,0,0,0,-3,-1,3,-2,0
10185,-1,-2,-1,1,0,0,1,0,0
10190,4,1,0,0,0,1,-2,-1,0
10195,1,0,0,-1,-1,2,-1,-1,0
10200,-1,-2,-2,-1,-1,-3,-4,1,0
10205,-1,-1,0,0,0,1,0,-3,0
10210,-2,-3,0,-1,-2,-3,0,0,0
10215,-2,0,1,0,1,0,0,-1,0
10220,0,-3,0,-3,0,-3,-4,-2,0
10225,-3,-1,-1,-3,-2,1,-1,-1,0
10230,-2,-1,-1,-2,-2,-1,-2,-1,0
10235,0,-2,-3,-1,2,-2,-2,-1,0
10240,-2,0,-1,-2,-2,-3,0,2,0
10245,0,0,-2,-1,-1,-1,0,1,0
10250,-2,-1,-1,0,-1,1,3,0,0
10255,0,-2,0,-1,-2,-3,1,0,0
10260,1,-1,-2,-1,-2,-1,-4,-1,0
10265,-1,0,0,-1,0,-1,-2,-2,0
10270,-1,0,0,-4,-1,-1,-2,-4,0
10275,-2,-3,-1,-1,-3,0,-2,1,0
10280,0,-2,1,-2,-2,-1,-1,-4,0
10285,-1,-2,-1,-2,-3,-2,-5,-2,0
10290,-2,-2,-1,-1,-2,-1,1,1,0
10295,-4,-3,-3,-3,-1,-1,-3,-4,0
10300,0,-2,-3,2,0,-1,-1,0,0
10305,1,-2,0,-1,-2,-1,0,0,0
10310,1,-1,-2,-1,-1,-1,0,-2,0
10315,-2,0,-3,-2,-2,1,0,-1,0
10320,-1,1,-1,0,-1,0,-1,1,0
10325,0,-1,-2,0,0,-2,-2,-4,0
10330,-1,-2,-2,-2,1,-1,-2,1,0
10335,-1,-2,1,-1,-2,1,-1,-1,0
10340,-1,0,-1,-2,-1,1,-3,-1,0
10345,-2,0,1,-1,-2,-3,1,2,0
10350,-1,-1,-2,0,-2,-3,-4,-1,0
10355,-2,1,-2,-1,-2,-2,-3,-2,0
10360,-4,0,-3,-2,-1,0,-3,-1,0
10365,0,-2,-1,-2,-1,2,-1,-1,0
10370,-3,-1,1,0,-1,2,-1,-1,0
10375,0,0,-3,-1,-2,-1,1,-1,0
10380,0,-1,0,-1,1,-2,0,-2,0
10385,-1,-1,0,-2,-1,-1,-4,0,0
10390,2,-1,-2,-1,-3,-1,-2,-3,0
10395,-2,0,0,-2,0,-1,-3,0,0
10400,-1,0,-2,-1,-1,1,4,-1,0
10405,-2,-2,-3,-2,-3,-3,1,-2,0
10410,-2,-1,0,-1,-3,-1,-3,-2,0
10415,-4,-2,-1,1,-1,-2,-3,-3,0
10420,-1,-2,-2,-2,-2,-1,0,1,0
10425,-2,0,0,-1,-2,-3,-2,-3,0
10430,-1,-1,-2,0,-1,-1,0,0,0
10435,-1,-1,0,-3,-1,-1,2,1,0
10440,-3,-3,2,-2,0,0,-3,-1,0
10445,1,-1,-1,0,0,-2,0,-1,0
10450,-1,-1,-2,-1,-1,-1,-1,-2,0
10455,-1,0,0,-2,-3,-2,0,2,0
10460,1,-2,-2,-1,-1,-1,-1,-2,0
10465,0,-2,-2,-2,-1,-3,-1,-2,0
10470,-2,-4,-1,0,2,1,-2,0,0
10475,1,-2,-2,-1,-2,-2,0,-1,0
10480,2,2,0,-3,-1,1,-2,0,0
10485,-1,1,-2,-1,-1,1,0,0,0
10490,1,-1,0,0,-1,1,1,-1,0
10495,-3,-5,-1,-1,-2,0,-1,1,0
10500,-1,-1,-2,0,-2,-2,2,-2,0
10505,-1,1,0,-1,-1,-3,-2,0,0
10510,1,0,1,-2,1,1,1,1,0
10515,0,-1,-2,-1,-1,-3,-3,-1,0
10520,0,-2,0,0,-1,-2,1,-1,0
10525,2,-1,-1,-1,-2,0,-2,2,0
10530,0,-1,-1,-2,-3,-2,-1,-2,0
10535,-1,0,-2,-1,1,1,-2,1,0
10540,-2,1,1,0,0,-1,-1,1,0
10545,-2,-2,-2,0,0,-3,-1,-2,0
10550,1,2,0,-1,-2,-3,0,0,0
10555,0,0,-1,0,-2,0,1,-2,0
10560,-1,-4,-2,-2,-3,-1,-1,0,0
10565,-2,-2,2,-1,0,2,0,-2,0
10570,0,-2,0,-2,-1,-2,0,-2,0
10575,1,0,-1,-1,-2,-5,-3,-3,0
10580,-1,0,-1,1,-1,-1,0,2,0
10585,0,-3,-2,0,-1,-2,-1,-1,0
10590,-3,1,-1,0,-1,-2,-2,-2,0
10595,0,-1,2,-3,1,0,-2,0,0
10600,-2,0,-2,-1,-1,-4,-1,-2,0
10605,-1,0,-2,-1,0,-2,1,-3,0
10610,0,-4,-2,-3,-1,1,-1,0,0
10615,-1,-3,-2,0,2,-4,-2,-1,0
10620,1,-1,1,0,-1,1,0,-2,0
10625,0,0,-1,-1,0,-2,-2,0,0
10630,1,-2,0,-1,-1,-2,-2,-3,0
10635,-3,0,-3,0,-2,0,1,2,0
10640,-3,-2,0,-2,-2,-2,-1,-2,0
10645,-2,1,0,-2,0,0,-1,0,0
10650,0,-2,-1,0,-1,-1,0,-2,0
10655,0,-3,-1,-1,0,-1,0,-2,0
10660,0,-1,-2,0,-1,-3,-2,-2,0
10665,0,-2,0,0,-1,-1,-2,0,0
10670,-2,0,-1,-3,-1,-2,-1,3,0
10675,-2,-4,-2,-2,-1,-1,-2,0,0
10680,1,-1,-2,-2,0,0,-3,0,0
10685,-3,-3,0,-3,-1,-2,-1,0,0
10690,-1,-1,-2,-2,-3,-1,-1,1,0
10695,-1,0,0,-1,1,-1,-1,-5,0
10700,-2,-1,-1,0,-2,-1,0,-4,0
10705,2,-1,-1,-1,1,2,-1,1,0
10710,-2,-1,-2,0,0,1,-1,2,0
10715,0,1,-1,-2,-1,-2,-1,0,0
10720,-3,-2,-1,-2,-1,-2,-2,2,0
10725,0,-2,-1,-1,-1,-1,1,1,0
10730,-3,-3,-2,0,0,-1,2,-4,0
10735,0,-1,-4,0,-2,-1,-1,-3,0
10740,-4,-1,-1,-1,0,0,-2,-1,0
10745,-2,-1,-2,-1,0,-1,-2,-2,0
10750,-5,1,1,-1,0,-1,-2,-2,0
10755,0,1,-2,-2,-3,-1,-2,1,0
10760,0,-3,1,1,-3,0,1,1,0
10765,-1,-1,-2,0,-4,-2,1,-2,0
10770,0,-2,-1,0,0,0,0,0,0
10775,-1,-1,-3,-1,0,1,0,-3,0
10780,-1,-2,-3,-2,0,-3,-2,0,0
10785,0,-2,-1,0,0,0,-2,1,0
10790,0,-2,-2,-1,0,-2,-2,-1,0
10795,-1,-1,-1,-2,0,1,-5,-1,0
10800,-1,1,-1,-3,-1,0,0,0,0
10805,1,-3,-1,1,-1,-1,0,-1,0
10810,-1,-1,0,-1,-2,-3,0,-1,0
10815,-1,-1,-1,-2,-3,-1,-4,0,0
10820,-1,-1,-2,-2,-3,-1,-2,-1,0
10825,-1,0,0,0,0,2,-1,-5,0
10830,-1,-1,-1,-1,-1,-1,-2,1,0
10835,0,-2,-2,-1,-1,-3,2,-1,0
10840,-1,1,1,-1,-1,-1,-1,-1,0
10845,0,-1,-3,-2,0,-3,1,-1,0
10850,-1,-2,0,-3,2,1,-3,-3,0
10855,-1,-1,0,-2,-1,0,-3,0,0
10860,-1,-4,-1,-1,-1,-2,-1,-2,0
10865,0,-2,0,1,-1,0,-2,-1,0
10870,0,0,-1,0,-2,-1,-3,-1,0
10875,-2,0,0,-2,0,-1,-1,-5,0
10880,1,1,-2,-2,1,0,1,-2,0
10885,-2,1,-1,-1,-1,-2,-2,-1,0
10890,0,-5,-3,-2,-4,-2,-2,-2,0
10895,-1,2,0,0,1,1,4,1,0
10900,0,-2,-1,-1,-2,2,-3,-4,0
10905,-1,-1,-1,-4,-1,-2,-2,1,0
10910,-2,1,-3,0,0,-2,2,-1,0
10915,0,-3,0,-1,-2,0,0,1,0
10920,-2,1,-1,-1,0,-3,-3,-1,0
10925,-1,0,0,-2,-1,-2,1,1,0
10930,0,0,-1,-3,0,-1,-4,-5,0
10935,-3,0,-3,-2,0,-1,-1,-2,0
10940,-2,-2,0,0,-2,2,2,-3,0
10945,0,-1,0,-2,-2,1,-2,1,0
10950,-1,0,0,-2,0,-2,0,-1,0
10955,-1,-1,0,-1,-1,0,-1,0,0
10960,1,-1,-3,-1,-2,-3,-1,-1,0
10965,-2,-2,1,0,-1,-3,-1,-4,0
10970,-2,-2,-2,0,-1,-1,1,2,0
10975,1,-2,0,0,0,-3,-3,-1,0
10980,0,-2,-3,-2,-2,0,-2,2,0
10985,3,0,-1,-1,-1,0,-3,-1,0
10990,-2,-1,1,-1,-1,1,-1,-2,0
10995,-3,-2,-1,0,-3,-3,0,1,0
11000,1,1,-1,1,-2,-2,0,-3,0
11005,-2,-1,-1,-1,-2,-2,-1,-2,0
11010,0,-1,-3,-1,0,-1,-5,1,0
11015,-2,-2,0,0,1,1,-2,-2,0
11020,-2,-3,1,-1,1,0,-1,-2,0
11025,-1,-2,0,0,-1,-1,0,2,0
11030,-1,1,0,-1,0,2,1,-2,0
11035,1,-2,0,-1,-3,-1,0,-3,0
11040,0,-1,-1,-1,0,-1,-3,0,0
11045,-2,-1,3,0,0,-2,-3,-1,0
11050,2,1,0,-1,-2,0,0,-1,0
11055,-1,-2,-5,-3,-3,-2,-1,-1,0
11060,1,-1,-2,-3,-3,-2,-1,0,0
11065,0,0,-3,-2,-2,0,-1,1,0
11070,-1,-2,1,-1,-1,-2,-1,-2,0
11075,0,0,0,1,-1,-1,0,-2,0
11080,0,-3,1,-2,0,-2,-1,-1,0
11085,1,0,1,-1,-1,0,-1,0,0
11090,-2,-1,0,0,-2,-1,0,-1,0
11095,-3,-1,-4,-2,-3,-1,1,0,0
11100,-4,-3,-1,-2,-1,0,-3,-1,0
11105,-1,-3,-1,-3,1,-2,-1,-2,0
11110,-2,0,-3,-1,-3,0,0,2,0
11115,-2,0,1,-2,-1,-2,0,1,0
11120,-3,0,-2,0,0,1,-1,0,0
11125,0,-1,-1,-3,-2,-1,-2,-1,0
11130,-1,-2,-2,0,0,-1,-3,-1,0
11135,-1,-2,0,-2,-2,-2,-3,-1,0
11140,-1,0,1,-1,-1,-1,0,0,0
11145,-2,-1,-1,0,0,1,-1,-2,0
11150,-3,-3,-3,-2,-3,-3,0,1,0
11155,1,-1,-1,-3,-1,-1,-4,-1,0
11160,-1,-1,1,0,-3,-1,2,0,0
11165,-5,-1,-2,0,-2,0,1,2,0
11170,0,0,-2,-1,0,1,0,-1,0
11175,-2,0,-2,0,0,1,0,-3,0
11180,-2,0,-2,1,-2,-2,0,-1,0
11185,1,-1,-1,-3,-3,-1,0,-1,0
11190,-2,-2,-1,-1,-1,-1,-3,-2,0
11195,0,-3,-2,-1,-2,-2,1,0,0
11200,3,-1,1,-1,1,-1,-2,1,0
11205,-2,0,-2,-1,-2,-1,0,-2,0
11210,1,0,0,0,0,-1,-2,-3,0
11215,0,-3,2,-1,0,2,3,0,0
11220,0,-1,-1,0,-3,-2,-3,-5,0
11225,-2,-3,0,-3,-1,-2,-2,-2,0
11230,-2,0,-2,-1,-2,-2,-3,-1,0
11235,0,1,-1,0,0,-1,-2,-1,0
11240,-1,-3,-1,-1,-2,0,-2,-2,0
11245,-4,0,-2,1,-2,-2,-2,0,0
11250,0,-2,1,-1,-2,-1,1,-1,0
11255,-2,0,-1,-2,-1,-2,-3,-3,0
11260,0,-1,0,-2,-1,0,3,1,0
11265,-3,-1,-4,0,-2,-3,-3,-3,0
11270,0,-3,-1,-2,-1,-2,0,1,0
11275,-1,1,0,0,-2,1,-1,-1,0
11280,-1,0,0,1,0,-1,-1,1,0
11285,2,-3,1,-1,0,0,2,-1,0
11290,-2,-2,-1,-1,-1,1,0,-2,0
11295,-1,-2,-2,-1,-2,0,-1,2,0
11300,-2,-1,-1,-3,-1,-1,-2,-1,0
11305,2,1,1,0,-2,-1,-1,1,0
11310,-3,-1,-4,-1,-1,-1,-1,-1,0
11315,2,-1,0,1,-1,-1,-3,-2,0
11320,-2,0,-2,0,-2,-1,-1,-1,0
11325,-2,-1,1,-1,0,1,-2,-2,0
11330,2,-2,-1,-2,-1,0,1,-3,0
11335,-4,-3,-3,-4,-3,-3,2,-3,0
11340,-2,0,-2,-3,1,1,-1,1,0
11345,1,-1,-4,-1,-5,-3,-2,-2,0
11350,-1,-1,0,-2,-2,-1,0,-1,0
11355,0,-1,-2,-1,-4,-2,-1,-3,0
11360,-1,-3,-2,-2,1,-1,-2,-2,0
11365,1,-2,0,1,1,0,1,-2,0
11370,-1,-1,-1,-1,-1,-2,0,2,0
11375,-1,0,0,1,0,-2,-2,0,0
11380,2,0,0,-1,-4,1,-2,1,0
11385,-2,0,0,0,1,0,-2,1,0
11390,0,-1,-2,0,-4,-2,-3,-1,0
11395,0,0,-2,-2,-2,-1,-2,0,0
11400,-1,-1,-3,0,-1,-4,2,-2,0
11405,0,0,-1,-3,-1,-1,0,-2,0
11410,1,-1,1,-1,-3,0,-2,2,0
11415,-2,1,-2,-3,0,0,-1,0,0
11420,-1,-2,-1,0,0,-2,-3,0,0
11425,-1,-2,-1,-2,0,-4,0,-3,0
11430,-3,0,0,-1,-2,-4,1,-3,0
11435,-1,0,0,2,-1,1,-3,0,0
11440,-2,-2,-1,-1,-5,-4,-1,-1,0
11445,0,-2,-1,-1,3,2,-4,-4,0
11450,1,0,-2,-3,-1,0,1,-1,0
11455,-3,-2,2,-1,1,-1,-1,-2,0
11460,0,-1,-1,-3,-3,-1,0,-1,0
11465,-4,-1,0,-1,-3,-4,0,0,0
11470,-2,0,-1,-1,0,-1,-1,-3,0
11475,-3,-2,-3,-2,0,0,-1,-3,0
11480,1,-1,1,-2,0,1,-1,1,0
11485,1,-1,0,1,-2,-2,1,0,0
11490,0,-2,-1,0,0,-1,-3,-3,0
11495,0,-2,-2,-2,-1,-2,3,0,0
11500,0,-2,0,-1,0,-1,-2,-6,0
11505,-1,0,-1,-2,-1,1,-6,0,0
11510,-2,-2,-1,-2,-1,-2,0,0,0
11515,-2,-3,1,0,-2,-2,-2,-1,0
11520,0,0,-2,0,-2,-3,-2,-3,0
11525,1,-2,1,0,-2,0,4,0,0
11530,-2,0,-1,-1,-1,-1,2,1,0
11535,-1,1,-2,0,0,-3,-4,0,0
11540,-2,2,0,1,0,1,0,-2,0
11545,-2,0,-2,-2,-2,-3,-1,-1,0
11550,2,-1,-1,-2,-2,-3,-3,-1,0
11555,-2,1,-1,-3,-1,3,-1,-1,0
11560,-2,2,0,-2,-1,-2,-2,0,0
11565,-1,-2,-1,-1,-2,-1,0,0,0
11570,0,-2,-2,1,0,0,-1,1,0
11575,-3,-2,-1,1,-4,-3,-1,-2,0
11580,0,-1,-1,-2,0,-2,-1,1,0
11585,-3,0,-2,-1,2,2,-4,0,0
11590,-1,-3,0,-3,-3,-4,-3,-1,0
11595,-1,-1,-2,-2,-2,-3,0,-1,0
11600,1,-1,-2,-1,-3,-4,-1,-2,0
11605,1,1,1,0,0,0,-1,2,0
11610,-1,0,-1,0,-1,1,0,-2,0
11615,-3,-1,-2,-2,0,0,0,-4,0
11620,0,-1,-1,-1,1,-2,-1,0,0
11625,0,-1,0,-1,-1,-1,1,-2,0
11630,-3,0,-2,-1,1,2,-3,-2,0
11635,-3,-1,1,-2,-3,-1,-2,-1,0
11640,-2,-1,-1,-1,0,1,0,1,0
11645,-1,-1,-2,0,-1,-3,-1,-2,0
11650,-2,-1,0,0,2,-1,2,-1,0
11655,0,0,-2,-1,-2,-4,0,0,0
11660,-1,-3,-1,-2,-3,-3,-4,-5,0
11665,0,0,-1,0,0,-2,0,0,0
11670,-1,1,-2,0,-1,0,-1,1,0
11675,1,-2,0,-1,-2,0,0,1,0
11680,-1,-2,0,0,0,-1,1,-1,0
11685,0,1,-2,-1,-3,0,0,-1,0
11690,1,0,-2,-1,-2,-2,-2,-1,0
11695,0,-1,-2,0,1,1,-1,0,0
11700,-2,1,-1,-2,-1,1,-4,0,0
11705,1,-4,0,-2,-1,-1,-3,-1,0
11710,-2,-3,-1,-2,0,-2,-1,-1,0
11715,1,-3,-1,-1,0,0,3,-4,0
11720,-1,-2,-3,-2,-1,-4,0,-2,0
11725,-3,2,-3,0,-1,-2,-2,-1,0
11730,1,-1,-2,0,-1,-2,-1,-1,0
11735,-2,-3,-2,0,-1,-2,-3,0,0
11740,0,-1,-1,0,-1,-2,0,-2,0
11745,-2,-2,1,-1,-1,1,-2,0,0
11750,0,-1,-1,-1,-2,-2,0,-1,0
11755,-1,-2,-2,-2,-1,-2,-3,1,0
11760,2,0,2,-2,1,-2,2,3,0
11765,-3,-2,-3,0,0,-1,-4,-2,0
11770,-1,2,-2,0,-1,1,-1,-2,0
11775,-2,-1,-2,-2,-1,1,-3,1,0
11780,-3,-2,-1,0,-1,-2,-4,-1,0
11785,2,-3,-1,1,-3,-3,0,-2,0
11790,-1,-2,-1,-1,-1,-3,-1,-3,0
11795,-3,-1,-2,-2,-2,-4,-4,-1,0
11800,-1,-2,1,0,1,-1,0,0,0
11805,1,0,-1,-2,-1,0,-1,-1,0
11810,-1,-3,0,-1,-3,-2,-4,-1,0
11815,1,1,-1,0,-1,1,3,-3,0
11820,0,-3,1,0,0,0,-1,-1,0
11825,-1,-1,-2,-2,-1,-3,0,-3,0
11830,1,0,-3,-1,1,-1,-1,0,0
11835,-2,-1,0,0,0,0,-2,-3,0
11840,-1,-1,-3,-1,-1,-1,-1,-3,0
11845,-1,0,-2,-2,-4,-1,-2,0,0
11850,-1,-3,1,0,0,0,0,-3,0
11855,-2,-3,1,-2,-1,-3,-1,1,0
11860,-1,0,0,0,0,2,-2,-1,0
11865,0,1,0,-2,-2,-1,-2,-2,0
11870,0,-2,-3,-1,-1,0,-1,-1,0
11875,-1,-1,-1,-2,1,2,1,-2,0
11880,-3,0,2,0,-3,-4,-2,0,0
11885,0,-2,0,-1,-3,-1,-2,-1,0
11890,-2,0,-2,-2,-4,-1,-2,3,0
11895,0,0,-2,-2,-1,-3,-1,-1,0
11900,-2,3,-1,0,-1,0,1,-2,0
11905,-2,-3,-2,0,-2,0,0,-1,0
11910,-3,-3,-1,0,1,0,1,-2,0
11915,0,0,-4,-1,-2,1,-4,0,0
11920,-2,-1,-1,-2,0,0,-2,0,0
11925,1,0,0,-2,0,-3,0,1,0
11930,-2,-2,0,-1,0,1,0,-1,0
11935,0,0,0,-1,-4,-3,0,-2,0
11940,-1,0,1,1,-1,-2,-2,-2,0
11945,-1,-2,-1,-2,-1,1,0,0,0
11950,1,1,-4,-3,3,2,-2,1,0
11955,1,-1,2,1,-3,-3,-1,-1,0
11960,1,1,-2,-3,-3,-2,-2,-2,0
11965,-2,-5,-5,-5,-5,-5,-3,-2,0
11970,-3,1,0,-2,-4,-6,-1,2,0
11975,3,-3,-4,-2,4,5,-1,0,0
11980,-1,-4,-2,1,0,-2,2,-1,0
11985,-2,-1,3,1,0,-2,1,-1,0
11990,-1,1,1,-1,-2,-1,-3,-2,0
11995,-1,1,1,2,2,-2,-3,1,0
12000,-1,-3,2,0,-2,-3,-3,-2,0
12005,-4,-2,-2,-2,-4,2,0,-3,0
12010,0,-3,-1,0,7,3,-2,-3,0
12015,0,0,2,-2,-5,-5,4,-2,0
12020,0,0,-1,-1,0,-1,2,-1,0
12025,0,0,0,3,3,4,-3,0,0
12030,0,-1,-3,-4,-3,-4,-4,-1,0
12035,-2,-1,-1,1,-1,-2,-2,-2,0
12040,-1,-2,-4,-1,-3,0,2,0,0
12045,-4,-3,-4,-5,-10,-4,-4,0,0
12050,-2,1,-1,-8,-4,-3,-4,-1,0
12055,2,-1,-1,1,5,7,1,-1,0
12060,1,1,1,0,-6,-11,-3,-3,0
12065,1,2,1,5,2,-4,0,1,0
12070,-2,2,2,10,20,20,3,0,0
12075,-4,-5,-3,-4,-14,-11,-4,-1,0
12080,-3,-3,-3,-5,2,2,-2,-2,0
12085,0,-1,-1,-5,-4,-4,-2,1,0
12090,1,1,1,-1,-10,-10,-1,1,0
12095,0,1,-1,2,9,4,1,1,0
12100,0,-1,-1,-3,-2,1,-3,1,0
12105,1,-5,-6,-6,-3,-1,-1,-3,0
12110,-3,0,3,-1,-3,-1,1,-3,0
12115,-1,2,0,5,1,1,-4,-2,0
12120,-1,-3,0,-3,-3,0,-2,2,0
12125,-4,0,0,2,5,4,1,-1,0
12130,-2,-5,-6,-5,-9,-8,0,-2,0
12135,-1,-2,2,-2,1,-2,0,-1,0
12140,3,-2,7,4,-2,1,0,-1,0
12145,2,0,-10,-1,4,1,0,-2,0
12150,-2,-3,0,-1,-12,-7,-5,-1,0
12155,-2,0,-1,-4,-4,-5,-3,-3,0
12160,1,0,2,1,11,6,-1,-2,0
12165,0,0,4,-1,-2,-4,-1,-2,0
12170,2,-4,-7,-4,1,4,-3,-1,0
12175,-1,-1,-5,-3,-3,-4,2,1,0
12180,0,1,1,3,-1,-2,-1,-3,0
12185,-2,1,3,1,-1,-1,-2,-1,0
12190,-2,0,2,2,-7,-7,-4,-1,0
12195,-2,-1,1,-3,3,2,1,-1,0
12200,-2,-4,-2,-3,-8,-3,-2,-1,0
12205,1,-1,-7,-1,3,7,3,-1,0
12210,-2,0,2,2,2,0,2,-2,0
12215,-4,-1,-4,-2,-4,-4,0,-2,0
12220,0,2,-4,-2,-3,-4,-1,2,0
12225,2,2,6,2,2,-2,0,-1,0
12230,-2,-1,-2,-3,1,0,-1,-1,0
12235,0,-3,-2,0,-3,2,-2,-2,0
12240,0,-1,-3,1,1,2,-1,-1,0
12245,0,-4,2,3,0,0,0,-2,0
12250,-1,-2,-3,-3,-2,-2,1,-3,0
12255,-2,-2,0,-4,-7,-7,-5,-1,0
12260,1,1,-2,-4,1,2,-1,0,0
12265,-3,-5,-1,0,-10,-9,-4,-5,0
12270,-3,-1,1,5,2,-1,2,-2,0
12275,2,-1,-4,-5,5,4,-1,0,0
12280,-3,-1,5,4,-2,-4,-2,0,0
12285,0,0,-2,-7,-3,-2,-4,3,0
12290,1,-4,-5,-4,-4,1,-1,0,0
12295,0,0,1,1,-3,-4,-1,2,0
12300,-1,1,0,-1,4,3,2,-2,0
12305,-3,0,-4,-2,-3,-7,-9,-2,0
12310,0,-2,-2,0,3,8,14,5,0
12315,0,0,5,4,1,1,-2,-3,0
12320,2,-4,-5,-6,-3,3,-2,-1,0
12325,-5,-2,2,2,-3,-4,-1,-3,0
12330,-2,0,0,-4,-7,-6,-3,-1,0
12335,2,-3,-8,-8,1,11,-2,-2,0
12340,-1,0,-1,-6,-2,-4,0,1,0
12345,1,0,-1,0,5,2,5,-1,0
12350,-1,0,1,3,4,-4,-6,-2,0
12355,0,-1,0,4,-2,3,3,0,0
12360,-2,-1,-6,0,-2,-2,-1,-1,0
12365,2,-1,-2,-1,-1,-3,-2,1,0
12370,-3,-1,-2,-3,-2,0,-3,-2,0
12375,-4,-2,3,-2,-2,-8,-4,-4,0
12380,-1,-1,-1,2,2,0,1,1,0
12385,-5,-2,1,-1,-4,-2,-2,0,0
12390,2,-1,1,0,0,-2,-2,-5,0
12395,-3,0,-7,-8,-3,-2,-2,-4,0
12400,-3,-1,1,-1,-4,2,0,-4,0
12405,-2,1,-2,-4,3,1,0,0,0
12410,-2,-2,0,1,0,-2,-4,1,0
12415,-1,1,-2,2,-3,-4,-3,-5,0
12420,0,-2,1,-3,-4,-6,-3,-3,0
12425,0,-1,-1,-4,-1,2,0,-1,0
12430,-1,-1,-4,-4,-1,0,-1,1,0
12435,0,0,5,4,2,-3,-1,5,0
12440,-2,1,-1,3,2,5,1,-1,0
12445,-2,-1,-1,-3,-2,-3,-2,-3,0
12450,-2,-3,-2,-1,-4,-2,-2,-3,0
12455,1,0,0,-1,-2,-2,0,3,0
12460,0,-3,-2,-2,3,4,-3,2,0
12465,1,-1,2,0,7,5,2,3,0
12470,-2,3,1,1,3,-2,0,-1,0
12475,-3,-1,-2,-1,-5,-6,-2,-4,0
12480,-2,-3,-6,-2,-6,-15,-5,-2,0
12485,0,-3,0,-6,-6,10,4,-1,0
12490,0,1,0,3,-1,1,3,0,0
12495,-1,-4,-4,-5,-2,0,0,4,0
12500,0,1,3,1,5,-3,-2,-9,0
12505,1,-1,5,6,-7,-4,-3,-6,0
12510,1,-1,-5,-6,-1,-7,-7,-3,0
12515,-2,-1,-1,-7,-2,3,3,3,0
12520,-2,-1,1,-4,0,1,-3,1,0
12525,0,0,-6,-2,1,-3,2,3,0
12530,0,-2,-3,-3,-7,0,-2,6,0
12535,1,-3,-2,0,1,-2,-1,-7,0
12540,-1,0,-2,-2,0,-3,0,-5,0
12545,-1,1,3,4,2,-2,-2,-3,0
12550,-3,-1,1,2,4,6,1,2,0
12555,-2,-1,-4,-4,-5,-9,-4,0,0
12560,0,-2,-3,1,-2,11,7,0,0
12565,1,-1,0,0,0,-3,-2,-1,0
12570,0,0,0,-1,1,-3,0,-1,0
12575,-1,0,4,6,2,-2,-1,-3,0
12580,0,-3,-4,-5,-4,-2,-4,1,0
12585,-3,-5,-9,-2,-6,-3,-1,0,0
12590,0,-2,1,-5,2,1,-1,-5,0
12595,0,0,-2,-4,-5,-5,-2,-6,0
12600,-1,-1,0,3,4,5,3,-2,0
12605,1,1,2,1,1,1,-1,0,0
12610,-2,-1,-4,-4,-4,-1,-2,-5,0
12615,-1,-2,0,2,-2,-4,-4,0,0
12620,-4,-1,-1,-2,-5,-5,-5,0,0
12625,0,0,-2,-3,-1,-3,-1,8,0
12630,-2,1,3,0,1,-1,2,-7,0
12635,-2,-4,-1,0,2,1,0,-8,0
12640,0,0,-4,-4,-2,-2,-3,-4,0
12645,-5,-2,0,-2,0,-1,-2,-4,0
12650,2,-3,0,4,2,-2,0,1,0
12655,1,0,0,1,2,6,-1,2,0
12660,3,-2,2,-1,2,-4,-1,1,0
12665,-2,-2,-5,-4,1,0,-3,-2,0
12670,-4,-1,1,-4,1,0,0,0,0
12675,1,-1,-2,-1,-1,-3,-4,-1,0
12680,-2,-1,-1,0,-4,-5,2,-1,0
12685,-1,1,-2,-1,0,-2,-4,9,0
12690,-2,-2,-1,2,-3,-7,-5,-4,0
12695,-3,-3,0,-3,-2,1,-3,-4,0
12700,0,-3,-4,-6,-3,-2,1,-2,0
12705,2,-1,0,-4,2,-3,2,-4,0
12710,2,-2,-3,-3,1,-2,1,2,0
12715,-1,1,2,2,2,4,1,2,0
12720,-2,-1,1,6,-1,-5,-4,1,0
12725,-2,-3,-4,-2,-3,-4,-1,-5,0
12730,0,1,-1,2,-4,2,0,1,0
12735,-1,-1,-1,-5,7,-1,-3,0,0
12740,-1,-2,0,-4,-1,-1,1,3,0
12745,0,-3,4,3,-2,2,-1,-2,0
12750,0,-1,-2,4,-1,1,-3,0,0
12755,1,0,0,-3,0,-1,0,0,0
12760,-3,0,-6,-5,-6,-1,1,3,0
12765,0,-4,-5,-4,-4,1,0,-2,0
12770,-3,-2,-5,-7,-6,-4,-2,-3,0
12775,-1,0,2,3,2,6,0,-2,0
12780,3,2,4,3,6,-3,-4,-5,0
12785,1,1,2,1,0,-3,-1,-2,0
12790,-2,-2,-5,-1,-3,5,-1,0,0
12795,-3,-3,-5,-6,-5,-1,1,1,0
12800,-1,-2,1,-1,-2,0,1,-1,0
12805,-3,0,1,2,0,-4,-5,-3,0
12810,0,0,2,0,0,-3,-3,-1,0
12815,0,-4,-7,-6,-7,-6,-1,-2,0
12820,-3,-2,-3,-3,-4,-4,-3,1,0
12825,0,2,1,-1,1,9,5,-1,0
12830,0,-2,2,-1,-1,-8,-1,0,0
12835,-1,-1,-4,-2,-6,-6,-4,0,0
12840,-1,-3,-5,-4,-5,-8,-2,-1,0
12845,1,2,3,3,4,4,1,-1,0
12850,-2,-1,-4,-5,0,-2,-5,-3,0
12855,-1,-1,0,2,0,-3,-3,-2,0
12860,-2,1,2,1,0,8,3,2,0
12865,-5,0,-3,-4,-3,-8,-4,-1,0
12870,3,-1,2,-3,0,2,2,0,0
12875,-1,-2,1,6,3,1,-3,-1,0
12880,-2,-1,-3,0,-5,-2,-4,0,0
12885,1,-4,0,-2,1,-3,1,-2,0
12890,-1,-3,-2,-4,0,1,-2,-1,0
12895,-4,-1,-1,-2,-5,1,3,-1,0
12900,0,0,3,2,7,-1,-2,-1,0
12905,1,-1,-4,-3,-3,1,-2,0,0
12910,1,-2,-4,0,-5,-5,-3,-1,0
12915,0,-2,2,0,-1,3,-3,0,0
12920,0,-1,-1,-4,0,-3,-1,-2,0
12925,-3,1,2,5,2,-1,-4,0,0
12930,-2,0,-1,1,-1,2,1,0,0
12935,-2,2,-2,-2,-3,-7,1,1,0
12940,1,-2,-1,4,1,1,0,0,0
12945,-2,-2,-3,-6,-2,0,0,-2,0
12950,0,-3,-1,-4,-4,-5,0,2,0
12955,1,0,2,1,1,3,1,0,0
12960,-2,0,2,-3,1,-7,-3,-3,0
12965,-2,1,-2,0,-2,5,6,-1,0
12970,-2,1,-3,-1,3,2,-1,-1,0
12975,1,-1,1,3,0,-5,1,-3,0
12980,-2,-5,-2,-4,-7,-1,-4,0,0
12985,-3,-2,-5,-8,-15,-11,-6,-1,0
12990,-3,-2,0,3,5,9,0,0,0
12995,-1,0,1,0,7,1,-2,-1,0
13000,0,0,-2,-1,2,4,-2,-2,0
13005,-6,-2,-2,2,-2,-2,4,-1,0
13010,0,-1,0,-3,-3,0,0,-2,0
13015,-1,-2,-1,-2,-1,-2,-2,0,0
13020,0,0,-1,2,1,5,-2,-2,0
13025,-1,-4,-5,-5,0,-2,-2,-1,0
13030,-1,2,1,0,1,2,-1,2,0
13035,1,1,1,4,-1,-1,0,-1,0
13040,-1,-1,-1,-4,-4,-6,0,0,0
13045,2,0,0,-1,4,6,-3,-3,0
13050,-1,2,0,-1,-2,-3,0,-3,0
13055,-4,-2,-2,-2,-4,-3,-3,-2,0
13060,0,-3,-3,0,-3,-2,-1,-1,0
13065,-1,0,2,5,1,2,0,-3,0
13070,-2,-2,-2,-1,2,-3,-5,-2,0
13075,-1,-3,-4,-11,-6,-5,2,-1,0
13080,-1,1,1,2,-2,4,-3,0,0
13085,-1,0,4,8,3,-3,-1,-1,0
13090,-1,0,-3,-4,-3,-2,-3,0,0
13095,0,-2,-1,-2,-4,-8,-4,-3,0
13100,-1,-3,-4,-1,0,2,-1,1,0
13105,0,-1,0,-1,0,4,0,-1,0
13110,-4,0,-1,-2,-2,-1,1,-2,0
13115,2,0,3,5,3,3,-1,-2,0
13120,-2,2,1,3,1,-1,1,-2,0
13125,-1,-1,-5,-4,-3,-4,-4,-1,0
13130,-2,-6,-6,0,-9,-5,-3,-1,0
13135,1,-1,-2,-7,0,1,0,1,0
13140,-2,-3,-4,-7,-3,1,2,0,0
13145,1,0,3,-2,-1,-5,-3,0,0
13150,-2,3,-1,0,2,-3,-2,-2,0
13155,-1,-2,0,-1,-5,-5,-6,0,0
13160,-1,2,1,-1,-1,-1,5,0,0
13165,0,-3,-1,1,-4,-1,-3,-1,0
13170,1,-3,-4,-3,-2,-2,2,0,0
13175,1,-1,1,0,3,-2,-1,0,0
13180,-2,1,-2,-4,-1,-5,-2,-2,0
13185,-1,-4,-4,-1,-3,-1,-2,-2,0
13190,1,-4,1,-3,-2,-4,-3,0,0
13195,-2,0,-3,1,-1,-2,-1,-2,0
13200,1,-1,2,2,4,-1,-1,2,0
13205,-2,1,-1,-4,-3,-6,0,-4,0
13210,-3,-1,3,2,1,1,-3,1,0
13215,-1,-3,-4,-9,-4,0,0,-2,0
13220,-2,-4,0,1,-6,-3,-2,-6,0
13225,0,0,-2,-2,5,3,2,-1,0
13230,2,0,2,0,0,-1,-1,-3,0
13235,-1,0,0,4,2,11,0,0,0
13240,1,-3,-3,0,-1,-10,-2,-2,0
13245,-3,-3,-1,-5,-3,1,-1,-1,0
13250,-2,-2,-2,-2,-6,-2,0,-4,0
13255,-1,2,0,3,2,3,2,1,0
13260,0,-1,2,-4,1,4,-1,2,0
13265,-1,-1,-2,-3,0,-4,-1,-1,0
13270,-2,-1,-2,5,-2,1,2,0,0
13275,0,-2,-1,2,1,4,1,-1,0
13280,-2,-1,-2,-2,0,1,-1,1,0
13285,-3,-2,-2,-7,-7,-7,-1,-4,0
13290,-1,-2,-1,5,-1,-3,0,-1,0
13295,-1,-1,0,-2,1,-2,-2,-2,0
13300,-1,2,0,-5,-2,-5,0,-4,0
13305,-1,0,-4,-2,-1,1,-4,-1,0
13310,-2,-2,-1,1,0,-4,0,-3,0
13315,-2,-2,0,0,1,0,-2,1,0
13320,1,-2,-5,-3,-4,2,2,-1,0
13325,0,0,-1,-8,-7,-8,-2,-1,0
13330,-1,0,-1,2,4,5,3,-1,0
13335,1,0,-1,-3,-1,-8,-4,-1,0
13340,-3,0,5,7,5,0,-3,-5,0
13345,2,-2,-1,0,-2,1,-1,-3,0
13350,-2,-4,-7,-8,-9,-1,-3,1,0
13355,0,0,-2,-4,-2,-2,3,-2,0
13360,0,1,-1,-2,0,0,-4,-2,0
13365,-4,1,2,4,4,1,1,-2,0
13370,-2,1,4,3,2,-1,-1,-1,0
13375,0,-4,-6,-9,-13,-3,-1,0,0
13380,-4,-2,-5,-3,-1,-5,-3,-2,0
13385,1,1,1,3,5,6,4,-1,0
13390,0,0,-2,-6,1,-2,-4,-1,0
13395,-1,0,2,3,1,-2,-1,-2,0
13400,0,-6,0,4,-7,-9,-5,-4,0
13405,1,-3,0,-2,1,6,0,3,0
13410,-1,0,2,7,2,-4,1,0,0
13415,0,-1,-1,0,2,4,-1,1,0
13420,-3,-1,-2,-2,-3,-4,-2,-2,0
13425,0,-1,3,4,4,1,0,-2,0
13430,0,-3,-5,-7,-5,0,0,1,0
13435,-1,-4,-7,-5,-11,-9,-7,-3,0
13440,-2,-1,1,-1,1,2,2,-1,0
13445,-1,1,1,4,5,1,-3,2,0
13450,2,3,4,1,6,2,2,-2,0
13455,-2,-4,-6,-8,-8,-7,-2,0,0
13460,-1,-3,-4,-9,-3,0,-3,-4,0
13465,-2,-3,-2,-1,-7,-5,-2,-2,0
13470,-3,-1,2,2,3,2,1,-1,0
13475,1,3,3,-1,2,3,4,0,0
13480,0,1,1,3,2,-6,-2,0,0
13485,-1,-4,-8,-7,-6,-2,2,-1,0
13490,3,-1,-5,-8,-5,-2,-5,-1,0
13495,-5,3,1,1,3,-1,1,0,0
13500,1,0,1,1,1,10,2,0,0
13505,-2,-2,-3,2,-4,-7,-3,-1,0
13510,-2,-3,-2,-5,-3,0,-1,1,0
13515,-1,-2,-2,-1,-1,4,-1,-1,0
13520,-1,0,1,-1,-2,-2,-1,0,0
13525,-3,-1,-1,0,3,7,1,-1,0
13530,2,-2,1,-1,-3,-13,-2,0,0
13535,0,-1,0,1,2,1,-1,-2,0
13540,0,1,1,3,4,5,0,-2,0
13545,-2,0,0,0,-2,-2,-6,-1,0
13550,-1,-2,-4,-5,1,0,0,-1,0
13555,-2,-3,2,5,0,-5,-3,-1,0
13560,-2,0,-2,-2,-8,0,0,-2,0
13565,-1,-1,-4,-6,0,4,0,-1,0
13570,-2,-2,-3,0,-3,-1,-6,-1,0
13575,2,0,1,3,3,-4,1,12,0
13580,-1,-3,-1,-2,-4,-4,-1,-2,0
13585,0,-1,-4,-8,-4,-4,-1,-9,0
13590,-3,1,-2,-4,2,3,-1,-6,0
13595,-2,-1,0,1,-1,-2,-1,-7,0
13600,-2,-4,-7,-7,-5,1,-1,2,0
13605,-1,0,-1,6,0,-4,2,5,0
13610,-1,1,1,6,-4,-2,-1,-2,0
13615,-1,-2,-5,-9,-2,-2,-2,-4,0
13620,-3,0,1,-1,1,-2,-3,2,0
13625,0,-2,0,-4,-3,1,0,-2,0
13630,-2,-1,-2,-5,0,3,-2,0,0
13635,2,0,5,8,0,-3,-1,-2,0
13640,2,1,2,-1,0,-1,2,-1,0
13645,-2,-3,-2,-3,-1,-8,-2,1,0
13650,-2,-1,-1,2,-1,1,1,1,0
13655,-2,-1,0,1,4,0,1,0,0
13660,0,-1,-1,-3,2,-2,-3,-1,0
13665,-2,-2,0,-2,-3,-3,-2,4,0
13670,0,-6,-4,-9,-7,-1,-1,-2,0
13675,0,-1,4,7,1,-4,-2,0,0
13680,-2,-2,-4,-4,-2,1,-2,-3,0
13685,1,-1,-2,-4,1,-6,-2,2,0
13690,-3,-4,-4,-4,-4,-5,-2,-5,0
13695,-1,-1,-1,0,0,6,2,-2,0
13700,-1,-3,3,6,-4,-6,0,-1,0
13705,2,-2,1,2,2,5,4,1,0
13710,-2,-1,-4,-4,0,-2,-4,-2,0
13715,0,-1,-3,-7,-3,-3,-2,-1,0
13720,1,2,1,0,4,3,-2,-2,0
13725,-3,0,-3,-1,-3,-2,-1,-4,0
13730,0,1,1,3,3,0,1,1,0
13735,-1,2,0,-5,-3,-4,-3,-2,0
13740,0,-2,-3,-2,2,1,1,2,0
13745,-2,-1,-1,-2,-3,-3,-5,0,0
13750,0,0,0,-3,-3,-3,1,-4,0
13755,-1,1,-5,-2,-2,11,0,-4,0
13760,-1,-4,-1,2,0,-6,-3,0,0
13765,-1,0,2,0,-1,5,4,-1,0
13770,0,-2,-2,1,-2,-4,-2,1,0
13775,-1,-3,-4,-7,-5,-7,0,-1,0
13780,1,-2,0,-2,2,3,0,-3,0
13785,0,2,2,-1,-1,-2,-2,-3,0
13790,-1,-1,0,-4,0,6,-1,2,0
13795,-1,-4,-1,-2,-6,-3,-2,-2,0
13800,-1,-1,1,-1,-2,-2,-2,0,0
13805,0,1,-2,2,4,1,-3,-1,0
13810,-1,1,2,6,3,3,-1,-5,0
13815,-3,-1,-2,-4,-2,0,-5,-2,0
13820,-3,-1,-4,-6,-9,-4,0,-2,0
13825,0,-2,-2,-1,0,-7,0,0,0
13830,-2,2,0,-1,-1,4,2,-3,0
13835,1,-2,-3,-6,1,-2,-1,1,0
13840,-2,0,-1,4,-2,-4,-1,0,0
13845,0,0,0,-1,-3,-4,-3,-1,0
13850,-3,-4,-6,-2,-2,6,-1,-1,0
13855,-2,0,4,6,2,-3,-3,-3,0
13860,2,0,-2,-2,1,-1,-1,0,0
13865,-1,0,-3,-5,-2,-1,-3,-4,0
13870,0,-4,-1,-3,-6,-4,-4,2,0
13875,-2,-2,-2,-5,-4,1,0,-2,0
13880,0,1,-3,1,2,3,3,-2,0
13885,-3,-1,4,2,1,-2,-2,-1,0
13890,-3,-1,1,3,-3,0,0,-3,0
13895,-1,-1,-3,-4,1,1,-2,0,0
13900,0,0,0,4,0,3,-1,1,0
13905,-4,-5,-8,-6,-7,3,-1,0,0
13910,-1,-2,-1,-3,-1,-7,2,2,0
13915,-1,-1,2,7,4,0,2,-1,0
13920,-1,2,1,-2,-1,-2,-1,1,0
13925,-3,0,-3,-2,1,-1,-4,-2,0
13930,-1,-1,-3,-4,-6,-1,1,-3,0
13935,-3,1,-2,-3,-3,-9,-3,-1,0
13940,-1,-1,2,-4,2,2,-5,-2,0
13945,-1,-1,2,7,1,-4,3,0,0
13950,0,0,2,-3,4,-1,-3,0,0
13955,-1,0,-3,0,-4,-3,-3,0,0
13960,-1,-4,0,0,-3,-5,0,1,0
13965,1,-3,-3,-5,-6,1,-4,0,0
13970,1,0,2,0,5,-4,-2,-4,0
13975,2,-3,-1,0,-2,0,2,1,0
13980,-3,-2,3,6,1,0,1,2,0
13985,0,-1,0,1,2,-1,1,0,0
13990,-1,-1,-3,-3,-5,-5,0,1,0
13995,0,-1,3,0,0,6,-1,1,0
14000,-2,-1,-4,-5,-8,-5,-3,-6,0
14005,-3,-2,-7,-5,-7,-6,1,-2,0
14010,-1,2,3,-5,6,14,3,-1,0
14015,-2,0,0,1,4,-4,0,-2,0
14020,0,-1,-1,2,-2,-1,-1,0,0
14025,0,-2,1,3,2,-1,-4,-4,0
14030,1,-2,-3,-3,-1,-4,0,2,0
14035,0,-2,2,0,-6,-3,-1,-1,0
14040,0,-5,-5,-7,-2,2,-1,0,0
14045,0,0,-2,1,-3,-2,-2,1,0
14050,-3,-1,-5,-2,1,-3,-4,0,0
14055,-1,4,3,2,4,5,2,-2,0
14060,-3,-1,0,0,-3,-6,-1,-3,0
14065,-1,-2,2,-1,-3,-1,-1,-3,0
14070,-3,-2,0,0,-4,-1,-2,2,0
14075,0,-1,-4,-5,-2,0,-1,-2,0
14080,0,0,1,-3,3,-4,-3,0,0
14085,-2,-1,1,6,-1,-4,-4,-3,0
14090,1,0,-1,1,2,9,3,-2,0
14095,-1,-4,-3,-6,-4,-5,-4,0,0
14100,-1,-3,-3,-2,-5,1,-2,-2,0
14105,0,-3,-1,-2,-3,0,0,-1,0
14110,-1,-1,-2,0,0,-4,-2,-1,0
14115,-2,-1,1,-1,-3,-5,-2,-3,0
14120,-2,-1,-6,-5,1,6,4,-2,0
14125,-1,1,-3,-2,-2,-2,-2,0,0
14130,-1,-2,-2,0,1,0,-3,-4,0
14135,2,2,2,4,2,1,-3,-3,0
14140,-2,-2,0,3,-4,-5,-6,-2,0
14145,-3,-2,-5,-9,-5,-3,1,1,0
14150,0,-2,2,0,3,5,0,-3,0
14155,-1,1,1,3,4,-5,0,2,0
14160,-1,0,2,3,5,4,3,-4,0
14165,-2,-1,-3,-3,-7,-5,-3,2,0
14170,0,-1,-1,-7,-2,-5,1,-3,0
14175,0,-2,-2,1,1,-2,-2,-1,0
14180,0,1,-5,-4,-2,-4,-3,1,0
14185,0,0,0,2,3,6,1,1,0
14190,-4,-2,-3,2,-5,-4,-5,0,0
14195,-1,-1,0,0,-1,-1,1,-3,0
14200,-3,1,1,3,-1,-6,0,1,0
14205,0,-2,-1,-3,0,1,0,0,0
14210,0,-2,-4,-5,-7,-7,-1,-2,0
14215,-2,-2,-5,-8,-2,4,0,-1,0
14220,-1,-1,2,-3,1,-2,-2,-2,0
14225,0,-2,-2,-2,0,5,1,-4,0
14230,-1,1,3,9,4,-2,-1,0,0
14235,-3,-3,-3,-2,-4,0,1,-1,0
14240,1,2,-2,-4,-1,-3,0,-1,0
14245,1,1,2,-1,6,4,-1,-2,0
14250,-2,0,3,-2,1,-6,1,-2,0
14255,-1,-4,-4,9,-3,0,-5,0,0
14260,-2,-2,-3,-8,-8,-6,-2,-3,0
14265,-1,1,-1,-3,2,1,3,-1,0
14270,-2,-3,-1,-2,-3,-7,-5,-1,0
14275,0,0,2,-2,2,6,3,0,0
14280,-2,-3,-4,3,1,0,-2,-1,0
14285,1,-4,-4,-5,-7,-6,-3,0,0
14290,0,0,-1,0,1,7,1,2,0
14295,-1,1,-1,0,-2,-2,0,-3,0
14300,0,2,-2,-5,0,5,0,0,0
14305,-2,1,2,6,5,-3,-5,-2,0
14310,-2,1,-5,1,-1,-7,-3,-2,0
14315,-2,-4,-3,-6,-5,1,-3,-2,0
14320,-1,-1,1,-4,-1,2,1,1,0
14325,0,-1,0,-1,5,-3,-1,0,0
14330,0,-1,1,-4,-4,-1,-2,-1,0
14335,-2,-3,-2,-6,-5,-6,-3,-1,0
14340,0,0,-1,-2,3,7,2,2,0
14345,0,0,4,1,1,-6,-1,-3,0
14350,1,0,2,0,1,-4,0,0,0
14355,1,-1,2,4,0,-2,2,3,0
14360,-1,-6,-5,-1,-7,-11,-6,-3,0
14365,-1,-2,-3,-4,-4,6,2,0,0
14370,3,1,4,2,2,-2,1,0,0
14375,-3,0,-3,-6,3,3,0,-2,0
14380,-2,-1,-1,-1,4,-4,1,0,0
14385,-3,-4,-3,1,-8,-2,-2,-1,0
14390,-4,-5,-2,1,-3,3,-2,-1,0
14395,2,1,-1,-5,-1,0,0,-1,0
14400,1,-2,1,3,2,7,-1,0,0
14405,-2,-1,-1,-5,-2,-6,-3,-2,0
14410,-2,-1,-5,-2,-4,-5,-1,-4,0
14415,1,-1,0,2,-1,1,0,-3,0
14420,-1,-1,-1,0,2,-1,0,-2,0
14425,-3,-1,1,-1,0,6,0,1,0
14430,-1,-2,-5,-4,-5,-4,-4,-1,0
14435,-4,0,0,1,-3,-3,0,0,0
14440,0,-3,-4,-3,-5,-2,-3,-1,0
14445,-3,0,-1,1,0,0,-3,-1,0
14450,-3,0,0,-1,3,5,2,-2,0
14455,0,-4,-2,0,-2,-7,-2,1,0
14460,-2,1,-1,0,-2,-2,-1,-3,0
14465,-1,0,-4,-3,-1,-3,-1,-1,0
14470,-1,-2,-3,-2,-3,0,-2,1,0
14475,-2,-1,0,-2,1,5,0,-1,0
14480,-3,-1,4,4,0,0,0,-1,0
14485,0,-1,-4,-3,-1,-4,-3,-1,0
14490,-1,1,1,-1,2,4,2,0,0
14495,-2,-1,-2,0,-7,-4,-2,-3,0
14500,-2,-2,-3,-7,-3,-4,0,-2,0
14505,0,-2,2,3,1,3,0,-2,0
14510,1,-1,0,-1,-1,-2,-1,0,0
14515,1,-3,-4,-3,-5,-1,-3,-2,0
14520,0,0,-3,-5,-2,-4,-1,2,0
14525,0,0,2,3,0,-3,1,-1,0
14530,-2,-2,0,-3,0,4,0,-2,0
14535,-1,-1,-3,1,0,-5,-4,0,0
14540,-2,-2,0,1,1,2,1,-1,0
14545,-1,0,-1,-2,0,-2,-3,0,0
14550,-1,-2,-1,-1,-4,-3,0,-3,0
14555,1,-2,-3,-4,-3,-3,-2,-1,0
14560,-1,-1,0,-2,-2,2,-2,-4,0
14565,-2,0,1,1,-1,0,0,0,0
14570,-3,-2,-4,1,-2,-2,-1,2,0
14575,-2,0,0,-3,1,-1,0,-3,0
14580,1,-2,-1,3,0,-1,-1,-1,0
14585,0,-1,-3,-5,-1,-2,-3,-2,0
14590,-1,-1,-2,1,-3,-5,-3,-3,0
14595,-3,-2,1,-2,1,-5,-3,-3,0
14600,-2,-1,-1,-2,-3,0,3,-1,0
14605,-1,-1,-1,-3,-2,-2,0,0,0
14610,0,0,0,0,1,0,-3,1,0
14615,-2,0,-1,1,0,1,2,3,0
14620,1,0,0,-2,-1,-6,-3,2,0
14625,0,-2,-1,-3,-2,-1,-1,-1,0
14630,0,-2,0,-1,-1,1,0,-4,0
14635,-1,-1,2,1,0,-2,-4,0,0
14640,-3,1,-2,-1,-4,-2,-2,-2,0
14645,-1,-2,-2,-1,1,-4,-2,0,0
14650,1,-3,0,-2,0,0,0,2,0
14655,0,1,-2,-1,1,0,-2,-2,0
14660,0,-3,-3,-1,-2,0,-2,-4,0
14665,-2,-1,-1,0,-3,-2,0,-1,0
14670,0,0,1,-1,0,7,0,-1,0
14675,-1,-2,3,-1,3,-4,0,0,0
14680,0,0,1,0,2,2,-1,0,0
14685,-4,-3,-1,1,-2,-4,-1,-4,0
14690,-2,-5,-8,-2,-8,-8,-5,-3,0
14695,0,0,-2,-7,-2,0,2,-2,0
14700,1,1,-1,0,1,10,3,1,0
14705,-2,1,3,4,5,-2,-1,0,0
14710,-2,2,3,2,3,3,2,0,0
14715,0,-2,0,5,0,-1,-3,-2,0
14720,-2,-6,-8,-5,-8,-7,-3,-4,0
14725,-1,-3,-6,-4,-5,-2,-1,-1,0
14730,-2,0,2,-1,-2,-6,-4,-2,0
14735,-1,-4,2,2,3,2,-1,-1,0
14740,0,-1,2,5,4,-3,-3,1,0
14745,3,-1,1,0,-5,2,-2,-1,0
14750,-2,-3,-4,0,1,-2,0,-3,0
14755,-1,-1,-1,-2,-3,2,2,-1,0
14760,0,-1,-5,-7,1,5,1,0,0
14765,-2,-3,-6,-7,-9,-4,-2,-2,0
14770,0,-2,1,0,-2,-2,-1,-2,0
14775,-1,2,-1,3,1,-1,-3,0,0
14780,0,-2,0,0,-1,-1,1,-3,0
14785,-1,1,5,6,7,4,-2,3,0
14790,-2,1,-5,-8,-5,-3,-2,2,0
14795,0,-6,-4,-9,-7,-6,0,-6,0
14800,-2,0,0,0,-1,-2,0,0,0
14805,0,-1,-4,-4,-2,-3,0,-3,0
14810,-3,1,4,4,4,-6,-2,-1,0
14815,-3,1,0,2,-1,0,-2,-1,0
14820,0,-2,-2,-5,-1,-2,2,1,0
14825,-2,0,1,-3,0,0,0,-1,0
14830,0,-1,0,-1,2,0,0,0,0
14835,-1,-2,-2,-1,-2,0,-3,-1,0
14840,-1,-3,-5,-5,-11,-13,-7,-5,0
14845,-1,0,-3,2,5,7,2,0,0
14850,2,1,-1,-5,-2,-1,0,0,0
14855,-2,-2,2,7,4,6,2,1,0
14860,-3,0,4,5,1,-6,-5,-3,0
14865,0,-3,-3,-5,-4,-2,-1,2,0
14870,0,-3,0,-1,-7,-11,-4,-4,0
14875,-2,-3,-1,-5,-2,6,2,1,0
14880,-1,-1,-1,-12,-1,4,2,-1,0
14885,-2,-3,-5,4,-4,-2,-4,-4,0
14890,1,-1,1,6,8,6,-1,-1,0
14895,-2,-2,-2,-3,-7,-11,-2,-2,0
14900,0,0,3,3,0,-3,0,-1,0
14905,1,-2,-3,-9,0,0,-1,0,0
14910,0,-1,0,2,0,7,5,1,0
14915,1,-1,-2,-1,1,-2,-2,-3,0
14920,-2,0,5,2,2,2,-4,0,0
14925,1,2,1,1,4,-5,2,1,0
14930,-3,-5,-8,-9,-7,2,-6,2,0
14935,0,0,-3,-2,-4,-4,-3,-2,0
14940,1,2,2,3,2,0,2,3,0
14945,0,-3,-3,-5,-7,0,-4,-4,0
14950,0,0,0,3,4,3,4,-1,0
14955,-1,0,-3,-1,1,5,3,0,0
14960,-1,-1,-3,-2,1,-8,-2,-2,0
14965,-2,1,5,4,1,-1,-1,0,0
14970,-1,-3,0,-2,-2,2,-2,1,0
14975,0,0,-4,0,0,-5,-3,1,0
14980,-2,-1,0,-2,-4,5,1,-1,0
14985,-2,-2,-2,-3,-3,-2,-1,-3,0
14990,2,1,0,-5,0,2,4,2,0
14995,-1,2,0,-1,3,-9,-3,0,0
15000,-3,0,-1,4,1,-3,-3,0,0
15005,-1,0,0,2,1,-1,0,-1,0
15010,-2,-6,-6,-5,-8,6,-1,-3,0
15015,0,-1,-1,-3,-1,-2,-2,1,0
15020,0,-3,-1,-2,2,1,2,0,0
15025,0,-1,-1,-4,-2,-3,1,0,0
15030,-4,4,2,3,-2,-9,-5,-3,0
15035,1,0,-2,-2,-2,5,-4,0,0
15040,-1,-2,-2,-4,-2,-2,-2,-2,0
15045,1,0,1,0,1,-5,-2,0,0
15050,-2,0,1,1,0,-9,-2,-2,0
15055,-1,-1,2,-3,-1,1,-3,-3,0
15060,-3,-2,-5,-1,-7,-3,-4,-1,0
15065,1,-2,-3,-5,-1,-2,0,0,0
15070,2,-1,-7,-5,-1,-3,-2,2,0
15075,-4,-2,-1,-4,0,1,2,-1,0
15080,2,2,1,4,4,4,-1,-2,0
15085,-1,0,1,2,1,4,0,-3,0
15090,-2,0,3,3,1,1,-1,1,0
15095,-2,-1,-1,-4,-4,-6,-2,-3,0
15100,-3,-4,-5,-3,-2,4,1,0,0
15105,-6,-2,2,0,-3,-5,-4,-4,0
15110,0,-1,-2,-1,1,-3,0,-2,0
15115,0,-1,1,6,0,-4,-4,-1,0
15120,0,-3,-4,-6,-5,-2,2,-3,0
15125,-1,-1,-2,-2,-4,2,-2,2,0
15130,0,-1,-4,-8,-1,0,-2,-2,0
15135,0,-1,0,1,-1,-3,4,0,0
15140,-3,-1,-2,0,4,6,-1,-4,0
15145,1,-2,-2,-2,-3,-7,-3,-2,0
15150,-1,-1,-4,-4,-2,-5,-3,-1,0
15155,-4,-1,-1,3,2,7,1,-1,0
15160,0,-1,1,1,-2,-8,-1,2,0
15165,-2,1,0,0,2,15,6,0,0
15170,0,-1,2,1,-4,-7,-2,-4,0
15175,-1,-2,-5,-6,-3,-3,-2,-1,0
15180,-2,-1,-4,-3,-2,-5,-2,-1,0
15185,-2,-1,-2,0,1,1,-1,-1,0
15190,0,2,0,1,2,1,2,-1,0
15195,-2,-1,2,3,-2,0,-3,2,0
15200,-1,1,-3,0,0,4,-1,0,0
15205,1,-5,-6,-4,-9,-7,-3,1,0
15210,-2,-1,1,-1,-1,-3,-4,-3,0
15215,0,-1,3,2,4,3,1,0,0
15220,1,1,-1,-3,1,-7,-2,-1,0
15225,-1,-3,-3,1,0,1,3,-1,0
15230,-1,-2,0,1,-2,0,-2,-3,0
15235,-2,-3,0,-2,-3,-6,-1,-2,0
15240,0,-1,0,-2,-3,3,-2,2,0
15245,-2,-1,1,2,5,-6,-1,-4,0
15250,-3,-2,-1,-1,-2,0,5,1,0
15255,0,2,1,-4,-1,0,0,-1,0
15260,0,-1,-2,0,-1,-2,-3,-1,0
15265,0,1,1,-4,-1,1,1,-2,0
15270,-1,0,1,2,-2,0,-5,-1,0
15275,3,1,-2,-1,1,-3,0,-1,0
15280,0,-3,-4,-2,-5,-3,-1,0,0
15285,-3,0,0,1,3,5,1,-3,0
15290,-1,0,3,-4,3,-3,-2,1,0
15295,-2,-1,-3,-4,-1,4,2,-1,0
15300,-3,-3,1,1,-1,-2,0,-5,0
15305,-1,-1,-2,1,-3,-3,-5,-1,0
15310,-3,0,-1,-2,-2,-1,-3,2,0
15315,2,-2,-2,-3,0,4,3,-1,0
15320,-3,-3,2,1,3,-4,-1,-1,0
15325,1,-2,1,1,3,0,-2,-2,0
15330,-1,0,-2,-1,2,-1,2,-1,0
15335,-1,-2,-1,1,-2,-2,0,-4,0
15340,0,1,-2,-3,-4,1,1,-2,0
15345,-2,-1,-1,-4,-6,-7,-5,-3,0
15350,-2,-5,-5,-4,-8,-5,-3,-2,0
15355,-1,-1,-1,1,3,-1,0,-1,0
15360,0,1,7,4,1,1,-3,1,0
15365,-1,1,-2,-2,-1,-2,0,0,0
15370,1,-2,4,4,1,1,0,-1,0
15375,-2,-4,-7,-3,-7,-4,-5,-2,0
15380,0,-3,-6,-7,-3,-1,0,1,0
15385,1,2,-2,-4,3,1,-1,-4,0
15390,0,1,-3,-2,1,-1,-1,0,0
15395,-1,-1,4,2,-1,0,-3,-1,0
15400,0,0,-1,1,1,-3,-1,-1,0
15405,-3,-2,-2,-2,-3,-2,2,-1,0
15410,-1,-3,-4,0,-2,1,0,-4,0
15415,-1,-1,0,-5,1,-7,-2,-2,0
15420,0,0,-4,0,3,15,7,-1,0
15425,2,-2,0,1,-3,-10,-4,1,0
15430,-1,-1,-1,2,-4,-2,-3,-1,0
15435,-1,2,-1,-2,-2,-1,-2,0,0
15440,-3,-3,2,4,0,3,-2,0,0
15445,1,-2,2,-1,2,-6,-3,-1,0
15450,0,-3,-1,-3,-1,4,0,0,0
15455,0,-4,-2,-5,-7,-5,-2,1,0
15460,-1,-1,-4,-6,-6,-7,-4,-2,0
15465,-2,-3,0,1,2,5,0,1,0
15470,0,0,0,0,2,-3,-2,0,0
15475,-2,1,1,4,5,4,2,2,0
15480,1,0,0,0,-2,-19,-5,-1,0
15485,-2,0,-2,-2,-8,2,1,-1,0
15490,-2,0,-1,-3,2,4,0,1,0
15495,1,0,-1,1,-3,0,-1,-1,0
15500,-2,0,-2,-4,0,2,0,-2,0
15505,-4,-1,-2,1,-1,-7,-1,0,0
15510,1,-1,-3,-4,-1,1,-1,-4,0
15515,-2,-3,-1,-2,-5,2,0,0,0
15520,-2,0,0,-1,0,-7,-3,-1,0
15525,-1,-1,2,-2,1,4,-1,-2,0
15530,0,-2,-1,-2,-3,1,4,-2,0
15535,-1,-4,-2,-2,-4,-4,-5,-3,0
15540,0,-1,1,1,0,-3,-3,-2,0
15545,-1,-1,-6,-4,2,12,2,-1,0
15550,0,2,1,2,2,-3,0,-2,0
15555,1,0,-2,-9,-3,-6,-3,-3,0
15560,-1,-2,-6,-2,-3,1,-3,-1,0
15565,-1,-3,2,3,1,3,5,-2,0
15570,-1,-3,2,1,-2,-10,-6,-2,0
15575,0,0,-2,4,7,18,7,-1,0
15580,-1,-3,-3,-4,-4,-8,-8,-5,0
15585,-1,-1,-5,-9,-6,-2,-2,2,0
15590,-3,-2,0,-1,-2,-4,-2,-1,0
15595,0,2,2,3,2,-3,2,1,0
15600,-1,-5,-1,1,-1,4,-2,-2,0
15605,1,-2,-7,-1,-3,-3,0,-1,0
15610,-1,-2,-2,-5,-1,0,1,1,0
15615,0,-2,0,-3,0,-5,-3,0,0
15620,-4,-2,1,6,0,2,-1,-3,0
15625,-2,0,1,0,-3,1,-1,-2,0
15630,1,3,4,2,4,6,4,0,0
15635,-1,-1,0,-2,1,-1,-1,-3,0
15640,-1,0,-4,-10,-6,-7,1,1,0
15645,-5,-6,-5,2,-5,-4,-1,0,0
15650,-1,0,0,0,1,-7,-4,2,0
15655,-1,-2,1,5,5,7,4,-1,0
15660,2,0,0,-5,-2,-3,2,1,0
15665,-1,-2,-1,1,-1,1,-2,0,0
15670,-1,-4,-3,-1,-2,0,-2,0,0
15675,0,2,1,-3,-2,-9,-6,-1,0
15680,-3,-4,-2,1,-1,1,1,-1,0
15685,0,-1,0,-1,-3,-6,-5,0,0
15690,0,0,-2,0,2,2,1,-2,0
15695,0,1,1,-1,1,-2,0,2,0
15700,-3,2,0,-1,-3,0,0,-1,0
15705,-3,-1,-1,-2,-1,-1,-3,-2,0
15710,4,-1,0,-2,-3,-1,-1,-1,0
15715,-2,-2,-4,0,-5,-5,-3,-4,0
15720,-2,-2,2,-1,0,-3,-1,-1,0
15725,-2,1,2,0,2,5,1,0,0
15730,1,0,-3,-2,-6,-11,-4,-1,0
15735,-1,-2,-2,-3,-2,3,0,-1,0
15740,1,0,4,4,5,3,4,4,0
15745,2,-1,-2,-2,-3,-5,-4,-1,0
15750,0,-2,-1,3,2,5,3,-1,0
15755,-1,-2,4,7,-2,5,1,0,0
15760,-3,1,-4,-6,-2,-3,-5,-4,0
15765,-2,-5,-8,-7,-3,-8,-2,0,0
15770,-3,1,2,-1,-2,8,2,2,0
15775,-1,-4,-2,-2,0,-3,-2,-2,0
15780,2,0,2,1,3,7,-1,-4,0
15785,1,2,0,-2,-3,-5,0,0,0
15790,-5,-3,-2,-1,-1,3,-1,-5,0
15795,-1,0,-3,-7,-8,-5,-3,-2,0
15800,3,1,3,3,4,-5,-1,2,0
15805,1,0,0,2,1,-5,-3,-1,0
15810,0,1,3,-1,-2,2,-4,0,0
15815,1,2,0,4,3,1,6,2,0
15820,0,-3,-4,-1,-5,-7,-4,0,0
15825,1,1,0,-5,3,10,1,-3,0
15830,-2,2,2,3,2,-6,-4,0,0
15835,-1,-3,-5,-5,-2,-6,1,1,0
15840,-2,-6,-9,-9,-7,5,-4,-4,0
15845,-1,-1,2,3,-1,0,0,-2,0
15850,0,-3,0,-1,-2,-11,-3,-4,0
15855,1,3,-1,-1,4,7,1,0,0
15860,-4,-2,-1,-2,-3,-3,-3,1,0
15865,2,0,1,2,-1,0,-1,-1,0
15870,-2,-4,-1,-5,-3,-6,-3,-2,0
15875,-2,1,0,1,-2,-7,-2,1,0
15880,2,0,2,1,1,4,0,-2,0
15885,-11,0,-5,-4,-3,0,-5,-2,0
15890,15,1,1,3,3,-2,5,2,0
15895,-1,-3,0,0,-3,-2,-6,-2,0
15900,1,-2,-3,-6,-3,-7,-2,0,0
15905,-2,-1,-3,1,2,7,7,0,0
15910,-6,-2,-4,-5,-6,-2,-6,-1,0
15915,-3,-4,-2,-4,-2,3,-2,0,0
15920,-3,-2,-1,2,2,2,-2,-2,0
15925,10,6,4,2,2,-9,0,2,0
15930,-11,-5,-2,4,2,17,7,2,0
15935,4,-1,1,4,-1,-16,-3,0,0
15940,-4,-3,-4,-8,-8,-2,-2,-6,0
15945,-2,-5,-4,-4,-6,-2,-1,0,0
15950,-4,-2,-2,-5,2,0,0,-2,0
15955,-6,-2,-1,1,-6,1,-6,-5,0
15960,-4,4,5,4,9,9,3,1,0
15965,2,2,1,1,2,-10,-3,-1,0
15970,0,-1,-4,-6,-9,-1,-4,-4,0
15975,-4,-4,-10,-9,-6,0,-2,0,0
15980,5,3,1,2,2,-3,-2,0,0
15985,-5,-3,-1,-7,0,2,-3,-3,0
15990,-9,-1,2,2,-4,-9,-7,-4,0
15995,2,0,2,0,0,-7,-3,-4,0
16000,1,0,-1,4,0,3,4,0,0
16005,-3,-6,1,0,0,-2,0,-1,0
16010,-2,-2,-4,-1,-2,3,-1,-1,0
16015,3,2,-5,-2,-2,2,-1,-4,0
16020,2,-1,1,3,-2,-5,0,3,0
16025,0,-3,1,0,2,-3,-4,-2,0
16030,3,-1,-4,-6,-4,2,-2,2,0
16035,-1,-3,-7,-5,-6,-3,1,-2,0
16040,-4,-2,-1,-3,3,-11,-5,-1,0
16045,2,-1,2,2,0,5,0,-5,0
16050,0,1,3,0,3,-5,-2,-6,0
16055,-2,-2,7,1,5,5,-1,2,0
16060,-2,-3,-2,-3,-3,11,3,-2,0
16065,-2,-1,-4,-1,-4,-11,1,-1,0
16070,2,1,0,-2,0,0,-5,-2,0
16075,-1,-2,-3,-2,-3,-3,0,-1,0
16080,-2,-4,-5,-2,-2,-1,-4,-4,0
16085,1,0,2,-1,0,-5,0,1,0
16090,-3,-2,-1,1,3,3,0,1,0
16095,1,-2,0,-6,2,8,-4,1,0
16100,-3,-2,1,2,-2,-2,2,0,0
16105,2,-1,-3,0,-2,-7,-3,-1,0
16110,2,1,-1,-2,-3,-12,0,0,0
16115,-4,0,-2,0,-1,12,0,-3,0
16120,1,1,1,0,0,-3,4,1,0
16125,-2,0,-2,0,-2,2,-9,-2,0
16130,-1,-1,-1,-2,-1,2,9,0,0
16135,1,0,-3,2,3,10,-3,0,0
16140,1,0,-1,-3,-1,-7,-3,-1,0
16145,-2,-2,0,1,2,5,5,3,0
16150,3,2,0,-2,0,4,-4,-3,0
16155,-5,-4,0,-2,-5,-10,4,0,0
16160,-1,-3,-4,-3,-5,6,-1,-3,0
16165,-3,-3,-3,-5,-4,-2,-5,0,0
16170,2,-2,-2,-3,1,-3,5,1,0
16175,1,0,3,3,1,-17,-6,-1,0
16180,-5,-2,0,-1,0,15,3,-3,0
16185,1,-2,-3,-3,-6,2,-6,-1,0
16190,2,-3,-2,-1,-3,-8,-3,3,0
16195,-1,0,1,2,-3,-5,-5,-3,0
16200,-1,-1,2,0,0,-4,-3,-2,0
16205,-2,-1,-4,-5,-4,-3,0,-5,0
16210,2,0,-7,-4,-3,6,0,-2,0
16215,1,-1,5,4,5,-14,-1,1,0
16220,-2,2,-4,-4,-2,-17,-9,-2,0
16225,5,0,1,4,10,21,14,1,0
16230,-4,1,1,1,-2,-7,-8,-1,0
16235,-2,-8,-10,-12,-11,-5,-5,-4,0
16240,0,-2,-2,-2,-1,14,7,-1,0
16245,-3,0,0,-3,3,7,0,0,0
16250,-1,1,0,1,3,-5,-2,0,0
16255,2,1,6,2,2,6,1,-3,0
16260,-2,-3,-4,-1,-6,-2,3,0,0
16265,-3,-3,-2,3,-6,-6,-2,0,0
16270,-3,-1,0,-6,-3,6,-10,-2,0
16275,-5,4,3,6,13,2,18,3,0
16280,1,1,0,-1,0,-6,-8,-1,0
16285,-2,4,4,2,-6,-19,-8,-4,0
16290,4,-2,2,6,9,10,11,0,0
16295,-3,-3,-7,-10,-7,5,-9,-4,0
16300,-3,-2,-7,-7,-8,-1,1,0,0
16305,15,0,-4,-1,-1,-14,-2,-2,0
16310,-7,-3,-3,-3,-9,-11,-5,-2,0
16315,-1,3,0,3,3,8,-1,-1,0
16320,1,-1,1,2,1,-10,-7,-1,0
16325,-6,-4,1,-2,1,13,5,-2,0
16330,0,0,-1,-1,0,-3,-1,-1,0
16335,1,-3,-3,2,-3,-8,-1,-1,0
16340,-2,1,0,-1,-3,1,-1,2,0
16345,-3,-1,0,0,-2,-3,-10,-1,0
16350,-1,-2,-4,2,0,1,2,0,0
16355,-3,-2,-1,-3,-3,-5,-6,-2,0
16360,-1,0,-2,-2,-1,2,-1,-2,0
16365,-2,-2,0,-1,3,1,5,1,0
16370,-5,-5,0,-1,-2,-2,-4,-3,0
16375,-4,3,-1,-2,-2,5,1,0,0
16380,12,1,-1,-1,-4,-9,-1,-1,0
16385,-2,-3,-3,-1,-1,-1,-3,-1,0
16390,-5,-5,-2,-2,-5,3,-7,-3,0
16395,0,1,-1,0,2,-2,4,0,0
16400,-3,-1,3,1,2,-6,1,1,0
16405,-4,1,-2,-2,-1,-2,-2,-2,0
16410,0,-2,-2,-1,-1,3,7,0,0
16415,-3,-2,-3,-2,-6,1,-16,-3,0
16420,4,3,4,1,5,-2,5,-1,0
16425,-1,-1,-1,1,-1,1,2,-1,0
16430,-3,1,-1,0,0,7,-3,-4,0
16435,3,0,-4,-6,1,-2,2,-1,0
16440,-6,-5,-2,1,-7,-6,-7,-3,0
16445,-4,-3,-3,-6,-5,-7,-5,-5,0
16450,5,2,4,1,2,-9,-5,1,0
16455,1,0,5,12,4,2,9,3,0
16460,-5,2,-5,-5,-3,13,-3,-3,0
16465,-2,-3,-5,-10,-12,-26,-9,-3,0
16470,-1,0,0,9,3,0,-2,-1,0
16475,-1,-2,-6,-11,-8,-6,-2,-3,0
16480,-1,-1,5,4,11,9,2,1,0
16485,1,2,1,3,0,-1,-1,0,0
16490,-2,-5,-3,0,2,4,5,-2,0
16495,0,-2,0,4,-6,-17,-4,0,0
16500,-2,-3,-4,-2,-3,2,-1,-1,0
16505,0,-4,-6,-12,-4,5,-1,2,0
16510,0,2,4,0,3,1,3,0,0
16515,-7,1,2,0,1,3,-3,-4,0
16520,-1,-1,-1,4,0,-3,0,-1,0
16525,1,1,5,4,7,4,-1,-2,0
16530,-1,0,0,-5,-3,2,5,1,0
16535,-4,-3,-6,0,-1,0,-5,0,0
16540,-5,-5,-7,-4,-8,-10,-8,-3,0
16545,1,-1,1,6,2,-9,6,0,0
16550,-2,1,1,-5,-6,0,-4,-1,0
16555,2,1,-3,-14,0,9,5,-1,0
16560,0,1,-1,0,-2,4,2,-2,0
16565,-4,-3,-4,-6,-3,-3,-5,-1,0
16570,-1,-2,0,1,2,-4,1,0,0
16575,3,-1,5,2,4,3,1,1,0
16580,-5,-5,-1,0,-5,-12,-5,-3,0
16585,0,4,0,3,0,9,8,2,0
16590,-4,-1,-2,-5,-4,-11,-8,-3,0
16595,3,2,-2,2,0,8,9,1,0
16600,1,-3,1,1,6,-3,2,1,0
16605,-2,1,4,4,1,-2,-6,-3,0
16610,-3,-6,-8,-9,-8,13,-7,-4,0
16615,4,0,5,10,4,-6,4,1,0
16620,5,-1,-3,-6,-4,-9,-2,2,0
16625,-22,-4,-3,-4,-4,10,8,-3,0
16630,17,-2,-3,1,-10,-11,-6,-4,0
16635,-5,-12,-8,-9,-3,-9,-14,-4,0
16640,4,12,7,6,8,8,10,5,0
16645,-6,-3,-11,1,3,22,-2,-3,0
16650,5,10,8,-3,-4,-44,-5,1,0
16655,-4,-1,-3,1,-6,8,3,-1,0
16660,1,-4,-3,-5,-4,4,-9,-2,0
16665,7,1,2,1,5,-19,6,-1,0
16670,-7,-5,-5,-1,2,-1,3,-1,0
16675,1,2,-2,-1,-4,-2,-5,-4,0
16680,-7,-1,-2,-2,-5,-5,-13,-5,0
16685,-1,-2,-2,-5,-4,26,5,-1,0
16690,1,-3,0,2,3,-17,-2,1,0
16695,4,3,9,6,12,0,21,5,0
16700,-6,-3,1,2,-3,-1,-1,-2,0
16705,0,-3,4,-1,0,-9,-14,-5,0
16710,-1,-4,-8,-5,-9,-6,-6,-1,0
16715,19,-3,-10,-7,-6,16,6,1,0
16720,-7,-7,-4,-10,-6,2,-9,-5,0
16725,9,5,5,2,7,10,10,5,0
16730,-13,0,-1,1,1,6,7,-3,0
16735,5,-1,1,-4,-3,-18,-12,-6,0
16740,13,-6,0,2,-4,5,0,-1,0
16745,-11,4,1,-3,-6,-24,-22,7,0
16750,-2,-5,-3,-3,2,14,0,-3,0
16755,-4,2,0,5,10,-4,-1,-6,0
16760,-4,-4,-2,2,6,7,35,-2,0
16765,3,-5,-12,-19,-36,-47,-21,-24,0
16770,-9,2,3,7,16,80,11,25,0
16775,-1,4,13,19,27,9,18,10,0
16780,-13,0,-5,-5,-2,-37,-12,-2,0
16785,19,2,7,3,11,32,-9,15,0
16790,-7,0,-3,-3,-11,-7,-16,-10,0
16795,-10,-7,-11,-14,-22,-4,-8,-20,0
16800,-27,-3,1,0,7,11,-7,-8,0
16805,-2,0,-2,2,-2,-20,-1,-2,0
16810,2,2,0,1,8,-3,0,0,0
16815,0,3,5,0,0,9,3,12,0
16820,-11,-4,-6,-4,-7,-10,-14,-4,0
16825,-6,-11,-1,2,-6,-14,-8,-1,0
16830,-2,-3,-8,-12,-19,-34,-12,-17,0
16835,-10,-8,-2,-4,3,-9,-11,-5,0
16840,7,4,0,-3,-6,36,9,-16,0
16845,4,1,7,12,17,19,20,-2,0
16850,-3,-3,-4,-5,-7,7,-11,-4,0
16855,-3,-4,-9,-9,-5,14,-5,1,0
16860,14,0,-8,-3,-10,-9,0,12,0
16865,-2,-3,-4,-7,-5,7,-14,0,0
16870,-7,-3,4,6,-2,-25,-4,-4,0
16875,2,6,12,10,8,-9,3,3,0
16880,9,3,2,3,19,66,59,14,0
16885,-3,-1,0,4,1,-40,-19,1,0
16890,7,3,-7,-5,-9,-16,-21,-5,0
16895,8,-6,-1,-5,-2,61,4,-7,0
16900,2,0,2,8,4,-13,24,4,0
16905,-3,4,-6,-6,-12,-26,-24,-3,0
16910,-4,-8,4,0,1,-2,-7,0,0
16915,0,1,-6,-6,-1,-10,9,2,0
16920,7,-2,-2,-2,2,-6,-4,-1,0
16925,-10,-1,3,5,-5,6,-4,-5,0
16930,-16,-9,-6,-12,-12,3,-14,-5,0
16935,9,8,8,7,15,8,22,7,0
16940,0,1,5,3,1,10,-2,-3,0
16945,-8,-6,-9,-7,-18,-26,-16,-8,0
16950,-5,-1,-4,-8,-11,26,-19,-5,0
16955,-3,-2,1,4,11,10,-4,0,0
16960,1,-1,0,-3,3,14,5,0,0
16965,-33,-5,-5,-8,-8,8,-5,-5,0
16970,74,10,3,13,-2,-31,-11,4,0
16975,-13,0,2,-3,-7,-22,6,-1,0
16980,-3,-3,-1,-1,-4,-4,-6,-3,0
16985,1,8,4,0,6,21,-2,-1,0
16990,-11,-1,-2,-2,0,-19,-3,-1,0
16995,-19,-8,0,4,6,-35,9,4,0
17000,-2,1,2,3,-2,4,6,2,0
17005,16,3,-7,-3,-7,-16,-6,-2,0
17010,-6,2,0,3,13,59,17,-1,0
17015,1,-1,-4,-1,-9,-18,-9,-5,0
17020,-13,-7,-4,-4,-5,-2,-8,7,0
17025,15,-1,5,6,6,-18,9,4,0
17030,-17,-5,-2,-5,-13,-27,-2,-7,0
17035,12,4,5,3,12,15,0,0,0
17040,-3,-1,0,2,1,-11,10,-6,0
17045,-2,-3,-7,-4,-8,33,-6,-6,0
17050,0,0,4,0,0,-31,-13,-3,0
17055,-8,-4,-7,-10,-12,3,4,2,0
17060,1,-4,-6,-3,-6,-1,3,-6,0
17065,-8,-6,-4,-3,-2,-7,-9,-4,0
17070,2,6,6,3,5,-14,3,4,0
17075,-5,-2,-3,-2,-6,3,-5,-6,0
17080,1,-1,0,-2,4,9,4,1,0
17085,-2,-3,2,1,1,2,-2,-3,0
17090,-5,3,2,6,8,-5,4,5,0
17095,4,-1,-5,2,-16,-6,-3,-2,0
17100,-4,-5,-6,8,-2,-24,-1,-4,0
17105,4,-1,-2,-10,16,10,1,5,0
17110,-2,-6,-8,-23,-8,10,3,-1,0
17115,-10,-7,-9,-21,-25,-11,-9,-10,0
17120,-2,-2,-4,7,-55,-33,-14,-4,0
17125,16,16,17,26,96,67,29,18,0
17130,5,0,11,-9,-25,-20,-1,6,0
17135,-9,-13,-21,-15,-24,-17,-15,-9,0
17140,-6,-6,-2,-12,-14,9,9,0,0
17145,-25,-11,-1,13,-30,-36,-38,-45,0
17150,21,4,12,11,23,10,78,17,0
17155,2,11,11,13,18,0,-63,-6,0
17160,6,5,4,-3,6,-1,22,20,0
17165,-8,-6,-9,-11,-23,-13,11,-2,0
17170,-14,-7,0,6,13,-8,-24,-7,0
17175,-11,-9,-5,-5,-12,10,29,-1,0
17180,3,4,0,-2,20,20,2,-4,0
17185,-2,1,1,-7,-13,-26,-15,-2,0
17190,-9,5,0,7,-3,9,-16,-8,0
17195,-6,-3,-2,-3,7,-5,14,-4,0
17200,14,-2,-2,-7,2,10,-15,2,0
17205,-4,-7,-17,-17,-33,-22,10,3,0
17210,-10,-1,3,4,3,3,22,4,0
17215,-14,-7,-8,-7,-7,-35,-34,-8,0
17220,28,21,17,13,29,18,-10,0,0
17225,16,-1,-4,-15,-23,-2,50,20,0
17230,-11,-2,-11,0,2,-16,-12,-11,0
17235,-15,-6,4,0,4,-2,-18,-10,0
17240,-8,-7,2,-3,2,-5,6,1,0
17245,9,1,-6,5,7,7,11,7,0
17250,-2,5,14,21,22,12,-35,-7,0
17255,22,8,-1,-18,-2,36,48,23,0
17260,-33,-27,-38,-46,-50,-81,-62,-42,0
17265,14,-1,11,2,0,12,-50,-7,0
17270,8,6,2,6,-3,-5,-20,24,0
17275,-3,-2,16,28,29,28,40,-3,0
17280,-2,18,8,5,10,13,11,-2,0
17285,-5,-10,-7,-3,-12,-21,-31,-12,0
17290,-9,-8,-8,-3,-6,-3,11,-5,0
17295,10,7,3,1,0,6,3,2,0
17300,-3,-8,-2,0,5,15,21,16,0
17305,-6,-2,0,-3,0,4,17,-2,0
17310,4,-7,-5,-8,-9,-7,-12,-2,0
17315,41,17,4,4,11,9,9,16,0
17320,-26,-7,-2,-2,-7,-13,1,-15,0
17325,9,-6,-5,4,-5,-1,-20,3,0
17330,-19,7,-7,-19,-16,-23,-44,-14,0
17335,-7,-14,-3,2,0,3,-2,3,0
17340,7,7,10,10,17,13,2,-2,0
17345,5,7,4,4,6,0,14,4,0
17350,-12,-9,-12,-5,-2,22,33,33,0
17355,-18,-5,-3,-2,-16,-17,1,-15,0
17360,33,25,20,24,45,52,-7,24,0
17365,-8,1,11,3,-1,-9,-5,12,0
17370,10,0,-10,-14,-15,-16,-30,6,0
17375,29,7,8,5,10,-34,-66,-13,0
17380,-13,-14,-5,-3,-3,22,3,-12,0
17385,-24,-10,-7,-10,-8,-15,-5,-13,0
17390,7,-7,-1,1,-3,-13,-21,-22,0
17395,-1,7,1,-2,-2,1,12,0,0
17400,-14,-17,-9,-4,-14,-15,-10,-6,0
17405,10,6,3,-1,4,11,6,3,0
17410,16,14,-1,-5,-3,5,7,-4,0
17415,-7,-1,1,3,2,9,11,12,0
17420,-12,-13,-5,-1,-4,0,24,-6,0
17425,13,1,-5,-3,-6,6,17,16,0
17430,-13,-7,7,6,6,-9,-6,-13,0
17435,-6,-3,-11,-12,-2,-8,8,-7,0
17440,-3,-6,-6,-10,-15,-11,-18,0,0
17445,-12,-3,-4,-3,2,-1,13,-8,0
17450,-2,0,0,2,3,5,4,-6,0
17455,-2,-4,0,6,-3,-4,-13,-3,0
17460,3,-3,-2,-4,-3,-2,2,-1,0
17465,-3,-1,-2,-6,-1,-6,-19,0,0
17470,-1,-15,0,7,-2,-1,7,-1,0
17475,-15,-12,-3,-5,-6,-3,-7,-9,0
17480,5,26,4,2,4,-5,2,-5,0
17485,29,9,3,5,7,8,3,39,0
17490,3,-1,-5,-4,2,-7,-3,0,0
17495,17,-2,5,8,11,12,15,18,0
17500,-5,19,2,-2,-4,-2,-8,-6,0
17505,-19,-20,-9,-12,-25,-16,-7,-26,0
17510,-9,-4,-10,-9,4,8,3,-10,0
17515,-4,-16,-7,-17,-18,-1,3,11,0
17520,5,-1,-2,-10,-35,-14,-4,-6,0
17525,-6,14,9,17,35,31,-2,-1,0
17530,2,-13,6,0,-1,-20,-3,4,0
17535,-11,6,-2,14,22,23,1,-10,0
17540,3,-4,3,8,13,5,-1,-1,0
17545,0,-4,0,2,-8,-14,-11,-15,0
17550,-6,3,-1,-4,2,-6,-22,-6,0
17555,14,5,3,-10,-5,-3,21,6,0
17560,-8,-19,-19,-12,-12,-24,6,3,0
17565,-11,-7,-3,1,-8,-5,-3,-3,0
17570,28,16,11,7,9,0,1,-3,0
17575,-8,-3,-1,1,3,3,-27,-2,0
17580,6,-11,-1,-2,5,12,35,6,0
17585,4,5,-5,-1,4,2,3,45,0
17590,-24,-6,-7,-3,-16,-13,0,-14,0
17595,-8,-5,-6,-2,-10,-9,-1,4,0
17600,-1,-1,-1,1,5,-11,-17,-7,0
17605,2,2,-1,-4,5,1,3,9,0
17610,6,5,1,0,4,-1,18,1,0
17615,-20,-9,-8,-2,-14,-6,-10,-6,0
17620,-22,0,-10,-7,0,20,-10,-19,0
17625,16,1,-3,-5,-8,-18,7,0,0
17630,13,-8,-12,-20,-22,10,-26,-2,0
17635,3,8,0,4,3,24,32,-21,0
17640,23,2,4,8,21,3,11,41,0
17645,-28,-9,0,0,-1,4,-17,-38,0
17650,-3,5,5,9,11,-7,-5,-2,0
17655,-5,-7,-14,-14,-15,-8,-18,-11,0
17660,-2,2,23,10,3,7,-1,-7,0
17665,3,-2,-3,0,-2,0,6,-4,0
17670,-5,2,1,1,4,5,15,10,0
17675,5,0,-6,-7,-8,-5,-2,8,0
17680,4,-3,-6,-15,-8,-7,-7,5,0
17685,7,1,0,1,-4,-11,-9,-9,0
17690,-2,1,12,15,8,6,4,-2,0
17695,-3,8,16,1,1,14,-4,8,0
17700,-2,-4,-11,-7,-2,7,-7,-10,0
17705,-7,-5,-6,-8,-8,4,-3,-11,0
17710,0,3,1,9,9,1,22,13,0
17715,7,5,8,20,21,-4,6,4,0
17720,6,3,0,-3,-4,-9,10,11,0
17725,-15,-5,-7,-12,-3,51,5,-10,0
17730,-8,-4,-5,-1,-2,13,1,-6,0
17735,-3,0,1,2,3,-10,-9,-5,0
17740,7,1,3,8,5,-11,-12,12,0
17745,-18,-10,5,2,5,-11,2,22,0
17750,22,19,6,-5,-2,-9,3,-19,0
17755,6,-13,-15,-12,-16,-22,-12,-60,0
17760,16,11,-4,6,-3,-10,1,60,0
17765,3,7,26,8,2,-13,-14,-24,0
17770,3,-4,1,7,9,13,5,13,0
17775,-12,-6,-3,-14,-13,-13,-4,-4,0
17780,0,-5,-8,-10,-16,-2,-19,-27,0
17785,2,-1,-10,2,1,-1,3,14,0
17790,-13,-3,-3,-9,-5,-22,3,2,0
17795,12,11,12,18,24,25,11,21,0
17800,-3,-5,1,0,2,16,6,4,0
17805,1,0,-7,-13,-18,-4,3,3,0
17810,3,-1,-10,-13,-9,-6,-11,-39,0
17815,-7,-2,0,6,-1,-2,-4,0,0
17820,-18,-8,6,8,15,12,-2,-31,0
17825,-12,-17,-6,1,8,-2,14,-16,0
17830,17,18,8,2,-9,-11,-14,32,0
17835,3,-6,-9,-9,-7,19,-1,10,0
17840,-13,6,4,2,-8,-21,-3,-10,0
17845,3,1,5,3,4,-26,-15,-12,0
17850,-10,-18,-4,1,11,52,32,14,0
17855,4,4,3,-2,4,-7,-10,13,0
17860,-7,-13,-14,-13,-7,-7,-4,-14,0
17865,-9,0,-7,-5,-20,-16,-12,10,0
17870,-1,-1,0,1,-1,-1,-3,-9,0
17875,-7,3,7,6,8,-3,7,-25,0
17880,35,-1,-4,-1,9,15,13,41,0
17885,8,-11,-2,5,8,-3,6,3,0
17890,1,50,21,10,7,4,-14,-14,0
17895,-22,-16,-24,-11,-7,-6,-3,-15,0
17900,-10,0,15,-4,-13,-15,-2,-17,0
17905,6,-14,-7,-10,-5,2,-2,2,0
17910,-17,-30,-16,-2,-5,-29,-10,0,0
17915,29,8,-10,6,14,29,12,21,0
17920,-11,11,29,7,-1,-11,-12,-7,0
17925,17,24,-7,0,-9,-6,3,4,0
17930,-7,-11,-13,-12,-4,4,-3,-3,0
17935,-2,5,10,0,-2,-22,-11,7,0
17940,-3,-12,-12,-1,5,32,16,-2,0
17945,-9,6,8,3,8,12,-3,-15,0
17950,1,-8,-4,-5,-9,-5,2,4,0
17955,-5,-3,-2,-1,-16,-21,-1,8,0
17960,1,0,-6,2,12,21,2,-5,0
17965,-1,0,-11,2,1,2,-3,-2,0
17970,1,4,0,-6,-5,-8,-1,8,0
17975,-20,-5,4,-8,-15,-13,-5,8,0
17980,25,-1,-14,-1,1,-8,-7,-5,0
17985,-5,4,11,1,9,3,11,16,0
17990,-4,-11,-4,2,-5,-21,-15,-19,0
17995,7,9,8,1,0,8,6,-40,0
18000,-10,-10,-13,-6,-15,-15,-7,-21,0
18005,-7,-5,-3,-5,5,22,1,-12,0
18010,-4,-14,-3,-1,-7,-5,-12,7,0
18015,-3,-17,-6,-7,-4,-7,4,32,0
18020,2,41,15,11,9,1,-1,0,0
18025,1,12,3,2,3,-7,-2,2,0
18030,-7,-5,3,2,3,16,12,5,0
18035,7,-2,2,-2,-5,5,-4,-5,0
18040,-7,-20,-9,-6,-4,-4,-5,6,0
18045,4,3,-1,-4,-8,-40,-11,1,0
18050,-2,3,1,-2,4,35,12,-4,0
18055,-6,-10,-6,0,0,-10,-1,-4,0
18060,-6,-5,3,4,6,4,-9,1,0
18065,-1,5,1,0,-1,6,-2,-2,0
18070,-5,-16,-13,-12,-15,-40,-6,-9,0
18075,2,0,-2,2,5,37,7,10,0
18080,1,14,9,6,10,-22,2,5,0
18085,-8,-7,-13,-13,-7,16,-6,-12,0
18090,-4,-9,-8,1,-2,12,3,2,0
18095,7,5,-11,-10,-10,-26,-1,7,0
18100,-3,15,47,10,-6,11,4,-12,0
18105,-6,-25,-19,-5,2,-2,1,5,0
18110,-11,-18,-11,-3,2,3,-5,-10,0
18115,12,-22,7,5,7,-15,-10,7,0
18120,-4,27,-11,3,2,19,9,-10,0
18125,15,32,19,-1,-8,-6,-4,-6,0
18130,9,-1,0,-1,-2,-16,1,3,0
18135,-23,-22,-13,-5,3,-10,-11,-5,0
18140,-9,-28,-11,-6,1,-16,-18,-6,0
18145,0,-7,-9,-1,-4,42,19,1,0
18150,7,10,-2,2,4,-3,13,7,0
18155,2,17,18,0,0,-14,-8,-6,0
18160,-2,-16,-28,-13,-5,8,7,10,0
18165,-1,3,-2,-5,-13,-30,-16,-4,0
18170,0,4,9,0,4,58,17,0,0
18175,9,13,6,5,7,0,8,8,0
18180,-5,-8,-9,4,1,-5,-2,-1,0
18185,-4,-8,10,7,9,5,-3,1,0
18190,-4,-11,-26,8,-1,-22,-10,-4,0
18195,15,34,64,6,4,17,17,2,0
18200,-2,-14,-37,-14,-16,-23,-11,-3,0
18205,-40,-14,20,6,4,14,14,-2,0
18210,44,18,-2,-5,-3,2,-7,4,0
18215,-15,-1,-12,2,4,3,-4,-2,0
18220,1,-11,-7,0,8,0,2,0,0
18225,-8,-3,5,3,4,1,-1,-3,0
18230,-13,-3,6,-8,-8,-19,-3,1,0
18235,10,-9,-30,-7,-23,-22,-20,-5,0
18240,-10,-6,11,-5,3,31,20,0,0
18245,10,9,-10,5,11,-21,-5,1,0
18250,-9,1,-6,0,3,10,-9,-2,0
18255,15,7,9,7,2,1,11,1,0
18260,-16,-14,-8,-10,-9,20,-1,-2,0
18265,8,-1,-2,0,3,-17,2,0,0
18270,-10,-6,-1,0,2,0,-3,-8,0
18275,-15,-8,-4,-3,-2,8,-13,-4,0
18280,9,2,4,0,-6,-37,6,-2,0
18285,-19,-18,-6,-4,-1,17,5,-10,0
18290,-4,-10,7,-5,-2,8,-8,18,0
18295,-4,24,-12,0,-3,-2,1,2,0
18300,1,3,5,-6,-2,-7,-4,-3,0
18305,8,2,-2,3,1,-7,-4,-6,0
18310,-33,-17,1,-1,-8,-20,-12,-25,0
18315,29,9,2,-1,3,33,17,22,0
18320,6,16,1,-7,-13,-31,-7,22,0
18325,-7,-6,-2,-4,-10,-22,-5,-19,0
18330,-23,-14,2,9,5,6,-4,-25,0
18335,9,-28,-22,-14,-13,-14,-2,-21,0
18340,43,51,23,13,7,18,5,56,0
18345,-9,-4,-2,2,1,-15,-12,-37,0
18350,5,3,5,-5,5,-3,24,1,0
18355,-23,-13,-3,0,-8,-16,-37,-15,0
18360,-12,-42,-22,-11,-7,-10,-1,-25,0
18365,24,24,1,-10,-5,19,-8,24,0
18370,-6,27,5,1,-6,-21,-14,-19,0
18375,-19,-13,9,2,9,9,23,3,0
18380,-26,-22,9,9,-3,4,-23,-35,0
18385,19,1,-9,0,-1,-2,2,23,0
18390,8,27,8,4,5,-9,5,-8,0
18395,9,-3,-1,-3,5,8,5,45,0
18400,-31,-38,-1,-5,1,-1,7,4,0
18405,62,71,15,1,-11,-9,4,32,0
18410,-4,6,4,2,5,7,-3,-2,0
18415,-1,-17,-23,-2,17,29,1,-13,0
18420,-22,4,20,-5,-10,0,-10,-33,0
18425,-21,-50,-32,-18,-17,-15,-1,2,0
18430,20,-6,-6,2,-6,-1,-9,26,0
18435,-2,20,10,9,5,-13,-3,-5,0
18440,5,6,-1,19,31,16,8,-2,0
18445,-32,-22,-2,-13,-22,17,-12,-26,0
18450,37,8,-6,-16,-6,-12,14,17,0
18455,-13,-6,5,1,-2,12,7,3,0
18460,27,10,-12,15,15,-22,1,44,0
18465,-6,3,21,4,6,6,1,-12,0
18470,-19,3,10,-4,-6,-2,-8,-27,0
18475,-14,3,-8,-3,-9,-7,-4,3,0
18480,16,19,9,1,-1,3,6,-2,0
18485,-13,-16,-8,1,8,5,-4,-8,0
18490,2,-30,-17,-8,-2,-21,-7,5,0
18495,5,-2,8,-1,-4,-1,5,9,0
18500,-2,7,-6,-3,-10,-9,-8,-9,0
18505,-9,-12,-10,1,8,-5,7,8,0
18510,-10,-2,7,6,-1,10,4,-2,0
18515,7,8,-21,1,6,-11,-11,-6,0
18520,-19,-9,-10,-22,-27,-15,-11,-17,0
18525,13,-18,-28,-10,5,35,10,-2,0
18530,-20,-2,2,6,1,31,-2,11,0
18535,17,14,-5,-4,-2,-11,-5,-15,0
18540,-26,-5,22,5,-5,-20,-10,-20,0
18545,-7,-39,-5,-3,5,29,-4,9,0
18550,14,58,-13,-3,4,35,11,11,0
18555,2,-28,8,3,6,-9,-5,-10,0
18560,-17,19,-20,-5,-4,6,-5,-7,0
18565,15,12,11,1,-5,-37,-21,-4,0
18570,-23,-50,-11,1,0,13,15,-6,0
18575,-2,14,-1,-5,-4,-6,0,11,0
18580,15,2,8,-14,-6,9,-6,3,0
18585,-7,21,16,9,1,-3,-1,-8,0
18590,9,1,12,13,7,-13,-7,5,0
18595,1,-7,-6,-2,-1,2,9,-7,0
18600,8,-35,-16,-10,-4,18,4,-1,0
18605,7,30,2,3,9,-18,12,4,0
18610,1,-10,35,6,0,-10,-1,4,0
18615,-3,11,4,-7,-14,3,-15,-6,0
18620,4,8,-9,13,26,-6,15,5,0
18625,-2,-10,2,6,-1,6,12,10,0
18630,5,-9,-13,-21,-17,-23,-11,1,0
18635,-18,6,4,-3,-11,9,6,-11,0
18640,4,5,4,5,-1,36,-3,-2,0
18645,1,-6,-3,1,11,-23,-6,-2,0
18650,3,7,-3,-2,-3,-20,-2,1,0
18655,1,-2,-22,-14,-3,25,-1,-2,0
18660,5,10,29,5,-6,-21,7,1,0
18665,-13,-18,-22,10,11,30,10,3,0
18670,28,22,33,8,3,-1,-10,1,0
18675,-15,-9,-10,-4,4,-36,-5,1,0
18680,-2,-4,-12,-1,-16,4,-5,-1,0
18685,-7,1,-7,-12,-9,9,11,0,0
18690,-10,-3,0,-1,6,-3,11,-3,0
18695,-7,-13,-4,1,1,10,-2,-14,0
18700,15,39,12,8,19,-3,-12,3,0
18705,4,2,19,-6,-16,-26,2,-2,0
18710,-19,-18,-22,-13,-19,-11,-10,-6,0
18715,10,-6,9,-1,-4,-6,-3,-2,0
18720,-17,-25,-14,-1,4,2,1,-6,0
18725,5,1,-3,-6,-9,-12,-25,2,0
18730,10,13,12,15,37,19,25,8,0
18735,-7,1,0,0,-7,-2,13,-2,0
18740,17,-7,-3,0,6,5,10,3,0
18745,-16,-7,-6,-4,-5,-4,-14,-21,0
18750,11,6,-1,1,2,8,1,20,0
18755,20,19,3,4,5,-40,-12,17,0
18760,-3,-16,-6,-11,-18,4,26,-1,0
18765,-35,-7,-4,-2,-1,-6,-11,-34,0
18770,-8,-37,-28,-15,-16,-13,-21,-27,0
18775,29,35,16,6,-1,11,19,41,0
18780,-27,-10,-4,-9,-4,-25,-17,-47,0
18785,-7,-2,-1,-3,-3,14,1,9,0
18790,7,-33,-19,0,-3,-9,-10,26,0
18795,43,60,25,21,25,6,3,-10,0
18800,-2,-6,-10,-4,-6,-1,7,5,0
18805,-49,-32,-3,-13,-20,-14,-24,-87,0
18810,4,-13,-17,-23,-29,-20,-8,0,0
18815,25,16,26,39,50,35,-4,25,0
18820,7,7,10,13,-1,1,-14,5,0
18825,-6,-4,-16,-32,-32,-25,-14,-6,0
18830,-34,-30,-10,-17,-16,6,-18,-27,0
18835,-14,0,-1,-5,-14,-8,1,-43,0
18840,-10,30,7,15,8,-17,-9,-13,0
18845,34,8,-10,3,28,34,30,45,0
18850,3,75,76,15,-2,-2,9,-32,0
18855,-17,-66,-29,-17,-18,-12,-12,6,0
18860,-37,-3,-5,-4,1,17,-9,-15,0
18865,49,26,12,18,7,-11,20,97,0
18870,16,-17,-20,3,8,3,9,33,0
18875,-32,-28,-5,-10,-3,12,-6,-53,0
18880,-2,-24,10,-6,-15,-22,-17,11,0
18885,5,11,8,9,5,24,4,4,0
18890,-41,-25,-26,-2,18,-8,10,-37,0
18895,24,4,-1,-16,-27,-12,-9,27,0
18900,8,19,-15,-8,-11,-3,-4,-20,0
18905,-3,19,9,5,5,-7,2,-16,0
18910,-22,-8,-16,7,2,-8,-15,-37,0
18915,-10,-5,50,13,4,-6,7,13,0
18920,-13,-20,-14,-15,-7,6,-4,-28,0
18925,40,11,8,7,-2,-2,10,42,0
18930,-15,13,-4,0,-4,-11,-20,-39,0
18935,-19,-24,-19,-13,-4,5,3,-13,0
18940,-27,-59,-2,3,7,3,2,-21,0
18945,84,93,32,12,5,-3,-11,39,0
18950,7,-8,-9,-5,-6,6,0,13,0
18955,-6,-8,-12,1,10,-2,15,-4,0
18960,2,-19,0,-4,-5,-24,-10,-23,0
18965,-44,-45,-25,-24,-26,11,4,-43,0
18970,28,25,11,7,10,-10,6,41,0
18975,-15,11,-6,-2,-3,14,-6,2,0
18980,9,2,6,21,30,-4,-8,17,0
18985,-10,-16,5,3,3,2,3,-18,0
18990,-9,4,2,-23,-33,-26,-21,-47,0
18995,-10,-21,-8,-1,-4,-9,2,38,0
19000,8,-6,-20,-7,-3,6,0,5,0
19005,9,48,24,14,15,-4,-6,-5,0
19010,-20,-28,-11,10,17,18,2,-24,0
19015,-4,5,3,-14,-19,-6,-7,-14,0
19020,21,13,-7,-10,-16,-2,6,51,0
19025,-16,-24,-7,-2,-3,-12,-12,-6,0
19030,-2,-7,-9,-6,-3,11,15,-7,0
19035,-12,-16,-4,2,10,-8,-33,-37,0
19040,-6,-7,4,0,-1,6,2,-2,0
19045,17,15,0,2,4,-3,-6,5,0
19050,30,33,6,8,6,-3,8,51,0
19055,-26,-26,-17,-13,-14,7,7,-21,0
19060,6,6,1,-14,-10,-1,8,6,0
19065,-44,-54,-30,-10,-9,-11,-9,-41,0
19070,25,44,33,18,20,16,17,67,0
19075,-3,13,5,9,11,1,1,3,0
19080,6,0,-4,-7,-10,-5,5,-30,0
19085,-24,-31,-13,-11,-15,-11,-1,-33,0
19090,7,-8,1,0,-5,2,-12,-20,0
19095,-8,-5,-7,10,8,4,-6,-24,0
19100,8,16,14,11,29,31,2,16,0
19105,-13,-14,-4,-18,-9,-3,-7,-32,0
19110,12,-21,-6,-9,-13,-8,3,12,0
19115,-8,14,-5,-6,-6,18,3,4,0
19120,33,12,6,14,23,21,28,69,0
19125,-16,0,7,7,10,12,-6,-18,0
19130,-22,-22,-8,-5,-9,-12,-11,-32,0
19135,9,-15,-15,-7,-9,-13,-6,1,0
19140,5,23,-4,-13,-15,33,18,16,0
19145,-4,-6,7,6,5,-47,10,-11,0
19150,-7,-15,-4,-4,0,10,-6,6,0
19155,-18,-22,-3,-2,-4,-1,-3,-26,0
19160,8,10,6,5,2,-6,0,39,0
19165,6,-3,-2,2,2,1,19,-2,0
19170,-6,3,-2,-2,-2,-12,1,-13,0
19175,4,5,12,5,8,8,31,25,0
19180,-14,-24,-16,-5,-6,-14,-14,-41,0
19185,8,12,3,5,5,17,-6,37,0
19190,-4,1,1,3,5,-4,4,6,0
19195,4,-3,-8,-11,-8,3,2,-9,0
19200,-6,-9,-8,-15,-16,-18,-7,-24,0
19205,5,11,5,7,7,1,-5,5,0
19210,3,11,0,-3,-4,8,-17,-6,0
19215,34,19,-1,1,11,-13,-4,71,0
19220,-12,-1,1,0,-7,-4,-5,-22,0
19225,-11,-14,-12,-5,-10,-5,-10,-8,0
19230,-1,-5,7,-1,-6,-11,-12,-4,0
19235,6,16,8,20,20,21,30,6,0
19240,3,0,-2,-14,-16,-13,-8,7,0
19245,-17,-18,-8,-13,-9,-3,-15,-19,0
19250,13,5,-2,-1,-2,4,5,15,0
19255,-16,1,4,-2,-5,-18,-15,-24,0
19260,25,10,12,22,20,0,12,39,0
19265,1,16,4,8,5,10,5,-4,0
19270,-23,-5,-3,-11,-3,14,15,-30,0
19275,1,-8,1,-1,-15,-10,-23,-18,0
19280,-21,-23,-9,-10,-2,-12,-18,-21,0
19285,38,34,6,15,10,27,29,85,0
19290,3,-7,4,3,12,11,12,25,0
19295,-10,-10,-13,-12,-14,-16,-5,-14,0
19300,-17,-9,-10,-11,-17,-2,0,-17,0
19305,15,-8,9,18,14,11,-8,-16,0
19310,-1,-7,-9,0,1,-1,-3,16,0
19315,10,23,2,-23,-24,-22,7,2,0
19320,12,5,-3,-1,5,18,3,11,0
19325,-20,-15,-1,-3,4,-21,-7,-18,0
19330,7,0,5,26,25,27,-2,12,0
19335,-5,-8,-9,-2,-3,-15,3,4,0
19340,-8,-4,4,-14,-15,4,-2,-8,0
19345,-4,-2,-3,-15,-18,1,-7,-13,0
19350,20,6,-4,4,5,-3,-1,13,0
19355,-6,2,8,4,9,-4,-7,-34,0
19360,-8,0,6,15,13,-6,-5,-3,0
19365,-7,-4,-3,-3,1,6,4,-3,0
19370,-7,-8,-5,-16,-14,-23,-11,2,0
19375,5,3,2,4,3,24,13,3,0
19380,9,7,2,7,9,21,-1,-7,0
19385,-11,-10,0,11,9,-12,-6,-26,0
19390,-5,-3,-8,-27,-26,-27,-7,-6,0
19395,-2,-2,-11,-8,-24,5,-19,1,0
19400,-13,4,4,-1,4,-6,-3,-35,0
19405,21,15,0,2,9,1,2,56,0
19410,0,2,13,18,18,10,19,13,0
19415,1,-1,-1,-4,-7,-17,-21,-8,0
19420,-18,1,-9,-1,9,25,14,-17,0
19425,16,7,0,4,3,22,27,4,0
19430,-5,-3,3,5,0,-10,-10,-23,0
19435,-15,-8,6,-10,3,28,-1,-21,0
19440,37,9,-3,-2,-16,-48,1,56,0
19445,-24,-19,-9,-15,-5,23,5,-35,0
19450,2,7,-6,-3,-3,-2,0,1,0
19455,1,3,3,9,13,18,29,17,0
19460,-10,-5,-5,1,6,0,-21,-23,0
19465,-14,-10,-3,-24,-20,-26,-15,-14,0
19470,16,-3,-5,-7,-13,2,12,30,0
19475,-5,2,-11,8,6,-19,-19,-9,0
19480,3,-2,5,6,8,0,11,15,0
19485,-15,1,18,2,-1,-12,-4,6,0
19490,26,44,9,1,-5,-8,3,1,0
19495,-3,-3,-3,6,3,0,-2,-3,0
19500,9,-4,5,8,7,3,8,35,0
19505,-17,-17,-14,-7,6,9,-4,-24,0
19510,-19,-15,-14,-20,-22,-17,-16,-28,0
19515,21,7,3,-6,-4,16,12,50,0
19520,-5,7,4,0,-4,-23,-14,-9,0
19525,3,-2,2,2,2,2,2,-9,0
19530,-6,-13,-1,-6,-2,8,-8,-2,0
19535,-10,-9,-11,-6,-6,-24,-11,-14,0
19540,-6,-7,-3,2,0,0,-12,9,0
19545,5,-2,-1,1,-2,7,-2,-10,0
19550,-8,-9,-5,-7,-3,1,12,3,0
19555,3,-8,0,2,0,-7,-6,17,0
19560,-16,8,1,-6,-3,-5,-11,-34,0
19565,4,-15,-13,-5,-8,0,-7,-7,0
19570,4,8,5,8,-5,-11,3,7,0
19575,-19,-8,4,5,13,11,-4,-27,0
19580,-4,-12,-5,-6,-9,-13,-11,-53,0
19585,-4,6,7,11,3,0,15,0,0
19590,4,-5,4,5,6,0,-12,-8,0
19595,1,-5,-2,-11,-14,-7,-8,1,0
19600,-11,-1,-7,-15,-16,-2,2,-11,0
19605,9,-5,-6,1,-6,-12,-4,10,0
19610,3,6,2,11,15,-5,13,12,0
19615,2,4,-1,-8,-2,33,25,18,0
19620,-4,-4,1,-3,0,-4,1,14,0
19625,-1,-2,-5,-5,-8,-4,-24,-9,0
19630,7,11,3,7,6,3,1,19,0
19635,-12,-9,-14,4,4,-13,-6,-31,0
19640,17,14,10,4,4,6,18,-6,0
19645,1,22,3,1,3,-3,-9,3,0
19650,-17,-12,-5,7,9,4,-2,-30,0
19655,-10,-4,1,-11,-16,-23,-12,-18,0
19660,27,3,-7,-6,-10,2,7,80,0
19665,-8,-6,-3,-1,6,-14,-16,-22,0
19670,-7,-12,-3,-6,5,20,0,-2,0
19675,3,1,-1,0,-17,-5,-13,-10,0
19680,-4,-2,2,10,20,-6,27,-8,0
19685,1,-2,4,0,-8,-12,-9,11,0
19690,-4,2,-5,3,8,7,2,23,0
19695,8,-5,2,-5,-3,-8,-1,16,0
19700,-1,0,-5,-19,-29,-7,-11,-20,0
19705,15,-10,-1,0,6,4,10,37,0
19710,-18,13,5,-6,-2,3,-1,-32,0
19715,6,13,7,10,12,-12,-3,2,0
19720,0,3,7,19,12,12,-2,-1,0
19725,-8,-4,-1,-7,2,5,10,-3,0
19730,-12,-21,-14,-14,-18,-9,-13,-30,0
19735,12,16,10,4,4,1,25,51,0
19740,6,7,-2,5,6,9,-10,22,0
19745,2,4,-1,-4,-4,-9,5,-1,0
19750,-8,-5,-4,-5,-14,15,10,-20,0
19755,-1,-10,-3,-7,3,-7,-24,-5,0
19760,-11,-11,-4,7,2,2,-7,-13,0
19765,-2,3,1,-1,-10,5,-4,-1,0
19770,7,-2,0,0,17,1,6,1,0
19775,8,2,-3,-10,-15,-1,10,18,0
19780,-14,-3,2,-2,-5,1,-7,7,0
19785,12,7,0,4,0,-10,-14,-7,0
19790,14,3,2,3,1,-12,-14,0,0
19795,-5,-6,1,-1,4,15,21,-11,0
19800,-6,4,-4,-10,-8,-12,-6,-4,0
19805,3,-16,-9,0,-1,10,23,52,0
19810,15,21,8,5,5,13,-19,10,0
19815,-4,-5,2,2,11,-24,7,-13,0
19820,-5,-13,-8,-5,-12,-1,-11,-26,0
19825,-11,3,-2,-7,-11,-1,-6,7,0
19830,3,-12,-2,-4,-7,-15,10,8,0
19835,-2,8,0,8,15,31,-14,-3,0
19840,3,3,5,3,6,-4,4,8,0
19845,-19,-15,-4,-7,0,-3,-5,-41,0
19850,2,0,-6,-4,-18,-18,0,19,0
19855,-12,-6,-5,-1,-11,4,6,-30,0
19860,5,11,11,4,20,-6,4,-9,0
19865,1,2,-3,-5,1,21,10,-3,0
19870,-5,-23,-8,-12,-12,-11,-8,-24,0
19875,2,-1,-6,-3,-7,-8,-17,24,0
19880,-13,7,1,8,18,8,-18,-30,0
19885,15,8,3,1,-7,11,30,21,0
19890,-21,-10,-2,-13,-17,-17,-12,-56,0
19895,2,-9,-6,1,-2,-12,-6,28,0
19900,21,-2,-5,-1,0,1,3,15,0
19905,-7,3,3,4,9,10,-2,26,0
19910,6,3,3,4,5,11,-4,14,0
19915,-3,0,2,3,2,-8,4,-26,0
19920,-12,-9,-9,-14,-11,-2,-1,-16,0
19925,1,-2,4,5,6,-6,-6,-32,0
19930,-8,-6,-2,1,-1,-4,11,36,0
19935,13,4,1,-4,0,-13,-8,3,0
19940,-9,-7,-1,-6,-9,31,-6,-34,0
19945,-2,-3,-8,-13,-24,-34,-12,13,0
19950,12,7,-3,3,11,8,-8,-20,0
19955,-8,8,8,23,24,33,8,-9,0
19960,6,0,3,9,12,8,4,7,0
19965,-7,-13,-5,-19,-24,-22,-18,-6,0
19970,-17,-3,-8,-11,-10,3,-5,-48,0
19975,15,4,2,1,-3,-3,2,44,0
19980,-3,6,-2,4,0,-8,-8,1,0
19985,-3,8,7,18,22,1,-6,-4,0
19990,1,-9,0,-8,-9,-14,5,16,0
19995,-7,-13,-13,-14,-18,10,-6,-46,0
20000,6,-3,-2,-4,-9,-14,2,20,0
20005,-10,3,-1,9,12,-4,7,-38,0
20010,1,6,-2,-3,3,12,15,21,0
20015,-13,-10,2,5,3,-6,-18,-14,0
20020,14,2,-4,-14,-7,-1,6,47,0
20025,-12,-3,-2,-1,-6,0,-8,-19,0
20030,13,0,0,0,-1,3,0,22,0
20035,-3,-3,5,2,1,-13,3,-15,0
20040,-6,-12,-9,-4,-5,2,10,-14,0
20045,29,29,6,6,10,8,2,46,0
20050,-13,-7,5,8,9,4,7,3,0
20055,-8,-5,-4,-6,-5,-4,-3,-34,0
20060,-3,-7,1,2,-7,-13,24,-14,0
20065,2,-1,1,-4,5,15,0,4,0
20070,-15,-6,-8,-3,-12,-13,-15,-30,0
20075,11,6,1,2,13,3,8,12,0
20080,4,-5,-1,-1,-5,0,-11,-14,0
20085,3,1,-4,-6,-15,-6,18,21,0
20090,-10,-11,-5,1,5,-1,-25,-31,0
20095,5,17,3,2,-2,-4,13,47,0
20100,-11,3,2,7,11,16,-4,-8,0
20105,-3,-9,6,5,12,-20,-6,-11,0
20110,18,0,-10,-13,-16,2,4,30,0
20115,-2,0,-4,-1,-12,-18,-7,18,0
20120,4,3,3,9,22,16,14,12,0
20125,-9,-1,1,-6,-1,31,12,-16,0
20130,3,1,8,1,-3,-20,7,-21,0
20135,-5,-7,-2,-2,3,0,-14,-22,0
20140,-1,2,-1,3,-10,-7,3,18,0
20145,0,-8,-8,-5,-9,-21,-17,-21,0
20150,2,2,6,4,7,18,4,-15,0
20155,12,7,-5,-2,1,10,3,21,0
20160,-26,-19,-8,-12,-10,-23,-33,-37,0
20165,-8,-13,-6,-2,-5,10,2,-4,0
20170,12,27,2,2,3,-8,9,-7,0
20175,-8,-11,-2,-8,-6,-10,-8,-22,0
20180,7,-3,-2,2,-4,-6,-3,38,0
20185,0,0,0,9,11,20,2,-15,0
20190,-6,-5,1,-4,7,19,-2,15,0
20195,-9,-9,-4,-18,-26,-15,5,-13,0
20200,3,-1,-6,-11,-9,-23,-11,-11,0
20205,4,-1,2,8,8,-15,-1,9,0
20210,-11,1,11,21,17,27,7,-4,0
20215,19,4,0,-3,-1,-9,9,24,0
20220,-14,-11,-9,-20,-18,-12,-31,-32,0
20225,24,4,-8,3,3,3,19,39,0
20230,-9,3,1,7,12,8,-6,23,0
20235,-3,-3,2,4,10,17,-2,-27,0
20240,5,6,1,-3,-4,3,12,4,0
20245,-10,-2,3,-4,-7,-28,-17,-13,0
20250,-3,-1,-2,5,1,-8,1,8,0
20255,5,-7,-10,-18,-12,8,10,-1,0
20260,1,-2,-7,-19,-23,2,4,-16,0
20265,1,-1,3,0,-3,-15,-11,27,0
20270,-3,-2,6,16,6,-13,0,-29,0
20275,-7,5,6,21,24,11,6,-16,0
20280,-5,-2,6,12,18,-7,14,3,0
20285,2,2,-5,-27,-40,-29,-20,-14,0
20290,-1,-6,-12,-19,-15,7,-10,3,0
20295,-3,0,5,6,11,8,-2,0,0
20300,5,2,4,19,23,5,-5,11,0
20305,-6,4,1,-3,-7,-6,12,2,0
20310,10,-1,-3,-10,4,8,4,32,0
20315,-25,-9,-14,-13,-22,-11,-14,-44,0
20320,26,7,4,2,-2,-1,2,18,0
20325,-15,-2,2,13,15,16,-7,-12,0
20330,-12,-8,2,-5,-7,-16,6,-20,0
20335,3,-4,-10,-14,-10,37,7,-13,0
20340,3,3,1,-2,-5,-10,2,14,0
20345,14,3,-5,-7,-6,-1,14,44,0
20350,3,4,6,16,20,15,8,-12,0
20355,1,2,2,4,11,-17,-8,-2,0
20360,-16,0,-2,-3,-13,15,18,12,0
20365,11,-5,0,-4,6,10,7,9,0
20370,-1,-3,-4,-7,-15,-18,-10,-19,0
20375,-21,-3,5,5,-6,-17,-16,-28,0
20380,8,-1,-6,0,15,30,16,40,0
20385,2,9,8,9,9,-4,5,-12,0
20390,0,-8,-12,-12,-22,-6,-3,0,0
20395,8,2,2,0,1,-3,-11,32,0
20400,-20,-11,-3,-8,-20,-32,-17,-77,0
20405,4,-17,-11,-8,9,20,-12,8,0
20410,3,10,8,11,14,-12,2,-31,0
20415,-5,-2,3,-1,-13,-15,8,3,0
20420,-17,-3,1,-2,5,27,-6,-12,0
20425,23,4,7,3,3,-12,3,21,0
20430,-13,-6,-4,5,-1,-13,-21,-26,0
20435,2,-2,-5,0,7,10,3,27,0
20440,-4,6,4,0,-5,-7,1,-11,0
20445,-14,-10,-2,-9,0,29,24,-45,0
20450,-2,-10,-1,-3,-8,-12,-9,21,0
20455,5,4,3,2,12,20,11,19,0
20460,12,3,3,15,7,5,2,4,0
20465,-5,11,-3,-5,-7,-7,-12,-6,0
20470,-14,-16,-6,-15,-26,-7,-10,-34,0
20475,9,4,6,6,14,2,11,12,0
20480,15,10,9,9,21,8,16,12,0
20485,-20,-8,-4,-5,-21,-12,-15,-44,0
20490,1,-14,-4,0,5,10,-1,40,0
20495,3,12,5,3,-10,-30,4,-9,0
20500,4,-16,-2,-6,5,15,-8,12,0
20505,-7,-7,-9,1,0,1,-17,0,0
20510,9,7,-2,-6,-10,-3,-1,38,0
20515,-13,-8,4,8,5,-10,-1,-16,0
20520,5,0,-11,-8,2,5,20,14,0
20525,-31,-21,-8,-9,-18,-12,-16,-75,0
20530,25,14,5,0,-1,0,4,27,0
20535,4,2,-3,2,9,10,-12,17,0
20540,-17,-8,2,10,0,-12,-16,-26,0
20545,18,12,0,-3,14,20,12,40,0
20550,-19,-12,-11,-7,-16,-20,-9,-21,0
