Timestamp, Angle x, Angle y, Angle z, Marker
20,-0.4338,0.727833,-1.24895,0
50,-0.433977,0.728419,-1.24822,0
70,-0.433683,0.728904,-1.24721,0
90,-0.433328,0.729563,-1.24579,0
110,-0.433431,0.73012,-1.24454,0
130,-0.434078,0.73084,-1.2435,0
140,-0.434622,0.731545,-1.24302,0
140,-0.434562,0.731539,-1.24283,0
180,-0.434367,0.731923,-1.24322,0
200,-0.433633,0.73208,-1.24338,0
220,-0.433239,0.732122,-1.24336,0
240,-0.43337,0.732185,-1.24346,0
260,-0.436346,0.732385,-1.24228,0
280,-0.443418,0.730601,-1.24149,0
300,-0.447381,0.726731,-1.24527,0
320,-0.438046,0.721206,-1.24708,0
340,-0.420306,0.712416,-1.24717,0
360,-0.410459,0.696384,-1.25279,0
380,-0.407818,0.671756,-1.25848,0
400,-0.409213,0.636501,-1.26481,0
420,-0.408722,0.59337,-1.27402,0
440,-0.40647,0.541256,-1.28632,0
460,-0.406101,0.479863,-1.29962,0
480,-0.411335,0.410782,-1.31084,0
500,-0.425234,0.332465,-1.318,0
520,-0.443569,0.248185,-1.32446,0
540,-0.467608,0.156368,-1.33102,0
560,-0.494187,0.0612166,-1.33626,0
580,-0.522006,-0.0362324,-1.33869,0
600,-0.550283,-0.131296,-1.33879,0
600,-0.576798,-0.224417,-1.33703,0
620,-0.602539,-0.312114,-1.33533,0
660,-0.624103,-0.39513,-1.33273,0
680,-0.645696,-0.473587,-1.32434,0
700,-0.665588,-0.551041,-1.31223,0
720,-0.685415,-0.62223,-1.29904,0
740,-0.703414,-0.688037,-1.28587,0
760,-0.723249,-0.748183,-1.27044,0
780,-0.745962,-0.803763,-1.24831,0
800,-0.770837,-0.852816,-1.22129,0
820,-0.796335,-0.896589,-1.19483,0
840,-0.824644,-0.936243,-1.16687,0
860,-0.851648,-0.971906,-1.13819,0
880,-0.875233,-1.00621,-1.11093,0
900,-0.901448,-1.03853,-1.07958,0
920,-0.931104,-1.06886,-1.04653,0
940,-0.959264,-1.09713,-1.01555,0
960,-0.992115,-1.12296,-0.980843,0
980,-1.02467,-1.14496,-0.944201,0
1000,-1.05305,-1.16418,-0.911012,0
1020,-1.08115,-1.17962,-0.881482,0
1040,-1.10629,-1.19207,-0.855341,0
1060,-1.12608,-1.20363,-0.832437,0
1080,-1.141,-1.21459,-0.814321,0
1100,-1.15405,-1.22344,-0.799182,0
1120,-1.16641,-1.23106,-0.784894,0
1140,-1.17807,-1.23752,-0.770671,0
1160,-1.19359,-1.24281,-0.752331,0
1180,-1.2104,-1.24758,-0.733,0
1200,-1.2272,-1.25289,-0.712575,0
1220,-1.24893,-1.25768,-0.686982,0
1240,-1.27278,-1.26303,-0.660114,0
1260,-1.29785,-1.26834,-0.62983,0
1280,-1.32387,-1.27306,-0.599364,0
1300,-1.34723,-1.27836,-0.574,0
1320,-1.371,-1.28225,-0.54888,0
1340,-1.38586,-1.28474,-0.531919,0
1360,-1.38831,-1.28617,-0.529477,0
1380,-1.38465,-1.28603,-0.532522,0
1400,-1.382,-1.28705,-0.534905,0
1420,-1.38303,-1.28896,-0.532607,0
1440,-1.38276,-1.29156,-0.532786,0
1450,-1.3835,-1.29346,-0.532914,0
1470,-1.38361,-1.29505,-0.532631,0
1490,-1.38311,-1.29711,-0.532766,0
1510,-1.38445,-1.29948,-0.5319,0
1530,-1.39194,-1.30226,-0.525373,0
1550,-1.4023,-1.30589,-0.516311,0
1570,-1.41261,-1.30901,-0.506678,0
1590,-1.42198,-1.31253,-0.499277,0
1610,-1.42974,-1.31426,-0.492634,0
1630,-1.43439,-1.31513,-0.489375,0
1650,-1.43582,-1.31435,-0.488812,0
1670,-1.43685,-1.31259,-0.489363,0
1690,-1.44423,-1.30981,-0.484498,0
1710,-1.4586,-1.30601,-0.471902,0
1730,-1.47289,-1.30347,-0.458923,0
1750,-1.48559,-1.30184,-0.448468,0
1770,-1.4978,-1.3001,-0.437631,0
1790,-1.51146,-1.29877,-0.424002,0
1810,-1.52168,-1.29926,-0.413617,0
1830,-1.52546,-1.30085,-0.408569,0
1850,-1.52785,-1.3028,-0.404957,0
1870,-1.53065,-1.3039,-0.399356,0
1880,-1.53522,-1.30624,-0.392169,0
1900,-1.54169,-1.3083,-0.383005,0
1920,-1.55133,-1.30838,-0.370271,0
1940,-1.56256,-1.30793,-0.355204,0
1960,-1.57072,-1.30603,-0.343164,0
1980,-1.57699,-1.30434,-0.3339,0
2000,-1.58151,-1.30253,-0.324994,0
2020,-1.58456,-1.30032,-0.316797,0
2040,-1.5883,-1.29959,-0.308731,0
2060,-1.5999,-1.29987,-0.291696,0
2080,-1.6201,-1.30234,-0.266566,0
2100,-1.6423,-1.30636,-0.242128,0
2120,-1.66547,-1.3103,-0.217791,0
2140,-1.68101,-1.31336,-0.201385,0
2160,-1.69747,-1.31592,-0.184785,0
2180,-1.70768,-1.31758,-0.174826,0
2200,-1.71439,-1.3174,-0.167532,0
2220,-1.72149,-1.31674,-0.16051,0
2240,-1.72993,-1.31678,-0.15222,0
2260,-1.73812,-1.31682,-0.144959,0
2280,-1.74621,-1.31657,-0.138532,0
2300,-1.75326,-1.31524,-0.132932,0
2320,-1.76519,-1.31311,-0.123556,0
2340,-1.77983,-1.31132,-0.114029,0
2360,-1.79443,-1.31051,-0.107254,0
2380,-1.80854,-1.30954,-0.102081,0
2400,-1.81357,-1.30651,-0.105934,0
2420,-1.80299,-1.3011,-0.124432,0
2440,-1.77427,-1.29543,-0.158851,0
2460,-1.7178,-1.29585,-0.223695,0
2480,-1.63288,-1.29922,-0.319155,0
2500,-1.5154,-1.29861,-0.447414,0
2520,-1.37484,-1.28848,-0.595835,0
2540,-1.22132,-1.2652,-0.754331,0
2560,-1.07534,-1.22771,-0.901234,0
2580,-0.951101,-1.17406,-1.02206,0
2600,-0.850801,-1.10377,-1.11756,0
2620,-0.766085,-1.0219,-1.19251,0
2640,-0.689453,-0.930694,-1.25464,0
2660,-0.624297,-0.830581,-1.30375,0
2680,-0.572849,-0.724545,-1.33941,0
2700,-0.533594,-0.616795,-1.36622,0
2720,-0.498683,-0.511937,-1.38883,0
2740,-0.47191,-0.415402,-1.40563,0
2760,-0.457496,-0.326356,-1.41395,0
2780,-0.454439,-0.244279,-1.41308,0
2800,-0.459304,-0.170003,-1.40858,0
2820,-0.465948,-0.104563,-1.39754,0
2840,-0.476077,-0.0381137,-1.3828,0
2860,-0.483543,0.0259034,-1.36789,0
2880,-0.490184,0.0820596,-1.35646,0
2900,-0.499019,0.130663,-1.34762,0
2920,-0.506816,0.17799,-1.33696,0
2940,-0.510944,0.226004,-1.32606,0
2960,-0.516385,0.27131,-1.31715,0
2980,-0.522067,0.312989,-1.30799,0
3000,-0.52868,0.350824,-1.30087,0
3020,-0.533685,0.385485,-1.29743,0
3040,-0.536972,0.416975,-1.29658,0
3060,-0.53778,0.446056,-1.29659,0
3080,-0.53709,0.473135,-1.29663,0
3100,-0.537517,0.498252,-1.29807,0
3120,-0.538835,0.521301,-1.29935,0
3140,-0.541533,0.542671,-1.3007,0
3160,-0.544574,0.561171,-1.29965,0
3180,-0.546737,0.571465,-1.2929,0
3200,-0.549619,0.573826,-1.282,0
3220,-0.551157,0.57134,-1.2724,0
3240,-0.545305,0.569182,-1.26646,0
3260,-0.534885,0.570316,-1.26305,0
3280,-0.524821,0.574651,-1.26158,0
3300,-0.518298,0.581516,-1.26169,0
3320,-0.513468,0.590427,-1.26227,0
3340,-0.510696,0.599067,-1.26155,0
3360,-0.509432,0.605229,-1.26038,0
3380,-0.507566,0.607246,-1.25904,0
3400,-0.50317,0.607256,-1.25665,0
3420,-0.495364,0.610138,-1.25213,0
3440,-0.48801,0.614056,-1.24583,0
3460,-0.483814,0.618788,-1.23954,0
3480,-0.482869,0.623589,-1.23435,0
3500,-0.483574,0.628706,-1.23039,0
3520,-0.484059,0.631997,-1.22813,0
3540,-0.483155,0.634872,-1.22593,0
3560,-0.481278,0.63789,-1.22411,0
3580,-0.479566,0.640904,-1.22221,0
3600,-0.479645,0.643812,-1.2208,0
3620,-0.47994,0.646377,-1.21905,0
3640,-0.48051,0.648939,-1.21758,0
3660,-0.481081,0.651505,-1.21611,0
3680,-0.480902,0.653855,-1.21434,0
3700,-0.480752,0.655684,-1.2125,0
3720,-0.480417,0.657471,-1.21102,0
3740,-0.479989,0.658765,-1.21003,0
3760,-0.479605,0.658979,-1.20979,0
3780,-0.479176,0.659448,-1.20949,0
3800,-0.478911,0.659845,-1.20938,0
3820,-0.478481,0.660254,-1.20906,0
3840,-0.478279,0.660716,-1.20887,0
3860,-0.477222,0.662465,-1.20884,0
3880,-0.476282,0.66422,-1.20888,0
3900,-0.475617,0.665833,-1.20914,0
3920,-0.475511,0.667297,-1.20991,0
3940,-0.475617,0.668435,-1.21094,0
3960,-0.47575,0.669057,-1.2122,0
3980,-0.475483,0.669563,-1.21307,0
4000,-0.475437,0.669927,-1.21398,0
4010,-0.475682,0.670261,-1.21456,0
4030,-0.475983,0.670584,-1.215,0
4050,-0.47621,0.670647,-1.21545,0
4070,-0.476271,0.670793,-1.216,0
4090,-0.475982,0.670763,-1.21631,0
4110,-0.475355,0.670862,-1.2162,0
4130,-0.474927,0.671263,-1.21556,0
4150,-0.474773,0.671519,-1.21515,0
4170,-0.474518,0.672044,-1.2148,0
4190,-0.474448,0.672817,-1.21451,0
4210,-0.474149,0.673527,-1.21377,0
4230,-0.473564,0.674245,-1.21274,0
4250,-0.473143,0.674842,-1.2122,0
4270,-0.472544,0.675385,-1.21169,0
4290,-0.471944,0.676001,-1.21153,0
4310,-0.470949,0.676563,-1.21069,0
4330,-0.470007,0.677186,-1.21005,0
4350,-0.469038,0.677292,-1.20947,0
4370,-0.46853,0.677504,-1.20917,0
4390,-0.467626,0.677733,-1.20852,0
4410,-0.467071,0.67808,-1.20811,0
4430,-0.466757,0.678605,-1.20758,0
4450,-0.466201,0.678951,-1.20716,0
4470,-0.465646,0.679298,-1.20674,0
4490,-0.465035,0.679705,-1.20617,0
4510,-0.464823,0.679961,-1.20557,0
4530,-0.464848,0.680528,-1.20523,0
4550,-0.464302,0.680987,-1.20426,0
4570,-0.463866,0.681435,-1.20333,0
4590,-0.463835,0.682002,-1.20281,0
4610,-0.463908,0.682301,-1.20222,0
4630,-0.463806,0.682546,-1.20167,0
4650,-0.463305,0.682808,-1.20078,0
4670,-0.462637,0.683202,-1.19972,0
4690,-0.462949,0.683741,-1.19904,0
4710,-0.463029,0.684177,-1.19852,0
4730,-0.462758,0.684505,-1.19808,0
4750,-0.46215,0.685035,-1.19726,0
4770,-0.462062,0.685592,-1.19625,0
4790,-0.462612,0.686324,-1.19578,0
4810,-0.463444,0.686792,-1.19549,0
4830,-0.464114,0.687602,-1.19542,0
4850,-0.464336,0.688624,-1.19493,0
4870,-0.464487,0.689375,-1.19412,0
4890,-0.464989,0.690257,-1.19386,0
4910,-0.465422,0.690815,-1.19356,0
4930,-0.465685,0.691517,-1.1934,0
4950,-0.465685,0.691517,-1.1934,0
4970,-0.465523,0.691786,-1.19329,0
4990,-0.465587,0.691912,-1.19323,0
5010,-0.465594,0.69211,-1.19332,0
5030,-0.465482,0.692182,-1.1933,0
5050,-0.465433,0.692379,-1.19321,0
5070,-0.465441,0.692515,-1.19328,0
5090,-0.465745,0.692885,-1.19314,0
5110,-0.465753,0.69302,-1.19321,0
5130,-0.465254,0.693503,-1.19303,0
5150,-0.465375,0.693567,-1.19312,0
5170,-0.465326,0.693765,-1.19303,0
5190,-0.465326,0.693765,-1.19303,0
5210,-0.465333,0.693963,-1.19312,0
5230,-0.4651,0.693897,-1.19267,0
5250,-0.465107,0.694095,-1.19277,0
5270,-0.465227,0.694223,-1.19288,0
5290,-0.465179,0.694357,-1.19277,0
5310,-0.465434,0.694925,-1.19255,0
5330,-0.465924,0.695486,-1.19243,0
5350,-0.466299,0.696109,-1.19199,0
5370,-0.466619,0.696731,-1.19137,0
5390,-0.466655,0.697558,-1.19054,0
5410,-0.466677,0.698071,-1.19018,0
5430,-0.46694,0.698777,-1.19002,0
5450,-0.467005,0.698904,-1.18996,0
5470,-0.466892,0.698912,-1.18991,0
5490,-0.4669,0.699111,-1.19,0
5510,-0.466851,0.699309,-1.18992,0
5530,-0.466738,0.69938,-1.1899,0
5550,-0.466923,0.699634,-1.18995,0
5570,-0.46693,0.699834,-1.19004,0
5590,-0.466995,0.699897,-1.18996,0
5610,-0.466995,0.699897,-1.18996,0
5630,-0.467116,0.700025,-1.19007,0
5650,-0.467125,0.70016,-1.19014,0
5670,-0.4679,0.700519,-1.19023,0
5690,-0.46856,0.701003,-1.19002,0
5710,-0.468944,0.701756,-1.18934,0
5730,-0.469667,0.702286,-1.18842,0
5750,-0.470567,0.702938,-1.18749,0
5770,-0.471242,0.703742,-1.18683,0
5790,-0.471866,0.704573,-1.18691,0
5810,-0.472647,0.704952,-1.18763,0
5830,-0.472968,0.705416,-1.18816,0
5850,-0.473339,0.70569,-1.18908,0
5870,-0.474134,0.706278,-1.19021,0
5890,-0.474982,0.70661,-1.1917,0
5910,-0.476119,0.706744,-1.19371,0
5930,-0.476854,0.707038,-1.19605,0
5950,-0.476696,0.706981,-1.19824,0
5970,-0.47664,0.706484,-1.20119,0
5990,-0.476905,0.706393,-1.20495,0
6010,-0.476577,0.706133,-1.20834,0
6030,-0.476311,0.705919,-1.21102,0
6050,-0.476912,0.705769,-1.2134,0
6070,-0.477923,0.70496,-1.21475,0
6090,-0.479091,0.704045,-1.21538,0
6110,-0.481153,0.703642,-1.2153,0
6130,-0.4841,0.703246,-1.21492,0
6150,-0.48737,0.702503,-1.21455,0
6170,-0.490131,0.701937,-1.21445,0
6190,-0.491487,0.701437,-1.21367,0
6210,-0.49279,0.701854,-1.21238,0
6230,-0.494814,0.702432,-1.21093,0
6250,-0.497227,0.703533,-1.20992,0
6270,-0.499832,0.704651,-1.20979,0
6290,-0.501594,0.705419,-1.20969,0
6310,-0.501608,0.705618,-1.20979,0
6330,-0.501236,0.706154,-1.20909,0
6350,-0.500503,0.706644,-1.20849,0
6370,-0.499133,0.706437,-1.20784,0
6390,-0.497291,0.706254,-1.20727,0
6410,-0.495301,0.70561,-1.20641,0
6430,-0.492927,0.704512,-1.20514,0
6450,-0.490766,0.702895,-1.20466,0
6470,-0.489288,0.701796,-1.20522,0
6490,-0.489005,0.70092,-1.2065,0
6510,-0.490149,0.700385,-1.20866,0
6530,-0.490909,0.699341,-1.2107,0
6550,-0.490898,0.698159,-1.21335,0
6570,-0.488035,0.69687,-1.21743,0
6580,-0.482359,0.696086,-1.22049,0
6600,-0.477572,0.696222,-1.2223,0
6620,-0.475264,0.695333,-1.22396,0
6640,-0.474725,0.694014,-1.22614,0
6660,-0.474102,0.693191,-1.22729,0
6680,-0.472253,0.691661,-1.22688,0
6700,-0.470068,0.689381,-1.2252,0
6720,-0.468764,0.687283,-1.22327,0
6740,-0.467368,0.685381,-1.22109,0
6760,-0.466314,0.684332,-1.21809,0
6780,-0.466073,0.684306,-1.21428,0
6800,-0.46604,0.684733,-1.2088,0
6820,-0.463871,0.686243,-1.20063,0
6840,-0.460981,0.688508,-1.19201,0
6860,-0.46003,0.691951,-1.18412,0
6880,-0.461099,0.695444,-1.1759,0
6900,-0.462887,0.698048,-1.1684,0
6920,-0.464178,0.699725,-1.16359,0
6940,-0.461979,0.700266,-1.16094,0
6960,-0.456613,0.70024,-1.1598,0
6980,-0.450369,0.69999,-1.16283,0
7000,-0.443674,0.699261,-1.16878,0
7020,-0.437023,0.698783,-1.17548,0
7040,-0.431215,0.69738,-1.18496,0
7060,-0.430404,0.694309,-1.20227,0
7080,-0.421228,0.689652,-1.21093,0
7100,-0.411265,0.688124,-1.21038,0
7120,-0.410788,0.689095,-1.21042,0
7140,-0.416104,0.689056,-1.20744,0
7160,-0.422329,0.689563,-1.20056,0
7180,-0.427601,0.690017,-1.19125,0
7200,-0.431359,0.690135,-1.18155,0
7220,-0.432675,0.689792,-1.17248,0
7240,-0.432802,0.689205,-1.16562,0
7260,-0.432592,0.689272,-1.16102,0
7280,-0.43221,0.68996,-1.15826,0
7300,-0.431414,0.690748,-1.15732,0
7320,-0.429795,0.690924,-1.15813,0
7340,-0.426904,0.690706,-1.16028,0
7360,-0.423039,0.690436,-1.1627,0
7380,-0.419414,0.690365,-1.16502,0
7400,-0.417865,0.690728,-1.16762,0
7420,-0.417871,0.691138,-1.17022,0
7440,-0.418218,0.691181,-1.17252,0
7460,-0.418623,0.690951,-1.17459,0
7480,-0.41833,0.690322,-1.17584,0
7500,-0.418087,0.689143,-1.17674,0
7520,-0.418353,0.68763,-1.17697,0
7540,-0.419017,0.686233,-1.17639,0
7560,-0.420437,0.685321,-1.1747,0
7580,-0.423244,0.684824,-1.17233,0
7600,-0.427099,0.685456,-1.17005,0
7620,-0.430461,0.687211,-1.16818,0
7640,-0.433094,0.689914,-1.16713,0
7660,-0.435272,0.692789,-1.16776,0
7680,-0.43625,0.695744,-1.17013,0
7700,-0.435451,0.698545,-1.17416,0
7720,-0.432509,0.699942,-1.17881,0
7740,-0.42834,0.700204,-1.18374,0
7760,-0.423473,0.699568,-1.18734,0
7780,-0.419189,0.697784,-1.18876,0
7800,-0.416711,0.695257,-1.18769,0
7820,-0.416859,0.692731,-1.18453,0
7840,-0.419372,0.690466,-1.17944,0
7860,-0.424971,0.689676,-1.17298,0
7880,-0.427968,0.687401,-1.16102,0
7900,-0.425723,0.689181,-1.13874,0
7920,-0.42793,0.69497,-1.12157,0
7940,-0.436603,0.697686,-1.11029,0
7960,-0.444529,0.700305,-1.10611,0
7980,-0.444588,0.703545,-1.10634,0
8000,-0.438342,0.706611,-1.10838,0
8020,-0.431352,0.708958,-1.11138,0
8040,-0.428035,0.709851,-1.11524,0
8060,-0.428255,0.710133,-1.11846,0
8080,-0.428958,0.710059,-1.11877,0
8100,-0.428746,0.709132,-1.11618,0
8120,-0.428423,0.708139,-1.11351,0
8140,-0.429209,0.707041,-1.11267,0
8160,-0.431201,0.706752,-1.11321,0
8180,-0.433009,0.706558,-1.11474,0
8200,-0.434283,0.706837,-1.11637,0
8220,-0.435089,0.707509,-1.11735,0
8240,-0.436307,0.708484,-1.11761,0
8260,-0.438229,0.709902,-1.11751,0
8280,-0.440274,0.711192,-1.11741,0
8300,-0.44215,0.712086,-1.11721,0
8320,-0.444145,0.712332,-1.118,0
8340,-0.444381,0.712332,-1.11811,0
8360,-0.444381,0.712332,-1.11811,0
8380,-0.444145,0.712332,-1.118,0
8400,-0.44456,0.712384,-1.11747,0
8420,-0.445095,0.7121,-1.11686,0
8440,-0.445452,0.711887,-1.11634,0
8460,-0.445516,0.711679,-1.11584,0
8480,-0.445227,0.711475,-1.11516,0
8500,-0.444994,0.7116,-1.1145,0
8520,-0.444939,0.712305,-1.11284,0
8540,-0.445294,0.713269,-1.11104,0
8560,-0.446183,0.713578,-1.10996,0
8580,-0.446366,0.713632,-1.10903,0
8600,-0.445488,0.713624,-1.10785,0
8620,-0.443958,0.713885,-1.10663,0
8640,-0.442788,0.713811,-1.10513,0
8660,-0.442733,0.713998,-1.10414,0
8680,-0.443682,0.713662,-1.10445,0
8700,-0.444739,0.713209,-1.10597,0
8720,-0.444961,0.713101,-1.10812,0
8740,-0.444656,0.713124,-1.10962,0
8760,-0.445004,0.712939,-1.1109,0
8780,-0.446355,0.712481,-1.11241,0
8800,-0.447647,0.712087,-1.11376,0
8820,-0.448708,0.71149,-1.11462,0
8840,-0.449352,0.711161,-1.11554,0
8860,-0.449288,0.711368,-1.11605,0
8880,-0.448933,0.711899,-1.11581,0
8900,-0.448,0.711759,-1.11439,0
8920,-0.448194,0.710615,-1.11324,0
8940,-0.44885,0.709482,-1.11351,0
8960,-0.448501,0.708302,-1.11402,0
8980,-0.446977,0.707657,-1.1139,0
9000,-0.445574,0.707658,-1.11292,0
9020,-0.44541,0.707707,-1.11152,0
9040,-0.446651,0.707882,-1.11085,0
9060,-0.447016,0.707801,-1.1098,0
9080,-0.446674,0.707987,-1.10852,0
9100,-0.44604,0.708367,-1.10674,0
9120,-0.446575,0.708881,-1.10558,0
9140,-0.447226,0.709333,-1.10475,0
9150,-0.447457,0.709596,-1.10498,0
9170,-0.447515,0.709664,-1.10488,0
9190,-0.447396,0.709731,-1.10485,0
9210,-0.448443,0.709936,-1.10605,0
9230,-0.449429,0.709881,-1.10785,0
9250,-0.450006,0.709757,-1.10927,0
9270,-0.450291,0.709306,-1.11085,0
9290,-0.450515,0.708465,-1.11268,0
9310,-0.449915,0.7075,-1.11466,0
9330,-0.449192,0.706416,-1.11713,0
9350,-0.448236,0.70501,-1.11964,0
9370,-0.446877,0.703411,-1.12142,0
9390,-0.446338,0.701606,-1.12352,0
9410,-0.445863,0.699862,-1.12493,0
9430,-0.445155,0.698447,-1.12607,0
9450,-0.444218,0.69703,-1.1268,0
9470,-0.443581,0.69573,-1.12698,0
9490,-0.443586,0.694874,-1.12691,0
9510,-0.44453,0.69451,-1.12631,0
9530,-0.445655,0.694857,-1.12506,0
9550,-0.446895,0.695274,-1.12389,0
9570,-0.447727,0.696156,-1.12257,0
9590,-0.44833,0.69717,-1.12091,0
9610,-0.448813,0.698,-1.11941,0
9630,-0.449463,0.698966,-1.1185,0
9650,-0.44918,0.699483,-1.11754,0
9670,-0.448481,0.700012,-1.11684,0
9690,-0.448424,0.700012,-1.11666,0
9710,-0.448424,0.700012,-1.11666,0
9730,-0.448013,0.700083,-1.11664,0
9750,-0.447716,0.700154,-1.11698,0
9770,-0.44754,0.700091,-1.11702,0
9790,-0.447189,0.699964,-1.11709,0
9810,-0.446903,0.699439,-1.11687,0
9830,-0.446442,0.69937,-1.11632,0
9850,-0.446156,0.699235,-1.11598,0
9870,-0.445639,0.699167,-1.11525,0
9890,-0.445299,0.699354,-1.11427,0
9910,-0.445364,0.699804,-1.11345,0
9930,-0.445479,0.699934,-1.11357,0
9950,-0.445366,0.700127,-1.113,0
9970,-0.444957,0.700521,-1.11252,0
9990,-0.444957,0.700521,-1.11252,0
10010,-0.444727,0.700844,-1.11195,0
10030,-0.444785,0.700975,-1.11189,0
10050,-0.444438,0.700843,-1.11166,0
10070,-0.443916,0.700778,-1.11124,0
10090,-0.444031,0.700909,-1.11135,0
10110,-0.444031,0.700909,-1.11135,0
10130,-0.444145,0.70104,-1.11146,0
10150,-0.443795,0.701043,-1.11129,0
10170,-0.443735,0.70124,-1.1112,0
10190,-0.44362,0.70111,-1.11109,0
10210,-0.443506,0.701172,-1.11076,0
10230,-0.443621,0.701303,-1.11087,0
10250,-0.443621,0.701303,-1.11087,0
10270,-0.443503,0.70137,-1.11085,0
10290,-0.443617,0.7015,-1.11096,0
10310,-0.443675,0.701568,-1.11086,0
10330,-0.443557,0.701635,-1.11083,0
10350,-0.443672,0.701766,-1.11095,0
10370,-0.443672,0.701766,-1.11095,0
10390,-0.443676,0.701761,-1.11065,0
10410,-0.443501,0.701891,-1.11047,0
10430,-0.443501,0.701828,-1.11044,0
10450,-0.443619,0.701761,-1.11047,0
10470,-0.443622,0.701626,-1.11042,0
10490,-0.443508,0.701559,-1.11033,0
10510,-0.443508,0.701559,-1.11033,0
10530,-0.443863,0.701682,-1.10996,0
10550,-0.444397,0.701672,-1.10947,0
10570,-0.44463,0.701735,-1.10961,0
10590,-0.444516,0.701798,-1.10928,0
10610,-0.444516,0.701798,-1.10928,0
10630,-0.444868,0.702057,-1.10896,0
10650,-0.445457,0.702376,-1.10849,0
10670,-0.445572,0.702507,-1.1086,0
10690,-0.445572,0.702507,-1.1086,0
10710,-0.445687,0.702638,-1.10872,0
10730,-0.445687,0.702575,-1.10869,0
10750,-0.445801,0.702706,-1.1088,0
10770,-0.445683,0.702773,-1.10877,0
10790,-0.445683,0.702773,-1.10877,0
10810,-0.445741,0.702903,-1.10871,0
10830,-0.445741,0.702903,-1.10871,0
10850,-0.446147,0.70336,-1.10865,0
10870,-0.44609,0.70336,-1.10847,0
10890,-0.446087,0.703495,-1.10853,0
10910,-0.446202,0.703626,-1.10864,0
10930,-0.446316,0.703757,-1.10876,0
10950,-0.446198,0.703824,-1.10873,0
10970,-0.446141,0.703824,-1.10855,0
10990,-0.446256,0.703955,-1.10866,0
11010,-0.446371,0.704023,-1.10875,0
11030,-0.446486,0.704154,-1.10886,0
11050,-0.446601,0.704285,-1.10897,0
11070,-0.447307,0.704019,-1.1092,0
11090,-0.447422,0.70415,-1.10931,0
11110,-0.447188,0.703891,-1.10938,0
11130,-0.447526,0.703705,-1.11066,0
11150,-0.447751,0.703582,-1.11161,0
11170,-0.447866,0.703713,-1.11172,0
11190,-0.44857,0.703906,-1.11155,0
11210,-0.450094,0.704419,-1.11162,0
11230,-0.451622,0.704672,-1.11157,0
11250,-0.453147,0.704992,-1.11185,0
11270,-0.454318,0.705317,-1.11226,0
11290,-0.455017,0.705581,-1.11272,0
11310,-0.455832,0.705779,-1.1135,0
11330,-0.456586,0.706044,-1.11443,0
11350,-0.457399,0.70611,-1.11546,0
11370,-0.45845,0.705781,-1.11642,0
11390,-0.459437,0.705385,-1.11778,0
11410,-0.460481,0.704791,-1.11922,0
11430,-0.461585,0.704129,-1.12051,0
11450,-0.462805,0.703598,-1.12192,0
11470,-0.463381,0.702937,-1.12281,0
11490,-0.464074,0.702209,-1.12372,0
11510,-0.46483,0.70161,-1.12428,0
11530,-0.465643,0.700813,-1.12492,0
11550,-0.466044,0.699952,-1.12548,0
11570,-0.466213,0.699294,-1.12572,0
11590,-0.46656,0.698567,-1.12587,0
11610,-0.467375,0.698162,-1.12639,0
11630,-0.467608,0.697634,-1.12627,0
11650,-0.468193,0.697299,-1.1264,0
11670,-0.468193,0.697299,-1.1264,0
11690,-0.468665,0.697226,-1.1263,0
11710,-0.469254,0.69722,-1.12629,0
11720,-0.469375,0.697152,-1.12602,0
11740,-0.469152,0.697283,-1.12537,0
11760,-0.469339,0.697345,-1.12474,0
11780,-0.469873,0.697404,-1.12457,0
11800,-0.469933,0.697338,-1.12442,0
11820,-0.4697,0.697339,-1.12431,0
11840,-0.469415,0.697473,-1.12378,0
11860,-0.469486,0.697602,-1.12313,0
11880,-0.46973,0.697664,-1.12267,0
11900,-0.469629,0.697728,-1.12176,0
11920,-0.469466,0.697991,-1.12105,0
11940,-0.4689,0.698519,-1.11981,0
11960,-0.468873,0.698848,-1.118,0
11980,-0.469392,0.69924,-1.11544,0
12000,-0.468027,0.698387,-1.1129,0
12020,-0.465134,0.695425,-1.11109,0
12040,-0.464413,0.692334,-1.11014,0
12060,-0.466973,0.688585,-1.11018,0
12080,-0.470398,0.681627,-1.1134,0
12100,-0.471861,0.672077,-1.11872,0
12120,-0.470644,0.6613,-1.12613,0
12140,-0.467013,0.648974,-1.13538,0
12160,-0.461917,0.635551,-1.14492,0
12180,-0.458305,0.619636,-1.1542,0
12200,-0.456226,0.601071,-1.16198,0
12220,-0.454625,0.581347,-1.16828,0
12240,-0.451987,0.560957,-1.17369,0
12260,-0.449993,0.539663,-1.17738,0
12280,-0.449941,0.517914,-1.17974,0
12300,-0.451266,0.496757,-1.18045,0
12320,-0.4522,0.475803,-1.17821,0
12340,-0.45374,0.454828,-1.17511,0
12360,-0.456249,0.434455,-1.17254,0
12380,-0.459467,0.413199,-1.17176,0
12400,-0.45859,0.390675,-1.16981,0
12420,-0.455108,0.368037,-1.16623,0
12440,-0.451495,0.345806,-1.16151,0
12460,-0.448032,0.323876,-1.15613,0
12480,-0.445773,0.302799,-1.14941,0
12500,-0.446324,0.282907,-1.14138,0
12520,-0.449818,0.263818,-1.1335,0
12540,-0.45299,0.245444,-1.12538,0
12560,-0.45441,0.228206,-1.11661,0
12580,-0.455778,0.211204,-1.10697,0
12600,-0.458143,0.194783,-1.09737,0
12620,-0.462069,0.179288,-1.08814,0
12640,-0.467465,0.164391,-1.07932,0
12660,-0.473471,0.149632,-1.07095,0
12680,-0.479847,0.135138,-1.06228,0
12700,-0.484794,0.122172,-1.05357,0
12720,-0.489368,0.110215,-1.04595,0
12740,-0.494286,0.0980898,-1.03935,0
12760,-0.499897,0.0867292,-1.03364,0
12780,-0.505972,0.0763513,-1.02856,0
12800,-0.51098,0.0670669,-1.02415,0
12820,-0.515603,0.0585425,-1.02058,0
12840,-0.520039,0.050322,-1.01805,0
12860,-0.52492,0.0426818,-1.0169,0
12880,-0.530673,0.0358887,-1.01626,0
12900,-0.536748,0.0302129,-1.01626,0
12920,-0.541933,0.0256951,-1.01743,0
12940,-0.545875,0.0217902,-1.01944,0
12960,-0.549104,0.0177138,-1.02203,0
12980,-0.551653,0.0133119,-1.02524,0
13000,-0.554166,0.00859313,-1.02926,0
13020,-0.556318,0.00374705,-1.03333,0
13040,-0.558612,-0.00122157,-1.03696,0
13060,-0.560489,-0.00635136,-1.04135,0
13080,-0.561973,-0.011334,-1.04647,0
13100,-0.563493,-0.0164091,-1.0513,0
13120,-0.564401,-0.0219176,-1.05577,0
13140,-0.564791,-0.0270617,-1.06042,0
13160,-0.565594,-0.0319192,-1.06479,0
13180,-0.567002,-0.0367373,-1.06824,0
13200,-0.568353,-0.0421916,-1.07092,0
13220,-0.568763,-0.0474352,-1.07339,0
13240,-0.568855,-0.0525514,-1.07538,0
13260,-0.569352,-0.0579356,-1.0771,0
13280,-0.569903,-0.0633285,-1.07823,0
13300,-0.569785,-0.0689164,-1.07874,0
13320,-0.568852,-0.0744265,-1.07935,0
13340,-0.568132,-0.0794828,-1.07954,0
13360,-0.567602,-0.0845318,-1.07886,0
13380,-0.567354,-0.0898333,-1.07695,0
13400,-0.566707,-0.0947872,-1.0748,0
13420,-0.565738,-0.0999167,-1.07198,0
13440,-0.565093,-0.105736,-1.06755,0
13460,-0.565384,-0.112414,-1.06226,0
13480,-0.565284,-0.11876,-1.05673,0
13500,-0.564784,-0.124746,-1.0508,0
13520,-0.564701,-0.130362,-1.04489,0
13540,-0.564224,-0.135236,-1.03929,0
13560,-0.563319,-0.139651,-1.03367,0
13580,-0.562294,-0.143727,-1.02794,0
13600,-0.561769,-0.147039,-1.02262,0
13620,-0.562636,-0.14963,-1.01808,0
13640,-0.564341,-0.151242,-1.01383,0
13660,-0.566875,-0.152508,-1.01017,0
13680,-0.569697,-0.153133,-1.00759,0
13700,-0.571652,-0.153683,-1.00602,0
13720,-0.57282,-0.154488,-1.00563,0
13740,-0.573342,-0.155153,-1.00578,0
13760,-0.574059,-0.156138,-1.00661,0
13780,-0.574333,-0.157047,-1.00848,0
13800,-0.574927,-0.157318,-1.01037,0
13820,-0.576041,-0.15698,-1.01262,0
13840,-0.576925,-0.156104,-1.01545,0
13860,-0.57657,-0.154829,-1.01871,0
13880,-0.575882,-0.153365,-1.02199,0
13900,-0.575441,-0.151985,-1.02513,0
13920,-0.574987,-0.150649,-1.02839,0
13940,-0.574148,-0.149257,-1.0318,0
13960,-0.573018,-0.148142,-1.03526,0
13980,-0.571583,-0.146705,-1.03859,0
14000,-0.56934,-0.145536,-1.04254,0
14020,-0.566449,-0.144456,-1.04627,0
14040,-0.563497,-0.143433,-1.04982,0
14060,-0.561081,-0.142182,-1.05302,0
14080,-0.55905,-0.140473,-1.05592,0
14100,-0.557273,-0.138479,-1.05805,0
14120,-0.556364,-0.136461,-1.0598,0
14140,-0.55537,-0.134261,-1.06113,0
14160,-0.554639,-0.131844,-1.06226,0
14180,-0.553907,-0.12958,-1.06289,0
14200,-0.553361,-0.128025,-1.06323,0
14220,-0.552186,-0.127213,-1.0633,0
14240,-0.550678,-0.126953,-1.06307,0
14260,-0.549416,-0.127484,-1.0625,0
14280,-0.548373,-0.128634,-1.06167,0
14290,-0.547731,-0.130067,-1.06051,0
14310,-0.54758,-0.131668,-1.05934,0
14330,-0.547867,-0.132825,-1.05835,0
14350,-0.547855,-0.133804,-1.05782,0
14370,-0.547377,-0.134306,-1.05749,0
14390,-0.546683,-0.134331,-1.05803,0
14410,-0.545761,-0.133252,-1.05908,0
14430,-0.544882,-0.130886,-1.06061,0
14450,-0.543235,-0.127458,-1.06307,0
14470,-0.540047,-0.123252,-1.06644,0
14490,-0.53639,-0.118647,-1.07,0
14510,-0.532647,-0.11378,-1.07391,0
14530,-0.529081,-0.108142,-1.07786,0
14550,-0.526064,-0.102071,-1.08138,0
14570,-0.523197,-0.0959528,-1.08447,0
14590,-0.51909,-0.0889847,-1.08775,0
14610,-0.513574,-0.0809129,-1.09082,0
14630,-0.507475,-0.0712519,-1.09432,0
14650,-0.499798,-0.0585132,-1.09834,0
14670,-0.49131,-0.0415387,-1.10291,0
14690,-0.480856,-0.0206898,-1.10719,0
14710,-0.469432,0.00160673,-1.11071,0
14730,-0.458212,0.0257287,-1.11465,0
14750,-0.445892,0.0504311,-1.11934,0
14770,-0.43495,0.0756356,-1.12225,0
14790,-0.425766,0.100165,-1.12264,0
14810,-0.416972,0.124342,-1.12197,0
14830,-0.408455,0.147673,-1.11997,0
14850,-0.401621,0.169493,-1.11794,0
14870,-0.396463,0.188071,-1.11765,0
14890,-0.392248,0.202931,-1.11835,0
14910,-0.386297,0.213671,-1.11907,0
14930,-0.379006,0.22066,-1.12054,0
14950,-0.371453,0.222906,-1.12203,0
14970,-0.365825,0.22134,-1.12284,0
14990,-0.363249,0.217402,-1.12257,0
15010,-0.36283,0.212128,-1.12147,0
15030,-0.363809,0.205205,-1.11955,0
15050,-0.36561,0.1969,-1.1173,0
15070,-0.368707,0.187751,-1.11471,0
15090,-0.372297,0.178454,-1.11133,0
15110,-0.375824,0.168631,-1.10763,0
15130,-0.37944,0.158367,-1.10416,0
15150,-0.382834,0.148074,-1.10092,0
15170,-0.386065,0.137791,-1.09734,0
15190,-0.389457,0.127539,-1.09354,0
15210,-0.392843,0.117132,-1.08999,0
15230,-0.396364,0.106719,-1.08617,0
15250,-0.399618,0.096777,-1.08224,0
15270,-0.403185,0.0874143,-1.07867,0
15290,-0.406637,0.0782765,-1.07512,0
15310,-0.4097,0.0698083,-1.07181,0
15330,-0.41214,0.0624319,-1.06848,0
15350,-0.414328,0.0555291,-1.06524,0
15370,-0.416546,0.0489423,-1.06176,0
15390,-0.418693,0.0428136,-1.0587,0
15410,-0.420733,0.0367013,-1.05574,0
15430,-0.423038,0.0303631,-1.05336,0
15450,-0.424921,0.0242693,-1.05096,0
15470,-0.426471,0.0188242,-1.04852,0
15490,-0.428053,0.0136138,-1.04627,0
15510,-0.430133,0.0090133,-1.04393,0
15530,-0.432486,0.0048901,-1.04145,0
15550,-0.434682,0.00143644,-1.03912,0
15570,-0.436732,-0.00226838,-1.03682,0
15590,-0.43905,-0.00661029,-1.03484,0
15610,-0.441614,-0.0108358,-1.03307,0
15630,-0.444699,-0.0151651,-1.0312,0
15650,-0.448047,-0.0198785,-1.02969,0
15670,-0.45081,-0.0254662,-1.02849,0
15690,-0.452656,-0.0314271,-1.02737,0
15710,-0.454429,-0.0371926,-1.02572,0
15730,-0.456824,-0.0432122,-1.02307,0
15750,-0.459791,-0.0495835,-1.01937,0
15770,-0.464113,-0.0559888,-1.01466,0
15790,-0.469928,-0.0632124,-1.00889,0
15810,-0.476878,-0.0707528,-1.00272,0
15830,-0.484417,-0.0782987,-0.996142,0
15850,-0.491908,-0.0862167,-0.989137,0
15870,-0.498081,-0.0947755,-0.981692,0
15890,-0.502912,-0.104064,-0.974059,0
15910,-0.508163,-0.113976,-0.967182,0
15930,-0.514659,-0.124096,-0.960285,0
15950,-0.523099,-0.134139,-0.952378,0
15970,-0.531557,-0.14404,-0.944307,0
15990,-0.538852,-0.153345,-0.936942,0
16010,-0.545278,-0.162258,-0.929577,0
16030,-0.552083,-0.170576,-0.922207,0
16050,-0.559353,-0.178323,-0.914649,0
16070,-0.565996,-0.186024,-0.906893,0
16090,-0.572815,-0.193431,-0.898591,0
16110,-0.579214,-0.200118,-0.890726,0
16130,-0.585696,-0.206094,-0.882852,0
16150,-0.592365,-0.212052,-0.874794,0
16170,-0.599263,-0.217764,-0.867949,0
16190,-0.605436,-0.222641,-0.861834,0
16210,-0.610922,-0.227244,-0.856742,0
16230,-0.614498,-0.231411,-0.852703,0
16250,-0.618017,-0.234769,-0.848874,0
16270,-0.62158,-0.237083,-0.845615,0
16290,-0.624923,-0.240582,-0.842422,0
16310,-0.62841,-0.245865,-0.83832,0
16330,-0.632935,-0.252869,-0.832744,0
16350,-0.637393,-0.261902,-0.827123,0
16370,-0.642117,-0.272303,-0.82053,0
16390,-0.648771,-0.282441,-0.812809,0
16410,-0.657353,-0.291604,-0.803979,0
16430,-0.666746,-0.299812,-0.79524,0
16450,-0.674858,-0.307335,-0.787757,0
16470,-0.680068,-0.313901,-0.782744,0
16490,-0.682745,-0.319493,-0.778882,0
16510,-0.684042,-0.323615,-0.776311,0
16530,-0.683681,-0.326323,-0.775235,0
16550,-0.682567,-0.328569,-0.775155,0
16570,-0.684004,-0.33022,-0.776253,0
16590,-0.684641,-0.331549,-0.778762,0
16610,-0.682541,-0.332754,-0.781656,0
16630,-0.677943,-0.334743,-0.784506,0
16650,-0.674151,-0.337425,-0.787941,0
16670,-0.668777,-0.340802,-0.789734,0
16690,-0.663852,-0.345835,-0.790356,0
16710,-0.660706,-0.350967,-0.789941,0
16730,-0.662983,-0.35541,-0.787025,0
16750,-0.667248,-0.35858,-0.782467,0
16770,-0.669948,-0.361774,-0.777068,0
16790,-0.672437,-0.368478,-0.770148,0
16810,-0.673886,-0.378595,-0.758626,0
16830,-0.678088,-0.386677,-0.74662,0
16850,-0.682113,-0.393566,-0.739021,0
16860,-0.68595,-0.401784,-0.733196,0
16880,-0.690049,-0.408437,-0.729987,0
16890,-0.692357,-0.412095,-0.730671,0
16910,-0.693359,-0.413592,-0.734401,0
16930,-0.691859,-0.413274,-0.7381,0
16950,-0.690588,-0.41104,-0.739744,0
16970,-0.694517,-0.40925,-0.741717,0
16990,-0.69768,-0.407877,-0.742945,0
17010,-0.699478,-0.408653,-0.743196,0
17030,-0.700845,-0.410539,-0.743839,0
17050,-0.704029,-0.413881,-0.744448,0
17070,-0.708439,-0.417506,-0.740579,0
17090,-0.711796,-0.418848,-0.736678,0
17110,-0.714784,-0.420698,-0.738114,0
17130,-0.715259,-0.423053,-0.746105,0
17150,-0.705696,-0.419275,-0.75437,0
17170,-0.690975,-0.414316,-0.758897,0
17190,-0.684411,-0.414302,-0.760076,0
17210,-0.690351,-0.413683,-0.758083,0
17230,-0.705213,-0.412149,-0.752202,0
17250,-0.712877,-0.417721,-0.751515,0
17270,-0.713151,-0.428639,-0.75579,0
17290,-0.708515,-0.443235,-0.754392,0
17310,-0.700211,-0.457428,-0.750042,0
17330,-0.695139,-0.471775,-0.746048,0
17350,-0.696715,-0.488037,-0.745127,0
17370,-0.703845,-0.505644,-0.747198,0
17390,-0.711629,-0.525038,-0.747238,0
17410,-0.71758,-0.543605,-0.745339,0
17430,-0.717625,-0.560753,-0.748491,0
17450,-0.714439,-0.577741,-0.753398,0
17470,-0.71401,-0.59073,-0.755827,0
17490,-0.717592,-0.598407,-0.75768,0
17510,-0.723046,-0.601946,-0.76123,0
17530,-0.722875,-0.598205,-0.767944,0
17550,-0.713889,-0.591755,-0.779436,0
17570,-0.702068,-0.587397,-0.792598,0
17590,-0.691241,-0.586773,-0.798734,0
17610,-0.68257,-0.5872,-0.803104,0
17630,-0.671432,-0.587143,-0.811375,0
17650,-0.659129,-0.587647,-0.819306,0
17670,-0.64898,-0.589574,-0.82232,0
17690,-0.639285,-0.591592,-0.827695,0
17710,-0.628065,-0.593132,-0.83504,0
17730,-0.61781,-0.594183,-0.842572,0
17750,-0.608545,-0.596279,-0.851759,0
17770,-0.596318,-0.601923,-0.861208,0
17790,-0.584476,-0.609303,-0.867829,0
17810,-0.577409,-0.614737,-0.872878,0
17830,-0.570993,-0.617697,-0.879683,0
17850,-0.564182,-0.620389,-0.883047,0
17870,-0.557217,-0.625289,-0.884154,0
17890,-0.553066,-0.628386,-0.884089,0
17910,-0.552434,-0.629143,-0.883322,0
17930,-0.551214,-0.629359,-0.88507,0
17950,-0.546785,-0.628012,-0.888668,0
17970,-0.54095,-0.627437,-0.893839,0
17990,-0.536364,-0.627524,-0.899121,0
18010,-0.532009,-0.62648,-0.904431,0
18030,-0.528556,-0.625687,-0.909563,0
18050,-0.525122,-0.627614,-0.914024,0
18070,-0.524704,-0.629349,-0.916408,0
18090,-0.527074,-0.629366,-0.916659,0
18110,-0.530684,-0.6283,-0.917518,0
18130,-0.533034,-0.627277,-0.920067,0
18150,-0.537376,-0.626878,-0.921154,0
18170,-0.543351,-0.625609,-0.922012,0
18190,-0.548291,-0.624609,-0.923497,0
18210,-0.550763,-0.625347,-0.92701,0
18230,-0.552352,-0.626429,-0.93075,0
18250,-0.555022,-0.62731,-0.933346,0
18270,-0.555961,-0.627275,-0.935635,0
18290,-0.554085,-0.629657,-0.938346,0
18310,-0.551947,-0.633608,-0.941423,0
18330,-0.551642,-0.640079,-0.942879,0
18350,-0.554256,-0.646574,-0.943525,0
18370,-0.555895,-0.652191,-0.945629,0
18390,-0.561249,-0.659068,-0.942157,0
18410,-0.569604,-0.665065,-0.936409,0
18430,-0.577394,-0.664012,-0.939998,0
18450,-0.582017,-0.654686,-0.945522,0
18470,-0.580989,-0.645792,-0.950449,0
18490,-0.577635,-0.63966,-0.953027,0
18510,-0.575413,-0.636501,-0.954306,0
18530,-0.57891,-0.634938,-0.949419,0
18550,-0.581634,-0.632677,-0.943723,0
18570,-0.580314,-0.628788,-0.940821,0
18590,-0.575935,-0.625924,-0.942358,0
18610,-0.570495,-0.624312,-0.943854,0
18630,-0.56611,-0.624385,-0.94624,0
18650,-0.562782,-0.624274,-0.94846,0
18670,-0.559796,-0.623857,-0.950143,0
18690,-0.556861,-0.623375,-0.95262,0
18710,-0.554857,-0.625207,-0.955964,0
18730,-0.557954,-0.629596,-0.955581,0
18750,-0.566196,-0.633966,-0.950353,0
18770,-0.57079,-0.638697,-0.944262,0
18790,-0.573202,-0.645479,-0.939596,0
18810,-0.57757,-0.650642,-0.934236,0
18830,-0.585467,-0.653131,-0.928991,0
18850,-0.591328,-0.654592,-0.926056,0
18870,-0.597157,-0.656899,-0.923155,0
18890,-0.601918,-0.657479,-0.916217,0
18910,-0.608075,-0.654504,-0.90641,0
18930,-0.612014,-0.651947,-0.898157,0
18950,-0.615402,-0.651546,-0.892191,0
18970,-0.618441,-0.652048,-0.887114,0
18990,-0.620635,-0.654501,-0.88388,0
19010,-0.622271,-0.658491,-0.880664,0
19030,-0.624455,-0.664014,-0.87578,0
19050,-0.628131,-0.670262,-0.868896,0
19070,-0.634388,-0.675756,-0.861073,0
19090,-0.642045,-0.679995,-0.853008,0
19110,-0.648777,-0.683164,-0.846506,0
19130,-0.653724,-0.685031,-0.842125,0
19150,-0.657688,-0.686427,-0.838466,0
19170,-0.661429,-0.687446,-0.834292,0
19190,-0.665553,-0.687885,-0.829981,0
19210,-0.669244,-0.688441,-0.827284,0
19230,-0.671518,-0.688035,-0.826857,0
19250,-0.672594,-0.688362,-0.827575,0
19270,-0.673259,-0.6888,-0.828921,0
19290,-0.67382,-0.688418,-0.830435,0
19310,-0.673757,-0.687767,-0.833302,0
19330,-0.673648,-0.686055,-0.836346,0
19350,-0.673795,-0.683403,-0.839263,0
19370,-0.673643,-0.680419,-0.841811,0
19390,-0.674252,-0.677648,-0.843338,0
19410,-0.676831,-0.674761,-0.844207,0
19420,-0.680014,-0.670828,-0.843121,0
19440,-0.682241,-0.668462,-0.842173,0
19460,-0.684819,-0.66716,-0.841358,0
19480,-0.686843,-0.665434,-0.84053,0
19500,-0.687365,-0.664799,-0.840362,0
19520,-0.686015,-0.665084,-0.842217,0
19540,-0.68475,-0.665079,-0.844126,0
19560,-0.684402,-0.665173,-0.84537,0
19580,-0.684059,-0.66564,-0.846097,0
19600,-0.68435,-0.666099,-0.846461,0
19620,-0.685165,-0.665335,-0.846561,0
19640,-0.685589,-0.664795,-0.846494,0
19660,-0.686232,-0.664187,-0.845656,0
19680,-0.687118,-0.663306,-0.845211,0
19700,-0.687003,-0.662614,-0.845378,0
19720,-0.685935,-0.661851,-0.845569,0
19740,-0.685236,-0.661496,-0.845602,0
19760,-0.684909,-0.661166,-0.845613,0
19780,-0.684818,-0.660105,-0.846138,0
19800,-0.683931,-0.65911,-0.846856,0
19820,-0.683472,-0.658458,-0.846675,0
19840,-0.683854,-0.657887,-0.846183,0
19860,-0.684866,-0.657307,-0.84533,0
19880,-0.685338,-0.656835,-0.84474,0
19900,-0.685507,-0.656624,-0.844093,0
19920,-0.685725,-0.656437,-0.843493,0
19940,-0.686594,-0.655916,-0.842318,0
19960,-0.68796,-0.655795,-0.841119,0
19980,-0.68915,-0.655938,-0.840372,0
20000,-0.689168,-0.656461,-0.840273,0
20020,-0.689517,-0.65764,-0.840219,0
20040,-0.689996,-0.658442,-0.840815,0
20060,-0.689924,-0.658866,-0.840815,0
20080,-0.689999,-0.659435,-0.841367,0
20100,-0.690627,-0.659581,-0.841823,0
20120,-0.691819,-0.659093,-0.841561,0
20140,-0.692928,-0.658678,-0.840642,0
20160,-0.694041,-0.658589,-0.83978,0
20180,-0.694888,-0.658546,-0.839637,0
20200,-0.695486,-0.658484,-0.840028,0
20220,-0.695451,-0.658693,-0.840808,0
20240,-0.695002,-0.658721,-0.841347,0
20260,-0.69477,-0.658637,-0.841695,0
20280,-0.694578,-0.658,-0.842386,0
20300,-0.694316,-0.657156,-0.843567,0
20320,-0.693821,-0.656489,-0.845125,0
20340,-0.693413,-0.655128,-0.846272,0
20360,-0.69251,-0.653366,-0.847444,0
20380,-0.691599,-0.652244,-0.848505,0
20400,-0.690775,-0.652008,-0.849793,0
20420,-0.690025,-0.652094,-0.851987,0
20440,-0.689706,-0.652545,-0.853888,0
20460,-0.688835,-0.653155,-0.855855,0
20480,-0.687091,-0.654,-0.858366,0
20500,-0.684761,-0.654963,-0.862086,0
20520,-0.682869,-0.655989,-0.866069,0
20540,-0.68142,-0.65699,-0.869519,0
20560,-0.679811,-0.658181,-0.872869,0
20580,-0.678135,-0.659617,-0.876598,0
20600,-0.676631,-0.661116,-0.879942,0
20620,-0.675974,-0.662588,-0.883151,0
20640,-0.675185,-0.663817,-0.886586,0
20660,-0.674032,-0.664962,-0.89025,0
20680,-0.672964,-0.66629,-0.894244,0
20700,-0.672373,-0.667566,-0.898126,0
20720,-0.67155,-0.668771,-0.902763,0
20740,-0.669623,-0.669783,-0.908266,0
20760,-0.667952,-0.671555,-0.913241,0
20780,-0.66673,-0.672886,-0.918574,0
20800,-0.664792,-0.673251,-0.924556,0
20820,-0.662483,-0.673783,-0.930815,0
20840,-0.660559,-0.674327,-0.9377,0
20860,-0.6584,-0.674953,-0.944573,0
20880,-0.656044,-0.675044,-0.950513,0
20900,-0.654278,-0.675419,-0.956719,0
20920,-0.652644,-0.675572,-0.962595,0
20940,-0.649566,-0.675621,-0.968224,0
20960,-0.647114,-0.676439,-0.972318,0
20980,-0.645465,-0.676964,-0.974888,0
21000,-0.643881,-0.677432,-0.976913,0
21020,-0.642959,-0.677976,-0.978003,0
21040,-0.641421,-0.678976,-0.977828,0
21060,-0.640155,-0.679782,-0.976251,0
21080,-0.638508,-0.680559,-0.973658,0
21100,-0.638611,-0.681601,-0.968227,0
21120,-0.63991,-0.683232,-0.961333,0
21140,-0.642105,-0.684677,-0.954441,0
21160,-0.643603,-0.686131,-0.947853,0
21180,-0.647403,-0.687838,-0.939331,0
21200,-0.651446,-0.689845,-0.927854,0
21220,-0.656559,-0.690359,-0.917785,0
21240,-0.660611,-0.690538,-0.908616,0
21260,-0.666351,-0.690375,-0.899211,0
21280,-0.671148,-0.690407,-0.890765,0
21300,-0.674195,-0.690389,-0.884024,0
21320,-0.675912,-0.690527,-0.87763,0
21340,-0.67814,-0.690497,-0.871507,0
21360,-0.680702,-0.68953,-0.866347,0
21380,-0.681776,-0.688131,-0.862881,0
21400,-0.682794,-0.687329,-0.860096,0
21420,-0.683645,-0.686039,-0.858274,0
21440,-0.683621,-0.683898,-0.85745,0
21460,-0.683271,-0.681492,-0.856667,0
21480,-0.683802,-0.679195,-0.855773,0
21500,-0.683645,-0.676454,-0.855922,0
21520,-0.683585,-0.673043,-0.856255,0
21540,-0.684169,-0.669917,-0.856868,0
21560,-0.684237,-0.666904,-0.857594,0
21580,-0.684257,-0.664133,-0.858309,0
21600,-0.684133,-0.662011,-0.858792,0
21620,-0.68409,-0.66078,-0.859517,0
21640,-0.684082,-0.659965,-0.860539,0
21660,-0.684064,-0.659204,-0.861366,0
21680,-0.683769,-0.658913,-0.862206,0
21700,-0.683917,-0.659221,-0.863589,0
21720,-0.683961,-0.659497,-0.86526,0
21740,-0.683528,-0.660082,-0.866705,0
21760,-0.683003,-0.661145,-0.867965,0
21780,-0.683974,-0.661543,-0.869201,0
21800,-0.684417,-0.661446,-0.870223,0
21820,-0.684393,-0.661933,-0.871275,0
21840,-0.685427,-0.662335,-0.871794,0
21860,-0.686539,-0.662109,-0.872076,0
21880,-0.687225,-0.662048,-0.872946,0
21900,-0.687104,-0.66175,-0.87336,0
21920,-0.687511,-0.660553,-0.873344,0
21940,-0.687409,-0.659628,-0.874244,0
21960,-0.686447,-0.658816,-0.877461,0
21980,-0.6861,-0.656926,-0.879885,0
21990,-0.684607,-0.654884,-0.881139,0
22010,-0.682007,-0.654208,-0.883101,0
22030,-0.679292,-0.65284,-0.885404,0
22050,-0.679002,-0.650654,-0.886605,0
22070,-0.678336,-0.648674,-0.887089,0
22090,-0.678211,-0.646704,-0.886741,0
22110,-0.679122,-0.644203,-0.886154,0
22130,-0.680105,-0.641925,-0.885312,0
22150,-0.680394,-0.640318,-0.884305,0
22170,-0.680228,-0.639316,-0.883932,0
22190,-0.680139,-0.639147,-0.883999,0
22210,-0.680016,-0.638895,-0.883835,0
22230,-0.679884,-0.638388,-0.884173,0
22250,-0.680069,-0.638398,-0.883974,0
22270,-0.679663,-0.637944,-0.885597,0
22290,-0.679222,-0.638115,-0.886736,0
22310,-0.679182,-0.63862,-0.888731,0
22330,-0.678508,-0.638402,-0.891103,0
22350,-0.67762,-0.638298,-0.89405,0
22370,-0.676333,-0.63809,-0.897164,0
22390,-0.675096,-0.638505,-0.900657,0
22410,-0.674337,-0.63888,-0.904426,0
22430,-0.673303,-0.639028,-0.908851,0
22450,-0.672017,-0.6402,-0.914033,0
22470,-0.670894,-0.640975,-0.918726,0
22490,-0.67001,-0.641597,-0.923433,0
22510,-0.66851,-0.641951,-0.928629,0
22530,-0.666213,-0.642287,-0.934402,0
22550,-0.665098,-0.642957,-0.93988,0
22570,-0.663842,-0.643028,-0.945076,0
22590,-0.662826,-0.643413,-0.950403,0
22610,-0.661547,-0.643883,-0.955895,0
22630,-0.659343,-0.644457,-0.96187,0
22650,-0.655455,-0.64551,-0.96849,0
22670,-0.652186,-0.646567,-0.974765,0
22690,-0.649619,-0.647332,-0.980112,0
22710,-0.645316,-0.648835,-0.98536,0
22730,-0.639474,-0.650997,-0.990925,0
22750,-0.634607,-0.653125,-0.995151,0
22770,-0.630953,-0.655556,-0.998549,0
22790,-0.628139,-0.658497,-1.00043,0
22810,-0.627182,-0.660544,-0.998663,0
22830,-0.627159,-0.662531,-0.995211,0
22850,-0.628003,-0.665103,-0.990416,0
22870,-0.631518,-0.667544,-0.983192,0
22890,-0.63636,-0.669436,-0.975258,0
22910,-0.639089,-0.671849,-0.966352,0
22930,-0.639958,-0.673625,-0.959361,0
22950,-0.6408,-0.674031,-0.952274,0
22970,-0.642703,-0.6734,-0.943509,0
22990,-0.643609,-0.672944,-0.935817,0
23010,-0.64303,-0.671364,-0.928737,0
23030,-0.640904,-0.669209,-0.923175,0
23050,-0.638874,-0.667922,-0.91756,0
23070,-0.637931,-0.666634,-0.912654,0
23090,-0.636898,-0.664804,-0.908514,0
23110,-0.636409,-0.662891,-0.904116,0
23130,-0.637703,-0.661047,-0.899551,0
23150,-0.640659,-0.658763,-0.895759,0
23170,-0.644831,-0.655941,-0.891124,0
23190,-0.648716,-0.653915,-0.886447,0
23210,-0.651733,-0.652052,-0.882548,0
23230,-0.653041,-0.649953,-0.880819,0
23250,-0.654013,-0.64833,-0.880445,0
23270,-0.655241,-0.646158,-0.879817,0
23290,-0.655952,-0.643513,-0.879736,0
23310,-0.657049,-0.640917,-0.880245,0
23330,-0.657465,-0.638374,-0.881638,0
23350,-0.657002,-0.635464,-0.88381,0
23370,-0.657004,-0.63276,-0.886275,0
23390,-0.657449,-0.62985,-0.888361,0
23410,-0.657555,-0.626402,-0.890556,0
23430,-0.658387,-0.622618,-0.892801,0
23450,-0.660506,-0.619002,-0.894098,0
23470,-0.662952,-0.615866,-0.895453,0
23490,-0.66483,-0.612814,-0.897023,0
23510,-0.666836,-0.610597,-0.898151,0
23530,-0.667834,-0.609111,-0.899201,0
23550,-0.669178,-0.607592,-0.900766,0
23570,-0.67032,-0.605849,-0.902081,0
23590,-0.671782,-0.603665,-0.903248,0
23610,-0.672535,-0.602015,-0.904572,0
23630,-0.672494,-0.600603,-0.906456,0
23650,-0.672659,-0.599274,-0.907999,0
23670,-0.672855,-0.597563,-0.909298,0
23690,-0.672889,-0.596236,-0.910703,0
23710,-0.672398,-0.595018,-0.912908,0
23730,-0.672139,-0.593252,-0.915212,0
23750,-0.67239,-0.591434,-0.916525,0
23770,-0.671811,-0.589359,-0.917683,0
23790,-0.67088,-0.586265,-0.918615,0
23810,-0.669571,-0.5839,-0.919145,0
23830,-0.669352,-0.582183,-0.920356,0
23850,-0.670705,-0.581078,-0.921459,0
23870,-0.671021,-0.57988,-0.923137,0
23890,-0.670016,-0.579423,-0.924033,0
23910,-0.667786,-0.579179,-0.924675,0
23930,-0.665884,-0.579098,-0.925868,0
23950,-0.66636,-0.578421,-0.92655,0
23970,-0.667663,-0.57687,-0.926563,0
23990,-0.668468,-0.575535,-0.926133,0
24010,-0.669112,-0.574129,-0.925713,0
24030,-0.669072,-0.572817,-0.926277,0
24050,-0.668548,-0.571415,-0.9276,0
24070,-0.668263,-0.570253,-0.92885,0
24090,-0.667699,-0.569084,-0.929817,0
24110,-0.667195,-0.567563,-0.931481,0
24130,-0.667432,-0.56607,-0.933526,0
24150,-0.667252,-0.564713,-0.93537,0
24170,-0.666775,-0.563548,-0.93804,0
24190,-0.666548,-0.561844,-0.940815,0
24210,-0.666962,-0.559728,-0.944115,0
24230,-0.666645,-0.557603,-0.947935,0
24250,-0.665566,-0.555848,-0.952516,0
24270,-0.664164,-0.554578,-0.957416,0
24290,-0.662439,-0.553486,-0.963106,0
24310,-0.661175,-0.552483,-0.96838,0
24330,-0.66043,-0.551921,-0.973388,0
24350,-0.660241,-0.550848,-0.978091,0
24370,-0.662277,-0.550089,-0.981879,0
24390,-0.663875,-0.549189,-0.986255,0
24410,-0.664237,-0.54862,-0.991638,0
24430,-0.66396,-0.548332,-0.997182,0
24450,-0.663909,-0.547899,-1.00344,0
24470,-0.663394,-0.547252,-1.01006,0
24490,-0.662149,-0.547212,-1.01685,0
24510,-0.659564,-0.547081,-1.02426,0
24530,-0.655925,-0.547603,-1.03228,0
24550,-0.65338,-0.548925,-1.03916,0
24560,-0.650304,-0.549684,-1.04482,0
24580,-0.647767,-0.550627,-1.04965,0
24600,-0.645225,-0.551626,-1.05326,0
24620,-0.642577,-0.553253,-1.05537,0
24640,-0.639583,-0.555754,-1.05604,0
24660,-0.636938,-0.559504,-1.05483,0
24680,-0.636124,-0.563493,-1.04915,0
24700,-0.63682,-0.568875,-1.04162,0
24720,-0.640149,-0.574555,-1.03273,0
24740,-0.644463,-0.579728,-1.02321,0
24760,-0.648142,-0.584254,-1.01348,0
24780,-0.650606,-0.588558,-1.00311,0
24800,-0.653243,-0.591795,-0.993405,0
24820,-0.6555,-0.593724,-0.985465,0
24840,-0.658285,-0.593193,-0.978397,0
24860,-0.661123,-0.591056,-0.972785,0
24880,-0.663325,-0.587441,-0.968192,0
24900,-0.664447,-0.583332,-0.964825,0
24920,-0.665943,-0.578238,-0.961963,0
24940,-0.667036,-0.571471,-0.960298,0
24960,-0.667454,-0.564809,-0.960369,0
24980,-0.669287,-0.558652,-0.960019,0
25000,-0.673327,-0.552786,-0.958405,0
25020,-0.677276,-0.547149,-0.956818,0
25040,-0.680231,-0.54216,-0.955695,0
25060,-0.683033,-0.53804,-0.955026,0
25080,-0.685777,-0.534359,-0.955126,0
25100,-0.687713,-0.530561,-0.955986,0
25120,-0.68781,-0.52712,-0.957722,0
25140,-0.687139,-0.524611,-0.960293,0
25160,-0.687758,-0.521972,-0.962725,0
25180,-0.689463,-0.51882,-0.965239,0
25200,-0.690076,-0.515529,-0.968526,0
25220,-0.690219,-0.512474,-0.971912,0
25240,-0.69053,-0.509438,-0.975454,0
25260,-0.69089,-0.506085,-0.978946,0
25280,-0.692123,-0.503038,-0.981659,0
25300,-0.693581,-0.500839,-0.98429,0
25320,-0.694823,-0.497533,-0.987103,0
25340,-0.695883,-0.494986,-0.989238,0
25360,-0.696866,-0.4926,-0.991164,0
25380,-0.697788,-0.49005,-0.993491,0
25400,-0.698754,-0.488055,-0.99566,0
25420,-0.699557,-0.486872,-0.997352,0
25440,-0.699051,-0.486166,-0.999033,0
25460,-0.69827,-0.48598,-1.00057,0
25480,-0.698775,-0.48581,-1.00137,0
25500,-0.698666,-0.485745,-1.00141,0
25520,-0.698663,-0.48569,-1.00191,0
25540,-0.69935,-0.484881,-1.00172,0
25560,-0.69878,-0.483455,-1.00129,0
25580,-0.698984,-0.482051,-1.00047,0
25600,-0.69943,-0.480507,-1.00003,0
25620,-0.699682,-0.478071,-0.999834,0
25640,-0.699376,-0.475361,-0.999363,0
25660,-0.698443,-0.473685,-0.999186,0
25680,-0.6969,-0.471894,-0.999871,0
25700,-0.696305,-0.469487,-0.999846,0
25720,-0.696346,-0.467745,-0.999456,0
25740,-0.695065,-0.465709,-0.999834,0
25760,-0.693435,-0.463745,-1.0012,0
25780,-0.692384,-0.462221,-1.00209,0
25800,-0.692344,-0.460579,-1.00264,0
25820,-0.691586,-0.458482,-1.00383,0
25840,-0.690569,-0.457503,-1.00521,0
25860,-0.689661,-0.45664,-1.00706,0
25880,-0.688708,-0.455497,-1.00928,0
25900,-0.687433,-0.454918,-1.01183,0
25920,-0.685813,-0.45517,-1.01489,0
25940,-0.684213,-0.455203,-1.01794,0
25960,-0.683363,-0.455424,-1.02079,0
25980,-0.683675,-0.456261,-1.02348,0
26000,-0.683594,-0.456511,-1.02661,0
26020,-0.682631,-0.457153,-1.03048,0
26040,-0.680609,-0.458381,-1.03494,0
26060,-0.677999,-0.460028,-1.03979,0
26080,-0.67594,-0.46119,-1.04441,0
26100,-0.675597,-0.462171,-1.04887,0
26120,-0.675359,-0.463277,-1.05348,0
26140,-0.674159,-0.464377,-1.05814,0
26160,-0.673397,-0.465313,-1.06219,0
26180,-0.672794,-0.465562,-1.06569,0
26200,-0.672349,-0.465831,-1.06936,0
26220,-0.672636,-0.466361,-1.07234,0
26240,-0.671745,-0.466682,-1.07491,0
26260,-0.669329,-0.467347,-1.07743,0
26280,-0.666176,-0.468512,-1.07955,0
26300,-0.663658,-0.469761,-1.081,0
26320,-0.66154,-0.470738,-1.08073,0
26340,-0.659438,-0.472002,-1.07907,0
26360,-0.657415,-0.474057,-1.07675,0
26380,-0.657555,-0.476133,-1.07338,0
26400,-0.657976,-0.478803,-1.06911,0
26420,-0.65755,-0.481546,-1.06351,0
26440,-0.657504,-0.484291,-1.05776,0
26460,-0.657687,-0.486406,-1.05233,0
26480,-0.659773,-0.488315,-1.046,0
26500,-0.661779,-0.489108,-1.03956,0
26520,-0.662125,-0.489648,-1.03428,0
26540,-0.66277,-0.489226,-1.02967,0
26560,-0.664919,-0.488023,-1.02548,0
26580,-0.667157,-0.486335,-1.02109,0
26600,-0.667777,-0.484525,-1.01727,0
26620,-0.668602,-0.482958,-1.01341,0
26640,-0.670875,-0.480977,-1.01021,0
26660,-0.674224,-0.478111,-1.00719,0
26680,-0.677075,-0.475143,-1.00352,0
26700,-0.679725,-0.473084,-1.00008,0
26720,-0.682622,-0.470656,-0.996985,0
26740,-0.684913,-0.468432,-0.994864,0
26760,-0.686161,-0.466656,-0.992832,0
26780,-0.686516,-0.465395,-0.991208,0
26800,-0.687881,-0.464388,-0.989827,0
26820,-0.690067,-0.463557,-0.988984,0
26840,-0.690493,-0.462618,-0.988522,0
26860,-0.689562,-0.462312,-0.98917,0
26880,-0.689349,-0.461576,-0.989944,0
26900,-0.690019,-0.460432,-0.990666,0
26920,-0.69069,-0.459285,-0.992048,0
26940,-0.690716,-0.458077,-0.993763,0
26960,-0.690538,-0.457069,-0.995318,0
26980,-0.689988,-0.45635,-0.997235,0
27000,-0.690545,-0.455297,-0.999843,2000
27020,-0.691144,-0.454309,-1.00201,0
27040,-0.692377,-0.453877,-1.00379,0
27060,-0.694444,-0.452825,-1.00543,0
27080,-0.696409,-0.450951,-1.00758,0
27100,-0.697575,-0.44873,-1.01,0
27120,-0.698289,-0.446193,-1.0127,0
27140,-0.698842,-0.443046,-1.01492,0
27150,-0.700044,-0.438615,-1.01697,0
27170,-0.700461,-0.434811,-1.01887,0
27190,-0.70024,-0.430724,-1.02102,0
27210,-0.700219,-0.42693,-1.02263,0
27230,-0.700494,-0.42355,-1.02383,0
27250,-0.700126,-0.420428,-1.02477,0
27270,-0.699364,-0.418178,-1.026,0
27290,-0.697633,-0.416525,-1.02658,0
27310,-0.695016,-0.415366,-1.02752,0
27330,-0.693335,-0.414685,-1.02838,0
27350,-0.691843,-0.414463,-1.02859,0
27370,-0.69086,-0.41419,-1.02898,0
27390,-0.689711,-0.414871,-1.02913,0
27410,-0.688512,-0.416252,-1.02926,0
27430,-0.686888,-0.417255,-1.03015,0
27450,-0.68511,-0.418514,-1.0308,0
27470,-0.682914,-0.420048,-1.03143,0
27490,-0.680214,-0.421857,-1.03164,0
27510,-0.677275,-0.424126,-1.03224,0
27530,-0.675637,-0.426427,-1.03318,0
27550,-0.674806,-0.428931,-1.03403,0
27570,-0.673633,-0.432048,-1.03505,0
27590,-0.672361,-0.435696,-1.03645,0
27610,-0.670942,-0.438402,-1.03794,0
27630,-0.669212,-0.440358,-1.04039,0
27650,-0.667593,-0.443024,-1.04367,0
27670,-0.665863,-0.445896,-1.04693,0
27690,-0.664744,-0.447858,-1.05021,0
27710,-0.662802,-0.449766,-1.05449,0
27730,-0.662059,-0.452095,-1.05863,0
27750,-0.662659,-0.454103,-1.06254,0
27770,-0.662971,-0.455699,-1.06653,0
27790,-0.662912,-0.457304,-1.07134,0
27810,-0.663202,-0.458632,-1.07608,0
27830,-0.663776,-0.459729,-1.08153,0
27850,-0.664137,-0.46015,-1.08824,0
27870,-0.663181,-0.461271,-1.09555,0
27890,-0.662816,-0.461881,-1.10279,0
27910,-0.663113,-0.461062,-1.11085,0
27930,-0.661926,-0.460198,-1.11993,0
27950,-0.660128,-0.45985,-1.12977,0
27970,-0.658682,-0.459178,-1.13935,0
27990,-0.657913,-0.457739,-1.14862,0
28010,-0.657042,-0.456845,-1.15867,0
28030,-0.656235,-0.455535,-1.16828,0
28050,-0.656023,-0.453623,-1.17771,0
28070,-0.655045,-0.452421,-1.18785,0
28090,-0.653076,-0.451811,-1.19861,0
28110,-0.651636,-0.451204,-1.20957,0
28130,-0.650711,-0.450426,-1.22045,0
28150,-0.649159,-0.450315,-1.23139,0
28170,-0.647164,-0.450622,-1.24262,0
28190,-0.645804,-0.451073,-1.2539,0
28210,-0.644131,-0.452247,-1.26527,0
28230,-0.642305,-0.453623,-1.27665,0
28250,-0.640904,-0.455379,-1.28752,0
28270,-0.639641,-0.457141,-1.29842,0
28290,-0.638778,-0.459417,-1.30988,0
28310,-0.637857,-0.462185,-1.32166,0
28330,-0.635442,-0.4653,-1.33344,0
28350,-0.632672,-0.469095,-1.34592,0
28370,-0.630823,-0.473265,-1.35793,0
28390,-0.628946,-0.477622,-1.36964,0
28410,-0.626993,-0.481815,-1.38148,0
28430,-0.625444,-0.486372,-1.39301,0
28450,-0.624348,-0.490992,-1.40447,0
28470,-0.622789,-0.495303,-1.41589,0
28490,-0.62159,-0.49992,-1.42641,0
28510,-0.621053,-0.504631,-1.43724,0
28530,-0.620038,-0.508738,-1.44763,0
28550,-0.618963,-0.512769,-1.45815,0
28570,-0.617845,-0.516934,-1.46814,0
28590,-0.61685,-0.521192,-1.47784,0
28610,-0.616475,-0.525953,-1.48661,0
28630,-0.616102,-0.53028,-1.4955,0
28650,-0.613519,-0.534598,-1.50441,0
28670,-0.610549,-0.539487,-1.51316,0
28690,-0.609253,-0.544497,-1.52084,0
28710,-0.608839,-0.548889,-1.52722,0
28730,-0.607793,-0.553933,-1.53281,0
28750,-0.608527,-0.558729,-1.53687,0
28770,-0.610669,-0.563094,-1.53918,0
28790,-0.612521,-0.567133,-1.54048,0
28810,-0.613994,-0.571739,-1.54034,0
28830,-0.616687,-0.576753,-1.53816,0
28850,-0.62069,-0.581958,-1.53475,0
28870,-0.626271,-0.586553,-1.52931,0
28890,-0.631589,-0.591253,-1.5222,0
28910,-0.636544,-0.595961,-1.51405,0
28930,-0.641802,-0.599972,-1.5049,0
28950,-0.647345,-0.603029,-1.49457,0
28970,-0.653493,-0.606342,-1.4832,0
28990,-0.658358,-0.609175,-1.47188,0
29010,-0.662135,-0.611182,-1.46003,0
29030,-0.66556,-0.612921,-1.44803,0
29050,-0.668705,-0.614522,-1.43508,0
29070,-0.672154,-0.615197,-1.42167,0
29090,-0.675966,-0.615512,-1.40836,0
29110,-0.67959,-0.615734,-1.3945,0
29130,-0.682563,-0.615613,-1.38059,0
29150,-0.685211,-0.615263,-1.36661,0
29170,-0.687727,-0.614313,-1.352,0
29190,-0.691686,-0.613323,-1.33669,0
29210,-0.696958,-0.612605,-1.32081,0
29230,-0.702814,-0.611698,-1.30392,0
29250,-0.707974,-0.610362,-1.28702,0
29270,-0.713754,-0.609517,-1.26938,0
29290,-0.719751,-0.608976,-1.25163,0
29310,-0.726166,-0.608617,-1.23373,0
29330,-0.732618,-0.608174,-1.21574,0
29350,-0.739101,-0.607468,-1.19774,0
29370,-0.74534,-0.606468,-1.17988,0
29390,-0.752431,-0.605316,-1.16195,0
29410,-0.760022,-0.603608,-1.14424,0
29430,-0.767838,-0.60171,-1.12627,0
29450,-0.776028,-0.600364,-1.10789,0
29470,-0.785275,-0.598571,-1.08945,0
29490,-0.796102,-0.596359,-1.07131,0
29510,-0.80886,-0.593778,-1.05242,0
29530,-0.822432,-0.591839,-1.03321,0
29550,-0.835992,-0.590066,-1.01438,0
29570,-0.848585,-0.588565,-0.996607,0
29590,-0.859914,-0.587914,-0.980341,0
29610,-0.870265,-0.58848,-0.965097,0
29630,-0.879504,-0.589381,-0.950953,0
29650,-0.886979,-0.591726,-0.938383,0
29670,-0.893744,-0.59528,-0.92745,0
29690,-0.902538,-0.59987,-0.916782,0
29710,-0.910791,-0.604321,-0.908005,0
29730,-0.917148,-0.60906,-0.901473,0
29740,-0.92233,-0.614814,-0.895684,0
29760,-0.927512,-0.621376,-0.890686,0
29780,-0.931881,-0.62767,-0.887607,0
29800,-0.935788,-0.634411,-0.88586,0
29820,-0.939021,-0.642271,-0.884459,0
29840,-0.942157,-0.650432,-0.883647,0
29860,-0.944621,-0.658338,-0.885445,0
29880,-0.94755,-0.666404,-0.887488,0
29900,-0.949705,-0.674938,-0.890504,0
29920,-0.950821,-0.682885,-0.896352,0
29940,-0.949684,-0.691228,-0.90386,0
29960,-0.947841,-0.700657,-0.912616,0
29980,-0.945791,-0.709792,-0.922625,0
30000,-0.94524,-0.718005,-0.933553,0
30020,-0.941969,-0.726652,-0.946604,0
30040,-0.937463,-0.735961,-0.960458,0
30060,-0.933925,-0.744809,-0.974789,0
30080,-0.931407,-0.753518,-0.989197,0
30100,-0.926747,-0.762798,-1.00515,0
30120,-0.921033,-0.772322,-1.02255,0
30140,-0.914071,-0.781744,-1.04059,0
30160,-0.906669,-0.79168,-1.05932,0
30180,-0.900184,-0.80134,-1.07842,0
30200,-0.894161,-0.810922,-1.09652,0
30220,-0.886756,-0.820929,-1.11588,0
30240,-0.876421,-0.830497,-1.13724,0
30260,-0.866492,-0.83973,-1.15825,0
30280,-0.858591,-0.847814,-1.17845,0
30300,-0.850669,-0.854916,-1.19929,0
30320,-0.839674,-0.86119,-1.2214,0
30340,-0.827309,-0.866812,-1.24468,0
30360,-0.815791,-0.872429,-1.2669,0
30380,-0.803565,-0.877858,-1.28918,0
30400,-0.791457,-0.88238,-1.31064,0
30420,-0.779337,-0.886436,-1.33211,0
30440,-0.766348,-0.889866,-1.35163,0
30460,-0.754627,-0.893412,-1.37037,0
30480,-0.746898,-0.895957,-1.38497,0
30500,-0.740379,-0.897737,-1.39721,0
30520,-0.733345,-0.900197,-1.40808,0
30540,-0.726539,-0.902808,-1.41736,0
30560,-0.723172,-0.90437,-1.42262,0
30580,-0.7228,-0.905226,-1.42431,0
30600,-0.72478,-0.905111,-1.42304,0
30620,-0.72901,-0.904056,-1.41807,0
30640,-0.734673,-0.902984,-1.41085,0
30660,-0.741941,-0.900434,-1.40083,0
30680,-0.750088,-0.897431,-1.38796,0
30700,-0.758424,-0.894257,-1.37413,0
30720,-0.765856,-0.890998,-1.35991,0
30740,-0.772214,-0.888185,-1.34471,0
30760,-0.778452,-0.885115,-1.32835,0
30780,-0.78485,-0.882053,-1.31036,0
30800,-0.79222,-0.878104,-1.29198,0
30820,-0.802206,-0.873061,-1.2716,0
30840,-0.810711,-0.867854,-1.25071,0
30860,-0.819382,-0.86281,-1.22936,0
30880,-0.829268,-0.856986,-1.20702,0
30900,-0.840643,-0.850358,-1.18318,0
30920,-0.852115,-0.844098,-1.15907,0
30940,-0.862431,-0.838392,-1.13541,0
30960,-0.87451,-0.832863,-1.10984,0
30980,-0.889055,-0.82682,-1.08315,0
31000,-0.904305,-0.820698,-1.05619,0
31020,-0.921077,-0.814614,-1.02892,0
31040,-0.937256,-0.80861,-1.00201,0
31060,-0.952949,-0.803204,-0.975539,0
31080,-0.967639,-0.798083,-0.950231,0
31100,-0.983473,-0.79309,-0.924502,0
31120,-1.00162,-0.788701,-0.897636,0
31140,-1.01952,-0.784455,-0.871818,0
31160,-1.03569,-0.781445,-0.847751,0
31180,-1.05161,-0.779668,-0.823521,0
31200,-1.06797,-0.77878,-0.800442,0
31220,-1.08436,-0.778347,-0.779012,0
31240,-1.09964,-0.778099,-0.759514,0
31260,-1.11339,-0.778805,-0.74158,0
31280,-1.12571,-0.780851,-0.72669,0
31300,-1.1368,-0.784559,-0.712964,0
31320,-1.14713,-0.789487,-0.701232,0
31340,-1.1581,-0.7949,-0.691143,0
31360,-1.1687,-0.801087,-0.682502,0
31380,-1.17744,-0.808841,-0.676374,0
31400,-1.18362,-0.818415,-0.673432,0
31420,-1.18739,-0.829027,-0.672304,0
31440,-1.19279,-0.839646,-0.672177,0
31460,-1.19622,-0.850886,-0.675522,0
31480,-1.19634,-0.86423,-0.682772,0
31500,-1.1941,-0.878497,-0.691477,0
31520,-1.19361,-0.892291,-0.700755,0
31540,-1.19192,-0.906195,-0.713269,0
31560,-1.189,-0.920425,-0.728147,0
31580,-1.1847,-0.934634,-0.742853,0
31600,-1.17907,-0.949341,-0.761062,0
31620,-1.17027,-0.964805,-0.782874,0
31640,-1.15978,-0.980574,-0.805998,0
31660,-1.148,-0.996116,-0.829915,0
31680,-1.13364,-1.01178,-0.856853,0
31700,-1.11383,-1.02725,-0.887645,0
31720,-1.09066,-1.04263,-0.920503,0
31740,-1.06946,-1.05478,-0.954038,0
31760,-1.04691,-1.06367,-0.991177,0
31780,-1.01949,-1.07044,-1.03065,0
31800,-0.990245,-1.07643,-1.07068,0
31820,-0.960735,-1.08113,-1.10863,0
31840,-0.932226,-1.08483,-1.14711,0
31860,-0.902586,-1.08656,-1.18502,0
31880,-0.871462,-1.08819,-1.22173,0
31900,-0.842602,-1.08699,-1.2552,0
31920,-0.816123,-1.08369,-1.28605,0
31940,-0.793397,-1.07934,-1.31283,0
31960,-0.773104,-1.07338,-1.33547,0
31980,-0.757566,-1.06626,-1.35309,0
32000,-0.747512,-1.05758,-1.36467,0
32020,-0.738953,-1.04903,-1.37229,0
32040,-0.735135,-1.04135,-1.37495,0
32060,-0.73757,-1.03396,-1.371,0
32080,-0.743815,-1.02628,-1.36294,0
32100,-0.752628,-1.0197,-1.35053,0
32120,-0.762075,-1.01426,-1.33551,0
32140,-0.77638,-1.01011,-1.31599,0
32160,-0.791043,-1.00642,-1.29502,0
32180,-0.804956,-1.00314,-1.27279,0
32200,-0.818959,-1.0004,-1.24901,0
32220,-0.834584,-0.997881,-1.2228,0
32240,-0.851508,-0.995055,-1.19608,0
32260,-0.869817,-0.99169,-1.16744,0
32280,-0.888148,-0.987632,-1.13769,0
32300,-0.907153,-0.98352,-1.10699,0
32310,-0.927522,-0.979109,-1.07598,0
32330,-0.949816,-0.973333,-1.04369,0
32350,-0.971971,-0.967882,-1.01092,0
32370,-0.992872,-0.961966,-0.979338,0
32390,-1.01594,-0.955933,-0.947189,0
32410,-1.03925,-0.949312,-0.915254,0
32430,-1.06168,-0.943112,-0.884474,0
32450,-1.0833,-0.93839,-0.854646,0
32470,-1.10437,-0.934379,-0.825975,0
32490,-1.12458,-0.930903,-0.79848,0
32510,-1.14223,-0.929137,-0.773947,0
32530,-1.15696,-0.928502,-0.752237,0
32550,-1.17066,-0.92929,-0.731839,0
32570,-1.18316,-0.930787,-0.714622,0
32590,-1.19355,-0.93319,-0.700038,0
32610,-1.2044,-0.935953,-0.6871,0
32630,-1.21493,-0.938951,-0.675344,0
32650,-1.22514,-0.942302,-0.665537,0
32670,-1.23559,-0.946311,-0.657476,0
32690,-1.24542,-0.950669,-0.65062,0
32710,-1.2525,-0.956377,-0.645546,0
32730,-1.25938,-0.963865,-0.641333,0
32750,-1.26604,-0.971901,-0.638083,0
32770,-1.27313,-0.979961,-0.635336,0
32790,-1.27735,-0.988854,-0.634869,0
32810,-1.28093,-0.998158,-0.635366,0
32830,-1.2847,-1.00687,-0.637385,0
32850,-1.28703,-1.01475,-0.639923,0
32870,-1.2864,-1.02357,-0.645222,2001
32890,-1.28521,-1.03215,-0.651538,0
32910,-1.28485,-1.0396,-0.658158,0
32930,-1.28206,-1.04707,-0.666009,0
32950,-1.27742,-1.05475,-0.674413,0
32970,-1.27382,-1.06182,-0.682026,0
32990,-1.27022,-1.06833,-0.689677,0
33010,-1.26627,-1.07473,-0.697224,0
33030,-1.26088,-1.08016,-0.705816,0
33050,-1.25559,-1.08505,-0.713908,0
33070,-1.25034,-1.08941,-0.721798,0
33090,-1.24513,-1.09366,-0.728977,0
33110,-1.2408,-1.09666,-0.734947,0
33130,-1.23662,-1.09934,-0.740085,0
33150,-1.23293,-1.10136,-0.743763,0
33170,-1.23216,-1.10285,-0.745258,0
33190,-1.23188,-1.1032,-0.746522,0
33210,-1.23258,-1.10467,-0.745833,0
33230,-1.23063,-1.10565,-0.745163,0
33250,-1.22801,-1.10658,-0.744075,0
33270,-1.22692,-1.10666,-0.742655,0
33290,-1.22564,-1.10581,-0.741974,0
33310,-1.22536,-1.10437,-0.741167,0
33330,-1.22558,-1.1018,-0.740123,0
33350,-1.22404,-1.09987,-0.738659,0
33370,-1.22012,-1.09827,-0.739585,0
33390,-1.21571,-1.09609,-0.740985,0
33410,-1.21325,-1.09224,-0.740154,0
33430,-1.21111,-1.08913,-0.740413,0
33450,-1.2083,-1.08505,-0.739348,0
33470,-1.20593,-1.08079,-0.738867,0
33490,-1.20343,-1.07597,-0.737904,0
33510,-1.19826,-1.0706,-0.738409,0
33530,-1.18926,-1.06507,-0.74091,0
33550,-1.17514,-1.0573,-0.74706,0
33570,-1.15923,-1.04764,-0.756035,0
33590,-1.13935,-1.03557,-0.770034,0
33610,-1.11957,-1.02168,-0.783083,0
33630,-1.09577,-1.00627,-0.800035,0
33650,-1.0695,-0.987219,-0.81952,0
33670,-1.043,-0.96721,-0.838508,0
33690,-1.01585,-0.946844,-0.857942,0
33710,-0.986472,-0.924556,-0.879607,0
33730,-0.954339,-0.899571,-0.90139,0
33750,-0.927633,-0.875178,-0.916998,0
33770,-0.904972,-0.850216,-0.924804,0
33790,-0.884412,-0.824164,-0.932698,0
33810,-0.866645,-0.797786,-0.941537,0
33830,-0.853837,-0.771622,-0.94417,0
33850,-0.844437,-0.745914,-0.941375,0
33870,-0.832572,-0.721896,-0.939305,0
33890,-0.822065,-0.698319,-0.936523,0
33910,-0.81527,-0.674052,-0.93082,0
33930,-0.809618,-0.65126,-0.922886,0
33950,-0.802535,-0.631216,-0.915852,0
33970,-0.795022,-0.613364,-0.909013,0
33990,-0.788336,-0.596163,-0.899548,0
34010,-0.780693,-0.580613,-0.890662,0
34030,-0.772183,-0.567499,-0.88353,0
34050,-0.766093,-0.554457,-0.875066,0
34070,-0.763312,-0.541429,-0.863652,0
34090,-0.758882,-0.530331,-0.853381,0
34110,-0.753272,-0.521068,-0.845633,0
34130,-0.748317,-0.512347,-0.836908,0
34150,-0.744798,-0.505931,-0.82712,0
34170,-0.739338,-0.501245,-0.81913,0
34190,-0.733107,-0.49677,-0.811586,0
34210,-0.727976,-0.493184,-0.804367,0
34230,-0.723207,-0.490474,-0.795898,0
34250,-0.717951,-0.489752,-0.788081,0
34270,-0.712273,-0.490332,-0.782269,0
34290,-0.707675,-0.490694,-0.776012,0
34310,-0.705605,-0.491947,-0.768634,0
34330,-0.702294,-0.493772,-0.763566,0
34350,-0.700994,-0.494857,-0.761143,0
34370,-0.70131,-0.494892,-0.75809,0
34390,-0.703007,-0.494542,-0.753032,0
34410,-0.705795,-0.494597,-0.74723,0
34430,-0.711115,-0.495639,-0.740615,0
34450,-0.718283,-0.498051,-0.73433,0
34470,-0.725418,-0.502001,-0.728468,0
34490,-0.730059,-0.507527,-0.723759,0
34510,-0.733205,-0.513537,-0.719513,0
34530,-0.736924,-0.51912,-0.715255,0
34550,-0.74182,-0.524726,-0.710888,0
34570,-0.745176,-0.530272,-0.707842,0
34590,-0.748563,-0.534912,-0.705845,0
34610,-0.753542,-0.540084,-0.703095,0
34630,-0.760062,-0.54557,-0.699335,0
34650,-0.765788,-0.549912,-0.695988,0
34670,-0.770395,-0.55405,-0.693238,0
34690,-0.775692,-0.557929,-0.690784,0
34710,-0.78175,-0.56034,-0.68809,0
34730,-0.786823,-0.56045,-0.685295,0
34750,-0.791464,-0.561089,-0.682909,0
34770,-0.795757,-0.561878,-0.681401,0
34790,-0.799879,-0.560902,-0.679903,0
34810,-0.80248,-0.56007,-0.678129,0
34830,-0.803946,-0.559607,-0.676968,0
34850,-0.806218,-0.559271,-0.676779,0
34870,-0.810261,-0.557719,-0.676724,0
34890,-0.814901,-0.556206,-0.675669,0
34900,-0.817685,-0.554529,-0.675465,0
34920,-0.818021,-0.55265,-0.676925,0
34940,-0.819143,-0.550661,-0.678123,0
34960,-0.821343,-0.54877,-0.677375,0
34980,-0.823644,-0.546834,-0.676214,0
35000,-0.825308,-0.544713,-0.674452,0
35020,-0.82699,-0.542834,-0.671283,0
35040,-0.829013,-0.540746,-0.667616,0
35060,-0.832008,-0.538325,-0.664112,0
35080,-0.834534,-0.536382,-0.660095,0
35100,-0.83544,-0.535221,-0.655924,0
35120,-0.836095,-0.534209,-0.652891,0
35140,-0.837429,-0.532755,-0.64974,0
35160,-0.839566,-0.531251,-0.646363,0
35180,-0.840019,-0.52963,-0.644475,0
35200,-0.83922,-0.528683,-0.643836,0
35220,-0.83871,-0.527894,-0.643287,0
35240,-0.837429,-0.527862,-0.643752,0
35260,-0.835695,-0.528856,-0.644987,0
35280,-0.834365,-0.530422,-0.64671,0
35300,-0.832675,-0.532624,-0.649202,0
35320,-0.830986,-0.534419,-0.651948,0
35340,-0.830485,-0.53659,-0.654436,0
35360,-0.831039,-0.53819,-0.656495,0
35380,-0.830568,-0.539087,-0.65975,0
35400,-0.829888,-0.540488,-0.663605,0
35420,-0.830004,-0.541303,-0.667296,0
35440,-0.82875,-0.541948,-0.673163,0
35460,-0.826419,-0.542921,-0.680909,0
35480,-0.82512,-0.544808,-0.689066,0
35500,-0.824578,-0.54648,-0.697147,0
35520,-0.823003,-0.547992,-0.706709,0
35540,-0.820676,-0.550855,-0.716834,0
35560,-0.819874,-0.553511,-0.726256,0
35580,-0.817848,-0.556263,-0.736447,0
35600,-0.813971,-0.559939,-0.746928,0
35620,-0.811186,-0.564347,-0.755336,0
35640,-0.811005,-0.56732,-0.760926,0
35660,-0.809937,-0.570526,-0.765653,0
35680,-0.806235,-0.575355,-0.770073,0
35700,-0.80397,-0.580379,-0.772363,0
35720,-0.804579,-0.584222,-0.77049,0
35740,-0.806298,-0.587347,-0.764979,0
35760,-0.8076,-0.590704,-0.758997,0
35780,-0.811076,-0.593793,-0.751475,0
35800,-0.817246,-0.595775,-0.743153,0
35820,-0.823981,-0.596595,-0.734326,0
35840,-0.827997,-0.597346,-0.725348,0
35860,-0.830204,-0.597893,-0.717885,0
35880,-0.835139,-0.596197,-0.710998,0
35900,-0.842623,-0.593876,-0.702533,0
35920,-0.848029,-0.591045,-0.695068,0
35940,-0.854659,-0.586349,-0.688074,0
35960,-0.8599,-0.581758,-0.681795,0
35980,-0.863078,-0.578662,-0.676745,0
36000,-0.86688,-0.574702,-0.672698,0
36020,-0.871992,-0.570435,-0.668257,0
36040,-0.875965,-0.567421,-0.664855,0
36060,-0.878065,-0.56451,-0.663195,0
36080,-0.880896,-0.560756,-0.662274,0
36100,-0.883568,-0.557563,-0.661461,0
36120,-0.88506,-0.554651,-0.660858,0
36140,-0.886562,-0.551651,-0.66136,0
36160,-0.886792,-0.548644,-0.663438,0
36180,-0.887192,-0.546182,-0.664863,0
36200,-0.887106,-0.545151,-0.66746,0
36220,-0.885903,-0.54329,-0.670507,0
36240,-0.885321,-0.542259,-0.67224,0
36260,-0.885367,-0.542016,-0.673567,0
36280,-0.885106,-0.540622,-0.674626,0
36300,-0.8855,-0.538742,-0.675019,0
36320,-0.8867,-0.53764,-0.674841,0
36340,-0.886798,-0.537252,-0.674836,0
36360,-0.886356,-0.534705,-0.674168,0
36380,-0.886264,-0.532905,-0.673009,0
36400,-0.887444,-0.530312,-0.670659,0
36420,-0.888775,-0.527327,-0.668719,0
36440,-0.8888,-0.524593,-0.667358,0
36460,-0.887895,-0.523071,-0.666402,0
36480,-0.885469,-0.5215,-0.666008,0
36500,-0.883327,-0.519555,-0.665795,0
36520,-0.88199,-0.517686,-0.66533,0
36540,-0.881403,-0.515926,-0.66438,0
36560,-0.879894,-0.514183,-0.664745,0
36580,-0.877385,-0.513486,-0.665292,0
36600,-0.875397,-0.513259,-0.665755,0
36620,-0.874452,-0.51265,-0.665951,0
36640,-0.8725,-0.51259,-0.666932,0
36660,-0.870242,-0.513364,-0.667634,0
36680,-0.869269,-0.514451,-0.667333,0
36700,-0.868419,-0.515364,-0.667356,0
36720,-0.866793,-0.516111,-0.668015,0
36740,-0.864226,-0.518111,-0.668903,0
36760,-0.862659,-0.519612,-0.668812,0
36780,-0.861464,-0.520378,-0.668354,0
36800,-0.860648,-0.52107,-0.668459,0
36820,-0.859131,-0.523249,-0.669354,0
36840,-0.857188,-0.525593,-0.67032,0
36860,-0.855362,-0.528009,-0.670888,0
36880,-0.852944,-0.531428,-0.671407,0
36900,-0.851724,-0.534297,-0.670955,0
36920,-0.851917,-0.536095,-0.670685,0
36940,-0.851211,-0.538243,-0.671393,0
36960,-0.850686,-0.541023,-0.671479,0
36980,-0.852707,-0.543345,-0.669605,0
37000,-0.855084,-0.544475,-0.667029,0
37020,-0.856847,-0.54552,-0.664551,0
37040,-0.859318,-0.546003,-0.662874,0
37060,-0.861869,-0.544501,-0.660735,0
37080,-0.86342,-0.542692,-0.658202,0
37100,-0.863323,-0.540712,-0.655818,0
37120,-0.865775,-0.537753,-0.654071,0
37140,-0.868537,-0.533043,-0.651408,0
37160,-0.871313,-0.527439,-0.648624,0
37180,-0.87449,-0.521765,-0.645441,0
37200,-0.878102,-0.515768,-0.642294,0
37220,-0.883027,-0.508437,-0.638574,0
37240,-0.88784,-0.502085,-0.633949,0
37260,-0.891018,-0.496653,-0.630465,0
37280,-0.893508,-0.490622,-0.627501,0
37300,-0.896073,-0.485227,-0.623843,0
37320,-0.897788,-0.480884,-0.62049,0
37340,-0.897535,-0.476486,-0.618566,0
37360,-0.895969,-0.472602,-0.616221,0
37380,-0.895594,-0.469083,-0.613656,0
37400,-0.896076,-0.465501,-0.611307,0
37420,-0.897476,-0.461733,-0.607949,0
37440,-0.899798,-0.458864,-0.604003,0
37460,-0.901347,-0.454891,-0.602214,0
37480,-0.901555,-0.450754,-0.600621,0
37490,-0.900438,-0.448227,-0.598309,0
37510,-0.899962,-0.446268,-0.596342,0
37530,-0.899572,-0.443307,-0.595852,0
37550,-0.899491,-0.440521,-0.59465,0
37570,-0.897873,-0.438712,-0.59298,0
37590,-0.896586,-0.436789,-0.591671,0
37610,-0.895156,-0.434514,-0.591113,0
37630,-0.893771,-0.431898,-0.590354,0
37650,-0.893517,-0.429616,-0.588381,2000
37670,-0.89314,-0.427023,-0.586688,0
37690,-0.891719,-0.424685,-0.585664,0
37710,-0.889477,-0.422975,-0.584635,0
37730,-0.888123,-0.421765,-0.582283,0
37750,-0.888796,-0.420849,-0.579479,0
37770,-0.88966,-0.419886,-0.578326,0
37790,-0.889213,-0.418575,-0.578036,0
37810,-0.88848,-0.418251,-0.576901,0
37830,-0.888541,-0.418372,-0.575167,0
37850,-0.8891,-0.418007,-0.575175,0
37870,-0.88768,-0.417225,-0.576028,0
37890,-0.88681,-0.417471,-0.57558,0
37910,-0.886299,-0.417723,-0.575328,0
37930,-0.887574,-0.417932,-0.57559,0
37950,-0.889945,-0.417993,-0.575863,0
37970,-0.889755,-0.418106,-0.575644,0
37990,-0.889081,-0.41832,-0.574437,0
38010,-0.889383,-0.417796,-0.573745,0
38030,-0.889946,-0.417154,-0.573985,0
38050,-0.891708,-0.41643,-0.5724,0
38070,-0.892024,-0.414741,-0.570251,0
38090,-0.8903,-0.412671,-0.568882,0
38110,-0.888794,-0.411729,-0.567928,0
38130,-0.889827,-0.410206,-0.566147,0
38150,-0.892918,-0.407432,-0.5634,0
38170,-0.894686,-0.404642,-0.561103,0
38190,-0.894334,-0.403407,-0.559002,0
38210,-0.893168,-0.403076,-0.557602,0
38230,-0.891953,-0.401947,-0.556835,0
38250,-0.890316,-0.400756,-0.555978,0
38270,-0.888135,-0.40086,-0.555038,0
38290,-0.885755,-0.399928,-0.555745,0
38310,-0.884051,-0.398504,-0.55693,0
38330,-0.883433,-0.39798,-0.556916,0
38350,-0.882399,-0.397332,-0.556675,0
38370,-0.881933,-0.3957,-0.556769,0
38390,-0.88053,-0.394512,-0.557393,0
38410,-0.877672,-0.393787,-0.55802,0
38430,-0.875195,-0.393682,-0.55856,0
38450,-0.875055,-0.392834,-0.558623,0
38470,-0.875024,-0.391821,-0.559934,0
38480,-0.873857,-0.392539,-0.561899,0
38500,-0.872676,-0.393147,-0.564192,0
38500,-0.873331,-0.392993,-0.566456,0
38520,-0.87387,-0.392848,-0.569858,0
38570,-0.872694,-0.394173,-0.574671,0
38590,-0.871231,-0.396121,-0.579855,0
38610,-0.870326,-0.396995,-0.586317,0
38630,-0.867829,-0.397972,-0.594478,0
38650,-0.865613,-0.399889,-0.602425,0
38670,-0.864881,-0.400922,-0.610473,0
38690,-0.8637,-0.401102,-0.619972,0
38710,-0.861988,-0.40218,-0.629722,0
38730,-0.860411,-0.403316,-0.640082,0
38750,-0.859991,-0.403311,-0.650531,0
38770,-0.857237,-0.403636,-0.662527,0
38790,-0.853262,-0.405629,-0.675274,0
38810,-0.850669,-0.407426,-0.687574,0
38830,-0.849584,-0.408311,-0.699625,0
38850,-0.846955,-0.409272,-0.712658,0
38870,-0.844196,-0.411838,-0.725431,0
38890,-0.843498,-0.414514,-0.73762,0
38910,-0.843908,-0.416139,-0.75009,0
38930,-0.842519,-0.41854,-0.764069,0
38950,-0.840754,-0.422087,-0.778146,0
38970,-0.840519,-0.425293,-0.792095,0
38990,-0.840473,-0.427855,-0.80648,0
39010,-0.839715,-0.430963,-0.821958,0
39030,-0.838926,-0.433943,-0.837322,0
39050,-0.839404,-0.436456,-0.852096,0
39070,-0.840038,-0.438209,-0.867712,0
39090,-0.840587,-0.44025,-0.883616,0
39110,-0.84172,-0.443027,-0.899221,0
39130,-0.844164,-0.445023,-0.914056,0
39150,-0.846404,-0.447332,-0.929397,0
39170,-0.847833,-0.450744,-0.943903,0
39190,-0.849929,-0.455002,-0.958408,0
39210,-0.852681,-0.459068,-0.972655,0
39230,-0.85352,-0.464015,-0.986647,0
39250,-0.854216,-0.46964,-1.00036,0
39270,-0.85501,-0.475421,-1.01315,0
39290,-0.856557,-0.481609,-1.02537,0
39310,-0.857605,-0.488489,-1.03748,0
39330,-0.858613,-0.496116,-1.04879,0
39350,-0.859915,-0.503489,-1.0598,0
39370,-0.859658,-0.510362,-1.06998,0
39390,-0.86044,-0.517545,-1.07846,0
39410,-0.863823,-0.524753,-1.08599,0
39430,-0.867668,-0.531072,-1.09316,0
39450,-0.869899,-0.536269,-1.09801,0
39470,-0.872674,-0.542272,-1.10041,0
39490,-0.876447,-0.548022,-1.10162,0
39510,-0.881086,-0.55283,-1.101,0
39530,-0.887886,-0.558366,-1.09833,0
39550,-0.89329,-0.56324,-1.0937,0
39570,-0.898324,-0.566752,-1.08623,0
39590,-0.904114,-0.569948,-1.07721,0
39610,-0.914251,-0.571331,-1.06643,0
39630,-0.92713,-0.570417,-1.05302,0
39650,-0.938761,-0.568409,-1.03761,0
39670,-0.948482,-0.567206,-1.02171,0
39690,-0.959055,-0.565642,-1.00529,0
39710,-0.97036,-0.562766,-0.987518,0
39730,-0.980508,-0.559615,-0.96839,0
39750,-0.990394,-0.556813,-0.948259,0
39770,-1.0022,-0.553592,-0.927378,0
39790,-1.01337,-0.549599,-0.905754,0
39810,-1.02395,-0.545247,-0.883081,0
39830,-1.03364,-0.54169,-0.860321,0
39850,-1.04395,-0.537182,-0.837451,0
39870,-1.05437,-0.532705,-0.81436,0
39890,-1.06358,-0.528118,-0.791507,0
39910,-1.07223,-0.523592,-0.768789,0
39930,-1.08123,-0.518949,-0.7461,0
39950,-1.09114,-0.513804,-0.723773,0
39970,-1.10197,-0.508058,-0.701716,0
39990,-1.11302,-0.50147,-0.680053,0
40010,-1.12448,-0.494955,-0.658312,0
40030,-1.1366,-0.488976,-0.637081,0
40050,-1.14941,-0.481987,-0.61681,0
40070,-1.1644,-0.473246,-0.596688,0
40080,-1.17978,-0.46417,-0.576909,0
40100,-1.19383,-0.456537,-0.558109,0
40120,-1.20795,-0.448569,-0.539772,0
40140,-1.22347,-0.440358,-0.522171,0
40160,-1.23808,-0.432954,-0.506988,0
40180,-1.25032,-0.428198,-0.493459,0
40200,-1.26001,-0.424729,-0.48193,0
40220,-1.27058,-0.420123,-0.471892,0
40240,-1.28019,-0.416039,-0.463336,0
40260,-1.28832,-0.415014,-0.456802,0
40280,-1.29427,-0.415643,-0.452119,0
40300,-1.29639,-0.417454,-0.450035,0
40320,-1.29323,-0.42369,-0.451444,0
40340,-1.28683,-0.434773,-0.454329,0
40360,-1.28052,-0.447098,-0.457269,0
40380,-1.2776,-0.458206,-0.462946,0
40400,-1.2763,-0.469107,-0.469803,0
40420,-1.27518,-0.481615,-0.477286,0
40440,-1.27096,-0.495051,-0.486408,0
40460,-1.26438,-0.509669,-0.498319,0
40480,-1.25981,-0.524129,-0.511204,0
40500,-1.25767,-0.536954,-0.523824,0
40520,-1.25655,-0.548643,-0.536802,0
40540,-1.25447,-0.560684,-0.552062,0
40560,-1.25112,-0.573693,-0.568208,0
40580,-1.24728,-0.586761,-0.584574,0
40600,-1.24252,-0.599609,-0.602111,0
40620,-1.238,-0.612744,-0.619365,0
40640,-1.23403,-0.626031,-0.636946,0
40660,-1.2299,-0.638959,-0.65523,0
40680,-1.225,-0.651086,-0.67369,0
40700,-1.21843,-0.663422,-0.69226,0
40720,-1.21137,-0.67616,-0.710038,0
40740,-1.20617,-0.688239,-0.728724,0
40760,-1.19944,-0.699618,-0.747824,0
40780,-1.19111,-0.711958,-0.766027,0
40800,-1.18175,-0.724007,-0.785235,0
40820,-1.17293,-0.734968,-0.804834,0
40840,-1.16183,-0.746241,-0.825051,0
40860,-1.15004,-0.757496,-0.844204,0
40880,-1.14009,-0.768615,-0.862177,0
40900,-1.13257,-0.77771,-0.880253,0
40920,-1.12469,-0.786152,-0.896393,0
40940,-1.11578,-0.795506,-0.911755,0
40960,-1.10924,-0.804179,-0.925268,0
40980,-1.1035,-0.812655,-0.935837,0
41000,-1.09699,-0.820678,-0.944883,0
41020,-1.09196,-0.827276,-0.950703,0
41040,-1.0913,-0.832727,-0.953131,0
41060,-1.09277,-0.837076,-0.952599,0
41080,-1.09882,-0.839499,-0.949027,0
41100,-1.10557,-0.840394,-0.941055,0
41120,-1.11425,-0.840263,-0.930115,0
41140,-1.12383,-0.838422,-0.91736,0
41160,-1.13537,-0.835888,-0.902269,0
41180,-1.14857,-0.832189,-0.884286,0
41200,-1.16211,-0.82824,-0.865813,0
41220,-1.17414,-0.82378,-0.846267,0
41240,-1.18633,-0.819021,-0.825356,0
41260,-1.19867,-0.813858,-0.80318,0
41280,-1.21042,-0.808465,-0.780639,0
41300,-1.22147,-0.803237,-0.758353,0
41320,-1.23301,-0.797843,-0.735064,0
41340,-1.24479,-0.791359,-0.711894,0
41360,-1.25571,-0.783876,-0.688937,0
41380,-1.26494,-0.776409,-0.66582,0
41400,-1.27536,-0.76993,-0.641942,0
41420,-1.28639,-0.762507,-0.617686,0
41440,-1.29832,-0.754706,-0.593175,0
41460,-1.312,-0.745856,-0.566908,0
41480,-1.32864,-0.736778,-0.538959,0
41500,-1.34684,-0.726854,-0.511825,0
41520,-1.36597,-0.716025,-0.484556,0
41540,-1.38513,-0.705432,-0.456235,0
41560,-1.40224,-0.696651,-0.428024,0
41580,-1.41989,-0.688332,-0.400717,0
41600,-1.43984,-0.678147,-0.373623,0
41620,-1.46098,-0.668097,-0.346677,0
41640,-1.47911,-0.660144,-0.321225,0
41660,-1.49532,-0.654206,-0.296794,0
41680,-1.50951,-0.650435,-0.27528,0
41700,-1.51926,-0.650121,-0.256921,0
41720,-1.52608,-0.652734,-0.240015,0
41740,-1.53213,-0.656416,-0.224957,0
41760,-1.54006,-0.659899,-0.21413,0
41780,-1.5476,-0.664145,-0.206048,0
41800,-1.55442,-0.670189,-0.200639,0
41820,-1.55744,-0.677899,-0.199446,0
41840,-1.55826,-0.687026,-0.200974,0
41860,-1.5577,-0.698068,-0.204005,0
41880,-1.55666,-0.710344,-0.209387,0
41900,-1.55546,-0.722706,-0.218137,0
41920,-1.55382,-0.7354,-0.229479,0
41940,-1.54978,-0.749077,-0.241216,0
41960,-1.54619,-0.763395,-0.254566,0
41980,-1.543,-0.777986,-0.271347,0
42000,-1.53739,-0.793321,-0.290046,0
42020,-1.5309,-0.80923,-0.3093,0
42040,-1.5241,-0.824539,-0.329895,0
42060,-1.51606,-0.841881,-0.352659,0
42080,-1.50507,-0.859921,-0.379163,0
42100,-1.49118,-0.876218,-0.406631,0
42120,-1.4763,-0.892967,-0.43687,0
42140,-1.45591,-0.910748,-0.471656,0
42160,-1.43301,-0.928408,-0.506792,0
42180,-1.41075,-0.943947,-0.541627,0
42200,-1.38908,-0.958264,-0.577862,0
42220,-1.36474,-0.971229,-0.619022,0
42240,-1.341,-0.982729,-0.655552,0
42260,-1.31934,-0.991257,-0.691015,0
42280,-1.30103,-0.997001,-0.723947,0
42300,-1.28631,-1.00189,-0.753149,0
42320,-1.27323,-1.00604,-0.778506,0
42340,-1.26245,-1.00758,-0.799603,0
42360,-1.25437,-1.00738,-0.814316,0
42380,-1.24772,-1.00724,-0.823944,0
42400,-1.24857,-1.00604,-0.829166,0
42420,-1.25614,-0.999872,-0.827789,0
42440,-1.26109,-0.992578,-0.821582,0
42460,-1.26804,-0.986377,-0.811007,0
42480,-1.28157,-0.979107,-0.79756,0
42500,-1.29943,-0.969693,-0.779562,0
42520,-1.31275,-0.960266,-0.760081,0
42540,-1.32617,-0.951973,-0.737504,0
42560,-1.34412,-0.94234,-0.71316,0
42580,-1.36422,-0.931302,-0.687704,0
42600,-1.38031,-0.920194,-0.661172,0
42620,-1.39605,-0.9095,-0.632081,0
42640,-1.41467,-0.898806,-0.602739,0
42660,-1.4353,-0.885735,-0.573154,0
42670,-1.45445,-0.87268,-0.543017,0
42690,-1.47263,-0.859663,-0.512119,0
42710,-1.49187,-0.846738,-0.481702,0
42730,-1.51012,-0.833141,-0.452937,0
42750,-1.52566,-0.820795,-0.425164,0
42770,-1.54049,-0.809247,-0.396916,0
42790,-1.55577,-0.798139,-0.36934,0
42810,-1.57162,-0.786881,-0.342945,0
42830,-1.58961,-0.775252,-0.316966,0
42850,-1.60762,-0.763857,-0.291537,0
42870,-1.62312,-0.754058,-0.267777,0
42890,-1.63823,-0.746428,-0.246364,0
42910,-1.65407,-0.74079,-0.226094,0
42930,-1.66742,-0.737364,-0.208089,0
42950,-1.67654,-0.737528,-0.192235,0
42970,-1.68436,-0.740527,-0.177683,0
42990,-1.69292,-0.745748,-0.164658,0
43010,-1.7005,-0.751968,-0.153269,0
43030,-1.70754,-0.758939,-0.143798,0
43050,-1.71463,-0.765827,-0.136412,0
43070,-1.72245,-0.77299,-0.130738,0
43090,-1.7294,-0.78089,-0.128276,0
43110,-1.73479,-0.789432,-0.127701,0
43130,-1.73727,-0.79906,-0.128654,0
43150,-1.74006,-0.810443,-0.131629,0
43170,-1.74318,-0.82183,-0.136923,0
43190,-1.74497,-0.83301,-0.142814,0
43210,-1.74481,-0.844712,-0.148902,0
43230,-1.74494,-0.856154,-0.156851,0
43250,-1.74494,-0.866218,-0.166278,0
43270,-1.74345,-0.875088,-0.175282,0
43290,-1.74126,-0.884022,-0.183877,0
43310,-1.74072,-0.892142,-0.192304,0
43330,-1.73969,-0.899286,-0.20071,0
43350,-1.73819,-0.9056,-0.206957,0
43370,-1.73746,-0.911538,-0.211927,0
43390,-1.7371,-0.917463,-0.215879,0
43410,-1.73934,-0.923148,-0.218141,0
43430,-1.74105,-0.927635,-0.220304,0
43450,-1.73635,-0.932318,-0.223255,0
43470,-1.72936,-0.937777,-0.226134,0
43490,-1.72466,-0.943674,-0.228434,0
43510,-1.72723,-0.948281,-0.228534,0
43530,-1.72593,-0.949329,-0.229162,0
43550,-1.72153,-0.952665,-0.228574,0
43570,-1.71859,-0.956321,-0.227076,0
43590,-1.7182,-0.958152,-0.22594,0
43610,-1.71851,-0.9584,-0.224422,0
43630,-1.71882,-0.957613,-0.223205,0
43650,-1.72001,-0.95713,-0.222453,0
43670,-1.72039,-0.95585,-0.222138,0
43690,-1.72088,-0.954346,-0.221234,0
43710,-1.7226,-0.952755,-0.220037,0
43730,-1.72509,-0.950679,-0.218511,0
43750,-1.72644,-0.948019,-0.21734,0
43770,-1.72712,-0.945967,-0.215315,0
43790,-1.72746,-0.944954,-0.213194,0
43810,-1.72845,-0.943386,-0.211493,0
43830,-1.7302,-0.94152,-0.209871,2001
43850,-1.73119,-0.939758,-0.208491,0
43870,-1.73162,-0.938023,-0.207433,0
43890,-1.73184,-0.936062,-0.207157,0
43910,-1.73099,-0.934263,-0.206951,0
43930,-1.72964,-0.933032,-0.207014,0
43950,-1.73043,-0.931693,-0.205577,0
43970,-1.73337,-0.930041,-0.203488,0
43990,-1.73626,-0.928153,-0.200597,0
44010,-1.73626,-0.927523,-0.196982,0
44030,-1.73659,-0.928193,-0.193199,0
44050,-1.73936,-0.928224,-0.18978,0
44070,-1.7402,-0.927442,-0.187274,0
44090,-1.73847,-0.927482,-0.184986,0
44110,-1.7375,-0.928379,-0.183026,0
44130,-1.73843,-0.927679,-0.182064,0
44150,-1.73981,-0.926839,-0.180923,0
44170,-1.73954,-0.925636,-0.179514,0
44190,-1.73943,-0.92548,-0.177392,0
44210,-1.73938,-0.925633,-0.176662,0
44230,-1.73873,-0.926436,-0.176522,0
44250,-1.73624,-0.92688,-0.175529,0
44270,-1.73259,-0.927663,-0.174055,0
44290,-1.72877,-0.928928,-0.174137,0
44310,-1.72374,-0.930343,-0.175192,0
44330,-1.71627,-0.931088,-0.178074,0
44350,-1.70659,-0.931383,-0.182534,0
44370,-1.69553,-0.931664,-0.187774,0
44390,-1.68456,-0.932052,-0.194637,0
44410,-1.67322,-0.930725,-0.203595,0
44430,-1.65918,-0.92859,-0.214775,0
44450,-1.64232,-0.927364,-0.225233,0
44470,-1.62317,-0.926796,-0.236117,0
44490,-1.60357,-0.925191,-0.249569,0
44510,-1.58043,-0.922344,-0.264886,0
44530,-1.55469,-0.919619,-0.279259,0
44550,-1.52734,-0.915968,-0.29466,0
44570,-1.49819,-0.910878,-0.313059,0
44590,-1.46836,-0.903405,-0.332803,0
44610,-1.43814,-0.895519,-0.351924,0
44630,-1.40573,-0.887524,-0.371774,0
44650,-1.37124,-0.876384,-0.392301,0
44670,-1.34212,-0.862985,-0.40909,0
44690,-1.31564,-0.849731,-0.423657,0
44710,-1.28669,-0.836538,-0.439643,0
44730,-1.25953,-0.821006,-0.454682,0
44750,-1.23608,-0.803852,-0.466049,0
44770,-1.21484,-0.78835,-0.474866,0
44790,-1.19353,-0.77268,-0.484813,0
44810,-1.17173,-0.755773,-0.496207,0
44830,-1.15139,-0.738324,-0.505741,0
44850,-1.13196,-0.721923,-0.51171,0
44870,-1.11215,-0.706553,-0.516846,0
44890,-1.0933,-0.689315,-0.522067,0
44910,-1.07728,-0.670564,-0.524699,0
44930,-1.0628,-0.652114,-0.524651,0
44950,-1.04678,-0.63501,-0.523313,0
44970,-1.02958,-0.619865,-0.522388,0
44990,-1.01272,-0.604982,-0.521139,0
45010,-0.997716,-0.590378,-0.516589,0
45030,-0.983768,-0.578469,-0.511224,0
45050,-0.968831,-0.568042,-0.506773,0
45070,-0.952826,-0.55945,-0.504306,0
45090,-0.937111,-0.551766,-0.500978,0
45110,-0.924353,-0.544445,-0.495777,0
45130,-0.912294,-0.536566,-0.491202,0
45150,-0.899814,-0.529404,-0.48831,0
45170,-0.889412,-0.523748,-0.485593,0
45190,-0.880664,-0.518017,-0.481496,0
45210,-0.87366,-0.511967,-0.478156,0
45230,-0.868622,-0.506382,-0.473977,0
45250,-0.866025,-0.501837,-0.468769,0
45260,-0.864566,-0.497419,-0.464326,0
45280,-0.864261,-0.493653,-0.460665,0
45300,-0.863959,-0.492156,-0.4571,0
45320,-0.862422,-0.492128,-0.453685,0
45340,-0.860734,-0.492702,-0.449909,0
45360,-0.860844,-0.493324,-0.445849,0
45380,-0.86155,-0.494371,-0.442225,0
45400,-0.863089,-0.495747,-0.439827,0
45420,-0.863812,-0.497382,-0.438751,0
45440,-0.864693,-0.498771,-0.438433,0
45460,-0.86715,-0.49917,-0.437633,0
45480,-0.870991,-0.498808,-0.436588,0
45500,-0.875823,-0.49815,-0.435953,0
45520,-0.880342,-0.497788,-0.435591,0
45540,-0.884124,-0.498249,-0.435385,0
45560,-0.888624,-0.498873,-0.43531,0
45580,-0.892063,-0.499374,-0.436472,0
45600,-0.893299,-0.50008,-0.43865,0
45620,-0.895068,-0.500578,-0.440048,0
45640,-0.898511,-0.50051,-0.440914,0
45660,-0.903045,-0.500181,-0.441054,0
45680,-0.907526,-0.500298,-0.440795,0
45700,-0.9123,-0.500862,-0.440121,0
45720,-0.916861,-0.501958,-0.439527,0
45740,-0.921214,-0.503048,-0.439593,0
45760,-0.924257,-0.503668,-0.440629,0
45780,-0.925453,-0.503425,-0.442802,0
45800,-0.926969,-0.502345,-0.444242,0
45820,-0.929016,-0.499736,-0.445105,0
45840,-0.930394,-0.495104,-0.447363,0
45860,-0.930542,-0.490701,-0.449492,0
45880,-0.931141,-0.486416,-0.450807,0
45900,-0.93161,-0.482241,-0.45159,0
45920,-0.931971,-0.478706,-0.451836,0
45940,-0.932814,-0.476798,-0.451394,0
45960,-0.933967,-0.476407,-0.450998,0
45980,-0.934267,-0.475749,-0.451391,0
46000,-0.933377,-0.475354,-0.452029,0
46020,-0.933214,-0.475136,-0.451951,0
46040,-0.933299,-0.474149,-0.452435,0
46060,-0.932917,-0.47299,-0.453877,0
46080,-0.933197,-0.471579,-0.455231,0
46100,-0.93459,-0.470217,-0.455974,0
46120,-0.935383,-0.470106,-0.456811,0
46140,-0.937887,-0.470475,-0.457981,0
46160,-0.942204,-0.470619,-0.458837,0
46180,-0.944972,-0.471569,-0.459864,0
46200,-0.945856,-0.473332,-0.460716,0
46220,-0.946683,-0.475439,-0.461713,0
46240,-0.948435,-0.476464,-0.462193,0
46260,-0.949486,-0.476428,-0.462233,0
46280,-0.950607,-0.476143,-0.46176,0
46300,-0.952197,-0.475189,-0.460838,0
46320,-0.955022,-0.473982,-0.458697,0
46340,-0.95851,-0.473227,-0.455152,0
46360,-0.960006,-0.473679,-0.452529,0
46380,-0.960985,-0.475014,-0.449515,0
46400,-0.962228,-0.476536,-0.446673,0
46420,-0.96135,-0.478244,-0.445227,0
46440,-0.958336,-0.481177,-0.445239,0
46460,-0.955406,-0.483402,-0.445486,0
46480,-0.954538,-0.483421,-0.4453,0
46500,-0.954942,-0.482193,-0.44537,0
46520,-0.955341,-0.480908,-0.444602,0
46540,-0.955774,-0.479358,-0.44329,0
46560,-0.956144,-0.47771,-0.443173,0
46580,-0.956994,-0.476565,-0.442114,0
46600,-0.958047,-0.476159,-0.440256,0
46620,-0.95914,-0.47577,-0.438596,0
46640,-0.960688,-0.475348,-0.437413,0
46660,-0.962519,-0.475358,-0.435804,0
46680,-0.964007,-0.475343,-0.434897,0
46700,-0.96548,-0.474721,-0.434416,0
46720,-0.967271,-0.474449,-0.434611,0
46740,-0.969695,-0.474579,-0.434402,0
46760,-0.971277,-0.474993,-0.434421,0
46780,-0.97209,-0.475627,-0.435809,0
46800,-0.972828,-0.475958,-0.437945,0
46820,-0.972736,-0.475583,-0.440083,0
46840,-0.971756,-0.475246,-0.442349,0
46860,-0.971454,-0.474161,-0.445616,0
46880,-0.972543,-0.472417,-0.448838,0
46900,-0.97381,-0.471235,-0.451993,0
46920,-0.974749,-0.470734,-0.454516,2000
46940,-0.975668,-0.469523,-0.456814,0
46960,-0.977597,-0.467491,-0.458767,0
46980,-0.980577,-0.465254,-0.459989,0
47000,-0.984634,-0.463181,-0.459332,0
47020,-0.988144,-0.46098,-0.457351,0
47040,-0.990452,-0.460049,-0.454802,0
47060,-0.993611,-0.459102,-0.451762,0
47080,-0.998496,-0.457212,-0.447825,0
47100,-1.00329,-0.455314,-0.444154,0
47120,-1.00699,-0.453449,-0.441256,0
47140,-1.00917,-0.452288,-0.438714,0
47160,-1.01183,-0.45171,-0.435717,0
47180,-1.01408,-0.451418,-0.431988,0
47200,-1.01713,-0.450785,-0.428213,0
47220,-1.01982,-0.450534,-0.424574,0
47240,-1.02197,-0.450875,-0.421287,0
47260,-1.02387,-0.451241,-0.417726,0
47280,-1.02619,-0.451791,-0.413973,0
47300,-1.02917,-0.452036,-0.410353,0
47320,-1.03336,-0.452543,-0.406246,0
47340,-1.03776,-0.452611,-0.402564,0
47360,-1.04066,-0.453441,-0.399018,0
47380,-1.04161,-0.455246,-0.396264,0
47400,-1.0432,-0.456845,-0.393552,0
47420,-1.048,-0.457044,-0.390134,0
47440,-1.05446,-0.455978,-0.38614,0
47460,-1.05821,-0.456105,-0.385327,0
47480,-1.05939,-0.457142,-0.387304,0
47500,-1.06198,-0.457807,-0.389869,0
47520,-1.06482,-0.457576,-0.394043,0
47540,-1.06594,-0.45916,-0.400687,0
47560,-1.06651,-0.462786,-0.40809,0
47580,-1.06812,-0.465381,-0.41485,0
47600,-1.07077,-0.466469,-0.420733,0
47620,-1.07172,-0.467543,-0.426298,0
47640,-1.07104,-0.470299,-0.431772,0
47660,-1.07055,-0.472601,-0.438745,0
47680,-1.0721,-0.474056,-0.445962,0
47700,-1.07382,-0.475748,-0.454091,0
47720,-1.07394,-0.477814,-0.46446,0
47740,-1.07553,-0.480188,-0.473708,0
47760,-1.07814,-0.482058,-0.48426,0
47780,-1.0821,-0.484008,-0.494558,0
47800,-1.0838,-0.48672,-0.50643,0
47820,-1.08624,-0.488903,-0.518104,0
47840,-1.08957,-0.491702,-0.529866,0
47850,-1.09135,-0.495211,-0.544318,0
47870,-1.09329,-0.49853,-0.55943,0
47890,-1.09437,-0.501934,-0.575603,0
47910,-1.09605,-0.505028,-0.591521,0
47930,-1.0967,-0.509487,-0.608876,0
47950,-1.09663,-0.513419,-0.625807,0
47970,-1.09725,-0.516902,-0.642279,0
47990,-1.09866,-0.52058,-0.65881,0
48010,-1.09858,-0.525129,-0.676613,0
48030,-1.09707,-0.529588,-0.696121,0
48050,-1.09514,-0.534067,-0.715877,0
48070,-1.09382,-0.537987,-0.735812,0
48090,-1.09245,-0.542092,-0.757166,0
48110,-1.08993,-0.546883,-0.780358,0
48130,-1.08601,-0.55098,-0.804978,0
48150,-1.08151,-0.55422,-0.829538,0
48170,-1.07585,-0.558596,-0.854435,0
48190,-1.06937,-0.562739,-0.880705,0
48210,-1.06399,-0.565542,-0.905425,0
48230,-1.06102,-0.567222,-0.928122,0
48250,-1.05728,-0.568451,-0.951238,0
48270,-1.05488,-0.56973,-0.973195,0
48290,-1.05378,-0.569882,-0.993692,0
48310,-1.0528,-0.569474,-1.01125,0
48330,-1.05118,-0.571814,-1.02685,0
48350,-1.05003,-0.575446,-1.04226,0
48370,-1.05287,-0.576856,-1.05341,0
48390,-1.05764,-0.577893,-1.05945,0
48410,-1.06072,-0.58105,-1.0629,0
48430,-1.06414,-0.584768,-1.06596,0
48450,-1.06928,-0.586601,-1.06599,0
48470,-1.07378,-0.586967,-1.06336,0
48490,-1.07758,-0.587416,-1.05911,0
48510,-1.08439,-0.587574,-1.05422,0
48530,-1.09176,-0.586371,-1.04883,0
48550,-1.09707,-0.583945,-1.04222,0
48570,-1.10276,-0.581713,-1.034,0
48590,-1.10902,-0.580477,-1.02653,0
48610,-1.11691,-0.577835,-1.01793,0
48630,-1.12457,-0.574302,-1.00855,0
48650,-1.13084,-0.571763,-0.99721,0
48670,-1.13722,-0.568927,-0.985745,0
48690,-1.14503,-0.564735,-0.974012,0
48710,-1.15343,-0.560585,-0.961028,0
48730,-1.16097,-0.556471,-0.94766,0
48750,-1.16682,-0.551751,-0.934482,0
48770,-1.17266,-0.546852,-0.920926,0
48790,-1.17981,-0.541506,-0.905753,0
48810,-1.18808,-0.535773,-0.889848,0
48830,-1.19489,-0.52926,-0.874662,0
48850,-1.19906,-0.524004,-0.859469,0
48870,-1.20437,-0.518755,-0.842763,0
48890,-1.21162,-0.512307,-0.825412,0
48910,-1.21895,-0.505357,-0.808694,0
48930,-1.22518,-0.498825,-0.791466,0
48950,-1.23127,-0.492492,-0.773855,0
48970,-1.23685,-0.485322,-0.757135,0
48990,-1.24115,-0.478142,-0.741557,0
49010,-1.2461,-0.471759,-0.72526,0
49030,-1.25084,-0.465237,-0.70896,0
49050,-1.25678,-0.457936,-0.693034,0
49070,-1.26246,-0.450775,-0.676794,0
49090,-1.26697,-0.44457,-0.659897,0
49110,-1.27171,-0.439282,-0.643098,0
49130,-1.27654,-0.434196,-0.626689,0
49150,-1.28184,-0.429317,-0.61057,0
49170,-1.28775,-0.42514,-0.594587,0
49190,-1.29415,-0.420979,-0.578612,0
49210,-1.30133,-0.416349,-0.563595,0
49230,-1.30912,-0.412178,-0.548954,0
49250,-1.31616,-0.40974,-0.534039,0
49270,-1.32237,-0.409034,-0.51972,0
49290,-1.32957,-0.40748,-0.505516,0
49310,-1.33816,-0.406145,-0.49045,0
49330,-1.3468,-0.406518,-0.476196,0
49350,-1.35349,-0.408847,-0.463497,0
49370,-1.35778,-0.41256,-0.451778,0
49390,-1.36225,-0.417603,-0.440662,0
49410,-1.36749,-0.423082,-0.43013,0
49430,-1.37344,-0.429309,-0.420729,0
49450,-1.37948,-0.435906,-0.41239,0
49470,-1.38415,-0.443589,-0.405359,0
49490,-1.38929,-0.453877,-0.398424,0
49510,-1.39533,-0.463867,-0.390465,0
49530,-1.40375,-0.473183,-0.381248,0
49550,-1.41242,-0.485003,-0.372174,0
49570,-1.42051,-0.499377,-0.363671,0
49590,-1.42815,-0.513692,-0.355816,0
49610,-1.4365,-0.526123,-0.349531,0
49630,-1.44514,-0.537991,-0.343673,0
49650,-1.45389,-0.551192,-0.339572,0
49670,-1.46183,-0.564046,-0.339944,0
49690,-1.46741,-0.575,-0.343788,0
49710,-1.47103,-0.58828,-0.350671,0
49730,-1.47346,-0.602995,-0.359187,0
49750,-1.47634,-0.61744,-0.36863,0
49770,-1.48061,-0.631035,-0.379421,0
49790,-1.48252,-0.645663,-0.391903,0
49810,-1.48252,-0.662099,-0.406955,0
49830,-1.48189,-0.677109,-0.42455,0
49850,-1.48184,-0.690226,-0.442002,0
49870,-1.48052,-0.704256,-0.461699,0
49890,-1.47616,-0.719218,-0.48455,0
49910,-1.47105,-0.732632,-0.509441,0
49930,-1.46574,-0.745236,-0.534309,0
49950,-1.46027,-0.758522,-0.558965,0
49970,-1.4525,-0.771764,-0.585994,0
49990,-1.44261,-0.78515,-0.612214,0
50010,-1.43384,-0.798738,-0.636646,0
50030,-1.42508,-0.812599,-0.661556,0
50050,-1.41543,-0.824587,-0.690481,0
50070,-1.40432,-0.833673,-0.716119,0
50090,-1.39477,-0.844383,-0.739276,0
50110,-1.38288,-0.854058,-0.765277,0
50130,-1.37056,-0.859108,-0.791445,0
50150,-1.36059,-0.861216,-0.81317,0
50170,-1.35168,-0.861746,-0.831143,0
50190,-1.34493,-0.861859,-0.847427,0
50210,-1.34177,-0.86069,-0.859884,0
50230,-1.33972,-0.857179,-0.868086,0
50250,-1.34027,-0.851992,-0.868928,0
50270,-1.34356,-0.846375,-0.867723,0
50290,-1.34909,-0.839073,-0.866963,0
50310,-1.35505,-0.830726,-0.859761,0
50330,-1.36083,-0.822587,-0.848401,0
50350,-1.36792,-0.814588,-0.83559,0
50370,-1.37958,-0.805966,-0.820699,0
50390,-1.38955,-0.797231,-0.802476,0
50410,-1.39521,-0.789758,-0.782981,0
50430,-1.40244,-0.781866,-0.762975,0
50440,-1.41261,-0.771228,-0.741677,0
50460,-1.42324,-0.759334,-0.718319,0
50480,-1.43301,-0.747839,-0.695416,0
50500,-1.4415,-0.735636,-0.673179,0
50520,-1.44887,-0.722981,-0.64986,0
50540,-1.45629,-0.710183,-0.627004,0
50560,-1.46609,-0.696851,-0.603106,0
50580,-1.47752,-0.683866,-0.579623,0
50600,-1.48712,-0.671181,-0.556608,0
50620,-1.4947,-0.659087,-0.532817,0
50640,-1.50479,-0.646883,-0.508545,0
50660,-1.51805,-0.634548,-0.485104,0
50680,-1.52976,-0.621878,-0.461788,0
50700,-1.54047,-0.610223,-0.438231,0
50720,-1.55123,-0.599717,-0.414546,0
50740,-1.56365,-0.590494,-0.390874,0
50760,-1.57459,-0.581966,-0.36716,0
50780,-1.58475,-0.574841,-0.343552,0
50800,-1.59376,-0.570258,-0.321491,0
50820,-1.60153,-0.56837,-0.300996,0
50840,-1.60923,-0.567569,-0.281904,0
50860,-1.61706,-0.567295,-0.264784,0
50880,-1.62522,-0.568519,-0.249349,0
50900,-1.63269,-0.572253,-0.235963,0
50920,-1.64,-0.577633,-0.224214,0
50940,-1.64845,-0.583403,-0.212913,0
50960,-1.65648,-0.59115,-0.203083,0
50980,-1.66362,-0.601417,-0.194003,0
51000,-1.67018,-0.613322,-0.186952,0
51020,-1.67614,-0.626659,-0.181849,0
51040,-1.68182,-0.641522,-0.175772,0
51060,-1.69062,-0.656691,-0.169983,0
51080,-1.70105,-0.671775,-0.164631,0
51100,-1.71103,-0.687591,-0.158603,0
51120,-1.7211,-0.704325,-0.153321,0
51140,-1.73172,-0.720755,-0.147861,0
51160,-1.74288,-0.738746,-0.144649,0
51180,-1.75159,-0.7556,-0.145656,0
51200,-1.75986,-0.771773,-0.146634,0
51220,-1.76793,-0.787983,-0.149728,0
51240,-1.77277,-0.803628,-0.157735,0
51260,-1.77532,-0.819258,-0.168245,0
51280,-1.77566,-0.834208,-0.18127,0
51300,-1.7737,-0.849053,-0.196926,0
51320,-1.77029,-0.864481,-0.214389,0
51340,-1.76533,-0.880388,-0.23304,0
51360,-1.7577,-0.897459,-0.253496,0
51380,-1.74821,-0.915684,-0.274714,0
51400,-1.73651,-0.934923,-0.297117,0
51420,-1.72273,-0.954059,-0.321965,0
51440,-1.70667,-0.971605,-0.348894,0
51460,-1.68852,-0.987808,-0.375753,0
51480,-1.66795,-1.004,-0.404294,0
51500,-1.64417,-1.01891,-0.436977,0
51520,-1.61568,-1.03044,-0.475513,0
51540,-1.58653,-1.03918,-0.51214,0
51560,-1.5562,-1.0474,-0.548927,0
51580,-1.52022,-1.05425,-0.591177,0
51600,-1.48201,-1.05796,-0.631279,0
51620,-1.4447,-1.06039,-0.66918,0
51640,-1.40854,-1.06067,-0.705279,0
51660,-1.37736,-1.05816,-0.736474,0
51680,-1.35052,-1.05299,-0.76256,0
51700,-1.32697,-1.04574,-0.782209,0
51720,-1.30968,-1.03648,-0.794968,0
51740,-1.30002,-1.02602,-0.800733,0
51760,-1.29564,-1.01505,-0.800712,0
51780,-1.29402,-1.00317,-0.795985,0
51800,-1.29612,-0.991143,-0.786233,0
51820,-1.30167,-0.978805,-0.772718,0
51840,-1.31019,-0.966788,-0.754611,0
51860,-1.32018,-0.955526,-0.735253,0
51880,-1.33143,-0.944387,-0.713497,0
51900,-1.34271,-0.933483,-0.688974,0
51920,-1.35567,-0.922755,-0.662833,0
51940,-1.37007,-0.91086,-0.635462,0
51960,-1.38747,-0.89803,-0.606579,0
51980,-1.40418,-0.885499,-0.577467,0
52000,-1.41964,-0.873843,-0.547741,0
52020,-1.43673,-0.861796,-0.516901,0
52040,-1.45502,-0.849291,-0.485911,0
52060,-1.47241,-0.837353,-0.454615,0
52080,-1.48939,-0.825933,-0.423743,0
52100,-1.50687,-0.814595,-0.392844,0
52120,-1.52464,-0.80409,-0.362691,0
52140,-1.54162,-0.794423,-0.333568,0
52160,-1.55874,-0.784569,-0.304392,0
52180,-1.57585,-0.775324,-0.275817,0
52200,-1.59402,-0.766778,-0.247678,0
52220,-1.61177,-0.758396,-0.221252,0
52240,-1.6286,-0.752018,-0.19623,0
52260,-1.6431,-0.74747,-0.172659,0
52280,-1.65596,-0.74516,-0.150245,0
52300,-1.6692,-0.745245,-0.12868,0
52320,-1.68321,-0.746156,-0.108319,0
52340,-1.69748,-0.749087,-0.0896428,0
52360,-1.70924,-0.753178,-0.0732753,0
52380,-1.71954,-0.75868,-0.0582551,0
52400,-1.73167,-0.763678,-0.0439105,0
52420,-1.74447,-0.769288,-0.030153,0
52440,-1.75735,-0.77655,-0.0183906,0
52460,-1.76883,-0.783828,-0.0071629,0
52480,-1.77959,-0.792988,0.00349165,0
52500,-1.78942,-0.802482,0.0142786,0
52520,-1.79946,-0.813274,0.0238849,0
52540,-1.80873,-0.823873,0.0332714,0
52560,-1.81864,-0.83489,0.0434181,0
52580,-1.82723,-0.844749,0.0519825,0
52600,-1.83593,-0.854297,0.0594082,0
52620,-1.84475,-0.862257,0.0673304,0
52640,-1.85312,-0.869689,0.0750318,0
52660,-1.8613,-0.876429,0.080494,0
52680,-1.86809,-0.882595,0.086683,0
52700,-1.87507,-0.889117,0.0929227,0
52720,-1.88166,-0.895257,0.097953,0
52740,-1.88845,-0.900896,0.103828,0
52760,-1.89478,-0.906238,0.109411,0
52780,-1.90126,-0.91089,0.114399,0
52800,-1.90631,-0.914481,0.116769,0
52820,-1.90907,-0.917552,0.118295,0
52840,-1.91275,-0.920702,0.119524,0
52860,-1.91621,-0.923289,0.118666,0
52880,-1.9177,-0.926611,0.116566,0
52900,-1.91733,-0.930165,0.115659,0
52920,-1.91899,-0.933843,0.115451,0
52940,-1.91973,-0.936303,0.113436,0
52960,-1.91994,-0.939051,0.110968,0
52980,-1.9196,-0.940553,0.109947,0
53000,-1.92004,-0.942544,0.109308,0
53020,-1.92026,-0.943708,0.106053,0
53030,-1.91952,-0.944701,0.102625,0
53050,-1.91846,-0.946863,0.101986,0
53070,-1.91947,-0.948525,0.10236,0
53090,-1.92048,-0.95019,0.102737,0
53110,-1.92157,-0.952427,0.104475,0
53130,-1.92416,-0.954718,0.106906,0
53150,-1.92588,-0.955085,0.109379,0
53170,-1.92787,-0.95433,0.114283,0
53190,-1.93068,-0.954618,0.11871,0
53210,-1.93395,-0.95539,0.12063,0
53230,-1.9344,-0.956337,0.120899,0
53250,-1.9343,-0.95858,0.123966,0
53270,-1.93174,-0.961138,0.12459,0
53290,-1.92882,-0.963343,0.12064,0
53310,-1.92292,-0.964305,0.112784,0
53330,-1.91608,-0.96508,0.105939,0
53350,-1.90846,-0.965131,0.0997103,0
53370,-1.90366,-0.96458,0.094941,0
53390,-1.90096,-0.962659,0.091498,0
53410,-1.90047,-0.959558,0.0894711,0
53430,-1.89985,-0.95777,0.0899084,0
53450,-1.90163,-0.957411,0.0955196,0
53470,-1.90308,-0.957747,0.10013,0
53490,-1.90479,-0.957166,0.105861,0
53510,-1.90715,-0.955789,0.112281,0
53530,-1.90955,-0.954848,0.11893,0
53550,-1.91276,-0.95347,0.125407,0
53570,-1.91633,-0.951507,0.132954,0
53590,-1.92064,-0.949783,0.139468,0
53610,-1.92416,-0.947656,0.145175,0
53630,-1.92878,-0.945959,0.152977,0
53650,-1.93431,-0.944209,0.162596,2001
53670,-1.94142,-0.943801,0.173232,0
53690,-1.95,-0.943709,0.18535,0
53710,-1.95982,-0.942507,0.199573,0
53730,-1.96914,-0.941007,0.212157,0
53750,-1.97789,-0.939777,0.22495,0
53770,-1.98653,-0.939257,0.236688,0
53790,-1.99471,-0.937824,0.246529,0
53810,-2.00233,-0.935965,0.255814,0
53830,-2.00911,-0.935046,0.264644,0
53850,-2.01498,-0.934723,0.272359,0
53870,-2.01981,-0.934026,0.277775,0
53890,-2.02197,-0.933246,0.279507,0
53910,-2.02248,-0.933082,0.278807,0
53930,-2.02314,-0.932883,0.27938,0
53950,-2.02402,-0.932648,0.279895,0
53970,-2.02393,-0.932761,0.279281,0
53990,-2.02374,-0.934166,0.279229,0
54010,-2.02209,-0.935629,0.279021,0
54030,-2.01948,-0.935883,0.277744,0
54050,-2.01676,-0.934826,0.276318,0
54070,-2.0129,-0.934648,0.272681,0
54090,-2.00653,-0.936374,0.266825,0
54110,-1.99565,-0.93988,0.257171,0
54130,-1.98247,-0.943284,0.244749,0
54150,-1.96711,-0.946703,0.229146,0
54170,-1.95261,-0.950685,0.215154,0
54190,-1.93767,-0.95493,0.200975,0
54210,-1.92247,-0.95909,0.184822,0
54230,-1.90603,-0.963833,0.168024,0
54250,-1.89095,-0.96813,0.155679,0
54270,-1.87916,-0.971556,0.14806,0
54290,-1.86753,-0.974662,0.140314,0
54310,-1.85243,-0.978165,0.130122,0
54330,-1.83398,-0.981752,0.115744,0
54350,-1.81279,-0.984574,0.0998397,0
54370,-1.78955,-0.984908,0.0808599,0
54390,-1.76606,-0.981633,0.0610767,0
54410,-1.74563,-0.978583,0.0444663,0
54430,-1.72879,-0.976125,0.0304703,0
54450,-1.71338,-0.973823,0.0174296,0
54470,-1.69656,-0.973567,0.00346576,0
54490,-1.67741,-0.973079,-0.0114217,0
54510,-1.65741,-0.971789,-0.0257667,0
54530,-1.63939,-0.970564,-0.0375121,0
54550,-1.62285,-0.969964,-0.048524,0
54570,-1.60599,-0.969623,-0.0594682,0
54590,-1.58849,-0.969419,-0.0696277,0
54610,-1.57297,-0.9704,-0.0776609,0
54630,-1.55736,-0.971166,-0.0853864,0
54650,-1.54496,-0.971825,-0.0906994,0
54670,-1.53466,-0.972028,-0.0941723,0
54690,-1.52726,-0.972011,-0.0955879,0
54710,-1.5225,-0.971692,-0.0950092,0
54730,-1.52074,-0.971399,-0.091596,0
54750,-1.52029,-0.971891,-0.0870845,0
54770,-1.52056,-0.973957,-0.0826341,0
54790,-1.52213,-0.975077,-0.0778227,0
54810,-1.52531,-0.974905,-0.0717531,0
54830,-1.5274,-0.975169,-0.065568,0
54850,-1.52902,-0.977029,-0.0599216,0
54870,-1.53106,-0.979916,-0.0549188,0
54890,-1.53278,-0.981067,-0.0500479,0
54910,-1.53556,-0.980695,-0.0428132,0
54930,-1.53824,-0.979801,-0.0352982,0
54950,-1.54119,-0.979183,-0.0279307,0
54970,-1.5415,-0.97935,-0.0237914,0
55020,-1.50338,-0.977645,-0.0461756,0
55040,-1.48633,-0.976888,-0.0589775,0
55060,-1.46785,-0.974887,-0.0733151,0
55080,-1.44879,-0.972734,-0.0882991,0
55100,-1.43028,-0.971439,-0.102816,0
55120,-1.41281,-0.970863,-0.117277,0
55140,-1.39657,-0.971335,-0.130732,0
55160,-1.3796,-0.971483,-0.145194,0
55180,-1.36394,-0.971345,-0.157627,0
55200,-1.35368,-0.971945,-0.164899,0
55220,-1.34572,-0.97487,-0.170955,0
55240,-1.33735,-0.978689,-0.17779,0
55260,-1.32792,-0.98227,-0.184192,0
55280,-1.3214,-0.985674,-0.187583,0
55300,-1.31797,-0.989575,-0.188642,0
55320,-1.3143,-0.993229,-0.190408,0
55340,-1.31099,-0.997603,-0.192018,0
55360,-1.30681,-1.00192,-0.193668,0
55380,-1.30399,-1.00414,-0.193544,0
55400,-1.30275,-1.00502,-0.191782,0
55420,-1.30017,-1.00603,-0.190591,0
55440,-1.29624,-1.00745,-0.191447,0
55460,-1.29293,-1.00849,-0.191843,0
55480,-1.29222,-1.00952,-0.189484,0
55500,-1.2918,-1.01063,-0.187048,0
55520,-1.29027,-1.01184,-0.185438,0
55540,-1.28998,-1.01361,-0.182886,0
55560,-1.29065,-1.01522,-0.180179,0
55580,-1.28987,-1.01642,-0.178498,0
55600,-1.28781,-1.01733,-0.178135,0
55610,-1.28641,-1.01794,-0.176748,0
55630,-1.28532,-1.01864,-0.175267,0
55650,-1.28361,-1.02034,-0.17482,0
55670,-1.2805,-1.0221,-0.176016,0
55690,-1.27701,-1.02364,-0.177161,0
55710,-1.27298,-1.02498,-0.177521,0
55730,-1.26731,-1.02546,-0.178219,0
55750,-1.2626,-1.02534,-0.17775,0
55770,-1.25902,-1.0255,-0.176015,0
55790,-1.25704,-1.02489,-0.172873,0
55810,-1.25394,-1.0245,-0.170293,0
55830,-1.24884,-1.02379,-0.169896,0
55850,-1.24482,-1.0228,-0.168409,0
55870,-1.2427,-1.0208,-0.165691,0
55890,-1.24079,-1.01852,-0.163808,0
55910,-1.24098,-1.01524,-0.161734,0
55930,-1.24132,-1.01308,-0.160394,0
55950,-1.23952,-1.01296,-0.162041,0
55970,-1.23741,-1.01252,-0.164129,0
55990,-1.23703,-1.0105,-0.163658,0
56010,-1.23941,-1.0071,-0.160264,0
56030,-1.24268,-1.00384,-0.15741,0
56050,-1.2442,-1.00093,-0.157483,0
56070,-1.24499,-0.99783,-0.157768,0
56090,-1.24424,-0.996052,-0.158081,0
56110,-1.24431,-0.992961,-0.15813,0
56130,-1.24423,-0.990085,-0.158559,0
56150,-1.2419,-0.98756,-0.160168,0
56170,-1.24023,-0.984848,-0.162236,0
56190,-1.23889,-0.982179,-0.165735,0
56210,-1.23566,-0.979824,-0.170814,0
56230,-1.23129,-0.978222,-0.178074,0
56250,-1.22531,-0.97851,-0.186681,0
56270,-1.21967,-0.97819,-0.194498,0
56290,-1.21563,-0.97687,-0.20107,0
56310,-1.21117,-0.975667,-0.207858,0
56330,-1.20784,-0.975301,-0.213076,0
56350,-1.20496,-0.975113,-0.218031,0
56370,-1.20057,-0.974424,-0.222805,0
56390,-1.19532,-0.974575,-0.227056,0
56410,-1.1919,-0.974357,-0.228939,0
56430,-1.19016,-0.973598,-0.228077,0
56450,-1.19093,-0.972485,-0.225106,0
56470,-1.19329,-0.970834,-0.22104,0
56490,-1.1967,-0.968797,-0.216465,0
56510,-1.2008,-0.966649,-0.211321,0
56530,-1.20479,-0.964969,-0.206689,0
56550,-1.20924,-0.963471,-0.201599,0
56570,-1.21372,-0.962162,-0.196551,0
56590,-1.21854,-0.961431,-0.191437,0
56610,-1.22217,-0.960992,-0.187926,0
56630,-1.22423,-0.961055,-0.186525,0
56650,-1.22445,-0.96185,-0.187262,0
56670,-1.22208,-0.962626,-0.189786,0
56690,-1.21665,-0.964049,-0.194647,0
56710,-1.20884,-0.965008,-0.201499,0
56730,-1.20007,-0.964956,-0.208494,0
56750,-1.19256,-0.964182,-0.214851,0
56770,-1.18599,-0.962662,-0.220722,0
56790,-1.17888,-0.960415,-0.22729,0
56810,-1.17038,-0.957552,-0.235933,0
56830,-1.16088,-0.954593,-0.24579,0
56850,-1.15156,-0.951569,-0.25501,0
56870,-1.14341,-0.948469,-0.263625,0
56890,-1.1347,-0.945699,-0.273804,0
56910,-1.126,-0.942498,-0.284306,0
56930,-1.11918,-0.938581,-0.293217,0
56950,-1.11531,-0.934078,-0.299532,0
56970,-1.11303,-0.930824,-0.304794,0
56990,-1.10864,-0.92849,-0.312606,0
57010,-1.10182,-0.926338,-0.32257,0
57030,-1.09327,-0.924744,-0.333894,0
57050,-1.0862,-0.922861,-0.343359,0
57070,-1.07979,-0.920477,-0.351636,0
57090,-1.07172,-0.918004,-0.360949,0
57110,-1.06166,-0.915326,-0.372319,0
57130,-1.05029,-0.912421,-0.385308,0
57150,-1.03924,-0.908655,-0.398219,0
57170,-1.02866,-0.904118,-0.410609,0
57190,-1.01805,-0.898927,-0.422272,0
57210,-1.00643,-0.89454,-0.434827,0
57230,-0.993113,-0.890625,-0.449269,0
57250,-0.979025,-0.886907,-0.464751,0
57270,-0.923164,-0.872519,-0.520283,0
57290,-0.910563,-0.869662,-0.532551,0
57310,-0.899222,-0.867328,-0.544616,0
57340,-0.83823,-0.839594,-0.597904,0
57350,-0.828304,-0.833742,-0.606707,0
57370,-0.817922,-0.828055,-0.614928,0
57390,-0.807676,-0.822255,-0.622075,0
57410,-0.797199,-0.816478,-0.628717,0
57430,-0.787067,-0.810651,-0.63498,0
57450,-0.778627,-0.804705,-0.640639,0
57470,-0.770288,-0.798705,-0.646425,0
57490,-0.762076,-0.79293,-0.651393,0
57510,-0.754996,-0.786471,-0.655132,0
57530,-0.749332,-0.77988,-0.656986,0
57550,-0.745877,-0.773914,-0.657971,0
57570,-0.742371,-0.768766,-0.660093,0
57590,-0.736526,-0.763521,-0.664208,0
57610,-0.730819,-0.757585,-0.667952,0
57630,-0.725513,-0.752392,-0.669968,0
57650,-0.720485,-0.748548,-0.671883,0
57670,-0.71544,-0.745141,-0.674129,0
57690,-0.710901,-0.741984,-0.675528,0
57710,-0.707172,-0.739108,-0.675547,0
57730,-0.703635,-0.735584,-0.674903,0
57750,-0.700281,-0.732205,-0.672294,0
57770,-0.697929,-0.730187,-0.667678,0
57790,-0.695037,-0.727983,-0.664649,0
57810,-0.690462,-0.724303,-0.663981,0
57830,-0.685528,-0.719004,-0.663172,0
57850,-0.681381,-0.713507,-0.660821,0
57870,-0.678424,-0.708389,-0.657772,0
57890,-0.678064,-0.703627,-0.65382,0
57910,-0.678904,-0.700366,-0.649217,0
57930,-0.680414,-0.698178,-0.645076,0
57950,-0.683847,-0.696687,-0.641223,0
57970,-0.688586,-0.696883,-0.637384,0
57990,-0.693358,-0.699264,-0.634047,0
58010,-0.698173,-0.703139,-0.630601,0
58030,-0.702704,-0.70849,-0.62792,0
58040,-0.706613,-0.715657,-0.625826,0
58060,-0.70961,-0.723246,-0.624572,0
58080,-0.711854,-0.73029,-0.622545,0
58100,-0.712419,-0.736544,-0.620132,0
58120,-0.712857,-0.742013,-0.616779,0
58140,-0.712979,-0.747144,-0.614178,0
58160,-0.713238,-0.751142,-0.612897,0
58180,-0.713159,-0.75404,-0.61226,0
58200,-0.711109,-0.756084,-0.613464,0
58220,-0.70758,-0.756661,-0.61533,0
58240,-0.70294,-0.756702,-0.616793,0
58260,-0.699691,-0.756261,-0.617734,0
58280,-0.69749,-0.755823,-0.617969,0
58300,-0.695389,-0.755257,-0.618753,0
58320,-0.693529,-0.754867,-0.619975,0
58340,-0.691029,-0.754651,-0.622501,0
58360,-0.688488,-0.75339,-0.624623,0
58380,-0.686639,-0.752316,-0.625892,0
58400,-0.686067,-0.751141,-0.626917,0
58420,-0.684846,-0.748937,-0.629091,0
58440,-0.682467,-0.745537,-0.631878,0
58460,-0.680242,-0.742714,-0.63368,0
58480,-0.678786,-0.741476,-0.634218,0
58500,-0.678105,-0.741813,-0.635022,0
58520,-0.677947,-0.742765,-0.636318,0
58540,-0.677116,-0.743357,-0.639324,0
58560,-0.676595,-0.7433,-0.642458,0
58580,-0.675356,-0.74219,-0.644907,0
58600,-0.673066,-0.740519,-0.64717,0
58620,-0.669799,-0.738786,-0.649934,0
58640,-0.667182,-0.737216,-0.65247,0
58660,-0.664992,-0.735927,-0.65456,0
58680,-0.663557,-0.737742,-0.656304,0
58700,-0.660605,-0.739917,-0.659108,0
58720,-0.656708,-0.742579,-0.662714,0
58740,-0.652,-0.74505,-0.666413,0
58760,-0.647148,-0.746451,-0.669773,0
58780,-0.643182,-0.746868,-0.671638,0
58800,-0.641548,-0.745997,-0.671053,0
58820,-0.641832,-0.744461,-0.668918,0
58840,-0.641789,-0.742002,-0.666873,0
58860,-0.641462,-0.739379,-0.666043,0
58880,-0.641808,-0.736617,-0.664821,0
58900,-0.642073,-0.734298,-0.663112,0
58910,-0.642043,-0.732899,-0.660928,0
58920,-0.641535,-0.732473,-0.659562,0
58930,-0.640494,-0.732617,-0.658736,0
58950,-0.639202,-0.733951,-0.658321,0
58970,-0.638279,-0.735797,-0.658077,0
58990,-0.63748,-0.737339,-0.657952,0
59010,-0.636521,-0.738406,-0.657872,0
59030,-0.635322,-0.739024,-0.657969,0
59050,-0.633903,-0.738793,-0.658254,0
59070,-0.632466,-0.737981,-0.658502,0
59090,-0.630345,-0.736647,-0.659538,0
59110,-0.628011,-0.734979,-0.660979,0
59130,-0.624698,-0.733075,-0.663538,0
59150,-0.620972,-0.730918,-0.666281,0
59170,-0.617654,-0.729175,-0.668583,0
59190,-0.614289,-0.727554,-0.671244,0
59210,-0.610984,-0.726315,-0.673761,0
59230,-0.607468,-0.725245,-0.676907,0
59250,-0.603511,-0.724601,-0.680893,0
59270,-0.599896,-0.72456,-0.684638,0
59290,-0.596613,-0.724879,-0.687911,0
59310,-0.594049,-0.725296,-0.690656,0
59330,-0.5926,-0.725752,-0.692629,0
59350,-0.592966,-0.726039,-0.693237,0
59370,-0.594545,-0.726457,-0.693176,0
59390,-0.596904,-0.726683,-0.692815,0
59410,-0.599069,-0.726775,-0.692668,0
59430,-0.600567,-0.72702,-0.692927,0
59450,-0.601549,-0.727747,-0.693563,0
59470,-0.602105,-0.728552,-0.6942,0
59490,-0.602502,-0.729363,-0.694681,0
59510,-0.602695,-0.730371,-0.695191,0
59530,-0.602373,-0.73128,-0.696024,0
59550,-0.601792,-0.732177,-0.697445,0
59570,-0.600636,-0.732487,-0.699083,0
59590,-0.59902,-0.732125,-0.700614,0
59610,-0.597548,-0.731148,-0.701572,0
59630,-0.596444,-0.729898,-0.701804,0
59650,-0.595052,-0.728421,-0.702141,0
59670,-0.593595,-0.726593,-0.702368,0
59690,-0.591954,-0.724657,-0.703226,0
59710,-0.590285,-0.722757,-0.703846,0
59730,-0.588939,-0.720779,-0.70393,0
59750,-0.58768,-0.719226,-0.703939,0
59770,-0.586108,-0.717752,-0.704478,0
59790,-0.584826,-0.716707,-0.704728,0
59810,-0.584081,-0.716148,-0.704538,0
59830,-0.583767,-0.716142,-0.704219,0
59850,-0.583402,-0.7161,-0.703851,0
59870,-0.583103,-0.71661,-0.703409,0
59890,-0.582834,-0.717103,-0.703209,0
59910,-0.583325,-0.717536,-0.702711,0
59930,-0.583531,-0.717744,-0.702317,0
59950,-0.584037,-0.718046,-0.701818,0
59970,-0.584243,-0.718051,-0.701606,0
59990,-0.584339,-0.718342,-0.701531,0
60010,-0.584516,-0.718853,-0.701563,0
60030,-0.584992,-0.719256,-0.701672,0
60050,-0.585389,-0.719886,-0.701734,0
60070,-0.584761,-0.720891,-0.702493,0
60090,-0.584212,-0.721874,-0.70312,0
60110,-0.584502,-0.722748,-0.702894,0
60130,-0.585909,-0.724317,-0.701771,0
60150,-0.587247,-0.72656,-0.700659,0
60170,-0.588627,-0.729015,-0.700021,0
60190,-0.590661,-0.730531,-0.698429,0
60210,-0.592401,-0.731419,-0.696029,0
60230,-0.593535,-0.732872,-0.693298,0
60250,-0.59499,-0.734084,-0.690638,0
60270,-0.59686,-0.735172,-0.688577,0
60290,-0.597455,-0.735582,-0.687933,0
60310,-0.596835,-0.736036,-0.687363,0
60330,-0.595567,-0.736702,-0.687015,0
60350,-0.59418,-0.736914,-0.687359,0
60370,-0.593165,-0.736544,-0.687583,0
60390,-0.592361,-0.73618,-0.687592,0
60410,-0.591915,-0.735919,-0.68712,0
60430,-0.592472,-0.735334,-0.686125,0
60450,-0.593449,-0.73503,-0.685363,0
60470,-0.594482,-0.734644,-0.684655,0
60490,-0.596093,-0.734841,-0.68373,0
60510,-0.597337,-0.73504,-0.682865,0
60530,-0.598117,-0.735731,-0.68201,0
60550,-0.598844,-0.736749,-0.68134,0
60570,-0.599163,-0.737626,-0.6811,0
60580,-0.598935,-0.738715,-0.681612,0
60600,-0.598166,-0.739361,-0.681975,0
60620,-0.597087,-0.740251,-0.682266,0
60640,-0.595869,-0.74091,-0.682826,0
60660,-0.594937,-0.740672,-0.683586,0
60680,-0.5943,-0.740169,-0.683752,0
60700,-0.59341,-0.739829,-0.683899,0
60720,-0.59251,-0.739039,-0.683988,0
60740,-0.591411,-0.737869,-0.684049,0
60760,-0.590437,-0.736821,-0.683606,0
60780,-0.589667,-0.735574,-0.683131,0
60800,-0.589487,-0.734198,-0.68238,0
60820,-0.589841,-0.732992,-0.681122,0
60840,-0.590708,-0.731882,-0.679542,0
60860,-0.592347,-0.730911,-0.677479,0
60880,-0.593799,-0.729913,-0.675874,0
60900,-0.595369,-0.730231,-0.674297,0
60920,-0.597593,-0.731546,-0.671762,0
60940,-0.599549,-0.732801,-0.668725,0
60960,-0.600696,-0.733401,-0.666309,0
60980,-0.598774,-0.73233,-0.665795,0
61000,-0.596724,-0.729087,-0.664559,0
61020,-0.595694,-0.723417,-0.66142,0
61040,-0.594429,-0.715262,-0.65686,0
61060,-0.592833,-0.707069,-0.651819,0
61080,-0.591399,-0.69873,-0.646177,0
61100,-0.58921,-0.691224,-0.640915,0
61120,-0.586792,-0.683776,-0.635274,0
61140,-0.584802,-0.678491,-0.629014,0
61160,-0.583481,-0.675198,-0.622159,0
61180,-0.583413,-0.673445,-0.614058,0
61200,-0.585662,-0.67437,-0.604783,0
61220,-0.589263,-0.675767,-0.596045,0
61240,-0.593641,-0.677199,-0.588048,0
61260,-0.597207,-0.680017,-0.579575,0
61280,-0.600997,-0.684639,-0.570997,0
61300,-0.605863,-0.689332,-0.562964,0
61320,-0.610206,-0.693251,-0.55595,0
61340,-0.614693,-0.695705,-0.549289,0
61360,-0.620411,-0.696481,-0.54312,0
61380,-0.626467,-0.694465,-0.535904,0
61400,-0.63404,-0.692486,-0.526798,0
61420,-0.642071,-0.690338,-0.518641,0
61440,-0.648382,-0.68666,-0.513707,0
61460,-0.65405,-0.681594,-0.509026,0
61480,-0.658748,-0.677762,-0.503278,0
61500,-0.660928,-0.675232,-0.499269,0
61520,-0.661816,-0.672605,-0.496808,0
61540,-0.66353,-0.6692,-0.493735,0
61560,-0.666192,-0.666001,-0.490025,0
61580,-0.66747,-0.663189,-0.486472,0
61600,-0.667691,-0.661788,-0.483597,0
61620,-0.669007,-0.661172,-0.480689,0
61640,-0.672771,-0.659258,-0.476545,0
61660,-0.676221,-0.65828,-0.472318,0
61680,-0.677301,-0.657749,-0.470162,0
61700,-0.677019,-0.656317,-0.469591,0
61720,-0.676865,-0.654448,-0.46885,0
61740,-0.677138,-0.652229,-0.46822,0
61760,-0.677539,-0.648875,-0.468356,0
61780,-0.677563,-0.644804,-0.469041,0
61800,-0.677945,-0.641388,-0.469364,0
61820,-0.679915,-0.638143,-0.47008,0
61840,-0.682357,-0.63416,-0.470272,0
61860,-0.685189,-0.631313,-0.470251,0
61880,-0.688683,-0.629489,-0.470494,0
61900,-0.691361,-0.62739,-0.47171,0
61920,-0.692891,-0.624952,-0.473387,0
61940,-0.69399,-0.622685,-0.474212,0
61960,-0.695161,-0.620045,-0.475377,0
61980,-0.695799,-0.617144,-0.477959,0
62000,-0.697181,-0.6149,-0.480194,0
62020,-0.699479,-0.612873,-0.481219,0
62040,-0.701379,-0.610858,-0.482608,0
62060,-0.70263,-0.60826,-0.483464,0
62080,-0.703175,-0.606724,-0.484519,0
62100,-0.703759,-0.605061,-0.4862,0
62120,-0.705403,-0.602096,-0.487155,0
62140,-0.707904,-0.598769,-0.486254,0
62160,-0.709709,-0.595614,-0.485386,0
62180,-0.711023,-0.591994,-0.486358,0
62200,-0.714068,-0.585874,-0.487382,0
62220,-0.718184,-0.580735,-0.486364,0
62240,-0.723496,-0.575676,-0.483655,0
62260,-0.727146,-0.57087,-0.480386,0
62280,-0.729373,-0.567754,-0.478072,0
62300,-0.731579,-0.564643,-0.474855,0
62320,-0.734068,-0.561337,-0.470375,0
62340,-0.736691,-0.558726,-0.465539,0
62360,-0.738418,-0.556677,-0.461131,0
62380,-0.740413,-0.554623,-0.456832,0
62400,-0.743072,-0.552928,-0.452226,0
62420,-0.746932,-0.551639,-0.446765,0
62440,-0.750417,-0.550247,-0.441688,0
62460,-0.752795,-0.550337,-0.438316,0
62480,-0.753819,-0.551491,-0.437398,0
62500,-0.753702,-0.553099,-0.437718,0
62520,-0.75396,-0.555571,-0.437268,0
62540,-0.753443,-0.558202,-0.438338,0
62560,-0.753174,-0.561799,-0.440469,0
62580,-0.753422,-0.566365,-0.443764,0
62600,-0.754278,-0.570372,-0.446574,0
62620,-0.754356,-0.574385,-0.450262,0
62640,-0.753034,-0.578317,-0.454792,0
62660,-0.751722,-0.582197,-0.460123,0
62680,-0.752592,-0.585623,-0.465225,0
62700,-0.753983,-0.588496,-0.471388,0
62720,-0.753223,-0.591946,-0.47953,0
62740,-0.751156,-0.596904,-0.488086,0
62760,-0.749356,-0.601239,-0.496595,0
62780,-0.747579,-0.605207,-0.505471,0
62800,-0.743789,-0.610223,-0.514998,0
62820,-0.740641,-0.616121,-0.522642,0
62840,-0.739988,-0.621396,-0.528086,0
62860,-0.74016,-0.626944,-0.5313,0
62880,-0.74011,-0.632943,-0.533273,0
62900,-0.741495,-0.639145,-0.532995,0
62920,-0.743658,-0.644554,-0.530912,0
62940,-0.744875,-0.649825,-0.528462,0
62960,-0.744572,-0.65403,-0.527033,0
62980,-0.746207,-0.656188,-0.522292,0
63000,-0.750159,-0.657833,-0.513643,0
63020,-0.755099,-0.659643,-0.503721,0
63040,-0.760233,-0.660485,-0.495171,0
63060,-0.761904,-0.661093,-0.488948,0
63080,-0.760935,-0.660198,-0.484262,0
63100,-0.760706,-0.657863,-0.479752,0
63120,-0.760836,-0.654589,-0.474116,0
63140,-0.761453,-0.649094,-0.470446,0
63160,-0.759966,-0.640412,-0.468968,0
63180,-0.757856,-0.631441,-0.467911,0
63190,-0.756938,-0.622494,-0.467441,0
63210,-0.757888,-0.611276,-0.466243,0
63230,-0.758417,-0.601375,-0.465234,0
63250,-0.757526,-0.593708,-0.465357,0
63270,-0.755645,-0.586857,-0.465916,0
63290,-0.754692,-0.581198,-0.46594,0
63310,-0.754023,-0.576981,-0.466221,0
63330,-0.752717,-0.572658,-0.467339,0
63350,-0.75162,-0.569042,-0.467734,0
63370,-0.751623,-0.566447,-0.468053,0
63390,-0.75158,-0.563281,-0.469552,0
63410,-0.751803,-0.559689,-0.471415,0
63430,-0.752845,-0.557666,-0.471894,0
63450,-0.754414,-0.556095,-0.472965,0
63470,-0.756147,-0.553391,-0.474133,0
63490,-0.756013,-0.551552,-0.475894,0
63510,-0.755187,-0.550853,-0.479533,0
63530,-0.755421,-0.549262,-0.482478,0
63550,-0.756263,-0.547824,-0.484384,0
63570,-0.756866,-0.54668,-0.486508,0
63590,-0.757764,-0.544535,-0.48952,0
63610,-0.758896,-0.542116,-0.491764,0
63630,-0.759007,-0.540465,-0.493149,0
63650,-0.758769,-0.539303,-0.496186,0
63670,-0.759431,-0.537174,-0.499105,0
63690,-0.76007,-0.535306,-0.500527,0
63710,-0.760426,-0.534128,-0.501855,0
63730,-0.761682,-0.532098,-0.503923,0
63750,-0.764397,-0.52917,-0.505548,0
63770,-0.766811,-0.526322,-0.507038,0
63790,-0.768327,-0.523795,-0.50721,0
63810,-0.768543,-0.521545,-0.506893,0
63830,-0.769116,-0.518634,-0.506394,0
63850,-0.770552,-0.514927,-0.505559,0
63870,-0.772714,-0.510637,-0.504391,0
63890,-0.773718,-0.506844,-0.502831,0
63910,-0.772902,-0.503493,-0.500903,0
63930,-0.772157,-0.500877,-0.499054,0
63950,-0.772186,-0.498561,-0.497571,0
63970,-0.772282,-0.49633,-0.495632,0
63990,-0.772084,-0.494607,-0.493795,0
64010,-0.771247,-0.493489,-0.49288,0
64030,-0.770698,-0.49244,-0.491897,0
64050,-0.770913,-0.491802,-0.491245,0
64070,-0.770913,-0.491802,-0.491245,0
64090,-0.770913,-0.491802,-0.491245,0
64110,-0.771643,-0.492551,-0.491118,0
64130,-0.771574,-0.493585,-0.491656,0
64150,-0.771608,-0.49464,-0.492462,0
64170,-0.771978,-0.495358,-0.492832,0
64190,-0.772877,-0.496024,-0.493915,0
64210,-0.774705,-0.49678,-0.495052,0
64230,-0.775868,-0.49716,-0.496809,0
64250,-0.775953,-0.498256,-0.499704,0
64270,-0.775781,-0.499523,-0.503162,0
64290,-0.775505,-0.501417,-0.506893,0
64310,-0.776094,-0.503688,-0.510728,0
64330,-0.776993,-0.50641,-0.514444,0
64350,-0.776531,-0.510151,-0.518131,0
64370,-0.775932,-0.51399,-0.521858,0
64390,-0.776037,-0.518063,-0.524011,0
64410,-0.776285,-0.522839,-0.525822,0
64430,-0.77597,-0.527773,-0.52722,0
64450,-0.775759,-0.532512,-0.527553,0
64470,-0.77598,-0.536934,-0.525921,0
64490,-0.77547,-0.54114,-0.523597,0
64510,-0.77573,-0.544871,-0.521067,0
64530,-0.776852,-0.547341,-0.517537,0
64550,-0.778281,-0.548464,-0.513545,0
64570,-0.779045,-0.548822,-0.509592,0
64590,-0.779588,-0.548014,-0.505702,0
64610,-0.782478,-0.545696,-0.502051,0
64630,-0.783648,-0.542796,-0.497918,0
64650,-0.784529,-0.539889,-0.493699,0
64670,-0.78545,-0.535875,-0.490008,0
64690,-0.786775,-0.530605,-0.486556,0
64710,-0.786185,-0.525491,-0.483987,0
64730,-0.785456,-0.521354,-0.481559,0
64750,-0.785593,-0.516828,-0.480285,0
64770,-0.785966,-0.510834,-0.478604,0
64790,-0.786551,-0.505548,-0.475934,0
64810,-0.787187,-0.501391,-0.473898,0
64830,-0.786987,-0.496505,-0.474141,0
64850,-0.786446,-0.492936,-0.474201,0
64870,-0.785831,-0.490234,-0.474125,0
64890,-0.7851,-0.486506,-0.474875,0
64910,-0.785058,-0.483111,-0.475543,0
64930,-0.785704,-0.480224,-0.475921,0
64950,-0.786018,-0.477425,-0.477626,0
64970,-0.785358,-0.474802,-0.479813,0
64990,-0.784643,-0.473455,-0.480944,0
65010,-0.78396,-0.472358,-0.482041,0
65030,-0.783711,-0.470354,-0.483792,0
65050,-0.783927,-0.469161,-0.485802,0
65070,-0.783025,-0.468917,-0.488294,0
65090,-0.782546,-0.468666,-0.489875,0
65110,-0.782597,-0.468079,-0.491233,0
65130,-0.783037,-0.467758,-0.492583,0
65150,-0.783778,-0.467274,-0.493937,0
65170,-0.783175,-0.467115,-0.495535,0
