Timestamp, Rotation x, Rotation y, Rotation z, Marker
50,-2.6875,0.4375,2.5625,0
70,0.375,0.25,3.9375,0
90,1.8125,1,5.3125,0
110,-0.875,2.75,5.75,0
130,-1.4375,2.875,6.875,0
150,-1.4375,2.4375,7.125,0
150,-0.5,0,7.3125,0
190,1.4375,-0.75,7.0625,0
210,2,-0.3125,6.0625,0
230,1.125,-0.9375,4.6875,0
250,0.75,-1.75,2.8125,0
270,0.6875,-2.75,0.25,0
290,0.9375,-2.0625,-1.125,0
310,1.4375,0,-0.875,0
330,2.125,0.0625,-0.3125,0
350,1.4375,-0.875,0.8125,0
370,-0.5,-0.6875,1.25,0
390,-2.0625,-0.3125,2.125,0
410,-2.0625,-0.25,3.625,0
430,0.6875,-1.5625,5,0
450,-0.375,-1.875,5.4375,0
470,-3.5,-1.125,5.3125,0
490,-1.8125,0.5,5.625,0
510,1.75,0.4375,5.8125,0
530,3.5625,-0.5,5.8125,0
550,2.25,-0.4375,4.3125,0
570,-0.6875,0.75,2.1875,0
590,1.4375,2.625,2.25,0
610,7,2.75,4.25,0
630,10.75,4.1875,4.5,0
650,7.3125,4.5625,4.5625,0
670,0.5,4.75,0.5625,0
690,-1.8125,4.9375,-2.6875,0
710,1.375,3.625,-1.6875,0
730,5.375,1.3125,-0.8125,0
750,3.5625,0,-2.1875,0
770,0.375,-2.3125,-2.6875,0
790,-1.5,-1.1875,-0.8125,0
810,-2,-1.5625,-0.5,0
830,-2.6875,-2.5625,0.1875,0
850,-3.375,-4.3125,0.8125,0
870,-4.875,-5.1875,-0.4375,0
890,-4.625,-5.1875,-0.3125,0
910,-2.375,-3.5,1.875,0
930,-2.625,-4.25,2,0
950,-2.1875,-7.125,0.3125,0
970,3.625,-9.8125,0.1875,0
990,0.8125,-8.9375,-2.1875,0
1010,-1.5,-7.8125,-3,0
1030,-6.4375,-6.9375,-2.5,0
1050,0.875,-5.375,-2.625,0
1070,1.5625,-2.25,-3.5625,0
1090,11.625,-2.5,-4.5625,0
1110,7.125,-1.875,-3.625,0
1130,4.25,-1.75,-3.9375,0
1150,0.0625,-2.5625,-7.6875,0
1170,0.3125,-1,-5.9375,0
1190,0.6875,0.4375,-3.4375,0
1210,-0.25,0.75,-0.3125,0
1230,-1.3125,0,2.6875,0
1250,-0.9375,0.875,4.9375,0
1270,5.875,-0.5,7.875,0
1280,9,-1.5,9.5,0
1300,8.4375,-5.4375,6.4375,0
1320,7.0625,-6.625,1.4375,0
1340,10.1875,-7.1875,-1.125,0
1360,11.5,-3.9375,-2.8125,0
1380,9.375,2.875,-4,0
1400,4.125,2.25,-6.375,0
1420,2.375,2.625,-8.3125,0
1440,4.625,1.9375,-7.9375,0
1460,3.5625,2.75,-5.25,0
1480,3.4375,0.1875,-0.4375,0
1500,2.8125,-0.9375,3.25,0
1520,1,-3.75,3.875,0
1540,3.5625,-3.8125,3.8125,0
1560,1.1875,-2.875,2.875,0
1580,-3.5625,-1.6875,1.3125,0
1600,0.1875,-2.625,2,0
1620,4.6875,-6.5625,4.6875,0
1640,7.5,-7,7,0
1660,9.4375,-8,10.0625,0
1680,6.8125,-6.6875,7.5,0
1700,3.9375,-4.8125,4.3125,0
1720,2.6875,-5.4375,2.4375,0
1740,5.5,-5.75,0.9375,0
1760,2.8125,-5.375,0.5,0
1780,4.1875,-7.125,-0.4375,0
1800,2.375,-6.5,-2.125,0
1820,1.125,-5.8125,-2.9375,0
1840,0.4375,-5,-1.9375,0
1860,2.25,-4.3125,-0.5625,0
1880,1,-5.125,2.1875,0
1900,1.0625,-5.4375,4.1875,0
1920,-0.0625,-2.9375,6.75,0
1940,0,-2.75,8.25,0
1960,2.0625,-3.1875,7.125,0
1980,3.0625,-2.5625,7.0625,0
2000,2,-1.6875,8.125,0
2020,-1.5,-0.1875,8.5,0
2040,-2.5,2.625,8,0
2060,-3.1875,5.375,6.75,0
2080,-3.25,7.5,5.375,0
2100,-2.25,9.5625,3.8125,0
2120,-0.875,11.25,4.875,0
2140,-1.625,12.8125,6.75,0
2160,-1.8125,14.0625,8,0
2180,-0.125,16.5,10.6875,0
2200,3.75,17.0625,13.375,0
2220,7.1875,17.375,16.1875,0
2240,8.125,18.9375,18.6875,0
2260,5.5625,20.375,20.3125,0
2280,5.9375,22.125,21.0625,0
2300,10.5,26.8125,23.6875,0
2320,17.3125,34.8125,26.4375,0
2340,25.875,40.375,29.3125,0
2360,31.5,44.8125,36.875,0
2380,35.5625,47.9375,42.1875,0
2400,37.5625,54.125,43.375,0
2420,34.1875,65.625,45.6875,0
2440,33.3125,77.5,51.1875,0
2460,36.375,81.75,57.875,0
2480,35.9375,83.875,65.5625,0
2500,28.1875,96.625,76.4375,0
2520,22.9375,104.562,90,0
2540,31.375,105.438,92,0
2560,27.3125,107.75,93,0
2580,-1.25,112,97.9375,0
2600,-24.375,112,104.312,0
2620,-39.0625,111,112.25,0
2640,-43.5,107.5,117.875,0
2660,-40,100.562,124.5,0
2680,-36.1875,86.8125,131.312,0
2700,-30.1875,70.4375,131.062,0
2720,-22.1875,55.9375,127.75,0
2740,-12.25,47.75,125.562,0
2760,-19.5625,46.125,122,0
2780,-34.3125,43.1875,115.5,0
2800,-44.1875,36.625,119.688,0
2820,-45.3125,27.9375,131.125,0
2840,-48.6875,24.75,153,0
2860,-45.5625,32.9375,168.875,0
2880,-50.0625,51.25,183.25,0
2900,-75.1875,58.375,155.625,0
2920,-86.5,63.875,-1.8125,0
2940,-44.9375,19.875,-166.875,0
2960,98.6875,-12.9375,-35.3125,0
2980,198.062,-28.6875,49.125,0
3000,163.25,-26.375,32,0
3020,60.4375,-25.9375,24.875,0
3040,-42,-36.8125,3.5,0
3060,-108.688,-38.0625,-19.9375,0
3080,-132.5,-34.625,-13.4375,0
3100,-99.1875,-30.9375,3.5625,0
3120,-44,-47.5,12.25,0
3140,-4.1875,-56.8125,18.75,0
3160,-5.875,-47.0625,19.1875,0
3180,-28.0625,-37.9375,17.3125,0
3200,-38.9375,-39.25,22.875,0
3220,-49.3125,-40,36.0625,0
3240,-57.75,-34.625,41.75,0
3260,-61.6875,-27.25,41.375,0
3280,-58.1875,-24.25,36.3125,0
3290,-65.5625,-25.875,34.5,0
3310,-70.75,-32.625,40.75,0
3330,-67.1875,-40.1875,47.5,0
3350,-72.375,-47.3125,54.625,0
3370,-70.8125,-51.125,65,0
3390,-60.875,-51.125,76.0625,0
3410,-53.625,-30.6875,64.5625,0
3430,-22.625,9.625,20.875,0
3450,8.25,28,-15.6875,0
3470,60.625,22.875,-20.8125,0
3490,63.8125,13.875,-22.125,0
3510,47,3.0625,-22.875,0
3530,40.0625,-4.4375,-11.4375,0
3550,39.5,-8,10.0625,0
3570,28.4375,-4.6875,9.9375,0
3590,6,1.5625,7.625,0
3610,-16.8125,6.75,3.0625,0
3630,-28.5,7.9375,-2.8125,0
3650,-18.6875,7,-3.5625,0
3670,-7.75,9.5625,1.125,0
3690,2.5625,11.875,4.6875,0
3710,9.75,12.75,2.8125,0
3730,11.875,12.625,2,0
3750,10.0625,12.25,2.5,0
3770,8.5625,12.25,3.9375,0
3790,6.1875,11.5,5.375,0
3810,3.75,11.6875,7,0
3830,4.125,11.625,7.9375,0
3850,5.25,9.5,7,0
3870,4.9375,6.0625,5.5625,0
3890,3.6875,1.3125,4.25,0
3910,2.5,-3.875,1.75,0
3930,0,-6.0625,-0.5,0
3950,-3.8125,-5.125,-1.75,0
3970,-4.875,-2.0625,-2.5625,0
3990,-2,0.9375,-3,0
4010,1.1875,3,-2.3125,0
4030,2.25,3.8125,-0.8125,0
4050,2.8125,3.25,0,0
4070,0.875,2.6875,0.625,0
4090,-0.75,2.5,0.6875,0
4110,-1.25,1.75,0.3125,0
4130,-0.75,1.1875,-0.375,0
4150,-1.375,0.9375,-1,0
4170,-2,1.4375,-0.875,0
4190,-1.125,1.625,-0.375,0
4210,-0.25,1.1875,-0.125,0
4230,0.1875,0.9375,-0.0625,0
4250,1.4375,0.8125,0.1875,0
4270,2.5,0.375,0.25,0
4290,2.4375,0.375,0.0625,0
4310,2,0.5625,0.1875,0
4330,0.875,0.875,0.5625,0
4350,1,0.5625,0.5,0
4370,1.0625,0.1875,0.0625,0
4390,0.375,0.375,0.125,0
4410,0.375,0.6875,0,0
4430,0.5625,1.0625,-0.1875,0
4450,0.3125,1.1875,-1,0
4470,0.4375,1.25,-1.5625,0
4490,1.125,1.25,-1.0625,0
4510,2.125,1.3125,-0.8125,0
4530,2.125,1.0625,-0.6875,0
4550,2.0625,1,-0.5625,0
4570,1.25,0.5625,-0.5,0
4590,1.6875,0,-0.9375,0
4610,0.1875,0.0625,-0.6875,0
4630,-1.375,0.875,0.4375,0
4650,-0.625,0.5,0.25,0
4670,-1.0625,0.125,0.25,0
4690,-0.9375,0.5,0.875,0
4710,-0.625,0.4375,1,0
4730,0.4375,0.375,0.3125,0
4750,0.9375,0.625,-0.625,0
4770,2.125,0.1875,-0.6875,0
4790,1.9375,-0.3125,-0.3125,0
4810,1.75,-0.125,-0.125,0
4830,0.25,0.3125,-0.4375,0
4850,-1.25,0.9375,0.0625,0
4870,-1.25,0.75,0.5,0
4890,-1.25,1.125,0.75,0
4910,-1.125,0.9375,0.4375,0
4930,-0.625,1.3125,0.5,0
4950,-0.375,1.5625,0.5,0
4970,0.5625,1.5,0.375,0
4990,0.125,1.6875,0.5625,0
5010,0.25,1.75,0.1875,0
5030,0.8125,1.8125,-0.5,0
5050,1.9375,1.0625,-0.6875,0
5070,2.625,0.4375,-0.4375,0
5090,2.9375,-0.3125,0.25,0
5110,3.6875,-0.9375,0.5,0
5130,5.6875,-1.875,0.3125,0
5150,8,-3.1875,1.1875,0
5170,8.625,-4.1875,2.0625,0
5190,6.0625,-4.1875,1.6875,0
5210,4,-4,1.9375,0
5230,3.5,-4.3125,1.8125,0
5250,3.75,-5.4375,0.9375,0
5270,3.5,-5.375,1.0625,0
5290,4.0625,-4.6875,0.3125,0
5310,4.6875,-5.125,-0.6875,0
5330,4.5,-4.875,-0.6875,0
5350,5.5625,-3.9375,-1.25,0
5370,7.0625,-3.4375,-1.8125,0
5390,9.4375,-3.375,-2.625,0
5410,11.6875,-3.5,-3.25,0
5430,13.125,-3.5625,-4.125,0
5450,13.625,-3.5,-4.75,0
5470,14.0625,-3.0625,-4.5625,0
5490,13.9375,-3.3125,-3.9375,0
5510,13.0625,-4.125,-3.375,0
5530,12.4375,-4.8125,-2.5,0
5550,10.6875,-4.875,-1.1875,0
5570,9.3125,-4.8125,0.25,0
5590,8.125,-5.125,1.9375,0
5610,7.6875,-5.625,2.625,0
5630,6.4375,-6.125,2.5625,0
5650,6.5,-5.6875,2.8125,0
5670,5.875,-5.6875,1.5625,0
5690,6.4375,-5.6875,0.625,0
5710,6.6875,-5.4375,0.6875,0
5730,6.8125,-4.75,0.4375,0
5750,7.375,-5.25,-0.3125,0
5770,7.125,-4.875,-1.5625,0
5790,6.9375,-3.625,-1.6875,0
5810,6.6875,-2.625,-1.875,0
5830,6,-2.4375,-1.4375,0
5850,6,-2.75,-2.25,0
5870,5.75,-2.875,-2.5625,0
5890,5.25,-2.3125,-2.625,0
5910,4.5625,-2.0625,-1.75,0
5930,3.4375,-1.4375,-0.875,0
5950,3.75,-1.0625,-0.9375,0
5970,4.125,-1.75,-0.5,0
5990,3.5625,-1.8125,-0.125,0
6010,2.5,-1.125,-0.3125,0
6030,0.875,-0.5,0.0625,0
6050,-0.125,-0.0625,-0.1875,0
6070,-0.5625,0.0625,-0.1875,0
6090,0,-0.0625,0.125,0
6110,0.1875,-0.125,0.125,0
6130,-0.75,0.5,0.25,0
6150,-1.75,0.6875,-0.1875,0
6170,-2,0.9375,-0.125,0
6190,-3.25,1.25,0.4375,0
6210,-2.4375,1.375,0.5625,0
6230,-1.625,1.0625,0.4375,0
6250,-2.0625,1.3125,0.75,0
6270,-2.625,1.25,0.3125,0
6290,-2.9375,0.8125,0,0
6310,-3.0625,0.75,-0.125,0
6330,-3.0625,0.875,-0.1875,0
6350,-3.1875,1.125,0.0625,0
6370,-3.8125,1.375,0.25,0
6390,-4.5,1.9375,0.3125,0
6410,-5.1875,2.25,0.4375,0
6430,-5.9375,2.5,0.3125,0
6450,-6.1875,2.4375,0.1875,0
6470,-6.6875,2.4375,-0.25,0
6490,-4.4375,2,0.1875,0
6510,-3,1.9375,0,0
6530,-2.75,2,0.375,0
6550,-3.375,2.375,0,0
6570,-3.4375,2.5,-0.25,0
6590,-2.9375,2.5,-0.625,0
6610,-2.3125,2.1875,-0.5625,0
6630,-2.25,1.6875,-0.5625,0
6650,-2.5625,1.5,-0.625,0
6670,-2.4375,1.5,-0.75,0
6690,-2.5,1.6875,-0.5,0
6710,-2.5,1.9375,-0.25,0
6720,-2.5625,1.75,-0.1875,0
6740,-2.9375,1.6875,-0.0625,0
6760,-2.8125,1.6875,-0.375,0
6780,-2.5,1.8125,-0.625,0
6800,-2.5625,1.6875,-0.5625,0
6820,-2.5625,1.875,-0.5,0
6840,-2.3125,1.8125,-0.875,0
6860,-2.5625,2.125,-1.3125,0
6880,-3,2.3125,-1.3125,0
6900,-3.1875,2.75,-1.25,0
6920,-2.1875,2.75,-1.125,0
6940,-1.4375,2.6875,-1.125,0
6960,-1.5625,2.875,-1.3125,0
6980,-1.6875,2.75,-1.5,0
7000,-1.3125,2.25,-1.875,0
7020,-1.375,2.125,-1.9375,0
7040,-1.5625,2.125,-1.875,0
7060,-1.625,2.1875,-1.5625,0
7080,-1.9375,1.9375,-1.4375,0
7100,-1.8125,1.6875,-1.3125,0
7120,-1.8125,1.6875,-1.125,0
7140,-2,2.0625,-0.5625,0
7160,-2.125,2.0625,-0.1875,0
7180,-2.3125,2.0625,0.125,0
7200,-2.25,1.8125,-0.0625,0
7220,-2.25,1.6875,-0.375,0
7240,-2.0625,1.875,-0.3125,0
7260,-1.4375,2.0625,-0.125,0
7280,-1.75,2.0625,-0.0625,0
7300,-2.125,2.0625,-0.375,0
7320,-2.375,2.5,-0.5625,0
7340,-3.0625,3.1875,-0.5,0
7360,-3.125,3.875,-0.3125,0
7380,-3.375,4.25,-0.1875,0
7400,-3.5625,4.625,-0.25,0
7420,-3.8125,5,-0.1875,0
7440,-3.375,5.0625,0.1875,0
7460,-4,5.1875,1,0
7480,-5.4375,5.5625,1.625,0
7500,-6.375,5.625,2.25,0
7520,-6.1875,5.1875,2.6875,0
7540,-6,4.8125,2.375,0
7560,-6.3125,5.125,3.125,0
7580,-5.8125,5.4375,3.5625,0
7600,-5.25,5.0625,3.0625,0
7620,-5.875,5.0625,3.25,0
7640,-5.9375,5.25,3.25,0
7660,-5.5,4.9375,2.9375,0
7680,-4.6875,4.6875,2.75,0
7700,-4,4.375,2.875,0
7720,-3.0625,3.875,2.5,0
7740,-2.25,3.125,2.0625,0
7760,-2.125,2.375,1.4375,0
7780,-2.4375,2.3125,1.6875,0
7800,-3.125,2.5625,2.0625,0
7820,-3.5,2.0625,2.1875,0
7840,-3.125,1.625,2.25,0
7860,-3.25,1.875,2.375,0
7880,-3.25,2.25,2.625,0
7900,-3.3125,2.5,2.75,0
7920,-3.3125,2.625,2.625,0
7940,-2.8125,3.0625,2.8125,0
7960,-2.1875,3.125,2.4375,0
7980,-2.0625,3.125,2.1875,0
8000,-1.875,3.1875,1.6875,0
8020,-1.8125,3.375,1.0625,0
8040,-1.5,3.5625,0.9375,0
8060,-0.125,3.25,0.3125,0
8080,0.625,2.6875,-0.125,0
8100,0.25,2,-0.375,0
8120,-1.1875,1.6875,0.1875,0
8140,-2,1.3125,0.75,0
8160,-2.5625,0.5625,1,0
8180,-2.625,0.3125,1.4375,0
8200,-1.5625,-0.0625,2,0
8220,-0.8125,-0.375,2,0
8240,-1.25,-0.125,2.0625,0
8260,-1.8125,0.5625,2.125,0
8280,-1.5625,0.75,1.5,0
8300,-1.75,0.75,0.9375,0
8320,-1.5625,1.125,1,0
8340,-0.125,0.8125,0.3125,0
8360,0.1875,0.5625,-0.375,0
8380,-0.5,1.125,-0.5,0
8400,-0.9375,1.375,-0.375,0
8420,-1.8125,1.375,0.375,0
8440,-1.625,0.875,1.125,0
8460,-0.4375,0.1875,1.4375,0
8480,-0.875,-0.375,1.4375,0
8500,-2.375,-0.375,1.875,0
8520,-3.5625,0,2.125,0
8540,-3.0625,-0.8125,1.6875,0
8560,-1.875,-1.3125,1.1875,0
8580,-0.75,-0.9375,0.875,0
8600,0.0625,-0.625,0.9375,0
8620,0.3125,-0.5,1.4375,0
8640,0.75,-0.3125,0.875,0
8660,1.1875,-0.3125,-0.25,0
8670,1.6875,-0.25,-0.75,0
8700,2.625,-0.4375,-0.1875,0
8710,4,-1,-0.25,0
8730,4.375,-1.75,-0.5625,0
8750,3.75,-2.1875,-1.1875,0
8770,2.625,-2,-0.75,0
8790,2.9375,-1.875,0.625,0
8810,3.375,-2.0625,1.125,0
8830,2.75,-2.875,0.875,0
8850,1.1875,-2.9375,1.1875,0
8870,1.3125,-2.875,1.4375,0
8890,3.0625,-3.25,1.25,0
8910,4.625,-3.8125,0.75,0
8930,5.3125,-3.625,0.625,0
8950,6.75,-3.1875,0.75,0
8970,7.9375,-4,1.0625,0
8990,6.6875,-4.6875,0.125,0
9010,-0.8125,-7.25,1.5,0
9030,-2.75,-7.5625,2.6875,0
9050,1.4375,-6.75,2.6875,0
9070,7.75,-6.25,2,0
9090,10.5,-5.9375,1.5625,0
9110,4,-6.6875,0.5625,0
9130,-2.0625,-6.3125,1.5,0
9150,-0.5625,-5.75,1.625,0
9170,2.9375,-3.125,1.375,0
9190,4.5625,-3.1875,2.8125,0
9210,6.5,-1.6875,3.1875,0
9230,5.625,0.0625,4.6875,0
9250,7.5,-0.25,5.25,0
9270,8,1.4375,7,0
9290,5.625,3.125,9.5,0
9310,-1,2.875,10.375,0
9330,-7.875,2,10.5625,0
9350,-10.5625,1.4375,10,0
9370,-11.6875,-0.6875,9.625,0
9390,-9.25,-4.3125,10.875,0
9410,-13.25,-8.8125,11.75,0
9430,-17.4375,-10.6875,11.6875,0
9450,-21.625,-11.3125,12.5,0
9470,-18.5,-9.875,10.625,0
9490,-5.75,-6.75,9.6875,0
9510,-3.4375,-5.875,9.8125,0
9530,-3.8125,-3.3125,7.5625,0
9550,1,0.25,5.75,0
9570,4.0625,1.625,4.6875,0
9590,4.375,3.5625,5.3125,0
9610,1.3125,5.3125,5.8125,0
9630,3.875,6.625,4.9375,0
9650,9.25,7.5625,2.8125,0
9670,19.3125,5.875,0.0625,0
9690,27.5,3.1875,-0.5625,0
9710,27.0625,-0.1875,-2.4375,0
9730,20.6875,-2.3125,-4.875,0
9750,13,-3.875,-8.3125,0
9770,12.5625,-5.375,-10.4375,0
9790,13.0625,-8.9375,-15.875,0
9810,17.6875,-12.0625,-22.9375,0
9830,13.125,-13.8125,-27.125,0
9850,6,-13.5,-27.625,0
9870,-0.625,-11.6875,-27.125,0
9890,-7.0625,-8.8125,-24.125,0
9910,-10.6875,-3.6875,-21.5,0
9930,-11.5,-0.625,-16.4375,0
9950,-8,0.1875,-13.5,0
9970,-4.8125,1.5,-13.5625,0
9990,0.3125,0.3125,-10.625,0
10010,9.4375,-3.75,-6.6875,0
10030,15.875,-6.9375,-4.625,0
10050,18.0625,-9.75,-2.8125,0
10070,18.0625,-11.375,-0.5,0
10090,19.25,-11.625,1.625,0
10110,20,-11.125,2.0625,0
10130,19.4375,-9.9375,2.25,0
10150,17.75,-7.6875,2.1875,0
10170,15.3125,-4.875,2.125,0
10190,13.375,-3,3.0625,0
10210,13,-2.0625,4,0
10230,11.375,-2.0625,3.9375,0
10250,9.8125,-1.9375,2.9375,0
10270,8.875,-2.375,2.3125,0
10290,8.8125,-2.5,1.8125,0
10310,9.875,-2.75,0.75,0
10330,10.5,-3,-0.1875,0
10350,10.3125,-2.9375,-0.75,0
10370,9,-2.75,-1.375,0
10390,7.875,-2.75,-2.0625,0
10410,6.625,-2.5625,-2.75,0
10430,5.625,-2.25,-3.3125,0
10450,4.3125,-1.5625,-3.875,0
10470,3.5,-0.6875,-3.75,0
10490,3.0625,-0.375,-3.5625,0
10510,2.75,-0.5,-3.5,0
10530,2.6875,0,-2.625,0
10550,2.375,0.5625,-1.1875,0
10570,3.0625,0.4375,0.25,0
10590,4.5625,0.5625,0.4375,0
10610,5,0.75,0.875,0
10630,5.25,0.9375,2.25,0
10650,4.625,0.6875,2.0625,0
10670,4.75,0.375,2,0
10690,5.75,-0.3125,1.3125,0
10710,6.6875,-0.6875,0.875,0
10730,7.8125,-0.625,0.875,0
10750,8.0625,-0.9375,0.9375,0
10770,7.5,-1.125,0.5625,0
10790,6.5625,-0.75,0.5625,0
10810,5.5,0.375,0.9375,0
10830,5.3125,0.625,1.5625,0
10850,4.8125,0.625,2.25,0
10870,4.8125,0.375,1.9375,0
10890,3.4375,0.375,0.8125,0
10910,3.4375,0.3125,0.0625,0
10930,2.5,0.1875,-0.0625,0
10950,2.375,0.3125,-0.4375,0
10970,1.875,0.5,-0.4375,0
10990,1.875,0.75,-0.375,0
11010,0.875,0.8125,-0.5,0
11030,0.375,0.5625,-0.875,0
11050,-0.4375,0.4375,-1.4375,0
11070,-1.5,0.5,-1,0
11090,-2.1875,0.625,-0.6875,0
11110,-2.75,1.1875,-0.0625,0
11130,-2.6875,1.25,0.3125,0
11150,-1.8125,0.8125,0.3125,0
11170,-1.0625,0.625,0.5,0
11190,-1,0.625,0.375,0
11210,-1.25,0.75,-0.0625,0
11230,-1.75,0.8125,-1.0625,0
11250,-1.875,0.875,-1.0625,0
11270,-2,0.5625,-0.625,0
11290,-3.125,0.75,-0.75,0
11310,-4.4375,1.125,-1,0
11330,-4.75,1.875,-1.1875,0
11350,-4.3125,1.75,-1.375,0
11370,-3.6875,1.625,-1.4375,0
11390,-3.625,1.625,-1.3125,0
11410,-4.5625,2.1875,-1.0625,0
11430,-4.6875,2.3125,-0.8125,0
11450,-3.6875,2.125,-1.0625,0
11470,-2.375,1.4375,-0.9375,0
11490,-1.5625,0.9375,-0.75,0
11510,-1.25,0.8125,-0.4375,0
11530,-1.3125,0.75,-0.75,0
11550,-1.375,1,-1,0
11570,-1.75,1.4375,-0.6875,0
11590,-1.75,1.625,-0.6875,0
11610,-1.9375,2.0625,-0.5,0
11630,-1.5,4.5625,1.8125,0
11650,-3.625,7.9375,6.8125,0
11670,-4.3125,9.875,9.5625,0
11690,-1.375,11.5,10.375,0
11710,-1.9375,13.9375,11.5,0
11730,-2.1875,13.25,12.625,0
11750,-1.875,11.5625,10.6875,0
11770,-3.375,8.875,8.4375,0
11790,-5.5625,8.75,9.25,0
11810,-7.125,9.375,7.8125,0
11830,-7.8125,7.75,8.3125,0
11850,-10.0625,7.875,9.125,0
11870,-14,8.25,8.3125,0
11890,-16.625,9.4375,5.8125,0
11910,-17.625,11.0625,3.8125,0
11930,-16.8125,11.8125,2.0625,0
11950,-14.4375,11.5,0.9375,0
11970,-12.5625,10.0625,0.1875,0
11990,-11.375,7.625,-0.3125,0
12010,-11.625,5.125,-1.5,0
12030,-12.8125,3.6875,-2.4375,0
12050,-13.875,4.125,-1.75,0
12070,-13.5625,4.1875,-1.625,0
12090,-11,2.375,-3.4375,0
12110,-9.0625,-0.0625,-5.9375,0
12130,-9.8125,-1,-7,0
12140,-12.375,-1.0625,-7.25,0
12160,-14.125,-2.25,-9.375,0
12180,-15.75,-2.875,-12.1875,0
12200,-15.6875,-2.1875,-13.3125,0
12220,-14.1875,-2,-12.25,0
12240,-14.8125,-2.5625,-10.6875,0
12260,-15.5625,-2.75,-10.375,0
12280,-15.9375,-2.5625,-9.75,0
12300,-15.4375,-2,-9.4375,0
12320,-12.125,-1.4375,-8.625,0
12340,-9.0625,-0.875,-8,0
12360,-5.75,-0.8125,-8.125,0
12380,-3.5,-1.1875,-8.6875,0
12400,-2.4375,-0.8125,-8.3125,0
12420,-2.3125,-1.0625,-8.3125,0
12440,-1.875,-0.125,-8.3125,0
12460,-1.625,0.875,-7.625,0
12480,-2.6875,1.9375,-6.5625,0
12500,-1.25,1.6875,-5.125,0
12520,-1.9375,2.125,-3.6875,0
12540,-2.8125,3.375,-1.75,0
12560,-2.75,4.1875,-0.1875,0
12580,-1.375,4.625,1.6875,0
12600,-1.25,4.1875,3.5625,0
12620,-0.25,5,5.9375,0
12640,2.9375,5.8125,8.25,0
12660,4.6875,5.8125,9.25,0
12680,5.6875,4.9375,9.5625,0
12700,5.5625,4.4375,8.875,0
12720,4.75,3.9375,7.5625,0
12740,4.8125,3.125,5.5,0
12760,4.4375,1.875,3.5625,0
12780,3.75,1.4375,1.875,0
12800,3,1.25,1.5,0
12820,2.1875,1.375,2,0
12840,1.8125,1.375,1.75,0
12860,2.4375,1,0.8125,0
12880,1.8125,1,0.4375,0
12900,1.375,0.9375,0.25,0
12920,2.1875,0.4375,-0.3125,0
12940,2.875,-0.25,-0.5,0
12960,2.75,-0.9375,-0.6875,0
12980,2.625,-1.3125,-0.75,0
13000,2.6875,-1.75,-0.375,0
13020,1.5625,-1.9375,-0.5,0
13040,-0.25,-1.25,-1.125,0
13060,-1.8125,-1.75,-2.1875,0
13080,-1.9375,-2.25,-4.1875,0
13100,-1.3125,-3,-5.875,0
13120,0.375,-4.6875,-6.625,0
13140,4.0625,-7.1875,-7.625,0
13160,8.0625,-8.9375,-8.6875,0
13180,7.8125,-8.375,-7.375,0
13200,4.25,-5.8125,-5.625,0
13220,1.1875,-2.75,-4.0625,0
13240,0.0625,0.625,-1.4375,0
13260,-0.875,3.625,1.75,0
13280,-1.0625,4.875,2.875,0
13300,-0.625,4.0625,1.9375,0
13320,-0.3125,2.9375,0.1875,0
13340,0.4375,2.0625,-0.4375,0
13360,1.3125,0.5,-0.5625,0
13380,1.6875,-1.125,-0.6875,0
13400,0.75,-0.8125,-0.75,0
13420,-0.4375,0.6875,-1.0625,0
13440,-0.6875,1.625,-0.6875,0
13460,-0.6875,2.25,0.1875,0
13480,-0.625,2.375,0.8125,0
13500,-0.4375,1.8125,0.6875,0
13520,0.25,0.8125,-0.125,0
13540,0.875,0.375,-0.75,0
13560,1.0625,0.375,-1,0
13580,0.6875,0.625,-0.625,0
13600,0.5625,0.625,-0.5,0
13620,0.5625,0.5625,-0.4375,0
13640,0.25,0.6875,-0.375,0
13660,-1.0625,1.0625,0.125,0
13680,-1.9375,1.375,0.4375,0
13700,-1.1875,1.6875,0.3125,0
13720,-0.125,1.9375,0.375,0
13740,0.875,1.625,0.75,0
13760,1.5,1.4375,1,0
13780,1.5,1.0625,0.8125,0
13800,0.9375,0.8125,0.3125,0
13820,0.125,0.8125,-0.3125,0
13840,-0.25,0.5625,-0.625,0
13860,0.375,0.3125,-0.8125,0
13880,0.75,0.125,-0.75,0
13900,0.75,0.125,-0.5,0
13920,0.8125,0.1875,-0.25,0
13940,1.0625,0.0625,0,0
13960,1.625,0.0625,0.4375,0
13980,1.75,0.1875,0.6875,0
14000,1.875,0.3125,0.6875,0
14020,1.9375,0.125,0.5,0
14040,1.75,0.125,0.4375,0
14060,0.9375,0.5625,0.375,0
14080,0.6875,0.8125,0.0625,0
14100,1.0625,0.625,-0.25,0
14120,1.1875,0.5,-0.375,0
14130,1.125,0.75,0,0
14150,1,0.75,0.4375,0
14170,1.0625,0.625,0.375,0
14190,1.25,0.875,0.5,0
14210,1.5,0.875,0.625,0
14230,2,0.6875,0.3125,0
14250,1.9375,0.5625,0.5,0
14270,1.9375,0.375,0.75,0
14290,1.9375,0.375,0.6875,0
14310,2.0625,0.1875,0.625,0
14330,1.875,0.1875,0.6875,0
14350,1.75,0.375,0.5625,0
14370,2.375,0.5,0.875,0
14390,2.5,0.1875,0.875,0
14410,3,-0.3125,0.5625,0
14430,2.8125,0,0.125,0
14450,2.5,0.0625,-0.0625,0
14470,1.5625,0.25,-0.1875,0
14490,0.6875,0,0.3125,0
14510,1.125,0.3125,0.1875,0
14530,1.625,0.5625,0.4375,0
14550,1.8125,0.6875,1.1875,0
14570,1.8125,0.8125,1.5,0
14590,1.875,0.5,1.0625,0
14610,1.3125,0.375,0.125,0
14630,0.6875,0.25,-0.5625,0
14650,0.1875,0.25,-0.75,0
14670,0.5625,0.125,-0.8125,0
14690,0.4375,0.25,-0.8125,0
14710,0.1875,0.5,-0.75,0
14730,-0.375,0.8125,-0.625,0
14750,-0.1875,0.75,-0.5,0
14770,0,0.5625,-0.625,0
14790,0.1875,0.4375,-0.875,0
14810,0.25,0.1875,-0.9375,0
14830,-0.75,0.375,-1.4375,0
14850,-0.875,0.375,-1.625,0
14870,-0.375,0.25,-1.8125,0
14890,0.0625,-2,-1,0
14910,1.625,-5.875,1.625,0
14930,5.4375,-9.875,8.4375,0
14950,22.0625,-10.1875,10.1875,0
14970,28.625,-12.75,9.1875,0
14990,-1.8125,-15.4375,12.5,0
15010,-11.5,-15.8125,2.875,0
15030,-25.125,-18.5,-19.9375,0
15050,-40.0625,-20.625,-40.8125,0
15070,-59.125,-17.1875,-57.4375,0
15090,-70.4375,-35.25,-69.625,0
15110,-56.875,-61.0625,-92.6875,0
15130,-32.625,-81.625,-111.562,0
15150,-9.4375,-89.125,-129.438,0
15170,-9.6875,-94,-149.938,0
15190,-19.9375,-101.938,-164,0
15210,-39.625,-106.438,-174.5,0
15230,-51.3125,-111.438,-178.5,0
15250,-51.4375,-116,-177.625,0
15270,-40.5,-116.25,-172.25,0
15290,-29.9375,-113.312,-162.812,0
15310,-27.6875,-106.312,-150.938,0
15330,-30.9375,-96.6875,-142.562,0
15350,-31,-89,-129.812,0
15370,-24.3125,-79.8125,-116.125,0
15390,-14.75,-68.8125,-103.812,0
15410,-18.1875,-53.8125,-90.125,0
15430,-10.25,-44.875,-78.9375,0
15450,-9.5625,-38.5,-61.6875,0
15470,-2.25,-26.6875,-38.6875,0
15490,2.5625,-13.0625,-21.6875,0
15510,13.4375,-6.5625,-8.75,0
15530,13.375,0.6875,2.75,0
15550,1.5625,9.5625,10.1875,0
15570,-0.875,12.8125,12.9375,0
15590,2.5625,11.0625,11.3125,0
15610,-1.5625,9.4375,13.5625,0
15630,-2.125,10.6875,11.4375,0
15650,0.1875,9.125,7.625,0
15670,1.875,4.5,4.625,0
15690,-0.25,4.4375,1.625,0
15710,-2.5,5.375,0.875,0
15730,-1,5.5,0.8125,0
15750,-0.6875,4.9375,2.0625,0
15770,-0.5625,5.75,1.5625,0
15790,-0.8125,6.5625,3.125,0
15810,-1.0625,7.1875,5,0
15830,-0.8125,8.6875,6.8125,0
15850,1.6875,10.3125,7.5,0
15870,3.875,11.6875,8.875,0
15890,5.5625,12.25,10.6875,0
15910,5.5,14.125,11.75,0
15930,7.4375,16.6875,13.4375,0
15950,9.4375,18.25,15.5,0
15970,9.625,19.25,17.8125,0
15990,5.9375,23.375,23.5,0
16010,6,28.625,28.5625,0
16030,10.6875,32.1875,34.9375,0
16050,6.25,34.375,39.5625,0
16070,1.4375,34.9375,38.25,0
16090,-1.625,33.625,40.4375,0
16110,-3.4375,35.9375,34.5625,0
16130,-5.1875,32.3125,22.9375,0
16150,-5.1875,24.875,21.3125,0
16170,-1.0625,19.4375,22.125,0
16190,5.1875,16.125,20.625,0
16210,9.8125,13,20.3125,0
16230,8.1875,12.75,17.3125,0
16250,3,13.0625,13.4375,0
16270,0.1875,13.5625,15.0625,0
16290,2.5625,13.5625,15.5,0
16310,5.125,11.8125,14.25,0
16330,3.75,9.4375,12.9375,0
16350,0.5,7.375,11.5,0
16370,-1.375,6.5,7.125,0
16390,0.0625,3.125,4.3125,0
16410,0.9375,-1.25,4.25,0
16430,1.6875,-2.6875,4,0
16450,1.625,-1.5,3.4375,0
16470,0.0625,-1.0625,0.9375,0
16490,-3.25,-1.4375,-0.125,0
16510,-2.4375,-1.125,-0.125,0
16530,1.375,-0.75,0,0
16550,2.625,1.0625,0.6875,0
16570,1.875,2.1875,1.125,0
16590,-0.0625,1.75,1.4375,0
16610,-1.5625,-1.1875,2.0625,0
16630,-0.5625,-1.9375,3.9375,0
16650,1.9375,-1.9375,3.6875,0
16670,1.375,-1.9375,2.875,0
16690,-2.4375,-2.125,1.625,0
16710,-5.3125,-2.5,0.8125,0
16730,-1.1875,-3.25,-0.75,0
16750,3,-2.9375,-1.375,0
16770,5.125,-2.5625,-1.1875,0
16790,3.3125,-2.375,-0.5,0
16810,0.8125,-0.9375,0.5,0
16830,0.25,-0.625,1.375,0
16850,-0.625,1.5,0.3125,0
16870,-1.875,2.5,0.25,0
16890,-2,1.6875,1.8125,0
16910,0.6875,0.375,2.4375,0
16930,2.25,0.3125,1.25,0
16950,1.25,0.5625,0.125,0
16970,-1.875,0.5625,0.375,0
16990,-0.3125,0.875,2.4375,0
17010,0.0625,1.75,2.375,0
17030,4.3125,-0.6875,3.4375,0
17050,0.25,-3.5,3.4375,0
17070,3.3125,-2.875,0.375,1000
17090,6.25,-2.375,-0.375,0
17110,3.625,0.125,1.25,0
17130,1.3125,2.0625,1.875,0
17150,-1.5625,1.8125,3.3125,0
17170,2.0625,-0.75,1.375,0
17190,1.5,0.8125,-1.75,0
17210,1.5625,0.6875,-2.75,0
17230,3.25,0.3125,-2,0
17250,4.375,1.125,0.25,0
17270,4.6875,2.125,-0.4375,0
17290,3.4375,0.0625,-1.6875,0
17310,-0.9375,-1.5625,-0.1875,0
17330,-1.625,-1.1875,0.8125,0
17350,0.5625,-0.5,0.125,0
17370,2.6875,-1.1875,-0.4375,0
17390,3.125,-1.5625,-0.8125,0
17410,2,-1.6875,0.375,0
17430,-0.0625,-1.25,1.4375,0
17450,-1,-0.9375,1.5,0
17470,-0.0625,-0.6875,1.5625,0
17490,1.1875,-0.8125,0.625,0
17510,1.6875,-1.5,1.125,0
17530,2.125,-0.5625,0.875,0
17550,0.375,-0.6875,0.3125,0
17560,-0.3125,-1.4375,0.3125,0
17580,0.1875,-1.25,0.125,0
17600,1.5625,-1.125,-0.5,0
17620,1.75,-1.75,-0.5,0
17640,0.3125,-1.25,1.25,0
17660,0.625,-0.5625,1.0625,0
17680,0.8125,-0.5625,-0.25,0
17700,2.9375,-1.5,-1.5,0
17720,5.375,-4.4375,-2.875,0
17740,3.75,-6.4375,-2.1875,0
17760,3.625,-6.75,-2.75,0
17780,1.6875,-7.1875,-4.8125,0
17800,1.125,-9.25,-6,0
17820,-2.4375,-12.1875,-6.125,0
17840,-0.4375,-14.3125,-2.75,0
17860,2,-14.4375,-2.5625,0
17880,1.0625,-13.1875,-4.0625,0
17900,-2,-14.1875,-5.5625,0
17920,-3.1875,-15.125,-4.8125,0
17940,-3.1875,-14.25,-3.625,0
17960,0.8125,-12.1875,-5.5,0
17980,-1.8125,-11.8125,-8.3125,0
18000,3.5625,-11.875,-10.5625,0
18020,7.4375,-14.1875,-11.375,0
18040,8.6875,-14.875,-12.0625,0
18060,7.8125,-13.6875,-14.125,0
18080,3.0625,-12.625,-16,0
18100,3.875,-11.4375,-16,0
18120,7.9375,-10.6875,-14.5625,0
18140,9,-9.875,-13.3125,0
18160,11.875,-8.125,-12.875,0
18180,11.375,-7.875,-12.75,0
18200,7.4375,-7.5,-11.75,0
18220,5.5,-4.5625,-12.1875,0
18240,4.625,-2.75,-11.9375,0
18260,6.75,-0.25,-11.9375,0
18280,5.5625,-0.0625,-13.125,0
18300,6,1.875,-13.8125,0
18320,6.375,3,-14.8125,0
18340,6.3125,2.4375,-16.25,0
18360,7,4.5625,-18.125,0
18380,4.1875,6.1875,-19.0625,0
18400,4.125,8.4375,-20.3125,0
18420,2.9375,10.1875,-20.5625,0
18440,3.375,11.9375,-20.125,0
18460,3.5,13.375,-21.0625,0
18480,3.125,14,-21.5625,0
18500,0.5625,14.375,-23.3125,0
18520,-1.5625,15.75,-25.3125,0
18540,-4.5,17.5625,-27.0625,0
18560,-2.8125,19.5,-28,0
18580,-3.375,19.5625,-26.3125,0
18600,-6.4375,21.9375,-24.6875,0
18620,-6.3125,23.375,-25,0
18640,-7.9375,23.25,-24.5625,0
18660,-11.125,22.625,-23.9375,0
18680,-12.75,23.0625,-24.375,0
18700,-14.6875,24.1875,-24.875,0
18720,-14.8125,24.875,-24.875,0
18740,-16.9375,25.375,-25.75,0
18760,-16.8125,25.875,-27.625,0
18780,-14.75,24.5625,-29.1875,0
18800,-15.5625,23.625,-30.1875,0
18820,-17.0625,24.3125,-31,0
18840,-18.8125,25.3125,-30.8125,0
18860,-17.875,25.6875,-31.9375,0
18880,-17.9375,25.5625,-32.625,0
18900,-19.5,25.875,-30.8125,0
18920,-21.125,27.75,-31.3125,0
18940,-20.0625,29.3125,-31.3125,0
18960,-18.5625,30.375,-31.1875,0
18980,-17.6875,29.5,-31.4375,0
19000,-16.4375,29.8125,-31.625,0
19020,-15.875,31.75,-30.1875,0
19040,-13.6875,31.625,-28.375,0
19060,-12.5,31.0625,-27.125,0
19080,-11.8125,32.125,-24.0625,0
19100,-11.9375,34.875,-19.0625,0
19120,-13,36.8125,-13.25,0
19140,-12.125,38.0625,-11.0625,0
19160,-10.5625,39.1875,-9,0
19180,-4.5625,37.4375,-7.625,0
19200,-2.125,34,-5.625,0
19220,-1.875,31.8125,-5.875,0
19240,-1.4375,29.875,-4.6875,0
19260,-5.0625,30.5,-1.375,0
19280,-7.875,31,-0.1875,0
19300,-6.5,30.4375,1.375,0
19320,-2.6875,28.9375,3,0
19340,0.125,26.0625,3.6875,0
19360,0.375,24.125,3.0625,0
19380,-1.6875,23.6875,0.8125,0
19400,-7.5625,23.375,0.9375,0
19420,-9.625,24.3125,2.8125,0
19430,-3.5625,21.0625,3,0
19460,0.9375,16.4375,1.625,0
19480,1.875,15.0625,0.5625,0
19500,-3.0625,14.375,-0.375,0
19520,-6.125,14.5,-1,0
19540,-4,14.25,-0.6875,0
19550,-3.8125,13,1.125,0
19570,-2.375,13.125,4.1875,0
19590,-5.5,15.4375,8.1875,0
19610,-6.125,16.875,10.0625,0
19630,-5.25,15.8125,11.125,0
19650,-2.875,15.5,11.75,0
19670,-0.5625,16,12.3125,0
19690,-1.875,17.5625,11.875,0
19710,-4.5,17.6875,12.25,0
19730,-4.375,17.3125,12.25,0
19750,-1.5,16.9375,11,0
19770,-0.25,16.3125,10.625,0
19790,-0.375,16.1875,11.6875,0
19810,0.125,16.5625,13.6875,0
19830,0.6875,15.75,13.6875,0
19850,0.5,15.3125,15.1875,0
19870,-1.5625,17.4375,15.8125,0
19890,-3.25,17.9375,17.3125,0
19910,-0.5625,16.75,19.0625,0
19930,2,17,20.3125,0
19950,-0.375,15.5625,21,0
19970,-3.25,16.125,21.3125,0
19990,-4.875,16.5625,22.9375,0
20010,-1.8125,16,24.6875,0
20030,-0.75,13.8125,25.4375,0
20050,2.8125,12.4375,24.625,0
20070,2.3125,11.3125,23.4375,0
20090,2.125,9.625,23.25,0
20110,1.3125,8.5,22.3125,0
20130,-0.5,10.125,23.5625,0
20150,-4.5625,9.8125,25.1875,0
20170,-5.5,7.3125,24.875,0
20190,-3.3125,3.1875,25.625,0
20210,0.9375,0.5,25.4375,0
20230,0.8125,0.5625,23.8125,0
20250,-3.875,2.4375,24.5625,0
20270,-9.0625,1.625,23.625,0
20290,-6.5,-2.375,21.5,0
20310,0.0625,-5,18.625,0
20330,4.3125,-4.125,17.6875,0
20350,1.6875,-4.3125,16.4375,0
20370,-3.5,-5.8125,14.375,0
20390,-3.5,-7.75,12.6875,0
20410,5.8125,-10.25,11.125,0
20430,11.125,-12.25,9.5625,0
20450,9.3125,-11.625,8.25,0
20470,3.375,-11.5,8.3125,0
20490,-2.25,-12.1875,9.125,0
20510,-4.125,-13.125,8.6875,0
20530,-3.875,-13.25,8.875,0
20550,-1,-13.3125,10,0
20570,0.3125,-12.5,10.5,0
20590,-0.75,-12.4375,11.6875,0
20610,0.0625,-11.4375,12.0625,0
20630,0.8125,-11.5,12.5,0
20650,2.8125,-12.75,11.875,0
20670,3.0625,-12.75,12.625,0
20690,0.875,-12.4375,13.375,0
20710,-1.3125,-12.5,13.3125,0
20730,-2.625,-12.1875,12.4375,0
20750,-0.1875,-12.5625,12.0625,0
20770,0.4375,-13.0625,12.125,0
20790,-0.125,-12.6875,11.8125,0
20810,-0.5,-12.0625,11.1875,0
20830,-1.625,-11.6875,10.625,0
20850,-1.375,-11.8125,10.4375,0
20870,0.9375,-12.1875,9.8125,0
20890,3.125,-12.625,9.4375,0
20920,2.75,-13.25,10.25,0
20940,-1.8125,-13.5,10.6875,0
20960,-6.6875,-14.0625,10.4375,0
20980,-5.3125,-14.1875,10.3125,0
21000,-4.3125,-14.25,10.625,0
21020,-5.625,-13.625,10.3125,0
21040,-6.125,-13.6875,10.5625,0
21060,-5.375,-14.5,11.0625,0
21080,-2.25,-14.75,10.375,0
21100,-0.5,-13.9375,10.3125,0
21120,-0.6875,-12.8125,10.1875,0
21140,-1.6875,-12.9375,10.3125,0
21160,-0.6875,-14.1875,9.6875,0
21180,0.1875,-14.9375,8.5,0
21200,1,-15.125,8.6875,0
21220,1.625,-16.375,8.5,0
21240,0.8125,-17,8.4375,0
21260,0.8125,-16.125,9.9375,0
21280,-1.6875,-16.9375,10.8125,0
21300,-4.1875,-18.1875,12.25,0
21320,-4.375,-17.5625,12.625,0
21340,-3.125,-16.625,11.9375,0
21360,-4.1875,-17.25,11.5625,0
21380,-2.875,-18.0625,11.375,0
21400,-3.8125,-18.75,9.9375,0
21420,-3.5,-18,7.4375,0
21440,-1.4375,-18.625,5.6875,0
21460,-1.8125,-20,4.6875,0
21480,-2.25,-20.25,3.5625,0
21500,-2.125,-20.75,2.5,0
21520,-1.5625,-20.8125,1.6875,0
21540,-2.0625,-20.4375,0.5,0
21560,-3.4375,-21.125,0.1875,0
21580,-3.6875,-21.1875,0.875,0
21600,-2.0625,-20.8125,-0.125,0
21620,-0.4375,-20.6875,-0.75,0
21640,0.75,-20.1875,-1.25,0
21660,-0.75,-18.8125,-1.8125,0
21680,-0.75,-18.25,-3.375,0
21700,-0.25,-16.75,-3.1875,0
21720,0.9375,-15.5625,-2.1875,0
21740,1.4375,-16,-1.8125,0
21760,2.5,-16.125,-0.3125,0
21780,1.875,-14.8125,0.0625,0
21800,-0.1875,-14.1875,0.4375,0
21820,-3.3125,-14.0625,1.4375,0
21840,-3.3125,-15.4375,2.8125,0
21860,-1.5625,-17.125,2.875,0
21880,-0.1875,-16.5625,1.75,0
21900,-3,-16.3125,1,0
21920,-5.3125,-16.5,0.125,0
21940,-1.875,-17.625,-2.375,0
21960,0.375,-17.3125,-4.4375,0
21980,1.875,-16.0625,-4.9375,0
22000,1.6875,-16.5625,-5.5,0
22020,-1.25,-16.8125,-6,0
22040,-0.4375,-15.3125,-6.375,0
22060,4.125,-14.9375,-6.5625,0
22080,3.125,-15.8125,-7.0625,0
22100,-0.25,-15.5625,-5.4375,0
22120,-3.875,-15.625,-4.9375,0
22140,-5.5,-15.4375,-4.8125,0
22160,-4.4375,-15.4375,-2.9375,0
22180,-4.375,-15.4375,-1.75,0
22200,-5,-14.8125,-2.875,0
22220,-2.5,-14.8125,-3.5625,0
22240,0.5625,-15.5,-5.3125,0
22260,1.5,-16.1875,-7.4375,0
22280,1.0625,-15.1875,-7.8125,0
22300,3.6875,-15.125,-6.8125,0
22320,5.125,-16.625,-7.125,0
22340,5.3125,-17.75,-7.75,0
22360,4.375,-17.75,-7.4375,0
22380,2.625,-17.5625,-7.4375,0
22400,0.9375,-16.625,-8.75,0
22420,0.1875,-16.5625,-9.8125,0
22440,2.5625,-15.5,-9.75,0
22460,4.5,-16,-9.8125,0
22480,5.1875,-15.4375,-8.8125,0
22500,4.4375,-13.9375,-8.5625,0
22520,2.625,-13.75,-8.9375,0
22540,-1.25,-13.8125,-9.0625,0
22560,-1.9375,-13.125,-8.0625,0
22580,-0.0625,-11.5,-9.25,0
22600,1.1875,-10.4375,-11.0625,0
22620,3.375,-11.125,-10.9375,0
22640,1.6875,-14.4375,-8.25,0
22660,1.375,-15.0625,-7.5625,0
22680,1.625,-12.9375,-10.0625,0
22700,-3.3125,-11.5,-10.5,0
22720,-9.5625,-9.0625,-10.375,0
22740,-9.9375,-8.875,-10.3125,0
22760,-4.875,-10.125,-9.5,0
22780,0.6875,-11.0625,-9.1875,0
22800,1.25,-10.1875,-10.25,0
22820,-0.6875,-8.5,-11.1875,0
22840,-3.5,-7.0625,-12.1875,0
22860,-5.5,-7.4375,-12.3125,0
22880,-7,-7.375,-12,0
22900,-5.0625,-5.625,-11.1875,0
22920,-2.4375,-4.5,-11.0625,0
22940,-0.875,-4.75,-10.4375,0
22950,-3.1875,-4.3125,-10.75,0
22970,-3,-2.5625,-11.125,0
22990,-2.6875,-0.1875,-11.75,0
23010,-4.4375,-0.125,-12.125,0
23030,-7.4375,0.3125,-11.5,0
23050,-6.875,1,-10.1875,0
23070,-5.0625,2.25,-9.75,0
23090,-5.25,2.75,-8.75,0
23110,-3.5,3.125,-8.625,0
23130,-4.375,4.0625,-7.75,0
23150,-5.375,4.1875,-8.125,0
23170,-4.9375,3.875,-8.4375,0
23190,-3.25,3.9375,-8.3125,0
23210,-5.4375,4.125,-8.0625,0
23230,-5.125,4.3125,-8.5,0
23250,-4.5,3.5625,-8.9375,0
23270,-4.8125,3.0625,-9.25,0
23290,-3.1875,2.0625,-8.6875,0
23310,-4.375,1.6875,-8.125,0
23330,-4.4375,1.375,-7.8125,0
23350,-4.8125,1.9375,-7.5625,0
23370,-3.875,2.9375,-7.0625,0
23390,-1.5,1.4375,-7.6875,0
23410,-1.3125,0.4375,-7.6875,0
23430,-0.8125,1.5625,-8.375,0
23450,-4.125,2.625,-8.125,0
23470,-4.125,2.75,-7.875,0
23490,-1.0625,1.9375,-8.4375,0
23510,0.0625,1.5625,-9.4375,0
23530,0,2.5625,-9.5625,0
23550,-2,3.1875,-9.875,0
23570,-4.25,4.75,-10.1875,0
23590,-4.9375,6.3125,-10.375,0
23610,-3.5,6.25,-9.1875,0
23630,-2.4375,6.0625,-9.1875,0
23650,-2.4375,6.875,-9.25,0
23670,-2.5,8.8125,-9.25,0
23690,-4.75,9.5625,-9.4375,0
23710,-4.75,9.0625,-9.75,0
23730,-4.0625,8.375,-8.6875,0
23750,-4.125,8.5625,-8.9375,0
23770,-2.875,7.9375,-9.1875,0
23790,-3.1875,7.5,-10.25,0
23810,-5.25,7.875,-10.875,0
23830,-6.625,7.6875,-11.5,0
23850,-6.5625,8.125,-11.5,0
23870,-5.3125,8.1875,-10.9375,0
23890,-3.875,8.1875,-10.3125,0
23910,-1.375,8.375,-11.1875,0
23930,-2.625,9.3125,-11.625,0
23950,-5.25,10.25,-11.4375,0
23970,-5.6875,10.9375,-10.875,0
23990,-4.3125,9.75,-8.8125,0
24010,-1.9375,9.3125,-9.1875,0
24030,-2.4375,9.25,-9.625,0
24050,-6.125,9.75,-10.375,0
24070,-8.375,11.375,-10.1875,0
24090,-7.625,11.125,-9.8125,0
24110,-4.125,9.1875,-9.25,0
24130,-1.8125,9.25,-9.3125,0
24150,-2,8.9375,-8.5625,0
24170,-2.5,7.9375,-9.4375,0
24190,-5.1875,8,-9.9375,0
24210,-7.0625,8.375,-8.9375,0
24230,-7.4375,8,-8.1875,0
24250,-7.3125,7.6875,-7.8125,0
24270,-6.375,7.1875,-6.75,0
24290,-6,7.125,-6.375,0
24310,-4.875,7.125,-7.625,0
24330,-5.9375,7.125,-8,0
24350,-8.375,7.625,-7.875,0
24370,-8.1875,8.125,-7.8125,0
24390,-5.5625,7.625,-7.1875,0
24410,-3.625,7.375,-7.375,0
24430,-3.4375,7,-8.3125,0
24450,-3.5,7.5625,-8,0
24470,-4.875,7.9375,-8.375,0
24490,-6.0625,8.125,-9.375,0
24510,-6.4375,9,-10.125,0
24530,-5.9375,9.375,-9.125,0
24550,-4.25,8.4375,-8.8125,0
24570,-6.125,8.4375,-8.6875,0
24590,-6.625,9.625,-7.875,0
24610,-7.9375,10.75,-6.9375,0
24630,-7.5,10.25,-6.75,0
24650,-7.5625,9.9375,-6.125,0
24670,-8.1875,10.875,-5.5625,0
24690,-6.6875,11.3125,-5.375,0
24710,-6.6875,11.1875,-4.75,0
24730,-8.9375,11.4375,-4.3125,0
24750,-9.0625,11.375,-4.3125,0
24770,-9.625,11.5625,-4,0
24790,-9.1875,12.5625,-3.5,0
24810,-9,12.25,-2.9375,0
24830,-8.3125,11.9375,-2.3125,0
24850,-6.5625,12.125,-2.0625,0
24870,-9.9375,12.5,-1,0
24890,-11,13.5625,-0.4375,0
24910,-11.5625,13.0625,0.375,0
24930,-10.5625,12.1875,0.6875,0
24950,-8.375,12.6875,1.125,0
24960,-9.375,13.1875,1.625,0
24980,-12.3125,13.625,2,0
25000,-12.4375,14,1.75,0
25020,-9.6875,14.0625,1.6875,0
25040,-8.75,13.875,1,0
25060,-9,13.75,0.8125,0
25080,-9.5625,14.1875,1.0625,0
25100,-9.0625,13.875,0.875,0
25120,-7.375,13.0625,0.875,0
25140,-5.6875,12.875,0.6875,0
25160,-6.375,12.8125,0.375,0
25180,-9.25,15.0625,1.0625,0
25200,-9.875,15.625,0.875,0
25220,-5.8125,13.9375,1.5625,0
25240,-1.625,12.375,0.8125,0
25260,-2.375,13.4375,-0.75,0
25280,-7.625,15,-0.6875,0
25300,-9.6875,14.9375,-1.4375,0
25320,-7.25,12.6875,-2,0
25340,-5.125,11.625,-2.5625,0
25360,-3.8125,11.3125,-2.875,0
25380,-6.5,11.5625,-2.9375,0
25400,-9.4375,11.6875,-2.6875,0
25420,-10.4375,11.3125,-2.125,0
25440,-10,11.375,-1.4375,0
25460,-7.9375,12.1875,-1.3125,0
25480,-6.25,12.4375,-1.0625,0
25500,-7.0625,12,-1.0625,0
25520,-5.9375,10.8125,-1.3125,0
25540,-5.8125,10,-2.125,0
25560,-6.8125,10.875,-1.4375,0
25580,-9,11.875,-1,0
25600,-12,13.75,-0.5,0
25620,-11.3125,14.4375,0.25,0
25640,-9.0625,11.8125,2.1875,0
25660,-5,9.75,4,0
25680,-2.6875,10.4375,2.875,0
25700,-5.875,10.5625,2,0
25720,-10.125,10.1875,1.125,0
25740,-12.25,10.0625,0.625,0
25760,-12.8125,9.375,1.0625,0
25780,-11.25,9,0.8125,0
25800,-10.125,8.3125,0.5,0
25820,-9.6875,8.5625,0.6875,0
25840,-9.6875,10,0.4375,0
25860,-10.5625,10.75,0.25,0
25880,-10.75,11.0625,0.6875,0
25900,-10.875,12.6875,3.1875,0
25920,-10.3125,13.6875,5.5,0
25940,-7.625,13.5625,5.25,0
25960,-4.25,12.5625,6.125,0
25980,-3,13.3125,5.4375,0
26000,-5.75,14,3.4375,0
26020,-10.5625,13.5625,3.1875,0
26040,-11.75,13.1875,2.8125,0
26060,-8,13.25,2.3125,0
26080,-5.375,13,0.5,0
26100,-4.0625,13.5625,-0.5,0
26120,-5.3125,13.5625,0.3125,0
26140,-6.375,13.5,-0.25,0
26160,-2.75,11.75,0.0625,0
26180,-1.875,9.9375,0,0
26200,-3.125,9.6875,-0.0625,0
26220,-5.875,10.625,0.5625,0
26240,-9,10.9375,2.3125,0
26260,-7.125,8.875,3.9375,0
26280,-6.75,7.9375,4,0
26300,-5.4375,7.9375,4.5,0
26320,-6.3125,7.75,4.6875,0
26340,-9.6875,8,6.3125,0
26360,-11.75,7.4375,6.875,0
26380,-9.125,6.5625,7.4375,0
26400,-9.125,5.5625,7.6875,0
26420,-6.3125,5.6875,7.875,0
26440,-7.25,5.75,7.625,0
26460,-9.25,5.75,8.0625,0
26480,-10.3125,6.3125,8.5625,0
26500,-8.625,6,8.9375,0
26520,-5.4375,4.875,9.625,0
26540,-3.5625,4.5,9.6875,0
26560,-5.75,5.6875,10.125,0
26580,-8.0625,5.875,11.3125,0
26600,-9.125,6.625,12.5625,0
26620,-7,6.625,13,0
26640,-3.625,6.0625,13.9375,0
26660,-3.875,6.5,15.0625,0
26680,-3.1875,5.6875,15.5625,0
26700,0.0625,4.375,14.8125,0
26720,1.5625,3.1875,14.25,0
26740,-2.375,3.9375,14.9375,0
26760,-4.875,4.75,14.9375,0
26780,-6.3125,2.625,16.3125,0
26800,-3.1875,1.375,17.1875,0
26820,1,0.875,17.0625,0
26840,0.25,0.0625,16.4375,0
26860,-2.9375,-0.0625,16.8125,0
26880,-3,-0.0625,16.5,0
26900,0,-0.875,16.1875,0
26920,-0.8125,-1.5,14.1875,0
26940,-0.875,-1.875,13.8125,0
26960,3.6875,-4.1875,13.25,0
26980,6.25,-6.125,11.75,0
27000,4.1875,-8.0625,9.875,0
27020,0.5625,-9.0625,10.25,0
27040,1.4375,-11.375,11.125,0
27060,2.3125,-14.25,10.5625,0
27080,2.4375,-14.75,10.625,0
27100,2.25,-15.0625,10.6875,0
27120,1.875,-16.8125,10.75,0
27140,2.625,-17.5625,10.375,0
27160,4,-16.9375,9.0625,0
27180,4.9375,-16.5625,8.8125,0
27200,4.1875,-16.8125,9.375,0
27220,4.6875,-17.0625,9.25,0
27240,8.375,-16.875,8.1875,0
27260,9.6875,-17.1875,8.5,0
27280,9.1875,-17.1875,8.625,0
27300,8.25,-16.8125,7.4375,0
27320,7.6875,-17.4375,6.9375,0
27340,7.6875,-17.75,7.3125,0
27360,5.875,-18.375,6.9375,0
27380,6.125,-19.375,7.3125,0
27400,6.4375,-19.9375,6.375,0
27420,5.375,-20.25,5.5,0
27440,4.0625,-20.0625,5.1875,0
27460,2.0625,-20.8125,5.4375,0
27480,1.875,-22.1875,5.125,0
27500,2.875,-23.375,6,0
27520,4.625,-24.5,7.1875,0
27540,3.375,-25.0625,5.9375,0
27560,1.125,-26.3125,4.3125,0
27580,-1.75,-26.375,4.9375,0
27600,1.25,-24.875,5.3125,0
27620,5.625,-25.25,3.5625,0
27640,6.5,-25.75,3.875,0
27660,6.5625,-25.875,4.6875,0
27680,9.375,-26.8125,4.125,0
27700,10,-27,2.25,0
27720,6,-27.875,2.0625,0
27740,5.375,-27.8125,2.3125,0
27760,4.5625,-28.125,0.9375,0
27780,3,-29.3125,-0.3125,0
27800,2.5,-30.6875,1.4375,0
27820,3.875,-32.375,1.875,0
27840,4.5625,-30.9375,-0.3125,0
27860,-1.8125,-30.1875,-0.6875,0
27880,-2.6875,-30.125,2.0625,0
27900,5.4375,-30.1875,1.8125,0
27920,10,-28.4375,0.1875,0
27940,7,-26.75,0.6875,0
27960,7.5,-25.75,1.375,0
27980,4.25,-25.5,0.5625,0
28000,2.875,-24.9375,-0.9375,0
28020,4.1875,-24.125,-2.875,0
28040,4.6875,-23,-2.625,0
28060,2.875,-24.125,-3.75,0
28080,1.125,-24.1875,-4.4375,0
28100,0.875,-23.3125,-4.625,0
28120,-0.0625,-22.9375,-5.4375,0
28140,-1,-23.25,-6.8125,0
28160,-2,-23.625,-7.375,0
28180,-1.1875,-23.3125,-9.3125,0
28200,-1.4375,-22.375,-11.75,0
28220,-2.25,-21.4375,-12.8125,0
28240,-1.6875,-21.75,-13.25,0
28260,-0.5,-22.625,-14.25,0
28280,-0.625,-22.875,-15.25,0
28300,-2.9375,-23.1875,-14.8125,0
28320,-3.5625,-23.3125,-14.25,0
28340,-3.25,-22.4375,-14.75,0
28360,-5.4375,-21.875,-16.5,0
28370,-6.9375,-22.25,-17,0
28390,-5.375,-21.625,-17.875,0
28410,-2.25,-20.625,-19.875,0
28430,-0.125,-20.5625,-20.9375,0
28450,1,-19.6875,-20.75,0
28470,-0.5,-18.4375,-20.9375,0
28490,-1,-17.6875,-21,0
28510,-0.3125,-17.625,-20.5,0
28530,0.1875,-16.8125,-20.6875,0
28550,1.75,-15.9375,-19.75,0
28570,-0.6875,-15.5,-18,0
28590,-3.375,-14.8125,-17.3125,0
28610,-3.0625,-14.25,-16.375,0
28630,0.6875,-14.5625,-15.9375,0
28650,1.25,-14.6875,-16.125,0
28670,-1.9375,-12.875,-16.5625,0
28690,-3.75,-12.1875,-16.5625,0
28710,-5.25,-12.0625,-15.6875,0
28730,-4.4375,-11.25,-15.0625,0
28750,-1.375,-10.1875,-14.75,0
28770,1.75,-9.875,-14.875,0
28790,0.75,-8.25,-14.375,0
28810,-3.25,-4.8125,-13.5625,0
28830,-3.5,-3.3125,-11.25,0
28850,-3.375,-4.8125,-6.875,0
28870,1.125,-4.4375,-5.75,0
28890,3.5,-3.75,-6.125,0
28910,0.75,-2.8125,-7.0625,0
28930,-2.75,-1.5625,-7.3125,0
28950,-2.75,0.6875,-7.375,0
28970,1,0.375,-7.8125,0
28990,2.8125,0.125,-8.375,0
29010,-0.75,1.3125,-8.5625,0
29030,-1.25,2,-8,0
29050,-2.375,2.5625,-8,0
29070,-2.3125,3.6875,-8.8125,0
29090,-2.1875,4.5,-10.625,0
29110,-3.1875,4.3125,-10.8125,0
29130,-6.125,4.75,-10.375,0
29150,-3.6875,6.1875,-11.4375,0
29170,-3.25,6.25,-11.1875,0
29190,-5.9375,5.125,-11.5625,0
29210,-4.125,5.1875,-10.9375,0
29230,-2.375,6.3125,-10.8125,0
29250,-3.375,6.4375,-11.5,0
29270,-5.4375,6.625,-11.5,0
29290,-7.5625,8.625,-10.1875,0
29310,-4.9375,9.125,-10.875,0
29330,-3.875,8.875,-11.1875,0
29350,-5.75,9.5,-10.4375,0
29370,-6.6875,9.8125,-9.8125,0
29390,-5.9375,11.375,-10.25,0
29410,-6.6875,12.125,-11.25,0
29430,-9.625,12.5625,-11.1875,0
29450,-10.875,14.25,-10.75,0
29470,-7.75,13.75,-10.1875,0
29490,-6.25,12.625,-10.5625,0
29510,-7.0625,12.6875,-10.25,0
29530,-8.5625,12.6875,-9.9375,0
29550,-13.875,13.625,-9.625,0
29570,-17.125,13.875,-9.3125,0
29590,-15.4375,13.625,-8.875,0
29610,-13.0625,13.3125,-8.0625,0
29630,-11.3125,14.25,-7.3125,0
29650,-14.0625,16,-7.5625,0
29670,-13.375,17.5625,-7.75,0
29690,-13.0625,17.75,-7.25,0
29710,-10.9375,17.25,-6.375,0
29730,-9.625,17.5,-7.4375,0
29750,-10.3125,18.1875,-8.4375,0
29770,-13.6875,18.625,-9,0
29790,-16.1875,18.5625,-8.9375,0
29810,-15.875,18.75,-8.6875,0
29830,-13.5625,19.4375,-8.875,0
29850,-13.375,20,-8.3125,0
29870,-14.5,19.4375,-8.4375,0
29890,-15.25,20.1875,-9.1875,0
29910,-13.8125,21.1875,-8.8125,0
29930,-11.5,21.375,-9.8125,0
29950,-11.0625,21.1875,-10.625,0
29970,-12,21.0625,-10.0625,0
29990,-11.1875,21.375,-9.375,0
30010,-9.75,21.5,-10.25,0
30030,-9.5625,20.4375,-11,0
30050,-10.5,20.8125,-11.75,0
30070,-12.25,21.3125,-11.8125,0
30090,-12.6875,20.8125,-11.0625,0
30110,-13.125,20.75,-10.0625,0
30130,-12,21.375,-9.3125,0
30150,-9.75,22,-8.125,0
30170,-11.0625,21.875,-7.5625,0
30190,-12.375,23.125,-5.3125,0
30210,-9.6875,21.0625,-3.5625,0
30240,-6.3125,19.0625,-2.625,0
30260,-8,18.25,-2.375,0
30280,-9.6875,18.75,-1.5625,0
30300,-9,18.0625,-1.5,0
30320,-9.125,16.8125,-2.125,0
30340,-6.75,16,-1.9375,0
30350,-3.875,15.375,-1.0625,0
30370,-5.1875,14.875,-0.9375,0
30390,-8.25,15.9375,-1.25,0
30410,-10.125,16.625,0.125,0
30430,-7.25,16.25,0.4375,0
30450,-5.9375,16.25,0.6875,0
30470,-7.125,18.0625,2,0
30490,-9,19.1875,2.4375,0
30510,-8.375,18.75,3,0
30530,-6.9375,19.5625,3.125,0
30550,-5.8125,21.6875,3.6875,0
30570,-5.9375,22.75,4.6875,0
30590,-5.4375,22.5625,5.375,0
30610,-4.875,22.3125,6.3125,0
30630,-2.75,21.125,7.875,0
30650,2.8125,19.5625,9.1875,0
30670,-0.375,21.375,8.8125,0
30690,-10.875,24.5625,9.1875,0
30710,-18.875,24.9375,11,0
30730,-16.6875,22.75,10.875,0
30750,-9.625,20.375,10.4375,0
30770,-3.9375,19.5,10.625,0
30790,-2.375,20.1875,11.875,0
30810,-7.5625,23.1875,11.375,0
30830,-9.875,24.3125,10.5625,0
30850,-6.75,21.5,10.8125,0
30870,-3.375,19.75,10.125,0
30890,1.375,20.8125,8,0
30910,4.625,21.375,7.25,0
30930,0.9375,22,6.625,0
30950,-3.5625,22.6875,6.9375,0
30970,-2.9375,22.5625,6.9375,0
30990,-0.6875,21.8125,6.5625,0
31010,-3.0625,24.75,8.6875,0
31030,-4.5625,26.4375,13.25,0
31050,-1,22.75,15.3125,0
31070,2.3125,19.6875,14.125,0
31090,6,21,14.25,0
31110,2.125,23.25,17.6875,0
31130,-5.25,24.625,17.5625,0
31150,-5.625,23.9375,17.5625,0
31170,-2.3125,23,18.25,0
31190,0.625,23.625,19.5,0
31210,4.375,22.375,20.125,0
31230,4.6875,20.4375,21.4375,0
31250,3.4375,20,21.625,0
31270,1.75,17.75,20.75,0
31290,1.8125,16.375,21.0625,0
31310,0.25,14,20.5625,0
31330,-3.25,11.25,20.875,0
31350,-6.25,8.9375,21.4375,0
31370,-6.1875,6.625,21.5625,0
31390,-5.375,5.25,20.3125,0
31410,-4.1875,3.125,17.875,0
31430,-4.25,1.25,16.8125,0
31450,-4.625,-1.1875,14.6875,0
31470,-2.1875,-2.625,13.125,0
31490,-3,-4.25,12.6875,0
31510,-0.9375,-6.4375,10.75,0
31530,1.5,-7.5,8.3125,0
31550,-0.25,-8.1875,8.6875,0
31570,-1.5625,-10.6875,9.8125,0
31590,-0.875,-12.3125,10.4375,0
31610,0.5625,-11.6875,10.5,0
31630,-3,-12.9375,12.5625,0
31650,-4.6875,-13.5625,14.6875,0
31670,-2.4375,-15.1875,13.6875,0
31690,-1.1875,-15.625,11.9375,0
31710,-3.3125,-14.8125,12.3125,0
31730,-3.125,-14.125,10.9375,0
31750,-3,-15.1875,9.8125,0
31770,-1.6875,-16.25,10.4375,0
31790,1.5625,-15.875,9.5625,0
31810,1.6875,-15.5625,8.875,0
31830,-4.5,-15.1875,10.8125,0
31850,-4.75,-14.75,12.5,0
31870,0.6875,-14.125,12.0625,0
31890,1.125,-14.1875,10.3125,0
31910,-3,-14.5,10.75,0
31930,-4.125,-14.625,11.5,0
31950,0.9375,-14.625,10.375,0
31970,0.6875,-14.5,9.5,0
31990,-3.1875,-13.5625,9.6875,0
32010,-4.5625,-13.125,8.1875,0
32030,-4.4375,-14.375,7.9375,0
32050,-1.1875,-14.75,8.6875,0
32070,2.875,-14.875,7.6875,0
32090,1.1875,-15,6.4375,0
32110,-4,-14.3125,7.5625,0
32130,-5,-15.1875,8,0
32150,-3.375,-16.5,7.5625,0
32170,-3.6875,-17.5,7.1875,0
32190,-5.375,-17.5625,6.875,0
32210,-7.375,-17.5625,6.9375,0
32230,-6.625,-16.5625,7.9375,0
32250,-3.1875,-15.5,5.75,0
32270,-0.375,-16.8125,4.9375,0
32290,-1.0625,-18.6875,6.4375,0
32310,-0.125,-18.125,5.8125,0
32330,-0.5,-17.1875,1.8125,0
32350,-4.125,-15.8125,2.25,0
32370,-4.375,-15.8125,1.6875,0
32390,-3,-17.4375,0.375,0
32410,0.75,-18.5625,-0.5,0
32430,0.6875,-19.0625,-0.875,0
32450,-2.8125,-18.3125,-2.3125,0
32470,-6,-18.1875,-3.625,0
32490,-6.4375,-18.5,-3.75,0
32510,-5.5,-18.625,-4.5625,0
32530,-5.0625,-19.8125,-5.5,0
32550,-4.8125,-20,-5.25,0
32570,-6.3125,-20.8125,-4.75,0
32590,-9.3125,-21.5,-4.25,0
32610,-12.6875,-23.3125,-3.375,0
32630,-16.875,-24.5625,-2.25,0
32650,-16.375,-24.5,-2.375,0
32670,-13.0625,-24.5625,-2.6875,0
32690,-16.5,-24.4375,-4.375,0
32710,-19.5625,-23.375,-4.9375,0
32730,-15.0625,-23.9375,-4.1875,0
32750,-7.875,-23.4375,-5.375,0
32770,-5.8125,-22.875,-7.875,0
32790,-8.75,-22.0625,-7.4375,0
32810,-9.25,-19.9375,-7,0
32830,-5.5,-19.5,-8.5625,0
32850,-2.75,-19.625,-8.8125,0
32870,-3.0625,-20.125,-7.8125,0
32890,-3.75,-17.6875,-7.875,0
32910,-4.3125,-16.625,-8.125,0
32930,-6.3125,-16.6875,-6.375,0
32950,-9.8125,-17.1875,-4.875,0
32970,-7.125,-15.0625,-5.1875,0
32990,-4.3125,-14.125,-5.4375,0
33010,-5.5,-13.875,-4.9375,0
33030,-7.4375,-12.4375,-4.3125,0
33050,-5.8125,-9.875,-4.6875,0
33070,-2.3125,-10.25,-4.625,0
33090,-0.3125,-10.8125,-4.875,0
33110,-1.875,-11.6875,-6.0625,0
33130,-2.0625,-12.375,-7.0625,0
33150,-3.6875,-11.8125,-7.625,0
33170,-5.1875,-11.6875,-7.9375,0
33190,-4.25,-12.8125,-8.5,0
33210,-3.9375,-15.25,-8.1875,0
33230,-4.6875,-15.25,-7.3125,0
33250,-5.0625,-15,-7,0
33270,-7,-15.9375,-6.375,0
33290,-12.1875,-14.5625,-5.5,0
33310,-10.9375,-13.0625,-4.875,0
33330,-8.9375,-12.1875,-4.25,0
33350,-3.8125,-11.75,-3.0625,0
33370,0.125,-12.75,-2.9375,0
33390,-0.5625,-12.1875,-2.9375,0
33410,-2.75,-8.8125,-4,0
33430,-4.1875,-7.625,-4.8125,0
33450,-6.4375,-8.3125,-4.5,0
33470,-3.75,-9.125,-5.5625,0
33490,-0.1875,-8.8125,-5.9375,0
33510,0,-8.5625,-5.75,0
33530,-4.375,-7.5625,-5.8125,0
33550,-6.125,-7.5625,-5.75,0
33570,-4.4375,-9.625,-6.0625,0
33590,-0.125,-10.125,-6.8125,0
33610,5.5625,-9.1875,-8.1875,0
33630,2.375,-8.5,-9.5,0
33650,-4,-7.1875,-9.3125,0
33670,-6.0625,-6.75,-9.4375,0
33690,-2.0625,-8.125,-9.0625,0
33710,3.5625,-8.8125,-7.375,0
33730,4,-8.375,-7.3125,0
33750,-0.875,-8.4375,-6.9375,0
33770,-4.5,-7.3125,-5.3125,0
33780,-2.75,-7.625,-3.75,0
33800,-0.25,-8.6875,-4.1875,0
33820,-0.75,-8.6875,-4.125,0
33840,-1.5,-7.75,-4.6875,0
33860,-1.375,-7.5625,-5.0625,0
33880,-1.0625,-7.375,-5.75,0
33900,0,-7.875,-6.875,0
33920,0.4375,-7.625,-7.1875,0
33940,1.125,-7.0625,-8,0
33960,1.375,-7.3125,-8.875,0
33980,1.1875,-7.375,-9.8125,0
34000,-0.0625,-7.6875,-10.125,0
34020,-1.5,-6.5,-9.5625,0
34040,-1.5625,-6.25,-8.875,0
34060,-0.75,-6.375,-8.8125,0
34080,0.3125,-6.6875,-8.75,0
34100,0.1875,-7.375,-9.125,0
34120,-1.1875,-6.25,-9.125,0
34140,-2.5625,-5.5625,-9,0
34160,-3.375,-6.6875,-8.5,0
34180,-1.625,-7.25,-8.25,0
34200,-0.8125,-6.875,-9.125,0
34220,-2.75,-5.9375,-9.6875,0
34240,-3.1875,-5.875,-9.375,0
34260,-3.25,-5.25,-8.6875,0
34280,-3,-3.9375,-8,0
34300,-1.5625,-3.875,-7.1875,0
34320,1.125,-3.75,-6.875,0
34340,1.5,-3.375,-6.8125,0
34360,0.25,-2.0625,-6,0
34380,-1.8125,-1.5,-4.8125,0
34400,-0.125,-2.4375,-5.25,0
34420,0.25,-3.125,-6.4375,0
34440,0.0625,-2.0625,-7.0625,0
34460,0.375,-1.3125,-7.0625,0
34480,-1.3125,-1.5625,-7.375,0
34500,-4.8125,-1.0625,-7.4375,0
34520,-4.75,-0.125,-6.5,0
34540,-0.25,-0.1875,-5.5,0
34560,2.9375,-1.0625,-5.4375,0
34580,1.375,-0.4375,-5.4375,0
34600,-1.125,0.5625,-5.4375,0
34620,-0.4375,1.1875,-5.5,0
34640,0.5,-0.4375,-6.0625,0
34660,-0.6875,0.3125,-6.0625,0
34680,-0.9375,0.5,-5.1875,0
34700,-0.875,-0.5,-5.4375,0
34720,0.1875,-1.625,-6.4375,0
34740,0.8125,-2.25,-6.875,0
34760,1.5,-1.9375,-6.8125,0
34780,0.8125,-3.25,-7.0625,0
34800,-2.25,-4.75,-7.9375,0
34820,-1.8125,-5.0625,-8.375,0
34840,1.4375,-4.5625,-9.9375,0
34860,-0.375,-4.75,-11.5625,0
34880,-4.3125,-4.375,-10.6875,0
34900,-6.0625,-2.1875,-9.125,0
34920,-2.75,-2.1875,-8.875,0
34940,0.875,-4.0625,-7.9375,0
34960,0.9375,-3.3125,-8,0
34980,-1,-1.25,-8.875,0
35000,-3.375,-0.4375,-9.3125,0
35020,-5.75,0.5,-9.0625,0
35040,-3.75,0.4375,-8.4375,0
35060,-0.4375,0.5,-7.9375,0
35080,0.75,1.25,-8.9375,0
35100,-1.125,1.9375,-8.875,0
35120,-2.5625,2.125,-7.875,0
35140,-2.5,3.25,-6.8125,0
35160,-0.625,4.75,-7.125,0
35180,1.125,2.5625,-6.9375,0
35200,0.3125,2.8125,-6,0
35220,-0.0625,4.875,-5.75,0
35240,0.3125,5.3125,-6,0
35260,-1.75,4.6875,-4.9375,0
35280,-1.75,4.375,-4.5625,0
35300,1.4375,4.3125,-3.75,0
35320,1.8125,4.4375,-4.125,0
35340,3.375,3.9375,-5.875,0
35360,-0.375,3.6875,-6.375,0
35380,-2.625,4.6875,-5,0
35400,1,4.1875,-5.125,0
35420,2.5625,3,-5.25,0
35440,3.1875,2.375,-5.8125,0
35460,-2.4375,1.75,-6.875,0
35480,-8.625,3.125,-5.8125,0
35500,-8.5,3.625,-4.0625,0
35520,-5.125,2.75,-3.8125,0
35540,-3.8125,1.8125,-3.625,0
35560,-2.125,1.625,-2.5,0
35580,0.0625,1.625,-2.625,0
35600,-0.1875,1.875,-2.375,0
35620,-2.3125,3.3125,-2.9375,0
35640,-2.5625,2.75,-3.0625,0
35660,-2.8125,2.0625,-4.375,0
35680,-0.6875,2.5625,-4.0625,0
35700,1.0625,1.8125,-4.4375,0
35720,-1.5,2.0625,-5.125,0
35740,-3.4375,3.125,-4.1875,0
35760,-0.75,2.5,-4.25,0
35780,-1.1875,2,-4.125,0
35790,-1.5,3,-3.6875,0
35810,1.125,3.125,-4,0
35830,2.1875,1.8125,-3.8125,0
35850,0.5,1.75,-2.125,0
35870,-0.3125,1.625,-2.125,0
35890,-0.1875,1.375,-2.6875,0
35910,-2.4375,1.6875,-2.5,0
35930,-1.5625,1.5,-3.6875,0
35950,-0.6875,0.8125,-5.8125,0
35970,-0.375,1.75,-6,0
35990,-1.0625,1.25,-5.9375,0
36010,-2.1875,2.875,-5.75,0
36030,-2.875,4.375,-6.5625,0
36050,-2.125,3.375,-5.75,0
36070,-1,2.125,-3.5625,0
36090,2.25,2.125,-2.9375,0
36110,5.6875,2.8125,-4.4375,0
36130,2.25,3.4375,-4,0
36150,-2.625,4.1875,-3.1875,0
36170,-2.6875,3.5625,-5.1875,0
36190,-1.3125,2.1875,-4.9375,0
36210,0.8125,2.1875,-3.9375,0
36230,0.9375,3.5,-3.125,0
36250,-2.25,4.75,-3.6875,1001
36270,-3.9375,3,-3.6875,0
36290,-2,2.625,-2.0625,0
36310,1.75,2.5625,-1.5625,0
36330,2.0625,3.125,-1.375,0
36350,1.0625,3.3125,-1.3125,0
36370,0.8125,2.0625,-0.25,0
36390,-0.0625,0.9375,-0.75,0
36410,-0.9375,1.125,-2.5625,0
36430,0.3125,0.4375,-2.8125,0
36450,-0.8125,-1.25,-2.1875,0
36470,-3.0625,-2.0625,-3.5,0
36490,-2.9375,-0.625,-3.3125,0
36510,-3.0625,0.5,-2.6875,0
36530,-3.6875,0.25,-3.125,0
36550,-3.625,1.6875,-2.75,0
36570,1,2.125,-2.25,0
36590,4.8125,1.6875,-1.3125,0
36610,6.8125,2.5625,-1.6875,0
36630,10.125,-0.125,-2.6875,0
36650,24.75,-7.5,-12.0625,0
36670,4.6875,6.3125,-11.5625,0
36690,-1.875,14.4375,-4.3125,0
36710,13.8125,10.75,-7.125,0
36730,24.4375,2.4375,-6.1875,0
36750,20.875,1.9375,-2.6875,0
36770,5.875,0.875,-3.6875,0
36790,-0.375,1.75,0.1875,0
36810,3.4375,1.9375,4.6875,0
36830,13.375,1.875,5.5,0
36850,20.375,-1.0625,6.6875,0
36870,22.75,-1.5,11.5,0
36890,22.5,0.3125,16.9375,0
36910,29.6875,4.9375,19.3125,0
36930,43,8.5,23.0625,0
36950,49.8125,4.0625,26.75,0
36970,50.375,4.9375,28,0
36990,55.3125,14.0625,33.875,0
37010,63.8125,18.8125,42.5,0
37030,63.0625,15.6875,48.9375,0
37050,70.125,18.9375,54,0
37070,70.25,31,62.3125,0
37090,65.3125,30.5,64.6875,0
37110,58.125,26.75,60.8125,0
37130,61.375,31.125,58.25,0
37150,67.8125,33.5625,60.8125,0
37170,70.375,29.0625,59.0625,0
37190,61.625,24.5625,54.125,0
37210,54.1875,25.75,48.5625,0
37230,51.8125,27.4375,43.75,0
37250,48.8125,21.6875,40.8125,0
37270,36.375,17.3125,39.875,0
37290,27.4375,16.0625,37.5,0
37310,30.5,12.9375,37.1875,0
37330,38.875,6.4375,36.5,0
37350,39.875,3.3125,34.4375,0
37370,31.5,4.625,32.25,0
37390,18.5625,4.6875,33.1875,0
37410,8.0625,4.1875,29.875,0
37430,6.375,4.9375,24.25,0
37450,7,4.5,23.3125,0
37470,8.8125,3.125,24.5,0
37490,8.75,4,23.125,0
37510,10.3125,4.8125,21.625,0
37530,10.5,4.6875,20.5,0
37550,4.875,6.1875,19.3125,0
37570,-1.3125,8.25,17.5,0
37590,-1.375,7.875,16.5,0
37610,4.8125,4.1875,16.1875,0
37630,7.5,1.625,15.1875,0
37650,6.625,1.0625,15,0
37670,2.4375,-0.0625,14.125,0
37690,1.3125,-0.875,12.6875,0
37710,2,-1.25,12.1875,0
37730,1.1875,-2.75,12.4375,0
37750,0.1875,-2.875,10.875,0
37770,0,-1.75,10.5,0
37790,1.1875,-2.3125,9.875,0
37810,4.1875,-2.375,7.625,0
37830,5.25,-1.0625,7.1875,0
37850,4.6875,0.1875,6.5,0
37870,2.4375,0,5.5,0
37890,1.5,-0.1875,5.0625,0
37910,4.125,0.3125,5.4375,0
37930,5.75,-2.5,5.125,0
37950,3.75,-4.6875,4.1875,0
37970,2.5625,-4.25,2.1875,0
37990,2.875,-5.1875,0.875,0
38010,4,-6.25,0.3125,0
38030,2.5,-7.625,-0.4375,0
38050,3.625,-7.125,-0.25,0
38070,5.5625,-6.75,-0.4375,0
38090,3.8125,-5.9375,-0.25,0
38110,0.625,-5.25,1.1875,0
38130,-0.125,-4.375,2.4375,0
38150,1.4375,-3.6875,2.9375,0
38170,1.8125,-4.125,3,0
38190,3.25,-3.4375,2,0
38210,2,-2.4375,0.75,0
38230,0.4375,-2.0625,1.3125,0
38250,0.1875,-1.375,1.3125,0
38270,0.75,-2.0625,1.0625,0
38290,2.375,-2.0625,1.875,0
38310,2.625,-2.125,2.8125,0
38330,3.9375,-2.5,2.9375,0
38350,4.625,-2.4375,2,0
38370,1.875,-2.25,0.125,0
38390,-0.25,-2.1875,-0.5625,0
38410,0.8125,-3.25,-0.5,0
38430,2.875,-3.25,-0.5,0
38450,5.0625,-2.125,-1.375,0
38470,5,-1.1875,-2.5625,0
38490,5.75,1.9375,-2.5625,1000
38510,8.6875,2.0625,-0.875,0
38530,11.6875,1.0625,-0.125,0
38550,10.25,1.375,0.75,0
38570,5.9375,1.5,0.4375,0
38590,5.5,0.625,-0.5,0
38610,4.6875,-0.6875,-2.5625,0
38630,4.875,-0.75,-2.8125,0
38650,6.125,-1.4375,-2.6875,0
38670,6.3125,-2.5625,-3.125,0
38690,4.5625,-2.875,-4.375,0
38710,2.25,-2.375,-4.5,0
38730,-0.9375,-2.0625,-3.4375,0
38750,-1.625,-2.875,-3.4375,0
38770,-1.125,-3.3125,-2.9375,0
38790,-0.1875,-3.0625,-2.1875,0
38810,0.1875,-2.4375,-2.6875,0
38830,-2.8125,-2.0625,-3,0
38850,-3.625,-1.8125,-2.25,0
38870,-2.9375,-3.1875,-1.25,0
38890,0.0625,-4.6875,-0.0625,0
38910,0.5625,-5.0625,1,0
38930,-2.25,-4.25,1.9375,0
38950,-4.3125,-3.3125,1.625,0
38970,-5.375,-2.0625,0.8125,0
38990,-2.75,-1.8125,1.6875,0
39010,1.3125,-1.875,1.5625,0
39030,3,-2.0625,1.9375,0
39050,1.75,-1.0625,1.75,0
39070,-1.75,0.125,1.5,0
39090,-1.4375,-0.875,1.625,0
39110,1.3125,-1.875,2.0625,0
39130,3.5,-1.75,1.5625,0
39150,1.625,-1.1875,0.5,0
39170,-0.25,-0.0625,0.625,0
39190,-0.1875,-1.375,1.1875,0
39210,2.0625,-2.3125,0.5625,0
39220,1.5625,-2.25,1.25,0
39240,-0.0625,-2.0625,1.75,0
39260,-1.8125,-2.1875,2.1875,0
39280,-1.5625,-1.75,2.125,0
39300,0.6875,-1.5,2.0625,0
39320,0.25,-1.6875,1.9375,0
39340,-0.9375,-2.4375,2.3125,0
39360,-0.5,-1.3125,0.3125,0
39380,1,-1.8125,-0.75,0
39400,1.3125,-2.8125,-1.3125,0
39420,0.75,-3.25,-2.8125,0
39440,0.625,-4.0625,-3.9375,0
39460,0,-4.125,-4.25,0
39480,0,-4.9375,-4.375,0
39500,0.5625,-6.125,-4.1875,0
39520,0.375,-7.0625,-4,0
39540,-0.6875,-6.9375,-4.25,0
39560,-0.9375,-5.75,-5.5,0
39580,-0.375,-5.625,-5.6875,0
39600,1.875,-5.5,-6.0625,0
39620,3.8125,-6.1875,-6.625,0
39640,4.25,-7,-8.1875,0
39660,3.1875,-7.75,-8.5625,0
39680,1.9375,-8.3125,-9.125,0
39700,1,-8.0625,-8.8125,0
39720,3.125,-6.9375,-8.25,0
39740,6.0625,-7.125,-8.25,0
39760,8.0625,-7.25,-8.1875,0
39780,9.625,-7.1875,-9.25,0
39800,9.6875,-5.9375,-9.6875,0
39820,6,-5.4375,-9.1875,0
39840,4.375,-5.8125,-8.5625,0
39860,4.9375,-7,-7.4375,0
39880,5.875,-7.1875,-6.875,0
39900,2.875,-6.125,-7,0
39920,1,-4.9375,-6.0625,0
39940,2.4375,-5,-5.875,0
39960,4.375,-5.625,-7.0625,0
39980,4.3125,-5.125,-9.375,0
40000,4.5625,-4.3125,-9.5,0
40020,3.6875,-4.25,-9.5,0
40040,2.25,-5.0625,-10.5625,0
40060,0.75,-5.5625,-10.5,0
40080,0.625,-5.625,-9.75,0
40100,0.0625,-5.5625,-8.625,0
40120,0.0625,-5.3125,-8.25,0
40140,-1.125,-4.6875,-7.125,0
40160,-1.6875,-2.875,-6.5,0
40180,-1.875,-2.3125,-6.125,0
40200,0,-1.625,-6.0625,0
40220,1.8125,-1.75,-6.25,0
40240,1.8125,-0.25,-6.6875,0
40260,0.1875,1.8125,-7.625,0
40280,-0.625,1.4375,-6.75,0
40300,2.4375,0.5,-6.375,0
40320,5,-0.25,-6.5,0
40340,3.9375,0.0625,-5.9375,0
40360,-0.8125,2.25,-5.75,0
40380,-0.75,4.125,-7.125,0
40400,0.75,2.9375,-6.5,0
40420,0.625,2.4375,-6.8125,0
40440,0.125,3.125,-7.4375,0
40460,0.1875,3.125,-7.5,0
40480,1.1875,3.8125,-8,0
40500,2.9375,3.9375,-8.5625,0
40520,2.875,3.125,-9.1875,0
40540,0.1875,4.3125,-9.625,0
40560,-1.6875,4.875,-9.5,0
40580,0.5,5.375,-8.3125,0
40600,3.875,4.75,-7.0625,0
40620,4.5625,3.5,-6.6875,0
40640,2.5625,3.9375,-7.3125,0
40660,-0.0625,5.8125,-8.3125,0
40680,-0.4375,7.125,-7.625,0
40700,0.9375,7.375,-7.25,0
40720,0.5625,8.125,-7.4375,0
40740,1.8125,9.625,-9.0625,0
40760,3,10.4375,-10.9375,0
40780,3,10.5625,-10.9375,0
40800,0.5,11.0625,-11.1875,0
40820,-1.8125,12.625,-11.3125,0
40840,-3.875,13.5625,-11.5625,0
40860,-2.625,13.125,-10.3125,0
40880,-0.3125,13.75,-8.4375,0
40900,2.3125,11.8125,-8.8125,0
40920,-0.75,11.25,-9.625,0
40940,-6.1875,11.6875,-9.8125,0
40960,-6.5,11.5,-9.625,0
40980,-5.4375,9.5,-9.625,0
41000,-3.6875,8.625,-10.375,0
41020,-4.3125,8.5625,-11.625,0
41040,-6.125,8.6875,-11.75,0
41060,-6.625,8.875,-11.875,0
41080,-7.1875,9.6875,-11.5625,0
41100,-5.75,10.4375,-12.0625,0
41120,-4.3125,10,-12.3125,0
41140,-4.875,9.375,-13.1875,0
41160,-5.1875,8.875,-14.1875,0
41170,-6,9.375,-13.3125,0
41200,-7.375,10.4375,-12.1875,0
41210,-7.4375,12.0625,-10.875,0
41230,-3.4375,11.4375,-9.4375,0
41250,0.4375,10.1875,-10.125,0
41270,0.375,10.9375,-11.9375,0
41290,-0.9375,12.9375,-13.75,0
41310,-2.625,14.625,-14.625,0
41330,-4.3125,15.5625,-14.4375,0
41350,-2,14.9375,-15,0
41370,0.3125,16,-14.25,0
41390,0.4375,17.75,-14.25,0
41410,0.0625,17.9375,-13.0625,0
41430,-1.3125,17.75,-13.375,0
41450,-1.0625,17.8125,-13,0
41470,-2.6875,19.1875,-11.5625,0
41490,-5.3125,21.125,-11.625,0
41510,-2.9375,21.4375,-11.875,0
41530,-2.9375,20.375,-11.625,0
41550,-4.4375,21.125,-12.8125,0
41570,-5.5,21.9375,-14.4375,0
41590,-4.5,22.25,-14.25,0
41610,-2.5625,19.875,-15.1875,0
41630,-1.75,18.75,-15.8125,0
41650,-3.875,18.8125,-16.9375,0
41670,-5.6875,17.75,-16.375,0
41690,-5.4375,16,-15.1875,0
41710,-2.5625,15.625,-15.5,0
41730,-2.5,15.25,-16.1875,0
41750,-5.9375,15.625,-16.25,0
41770,-7.125,15.4375,-16.875,0
41790,-6.25,15,-16.4375,0
41810,-5.1875,14.625,-16.0625,0
41830,-5.8125,14.0625,-15.5,0
41850,-6.625,13.4375,-15.9375,0
41870,-6.75,13.4375,-15.9375,0
41890,-8.125,14.625,-15.5,0
41910,-7.875,15.125,-15.5,0
41930,-9.625,15.625,-14.125,0
41950,-8.6875,15.9375,-14.3125,0
41970,-6.9375,15.125,-13.5,0
41990,-6.75,15.125,-12.8125,0
42010,-8.4375,15.9375,-12.9375,0
42030,-10.1875,16.125,-11,0
42050,-10.5,15.8125,-7.3125,0
42070,-7.1875,13.1875,-5.1875,0
42090,-5.6875,11,-4.6875,0
42110,-7.5,11.8125,-4.25,0
42130,-12.25,13.5625,-3.9375,0
42150,-14.25,12.375,-5.125,0
42170,-13.75,10.125,-5.5,0
42190,-10.1875,8.5,-5.25,0
42210,-9.3125,8.75,-4.4375,0
42230,-9.5625,9.625,-3.25,0
42250,-11.125,9.9375,-3.6875,0
42270,-11.625,10.125,-3.625,0
42290,-8.6875,10.5625,-3.6875,0
42310,-10.1875,11.5625,-1.625,0
42330,-12.8125,13.375,-0.75,0
42350,-11.5,13.5625,0.5,0
42370,-9.625,12.5625,3.4375,0
42390,-8.0625,11.625,5.25,0
42410,-10.75,11.5625,5.3125,0
42430,-10.9375,12,4.8125,0
42450,-10,10.9375,6,0
42470,-10.1875,9.75,6,0
42490,-10.25,10.0625,5.8125,0
42510,-10,9.625,5.3125,0
42530,-10.0625,9.1875,4.5,0
42550,-10.0625,9.3125,5.125,0
42570,-10.4375,8.9375,5.0625,0
42590,-12.125,8.1875,6.5,0
42610,-12.5,8.1875,7.3125,0
42630,-11.5625,7.9375,7.5625,0
42650,-11,7.3125,7.25,0
42670,-10.4375,5.1875,7.25,0
42690,-5.875,3,6.75,0
42710,-4,2.375,6.3125,0
42730,-5.6875,4.0625,4.875,0
42750,-7.875,5,6.0625,0
42770,-7.25,6.125,7.0625,0
42790,-7.1875,6.375,6.9375,0
42810,-7.5625,7.0625,7.75,0
42830,-4.5,9.125,8.9375,0
42850,-0.4375,9.875,9.4375,0
42870,-0.5,9.625,8.6875,0
42890,-4.6875,10.875,9.125,0
42910,-5.4375,12.3125,10.3125,0
42930,-4.4375,11.875,10.3125,0
42950,-0.0625,10.6875,10.5625,0
42970,1.8125,10.0625,10.875,0
42990,1.5625,10.25,11.375,0
43010,2.0625,10.5,11.1875,0
43030,-0.25,10.375,10.5625,0
43050,-3.8125,11.6875,11.5,0
43070,-4,13.5,12.625,0
43090,2.25,10.8125,13.0625,0
43110,5.6875,7.875,12.25,0
43130,4.5625,9.4375,12.0625,0
43150,0.75,11.25,12.9375,0
43170,-0.0625,11.5,13.375,0
43190,1.3125,10.75,13.3125,0
43210,2.9375,10.8125,13.875,0
43230,2.9375,12.125,14.75,0
43250,2.625,13.1875,15.1875,0
43270,5,12.75,15.5625,0
43290,7.0625,10.3125,15.25,0
43310,6.625,9.9375,14.375,0
43330,5.6875,10.8125,14.5,0
43350,1.375,10.5,13.25,0
43370,-0.625,8.25,13.1875,0
43390,0.375,7.25,13.25,0
43410,1.9375,6.4375,13.5,0
43430,2.5,5.4375,13.75,0
43450,0.5,4.1875,13.6875,0
43470,-2.625,3.375,13.9375,0
43490,-1.6875,2.3125,14.125,0
43510,-2.75,0.75,13.1875,0
43530,-3.125,1.375,12.875,0
43550,-4.4375,0.5,13.75,0
43570,-3.8125,-1.6875,14.8125,0
43590,-1.375,-3.375,14.1875,0
43610,0.3125,-3.125,12.625,0
43630,-0.625,-2.875,12.8125,0
43650,-1.4375,-4.6875,11.5625,0
43670,-2.8125,-5,9.875,0
43690,-2.375,-4.5,10.9375,0
43710,0.5625,-5.875,11.5625,0
43730,4.125,-8.5,9.875,0
43750,0.875,-8.9375,9.1875,0
43770,-0.625,-7.5625,9.1875,0
43790,0.8125,-7.9375,8.4375,0
43810,2.4375,-9.9375,8.3125,0
43830,3.5,-11.125,8.4375,0
43850,5.5,-11,9.25,0
43870,6,-11.625,9.5625,0
43890,5.75,-12.3125,8.125,0
43910,4.6875,-12,5.9375,0
43930,6.75,-12.6875,6.1875,0
43950,9.25,-15.8125,6,0
43970,8.375,-16.4375,4.6875,0
43990,7.0625,-15.625,4.625,0
44010,4.75,-15.6875,4.8125,0
44030,4.75,-16.875,5.0625,0
44050,3.875,-17.5,4.875,0
44070,5.4375,-17,6.1875,0
44090,4.5625,-17.125,6.3125,0
44110,3.5,-17.6875,6.1875,0
44130,2.375,-18.75,6.25,0
44150,0.75,-19.75,7.1875,0
44170,2.1875,-19.5625,6.4375,0
44190,2.5,-19.6875,7,0
44210,1.5,-19.625,7.125,0
44230,-1.0625,-19.9375,5.0625,0
44250,-0.9375,-18.0625,4.625,0
44270,1.125,-18.0625,6.125,0
44290,4.9375,-20.375,8.0625,0
44310,6,-20.875,7.5625,0
44330,2.6875,-19.1875,7.125,0
44350,-0.3125,-18.1875,8.6875,0
44370,0.75,-18.1875,8.125,0
44390,-0.8125,-19,7.4375,0
44410,-0.5,-18.75,9.125,0
44430,0.8125,-18.9375,9.9375,0
44450,1.375,-18.75,10.1875,0
44470,-0.1875,-19.25,11.1875,0
44490,-1.875,-18.5,11.9375,0
44510,-1.4375,-17.625,12.0625,0
44530,0.5,-18.625,11.25,0
44550,0.1875,-17.9375,10.625,0
44570,-1.125,-17.0625,9.8125,0
44590,0.0625,-16.8125,8.3125,0
44610,1.25,-18,7.5625,0
44630,2.75,-18.6875,7.0625,0
44650,2.75,-18.5625,5.9375,0
44660,1.9375,-18.125,4.625,0
44680,0.8125,-18.75,4.5625,0
44700,0.4375,-20,3.75,0
44720,0.375,-19.8125,1.9375,0
44740,0.1875,-18.875,1.6875,0
44760,0.9375,-19.375,2.125,0
44780,3.375,-20.5625,1.3125,0
44800,3.875,-20.5625,0.4375,0
44820,1.75,-19.3125,1.25,0
44840,1.5,-19.9375,1.1875,0
44860,0.75,-22.4375,1.375,0
44880,-0.9375,-23.0625,2.5625,0
44900,0.6875,-22.6875,2.6875,0
44920,0.625,-23.0625,0.625,0
44940,-0.75,-23.25,-1.125,0
44960,1.0625,-22.875,-1.1875,0
44980,4.375,-25.0625,-0.8125,0
45000,3.5,-25.5,-1.875,0
45020,3.1875,-24.375,-2.1875,0
45040,-0.1875,-25.25,-1,0
45060,-2.4375,-27.1875,-0.25,0
45080,-1.9375,-28,-1.125,0
45100,-2.75,-27.6875,-2.3125,0
45120,-4.5625,-27.0625,-3.125,0
45140,-8.6875,-26.6875,-5,0
45160,-11.1875,-26.0625,-6,0
45180,-10,-24.875,-6.4375,0
45200,-8,-23.4375,-6.875,0
45220,-5.0625,-23.375,-7.4375,0
45240,-2.5,-23.3125,-6.625,0
45260,-0.5,-22.625,-8.0625,0
45280,-3.1875,-21.0625,-10.6875,0
45300,-5.5625,-19.0625,-10.6875,0
45320,-5,-20.4375,-10.125,0
45340,-2.125,-23.4375,-10.3125,0
45360,-1.625,-24.25,-10.875,0
45380,-3.875,-22.6875,-11.375,0
45400,-7.875,-22.875,-10.3125,0
45420,-8.5,-24.1875,-9.5,0
45440,-6.875,-23.8125,-8.9375,0
45460,-6.625,-23.625,-7.9375,0
45480,-1.8125,-23.125,-7.25,0
45500,-1.5625,-22.25,-7.25,0
45520,-6.5625,-20.75,-7.8125,0
45540,-10.875,-17.9375,-7.5,0
45560,-5.8125,-16.9375,-6.625,0
45580,-0.9375,-18.3125,-7.125,0
45600,1.5625,-17.875,-7.625,0
45620,-0.8125,-14.625,-8.3125,0
45640,-2.3125,-13.0625,-8.4375,0
45660,-3.75,-13.5,-9.3125,0
45680,-5.4375,-12.875,-9.3125,0
45700,-9.25,-10.8125,-9.0625,0
45720,-9.875,-8.6875,-7.5625,0
45740,-4.875,-8.5625,-7.4375,0
45760,-4.25,-10,-8,0
45780,-6.9375,-9.9375,-7.8125,0
45800,-5.625,-6.4375,-9,0
45820,-5.8125,-6.3125,-11.75,0
45840,-4.4375,-7.4375,-12.8125,0
45860,-3.625,-9.3125,-14.125,0
45880,-5.625,-8.25,-13.5625,0
45900,-9.8125,-5.5,-13.3125,0
45920,-12.375,-5.9375,-13.5625,0
45940,-12,-7,-12.5,0
45960,-9.625,-6.25,-10.75,0
45980,-8.5625,-6.3125,-8.9375,0
46000,-9.1875,-4.875,-6.3125,0
46020,-11.6875,-2.375,-6.4375,0
46040,-11,-1.6875,-4.5625,0
46060,-10.1875,-2.875,-2.6875,0
46080,-7.875,-1.0625,-4.5,0
46100,-6.8125,0.5625,-6.75,0
46120,-8.875,-0.3125,-7.1875,0
46140,-11.4375,0.3125,-8.375,0
46160,-10.5625,2.1875,-8.625,0
46180,-7,2.375,-9.5625,0
46200,-4.9375,2.8125,-10.0625,0
46220,-4.1875,3.4375,-10.75,0
46240,-6.375,4.625,-10.625,0
46260,-7,6.5,-10.9375,0
46280,-7.625,7.8125,-9.375,0
46300,-4,7.4375,-9,0
46320,-2.9375,6.5625,-9.8125,0
46340,-4.625,7.8125,-10.6875,0
46360,-7.5,8.3125,-11.3125,0
46380,-11.6875,8.875,-11.125,0
46400,-9.75,8.25,-9.9375,0
46420,-8.1875,7.875,-8.125,0
46440,-7.75,7,-9.0625,0
46460,-8.875,6.9375,-8.875,0
46480,-13.3125,8.6875,-7.625,0
46500,-15.875,8.75,-6.9375,0
46520,-13.25,8.1875,-6.75,0
46540,-10,7.625,-6.25,0
46560,-9.625,8.6875,-6.75,0
46580,-13.4375,9.625,-7.75,0
46600,-15.0625,11,-7.875,0
46610,-13.375,11.8125,-9.1875,0
46630,-12.5,12.5,-9.1875,0
46650,-11.4375,12.375,-8.3125,0
46670,-10.3125,12.125,-8.5625,0
46690,-9.0625,12.5,-10.875,0
46710,-10.4375,12.75,-11.1875,0
46730,-12.625,13.875,-11.125,0
46750,-13.5,13.4375,-11.5625,0
46770,-9.3125,12.5,-11.1875,0
46790,-7.1875,12.125,-11,0
46810,-9.6875,12.375,-11.75,0
46830,-13.8125,13.8125,-11.8125,0
46850,-15.0625,15.5,-10.5625,0
46870,-13.4375,16.0625,-9.1875,0
46890,-9,15.6875,-7.375,0
46910,-6.3125,16.25,-6.5625,0
46930,-8,18.5,-8.3125,0
46950,-12.875,19.75,-9.5,0
46970,-14,18.75,-8.625,0
46990,-10.5,17.8125,-8.5,0
47010,-8.9375,17.4375,-8.6875,0
47030,-7.1875,17.8125,-9.25,0
47050,-9.5,18.5625,-9.5,0
47070,-13.6875,19.125,-9.625,0
47090,-12.625,19.1875,-10.4375,0
47110,-10.5,18.6875,-9.5625,0
47130,-11.3125,19.125,-8.9375,0
47150,-11.5,19.75,-9.25,0
47170,-13.25,20.25,-8.6875,0
47190,-12.9375,21.9375,-8.8125,0
47210,-11.625,22.25,-9.5,0
47230,-9.875,19.9375,-11.25,0
47250,-8.75,20.3125,-13.5625,0
47270,-10.1875,22.3125,-15.5,0
47290,-13.9375,22.6875,-15.125,0
47310,-13.9375,21.9375,-15.375,0
47330,-8.5,21.9375,-14.625,0
47350,-5.4375,22.6875,-14.875,0
47370,-5.5,22.9375,-16.5,0
47390,-8.5625,23.4375,-17.25,0
47410,-8.9375,23.3125,-17.0625,0
47430,-8.5,21.8125,-16.5625,0
47450,-7,20.9375,-16.375,0
47470,-6.375,21.25,-15.5,0
47490,-8.4375,21.75,-13.375,0
47510,-9.0625,21.125,-11.375,0
47530,-7.3125,20.75,-10,0
47550,-6.5625,20.875,-8.75,0
47570,-8.1875,20.25,-7.0625,0
47590,-9.5625,20.625,-5.1875,0
47610,-9.4375,22.625,-4.125,0
47630,-6,23.25,-4,0
47650,-2.625,22.625,-1.625,0
47670,-1.0625,21.6875,2.4375,0
47690,-3.625,21.8125,5.0625,0
47710,-4.5625,23.75,7.125,0
47730,-5.5,24,7.0625,0
47750,-7.3125,23.25,7.25,0
47770,-10.5,23.125,9.875,0
47790,-10.3125,23.375,13.25,0
47810,-7,24.1875,13.9375,0
47830,-2.75,22.1875,13.0625,0
47850,-3.3125,20.8125,13.0625,0
47870,-4.4375,20.9375,14.875,0
47890,-4.625,20.8125,16,0
47910,-2.875,18,14.6875,0
47930,-1.6875,15.0625,13.0625,0
47950,2.0625,13.5625,12.25,0
47970,3.125,14.75,13.375,0
47990,1.9375,15.4375,13.75,0
48010,3.375,16.1875,12.8125,0
48030,6.3125,15.375,10.8125,0
48050,8.75,14.5625,8.875,0
48070,10,17,11.4375,0
48090,8.625,19.1875,13.375,0
48110,10.125,17.875,13.25,0
48130,12.375,17.0625,10.9375,0
48150,14.4375,18.75,10,0
48170,13.3125,19.5,12.1875,0
48190,9.5625,17.625,15.125,0
48210,10.875,17.6875,17.5625,0
48230,12.1875,16.5625,16.25,0
48250,14.875,14.3125,15.125,0
48270,15.9375,12.375,17.3125,0
48290,9.0625,11.875,18.0625,0
48310,3.125,12.5625,18.75,0
48330,3.375,11.0625,19.125,0
48350,5.125,7.625,18.1875,0
48370,5.9375,5.5,19.125,0
48390,6,5.9375,19.9375,0
48410,2.5,4.875,20.875,0
48430,-1.9375,4.3125,20.875,0
48450,-5.0625,3.5,20,0
48470,-3.25,1.5,18.0625,0
48490,0.4375,1.5625,15.9375,0
48510,0.9375,1.3125,15.1875,0
48530,0.9375,-0.375,15.1875,0
48550,1.0625,-0.875,14.0625,0
48570,0.375,-1.0625,13.25,0
48590,-1.8125,-0.5,12.5625,0
48610,-2.625,-0.6875,13.1875,0
48630,-2.8125,-1.5,13.1875,0
48650,-0.5625,-2,13.625,0
48670,2.5,-3.375,13.4375,0
48690,0.875,-3.4375,11.8125,0
48710,-1.1875,-2.5,12.1875,0
48730,-1,-3.375,13.1875,0
48750,-0.625,-5.5625,12.6875,0
48770,-0.625,-6.75,11.4375,0
48790,-2.875,-7.4375,12.125,0
48810,-2.9375,-8.0625,12.875,0
48830,-1.6875,-10.625,11.5625,0
48850,-3.4375,-11.8125,11.1875,0
48870,-3.625,-11.125,11.75,0
48890,-3.8125,-12.375,11.25,0
48910,-2.9375,-14.1875,11.1875,0
48930,-2.75,-14.875,11.75,0
48950,-0.625,-13.625,12.1875,0
48970,-1.875,-14,11.4375,0
48990,-1.4375,-14.4375,10.9375,0
49010,-1.375,-13.75,9.6875,0
49030,1.625,-13.3125,7.6875,0
49050,2.8125,-13.5625,6.75,0
49070,3.375,-14.375,6.625,0
49090,3.9375,-15.5625,6.0625,0
49110,2.4375,-15.25,6.375,0
49130,0.875,-15.125,6,0
49150,0.8125,-16.8125,6.25,0
49170,1.25,-18.375,7.1875,0
49190,1.625,-17.9375,7.375,0
49210,1.375,-17.5625,7.125,0
49230,0.75,-18.6875,7.9375,0
49250,-1.75,-20,7.8125,0
49270,-1.8125,-20.6875,7.0625,0
49290,-2.875,-20.4375,6.8125,0
49310,-2.75,-19.5625,6.875,0
49330,-3.125,-21,7.1875,0
49350,-0.5625,-21.625,7.875,0
49370,2.125,-22.5,8.5,0
49390,2.375,-22.5625,8.9375,0
49410,0.3125,-17.9375,8.75,0
49430,-1.5625,-16.9375,8.625,0
49450,0.125,-16.875,8.4375,0
49470,3.6875,-17.625,8.9375,0
49490,6.4375,-18.0625,8.125,0
49510,7.125,-17.4375,6,0
49530,5.4375,-16.875,4.625,0
49550,2.5,-16.25,4.4375,0
49570,-0.8125,-16.4375,3.1875,0
49590,-1.625,-17.25,2.9375,0
49610,1.3125,-18.5625,3.0625,0
49630,3.5625,-19.5625,1.9375,0
49650,3.5,-18.0625,1.375,0
49670,3.5625,-16.9375,0.9375,0
49690,1.125,-16.5,0.125,0
49710,0.6875,-17.125,0.3125,0
49730,3.5625,-16.75,0.25,0
49750,6.75,-16.75,-0.75,0
49770,4.1875,-16.625,-1.5625,0
49790,0.6875,-16.125,-1.5625,0
49810,0.5625,-15.9375,-1.3125,0
49830,0.8125,-16.625,-1.0625,0
49850,-0.4375,-17.1875,-0.875,0
49870,-2.75,-16.5,-0.4375,0
49890,-3.5,-16,-1.25,0
49910,-4.625,-16.375,-1.25,0
49930,-4.75,-16.25,-0.5625,0
49950,-3.125,-16.3125,-1.4375,0
49970,-2.4375,-15.5625,-2.875,0
49990,-2.3125,-15.625,-4.3125,0
50010,-3.625,-16.0625,-4.625,0
50030,-3.25,-16.5,-5.6875,0
50050,-2.1875,-16.9375,-7.4375,0
50060,-1.8125,-17.5,-8.5625,0
50080,-4.375,-18.375,-9.4375,0
50100,-5.3125,-18.4375,-8.75,0
50120,-3.5,-19.8125,-9.4375,0
50140,-4.625,-20.5625,-10.0625,0
50160,-5.875,-21.5,-10.3125,0
50180,-6.0625,-21.5,-10.8125,0
50200,-6.5,-22.125,-11.3125,0
50220,-6.3125,-23.1875,-11.9375,0
50240,-7.25,-22.1875,-12.125,0
50260,-6.8125,-22.5,-12.6875,0
50280,-5.5,-22.8125,-12.875,0
50300,-5.875,-22.6875,-13.5,0
50320,-8.9375,-21.4375,-12.4375,0
50340,-6.5,-21.875,-13.4375,0
50360,-3,-24.25,-14.125,0
50380,-2.875,-24.375,-14.5,0
50400,-7.0625,-23.1875,-15.1875,0
50420,-10.625,-22.6875,-15.5625,0
50440,-9.5625,-23.125,-14.5,0
50460,-9.25,-22.875,-15.8125,0
50480,-6.875,-21.125,-16.125,0
50500,-4.6875,-20.5,-15.625,0
50520,-1.3125,-20.5625,-15.9375,0
50540,-1.4375,-19.6875,-16.375,0
50560,-3.3125,-17.3125,-16.8125,0
50580,-4.375,-15.3125,-17.5625,0
50600,-9.6875,-16.1875,-16.3125,0
50620,-13.9375,-16.3125,-14.125,0
50640,-8.0625,-15.0625,-14.375,0
50660,-1.25,-17,-16,0
50680,-3.625,-18.75,-15.75,0
50700,-8.375,-16.875,-15.8125,0
50720,-11.1875,-14.125,-15.5,0
50740,-9.625,-14.8125,-15.875,0
50760,-9.0625,-15.3125,-15.5625,0
50780,-11.1875,-14.5625,-14,0
50800,-8.1875,-14,-14.375,0
50820,-4.4375,-13.125,-14.1875,0
50840,-5.625,-10.5,-14.875,0
50860,-8.375,-8.5,-15.75,0
50880,-10.8125,-8.1875,-14.4375,0
50900,-12.4375,-6.9375,-13,0
50920,-10.3125,-4.1875,-14.25,0
50940,-7.6875,-2.9375,-14.6875,0
50960,-7.1875,-2.9375,-13.875,0
50980,-6.6875,-2.1875,-12.9375,0
51000,-4.1875,0.5625,-12.5,0
51020,-3.3125,1.4375,-14.1875,0
51040,-4.875,2.5,-13.625,0
51060,-6.1875,3.125,-14.375,0
51080,-8.125,3.6875,-14.6875,0
51100,-8.5625,6.3125,-15,0
51120,-4.3125,5.5625,-15.125,0
51140,-3.6875,4.5,-14.875,0
51160,-3.875,7.3125,-15.4375,0
51180,-7,10.375,-15.4375,0
51200,-10.9375,10.3125,-14.9375,0
51220,-11.5625,10.125,-15,0
51240,-7.4375,12.375,-13.5,0
51260,-1.1875,12.6875,-13.8125,0
51280,-1.625,12.25,-14.375,0
51300,-5.125,13.4375,-15.25,0
51320,-6.875,15.6875,-15,0
51340,-4.625,15.875,-15.1875,0
51360,-3.75,15,-15.5625,0
51380,-3,15.6875,-15.8125,0
51400,-4.5625,16.625,-14.5625,0
51420,-5.4375,17.875,-13.25,0
51440,-7.375,17.125,-12.4375,0
51460,-5,17.5,-13.125,0
51480,-1.125,18.0625,-13.0625,0
51500,0.875,17.25,-13.1875,0
51520,-0.1875,16.6875,-13.8125,0
51540,-1.1875,19.125,-14.6875,0
51560,-4.4375,21.3125,-14.0625,0
51580,-7.75,21.375,-14.3125,0
51600,-10.5625,21.875,-13.6875,0
51620,-10.25,23.75,-11.625,0
51640,-7.375,22.75,-10.8125,0
51660,-5.5625,21.375,-10.375,0
51680,-6.4375,23.0625,-10.6875,0
51700,-8.5625,24.3125,-11.0625,0
51720,-12.125,24.75,-10.9375,0
51740,-14.1875,25.9375,-10.5625,0
51760,-13.3125,25.25,-10.5625,0
51780,-12.1875,23.875,-9.625,0
51800,-9.3125,25,-10.25,0
51820,-9.625,27.8125,-11.1875,0
51840,-14,29,-12,0
51860,-16,29.125,-11.0625,0
51880,-12.9375,29.4375,-9.5625,0
51900,-9.25,30.4375,-10.25,0
51920,-9.0625,30.25,-10.875,0
51940,-9,29.9375,-8.6875,0
51960,-8.8125,30.5,-6.8125,0
51980,-12.625,32.3125,-5.9375,0
52000,-13.9375,32.25,-5.5625,0
52020,-10.8125,31.6875,-4.3125,0
52040,-9.0625,31.375,-4.6875,0
52050,-8.125,31.375,-3.3125,0
52070,-9.4375,32.125,-2.125,0
52090,-9.5625,32.625,-1.5,0
52110,-9.25,32.5625,-0.5,0
52130,-9.375,31.25,-0.75,0
52150,-7.125,30.0625,1.625,0
52170,-7.5625,33.75,4.625,0
52190,-8.25,34.5625,4.875,0
52210,-6.8125,30.25,5.75,0
52230,-4.25,28.4375,7.75,0
52250,-3.1875,30,8.5625,0
52270,-3.125,32.3125,8.6875,0
52290,-10.0625,32.5,10.3125,0
52310,-11.125,30.5,12.5,0
52330,-6.9375,28.75,13.25,0
52350,0.0625,29.9375,13.4375,0
52370,1,30.6875,14.5,0
52390,-7.4375,30.3125,17.5,0
52410,-10.5,29,19.5625,0
52430,-4.625,26.5625,19.5625,0
52450,2.6875,26.5625,17.8125,0
52470,2.0625,28.625,19.1875,0
52490,-3.3125,27.8125,21.1875,0
52510,-3.5625,21.75,23.25,0
52530,0.5,16.875,21.5,0
52550,11.875,13.875,17.625,0
52570,18.4375,15.875,14.5625,0
52590,10.6875,18.875,13.3125,0
52610,-2.75,19.9375,16.625,0
52630,-10.0625,17.4375,20.5,0
52650,-6.9375,12.625,18.3125,0
52670,8.6875,8,16.625,0
52690,16.1875,9.1875,18.5,0
52710,6.125,13.9375,21.6875,0
52730,-3.625,12.5,24.4375,0
52750,-4.125,9.0625,24.0625,0
52770,0.1875,9.0625,22.5625,0
52790,3.125,9.3125,23.375,0
52810,1.5,9.625,25.8125,0
52830,-5.5,9.1875,27.25,0
52850,-1.5,7.5,26.875,0
52870,3.625,5.75,27.125,0
52890,3.875,5.875,26.875,0
52910,0.6875,5.75,24.3125,0
52930,-4.75,4.5,23.875,0
52950,-1.375,2.125,22.75,0
52970,0.8125,-0.8125,20.125,0
52990,-0.5625,-2.9375,17.9375,0
53010,-2.875,-5.3125,18.125,0
53030,-5.25,-8.4375,18.25,0
53050,-8.3125,-11.1875,18.625,0
53070,-5.75,-13.8125,18.75,0
53090,-5.5,-14.1875,20.125,0
53110,-10.0625,-13.3125,19.6875,0
53130,-15.5,-14.75,17.875,0
53150,-13.5625,-16.6875,16.625,0
53170,-7.0625,-16.8125,15.125,0
53190,-5.25,-16.8125,11.8125,0
53210,-4,-17.1875,10.9375,0
53230,-3.6875,-17,11.1875,0
53250,-5.1875,-16.9375,11.5625,0
53270,-6.375,-17.625,11.25,0
53290,-3.6875,-17.3125,11.3125,0
53310,-3.625,-17.0625,11.25,0
53330,-3.5,-17.25,11.625,0
53350,-5.5625,-18.6875,13.125,0
53370,-2.875,-18,13,0
53390,-2.875,-17.5,11.75,0
53410,-7.6875,-18.375,13,0
53430,-7.6875,-20,11.8125,0
53450,-1.625,-21.6875,9.4375,0
53470,-1.8125,-22.25,8.375,0
53490,-4.1875,-22.125,7.875,0
53510,-7.5625,-23.6875,6.1875,0
53530,-9.125,-24.5,6,0
53550,-9.25,-24.25,4.9375,0
53570,-10.5,-23.8125,3.9375,0
53590,-10.5,-24.125,3.6875,0
53610,-10.6875,-23.5625,2.375,0
53630,-11,-24.625,2.375,0
53650,-11.4375,-23.0625,4.25,0
53670,-10.625,-20.9375,3.5,0
53690,-11.3125,-20.375,3.1875,0
53710,-9.75,-20.3125,4,0
53730,-9.6875,-20.9375,3.8125,0
53750,-4.5625,-21.5625,5.125,0
53770,0.75,-20.0625,3.875,0
53790,-0.5,-18.25,0.75,0
53810,-5,-17.1875,-1.0625,0
53830,-3.625,-18.25,-1.25,0
53850,-0.375,-20.3125,-3,0
53870,1.375,-21.9375,-5.0625,0
53890,-3.6875,-23.25,-5.0625,0
53910,-6.1875,-22.1875,-4,0
53930,-6.5,-21.3125,-4.8125,0
53950,-7.25,-22.3125,-6.8125,0
53970,-9.25,-24.25,-8.3125,0
53990,-7.9375,-25.875,-7.625,0
54010,-3.625,-27.4375,-8.625,0
54030,0.3125,-27.4375,-11.4375,0
54050,-5.4375,-27.4375,-12.375,0
54070,-14.1875,-27,-10.5625,0
54090,-13.9375,-27.75,-10.9375,0
54110,-7.625,-29.5,-11.5625,0
54130,-6.625,-28.75,-12.125,0
54150,-9.0625,-28,-12.3125,0
54170,-11.5,-28.1875,-11.8125,0
54190,-9.3125,-27.8125,-12.125,0
54210,-5,-26,-13.3125,0
54230,-5,-25.25,-14.25,0
54250,-6.375,-24.0625,-13.5625,0
54270,-5.875,-21.3125,-15.125,0
54290,-0.8125,-20.5625,-16.5625,0
54310,2.3125,-22.875,-16.125,0
54330,1.0625,-22.5625,-16.6875,0
54350,1.0625,-20.3125,-17.0625,0
54370,-0.6875,-17.0625,-14.9375,0
54390,-3.625,-17.375,-12.875,0
54410,-2.75,-18.6875,-11.8125,0
54430,-0.4375,-17.1875,-11.125,0
54450,0.5,-15.9375,-11.5,0
54470,-1.75,-16.5,-10.8125,0
54490,-4.375,-15.25,-10.4375,0
54510,-3.875,-12.9375,-10.8125,0
54530,-1.875,-12.25,-11.5,0
54550,-0.8125,-15.3125,-12.875,0
54570,0.75,-15.8125,-15.6875,0
54590,3.9375,-14.1875,-18.0625,0
54610,0.875,-13.0625,-18.3125,0
54630,-4.0625,-10.75,-18,0
54650,-2.25,-9.9375,-17.75,0
54670,2.8125,-12.375,-18.9375,0
54690,5.75,-12.1875,-17.6875,0
54710,6.375,-9,-17.1875,0
54730,6.375,-9.375,-17.375,0
54750,4.9375,-9.4375,-16.5625,0
54770,3.3125,-6.6875,-16.25,0
54790,1.875,-4.6875,-15.0625,0
54810,1.75,-4.6875,-14.5,0
54830,0.5625,-4.625,-12.375,0
54850,2.5625,-3.125,-11.1875,0
54870,6.25,-2.8125,-12.0625,0
54890,4.0625,-2.5625,-11.25,0
54910,-1.1875,-0.3125,-10.375,0
54930,-0.1875,2.625,-9.875,0
54950,2.75,0.9375,-8.6875,0
54970,4.8125,0.1875,-9.9375,0
54990,6.0625,2,-11.375,0
55010,3.0625,3.125,-12.0625,0
55030,-4.5,5.25,-11.875,0
55050,-8.5625,6.8125,-11.5625,0
55070,-5.4375,5.1875,-11.1875,0
55090,-0.8125,2.75,-10.75,0
55110,4.5,2,-11.75,0
55130,4.25,2.25,-12.0625,0
55150,-0.4375,3.25,-9.75,0
55170,-1.25,2.0625,-9.5625,0
55190,0.8125,0.4375,-10.625,0
55210,2.25,0.1875,-11.5,0
55230,0.125,-1.1875,-12,0
55250,-1.125,-2.125,-12.375,0
55270,-0.25,-3.625,-13.3125,0
55290,1.625,-4.4375,-16.125,0
55310,-2,-5.625,-17.6875,0
55330,-3.25,-5.375,-16.625,0
55350,-3.1875,-6.3125,-16.5625,0
55370,-3.1875,-7.375,-16.6875,0
55390,-0.5625,-9.375,-14.6875,0
55410,2.8125,-10.8125,-14.5625,0
55430,4.1875,-9.875,-14.9375,0
55450,0.375,-8.625,-16.875,0
55470,-3.875,-7.9375,-18,0
55480,-6.3125,-7.1875,-16.625,0
55500,-6.8125,-5.5625,-15.9375,0
55520,-3.125,-4.375,-16.375,0
55540,0.75,-3.875,-14.6875,0
55560,0.875,-2.6875,-12.1875,0
55580,0.0625,-0.5,-9.125,0
55600,0.6875,1.625,-7.1875,0
55620,0,1.75,-7.1875,0
55640,-0.1875,2.875,-5.625,0
55660,-0.4375,4.1875,-4.375,1001
55680,0.8125,4.8125,-3.4375,0
55700,0.125,5,-4.1875,0
55720,-1.625,4.75,-4.8125,0
55740,-3.1875,4.3125,-2.8125,0
55760,-2.125,5.4375,-3,0
55780,0.9375,4.9375,-4,0
55800,2.75,4.0625,-2.625,0
55820,3.375,3,0.0625,0
55840,6.3125,0.25,-2,0
55860,16.3125,-4.5625,-13.125,0
55880,-7.25,6.875,-10.4375,0
55900,-16.5,16.25,-9.5625,0
55920,7.75,3.625,-11,0
55940,29,-5.75,-0.3125,0
55960,15.5625,-2.1875,-2.4375,0
55980,-5.6875,2.125,-7.1875,0
56000,-13.75,3.1875,-3.375,0
56020,-9.625,1.4375,-1.8125,0
56040,-5.125,-1.375,-2.6875,0
56060,-4.875,-2.3125,0.4375,0
56080,-5.5625,-3.875,2.0625,0
56100,-8.125,-3.375,1.875,0
56120,-10.3125,-1.5,1.1875,0
56140,-11.0625,-1.3125,0.5,0
56160,-12.125,-3,0.5625,0
56180,-9.25,-1,2.6875,0
56200,-4.875,0,3.5625,0
56220,-2.0625,1.125,5.875,0
56240,-2.375,3.8125,5.8125,0
56260,-1.4375,4.625,5.125,0
56280,2.0625,9.9375,7.4375,0
56300,6,16.125,6.9375,0
56320,6.875,16.8125,7.3125,0
56340,8.5,18.9375,10.125,0
56360,12.8125,24.9375,13.9375,0
56380,24.3125,29.25,16,0
56400,26.8125,30.625,18.3125,0
56420,24.75,35.75,26.75,0
56440,33.6875,44,36.25,0
56460,49.375,48.625,40.9375,0
56480,59.5,42.0625,34.75,0
56500,53.1875,42.9375,33.3125,0
56520,40.3125,53.4375,37.0625,0
56540,33.9375,62,41.9375,0
56560,46.9375,58.125,43.875,0
56580,58.5,52.6875,47.375,0
56600,60.6875,55,52.0625,0
56620,57.625,56.125,55.125,0
56640,58.0625,57.9375,53.1875,0
56660,53.6875,60,56.125,0
56680,50,51.5625,61.4375,0
56700,52.0625,38.6875,61.875,0
56720,51.4375,35.4375,54.5625,0
56740,46.125,39.9375,53.8125,0
56760,37.9375,34.3125,52.75,0
56780,26.9375,24.1875,48.8125,0
56800,20.5625,20.9375,47,0
56820,16.25,18.5625,47.9375,0
56840,10.5,13.0625,46.0625,0
56860,7.75,12.0625,42.9375,0
56880,5.8125,12.5625,40.9375,0
56900,5.875,11.8125,38.8125,0
56920,2.125,10.125,37.125,0
56940,-1.875,8.5,34.875,0
56960,-0.6875,7.5,32.125,0
56980,5.375,6.4375,30.9375,0
57000,4.4375,5.1875,25.375,0
57020,0.125,3.25,21.6875,0
57040,-0.3125,0.3125,22.4375,0
57060,1.625,-2.3125,19.375,0
57080,5.375,-3.4375,16,0
57100,5.3125,-4.25,15.375,0
57120,4.375,-5.3125,12.6875,0
57140,1.1875,-5,8.375,0
57160,1,-2.9375,6.0625,0
57180,2.375,-3,5.25,0
57200,3.4375,-4.375,4.6875,0
57220,6.125,-4.0625,4.625,0
57240,9.0625,-4.25,4.8125,0
57260,9.6875,-5.125,4.0625,0
57280,6.4375,-5.5625,3.125,0
57300,4,-4.25,3.8125,0
57320,3.3125,-4.6875,4.0625,0
57340,5.4375,-6.625,4.5,0
57360,7.8125,-7.125,3.6875,0
57380,4.5,-6,3.125,0
57400,1.1875,-5.0625,2.0625,0
57420,1.0625,-5.875,2.875,0
57440,1.625,-6.6875,3.5625,0
57460,4,-5.875,4.25,0
57470,4.4375,-6.25,4.8125,0
57490,1.5625,-6.5625,5.1875,0
57510,0.375,-5.1875,4.625,0
57530,0.0625,-4.3125,4.25,0
57550,-0.625,-4.625,4.25,0
57570,0.5,-4.6875,3.875,0
57590,3.3125,-4.8125,3.125,0
57610,5.1875,-4.6875,3.125,1000
57630,6,-5,2.5625,0
57650,4.125,-5.375,2.0625,0
57670,1.6875,-4.75,1.5,0
57690,2.0625,-3.5,-0.0625,0
57710,3.4375,-2.5625,-0.875,0
57730,2.625,-2.6875,0.0625,0
57750,1.0625,-2.75,0.4375,0
57770,1.0625,-2.6875,1.1875,0
57790,2.5,-2,0.25,0
57810,-0.5,-0.5,-0.125,0
57830,-1.8125,-0.25,0.6875,0
57850,-1.25,-0.5,1.75,0
57870,1.0625,-2.5,1.6875,0
57890,-0.125,-2.375,2.4375,0
57910,-1.8125,-0.0625,1.5625,0
57930,-5.6875,-0.1875,0.625,0
57950,-2.9375,-1.8125,0.875,0
57970,0.4375,-1.8125,1.75,0
57990,0.9375,-0.0625,1.75,0
58010,-2.5,0.0625,0.875,0
58030,-2.6875,0.375,0.75,0
58050,-2.75,1.4375,0.6875,0
58070,-0.8125,1.5,0.6875,0
58090,-0.125,-0.125,1.625,0
58110,1.875,-0.625,1.1875,0
58130,2.125,-0.4375,-0.3125,0
58150,-0.125,-2.0625,-1.125,0
58170,0.4375,-2.5625,-1.25,0
58190,1.625,-4.0625,-1.875,0
58210,2.375,-5.375,-2.0625,0
58230,1.5625,-4.75,-2.25,0
58250,3,-4.875,-1.375,0
58270,4.375,-6.8125,-1.375,0
58290,2.5625,-6.9375,-1.6875,0
58310,1.5,-4.625,-2.1875,0
58330,-0.5625,-4.4375,-3.75,0
58350,-3.4375,-4.5625,-2.375,0
58370,0.5625,-3.3125,-1.6875,0
58390,3,-4.75,-2.5625,0
58410,2.75,-3.6875,-2.9375,0
58430,1.25,-2.1875,-3.875,0
58450,-2.0625,-1.0625,-3.4375,0
58460,-2.5,-0.5,-2.5625,0
58480,-0.5625,-0.75,-1.1875,0
58500,1.9375,-1.375,-0.5,0
58520,2.9375,-1.375,-1.1875,0
58540,-0.75,-0.9375,-1.8125,0
58560,-5.6875,-0.25,-1.8125,0
58580,-6.125,-0.25,-1.625,0
58600,-1.9375,-2.5,-0.3125,0
58620,3.25,-4.0625,0.5,0
58640,4.875,-5.5,0.0625,0
58660,0.4375,-5.4375,-0.375,0
58680,-5.9375,-5.875,0.1875,0
58700,-4.8125,-7.9375,1.6875,0
58720,1.125,-10.375,4.5625,0
58740,4.75,-13.3125,8.0625,0
58760,3.4375,-14.5625,10.125,0
58780,0.125,-12.625,10.0625,0
58800,-6.3125,-12.3125,9.25,0
58820,-5.8125,-12.3125,8.5,0
58840,0.75,-13.625,6.5,0
58860,5.4375,-13.8125,4.0625,0
58880,7.6875,-11.3125,0.3125,0
58900,5,-8.8125,-3.0625,0
58920,1.375,-7.3125,-4.4375,0
58940,0.8125,-7.0625,-3.9375,0
58960,3.5,-7.375,-4.4375,0
58980,7.25,-7.25,-6.375,0
59000,5.3125,-7,-7.8125,0
59020,-1.625,-6.125,-6,0
59040,-7.25,-5.6875,-5.3125,0
59060,-2.75,-6.5625,-6,0
59080,2.5625,-7.4375,-7.3125,0
59100,2.75,-7.75,-8.875,0
59120,-0.375,-7.375,-10.375,0
59140,-2.1875,-6.9375,-11.4375,0
59160,-4.5625,-6.4375,-12.875,0
59180,-0.875,-6.5,-14.4375,0
59200,5.4375,-7.8125,-15,0
59220,4.25,-8.4375,-15.0625,0
59240,-0.5,-6.6875,-15.125,0
59260,-2.875,-5.625,-16.4375,0
59280,-0.8125,-5.375,-17.875,0
59300,0.6875,-9.6875,-16.0625,0
59320,5.1875,-11,-14.875,0
59340,4,-9.8125,-14.875,0
59360,-1.1875,-7.625,-16.8125,0
59380,-5.4375,-4.5,-17.625,0
59400,-6.125,-4.9375,-16.9375,0
59420,-0.1875,-7.625,-16.1875,0
59440,5.125,-10.5,-15.0625,0
59460,4.875,-8.3125,-15,0
59480,-1.8125,-5.6875,-16.3125,0
59500,-7,-6.625,-15.1875,0
59520,-10.9375,-9.6875,-12.875,0
59540,-5.8125,-10.6875,-11.0625,0
59560,-0.375,-11.875,-10.5,0
59580,-3.125,-11.5625,-8.375,0
59600,-7.75,-10.25,-7.125,0
59620,-8.8125,-8.875,-7.6875,0
59640,-4.4375,-8.1875,-6.125,0
59660,-0.8125,-8.1875,-4.1875,0
59680,0.625,-6.25,-5.125,0
59700,-1.5,-4.125,-6.375,0
59720,-1.25,-2.1875,-7.1875,0
59740,-1.75,-2,-7.625,0
59760,-1.3125,-1.4375,-9,0
59780,-1.875,-0.625,-9.0625,0
59800,0.125,-0.5,-8.75,0
59820,-0.75,-0.8125,-9.0625,0
59840,-2.9375,1.0625,-9.5,0
59860,-4.25,2.1875,-10.3125,0
59880,-2.125,1.6875,-10.875,0
59900,-2.6875,0.5625,-10.6875,0
59920,-3.4375,2.125,-10.4375,0
59940,-6.75,4.25,-9.5,0
59960,-6.1875,5.5,-10.0625,0
59980,-5.875,5.375,-9.125,0
60000,-5.4375,5.1875,-9.8125,0
60020,-6.8125,5.125,-11.25,0
60040,-9,6.375,-11.6875,0
60060,-9.0625,7.5625,-10.875,0
60080,-9.4375,9.125,-10.0625,0
60100,-9.8125,10.6875,-10.875,0
60120,-11.375,11.6875,-12,0
60140,-12.4375,12.8125,-12.75,0
60160,-11.4375,13.5625,-11.8125,0
60180,-12.0625,13.6875,-11.3125,0
60200,-13.1875,14.4375,-11.4375,0
60220,-12.25,16.1875,-12.375,0
60240,-12.1875,16.1875,-10.875,0
60260,-11.6875,15.25,-10.5,0
60280,-12.75,15.375,-10.6875,0
60300,-13.9375,16.875,-11.125,0
60320,-12.5,16.1875,-10.75,0
60340,-8.5625,14.5625,-10.6875,0
60360,-6.375,14.0625,-10.9375,0
60380,-8,13.75,-10.125,0
60400,-8.875,14.8125,-9.25,0
60420,-7.4375,15.625,-8.25,0
60440,-3.3125,14.875,-6.3125,0
60460,-1.4375,13.25,-6.3125,0
60480,-3.75,13.1875,-8.625,0
60500,-8.8125,15.0625,-9.75,0
60520,-11.4375,16.125,-10.4375,0
60540,-7.5,15.9375,-10.875,0
60560,-4.0625,16.1875,-10,0
60580,-4.625,16.375,-11,0
60600,-7.0625,16.9375,-12.6875,0
60620,-9.4375,16.25,-13.625,0
60640,-11.8125,17.875,-13.5625,0
60660,-12.0625,18.75,-12.0625,0
60680,-9.6875,18.1875,-10.1875,0
60700,-4.875,16.5,-9.4375,0
60720,-5.5,16.9375,-8,0
60740,-10.4375,17.3125,-7.375,0
60760,-16.4375,18.625,-7,0
60780,-17,18.75,-6.25,0
60800,-12.5625,17.5625,-5.75,0
60820,-10.0625,17.5625,-6.375,0
60840,-11.6875,18.8125,-7.1875,0
60860,-16.1875,20.875,-7.3125,0
60880,-17.75,21.3125,-7.1875,0
60890,-15.25,20.25,-7.5,0
60910,-14.25,20.75,-7.25,0
60930,-14.9375,21.5625,-6.75,0
60950,-16.6875,22.5625,-7.4375,0
60970,-17.1875,22.6875,-7.5625,0
60990,-14.25,21.6875,-8.125,0
61010,-12.125,21.125,-8,0
61030,-12.8125,20.5625,-8.6875,0
61050,-12.5625,20.4375,-9,0
61070,-10.9375,18.5,-8.3125,0
61090,-9.625,16.75,-6.375,0
61110,-11.4375,18.0625,-5.9375,0
61130,-13.625,18.75,-4.125,0
61150,-10.5625,17.75,-1,0
61170,-6.25,16.5625,-0.1875,0
61190,-5.125,18.25,-0.375,0
61210,-10.375,21.375,-0.9375,0
61230,-12.875,21.4375,-0.9375,0
61250,-12,20.625,-0.4375,0
61270,-9.75,21.3125,-0.875,0
61290,-9.3125,21.875,-1.25,0
61310,-9.875,23,-1.5,0
61330,-10.5625,23.1875,-2.125,0
61350,-8.9375,21.1875,-2.0625,0
61370,-8,20.125,-0.875,0
61390,-9.1875,22.0625,1.125,0
61410,-14,24.1875,2.0625,0
61430,-15.8125,22.125,2.0625,0
61450,-13.75,20.25,3.375,0
61470,-12.125,19,2.9375,0
61490,-12.9375,19.1875,1.6875,0
61510,-15.1875,19.9375,1.375,0
61530,-14,18.375,2.0625,0
61550,-13.1875,17.4375,1.1875,0
61570,-13,18.375,-0.5,0
61590,-14.5625,20.6875,-0.6875,0
61610,-13.875,21.125,-0.5,0
61630,-12.125,18.625,-0.5,0
61650,-9.625,17.125,-0.125,0
61670,-8.3125,18.3125,-0.6875,0
61690,-11.6875,19.5,-1.625,0
61710,-16.625,19.1875,-0.875,0
61730,-17.5625,18.25,2.1875,0
61750,-14.125,17.25,3.8125,0
61770,-11.9375,17.125,2.9375,0
61790,-12.5,18.3125,2.6875,0
61810,-16.625,17.3125,5.5,0
61830,-16.875,16.5625,6.1875,0
61850,-13.5,15.1875,4.5625,0
61870,-8.1875,14.875,3.875,0
61890,-9.625,15.5,3.625,0
61910,-14.9375,17.0625,5.6875,0
61930,-14.8125,19,9.25,0
61950,-6.8125,16.6875,11.4375,0
61970,1.125,14.4375,10.5625,0
61990,-2.3125,15.9375,10.25,0
62010,-7.875,17.875,12.75,0
62030,-10.625,17.125,12.5,0
62050,-6.4375,14,11.9375,0
62070,-2.4375,11.4375,11.0625,0
62090,-3.5,12,10.3125,0
62110,-3.75,11.8125,9.1875,0
62130,-5,10,8.5,0
62150,-4.8125,9.3125,6.8125,0
62170,-3.1875,9.3125,5.4375,0
62190,-1.4375,7.5625,5.3125,0
62210,-0.6875,6.125,5.75,0
62230,-1.6875,4.875,5.5,0
62250,-3.625,4.8125,5.8125,0
62270,-3.4375,4.875,6.1875,0
62290,-3.625,2.5625,6.1875,0
62310,-1.625,0.625,6.4375,0
62330,0.8125,-0.875,5.4375,0
62350,-1.25,-0.4375,4.5625,0
62370,-4.0625,0.8125,4.875,0
62390,-3.4375,0.25,6.25,0
62410,0.25,-1.875,6.625,0
62430,4.1875,-3.5,7,0
62450,3.4375,-3.5625,6.8125,0
62470,1.625,-4.0625,6.6875,0
62490,-0.75,-5.5625,6.6875,0
62510,-0.3125,-6.875,6.5,0
62530,-1.0625,-7.5,7.125,0
62550,-1.0625,-8.1875,6.625,0
62570,0.625,-7.4375,6.4375,0
62590,1.1875,-8.375,7.3125,0
62610,0.8125,-9,6.375,0
62630,1.8125,-7.8125,5.5625,0
62650,1.25,-7.75,5.625,0
62670,2.5,-8.4375,5.75,0
62690,2.0625,-9.4375,5.25,0
62710,0.5,-8.3125,4.6875,0
62730,0.1875,-7.375,4.8125,0
62750,0.8125,-7.4375,5.5,0
62770,-0.8125,-7.3125,5.375,0
62790,-0.25,-5.4375,5.8125,0
62810,-0.6875,-4.1875,7.625,0
62830,0.75,-3.875,9.75,0
62850,1.0625,-4.5625,8.75,0
62870,0.8125,-3.25,7.625,0
62880,0.875,-0.875,8.9375,0
62900,2.0625,-1.0625,8.1875,0
62920,3.375,-2.5,6.9375,0
62940,4.1875,-3.3125,5.625,0
62960,0.75,-3.75,5.25,0
62980,-1.5625,-4,4.875,0
63000,-1.3125,-4.5,5.5625,0
63020,1.5625,-5,6.1875,0
63040,1.5625,-6.75,6.3125,0
63060,-0.4375,-6.75,6.5625,0
63080,0.3125,-7,7.25,0
63100,1.1875,-8.6875,7.8125,0
63120,-0.5625,-9.1875,7.625,0
63140,1.875,-9.875,7.4375,0
63160,4.0625,-11.75,7.3125,0
63180,3.75,-11.875,7.4375,0
63200,2.375,-11.5,7.25,0
63220,1.6875,-11.5,7.4375,0
63240,0.125,-12,7.5,0
63260,-0.75,-11.75,7.125,0
63280,2.9375,-11.4375,7.25,0
63300,3.4375,-12.5,7.5,0
63320,3,-11.5,7.5625,0
63340,2.5,-12,7.3125,0
63360,0.5625,-12.375,6.6875,0
63380,1.0625,-11.8125,6.875,0
63400,2.4375,-13,6.3125,0
63420,1.5,-13.6875,6.25,0
63440,-0.25,-13.625,6.75,0
63460,0.25,-14.0625,6.9375,0
63480,0.375,-15,6.9375,0
63500,0.125,-15.8125,7.25,0
63520,0.5625,-17.5,8.4375,0
63540,0.9375,-18.5,8,0
63560,2.75,-18.5,6.875,0
63580,1.6875,-19.0625,6.5,0
63600,0,-19.1875,5.6875,0
63620,0,-19.875,5.375,0
63640,0.625,-20,5.25,0
63660,2.75,-19.4375,3.875,0
63680,3.5625,-20.5,3.875,0
63700,2.625,-21.5,3.5625,0
63720,3.0625,-20.9375,2.5,0
63740,4.4375,-21.625,2.4375,0
63760,3.375,-22.4375,2.625,0
63780,1.25,-21.625,1.6875,0
63800,0.125,-22.125,3.0625,0
63820,-0.25,-22.875,4.6875,0
63840,2.1875,-23.5625,4.9375,0
63860,2.5,-24,3.9375,0
63880,1.125,-22.875,3.6875,0
63900,0.8125,-23.5625,3.625,0
63920,4.0625,-25.5,2.9375,0
63940,5.25,-25.8125,2.1875,0
63960,6.4375,-25.4375,2.5625,0
63980,6.5625,-25.3125,2.375,0
64000,2.6875,-26,1.5625,0
64020,2.25,-25.625,1.875,0
64040,3.875,-26.25,1.625,0
64060,4.0625,-27.25,1.9375,0
64080,-0.6875,-26.6875,1.5,0
64100,-1.25,-25.4375,2,0
64120,-3,-25.0625,2.0625,0
64140,-4.0625,-24.5,3.25,0
64160,-1.75,-24.1875,3.9375,0
64180,0.1875,-23.875,4.1875,0
64200,0.9375,-22.125,4.875,0
64220,0.625,-22.25,3.3125,0
64240,-1.625,-23.5,2.5625,0
64260,-1.1875,-23,2.1875,0
64280,-2.4375,-24.9375,0.5625,0
64300,-5.75,-26.5625,0.5,0
64320,-3.25,-26.375,-0.25,0
64340,-2.0625,-27.75,-3.125,0
64360,-4.125,-28.375,-5.1875,0
64380,-4.875,-29,-5.75,0
64400,-2.3125,-28.8125,-8.375,0
64420,-1.4375,-30.3125,-10.9375,0
64440,-3.875,-30.6875,-10.875,0
64460,-2.125,-29.9375,-11.5625,0
64480,1.6875,-29.875,-13.8125,0
64500,-1.8125,-31.8125,-15.8125,0
64520,-5.125,-31.375,-16.125,0
64540,-3.375,-29.5625,-16.5,0
64560,-1.3125,-28.625,-18.5,0
64580,-2.625,-28.5,-20.0625,0
64600,-1.8125,-28.0625,-19.1875,0
64620,1.125,-29.3125,-18.5,0
64640,2.6875,-28.6875,-18.75,0
64660,2.0625,-26.375,-19.8125,0
64680,-2.125,-25.0625,-20.25,0
64700,-5.6875,-24.25,-20.625,0
64720,-5.125,-23.9375,-19.5625,0
64740,-0.6875,-23.3125,-20.625,0
64760,3.0625,-22.1875,-21.75,0
64780,2,-21.125,-21.4375,0
64800,-3.8125,-19.75,-21.625,0
64820,-8.4375,-18.625,-21.5,0
64840,-6.375,-15.0625,-20.75,0
64860,-2.125,-12.4375,-18.875,0
64880,1.1875,-13.8125,-17.875,0
64900,-1.4375,-14.375,-17.625,0
64920,-1.875,-10.625,-17.1875,0
64940,1.5625,-8,-18.75,0
64960,1.9375,-7.25,-19.875,0
64980,-0.6875,-6.125,-19.25,0
65000,-2,-5.125,-17.3125,0
65020,-0.4375,-2.25,-16.125,0
65040,1.125,-0.875,-16.375,0
65060,-0.5,-0.125,-15.5625,0
65080,-2.6875,1.0625,-14.75,0
65100,-5.1875,2.8125,-16.6875,0
65120,-11.5625,6.8125,-17.5625,0
65140,-16.9375,10.9375,-18.25,0
65160,-18.3125,15.25,-15.3125,0
65180,-13.9375,16.8125,-14.625,0
65200,-10.5625,15.875,-15,0
65220,-8.625,15.375,-15.0625,0
65240,-6.75,17.0625,-14.6875,0
65260,-10.3125,21.625,-16.375,0
65270,-12,22.75,-19.1875,0
65290,-12.8125,21.0625,-20.0625,0
65310,-13.4375,22,-20,0
65330,-14.625,23.5,-19.5,0
65350,-10.875,24.5625,-19.9375,0
65370,-12.25,25.5625,-21,0
65390,-18.5,24.6875,-23.1875,0
65410,-23.0625,26,-20.8125,0
65430,-22.4375,28.9375,-21.25,0
65450,-19.6875,30.8125,-21.0625,0
65470,-17.1875,30.625,-19.75,0
65490,-17.625,31.5625,-20.25,0
65510,-21.9375,33.8125,-19.8125,0
65530,-23.8125,34.0625,-20.3125,0
65550,-21.75,32.3125,-20.25,0
65570,-21.1875,33.0625,-21.375,0
65590,-24.8125,35.5,-22.0625,0
65610,-30.9375,37.875,-20.1875,0
65630,-28.5,38.25,-17.5625,0
65650,-21.5,37.1875,-16.125,0
65670,-20.1875,36.375,-17,0
65690,-23.3125,37.25,-15.8125,0
65710,-27.0625,39,-14.75,0
65730,-29.6875,40.1875,-14.9375,0
65750,-24.875,40,-13.625,0
65770,-21.25,39.125,-12,0
65790,-21.4375,39.9375,-11.3125,0
65810,-22.75,41.6875,-10.5625,0
65830,-21.5,41.125,-8.6875,0
65850,-18.1875,39.25,-8.0625,0
65870,-14,37.625,-8.3125,0
65890,-10.1875,36.8125,-8.375,0
65910,-11.4375,36.875,-7.4375,0
65930,-14.5625,37.3125,-4.8125,0
65950,-16,38.625,2.375,0
65970,-7.8125,36.25,4.5,0
65990,-0.875,31.8125,5.9375,0
66010,-0.3125,33.4375,7.0625,0
66030,-6.9375,35.9375,9.5625,0
66050,-14.1875,38.3125,14.875,0
66070,-10.9375,37.0625,17.875,0
66090,1.3125,34.375,20.125,0
66110,11.5625,35.625,21.1875,0
66130,6.3125,39.25,23.5625,0
66150,-1.75,41.8125,28.625,0
66170,0.3125,37.5625,33.875,0
66190,4.875,31.625,39.375,0
66210,3.125,32,40.625,0
66230,-2.5625,35.375,41.9375,0
66250,-10.125,35.625,44.25,0
66270,-6.5,29.3125,47.5625,0
66290,2.1875,23.0625,48.125,0
66300,0.8125,21,44.4375,0
66320,-4.625,21.6875,43,0
66340,-6.9375,17.125,39.8125,0
66360,-0.9375,10.4375,37.4375,0
66380,6.1875,7.3125,34.125,0
66400,7.25,8.4375,30.1875,0
66420,2.8125,8.625,28.125,0
66440,1.625,4,27.4375,0
66460,2.8125,-0.5625,26.875,0
66480,7.625,-4.625,26,0
66500,11.0625,-7.75,24.5625,0
66520,9.375,-11.5625,23.75,0
66540,0.4375,-12.4375,24,0
66560,0.8125,-13.9375,24.25,0
66580,1.875,-18,23.75,0
66600,8.3125,-21.4375,22.8125,0
66620,8.125,-22.0625,20.3125,0
66640,-1,-22.875,20,0
66660,-3.25,-23.5625,21.8125,0
66680,-0.25,-25.9375,20.75,0
66700,0.875,-27.25,20.125,0
66720,-0.5,-28.0625,20.125,0
66740,5.375,-28.375,17.875,0
66760,13.0625,-28.625,13.625,0
66780,8.9375,-31.1875,11.5,0
66800,4.0625,-33.8125,12.4375,0
66820,2.75,-35.25,10.75,0
66840,3.0625,-35.125,9.75,0
66860,1.0625,-34.5625,11,0
66880,2.0625,-33.3125,12.5,0
66900,3.375,-32.75,12.3125,0
66920,-1.375,-32.75,12.75,0
66940,2.625,-31.5,14,0
66960,7.5625,-30.6875,11.9375,0
66980,1,-29.8125,10,0
67000,-7,-27.5625,11.9375,0
67020,-4,-27.125,12.9375,0
67040,6.125,-29.4375,10.9375,0
67060,3.8125,-29.1875,8.875,0
67080,-4.0625,-28.1875,9.25,0
67100,-5.625,-29.25,9.25,0
67120,-3.875,-30.8125,7.4375,0
67140,-7.625,-32.6875,6.5,0
67150,-8.1875,-33,5.875,0
67170,-7.3125,-32.5625,2.625,0
67190,-7.4375,-32.625,2.125,0
67210,0,-36.6875,2.125,0
67230,6.0625,-42.875,-1.5625,0
67250,4.375,-43.6875,-7.0625,0
67270,2.1875,-42.625,-11.1875,0
67290,0.1875,-45.4375,-13.375,0
67310,-2,-52.375,-16,0
67330,-6.5625,-55.5,-20.125,0
67350,-7.4375,-51.9375,-23.9375,0
67370,-6.9375,-48.1875,-25.875,0
67390,-10.6875,-48.1875,-27.1875,0
67410,-11.625,-48.875,-29.8125,0
67430,-7.625,-46.3125,-31.75,0
67450,-1.8125,-42.875,-33.5625,0
67470,-1.4375,-41.25,-34.4375,0
67490,-1.5625,-38.1875,-33.3125,0
67510,-3.875,-34.5625,-34.3125,0
67530,-4.0625,-33.25,-34.25,0
67550,1.4375,-31.6875,-33.1875,0
67570,5.5,-29.1875,-34.0625,0
67590,10.625,-31.1875,-34.25,0
67610,5.8125,-33.9375,-34.125,0
67630,1.625,-29.375,-33.0625,0
67650,-6.6875,-23.5,-32.625,0
67670,-12.25,-22.5625,-33.25,0
67690,-13.8125,-24,-31.4375,0
67710,-10.875,-22.1875,-29.8125,0
67730,-2.125,-19.8125,-29.3125,0
67750,-1.25,-21.125,-29.25,0
67770,-4.3125,-18.5625,-28.25,0
67790,-7.9375,-14.6875,-27.625,0
67810,-11.9375,-9.125,-26.75,0
67830,-13.0625,-7.375,-26.875,0
67850,-9.9375,-7.0625,-25.75,0
67870,-4.3125,-5.625,-24.6875,0
67890,-2.5,-3.125,-23.6875,0
67910,-3.25,-0.125,-24.5625,0
67930,-1.375,1.9375,-26.5625,0
67950,-2.125,4.6875,-27.3125,0
67970,-7.25,7.1875,-27.4375,0
67990,-11.5,10.625,-27.9375,0
68010,-10.0625,12,-26.125,0
68030,-5.125,13.125,-23.75,0
68050,-1.3125,16.1875,-24.6875,0
68070,-4.25,18.25,-25.3125,0
68090,-12.3125,20.125,-24.3125,0
68110,-10.5,23.5625,-21.8125,0
68130,-5.6875,26.5625,-22.625,0
68150,-10.6875,28.5,-22.0625,0
68170,-11.4375,30.5,-20.9375,0
68190,-7.8125,31.75,-19.8125,0
68210,-6.3125,34.875,-20.25,0
68230,-6.3125,39.0625,-22.6875,0
68250,-6.6875,41.0625,-21.9375,0
68270,-3.25,44.1875,-23.0625,0
68280,0.3125,47.9375,-24.625,0
68300,1.375,49.0625,-25.375,0
68320,-3.4375,47.75,-23.9375,0
68340,-5.25,49.1875,-20.75,0
68360,-1.875,49.75,-18.375,0
68380,-2.8125,48.125,-17.9375,0
68400,-6.1875,48.25,-17.25,0
68420,-8.75,49.875,-16.8125,0
68440,-13.5625,51.75,-13.1875,0
68460,-10.0625,51.9375,-10.6875,0
68480,-6.3125,49.8125,-9.6875,0
68500,-3.8125,48.25,-8.75,0
68520,-1.8125,48.3125,-7.0625,0
68540,-5.375,51.1875,-4.875,0
68560,-10.5625,55.5,-3,0
68580,-11.6875,54.0625,-1.3125,0
68600,-3.1875,49.5625,1.625,0
68620,5.625,47.375,6.6875,0
68640,4,49.75,9.625,0
68660,0.375,51.625,10.5625,0
68680,-6.875,49.3125,12.625,0
68700,-2.875,45.375,16.4375,0
68720,2,42.875,19.375,0
68740,0.75,45.375,20.0625,0
68760,-6.9375,48.875,19.8125,0
68780,-10.6875,45.3125,24.75,0
68800,-1.875,37.375,28,0
68820,6.8125,33.9375,29.25,0
68840,6,36.25,30.75,0
68860,-2.75,39.875,29.8125,0
68880,-10.625,36.875,31.25,0
68900,-8.5625,33.5,31.0625,0
68920,-1.5,32.1875,31.5625,0
68940,-4.1875,31,34.25,0
68960,-5.9375,30.1875,35.25,0
68980,-7.9375,26.75,34.6875,0
69000,0.375,22.8125,35.75,0
69020,0.75,20.5625,32.125,0
69040,-6.5,19.125,30.5,0
69060,-10.0625,15.9375,32.5625,0
69080,-10.25,10,31.75,0
69100,-5.8125,4.5625,27.5625,0
69120,-3,1,24.8125,0
69140,-7.3125,-0.3125,25.5625,0
69160,-10.4375,-3.5625,24,0
69180,-11.25,-8.9375,22.5625,0
69200,-8.4375,-13.9375,22.9375,0
69220,-4.25,-15.875,23.5625,0
69240,-4.1875,-17.5625,21.4375,0
69260,-10,-19.8125,20.1875,0
69280,-13.1875,-21.9375,19.9375,0
69300,-10.75,-25.25,20.625,0
69320,-5.0625,-28.625,21.375,0
69340,-3.1875,-28.1875,19.9375,0
69360,-7.0625,-26.625,15.6875,0
69380,-10.9375,-27.375,14.75,0
69400,-11.8125,-31.375,15.875,0
69420,-9.25,-33.8125,15.875,0
69440,-5.25,-31.625,12.4375,0
69460,-2.75,-29.1875,11.1875,0
69480,-5.5625,-29.125,11.5625,0
69500,-9.625,-30.5,12.0625,0
69520,-9.5625,-30.6875,11.375,0
69540,-3.875,-30.125,9.75,0
69560,4.625,-29.25,9.5625,0
69580,3.875,-28.125,7.9375,0
69600,-4.3125,-28.125,6.5,0
69620,-7,-28.0625,6.5625,0
69640,-4.6875,-30.0625,7.625,0
69660,-2,-32.1875,7.3125,0
69680,1.6875,-29.25,4.6875,0
69700,0.1875,-27.125,3.1875,0
69720,-2.625,-28.5625,4.3125,0
69740,-6.625,-29.4375,5.3125,0
69760,-8.8125,-27.6875,3.875,0
69780,-3.125,-25.25,3.4375,0
69800,-0.8125,-25.1875,2.875,0
69820,-4.1875,-25.8125,3.6875,0
69840,-9.6875,-24.8125,3.4375,0
69860,-6.9375,-24.0625,3.8125,0
69880,-5.0625,-24.8125,3.8125,0
69900,-6.9375,-23.6875,2.75,0
69920,-9.8125,-22.0625,3.25,0
69940,-11.5625,-23.9375,3.8125,0
69960,-12.4375,-24.6875,1.8125,0
69980,-9.4375,-22.875,-0.5,0
70000,-8.3125,-21.125,0.6875,0
70020,-9.625,-21.125,0.25,0
70040,-5.625,-22.9375,-0.6875,0
70060,-0.6875,-22.125,-2.0625,0
70080,-1.125,-20.5,-3.375,0
70100,-2.4375,-19.0625,-5.5625,0
70120,-2.75,-21.1875,-6.75,0
70140,-8.8125,-23.625,-7.75,0
70160,-5.3125,-22.125,-7.375,0
70180,-1.0625,-22.25,-10.0625,0
70200,-3.5625,-23.875,-11.4375,0
70220,-9.4375,-22.5,-12.0625,0
70240,-11.1875,-23.375,-12.4375,0
70260,-6.625,-23.75,-14.4375,0
70280,-3.875,-24.1875,-16.875,0
70300,-5.5625,-25.5625,-16.3125,0
70320,-9.875,-24.375,-13.875,0
70340,-11.9375,-23.6875,-12.4375,0
70360,-11.125,-23.4375,-12.8125,0
70380,-8.25,-24.875,-11.8125,0
70400,-7.1875,-25.875,-12.5,0
70420,-5.5625,-27.25,-12.4375,0
70440,-3.1875,-28.375,-13.6875,0
70460,-4.3125,-29,-16.3125,0
70480,-10.5,-27.9375,-17.4375,0
70500,-11.0625,-26.625,-18.6875,0
70520,-4.875,-26.875,-21.3125,0
70540,-4.0625,-28.6875,-25.3125,0
70560,-4.8125,-27.4375,-25.1875,0
70580,-4.375,-24.875,-25.25,0
70600,-5.0625,-24.1875,-27.75,0
70620,-2.8125,-22.9375,-27.25,0
70640,-5.4375,-22.125,-24.125,0
70660,-17.5,-21.5625,-20.4375,0
70680,-19.1875,-18.9375,-16.375,0
70700,-7.9375,-18.5625,-14.1875,0
70720,-0.125,-21.9375,-13.0625,0
70740,-0.25,-18.25,-14,0
70760,-4.75,-12.3125,-15.6875,0
70780,-10.875,-7.9375,-15.9375,0
70800,-11.75,-6.5625,-16,0
70820,-7.75,-5.375,-18.125,0
70840,-2.0625,-2.5,-19.0625,0
70860,3.75,0.5,-19.9375,0
70880,3.5625,1.875,-19.5625,0
70900,-0.75,4.4375,-17.9375,0
70920,0.1875,7.6875,-16.8125,0
70940,2.875,10.5,-17.3125,0
70960,2.6875,11.9375,-18,0
70980,0.5625,11.9375,-14.875,0
71000,2,13.3125,-10.6875,0
71020,6.1875,13.25,-9.8125,0
71040,10.4375,11.9375,-10.8125,0
71060,6.9375,11.6875,-13.375,0
71080,3.8125,12.9375,-12.4375,0
71100,3.5,12.0625,-11.6875,0
71120,3.375,9.625,-11.5,0
71140,6.5625,7.5,-13.375,0
71160,7.5625,6.625,-15.25,0
71180,4.4375,7.1875,-15.875,0
71200,-1.4375,7.75,-14.4375,0
71220,-2.5625,7.4375,-13.75,0
71240,-1,5.1875,-13.5,0
71260,-0.3125,4.625,-12.5625,0
71280,2.625,3.6875,-10.125,0
71300,3.5,2.0625,-6.8125,0
71320,5.875,-1.875,-7.6875,0
71340,8.375,-1.9375,-12.0625,0
71360,-0.1875,-3.625,-15.8125,0
71380,-11.375,-4.25,-15.75,0
71400,-14.0625,-3.5625,-14.625,1001
71420,-10.5,-3.4375,-11.5625,0
71440,-5.875,-5.125,-9.1875,0
71460,-4.125,-6.8125,-8,0
71480,-5.75,-4.625,-4.1875,0
71500,-5.375,-2.6875,-2.375,0
71520,-5.875,-4.5,-0.8125,0
71540,-7.625,-4,2.1875,0
71560,-3.5625,-2.5625,3.0625,0
71580,-1.375,-3.9375,2,0
71600,-2.25,-2.4375,2.4375,0
71620,-5.3125,0.1875,2.0625,0
71640,-4.625,-0.375,1.3125,0
71660,-0.875,-0.4375,1.625,0
71680,3.0625,2.25,3.25,0
71700,5.0625,4.25,3.6875,0
71710,4.4375,5.1875,1.875,0
71730,-0.3125,7.625,2.25,0
71750,1.4375,11.4375,5.125,0
71770,7.3125,11.25,6,0
71790,12.9375,10.1875,5.1875,0
71810,11.75,13.75,7.5625,0
71830,12,20.5625,11.8125,0
71850,16.8125,20.1875,15.25,0
71870,29.3125,22.3125,17.3125,0
71890,36.75,20.0625,16.6875,0
71910,31.125,16,14.125,0
71930,26.125,29.0625,16.5625,0
71950,23.5,37.125,16.5,0
71970,27.0625,25.75,18.1875,0
71990,29.25,18.6875,26.25,0
72010,42.4375,31.9375,38.0625,0
72030,41.875,37.375,44.3125,0
72050,41.375,36.625,46.0625,0
72070,37.5625,37.5625,50.4375,0
72090,39.4375,49.375,61,0
72110,39.5625,55,72.0625,0
72130,44.9375,51.1875,78.25,0
72150,51.4375,56.4375,78.8125,0
72170,53.375,71.875,77.0625,0
72190,52.125,72.9375,78.0625,0
72210,49.4375,57.5,83.0625,0
72230,54.375,48.6875,83.3125,0
72250,60.5625,53.3125,72.5625,0
72270,55.1875,53.75,61.1875,0
72290,42.625,44.0625,56.6875,0
72310,25.9375,34.5,54.8125,0
72330,25.1875,29.8125,48.375,0
72350,35.8125,22.4375,42.4375,0
72370,39,12,40.8125,0
72390,31.1875,8.625,38.625,0
72410,18.875,8.9375,35.6875,0
72430,9.1875,7.875,31.8125,0
72450,4.4375,5,27.5625,0
72470,2.0625,-1.5,24.75,0
72490,0.8125,-5,24.125,0
72510,0.75,-4.1875,20.3125,0
72530,2.125,-5.5625,14.5625,0
72550,4.625,-7.1875,11.9375,0
72570,4.125,-6.875,11.75,0
72590,0.375,-8.5625,13.5625,0
72610,3.25,-8.125,12.9375,0
72630,9,-8.25,11.1875,0
72650,6,-9.625,10.75,0
72670,-0.0625,-8.25,10.1875,1000
72690,-0.625,-6.6875,7.6875,0
72710,2.9375,-7.5,3.875,0
72730,4.8125,-7.4375,0,0
72750,5.4375,-7.9375,-2.6875,0
72770,8.1875,-6.6875,-4,0
72790,8.875,-5.4375,-4.75,0
72810,5.75,-5.6875,-3.5625,0
72830,1.5,-4.625,-1.75,0
72850,0.1875,-2.75,-0.875,0
72870,0,-3.375,-0.1875,0
72890,0,-4.0625,1.625,0
72910,0.8125,-4.3125,1.25,0
72930,3.9375,-4.125,0.25,0
72950,4.1875,-4.4375,0.5,0
72970,2.4375,-4.1875,2.125,0
72990,1.375,-3.375,3.25,0
73010,6.0625,-4.125,3.5,0
73030,8.5,-3.6875,3.8125,0
73050,8.9375,-1.875,2.25,0
73070,2.9375,-0.125,-0.25,0
73090,-0.375,0,-0.4375,0
73110,1.75,0.875,-0.125,0
73130,3.0625,-1.3125,-0.125,0
73150,3.3125,-1.75,0.125,0
73170,2.875,-1.25,0.125,0
73190,1.0625,-1.4375,0.5,0
73210,-1.0625,-1.5,-0.3125,0
73230,-1.375,-1.0625,-0.875,0
73250,-0.375,-0.625,-0.8125,0
73270,1.875,-0.875,-1.5,0
73290,2.5,-0.9375,-1.875,0
73310,1.5625,-1.5,-1.375,0
73330,0.75,-1.4375,-0.6875,0
73350,-0.4375,-1.875,-0.0625,0
73370,-0.625,-1.8125,0.0625,0
73390,-1.25,-2,0.1875,0
73410,-0.4375,-2.25,0.4375,0
73430,1.8125,-3.5625,1.375,0
73450,3.375,-3.375,1.8125,0
73470,2.4375,-3.75,2.1875,0
73490,-1.4375,-4.625,2.625,0
73510,-0.5,-5.625,2.875,0
73530,1.5,-7.75,3.75,0
73550,2.1875,-8.75,4.4375,0
73570,0.5625,-8.3125,3.125,0
73590,-0.5,-7.9375,1.375,0
73610,0.3125,-9.0625,-0.3125,0
73630,0.375,-11,-0.1875,0
73650,0.9375,-12.25,-1.1875,0
73670,4,-11.9375,-2.5,0
73690,4.125,-12.5,-3.5625,0
73700,1.9375,-13.8125,-3.375,0
73720,1.6875,-14.375,-1.5625,0
73740,4.0625,-15.8125,-2.5,0
73760,5.0625,-16.3125,-5.375,0
73780,0.125,-15.6875,-7.5,0
73800,0.25,-16.0625,-8.375,0
73820,2.0625,-18.5,-8.5,0
73840,5.375,-19.1875,-9.5,0
73860,8.3125,-19.1875,-11.375,0
73880,6.0625,-19.6875,-13.125,0
73900,2.6875,-19.8125,-13.0625,0
73920,-0.125,-19.4375,-13.5625,0
73940,2.625,-19.5625,-15,0
73960,3.375,-18.5,-14.875,0
73980,0.8125,-16.5625,-14.0625,0
74000,1.6875,-15.3125,-15,0
74020,3.875,-15.5625,-15.6875,0
74040,4,-14.3125,-15.625,0
74060,2.0625,-11.1875,-15.375,0
74080,1,-9.5625,-15.3125,0
74100,3.0625,-9,-14.9375,0
74120,3.4375,-7.375,-13.75,0
74140,2.3125,-5.0625,-13.4375,0
74160,2.75,-3.625,-13.8125,0
74180,0.875,-2.9375,-13.5625,0
74200,-1.4375,-0.75,-12.4375,0
74220,-1.9375,1.9375,-13.875,0
74240,-0.625,6.0625,-15.4375,0
74260,3,9.25,-16.0625,0
74280,4.875,8.5,-17.875,0
74300,2.5,9.25,-18.8125,0
74320,-1.8125,11.375,-19.75,0
74340,-5.9375,13.875,-17.625,0
74360,-4.4375,15.25,-17.375,0
74380,-1.75,13.3125,-19.75,0
74400,-1,14,-20,0
74420,-4.4375,17.375,-17.6875,0
74440,-6,17.125,-16.75,0
74460,-6.1875,15.3125,-17.9375,0
74480,-4.0625,15.3125,-19,0
74500,-8.125,18.8125,-18.375,0
74520,-13.0625,22.0625,-17.125,0
74540,-12.6875,22.25,-16.5625,0
74560,-7.375,21.125,-16.3125,0
74580,-7.75,22.25,-15.6875,0
74600,-11.1875,26,-15.625,0
74620,-12.125,30,-14.3125,0
74640,-6.5625,29,-13.125,0
74660,-4.5,26.5625,-14.5625,0
74680,-5.5,26.375,-17.75,0
74700,-8.3125,26.875,-17.9375,0
74720,-7.4375,28.8125,-18.125,0
74740,-7.6875,28.3125,-21.5625,0
74760,-11,27.875,-22.625,0
74780,-15.6875,30.125,-22.375,0
74800,-12.875,33.6875,-23.0625,0
74820,-7.75,31.25,-23.8125,0
74840,-7.75,27.75,-25.625,0
74860,-9.6875,27.6875,-26.375,0
74880,-14.1875,30.25,-24.75,0
74900,-16.125,32.375,-24.8125,0
74920,-14.8125,32.0625,-25.25,0
74940,-13.1875,30.375,-25.875,0
74960,-14.125,30.5,-25.3125,0
74980,-14.6875,31.6875,-26,0
75000,-16.6875,33.9375,-26.375,0
75020,-17.9375,33.3125,-27.3125,0
75040,-16.5,33.5625,-27.375,0
75060,-12.8125,33.6875,-27,0
75080,-14.125,34.3125,-27.125,0
75100,-16.5625,35.5625,-28.625,0
75120,-15.6875,35,-29.4375,0
75140,-14.25,33.1875,-29.125,0
75160,-12.25,32.6875,-27.3125,0
75180,-13.1875,31.125,-24.125,0
75200,-12.8125,29.1875,-21.3125,0
75220,-10.5625,28.25,-18,0
75240,-10.6875,29.1875,-15.8125,0
75260,-11.3125,27.8125,-14.6875,0
75280,-14.5625,25.625,-11.75,0
75300,-13.75,22.5625,-8,0
75320,-12.375,19.875,-6,0
75340,-9.25,21.375,-3.9375,0
75360,-12.0625,24.375,-2.3125,0
75380,-14.1875,23.25,-2.625,0
75400,-12.8125,22.625,-2.25,0
75420,-7.6875,25.5,-0.0625,0
75440,-6.6875,29.0625,2.125,0
75460,-10.125,29.1875,2.375,0
75480,-11.625,27.5625,3.125,0
75500,-5.1875,24.125,5.5,0
75520,-1.1875,24.5625,6.625,0
75540,-8,28.8125,7.375,0
75560,-14.5625,28.125,9.5625,0
75580,-9.9375,22.0625,14.0625,0
75600,0.5625,20.75,15.5625,0
75620,2.5,21.25,16.8125,0
75640,-6.125,21.6875,19.375,0
75660,-12.375,19.9375,22.3125,0
75680,-5.5,14.375,24.75,0
75700,1.25,13.8125,24.3125,0
75720,0.8125,14.875,24.125,0
75740,0.5,12.125,25.125,0
75760,3.8125,7.25,28,0
75780,3.8125,7.75,27.375,0
75800,0.1875,8.5625,24.375,0
75820,-0.5625,6.9375,25.5,0
75840,2.25,3.625,28,0
75860,7.0625,2.4375,28.0625,0
75880,6.5625,0.5625,26.9375,0
75900,2.375,0.75,27.5625,0
75920,4,-1.75,27.875,0
75940,3.375,-2.4375,27.625,0
75960,0.75,-3.3125,26.5,0
75980,-0.75,-7.375,26.8125,0
76000,4.8125,-12.3125,27.6875,0
76020,10.1875,-15.3125,26.6875,0
76040,7.375,-16.75,25.1875,0
76060,-2.125,-15.5,24.4375,0
76080,-4.8125,-18.25,25,0
76100,0,-23.9375,23.3125,0
76120,4.9375,-26.1875,21,0
76140,4.75,-24.9375,19.6875,0
76160,2.9375,-25.5625,19.5,0
76180,0.5625,-26.75,17.9375,0
76200,-1.0625,-27.75,16.9375,0
76220,-1.375,-28,17.75,0
76240,1.375,-28.875,19.875,0
76260,2.3125,-29.1875,19.5625,0
76280,-0.8125,-30.375,19.1875,0
76300,-4,-30.6875,18.0625,0
76320,-3.5,-29.375,16.125,0
76340,1.125,-29.1875,15,0
76360,2.8125,-29.75,14.375,0
76380,-0.9375,-28.8125,14.6875,0
76400,-2.75,-26.375,15.5,0
76420,-0.6875,-25.5,16.5625,0
76440,0.75,-23.4375,15.5625,0
76460,0.625,-22.8125,15.5,0
76480,0.0625,-21.4375,15.75,0
76500,2.5,-22.25,17.5625,0
76520,3.6875,-23.375,18.5,0
76540,0.6875,-21.5,17.6875,0
76560,-1.5625,-20.9375,17.8125,0
76580,0,-23.125,17.6875,0
76600,-1.25,-25.75,17.3125,0
76620,-3.875,-26.875,16.375,0
76640,-6.125,-29.375,16.125,0
76660,-6.125,-32.125,16.3125,0
76680,-5.5625,-34.4375,14.5,0
76700,-7.4375,-34,12.3125,0
76720,-10.125,-34.4375,13,0
76740,-9.1875,-37.5,14.75,0
76760,-4.875,-40.0625,12.25,0
76780,-3.9375,-37.875,10.125,0
76800,-7.8125,-37.0625,10.25,0
76820,-11,-40.4375,10.4375,0
76840,-9.1875,-41.9375,7.375,0
76860,-6.375,-38.625,2.5,0
76880,-4.4375,-35.25,1.375,0
76900,-3.3125,-38.125,1.75,0
76920,-1.875,-42.0625,-0.1875,0
76940,0.875,-38.6875,-3.5625,0
76960,1.0625,-36.375,-6.375,0
76980,-0.5625,-38.9375,-7,0
77000,0,-41.5625,-7.6875,0
77020,-0.8125,-40.5,-9.5,0
77040,0.375,-39,-11.5625,0
77060,-0.5625,-36.4375,-14.9375,0
77080,-5.125,-36.8125,-15.1875,0
77100,-9.125,-37.375,-16.1875,0
77120,-3.25,-36.5625,-18,0
77130,0.5625,-35.875,-19.5,0
77150,1.1875,-33.25,-19.625,0
77170,-4,-33.1875,-18,0
77190,-7,-33.375,-15.6875,0
77210,-3.4375,-33.3125,-16.5625,0
77230,1.5,-33.375,-16.875,0
77250,0.8125,-31.75,-15.75,0
77270,-5.8125,-25.5,-16.125,0
77290,-8.4375,-21.9375,-18.625,0
77310,-8.75,-24.5625,-18.75,0
77330,-3.6875,-25.5,-17.6875,0
77350,-1.3125,-23.75,-17.875,0
77370,-1.3125,-20.125,-18.1875,0
77390,-2.75,-17.9375,-18.125,0
77410,-7.875,-17.4375,-16.9375,0
77430,-8.0625,-16.0625,-16.6875,0
77450,-6.875,-15,-16.75,0
77470,-7.625,-15.125,-15.125,0
77490,-7,-15.1875,-14.5,0
77510,-6,-16.625,-16.5,0
77530,-5.8125,-18.75,-17.375,0
77550,-5.6875,-19.125,-19.0625,0
77570,-8.375,-17.5625,-20.3125,0
77590,-11.75,-16.625,-19.625,0
77610,-12.625,-15.3125,-21.125,0
77630,-9.5,-13.875,-22.125,0
77650,-8.8125,-12,-21.875,0
77670,-8.375,-11.5,-20.75,0
77690,-9.75,-8.9375,-21.125,0
77710,-9.625,-6,-23.5,0
77730,-8.8125,-5.125,-22.625,0
77750,-11.1875,-4.125,-21.1875,0
77770,-11.875,-1.9375,-23.125,0
77790,-9.3125,1.1875,-23.5,0
77810,-11,5.875,-21.1875,0
77830,-11,9.0625,-19.75,0
77850,-7.6875,9.9375,-22.0625,0
77870,-6.9375,12.625,-25.3125,0
77890,-9.9375,17.6875,-26.0625,0
77910,-14.6875,24.25,-26.25,0
77930,-11.0625,25.9375,-26.125,0
77950,-9.5625,26.5625,-26.125,0
77970,-8.5625,30.375,-29.1875,0
77990,-8.9375,34.3125,-30.125,0
78010,-13.625,36.5,-29.25,0
78030,-13.75,39.25,-32.875,0
78050,-13.0625,40.875,-36.1875,0
78070,-17.6875,42.1875,-34.375,0
78090,-17,43.875,-35.75,0
78110,-16.75,45.8125,-36.375,0
78130,-14.8125,45.75,-36.125,0
78150,-19.75,44.6875,-35.6875,0
78170,-23.4375,46.9375,-35.5625,0
78190,-26.4375,48.6875,-34.9375,0
78210,-27.9375,48.875,-35.0625,0
78230,-26.6875,48.4375,-32.625,0
78250,-23.5,47.9375,-31.4375,0
78270,-24.125,47.5,-29.25,0
78290,-23.125,46.625,-28.125,0
78310,-25,45.4375,-27,0
78330,-28.375,46.1875,-24.375,0
78350,-26.4375,44.5625,-20.375,0
78370,-24.8125,42.6875,-18,0
78390,-25.3125,43.6875,-16.0625,0
78410,-31.6875,45.5625,-11.625,0
78430,-28.5,44.3125,-8.5,0
78450,-23.1875,41,-4.625,0
78470,-19.3125,37.3125,-1.6875,0
78490,-20.6875,36.1875,0.25,0
78510,-22.3125,36.4375,3,0
78530,-22.625,34.375,5.9375,0
78550,-22.125,33.125,7.5625,0
78570,-22,34.6875,14.0625,0
78590,-19.375,32.625,20.625,0
78610,-12.9375,26.8125,22.0625,0
78630,-9.625,26,25.375,0
78650,-8.6875,28.5625,28.3125,0
78670,-10.0625,26.25,29.1875,0
78690,-11.625,24,29.125,0
78710,-8.375,22,29.25,0
78730,0.5,19.625,28.5625,0
78750,7.3125,19.5625,27.125,0
78770,1.3125,21.75,26.5625,0
78790,-1.3125,21.4375,27.5,0
78810,5.0625,16.5625,27.6875,0
78830,9.375,17.1875,26.125,0
78850,5.875,23.3125,27.4375,0
78870,-0.5,25.5625,30.75,0
78890,-0.625,23,31.875,0
78910,12.375,17.5625,35,0
78930,19,15.6875,35.8125,0
78950,11.9375,17.5625,34.125,0
78970,7.125,13.375,34.6875,0
78990,5.125,6.75,31.875,0
79010,3.9375,6.625,28.4375,0
79030,3.0625,5.75,26.6875,0
79050,3.625,0.9375,24.1875,0
79070,7.5,-2.125,21.0625,0
79090,9.75,-2.125,19.1875,0
79110,4.6875,-2.75,20.125,0
79120,-3.0625,-8.75,23.3125,0
79140,-4,-11.875,26.625,0
79160,3.75,-13.625,27.1875,0
79180,0.9375,-13.5,25.5625,0
79200,-7.75,-12.5,25.4375,0
79220,-10.0625,-13.5625,24.75,0
79240,-4.125,-16.625,24.25,0
79260,4.5,-19.875,23.125,0
79280,6.4375,-22.1875,23.0625,0
79300,0.5625,-22.6875,21.1875,0
79320,-3.25,-23.9375,20.625,0
79340,-7.125,-23.75,19.3125,0
79360,-9.3125,-25.0625,18.5,0
79380,-12.4375,-26.8125,17.6875,0
79400,-11.8125,-26.9375,18.6875,0
79420,-8.875,-28.125,17.6875,0
79440,-10.1875,-28.1875,16.625,0
79460,-13.3125,-25.5,16.1875,0
79480,-15.125,-24.9375,15.4375,0
79500,-11.5,-26.4375,15.625,0
79520,-10.5625,-29.9375,17.75,0
79540,-10.875,-30.8125,19.625,0
79560,-14.75,-30.625,22.9375,0
79580,-16.75,-30.1875,26.8125,0
79600,-15.375,-28,26.6875,0
79620,-19.3125,-27.0625,22.6875,0
79640,-21.125,-28.625,20.8125,0
79660,-14,-29.9375,19.6875,0
79680,-7.25,-29.875,15.5625,0
79700,-3.1875,-27.75,11.6875,0
79720,-4.4375,-27.125,9.25,0
79740,-8.8125,-30,9.3125,0
79760,-6.3125,-31.1875,8.3125,0
79780,-1,-29.125,3.5,0
79800,-7.1875,-29,1.8125,0
79820,-13.625,-29.875,3,0
79840,-10.4375,-33.375,2,0
79860,-7.875,-34.8125,0.375,0
79880,-13.25,-36.5625,0.6875,0
79900,-24.375,-37.0625,4.1875,0
79920,-27.9375,-37.875,4.875,0
79940,-26.125,-38,1.0625,0
79960,-24.875,-35.75,-2.3125,0
79980,-21.3125,-34.8125,-5.25,0
80000,-16.75,-36.0625,-7.875,0
80020,-12.375,-37.125,-12.75,0
80040,-11.375,-34.875,-18.3125,0
80060,-10.125,-32.8125,-21.625,0
80080,-11,-33.125,-22.3125,0
80100,-11.3125,-35.6875,-23.5,0
80120,-10,-36.3125,-24.5625,0
80140,-6.75,-34.5625,-25.25,0
80160,-7.3125,-33.8125,-25.125,0
80180,-10.25,-34.5625,-23.375,0
80200,-11.625,-34.3125,-23.75,0
80220,-11.1875,-33.125,-25.3125,0
80240,-8.375,-31.875,-23.9375,0
80260,-8.4375,-31.625,-20.0625,0
80280,-13.0625,-31.125,-17.5625,0
80300,-14.3125,-30.8125,-15,0
80320,-9.125,-32.3125,-12.3125,0
80340,-6.1875,-30.1875,-9.625,0
80360,-9.125,-28,-9.625,0
80380,-15.875,-25.0625,-7.6875,0
80400,-15.6875,-22.1875,-7.3125,0
80420,-5.0625,-23.25,-10.6875,0
80440,2.875,-24.8125,-12.0625,0
80460,3.5625,-21.3125,-13.625,0
80480,-2.875,-16.125,-15.4375,0
80500,-6.0625,-12.5,-17.6875,0
80520,-2.4375,-13.625,-20.375,0
80540,1.25,-15.0625,-21.6875,0
80560,0.875,-12.5,-23.0625,0
80580,1.6875,-8.875,-24.3125,0
80600,0.5,-7.875,-26,0
80620,-3.0625,-7.75,-26.5,0
80640,-3.9375,-4.75,-25.9375,0
80660,-3.75,-0.875,-26.5,0
80680,-3.125,-0.25,-23.0625,0
80700,-4.25,-0.625,-22.25,0
80720,-3.875,1.6875,-24.4375,0
80740,-4.1875,4.625,-26.25,0
80760,-6.6875,8.5,-25.3125,0
80780,-12,12.75,-25.75,0
80800,-12.5,14.25,-27.9375,0
80820,-9.375,14.875,-27.3125,0
80840,-8.5,15.625,-26,0
80860,-10.5625,16.875,-22.8125,0
80880,-11,18.5625,-24.8125,0
80900,-11.875,20.6875,-24.4375,0
80920,-15.3125,22.5625,-22.5625,0
80940,-17.1875,23.6875,-21,0
80960,-11.0625,25.625,-18.8125,0
80980,-6.4375,24.8125,-19.875,0
81000,-6.75,25.9375,-21.875,0
81020,-12.625,31.0625,-23.625,0
81040,-18.125,34.125,-24.125,0
81060,-17.8125,34.25,-24.625,0
81080,-14.4375,33.5625,-25.25,0
81100,-11.75,34.9375,-24.9375,0
81120,-6.0625,38.0625,-26.5,0
81140,-5.8125,39,-29.375,0
81160,-13.0625,38.25,-29.25,0
81180,-14.75,39.875,-26.875,0
81200,-11.5625,41.0625,-25.3125,0
81220,-8.75,39.6875,-25.5625,0
81240,-7.6875,37.75,-23.9375,0
81260,-9.3125,38.4375,-21.8125,0
81280,-12.5625,39.5625,-20.0625,0
81300,-14.5,40.5,-20.625,0
81320,-16.1875,40.0625,-19.9375,0
81340,-15.1875,38.375,-16,0
81360,-15.875,36.75,-12.6875,0
81380,-11.1875,36.6875,-9.9375,0
81400,-6.75,36.4375,-8.8125,0
81420,-13.5625,37.5,-8.375,0
81440,-24.1875,38.5,-5.125,0
81460,-19.6875,39.625,-4.375,0
81480,-11.625,40.6875,-3.6875,0
81500,-9.25,39.8125,0.375,0
81520,-9.625,40.25,4.4375,0
81540,-5.1875,40.875,5.75,0
81560,-2,41.5,5.5625,0
81580,-4.75,42.3125,6.25,0
81600,-8.375,41,10,0
81620,-6.9375,39.0625,13.75,0
81640,-3.125,36.4375,15.5625,0
81660,4.625,35.4375,19.4375,0
81680,9.6875,36.875,21.5,0
81700,0.125,39.0625,21.9375,0
81720,-10.875,36.5625,25.5,0
81740,-4.125,31.3125,28.25,0
81760,8.25,30.4375,27.5,0
81780,5.8125,33.9375,24.9375,0
81800,-9,33.3125,26.6875,0
81820,-19.0625,29.1875,30.125,0
81840,-13.625,24.125,29.125,0
81860,6.3125,20.0625,27.5625,0
81880,14.875,20.8125,25.4375,0
81900,0.625,24.875,26,0
81920,-11.1875,24.5625,28.5,0
81940,-7,20.3125,27.0625,0
81960,5.125,17.375,25.1875,0
81980,6.9375,19.6875,23.375,0
82000,0.1875,21.75,23.4375,0
82020,1.1875,20.625,25.875,0
82040,6.4375,17.625,25.625,0
82060,12.9375,14.6875,21.1875,0
82080,11.4375,16.75,22.9375,0
82100,-0.0625,18.1875,27.1875,0
82120,-5.875,13.5625,27.1875,0
82140,-6.8125,7.6875,28.4375,0
82160,-3.4375,7,29.0625,0
82180,-4.5625,5.75,30.25,0
82200,-9.5625,3.5625,30.875,0
82220,-12.125,1.375,30.9375,0
82240,-10.9375,-0.9375,29.1875,0
82260,-9.5625,-2.4375,28.6875,0
82280,-11.625,-5.5625,28.125,0
82300,-14.0625,-7.3125,27.4375,0
82320,-12.125,-9.0625,25.1875,0
82340,-11.25,-11.4375,21.5625,0
82360,-11.4375,-15.875,21.9375,0
82380,-11.6875,-17.5625,21.625,0
82400,-8.875,-17.8125,18.6875,0
82420,-8.4375,-20.3125,17.125,0
82440,-13.25,-23.75,17.1875,0
82460,-14.6875,-26.3125,18.375,0
82480,-9.0625,-28.125,17.75,0
82500,-8.875,-29.5,17.5,0
82520,-13.5625,-30.5625,18.5,0
82540,-16.5625,-30.1875,16.9375,0
82550,-13.625,-30,13.3125,0
82570,-16.25,-31.3125,14.8125,0
82590,-17.4375,-29.875,14.1875,0
82610,-8.375,-30.6875,11.0625,0
82630,-2.875,-33.3125,11,0
82650,-5.75,-32.9375,12,0
82670,-10.5625,-31.8125,9.25,0
82690,-9.875,-32.5,7.625,0
82710,-14,-33.75,6.4375,0
82730,-18.5,-35.125,7.0625,0
82750,-16.5625,-38.625,6.9375,0
82770,-10.4375,-39.3125,4.875,0
82790,-9,-36.125,0.5625,0
82810,-20.375,-34.75,-1.625,0
82830,-22.375,-37.25,-5.75,0
82850,-19.1875,-41.75,-8.625,0
82870,-7.875,-42.6875,-11.625,0
82890,-5,-40.1875,-16.0625,0
82910,-14,-38.625,-19.25,0
82930,-17.3125,-39.0625,-19.25,0
82950,-16.625,-40.375,-19.25,0
82970,-12.9375,-41.375,-21.5,0
82990,-10.5,-40.375,-20.625,0
83010,-11,-39.5625,-17.3125,0
83030,-17.375,-39.125,-17.3125,0
83050,-22.625,-37,-19.375,0
83070,-20.25,-35.8125,-19.3125,0
83090,-17.1875,-35.6875,-18.375,0
83110,-17.6875,-36.0625,-17.25,0
83130,-15.0625,-35.125,-18.0625,0
83150,-12.5,-33.4375,-17.3125,0
83170,-7.4375,-35.125,-14.6875,0
83190,-7.0625,-36.4375,-13,0
