Timestamp, Angle x, Angle y, Angle z, Marker
50,-1.15337,-1.02244,1.81804,0
70,-1.15395,-1.02124,1.81892,0
90,-1.15436,-1.01956,1.82007,0
110,-1.15456,-1.01761,1.81999,0
130,-1.1559,-1.01503,1.82072,0
150,-1.15715,-1.01183,1.82143,0
150,-1.15948,-1.00901,1.82386,0
190,-1.16113,-1.0064,1.82634,0
210,-1.16305,-1.00435,1.82903,0
230,-1.16502,-1.0031,1.83151,0
250,-1.16621,-1.00272,1.83322,0
270,-1.16768,-1.00357,1.83526,0
290,-1.16855,-1.00416,1.83655,0
310,-1.1689,-1.00469,1.83714,0
330,-1.16943,-1.00495,1.83821,0
350,-1.17042,-1.00475,1.8397,0
370,-1.17193,-1.0044,1.84105,0
390,-1.17342,-1.00333,1.84189,0
410,-1.17587,-1.00163,1.84366,0
430,-1.17847,-0.999864,1.84672,0
450,-1.18074,-0.99814,1.84926,0
470,-1.18296,-0.996241,1.85062,0
490,-1.18444,-0.994162,1.85174,0
510,-1.18477,-0.992514,1.85282,0
530,-1.18503,-0.991075,1.85456,0
550,-1.18537,-0.990046,1.85596,0
570,-1.18551,-0.989348,1.85588,0
590,-1.18459,-0.987627,1.85524,0
610,-1.18222,-0.986133,1.85514,0
630,-1.17825,-0.984566,1.85457,0
650,-1.17533,-0.982562,1.85377,0
670,-1.17343,-0.981593,1.8515,0
690,-1.17124,-0.981603,1.84817,0
710,-1.16993,-0.981292,1.8466,0
730,-1.16829,-0.981228,1.8466,0
750,-1.16781,-0.982173,1.84697,0
770,-1.1691,-0.983449,1.84842,0
790,-1.17121,-0.983927,1.8499,0
810,-1.17416,-0.984553,1.8521,0
830,-1.17691,-0.984846,1.85396,0
850,-1.18104,-0.985489,1.85735,0
870,-1.18536,-0.986065,1.86038,0
890,-1.1894,-0.986872,1.86328,0
910,-1.19191,-0.987172,1.86547,0
930,-1.19597,-0.986787,1.86891,0
950,-1.19989,-0.987248,1.87289,0
970,-1.2036,-0.988699,1.8789,0
990,-1.20801,-0.990615,1.88427,0
1010,-1.2122,-0.992499,1.88846,0
1030,-1.21683,-0.993968,1.89159,0
1050,-1.21923,-0.995252,1.89472,0
1070,-1.22074,-0.997174,1.89651,0
1090,-1.21682,-0.998968,1.89688,0
1110,-1.2132,-1.00044,1.89607,0
1130,-1.21231,-1.00175,1.89648,0
1150,-1.21321,-1.00376,1.89725,0
1170,-1.21332,-1.0053,1.89721,0
1190,-1.21344,-1.00628,1.89733,0
1210,-1.2137,-1.00642,1.89747,0
1230,-1.21521,-1.00505,1.89857,0
1250,-1.21578,-1.00336,1.89891,0
1270,-1.21444,-1.00088,1.90012,0
1280,-1.21329,-0.998729,1.90274,0
1300,-1.21434,-0.997858,1.90742,0
1320,-1.21559,-0.998881,1.91181,0
1340,-1.21524,-1.00029,1.91573,0
1360,-1.21308,-1.00171,1.91783,0
1380,-1.21112,-1.00365,1.91814,0
1400,-1.20918,-1.00542,1.91696,0
1420,-1.20577,-1.0072,1.91376,0
1440,-1.20303,-1.00926,1.91194,0
1460,-1.20009,-1.01088,1.90969,0
1480,-1.19826,-1.01114,1.90917,0
1500,-1.19847,-1.01032,1.91052,0
1520,-1.20178,-1.00948,1.91449,0
1540,-1.20329,-1.00921,1.91777,0
1560,-1.20599,-1.00968,1.92118,0
1580,-1.20811,-1.01029,1.92227,0
1600,-1.20989,-1.00989,1.92448,0
1620,-1.21156,-1.00887,1.92866,0
1640,-1.21358,-1.00816,1.93429,0
1660,-1.21645,-1.00632,1.94159,0
1680,-1.21891,-1.00508,1.94737,0
1700,-1.22195,-1.00416,1.95216,0
1720,-1.22537,-1.00372,1.95698,0
1740,-1.22751,-1.00373,1.96142,0
1760,-1.22906,-1.00351,1.96463,0
1780,-1.23191,-1.00401,1.96943,0
1800,-1.23544,-1.00541,1.97417,0
1820,-1.23892,-1.00692,1.97826,0
1840,-1.24137,-1.00791,1.98118,0
1860,-1.2429,-1.00851,1.98397,0
1880,-1.24598,-1.00801,1.98789,0
1900,-1.24981,-1.00727,1.99267,0
1920,-1.25347,-1.00597,1.99666,0
1940,-1.25702,-1.00308,2.00065,0
1960,-1.25929,-1.0007,2.00415,0
1980,-1.25991,-0.99875,2.00634,0
2000,-1.26174,-0.996461,2.00932,0
2020,-1.26506,-0.993845,2.01217,0
2040,-1.26716,-0.99088,2.01317,0
2060,-1.26745,-0.987839,2.01188,0
2080,-1.26556,-0.985224,2.00834,0
2100,-1.26289,-0.983035,2.00399,0
2120,-1.25906,-0.980059,1.99878,0
2140,-1.25529,-0.97618,1.99316,0
2160,-1.25048,-0.971463,1.98659,0
2180,-1.24399,-0.965572,1.97865,0
2200,-1.23645,-0.959258,1.97121,0
2220,-1.2291,-0.952625,1.96504,0
2240,-1.22086,-0.945095,1.95832,0
2260,-1.21235,-0.936733,1.95057,0
2280,-1.20238,-0.927834,1.94146,0
2300,-1.18972,-0.917456,1.93085,0
2320,-1.17286,-0.905967,1.91756,0
2340,-1.15179,-0.893191,1.90266,0
2360,-1.12831,-0.876578,1.88743,0
2380,-1.10552,-0.857386,1.87392,0
2400,-1.08215,-0.83736,1.85972,0
2420,-1.05773,-0.81532,1.84215,0
2440,-1.03099,-0.788323,1.82115,0
2460,-1.0048,-0.756804,1.80205,0
2480,-0.982542,-0.722439,1.78662,0
2500,-0.963594,-0.682646,1.77089,0
2520,-0.946988,-0.636128,1.75639,0
2540,-0.928452,-0.588308,1.74335,0
2560,-0.912359,-0.539743,1.73111,0
2580,-0.907365,-0.489036,1.71995,0
2600,-0.911803,-0.43633,1.71048,0
2620,-0.922574,-0.381657,1.70298,0
2640,-0.93591,-0.326075,1.69729,0
2660,-0.948821,-0.269606,1.69416,0
2680,-0.961588,-0.213738,1.6959,0
2700,-0.972687,-0.161036,1.70164,0
2720,-0.981339,-0.111719,1.71051,0
2740,-0.986199,-0.0646692,1.72086,0
2760,-0.993121,-0.01936,1.73082,0
2780,-1.00474,0.0233541,1.73995,0
2800,-1.01955,0.0662931,1.75128,0
2820,-1.03413,0.111349,1.76667,0
2840,-1.04839,0.162705,1.78642,0
2860,-1.06064,0.22029,1.80588,0
2880,-1.07445,0.285883,1.82136,0
2900,-1.09882,0.344719,1.82889,0
2920,-1.13939,0.362046,1.80609,0
2940,-1.16641,0.311272,1.77413,0
2960,-1.1487,0.292924,1.76826,0
2980,-1.07686,0.30175,1.78497,0
3000,-1.01544,0.306827,1.79924,0
3020,-0.984831,0.317842,1.81385,0
3040,-0.990189,0.32073,1.82759,0
3060,-1.02516,0.308445,1.83561,0
3080,-1.06848,0.298161,1.84427,0
3100,-1.09888,0.294033,1.85512,0
3120,-1.10834,0.291305,1.87303,0
3140,-1.10194,0.287329,1.89492,0
3160,-1.09748,0.284597,1.91366,0
3180,-1.10199,0.284831,1.92912,0
3200,-1.11024,0.287489,1.94586,0
3220,-1.12187,0.29402,1.96473,0
3240,-1.13666,0.30353,1.98262,0
3260,-1.15319,0.315043,1.99819,0
3280,-1.16996,0.325408,2.01152,0
3290,-1.18868,0.334769,2.02507,0
3310,-1.20643,0.345644,2.04212,0
3330,-1.22226,0.358394,2.0626,0
3350,-1.23851,0.373089,2.08628,0
3370,-1.25203,0.39118,2.11297,0
3390,-1.26192,0.41369,2.14057,0
3410,-1.27506,0.432663,2.15822,0
3430,-1.2886,0.436084,2.15483,0
3450,-1.29857,0.431013,2.13942,0
3470,-1.28798,0.428874,2.12625,0
3490,-1.27552,0.424541,2.11601,0
3510,-1.26717,0.414737,2.10959,0
3530,-1.25666,0.410952,2.10842,0
3550,-1.24081,0.414026,2.11274,0
3570,-1.22723,0.416954,2.11666,0
3590,-1.22212,0.420038,2.1182,0
3610,-1.22567,0.422389,2.1175,0
3630,-1.23434,0.422641,2.11529,0
3650,-1.24077,0.421487,2.11295,0
3670,-1.24416,0.42193,2.10971,0
3690,-1.24523,0.424325,2.10582,0
3710,-1.24454,0.426844,2.10115,0
3730,-1.24346,0.429088,2.09637,0
3750,-1.24287,0.43118,2.09165,0
3770,-1.24223,0.433865,2.08747,0
3790,-1.24203,0.436952,2.08362,0
3810,-1.24186,0.440584,2.08025,0
3830,-1.24146,0.444728,2.07723,0
3850,-1.23974,0.448884,2.07506,0
3870,-1.23756,0.452621,2.07407,0
3890,-1.23457,0.456313,2.07483,0
3910,-1.23129,0.458518,2.07711,0
3930,-1.22933,0.459372,2.07984,0
3950,-1.22961,0.458914,2.08148,0
3970,-1.23183,0.457996,2.0817,0
3990,-1.23397,0.457015,2.08047,0
4010,-1.2354,0.456629,2.07841,0
4030,-1.23631,0.456776,2.07654,0
4050,-1.23646,0.457366,2.07511,0
4070,-1.23664,0.458185,2.07399,0
4090,-1.23743,0.459248,2.07316,0
4110,-1.23796,0.460081,2.07268,0
4130,-1.23855,0.460408,2.07207,0
4150,-1.23915,0.460453,2.07164,0
4170,-1.24013,0.460344,2.07095,0
4190,-1.24084,0.46057,2.07024,0
4210,-1.24109,0.460943,2.0698,0
4230,-1.24107,0.460997,2.06985,0
4250,-1.24047,0.461352,2.06966,0
4270,-1.23939,0.461651,2.06967,0
4290,-1.23819,0.461849,2.0697,0
4310,-1.23735,0.462061,2.06972,0
4330,-1.23735,0.462061,2.06972,0
4350,-1.23684,0.462626,2.06961,0
4370,-1.23632,0.462846,2.06951,0
4390,-1.23634,0.463049,2.06958,0
4410,-1.23634,0.463049,2.06958,0
4430,-1.23655,0.463415,2.06903,0
4450,-1.23656,0.463674,2.06851,0
4470,-1.23673,0.463583,2.06787,0
4490,-1.23667,0.463438,2.06732,0
4510,-1.23623,0.46336,2.06652,0
4530,-1.23581,0.463457,2.06609,0
4550,-1.23508,0.463741,2.06563,0
4570,-1.23437,0.464059,2.06563,0
4590,-1.23354,0.464018,2.06554,0
4610,-1.23354,0.464018,2.06554,0
4630,-1.23399,0.464268,2.0653,0
4650,-1.23412,0.464371,2.06528,0
4670,-1.23432,0.464477,2.06525,0
4690,-1.23432,0.464477,2.06525,0
4710,-1.23464,0.465085,2.06523,0
4730,-1.23464,0.465085,2.06523,0
4750,-1.23462,0.465138,2.06528,0
4770,-1.23383,0.465248,2.06521,0
4790,-1.23284,0.465415,2.06532,0
4810,-1.23201,0.465488,2.06544,0
4830,-1.23201,0.465488,2.06544,0
4850,-1.23236,0.465787,2.06525,0
4870,-1.23268,0.466139,2.06511,0
4890,-1.23324,0.466686,2.06481,0
4910,-1.23408,0.466987,2.06437,0
4930,-1.23454,0.467469,2.06391,0
4950,-1.23486,0.467991,2.06338,0
4970,-1.23487,0.468251,2.06286,0
4990,-1.23511,0.468565,2.06226,0
5010,-1.2351,0.46902,2.06169,0
5030,-1.23511,0.469423,2.06108,0
5050,-1.23456,0.469564,2.06059,0
5070,-1.23361,0.469655,2.0603,0
5090,-1.23242,0.469832,2.06064,0
5110,-1.23073,0.469894,2.06102,0
5130,-1.22858,0.469901,2.0616,0
5150,-1.22545,0.470018,2.06289,0
5170,-1.22195,0.470349,2.06462,0
5190,-1.21937,0.470346,2.0661,0
5210,-1.21739,0.47047,2.06766,0
5230,-1.21565,0.470821,2.06951,0
5250,-1.21355,0.470664,2.07149,0
5270,-1.21107,0.470399,2.07361,0
5290,-1.20862,0.470366,2.07551,0
5310,-1.20599,0.470029,2.07748,0
5330,-1.20325,0.469472,2.07926,0
5350,-1.20043,0.468942,2.08075,0
5370,-1.19732,0.468068,2.08172,0
5390,-1.19355,0.467062,2.08263,0
5410,-1.18912,0.465721,2.08339,0
5430,-1.18429,0.464111,2.08404,0
5450,-1.17906,0.462141,2.08472,0
5470,-1.17395,0.460364,2.08513,0
5490,-1.16871,0.458538,2.08562,0
5510,-1.16381,0.456852,2.08665,0
5530,-1.15892,0.45518,2.08803,0
5550,-1.15454,0.453927,2.08955,0
5570,-1.15088,0.453147,2.09113,0
5590,-1.14738,0.452877,2.09309,0
5610,-1.14375,0.452714,2.0955,0
5630,-1.1402,0.452506,2.09821,0
5650,-1.13651,0.452625,2.1007,0
5670,-1.13333,0.45241,2.10305,0
5690,-1.13012,0.451833,2.10506,0
5710,-1.12631,0.45128,2.10727,0
5730,-1.12272,0.451023,2.1092,0
5750,-1.1191,0.450469,2.11128,0
5770,-1.11578,0.449263,2.1127,0
5790,-1.11293,0.448316,2.11364,0
5810,-1.11033,0.447474,2.11432,0
5830,-1.10778,0.446778,2.11493,0
5850,-1.10518,0.445733,2.11553,0
5870,-1.10299,0.44446,2.11607,0
5890,-1.10103,0.443196,2.11649,0
5910,-1.09936,0.442288,2.11678,0
5930,-1.09776,0.441684,2.11736,0
5950,-1.09634,0.441327,2.1175,0
5970,-1.09472,0.440871,2.11801,0
5990,-1.09294,0.440403,2.11866,0
6010,-1.09173,0.440058,2.11902,0
6030,-1.09162,0.440155,2.11912,0
6050,-1.09151,0.440049,2.11915,0
6070,-1.09151,0.440049,2.11915,0
6090,-1.09151,0.440049,2.11915,0
6110,-1.09144,0.439952,2.11928,0
6130,-1.0913,0.439994,2.11922,0
6150,-1.09173,0.440058,2.11902,0
6170,-1.09253,0.440089,2.11873,0
6190,-1.09362,0.440329,2.1184,0
6210,-1.09462,0.440618,2.11812,0
6230,-1.0954,0.440796,2.11775,0
6250,-1.09579,0.441055,2.11752,0
6270,-1.09652,0.44153,2.11735,0
6290,-1.09773,0.441875,2.11699,0
6310,-1.09893,0.442121,2.11677,0
6330,-1.10005,0.442312,2.11638,0
6350,-1.10151,0.442518,2.11597,0
6370,-1.10321,0.442584,2.11551,0
6390,-1.10518,0.443154,2.11484,0
6410,-1.10706,0.443569,2.11415,0
6430,-1.10952,0.444006,2.11331,0
6450,-1.11207,0.444596,2.11249,0
6470,-1.11477,0.444893,2.11159,0
6490,-1.11632,0.445397,2.11114,0
6510,-1.11757,0.445587,2.11052,0
6530,-1.11854,0.44611,2.10992,0
6550,-1.11976,0.446494,2.10928,0
6570,-1.12114,0.446683,2.10842,0
6590,-1.12239,0.446912,2.10751,0
6610,-1.12339,0.447281,2.10664,0
6630,-1.12454,0.447461,2.10591,0
6650,-1.12584,0.447452,2.10532,0
6670,-1.1269,0.447332,2.10464,0
6690,-1.12795,0.447463,2.1041,0
6710,-1.12906,0.447632,2.10327,0
6720,-1.13024,0.447867,2.1027,0
6740,-1.13147,0.448101,2.10214,0
6760,-1.13248,0.448222,2.10149,0
6780,-1.13389,0.448258,2.10071,0
6800,-1.13497,0.448338,2.10012,0
6820,-1.136,0.448409,2.09942,0
6840,-1.13694,0.448326,2.09869,0
6860,-1.13789,0.448339,2.09783,0
6880,-1.13935,0.448275,2.09696,0
6900,-1.141,0.448303,2.09571,0
6920,-1.14229,0.448367,2.09454,0
6940,-1.1434,0.448326,2.09339,0
6960,-1.14437,0.448325,2.09219,0
6980,-1.14534,0.448324,2.09099,0
7000,-1.14598,0.448164,2.08989,0
7020,-1.14673,0.448012,2.08889,0
7040,-1.14765,0.447622,2.08799,0
7060,-1.14849,0.447622,2.08703,0
7080,-1.14997,0.447296,2.08603,0
7100,-1.15097,0.446855,2.08508,0
7120,-1.15197,0.44652,2.08434,0
7140,-1.15291,0.446574,2.08354,0
7160,-1.15397,0.446732,2.08271,0
7180,-1.15476,0.447042,2.08227,0
7200,-1.15566,0.447398,2.08165,0
7220,-1.1566,0.447559,2.08106,0
7240,-1.15751,0.44766,2.08031,0
7260,-1.15823,0.447913,2.07972,0
7280,-1.15899,0.448454,2.07896,0
7300,-1.16016,0.448617,2.07824,0
7320,-1.16096,0.448855,2.0773,0
7340,-1.16229,0.448962,2.0763,0
7360,-1.16379,0.449353,2.0749,0
7380,-1.16555,0.44995,2.07345,0
7400,-1.16728,0.450486,2.07184,0
7420,-1.16923,0.451364,2.06999,0
7440,-1.17109,0.452145,2.06827,0
7460,-1.17302,0.453178,2.06667,0
7480,-1.17528,0.454618,2.0651,0
7500,-1.17796,0.456065,2.06351,0
7520,-1.18073,0.457969,2.06212,0
7540,-1.18331,0.459165,2.06063,0
7560,-1.18639,0.460677,2.05918,0
7580,-1.1892,0.462322,2.05766,0
7600,-1.19197,0.463626,2.05626,0
7620,-1.19469,0.464968,2.05479,0
7640,-1.1973,0.466557,2.05334,0
7660,-1.1997,0.467948,2.05205,0
7680,-1.20211,0.469483,2.05067,0
7700,-1.20393,0.470863,2.04952,0
7720,-1.20527,0.472243,2.04862,0
7740,-1.20625,0.473613,2.04773,0
7760,-1.2074,0.474601,2.04703,0
7780,-1.20828,0.475641,2.0465,0
7800,-1.2095,0.47674,2.046,0
7820,-1.21096,0.477839,2.04537,0
7840,-1.21219,0.478648,2.04504,0
7860,-1.21367,0.47952,2.04475,0
7880,-1.21502,0.480516,2.04415,0
7900,-1.21638,0.481719,2.04362,0
7920,-1.21799,0.482776,2.04306,0
7940,-1.21938,0.483958,2.04219,0
7960,-1.22064,0.485296,2.04146,0
7980,-1.22167,0.48652,2.04065,0
8000,-1.2226,0.487683,2.03969,0
8020,-1.22379,0.488844,2.03859,0
8040,-1.22474,0.489891,2.03741,0
8060,-1.22526,0.490527,2.03621,0
8080,-1.22558,0.490916,2.03514,0
8100,-1.22548,0.491226,2.03456,0
8120,-1.2261,0.491552,2.03394,0
8140,-1.22694,0.491753,2.03363,0
8160,-1.228,0.491858,2.03333,0
8180,-1.22879,0.492132,2.03341,0
8200,-1.22921,0.492774,2.03385,0
8220,-1.22899,0.493397,2.03431,0
8240,-1.2294,0.493975,2.03458,0
8260,-1.23006,0.494697,2.03464,0
8280,-1.23047,0.495449,2.03453,0
8300,-1.23104,0.495965,2.03452,0
8320,-1.23151,0.496615,2.03431,0
8340,-1.23149,0.496666,2.03436,0
8360,-1.23149,0.496666,2.03436,0
8380,-1.23175,0.496838,2.03384,0
8400,-1.23213,0.496904,2.03323,0
8420,-1.23313,0.497157,2.03285,0
8440,-1.23382,0.497451,2.03252,0
8460,-1.23429,0.497615,2.03252,0
8480,-1.2346,0.497843,2.03281,0
8500,-1.23514,0.497976,2.03311,0
8520,-1.23612,0.498783,2.03354,0
8540,-1.23673,0.499438,2.03408,0
8560,-1.23699,0.499742,2.03476,0
8580,-1.23699,0.499742,2.03476,0
8600,-1.23688,0.499848,2.03487,0
8620,-1.23645,0.500255,2.03515,0
8640,-1.23658,0.500214,2.03522,0
8660,-1.23622,0.500205,2.03523,0
8670,-1.23542,0.499783,2.03524,0
8700,-1.23434,0.499872,2.0355,0
8710,-1.2328,0.500005,2.03585,0
8730,-1.23087,0.499892,2.03643,0
8750,-1.22942,0.499601,2.03714,0
8770,-1.2281,0.499205,2.03775,0
8790,-1.22639,0.498966,2.03864,0
8810,-1.22527,0.498931,2.03934,0
8830,-1.2239,0.498607,2.04035,0
8850,-1.22263,0.498262,2.04176,0
8870,-1.22125,0.498022,2.04328,0
8890,-1.21963,0.49781,2.04463,0
8910,-1.21718,0.497277,2.04607,0
8930,-1.21426,0.496837,2.04765,0
8950,-1.21064,0.496519,2.04918,0
8970,-1.20692,0.496368,2.05099,0
8990,-1.20368,0.495569,2.05271,0
9010,-1.20326,0.495099,2.05526,0
9030,-1.20329,0.49441,2.05812,0
9050,-1.20185,0.493775,2.06094,0
9070,-1.19787,0.49283,2.06348,0
9090,-1.19226,0.49178,2.06619,0
9110,-1.18939,0.490226,2.06896,0
9130,-1.18814,0.488725,2.07173,0
9150,-1.18612,0.487053,2.07464,0
9170,-1.18369,0.485501,2.07638,0
9190,-1.18108,0.484784,2.07804,0
9210,-1.17832,0.483928,2.07904,0
9230,-1.17576,0.484725,2.08004,0
9250,-1.1724,0.486488,2.08106,0
9270,-1.16924,0.489574,2.08146,0
9290,-1.16763,0.494264,2.0816,0
9310,-1.16871,0.499865,2.08178,0
9330,-1.1722,0.505473,2.08216,0
9350,-1.1769,0.510625,2.08229,0
9370,-1.18198,0.515235,2.08306,0
9390,-1.18489,0.519369,2.08573,0
9410,-1.18868,0.522344,2.09006,0
9430,-1.19233,0.523288,2.09546,0
9450,-1.19658,0.523488,2.10164,0
9470,-1.20004,0.523291,2.10719,0
9490,-1.19896,0.523124,2.11175,0
9510,-1.19729,0.523488,2.11578,0
9530,-1.19552,0.524249,2.1191,0
9550,-1.19325,0.52551,2.12063,0
9570,-1.19088,0.527462,2.12127,0
9590,-1.18933,0.530148,2.12074,0
9610,-1.18924,0.534055,2.11966,0
9630,-1.18806,0.538633,2.11826,0
9650,-1.18582,0.543356,2.11602,0
9670,-1.18041,0.547789,2.11362,0
9690,-1.1713,0.551748,2.11245,0
9710,-1.16099,0.554621,2.11258,0
9730,-1.15269,0.556182,2.11328,0
9750,-1.14737,0.556176,2.11376,0
9770,-1.14218,0.554814,2.11432,0
9790,-1.13681,0.550625,2.11519,0
9810,-1.12869,0.542734,2.11652,0
9830,-1.12241,0.532672,2.11758,0
9850,-1.11903,0.521662,2.11833,0
9870,-1.1187,0.510191,2.11806,0
9890,-1.12135,0.499732,2.1172,0
9910,-1.12648,0.490516,2.11474,0
9930,-1.1331,0.483553,2.11153,0
9950,-1.13847,0.47783,2.10856,0
9970,-1.14328,0.472453,2.10482,0
9990,-1.14661,0.468579,2.10199,0
10010,-1.14552,0.465565,2.10106,0
10030,-1.14124,0.463075,2.10186,0
10050,-1.13481,0.460695,2.10444,0
10070,-1.1269,0.458367,2.10817,0
10090,-1.11805,0.456444,2.11253,0
10110,-1.10915,0.454699,2.11687,0
10130,-1.10011,0.453117,2.121,0
10150,-1.0919,0.451843,2.12434,0
10170,-1.08502,0.451253,2.12666,0
10190,-1.07921,0.451198,2.12849,0
10210,-1.07357,0.451643,2.13004,0
10230,-1.06832,0.452551,2.1318,0
10250,-1.064,0.453246,2.13325,0
10270,-1.05984,0.453499,2.13468,0
10290,-1.05595,0.453715,2.13592,0
10310,-1.0518,0.453674,2.13716,0
10330,-1.0473,0.453358,2.13819,0
10350,-1.04292,0.452607,2.13919,0
10370,-1.03914,0.451837,2.13997,0
10390,-1.03584,0.450791,2.14062,0
10410,-1.03307,0.449424,2.14108,0
10430,-1.03076,0.447932,2.14133,0
10450,-1.02907,0.446279,2.14107,0
10470,-1.02807,0.444815,2.14078,0
10490,-1.02721,0.44345,2.14002,0
10510,-1.02647,0.442143,2.13953,0
10530,-1.02594,0.440998,2.13883,0
10550,-1.02575,0.440461,2.13827,0
10570,-1.02489,0.440431,2.13813,0
10590,-1.02338,0.440375,2.13805,0
10610,-1.0217,0.440557,2.13792,0
10630,-1.01992,0.44143,2.13808,0
10650,-1.01807,0.442338,2.13819,0
10670,-1.01617,0.442997,2.1385,0
10690,-1.01406,0.443309,2.13903,0
10710,-1.01125,0.443381,2.13944,0
10730,-1.00815,0.443399,2.13983,0
10750,-1.00516,0.443622,2.14042,0
10770,-1.00205,0.443532,2.14095,0
10790,-0.999458,0.443326,2.14137,0
10810,-0.997567,0.443503,2.1414,0
10830,-0.995762,0.443832,2.14147,0
10850,-0.993988,0.444603,2.14178,0
10870,-0.991752,0.445296,2.14222,0
10890,-0.990134,0.445777,2.14244,0
10910,-0.988802,0.445925,2.14258,0
10930,-0.98756,0.446128,2.14255,0
10950,-0.986604,0.445998,2.14245,0
10970,-0.98576,0.445978,2.14232,0
10990,-0.985006,0.446013,2.14202,0
11010,-0.985029,0.446066,2.14218,0
11030,-0.984869,0.446151,2.14219,0
11050,-0.984981,0.445778,2.14186,0
11070,-0.985385,0.445457,2.14155,0
11090,-0.986144,0.444844,2.14134,0
11110,-0.98723,0.444796,2.14076,0
11130,-0.988447,0.445005,2.14054,0
11150,-0.9891,0.445137,2.14034,0
11170,-0.989403,0.445301,2.14023,0
11190,-0.98929,0.445192,2.14026,0
11210,-0.989575,0.445507,2.14009,0
11230,-0.990151,0.445393,2.13963,0
11250,-0.991083,0.445452,2.13917,0
11270,-0.991494,0.445519,2.13895,0
11290,-0.992386,0.445511,2.13868,0
11310,-0.993997,0.445288,2.13828,0
11330,-0.996121,0.445296,2.13735,0
11350,-0.998033,0.445196,2.13634,0
11370,-0.999862,0.445244,2.13562,0
11390,-1.00115,0.444968,2.13476,0
11410,-1.00297,0.444811,2.13394,0
11430,-1.00487,0.444955,2.13309,0
11450,-1.00657,0.444947,2.13211,0
11470,-1.00768,0.445003,2.13141,0
11490,-1.00828,0.444938,2.13112,0
11510,-1.00875,0.444917,2.13079,0
11530,-1.0092,0.444843,2.13029,0
11550,-1.00981,0.444681,2.12979,0
11570,-1.0104,0.444768,2.12943,0
11590,-1.01123,0.444616,2.12879,0
11610,-1.01218,0.444476,2.1279,0
11630,-1.01367,0.444615,2.12665,0
11650,-1.01603,0.446869,2.12513,0
11670,-1.01816,0.450442,2.12391,0
11690,-1.01984,0.454622,2.12201,0
11710,-1.02138,0.460288,2.11966,0
11730,-1.02297,0.466908,2.11787,0
11750,-1.02426,0.472906,2.11628,0
11770,-1.02561,0.477858,2.11516,0
11790,-1.02739,0.482816,2.11446,0
11810,-1.03007,0.487213,2.113,0
11830,-1.03235,0.491732,2.11255,0
11850,-1.03541,0.496276,2.11211,0
11870,-1.03998,0.500565,2.11138,0
11890,-1.04629,0.503935,2.10958,0
11910,-1.05368,0.506785,2.10647,0
11930,-1.06147,0.509354,2.10277,0
11950,-1.06852,0.511574,2.09872,0
11970,-1.07495,0.51393,2.09515,0
11990,-1.08028,0.51567,2.09227,0
12010,-1.08541,0.516621,2.09031,0
12030,-1.09065,0.516492,2.08848,0
12050,-1.09643,0.516344,2.0868,0
12070,-1.10176,0.516564,2.08501,0
12090,-1.106,0.51636,2.08363,0
12110,-1.1094,0.515087,2.08276,0
12130,-1.11259,0.513311,2.08221,0
12140,-1.11683,0.511414,2.08164,0
12160,-1.12206,0.508741,2.08084,0
12180,-1.12853,0.504851,2.0796,0
12200,-1.13494,0.500138,2.07783,0
12220,-1.14114,0.495638,2.07635,0
12240,-1.1471,0.491637,2.07522,0
12260,-1.15341,0.487762,2.07433,0
12280,-1.15943,0.483991,2.07374,0
12300,-1.16536,0.480257,2.07279,0
12320,-1.17002,0.476737,2.07186,0
12340,-1.17349,0.473888,2.07116,0
12360,-1.17562,0.471382,2.07026,0
12380,-1.17661,0.4688,2.06961,0
12400,-1.17748,0.46621,2.06887,0
12420,-1.1784,0.463377,2.06811,0
12440,-1.17934,0.460324,2.06694,0
12460,-1.18057,0.45738,2.06563,0
12480,-1.18239,0.455018,2.06374,0
12500,-1.18398,0.452967,2.06228,0
12520,-1.1856,0.451256,2.0607,0
12540,-1.18773,0.450597,2.05907,0
12560,-1.19015,0.45037,2.05707,0
12580,-1.19207,0.450938,2.0554,0
12600,-1.19326,0.451942,2.05406,0
12620,-1.19421,0.453948,2.05301,0
12640,-1.19378,0.456913,2.05205,0
12660,-1.1926,0.460511,2.05118,0
12680,-1.19067,0.464419,2.05087,0
12700,-1.18838,0.468374,2.05065,0
12720,-1.18636,0.471849,2.05052,0
12740,-1.18432,0.47444,2.05057,0
12760,-1.18233,0.476032,2.05057,0
12780,-1.18065,0.477037,2.05055,0
12800,-1.17924,0.477703,2.05052,0
12820,-1.17813,0.478475,2.05057,0
12840,-1.17702,0.479394,2.05054,0
12860,-1.17597,0.479665,2.05044,0
12880,-1.1754,0.479937,2.05009,0
12900,-1.17519,0.480216,2.04971,0
12920,-1.17475,0.4803,2.0495,0
12940,-1.17382,0.48032,2.04938,0
12960,-1.17266,0.480256,2.04963,0
12980,-1.17165,0.479953,2.04998,0
13000,-1.17034,0.479796,2.05061,0
13020,-1.16939,0.479708,2.05138,0
13040,-1.16915,0.479413,2.05167,0
13060,-1.16978,0.47838,2.05174,0
13080,-1.17037,0.476864,2.05202,0
13100,-1.17087,0.474938,2.05214,0
13120,-1.17054,0.47271,2.05271,0
13140,-1.16845,0.469486,2.05413,0
13160,-1.16471,0.465247,2.05605,0
13180,-1.16086,0.461306,2.05803,0
13200,-1.15856,0.458169,2.05932,0
13220,-1.158,0.455794,2.05976,0
13240,-1.15816,0.454493,2.05929,0
13260,-1.15885,0.455121,2.05829,0
13280,-1.15966,0.456678,2.05695,0
13300,-1.16028,0.458243,2.05585,0
13320,-1.161,0.458822,2.0548,0
13340,-1.16125,0.459398,2.054,0
13360,-1.16053,0.45947,2.0538,0
13380,-1.15953,0.459216,2.05419,0
13400,-1.15942,0.459172,2.05437,0
13420,-1.15969,0.458761,2.05386,0
13440,-1.16012,0.458404,2.05327,0
13460,-1.16085,0.458689,2.05238,0
13480,-1.16129,0.459217,2.05164,0
13500,-1.16162,0.459957,2.05121,0
13520,-1.16162,0.459957,2.05121,0
13540,-1.16149,0.459853,2.05123,0
13560,-1.16122,0.459445,2.05098,0
13580,-1.16109,0.459488,2.05092,0
13600,-1.16109,0.459488,2.05092,0
13620,-1.16111,0.459548,2.05108,0
13640,-1.16111,0.459548,2.05108,0
13660,-1.16136,0.45944,2.05074,0
13680,-1.16217,0.459595,2.05039,0
13700,-1.16289,0.459743,2.04992,0
13720,-1.16336,0.459966,2.049,0
13740,-1.16335,0.460444,2.04846,0
13760,-1.16276,0.461024,2.04828,0
13780,-1.16203,0.461647,2.04805,0
13800,-1.162,0.461696,2.0481,0
13820,-1.16202,0.461756,2.04826,0
13840,-1.16202,0.461756,2.04826,0
13860,-1.16189,0.461799,2.0482,0
13880,-1.16189,0.461799,2.0482,0
13900,-1.16189,0.461799,2.0482,0
13920,-1.16192,0.461603,2.04824,0
13940,-1.16134,0.461488,2.04817,0
13960,-1.16067,0.461536,2.04838,0
13980,-1.15995,0.461719,2.04839,0
14000,-1.15899,0.462049,2.04845,0
14020,-1.15806,0.462184,2.04854,0
14040,-1.15739,0.462379,2.04867,0
14060,-1.15739,0.462379,2.04867,0
14080,-1.15737,0.462427,2.04872,0
14100,-1.15691,0.462563,2.04855,0
14120,-1.15636,0.462547,2.04836,0
14130,-1.15616,0.462635,2.04802,0
14150,-1.15581,0.462924,2.04788,0
14170,-1.15536,0.46306,2.04772,0
14190,-1.15491,0.463197,2.04756,0
14210,-1.15434,0.463437,2.0475,0
14230,-1.15363,0.463808,2.04714,0
14250,-1.1528,0.464096,2.04726,0
14270,-1.15213,0.46444,2.04731,0
14290,-1.15128,0.464669,2.04727,0
14310,-1.15035,0.464805,2.04737,0
14330,-1.14964,0.465138,2.04731,0
14350,-1.14897,0.465335,2.04744,0
14370,-1.14804,0.46562,2.04746,0
14390,-1.14695,0.465996,2.04747,0
14410,-1.14581,0.466193,2.04786,0
14430,-1.14465,0.466221,2.04788,0
14450,-1.14341,0.466158,2.04804,0
14470,-1.14272,0.466296,2.04801,0
14490,-1.14272,0.466296,2.04801,0
14510,-1.14217,0.466136,2.04791,0
14530,-1.14172,0.466275,2.04775,0
14550,-1.14122,0.466657,2.04761,0
14570,-1.14051,0.467456,2.04777,0
14590,-1.13966,0.46809,2.04779,0
14610,-1.13882,0.46832,2.04776,0
14630,-1.13884,0.46838,2.04793,0
14650,-1.13871,0.468276,2.04795,0
14670,-1.13871,0.468276,2.04795,0
14690,-1.13858,0.468319,2.04789,0
14710,-1.1386,0.468272,2.04784,0
14730,-1.1386,0.468272,2.04784,0
14750,-1.13848,0.468167,2.04786,0
14770,-1.1385,0.468227,2.04803,0
14790,-1.1385,0.468227,2.04803,0
14810,-1.1385,0.468227,2.04803,0
14830,-1.13864,0.46782,2.04774,0
14850,-1.13907,0.467427,2.04743,0
14870,-1.13936,0.467077,2.04707,0
14890,-1.13974,0.466441,2.04731,0
14910,-1.13953,0.465872,2.04888,0
14930,-1.13768,0.466213,2.05269,0
14950,-1.12916,0.466915,2.05749,0
14970,-1.11673,0.468369,2.06326,0
14990,-1.1119,0.471101,2.07185,0
15010,-1.11296,0.471193,2.078,0
15030,-1.12068,0.464476,2.08082,0
15050,-1.13532,0.449388,2.08091,0
15070,-1.15686,0.427502,2.07795,0
15090,-1.17989,0.3987,2.08025,0
15110,-1.19598,0.357893,2.08886,0
15130,-1.20304,0.310095,2.10185,0
15150,-1.20274,0.255429,2.1152,0
15170,-1.20347,0.194194,2.12724,0
15190,-1.20865,0.127442,2.14021,0
15210,-1.22135,0.0565319,2.15382,0
15230,-1.23866,-0.0156444,2.16959,0
15250,-1.25723,-0.0874321,2.18839,0
15270,-1.27348,-0.156901,2.20896,0
15290,-1.28793,-0.222662,2.23099,0
15310,-1.30283,-0.283612,2.25301,0
15330,-1.31958,-0.340341,2.27377,0
15350,-1.33715,-0.391374,2.29418,0
15370,-1.3531,-0.43685,2.31362,0
15390,-1.36569,-0.477016,2.33127,0
15410,-1.37762,-0.510331,2.34456,0
15430,-1.38646,-0.539306,2.35601,0
15450,-1.39436,-0.562197,2.36634,0
15470,-1.39897,-0.576415,2.37429,0
15490,-1.40043,-0.583332,2.3782,0
15510,-1.3967,-0.584997,2.38016,0
15530,-1.39239,-0.58327,2.38028,0
15550,-1.391,-0.579089,2.37757,0
15570,-1.38952,-0.573805,2.37369,0
15590,-1.38798,-0.569763,2.3707,0
15610,-1.38823,-0.565776,2.36854,0
15630,-1.38762,-0.562571,2.36528,0
15650,-1.38571,-0.561122,2.3621,0
15670,-1.38516,-0.561136,2.36112,0
15690,-1.38598,-0.562356,2.36031,0
15710,-1.38681,-0.563614,2.35881,0
15730,-1.38696,-0.564319,2.35711,0
15750,-1.38748,-0.564062,2.35591,0
15770,-1.38745,-0.5638,2.35416,0
15790,-1.38693,-0.563067,2.35198,0
15810,-1.38655,-0.561776,2.3499,0
15830,-1.38515,-0.559825,2.34685,0
15850,-1.3825,-0.5574,2.34305,0
15870,-1.37915,-0.554862,2.33918,0
15890,-1.37568,-0.551968,2.33542,0
15910,-1.37172,-0.548893,2.33085,0
15930,-1.36667,-0.54506,2.32549,0
15950,-1.36064,-0.540878,2.31973,0
15970,-1.35534,-0.536176,2.31425,0
15990,-1.35089,-0.529514,2.30764,0
16010,-1.34608,-0.520575,2.29979,0
16030,-1.33899,-0.508111,2.29097,0
16050,-1.33264,-0.49375,2.28153,0
16070,-1.32824,-0.479156,2.27211,0
16090,-1.32576,-0.463358,2.26354,0
16110,-1.32196,-0.448274,2.25309,0
16130,-1.31835,-0.436427,2.24264,0
16150,-1.31668,-0.426054,2.23521,0
16170,-1.31461,-0.416629,2.23007,0
16190,-1.31039,-0.407788,2.22581,0
16210,-1.30517,-0.399777,2.22283,0
16230,-1.30063,-0.393204,2.21966,0
16250,-1.29807,-0.388235,2.21621,0
16270,-1.29661,-0.381966,2.21277,0
16290,-1.29453,-0.37499,2.20932,0
16310,-1.29124,-0.368126,2.20646,0
16330,-1.28879,-0.361715,2.20423,0
16350,-1.28815,-0.356098,2.20281,0
16370,-1.2875,-0.351822,2.201,0
16390,-1.28694,-0.348992,2.20024,0
16410,-1.28681,-0.347476,2.201,0
16430,-1.28667,-0.346578,2.20246,0
16450,-1.28617,-0.345983,2.20324,0
16470,-1.28657,-0.346099,2.20381,0
16490,-1.28811,-0.347067,2.20441,0
16510,-1.28944,-0.348063,2.20495,0
16530,-1.29013,-0.348817,2.20559,0
16550,-1.28976,-0.348358,2.20542,0
16570,-1.28916,-0.346996,2.20489,0
16590,-1.28892,-0.345483,2.20429,0
16610,-1.28999,-0.344659,2.20508,0
16630,-1.29077,-0.343632,2.20625,0
16650,-1.29018,-0.342628,2.20723,0
16670,-1.28989,-0.34193,2.20812,0
16690,-1.29065,-0.34194,2.20888,0
16710,-1.29279,-0.342116,2.20988,0
16730,-1.29356,-0.342846,2.21098,0
16750,-1.2933,-0.343307,2.21201,0
16770,-1.29256,-0.344186,2.21306,0
16790,-1.2921,-0.345238,2.21402,0
16810,-1.29227,-0.345296,2.21413,0
16830,-1.29234,-0.344458,2.2144,0
16850,-1.29253,-0.343727,2.21402,0
16870,-1.29345,-0.343217,2.21333,0
16890,-1.29419,-0.342468,2.21294,0
16910,-1.294,-0.341488,2.21298,0
16930,-1.29341,-0.341012,2.21315,0
16950,-1.29295,-0.341363,2.21301,0
16970,-1.29364,-0.341593,2.21281,0
16990,-1.294,-0.340672,2.21279,0
17010,-1.29369,-0.339798,2.21243,0
17030,-1.29139,-0.338415,2.21264,0
17050,-1.29166,-0.336921,2.21414,0
17070,-1.29186,-0.337079,2.21556,1000
17090,-1.2903,-0.33817,2.21655,0
17110,-1.28933,-0.338559,2.21668,0
17130,-1.28944,-0.338057,2.21644,0
17150,-1.28921,-0.337031,2.21589,0
17170,-1.28857,-0.33705,2.2162,0
17190,-1.28825,-0.338058,2.21596,0
17210,-1.28721,-0.339151,2.21517,0
17230,-1.2866,-0.340244,2.21522,0
17250,-1.28546,-0.340976,2.21488,0
17270,-1.28339,-0.341033,2.21409,0
17290,-1.28197,-0.341034,2.21385,0
17310,-1.28251,-0.341225,2.21443,0
17330,-1.28313,-0.341263,2.21483,0
17350,-1.28313,-0.341263,2.21483,0
17370,-1.28246,-0.340866,2.21524,0
17390,-1.28152,-0.341068,2.21568,0
17410,-1.28112,-0.341299,2.21636,0
17430,-1.28152,-0.340835,2.21705,0
17450,-1.28213,-0.340027,2.21756,0
17470,-1.2821,-0.339363,2.21792,0
17490,-1.28194,-0.339184,2.21827,0
17510,-1.2818,-0.33915,2.21907,0
17530,-1.28126,-0.338924,2.21934,0
17550,-1.28141,-0.339,2.21935,0
17560,-1.28206,-0.338848,2.22005,0
17580,-1.28245,-0.338478,2.22058,0
17600,-1.28218,-0.338471,2.22102,0
17620,-1.28181,-0.338636,2.22155,0
17640,-1.28206,-0.338675,2.22212,0
17660,-1.28218,-0.338087,2.22249,0
17680,-1.28239,-0.337982,2.22261,0
17700,-1.28126,-0.337866,2.22295,0
17720,-1.28005,-0.338859,2.22432,0
17740,-1.27894,-0.340178,2.22611,0
17760,-1.27814,-0.341701,2.22816,0
17780,-1.27772,-0.343707,2.23008,0
17800,-1.27779,-0.346008,2.23254,0
17820,-1.27971,-0.348725,2.23609,0
17840,-1.28171,-0.350562,2.241,0
17860,-1.2833,-0.352583,2.24599,0
17880,-1.2847,-0.354478,2.25038,0
17900,-1.28708,-0.356549,2.255,0
17920,-1.28988,-0.358562,2.25987,0
17940,-1.29247,-0.360693,2.26454,0
17960,-1.29328,-0.363242,2.26823,0
17980,-1.29492,-0.366897,2.27158,0
18000,-1.295,-0.370791,2.27479,0
18020,-1.2944,-0.375369,2.27899,0
18040,-1.29272,-0.381001,2.283,0
18060,-1.29168,-0.387356,2.28662,0
18080,-1.29183,-0.3939,2.28959,0
18100,-1.29156,-0.400422,2.29213,0
18120,-1.29042,-0.406126,2.29476,0
18140,-1.28854,-0.410988,2.29715,0
18160,-1.28522,-0.415673,2.2988,0
18180,-1.28234,-0.421348,2.30053,0
18200,-1.2807,-0.42711,2.30205,0
18220,-1.27988,-0.431943,2.30286,0
18240,-1.27837,-0.436285,2.30266,0
18260,-1.27553,-0.441368,2.30147,0
18280,-1.27306,-0.446866,2.30005,0
18300,-1.27073,-0.451662,2.29811,0
18320,-1.26802,-0.456677,2.2956,0
18340,-1.26508,-0.462409,2.29298,0
18360,-1.26131,-0.468753,2.28933,0
18380,-1.25824,-0.475377,2.28501,0
18400,-1.25459,-0.481723,2.27955,0
18420,-1.25088,-0.487817,2.27331,0
18440,-1.24692,-0.493584,2.26648,0
18460,-1.24233,-0.500191,2.25902,0
18480,-1.2378,-0.507139,2.25109,0
18500,-1.23415,-0.514349,2.24299,0
18520,-1.23079,-0.521201,2.23402,0
18540,-1.22755,-0.527798,2.22374,0
18560,-1.22305,-0.53493,2.21261,0
18580,-1.21938,-0.541567,2.20194,0
18600,-1.21608,-0.547149,2.19037,0
18620,-1.21262,-0.552221,2.17834,0
18640,-1.20933,-0.557218,2.16604,0
18660,-1.20718,-0.562179,2.15415,0
18680,-1.20543,-0.56725,2.14188,0
18700,-1.20385,-0.571842,2.12904,0
18720,-1.20255,-0.576214,2.11606,0
18740,-1.20152,-0.581173,2.10268,0
18760,-1.1996,-0.586493,2.0884,0
18780,-1.19676,-0.592924,2.07429,0
18800,-1.19435,-0.5995,2.06027,0
18820,-1.19214,-0.606319,2.04588,0
18840,-1.19006,-0.612796,2.03085,0
18860,-1.1875,-0.619864,2.01571,0
18880,-1.18437,-0.627184,2.00006,0
18900,-1.18177,-0.634232,1.98444,0
18920,-1.17898,-0.641407,1.96785,0
18940,-1.17518,-0.648006,1.95049,0
18960,-1.17038,-0.654452,1.93246,0
18980,-1.16552,-0.661187,1.91481,0
19000,-1.15972,-0.667626,1.89675,0
19020,-1.15306,-0.673523,1.87792,0
19040,-1.14606,-0.67862,1.85947,0
19060,-1.13909,-0.683019,1.84163,0
19080,-1.13205,-0.68599,1.824,0
19100,-1.12445,-0.686612,1.80576,0
19120,-1.11767,-0.685396,1.78824,0
19140,-1.10972,-0.683034,1.76996,0
19160,-1.10076,-0.679371,1.7514,0
19180,-1.09139,-0.675394,1.73449,0
19200,-1.08249,-0.671784,1.7195,0
19220,-1.07396,-0.66847,1.70544,0
19240,-1.06673,-0.66519,1.69288,0
19260,-1.06112,-0.660975,1.68077,0
19280,-1.05691,-0.656081,1.66895,0
19300,-1.05255,-0.650784,1.65784,0
19320,-1.04707,-0.645054,1.64739,0
19340,-1.04167,-0.639806,1.63835,0
19360,-1.03631,-0.635301,1.62995,0
19380,-1.03175,-0.631655,1.6213,0
19400,-1.02956,-0.627684,1.61294,0
19420,-1.02806,-0.622153,1.6046,0
19430,-1.02512,-0.616856,1.5975,0
19460,-1.02097,-0.613323,1.59156,0
19480,-1.01694,-0.610674,1.58601,0
19500,-1.01524,-0.608567,1.58088,0
19520,-1.01428,-0.606316,1.57549,0
19540,-1.0132,-0.6039,1.57042,0
19550,-1.01237,-0.601178,1.56624,0
19570,-1.0115,-0.597413,1.56279,0
19590,-1.01167,-0.591856,1.55922,0
19610,-1.01219,-0.585026,1.55568,0
19630,-1.01251,-0.578143,1.55276,0
19650,-1.01186,-0.570965,1.54972,0
19670,-1.0106,-0.563887,1.54688,0
19690,-1.00956,-0.556922,1.54352,0
19710,-1.00869,-0.549661,1.53965,0
19730,-1.00819,-0.542258,1.53627,0
19750,-1.00669,-0.53525,1.53267,0
19770,-1.00492,-0.528509,1.52925,0
19790,-1.00362,-0.521869,1.5263,0
19810,-1.00255,-0.514267,1.52372,0
19830,-1.00083,-0.506563,1.52134,0
19850,-0.999726,-0.498249,1.51947,0
19870,-0.99931,-0.489629,1.51709,0
19890,-0.999343,-0.480753,1.51478,0
19910,-0.998709,-0.471099,1.5133,0
19930,-0.997154,-0.460968,1.51181,0
19950,-0.996629,-0.451067,1.51102,0
19970,-0.997026,-0.441107,1.51011,0
19990,-0.998114,-0.430161,1.50943,0
20010,-0.998507,-0.418506,1.50934,0
20030,-0.998214,-0.406972,1.50974,0
20050,-0.997338,-0.396341,1.51071,0
20070,-0.996323,-0.386442,1.51165,0
20090,-0.995489,-0.377203,1.51311,0
20110,-0.994926,-0.368427,1.51479,0
20130,-0.995154,-0.358829,1.51613,0
20150,-0.997687,-0.34851,1.51829,0
20170,-1.00038,-0.338253,1.52083,0
20190,-1.00243,-0.328391,1.52487,0
20210,-1.00352,-0.319095,1.52962,0
20230,-1.00496,-0.310811,1.53435,0
20250,-1.00741,-0.301639,1.53829,0
20270,-1.0112,-0.291883,1.54226,0
20290,-1.01518,-0.282614,1.54734,0
20310,-1.01739,-0.275266,1.55264,0
20330,-1.01787,-0.268726,1.5574,0
20350,-1.01909,-0.262841,1.56212,0
20370,-1.02122,-0.258247,1.56648,0
20390,-1.02288,-0.254888,1.57113,0
20410,-1.02201,-0.252881,1.57637,0
20430,-1.01998,-0.252068,1.58203,0
20450,-1.01816,-0.252,1.58715,0
20470,-1.01817,-0.251337,1.59221,0
20490,-1.02062,-0.250418,1.59772,0
20510,-1.02395,-0.249738,1.6036,0
20530,-1.02723,-0.248835,1.60938,0
20550,-1.02948,-0.247812,1.61552,0
20570,-1.03123,-0.246054,1.62145,0
20590,-1.03265,-0.24417,1.62734,0
20610,-1.03422,-0.241927,1.63312,0
20630,-1.03572,-0.239349,1.63913,0
20650,-1.03677,-0.237479,1.64525,0
20670,-1.03759,-0.235766,1.65168,0
20690,-1.03926,-0.233774,1.65802,0
20710,-1.04153,-0.231611,1.66442,0
20730,-1.0439,-0.229907,1.67046,0
20750,-1.04601,-0.228204,1.67671,0
20770,-1.04767,-0.226924,1.683,0
20790,-1.04952,-0.22576,1.68911,0
20810,-1.05143,-0.224447,1.69496,0
20830,-1.05347,-0.22304,1.70053,0
20850,-1.05521,-0.221572,1.70605,0
20870,-1.05666,-0.220144,1.71162,0
20890,-1.05733,-0.219351,1.71741,0
20920,-1.05817,-0.216782,1.72916,0
20940,-1.06077,-0.215571,1.73538,0
20960,-1.06494,-0.214576,1.7417,0
20980,-1.06858,-0.21343,1.74803,0
21000,-1.07175,-0.21256,1.75429,0
21020,-1.07552,-0.212096,1.76053,0
21040,-1.07892,-0.211365,1.76661,0
21060,-1.08242,-0.21025,1.77304,0
21080,-1.0849,-0.20951,1.7795,0
21100,-1.0865,-0.208774,1.78558,0
21120,-1.08783,-0.207764,1.79147,0
21140,-1.0899,-0.206368,1.79727,0
21160,-1.09166,-0.205161,1.80343,0
21180,-1.09295,-0.204864,1.80944,0
21200,-1.09376,-0.204328,1.81576,0
21220,-1.09469,-0.203746,1.82224,0
21240,-1.09593,-0.203682,1.8292,0
21260,-1.0971,-0.202969,1.83586,0
21280,-1.09927,-0.202168,1.84307,0
21300,-1.10287,-0.201158,1.85094,0
21320,-1.10637,-0.200175,1.85869,0
21340,-1.10949,-0.198828,1.86586,0
21360,-1.11289,-0.197541,1.87328,0
21380,-1.11612,-0.196537,1.88105,0
21400,-1.11962,-0.196265,1.88873,0
21420,-1.12305,-0.196154,1.89582,0
21440,-1.12579,-0.19653,1.90289,0
21460,-1.12866,-0.197713,1.91008,0
21480,-1.13167,-0.199265,1.91739,0
21500,-1.13448,-0.201199,1.92461,0
21520,-1.13715,-0.203372,1.93174,0
21540,-1.13987,-0.205836,1.93854,0
21560,-1.1428,-0.2089,1.94551,0
21580,-1.14618,-0.212199,1.95258,0
21600,-1.14915,-0.215377,1.95964,0
21620,-1.15141,-0.218402,1.9663,0
21640,-1.15325,-0.221699,1.97289,0
21660,-1.15538,-0.225251,1.97893,0
21680,-1.15724,-0.229666,1.98447,0
21700,-1.15898,-0.233801,1.98968,0
21720,-1.16042,-0.237017,1.99458,0
21740,-1.16185,-0.240197,1.99982,0
21760,-1.16284,-0.24338,2.00523,0
21780,-1.16366,-0.246318,2.01016,0
21800,-1.1651,-0.248885,2.01501,0
21820,-1.16769,-0.250696,2.01986,0
21840,-1.17098,-0.252155,2.02564,0
21860,-1.17351,-0.253816,2.03178,0
21880,-1.17531,-0.256031,2.03759,0
21900,-1.17834,-0.25842,2.04336,0
21920,-1.1819,-0.260593,2.04892,0
21940,-1.1844,-0.264075,2.05471,0
21960,-1.18635,-0.268403,2.06006,0
21980,-1.18803,-0.272255,2.06492,0
22000,-1.18992,-0.27626,2.07018,0
22020,-1.19246,-0.281319,2.07522,0
22040,-1.19431,-0.285742,2.07965,0
22060,-1.19501,-0.289459,2.08417,0
22080,-1.19617,-0.293338,2.08885,0
22100,-1.19865,-0.296801,2.09367,0
22120,-1.20197,-0.300159,2.09852,0
22140,-1.20561,-0.303218,2.10325,0
22160,-1.20899,-0.30607,2.10834,0
22180,-1.21243,-0.309165,2.11353,0
22200,-1.21572,-0.312514,2.11823,0
22220,-1.21799,-0.315733,2.12283,0
22240,-1.21904,-0.319636,2.12739,0
22260,-1.22029,-0.323988,2.13227,0
22280,-1.22098,-0.328323,2.1364,0
22300,-1.22085,-0.332033,2.14065,0
22320,-1.22085,-0.337194,2.14568,0
22340,-1.22141,-0.343016,2.15107,0
22360,-1.22267,-0.348714,2.15665,0
22380,-1.22455,-0.354266,2.16215,0
22400,-1.22622,-0.359999,2.16708,0
22420,-1.22796,-0.365757,2.17175,0
22440,-1.22878,-0.370923,2.17596,0
22460,-1.22958,-0.376083,2.18061,0
22480,-1.23032,-0.381155,2.18539,0
22500,-1.23082,-0.385782,2.18943,0
22520,-1.2322,-0.390963,2.1936,0
22540,-1.23498,-0.39656,2.19779,0
22560,-1.23741,-0.401951,2.2015,0
22580,-1.2388,-0.407012,2.20454,0
22600,-1.23945,-0.411465,2.20694,0
22620,-1.23984,-0.415582,2.20985,0
22640,-1.24188,-0.420508,2.2144,0
22660,-1.24428,-0.426,2.21934,0
22680,-1.24605,-0.431734,2.22322,0
22700,-1.24923,-0.43749,2.22647,0
22720,-1.25368,-0.443013,2.22859,0
22740,-1.25828,-0.44827,2.23081,0
22760,-1.26166,-0.453096,2.23362,0
22780,-1.26347,-0.457941,2.23696,0
22800,-1.26509,-0.463584,2.23996,0
22820,-1.26662,-0.469441,2.24199,0
22840,-1.26857,-0.475123,2.24321,0
22860,-1.27226,-0.480502,2.24515,0
22880,-1.27599,-0.485818,2.24688,0
22900,-1.27803,-0.4905,2.24763,0
22920,-1.2792,-0.495004,2.24808,0
22940,-1.28013,-0.499526,2.24888,0
22950,-1.28189,-0.504084,2.24954,0
22970,-1.28277,-0.508655,2.24926,0
22990,-1.28333,-0.512844,2.24807,0
23010,-1.28498,-0.517135,2.24717,0
23030,-1.2877,-0.521281,2.24613,0
23050,-1.28997,-0.524956,2.24486,0
23070,-1.29133,-0.528091,2.24324,0
23090,-1.29263,-0.530803,2.24149,0
23110,-1.29311,-0.533672,2.23948,0
23130,-1.29361,-0.536026,2.23716,0
23150,-1.29449,-0.538461,2.23465,0
23170,-1.29493,-0.540923,2.2323,0
23190,-1.29504,-0.543849,2.22993,0
23210,-1.29596,-0.54682,2.22763,0
23230,-1.29636,-0.54958,2.22494,0
23250,-1.29697,-0.552141,2.22264,0
23270,-1.29748,-0.555061,2.22045,0
23290,-1.29789,-0.558142,2.21878,0
23310,-1.29864,-0.561298,2.21725,0
23330,-1.29949,-0.564097,2.21583,0
23350,-1.30041,-0.566813,2.21424,0
23370,-1.30053,-0.569056,2.21221,0
23390,-1.30044,-0.571629,2.2109,0
23410,-1.3008,-0.574604,2.21013,0
23430,-1.30055,-0.577815,2.20879,0
23450,-1.30092,-0.580508,2.2068,0
23470,-1.30152,-0.583008,2.205,0
23490,-1.30123,-0.585705,2.20346,0
23510,-1.30041,-0.588702,2.2018,0
23530,-1.29953,-0.592162,2.19989,0
23550,-1.2991,-0.595545,2.19759,0
23570,-1.29914,-0.598787,2.19457,0
23590,-1.29922,-0.601516,2.19113,0
23610,-1.29893,-0.604072,2.18781,0
23630,-1.29798,-0.606653,2.18441,0
23650,-1.2968,-0.609447,2.18061,0
23670,-1.29547,-0.612276,2.1763,0
23690,-1.29473,-0.614593,2.17147,0
23710,-1.29377,-0.616997,2.16679,0
23730,-1.29292,-0.618842,2.16241,0
23750,-1.29222,-0.620865,2.15813,0
23770,-1.29103,-0.623153,2.15402,0
23790,-1.28955,-0.626195,2.14961,0
23810,-1.28887,-0.629337,2.14513,0
23830,-1.28863,-0.633217,2.14066,0
23850,-1.28825,-0.636759,2.13598,0
23870,-1.28746,-0.639663,2.13136,0
23890,-1.28607,-0.642564,2.12674,0
23910,-1.28341,-0.64585,2.1217,0
23930,-1.2814,-0.649336,2.11657,0
23950,-1.28,-0.652234,2.11097,0
23970,-1.27854,-0.65488,2.10513,0
23990,-1.2772,-0.656917,2.1001,0
24010,-1.2749,-0.659201,2.09509,0
24030,-1.27298,-0.661393,2.09023,0
24050,-1.27199,-0.66431,2.08484,0
24070,-1.27094,-0.666389,2.07856,0
24090,-1.26987,-0.66799,2.07255,0
24110,-1.26845,-0.669485,2.06761,0
24130,-1.2656,-0.67141,2.06228,0
24150,-1.26345,-0.673134,2.05748,0
24170,-1.26176,-0.675589,2.05304,0
24190,-1.2609,-0.67838,2.0485,0
24210,-1.26046,-0.680577,2.04371,0
24230,-1.26055,-0.682586,2.03937,0
24250,-1.26066,-0.684498,2.03518,0
24270,-1.26064,-0.686086,2.03144,0
24290,-1.26035,-0.687309,2.02751,0
24310,-1.25941,-0.688978,2.02338,0
24330,-1.25847,-0.691243,2.01894,0
24350,-1.25836,-0.69321,2.01446,0
24370,-1.25804,-0.694727,2.00974,0
24390,-1.25733,-0.695894,2.00545,0
24410,-1.25606,-0.697272,2.00137,0
24430,-1.2541,-0.699292,1.99688,0
24450,-1.25215,-0.701238,1.99224,0
24470,-1.25115,-0.703154,1.98782,0
24490,-1.24991,-0.705591,1.9828,0
24510,-1.24865,-0.707799,1.97737,0
24530,-1.24716,-0.709427,1.97194,0
24550,-1.24594,-0.711267,1.96735,0
24570,-1.245,-0.713455,1.9625,0
24590,-1.24374,-0.715119,1.9571,0
24610,-1.24276,-0.7162,1.95139,0
24630,-1.24182,-0.717177,1.94584,0
24650,-1.24142,-0.718052,1.94093,0
24670,-1.24056,-0.718493,1.93536,0
24690,-1.23908,-0.718708,1.92952,0
24710,-1.23856,-0.718857,1.92445,0
24730,-1.23854,-0.718643,1.91912,0
24750,-1.238,-0.718508,1.91349,0
24770,-1.23773,-0.718511,1.90788,0
24790,-1.23709,-0.717847,1.90203,0
24810,-1.23654,-0.716915,1.89623,0
24830,-1.23613,-0.715938,1.89094,0
24850,-1.23518,-0.714903,1.88555,0
24870,-1.23539,-0.713668,1.88024,0
24890,-1.23556,-0.71177,1.87441,0
24910,-1.23654,-0.709719,1.86929,0
24930,-1.23729,-0.707619,1.86435,0
24950,-1.23696,-0.705311,1.85908,0
24960,-1.23671,-0.70305,1.85368,0
24980,-1.23741,-0.700633,1.84804,0
25000,-1.23768,-0.698214,1.84208,0
25020,-1.23744,-0.695952,1.83638,0
25040,-1.23682,-0.693855,1.83048,0
25060,-1.2363,-0.692023,1.82484,0
25080,-1.23595,-0.68972,1.81894,0
25100,-1.23517,-0.687731,1.81296,0
25120,-1.23418,-0.686076,1.8075,0
25140,-1.23255,-0.68442,1.80195,0
25160,-1.23167,-0.682933,1.79678,0
25180,-1.23094,-0.681131,1.79053,0
25200,-1.2306,-0.678966,1.78422,0
25220,-1.22893,-0.67633,1.77843,0
25240,-1.22657,-0.674305,1.77356,0
25260,-1.22404,-0.673302,1.76797,0
25280,-1.22289,-0.672016,1.76164,0
25300,-1.22248,-0.670611,1.75534,0
25320,-1.22188,-0.66938,1.74994,0
25340,-1.22084,-0.668244,1.74497,0
25360,-1.21892,-0.667698,1.73975,0
25380,-1.21801,-0.667209,1.73454,0
25400,-1.21837,-0.666745,1.7294,0
25420,-1.21964,-0.66574,1.72484,0
25440,-1.2199,-0.664416,1.71982,0
25460,-1.21944,-0.662883,1.71449,0
25480,-1.21822,-0.660982,1.70916,0
25500,-1.21727,-0.658781,1.70382,0
25520,-1.21636,-0.65703,1.69906,0
25540,-1.21607,-0.655894,1.69485,0
25560,-1.2156,-0.654244,1.69022,0
25580,-1.21568,-0.652759,1.68513,0
25600,-1.21666,-0.650901,1.67949,0
25620,-1.21741,-0.647962,1.67395,0
25640,-1.2181,-0.644378,1.66961,0
25660,-1.21801,-0.64084,1.66626,0
25680,-1.21731,-0.637948,1.66292,0
25700,-1.21753,-0.635621,1.65915,0
25720,-1.21881,-0.633745,1.65519,0
25740,-1.22084,-0.632059,1.65135,0
25760,-1.22347,-0.629953,1.64789,0
25780,-1.22609,-0.628228,1.64475,0
25800,-1.22799,-0.626602,1.64158,0
25820,-1.22947,-0.625264,1.63825,0
25840,-1.23078,-0.623891,1.63445,0
25860,-1.23246,-0.622433,1.63045,0
25880,-1.23415,-0.621106,1.62633,0
25900,-1.23533,-0.618401,1.62165,0
25920,-1.23657,-0.614851,1.61711,0
25940,-1.23668,-0.611138,1.61254,0
25960,-1.23584,-0.607298,1.60841,0
25980,-1.23446,-0.603941,1.6039,0
26000,-1.23345,-0.601501,1.59876,0
26020,-1.23418,-0.59919,1.59366,0
26040,-1.23539,-0.596799,1.58875,0
26060,-1.2353,-0.593929,1.58377,0
26080,-1.23422,-0.591765,1.57862,0
26100,-1.23223,-0.590102,1.57291,0
26120,-1.23153,-0.587866,1.56785,0
26140,-1.2307,-0.58588,1.56243,0
26160,-1.22889,-0.58347,1.55766,0
26180,-1.22745,-0.581849,1.55387,0
26200,-1.22675,-0.580584,1.55011,0
26220,-1.22643,-0.578913,1.54596,0
26240,-1.22753,-0.576099,1.54213,0
26260,-1.2289,-0.572933,1.5394,0
26280,-1.23,-0.569699,1.53689,0
26300,-1.2303,-0.566404,1.53429,0
26320,-1.23127,-0.563275,1.53193,0
26340,-1.23395,-0.559658,1.53002,0
26360,-1.2373,-0.555917,1.52818,0
26380,-1.23957,-0.55192,1.52659,0
26400,-1.24233,-0.548365,1.52564,0
26420,-1.24353,-0.544757,1.52422,0
26440,-1.2454,-0.541548,1.52295,0
26460,-1.24799,-0.538484,1.52177,0
26480,-1.25062,-0.534803,1.52028,0
26500,-1.25278,-0.530644,1.51895,0
26520,-1.25439,-0.526615,1.51835,0
26540,-1.25518,-0.523112,1.51771,0
26560,-1.25635,-0.519194,1.51656,0
26580,-1.25842,-0.514997,1.51562,0
26600,-1.26063,-0.509978,1.51438,0
26620,-1.26233,-0.504885,1.51333,0
26640,-1.26317,-0.499283,1.51266,0
26660,-1.26418,-0.493305,1.51199,0
26680,-1.26509,-0.48675,1.51167,0
26700,-1.26509,-0.48072,1.51182,0
26720,-1.26481,-0.475243,1.51226,0
26740,-1.26581,-0.469559,1.51256,0
26760,-1.26721,-0.46348,1.51238,0
26780,-1.26982,-0.457188,1.51333,0
26800,-1.27118,-0.450775,1.51466,0
26820,-1.27148,-0.444393,1.51618,0
26840,-1.27234,-0.438856,1.51818,0
26860,-1.27379,-0.433323,1.51987,0
26880,-1.27537,-0.427694,1.52169,0
26900,-1.27616,-0.421656,1.52368,0
26920,-1.27723,-0.416537,1.52589,0
26940,-1.27788,-0.41142,1.52769,0
26960,-1.27746,-0.40644,1.5307,0
26980,-1.2764,-0.401891,1.5341,0
27000,-1.27636,-0.398425,1.53801,0
27020,-1.27764,-0.395205,1.54239,0
27040,-1.2789,-0.391646,1.54754,0
27060,-1.28063,-0.388952,1.55391,0
27080,-1.2823,-0.386466,1.56043,0
27100,-1.2839,-0.384227,1.56697,0
27120,-1.28591,-0.381853,1.57407,0
27140,-1.28764,-0.37993,1.58157,0
27160,-1.28865,-0.378374,1.58842,0
27180,-1.28966,-0.376641,1.59542,0
27200,-1.29097,-0.374582,1.60244,0
27220,-1.29203,-0.372705,1.60973,0
27240,-1.29165,-0.371206,1.61662,0
27260,-1.29135,-0.369756,1.6238,0
27280,-1.29138,-0.368062,1.63114,0
27300,-1.29147,-0.366453,1.6381,0
27320,-1.29186,-0.365099,1.64526,0
27340,-1.29214,-0.363456,1.65257,0
27360,-1.29344,-0.36218,1.66021,0
27380,-1.29486,-0.360554,1.66814,0
27400,-1.29625,-0.359643,1.67628,0
27420,-1.29775,-0.359278,1.68434,0
27440,-1.2997,-0.358474,1.69229,0
27460,-1.3024,-0.357133,1.70053,0
27480,-1.30531,-0.356366,1.70913,0
27500,-1.30784,-0.355745,1.7182,0
27520,-1.31023,-0.354601,1.72795,0
27540,-1.31329,-0.353726,1.73792,0
27560,-1.31712,-0.354404,1.74809,0
27580,-1.3213,-0.355612,1.75811,0
27600,-1.32386,-0.356115,1.76739,0
27620,-1.32502,-0.356865,1.77685,0
27640,-1.32651,-0.358053,1.78655,0
27660,-1.32809,-0.358706,1.79655,0
27680,-1.32884,-0.359066,1.80686,0
27700,-1.32983,-0.360156,1.81716,0
27720,-1.33215,-0.36207,1.82771,0
27740,-1.33472,-0.363439,1.83826,0
27760,-1.33749,-0.364543,1.84875,0
27780,-1.34121,-0.366374,1.85972,0
27800,-1.34564,-0.368065,1.87153,0
27820,-1.34979,-0.369801,1.88382,0
27840,-1.35333,-0.372087,1.8956,0
27860,-1.35852,-0.3746,1.90673,0
27880,-1.36375,-0.376876,1.91802,0
27900,-1.36617,-0.379079,1.92934,0
27920,-1.3675,-0.381414,1.94011,0
27940,-1.36969,-0.383962,1.95037,0
27960,-1.37209,-0.385955,1.9606,0
27980,-1.37561,-0.387745,1.97051,0
28000,-1.37947,-0.389604,1.98018,0
28020,-1.38258,-0.392451,1.98944,0
28040,-1.38508,-0.394903,1.99817,0
28060,-1.38876,-0.397748,2.00735,0
28080,-1.39317,-0.400554,2.0166,0
28100,-1.39754,-0.403307,2.02561,0
28120,-1.40174,-0.406348,2.03426,0
28140,-1.40676,-0.409536,2.04296,0
28160,-1.41214,-0.412853,2.05196,0
28180,-1.41734,-0.416832,2.06084,0
28200,-1.42201,-0.421676,2.06893,0
28220,-1.42693,-0.426982,2.07679,0
28240,-1.43178,-0.431902,2.0849,0
28260,-1.43656,-0.437033,2.09323,0
28280,-1.44117,-0.442811,2.10166,0
28300,-1.44679,-0.448885,2.11028,0
28320,-1.45203,-0.455729,2.11879,0
28340,-1.45767,-0.462627,2.12715,0
28360,-1.46356,-0.470122,2.13518,0
28370,-1.4694,-0.477647,2.14308,0
28390,-1.47484,-0.485787,2.15082,0
28410,-1.47968,-0.494099,2.15852,0
28430,-1.48414,-0.502747,2.16628,0
28450,-1.48848,-0.511763,2.17402,0
28470,-1.49338,-0.520545,2.18142,0
28490,-1.49776,-0.52898,2.18832,0
28510,-1.50201,-0.537073,2.19521,0
28530,-1.50592,-0.545383,2.20195,0
28550,-1.509,-0.553516,2.20815,0
28570,-1.51329,-0.560956,2.2146,0
28590,-1.51838,-0.567784,2.22073,0
28610,-1.52326,-0.574265,2.2268,0
28630,-1.52669,-0.580637,2.23275,0
28650,-1.52986,-0.587636,2.23879,0
28670,-1.53364,-0.594993,2.24414,0
28690,-1.53832,-0.60207,2.24933,0
28710,-1.54364,-0.6088,2.25459,0
28730,-1.5481,-0.615039,2.25948,0
28750,-1.55136,-0.621069,2.26387,0
28770,-1.55358,-0.626904,2.2682,0
28790,-1.55594,-0.632863,2.27202,0
28810,-1.55896,-0.637922,2.2744,0
28830,-1.56201,-0.642033,2.27644,0
28850,-1.56567,-0.644703,2.27921,0
28870,-1.56702,-0.647675,2.28153,0
28890,-1.56707,-0.650431,2.28334,0
28910,-1.56826,-0.653731,2.28497,0
28930,-1.57025,-0.657171,2.28608,0
28950,-1.57149,-0.660365,2.28595,0
28970,-1.57157,-0.663179,2.28613,0
28990,-1.57157,-0.666185,2.2868,0
29010,-1.57234,-0.669565,2.28667,0
29030,-1.57295,-0.672725,2.28627,0
29050,-1.57318,-0.675808,2.28524,0
29070,-1.57321,-0.67909,2.28368,0
29090,-1.57384,-0.68311,2.28244,0
29110,-1.57471,-0.687257,2.28109,0
29130,-1.57544,-0.691492,2.27888,0
29150,-1.57524,-0.69587,2.27637,0
29170,-1.57533,-0.699648,2.274,0
29190,-1.57702,-0.703758,2.27235,0
29210,-1.57711,-0.707433,2.27012,0
29230,-1.57626,-0.711377,2.26737,0
29250,-1.57628,-0.715882,2.26495,0
29270,-1.57682,-0.72037,2.26231,0
29290,-1.57709,-0.724245,2.25851,0
29310,-1.57615,-0.72814,2.25433,0
29330,-1.57515,-0.732158,2.25048,0
29350,-1.57489,-0.736248,2.24658,0
29370,-1.5745,-0.739868,2.24214,0
29390,-1.57318,-0.7434,2.23698,0
29410,-1.57206,-0.747606,2.23149,0
29430,-1.57171,-0.752173,2.22574,0
29450,-1.57078,-0.756061,2.21889,0
29470,-1.56893,-0.758832,2.21229,0
29490,-1.56695,-0.762077,2.20618,0
29510,-1.56539,-0.765828,2.20022,0
29530,-1.56479,-0.769819,2.19454,0
29550,-1.56541,-0.773334,2.18818,0
29570,-1.5667,-0.776362,2.18141,0
29590,-1.56727,-0.779041,2.17465,0
29610,-1.56751,-0.781693,2.1683,0
29630,-1.56705,-0.784284,2.16161,0
29650,-1.56671,-0.786946,2.154,0
29670,-1.56495,-0.78957,2.14509,0
29690,-1.56328,-0.791705,2.13632,0
29710,-1.56087,-0.793216,2.12755,0
29730,-1.55806,-0.795455,2.11893,0
29750,-1.55537,-0.798827,2.10992,0
29770,-1.55362,-0.801941,2.10065,0
29790,-1.55223,-0.804799,2.09113,0
29810,-1.55092,-0.807525,2.0816,0
29830,-1.54852,-0.810258,2.0717,0
29850,-1.54616,-0.813065,2.06171,0
29870,-1.54458,-0.815807,2.05217,0
29890,-1.54247,-0.818992,2.04188,0
29910,-1.53839,-0.821879,2.03033,0
29930,-1.53388,-0.825045,2.01883,0
29950,-1.52971,-0.828622,2.00792,0
29970,-1.52593,-0.831796,1.99699,0
29990,-1.5212,-0.834533,1.98545,0
30010,-1.51596,-0.837984,1.9739,0
30030,-1.51083,-0.841535,1.96267,0
30050,-1.50615,-0.845515,1.95147,0
30070,-1.50165,-0.849079,1.93978,0
30090,-1.49769,-0.85256,1.92854,0
30110,-1.49364,-0.855567,1.91716,0
30130,-1.48858,-0.858199,1.90512,0
30150,-1.48269,-0.860531,1.89294,0
30170,-1.47771,-0.862937,1.88109,0
30190,-1.47233,-0.863768,1.86833,0
30210,-1.46645,-0.863709,1.85646,0
30240,-1.45532,-0.864178,1.83573,0
30260,-1.45033,-0.864671,1.82566,0
30280,-1.44544,-0.864233,1.81518,0
30300,-1.4407,-0.863303,1.80498,0
30320,-1.4369,-0.862618,1.79588,0
30340,-1.43258,-0.862002,1.78721,0
30350,-1.42756,-0.861211,1.77888,0
30370,-1.42367,-0.860587,1.77119,0
30390,-1.42002,-0.860045,1.76263,0
30410,-1.41688,-0.858939,1.75385,0
30430,-1.41286,-0.857468,1.74517,0
30450,-1.40896,-0.856293,1.73695,0
30470,-1.40542,-0.854961,1.72845,0
30490,-1.40192,-0.852984,1.71918,0
30510,-1.3979,-0.850821,1.70989,0
30530,-1.39264,-0.848607,1.69972,0
30550,-1.38657,-0.846176,1.68902,0
30570,-1.3806,-0.843078,1.678,0
30590,-1.37431,-0.839439,1.66687,0
30610,-1.36797,-0.835252,1.6561,0
30630,-1.362,-0.830527,1.64655,0
30650,-1.3547,-0.825895,1.63773,0
30670,-1.34846,-0.821984,1.62862,0
30690,-1.34483,-0.817653,1.61801,0
30710,-1.34402,-0.81168,1.6074,0
30730,-1.34288,-0.805102,1.5976,0
30750,-1.33974,-0.798472,1.5887,0
30770,-1.33559,-0.793065,1.58078,0
30790,-1.33066,-0.787565,1.57247,0
30810,-1.32632,-0.781873,1.56266,0
30830,-1.32207,-0.775634,1.55204,0
30850,-1.31795,-0.769375,1.54294,0
30870,-1.31259,-0.7636,1.53427,0
30890,-1.30509,-0.758704,1.52492,0
30910,-1.29678,-0.754307,1.51559,0
30930,-1.29004,-0.750206,1.50621,0
30950,-1.28398,-0.745727,1.49619,0
30970,-1.27775,-0.740539,1.48622,0
30990,-1.27198,-0.73586,1.47724,0
31010,-1.2665,-0.730215,1.46746,0
31030,-1.26222,-0.722218,1.45803,0
31050,-1.25788,-0.71338,1.45055,0
31070,-1.25279,-0.705673,1.44389,0
31090,-1.24613,-0.69832,1.4369,0
31110,-1.24119,-0.689732,1.42985,0
31130,-1.23801,-0.680479,1.4218,0
31150,-1.23477,-0.670249,1.414,0
31170,-1.23097,-0.660105,1.40689,0
31190,-1.22693,-0.649608,1.40021,0
31210,-1.22196,-0.639149,1.39414,0
31230,-1.2169,-0.628122,1.38879,0
31250,-1.21324,-0.617314,1.38423,0
31270,-1.21049,-0.607266,1.38028,0
31290,-1.20789,-0.597268,1.37695,0
31310,-1.20632,-0.587895,1.37442,0
31330,-1.20654,-0.578771,1.37299,0
31350,-1.20898,-0.570125,1.37296,0
31370,-1.21147,-0.561527,1.37356,0
31390,-1.21281,-0.553097,1.3739,0
31410,-1.21458,-0.545693,1.37511,0
31430,-1.21688,-0.538932,1.37692,0
31450,-1.21925,-0.533094,1.37915,0
31470,-1.22124,-0.528155,1.38187,0
31490,-1.22369,-0.523453,1.38514,0
31510,-1.22539,-0.519607,1.38872,0
31530,-1.22695,-0.516851,1.39271,0
31550,-1.22897,-0.514077,1.39688,0
31570,-1.23186,-0.511054,1.40213,0
31590,-1.235,-0.507944,1.40813,0
31610,-1.23791,-0.505125,1.414,0
31630,-1.24276,-0.502052,1.42083,0
31650,-1.24785,-0.497719,1.42786,0
31670,-1.25253,-0.493762,1.43548,0
31690,-1.25663,-0.491082,1.44286,0
31710,-1.26145,-0.48812,1.45007,0
31730,-1.26596,-0.485212,1.45687,0
31750,-1.27066,-0.482507,1.46396,0
31770,-1.27528,-0.479886,1.47168,0
31790,-1.27809,-0.477305,1.4787,0
31810,-1.28124,-0.475441,1.48583,0
31830,-1.28663,-0.473226,1.49319,0
31850,-1.29155,-0.470013,1.50004,0
31870,-1.2949,-0.466745,1.50697,0
31890,-1.29784,-0.464238,1.51355,0
31910,-1.30238,-0.46167,1.5203,0
31930,-1.30734,-0.458545,1.52731,0
31950,-1.31038,-0.455759,1.53402,0
31970,-1.31371,-0.453455,1.54069,0
31990,-1.3183,-0.450965,1.5471,0
32010,-1.32318,-0.448592,1.55317,0
32030,-1.32783,-0.446487,1.55952,0
32050,-1.33144,-0.444502,1.56615,0
32070,-1.33352,-0.442427,1.5725,0
32090,-1.33649,-0.441298,1.57905,0
32110,-1.34098,-0.439561,1.58533,0
32130,-1.34604,-0.437269,1.59201,0
32150,-1.3509,-0.435089,1.5992,0
32170,-1.35604,-0.433381,1.60666,0
32190,-1.36167,-0.431893,1.61406,0
32210,-1.36739,-0.430908,1.6213,0
32230,-1.37289,-0.429164,1.62819,0
32250,-1.37736,-0.427629,1.63485,0
32270,-1.38116,-0.426201,1.64188,0
32290,-1.38571,-0.424991,1.64984,0
32310,-1.38959,-0.424269,1.65742,0
32330,-1.39332,-0.424466,1.66434,0
32350,-1.39805,-0.424478,1.67083,0
32370,-1.40273,-0.424252,1.6772,0
32390,-1.40707,-0.424458,1.684,0
32410,-1.41065,-0.425125,1.69137,0
32430,-1.41452,-0.426585,1.69894,0
32450,-1.41888,-0.428578,1.70601,0
32470,-1.42427,-0.430923,1.71295,0
32490,-1.43005,-0.433039,1.72009,0
32510,-1.43556,-0.435297,1.72724,0
32530,-1.44122,-0.438262,1.73481,0
32550,-1.44672,-0.441188,1.74251,0
32570,-1.45295,-0.443995,1.75063,0
32590,-1.46021,-0.446293,1.75882,0
32610,-1.46961,-0.448511,1.76821,0
32630,-1.48016,-0.45041,1.77785,0
32650,-1.48996,-0.452479,1.78726,0
32670,-1.49879,-0.454148,1.79666,0
32690,-1.50961,-0.456509,1.80653,0
32710,-1.52074,-0.45882,1.8156,0
32730,-1.52972,-0.46051,1.82463,0
32750,-1.53653,-0.462336,1.83374,0
32770,-1.54315,-0.465643,1.84292,0
32790,-1.55042,-0.469031,1.85152,0
32810,-1.55742,-0.471674,1.85939,0
32830,-1.56318,-0.474694,1.86722,0
32850,-1.56845,-0.477943,1.87526,0
32870,-1.57423,-0.481114,1.88361,0
32890,-1.57955,-0.483848,1.89102,0
32910,-1.58483,-0.486807,1.89795,0
32930,-1.59107,-0.489527,1.90495,0
32950,-1.59874,-0.491845,1.91229,0
32970,-1.60467,-0.493634,1.91857,0
32990,-1.60943,-0.495477,1.92458,0
33010,-1.61399,-0.497717,1.93006,0
33030,-1.61932,-0.499588,1.93529,0
33050,-1.62326,-0.501197,1.93929,0
33070,-1.62616,-0.502563,1.94348,0
33090,-1.62881,-0.504007,1.94804,0
33110,-1.63192,-0.505895,1.9529,0
33130,-1.63531,-0.508637,1.95806,0
33150,-1.63927,-0.511628,1.96314,0
33170,-1.64366,-0.514374,1.96817,0
33190,-1.64802,-0.516681,1.97364,0
33210,-1.65291,-0.51906,1.98023,0
33230,-1.65839,-0.52135,1.9869,0
33250,-1.6641,-0.523336,1.99353,0
33270,-1.67072,-0.52537,2.00056,0
33290,-1.67867,-0.527078,2.00703,0
33310,-1.68579,-0.528605,2.01271,0
33330,-1.69177,-0.529547,2.01797,0
33350,-1.69551,-0.529672,2.02281,0
33370,-1.69844,-0.530268,2.02831,0
33390,-1.70158,-0.53159,2.03345,0
33410,-1.70522,-0.533003,2.03766,0
33430,-1.70914,-0.534494,2.04133,0
33450,-1.71337,-0.535952,2.04502,0
33470,-1.71682,-0.537669,2.04901,0
33490,-1.7194,-0.539217,2.05316,0
33510,-1.72212,-0.541223,2.05738,0
33530,-1.72615,-0.5434,2.06119,0
33550,-1.73051,-0.544884,2.06483,0
33570,-1.7346,-0.546103,2.06921,0
33590,-1.73702,-0.54777,2.07388,0
33610,-1.73763,-0.550356,2.07825,0
33630,-1.7395,-0.553492,2.08264,0
33650,-1.74338,-0.556604,2.08653,0
33670,-1.74783,-0.559369,2.0902,0
33690,-1.75105,-0.561662,2.09439,0
33710,-1.75262,-0.56343,2.09879,0
33730,-1.75416,-0.565488,2.10315,0
33750,-1.7576,-0.567795,2.10766,0
33770,-1.76163,-0.569389,2.11144,0
33780,-1.7649,-0.569854,2.11506,0
33800,-1.76783,-0.570455,2.11933,0
33820,-1.77069,-0.571645,2.12348,0
33840,-1.77348,-0.572909,2.12716,0
33860,-1.77649,-0.574345,2.13099,0
33880,-1.77877,-0.575844,2.13452,0
33900,-1.7811,-0.577549,2.1385,0
33920,-1.78337,-0.579619,2.14247,0
33940,-1.78519,-0.582011,2.14612,0
33960,-1.78717,-0.584408,2.15008,0
33980,-1.7896,-0.586955,2.15436,0
34000,-1.79245,-0.590096,2.15879,0
34020,-1.79538,-0.593021,2.16263,0
34040,-1.79846,-0.59542,2.16643,0
34060,-1.80111,-0.597508,2.17009,0
34080,-1.80341,-0.599873,2.17383,0
34100,-1.80583,-0.602381,2.17799,0
34120,-1.80849,-0.60526,2.18158,0
34140,-1.81182,-0.607914,2.18512,0
34160,-1.81521,-0.61014,2.18879,0
34180,-1.81812,-0.612716,2.19281,0
34200,-1.82085,-0.615305,2.19669,0
34220,-1.82418,-0.618671,2.20038,0
34240,-1.82763,-0.621799,2.20401,0
34260,-1.83068,-0.62492,2.20725,0
34280,-1.83325,-0.627465,2.20978,0
34300,-1.83579,-0.629843,2.21247,0
34320,-1.83694,-0.632127,2.21498,0
34340,-1.83836,-0.634652,2.21753,0
34360,-1.83983,-0.636787,2.2194,0
34380,-1.84178,-0.63804,2.22103,0
34400,-1.84307,-0.639524,2.22275,0
34420,-1.84419,-0.641376,2.2249,0
34440,-1.84566,-0.643805,2.2268,0
34460,-1.84673,-0.646088,2.22837,0
34480,-1.8488,-0.648789,2.23037,0
34500,-1.85169,-0.651559,2.23189,0
34520,-1.85395,-0.653852,2.23286,0
34540,-1.85476,-0.655427,2.23371,0
34560,-1.85478,-0.657019,2.23507,0
34580,-1.85543,-0.659199,2.23629,0
34600,-1.85635,-0.661289,2.23691,0
34620,-1.85682,-0.662976,2.23712,0
34640,-1.85777,-0.66496,2.23848,0
34660,-1.85865,-0.667177,2.23926,0
34680,-1.85982,-0.668758,2.24007,0
34700,-1.86093,-0.670199,2.24115,0
34720,-1.86185,-0.67202,2.24267,0
34740,-1.86246,-0.674046,2.24426,0
34760,-1.86326,-0.675885,2.24615,0
34780,-1.86503,-0.677679,2.24883,0
34800,-1.8679,-0.679877,2.252,0
34820,-1.87046,-0.682194,2.25522,0
34840,-1.87229,-0.684855,2.25873,0
34860,-1.87508,-0.6884,2.26247,0
34880,-1.87921,-0.692022,2.26619,0
34900,-1.88343,-0.694853,2.26879,0
34920,-1.8861,-0.697155,2.27123,0
34940,-1.88747,-0.699255,2.27397,0
34960,-1.88915,-0.701807,2.27678,0
34980,-1.89139,-0.70511,2.27908,0
35000,-1.89416,-0.70877,2.28104,0
35020,-1.8972,-0.712009,2.28225,0
35040,-1.89928,-0.714782,2.2834,0
35060,-1.90013,-0.717255,2.28444,0
35080,-1.90075,-0.720631,2.28544,0
35100,-1.90208,-0.72403,2.28627,0
35120,-1.9038,-0.727057,2.28697,0
35140,-1.90476,-0.729715,2.2868,0
35160,-1.90437,-0.732315,2.28591,0
35180,-1.90456,-0.734993,2.28625,0
35200,-1.90451,-0.737519,2.28617,0
35220,-1.90394,-0.740324,2.28498,0
35240,-1.90303,-0.7428,2.28367,0
35260,-1.90357,-0.744921,2.28291,0
35280,-1.90354,-0.747016,2.28173,0
35300,-1.90216,-0.748762,2.28047,0
35320,-1.90053,-0.750486,2.2791,0
35340,-1.89932,-0.752765,2.27857,0
35360,-1.89946,-0.755462,2.27821,0
35380,-1.89978,-0.757843,2.27706,0
35400,-1.89873,-0.759671,2.27597,0
35420,-1.89767,-0.761001,2.27555,0
35440,-1.89713,-0.7628,2.27593,0
35460,-1.89918,-0.765375,2.27681,0
35480,-1.90228,-0.767935,2.27664,0
35500,-1.90431,-0.769886,2.27546,0
35520,-1.90576,-0.77125,2.27481,0
35540,-1.90698,-0.772434,2.27469,0
35560,-1.90753,-0.773345,2.27439,0
35580,-1.90719,-0.774508,2.27398,0
35600,-1.90712,-0.77591,2.27368,0
35620,-1.90739,-0.777346,2.27274,0
35640,-1.90808,-0.778394,2.2722,0
35660,-1.9088,-0.779995,2.27185,0
35680,-1.90881,-0.78171,2.2714,0
35700,-1.90845,-0.783469,2.27131,0
35720,-1.90885,-0.785405,2.27121,0
35740,-1.90991,-0.787288,2.27074,0
35760,-1.91022,-0.788716,2.27057,0
35780,-1.91036,-0.790488,2.27024,0
35790,-1.91045,-0.791917,2.26954,0
35810,-1.90958,-0.793358,2.26875,0
35830,-1.90879,-0.794605,2.26864,0
35850,-1.90891,-0.795471,2.26869,0
35870,-1.90885,-0.796281,2.26829,0
35890,-1.90902,-0.797167,2.2683,0
35910,-1.90995,-0.798246,2.2681,0
35930,-1.90999,-0.799708,2.26774,0
35950,-1.91022,-0.801566,2.26802,0
35970,-1.91054,-0.803603,2.26819,0
35990,-1.91179,-0.806058,2.26908,0
36010,-1.91259,-0.808381,2.26894,0
36030,-1.91272,-0.810744,2.26788,0
36050,-1.91353,-0.812595,2.2676,0
36070,-1.9138,-0.813545,2.26734,0
36090,-1.91236,-0.814078,2.2666,0
36110,-1.91027,-0.815152,2.26616,0
36130,-1.90962,-0.816747,2.26587,0
36150,-1.90959,-0.818039,2.26452,0
36170,-1.9098,-0.819349,2.2635,0
36190,-1.91011,-0.820583,2.26334,0
36210,-1.90977,-0.821895,2.26312,0
36230,-1.90885,-0.823215,2.26217,0
36250,-1.90916,-0.824508,2.26099,1001
36270,-1.9106,-0.825818,2.26064,0
36290,-1.91042,-0.826484,2.25958,0
36310,-1.909,-0.827054,2.25858,0
36330,-1.90797,-0.827838,2.25776,0
36350,-1.90706,-0.82876,2.25671,0
36370,-1.90631,-0.829036,2.25594,0
36390,-1.90631,-0.829036,2.25594,0
36410,-1.90624,-0.829922,2.25563,0
36430,-1.90644,-0.83123,2.25594,0
36450,-1.90766,-0.832094,2.25709,0
36470,-1.90998,-0.833664,2.25872,0
36490,-1.91153,-0.834947,2.25956,0
36510,-1.91369,-0.836216,2.26039,0
36530,-1.91581,-0.837326,2.2613,0
36550,-1.91687,-0.837993,2.26093,0
36570,-1.91628,-0.837985,2.26042,0
36590,-1.91446,-0.837515,2.26015,0
36610,-1.91147,-0.837495,2.25923,0
36630,-1.90848,-0.838353,2.25991,0
36650,-1.9049,-0.840383,2.26617,0
36670,-1.90204,-0.843355,2.2648,0
36690,-1.89773,-0.843322,2.25828,0
36710,-1.88911,-0.844846,2.25354,0
36730,-1.87834,-0.847354,2.25181,0
36750,-1.87107,-0.848266,2.25157,0
36770,-1.87038,-0.849687,2.25258,0
36790,-1.86899,-0.849596,2.25109,0
36810,-1.86393,-0.84716,2.24745,0
36830,-1.8554,-0.844454,2.24373,0
36850,-1.84674,-0.842302,2.24238,0
36870,-1.83687,-0.839448,2.24057,0
36890,-1.82537,-0.83475,2.2368,0
36910,-1.80796,-0.829362,2.22937,0
36930,-1.78536,-0.822341,2.22066,0
36950,-1.7644,-0.814829,2.21576,0
36970,-1.74159,-0.807687,2.20958,0
36990,-1.71251,-0.798634,2.19794,0
37010,-1.6796,-0.785165,2.18446,0
37030,-1.65217,-0.770679,2.17564,0
37050,-1.62024,-0.754791,2.16482,0
37070,-1.58605,-0.735077,2.14976,0
37090,-1.55639,-0.714461,2.13724,0
37110,-1.53022,-0.695121,2.12679,0
37130,-1.50032,-0.675434,2.11382,0
37150,-1.47015,-0.653712,2.10218,0
37170,-1.44312,-0.633403,2.09448,0
37190,-1.42113,-0.61586,2.0894,0
37210,-1.3999,-0.599378,2.08306,0
37230,-1.37837,-0.583329,2.07554,0
37250,-1.36108,-0.568375,2.07156,0
37270,-1.34945,-0.554482,2.06968,0
37290,-1.3404,-0.541129,2.06778,0
37310,-1.33055,-0.526983,2.06701,0
37330,-1.31935,-0.513403,2.06901,0
37350,-1.30731,-0.501787,2.07168,0
37370,-1.298,-0.491457,2.07365,0
37390,-1.29391,-0.480602,2.07616,0
37410,-1.29328,-0.470036,2.07852,0
37430,-1.29207,-0.460635,2.07958,0
37450,-1.29086,-0.45153,2.08076,0
37470,-1.28955,-0.442536,2.08267,0
37490,-1.28745,-0.433796,2.08392,0
37510,-1.2845,-0.425119,2.08457,0
37530,-1.28206,-0.417117,2.08553,0
37550,-1.28111,-0.409694,2.08567,0
37570,-1.28118,-0.402233,2.08455,0
37590,-1.28091,-0.394713,2.08337,0
37610,-1.27932,-0.387705,2.08363,0
37630,-1.27682,-0.381726,2.08466,0
37650,-1.2745,-0.376193,2.08567,0
37670,-1.27348,-0.371507,2.08695,0
37690,-1.27308,-0.36715,2.0884,0
37710,-1.27314,-0.362436,2.09029,0
37730,-1.27405,-0.35788,2.09282,0
37750,-1.27509,-0.354491,2.0951,0
37770,-1.27565,-0.351139,2.0969,0
37790,-1.27588,-0.34795,2.0988,0
37810,-1.27538,-0.345591,2.10053,0
37830,-1.27406,-0.343334,2.10173,0
37850,-1.27289,-0.340951,2.10255,0
37870,-1.27241,-0.339187,2.10311,0
37890,-1.27204,-0.337569,2.10382,0
37910,-1.27102,-0.334988,2.10432,0
37930,-1.27002,-0.332643,2.1059,0
37950,-1.26939,-0.331581,2.10804,0
37970,-1.26867,-0.331313,2.10964,0
37990,-1.26808,-0.33117,2.11151,0
38010,-1.2679,-0.331,2.11393,0
38030,-1.26837,-0.331568,2.1167,0
38050,-1.2682,-0.332131,2.11925,0
38070,-1.26745,-0.332364,2.12178,0
38090,-1.26714,-0.332633,2.12394,0
38110,-1.26812,-0.33257,2.12611,0
38130,-1.2692,-0.331629,2.12797,0
38150,-1.26969,-0.330357,2.12981,0
38170,-1.26961,-0.329929,2.13152,0
38190,-1.26892,-0.329825,2.13305,0
38210,-1.26845,-0.329538,2.13386,0
38230,-1.26857,-0.328753,2.13473,0
38250,-1.26854,-0.32813,2.13535,0
38270,-1.26837,-0.328082,2.13612,0
38290,-1.26815,-0.327949,2.13713,0
38310,-1.26796,-0.327699,2.13841,0
38330,-1.26685,-0.327485,2.13948,0
38350,-1.26555,-0.327694,2.14047,0
38370,-1.26497,-0.328481,2.14128,0
38390,-1.26495,-0.329492,2.14194,0
38410,-1.26504,-0.33033,2.14304,0
38430,-1.26433,-0.330943,2.144,0
38450,-1.26247,-0.33096,2.14452,0
38470,-1.26008,-0.331328,2.14447,0
38490,-1.2571,-0.332005,2.14333,1000
38510,-1.25358,-0.332049,2.14229,0
38530,-1.24962,-0.331892,2.14202,0
38550,-1.24664,-0.331614,2.14193,0
38570,-1.24473,-0.331504,2.14158,0
38590,-1.24305,-0.331566,2.14133,0
38610,-1.24176,-0.332325,2.14142,0
38630,-1.24053,-0.332999,2.14147,0
38650,-1.23894,-0.333839,2.14184,0
38670,-1.23738,-0.335321,2.14247,0
38690,-1.23643,-0.337453,2.14315,0
38710,-1.23636,-0.338998,2.1436,0
38730,-1.23721,-0.340189,2.14404,0
38750,-1.2387,-0.341766,2.14488,0
38770,-1.23973,-0.343166,2.14587,0
38790,-1.2401,-0.344443,2.14662,0
38810,-1.24044,-0.345813,2.14722,0
38830,-1.2417,-0.34692,2.14764,0
38850,-1.24353,-0.347175,2.14819,0
38870,-1.24521,-0.347424,2.14922,0
38890,-1.24557,-0.347916,2.1508,0
38910,-1.24607,-0.348731,2.15268,0
38930,-1.24746,-0.348862,2.1545,0
38950,-1.24939,-0.348912,2.15581,0
38970,-1.25101,-0.349091,2.15645,0
38990,-1.25171,-0.348876,2.1571,0
39010,-1.25159,-0.348336,2.15796,0
39030,-1.25092,-0.347654,2.15893,0
39050,-1.25049,-0.347413,2.15945,0
39070,-1.25154,-0.347104,2.15974,0
39090,-1.25218,-0.346582,2.16024,0
39110,-1.25206,-0.346043,2.1611,0
39130,-1.25114,-0.345966,2.16188,0
39150,-1.25061,-0.34612,2.16234,0
39170,-1.25061,-0.34612,2.16234,0
39190,-1.25096,-0.345829,2.16302,0
39210,-1.25092,-0.345867,2.16401,0
39220,-1.25103,-0.345499,2.16498,0
39240,-1.25192,-0.345005,2.16615,0
39260,-1.25285,-0.344518,2.16712,0
39280,-1.25375,-0.34405,2.16798,0
39300,-1.25419,-0.34341,2.16898,0
39320,-1.25466,-0.342779,2.16978,0
39340,-1.25566,-0.342352,2.17115,0
39360,-1.25607,-0.342412,2.17157,0
39380,-1.25569,-0.342647,2.17203,0
39400,-1.25547,-0.343108,2.17295,0
39420,-1.25575,-0.34428,2.17383,0
39440,-1.25609,-0.345876,2.17494,0
39460,-1.25643,-0.347717,2.1758,0
39480,-1.25708,-0.349301,2.17713,0
39500,-1.25806,-0.350903,2.17905,0
39520,-1.25894,-0.3526,2.1811,0
39540,-1.25984,-0.35464,2.18311,0
39560,-1.26043,-0.357108,2.18444,0
39580,-1.2608,-0.359602,2.1857,0
39600,-1.26054,-0.361796,2.18704,0
39620,-1.25976,-0.36435,2.18833,0
39640,-1.25891,-0.367883,2.19,0
39660,-1.25822,-0.371987,2.19173,0
39680,-1.25782,-0.376192,2.19343,0
39700,-1.2577,-0.3798,2.19512,0
39720,-1.25651,-0.383058,2.19644,0
39740,-1.25407,-0.386803,2.19761,0
39760,-1.25137,-0.391137,2.1991,0
39780,-1.24832,-0.39579,2.20035,0
39800,-1.24593,-0.399976,2.20162,0
39820,-1.24488,-0.404029,2.2028,0
39840,-1.24472,-0.407695,2.20417,0
39860,-1.24414,-0.411226,2.20592,0
39880,-1.24369,-0.414475,2.20805,0
39900,-1.24385,-0.417791,2.20973,0
39920,-1.24387,-0.421148,2.21073,0
39940,-1.2439,-0.424073,2.21195,0
39960,-1.24324,-0.42721,2.21337,0
39980,-1.24217,-0.431246,2.21408,0
40000,-1.24089,-0.435548,2.21457,0
40020,-1.24011,-0.439496,2.21501,0
40040,-1.24029,-0.443721,2.21586,0
40060,-1.24071,-0.447925,2.2168,0
40080,-1.24115,-0.451897,2.2177,0
40100,-1.24183,-0.455255,2.21878,0
40120,-1.24269,-0.458759,2.21995,0
40140,-1.24397,-0.461568,2.22101,0
40160,-1.24491,-0.464154,2.22131,0
40180,-1.24566,-0.466244,2.22147,0
40200,-1.2454,-0.468667,2.22122,0
40220,-1.24486,-0.471282,2.2211,0
40240,-1.24409,-0.473665,2.22048,0
40260,-1.24344,-0.476056,2.21894,0
40280,-1.2431,-0.478003,2.21753,0
40300,-1.24206,-0.480229,2.21676,0
40320,-1.24042,-0.482329,2.21618,0
40340,-1.23932,-0.484561,2.21572,0
40360,-1.23901,-0.48642,2.21426,0
40380,-1.23805,-0.488421,2.21173,0
40400,-1.23706,-0.490159,2.20987,0
40420,-1.23637,-0.49213,2.20821,0
40440,-1.23536,-0.494043,2.20614,0
40460,-1.2344,-0.496303,2.20403,0
40480,-1.23268,-0.498781,2.20151,0
40500,-1.2306,-0.501108,2.19904,0
40520,-1.22902,-0.504014,2.19681,0
40540,-1.22769,-0.506919,2.19393,0
40560,-1.22653,-0.509551,2.1908,0
40580,-1.22469,-0.511356,2.18752,0
40600,-1.22231,-0.512909,2.18498,0
40620,-1.22047,-0.514856,2.1832,0
40640,-1.2186,-0.51735,2.18074,0
40660,-1.21692,-0.519749,2.17743,0
40680,-1.21576,-0.521422,2.17392,0
40700,-1.21393,-0.522618,2.17031,0
40720,-1.21205,-0.52424,2.16644,0
40740,-1.20879,-0.526036,2.16144,0
40760,-1.20533,-0.52801,2.15605,0
40780,-1.2016,-0.530165,2.15057,0
40800,-1.19879,-0.532456,2.14486,0
40820,-1.1964,-0.534387,2.13854,0
40840,-1.19396,-0.536071,2.1316,0
40860,-1.19133,-0.537218,2.12506,0
40880,-1.18795,-0.537696,2.11836,0
40900,-1.18448,-0.539103,2.11272,0
40920,-1.182,-0.541005,2.10712,0
40940,-1.18081,-0.542641,2.10106,0
40960,-1.18008,-0.544092,2.09528,0
40980,-1.17969,-0.545959,2.09037,0
41000,-1.1782,-0.548304,2.08532,0
41020,-1.17722,-0.551148,2.08033,0
41040,-1.17645,-0.554123,2.07507,0
41060,-1.17597,-0.557172,2.0698,0
41080,-1.1755,-0.559719,2.06427,0
41100,-1.17435,-0.562104,2.05834,0
41120,-1.17241,-0.564843,2.05242,0
41140,-1.17092,-0.56777,2.04661,0
41160,-1.17001,-0.571302,2.04118,0
41170,-1.16903,-0.573908,2.03536,0
41200,-1.16873,-0.576161,2.0296,0
41210,-1.16778,-0.578169,2.02329,0
41230,-1.16551,-0.579785,2.01718,0
41250,-1.16226,-0.582408,2.01158,0
41270,-1.15854,-0.585389,2.00528,0
41290,-1.15426,-0.58885,1.9977,0
41310,-1.15052,-0.591739,1.98943,0
41330,-1.14744,-0.5942,1.98116,0
41350,-1.14365,-0.596725,1.97284,0
41370,-1.13845,-0.599349,1.96412,0
41390,-1.13273,-0.601434,1.95462,0
41410,-1.12794,-0.603095,1.94564,0
41430,-1.12377,-0.604857,1.9368,0
41450,-1.11917,-0.606516,1.92771,0
41470,-1.1153,-0.607319,1.91858,0
41490,-1.11176,-0.607901,1.90866,0
41510,-1.10691,-0.608505,1.89819,0
41530,-1.10315,-0.608867,1.88876,0
41550,-1.09899,-0.60942,1.87838,0
41570,-1.09416,-0.610227,1.86707,0
41590,-1.08931,-0.610737,1.85592,0
41610,-1.08436,-0.611904,1.84548,0
41630,-1.07927,-0.61348,1.83535,0
41650,-1.0747,-0.615304,1.82497,0
41670,-1.07091,-0.617193,1.81494,0
41690,-1.06768,-0.618638,1.8059,0
41710,-1.0633,-0.620395,1.79681,0
41730,-1.05875,-0.622673,1.78765,0
41750,-1.05544,-0.625127,1.77836,0
41770,-1.05262,-0.627478,1.76909,0
41790,-1.04942,-0.629675,1.75999,0
41810,-1.04635,-0.631872,1.75125,0
41830,-1.04377,-0.634217,1.74288,0
41850,-1.04144,-0.636858,1.73471,0
41870,-1.039,-0.639326,1.72638,0
41890,-1.03668,-0.641686,1.71759,0
41910,-1.03416,-0.643695,1.70847,0
41930,-1.03242,-0.645339,1.69981,0
41950,-1.02986,-0.646633,1.69049,0
41970,-1.02714,-0.647939,1.68184,0
41990,-1.02464,-0.649251,1.67353,0
42010,-1.02219,-0.650365,1.6646,0
42030,-1.02047,-0.650508,1.65595,0
42050,-1.01894,-0.649783,1.64805,0
42070,-1.01774,-0.649136,1.64189,0
42090,-1.01681,-0.648716,1.63688,0
42110,-1.01623,-0.647955,1.63156,0
42130,-1.01702,-0.646732,1.62566,0
42150,-1.01873,-0.645539,1.61999,0
42170,-1.02033,-0.644771,1.61484,0
42190,-1.02107,-0.644159,1.61043,0
42210,-1.02164,-0.643627,1.60604,0
42230,-1.02286,-0.642661,1.60196,0
42250,-1.02413,-0.64205,1.59748,0
42270,-1.02525,-0.64143,1.59286,0
42290,-1.0255,-0.640618,1.5882,0
42310,-1.02671,-0.639025,1.58371,0
42330,-1.0286,-0.636736,1.57879,0
42350,-1.02983,-0.633463,1.57396,0
42370,-1.03129,-0.629578,1.57045,0
42390,-1.03276,-0.625651,1.56754,0
42410,-1.03497,-0.621774,1.56456,0
42430,-1.03667,-0.617562,1.56111,0
42450,-1.03832,-0.613068,1.55825,0
42470,-1.0405,-0.608865,1.55588,0
42490,-1.04273,-0.604757,1.55353,0
42510,-1.04465,-0.600897,1.55105,0
42530,-1.04671,-0.597279,1.54845,0
42550,-1.04858,-0.593518,1.546,0
42570,-1.05083,-0.589659,1.54372,0
42590,-1.05376,-0.585293,1.54189,0
42610,-1.05695,-0.580826,1.54022,0
42630,-1.05986,-0.576286,1.53868,0
42650,-1.06247,-0.571726,1.53714,0
42670,-1.06507,-0.567083,1.53631,0
42690,-1.06681,-0.563426,1.53629,0
42710,-1.06856,-0.560846,1.53686,0
42730,-1.07027,-0.558643,1.53633,0
42750,-1.07239,-0.555505,1.53552,0
42770,-1.07423,-0.551423,1.53454,0
42790,-1.07639,-0.547769,1.53373,0
42810,-1.0785,-0.544179,1.53264,0
42830,-1.07911,-0.539341,1.53093,0
42850,-1.07821,-0.534121,1.52918,0
42870,-1.07764,-0.529547,1.52748,0
42890,-1.07816,-0.525101,1.52542,0
42910,-1.07836,-0.519454,1.52268,0
42930,-1.07902,-0.513332,1.52066,0
42950,-1.07819,-0.507423,1.51876,0
42970,-1.07683,-0.50197,1.51729,0
42990,-1.07521,-0.496302,1.51572,0
43010,-1.07377,-0.490836,1.51417,0
43030,-1.07323,-0.485861,1.51266,0
43050,-1.07397,-0.480528,1.51091,0
43070,-1.07373,-0.473717,1.50828,0
43090,-1.07203,-0.466802,1.50689,0
43110,-1.07026,-0.461418,1.50669,0
43130,-1.06852,-0.456518,1.50584,0
43150,-1.06737,-0.450704,1.50424,0
43170,-1.06664,-0.444279,1.50284,0
43190,-1.06591,-0.437898,1.50185,0
43210,-1.06481,-0.431792,1.50089,0
43230,-1.06358,-0.425378,1.49972,0
43250,-1.06187,-0.41806,1.49801,0
43270,-1.05983,-0.40994,1.49694,0
43290,-1.0577,-0.402699,1.4965,0
43310,-1.05537,-0.396423,1.49606,0
43330,-1.05324,-0.389705,1.49515,0
43350,-1.05302,-0.38301,1.49445,0
43370,-1.05359,-0.376627,1.49448,0
43390,-1.05398,-0.370481,1.49464,0
43410,-1.05397,-0.364295,1.49537,0
43430,-1.05389,-0.35809,1.49625,0
43450,-1.05476,-0.35253,1.49766,0
43470,-1.05627,-0.347239,1.49914,0
43490,-1.05758,-0.341655,1.50091,0
43510,-1.05933,-0.336682,1.50313,0
43530,-1.0608,-0.331628,1.50497,0
43550,-1.06306,-0.326551,1.50729,0
43570,-1.0653,-0.321426,1.51037,0
43590,-1.0673,-0.316928,1.51419,0
43610,-1.06802,-0.313378,1.51736,0
43630,-1.06889,-0.309295,1.52045,0
43650,-1.07028,-0.306065,1.52392,0
43670,-1.07244,-0.303699,1.52736,0
43690,-1.0743,-0.30048,1.53065,0
43710,-1.07499,-0.29703,1.53447,0
43730,-1.07526,-0.294967,1.53896,0
43750,-1.07666,-0.293996,1.54362,0
43770,-1.07759,-0.292459,1.54747,0
43790,-1.07811,-0.290501,1.55144,0
43810,-1.07852,-0.288902,1.55602,0
43830,-1.0786,-0.287607,1.561,0
43850,-1.07778,-0.28621,1.56599,0
43870,-1.07676,-0.284346,1.57132,0
43890,-1.07608,-0.283088,1.57656,0
43910,-1.07533,-0.282857,1.58131,0
43930,-1.07407,-0.282278,1.5863,0
43950,-1.07307,-0.282263,1.59256,0
43970,-1.07265,-0.283706,1.59888,0
43990,-1.07228,-0.285244,1.6048,0
44010,-1.07258,-0.286116,1.61073,0
44030,-1.07348,-0.287016,1.61715,0
44050,-1.07441,-0.288726,1.62377,0
44070,-1.07502,-0.289941,1.63039,0
44090,-1.07599,-0.290418,1.63719,0
44110,-1.07729,-0.290771,1.64413,0
44130,-1.07913,-0.291546,1.6514,0
44150,-1.0815,-0.292459,1.65918,0
44170,-1.08294,-0.293647,1.66653,0
44190,-1.08449,-0.294425,1.67408,0
44210,-1.0869,-0.295105,1.68184,0
44230,-1.09003,-0.296773,1.68931,0
44250,-1.09251,-0.29812,1.6961,0
44270,-1.09408,-0.298551,1.70296,0
44290,-1.09515,-0.298771,1.71107,0
44310,-1.09644,-0.299849,1.71942,0
44330,-1.09803,-0.301235,1.72689,0
44350,-1.10028,-0.301675,1.73422,0
44370,-1.10241,-0.301757,1.74163,0
44390,-1.10567,-0.30264,1.7493,0
44410,-1.10879,-0.302883,1.7572,0
44430,-1.11137,-0.302351,1.76513,0
44450,-1.11386,-0.3012,1.77313,0
44470,-1.11696,-0.3007,1.78134,0
44490,-1.1203,-0.299984,1.78941,0
44510,-1.12355,-0.298947,1.79724,0
44530,-1.12661,-0.298571,1.8054,0
44550,-1.12955,-0.298263,1.8133,0
44570,-1.13278,-0.29778,1.82075,0
44590,-1.13494,-0.297332,1.8275,0
44610,-1.13724,-0.297315,1.83483,0
44630,-1.13909,-0.298118,1.8424,0
44650,-1.14095,-0.299308,1.84956,0
44660,-1.14303,-0.300463,1.85667,0
44680,-1.14521,-0.301611,1.8637,0
44700,-1.14822,-0.303519,1.8711,0
44720,-1.15105,-0.306082,1.87826,0
44740,-1.15347,-0.308052,1.88506,0
44760,-1.15536,-0.310229,1.89184,0
44780,-1.15667,-0.313264,1.89903,0
44800,-1.15812,-0.316588,1.9063,0
44820,-1.1604,-0.318624,1.91316,0
44840,-1.16245,-0.321014,1.92025,0
44860,-1.16558,-0.324268,1.92829,0
44880,-1.16914,-0.327108,1.93664,0
44900,-1.17168,-0.329295,1.94484,0
44920,-1.17434,-0.332591,1.95285,0
44940,-1.17733,-0.336945,1.96072,0
44960,-1.17938,-0.340388,1.9683,0
44980,-1.18154,-0.343511,1.9771,0
45000,-1.18395,-0.348061,1.98572,0
45020,-1.18605,-0.352786,1.99397,0
45040,-1.18977,-0.356573,2.00274,0
45060,-1.19511,-0.36011,2.01264,0
45080,-1.20072,-0.364616,2.02274,0
45100,-1.2065,-0.369594,2.03259,0
45120,-1.21299,-0.374118,2.04218,0
45140,-1.22035,-0.378486,2.05142,0
45160,-1.22832,-0.383543,2.06016,0
45180,-1.23591,-0.388433,2.06861,0
45200,-1.24248,-0.392946,2.07652,0
45220,-1.24784,-0.397624,2.08426,0
45240,-1.25192,-0.402778,2.09192,0
45260,-1.25522,-0.408278,2.09926,0
45280,-1.25939,-0.414591,2.10586,0
45300,-1.26401,-0.420456,2.1117,0
45320,-1.26891,-0.425947,2.11817,0
45340,-1.27389,-0.432096,2.1261,0
45360,-1.27868,-0.438894,2.1343,0
45380,-1.28359,-0.445601,2.14156,0
45400,-1.2901,-0.451414,2.1492,0
45420,-1.29751,-0.457241,2.15765,0
45440,-1.30447,-0.462625,2.16608,0
45460,-1.31068,-0.467755,2.17438,0
45480,-1.31506,-0.473274,2.18245,0
45500,-1.32032,-0.478837,2.19078,0
45520,-1.32676,-0.484363,2.19828,0
45540,-1.33356,-0.489355,2.20444,0
45560,-1.33872,-0.4936,2.2106,0
45580,-1.34332,-0.497963,2.21766,0
45600,-1.34693,-0.50272,2.22448,0
45620,-1.35002,-0.508245,2.22957,0
45640,-1.35326,-0.513657,2.23403,0
45660,-1.35789,-0.518533,2.23908,0
45680,-1.36406,-0.523057,2.24454,0
45700,-1.37058,-0.527135,2.24884,0
45720,-1.37556,-0.530336,2.25165,0
45740,-1.3788,-0.533331,2.25453,0
45760,-1.38349,-0.536512,2.25868,0
45780,-1.38886,-0.540299,2.26273,0
45800,-1.39197,-0.544544,2.26464,0
45820,-1.39441,-0.549394,2.26613,0
45840,-1.3971,-0.554635,2.26825,0
45860,-1.40052,-0.560838,2.27137,0
45880,-1.40486,-0.567122,2.27437,0
45900,-1.40987,-0.572974,2.27619,0
45920,-1.41552,-0.57828,2.27801,0
45940,-1.42087,-0.58313,2.28011,0
45960,-1.42604,-0.58797,2.28248,0
45980,-1.43095,-0.592284,2.28486,0
46000,-1.4358,-0.59526,2.28705,0
46020,-1.44053,-0.597584,2.28782,0
46040,-1.44458,-0.599518,2.28826,0
46060,-1.44922,-0.601159,2.28955,0
46080,-1.45233,-0.603681,2.28999,0
46100,-1.45481,-0.606411,2.28963,0
46120,-1.4585,-0.609516,2.2898,0
46140,-1.46255,-0.613234,2.28952,0
46160,-1.46526,-0.616874,2.28801,0
46180,-1.46711,-0.620412,2.28682,0
46200,-1.46808,-0.62421,2.28524,0
46220,-1.46879,-0.628221,2.28352,0
46240,-1.46976,-0.632505,2.28123,0
46260,-1.47041,-0.636661,2.27793,0
46280,-1.47151,-0.639723,2.27457,0
46300,-1.47129,-0.642606,2.27125,0
46320,-1.4707,-0.646195,2.2683,0
46340,-1.47069,-0.650424,2.2648,0
46360,-1.47182,-0.654677,2.26127,0
46380,-1.47379,-0.658178,2.25726,0
46400,-1.4752,-0.661094,2.25352,0
46420,-1.47658,-0.663964,2.25019,0
46440,-1.47788,-0.667172,2.24721,0
46460,-1.47972,-0.670015,2.24432,0
46480,-1.48258,-0.672737,2.24067,0
46500,-1.48581,-0.67498,2.23669,0
46520,-1.48775,-0.677053,2.23256,0
46540,-1.48897,-0.678929,2.22901,0
46560,-1.49008,-0.681541,2.22505,0
46580,-1.49196,-0.684204,2.22053,0
46600,-1.49393,-0.687144,2.21521,0
46610,-1.49523,-0.690001,2.20978,0
46630,-1.4961,-0.692926,2.20401,0
46650,-1.49635,-0.695366,2.19818,0
46670,-1.49613,-0.697907,2.19227,0
46690,-1.49522,-0.701617,2.18607,0
46710,-1.49523,-0.705455,2.18016,0
46730,-1.49535,-0.70908,2.17347,0
46750,-1.49583,-0.712265,2.1669,0
46770,-1.49506,-0.715264,2.16083,0
46790,-1.49417,-0.718584,2.15509,0
46810,-1.49431,-0.722655,2.14949,0
46830,-1.49465,-0.726644,2.14265,0
46850,-1.49503,-0.729929,2.13525,0
46870,-1.49443,-0.732374,2.12733,0
46890,-1.49269,-0.734022,2.11989,0
46910,-1.4904,-0.735886,2.11255,0
46930,-1.48674,-0.738306,2.10329,0
46950,-1.48444,-0.740749,2.09343,0
46970,-1.48345,-0.742814,2.08442,0
46990,-1.48091,-0.744549,2.07548,0
47010,-1.47852,-0.746591,2.06709,0
47030,-1.47495,-0.749256,2.05816,0
47050,-1.47189,-0.7522,2.04883,0
47070,-1.47073,-0.75492,2.03976,0
47090,-1.46915,-0.757444,2.03051,0
47110,-1.46631,-0.759826,2.02102,0
47130,-1.4635,-0.762178,2.01131,0
47150,-1.46119,-0.764698,2.00177,0
47170,-1.45931,-0.766898,1.99195,0
47190,-1.45596,-0.768789,1.9808,0
47210,-1.45235,-0.770651,1.96961,0
47230,-1.44865,-0.773641,1.95928,0
47250,-1.44405,-0.777523,1.94856,0
47270,-1.4395,-0.78189,1.93687,0
47290,-1.43594,-0.786012,1.92478,0
47310,-1.43206,-0.790049,1.9128,0
47330,-1.42667,-0.793598,1.90099,0
47350,-1.41961,-0.79746,1.8886,0
47370,-1.41263,-0.802586,1.87603,0
47390,-1.40624,-0.807568,1.86306,0
47410,-1.40038,-0.812417,1.85036,0
47430,-1.39478,-0.816859,1.83826,0
47450,-1.38841,-0.821376,1.82617,0
47470,-1.3819,-0.825505,1.81426,0
47490,-1.37596,-0.828583,1.802,0
47510,-1.37072,-0.831167,1.79038,0
47530,-1.36499,-0.832805,1.77904,0
47550,-1.35902,-0.833973,1.76767,0
47570,-1.35457,-0.834693,1.75731,0
47590,-1.35001,-0.835317,1.74647,0
47610,-1.34398,-0.83553,1.73411,0
47630,-1.3363,-0.835174,1.72146,0
47650,-1.32862,-0.833465,1.70976,0
47670,-1.32232,-0.83097,1.70006,0
47690,-1.31734,-0.827753,1.6908,0
47710,-1.31178,-0.823537,1.68055,0
47730,-1.30614,-0.818991,1.66996,0
47750,-1.30154,-0.813863,1.65979,0
47770,-1.29878,-0.808034,1.65045,0
47790,-1.29583,-0.800752,1.64112,0
47810,-1.29031,-0.793101,1.63066,0
47830,-1.28371,-0.785863,1.62106,0
47850,-1.27809,-0.779546,1.61218,0
47870,-1.27419,-0.772803,1.60449,0
47890,-1.27035,-0.76509,1.59682,0
47910,-1.26669,-0.757837,1.59043,0
47930,-1.26406,-0.751383,1.58559,0
47950,-1.26015,-0.746004,1.5811,0
47970,-1.25522,-0.739861,1.57595,0
47990,-1.25095,-0.733246,1.5709,0
48010,-1.24621,-0.726371,1.56551,0
48030,-1.24062,-0.720363,1.56036,0
48050,-1.23412,-0.715605,1.55536,0
48070,-1.2271,-0.709866,1.54973,0
48090,-1.22026,-0.702942,1.5437,0
48110,-1.2127,-0.695495,1.53786,0
48130,-1.2042,-0.68908,1.53189,0
48150,-1.19427,-0.683213,1.52504,0
48170,-1.18537,-0.676703,1.51868,0
48190,-1.17942,-0.669176,1.51423,0
48210,-1.1738,-0.660084,1.51043,0
48230,-1.16762,-0.650847,1.50678,0
48250,-1.16111,-0.642505,1.50401,0
48270,-1.15515,-0.634609,1.50258,0
48290,-1.15135,-0.626577,1.50126,0
48310,-1.14924,-0.617533,1.49948,0
48330,-1.14779,-0.607766,1.49874,0
48350,-1.14711,-0.59915,1.49945,0
48370,-1.14606,-0.591558,1.50091,0
48390,-1.14477,-0.583525,1.50209,0
48410,-1.1452,-0.575182,1.50413,0
48430,-1.147,-0.566844,1.50606,0
48450,-1.14995,-0.558713,1.50811,0
48470,-1.15193,-0.551582,1.51041,0
48490,-1.15267,-0.54528,1.51239,0
48510,-1.15343,-0.539109,1.51439,0
48530,-1.15417,-0.53326,1.51695,0
48550,-1.15489,-0.528172,1.51942,0
48570,-1.15602,-0.523599,1.52195,0
48590,-1.15788,-0.519299,1.52428,0
48610,-1.16,-0.514591,1.5266,0
48630,-1.16237,-0.510107,1.52935,0
48650,-1.16357,-0.505187,1.532,0
48670,-1.16443,-0.50037,1.53544,0
48690,-1.16573,-0.496833,1.53857,0
48710,-1.16746,-0.493041,1.54144,0
48730,-1.16926,-0.488487,1.54468,0
48750,-1.17161,-0.484138,1.54876,0
48770,-1.17407,-0.480811,1.55315,0
48790,-1.17717,-0.477449,1.55757,0
48810,-1.1806,-0.473347,1.56251,0
48830,-1.1843,-0.470256,1.56843,0
48850,-1.18835,-0.467902,1.57441,0
48870,-1.19216,-0.465171,1.5801,0
48890,-1.19664,-0.462285,1.58648,0
48910,-1.20088,-0.459899,1.59329,0
48930,-1.20525,-0.457879,1.6004,0
48950,-1.2087,-0.455315,1.60718,0
48970,-1.21263,-0.452968,1.61401,0
48990,-1.2162,-0.451124,1.62072,0
49010,-1.21942,-0.449493,1.62717,0
49030,-1.22122,-0.448061,1.63291,0
49050,-1.22279,-0.446939,1.63879,0
49070,-1.22432,-0.445892,1.64485,0
49090,-1.22621,-0.445318,1.65151,0
49110,-1.22877,-0.44475,1.65822,0
49130,-1.2312,-0.443975,1.66451,0
49150,-1.23392,-0.443333,1.67141,0
49170,-1.23692,-0.442824,1.67918,0
49190,-1.23962,-0.442211,1.68668,0
49210,-1.24228,-0.441216,1.69389,0
49230,-1.24581,-0.440089,1.702,0
49250,-1.25076,-0.439273,1.71064,0
49270,-1.25594,-0.438626,1.71948,0
49290,-1.26053,-0.438392,1.72769,0
49310,-1.26511,-0.438028,1.73589,0
49330,-1.27027,-0.43719,1.74454,0
49350,-1.27455,-0.435397,1.75353,0
49370,-1.27818,-0.433945,1.76297,0
49390,-1.28126,-0.434211,1.77223,0
49410,-1.28412,-0.434252,1.77974,0
49430,-1.2881,-0.433568,1.7872,0
49450,-1.29188,-0.432096,1.79461,0
49470,-1.29465,-0.430834,1.80246,0
49490,-1.29606,-0.429851,1.8102,0
49510,-1.29708,-0.429558,1.81741,0
49530,-1.29875,-0.430097,1.8245,0
49550,-1.30144,-0.430134,1.83135,0
49570,-1.30558,-0.430222,1.83822,0
49590,-1.30958,-0.430033,1.84514,0
49610,-1.31239,-0.43012,1.85249,0
49630,-1.31471,-0.431086,1.86017,0
49650,-1.31639,-0.432523,1.86702,0
49670,-1.31829,-0.433798,1.8736,0
49690,-1.32073,-0.435526,1.87997,0
49710,-1.32343,-0.437531,1.88645,0
49730,-1.32545,-0.438699,1.89287,0
49750,-1.32705,-0.439871,1.89967,0
49770,-1.32893,-0.4416,1.90602,0
49790,-1.33209,-0.443441,1.91235,0
49810,-1.33526,-0.445048,1.91852,0
49830,-1.3388,-0.446526,1.9252,0
49850,-1.34325,-0.448127,1.93232,0
49870,-1.34819,-0.449521,1.93902,0
49890,-1.35299,-0.451094,1.94543,0
49910,-1.35766,-0.452934,1.95168,0
49930,-1.36262,-0.454756,1.95807,0
49950,-1.36704,-0.456278,1.96436,0
49970,-1.37114,-0.458268,1.97051,0
49990,-1.37493,-0.461115,1.97639,0
50010,-1.37912,-0.463933,1.98229,0
50030,-1.38395,-0.466627,1.98873,0
50050,-1.38799,-0.469801,1.99483,0
50060,-1.39193,-0.474015,2.00124,0
50080,-1.39728,-0.47889,2.00817,0
50100,-1.40271,-0.482784,2.01489,0
50120,-1.40815,-0.486835,2.0225,0
50140,-1.41369,-0.491187,2.02999,0
50160,-1.41986,-0.496171,2.03803,0
50180,-1.42682,-0.500816,2.04643,0
50200,-1.4336,-0.506125,2.05483,0
50220,-1.44058,-0.511977,2.06365,0
50240,-1.44795,-0.51738,2.07222,0
50260,-1.45509,-0.522543,2.08091,0
50280,-1.46168,-0.528264,2.08957,0
50300,-1.46855,-0.534662,2.09848,0
50320,-1.47566,-0.540201,2.10646,0
50340,-1.48273,-0.545745,2.1152,0
50360,-1.4894,-0.55141,2.12489,0
50380,-1.49626,-0.55739,2.13483,0
50400,-1.50405,-0.563748,2.14416,0
50420,-1.51313,-0.570293,2.15349,0
50440,-1.52204,-0.57633,2.16296,0
50460,-1.5308,-0.582606,2.17248,0
50480,-1.53873,-0.588815,2.18155,0
50500,-1.54561,-0.594457,2.19032,0
50520,-1.55112,-0.600572,2.19898,0
50540,-1.5568,-0.606737,2.2075,0
50560,-1.5633,-0.612734,2.21539,0
50580,-1.57003,-0.618762,2.22282,0
50600,-1.57886,-0.624399,2.23056,0
50620,-1.58874,-0.629292,2.23816,0
50640,-1.5953,-0.634302,2.24468,0
50660,-1.60044,-0.639999,2.25231,0
50680,-1.60737,-0.646192,2.26115,0
50700,-1.61598,-0.652805,2.26948,0
50720,-1.62416,-0.658951,2.27612,0
50740,-1.63239,-0.664928,2.28353,0
50760,-1.64105,-0.670064,2.2913,0
50780,-1.65021,-0.674608,2.29889,0
50800,-1.65779,-0.679475,2.30597,0
50820,-1.66379,-0.684245,2.31265,0
50840,-1.66998,-0.689729,2.31854,0
50860,-1.67713,-0.695391,2.324,0
50880,-1.68474,-0.700426,2.32902,0
50900,-1.69208,-0.704893,2.33319,0
50920,-1.69739,-0.709954,2.33584,0
50940,-1.702,-0.715017,2.33838,0
50960,-1.70714,-0.71981,2.34139,0
50980,-1.71139,-0.724148,2.3437,0
51000,-1.714,-0.728747,2.34474,0
51020,-1.71665,-0.734041,2.34589,0
51040,-1.71893,-0.739065,2.34615,0
51060,-1.72155,-0.744599,2.3462,0
51080,-1.72479,-0.749726,2.3461,0
51100,-1.72689,-0.755022,2.34452,0
51120,-1.72762,-0.760568,2.34319,0
51140,-1.72886,-0.766567,2.34262,0
51160,-1.72973,-0.773136,2.34113,0
51180,-1.7308,-0.77947,2.33813,0
51200,-1.73351,-0.785787,2.3355,0
51220,-1.73549,-0.791971,2.33217,0
51240,-1.73399,-0.797413,2.32678,0
51260,-1.73048,-0.802825,2.32146,0
51280,-1.72832,-0.809135,2.31715,0
51300,-1.72684,-0.815954,2.31213,0
51320,-1.72435,-0.822357,2.30542,0
51340,-1.72146,-0.82845,2.29896,0
51360,-1.71772,-0.834354,2.2923,0
51380,-1.71421,-0.84101,2.28586,0
51400,-1.71073,-0.847042,2.27865,0
51420,-1.7069,-0.852299,2.27078,0
51440,-1.70363,-0.857002,2.26282,0
51460,-1.69888,-0.862234,2.25431,0
51480,-1.69262,-0.867287,2.24551,0
51500,-1.6865,-0.872247,2.23765,0
51520,-1.68065,-0.878,2.22976,0
51540,-1.67399,-0.883865,2.22035,0
51560,-1.66792,-0.889355,2.2101,0
51580,-1.66302,-0.894687,2.19987,0
51600,-1.65816,-0.900033,2.1887,0
51620,-1.65184,-0.904315,2.17601,0
51640,-1.6448,-0.90788,2.16372,0
51660,-1.63792,-0.911654,2.15236,0
51680,-1.63046,-0.916095,2.13996,0
51700,-1.62304,-0.920581,2.12662,0
51720,-1.61743,-0.925034,2.11366,0
51740,-1.61103,-0.929061,2.09922,0
51760,-1.60428,-0.932497,2.08498,0
51780,-1.59772,-0.93607,2.07139,0
51800,-1.58894,-0.94002,2.05653,0
51820,-1.5795,-0.94479,2.04053,0
51840,-1.57076,-0.949564,2.02361,0
51860,-1.56213,-0.953539,2.00615,0
51880,-1.55205,-0.956285,1.9882,0
51900,-1.54029,-0.959236,1.96982,0
51920,-1.52834,-0.962646,1.95134,0
51940,-1.51613,-0.965414,1.93267,0
51960,-1.50375,-0.967594,1.91386,0
51980,-1.49182,-0.969073,1.89398,0
52000,-1.4801,-0.970115,1.87381,0
52020,-1.46675,-0.970096,1.85337,0
52040,-1.45352,-0.97046,1.83359,0
52050,-1.44067,-0.970512,1.81448,0
52070,-1.42817,-0.970196,1.7951,0
52090,-1.41422,-0.969219,1.77442,0
52110,-1.40027,-0.967358,1.75394,0
52130,-1.38741,-0.965592,1.73449,0
52150,-1.3753,-0.963713,1.71669,0
52170,-1.36165,-0.96014,1.6969,0
52190,-1.34772,-0.955608,1.6766,0
52210,-1.33597,-0.950942,1.6594,0
52230,-1.32447,-0.945524,1.6436,0
52250,-1.3119,-0.940448,1.62706,0
52270,-1.29888,-0.934787,1.60965,0
52290,-1.2891,-0.928749,1.59308,0
52310,-1.28108,-0.921428,1.57816,0
52330,-1.27211,-0.913532,1.56415,0
52350,-1.26086,-0.905811,1.55006,0
52370,-1.24965,-0.897883,1.53611,0
52390,-1.24241,-0.889093,1.5235,0
52410,-1.2363,-0.878881,1.51124,0
52430,-1.22909,-0.868534,1.50028,0
52450,-1.21975,-0.859293,1.48963,0
52470,-1.21021,-0.849656,1.47835,0
52490,-1.2028,-0.838672,1.46768,0
52510,-1.19825,-0.82723,1.46054,0
52530,-1.19285,-0.816743,1.45493,0
52550,-1.18448,-0.80908,1.45034,0
52570,-1.17432,-0.803262,1.44548,0
52590,-1.16578,-0.797058,1.43906,0
52610,-1.16199,-0.789385,1.43279,0
52630,-1.16197,-0.779687,1.42832,0
52650,-1.16196,-0.769877,1.42555,0
52670,-1.1592,-0.762057,1.4256,0
52690,-1.15399,-0.755361,1.42571,0
52710,-1.15006,-0.747128,1.42341,0
52730,-1.14956,-0.736836,1.42182,0
52750,-1.15134,-0.725778,1.42255,0
52770,-1.15254,-0.715808,1.42361,0
52790,-1.15223,-0.7066,1.42435,0
52810,-1.15231,-0.69666,1.42525,0
52830,-1.1549,-0.685165,1.42638,0
52850,-1.15741,-0.673443,1.42868,0
52870,-1.15795,-0.662765,1.43129,0
52890,-1.15734,-0.652241,1.43324,0
52910,-1.15793,-0.64239,1.43509,0
52930,-1.16097,-0.632555,1.43736,0
52950,-1.16363,-0.623339,1.44067,0
52970,-1.16582,-0.614998,1.44464,0
52990,-1.16826,-0.608069,1.44876,0
53010,-1.17226,-0.601294,1.45376,0
53030,-1.17752,-0.594956,1.45999,0
53050,-1.18419,-0.58903,1.46721,0
53070,-1.19088,-0.584276,1.47555,0
53090,-1.19771,-0.57933,1.48415,0
53110,-1.20581,-0.57399,1.49246,0
53130,-1.21544,-0.569009,1.5006,0
53150,-1.22493,-0.564683,1.50944,0
53170,-1.23218,-0.560983,1.51817,0
53190,-1.23865,-0.558518,1.52654,0
53210,-1.24482,-0.556132,1.53489,0
53230,-1.25104,-0.553993,1.54329,0
53250,-1.25782,-0.551219,1.55169,0
53270,-1.26505,-0.548052,1.56039,0
53290,-1.27117,-0.545251,1.56885,0
53310,-1.27698,-0.542842,1.57707,0
53330,-1.28273,-0.540139,1.58525,0
53350,-1.28969,-0.536698,1.59432,0
53370,-1.29588,-0.532999,1.60325,0
53390,-1.30176,-0.530451,1.61176,0
53410,-1.30926,-0.527206,1.62057,0
53430,-1.31671,-0.523836,1.62963,0
53450,-1.32254,-0.521855,1.63938,0
53470,-1.32862,-0.520636,1.6492,0
53490,-1.33537,-0.518923,1.65895,0
53510,-1.3439,-0.517718,1.66931,0
53530,-1.35287,-0.516876,1.67978,0
53550,-1.36233,-0.516797,1.69036,0
53570,-1.37164,-0.51673,1.70059,0
53590,-1.3811,-0.51621,1.71081,0
53610,-1.39048,-0.515557,1.72067,0
53630,-1.40039,-0.516255,1.73111,0
53650,-1.40986,-0.516312,1.74097,0
53670,-1.41883,-0.515442,1.75004,0
53690,-1.42758,-0.514834,1.75873,0
53710,-1.43576,-0.513804,1.76732,0
53730,-1.44408,-0.513126,1.77622,0
53750,-1.45031,-0.511976,1.78519,0
53770,-1.4543,-0.510704,1.79338,0
53790,-1.45871,-0.510934,1.80101,0
53810,-1.46434,-0.512195,1.80804,0
53830,-1.47015,-0.512964,1.8159,0
53850,-1.47564,-0.513679,1.82446,0
53870,-1.48106,-0.515403,1.83396,0
53890,-1.48808,-0.517812,1.84367,0
53910,-1.49476,-0.520279,1.85253,0
53930,-1.50196,-0.522143,1.86135,0
53950,-1.5099,-0.524642,1.87065,0
53970,-1.51862,-0.527585,1.88049,0
53990,-1.52674,-0.530537,1.89082,0
54010,-1.53359,-0.533818,1.90188,0
54030,-1.53981,-0.53819,1.91319,0
54050,-1.54875,-0.543412,1.92491,0
54070,-1.56044,-0.547577,1.93643,0
54090,-1.57145,-0.551203,1.94788,0
54110,-1.58058,-0.555118,1.96,0
54130,-1.5898,-0.559607,1.97227,0
54150,-1.60036,-0.563879,1.98459,0
54170,-1.61134,-0.567918,1.99664,0
54190,-1.62079,-0.571867,2.00837,0
54210,-1.62883,-0.57621,2.01957,0
54230,-1.63657,-0.581564,2.03051,0
54250,-1.64471,-0.586873,2.04098,0
54270,-1.6524,-0.591864,2.05071,0
54290,-1.65848,-0.596597,2.06019,0
54310,-1.66398,-0.601387,2.07074,0
54330,-1.67037,-0.607097,2.08158,0
54350,-1.67631,-0.61364,2.09139,0
54370,-1.68233,-0.618374,2.09998,0
54390,-1.6893,-0.622139,2.10862,0
54410,-1.69609,-0.625212,2.11775,0
54430,-1.7014,-0.628342,2.12588,0
54450,-1.70675,-0.631547,2.13407,0
54470,-1.71323,-0.634749,2.14257,0
54490,-1.72007,-0.637854,2.15043,0
54510,-1.72558,-0.640603,2.15696,0
54530,-1.73086,-0.643273,2.1636,0
54550,-1.7365,-0.646479,2.17155,0
54570,-1.74138,-0.651005,2.17972,0
54590,-1.7454,-0.656772,2.1878,0
54610,-1.7505,-0.662851,2.19559,0
54630,-1.75673,-0.66888,2.20223,0
54650,-1.76162,-0.674059,2.20845,0
54670,-1.76566,-0.679472,2.2158,0
54690,-1.7689,-0.685085,2.22334,0
54710,-1.77123,-0.690876,2.22953,0
54730,-1.77341,-0.696463,2.23571,0
54750,-1.77624,-0.70194,2.24202,0
54770,-1.77898,-0.707463,2.24712,0
54790,-1.78176,-0.712518,2.2514,0
54810,-1.78462,-0.717183,2.25572,0
54830,-1.78764,-0.721035,2.25965,0
54850,-1.78891,-0.724478,2.26259,0
54870,-1.78929,-0.728519,2.26572,0
54890,-1.79039,-0.732862,2.26863,0
54910,-1.79216,-0.737204,2.27024,0
54930,-1.79253,-0.740912,2.27027,0
54950,-1.7924,-0.743718,2.27113,0
54970,-1.79162,-0.747481,2.27221,0
54990,-1.79015,-0.751895,2.27284,0
55010,-1.78992,-0.756911,2.2733,0
55030,-1.7923,-0.762265,2.27319,0
55050,-1.79496,-0.767079,2.27197,0
55070,-1.79608,-0.771021,2.27077,0
55090,-1.79631,-0.774705,2.27071,0
55110,-1.79499,-0.77904,2.27096,0
55130,-1.79424,-0.783828,2.27166,0
55150,-1.79483,-0.787953,2.27174,0
55170,-1.79537,-0.791159,2.27178,0
55190,-1.79519,-0.794367,2.27232,0
55210,-1.79551,-0.79814,2.2738,0
55230,-1.79756,-0.802114,2.27614,0
55250,-1.79992,-0.806268,2.27875,0
55270,-1.80198,-0.810655,2.28172,0
55290,-1.80405,-0.816094,2.28557,0
55310,-1.80835,-0.822371,2.29052,0
55330,-1.81299,-0.827983,2.29526,0
55350,-1.81827,-0.83353,2.30078,0
55370,-1.82389,-0.838679,2.30668,0
55390,-1.82958,-0.842773,2.31369,0
55410,-1.83401,-0.846715,2.32108,0
55430,-1.83779,-0.851427,2.32821,0
55450,-1.84374,-0.85674,2.33567,0
55470,-1.85136,-0.862859,2.34327,0
55480,-1.85904,-0.868131,2.35007,0
55500,-1.86604,-0.873118,2.35589,0
55520,-1.87091,-0.878052,2.3607,0
55540,-1.87564,-0.882624,2.36641,0
55560,-1.87956,-0.887057,2.37105,0
55580,-1.88147,-0.890079,2.37323,0
55600,-1.88241,-0.892438,2.37429,0
55620,-1.88408,-0.894731,2.37577,0
55640,-1.88452,-0.896704,2.3758,0
55660,-1.88452,-0.898734,2.37508,1001
55680,-1.88257,-0.900332,2.37309,0
55700,-1.88172,-0.902354,2.37168,0
55720,-1.88141,-0.904675,2.37028,0
55740,-1.88179,-0.906431,2.36899,0
55760,-1.8815,-0.908266,2.36726,0
55780,-1.88029,-0.909944,2.36589,0
55800,-1.87889,-0.911731,2.36485,0
55820,-1.87641,-0.912719,2.36318,0
55840,-1.87441,-0.91494,2.36351,0
55860,-1.87435,-0.919904,2.36972,0
55880,-1.87656,-0.922812,2.36869,0
55900,-1.87732,-0.925317,2.36199,0
55920,-1.87148,-0.928643,2.35952,0
55940,-1.86203,-0.928548,2.36114,0
55960,-1.8601,-0.929551,2.36456,0
55980,-1.86365,-0.932917,2.36586,0
56000,-1.86708,-0.934295,2.36433,0
56020,-1.87006,-0.934074,2.36382,0
56040,-1.8737,-0.933965,2.3658,0
56060,-1.87721,-0.933544,2.36765,0
56080,-1.88144,-0.933115,2.37008,0
56100,-1.88606,-0.932844,2.37209,0
56120,-1.89052,-0.932767,2.37301,0
56140,-1.89577,-0.933169,2.37435,0
56160,-1.90178,-0.933411,2.37634,0
56180,-1.90525,-0.932427,2.37652,0
56200,-1.90647,-0.930189,2.37586,0
56220,-1.90503,-0.92706,2.37355,0
56240,-1.90275,-0.924124,2.36991,0
56260,-1.89942,-0.921745,2.36556,0
56280,-1.89148,-0.919047,2.35736,0
56300,-1.87949,-0.916493,2.34582,0
56320,-1.86795,-0.913481,2.33464,0
56340,-1.85457,-0.910055,2.3219,0
56360,-1.83571,-0.905741,2.30462,0
56380,-1.81119,-0.901331,2.28507,0
56400,-1.78525,-0.895993,2.26467,0
56420,-1.75664,-0.887251,2.24032,0
56440,-1.71999,-0.874417,2.21012,0
56460,-1.67752,-0.85988,2.17878,0
56480,-1.63787,-0.849392,2.1542,0
56500,-1.59997,-0.840596,2.12954,0
56520,-1.56226,-0.83053,2.0994,0
56540,-1.52392,-0.816559,2.06557,0
56560,-1.48529,-0.800858,2.03614,0
56580,-1.44669,-0.784468,2.01156,0
56600,-1.40847,-0.767331,1.98796,0
56620,-1.37344,-0.749988,1.96618,0
56640,-1.33851,-0.731617,1.94462,0
56660,-1.30696,-0.71055,1.92451,0
56680,-1.28247,-0.688247,1.91118,0
56700,-1.26359,-0.668772,1.90564,0
56720,-1.2439,-0.651879,1.89998,0
56740,-1.22521,-0.633105,1.89288,0
56760,-1.21243,-0.615218,1.88916,0
56780,-1.20494,-0.600124,1.88871,0
56800,-1.19982,-0.584693,1.88921,0
56820,-1.1969,-0.568402,1.89064,0
56840,-1.19685,-0.5535,1.89399,0
56860,-1.19629,-0.539507,1.89649,0
56880,-1.19577,-0.525072,1.89825,0
56900,-1.19491,-0.511055,1.89976,0
56920,-1.19517,-0.497368,1.9016,0
56940,-1.19629,-0.483859,1.90323,0
56960,-1.19676,-0.470768,1.90491,0
56980,-1.1956,-0.457888,1.90681,0
57000,-1.19399,-0.44737,1.90821,0
57020,-1.19355,-0.438105,1.90962,0
57040,-1.19439,-0.428729,1.91239,0
57060,-1.19496,-0.420544,1.91583,0
57080,-1.19398,-0.41375,1.91903,0
57100,-1.19351,-0.407434,1.92269,0
57120,-1.19345,-0.402507,1.92631,0
57140,-1.19392,-0.399035,1.92921,0
57160,-1.19413,-0.395484,1.93101,0
57180,-1.19429,-0.391663,1.93293,0
57200,-1.19434,-0.388398,1.93529,0
57220,-1.19313,-0.385447,1.93741,0
57240,-1.19068,-0.382574,1.93951,0
57260,-1.18824,-0.380456,1.9419,0
57280,-1.1867,-0.379238,1.94427,0
57300,-1.18601,-0.378051,1.94627,0
57320,-1.18571,-0.37653,1.9485,0
57340,-1.18519,-0.375283,1.95148,0
57360,-1.18387,-0.374642,1.95462,0
57380,-1.18338,-0.374261,1.95716,0
57400,-1.18387,-0.373667,1.9593,0
57420,-1.18514,-0.372629,1.96207,0
57440,-1.1865,-0.371434,1.96524,0
57460,-1.18643,-0.370262,1.96787,0
57470,-1.18639,-0.369416,1.97093,0
57490,-1.1872,-0.368595,1.974,0
57510,-1.18802,-0.367647,1.97656,0
57530,-1.18871,-0.366479,1.9786,0
57550,-1.18967,-0.365752,1.9807,0
57570,-1.19045,-0.364734,1.9829,0
57590,-1.19013,-0.363583,1.98506,0
57610,-1.18875,-0.362245,1.98704,1000
57630,-1.18733,-0.362045,1.98909,0
57650,-1.18683,-0.362876,1.99131,0
57670,-1.1872,-0.364014,1.99328,0
57690,-1.18679,-0.364836,1.99446,0
57710,-1.18631,-0.36565,1.99542,0
57730,-1.18638,-0.366338,1.99654,0
57750,-1.18693,-0.366797,1.99777,0
57770,-1.18722,-0.3674,1.99902,0
57790,-1.18698,-0.368093,1.99984,0
57810,-1.18721,-0.36808,1.99993,0
57830,-1.18817,-0.367875,2.00019,0
57850,-1.1891,-0.366983,2.0007,0
57870,-1.18929,-0.366431,2.00185,0
57890,-1.18964,-0.365691,2.00307,0
57910,-1.19066,-0.364328,2.00338,0
57930,-1.19286,-0.363753,2.00358,0
57950,-1.19389,-0.364014,2.0042,0
57970,-1.19405,-0.363974,2.00506,0
57990,-1.19411,-0.363692,2.00553,0
58010,-1.195,-0.363478,2.00557,0
58030,-1.1961,-0.363599,2.0056,0
58050,-1.19686,-0.363423,2.00517,0
58070,-1.19715,-0.363128,2.00475,0
58090,-1.19761,-0.362791,2.00519,0
58110,-1.19703,-0.362322,2.00553,0
58130,-1.19613,-0.362465,2.00553,0
58150,-1.1958,-0.363989,2.00587,0
58170,-1.19592,-0.365432,2.00671,0
58190,-1.19595,-0.366597,2.00787,0
58210,-1.1959,-0.368251,2.00952,0
58230,-1.19558,-0.369248,2.01074,0
58250,-1.19497,-0.369355,2.01234,0
58270,-1.1944,-0.369644,2.01445,0
58290,-1.19474,-0.371086,2.01685,0
58310,-1.19486,-0.372007,2.01818,0
58330,-1.19548,-0.372471,2.01924,0
58350,-1.19708,-0.373213,2.0204,0
58370,-1.19743,-0.373496,2.02145,0
58390,-1.19709,-0.374486,2.02288,0
58410,-1.19673,-0.37581,2.02392,0
58430,-1.19645,-0.376953,2.0241,0
58450,-1.19734,-0.377756,2.02399,0
58460,-1.19842,-0.378679,2.02408,0
58480,-1.19881,-0.379687,2.02418,0
58500,-1.19871,-0.380732,2.02467,0
58520,-1.19819,-0.381437,2.0252,0
58540,-1.19848,-0.381944,2.02523,0
58560,-1.20048,-0.382255,2.02519,0
58580,-1.20243,-0.382609,2.02491,0
58600,-1.20338,-0.383004,2.02574,0
58620,-1.20301,-0.383377,2.02738,0
58640,-1.20197,-0.383998,2.02925,0
58660,-1.20217,-0.384986,2.03098,0
58680,-1.20446,-0.386029,2.03283,0
58700,-1.20673,-0.386671,2.03569,0
58720,-1.20746,-0.386223,2.03976,0
58740,-1.20779,-0.385423,2.04547,0
58760,-1.20857,-0.385022,2.05174,0
58780,-1.21058,-0.384072,2.05754,0
58800,-1.21513,-0.382619,2.06312,0
58820,-1.21942,-0.380565,2.06862,0
58840,-1.22178,-0.379181,2.07458,0
58860,-1.22229,-0.379322,2.08,0
58880,-1.22199,-0.380586,2.08434,0
58900,-1.22185,-0.38211,2.08731,0
58920,-1.22283,-0.384156,2.08959,0
58940,-1.22429,-0.385876,2.09202,0
58960,-1.22504,-0.387638,2.09457,0
58980,-1.22359,-0.389794,2.09645,0
59000,-1.22268,-0.392481,2.09806,0
59020,-1.2242,-0.394576,2.09962,0
59040,-1.22784,-0.39632,2.1012,0
59060,-1.2297,-0.397998,2.10291,0
59080,-1.22967,-0.400498,2.10473,0
59100,-1.22958,-0.404016,2.10641,0
59120,-1.23027,-0.408485,2.10769,0
59140,-1.23192,-0.413183,2.10899,0
59160,-1.23335,-0.417781,2.10948,0
59180,-1.2334,-0.42341,2.10977,0
59200,-1.23186,-0.429791,2.11063,0
59220,-1.2318,-0.436207,2.11222,0
59240,-1.23303,-0.442166,2.11313,0
59260,-1.23442,-0.447675,2.11323,0
59280,-1.23416,-0.453745,2.11265,0
59300,-1.23429,-0.460829,2.11407,0
59320,-1.23391,-0.468749,2.11644,0
59340,-1.23358,-0.475947,2.11829,0
59360,-1.23434,-0.483123,2.11886,0
59380,-1.23534,-0.490226,2.11798,0
59400,-1.23728,-0.496958,2.11767,0
59420,-1.23782,-0.50332,2.11843,0
59440,-1.2376,-0.510055,2.12077,0
59460,-1.23636,-0.517319,2.12186,0
59480,-1.23693,-0.524718,2.1218,0
59500,-1.23979,-0.531574,2.12248,0
59520,-1.24465,-0.538107,2.12449,0
59540,-1.24802,-0.544278,2.12711,0
59560,-1.24988,-0.550162,2.13046,0
59580,-1.25327,-0.555243,2.13404,0
59600,-1.25817,-0.559708,2.13746,0
59620,-1.26265,-0.563603,2.14005,0
59640,-1.26556,-0.56637,2.14248,0
59660,-1.26794,-0.568302,2.14553,0
59680,-1.26965,-0.570632,2.14794,0
59700,-1.27065,-0.573151,2.14883,0
59720,-1.27115,-0.575561,2.14877,0
59740,-1.2726,-0.577747,2.14918,0
59760,-1.27314,-0.58035,2.14882,0
59780,-1.2729,-0.582922,2.14776,0
59800,-1.2724,-0.585661,2.1469,0
59820,-1.27268,-0.588383,2.14631,0
59840,-1.27308,-0.591159,2.14482,0
59860,-1.27346,-0.594242,2.14279,0
59880,-1.27339,-0.597777,2.1409,0
59900,-1.27424,-0.601529,2.13984,0
59920,-1.27495,-0.605158,2.13809,0
59940,-1.27637,-0.6083,2.13563,0
59960,-1.27715,-0.611052,2.13246,0
59980,-1.27794,-0.61388,2.12955,0
60000,-1.27876,-0.617076,2.12674,0
60020,-1.28011,-0.620574,2.12377,0
60040,-1.28183,-0.623767,2.12031,0
60060,-1.28279,-0.626478,2.11609,0
60080,-1.28305,-0.628986,2.11102,0
60100,-1.28356,-0.63164,2.10553,0
60120,-1.28416,-0.634102,2.0994,0
60140,-1.28456,-0.636907,2.09264,0
60160,-1.28432,-0.6392,2.0855,0
60180,-1.28456,-0.641331,2.07858,0
60200,-1.28472,-0.64381,2.07113,0
60220,-1.2839,-0.646352,2.06279,0
60240,-1.28326,-0.648366,2.05457,0
60260,-1.28313,-0.650615,2.04722,0
60280,-1.28305,-0.652836,2.03954,0
60300,-1.28248,-0.654974,2.0309,0
60320,-1.28157,-0.656805,2.02251,0
60340,-1.27937,-0.659307,2.01468,0
60360,-1.2767,-0.662308,2.00702,0
60380,-1.2746,-0.664886,1.99952,0
60400,-1.2722,-0.666762,1.99155,0
60420,-1.26925,-0.668132,1.9835,0
60440,-1.26545,-0.668898,1.9759,0
60460,-1.26259,-0.67011,1.96987,0
60480,-1.26043,-0.672078,1.96354,0
60500,-1.25868,-0.673826,1.95581,0
60520,-1.25746,-0.675433,1.94757,0
60540,-1.25534,-0.676354,1.93959,0
60560,-1.25239,-0.677429,1.93179,0
60580,-1.24952,-0.678817,1.92383,0
60600,-1.24643,-0.681056,1.91487,0
60620,-1.24412,-0.683497,1.906,0
60640,-1.24236,-0.685575,1.89643,0
60660,-1.24042,-0.686826,1.88673,0
60680,-1.2377,-0.687548,1.87736,0
60700,-1.23366,-0.688326,1.86868,0
60720,-1.23016,-0.689344,1.8602,0
60740,-1.22882,-0.690332,1.8519,0
60760,-1.22941,-0.690424,1.84325,0
60780,-1.22934,-0.689758,1.83418,0
60800,-1.22822,-0.689016,1.82569,0
60820,-1.22698,-0.688641,1.81769,0
60840,-1.22554,-0.688711,1.80867,0
60860,-1.22503,-0.688846,1.79888,0
60880,-1.2255,-0.688825,1.78921,0
60890,-1.22502,-0.688629,1.77963,0
60910,-1.22396,-0.688824,1.7699,0
60930,-1.22248,-0.689071,1.75957,0
60950,-1.22158,-0.689471,1.74882,0
60970,-1.22073,-0.689907,1.73814,0
60990,-1.2188,-0.690224,1.7274,0
61010,-1.21667,-0.690451,1.71736,0
61030,-1.21459,-0.691323,1.70711,0
61050,-1.21243,-0.692157,1.69697,0
61070,-1.21026,-0.692745,1.68767,0
61090,-1.2089,-0.692938,1.67991,0
61110,-1.20777,-0.693049,1.67161,0
61130,-1.20683,-0.692229,1.66273,0
61150,-1.20582,-0.689962,1.65522,0
61170,-1.20443,-0.687524,1.64881,0
61190,-1.20195,-0.685456,1.64146,0
61210,-1.20032,-0.683592,1.63267,0
61230,-1.19926,-0.681044,1.62367,0
61250,-1.1984,-0.677876,1.61521,0
61270,-1.19705,-0.674759,1.60674,0
61290,-1.195,-0.672039,1.59772,0
61310,-1.19256,-0.669331,1.58811,0
61330,-1.19019,-0.666565,1.57818,0
61350,-1.1887,-0.663693,1.56982,0
61370,-1.18704,-0.660714,1.5618,0
61390,-1.18513,-0.657412,1.55314,0
61410,-1.18451,-0.653159,1.5438,0
61430,-1.18482,-0.648836,1.53511,0
61450,-1.1854,-0.644465,1.52774,0
61470,-1.18603,-0.640389,1.52089,0
61490,-1.18643,-0.636615,1.51368,0
61510,-1.18671,-0.633113,1.50572,0
61530,-1.18757,-0.62916,1.49866,0
61550,-1.18889,-0.625677,1.49231,0
61570,-1.18919,-0.622301,1.48493,0
61590,-1.1891,-0.618895,1.47646,0
61610,-1.18903,-0.615155,1.46803,0
61630,-1.18967,-0.611686,1.46097,0
61650,-1.18919,-0.608734,1.45422,0
61670,-1.18796,-0.605937,1.44689,0
61690,-1.18792,-0.603242,1.43927,0
61710,-1.18976,-0.599932,1.43179,0
61730,-1.19236,-0.596193,1.42509,0
61750,-1.19428,-0.592146,1.41919,0
61770,-1.19457,-0.588321,1.41272,0
61790,-1.19523,-0.583892,1.40604,0
61810,-1.19803,-0.579344,1.40022,0
61830,-1.2007,-0.574673,1.39467,0
61850,-1.20183,-0.570746,1.38909,0
61870,-1.20118,-0.566732,1.3834,0
61890,-1.20168,-0.563029,1.37805,0
61910,-1.2033,-0.558106,1.37208,0
61930,-1.2041,-0.551358,1.36546,0
61950,-1.20315,-0.544557,1.36025,0
61970,-1.20095,-0.53849,1.35642,0
61990,-1.19975,-0.532932,1.35218,0
62010,-1.2,-0.525913,1.34725,0
62030,-1.20112,-0.518596,1.34248,0
62050,-1.2015,-0.511157,1.33885,0
62070,-1.20172,-0.505107,1.3366,0
62090,-1.20167,-0.500027,1.33364,0
62110,-1.20144,-0.495634,1.33056,0
62130,-1.20189,-0.491316,1.32805,0
62150,-1.20249,-0.487342,1.32557,0
62170,-1.20243,-0.483552,1.32292,0
62190,-1.20181,-0.47987,1.32082,0
62210,-1.20098,-0.476261,1.31931,0
62230,-1.20113,-0.472998,1.31826,0
62250,-1.20206,-0.469945,1.31728,0
62270,-1.20327,-0.466441,1.31658,0
62290,-1.20471,-0.463204,1.3166,0
62310,-1.20559,-0.460025,1.31729,0
62330,-1.20588,-0.457571,1.31838,0
62350,-1.20674,-0.455655,1.31931,0
62370,-1.20828,-0.453328,1.31971,0
62390,-1.20945,-0.450339,1.32016,0
62410,-1.20981,-0.447454,1.32175,0
62430,-1.20999,-0.445215,1.32425,0
62450,-1.2099,-0.443238,1.32649,0
62470,-1.21042,-0.441531,1.32892,0
62490,-1.21174,-0.439698,1.33174,0
62510,-1.21373,-0.438016,1.33523,0
62530,-1.21612,-0.436183,1.33922,0
62550,-1.21793,-0.4349,1.34293,0
62570,-1.219,-0.433129,1.34632,0
62590,-1.22097,-0.431305,1.35063,0
62610,-1.22252,-0.430321,1.35479,0
62630,-1.22356,-0.429222,1.35845,0
62650,-1.22434,-0.427891,1.36196,0
62670,-1.22525,-0.426286,1.36573,0
62690,-1.22708,-0.42561,1.37016,0
62710,-1.22895,-0.425225,1.374,0
62730,-1.23027,-0.424404,1.37732,0
62750,-1.23149,-0.423017,1.38076,0
62770,-1.23339,-0.422424,1.38414,0
62790,-1.2353,-0.420944,1.38715,0
62810,-1.23735,-0.418369,1.39005,0
62830,-1.23873,-0.414342,1.39287,0
62850,-1.23983,-0.411064,1.39569,0
62870,-1.24032,-0.408916,1.39775,0
62880,-1.24093,-0.405941,1.39934,0
62900,-1.24118,-0.402689,1.40089,0
62920,-1.24072,-0.400133,1.40265,0
62940,-1.24014,-0.398434,1.40465,0
62960,-1.2409,-0.397008,1.40674,0
62980,-1.24207,-0.395568,1.40861,0
63000,-1.24293,-0.394019,1.41071,0
63020,-1.24291,-0.39184,1.41311,0
63040,-1.24371,-0.390324,1.41628,0
63060,-1.24529,-0.388614,1.41963,0
63080,-1.24628,-0.386427,1.42295,0
63100,-1.24782,-0.383951,1.42714,0
63120,-1.24935,-0.381896,1.4312,0
63140,-1.24983,-0.379831,1.43547,0
63160,-1.24986,-0.378281,1.44032,0
63180,-1.25042,-0.376984,1.44547,0
63200,-1.25162,-0.375821,1.45053,0
63220,-1.25276,-0.3743,1.45534,0
63240,-1.25487,-0.372885,1.4607,0
63260,-1.25668,-0.371442,1.46555,0
63280,-1.25762,-0.369867,1.4705,0
63300,-1.2588,-0.368874,1.47597,0
63320,-1.25982,-0.367822,1.48107,0
63340,-1.2611,-0.36692,1.48631,0
63360,-1.26306,-0.366387,1.49147,0
63380,-1.26457,-0.365887,1.49651,0
63400,-1.26581,-0.365306,1.5019,0
63420,-1.2679,-0.364793,1.50773,0
63440,-1.27017,-0.363941,1.51345,0
63460,-1.2719,-0.362485,1.51901,0
63480,-1.2743,-0.36106,1.52523,0
63500,-1.27694,-0.360002,1.53187,0
63520,-1.27978,-0.358596,1.53929,0
63540,-1.28245,-0.357328,1.54684,0
63560,-1.28383,-0.356469,1.55413,0
63580,-1.2857,-0.355971,1.56147,0
63600,-1.28846,-0.355854,1.56901,0
63620,-1.2915,-0.355864,1.57672,0
63640,-1.29431,-0.356197,1.58459,0
63660,-1.29583,-0.356487,1.59193,0
63680,-1.2976,-0.356901,1.59982,0
63700,-1.29989,-0.358007,1.60794,0
63720,-1.3015,-0.359264,1.61569,0
63740,-1.30345,-0.360392,1.624,0
63760,-1.30554,-0.361273,1.63248,0
63780,-1.30784,-0.362543,1.64038,0
63800,-1.31057,-0.363257,1.64855,0
63820,-1.31383,-0.363055,1.65726,0
63840,-1.31655,-0.362861,1.6664,0
63860,-1.31931,-0.363735,1.67565,0
63880,-1.3222,-0.36462,1.68429,0
63900,-1.32546,-0.365187,1.69323,0
63920,-1.328,-0.366004,1.70292,0
63940,-1.3304,-0.367302,1.71283,0
63960,-1.33205,-0.368309,1.72245,0
63980,-1.33392,-0.369038,1.73212,0
64000,-1.33744,-0.370581,1.74213,0
64020,-1.34089,-0.371425,1.75188,0
64040,-1.34446,-0.3725,1.76213,0
64060,-1.34842,-0.373915,1.77284,0
64080,-1.35376,-0.375993,1.78332,0
64100,-1.35865,-0.37761,1.79311,0
64120,-1.36431,-0.378924,1.80294,0
64140,-1.3706,-0.379093,1.81272,0
64160,-1.37526,-0.378822,1.82213,0
64180,-1.37886,-0.379286,1.83133,0
64200,-1.38244,-0.378733,1.84014,0
64220,-1.38642,-0.378307,1.849,0
64240,-1.39127,-0.378381,1.85823,0
64260,-1.39583,-0.378687,1.86724,0
64280,-1.40136,-0.379431,1.87695,0
64300,-1.40819,-0.380673,1.88722,0
64320,-1.41361,-0.381879,1.89718,0
64340,-1.41922,-0.383859,1.90782,0
64360,-1.42524,-0.387161,1.91843,0
64380,-1.43176,-0.390803,1.92925,0
64400,-1.43737,-0.394695,1.93979,0
64420,-1.44292,-0.400075,1.95104,0
64440,-1.449,-0.406006,1.9621,0
64460,-1.45463,-0.411915,1.97321,0
64480,-1.45948,-0.417855,1.98437,0
64500,-1.46582,-0.424981,1.99619,0
64520,-1.47321,-0.43378,2.00798,0
64540,-1.47961,-0.442471,2.01893,0
64560,-1.48567,-0.45052,2.02984,0
64580,-1.49205,-0.458548,2.04062,0
64600,-1.49793,-0.466805,2.05126,0
64620,-1.50387,-0.474589,2.06288,0
64640,-1.5087,-0.482635,2.07399,0
64660,-1.51323,-0.491139,2.08416,0
64680,-1.51965,-0.499633,2.09424,0
64700,-1.52731,-0.507693,2.1041,0
64720,-1.53448,-0.514544,2.11366,0
64740,-1.5401,-0.521657,2.12328,0
64760,-1.54389,-0.529295,2.13216,0
64780,-1.54807,-0.537145,2.1408,0
64800,-1.55457,-0.545081,2.14936,0
64820,-1.56242,-0.553016,2.15737,0
64840,-1.56804,-0.560273,2.16362,0
64860,-1.57195,-0.566616,2.16891,0
64880,-1.57566,-0.573011,2.17509,0
64900,-1.58039,-0.580309,2.18175,0
64920,-1.58391,-0.587161,2.18651,0
64940,-1.58612,-0.593755,2.1904,0
64960,-1.58812,-0.600868,2.19408,0
64980,-1.59074,-0.60838,2.1972,0
65000,-1.59432,-0.615122,2.20051,0
65020,-1.59664,-0.620533,2.20244,0
65040,-1.59787,-0.625976,2.2039,0
65060,-1.59882,-0.631445,2.20444,0
65080,-1.60073,-0.637628,2.20483,0
65100,-1.6032,-0.644415,2.20462,0
65120,-1.60666,-0.651046,2.20256,0
65140,-1.61063,-0.65783,2.19853,0
65160,-1.61312,-0.663332,2.19212,0
65180,-1.61464,-0.668903,2.18562,0
65200,-1.61508,-0.674399,2.17939,0
65220,-1.61446,-0.680101,2.17309,0
65240,-1.61287,-0.685945,2.16625,0
65260,-1.61136,-0.692615,2.1573,0
65270,-1.60964,-0.699778,2.14763,0
65290,-1.60877,-0.706978,2.13875,0
65310,-1.6078,-0.713849,2.12945,0
65330,-1.60621,-0.720876,2.11909,0
65350,-1.60271,-0.728616,2.10802,0
65370,-1.60042,-0.736757,2.09708,0
65390,-1.60072,-0.745055,2.08675,0
65410,-1.60109,-0.752321,2.07501,0
65430,-1.59884,-0.759978,2.06097,0
65450,-1.59523,-0.76819,2.04611,0
65470,-1.59146,-0.776019,2.0318,0
65490,-1.58781,-0.783675,2.01709,0
65510,-1.58407,-0.791003,2.00086,0
65530,-1.58005,-0.797933,1.9837,0
65550,-1.57614,-0.805385,1.96766,0
65570,-1.57152,-0.813319,1.95098,0
65590,-1.56794,-0.821575,1.93364,0
65610,-1.56518,-0.828398,1.91465,0
65630,-1.56036,-0.833614,1.89466,0
65650,-1.55365,-0.838695,1.87544,0
65670,-1.54679,-0.844447,1.85654,0
65690,-1.53993,-0.850261,1.83654,0
65710,-1.53363,-0.855582,1.81561,0
65730,-1.52695,-0.86076,1.79341,0
65750,-1.51794,-0.865051,1.77075,0
65770,-1.50894,-0.869058,1.74933,0
65790,-1.49908,-0.872638,1.72682,0
65810,-1.48868,-0.875511,1.70329,0
65830,-1.47734,-0.87776,1.67949,0
65850,-1.46515,-0.879602,1.65635,0
65870,-1.45221,-0.882084,1.63412,0
65890,-1.43863,-0.884733,1.61254,0
65910,-1.4259,-0.88705,1.59127,0
65930,-1.41476,-0.888199,1.57045,0
65950,-1.40367,-0.885846,1.54914,0
65970,-1.39105,-0.88216,1.52953,0
65990,-1.37793,-0.878492,1.51255,0
66010,-1.36465,-0.874792,1.49522,0
66030,-1.35299,-0.870157,1.47704,0
66050,-1.34354,-0.862778,1.45836,0
66070,-1.33388,-0.853626,1.44086,0
66090,-1.32088,-0.843534,1.42492,0
66110,-1.30553,-0.833849,1.40967,0
66130,-1.29115,-0.823314,1.39337,0
66150,-1.27889,-0.809863,1.37626,0
66170,-1.26792,-0.794087,1.36215,0
66190,-1.259,-0.777269,1.35253,0
66210,-1.25136,-0.76094,1.34352,0
66230,-1.24578,-0.743807,1.33394,0
66250,-1.24296,-0.724708,1.32468,0
66270,-1.24006,-0.703795,1.31798,0
66290,-1.2367,-0.683845,1.3147,0
66300,-1.23446,-0.666881,1.31201,0
66320,-1.23376,-0.650497,1.30892,0
66340,-1.23394,-0.634324,1.30679,0
66360,-1.23311,-0.619231,1.30673,0
66380,-1.231,-0.606028,1.30799,0
66400,-1.22748,-0.5945,1.30813,0
66420,-1.22524,-0.583321,1.3079,0
66440,-1.22478,-0.57194,1.30946,0
66460,-1.22542,-0.561238,1.31321,0
66480,-1.22473,-0.551014,1.31813,0
66500,-1.2232,-0.542189,1.32397,0
66520,-1.22319,-0.534337,1.33145,0
66540,-1.22607,-0.526631,1.33886,0
66560,-1.22925,-0.51841,1.347,0
66580,-1.23271,-0.510808,1.35654,0
66600,-1.23478,-0.503855,1.3675,0
66620,-1.23749,-0.49787,1.3786,0
66640,-1.24336,-0.492436,1.38975,0
66660,-1.24975,-0.486027,1.40127,0
66680,-1.25572,-0.479508,1.41372,0
66700,-1.2612,-0.472458,1.42634,0
66720,-1.267,-0.46643,1.43906,0
66740,-1.26959,-0.461863,1.45117,0
66760,-1.27047,-0.458668,1.46336,0
66780,-1.27489,-0.456197,1.47712,0
66800,-1.28167,-0.453614,1.49205,0
66820,-1.28722,-0.452173,1.5065,0
66840,-1.29278,-0.451527,1.52071,0
66860,-1.29984,-0.450891,1.53541,0
66880,-1.30609,-0.449086,1.5495,0
66900,-1.3122,-0.44681,1.56359,0
66920,-1.31965,-0.444924,1.57767,0
66940,-1.32568,-0.442277,1.59134,0
66960,-1.33066,-0.439366,1.60493,0
66980,-1.33726,-0.437991,1.61774,0
67000,-1.34567,-0.435924,1.62964,0
67020,-1.3524,-0.432042,1.64108,0
67040,-1.35627,-0.428899,1.65343,0
67060,-1.36192,-0.426909,1.66603,0
67080,-1.37006,-0.424632,1.67823,0
67100,-1.37777,-0.421976,1.69027,0
67120,-1.3856,-0.419815,1.70301,0
67140,-1.39514,-0.41818,1.71637,0
67150,-1.4039,-0.41693,1.72954,0
67170,-1.41111,-0.417102,1.74175,0
67190,-1.41834,-0.416924,1.75411,0
67210,-1.42455,-0.416311,1.76823,0
67230,-1.42985,-0.418308,1.78469,0
67250,-1.43488,-0.423432,1.80083,0
67270,-1.44082,-0.429822,1.81654,0
67290,-1.44938,-0.435743,1.83397,0
67310,-1.46094,-0.442618,1.85437,0
67330,-1.47474,-0.451434,1.8761,0
67350,-1.48778,-0.461728,1.89623,0
67370,-1.50002,-0.472523,1.91495,0
67390,-1.51459,-0.483193,1.93435,0
67410,-1.53033,-0.493644,1.9544,0
67430,-1.54363,-0.503778,1.97327,0
67450,-1.5537,-0.514626,1.99077,0
67470,-1.56284,-0.527404,2.00744,0
67490,-1.57233,-0.539673,2.02341,0
67510,-1.58221,-0.551202,2.03818,0
67530,-1.59079,-0.563799,2.05201,0
67550,-1.59744,-0.576433,2.06535,0
67570,-1.60352,-0.587849,2.07862,0
67590,-1.60985,-0.598945,2.09356,0
67610,-1.61804,-0.611295,2.1095,0
67630,-1.62647,-0.624481,2.1236,0
67650,-1.63692,-0.636818,2.13555,0
67670,-1.65015,-0.648297,2.14782,0
67690,-1.66382,-0.658274,2.16062,0
67710,-1.67453,-0.667485,2.17171,0
67730,-1.68171,-0.677031,2.18195,0
67750,-1.6906,-0.687176,2.19394,0
67770,-1.70048,-0.696868,2.20515,0
67790,-1.71062,-0.706598,2.21477,0
67810,-1.7199,-0.716388,2.22155,0
67830,-1.72865,-0.725719,2.22728,0
67850,-1.73632,-0.733956,2.23293,0
67870,-1.74223,-0.742231,2.23839,0
67890,-1.7471,-0.750407,2.24291,0
67910,-1.75052,-0.759022,2.2456,0
67930,-1.75225,-0.769005,2.24725,0
67950,-1.75454,-0.779959,2.24836,0
67970,-1.75809,-0.790767,2.24865,0
67990,-1.76158,-0.80102,2.24697,0
68010,-1.76354,-0.810605,2.24426,0
68030,-1.76296,-0.819885,2.24047,0
68050,-1.76017,-0.829741,2.2355,0
68070,-1.75841,-0.839711,2.23004,0
68090,-1.75796,-0.849552,2.22291,0
68110,-1.75472,-0.859186,2.21333,0
68130,-1.74906,-0.868784,2.20251,0
68150,-1.74415,-0.878065,2.19052,0
68170,-1.7373,-0.887524,2.17614,0
68190,-1.72897,-0.896617,2.1615,0
68210,-1.71821,-0.905515,2.14443,0
68230,-1.70475,-0.915429,2.12448,0
68250,-1.68959,-0.926602,2.10255,0
68270,-1.67038,-0.938407,2.07752,0
68280,-1.64849,-0.949793,2.05061,0
68300,-1.62703,-0.960199,2.02396,0
68320,-1.60752,-0.969929,1.99764,0
68340,-1.58475,-0.97828,1.96783,0
68360,-1.55881,-0.985216,1.93607,0
68380,-1.53443,-0.991547,1.90557,0
68400,-1.51157,-0.997599,1.87523,0
68420,-1.48817,-1.00285,1.8434,0
68440,-1.46267,-1.0067,1.80795,0
68460,-1.436,-1.00937,1.77267,0
68480,-1.40943,-1.01018,1.73886,0
68500,-1.38314,-1.01047,1.70637,0
68520,-1.35701,-1.01065,1.67468,0
68540,-1.33128,-1.01004,1.64188,0
68560,-1.30387,-1.00634,1.60537,0
68580,-1.277,-1.00117,1.56954,0
68600,-1.25034,-0.994889,1.53733,0
68620,-1.22526,-0.987637,1.50982,0
68640,-1.20051,-0.979506,1.48206,0
68660,-1.17702,-0.97035,1.45404,0
68680,-1.15757,-0.959876,1.42819,0
68700,-1.13928,-0.947715,1.4054,0
68720,-1.12218,-0.935184,1.38591,0
68740,-1.10664,-0.922589,1.36688,0
68760,-1.09281,-0.90921,1.34676,0
68780,-1.08281,-0.892963,1.32973,0
68800,-1.0749,-0.876893,1.31874,0
68820,-1.06639,-0.861588,1.31054,0
68840,-1.05717,-0.846731,1.30135,0
68860,-1.04944,-0.831515,1.29024,0
68880,-1.04589,-0.815704,1.28108,0
68900,-1.04293,-0.799517,1.27354,0
68920,-1.03908,-0.783783,1.26753,0
68940,-1.03698,-0.767772,1.2628,0
68960,-1.03545,-0.75157,1.25828,0
68980,-1.03479,-0.735589,1.25449,0
69000,-1.03337,-0.719155,1.25332,0
69020,-1.03241,-0.70476,1.25262,0
69040,-1.03334,-0.691259,1.25156,0
69060,-1.0356,-0.676959,1.25158,0
69080,-1.03975,-0.663012,1.25395,0
69100,-1.04374,-0.65178,1.25785,0
69120,-1.04724,-0.643065,1.2626,0
69140,-1.0522,-0.634263,1.26765,0
69160,-1.05866,-0.625893,1.2735,0
69180,-1.06694,-0.618504,1.2814,0
69200,-1.07546,-0.612346,1.29124,0
69220,-1.08281,-0.606266,1.30188,0
69240,-1.09005,-0.60102,1.31246,0
69260,-1.09977,-0.596947,1.32371,0
69280,-1.11081,-0.592797,1.33548,0
69300,-1.12121,-0.588379,1.34841,0
69320,-1.13127,-0.585306,1.3632,0
69340,-1.14064,-0.582533,1.37768,0
69360,-1.1503,-0.580775,1.39061,0
69380,-1.16145,-0.579195,1.40365,0
69400,-1.17421,-0.577499,1.41859,0
69420,-1.18697,-0.576365,1.43479,0
69440,-1.19704,-0.576137,1.44923,0
69460,-1.20504,-0.576081,1.46219,0
69480,-1.21441,-0.575534,1.47536,0
69500,-1.22604,-0.574834,1.48942,0
69520,-1.23763,-0.574027,1.50355,0
69540,-1.24655,-0.573401,1.51698,0
69560,-1.25219,-0.572938,1.5299,0
69580,-1.25866,-0.573245,1.5427,0
69600,-1.26773,-0.573623,1.55531,0
69620,-1.27785,-0.573457,1.56783,0
69640,-1.28843,-0.572696,1.58174,0
69660,-1.29844,-0.572544,1.59644,0
