Timestamp, Rotation x, Rotation y, Rotation z, Marker
30,-2.25,0.25,1.5,0
50,-3.4375,0.4375,1.875,0
70,-2.8125,0,1.8125,0
90,-2,0.0625,1.4375,0
110,-0.9375,-0.25,1.5625,0
120,-0.375,-0.4375,1.25,0
140,-0.4375,-0.25,0.75,0
170,-1.5625,0.0625,1.1875,0
190,-1.8125,0.0625,0.9375,0
210,-1.625,-0.25,0.6875,0
230,-0.5625,-0.25,0.6875,0
250,0.375,-0.375,0.6875,0
270,-0.0625,-0.375,0.9375,0
290,-0.25,-0.3125,0.8125,0
310,-1.0625,-0.25,0.625,0
330,-1.1875,-0.1875,0.875,0
350,-1.25,-0.0625,1,0
370,-1.25,0.125,1.125,0
390,-1.0625,0.25,1.125,0
410,-0.625,0.375,0.9375,0
430,-0.6875,0.125,0.9375,0
450,-0.5625,0,1,0
470,-0.3125,0.125,0.6875,0
490,-0.125,0.1875,0.4375,0
510,-0.0625,0.25,0.125,0
530,-0.875,0.4375,0,0
550,-0.0625,0,0.375,0
570,0.75,-0.0625,0.5,0
590,0.75,-0.25,0.6875,0
610,-0.125,-0.25,0.5625,0
630,-0.9375,-0.1875,0.1875,0
650,-1.0625,-0.0625,0.125,0
670,-0.125,-0.1875,0.25,0
690,0.25,-0.125,0.375,0
710,-0.0625,-0.5,0.3125,0
730,-0.5625,-0.375,0.0625,0
750,-0.875,0,-0.125,0
770,-0.8125,0.125,0.0625,0
790,0.5625,0,-0.1875,0
810,0.9375,0,-0.3125,0
830,0.8125,-0.125,0,0
850,0.375,-0.3125,0.1875,0
870,-0.4375,0.125,0.125,0
890,-0.6875,0.125,0.125,0
910,-0.875,0.125,0.25,0
930,-1,0.125,0.4375,0
950,-1,0.125,0.375,0
970,-1.25,0.1875,0.3125,0
990,-0.5,0.0625,0.0625,0
1010,0.0625,0,-0.375,0
1030,0.875,0,-0.25,0
1050,1,-0.125,-0.1875,0
1070,1.125,-0.3125,-0.25,0
1090,0.3125,-0.125,-0.625,0
1110,-0.3125,0,-0.6875,0
1130,-0.375,0.125,-0.3125,0
1150,0.5625,0,-0.1875,0
1170,1.0625,-0.5625,0.0625,0
1190,0,-0.625,0.3125,0
1210,-1.0625,-0.1875,0.25,0
1230,-1.8125,0.1875,0.25,0
1250,-1.375,0,0.375,0
1270,-0.25,-0.1875,0.125,0
1290,0.375,-0.3125,0.3125,0
1310,0.5,-0.375,0.25,0
1330,-0.0625,0,0.0625,0
1350,-1.25,0.0625,0,0
1370,-1.25,0.375,0.0625,0
1390,0.3125,0.4375,0,0
1410,1.125,0.375,0.0625,0
1430,0.9375,0.0625,0.125,0
1450,-0.25,0.125,0,0
1470,-1.25,0.1875,-0.0625,0
1480,-0.875,0,-0.25,0
1500,0.375,0,0.125,0
1520,0.3125,-0.1875,0.3125,0
1540,-0.3125,-0.125,0.3125,0
1560,-1.25,-0.1875,0.125,0
1580,-0.75,-0.0625,0.125,0
1600,-0.1875,-0.25,0.125,0
1620,-0.125,-0.1875,0,0
1640,-0.4375,0,-0.1875,0
1660,-0.3125,0.0625,-0.125,0
1680,-0.5,0.1875,0.125,0
1700,-0.125,0.4375,0.25,0
1720,0.125,0.375,0.125,0
1740,0.25,0.0625,0,0
1760,0.5,-0.1875,-0.25,0
1780,0.25,-0.1875,-0.4375,0
1800,0,0.0625,-0.3125,0
1820,0.25,0,-0.3125,0
1840,0.6875,-0.4375,-0.125,0
1860,0.625,-0.125,-0.1875,0
1880,0.8125,-0.125,-0.125,0
1900,0.625,-0.125,-0.5625,0
1920,0.125,-0.1875,-0.625,0
1940,-0.4375,-0.125,-0.25,0
1960,-0.4375,-0.0625,-0.0625,0
1980,-0.125,0,-0.125,0
2000,0.5,-0.375,-0.125,0
2020,0.5625,-0.1875,-0.25,0
2040,0.4375,-0.125,-0.25,0
2060,0.1875,0,-0.25,0
2080,0.125,-0.125,-0.125,0
2100,0.1875,-0.0625,0,0
2120,0.3125,0,-0.0625,0
2140,0.1875,0,-0.25,0
2160,0.4375,0,-0.25,0
2180,0.25,-0.0625,-0.125,0
2200,0.5,0.1875,-0.0625,0
2220,0.3125,0.0625,-0.25,0
2240,0,0.0625,-0.0625,0
2260,-0.0625,0.125,-0.125,0
2280,-0.625,0.3125,0,0
2300,-0.5,0.0625,-0.125,0
2320,0.0625,-0.25,0.0625,0
2340,-0.375,-0.0625,0.1875,0
2360,-0.125,-0.1875,0.0625,0
2380,-0.375,-0.125,-0.0625,0
2400,-0.375,0.0625,0.125,0
2420,0.1875,0.1875,0.0625,0
2440,0.5,0.4375,0.125,0
2460,0.875,0,0.4375,0
2480,0.625,0,0.0625,0
2500,-0.625,-0.25,0.125,0
2520,-1.5625,-0.125,-0.125,0
2540,-2.1875,-0.0625,-0.75,0
2560,-1.375,0,-0.5625,0
2580,0.625,-0.0625,-0.3125,0
2600,1.875,-0.625,-0.25,0
2620,1.9375,-0.9375,-0.375,0
2640,1.5,-1.0625,-0.5625,0
2660,0.625,-0.8125,-0.5,0
2680,0.5625,-0.6875,-0.375,0
2700,1.125,-0.4375,-0.5625,0
2720,1.75,0.0625,-0.5,0
2740,2.5625,0.25,-0.4375,0
2760,2.3125,0.125,-0.1875,0
2780,0.875,0.0625,0.25,0
2800,-0.9375,0.4375,0.4375,0
2820,-2.1875,0.5,0.4375,0
2840,-2.625,0.5625,0.375,0
2860,-1.25,0.5,0.5,0
2880,-0.375,0.5,0.5,0
2900,0.625,0.375,0.6875,0
2920,0.3125,0.1875,0.5625,0
2940,-0.875,0,0.5,0
2960,-1.375,-0.1875,0.25,0
2980,-1.8125,-0.3125,0.1875,0
3000,-1.5,-0.1875,0.5,0
3020,-0.3125,0,0.5625,0
3040,-0.3125,0,0.625,0
3060,-0.0625,0,0.6875,0
3080,-1.0625,0,0.4375,0
3100,-2,-0.1875,0.4375,0
3120,-2.0625,0,0.3125,0
3140,-1.5625,0,0.375,0
3160,-0.4375,0,0.375,0
3180,0.8125,0,0.125,0
3200,0.875,0,0,0
3220,0.25,0,0,0
3240,0.0625,-0.0625,-0.1875,0
3260,0.75,0.375,-0.375,0
3280,1.6875,0.6875,-0.125,0
3300,2.4375,0.6875,0,0
3320,3.1875,0.6875,-0.8125,0
3340,3.4375,0.375,-1.875,0
3360,4.3125,-0.25,-2.5625,0
3380,5.5,-1.375,-3.3125,0
3400,6.375,-2,-4,0
3420,5.9375,-2.125,-3.4375,0
3440,5.8125,-1.6875,-3.375,0
3460,4.5625,-1.8125,-3.375,0
3480,3.4375,-2.1875,-2.4375,0
3500,1.875,-2.375,-1.125,0
3520,0.75,-2.8125,-0.5625,0
3540,-1,-2.9375,0.375,0
3560,-2.0625,-2.75,1.3125,0
3580,-1.9375,-2.4375,1.25,0
3600,-0.9375,-1.5625,0.875,0
3620,0.375,-1.0625,0.8125,0
3640,1.5625,-0.9375,0.625,0
3660,1.75,-0.0625,0.25,0
3680,1.9375,0.375,-0.8125,0
3700,1.875,0.25,-2.0625,0
3720,3.0625,0.4375,-2.25,0
3740,5.25,0,-2.0625,0
3760,6.625,-0.6875,-2.0625,0
3780,5.875,-1.25,-1.9375,0
3800,4.1875,-0.75,-1.6875,0
3820,2.8125,-0.5625,-1.25,0
3840,1.875,-1.125,-0.4375,0
3860,1,-1.5,0.625,0
3880,-0.5625,-2,1.3125,0
3900,-4.375,-1.5,2.375,0
3920,-5.875,-0.6875,2.9375,0
3940,-6.5625,-0.3125,2.625,0
3960,-5.1875,-0.0625,3,0
3980,-3.75,-0.0625,2.625,0
4000,-3.5,0.1875,2.5625,0
4020,-4.25,1.0625,2.875,0
4040,-5.0625,1.1875,3.5625,0
4060,-5,1.3125,3,0
4070,-4.875,1.3125,2.5625,0
4090,-3.4375,1.375,2.5625,0
4110,-1.3125,0.9375,2.0625,0
4130,-0.875,0.75,1.75,0
4150,-1.375,0.625,1.4375,0
4170,-1.375,0.5625,0.5,0
4190,-1.3125,0.625,-0.25,0
4210,-0.375,0.3125,-0.25,0
4230,0.625,-0.25,0.0625,0
4250,1.8125,-0.625,0.3125,0
4270,2.0625,-0.9375,-0.1875,0
4290,1.125,-1.375,-0.375,0
4310,0.0625,-2,-1,0
4330,-5.5625,0.0625,-2.75,0
4350,-7.875,1.875,-2,0
4370,-8.8125,-0.1875,-0.0625,0
4390,-7.4375,-0.6875,1.125,0
4410,-4.875,0,1.875,0
4430,-1.875,0.375,2,0
4450,0.9375,1.1875,1.8125,0
4470,-0.3125,1.3125,1.5,0
4490,-1,1.875,0.375,0
4510,-0.25,1.25,-0.1875,0
4530,0.5,0.25,0.1875,0
4550,0.3125,0,0.3125,0
4570,1.5,0,-0.125,0
4590,2.9375,-0.1875,-0.75,0
4610,2.9375,-0.6875,-0.375,0
4630,1.6875,-0.25,-0.1875,0
4650,0.4375,-0.1875,-0.75,0
4670,-1.1875,0,-0.375,0
4690,-1.4375,-0.4375,1.0625,0
4710,-1.1875,-0.625,1.4375,0
4730,-1.8125,-0.1875,1.5625,0
4750,-2.6875,0.1875,1.5625,0
4770,-3.6875,0.25,1.875,0
4790,-3.375,1.125,1.9375,0
4810,-2.1875,1.5625,1.5625,0
4830,-2,1.5,0.625,0
4850,-1.125,1.375,0.25,0
4870,-0.5,1.25,0.125,0
4890,-0.125,0.9375,0.0625,0
4910,-0.375,0.75,-0.625,0
4930,-0.6875,0.875,-1.0625,0
4950,0.3125,0.625,-0.875,0
4970,1.5,0.8125,-0.8125,0
4990,2.125,0.1875,-0.4375,0
5010,1.6875,0,-0.9375,0
5030,1,0.25,-0.5625,0
5050,0.25,0.5,0.1875,0
5070,-0.3125,0.5625,0.5,0
5090,-1.1875,0.125,0.6875,0
5110,-1.875,0.125,0.875,0
5130,-1.8125,0.75,1.0625,0
5150,-1.25,0.875,0.875,0
5170,-0.0625,0.75,0.75,0
5190,0.625,1.3125,1.1875,0
5210,2.375,2.375,2.4375,0
5230,7.125,3.25,2.4375,0
5250,8.8125,2.8125,0.625,0
5270,7.8125,3.25,-0.5625,0
5290,3.6875,3.375,-0.25,0
5310,0.4375,3.1875,0.125,0
5330,-3.4375,2.75,-0.6875,0
5350,-5.375,1.9375,-0.5,0
5370,-4.1875,1.1875,-0.1875,0
5390,-2.625,1.125,-0.125,0
5410,-1.625,1,0.125,0
5430,-1.3125,0.4375,0.5,0
5450,-0.6875,0.0625,0.25,0
5470,-0.5,-0.5,0.25,0
5490,-1.5625,0,0.5625,0
5510,-2.4375,0.5625,1.1875,0
5530,-0.9375,0.5625,0.8125,0
5550,1.375,-0.4375,-0.1875,0
5570,2.375,-1.125,-0.25,0
5590,1.625,-0.6875,0.125,0
5610,0.375,0,-0.3125,0
5630,-1.25,0.25,-0.8125,0
5650,-0.3125,0.375,-0.625,0
5670,0.8125,0.125,-0.6875,0
5690,1.4375,0.0625,-0.4375,0
5710,1.0625,0,-0.375,0
5730,0.625,0,-0.6875,0
5750,0.375,-0.1875,-0.875,0
5770,-0.5,-0.1875,-0.5625,0
5790,-0.3125,0,-0.625,0
5810,0.8125,0,-0.6875,0
5830,1.75,0,-0.75,0
5850,1.875,0,-0.5,0
5870,0.75,-0.1875,0.25,0
5890,-0.5625,-0.125,0.25,0
5910,-0.8125,-0.1875,0.125,0
5930,-1,-0.1875,-0.0625,0
5950,-0.5,-0.0625,0.125,0
5970,-0.25,-0.0625,0.4375,0
5990,-0.25,0,0.125,0
6010,-0.0625,0.0625,-0.0625,0
6030,-0.0625,0.0625,0.25,0
6050,0.375,0,0.4375,0
6070,-0.0625,-0.0625,0.125,0
6090,-0.4375,-0.25,-0.125,0
6110,-1.1875,0,0.0625,0
6130,-1.25,0.125,0.25,0
6150,0,-0.0625,0.125,0
6170,0.0625,-0.25,0.0625,0
6190,0.125,0,0.375,0
6210,-0.375,0.0625,0.5625,0
6230,-0.9375,0.4375,0.3125,0
6250,-0.4375,0.1875,0.125,0
6270,1.125,0,0.125,0
6290,1.8125,-0.3125,-0.125,0
6310,1,-0.25,0.375,0
6330,-1.6875,0.1875,0.75,0
6350,-3.1875,0.625,0.375,0
6370,-3.25,0.5625,-0.0625,0
6390,-0.875,0,0.4375,0
6410,1.4375,-0.1875,0.5,0
6430,0.6875,0,0.1875,0
6450,-1.75,0.5625,0.3125,0
6470,-1.25,0.1875,0.125,0
6490,-4.375,-0.75,-0.3125,0
6510,-7.625,-0.5,1.5625,0
6530,-10.0625,-0.25,3.3125,0
6550,-9.9375,-1.375,2.875,0
6570,-13.3125,-2.3125,2.4375,0
6590,-23.25,-2.25,1.875,0
6610,-23.3125,-1,3.3125,0
6630,-20.875,-0.5,3.3125,0
6650,-18.75,-1,2.0625,0
6660,-15.4375,-1.75,1.4375,0
6680,-12,-2.4375,1.75,0
6700,-6.75,-3.1875,2.3125,0
6720,-6.5625,-7.125,1.6875,0
6740,-1.875,-11.125,-1.9375,0
6760,11.75,-13.125,-6.5625,0
6780,20.375,-9.625,-11.75,0
6800,27.5,0.9375,-20,0
6820,28.1875,9.8125,-29.4375,0
6840,20.875,15.25,-33.8125,0
6860,4.625,21.1875,-32.0625,0
6880,-13,25.625,-30.6875,0
6900,-19,30.1875,-32.75,0
6920,-7.625,37.6875,-37.125,0
6940,-5.4375,47,-37.125,0
6960,-4.9375,55.6875,-34.5625,0
6980,-2.375,62.9375,-32.6875,0
7000,4.5625,65.5,-29.3125,0
7020,15.4375,67.3125,-24.0625,0
7040,24.5,70.6875,-19.8125,0
7060,28.3125,75.5,-16.5,0
7080,29.25,79.5,-15,0
7100,21.4375,83.0625,-13.625,0
7120,10.75,87.3125,-10.875,0
7140,2.125,89.9375,-7.9375,0
7160,0.6875,91.125,-6.0625,0
7180,10,89.3125,-4.125,0
7200,18.3125,85.125,-0.9375,0
7220,30.625,80.875,2.0625,0
7240,35.25,76.9375,2.75,0
7260,34.1875,71.375,3.8125,0
7280,35.4375,66.3125,3.375,0
7300,29.875,59.9375,2.5625,0
7320,22.625,53.8125,4.4375,0
7340,20.25,47.3125,6.625,0
7360,16.1875,40.875,7.875,0
7380,9.5625,31.875,8.9375,0
7400,9.25,24.1875,9.8125,0
7420,9.5625,15.1875,9.3125,0
7440,7.375,5.375,7.5625,0
7460,9.1875,-5.6875,4.4375,0
7480,7.5625,-16.625,2.875,0
7500,4.625,-26.4375,2.4375,0
7520,14.3125,-33.4375,0.125,0
7540,21.25,-43.625,-1.25,0
7560,18.9375,-55,-0.375,0
7580,6.6875,-66.0625,-0.8125,0
7600,-0.375,-75.125,-0.25,0
7620,-7.1875,-83.9375,-0.8125,0
7640,-14.125,-92.6875,-1.0625,0
7660,-21.625,-99.75,-0.625,0
7680,-22.6875,-103.625,-2.1875,0
7700,-24.0625,-106.312,-4.0625,0
7720,-22.625,-107.188,-4.6875,0
7740,-23.8125,-106.938,-3.625,0
7760,-23.25,-105.625,0.75,0
7780,-17.625,-103.688,4.5,0
7800,-19.6875,-103.125,6.375,0
7820,-22.75,-101.312,8.0625,0
7840,-26.8125,-98.8125,10.9375,0
7860,-35.4375,-96.0625,14,0
7880,-42.9375,-91.9375,14.6875,0
7900,-37.5,-88.875,12.25,0
7920,-32.0625,-87.5,12.875,0
7940,-31.9375,-86.9375,14.375,0
7960,-34.875,-85.8125,16.625,0
7980,-38.4375,-80.875,18.375,0
8000,-38.6875,-76.1875,16.75,0
8020,-40.375,-73.875,13.125,0
8040,-43.625,-70.125,9.8125,0
8060,-39.4375,-63.625,6.5625,0
8080,-28.1875,-55.75,1.6875,0
8100,-21.5,-48.375,-1.125,0
8120,-19.125,-40.5,1.25,0
8140,-12.5625,-29.8125,2.6875,0
8160,-3.9375,-17.5625,0.625,0
8180,0.1875,-5.9375,-2.0625,0
8200,-3.1875,5.625,-3.375,0
8220,-4.375,17.4375,-5.25,0
8240,-5.5,31.25,-7.375,0
8260,-12.625,47.25,-7.5,0
8280,-11.6875,62.5,-9.125,0
8300,2.75,74.75,-12.25,0
8320,11.125,83.5625,-12.75,0
8340,22.125,91.6875,-10.5625,0
8360,29.4375,99.9375,-10.8125,0
8380,34.75,106.125,-12.75,0
8400,37.875,111.25,-14.125,0
8420,36.375,116.188,-15.5,0
8440,36.3125,121.312,-14.5,0
8460,40,128.75,-13.4375,0
8480,46.5625,136,-8.4375,0
8500,38.0625,140.688,0.1875,0
8520,33.3125,143.062,7.9375,0
8540,50.6875,141.25,8.3125,0
8560,62.25,137.562,4.125,0
8580,68.25,133.5,2.4375,0
8600,63.875,127.562,1.375,0
8620,56,121.625,2,0
8640,44.75,117,0.625,0
8660,35,110.312,1.875,0
8680,33.875,101.562,1.6875,0
8700,33.625,95.25,2.5625,0
8720,27.375,86.4375,4,0
8740,21.4375,78.5,3.875,0
8760,19.0625,70.625,3.4375,0
8780,21.875,63.1875,2.1875,0
8800,24.6875,54.8125,0.375,0
8820,22.8125,47.25,2.125,0
8840,13.25,43.6875,4.875,0
8860,5.8125,41.5,5.3125,0
8880,3.75,37.3125,3.875,0
8900,5.1875,32.3125,2.6875,0
8920,8.4375,27.9375,3.1875,0
8940,6.625,23.375,3.3125,0
8960,7.25,18.875,1.375,0
8980,5.125,12.3125,0.1875,0
9000,5.6875,5.5,-1.375,0
9020,4.5,-1.5625,-2.3125,0
9040,1.1875,-8.3125,-2.8125,0
9060,-2.4375,-14.4375,-2.6875,0
9080,-10.3125,-20.875,-3.1875,0
9100,-15.3125,-28.375,-4.75,0
9120,-14.875,-36.5,-6.75,0
9140,-13.125,-44,-6.25,0
9160,-15.1875,-50.9375,-6.5,0
9180,-19.4375,-59.1875,-8.25,0
9200,-19.3125,-67.4375,-9.875,0
9220,-17.875,-75.3125,-11.0625,0
9240,-21.4375,-83.75,-10.6875,0
9250,-22.8125,-90.8125,-11.125,0
9270,-24.4375,-96.25,-12.5,0
9290,-29,-102.312,-13.625,0
9310,-35.5,-107.375,-13.0625,0
9330,-40.125,-111.5,-12.3125,0
9350,-39.625,-114.438,-12.25,0
9370,-42.75,-116.75,-13.6875,0
9390,-47.1875,-119.25,-14.1875,0
9410,-50.6875,-119.062,-13.25,0
9430,-51.8125,-116.062,-12.25,0
9450,-45.1875,-112.938,-12.5,0
9470,-41.25,-112.438,-11.4375,0
9490,-37.75,-110.625,-8.0625,0
9510,-35.25,-107,-4.875,0
9530,-28.125,-102,-4.8125,0
9550,-25.625,-97.75,-6.8125,0
9570,-32.25,-93.6875,-6.25,0
9590,-35.375,-86.5,-4.5625,0
9610,-33.3125,-76.75,-4.0625,0
9630,-27.9375,-67.6875,-2.9375,0
9650,-21.9375,-59.25,0.5625,0
9670,-18.75,-49.625,4.875,0
9690,-11,-39.3125,9.1875,0
9710,-6.375,-29.5625,12.625,0
9730,-4.3125,-21.5,17,0
9750,-3.5625,-12.625,19.1875,0
9770,2.25,-3.625,18.375,0
9790,6.6875,2.875,18.25,0
9810,6.3125,7.625,19.625,0
9830,5.8125,11.8125,22,0
9850,2.875,13.25,22.9375,0
9870,5.25,13.375,21.3125,0
9890,5.5,12.8125,20.625,0
9910,4.8125,12.125,19.5,0
9930,-1.6875,11,18.375,0
9950,-7.5,10.5625,17.3125,0
9970,-9.8125,10,16.3125,0
9990,-4.9375,9.9375,16.3125,0
10010,0.125,9,16.5,0
10030,5.125,7.25,16.75,0
10050,7.75,5.5,15.25,0
10070,7.875,4.3125,12.125,0
10090,1.4375,3.3125,10,0
10110,-4.875,3.25,9,0
10130,-5.6875,2.9375,7.9375,0
10150,-4,1.8125,7.9375,0
10170,-1.25,1.125,8.875,0
10190,0.625,0.1875,9.75,0
10210,-0.4375,-0.6875,11.8125,0
10230,-3.5625,0.5625,13.5625,0
10250,-3.5625,2.3125,12.875,0
10270,-1.4375,3,11.8125,0
10290,-1.375,1.3125,10.375,0
10310,-0.625,0,8,0
10330,1.0625,0.375,5.5,0
10350,4.5625,0.9375,3.625,0
10370,4,0.3125,2.375,0
10390,3.375,0.5,3.75,0
10410,5.9375,2.125,7.6875,0
10430,14.125,3.75,13.0625,0
10450,14.125,4.4375,19.1875,0
10470,6.1875,5.625,22.875,0
10490,3.1875,7.4375,23.9375,0
10510,-1.5,9.375,24.625,0
10530,-1.9375,11.125,25.9375,0
10550,-11.1875,12,25.5625,0
10570,-10.375,14.6875,24.5625,0
10590,-4,15.3125,26.5625,0
10610,5.625,12.5,30.6875,0
10630,10.8125,11.125,29.125,0
10650,7,11.75,28.125,0
10670,11.875,15.0625,19.75,0
10690,2,9.625,4.375,0
10710,-14.5,3.4375,0.1875,0
10730,-13.6875,1.25,5.875,0
10750,-11.5625,-2.3125,9.9375,0
10770,-15.4375,-8.375,5.6875,0
10790,-16.8125,-10.5,3.3125,0
10810,-14.6875,-7.6875,1.75,0
10830,-5.1875,-4.8125,-0.25,0
10850,0.875,-3.5,0.125,0
10870,4.5,-0.25,1.375,0
10890,2.4375,3.3125,0.875,0
10910,2.8125,3.4375,0.25,0
10930,0.75,2.125,0.875,0
10950,2.75,1.5,1.125,0
10970,1.625,-0.25,1.0625,0
10990,1.1875,-0.875,1.6875,0
11010,-0.3125,-0.3125,1.6875,0
11030,-0.4375,0.125,1.3125,0
11050,-0.25,0.4375,1.125,0
11070,0.0625,0.4375,1.25,0
11090,1.5625,-0.0625,2,0
11110,3.625,-1,0.9375,0
11130,2.125,-0.625,-1,0
11150,1.125,-0.4375,-1.375,0
11170,0.6875,-0.375,0,0
11190,0.25,-0.125,0.375,0
11210,1.125,0.0625,0.9375,0
11230,1.125,0.5625,0.625,0
11250,1.5625,0.5625,0.6875,0
11270,2.3125,0.375,0.5625,0
11290,0.375,-0.1875,0.125,0
11310,0,0.375,0.5,0
11330,1.4375,0.9375,0,0
11350,3.6875,1.0625,-0.5625,0
11370,7.5625,1.625,-0.875,0
11390,14.3125,1.9375,-1.4375,0
11410,19.0625,1.625,-3.5625,0
11430,22.25,2.25,-5.125,0
11450,22.5,2.6875,-6.625,0
11470,22,2.9375,-6.125,0
11490,16.8125,2.1875,-3.8125,0
11510,11.8125,2.75,-2.9375,0
11530,9.3125,3.25,-3.4375,0
11550,5.5,3.25,-3.625,0
11570,4.3125,3,-2.1875,0
11590,4.125,2.5625,-1.375,0
11610,3.125,2.3125,-1.125,0
11630,2.6875,0.5625,0.1875,0
11650,-0.125,-1.25,1.4375,0
11670,-3.125,-2.375,1.625,0
11690,-4.25,-2.4375,1.5625,0
11710,-2.75,-1.9375,0.125,0
11730,-2.125,-0.6875,-1.5,0
11750,0.5625,-0.4375,-1.1875,0
11770,4.375,-0.25,-0.9375,0
11790,5.625,-0.1875,-1.5625,0
11810,5.6875,0.125,-1.75,0
11830,4.5,0.6875,-0.6875,0
11840,3.3125,0.5,0.4375,0
11860,0.75,-0.25,0.3125,0
11880,-0.375,-0.125,-0.5625,0
11900,-1.1875,-0.5625,-1.25,0
11920,-0.625,-0.5,-0.5,0
11940,0.375,-0.125,1.25,0
11960,2.375,0.1875,1.375,0
11980,1.9375,0.5,-0.1875,0
12000,1.125,0.625,-0.6875,0
12020,-0.0625,0.1875,0.3125,0
12040,1,0.375,1.25,0
12060,1.4375,0.25,1.3125,0
12080,2,-0.5625,1.4375,0
12100,-0.125,-0.25,1.5,0
12120,-1.5,-0.25,2.3125,0
12140,-1.4375,0.0625,2.1875,0
12160,-2.625,-0.25,2.9375,0
12180,-4.3125,-1.5,4.5,0
12200,-5.5,-2.75,4.125,0
12220,-4.125,-1.3125,2.5625,0
12240,-5.3125,-1.125,0.5,0
12260,-3.3125,-1.5625,0.5,0
12280,0.625,-1.0625,0.8125,0
12300,3.4375,0.5625,0.125,0
12320,5.5625,1.8125,-0.6875,0
12340,6.6875,1.8125,-1.125,0
12360,6.625,1.3125,-1.0625,0
12380,6.5,1,-1.1875,0
12400,5.5625,0.4375,-1.125,0
12420,4.4375,-0.625,-1.3125,0
12440,3.5,-0.6875,-0.75,0
12460,3.4375,-0.625,0.125,0
12480,5.8125,-1.6875,-1.1875,0
12500,12.125,-1.625,-4.125,0
12520,18.625,0.0625,-9.0625,0
12540,28.1875,3.5,-8.5625,0
12560,36.1875,2.25,-4.625,0
12580,35.5,2.375,-2.6875,0
12600,25.625,3.5625,-2.4375,0
12620,13.3125,3.125,-1.8125,0
12640,1.25,1.6875,-2,0
12660,-3.375,1.5,-1.8125,0
12680,0.3125,0,-0.5,0
12700,3.8125,-1.375,1,0
12720,3.625,-1.375,2.625,0
12740,-0.125,-0.375,3.0625,0
12760,-4.75,0.0625,1.6875,0
12780,-8.3125,0.25,1.1875,0
12800,-7.1875,-0.125,1.875,0
12820,-5.125,-1.5,1.875,0
12840,-2.625,-1.4375,1.375,0
12860,-1.5,-1.25,1,0
12880,0,0,2.4375,0
12900,4.25,1.375,4.625,0
12920,5.8125,1.3125,3.75,0
12940,5.25,1.4375,1.25,0
12960,2.9375,0.5625,0,0
12980,-0.875,-0.625,0.5625,0
13000,-4,-0.8125,0.75,0
13020,-6.75,-0.5625,1.1875,0
13040,-6.6875,-0.4375,0.9375,0
13060,-3.8125,-0.25,0.125,0
13080,-0.6875,-0.125,-0.3125,0
13100,1.625,0.25,0.25,0
13120,1.3125,0.375,0.5,0
13140,-1.25,1.0625,0.4375,0
13160,-1,0.5,-0.25,0
13180,-0.25,0.1875,-2,0
13200,1.375,0.25,-1.6875,0
13220,2.9375,-0.375,0.0625,0
13240,2.5625,0,0.1875,0
13260,1.9375,0.75,0.25,0
13280,1.75,-0.5625,0.4375,0
13300,-1.625,0,-1.375,0
13320,-1.25,-0.125,-0.5625,0
13340,-1.25,-0.375,-0.125,0
13360,-0.5,-0.375,0.3125,0
13380,0.875,0,0.5625,0
13400,0.0625,0.0625,0.6875,0
13420,-1.1875,-0.3125,0.3125,0
13440,-2.375,0.5,-0.125,0
13460,-1.8125,0.5,0.625,0
13480,-1.125,0.125,0.875,0
13500,-0.8125,0,0.1875,0
13520,-1.0625,0.0625,0,0
13540,-0.3125,0.1875,-0.3125,0
13560,0.5,0.375,0.3125,0
13580,0.3125,0.4375,0.875,0
13600,0.125,0.25,0.8125,0
13620,-0.3125,-0.1875,0.125,0
13640,-0.9375,-0.0625,-0.25,0
13660,-0.5,-0.375,0.25,0
13680,-0.125,-0.1875,0.5625,0
13700,-1.3125,0.3125,0.25,0
13720,-1.8125,0.3125,0,0
13740,-2,0.25,0.375,0
13760,-0.75,0.1875,0.9375,0
13780,0.25,-0.25,0.5625,0
13800,-1.25,-0.5,-0.0625,0
13820,-1.5,-0.5,-0.125,0
13840,-1.1875,0.1875,-0.3125,0
13860,0.1875,0,0.3125,0
13880,1.3125,-0.3125,0.5,0
13900,0.6875,0.1875,0.125,0
13920,0.125,0.25,-0.125,0
13940,-0.625,-0.1875,-0.375,0
13960,-0.9375,-0.375,-0.1875,0
13980,-0.3125,-0.4375,0.5,0
14000,-0.5625,0.0625,0.3125,0
14020,-0.4375,0.5625,0.0625,0
14040,-0.4375,0.625,0.4375,0
14060,0.0625,-0.25,0.5625,0
14080,-0.625,0,0.1875,0
14100,-0.75,-0.375,-0.0625,0
14120,-1.0625,-0.4375,-0.3125,0
14140,-0.1875,-0.1875,0.25,0
14160,0.375,-0.0625,0.4375,0
14180,0,0.1875,0.125,0
14200,-0.4375,-0.1875,0.25,0
14220,-0.5,-0.0625,0.25,0
14240,-0.375,0.0625,0.375,0
14260,-0.3125,0.25,0.1875,0
14280,-0.8125,0,-0.1875,0
14300,-0.5625,-0.125,-0.375,0
14320,-0.1875,-0.125,0.3125,0
14340,0,-0.25,0.375,0
14360,0,-0.3125,0.5625,0
14380,-0.5625,-0.25,-0.1875,0
14400,-0.3125,-0.1875,-0.3125,0
14420,-0.25,-0.0625,0.125,0
14430,-0.125,0,0.5625,0
14450,-0.25,0.125,0.5625,0
14470,-0.3125,0.1875,0.375,0
14490,0.1875,0,0.25,0
14510,0.4375,-0.1875,0.3125,0
14530,0.375,-0.125,0.1875,0
14550,-0.75,0,0.5,0
14570,-1.1875,0.4375,0.3125,0
14590,-1.0625,0.875,0,0
14610,-0.125,0.4375,0.4375,0
14630,0.5,-0.0625,0.0625,0
14650,0.375,0.1875,0.125,0
14670,0.375,-0.0625,0.125,0
14690,-0.5,-0.0625,-0.0625,0
14710,-0.75,0.0625,0.375,0
14730,0.0625,-0.25,0.3125,0
14750,0.3125,0,-0.75,0
14770,0.5625,0,-0.1875,0
14790,0.375,-0.375,0.625,0
14810,0.3125,-0.4375,0.625,0
14830,-0.5625,-0.3125,-0.0625,0
14850,-0.75,0,0,0
14870,-0.5625,-0.625,0.5,0
14890,0.1875,-0.4375,0.125,0
14910,-0.1875,0.25,-0.25,0
14930,0.125,0.0625,0.125,0
14950,-0.5,-0.3125,0.5625,0
14970,-1.125,0.1875,0.375,0
14990,-1.0625,0.1875,0.4375,0
15010,-1.3125,-0.5,-0.25,0
15030,-0.75,-0.125,0,0
15050,0.0625,0.1875,0.6875,0
15070,0.5625,0.25,0.6875,0
15090,0.25,0.3125,-0.125,0
15110,-1.25,0.25,0.1875,0
15130,-1.8125,0,0.375,0
15150,-1.5,0.125,0.0625,0
15170,-1.25,0.3125,0.3125,0
15190,0.4375,0.0625,0.5625,0
15210,0.9375,-0.125,0.0625,0
15230,0.4375,-0.4375,0,0
15250,0.1875,-0.3125,-0.1875,0
15270,-0.8125,-0.3125,0.125,0
15290,-0.6875,0.0625,0.375,0
15310,0.5625,0.25,0.25,0
15330,0.25,0.1875,-0.125,0
15350,0.625,-0.375,0.125,0
15370,0.1875,-0.3125,0.4375,0
15390,-0.3125,-0.1875,0.25,0
15410,-0.5625,0,0.4375,0
15430,-0.5625,0,0.375,0
15450,-0.25,0.125,0.5625,0
15470,0.0625,-0.375,0.625,0
15490,0.5,-0.0625,-0.0625,0
15510,0,0.125,0.3125,0
15530,0.375,-0.5,0.75,0
15550,-0.25,-0.3125,0.625,0
15570,-0.5625,0,0.625,0
15590,-0.5625,-0.3125,0.5625,0
15610,-1.0625,-0.125,0.625,0
15630,-0.0625,0.0625,1.125,0
15650,0.625,-0.125,0.875,0
15670,-0.6875,-0.125,0.6875,0
15690,-1.625,-0.1875,0.9375,0
15710,-1.8125,0,0.875,0
15730,-1.25,0,0.875,0
15750,-0.1875,0,0.5625,0
15770,-0.5625,0,0.625,0
15790,0.0625,-0.25,0.625,0
15810,-0.3125,-0.3125,0.75,0
15830,-0.25,-0.125,1.1875,0
15850,-0.3125,0,0.875,0
15870,-0.5625,-0.25,0.8125,0
15890,-0.875,0.1875,0.5625,0
15910,-0.5625,0.4375,0.5,0
15930,-0.3125,0.375,0.625,0
15950,-0.625,0.1875,0.4375,0
15970,-0.5625,0,0.875,0
15990,-0.75,0.125,1.25,0
16010,-1,0,1.3125,0
16030,-2,-0.25,1.625,0
16050,-1.6875,-0.0625,1.5,0
16070,-1.8125,-0.375,1.0625,0
16090,-1.5,-0.375,0.8125,0
16110,-2.125,-0.5,1,0
16130,-2.0625,-0.3125,1.125,0
16150,-1.0625,0,1.125,0
16170,-0.0625,-0.125,1,0
16190,0,-0.1875,0.875,0
16210,-0.5625,-0.4375,1.1875,0
16230,-1.125,-0.875,0.9375,0
16250,-1.75,-0.25,0.625,0
16270,-1.625,-0.1875,0.75,0
16290,-1.5625,0,0.75,0
16310,-0.3125,0.0625,0.75,0
16330,-0.5625,0,0.6875,0
16350,-1.1875,0.375,0.625,0
16370,-0.5,0.4375,0.375,0
16390,0.9375,-0.75,0.0625,0
16410,0.8125,-1.9375,-0.0625,0
16430,-0.0625,-1.4375,0.5,0
16450,-1.625,-0.6875,1,0
16470,-3.6875,-0.6875,1.5,0
16490,-4.875,0.1875,2,0
16510,-0.4375,-0.75,2.25,0
16530,5.6875,0.125,4.5625,0
16550,10.0625,1.125,2.6875,0
16570,11.75,0.3125,2.5625,0
16590,9.25,0.3125,0.4375,0
16610,2.875,-0.375,-2.1875,0
16630,-4.0625,0,-2.5,0
16650,-5.375,-0.75,-0.8125,0
16670,-3.375,-0.875,-0.5,0
16690,-1.5,0.1875,-0.25,0
16710,-0.1875,0.6875,0,0
16730,-0.4375,0.5,-0.375,0
16750,-2.0625,1.0625,-0.8125,0
16770,-2.9375,1,-0.4375,0
16790,-3,0.25,-0.125,0
16810,-2.125,0.0625,-0.5,0
16830,-1.1875,0.25,-0.5625,0
16850,-0.0625,-0.125,-0.3125,0
16870,-0.6875,0.4375,-0.1875,0
16890,-1.0625,0.3125,-0.375,0
16910,-1.875,0.625,-1.0625,0
16930,-1.1875,0.375,-0.625,0
16950,-1.125,0.0625,-0.375,0
16970,-0.25,0,-0.0625,0
16990,-0.375,0.125,0,0
17010,-0.5625,-0.25,-0.125,0
17020,-0.25,-0.5,-0.625,0
17040,-0.9375,0,-0.4375,0
17060,-0.6875,0,0.125,0
17080,-1.1875,-0.0625,-0.125,0
17100,0.1875,-0.25,-0.0625,0
17120,-0.25,-0.1875,-0.1875,0
17140,0.625,-0.5625,0.125,0
17160,-0.25,0.1875,0.1875,0
17180,-1.3125,0.375,0.375,0
17200,-1.0625,0.5,0.125,0
17220,-0.9375,-0.0625,0.0625,0
17240,0.125,-0.8125,0.0625,0
17260,-0.375,-0.5,0.125,0
17280,-0.4375,0,0.1875,0
17300,-0.875,0.5,0.125,0
17320,-0.5,0.0625,0.0625,0
17340,-0.1875,-0.0625,-0.1875,0
17360,-0.375,0.125,0.25,0
17380,0.0625,-0.8125,0.1875,0
17400,-0.25,-0.25,-0.4375,0
17420,0,-0.0625,0.0625,0
17440,0.5,-0.125,0.4375,0
17460,0.3125,-0.0625,-0.125,0
17480,-1.125,0.1875,-0.3125,0
17500,-1.1875,0,0.0625,0
17520,-0.5625,0,0.25,0
17540,-0.0625,0,0,0
17560,0.1875,-0.3125,0.0625,0
17580,-0.1875,-0.5625,0.375,0
17600,-0.25,-0.25,-0.3125,0
17620,-0.375,0,-0.125,0
17640,-0.125,-0.0625,0.1875,0
17660,0.5,-0.25,0.125,0
17680,0.0625,-0.1875,-0.375,0
17700,0,-0.3125,0,0
17720,-0.25,-0.3125,0.375,0
17740,0,-0.125,0.125,0
17760,-0.875,0.4375,-0.3125,0
17780,-0.25,0.3125,-0.125,0
17800,-0.125,-0.125,0.0625,0
17820,0.4375,-0.0625,0.1875,0
17840,0,-0.0625,0.25,0
17860,-0.25,-0.0625,0.125,0
17880,-0.5,-0.0625,-0.3125,0
17900,-0.125,0,-0.3125,0
17920,0.625,-0.125,0.125,0
17940,0.3125,-0.1875,0.1875,0
17960,0,0,0.125,0
17980,-0.3125,0.0625,0.0625,0
18000,-0.25,-0.5625,-0.0625,0
18020,-0.3125,-0.125,-0.125,0
18040,-0.4375,0,0.125,0
18060,-0.3125,0.125,0.3125,0
18080,-0.4375,0.4375,0.1875,0
18100,-0.5625,0.375,0.0625,0
18120,-0.6875,0.25,0.125,0
18140,0,-0.6875,0.125,0
18160,-0.3125,-0.3125,-0.0625,0
18180,0.0625,0.0625,0.4375,0
18200,-0.3125,0.25,0.25,0
18220,-0.875,0.25,0.125,0
18240,-0.5625,-0.125,0.375,0
18260,-0.1875,-0.375,0.25,0
18280,0.25,-0.125,0.125,0
18300,0,0,0.125,0
18320,0.125,-0.0625,0.1875,0
18340,-0.375,-0.3125,0.125,0
18360,-0.75,0.125,0.375,0
18380,-1,0.4375,0.3125,0
18400,-0.5625,0.3125,0.3125,0
18420,0.3125,-0.3125,0.0625,0
18440,0.125,-0.3125,0.125,0
18460,0.375,-0.375,0.5625,0
18480,-0.875,-0.3125,0.125,0
18500,-0.8125,-0.1875,0.375,0
18520,-0.25,-0.3125,0.625,0
18540,-0.25,-0.3125,0.1875,0
18560,-0.6875,0,0.375,0
18580,-0.9375,-0.1875,0.4375,0
18600,-1.3125,0,0.4375,0
18620,-1.125,0.125,0.5625,0
18640,-1.125,-0.1875,0.625,0
18660,-0.75,-0.125,0.25,0
18680,-0.1875,0,0.1875,0
18700,0.375,0,0.25,0
18720,-0.5,0.4375,0,0
18740,-1,0,0.125,0
18760,-0.625,-0.375,0.0625,0
18780,0.5,-0.5625,-1,0
18800,0.3125,-1.0625,-0.25,0
18820,-0.5625,-0.6875,1.125,0
18840,-0.375,-0.125,0.8125,0
18860,-1.5,-1.125,0.4375,0
18880,-1.5625,-1.3125,0.9375,0
18900,-1.5625,-1.3125,1.4375,0
18920,-1.8125,-1.4375,1.3125,0
18940,-3.5,-0.5625,1.125,0
18960,-3.75,-0.125,0.9375,0
18980,-2.5625,0,0.625,0
19000,-1.1875,0.125,0.875,0
19020,0.3125,0,1.3125,0
19040,1.1875,-0.25,1.625,0
19060,1,-0.125,1.5,0
19080,-0.9375,-0.125,1.0625,0
19100,-1.4375,-0.75,1,0
19120,-1.875,-1.5625,1,0
19140,-1.6875,-1.5625,0.9375,0
19160,-1.625,-1,0.5625,0
19180,-1.4375,-0.6875,0.3125,0
19200,0.25,-0.625,-0.1875,0
19220,2.3125,-0.75,-0.4375,0
19240,2.9375,-0.5625,0.0625,0
19260,3,-0.375,0.6875,0
19280,1,-0.25,0.5625,0
19300,-1,-0.0625,0.5625,0
19320,-2.5625,-0.3125,0.5,0
19340,-3.0625,-0.75,0.375,0
19360,-2,-0.8125,0.25,0
19380,-1.375,-0.4375,-0.125,0
19400,-0.125,-0.25,-0.125,0
19420,0.6875,-0.25,-0.25,0
19440,0.5625,0.125,-0.375,0
19460,0.625,-0.375,-0.375,0
19480,0.625,-0.625,-1,0
19500,1.25,-0.625,-0.5625,0
19520,1.3125,-0.25,-0.3125,0
19540,0.625,0.125,-0.1875,0
19560,0.25,0,-0.3125,0
19580,-0.4375,-0.1875,-0.375,0
19600,0.1875,-0.375,0.125,0
19610,-0.25,-0.5625,0.25,0
19630,-0.6875,-0.125,0.3125,0
19650,-1.3125,0.0625,0.0625,0
19670,-1.3125,-0.0625,0,0
19690,-0.1875,-0.25,0,0
19710,0.5,0,0.0625,0
19730,0.75,-0.125,0.1875,0
19750,0.375,-0.25,0.125,0
19770,-0.3125,-0.5,0.1875,0
19790,-0.25,-0.125,0.375,0
19810,-0.75,0.0625,0.125,0
19830,-0.125,-0.125,0.0625,0
19850,-0.25,0,0.125,0
19870,0.4375,0,0.25,0
19890,-0.375,0.125,0.125,0
19910,-1,0.125,0.25,0
19930,-1,0.25,0.125,0
19950,-0.75,-0.0625,0.3125,0
19970,0.3125,-0.1875,0.625,0
19990,-0.25,-0.125,1,0
20010,-0.8125,0.25,0.8125,0
20030,-1,0.25,0.3125,0
20050,-1.1875,-0.375,0.4375,0
20070,-0.6875,-0.3125,0.375,0
20090,-0.75,-0.0625,0.625,0
20110,-0.5625,0,0.6875,0
20130,-0.875,0,0.375,0
20150,-1,-0.1875,0.5,0
20170,-0.75,-0.3125,0.8125,0
20190,-1,-0.3125,0.6875,0
20210,-0.6875,-0.375,0.6875,0
20230,-1,0,0.4375,0
20250,-0.5625,-0.0625,0.6875,0
20270,-1.1875,-0.25,0.4375,0
20290,-0.9375,0.0625,0.625,0
20310,-0.1875,0,0.8125,0
20330,0.1875,-0.25,0.5,0
20350,-0.0625,-0.125,0.5,0
20370,-0.625,-0.125,1,0
20390,-1.6875,-0.125,0.9375,0
20410,-2.25,0.1875,0.8125,0
20430,-1.75,0.125,0.875,0
20450,-0.9375,-0.1875,0.8125,0
20470,0.0625,-0.3125,0.875,0
20490,0.1875,-0.4375,0.3125,0
20510,-0.875,0.25,0.1875,0
20530,-1.25,0.3125,1,0
20550,-1.1875,-0.0625,1.0625,0
20570,-0.5,-0.3125,0.875,0
20590,-0.5,-0.25,0.75,0
20610,-0.5625,-0.4375,0.3125,0
20630,-1.25,-0.0625,0.375,0
20650,-1.5625,0,1.0625,0
20670,-1.1875,-0.0625,1,0
20690,-0.8125,0.0625,0.875,0
20710,-0.6875,0,1.0625,0
20730,-1.3125,-0.0625,0.9375,0
20750,-1.375,0.125,0.8125,0
20770,-1.25,-0.375,0.5,0
20790,-0.9375,-0.125,-0.0625,0
20810,-0.375,-0.125,0.6875,0
20830,-0.25,0.0625,0.875,0
20850,-0.625,0.5,0.5625,0
20870,-0.375,0.3125,0.1875,0
20890,-0.1875,-0.25,0.25,0
20910,-0.0625,-0.375,0.25,0
20930,-1,-0.1875,0.375,0
20950,-1.5,-0.125,0.5625,0
20970,-1.125,0,0.375,0
20990,-0.625,0.3125,0.3125,0
21010,-0.0625,0,0.375,0
21030,0,0,0.125,0
21050,-0.5,-0.125,-0.4375,0
21070,-0.375,0,-0.25,0
21090,-0.4375,0.0625,0,0
21110,-0.375,0.1875,0.25,0
21130,0.125,0.25,0.25,0
21150,0.0625,0,-0.125,0
21170,0.375,-0.5,-0.0625,0
21190,-0.0625,-0.25,-0.5,0
21210,-0.3125,0.0625,-0.5,0
21230,-0.25,0.25,-0.125,0
21250,0.3125,0,0,0
21270,0.8125,-0.125,0,0
21290,0.875,-0.25,-0.1875,0
21310,0.625,-0.25,-0.4375,0
21330,-0.3125,0,-0.375,0
21350,-1.375,0.1875,-0.0625,0
21370,-0.875,0,0,0
21390,0.0625,-0.3125,-0.0625,0
21410,0.5,-0.375,0.125,0
21430,-0.0625,-0.25,0,0
21450,-0.5625,-0.125,-0.25,0
21470,-0.1875,-0.1875,-0.25,0
21490,-0.5625,0,-0.4375,0
21510,0.125,0.0625,-0.0625,0
21530,0.375,0.0625,-0.125,0
21550,0.0625,-0.125,0.0625,0
21570,0.125,-0.125,0,0
21590,0,-0.375,-0.1875,0
21610,-0.5625,-0.5,-0.1875,0
21630,-0.375,-0.3125,0.125,0
21650,-0.125,0,0,0
21670,-0.3125,0.0625,-0.125,0
21690,-0.3125,0.125,-0.125,0
21710,0,0.1875,-0.0625,0
21730,0.625,-0.125,0.125,0
21750,0.125,0,0.625,0
21770,-0.5,0,0.1875,0
21790,-1.375,0,-0.1875,0
21810,-0.9375,0,0.0625,0
21830,0.125,-0.1875,-0.1875,0
21850,0.5,-0.0625,0.0625,0
21870,1.125,-0.3125,0.125,0
21890,0.125,-0.25,0.125,0
21910,-0.5,0.3125,0.0625,0
21930,-1.4375,0.5,0.1875,0
21950,-2.0625,0.5,0.125,0
21970,-0.8125,0.1875,0.1875,0
21990,0.3125,-0.125,0.1875,0
22010,1.0625,-0.5,0.125,0
22030,0.3125,-0.125,-0.1875,0
22050,-0.6875,0.125,0.125,0
22070,-0.75,0,0.1875,0
22090,-0.875,0.125,0.125,0
22110,-0.625,0.25,0.1875,0
22130,-0.6875,0,0.125,0
22150,0,-0.125,-0.0625,0
22170,0.4375,-0.1875,0.0625,0
22190,0.3125,-0.0625,0.125,0
22210,-0.75,0,0.1875,0
22220,-0.9375,0,0.375,0
22240,-1.125,0.0625,0.1875,0
22260,-0.8125,0.25,0.0625,0
22280,-0.375,0.375,0.1875,0
22300,0.125,0.0625,-0.0625,0
22320,0.5625,0,0,0
22340,0.0625,0.25,0,0
22360,-0.25,0.0625,0.125,0
22380,-0.25,-0.3125,0.1875,0
22400,-0.1875,-0.375,0.0625,0
22420,-0.0625,-0.1875,-0.25,0
22440,0.25,-0.3125,0.0625,0
22460,0.375,0,0.125,0
22480,0.0625,0.0625,0.125,0
22500,-0.75,0.5,0,0
22520,-0.8125,0.3125,0.1875,0
22540,-0.4375,-0.25,0,0
22560,-0.125,-0.25,0,0
22580,0.5625,-0.25,0.125,0
22600,0.25,-0.1875,0.0625,0
22620,-0.375,0.0625,0.3125,0
22640,-1,0.1875,0.3125,0
22660,-0.3125,-0.3125,0.125,0
22680,-0.5625,0,-0.25,0
22700,0.1875,-0.0625,0.125,0
22720,0.1875,-0.0625,0.0625,0
22740,-0.4375,0,0.3125,0
22760,-0.6875,-0.0625,0.625,0
22780,-1.0625,-0.0625,0.25,0
22800,-0.8125,-0.1875,0.1875,0
22820,-0.8125,-0.0625,0.125,0
22840,-0.875,0.125,-0.125,0
22860,0,-0.0625,0.0625,0
22880,0.5625,0.0625,-0.0625,0
22900,0.75,0.125,0.1875,0
22920,0.0625,0,0.5,0
22940,-1.4375,-0.0625,0.125,0
22960,-2.0625,-0.125,0.125,0
22980,-1.5,-0.25,0.375,0
23000,0.5625,-0.3125,0.3125,0
23020,0.25,-0.25,0.25,0
23040,0.25,-0.25,0.375,0
23060,-0.3125,-0.25,0.125,0
23080,-0.875,0,0.4375,0
23100,-1,0.0625,0.5,0
23120,-0.625,-0.0625,0.4375,0
23140,-0.6875,-0.5,0.1875,0
23160,-0.3125,-0.25,0.125,0
23180,-0.1875,-0.1875,0.5,0
23200,-0.375,-0.125,0.6875,0
23220,-0.6875,0,0.6875,0
23240,-1,0.0625,0.5,0
23260,-0.5625,-0.4375,0.6875,0
23280,-0.0625,-0.5,0.5,0
23300,-0.5625,-0.3125,0.6875,0
23320,-0.5625,0,0.75,0
23340,-0.6875,0.0625,0.8125,0
23360,-1.125,0.25,0.875,0
23380,-1.5625,0.1875,0.6875,0
23400,-1.4375,0.0625,0.5625,0
23420,-0.875,-0.5625,0.5,0
23440,-0.75,-0.4375,0.625,0
23460,-1,-0.125,0.875,0
23480,-0.6875,0,1,0
23500,-1.25,0,0.5,0
23520,-1.875,0.6875,0.875,0
23540,-0.4375,0.875,1.4375,0
23560,-4.625,-0.1875,1.5,0
23580,-7.25,-3.125,6.4375,0
23600,-1.0625,-8.3125,14.4375,0
23620,2.25,-10.8125,16.25,0
23640,2.3125,-13.1875,9.8125,0
23660,0.125,-15.25,-2,0
23680,5.25,-12.4375,-15.875,0
23700,5.5625,-13.9375,-29.0625,0
23720,-0.25,-12.75,-42.375,0
23740,-27.625,-16.0625,-53.9375,0
23760,-52.875,-20,-66.8125,0
23780,-53.875,-23.4375,-85.75,0
23800,-37.8125,-27.3125,-103,0
23820,-17.5625,-29,-110.312,0
23840,1,-27.125,-106.562,0
23860,12.4375,-28.9375,-98.5625,0
23880,10.5625,-31.75,-93.1875,0
23900,-5.8125,-31.25,-90.5625,0
23920,-20.375,-28.1875,-90.125,0
23940,-33.25,-26.125,-87,0
23960,-41.5,-25.25,-78.75,0
23980,-41.125,-24.375,-69.3125,0
24000,-33.8125,-25.5,-60.6875,0
24020,-34.875,-26.6875,-53,0
24040,-40,-25.5625,-45.5,0
24060,-42.3125,-22.9375,-40.5625,0
24080,-40.875,-20.3125,-36.5,0
24100,-41.375,-18.9375,-31.5625,0
24120,-39.25,-17.6875,-26.4375,0
24140,-32.875,-14.875,-22.4375,0
24160,-26.5,-13.0625,-19.9375,0
24180,-24,-11.8125,-16.125,0
24200,-18.25,-9.4375,-13.0625,0
24220,-7.25,-5.8125,-11.75,0
24240,2.0625,-6.25,-10.3125,0
24260,-7.875,-8.875,-7.5,0
24280,-11.375,-7.5,-5.5,0
24300,-6.875,-4,-8.125,0
24320,-3.625,-3.3125,-8.0625,0
24340,-5.9375,-4.3125,-3.4375,0
24360,-0.1875,-3.3125,-0.5,0
24380,6.6875,-1.4375,-1.6875,0
24400,5.625,-2.25,-0.4375,0
24420,3.625,-3.5625,2.8125,0
24440,5,-2.4375,3.1875,0
24460,1.75,-2,3.1875,0
24480,0.25,-1.6875,2.8125,0
24500,-0.5,-1.5625,2.6875,0
24520,0.3125,-1.625,1.875,0
24540,-0.5,-1.9375,1.0625,0
24560,0.5625,-1.625,0.8125,0
24580,1.9375,-1,0.6875,0
24600,3.5,-1,1.1875,0
24620,1.6875,-1.625,3,0
24640,1.0625,-0.875,3.8125,0
24660,1.5,0.0625,3.25,0
24680,1.6875,0.875,2.5625,0
24700,1.125,0.9375,2.4375,0
24720,0.3125,1.125,3.6875,0
24740,6.625,2.25,5.5,0
24760,11.0625,1.375,7.6875,0
24780,9.625,-0.0625,11.5,0
24800,14.0625,0.125,16.1875,0
24810,16.375,0.0625,20.75,0
24830,18.75,-1.25,24.875,0
24850,16.9375,-3.375,28.4375,0
24870,9.5625,-5.1875,31.625,0
24890,4.5,-5.0625,33.375,0
24910,7.4375,-3.625,33.0625,0
24930,15.5,-3.375,31.5,0
24950,23.6875,-5.25,31.8125,0
24970,15.75,-10.0625,33.375,0
24990,14.8125,-10.4375,34.4375,0
25010,24.5,-6.6875,34.1875,0
25030,35.75,-3.75,33.9375,0
25050,36.75,-5.3125,36.5,0
25070,24.25,-7.8125,40.0625,0
25090,25.75,-2,42.8125,0
25110,29.1875,2.9375,41.625,0
25130,27.5,3.6875,44.5,0
25150,22.8125,5.375,50.0625,0
25170,27.125,10.5625,52.3125,0
25190,34.25,13.5,49.875,0
25210,37.3125,12.5625,48,0
25230,24.875,8.375,48.6875,0
25250,12.5625,5.875,45.875,0
25270,12.5625,6.1875,38.625,0
25290,11.75,4.6875,30.0625,0
25310,1.4375,0.5,26.5625,0
25330,0.625,0.25,22.0625,0
25350,-3.8125,0.0625,15.5,0
25370,-6.625,-0.875,9.8125,0
25390,-2,-1.75,2.875,0
25410,-4.0625,-3.6875,-3.9375,0
25430,-7.4375,-8.625,-8.5,0
25450,1.75,-10,-18.875,0
25470,10.3125,-12.5625,-29.75,0
25490,4,-16.5625,-38.625,0
25510,-1.3125,-17.8125,-47.75,0
25530,-4.5,-17.1875,-61.0625,0
25550,-4.4375,-18.3125,-68.0625,0
25570,-1.875,-16,-73.5,0
25590,9.25,-21,-82.4375,0
25610,11.125,-22.75,-83.8125,0
25630,11.625,-20.125,-84.5625,0
25650,5.0625,-21.8125,-82.6875,0
25670,-3.625,-26.9375,-79,0
25690,-10.75,-28.6875,-77.375,0
25710,-14.0625,-27.75,-72.875,0
25730,-18.5625,-28.0625,-68.0625,0
25750,-23.75,-31.4375,-62.4375,0
25770,-22.3125,-34.1875,-54.4375,0
25790,-24.75,-34.8125,-49.8125,0
25810,-24.1875,-36.6875,-45.6875,0
25830,-19.5,-36.125,-38.9375,0
25850,-16.75,-33.875,-31.875,0
25870,-17.0625,-33.8125,-27.1875,0
25890,-16.125,-35.375,-22.5625,0
25910,-12.5,-34,-16.1875,0
25930,-13.9375,-32.375,-10.625,0
25950,-16.8125,-30.25,-6.125,0
25970,-22.5,-29.5625,-4.0625,0
25990,-17.75,-27.6875,-3.25,0
26010,-12.125,-27,-3.625,0
26030,-11.75,-25.875,-2.5,0
26050,-14.4375,-24.25,0.6875,0
26070,-10.5,-20,2.625,0
26090,-8.25,-17.0625,4,0
26110,-10.625,-17.4375,8.125,0
26130,-4.6875,-16.625,11.3125,0
26150,2.25,-15.0625,11.3125,0
26170,3.9375,-14.5,11.25,0
26190,-3.125,-13.875,12.8125,0
26210,-7.375,-10.125,13,0
26230,-8.375,-6.625,12.0625,0
26250,-10.1875,-6.4375,10.8125,0
26270,-10.6875,-7.875,11.625,0
26290,-2.6875,-6.375,11.125,0
26310,3.625,-6.0625,8.9375,0
26330,1.5,-5.25,8.0625,0
26350,-2.25,-2.6875,7.125,0
26370,-3.4375,-0.4375,5.125,0
26390,-4.625,0.8125,3.25,0
26410,-4.5625,0.125,2.8125,0
26430,-5.5,-1.6875,4.6875,0
26450,-4.3125,-2.4375,5,0
26470,0.125,-0.4375,2.75,0
26490,-0.125,0.875,0.75,0
26510,-3.1875,2,1.25,0
26530,-3.375,3,1.875,0
26550,-1.6875,2.0625,1.9375,0
26570,2.1875,0.25,3,0
26590,3,-0.4375,2.875,0
26610,0.4375,0.1875,1.5625,0
26630,0.875,1.8125,1.0625,0
26650,-1.25,1,1.375,0
26670,-3.1875,0.625,0.1875,0
26690,0.1875,-0.0625,1,0
26710,3.8125,-1.3125,2.1875,0
26730,3.3125,-2.25,1.5,0
26750,1.5,-1.5,0.9375,0
26770,-1.25,-2.25,1.4375,0
26790,-4.625,-3.6875,2.5,0
26810,-3.8125,-4,2.9375,0
26830,-0.5,-2.75,2.6875,0
26850,-2.0625,-3.25,1.6875,0
26870,-1.0625,-4.4375,1.625,0
26890,5.4375,-4.75,1.5,0
26910,2,-6.625,2.8125,0
26930,0.8125,-6,3.6875,0
26950,4.5,-4.125,1.75,0
26970,5.1875,-3.5,0.3125,0
26990,2.5,-5.5,1.9375,0
27010,0.25,-6.4375,3.3125,0
27030,-2.625,-5.8125,3.125,1000
27050,-5,-5.25,2.75,0
27070,-8.625,-4.4375,1.75,0
27090,-4.6875,-3.0625,0.25,0
27110,0.1875,-2.4375,-1,0
27130,-1.125,-4.5625,-2.8125,0
27150,-0.4375,-4.625,-2.125,0
27170,1.625,-5.75,-2.0625,0
27190,-0.25,-5.9375,-2.1875,0
27210,-3.375,-5,-3.1875,0
27230,-5.6875,-4.3125,-1.9375,0
27250,-3.375,-3.8125,-1.8125,0
27270,-0.25,-3.75,-1.9375,0
27290,1.5,-4.8125,-0.5,0
27310,2.875,-4.875,-1.3125,0
27330,1.0625,-5.75,-1.3125,0
27350,-0.8125,-6.0625,-1.25,0
27370,-0.6875,-5.5625,-2.1875,0
27390,-1.625,-4.125,-3.6875,0
27400,-3.125,-5.5625,-4.125,0
27420,-3.625,-7.4375,-3.125,0
27440,-1.5625,-7.375,-2,0
27460,1.6875,-6.5,-0.625,0
27480,3.375,-7.0625,0.6875,0
27500,1.1875,-7.1875,1.125,0
27520,1.5625,-6.3125,0.125,0
27540,0.875,-5.3125,-0.5625,0
27560,-0.875,-5.25,0.1875,0
27580,0.125,-4.75,0.6875,0
27600,2.25,-5.6875,-0.375,0
27620,2.0625,-6.25,-0.4375,0
27640,2.3125,-6.8125,-0.5625,0
27660,2.625,-6,-1.5,0
27680,2.875,-5.125,-2.875,0
27700,-0.25,-6.0625,-3.125,0
27720,-3.625,-7,-2.3125,0
27740,-1.125,-5.3125,-2.6875,0
27760,1.4375,-4.5,-3.0625,0
27780,2.75,-5,-3.625,0
27800,2.625,-4.9375,-3.6875,0
27820,1,-5.625,-2.25,0
27840,1.3125,-5.625,-1.4375,0
27860,3.5,-5.8125,-2.5,0
27880,3.625,-6.8125,-2.9375,0
27900,1,-8.0625,-2.4375,0
27920,1.25,-8.6875,-1.625,0
27940,0.0625,-8.6875,-3.125,0
27960,-2.25,-6.4375,-3,0
27980,-3.6875,-4.6875,-4.5625,0
28000,-3.5625,-5.375,-5.5,0
28020,-0.125,-5.8125,-3.625,0
28040,3.5,-6.3125,-2.0625,0
28060,8.4375,-5.75,-2.6875,0
28080,7.6875,-5.3125,-3.75,0
28100,3.125,-5.75,-3.25,0
28120,-1.3125,-5.375,-3.375,0
28140,-0.625,-4.5625,-3.8125,0
28160,0.6875,-4.5,-3.375,0
28180,-1.3125,-3.5,-0.4375,0
28200,1.125,-0.6875,-0.125,0
28220,2.6875,-1.0625,-1.125,0
28240,0.625,-2.0625,0.625,0
28260,-2.0625,0.125,2.5,0
28280,0.5,2.5625,1.8125,0
28300,0.0625,3.375,0.625,0
28320,-0.25,2.25,-0.75,0
28340,-1.75,0.875,-2.625,0
28360,-0.75,-0.125,-3.8125,0
28380,1.8125,-1.25,-4.0625,0
28400,2.375,-2.5,-5.3125,0
28420,4.0625,-3.25,-7.625,0
28440,4.5625,-3.5625,-8.5,0
28460,2.25,-4.5,-8.3125,0
28480,-0.125,-4.1875,-8,0
28500,-0.9375,-2.75,-8.125,0
28520,-0.8125,-4.5,-9.125,0
28540,-0.4375,-5.6875,-7.25,0
28560,1.8125,-5,-6,0
28580,3.125,-4.5625,-5.8125,0
28600,2.5,-5.0625,-5.0625,0
28620,-0.0625,-4.9375,-4.25,0
28640,-0.8125,-3.9375,-4.5625,0
28660,-0.6875,-4.125,-4.25,0
28680,0.625,-4.125,-3,0
28700,-0.75,-4.875,-2.875,0
28720,-1.0625,-3,-2.3125,0
28740,3.75,-2.1875,-4.3125,0
28760,3.0625,-3.5,-5.0625,0
28780,0.625,-3.75,-3.5625,0
28800,1.5,-2.6875,-3.6875,0
28820,2.1875,-2.0625,-3.875,0
28840,-1,-1.8125,-3.5625,0
28860,-3,-1.5625,-3.875,0
28880,1,-0.0625,-4.4375,0
28900,2.25,1,-3.4375,0
28920,0.75,0.25,-2.8125,0
28940,3.0625,1.25,-5.25,0
28960,4.875,1.375,-7.625,0
28980,1.0625,0.625,-7.8125,0
29000,-2.4375,0.5,-7.0625,0
29020,1.1875,1.125,-8,0
29040,3.75,-0.1875,-9.4375,0
29060,0.875,-1.9375,-9.375,0
29080,-0.125,-2.4375,-9.5,0
29100,0.625,-1.75,-9,0
29120,0.5,-3.125,-9.4375,0
29140,-0.625,-2.1875,-9.8125,0
29160,-1.5,-0.1875,-10.8125,0
29180,-0.375,0.1875,-10.4375,0
29200,0.75,-2,-6,0
29220,1,-2.875,-3.875,0
29240,1.625,-3.0625,-4.3125,0
29260,0.9375,-3.6875,-4.8125,0
29280,-0.4375,-3.0625,-5.0625,0
29300,-0.4375,-1.1875,-5.875,0
29320,-1.1875,-0.9375,-6.3125,0
29340,-0.5625,-1.4375,-5.1875,0
29360,1.9375,-0.6875,-5.375,0
29380,4.1875,0.6875,-4.75,0
29400,3.8125,0,-5.1875,0
29420,-1.6875,-1.3125,-3.125,0
29440,-3.0625,1,-2.6875,0
29460,-2.75,2.125,-3.1875,0
29480,-0.6875,1.4375,-3.0625,0
29500,-0.375,-0.0625,-2.75,0
29520,-0.25,1.125,-3.5,0
29540,-0.1875,2.6875,-4.5,0
29560,-1.3125,3.1875,-4.25,0
29580,-2.625,4.375,-3.125,0
29600,-1.375,4.625,-1.875,0
29620,-1.25,4.3125,-1.0625,0
29640,-1.5,5.1875,-0.125,0
29660,-2.3125,6.6875,0.375,0
29680,-1.5,7.375,0.25,0
29700,-2.5625,6.125,-1.8125,0
29720,-4.5625,5.375,-4.375,0
29740,-2.375,4.9375,-7.5,0
29760,-2.125,3.125,-8.9375,0
29780,-2.5625,3.9375,-10.125,0
29800,-4.3125,4.375,-12.0625,0
29820,-3.0625,4.625,-13.6875,0
29840,-1.5,4.1875,-12.75,0
29860,-2.9375,3.75,-10.5625,0
29880,-4.1875,4.25,-8.625,0
29900,-0.0625,5.875,-6.75,0
29910,1.1875,3.75,-6.125,0
29930,-2,2.125,-4.25,0
29950,-2.875,3.8125,-3.625,0
29970,-2,6.625,-4.875,0
29990,-1.5625,7.6875,-6.4375,0
30000,-4.0625,6,-6.875,0
30020,-4.8125,5.8125,-9.8125,0
30040,-2.1875,6.3125,-14.125,0
30060,-1.6875,6.75,-14.6875,0
30080,-3.5625,6.4375,-15,0
30100,-2.8125,7.5,-15.1875,0
30120,-2.1875,7.1875,-16.25,0
30140,-4,7.8125,-15.375,0
30160,-4.5625,8.8125,-14.4375,0
30180,-3.75,10,-13.0625,0
30200,-2,10.5625,-12.1875,0
30220,-2.125,10.0625,-12.875,0
30240,-3.125,10.125,-14.5,0
30260,-3.625,9.875,-14.6875,0
30280,-3.25,10.8125,-12.875,0
30300,-4.625,10.875,-9.75,0
30320,-4.5,11.625,-8.875,0
30340,-2.8125,11.8125,-9.75,0
30360,-1.4375,10.5625,-8.875,0
30380,-2.0625,9.4375,-7.6875,0
30400,-2.625,10.8125,-7.125,0
30420,-4.5,14,-6.625,0
30440,-4.5,16.8125,-5.25,0
30450,-4.6875,17.75,-4.25,0
30470,-0.5,16.9375,-4.75,0
30490,0.9375,16.125,-4.75,0
30510,-6.5,17.4375,-7.5625,0
30530,-8.8125,18.0625,-8.75,0
30550,-7.8125,18.625,-9,0
30570,-6.8125,18.9375,-10.3125,0
30590,-5.75,15.6875,-13.25,0
30600,-5.375,13.0625,-15,0
30620,-8.125,12.0625,-15.0625,0
30640,-8,13.0625,-13.75,0
30660,-6.625,15.75,-12.125,0
30680,-5.75,15.375,-10.6875,0
30700,-4.5625,16.5,-8.8125,0
30740,-4.1875,19.8125,-8.8125,0
30760,-4.8125,20,-9,0
30780,-2.875,19.3125,-9.8125,0
30800,-0.8125,17.6875,-9.625,0
30820,-2,17.25,-9.375,0
30840,-2.3125,16.5625,-9.3125,0
30860,-3.1875,14.5,-7.8125,0
30880,-4.5,13.875,-6.9375,0
30900,-4.1875,13.625,-7.125,0
30920,-2.375,12,-7,0
30940,-1.875,11.25,-5.4375,0
30960,-2.4375,12,-5.5,0
30980,-2.0625,11.125,-6.0625,0
31000,-2.25,10.6875,-5.5,0
31020,-2.3125,10.875,-4,0
31040,1.375,10.6875,-4.0625,0
31060,0.125,10.125,-3.6875,0
31080,-1.75,10.6875,-3.9375,0
31100,-3.75,11.5625,-4.625,0
31120,-2.375,11.5625,-5.5,0
31140,-2,9.9375,-4.5,0
31160,0.0625,9.8125,-5.8125,0
31160,1.5625,11,-8.5625,0
31170,-0.4375,11.625,-8.5,0
31190,-0.625,11.4375,-8.1875,0
31210,1.6875,12.0625,-8.5,0
31230,1.5,10.8125,-6.875,0
31250,0.5,11.3125,-4.8125,0
31270,-2.4375,12.1875,-3.625,0
31290,-3.1875,13.125,-3.3125,0
31310,-3.1875,12.25,-2.0625,0
31330,-3.125,11.6875,-0.5,0
31350,-3.75,11.625,-0.8125,0
31370,-3.0625,11.8125,-1.1875,0
31390,-3.5625,11.875,-0.1875,0
31410,-4.25,12,-1,0
31430,-3,11.4375,-2.5,0
31450,-1.125,10.625,-3.625,0
31470,-0.5625,10.375,-3.5625,0
31490,-2,10.5,-4.25,0
31510,-3.3125,10.8125,-5.8125,0
31530,-2.3125,10.75,-6,0
31550,-1.125,11.8125,-4.6875,0
31570,-1.5,13,-5.5625,0
31590,-0.5,13.5,-6.875,0
31610,-1.5625,12.75,-5.875,0
31630,-1.75,13,-5.4375,0
31650,-2.9375,13,-5.5625,0
31670,-1.8125,13.3125,-5.3125,0
31690,-1.5,14.0625,-2.5625,0
31710,-0.0625,14.1875,-0.6875,0
31730,-0.25,14.4375,-0.25,0
31740,0.8125,14.8125,0.9375,0
31750,0.5625,14.25,2.75,0
31770,0.125,13.75,3.1875,0
31790,0.3125,13.8125,2.125,0
31810,0.5,13.8125,1.9375,0
31830,-0.25,14.25,2.8125,0
31850,-1,15.0625,2.75,0
31850,-1.9375,15.375,0.75,0
31870,-0.6875,15,-0.8125,0
31890,-1.375,13.125,0.625,0
31910,-1.875,13.5,-0.125,0
31930,-0.5,14.375,-2.625,0
31950,0.5,14.0625,-1.625,0
31970,-1.8125,13.8125,-0.8125,0
31990,-1.875,14.375,-1,0
32010,0.9375,15.0625,-0.3125,0
32030,0.0625,14.6875,1.1875,0
32050,-2.875,15.125,0.9375,0
32070,-2.75,15.4375,1.375,0
32090,-1.125,16.3125,2.5,0
32110,-1.8125,16.5625,2.3125,0
32130,-0.75,15.625,0.6875,0
32150,-0.375,14.375,-0.3125,0
32170,-0.5625,13.25,2.75,0
32190,-0.375,13.375,2.875,0
32210,1.9375,14.0625,2.8125,0
32230,2.3125,15.3125,3.625,0
32250,-0.125,15.6875,5.8125,0
32270,-2.125,15.5625,8.4375,0
32290,1.375,16.125,7.75,0
32310,4.5,16.3125,8.125,0
32330,2.0625,16.4375,10.3125,0
32350,0.6875,18.1875,10.875,0
32370,0.375,18.1875,10.0625,0
32390,0.0625,17.5,12.8125,0
32410,0.9375,16.4375,12.0625,0
32430,5.8125,15.6875,9,0
32440,7.625,16.1875,7.5625,0
32460,4.0625,15.5,8.1875,0
32480,2.375,15.25,7.125,0
32500,1.0625,15.4375,5.375,0
32520,1.5,16.25,5.9375,0
32540,1.3125,15.875,7.0625,0
32560,5.5,15.5,8.1875,0
32580,8.4375,13.3125,8.125,0
32600,7.375,10.8125,9.375,0
32620,4.25,8.6875,9.5,0
32640,4.125,7.1875,7.25,0
32660,2.75,5.4375,5.0625,0
32680,3.875,4.9375,2.625,0
32700,2.8125,3.4375,1,0
32720,0.3125,3.875,0.625,0
32740,-0.4375,5.5,1.0625,0
32760,1.625,6.0625,2,0
32780,1.875,7.0625,5.0625,0
32800,5.0625,9,6.4375,0
32820,5.75,10.1875,5.5,0
32840,4.5625,9.6875,5.3125,0
32860,2.75,8.5,6.125,0
32880,-0.25,6.4375,6.25,0
32900,0.3125,5.0625,6.0625,0
32920,2.6875,4.625,5.875,0
32940,4.25,3.8125,4.5625,0
32960,4.4375,1.9375,3.3125,0
32980,2.9375,1.25,3.6875,0
33000,1.4375,2.4375,4,0
33020,-0.875,5,4.4375,0
33040,-0.5,6.3125,5.25,0
33060,0.625,7.25,6.25,0
33080,1.1875,6.875,6.1875,0
33100,3.8125,5.125,6,0
33120,3.9375,3.875,6.4375,0
33140,2.5,4.625,7.6875,0
33160,0.9375,6.5625,6.8125,0
33180,-1.3125,7.0625,5.375,0
33200,-3.0625,6.9375,5.5625,0
33220,-0.875,7.5625,5.875,0
33240,3,7.3125,6.625,0
33260,0.875,6.5625,5.75,0
33280,-0.9375,5.8125,4.625,0
33300,0.0625,4.8125,3.5625,0
33320,0.0625,4.5625,4.1875,0
33340,-1.125,4,4.6875,0
33360,0.5,4.75,5.0625,0
33380,-0.3125,5.625,5.625,0
33400,-0.5625,6,5.625,0
33420,2.6875,5.3125,4.75,0
33440,2.875,4.25,3.625,0
33460,-0.0625,2.9375,3.3125,0
33480,-0.875,2.1875,3.5,0
33500,-0.8125,0.5,2.3125,0
33520,-2.4375,-0.4375,2,0
33540,-0.125,-0.375,3.125,0
33560,1.4375,-1.75,3.0625,0
33580,0.8125,-2.625,2.9375,0
33600,2.1875,-1.375,3.5625,0
33620,3.5625,1,3.875,0
33640,1.5,1.6875,4.375,0
33660,-0.25,2.5625,4.625,0
33680,1.25,3.1875,5.3125,0
33700,1.5,3.1875,6.75,0
33720,3.6875,5,8.4375,0
33740,2.8125,6.375,9.875,0
33760,-0.9375,4.4375,10.125,0
33780,-1.75,3.375,8.8125,0
33800,0.75,4.3125,7.875,0
33820,2,3.125,7.8125,0
33840,-0.375,1.625,7.0625,0
33860,-1,1.375,6.1875,0
33880,0.5,2.5,6.1875,0
33900,0.625,3.4375,7.625,0
33920,0.5,4,8.75,0
33940,1.8125,4.3125,9,0
33960,3,4.125,8.9375,0
33980,2.875,3.3125,9.375,0
34000,-0.3125,2.875,8.625,0
34020,-2.0625,2.1875,7.875,0
34040,-1.625,0.5,6.5625,0
34060,0.9375,-0.875,6.0625,0
34080,0.3125,-1.875,6.125,0
34100,-0.5625,-1.625,5.75,0
34120,0.5,-0.25,5.25,0
34140,-1,0.3125,5.4375,0
34160,-0.3125,1.5625,6.4375,0
34180,1.75,2,7,0
34200,1.6875,0,8.0625,0
34220,-0.75,-0.25,8.3125,0
34240,0.4375,1,6.875,0
34260,1.9375,-0.4375,6,0
34280,-1.125,-3.125,6,0
34300,-1.5,-4.1875,5.1875,0
34320,0.8125,-4.1875,4.4375,0
34340,1.9375,-4.4375,5,0
34360,-0.3125,-4.5,5.25,0
34380,-0.125,-2.4375,4.375,0
34400,1.8125,-1.9375,3.4375,0
34420,1.1875,-1.9375,3.375,0
34440,1.6875,-1.9375,4.25,0
34460,2.0625,-2.0625,4.9375,0
34480,2.6875,-1.4375,4.5625,0
34500,2.75,-0.9375,4.4375,0
34520,-0.3125,-1.1875,5.3125,0
34540,-2.875,-0.6875,6.625,0
34560,-2.8125,0.5625,6.625,0
34580,-4.5625,1.625,7.3125,0
34600,-2.4375,2.0625,6.875,0
34620,0.4375,1.4375,5.75,0
34640,0.625,1,4.5,0
34660,-1.75,0.875,3.5625,0
34680,-1.9375,0.4375,3.1875,0
34700,-2,-0.3125,3.5,0
34720,-3,-0.8125,4.125,0
34740,-2.625,-1.625,4.0625,0
34760,-1.8125,-1.6875,4,0
34780,-3.0625,-0.9375,4.9375,0
34800,-0.1875,-0.4375,4.75,0
34820,-0.25,-2.5625,4.5,0
34840,-3.125,-4.25,5.375,0
34860,-2.5625,-3.9375,5.25,0
34880,0.3125,-4.75,4,0
34900,-0.375,-5.5,3.8125,0
34920,-1.0625,-5.625,4.625,0
34940,-0.25,-6.4375,4.5,0
34960,0.875,-6.75,5.375,0
34980,-1.6875,-5.6875,6.625,0
35000,-3,-4.875,6.8125,0
35020,-2.375,-5.625,5.8125,0
35040,-3.125,-6.75,5.75,0
35050,-3.5625,-7,6.1875,0
35070,-0.6875,-6.5,5.875,0
35090,0.625,-6.875,5.1875,0
35110,-1.5625,-8,5.1875,0
35130,-1.25,-7.5625,4.125,0
35150,-0.3125,-6.6875,2.5625,0
35170,-2.125,-7.875,2.8125,0
35190,-1.875,-8.75,4.1875,0
35210,2.125,-7.9375,4.6875,0
35230,2,-8.25,4.75,0
35250,-1.25,-9.3125,5.375,0
35270,-1.5625,-9.0625,5.6875,0
35290,-0.8125,-7.875,5.25,0
35310,-2.5,-8.4375,4.875,0
35330,-3.375,-8.5,5.1875,0
35350,-0.5625,-7.75,5.125,0
35370,0.375,-8.5625,4.875,0
35390,-2.4375,-8.9375,5.125,0
35410,-1.625,-7.1875,5.3125,0
35430,0.375,-5.4375,4.625,0
35450,-0.5,-6,4.5,0
35470,-1.125,-5.875,3.625,0
35490,-0.25,-4.8125,2.125,0
35510,1.4375,-5.8125,1.5,0
35530,-0.125,-7.125,2,0
35550,0.4375,-7.0625,1.4375,0
35570,-0.0625,-7.875,0.5,0
35590,0.625,-8.625,-0.8125,0
35610,0.4375,-8.8125,-2.0625,0
35630,-0.625,-9.3125,-2.625,0
35650,-2.25,-10.25,-2.875,0
35670,-1.5625,-10.6875,-2.375,0
35690,-1.0625,-10.1875,-2.0625,0
35710,-3.0625,-10.25,-0.9375,0
35730,-2.875,-10.625,0.25,0
35750,-4.4375,-10,1.75,0
35770,-3.75,-9.125,2.875,0
35790,-3,-8.625,2.25,0
35810,-2.6875,-8.75,1.9375,0
35830,0.125,-9,2.75,0
35850,1.5,-8.5625,2.0625,0
35870,0.4375,-9.5,1.8125,0
35890,-2.1875,-9.625,2.25,0
35910,-2,-8.3125,2.5,0
35930,-1.5,-8.625,2,0
35950,-3.9375,-9.9375,1.5,0
35970,-0.3125,-9.25,0.9375,0
35990,2.6875,-8.875,0.75,0
36010,-0.0625,-10.4375,1.25,0
36030,-3.4375,-10,0.875,0
36050,-2.6875,-8.875,0.375,0
36070,-2.4375,-8.9375,0.625,0
36090,-3.9375,-11.3125,1.4375,0
36110,-5.5625,-11.5625,1.75,0
36130,-2.125,-10.125,2,0
36150,-1.75,-10.3125,2.5,0
36170,-5.6875,-10.6875,3.0625,0
36190,-6.0625,-10.0625,2.75,0
36210,-3.8125,-8.8125,1.5625,0
36230,-3.625,-8.5625,1.5,0
36250,-5.1875,-10.125,2.8125,0
36270,-4.0625,-8.9375,3.5625,0
36290,-0.5625,-7,3.3125,0
36310,-0.375,-9.1875,3.875,0
36330,-5.5,-10.6875,3.875,0
36350,-4.625,-9.25,3.125,0
36370,-2.1875,-9,2.8125,0
36390,-3,-10.6875,2.875,0
36410,-3.375,-11.5625,3.0625,0
36430,-2.5625,-10.6875,2.5625,0
36450,-2.9375,-10.9375,2.375,0
36470,-3.25,-11.4375,3.4375,0
36490,-5.125,-11.375,4.1875,0
36510,-2.875,-9.875,4.4375,0
36530,-1,-9.4375,3.8125,0
36550,-3.3125,-11.6875,4.1875,0
36570,-6.8125,-11.4375,4.4375,0
36590,-2.6875,-8.875,4.5,0
36610,-1.875,-9.5625,4.75,0
36630,-4.9375,-10.625,4.1875,0
36650,-4.5,-9.1875,2.5,0
36670,-1.0625,-8.9375,1.8125,0
36690,-0.625,-11.1875,1.75,0
36710,-1.9375,-10.6875,1.1875,0
36730,-2,-9.5,0.125,0
36750,-1.75,-10.3125,0,0
36770,-2.75,-11.375,0.375,0
36790,-3.375,-11.0625,0.4375,0
36810,-1.1875,-10.8125,1.125,0
36830,-1.25,-11.375,1.0625,0
36850,-3.0625,-11.5625,0.6875,0
36870,-4.125,-11.125,1.375,0
36890,-3.875,-11.125,1.4375,0
36910,-3.5625,-10,0.5,0
36930,-2.1875,-10.25,0.125,0
36950,-6.5625,-11.8125,0.125,0
36970,-7.5625,-9.1875,-0.8125,0
36990,-3.125,-8.375,-2.0625,0
37010,-3.375,-10.75,-3.6875,0
37030,-2.9375,-11.5625,-3.6875,0
37050,1,-11.125,-2.8125,0
37070,1.875,-11.5625,-2.5,0
37090,1.0625,-12.3125,-2.25,0
37110,-2.5625,-13.1875,-1.125,0
37130,-6.3125,-13.5625,-0.25,0
37150,-5.0625,-13.5625,-1.3125,0
37170,-4.5,-14.1875,-1.9375,0
37190,-6.25,-15,-2.6875,0
37210,-4.875,-14.75,-2.3125,0
37230,-0.9375,-14.1875,-2.125,0
37250,0.75,-14.125,-2.5,0
37270,-1.5,-14.75,-2.5,0
37290,-3.1875,-15.25,-1.4375,0
37310,-3.5625,-15.5,-1.375,0
37330,-1.6875,-14.0625,-2.5,0
37350,-1.9375,-13.375,-2.75,0
37370,-2,-14.8125,-1.9375,0
37390,-1.75,-14.25,-2.125,0
37410,-0.625,-13.375,-2.5625,0
37430,-2.25,-12.75,-2.625,0
37450,-3.125,-13.25,-2.5,0
37470,-1.5,-12.25,-3.125,0
37490,0.4375,-11.4375,-3.8125,0
37510,-0.125,-11.625,-3.625,0
37530,-0.75,-12.5,-3.3125,0
37550,0.3125,-12.4375,-3.125,0
37570,-0.8125,-11.6875,-2.75,0
37590,-2.625,-11.875,-2.5,0
37610,-2.25,-11.5,-2.5625,0
37630,-1.6875,-11.5625,-2.8125,0
37650,-2.25,-12.0625,-2.3125,0
37660,-3.125,-12.4375,-2,0
37680,-1.9375,-11.9375,-3.3125,0
37700,-0.8125,-11.375,-4.6875,0
37720,0.0625,-12.3125,-4.25,0
37740,-2.5,-14,-4.125,0
37760,-2.25,-13,-4.3125,0
37780,-1.1875,-12.3125,-4.8125,0
37800,-1.25,-13.0625,-4.5,0
37820,-3.4375,-13.75,-3.625,0
37840,-2.1875,-13.5,-3.0625,0
37860,1.8125,-13.3125,-2.625,0
37880,0.1875,-15.1875,-2.8125,0
37900,-2.875,-15.4375,-2.75,0
37920,-2,-13.0625,-2.5,0
37940,-1.3125,-12.6875,-2.9375,0
37960,-2.9375,-13.4375,-2.625,0
37980,-0.8125,-13,-2.5625,0
38000,0.75,-11.6875,-2.5625,0
38020,0.4375,-12.3125,-2,0
38040,-1.3125,-12.4375,-1.125,0
38060,-2,-11.3125,-0.3125,0
38080,-1.375,-10.75,-0.25,0
38100,-2.625,-10.9375,-0.375,0
38120,-1.1875,-10.625,-0.75,0
38140,-0.125,-9.875,-1.625,0
38160,-1.1875,-10,-2.625,0
38180,-0.9375,-9.625,-4.125,0
38200,0.3125,-9.0625,-5.0625,0
38220,0.6875,-9.25,-5.625,0
38240,-1,-11,-5.5,0
38260,-1.5,-11.375,-5.3125,0
38280,-2.3125,-10.75,-4.4375,0
38300,-0.875,-10.3125,-4.125,0
38320,-1.3125,-11.8125,-5.0625,0
38340,-2.375,-12.0625,-4.875,0
38360,-0.1875,-11.75,-5,0
38380,-1.0625,-12.25,-6,0
38400,-2.5,-12.3125,-5.875,0
38420,-2,-11.75,-6,0
38440,-2.125,-11.0625,-6.0625,0
38460,-3.4375,-10.5,-5.375,0
38480,-1.6875,-9.875,-4.3125,0
38500,1.25,-10.5,-3.6875,0
38520,1.75,-10.3125,-4.3125,0
38540,0.125,-9.6875,-4.6875,0
38560,-1.5625,-8.125,-4.4375,0
38580,-2.375,-7.625,-5.25,0
38600,-3.125,-6.625,-5.5,0
38620,-2.5,-6.25,-5.9375,0
38640,0,-5.875,-6.375,0
38660,3.3125,-5.1875,-5.375,0
38680,2.375,-5.0625,-5.0625,0
38700,0.6875,-4.4375,-4.5,0
38720,2.4375,-4.1875,-5,0
38740,2.4375,-4.5625,-5.4375,0
38760,-1.3125,-5.0625,-6.1875,0
38780,-0.375,-5.4375,-6.4375,0
38800,1.625,-5.5,-7.6875,0
38820,1.75,-4.875,-6.875,0
38840,1.125,-4.6875,-7.0625,0
38860,0.9375,-6.0625,-6.75,0
38880,0,-5.6875,-6.3125,0
38900,1.875,-4.625,-4.8125,0
38920,0.875,-5.625,-4.375,0
38940,-0.4375,-7.375,-5.25,0
38960,-0.625,-6.8125,-5.875,0
38980,-1.3125,-5,-4.75,0
39000,-0.5625,-5.1875,-5.25,0
39020,-0.625,-5.375,-6.25,0
39040,-1.4375,-3.5625,-6.8125,0
39060,0,-3.625,-6.8125,0
39080,-1,-6.3125,-5.125,0
39100,0.625,-6,-5.3125,0
39120,1.6875,-5.25,-7.75,0
39140,0.3125,-5.75,-6.5625,0
39160,-0.8125,-5.4375,-5.5,0
39180,-2.3125,-5.0625,-7.375,0
39200,-2.375,-4.25,-8.25,0
39220,-1.5625,-3.25,-6.8125,0
39240,-1.125,-1.9375,-5.6875,0
39260,0.375,-0.875,-5.9375,0
39280,3.5625,-1.1875,-5.5,0
39300,2.8125,-1.9375,-4.4375,0
39320,-0.9375,-1.5625,-2.9375,0
39340,-0.1875,-1.25,-3.625,0
39360,-0.3125,-2.375,-4.3125,0
39380,-1.625,-3.1875,-4.0625,0
39400,-2,-2.625,-4.3125,0
39420,1.1875,-2.8125,-5.5,0
39440,-0.0625,-3.8125,-7.125,0
39460,-2.5625,-4.8125,-6.875,0
39480,-0.875,-2.875,-6.9375,0
39500,0.625,-4.1875,-8.1875,0
39520,-2.875,-5.875,-6.125,0
39540,-1.8125,-3.875,-5.375,0
39560,1.875,-1.625,-6.75,0
39580,1.25,-3.4375,-6.9375,0
39600,-0.5,-4.0625,-5.8125,0
39620,-0.6875,-1.8125,-6.6875,0
39640,-0.5625,-1,-7.9375,0
39660,-1.0625,-1.0625,-7.9375,0
39680,-1.6875,-1.0625,-7.4375,0
39700,-1.0625,-1,-7.125,0
39720,0.9375,0.0625,-7.9375,0
39740,0.75,0.6875,-8.4375,0
39760,-2.1875,0.0625,-6.125,0
39780,-2.125,1.8125,-4.9375,0
39800,0,1.6875,-6.6875,0
39820,-0.3125,1.5625,-6.375,0
39840,-0.9375,2.3125,-5.125,0
39860,0.625,1.9375,-6.0625,0
39880,-0.125,1.8125,-8.0625,0
39900,-2,2.5625,-7.6875,0
39920,-2.75,3.8125,-7.375,0
39940,-1,3.5,-9.125,0
39960,0.125,2.4375,-10.1875,0
39980,-0.375,3.5625,-9.6875,0
40000,-1.125,4.6875,-8.125,0
40020,0,4.6875,-8.9375,0
40040,0.125,4.3125,-8.4375,0
40060,1.6875,5.125,-9.375,0
40080,-0.75,3.5,-9.75,0
40100,-1.375,3.8125,-9.5625,0
40120,-0.5,5.4375,-10.3125,0
40140,-1.25,6.25,-10.3125,0
40160,-2.0625,6.3125,-9.6875,0
40180,-2.125,6.6875,-9.5625,0
40200,0.625,7.8125,-9.5,0
40220,2.0625,8.9375,-7.8125,0
40240,0.875,9.1875,-7.125,0
40250,-1.9375,8.625,-7.4375,0
40270,0.375,7.9375,-8.8125,0
40290,1.6875,8.375,-7.5,0
40310,-1.4375,8.5,-6.375,0
40330,-1.625,8.4375,-6.75,0
40350,-0.3125,7.4375,-7.5,0
40370,-0.3125,6.625,-7.375,0
40390,-1.6875,7.8125,-7.4375,0
40410,-2.125,7.4375,-8.3125,0
40430,-1.75,6.875,-8.1875,0
40450,0.5,7.8125,-8.1875,0
40470,-0.0625,8.8125,-8.5625,0
40490,0.1875,8.5,-7.5625,0
40510,-0.75,8.375,-6.3125,0
40530,-2.0625,8.5625,-5.875,0
40550,-1.6875,8.5625,-7.4375,0
40570,-1.5625,6.4375,-8,0
40590,-1.3125,6.125,-8.5,0
40610,-2.0625,7.1875,-9.375,0
40630,-3.875,7.9375,-8.75,0
40650,-3.5625,8.8125,-8.5625,0
40670,-0.5,9.625,-8.125,0
40690,1.625,8.875,-8.125,0
40710,0.5,8.8125,-7.0625,0
40730,-0.75,10.375,-6.0625,0
40750,-1.5,9.0625,-7.75,0
40770,-3.3125,6.75,-9.875,0
40790,-2.9375,6.3125,-11,0
40810,-2,7.75,-11.5,0
40830,-3.0625,7.5,-11.625,0
40850,-2.5,6.875,-12.8125,0
40870,-2,5.6875,-13.8125,0
40890,-2.9375,6.375,-13.8125,0
40910,-4.5,7.1875,-12.75,0
40930,-5.6875,8.1875,-12.4375,0
40950,-4.1875,9.25,-12.3125,0
40970,-5.4375,10.0625,-11.25,0
40990,-7.8125,10.8125,-10.75,0
41010,-7.1875,11.625,-10.1875,0
41030,-3.9375,12.25,-9.9375,0
41050,-4.375,10.75,-9.125,0
41070,-4.125,10.9375,-9.75,0
41090,-4.25,10.9375,-9.8125,0
41110,-6.5,10,-7.6875,0
41130,-7.1875,10.75,-7,0
41150,-5.625,11.4375,-7.5,0
41170,-3.875,10.75,-7,0
41190,-4.3125,9.8125,-6.125,0
41210,-3.875,9.375,-7.125,0
41230,-3.4375,9.5,-7.4375,0
41250,-1.5,10.5625,-6.4375,0
41270,1.75,12.5625,-5.3125,0
41290,1.3125,10.1875,-7.3125,0
41310,3.125,7.125,-9.75,0
41330,1.5,6.375,-10.625,0
41350,-2.3125,7.8125,-10.375,0
41370,-2.6875,9.625,-9.8125,0
41390,-1.5,9.8125,-9.5,0
41410,2.1875,8.25,-10.6875,0
41430,2.625,5.4375,-11,0
41450,1.25,5.4375,-10,0
41470,-1.875,7,-8.625,0
41490,-4.8125,7.8125,-8.9375,0
41510,-5.75,8.9375,-9.0625,0
41530,-5.1875,9.125,-8.3125,0
41550,-5,8.3125,-9,0
41570,-6.875,8.875,-10.375,0
41590,-9.5,10.9375,-9.5625,0
41610,-9.5625,13.4375,-8.0625,0
41630,-8.375,13.25,-8.5625,0
41650,-8.4375,13.125,-9.0625,0
41670,-8.375,15,-7.125,0
41690,-7,16.3125,-4.6875,0
41710,-4.8125,16.625,-2.875,0
41730,-5.1875,15.875,-2.25,0
41750,-3.625,16.5,-0.875,0
41770,-4.25,16.375,-0.1875,0
41790,-6.6875,15.75,-0.4375,0
41810,-6.75,15.375,-1.8125,0
41830,-6.0625,14.4375,-1.375,0
41850,-6.25,13.8125,-1,0
41870,-5.375,13.5625,-2.9375,0
41890,-2.75,13.75,-3.875,0
41910,-3.25,14.375,-2.875,0
41930,-4.1875,15,-3.25,0
41950,-3.625,13.625,-3.9375,0
41970,-2.25,12.9375,-4.5,0
41990,-1.25,13.5,-5.1875,0
42010,-0.75,13.4375,-5.9375,0
42030,-4.5,13,-6.0625,0
42050,-6.375,13,-6.3125,0
42070,-5.25,12.8125,-7.6875,0
42090,-3.5,13.1875,-6.5,0
42110,-1.6875,14.1875,-6.1875,0
42130,-0.375,14.625,-7.0625,0
42150,-2,14.0625,-7.3125,0
42170,-3.875,13.3125,-7.4375,0
42190,-5.25,13.625,-7.9375,0
42210,-2.8125,14.3125,-7,0
42230,0.5,14.0625,-5.4375,0
42250,1.375,13.3125,-2.75,0
42270,-0.3125,14.0625,-1.5,0
42290,-0.375,15.1875,-2,0
42310,-3.125,15.1875,-1.8125,0
42330,-6.5625,15.6875,-1.125,0
42350,-4.625,16.3125,-0.75,0
42370,-1,16,0.125,0
42390,-1.0625,15.1875,-1.625,0
42410,1.6875,13.9375,-4.375,0
42430,1.125,13,-4.5625,0
42450,-2.375,13.3125,-2.75,0
42470,-3.625,14.0625,-2.75,0
42490,1.25,14.125,-3.0625,0
42510,3.1875,13.875,-1.25,0
42530,2.4375,15,0.3125,0
42550,1.4375,16.1875,0.6875,0
42570,-1.5,15.8125,2.75,0
42590,-4.4375,14.4375,4.5625,0
42610,-3.0625,12.9375,4.125,0
42630,-1.5,12.6875,3.9375,0
42650,-1.4375,13.1875,4,0
42670,-2.8125,13.4375,4,0
42690,-2.75,14.125,3.5625,0
42710,-1.9375,15.3125,4.5,0
42730,-1.9375,17,6.0625,0
42750,-0.625,19.125,6.75,0
42770,0.6875,16.875,4.5625,0
42790,1.4375,15.5625,3.8125,0
42800,1.125,15.1875,4.25,0
42820,0.1875,16.8125,5.375,0
42840,1,17.0625,4.75,0
42860,0.5,15.3125,5.1875,0
42880,0.375,16.1875,6.0625,0
42900,1.25,17.3125,5.125,0
42920,1.9375,16.375,4.9375,0
42940,-0.1875,15.125,6.6875,0
42960,-1.4375,14.5625,5.9375,0
42980,0.375,13.6875,3.6875,0
43000,0.625,12.375,3.75,0
43020,-1.1875,11.625,5,0
43040,0.25,12.125,4.1875,0
43060,1.75,10.6875,2.375,0
43080,0.5,7.9375,4.5625,0
43100,0.625,7.875,5.4375,0
43120,0.875,8.9375,6.0625,0
43140,0.5,9,5.125,0
43160,-0.5625,8,4,0
43180,0.0625,8.1875,5.25,0
43200,0.625,8.5625,5.8125,0
43220,0.25,8.375,5.0625,0
43240,1.375,7.9375,3.9375,0
43260,0.375,6.1875,4.5,0
43280,-1.3125,4.8125,4.375,0
43300,-1.25,4.4375,3.8125,0
43320,-0.1875,4,3.1875,0
43340,-0.5,3.0625,2.8125,0
43360,0.1875,3.0625,3.0625,0
43380,3.125,4.4375,3.4375,0
43400,4.375,5.5,4.875,0
43420,3.0625,6.9375,5.875,0
43440,1.5625,8.5,6.5,0
43460,0.9375,9.375,7,0
43480,1,8.25,8.125,0
43500,-2.3125,6.8125,9.5,0
43520,-6.5,7.8125,10.875,0
43540,-3.4375,10,9.6875,0
43560,-3.5,7.9375,7.9375,0
43580,-3,6.875,7.6875,0
43600,-1,6.25,6.6875,0
43620,-0.5625,5.625,6.8125,0
43640,-0.5625,6.375,6,0
43660,-0.3125,7.125,5.125,0
43680,0.1875,6.25,5.4375,0
43700,-1.1875,5.1875,6.375,0
43720,-1.875,6.0625,6.5625,0
43740,-2,7.0625,6.125,0
43760,-4.8125,5.1875,7.375,0
43780,-3.1875,4.3125,8,0
43800,-0.0625,4.0625,7,0
43820,1.8125,3.9375,6.25,0
43840,-0.1875,3.8125,5.5,0
43860,-0.5625,4.625,5.1875,0
43880,-1.1875,4.8125,4.375,0
43900,-1.625,5.25,4.375,0
43920,-0.75,5.1875,4.375,0
43940,-1.125,4.8125,4.6875,0
43960,-0.8125,3.625,4.9375,0
43980,0.6875,3.625,5.6875,0
44000,1.5,3.375,6.8125,0
44020,-1.5625,2.125,6.625,0
44040,-3,1.8125,5.3125,0
44060,-2.375,1.25,4.1875,0
44080,-3.0625,-0.375,4.1875,0
44100,-0.5625,0,4.5,0
44120,0.625,-1.0625,4.375,0
44140,2.6875,-1.0625,4.5625,0
44160,1.1875,-1.6875,3.875,0
44180,-1.8125,-1.75,3.5625,0
44200,-1.5,-1.4375,3.6875,0
44220,-1.25,-2.125,4.375,0
44240,-1.125,-3.3125,4.625,0
44260,0.5625,-2.625,4.5,0
44280,3.25,-1.6875,4.75,0
44300,1.8125,-1.9375,5.125,0
44320,-0.875,-2.625,5.6875,0
44340,-3.1875,-2.0625,5.8125,0
44360,-3.1875,-1.125,5.625,0
44380,-3.25,-1.3125,5.4375,0
44400,-1.0625,-1.8125,5.6875,0
44420,0.75,-2.5,5.8125,0
44440,1.625,-3.125,6.1875,0
44460,0.375,-2.5,6.1875,0
44480,1.5625,-1.1875,6,0
44500,-1.0625,-1.5,5.5625,0
44520,-1.875,-2.5625,5.75,0
44540,-0.1875,-2.1875,6.0625,0
44560,-0.4375,-1.9375,7.125,0
44580,-4.5,-1.625,8.375,0
44600,-6.9375,-1.25,9.4375,0
44620,-8.5,0,10.8125,0
44640,-8.625,1.6875,12.3125,0
44660,-9.75,1.375,11.625,0
44680,-10.3125,2.4375,9.8125,0
44700,-4.625,4.5,7.9375,0
44720,-0.1875,3.25,6.375,0
44740,1.5,1.125,6.3125,0
44760,1.125,1.0625,5.6875,0
44780,2.875,2,4.4375,0
44800,2.9375,1.125,4.0625,0
44820,-1.5625,-0.9375,4.4375,0
44840,-2.5625,-2.5625,4.5625,0
44860,-3.5,-3.25,3.25,0
44880,-0.625,-3.3125,3.4375,0
44900,0.75,-3.9375,3.3125,0
44920,1.1875,-4.875,3.5625,0
44940,2.625,-5.25,3.5625,0
44960,1.625,-4.6875,3.3125,0
44980,-0.0625,-3,3.75,0
45000,-1.875,-1.3125,5.25,0
45020,0.375,0.8125,6.375,0
45040,1.8125,0.5,6.25,0
45060,0.5625,0.3125,5.875,0
45080,1.625,1.375,6.375,0
45100,2.125,1.875,6.3125,0
45120,0.5,1.5,6.3125,0
45140,2.75,2,7.0625,0
45160,3.25,2.0625,7.25,0
45180,0.1875,1.3125,7.0625,0
45200,-0.9375,1.9375,7,0
45220,0.4375,1.6875,6.8125,0
45240,-0.1875,0.5625,6.75,0
45260,1.6875,0.625,6.25,0
45280,2.8125,-1.25,5.625,0
45300,0.5,-2.9375,5.3125,0
45320,1.5625,-3.0625,5.125,0
45340,2.1875,-3.125,4.9375,0
45360,1.75,-4.5625,5.8125,0
45380,-0.9375,-5.5,6.25,0
45390,-1.3125,-5.0625,6.1875,0
45410,1.5,-5,5.125,0
45430,0.625,-7.5,4.6875,0
45450,-0.75,-7.5,5.3125,0
45470,1.1875,-7.0625,5.4375,0
45490,2.4375,-6.3125,6.125,0
45510,3.125,-4.9375,7.25,0
45530,0.125,-4.75,7.875,0
45550,-1.25,-4.75,7.75,0
45570,0.875,-4.125,8.3125,0
45590,-0.0625,-3.5625,8.1875,0
45610,0.125,-3.1875,6.75,0
45630,1.9375,-4.1875,5.0625,0
45650,1.1875,-5.8125,5.0625,0
45670,2.25,-6.1875,5.1875,0
45690,3.875,-5.5,4.6875,0
45710,3.75,-5.1875,4.875,0
45730,1.5,-5.5625,4.875,0
45750,1.375,-5,5.3125,0
45770,0.75,-4.4375,6.5625,0
45790,1,-4.3125,7.375,0
45810,-0.25,-4,6.75,0
45830,-0.375,-3,6.8125,0
45850,0.5,-3.4375,6.8125,0
45870,-0.5,-5.0625,6.4375,0
45890,-2.125,-5.875,6.375,0
45910,-0.625,-4.6875,6.5,0
45930,2.9375,-3.875,5.625,0
45950,0.8125,-5.875,4.1875,0
45970,-2.3125,-6.125,4.25,0
45990,0.6875,-5,4.5625,0
46010,1,-5.0625,4.25,0
46030,1.5,-5.125,3.5,0
46050,2.4375,-5.8125,2.6875,0
46070,-0.875,-8.125,3.3125,0
46090,-0.9375,-7.3125,3.9375,0
46110,3,-6.5,3.1875,0
46130,-1.375,-8.4375,3.375,0
46150,-2.5625,-7.3125,3.6875,0
46170,-0.25,-6.5625,3.4375,0
46190,-2.0625,-7.375,4,0
46210,-1.75,-6.625,4.5,0
46230,-1,-5.625,4.0625,0
46250,0.5625,-5.75,4.25,0
46270,1.3125,-6.375,3.875,0
46290,-0.8125,-7.5625,3.5625,0
46310,1.375,-6.25,3.625,0
46330,3.3125,-5.375,2.875,0
46350,0.75,-7.8125,2.125,0
46370,-2.9375,-8.0625,2.3125,0
46390,2.25,-7.4375,2.625,0
46410,4.1875,-7.5625,1.8125,0
46430,3.4375,-7.8125,2.5,0
46450,-0.8125,-8.6875,2.6875,0
46470,2.5,-7.4375,3.0625,0
46490,5.4375,-7.1875,3.1875,0
46510,3.6875,-8.75,3.875,0
46530,0.4375,-8.8125,3.125,0
46550,-0.6875,-8.9375,3.1875,0
46570,-0.0625,-9.8125,3.5625,0
46590,-0.125,-9.75,3.3125,0
46610,1.1875,-9.8125,3.375,0
46630,-0.5,-10.3125,3.5,0
46650,-2.375,-10.9375,3.6875,0
46670,-1.4375,-10.1875,2.8125,0
46690,0.625,-10.5625,2.6875,0
46710,-3.0625,-12.125,3.1875,0
46730,-4.5625,-11.5625,3.0625,0
46750,-1,-10.625,2.6875,0
46770,-1.25,-12.0625,2.875,0
46790,-3.4375,-12.875,3.0625,0
46810,-2,-11.375,2.625,0
46830,-1.3125,-13,2.0625,0
46850,-3.875,-13.6875,1.75,0
46870,-2.8125,-11.625,1.9375,0
46890,-1.9375,-11.9375,2.6875,0
46910,-1.375,-13.375,3.0625,0
46930,-2.0625,-12.5,2.25,0
46950,-2,-11.75,2.5,0
46970,0.5,-12.1875,2.75,0
46990,-2.5625,-13.0625,2.625,0
47010,-6.5,-12.5,2.5625,0
47030,-2.25,-11.125,3.1875,0
47050,0.3125,-12.3125,2.6875,0
47070,-1.0625,-12.5625,2.875,0
47090,-1.75,-10.875,3.625,0
47110,-2.125,-10.0625,3.5,0
47130,-0.25,-9.125,2.8125,0
47150,0,-10.25,2.625,0
47170,-3.0625,-11.0625,2.75,0
47190,-0.625,-9.125,3.1875,0
47210,-0.9375,-10.0625,3.25,0
47230,-3.8125,-11.375,2.375,0
47250,-4.75,-9.1875,1.6875,0
47270,-2.875,-9.5,1.875,0
47290,-2.5,-11.5625,1.8125,0
47310,-3.4375,-10.625,0.875,0
47330,-1.4375,-9.1875,0,0
47350,-0.4375,-10.875,-0.5625,0
47370,-3.125,-12.0625,-0.5625,0
47390,-2.8125,-9.875,-0.0625,0
47410,-1.625,-9.875,-0.25,0
47430,-3.3125,-12.25,0.0625,0
47450,-4.8125,-12.25,0.75,0
47470,-4.625,-10.3125,0.5625,0
47490,-2.9375,-10.875,0,0
47510,-4.6875,-12.125,-0.1875,0
47530,-5,-10.375,-0.4375,0
47550,-2,-9.1875,-1.0625,0
47570,-2.5625,-11.0625,-0.875,0
47590,-3.6875,-10.75,-0.125,0
47610,-1.8125,-9.375,-0.25,0
47630,-0.3125,-10.9375,-0.375,0
47650,-4.25,-11.5,-0.125,0
47670,-5.125,-9.1875,-0.5,0
47690,-1.6875,-8.625,-0.875,0
47710,-2.6875,-11.125,-0.9375,0
47730,-3.6875,-11.8125,0.1875,0
47750,-3.3125,-10.4375,0.25,0
47770,-1.6875,-11.8125,-0.5,0
47790,-2.8125,-12.9375,-1.0625,0
47810,-4,-11.3125,-0.1875,0
47830,-3.125,-11.0625,-0.125,0
47850,-2.8125,-11,-1.1875,0
47870,-1,-9.8125,-1.5,0
47890,-2.5,-9.6875,-1.1875,0
47910,-2.625,-10.125,-0.375,0
47930,0.8125,-10.4375,-0.3125,0
47950,1.1875,-9.75,-0.5,0
47970,0.375,-9.625,0.1875,0
47990,-1.25,-9.5,1.25,0
48000,-2.3125,-9.25,2.6875,0
48020,-2.3125,-8.125,3.6875,0
48040,-2.375,-7.6875,3.4375,0
48060,-2.0625,-8.0625,3.5,0
48080,-3.3125,-7.25,4.3125,0
48100,-1.0625,-6.0625,4.375,0
48120,0.625,-7.1875,4.375,0
48140,-1.8125,-7,4.9375,0
48160,-1.9375,-5.375,5.125,0
48180,1,-5.375,5,0
48200,-0.6875,-6.625,4.25,0
48220,0.0625,-6.125,4.125,0
48240,2.4375,-6.6875,4,0
48260,3,-7.5,4.5625,0
48280,0.5,-7.9375,4.25,0
48300,-0.1875,-7.75,4.0625,0
48320,-0.1875,-8.25,3.375,0
48340,-2.375,-8.6875,2.75,0
48360,-1.25,-8.3125,2.0625,0
48380,-0.375,-8.8125,1.6875,0
48400,0.25,-8.75,1.5,0
48420,-0.0625,-8.375,0.125,0
48440,-0.1875,-9.0625,-0.5625,0
48460,0.375,-8.75,0,0
48480,1.25,-8.0625,0.4375,0
48500,0,-8.6875,-0.0625,0
48520,-0.5625,-9.0625,-0.5625,0
48540,0.1875,-8.5625,-0.5625,0
48560,-1.4375,-9.125,-0.8125,0
48580,-3.125,-10.375,-1.75,0
48600,-5.375,-9.5,-0.6875,0
48620,-22.8125,-17,10.0625,0
48640,-2.875,-17.25,7.1875,0
48660,24.125,-16.9375,-1.75,0
48680,22,-18.75,-0.5,0
48700,6.125,-16.75,-1.8125,0
48720,-6,-13,-6.0625,0
48740,-15.75,-10.0625,-8.1875,0
48760,-15.5625,-8.9375,-8,0
48780,-9.3125,-10.4375,-6.375,0
48800,-2.1875,-13.1875,-4.25,0
48820,5.25,-13.8125,-4.4375,0
48840,11.125,-12.625,-3,0
48860,7.875,-12,-2.75,0
48880,-1.375,-10.3125,-4.75,0
48900,-7.0625,-8.0625,-7.125,0
48920,-7.375,-6.1875,-7.0625,0
48940,-6.875,-7.4375,-6.25,0
48960,-9.1875,-9.5625,-5.3125,0
48980,-1.4375,-8.5625,-6.4375,0
49000,6.875,-8,-5.9375,0
49020,3.5625,-8.625,-5.5625,0
49040,-0.5625,-8.5625,-6.5,0
49060,-3.75,-6.9375,-6.75,0
49080,-1.0625,-5.625,-6.125,0
49100,-4.0625,-7.25,-5.9375,0
49120,-5,-8.25,-4.8125,0
49140,-1.125,-7.625,-4.3125,0
49160,2.0625,-7.625,-3.1875,0
49180,-0.125,-8.4375,-3.1875,0
49200,-1.5625,-8.25,-3.5625,0
49220,-1,-6.875,-3.125,0
49240,-0.0625,-6.875,-4.0625,0
49260,0.125,-7.9375,-4.9375,0
49280,-1.5,-7.5625,-5.1875,0
49300,-1,-7.0625,-3.9375,0
49320,0.9375,-7.375,-3.3125,0
49340,0.625,-7.625,-3.875,0
49360,-0.6875,-7.125,-3.4375,0
49380,1,-6.375,-3.375,0
49400,-0.4375,-7.625,-4.5625,0
49420,-0.9375,-7.5625,-4,0
49440,0.125,-7.25,-3.9375,0
49460,0.3125,-7.5,-4.25,0
49480,1.3125,-7.125,-4.25,0
49500,2.25,-7.375,-4.875,0
49520,-1.5625,-9.375,-4.4375,0
49540,-2.8125,-9.5625,-4.4375,0
49560,-2.0625,-7.8125,-6.125,0
49580,-0.375,-7.8125,-6,0
49600,-2.25,-9.875,-6.0625,0
49620,-1.875,-10.75,-5.9375,0
49640,-0.0625,-9.4375,-6.125,0
49660,0.1875,-8.8125,-6.4375,0
49680,-2.9375,-9.125,-7.1875,0
49700,-4.3125,-9.4375,-7.3125,0
49720,-2.75,-7.875,-6.6875,0
49740,-0.9375,-7.125,-6.125,0
49760,-2,-8.0625,-5.875,0
49780,-2.25,-7.8125,-5.75,0
49800,0.9375,-6.625,-6.1875,0
49820,1.6875,-6.3125,-6.6875,0
49840,-2.75,-7.4375,-6.3125,0
49860,-5.6875,-6.9375,-6.1875,0
49880,-5.1875,-5.5625,-6.125,0
49900,1.9375,-6.75,-6.8125,0
49920,6.5625,-9.75,-7.875,0
49940,3,-10.9375,-8.75,0
49960,2.0625,-9.6875,-9.1875,0
49980,3.1875,-9.4375,-10,0
50000,-2.25,-10.5625,-10.5625,0
50020,-5.875,-10.4375,-11.3125,0
50040,-2.875,-9.0625,-10.6875,0
50060,-0.875,-8.5625,-9.1875,0
50080,0.3125,-8.0625,-8.75,0
50100,3.25,-6.9375,-9.6875,0
50120,4,-6.3125,-9.0625,0
50140,5.3125,-6.0625,-8.75,0
50160,-0.6875,-7,-9.1875,0
50180,-2.1875,-4.25,-8.9375,0
50200,0,-2.8125,-8.5,0
50220,-1.6875,-3.4375,-7.125,0
50240,-3.25,-2.6875,-7,0
50260,1.5625,-0.9375,-7.25,0
50280,5,-1.25,-7.5,0
50300,5.5625,-1.0625,-8.9375,0
50320,6.9375,-0.6875,-11.75,0
50340,3.75,-3.3125,-12.6875,0
50360,-1.875,-4.875,-11.875,0
50380,-2.5,-2.6875,-12.125,0
50400,-1.0625,-1.8125,-10.1875,0
50420,1.5,-2.8125,-8.875,0
50440,0.0625,-4.125,-9.6875,0
50460,-0.5625,-2.4375,-8.9375,0
50480,2.75,-1.6875,-10.5625,0
50500,0.125,-4.75,-9.8125,0
50520,-3.875,-3.75,-8.5,0
50540,-1.8125,-0.8125,-8.75,0
50560,0.8125,-1.4375,-7.8125,0
50580,-2,-3.5,-6.5,0
50600,-2.5625,-2.5625,-5.5625,0
50610,0.625,0,-6.6875,0
50630,2.625,-0.625,-8,0
50650,-1.8125,-3.75,-7.1875,0
50670,-4.125,-3.1875,-8.1875,0
50690,-0.75,-0.625,-9.3125,0
50710,0.1875,0.125,-10.3125,0
50730,-1,-2.4375,-12,0
50750,-3.6875,-3.375,-13.125,0
50770,-3.5625,-1.625,-12.9375,0
50790,0.625,-0.125,-12.125,0
50810,0.1875,-0.6875,-12.375,0
50830,-3.1875,-0.75,-13.1875,0
50850,-1.5,1.375,-12.0625,0
50870,2.875,2.125,-12.625,0
50890,0.75,0.625,-13.0625,0
50910,-5,1.875,-12.3125,0
50930,-4.375,3.1875,-12.625,0
50950,-1.25,2.5,-13.375,0
50970,-0.375,1.5,-12.875,0
50990,-0.1875,1.9375,-11.75,0
51010,1.0625,2.875,-11.625,0
51030,0.1875,2.9375,-11.5625,0
51050,-2.5625,2.9375,-13.0625,0
51070,-5.1875,2.4375,-14.0625,0
51090,-3.1875,2.0625,-13.1875,0
51110,-1,0.875,-11.125,0
51130,-0.25,1.5625,-11.1875,0
51150,-0.75,2.5,-15,0
51170,-2.9375,1.1875,-14.6875,0
51190,-4.9375,0.6875,-12.875,0
51210,-4.0625,1.4375,-11.8125,0
51230,3,3.4375,-13.0625,0
51250,4.0625,4.0625,-14.625,0
51270,-0.6875,2.875,-12.3125,0
51290,-6.8125,1.75,-11.5,0
51310,-2.375,3.5,-11.125,0
51330,1.1875,6,-11.125,0
51350,-1.3125,4.9375,-11.9375,0
51370,-3.5625,3.375,-11.125,0
51390,0.5,5,-12.125,0
51410,0.6875,6.4375,-12.5625,0
51430,-1.375,6.4375,-10.0625,0
51450,-3.4375,5.6875,-9.5,0
51470,-1.875,5.5,-10.8125,0
51490,1.125,6.6875,-11.625,0
51510,-0.125,5.375,-10.8125,0
51530,-3.125,4.9375,-9.75,0
51550,-3,6.25,-10.625,0
51570,-2.5625,6.1875,-10.5,0
51590,-1.75,5.5,-9.8125,0
51610,-0.8125,5.25,-10.8125,0
51630,-0.875,5.375,-11.4375,0
51650,-3.125,5.125,-10.25,0
51670,-3.875,5.6875,-9.0625,0
51690,-3.0625,7.1875,-9.25,0
51710,-0.75,7.5625,-10.3125,0
51730,-2.5625,6.3125,-10.3125,0
51750,-4.4375,6.1875,-9.5625,0
51770,-3.5,7.25,-10.75,0
51790,-2.625,6.3125,-11.0625,0
51810,-4.9375,6.1875,-11.4375,0
51830,-4.75,7.9375,-11.8125,0
51850,-3.875,7.25,-11.875,0
51870,-4.5625,5.5625,-10.9375,0
51890,-3.5,5.8125,-10.8125,0
51910,-1.8125,6.375,-11.125,0
51930,-2.3125,7.0625,-10.875,0
51950,-4.5,6.75,-11.0625,0
51970,-5.375,7.5,-11.5,0
51990,-3.875,7.8125,-11.5625,0
52010,-3.6875,7.75,-9.6875,0
52030,-5.6875,7.75,-9.1875,0
52050,-4.25,9,-10.125,0
52070,-4.1875,8.6875,-9.4375,0
52090,-3.0625,8.875,-8.625,0
52110,-2.5,8.8125,-8.25,0
52130,-3.5625,9.25,-7.4375,0
52150,-4.625,9.9375,-7.125,0
52170,-3.5,9.1875,-7.0625,0
52190,-2.4375,7.8125,-7.5,0
52210,-2.1875,7.3125,-7.625,0
52230,-2.25,6.5625,-8.0625,0
52250,-4.5,6.625,-8.9375,0
52270,-5,8.5625,-9.8125,0
52290,-5.75,8.6875,-9.5625,0
52310,-4.1875,8.75,-6.6875,0
52330,-2.875,9.4375,-4.875,0
52350,-3.9375,10.4375,-5.4375,0
52370,-4,11.375,-6.25,0
52390,-5.8125,11.75,-5.8125,0
52410,-4.875,12.125,-4.6875,0
52430,-3.6875,12.75,-4,0
52450,-2,13.375,-4.6875,0
52470,-3.5625,14,-5.1875,0
52490,-5.3125,13.8125,-5.875,0
52510,-4.625,13.4375,-6.25,0
52530,-4.0625,13.875,-5.6875,0
52550,-2.5,14.5,-4.8125,0
52570,-1.0625,14.9375,-4.0625,0
52590,-2,15.5,-3.5,0
52610,-2.8125,15.9375,-2.5,0
52630,-5.9375,16.4375,-0.9375,0
52650,-7.625,17.125,-0.25,0
52670,-5,17.8125,-0.8125,0
52690,-4.75,16.4375,1.5625,0
52710,-3.8125,16.4375,3.6875,0
52730,-0.875,16.1875,2.8125,0
52750,-0.4375,14.1875,2.625,0
52770,-2.625,13.25,3.125,0
52790,-3.5625,14.0625,3.6875,0
52810,-3.8125,14.4375,2.9375,0
52830,-3.75,13.4375,2.8125,0
52850,-2,12.75,2.75,0
52870,-0.5,11.9375,2.5,0
52890,-1.75,10.0625,1.3125,0
52910,0.125,8.5,0.0625,0
52930,1.9375,8,0.375,0
52950,2,8.25,1.25,0
52970,0.6875,8.625,0.875,0
52990,-1.9375,8.8125,0.625,0
53010,-2.25,8.625,1.9375,0
53030,0.25,7.75,2.4375,0
53050,2.5,5.625,1.875,0
53070,3.25,5.5625,2.625,0
53090,0.75,5.625,1.875,0
53110,-2,4.4375,0.8125,0
53130,-2.875,4.5,0.9375,0
53150,-1.375,5.75,1.0625,0
53170,0.625,5.1875,0.6875,0
53190,0.8125,4.0625,0.4375,0
53210,0.8125,5.6875,0.625,0
53220,2.3125,6.375,0.0625,0
53240,0.375,5.875,0.75,0
53260,-1.8125,8.3125,1.375,0
53280,-1.4375,10.1875,1.125,0
53300,-0.75,8.5,1.875,0
53320,-0.9375,9.1875,2.75,0
53340,0.9375,12.3125,2.875,0
53360,2,11.6875,2.75,0
53380,-2.75,10.375,3.8125,0
53400,-3.375,11.3125,4.875,0
53420,-0.4375,11.875,3.625,0
53440,0.75,10.4375,4.5,0
53460,-0.1875,11.0625,4.75,0
53480,-0.75,12.75,3.6875,0
53500,0.25,11.625,2,0
53520,-2.125,9.75,2.75,0
53540,-2.3125,10.5625,4.625,0
53560,-1.3125,12.375,4.6875,0
53580,-0.6875,12.25,4.5,0
53600,0.6875,11.125,4.375,0
53620,1.125,11.25,4.625,0
53640,0.0625,12.125,5.1875,0
53660,-2,12.5,4.875,0
53680,-4.1875,12.5625,4.3125,0
53700,-4.1875,12.875,3.8125,0
53720,-1.5,12.6875,4.125,0
53740,-2.1875,11.5625,4.875,0
53760,-0.9375,12.3125,6.0625,0
53780,0.0625,13.9375,6.375,0
53800,0.5,12.9375,6.6875,0
53820,-1.6875,10.25,7.6875,0
53840,-3,11.875,9.125,0
53860,-0.9375,13.0625,9.125,0
53880,-2,11.625,8.8125,0
53900,-5.25,11.5,8.625,0
53920,-1.9375,12.8125,7.875,0
53940,1.1875,12.5,6.4375,0
53960,1.25,10.1875,6,0
53980,2.25,9.375,7.25,0
54000,2.5,10.3125,7.6875,0
54020,3.4375,10.75,7.9375,0
54040,1.5625,9.3125,9.125,0
54060,-2.875,9.625,9.25,0
54080,-3.875,10.9375,7.375,0
54100,-1.4375,9.6875,6.1875,0
54120,-0.25,6.375,6.5625,0
54140,0.625,6,6.1875,0
54160,3.9375,6.25,5,0
54180,3.875,5.5,4.3125,0
54200,1.8125,4.875,4.125,0
54220,-0.75,5.375,3.875,0
54240,-2.0625,5.5625,4.125,0
54260,-1.8125,5.1875,5,0
54280,0.3125,5.375,5.9375,0
54300,0.625,6.0625,6.25,0
54320,0.625,5.8125,6.9375,0
54340,-0.3125,5.4375,6.8125,0
54360,-2.8125,6,6,0
54380,-2,7.3125,5.5,0
54400,-1.5625,6.875,6.0625,0
54420,-2.6875,5.75,6,0
54440,-0.3125,6.9375,6.0625,0
54460,1.5625,6.25,5.625,0
54480,-1.0625,5.6875,5.4375,0
54500,-1.3125,6.8125,5.875,0
54520,-1.6875,7.6875,5.5625,0
54540,-1.625,6.6875,5.875,0
54560,-2.25,7,5.75,0
54580,-0.9375,8.375,5.625,0
54600,-2.5625,8.1875,4.875,0
54620,-4.3125,8.4375,5.625,0
54640,-2.1875,8.6875,5.375,0
54660,-1.25,6.5,4.5625,0
54680,-1.75,5.75,5.125,0
54700,-1.8125,7.1875,5.9375,0
54720,-3.1875,7.1875,5.5625,0
54740,-4.5625,7.0625,4.25,0
54760,-0.8125,7.5,5.3125,0
54780,-0.125,6.875,6.25,0
54800,-1,7.8125,6,0
54820,-0.625,8.5625,5.375,0
54840,-1.1875,7.5625,6,0
54860,-1.25,7.125,6.875,0
54880,-2.75,9.5,6.4375,0
54900,-2.6875,11.125,6.125,0
54920,-3.625,10.75,5.875,0
54940,-1.0625,10,6.625,0
54960,-3.0625,9.1875,6.9375,0
54980,-4.5,13.375,7.9375,0
55000,-1.5625,17.125,7.125,0
55020,-6.25,15.875,4.8125,0
55040,-9.625,11.9375,4.5625,0
55060,-7.4375,12.8125,4.6875,0
55080,-1.6875,13.375,6,0
55100,1,11.4375,6.125,0
55120,-2.375,8.5625,6.1875,0
55140,-5.75,7.25,6.8125,0
55160,-6.25,9.1875,8.1875,0
55180,-6.9375,10.1875,8.8125,0
55200,-11.625,8.25,8.9375,0
55220,-9.8125,9.3125,9.625,0
55240,-1.5,9.4375,10.1875,0
55260,-0.1875,9,11,0
55280,0.625,10.625,11.5,0
55300,1.4375,10.1875,10.375,0
55320,-2.875,9.25,10.25,0
55340,-4.625,8.9375,10.0625,0
55360,-5.9375,7.4375,9.4375,0
55380,-3.75,6.5,9.125,0
55400,0.4375,7.1875,9.0625,0
55420,0.4375,5,8.875,0
55440,-0.6875,3.6875,9.3125,0
55460,-2.8125,3.375,9.75,0
55480,-3.0625,4.375,10,0
55500,-2.375,4.75,8.3125,0
55520,-3.5,2.5625,6.125,0
55540,-2.1875,-0.8125,5.9375,0
55560,-2.625,-2.4375,6.6875,0
55580,-5.1875,-2.625,7.5625,0
55600,-8.8125,-3.3125,7.125,0
55620,-12.375,-4.0625,5,0
55640,-11.3125,-4.4375,3.9375,0
55660,-6.875,-6.875,2.625,0
55680,-3.4375,-10.0625,2.6875,0
55700,-0.25,-11.5,4.75,0
55720,-3.5,-10.4375,6.1875,0
55740,-3.9375,-7.4375,6.6875,0
55760,-6.3125,-7.8125,7.1875,0
55780,-15.5,-9.125,8.5,0
55800,-12.3125,-5.5625,7.4375,0
55820,-5.75,-5.875,6.1875,0
55830,-7.375,-10,7.125,0
55850,-5,-9.625,8.5,0
55870,0.625,-6.3125,8.6875,0
55890,3.125,-6.9375,7.4375,0
55910,-0.4375,-8.5625,7.875,0
55930,-4.5,-6.9375,8.9375,0
55950,-2,-5.3125,8.9375,0
55970,-2.0625,-7.5,8.625,0
55990,-2.5625,-7.875,10.25,0
56010,-1.625,-7.125,11.0625,0
56030,-2.75,-6.8125,10.1875,0
56050,-0.3125,-6.875,9.25,0
56070,-5.3125,-8.4375,8.8125,0
56090,-7.125,-7.5,9.6875,0
56110,-3.1875,-6.5,9.6875,0
56130,-4.625,-7.125,9.75,0
56150,-5.75,-5.8125,9.9375,0
56170,-4,-4.6875,10,0
56190,-3.5,-4.875,9.5625,0
56210,-3.8125,-4.1875,8.4375,0
56230,-2,-3.5625,8.625,0
56250,-4.625,-4.6875,8.875,0
56270,-4.0625,-2.875,8.5,0
56290,-1.375,-0.9375,6.5,0
56310,-1.8125,-2.9375,4.125,0
56330,-7.6875,-5.5625,4.0625,0
56350,-10.25,-2.375,6.375,0
56370,-3.75,-1,7.125,0
56390,-0.875,-4.125,6.25,0
56410,0.3125,-5.0625,6.125,0
56430,0.8125,-3.6875,5.3125,0
56450,-4.125,-6.75,4.0625,0
56470,-6.4375,-8.375,4.0625,0
56490,-6.25,-7.9375,3.875,0
56510,-3.625,-8.125,3.5,0
56530,0.1875,-9.1875,4.5625,0
56550,-1.25,-10.75,6.375,0
56570,-4.125,-11.125,8.375,0
56590,-7.3125,-8.9375,9.5,0
56610,-9.0625,-6.5625,9.5,0
56630,-8.9375,-7.5,9.25,0
56650,-14.25,-7.3125,9,0
56670,-10.5,-3.4375,8.5,0
56690,-1,-2,6.3125,0
56710,-0.25,-5.9375,5.4375,0
56730,3.375,-6.125,6.125,0
56750,4.1875,-4.6875,5.5625,0
56770,-2,-6,5.6875,0
56790,-8.6875,-4.1875,5.9375,0
56810,-8.1875,-3.3125,6.1875,0
56830,-6.0625,-4.5625,5.625,0
56850,-3.4375,-5,5,0
56870,-3.0625,-5.0625,4.3125,0
56890,-2.8125,-4.9375,3.4375,0
56910,-3.5,-5.1875,2.8125,0
56930,-4.5,-4.5,2.0625,0
56950,-4,-4.5,1.6875,0
56970,-6.0625,-6.4375,3.1875,0
56990,-14.4375,-6.125,5.25,0
57010,-14.875,-3.125,6.125,0
57030,-11.3125,-3.4375,5.0625,0
57050,-9.4375,-4.6875,5,0
57070,-6.625,-3.9375,5.1875,0
57090,-7.125,-4.5,4.3125,0
57110,-4.125,-3.9375,4.9375,0
57130,-4.125,-2.75,5.3125,0
57150,-3.4375,-2.25,5.0625,0
57170,-5.625,-1.9375,4.25,0
57190,-2.375,-1.125,4.875,0
57210,-2.875,-2.1875,4,0
57230,1.125,-2.5,4.5,0
57250,5.5625,-2.75,5.375,0
57270,0.875,-4.375,5.75,0
57290,-1.9375,-3.875,5.3125,0
57310,-2.375,-4.6875,5.375,0
57330,-2.8125,-4.8125,6.625,0
57350,-0.5625,-3.875,6.5,0
57370,0.75,-5.75,5.3125,0
57390,1.25,-6.125,4.4375,0
57410,2.875,-6.375,3.375,0
57430,1.375,-8.5625,1.0625,0
57450,-2.125,-10.25,0.6875,0
57470,-1.75,-9.4375,0,0
57490,-0.5625,-9.9375,-1.375,0
57510,0.3125,-11.375,-0.3125,0
57530,-0.125,-10.1875,1.8125,0
57550,5.75,-8.125,1.0625,0
57570,6.8125,-10.0625,-1.1875,0
57590,-0.25,-11.375,0,0
57610,-1.25,-7.4375,1.0625,0
57630,4.5,-8.75,-0.9375,0
57650,0.3125,-11.375,-0.3125,0
57670,2.0625,-10.1875,2.8125,0
57690,-4.9375,-9.875,1.6875,0
57710,-2.5625,-9.125,1.9375,0
57730,-6.9375,-10.3125,3.5,0
57750,-6.8125,-8.125,5.375,0
57770,-1.1875,-6.875,3.625,0
57790,-7,-9.875,4,0
57810,-5.9375,-6.5625,5.375,0
57830,0.375,-3.8125,4.75,0
57850,-1.9375,-7.4375,2.75,0
57870,-2.375,-9.25,2.9375,0
57890,-0.25,-6.75,4.5,0
57910,3,-6.5,4.25,0
57930,3.8125,-6.9375,3.0625,0
57950,-3,-10.25,4.625,0
57970,-11.5625,-8.1875,7.25,0
57990,-7.625,-4.3125,7.9375,0
58010,-3.4375,-5,5.8125,0
58030,-3.875,-8.125,5.0625,0
58050,-8.875,-8.9375,4.4375,0
58070,-3.5625,-4.8125,3.1875,0
58090,1.625,-7.8125,0.6875,0
58110,-4,-11.375,-0.25,0
58130,-3.375,-9.8125,-1,0
58150,-1,-9.875,-2.9375,0
58170,-2.4375,-11.3125,-3.75,0
58190,-4.6875,-11.625,-4.375,0
58210,-3.1875,-11.75,-5.8125,0
58230,0.9375,-11.9375,-6.125,0
58250,1.75,-14.5,-6.8125,0
58270,-0.25,-16.1875,-6.9375,0
58290,-2.875,-14.8125,-6.875,0
58310,-1.125,-15.125,-7.4375,0
58330,-4.0625,-17.875,-7.6875,0
58350,-6.6875,-16.25,-6.25,0
58370,-2.8125,-15.1875,-5.8125,0
58390,-1.9375,-18.125,-7.1875,0
58410,-6.125,-18.3125,-7,0
58430,-2.5625,-15.625,-7,0
58440,1.5,-15.875,-8.625,0
58460,0.9375,-17.875,-9.75,0
58480,-3.0625,-19.6875,-10.25,0
58500,-4.875,-19,-11.1875,0
58520,1,-19.125,-9.9375,0
58540,-0.4375,-21.4375,-8.1875,0
58560,-3.75,-21.0625,-7.375,0
58580,-1.375,-18.6875,-7.5,0
58600,-1.4375,-18.6875,-7.25,0
58620,-6.3125,-20.3125,-6.75,0
58640,-9.25,-20,-7.5,0
58660,-3.75,-18.8125,-8.125,0
58680,0.25,-19.8125,-8.3125,0
58700,-3.1875,-21.5,-9.3125,0
58720,-4.875,-20.25,-8.6875,0
58740,-2.125,-19.0625,-8.4375,0
58760,-1.5,-20.5625,-7.875,0
58780,-3.9375,-19.625,-6.75,0
58800,0,-17.6875,-5.4375,0
58820,3.25,-17,-4.75,0
58840,-1.0625,-16.1875,-4.0625,0
58860,-3.75,-12.4375,-4,0
58880,-2,-11.0625,-4.125,0
58900,-5.4375,-12.375,-5.1875,0
58920,-3.6875,-10.4375,-3.875,0
58940,2.0625,-7.625,-3.1875,0
58960,2.375,-9.125,-3.125,0
58980,0.625,-10.1875,-2.6875,0
59000,1.625,-7.875,-2.5625,0
59020,0.875,-6.5625,-3.1875,0
59040,-3,-6.75,-3.9375,0
59060,-4.3125,-6.4375,-4.5625,0
59080,-2.5625,-4.75,-5.375,0
59100,1.875,-4.6875,-5,0
59120,3,-6.625,-4.25,0
59140,-2.625,-6.9375,-5.0625,0
59160,1.1875,-5,-5.4375,0
59180,4.25,-4.75,-4.8125,0
59200,-1.9375,-7.5,-3,0
59220,-4.8125,-6.5625,-2.125,0
59240,-3.625,-4.75,-3.8125,0
59260,-2.6875,-5.5,-2.9375,0
59280,-8.75,-7.4375,0.75,0
59300,-8.125,-7.5,1.5,0
59320,3.1875,-5.25,-2.375,0
59340,8,-6.5,-2.5,0
59360,-0.625,-6.75,-2.1875,0
59380,-5,-3.125,-3.4375,0
59400,-3.4375,-3.3125,-4.125,0
59420,-2.5,-5.4375,-3.25,0
59440,-1.625,-5.25,-3,0
59460,-0.375,-2.9375,-4.5,0
59480,0.3125,-4.9375,-5.4375,0
59500,-2.6875,-7.1875,-4.8125,0
59520,-1.8125,-4.3125,-3.5,0
59540,-1.375,-3.5,-4.125,0
59560,-2.3125,-6.0625,-4.4375,0
59580,-4.125,-6.125,-4.4375,0
59600,-1.875,-4.5625,-2.6875,0
59620,1.9375,-5.25,-3.25,0
59640,-0.3125,-7.3125,-4.125,0
59660,-2.875,-6.125,-3.75,0
59680,-3.6875,-4.6875,-4.5625,0
59700,-3.6875,-5,-4.375,0
59720,-1.75,-5.0625,-4.75,0
59740,-0.0625,-5.1875,-6.375,0
59760,2,-5.3125,-7.375,0
59780,-0.75,-6,-8,0
59800,-2.5625,-5.25,-6.1875,0
59820,-3,-4.75,-5.5,0
59840,-2.3125,-4.375,-5.8125,0
59860,0.4375,-5.3125,-5.25,0
59880,-1.4375,-6.9375,-3.8125,0
59900,-3.625,-5.5,-4.1875,0
59920,-1.0625,-3.4375,-5.5625,0
59940,0.3125,-4.9375,-5.625,0
59960,-1.625,-6.875,-5.75,0
59980,-0.1875,-4.4375,-5.875,0
60000,-0.375,-3.125,-7.3125,0
60020,1.375,-4.375,-8.3125,0
60040,10.5,-7.125,-12.0625,0
60060,9.5625,-8.1875,-12.875,0
60080,5.125,-6,-11,0
60100,2.6875,-4.9375,-11.6875,0
60120,0.3125,-4.9375,-11,0
60140,1.0625,-5.25,-8.4375,0
60160,0.625,-5.875,-9.4375,0
60180,0.6875,-6.1875,-10.875,0
60200,2.1875,-7.75,-10.3125,0
60220,2.6875,-9.5,-7.8125,0
60240,0.75,-8.25,-7.875,0
60260,-2.1875,-6.875,-8.75,0
60280,-1.75,-7.3125,-8.125,0
60300,-1.4375,-8.6875,-7.375,0
60320,2.0625,-6.9375,-7.5,0
60340,3.75,-5.3125,-8.125,0
60360,2.9375,-6.5625,-7.875,0
60380,0,-6.0625,-8.625,0
60400,1.4375,-5.25,-9.125,0
60420,2.8125,-6.125,-9.1875,0
60440,2.875,-6.8125,-9.3125,0
60460,0.8125,-5.25,-9.25,0
60480,1.0625,-4.5625,-9.1875,0
60500,1.875,-5.125,-8.375,0
60520,-0.625,-5.9375,-7.875,0
60540,-1.4375,-5.4375,-7.8125,0
60560,1.3125,-4.3125,-7.9375,0
60580,2.25,-4.375,-8.375,0
60600,-3.4375,-4.6875,-8.4375,0
60620,-5.125,-3.6875,-7.8125,0
60640,2.375,-1.25,-7.25,0
60660,5.6875,-0.9375,-6.9375,0
60680,2.25,-2.375,-6.3125,0
60700,1.375,-1.625,-6.5,0
60720,2.8125,-1.125,-7.375,0
60740,2.125,-2.125,-7.0625,0
60760,2.1875,-2.4375,-7.375,0
60780,1.75,-2.3125,-7.375,0
60800,0.9375,-1.375,-7.4375,0
60820,-0.3125,-1.125,-7.9375,0
60840,-4,-2.3125,-6.0625,0
60860,-2.6875,-2.8125,-5.0625,0
60880,3.1875,-1.9375,-5.8125,0
60900,5.6875,-2.0625,-5.1875,0
60920,3.0625,-3.875,-5.9375,0
60940,-2.0625,-3.5,-7.0625,0
60960,-2,0.8125,-8.875,0
60980,2.0625,2,-9.25,0
61000,0.625,-1.625,-8.1875,0
61020,4.0625,-1.5625,-8.4375,0
61040,8.9375,-0.125,-9.8125,0
61050,6.5,-1.0625,-10.75,0
61070,0.0625,-0.1875,-11.375,1001
61090,-0.625,1.75,-11.5,0
61110,0.25,1.875,-11.25,0
61130,-4.625,2.125,-10.5625,0
61150,-5.3125,2.5625,-8.8125,0
61170,3.6875,2.25,-8.5625,0
61190,6,-0.5625,-7.6875,0
61210,0.25,-0.8125,-5.75,0
61230,-2.1875,0.6875,-3.4375,0
61250,-0.0625,-0.8125,-1.5,0
61270,-1.125,-1.75,1.375,0
61290,-6.3125,-0.3125,2.5,0
61310,-8.625,0.375,1.4375,0
61330,-6.8125,-1.625,0.3125,0
61350,-6.5625,0.5,1.875,0
61370,-6.0625,1.5,3.4375,0
61390,-7.6875,2.6875,3.6875,0
61410,-5.9375,5.0625,5.375,0
61430,-7.4375,6.625,8.125,0
61450,-10.1875,7.875,13.3125,0
61470,-12.4375,8.625,22.0625,0
61490,-11.5,11.125,33.1875,0
61510,-4.625,15.4375,43.4375,0
61530,0.0625,19.5625,52.1875,0
61550,-1.625,25.25,64.5625,0
61570,-1.8125,31.8125,77.3125,0
61590,-0.5625,33.375,84.375,0
61610,4.625,40.6875,87.625,0
61630,10.4375,54.625,90.9375,0
61650,2,58,97.625,0
61670,5.625,53.75,90.1875,0
61690,23.25,57.25,74.25,0
61710,27.4375,58.8125,65.9375,0
61730,30.25,48.9375,59.75,0
61750,20.75,39.75,44.375,0
61770,13.1875,36.875,29.75,0
61790,22.5625,31.75,22,0
61810,37.875,24.4375,21.9375,0
61830,42.1875,16.8125,27.4375,0
61850,35.625,12.625,33.1875,0
61870,33.6875,16.125,35.5625,0
61890,30.25,20.625,36.625,0
61910,22.9375,21.875,42,0
61930,3.8125,16.6875,49.9375,0
61950,-11.3125,11.5625,49.5625,0
61970,0.125,14.8125,42.125,0
61990,13.8125,18.5625,34.9375,0
62010,15.625,17.8125,35.1875,0
62030,0.0625,11.25,33.5625,0
62050,-5.9375,10.5625,30,0
62070,-2.4375,15.5625,27.0625,0
62090,8.375,19.875,24.9375,0
62110,8.5625,12.8125,28.5,0
62130,1.5,4.0625,36.5625,0
62150,-7.4375,-2.3125,37.625,0
62170,-10.125,-4.8125,32.9375,0
62190,-7.625,-8.5625,29.875,0
62210,-6.5625,-11.3125,30.5,0
62230,-7.3125,-14.125,31.9375,0
62250,-7.1875,-15.375,29.875,0
62270,-2.6875,-15.625,26.4375,0
62290,1.1875,-17.3125,25.625,0
62310,-1.125,-18.3125,24.4375,0
62330,2.125,-16.9375,19.8125,0
62350,5,-16.375,14.8125,0
62370,2.0625,-15.3125,13,0
62390,2.25,-13.375,12.625,0
62410,0.8125,-13.9375,11.375,0
62430,3.5,-14.8125,12.6875,0
62450,5.9375,-13.25,13.5625,0
62470,5.8125,-11.625,12.75,1000
62490,4.0625,-10.625,12.1875,0
62510,3.3125,-8,10.6875,0
62530,8.5,-7.75,9.5625,0
62550,3.9375,-8.8125,7.5625,0
62570,0.125,-8,6.375,0
62590,-1.8125,-8.625,3.75,0
62610,-4.6875,-9.3125,0.375,0
62630,-2,-10.5625,-1.125,0
62650,4.125,-11.3125,-2.0625,0
62670,5.8125,-10.0625,-5.875,0
62690,3.25,-9.375,-8.625,0
62710,0.625,-11.4375,-7.5625,0
62730,-0.25,-11.375,-4.5,0
62750,1.625,-10.1875,-2.3125,0
62770,3.5625,-9,-2.625,0
62790,1,-8.125,-1.8125,0
62810,-1.25,-6,-0.375,0
62830,-3.1875,-3.9375,-0.25,0
62850,-1.125,-3.3125,-0.625,0
62870,1.375,-4.1875,0,0
62890,3.75,-3.875,1.1875,0
62910,1.0625,-2.6875,1.9375,0
62930,0.0625,-2.875,1.5,0
62950,3.5,-2.3125,-0.375,0
62970,7.625,-4.375,-2.5,0
62990,7,-6.875,-0.6875,0
63010,3.875,-7.3125,0.5625,0
63030,3.4375,-7.9375,-1.4375,0
63050,2.9375,-9.25,-1.8125,0
63070,5.1875,-11.375,-1.3125,0
63090,4.1875,-12.25,-1.875,0
63110,0.9375,-11.5,-1.75,0
63130,0.75,-10.9375,-3.8125,0
63150,0.25,-12.875,-4.9375,0
63170,-0.9375,-15.0625,-4.8125,0
63190,1.375,-16.375,-5.5625,0
63210,4.6875,-17.1875,-7.25,0
63230,2.9375,-18.6875,-8.375,0
63250,-0.5,-21.625,-8.3125,0
63270,-1,-23.1875,-9.125,0
63290,-1.25,-22.0625,-10.75,0
63310,-0.875,-23,-10.0625,0
63330,-1.25,-24.75,-9.125,0
63350,-1.9375,-25.8125,-10.5,0
63370,-1.6875,-24.8125,-12.625,0
63390,-2.0625,-23.5,-12.375,0
63410,-3.5625,-22.5625,-11.8125,0
63430,-9.1875,-21.375,-10.25,0
63450,-8.3125,-19.25,-11,0
63470,-7.1875,-18.25,-13.0625,0
63490,-9.0625,-16.6875,-14.625,0
63510,-12.25,-14,-17.0625,0
63530,-11.9375,-11,-20.25,0
63550,-9.625,-10.5625,-23.25,0
63570,-12.8125,-10.8125,-26.5,0
63590,-10.5625,-9.5625,-30,0
63610,-9.75,-6,-32.125,0
63630,-8.5625,-1.0625,-32.6875,0
63650,-8.625,2.9375,-34,0
63660,-11.6875,6.3125,-35,0
63680,-8.8125,10,-35.1875,0
63700,-2.5,8.5,-34.4375,0
63720,-3.0625,5.75,-32.8125,0
63740,-4,7.1875,-35.4375,0
63760,-6.5,11.6875,-37.0625,0
63780,-15,15.375,-37.5,0
63800,-19.75,20,-37.6875,0
63820,-21.75,23.3125,-36.75,0
63840,-18.8125,25.9375,-37.8125,0
63860,-13,28.75,-39.25,0
63880,-12.5625,28.6875,-39.4375,0
63900,-19.0625,30.8125,-38.875,0
63920,-24.4375,35.3125,-41.5625,0
63940,-24.5,37.875,-44.375,0
63960,-23.625,39.75,-43.8125,0
63980,-21.25,43.25,-43.625,0
64000,-17.75,45.4375,-45.3125,0
64020,-17,46,-47.0625,0
64040,-19.6875,50.4375,-46.8125,0
64060,-22.625,56.375,-46.375,0
64080,-23.625,61.1875,-44.375,0
64100,-24.875,63.375,-39.75,0
64120,-22.5,63.9375,-34.5625,0
64140,-18.625,63,-31.3125,0
64160,-13,59.3125,-29.25,0
64180,-9.5,51.9375,-28.875,0
64200,-8.3125,44.25,-28.1875,0
64220,-7.6875,39.875,-27.3125,0
64240,-5.875,38,-25.375,0
64260,-2.9375,36.6875,-19,0
64280,-2.5,36.3125,-11.25,0
64300,-5.5625,35.875,-10.375,0
64320,-7.25,32.9375,-12.1875,0
64340,-4.5625,31.1875,-9.0625,0
64360,1.3125,31.3125,-1.1875,0
64380,8.0625,32.125,3.5,0
64400,10.75,30.5,2.5625,0
64420,11.5,26.1875,1.375,0
64440,9.5,24.5625,6.25,0
64460,4.8125,25.0625,9.25,0
64480,2.9375,25.3125,9.125,0
64500,4.8125,22.5625,9.8125,0
64520,5.6875,21.5625,12.1875,0
64540,10,21.9375,11.25,0
64560,10.0625,23,9,0
64580,5.5,20.625,5.5625,0
64600,3.75,17.75,5.5625,0
64620,6.6875,17.4375,7.375,0
64640,9.1875,18.1875,11.0625,0
64660,7.9375,16.25,13.5625,0
64680,7.0625,17.3125,13.4375,0
64700,7.9375,17.125,14.75,0
64720,2.875,13,17.5625,0
64740,-0.25,10.6875,17.1875,0
64760,1.8125,8.625,14.6875,0
64780,4,9.25,13.25,0
64800,3.6875,10.25,13.375,0
64820,1.3125,10.125,13.75,0
64840,4.375,11.875,13.9375,0
64860,9.5625,14.375,13.375,0
64880,7.8125,13.375,14,0
64900,9.375,13.0625,14.3125,0
64920,9,13.3125,15.875,0
64940,8,13.4375,16.125,0
64960,4.9375,10.625,15.25,0
64980,1,9.25,15.6875,0
65000,2.9375,10.125,15.8125,0
65020,5.8125,10.125,16.5,0
65040,3.375,8.5625,16.9375,0
65060,2.75,7.125,16.5,0
65080,7.1875,7,16.5625,0
65100,7.875,3.625,16.75,0
65120,2.3125,1.125,18.375,0
65140,-0.1875,1.75,16.125,0
65160,0.5,1.1875,15.1875,0
65180,-0.5,0.1875,16.5625,0
65200,-2,0.5,18.875,0
65220,-2,2.9375,19.875,0
65240,3.25,2.25,19.5625,0
65260,2.75,0.1875,18.4375,0
65280,-0.125,1.25,18.875,0
65300,-0.875,1.8125,17.9375,0
65320,-4.1875,-0.5625,18.25,0
65340,-1.5,-2.4375,18.5,0
65360,3.1875,-2.625,17.4375,0
65380,4.5,-4.5625,17.4375,0
65400,4.9375,-5.25,19.0625,0
65420,2.3125,-5.875,19.9375,0
65440,0.5,-6.625,19,0
65460,-7.1875,-7.875,19.875,0
65480,-10.625,-6.9375,21.4375,0
65500,-5.625,-7.125,20.6875,0
65520,-1.1875,-8,19.625,0
65540,-1.5,-10.4375,20,0
65560,-3.125,-11.4375,18.5625,0
65580,-0.75,-11.9375,15.875,0
65600,1.1875,-12.75,14.0625,0
65620,5.125,-14.4375,13.75,0
65640,3.125,-15.8125,12.125,0
65660,-0.5625,-14.5625,11.125,0
65680,-4.5625,-14.8125,10.5,0
65700,-5.3125,-15.3125,10.0625,0
65720,-3.0625,-15.625,10.75,0
65740,-7.0625,-17.1875,12.9375,0
65760,-6.375,-17.5,15.4375,0
65780,-7.3125,-15.5,16.125,0
65800,-8.4375,-16,16.375,0
65820,-12.125,-19.5,16.875,0
65840,-16,-21,16.3125,0
65860,-12.625,-20.5,14.5,0
65880,-11.3125,-20.875,14.0625,0
65900,-9,-21.75,14.625,0
65920,-9.125,-22.375,13.9375,0
65940,-8.875,-21.75,12.125,0
65960,-9.5625,-21.4375,10.5,0
65980,-8.3125,-20.75,10.75,0
66000,-5.3125,-19,10.625,0
66020,-2.125,-17.6875,8.9375,0
66040,-0.5,-18.125,7.1875,0
66060,-3.0625,-20.5625,7.1875,0
66080,-2.5,-21.125,6,0
66100,0.375,-19.4375,4.375,0
66120,-0.125,-18.125,3.9375,0
66140,-2.9375,-19.1875,5.5625,0
66160,-6.9375,-20,7.625,0
66180,-6.6875,-20.1875,7.9375,0
66200,-3.4375,-20.8125,8.25,0
66220,-8.1875,-22.5625,9.5625,0
66240,-8.875,-22.75,9.5,0
66260,-8,-21.625,8.6875,0
66280,-2.9375,-22.5,8.875,0
66290,-5.125,-25.1875,8.5625,0
66310,-8.4375,-24.6875,8.4375,0
66330,-8.5625,-23.3125,7.875,0
66350,-7.125,-25.4375,6.9375,0
66370,-8.9375,-28.4375,6.5625,0
66390,-8.625,-29.0625,7.3125,0
66410,-3,-28.1875,5.9375,0
66430,-2.375,-28.6875,5.875,0
66450,-10.0625,-30.0625,6.9375,0
66470,-12,-30.5,6.6875,0
66490,-6.25,-30.4375,5.75,0
66510,-4.9375,-32.5625,7.5,0
66530,-9.875,-33.9375,9.3125,0
66550,-10,-31.5625,7.6875,0
66570,-6.4375,-29.5,5.125,0
66590,-8.0625,-30.1875,5.5625,0
66610,-13,-31.5,7.9375,0
66630,-9.5,-28.875,7.3125,0
66650,-1.3125,-26.9375,4,0
66670,1.625,-28.0625,1.0625,0
66690,-2.1875,-29.5625,1,0
66710,-5.875,-27.4375,-1.3125,0
66730,-5.1875,-24.0625,-3.625,0
66750,-3.75,-21.8125,-4.1875,0
66770,-4.75,-23.25,-4.4375,0
66790,-6,-24.1875,-6.5,0
66810,-3.625,-21.375,-9.8125,0
66830,0.4375,-18.875,-10.5625,0
66850,-0.3125,-19.875,-10.375,0
66870,-5.75,-20.8125,-9.125,0
66890,-5.125,-19.3125,-11.1875,0
66910,-1.3125,-19.5,-12,0
66930,-3.25,-20.625,-9.6875,0
66950,-7,-19.875,-10.125,0
66970,-6.4375,-18.0625,-12.5625,0
66990,-7.25,-17.625,-14.75,0
67010,-6.5625,-19.1875,-15.3125,0
67030,-4.6875,-20,-15,0
67050,-2.5,-19.0625,-15.3125,0
67070,0.625,-17,-16.0625,0
67090,0.25,-17.625,-15.625,0
67110,-5.9375,-19.4375,-15.4375,0
67130,-6.5625,-17.4375,-15.8125,0
67150,-3.9375,-15.375,-15.9375,0
67170,-4.8125,-14.8125,-15.375,0
67190,-8.125,-13.75,-14.75,0
67210,-7.3125,-11.4375,-15.875,0
67230,-5.875,-11.4375,-17.6875,0
67250,-8.8125,-12.9375,-17.625,0
67270,-10.4375,-12.6875,-16.9375,0
67290,-9.8125,-9.3125,-16.4375,0
67310,-7.9375,-5.5,-15.8125,0
67330,-10.875,-5.5,-16.25,0
67350,-21.8125,-5.1875,-15.5625,0
67370,-23.1875,-0.3125,-16.25,0
67390,-18.1875,2.8125,-17.25,0
67410,-14.5625,1.4375,-16.9375,0
67430,-12.8125,0.25,-17.0625,0
67450,-11.125,2.9375,-18.5625,0
67470,-12.1875,7.8125,-20.25,0
67490,-13.875,9.4375,-21.9375,0
67510,-21.625,5.4375,-22.625,0
67530,-23.875,3.625,-23.25,0
67550,-16.375,7.625,-26.9375,0
67570,-12.5,10.25,-26.9375,0
67590,-13.3125,10.3125,-25.625,0
67610,-15.625,10.9375,-26.25,0
67630,-17.75,14.375,-25.75,0
67650,-17.3125,17.875,-26.25,0
67670,-17.0625,16.75,-28.375,0
67690,-19.3125,16.875,-29.6875,0
67710,-16.625,16.25,-30.625,0
67730,-15.0625,21.4375,-31.125,0
67750,-15.5,23.6875,-31.8125,0
67770,-14.8125,24.8125,-31.0625,0
67790,-16.25,27,-31.6875,0
67810,-13.625,28.75,-33.8125,0
67830,-15,27.375,-33,0
67850,-16.125,25.4375,-30.3125,0
67870,-15.8125,25.3125,-32.25,0
67890,-15.5625,27.3125,-32.875,0
67910,-17.5625,28,-31.625,0
67930,-17.875,27.6875,-30.6875,0
67950,-15.8125,27.4375,-30.5,0
67970,-9.5,28.5625,-29.4375,0
67990,-4.625,29.875,-27.875,0
68010,-6.9375,28.75,-26.5,0
68030,-9.9375,28.625,-26.6875,0
68050,-9.8125,29.625,-25.625,0
68070,-10.5625,32.25,-20.6875,0
68090,-9.9375,34.0625,-17.9375,0
68110,-9.4375,33.625,-17.0625,0
68130,-3.75,34.0625,-16.5,0
68150,-2.9375,33.25,-13.375,0
68170,-2.4375,31.875,-9.375,0
68190,1.5625,31.6875,-9.9375,0
68210,1,30.375,-10.6875,0
68230,-2.4375,28.75,-8.25,0
68250,-3.8125,29.1875,-4.5,0
68270,-3.25,30,-2,0
68290,0.1875,30.1875,0,0
68310,4.25,29.3125,2.75,0
68330,2.4375,29.3125,3.25,0
68350,2.8125,30.1875,0.8125,0
68370,0.375,31.5625,1.6875,0
68390,-4.3125,33.875,5.8125,0
68410,-5.375,33.3125,6.9375,0
68430,0.625,29.9375,4.5625,0
68450,5.8125,26.0625,4.125,0
68470,7.5,23.5,3.0625,0
68490,1.8125,22.6875,3.375,0
68510,-2.8125,24.4375,4.9375,0
68530,-2.375,26,6.1875,0
68550,-4.1875,24.3125,5.375,0
68570,-1.6875,23.3125,4.5625,0
68590,1.625,24.1875,2.75,0
68610,1.625,25.1875,4.9375,0
68630,2.8125,26.875,8,0
68650,6.5,26.8125,7.375,0
68670,9.0625,26.5625,8.625,0
68690,8.3125,27.625,8.875,0
68710,5.5,28.8125,11,0
68730,2.25,27.1875,13.9375,0
68750,1.625,22.625,14.0625,0
68770,2.3125,20.125,12.9375,0
68790,4.5625,21.0625,11.5625,0
68810,2.9375,22.5,13.1875,0
68830,-1.25,25.625,16.625,0
68850,-4,25.4375,15.8125,0
68870,-1.3125,23.3125,14.4375,0
68880,1.625,22.8125,14,0
68900,10.5625,23.4375,14.6875,0
68920,8.1875,22.125,14.3125,0
68940,0.5,19.5625,14.625,0
68960,0.625,18.1875,14.3125,0
68980,5.0625,17.875,14.875,0
69000,6,14.4375,16.25,0
69020,2.75,12.625,16.5,0
69040,3.4375,11.8125,16.8125,0
69060,7.625,11.6875,16.5625,0
69080,7.9375,10.9375,17,0
69100,5.8125,10.25,18.6875,0
69120,1.9375,9.5625,18.8125,0
69140,4.125,7.6875,17.4375,0
69160,8.5,5.375,17.5625,0
69180,6.6875,4.5625,19.375,0
69200,5.375,5.875,21.375,0
69220,1.875,4.75,19.125,0
69240,-0.1875,1.1875,18.1875,0
69260,5.8125,-0.125,18.5,0
69280,9.75,-0.1875,18.5,0
69300,5.25,-0.75,18.3125,0
69320,-0.4375,-1.75,19.1875,0
69340,0.6875,-2.9375,19.9375,0
69360,3.75,-3.375,20,0
69380,7.5625,-2.0625,19.0625,0
69400,8.625,-2.8125,18.375,0
69420,3.625,-7.6875,17.5,0
69440,2.4375,-9.0625,17.375,0
69460,9.6875,-7.9375,15.75,0
69480,13.25,-7.5625,14.75,0
69500,4.0625,-8.4375,15.5625,0
69520,-2.125,-7.1875,16.125,0
69540,3.5,-6.6875,16.4375,0
69560,3.9375,-8.1875,16.375,0
69580,3.5625,-7.4375,16.375,0
69600,5.125,-5.9375,15.125,0
69620,4.0625,-7.9375,14.875,0
69640,2.5,-9.1875,16.0625,0
69660,4.5,-9.25,17.6875,0
69680,2.5,-9.4375,17.875,0
69700,-0.3125,-10.6875,18.6875,0
69720,-4.875,-12.3125,19.375,0
69740,-2.5,-13.9375,19.5625,0
69760,2.9375,-15.75,18.75,0
69780,0.5,-17.25,18,0
69800,-3.625,-17.375,18.5,0
69820,-4.25,-17.25,18.8125,0
69840,-1.6875,-17.125,18.4375,0
69860,-2,-17.125,17.5,0
69880,-1.375,-17,17.6875,0
69900,-0.25,-17.5625,18.5625,0
69920,-1,-18.0625,18.4375,0
69940,-0.5625,-17.75,18.375,0
69960,-2,-18.375,18.5625,0
69980,-7.1875,-19.4375,18.8125,0
70000,-6.3125,-19.6875,18.125,0
70020,-6.5,-20.125,16.8125,0
70040,-7.875,-20.6875,16.9375,0
70060,-3.875,-22.5625,15.5,0
70080,-1.375,-24,12.625,0
70100,-1.25,-27.125,12,0
70120,-3.0625,-30.25,12.3125,0
70140,-6.375,-30.6875,11.875,0
70160,-7.25,-31,11.375,0
70180,-10.125,-32.8125,11.75,0
70200,-15.125,-35.625,12,0
70220,-13.375,-36,11.375,0
70240,-4.6875,-36.4375,11.125,0
70260,-5.625,-38.9375,10.0625,0
70280,-9.4375,-39,8.5625,0
70300,-11.1875,-38.1875,6.1875,0
70320,-13.3125,-38.8125,4.375,0
70340,-13.75,-39.875,3.1875,0
70360,-7.75,-38.4375,2,0
70380,-5.1875,-36.4375,-0.375,0
70400,-9.875,-38.0625,-3.375,0
70420,-9.6875,-39.125,-4.1875,0
70440,-5.1875,-37.3125,-4.625,0
70460,-2.75,-36.875,-4.0625,0
70480,-5.6875,-36.3125,-4,0
70500,-5.5,-32.9375,-4.625,0
70520,-5.375,-31.5625,-6,0
70540,-12.8125,-33.5,-7.125,0
70560,-13.875,-33.125,-7.875,0
70580,-14.3125,-32.125,-9.6875,0
70600,-15,-31.9375,-11.8125,0
70620,-15.375,-32.375,-13.5625,0
70640,-16.375,-32.75,-16.125,0
70660,-10,-30.625,-19.8125,0
70680,-8.0625,-28.875,-24,0
70700,-7.3125,-29.3125,-26.125,0
70720,-9.0625,-30.5625,-28.5,0
70740,-7.875,-29.25,-30.3125,0
70760,-5,-29.4375,-29.875,0
70780,-8.0625,-30.125,-29.125,0
70800,-14.9375,-29.75,-27.4375,0
70820,-16.375,-26.1875,-26.9375,0
70840,-11.5625,-24.0625,-26.5,0
70860,-11.4375,-26.625,-25.3125,0
70880,-15.125,-28.0625,-24.125,0
70900,-16.8125,-25.5625,-26.0625,0
70920,-17.8125,-21.6875,-28.6875,0
70940,-16.375,-20.5625,-30.125,0
70960,-17.25,-21.375,-32.5625,0
70980,-17.1875,-18.25,-34.6875,0
71000,-14.9375,-13.5,-34.875,0
71020,-15,-12.875,-35.3125,0
71040,-15.6875,-12.3125,-37.1875,0
71060,-13.0625,-8.4375,-39.375,0
71080,-17.6875,-4.375,-38.9375,0
71100,-20.625,-2.6875,-35.625,0
71120,-18.875,-0.8125,-39.25,0
71140,-17.625,2.375,-42.8125,0
71160,-15.6875,4.375,-39.6875,0
71180,-15.75,6.25,-37.375,0
71200,-15.6875,10.75,-38.4375,0
71220,-17.875,17.875,-38.25,0
71240,-19.9375,21.5625,-37.125,0
71260,-21.625,22.4375,-34.25,0
71280,-15.875,24.5625,-34.5625,0
71300,-14.25,26.125,-34.625,0
71320,-16.0625,26.8125,-32.875,0
71340,-14.3125,27.3125,-33.3125,0
71360,-13.5,27.1875,-35.375,0
71380,-19.375,28.125,-34.3125,0
71400,-27.125,29.8125,-30.625,0
71420,-20.25,30.875,-29.8125,0
71440,-7.9375,32.375,-31.125,0
71460,-8.125,34,-28.8125,0
71480,-17.25,34.4375,-26.375,0
71490,-15,35.25,-25.9375,0
71510,-5.0625,36.3125,-25.0625,0
71530,-3.8125,36.4375,-21.9375,0
71550,-9.8125,38.1875,-18.75,0
71570,-8.5,40.9375,-18.0625,0
71590,-4.9375,41.0625,-15.9375,0
71610,-6.75,40.25,-9.6875,0
71630,-2.8125,41.5,-4.5,0
71650,5.8125,41.9375,-1.4375,0
71670,3.5,41.25,4.5,0
71690,-1.875,42.5,9.5625,0
71710,0.4375,43.5625,12.5625,0
71730,-0.3125,43.3125,17.0625,0
71750,-7.1875,42.9375,20,0
71770,-13.125,41.625,20.625,0
71790,-8.0625,40.5625,21.9375,0
71810,3.4375,39.5625,24.125,0
71830,11.5,41,23.875,0
71850,8.125,40.6875,20.25,0
71870,2.5,40.0625,16.3125,0
71890,-4.5625,40.875,13.0625,0
71910,-12,42.625,14,0
71930,-2.3125,44.9375,15.9375,0
71950,7.0625,41.1875,16.3125,0
71970,8.6875,37.5,14.3125,0
71990,9.6875,38.5625,12.5625,0
72010,7,39.5,16.5625,0
72030,2.125,37.1875,20.5625,0
72050,0.6875,34,21.8125,0
72070,3.0625,30.5625,21.125,0
72090,5.75,29.25,20.5,0
72110,5.625,29.75,22.1875,0
72130,-1.4375,28.5,23.8125,0
72150,2.8125,26.6875,24.1875,0
72170,6.4375,24.75,22.6875,0
72190,8.375,22.6875,21.9375,0
72210,9.8125,21.5625,23.4375,0
72230,3.4375,19.6875,24,0
72250,-2.4375,16.0625,22.375,0
72270,0,11.8125,20.0625,0
72290,3.75,8.6875,19.875,0
72310,6.75,7.4375,21.3125,0
72330,0.75,6.1875,22.125,0
72350,-0.875,4.875,22.0625,0
72370,2.875,3.375,20.625,0
72390,6.875,2,20.0625,0
72410,7.75,2.5625,18.8125,0
72430,3.75,4.125,17.6875,0
72450,-3.4375,3.375,17,0
72470,-4.875,1.9375,17.625,0
72490,-2.625,3.0625,18,0
72510,0.6875,5.0625,18.125,0
72530,5.0625,4.0625,15.625,0
72550,2.125,1,13.125,0
72570,1.5,-0.9375,13.0625,0
72590,4,-1.9375,13.625,0
72610,1.4375,-2,13.875,0
72630,-3.25,-2,13,0
72650,-6.5,-1.4375,14.25,0
72670,-6.9375,-1.4375,16.5,0
72690,-4.875,-2.625,17.5,0
72710,-4.75,-2.4375,15.75,0
72730,4.5625,-2.625,17.3125,0
72750,-4.8125,-4.1875,17.625,0
72770,-7.875,-1.8125,18.0625,0
72790,-8.0625,-2.625,16.3125,0
72810,-8.4375,-5.25,15.9375,0
72830,-5.5,-6.25,16.8125,0
72850,-4.625,-7.375,15.875,0
72870,-1,-8.0625,14.1875,0
72890,0.8125,-9.25,13.8125,0
72910,-2.75,-11.9375,12.6875,0
72930,-1.1875,-12.75,12.25,0
72950,4.4375,-12.9375,11.625,0
72970,3.25,-12.375,11.375,0
72990,5.6875,-12.375,10.9375,0
73010,6.5,-13.5,12.625,0
73030,3.4375,-13.3125,14.125,0
73050,2.4375,-13.0625,14.375,0
73070,-2.25,-14.875,15.4375,0
73090,-3,-17.1875,15.9375,0
73110,1,-19.625,14.8125,0
73130,-2,-21.5,14.5,0
73150,-2.4375,-21.5625,14.9375,0
73170,0.0625,-23.1875,13.4375,0
73190,-1.5,-25.375,13.3125,0
73210,-4.75,-26.0625,14.4375,0
73230,-6,-26.25,14.1875,0
73250,-4.9375,-27.0625,11.625,0
73270,-7.5,-28.25,10.8125,0
73290,-9,-29.0625,10.75,0
73310,-8.4375,-29.625,9.3125,0
73330,-9.4375,-30.375,7.6875,0
73350,-8,-30.5,5.4375,0
73370,-1.9375,-33.0625,3.625,0
73390,-5.375,-34.5625,4.1875,0
73410,-8.1875,-34.0625,4,0
73430,-8.625,-33.6875,2.5625,0
73450,-8.9375,-34.9375,2.0625,0
73470,-12.1875,-35.9375,2.25,0
73490,-13.0625,-35.9375,0.3125,0
73510,-8.5625,-36.3125,-1.375,0
73530,-11.4375,-38.25,-2.5625,0
73550,-9.625,-38.25,-2.9375,0
73570,-6.0625,-39,-5.9375,0
73590,-2.5625,-40.625,-7.3125,0
73610,-8.4375,-40.5625,-6.5,0
73630,-12.375,-41.1875,-7.5,0
73650,-7.875,-40.1875,-9,0
73670,-8.625,-39.8125,-9.5625,0
73690,-15.125,-39.4375,-10.3125,0
73710,-17.1875,-38,-11,0
73730,-13.25,-37.625,-12,0
73750,-8.375,-38.8125,-13.4375,0
73770,-8.25,-38.375,-13.8125,0
73790,-4.9375,-35.625,-12.25,0
73810,-6.5625,-33.1875,-11.625,0
73830,-11.6875,-32.5,-11.6875,0
73850,-12.6875,-29.875,-12.3125,0
73870,-10.625,-27.0625,-13.3125,0
73890,-9.625,-26.125,-13.75,0
73910,-11.25,-26.5,-14.75,0
73930,-12.0625,-24.9375,-16.625,0
73950,-9.6875,-22.1875,-18.3125,0
73970,-8.6875,-21.1875,-20.8125,0
73990,-9.25,-23,-23.5,0
74010,-9.25,-22.875,-22.125,0
74030,-8.4375,-19.4375,-21.0625,0
74050,-9.625,-17.1875,-22.375,0
74070,-9.375,-17.5625,-23.5625,0
74090,-12.9375,-17.5,-24.125,0
74100,-10.25,-16.25,-22.9375,0
74120,-7.5625,-14.0625,-24.5,0
74140,-4.375,-13.0625,-27.3125,0
74160,-4.25,-10.6875,-27.875,0
74180,-7.1875,-11.5,-29.75,0
74200,-9.625,-13,-32.875,0
74220,-7.8125,-11.1875,-31.5,0
74240,-3.3125,-8.5,-31.3125,0
74260,-7.9375,-10.3125,-30.5,0
74280,-10.5625,-11.25,-29.25,0
74300,-7.9375,-11.8125,-30.25,0
74320,-6.625,-11.25,-30.5625,0
74340,-7.1875,-10.8125,-27.625,0
74360,-6.5,-13.5,-23.375,1001
74380,-10.75,-14.625,-19.3125,0
74400,-10.5625,-11.8125,-15.875,0
74420,-12.3125,-10.875,-14.125,0
74440,-10.875,-11.0625,-10.3125,0
74460,-6.875,-11.4375,-6.25,0
74480,-2.9375,-9.75,-1.8125,0
74500,-2.9375,-8.4375,1.5625,0
74520,-6.5,-8.3125,2.75,0
74540,-7.1875,-4.875,2.875,0
74560,-4.4375,0.5,2.5625,0
74580,-2.625,1.75,3.1875,0
74600,-2,4.125,-0.9375,0
74620,-7.1875,6.5625,-5.6875,0
74640,-12.875,12.375,-1.75,0
74660,-14.9375,15.6875,4.3125,0
74680,-11.125,15.4375,6.875,0
74700,-8.6875,19,9,0
74720,-11.8125,25.9375,16.375,0
74740,-16.3125,30.75,19.25,0
74760,-12.9375,30.5,22.3125,0
74780,-7.1875,31,27.3125,0
74800,-7.1875,35.875,32,0
74820,-9.625,41.8125,32.3125,0
74840,-11.9375,44.625,31.5,0
74860,-2.5,44.25,30.125,0
74880,-2.375,40.375,29.3125,0
74900,4.9375,38.75,32.375,0
74920,3.25,37.5625,38.3125,0
74940,-5.1875,40,47,0
74960,-14.6875,39.125,51.5,0
74980,-7.4375,31.8125,51.375,0
75000,11.125,29.5625,49.8125,0
75020,21.4375,33.8125,50.625,0
75040,21.9375,32.5625,56.0625,0
75060,12.625,17.8125,58.6875,0
75080,18.5625,9,58.0625,0
75100,32.4375,13.875,60.5,0
75120,46.5625,25.1875,67.75,0
75140,37.25,22.5,75.875,0
75160,21.9375,13.875,70.75,0
75180,29.25,17.875,59.75,0
75200,35.6875,25.625,57.375,0
75220,29.875,26.875,61.25,0
75240,27.4375,21.25,55.75,0
75260,25.375,15.25,48.5,0
75280,34.9375,12.5625,48.125,0
75300,46.0625,11.375,51,0
75320,41.9375,3.25,58.0625,0
75340,29.125,-4.3125,61.0625,0
75360,22.0625,-5.1875,57.875,0
75380,10.5,-4.6875,54.75,0
75400,-9.375,-4.9375,50.1875,0
75420,-19.875,-6.5625,40.4375,0
75440,-15.75,-10.1875,28.0625,0
75460,-1.9375,-14.0625,18.3125,0
75480,4.1875,-17.5625,16.3125,0
75500,8.4375,-15.75,17.625,0
75520,11.75,-12.625,16.5625,0
75540,11.75,-10.4375,13.5625,0
75560,3.625,-8.6875,13.5,0
75580,-7.5625,-5.875,14.0625,1000
75600,-10.375,-3.6875,11.375,0
75620,-3.5,-4.375,5.8125,0
75640,0.625,-6.375,6.1875,0
75660,5.375,-7.75,5.1875,0
75680,5.0625,-8.8125,2.5625,0
75700,4.0625,-10.125,0.3125,0
75720,2.1875,-12.1875,1.6875,0
75740,-4.375,-12.25,2.6875,0
75760,-9.0625,-12.5625,-0.375,0
75780,-10,-12.5625,-4.5625,0
75800,-9.8125,-13.375,-5.0625,0
75820,-8.0625,-13.4375,-3.3125,0
75840,-4.5625,-10.75,-3.1875,0
75860,-2.9375,-9.875,-5,0
75880,-5.5,-11.8125,-1.6875,0
75900,-10.5,-12.625,2.9375,0
75920,-13.25,-10.4375,4.375,0
75940,-5.625,-8.5625,1.125,0
75960,0.75,-9.6875,-1.3125,0
75980,0.3125,-10.6875,-1.1875,0
76000,2.5625,-9.6875,-2,0
76020,3.4375,-8,-4.1875,0
76040,3.5,-10.5,-3.75,0
76060,-1.375,-13.875,-3.5625,0
76080,-9.1875,-14.625,-5.25,0
76100,-4.875,-15.3125,-5.5,0
76120,-2.375,-17.0625,-5.375,0
76140,-2.6875,-19.75,-6.3125,0
76160,-3.875,-22.6875,-9.125,0
76180,-6,-24.6875,-12.75,0
76200,-7.875,-25.1875,-15.125,0
76220,-7.25,-24.25,-14.9375,0
76240,-5.5625,-21.9375,-14.375,0
76260,-0.875,-20.5,-16.9375,0
76280,0.625,-20.4375,-18.6875,0
76300,-3.875,-20.1875,-17.5625,0
76320,-6,-19.1875,-17.0625,0
76340,-3.625,-17.125,-18.3125,0
76360,-1.625,-15.125,-21.375,0
76380,-4.4375,-14.5,-22,0
76400,-6.625,-14.5,-21.0625,0
76420,-8.5,-13.5,-20.6875,0
76440,-8.125,-10.25,-21.3125,0
76460,-7.6875,-6.4375,-23.625,0
76480,-4.75,-5.8125,-23.1875,0
76500,-6.1875,-6.0625,-18,0
76520,-6.875,-3.5,-17.5625,0
76540,-3.1875,-0.625,-19.125,0
76560,-0.5625,0.1875,-22.1875,0
76580,-4.5,1.125,-23.375,0
76600,-9.8125,1.9375,-27.0625,0
76620,-11.9375,1.5625,-27,0
76640,-8.0625,1.375,-28.625,0
76660,-8.375,3.0625,-32.3125,0
76680,-12,4.5625,-31.125,0
76700,-15.875,5.8125,-28.875,0
76720,-15.1875,7.375,-28.875,0
76730,-11.8125,5.9375,-30.375,0
76750,-11.375,7.5,-29.5625,0
76770,-12.5625,11.125,-27.6875,0
76790,-15.25,15.125,-26.125,0
76810,-15.625,16.6875,-28.625,0
76830,-14.1875,18.25,-30.3125,0
76850,-13.75,21.5625,-31.125,0
76870,-13.125,23.875,-33.875,0
76890,-11.75,25.6875,-34.5,0
76910,-12.375,28.375,-33.5,0
76930,-10.4375,30.75,-34.0625,0
76950,-11.3125,31.8125,-33.6875,0
76970,-14.3125,35.3125,-34.3125,0
76990,-15.0625,36.5,-33.5625,0
77010,-15.0625,35.25,-33.25,0
77030,-12.875,34.875,-33.25,0
77050,-9.25,36,-31,0
77080,-9,36.25,-28.5,0
77100,-10.8125,35.5625,-26.125,0
77120,-10.3125,35.6875,-24.3125,0
77140,-6.8125,34.4375,-25.5,0
77160,-5.6875,32.1875,-25.375,0
77180,-6.875,31.6875,-25.8125,0
77200,-4.625,32.1875,-26.3125,0
77220,-4.6875,31.4375,-26,0
77240,-1,31.875,-24,0
77260,-0.9375,31.4375,-21.125,0
77280,-1.125,31.625,-19.625,0
77300,-0.4375,32.3125,-19.0625,0
77320,-3.75,33.8125,-17,0
77340,-7.75,34.5625,-15.3125,0
77360,-6.1875,34.375,-13.625,0
77380,-2.9375,32.375,-11.3125,0
77400,3.25,32.8125,-8.5625,0
77420,3.6875,34.125,-5.5625,0
77440,-0.75,33.75,-5.5625,0
77460,-4.5,31.25,-4.6875,0
77480,-3.4375,28.8125,-1.1875,0
77500,1.875,28.75,0.125,0
77520,4.8125,29.9375,2.0625,0
77540,4.6875,31,5.75,0
77560,1.4375,32.875,7.625,0
77580,-1.0625,33,9.1875,0
77600,-0.5,31.625,9.6875,0
77620,-1,32.4375,9.0625,0
77640,-1.375,32.6875,9.875,0
77660,-1.0625,31.4375,9.4375,0
77680,-1.5625,29.8125,10.8125,0
77700,-2.3125,27.125,9.3125,0
77720,1.875,24.0625,8.0625,0
77740,4,23.5,9.125,0
77760,3.9375,25.125,8.875,0
77780,2.5,25.5625,9.75,0
77800,3.3125,24.0625,9.6875,0
77820,2.25,22.8125,10.125,0
77840,1.25,23.4375,9.9375,0
77860,1.875,24.1875,10.375,0
77880,0.375,26.0625,12,0
77900,1.4375,25.9375,13.3125,0
77920,3.625,23.1875,15,0
77940,3.4375,24.1875,16.0625,0
77960,4.25,25.8125,14.1875,0
77980,4,25.625,12.5625,0
78000,6,24.875,11.1875,0
78020,7.4375,23.25,13.25,0
78040,5.375,21.6875,14.875,0
78060,8.875,22.5,13.3125,0
78080,10.4375,22.5,13.1875,0
78100,9.3125,22.1875,16.1875,0
78120,6.5,22.4375,16.875,0
78140,3.8125,20.5,17.1875,0
78160,4.25,18,18.1875,0
78180,-0.0625,17,21.25,0
78200,-2,15.3125,21.5625,0
78220,-3.9375,11.9375,18.8125,0
78240,-2.875,9.5,17.625,0
78260,-1.9375,7.1875,19,0
78280,0.75,5.1875,19.8125,0
78300,3.4375,3,18.375,0
78320,7.6875,3.375,17.5,0
78340,6,3.5625,18.4375,0
78360,-1.5625,2.5625,18.875,0
78380,-3.0625,2.0625,18.1875,0
78400,-2.625,0.5625,17.6875,0
78420,0.5,-1.3125,18.375,0
78440,1.4375,-3.375,17.5,0
78460,-2.0625,-6.0625,17.125,0
78480,-2.25,-6.9375,16.0625,0
78500,0.3125,-7.4375,16.625,0
78520,1.25,-8.375,18.1875,0
78540,-1.4375,-9.6875,19.375,0
78560,-0.4375,-7.4375,19.4375,0
78580,-0.4375,-4.4375,19.125,0
78600,-2.0625,-4.1875,19.25,0
78620,-2.875,-6.0625,18.6875,0
78640,-1.4375,-6.25,18.5625,0
78660,2.4375,-6.125,17.75,0
78680,2.625,-7.75,18.375,0
78700,-2.1875,-7.5,18.8125,0
78720,-3.8125,-7.5,18.125,0
78740,-1.5,-7.4375,16.5625,0
78760,-2,-7.8125,17.1875,0
78780,-2.1875,-8.0625,19.1875,0
78800,1.1875,-7.5625,20.125,0
78820,0,-8.625,18.875,0
78840,-7.1875,-9.6875,19,0
78860,-8,-9,18.625,0
78880,-5.375,-9.4375,17.75,0
78900,-4.9375,-11.6875,17.25,0
78920,-1.5625,-12.875,17,0
78940,2,-13.125,16.6875,0
78960,1.5625,-14.4375,18.0625,0
78980,-0.125,-15.5625,18.8125,0
79000,-4.625,-15.9375,18.4375,0
79020,-5,-14.9375,18.375,0
79040,-5.875,-14.75,17.8125,0
79060,-7.75,-15.3125,17.3125,0
79080,-5.875,-16.875,17.4375,0
79100,-2.4375,-18.25,17.6875,0
79120,-0.25,-18.25,17.0625,0
79140,-2.6875,-17.6875,15.8125,0
79160,-5.0625,-17.125,15.5625,0
79180,-6.5,-18.375,16.125,0
79200,-8.1875,-18.9375,16.1875,0
79220,-3.25,-18.625,15.1875,0
79240,-1.5625,-19.125,14.0625,0
79260,-5,-19.25,13.625,0
79280,-6.9375,-20.3125,13.125,0
79300,-6.75,-20.9375,12.5625,0
79320,-5.5625,-21.6875,11.8125,0
79340,-6.375,-23.4375,10.4375,0
79350,-8.3125,-25,10,0
79370,-6.9375,-25.125,10,0
79390,-8.625,-26.3125,10.25,0
79410,-10.8125,-28.0625,11.5,0
79430,-10.3125,-28.5,10.5625,0
79450,-6.3125,-29.5,9.0625,0
79470,-8.625,-31,8,0
79490,-10.625,-32.25,8.875,0
79510,-8.8125,-32.3125,8.625,0
79530,-10.3125,-33.375,7.0625,0
79550,-11.6875,-34.3125,6.5,0
79570,-15.9375,-35.75,6.0625,0
79590,-12.3125,-35.4375,4.625,0
79610,-7.625,-36.25,1.5,0
79630,-10.8125,-36.875,-0.6875,0
79650,-12.125,-37.25,-1.875,0
79670,-15.25,-38.3125,-3.3125,0
79690,-13.9375,-39.3125,-4.1875,0
79710,-5.5625,-38.5625,-5.625,0
79730,-2.625,-37.8125,-7.625,0
79750,-5.9375,-38.3125,-9.625,0
79770,-9.875,-39.375,-8.875,0
79790,-10.125,-39.6875,-8.5,0
79810,-8.3125,-39.0625,-8.125,0
79830,-8.5625,-38.375,-6.875,0
79850,-7.375,-37.9375,-7,0
79870,-9.6875,-36.875,-7.5,0
79890,-11.125,-35,-9.375,0
79910,-10.5625,-35.0625,-9.4375,0
79930,-9.3125,-36.25,-9.4375,0
79950,-7.75,-34.9375,-10.9375,0
79970,-5.25,-32.5625,-11.5625,0
79990,-3.125,-31.6875,-12.5625,0
80010,-5,-33.375,-12.8125,0
80030,-7.4375,-33,-12.875,0
80050,-8.9375,-31.125,-11.75,0
80070,-7.1875,-26.5625,-10.0625,0
80090,-6.25,-26.125,-9.625,0
80110,-9.8125,-27.0625,-10.25,0
80130,-8.75,-24.9375,-11.1875,0
80150,-5.9375,-23.5625,-13.5,0
80170,-3.9375,-23.875,-13.625,0
80190,-2.875,-22.9375,-15.0625,0
80210,-3.4375,-20.0625,-15.125,0
80230,-6.875,-18.5625,-13.8125,0
80250,-14.0625,-19.125,-9.375,0
80270,-17.25,-20.3125,-6.125,0
80290,-10.9375,-16.5625,-6.9375,0
80310,-9.5,-13.1875,-9.8125,0
80330,-11.8125,-13.1875,-10.625,0
80350,-12.3125,-12.9375,-13.1875,0
80370,-14.4375,-11.75,-16,0
80390,-14.25,-10.3125,-17.25,0
80410,-10.125,-8.25,-18.1875,0
80430,-9.125,-6.75,-16.1875,0
80450,-9.75,-4.5,-15.5,0
80470,-1.125,-2.8125,-17.375,0
80490,-1,-2.25,-19.25,0
80510,-6.9375,-2.125,-17,0
80530,-9.25,1.125,-19.4375,0
80550,-7.375,1,-22.9375,0
80570,-11.9375,-0.6875,-23.125,0
80590,-13.4375,-0.25,-23.3125,0
80610,-13.875,1.25,-25.4375,0
80630,-15.6875,3.0625,-26,0
80650,-14.4375,2.5625,-28.625,0
80670,-15.125,1.5625,-28.8125,0
80690,-11.8125,5.9375,-27.875,0
80710,-11.1875,10.1875,-29.75,0
80730,-17.4375,11.875,-28.1875,0
80750,-21.0625,12.1875,-26.25,0
80770,-19.6875,11.75,-28.1875,0
80790,-17.375,12.375,-30.0625,0
80810,-15.1875,13.75,-31,0
80830,-20.375,14.5,-30.5625,0
80850,-27.625,14.625,-31.6875,0
80870,-28.375,18.625,-34.125,0
80890,-26.0625,23.3125,-34.5625,0
80910,-24.0625,25.875,-33.375,0
80930,-22.8125,28.625,-35,0
80950,-20.25,31.875,-36.9375,0
80970,-17,37.125,-36.375,0
80990,-15.9375,39,-35.75,0
81010,-18.25,39.375,-34.9375,0
81030,-17.1875,42.125,-34.1875,0
81050,-13.1875,43.125,-35.3125,0
81070,-15.75,40.625,-34.8125,0
81090,-13.875,40.75,-35.0625,0
81110,-14.625,42.75,-34,0
81130,-16.6875,42.875,-28.9375,0
81150,-18,41,-25.9375,0
81170,-15.6875,38.5625,-26.3125,0
81190,-11.75,37,-25.375,0
81210,-8.25,33.75,-21.125,0
81230,-5.5,29.875,-19.0625,0
81250,-2.375,27.4375,-19,0
81270,-1.875,26.8125,-18.3125,0
81290,-4.75,25.6875,-13.9375,0
81310,-6.9375,23.8125,-6.9375,0
81330,-4.4375,23.25,-3.125,0
81350,1.6875,21.625,-3.125,0
81370,5.625,20.9375,0.3125,0
81390,4.5625,22.3125,5.375,0
81410,3.375,23.6875,9.75,0
81430,5.0625,25.125,12.4375,0
81450,5.5625,26.125,14.9375,0
81470,5.75,28.125,14.9375,0
81490,6,30.25,13.8125,0
81510,4.4375,32,15.5625,0
81530,1.8125,35.5625,16.5,0
81550,1,38.875,15.5625,0
81570,2.0625,40.0625,15.75,0
81590,3.25,39.4375,20.4375,0
81610,5.375,38.4375,25.8125,0
81630,11.4375,37.4375,25.4375,0
81650,13.5625,38,22.5,0
81670,12.9375,38.9375,19.875,0
81690,1.8125,38.625,21.625,0
81710,-4.875,37.875,22.6875,0
81730,-3.75,34.4375,21.3125,0
81750,2,30.6875,20.8125,0
81770,9,29.25,25.125,0
81790,13.0625,30.0625,29.9375,0
81810,10,28.6875,28.8125,0
81830,8.5625,26.5625,22.9375,0
81850,6.125,26,19.375,0
81870,4.375,24.25,21.9375,0
81890,5.4375,23.5,24.1875,0
81910,9.5,20.25,23.375,0
81930,14.3125,15.5,21.6875,0
81940,17.3125,14.4375,23.5625,0
81960,7.625,15.5,26.6875,0
81980,-1.4375,15.5,25.125,0
82000,-3.0625,12.1875,20.75,0
82020,-2.25,8.125,22,0
82040,3.125,7.9375,24.0625,0
82060,6.9375,7.8125,24.8125,0
82080,3.4375,4.0625,25.125,0
82100,1.75,-3.6875,26.3125,0
82120,8.25,-8.9375,24.8125,0
82140,9.375,-13.1875,20.375,0
82160,7.5,-16,17.5,0
82180,1.875,-17.9375,15.75,0
82200,-3.625,-17.5625,15.25,0
82220,-0.6875,-15.625,17.3125,0
82240,0,-15.125,18.0625,0
82260,10.125,-16,18.75,0
82280,11.5625,-15.25,19.4375,0
82300,7.9375,-13.875,21.625,0
82320,2.4375,-14.6875,20.9375,0
82340,1.0625,-17,19.3125,0
82360,-4.0625,-19.625,19.3125,0
82380,-5.75,-18.125,20.3125,0
82400,-0.8125,-15.625,21.25,0
82410,-3.0625,-15.875,20.5625,0
82430,-2.0625,-15.9375,19.5625,0
82450,3.625,-15.5625,16.875,0
82470,5,-16.25,15.3125,0
82490,2.125,-15.3125,13.9375,0
82510,4.6875,-15.375,11.8125,0
82530,8.4375,-17.875,12.5,0
82550,2.0625,-18.875,13.125,0
82570,1.625,-17.0625,12.25,0
82590,-1.8125,-15.5625,11.0625,0
82610,-9.6875,-17.125,9.375,0
82630,-8.9375,-19,7.9375,0
82650,-6,-20.125,7.8125,0
82670,-6.0625,-20.25,10.375,0
82690,-6.875,-18.8125,14.375,0
82710,-7.75,-16.875,16.75,0
82730,-10.75,-14.9375,17.25,0
82750,-15.125,-16.0625,16.875,0
82770,-16.3125,-18.25,15.9375,0
82790,-17.8125,-18.4375,16.25,0
82810,-19.0625,-16.6875,17.0625,0
82830,-10,-15.375,17.0625,0
82850,-9.4375,-16.3125,15.75,0
82870,-10.9375,-18.0625,14.3125,0
82890,-7.0625,-19.5625,13.25,0
82910,-9.25,-22.5625,11.6875,0
82930,-4.5625,-23.125,11.0625,0
82950,-2.8125,-22.9375,9.875,0
82970,-4.5625,-25.0625,9.9375,0
82990,-4.0625,-26.25,7.8125,0
83010,-4.8125,-27.625,5.1875,0
83030,-5.375,-28.9375,4.3125,0
83050,-4.5625,-29.4375,2.5625,0
83070,-4.9375,-29,0.25,0
83090,-7.3125,-29.8125,-2.4375,0
83110,-5.5,-34.375,-4.75,0
83130,-5.25,-35.25,-7.6875,0
83150,-6.125,-33.1875,-10.375,0
83170,-3.5625,-31.3125,-9.6875,0
83190,-8.0625,-32.3125,-9.0625,0
83210,-11.75,-33.3125,-8.9375,0
83230,-8.25,-34.0625,-10.1875,0
83250,-2,-32.625,-8.8125,0
83270,-3.125,-31.6875,-7.75,0
83290,-4.125,-30.3125,-8.125,0
83310,-9,-29.8125,-7.75,0
83330,-9.3125,-30.9375,-7.125,0
83350,-6.75,-32.3125,-8.25,0
83370,-6.1875,-29.375,-7.375,0
83390,-8.3125,-25.5,-5.375,0
83410,-8.5625,-24.75,-3.875,0
83430,-6.9375,-23.0625,-3.1875,0
83450,-4.5625,-21.1875,-1,0
83470,-3.25,-21.75,0.75,0
83490,-3,-21.75,-1.125,0
83510,-8.4375,-18.125,-3.4375,0
83530,-17.3125,-15,-3.8125,0
83550,-24.375,-16.1875,0.125,0
83570,-19.5625,-19.25,4.5625,0
83590,-3.625,-18.4375,-0.1875,0
83610,5.875,-17.3125,-7.25,0
83630,3.625,-17.875,-9.3125,0
83650,-4.9375,-20.875,-10.25,0
83670,-7.625,-20.3125,-12.5,0
83690,-5.625,-18.8125,-15.375,0
83710,-7,-18.5,-15.3125,0
83730,-8,-17.3125,-14.25,0
83750,-7.5,-15.75,-15.0625,0
83770,-6.125,-14.9375,-14.625,0
83790,-5.75,-16,-14.0625,0
83810,-6.8125,-17.3125,-13.6875,0
83830,-4.1875,-15.25,-16.0625,0
83850,-4.6875,-13.0625,-18.0625,0
83870,-10.4375,-13.375,-17.4375,0
83890,-15.875,-14.25,-16.5,0
83910,-11,-13.9375,-17.5625,0
83930,-7.3125,-12.5625,-19,0
83950,-7.9375,-12.125,-17.8125,0
83970,-7.875,-11.375,-15.875,0
83990,-9.1875,-7.5,-16.125,0
84010,-9.625,-3.1875,-18.5625,0
84030,-13.0625,-1.8125,-19.0625,0
84050,-12.125,-2.75,-16.875,0
84070,-5.5,-3.75,-16.75,0
84090,0.875,-3.1875,-19.5,0
84110,0.75,-1.8125,-18.75,0
84130,-8.8125,-2.125,-19,0
84150,-18.4375,-1.25,-20.5,0
84170,-21,-0.125,-21.3125,0
84190,-20.1875,-0.0625,-21.6875,0
84210,-17.8125,-1.375,-21.5625,0
84230,-11.75,0.4375,-21.4375,0
84250,-5.625,4.5625,-22.5625,0
84270,-4.0625,6.9375,-22.9375,0
84290,-12.125,4.6875,-23.8125,0
84310,-14.6875,4.75,-25.5625,0
84330,-13.5,7.625,-27.4375,0
84350,-13.6875,11.625,-27.3125,0
84370,-11,10.5625,-27.5625,0
84390,-9.8125,9.125,-28,0
84410,-4.625,11.9375,-27.3125,0
84430,-0.1875,13.8125,-27.8125,0
84450,-1.9375,14,-28.1875,0
84470,-7.375,14.8125,-28.25,0
84490,-12.25,17.8125,-32.4375,0
84510,-15.6875,19.75,-33.4375,0
84530,-17.4375,19.3125,-31.625,0
84550,-15,20.4375,-30.8125,0
84560,-5.25,23.8125,-30.375,0
84580,0.125,23.9375,-30.6875,0
84600,-3.3125,23.4375,-30.5625,0
84620,-6.375,27,-28.25,0
84640,-9.6875,30.9375,-26.5625,0
84660,-7.9375,34.25,-24.625,0
84680,-6,37.25,-22.1875,0
84700,-7.5625,36.4375,-19.125,0
84720,-1.6875,36.4375,-16.625,0
84740,5.75,36.125,-12.0625,0
84760,7.375,35.125,-10.3125,0
