Timestamp, Rotation x, Rotation y, Rotation z, Marker
20,-0.3125,0,-0.25,0
50,0.1875,-0.375,-0.125,0
70,0.375,-0.375,0,0
90,0.125,0,-0.0625,0
110,0.0625,0.3125,0,0
130,0.0625,0.25,0,0
150,0.25,-0.25,-0.1875,0
170,0.375,-0.25,-0.25,0
190,0.375,0.125,-0.375,0
210,0.0625,0.25,-0.3125,0
230,0.0625,0.25,-0.25,0
230,0.1875,0.1875,-0.25,0
270,0.375,0.1875,-0.0625,0
290,0.25,0.25,0,0
310,0.0625,0.1875,-0.0625,0
330,0.0625,0,-0.25,0
350,0.1875,0.1875,-0.375,0
370,0.1875,0.375,-0.3125,0
390,0.125,0.25,-0.375,0
410,0.1875,0.1875,-0.4375,0
430,0.1875,0.3125,-0.4375,0
450,0.3125,0.25,-0.1875,0
470,0.5,0.3125,0.1875,0
490,0.5,0.25,0.25,0
510,0.3125,0.25,0.125,0
530,0.375,0.125,0,0
540,0.3125,0.0625,-0.25,0
560,0.3125,0.25,-0.3125,0
580,0.4375,0.1875,-0.1875,0
600,0.25,-0.1875,-0.1875,0
620,0.0625,-0.375,-0.3125,0
640,0.125,0.0625,-0.25,0
660,0.1875,0.5,-0.375,0
680,0.0625,0.375,-0.375,0
700,0.0625,0.125,-0.5,0
720,0.1875,-0.125,-0.5625,0
740,0.125,-0.1875,-0.5,0
760,0.375,-0.3125,-0.375,0
780,0.4375,-0.375,-0.125,0
800,0.625,-0.5,-0.0625,0
820,0.625,-0.25,-0.125,0
840,0.5625,0.375,0,0
860,0.875,0.1875,0.0625,0
880,2.25,-1.25,-0.25,0
900,2.625,-2.1875,-0.625,0
920,2.25,-2.5625,-0.75,0
940,1.6875,-1.6875,-0.75,0
960,0.75,-0.625,-0.75,0
980,0.3125,-0.0625,-0.5,0
1000,0.0625,0.0625,-0.375,0
1020,-0.125,-0.1875,-0.4375,0
1040,-0.5,-0.0625,-0.4375,0
1060,-0.4375,-0.0625,-0.3125,0
1080,-0.3125,0.125,-0.25,0
1100,-0.3125,0.4375,0.1875,0
1120,0,0.25,0.375,0
1140,0.625,0.5625,0.5,0
1160,1.625,1.1875,0.1875,0
1180,2.3125,1.375,-0.0625,0
1200,1.0625,0.625,-0.25,0
1220,0.4375,0,0.1875,0
1240,-0.5625,-0.375,0.25,0
1260,-0.3125,-0.8125,0.5625,0
1280,-0.625,-0.5625,0.375,0
1300,-0.625,-0.75,0.25,0
1320,-0.875,-1,0.125,0
1340,-1,-0.625,0.125,0
1360,-0.625,-0.5,0.0625,0
1380,-0.8125,0.125,0.1875,0
1400,-0.75,0.1875,0,0
1420,-0.9375,-0.25,0.0625,0
1440,-1.0625,0,-0.1875,0
1460,-1.0625,0.25,-0.125,0
1480,-0.6875,0.25,-0.0625,0
1500,-0.5625,0.1875,-0.125,0
1520,-0.6875,0,-0.3125,0
1540,-0.5625,0,-0.4375,0
1560,-0.1875,0.0625,-0.4375,0
1580,-0.25,0.0625,-0.375,0
1600,-0.4375,0.1875,-0.3125,0
1620,-0.375,0.25,-0.0625,0
1640,-0.5,0.375,-0.0625,0
1660,-0.4375,0.5625,0.125,0
1680,-0.1875,0.4375,0.3125,0
1700,0.0625,0.5,0.1875,0
1720,-0.125,0.5625,0.125,0
1740,-0.4375,0.5625,-0.0625,0
1760,-0.3125,0.375,0.125,0
1780,-0.0625,0.375,0.0625,0
1800,0,0.125,-0.1875,0
1820,-0.25,0.25,-0.375,0
1840,-0.625,0.1875,-0.4375,0
1860,-0.4375,0,-0.4375,0
1880,0,-0.25,-0.3125,0
1900,0,0.1875,-0.1875,0
1920,0,0.5,0,0
1940,-0.0625,0.625,0.1875,0
1960,-0.0625,0.5625,0.1875,0
1980,0,0.125,0.125,0
2000,0.125,0.1875,0.125,0
2020,0.125,0.125,0,0
2040,-0.0625,-0.125,0.0625,0
2060,-0.375,0.125,-0.25,0
2080,-0.375,0.125,-0.4375,0
2100,0,0.0625,-0.5,0
2120,0.0625,0,-0.625,0
2140,0,0.3125,-0.3125,0
2160,-0.1875,0.5,0,0
2180,-0.0625,0.5625,0.1875,0
2200,0.0625,0.4375,0.25,0
2220,0.0625,0.25,0.125,0
2240,-0.125,0.375,0,0
2260,0.1875,0.25,-0.0625,0
2280,0.0625,0.375,-0.0625,0
2300,0.0625,0.1875,-0.25,0
2320,0.0625,0.0625,-0.25,0
2340,0.125,-0.125,-0.0625,0
2360,0.125,-0.375,-0.125,0
2380,-0.125,-0.375,-0.25,0
2400,-0.3125,-0.125,-0.375,0
2420,-0.125,-0.0625,-0.4375,0
2440,0.0625,-0.1875,-0.625,0
2460,0.0625,-0.625,-0.8125,0
2480,0,-0.625,-1,0
2500,-0.375,-0.625,-1.375,0
2520,-0.3125,-0.5,-1.5625,0
2530,-0.375,-0.1875,-1.5625,0
2550,-0.25,0.0625,-1.5625,0
2570,-0.6875,0.375,-1.5625,0
2590,-0.4375,0.3125,-1.25,0
2610,-0.1875,0.4375,-0.75,0
2630,-0.25,0.5625,-0.4375,0
2650,-0.0625,0.875,-0.125,0
2670,-0.125,1.25,0.125,0
2690,-0.3125,1.125,-0.125,0
2710,-0.8125,1.4375,-0.625,0
2730,-1.5,1.9375,-1.125,0
2750,-2.5625,2.6875,-1.8125,0
2770,-3.6875,3.3125,-2.125,0
2790,-3.875,4.25,-2.0625,0
2810,-3.5,4.4375,-2,0
2830,-2.625,3.0625,-1.9375,0
2850,-2.5,2.1875,-2.375,0
2870,-2.25,0.5625,-2.6875,0
2890,-2,-0.5625,-3.25,0
2910,-1.8125,0.5625,-3.125,0
2930,-1.875,0.875,-3.375,0
2950,-2.25,1.25,-3.3125,0
2970,-1.5625,1.5,-2.8125,0
2990,-1.1875,2,-2.8125,0
3010,-1.75,2,-3.0625,0
3030,-1.875,2.1875,-3.25,0
3050,-0.9375,2.875,-2.8125,0
3070,-0.375,2.625,-2.875,0
3090,0.25,1.75,-3.9375,0
3110,-0.4375,1.75,-4.75,0
3130,-2.1875,1.9375,-7.75,0
3150,-2.9375,4.1875,-10.625,0
3170,-4.9375,6.875,-9.75,0
3190,-4.4375,8.75,-8.3125,0
3210,-3.375,8.1875,-6.5,0
3230,-2.5,6.375,-5,0
3250,-2.0625,3.875,-4.3125,0
3270,-2.6875,2.8125,-4.375,0
3290,-3.375,3.5625,-3.125,0
3310,-3,3.875,-1.625,0
3330,-2.0625,3.625,-0.25,0
3350,-1.5,3.5,0.875,0
3370,-0.9375,3.9375,1.8125,0
3390,-0.6875,5,2.375,0
3410,-0.6875,6.4375,2.625,0
3430,-0.375,6.5625,2.75,0
3450,0.1875,6,2.6875,0
3470,0.25,4.8125,2.3125,0
3490,0.125,4.125,2,0
3510,0,3.6875,1.5625,0
3530,-0.125,2.625,1.3125,0
3550,0.0625,1.1875,0.625,0
3570,-0.25,-0.25,-0.5625,0
3590,-0.625,-1.4375,-1.6875,0
3610,-1.3125,-1.5,-2.6875,0
3630,-1.0625,0.3125,-2.8125,0
3650,-0.9375,1.375,-2.375,0
3670,-0.1875,1.8125,-1.875,0
3690,0.5,3.0625,-0.5,0
3710,0.4375,4,0.1875,0
3730,-0.125,3.6875,0.375,0
3750,-0.125,2.25,-0.0625,0
3770,-0.3125,0.9375,-0.875,0
3790,-1,0.25,-1.25,0
3810,-1.25,0,-1.3125,0
3830,-1.25,-0.3125,-0.875,0
3850,-1.125,-0.625,-0.4375,0
3870,-0.6875,-0.5625,0.0625,0
3890,-0.625,-0.3125,0.9375,0
3910,-0.625,-0.0625,1.5,0
3930,-0.5625,-0.125,1.6875,0
3950,-0.5625,-0.75,1.4375,0
3970,-0.4375,-1.3125,0.8125,0
3990,-0.75,-1.5625,0.1875,0
4010,-0.4375,-1.5625,-0.5,0
4030,-0.3125,-1.5625,-0.875,0
4050,0,-1.4375,-1,0
4070,-0.125,-1.3125,-0.6875,0
4090,-0.125,-1.25,-0.375,0
4110,0,-1.0625,0.3125,0
4130,0.1875,-0.875,0.5,0
4150,0.0625,-0.3125,0.625,0
4170,-0.1875,0,0.625,0
4190,-0.1875,0.375,0.8125,0
4210,-0.25,0.875,1,0
4230,0,0.6875,1.125,0
4250,0.125,0.625,1.4375,0
4270,0.25,0.5,1.625,0
4290,0.625,0.6875,1.75,0
4310,0,0.75,1.6875,0
4330,-0.25,0.375,1.5625,0
4350,0,-0.0625,1.3125,0
4370,0.3125,-0.5625,1,0
4390,0.0625,-0.8125,0.6875,0
4410,-0.5,-0.5,0.5625,0
4430,-0.375,-0.5,0.375,0
4450,-0.0625,-0.3125,0.4375,0
4470,-0.1875,0.125,0.6875,0
4490,-0.3125,0.125,0.75,0
4510,-0.5,-0.1875,0.6875,0
4530,-0.1875,-0.0625,0.875,0
4550,-0.125,0.125,1.125,0
4570,-0.0625,-0.125,1.3125,0
4590,0.0625,-0.5625,1.25,0
4610,-0.0625,-0.625,1.1875,0
4630,0.0625,-0.125,1.375,0
4650,0.0625,0.375,1.625,0
4670,-0.125,0.375,1.625,0
4690,0.0625,0.1875,1.375,0
4710,0.25,-0.0625,1,0
4730,0.25,-0.125,0.6875,0
4750,0.0625,-0.1875,0.25,0
4770,0.125,-0.5,-0.125,0
4790,0,-0.6875,-0.5,0
4810,-0.125,-0.6875,-0.6875,0
4830,0,-0.0625,-0.4375,0
4850,0.3125,0.4375,-0.125,0
4870,0.75,0.5,0.0625,0
4890,0.5625,0.75,0.0625,0
4910,0.1875,0.875,0.1875,0
4930,0.0625,0.875,0.1875,0
4950,0.125,0.5625,0.3125,0
4970,0.4375,0.4375,0.1875,0
4990,0.375,0.125,-0.125,0
5010,0,0.0625,-0.0625,0
5030,0,0.1875,-0.3125,0
5050,-0.1875,-0.25,-0.75,0
5070,-0.3125,-0.8125,-1.125,0
5090,-0.375,-1.25,-1.5,0
5110,-0.5,-2.375,-1.875,0
5130,-0.3125,-3.8125,-2.4375,0
5150,0.1875,-4.125,-2.8125,0
5170,0.3125,-3.9375,-3.1875,0
5190,0.375,-3.875,-3.8125,0
5210,0.0625,-3.5,-4.3125,0
5230,-0.5625,-2.0625,-4.625,0
5250,-1.125,-0.4375,-4.9375,0
5270,-1.3125,1.125,-4.625,0
5290,-0.625,2.6875,-3.375,0
5310,0.4375,3.4375,-2,0
5330,1.3125,3.5,-0.6875,0
5350,1.1875,3.6875,0.4375,0
5370,1.3125,3.0625,0.75,0
5390,1,2.3125,0.5625,0
5410,0.8125,1.3125,0.375,0
5430,0.8125,0.5625,0.1875,0
5450,0.8125,0,0.25,0
5470,1.125,-0.25,0,0
5490,0.8125,-0.25,-0.1875,0
5510,0.5,-0.0625,-0.3125,0
5530,0.3125,0.1875,-0.4375,0
5550,0.375,0.25,-0.375,0
5570,0.625,0.375,-0.1875,0
5590,0.875,0.3125,-0.3125,0
5610,1,0.1875,-0.5,0
5630,0.5,0,-0.625,0
5650,0.125,0.0625,-0.4375,0
5670,0.125,0.0625,-0.125,0
5690,0.25,-0.375,-0.0625,0
5710,0.1875,-0.9375,-0.25,0
5730,0.0625,-0.875,-0.375,0
5750,0,-0.6875,-0.375,0
5770,-0.3125,-0.25,-0.375,0
5790,-0.5625,-0.25,-0.3125,0
5810,-0.1875,-0.3125,-0.1875,0
5830,0.125,-0.0625,0.125,0
5850,0,0.5625,0.4375,0
5870,-0.3125,1,0.625,0
5890,0.0625,0.8125,0.625,0
5910,0.1875,0.4375,0.6875,0
5930,0.0625,0.0625,0.6875,0
5950,-0.1875,-0.0625,0.6875,0
5970,-0.25,-0.5,0.75,0
5990,-0.1875,-0.75,0.6875,0
6000,-0.0625,-0.3125,0.75,0
6030,0.5,0.375,1.1875,0
6050,0.625,0.375,1.4375,0
6070,0.0625,0.3125,1.5625,0
6090,-0.1875,0.4375,1.375,0
6110,-0.4375,0.4375,1,0
6130,-0.375,-0.3125,0.5,0
6150,-0.0625,-1.0625,-0.25,0
6170,-0.4375,-1.0625,-0.6875,0
6190,-0.8125,-1.0625,-0.9375,0
6210,-0.9375,-1,-0.875,0
6230,-0.4375,-0.6875,-0.6875,0
6250,-0.125,-0.625,-0.5,0
6270,-0.0625,-0.125,-0.3125,0
6290,-0.25,0.3125,-0.1875,0
6310,-0.375,0.3125,0.0625,0
6330,-0.25,0.5,0.1875,0
6350,-0.375,0.25,0.125,0
6370,-0.3125,-0.0625,-0.0625,0
6390,-0.125,-0.5,-0.1875,0
6410,-0.0625,-0.8125,-0.1875,0
6430,0.0625,-1.125,-0.25,0
6450,-0.125,-1.0625,-0.375,0
6470,-0.25,-0.9375,-0.25,0
6490,-0.0625,-0.6875,-0.0625,0
6510,0,-0.5625,0.25,0
6530,-0.1875,-0.5625,0.1875,0
6550,-0.125,-0.3125,0.0625,0
6570,-0.1875,-0.0625,0.1875,0
6590,-0.25,-0.0625,-0.0625,0
6610,-0.3125,-0.3125,-0.1875,0
6630,0.0625,-0.4375,-0.1875,0
6650,-0.1875,-0.5,-0.4375,0
6670,-0.3125,-0.625,-0.4375,0
6690,-0.4375,-1.375,-0.75,0
6710,-0.5,-2.125,-1.125,0
6730,-0.4375,-2.375,-1.4375,0
6750,-0.3125,-2.4375,-1.125,0
6770,-0.375,-2.5625,-1.25,0
6790,-0.4375,-2.625,-1.5,0
6810,-0.375,-2.1875,-1.4375,0
6830,-0.625,-1.6875,-1.625,0
6850,-0.3125,-1.3125,-1.25,0
6870,0.25,-1.5,-0.625,0
6890,0.9375,-1.5,-0.25,0
6910,0.8125,-1.5625,-0.25,0
6930,0.5,-1.625,-0.4375,0
6950,0.75,-1.8125,-0.5,0
6970,1.1875,-2.125,-0.625,0
6990,1.125,-2.625,-0.9375,0
7010,0.375,-3.4375,-1.3125,0
7030,0,-3.625,-1.625,0
7050,-0.4375,-4.1875,-1.8125,0
7070,0.4375,-5.6875,-1,0
7090,1.125,-6.125,-1.125,0
7110,0.6875,-4.9375,-1.25,0
7130,0.125,-5,-0.625,0
7150,0.875,-5.625,0.125,0
7170,1.5,-5.8125,0.625,0
7190,1.25,-5.1875,0.8125,0
7210,0.625,-4.25,1.0625,0
7230,0.75,-4.625,1.3125,0
7250,1.5,-4.5,1.4375,0
7270,1.6875,-3.0625,1.9375,0
7290,1,-1.8125,1.875,0
7310,0.125,-1.0625,1.75,0
7330,0.625,-0.8125,1.9375,0
7350,1.75,-0.5,2.125,0
7370,2,0.1875,1.9375,0
7390,1.75,0.625,1.625,0
7410,0.625,0.5,1.25,0
7430,0.125,0.5,1.125,0
7450,0.0625,0.75,0.6875,0
7470,0,-0.0625,0.125,0
7500,0.8125,-0.25,-0.125,0
7510,1.125,-0.375,-0.0625,0
7530,0.4375,-0.125,0.125,0
7550,0.1875,0.1875,0.625,0
7570,0.625,0.1875,1.375,0
7590,1.0625,0.6875,2.1875,0
7610,0.875,1.0625,2.5625,0
7630,0.625,1.0625,2.1875,0
7660,1,0.6875,1.3125,0
7680,1.25,0.875,0.625,0
7700,0.6875,1,0.0625,0
7720,0.4375,1.3125,-0.25,0
7740,0.375,1.6875,-0.0625,0
7770,0.5,1.375,0.5,0
7790,0.75,1.0625,0.6875,0
7810,0.875,0.6875,0.8125,0
7830,0.75,0.625,0.875,0
7850,0.5625,0.875,0.75,0
7870,0.75,0.5625,0.75,0
7890,1.0625,0.6875,0.5,0
7910,0.9375,1,0.0625,0
7930,0.75,0.75,-0.375,0
7940,0.25,0.6875,-0.6875,0
7960,0.0625,0.3125,-0.75,0
7980,0.75,-0.5625,-0.5625,0
8000,0.5,-0.8125,-0.8125,0
8020,0.1875,-0.625,-0.8125,0
8040,0.25,0,-0.375,0
8060,0.4375,0.4375,0,0
8080,0.75,0.5625,0.375,0
8100,0.75,0.6875,0.5,0
8120,0.375,0.75,0.375,0
8140,0,0.75,0.25,0
8160,0.25,0.375,0.0625,0
8180,0.375,0.125,-0.0625,0
8200,0.4375,0.5,-0.0625,0
8220,0.125,1.625,-0.0625,0
8250,-0.125,2.25,0.5,0
8290,-0.25,1.6875,0.625,0
8310,-0.125,0.5,0.625,0
8330,-0.0625,-0.5625,0.375,0
8350,0.1875,-0.9375,-0.0625,0
8370,0.0625,-0.625,0.0625,0
8390,-0.25,0,0.3125,0
8420,0.125,-0.375,0.875,0
8440,0.5,-0.5,0.875,0
8460,0.1875,-0.6875,0.9375,0
8480,-0.0625,-0.875,0.6875,0
8500,-0.3125,-0.8125,0.3125,0
8520,-0.4375,-0.4375,0.0625,0
8540,-0.375,0.125,-0.25,0
8560,-0.125,0.4375,0,0
8580,0,0.5,0.25,0
8600,-0.3125,0.375,0.5625,0
8620,-0.1875,-0.25,0.5,0
8640,-0.0625,-0.5625,0.5625,0
8660,-0.3125,-0.75,0.3125,0
8680,0,-0.8125,0.25,0
8700,-0.125,-0.125,0.125,0
8720,-0.125,-0.3125,0.125,0
8740,-0.0625,-0.125,-0.125,0
8760,-0.1875,0.125,0.0625,0
8780,-0.0625,-0.1875,0.1875,0
8800,0.0625,-0.125,0.25,0
8820,0.125,-0.5,0.25,0
8850,-0.1875,-0.1875,0.125,0
8870,-0.125,0.1875,-0.125,0
8890,-0.4375,0.875,-0.3125,0
8910,-0.375,1.1875,-0.375,0
8930,-0.125,1.125,0,0
8950,-0.3125,0.5625,0.125,0
8970,-0.25,-0.3125,-0.0625,0
8990,-0.25,-0.4375,-0.4375,0
9010,0,-0.125,-0.4375,0
9030,0.0625,0.4375,-0.5,0
9050,0,0.9375,-0.625,0
9070,-0.1875,0.75,-0.8125,0
9090,-0.3125,0.1875,-0.875,0
9110,-0.125,-0.5,-0.6875,0
9130,-0.1875,-0.125,-0.6875,0
9150,-0.125,0.125,-0.6875,0
9170,0.0625,0.0625,-0.1875,0
9190,0.0625,0.3125,-0.3125,0
9210,0,0.5625,-0.125,0
9230,0,0.625,0,0
9250,0.0625,0.5625,0.1875,0
9270,0.3125,0.1875,0.3125,0
9290,0.25,-0.125,0.1875,0
9310,0,-0.3125,0.0625,0
9330,-0.1875,0,-0.1875,0
9350,0.0625,-0.125,-0.125,0
9370,0.0625,-0.375,-0.375,0
9390,0.125,-0.375,-0.5,0
9410,-0.125,0.0625,-0.6875,0
9430,-0.5,0.6875,-0.5625,0
9450,-0.25,0.5625,-0.375,0
9470,0,0.375,-0.25,0
9490,0.3125,0.125,0.125,0
9510,0.5,0.375,0.25,0
9530,0.1875,0.375,0.25,0
9550,0.0625,0.125,0,0
9570,0.0625,0,0.0625,0
9590,0.125,0,0.1875,0
9610,0.375,-0.3125,0.1875,0
9630,0.375,-0.125,0.3125,0
9650,0.0625,0.1875,0.3125,0
9670,-0.25,0.6875,0.625,0
9690,0.0625,0.5,0.5625,0
9710,0.4375,0.3125,0.5625,0
9730,0.6875,-0.125,0.3125,0
9750,0.3125,-0.3125,-0.25,0
9770,-0.125,-0.25,-0.6875,0
9790,-0.1875,-0.1875,-0.8125,0
9810,-0.0625,-0.0625,-0.9375,0
9830,-0.0625,0.0625,-1.0625,0
9850,0.0625,-0.1875,-0.8125,0
9870,0.3125,0.0625,-0.5,0
9890,0.4375,0.25,-0.125,0
9910,0.375,0.4375,0.1875,0
9930,0.125,0.875,0.25,0
9950,0.25,1.1875,0.3125,0
9970,0.5625,1.625,0.375,0
9990,0.6875,1.375,-0.0625,0
10010,0.625,1.1875,-0.3125,0
10030,0.5625,0.5,-0.375,0
10050,0.25,-0.375,-0.875,0
10070,0.125,-0.9375,-1.0625,0
10090,0.125,-0.5625,-1.0625,0
10110,0.3125,0.1875,-0.75,0
10130,0.3125,0.625,-0.625,0
10150,0.1875,0.875,-0.4375,0
10170,0.375,0.8125,-0.25,0
10190,0.25,0.8125,-0.1875,0
10210,0.375,0.75,-0.0625,0
10230,0.4375,0.6875,0.25,0
10250,0.375,0.3125,0.1875,0
10270,0.25,-0.125,0,0
10290,0.375,-0.1875,0,0
10310,0.6875,0,0.0625,0
10330,0.5625,0.3125,0.25,0
10350,0.625,0.375,0.25,0
10370,0.25,0.3125,0.25,0
10390,0.0625,0.1875,0.1875,0
10410,0.3125,-0.0625,0.125,0
10430,0.75,-0.375,-0.0625,0
10450,0.6875,-0.0625,-0.25,0
10470,0.375,-0.25,-0.5625,0
10490,0.125,-0.375,-0.5,0
10510,0.0625,0,-0.3125,0
10530,0.125,0.0625,-0.1875,0
10550,0.5,0.125,-0.0625,0
10570,0.375,0.1875,0.1875,0
10590,0.25,0.0625,0.25,0
10610,0.0625,0.125,0.1875,0
10630,0.125,0.125,0,0
10650,0.0625,0.3125,0.125,0
10670,0.25,0.1875,0.375,0
10690,0.125,-0.0625,0.25,0
10710,0.0625,-0.25,0.4375,0
10730,-0.125,-0.25,0.0625,0
10750,-0.25,-0.3125,-0.1875,0
10770,-0.1875,-0.625,-0.5625,0
10790,-0.1875,-0.6875,-0.9375,0
10810,-0.4375,-0.75,-1,0
10830,-0.4375,-0.25,-0.875,0
10850,-0.375,0.0625,-0.625,0
10870,-0.375,0.5,-0.3125,0
10890,-0.125,0.375,0.25,0
10910,0.1875,0.1875,0.625,0
10930,0.0625,0.0625,0.6875,0
10950,-0.0625,-0.3125,0.625,0
10970,-0.0625,-0.4375,0.3125,0
10990,0,-0.3125,0.0625,0
11010,0.125,-0.25,0.125,0
11030,0,0.1875,-0.0625,0
11050,-0.4375,0.125,-0.3125,0
11070,-0.75,0.5625,-0.4375,0
11090,-0.5,0.625,-0.25,0
11110,-0.4375,0.6875,0,0
11130,-0.125,0.6875,-0.125,0
11150,-0.0625,1.75,-0.0625,0
11170,-0.4375,2.25,0.1875,0
11190,-0.3125,1.6875,0.4375,0
11210,0.1875,0.625,0.625,0
11230,0,-0.5,0.25,0
11250,-0.375,-1.1875,0,0
11270,0.0625,-1,0.25,0
11290,0.0625,-0.1875,0.4375,0
11310,-0.1875,0.375,0.5625,0
11320,-0.125,0.4375,0.6875,0
11330,0,0.1875,0.5,0
11350,0,-0.125,0,0
11370,-0.25,-0.25,-0.1875,0
11390,-0.0625,-0.0625,-0.25,0
11410,0.0625,0.1875,-0.1875,0
11430,-0.1875,0.5,-0.1875,0
11450,-0.3125,0.0625,-0.3125,0
11470,-0.125,-0.25,-0.25,0
11490,-0.125,-0.4375,-0.125,0
11510,0,-0.375,0.125,0
11530,0.0625,-0.1875,0.1875,0
11550,0.25,0.1875,0.1875,0
11570,0.25,0.625,0.3125,0
11590,0.0625,0.625,0.375,0
11610,0.375,-0.1875,0.3125,0
11630,0.1875,-0.5625,0.0625,0
11650,0.0625,-0.4375,-0.1875,0
11670,0,-0.1875,-0.25,0
11690,-0.0625,0.0625,-0.25,0
11710,0.3125,0.1875,0,0
11730,0.375,0.3125,0.25,0
11750,0.125,0.3125,0.1875,0
11770,0.0625,0.0625,0.1875,0
11790,0,0.0625,0.125,0
11810,0.3125,-0.3125,0.0625,0
11830,0.5,-0.5,0,0
11850,0,-0.25,-0.25,0
11870,-0.3125,0.0625,-0.625,0
11890,-0.1875,-0.0625,-0.6875,0
11910,0.3125,-0.5625,-0.5,0
11930,0.6875,-0.9375,-0.25,0
11950,0.25,-0.9375,-0.1875,0
11970,0.125,-0.3125,-0.125,0
11990,0.1875,-0.0625,0.0625,0
12010,0.3125,0.25,0.0625,0
12030,0.1875,0.0625,-0.125,0
12050,0.1875,0.125,-0.375,0
12070,0.125,0.1875,-0.5,0
12090,0.4375,-0.0625,-0.6875,0
12110,0.375,-0.125,-0.75,0
12130,0.125,0.1875,-0.5625,0
12150,0.1875,0.8125,-0.1875,0
12170,0.4375,1.25,0.0625,0
12190,0.5625,1.125,0.4375,0
12210,0.625,0.4375,0.3125,0
12230,0.5,-0.125,0.125,0
12250,0.4375,-0.25,-0.125,0
12270,0.75,-0.4375,-0.25,0
12290,0.625,-0.0625,-0.4375,0
12310,0.25,0.375,-0.5,0
12330,0,0.5625,-0.375,0
12350,0.125,0.625,-0.3125,0
12370,0.4375,0.3125,-0.1875,0
12390,0.4375,0.25,-0.1875,0
12410,0.3125,0.5,0,0
12430,0.1875,0.4375,0,0
12450,0.25,0.1875,0.1875,0
12470,0.375,0.6875,0.0625,0
12490,1.25,0.375,-0.0625,0
12510,0.5625,0.625,-0.1875,0
12530,0.5,0.3125,-0.125,0
12550,0.3125,-0.25,-0.4375,0
12570,0.3125,-0.625,-0.8125,0
12590,0.25,-0.5,-0.75,0
12610,0.25,-0.4375,-0.875,0
12630,0.1875,0,-0.6875,0
12650,0.4375,0.4375,-0.5,0
12670,0.25,0.875,-0.1875,0
12690,0.1875,0.75,0.0625,0
12710,0.5625,0.5,0.375,0
12730,0.4375,0.125,0.5,0
12750,0.1875,-0.5,-0.0625,0
12770,-0.125,-0.5,-0.4375,0
12790,-0.125,-0.25,-0.6875,0
12810,0.0625,0.4375,-0.6875,0
12830,0.0625,0.625,-0.6875,0
12850,-0.0625,0.6875,-0.4375,0
12870,-0.125,0.8125,-0.0625,0
12890,0,0.875,0.25,0
12910,0,0.625,0.5,0
12930,0.0625,0.375,0.4375,0
12950,0,0.4375,0.5625,0
12990,0,-0.1875,0.25,0
13010,0.0625,-0.6875,-0.0625,0
13030,-0.0625,-0.8125,-0.4375,0
13050,-0.5,-0.6875,-0.6875,0
13070,-0.25,-0.375,-0.5,0
13090,-0.4375,-0.25,0.0625,0
13110,0,-0.5625,0.125,0
13130,-0.1875,-0.5,0.25,0
13150,-0.25,-0.5,0.625,0
13170,-0.3125,-0.375,0.6875,0
13190,0,-0.5625,0.625,0
13210,0,-0.25,0.4375,0
13230,-0.125,0,0.125,0
13250,-0.3125,-0.0625,-0.0625,0
13270,-0.4375,-0.25,-0.1875,0
13290,-0.3125,-0.375,-0.5625,0
13310,-1,-0.0625,-1.25,0
13330,-2.1875,1,-2.125,0
13340,-3,1.1875,-3.3125,0
13360,-3.3125,0.625,-4.0625,0
13380,-2.625,0.25,-3.875,0
13400,-1.5,-0.1875,-2.875,0
13420,-0.625,-1.0625,-1.9375,0
13440,-0.375,-0.9375,-0.875,0
13460,0,0.0625,0.375,0
13480,0.375,0.9375,1.375,0
13500,0.5625,0.25,1.375,0
13520,0.375,-0.625,1.125,0
13540,0.25,-0.875,0.6875,0
13560,0.3125,-0.8125,0.1875,0
13580,0,-0.5625,-0.3125,0
13600,0.0625,-0.0625,-0.375,0
13620,0.3125,0.625,-0.125,0
13640,0.1875,0.25,-0.125,0
13660,0.125,-0.1875,0.125,0
13680,0.3125,-0.25,0.3125,0
13700,0.0625,0.0625,0.5,0
13720,0.125,0,0.5625,0
13740,0.125,0.1875,0.3125,0
13760,0.0625,0.4375,0.1875,0
13780,0.0625,0.375,0,0
13800,-0.125,0.125,-0.125,0
13820,0,0,-0.25,0
13840,0,0.1875,-0.3125,0
13860,0,0.4375,-0.125,0
13880,0,0.375,0.0625,0
13900,0.0625,0.375,0.3125,0
13920,0.25,0,0.375,0
13940,0.125,0.1875,0.3125,0
13960,0,0.5,0.25,0
13980,0,0.5,0.3125,0
14000,0,0.3125,0.25,0
14020,0,-0.1875,-0.125,0
14040,0.1875,-0.5,-0.1875,0
14060,0.0625,-0.4375,-0.375,0
14070,-0.1875,0.125,-0.3125,0
14090,-0.25,0.5625,-0.25,0
14110,-0.125,0.8125,-0.0625,0
14130,-0.125,0.375,0.0625,0
14150,-0.0625,-0.0625,-0.0625,0
14170,-0.125,-0.0625,-0.375,0
14190,-0.1875,0.1875,-0.4375,0
14210,-0.5625,0.375,-0.625,0
14230,-1,0.5625,-1,0
14250,-1.5625,0.5625,-1.875,0
14270,-1.5625,0.0625,-2.5625,0
14290,-1.5625,-0.1875,-3,0
14310,-1.375,0,-2.875,0
14330,-0.9375,0,-2.125,0
14350,0.3125,-0.25,-1.125,0
14370,0.8125,0,-0.3125,0
14390,0.5,0.5,0.1875,0
14410,0.125,0.625,0.375,0
14430,0.3125,0.5,0.4375,0
14450,0.3125,0.1875,0.1875,0
14470,0.375,0.0625,-0.25,0
14490,0.125,0,-0.25,0
14510,0.4375,-0.0625,-0.375,0
14530,0.5625,0,-0.125,0
14550,0.4375,0.4375,0.1875,0
14570,0.3125,0.6875,0.4375,0
14590,0.4375,0.625,0.75,0
14610,0.8125,0.5,1,0
14620,1.0625,0.1875,1,0
14640,1.125,0.0625,0.9375,0
14660,0.6875,0.0625,0.6875,0
14680,0.1875,-0.125,0.5,0
14700,0.3125,-0.1875,0.1875,0
14720,0.25,0.3125,0.125,0
14740,0.5,0.25,0.0625,0
14760,0.3125,0.25,-0.25,0
14780,0.1875,0.125,-0.375,0
14800,0.1875,0,-0.375,0
14820,0.1875,0.1875,-0.4375,0
14840,0.125,0.1875,-0.4375,0
14860,0.125,0.375,-0.3125,0
14880,0.1875,0.625,0,0
14900,0.1875,0.25,-0.0625,0
14920,0.5,0.0625,0.1875,0
14940,0.5625,0.4375,0.4375,0
14960,0.4375,0.4375,0.5,0
14970,0.4375,0.5625,0.25,0
14990,0.375,0.625,-0.0625,0
15010,0.4375,0.5625,-0.1875,0
15030,0.1875,0.5,-0.25,0
15050,0.125,0,-0.375,0
15080,0.5,0,-0.125,0
15100,0.4375,0.125,-0.0625,0
15120,0.0625,0.375,0.125,0
15140,0.25,0.25,0.1875,0
15160,0.125,-0.1875,0,0
15180,0.0625,-0.5,-0.3125,0
15200,0,-0.375,-0.625,0
15230,-0.125,0.0625,-0.375,0
15250,-0.0625,-0.0625,-0.1875,0
15270,-0.125,-0.3125,-0.0625,0
15290,0.3125,-0.8125,0,0
15310,0.0625,-0.5625,-0.0625,0
15330,-0.0625,-0.5625,-0.125,0
15350,0.0625,-0.3125,-0.0625,0
15370,0.125,0.0625,0.1875,0
15390,-0.1875,0.0625,0.1875,0
15410,-0.25,-0.1875,0,0
15430,-0.125,-0.1875,0.25,0
15450,-0.125,-0.125,0.3125,0
15470,-0.4375,-0.0625,0.25,0
15490,-0.25,-0.125,0.3125,0
15510,0.0625,0.125,0.25,0
15530,-0.1875,0.125,0.0625,0
15550,-0.4375,-0.0625,-0.125,0
15570,-0.5625,0.1875,-0.3125,0
15590,-0.125,-0.0625,-0.25,0
15610,-0.25,-0.1875,0,0
15630,-0.3125,-0.3125,-0.0625,0
15650,-0.375,-0.3125,-0.0625,0
15670,0,-0.25,0,0
15690,0.0625,0.25,0,0
15710,-0.1875,0.5625,-0.0625,0
15730,0.125,0.3125,0.1875,0
15750,0.25,0.0625,0.3125,0
15770,0.1875,-0.375,0.25,0
15790,0.125,-0.125,0.375,0
15810,0.0625,0.375,0.5,0
15830,-0.0625,0.3125,0.5,0
15850,-0.1875,0,0.1875,0
15870,-0.0625,-0.25,-0.0625,0
15890,0.125,-0.5,-0.3125,0
15920,-0.3125,-0.4375,-0.9375,0
15940,-0.1875,-0.5,-1,0
15960,-0.125,-0.25,-1,0
15980,-0.0625,0,-0.75,0
16000,-0.1875,0.125,-0.25,0
16020,0.1875,0,0.1875,0
16040,0.3125,-0.375,0.3125,0
16060,0.0625,-0.125,0.4375,0
16080,0.0625,0.25,0.6875,0
16090,-0.125,0.25,0.4375,0
16110,0.1875,-0.375,0.25,0
16130,0.0625,-0.3125,-0.0625,0
16150,0.0625,0,-0.25,0
16170,0,0.0625,-0.3125,0
16200,-0.1875,0.4375,-0.375,0
16220,-0.1875,0.625,-0.125,0
16240,0,0.375,0.0625,0
16260,-0.0625,-0.0625,0.3125,0
16280,0.25,-0.5,0.0625,0
16300,0.0625,-0.25,-0.0625,0
16320,0,-0.125,-0.25,0
16340,-0.0625,-0.0625,-0.25,0
16360,-0.125,0.125,-0.25,0
16380,0.125,0.125,-0.0625,0
16400,0.1875,-0.125,0.0625,0
16420,0.125,-0.125,0.0625,0
16440,0.0625,-0.3125,0.0625,0
16460,-0.0625,-0.0625,0.1875,0
16480,0,0.1875,0.125,0
16500,-0.0625,-0.0625,0,0
16520,-0.1875,0,-0.0625,0
16540,0.25,-0.1875,-0.0625,0
16560,0.25,-0.1875,0,0
16580,0.125,0,-0.125,0
16600,-0.0625,0.1875,-0.1875,0
16620,-0.125,0.375,-0.25,0
16640,0,0.5,-0.3125,0
16660,0.1875,0.4375,0,0
16680,0.0625,0.6875,0.0625,0
16700,0.125,0.75,0.1875,0
16710,0,0.25,0.125,0
16730,0,0.1875,0.0625,0
16750,0.3125,0.0625,-0.1875,0
16770,0.1875,-0.125,-0.4375,0
16790,0.0625,-0.25,-0.625,0
16810,0.1875,-0.5,-0.5625,0
16830,0.3125,-0.0625,-0.5,0
16850,0.3125,-0.0625,-0.4375,0
16870,0.3125,0.125,-0.1875,0
16890,0.1875,0.3125,-0.125,0
16910,0,0.375,-0.125,0
16930,0.125,0.5,-0.0625,0
16950,0.125,0.4375,0,0
16970,0.1875,0.4375,-0.25,0
16990,-0.0625,0.4375,-0.4375,0
17010,0.5,0.25,-0.1875,0
17030,0.4375,0.0625,0.0625,0
17050,0.125,0.0625,-0.0625,0
17070,-0.3125,-0.1875,-0.5625,0
17090,0,-0.3125,-0.6875,0
17110,0.375,-0.125,-0.8125,0
17130,0.1875,-0.0625,-0.75,0
17150,0.1875,-0.1875,-0.5625,0
17170,0.375,0,-0.375,0
17190,0.4375,0.25,-0.0625,0
17210,0.3125,0.375,0.125,0
17230,0.375,0.25,0.4375,0
17250,0.4375,-0.3125,0.1875,0
17270,0.3125,-0.25,0.3125,0
17290,0.4375,-0.3125,0.125,0
17310,0.125,-0.125,0,0
17330,0.375,0,-0.1875,0
17350,0.5,0.1875,0,0
17370,0.125,0.125,-0.125,0
17390,0.125,0.125,0.0625,0
17410,0.25,0.1875,0.3125,0
17430,0.5,0,0.125,0
17450,0.375,-0.375,0,0
17470,0.375,-0.3125,0,0
17490,0.125,-0.1875,0,0
17510,-0.25,-0.25,-0.125,0
17530,0.0625,-0.25,0.0625,0
17550,0.0625,0.25,0.1875,0
17570,0.0625,0.5,0.1875,0
17590,-0.0625,0.125,0.3125,0
17610,-0.0625,-0.5,0.375,0
17630,0,-0.6875,0.25,0
17650,-0.125,-0.125,0.1875,0
17670,-0.25,0,0.125,0
17690,-0.25,0,0,0
17710,-0.3125,-0.125,-0.125,0
17730,-0.375,-0.5,-0.375,0
17750,-0.3125,-0.5625,-0.3125,0
17770,-0.3125,-1.0625,-0.375,0
17790,-0.0625,-0.9375,-0.125,0
17810,0.25,-0.875,0.3125,0
17830,1,-1.3125,0.5625,0
17850,1.5,-2.1875,0.25,0
17870,1.6875,-2.5,-0.125,0
17890,1.375,-2.0625,-0.1875,0
17910,1.125,-1.6875,-0.4375,0
17930,0.6875,-1.1875,-0.625,0
17950,0.1875,-0.75,-0.75,0
17970,-0.125,-0.375,-0.6875,0
17990,0.0625,-0.5625,-0.4375,0
18010,-0.125,-0.3125,-0.1875,0
18030,-0.3125,-0.0625,0.0625,0
18050,-0.375,0.5,0.4375,0
18070,-0.0625,0.5625,0.625,0
18090,-0.0625,0.25,0.5625,0
18110,-0.4375,0.5625,0.5625,0
18130,-0.375,1,0.625,0
18150,-0.125,0.875,0.625,0
18170,0,0.3125,0.5625,0
18190,-0.25,0.0625,0.0625,0
18210,-0.375,0.3125,-0.0625,0
18230,-0.4375,0.3125,0,0
18250,-0.5,0.1875,-0.1875,0
18270,-0.3125,-0.25,-0.25,0
18290,-0.0625,-0.1875,-0.125,0
18310,-0.1875,0,-0.125,0
18330,-0.125,0.125,0,0
18350,0.125,-0.125,0.125,0
18370,0.1875,-0.25,0.25,0
18390,0.125,-0.1875,0.1875,0
18410,-0.125,-0.0625,0.125,0
18430,-0.0625,-0.0625,0.0625,0
18450,0.125,0.125,-0.125,0
18470,0.125,-0.125,-0.1875,0
18490,0.125,-0.375,-0.3125,0
18510,-0.0625,-0.3125,-0.375,0
18530,0,-0.25,-0.25,0
18550,-0.0625,-0.0625,-0.3125,0
18570,0,0.1875,-0.4375,0
18590,0.0625,0.375,-0.125,0
18610,0.125,0.375,-0.1875,0
18630,0.0625,0.1875,-0.1875,0
18650,0,0.375,-0.125,0
18660,-0.125,0.625,0,0
18690,0.125,0.1875,0.0625,0
18700,0.125,0,0.125,0
18720,0.3125,0,0.125,0
18740,-0.25,0.25,-0.125,0
18760,0,-0.0625,-0.25,0
18780,0.1875,-0.125,-0.1875,0
18800,0.4375,-0.4375,0.125,0
18820,0.25,0,0.25,0
18840,0.125,0.3125,0.25,0
18860,0,0.375,0.1875,0
18880,0.1875,0.125,0.25,0
18900,0.3125,-0.125,0.0625,0
18920,0.3125,0.0625,-0.1875,0
18940,-0.125,0.25,-0.25,0
18960,-0.3125,0.125,-0.25,0
18980,0.25,-0.25,-0.3125,0
19000,0.375,-0.5,-0.5625,0
19020,0.3125,-0.5,-0.5,0
19040,0.25,0.375,-0.3125,0
19060,0.125,0.3125,-0.125,0
19080,0.0625,0.125,-0.25,0
19100,0.25,0.125,-0.25,0
19120,0.125,0.0625,-0.3125,0
19140,-0.25,0.25,-0.5,0
19160,-0.125,0.6875,-0.5,0
19180,0.4375,0.5,-0.3125,0
19200,0.6875,0.0625,-0.5,0
19220,0.1875,0.375,-0.3125,0
19240,0.1875,0.6875,-0.0625,0
19260,0.25,0.75,0.1875,0
19280,0.375,0.8125,0.125,0
19300,0.375,0.75,0.125,0
19320,0.1875,0.875,-0.0625,0
19340,0.3125,0.6875,0,0
19360,0.375,0.6875,0.0625,0
19380,0.25,0.25,-0.3125,0
19400,0,0.0625,-0.5,0
19420,0.0625,0.25,-0.375,0
19440,0.5,0,-0.3125,0
19460,0.5,0.1875,-0.3125,0
19480,0.0625,0.3125,-0.3125,0
19500,0,0.5,-0.3125,0
19520,0.0625,0.5,-0.0625,0
19540,0.25,0.125,0.0625,0
19560,0.375,0.3125,0,0
19580,0.4375,0.4375,0.0625,0
19600,0.5,0.125,-0.1875,0
19620,0.4375,-0.25,-0.4375,0
19640,0.6875,-0.25,-0.375,0
19660,0.25,-0.1875,-0.4375,0
19680,-0.1875,0.3125,-0.625,0
19700,-0.4375,0.75,-0.8125,0
19720,-0.8125,1.1875,-1,0
19740,-1.4375,2,-1.625,0
19760,-2.875,3.3125,-2.5625,0
19780,-4.125,4.125,-3.625,0
19800,-5.5,5.25,-5.125,0
19820,-7.375,6.75,-7.125,0
19840,-9.6875,8.8125,-8.5625,0
19860,-8.25,9.3125,-13,0
19880,-5.8125,12.4375,-12.8125,0
19900,-4.1875,14.125,-10.8125,0
19920,-4.625,14.6875,-11.3125,0
19940,-4.375,13.375,-11.5,0
19960,-1.75,10.75,-11.375,0
19980,-0.1875,9.375,-8.9375,0
20000,0.25,6.5,-6.875,0
20020,-0.25,3.9375,-6.8125,0
20040,-1.8125,1.5625,-6.125,0
20060,-3.25,-0.125,-5.1875,0
20080,-3,-1.25,-4.0625,0
20100,-2.5625,-1.4375,-1.75,0
20120,-1.25,-1.6875,0.125,0
20140,-0.6875,-1.25,1.4375,0
20160,-0.6875,-0.875,2.75,0
20180,-0.125,-0.75,3.75,0
20200,-0.125,-1.8125,6.5625,0
20220,1.5625,-2.3125,4.625,0
20240,1.75,-3.9375,5.6875,0
20260,1.5,-4.1875,3.5,0
20280,0.25,-4.375,2.75,0
20300,-0.5625,-5.375,1.5,0
20320,0.125,-5.75,0.5,0
20340,-0.25,-6.1875,-0.375,0
20360,0.4375,-6.5625,-0.3125,0
20380,0.125,-6.5625,1.1875,0
20400,1.0625,-6.8125,0.375,0
20420,2.375,-6.375,1.625,0
20440,2.1875,-6.1875,3.75,0
20460,3.5625,-4.8125,3.125,0
20480,3.5625,-5.1875,2.6875,0
20500,3.6875,-4.25,2.75,0
20520,3.5,-3.375,2.9375,0
20540,2.9375,-3.375,1.8125,0
20560,2.0625,-3.4375,1.125,0
20580,0.9375,-4.4375,0.25,0
20600,0.4375,-5.625,-0.75,0
20620,0.375,-5,-0.5625,0
20640,1.0625,-3.875,0.5,0
20660,1,-3.8125,0.625,0
20680,1.5,-3.875,0.5,0
20700,1.9375,-3.5,0.8125,0
20720,0.375,-3.375,3.5625,0
20740,0.8125,-1.5,0.3125,0
20760,-0.0625,-1.4375,-0.1875,0
20780,-0.8125,-2.0625,-0.625,0
20800,-0.5625,-2.375,-1.0625,0
20820,-0.375,-1.3125,-1.5,0
20840,-1,-0.125,-1.6875,0
20860,-1.25,0.875,-1.5,0
20880,-1.5,0.8125,-1.5,0
20900,-1.625,0.3125,-1.4375,0
20920,-1.25,0,-0.875,0
20940,-0.125,-1.4375,-0.5625,0
20960,0.0625,-2.3125,-0.9375,0
20980,-0.5,-2.375,-1,0
21000,-0.625,-1.4375,-0.25,0
21020,-0.0625,-1.0625,0.4375,0
21040,0.0625,-0.75,0.875,0
21060,0.1875,-0.75,0.9375,0
21080,0.375,-0.5625,1.125,0
21100,0.6875,-0.625,1.3125,0
21120,-1.25,-1.1875,4.0625,0
21140,-0.25,-0.375,0.625,0
21160,0.6875,-0.4375,0.4375,0
21180,0.5625,-0.1875,0.0625,0
21200,0.5625,-0.125,-0.3125,0
21220,0.6875,-0.5,-0.3125,0
21240,1.1875,-0.75,-0.1875,0
21260,1,-0.375,0.0625,0
21280,0.5625,0.0625,0.3125,0
21300,0.75,0.5625,0.625,0
21320,1.125,1.1875,1.25,0
21340,1.875,1.8125,1.8125,0
21360,1.5625,1.8125,1.5625,0
21380,1.4375,1.6875,1.1875,0
21400,1.0625,1.5,0.625,0
21420,1.25,1,0.375,0
21440,1.25,1.1875,0.375,0
21460,1.375,1.125,0.3125,0
21480,1.0625,1.125,0.4375,0
21500,0.75,1.25,0.5,0
21520,0.5625,1.375,0.6875,0
21540,0.625,1.0625,0.8125,0
21560,0.5625,0.875,0.625,0
21580,0.5,0.9375,0.4375,0
21600,0.4375,1.0625,0.25,0
21620,0.1875,1.5,0.125,0
21640,0.3125,1.1875,-0.0625,0
21660,0.1875,0.9375,-0.25,0
21680,0.4375,0.125,-0.0625,0
21700,0.5,0.0625,0.125,0
21720,0.5625,0.25,0.25,0
21740,0.875,0,0.4375,0
21760,-0.125,0,1.5,0
21780,-0.0625,0.5625,2.4375,0
21800,0.9375,0.0625,0.4375,0
21820,0.9375,0.6875,0.75,0
21840,0.3125,0.75,0.6875,0
21860,0,1.1875,0.625,0
21880,0.3125,1.4375,0.75,0
21900,0.5625,1.375,0.5625,0
21920,0.25,0.8125,0.3125,0
21940,0.1875,0.0625,0.3125,0
21960,0.4375,0,0.25,0
21980,0.1875,0.125,0.4375,0
22000,0.125,-0.1875,0.5625,0
22020,0.25,-0.125,0.5,0
22040,0.1875,0.1875,0.375,0
22060,-0.0625,0.25,0.1875,0
22080,-0.1875,-0.3125,-0.0625,0
22100,-0.0625,-0.625,-0.1875,0
22120,-0.125,-0.5,-0.4375,0
22140,-0.1875,-0.375,-0.3125,0
22160,-0.5,0.125,-0.1875,0
22170,-0.5,0.3125,0.0625,0
22190,-0.625,0.75,0.375,0
22210,-0.375,0.625,0.625,0
22230,-0.3125,1,0.6875,0
22250,-0.25,1.0625,1,0
22270,-0.1875,0.75,1.125,0
22290,0.4375,0.5,1.125,0
22310,-0.125,0.25,0.875,0
22330,-0.375,-0.0625,0.375,0
22350,-0.4375,-0.375,0.0625,0
22370,-0.1875,-0.5625,-0.125,0
22390,-0.375,-0.4375,-0.3125,0
22410,-0.5,0,-0.25,0
22430,-0.3125,0.3125,0,0
22450,-0.125,0.375,0.125,0
22470,-0.1875,0.1875,0.1875,0
22490,-0.125,-0.125,0.0625,0
22510,-0.25,0.3125,-0.0625,0
22530,-0.375,0.9375,0.0625,0
22550,-0.375,1.375,0.125,0
22570,-0.25,1.375,0.25,0
22590,0,0.8125,0.1875,0
22610,0.25,0.4375,0.0625,0
22630,0.3125,-0.0625,0,0
22650,-0.125,-0.5625,-0.3125,0
22670,-0.5,-0.5625,-0.375,0
22690,-0.25,-0.25,-0.25,0
22710,0,-0.125,-0.3125,0
22730,-0.125,0,-0.3125,0
22750,-0.25,0.375,-0.125,0
22770,-0.1875,0.375,-0.25,0
22790,-0.25,0.25,-0.25,0
22810,-0.3125,0.5,-0.3125,0
22830,-0.125,1.125,-0.0625,0
22850,0.25,1.75,0.0625,0
22870,0.1875,1.75,0.25,0
22890,-0.25,1.375,0.3125,0
22910,-0.0625,0.3125,0.1875,0
22930,0.125,-0.5,0.0625,0
22950,0.125,-1.0625,-0.0625,0
22970,0,-1.0625,-0.25,0
22990,0.3125,-0.875,-0.375,0
23010,0.1875,-0.25,-0.25,0
23030,-0.0625,0.25,-0.125,0
23050,-0.1875,0.375,-0.0625,0
23070,0,0.375,0.125,0
23090,0.125,0,0.0625,0
23110,0.1875,0,0.375,0
23130,0.0625,0.0625,0.3125,0
23150,0.1875,0.5625,0.5625,0
23170,0.0625,0.5625,0.3125,0
23190,0.0625,0,0.1875,0
23210,0.25,-0.4375,0.0625,0
23230,-0.0625,-0.25,-0.1875,0
23250,-0.1875,-0.125,-0.25,0
23270,0,-0.25,-0.25,0
23290,0.0625,-0.25,-0.25,0
23310,-0.125,-0.5,-0.125,0
23330,0.125,-0.4375,-0.0625,0
23350,0.125,-0.4375,-0.125,0
23370,0.1875,0.0625,-0.0625,0
23390,0.0625,0.375,-0.0625,0
23410,-0.125,0.0625,-0.25,0
23430,0.1875,-0.5,-0.1875,0
23450,0.1875,-0.3125,-0.6875,0
23470,0.125,-0.375,-0.875,0
23490,0.125,-0.375,-0.875,0
23510,0.125,-0.3125,-0.875,0
23530,0.1875,-0.4375,-0.75,0
23550,0.25,-0.1875,-0.625,0
23570,0.0625,0,-0.5625,0
23590,0.1875,0,-0.5625,0
23610,0.25,-0.125,-0.5625,0
23630,0.125,0.25,-0.75,0
23650,0.0625,0.1875,-0.5625,0
23670,0.0625,0.5625,-0.5625,0
23690,0,0.375,-0.75,0
23710,-0.0625,0.0625,-0.6875,0
23730,0.125,0,-0.75,0
23750,0.125,-0.3125,-0.9375,0
23770,0.3125,-0.375,-0.875,0
23790,0.375,0,-0.8125,0
23810,0.25,0.25,-0.9375,0
23830,0.1875,0.5,-0.9375,0
23850,0,1,-0.8125,0
23870,0,1.3125,-0.75,0
23890,0.3125,0.875,-0.6875,0
23910,0.5,0.0625,-0.4375,0
23930,0.75,-0.625,-0.3125,0
23950,0.4375,-0.6875,-0.1875,0
23970,0.375,-0.5625,0.0625,0
23990,0.5,-0.25,0.1875,0
24010,0.375,0.375,0.1875,0
24030,0.5,0.6875,0.25,0
24050,0.3125,0.5,0.125,0
24070,0.1875,0.5625,-0.125,0
24090,0.0625,0.4375,-0.375,0
24110,0.25,0,-0.3125,0
24130,0.375,-0.3125,-0.5,0
24150,0.1875,-0.3125,-0.625,0
24160,-0.0625,-0.125,-0.5,0
24180,0.1875,-0.0625,-0.5,0
24200,0.125,0.1875,-0.5625,0
24220,0.375,0.25,-0.5625,0
24240,0.25,0.625,-0.5625,0
24260,0.1875,0.75,-0.3125,0
24280,-0.0625,0.6875,0,0
24300,0.5625,0.5,0.1875,0
24320,0.5,-0.1875,0.1875,0
24340,0.25,-0.625,0.0625,0
24360,0,-0.625,0,0
24380,-0.1875,-0.1875,-0.0625,0
24400,0,-0.125,-0.3125,0
24420,0,-0.375,-0.8125,0
24440,-1,-0.3125,-1.5625,0
24460,-1.3125,0,-2.25,0
24480,-1.875,0.125,-3.0625,0
24500,-2.875,0.6875,-4.4375,0
24520,-5,1.5,-5.5,0
24540,-6,2.0625,-6.5,0
24560,-4.0625,1.375,-7.5,0
24580,-2.4375,0,-9.875,0
24600,-2.1875,-0.6875,-11.4375,0
24620,-2.875,1.4375,-13.5,0
24640,-5.5,4.5,-12.3125,0
24660,-4.8125,7.4375,-7,0
24680,-1.375,7.9375,-2.875,0
24700,0.25,6.25,-0.625,0
24720,-1,5.125,-0.1875,0
24740,-3.1875,4.75,-0.875,0
24760,-4.75,4.25,-1.4375,0
24780,-4.9375,3.4375,-1.3125,0
24800,-3.875,2.4375,0.0625,0
24820,-3.1875,1.1875,1.0625,0
24840,-1.1875,0.375,0.625,0
24860,-2.875,-0.875,-1.25,0
24880,-3.625,-3.1875,-5.625,0
24900,-5.0625,-4.6875,-9.875,0
24920,-6.5625,-6.8125,-12.3125,0
24940,-7.4375,-8.25,-12.3125,0
24960,-9.75,-10.1875,-9.6875,0
24980,-13.5625,-12.625,-4.5625,0
25000,-20.0625,-14.9375,0.3125,0
25020,-24.0625,-20.6875,3.625,0
25040,-25.875,-25.4375,9.5625,0
25060,-26.875,-29.8125,10.25,0
25080,-28,-33.3125,9.0625,0
25100,-31.1875,-34.125,5.8125,0
25120,-34.125,-32.3125,2.375,0
25140,-34.6875,-30.0625,2.0625,0
25160,-38.8125,-29,6.9375,0
25180,-42.3125,-23.5625,10.25,0
25200,-46.375,-11.75,15.125,0
25220,-45.8125,0,17.4375,0
25240,-49.875,5.0625,21.875,0
25260,-58.3125,14.125,26.6875,0
25280,-65.0625,25.75,36.25,0
25300,-48.5625,35.625,46.375,0
25320,-53.5,45.625,24.625,0
25340,-50.125,51.75,8.625,0
25360,-42.5625,61.6875,11.25,0
25380,-39.8125,72.875,4.625,0
25400,-33.5625,83.9375,0.0625,0
25420,-31.875,93.3125,-4.0625,0
25440,-29.1875,99.3125,-7.5,0
25460,-26.6875,101.812,-11.6875,0
25480,-25.75,102.562,-17.875,0
25500,-24.125,100.938,-21.5,0
25520,-22.9375,97.6875,-24.5,0
25540,-20.8125,94.1875,-28.25,0
25580,-15.6875,87.1875,-35.9375,0
25600,-14.9375,85.3125,-36.5625,0
25620,-16.875,82.5625,-32.375,0
25640,-17.6875,80,-29.0625,0
25660,-16.4375,78.5625,-22.75,0
25680,-13,78.1875,-14.8125,0
25700,-10.4375,71.8125,-5.1875,0
25720,-8.5,64.8125,-3.4375,0
25740,-9.9375,57,-0.0625,0
25760,-11.1875,48,3.8125,0
25780,-12.625,39.625,7,0
25800,-15.3125,30.1875,6.9375,0
25820,-16.0625,21.9375,5.125,0
25840,-14.9375,14.4375,3.125,0
25860,-14.4375,7.8125,1.5625,0
25880,-14.0625,2,0,0
25900,-14.3125,-4.4375,-1.5625,0
25920,-14.75,-9.5,-3.75,0
25940,-14.25,-12.5,-5.25,0
25960,-13.5625,-15.5,-5.375,0
25980,-14.5,-16.875,-4.875,0
26000,-13.5,-19.125,-3.1875,0
26020,-12.625,-21,-2.625,0
26040,-11.9375,-23.5,-2.1875,0
26060,-12.8125,-24.8125,0.0625,0
26080,-11.5625,-23.875,3,0
26100,-8.625,-20.625,6.625,0
26120,-5.3125,-18.3125,11.75,0
26140,-1.1875,-15.5,13.875,0
26160,-0.1875,-12.5625,16.125,0
26180,1.1875,-8.625,18.1875,0
26200,1.0625,-5.125,19.5,0
26220,-1.375,-3.9375,19.875,0
26240,-6.1875,-3.6875,20.875,0
26260,-12.1875,-3.625,23.0625,0
26280,-16.4375,-2.875,23.875,0
26300,-17.125,-4.3125,28.125,0
26320,-19.3125,-3.75,31.875,0
26340,-22.5625,-4,36.4375,0
26360,-28.3125,-8.5625,38.25,0
26380,-34,-10.3125,39.5625,0
26400,-34.875,-11.375,45.5625,0
26420,-35.375,-7.625,53.1875,0
26440,-31.875,-3.3125,62.375,0
26460,-31.75,-1.4375,67.8125,0
26480,-37.625,-3.375,75.125,0
26500,-47.9375,-6.8125,79.875,0
26520,-59.1875,-10.625,78,0
26540,-68.3125,-16.8125,76.5625,0
26560,-76.5,-24.3125,74.6875,0
26580,-81.4375,-29.8125,74.9375,0
26600,-87.125,-36.25,74.4375,0
26620,-86.875,-45.5,68.125,0
26640,-91,-47.1875,60.1875,0
26660,-100.312,-47.125,59.375,0
26680,-96.5625,-47.375,57.8125,0
26700,-86.75,-41.5625,58.625,0
26720,-65.375,-34.4375,53.5,0
26740,-41.8125,-33.75,38.9375,0
26760,-20.1875,-37.1875,21.625,0
26780,-3.25,-36.4375,1.25,0
26800,12.5,-27.6875,-20.3125,0
26820,33.3125,-26.3125,-33.8125,0
26840,30.375,-27.125,-36.5625,0
26860,24.5,-24.125,-33.0625,0
26880,22.3125,-13.0625,-23,0
26900,18.9375,5.9375,-12.625,0
26920,24.625,26.1875,-1.625,0
26940,36.5,43.875,20.1875,0
26960,54.75,65.5625,44.875,0
26980,76,93.1875,72.125,0
27000,84.5,126.375,99.25,0
27020,113.5,156.5,122.188,0
27040,135.75,187.625,131.25,0
27060,138.188,210.625,128.625,0
27080,135.312,225,125.125,0
27100,131,238.875,128.625,0
27120,129.938,249.75,127.062,0
27140,129.75,253.875,130.688,0
27160,146.25,252.688,131.438,0
27180,162.875,241,127.562,0
27200,210.25,225.625,120.688,0
27220,230.75,213.062,111.875,0
27240,212.562,200.688,109.562,0
27260,185.562,186.875,111.688,0
27280,173.75,175.562,119.125,0
27300,168.562,165.562,131.625,0
27320,162.938,153.562,142,0
27340,148.5,142.625,138.312,0
27360,119.812,131.375,122.5,0
27380,83.125,115.625,96.8125,0
27400,39.3125,94.75,71.625,0
27420,1,67.5625,49.3125,0
27440,-15.75,43.3125,32.3125,0
27460,-19.125,22.6875,21.5625,0
27480,-8.5625,6.75,14.1875,0
27500,16.75,-3.875,6.3125,0
27520,50.8125,-12.125,-2.8125,0
27540,83.875,-21.25,-13.125,0
27560,107.25,-32.125,-24,0
27580,118.875,-48.625,-30.8125,0
27600,107.688,-50.6875,-39.625,0
27620,98.3125,-59.9375,-43.5625,0
27640,81.375,-64.75,-43.6875,0
27650,60.5625,-66.1875,-43.25,0
27670,43.0625,-66.1875,-41.625,0
27690,30.375,-66.3125,-39.9375,0
27710,27.625,-63.125,-39.625,0
27730,29.75,-58.9375,-39.75,0
27750,38.875,-54.75,-39.1875,0
27770,47.5,-49.75,-35.1875,0
27790,52.375,-43.125,-30.125,0
27810,63,-36.375,-28.75,0
27830,71.5625,-29.875,-26.875,0
27850,83.875,-25.75,-24.1875,0
27870,87.5,-22.0625,-25.3125,0
27890,77.5,-14.875,-23.9375,0
27910,66,-3.1875,-27.4375,0
27930,63.5,12.3125,-36.25,0
27950,73.0625,27.0625,-38.75,0
27980,103.75,45.3125,-24,0
28000,118.438,43.9375,-10.6875,0
28020,121.188,33,-3.0625,0
28040,116.375,23.625,-0.5625,0
28060,95,24.3125,-2.4375,0
28080,63.6875,30.375,-6.5,0
28100,41.8125,35.0625,-11.25,0
28120,41.375,38.0625,-13.5,0
28140,55.375,39.9375,-13.125,0
28160,74.125,41,-11.125,0
28180,85.8125,42.375,-7.4375,0
28200,91.375,42.6875,-2.875,0
28220,89.875,45.125,1.8125,0
28240,75.25,49.5625,5.1875,0
28260,57.75,52.8125,10.125,0
28280,43.75,51.8125,14.5625,0
28300,32.3125,48.6875,18.875,0
28320,22.4375,47.625,22.5,0
28340,15.9375,45.8125,21.6875,0
28360,15.125,40.625,18.875,0
28380,17.9375,33,15.25,0
28400,17.5625,24.8125,11.875,0
28420,15.125,15.8125,5.25,0
28440,16.375,7.0625,-1.3125,0
28460,15.6875,-1.875,-3.9375,0
28480,12.0625,-6.375,-6.25,0
28500,7.5,-4.0625,-7.5,0
28520,3.4375,1.3125,-7.625,0
28540,10.875,5.5625,-7.625,0
28560,27,8.6875,-1.5625,0
28580,33.625,10.4375,2.25,0
28600,40.5625,15.4375,6,0
28620,46.5,19.8125,9.5,0
28640,44.8125,23.3125,11.4375,0
28660,40.9375,27.5,14.5625,0
28680,41.375,29,17.1875,0
28700,42,32.0625,24,0
28720,42.5625,36.3125,29.0625,0
28740,44.8125,38.5625,29.375,0
28760,52.6875,41,28.5625,0
28780,59,43.6875,30.25,0
28800,60.125,45.125,32.625,0
28820,59.375,45,35.125,0
28840,59.375,42.6875,38.5625,0
28860,58.9375,41.0625,40.625,0
28880,56.3125,39.25,42.5625,0
28900,52.875,37,42.875,0
28920,50.8125,36.625,45.0625,0
28940,50.375,36.1875,46.625,0
28960,43.375,35,45.125,0
28980,39.75,31.875,44.5625,0
29000,40.8125,26.625,44.875,0
29020,41.125,22.3125,43.0625,0
29040,37.25,19,40.625,0
29060,34.1875,17.4375,43.625,0
29080,24.75,14.375,52.0625,0
29100,11.0625,7.875,61.375,0
29120,-0.5625,2.9375,66.875,0
29140,-9.1875,0.5,65.6875,0
29160,-23.6875,-3,61.25,0
29180,-37.3125,-10.125,60.3125,0
29200,-48.375,-16.625,62.5625,0
29220,-58.4375,-20.125,65.6875,0
29240,-65.125,-25.8125,62.0625,0
29260,-80.5,-34.25,53.5625,0
29280,-82.9375,-40.5625,47.625,0
29300,-64.0625,-42.75,41.3125,0
29320,-59.875,-47.875,32,0
29340,-47.6875,-46.5,22.4375,0
29360,-18.875,-48.125,20.875,0
29380,-12.9375,-42,13.875,0
29400,-6.75,-44.9375,2.6875,0
29420,-10.1875,-43.9375,-0.125,0
29440,-21.75,-47.1875,-1.5625,0
29460,-23,-52.8125,-1.1875,0
29480,-24.0625,-59.25,-2.9375,0
29500,-23.25,-59.0625,-10.125,0
29520,-11.125,-35.6875,-17.5,0
29540,-6.9375,1.4375,-24.625,0
29560,-26.1875,21.0625,-21.0625,0
29580,-34.8125,6.1875,-14.1875,0
29600,-28.875,-21.625,-9.1875,0
29620,-38.375,-46.375,-5.6875,0
29630,-56.625,-50.9375,-16.8125,0
29650,-65.9375,-54.25,-17,0
29670,-68.5625,-53.3125,-16.9375,0
29690,-45.0625,-58.6875,-39.9375,0
29710,-39.875,-59.1875,-68.6875,0
29730,-38.3125,-49.1875,-85.0625,0
29750,-26.8125,-54.75,-86.0625,0
29770,-32.9375,-51.0625,-95.5625,0
29790,-36.75,-33.875,-104.312,0
29810,-46.4375,-11,-108.188,0
29830,-48.25,17.5,-117.125,0
29850,-46.4375,46.3125,-123.188,0
29870,-62.625,66.4375,-109.562,0
29890,-49.6875,78.625,-75.75,0
29910,-2,90.875,-76.9375,0
29930,51.5625,96.1875,-89.0625,0
29950,96.125,109.125,-114.188,0
29970,113.562,112.188,-124.188,0
29990,115.688,110.5,-122.438,0
30010,121.625,109,-112.75,0
30030,122.312,102.75,-100.562,0
30050,137.25,94,-94,0
30070,149.062,35.0625,-73.125,0
30100,87.5,18.375,-54.625,0
30120,67.625,11.25,-45.875,0
30140,56.3125,3.6875,-41.25,0
30160,44.0625,-4.6875,-34.0625,0
30180,36.25,-11.25,-26.875,0
30200,27.0625,-18.375,-24.25,0
30220,19.3125,-26.4375,-26.0625,0
30240,11.25,-29.25,-29.9375,0
30260,4.4375,-30.8125,-31.375,0
30280,-0.75,-29.625,-27.75,0
30300,-1.6875,-28.375,-27.125,0
30320,4.25,-26.0625,-27.3125,0
30340,11.9375,-24.8125,-26.6875,0
30360,24.625,-22.125,-25.5,0
30380,30.9375,-19.75,-24.9375,0
30400,28.0625,-23.5,-22.875,0
30420,19.75,-19.5,-27,0
30440,4.5,-18.625,-28.125,0
30460,-10.9375,-18.8125,-31.1875,0
30480,-16.75,-19.4375,-32.625,0
30500,-20.4375,-21.75,-35.6875,0
30520,-18.6875,-23.5625,-38.3125,0
30540,-13.3125,-23.0625,-42.9375,0
30560,-5.5625,-23.3125,-49.9375,0
30580,-1.5,-22.625,-52,0
30600,1.5,-29.5625,-54.5625,0
30620,4,-30.75,-57,0
30640,3,-31.8125,-56.6875,0
30660,8,-38.1875,-54.625,0
30680,5.5,-40.5,-52.3125,0
30700,8.1875,-43.1875,-49.6875,0
30720,3.5,-46.0625,-46.25,0
30740,-5.5,-51.625,-42.25,0
30760,-7.5625,-52.8125,-41.4375,0
30780,-17.8125,-54.0625,-41.125,0
30800,-22.1875,-57.125,-41.5,0
30820,-27.625,-54.4375,-42,0
30840,-28.1875,-57,-44.5625,0
30860,-21.5625,-54.5,-48.5625,0
30880,-20.3125,-56.25,-52.0625,0
30900,-9.9375,-58.0625,-56.75,0
30920,-4.0625,-60.0625,-58.6875,0
30940,2.4375,-65.3125,-62.375,0
30960,10.4375,-66.25,-64.375,0
30980,6.5625,-71.125,-63.375,0
31000,10.0625,-68.0625,-66.25,0
31020,7.375,-71.3125,-60.0625,0
31040,-0.25,-71.0625,-53.3125,0
31060,-12.625,-68.875,-45.5,0
31080,-27.125,-63.8125,-41,0
31100,-42.6875,-57.0625,-42.3125,0
31120,-52.0625,-49.0625,-45.625,0
31140,-56.6875,-41.125,-48.75,0
31160,-51.625,-34.375,-47.8125,0
31180,-42,-31.125,-46.125,0
31200,-35.8125,-29.0625,-49.125,0
31220,-31.6875,-28.875,-51.6875,0
31240,-27.125,-26.5625,-55.8125,0
31260,-23.6875,-22.5625,-61.0625,0
31280,-13.25,-18.5625,-61.3125,0
31300,0.5,-15.3125,-62,0
31320,6.4375,-11.4375,-62.375,0
31340,16.8125,-11.75,-63.25,0
31360,30.1875,-16.625,-62.6875,0
31380,33.875,-21.125,-65.3125,0
31400,27.75,-25.0625,-64.5625,0
31420,21,-31.75,-63.875,0
31440,17.125,-37.5625,-65.6875,0
31460,18.5625,-43,-64.875,0
31480,21.6875,-48.0625,-63.25,0
31500,23.1875,-53.4375,-59.625,0
31520,21.1875,-56.5,-59.1875,0
31540,21.5625,-57.6875,-56.375,0
31560,18.0625,-56.875,-57.6875,0
31580,18.75,-57.625,-57.9375,0
31600,26.4375,-59.1875,-56.25,0
31620,32.625,-59.625,-54.875,0
31640,31.625,-59.4375,-51.375,0
31660,31.3125,-58.5625,-45.75,0
31680,30.875,-56.9375,-39.125,0
31700,29.8125,-56.6875,-36,0
31720,25.5,-56.125,-30.625,0
31740,17.75,-55.25,-25.875,0
31760,10.375,-54.1875,-23.625,0
31780,11.5625,-54.625,-19.625,0
31800,10.4375,-53.1875,-18.3125,0
31820,7.8125,-55.375,-16.625,0
31840,5.125,-60.1875,-19.4375,0
31860,0.8125,-58.5625,-19.8125,0
31880,0.0625,-54.625,-17.0625,0
31900,4.1875,-51.125,-9.4375,0
31920,3.5625,-47.9375,-11.4375,0
31940,-0.625,-47.9375,-9.5,0
31960,-7.1875,-48.9375,-13.5,0
31980,-9.875,-50.4375,-16.5625,0
32000,-12.375,-52.375,-17.6875,0
32020,-12.5625,-54.4375,-17.5625,0
32040,-10.125,-55.75,-15.5625,0
32060,-9.125,-55.25,-14.6875,0
32080,-6.625,-52.9375,-12.5,0
32100,1.25,-44.125,-3.375,0
32120,11.3125,-34.75,2.3125,0
32140,18.0625,-19.1875,8.6875,0
32160,19.8125,-3.9375,3.375,0
32180,10.6875,10.5625,-1.375,0
32200,0.5625,21.375,-3.9375,0
32220,3.875,20.1875,-4.625,0
32240,1.75,16.125,-6.5625,0
32260,1.3125,7.0625,-7.875,0
32280,-0.1875,-2.5625,-8.5,0
32300,0.6875,-12.0625,-6.8125,0
32320,-1.375,-22.6875,-5.8125,0
32340,2.625,-30.75,-0.625,0
32360,7.5,-32.1875,4.8125,0
32380,9.3125,-29.25,9.75,0
32400,8.625,-22.1875,10.4375,0
32420,7.9375,-12.1875,10.5,0
32440,9.125,1,12.75,0
32460,7.8125,12.25,13.625,0
32480,6.4375,14.25,10.8125,0
32500,5.5625,10.5,6.8125,0
32520,5.3125,4.4375,6.1875,0
32540,4.875,0.5625,7,0
32560,6.0625,-2.125,8.4375,0
32580,7.25,-3.5,9.8125,0
32600,10.875,-2.75,11.375,0
32620,10.875,1.75,9,0
32640,9.375,5.5,5.8125,0
32660,3.25,5.5,1.9375,0
32680,1.625,5.75,2.4375,0
32700,1.5,8.375,1.5,0
32720,0.5,9.125,-1.375,0
32740,0.5,6.25,-4.5,0
32760,-1.1875,4.625,-7.5,0
32780,-2.5625,4.375,-10.0625,0
32800,-0.0625,5.9375,-10.9375,0
32820,2.1875,10.9375,-8.9375,0
32840,4.75,12.8125,-7.6875,0
32860,1.4375,13.3125,-6.0625,0
32880,-2.375,12.9375,-4.5625,0
32900,-6.5,12.9375,-5.375,0
32920,-12.5,16.625,-4.5,0
32930,-14.125,13.375,-1.375,0
32950,-6.5,4.4375,6.75,0
32970,1.5625,-5.5,11.75,0
32990,6.25,-13.25,14.9375,0
33010,3.5625,-14.75,13.8125,0
33030,-3,-11.25,10.75,0
33050,-6,-8.125,11.0625,0
33070,-9,-11.625,16.9375,0
33090,-2.25,-9.8125,13,0
33110,0.5625,-9.5,10.5,0
33130,3.75,-13.0625,8.8125,0
33150,7.25,-12.25,6.125,0
33170,4.3125,-7.375,6.625,0
33190,-1.5,-6.0625,8.8125,0
33210,1.9375,-4.4375,5.9375,0
33230,2.875,-6.4375,11.4375,0
33250,8.6875,-7.1875,13,0
33270,11.5625,-10.3125,14.5625,0
33290,13.125,-12.1875,14.375,0
33310,12.6875,-12.75,11.875,0
33330,9.4375,-11.75,9.125,0
33350,6.375,-10.8125,6.5625,0
33370,7.125,-10.625,4.8125,0
33390,7.0625,-12.9375,5.75,0
33410,7.125,-11.9375,6.4375,0
33430,7.5625,-8.9375,5.6875,0
33450,6.125,-6.9375,3.9375,0
33470,5,-8.1875,1.75,0
33490,5.9375,-10.4375,0.0625,0
33510,6.125,-11.8125,0,0
33530,6,-10.125,0.375,0
33550,7.4375,-6.875,0.9375,0
33570,7.5625,-4,3.1875,0
33590,7.25,-0.625,4.6875,0
33610,7.75,2.6875,5.75,0
33630,6.8125,4.5,7.375,0
33650,6.25,3.625,8.1875,0
33670,6.3125,2.1875,8.5625,0
33690,6.375,2.1875,6.6875,0
33710,6.25,2.5625,3.25,0
33730,5.4375,1.3125,1.5625,0
33750,3.5625,1.1875,1.0625,0
33770,2.125,1.6875,1.3125,0
33790,2.9375,1.5625,0.75,0
33810,2.8125,1.25,-1.875,0
33830,2.9375,0.8125,-3.6875,0
33850,3.4375,1.6875,-3.25,0
33870,4.375,2.25,-3.5,0
33890,2.75,2.375,-4.4375,0
33910,1.0625,0,-2.375,0
33930,3,-3.8125,-0.375,0
33950,2.3125,-6.4375,-0.3125,0
33970,2.875,-11.5625,0.9375,0
33990,4.5,-15.0625,1.6875,0
34010,4.0625,-13.0625,0.375,0
34030,0.6875,-12.75,-1.9375,0
34050,-1.8125,-12.375,-2.6875,0
34070,2.25,-12.9375,-1.6875,0
34090,4,-15.8125,-3.6875,0
34110,3.9375,-16.6875,-2.875,0
34130,2.4375,-14.0625,0.0625,0
34150,3.4375,-9.75,1.625,0
34170,3.0625,-4.875,2,0
34190,4.0625,-2.5625,3.75,0
34210,5.875,-2.3125,5.8125,0
34230,6.375,-2.5625,6.375,0
34250,5.1875,-3,6.6875,0
34270,3.8125,-4.3125,6.375,0
34290,2.5,-7,5.25,0
34310,5.6875,-12.5,5.5,0
34330,7.8125,-11.375,5,0
34350,4.8125,-5.6875,4.25,0
34370,0.375,1.4375,3.6875,0
34390,-0.9375,7.1875,4.0625,0
34410,-1.3125,11.125,5.75,0
34430,1.3125,7.1875,5.625,0
34450,2.5625,0.875,4.25,0
34470,2.5625,-3.5625,3.1875,0
34490,2.0625,-3.875,2.5,0
34510,1.5625,-1.5,2.3125,0
34530,0.5625,0.125,0.125,0
34550,0.25,-1.4375,-1.125,0
34570,0.5,-2.875,-1.9375,0
34590,0.25,-0.1875,-3.5625,0
34610,-0.375,1.5,-5.3125,0
34630,-0.625,0.3125,-6.1875,0
34650,-0.1875,-1.6875,-7.0625,0
34670,-1.25,-0.3125,-8.125,0
34690,-1.125,-0.625,-7.5,0
34710,-0.8125,-1.0625,-5.875,0
34730,-2.5625,-1.0625,-4.25,0
34750,-3.25,-0.875,-1.875,0
34770,-3.1875,0.625,-2.125,0
34790,-3.6875,1.3125,-3.4375,0
34810,-5,1.0625,-4.0625,0
34830,-4.6875,0.5625,-2.8125,0
34850,-2.5625,-0.1875,-0.6875,0
34870,-0.6875,-1.25,0.1875,0
34890,-0.25,-1.875,0.1875,0
34910,0.4375,-1.625,-0.75,0
34930,0.25,0.625,-1.75,0
34940,-0.3125,1.6875,-0.5625,0
34960,-0.3125,1.75,-0.125,0
34980,1.0625,0.125,0.125,0
35000,2.9375,-1.1875,0.3125,0
35020,3.25,-0.75,1.4375,0
35040,2.375,0,2.4375,0
35060,0.4375,0.0625,0.3125,0
35080,-2.5,1.6875,-3.0625,0
35100,-3.4375,5.4375,-2.9375,0
35120,-3.5625,8,-1.25,0
35140,-3.75,7.4375,-0.1875,0
35160,-5.5,5.0625,-1.25,0
35180,-4.875,3.25,-1.5625,0
35200,-3.25,0.625,-2.25,0
35220,-2.875,-1.375,-3.875,0
35240,-3.6875,-0.625,-2.9375,0
35260,-2.625,0,-1.75,0
35280,-1.375,0.0625,-3,0
35300,-1.5625,-1.125,-3.0625,0
35320,-1.125,-0.8125,-1.125,0
35340,-0.3125,1.25,-0.0625,0
35360,-0.25,2.5625,-0.0625,0
35380,-1.0625,3.0625,-0.3125,0
35400,-1.375,2.625,0.1875,0
35420,0.0625,1.6875,1.25,0
35440,1.5625,1.5625,2.1875,0
35460,1.1875,2,3.0625,0
35480,2.8125,-0.1875,3.9375,0
35500,4.125,-0.5,2.9375,0
35520,3.6875,-0.25,2.25,0
35540,3.4375,-0.375,0.75,0
35560,2.0625,0.875,-0.6875,0
35580,1.6875,1.8125,-1.4375,0
35600,2.75,2.5625,-2,0
35620,2.3125,3.6875,-2.1875,0
35640,1.5,3.5625,-1.75,0
35660,2.3125,2.3125,-2.0625,0
35680,3,0.9375,-1.5,0
35700,3.5,-0.5625,-2.625,0
35720,2.3125,-1.8125,-3,0
35740,1.3125,-2.1875,-3.1875,0
35760,0.8125,-1.875,-4.6875,0
35780,-0.375,-0.625,-7.375,0
35800,-1.5,0.3125,-8.3125,0
35820,-3.4375,2.5625,-8.375,0
35840,-5.4375,4.875,-9.4375,0
35860,-7.0625,6,-9.5625,0
35880,-7.75,7.25,-9.375,0
35900,-7.75,7.6875,-9.3125,0
35920,-6.625,10.75,-8.8125,0
35940,-7.625,21.125,-6,0
35960,-10.8125,32.1875,-1.5,0
35980,-10.6875,40.4375,-0.1875,0
36000,-5.875,45.25,3.8125,0
36020,5.5,50.8125,14.125,0
36040,17.875,55.6875,22,0
36060,25.625,59.125,25.625,0
36080,28.25,59.875,27.5,0
36100,23.25,64.125,28.5625,0
36120,14.8125,65,26.0625,0
36140,4.9375,58.5,26.625,0
36160,-0.6875,48.5,27.9375,0
36180,-5.125,40.125,28.6875,0
36200,-6.9375,35.3125,29.9375,0
36220,-4.75,31.8125,31.0625,0
36240,-1.5,29.6875,36.125,0
36260,4.3125,22.0625,35.5625,0
36280,4.375,17,35.9375,0
36300,2.5,13.25,34.9375,0
36320,-0.5625,12.5,36.6875,0
36340,-4.4375,14.25,32.875,0
36360,-6.375,14.3125,27.5625,0
36380,-6.4375,14,28.0625,0
36400,-3.6875,11.375,26.3125,0
36420,1.25,10.75,21.6875,0
36440,1.625,11.1875,18.25,0
36460,2.5,6.6875,16.875,0
36480,7.6875,1.6875,15.9375,0
36500,7.75,1.5625,15.375,0
36520,7.9375,5.5,12.625,0
36540,4.75,10.0625,9.375,0
36560,1.3125,7.8125,10.875,0
36580,5.0625,5,13.25,0
36600,9.8125,2.0625,11.875,0
36620,9.4375,0.875,8.4375,0
36640,11.0625,1.0625,6.4375,0
36660,12.75,-0.1875,3.875,0
36680,5.3125,-2.75,8.625,0
36700,3.75,-3,11.4375,0
36720,1.1875,-3.0625,7.1875,0
36740,-2.1875,-4.375,2.4375,0
36760,0.3125,-6.5625,0.625,0
36780,-0.25,-8,1.4375,0
36800,1.8125,-8.4375,4.75,0
36820,-1.5,-6.6875,3.4375,0
36840,-5.8125,-4.75,1.25,0
36860,-5.0625,-3.875,0.25,0
36880,-2.125,-3.875,0.9375,0
36900,1.6875,-3.625,2.375,0
36920,-1.375,-2.6875,4.25,0
36940,-2.5,-1.3125,5.5625,0
36960,-3.875,0.625,6.625,0
36980,-2.6875,0.5,6.5,0
37000,-0.5,0.1875,6.25,0
37020,1.6875,1.8125,5.625,0
37040,0.4375,3.5,4.625,0
37060,-1,3.8125,2.875,0
37080,-2.25,2.8125,2.8125,0
37100,-0.3125,5.3125,1.625,0
37120,2.5625,3.375,-0.125,0
37140,6.375,0.0625,-0.375,0
37160,6.5,-1.125,0,0
37180,1.3125,1.125,-0.9375,0
37200,-0.1875,1.0625,-0.9375,0
37220,0.9375,-1.5,0.5625,0
37240,2.25,-2.1875,1,0
37260,3.25,-2.5625,1.0625,0
37280,2.0625,-3.3125,1.5625,0
37300,3.8125,-4.5625,1.9375,0
37320,4.3125,-2.4375,2.25,0
37340,0.6875,-1.875,2.5,0
37360,1.4375,-3.125,4.125,0
37380,2.5,-3.8125,5.3125,0
37400,2.4375,-4.25,5.3125,0
37420,3.1875,-2.8125,4.25,0
37440,0.3125,-1.3125,2.125,0
37460,0.6875,-3.25,3.75,0
37480,0.5625,-5.1875,8.1875,0
37500,1.0625,-3.3125,5.625,0
37520,-0.8125,-1.25,0.9375,0
37540,-3.0625,-0.9375,-0.875,0
37560,-2.9375,-3,-0.125,0
37580,-0.3125,-4.3125,0.625,0
37600,-0.25,-3.0625,0.9375,0
37620,-0.5,-1.4375,-0.3125,0
37640,-2.625,-1.125,-3.3125,0
37660,-1.125,-1.75,-2.4375,0
37680,1.9375,-0.4375,-0.25,0
37700,3.125,1.0625,1.9375,0
37720,3.1875,2.8125,2.6875,0
37740,2.4375,3.25,2.4375,0
37760,3.3125,3.9375,3.25,0
37780,3.4375,4.8125,5.25,0
37800,4.125,4.875,6.5,0
37820,5.1875,3.5,5.4375,0
37840,4.5,4.25,4.9375,0
37860,4.125,6.25,5.0625,0
37880,0.9375,5.0625,4.1875,0
37900,1.6875,4.625,2.875,0
37920,1.75,2.8125,1.1875,0
37940,2.125,0.6875,0.875,0
37960,4.9375,-0.875,0.875,0
37980,6.75,0.1875,-0.375,0
38000,5.375,1.5,-1.8125,0
38020,4.625,0.9375,-2.5625,0
38040,3.375,0.875,-3.75,0
38060,3.9375,0.25,-3.5625,0
38080,5.875,0.5625,-3.5625,0
38100,8.25,0,-4.9375,0
38120,9.1875,0.5625,-4.875,0
38140,11.875,3.9375,-4.25,0
38160,9.9375,6.9375,-4.3125,0
38180,9.1875,6.5625,-2.875,0
38200,9.125,7.5,-0.5,0
38220,11.625,8.4375,-1.5625,0
38240,10.75,8.8125,-0.75,0
38260,8.25,9.6875,-0.25,0
38280,7.6875,9.9375,4.125,0
38300,5.4375,10.75,8.875,0
38320,3.875,11.625,13.5,0
38340,2.3125,11.8125,15.625,0
38360,0.375,12.875,14.5,0
38380,0.8125,13.75,13.875,0
38390,-0.25,14.25,12.75,0
38410,-0.9375,13.8125,12.375,0
38430,0.8125,10.8125,13.375,0
38450,0.5625,8.75,14.5,0
38470,2.3125,5.625,11.625,0
38490,1.5625,2.9375,7.0625,0
38510,2.5,1.5625,5,0
38530,0.8125,0.4375,5.1875,0
38550,-1.125,-0.4375,8,0
38570,-1.0625,-0.5625,10.625,0
38590,-1,-0.8125,11,0
38610,0.125,1.375,9,0
38630,0.8125,1.9375,8.5625,0
38650,-0.875,0.9375,10.5625,0
38670,-4.1875,1.6875,12.125,0
38690,-2.6875,2.4375,14.3125,0
38710,-2.5625,2.8125,14.25,0
38730,-0.25,4.0625,13.625,0
38750,3.8125,3.8125,12.4375,0
38770,4,4.375,12.4375,0
38790,4.375,5.9375,12.25,0
38810,2.75,7.875,11.125,0
38830,0.375,8.5,12.375,0
38850,2.9375,10.8125,13.5625,0
38870,3.875,11.8125,14,0
38890,1.4375,12.6875,12.6875,0
38910,3,14,10.4375,0
38930,1.3125,13.875,8.5,0
38950,3.0625,13.875,8.75,0
38970,2.75,13.5,9.3125,0
38990,3.125,13.3125,9.8125,0
39010,2.5,13.8125,8.625,0
39030,0.8125,13.875,7.8125,0
39050,-3.8125,14.125,7.625,0
39070,-2.6875,13.375,9.9375,0
39090,0.375,15.1875,8.75,0
39110,-0.4375,15,9.125,0
39130,-0.4375,13.875,10.125,0
39150,1.875,13.0625,8,0
39170,1.9375,12.8125,4.625,0
39190,2.25,12.25,2.9375,0
39210,3.25,11.4375,4.4375,0
39230,3.9375,11.75,7.25,0
39250,6.4375,10.375,10.25,0
39270,6.75,9.0625,9.6875,0
39290,5.8125,7.8125,5.5,0
39310,4.6875,5.25,1.5,0
39330,7,3.4375,2.0625,0
39350,10.1875,1.75,4.375,0
39370,12.375,0.6875,4.5625,0
39390,9.9375,0.0625,3.6875,0
39410,5,-0.625,4,0
39430,4.375,-1.5625,5.75,0
39450,5.8125,-2.5,6.9375,0
39470,4.8125,-2,6.625,0
39490,3.375,-1.75,5.625,0
39510,3.125,-2.6875,6,0
39530,3.375,-2.125,6.6875,0
39550,2,-1.1875,6.875,0
39570,0.75,-0.6875,5.3125,0
39590,-2.1875,0,4.1875,0
39610,-4.6875,0.625,3.6875,0
39630,-5.9375,1.3125,1.9375,0
39650,-6.5625,2.1875,0.0625,0
39670,-7.25,3.5625,-1.4375,0
39690,-9.125,6,-3,0
39710,-12.4375,6.5625,-3.6875,0
39730,-14.4375,5.75,-3.3125,0
39750,-12.9375,5.9375,-3.75,0
39770,-11.4375,5.75,-5.1875,0
39790,-11.4375,5.8125,-8.125,0
39810,-12.1875,4.75,-8.9375,0
39830,-12.875,4,-9.625,0
39850,-12.75,3.875,-10.625,0
39870,-12.1875,3.8125,-11.875,0
39890,-11.25,3.9375,-13,0
39910,-10,4.6875,-13,0
39930,-6.125,5.3125,-11.8125,0
39950,-1.1875,5.375,-11.0625,0
39970,7.375,5.0625,-11.5625,0
39990,12.1875,4.5,-12.5,0
40010,12.5,3.4375,-12.375,0
40030,12.25,-0.0625,-10.375,0
40050,13.0625,-4.1875,-6.375,0
40070,13.5625,-6.9375,-0.3125,0
40090,15.1875,-11.5625,3.5,0
40110,14.5625,-16.9375,5.9375,0
40130,15.375,-19.75,5.375,0
40150,10.4375,-22.1875,6.5625,0
40170,9.5,-23.5,7.5,0
40190,5.5,-24.8125,9.375,0
40210,6.125,-24.125,11.9375,0
40230,9.5,-22,9.8125,0
40250,7.25,-20.3125,5.9375,0
40270,4.4375,-18.5,2.5,0
40280,1.125,-14.875,1.875,0
40310,0.9375,-11.8125,4.75,0
40330,1,-7.4375,5.5,0
40350,-1.75,-4.1875,2.9375,0
40370,-4.625,-3.3125,1.5625,0
40390,-9,-3.875,2.6875,0
40410,-9.6875,-5.25,6.3125,0
40420,-4.5,-6,9.25,0
40440,-3.3125,-4.1875,8.4375,0
40460,-4.4375,-1.25,6.875,0
40480,-6.75,0.0625,8.1875,0
40500,-6.75,1.0625,10.875,0
40520,-3.6875,2.125,12.5,0
40540,-2.1875,5.0625,10.0625,0
40560,-1.25,7.375,7.75,0
40580,-5,9.1875,7.75,0
40600,-7.1875,9.6875,10.625,0
40620,-7.8125,10.6875,14,0
40640,-8.75,12.375,14.4375,0
40660,-10.625,15.875,12.875,0
40680,-16,19.8125,11.375,0
40700,-15.25,22.25,9.5,0
40720,-13.625,24.875,5.625,0
40740,-13.8125,26.9375,0.375,0
40760,-13.625,27.375,-4.0625,0
40780,-7.6875,25.375,-7.1875,0
40800,-4.3125,23.8125,-9.9375,0
40820,-1.875,21.5625,-12.1875,0
40840,-1.25,17.4375,-13.375,0
40860,-0.0625,13.875,-12.1875,0
40880,1.625,12.875,-9.125,0
40900,5.625,12.5,-7.3125,0
40920,5.5,11.125,-8.875,0
40940,2.25,9.4375,-10.375,0
40960,1,9.25,-9.4375,0
40980,3.625,8.8125,-5.9375,0
41000,8.1875,6.375,-1.9375,0
41020,14.1875,3.9375,-0.3125,0
41040,17.9375,2.875,-2.4375,0
41060,17.75,2.4375,-5.0625,0
41080,15.625,2.3125,-6.25,0
41100,13.9375,1.9375,-6.8125,0
41120,13.625,-0.3125,-6.875,0
41140,12.1875,-4.125,-5.5625,0
41160,11.9375,-8.3125,-3.25,0
41190,16.8125,-14.4375,0.5,0
41210,17,-14.25,2.375,0
41230,16.0625,-12.6875,2.6875,0
41250,15.5,-11.5,1.5,0
41270,15.75,-11.3125,2.1875,0
41290,16.9375,-12.9375,3,0
41310,18.5,-14.375,5.125,0
41330,21.375,-13.6875,4.0625,0
41350,26.3125,-14.125,3.125,0
41370,28.3125,-12.125,1,0
41390,23.5625,-9.25,1.625,0
41410,21.6875,-10.1875,3.0625,0
41430,20.4375,-10.1875,5.375,0
41450,18.4375,-9.625,4.25,0
41470,16.875,-7.875,3,0
41490,15.4375,-5.5,2.3125,0
41510,14,-5.8125,2.5,0
41530,13.5625,-6.4375,3,0
41550,11.875,-6.75,2.3125,0
41570,12.5625,-5.0625,2.25,0
41590,9.9375,-3.5625,2.125,0
41610,8.9375,-2.8125,3.0625,0
41630,6.625,-3.0625,4,0
41650,6.5625,-4,5.4375,0
41670,7.5,-2.5625,5.875,0
41690,9.4375,0.875,5.125,0
41710,6.875,2.4375,4.875,0
41730,2.375,2.625,5.8125,0
41750,0.3125,4.375,6.5,0
41770,2.375,4.4375,5.4375,0
41790,6.75,4,3.1875,0
41810,8.9375,3.875,1.625,0
41830,8.0625,4.6875,0.9375,0
41850,4.9375,5.0625,0.0625,0
41870,3.25,4.9375,-0.25,0
41890,2.5625,4.5,0.0625,0
41910,1.3125,3.875,0.8125,0
41930,-0.875,1.9375,2.1875,0
41950,-1.6875,-0.4375,2.9375,0
41970,-0.75,-2.75,3,0
41990,0.375,-3.4375,2.25,0
42010,0.625,-4,1.6875,0
42030,1.3125,-3,1.1875,0
42050,-0.25,-1.75,0.6875,0
42070,-0.625,-2.0625,0.125,0
42090,-0.625,-2.875,-0.0625,0
42110,-0.25,-3.25,0.1875,0
42130,0.8125,-3.25,0,0
42150,0.875,-4.375,-0.375,0
42170,2.0625,-5.0625,-1.1875,0
42190,2.375,-5,-0.6875,0
42210,3.0625,-5.375,-0.5625,0
42230,1.4375,-7.25,0.5625,0
42250,0.625,-10.125,0.875,0
42270,2.0625,-16.5,0.1875,0
42290,-0.875,-19.5,-1.25,0
42310,5.6875,-18.8125,-4.5,0
42330,9.625,-14.875,-13.0625,0
42350,7.875,-5.375,-19.3125,0
42370,8.25,3.5,-18.3125,0
42390,1.75,4.625,-17.9375,0
42410,-2.5,3.5625,-19.4375,0
42430,0.6875,2.9375,-24.125,0
42450,9.1875,1.25,-26.875,0
42470,10.625,1.9375,-28.0625,0
42490,10.5,3.1875,-29,0
42510,7.75,2.3125,-30.1875,0
42530,4.9375,-0.875,-30.1875,0
42550,-0.5625,-1.25,-29.125,0
42570,-0.875,-0.3125,-25.75,0
42590,-0.9375,1.4375,-22.625,0
42610,-2.375,0.375,-19.1875,0
42630,-1.5625,0.3125,-16.5625,0
42650,0.8125,1.3125,-13,0
42670,1.625,1.75,-7.9375,0
42690,0.375,1.25,-2.5,0
42710,0.375,2.5,0.5625,0
42730,3.5,3.5,2.125,0
42750,5.75,7.375,2.5625,0
42770,6.0625,8.125,3.3125,0
42790,2.75,7.0625,5.0625,0
42810,0.3125,6.125,5.625,0
42830,2,5.75,4.6875,0
42850,1.75,6.125,2.875,0
42870,-0.25,7,2.5,0
42890,-5.125,7,3.5,0
42910,-15.375,4.75,5.125,0
42930,-20.4375,2.375,4.3125,0
42950,-23.0625,1,-1.125,0
42970,-24.375,-1.5,-8.3125,0
42990,-26.5625,-9.5625,-15.625,0
43010,-28.1875,-18.5,-29.3125,0
43030,-23.5,-23.8125,-48,0
43050,-12.1875,-28.875,-65.3125,0
43070,-7.5,-31.0625,-70.25,0
43090,0.5,-29.875,-73.5,0
43110,5.8125,-27.4375,-71.9375,0
43130,3.3125,-17.5625,-70.125,0
43150,9.1875,-14.25,-61,0
43170,13.5,4,-46.8125,0
43190,5.3125,18.25,-20.8125,0
43210,26.9375,6.0625,-0.8125,0
43230,36.9375,-0.6875,4.75,0
43250,32.875,-2.5625,-0.0625,0
43270,21.4375,1.25,-7.9375,0
43290,-20.875,0.8125,-7.75,0
43310,-32.125,11.5,1.25,0
43330,-17.5,32.4375,6.5,0
43350,2.1875,53.8125,9.5625,0
43370,15.875,56.8125,18,0
43390,16.1875,51.75,19.3125,0
43410,14.875,37.8125,17.375,0
43430,12.6875,27.375,13.0625,0
43450,7.8125,14.5625,9.6875,0
43470,3.25,4.8125,10.1875,0
43490,-0.6875,-2.4375,7.875,0
43510,-2.875,-6.75,5.875,0
43530,-2.5,-6.875,6.25,0
43550,0,-4.5,4.125,0
43570,1.4375,-3.1875,1.125,0
43590,2.6875,-1.4375,1.5625,0
43610,4.125,-0.75,0.75,0
43630,5.4375,-2.625,-1.75,0
43650,4.125,-4.0625,-1.5625,0
43670,0.5625,-6.5,-1.5,0
43690,-2.25,-7.75,0.0625,0
43710,-6.0625,-6.6875,3.3125,0
43730,-7.625,-6.4375,6.375,0
43750,-3.9375,-6.0625,9.25,0
43770,-3.5625,-6.3125,11.0625,0
43790,-2.5,-5.3125,13.1875,0
43810,-1.5,-4.5,10.875,0
43830,-1.3125,-4.5,7.0625,0
43840,0.125,-3.9375,5.5625,0
43860,-0.75,-2.0625,5.8125,0
43880,-0.25,-1.25,4.6875,0
43900,-1.1875,0.75,3.25,0
43920,-1.375,2.5625,1.375,0
43940,-2.8125,3.8125,-2.6875,0
43960,-3,8.1875,-3.8125,0
43980,-2.875,9.4375,-0.875,0
44000,0.25,9,0.5625,0
44020,3.8125,9.75,1.125,0
44040,5.875,6.4375,2.4375,0
44060,5,2.4375,3,0
44080,4.6875,-1.3125,3.875,0
44100,2.75,-3.4375,2.4375,0
44120,-1.0625,-3.5625,1.9375,0
44140,-4.8125,-4.25,3.5,0
44160,-5.5,-4.25,3.6875,0
44180,-4.25,-4.5,1.9375,0
44200,-2.9375,-4.5,1.125,0
44220,-2.5,-3.0625,0.4375,0
44240,-1.5625,-2.125,-0.9375,0
44260,-2.4375,-1.375,-2,0
44280,-2.75,-2.25,-1.5,0
44300,-0.625,-2.4375,-0.125,0
44320,-2.375,-1.875,2.1875,0
44340,-3.625,-2.4375,4.1875,0
44360,-5.25,-4.625,6.625,0
44380,-2.6875,-5.1875,5.9375,0
44400,-0.375,-2.25,4.5625,0
44420,0,-0.75,4.125,0
44440,-0.375,-1.75,3.1875,0
44460,0.3125,-2.0625,1.0625,0
44480,2.375,-1.5625,0.0625,0
44500,3.5,-1.3125,-0.5,0
44520,2.125,-1.8125,-1.3125,0
44540,-0.8125,-3.1875,-1.0625,0
44560,-0.875,-3.625,-1.1875,0
44580,-0.5,-3.0625,-0.8125,0
44600,1.3125,-1.8125,-0.25,0
44620,0.9375,0.125,0.5,0
44640,0.25,3.75,2.875,0
44660,1.8125,7.625,6.8125,0
44680,1.625,11.9375,10,0
44700,-0.25,18.875,12.625,0
44720,-2.875,35.5,17.0625,0
44740,-9.375,45.25,19.9375,0
44760,-5.8125,43.5625,21.5625,0
44780,-5.1875,42.8125,21.625,0
44800,-10.6875,47.1875,18.5625,0
44820,-25.25,53.375,16.8125,0
44840,-39.25,59.75,19.75,0
44860,-47.9375,63.6875,28.375,0
44880,-58.25,58.625,43.9375,0
44900,-55.6875,58.9375,55.1875,0
44920,-53.9375,58.4375,56.5,0
44940,-52.375,53.0625,57.75,0
44960,-52.875,48.4375,59.5,0
44980,-49.125,45.9375,63.5625,0
45000,-49.8125,57.625,67.4375,0
45020,-49.25,61.25,68,0
45040,-38.6875,60.875,67.5,0
45060,-25.375,60.375,69.9375,0
45080,-10.6875,63.8125,68.125,0
45100,13.9375,61.875,55.3125,0
45120,28.375,52.0625,43.75,0
45140,35.25,37.6875,34.1875,0
45160,28.5,25.6875,24.6875,0
45180,16.5625,13.5,16.4375,0
45200,3.9375,2.5,6.375,0
45220,-3.0625,-9.625,-1.875,0
45240,-2.125,-20.8125,-5.75,0
45260,-0.875,-28,-8,0
45280,0,-33.5,-9.3125,0
45300,1,-40.9375,-10.5,0
45320,4.6875,-46.0625,-12.6875,0
45340,7.4375,-48.75,-17.125,0
45360,6,-50.0625,-20.875,0
45380,3.625,-51.875,-23.625,0
45400,-2.8125,-53.125,-22.8125,0
45420,-5.75,-53.4375,-20.3125,0
45440,-7.8125,-52.6875,-15.5,0
45460,-8.125,-51.5,-8.875,0
45480,-4.1875,-46.625,-2.25,0
45500,4.125,-41.625,3.8125,0
45520,10.25,-37.6875,7.875,0
45540,11.625,-32.3125,15.875,0
45560,13.1875,-24.8125,20.75,0
45580,8.875,-18.125,25.9375,0
45600,6.875,-8.625,28.375,0
45620,0.6875,-4.3125,28.5625,0
45640,-4.25,0,25.0625,0
45660,-8.5,2.875,23.1875,0
45680,-13.875,6.0625,20,0
45700,-18.1875,6.75,16.1875,0
45720,-17.625,5.75,12.875,0
45740,-12.625,3.8125,8.5625,0
45760,-7.625,0.9375,3.875,0
45780,-1.375,-2,-0.75,0
45800,5.1875,-4,-5.3125,0
45820,8.5625,-6,-8.4375,0
45840,11.4375,-7.875,-12.4375,0
45860,13.625,-9.0625,-13.4375,0
45870,11.0625,-9.25,-12.1875,0
45890,8.25,-8.5625,-10.0625,0
45910,6.6875,-7.625,-7.4375,0
45930,6.0625,-4.125,-4.9375,0
45950,3.0625,-1.6875,-2.25,0
45970,-0.4375,1.25,1.1875,0
45990,-2.875,3.9375,4.4375,0
46010,-5.4375,6.0625,7.8125,0
46030,-8.1875,8.8125,10.875,0
46050,-10.1875,12.1875,11.75,0
46070,-8.5,16.6875,9.625,0
46090,-6.3125,19,4.125,0
46110,-6.4375,18.9375,-2.8125,0
46130,-7.75,17.625,-7.875,0
46150,-7.75,15.1875,-13.25,0
46170,-7.3125,12.125,-18.25,0
46190,-6.1875,9.3125,-22.9375,0
46210,-8.125,8,-27.0625,0
46230,-7.375,7.625,-29.1875,0
46250,-5.5,8.25,-31.5,0
46270,-6.25,10.0625,-32.75,0
46290,-5.5625,11.5625,-36.375,0
46310,-4.625,13.8125,-39.1875,0
46330,-8.25,15.375,-38,0
46350,-11.125,12.9375,-32.75,0
46370,-9.5625,11.3125,-26.8125,0
46390,-11.25,9.125,-22.6875,0
46410,-15.625,5.3125,-21.3125,0
46430,-25.25,-1.625,-20.4375,0
46450,-24.75,-12.375,-17.1875,0
46470,-24.0625,-19.5625,-7.375,0
46490,-35.6875,-24.8125,0.375,0
46510,-42.625,-30.25,-0.3125,0
46530,-53.1875,-37.0625,-9.1875,0
46550,-49.25,-37.1875,-23.3125,0
46570,-54.9375,-35.125,-31.625,0
46590,-57.6875,-34.75,-37.0625,0
46610,-61.4375,-36.875,-43.25,0
46630,-57.3125,-38.875,-49.375,0
46650,-58.5,-40.9375,-50.3125,0
46670,-55.75,-43.8125,-44.1875,0
46690,-52.8125,-47.375,-39.6875,0
46710,-59.4375,-48.25,-39.8125,0
46730,-61.375,-47.6875,-42.125,0
46750,-65.375,-48.125,-37.4375,0
46770,-64.1875,-48.875,-30,0
46790,-62.6875,-47.75,-21.875,0
46810,-62.5625,-43.125,-17.4375,0
46830,-61.3125,-38.5,-13.25,0
46850,-64.1875,-36.5,-6.5625,0
46870,-58.25,-35.6875,1.8125,0
46890,-51.25,-33.125,6.25,0
46910,-47.5,-29.9375,7.4375,0
46930,-39.3125,-25.6875,6.75,0
46950,-32.125,-24,9.125,0
46970,-25.0625,-21.75,8.8125,0
46990,-16.5,-16.875,4.875,0
47010,-8.9375,-13.125,0.5,0
47030,0.125,-9.125,-1.6875,0
47050,9,-4.875,-3.75,0
47070,13.9375,0.1875,-7,0
47090,16.375,4.125,-7.0625,0
47110,19.1875,5.9375,-5.1875,0
47130,20.9375,7.875,-3.875,0
47150,20.1875,9.875,-2.5,0
47170,20.25,9.9375,0.0625,0
47190,18.5,9.8125,3.25,0
47210,11.25,9.3125,5.4375,0
47230,6.625,8.4375,7,0
47250,7.1875,7.125,8.0625,0
47270,2.75,7.25,7.125,0
47290,-1.5,7.4375,4.4375,0
47310,-3.6875,5.875,2.875,0
47330,-2.9375,4.6875,2.4375,0
47350,-2.375,5.125,1,0
47370,-3.375,6.1875,-2.625,0
47390,-4.5,4.6875,-5.75,0
47410,-0.125,3.9375,-8.3125,0
47430,10.125,-2.1875,-7.5625,0
47450,13.5,-8.25,-13,0
47470,-5.625,7.0625,-16.625,0
47490,5.3125,6,-23.875,0
47510,14.1875,-8.5625,-19.5625,0
47530,29.75,-10,-6.6875,0
47550,55,2.375,-11.125,0
47570,66.9375,17.0625,-34.875,0
47590,53.25,35,-57.375,0
47610,45.9375,50.625,-62.75,0
47630,44.1875,54.375,-50.3125,0
47650,37.125,49.125,-36.0625,0
47670,27.875,33.0625,-23.5,0
47690,24.5,17.6875,-11.1875,0
47710,24.875,16.4375,-6.3125,0
47730,28,22,-11.5625,0
47750,33.3125,25.5,-13.5625,0
47770,29.375,22.6875,-11.6875,0
47790,15.6875,22.75,-6.3125,0
47810,1.6875,26,0.5,0
47830,1.5,25.375,4.6875,0
47850,10.25,19.875,6.4375,0
47870,13.3125,18.625,6.125,0
47890,9.9375,18.75,6.6875,0
47910,7.875,16.625,7.3125,0
47930,4.8125,14.125,7.375,0
47950,3.3125,11.3125,6.4375,0
47970,5.1875,7.875,4.5625,0
47990,3.875,5.5,2.8125,0
48010,1.5,5.6875,3.4375,0
48030,2.75,4.3125,2.5,0
48050,3.375,0.375,0.625,0
48070,1.4375,-0.375,-0.75,0
48090,-3.875,-1.3125,-1.0625,0
48110,-3,-2.75,-0.9375,0
48130,-1.375,-1.25,-1,0
48150,0.9375,-0.875,-0.5625,0
48170,0.5,-1.6875,0.1875,0
48190,-0.25,-0.6875,-0.1875,0
48210,-0.75,0.375,0.4375,0
48230,-0.5,0.125,2.1875,0
48250,-0.1875,0.0625,1.6875,0
48270,1.6875,0.8125,0.4375,0
48290,1.5625,1.5,0.0625,0
48310,-0.125,0.8125,0.6875,0
48330,-0.0625,-0.125,1,0
48350,1.1875,0.25,0.8125,0
48370,0.4375,2.25,0.6875,0
48390,-0.3125,2.25,1.3125,0
48410,-1.25,0.75,1.8125,0
48430,-2.25,0.75,1,0
48450,-2.9375,0.75,0.9375,0
48470,-1.1875,0.5625,1.0625,0
48490,-1.3125,2.5625,0.5625,0
48510,-2,3.0625,-0.25,0
48530,-1,1.5,-0.6875,0
48550,0.25,-1.875,-0.8125,0
48570,0.5625,-2.875,-0.625,0
48590,2.75,-1.625,-0.875,0
48610,3.25,0,-2.25,0
48630,2.5,0.75,-4.8125,0
48650,0.1875,0.125,-4.5625,0
48670,0.4375,-1.25,-2,0
48690,2.5625,1.0625,-1.25,0
48710,5.125,3.5,-1,0
48730,5.1875,5.875,-0.3125,0
48750,3.6875,7.25,3.125,0
48770,1.875,8,6.5,0
48790,2.8125,8.5,6.875,0
48810,3,8.625,5.25,0
48830,2.25,8.625,4.3125,0
48850,-0.8125,9.1875,4.125,0
48870,0.375,8.5,4.9375,0
48890,2.6875,8.125,5.5,0
48910,5.5625,8.1875,1.125,0
48930,5.6875,7.9375,-0.875,0
48950,3.6875,7.9375,-1.5625,0
48970,4.8125,6.5,-2.0625,0
48990,5,5.1875,-3.5625,0
49010,5.5,3.125,-4.25,0
49030,6.25,1.8125,-4.75,0
49050,7.1875,1.6875,-4.4375,0
49070,3.875,2.25,-5.6875,0
49090,1,1.875,-5.8125,0
49110,-0.5625,0.6875,-5.5,0
49130,0.625,-0.9375,-6,0
49150,1.3125,-1.75,-6,0
49170,2,-2.25,-5.875,0
49190,6.375,-2.0625,-6.5625,0
49210,9.6875,1.0625,-9.9375,0
49230,7.875,0.0625,-11.5625,0
49250,4.3125,-3,-10.6875,0
49270,3.1875,-2.5625,-7.75,0
49290,4,-0.6875,-3.9375,0
49300,2.75,-0.3125,-0.4375,0
49320,1.5,-0.9375,4.625,0
49340,1.875,-1.9375,8.75,0
49360,-0.8125,-3,10.6875,0
49380,0.875,-2.5,11.125,0
49400,3.125,-1.9375,11.4375,0
49420,4.25,-2.0625,9.5625,0
49440,7,-0.9375,6.75,0
49460,8.3125,0.9375,5.125,0
49480,8.625,1.75,5.3125,0
49500,7.5,0.75,6,0
49520,9.375,0.6875,4.4375,0
49540,9.625,1.5,4,0
49560,6.5,1.375,5.9375,0
49580,5,1,7.4375,0
49600,4.375,1.375,5.5625,0
49620,3.0625,1.4375,5.125,0
49640,1.25,2,7.1875,0
49660,-2.3125,0.4375,7.8125,0
49680,-0.4375,-1.0625,5.5,0
49700,1.375,-0.625,3.625,0
49720,3.1875,-0.4375,3.625,0
49740,4.1875,-1.125,4.625,0
49760,2.875,-0.5625,4.75,0
49780,4,-0.4375,5.5625,0
49800,4.8125,-0.9375,6.875,0
49820,5.3125,-1.4375,8.5,0
49840,8.4375,-0.875,9.625,0
49860,7.625,-0.125,11.125,0
49880,7.6875,-0.625,13.125,0
49900,9.875,-0.5625,13.0625,0
49920,8.5625,0.125,12.5,0
49940,1.75,0.25,11.4375,0
49960,2.9375,-3.375,13.75,0
49980,8.0625,-6.625,17,0
50000,21.4375,-2.25,12.5625,0
50020,31.4375,13.5,5.5625,0
50040,31,24.375,5.625,0
50060,29.9375,16.75,12.375,0
50080,28.1875,7.375,14.375,0
50100,25.75,0.25,10.1875,0
50120,22.6875,-3.9375,2.9375,0
50140,9.5,-6.5,0.9375,0
50160,2.9375,-9.625,6,0
50180,4.9375,-15.1875,12.375,0
50200,-5.625,-23.8125,12.25,0
50220,-11.125,-29.3125,12.375,0
50240,-8,-30.1875,11.3125,0
50260,1.1875,-26.6875,11.5625,0
50280,6.9375,-22.625,8.8125,0
50300,7.625,-18.9375,9.6875,0
50320,10.125,-14.25,15.125,0
50340,3.5625,-14.5,16.5,0
50360,-0.375,-19.875,16.625,0
50380,5.125,-21,18,0
50400,5.5,-22.4375,26.1875,0
50420,19.9375,-20.5,29.8125,0
50440,18.5625,-16.25,25.125,0
50460,13.6875,-12.5,24.625,0
50480,-0.625,-10.1875,27.1875,0
50500,-8.75,-8.5,30,0
50520,-12,-5.8125,26.1875,0
50540,-6.875,-2.5625,22.6875,0
50560,-8.875,0.8125,20.5625,0
50580,-12.75,1.375,16.3125,0
50600,-15.75,1.8125,13.3125,0
50620,-19.4375,2.25,15.1875,0
50640,-8.875,-0.375,18.375,0
50660,-0.0625,-2.0625,14.9375,0
50680,2.75,-1.125,9.75,0
50700,3.5625,1,9.25,0
50720,11.8125,-3.0625,13.4375,0
50740,15.375,-6.25,12.875,0
50760,18.5625,-4.5,9.875,0
50780,15.1875,-3.375,9.625,0
50800,10.6875,-3.0625,12.4375,0
50820,5.875,-1.125,14.6875,0
50840,4.0625,-0.9375,14.5,0
50860,0.625,-1.8125,15.8125,0
50880,3,-2.9375,18.0625,0
50900,0.875,-1.3125,19.6875,0
50920,-0.5625,-0.75,21.5625,0
50940,-2.5625,-3.5625,21.125,0
50960,-1.8125,-6.4375,20.1875,0
50980,-0.625,-6.0625,18.6875,0
51000,2.5625,-5.0625,16.375,0
51020,3.75,-6.3125,14,0
51040,1.75,-6.4375,11.0625,0
51060,2.3125,-5.5,6.3125,0
51080,3.5625,-5.1875,2.25,0
51100,5.9375,-6.0625,0,0
51120,8.1875,-6.125,-0.5625,0
51140,8.9375,-7.25,-1.75,0
51160,8.875,-8.5,-3.875,0
51180,8.5,-9.25,-4.125,0
51200,7.6875,-10,-2.75,0
51220,8.75,-10.1875,-1.875,0
51240,7.5625,-9.875,-1.75,0
51260,5.8125,-10.75,-3.4375,0
51280,7.75,-11,-5.75,0
51300,8.375,-10.5,-5.4375,0
51320,11.5625,-9,-5.0625,0
51330,11.0625,-7.4375,-5.1875,0
51350,9.1875,-5.9375,-5.4375,0
51370,9.25,-5.0625,-4.6875,0
51390,11.0625,-4.3125,-3.75,0
51410,11.3125,-2.875,-1.75,0
51430,10.6875,-3.3125,0.5625,0
51450,7.625,-3,1.875,0
51470,4.9375,-2.1875,1.5625,0
51490,1.6875,-0.8125,1.3125,0
51510,0.3125,-0.875,1.6875,0
51530,1.3125,-1.5,1.4375,0
51550,1.3125,-0.9375,0.25,0
51570,0.625,-0.5,-1.25,0
51590,-1,0,-2.1875,0
51610,-0.875,-0.3125,-1.9375,0
51630,1.3125,-0.25,-1.6875,0
51650,2.375,1.375,-2.5625,0
51670,4.6875,1.5,-2,0
51690,7.625,1.9375,-1.6875,0
51710,8,2.0625,0.1875,0
51730,9.6875,2.3125,0.3125,0
51750,9.25,2.4375,-0.8125,0
51770,10.0625,3.8125,-3.625,0
51790,10.0625,4.3125,-4.25,0
51810,11.8125,4.3125,-5.1875,0
51830,12.25,4.5625,-6.5625,0
51850,12.9375,4.375,-5.875,0
51870,12.4375,5.375,-5.75,0
51890,9.1875,7.9375,-6.8125,0
51910,5.25,10.375,-10.25,0
51930,0.875,12.9375,-10.5,0
51950,-4.875,13.875,-10.5,0
51970,-11,13.1875,-10.9375,0
51990,-20.5625,9,-17.125,0
52010,-32.25,8.625,-26.8125,0
52030,-44,8.1875,-36.375,0
52050,-46.375,10.625,-40.1875,0
52070,-54.625,2,-41.9375,0
52090,-54.125,-5.3125,-36.9375,0
52110,-61.125,-12.6875,-22.9375,0
52130,-66.0625,-21.375,-14.1875,0
52150,-66.4375,-17.0625,-14.6875,0
52170,-79.1875,-7.0625,-17.5625,0
52190,-112,4.4375,-16.5,0
52210,-116.688,12.625,-28.625,0
52230,-114.875,9.8125,-32.625,0
52250,-93.1875,3.9375,-36.1875,0
52270,-66.3125,2.3125,-41.3125,0
52290,-38.625,1.75,-44.6875,0
52310,-27.75,-8.3125,-44.5,0
52330,-16.375,-13.0625,-48.375,0
52350,11,-16.5625,-52,0
52370,35.875,-25.0625,-61.9375,0
52370,35.875,-25.0625,-61.9375,0
52380,-112,4.4375,-16.5,0
52410,74.0625,-32.0625,-68.375,0
52430,106.5,-42.125,-67.375,0
52450,122.062,-52.5,-60.9375,0
52470,122.25,-60.375,-53.0625,0
52490,107.438,-65.0625,-48.625,0
52510,95.9375,-66.4375,-48.5625,0
52530,89.6875,-63.375,-46.0625,0
52550,76.3125,-61.625,-35.5,0
52570,60.8125,-56,-24.6875,0
52590,58.1875,-44.5,-14.375,0
52610,41.4375,-36.3125,3.25,0
52630,30.0625,-30,26.8125,0
52650,22.6875,-30.25,42.9375,0
52670,23.25,-14,69.9375,0
52690,6.9375,7.3125,68.25,0
52710,0.5,17.3125,64.125,0
52720,-11.5625,16.8125,60.25,0
52760,-19.5,44.6875,59.25,0
52780,-17.6875,44.0625,56.0625,0
52800,-20,47.25,52.0625,0
52820,-13.8125,55.0625,48.875,0
52840,-4,56,43.0625,0
52850,-2.6875,52,36.8125,0
52870,-0.375,47.4375,33.125,0
52890,2.1875,45.0625,32.375,0
52910,3.75,42.6875,31.5,0
52930,7.125,37.1875,25,0
52950,10.6875,32.5625,18.9375,0
52970,5.875,29.75,11.375,0
52990,9.8125,23.8125,5.625,0
53010,20.875,18.75,4.3125,0
53030,23.6875,17.25,2.75,0
53050,29.5,14.125,-2.3125,0
53070,36.75,10.75,-9.75,0
53090,40.375,7.8125,-12.5625,0
53110,34.375,4.3125,-12.625,0
53130,34.625,1.75,-13.625,0
53150,36.0625,2,-15,0
53170,35.375,3.375,-14.5,0
53190,29.1875,1.875,-10.0625,0
53210,22.6875,-0.5,-6.1875,0
53230,18.5625,-1.0625,-3.5,0
53250,15.5,-0.0625,0.125,0
53270,9.5,1.25,3.875,0
53290,5.3125,1.5625,6.4375,0
53310,2.0625,1.0625,8.25,0
53330,-1.25,1.1875,8.8125,0
53350,-4.6875,1.9375,6.375,0
53370,-5.625,3.5625,2.875,0
53390,-7.1875,5.4375,-0.4375,0
53410,-6.5625,5.6875,-3.4375,0
53430,-4.5,3.8125,-5.1875,0
53450,-3.4375,0.8125,-6.75,0
53470,-1.25,-2.0625,-7.3125,0
53490,-0.25,-3.6875,-5.75,0
53510,-2.75,-3.25,-3.75,0
53530,-1,-0.8125,-1.25,0
53550,1.25,2.1875,1,0
53570,1.4375,5.8125,3.5,0
53590,1.75,7.875,6.5,0
53610,1.8125,8.8125,7.4375,0
53630,2.3125,8.4375,7.875,0
53650,1.6875,7.625,9.125,0
53670,-1.375,8.4375,6.75,0
53690,-6.1875,9.625,3.3125,0
53710,-8.625,11.375,3.1875,0
53730,-12.1875,13.875,4.4375,0
53750,-13.3125,15.5,6.8125,0
53770,-14.6875,15.8125,6.5625,0
53790,-17.125,18.9375,5.125,0
53810,-12.0625,18.125,7.125,0
53830,-8.3125,15.375,11.4375,0
53850,-10.1875,12.4375,18,0
53870,-5.0625,11.1875,18.25,0
53890,3.1875,7.4375,15.6875,0
53910,8.9375,4.375,14.8125,0
53930,9.125,0.75,17.1875,0
53950,10.6875,-2.8125,16.8125,0
53970,10.75,-6,14.5,0
53990,6.5,-10.5625,14.1875,0
54010,4.8125,-13.3125,13.6875,0
54030,4.8125,-13,8.4375,0
54050,1.875,-12.9375,4.875,0
54070,-4.1875,-13.6875,5.75,0
54090,-5.5,-13.3125,7.0625,0
54110,-3.5625,-12.75,7.4375,0
54130,-3.875,-11.8125,5.4375,0
54150,-2.9375,-9.1875,3.5,0
54170,-1.125,-7.1875,2.75,0
54190,-0.75,-5.6875,3.8125,0
54210,0.0625,-5.6875,5,0
54230,2.75,-5.625,4.8125,0
54250,7.375,-5.75,3.25,0
54270,8.5625,-5.9375,2.375,0
54290,5.125,-4.1875,0.0625,0
54310,2.4375,-1.8125,-1.375,0
54330,-1.8125,-1.5,-1.5625,0
54350,-2.9375,-2.0625,-1.3125,0
54370,-3.875,-2.5625,-0.8125,0
54390,-3.25,-3.875,1.8125,0
54410,-4.625,-5.9375,3.1875,0
54430,-6.375,-8.3125,2.25,0
54450,-4.8125,-9.8125,0.3125,1000
54470,-5.375,-9.3125,-0.9375,0
54490,-7.8125,-9.5625,0.5625,0
54510,-7,-10.8125,1.0625,0
54530,-4.25,-11.625,2.5,0
54550,-1.5625,-12.25,1.75,0
54570,-2.375,-15.3125,1.8125,0
54590,-5.875,-18.1875,3.5,0
54610,-6.9375,-22.0625,4.625,0
54630,-7,-27.3125,3,0
54650,-4.8125,-32.3125,2,0
54670,-1.75,-36.4375,0.5,0
54690,-2.6875,-37.6875,-2.25,0
54710,-6.875,-37.1875,-6.5,0
54730,-13.3125,-36.125,-9.8125,0
54750,-20.0625,-36.5,-10.3125,0
54760,-24,-37.6875,-11,0
54780,-25.25,-38.5,-10.5625,0
54800,-24.75,-36.9375,-11.25,0
54820,-24.3125,-35.875,-12.0625,0
54840,-27.75,-34.0625,-12.625,0
54860,-31.1875,-30.25,-12.4375,0
54880,-32.3125,-24.3125,-11.9375,0
54900,-30.125,-16.875,-11.75,0
54920,-28,-9.0625,-13,0
54940,-23.75,-3.75,-17.9375,0
54960,-19.25,4.375,-25.375,0
54980,-15.5,8.8125,-31.1875,0
55000,-12.75,11.8125,-36.5625,0
55020,-12.4375,17.3125,-45.5625,0
55040,-10.625,24.3125,-50.4375,0
55060,-11.25,29.375,-54.0625,0
55080,-14.5625,30,-59.875,0
55100,-12.875,31.0625,-64.5,0
55120,-14.4375,35.375,-69.625,0
55140,-18.375,41.0625,-72.4375,0
55160,-19.75,45.0625,-76.125,0
55180,-21.5625,48.6875,-79,0
55200,-22.1875,53.375,-81.4375,0
55220,-19.875,59.75,-79.1875,0
55240,-16.125,66.75,-75.25,0
55260,-12.625,72.9375,-71.5,0
55280,-9,77.9375,-70.5625,0
55300,-5.6875,82.125,-70.1875,0
55320,-4.1875,88.75,-66,0
55340,-3.9375,93.9375,-56.875,0
55360,-7.5,101.938,-52,0
55380,-6.3125,108.312,-45.875,0
55400,-8.625,111.938,-36.1875,0
55420,-10.875,110.125,-25.75,0
55440,-11.1875,102.75,-21.875,0
55460,-6.875,93.75,-20.8125,0
55480,0.0625,83.6875,-17,0
55500,13.5625,74.4375,-7.75,0
55520,29.0625,68.875,-2.3125,0
55540,30.1875,69,0.9375,0
55560,28.5625,68.875,5.0625,0
55580,20.0625,61.125,6.5,0
55600,19.25,45.875,14,0
55620,17.0625,39.375,20.0625,0
55640,10.1875,30.625,27.625,0
55660,6.4375,24,29.875,0
55680,6,12.25,33.6875,0
55700,8.3125,2.8125,40.1875,0
55720,2,-4.1875,45.75,0
55740,-7.8125,-9.0625,50.125,0
55760,-9.625,-14.5625,57.0625,0
55780,-8.125,-23.8125,61.5625,0
55800,-6.4375,-31.5,64.0625,0
55820,-9.625,-37.125,65.25,0
55840,-17.125,-41.6875,67.6875,0
55860,-22.0625,-44.875,66.9375,0
55880,-24.6875,-51.875,63.6875,0
55900,-23.9375,-60.5,59.9375,0
55920,-19.1875,-67.5625,54.1875,0
55940,-14,-73.0625,48.3125,0
55960,-12.6875,-76.1875,40.6875,0
55980,-13.625,-80.625,36.25,0
56000,-12.75,-86.875,33.5,0
56020,-10.3125,-93.125,27.9375,0
56040,-8.8125,-98.5,23.5,0
56060,-9.125,-102.562,19.9375,0
56080,-12.875,-106.188,16.0625,0
56100,-14.6875,-105.812,9.3125,0
56120,-14,-104.562,3.75,0
56140,-13.0625,-103.562,-2.8125,0
56160,-7.125,-104.25,-4.75,0
56180,-0.1875,-103.75,-9.5625,0
56200,7.4375,-96.5,-17.375,0
56220,2.6875,-91.375,-23.9375,0
56240,-2.75,-86.4375,-28.125,0
56260,-3.6875,-76.5,-31.3125,0
56280,-5.8125,-69.125,-43.9375,0
56300,-8.625,-61.8125,-53.3125,0
56320,-6.875,-57.125,-58.125,0
56340,-11.875,-51.625,-66.3125,0
56360,-22.5625,-41.5,-78.1875,0
56380,-28,-29.625,-89.25,0
56400,-24.875,-16.3125,-96.0625,0
56420,-29.125,-2.6875,-99.125,0
56440,-37.375,9.8125,-107.062,0
56460,-37.9375,22.9375,-115.812,0
56480,-36.6875,40.9375,-116.5,0
56500,-36.75,55.8125,-117.125,0
56520,-30.8125,70.4375,-119.25,0
56540,-25.9375,83.875,-118.188,0
56560,-20.25,97.3125,-111.625,0
56580,-16.3125,110.438,-101.938,0
56600,-14.8125,123.562,-92.6875,0
56620,-13.1875,133.812,-83.4375,0
56640,-11,140.688,-69.4375,0
56660,-7,142.625,-54.3125,0
56680,-1.625,142,-33.8125,0
56700,11.75,138.062,-13,0
56720,32.1875,133.562,-1.375,0
56740,42.375,125.125,11,0
56750,50.75,111.25,27.25,0
56770,51.1875,101.5,31.5,0
56790,36.4375,89.375,39.75,0
56810,24.4375,74.6875,56,0
56830,8.9375,60.75,64.125,0
56850,-3.3125,47.625,70.5625,0
56870,-16.5625,35.125,81.375,0
56890,-21.4375,16.8125,91.3125,0
56910,-22.5,6.25,95.8125,0
56930,-28.1875,-7.125,106.938,0
56950,-34.0625,-22.5,115.938,0
56970,-48.4375,-30.875,114.438,0
56990,-63.125,-39.25,109.25,0
57010,-73.25,-53.625,106,0
57030,-71.625,-69.5,98.75,0
57050,-68,-84.5,86.5,0
57070,-62.25,-96.5,72.9375,0
57090,-60.125,-108.875,61.125,0
57110,-50.8125,-119.312,50.125,0
57130,-39.0625,-126.625,35.1875,0
57150,-33.9375,-135.625,21.125,0
57170,-28.5625,-143.875,8.625,0
57190,-15.875,-148,-2.75,0
57210,-2.9375,-145.375,-16.9375,0
57230,6.0625,-137.562,-37.3125,0
57250,23.375,-130.562,-53.4375,0
57270,29.25,-120.375,-61.5,0
57290,24.25,-111.188,-75.5,0
57310,14.6875,-97.6875,-99.375,0
57330,10.3125,-87.1875,-112.312,0
57350,11.9375,-76.25,-122.375,0
57370,6.6875,-61,-124.375,0
57390,-13.125,-42.5625,-131.25,0
57410,-13.8125,-22.5,-134.688,0
57430,-17.4375,-4.5625,-135.688,0
57450,-23.6875,6.8125,-137.625,0
57470,-42.3125,19.25,-135.688,0
57490,-43.875,38.5625,-130.688,0
57510,-45.75,51.25,-123.812,0
57530,-48.25,62.6875,-113.062,0
57550,-44.5,75.9375,-98.9375,0
57570,-35.0625,86.0625,-88.5625,0
57590,-30.1875,95.5,-79.25,0
57610,-21.6875,103.438,-64.5,0
57630,-4.1875,108,-49.3125,0
57650,16.5625,109.25,-33.6875,0
57670,24.375,114.5,-18.1875,0
57690,23.1875,126,-9.125,0
57710,26.3125,123,9.5,0
57730,9.4375,122.75,27.8125,0
57750,0.0625,133.125,62.625,0
57770,2.6875,134.188,64.1875,0
57790,-12.4375,129.5,77.3125,0
57810,-23.5,110.875,89.875,0
57830,-35.0625,80.5,106.812,0
57850,-51.3125,55.1875,113.938,0
57870,-56.6875,45.125,112.062,0
57890,-59.8125,29.6875,113.625,0
57910,-76.625,-4.4375,116.75,0
57930,-99.5625,-31.1875,113.062,0
57950,-99.875,-46.875,106.438,0
57970,-92.625,-68.8125,97.5625,0
57990,-79.1875,-86.875,90.125,0
58010,-70.25,-102.75,75.4375,0
58030,-63.4375,-112.812,57.8125,0
58050,-55.8125,-125.812,42.5625,0
58070,-40,-138.312,34.8125,0
58090,-18.8125,-145.75,30.6875,0
58110,-4.3125,-146.375,20.5,0
58130,-3.75,-144,5.25,0
58150,-5.125,-143.938,-8.6875,0
58170,1.875,-145.188,-12.0625,0
58190,2.1875,-144.812,-19.625,0
58210,6.9375,-133.5,-38.5625,0
58230,24.5,-120.188,-52.75,0
58250,15,-111.312,-70.25,0
58270,19.9375,-109.688,-74.9375,0
58290,14.625,-96.6875,-80.6875,0
58310,15.3125,-80.375,-87.4375,0
58330,21.4375,-65.8125,-91.9375,0
58350,14.3125,-55.25,-93.9375,0
58370,10.875,-38.875,-89.6875,0
58390,9.75,-30.625,-78.1875,0
58410,8.1875,-19.4375,-68.4375,0
58430,4.5,-7.5625,-58.3125,0
58450,-5.6875,12.5,-39.4375,1001
58470,-12.4375,21.875,-14.25,0
58490,-10.875,28.8125,3.1875,0
58510,-18.25,30.0625,11.6875,0
58530,-19.6875,32.75,22.875,0
58550,-12.4375,41.5625,30.9375,0
58570,-8.4375,39.3125,33.6875,0
58590,-8.375,31.3125,34.625,0
58610,-8.1875,20.6875,27.3125,0
58630,-9.625,12.25,19.6875,0
58650,-12,4.3125,14.9375,0
58670,-2.375,0.75,12.9375,0
58690,11.125,-1.0625,13,0
58710,-4.875,13.625,11.375,0
58730,-21.5625,31.125,10,0
58750,-30.6875,38.875,13.625,0
58770,-39.1875,39.125,26.75,0
58790,-40.125,41.75,47.4375,0
58810,-33.75,57.5,63.5625,0
58830,-31.1875,73.625,71.625,0
58850,-42.5,83.625,78.0625,0
58870,-51.4375,87.1875,95.75,0
58890,-46.75,99.8125,110.75,0
58910,-32.75,117.5,118.625,0
58930,-28.125,126.625,123.438,0
58950,-26.3125,127.75,120.875,0
58970,-11,130.812,118.188,0
58990,-2.9375,135.75,113.688,0
59010,-1.5625,124.688,109.812,0
59030,-1,102.5,101.938,0
59050,31.5,85.6875,75.9375,0
59070,54.8125,68.25,51.5,0
59090,58.5,49.9375,36.625,0
59110,57.8125,31.8125,27.375,0
59130,58.9375,19.0625,26.8125,0
59150,49.5625,11,30.5625,0
59170,39.25,1.75,32.0625,0
59190,33.6875,-9.875,26.875,0
59210,22.6875,-16.875,26.125,0
59230,15.1875,-22.75,30.3125,0
59250,12.75,-30.4375,33.625,0
59270,7.1875,-40.75,32.5,0
59290,3.875,-46.25,30.625,0
59310,-0.0625,-48.4375,28.75,0
59330,-5.5,-50.1875,27.625,0
59350,-10.3125,-51.625,27.4375,0
59370,-12.6875,-50.75,28.625,0
59390,-10.875,-44.625,25.8125,0
59410,-13.6875,-36.5,19.25,0
59430,-11.25,-27,10.625,0
59450,-5.25,-22.1875,7.6875,0
59470,-0.3125,-18.4375,8.125,0
59490,7.75,-14.5,8.8125,0
59510,11.3125,-11.3125,4.5625,0
59530,12.9375,-9.5625,3.125,0
59550,11.9375,-10.3125,7.75,0
59570,7.4375,-10.8125,7.0625,1000
59590,2.3125,-10.6875,3.875,0
59610,-3.1875,-10.375,2.875,0
59630,-3.6875,-17.875,8.125,0
59650,-5,-26.875,8.5,0
59670,-9.75,-31.25,-3.5625,0
59690,-13.0625,-38.0625,-16.875,0
59710,-17.125,-46.8125,-21.5,0
59740,-13.5625,-59.8125,-22,0
59760,-10.9375,-59.5625,-27.375,0
59780,-14.4375,-52.625,-40.5625,0
59800,-18.6875,-39.4375,-52.125,0
59820,-14.3125,-29.8125,-63.5625,0
59840,-16.5625,-23.625,-71.9375,0
59860,-15.9375,-18.25,-72.75,0
59880,-16.25,-8.6875,-76.375,0
59900,-15.125,10.1875,-81.375,0
59920,-13.375,32.3125,-89.9375,0
59940,-14.1875,43.125,-96.125,0
59960,-18.5,58.0625,-101.5,0
59980,-25.25,75.4375,-108.125,0
60000,-32.1875,84.375,-112.25,0
60020,-26.5625,83.375,-112.25,0
60040,-24.375,87.125,-109.438,0
60060,-21.125,96.3125,-107.5,0
60080,-16.5625,107.438,-106.562,0
60100,-14.1875,112,-98.25,0
60120,-11.75,112.812,-85.875,0
60140,-10.25,115.188,-71.1875,0
60160,-13.25,123.812,-57.75,0
60180,-13.0625,127.062,-49.5,0
60190,-11.4375,123.812,-38.25,0
60210,-7.3125,120.938,-18.125,0
60230,-2,112.75,1.875,0
60250,16.75,100.562,22.8125,0
60270,39.625,86.5625,25.5625,0
60290,42.25,75.125,40.875,0
60310,33.9375,64.9375,52.625,0
60330,26,60.8125,57.25,0
60350,10.5,50.8125,63.625,0
60370,-1.8125,34.8125,72.1875,0
60390,-9.5,12,80.9375,0
60410,-11.0625,-5.1875,87.6875,0
60430,-21.5625,-16.1875,94.5,0
60450,-32.25,-27.3125,100.875,0
60470,-41.8125,-44.8125,102.562,0
60490,-48.4375,-66.25,103,0
60510,-57.5625,-86,101.938,0
60530,-66.8125,-100.562,93.375,0
60550,-74.5625,-113.562,80.4375,0
60570,-76.8125,-126.938,71.5,0
60590,-78.625,-138.312,64.0625,0
60610,-73.125,-145.875,52.1875,0
60630,-62.6875,-152.188,38.25,0
60650,-40.9375,-160.062,24.125,0
60670,-25.625,-160.062,6.9375,0
60690,-9.625,-155.75,-8.125,0
60710,5.1875,-149,-23.3125,0
60730,23.875,-140.25,-41.6875,0
60750,28.375,-126.812,-57.25,0
60770,32.9375,-113.688,-68.5625,0
60790,30.9375,-102.562,-84.9375,0
60810,27.375,-92.625,-104.312,0
60830,10.125,-75.1875,-126,0
60850,-10.625,-57.6875,-138.438,0
60870,-25.8125,-43.5625,-140.562,0
60890,-37.375,-27.8125,-140,0
60910,-52.3125,-7.0625,-143.75,0
60930,-58.4375,16.3125,-143.375,0
60950,-62.0625,35.75,-137.125,0
60970,-65.5625,55.25,-125.75,0
60990,-63.5625,70.0625,-120.938,0
61010,-52,79.9375,-118.75,0
61030,-41.125,89.25,-106.438,0
61050,-40.25,99.4375,-88.5,0
61070,-28.8125,115.5,-70.0625,0
61090,-24.1875,127.375,-61.5625,0
61110,-18.4375,124.75,-54.5625,0
61130,-6.5,117,-47.125,0
61150,16.25,118.812,-34.125,0
61170,26.625,134.812,0.0625,0
61190,26.375,138.938,9.3125,0
61210,56.1875,126.938,12.0625,0
61230,74.75,111.812,33.125,0
61250,58.5,107.062,58.125,0
61270,52.5625,107.688,58.25,0
61290,29.4375,91.1875,70.8125,0
61310,2.875,67.625,95.3125,0
61330,-2.1875,47.625,103.562,0
61350,-11.5,39.375,110.625,0
61370,-35.8125,23.375,116.625,0
61390,-61.125,3.9375,125.5,0
61410,-84.5,-20.5,135.125,0
61430,-99.25,-43.1875,145.75,0
61450,-113.562,-56.9375,147.375,0
61470,-136.188,-69.625,142.75,0
61490,-155.125,-87.8125,124.688,0
61510,-160.312,-102.188,98.5,0
61530,-129.812,-118,75.0625,0
61550,-103.375,-130.875,62,0
61570,-58.6875,-136.312,36.6875,0
61590,-24.0625,-137.5,-5.875,0
61610,-1.3125,-142.938,-42.8125,0
61630,25.75,-143.125,-56.5625,0
61650,40.875,-132.312,-69.6875,0
61670,56.0625,-119.25,-93.0625,0
61690,61.125,-106.25,-113.625,0
61710,56.875,-94.3125,-131.375,0
61730,54.4375,-84.25,-141.938,0
61750,57.75,-66.25,-146.938,0
61770,51.4375,-49.5,-150.25,0
61790,16.0625,-29.0625,-169.062,0
61810,0,-4.8125,-172,0
61830,-3.625,13.25,-161.125,0
61850,-14.125,18.9375,-151.75,0
61870,-26.6875,22.1875,-148.438,0
61890,-37.125,31.5,-139.875,0
61910,-50.625,45.9375,-123.5,0
61930,-47.9375,56.4375,-104.062,0
61950,-42.8125,64.875,-83.9375,0
61970,-32.75,70.625,-65.0625,0
61990,-24.875,78.0625,-48.8125,0
62010,-15.4375,86.5,-30.8125,0
62030,-5.6875,92.1875,-11.375,0
62050,4.8125,98.125,7.8125,0
62070,25,105.312,33.0625,0
62090,17.375,114.562,36.8125,0
62100,-2.5625,123.75,56.3125,0
62130,-14.0625,125.188,68.8125,0
62150,-21.875,115.938,79.0625,0
62170,-18.4375,111.062,87.9375,0
62190,-22.125,105.375,99.125,0
62200,-44.25,100.125,111.312,0
62220,-69.6875,78.1875,118.75,0
62240,-97.375,47.25,119.688,0
62260,-113.062,20.125,118.625,0
62280,-125.688,-5.1875,116.625,0
62300,-142.5,-29.625,113.688,0
62320,-151.188,-50.75,106.188,0
62340,-148,-77,91.1875,0
62360,-130.562,-98.875,76.8125,0
62380,-101.938,-118.75,56.375,0
62400,-68.625,-131.562,33.125,0
62420,-38.75,-139.375,8.6875,0
62440,-19,-150.438,-10.75,0
62460,4.75,-160.375,-23,0
62480,27.0625,-159.375,-37.875,0
62500,32.75,-154.75,-55,0
62520,27.3125,-146,-70.6875,0
62540,29.3125,-136.688,-77.6875,0
62560,46.5,-126.5,-82.875,0
62580,39.5625,-123.438,-90.5,0
62600,20,-116.625,-103.25,0
62620,20.4375,-96.875,-108.875,0
62640,42,-84.125,-110.375,0
62660,34.4375,-78.5,-108.812,0
62680,13.8125,-69.375,-103,0
62700,4.625,-45.5,-90,1001
62720,4.0625,-24.6875,-76.3125,0
62740,-2.5,-16.25,-65.4375,0
62750,4.1875,0.0625,-35.625,0
62770,0.4375,14.375,-18.75,0
62790,-5.9375,25.25,-3.125,0
62810,-4.6875,28.625,6.0625,0
62830,-5.125,25.8125,13.125,0
62850,-13.9375,25.875,19.4375,0
62870,-10.6875,28.9375,22.9375,0
62890,-6.1875,32.125,23,0
62910,-4.625,32.125,15.375,0
62930,-4.0625,29.875,7.3125,0
62950,-3.125,24.4375,2.5625,0
62970,1.0625,17.875,5.875,0
62990,5.5625,19.9375,8.4375,0
63010,1.1875,30.875,-1.9375,0
63030,-4.8125,37,-20,0
63050,-6.4375,29.9375,-22.625,0
63070,-8.875,24.375,-4.375,0
63090,-11.6875,27.3125,15,0
63110,-15.8125,34.375,24.1875,0
63130,-22,41.875,31.0625,0
63150,-25.1875,46.6875,40.0625,0
63170,-20.9375,47.75,55.5625,0
63190,-25.0625,54,71.9375,0
63210,-31.6875,67.1875,79.5,0
63230,-14.75,76.875,80.0625,0
63250,-0.5,81.1875,77.875,0
63270,7.6875,85.9375,88.25,0
63290,10.5,92.625,93.875,0
63310,15.75,94.4375,84.75,0
63330,28.625,80.125,77.3125,0
63350,34.3125,66.6875,78.1875,0
63370,38.0625,71.6875,78.625,0
63390,35.875,77.875,76.3125,0
63410,35.125,73.75,78.1875,0
63430,27.1875,60.0625,79.375,0
63450,20.625,50.6875,79.9375,0
63470,17.75,44.625,81.6875,0
63490,11.375,34.5,80.5,0
63510,5.625,27.875,78.9375,0
63530,-7.9375,22.4375,84.75,0
63550,-23.625,15.875,84.25,0
63560,-40.8125,3.1875,82.1875,0
63590,-26.1875,-7.125,60,0
63610,-18.0625,-10.1875,46.9375,0
63630,-12.6875,-15.75,39.6875,0
63650,-5.5625,-18,34.25,0
63670,9.625,-19.9375,29.875,0
63690,17.75,-21.5,21.375,0
63710,18.75,-18.875,14.0625,0
63730,12.9375,-17.375,16.625,0
63750,5.625,-16.75,20.4375,0
63770,1.125,-14.3125,18.3125,0
63790,-3.9375,-11.4375,15.3125,0
63810,-8.0625,-10.0625,18.625,1000
63830,-12.0625,-11.5625,22.125,0
63850,-6.5625,-11.875,18.4375,0
63870,-0.4375,-16.4375,13.375,0
63890,-2.75,-22.25,7.75,0
63910,-8.5625,-26.5,-0.125,0
63930,-5.4375,-28.875,-6.5,0
63950,0.875,-35.6875,-10.4375,0
63970,10.125,-43.6875,-12.0625,0
63990,16.5625,-51.625,-16.75,0
64010,19.5625,-57.3125,-21.25,0
64030,16.4375,-60.5,-21.75,0
64050,10.5625,-57,-24.875,0
64070,3.375,-53.4375,-26,0
64090,-7,-50.625,-28.875,0
64110,-12.9375,-42.9375,-34.8125,0
64130,-16.4375,-32.375,-43.625,0
64150,-16.3125,-23.125,-50.75,0
64170,-14.75,-13.9375,-57.875,0
64190,-22.125,-6.5625,-64.9375,0
64210,-23.375,3.9375,-68,0
64230,-25.6875,20.875,-70.875,0
64250,-21.25,40.5625,-75.0625,0
64270,-25.0625,61.9375,-85.75,0
64290,-30.9375,81.625,-94.625,0
64310,-32.3125,94,-100.5,0
64330,-26,105.062,-106.875,0
64350,-22.125,118.125,-110.5,0
64370,-16.9375,131.375,-112.25,0
64390,-13.4375,143.312,-110.688,0
64410,-7.5625,150.188,-107.062,0
64430,-4.5,148.375,-99.375,0
64450,0.5625,148.312,-86.6875,0
64470,1.875,148.25,-81,0
64490,-2.0625,147.062,-67,0
64510,-0.375,137.812,-46.6875,0
64530,11.8125,127.375,-21.875,0
64550,31.5,111.875,-7.5,0
64570,35.75,100.312,17.75,0
64590,32.0625,76.875,16.4375,0
64610,36,62.375,18.5,0
64630,26.5,45.8125,27.5625,0
64650,10.8125,38.3125,48.375,0
64670,6.125,33.625,59.375,0
64690,1,16.0625,64.8125,0
64710,-9.8125,-5.9375,78.375,0
64730,-27.1875,-20.6875,99,0
64750,-32,-28.6875,109.312,0
64770,-34.9375,-48.75,114.688,0
64790,-48.4375,-71.5,117.125,0
64810,-59.125,-86.5625,113.25,0
64830,-71.5,-94.625,105.312,0
64850,-71.75,-105.25,96.6875,0
64870,-74.8125,-117.5,85.3125,0
64890,-69.625,-128.188,72.3125,0
64910,-60.125,-136.375,59.1875,0
64930,-44.0625,-140.5,46.3125,0
64950,-27.625,-143.062,35.75,0
64970,-18,-144.562,25.1875,0
64990,-12.9375,-146.75,14.8125,0
65010,-11.0625,-146.188,2.1875,0
65030,-8.125,-141.5,-13,0
65050,3.875,-132.375,-26.875,0
65070,19.9375,-126.75,-38.5625,0
65090,35.5,-115.188,-47.625,0
65110,36.8125,-104.25,-55.4375,0
65130,22.625,-88.3125,-61.75,0
65150,14.8125,-85.8125,-79.8125,0
65170,7.1875,-73.5,-96,0
65190,-11,-52,-100,0
65210,-21.75,-28.375,-101.625,0
65230,-29.3125,-1.625,-106.812,0
65250,-42,15.875,-111.938,0
65270,-37.0625,36.5625,-108,0
65290,-42.9375,61.125,-103.938,0
65310,-52,86.25,-103.5,0
65330,-56.8125,95.125,-107.5,0
65350,-56.5,90.375,-105.25,0
65370,-46,87.3125,-102.75,0
65390,-36.0625,93,-104.75,0
65410,-33.3125,102.062,-105.75,0
65430,-24.25,102.812,-105.375,0
65450,-11.875,96.0625,-103.062,0
65470,-4.1875,91.5625,-92.25,0
65490,-10.6875,103.688,-79.5,0
65510,-14.4375,120.688,-63.375,0
65530,-5.25,118,-32.5625,0
65550,14.875,110.375,-4.75,0
65570,44.1875,101.125,14.3125,0
65590,58.9375,86.125,26.8125,0
65610,48.8125,84.5,55.0625,0
65620,46.75,73.5625,70.25,0
65640,23.375,65.9375,81.5,0
65660,-17.1875,45.3125,101.688,0
65680,-48.0625,23.1875,114.25,0
65700,-64.75,3.1875,119.688,0
65720,-70,-17.25,126.312,0
65740,-73.125,-39.375,137.875,0
65760,-78.625,-57.25,136.688,0
65780,-82.375,-72.5625,123.438,0
65800,-85.9375,-90.25,113.188,0
65820,-82.8125,-106.438,108.125,0
65840,-76.1875,-117.5,97.875,0
65860,-68.25,-123.875,79,0
65880,-62.875,-130.625,58.375,0
65900,-54.5625,-135.562,41.0625,0
65920,-34.8125,-140.5,28.8125,0
65940,-16.8125,-141.75,17.6875,0
65960,-3,-141.625,-2.4375,0
65980,3.6875,-132.75,-28.3125,0
66000,12.75,-126.75,-51.0625,0
66020,20.5,-118.188,-66.75,0
66040,26.8125,-110.062,-77.3125,0
66060,21.75,-96.6875,-95.25,0
66080,27.9375,-72.375,-114,0
66100,39.625,-55.4375,-134.188,0
66120,30.3125,-37.5625,-138.938,0
66140,21.25,-15.0625,-132.562,0
66160,12.5625,0.875,-135.312,0
66180,4.5,6,-148.562,0
66200,-22.3125,7.8125,-149.75,0
66220,-47.0625,17.125,-142.5,0
66240,-43.125,30.5625,-127.375,0
66260,-41.375,34.4375,-106.688,0
66280,-44.5625,44.375,-95.125,0
66300,-34,54.5,-92.25,0
66320,-27.875,63.625,-87.25,0
66340,-30.0625,76.5625,-77.25,0
66360,-27.9375,90.3125,-61.625,0
66380,-30.125,103.312,-44.375,0
66400,-23.8125,110.75,-26.8125,0
66420,-11.875,106.688,-12.875,0
66440,5.3125,101.438,10.1875,0
66460,22.4375,102.562,28.3125,0
66480,31.4375,113.875,43.875,0
66500,16.625,117.438,41.8125,0
66520,5.625,126.125,56.5,0
66540,-1.5625,124.688,65.25,0
66560,-12.3125,116.938,77.6875,0
66580,-29.1875,109.812,89.4375,0
66600,-46.375,97.9375,92.5625,0
66620,-56,81.625,97.9375,0
66640,-51.625,67.375,100.438,0
66660,-57.6875,50.8125,99,0
66680,-83.5,23.9375,99.5625,0
66700,-106.938,-3.875,97.6875,0
66720,-114.188,-29.75,95.8125,0
66740,-111.812,-50.125,86.375,0
66760,-110.5,-69.9375,78.0625,0
66780,-116.25,-92.0625,74.6875,0
66800,-103.375,-104.875,65.5,0
66820,-81.1875,-113.688,48.125,0
66840,-66.5625,-128.875,28.6875,0
66860,-42.0625,-134.625,14.625,0
66880,-17,-135.938,1.5,0
66900,-4.8125,-142.312,-7.5625,0
66920,2.3125,-147.25,-16.8125,0
66940,7.9375,-140.375,-30.125,0
66960,4.375,-133,-39.125,0
66980,1.9375,-131.438,-45,0
67000,7.6875,-129.438,-53.4375,0
67020,19.125,-122.312,-64.6875,0
67040,20.25,-112.875,-78.1875,0
67060,4.875,-111.438,-80.9375,0
67080,13.75,-104.5,-77.8125,0
67100,7.875,-88.3125,-83.4375,0
67120,11,-74.1875,-86.8125,0
67140,12.75,-64.5625,-87,0
67160,6.875,-45.5625,-85.875,0
67180,2,-27.5625,-83.4375,0
67200,5.4375,-15.9375,-70.375,0
67220,6.25,0.75,-61.3125,0
67240,7.0625,10.125,-53.875,0
67260,-1.375,17.875,-36.0625,0
67280,2.8125,24.25,-15.6875,0
67300,1.9375,28.875,-2.4375,0
67320,-6.375,29.625,3.3125,0
67340,-12.9375,24.375,8.625,1001
67360,-16.75,23,13.5625,0
67380,-20.4375,20,16.4375,0
67400,-18.4375,14.375,19.6875,0
67420,-12.625,13.125,24.1875,0
67440,-5,5.5,29.6875,0
67460,2.3125,4.1875,26.625,0
67480,4,-3.75,20.125,0
67500,3.5625,-4.75,16.625,0
67520,-2.5625,-2.125,11.1875,0
67540,-9.625,-0.375,4.5625,0
67560,-12.9375,-0.1875,3.75,0
67580,0.875,-1,8,0
67590,8.1875,-1.0625,13.0625,0
67610,11.1875,3.5,12,0
67630,8.9375,10.625,0.6875,0
67650,-1.5,16.9375,-11.625,0
67670,-9.3125,20.75,-13.625,0
67690,-11.25,20.875,-6.625,0
67710,-5.875,21.6875,6,0
67730,-1.75,21.0625,17.25,0
67750,-12.5,27.8125,26.625,0
67770,-29,42.6875,33.4375,0
67790,-26.8125,55.4375,36.25,0
67810,-7.0625,53.4375,43.4375,0
67830,4,48.125,58.8125,0
67850,7.6875,52.375,78.5,0
67870,15.9375,57.4375,90.9375,0
67890,17.875,66.75,87.3125,0
67910,40.3125,63.4375,86.0625,0
67930,42.9375,66.25,93.125,0
67950,43.25,76.25,102.875,0
67970,39.375,82.5,109.312,0
67990,39.5625,79.5625,103.25,0
68000,34.9375,83.0625,97.3125,0
68020,30.625,66.4375,101.625,0
68040,24.5,50.5625,86.75,0
68060,15,42.6875,72.75,0
68080,13.3125,34.4375,72.5,0
68100,5.5,24.0625,68,0
68120,0,15.125,58.8125,0
68140,-4.375,8.25,49.4375,0
68160,-10.1875,6.125,39.0625,0
68180,-13.3125,0.4375,34.5625,0
68200,-5.375,-7.75,35.5625,0
68220,4.6875,-15,30.625,0
68240,7.4375,-18.375,20.25,0
68260,5.125,-17.5625,18.25,0
68280,2.4375,-17.8125,23.75,0
68300,-0.625,-20.25,26.4375,0
68320,-9.25,-16.9375,24.25,0
68340,-16.25,-11,21.6875,0
68360,-11.25,-8.1875,23.5,0
68380,-9.6875,-11.75,24,0
68400,-9.3125,-12.25,22.0625,0
68420,-9.5625,-12.6875,21,0
68440,-4.0625,-11.8125,20.875,0
68460,3.25,-15,17.9375,0
68480,2.9375,-19,15.25,0
68500,0.875,-23.25,10.0625,0
68520,-3.5,-29.875,3.375,0
68540,0.8125,-36.5,-0.25,0
68560,10.6875,-42.5625,-6.9375,0
68580,22.75,-48.875,-19.375,0
68600,23.875,-56.6875,-29.8125,0
68620,19.3125,-62.6875,-31.4375,0
68640,16.625,-66.125,-31.5,0
68660,14.6875,-63.75,-34.875,0
68680,8.9375,-57.4375,-43.75,0
68690,-0.3125,-44.5625,-44.125,0
68710,-8.0625,-33.125,-46.0625,0
68730,-13.8125,-28.4375,-47.25,0
68750,-13.5,-23.0625,-50.25,0
68760,-12.9375,-22.0625,-52.8125,0
68780,-10.125,-19.375,-54.4375,0
68800,-11.8125,-7.8125,-57.4375,0
68820,-17.125,9.8125,-64,0
68840,-25.0625,28.5,-65.75,0
68860,-28.25,45.625,-65.875,0
68880,-31.4375,61.75,-70.25,0
68900,-34.3125,78.75,-75.5625,0
68920,-33.0625,88.875,-84.75,0
68940,-27.4375,98.1875,-88.9375,0
68960,-22.5,108.312,-93.4375,0
68980,-16.125,122.312,-99.625,0
69000,-16.4375,132.688,-101.438,0
69020,-12.6875,142.938,-102.875,0
69040,-2.125,148.5,-99.1875,0
69060,5.8125,147.688,-96.375,0
69080,3.5625,152.312,-84.3125,0
69100,-2.5,156.125,-77.6875,0
69120,-7.25,157.812,-61.9375,0
69140,-2.25,147.062,-39.3125,0
69160,6.25,134.25,-14.375,0
69180,21.125,124.312,29.0625,0
69200,24.625,89.5,18.4375,0
69220,39.375,84.625,50.8125,0
69240,49.6875,73.125,40.375,0
69260,31,64.5625,42.5,0
69280,10.3125,52.9375,51.5,0
69300,-18.4375,36,65.125,0
69320,-25.5,25.3125,76.6875,0
69340,-29.25,10.0625,82.0625,0
69360,-31.3125,-7.5625,87.5625,0
69380,-38.5625,-22.0625,90.0625,0
69400,-49.75,-34.4375,89,0
69420,-56.25,-51.125,91,0
69440,-59.375,-66.875,91.0625,0
69460,-54.3125,-79.5,82.75,0
69480,-51.0625,-88.0625,72,0
69500,-52.75,-96.6875,67.4375,0
69520,-53.1875,-105.375,63.9375,0
69540,-53.0625,-114.375,56.6875,0
69560,-48.9375,-120.312,48.4375,0
69580,-43.5,-123.375,41.125,0
69600,-41.125,-125.438,34.8125,0
69620,-34,-123.062,26.25,0
69640,-22.5,-119.188,14.125,0
69660,-11.0625,-114.438,-1,0
69680,-4.5625,-104.188,-17.75,0
69700,2.8125,-85.75,-30.875,0
69720,11.9375,-63.8125,-34.9375,0
69740,25.9375,-41.25,-30.8125,0
69760,28.75,-21.4375,-28.375,0
69780,26.4375,5.4375,-33.875,0
69800,25.75,42.5,-39.75,0
69820,13.6875,64.25,-33.875,0
69840,-7.3125,62.0625,-14.3125,0
69860,-5.75,50.4375,11.1875,0
69880,-5.6875,43.875,22.5,0
69900,-14.5,47,25.375,0
69920,-30.75,46.9375,32.875,0
69940,-48.4375,34.8125,38.5625,0
69970,-45.4375,-0.0625,37.5625,0
70010,-2.5625,-29.625,15.0625,0
70030,12.4375,-31.875,8.25,0
70050,19.6875,-32.5625,6.375,0
70070,21.4375,-30.875,8.25,0
70090,16.8125,-26.5,11.75,0
70110,10.375,-21.3125,9.3125,0
70130,2.625,-19.6875,4.875,0
70150,-8.75,-18,3.3125,0
70170,-9.5,-14.5,5.3125,0
70190,-7.75,-11.6875,12,0
70210,-0.3125,-9.625,17.4375,0
70230,3.4375,-9.0625,17.8125,0
70250,2.875,-9.1875,14.625,0
70270,0.125,-6.875,9.5625,0
70290,-4.5625,-3.875,9.9375,0
70310,1.6875,-4.5,13.375,0
70330,8.8125,-6.75,16.75,0
70350,14.0625,-6.8125,15.875,0
70370,11.9375,-5.4375,11.625,0
70390,2.75,-2.125,7.8125,0
70410,6.4375,0.75,4.1875,0
70430,5.25,-1.625,3.5625,0
70450,8.375,-1.625,3.875,0
70470,10.125,0.625,2.125,0
70490,7.125,0.4375,0,0
70510,4.1875,-4.125,1.9375,0
70530,4.5625,-10.875,1.625,0
70550,2.3125,-18.1875,1.6875,0
70570,3.8125,-26.0625,0.0625,0
70590,5.4375,-33.5,-1.625,0
70610,4.6875,-37.8125,-2.8125,0
70630,9.1875,-42.5,-5.4375,0
70650,10.75,-46.3125,-9.1875,0
70670,7.3125,-46.8125,-10.6875,0
70690,0.1875,-44.5625,-10.5,0
70710,3.4375,-42.25,-9.0625,0
70730,5.4375,-42,-10.25,0
70750,6.6875,-38,-13.625,0
70770,6.875,-32.9375,-23.375,0
70790,3.5625,-27.375,-24.125,0
70810,1.125,-20.8125,-21.6875,0
70830,-7.75,-14.5,-16.5,0
70850,-8.8125,-10.9375,-14.375,0
70870,-8.9375,-4.375,-16.8125,0
70890,-11.9375,11.4375,-13,0
70930,-10.5,35.125,0,0
70950,-6.9375,35.375,5.375,0
70970,-0.5625,49.875,3.9375,0
70990,-1.375,56.9375,-4.1875,0
71010,-8.875,58.625,6.875,0
71030,-9.25,52.6875,12.0625,0
71050,-6.5,44.6875,9.3125,0
71060,-5.9375,37.3125,6.1875,0
71080,-3.625,29.875,6.3125,0
71100,3,17.0625,7,0
71120,7.5625,5.5625,10.9375,0
71140,9.0625,-1.75,14,0
71160,7.0625,-5.4375,14.4375,1000
71180,2.3125,-7.5,11,0
71200,0.625,-9.0625,10.625,0
71220,-1.25,-10.875,10.8125,0
71240,-1.5,-10.375,12.375,0
71260,-6.6875,-7.25,11.5,0
71280,-9.8125,-3.5625,9.4375,0
71300,-10.75,-1.875,10,0
71320,-4.1875,-0.8125,13.875,0
71340,-0.625,0.25,14.5625,0
71360,-1.4375,0.9375,10.25,0
71380,-2.3125,2.25,7.8125,0
71400,-2.3125,1.25,7.75,0
71420,2.75,-0.875,11.1875,0
71440,6.75,-2.125,9.6875,0
71460,8.625,-4.25,4.375,0
71480,10.375,-6.1875,2.0625,0
71500,9.5,-9.875,2.75,0
71520,6.6875,-14.125,4.5,0
71540,3.9375,-20.25,8.875,0
71560,5.75,-24.8125,9.8125,0
71580,8.875,-28.375,8.25,0
71600,9.6875,-29.75,5.875,0
71620,10.1875,-32.0625,5.25,0
71640,12.8125,-35.3125,3.8125,0
71660,14.0625,-35,-0.9375,0
71680,12.375,-36.5625,-7,0
71700,9.3125,-37.6875,-11.5,0
71720,6.25,-37.6875,-15.4375,0
71740,3.8125,-38.4375,-17.625,0
71760,5.25,-37.5625,-18.1875,0
71780,7.375,-37.75,-18.4375,0
71800,5.25,-34.5,-21.1875,0
71820,-0.6875,-29.875,-26.9375,0
71840,-3.0625,-24.375,-25.3125,0
71860,-2.75,-22.6875,-20.125,0
71880,0.4375,-20.25,-25.0625,0
71900,0.4375,-17,-28.125,0
71920,-0.5,-14.6875,-24.75,0
71940,1,-12.4375,-21.9375,0
71970,-3.8125,13.75,-19.9375,0
71990,0.3125,11.5625,-17,0
72010,-0.25,14.125,-22.1875,0
72030,-2.0625,16.375,-33.1875,0
72050,-4.9375,17.0625,-33.3125,0
72070,-4.5625,14.5625,-30.625,0
72090,-4.25,13.875,-32.3125,0
72110,-5.625,12.625,-37.875,0
72130,-3.6875,8.25,-38.5625,0
72150,-6,6.5625,-33.6875,0
72170,-11.8125,10.125,-32.1875,0
72190,-15.375,11.1875,-31.375,0
72210,-12.625,7.75,-29.625,0
72230,-8.6875,4.25,-25.9375,0
72250,-7.1875,4.9375,-24.3125,0
72270,-9.875,7,-26.5625,0
72290,-10.6875,5.75,-30.375,0
72310,-9.875,3.9375,-33.3125,0
72330,-9.375,4.75,-33.3125,0
72350,-10.0625,8.375,-31,0
72370,-12.8125,11.375,-23.3125,0
72390,-12.75,11.5625,-17.75,0
72410,-10.5,10.5,-13,0
72430,-6.625,6.4375,-10.375,0
72450,-4.8125,3.9375,-7.875,0
72470,-9.8125,7.6875,-7.75,0
72490,-14.25,11.4375,-10.75,0
72510,-12.5,9.75,-20.5,0
72530,-11.125,6.5,-24.4375,0
72550,-12.1875,9.5,-30.125,0
72570,-15.5,14.625,-35.25,0
72590,-20.1875,20.0625,-40.0625,0
72610,-24.5,27.625,-42.6875,0
72630,-29.375,37.625,-44.5,0
72650,-29.4375,46.3125,-44.375,0
72670,-25.6875,52,-43.5,0
72690,-22.625,58.1875,-42.8125,0
72710,-20.75,64.0625,-41.625,0
72730,-19.6875,68.625,-39.875,0
72750,-19.4375,72.3125,-39.5625,0
72770,-18.5625,76.0625,-39.875,0
72790,-15.0625,78.9375,-39.375,0
72810,-12.5625,79.75,-38.875,0
72830,-6.75,77.9375,-38.625,0
72850,-4.25,78.125,-34.3125,0
72870,-4.5625,82.5625,-32.1875,0
72880,-2.375,87.1875,-30,0
72900,4.0625,88.375,-26.6875,0
72920,10.125,86.375,-18.0625,0
72940,14.6875,85.625,-10,0
72960,15.75,84.4375,-1.125,0
72980,18.5,87.4375,10.125,0
73000,34.375,84.0625,19.1875,0
73020,39.6875,71.6875,28.5625,0
73040,34.25,57.75,29.3125,0
73060,19.25,48.3125,37.8125,0
73080,8.6875,40,51.5,0
73100,6.5,38.4375,49.8125,0
73120,-4.375,32.6875,58,0
73140,-9.125,17.75,64.6875,0
73160,-11.75,5.0625,73.4375,0
73180,-11.5,-1.1875,77,0
73200,-11.5,-7.6875,75.8125,0
73220,-10.5,-18.5,76.625,0
73240,-18.6875,-31.6875,81.1875,0
73260,-26.1875,-45.875,84.4375,0
73280,-28.6875,-56.375,81.1875,0
73300,-31.8125,-66.1875,78.5625,0
73320,-35.625,-77.8125,76.25,0
73340,-39.25,-88.875,71,0
73360,-41.25,-98.75,62.5,0
73380,-42.8125,-107,56.75,0
73400,-42.9375,-114.188,49.5,0
73420,-36.5,-117.375,39.4375,0
73440,-27.4375,-118.438,26.8125,0
73460,-21.875,-123.125,13.75,0
73480,-20.875,-125,3.5625,0
73500,-16.1875,-121.875,-5.8125,0
73520,-3.4375,-116.438,-17.625,0
73540,0.6875,-110.688,-27.875,0
73560,5.625,-107.25,-35.8125,0
73580,9.9375,-97.625,-39.8125,0
73600,15.875,-85.4375,-49.5,0
73620,15.375,-73.3125,-63.4375,0
73640,10.0625,-66.6875,-71.625,0
73660,5.1875,-54.0625,-77.625,0
73680,9.5,-36.25,-83,0
73700,1.5,-17.9375,-87.375,0
73720,-11.0625,-7.1875,-99.1875,0
73740,-17.875,-6.0625,-110.312,0
73760,-19.4375,-3.625,-119,0
73780,-29,9.3125,-123.75,0
73800,-39.3125,26.875,-124.938,0
73820,-47.3125,39.4375,-122.5,0
73840,-42.3125,48.625,-117.5,0
73860,-43.3125,58.375,-110.188,0
73880,-44.5625,74.1875,-105.562,0
73900,-37.9375,90.125,-102.375,0
73920,-34.5,98,-92.5,0
73940,-31.9375,101.312,-79.625,0
73960,-29.8125,106.5,-67.6875,0
73980,-25.25,118.438,-54,0
74000,-24.1875,130.062,-37.9375,0
74020,-28.125,131.5,-16.3125,0
74040,-10.5625,120.438,5.4375,0
74060,15.4375,106.188,23.3125,0
74080,33.8125,94.9375,36.9375,0
74100,34.75,91,52.125,0
74120,38.3125,85.0625,60.625,0
74140,24.75,78.375,70.375,0
74160,-5.5,67.125,77.9375,0
74180,-27.4375,54.8125,88.9375,0
74200,-41.875,34.6875,98.9375,0
74220,-39.6875,14.25,107.688,0
74240,-33.4375,-5.1875,105.062,0
74260,-42.5,-19.5625,102.625,0
74280,-56.0625,-34.1875,103.562,0
74300,-66,-52.3125,107.438,0
74320,-73.125,-66.4375,102.625,0
74340,-75.9375,-79.75,92.125,0
74360,-77.9375,-91.5,84.375,0
74380,-72,-100.5,78.25,0
74400,-61.6875,-111.562,67.9375,0
74420,-50.875,-119.125,52.125,0
74440,-43.75,-122.75,36.375,0
74460,-36.5625,-129.438,17.3125,0
74480,-27.125,-135.5,-0.8125,0
74500,-15.5,-135.562,-18.1875,0
74520,-3,-132.25,-33.9375,0
74540,7.375,-128.062,-50.25,0
74560,23.125,-125.312,-66.3125,0
74580,22.875,-120.25,-80.6875,0
74600,20.1875,-111.438,-89.625,0
74620,19.1875,-97.375,-96.6875,0
74640,19,-84.3125,-112.688,0
74660,14.8125,-74.875,-121.562,0
74680,5.875,-59.875,-126.688,0
74700,-7.375,-42.5,-128.438,0
74720,-11.1875,-21.1875,-131,0
74740,-15.5,-8.9375,-137.875,0
74760,-18.875,1.0625,-140.625,0
74780,-26.5,13.5625,-138.5,0
74800,-39.5,29.625,-136.125,0
74820,-43.875,45.25,-126.438,0
74840,-49.0625,58.625,-112.438,0
74860,-45.625,70.25,-99.6875,0
74880,-41.0625,77.9375,-88.5,0
74900,-31.8125,85.75,-75.125,0
74920,-22.375,93.5625,-59.25,0
74940,-8.75,102.562,-40.6875,0
74960,-1.125,107.062,-22.875,0
74980,3.6875,108.438,3.3125,0
75000,14.875,114.938,20.8125,0
75020,19.25,120.062,34.75,0
75040,21.3125,122.812,46.5,0
75060,8.9375,122.5,55.125,0
75080,2.4375,122.562,65.3125,0
75100,2.3125,114.25,76.1875,0
75120,-1.625,105.625,82.625,0
75140,-27.3125,105.5,86.8125,0
75160,-62.4375,95.3125,94.4375,0
75180,-82.5,72.5625,103.438,0
75200,-77.1875,44.125,105.125,0
75220,-65.25,21.25,104.312,0
75240,-62.75,9.0625,100.438,0
75260,-81.0625,-3.5625,99,0
75280,-109.812,-22.1875,99.8125,0
75300,-126.375,-47.1875,96.4375,0
75320,-128.625,-70.8125,86.125,0
75340,-119,-88.375,72.4375,0
75360,-97.625,-105.438,57.75,0
75380,-74.9375,-118.188,41.625,0
75400,-54.8125,-125.562,26.5625,0
75420,-45.5625,-137.875,19.4375,0
75440,-34.5625,-142.688,13.0625,0
75460,-27.4375,-139.375,-1.4375,0
75480,-19.25,-136.625,-15.5,0
75500,-12.3125,-140,-20,0
75520,-6.375,-141.812,-23.5,0
75540,4.875,-133.25,-37.625,0
75560,10.875,-121.938,-53.75,0
75580,8.4375,-113.688,-59.875,0
75600,12.625,-97.5,-64.75,0
75620,14.0625,-83.875,-74.0625,0
75640,18.8125,-70.8125,-78.6875,0
75660,24.875,-61.4375,-78.4375,0
75680,20.0625,-50.3125,-86.0625,0
75700,17.75,-36.9375,-85.5625,0
75720,19.375,-19.9375,-82.6875,0
75740,26.6875,-5.75,-79.1875,0
75760,20.5625,3.75,-73.4375,0
75780,14.0625,7.25,-66.1875,0
75800,16.75,11.875,-54.5625,1001
75820,14.375,17,-47.625,0
75840,7.1875,23.9375,-34.875,0
75860,1.5,26.875,-21.625,0
75880,-2.25,24.9375,-15.125,0
75900,-1.6875,18.9375,-9.375,0
75920,2.5,10.8125,-2.375,0
75940,0.625,8.25,4.8125,0
75960,-7.4375,8.5625,9.25,0
75980,-15.4375,5.4375,12,0
76000,-14.5,1.1875,14.1875,0
76020,-8.4375,-4,17.1875,0
76040,-5.75,-8.0625,18.4375,0
76060,8.4375,-10.125,15.6875,0
76080,7.3125,-12.9375,8.4375,0
76100,8.25,-11.125,3.5625,0
76120,5.6875,-3.75,3,0
76140,3.625,12.75,-3.1875,0
76160,-2.125,17.8125,-10.625,0
76180,-6.1875,15,-5.1875,0
76200,-3.25,17.6875,7.3125,0
76220,-0.4375,25.875,15.125,0
76240,-6.125,33.0625,19.0625,0
76260,-12.75,38.4375,24.3125,0
76280,-13.375,43.1875,35.25,0
76300,-9.75,47.1875,46.1875,0
76320,-2,51.25,55.5625,0
76340,-3.75,53.125,70.5,0
76350,-9.875,58.6875,87.8125,0
76370,-8.125,74.8125,92.1875,0
76390,9.75,79.1875,96.6875,0
76410,9.5,75.75,102.438,0
76430,2.125,79.4375,98,0
76450,3.0625,85.5,95.1875,0
76470,3.75,84.3125,99.4375,0
76490,13.8125,77.125,106.938,0
76510,17,77,105.25,0
76530,20.4375,77.25,100,0
76550,17.6875,70.1875,93.875,0
76570,9.5625,55.3125,89.375,0
76590,7.9375,40.4375,81.75,0
76610,10.9375,25.5,78.375,0
76630,13.0625,12.1875,70.625,0
76650,12.4375,-0.6875,55.8125,0
76670,8.5,-7.5,42.625,0
76690,7.5625,-12.5625,33,0
76710,10.125,-19.6875,25.125,0
76730,9.0625,-24.1875,17.75,0
76750,7.3125,-21.125,12,0
76770,7.4375,-16.875,7.8125,1000
76790,10.3125,-17.4375,8.25,0
76810,5.5,-16.625,10.375,0
76830,-2.5625,-13.875,11.4375,0
76850,-4.625,-11,12.125,0
76870,-4,-8.8125,12.75,0
76890,-3.6875,-9.625,15.9375,0
76910,-6.625,-10.8125,16.75,0
76930,-6.875,-8.9375,13.25,0
76950,-4.3125,-7.5,10.5,0
76970,-0.4375,-8.1875,13.125,0
76990,-0.0625,-8.4375,13.25,0
77010,2.5625,-6.4375,8.75,0
77030,2.25,-4.6875,6.375,0
77050,3.0625,-4,8.375,0
77070,3.25,-5.25,12.375,0
77090,5.25,-4.25,11.5625,0
77110,9.125,-3.375,7.1875,0
77130,12.0625,-5,4.6875,0
77150,8.125,-6.3125,6.4375,0
77170,5.0625,-5.5,6.9375,0
77190,4.5,-4.0625,3.6875,0
77210,1.5,-4.0625,2.3125,0
77230,-0.625,-5.25,4.3125,0
77250,3.625,-6.125,5.1875,0
77270,7.0625,-5.75,3.8125,0
77290,6.4375,-5.125,3.125,0
77310,6.3125,-7.125,4.5,0
77330,2.5625,-10.5,6.625,0
77350,2.625,-13.4375,6.5625,0
77370,1.4375,-15.4375,5.8125,0
77390,3.75,-17.375,4.0625,0
77410,6.25,-20.3125,3.1875,0
77430,6.75,-21.75,4.0625,0
77450,6,-25.4375,1,0
77470,3.5,-28.3125,-6.3125,0
77490,1.25,-30.4375,-14.125,0
77510,1.0625,-32.125,-16.625,0
77530,4.1875,-32.5,-16.9375,0
77550,6.125,-30.5625,-25.4375,0
77570,5.3125,-30.25,-35.1875,0
77590,3.8125,-30.5,-35.6875,0
77610,8.875,-33.4375,-32,0
77630,10.75,-31.3125,-31.1875,0
77650,8.0625,-23.4375,-34.9375,0
77670,3.0625,-18.375,-34.5625,0
77690,2.4375,-18.5625,-33.5625,0
77710,-2.875,-15.5625,-36.6875,0
77730,-7.4375,-8.125,-40.625,0
77750,-7.25,-1.5,-39.5,0
77770,-3.75,-1.125,-33,0
77790,-8.3125,1.5625,-37.9375,0
77810,-13.125,5.9375,-48.0625,0
77830,-13.4375,6.375,-51.375,0
77850,-10.5625,6.875,-47.75,0
77870,-13.0625,14.0625,-49.9375,0
77890,-18.8125,21.3125,-59.75,0
77910,-21,27.9375,-64.8125,0
77930,-24.0625,34.0625,-61.125,0
77950,-22.6875,42.375,-57.5625,0
77970,-21.125,52.1875,-65.4375,0
77990,-28.1875,66.5625,-67.1875,0
78010,-29.75,73.875,-69.875,0
78030,-29.1875,78.8125,-70.5,0
78050,-25.8125,83.75,-69.25,0
78070,-23.875,90.75,-68.5625,0
78090,-20.3125,97.6875,-67.125,0
78110,-13.625,104.562,-64.9375,0
78130,-8.1875,110.562,-63.75,0
78150,-11.75,117.062,-63.25,0
78170,-17.375,124.938,-58.5,0
78190,-17.375,127,-50.1875,0
78210,-16.0625,124.375,-43.9375,0
78230,-11.875,123.75,-42.25,0
78250,-4.6875,121.125,-31.0625,0
78270,3.9375,110.062,-11.9375,0
78290,15.5,101.375,15.6875,0
78310,17.4375,83.8125,11.4375,0
78330,17.0625,83.5,16.875,0
78340,7.3125,77.25,42.75,0
78360,18.5625,57.375,33.9375,0
78380,5.75,45.6875,41.1875,0
78400,-2.125,34.3125,48.1875,0
78420,-1.5625,22.5625,55.8125,0
78440,4.625,10.75,58.25,0
78460,3.1875,1.125,60.375,0
78480,-6.9375,-5.25,64.4375,0
78500,-23.9375,-15.0625,74.875,0
78520,-32.6875,-27.9375,82.875,0
78540,-24.5,-41.6875,81.0625,0
78560,-16,-49.3125,74.375,0
78580,-21.1875,-56.5,70.125,0
78600,-31.75,-64.8125,71.125,0
78620,-41.125,-76,70.8125,0
78640,-45.5,-85.5625,67.5,0
78660,-40.5625,-93.1875,64.9375,0
78680,-40.1875,-98.9375,63.1875,0
78700,-41.0625,-103.188,60.0625,0
78720,-47,-108.25,53.0625,0
78740,-43.5,-113.75,47.25,0
78760,-42.625,-118.375,41.25,0
78780,-43.3125,-122.938,33.4375,0
78800,-36.1875,-128.062,22.875,0
78820,-29.75,-129.438,9.8125,0
78840,-23.75,-127.812,-4.3125,0
78860,-9.5625,-120.688,-19.0625,0
78880,0.75,-112.875,-39,0
78900,23.3125,-107.438,-61.6875,0
78920,32.125,-101.375,-77.8125,0
78940,41.9375,-89.5625,-84.9375,0
78960,41.0625,-77.4375,-98.625,0
78980,36.6875,-64.6875,-117.125,0
79000,32.25,-59.8125,-128.375,0
79020,20.25,-51,-134.5,0
79040,-3.3125,-38.6875,-141.375,0
79060,-21.875,-22.0625,-153.875,0
79080,-40.375,-0.8125,-166.688,0
79100,-64.125,20.5,-168.188,0
79120,-74.75,37.8125,-160.188,0
79140,-81.0625,51.875,-145.812,0
79160,-80,69,-128.875,0
79180,-76.75,86.5,-116.125,0
79200,-65,105.188,-103.688,0
79220,-53.625,117.375,-89.0625,0
79240,-43.8125,123.312,-74.0625,0
79260,-35.4375,134.75,-64.9375,0
79280,-27.1875,138.812,-53.3125,0
79300,-20.9375,137.312,-39,0
79320,-17.25,145.312,-13.125,0
79340,-13.0625,134.75,16.75,0
79360,8.9375,121.125,47.875,0
79380,42.0625,117.938,48.1875,0
79400,67.375,108,70.625,0
79420,57.4375,95.5,88.125,0
79440,47.6875,78.1875,89.75,0
79460,-1.4375,54.5,103.25,0
79480,-34.875,36.9375,112.875,0
79500,-38.375,23.625,115.438,0
79520,-32.8125,12.6875,112.938,0
79540,-41.0625,-3.9375,118.062,0
79560,-53.3125,-25.1875,119.625,0
79580,-59.6875,-43.75,117.375,0
79600,-68.625,-55.3125,116,0
79620,-72.6875,-64.9375,115.438,0
79640,-79.5625,-80.0625,112.75,0
79660,-82.4375,-93.1875,104.062,0
79680,-86.25,-107.312,93,0
79700,-88.8125,-120.875,83.125,0
79720,-87.75,-136.688,72.875,0
79740,-81,-149.062,61.9375,0
79760,-67.125,-158.125,46.5625,0
79780,-46,-164.438,28.3125,0
79800,-25.8125,-167.5,7.5625,0
79820,-1.0625,-160.75,-14.625,0
79840,14.625,-151.688,-39.6875,0
79860,30.5,-141.625,-60.625,0
79880,30.125,-125.312,-80.6875,0
79900,38.5625,-105.625,-98.75,0
79920,34.8125,-97.25,-122.5,0
79940,31.5,-81.25,-140.438,0
79960,30.375,-68.5,-157.438,0
79980,11.5625,-56.6875,-165,0
80000,-13.4375,-38.1875,-159.812,0
80020,-26.3125,-17.0625,-162.25,0
80040,-38.0625,-4.875,-164.75,0
80060,-52.375,9.5625,-169,0
80080,-58.0625,30.6875,-170,0
80100,-70.6875,58.5,-155.062,0
80120,-76,83.875,-140.25,0
80140,-64.75,98.3125,-126.938,0
80160,-54.1875,106,-111.812,0
80180,-46.875,112.188,-92.875,0
80200,-36.6875,120.5,-70.125,0
80220,-25,126.625,-41.5625,0
80240,-12.6875,129,-12.6875,0
80260,-0.625,132.125,16.625,0
80280,6.5,127.125,40.875,0
80300,20.5625,122.688,60.25,0
80320,24.8125,121.062,66.5,0
80340,22.4375,131.625,72.875,0
80360,-2.4375,149.188,88.5625,0
80380,-28.1875,154,111.062,0
80400,-60.25,147.062,133.812,0
80420,-75.75,129.188,145.875,0
80440,-80.75,104.438,142.75,0
80460,-95.5625,73.75,139.625,0
80480,-114.312,41.0625,139.438,0
80500,-139.812,1.125,130.625,0
80520,-156.25,-37.625,120.875,0
80540,-155.312,-73.4375,107.438,0
80560,-140.125,-103.625,86.1875,0
80580,-98.625,-123.125,61.75,0
80600,-69.875,-150.688,46.75,0
80620,-49.8125,-167.938,41.4375,0
80640,-39.5625,-172.438,24.6875,0
80660,-33.875,-175.5,2,0
80680,-23.875,-178.938,-13.125,0
80700,-6.4375,-176.625,-21.0625,0
80720,7.625,-173.375,-35.625,0
80740,14.125,-163.875,-55.1875,0
80760,19.0625,-150.75,-75.125,0
80780,20.9375,-141.938,-89,0
80800,25.1875,-131.562,-94.8125,0
80820,29.8125,-117.625,-102.938,0
80840,23.9375,-109.562,-115.875,0
80860,9.9375,-99.9375,-119.25,0
80880,2.5,-85.9375,-112.5,0
80900,6.5625,-68.75,-105.438,0
80920,2.0625,-53.75,-101.875,0
80940,-0.8125,-43.1875,-99.3125,0
80960,0.75,-28.3125,-92.375,0
80980,-3.75,-8.75,-78.625,0
81000,-10.125,10.125,-55.4375,0
81020,-13,22.625,-34.5,0
81040,-9.875,32.8125,-23.125,0
81060,-7.125,36.125,-19,0
81080,-10.9375,42.4375,-5.1875,0
81100,-13.75,47.6875,12.875,0
81120,-3.5625,42,24.6875,0
81140,1.875,30.25,31.6875,0
81160,-0.75,24.9375,35.125,0
81180,-9.6875,20.9375,34.8125,0
81200,-13.8125,19.3125,32,0
81220,-15.25,13.4375,27.0625,0
81240,-10.5,2.5,18,1001
81260,2,-9.0625,11.8125,0
81280,9.25,-9.875,10.375,0
81300,2.3125,-7.9375,3.8125,0
81320,-9.5625,-9.75,-0.75,0
81340,-10.3125,-12.0625,-1.3125,0
81360,-5.1875,-14.5,0.75,0
81380,0.875,-13.9375,6.3125,0
81400,1.9375,-9.625,10,0
81420,-3.1875,-3.375,10.8125,0
81440,-5.0625,3.5,11.8125,0
81460,2.875,6.1875,12.875,0
81480,6.0625,4.25,14.75,0
81500,8.5625,-0.625,13.9375,0
81520,11,-0.6875,8.4375,0
81540,10.375,-0.5,-0.6875,0
81560,4.3125,4.3125,-11,0
81580,-5.4375,5.875,-18.1875,0
81600,-6.75,3.3125,-15.625,0
81620,-0.875,3.4375,-7.25,0
81640,7.25,5.9375,-5.375,0
81660,7.1875,7.25,-7.125,0
81680,0.25,10,-4.3125,0
81700,-4.875,16.9375,6.5625,0
81720,-11,27.3125,20.25,0
81740,-7.125,36.125,28.125,0
81760,10.375,35.1875,32.375,0
81780,11.9375,35.6875,46,0
81800,7.375,47.3125,64.0625,0
81810,6.125,57.4375,70.125,0
81830,21.1875,63.5,68.4375,0
81850,33.5625,64.0625,75.3125,0
81870,30.375,69.0625,90.25,0
81890,25.75,77.875,99.6875,0
81910,28.625,78.5625,94.875,0
81930,24.75,76.375,91.0625,0
81950,23,77.625,92.1875,0
81970,20.4375,83.375,85.375,0
81990,9.125,82.8125,79.8125,0
82010,-1.1875,74.1875,84.75,0
82030,-13.4375,65.6875,85.125,0
82050,-9.875,54.4375,73.25,0
82070,-8.1875,47.1875,53.875,0
82090,-3.4375,34.8125,40.9375,0
82110,6.3125,20.4375,40.375,0
82130,15.1875,9.6875,43.4375,0
82150,9.8125,1.25,35.375,0
82170,7.3125,-3.5,22.375,0
82190,8.75,-6.6875,20.3125,0
82210,8.875,-9.4375,25.375,0
82230,4.1875,-12,26.9375,0
82250,-5.5,-13.3125,24.8125,0
82270,-11.125,-11.3125,23.25,0
82290,-13.125,-7.5,24.75,0
82310,-8.25,-8.0625,24.8125,0
82330,-9.8125,-10.375,24.375,0
82350,-10,-9.0625,24.4375,0
82370,-12.5,-6.25,22.8125,0
82390,-13.4375,-3.9375,22,0
82410,-10.5,-3.125,19.6875,0
82430,-5.0625,-5,18.9375,1000
82450,-3,-7.3125,16.6875,0
82470,-0.5625,-8.5625,15.0625,0
82490,8.4375,-12.4375,13.25,0
82510,11.125,-18.875,9.1875,0
82530,6.9375,-22.875,1.375,0
82550,0.625,-29.8125,1.5,0
82570,-2.375,-39.125,5,0
82590,2.75,-47.3125,7.875,0
82610,10.5625,-52.4375,7.0625,0
82630,14.75,-56.5,3.5,0
82650,10.1875,-59.5,-0.8125,0
82670,5.3125,-60.375,1.6875,0
82700,-1.5625,-55.1875,-7.375,0
82720,-6.8125,-53.625,-22.0625,0
82740,-10.625,-50.875,-34.4375,0
82760,-9,-42.625,-38.6875,0
82780,-7.25,-29.0625,-38.6875,0
82800,-11.25,-11.25,-51.9375,0
82820,-15.25,3.375,-66.6875,0
82840,-17.625,11.375,-63.5,0
82860,-8.25,26.9375,-56,0
82880,-11.75,50.0625,-62.5625,0
82900,-23,69.625,-75.5,0
82920,-27.375,76.4375,-78.5625,0
82940,-26.6875,77.25,-81.375,0
82960,-28.5625,87.4375,-84.125,0
82980,-33.875,102.062,-89.3125,0
83000,-32.25,111.188,-98.8125,0
83020,-24,115,-103.438,0
83040,-17.75,120.625,-104.5,0
83060,-14.3125,125.562,-104.938,0
83080,-13.25,129.625,-102.625,0
83100,-12.1875,134.75,-99,0
83120,-5.625,135.938,-93.875,0
83140,2.75,145.75,-79.0625,0
83160,5.6875,154.812,-68.6875,0
83180,5.9375,150.625,-58,0
83200,8.9375,144,-46.9375,0
83220,18.75,133,-30,0
83240,29.9375,132.938,7.5625,0
83260,27.5,105.438,7.375,0
83280,56.6875,100.062,55,0
83300,49.75,76.5,42.6875,0
83320,49.5,58.6875,47.5625,0
83340,32.875,47.75,62.1875,0
83360,9.6875,32.0625,75.25,0
83380,-14.4375,15.0625,87.0625,0
83400,-26.75,3,101.125,0
83420,-43.375,-8.4375,114.312,0
83440,-53.75,-23.125,124.812,0
83460,-57.5,-42.5,127.562,0
83480,-58.75,-60.5,120.75,0
83500,-65.3125,-76.875,111.562,0
83520,-76.75,-92.75,101.812,0
83540,-92.4375,-111.062,92.9375,0
83560,-103.625,-131.688,81.125,0
83580,-98,-147.188,65.0625,0
83600,-80.3125,-161.188,51.4375,0
83620,-62.125,-175.812,38.9375,0
