Timestamp, Rotation x, Rotation y, Rotation z, Marker
30,-0.8125,0.8125,-0.375,0
50,-0.8125,0.625,-0.625,0
70,-0.0625,0.375,-0.875,0
90,0.4375,-0.1875,-0.8125,0
110,-0.8125,0,-0.3125,0
120,-0.3125,-0.1875,0.375,0
120,0.125,-0.25,0.5625,0
160,0,-0.1875,0.125,0
180,0,-0.0625,-0.0625,0
200,0.1875,-0.125,0.1875,0
220,-0.25,0.1875,0.1875,0
240,-0.5,0.25,0.1875,0
260,-0.25,0.1875,0.25,0
280,0.5625,0.0625,0.375,0
300,0.9375,-0.1875,0.4375,0
320,1,-0.375,0.3125,0
340,0.9375,-0.3125,0.0625,0
360,0.375,-0.125,-0.0625,0
380,-0.125,-0.0625,0.375,0
400,-1.5,1,0.0625,0
420,-1.9375,0.8125,-0.125,0
440,-1.9375,0.375,-0.0625,0
460,-1.5,0.25,0.375,0
480,-0.75,0.25,0.25,0
500,0.5625,-0.5,1.0625,0
520,0.5,-0.5,-0.3125,0
540,0.375,0.1875,-0.3125,0
560,0.5,0.3125,-0.4375,0
580,0,0.3125,-0.4375,0
600,0.1875,0.375,-0.625,0
620,0.8125,-0.0625,-0.8125,0
640,1,-0.0625,-0.5,0
660,0.75,0.1875,-0.5,0
680,0.6875,-0.0625,-0.8125,0
700,0.8125,-0.1875,-0.8125,0
720,0.9375,-0.125,-0.625,0
740,0.8125,0,-0.6875,0
760,0.75,-0.1875,-0.6875,0
780,0.5625,-0.1875,-0.5625,0
800,0.625,-0.0625,-0.4375,0
820,0.625,-0.0625,-0.375,0
840,0.5625,0.0625,-0.4375,0
860,0.5625,0,-0.4375,0
880,0.375,0.0625,-0.4375,0
900,0.25,0.1875,-0.1875,0
920,-0.0625,0.25,-0.0625,0
940,-0.25,0.3125,-0.1875,0
960,-0.375,0.25,-0.25,0
980,-0.4375,0.1875,-0.125,0
1000,-0.625,0.3125,-0.125,0
1020,-1.1875,0.3125,0.125,0
1040,-1.3125,0.4375,0.1875,0
1060,-1.375,0.25,0.1875,0
1080,-0.9375,0.25,0.25,0
1100,-1.125,0.1875,0.25,0
1120,-1.0625,0.25,0,0
1140,-0.4375,0.125,0.0625,0
1160,0.25,0.0625,-0.125,0
1180,0.5625,0,-0.1875,0
1200,0.625,0,-0.375,0
1220,0.5625,0,-0.5625,0
1240,-0.0625,0.1875,-0.375,0
1260,-0.3125,0.75,-0.1875,0
1280,-0.6875,0.375,-0.3125,0
1300,-0.8125,0,0.0625,0
1320,-0.625,-0.0625,0.375,0
1340,-0.5625,0,-0.0625,0
1360,-0.0625,-0.1875,-0.3125,0
1380,0.0625,-0.25,-0.3125,0
1400,0.125,-0.25,-0.125,0
1420,-0.1875,0.125,-0.0625,0
1440,-0.4375,0.3125,-0.125,0
1460,-0.375,0.25,-0.3125,0
1480,-0.0625,-0.0625,-0.1875,0
1500,-0.125,0.125,0.1875,0
1520,-0.4375,0.3125,-0.0625,0
1540,-0.5,0.1875,-0.5,0
1560,-0.5625,0.1875,-0.4375,0
1580,-0.125,0.25,-0.25,0
1600,-0.3125,0.0625,-0.4375,0
1620,0.375,-0.0625,-0.625,0
1640,1.0625,-0.0625,-0.6875,0
1660,1.25,-0.0625,-0.5,0
1680,1.9375,-0.3125,-0.5,0
1700,2.625,-0.6875,-0.5,0
1720,2,-0.625,0.0625,0
1740,-0.6875,0,0.8125,0
1760,-4.1875,0.875,1.5,0
1780,-5.6875,1.3125,1.5625,0
1800,-4.875,1.1875,1.5625,0
1820,-2.4375,1.0625,2.625,0
1840,1.125,-1,2.75,0
1860,-1.125,-0.625,1.375,0
1880,-2.875,0.25,0.875,0
1900,-2.3125,0.3125,1.3125,0
1920,-2.0625,0.6875,1.125,0
1940,-1.8125,0.875,0.5625,0
1960,-0.25,0.5,-0.0625,0
1980,1.3125,0.3125,-0.5625,0
2000,2,0.25,-0.6875,0
2020,1.625,0.5625,-0.625,0
2040,0.875,0.625,-1.125,0
2060,0.5625,0.8125,-1.25,0
2080,0.4375,1.0625,-0.9375,0
2100,1.0625,0.5625,-1.1875,0
2120,1,-0.1875,-0.875,0
2140,0.625,-0.3125,0,0
2160,0.0625,-0.1875,0.25,0
2180,-0.3125,-0.25,0.125,0
2200,0.3125,-0.25,-0.125,0
2220,0.4375,-0.3125,-0.375,0
2240,0.375,0.0625,-0.5625,0
2260,-0.1875,0.3125,-0.5625,0
2280,-0.375,0.5625,-0.3125,0
2300,0.0625,0.1875,-0.4375,0
2320,0.5625,-0.0625,-0.3125,0
2340,0.8125,0.0625,-0.4375,0
2360,0.8125,0.125,-0.875,0
2380,0.25,-0.0625,-1.0625,0
2400,-0.3125,0.0625,-0.5625,0
2420,-1,0.1875,-0.375,0
2440,-2.4375,0.375,-0.125,0
2460,-4.25,0.625,0.1875,0
2480,-4.6875,0.75,0.625,0
2500,-4.625,0.625,1.0625,0
2510,-1.375,0.25,2.875,0
2530,-2.875,0.75,2.5625,0
2550,-3.5625,1.25,3.0625,0
2570,-3.1875,1.75,3.25,0
2590,-1,1.625,3.1875,0
2610,-0.875,1.6875,2.75,0
2630,-1.875,1.875,2.9375,0
2650,-2.375,2.625,3.875,0
2670,-1.5625,2.1875,4.6875,0
2690,-1.5,2.75,5.0625,0
2710,-2.9375,2.6875,5.0625,0
2730,-3.8125,2.75,5.9375,0
2750,-4.375,3.1875,6.4375,0
2770,-4.25,2.5625,6.5,0
2790,-4.375,2.625,4.875,0
2810,-3.375,1.25,3.1875,0
2830,-2.0625,0.5,2.25,0
2850,-2.0625,0.5625,1.5625,0
2870,-2.75,1.5625,1.625,0
2890,-2.625,2.25,1.375,0
2910,-2.0625,1.75,0.625,0
2930,-1.9375,1.5625,0.9375,0
2950,-2.1875,1.8125,1.1875,0
2970,-1.6875,0.9375,0.9375,0
2990,-1,0.4375,1.75,0
3010,-1,0.25,1.25,0
3030,-1.5625,0.0625,1.375,0
3050,-2,-0.1875,2.1875,0
3070,-2.625,-0.5,2.6875,0
3090,-2,-0.75,2.4375,0
3110,-1,-0.8125,2.625,0
3130,-1.0625,-0.1875,2.3125,0
3150,-1,-0.25,2.0625,0
3170,-1.5,-0.25,1.5625,0
3190,-1,-0.6875,1.5,0
3210,0.0625,-0.6875,1.125,0
3230,1.125,-0.4375,0.0625,0
3250,1.8125,-0.3125,-0.9375,0
3270,2.25,0.25,-1.625,0
3290,2.25,0.6875,-2,0
3310,3,0.8125,-2.1875,0
3330,3.8125,0.6875,-1.875,0
3350,3.5625,0.3125,-1.625,0
3370,2.75,0.25,-0.5,0
3390,1,0.375,0.1875,0
3410,-0.625,0.5,0.375,0
3430,-1.375,0.3125,0.9375,0
3450,-1.625,0.3125,1.125,0
3470,-1.75,-0.125,0.9375,0
3490,-1.5,-0.125,0.8125,0
3510,-1.5,-0.0625,1.0625,0
3530,-2.0625,-0.0625,1.5625,0
3550,-2,-0.0625,1.375,0
3570,-1.625,0,1.3125,0
3590,-1.75,-0.0625,1.375,0
3610,-1.5,0.1875,1.125,0
3630,-1.375,0,1.125,0
3650,-1.625,0.625,0.6875,0
3670,-1.4375,0.8125,1.125,0
3690,-0.8125,0.5,0.9375,0
3710,-0.9375,0.25,0.375,0
3730,-0.3125,-0.0625,0.0625,0
3750,1.0625,-0.1875,-0.5,0
3770,1.8125,-0.5,-0.9375,0
3790,2.5,-0.5,-1.25,0
3810,2.8125,-0.3125,-1.5,0
3830,3.125,-0.1875,-1.75,0
3850,3.3125,-0.4375,-1.6875,0
3870,4.0625,-0.5625,-2,0
3890,5.0625,-1,-2.25,0
3910,5.375,-1.1875,-2.5,0
3930,5,-1,-2.3125,0
3950,4.5625,-1.1875,-2.1875,0
3970,3.5625,-1.25,-1.9375,0
3990,2.6875,-0.875,-1.375,0
4010,2.0625,-0.625,-1.125,0
4030,3,-1,-1.5,0
4050,4.3125,-1.3125,-2.4375,0
4070,6,-1.5,-3.25,0
4090,9.3125,-3.1875,-3.75,0
4110,10.1875,-5.3125,-4.5,0
4130,11,-5.875,-3.75,0
4150,12.375,-7.0625,-4.1875,0
4170,13.1875,-8.625,-5.3125,0
4190,15,-9.875,-6.5,0
4210,19,-10.6875,-8.125,0
4230,21.875,-11,-10,0
4250,24.0625,-10.6875,-10.125,0
4270,25.5625,-11.0625,-10.0625,0
4290,26.0625,-10.375,-10,0
4310,26.125,-10.5,-8.5625,0
4330,26.375,-11.25,-6.75,0
4350,25.125,-11.4375,-4.375,0
4370,22.125,-10.5625,-1.6875,0
4390,17.375,-9.4375,0.8125,0
4410,10.0625,-8.0625,3,0
4430,1.4375,-6.0625,5.1875,0
4450,-6,-3.8125,6.9375,0
4470,-13.3125,-1.625,7.8125,0
4490,-17.1875,-0.25,7.625,0
4500,-17.5625,0.5625,6.5625,0
4520,-15.25,1.125,4.6875,0
4540,-11.5625,1.375,2.9375,0
4560,-5.0625,1.1875,0,0
4580,-0.625,1.5625,-3.125,0
4600,0.375,2.6875,-4.9375,0
4620,1.625,3.3125,-6.0625,0
4640,4.3125,2.5625,-7,0
4660,7,1,-7,0
4680,8.4375,0,-6.3125,0
4700,9.125,-1.25,-5.6875,0
4720,8.3125,-2.1875,-5.3125,0
4740,7.1875,-2.6875,-4.8125,0
4760,5,-1.75,-4.1875,0
4780,0.9375,0.1875,-2.9375,0
4800,-3.5625,2.125,-1.75,0
4820,-8.25,3.5,-0.5,0
4840,-11.5,4.4375,1,0
4860,-13.25,5.5,1.9375,0
4880,-14.875,6.4375,2.5625,0
4900,-15.8125,6.1875,2.375,0
4920,-16.4375,5.9375,2.1875,0
4940,-16.1875,6,1.8125,0
4960,-14.125,5.6875,1.5625,0
4980,-12,5.125,0.75,0
5000,-10.125,5.0625,-0.0625,0
5020,-8.5,5.3125,-1.125,0
5040,-7.5625,5.125,-1.5625,0
5060,-6.8125,4.9375,-1.4375,0
5080,-6.125,4.625,-1.1875,0
5100,-6.5625,4.4375,-0.625,0
5120,-6,4,-0.4375,0
5140,-4.75,3,-0.5,0
5160,-3.3125,2.0625,-1.0625,0
5180,-1.5,1.8125,-1.625,0
5200,-0.75,1.75,-1.625,0
5220,-0.875,1.3125,-1.5625,0
5240,-0.9375,1.0625,-1.1875,0
5260,-0.25,0.375,-1.4375,0
5280,0.5625,-0.5,-1.625,0
5300,3.5,-1.25,-1.875,0
5320,5.75,-2.25,-2,0
5340,6.8125,-2.375,-2.125,0
5360,6,-2.0625,-1.8125,0
5380,5.75,-1.9375,-1.6875,0
5400,6.25,-2.375,-1.3125,0
5420,8.4375,-2.9375,-1.3125,0
5440,7.9375,-3,-0.9375,0
5460,6.625,-2.375,-0.4375,0
5480,5.5,-1.6875,-0.25,0
5500,4.4375,-1.1875,-0.375,0
5520,3.875,-0.625,-0.4375,0
5540,3.9375,-0.1875,0,0
5560,3.875,0.0625,0.3125,0
5580,3.125,0.5,-0.0625,0
5600,2.3125,1.0625,-0.5625,0
5620,1.1875,1.8125,-0.375,0
5640,0.5625,2.5,-0.5625,0
5660,0.75,2.8125,-0.8125,0
5680,1.4375,2.5625,-1.3125,0
5700,2.5625,2.5625,-1.875,0
5720,2.875,2.625,-1.625,0
5740,2.75,2.5625,-1.125,0
5760,0.375,2.5,-0.875,0
5780,-0.3125,1.3125,-0.3125,0
5800,-1.1875,-0.125,-0.375,0
5820,-2.1875,-1.125,2.25,0
5840,-3.125,-1.3125,4.8125,0
5860,-4,-1.5625,3.5625,0
5880,-7.125,-0.5625,0.9375,0
5900,-6.375,-3,0.75,0
5920,-9.1875,-6.1875,-0.625,0
5940,-19.25,-5.4375,-11.4375,0
5960,-18.6875,-4,-17.875,0
5980,-12,-4,-15.5,0
6000,-5.25,-5.875,-16.125,0
6020,5.4375,-7.6875,-12.375,0
6040,-2.75,-8.375,-6.9375,0
6060,-6.375,-8.375,-4.5625,0
6080,-5.25,-11.4375,-0.8125,0
6100,-4.9375,-6.4375,-4.625,0
6120,1.375,-2.3125,-5,0
6140,5.9375,-3.3125,-4.0625,0
6160,5.375,-5.5625,-1.9375,0
6180,0.25,-4.375,-2.75,0
6200,-1,-1.125,-1.6875,0
6220,-4.5,2.625,-3.4375,0
6240,-1.6875,3.625,-3.625,0
6260,1.4375,3.75,-4.875,0
6280,0.75,8.25,0.5,0
6300,-1.375,8,-6.125,0
6320,3.25,5.375,-11,0
6340,4.125,-0.6875,0.6875,0
6360,3.125,-5.3125,4.6875,0
6380,-6.5,-3.9375,11,0
6400,-11.0625,1.375,15.9375,0
6420,-5.125,6.5,15.8125,0
6440,1.5625,7.3125,11.375,0
6460,1.625,5.3125,6,0
6480,-2,5.5,2.5625,0
6500,-2.1875,3.25,3.25,0
6520,-1.6875,3.1875,5.5625,0
6540,-1.6875,3.3125,6.4375,0
6560,-3.5,4,4.375,0
6580,-3.25,4.375,2.5,0
6600,-3.625,5.1875,1.0625,0
6620,-2.375,6.3125,0.9375,0
6640,-2.875,6.625,0.3125,0
6660,-3.3125,6.5,-0.25,0
6680,-2.3125,5.5625,-0.375,0
6700,-0.1875,4.5625,-1.25,0
6720,1.25,3.1875,-2.5625,0
6740,0.9375,2.6875,-3.5,0
6760,2.125,2.875,-3.375,0
6780,4,1.125,-2.6875,0
6800,0.6875,1.125,-3.5625,0
6820,0.8125,2,-3.25,0
6840,3.25,1.75,-3.875,0
6860,3.75,1.4375,-3.6875,0
6880,5.25,3.625,-1.1875,0
6900,6.5,0.3125,-0.8125,0
6920,2.5625,1.5625,-0.875,0
6940,0.8125,1.875,-0.8125,0
6960,-0.9375,1.8125,-1.375,0
6980,-1.25,1.0625,0,0
7000,-1.875,0.75,0.25,0
7020,-2.625,0.125,0.375,0
7040,-3.3125,0.5,0.5,0
7060,-3.6875,1.0625,0.5,0
7080,-3.0625,1.5,0,0
7100,-0.9375,3.5625,1.25,0
7120,4.9375,-1.25,1.4375,0
7140,-0.0625,-0.25,-2.25,0
7160,0.8125,-0.0625,-1.0625,0
7180,1.875,-1.125,-1.8125,0
7200,1.1875,-1.25,-0.75,0
7220,1.25,-1.25,-0.4375,0
7240,2.1875,-1.5,-0.4375,0
7260,2.1875,-1.25,-0.625,0
7280,2.125,-1.1875,-0.75,0
7300,2.375,-1,-1.0625,0
7320,1.6875,-0.875,-1.0625,0
7340,0.75,-0.625,-0.75,0
7360,0,-0.125,-0.3125,0
7380,-0.9375,0.5625,-0.125,0
7400,-1.4375,1.125,-0.5625,0
7420,-1.25,1.1875,-0.875,0
7440,-0.875,1.1875,-0.875,0
7460,-1.3125,1.125,-0.6875,0
7480,-1.625,1.3125,-0.1875,0
7500,-2.0625,1.3125,0.3125,0
7520,-1.8125,1.125,0.375,0
7540,-1.25,0.875,0.375,0
7560,-0.375,0.6875,0.0625,0
7580,0.375,0.125,-0.3125,0
7600,1.0625,-0.0625,-0.8125,0
7620,1.1875,-0.375,-1.0625,0
7640,0.8125,-0.1875,-0.6875,0
7660,0.3125,0.3125,-0.5,0
7680,-0.3125,0,-0.4375,0
7700,-1,-0.125,0.1875,0
7720,-2,0,0.6875,0
7740,-2.5,0,0.875,0
7760,-1.875,-0.1875,0.75,0
7780,-1.3125,-0.375,0.5625,0
7800,-1.125,-0.3125,0.375,0
7820,-1.125,-0.125,0.375,0
7840,-1.8125,0.3125,0.4375,0
7860,-1.5,0.3125,0.375,0
7880,-1,0.125,0.3125,0
7890,-0.25,0.3125,0.3125,0
7910,0.375,0.4375,-0.5625,0
7930,0.625,0.5,-1,0
7950,0.75,0.375,-1.1875,0
7970,0.375,0.5625,-1,0
7990,0.3125,0.5625,-0.6875,0
8010,0.375,0.625,-0.75,0
8030,0.6875,0.375,-0.9375,0
8050,0.625,0.125,-0.8125,0
8070,0.1875,0.25,-0.4375,0
8090,0,0.125,-0.25,0
8110,0.0625,-0.125,-0.0625,0
8130,0.4375,-0.4375,-0.125,0
8150,0.5625,-0.625,-0.0625,0
8170,0.4375,-0.3125,0.0625,0
8190,0.125,-0.4375,0.125,0
8210,0,-0.3125,0.25,0
8230,0.0625,-0.25,0.3125,0
8250,-0.125,-0.25,0.25,0
8270,-0.3125,0,0.1875,0
8290,-0.625,0,0.1875,0
8310,-0.5,0.0625,0.25,0
8330,-0.375,0.1875,0.1875,0
8350,-0.375,0.25,-0.1875,0
8370,-0.6875,0.5625,-0.3125,0
8390,-0.5625,0.75,-0.4375,0
8410,-0.25,0.5625,-0.3125,0
8430,0.625,0.375,-0.375,0
8450,0.5625,0.3125,-0.3125,0
8470,0.5625,0.25,-0.375,0
8490,0.3125,0.0625,-0.5625,0
8510,-0.3125,0.375,-0.0625,0
8530,-0.9375,0.8125,0.0625,0
8550,-1.125,0.4375,-0.0625,0
8570,-0.9375,0.125,0.6875,0
8590,-0.625,-0.5625,1.375,0
8610,-0.6875,-0.0625,0.75,0
8630,2.5625,-2.3125,3.5,0
8650,-0.0625,-0.4375,-1.375,0
8670,0.0625,-0.3125,0.25,0
8690,0.0625,-0.125,-0.5,0
8710,-0.5625,0.25,0,0
8730,-0.75,0.125,0,0
8750,-0.25,-0.0625,0.375,0
8770,-0.4375,0.1875,0.75,0
8790,-0.5625,0.1875,0.375,0
8810,-0.5625,0.25,0.0625,0
8830,-0.4375,0.0625,0.6875,0
8850,-0.9375,0.375,0.0625,0
8870,0.3125,-0.6875,3,0
8890,-1.6875,0.1875,-1.0625,0
8910,-2.25,0.875,0.4375,0
8930,-1.5,0.75,0.0625,0
8950,-1.75,0.75,0.375,0
8970,-2.0625,0.6875,0.5,0
8990,-0.9375,0.5625,0.125,0
9010,1.8125,-1.1875,1.875,0
9030,-1.4375,-0.0625,-1.0625,0
9050,-1.375,0.3125,0.125,0
9070,-0.25,0.0625,-0.3125,0
9090,-0.5625,0.1875,0,0
9110,-0.6875,0.0625,-0.1875,0
9130,-0.125,0,-0.25,0
9150,0,0.0625,-0.1875,0
9170,0.5,-0.125,-0.5,0
9190,-0.125,0,-0.1875,0
9210,-0.125,0.125,-0.125,0
9230,-0.5,0.1875,-0.375,0
9250,-0.5,0.25,-0.5625,0
9270,-0.25,0.3125,-0.5625,0
9290,0.3125,0.0625,-0.5,0
9310,0.1875,0.0625,-0.3125,0
9330,0.5625,0.125,-0.375,0
9350,0.5,0.0625,-0.75,0
9370,0.125,0.0625,-0.9375,0
9390,-0.3125,0.5625,-0.75,0
9410,-0.625,0.875,-0.8125,0
9430,-1.375,0.5625,-0.625,0
9450,-1.25,0.1875,0.3125,0
9470,-1.375,0.125,0.5,0
9490,-1.0625,0,0.125,0
9510,-0.1875,-0.25,-0.375,0
9530,0,-0.25,-0.5,0
9550,0.125,-0.1875,-0.375,0
9570,-0.0625,-0.1875,-0.1875,0
9590,-0.25,0.25,0,0
9610,0.1875,-0.125,-0.4375,0
9630,0,-0.1875,-0.125,0
9650,0.75,-0.125,-0.0625,0
9670,0.5625,0,-0.5625,0
9690,0.5,0,-0.6875,0
9710,0.3125,0.0625,-0.4375,0
9730,-0.1875,0.125,-0.25,0
9750,-0.375,0.125,-0.4375,0
9770,-0.1875,0.25,-0.5,0
9790,0.125,0.25,-0.625,0
9810,0,0.1875,-0.75,0
9830,0.125,0,-0.625,0
9850,-0.25,0.125,-0.25,0
9860,-0.625,0.1875,-0.1875,0
9880,-0.75,0.125,-0.0625,0
9900,-0.375,0.25,-0.0625,0
9920,-0.125,-0.0625,-0.25,0
9940,0,0,-0.25,0
9960,0.0625,-0.0625,-0.1875,0
9980,-0.125,-0.125,-0.125,0
10000,-0.25,0.125,0.0625,0
10020,-0.125,0.0625,-0.25,0
10040,0.5625,0.125,-0.5,0
10060,0.5,-0.1875,-0.5,0
10080,0.25,0,-0.125,0
10100,-0.5,0.1875,0.0625,0
10120,-0.8125,0.4375,-0.1875,0
10140,-0.75,0.4375,-0.3125,0
10160,-0.0625,0.4375,-0.5,0
10180,0.625,0.0625,-0.6875,0
10200,0.9375,-0.0625,-0.6875,0
10220,0.625,-0.1875,-0.6875,0
10240,0.4375,-0.0625,-0.5,0
10260,-0.5625,0.625,0.0625,0
10280,-1.125,0.75,-0.25,0
10300,-1.0625,0.375,-0.4375,0
10320,-1.0625,0.0625,0.1875,0
10340,-0.8125,0.0625,0.375,0
10360,-0.6875,-0.0625,0,0
10380,-0.3125,0.0625,-0.0625,0
10400,-0.3125,0,-0.25,0
10420,-0.125,-0.0625,-0.5,0
10440,0.25,-0.0625,-0.4375,0
10460,-0.25,0.0625,-0.25,0
10480,0,0.0625,-0.1875,0
10500,-0.0625,-0.1875,0.125,0
10520,0.1875,0.0625,0.0625,0
10540,0.1875,0,-0.3125,0
10560,0.125,0.0625,-0.75,0
10580,-0.0625,0.125,-0.4375,0
10600,-0.125,0.1875,-0.1875,0
10620,-0.375,0.1875,-0.25,0
10640,-0.0625,0.1875,-0.375,0
10660,0.1875,0.125,-0.625,0
10680,0.0625,0.0625,-0.5625,0
10700,0,0.1875,-0.3125,0
10720,0,0.1875,-0.375,0
10740,-0.0625,0.125,-0.3125,0
10760,0.0625,0.0625,-0.25,0
10780,0.125,0.125,-0.25,0
10800,0.125,0,-0.25,0
10820,0,0,-0.1875,0
10840,0.0625,-0.125,0,0
10860,-0.0625,0,-0.0625,0
10880,0.0625,-0.0625,-0.25,0
10900,0,0.0625,-0.375,0
10920,-0.1875,0.125,-0.375,0
10940,-0.75,0.5625,-0.625,0
10960,-0.6875,0.5625,-0.75,0
10980,-1.3125,0.375,-0.4375,0
11000,-0.3125,0.5,0.125,0
11020,-0.8125,0.3125,-0.125,0
11040,-0.1875,0.1875,0,0
11060,0.5625,0.0625,-0.3125,0
11080,0.75,-0.125,-0.4375,0
11100,0.8125,-0.125,-0.5625,0
11120,0.375,0.0625,-0.5625,0
11140,0.0625,0.25,-0.125,0
11160,-0.625,0.6875,0.0625,0
11180,-0.3125,0.4375,-0.3125,0
11200,-0.25,-0.0625,-0.125,0
11220,-0.1875,-0.0625,0.25,0
11240,-0.0625,-0.125,-0.125,0
11260,0.5625,-0.375,-0.5,0
11280,0.4375,-0.25,-0.375,0
11300,-0.1875,0.0625,-0.3125,0
11320,-0.6875,0.0625,0.125,0
11340,-1.0625,0.1875,0.0625,0
11360,-1.125,0.25,0.125,0
11380,-0.5625,-0.0625,0.25,0
11400,-0.125,-0.0625,0.4375,0
11420,0.75,0.0625,0,0
11440,0.6875,-0.125,-0.5,0
11460,0.9375,-0.3125,-0.4375,0
11480,0.6875,-0.25,0.0625,0
11500,0.3125,-0.125,0.25,0
11520,-0.0625,-0.1875,0.3125,0
11540,-0.0625,-0.125,0.375,0
11560,-0.1875,-0.125,0.125,0
11580,-0.5625,0,-0.0625,0
11600,-0.4375,0.0625,-0.25,0
11620,-0.125,-0.0625,-0.3125,0
11640,0.0625,0.125,-0.125,0
11660,-0.5625,0.0625,0.375,0
11680,-0.5625,0.125,0.75,0
11700,-0.1875,-0.0625,0.5625,0
11720,0.125,-0.1875,0.3125,0
11740,0.6875,-0.3125,-0.0625,0
11760,0.9375,-0.25,-0.1875,0
11780,0.625,-0.1875,-0.25,0
11800,0.5,-0.125,-0.0625,0
11820,-0.1875,0.0625,0.25,0
11840,-0.3125,0.0625,0.1875,0
11860,-0.625,0.0625,0.25,0
11880,-0.6875,0.0625,0.1875,0
11900,-0.9375,0.1875,0.1875,0
11920,-1.0625,0.1875,0.0625,0
11940,-0.875,0.0625,0,0
11960,0,-0.125,0.125,0
11980,0.625,-0.25,0,0
12000,0.8125,-0.375,-0.125,0
12020,0.6875,-0.25,-0.1875,0
12040,0.5625,-0.375,-0.25,0
12060,0.3125,-0.0625,0.1875,0
12080,-0.0625,0.3125,0.1875,0
12100,-0.3125,-0.1875,-0.0625,0
12120,-0.0625,-0.375,0.375,0
12140,0.25,-0.3125,0.5,0
12160,0,-0.25,0.1875,0
12180,0,-0.1875,0,0
12200,-0.1875,-0.0625,0.125,0
12220,-0.125,0.0625,0,0
12240,0.0625,-0.0625,-0.0625,0
12260,-0.125,0,0,0
12280,-0.1875,-0.0625,-0.125,0
12300,0.0625,-0.1875,0.1875,0
12320,0.5,-0.1875,0.5,0
12340,0.5,-0.0625,0.3125,0
12360,0.1875,-0.0625,-0.25,0
12380,0.0625,0,-0.1875,0
12400,0.0625,-0.0625,0,0
12420,-0.0625,0,0.0625,0
12440,0,0.0625,0,0
12460,-0.1875,0,0.0625,0
12480,0,-0.0625,0.0625,0
12500,0,0,0.125,0
12520,0.0625,-0.125,0.375,0
12540,0,-0.3125,0.0625,0
12560,-0.25,0,0.25,0
12580,-0.25,0.125,0.1875,0
12600,-0.0625,0.1875,0.0625,0
12620,0,0,0,0
12640,0.0625,-0.0625,0.375,0
12660,0.0625,0,0.4375,0
12680,0,0.0625,0.375,0
12700,0.6875,-0.0625,0,0
12720,1.0625,-0.0625,-0.5,0
12740,0.9375,-0.1875,-0.5,0
12760,0.8125,-0.125,-0.4375,0
12780,0.125,0.125,0.25,0
12800,-0.4375,0.25,0.5,0
12820,-1.375,0.3125,1.0625,0
12840,-0.5,2.8125,3.25,0
12860,4.4375,-2.25,2.25,0
12880,-1.6875,-0.1875,0,0
12900,-1.8125,0.4375,0,0
12920,0.375,-0.125,-0.6875,0
12940,0.3125,-0.0625,0,0
12960,0.1875,-0.4375,-0.375,0
12980,-0.0625,0.1875,-0.125,0
13000,-1,0.625,0.0625,0
13020,-1.625,0.3125,0.125,0
13040,-1.875,0.375,0.5625,0
13060,-2.5,0.4375,0.75,0
13080,-2,0.375,0.1875,0
13100,-1.875,0.25,0.0625,0
13120,-1.25,0.25,0,0
13140,-0.8125,0.375,-0.125,0
13160,1.5,1.875,0.5,0
13180,3.0625,-0.75,1,0
13200,-0.1875,0.125,-0.3125,0
13220,0.5,-0.25,0.1875,0
13240,1.375,-0.375,-0.125,0
13260,0.625,0,-0.5,0
13270,0.875,-0.4375,-1.25,0
13290,0.8125,-0.375,-0.8125,0
13310,0.875,-0.3125,-0.75,0
13330,0.5,-0.3125,-0.875,0
13350,0.75,-0.3125,-0.75,0
13370,0.3125,-0.25,-0.5625,0
13390,0.875,-0.375,-0.8125,0
13410,1.1875,-0.375,-0.9375,0
13430,1.4375,-0.625,-0.9375,0
13450,1.25,-0.625,-0.9375,0
13470,1.0625,-0.4375,-0.8125,0
13490,1.125,-0.5625,-0.625,0
13510,1.125,-0.5625,-0.5,0
13530,1.25,-0.6875,-0.3125,0
13550,1.0625,-0.75,-0.25,0
13570,1,-0.6875,-0.375,0
13590,0.75,-0.5,-0.5,0
13610,0.3125,-0.375,-0.5625,0
13630,0.125,-0.25,-0.5,0
13650,-0.1875,-0.25,-0.3125,0
13670,-0.3125,-0.125,0,0
13690,-0.875,0,0.0625,0
13710,-1.125,0.0625,-0.1875,0
13730,-1.25,0.0625,-0.125,0
13750,-1.125,-0.0625,0,0
13770,-0.5625,-0.125,0.0625,0
13790,-0.375,-0.375,0.125,0
13810,-0.125,-0.1875,0.0625,0
13830,-0.3125,-0.25,-0.375,0
13850,-0.1875,-0.3125,-0.375,0
13870,-0.6875,0.375,0,0
13890,-0.8125,0.375,-0.0625,0
13910,-0.875,-0.0625,-0.0625,0
13930,-0.9375,-0.1875,0.5625,0
13950,-1.125,0,0.375,0
13970,-0.9375,-0.25,0.0625,0
13990,-0.375,-0.375,0,0
14010,-0.1875,-0.4375,0.0625,0
14030,-0.125,-0.4375,0,0
14050,0.0625,-0.4375,-0.125,0
14070,-0.375,-0.25,-0.125,0
14090,-0.3125,0,0.0625,0
14110,-0.375,-0.1875,0.0625,0
14130,0,0,0,0
14150,0,-0.0625,-0.4375,0
14170,0.3125,-0.1875,-0.5625,0
14190,0.4375,-0.375,-0.25,0
14210,0.3125,-0.3125,-0.25,0
14230,0.1875,-0.1875,-0.5625,0
14250,-0.0625,0.125,-0.6875,0
14270,0.0625,0.125,-0.8125,0
14290,0.1875,0,-0.75,0
14310,0.4375,-0.1875,-0.625,0
14330,0.5,-0.5,-0.5625,0
14350,0.3125,-0.875,-0.25,0
14370,0.3125,-0.9375,0.1875,0
14390,0.25,-0.75,0.5,0
14410,0,-0.6875,0.6875,0
14430,0.25,-0.625,0.4375,0
14450,0.4375,-0.5625,0.1875,0
14470,0.3125,-0.4375,-0.0625,0
14490,0.3125,-0.3125,-0.5625,0
14510,-0.375,0.125,-0.6875,0
14530,-0.875,0.375,-0.6875,0
14550,-1,0.4375,-0.6875,0
14570,-0.9375,0.25,-0.625,0
14590,-0.5625,0.125,-0.375,0
14610,-0.6875,0.1875,-0.125,0
14630,-0.9375,0.25,-0.1875,0
14650,-0.8125,-0.125,-0.1875,0
14670,-0.125,-0.4375,0.125,0
14690,1.125,-0.6875,0.3125,0
14710,0.75,-0.8125,0.0625,0
14730,1,-0.5,-0.375,0
14750,0.9375,-0.4375,-0.5625,0
14770,0.375,0.1875,-0.4375,0
14790,0.0625,0.6875,-0.625,0
14810,-0.0625,0.3125,-0.9375,0
14830,0.3125,0.1875,-0.625,0
14850,0.375,-0.0625,-0.6875,0
14870,0,-0.125,-0.4375,0
14890,0.0625,-0.3125,-0.25,0
14910,0,-0.5,0.25,0
14930,0.3125,-0.5,0.25,0
14950,-0.0625,-0.375,0.125,0
14970,-0.375,-0.1875,-0.125,0
14990,-0.5,-0.125,-0.1875,0
15010,0.0625,-0.25,-0.0625,0
15030,0.3125,-0.25,0.125,0
15050,0.1875,0,-0.4375,0
15070,0.25,-0.125,-1,0
15090,0,-0.125,-0.875,0
15110,0.0625,-0.0625,-0.5,0
15130,-0.1875,-0.125,-0.375,0
15150,0.25,-0.375,-0.1875,0
15170,0.1875,-0.5625,-0.0625,0
15190,0.1875,-0.4375,-0.125,0
15210,-0.1875,-0.5625,0,0
15230,-0.0625,-0.3125,0,0
15240,0.0625,-0.3125,0.125,0
15260,0,-0.3125,0,0
15280,-0.0625,-0.125,-0.125,0
15300,-0.25,-0.0625,-0.3125,0
15320,-0.375,0,-0.3125,0
15340,-0.5,0.5625,-0.4375,0
15360,-0.3125,0.875,-1.0625,0
15380,-0.5625,0.375,-1.5625,0
15400,-0.3125,0.375,-0.3125,0
15420,0.25,0.1875,0,0
15440,-0.625,0,0,0
15460,0.4375,-0.1875,0.0625,0
15480,0,-0.25,-0.125,0
15500,0.25,-0.25,-0.3125,0
15520,0.5,-0.5,-0.1875,0
15540,0.8125,-0.625,-0.0625,0
15560,1.25,-0.8125,-0.0625,0
15580,1.0625,-0.875,0,0
15600,1,-0.6875,-0.1875,0
15620,0.5625,-0.5,-0.4375,0
15640,0.125,-0.4375,-0.3125,0
15660,-0.5,0.125,0.1875,0
15680,-0.875,0.1875,-0.125,0
15700,-0.8125,-0.1875,-0.1875,0
15720,-0.5,-0.375,0.3125,0
15740,-0.3125,-0.3125,0.25,0
15760,0.0625,-0.5625,-0.25,0
15780,0.25,-0.5,-0.125,0
15800,0,-0.4375,-0.25,0
15820,-0.125,-0.25,-0.25,0
15840,-0.125,-0.125,-0.3125,0
15860,-0.375,0.0625,-0.1875,0
15880,-0.25,0.125,-0.125,0
15900,0.25,-0.0625,-0.125,0
15920,0.4375,0,0.125,0
15940,0.4375,0.0625,-0.3125,0
15960,0.125,0.0625,-0.4375,0
15980,-0.125,0,0.0625,0
16000,-0.0625,-0.0625,0.0625,0
16020,0,-0.1875,0.1875,0
16040,0.25,-0.25,0.125,0
16060,0.0625,-0.125,0,0
16080,-0.0625,-0.0625,-0.0625,0
16100,0,-0.125,-0.125,0
16120,0.0625,-0.125,-0.125,0
16140,-0.0625,-0.0625,-0.0625,0
16160,-0.3125,0.0625,0.125,0
16180,-0.3125,0,0.1875,0
16200,-0.25,0.0625,0.3125,0
16220,-0.125,0,0.3125,0
16240,-0.125,-0.0625,0.25,0
16260,-0.1875,-0.0625,0.1875,0
16280,-0.1875,-0.125,0.25,0
16300,-0.25,-0.0625,0.1875,0
16320,-0.1875,0,0.25,0
16340,-0.25,0,0.25,0
16360,-0.0625,0,0.1875,0
16380,0,-0.125,0.1875,0
16400,-0.0625,-0.0625,0.375,0
16420,-0.3125,0.0625,0.25,0
16440,-0.4375,0.125,0.125,0
16460,-0.25,0.0625,0.125,0
16480,0.125,0,0.0625,0
16500,0.6875,-0.125,-0.125,0
16520,0.75,-0.3125,-0.1875,0
16540,0.8125,-0.1875,-0.1875,0
16560,0.6875,-0.375,-0.375,0
16580,0.25,-0.0625,0.125,0
16600,-0.4375,0.375,0.375,0
16620,-0.5,0.0625,0.0625,0
16640,-0.3125,-0.25,0.625,0
16660,-0.125,-0.3125,0.9375,0
16680,-0.1875,-0.3125,0.5625,0
16700,0.125,-0.375,0.1875,0
16720,0.25,-0.25,0.125,0
16740,-0.0625,-0.1875,-0.125,0
16760,-0.3125,0.0625,0,0
16780,-0.5625,0.125,0.1875,0
16800,-0.625,0.0625,0.25,0
16820,0,-0.125,0.3125,0
16840,0.1875,-0.25,0.5625,0
16860,0.3125,-0.0625,0.375,0
16880,0.25,-0.0625,-0.125,0
16900,0.125,0,-0.25,0
16920,0.125,-0.0625,0,0
16940,-0.125,0,0.125,0
16960,-0.1875,-0.0625,0.125,0
16980,0.125,-0.0625,-0.0625,0
17000,0.1875,-0.0625,-0.3125,0
17020,0.25,0,-0.25,0
17040,0,-0.0625,-0.25,0
17060,-0.125,0,-0.0625,0
17080,-0.0625,0.0625,0,0
17100,-0.0625,0.0625,-0.125,0
17120,-0.1875,0,0,0
17140,-0.3125,-0.0625,0.0625,0
17160,-0.3125,0,-0.125,0
17180,-0.125,-0.0625,0,0
17200,-0.125,-0.0625,-0.0625,0
17220,0,-0.0625,-0.125,0
17240,0.25,0,-0.1875,0
17260,0.125,-0.1875,-0.125,0
17280,0.125,0,0,0
17300,0.375,0,0.125,0
17320,1.375,-0.25,-0.3125,0
17340,1.8125,-0.5625,-0.625,0
17360,1.5,-0.25,-0.3125,0
17380,0.8125,-0.0625,0,0
17400,-0.1875,0.25,0.375,0
17420,-0.5625,0.25,0.25,0
17440,-0.75,0.0625,-0.1875,0
17460,-0.5,-0.0625,0,0
17480,-1.3125,0.125,0,0
17500,-2.0625,0.4375,-0.25,0
17520,-2.3125,0.0625,0.25,0
17540,-2.375,-0.0625,1.0625,0
17560,-2.6875,-0.0625,0.9375,0
17580,-2.625,-0.3125,0.75,0
17600,-2.5625,-0.25,0.6875,0
17620,-2.5,-0.1875,0.75,0
17640,-2.3125,-0.1875,0.8125,0
17660,-2.3125,0.5625,0.75,0
17680,3.9375,-2.125,6.125,0
17700,-0.0625,0.4375,1.0625,0
17720,-1.875,0.0625,0.5625,0
17740,-2.25,0.0625,0.125,0
17760,-0.8125,0.5,0.75,0
17780,-1.125,0.1875,0,0
17800,-0.4375,0,-0.375,0
17820,0.0625,0.125,-0.0625,0
17840,-0.3125,0.1875,-0.0625,0
17860,-0.1875,0.125,-0.1875,0
17880,-0.1875,0.1875,-0.1875,0
17900,-0.5,0.375,-0.125,0
17920,-0.5,0.3125,-0.125,0
17940,-0.6875,0.375,0.0625,0
17960,-0.5625,0.3125,0,0
17980,-0.5625,0.125,-0.0625,0
18000,-0.375,0.125,-0.0625,0
18020,0.0625,-0.0625,-0.25,0
18040,0,-0.1875,-0.1875,0
18060,0.0625,0,-0.125,0
18080,-0.25,-0.25,-0.0625,0
18100,0,-0.3125,-0.0625,0
18120,-0.1875,-0.1875,0,0
18140,-0.3125,-0.375,-0.0625,0
18160,-0.4375,-0.25,0.0625,0
18180,-0.0625,-0.4375,-0.0625,0
18200,0.4375,-0.5,-0.125,0
18220,0.375,-0.4375,-0.0625,0
18240,0.1875,-0.125,-0.0625,0
18260,0.125,-0.0625,-0.0625,0
18280,0.5,-0.125,0,0
18300,0.875,-0.125,-0.25,0
18320,1.1875,-0.25,-0.375,0
18340,0.9375,0,-0.75,0
18360,0.9375,-0.1875,-0.875,0
18380,0.75,0,-0.375,0
18400,0.3125,0.5,-0.3125,0
18420,-0.375,0.0625,-0.25,0
18440,-0.375,0,0.375,0
18460,-0.875,-0.125,0.875,0
18480,-0.5625,0,0.5,0
18500,-0.1875,-0.25,0.125,0
18520,0.0625,-0.125,0,0
18540,-0.125,-0.0625,0,0
18560,-0.0625,0,0.125,0
18580,-0.3125,0.0625,0,0
18600,-0.5,0.125,0.125,0
18620,-0.1875,-0.0625,0.3125,0
18630,0.0625,-0.25,0.4375,0
18650,0,-0.25,0.375,0
18670,-0.4375,-0.125,0,0
18690,-0.625,-0.125,0.125,0
18710,-0.8125,0,0.4375,0
18730,-1.125,0,0.4375,0
18750,-1,0.0625,0.5,0
18770,-0.875,0.125,0.4375,0
18790,-0.8125,0.125,0.3125,0
18810,-1,0.375,0.0625,0
18830,-0.875,0.4375,0.0625,0
18850,-0.75,0.3125,0.125,0
18870,-0.5625,0.1875,0,0
18890,-0.3125,0.1875,0.1875,0
18910,-0.375,0.1875,0.4375,0
18930,-0.25,0.125,0.4375,0
18950,0,0,0.75,0
18970,-0.625,0,0.375,0
18990,-0.75,0,0.625,0
19010,-0.875,0.0625,0.5625,0
19030,-0.5625,0.125,0.3125,0
19050,0.875,-0.125,-0.1875,0
19070,1.875,-0.5,-0.625,0
19090,6.875,-2.75,3.625,0
19110,0.3125,0.4375,-1.1875,0
19130,0.3125,0.25,0.125,0
19150,1.1875,0.375,-0.25,0
19170,0.75,0.1875,0,0
19190,1.4375,-0.25,-0.6875,0
19210,1.75,-0.4375,-0.6875,0
19230,0.9375,-0.1875,-0.5625,0
19250,0.625,-0.625,-0.6875,0
19270,0.0625,-0.1875,0,0
19290,-0.1875,0.0625,0.0625,0
19310,-0.4375,-0.375,-0.4375,0
19330,-0.3125,-0.5,0.25,0
19350,-0.4375,-0.375,0.6875,0
19370,-0.4375,-0.375,0.3125,0
19390,0.1875,-0.3125,0.125,0
19410,0.75,-0.3125,-0.3125,0
19430,1.1875,-0.4375,-0.625,0
19450,1.1875,-0.25,-0.625,0
19470,1.25,-0.25,-0.4375,0
19490,1,-0.125,-0.1875,0
19510,1.1875,-0.25,0.25,0
19530,1.4375,-0.25,0.625,0
19550,1.5625,-0.3125,0.125,0
19570,1.25,-0.0625,-0.5,0
19590,0.625,0,-0.625,0
19610,0.4375,0,-0.375,0
19630,0.4375,-0.1875,-0.1875,0
19650,0.625,-0.375,-0.1875,0
19670,0.5625,-0.375,-0.25,0
19690,0.6875,-0.4375,-0.25,0
19710,0.8125,-0.4375,-0.125,0
19730,1,-0.5,-0.125,0
19750,1.5625,-0.5625,-0.1875,0
19770,1.4375,-0.6875,0.125,0
19790,1.1875,-0.5625,0.5625,0
19810,0.5625,-0.4375,1.25,0
19830,-0.4375,-0.25,1.1875,0
19850,-2.3125,0.5,1.8125,0
19870,-3.25,0.875,1.8125,0
19890,-3.125,0.625,1.75,0
19910,-3.125,0.9375,0.875,0
19930,0.5,2.8125,4.75,0
19950,2.1875,-0.625,0.75,0
19970,-0.0625,-0.0625,1.625,0
19990,0.875,-0.125,1.625,0
20010,-0.3125,-0.5,0.25,0
20030,-0.8125,0.1875,1.1875,0
20050,-0.4375,-0.25,1,0
20070,2.9375,1.5625,5.875,0
20090,2.6875,-0.5,2.5625,0
20110,0.5,0,2.9375,0
20130,1.25,-0.375,3.25,0
20150,1.5625,-0.25,3.875,0
20170,0.8125,-0.0625,4.9375,0
20190,0.6875,-0.625,4.625,0
20210,1.625,-0.8125,4.875,0
20230,1.875,-1.5,3.9375,0
20250,0.5,-0.5,1.75,0
20270,0.25,-0.125,0.9375,0
20290,1.125,-0.1875,-0.4375,0
20310,1.125,-0.25,-0.9375,0
20330,1.375,-0.125,-1.375,0
20350,0.875,-0.1875,-0.75,0
20370,0.0625,0.25,-0.625,0
20390,0.4375,0.125,-0.5,0
20410,1.3125,-0.25,-1.125,0
20430,1.875,-0.5625,-1.1875,0
20450,1.875,-0.375,-1.1875,0
20470,1.0625,-0.25,-1.1875,0
20490,-0.125,-0.0625,-0.3125,0
20510,-0.75,0.125,0.1875,0
20530,-0.875,0.1875,0.1875,0
20550,0,-0.125,-0.25,0
20570,0.9375,-1,-0.6875,0
20590,1.5,-1.1875,-1,0
20600,2,-1.4375,-1.5625,0
20620,2,-1.25,-2.25,0
20640,0.9375,-0.3125,-3.6875,0
20660,-0.75,0.4375,-3.75,0
20680,-2.5,1,-3.0625,0
20700,-3.3125,1.375,-1.6875,0
20720,-3.8125,0.6875,-0.3125,0
20740,-1.4375,-0.375,0.0625,0
20760,0.3125,-1,0.0625,0
20780,1.375,-0.625,-0.125,0
20800,0.3125,-0.0625,-0.3125,0
20820,-0.5625,0.5625,-0.5625,0
20840,-0.6875,0.6875,-1.125,0
20860,-0.125,0.5625,-1.3125,0
20880,0.75,0.4375,-1.5625,0
20900,0.8125,0.3125,-1.3125,0
20920,0.375,0.25,-0.8125,0
20940,0.5,0.0625,-0.3125,0
20960,0.4375,0,0.1875,0
20980,0.0625,0.0625,0.4375,0
21000,-0.375,0.125,0,0
21020,-1.0625,0.1875,-0.25,0
21040,-1.5,0.25,-0.1875,0
21060,-2.3125,0.5,-0.125,0
21080,-1.9375,0.5,-0.125,0
21100,-1.375,0.25,0,0
21120,-1,0.0625,0.125,0
21140,-0.5,-0.125,0.25,0
21160,-0.375,-0.0625,0.1875,0
21180,-0.375,-0.0625,0.1875,0
21200,-0.3125,-0.1875,0,0
21220,0.125,-0.375,0.1875,0
21240,0.1875,-0.25,0.125,0
21260,0.0625,-0.125,-0.25,0
21280,-0.0625,0,-0.3125,0
21300,-0.375,-0.0625,-0.25,0
21320,-0.5,0.0625,0.0625,0
21340,-0.6875,0.0625,0.25,0
21360,-0.5625,0.0625,0.25,0
21380,-0.3125,-0.125,-0.0625,0
21400,0,0.0625,-0.1875,0
21420,-0.0625,0.0625,-0.3125,0
21440,0.0625,0.0625,-0.25,0
21460,0.125,0.0625,-0.1875,0
21480,0.125,0,0,0
21500,0.125,-0.125,0.125,0
21520,0.125,-0.0625,0.125,0
21540,0.0625,-0.125,0.3125,0
21560,0.1875,-0.25,0.1875,0
21580,0,-0.25,0.1875,0
21600,-0.125,-0.1875,0,0
21620,-0.125,-0.125,0.0625,0
21640,-0.125,-0.1875,0.125,0
21660,-0.1875,-0.125,0.1875,0
21680,-0.3125,-0.0625,0.1875,0
21700,-0.375,-0.0625,-0.0625,0
21720,-0.125,-0.125,-0.0625,0
21740,0.3125,-0.125,0,0
21760,0.875,-0.25,-0.0625,0
21780,0.8125,-0.3125,0,0
21800,0.6875,-0.25,-0.25,0
21820,0.8125,-0.25,-0.3125,0
21840,-0.0625,0.125,0.0625,0
21860,-0.4375,0.5,-0.125,0
21880,-0.9375,0.0625,-0.1875,0
21900,-0.6875,0,0.5625,0
21920,-0.9375,-0.0625,0.5625,0
21940,-0.625,-0.1875,0.0625,0
21960,-0.3125,-0.1875,0,0
21980,0.0625,-0.25,-0.125,0
22000,0.125,-0.125,-0.1875,0
22020,0.3125,-0.125,-0.0625,0
22040,0,-0.125,-0.0625,0
22060,-0.3125,0.1875,0.1875,0
22080,-0.0625,-0.0625,0.3125,0
22100,0.5,-0.1875,0.375,0
22120,0.75,-0.25,0,0
22140,0.625,-0.25,-0.25,0
22160,0.3125,-0.3125,-0.3125,0
22180,-0.125,-0.1875,0.125,0
22200,-0.25,-0.0625,0.0625,0
22220,-0.3125,-0.0625,0.0625,0
22240,0,-0.0625,-0.25,0
22260,-0.1875,0.0625,-0.25,0
22280,-0.3125,0.0625,-0.125,0
22300,-0.375,0.125,-0.0625,0
22320,-0.3125,0.0625,-0.0625,0
22340,-0.375,0.125,-0.0625,0
22360,-0.375,0.125,0.0625,0
22380,0,0,0.25,0
22400,-0.3125,-0.125,0.4375,0
22420,-0.375,0,0.375,0
22440,-0.4375,-0.125,0.4375,0
22460,-0.375,0,0.25,0
22480,-0.4375,0,0.125,0
22500,-0.4375,0.0625,0.0625,0
22520,-0.4375,0.0625,0,0
22540,-0.25,0,0,0
22560,0,-0.0625,0.1875,0
22580,-0.0625,-0.125,0.25,0
22600,-0.3125,0,0.1875,0
22620,-0.5,0.0625,0.125,0
22640,-0.125,0.0625,0.0625,0
22660,0.5,-0.0625,0,0
22680,1.0625,-0.3125,-0.125,0
22700,1,-0.1875,-0.0625,0
22720,0.5625,-0.0625,-0.3125,0
22740,0,-0.1875,0,0
22760,-0.4375,0.4375,0.1875,0
22780,-0.8125,0.5,0.0625,0
22800,-0.5,-0.0625,-0.125,0
22820,-0.3125,-0.125,0.4375,0
22840,-0.625,-0.0625,0.375,0
22860,-0.3125,-0.25,-0.125,0
22880,0.1875,-0.25,0,0
22900,0.375,-0.25,-0.0625,0
22920,0.375,-0.1875,-0.125,0
22940,0.4375,-0.25,-0.1875,0
22960,-0.0625,-0.0625,0.0625,0
22980,-0.25,0,0.125,0
23000,0.0625,-0.125,0.25,0
23020,0.25,-0.0625,0.375,0
23040,0.375,0,-0.125,0
23060,0.4375,0,-0.4375,0
23080,0.1875,-0.125,-0.1875,0
23100,0.0625,0,0.125,0
23120,-0.0625,-0.125,0.1875,0
23140,0.125,-0.0625,0.125,0
23160,0.25,-0.1875,0,0
23180,0.0625,0,-0.0625,0
23200,-0.0625,0.125,0,0
23220,-0.3125,0.125,0.1875,0
23240,-0.4375,0.125,0.1875,0
23260,-0.3125,0.0625,0.375,0
23280,-0.3125,0.0625,0.4375,0
23300,-0.3125,0.0625,0.6875,0
23320,-0.5,-0.0625,0.6875,0
23340,-0.5625,0,0.6875,0
23360,-0.4375,-0.0625,0.5625,0
23380,-0.125,-0.0625,0.375,0
23400,-0.25,-0.0625,0.375,0
23420,-0.1875,0.0625,0.25,0
23440,-0.5,0.0625,0.1875,0
23460,-0.25,0.0625,0.5,0
23480,-0.0625,-0.0625,0.6875,0
23500,-0.0625,-0.0625,0.5,0
23520,-0.1875,-0.0625,0.25,0
23540,0.0625,-0.0625,0.125,0
23560,0.3125,-0.0625,0.125,0
23580,0.375,-0.0625,0.3125,0
23600,0.4375,-0.0625,0.125,0
23620,0.75,-0.125,0.125,0
23640,0.75,-0.125,-0.1875,0
23660,0.6875,-0.3125,-0.25,0
23680,0,0.3125,0.0625,0
23700,-0.4375,0.4375,0.0625,0
23720,-0.5,0.0625,0.1875,0
23740,0,-0.25,0.75,0
23760,0.1875,-0.25,0.6875,0
23780,0.1875,-0.375,0.3125,0
23800,0.375,-0.375,0.25,0
23820,0.25,-0.3125,0,0
23840,-0.0625,-0.125,-0.125,0
23860,-0.125,0.0625,-0.0625,0
23880,0,0.1875,0.0625,0
23900,0.5,0.0625,0,0
23920,0.75,-0.25,0.1875,0
23940,0.8125,-0.125,0.25,0
23960,0.625,0.0625,-0.25,0
23980,0.625,-0.0625,-0.4375,0
24000,0.625,-0.0625,-0.3125,0
24010,0.4375,-0.0625,-0.25,0
24030,0.25,-0.0625,-0.25,0
24050,0.25,0,-0.3125,0
24070,0.25,-0.1875,-0.375,0
24090,0.125,-0.0625,-0.5,0
24110,-0.125,0.0625,-0.375,0
24130,-0.1875,0.125,-0.5,0
24150,-0.375,0.125,-0.375,0
24170,-0.5,0.3125,-0.0625,0
24190,-0.9375,0.3125,0,0
24210,-1,0.1875,0.0625,0
24230,-0.75,0.1875,0.25,0
24250,-0.5,0,0.25,0
24270,-0.375,-0.1875,0.25,0
24290,-0.3125,-0.125,0.1875,0
24310,-0.375,-0.0625,0.125,0
24330,-0.375,-0.125,0,0
24350,-0.375,0,0.125,0
24370,-0.25,0,0.125,0
24390,-0.4375,0.0625,-0.125,0
24410,-0.5625,0.1875,-0.125,0
24430,-0.4375,0.0625,-0.125,0
24450,-0.0625,0,-0.125,0
24470,0.375,-0.0625,-0.25,0
24490,0.375,-0.125,-0.1875,0
24510,0,0,-0.1875,0
24530,-0.0625,0,-0.25,0
24550,-0.4375,0.4375,0.125,0
24570,-0.875,0.625,0,0
24590,-1.125,0.3125,0,0
24610,-0.8125,0.0625,0.5625,0
24630,-1.0625,-0.25,0.6875,0
24650,-0.5,-0.1875,0.3125,0
24670,-0.375,-0.1875,0.1875,0
24690,-0.125,-0.125,0,0
24710,-0.125,-0.1875,0.0625,0
24730,-0.0625,-0.0625,-0.0625,0
24750,-0.4375,0,0.0625,0
24770,-0.375,0.0625,0,0
24790,-0.125,-0.0625,0.25,0
24810,0.125,-0.0625,0.25,0
24830,0.125,-0.0625,-0.125,0
24850,0.0625,-0.0625,-0.375,0
24870,0.0625,-0.1875,-0.1875,0
24890,0.0625,-0.0625,0.125,0
24910,0.0625,0,-0.0625,0
24930,0.1875,-0.0625,-0.125,0
24950,0.375,0,-0.3125,0
24970,0.4375,0.0625,-0.4375,0
24990,0.3125,0.0625,-0.3125,0
25010,0.375,0.1875,-0.3125,0
25030,0.375,0.0625,-0.1875,0
25050,0.3125,0.0625,-0.125,0
25070,0.25,0,0,0
25090,0.1875,0,0.0625,0
25110,0.1875,0.0625,0.1875,0
25130,0.125,-0.0625,0.25,0
25150,0.125,0,0.1875,0
25170,0.125,-0.125,0.125,0
25190,0.25,-0.125,0,0
25210,0.125,0,-0.125,0
25230,0,0.125,-0.0625,0
25250,-0.0625,0.0625,-0.0625,0
25270,0.1875,0.0625,0.125,0
25290,-0.125,0.1875,0,0
25310,0.0625,0.1875,-0.125,0
25330,0.4375,0,-0.1875,0
25350,0.5625,0.0625,0.0625,0
25370,0.625,0.1875,0.125,0
25390,0.5625,0.1875,0.0625,0
25410,0.8125,-0.0625,-0.1875,0
25430,0.4375,-0.0625,-0.3125,0
25450,0.25,0.125,-0.0625,0
25470,-0.6875,0.4375,0.0625,0
25490,-0.75,0.125,0.125,0
25510,-0.625,-0.25,0.625,0
25530,-0.4375,-0.4375,0.625,0
25550,0.0625,-0.6875,0.125,0
25570,0.3125,-0.6875,-0.0625,0
25590,0.5625,-0.5,-0.125,0
25610,0.25,-0.5,-0.125,0
25630,0.4375,-0.4375,0,0
25650,0.3125,-0.375,-0.0625,0
25670,-0.125,-0.125,-0.0625,0
25690,-0.1875,-0.0625,0.0625,0
25710,-0.5625,0,0.3125,0
25730,-0.625,0.1875,0.3125,0
25750,-0.875,0.4375,0.0625,0
25770,-1.0625,0.3125,0.125,0
25790,-1.25,0.4375,0.375,0
25810,-1.375,0.5625,0.5,0
25830,-1.1875,0.5625,0.1875,0
25850,-0.8125,0.4375,0.0625,0
25870,-0.375,0.4375,-0.25,0
25890,0.0625,0.1875,-0.4375,0
25910,0.4375,0.0625,-0.3125,0
25930,0.625,0.125,-0.25,0
25950,0.875,-0.125,-0.125,0
25970,0.875,-0.3125,0,0
25980,0.875,-0.375,0.25,0
26000,0.6875,-0.375,0.375,0
26020,0.4375,-0.625,0.4375,0
26040,0.3125,-0.5,0.6875,0
26060,0.3125,-0.5,0.625,0
26080,0.25,-0.3125,0.3125,0
26100,-0.0625,-0.3125,0.1875,0
26120,-0.25,-0.3125,0.375,0
26140,-0.0625,-0.25,0.5,0
26160,-0.375,-0.1875,0.5,0
26180,-0.375,0.0625,0.25,0
26200,0,0,0,0
26220,0.4375,-0.0625,-0.3125,0
26240,0.1875,0.0625,-0.1875,0
26260,0.6875,0.0625,-0.1875,0
26280,1.6875,0,-0.9375,0
26300,4,-0.5625,-2,0
26320,4.8125,-0.875,-2.0625,0
26340,3.25,0.0625,-1.0625,0
26360,0.9375,0.625,0.125,0
26380,-1.5,0.8125,1.625,0
26400,-3.4375,1.125,3.125,0
26420,-4.5,1.4375,3,0
26440,-4.375,1.0625,2.0625,0
26460,-3.75,1.0625,1.5,0
26480,-2.875,0.625,0.8125,0
26500,-1.8125,0.6875,0.625,0
26520,4.4375,0.5,8.5,0
26540,2,0.125,-0.375,0
26560,0.75,-0.0625,0.125,0
26580,4,-0.9375,-0.9375,0
26600,3.4375,-1.0625,-0.5,0
26620,4.1875,-1.1875,-1.1875,0
26640,3.4375,-1.375,-1.4375,0
26660,3.4375,-1.4375,-0.8125,0
26680,3.5,-2.25,-1.375,0
26700,3.625,-5.3125,-2.875,0
26720,-0.6875,-4.4375,-5.125,0
26740,-2.375,-3.5,-6.5625,0
26760,-4.1875,-3.875,-10.0625,0
26770,0.5625,-2.4375,-11.4375,0
26790,-0.1875,-1.1875,-11.9375,0
26810,-2,-1.375,-15.375,0
26830,7.4375,-4,-13.75,0
26850,12.625,-1.3125,-9.3125,0
26870,14.5,-1.625,-9.5,0
26890,10.4375,-1.1875,-6.3125,0
26910,2,2.5,-6.1875,0
26940,3.1875,2,-3.75,0
26960,1.125,3.4375,-1.4375,0
26980,3.4375,4,3.125,0
27000,9.75,4.5625,10.25,0
27020,12.0625,4.3125,8.1875,0
27040,15.625,2.6875,10,0
27060,12,1.125,11.9375,0
27080,8.4375,0.9375,9.6875,0
27100,4.8125,0.8125,5.25,0
27120,1.875,1.1875,3.375,0
27140,0.375,1.625,3.5625,0
27160,-1.25,2.25,4.75,0
27180,-2.75,2.25,4.625,0
27200,-2.5,1.1875,4.125,0
27220,-0.625,-0.5,3.0625,0
27240,0.5,-1,0,0
27260,1.0625,-1.25,-0.75,0
27280,1.5,-0.8125,-2.0625,0
27300,1.4375,0.125,-0.25,0
27320,0.375,0.9375,-0.1875,0
27340,0.0625,1.125,0.0625,0
27360,0.5,0.625,-0.125,0
27380,0.875,0.0625,-0.4375,0
27400,0.8125,-0.0625,-0.25,0
27420,0.625,-0.125,-0.5,0
27440,0.4375,0.0625,-0.6875,0
27460,0.3125,-0.0625,-0.5625,0
27480,-0.125,0.1875,-0.4375,0
27500,-1.0625,0.5,-0.1875,0
27520,-1.3125,0.625,0,0
27540,-2.125,0.625,0.125,0
27560,-2.6875,1,0.1875,0
27580,-2.0625,0.4375,-0.5625,0
27600,-1.5625,0.5,-0.8125,0
27620,-0.9375,0.25,-0.8125,0
27640,-0.125,0.125,-0.25,0
27660,0.8125,0.0625,-0.4375,0
27680,1.25,-0.25,-0.5,0
27700,1.6875,-0.5,-0.75,0
27720,1.9375,-0.625,-1,0
27740,2.5,-0.8125,-1.3125,0
27760,2.0625,-1,-1.25,0
27780,1.625,-0.75,-0.5,0
27800,1.8125,-0.8125,-0.25,0
27820,2.625,-1.375,-0.3125,0
27840,2.4375,-1.6875,-0.25,0
27860,2.8125,-1.75,-0.3125,0
27880,1.875,-1.1875,-0.5625,0
27900,1.1875,-0.75,-0.3125,0
27920,0.625,0.125,-0.125,0
27940,0,0.25,-0.1875,0
27960,0.125,0.0625,-0.3125,0
27980,0.3125,-0.125,-0.125,0
28000,0.5,-0.25,-0.3125,0
28020,0.5625,-0.1875,-0.5625,0
28040,0.875,-0.25,-0.5625,0
28060,1,-0.1875,-0.625,0
28080,0.75,0,-0.6875,0
28100,0.6875,0,-0.5,0
28120,0.1875,0.125,-0.4375,0
28140,-0.125,0.0625,-0.5625,0
28160,0.875,-0.75,-0.0625,0
28180,0.375,-0.1875,0.5,0
28200,0.5,-0.1875,0.25,0
28220,0.375,-0.625,0.3125,0
28240,0.625,-0.9375,0.625,0
28260,-0.0625,-0.6875,0.8125,0
28280,-0.6875,-0.5,0.625,0
28300,-0.875,-0.6875,0.25,0
28320,-0.8125,-0.625,0.3125,0
28340,-1.125,-0.25,0.375,0
28360,-1.6875,0.125,0.5,0
28380,-1.75,0.25,0.5625,0
28400,-1.9375,0.4375,0.8125,0
28420,-2.75,1,0.9375,0
28440,-3.4375,1.375,1.3125,0
28460,-3.8125,1.6875,1.25,0
28480,-3.625,1.9375,1.25,0
28500,-3.875,2.25,1.25,0
28520,-4.25,4,2.5625,0
28540,-4.375,0.625,3.5625,0
28560,-4.9375,2.6875,3.4375,0
28580,-4.625,2.5,4.8125,0
28600,-4.625,2.3125,3.8125,0
28620,-5.375,2.625,5.875,0
28640,-6.6875,3.1875,5.0625,0
28660,-8.625,4.375,6.375,0
28680,-6.8125,3.8125,5.5625,0
28700,-5.5,3.1875,5.375,0
28720,-4,2.875,4,0
28740,-1.5625,2.25,2.3125,0
28760,0.75,0.75,1.375,0
28780,1.6875,0,-0.9375,0
28800,3,-0.5,-1.5,0
28820,5.0625,-1.1875,-1.625,0
28840,6.8125,-2.4375,-2,0
28860,7.0625,-3.1875,-1.75,0
28880,8.3125,-3.6875,-1.8125,0
28900,7.9375,-3.6875,-2.375,0
28920,7.625,-3.25,-2.875,0
28940,7.8125,-3.0625,-3.625,0
28960,9,-3.4375,-4.375,0
28980,9.8125,-3.375,-4.875,0
29000,9.25,-3.0625,-5,0
29020,7.8125,-2.625,-4.875,0
29040,6.1875,-1.875,-4.5,0
29060,4.5625,-1.5,-4,0
29080,4.3125,-1.0625,-2.8125,0
29100,3.875,-1.0625,-2.0625,0
29120,4.6875,-1.6875,-1.75,0
29140,6,-2.4375,-1.375,0
29160,7.3125,-3.5,-1.6875,0
29180,8.625,-3.875,-2.3125,0
29200,9.4375,-5,-3,0
29220,9.4375,-5.0625,-2.875,0
29240,8.875,-4.875,-2.4375,0
29260,8.1875,-4.5,-2.375,0
29280,7.25,-4.1875,-1.5625,0
29300,6.5625,-4.125,-0.75,0
29320,6.0625,-3.25,-0.1875,0
29340,5.25,-2.75,-0.4375,0
29360,3.625,-2.25,0,0
29370,2.75,-1.75,0.875,0
29390,1.4375,-1,1.125,0
29410,0.375,-0.4375,1.125,0
29430,-0.8125,-0.0625,1.3125,0
29450,-1.5,0.0625,2,0
29470,-1.5625,0.4375,2,0
29490,-2.25,0.8125,2,0
29510,-2.125,0.9375,1.3125,0
29530,-1.4375,1.0625,0.5625,0
29550,-1.9375,1.4375,0.1875,0
29570,-1.875,1.9375,-0.5,0
29590,-2.375,1.75,-1,0
29610,-2.5,1.4375,-0.5,0
29630,-2.4375,1.4375,0.125,0
29650,-1.8125,1.0625,-0.0625,0
29670,-0.8125,0.375,0.0625,0
29690,0,0.0625,0.25,0
29710,0,0,0.1875,0
29730,-0.3125,-0.1875,0.1875,0
29750,-0.0625,-0.1875,0.3125,0
29770,-0.3125,-0.375,0.8125,0
29790,0.3125,-0.625,1,0
29810,0.8125,-0.8125,1.1875,0
29830,0.3125,-0.3125,1.4375,0
29850,-0.375,0.0625,1.4375,0
29870,-0.5,0,1.0625,0
29890,-0.75,-0.125,1.0625,0
29910,-0.1875,0.1875,0.6875,0
29930,0.4375,0.1875,-0.125,0
29950,0.875,0.1875,-0.75,0
29970,0.875,0.25,-1,0
29990,0.4375,0.4375,-0.9375,0
30010,0,0.8125,-0.9375,0
30030,-0.8125,1.0625,-0.8125,0
30050,-1.1875,1.0625,-0.6875,0
30070,-1.25,0.9375,-0.75,0
30090,-1.125,0.625,-0.625,0
30110,-0.9375,0.5625,-0.4375,0
30130,-1.1875,0.4375,-0.1875,0
30150,-0.875,0.25,0,0
30170,-0.625,-0.25,0.125,0
30190,0.1875,-0.6875,0.1875,0
30210,1.5625,-0.875,-0.125,0
30230,2.1875,-1.25,-0.25,0
30250,3.1875,-1.6875,-0.125,0
30270,6.4375,-2.9375,0.25,0
30290,8.25,-3.875,0.4375,0
30310,7.9375,-3.5625,1,0
30330,8.1875,-3.625,1.1875,0
30350,6.875,-3.6875,0.75,0
30370,7,-3.6875,0.1875,0
30390,7.25,-4.3125,-0.4375,0
30410,7.1875,-3.9375,-0.6875,0
30430,7.75,-3.625,-0.625,0
30450,6.0625,-3.6875,-0.625,0
30470,4.6875,-3.125,-0.6875,0
30490,4.6875,-2.8125,-0.4375,0
30510,3.5,-2.75,-0.625,0
30530,4.125,-2.6875,-0.5625,0
30550,3.4375,-2.4375,-0.4375,0
30570,2.1875,-1.625,-0.625,0
30590,-0.3125,-0.375,-0.5625,0
30610,-2.625,0.5,0.375,0
30630,-4.25,1.25,0.8125,0
30650,-3.3125,1.25,0.6875,0
30670,-2.25,0.5,0.625,0
30690,-1.75,0.6875,0.0625,0
30710,-1.1875,0.625,-0.625,0
30730,0.8125,0.125,-1.5,0
30750,2.75,-0.625,-1.8125,0
30770,3.875,-1.1875,-1.8125,0
30790,3.25,-0.9375,-1.5,0
30810,1.75,-0.3125,-1,0
30830,-0.0625,0.375,-0.4375,0
30850,-2,0.875,0.5,0
30870,-2.8125,1.125,0.6875,0
30890,-2.8125,0.9375,0.75,0
30910,-2.5625,0.75,0.375,0
30930,-2.5625,0.625,0.1875,0
30950,-2.9375,0.9375,0.0625,0
30970,-3.1875,1.0625,0.1875,0
30990,-2.625,0.6875,0.3125,0
31010,-2.0625,0.5625,0.5,0
31030,-2.375,0.9375,0.6875,0
31050,-2.5625,0.9375,0.75,0
31070,-2,0.625,0.75,0
31090,-1.8125,0.6875,0.5625,0
31110,-2.375,1.0625,0.4375,0
31130,-3.1875,1.75,0.1875,0
31150,-3.5,1.9375,0.0625,0
31170,-2.6875,1.6875,-0.1875,0
31190,-2.5625,1.6875,-0.4375,0
31210,-2.625,1.75,-0.6875,0
31230,-2.625,1.9375,-0.75,0
31250,-2.3125,1.875,-0.75,0
31270,-1.75,1.375,-0.625,0
31290,-1,0.8125,-0.5,0
31310,0.4375,0.4375,-0.8125,0
31320,1.0625,-0.0625,-0.6875,0
31340,0.8125,0,-0.4375,0
31360,0.25,0.25,-0.1875,0
31380,-0.625,0.25,-0.375,0
31400,-0.9375,0.1875,-0.0625,0
31420,-0.75,0.125,0.25,0
31440,0.0625,-0.3125,-0.125,0
31460,0.875,-0.625,-0.375,0
31480,1.3125,-0.625,-0.125,0
31500,1.1875,-0.625,-0.1875,0
31520,1.6875,-0.625,-0.3125,0
31540,1.625,-0.6875,-0.375,0
31560,0.9375,-0.5,-0.25,0
31580,0.1875,-0.3125,0.1875,0
31600,0.1875,-0.1875,0.625,0
31620,0.4375,-0.125,0.5625,0
31640,0.125,0.0625,0.25,0
31660,-0.9375,0.25,0.4375,0
31680,-2.5625,0.625,1,0
31700,-3.6875,1.0625,1.125,0
31720,-3.8125,1.375,1.25,0
31740,-3.6875,1.0625,0.875,0
31760,-3.5,1.1875,0.5625,0
31780,-3.625,1.1875,0.5625,0
31800,-3.8125,1.1875,0.5,0
31820,-3.8125,1.3125,0.625,0
31840,-3.4375,1.1875,0.625,0
31860,-3.25,1.4375,1.0625,0
31880,-2.1875,1,1.1875,0
31900,-2.8125,1.3125,1.0625,0
31920,-2.1875,0.75,1.1875,0
31940,-2.1875,0.875,1.5625,0
31960,-2.3125,1,1.5,0
31980,-2.1875,0.5625,1.25,0
32000,-1.75,0.625,1.25,0
32020,-1.625,0.75,1,0
32040,-1.625,0.75,0.5625,0
32060,-1.375,1,0.375,0
32080,-1.1875,1,0.375,0
32100,-1.6875,0.8125,0.6875,0
32120,-1.125,0.6875,0.5,0
32140,-1.1875,0.5625,0.6875,0
32160,-1.25,0.625,0.5,0
32180,-0.375,0.5,0.1875,0
32200,0.5625,0.375,-0.125,0
32220,0.75,0.125,-0.3125,0
32240,0.8125,0.0625,-0.3125,0
32260,0.875,-0.1875,-0.1875,0
32280,0.0625,0.0625,0.125,0
32300,-0.4375,0.5625,0.375,0
32320,-0.625,0.5,-0.0625,0
32340,-0.375,0.125,0.0625,0
32360,0.25,-0.0625,0.5,0
32380,0.25,-0.125,0.4375,0
32400,0.1875,-0.3125,0.4375,0
32420,0.25,-0.3125,0.4375,0
32440,0.625,-0.4375,0.25,0
32460,0.625,-0.3125,0,0
32480,0.25,-0.0625,0.0625,0
32500,-0.125,0.125,0.1875,0
32520,0.1875,-0.0625,0.3125,0
32540,0.6875,-0.1875,0.3125,0
32560,1.125,-0.125,0,0
32580,1.25,0.0625,-0.5,0
32600,0.625,0,-0.4375,0
32620,0.4375,0.125,-0.125,0
32640,0.0625,0.25,0,0
32660,0.125,0.3125,-0.375,0
32680,0.5625,0.0625,-0.4375,0
32700,0.8125,-0.1875,-0.6875,0
32720,0.5,-0.125,-0.5,0
32740,0.4375,0,-0.4375,0
32760,0.5625,0.0625,-0.3125,0
32780,0.0625,0.0625,-0.25,0
32800,0.125,0.0625,-0.25,0
32820,-0.125,-0.125,-0.1875,0
32840,-0.0625,0,-0.0625,0
32860,-0.4375,0,0.0625,0
32880,-0.25,-0.0625,0.0625,0
32900,0,-0.0625,-0.0625,0
32920,0.125,-0.1875,-0.0625,0
32940,0.0625,-0.125,0,0
32960,-0.125,-0.125,0,0
32980,-0.0625,0.0625,0,0
33000,-0.25,-0.0625,0.25,0
33020,-0.3125,0.0625,0.125,0
33040,-0.5625,0.125,0.125,0
33060,-0.4375,0.25,-0.1875,0
33080,0.0625,0.1875,-0.3125,0
33100,0.3125,0.0625,-0.1875,0
33120,0.5625,0.0625,-0.25,0
33140,0.5,0.0625,-0.25,0
33160,0.375,0.0625,-0.4375,0
33180,0.25,-0.0625,-0.25,0
33200,-0.125,0.25,0.125,0
33220,-0.5,0.3125,0,0
33240,-0.5,0,-0.0625,0
33260,-0.8125,0,0.5625,0
33280,-1.1875,0.1875,0.8125,0
33300,-1.4375,0.1875,0.5625,0
33320,-1.625,0.0625,0.375,0
33340,-1.4375,0.375,0.1875,0
33360,-1.25,0.375,0.125,0
33380,-1.25,0.375,0.0625,0
33400,-0.9375,0.4375,-0.1875,0
33420,-0.75,0.375,-0.0625,0
33450,0,-0.125,0.1875,0
33470,0,0.1875,-0.25,0
33490,0.1875,0,-0.5,0
33510,0.1875,-0.125,-0.0625,0
33530,0.3125,-0.0625,0.125,0
33550,0.625,0,0.125,0
33570,0.75,-0.1875,-0.1875,0
33590,0.875,-0.3125,-0.3125,0
33610,1,-0.3125,-0.375,0
33630,0.75,-0.0625,-0.3125,0
33650,0.375,0,-0.125,0
33670,-0.25,0.125,-0.0625,0
33690,-0.8125,0.125,0.1875,0
33710,-0.9375,0.1875,0.0625,0
33730,-1.1875,0.125,0.3125,0
33750,-1.3125,0.1875,0.375,0
33770,-1.125,-0.0625,0.5625,0
33790,-0.6875,0,0.375,0
33810,-0.8125,-0.1875,0.4375,0
33830,-0.8125,-0.0625,0.5625,0
33850,-1.375,0.125,0.5625,0
33870,-1.5,0.3125,0.5625,0
33890,-1,0.25,0.5,0
33910,-1.0625,0.1875,0.375,0
33930,-0.75,0.1875,0.3125,0
33950,-0.75,0.125,0.1875,0
33970,-1.3125,0.25,0.3125,0
33990,-0.6875,0.4375,0.3125,0
34010,-0.4375,0.1875,0.1875,0
34030,0.3125,0.125,0.125,0
34050,0.5625,-0.125,0.375,0
34070,0.1875,0.0625,0.375,0
34090,0,0.125,0.0625,0
34110,-0.875,0.1875,0.1875,0
34130,-1.5625,0.6875,0.5,0
34150,-1.375,0.8125,0.4375,0
34170,-1.75,0.25,0.125,0
34190,-1.5625,0,0.8125,0
34210,-1.5,0.25,1,0
34230,-1.1875,0.1875,0.4375,0
34250,-0.9375,0,0.1875,0
34270,-0.4375,0,0.3125,0
34290,0.125,-0.1875,0.1875,0
34310,0.3125,-0.1875,0.0625,0
34330,-0.0625,-0.0625,0.3125,0
34350,0.25,-0.125,0.1875,0
34370,1.125,-0.1875,-0.125,0
34390,1.8125,-0.3125,0.125,0
34410,2.25,-0.5,-0.125,0
34430,1.875,-0.4375,-0.1875,0
34450,1.3125,-0.3125,0.1875,0
34470,1.125,-0.0625,0.25,0
34490,0.8125,0,0.0625,0
34510,0.6875,-0.0625,-0.1875,0
34530,0.4375,0.125,-0.4375,0
34550,-0.125,0.0625,-0.25,0
34570,-0.5,0.125,-0.0625,0
34590,-0.75,0.1875,0.125,0
34610,-1.125,0.1875,0.125,0
34630,-1.3125,0.1875,0.125,0
34650,-0.4375,0,0.9375,0
34670,-1.5,1.0625,1.125,0
34690,-0.9375,0.375,0.625,0
34710,-2.375,1.125,2.75,0
34720,0.875,-0.3125,-0.625,0
34740,0.5,-0.1875,1.1875,0
34760,0.875,-0.25,0.6875,0
34780,0.5,-0.3125,0.5,0
34800,0.875,-0.3125,0.125,0
34820,2.0625,-0.4375,-0.25,0
34840,2.625,-0.625,-0.6875,0
34860,3,-0.75,-0.8125,0
34880,2.9375,-0.6875,-0.625,0
34900,2.9375,-0.75,-0.3125,0
34920,3.0625,-0.625,-0.25,0
34940,2.4375,-0.375,-0.0625,0
34960,1.75,-0.125,0.0625,0
34980,0.5,0.1875,0.125,0
35000,-1.0625,0.5625,0.5625,0
35020,-2.125,1.125,0.5625,0
35040,-2.375,1.625,0.5,0
35060,-2.4375,0.9375,0.4375,0
35080,-2.1875,0.8125,1.3125,0
35100,-1.9375,0.375,0.625,0
35120,-1.0625,0.125,0.1875,0
35140,-0.9375,0.25,0.8125,0
35160,-1.0625,0.1875,0.3125,0
35180,-0.9375,0.25,0.5625,0
35200,-1,0.25,0.375,0
35220,-1.125,0.25,0.25,0
35240,-0.25,0.125,0.1875,0
35260,0,-0.3125,0.1875,0
35280,0.1875,-0.1875,0.25,0
35300,-0.125,-0.125,0.0625,0
35320,-0.25,-0.25,-0.0625,0
35340,-0.0625,-0.3125,0.3125,0
35360,0.25,-0.4375,0.5625,0
35380,0.4375,-0.6875,0.9375,0
35400,0.5,-1.125,1.75,0
35420,-0.9375,-2.25,3.8125,0
35440,-1.9375,-6.875,10.1875,0
35460,-11.25,-6.625,18.4375,0
35480,-9.0625,-5,22.1875,0
35500,0,-11.625,21.375,0
35520,-2.1875,-9.5625,16.6875,0
35540,-1.9375,-12,-1.625,0
35560,10.0625,-8.375,-18.75,0
35580,21.8125,-25.3125,-42.5,0
35600,-9.4375,-28.75,-61.875,0
35620,-36.875,-58.6875,-83.4375,0
35640,-26.5625,-82.4375,-95.875,0
35660,-28.75,-96.3125,-95.875,0
35680,-27.25,-104.062,-94.25,0
35700,-34.25,-106.375,-89.5625,0
35720,-40.9375,-105.625,-83.4375,0
35740,-47.3125,-103.938,-75.625,0
35760,-47.0625,-101.688,-64.5625,0
35780,-37.6875,-97.5,-51.1875,0
35800,-32.25,-89.75,-37.1875,0
35820,-26.625,-79.5,-29.375,0
35840,-23.6875,-67.5,-22.125,0
35860,-18.4375,-54.5625,-15.4375,0
35880,-7.4375,-42,-6.0625,0
35900,14.3125,-33.8125,-0.125,0
35920,31.1875,-27.125,-4.3125,0
35940,28.9375,-22.875,-11.4375,0
35960,18.625,-18.375,-3.5625,0
35980,17.3125,-12.25,-2.5,0
36000,19.875,-8.375,-1.375,0
36020,18.125,-9.6875,-2.4375,0
36040,14,-9.875,-1.5,0
36060,7.875,-9.6875,4.0625,0
36080,5.6875,-7.25,8.1875,0
36100,6.8125,-3.125,9.625,0
36120,7.875,0.9375,8.375,0
36140,9.625,2.875,3.8125,0
36160,8.75,3.5625,4.5,0
36180,11.25,5.25,5.625,0
36200,10.5625,3.75,4.1875,0
36220,6,0.875,6.875,0
36240,2.75,-1.1875,6.5625,0
36260,1.0625,-2.0625,5.75,0
36280,1.75,-1.8125,5.3125,0
36300,4.0625,-2.5625,3.9375,0
36320,5.75,-4.375,1.875,0
36340,4.5625,-5.75,1.5625,0
36360,1.4375,-5.3125,1.625,0
36380,0,-4.25,2.25,0
36400,1.9375,-4.3125,5.75,0
36420,0.625,-4.4375,8.375,0
36440,-1.625,-2.125,7.75,0
36460,-1.3125,-0.25,8.125,0
36480,0.75,-0.75,9,0
36500,1,0.625,6.75,0
36520,3.1875,3,3.875,0
36540,4.3125,3.5625,3.25,0
36560,2.75,2,1.6875,0
36580,1.375,0.125,2.75,0
36600,0.25,-0.875,4.4375,0
36620,-0.3125,-2,2.875,0
36640,-1.25,-1.5,1.125,0
36650,-2.125,0.3125,1.75,0
36670,0.25,2.9375,2.1875,0
36690,0.5,3.75,1.375,0
36710,-0.3125,4.375,1.5625,0
36730,1.375,5.125,0.9375,0
36750,1.0625,4.625,2.5625,0
36770,2.875,5.1875,4.5,0
36790,1.5625,3.125,1.5,0
36810,0.3125,1.75,0.4375,0
36830,-1.1875,1.0625,-0.4375,0
36850,-0.75,1.3125,-0.9375,0
36870,2.0625,1.1875,0.5625,0
36890,2.625,0.9375,1.25,0
36910,1.25,1.375,0.875,0
36930,1.125,1,0.6875,0
36950,1.6875,0.75,0.4375,0
36970,2.4375,0.75,1.4375,0
36990,2.375,-0.4375,2.3125,0
37010,1.5625,-1.0625,3.4375,0
37030,-1.75,-1.4375,1.375,1000
37050,-1.125,-1.75,-0.8125,0
37070,3.3125,-2.4375,-0.3125,0
37090,4.9375,-2.9375,-0.375,0
37110,2.5,-2.9375,-1.875,0
37130,0.3125,-3.8125,-2.125,0
37150,-0.9375,-5,-1.5,0
37170,0.625,-5,-1.375,0
37190,2.6875,-5.3125,0.125,0
37210,0.625,-5.1875,0.1875,0
37230,-1.125,-6.125,0.25,0
37250,-0.625,-7.375,0.375,0
37270,0.875,-8.3125,0.75,0
37290,1.3125,-9.0625,2.1875,0
37310,1.875,-10.4375,1.5,0
37330,2.4375,-12.0625,0.75,0
37350,1.1875,-13.0625,0.375,0
37370,2.4375,-13.5625,-1.3125,0
37390,3.125,-14.6875,-3,0
37410,2.25,-16.5625,-2.125,0
37430,3.5,-17.9375,-1.375,0
37450,7.0625,-19.0625,-3.25,0
37470,8.4375,-19.1875,-5.4375,0
37490,7.1875,-20.1875,-6.75,0
37510,6.5,-20,-6.1875,0
37530,9.625,-21.5625,-7.9375,0
37550,7.625,-23.625,-8.0625,0
37570,4.625,-24.625,-8.1875,0
37590,2.5625,-26.125,-8.125,0
37610,4,-26.5,-9.1875,0
37630,4,-26.6875,-9.25,0
37650,3.5,-26.3125,-8.3125,0
37670,3.0625,-24.875,-8.0625,0
37690,1.375,-23.75,-7.375,0
37710,1.6875,-22.25,-6.875,0
37730,6.0625,-20.5,-8.4375,0
37750,6.4375,-20.5,-9.9375,0
37770,4.9375,-18.6875,-9.25,0
37790,3.125,-17.9375,-9.875,0
37810,3.0625,-17,-11.875,0
37830,4,-15.375,-12.6875,0
37850,3.5,-12.8125,-13.375,0
37870,2.4375,-10.6875,-11.8125,0
37890,5.0625,-9.4375,-14.5,0
37910,3.5625,-8.9375,-15.8125,0
37930,1.125,-6.1875,-16.0625,0
37950,0.3125,-4.3125,-17,0
37970,2.125,-3.75,-17.25,0
37990,0.625,-3.1875,-14.4375,0
38010,-1.125,-1.5,-12.4375,0
38020,-2.25,-0.1875,-11.5,0
38040,-4.25,0.625,-10,0
38060,-6.25,1.625,-7.3125,0
38080,-5.625,3.1875,-2.625,0
38100,-1.75,5.5,1.875,0
38120,-1.4375,8.25,3.6875,0
38140,-2.3125,8.0625,3,0
38160,-3.0625,7.8125,-0.5625,0
38180,-2.5625,6.375,-0.6875,0
38200,0.3125,6.875,-1.3125,0
38220,0.6875,8.625,-1.75,0
38240,2.5625,7.75,-12.9375,0
38260,1.375,8.8125,-17.875,0
38280,2.8125,11.3125,-21.4375,0
38300,5.625,12.8125,-26.9375,0
38320,7.625,12.3125,-31.5,0
38340,6.75,11.6875,-34.8125,0
38360,2.1875,11.8125,-38.6875,0
38380,-0.875,12.875,-42.0625,0
38400,-1.75,14.625,-46.125,0
38420,0,11.6875,-46.875,0
38440,-1.375,10,-46.6875,0
38460,-2.9375,12.3125,-50,0
38480,-6.6875,13.875,-51.3125,0
38500,-9.5625,12.3125,-52.4375,0
38520,-12.8125,11.375,-50.6875,0
38540,-13.375,14.375,-49.0625,0
38560,-14.5,16.5625,-49.3125,0
38580,-17.6875,16.25,-48,0
38600,-20.75,16.5625,-45.8125,0
38620,-19.8125,17.8125,-44.0625,0
38640,-20.9375,18.4375,-42,0
38660,-22.5625,18.625,-40.625,0
38680,-20.4375,18.9375,-39.125,0
38700,-20,19.9375,-37.9375,0
38720,-22.0625,21.5625,-36.125,0
38740,-22.5625,24,-33.5,0
38760,-22.4375,26.875,-28.5625,0
38780,-21,28.8125,-27.25,0
38800,-18.875,30.5625,-26.8125,0
38810,-19,31.5625,-26.4375,0
38830,-19,32.125,-26.0625,0
38850,-18.75,33.75,-25.75,0
38870,-18.375,36,-25.0625,0
38890,-18.375,38.8125,-20.9375,0
38910,-17.5625,41.3125,-19.6875,0
38930,-16.4375,42.375,-19.3125,0
38950,-16.5625,44.4375,-17.5625,0
38970,-16.9375,45.9375,-12.3125,0
38990,-16.125,49.6875,-9.0625,0
39010,-15.375,51,-9.625,0
39030,-14,50.125,-9.5625,0
39050,-12.6875,47.3125,-9.1875,0
39070,-7.375,45.125,-5.9375,0
39090,-3.4375,43.875,-3.8125,0
39110,-3.625,43.4375,0.5625,0
39130,-8,44.25,1.3125,0
39150,-5.9375,41.25,0.5,0
39170,-1.625,36.4375,2.3125,0
39190,-2.6875,38.3125,7.5625,0
39210,-8.0625,37.6875,10.0625,0
39230,-9.75,35.1875,9.875,0
39250,-9.0625,33.6875,13.5625,0
39270,-2.625,31.9375,16.8125,0
39290,4.875,30.5625,21.5625,0
39310,4.0625,33.4375,27.8125,0
39330,-4.3125,35.9375,28.875,0
39350,-21.875,37.4375,30,0
39370,-32.0625,39.375,33.8125,0
39390,-7.625,38.25,31.875,0
39410,6.5625,34.3125,29.8125,0
39430,-9.125,34.0625,30.5625,0
39450,-10.25,31.25,27.1875,0
39470,-5.375,22.75,18.6875,0
39490,-4.875,17.125,17.4375,0
39510,-0.6875,13.25,20.25,0
39530,-0.8125,10.375,21.6875,0
39550,2.125,7.6875,22,0
39570,4.3125,3.5625,21.9375,0
39590,4,0.5625,22.125,0
39610,1.0625,1,23.375,0
39630,-0.4375,1.3125,28.625,0
39650,-4.125,-0.75,29.1875,0
39670,-0.1875,-3.25,27.5,0
39690,2.0625,-3.5,24.9375,0
39710,-0.625,-2.0625,24.625,0
39730,-0.0625,0.5625,23.6875,0
39750,1.0625,0.25,24.0625,0
39770,4,-0.4375,26.0625,0
39790,5.25,-0.625,25.5,0
39810,5.875,-0.75,22.25,0
39830,3.0625,-2.1875,22.25,0
39850,4.5625,-3.8125,22.375,0
39870,9.5,-5.5,20.4375,0
39890,12.4375,-6.4375,18.625,0
39910,10.125,-8.125,17.9375,0
39930,7.6875,-7.6875,20.4375,0
39950,9.875,-8.8125,22.0625,0
39970,8.25,-10.1875,23.8125,0
39990,6.125,-11.625,23.0625,0
40010,2.0625,-12.125,21.9375,0
40020,3.4375,-13.1875,22.4375,0
40040,3.1875,-15.3125,23.375,0
40060,0.5625,-17,23.5,0
40080,1.6875,-19.25,21.5,0
40100,-0.8125,-20.6875,20.5625,0
40120,-2.125,-22.4375,21.5,0
40140,-3.625,-24.5625,22.1875,0
40160,-1.875,-26.4375,20.75,0
40180,-2.5625,-27.6875,21,0
40200,-4.4375,-29.875,22.5,0
40220,-6.0625,-31.0625,22.5,0
40240,-6.8125,-32.625,21.375,0
40260,-9.1875,-35.125,21.25,0
40280,-5.5,-36.4375,21.625,0
40300,-8.125,-36.875,21.75,0
40320,-11.625,-37.6875,21.375,0
40340,-8.8125,-39.1875,19.25,0
40360,-5,-40.4375,17.9375,0
40380,-6.0625,-38.9375,15.8125,0
40400,-9,-40,14.75,0
40420,-10.5,-40.5625,14.5625,0
40440,-8.5,-40.4375,13.8125,0
40460,-5.4375,-39.75,13.125,0
40480,-3.6875,-39.8125,12.9375,0
40500,-7.1875,-39.25,12.375,0
40520,-7.6875,-36.0625,12.5,0
40540,-5.9375,-34.75,11.125,0
40560,-4.5,-33.6875,10.625,0
40580,-2.0625,-31.75,9.1875,0
40600,-1.4375,-29.9375,8.0625,0
40620,-0.5,-29.1875,7.5,0
40640,2.75,-28.625,4.4375,0
40660,1,-28.6875,1.125,0
40680,-0.125,-28.125,-0.8125,0
40700,-0.0625,-28.625,-1.4375,0
40720,2.0625,-30.625,-1.5625,0
40740,5.1875,-30.0625,-1.75,0
40760,7.0625,-30.375,-5.0625,0
40780,5.5625,-31.1875,-8,0
40800,0.5625,-32.25,-7.1875,0
40820,4.75,-33.1875,-7.5,0
40840,9.125,-34.625,-9.875,0
40860,7.4375,-35.3125,-10.8125,0
40880,8.5625,-34.5,-11.5625,0
40900,5.25,-36.0625,-14.5,0
40920,0.75,-39.875,-14.25,0
40940,2.3125,-41.125,-14.1875,0
40960,3.6875,-41.625,-14.75,0
40980,4.4375,-41.8125,-13.5,0
41000,4.8125,-41.75,-14.8125,0
41020,1.625,-40.875,-15.5625,0
41040,0.875,-39.1875,-16.0625,0
41060,1.75,-37.9375,-16.3125,0
41080,5,-36.9375,-19.1875,0
41100,6.4375,-38.25,-21.9375,0
41120,5.3125,-36.0625,-23.0625,0
41140,5.1875,-33.5625,-25.4375,0
41160,3.875,-31.0625,-28.375,0
41180,1.9375,-28.6875,-30.0625,0
41200,2.6875,-29.3125,-31.25,0
41220,2.4375,-28.5,-32.5,0
41240,-1.3125,-23.75,-31.75,0
41260,-2.25,-21.375,-33.25,0
41280,-3.25,-19.9375,-33.75,0
41300,-1.125,-18.6875,-36.5,0
41320,-2.625,-14.9375,-34.875,0
41340,-7.375,-7.875,-33.375,0
41360,-6.625,-4.8125,-35.75,0
41380,-3.5625,-2,-38.6875,0
41400,-7.25,3.3125,-38.875,0
41420,-12.5625,7,-36.875,0
41440,-10.9375,7.625,-36.625,0
41460,-6.6875,10.25,-36,0
41480,-8.4375,12.5625,-37.9375,0
41500,-14.5,13.8125,-37.75,0
41520,-14,15.1875,-36.75,0
41540,-14.4375,15.9375,-36.375,0
41560,-13.625,16.375,-37.875,0
41580,-11.5,16.5,-39.8125,0
41600,-9.9375,17.3125,-39,0
41620,-13.875,20.25,-39.4375,0
41640,-17.75,21.375,-39.25,0
41660,-14.1875,23.0625,-36.5625,0
41680,-9.5625,22.0625,-36.5625,0
41700,-12.125,23.375,-36.4375,0
41720,-19.9375,25.1875,-34.5,0
41740,-20.9375,27.5625,-33.375,0
41760,-16.25,28.9375,-34.125,0
41780,-12.4375,28.1875,-35.8125,0
41800,-15.9375,28.75,-35.375,0
41820,-18.0625,27.6875,-36.75,0
41840,-21,27.6875,-36.25,0
41860,-16.5625,27.875,-36.1875,0
41880,-11.875,26.625,-35.375,0
41900,-15.4375,28.875,-33.5625,0
41920,-20.6875,31.5,-32.1875,0
41940,-21.4375,34.125,-30.5625,0
41960,-18.5625,34.9375,-29.25,0
41970,-13.875,34.6875,-28.8125,0
41990,-14.75,33.5625,-29.4375,0
42010,-14.75,33.125,-27.5,0
42030,-12.375,33.5625,-24,0
42050,-12.125,34.0625,-23,0
42070,-12.6875,31.4375,-20.9375,0
42090,-10.125,29.5625,-18.25,0
42110,-9.3125,28.75,-17.3125,0
42130,-11.4375,29.6875,-14.3125,0
42150,-11.5,30.1875,-9.5625,0
42170,-9.3125,29.9375,-6.375,0
42190,-8.375,29.625,-5.4375,0
42210,-9.625,28.8125,-4.75,0
42230,-10.5,28.8125,-1.25,0
42250,-9.75,29.5625,0.1875,0
42270,-7,29.8125,3.1875,0
42290,-6,30.8125,3.5625,0
42310,-6.9375,32.0625,3,0
42330,-5.0625,31.625,3.875,0
42350,-4.625,32.3125,7.875,0
42370,-6.0625,35.25,8.9375,0
42390,-4.25,34.75,9.875,0
42410,-0.75,31.3125,9.9375,0
42430,-4.75,33,10.4375,0
42450,-6.625,32.875,11.125,0
42470,-5.8125,31.5,15.6875,0
42490,-6.125,29.1875,17.25,0
42510,-6.4375,28.75,16.625,0
42530,-9.5625,31.3125,17.875,0
42550,-8.0625,31,18.875,0
42570,-8.1875,29.3125,22.9375,0
42590,-10.125,28.9375,22,0
42610,-7.5625,29.4375,19.5,0
42630,-6.125,28.25,20.125,0
42650,-5.625,27,20.5,0
42670,-4.0625,26.1875,21.5,0
42690,-9.625,28.1875,20.125,0
42710,-9.625,25.625,18.8125,0
42730,-2.6875,22.75,19.9375,0
42750,-3.5,20.5625,20.0625,0
42770,-7.1875,20.75,18.0625,0
42790,-6.6875,18.4375,17.3125,0
42810,-8.0625,16.9375,19.0625,0
42830,-4.4375,17,17.75,0
42850,-4.3125,14.5625,18.875,0
42870,-5.6875,13.75,18.25,0
42890,-6.625,11.0625,14.625,0
42910,-5.1875,8.4375,15.0625,0
42930,-8.5625,8.5,15.375,0
42950,-3.625,6.8125,15.25,0
42970,-1.9375,2.5,13.625,0
42990,-5.8125,-0.6875,11.5625,0
43010,-4.25,0.4375,13.4375,0
43030,0.125,-2.125,12.5625,0
43050,-2.125,-3.625,13.125,0
43070,-1.625,-4.375,11.625,0
43090,-0.0625,-5.6875,12.125,0
43110,3.5,-7.5,11.8125,0
43130,3.75,-7.875,12.3125,0
43150,0.875,-9.125,13.1875,0
43170,-1.875,-10.3125,14,0
43190,-0.0625,-9.3125,14.875,0
43210,3,-9.0625,14.6875,0
43230,1.5,-9.6875,14.3125,0
43250,0.75,-10.0625,14.5,0
43270,3.3125,-9.375,14.375,0
43290,1.5,-8.625,14.6875,0
43310,1.5,-8.9375,15.6875,0
43330,1.625,-8.625,16.75,0
43350,1,-7.6875,18.0625,0
43370,0.6875,-7.75,17.5,0
43390,1.25,-8.125,19.875,0
43410,-1.0625,-9.3125,19.5625,0
43430,-5.3125,-8.5,19.6875,0
43450,-4.3125,-9.0625,22.625,0
43470,-3.8125,-11.625,25.75,0
43490,-10.6875,-12.125,30.9375,0
43510,-15.8125,-11.5,31.6875,0
43530,-17.125,-10.6875,32.4375,0
43550,-14.9375,-12.6875,31.25,0
43570,-12,-12.0625,28.3125,0
43590,-12.8125,-11.5,25.9375,0
43610,-16.25,-12.375,24.25,0
43630,-11.5625,-13.875,23.5625,0
43650,-10.0625,-13.6875,22.125,0
43670,-12.625,-13.5625,21.8125,0
43690,-11.0625,-13.375,20.3125,0
43710,-7.9375,-13.5,17.25,0
43730,-7.875,-13.125,15.5,0
43750,-6.875,-13.3125,14.125,0
43770,-3.125,-13.3125,12.75,0
43790,-2.5625,-14.0625,9.9375,0
43810,-3.8125,-16.3125,8.75,0
43830,-4.9375,-18.0625,8,0
43850,-4.3125,-19.4375,6.8125,0
43870,-7.9375,-20.1875,7.25,0
43890,-6.625,-20.9375,7.8125,0
43910,-2.625,-22.25,6.9375,0
43930,-3.375,-23.6875,7.75,0
43950,-6.5,-25.3125,7.9375,0
43970,-6.375,-26.0625,7.6875,0
43990,-6.0625,-28.5,7.125,0
44010,-7.1875,-31.6875,8.6875,0
44030,-10.875,-32.3125,11.5,0
44050,-14.3125,-32.625,13.5,0
44070,-18.5,-32.9375,15.6875,0
44090,-15.8125,-32.75,15.5,0
44110,-9.5,-33.6875,13.6875,0
44130,-12.0625,-33.375,12.5,0
44150,-12.8125,-32.375,11.9375,0
44170,-11,-31.875,9.5625,0
44190,-9.125,-31.5,8.25,0
44210,-6.625,-31.6875,6.8125,0
44230,-8.4375,-31.25,6.6875,0
44250,-6.1875,-31.0625,6.25,0
44270,-3.9375,-30.3125,4.1875,0
44290,-3.25,-29.4375,3.3125,0
44310,-1.25,-29.5,1.875,0
44330,-0.375,-28.3125,0.375,0
44350,0.5625,-27.875,-1.3125,0
44370,1,-27.8125,-0.8125,0
44390,3.125,-28,-2,0
44410,0.0625,-28.4375,-3.3125,0
44430,-3.75,-30.125,-3,0
44450,-1.5,-30.6875,-3.125,0
44470,0.0625,-31.75,-4.3125,0
44490,-0.6875,-36.75,-7.5,0
44510,0.8125,-39.25,-8.1875,0
44530,-1,-37.75,-10.1875,0
44550,-3.875,-37,-13.0625,0
44570,-1.6875,-37.6875,-12.1875,0
44590,1.5,-36.3125,-14.4375,0
44610,3.4375,-34.625,-16.5,0
44630,4.6875,-33.6875,-17.125,0
44650,5.25,-32.625,-18.625,0
44670,3.5,-30.6875,-19.3125,0
44690,-0.1875,-29.625,-19.5625,0
44710,-0.6875,-30,-18.3125,0
44730,7.625,-31.9375,-16.125,0
44750,11.3125,-30.1875,-17,0
44770,4.1875,-26.625,-17.6875,0
44790,-5.25,-28.3125,-15.9375,0
44810,-5.9375,-29.0625,-14.875,0
44830,0,-28.8125,-15.6875,0
44850,4.4375,-28.625,-15.75,0
44870,3.1875,-28.125,-15.625,0
44890,6.0625,-28.0625,-17.0625,0
44910,6.625,-28.1875,-19.375,0
44930,1.5625,-27.5,-19.875,0
44950,-0.8125,-26.75,-19.5,0
44970,3.5625,-26.6875,-17.8125,0
44990,8.4375,-29.375,-21.25,0
45010,8,-31,-24.3125,0
45030,7,-29.625,-24.1875,0
45050,0.5625,-27.0625,-26.125,0
45070,-2.25,-25.75,-26.625,0
45090,0.6875,-24.8125,-26.25,0
45110,3.75,-24,-27.8125,0
45130,2.5,-18.9375,-28.125,0
45150,0.375,-14.6875,-30.1875,0
45170,-0.8125,-13.5625,-31.25,0
45190,-2.5625,-10.5,-30.8125,0
45210,-3.125,-8.3125,-29.875,0
45230,-4.1875,-4.6875,-27.9375,0
45250,-9.25,2.5625,-25.625,0
45270,-6.125,4.875,-26.375,0
45290,-2.0625,3.1875,-28.3125,0
45310,-2.6875,4.4375,-31.0625,0
45330,-8.3125,6.1875,-31.375,0
45350,-12.625,7.3125,-32.75,0
45370,-13.8125,9.5625,-31.9375,0
45380,-14.75,11.625,-31.6875,0
45400,-12.625,12.3125,-31.8125,0
45420,-10.125,12.5625,-31.6875,0
45440,-13,14.9375,-34.3125,0
45460,-20.1875,16.875,-34.875,0
45480,-19.9375,18.3125,-34.875,0
45500,-14.5,20.75,-32.25,0
45520,-17.375,23.5625,-34.125,0
45540,-23.1875,26.9375,-32.0625,0
45560,-25.25,28.4375,-29.625,0
45580,-19.625,26.4375,-32.6875,0
45580,-15.4375,23.75,-33,0
45600,-18.5625,23.25,-32.9375,0
45620,-20.8125,24.9375,-32.75,0
45640,-22.125,24.3125,-32.4375,0
45660,-22.375,24.125,-30.0625,0
45680,-20.8125,25.0625,-26.875,0
45700,-17.375,23.6875,-27.0625,0
45720,-19.125,23.375,-24.5625,0
45740,-22.25,23.1875,-21.375,0
45760,-21.5,23.375,-20.75,0
45780,-21.625,25.5625,-18.5,0
45800,-21.1875,27.5,-17.75,0
45820,-21.5625,29.875,-17.3125,0
45840,-19.9375,30.6875,-17.3125,0
45860,-16.5,29.125,-16.4375,0
45880,-17.125,29.0625,-15.125,0
45900,-13,28.3125,-16.0625,0
45920,-13.8125,28,-14.625,0
45940,-14.6875,27.875,-12.125,0
45960,-14.8125,26.4375,-11.8125,0
45980,-12.375,24.75,-10.625,0
46000,-10.25,25.5,-7.875,0
46020,-10.375,26.75,-6.8125,0
46040,-12.1875,28.375,-6.625,0
46060,-13.5625,31.6875,-5.125,0
46080,-12.5,34.75,-3.8125,0
46100,-8,35.4375,-4.25,0
46120,-7.25,36.6875,-0.5,0
46140,-5.1875,38.5,2.5,0
46160,-3.6875,39.5,2.5625,0
46180,-3.25,40.25,6,0
46200,-4.5625,43,6.9375,0
46220,-14.8125,47.125,8.9375,0
46240,-21.5625,47.75,17.75,0
46260,-4,42.1875,21.75,0
46280,11.6875,38.875,18.6875,0
46300,4.75,42.1875,17.0625,0
46320,-9.625,41.6875,17.4375,0
46340,-12.75,38,16.5,0
46360,-12.9375,37.5625,18.0625,0
46380,-12.1875,39.75,23.5625,0
46400,-5.5,38.125,31.375,0
46420,8.75,31,31.1875,0
46440,6.3125,29.4375,29.3125,0
46460,-9.5,31.875,31.25,0
46480,-12.5625,29.5,32.0625,0
46500,-2.0625,22,31.75,0
46520,1.3125,19.5,31.625,0
46540,0.375,22.125,30.625,0
46560,-11.375,23.6875,31.625,0
46580,-7.875,19.5625,31.375,0
46600,-0.3125,16.8125,30.875,0
46620,-1.4375,21.1875,31.5,0
46640,-6.5625,22.625,35.1875,0
46660,-7.3125,18.5,36,0
46680,-3.4375,14.625,34.5,0
46700,-5.5,15.5,34.4375,0
46720,-9.5,14.9375,37.8125,0
46740,-7.125,12.75,34.3125,0
46760,-1.125,7.9375,32.6875,0
46780,-6.3125,4.625,29.4375,0
46800,-12.875,6,28.125,0
46820,-10.4375,3.4375,26.625,0
46840,-4.8125,-1.0625,25.1875,0
46860,3.5,-4.125,22.5625,0
46880,6.5625,-9.4375,20.3125,0
46900,0.4375,-12.625,16.1875,0
46920,-4.6875,-11.4375,14.75,0
46940,-2.25,-11.4375,16.75,0
46960,2.6875,-12.3125,17.25,0
46980,3.0625,-11.9375,17.3125,0
47000,4.6875,-10.1875,19.0625,0
47020,6.125,-9.0625,16.375,0
47040,3.0625,-9.5625,13.8125,0
47060,3.5,-11.0625,16.4375,0
47080,7.625,-10.25,18.9375,0
47100,7.1875,-10.1875,17.875,0
47120,-0.1875,-12.125,18,0
47140,-1.375,-12.6875,19.625,0
47160,-0.0625,-13.9375,20.375,0
47180,-4.625,-14.0625,22.25,0
47200,-6.75,-15.5,26.25,0
47220,-2.125,-17.6875,24.25,0
47240,-3.9375,-19.0625,23.6875,0
47260,-7.0625,-20.375,22.8125,0
47280,-6.75,-21.4375,23.3125,0
47300,-2.3125,-23.4375,20.625,0
47320,-4.8125,-24.5625,20.9375,0
47330,-8.1875,-24,21.375,0
47350,-7.75,-26.0625,18.6875,0
47370,-5.5625,-27.9375,18.25,0
47390,-2.9375,-28.5625,16.8125,0
47410,-2.6875,-30.9375,15.4375,0
47430,-7.5625,-30.75,15.125,0
47450,-9,-31.75,14,0
47470,-5.3125,-34.3125,12.375,0
47490,-2.75,-35.5625,10.25,0
47510,-4.0625,-36.9375,9.5,0
47530,-5.75,-38.25,8.125,0
47550,-8.4375,-39.1875,6.6875,0
47570,-7.8125,-40.375,6.0625,0
47590,-6.8125,-41.5,4.75,0
47610,-3.0625,-43.4375,1.4375,0
47630,-1.125,-43.625,-1.75,0
47650,0.75,-43.1875,-4.5,0
47670,-1.4375,-44.6875,-6.5,0
47690,-1.5,-47.125,-9.25,0
47710,-3,-47.5,-11.375,0
47730,-1.5625,-48.25,-11.3125,0
47750,3.6875,-48.625,-12.875,0
47770,1.0625,-47.5625,-17.4375,0
47790,0.3125,-47.9375,-18.75,0
47810,2.5,-48.1875,-20.1875,0
47830,-0.0625,-47.5625,-21.3125,0
47850,-3.3125,-45.375,-21.8125,0
47870,0.25,-44.125,-22.9375,0
47890,6.6875,-44.4375,-24.125,0
47910,6.25,-45.6875,-26.125,0
47930,4.6875,-44.125,-25.75,0
47950,5.8125,-41.1875,-27.75,0
47970,4,-41.3125,-30.4375,0
47990,3.0625,-43.8125,-29.9375,0
48010,3.9375,-41.9375,-30.5,0
48030,2.8125,-40.125,-30.4375,0
48050,0.875,-41.0625,-30.1875,0
48070,6.9375,-46.625,-33.5625,0
48090,17.125,-50.375,-36.6875,0
48110,12.0625,-44.6875,-37.6875,0
48130,-0.6875,-38.4375,-39.6875,0
48150,2.625,-40.6875,-39.625,0
48170,11.6875,-44.5625,-45.6875,0
48190,15.3125,-41.75,-48.75,0
48210,17.0625,-38.4375,-47.4375,0
48230,15.375,-34,-46.8125,0
48250,7.9375,-30.8125,-49,0
48270,6.4375,-28.875,-49.0625,0
48290,8.625,-28.125,-43.1875,0
48310,9.1875,-22.3125,-39,0
48330,3.6875,-17.375,-36,0
48350,0.5625,-14.125,-31,0
48370,0,-11.25,-23.625,0
48390,-0.125,-6.375,-17.0625,0
48410,-1.875,-3,-11.6875,0
48430,-2.6875,-4.5,-7,0
48450,0.375,-4,-3.625,0
48470,2.75,-0.5625,-3.625,0
48490,1.5,2.75,-0.5,0
48510,2.1875,5.4375,-1,0
48530,-0.8125,7.5625,-2,0
48550,-4.375,10.25,0.3125,0
48570,-2.4375,12.1875,1.5625,0
48590,3.125,11.9375,1.375,0
48610,6.125,13.3125,1,0
48630,3.4375,16.3125,0.4375,0
48650,-2.8125,16.375,0.0625,0
48670,-5.25,14.9375,1.25,1001
48690,1.4375,12.375,1.3125,0
48710,2.5625,11.25,1.1875,0
48730,2.125,11.75,0.875,0
48750,3.75,9.6875,1.8125,0
48770,-0.25,10.75,4.6875,0
48790,-7,12,6.375,0
48810,-6.5,10.0625,8.75,0
48830,-0.3125,6.875,9.375,0
48850,3.3125,4.5625,8.875,0
48870,-1,4.5,8.4375,0
48890,-2.875,4.5625,7.5,0
48910,-2.75,2.3125,5.875,0
48930,0.1875,0.25,2.75,0
48950,2.3125,-0.6875,0.8125,0
48970,3.5,0.5,0.5,0
48990,1.75,1.75,-0.4375,0
49010,-0.1875,1.5,-1.5625,0
49030,1.125,0.875,-1.4375,0
49050,3.25,-1.6875,-2.625,0
49070,1.0625,-2.1875,-2.5,0
49090,1.875,-1.25,-0.625,0
49110,0.8125,-0.0625,0.6875,0
49130,-0.375,-0.5,2.6875,0
49150,0.375,-2.25,4.125,0
49170,-0.6875,1.375,6.6875,0
49190,-1.75,5.25,9.1875,0
49210,-0.75,12.0625,13.5,0
49230,-1.0625,19.375,19.25,0
49250,1.9375,22.875,26.25,0
49270,3.3125,24.125,34,0
49290,-1.625,29.3125,42.375,0
49310,-6.5,44.375,51.0625,0
49330,-8.1875,56.125,58.25,0
49350,3.375,58.25,57.8125,0
49370,15.0625,61.0625,56.4375,0
49390,26.75,66.75,61.25,0
49410,27.4375,67.25,61.75,0
49430,24.9375,66.5625,57.125,0
49450,21.5,74,56.25,0
49470,32.625,71.875,68.25,0
49490,22.125,44.9375,80.5625,0
49510,23.625,41.8125,86.375,0
49530,29.5625,55.875,86.3125,0
49550,24.75,54.4375,87.625,0
49570,27.375,31.125,77.875,0
49590,14.25,18.5625,77.5625,0
49610,28.125,23.625,84.8125,0
49630,41.1875,19.5625,80.6875,0
49650,39.625,10.5,65.3125,0
49670,12,12.4375,63.5,0
49690,5.75,12.125,70.125,0
49710,7.625,0.6875,66.5625,0
49730,9.0625,0.125,52.625,0
49750,-1.75,7.8125,46.125,0
49770,-7.8125,6.0625,43.9375,0
49790,-0.9375,3.375,37.75,0
49810,4.75,6.5,28,0
49830,1.75,10.3125,28.375,0
49850,-1.1875,9.6875,26.9375,0
49870,-2.0625,8.3125,20.0625,0
49890,-2.6875,7.375,14.4375,0
49910,-4.125,6.5625,12.625,0
49930,-4.5625,5.5,10.3125,0
49950,-4.0625,4.6875,7.0625,0
49970,-2.375,4.5,5.0625,0
49990,-1.625,4,4.25,1000
50010,-3.25,3.0625,4.0625,0
50030,-4.3125,2.5625,3.6875,0
50050,-2.875,1.4375,1.4375,0
50070,0.1875,0.625,1.0625,0
50090,-1.9375,-0.6875,2.25,0
50110,-0.8125,-1.8125,1.1875,0
50130,1.875,-2.375,0.3125,0
50150,0.8125,-0.5625,-0.3125,0
50170,-1.6875,1.1875,-0.5625,0
50190,-3.9375,1.6875,0.1875,0
50210,-1.6875,1.8125,0.625,0
50230,0.5625,1.5,2.0625,0
50250,1.1875,1.0625,2.875,0
50270,0.5625,1.125,2.125,0
50290,-2,0.125,2.5625,0
50310,-3.375,-0.375,2.1875,0
50330,-2.125,-1.3125,2,0
50350,0.6875,-2.5625,1.125,0
50370,2.3125,-3.0625,0.5,0
50390,1.0625,-3.0625,-1.6875,0
50410,-1.75,-3.4375,-2.6875,0
50430,0.0625,-3.375,-3.3125,0
50450,1.5,-3.25,-3.125,0
50470,0.25,-3.1875,-0.8125,0
50490,-0.5,-2.5,1.0625,0
50510,0,-1.5625,1.4375,0
50530,-0.125,-1.625,2.125,0
50550,1.1875,-2.125,1.1875,0
50570,2.0625,-1.6875,1.375,0
50590,2.1875,-1.1875,1.125,0
50610,0.25,-2.625,1.8125,0
50630,0.375,-3.5625,1.5625,0
50650,2.8125,-3.5625,1.25,0
50670,0.4375,-4.25,1.5,0
50690,-2.125,-5.125,1.5625,0
50710,-3.125,-5.5,2.4375,0
50730,-2.5625,-5.875,3.5625,0
50740,0,-5.25,4.1875,0
50760,1.4375,-5.125,3.875,0
50780,0.875,-4.75,2.75,0
50800,0.125,-2.8125,1.4375,0
50820,-0.125,-2.5625,-0.375,0
50840,-2.75,-2.9375,1.5625,0
50860,-1.3125,-3.4375,3.25,0
50880,1.3125,-3.8125,1.625,0
50900,1.75,-2.8125,1.875,0
50920,0.1875,-3.1875,2.625,0
50940,-3.9375,-4.125,2.5625,0
50960,-1.1875,-4.0625,3.5,0
50980,0.5,-4.625,3.1875,0
51000,0.3125,-5,3.3125,0
51020,0.0625,-4.9375,2.75,0
51040,-0.625,-4.8125,1.5625,0
51060,0.6875,-4.5,1,0
51080,1.5625,-4.8125,0.5625,0
51100,2.1875,-5,1.25,0
51120,2.25,-5,0.625,0
51140,2.1875,-4.9375,0.625,0
51160,3.25,-4.9375,-0.5625,0
51180,1.75,-6.5,-1.375,0
51200,1.6875,-7.375,-1.625,0
51220,1.625,-8.3125,-2.375,0
51240,2.75,-9.9375,-3.5625,0
51260,1.625,-10.8125,-3.5,0
51280,1,-11.375,-3.1875,0
51300,0.6875,-13.1875,-4.625,0
51320,-1.125,-14.1875,-4.875,0
51340,1.5,-15.0625,-5.75,0
51360,3.3125,-16.75,-6.375,0
51380,1.4375,-19.0625,-6.9375,0
51400,-0.375,-20.8125,-7.25,0
51420,-0.25,-21.9375,-7.0625,0
51440,1.8125,-22.1875,-7.875,0
51460,2.375,-23.125,-8.3125,0
51480,2.1875,-24.1875,-9.6875,0
51500,0.6875,-24.8125,-10.6875,0
51520,-1.125,-24.5625,-9.4375,0
51540,1.9375,-24.8125,-11.5625,0
51560,4.4375,-26.5625,-11.9375,0
51580,3.5,-25.8125,-11.5625,0
51600,1.9375,-26.1875,-11.125,0
51620,2.625,-26.375,-11.75,0
51640,3,-26,-13.375,0
51660,1.9375,-25.75,-14.0625,0
51680,-0.25,-23.875,-11.5625,0
51700,1,-23.875,-13.9375,0
51720,-0.9375,-25.0625,-15.9375,0
51740,-2.875,-25.1875,-15.5625,0
51760,0.6875,-25.8125,-15.9375,0
51780,-1.125,-25.75,-16.4375,0
51800,-1.8125,-23.875,-16.125,0
51820,-1.375,-23.1875,-16.4375,0
51840,-2.5625,-20.125,-17.8125,0
51860,-3.5,-20.75,-18.0625,0
51880,-3,-21.4375,-19.8125,0
51900,-0.75,-22.5,-21.875,0
51920,-0.625,-21.6875,-22.125,0
51940,-1.375,-20.875,-24.125,0
51960,-3.25,-20.0625,-23.875,0
51980,-2.0625,-18.8125,-24.75,0
52000,0.4375,-18,-25.8125,0
52020,-2,-16.3125,-25.9375,0
52040,-5.75,-15.3125,-28.3125,0
52060,-7.375,-15.625,-26.625,0
52080,-5.375,-15.125,-27,0
52100,-5.5625,-14.25,-27.6875,0
52120,-6.9375,-12.9375,-27.9375,0
52140,-8.6875,-12.3125,-28.0625,0
52160,-8.6875,-12.125,-27.8125,0
52180,-9.5,-10.8125,-27.5,0
52200,-11.5625,-8.9375,-26.5625,0
52220,-11.5625,-6.375,-27.4375,0
52240,-12.125,-5.75,-26.5625,0
52260,-11.3125,-3.5625,-27.5,0
52280,-10.125,-0.25,-26.625,0
52300,-12,3.375,-26.5625,0
52320,-13.5,7.75,-27.25,0
52350,-13.75,7.9375,-28.3125,0
52370,-14.0625,7.5,-29.875,0
52450,-22.5625,12.5,-36.125,0
52480,-22.9375,12.8125,-37.375,0
52500,-23.9375,13.125,-36.625,0
52520,-26.25,14.375,-37.3125,0
52540,-26.5,16.125,-35.5625,0
52560,-24.8125,18.3125,-32.9375,0
52580,-26.125,22.1875,-31.75,0
52600,-26.625,26.8125,-29.875,0
52620,-23.0625,29.5625,-26.75,0
52640,-21.4375,32.5625,-25.25,0
52660,-23.6875,34.6875,-25.1875,0
52670,-22.5625,35.5,-23.75,0
52690,-20.375,35.75,-21.375,0
52710,-22.375,36,-19.5,0
52730,-20.0625,38.5625,-17,0
52750,-16,39.75,-13.5,0
52770,-16.9375,42.3125,-12.625,0
52790,-17.875,44.9375,-11.25,0
52810,-14.3125,47.125,-8.875,0
52830,-12.625,50,-7.0625,0
52850,-16.625,54,-8.4375,0
52870,-16.125,57.1875,-6.625,0
52890,-14.6875,59.125,-3.8125,0
52910,-13.3125,60.5625,-3.625,0
52930,-14,63.1875,-2.625,0
52950,-13.4375,64.875,-1.0625,0
52970,-12.6875,66.5625,1.0625,0
52990,-14.75,68.625,3.25,0
53010,-15.5,69.1875,4.8125,0
53030,-11.4375,67.75,6.625,0
53050,-11.3125,67.375,8.0625,0
53070,-13.875,68.5,9.375,0
53090,-15.0625,67,14.25,0
53110,-9.75,63.1875,15,0
53130,-0.375,57.125,14.1875,0
53150,2.5,49.4375,13.625,0
53170,-3.875,46.4375,16.625,0
53190,-6.75,40.75,19.8125,0
53210,-2.0625,34.4375,17.0625,0
53230,-0.3125,31.9375,16.4375,0
53250,-5.1875,33.4375,16.125,0
53270,-7,28.625,16.25,0
53290,-1.625,24.125,14.75,0
53310,-2.25,21.3125,13.75,0
53330,-4.625,19.0625,11.1875,0
53350,-11.875,16.9375,8.3125,0
53370,-11.6875,16.375,9.6875,0
53390,-1.875,14.5,9.4375,0
53400,-0.875,15.375,10.1875,0
53420,-4.625,16.75,11.125,0
53440,-9.75,17.9375,8.0625,0
53460,-7.625,17.75,7,0
53480,-6.0625,17.625,9.8125,0
53500,-2.1875,19.75,8.8125,0
53520,-1.6875,17.75,7.375,0
53540,-2.1875,16.25,8.5625,0
53560,-3.6875,18.5625,10.25,0
53580,-5.4375,19.9375,13.25,0
53600,-4.875,18.5625,16.5,0
53620,-1.3125,14.125,15.1875,0
53640,-2.875,16.875,13.875,0
53660,-5.875,17.3125,13.8125,0
53680,-1.9375,15.1875,16.5625,0
53700,-0.625,13.3125,13.5,0
53720,-4.875,13.0625,11.9375,0
53740,-3.9375,12.75,12.8125,0
53760,-3.4375,11.875,14.375,0
53780,-2.125,10.6875,15.125,0
53800,-4.375,9.4375,13.5,0
53820,-3.5625,10,13.5,0
53840,-1.8125,7.5625,12.6875,0
53860,-1.75,8.1875,14.375,0
53880,-5.375,8.9375,12.625,0
53900,-5.625,8,11.6875,0
53920,-6.5,6.75,14.5625,0
53950,-1.625,5.625,13.625,0
53970,-2.125,5,13.5,0
53990,-7,4.4375,14.25,0
54010,-5.6875,4.5625,15.4375,0
54030,-1.6875,4.125,16.375,0
54050,-1.75,1.4375,15.125,0
54070,-3.6875,-0.1875,14.8125,0
54100,-3.9375,-2.125,15.8125,0
54120,-2.25,-3.6875,16.75,0
54140,-2.625,-4.8125,17.6875,0
54160,-4.125,-6.3125,17.3125,0
54180,-4.5625,-6.6875,18.3125,0
54200,-2.8125,-8.0625,16.5625,0
54230,-2,-11.25,17.125,0
54250,-2.125,-12.125,14.75,0
54270,-4.1875,-12.6875,14.4375,0
54300,0.5,-15.375,15.375,0
54320,-1.625,-16.375,16.125,0
54340,-1.6875,-17.5,15.9375,0
54360,-1.75,-19.0625,16.0625,0
54380,-1.125,-20.4375,17,0
54400,-2.4375,-21.625,17.25,0
54420,-4.625,-22.75,16.0625,0
54440,-3.5,-23.4375,16.875,0
54460,-4.125,-24.1875,17.3125,0
54480,-5.375,-25.1875,17.8125,0
54500,-7.125,-26.1875,19.375,0
54520,-4,-26.8125,19.3125,0
54540,-4.4375,-26,17.6875,0
54560,-6.75,-26,16.875,0
54580,-6.6875,-26.1875,16.5625,0
54600,-3.875,-25.25,14.75,0
54620,-5,-24.5625,13.1875,0
54640,-6.0625,-24.0625,12.625,0
54660,-4.875,-23.625,12.5625,0
54680,-0.9375,-24.6875,13.25,0
54700,-5.5625,-23.6875,12.3125,0
54720,-6.1875,-22.625,12.375,0
54740,-5.1875,-24.5,12.75,0
54760,-4.5,-24.5,11.6875,0
54780,-4.3125,-24.25,11.5625,0
54800,-3.875,-24.625,13.4375,0
54820,-5.4375,-25.125,12.9375,0
54840,-5.5,-24.5625,11.25,0
54860,-2.375,-24.375,11.3125,0
54880,-2.5,-25.9375,11.75,0
54900,-2.75,-25.1875,10.75,0
54920,-2.25,-24.3125,9.625,0
54940,-2.75,-26.0625,10.25,0
54960,-1.5625,-26.9375,9,0
54980,-0.875,-25.9375,8.5625,0
55000,-1.625,-27.1875,8.375,0
55020,-1.0625,-29.4375,6.9375,0
55040,-2.25,-29.5,6.625,0
55060,-1.75,-29,5.375,0
55080,-3.0625,-30.1875,4.625,0
55100,-3.5,-31.1875,4.25,0
55120,-0.4375,-31.1875,3.4375,0
55140,-0.125,-31.25,2.875,0
55160,-3.375,-31.625,2.1875,0
55180,-2.25,-32.5,2.4375,0
55200,-1.0625,-31.875,1.8125,0
55220,-0.25,-31,-0.0625,0
55240,0.375,-31.625,0,0
55260,0.0625,-31.5,-0.3125,0
55280,-0.6875,-30.8125,-1.1875,0
55300,0.875,-31.3125,-1.3125,0
55320,0.1875,-31.6875,-2.0625,0
55340,-1.5,-31.75,-3.25,0
55360,0,-31.375,-3.625,0
55380,2.1875,-30.8125,-4.25,0
55400,1,-31.0625,-4.9375,0
55420,-0.375,-29.375,-5.25,0
55440,-1.125,-28.625,-6.0625,0
55460,0.875,-29.0625,-6.3125,0
55480,8.125,-30.375,-5.8125,0
55500,9.125,-29.4375,-7.5,0
55520,6.4375,-26.0625,-8.4375,0
55540,3.4375,-25.0625,-8.3125,0
55560,1.5,-25.8125,-8.5625,0
55580,2.625,-26.6875,-8.25,0
55600,4.9375,-27.4375,-6.9375,0
55620,6,-27.125,-5.4375,0
55640,3.9375,-27.8125,-6.0625,0
55660,0.875,-27.8125,-6,0
55680,0.3125,-27.5625,-6.1875,0
55700,2.8125,-30.4375,-9,0
55720,4.125,-32.1875,-10.5625,0
55740,2.1875,-31.3125,-11.8125,0
55760,1.3125,-29.6875,-11.875,0
55780,4.3125,-32.125,-11.9375,0
55800,6.125,-33.0625,-13.8125,0
55820,3.5,-30.875,-16.0625,0
55840,-1.6875,-30.125,-15.4375,0
55860,0.4375,-31.3125,-15.375,0
55880,6.75,-33.625,-18.5625,0
55900,7,-32.875,-20.3125,0
55920,2.125,-30.75,-19.5625,0
55940,3.4375,-30.125,-21.625,0
55960,4.5,-31,-25.4375,0
55980,2.0625,-31.375,-27.4375,0
56000,0.625,-31.125,-28.6875,0
56010,5.8125,-30.75,-30.75,0
56030,5.0625,-28.75,-32.125,0
56050,1.5,-23.75,-31.875,0
56070,3.875,-22.5625,-31.625,0
56090,4.1875,-20.125,-33.5,0
56110,-2.125,-15.875,-35.375,0
56130,-6.375,-14.9375,-32.5,0
56150,-2.9375,-15.75,-31.1875,0
56170,-0.25,-12.625,-31.3125,0
56190,0.5,-10.0625,-30.875,0
56210,-0.1875,-9.375,-28.75,0
56230,-2,-8.375,-28.9375,0
56250,-7.8125,-6.25,-28.5625,0
56270,-5.875,-3.8125,-29.25,0
56290,-2.375,-4.375,-30.5,0
56310,-2.9375,-3.8125,-30.375,0
56330,-5.75,-1.0625,-31.125,0
56350,-9.625,1,-33.1875,0
56370,-12.4375,3.25,-34.75,0
56390,-12.125,4.75,-34.5625,0
56410,-9.75,5.1875,-35.625,0
56430,-12.375,7.3125,-37.25,0
56450,-17.6875,7.375,-38.25,0
56470,-18.625,7.1875,-37.4375,0
56490,-15.8125,7.25,-37.4375,0
56510,-15.5625,8,-38.25,0
56530,-21.125,9.1875,-39.0625,0
56550,-24.9375,11.5,-39.25,0
56570,-26.3125,12.5625,-38.0625,0
56590,-23.1875,12.3125,-38.875,0
56610,-17.875,10.75,-39.8125,0
56630,-21.125,11.9375,-40.9375,0
56650,-27.5,15,-40.8125,0
56670,-27.125,15.9375,-39.3125,0
56690,-21.125,14.625,-38.3125,0
56710,-18.4375,13.75,-37.4375,0
56730,-20,15.3125,-35.3125,0
56750,-22.125,18.3125,-33.5,0
56770,-22.75,19.3125,-32.875,0
56790,-21.625,19.875,-29.5625,0
56810,-21.125,22.4375,-25.75,0
56830,-21.3125,25.3125,-25.1875,0
56850,-20.25,26.1875,-22.4375,0
56870,-17.5,30.625,-24.1875,0
56890,-19,35.3125,-24.0625,0
56910,-21.0625,37.1875,-20.8125,0
56930,-18.5625,35.75,-20.375,0
56950,-15.625,37,-20.25,0
56970,-16.25,40.25,-17.25,0
56990,-17.5625,41.75,-15.9375,0
57010,-14.875,43.125,-13.1875,0
57030,-10.8125,46.1875,-10.125,0
57050,-11,49.6875,-9.6875,0
57070,-13.25,50.5625,-6.6875,0
57090,-12.4375,47.625,-6.1875,0
57110,-7.375,45.375,-6.3125,0
57130,-9.8125,46.5,2.8125,0
57150,-6.9375,44.625,8.0625,0
57170,3.75,39.3125,11.9375,0
57190,7.3125,36.5,14.9375,0
57210,1.9375,39.125,14.4375,0
57230,-9.5,41.3125,12.5625,0
57250,-13.375,38.125,12.5,0
57270,-0.6875,29.0625,11.25,0
57290,8.75,27.875,8.8125,0
57310,7.625,31.1875,9.6875,0
57330,-3.1875,33.8125,7.875,0
57350,-17.0625,34.125,4.5,0
57370,-16.9375,29.75,5.0625,0
57390,-5.75,26.875,8,0
57410,-3.8125,31.3125,10.1875,0
57430,-10.5625,33.875,9.4375,0
57450,-14.1875,31.25,11.875,0
57470,-10.75,31.5,12.375,0
57490,-4.3125,32.875,12.25,0
57510,-3.75,36.625,15.5,0
57530,-14.75,36.75,15.5,0
57550,-27.375,36.75,15.75,0
57570,-21,35.875,18.1875,0
57590,-14.5,35.375,20.4375,0
57610,-10.5,35.9375,20.3125,0
57630,-7.875,36.1875,22,0
57650,-9.75,36.4375,20.3125,0
57670,-23.8125,39.6875,15.1875,0
57690,-28.625,39.75,16.875,0
57710,-13.6875,35.5,21.875,0
57730,-1.625,34.875,22.4375,0
57750,-6.9375,37.3125,23.6875,0
57770,-18.75,37.75,26.8125,0
57790,-19.125,32.0625,27.5625,0
57810,-12.625,30.1875,26.75,0
57830,-10.25,31.5625,28.75,0
57850,-12.375,30.3125,27.5625,0
57870,-16.625,25.3125,26.5,0
57890,-9.875,21.0625,28.6875,0
57910,-3.5625,22.6875,24.6875,0
57930,-9.4375,22.5,22.3125,0
57950,-19.75,20.25,22.8125,0
57970,-13.5625,15.375,21.1875,0
57990,-6.9375,11.9375,21,0
58000,-9.5,12.5,22.25,0
58020,-8.75,10.1875,22,0
58040,-11.125,3.4375,18.875,0
58060,-12.625,0.5,17.3125,0
58080,-10.125,0.625,17.9375,0
58100,-8.875,-1.5625,16.625,0
58120,-9.1875,-5.625,15.0625,0
58140,-8.625,-6.125,13.125,0
58160,-8.25,-6.1875,12.1875,0
58180,-10.875,-8.3125,13,0
58200,-7.8125,-9.5,14.0625,0
58220,-2.875,-9.0625,13.25,0
58240,-2,-10.9375,12.5,0
58260,-8.0625,-11.8125,13,0
58280,-8.75,-11.25,14.75,0
58300,-6.9375,-12.9375,15.4375,0
58320,-3.6875,-14.125,16.8125,0
58340,-4.5,-14,17.125,0
58360,-4.9375,-14.1875,15.125,0
58380,-6.5625,-15.875,16.1875,0
58400,-5.4375,-17.8125,17.125,0
58420,-4.4375,-18.6875,16.125,0
58440,-4.875,-19.4375,17,0
58460,-3.9375,-19.9375,18.3125,0
58480,-2.75,-20.875,17.875,0
58500,-3.3125,-21.4375,17.0625,0
58520,-3.6875,-21.3125,16.8125,0
58540,-3.625,-21.625,18.125,0
58560,-3.0625,-22.9375,18.6875,0
58580,-1.75,-22.25,19.4375,0
58600,-3.6875,-20.1875,20.125,0
58620,-6.125,-20.5625,21.5,0
58640,-7.25,-22.25,22.0625,0
58660,-8.0625,-20.75,22.9375,0
58680,-9.9375,-20.25,25.125,0
58700,-10.625,-21.375,26.5625,0
58720,-7.9375,-21,25.125,0
58740,-6.0625,-18.625,22.25,0
58760,-9.5625,-18.125,20.4375,0
58780,-9.8125,-19.5625,19.4375,0
58800,-7.25,-20,18.25,0
58820,-3.375,-18.875,17.4375,0
58840,-2.75,-18.875,15.3125,0
58860,-8.375,-19.875,13.5625,0
58880,-5.6875,-20.9375,12.375,0
58900,-0.125,-20.9375,10,0
58920,1.875,-21,6.5625,0
58940,-0.5625,-21.6875,4.125,0
58960,-2,-20.625,4.25,0
58980,-0.5,-21.75,4.25,0
59000,5.1875,-24.1875,4.125,0
59020,1.9375,-24.625,5,0
59040,-0.25,-23.9375,5.625,0
59060,-1.5,-25.125,5.1875,0
59080,-7.1875,-28.1875,5.6875,0
59100,-14.375,-31.25,8.25,0
59120,-16.4375,-32.25,11.25,0
59140,-17.5625,-33.875,12.375,0
59160,-21.1875,-35.4375,13.5625,0
59180,-19.875,-36.3125,13.625,0
59200,-19.6875,-38,11.25,0
59220,-20.8125,-39.0625,9.75,0
59240,-18.3125,-40.3125,8.8125,0
59260,-19.8125,-41.8125,6.375,0
59280,-22.9375,-43.25,5.25,0
59300,-17.75,-44.9375,4,0
59320,-10.4375,-46.6875,0.75,0
59340,-14.625,-48.4375,-0.5,0
59360,-18.0625,-47.6875,-0.9375,0
59380,-10.8125,-47.9375,-5.3125,0
59400,-5.5625,-50.5,-8.25,0
59420,-5.9375,-51.125,-9.875,0
59440,-6.1875,-50.5625,-11.5625,0
59460,-3.6875,-50.3125,-14.375,0
59480,-4.4375,-50.9375,-15.6875,0
59500,-2.5625,-53.0625,-16.4375,0
59520,-0.5625,-52.25,-16.5,0
59540,-1.75,-48.8125,-17.75,0
59560,-2.0625,-47.6875,-19.8125,0
59580,-2.5,-47.125,-20.5625,0
59600,0.75,-45.875,-23.8125,0
59620,5.875,-48.5,-27.3125,0
59640,5.375,-51.25,-24.5625,0
59660,7.75,-47.1875,-23.8125,0
59680,5.5,-42.375,-25.8125,0
59700,0.375,-40.75,-23.75,0
59720,-1.375,-39.25,-20.3125,0
59740,-0.3125,-37.875,-20.9375,0
59760,5.25,-38,-21,0
59780,4.5625,-38.8125,-21.0625,0
59800,1,-35.375,-20.6875,0
59820,-3.3125,-31.5625,-19.625,0
59840,-1.75,-31.5625,-20.5,0
59860,1.3125,-32.125,-21.625,0
59880,4.3125,-28.6875,-23.375,0
59900,4,-25.875,-25,0
59920,2.3125,-23.6875,-27.375,0
59940,2.6875,-22.9375,-30,0
59960,4.5625,-21.4375,-32.875,0
59980,0.5625,-19.0625,-34.875,0
60000,-2.125,-16.1875,-35.5,0
60020,-1.5,-14.625,-35.1875,0
60040,-2.5,-13.3125,-35.75,0
60060,-1.875,-13,-37.6875,0
60080,-1.4375,-10.5,-38.25,0
60100,-2.5,-7.4375,-38.5,0
60120,-5.0625,-6.125,-37.5,0
60140,-5.5,-3.6875,-38.875,0
60160,-5.1875,0,-40.5,0
60180,-7.1875,2,-42.125,0
60200,-7.125,1.9375,-43.25,0
60220,-7.8125,3.75,-43.25,0
60240,-9.3125,7.5625,-40.375,0
60260,-10.8125,13,-36.625,0
60280,-7.1875,16.875,-34.1875,0
60300,-3.5625,18.625,-37.1875,0
60320,-6.4375,21.625,-40.9375,0
60340,-10.9375,26.3125,-41.0625,0
60360,-11.875,27.0625,-41.1875,0
60380,-8.625,27.625,-41.5625,0
60400,-9.5,30.3125,-41.5,0
60420,-10.375,32.75,-39.125,0
60440,-10.75,33.125,-37.375,0
60460,-5,34,-40.375,0
60480,-4.625,35.875,-43.5,0
60500,-9.9375,38.25,-44.6875,0
60520,-12.5,41.375,-45.875,0
60540,-11.3125,42.125,-48.3125,0
60560,-9.6875,42.125,-48.875,0
60580,-8.625,41.5625,-46.8125,0
60600,-10.5,42.5625,-45.25,0
60620,-16.0625,43,-43.5,0
60640,-17,42.75,-40.375,0
60660,-16,42.25,-37.625,0
60680,-17.9375,43.75,-35.5,0
60700,-18.6875,42.0625,-31.8125,0
60720,-15.6875,38.1875,-28.125,0
60740,-19.25,40.5,-22.0625,0
60760,-27.1875,45.1875,-16.9375,0
60780,-23.875,44.1875,-10.3125,0
60800,-17.1875,43.5625,-4.625,0
60820,-9.625,42.5,-3.4375,0
60840,-5.6875,44.5,-2.375,0
60860,-8.3125,47.8125,1.3125,0
60880,-7.8125,49.0625,2.125,0
60900,-4.875,46.8125,2.0625,0
60920,-6.3125,47.375,3.1875,0
60940,-8.0625,49.5625,6.4375,0
60960,-8.8125,48.3125,12.875,0
60980,-4.875,45.625,18.5,0
61000,-1.9375,44.6875,21,0
61020,-5.375,45.6875,20.875,0
61040,-9.8125,46.0625,23.4375,0
61060,-8.375,44.1875,25.8125,0
61080,-3.4375,43,26,0
61100,3.125,39.6875,22.875,0
61120,4.4375,35.625,20.125,0
61140,0.5625,37.6875,20.1875,0
61160,-5.6875,38.5625,23.3125,0
61180,-9.5,36.4375,26,0
61200,-8.375,33.375,27.0625,0
61220,-4.0625,29,28.875,0
61240,-2.625,24.75,31.6875,0
61260,1.625,21.0625,33.8125,0
61280,-4.625,20.75,35.25,0
61300,-16.375,25.125,33.0625,0
61320,-25.125,24.875,30.4375,0
61340,-21.8125,19.0625,29.5,0
61360,-15.625,16.125,30.6875,0
61380,-11.9375,15.375,32.875,0
61390,-7.375,13.6875,30.9375,0
61410,-12.125,13.125,28.0625,0
61430,-19.375,13.125,27.1875,0
61450,-20.5,13.1875,27.5625,0
61470,-17.3125,10.875,28.9375,0
61490,-12.0625,7.0625,29.3125,0
61510,-11.5,6.75,26.8125,0
61530,-16.0625,8.0625,25.5,0
61550,-18.125,5.4375,24.875,0
61570,-14.8125,2.125,25.1875,0
61590,-11.0625,1.875,24.625,0
61610,-10.25,0.0625,21.375,0
61630,-11.375,-4.5625,21,0
61650,-9.875,-7.25,24.3125,0
61670,-9.125,-9.5,28.0625,0
61690,-11.6875,-11.375,29.3125,0
61710,-13.375,-10.8125,30.4375,0
61730,-16.6875,-12.0625,31.3125,0
61750,-13.5,-17.5,32.3125,0
61770,-9.9375,-17.875,31.625,0
61790,-13.25,-16.125,30.75,0
61810,-18.8125,-19.0625,32.0625,0
61830,-17.25,-21.5625,31.5,0
61850,-12.0625,-20.875,29.75,0
61870,-6.6875,-20.3125,25.9375,0
61890,-1.8125,-23.1875,19.4375,0
61910,2.125,-25.625,15.625,0
61930,-0.625,-24.0625,16.375,0
61950,-1.625,-23.375,16,0
61970,-1.375,-24,14.8125,0
61990,-2.0625,-24.625,17.0625,0
62010,-1.625,-25.3125,17.6875,0
62030,-3.0625,-25.8125,17.0625,0
62050,-4.8125,-26.8125,16.875,0
62070,-8.25,-26.6875,18.4375,0
62090,-10.625,-27.6875,19,0
62110,-12.1875,-29.5625,17.5,0
62130,-13.6875,-29.5625,18.5,0
62150,-13.375,-30.125,19.125,0
62170,-13.625,-31.5,17.1875,0
62190,-14.875,-31.3125,15.375,0
62210,-14.3125,-30.6875,15.8125,0
62230,-13.1875,-33.25,14,0
62250,-13.0625,-33.375,12.625,0
62270,-12.9375,-31.5,12.875,0
62290,-13.625,-32.8125,12.625,0
62310,-16.125,-33,11.8125,0
62330,-20.6875,-31.0625,12,0
62350,-18.375,-30.5,11.1875,0
62370,-17.4375,-33.9375,8.375,0
62390,-22.375,-33.75,9.875,0
62410,-28.5,-29.8125,13.25,0
62430,-25.125,-31.625,10.8125,0
62450,-21.3125,-35.3125,8.0625,0
62470,-21.5625,-35,7.9375,0
62490,-18.625,-33.6875,6.375,0
62510,-16.625,-34.375,2.25,0
62530,-17.8125,-35.25,1.1875,0
62550,-19.75,-35.375,0.25,0
62570,-15.125,-36.625,-2.125,0
62590,-11.125,-37.8125,-4.375,0
62610,-6.9375,-39.75,-6.4375,0
62630,-8.75,-39.4375,-9.9375,0
62650,-9.0625,-38.1875,-14.125,0
62670,-5.9375,-40.3125,-16.875,0
62690,-7.6875,-43.875,-18.375,0
62710,-7.25,-44.875,-18.375,0
62730,-3.875,-44,-20,0
62750,-0.875,-45.25,-22.375,0
62770,-1.875,-45.9375,-25.5,0
62790,-4.125,-43.6875,-27.375,0
62810,-6.625,-40.9375,-30.25,0
62830,-6.75,-41.6875,-33.5625,0
62850,2,-45.5625,-36.625,0
62870,14.125,-47.625,-40.25,0
62890,17.625,-44.5625,-41.75,0
62910,9.5,-36.25,-43.3125,0
62930,4.1875,-33.625,-45.1875,0
62950,6.5625,-33.5,-50.5,0
62970,13.1875,-31.1875,-53.375,0
62990,19.5,-26.8125,-54.5625,0
63010,19.125,-23.125,-55.375,0
63030,9.625,-19.375,-55.9375,0
63050,8,-15.1875,-54.4375,0
63070,6.3125,-12.8125,-52.375,0
63090,3.75,-8.125,-46.4375,0
63110,5,-4.875,-41.625,0
63130,4.9375,-4.0625,-39.1875,0
63150,5,-1.5,-37.6875,1001
63170,0.3125,1,-33.25,0
63190,0.4375,1.625,-30.3125,0
63210,1.5,1.375,-26.5,0
63230,4.75,2.375,-25.5,0
63250,5.375,3.125,-22.6875,0
63270,1.5625,4.375,-19.3125,0
63290,0.75,5.625,-17.375,0
63310,1.75,5.125,-14,0
63330,1.625,5.25,-10.875,0
63350,2.8125,6.125,-11.5,0
63360,1.1875,5.5625,-10.5,0
63380,0.875,5,-8.625,0
63400,1.3125,5.9375,-6.0625,0
63420,0.75,7.9375,-3.8125,0
63440,-1.375,9.9375,-1.3125,0
63460,-2.6875,10.625,1.125,0
63480,-2.6875,11.875,4.6875,0
63500,-1,11.625,8.3125,0
63520,0.4375,13.625,13.875,0
63540,1.6875,18.5625,20.5625,0
63560,4.5625,20.875,26.4375,0
63580,5.4375,28.625,32.875,0
63600,9.625,37.6875,37.6875,0
63620,10.0625,37.25,43.3125,0
63640,6.5625,33.125,51.75,0
63660,13.6875,41,64.3125,0
63680,16.9375,54.5625,75.5,0
63700,19.1875,52.75,76.6875,0
63720,27.0625,48.9375,76.6875,0
63740,36.5625,58.4375,81.5,0
63760,35.8125,64.1875,80.625,0
63780,30.6875,64.4375,76.0625,0
63800,36,69.4375,71.1875,0
63820,48.8125,74.75,66.125,0
63840,69.1875,59.125,67.5625,0
63860,49.4375,44.3125,71.0625,0
63880,44.25,60.0625,74.375,0
63900,31.9375,66.25,71.125,0
63920,30.0625,57.8125,72.5,0
63940,35.5,37.5,68.9375,0
63960,34,27.6875,68.6875,0
63980,34.625,30.6875,63.5,0
64000,42.1875,30.875,55.0625,0
64020,42.25,25.4375,55.625,0
64040,22.625,14.9375,55.5625,0
64060,12.875,14.5625,50.875,0
64080,19.3125,17.3125,45.3125,0
64100,25.75,15.125,40.5,0
64120,19.125,7.4375,36.6875,0
64140,10.125,7.1875,41.8125,0
64160,8.6875,10.0625,39.625,0
64180,9.5625,10.625,29.5,0
64200,4.25,14.3125,20.9375,0
64220,-0.25,17.6875,18.3125,0
64240,-0.25,11.25,18.125,0
64260,7.5625,4.625,16.1875,0
64280,8.75,4.875,13.6875,0
64300,-0.5625,5.125,11.875,0
64320,-11.625,3.0625,9.3125,0
64340,-15.5625,-3.6875,7.125,0
64360,-6.9375,-7.75,3.875,1000
64380,-0.8125,-7.5625,2.9375,0
64400,-5.5,-7.875,1.0625,0
64420,-14,-6.6875,-1.1875,0
64440,-15.4375,-5.25,-1.1875,0
64460,-10.5625,-5.125,-0.8125,0
64480,-4.625,-5.4375,1.25,0
64500,-0.6875,-4.625,0.9375,0
64520,-2.5,-3.3125,1.1875,0
64540,-3.875,-2.625,1.5,0
64560,-2.9375,-1.9375,2.6875,0
64580,-2.5,-2.1875,3.3125,0
64600,-2.5,-2.4375,3.4375,0
64620,-1.0625,-3.3125,2.0625,0
64640,2.4375,-5.125,1.625,0
64660,3.5,-6.5,0.8125,0
64680,-0.0625,-6.0625,0.4375,0
64700,-2.1875,-4.625,0.1875,0
64720,-2.1875,-4.5,-0.3125,0
64740,2,-5.5625,0.0625,0
64760,4.1875,-6.1875,-1.625,0
64780,5.25,-4.875,-2.5,0
64800,1.9375,-3.1875,-2,0
64820,-2.125,-2,-2.8125,0
64840,-3.6875,-1.75,-0.5,0
64860,-0.5,-4.625,1.125,0
64880,1.9375,-5.9375,1,0
64900,2.625,-6,1.5625,0
64920,3.875,-5.625,1.375,0
64940,-1,-5.875,2.75,0
64960,-4.75,-6.875,3.1875,0
64980,-1.25,-7.25,2.4375,0
65000,2.8125,-9.875,3.0625,0
65020,3.0625,-11.6875,3.375,0
65040,0.625,-12.4375,2,0
65060,-1,-12.75,1.1875,0
65080,-1.75,-12.75,1.4375,0
65100,-1.9375,-13.75,2,0
65120,0.125,-13.125,1.125,0
65140,1.75,-12.5,0.0625,0
65160,0.9375,-12.3125,-0.25,0
65180,-3.1875,-12.5625,-0.875,0
65200,-6.8125,-12.875,0.5625,0
65220,-10,-13,1.6875,0
65240,-7.625,-13.125,2.75,0
65260,-6.5625,-13.8125,1.625,0
65280,-8.3125,-14.3125,1.1875,0
65300,-9.3125,-14.8125,1.0625,0
65320,-6.5625,-18.375,0.3125,0
65340,-6,-19.0625,-2.0625,0
65360,-7.625,-20,-5.1875,0
65380,-8.5,-21,-7.1875,0
65400,-5.0625,-22.625,-8.0625,0
65420,-1.0625,-24.625,-10.25,0
65440,-1.9375,-26.5625,-12.6875,0
65460,-2.9375,-28.5,-14.875,0
65480,-1.3125,-29.375,-15.0625,0
65500,-1.6875,-30.625,-11.9375,0
65520,-3.3125,-32.5625,-13.3125,0
65540,-8,-31.5,-14.0625,0
65560,-11.1875,-31.3125,-14.875,0
65580,-6.25,-33.8125,-15.1875,0
65600,-2.125,-35.5625,-14.125,0
65620,-0.8125,-35.75,-17.0625,0
65640,-2.4375,-32.4375,-19.875,0
65660,-4.125,-30.4375,-22.125,0
65680,-4.75,-28.8125,-24.8125,0
65700,-2.125,-28.5625,-27.4375,0
65720,-1.25,-28.125,-31.25,0
65740,-2.1875,-25.875,-32.75,0
65760,-2.3125,-24.1875,-33.5,0
65780,-3.5625,-23.1875,-34.1875,0
65800,-5.8125,-20.125,-34.8125,0
65820,-5.75,-22.5625,-34.1875,0
65840,-7.75,-24.8125,-32.6875,0
65860,-10.625,-23.625,-32.25,0
65880,-15.5,-20.6875,-32.5625,0
65900,-17.75,-19.75,-32.5,0
65920,-14.125,-20.875,-32.1875,0
65940,-12.6875,-21.125,-31.6875,0
65960,-16.3125,-18.0625,-32,0
65980,-19.4375,-15.125,-32.9375,0
66000,-19.3125,-15.25,-31.625,0
66020,-17.5,-14.6875,-32.4375,0
66040,-19,-12.9375,-33.9375,0
66060,-18.3125,-11.25,-33.1875,0
66080,-17.6875,-11.0625,-32,0
66100,-19.5,-10.8125,-33.1875,0
66120,-20.5,-8.8125,-34,0
66140,-18.5625,-7.125,-33.125,0
66160,-17.4375,-4.8125,-31.4375,0
66180,-19.75,-3.1875,-29.5625,0
66200,-20.75,-0.3125,-28.8125,0
66220,-21.0625,0.75,-28.5625,0
66250,-20.1875,6.0625,-29.5,0
66270,-21.5625,10,-30,0
66290,-21.0625,13.0625,-30,0
66310,-21,16.6875,-31.9375,0
66330,-21.375,19,-31.625,0
66350,-22.375,21.375,-30.4375,0
66370,-23.3125,24.5,-28,0
66390,-23.1875,27.375,-26.5625,0
66410,-22.9375,28.5625,-23.875,0
66430,-21.125,31.3125,-22.125,0
66450,-21.75,34.5,-21.9375,0
66470,-22.4375,37.5625,-21.4375,0
66490,-20.3125,38.8125,-19.625,0
66510,-19.8125,41.0625,-18.3125,0
66530,-21.625,43.875,-17,0
66550,-21.5,47.625,-14.5,0
66570,-19.0625,51.75,-13,0
66590,-18.375,54,-11.375,0
66610,-20.75,55.5,-9.3125,0
66630,-20.25,57.4375,-7,0
66650,-18.875,60,-4.5625,0
66670,-19.5,62.4375,-2.9375,0
66690,-20.375,59.8125,0.9375,0
66710,-20.8125,59.75,1.8125,0
66730,-23.375,62.875,2.875,0
66750,-24.625,67.875,3.75,0
66760,-25.3125,70.75,4.8125,0
66780,-23.375,71.625,5.75,0
66800,-22.9375,73.625,6.5625,0
66820,-25.4375,75.75,7.3125,0
66840,-23.5,75.75,9.6875,0
66860,-18.9375,73.875,10.5625,0
66880,-16.75,75.25,10.0625,0
66900,-17.1875,73.0625,10.5,0
66920,-13.4375,67,11.625,0
66940,-5.8125,60.0625,15.375,0
66960,-3.8125,57.25,15.3125,0
66980,-1.25,48.1875,14.5,0
67000,7.25,38.8125,14.0625,0
67020,7.9375,35.625,10.625,0
67040,3.5625,31.75,9.75,0
67060,-1.8125,30.1875,10.0625,0
67080,-4,28.875,14.875,0
67100,7.3125,23.1875,13.375,0
67120,9.625,22.8125,10.375,0
67140,-0.375,24.4375,11.625,0
67160,-8.3125,20.5,13,0
67180,-2.5,16.125,11.5625,0
67200,7.125,17.5,11,0
67220,6.0625,19.3125,12.75,0
67240,-0.4375,21.375,14.0625,0
67260,-4.5,20.25,14.625,0
67280,7.8125,16.0625,12.5625,0
67300,14,17.625,10.625,0
67320,4.875,20.75,8.125,0
67340,-5.25,20.4375,8.9375,0
67360,-1.625,15.4375,9.625,0
67380,2.4375,13.3125,9.5,0
67400,3.0625,15.5,10.3125,0
67420,1.75,16.0625,11.625,0
67440,-0.625,13.5,13.0625,0
67460,0.8125,11,14.875,0
67480,0.6875,12.5625,14.25,0
67500,-2.875,12.6875,19,0
67520,-5.4375,10.75,25.0625,0
67540,-4.25,10.8125,26.8125,0
67560,2.375,10.5,25.6875,0
67580,-1.625,8.375,24.125,0
67600,-5.0625,8.625,25,0
67620,-0.25,7.6875,25.375,0
67640,-3,7.9375,25.3125,0
67660,-7.3125,8.1875,26.125,0
67680,-3,6.8125,28.4375,0
67700,-0.625,5.5625,25.5,0
67720,-5.8125,4.625,23.8125,0
67740,-5.1875,4.75,23.9375,0
67760,-1.8125,1.75,24,0
67780,-1,0.125,23.5,0
67800,-5.375,0.6875,19.6875,0
67820,-7.3125,1.5625,20.125,0
67840,-4.4375,-3,20.5625,0
67860,-2.5,-3.0625,22,0
67880,-1.6875,-5,18.9375,0
67900,-9.75,-8.5625,17.4375,0
67920,-13.125,-12.625,23.125,0
67940,-8.625,-14.1875,27.3125,0
67960,-10.3125,-13.5,26.375,0
67980,-16.4375,-14.8125,22.6875,0
68000,-15.125,-17.1875,22,0
68020,-13.6875,-18.1875,19.875,0
68040,-11.0625,-19,18.4375,0
68060,-8.9375,-19.75,17.5625,0
68080,-8.5,-21.125,17.25,0
68100,-9.4375,-21,16.6875,0
68120,-9.375,-20.5625,14.875,0
68140,-8.4375,-21.75,15.25,0
68160,-9.25,-22.125,13.9375,0
68180,-8.8125,-21.5,13.375,0
68200,-5.3125,-22.375,12.5,0
68220,-4.1875,-24.1875,12.5625,0
68240,-6.625,-23,12.5,0
68260,-4.9375,-22.0625,11,0
68280,-2.25,-24.0625,10.3125,0
68300,-3.3125,-25.9375,10.75,0
68320,-4,-24.4375,10.3125,0
68340,-4.4375,-23.875,8.9375,0
68360,-5.1875,-26.5,8.6875,0
68380,-5.5,-26.75,10.0625,0
68400,-3.1875,-26.5,10.0625,0
68420,-4.1875,-27.8125,9.8125,0
68440,-8.5625,-29.8125,9.8125,0
68460,-9.5,-28.9375,10.9375,0
68480,-7.8125,-29.5,10.4375,0
68500,-8.5,-32.5,11.0625,0
68520,-12.875,-33.25,11.3125,0
68540,-13.6875,-33.875,9.125,0
68560,-15.25,-35.6875,8.5625,0
68580,-14.25,-36.625,8.5,0
68600,-12.1875,-34.5,7.5,0
68620,-13.25,-33.625,6,0
68640,-12.4375,-35.3125,5.375,0
68660,-13.5,-35.75,4.4375,0
68680,-12.25,-34.9375,3.5,0
68700,-11,-35.6875,2.6875,0
68720,-12.625,-36.8125,2.5625,0
68730,-14.5,-36.5,2.5625,0
68750,-11.6875,-37,1.25,0
68770,-11,-38.5,2,0
68790,-10.9375,-39.5,1.75,0
68810,-9.5,-40,1.125,0
68830,-9.875,-40.4375,0.6875,0
68850,-8.1875,-40.9375,0.5,0
68870,-10.4375,-41.125,0.125,0
68890,-7.375,-39.5625,-2,0
68910,-3.25,-39.6875,-4.5,0
68930,-5.625,-42.5,-4.375,0
68950,-9.25,-40.8125,-2.25,0
68970,0.875,-38.8125,-2.4375,0
68990,1.625,-40.6875,-1.9375,0
69010,-7.9375,-38.8125,-0.25,0
69030,-6.0625,-36.3125,-2.5625,0
69050,1,-37.75,-4.6875,0
69070,0.0625,-38.9375,-6.625,0
69090,-0.875,-37.4375,-8.4375,0
69110,1.8125,-36.6875,-9.625,0
69130,4.75,-36.875,-10.625,0
69150,5.125,-37.625,-14.375,0
69170,3.625,-37.0625,-15.75,0
69190,7.0625,-36.1875,-16.625,0
69210,8.9375,-36.0625,-17.875,0
69230,6.1875,-35.3125,-19.625,0
69250,4.6875,-33.3125,-20.625,0
69270,5.1875,-34.25,-19.625,0
69290,11.0625,-38.375,-20.5,0
69310,8.5,-38.375,-18.9375,0
69330,4.5625,-34,-18.75,0
69350,0.5625,-32.1875,-19.3125,0
69370,-0.0625,-33.125,-18.625,0
69390,2.5625,-34,-19.9375,0
69410,1.3125,-31.75,-19.5,0
69430,-0.0625,-27.375,-17.6875,0
69450,3.875,-27.8125,-20.4375,0
69470,2.25,-31.3125,-22.5625,0
69490,0.5,-26.25,-22.875,0
69510,3.3125,-22.125,-25.875,0
69530,1.6875,-22.8125,-26.0625,0
69550,0.4375,-20.25,-28.1875,0
69570,-0.75,-16.5625,-33,0
69590,-0.1875,-14.875,-34.3125,0
69610,-1.0625,-13.3125,-33.5,0
69630,-0.8125,-10.8125,-34.9375,0
69650,0.0625,-7.6875,-37.375,0
69670,1.5,-5.1875,-37.875,0
69690,-0.0625,-3,-38.125,0
69710,-2.1875,0,-40.375,0
69730,-1,3.875,-42.75,0
69750,-2.8125,4.875,-43.125,0
69770,-5.375,4.6875,-44.3125,0
69790,-5.1875,5.0625,-45.5,0
69810,-6,10.875,-43.6875,0
69830,-6,13.8125,-43.4375,0
69850,-6.9375,12.625,-43.5625,0
69870,-6.1875,13.3125,-42.9375,0
69890,-3.875,15.4375,-44.375,0
69910,-10.0625,15.125,-44.4375,0
69930,-13.125,15.125,-42.875,0
69950,-11,16.9375,-41.0625,0
69970,-8.0625,19.75,-39.1875,0
69990,-8.0625,17.5,-39.8125,0
70010,-8.75,13,-39.9375,0
70030,-7.25,12.6875,-40.8125,0
70050,-8.8125,14.6875,-39.4375,0
70070,-11.5625,12.9375,-37.8125,0
70090,-9.8125,12.6875,-36.5625,0
70110,-9.1875,13.5625,-35.5625,0
70130,-7.875,14.0625,-34.5,0
70150,-9.8125,13.625,-31.875,0
70170,-10.25,14.0625,-30.3125,0
70190,-10.8125,15.25,-25.375,0
70210,-7.0625,14.5,-23.3125,0
70230,-6.0625,12.1875,-21.4375,0
70250,-6.875,12.6875,-20.25,0
70270,-8,15.3125,-17.4375,0
70290,-9,14.4375,-14.375,0
70310,-8,12.375,-13.125,0
70330,-5.6875,10.1875,-11.8125,0
70350,-4.625,9.5625,-9.5,0
70370,-4.75,9.875,-6.6875,0
70390,-3.6875,10.75,-4.8125,0
70410,-2.625,10.4375,-1.875,0
70430,-1.6875,8.875,-2.5,0
70450,-1.8125,8.375,-1.4375,0
70470,-1.4375,9.3125,0.875,0
70490,-0.9375,8.3125,0.1875,0
70510,0.25,6.8125,1.3125,0
70530,0.875,6.0625,1.6875,0
70550,0.75,6.6875,2.125,0
70570,0,7.625,4.25,0
70590,-0.4375,7.625,4,0
70610,-0.3125,6.75,4.4375,0
70630,2.0625,5.125,4.875,0
70650,1.1875,4.875,6.125,0
70670,-1.25,5.4375,6.5625,0
70690,-3.25,5.1875,6.5,0
70710,-1.9375,4.5625,7.5625,0
70730,-1.75,4.25,8.25,0
70750,-2.25,4.6875,7.1875,0
70770,-3.375,3.125,6.8125,0
70790,-1.6875,1.5,7.25,0
70810,0.8125,0.875,8.5625,0
70830,0.5625,1.875,10.125,0
70850,-0.5625,2.875,9.375,0
70870,-1.3125,1,9.6875,0
70890,0.1875,-1.125,9.375,0
70910,-1,-0.0625,7.25,0
70930,-5.5,2.8125,6.375,0
70950,-4.8125,2.0625,3.875,0
70970,-3.1875,0.125,0.625,0
70990,-4.9375,0.8125,-5.25,0
71010,-8.625,2.75,-9,0
71030,-10.5625,4.75,-11.25,0
71050,-6.625,5.25,-13.25,0
71070,-4.625,5.5,-14.375,0
71090,-6.75,6.4375,-14.3125,0
71110,-9,8.125,-14.8125,0
71130,-9.3125,9.3125,-14.875,0
71150,-8.9375,10.6875,-14.375,0
71170,-8.25,11.3125,-14.4375,0
71190,-6.875,10.6875,-13.0625,0
71210,-3.4375,10.5,-15,0
71230,-3.375,11.3125,-15.9375,0
71250,-4.9375,12.875,-14.5625,0
71270,-4.5625,16.6875,-13.4375,0
71290,-3.8125,18.5625,-13.5,0
71310,-3.4375,20.25,-12.25,0
71330,0.875,22.75,-12.3125,0
71350,2.625,24.5625,-11.75,0
71370,2.75,28,-10.8125,0
71390,2.375,30.375,-9.875,0
71410,5.4375,31.6875,-7.9375,0
71430,3.375,30.1875,-5.0625,0
71450,0.3125,31.4375,-5.625,0
71470,-0.625,32.8125,-6,0
71490,0.0625,34,-2.375,0
71510,-1.25,31.8125,-2.4375,0
71530,-2.125,31.5,-2.875,0
71550,-3.8125,33.25,-3.75,0
71570,-5.6875,36.0625,-3.125,0
71590,-9.0625,34.6875,-3.8125,0
71610,-7.0625,33,-5.75,0
71630,-4.6875,32.25,-5.3125,0
71650,-5.125,32.625,-4.9375,0
71670,-8.0625,31.875,-6.375,0
71690,-9.125,32.0625,-7.0625,0
71710,-7.6875,31,-6.375,0
71730,-4.3125,29.625,-5.5625,0
71750,-3.375,29.5625,-4.8125,0
71770,-4.9375,28.9375,-4.1875,0
71790,-9.1875,29.25,-2.6875,0
71810,-8.1875,29.25,-1.5625,0
71830,-5.6875,28,0.9375,0
71850,-5.375,27.75,4.5625,0
71870,-1.1875,26.375,6.25,0
71890,0.9375,23.5625,7,0
71910,0,27.25,6.625,0
71930,-9.6875,32.5625,7.1875,0
71950,-14.8125,32.25,9,0
71970,-9.375,27.625,7.375,0
71990,0.5,24.625,7.375,0
72010,4.5625,25.5,8.125,0
72030,-2.875,25.4375,10.9375,0
72050,-9.625,24.4375,13.5,0
72070,-8.75,20.6875,13.375,0
72090,-7.875,19.9375,13.25,0
72110,-10.125,20.8125,14.1875,0
72130,-10.375,18.125,15.5,0
72140,-3.75,14.625,17.4375,0
72160,-3.8125,13.5625,18.1875,0
72180,-10.1875,14.0625,20.5,0
72200,-20.25,13.625,25.0625,0
72220,-25.125,13.3125,29.6875,0
72240,-15.375,9.5,29.875,0
72260,-7.4375,9.0625,28.75,0
72280,-16.8125,10.8125,26.5625,0
72300,-26.5625,10.0625,25.9375,0
72320,-21.8125,5.375,25.375,0
72340,-9.375,4.75,24.25,0
72360,-4,6.0625,19.375,0
72380,-8.625,7.3125,18.0625,0
72400,-10.9375,9.9375,19.6875,0
72420,-8.625,15.375,21.6875,0
72440,-13.4375,18.6875,22.9375,0
72460,-17.375,23.5625,22.5625,0
72480,-11.5,22,23.6875,0
72500,-5.6875,16.1875,24,0
72520,-8.75,17,21.25,0
72540,-7,17.75,21.75,0
72560,-4.4375,16.8125,23.1875,0
72580,-4.625,16.6875,22.25,0
72600,-7.3125,16.9375,21.125,0
72620,-4.5625,13.25,20.625,0
72640,-1.375,8.9375,21.4375,0
72660,0.75,8.0625,23,0
72680,-2.875,7.375,22.125,0
72700,-7.625,3.75,23.25,0
72720,-10.8125,1,24.625,0
72740,-7.875,0.125,24.75,0
72760,-9.25,-3.4375,26.25,0
72780,-12.5625,-4.8125,26.875,0
72800,-10.8125,-6,25.75,0
72820,-11.625,-8.625,25.4375,0
72840,-11.5625,-10.1875,23.5625,0
72860,-11.1875,-10.4375,22.6875,0
72880,-5.9375,-12.125,21.4375,0
72900,-5.25,-15,19.375,0
72920,-5.5,-14.3125,18.0625,0
72940,-5.75,-12.625,16.5625,0
72960,-3.375,-15.0625,14.6875,0
72980,-2.9375,-16.875,14.5,0
73000,-2.5625,-15.375,14.125,0
73020,-0.9375,-15.5,12.875,0
73040,-1.5625,-17,12.8125,0
73060,-1.4375,-16.375,13,0
73080,-1.125,-16.3125,12.125,0
73100,-3.5,-18.25,13.0625,0
73120,-0.3125,-18.6875,13,0
73140,1.0625,-17.875,12.5625,0
73160,-1.5,-19,12.25,0
73180,-6,-20.0625,12.5,0
73200,-4,-19.6875,13.25,0
73220,-0.5,-20.25,12.375,0
73240,-1.4375,-22.6875,11.1875,0
73260,-3.6875,-21.4375,11.5,0
73280,-1.5625,-21.375,11.0625,0
73300,-2.5,-24.75,10,0
73320,-2.5625,-25.4375,9.0625,0
73340,-0.75,-23.1875,8.9375,0
73360,0.6875,-23.5,6.8125,0
73380,-2.6875,-27.125,5.25,0
73400,-4.4375,-27.3125,7.1875,0
73420,-2.25,-27.1875,8.0625,0
73440,-2.1875,-30.625,7.375,0
73460,-10,-31.4375,9.625,0
73480,-10.4375,-30.9375,9.5625,0
73500,-6.75,-32.9375,7.8125,0
73520,-7.3125,-35.4375,7,0
73540,-6.75,-36.0625,6.375,0
73560,-6.3125,-36,3.8125,0
73580,-4.6875,-36.8125,3.125,0
73600,-6.5625,-36.8125,5.125,0
73620,-6,-35.5625,4.875,0
73640,-2.0625,-36.6875,4,0
73660,-1.25,-37.375,4.3125,0
73680,-2.5625,-36.3125,6.375,0
73700,-5.0625,-35.375,7,0
73720,-8.4375,-35.9375,7.5,0
73740,-9.375,-36.3125,9,0
73760,-10.1875,-34.5625,9.3125,0
73780,-9.5,-36.1875,8.125,0
73800,-12.25,-39.25,7.9375,0
73820,-10.125,-38.5625,8.3125,0
73840,-4.8125,-38.1875,3.9375,0
73860,-3.8125,-38.5,0.4375,0
73880,-8.0625,-37.75,-0.9375,0
73900,-5.8125,-35.8125,-2.875,0
73920,-0.9375,-36.625,-7.1875,0
73940,-1,-37.5625,-9.125,0
73960,-2.5,-34.6875,-9.8125,0
73980,-0.1875,-32.75,-11.9375,0
74000,-0.75,-34.3125,-13.6875,0
74020,-2.3125,-35.625,-14.0625,0
74040,0.375,-35.6875,-15.75,0
74060,0.3125,-36,-17.3125,0
74080,0.1875,-37.25,-17.75,0
74100,1.8125,-36.4375,-18.125,0
74110,1.75,-35.5,-19.875,0
74130,0.1875,-35.1875,-20.5,0
74150,0.0625,-34.375,-21.375,0
74170,3.8125,-34.4375,-23.1875,0
74190,3.0625,-34.8125,-23.8125,0
74210,0,-36,-24.25,0
74230,2.4375,-35.5625,-24.875,0
74250,5.5,-33.4375,-26.875,0
74270,-0.75,-33.1875,-27.4375,0
74290,-5.1875,-31.9375,-27,0
74310,-0.0625,-31.5,-27.75,0
74330,5.4375,-31.6875,-30.5,0
74350,3.625,-28.6875,-32.6875,0
74370,1.4375,-25.25,-33.1875,0
74390,0.8125,-25.1875,-33.8125,0
74410,-2.5625,-24.375,-36.75,0
74430,-5,-21,-37.9375,0
74450,-4.9375,-17.625,-39.9375,0
74470,-4.0625,-16.6875,-41.1875,0
74490,-3.6875,-15.5,-43.125,0
74510,-1.9375,-13.375,-46.625,0
74530,-4.3125,-9.375,-47,0
74550,-9.9375,-6.5,-47.875,0
74570,-12.5625,-3.625,-47.0625,0
74590,-10.1875,-0.25,-46.6875,0
74610,-8.5,1.8125,-46.3125,0
74630,-9.5,3.1875,-47.625,0
74650,-8.9375,6.625,-48.1875,0
74670,-13.0625,12.25,-49.375,0
74710,-10.375,23.9375,-48.75,0
74730,-10.375,26.5625,-48.875,0
74760,-8.375,34.375,-40.625,0
74780,-9,37.5,-41.75,0
74800,-8.25,36.75,-41.875,0
74820,-6.5,36.8125,-41,0
74840,-8.3125,39.125,-41.375,0
74860,-13,38.875,-40.375,0
74870,-12.8125,39.375,-40.3125,0
74890,-10.1875,39.875,-39.5625,0
74920,-12.5,38.1875,-38.3125,0
74940,-18.375,41.0625,-32.875,0
74960,-17.875,41.25,-26.875,0
74980,-11.6875,37.125,-25.25,0
75000,-9.625,37,-24.0625,0
75020,-12.9375,39.8125,-22.9375,0
75040,-14.6875,37.5,-19.5625,0
75060,-13.5,35.5,-14.3125,0
75080,-12.3125,36.5625,-9.25,0
75100,-5.75,37.0625,-1.4375,0
75120,-4.1875,36.0625,5.8125,0
75140,-8.3125,38.3125,8.6875,0
75160,-12.0625,42.75,12.1875,0
75180,-9.1875,45.6875,16.0625,0
75200,-3.375,46,20.0625,0
75220,-3.25,46.625,22.0625,0
75240,-6,47.6875,23.8125,0
75260,-8.25,48.875,27.1875,0
75280,-6.25,50.9375,27.625,0
75300,-4.1875,50.875,27.875,0
75320,-6.125,51.375,26.5625,0
75340,-9.25,52,25.5625,0
75360,-11.1875,50.75,27.9375,0
75380,-7.625,46.9375,31.5,0
75400,-4.125,44,33.375,0
75420,6.875,41.375,35,0
75440,1.25,42.6875,35.6875,0
75460,-20.9375,44.625,34.0625,0
75480,-32.3125,41.4375,33.875,0
75500,-22.5,32.4375,32.9375,0
75520,-9.6875,28,30.75,0
75540,-5.375,27.9375,30.5625,0
75560,-3.25,26.5625,30.75,0
75580,-3.8125,20.9375,30.0625,0
75600,-9.8125,16.4375,30.75,0
75620,-12.8125,14.125,30.875,0
75640,-10.25,10.75,29.75,0
75660,-9.9375,4.125,30.5,0
75680,-8.6875,-0.9375,31.0625,0
75700,-7.4375,-2.1875,28.875,0
75720,-9.3125,-2.1875,28.375,0
75740,-11.5625,-5.4375,29.5625,0
75760,-10,-9.625,29,0
75780,-4.75,-11.9375,28.375,0
75800,-0.5,-10.625,28.9375,0
75820,-1.9375,-10.5625,27.75,0
75840,-10.25,-11.5,25.8125,0
75860,-9.875,-12.9375,27.9375,0
75880,-3.4375,-14.3125,29.5625,0
75900,-1.9375,-15.375,29.5,0
75920,-6.1875,-16.0625,30.3125,0
75940,-9.25,-18.4375,31.875,0
75960,-10.1875,-19.3125,32.125,0
75980,-12.4375,-18.75,30.375,0
76000,-15.4375,-17.4375,32.375,0
76020,-12.8125,-15.1875,31.25,0
76040,-7.1875,-16.6875,27.625,0
76060,-6.875,-17.125,25.125,0
76080,-5.0625,-13.625,23.875,0
76100,-3.8125,-12.75,23.3125,0
76120,-3.6875,-14.25,19.875,0
76140,-8.1875,-13.0625,20.6875,0
76160,-6,-11.4375,22.8125,0
76180,-0.25,-14.125,21.625,0
76200,-4.75,-13.5,22.75,0
76220,-6.625,-7.0625,23.0625,0
76240,-3.1875,-4,16.875,0
76260,-0.25,-3.9375,11.5625,0
76280,-6.0625,-4.5625,14.625,0
76300,-11.25,-8.8125,17.125,0
76320,-11.9375,-13.25,14.25,0
76340,-9.125,-17.125,11.375,0
76360,-13.6875,-15.5625,12.9375,0
76380,-18.5625,-16.25,11.75,0
76400,-24.375,-20,11.1875,0
76420,-18.4375,-23.5,9.5,0
76440,-11.5,-28.375,6.6875,0
76460,-15.0625,-30.0625,6.5625,0
76480,-19.8125,-30.9375,6.3125,0
76500,-22.6875,-32.375,2.6875,0
76520,-20.125,-32.875,1.0625,0
76540,-14.875,-32.875,-2.25,0
76560,-16.25,-35.125,-2.25,0
76580,-16.5,-35.875,-1.25,0
76600,-8.0625,-35.875,-5.1875,0
76620,-3.75,-36.5,-7.5625,0
76640,-2,-37.5625,-9.3125,0
76660,-1.3125,-39.4375,-11.25,0
76680,-1.1875,-43.0625,-9.375,0
76700,3,-42.75,-12.625,0
76720,-3.875,-42.875,-17.0625,0
76740,-10.9375,-42.75,-18.9375,0
76760,-14.3125,-42.5,-20,0
76780,-5.9375,-47.125,-21.375,0
76800,1.4375,-53.1875,-23.25,0
76820,-0.6875,-57,-27.0625,0
76840,3.0625,-52.6875,-27.8125,0
76860,-1.5625,-50.9375,-26.5,0
76880,-2.625,-49.875,-29.1875,0
76900,3.6875,-52.6875,-33.0625,0
76920,2.375,-52.8125,-35.375,0
76940,3.8125,-51,-37,0
76960,5.9375,-51.125,-39.5,0
76980,4.5,-51,-41.125,0
77000,-0.4375,-46.75,-42,0
77020,-3.9375,-45,-41.1875,0
77040,7.375,-47.375,-45.4375,0
77060,17.375,-46.75,-49.9375,0
77080,18.125,-37.5,-50.4375,0
77100,11.625,-27,-50.25,0
77120,6.0625,-22.5625,-50.25,0
77140,6,-18.3125,-48.375,0
77160,11.0625,-14.75,-46.1875,0
77180,14.75,-12.6875,-43.375,1001
77200,14.3125,-10.25,-37.9375,0
77220,8.5625,-6.375,-29.25,0
77240,3.3125,-3.1875,-26.1875,0
77260,-0.125,-2.8125,-21.125,0
77280,-1.4375,-0.6875,-13.0625,0
77300,-4.75,3.875,-8.8125,0
77320,-2.0625,3.9375,-7,0
77340,5.75,3.3125,-6.25,0
77360,7.375,4.8125,-5.625,0
77380,2.6875,7.625,-6.4375,0
77390,-5.4375,11,-4.125,0
77410,-4.5625,12.375,1.4375,0
77430,3.0625,9.75,1.875,0
77450,4.375,8.9375,0.9375,0
77470,3.5,11.4375,2.1875,0
77490,1.8125,11.1875,5.4375,0
77510,0.125,11.6875,5,0
77530,-0.75,12.875,6.3125,0
77550,1.5,16.25,9,0
77570,3.5625,17.75,11.875,0
77590,-1.25,21.25,16.25,0
77610,-5.125,24.3125,23.125,0
77630,-4.4375,27.1875,32.875,0
77650,3.4375,31.8125,41.375,0
77670,10.6875,37.5625,47.1875,0
77690,13.1875,45.3125,53.0625,0
77710,11.6875,46.1875,57.875,0
77730,10.1875,47.3125,66.875,0
77750,15.6875,55.125,76.5625,0
77770,21.5,66.4375,83.8125,0
77780,25.5625,70.125,94,0
77800,43.625,68.5625,105.188,0
77820,57.0625,65.0625,107.562,0
77840,46.6875,65.25,108.625,0
77860,15.8125,76.0625,115.562,0
77880,-0.625,70.4375,111.438,0
77900,19.375,52.9375,101.938,0
77920,41.125,35.4375,92.0625,0
77940,49.875,31.9375,93.3125,0
77960,42,26.6875,84.3125,0
77980,14.5625,27.1875,63.75,0
78000,6,24.375,46.625,0
78020,10.0625,21,44.1875,0
78040,22.8125,15.5,37.4375,0
78060,23.4375,11.8125,19.8125,0
78080,18.75,12.0625,13.6875,0
78100,21.0625,10.4375,13.375,0
78120,13.25,3.8125,8.125,0
78140,0.6875,2.5,-0.875,0
78160,-3.25,9.4375,-2.625,1000
78180,-0.8125,6.375,3.1875,0
78200,2.4375,1.5,8.6875,0
78220,0.75,1.5625,5.375,0
78240,-0.625,0.9375,-2.1875,0
78260,-2.0625,0.25,-7.625,0
78280,-6.375,-1.375,-7.375,0
78300,-8.0625,-0.75,-6.125,0
78320,-6.8125,-1.375,-4.625,0
78340,-3.6875,-3.625,-3,0
78360,-4.125,-3.5625,-2.0625,0
78380,-6.25,-2.0625,-0.0625,0
78400,-7.4375,0.125,2.375,0
78420,-4.125,-0.375,4.5625,0
78440,1.625,-2.3125,6.3125,0
78460,2.1875,-1.1875,6.125,0
78480,-0.125,0.5625,5.25,0
78500,-6.0625,-0.25,4.6875,0
78520,-6.25,-2.9375,2.875,0
78540,0.5625,-5.1875,2,0
78560,7.125,-5.75,3,0
78580,6.5,-5.9375,3.625,0
78600,0.5625,-6.5625,3.625,0
78620,-2.3125,-4.4375,2.75,0
78640,-1.375,-3.875,3.25,0
78660,0.3125,-4.375,5,0
78680,0.1875,-3.625,4.4375,0
78700,-1,-2.5625,4.8125,0
78720,2.0625,-2.8125,4.1875,0
78740,2.3125,-3.8125,4.0625,0
78760,1.375,-4.9375,3.875,0
78780,1.9375,-5.6875,4.1875,0
78800,2.9375,-7.5,4.625,0
78820,3.25,-8.3125,4.25,0
78840,1.25,-9,3.875,0
78860,0.9375,-10.4375,3.6875,0
78880,2.0625,-12,1.5,0
78900,0.1875,-14,0.125,0
78920,-0.875,-15.0625,-1.125,0
78940,0.375,-17.0625,-2.8125,0
78960,0.0625,-18.3125,-4.125,0
78980,1.8125,-18.625,-4.8125,0
79000,3.5,-18.6875,-5.9375,0
79020,4.625,-19.75,-7.4375,0
79040,2.0625,-20.875,-6.625,0
79060,-2.6875,-21.75,-8.25,0
79080,-2.5,-22.75,-9.1875,0
79100,0.8125,-25.25,-7.75,0
79120,4.75,-25.875,-6.5625,0
79140,5.375,-25.3125,-7.6875,0
79160,4.125,-26.1875,-9.5625,0
79180,-0.375,-26.625,-11.5,0
79200,-0.6875,-28.1875,-13.5,0
79220,4.0625,-30.8125,-14.8125,0
79240,8.375,-33,-18.3125,0
79260,9,-34.375,-19.6875,0
79280,4.9375,-33.375,-19,0
79300,1.4375,-33.1875,-20.8125,0
79320,-0.3125,-34.75,-23.125,0
79330,-0.4375,-35.5625,-25.8125,0
79350,-1.75,-35.1875,-23.9375,0
79370,-0.4375,-35.625,-25.75,0
79390,0.125,-37.125,-27.5,0
79410,-3.5,-36.4375,-27.5625,0
79430,-6.5625,-33.4375,-29.5625,0
79450,-4.875,-31.625,-31.5,0
79470,-2.1875,-34.625,-32.0625,0
79490,-2.75,-35.9375,-33.1875,0
79510,-2,-33.3125,-32.8125,0
79530,-3.4375,-29.3125,-31.875,0
79550,-6.875,-26.875,-30.9375,0
79570,-5.875,-25.625,-30.875,0
79590,-7.9375,-23.25,-29.8125,0
79610,-11.0625,-22.75,-28.75,0
79630,-11.375,-21.125,-27.9375,0
79650,-10.5,-17.9375,-27.625,0
79670,-12.1875,-14.875,-28.0625,0
79690,-15.5,-11.8125,-30.0625,0
79700,-17.8125,-9,-30.0625,0
79720,-17.5,-6.8125,-30.375,0
79740,-17.625,-6.625,-30.5,0
79760,-17.375,-6.5,-32.0625,0
79780,-17.8125,-6.4375,-31.3125,0
79800,-17,-5.0625,-30.5625,0
79820,-17.6875,-2.625,-29.75,0
79840,-20.1875,0.125,-29.1875,0
79860,-21.375,2.1875,-28.3125,0
79880,-20.0625,3.5,-28.5,0
79900,-19.125,5.1875,-27.8125,0
79920,-19.5625,8.875,-27.9375,0
79940,-18.875,11.3125,-29.0625,0
79960,-17.3125,12.5625,-29.25,0
79980,-18.5625,12.25,-28.375,0
80000,-21.1875,14.5625,-28.0625,0
80020,-21.1875,16,-26.25,0
80040,-22,19.0625,-23.875,0
80060,-23.1875,23.6875,-21.875,0
80080,-22.25,27.6875,-20.1875,0
80110,-23.375,34.1875,-17.75,0
80140,-25.0625,39.25,-16.1875,0
80160,-25.25,41.3125,-15.625,0
80180,-25.1875,43.625,-15,0
80200,-24.375,44.5625,-15.125,0
80220,-23.9375,44.5,-15.25,0
80240,-24.4375,46.125,-15.1875,0
80280,-23.125,57.1875,-12.8125,0
80300,-22.75,60.5625,-11.8125,0
80320,-22.5,64.5,-10.0625,0
80340,-20.6875,67.4375,-8.5,0
80360,-20,71.5,-4.75,0
80380,-14.875,74.0625,-0.3125,0
80400,-9.5625,77.375,1.875,0
80420,-10.8125,80.0625,0.25,0
80440,-15.25,78.8125,-1.625,0
80460,-13.875,72.5625,-0.875,0
80480,-8.0625,68,0.875,0
80500,-8.625,64.625,-0.0625,0
80520,-13.875,64.25,-1.5625,0
80540,-15.3125,61.5625,0.4375,0
80560,-11.6875,57,1,0
80580,-7.9375,54.375,3.4375,0
80600,-9.375,53.625,5.75,0
80620,-13.5,54.625,5.25,0
80640,-10.8125,49.75,5.3125,0
80660,-6.375,44.5,7.9375,0
80680,-4.3125,41.6875,9.625,0
80700,-6.625,38,7.1875,0
80720,-9,34.375,6.4375,0
80740,-5.75,29.4375,10.1875,0
80760,4,23.75,12.125,0
80780,5.625,17.3125,10.5,0
80800,-0.9375,14.625,7.9375,0
80820,-6.9375,14.125,9.3125,0
80840,-9.0625,11.0625,10.9375,0
80860,-9.4375,11.3125,15.75,0
80880,-6.1875,15.5,17.375,0
80900,-1.9375,13.375,15.0625,0
80920,0.125,11.25,15.375,0
80940,-5.5625,15.25,15.6875,0
80960,-11.0625,17.625,17.1875,0
80980,-4.0625,13.25,18.625,0
81000,2,13.9375,18.9375,0
81020,-2,16.25,16.1875,0
81040,-9.75,16.25,16.1875,0
81060,-2.6875,11.375,17.125,0
81080,4.25,11.1875,15.9375,0
81100,-3.375,16.3125,15.6875,0
81120,-14.8125,19.125,16.875,0
81140,-11.625,17.875,22,0
81160,-3.125,13.875,24.875,0
81180,-1.5,15.125,26,0
81200,-15.25,20.625,24.9375,0
81220,-19.1875,18.5625,27.1875,0
81240,-9.4375,12.8125,27.8125,0
81260,0.5625,11.25,26.5625,0
81280,-2.3125,14.25,22.5,0
81300,-15.4375,16,20.5,0
81320,-13.6875,10.6875,23.375,0
81340,-2.6875,6.5,25.6875,0
81360,-4.8125,12,23.375,0
81380,-11.875,12.875,20.8125,0
81400,-8,5.8125,22.9375,0
81420,2.1875,2.125,24.1875,0
81440,1.6875,4.625,20.5625,0
81460,-8.75,5.5625,19.0625,0
81480,-12.5625,0.25,20.125,0
81500,-6.75,-2.9375,20.125,0
81520,-5.4375,-3.625,20.75,0
81540,-5,-4.9375,19.625,0
81560,-5.6875,-5.9375,16.1875,0
81580,-3.6875,-7.75,14.8125,0
81600,-4.125,-8.6875,15.125,0
81620,-4.875,-8.125,15.5,0
81640,1.3125,-9.25,15.3125,0
81660,4.8125,-13.75,16.3125,0
81680,0.125,-14.125,17.1875,0
81700,-2.875,-12.375,17.125,0
81720,-4.75,-15.5625,15.5625,0
81740,-0.875,-18.5,15.9375,0
81760,4.5,-19.75,15.4375,0
81780,5.1875,-19.625,14.4375,0
81800,1.875,-20.4375,13.375,0
81820,0.75,-21.6875,12.875,0
81840,2.625,-22.4375,13.1875,0
81860,4.1875,-22.4375,13.125,0
81880,2.1875,-22.625,13.125,0
81900,1.875,-22.6875,12.6875,0
81920,3.8125,-22.375,11.8125,0
81940,1.0625,-21.75,11.25,0
81960,1.75,-20.75,11.1875,0
81980,2.3125,-21.5,10.6875,0
82000,-1.4375,-21.5,11.0625,0
82020,-3.6875,-18.125,11.375,0
82040,2.125,-17.25,9.625,0
82060,1.25,-20.4375,8.25,0
82080,-7.5,-20.4375,8.875,0
82100,-7.625,-18.0625,10.5625,0
82120,-2.75,-20,10.9375,0
82140,-4.4375,-23.375,12,0
82160,-9.5625,-21.0625,12.4375,0
82180,-11.3125,-21.1875,12.75,0
82200,-12.6875,-25.25,13.5,0
82220,-13.25,-25.75,13.25,0
82240,-11.8125,-26,12.9375,0
82260,-12.0625,-29.4375,14.25,0
82280,-16.8125,-31.5,15.375,0
82300,-17.25,-30.625,16.4375,0
82320,-13.0625,-31.4375,15.75,0
82340,-13.0625,-34,13.75,0
82360,-15.25,-34.9375,12.4375,0
82380,-13.125,-35.125,10.5,0
82400,-12.1875,-35.75,9.25,0
82420,-10.75,-37.125,7.0625,0
82440,-5.3125,-37.8125,0.9375,0
82460,-2.0625,-37.1875,-3.75,0
82480,-1.3125,-39.0625,-6.3125,0
82500,-2.5,-37.9375,-6.625,0
82520,0.9375,-38.5,-6.6875,0
82540,0,-40.6875,-4.375,0
82560,-0.3125,-42.4375,-2.4375,0
82580,0.8125,-42.25,-1.9375,0
82600,-1.875,-41.625,-1.4375,0
82620,-5.1875,-44.8125,-0.0625,0
82640,-7.9375,-46.1875,1.1875,0
82660,-3.5,-45.125,1.625,0
82680,-1.3125,-45.4375,-0.4375,0
82690,-4.9375,-46.4375,0.375,0
82710,-5.625,-46.25,0.5,0
82730,-4.375,-44.25,-1.875,0
82750,-3.4375,-44.9375,-2.6875,0
82770,-5.375,-44.1875,-2.5,0
82790,-4.75,-41.5,-4.4375,0
82810,-2.375,-40.375,-10.0625,0
82830,-1.6875,-42.8125,-10.1875,0
82850,-5.625,-41.25,-9.1875,0
82870,-0.875,-36.5,-10.75,0
82890,2.4375,-35.5625,-11.75,0
82910,-0.4375,-35.4375,-10.5,0
82930,-1.4375,-31.5,-11.125,0
82950,0.75,-30.375,-13.1875,0
82970,1.8125,-29,-13.5625,0
82990,2.4375,-26.375,-12.125,0
83010,3.0625,-25.0625,-13.9375,0
83030,1.8125,-24.875,-15.125,0
83050,1.125,-24.0625,-14.9375,0
83070,2.5,-24.75,-16.1875,0
83090,2.625,-24.375,-16.1875,0
83110,5.25,-23.8125,-18.6875,0
83130,4.5,-23.5,-22.6875,0
83150,0.1875,-22.375,-22.1875,0
83170,0.1875,-21.5625,-22.6875,0
83190,5.625,-22.875,-26.25,0
83210,3.1875,-22,-25.875,0
83230,0.25,-18.4375,-27.75,0
83250,1.0625,-17.4375,-30.5625,0
83270,0.75,-16.625,-33.0625,0
83290,-2.6875,-15.4375,-34.125,0
83310,-3.875,-14.25,-35.1875,0
83330,-0.125,-13.1875,-36.5,0
83350,-1,-11.6875,-40.3125,0
83370,-7.875,-7.375,-39,0
83390,-8.625,-5.375,-38.25,0
83410,-4.625,-4.9375,-39.0625,0
83430,-3.75,-2.0625,-39.6875,0
83450,-8.0625,2.5,-36.8125,0
83470,-11.0625,7.375,-34.8125,0
83490,-6.6875,9.4375,-37.75,0
83510,-10.375,12.375,-37.0625,0
83530,-14,19.125,-34.5,0
83550,-9.5625,22.75,-36.4375,0
83570,-7.25,18.9375,-41,0
83590,-11.125,22.1875,-40.5625,0
83610,-15.8125,27.0625,-38.125,0
83630,-13.8125,26.4375,-39.625,0
83650,-9.875,23.6875,-41.875,0
83670,-10.5,23.5625,-43.3125,0
83690,-15.0625,27.4375,-41.25,0
83710,-20.3125,27.1875,-37.75,0
83730,-18.0625,26.5625,-37.0625,0
83750,-12.4375,27.0625,-36.5,0
83770,-14.75,28.25,-33.3125,0
83790,-17.6875,30.1875,-28.5,0
83810,-14.5,30.75,-28,0
83830,-13.125,29.5625,-28.9375,0
83850,-16.375,29.25,-28.875,0
83870,-19.0625,31.3125,-26.5,0
83890,-18.5,32,-26.375,0
83910,-16.375,30.4375,-27.3125,0
83930,-16.25,30.5625,-27.3125,0
83950,-16.3125,32.3125,-28.6875,0
83970,-18.375,32.125,-28.25,0
83990,-18.5625,32.4375,-28.1875,0
84010,-18.25,33.0625,-27.5,0
84030,-17.5,34.125,-27.125,0
84050,-17.1875,35,-25.6875,0
84070,-15.875,35.25,-24.625,0
84090,-15.875,35.75,-24.75,0
84110,-16.625,36.75,-22.125,0
84130,-16.5625,36.625,-19.3125,0
84150,-14.375,37.0625,-17.375,0
84170,-12.5625,36.75,-14.5625,0
84190,-9.9375,34.6875,-9.1875,0
84210,-6.75,31.875,-6.8125,0
