Timestamp, Rotation x, Rotation y, Rotation z, Marker
40,-67.5,-33,18.625,0
60,-40,-28.75,12.5625,0
80,-18.5,-23.3125,7.4375,0
100,-1.375,-16.25,4.25,0
120,12.5625,-8.9375,-3.0625,0
140,26.0625,-3.375,-13.25,0
150,42.0625,-0.125,-18.375,0
160,58.4375,3,-19.625,0
200,71.375,6.5,-22.125,0
220,75.9375,8.125,-26.4375,0
240,71.125,7.125,-27.5625,0
260,62.1875,5.5625,-24.375,0
280,49.0625,4.3125,-19.375,0
300,33.4375,3.0625,-14.5,0
320,19.8125,1.5625,-10.625,0
340,10.1875,0.9375,-5.3125,0
360,3.3125,1.8125,-0.3125,0
380,-2.625,2.1875,3.125,0
400,-6.6875,1.6875,4.5,0
420,-9.625,0.3125,4.75,0
440,-11.125,-0.625,4.8125,0
460,-10.5,-0.5,5.25,0
480,-7.875,-0.0625,4.25,0
500,-3.8125,-0.1875,3.4375,0
520,0,-0.75,2.6875,0
540,2.25,-1.25,2.25,0
560,2.25,-1.375,1.5625,0
580,0.875,-1.875,1.3125,0
600,-1.875,-2,1.125,0
620,-3.875,-1.6875,0.6875,0
640,-4.6875,-0.75,0.375,0
660,-5.125,0.625,-0.0625,0
680,-4.25,1.8125,-0.625,0
700,-2.625,2.6875,-1.0625,0
720,-1.9375,3.8125,-1.5625,0
740,-0.5625,4.3125,-1.75,0
760,1.3125,4.1875,-2.0625,0
780,2.6875,3.5,-1.125,0
800,1.75,3.125,-0.9375,0
820,0.9375,3.125,-1.0625,0
840,-0.5625,2.6875,-0.5625,0
860,-1,1.8125,0.0625,0
880,-2.3125,1.4375,0,0
900,-4.375,2.875,-0.25,0
920,-5,3.125,0.8125,0
940,-6.1875,1.75,2.0625,0
960,-8.1875,0.5625,4.3125,0
980,-9.6875,0.4375,4.8125,0
1000,-10.8125,1.4375,5,0
1020,-12.4375,3,5.1875,0
1040,-12.5,5.25,5.25,0
1060,-10.75,8,4.0625,0
1080,-8.6875,9.3125,2,0
1100,-5.75,8.6875,0.5625,0
1120,-1.9375,8.0625,0,0
1140,0.9375,8.875,-0.1875,0
1150,2.375,9.125,-0.625,0
1170,2.375,8,-1.5625,0
1190,1.9375,6.75,-2.25,0
1210,2.5625,5.25,-1.8125,0
1230,3.75,3.375,-1.5625,0
1250,5.0625,1.5625,-0.8125,0
1270,4.4375,0.125,0.25,0
1290,2.25,0.0625,1.1875,0
1310,-0.25,-0.1875,1.8125,0
1330,-1.5,-0.75,2.0625,0
1350,-2.125,-1.125,2.4375,0
1370,-1.75,-0.8125,2.6875,0
1390,-0.375,0,2.25,0
1410,-0.0625,0.0625,2.0625,0
1430,-0.8125,-0.5,1.875,0
1450,-0.625,-1,1.5625,0
1470,1.1875,-1.125,1.3125,0
1490,4.25,-2.0625,1.1875,0
1510,5.5625,-3.1875,1.8125,0
1530,5.125,-3.875,1.875,0
1550,3.375,-4.5625,2.125,0
1570,2.3125,-5.5,2.875,0
1590,1.6875,-6.3125,3.3125,0
1610,0.5,-5.75,3.0625,0
1630,-2,-4.125,3,0
1650,-3.8125,-1.6875,2.6875,0
1670,-3.25,-0.5625,3.0625,0
1690,-1.25,-1.125,4.0625,0
1710,0.4375,-1.1875,4.8125,0
1730,1.25,-0.9375,4.6875,0
1750,-0.4375,-0.1875,5.25,0
1770,-3.625,0,5.875,0
1790,-6.3125,0.1875,5.125,0
1810,-6.75,0.625,4.25,0
1830,-5,1.25,3.25,0
1850,-3,2.125,1.75,0
1870,0.1875,1.8125,0.5625,0
1890,1.8125,1.5,-0.5,0
1910,1.8125,1.375,-0.875,0
1930,0.4375,1.4375,-1.25,0
1950,-1,2.1875,-1.6875,0
1970,-1.3125,2.3125,-1.75,0
1990,-0.5625,2.0625,-2.0625,0
2010,1.3125,1.875,-2,0
2030,2.25,1.625,-1.3125,0
2050,1.75,1.25,-0.9375,0
2070,-0.125,0.625,-0.6875,0
2090,-2.25,0.0625,-0.0625,0
2110,-3.1875,-0.3125,0.25,0
2130,-3.4375,-0.25,0.25,0
2150,-1.875,-0.8125,0.1875,0
2170,-0.9375,-1.1875,-0.125,0
2190,-0.125,-1.4375,-0.375,0
2210,1.0625,-1.4375,-0.875,0
2230,2.5625,-1.75,-1.625,0
2250,3.875,-1.9375,-2.1875,0
2270,5,-1.375,-2.8125,0
2290,5.5625,-0.875,-3,0
2310,6.125,0.0625,-3.3125,0
2330,5.1875,-0.4375,-2.0625,0
2350,4.1875,-0.4375,-1.6875,0
2370,1,-0.8125,-0.875,0
2390,-2.5625,-1,0.3125,0
2410,-3.875,-1.0625,0.875,0
2430,-4.1875,-1.625,1.375,0
2450,-3.875,-1.9375,1.0625,0
2470,-2.875,-1.9375,1.0625,0
2490,-1.5,-2.125,0.5,0
2510,-0.1875,-2.6875,-0.0625,0
2530,0.75,-2.9375,-0.8125,0
2550,0.625,-2.75,-1.25,0
2570,-0.3125,-2.5,-1.75,0
2590,-0.25,-2.5625,-1.75,0
2610,1.125,-2.875,-2.1875,0
2630,2.375,-2.6875,-2.5,0
2650,2.875,-2,-2.5625,0
2670,1.875,-1.4375,-2.5,0
2690,0.9375,-1.1875,-2,0
2710,0.875,-0.8125,-2.0625,0
2730,1.75,-0.625,-2,0
2750,2.1875,-0.25,-1.5625,0
2770,2.0625,0.375,-0.875,0
2790,0.5,1,-0.375,0
2810,-0.25,1.0625,-0.0625,0
2830,0,0.6875,0.1875,0
2850,0.1875,0.3125,0.5,0
2870,0.0625,0.1875,0.6875,0
2890,-0.125,0.4375,0.875,0
2910,-0.4375,0.25,1.1875,0
2930,-0.6875,-0.125,1.1875,0
2950,-0.6875,0,0.9375,0
2970,-0.625,0.0625,1.75,0
2990,-0.625,0.0625,2.1875,0
3010,-1.4375,0,1.5625,0
3030,-2.375,0.125,1.1875,0
3050,-2.8125,0.375,1.1875,0
3070,-0.375,0.125,1.1875,0
3090,1.5625,-0.625,0.6875,0
3110,2.3125,-0.9375,-0.375,0
3130,1.5,-0.3125,-1.375,0
3150,0.6875,0.0625,-2.25,0
3170,1,0.0625,-2.5625,0
3190,2.4375,0.0625,-2.875,0
3210,4.0625,0.375,-2.625,0
3230,5.4375,0.75,-1,0
3250,6,-0.5625,3.25,0
3270,8.4375,-1.75,4.9375,0
3290,9.5,-1.75,5.125,0
3310,5.125,-1.625,6.25,0
3330,-2.4375,-1,6.875,0
3350,-9.125,0.3125,6.125,0
3370,-12.3125,0.5625,5.5,0
3390,-11.1875,0.1875,4.75,0
3410,-8,-0.125,3.75,0
3430,-3.3125,-0.375,3.375,0
3450,0.8125,-0.4375,2.75,0
3470,2.6875,-0.1875,2.0625,0
3490,2.375,-0.1875,1.5625,0
3510,0.75,0,0.5625,0
3530,0.125,0.125,0.4375,0
3550,0.5,0.4375,0.5,0
3570,1.6875,0.75,-0.125,0
3590,2.3125,0.5625,-1.25,0
3610,2.0625,0.4375,-2.125,0
3630,2,0.4375,-3.0625,0
3650,2.375,0.6875,-3.8125,0
3670,3.3125,1.125,-3.8125,0
3690,4.0625,1.3125,-3.6875,0
3710,2.9375,1.625,-2.8125,0
3730,-0.0625,1.75,-1.6875,0
3750,-2.25,-0.125,-0.1875,0
3770,-3.0625,-1.625,1.75,0
3790,-1.5,-3.375,4.375,0
3810,-0.25,-4.3125,6.1875,0
3830,-2,-5,6.8125,0
3850,-8.75,-5.5625,6.875,0
3870,-14.9375,-7.0625,6.9375,0
3890,-20.0625,-8.3125,7.3125,0
3910,-20.1875,-8.25,6.5,0
3930,-21.5625,-8.75,7.8125,0
3950,-26.0625,-9,8.5,0
3970,-26.375,-10.25,9,0
3990,-29.3125,-11.125,11.9375,0
4010,-30.125,-9.4375,14.5625,0
4030,-30.75,-6.3125,15.0625,0
4050,-28,-3.1875,13.3125,0
4070,-24.0625,-2.4375,11.25,0
4090,-18.6875,-2.1875,9.375,0
4110,-12.9375,-0.5,6.875,0
4130,-6.8125,1,5.5625,0
4150,-2.625,2.25,4.4375,0
4170,1.4375,2.9375,4.375,0
4180,4.0625,2.5,4.5,0
4200,4.5,2.8125,4,0
4220,2.1875,2.9375,4.0625,0
4240,-0.9375,3.125,5.25,0
4260,-2.9375,2.3125,6.3125,0
4280,-5,0.875,7.5625,0
4300,-9.4375,0.125,9.125,0
4320,-15.9375,-0.875,10.625,0
4340,-24.0625,-1.5625,11.625,0
4360,-28.5,-5.25,16.25,0
4380,-20.0625,-11.0625,22.25,0
4400,-25.625,-13.1875,26.5625,0
4420,-36.4375,-17.25,37.1875,0
4440,-68.5625,-29,53.3125,0
4460,-96.875,-33.3125,51.5,0
4480,-92.1875,-31.4375,37.5,0
4500,-73.25,-32.3125,33.25,0
4520,-62.0625,-30.125,29.5,0
4540,-52.25,-25.5625,23,0
4560,-41.25,-19.375,14.0625,0
4580,-29.75,-8.8125,1.125,0
4600,-17,2.6875,-10.9375,0
4620,-12.75,12.3125,-17.125,0
4640,-8.625,19.375,-17.375,0
4660,-2.5,23.0625,-16.625,0
4680,-5.1875,30.3125,-16.875,0
4700,-8.75,32.0625,-15.3125,0
4720,-1.5,39.8125,-7.75,0
4740,1.625,50.125,-0.9375,0
4760,0.6875,57.3125,-0.875,0
4780,14,54.6875,-12.5625,0
4800,20.0625,21.4375,-15.1875,0
4820,15,-7.9375,-10.375,0
4840,14.875,1.1875,-10.4375,0
4860,21.375,16.1875,-8.625,0
4880,17.4375,20.1875,-8.4375,0
4900,3.625,15.8125,-8,0
4920,4.375,10.1875,-6.6875,0
4940,3.625,10.5625,-8.1875,0
4960,5.9375,9.625,-8,0
4980,0.9375,8.4375,-7.25,0
5000,-5.8125,6.25,-8.25,0
5020,-6.6875,4.3125,-8.4375,0
5040,-8.75,6.375,-9.8125,0
5060,-6.875,8.4375,-8.4375,0
5080,-12.75,9.875,-6.875,0
5100,-25.1875,12.5625,-8.375,0
5120,-24,15,-9.3125,0
5140,-18.125,15.4375,-7.625,0
5160,-18.5625,16.6875,-6.0625,0
5180,-20.4375,18.5,-6.0625,0
5200,-17.5625,18.5,-5.5,0
5220,-15.375,18.875,-5.125,0
5240,-11.9375,18.125,-3.6875,0
5260,-9.375,16.4375,-1.8125,0
5280,-1.5,13.0625,-1.5,0
5300,-4.8125,8.3125,1.75,0
5320,-12.125,1.875,3.8125,0
5340,-23.6875,-4.5,5.75,0
5360,-26.6875,-11.1875,6.5625,0
5380,-27.5,-16,7.5625,0
5400,-25.9375,-17.25,8.5,0
5420,-21.5625,-16.375,9.8125,0
5440,-17.6875,-15.625,9.125,0
5460,-18.625,-12.625,7.75,0
5480,-13.6875,-8.5,6.4375,0
5500,-7.125,-5.375,5,0
5520,-3.75,-1.6875,1.9375,0
5540,2.4375,1.75,1,0
5560,1.5625,4.0625,2.125,0
5580,0.625,6.6875,2.125,0
5600,1.0625,6.4375,2.625,0
5620,3.875,6.1875,2.1875,0
5640,3.0625,6.9375,1.6875,0
5660,-0.75,7.8125,2,0
5680,0.9375,9.1875,1.25,0
5700,5.625,10.5,-0.4375,0
5720,7,10.5625,-0.3125,0
5740,2.1875,10.875,0.625,0
5760,-2.9375,9,2,0
5780,-11,4.0625,2.625,0
5800,-27.25,-1.625,4.1875,0
5820,-34.5625,-1.5625,5.875,0
5840,-19.8125,-0.75,6.75,0
5860,-2.5625,-0.625,6.0625,0
5880,7.5,0.75,3.5,0
5900,10.9375,2.6875,1.5,0
5920,13,3.25,-0.8125,0
5940,13.125,1.8125,-3.1875,0
5960,11.125,-0.875,-5.5,0
5980,9.875,-3.0625,-5.5,0
6000,11.8125,-5.5,-4.625,0
6020,14.625,-7.25,-3.1875,0
6040,11.125,-7.875,-0.875,0
6060,6.125,-7.1875,2.125,0
6080,3.1875,-5.5,5.5,0
6100,1.8125,-5.1875,5.875,0
6120,1.5625,-7.75,6.0625,0
6130,0.375,-9.8125,6.4375,0
6150,2.75,-10,6.25,0
6170,5.5625,-9.3125,6.3125,0
6190,4.25,-7.75,7.0625,0
6210,1.1875,-5.125,8.0625,0
6230,-2.875,-2.125,9,0
6250,-4.5,1,10.5,0
6270,-1.125,6,16.5,0
6290,0.5625,13,20.125,0
6310,-8.5625,14.75,13.8125,0
6330,-17.625,6.4375,6.75,0
6350,-22.25,-4.625,7.3125,0
6370,-18.125,-9.9375,13.3125,0
6380,-9.6875,-10.3125,22.125,0
6400,-5.25,-3.25,28.5625,0
6410,-8.1875,6.0625,32.125,0
6430,-18.25,11.625,26.125,0
6450,-24.75,9.4375,15.0625,0
6470,-16.75,5.25,9.6875,0
6490,-2.6875,3.125,6.75,0
6510,11.125,3.625,7.8125,0
6530,15.6875,6.5,7.1875,0
6550,12.4375,8.0625,-4.1875,0
6570,22.3125,6.5,-18.5625,0
6590,44.5625,0.9375,-22.125,0
6610,44.4375,-2.0625,-16.125,0
6630,29.4375,-0.6875,-11.625,0
6650,20.8125,0.8125,-9.0625,0
6670,16.4375,1.8125,-8.5625,0
6690,16.9375,-0.3125,-6.8125,0
6710,12.5625,-2.875,-3.4375,0
6730,11.6875,-4.125,-1.375,0
6750,14.875,-3.6875,-0.5,0
6770,18.875,-2.5,-0.75,0
6790,23.375,-1.75,-0.0625,0
6810,24.1875,-0.75,2.9375,0
6830,24,-0.875,5.0625,0
6850,21.875,-1.125,4.125,0
6870,13.75,-1.375,5.125,0
6890,5.0625,-0.5,4.8125,0
6910,1.3125,1.25,4.6875,0
6930,2.1875,3.75,6.375,0
6950,4.8125,7.125,8.6875,0
6970,4.8125,11.1875,9.625,0
6990,3.3125,14.625,7.125,0
7010,-0.0625,13.875,1.25,0
7030,-1.4375,10.5625,0,0
7050,2.375,8.5625,0.25,0
7070,3.625,8.5625,2.875,0
7090,4.1875,11.125,6.3125,0
7110,0.625,14.875,10.1875,0
7130,-3.8125,19.125,12.5625,0
7150,-6.1875,22.4375,14.5625,0
7170,-7.875,25.25,15.625,0
7190,-12.0625,27.8125,14.875,0
7210,-9.3125,25.0625,14.375,0
7230,-2.4375,19.875,11.4375,0
7250,6.6875,14,6.75,0
7270,10,6.75,-1.375,0
7290,7.625,-2.4375,-10.75,0
7310,10.1875,-5.6875,-4.1875,0
7330,11.1875,0.3125,6.5625,0
7350,0.125,5.875,6.375,0
7370,-14.4375,7,7.0625,0
7390,-33.875,5.6875,6.4375,0
7410,-42.1875,1.9375,6.875,0
7430,-33.375,-2.25,8.6875,0
7450,-21.625,-3.1875,9.25,0
7470,-11.75,-1.125,8,0
7490,-6.4375,1,6.125,0
7510,-0.375,2.3125,1.9375,0
7530,9.375,2.8125,-1.8125,0
7550,16.5,2.75,-3.6875,0
7570,14.75,2.125,-4.125,0
7590,12.875,0.875,-5.3125,0
7610,8.875,0.5,-5.1875,0
7630,8.875,0.625,-4.125,0
7650,8.9375,-0.625,-2.8125,0
7670,6.375,-0.3125,-1.75,0
7690,5.6875,0.625,-1.75,0
7710,3.5625,1.3125,-0.3125,0
7730,-0.125,1.625,2.3125,0
7750,-1.5625,1,2.75,0
7770,-2.4375,1.4375,2.625,0
7790,-3.6875,1.875,3.0625,0
7810,-6.125,2.625,3.0625,0
7820,-4.75,2.9375,2.25,0
7840,-4.3125,3.125,1.5,0
7860,-2.5625,2.9375,0.9375,0
7880,-0.75,2.5625,-0.125,0
7900,1.125,2.5,-1.4375,0
7920,4.875,2.5625,-2.8125,0
7940,8.3125,2.0625,-4.1875,0
7960,10.25,1.875,-5,0
7980,12.125,2.9375,-6.375,0
8000,17.8125,4.5625,-8.4375,0
8020,22.5625,4.125,-9.3125,0
8040,19.75,3.625,-7.8125,0
8060,15.0625,4.125,-7.125,0
8080,15.125,4,-7.3125,0
8100,17.25,3.75,-7.5625,0
8120,16,1.375,-6.1875,0
8140,6.4375,-2.625,-3.8125,0
8160,-12.5625,-5.3125,-1.625,0
8180,-23.9375,-6.4375,-2.75,0
8200,-20.625,-7.625,-4.4375,0
8220,-8.875,-6.8125,-6.9375,0
8240,6.9375,-5.5,-9.8125,0
8260,18.3125,-3.4375,-12.1875,0
8280,25.5,-0.5,-15.625,0
8300,34.5625,4.5625,-20.375,0
8320,47.125,10.875,-26.0625,0
8340,62.5625,16.0625,-32,0
8360,78.4375,19.0625,-36.0625,0
8380,88.875,21.3125,-39.3125,0
8400,94.625,24.75,-41.0625,0
8420,97.0625,27.1875,-43.25,0
8440,99.3125,28.375,-43.5625,0
8460,102.312,27.1875,-40.5625,0
8480,101.312,24.8125,-38.1875,0
8500,91.5625,20.6875,-33.75,0
8520,71.9375,16.6875,-28.5,0
8540,44.5625,13.5,-20,0
8560,19.0625,9.4375,-8.5625,0
8580,0,5,2.5625,0
8600,-11.25,-0.5625,11.6875,0
8620,-21.125,-6.25,18.0625,0
8640,-31.1875,-8.5,19.75,0
8660,-37.8125,-7.625,18.625,0
8680,-37.625,-5.1875,15.875,0
8700,-29.6875,-2.875,10.6875,0
8720,-16.75,-0.5625,5.375,0
8740,-2.1875,2,0.4375,0
8760,8.5,4.1875,-4.375,0
8780,15.375,5.25,-7.5,0
8800,15.5625,5.4375,-7.875,0
8820,13.125,4.4375,-6.8125,0
8840,8.9375,2.6875,-4.375,0
8860,4.1875,0.875,-2.0625,0
8880,-1.125,0.625,-0.0625,0
8900,-4.3125,0.75,1.8125,0
8920,-4.5,0.0625,4,0
8940,-5.6875,0.125,4.9375,0
8960,-6.0625,0.5625,5.375,0
8980,-5.5625,0.125,4.875,0
9000,-5.8125,0.0625,3.75,0
9020,-7,1.4375,3.375,0
9040,-8,4.3125,3.1875,0
9060,-9.9375,7,2.9375,0
9080,-10.625,8.0625,0.125,0
9100,-5.3125,9.125,-1,0
9120,-1.9375,11.75,0.625,0
9140,-6.375,11.875,2.3125,0
9160,-11.4375,9.375,2,0
9180,-12,6.6875,3.1875,0
9200,-13.4375,4.6875,5.3125,0
9220,-16.9375,2.875,6.875,0
9240,-22.0625,1.6875,7.125,0
9260,-25.1875,1.0625,6.6875,0
9280,-23.625,0.0625,6.0625,0
9300,-21.25,0.0625,5.75,0
9320,-20.1875,1.1875,6,0
9340,-17.75,1.875,4.8125,0
9360,-13.6875,1.9375,4.25,0
9380,-12.25,1.3125,4.8125,0
9400,-14.1875,1.8125,5.1875,0
9420,-16.875,3.25,5.4375,0
9440,-17.25,4.25,5.25,0
9450,-16.25,3.5,4.75,0
9470,-12.5625,3.125,4.5,0
9490,-10.3125,3,5.8125,0
9510,-9.5625,3.25,5.9375,0
9530,-9.75,3,6.0625,0
9550,-10.4375,2,6.0625,0
9570,-8.75,0.4375,6.5625,0
9590,-9.0625,0.625,6.1875,0
9610,-5.375,1.8125,5.4375,0
9630,-1,2.25,4.5625,0
9650,0.8125,3.75,3.5,0
9670,3,4.8125,2.125,0
9690,6.4375,6.1875,-0.25,0
9710,12.625,8.3125,-1.3125,0
9730,18.5,9.625,-2.25,0
9750,22.875,10.75,-3.375,0
9770,25.75,12.5625,-4.6875,0
9790,31.25,11.625,-5.8125,0
9810,33.5,9.5625,-6.625,0
9830,34.9375,7.5625,-5.375,0
9850,29.75,4,-1.9375,0
9870,11,0.625,4.0625,0
9890,-17.0625,-4.1875,5.75,0
9910,-25.1875,-6.875,8.375,0
9930,-15.1875,-5.75,9.1875,0
9950,-7.5,-4.5,5.6875,0
9970,1.1875,-2.9375,4.5,0
9990,1.0625,-1.375,2.5,0
10010,2.625,-0.125,0.6875,0
10030,4.875,0.0625,0.8125,0
10050,1.5,0.4375,3.0625,0
10070,-13.3125,-0.875,5.1875,0
10090,-18.3125,-1.0625,5.75,0
10110,-29.4375,0.8125,8,0
10130,-46.4375,3.0625,7.875,0
10150,-42.75,3.875,9.375,0
10170,-31.125,2.6875,8.5,0
10190,-26,0.5,8.125,0
10210,-24.4375,-3.25,9.9375,0
10230,-21.9375,-7.1875,10.4375,0
10250,-18.625,-6.5,9.625,0
10270,-17.0625,-4.875,8.9375,0
10290,-17,-5.1875,6.5625,0
10310,-12.375,-4.625,3.5,0
10330,-6.125,-4.3125,1.5,0
10350,-1.25,-3.25,-0.375,0
10370,0.4375,-2.8125,-1,0
10390,3.1875,-2.75,-2.0625,0
10410,5.375,-1.8125,-3.4375,0
10430,7.375,0.4375,-3.375,0
10450,6.625,1.625,-2.125,0
10490,1.75,1.8125,-3.875,0
10530,8.625,0.5625,2.1875,0
10550,0.1875,-7.3125,4.8125,0
10570,-6,-9.75,5.1875,0
10590,-9.9375,-13.625,8.3125,0
10610,-16.125,-19.0625,12.75,0
10630,-24.8125,-20.625,16.125,0
10650,-32.8125,-19.5,15.8125,0
10670,-35.25,-17.625,14.3125,0
10690,-34.5,-13.25,12.25,0
10710,-26.3125,-9.375,9.3125,0
10730,-14.8125,-6.8125,5.25,0
10750,-6.5,-3.8125,1.8125,0
10770,-4,-0.125,0.375,0
10790,-5.9375,3.3125,-0.625,0
10810,-4.625,3.5,-0.8125,0
10830,-3.6875,1.3125,-1.375,0
10850,-7.125,-1.125,0.3125,0
10870,-15.25,-4.375,3.25,0
10890,-20.125,-10.8125,5.125,0
10910,-23.6875,-16.625,5,0
10930,-27.625,-17.4375,5.625,0
10950,-26.125,-17.3125,10.4375,0
10970,-30.375,-16.875,9.8125,0
10990,-24.25,-13.75,6.0625,0
11010,-7.8125,-10.5625,5,0
11030,0,-7.75,3.5625,0
11050,-1.25,-5.1875,2,0
11070,-5.5625,-1.8125,0.6875,0
11090,-6.8125,0.4375,0.4375,0
11110,-7,1.5625,1.0625,0
11130,-8.375,1,1.5,0
11150,-8.1875,-0.0625,1.4375,0
11170,-6.3125,-0.875,0.4375,0
11190,-4.125,-2.0625,-0.6875,0
11210,-5.125,-3.5625,-0.6875,0
11230,-7.3125,-5.5625,-1,0
11250,-4.25,-8.6875,0,0
11270,0.625,-10.6875,-1.125,0
11290,3.5625,-11.75,-2.125,0
11310,4.375,-12,-1.375,0
11330,7.3125,-11.8125,-1.4375,0
11350,9.9375,-11.375,-1.75,0
11370,12.5,-10.625,-2.5625,0
11380,10.6875,-8.0625,-3.5625,0
11400,9.25,-7.125,-6.3125,0
11420,14,-5,-10.75,0
11440,21.9375,-6.625,-13.125,0
11460,23.4375,-8.625,-10.875,0
11480,18.3125,-9.3125,-10.125,0
11500,13.3125,-8.75,-12.25,0
11520,13.25,-9,-12.75,0
11540,3.6875,-10.375,-8.9375,0
11560,-1.0625,-11.8125,-7.3125,0
11580,2.5625,-12.875,-4.0625,0
11600,8,-12.5,0,0
11620,8.25,-15.0625,1.5,0
11640,-3.0625,-19.25,1.375,0
11660,-5.9375,-23.25,2.5625,0
11680,7.9375,-28.5625,5.75,0
11700,15.875,-36.4375,6.8125,0
11720,12.375,-42.5625,3.125,0
11740,2.75,-40.625,-1.0625,0
11760,0.4375,-32.125,-3.5625,0
11780,5.75,-24.375,-6,0
11800,14.75,-19.125,-8.25,0
11820,18.3125,-12.6875,-11.25,0
11840,13.875,-4.9375,-12.75,0
11860,9.125,4.375,-13.625,0
11880,9.75,13.8125,-17.0625,0
11900,17.375,20.5,-23.5625,0
11920,23.625,24.6875,-30,0
11940,19.25,25.9375,-30.375,0
11960,4.625,21.3125,-23.75,0
11980,-0.5,16.25,-17.0625,0
12000,-0.8125,14.125,-11.75,0
12020,-4.625,12.1875,-5.3125,0
12040,-10.5625,11.375,-3.125,0
12060,-20,12.8125,-3.6875,0
12080,-19.75,14.25,-2.5,0
12100,-14.25,13.6875,-1.25,0
12120,-7.4375,15.375,-1.625,0
12140,1.875,15.3125,0.625,0
12160,-4.9375,15.5625,3.125,0
12180,-21.875,14.875,4.75,0
12200,-37.1875,12.3125,10.8125,0
12220,-46.9375,10.5,18.9375,0
12240,-33.9375,-0.6875,20.5,0
12260,-25.6875,-11.75,20.5,0
12280,-5.9375,-15.1875,23.375,0
12300,15.6875,-15.3125,20.5625,0
12320,9.5625,-22.6875,16.9375,0
12340,-2.8125,-33.25,9.5625,0
12360,4.5625,-40.8125,-0.25,0
12380,14.75,-45.1875,-2.8125,0
12400,15,-50.4375,-5.75,0
12420,0.6875,-54.9375,-10.6875,0
12440,-25.0625,-58.125,-10.4375,0
12460,-18.6875,-62.4375,-7.6875,0
12480,-15.125,-64.625,-0.9375,0
12500,-9.875,-63.3125,0.3125,0
12520,6.625,-59.8125,7.375,0
12540,15.3125,-52.25,5.25,0
12560,19.4375,-44.875,1.5,0
12580,20,-42.375,0.5625,0
12600,28,-38.6875,3.1875,0
12620,27.4375,-36.25,8.6875,0
12640,27.0625,-39.25,9.125,0
12660,22.875,-43.0625,7.5,0
12680,18.875,-41.3125,6.6875,0
12700,26.75,-40.6875,8.1875,0
12720,28.625,-40.3125,10.125,0
12740,30.625,-39.125,11.375,0
12760,35.5,-39.5625,11.125,0
12780,25.6875,-41.25,15.625,0
12800,-2.3125,-41.4375,24.1875,0
12820,6.4375,-18,44.1875,0
12840,-20.0625,-43.75,31.5,0
12860,-7.4375,-44.4375,23.8125,0
12880,3.0625,-42.75,10.75,0
12900,59,-33.1875,21.5,0
12920,69.75,-25.75,14.625,0
12940,54.8125,-23.0625,6.9375,0
12960,49.8125,-23.125,2.75,0
12980,56.875,-31.125,-1.125,0
13000,48.5,-43.875,-3.75,0
13020,36.125,-39,-8.625,0
13040,34.625,-28.25,-7.4375,0
13060,29.875,-18.125,-10,0
13080,27.6875,-7.625,-12.375,0
13100,29.8125,-3.25,-12.1875,0
13120,24.1875,-1.5625,-14.1875,0
13140,15.375,-2.75,-12.6875,0
13160,9.75,-4.0625,-10.75,0
13180,8.25,-3.375,-7.125,0
13200,7.75,-0.0625,-5.875,0
13220,5.9375,-0.1875,-4.3125,0
13240,-1.375,-1.0625,-4.9375,0
13260,-6,1.375,-8.6875,0
13280,-0.875,-0.5,-9.25,0
13300,2.3125,-3.625,-9.3125,0
13320,3.8125,-7.5,-9.875,0
13340,5.625,-13.75,-12.125,0
13360,5.5,-17.5625,-19.1875,0
13380,1.5,-19,-17.1875,0
13400,9.5625,-24,-14.4375,0
13420,43.875,-22.9375,-16,0
13440,59.0625,-20.9375,-10.9375,0
13460,70.0625,-19.8125,-9.6875,0
13480,50.6875,-40.875,-4.1875,0
13500,-71.1875,-75.3125,-11.4375,0
13520,-152.938,-36.9375,-9.375,0
13540,-217.688,-47,4.1875,0
13560,-209.125,-35.125,-0.8125,0
13580,-159.25,-22.375,1.6875,0
13600,-76.9375,-11.4375,7.6875,0
13620,-20.75,-13.5,6.4375,0
13640,12,-19.5625,1.75,0
13660,10.4375,-25.375,1.25,0
13680,-6.375,-22.8125,-1.125,0
13700,-22.0625,-19.1875,1.875,0
13720,-28.5,-19.6875,0.5,0
13740,-20.625,-24.375,-7.6875,0
13760,8.75,-15,-18.8125,0
13780,38.25,-14.1875,-22.4375,0
13800,46.125,-25.0625,-20.8125,0
13820,46.125,-34.9375,-15.9375,0
13840,48.5,-41.625,-10,0
13860,55.5,-40.875,-11.25,0
13880,65.75,-32.3125,-11.6875,0
13900,68.4375,-22.3125,-8.6875,0
13920,61.8125,-12,-7.625,0
13940,62.6875,-3.75,-1.3125,0
13960,61.5625,-1.25,11.25,0
13980,42.1875,-2.5625,25.0625,0
14000,20.5625,3.1875,31.8125,0
14020,6.125,9.25,32.875,0
14040,1.8125,7.625,25.6875,0
14060,6.75,5.625,14.0625,0
14080,12.4375,6.875,5.6875,0
14100,19.875,9.75,-2.4375,0
14120,27.1875,16.3125,-6.25,0
14140,28.25,18.625,-8.375,0
14160,28.625,21,-8.375,0
14180,23.5,24.1875,-6,0
14200,21.6875,30.3125,-2.875,0
14220,22.3125,35.75,0.9375,0
14240,26.4375,44.8125,2.125,0
14260,24,57.1875,3.3125,0
14280,19.9375,71.6875,3.8125,0
14300,19.0625,84.5,8.5,0
14320,23.4375,91.25,12.1875,0
14340,29.0625,89.3125,15.1875,0
14360,29.375,79.375,19.6875,0
14380,27,69.125,21.9375,0
14400,25.5625,52.875,39.8125,0
14420,20.3125,30.0625,52.6875,0
14440,20.5625,0.125,56.75,0
14460,-2.9375,2.8125,39,0
14480,-18.9375,14.9375,25.8125,0
14500,-5.0625,-9.3125,20.3125,0
14520,-1,-21.6875,9.75,0
14540,3.125,-24.125,0.125,0
14560,-2.875,-28.1875,-8.8125,0
14580,2.25,-38.1875,-16.6875,0
14600,6.5625,-45.9375,-26.4375,0
14620,5.9375,-51.125,-31.75,0
14640,-4.375,-55.0625,-34.1875,0
14660,-10.3125,-57.4375,-34.5,0
14680,-16.1875,-60.5,-37.25,0
14700,-25.375,-66.75,-45.4375,0
14720,-45.5625,-70.625,-57.4375,0
14730,-34.875,-77,-62.4375,0
14750,-35.9375,-71.5,-59.25,0
14770,-26.4375,-68.25,-57.75,0
14810,-54.8125,-70.5,-32.75,0
14830,-57.9375,-64.4375,-16.6875,0
14850,-73.875,-61.4375,-1.625,0
14870,-62,-61.3125,13.625,0
14890,-51.1875,-46.0625,25.75,0
14910,-48,-19.25,35.375,0
14930,-68.875,-2.25,59.6875,0
14950,-104.688,19.5,60.0625,0
14970,-135.375,29.375,71.3125,0
14990,-149.812,36,76.6875,0
15010,-136.562,40.8125,66.6875,0
15030,-103.812,42.6875,65.4375,0
15050,-88.4375,46,65.1875,0
15070,-77.5,52.4375,61.8125,0
15090,-86.4375,49.5,67.125,0
15110,-90.4375,45.4375,69.1875,0
15130,-91.9375,46.75,73.125,0
15150,-99.375,49,81.375,0
15170,-107.125,48.9375,85,0
15190,-112.125,43.875,81.625,0
15210,-115.062,44,77.875,0
15230,-96,47.4375,80.375,0
15250,-95.5625,49.0625,90.8125,0
15270,-111.125,55.875,100.375,0
15290,-118.312,57.625,106.562,0
15310,-127.875,57.625,113.812,0
15330,-132.688,48.3125,131.938,0
15350,-112.438,36.375,144.875,0
15370,-91.25,34.4375,155.188,0
15390,-88.875,35.625,164.5,0
15410,-95,35.75,172.5,0
15430,-77.3125,42.4375,163.562,0
15450,-68.8125,49.125,159.312,0
15470,-55.875,57.3125,152.938,0
15490,-45.25,58.625,142.812,0
15510,-21.8125,49.3125,145.375,0
15530,21.75,42,102.562,0
15550,66.125,26.5,72.1875,0
15570,42.6875,16.5,32.375,0
15590,-8.625,5.6875,15.25,0
15610,-28.875,-25,36.0625,0
15630,0.375,-44.6875,44.4375,0
15650,29.125,-60.875,44.25,0
15670,20.8125,-78.875,44,0
15690,21.5625,-71.875,51.125,0
15710,16,-37.5,26.0625,0
15730,23.75,42.625,-48.625,0
15750,40.875,54.125,-10.9375,0
15770,-4.8125,2.375,36.1875,0
15790,11.125,0.25,18.375,0
15810,12.625,9.625,-17.25,0
15830,24.625,6.4375,-31.125,0
15850,8.8125,9.625,-32.8125,0
15870,2.3125,10.8125,-17.5625,0
15890,7.5,5.9375,-6.0625,0
15910,8.75,4.9375,-3.375,0
15930,23.5,6.625,-4.5625,0
15950,24.125,2.75,-7.3125,0
15970,6.9375,-0.4375,-5.5,0
15990,-6.5625,3.25,0.3125,0
16010,2.4375,5.5625,-1.3125,0
16030,23.0625,7.5,-9.5,0
16050,27.8125,4.75,-9.4375,0
16070,18.625,5.0625,-3.625,0
16090,17.5,7.5,-3.125,0
16110,24.3125,10.25,-10.1875,0
16130,27.375,8.5625,-13.0625,0
16150,26.0625,5.5,-13.125,0
16170,28.875,7.875,-10.75,0
16190,28.5625,7.4375,-11.5,0
16210,36.1875,4.3125,-11.125,0
16230,28.375,2.375,-4.125,0
16250,12.1875,-1.625,4.125,0
16270,9.4375,-3.25,7.75,0
16290,7.5625,-4.1875,7.6875,0
16310,6,-4.75,7.375,0
16330,7.625,-3.1875,6.25,0
16350,10.1875,0.625,3.625,0
16370,6.8125,4,1,0
16390,7,5.5,-0.625,0
16410,8.0625,3.375,-1.5625,0
16430,8.1875,1.1875,-1.9375,0
16450,6.0625,0.6875,-0.375,0
16470,3.3125,1.1875,0.9375,0
16490,4.375,2.25,-0.8125,0
16510,5.4375,1.1875,-0.5625,0
16530,4.625,0.0625,1.1875,0
16550,3.9375,2.125,1.875,0
16570,3.3125,3.5625,0.5625,0
16590,5.125,3.3125,0.6875,0
16600,0.6875,1.8125,2.625,0
16630,-1.875,1,3.1875,0
16650,1.25,1.75,1.3125,0
16670,1.125,1.5625,1,0
16690,0.4375,1.5,1.3125,0
16700,0.3125,0.9375,1,0
16720,1,0.0625,-0.1875,0
16740,2.1875,0.3125,-0.1875,0
16760,3.4375,0.5,-1,0
16780,6.625,0,-1.75,0
16800,6,0.0625,-2.125,0
16820,3.75,0.625,-1.8125,0
16840,3.5,0.8125,-2.875,0
16860,5.8125,0.6875,-4.1875,0
16880,6.5625,0.625,-4.375,0
16900,5.6875,1.0625,-3.125,0
16920,3.3125,1.125,-2.1875,0
16940,4.625,1.1875,-2.8125,0
16960,6.125,1.375,-3.875,0
16980,5.125,2.625,-3.5625,0
17000,4.125,3.4375,-2.6875,0
17020,4,2.875,-1.4375,0
17040,2.5,2.4375,-0.8125,0
17060,-1.6875,4.125,0.5625,0
17080,-4.5,5.6875,0.625,0
17100,-3.375,6.3125,-1.5625,0
17110,-5.0625,5.75,-1.125,0
17130,-5.9375,6,0.6875,0
17150,-2.875,5.625,-0.5,0
17170,-2.25,4.875,-2.125,0
17190,-5.25,5.6875,-0.75,0
17210,-8.5,4.75,1.6875,0
17230,-11,7.75,-0.25,0
17250,-7.625,11,-5.75,0
17270,-0.1875,8.6875,-9.875,0
17290,-1.5,10.125,-10.5,0
17310,-2.3125,8.3125,-13.3125,0
17330,0.5,10.0625,-13.4375,0
17350,4.375,7.5625,-15.0625,0
17370,0.25,3.125,-15.375,0
17390,2.875,5,-14.0625,0
17410,-1.125,2.4375,-14.75,0
17430,5.8125,3.125,-18.8125,0
17450,8.3125,2.5625,-15.9375,0
17470,11.8125,1.9375,-18.0625,0
17490,13.0625,5.375,-16.5625,0
17510,6.3125,4.8125,-16.3125,0
17530,8.5,4.3125,-18.8125,0
17550,9.125,4,-15.5625,0
17570,9,1.875,-15.25,0
17590,14.4375,4.5,-15.8125,0
17610,10.75,6.75,-17.0625,0
17630,14,5.375,-17.75,0
17650,12.375,6,-17.75,0
17670,14.6875,6.125,-19.6875,0
17690,17.375,7.375,-21.875,0
17710,13.25,7.5,-21.1875,0
17730,10.625,6.9375,-17.375,0
17750,10.375,5.5,-15.1875,0
17770,10.6875,5.375,-15.3125,0
17790,13.125,4.75,-14.625,0
17810,11.875,5.625,-12.375,0
17830,6.75,6.75,-9.5,0
17850,4.875,7.3125,-9.4375,0
17870,5.9375,6.0625,-10,0
17890,8.1875,5.9375,-8.1875,0
17910,7.125,6.0625,-6.0625,0
17930,5.3125,5.8125,-6.875,0
17950,4.5625,4.4375,-7.6875,0
17970,5.5,3.1875,-6.875,0
17990,3.5,2.375,-4.9375,0
18010,-1.125,2.0625,-6.0625,0
18030,1,0.375,-8.5,0
18050,6.25,-0.8125,-10,0
18070,10.4375,-2.125,-8.5625,0
18090,8.9375,-2.5625,-7,0
18110,3.625,-2.6875,-7.1875,0
18130,2.75,-2.875,-7.9375,0
18150,4.375,-3.125,-6.9375,0
18170,4,-1.875,-5.4375,0
18190,3.125,-0.4375,-6.4375,0
18210,3.6875,-0.6875,-7.6875,0
18230,3.8125,-1.125,-6.125,0
18250,0.6875,-2,-3.1875,0
18270,-4.6875,-2.5625,-4,0
18290,-4.625,-2.9375,-5.25,0
18310,-3.1875,-2.75,-4.4375,0
18330,-0.9375,-2.5625,-3.375,0
18350,-0.5,-1.875,-2.3125,0
18370,-2.1875,-1.1875,-2.4375,0
18390,-0.3125,-0.875,-2.6875,0
18410,4,-0.9375,-2.4375,0
18430,5.625,0.1875,-2.0625,0
18450,4.375,2.1875,-1.75,0
18470,3.0625,2.9375,-2.4375,0
18490,3.9375,3.375,-2.875,0
18510,6.3125,2.9375,-2.1875,0
18530,6.0625,2.9375,-1.8125,0
18550,3.125,2.625,-1.0625,0
18570,1.9375,2.4375,-1.125,0
18590,2.6875,2.3125,-1.625,0
18610,4.5625,1.75,-1.125,0
18630,3.75,1.4375,-0.3125,0
18650,2.125,1.3125,-0.5,0
18670,1,1.1875,-0.3125,0
18690,0.25,1,-0.125,0
18710,0.125,0.75,0,0
18730,-0.125,0.8125,-0.125,0
18750,1.6875,0.0625,-0.25,0
18770,2.5625,0.125,0.3125,0
18790,-0.8125,0.3125,0.5625,0
18810,-2.0625,0.3125,0.4375,0
18830,-1.875,-0.8125,0.6875,0
18850,-1,-0.4375,0.8125,0
18870,-0.25,-0.0625,0.875,0
18890,-1.8125,-0.1875,1.0625,0
18910,-2.125,0.5625,1.4375,0
18930,-2.3125,1.0625,1.25,0
18950,-3,0.1875,2,0
18970,-2.1875,0.0625,2,0
18990,-0.875,-0.125,1.8125,0
19010,-1.1875,0.25,2,0
19030,-2.1875,0.875,1.6875,0
19050,-0.75,1.5,0.875,0
19070,2.1875,1.5625,1.0625,0
19090,2.4375,0.875,2.0625,0
19110,0.5625,1.6875,1.375,0
19130,-0.625,1.625,0,0
19150,0.5625,0.875,0.3125,0
19170,0.5,0.6875,0.9375,0
19190,-1.1875,1.3125,0.375,0
19210,-0.1875,1.25,-0.375,0
19230,1.8125,0.6875,-1,0
19250,3.75,0.5625,-0.3125,0
19270,2.6875,1.5625,0.0625,0
19290,0.5,1.5,-1.1875,0
19310,4.0625,0.75,-2.0625,0
19330,5.9375,0.8125,-1.6875,0
19350,5,1.5625,-0.6875,0
19370,1.875,1.5,-0.3125,0
19390,-0.375,0.9375,-0.1875,0
19410,0.6875,0.125,0.0625,0
19430,1.375,0.4375,0.75,0
19450,-0.625,0.75,1.1875,0
19470,-2.8125,0.625,1.0625,0
19490,-1.3125,0.625,0.4375,0
19510,1.6875,0.875,0.375,0
19530,2.875,1.1875,0.5,0
19550,1.75,1.1875,0.0625,0
19570,0.375,1.25,-0.25,0
19590,1.875,0.8125,-0.5,0
19610,2.6875,0.9375,-0.1875,0
19630,0.5625,0.6875,0.375,0
19650,-2.125,1.25,0.5,0
19670,-0.4375,1.125,-0.25,0
19690,3.0625,1.25,-0.625,0
19710,4.1875,1.8125,-0.125,0
19730,-0.3125,1.875,0.875,0
19750,-0.9375,1.75,0.6875,0
19770,0.5,1.625,0.375,0
19790,3.5625,1.625,0.375,0
19810,1.375,1.25,1.625,0
19830,-1.9375,1.5,1.625,0
19850,-1.8125,1.3125,0.3125,0
19870,-0.0625,0.875,0.6875,0
19890,0.75,1.1875,1,0
19910,1.625,1.25,0.6875,0
19930,0.6875,1.25,-0.125,0
19950,1.625,1.125,-0.75,0
19970,3.5,0.6875,-0.375,0
19990,3.125,1.3125,-1.125,0
20010,6.875,1.625,-3.6875,0
20030,13.5625,-0.625,-6.5625,0
20040,15.5,-0.5,-6.6875,0
20060,14.875,0.0625,-8.0625,0
20080,18.125,-1,-11.75,0
20100,27.4375,-4,-15.875,0
20120,35.3125,-6.1875,-13.875,0
20140,40.5,-3.0625,-14.875,0
20160,48.625,-2.5,-15.9375,0
20180,39.9375,-2,-15.4375,0
20200,35.125,2.625,-22.1875,0
20220,50.125,6.125,-37.6875,0
20240,73.0625,0.5,-40.0625,0
20260,74.6875,-1.0625,-33.3125,0
20280,65,5.9375,-41.25,0
20300,74.5625,10.5,-60,0
20320,96.0625,10.0625,-72.25,0
20340,127.438,-5,-67.8125,0
20360,85.3125,-5.0625,-53.6875,0
20380,31.9375,9,-51.8125,0
20400,44.5,12.875,-61.5625,0
20420,78.25,-3.3125,-59.75,0
20440,114.625,-11.4375,-34.0625,0
20460,50.125,-8.8125,-29.5,0
20480,5.0625,-5.5,-22.1875,0
20500,-12.9375,-9.25,-5.4375,0
20520,5.25,-12.8125,0,0
20540,17.8125,-10,-10.875,0
20560,19.4375,-9.1875,-14.6875,0
20580,12.5,-10.375,-9.3125,0
20600,-4,-8.75,-9.3125,0
20620,-6.6875,-10.3125,-14.6875,0
20640,-3,-14.8125,-12.5,0
20660,7.125,-15.875,-7.125,0
20680,2.875,-12.8125,-4.25,0
20700,-2.1875,-8.25,-5.0625,0
20720,1.875,-4.375,-7.875,0
20740,8.6875,-1.375,-7.25,0
20760,15.0625,1.25,-10,0
20780,15.5,1.6875,-13.3125,0
20800,17.875,-0.75,-13.9375,0
20820,19.875,-4.25,-13.5625,0
20840,22.9375,-9.25,-15.25,0
20860,15.3125,-11.5,-12.875,0
20880,9.8125,-13.5,-10.6875,0
20900,5.125,-14.5,-7.1875,0
20920,3.8125,-12.125,-5.625,0
20940,1.875,-8.4375,-6.9375,0
20960,-3.1875,-6.75,-4.125,0
20980,3.0625,-7.1875,-2,0
21000,-6.5625,-5.4375,-1.875,0
21020,-9.6875,-5.5,0.75,0
21040,-10.3125,-5.3125,0.875,0
21060,-7.5,-5.6875,3.125,0
21080,-6.25,-5.625,3.8125,0
21100,-8.0625,-4.875,5.0625,0
21120,-8.875,-3.375,4.875,0
21140,-6,-1.8125,4.375,0
21160,-1.25,0.0625,6.6875,0
21180,1.9375,1.75,6.1875,0
21200,3.625,3.0625,4.9375,0
21220,-7.0625,4.625,1.9375,0
21240,-7.25,0.0625,5.375,0
21260,-4.125,1,5.875,0
21280,-3.8125,1.6875,6.5,0
21300,-5.3125,3.4375,4.6875,0
21320,-9.75,4.0625,3.6875,0
21340,-5.75,3.0625,1.0625,0
21360,-1.5,3.25,0.6875,0
21380,-0.875,4.5,5.4375,0
21400,1.1875,3.4375,-4.0625,0
21420,0.3125,2.9375,-2.1875,0
21440,2.3125,2,-1.5625,0
21460,3.4375,1.25,-0.8125,0
21480,1.0625,11.125,-6.9375,0
21500,13.75,2.4375,-1.375,0
21520,16.75,-4.6875,0.0625,0
21540,12.5,-9.0625,4.625,0
21560,-5.8125,2.375,3.25,0
21580,-25.75,10.125,6.375,0
21600,-25.9375,2.75,2.4375,0
21620,-16.75,0.0625,1.3125,0
21640,-1.3125,0,1.3125,0
21660,5.8125,0.375,0.4375,0
21680,3.125,0.0625,-0.5,0
21700,-1.6875,0.9375,0.25,0
21720,-3.75,0.5625,0.1875,0
21740,-2.3125,-0.3125,0.9375,0
21760,-1.625,-0.1875,0,0
21780,-0.875,0.25,0.125,0
21800,-2.125,1.3125,1.3125,0
21820,-0.9375,0.8125,1.5,0
21840,-0.0625,2.0625,-0.375,0
21860,-7.3125,2.125,-3.875,0
21880,-18.1875,5.75,-2.4375,0
21900,-15.8125,3.25,-1.4375,0
21920,-7.75,2.0625,2.4375,0
21940,3.6875,0.375,3.1875,0
21960,1.125,1.75,0.375,0
21970,-8.125,2.5,-0.5,0
21990,-13.4375,2.4375,1.75,0
22010,-12.6875,1.9375,1.25,0
22030,-8.9375,1.375,-0.0625,0
22050,-5.6875,0.875,0.1875,0
22070,-3.0625,1,1.3125,0
22090,-0.6875,1.25,1.25,0
22110,-0.5625,0.625,0.125,0
22130,-1.5625,0.25,0.0625,0
22150,-0.3125,0.5,0.875,0
22170,-1.3125,0.8125,0,0
22190,-4.4375,1.125,-0.9375,0
22210,-8.3125,0.875,0.0625,0
22230,-11.9375,0.25,1.5,0
22250,-9.75,0.4375,2.5,0
22270,-5.5,-0.3125,2.6875,0
22290,-8.375,-0.1875,1.9375,0
22310,-10.875,0.5625,1.5,0
22330,-11.4375,1.3125,1.625,0
22350,-10.4375,1.375,1.625,0
22370,-7.5625,1.0625,0.5625,0
22390,-3.875,0.5625,0.375,0
22410,-0.6875,-0.0625,0.6875,0
22430,0.1875,0.125,-0.6875,0
22450,4.6875,0.5625,-1,0
22470,9.75,-0.625,-2,0
22490,11.1875,-0.5625,-2.375,0
22510,12.5625,-0.75,-1.875,0
22530,11.125,-0.1875,-2.625,0
22550,12.4375,-0.8125,-2.625,0
22570,12.8125,-0.6875,-2.5625,0
22590,10.6875,-0.5625,-2.625,0
22610,8.25,-0.6875,-2.25,0
22630,4.625,-0.125,-1.875,0
22650,1.75,0.0625,-1.375,0
22670,4.6875,0,0.75,0
22690,7.5625,-1.0625,1.3125,0
22710,7.5625,-0.875,0.625,0
22730,7.1875,-1.125,-0.0625,0
22750,3.6875,-0.6875,-1.1875,0
22770,1.75,0.3125,-1.75,0
22790,5,0.125,-1.75,0
22810,4.1875,-0.9375,6.6875,0
22830,6.5,-0.5625,-0.875,0
22850,0.3125,0.0625,-1.125,0
22870,-0.875,1.3125,-1.8125,0
22890,1.6875,1.1875,-2.5625,0
22910,2.125,1.25,-3.5625,0
22930,2.125,0.625,-3.25,0
22950,-0.3125,0.6875,-3.6875,0
22970,1.125,0.75,-3,0
22990,1.75,0.375,-2.875,0
23010,0.5625,0.0625,-2.4375,0
23030,-1.875,-0.1875,-2.375,0
23050,-1.5625,-0.3125,-1.625,0
23070,-0.8125,-0.5625,-0.875,0
23090,-1.6875,-0.1875,-1.3125,0
23110,-0.3125,-0.4375,-1.3125,0
23130,-0.375,-0.375,-0.9375,0
23150,-0.6875,-0.8125,-0.1875,0
23170,-0.25,-0.25,-1.3125,0
23190,1.5,0.0625,-1.875,0
23210,2.5,-0.1875,-2.0625,0
23230,1.3125,-0.875,-1.6875,0
23250,-1.4375,-0.6875,-1.5625,0
23270,-1.1875,-0.875,-0.75,0
23290,0.8125,-0.5,-0.5,0
23310,2,-0.4375,-0.5,0
23330,0.25,-0.3125,0.25,0
23350,-2.9375,-0.25,1.3125,0
23370,-3.375,-0.0625,1.5625,0
23390,-0.625,0,1.4375,0
23410,1.375,0.4375,1.6875,0
23430,1.125,0.5625,1.5625,0
23450,0.25,1.1875,0.875,0
23470,0.5,1.125,0.5,0
23490,1.25,1.3125,-0.125,0
23510,1.75,1.375,-1.125,0
23530,1.8125,1.3125,-1.5625,0
23550,1.375,1.25,-2.4375,0
23570,3.4375,0.875,-2.8125,0
23590,3.4375,0.4375,-2.875,0
23610,3.5625,-0.5625,-3.6875,0
23630,2.5625,-2.25,-3.3125,0
23650,1,-2.8125,-2.75,0
23670,1.75,-3.3125,-1.9375,0
23690,2.1875,-3.4375,-1.625,0
23710,2.75,-3.1875,-1.4375,0
23730,3.9375,-2.6875,-1.5625,0
23750,5.9375,-2.8125,-1.5625,0
23770,4.5,-2.5625,-1.75,0
23780,2.3125,-2.5,-1.5625,0
23800,-0.8125,-2.5625,-1.875,0
23820,0.75,-2.125,-1.875,0
23840,3.3125,-2,-1.4375,0
23860,4.25,-1.6875,-2.125,0
23880,5.625,-2.1875,-2.625,0
23900,5.6875,-2.5,-3.3125,0
23920,4.5,-3.3125,-3.6875,0
23940,4.875,-3.5,-4.4375,0
23960,6.5,-3.875,-5.0625,0
23980,7.75,-3.8125,-6.125,0
24000,7.1875,-3.75,-6.9375,0
24020,4.1875,-3.4375,-6.0625,0
24040,0.8125,-2.75,-5.375,0
24060,1.5625,-2.1875,-5.5625,0
24080,2.8125,-1.0625,-5.375,0
24100,2.0625,-0.125,-3.9375,0
24120,-0.6875,0.5,-2.75,0
24140,-0.625,0.9375,-2.75,0
24160,0.6875,0.875,-2.8125,0
24180,-0.6875,0.75,-2,0
24200,-1.875,0.9375,-1.875,0
24220,-0.5625,1.3125,-2.1875,0
24240,2.6875,1.5625,-2.75,0
24260,3.125,1.625,-2.625,0
24280,2.1875,1.4375,-2.375,0
24300,1.5,0.6875,-2.0625,0
24320,1.25,-0.3125,-1.125,0
24340,1.875,-0.8125,-1.5625,0
24360,1.6875,-0.75,-1.6875,0
24380,-0.375,-0.4375,-0.6875,0
24400,-1.8125,0,-0.375,0
24420,-0.75,0.375,-0.4375,0
24440,1.1875,1.0625,-0.625,0
24460,2.875,1.125,-0.6875,0
24480,1,1,-0.75,0
24500,-0.5,1.3125,-1.125,0
24520,-0.875,2.25,-1.4375,0
24540,0.5,3,-2.25,0
24560,2.3125,4.4375,-3.5,0
24580,3.75,5,-3.625,0
24600,1.375,5.6875,-3.75,0
24620,1.8125,5.9375,-3.875,0
24640,3.9375,5.5625,-3.5625,0
24660,4.5,5.0625,-3.25,0
24680,2.625,5.1875,-2.875,0
24700,2,4.5,-2.5,0
24720,2.6875,4.125,-2.75,0
24740,3.9375,3.75,-2.75,0
24760,4.0625,3.5625,-3.3125,0
24780,4.875,3.125,-3.5625,0
24800,6.125,3,-4.1875,0
24820,6.5,2.4375,-4,0
24840,4.4375,2.4375,-3.375,0
24860,2.125,1.875,-2,0
24880,1.9375,2,0,0
24900,3.75,1.125,-0.125,0
24920,1.875,1,0.5,0
24940,-0.3125,1.9375,0.25,0
24960,-1.875,2.625,-0.375,0
24980,0.625,3.9375,-2.5,0
25000,3.875,5.5625,-4.375,0
25020,2.0625,7.5,-4.25,0
25040,-4.5,10.125,-5.1875,0
25060,0.6875,11.9375,-5.5,0
25080,11,11.5,0.625,0
25100,20.375,10.75,6.8125,0
25120,34,13.6875,3.6875,0
25140,36.25,17,1.8125,0
25160,28.5625,16.5625,-6.125,0
25180,21.5625,10.5,-10.375,0
25200,6.75,5.1875,-6.8125,0
25220,-9.875,-1.625,-3.0625,0
25240,-15.875,-5.5,-8.25,0
25260,-7.3125,-6.0625,-24.625,0
25280,3.375,-12.9375,-34.5625,0
25300,19.3125,-21.375,-42.75,0
25320,33.6875,-29.1875,-47.8125,0
25330,40.125,-35.25,-49.25,0
25350,40.125,-38.125,-53.1875,0
25370,38.625,-39.6875,-54.0625,0
25390,38.3125,-38.6875,-50.5,0
25410,37.5625,-37.75,-47.5625,0
25430,36.125,-37.6875,-44.8125,0
25450,32.4375,-37.4375,-37.75,0
25470,26.0625,-35.625,-30.75,0
25490,18.25,-33.5625,-25.25,0
25510,19.8125,-28.9375,-20,0
25530,17.125,-25.25,-17.5625,0
25550,18,-18.1875,-13.8125,0
25570,27.8125,-16.6875,-9.375,0
25590,41.4375,-16.1875,-7.6875,0
25610,41.75,-11.8125,-7.5,0
25630,39.0625,-7.6875,-2.875,0
25650,36.875,-4.3125,1.0625,0
25670,29.1875,-7.375,4.0625,0
25690,24,-10.5,6.3125,0
25710,16.3125,-8.75,11.3125,0
25730,12.75,-5.1875,13.5,0
25750,13.5,-4.4375,13.1875,0
25770,14.5625,-5.0625,15.9375,0
25790,13.375,-4.6875,15.4375,0
25810,10.6875,-3.1875,17.6875,0
25830,-2.75,-1.9375,19.75,0
25850,-3.25,-2.0625,19.4375,0
25870,3.125,-1.25,19.125,0
25890,7.6875,-0.5,18.0625,0
25910,2.25,2.6875,17.0625,0
25930,-5,1.375,15.8125,0
25950,-5.625,-1.5,14.4375,0
25970,-1.875,-0.8125,16.8125,0
25990,10.75,-0.6875,14.9375,0
26010,11.5625,0.375,13.25,0
26030,11.625,1.8125,12.5625,0
26050,12.125,0.4375,10.8125,0
26070,5.3125,-4.0625,7.3125,0
26090,-5.6875,-5.4375,10.6875,0
26110,-12.5,-6.5,9.875,0
26130,-12.4375,-2.9375,4.75,0
26150,-5.125,-1.5625,2.625,0
26170,1.0625,-1.3125,3.875,0
26190,0.625,-4.6875,5.4375,0
26210,-5.4375,-7.375,5.0625,0
26230,-11.0625,-9.1875,6.25,0
26250,-13.25,-9.9375,5.6875,0
26270,-15.25,-11,4.25,0
26290,-11.75,-12.5625,3.0625,0
26310,-10,-7.4375,2.375,0
26330,-0.75,-3.625,2.75,0
26350,2.375,-1.3125,2,0
26370,-1.5625,-3,-0.0625,0
26390,-1.875,-4.1875,0.1875,0
26410,-3.8125,-2.5,2.75,0
26430,1.5,-2,2.625,0
26450,3.375,-4.625,1.5625,0
26470,-0.125,-2.625,-0.3125,0
26490,-4.875,-1.5,-1.25,0
26510,-1.6875,-1.125,-0.0625,0
26530,3.4375,-2.25,-1.5,0
26550,4.125,-3.9375,-2.125,0
26570,2.8125,-2.75,-3.6875,0
26590,-0.6875,-2.5625,-4.1875,0
26610,-0.875,-0.4375,-2.625,0
26630,0.875,-2.5625,-0.75,0
26650,0.1875,-5.1875,-1.3125,0
26670,-1,-3.4375,-1.8125,0
26690,0,-1.4375,-0.5,0
26710,-0.0625,-1.1875,0.6875,0
26730,1.5,-2.25,-0.875,0
26750,-0.1875,-3.8125,-1,0
26770,-0.0625,-1.8125,-1.25,0
26790,2.625,-0.25,0,0
26810,4.9375,-1.125,-0.8125,0
26820,4.75,-3.125,-0.8125,0
26850,4.625,-2.1875,-0.125,0
26870,2.9375,-0.5,0.3125,0
26890,1.3125,-0.375,1.5625,0
26910,2.25,0.1875,0.5,0
26930,1.9375,-0.375,1,0
26950,1,-0.625,1.125,0
26970,-1.5625,1,-0.375,0
26990,0.3125,2.9375,0.3125,0
27010,1.875,4.1875,-0.25,0
27030,1.3125,2.625,-0.125,0
27050,-0.875,1.625,0.3125,0
27070,-2,2.5,0.3125,0
27090,-3.4375,2.75,0.0625,0
27110,-2.625,4.125,-1.25,0
27130,-3.375,3.125,-1.8125,0
27150,-4.25,1.5625,-3.6875,0
27170,-3.875,1.8125,-4.5625,0
27190,-3.1875,1.1875,-5.3125,0
27210,-3,1.625,-6.8125,0
27230,-1.75,1.1875,-6.8125,0
27250,-2.375,1.0625,-5.875,0
27270,-2.75,0.0625,-6.0625,0
27280,-5.75,-2.375,-5.625,0
27300,-4.4375,-0.0625,-4.375,0
27320,-2.875,2.5,-4.5,0
27340,-3,0.375,-3.9375,0
27360,-3.125,-1.5625,-2.25,0
27380,-4.875,1.25,-2.9375,0
27400,-5.4375,1.5,-2.1875,0
27420,-4.5,-0.0625,0.5,0
27440,-4.6875,2.0625,1.125,0
27460,-4.5,3.5625,1.125,0
27480,-3,2.625,1.5,0
27500,-3.25,3,1,0
27520,-3.375,1.5625,1.5625,0
27540,-7,0.5,2.6875,0
27560,-8,2.5,2.4375,0
27580,-5.625,3.1875,1.0625,0
27600,-3.375,2.125,1.5,0
27620,-4.625,1.8125,1.625,0
27640,-6.125,2.0625,2.75,0
27660,-6.875,1.3125,3,0
27680,-6.875,1,2.1875,0
27700,-7.75,-0.5,2.5625,0
27720,-7.25,-1.125,4.125,0
27740,-5.3125,-0.375,5.4375,0
27760,-9.5,0.9375,6.0625,0
27780,-14.4375,0.375,6.0625,0
27800,-17.625,0.125,6.5,0
27820,-18.125,-1.25,7.8125,0
27850,-9,-3.375,6.5625,0
27870,-17.5,-1.6875,7.5,0
27890,-17.75,-2.1875,10.9375,0
27910,-17.0625,0.375,10.5625,0
27930,-17.5,3,7.8125,0
27950,-9.4375,2.25,5,0
27970,-2.9375,-1.625,4.1875,0
28000,-0.625,-2.3125,5.875,0
28020,-5.3125,0,2.5625,0
28040,-7.625,1.1875,1.6875,0
28060,-4.75,0.375,1.3125,0
28080,-0.125,-0.1875,2.0625,0
28100,0.8125,0,1.8125,0
28120,-3.125,0.25,-0.125,0
28140,-8.0625,0,-1.375,0
28160,-8.75,0.0625,0.375,0
28180,-4.9375,-0.25,0.25,0
28200,-2.9375,0.0625,-0.625,0
28220,-3.4375,0,-1.3125,0
28240,-4.9375,-0.6875,-1.3125,0
28260,-4.75,-0.25,-0.75,0
28280,-4.1875,0.0625,-0.375,0
28300,-3.75,-1,-0.5625,0
28320,-4.125,-1,-1,0
28340,-3.6875,-0.0625,-1.9375,0
28360,-5.3125,0.3125,-1.4375,0
28380,-5.1875,-1.25,-1.25,0
28400,-6.8125,-2.5625,-0.3125,0
28420,-4.75,-1.5625,0.8125,0
28440,-4,-1.4375,0.4375,0
28460,-2.5625,-0.8125,0,0
28480,-1.9375,-0.6875,0.5,0
28500,-1.875,-1.3125,1.3125,0
28520,-2.125,-1.125,1.6875,0
28540,-1,0.625,1.3125,0
28560,0.375,0.9375,-0.1875,0
28580,-0.5625,0.5625,-0.0625,0
28600,-2.75,0.375,0.75,0
28620,-1.875,0.8125,0.4375,0
28640,-1.625,0.75,0.8125,0
28660,-0.125,0,1.3125,0
28680,0.0625,-0.5,0.3125,0
28700,0.6875,0.1875,0.5,0
28720,-0.625,0.3125,0.3125,0
28750,-2.4375,0.8125,0.5,0
28770,-1.8125,1.5,0.625,0
28780,-0.4375,1.625,0.0625,0
28800,0.75,1.125,0.875,0
28820,0.0625,2.125,1.1875,0
28840,-1.25,2.5,0.5,0
28860,-1.75,2.1875,0.0625,0
28880,-2.3125,2.125,0.875,0
28900,-0.4375,2.3125,1.0625,0
28920,-0.8125,1.75,0.875,0
28940,-0.75,1.5,1.125,0
28960,-2.9375,1.3125,0.875,0
28980,-4.125,1.5,1.4375,0
29000,-2.875,1.375,1.75,0
29020,-2.0625,0.4375,1.75,0
29040,-1.375,-0.25,1.25,0
29080,-1.875,-0.3125,-0.6875,0
29100,-2.125,-1.5,-0.1875,0
29110,0.25,-1.75,-1,0
29130,0.375,-1.0625,-1.6875,0
29150,0.0625,-0.6875,-1.9375,0
29170,-0.0625,-0.4375,-1.6875,0
29190,1.1875,-0.625,-0.1875,0
29210,0.6875,0.25,0.625,0
29230,-0.375,0.75,-0.6875,0
29250,-0.5,0,0.8125,0
29270,-2.4375,-0.6875,0.625,0
29290,-0.75,-0.6875,0.875,0
29310,-0.3125,-0.1875,0.8125,0
29330,0.5625,-0.3125,0.5625,0
29350,0.0625,-0.8125,0.125,0
29370,-0.6875,-1.125,0.3125,0
29390,0.6875,-1,0.75,0
29410,1.0625,-0.3125,-0.1875,0
29430,0.0625,-0.25,1.125,0
29450,-0.1875,0,1.1875,0
29460,-1.1875,0.25,0.75,0
29480,-1.4375,0,1.0625,0
29500,-0.375,0.4375,1.875,0
29520,0.0625,0.625,2.0625,0
29540,-0.9375,0.8125,1.4375,0
29560,-1.625,0.5,1.1875,0
29580,-1.875,0,1,0
29600,-2.25,-0.4375,0.9375,0
29620,-3.5625,-1.25,1.0625,0
29640,-5.0625,-3,1.9375,0
29660,-4.5,-2.4375,2.375,0
29680,-3.75,-0.9375,0.6875,0
29700,-0.1875,-1.25,-0.5625,0
29720,0.125,-1.1875,-0.5625,0
29730,-2.875,-1.375,-0.1875,0
29750,-2.9375,-0.9375,-1.3125,0
29780,-0.6875,-1.9375,-1.9375,0
29800,0.375,-1.875,-2.25,0
29820,-0.25,-1.4375,-2.4375,0
29840,-0.4375,-1.4375,-3.125,0
29860,-1.6875,-2,-2.0625,0
29880,-2.8125,-1.0625,-1,0
29900,-0.6875,-0.4375,-1.75,0
29920,-2.9375,-1.5625,-0.9375,0
29940,-2.625,-0.9375,-0.6875,0
29960,-4.4375,-0.125,-1.6875,0
29980,-6.375,-1,-0.1875,0
30000,-3.3125,-0.5625,0.8125,0
30020,-2.9375,0.0625,-0.25,0
30040,-1.125,0.0625,-0.75,0
30060,-1.125,0.0625,-1.125,0
30080,-2.0625,0.1875,-0.625,0
30100,-2.9375,0.3125,-0.875,0
30120,-2.6875,0.375,-0.9375,0
30140,0.125,0.5,-0.9375,0
30160,2.625,1.0625,-0.6875,0
30170,-0.1875,2.0625,-0.4375,0
30190,-2.75,1.4375,0.3125,0
30210,-2.375,1.3125,0.875,0
30230,-1.5,1.1875,0.9375,0
30250,-0.5,0.1875,1.8125,0
30270,-2.5,-0.375,1.9375,0
30290,-5.125,-2.6875,2.0625,0
30310,-2.25,-6.375,3.125,0
30330,6.0625,-7.75,2.875,0
30350,0.6875,-7.625,2.375,0
30370,-2.6875,-10.8125,0.9375,0
30390,-9,-13.4375,-1.3125,0
30410,-9.4375,-18.375,-1.125,0
30430,-7.3125,-24.1875,-1.25,0
30450,-1.875,-28.375,-3.3125,0
30460,4.375,-28.9375,-7.4375,0
30480,2.375,-29.8125,-8.9375,0
30500,9.875,-30.9375,-4.25,0
30520,2.5625,-30.75,-7.4375,0
30530,3.625,-30.3125,-7.8125,0
30550,-1.6875,-28.1875,-5.1875,0
30570,2.75,-27.5625,-3.75,0
30590,3.5625,-25.4375,-4.8125,0
30610,1.8125,-24.625,-7.1875,0
30630,5.375,-23.1875,-5.8125,0
30650,1.9375,-22.4375,-2.625,0
30670,5.4375,-20.4375,-0.5,0
30690,2.25,-13.5,-6.3125,0
30710,-1.0625,-10.75,-8.1875,0
30730,-1.1875,-13.1875,-3.5625,0
30750,5.4375,-14.3125,-0.25,0
30770,3.5625,-11.75,-0.875,0
30790,-2.875,-10.5,-0.625,0
30810,-5.0625,-11.0625,1.875,0
30830,-1.4375,-11.125,2.4375,0
30850,-3.625,-8.125,0.5,0
30870,-3.8125,-7.875,1.0625,0
30890,-3.8125,-8.1875,3.375,0
30910,-4.8125,-7.875,4.9375,0
30930,-3.4375,-6.9375,4.5,0
30950,-5.4375,-6.375,2.5,0
30970,-7.4375,-7.4375,3.625,0
30990,-5.1875,-8.0625,5.75,0
31010,-4.5625,-7.75,5.8125,0
31040,-1.4375,-11.125,2.4375,0
31060,-3.625,-8.125,0.5,0
31070,-3.875,-9.75,5.3125,0
31090,-5.875,-10.8125,4.8125,0
31110,-6.75,-11.4375,5.4375,0
31130,-4.5,-9.875,4.6875,0
31150,-3,-9.5,3.625,0
31170,-2,-10.125,4.3125,0
31190,-1.625,-8.8125,3.8125,0
31210,-1.6875,-9.125,2.9375,0
31230,-2.9375,-8.8125,2.1875,0
31250,-1.5,-8.875,1.1875,0
31270,-1.4375,-8.375,2.625,0
31290,-3.125,-8.25,2.75,0
31310,-4.25,-7.25,0.625,0
31330,-3.125,-7,0.0625,0
31350,-1.5,-8.375,2.0625,0
31370,-1.375,-7.5625,0.25,0
31390,-1.5625,-7.375,-0.0625,0
31410,-0.5625,-8.6875,0.8125,0
31430,-0.5625,-8.0625,0.375,0
31450,1.375,-7.8125,0.3125,0
31470,2,-8.375,1.4375,0
31490,1.9375,-7.3125,1.875,0
31510,-0.0625,-6.75,1,0
31530,-1.4375,-7.3125,1,0
31550,-0.6875,-6.4375,1.75,0
31570,1.0625,-7.5625,2.625,0
31590,0.6875,-8.3125,2.3125,0
31610,-0.6875,-8.4375,2.875,0
31630,-2.375,-7.5,0.875,0
31650,-0.625,-8.9375,0,0
31670,2.6875,-7.25,-0.1875,0
31690,1.125,-5.9375,-2,0
31710,-0.375,-5.375,-0.875,0
31730,-1,-5.125,-0.125,0
31750,-0.1875,-4.625,1.375,0
31770,-0.3125,-4.125,0.3125,1000
31790,-2.0625,-3.9375,1.5,0
31810,-2.25,-3.8125,1.8125,0
31830,-3.625,-3.125,1.1875,0
31850,-2.875,-3.8125,1.875,0
31870,-0.0625,-3.9375,1.6875,0
31890,-1.375,-2.8125,1.0625,0
31910,-2.5,-3.75,0.1875,0
31930,-0.9375,-4.3125,0.1875,0
31950,0.3125,-5.5,0.1875,0
31970,2.25,-5.3125,0.9375,0
31990,-0.625,-5.1875,1.625,0
32010,-1.6875,-4.3125,0.3125,0
32030,-3.75,-4.875,0.75,0
32050,-3.375,-5.4375,1.75,0
32070,-1.9375,-4.875,0.5625,0
32090,-2,-3.4375,0.1875,0
32110,-2.4375,-2.8125,0.75,0
32130,-3.1875,-2.375,-0.625,0
32150,-1.6875,-1.4375,-1.3125,0
32170,-1,-0.9375,-0.0625,0
32190,-0.9375,0.4375,0,0
32210,-0.9375,1.5625,-0.4375,0
32230,-1.5,1.8125,-0.6875,0
32250,-0.5,1.5,0.125,0
32270,0.1875,1.375,-0.5,0
32290,-1.875,1.375,-1.125,0
32310,-3.1875,1.3125,-1.3125,0
32330,-4.8125,0.1875,-0.625,0
32350,-2.0625,0.5625,-0.0625,0
32370,-2,0,0.4375,0
32390,-3,-0.25,0.625,0
32410,-2.4375,-0.375,0.25,0
32430,-1.5,-2.25,-0.25,0
32450,-1.25,-2.4375,-1.4375,0
32470,-0.4375,-2.625,-2.625,0
32490,-0.5,-2.5,-2.0625,0
32500,-0.625,-2.6875,-1.75,0
32520,0.3125,-1.9375,-3.8125,0
32540,2.125,-1.5625,-3.0625,0
32560,1.375,-0.75,-2.75,0
32580,1.625,0,-2.4375,0
32600,1.6875,0.0625,-1.875,0
32620,2.4375,-0.0625,-2,0
32640,3.3125,0.8125,-1.25,0
32660,0.4375,1.5625,-0.8125,0
32680,-2.25,3.375,-1.25,0
32700,-2.4375,4.875,-1,0
32720,0.0625,4.9375,-0.625,0
32740,0.3125,6.125,-1.0625,0
32760,-1.875,6.6875,-0.3125,0
32780,-2,6.8125,0.0625,0
32800,-2.6875,7.9375,-1.0625,0
32820,-3.3125,6.75,-0.5,0
32840,-0.9375,5.9375,-0.25,0
32860,-0.625,5.25,-0.5625,0
32880,-1.625,2.5,-0.875,0
32900,-1.8125,0.8125,-0.9375,0
32920,-0.25,-0.75,-1.25,0
32940,0.5625,-2.5,-0.75,0
32960,1,-3.1875,0.1875,0
32980,1.5,-3.375,0.125,0
33000,1.625,-3.625,0.875,0
33020,-0.5625,-3.9375,1.5,0
33040,-1.0625,-3.75,1.6875,0
33060,1.0625,-3.75,1.6875,0
33080,1.125,-4.1875,1.5,0
33100,1.1875,-3.6875,0.625,0
33120,0.6875,-5.1875,1.6875,0
33140,-0.0625,-4.9375,1.3125,0
33160,-0.1875,-4.125,1.4375,0
33180,-1.1875,-4.5625,1.6875,0
33200,0.3125,-5.1875,2.0625,0
33220,-0.3125,-3.1875,2.375,0
33240,-0.5625,-2.6875,2.5,0
33260,-1.4375,-2.8125,2.4375,0
33280,-1.5625,-3.3125,2.6875,0
33300,-2.125,-3.875,2.8125,0
33330,-0.4375,-4.75,2.625,0
33350,-1.25,-4.75,2.375,0
33370,-0.0625,-5.875,3.125,0
33390,-0.875,-6.0625,3.5625,0
33410,-1.375,-6.375,3.3125,0
33430,1.125,-6.8125,3.8125,0
33450,-0.375,-7.125,4.6875,0
33470,-0.9375,-6.1875,5.25,0
33490,0.1875,-6.6875,5.3125,0
33510,0.5,-7.4375,6.0625,0
33530,1,-6.875,4.9375,0
33550,-0.6875,-6.6875,4.5,0
33570,-2,-7.1875,5.625,0
33590,1.125,-5.6875,4.25,0
33610,3.125,-5.9375,2.25,0
33630,3.9375,-6.75,2.1875,0
33650,4.375,-6.0625,2.4375,0
33670,3.75,-6.5625,1.4375,0
33690,4.6875,-7.4375,1.5625,0
33710,3.125,-6.3125,0.25,0
33730,4.125,-7.75,-1.0625,0
33750,4.125,-9.0625,-0.125,0
33770,2.9375,-8.125,-1.75,0
33790,3.5,-8.125,-2.9375,0
33810,4.5625,-8.75,-2.3125,0
33830,3.1875,-7.5,-2.5625,0
33850,2.625,-5.125,-4,0
33870,4.75,-6.625,-1,0
33890,6.875,-7,-2.0625,0
33910,5.625,-5.5,-3.5,0
33930,1.875,-5.1875,-2.4375,0
33950,1.25,-6.25,-2,0
33970,2,-5.25,-3.1875,0
33990,3.0625,-4.5,-3.4375,0
34010,2.9375,-6.125,-0.75,0
34030,1.5625,-6.9375,-0.625,0
34050,0.1875,-5.75,-0.25,0
34070,-1.25,-4.125,-0.375,0
34090,-1.875,-4.5625,0.4375,0
34110,-0.6875,-5,1.0625,0
34130,0.1875,-4.0625,-1,0
34150,2.5,-4.1875,-1.25,0
34170,3.25,-3.5,-1.9375,0
34190,1.875,-3.4375,-2.875,0
34210,0.875,-3.3125,-4.1875,0
34230,0.4375,-2.4375,-3.9375,0
34250,-0.0625,-1.8125,-3.6875,0
34270,-0.125,-1.4375,-5.0625,0
34290,0.25,-2.375,-4.4375,0
34310,0.5625,-0.25,-4.8125,0
34330,-0.625,0.0625,-5.0625,0
34350,-1.875,-0.625,-4.75,0
34370,-1.625,1.125,-5.8125,0
34390,-2.375,1.3125,-6.25,0
34410,-0.8125,-0.3125,-5.6875,0
34430,-1.875,0.625,-7.25,0
34450,-4.125,1.1875,-7.9375,0
34470,-2.6875,0.4375,-6.25,0
34490,-2.375,1.3125,-7.875,0
34510,-2.75,2.3125,-8,0
34530,-1.6875,1.6875,-6.9375,0
34550,-1.0625,1.875,-8.4375,0
34570,-2.3125,3.0625,-9.5,0
34590,-2.875,2.8125,-7.25,0
34610,-1.1875,2,-7.625,0
34630,1.125,2.625,-7.875,0
34650,-0.3125,3.75,-6.25,0
34670,-3.375,4,-6.0625,0
34690,-2.3125,3.4375,-4.75,0
34710,-1.75,4.5,-5,0
34730,-3,4.875,-5.0625,0
34750,-1,3.25,-5.25,0
34770,0.3125,3.125,-5.9375,0
34790,-3.125,4.1875,-5.6875,0
34810,-3.875,4.375,-6.9375,0
34830,-2.75,3.8125,-7.4375,0
34850,-1.5,4.25,-7.0625,0
34870,-1.3125,4.625,-7.75,0
34890,-3.8125,4.4375,-7.625,0
34910,-4.5,4.875,-6.25,0
34930,-6.375,4.8125,-7,0
34950,-6.625,3.4375,-7.6875,0
34970,-5.3125,3.0625,-7.6875,0
34990,-4.25,3.3125,-7.5,0
35010,-4.25,2.5,-8.4375,0
35030,-4.4375,3.8125,-8.125,0
35050,-6.5625,4.5625,-7.5625,0
35070,-6.8125,3.125,-8.0625,0
35090,-3.125,2.8125,-8.1875,0
35110,-3.5,4,-8.125,0
35130,-6.625,3.9375,-7.75,0
35150,-6.8125,4.4375,-7,0
35170,-5.375,5.375,-6.9375,0
35190,-2.3125,5.75,-6.5625,0
35210,-2,6.3125,-6.4375,0
35230,-1.8125,6.0625,-7.125,0
35250,-1.8125,6.5625,-6.375,0
35270,-3.125,6.5625,-6.75,0
35290,-1.8125,6.375,-8.125,0
35310,-2.0625,7.125,-8.0625,0
35330,-2,7.5625,-7.6875,0
35350,-3.625,7.75,-8.875,0
35370,-3.6875,8,-9.4375,0
35390,-3.25,8.75,-8.875,0
35410,-2.8125,9.375,-9.1875,0
35430,-2.0625,9.75,-10.0625,0
35450,-2.1875,10.375,-9.9375,0
35470,-3.0625,11.3125,-10.125,0
35490,-3.75,11.25,-10.625,0
35510,-3.4375,11.75,-10.9375,0
35530,-0.8125,12.875,-11.3125,0
35550,-2.375,13.0625,-12.8125,0
35570,-2.1875,12.4375,-14.5625,0
35590,-0.3125,11.125,-14.125,0
35610,0.625,10.5,-14.5625,0
35630,-0.4375,10.125,-15.5,0
35650,-0.125,9.1875,-15,0
35670,0.4375,9.1875,-14.75,0
35690,0.125,8.5625,-14.9375,0
35710,1.75,7.9375,-14.625,0
35730,3,8.375,-14.3125,0
35750,1.875,7.9375,-14.4375,0
35770,0.75,8.3125,-14.9375,0
35790,0.3125,9.1875,-14.6875,0
35810,0.375,8.875,-13.625,0
35820,1.75,8.25,-13.6875,0
35840,1.6875,8.4375,-13.375,0
35860,2.25,8.9375,-12.5,0
35880,0.875,8.8125,-12.625,0
35900,0.8125,9.6875,-12.1875,0
35920,0.625,10.1875,-11.5,0
35940,1.75,8.625,-11.3125,0
35960,2.6875,9.1875,-11.125,0
35980,1.6875,10.125,-11.0625,0
36000,-0.6875,9.5625,-10.6875,0
36020,0.6875,9.375,-10.3125,0
36040,1,9.5625,-9.6875,0
36060,0.875,10.0625,-10.0625,0
36080,0.5625,9.1875,-10,0
36100,2.8125,8.75,-9.6875,0
36120,2.9375,7.8125,-9.5625,0
36140,2.625,6.5625,-9.4375,0
36160,1.125,7,-9.4375,0
36180,1.6875,6.0625,-8.75,0
36200,2.0625,4.375,-6.9375,0
36220,0.5,3.5,-6.375,0
36240,-1.625,3.9375,-8.0625,0
36260,-2.0625,3.75,-8.0625,0
36280,-0.8125,3.0625,-7.875,0
36300,0.3125,3.5625,-9.4375,0
36320,2.5625,4.375,-10.4375,0
36340,2.125,3.5625,-10.9375,0
36360,4.5,3.5625,-12,0
36380,5.75,5.125,-13.0625,0
36400,1.9375,5.4375,-12.5,0
36420,1.75,4.75,-11.25,0
36440,3.875,5.25,-12.6875,0
36460,4.375,4.6875,-11.75,0
36480,3.8125,4.375,-10.875,0
36500,2.1875,5.5,-11.375,0
36520,0.6875,6.375,-9.9375,0
36540,2.0625,5.125,-7.125,0
36560,3.125,4.75,-6.9375,0
36580,2.625,4.0625,-5.8125,0
36600,1.25,3.25,-4.3125,0
36620,0.125,3.75,-3.5,0
36640,-0.875,4.0625,-1.9375,0
36670,-0.125,2,-2.375,0
36690,0.875,0.75,-1.125,0
36710,1.5625,0.875,-0.6875,0
36730,0.6875,1.6875,-1.875,0
36750,0,1.1875,-0.3125,0
36770,-1.1875,1,0.4375,0
36790,-2,1.625,-0.8125,0
36810,1.3125,2.25,0.25,0
36830,1.4375,2.375,0.875,0
36850,-1,3,0.6875,0
36870,0.1875,3.5,1.5625,0
36890,0.6875,2.3125,2,0
36910,1.125,2.3125,2.125,0
36930,-0.3125,2.625,3.375,0
36950,-3.375,4,3.5,0
36970,-4.375,4.25,3.75,0
36990,-1.8125,5.25,3.4375,0
37010,-1,6.5625,2.25,0
37030,-2.3125,6.6875,3,0
37050,-3.4375,7.6875,2.25,0
37070,-5.5625,6.5625,2.6875,0
37090,-4.125,7.5,3.25,0
37110,-5.875,7,3.25,0
37150,-0.25,3.6875,2.9375,0
37170,-0.3125,3.9375,3.0625,0
37190,-5.1875,5.375,2.25,0
37210,-7.0625,4,2.3125,0
37230,-4.0625,1.9375,3.4375,0
37250,-1.375,2.3125,3.75,0
37270,-1.9375,1.9375,3.5625,0
37290,-4,1.625,3.0625,0
37310,-3.4375,-1.0625,4.25,0
37330,-1.0625,-1.6875,5.875,0
37350,-2.5625,-0.9375,6,0
37370,-4.5,-1.1875,5.875,0
37390,-1.9375,-1.8125,8.1875,0
37410,-2.8125,-0.4375,8.0625,0
37430,-4.9375,0.5,6.375,0
37450,-3.4375,0.0625,6.375,0
37470,-2.3125,0.0625,6.3125,0
37490,-1.875,0.9375,6.0625,0
37510,-1.375,1.3125,6.4375,0
37530,-1.6875,1.625,5.5625,0
37550,-0.0625,1.5,4.8125,0
37570,1.8125,1.1875,5.25,0
37590,0.125,-0.875,5.25,0
37610,-2.5625,-2,4.875,0
37630,-4.1875,-2.5625,5.6875,0
37650,-3.875,-3.125,7.3125,0
37670,-5.75,-2.875,6.9375,0
37690,-5.875,-4.4375,7.125,0
37710,-4.0625,-5.5625,7.3125,0
37730,-3.375,-4.5,7.1875,0
37750,-2.625,-4,6.9375,0
37760,-0.1875,-4.5,7,0
37780,-0.125,-3.9375,6.4375,0
37800,-0.0625,-3.9375,7.3125,0
37820,-0.6875,-4.8125,9.125,0
37840,-1.25,-4.6875,8.8125,0
37860,-3.5625,-4.25,9.125,0
37880,-3.3125,-6.1875,10.9375,0
37900,-3.375,-6.375,11.125,0
37920,-2.625,-5.4375,10.75,0
37940,-0.75,-5.3125,11.125,0
37960,-2.9375,-6.1875,11.5,0
37980,-3.5625,-4.4375,11.375,0
38000,-2.5625,-3.75,11.75,0
38020,-2.875,-4.1875,11.6875,0
38040,-3.4375,-3.8125,11.4375,0
38060,-1.375,-3.5625,11.6875,0
38080,-1.875,-4.75,11.625,0
38100,-3.4375,-4.1875,11.1875,0
38120,-2.5,-3.6875,10.375,0
38140,-1.5625,-4.75,10.125,0
38160,-2.375,-4.5625,9.9375,0
38180,-3.5,-4.25,10.1875,0
38200,-3.0625,-5.5625,11.25,0
38220,-3.9375,-5.1875,10.375,0
38240,-2.625,-4.8125,10.25,0
38260,-2.1875,-5.75,11.3125,0
38280,-3.125,-5.6875,10.75,0
38300,-3,-6,12.125,0
38320,-1.8125,-6.4375,13.1875,0
38340,-2.875,-5.75,11.5,0
38360,-3.3125,-6.1875,11.875,0
38380,-1.6875,-7.375,14.0625,0
38400,-3.5625,-6.0625,13.0625,0
38420,-4.4375,-5.1875,12,0
38440,-2.0625,-5.75,13.5,0
38460,-2.5625,-6.25,12.75,0
38480,-2.625,-5.25,11.9375,0
38500,-1.875,-5.25,12.625,0
38520,-2.625,-6.1875,12.1875,0
38540,-3.6875,-5.1875,11.5,0
38560,-2.9375,-6.0625,12.0625,0
38580,-4.0625,-5.8125,11.25,0
38600,-3.5625,-5.1875,10.25,0
38620,-2.4375,-6.5625,11.8125,0
38640,-3.5,-6.75,11.4375,0
38660,-3.5625,-5.5625,10.25,0
38680,-3.0625,-7.0625,11.4375,0
38700,-3.5625,-7.5625,11.3125,0
38720,-4.5,-8.625,12,0
38740,-5,-8.8125,11.9375,0
38760,-5.1875,-9.25,11.625,0
38780,-6,-10.875,12.1875,0
38800,-4.75,-11.4375,10.875,0
38810,-1.75,-12.375,9.375,0
38830,-1.875,-13.3125,8.9375,0
38850,-2.0625,-13,7.875,0
38870,-0.5625,-13.0625,7.3125,0
38890,-2.375,-14.6875,9.0625,0
38910,-4.4375,-13.4375,7.875,0
38930,-3.875,-13.125,8.75,0
38950,-1.875,-14.6875,9.75,0
38970,-4.3125,-14.4375,9.25,0
38990,-4.1875,-13.75,8.75,0
39010,-2.9375,-13.4375,8.4375,0
39030,-2.1875,-14.25,8.6875,0
39050,-2.1875,-13.625,8.6875,0
39070,-2.5,-12.4375,7.3125,0
39090,-2.3125,-14,7.9375,0
39110,-3,-14,8.25,0
39130,-1.625,-13.5,8.5,0
39150,-0.625,-14.5,8.25,0
39170,-3.625,-15.1875,8.6875,0
39190,-2.6875,-13.125,8.3125,0
39210,-0.6875,-15.8125,8.375,0
39230,-6.875,-18.0625,11.25,0
39250,-8.6875,-17.5625,12.875,0
39270,-9.5625,-17.3125,13.9375,0
39290,-11.1875,-16.9375,14.3125,0
39310,-9.4375,-18.5,14.1875,0
39330,-4.5,-18.25,12.9375,0
39350,0.0625,-17.4375,9.4375,0
39370,1.8125,-16.9375,7.5625,0
39390,-0.1875,-18.1875,7.25,0
39410,-0.5,-17.1875,3.4375,0
39430,0.5,-17.5625,0.4375,0
39450,0.6875,-18.9375,-0.0625,0
39470,2.0625,-19.1875,-1.375,0
39490,1.6875,-18.875,-2.5,0
39510,1.75,-18.1875,-2.875,0
39530,0.625,-18.5625,-2.375,0
39550,-1.875,-18.5,-4.1875,0
39570,-0.875,-17.8125,-4.625,0
39590,-0.875,-17.0625,-4.625,0
39610,-1.125,-18.3125,-4.125,0
39630,0.125,-17.4375,-4.8125,0
39650,-1.3125,-15.1875,-4.5625,0
39670,-3.5625,-14.8125,-3.5,0
39690,-3,-14.1875,-3.4375,0
39710,0.0625,-13.1875,-3.5625,0
39730,2.5,-12.1875,-2.3125,0
39750,-1.5,-12.1875,-0.75,0
39770,-2.875,-10.5625,-1.5625,0
39790,-0.5625,-9.5,-1,0
39810,0.8125,-11.4375,1.9375,0
39830,2.5,-10.5,0.4375,0
39850,1.75,-8.1875,0.0625,0
39870,-0.625,-7.6875,2.3125,0
39890,-2.4375,-7.1875,1.25,0
39910,-0.25,-7.5,0.1875,0
39930,4.3125,-7.3125,1.375,0
39950,2.75,-8,2.125,0
39970,-0.5625,-6.9375,-1.6875,0
39990,0.1875,-7.4375,-0.4375,0
40010,2.4375,-10.125,3.25,0
40030,1.25,-8.75,-0.125,0
40050,0.5625,-7.875,-1.5,0
40070,0.75,-8.875,1.75,0
40090,0.6875,-9.8125,2.3125,0
40110,0.875,-9.375,3.125,0
40130,-0.5,-8.1875,4,0
40150,-2,-8.875,5.1875,0
40170,-4.1875,-8.4375,4.4375,0
40190,-3.9375,-7.3125,3.625,0
40210,-0.625,-5.9375,2.375,0
40230,0.125,-7,0.9375,0
40250,1.4375,-7.1875,0.375,0
40270,-1.1875,-5.875,-0.25,0
40290,-0.6875,-5.375,-0.8125,0
40310,0.625,-5.875,-2.8125,0
40330,0.75,-4.875,-3.6875,0
40350,0.5625,-3.4375,-6.625,0
40370,-0.75,-3.6875,-7.25,0
40390,-0.875,-3.125,-5,0
40410,-1.875,-2.1875,-4.75,0
40430,-2.25,-1.0625,-6.5625,0
40450,-3.0625,-0.5625,-6.125,0
40470,-2.9375,-3,-2.6875,0
40490,-2.4375,-1.6875,-4.5,0
40510,-3.25,-0.75,-5.125,0
40530,-5.875,-1.3125,-4.8125,0
40550,-7.4375,-0.5,-6.6875,0
40570,-7.9375,1,-8.0625,0
40590,-6.25,0.6875,-7.3125,0
40610,-4.5,0.3125,-7.0625,0
40630,-6.875,0.875,-9.3125,0
40650,-7.625,2.5,-10,0
40670,-7,3.9375,-8.625,0
40690,-5.4375,2.3125,-7.875,0
40710,-4.8125,2.9375,-10.875,0
40730,-6.8125,4.75,-11.8125,0
40750,-9.75,5.6875,-10.375,0
40770,-11.125,6.125,-12.625,0
40790,-8.25,6.4375,-13.9375,0
40810,-6.9375,7.125,-13.75,0
40830,-7.5,5.9375,-14.8125,0
40850,-6.9375,6.0625,-15.875,0
40870,-8.75,6.875,-16.3125,0
40890,-8.0625,7.5625,-15,0
40910,-8.5,7.25,-14.625,0
40930,-8.125,7.25,-13.9375,0
40950,-7.625,8.625,-14.0625,0
40970,-8.3125,8.0625,-13.375,0
40990,-8.375,7.875,-12.5,0
41010,-8.9375,9.5625,-14.25,0
41030,-7.75,10.8125,-13.4375,0
41050,-7.9375,10.375,-11.9375,0
41070,-4.5625,9.8125,-13.1875,0
41080,-4.25,11.1875,-13.5625,0
41100,-6.75,13.375,-12.8125,0
41120,-5.625,12.4375,-12.9375,0
41140,-3.875,11.0625,-13.0625,0
41160,-2.75,12.8125,-13,0
41180,-3.1875,12.9375,-13.625,0
41200,-2.9375,11.1875,-12.8125,0
41220,-1,12.5625,-12.1875,0
41240,-0.25,14.1875,-13.125,0
41260,-1.875,11.875,-14.5,0
41280,-0.5625,11.375,-13.5625,0
41300,1,11.75,-12.5625,0
41320,-1.4375,11.5625,-13.5625,0
41340,0.3125,10.125,-13.375,0
41360,1.0625,11.625,-13,0
41380,2,11.3125,-13.6875,0
41400,0.1875,10.6875,-14.375,0
41420,0.125,10.6875,-13.3125,0
41440,-0.9375,10.375,-12.6875,0
41460,-1.1875,8.4375,-12.5625,0
41480,0.3125,7.125,-12.75,0
41500,-0.1875,6.875,-12.4375,0
41520,-1.0625,5.875,-13.0625,0
41540,-2.375,5.375,-12.6875,0
41560,-0.0625,5.4375,-11.4375,0
41580,0.4375,5.4375,-12.6875,0
41600,0.25,4.6875,-12.6875,0
41620,-0.3125,6,-10.75,0
41640,-3.125,7.25,-11.5625,0
41660,-3.3125,6,-11.4375,0
41680,-0.9375,7.125,-10.9375,0
41700,1,7.5,-10.6875,0
41720,0.875,5.875,-11.875,0
41740,0.3125,6.875,-12.1875,0
41760,-0.8125,8.4375,-12.125,0
41780,-0.4375,9.3125,-13.3125,0
41800,-0.25,10.5625,-13.75,0
41820,1.6875,13.125,-13.125,0
41840,3.3125,15.125,-14.25,0
41860,3.75,15.875,-14.25,0
41880,3.0625,16.6875,-12.1875,0
41900,3.4375,17.0625,-12.5,0
41920,3.875,16.5625,-12.625,0
41940,3.0625,16.9375,-11.3125,0
41960,0.8125,17.0625,-10.875,0
41980,0.1875,17.0625,-10.5,0
42000,0.9375,16.6875,-9.5625,0
42020,0.1875,16.25,-9.375,0
42040,-1.25,15.5625,-10.125,0
42060,-1.1875,15.5,-9.875,0
42080,-1.9375,15.8125,-8.5,0
42100,-0.75,13.5,-7.125,0
42120,1,13.0625,-7.3125,0
42140,1.25,14.125,-7.1875,0
42160,-0.0625,14.625,-6.125,0
42180,-1.5625,15.5625,-5.3125,0
42200,0.25,15.375,-6.4375,0
42220,0.5,15.125,-7,0
42240,-0.625,15.75,-7.875,0
42260,-1.0625,15.4375,-8.8125,0
42280,-3,12.375,-8.0625,0
42300,-1.4375,11.4375,-7.4375,0
42320,-1.0625,12.1875,-7.0625,0
42340,-3.8125,12.1875,-6.625,0
42360,-4.875,12.1875,-6,0
42380,-3.1875,11.4375,-4.6875,0
42400,-1.5625,11.125,-6.3125,0
42420,-1.25,12.5,-7.125,0
42440,-2.0625,13.875,-7.875,0
42460,-3.625,13.5625,-7.6875,0
42480,-1.625,12.125,-6.3125,0
42500,1.6875,12,-6.6875,0
42520,1.1875,12,-5.375,0
42540,-3.5,11.875,-4.375,0
42560,-2.375,11.8125,-3.9375,0
42580,-1,11.0625,-3.375,0
42600,-3.4375,10.3125,-3.3125,0
42620,-4.6875,10,-2.75,0
42640,-4.375,9.375,-2.0625,0
42660,-3.375,8,-1,0
42680,-3.1875,8.25,0.0625,0
42700,-2.0625,7.875,1.5,0
42720,-2.625,7.0625,2.75,0
42740,-5,7.125,3.1875,0
42760,-3.125,5.5625,4.5,0
42780,-3.3125,4.5,4.4375,0
42800,-3.75,3.25,4.5625,0
42820,-1.9375,2.375,5,0
42840,-2.5625,2.6875,5.3125,0
42860,-4.75,2.875,5.625,0
42880,-4.25,3.25,6.125,0
42900,-3.0625,3,6.5,0
42920,-3.0625,3.8125,7.875,0
42940,-4.3125,4.5,8.6875,0
42950,-6.8125,3.875,9,0
42980,-5.9375,4.1875,7.25,0
43000,-3.625,4.625,6.1875,0
43010,-4.3125,1.8125,6,0
43030,-5.5,2.25,6.0625,0
43050,-7.125,2.5,6.75,0
43070,-4.125,0.3125,7.5625,0
43090,-5,1.75,5.25,0
43110,-2.375,0.625,5.125,0
43130,0.5,-0.1875,6.375,0
43150,-0.5,-1.3125,5.375,0
43170,-1.75,-0.8125,5.0625,0
43190,-2.875,-1,4.75,0
43210,-4.125,-3,6.25,0
43220,-2.875,-3.125,6.9375,0
43250,-3.375,-2.3125,4.9375,0
43270,-2.125,-3.75,6.875,0
43290,-1.6875,-3.5,6.4375,0
43310,-1.625,-1.8125,5.25,0
43330,-1.5,-2.375,3.5625,0
43350,-0.5,-3.5625,4.9375,0
43370,1.25,-2.6875,6.0625,0
43390,-2.5625,-2.25,5.5,0
43400,-1.9375,-3.375,3.9375,0
43420,1.3125,-3.5,3.875,0
43440,1.6875,-3,4.8125,0
43460,-0.25,-3.5,5.3125,0
43480,-0.875,-2.1875,4.6875,0
43500,-1.5625,-1.4375,4.1875,0
43520,-3.625,-2.5625,6.125,0
43540,-0.625,-2.375,5.6875,0
43560,-1.0625,-1.5,4,0
43580,-0.75,-1.8125,3.5,0
43600,-0.5625,-2.5625,5.0625,0
43620,-1.75,-2.25,5.0625,0
43640,2,-1.875,4.5625,0
43660,3.1875,-2.25,5.3125,0
43680,0.0625,-1.75,5.3125,0
43700,-3.25,-1.8125,5.6875,0
43720,-1.625,-2.5625,5.875,0
43740,-2.8125,-2.6875,7.8125,0
43760,-6.5,-3.5625,9.1875,0
43780,-6.375,-4,8.875,0
43800,-6.5625,-3.8125,9,0
43820,-7.125,-3.6875,9.625,0
43840,-7.125,-2.5625,8.3125,0
43860,-2.5,-3.125,7.4375,0
43880,-0.0625,-2.5625,8.6875,0
43900,-3.25,-2.1875,7.3125,0
43920,-2.125,-2.0625,6.8125,0
43940,-1.125,-2.625,6.75,0
43960,-0.4375,-2.9375,7.875,0
43980,-0.3125,-3.5625,6.6875,0
44000,-0.75,-3.5625,6.0625,0
44020,0.6875,-3.9375,7.3125,0
44040,-1.4375,-5.0625,8.125,0
44060,-3.5625,-4.5625,7.8125,0
44080,-2.3125,-4.5625,9.125,0
44100,-1.8125,-5.125,10.375,0
44120,-4.1875,-4.8125,9.3125,0
44140,-2.9375,-5.1875,8.3125,0
44160,-0.125,-4.9375,9.75,0
44180,-2.875,-4.6875,8.9375,0
44200,-2.25,-4.5,7.875,0
44220,2.0625,-5.125,8.5625,0
44240,1,-5.125,7.3125,0
44260,-2.0625,-3.9375,8.25,0
44280,-2.75,-3,9.0625,0
44300,-0.75,-3.3125,9.625,0
44320,-0.8125,-4.375,10.6875,0
44340,0.1875,-4,10.5,0
44360,-2.5625,-3.125,10,0
44380,-5.3125,-2.75,11.4375,0
44400,-4.3125,-3.75,12.25,0
44420,-1.0625,-3.8125,10.5625,0
44440,-0.125,-3.5625,10,0
44460,0.6875,-4.5,10.375,0
44480,-0.6875,-4.25,8.9375,0
44500,-0.75,-3.625,7.9375,0
44520,0.5625,-5.0625,8.9375,0
44540,-0.625,-4.375,6.75,0
44560,2.1875,-4.8125,6,0
44580,2.125,-5.4375,7.75,0
44600,-1.375,-3.6875,6.4375,0
44620,-1.875,-3.0625,6.875,0
44640,-1.875,-3.9375,8.25,0
44660,-3.9375,-2.125,6.0625,0
44680,-3.6875,-2.625,7,0
44700,-3.625,-3.6875,8.6875,0
44720,-6.8125,-2.625,6.4375,0
44740,-6.1875,-2.375,5.0625,0
44760,-3.4375,-3.9375,6.4375,0
44780,-3.5,-3.25,6,0
44800,-2.875,-3.75,5.9375,0
44820,-2.125,-4.375,7.0625,0
44840,-3.375,-3.875,8.0625,0
44860,-6.625,-4.5625,8.75,0
44880,-7.375,-4.1875,10,0
44900,-6.4375,-4.6875,10.5625,0
44920,-4.8125,-5.8125,11.8125,0
44940,-8.375,-5.125,11.25,0
44960,-9.125,-4.5,11.125,0
44980,-8.1875,-6.5625,11.25,0
45000,-10.0625,-7.375,11.875,0
45020,-10.1875,-7.0625,15.4375,0
45040,-5.75,-6.8125,14.1875,0
45060,-3.5625,-6,11.4375,0
45080,-4.75,-6.5625,10.9375,0
45100,-5.0625,-6.5625,11.125,0
45120,-2.625,-5.4375,7.9375,0
45140,1.0625,-6,4.9375,0
45160,3.4375,-7.125,5.8125,0
45180,-0.125,-7.625,4.875,0
45200,-3.0625,-6.3125,3.5625,0
45220,-0.75,-8.375,3.875,0
45240,3,-9,3.25,0
45260,2.5625,-9.25,1.625,0
45280,1.4375,-10.375,1.625,0
45300,1.3125,-10.5625,0.625,0
45320,1.375,-11.125,-0.1875,0
45340,1.6875,-10.8125,-0.4375,0
45360,4.0625,-11.9375,0.1875,0
45380,3.25,-11.6875,-1,0
45400,3.0625,-10.9375,-1.875,0
45420,2,-12.875,-0.0625,0
45440,1,-11.6875,-1.8125,0
45460,3.1875,-11.3125,-2.875,0
45480,5.9375,-13.4375,-1.0625,0
45500,0.4375,-13.3125,-2,0
45520,-1.5625,-11.875,-2.875,0
45540,-0.5625,-11.375,-2.75,0
45560,2.5625,-12.1875,-2.875,0
45580,5.875,-13.25,-2.8125,0
45600,7.8125,-11.25,-4.4375,0
45620,6.9375,-12.6875,-1.125,0
45640,0.625,-13.9375,1.8125,0
45660,-3,-12.625,0.8125,0
45680,-2.875,-13.875,1.875,0
45700,-2,-16.25,4.0625,0
45720,-4.5,-16.875,3.1875,0
45740,-4.3125,-15.125,0.6875,0
45760,-1,-16.5,-0.25,0
45780,-1.4375,-20.6875,3.3125,0
45800,-4.8125,-19.1875,3.8125,0
45820,-5.6875,-17.75,2.125,0
45840,-4.5625,-19.75,4.0625,0
45860,-4.9375,-21.5625,5.875,0
45880,-4.625,-19.625,3.1875,0
45900,-4.4375,-19.0625,3.125,0
45920,-5.75,-20.0625,4.75,0
45940,-6.1875,-19.4375,2.0625,0
45960,-4.1875,-19.5625,0,0
45980,-4.4375,-21,3,0
46000,-6.8125,-19.9375,4.0625,0
46020,-8.4375,-16.9375,1.5625,0
46040,-7.625,-15.5625,1.25,0
46060,-7.25,-15.625,4.5,0
46080,-6.3125,-13.4375,3.5625,0
46100,-4.9375,-10.875,3.5625,0
46120,-5.125,-9.9375,4.5625,0
46140,-5.9375,-10.25,3.9375,0
46160,-4.125,-9.8125,3.375,0
46180,-1.6875,-9.4375,3.4375,0
46200,-0.875,-10.1875,3.5,0
46220,-3.9375,-9.75,4.1875,0
46240,-4.875,-9.4375,4.9375,0
46260,-3.9375,-9.625,3.25,0
46280,-1.625,-9.8125,1.625,0
46300,-0.6875,-9.875,2.875,0
46320,-2.8125,-11.0625,4.6875,0
46340,-4.8125,-10.75,3.3125,0
46360,-4.4375,-12.25,3.6875,0
46370,-3.75,-13,4.8125,0
46390,-3.75,-12.6875,4.9375,0
46410,-3.5625,-11.5,4.3125,0
46430,-3.375,-11.875,3.5625,0
46450,-3.0625,-11,1.625,0
46470,-3.0625,-11.3125,-0.125,0
46490,-3.625,-11.125,-1.75,0
46510,-4.25,-10.1875,-1.5625,0
46530,-3,-9.6875,-2.375,0
46550,-1.1875,-9.9375,-1.75,0
46570,-1.375,-8.5,-2.625,0
46590,-0.625,-6.125,-2.9375,0
46610,-0.625,-5.4375,-2.4375,0
46630,-2.6875,-6.3125,-2.6875,0
46650,-0.5,-5.1875,-2.125,0
46670,-2.5,-3.6875,-0.6875,0
46690,-4.625,-4.5625,0.6875,0
46710,-3.1875,-3.4375,-0.4375,0
46730,-2.8125,-3.5625,-0.8125,0
46750,-1.9375,-4.4375,0.125,0
46770,-1.875,-4.125,-1.3125,0
46790,-2.125,-3.875,-3.25,0
46810,-1.625,-3.0625,-2.9375,0
46830,-2.25,-2.9375,-4.375,0
46850,-1.3125,-4.0625,-5.875,0
46870,-1.25,-4.0625,-4.25,0
46890,-0.8125,-3.3125,-6.5,0
46910,-0.875,-3.9375,-8.4375,0
46930,-2.5625,-4.8125,-6.5625,0
46950,-2.1875,-5.6875,-6.625,0
46970,-1.4375,-6.8125,-6.625,0
46990,-1.3125,-5.875,-6.375,0
47010,-2.1875,-4.75,-2.9375,0
47030,-5.6875,-6.0625,1.9375,0
47050,-9.4375,-4.25,-1.4375,0
47070,-9.8125,-4.0625,-3,0
47090,-6.25,-4.6875,-1.9375,0
47110,-6.3125,-3.1875,-2.375,0
47130,-3.125,-1.75,-3.375,0
47150,-1.4375,0.4375,-2.6875,0
47170,-3.3125,-0.25,-3.5625,0
47190,-4.8125,-1.125,-5.25,0
47210,-2.1875,-1.25,-5.875,0
47230,-3.875,-2.25,-4.8125,0
47250,-6.5,-3.375,-6.4375,0
47270,-6.6875,-5.3125,-7.125,0
47290,-5.5,-4.5625,-8.125,0
47310,-3.4375,-6,-8,0
47330,-2.75,-6.375,-8.6875,0
47350,-5.6875,-4.1875,-11.1875,0
47370,-8,-3.625,-12.1875,0
47390,-7.4375,-4.5,-12.0625,0
47410,-6.75,-5.3125,-12.4375,0
47430,-5.875,-4.5,-13.25,0
47450,-6.5625,-4.5,-14.125,0
47470,-7.5,-4.875,-12.4375,0
47490,-6.5,-4.625,-13.625,0
47510,-4.6875,-5.8125,-12.25,0
47530,-4.75,-3.25,-10.4375,0
47550,-5.6875,-0.25,-9.5625,0
47570,-7.875,0.875,-10,0
47590,-6.3125,0.75,-8.25,0
47610,-7.5625,2.875,-6.75,0
47630,-5.9375,4.25,-6.6875,0
47650,-3.9375,4.625,-5.8125,0
47670,-4.5625,6.625,-5.4375,0
47690,-5.3125,8.625,-7.3125,0
47710,-5.3125,9.75,-7.875,0
47730,-3.5,10.0625,-6.875,0
47750,-1.625,10.5,-7.1875,0
47770,-0.9375,11.375,-8.5,0
47790,-0.625,12.625,-9.9375,0
47810,-3.1875,12,-9.8125,0
47830,-3,10.3125,-11,0
47850,-0.875,9.3125,-10.875,0
47870,-0.125,8.75,-10.625,0
47890,-2,8.375,-11.6875,0
47910,-3.1875,8.0625,-13.4375,0
47930,-1.625,6.1875,-12.625,0
47950,0.625,5.3125,-13.1875,0
47970,-0.3125,5,-14.625,0
47990,-1.9375,4.125,-15.4375,0
48010,-1.6875,4,-15.375,0
48030,-1.9375,4.125,-14.875,0
48050,-0.3125,3,-13.875,0
48070,1.125,1.875,-13.875,0
48090,-0.4375,3.25,-14.75,0
48110,-1.1875,3.75,-12.5625,0
48130,-2.0625,2.3125,-12.9375,0
48150,-1.125,2.1875,-13.0625,0
48170,-0.9375,4.5,-13.0625,0
48190,-1.5,5.4375,-13.125,0
48210,-0.6875,4.5,-13.25,0
48230,0.5625,5.5625,-12.875,0
48250,-1.5625,7.875,-11.4375,0
48270,-4.375,7.5625,-13.5,0
48290,-0.9375,6.375,-13.9375,0
48300,-2,8.3125,-14.125,0
48320,-1.9375,7.8125,-15,0
48340,-0.8125,7.875,-15.0625,0
48360,-1.25,8,-13.625,0
48380,-1.6875,9.25,-14,0
48400,-1.625,8.8125,-14.25,0
48420,-1.75,8.9375,-12.4375,0
48440,-1.8125,10.375,-14.3125,0
48460,-0.8125,10.1875,-14.5625,0
48480,0.5,10.4375,-12.5,0
48500,-2.25,10.5625,-13.75,0
48520,-2.375,9.6875,-14.3125,0
48540,-1.0625,10.5625,-13.875,0
48560,-0.75,11.4375,-14.3125,0
48580,-0.6875,10.625,-14.9375,0
48600,-0.0625,13.0625,-15.5625,0
48620,0.125,14.1875,-15,0
48640,0.4375,13.875,-14.5625,0
48660,0,15.6875,-16.625,0
48680,-1.375,17.3125,-17.0625,0
48700,-0.9375,19,-15.0625,0
48720,-0.5,20,-16.375,0
48740,-0.0625,22.4375,-15.8125,0
48760,0.0625,23.8125,-13.875,0
48780,0.25,23.125,-10.6875,0
48800,-0.6875,23.3125,-10.3125,0
48820,-1.625,23.4375,-9.8125,0
48840,-3.4375,22.875,-7.5625,0
48860,-4.3125,21.6875,-6.1875,0
48880,-5.3125,21.75,-7.5625,0
48900,-4.5,21.5,-7.5,0
48920,-3.8125,21.8125,-6.0625,0
48940,-3.4375,21.8125,-6.75,0
48960,-3.75,21.75,-4.75,0
48980,-3.4375,21.1875,-5.375,0
49000,-3.6875,20.875,-5.75,0
49020,-5.3125,21,-4.5625,0
49040,-3.5,20.875,-3.25,0
49060,-3.3125,19.4375,-1.375,0
49080,-4,16.8125,0.3125,0
49100,-3,14.8125,1.0625,0
49120,-2.8125,15.625,1.9375,0
49140,-4.5,16.3125,4.3125,0
49160,-7.6875,15.875,6.9375,0
49180,-5.9375,14.375,5.0625,0
49200,1.3125,13.0625,3.625,0
49220,3.4375,13.5,3.3125,0
49240,3.0625,14.25,2.9375,0
49260,0.75,16.375,2.5,0
49280,2.1875,17.5,2.875,0
49300,4.875,15.5625,0.8125,0
49320,5.8125,13.75,0.5625,0
49340,4.875,13.5625,1.5,0
49360,0.8125,15.0625,2.875,0
49380,-4.5,15.9375,6.3125,0
49400,-5.1875,16.0625,6.9375,0
49420,-1.9375,14.875,7.0625,0
49440,-2,14.8125,8.1875,0
49460,-3.5,14.8125,7.75,0
49480,-3.875,12.8125,6.4375,0
49500,-3.9375,10.125,7.3125,0
49520,-5.75,10.4375,5.875,0
49540,-7.5,9.8125,3.875,0
49560,-5.25,8.9375,4.5,0
49580,-5.875,9.625,5.6875,0
49600,-5.6875,11.0625,5.4375,0
49620,-6.125,12,5.25,0
49640,-7.1875,10.4375,5.875,0
49660,-9.6875,9.1875,5.375,0
49680,-10.5,9.125,4.375,0
49700,-9.1875,6.125,4.6875,0
49720,-4.875,2.3125,4.4375,0
49740,-3.875,0.8125,5.4375,0
49760,-4,1.4375,5.375,0
49780,-8,1.625,6.75,0
49800,-7.5625,2.4375,6.875,0
49820,-4.375,2.25,6.625,0
49840,-4.3125,1.625,6.75,0
49860,-4.1875,1.5,7.125,0
49880,-5.5625,0.9375,7.6875,0
49900,-5.75,0.25,7.4375,0
49920,-4.625,-0.1875,8.9375,0
49950,-3.4375,-0.375,9.6875,0
49970,-4.1875,-0.6875,10.5625,0
49990,-3.9375,-0.5625,11.375,0
50010,-3.6875,-1.0625,12.6875,0
50030,-4.5625,0.25,10.375,0
50050,-3.625,-1.0625,9.6875,0
50070,-1.4375,-2.0625,10.5,0
50090,-3.0625,0.5625,8.8125,0
50110,-3.1875,1.9375,8.6875,0
50130,-0.3125,1.8125,9.625,0
50150,-1.3125,2.625,8.8125,0
50170,-1.5625,4.125,9.375,0
50190,1.1875,3,11.375,0
50210,-0.375,4,11,0
50230,-3.6875,6.0625,9.75,0
50250,-2,5.1875,10.6875,0
50270,-1.625,4.0625,10.875,0
50290,-1.0625,4.25,10.9375,0
50310,-1.3125,4.875,10.3125,0
50330,-1.5625,2.6875,9.375,0
50350,-0.4375,0.1875,8.875,0
50370,0.375,-1.5625,8.5,0
50390,0.3125,-2.6875,8.125,0
50410,-1.75,-2.625,8.0625,0
50430,-2.5,-3.8125,8.3125,0
50450,-1.875,-5.125,9.375,0
50470,0.3125,-4.0625,8.75,0
50490,0.3125,-4.875,7.875,0
50510,-1.3125,-6.8125,8.5,0
50530,-2.8125,-7,8.375,0
50550,-2.8125,-5.375,6.9375,0
50570,-1.125,-7.4375,8.5625,0
50590,-1.4375,-7.75,9.25,0
50610,-1.75,-6.5,8.5,0
50630,-2.4375,-6.125,9.9375,0
50650,-3.5625,-5.6875,11.625,0
50670,-5.875,-4.0625,11.625,0
50690,-5.0625,-4.0625,12.5,0
50710,-2.125,-3.375,13.8125,0
50730,-4.5,-2.8125,14.0625,0
50750,-6.1875,-2.5625,14.0625,0
50770,-6.4375,-2.4375,13.5625,0
50790,-5.375,-2.75,11.9375,0
50810,-4.5625,-3.1875,11.5,0
50830,-6.0625,-3.9375,11.125,0
50850,-7.6875,-5.125,11.625,0
50870,-10.0625,-5.125,11.125,0
50900,-6.625,-3.8125,11.75,0
50920,-5.625,-2.9375,10.3125,0
50940,-1.6875,-1.1875,9.3125,0
50960,-1.5,-1.125,9.5625,0
50980,-1.4375,-1.375,8.0625,0
51000,2.6875,-1.875,7.625,0
51020,6.375,-3.4375,7.25,0
51040,2.4375,-3.5625,6.4375,0
51060,-0.8125,-3.5625,6.4375,0
51080,-0.375,-5.625,7,0
51100,0.625,-8.125,7,0
51120,-1.0625,-8.125,6.875,0
51130,-4.125,-8,6.75,0
51150,-6.8125,-7.75,6.5625,0
51170,-4.375,-9,6.75,0
51190,-2.25,-8.9375,6.4375,0
51210,-1.625,-8.625,6,0
51230,-5.125,-9,5.625,0
51250,-7.6875,-8.6875,4.4375,0
51270,-5.3125,-11.3125,6.0625,0
51290,-4.625,-11,5.1875,0
51310,-2.875,-10.9375,3.5625,0
51330,-4.125,-13.0625,3.4375,0
51350,-5.9375,-12.9375,2.625,0
51370,-5.5625,-12.1875,1.875,0
51390,-4.0625,-13,2.25,0
51410,-2.8125,-13.0625,1.5,0
51430,-2.5625,-13.625,0.875,0
51450,-2.5,-14.6875,0.875,0
51470,-4.625,-14.4375,0.5625,0
51490,-4.375,-14.3125,0.9375,0
51510,-4.9375,-15.5625,2.4375,0
51530,-4.9375,-16.0625,3.4375,0
51550,-1.8125,-15.75,3.375,0
51570,-0.75,-15.375,2.625,0
51590,-3.75,-15.6875,3.1875,0
51610,-5.75,-15.4375,3,0
51630,-2.625,-14.625,1.875,0
51640,-0.75,-14.6875,1.5625,0
51660,-1.625,-15.5625,3.1875,0
51680,-2.5625,-14.8125,2.9375,0
51700,-1.8125,-15.1875,2.5625,0
51720,-2.625,-15.6875,3,0
51740,-4.625,-15.8125,2.6875,0
51760,-4.8125,-15.3125,1.875,0
51780,-1.875,-15.875,1.625,0
51800,-1.875,-16.3125,1.125,0
51820,-3.4375,-14.8125,-0.6875,0
51840,-2.25,-14.9375,-0.125,0
51860,-2.1875,-14.875,0.375,0
51880,-4.25,-12.8125,-0.375,0
51900,-1.5625,-12.25,-1.0625,0
51920,0.875,-14,0,0
51940,-1.9375,-12.3125,-1.6875,0
51960,-5.25,-8.8125,0.6875,0
51980,-3.6875,-10.0625,1.6875,0
52000,-2.75,-10.625,1.5,0
52020,-1.125,-10.4375,0.875,0
52040,-3.0625,-11.0625,0.8125,0
52060,-3.9375,-11.5,0.9375,0
52080,-2.9375,-12.375,-0.625,0
52100,-1.5625,-14.5,-0.875,0
52120,-1.1875,-14.1875,-1.875,0
52140,-3.1875,-13.625,-3.5625,0
52160,-2.5,-14,-3.5625,0
52180,-2.375,-16.0625,-3.0625,0
52200,-2.0625,-15,-4.375,0
52220,-1.25,-15.75,-6.0625,0
52240,0.25,-16,-6.9375,0
52260,-0.75,-13.25,-6.8125,0
52280,-0.0625,-14.5625,-5.8125,0
52300,-0.0625,-15.0625,-2.625,0
52320,-1.875,-14.875,-2.375,0
52340,-4.9375,-15.1875,-3.875,0
52360,-6.375,-16.0625,-1.75,0
52380,-5.0625,-16.3125,-0.25,0
52400,-6.125,-15.625,-1.875,0
52420,-5.625,-14.75,-2.3125,0
52440,-5.3125,-13.5625,-2.1875,0
52460,-4.625,-13.875,-2.375,0
52480,-4.625,-12.9375,-3.5,0
52500,-2.1875,-10.75,-5.375,0
52520,-0.5,-9.0625,-5.3125,0
52540,-1.6875,-8,-4.1875,0
52560,0.3125,-6.6875,-5.5,0
52580,0.5,-7.25,-5,0
52600,-0.5625,-6.125,-4,0
52620,-2.6875,-5.6875,-2.6875,0
52640,-5.25,-5.5625,-2.25,0
52660,-5.3125,-5.75,-0.375,0
52680,-5.125,-5.125,-1.6875,0
52700,-4.25,-5.875,-2,0
52720,-4.8125,-5.125,-1.75,0
52740,-5.375,-5.125,-1.8125,0
52760,-4.25,-6,-3.4375,0
52780,-4.5,-7.125,-3.0625,0
52800,-4.625,-6.0625,-3.9375,0
52820,-4.5,-6.6875,-5.1875,0
52840,-4.25,-6.9375,-5,0
52860,-2.875,-7.75,-3.75,0
52880,-1.8125,-8,-6.0625,0
52900,-4.75,-8.6875,-6.875,0
52920,-5.625,-7.9375,-6.5625,0
52940,-3.625,-8.375,-8.3125,0
52960,-0.5,-9.875,-8.9375,0
52980,-0.125,-8.6875,-8.125,0
53000,-6.3125,-7,-7.6875,0
53020,-7.6875,-5.875,-8.5,0
53040,-6.125,-4.75,-7.8125,0
53060,-5.75,-3.125,-6.375,0
53080,-4.75,-2,-7.25,0
53100,-3.1875,-2.6875,-8.5625,0
53120,-1.5,-2.0625,-8,0
53140,-2.6875,-1.0625,-4.625,0
53160,-0.6875,-1.75,-3.25,0
53180,-0.25,-3.125,-4.625,0
53200,1.8125,-3.4375,-4.875,0
53220,1.25,-5.25,-4.0625,0
53240,-3,-6,-3.9375,0
53260,-2.125,-5.6875,-6.625,0
53280,0.1875,-5.75,-6.5,0
53300,0.875,-5,-5.3125,0
53320,-0.125,-3.1875,-5.4375,0
53340,0.875,-0.5,-5.75,0
53360,2.375,0,-6.5625,1001
53380,1.3125,-0.3125,-5.0625,0
53400,1.9375,0.875,-5.5625,0
53420,0.25,1.375,-6.75,0
53440,-2.625,-0.6875,-5.375,0
53460,-1.875,-0.125,-5,0
53480,-3.25,0.3125,-3.6875,0
53500,-2.75,-0.1875,-3.1875,0
53520,-2.3125,0.0625,-3.6875,0
53540,-5,0.875,-4.5,0
53560,-3.875,0.0625,-5.5625,0
53580,-3.25,-0.625,-5.5,0
53590,-0.1875,0.375,-4.375,0
53610,-0.75,3.875,-7.6875,0
53630,-3.3125,7.375,-6.875,0
53650,0.1875,11.625,-4.5625,0
53670,-0.8125,13.6875,-5.3125,0
53690,-1,18.375,-4.125,0
53710,4,23,-2.75,0
53730,10.75,26.5,6,0
53750,11.125,31.0625,14.75,0
53770,14.6875,38.1875,19.5,0
53790,15.5625,48.6875,22.25,0
53810,19.6875,54.25,28.8125,0
53830,19.375,60.375,33.25,0
53850,18.375,67.6875,33.9375,0
53870,21.375,76.625,34.5625,0
53890,21.25,78.6875,33.3125,0
53910,21.625,74.875,34.5625,0
53930,20,71.375,33.8125,0
53950,22.1875,75.0625,30.6875,0
53970,22.5625,67.9375,34.875,0
53990,23.4375,56.75,29,0
54010,26.5,48,22.3125,0
54030,25.4375,40.625,21,0
54050,24.8125,28.75,22.125,0
54070,13,15,23.9375,0
54090,10.875,11.4375,21.875,0
54110,5.8125,11.125,25,0
54130,-1.1875,7,28,0
54150,-13,2.5,21.9375,0
54170,-17.8125,-2.375,16.625,0
54190,-15.9375,-5.875,9.875,0
54210,-14.625,-12.1875,4.875,0
54230,-19,-17.9375,-9,0
54250,-20.3125,-23.1875,-20.5625,0
54270,-19.8125,-25.6875,-29.9375,0
54290,-16.6875,-26.25,-36.75,0
54310,-15.25,-26.0625,-40.3125,0
54330,-17.6875,-24.0625,-40.3125,0
54350,-17.75,-21.9375,-35.1875,0
54370,-14.125,-18.875,-26.75,0
54390,-11.8125,-13.8125,-19.375,0
54410,-9.9375,-10.6875,-11.0625,0
54430,-9.6875,-9.3125,-3.4375,0
54450,-6.75,-7.8125,5.5625,0
54470,-3.8125,-5.5625,12.3125,0
54490,1.125,-1.625,17.625,0
54510,6.5625,3.875,24.375,0
54530,7.9375,11.25,31.25,0
54550,5.0625,19.625,41.5,0
54570,8.125,23.1875,52.5,0
54590,14.125,22.0625,54.4375,0
54610,17,18.4375,56.9375,0
54630,17.375,16.75,63,0
54650,16.3125,15.125,66.1875,0
54670,13.6875,13.6875,68.1875,0
54690,3.8125,13.625,66.1875,0
54710,-3.6875,8.3125,59.6875,0
54730,-1.5,1,56.1875,0
54750,1.9375,-2.3125,50.9375,0
54770,2.75,-5.6875,43.1875,0
54790,0.125,-9,36.8125,0
54810,4.875,-12.9375,32.1875,0
54830,9.5,-13.875,25.9375,0
54850,7.125,-12.1875,20.125,0
54870,3.0625,-10.6875,16,0
54890,5,-11.375,13.75,0
54910,4.25,-13.5,13.375,0
54930,6.1875,-15.5625,12.5,0
54950,7.1875,-17.1875,12.9375,0
54970,6.3125,-16,11.4375,0
54990,6.1875,-17.3125,9.8125,0
55010,3.875,-19.875,9.75,0
55030,4.625,-18.0625,9.875,0
55050,3.375,-17.5,8.5625,0
55070,2.625,-16.3125,8.75,0
55090,5.3125,-15.25,11.625,0
55110,1,-14.3125,12.6875,0
55130,2.125,-11.375,10.9375,0
55150,2,-8.125,9.1875,0
55170,-2,-7.125,8.75,0
55190,-2.3125,-8.5,7.8125,0
55210,1.75,-7.75,5.125,0
55230,3.3125,-4.8125,2.5,0
55250,4.25,-3.9375,1.4375,0
55270,2.625,-3,0.0625,0
55290,1.6875,-2.0625,0.1875,0
55310,1.0625,-1.0625,0.6875,0
55330,-1.25,-3.25,2.25,0
55350,2.0625,-4.5,0.875,1000
55370,2.5,-3.6875,-0.75,0
55390,2.125,-4.0625,0.125,0
55410,-0.875,-5.1875,2.1875,0
55430,-1.1875,-4.75,1.1875,0
55450,-0.375,-4.5625,0,0
55470,-1.125,-5,0.8125,0
55490,1.125,-6.1875,0.6875,0
55510,1.5,-6.4375,1,0
55530,0.4375,-6.8125,1.875,0
55550,-3.3125,-6.625,2.9375,0
55570,-5.25,-5.4375,4.75,0
55590,-5.6875,-4.75,5,0
55610,-3.9375,-5.25,4.9375,0
55630,-1.25,-5.3125,3.6875,0
55650,-0.5,-5,2.1875,0
55670,-1.5,-5.3125,0.625,0
55690,-0.875,-5.75,0,0
55710,0.375,-4.1875,-0.0625,0
55730,0.4375,-3.0625,-0.75,0
55750,-1.125,-3.3125,0,0
55770,-0.6875,-2.75,-1.25,0
55790,-1,-2.6875,-1.4375,0
55810,-1.625,-4.0625,0.0625,0
55830,-1.5,-2.75,-1.6875,0
55850,-1,-1.3125,-2.9375,0
55870,0.375,-2.25,-2,0
55890,-0.25,-2.5625,-0.9375,0
55910,-0.25,-1.75,-1.9375,0
55930,1.5,-1.75,-1.625,0
55950,0.4375,-0.75,-0.5625,0
55970,-1.4375,0.25,0.75,0
55990,-0.5625,0.1875,0.4375,0
56010,0.375,-0.5,0.25,0
56030,0.375,-1,1.5,0
56050,-1,-0.75,0.75,0
56070,-0.75,-1.3125,0.3125,0
56090,0.5625,-2.125,1.0625,0
56110,-0.625,-1.1875,1.375,0
56130,0.5,-0.4375,1.25,0
56150,2.625,-0.1875,1,0
56170,3.0625,-0.5625,3.875,0
56190,3.75,-0.0625,3.8125,0
56210,-3.0625,0.75,0.75,0
56230,-1.4375,0.875,0.125,0
56250,0.4375,-0.75,3,0
56270,0.375,-1.625,2.3125,0
56290,0.5625,-1.75,0.5625,0
56310,-0.8125,-3.125,1.5,0
56330,-1.5,-4.4375,2.625,0
56350,-0.0625,-5.5625,1.25,0
56370,0.625,-5.75,1,0
56390,1.5,-5.5,0.5625,0
56410,0.625,-5.5625,1.9375,0
56430,-0.4375,-5.9375,2.5,0
56450,-0.6875,-6.1875,2.25,0
56470,0.4375,-6.3125,1.4375,0
56490,0.625,-7.1875,1.5,0
56510,-0.8125,-7.0625,1.75,0
56530,-2.1875,-7.3125,2,0
56550,0.0625,-8.3125,2.125,0
56570,1.625,-8.75,0.875,0
56590,0.6875,-9.1875,-1.3125,0
56610,3.1875,-10.75,-0.3125,0
56630,3.3125,-10.125,0.9375,0
56650,1.25,-10.0625,0.25,0
56670,0.6875,-9.9375,0.25,0
56690,0.75,-9.625,0.25,0
56710,0.9375,-9.4375,-0.0625,0
56730,0.5,-10,0.1875,0
56750,2.9375,-9.375,-0.9375,0
56770,4.75,-9.6875,-2.3125,0
56790,3.6875,-10.875,-1.875,0
56810,3.625,-10,-3.625,0
56830,5.3125,-10.1875,-3.4375,0
56850,3.6875,-10.4375,-3.375,0
56870,3.8125,-10.375,-4.625,0
56890,3.1875,-10.8125,-5.375,0
56910,4.4375,-10.0625,-4.5,0
56930,4.4375,-9.9375,-5.1875,0
56950,2.625,-10.9375,-6.3125,0
56970,3.0625,-10.6875,-7.375,0
56980,4.0625,-10.0625,-8.875,0
57000,2.4375,-11.25,-7.75,0
57020,1.625,-12.0625,-6.375,0
57040,3.8125,-12,-7.875,0
57060,4.375,-11.625,-8.5625,0
57080,0.125,-10.6875,-7.9375,0
57100,-1.25,-10.125,-8.8125,0
57120,0.5,-11.375,-9.875,0
57140,2.875,-11.8125,-9.5625,0
57160,-0.0625,-10.3125,-8.9375,0
57180,-2.25,-9.375,-9.9375,0
57200,-1.875,-8.875,-11.625,0
57220,-1.4375,-8.0625,-10.375,0
57240,-1.4375,-5.5625,-8.8125,0
57260,-0.75,-3.875,-9.5625,0
57280,-0.625,-2.625,-9.0625,0
57300,0.25,0.0625,-9.625,0
57320,-1.125,1.625,-9.6875,0
57340,-0.0625,1.6875,-9.75,0
57360,1.875,3.4375,-10.6875,0
57380,1.5,6.75,-11.125,0
57400,-1.375,7.375,-10.3125,0
57420,-2.5625,6.75,-9.1875,0
57440,-1.5,8.75,-10.375,0
57460,-1.875,9.9375,-11.1875,0
57500,-2.6875,9.25,-10.5,0
57530,-4.125,8.25,-9.25,0
57570,-3,6.9375,-10.1875,0
57600,-2.625,6.0625,-9.3125,0
57620,-1.6875,5.0625,-9.625,0
57640,-0.5,3.875,-9.8125,0
57660,0.125,4.5,-12.6875,0
57680,0.25,3.75,-11.4375,0
57700,0.1875,3.3125,-9.25,0
57720,0.5,3.5,-11.3125,0
57740,0.5,3.5625,-12.0625,0
57760,0,5.75,-12.1875,0
57780,-3.5625,7.25,-10.9375,0
57800,-1.625,7,-8.1875,0
57820,2.25,7.5,-8.875,0
57840,1.625,7.125,-11.6875,0
57860,-0.375,6.9375,-10.375,0
57880,-2,6.3125,-9.9375,0
57900,-2.0625,5.8125,-11.375,0
57920,-0.0625,5.625,-10.75,0
57940,-1.8125,7.6875,-8.8125,0
57960,-2.0625,6.375,-8.1875,0
57980,-1.125,3.0625,-7.9375,0
58000,-1.3125,3.4375,-9.6875,0
58020,-4.4375,6.1875,-10.875,0
58040,-6.625,5.875,-11.6875,0
58060,-4.5,4.4375,-12.125,0
58080,-2.6875,5.625,-12.1875,0
58100,-2.8125,5.4375,-12.25,0
58120,-3.875,4.9375,-12.75,0
58140,-5.875,5.6875,-11.75,0
58160,-5.8125,5.75,-12.875,0
58180,-6.375,4.1875,-13.8125,0
58200,-5,5,-13.8125,0
58220,-4.875,5.8125,-13.625,0
58240,-4.875,5.8125,-14.5625,0
58260,-3.8125,6.125,-14.4375,0
58280,-3.875,7.3125,-13.875,0
58300,-4.625,8.8125,-13.5,0
58320,-5.375,10.125,-13.0625,0
58340,-4.6875,10.625,-12.4375,0
58360,-3.4375,11.25,-13.3125,0
58380,-3.875,11.8125,-13.25,0
58400,-3.3125,12.3125,-12.3125,0
58420,-3.1875,11.875,-11.4375,0
58440,-2.375,12.9375,-11.8125,0
58460,-1.3125,12.5,-13.125,0
58480,2,12.6875,-13.3125,0
58500,-2.6875,11.75,-14.4375,0
58520,-3,12.75,-14.9375,0
58540,-3.625,14.25,-17.375,0
58560,-2.6875,12.9375,-20.1875,0
58580,0.875,13.9375,-21.6875,0
58600,1.625,16.1875,-21.6875,0
58620,0,17.375,-24.6875,0
58640,-2.1875,19,-25.875,0
58660,-2.875,20.25,-25.375,0
58680,-0.1875,19.5,-26.125,0
58700,1.6875,17.75,-25.5625,0
58720,1.9375,17.625,-22.8125,0
58740,-0.3125,19.5625,-21.9375,0
58760,-2.875,19.875,-21.375,0
58780,-2.0625,17.3125,-18.4375,0
58800,-1.0625,17.875,-18.6875,0
58820,0.375,18.4375,-20.625,0
58840,-0.1875,18.875,-18.125,0
58860,-1.875,19.5625,-16,0
58880,-1.1875,19.25,-16,0
58890,0.5625,17.6875,-15.125,0
58910,2.0625,17.5625,-13.375,0
58930,2.4375,18.0625,-12,0
58950,1.3125,18.375,-10.75,0
58970,0.0625,18.25,-9.375,0
58990,1.6875,16.8125,-7.25,0
59010,2.3125,15.3125,-5.375,0
59030,0.9375,13.875,-5,0
59050,-2.875,14.125,-3.125,0
59070,-5.75,14.5625,-0.75,0
59090,-5.625,13.5625,-1.125,0
59110,-3.0625,11,-0.875,0
59130,-1.8125,12.0625,-0.375,0
59150,-4.5625,13.1875,-0.625,0
59170,-3.8125,11.5625,-1.875,0
59190,-1.9375,11.0625,-2.5,0
59210,-3.375,11.375,-2.875,0
59230,-2.875,11.1875,-3.5,0
59250,-2.9375,10.5625,-3.75,0
59270,-1.4375,10.75,-3.8125,0
59290,-1.9375,9.4375,-3.4375,0
59310,-1.75,7.25,-5.1875,0
59330,-1.375,5.3125,-5.8125,0
59350,-1.5625,6.3125,-6.8125,0
59370,-2.625,6.375,-6.75,0
59390,-0.6875,4.6875,-7.375,0
59410,1.25,4.1875,-6.8125,0
59430,-1.5,5.625,-5.125,0
59450,-2.4375,5.25,-6.625,0
59470,-2.125,2.9375,-5.5625,0
59490,-2.5,4.4375,-4.3125,0
59510,-2.6875,5.6875,-4.875,0
59530,-0.875,5.75,-3.8125,0
59550,-2,6.6875,-3.25,0
59570,0.0625,7.5,-2.5,0
59590,1.0625,7,-0.5,0
59610,-3.9375,4.9375,-0.0625,0
59630,-4.4375,4.9375,-0.875,0
59650,-1.5,5.6875,-2.1875,0
59670,1.125,3.9375,-2.5,0
59690,-0.4375,2.625,-2.0625,0
59710,-0.75,3.375,-1.4375,0
59730,0.5,2.5625,1.8125,0
59750,-1.875,1.9375,5.8125,0
59770,-3.0625,4.75,7.375,0
59790,-3.5,5.5625,6.8125,0
59810,-4.25,3.25,5.375,0
59830,-3.375,1.4375,4.6875,0
59850,0.0625,1.0625,1.625,0
59870,1.25,1.0625,0.125,0
59890,-1.625,0.0625,0.6875,0
59910,-1.5625,0.0625,1.125,0
59930,1.8125,0.5625,1.75,0
59950,1.3125,1,1.75,0
59970,0.875,-1.125,4.9375,0
59990,0.6875,-1,6.3125,0
60010,-2.6875,1.125,5,0
60030,-3.125,1.25,6.4375,0
60050,-2.3125,1.9375,8.625,0
60070,-0.9375,1.8125,9.375,0
60090,-1.625,2.625,8.5625,0
60110,-0.6875,3.8125,8.5,0
60130,-0.625,3.875,9.75,0
60150,-2.125,3,9.5625,0
60170,0.125,3.4375,7.9375,0
60190,3.3125,3.5625,4.75,0
60210,5.125,2.375,3.875,0
60230,2.625,1.1875,6.1875,0
60250,3.875,2.625,5.6875,0
60270,1.8125,4.25,6.0625,0
60290,-1.5625,3.6875,8.5625,0
60310,-1.375,2.875,9.5,0
60330,-0.5625,2.0625,9.0625,0
60350,1.5625,1.1875,8.25,0
60370,-0.9375,-0.9375,8,0
60390,-0.6875,-1.375,6.5625,0
60410,1.75,-1.3125,6.1875,0
60430,0.6875,-2.9375,7.3125,0
60450,-0.75,-3.3125,6.6875,0
60470,1.125,-1.8125,5.6875,0
60490,0.9375,-3.25,6.875,0
60510,0.0625,-3.4375,6.625,0
60530,1,-2.1875,4.9375,0
60550,2.25,-2.875,5.5625,0
60570,0.5,-3.5625,6.875,0
60590,-1.1875,-2.625,6.125,0
60610,-1.375,-2.5,5.8125,0
60630,0.5,-2.5,7.4375,0
60650,0.375,-3.0625,7.0625,0
60670,0.25,-3,5.25,0
60690,-0.75,-2.8125,5,0
60710,-0.6875,-4.0625,7.9375,0
60730,-1.3125,-3.5,5.9375,0
60750,2.125,-4.0625,5.875,0
60770,3.125,-5.1875,8.1875,0
60790,-0.5,-5.1875,7.4375,0
60810,0.0625,-5.5625,6.9375,0
60830,1.8125,-5.625,8.5,0
60850,0.3125,-6.125,8.5,0
60870,-0.0625,-5.625,7.1875,0
60890,2.4375,-5.6875,6.8125,0
60910,0.3125,-6.0625,8.25,0
60930,-0.8125,-5.5625,7.9375,0
60950,-0.9375,-3.875,6.75,0
60960,0.375,-3.5,8.0625,0
60980,2.3125,-4.25,8.6875,0
61000,1.625,-4.375,8.3125,0
61020,1.875,-3.4375,8.625,0
61040,-1,-4.125,9.0625,0
61060,0.1875,-5.0625,8.6875,0
61080,2.875,-4.6875,9.1875,0
61100,1.8125,-4.75,9,0
61120,0.6875,-4.75,9.5,0
61140,1,-4.4375,9.75,0
61160,1.5,-4.0625,10,0
61180,-0.3125,-5.5,10.0625,0
61200,-0.3125,-5.5,8.8125,0
61220,1.5625,-4.375,7.6875,0
61240,2.125,-5.75,8.375,0
61260,1,-7,8.1875,0
61280,0.75,-5.9375,7.125,0
61300,0.625,-5.625,6.5,0
61320,-1.125,-6.4375,7.0625,0
61340,-0.375,-5.8125,6.8125,0
61360,0.75,-5.75,7.0625,0
61380,0.3125,-4.5,6.4375,0
61400,-0.3125,-5.125,5.9375,0
61420,0.5625,-5.25,5.75,0
61440,0.3125,-4.375,5.875,0
61460,-1.375,-5.125,6.9375,0
61480,-2.5,-5.1875,5.875,0
61500,-0.375,-4.9375,4.9375,0
61520,-0.5,-5.625,7.125,0
61540,-2.9375,-6.3125,7.0625,0
61560,-3.5625,-5.5,5.625,0
61580,-1.75,-5.4375,5.625,0
61600,-1.875,-7.875,7.125,0
61620,-3.75,-8.0625,6.125,0
61640,-4.1875,-6.0625,5.4375,0
61660,-2,-7.0625,7.25,0
61680,-2.5625,-9,8.1875,0
61700,-3.625,-7.9375,6.6875,0
61720,-3.3125,-7.75,6.3125,0
61740,-5.0625,-7.875,6.6875,0
61760,-5.6875,-8.4375,5.875,0
61780,-3.75,-8.25,5.5,0
61800,0.375,-7.75,5.0625,0
61820,0.3125,-9.625,6.125,0
61840,-2.5,-8.875,6.3125,0
61860,-2.3125,-7.125,4.4375,0
61880,-1.625,-8.625,6.4375,0
61900,-1.3125,-8.75,7.625,0
61920,-1.625,-8.125,6.8125,0
61940,0.375,-8.0625,6.375,0
61960,-1.5625,-9.6875,8,0
61980,-2.3125,-10,8,0
62000,-1.75,-9.3125,6.5625,0
62020,-1.3125,-10.8125,8.375,0
62040,-2.375,-11.875,9.6875,0
62060,-3,-9.8125,8.0625,0
62080,-0.5625,-9.75,7.6875,0
62100,0.1875,-10.4375,9.0625,0
62120,0,-9.125,8,0
62140,1.4375,-8.875,7.75,0
62160,2.4375,-9.3125,8.625,0
62180,0.9375,-9.3125,7.875,0
62200,0.8125,-9.625,8.5625,0
62220,0.25,-10.5,10.0625,0
62230,-1.8125,-9.1875,8.9375,0
62250,0.0625,-9.25,10.0625,0
62270,-0.6875,-11.5,12.1875,0
62290,-1.875,-12.125,11,0
62310,-1.4375,-12,10.375,0
62330,-4.0625,-12.625,10.75,0
62350,-2.625,-14,10.625,0
62370,-1.25,-14.25,10,0
62390,1.0625,-13.75,10,0
62410,-1.4375,-14.875,10.75,0
62430,-4.8125,-15,10,0
62450,-1.8125,-14.75,9.625,0
62470,-0.375,-15.75,9.375,0
62490,-1.25,-16.5,10.0625,0
62510,-1.875,-16.25,9.5,0
62530,-0.6875,-16.8125,8,0
62550,-0.3125,-18.1875,8.6875,0
62570,-2.0625,-18.9375,8.5,0
62590,-0.5,-17.9375,6.25,0
62610,0.6875,-18.5625,6.3125,0
62630,-0.1875,-19.875,7.1875,0
62650,-1.0625,-20.4375,6,0
62670,0.6875,-20.875,4.0625,0
62690,1.6875,-22.125,3.9375,0
62710,-4.625,-23.375,6.125,0
62730,-5.9375,-24.6875,3.4375,0
62750,2.6875,-25.5625,-3.125,0
62770,5.75,-26.3125,-3.375,0
62790,2.0625,-26.9375,-3.8125,0
62810,0.6875,-25.6875,-3.125,0
62830,0.6875,-23.75,-3.25,0
62850,2,-22.9375,-3.6875,0
62870,2.25,-23.25,-3,0
62890,1.875,-22.125,-3.8125,0
62910,1.75,-19.375,-4.6875,0
62930,1.5625,-18,-6.1875,0
62950,2.5625,-19,-4.875,0
62970,2.6875,-17.3125,-4.25,0
62990,3.3125,-16.5625,-4.4375,0
63010,2,-18.0625,-2.6875,0
63030,0.9375,-17.75,-3.875,0
63050,2.25,-17.875,-2.3125,0
63070,0.0625,-18.4375,0.5,0
63090,-1.8125,-18.3125,-1.5,0
63110,-2.3125,-18.1875,-1.625,0
63130,-2.125,-17.5,-0.625,0
63150,-2.75,-18.75,0.3125,0
63170,-6,-20.875,-0.1875,0
63190,-5,-20.9375,-1.1875,0
63210,-3.375,-22.25,0.1875,0
63230,-5,-20.1875,-0.875,0
63250,-7.9375,-18,-0.625,0
63270,-10.4375,-16,-0.1875,0
63290,-11.6875,-15.125,-0.125,0
63310,-8.25,-14.875,-2.5,0
63330,-4.4375,-15.8125,-2.5625,0
63350,-3.625,-14.6875,-1.4375,0
63370,-2.8125,-12.0625,-2.4375,0
63390,-4.875,-10.0625,-2.875,0
63410,-4.0625,-8.4375,-2.1875,0
63430,-2.4375,-8.0625,-1.9375,0
63450,-1.25,-6.5625,-0.6875,0
63470,-2.375,-4.375,-2.0625,0
63490,-5,-4.1875,-2.1875,0
63510,-3.5625,-3.5625,-2.875,0
63530,-2.4375,-3.25,-2.75,0
63550,-1.1875,-2.6875,-3.625,0
63570,-1.3125,-1.5,-3.8125,0
63590,-4.1875,-0.5625,-3.125,0
63610,-4.8125,-0.8125,-2.3125,0
63630,-3.75,-0.625,-2.3125,0
63650,-3.5,0.25,-3.625,0
63670,-6.5625,0.5,-4.25,0
63690,-6.9375,1.6875,-2.375,0
63710,-4.875,2.5,-2.875,0
63730,-5.625,2.5,-3.5,0
63750,-6.3125,2.625,-2.75,0
63770,-5.75,2.3125,-3.0625,0
63790,-4.25,2.5,-1.9375,0
63810,-4.25,4,-0.625,0
63830,-6.375,3.1875,-1.375,0
63850,-3.875,1.75,-2.25,0
63870,-4.0625,1.4375,0.1875,0
63890,-6.375,1.875,-1,0
63910,-7.125,2.625,-1.875,0
63930,-5.9375,4.1875,-1.375,0
63950,-5.5625,1.8125,-1.9375,0
63970,-4.8125,1,-2.875,0
63990,-5.6875,3.0625,-4.5,0
64010,-6.25,2.5,-4.4375,0
64030,-6.1875,1.5625,-4.375,0
64050,-4.25,1.6875,-4.625,0
64070,-5.1875,4.1875,-5.3125,0
64090,-6.5,4.625,-4.5,0
64110,-7,2.1875,-6.3125,0
64130,-5.5625,3.0625,-8.3125,0
64150,-7.875,5.375,-9.5625,0
64170,-7.625,4.625,-10.5,0
64180,-5.625,3.625,-10.5,0
64200,-5.375,4.875,-9.9375,0
64220,-6.625,5.5,-12,0
64240,-7.1875,4.25,-11.3125,0
64260,-7.625,3.375,-9.5,0
64280,-7.75,4.3125,-9.8125,0
64300,-7.6875,4.3125,-10.5625,0
64320,-6.875,4.125,-9.75,0
64340,-7.125,4.4375,-8.75,0
64360,-8.5,5.4375,-9.875,0
64380,-7.3125,5.4375,-9.5,0
64400,-6.0625,6.5625,-9.3125,0
64420,-7.125,6.9375,-9.6875,0
64440,-7.0625,6.875,-7.875,0
64460,-5.0625,7.875,-6.25,0
64480,-4.4375,6.6875,-10.625,0
64500,-4.3125,4.3125,-9.625,0
64520,-4.1875,4.3125,-9.5,0
64540,-5.375,5.1875,-12.25,0
64560,-5.0625,4.375,-12.375,0
64580,-5.4375,4.8125,-10.75,0
64600,-5.3125,5.5,-9.375,0
64620,-3.125,5.0625,-11.8125,0
64640,-4.4375,3.9375,-10.75,0
64660,-5,4.625,-9.8125,0
64680,-6,4,-8.6875,0
64700,-5,5.25,-10.8125,0
64720,-4.625,6.8125,-9.8125,0
64740,-4.75,8,-8.6875,0
64760,-5.375,7.125,-10,0
64780,-4.375,7.5,-10.3125,0
64800,-4.875,8.8125,-9.0625,0
64820,-5.0625,9.25,-7.9375,0
64840,-4.4375,7.3125,-10.125,0
64860,-3.4375,5.9375,-8.9375,0
64880,-4.3125,6.625,-8.25,0
64900,-4.8125,5.6875,-10.25,0
64920,-3.75,5.0625,-10.75,0
64940,-3.375,4.75,-9.5625,0
64960,-3.1875,5.9375,-9.5,0
64980,-4.6875,5.5625,-10.0625,0
65000,-3.875,6,-10.6875,0
65020,-3.25,6.9375,-9.75,0
65040,-3.875,5.8125,-9.625,0
65060,-4.375,5.875,-9.5,0
65080,-3.625,8.1875,-10.8125,0
65100,-4.5,8.9375,-12.125,0
65120,-3.6875,7.25,-10.9375,0
65140,-0.9375,6.25,-10.75,0
65160,-1.25,5.75,-10.625,0
65180,-6.0625,6.75,-9.8125,0
65200,-6.75,7.3125,-10.25,0
65220,-5.75,6.1875,-11.9375,0
65240,-5.5625,5.75,-11.625,0
65260,-2.8125,6.9375,-11.1875,0
65280,-3.625,7.875,-11.8125,0
65300,-6.9375,8.25,-11.625,0
65320,-5.8125,7.625,-10.4375,0
65340,-3.4375,7.625,-10.125,0
65360,-2.9375,7.625,-11.5,0
65380,-3.3125,7.625,-12,0
65400,-4.9375,6.8125,-12,0
65420,-1.9375,7.25,-11.875,0
65440,-1.3125,7.5625,-12.9375,0
65460,-3.9375,7.4375,-12.5625,0
65480,-3.9375,8.1875,-11.0625,0
65500,-4.25,8.375,-10.5625,0
65520,-4.25,8.8125,-10.1875,0
65540,-4.625,10.25,-9.375,0
65560,-3.125,11.375,-6.625,0
65580,-1.875,10.25,-6.6875,0
65600,-2.5625,8.625,-8.8125,0
65620,-2.75,7.9375,-7.8125,0
65640,-3.9375,7.125,-7.875,0
65660,-3.0625,5.3125,-8.125,0
65680,-0.375,5.9375,-7.5625,0
65700,-1.0625,7,-4.9375,0
65720,-1.625,5.8125,-3.75,0
65740,1.375,6.1875,-4.125,0
65760,0,6.375,-3.5,0
65780,-1.5,7.125,-3.6875,0
65800,-2.9375,6.3125,-4.375,0
65820,0.4375,5.9375,-5.5,0
65840,0.6875,6.0625,-5.5,0
65860,-0.625,5.9375,-6.625,0
65880,-0.375,5.3125,-8,0
65900,0.6875,6.25,-8.75,0
65920,0.3125,6.5625,-9,0
65940,0.6875,6.8125,-9.0625,0
65960,0.4375,7.9375,-9.25,0
65980,-0.3125,7.8125,-8.0625,0
66000,0.5625,7.8125,-8,0
66020,-0.8125,7.25,-8.5,0
66040,-0.875,8.1875,-7.75,0
66060,0.25,9.1875,-6.9375,0
66080,0.375,10.375,-7.6875,0
66100,2.5,10.5625,-9.0625,0
66120,3.3125,10.5625,-7.4375,0
66140,1.9375,11.4375,-7.0625,0
66160,2,12.1875,-7.3125,0
66180,1.75,12,-6.125,0
66200,1,12.1875,-5.125,0
66220,0.4375,14.1875,-5.25,0
66240,1,14.1875,-4.8125,0
66260,1.0625,14.25,-3.25,0
66280,1.3125,14.875,-2.8125,0
66300,0.5,15.1875,-3.6875,0
66320,0,15.5,-3.6875,0
66340,0.375,15.9375,-2.375,0
66360,0.0625,16.1875,-1.5625,0
66380,-0.0625,15.75,-2,0
66400,1.375,15.5,-0.875,0
66420,-0.125,15.4375,1.1875,0
66440,-0.875,15,-0.125,0
66460,0.25,15.0625,0.4375,0
66480,-0.3125,15.1875,2.0625,0
66500,-0.125,14.8125,1.9375,0
66520,-0.3125,16.75,1.5625,0
66540,-0.5,17.5,1.375,0
66560,-0.5625,15.3125,2.875,0
66580,0.5,12.6875,2.125,0
66600,2.125,11.6875,2.25,0
66620,1.4375,11.875,3.125,0
66640,0.25,12.5625,4.6875,0
66660,-0.25,13.0625,5.3125,0
66680,-0.8125,12.3125,6.875,0
66700,-1.25,11.5,7.375,0
66720,-1.875,11.5625,5.125,0
66740,-0.5,11.25,5.25,0
66760,-0.8125,10.625,6.9375,0
66780,-0.375,10.375,6.125,0
66800,1.875,11.625,5.1875,0
66820,1.875,12.75,5,0
66840,0.25,12.5625,4.875,0
66860,-0.875,14.4375,4.6875,0
66880,-0.6875,15.625,6.125,0
66900,1.75,13.5625,6.6875,0
66920,2.6875,11.6875,6.0625,0
66940,2.75,10.25,6.9375,0
66960,3.6875,9.3125,8.0625,0
66980,1.1875,11.8125,7.6875,0
67000,-0.375,13.0625,9.125,0
67020,1.9375,11.25,9.4375,0
67040,2.125,9.25,6.1875,0
67060,5.6875,9.3125,5.0625,0
67080,6.9375,8.6875,6.0625,0
67100,3,9.25,5.375,0
67120,1,8.875,5.875,0
67140,1.9375,7.1875,7.125,0
67160,1.75,6,6.0625,0
67180,1.6875,4.625,4.9375,0
67200,3,4,6.6875,0
67220,0.125,3.4375,7.625,0
67240,-3.25,4.5,7.6875,0
67260,-4.75,4.6875,9.6875,0
67280,-5,5,10.5,0
67300,-5.3125,4.5625,9.3125,0
67320,-5.625,4.5625,9.25,0
67340,-4.75,3.4375,11.5625,0
67360,-5.5,2.75,10.125,0
67380,-6.3125,0.625,7.625,0
67400,-5.4375,-0.5625,7.9375,0
67420,-3.8125,-0.125,6.4375,0
67440,-7,0.75,3.875,0
67460,-8.0625,0.25,6.0625,0
67480,-5.25,-1.1875,9.625,0
67500,-0.4375,0.8125,9.375,0
67520,-0.6875,2.125,10.75,0
67540,-4.875,1.375,14.375,0
67550,-3.625,2.75,14.8125,0
67570,-0.375,2.3125,13.625,0
67590,0.375,1.125,13.8125,0
67610,-2.125,1.5625,12.6875,0
67630,-3.5625,1.875,10.5,0
67650,-0.625,1.375,8.5625,0
67670,2.125,-1.1875,7.75,0
67690,7.625,-3.25,7.3125,0
67710,7.875,-2.0625,6.0625,0
67730,0.0625,-1.9375,6.5625,0
67750,-2.875,-2.4375,7.875,0
67770,0.6875,-2.875,8.3125,0
67790,3.5,-4.375,9.125,0
67810,0.125,-4.9375,9.6875,0
67830,-2.9375,-4,10,0
67850,-3.9375,-5.0625,10.9375,0
67870,-3.25,-5.8125,11.125,0
67890,2.1875,-6.25,10.25,0
67910,3.4375,-6.8125,10.0625,0
67930,-1.3125,-7.9375,9.625,0
67950,-2.8125,-7.0625,8.6875,0
67970,0.1875,-6.9375,8.6875,0
67990,2.125,-7.5,9.5,0
68010,-2.125,-7.0625,10.375,0
68030,-5,-5,10.5,0
68050,-5.625,-4.5,13,0
68070,-4.75,-5.1875,15.1875,0
68090,-2.75,-4.8125,13.1875,0
68110,-2.75,-3.125,10.6875,0
68130,-3.625,-2.875,10.8125,0
68150,-5.375,-2.4375,9.0625,0
68170,-4.625,-1.6875,7.625,0
68190,-0.625,-2.625,8.25,0
68210,0.6875,-1.0625,7.6875,0
68230,-1.1875,1.4375,6.4375,0
68250,0.6875,1.3125,8.5,0
68270,-2.1875,1.5,9.3125,0
68290,-5.0625,1.75,7.625,0
68310,-0.1875,0.1875,6.4375,0
68330,-0.6875,-1.875,7.1875,0
68350,-3.125,-2.625,5.75,0
68370,-1.25,-4.125,5.25,0
68390,-0.1875,-5.5,6.0625,0
68410,1.9375,-5.875,7.4375,0
68430,1.75,-5.1875,5.8125,0
68450,-0.5625,-5.25,6.5625,0
68470,-0.9375,-4.1875,7.375,0
68490,1.3125,-5.6875,7.3125,0
68510,2.25,-6.125,6.75,0
68530,2.0625,-4.625,2.4375,0
68550,2.375,-7.6875,2.25,0
68570,1.0625,-10.4375,4.5625,0
68590,0.75,-10,2.875,0
68610,1.3125,-9.625,2.4375,0
68630,-0.3125,-10,5.25,0
68650,-6.25,-7.5,5.5,0
68670,-5.6875,-6.0625,5.0625,0
68690,-1.75,-7.125,6.0625,0
68710,-0.625,-4.6875,3.8125,0
68730,-1.125,-4.1875,4.25,0
68750,-1.3125,-5.0625,5.8125,0
68770,-2.25,-2.875,4,0
68790,-1.6875,-2.625,4.0625,0
68810,-2.4375,-4.5625,7.4375,0
68830,-4.25,-3.6875,6.3125,0
68850,-2.625,-2,4.875,0
68870,-2.1875,-3.875,6.875,0
68890,-1.875,-3.125,6.5,0
68910,-2.8125,-2.375,5.8125,0
68930,-0.25,-2.625,5.3125,0
68950,0.3125,-2.5625,4.75,0
68970,-1,-4,6.1875,0
68990,-2,-3.9375,7,0
69010,-1.6875,-3.1875,6.25,0
69030,0.0625,-4.1875,6.4375,0
69050,-1,-5.75,7.5,0
69070,-2.8125,-3.75,6.4375,0
69090,-2.75,-3.6875,6.3125,0
69110,0,-5.25,6.9375,0
69130,-1.4375,-6.625,6.6875,0
69150,0.3125,-6.125,5.3125,0
69170,2,-6.0625,4.75,0
69190,-0.875,-8.6875,5.125,0
69210,0.375,-9,4.1875,0
69230,0.75,-8.25,3.375,0
69250,0.5,-9.25,3.375,0
69270,-1.5,-11.125,4.1875,0
69290,-0.125,-13.75,5.1875,0
69310,4.4375,-13.9375,4.625,0
69330,1.4375,-15.125,3.25,0
69340,-5.5,-17.1875,3.8125,0
69370,-4.9375,-17.125,4.0625,0
69390,-2.6875,-17.5,2.25,0
69410,-1.5625,-18.6875,1.875,0
69430,-2.625,-18.0625,0.25,0
69450,-2.6875,-17.4375,0.0625,0
69470,-3,-17.125,0.75,0
69490,-4.75,-17.6875,1.375,0
69500,-1.25,-15.6875,-0.75,0
69520,0.9375,-15.5625,-2.875,0
69540,-2.25,-16.25,-0.8125,0
69560,-6.625,-16.9375,3.625,0
69580,-6.25,-15.3125,3.0625,0
69600,-4,-14.5625,2.625,0
69620,-1.4375,-14.8125,2.625,0
69640,-3.375,-14.875,4.25,0
69660,-6.1875,-13.5,3.625,0
69680,-3.875,-12.75,2,0
69700,-2.0625,-12.4375,1.9375,0
69720,-1.875,-12.6875,1.4375,0
69740,-0.875,-12.3125,1.375,0
69760,0.375,-12.4375,1.375,0
69780,1.1875,-12.4375,2.125,0
69800,-2.8125,-12.875,3.125,0
69820,-2.375,-12.0625,2.9375,0
69840,-2.125,-12.5625,3.3125,0
69860,-2.75,-13.375,4.875,0
69880,-4.9375,-12.9375,4.75,0
69900,-5.625,-11.875,2.6875,0
69920,-3.3125,-11.375,2.625,0
69940,-3.1875,-11.6875,1.625,0
69960,-4.125,-12.375,0.9375,0
69980,-1.9375,-11.25,-0.6875,0
70000,-0.25,-10.375,-1.375,0
70020,-2.5625,-10.8125,-0.75,0
70040,-5.125,-11.3125,-1.1875,0
70060,-1.75,-11.5,-0.3125,0
70080,-0.6875,-11.5625,-0.625,0
70100,-1.5625,-11.875,-1.625,0
70120,-1.625,-13.25,-2.0625,0
70140,-1.625,-14.125,-1.6875,0
70160,-2.0625,-13.875,-1.1875,0
70180,-3.4375,-13.25,-2.6875,0
70200,-1,-12.8125,-4.4375,0
70220,0.6875,-13,-4.125,0
70240,3.3125,-12.5,-6.25,0
70260,2.1875,-13,-7.625,0
70280,2.1875,-13.5,-7.4375,0
70300,1.8125,-14,-7.375,0
70320,1.625,-15.5625,-6.625,0
70340,1.125,-17.75,-4.5,0
70360,0.8125,-18.375,-3.125,0
70380,-1.8125,-18.25,-3.5625,0
70400,-3.4375,-18.8125,-3.25,0
70420,-3.125,-19.6875,-1.8125,0
70440,-2.6875,-21.0625,-0.3125,0
70460,-2.5625,-20.125,-1.6875,0
70480,-3.5625,-18.1875,-2.0625,0
70500,-3.625,-17.9375,0.0625,0
70520,-3.8125,-17.375,-1,0
70540,-1.875,-17.5625,-1.5625,0
70560,0.9375,-17.375,-2.625,0
70580,-0.5,-17.3125,-2.5,0
70600,-1.625,-16.25,-1.9375,0
70620,-1.25,-14.625,-3.25,0
70640,-3.0625,-15.3125,-2.8125,0
70660,-2.75,-13.4375,-1.75,0
70680,-2.375,-11.4375,-2.25,0
70700,-1.75,-11.6875,-2.125,0
70720,-1.9375,-11.5625,-0.25,0
70740,-1.5,-10.875,-0.5,0
70760,-1.375,-11.1875,0.1875,0
70780,-3.0625,-10.125,1.0625,0
70800,-4.125,-9.8125,0.6875,0
70820,-2.5625,-10.3125,0.75,0
70840,-2.125,-9.5,0.1875,0
70860,-3.0625,-8.125,0.375,0
70880,-3.8125,-6.625,1.375,0
70900,-3.75,-6.5625,0.875,0
70920,-0.125,-5.9375,1.625,0
70940,-0.625,-4.6875,-0.5,0
70960,-3.0625,-4.625,0.5,0
70980,-2.75,-5.125,0.3125,0
71000,-0.3125,-4.75,1.25,0
71020,-0.6875,-3.625,2.375,0
71040,-3.625,-3,3.6875,0
71060,-5.875,-4.6875,2.8125,0
71080,-4.1875,-5.3125,2.875,0
71100,-3.625,-5.5625,2.875,0
71120,-5.8125,-5.4375,-0.5625,0
71140,-8.4375,-6.25,-2.4375,0
71160,-8.5625,-5.9375,-3,0
71180,-7.8125,-5.625,-5.125,0
71200,-6,-6,-4.6875,0
71220,-3.6875,-4.625,-4.375,0
71240,-3.625,-3.9375,-6.1875,0
71260,-5.875,-4,-4.9375,0
71280,-6.1875,-2.3125,-3.4375,0
71300,-5.6875,-2.125,-3.6875,0
71320,-3.125,-2.6875,-3.9375,0
71340,-3.375,-3.875,-4.0625,0
71360,-7.25,-4.75,-3.75,0
71380,-6.875,-2.9375,-3,0
71400,-7.5625,-2.4375,-3,0
71420,-6.3125,-3.9375,-2.9375,0
71440,-6.6875,-4.125,-2.4375,0
71460,-5.0625,-2.25,-4.125,0
71480,-6,-2.6875,-2.6875,0
71500,-7.875,-3.125,-2.9375,0
71520,-4.5,-3.25,-4.375,0
71540,-3.875,-2.0625,-4.625,0
71560,-5.6875,-1.9375,-3.8125,0
71580,-4.9375,-3.25,-4.6875,0
71600,-6.0625,-3.5,-4.3125,0
71620,-6.625,-2.4375,-4.6875,0
71640,-8.1875,0,-4.9375,0
71660,-7.125,1.4375,-5.375,0
71680,-6,0.8125,-3.6875,0
71700,-6.6875,0.5,-4.8125,0
71720,-7.125,-0.25,-6.875,0
71740,-9.0625,0.9375,-5.1875,0
71760,-8.625,1.875,-4.6875,0
71780,-8.875,0.9375,-5.6875,0
71800,-8,0.625,-6,0
71820,-8.1875,2.4375,-5.4375,0
71840,-10.9375,2.3125,-6.9375,0
71860,-9.375,1.5,-7.1875,0
71880,-9.1875,3.25,-7,0
71900,-11.5,4.5625,-6.9375,0
71920,-12.0625,5.4375,-5.125,0
71940,-9.375,5.75,-6.625,0
71960,-7,5.4375,-7.3125,0
71980,-8.5,6.0625,-8.875,0
72000,-11.0625,6.75,-9.4375,0
72020,-9.75,7,-9.5625,0
72040,-7.75,7.0625,-9.625,0
72060,-6.8125,7.375,-8.3125,0
72080,-6.3125,8.375,-7.125,0
72100,-7.9375,8.125,-7.625,0
72120,-7.9375,8.3125,-6.625,0
72140,-5.6875,9.25,-4,0
72160,-5.6875,9.9375,-4.5625,0
72180,-5.9375,8.625,-5.4375,0
72200,-6.5625,8.125,-6.0625,0
72220,-6.125,9.3125,-4.8125,0
72240,-7.1875,10,-5.5625,0
72260,-8.125,9.8125,-6.8125,0
72280,-6.375,10.125,-6.375,0
72300,-5.5,10,-7,0
72320,-6.4375,8.75,-7.625,0
72340,-6.6875,8.8125,-9,0
72360,-5.5,8.6875,-9.25,0
72380,-4.875,7.9375,-9.625,0
72400,-5.9375,5.9375,-9.6875,0
72420,-7.75,5.6875,-8.4375,0
72440,-7.625,6.9375,-8.8125,0
72460,-6.8125,6.5625,-10.0625,0
72480,-7.125,5,-9.1875,0
72500,-7.875,5.25,-8.1875,0
72520,-9.3125,6.25,-10.4375,0
72540,-8.625,6.3125,-11.25,0
72560,-6.1875,5.9375,-10.6875,0
72580,-6.5625,7.1875,-12.8125,0
72600,-6.6875,7.75,-13,0
72620,-6.875,8.3125,-11.5625,0
72640,-5.75,7.625,-9.5625,0
72660,-4.25,8,-11.5625,0
72680,-3.5,6.4375,-11.4375,0
72700,-5.4375,6.875,-10.375,0
72720,-8.125,6.5625,-10.625,0
72740,-8.6875,7.875,-10.875,0
72760,-7.1875,8.4375,-10.5625,0
72780,-5.8125,7.75,-9.6875,0
72800,-5.6875,9.0625,-9.8125,0
72820,-6.875,10.625,-9.4375,0
72840,-7.9375,10.9375,-8.9375,0
72860,-7.3125,10.625,-9.4375,0
72870,-7.0625,11.8125,-10.25,0
72890,-6.3125,12.6875,-8.75,0
72910,-6.4375,12.8125,-7.0625,0
72930,-6.8125,12.75,-8.25,0
72950,-5.375,13.75,-8.4375,0
72970,-6.25,13.5,-8.1875,0
72990,-8.625,13.25,-9.0625,0
73010,-8.375,13.4375,-8.4375,0
73030,-8.8125,15.3125,-8.125,0
73050,-11.875,18.3125,-8.1875,0
73070,-13.875,18.3125,-4.3125,0
73090,-3.3125,17.5,-3.6875,0
73110,-0.0625,18.25,-5.375,0
73130,-5.5,19.875,-6.5,0
73150,-8.875,20.4375,-4,0
73170,-8.25,20.625,-3,0
73190,-6.5625,20.0625,-4.75,0
73210,-2.625,19,-4.875,0
73230,-2.25,20.0625,-4.8125,0
73250,-4.5625,19.625,-4.375,0
73270,-4.875,18.625,-3.125,0
73290,-1.625,18.25,-2.6875,0
73310,-1.125,17.3125,-1.5625,0
73330,-3.4375,16.375,-1.0625,0
73350,-0.75,15.5625,-1.125,0
73370,-0.875,15.875,-1.375,0
73390,-2.0625,15.1875,-2.8125,0
73410,-0.5625,15.25,-2.5,0
73430,-0.625,15.9375,-2.5,0
73450,-0.6875,15.9375,-2.125,0
73470,1.375,16.6875,-2.3125,0
73490,0.9375,15.6875,-2,0
73510,-1.5,15.5,-1.4375,0
73530,-0.5,17.75,-1.875,0
73550,-2.375,18.75,-3,0
73570,-5.125,17.5,-2.875,0
73590,-3.25,15.1875,-2.75,0
73610,0.25,13.9375,-1.9375,0
73630,1.3125,13.0625,-0.4375,0
73650,-0.5625,13,0.125,0
73670,-3.375,12.625,0.625,0
73690,-4.6875,12.5625,-0.0625,0
73710,-2.875,12.25,-0.875,0
73730,-0.5625,13.125,-1.75,0
73750,0.1875,12.9375,-0.875,0
73770,0.3125,14.3125,-0.9375,0
73790,-0.3125,14.375,-1.25,0
73810,1.5625,13.4375,1.1875,0
73830,1.6875,12.6875,1.75,0
73850,0.8125,13.1875,1.8125,0
73870,0.375,13.0625,2.3125,0
73890,-0.875,11.6875,3.1875,0
73910,-0.9375,11.25,1.8125,0
73930,1.375,13.0625,0.3125,0
73950,2.625,13.8125,0.125,0
73970,0.625,14.5625,0.875,0
73990,1.4375,13.9375,1.5625,0
74010,6.0625,14.3125,1.625,0
74030,9.125,14.9375,2.1875,0
74050,5.9375,14.6875,0.9375,0
74070,3.8125,13.5625,1.75,0
74090,3.125,13.9375,0.375,0
74110,3.5,13.75,-1.625,0
74130,3.9375,12.9375,-1.9375,0
74150,4.5625,13,-3.0625,0
74170,3.0625,12.375,-2.625,0
74190,1.25,12.125,-0.125,0
74210,2.375,11.1875,0.3125,0
74230,2.1875,9.8125,1.4375,0
74250,1.5625,9.625,2.875,0
74270,-0.625,11.25,2,0
74290,-0.875,12.6875,0.0625,0
74310,-1.5625,11.375,2.6875,0
74330,0.8125,12.1875,1.9375,0
74350,1.4375,13.0625,0.25,0
74370,0.75,12.75,2.3125,0
74390,0.125,12.375,2.6875,0
74410,1.5,11.5,1.8125,0
74430,2.75,10.3125,2.4375,0
74450,3.625,9.375,2.9375,0
74470,-0.5,9.9375,3.9375,0
74490,-2.375,10.25,4.375,0
74510,-2.8125,8.375,3.625,0
74530,-3.4375,6.9375,4.8125,0
74550,-3.8125,7.4375,3,0
74570,-2.625,8.375,2.6875,0
74590,-3.75,8.875,3.0625,0
74610,-4.125,9.8125,2.6875,0
74630,-1.9375,10.75,3,0
74650,-1,12.3125,4.1875,0
74670,-3.25,12.625,6.25,0
74690,-5.75,11.875,7.625,0
74710,-4.0625,10.875,7.1875,0
74730,-0.4375,9.6875,6.125,0
74750,2.0625,8,6.625,0
74770,-1.6875,9.3125,7.25,0
74790,-3.8125,9.75,5.625,0
74810,-2.375,8.5625,7.8125,0
74820,-8.9375,8,9.9375,0
74840,-9.1875,9.25,8.8125,0
74860,-0.0625,8.875,7.4375,0
74880,0.6875,4.8125,10.5625,0
74900,-9.6875,6.125,7.125,0
74920,-6.875,4.5625,2.625,0
74940,-2.0625,0.1875,3.6875,0
74960,0.9375,-2.1875,5.0625,0
74980,2.1875,-4.25,4.75,0
75000,-1.3125,-4.6875,7.375,0
75020,-3.8125,-0.25,8.25,0
75040,-3.6875,1.125,8.0625,0
75060,-1.875,-3.25,11.875,0
75080,-0.75,-0.1875,9.4375,0
75100,1.125,2.3125,7.5625,0
75120,0.625,0.0625,10.0625,0
75140,-2.875,0.4375,10.875,0
75160,-6.25,1.8125,9.875,0
75180,-0.5,0.875,9.0625,0
75200,-0.25,0.0625,8.5,0
75220,-1.8125,1.875,6.8125,0
75240,2.1875,-0.3125,8.4375,0
75260,1.375,-1.0625,9.875,0
75280,-3,1.125,8.75,0
75300,-4,1.1875,9.75,0
75320,-4.9375,-0.9375,12.25,0
75340,-7.6875,-1.4375,13.375,0
75360,-6.0625,-0.1875,12,0
75380,0.75,-0.5,10.875,0
75400,-0.75,-2.875,12.3125,0
75420,-3.75,-1.3125,12.6875,0
75440,-2.4375,0.625,9.875,0
75460,0.6875,-1.9375,10.1875,0
75480,1.625,-1.3125,10.3125,0
75500,3.4375,-1.0625,8.75,0
75520,2.6875,-1.5625,8.5,0
75540,-2,-1.875,7.9375,0
75560,1.0625,-2.375,9.3125,0
75580,2.375,-4.625,11.4375,0
75600,0.6875,-5.9375,11.0625,0
75620,-1.875,-3.9375,7.25,0
75640,-4.3125,-6.3125,5.125,0
75660,-4.1875,-8.625,7.9375,0
75680,-6.3125,-7.0625,5.375,0
75700,-0.25,-6.4375,3.375,0
75720,5,-8,6.1875,0
75740,0.6875,-6.5,6.25,0
75760,-5.0625,-5.9375,6.25,0
75780,-5.25,-5.25,5.9375,0
75800,-0.375,-5.875,7.125,0
75820,2.625,-6.0625,6.4375,0
75840,6.75,-5.6875,4.9375,0
75860,3.625,-6.75,6.3125,0
75880,-0.6875,-5.4375,6.8125,0
75900,-2.1875,-5.375,6.5625,0
75920,0.5625,-6.75,7.125,0
75940,-1.125,-7.0625,6.8125,0
75960,1.6875,-7.1875,7.1875,0
75980,0.75,-8.1875,7.375,0
76000,-1.3125,-9.8125,6.75,0
76020,-2.9375,-9.6875,7.8125,0
76040,-5.75,-8.75,9.25,0
76060,-3.5625,-10.375,8.5,0
76080,2.0625,-11.8125,7.375,0
76100,2.3125,-10.375,5.8125,0
76120,-3.1875,-8.875,6.0625,0
76140,-5.5625,-10.375,7.1875,0
76160,-2.0625,-11.75,6.3125,0
76180,0.625,-11.5625,6.5,0
76200,-3.0625,-9.625,7.125,0
76220,-7.375,-10.3125,7.3125,0
76240,-4.25,-12,7.25,0
76260,-4.375,-11.8125,8.0625,0
76280,-6.3125,-10.4375,9.0625,0
76300,-5.625,-10.5625,8.5625,0
76320,-5.375,-10.5,8.25,0
76340,-4.875,-10.5625,8.5625,0
76360,-5.1875,-10.6875,9.25,0
76380,-4.3125,-11,9.25,0
76400,-4.0625,-11.125,8.375,0
76420,-6.5625,-11.5,7.4375,0
76440,-7.6875,-12.125,8.8125,0
76460,-10.375,-11.1875,8.8125,0
76480,-4.8125,-10.9375,8.3125,0
76500,-0.0625,-10.5,6.3125,0
76520,-0.375,-11.0625,5.625,0
76540,-3.375,-9.9375,5.375,0
76560,-3.5,-9.625,5.875,0
76580,-1.875,-10.25,4.5625,0
76600,-0.0625,-11.25,3.375,0
76620,-0.875,-10.8125,2.375,0
76640,-2.375,-11.9375,2.875,0
76660,-4.0625,-12.375,3.25,0
76680,-3.5625,-11.8125,2.625,0
76700,0.1875,-12.3125,1.375,0
76720,2.8125,-13,0.3125,0
76740,2.125,-12.3125,-1.3125,0
76760,2.625,-12.25,-2,0
76780,1.5,-13,-1.6875,0
76800,2.6875,-12.5625,-2.0625,0
76820,5.6875,-13.25,-1.375,0
76840,3.5625,-14.5625,-0.5,0
76860,-0.6875,-14.9375,-0.3125,0
76880,-1.875,-15.75,-0.625,0
76900,-0.1875,-18.4375,-0.875,0
76920,1.6875,-20.0625,-0.9375,0
76940,-1.5,-19.4375,-1.8125,0
76960,-1.8125,-19.6875,-3.1875,0
76980,-0.625,-22,-2.875,0
77000,1.5625,-22.4375,-3.5,0
77020,3.875,-23,-3.625,0
77040,3.25,-23,-4.9375,0
77060,0.375,-23.875,-5.875,0
77080,0.5625,-23.6875,-6.3125,0
77100,1.375,-25.4375,-5.4375,0
77120,1.125,-26.125,-4.375,0
77140,0.875,-25.6875,-4.5625,0
77160,-0.1875,-25.8125,-5.75,0
77180,-1.25,-26.875,-4.4375,0
77200,-5.625,-26.625,-2.625,0
77220,-5.1875,-25.75,-4.3125,0
77240,-1.8125,-25.9375,-4.4375,0
77260,-3.625,-27.125,-1.6875,0
77280,-5.4375,-25.6875,-1.5625,0
77300,-5.3125,-24.9375,-1.875,0
77320,-2.625,-26,-1.9375,0
77340,-8.5625,-25.625,-1.6875,0
77360,-10.0625,-25.625,-1.0625,0
77380,-6.5,-25.1875,0.875,0
77400,-5.8125,-24.0625,0.5,0
77420,-5.4375,-23.75,-0.8125,0
77440,-5.25,-22.3125,-0.3125,0
77460,-5.4375,-19.75,-2.5,0
77480,-4.375,-18.5,-5.5625,0
77500,-4.9375,-19.3125,-5.3125,0
77520,0.25,-18.75,-4.4375,0
77540,0.75,-18.5625,-5.1875,0
77560,-3.125,-18.375,-3,0
77580,-5.5625,-17.25,-2.9375,0
77600,-5.9375,-16.125,-4.5,0
77620,-5.9375,-16.4375,-5.4375,0
77640,-4.125,-15.8125,-4.375,0
77660,-2.375,-16.125,-6.9375,0
77680,-1.625,-16.8125,-8.5,0
77700,-1.4375,-16.75,-8.1875,0
77720,-4.5625,-16.6875,-8.375,0
77740,-7.375,-15.875,-7.8125,0
77760,-7.25,-15.5625,-7,0
77780,-4.8125,-15.875,-9.4375,0
77800,-4.5,-15,-10,0
77820,-6.0625,-11.0625,-10.4375,0
77840,-5.6875,-8.625,-10.8125,0
77860,-5.5,-7.875,-10.25,0
77880,-2.625,-6.3125,-12.125,0
77900,1.0625,-4.25,-14.625,0
77920,-1.4375,-2,-16.5625,0
77940,-5.4375,0.625,-16.625,0
77960,-5.0625,1.375,-14.75,0
77980,-1.9375,2.5625,-15.875,0
78000,-1.125,3.875,-16,0
78020,-4.125,3.5625,-10.25,0
78040,-0.5,2.125,-9.5625,0
78060,0.3125,0.3125,-13.75,0
78080,-4.5,-0.125,-12.9375,0
78100,-8.375,-1.5625,-12.8125,0
78120,-8.875,-2.0625,-12.375,0
78140,-8.875,0.0625,-14.25,0
78160,-5.8125,2.0625,-16.5,0
78170,-6.1875,3.4375,-14.75,0
78190,-3.5,3.6875,-6.875,1001
78210,1.75,3.75,-5.5625,0
78230,3.5625,3,-9,0
78250,-0.625,1.5,-8.375,0
78270,-3.9375,0.5625,-5.6875,0
78290,-5.3125,2.25,-4.75,0
78310,-8.125,4,-5.75,0
78330,-6,2.625,-2.5,0
78350,-1.75,1.375,-1,0
78370,1.9375,1.625,-3.125,0
78390,1.5625,2.8125,-4.5,0
78410,-1.625,4.4375,-4.5,0
78430,-1.9375,5.1875,-4.0625,0
78450,-1.4375,6.125,-3.125,0
78470,3.0625,7.5,-0.5,0
78490,4.4375,8.9375,1.3125,0
78510,5.875,8.8125,1.25,0
78530,6,7.8125,3.5625,0
78550,4.3125,9.875,6.5625,0
78570,3.1875,12.25,7.6875,0
78590,2.25,15.0625,12,0
78610,1.6875,19.4375,16.25,0
78630,0.8125,17.6875,19.375,0
78650,3,22.25,22,0
78670,6.6875,24.5,15,0
78690,4.8125,20,9.875,0
78710,-3.4375,17.375,8.125,0
78730,-7.8125,18.4375,3.4375,0
78750,-8.4375,16,-0.5625,0
78770,-10.4375,11.8125,-4.9375,0
78790,-10.1875,9.0625,-9.25,0
78810,-8.125,9.5625,-8.625,0
78830,-3.3125,14.25,-0.75,0
78850,-0.1875,22.6875,7.1875,0
78870,0.25,31.25,15.3125,0
78890,-0.0625,40.9375,19.0625,0
78910,2,48.4375,25.0625,0
78930,10.0625,52.1875,27.4375,0
78950,18.25,54.75,32.3125,0
78970,19.0625,61.25,35.5,0
78990,19.6875,67.1875,33.0625,0
79010,22.8125,72.0625,33.25,0
79030,29.5625,71.5,33.25,0
79050,45.4375,64.6875,38,0
79070,44.625,62.625,37.3125,0
79090,43.0625,63.6875,36.5625,0
79110,42.0625,62.1875,43.625,0
79130,49.25,58.25,56.0625,0
79150,47.3125,51.875,61.5625,0
79170,45.625,49.25,59.6875,0
79190,49.4375,44.9375,64.1875,0
79210,45.4375,33.75,70.375,0
79230,35.1875,21.75,71.0625,0
79250,27.5625,16.4375,68.8125,0
79270,22.25,12.4375,76,0
79290,14.6875,9.5,77.8125,0
79310,6.125,4.5,73.9375,0
79330,-0.0625,-1.6875,69.75,0
79350,0.4375,-5.1875,67.25,0
79370,2.875,-8.6875,56.25,0
79390,0.5625,-11.875,48.1875,0
79410,-1.9375,-12.8125,45.3125,0
79430,-4.25,-13.625,36.6875,0
79450,-2.625,-20.9375,31.75,0
79470,2.25,-24.25,29.3125,0
79490,4.75,-21.875,24.625,0
79510,3.625,-21.5625,19.8125,0
79530,2.1875,-22.5625,18.75,0
79550,0.8125,-22.375,16.625,0
79570,0.6875,-21.9375,11.3125,0
79590,1.125,-22.25,12.1875,0
79610,3.75,-19.4375,12.125,0
79630,2.0625,-17.6875,9.9375,0
79650,0.1875,-16.0625,12.3125,0
79670,-4,-16.625,16.5,0
79690,-6.3125,-13.8125,13.4375,0
79710,-3.875,-11.5,11.3125,0
79730,-7.0625,-11.1875,12.375,1000
79750,-8.9375,-8.9375,11.0625,0
79770,-6.375,-7,9.4375,0
79790,-3.375,-4.5,8.3125,0
79810,-0.125,-4.875,7.125,0
79830,0.4375,-4.8125,6.875,0
79850,0,-4.25,6.5625,0
79870,-0.1875,-5.5625,8,0
79890,-0.75,-5.6875,5.6875,0
79910,2.625,-5.125,4.0625,0
79930,1.75,-5.6875,4.5625,0
79950,0.5,-7.125,5.9375,0
79970,-2.5,-6.5625,4.375,0
79990,-2.125,-6.0625,2.375,0
80010,-0.3125,-7.75,0.625,0
80030,1,-9.9375,0.125,0
80050,4.0625,-9.6875,-1,0
80070,3.1875,-9.9375,-2.25,0
80090,0.3125,-10.25,-3.5625,0
80110,0.5625,-9.9375,-4.1875,0
80130,1,-11.125,-5.0625,0
80150,3.1875,-12.8125,-6.1875,0
80160,2.375,-13.375,-7.9375,0
80180,1.75,-13.5,-7.375,0
80200,1,-13.375,-6.1875,0
80220,-1.75,-12.375,-6.875,0
80240,-1.6875,-12.1875,-5.3125,0
80260,-1.1875,-11,-4,0
80280,-2.875,-7.9375,-3.4375,0
80300,-3.5,-6.125,-3.9375,0
80320,-0.875,-4.375,-4.4375,0
80340,-0.875,-4.3125,-2.9375,0
80360,-3.625,-3.375,-2.875,0
80380,-2.625,-5.0625,-4.25,0
80400,1.8125,-6.375,-4.1875,0
80420,2.1875,-8.8125,-4.5625,0
80440,1.8125,-10.6875,-2.6875,0
80460,2.3125,-10,-1.6875,0
80480,2.8125,-9.375,-4.375,0
80500,3.0625,-11.0625,-3.0625,0
80520,4.5625,-11.75,-1,0
80540,5.25,-12.6875,-3.5,0
80560,5.0625,-14.125,-5.125,0
80580,3.6875,-13.75,-4.6875,0
80600,1.9375,-14,-3.75,0
80620,2.25,-16.1875,-3.125,0
80640,3.9375,-16.3125,-2.75,0
80660,2.1875,-14,-4,0
80680,-1.6875,-12.3125,-3.5,0
80700,-2.5,-14.25,-1.0625,0
80720,2.0625,-14.5,-3.5,0
80740,2.8125,-14.4375,-3.875,0
80760,0.1875,-12.4375,-4.0625,0
80780,-2.0625,-12.5,-3.1875,0
80800,-2.5625,-12.9375,-3.25,0
80820,-1.9375,-11.5625,-2.0625,0
80840,-2.4375,-10.3125,-3.125,0
80860,-3.5,-11.5,-4.5625,0
80880,-0.0625,-13.0625,-4.3125,0
80900,1.75,-11.125,-5.0625,0
80920,-2.625,-8.75,-3.625,0
80940,-4.1875,-6.5,-2.6875,0
80960,-3.25,-4.9375,-4,0
80980,-0.9375,-4.5,-3.3125,0
81000,-0.375,-3.875,-3.4375,0
81020,-2.5625,-2.75,-4.1875,0
81040,-5,-0.4375,-2.5625,0
81060,-5.4375,2,-2,0
81080,-4.875,1.9375,-1.5625,0
81100,-3.0625,2.875,-2.9375,0
81120,-2.1875,4.0625,-5.625,0
81140,-5.0625,2.625,-4.5625,0
81160,-2.375,1.6875,-5.4375,0
81180,0.1875,2.1875,-8,0
81200,-2.4375,1.75,-8.5625,0
81220,-4.6875,2.875,-6.75,0
81240,-5.75,5.3125,-5.875,0
81260,-6.125,3.9375,-5.125,0
81280,-4.125,2.9375,-6,0
81300,-5.625,4.875,-7.3125,0
81320,-8.125,6.125,-7.75,0
81340,-7.5,5.5,-7.5625,0
81360,-3,5.8125,-10.6875,0
81380,-2.6875,5.0625,-12.1875,0
81400,-2.3125,5.5,-12.3125,0
81420,-3.6875,6.0625,-13.25,0
81440,-4.125,5.8125,-13.6875,0
81460,-3.6875,6.3125,-13.875,0
81480,-2.375,7.8125,-13.6875,0
81500,-0.9375,8.3125,-13.125,0
81520,-0.6875,8.625,-12.625,0
81540,-1.4375,9.5,-12.6875,0
81560,-2.8125,9.9375,-13.4375,0
81580,-0.9375,9.9375,-13.625,0
81600,3.375,11.125,-14.4375,0
81620,3.8125,9.6875,-15.75,0
81640,1.1875,8.625,-15.375,0
81660,0.625,9.8125,-15.25,0
81680,2,10.875,-16.6875,0
81700,2,10.9375,-15.6875,0
81720,1.9375,10.5,-13.75,0
81740,2.375,11.8125,-14.8125,0
81760,1.8125,9.5625,-15.125,0
81780,2.0625,6.875,-13.8125,0
81800,-0.25,7.5625,-15,0
81820,-0.75,7.625,-14.8125,0
81840,-1.6875,7.125,-13.875,0
81860,-1.5625,7,-14.5625,0
81880,-1.3125,8.6875,-14.5,0
81900,-3.375,10.3125,-12.125,0
81920,-4.8125,6.375,-14.4375,0
81940,-2.125,-2.25,-18.4375,0
81960,-0.125,-6.4375,-19.3125,0
81980,-7.3125,-7.125,-21.375,0
82000,-12.4375,-8.0625,-21.4375,0
82020,-9.4375,-7.6875,-20,0
82040,-7.4375,-4.75,-19.6875,0
82060,-5.375,-4.125,-19.5625,0
82080,-1.9375,-2.4375,-17.375,0
82100,-2.4375,1.3125,-17.125,0
82120,-5.625,4.25,-16,0
82140,-6.875,6.3125,-12.6875,0
82160,-5,7,-13,0
82180,-3.0625,8.625,-12.8125,0
82200,-4.875,11.625,-12.6875,0
82220,-5.375,12.6875,-13.6875,0
82240,-2.1875,11.125,-12.1875,0
82260,1,12.25,-12.5,0
82280,-1.1875,13.875,-13.1875,0
82300,-3.6875,14.4375,-15.4375,0
82320,-0.5625,12.8125,-15.375,0
82340,2.1875,13.1875,-16.5,0
82360,-1.0625,12.8125,-17.5625,0
82380,-2.625,12.6875,-18.375,0
82400,-2.375,13.375,-19,0
82420,-2.1875,13.25,-18.6875,0
82440,-3.1875,13.625,-17.9375,0
82460,-4.4375,14.25,-17,0
82480,-4.25,13.3125,-17.125,0
82500,-5.25,13.125,-18.125,0
82520,-5.6875,13.5,-18.3125,0
82540,-7.125,12.9375,-18.75,0
82560,-4.8125,12.1875,-19.6875,0
82580,-4.5,12.5625,-20.875,0
82600,-4.9375,12.5,-20.625,0
82620,-7.0625,12.1875,-20.3125,0
82640,-6.9375,11.1875,-20.8125,0
82660,-5.75,11.4375,-20.375,0
82680,-4.125,10.875,-20.1875,0
82700,-3.0625,10.4375,-20.625,0
82720,-3,11.3125,-19.625,0
82740,-4.375,12.9375,-16.875,0
82760,-4.1875,13.375,-16.375,0
82780,-2.9375,13.3125,-15.625,0
82800,-2.1875,13.5625,-13.8125,0
82820,-3.0625,12.3125,-13.5625,0
82840,-3.5,10,-13.375,0
82860,-2.8125,10.8125,-11.625,0
82880,-4.6875,13.1875,-10.8125,0
82900,-5.75,11.3125,-11.375,0
82920,-3.75,8.9375,-12.1875,0
82940,-0.3125,9.25,-12.125,0
82960,-0.9375,10.5625,-10.9375,0
82980,-2.75,10.4375,-10.5,0
83000,-1.8125,10.5625,-9,0
83020,-1.8125,10.8125,-6.4375,0
83040,-3.8125,10.25,-6.5,0
83060,-4.125,10.5625,-5.3125,0
83080,-4.375,10.9375,-2.3125,0
83100,-3.75,12.1875,-1.5625,0
83120,-2.625,12.4375,-2.5625,0
83140,-0.375,11.9375,-2.0625,0
83160,-0.625,12.375,-1.625,0
83180,-0.125,12.1875,-2.3125,0
83200,-0.125,12.8125,-3.5,0
83220,0.3125,13.0625,-2.1875,0
83240,0.1875,13.875,-1.6875,0
83260,1.3125,13.1875,-4.4375,0
83280,1.9375,12.5,-5.8125,0
83300,1.9375,11.25,-3.75,0
83320,1.4375,10.3125,-4.625,0
83340,1.75,10.1875,-6,0
83360,2.875,11.0625,-5.5625,0
83380,2.6875,11.125,-3.9375,0
83400,-0.8125,11.625,-4.0625,0
83420,-2.5,13.8125,-3.75,0
83440,0.0625,12.4375,-1.5,0
83460,1.3125,10.875,-2.9375,0
83480,0.25,11.25,-4.125,0
83490,-0.25,11.375,-2.1875,0
83510,0.125,9.375,-1.625,0
83530,-1.5,7.9375,-1.375,0
83550,1.1875,8.5625,-0.75,0
83570,1.5,7.4375,1.6875,0
83590,-0.875,5.9375,2.125,0
83610,-1.25,5.25,3.3125,0
83630,-0.0625,5.3125,6.4375,0
83650,1.5625,3.6875,8.1875,0
83670,-0.375,3.25,8.125,0
83690,-0.3125,3.5625,8.0625,0
83710,-0.5625,1.875,8,0
83730,-0.875,-1.375,8.75,0
83750,0.625,-0.125,7.75,0
83770,1.25,0.625,7,0
83790,-0.75,-0.125,8.875,0
83810,-0.9375,0.4375,10.5,0
83830,0.8125,1.1875,8.6875,0
83850,4.0625,1.3125,8.875,0
83870,3,1.8125,10,0
83890,0.6875,2.625,9.375,0
83910,3.3125,2.8125,8.25,0
83930,5.5625,4.5625,9.6875,0
83950,2.1875,5.9375,11.25,0
83970,0.0625,5.875,9.375,0
83990,3.375,6.4375,9.75,0
84010,2.75,6.9375,10.625,0
84030,-0.1875,6.0625,11.3125,0
84050,-1.875,6,11,0
84070,-1.375,6.25,11.75,0
84090,-1.5,5.875,13.1875,0
84110,-3.75,6.8125,10.5,0
84130,-2.375,6.125,9.6875,0
84150,-3.75,5.4375,8.4375,0
84170,-3.4375,4.9375,5.5625,0
84190,-0.875,3.8125,6.3125,0
84210,-2.4375,3.75,8.3125,0
84230,-3.1875,3.625,7.8125,0
84250,-1.25,4.375,8.6875,0
84270,2.375,3.25,10.625,0
84290,-0.375,3.375,10.75,0
84310,-5,4,10.5625,0
84330,-3.0625,3.9375,9.6875,0
84350,0.9375,0.0625,9.875,0
84370,0.125,-2,10.875,0
84390,-0.4375,0,9.5625,0
84410,0.0625,-1.25,10.5,0
84430,-3.1875,-1.5,11.375,0
84450,-3.1875,-0.6875,9.5625,0
84470,-0.3125,-1.875,10.25,0
84490,1,-2.6875,10.1875,0
84510,0.5625,-2.25,8.25,0
84530,1.5,-2.5,9,0
84550,1.375,-2.8125,7.4375,0
84570,1.3125,-3.75,6.25,0
84590,2.8125,-4.375,7.875,0
84610,2.375,-4.3125,8.5625,0
84630,0.5,-4.5,8.0625,0
84650,0.375,-3.5625,7.5625,0
84670,0.6875,-4.375,8.4375,0
84690,1.3125,-4.8125,7.875,0
84710,1.875,-4,7.875,0
84730,1.0625,-3.3125,8.5,0
84750,-1,-3.625,8.9375,0
