Timestamp, Angle x, Angle y, Angle z, Marker
40,-0.876846,0.487181,1.69471,0
60,-0.88469,0.482788,1.707,0
80,-0.886052,0.478212,1.71634,0
100,-0.883394,0.474447,1.72241,0
120,-0.878308,0.471087,1.7243,0
140,-0.870973,0.466697,1.72168,0
150,-0.859693,0.461315,1.71653,0
160,-0.843906,0.456223,1.70974,0
200,-0.824874,0.451436,1.70098,0
220,-0.80586,0.446476,1.69011,0
240,-0.788528,0.441262,1.67923,0
260,-0.773839,0.436136,1.66959,0
280,-0.763217,0.431301,1.66137,0
300,-0.756925,0.427266,1.65509,0
320,-0.753802,0.423636,1.65084,0
340,-0.75269,0.421168,1.64839,0
360,-0.752282,0.419738,1.64749,0
380,-0.75288,0.419729,1.64804,0
400,-0.753899,0.420441,1.64925,0
420,-0.755599,0.421021,1.65086,0
440,-0.757493,0.421728,1.65294,0
460,-0.759332,0.422498,1.65498,0
480,-0.760661,0.423391,1.65648,0
500,-0.760936,0.424268,1.6579,0
520,-0.760061,0.424869,1.65891,0
540,-0.758959,0.425105,1.6599,0
560,-0.757935,0.424974,1.66057,0
580,-0.757769,0.424671,1.66125,0
600,-0.758797,0.424264,1.66179,0
620,-0.760194,0.423509,1.66227,0
640,-0.76217,0.422775,1.66244,0
660,-0.764315,0.422188,1.66219,0
680,-0.765919,0.421785,1.66158,0
700,-0.767183,0.421625,1.66059,0
720,-0.768424,0.421757,1.65912,0
740,-0.769234,0.422051,1.65751,0
760,-0.769487,0.422411,1.65575,0
780,-0.769517,0.423115,1.6545,0
800,-0.769688,0.423636,1.65314,0
820,-0.770026,0.424079,1.65204,0
840,-0.771035,0.424498,1.6509,0
860,-0.772154,0.424739,1.65024,0
880,-0.773811,0.424615,1.64938,0
900,-0.776419,0.424588,1.64829,0
920,-0.778824,0.425022,1.64748,0
940,-0.781248,0.425631,1.64753,0
960,-0.783915,0.426442,1.64847,0
980,-0.786976,0.427304,1.64954,0
1000,-0.790514,0.428144,1.65048,0
1020,-0.794475,0.429118,1.6511,0
1040,-0.798736,0.43009,1.65115,0
1060,-0.80279,0.431557,1.64994,0
1080,-0.806912,0.433607,1.64793,0
1100,-0.809999,0.435651,1.64546,0
1120,-0.811965,0.437377,1.64315,0
1140,-0.81315,0.439672,1.64032,0
1150,-0.814059,0.442279,1.63752,0
1170,-0.814625,0.44477,1.63469,0
1190,-0.815278,0.4466,1.63205,0
1210,-0.815543,0.44814,1.63,0
1230,-0.815271,0.449426,1.62835,0
1250,-0.814176,0.4503,1.62764,0
1270,-0.812874,0.450641,1.62747,0
1290,-0.811938,0.450532,1.6277,0
1310,-0.811689,0.450489,1.62832,0
1330,-0.81191,0.450263,1.62908,0
1350,-0.812469,0.449757,1.62999,0
1370,-0.812708,0.449306,1.63082,0
1390,-0.812768,0.449155,1.63132,0
1410,-0.812371,0.449242,1.63187,0
1430,-0.812577,0.449624,1.63249,0
1450,-0.812518,0.449813,1.63312,0
1470,-0.812254,0.449996,1.63367,0
1490,-0.810865,0.450407,1.63434,0
1510,-0.808586,0.450589,1.63571,0
1530,-0.806325,0.450544,1.63716,0
1550,-0.804475,0.450217,1.63897,0
1570,-0.802982,0.449574,1.64098,0
1590,-0.80186,0.448761,1.64351,0
1610,-0.801346,0.44749,1.64563,0
1630,-0.801567,0.446238,1.64729,0
1650,-0.801984,0.445181,1.64872,0
1670,-0.802271,0.444561,1.64983,0
1690,-0.801831,0.44392,1.65139,0
1710,-0.800761,0.443625,1.65299,0
1730,-0.799623,0.443853,1.65463,0
1750,-0.798412,0.444744,1.65639,0
1770,-0.798395,0.446045,1.65835,0
1790,-0.799164,0.447317,1.6599,0
1810,-0.800089,0.448615,1.66125,0
1830,-0.800859,0.449756,1.66212,0
1850,-0.801242,0.450907,1.66245,0
1870,-0.800746,0.451935,1.66234,0
1890,-0.800111,0.452961,1.66178,0
1910,-0.799833,0.454111,1.66124,0
1930,-0.800175,0.455052,1.66046,0
1950,-0.801311,0.455772,1.65927,0
1970,-0.802477,0.456226,1.65792,0
1990,-0.80352,0.456199,1.65662,0
2010,-0.803751,0.455712,1.65542,0
2030,-0.803518,0.455117,1.65457,0
2050,-0.80326,0.454597,1.65392,0
2070,-0.803129,0.454499,1.65392,0
2090,-0.803877,0.453854,1.654,0
2110,-0.804737,0.45329,1.65413,0
2130,-0.805744,0.45269,1.65448,0
2150,-0.805897,0.452031,1.65489,0
2170,-0.805898,0.451499,1.65521,0
2190,-0.8059,0.450968,1.65554,0
2210,-0.805548,0.450466,1.65557,0
2230,-0.804823,0.449686,1.65554,0
2250,-0.803882,0.448653,1.65525,0
2270,-0.802649,0.447406,1.65474,0
2290,-0.801386,0.44614,1.65399,0
2310,-0.799905,0.444814,1.65296,0
2330,-0.798405,0.443848,1.65253,0
2350,-0.797188,0.442852,1.65218,0
2370,-0.796619,0.442139,1.6522,0
2390,-0.797222,0.441715,1.65264,0
2410,-0.798133,0.441659,1.65333,0
2430,-0.799111,0.441795,1.65423,0
2450,-0.799777,0.441602,1.65512,0
2470,-0.799513,0.44148,1.65621,0
2490,-0.7991,0.441295,1.65726,0
2510,-0.798417,0.44057,1.65831,0
2530,-0.797522,0.439692,1.65894,0
2550,-0.7968,0.438702,1.6596,0
2570,-0.796369,0.437744,1.65991,0
2590,-0.796034,0.436712,1.66027,0
2610,-0.795672,0.435471,1.66041,0
2630,-0.794681,0.43395,1.66047,0
2650,-0.793914,0.432604,1.66029,0
2670,-0.793321,0.431247,1.65997,0
2690,-0.793235,0.429884,1.65975,0
2710,-0.793103,0.428298,1.65938,0
2730,-0.792984,0.426917,1.65893,0
2750,-0.792693,0.425649,1.65847,0
2770,-0.792499,0.424892,1.65789,0
2790,-0.792329,0.424533,1.6575,0
2810,-0.79269,0.424526,1.65715,0
2830,-0.792785,0.424452,1.65718,0
2850,-0.792823,0.424433,1.65718,0
2870,-0.792918,0.424359,1.65721,0
2890,-0.792918,0.424359,1.65721,0
2910,-0.79252,0.424386,1.65757,0
2930,-0.792447,0.424172,1.65802,0
2950,-0.792319,0.424076,1.65802,0
2970,-0.792248,0.424295,1.6586,0
2990,-0.791916,0.424511,1.65916,0
3010,-0.792113,0.424646,1.65964,0
3030,-0.792656,0.42509,1.66011,0
3050,-0.793097,0.425798,1.66053,0
3070,-0.792974,0.426567,1.66079,0
3090,-0.792116,0.426824,1.66119,0
3110,-0.790801,0.42669,1.66153,0
3130,-0.78972,0.426452,1.66152,0
3150,-0.789103,0.425945,1.66122,0
3170,-0.788605,0.425292,1.66076,0
3190,-0.787938,0.424282,1.65991,0
3210,-0.786813,0.423505,1.6591,0
3230,-0.785385,0.423265,1.65855,0
3250,-0.783622,0.423645,1.65933,0
3270,-0.780852,0.423824,1.66059,0
3290,-0.777304,0.42422,1.66224,0
3310,-0.774469,0.424888,1.6645,0
3330,-0.774372,0.425701,1.66674,0
3350,-0.776635,0.426596,1.66831,0
3370,-0.780263,0.42767,1.66971,0
3390,-0.783395,0.428758,1.67101,0
3410,-0.785551,0.429932,1.67223,0
3430,-0.78604,0.430997,1.67348,0
3450,-0.784997,0.431922,1.6744,0
3470,-0.783218,0.43248,1.67517,0
3490,-0.78167,0.432872,1.67601,0
3510,-0.781543,0.432774,1.67601,0
3530,-0.781319,0.43275,1.67598,0
3550,-0.781416,0.432676,1.67601,0
3570,-0.7808,0.432599,1.67585,0
3590,-0.78033,0.432303,1.67532,0
3610,-0.779547,0.431867,1.67476,0
3630,-0.77923,0.431164,1.67389,0
3650,-0.778864,0.430391,1.67261,0
3670,-0.778128,0.429533,1.67124,0
3690,-0.776991,0.428852,1.66997,0
3710,-0.776231,0.428502,1.66894,0
3730,-0.775875,0.428687,1.66837,0
3750,-0.776371,0.42887,1.66845,0
3770,-0.776641,0.42928,1.66956,0
3790,-0.776447,0.42974,1.67165,0
3810,-0.775221,0.430498,1.67455,0
3830,-0.774408,0.431171,1.6778,0
3850,-0.775735,0.431389,1.68126,0
3870,-0.779188,0.431239,1.68514,0
3890,-0.784508,0.430582,1.68941,0
3910,-0.789762,0.429598,1.69354,0
3930,-0.794805,0.428549,1.69817,0
3950,-0.801464,0.427798,1.70304,0
3970,-0.807871,0.427296,1.70854,0
3990,-0.814579,0.427326,1.71525,0
4010,-0.822098,0.428242,1.72173,0
4030,-0.830441,0.429565,1.72749,0
4050,-0.838678,0.43081,1.73169,0
4070,-0.846109,0.431938,1.735,0
4090,-0.851997,0.432683,1.73787,0
4110,-0.856528,0.433547,1.73935,0
4130,-0.858982,0.435011,1.74035,0
4150,-0.859807,0.436566,1.74059,0
4170,-0.859649,0.438905,1.74072,0
4180,-0.858323,0.440857,1.74104,0
4200,-0.856645,0.442673,1.74125,0
4220,-0.855544,0.44441,1.74146,0
4240,-0.855493,0.446195,1.74202,0
4260,-0.856258,0.447995,1.74287,0
4280,-0.857348,0.449717,1.7444,0
4300,-0.859597,0.451929,1.74672,0
4320,-0.863725,0.454668,1.74983,0
4340,-0.870218,0.458195,1.75326,0
4360,-0.877554,0.462446,1.75907,0
4380,-0.881229,0.466272,1.76753,0
4400,-0.885637,0.470434,1.77807,0
4420,-0.892395,0.47639,1.79224,0
4440,-0.910677,0.484639,1.81197,0
4460,-0.938318,0.490039,1.83275,0
4480,-0.9637,0.491242,1.85041,0
4500,-0.981645,0.491264,1.86815,0
4520,-0.995094,0.491599,1.88466,0
4540,-1.00579,0.49188,1.89858,0
4560,-1.01573,0.490754,1.90827,0
4580,-1.02566,0.487753,1.91086,0
4600,-1.0348,0.483562,1.90678,0
4620,-1.04392,0.479968,1.8988,0
4640,-1.05178,0.47834,1.88869,0
4660,-1.05834,0.476891,1.87721,0
4680,-1.06669,0.476619,1.86351,0
4700,-1.07642,0.476589,1.84935,0
4720,-1.08495,0.480162,1.8337,0
4740,-1.09288,0.487626,1.81582,0
4760,-1.10205,0.496936,1.79561,0
4780,-1.10598,0.503518,1.77459,0
4800,-1.09933,0.504605,1.76657,0
4820,-1.09166,0.498341,1.76834,0
4840,-1.09064,0.491292,1.76458,0
4860,-1.08731,0.488681,1.75705,0
4880,-1.08489,0.489588,1.7486,0
4900,-1.08602,0.490066,1.74188,0
4920,-1.08763,0.489118,1.73675,0
4940,-1.09049,0.48695,1.73065,0
4960,-1.09187,0.484753,1.72533,0
4980,-1.09442,0.483449,1.72067,0
5000,-1.09877,0.481463,1.71677,0
5020,-1.10322,0.478194,1.71325,0
5040,-1.1087,0.474175,1.70904,0
5060,-1.11356,0.471564,1.70443,0
5080,-1.12041,0.469876,1.6996,0
5100,-1.13128,0.468502,1.69401,0
5120,-1.14161,0.467438,1.68774,0
5140,-1.15011,0.466913,1.68132,0
5160,-1.15885,0.467027,1.67476,0
5180,-1.16779,0.468186,1.66786,0
5200,-1.17573,0.469856,1.66117,0
5220,-1.18289,0.471637,1.65425,0
5240,-1.18843,0.474224,1.64789,0
5260,-1.1923,0.477726,1.6427,0
5280,-1.19342,0.481564,1.63844,0
5300,-1.19484,0.4861,1.6364,0
5320,-1.19716,0.490868,1.63723,0
5340,-1.20196,0.495597,1.64072,0
5360,-1.20786,0.499324,1.64643,0
5380,-1.2142,0.501361,1.6532,0
5400,-1.22004,0.502793,1.66063,0
5420,-1.22438,0.504755,1.66781,0
5440,-1.22814,0.505975,1.67446,0
5460,-1.23258,0.506239,1.67988,0
5480,-1.23538,0.50666,1.6839,0
5500,-1.23681,0.506728,1.68657,0
5520,-1.23793,0.506429,1.68724,0
5540,-1.23742,0.506579,1.68677,0
5560,-1.2374,0.507622,1.68556,0
5580,-1.2381,0.509489,1.68334,0
5600,-1.23952,0.511806,1.68076,0
5620,-1.24039,0.51383,1.67819,0
5640,-1.24146,0.515955,1.67516,0
5660,-1.24373,0.518547,1.67209,0
5680,-1.246,0.521257,1.66833,0
5700,-1.24723,0.523643,1.66372,0
5720,-1.2477,0.526321,1.65932,0
5740,-1.24956,0.529307,1.65484,0
5760,-1.25226,0.532277,1.65151,0
5780,-1.25684,0.534522,1.6503,0
5800,-1.26505,0.535702,1.65181,0
5820,-1.27504,0.536749,1.6538,0
5840,-1.28073,0.537783,1.65505,0
5860,-1.28169,0.538473,1.65587,0
5880,-1.27885,0.538754,1.65615,0
5900,-1.27503,0.539046,1.65545,0
5920,-1.2712,0.538975,1.65408,0
5940,-1.26724,0.537772,1.65277,0
5960,-1.26322,0.535435,1.65257,0
5980,-1.25889,0.532755,1.65351,0
6000,-1.2536,0.530135,1.65527,0
6020,-1.24717,0.527651,1.65769,0
6040,-1.24155,0.5261,1.6607,0
6060,-1.23752,0.525788,1.66382,0
6080,-1.23475,0.526802,1.66675,0
6100,-1.23247,0.527964,1.66984,0
6120,-1.22951,0.528666,1.67375,0
6130,-1.22678,0.528326,1.67839,0
6150,-1.22336,0.527433,1.68328,0
6170,-1.22039,0.526783,1.687,0
6190,-1.21827,0.527089,1.69016,0
6210,-1.21733,0.528606,1.69286,0
6230,-1.21785,0.530828,1.69454,0
6250,-1.2197,0.534125,1.69525,0
6270,-1.22053,0.540225,1.69494,0
6290,-1.22145,0.548753,1.69279,0
6310,-1.22531,0.555816,1.68951,0
6330,-1.23107,0.559324,1.68853,0
6350,-1.23665,0.560784,1.69177,0
6370,-1.23913,0.563653,1.69785,0
6380,-1.23847,0.56978,1.70514,0
6400,-1.23699,0.579069,1.71053,0
6410,-1.238,0.591083,1.71301,0
6430,-1.24403,0.601504,1.71223,0
6450,-1.25284,0.607023,1.71109,0
6470,-1.25902,0.608702,1.71034,0
6490,-1.26044,0.609568,1.70968,0
6510,-1.25714,0.612119,1.70905,0
6530,-1.253,0.615635,1.70706,0
6550,-1.25065,0.615979,1.70333,0
6570,-1.24563,0.610785,1.69845,0
6590,-1.23337,0.603386,1.6942,0
6610,-1.21929,0.598544,1.6924,0
6630,-1.20903,0.596776,1.69139,0
6650,-1.2022,0.595592,1.68992,0
6670,-1.19784,0.593568,1.6878,0
6690,-1.19218,0.591288,1.68695,0
6710,-1.18652,0.589504,1.68802,0
6730,-1.18123,0.587981,1.68974,0
6750,-1.17516,0.585939,1.69102,0
6770,-1.16793,0.583702,1.69192,0
6790,-1.1594,0.581755,1.69258,0
6810,-1.15021,0.581055,1.6936,0
6830,-1.14168,0.58078,1.69454,0
6850,-1.13446,0.579767,1.6951,0
6870,-1.12979,0.579006,1.69606,0
6890,-1.12806,0.578796,1.69669,0
6910,-1.12831,0.579492,1.69655,0
6930,-1.12904,0.581589,1.69558,0
6950,-1.12874,0.585268,1.69404,0
6970,-1.12896,0.590136,1.69118,0
6990,-1.13099,0.594897,1.68642,0
7010,-1.13447,0.597494,1.68111,0
7030,-1.13788,0.598354,1.67672,0
7050,-1.13934,0.598709,1.67304,0
7070,-1.14001,0.600326,1.6701,0
7090,-1.13994,0.603799,1.66705,0
7110,-1.14161,0.609855,1.6635,0
7130,-1.14507,0.61738,1.65862,0
7150,-1.15013,0.626375,1.65297,0
7170,-1.1562,0.635703,1.6462,0
7190,-1.16462,0.644717,1.63822,0
7210,-1.17118,0.652665,1.63142,0
7230,-1.17524,0.658189,1.62532,0
7250,-1.17626,0.661229,1.62065,0
7270,-1.17499,0.660695,1.61735,0
7290,-1.17335,0.656184,1.61607,0
7310,-1.17049,0.652836,1.61668,0
7330,-1.16733,0.65474,1.61679,0
7350,-1.16861,0.65951,1.61542,0
7370,-1.17487,0.664681,1.6136,0
7390,-1.18702,0.669258,1.61263,0
7410,-1.20041,0.67313,1.61354,0
7430,-1.20973,0.676749,1.6163,0
7450,-1.21433,0.68012,1.61989,0
7470,-1.21568,0.683283,1.62261,0
7490,-1.21544,0.68615,1.62463,0
7510,-1.21402,0.687683,1.62513,0
7530,-1.21009,0.688003,1.62482,0
7550,-1.20386,0.687097,1.62398,0
7570,-1.19813,0.685576,1.62335,0
7590,-1.19315,0.683421,1.62276,0
7610,-1.18983,0.680762,1.6225,0
7630,-1.18627,0.678535,1.62202,0
7650,-1.1828,0.677072,1.62217,0
7670,-1.18046,0.676463,1.6222,0
7690,-1.17875,0.675856,1.62163,0
7710,-1.17748,0.676046,1.62126,0
7730,-1.17709,0.67756,1.62139,0
7750,-1.17735,0.67904,1.62153,0
7770,-1.17834,0.680219,1.62124,0
7790,-1.17976,0.681845,1.62097,0
7810,-1.18193,0.683611,1.62066,0
7820,-1.18424,0.685315,1.61985,0
7840,-1.18643,0.68641,1.61864,0
7860,-1.18773,0.687316,1.61768,0
7880,-1.18854,0.687897,1.61686,0
7900,-1.18876,0.688037,1.61569,0
7920,-1.18802,0.687465,1.6141,0
7940,-1.18609,0.686407,1.61269,0
7960,-1.18341,0.684781,1.61094,0
7980,-1.18048,0.682631,1.60869,0
8000,-1.17581,0.679949,1.60585,0
8020,-1.16973,0.676819,1.60263,0
8040,-1.16458,0.67445,1.59985,0
8060,-1.16029,0.67218,1.59722,0
8080,-1.15649,0.669997,1.59444,0
8100,-1.15226,0.667674,1.59158,0
8120,-1.14837,0.666021,1.58971,0
8140,-1.14691,0.664793,1.58932,0
8160,-1.15177,0.66401,1.59019,0
8180,-1.1596,0.662334,1.59182,0
8200,-1.16563,0.659548,1.59381,0
8220,-1.16733,0.655701,1.5958,0
8240,-1.16413,0.651427,1.59666,0
8260,-1.15734,0.647355,1.59625,0
8280,-1.14907,0.642546,1.59431,0
8300,-1.13842,0.636499,1.58998,0
8320,-1.12577,0.629523,1.58179,0
8340,-1.10957,0.621771,1.57043,0
8360,-1.08907,0.613341,1.55674,0
8380,-1.06595,0.604856,1.5416,0
8400,-1.04067,0.596401,1.52516,0
8420,-1.01488,0.588285,1.5075,0
8440,-0.988623,0.580943,1.48906,0
8460,-0.962515,0.574402,1.47051,0
8480,-0.936253,0.568728,1.45309,0
8500,-0.911979,0.56365,1.4382,0
8520,-0.893966,0.559366,1.42531,0
8540,-0.885078,0.556647,1.4149,0
8560,-0.883382,0.555903,1.40861,0
8580,-0.88708,0.557073,1.40588,0
8600,-0.89276,0.559871,1.40736,0
8620,-0.899469,0.563846,1.41246,0
8640,-0.907607,0.568056,1.41946,0
8660,-0.917197,0.572484,1.42652,0
8680,-0.927133,0.576453,1.43236,0
8700,-0.934875,0.579403,1.43627,0
8720,-0.93894,0.581275,1.43838,0
8740,-0.938884,0.582563,1.43823,0
8760,-0.936403,0.583331,1.43629,0
8780,-0.931626,0.583244,1.43336,0
8800,-0.927149,0.583113,1.43031,0
8820,-0.923593,0.5827,1.42749,0
8840,-0.92108,0.582271,1.42572,0
8860,-0.919565,0.581695,1.42523,0
8880,-0.919202,0.581384,1.42547,0
8900,-0.919396,0.581246,1.42618,0
8920,-0.919497,0.581706,1.4278,0
8940,-0.920037,0.582614,1.42936,0
8960,-0.920785,0.583812,1.43088,0
8980,-0.921143,0.585236,1.4325,0
9000,-0.922092,0.586452,1.43384,0
9020,-0.923629,0.587388,1.43469,0
9040,-0.925669,0.588041,1.4346,0
9060,-0.929546,0.58891,1.43322,0
9080,-0.934415,0.589445,1.43077,0
9100,-0.937916,0.589609,1.42756,0
9120,-0.940749,0.591011,1.42367,0
9140,-0.944664,0.593916,1.4204,0
9160,-0.949661,0.597194,1.41781,0
9180,-0.954556,0.600913,1.41639,0
9200,-0.958781,0.605228,1.41644,0
9220,-0.963384,0.609367,1.41771,0
9240,-0.969601,0.61351,1.41923,0
9260,-0.97738,0.617102,1.42052,0
9280,-0.984696,0.619749,1.42204,0
9300,-0.99147,0.621686,1.42326,0
9320,-0.997651,0.623555,1.42443,0
9340,-1.00353,0.624895,1.42504,0
9360,-1.00805,0.62612,1.42523,0
9380,-1.01178,0.627341,1.42598,0
9400,-1.01597,0.628848,1.42672,0
9420,-1.02095,0.630554,1.42732,0
9440,-1.02623,0.632603,1.42741,0
9450,-1.03158,0.634648,1.42753,0
9470,-1.03534,0.63671,1.4278,0
9490,-1.03806,0.638924,1.42828,0
9510,-1.0405,0.641623,1.42901,0
9530,-1.04302,0.644169,1.42958,0
9550,-1.0456,0.646419,1.43051,0
9570,-1.04743,0.648372,1.4321,0
9590,-1.04997,0.650442,1.43308,0
9610,-1.05145,0.652631,1.43382,0
9630,-1.0515,0.65434,1.43396,0
9650,-1.05161,0.656137,1.43336,0
9670,-1.05154,0.657368,1.43197,0
9690,-1.05108,0.658135,1.42923,0
9710,-1.04849,0.659376,1.42593,0
9730,-1.04455,0.660604,1.42169,0
9750,-1.0396,0.66161,1.41692,0
9770,-1.03393,0.662207,1.41128,0
9790,-1.02592,0.662408,1.40594,0
9810,-1.0168,0.662052,1.40093,0
9830,-1.00655,0.661845,1.3972,0
9850,-0.996833,0.66238,1.39571,0
9870,-0.99229,0.663925,1.39645,0
9890,-0.995691,0.665775,1.4,0
9910,-1.00187,0.667116,1.40433,0
9930,-1.00738,0.667921,1.40694,0
9950,-1.00942,0.668383,1.40918,0
9970,-1.00898,0.669794,1.41053,0
9990,-1.0083,0.670773,1.41129,0
10010,-1.0074,0.671101,1.41153,0
10030,-1.00551,0.670907,1.41178,0
10050,-1.00384,0.671447,1.41277,0
10070,-1.00588,0.672871,1.41542,0
10090,-1.00981,0.673965,1.418,0
10110,-1.01611,0.675819,1.42143,0
10130,-1.02663,0.678714,1.42526,0
10150,-1.0375,0.681208,1.42818,0
10170,-1.04664,0.682476,1.42984,0
10190,-1.05516,0.68387,1.43116,0
10210,-1.06188,0.686194,1.43431,0
10230,-1.06729,0.68844,1.43876,0
10250,-1.07216,0.691029,1.44279,0
10270,-1.07693,0.693731,1.44556,0
10290,-1.08272,0.696114,1.44793,0
10310,-1.08783,0.697166,1.44889,0
10330,-1.09135,0.697227,1.44912,0
10350,-1.09243,0.696569,1.44934,0
10370,-1.09211,0.696287,1.45012,0
10390,-1.09083,0.695518,1.45062,0
10410,-1.08945,0.693959,1.45012,0
10430,-1.08671,0.69263,1.44975,0
10450,-1.083,0.691745,1.45001,0
10490,-1.07693,0.688495,1.4511,0
10530,-1.06415,0.686767,1.45449,0
10550,-1.06127,0.687123,1.45874,0
10570,-1.06165,0.68684,1.46289,0
10590,-1.06224,0.687285,1.46886,0
10610,-1.06282,0.68957,1.47829,0
10630,-1.06574,0.692072,1.48878,0
10650,-1.0728,0.693875,1.4983,0
10670,-1.08153,0.695065,1.50654,0
10690,-1.09068,0.695563,1.51319,0
10710,-1.09821,0.695577,1.51761,0
10730,-1.10285,0.694545,1.52031,0
10750,-1.10538,0.69314,1.52101,0
10770,-1.10678,0.692279,1.52116,0
10790,-1.10864,0.691714,1.5203,0
10810,-1.10995,0.691558,1.51965,0
10830,-1.11131,0.690989,1.51893,0
10850,-1.11281,0.691201,1.52008,0
10870,-1.11499,0.692539,1.52347,0
10890,-1.11825,0.693776,1.52914,0
10910,-1.12225,0.693399,1.53649,0
10930,-1.12577,0.692818,1.545,0
10950,-1.12853,0.693026,1.55467,0
10970,-1.13454,0.691987,1.56272,0
10990,-1.13971,0.689551,1.56884,0
11010,-1.1404,0.68714,1.57335,0
11030,-1.13914,0.685537,1.57633,0
11050,-1.13889,0.684548,1.57829,0
11070,-1.14117,0.6839,1.57877,0
11090,-1.14417,0.683478,1.57812,0
11110,-1.14756,0.683518,1.57738,0
11130,-1.1504,0.684006,1.57719,0
11150,-1.15256,0.684392,1.57787,0
11170,-1.154,0.68408,1.57855,0
11190,-1.15463,0.683568,1.57956,0
11210,-1.15547,0.682667,1.58083,0
11230,-1.15656,0.681632,1.58307,0
11250,-1.15568,0.680597,1.58685,0
11270,-1.15308,0.678558,1.59088,0
11290,-1.15002,0.676035,1.59462,0
11310,-1.14641,0.673953,1.59881,0
11330,-1.14154,0.671673,1.60287,0
11350,-1.1368,0.669118,1.60643,0
11370,-1.13189,0.666078,1.609,0
11380,-1.12785,0.662781,1.61079,0
11400,-1.12401,0.658379,1.61221,0
11420,-1.12007,0.65253,1.61154,0
11440,-1.1131,0.64597,1.61108,0
11460,-1.10323,0.639962,1.61286,0
11480,-1.09463,0.634266,1.61548,0
11500,-1.08815,0.627726,1.61686,0
11520,-1.08151,0.621326,1.61859,0
11540,-1.07651,0.615714,1.62227,0
11560,-1.07227,0.611301,1.62692,0
11580,-1.0672,0.6083,1.63189,0
11600,-1.05976,0.608041,1.63769,0
11620,-1.05141,0.608564,1.64483,0
11640,-1.04737,0.608315,1.65258,0
11660,-1.0437,0.608335,1.66201,0
11680,-1.03371,0.610691,1.67408,0
11700,-1.02049,0.611966,1.68837,0
11720,-1.00824,0.607923,1.70386,0
11740,-1.0003,0.598632,1.71732,0
11760,-0.995226,0.588573,1.72731,0
11780,-0.989832,0.57945,1.73415,0
11800,-0.98258,0.571217,1.73874,0
11820,-0.975502,0.563461,1.74033,0
11840,-0.970842,0.556514,1.73942,0
11860,-0.96924,0.551221,1.73515,0
11880,-0.969622,0.547051,1.7267,0
11900,-0.969931,0.543031,1.71453,0
11920,-0.969365,0.539467,1.69947,0
11940,-0.969149,0.536242,1.6843,0
11960,-0.972773,0.534407,1.67254,0
11980,-0.977089,0.532165,1.66356,0
12000,-0.981045,0.531098,1.65602,0
12020,-0.983717,0.532227,1.65164,0
12040,-0.987484,0.53446,1.64811,0
12060,-0.995707,0.536503,1.64373,0
12080,-1.0047,0.538824,1.63875,0
12100,-1.0132,0.541153,1.63315,0
12120,-1.02002,0.543857,1.62678,0
12140,-1.02244,0.547953,1.62131,0
12160,-1.02653,0.552947,1.61668,0
12180,-1.03562,0.559112,1.61293,0
12200,-1.04871,0.567416,1.61126,0
12220,-1.06346,0.576806,1.61217,0
12240,-1.07169,0.584488,1.61724,0
12260,-1.07681,0.589397,1.62528,0
12280,-1.07344,0.592504,1.63523,0
12300,-1.06092,0.595102,1.646,0
12320,-1.04943,0.596873,1.65869,0
12340,-1.0426,0.593338,1.67273,0
12360,-1.03451,0.582775,1.68659,0
12380,-1.0232,0.568917,1.70074,0
12400,-1.01159,0.553657,1.71598,0
12420,-1.0037,0.537017,1.73201,0
12440,-1.00233,0.519977,1.7502,0
12460,-0.997201,0.501181,1.77066,0
12480,-0.989958,0.482876,1.79296,0
12500,-0.982789,0.465796,1.81427,0
12520,-0.970508,0.45189,1.83552,0
12540,-0.957546,0.438632,1.85323,0
12560,-0.945668,0.426549,1.86725,0
12580,-0.934955,0.415771,1.87978,0
12600,-0.92224,0.406919,1.89147,0
12620,-0.908901,0.399812,1.90397,0
12640,-0.894917,0.392579,1.91729,0
12660,-0.882358,0.384449,1.93148,0
12680,-0.870632,0.376136,1.94493,0
12700,-0.856952,0.368751,1.95833,0
12720,-0.842643,0.362236,1.972,0
12740,-0.825916,0.356775,1.98592,0
12760,-0.809341,0.351065,1.99943,0
12780,-0.798106,0.34672,2.01349,0
12800,-0.79205,0.348456,2.03106,0
12820,-0.787627,0.362746,2.04614,0
12840,-0.794071,0.360522,2.06361,0
12860,-0.798625,0.355195,2.07885,0
12880,-0.799858,0.348823,2.09056,0
12900,-0.775601,0.350052,2.10437,0
12920,-0.746004,0.351438,2.11563,0
12940,-0.721392,0.348848,2.12419,0
12960,-0.70297,0.34249,2.1301,0
12980,-0.681015,0.332682,2.13708,0
13000,-0.659626,0.319511,2.14659,0
13020,-0.644962,0.307701,2.15276,0
13040,-0.631204,0.299277,2.15697,0
13060,-0.618386,0.293224,2.15846,0
13080,-0.607844,0.289376,2.15678,0
13100,-0.596886,0.286306,2.15412,0
13120,-0.587058,0.283198,2.15093,0
13140,-0.581012,0.280377,2.14804,0
13160,-0.577115,0.276942,2.14587,0
13180,-0.574319,0.272836,2.14451,0
13200,-0.571311,0.26983,2.14288,0
13220,-0.568028,0.267608,2.14204,0
13240,-0.568213,0.26516,2.14089,0
13260,-0.571589,0.26302,2.13785,0
13280,-0.573733,0.260781,2.13489,0
13300,-0.574975,0.257481,2.13246,0
13320,-0.575259,0.252563,2.1306,0
13340,-0.57411,0.244839,2.12953,0
13360,-0.572867,0.234608,2.12709,0
13380,-0.57587,0.223091,2.12495,0
13400,-0.576613,0.209696,2.1243,0
13420,-0.562755,0.196899,2.12372,0
13440,-0.545052,0.186408,2.12366,0
13460,-0.525998,0.175072,2.12326,0
13480,-0.504733,0.154364,2.12955,0
13500,-0.518307,0.115715,2.14049,0
13520,-0.569445,0.102931,2.1445,0
13540,-0.643807,0.0897745,2.15514,0
13560,-0.716144,0.0798482,2.16268,0
13580,-0.772544,0.0744842,2.16834,0
13600,-0.802733,0.0753196,2.17286,0
13620,-0.810098,0.0762901,2.17774,0
13640,-0.803135,0.0736661,2.18334,0
13660,-0.79471,0.0669344,2.19032,0
13680,-0.792615,0.0590221,2.19593,0
13700,-0.797592,0.0520075,2.20136,0
13720,-0.804185,0.0437007,2.20654,0
13740,-0.808617,0.0326046,2.21098,0
13760,-0.802008,0.0233484,2.21016,0
13780,-0.785013,0.0160891,2.20835,0
13800,-0.764723,0.00758348,2.20927,0
13820,-0.744842,-0.00158665,2.21364,0
13840,-0.726951,-0.0107871,2.2208,0
13860,-0.709118,-0.0201118,2.22726,0
13880,-0.687464,-0.0276843,2.23134,0
13900,-0.664283,-0.0341705,2.23388,0
13920,-0.642755,-0.0387323,2.23429,0
13940,-0.621611,-0.0375707,2.23478,0
13960,-0.602757,-0.0326963,2.23836,0
13980,-0.590259,-0.0275531,2.24623,0
14000,-0.584367,-0.020805,2.2548,0
14020,-0.585481,-0.01203,2.26272,0
14040,-0.589835,-0.00577939,2.26869,0
14060,-0.592255,-0.00358052,2.27175,0
14080,-0.591102,-0.00353325,2.27197,0
14100,-0.585676,-0.00390873,2.26938,0
14120,-0.576034,-0.00255788,2.26448,0
14140,-0.564936,0.000229731,2.25856,0
14160,-0.554359,0.00396326,2.2521,0
14180,-0.545595,0.00937301,2.24596,0
14200,-0.537909,0.0172301,2.23956,0
14220,-0.530426,0.0271445,2.23364,0
14240,-0.521834,0.039723,2.22635,0
14260,-0.514274,0.056162,2.21745,0
14280,-0.508641,0.0774672,2.20621,0
14300,-0.503694,0.105218,2.19444,0
14320,-0.496419,0.137218,2.18294,0
14340,-0.487383,0.170879,2.17277,0
14360,-0.475208,0.203771,2.16657,0
14380,-0.461529,0.232974,2.1635,0
14400,-0.448671,0.257667,2.16867,0
14420,-0.43523,0.275352,2.18205,0
14440,-0.421096,0.282667,2.20123,0
14460,-0.422375,0.285732,2.21279,0
14480,-0.428634,0.292521,2.21874,0
14500,-0.429242,0.291084,2.22652,0
14520,-0.428606,0.282879,2.23272,0
14540,-0.425519,0.273243,2.23671,0
14560,-0.425495,0.26197,2.23822,0
14580,-0.423985,0.2474,2.23853,0
14600,-0.421566,0.228717,2.23678,0
14620,-0.419764,0.208067,2.234,0
14640,-0.421918,0.185653,2.2309,0
14660,-0.426565,0.162525,2.2281,0
14680,-0.432866,0.138499,2.2249,0
14700,-0.443149,0.111375,2.22029,0
14720,-0.461296,0.0799371,2.21282,0
14730,-0.474792,0.0461998,2.20554,0
14750,-0.492276,0.0109977,2.19865,0
14770,-0.501684,-0.0214472,2.19236,0
14810,-0.530786,-0.0744938,2.1913,0
14830,-0.547903,-0.0947116,2.19758,0
14850,-0.572921,-0.11,2.20828,0
14870,-0.59778,-0.122421,2.2243,0
14890,-0.619434,-0.130066,2.24131,0
14910,-0.636454,-0.13039,2.25507,0
14930,-0.662143,-0.119965,2.27234,0
14950,-0.700832,-0.101247,2.28445,0
14970,-0.750171,-0.0766581,2.29642,0
14990,-0.804324,-0.047867,2.3068,0
15010,-0.852791,-0.0204478,2.31202,0
15030,-0.889198,0.00707376,2.31529,0
15050,-0.918705,0.036452,2.31685,0
15070,-0.942397,0.0666085,2.31515,0
15090,-0.970019,0.0975678,2.31483,0
15110,-1.00135,0.128127,2.31496,0
15130,-1.03455,0.159009,2.31425,0
15150,-1.07099,0.191604,2.31318,0
15170,-1.10876,0.225855,2.31182,0
15190,-1.1483,0.258344,2.3101,0
15210,-1.18923,0.289214,2.30641,0
15230,-1.22414,0.320726,2.30092,0
15250,-1.25793,0.355431,2.29509,0
15270,-1.29833,0.393302,2.28653,0
15290,-1.34652,0.437366,2.27431,0
15310,-1.39353,0.477757,2.26266,0
15330,-1.44086,0.522945,2.25374,0
15350,-1.47983,0.5717,2.24781,0
15370,-1.51299,0.623992,2.24055,0
15390,-1.54821,0.679112,2.22988,0
15410,-1.58884,0.736692,2.21569,0
15430,-1.63281,0.793747,2.19149,0
15450,-1.68062,0.846404,2.15924,0
15470,-1.73187,0.895095,2.11757,0
15490,-1.78455,0.938978,2.07054,0
15510,-1.83167,0.983135,2.02152,0
15530,-1.85793,1.01198,1.98036,0
15550,-1.86327,1.03036,1.94768,0
15570,-1.86761,1.03551,1.92669,0
15590,-1.8762,1.03377,1.92011,0
15610,-1.87366,1.0452,1.93314,0
15630,-1.84507,1.06035,1.96279,0
15650,-1.79874,1.07693,2.00312,0
15670,-1.74621,1.09634,2.05433,0
15690,-1.70374,1.11656,2.0955,0
15710,-1.6917,1.12867,2.10602,0
15730,-1.72755,1.1206,2.06059,0
15750,-1.77002,1.11723,2.00201,0
15770,-1.77208,1.12281,2.00025,0
15790,-1.75659,1.11942,2.00995,0
15810,-1.75067,1.10754,2.01042,0
15830,-1.74159,1.09895,2.01081,0
15850,-1.74933,1.09071,2.00047,0
15870,-1.75891,1.08541,1.99029,0
15890,-1.75746,1.08247,1.98854,0
15910,-1.75274,1.08132,1.98907,0
15930,-1.74652,1.08128,1.98613,0
15950,-1.74258,1.08117,1.98236,0
15970,-1.74111,1.08,1.98149,0
15990,-1.74529,1.07994,1.97894,0
16010,-1.7467,1.0788,1.9762,0
16030,-1.74151,1.07467,1.97295,0
16050,-1.73387,1.07068,1.97055,0
16070,-1.72982,1.06956,1.96769,0
16090,-1.7258,1.06806,1.96473,0
16110,-1.72002,1.06319,1.96059,0
16130,-1.714,1.0577,1.95646,0
16150,-1.70658,1.05214,1.95458,0
16170,-1.69922,1.04763,1.95115,0
16190,-1.69306,1.04355,1.94678,0
16210,-1.68292,1.03933,1.94421,0
16230,-1.67744,1.03789,1.93977,0
16250,-1.67583,1.03955,1.9379,0
16270,-1.67296,1.0416,1.93776,0
16290,-1.67003,1.04302,1.93879,0
16310,-1.66725,1.04384,1.93984,0
16330,-1.66485,1.04436,1.94006,0
16350,-1.66309,1.04428,1.93853,0
16370,-1.66354,1.04367,1.93506,0
16390,-1.66446,1.04342,1.93144,0
16410,-1.66319,1.04303,1.92961,0
16430,-1.6594,1.04241,1.93019,0
16450,-1.65585,1.04193,1.93114,0
16470,-1.65445,1.0424,1.931,0
16490,-1.65404,1.04215,1.92975,0
16510,-1.65318,1.04175,1.92843,0
16530,-1.6519,1.04198,1.92822,0
16550,-1.6511,1.04224,1.92723,0
16570,-1.65233,1.04239,1.92453,0
16590,-1.65387,1.04257,1.92115,0
16600,-1.65649,1.04362,1.91826,0
16630,-1.65868,1.04458,1.91661,0
16650,-1.65992,1.04449,1.9148,0
16670,-1.66168,1.04483,1.9127,0
16690,-1.6634,1.04592,1.91087,0
16700,-1.66431,1.04681,1.90983,0
16720,-1.66365,1.04673,1.91012,0
16740,-1.66208,1.04676,1.91062,0
16760,-1.6603,1.04663,1.91111,0
16780,-1.65765,1.04604,1.91151,0
16800,-1.65518,1.04536,1.91175,0
16820,-1.65385,1.04493,1.91158,0
16840,-1.65276,1.04389,1.91133,0
16860,-1.65125,1.04199,1.91061,0
16880,-1.64914,1.0404,1.91067,0
16900,-1.64747,1.03953,1.90997,0
16920,-1.64644,1.03901,1.90993,0
16940,-1.64506,1.03778,1.90934,0
16960,-1.64285,1.03631,1.90935,0
16980,-1.64083,1.03494,1.90899,0
17000,-1.64089,1.03403,1.907,0
17020,-1.64158,1.03345,1.90477,0
17040,-1.64241,1.03283,1.90296,0
17060,-1.64482,1.03231,1.90057,0
17080,-1.64935,1.03169,1.89698,0
17100,-1.65454,1.0302,1.89239,0
17110,-1.66006,1.02906,1.88828,0
17130,-1.66427,1.02839,1.88541,0
17150,-1.668,1.02748,1.88172,0
17170,-1.67122,1.02675,1.87936,0
17190,-1.6743,1.0266,1.87695,0
17210,-1.67926,1.02675,1.87453,0
17230,-1.68654,1.0267,1.8699,0
17250,-1.694,1.02524,1.86401,0
17270,-1.69676,1.02129,1.86045,0
17290,-1.70246,1.01679,1.8544,0
17310,-1.71398,1.01566,1.84414,0
17330,-1.71394,1.01382,1.84217,0
17350,-1.72859,1.01519,1.82777,0
17370,-1.72194,1.00477,1.83297,0
17390,-1.73374,1.0061,1.82176,0
17410,-1.71928,0.994993,1.83397,0
17430,-1.72893,0.991879,1.82452,0
17450,-1.72319,0.98789,1.82659,0
17470,-1.70947,0.975875,1.83474,0
17490,-1.71882,0.976662,1.82267,0
17510,-1.70491,0.967243,1.8319,0
17530,-1.70553,0.959131,1.8286,0
17550,-1.71114,0.95902,1.82098,0
17570,-1.69236,0.946053,1.83376,0
17590,-1.69732,0.944521,1.82492,0
17610,-1.6916,0.937713,1.8259,0
17630,-1.68808,0.931517,1.82414,0
17650,-1.68598,0.925253,1.82158,0
17670,-1.6832,0.918671,1.81882,0
17690,-1.68022,0.911215,1.81518,0
17710,-1.67899,0.904648,1.81135,0
17730,-1.67844,0.899511,1.80797,0
17750,-1.67721,0.894707,1.80508,0
17770,-1.67581,0.889327,1.80245,0
17790,-1.67379,0.884212,1.79978,0
17810,-1.67246,0.879493,1.79659,0
17830,-1.6729,0.875801,1.7931,0
17850,-1.67385,0.871909,1.78962,0
17870,-1.67403,0.86776,1.78666,0
17890,-1.67283,0.86402,1.78437,0
17910,-1.67161,0.861078,1.7822,0
17930,-1.67078,0.858143,1.7802,0
17950,-1.66999,0.854991,1.7787,0
17970,-1.66848,0.852012,1.77774,0
17990,-1.66766,0.84948,1.77705,0
18010,-1.66798,0.846736,1.77673,0
18030,-1.66708,0.843596,1.77732,0
18050,-1.66384,0.840277,1.77844,0
18070,-1.65919,0.837761,1.77993,0
18090,-1.65463,0.83557,1.78153,0
18110,-1.65206,0.833636,1.78342,0
18130,-1.65022,0.830648,1.78491,0
18150,-1.64755,0.827841,1.78652,0
18170,-1.6449,0.825279,1.78794,0
18190,-1.64297,0.822803,1.78865,0
18210,-1.64057,0.820128,1.78976,0
18230,-1.63819,0.817936,1.79096,0
18250,-1.63718,0.816556,1.79203,0
18270,-1.63789,0.81495,1.79337,0
18290,-1.63759,0.81298,1.79571,0
18310,-1.63623,0.811371,1.79802,0
18330,-1.63458,0.810751,1.8002,0
18350,-1.63326,0.810479,1.80165,0
18370,-1.63287,0.810409,1.80286,0
18390,-1.6321,0.809933,1.80384,0
18410,-1.62989,0.808865,1.80446,0
18430,-1.62762,0.808074,1.8048,0
18450,-1.62613,0.807411,1.80412,0
18470,-1.62592,0.806517,1.80298,0
18490,-1.62523,0.805073,1.80174,0
18510,-1.62382,0.803909,1.80031,0
18530,-1.62298,0.803274,1.79864,0
18550,-1.62254,0.802748,1.79762,0
18570,-1.62213,0.802106,1.79685,0
18590,-1.62149,0.80116,1.796,0
18610,-1.62014,0.800489,1.79543,0
18630,-1.61892,0.800216,1.79486,0
18650,-1.6183,0.799805,1.79459,0
18670,-1.61816,0.799355,1.79412,0
18690,-1.61804,0.798849,1.7939,0
18710,-1.61804,0.798787,1.79388,0
18730,-1.61782,0.798779,1.79411,0
18750,-1.61701,0.798243,1.79432,0
18770,-1.61573,0.798003,1.79439,0
18790,-1.61572,0.798112,1.79461,0
18810,-1.61598,0.798126,1.79466,0
18830,-1.61613,0.798162,1.79507,0
18850,-1.61613,0.798162,1.79507,0
18870,-1.61613,0.798272,1.79529,0
18890,-1.61594,0.798572,1.79566,0
18910,-1.61651,0.799086,1.79586,0
18930,-1.61754,0.799569,1.79539,0
18950,-1.61836,0.80034,1.79546,0
18970,-1.61883,0.80101,1.79561,0
18990,-1.61883,0.801438,1.79551,0
19010,-1.61916,0.802366,1.79556,0
19030,-1.61996,0.803256,1.7954,0
19050,-1.62062,0.803694,1.79475,0
19070,-1.6202,0.804311,1.79401,0
19090,-1.62023,0.805352,1.79333,0
19110,-1.6204,0.8059,1.79247,0
19130,-1.62072,0.805995,1.79209,0
19150,-1.6205,0.805877,1.79211,0
19170,-1.6205,0.805877,1.79211,0
19190,-1.62129,0.805932,1.79152,0
19210,-1.62128,0.805635,1.79121,0
19230,-1.62034,0.805067,1.7913,0
19250,-1.6189,0.804658,1.79138,0
19270,-1.61816,0.804522,1.79084,0
19290,-1.61801,0.804244,1.79062,0
19310,-1.61637,0.803134,1.79038,0
19330,-1.61424,0.802297,1.79036,0
19350,-1.61278,0.801975,1.78956,0
19370,-1.61239,0.802054,1.78916,0
19390,-1.61239,0.802054,1.78916,0
19410,-1.61216,0.801875,1.78915,0
19430,-1.61225,0.801731,1.78874,0
19450,-1.61268,0.802161,1.78833,0
19470,-1.61362,0.802551,1.78799,0
19490,-1.61407,0.802496,1.78795,0
19510,-1.61358,0.802487,1.78769,0
19530,-1.61283,0.802772,1.78723,0
19550,-1.6121,0.80324,1.78684,0
19570,-1.61207,0.8033,1.78659,0
19590,-1.61181,0.802996,1.78625,0
19610,-1.61097,0.802719,1.78583,0
19630,-1.61086,0.802751,1.78573,0
19650,-1.61154,0.802936,1.78572,0
19670,-1.61143,0.802492,1.78553,0
19690,-1.6107,0.801891,1.78491,0
19710,-1.60981,0.801907,1.78423,0
19730,-1.61023,0.802348,1.78338,0
19750,-1.61045,0.802185,1.78289,0
19770,-1.61065,0.801889,1.78253,0
19790,-1.60979,0.801506,1.78161,0
19810,-1.60996,0.80206,1.78076,0
19830,-1.61097,0.802656,1.78005,0
19850,-1.61155,0.802457,1.77988,0
19870,-1.61132,0.802389,1.78009,0
19890,-1.6114,0.802904,1.77957,0
19910,-1.61135,0.80333,1.77891,0
19930,-1.61121,0.803423,1.77856,0
19950,-1.61049,0.80318,1.77827,0
19970,-1.60964,0.803203,1.77788,0
19990,-1.60891,0.802912,1.77711,0
20010,-1.60667,0.802091,1.77655,0
20030,-1.60226,0.800551,1.77666,0
20040,-1.59729,0.799168,1.77665,0
20060,-1.59257,0.797345,1.77615,0
20080,-1.58612,0.794491,1.7766,0
20100,-1.57497,0.789864,1.77853,0
20120,-1.56138,0.785897,1.78098,0
20140,-1.5456,0.780574,1.78296,0
20160,-1.5274,0.774482,1.78433,0
20180,-1.51335,0.768737,1.78461,0
20200,-1.5029,0.759493,1.78228,0
20220,-1.48513,0.745665,1.78025,0
20240,-1.45874,0.73048,1.77982,0
20260,-1.43233,0.718831,1.77894,0
20280,-1.41123,0.706055,1.77475,0
20300,-1.38679,0.687584,1.7682,0
20320,-1.35573,0.66464,1.76015,0
20340,-1.31446,0.641259,1.75499,0
20360,-1.29182,0.626687,1.7483,0
20380,-1.28744,0.613889,1.73779,0
20400,-1.27623,0.593936,1.72666,0
20420,-1.24752,0.572642,1.72305,0
20440,-1.2081,0.559815,1.72248,0
20460,-1.19346,0.549906,1.72036,0
20480,-1.19436,0.541683,1.71805,0
20500,-1.19809,0.535777,1.72029,0
20520,-1.19254,0.529465,1.7258,0
20540,-1.18338,0.521994,1.72887,0
20560,-1.17177,0.515096,1.73223,0
20580,-1.1648,0.509514,1.73503,0
20600,-1.16516,0.505372,1.73701,0
20620,-1.16876,0.499294,1.73744,0
20640,-1.16979,0.493456,1.74016,0
20660,-1.16577,0.489092,1.74464,0
20680,-1.16328,0.486287,1.74816,0
20700,-1.16319,0.484407,1.75055,0
20720,-1.16212,0.481367,1.75094,0
20740,-1.15851,0.478807,1.7506,0
20760,-1.15289,0.476344,1.74912,0
20780,-1.14776,0.473809,1.74686,0
20800,-1.14164,0.470868,1.74529,0
20820,-1.13355,0.466955,1.74524,0
20840,-1.12495,0.461505,1.74606,0
20860,-1.11946,0.456061,1.74769,0
20880,-1.11496,0.45147,1.75028,0
20900,-1.11252,0.447891,1.75377,0
20920,-1.11089,0.444041,1.75659,0
20940,-1.11198,0.44006,1.75726,0
20960,-1.11301,0.437297,1.75855,0
20980,-1.11062,0.434891,1.76082,0
21000,-1.11283,0.432744,1.7621,0
21020,-1.11509,0.431565,1.7641,0
21040,-1.11824,0.430143,1.76613,0
21060,-1.11963,0.429495,1.76869,0
21080,-1.12035,0.429662,1.77138,0
21100,-1.1219,0.430441,1.774,0
21120,-1.12372,0.431833,1.77608,0
21140,-1.12551,0.433488,1.77737,0
21160,-1.12612,0.436264,1.77826,0
21180,-1.1266,0.439833,1.77794,0
21200,-1.12692,0.444119,1.77712,0
21220,-1.13116,0.446456,1.77527,0
21240,-1.13259,0.449026,1.7765,0
21260,-1.13245,0.450537,1.77754,0
21280,-1.13227,0.452778,1.7787,0
21300,-1.13356,0.455202,1.77856,0
21320,-1.13734,0.457326,1.77764,0
21340,-1.14014,0.457758,1.77667,0
21360,-1.1413,0.458279,1.77555,0
21380,-1.14162,0.466916,1.77492,0
21400,-1.14215,0.466166,1.77296,0
21420,-1.14209,0.465407,1.77182,0
21440,-1.14111,0.464909,1.77109,0
21460,-1.13994,0.463772,1.77056,0
21480,-1.14293,0.463257,1.76499,0
21500,-1.13771,0.463175,1.76435,0
21520,-1.12986,0.462173,1.76651,0
21540,-1.12288,0.462247,1.77083,0
21560,-1.12555,0.464565,1.77041,0
21580,-1.13481,0.468477,1.76825,0
21600,-1.14366,0.469683,1.76785,0
21620,-1.15023,0.468997,1.76766,0
21640,-1.15083,0.468364,1.76775,0
21660,-1.14854,0.468419,1.76791,0
21680,-1.14645,0.468206,1.76827,0
21700,-1.14619,0.468166,1.76822,0
21720,-1.14703,0.467805,1.76833,0
21740,-1.14727,0.467855,1.76878,0
21760,-1.14793,0.467831,1.76887,0
21780,-1.14802,0.467707,1.76876,0
21800,-1.14922,0.468367,1.76838,0
21820,-1.14908,0.468763,1.76848,0
21840,-1.14931,0.468466,1.76784,0
21860,-1.15295,0.46681,1.76615,0
21880,-1.15891,0.467358,1.76444,0
21900,-1.16453,0.467082,1.7632,0
21920,-1.16757,0.467634,1.76273,0
21940,-1.16659,0.468069,1.76298,0
21960,-1.16615,0.46839,1.76253,0
21970,-1.16859,0.469079,1.76187,0
21990,-1.17306,0.469997,1.7616,0
22010,-1.1773,0.470538,1.76112,0
22030,-1.18029,0.470594,1.76086,0
22050,-1.18204,0.470316,1.76075,0
22070,-1.1827,0.470529,1.76082,0
22090,-1.18278,0.471029,1.76062,0
22110,-1.18263,0.470933,1.76062,0
22130,-1.18295,0.470695,1.76064,0
22150,-1.1828,0.470598,1.76065,0
22170,-1.18329,0.470543,1.76041,0
22190,-1.18491,0.470451,1.76006,0
22210,-1.1877,0.47069,1.75986,0
22230,-1.19162,0.470918,1.75994,0
22250,-1.19488,0.471539,1.76024,0
22270,-1.1966,0.472256,1.7606,0
22290,-1.19908,0.47264,1.76102,0
22310,-1.20248,0.472912,1.76126,0
22330,-1.20604,0.473603,1.7612,0
22350,-1.20988,0.474227,1.76101,0
22370,-1.21248,0.474165,1.7608,0
22390,-1.21346,0.474081,1.76073,0
22410,-1.21346,0.474081,1.76073,0
22430,-1.21331,0.473984,1.76074,0
22450,-1.21161,0.474015,1.76057,0
22470,-1.20802,0.473362,1.76064,0
22490,-1.20423,0.47248,1.76042,0
22510,-1.19963,0.471272,1.76057,0
22530,-1.19576,0.470027,1.76039,0
22550,-1.19152,0.46861,1.76014,0
22570,-1.18718,0.46713,1.76006,0
22590,-1.18352,0.465761,1.75987,0
22610,-1.18064,0.464551,1.75981,0
22630,-1.17921,0.463496,1.75958,0
22650,-1.1784,0.462694,1.75943,0
22670,-1.17617,0.46303,1.75978,0
22690,-1.17294,0.46322,1.76054,0
22710,-1.17,0.463233,1.76092,0
22730,-1.16712,0.463466,1.7614,0
22750,-1.16555,0.46292,1.76146,0
22770,-1.16516,0.462576,1.76108,0
22790,-1.16357,0.462057,1.76076,0
22810,-1.16171,0.463484,1.76201,0
22830,-1.15865,0.462482,1.76241,0
22850,-1.1582,0.462198,1.76249,0
22870,-1.15849,0.461427,1.76187,0
22890,-1.15859,0.460327,1.76076,0
22910,-1.15841,0.459299,1.75985,0
22930,-1.15791,0.458225,1.75917,0
22950,-1.15796,0.456885,1.75839,0
22970,-1.15754,0.455794,1.7578,0
22990,-1.1572,0.454884,1.75729,0
23010,-1.15696,0.45395,1.75681,0
23030,-1.15748,0.453038,1.7567,0
23050,-1.15766,0.452277,1.75681,0
23070,-1.15752,0.452181,1.75682,0
23090,-1.1577,0.45142,1.75694,0
23110,-1.1574,0.450649,1.75712,0
23130,-1.15714,0.450611,1.75706,0
23150,-1.15717,0.450572,1.75704,0
23170,-1.15713,0.449927,1.75703,0
23190,-1.15649,0.44923,1.75688,0
23210,-1.15564,0.448715,1.75677,0
23230,-1.15512,0.447763,1.75668,0
23250,-1.15542,0.446944,1.75686,0
23270,-1.15576,0.446082,1.75697,0
23290,-1.15562,0.445986,1.75698,0
23310,-1.15505,0.445377,1.7571,0
23330,-1.15505,0.445377,1.7571,0
23350,-1.15576,0.445475,1.75751,0
23370,-1.15668,0.445586,1.75781,0
23390,-1.15662,0.44577,1.75804,0
23410,-1.15565,0.446206,1.75828,0
23430,-1.155,0.446789,1.75844,0
23450,-1.15486,0.447277,1.75834,0
23470,-1.1547,0.4477,1.75806,0
23490,-1.15426,0.448025,1.75761,0
23510,-1.15356,0.447822,1.75702,0
23530,-1.15291,0.447646,1.75658,0
23550,-1.15234,0.446984,1.75572,0
23570,-1.15111,0.446328,1.75518,0
23590,-1.15009,0.445491,1.75459,0
23610,-1.14879,0.444337,1.75425,0
23630,-1.14749,0.443169,1.75472,0
23650,-1.14666,0.44153,1.75543,0
23670,-1.14544,0.439862,1.75628,0
23690,-1.14412,0.438125,1.75729,0
23710,-1.14234,0.436531,1.7583,0
23730,-1.14055,0.435072,1.75913,0
23750,-1.13846,0.433748,1.75975,0
23770,-1.13672,0.432531,1.76025,0
23780,-1.13551,0.431639,1.76094,0
23800,-1.13512,0.430422,1.76178,0
23820,-1.13445,0.4292,1.76219,0
23840,-1.13306,0.428386,1.76273,0
23860,-1.13138,0.427606,1.76286,0
23880,-1.12953,0.427031,1.7632,0
23900,-1.12753,0.426298,1.76337,0
23920,-1.12582,0.425082,1.76387,0
23940,-1.12399,0.423732,1.76437,0
23960,-1.12173,0.421554,1.76468,0
23980,-1.11915,0.418784,1.76501,0
24000,-1.11681,0.415635,1.76491,0
24020,-1.11531,0.412863,1.76514,0
24040,-1.11457,0.410094,1.76529,0
24060,-1.11375,0.407286,1.76519,0
24080,-1.11278,0.404867,1.7648,0
24100,-1.11165,0.403228,1.76446,0
24120,-1.11087,0.402046,1.76426,0
24140,-1.11049,0.400893,1.76393,0
24160,-1.10987,0.399414,1.7634,0
24180,-1.10958,0.398242,1.76314,0
24200,-1.10935,0.396988,1.7628,0
24220,-1.10909,0.395678,1.76234,0
24240,-1.10778,0.39422,1.76161,0
24260,-1.10638,0.392883,1.76098,0
24280,-1.10528,0.391885,1.76022,0
24300,-1.10459,0.390977,1.75987,0
24320,-1.10395,0.390185,1.75981,0
24340,-1.10328,0.389048,1.75987,0
24360,-1.10262,0.388103,1.75988,0
24380,-1.1026,0.388043,1.75971,0
24400,-1.10336,0.387849,1.75969,0
24420,-1.10347,0.387789,1.75975,0
24440,-1.10332,0.388019,1.7591,0
24460,-1.10258,0.388558,1.75862,0
24480,-1.10257,0.389134,1.75808,0
24500,-1.10301,0.389755,1.7575,0
24520,-1.10376,0.390262,1.75628,0
24540,-1.1043,0.390412,1.7549,0
24560,-1.10428,0.390227,1.75282,0
24580,-1.10387,0.390017,1.75051,0
24600,-1.10425,0.389956,1.74805,0
24620,-1.10441,0.389572,1.74541,0
24640,-1.10391,0.389138,1.74291,0
24660,-1.10294,0.388609,1.74071,0
24680,-1.10258,0.388079,1.73864,0
24700,-1.1021,0.387615,1.73693,0
24720,-1.10162,0.386864,1.7351,0
24740,-1.10056,0.385889,1.73356,0
24760,-1.09915,0.384755,1.73195,0
24780,-1.09768,0.383708,1.73044,0
24800,-1.09566,0.382497,1.72897,0
24820,-1.09342,0.38132,1.72761,0
24840,-1.09143,0.380516,1.72656,0
24860,-1.09029,0.380212,1.72575,0
24880,-1.08964,0.380498,1.72525,0
24900,-1.08869,0.380839,1.72478,0
24920,-1.08825,0.381289,1.72454,0
24940,-1.08856,0.382009,1.72392,0
24960,-1.09,0.38258,1.72272,0
24980,-1.0906,0.382318,1.72104,0
25000,-1.08974,0.381168,1.71853,0
25020,-1.08996,0.38005,1.71531,0
25040,-1.09292,0.378768,1.71119,0
25060,-1.09482,0.37851,1.70604,0
25080,-1.09333,0.37993,1.70198,0
25100,-1.08852,0.382582,1.69905,0
25120,-1.07925,0.384066,1.69467,0
25140,-1.07103,0.385604,1.68848,0
25160,-1.06537,0.386893,1.68117,0
25180,-1.05799,0.388164,1.67651,0
25200,-1.05273,0.390207,1.67514,0
25220,-1.05285,0.390231,1.67639,0
25240,-1.05615,0.385241,1.67747,0
25260,-1.05711,0.374996,1.67572,0
25280,-1.05418,0.360753,1.6746,0
25300,-1.04562,0.342378,1.6742,0
25320,-1.03218,0.320625,1.67512,0
25330,-1.01627,0.296874,1.67711,0
25350,-1.00091,0.271856,1.67879,0
25370,-0.986503,0.246892,1.68032,0
25390,-0.972643,0.2239,1.68176,0
25410,-0.959127,0.202427,1.68323,0
25430,-0.946417,0.182455,1.68493,0
25450,-0.9344,0.164398,1.6877,0
25470,-0.924626,0.148593,1.69128,0
25490,-0.917525,0.134592,1.69528,0
25510,-0.910648,0.122873,1.69913,0
25530,-0.9047,0.113285,1.70221,0
25550,-0.898283,0.10622,1.70412,0
25570,-0.888618,0.101359,1.7066,0
25590,-0.874468,0.0969811,1.70915,0
25610,-0.859439,0.0933553,1.71074,0
25630,-0.845591,0.0919319,1.71209,0
25650,-0.832611,0.0930721,1.71354,0
25670,-0.820745,0.0942369,1.71649,0
25690,-0.810731,0.0943414,1.7208,0
25710,-0.804831,0.0956108,1.72574,0
25730,-0.800203,0.0981384,1.73038,0
25750,-0.795141,0.101023,1.73457,0
25770,-0.789188,0.104139,1.73981,0
25790,-0.783852,0.106952,1.74481,0
25810,-0.779845,0.110622,1.74996,0
25830,-0.779269,0.114938,1.75559,0
25850,-0.779723,0.119011,1.76098,0
25870,-0.779046,0.122906,1.76578,0
25890,-0.776437,0.126394,1.77048,0
25910,-0.775256,0.130908,1.77404,0
25930,-0.775859,0.135432,1.77776,0
25950,-0.777661,0.138702,1.78164,0
25970,-0.778632,0.141785,1.78605,0
25990,-0.775171,0.144844,1.78982,0
26010,-0.771185,0.147727,1.79298,0
26030,-0.766794,0.150777,1.79575,0
26050,-0.761515,0.153294,1.79852,0
26070,-0.758242,0.153962,1.80152,0
26090,-0.758092,0.155191,1.80573,0
26110,-0.761405,0.155994,1.81001,0
26130,-0.76664,0.155836,1.81178,0
26150,-0.769208,0.155366,1.81265,0
26170,-0.76872,0.156199,1.81395,0
26190,-0.767341,0.156793,1.81652,0
26210,-0.767798,0.156066,1.81985,0
26230,-0.770107,0.155522,1.82379,0
26250,-0.773323,0.154312,1.82774,0
26270,-0.777493,0.152539,1.83161,0
26290,-0.781249,0.149272,1.8356,0
26310,-0.785265,0.146553,1.8378,0
26330,-0.785602,0.145838,1.83933,0
26350,-0.784681,0.145664,1.84025,0
26370,-0.784279,0.144737,1.84107,0
26390,-0.784473,0.142809,1.84225,0
26410,-0.785906,0.141704,1.84354,0
26430,-0.785434,0.141421,1.84457,0
26450,-0.783437,0.140237,1.84608,0
26470,-0.783272,0.138409,1.84678,0
26490,-0.784883,0.136704,1.84679,0
26510,-0.785389,0.135614,1.84716,0
26530,-0.784313,0.134055,1.84718,0
26550,-0.782476,0.131735,1.84775,0
26570,-0.781139,0.12945,1.84759,0
26590,-0.781215,0.127021,1.84711,0
26610,-0.781724,0.126139,1.84669,0
26630,-0.780943,0.125343,1.84707,0
26650,-0.779955,0.123135,1.84824,0
26670,-0.780029,0.120849,1.8486,0
26690,-0.779824,0.120064,1.84879,0
26710,-0.779488,0.119636,1.84924,0
26730,-0.77824,0.119045,1.8497,0
26750,-0.777469,0.117555,1.8505,0
26770,-0.777103,0.116552,1.85068,0
26790,-0.775896,0.116461,1.85076,0
26810,-0.773932,0.116107,1.85085,0
26820,-0.771998,0.115092,1.85152,0
26850,-0.770458,0.11438,1.85195,0
26870,-0.769254,0.114354,1.85221,0
26890,-0.768755,0.114598,1.85278,0
26910,-0.767835,0.115134,1.85283,0
26930,-0.766953,0.115418,1.8532,0
26950,-0.766562,0.115337,1.85355,0
26970,-0.76728,0.114836,1.85317,0
26990,-0.767391,0.115525,1.85253,0
27010,-0.767089,0.116698,1.85147,0
27030,-0.76654,0.117216,1.85084,0
27050,-0.767296,0.117348,1.85045,0
27070,-0.767917,0.117513,1.84985,0
27090,-0.769038,0.117631,1.84924,0
27110,-0.770317,0.118245,1.84802,0
27130,-0.771223,0.118422,1.84665,0
27150,-0.772561,0.117665,1.84549,0
27170,-0.773782,0.116649,1.84381,0
27190,-0.774633,0.115297,1.84236,0
27210,-0.775625,0.113929,1.84021,0
27230,-0.776416,0.112792,1.8383,0
27250,-0.777395,0.111904,1.83656,0
27270,-0.777808,0.110531,1.83506,0
27280,-0.779408,0.108012,1.83427,0
27300,-0.781404,0.106458,1.83328,0
27320,-0.782918,0.106112,1.83134,0
27340,-0.783476,0.10531,1.83034,0
27360,-0.784194,0.10404,1.83023,0
27380,-0.786202,0.102955,1.82916,0
27400,-0.78773,0.102655,1.82829,0
27420,-0.788887,0.102517,1.82846,0
27440,-0.79031,0.102743,1.82836,0
27460,-0.791713,0.103693,1.82786,0
27480,-0.792585,0.104446,1.82756,0
27500,-0.793362,0.10504,1.8271,0
27520,-0.794157,0.105611,1.82706,0
27540,-0.796065,0.106248,1.82761,0
27560,-0.799036,0.106859,1.82755,0
27580,-0.800967,0.107597,1.82711,0
27600,-0.801837,0.108225,1.8269,0
27620,-0.803133,0.108619,1.82695,0
27640,-0.805117,0.10972,1.82709,0
27660,-0.807297,0.1106,1.82746,0
27680,-0.809311,0.111264,1.82782,0
27700,-0.811658,0.111675,1.82863,0
27720,-0.81342,0.112031,1.82988,0
27740,-0.814538,0.113153,1.83141,0
27760,-0.816999,0.115048,1.83268,0
27780,-0.821285,0.117017,1.83417,0
27800,-0.8271,0.118879,1.83565,0
27820,-0.832876,0.120212,1.83781,0
27850,-0.839891,0.121865,1.84257,0
27870,-0.845154,0.122967,1.84479,0
27890,-0.850845,0.125173,1.84787,0
27910,-0.856831,0.12773,1.85022,0
27930,-0.863379,0.129825,1.85119,0
27950,-0.866687,0.131407,1.85174,0
27970,-0.867176,0.131959,1.85305,0
28000,-0.86595,0.132514,1.85753,0
28020,-0.867608,0.132387,1.85807,0
28040,-0.870202,0.132635,1.85827,0
28060,-0.87223,0.132765,1.85844,0
28080,-0.872397,0.133015,1.8589,0
28100,-0.871994,0.133145,1.85933,0
28120,-0.872977,0.132862,1.85912,0
28140,-0.875654,0.132387,1.85897,0
28160,-0.878886,0.132262,1.85898,0
28180,-0.880743,0.131982,1.85906,0
28200,-0.881729,0.131698,1.85886,0
28220,-0.882666,0.131248,1.85862,0
28240,-0.884209,0.130608,1.85857,0
28260,-0.885885,0.13038,1.85848,0
28280,-0.887469,0.130254,1.85849,0
28300,-0.888113,0.129681,1.85865,0
28320,-0.889422,0.129052,1.85858,0
28340,-0.890894,0.128133,1.85816,0
28360,-0.892424,0.127572,1.85787,0
28380,-0.89395,0.127046,1.85805,0
28400,-0.896158,0.126346,1.85854,0
28420,-0.897666,0.126088,1.85929,0
28440,-0.898773,0.125853,1.85981,0
28460,-0.899421,0.125282,1.85998,0
28480,-0.900337,0.124907,1.86024,0
28500,-0.900466,0.124611,1.86094,0
28520,-0.900885,0.124472,1.86171,0
28540,-0.901287,0.124374,1.86176,0
28560,-0.901404,0.124311,1.86183,0
28580,-0.901427,0.124272,1.8618,0
28600,-0.902189,0.124269,1.86185,0
28620,-0.903029,0.124434,1.86164,0
28640,-0.903585,0.12471,1.86161,0
28660,-0.90347,0.124927,1.86191,0
28680,-0.903489,0.124773,1.86199,0
28700,-0.903512,0.124734,1.86196,0
28720,-0.903512,0.124734,1.86196,0
28750,-0.90462,0.125095,1.86184,0
28770,-0.905353,0.125629,1.86154,0
28780,-0.905315,0.12586,1.86121,0
28800,-0.904894,0.126112,1.86109,0
28820,-0.904935,0.126588,1.86067,0
28840,-0.90515,0.127283,1.86025,0
28860,-0.905674,0.127829,1.85962,0
28880,-0.906578,0.128391,1.85924,0
28900,-0.907081,0.129051,1.85882,0
28920,-0.907101,0.129565,1.85843,0
28940,-0.907397,0.129837,1.85839,0
28960,-0.908241,0.13,1.85818,0
28980,-0.90947,0.130296,1.85812,0
29000,-0.910378,0.131011,1.85811,0
29020,-0.910915,0.13148,1.85847,0
29040,-0.911103,0.131508,1.85883,0
29080,-0.91156,0.130872,1.85893,0
29100,-0.912134,0.13025,1.85927,0
29110,-0.911741,0.129258,1.8595,0
29130,-0.911377,0.128342,1.8596,0
29150,-0.910994,0.127503,1.85945,0
29170,-0.910955,0.126912,1.85922,0
29190,-0.910583,0.126511,1.85924,0
29210,-0.910607,0.126472,1.85921,0
29230,-0.910607,0.126472,1.85921,0
29250,-0.910508,0.126382,1.85923,0
29270,-0.911123,0.126273,1.85961,0
29290,-0.911142,0.12612,1.85969,0
29310,-0.911142,0.12612,1.85969,0
29330,-0.910949,0.126053,1.85961,0
29350,-0.910949,0.126053,1.85961,0
29370,-0.910983,0.125709,1.86004,0
29390,-0.911123,0.125606,1.86008,0
29410,-0.910542,0.12537,1.86013,0
29430,-0.910468,0.125394,1.86047,0
29450,-0.910347,0.12542,1.86069,0
29460,-0.910615,0.125616,1.86079,0
29480,-0.911137,0.125532,1.86108,0
29500,-0.911189,0.125778,1.86131,0
29520,-0.911248,0.126215,1.86161,0
29540,-0.911263,0.126768,1.86168,0
29560,-0.912014,0.127111,1.86174,0
29580,-0.912606,0.126966,1.86197,0
29600,-0.913396,0.127079,1.86236,0
29620,-0.914418,0.126953,1.86298,0
29640,-0.915387,0.126832,1.86423,0
29660,-0.916831,0.126498,1.86544,0
29680,-0.917987,0.125889,1.86595,0
29700,-0.918021,0.125392,1.86602,0
29720,-0.917619,0.124745,1.86626,0
29730,-0.918253,0.124296,1.86665,0
29750,-0.919242,0.123617,1.86677,0
29780,-0.919553,0.121712,1.86688,0
29800,-0.91919,0.120604,1.8669,0
29820,-0.919117,0.119576,1.86682,0
29840,-0.918874,0.11844,1.86663,0
29860,-0.919209,0.117394,1.86678,0
29880,-0.920153,0.116718,1.86678,0
29900,-0.920718,0.116211,1.86659,0
29920,-0.921279,0.115555,1.86679,0
29940,-0.922343,0.114816,1.86686,0
29960,-0.923986,0.11416,1.86653,0
29980,-0.925614,0.113855,1.86694,0
30000,-0.926717,0.113708,1.86723,0
30020,-0.927722,0.113429,1.86707,0
30040,-0.927856,0.112945,1.86696,0
30060,-0.928015,0.112533,1.86672,0
30080,-0.928752,0.112133,1.86664,0
30100,-0.929948,0.111765,1.86621,0
30120,-0.930806,0.111414,1.86609,0
30140,-0.930731,0.111284,1.86608,0
30160,-0.929953,0.110935,1.86558,0
30170,-0.930047,0.110902,1.86492,0
30190,-0.93086,0.110666,1.86458,0
30210,-0.93177,0.110408,1.86433,0
30230,-0.931928,0.109961,1.86437,0
30250,-0.931503,0.109167,1.86456,0
30270,-0.93208,0.107962,1.86515,0
30290,-0.932873,0.106416,1.86639,0
30310,-0.932767,0.103922,1.86906,0
30330,-0.930303,0.100607,1.87181,0
30350,-0.929369,0.097007,1.87447,0
30370,-0.929488,0.0922461,1.87769,0
30390,-0.931759,0.0873449,1.88135,0
30410,-0.933884,0.0817086,1.88636,0
30430,-0.934837,0.0747692,1.89289,0
30450,-0.933922,0.0665525,1.90025,0
30460,-0.932049,0.0568063,1.90684,0
30480,-0.929772,0.04709,1.91345,0
30500,-0.925199,0.0379387,1.92118,0
30520,-0.922473,0.0280573,1.92818,0
30530,-0.920749,0.0194381,1.93507,0
30550,-0.920502,0.0119669,1.94174,0
30570,-0.919369,0.00509351,1.94867,0
30590,-0.91759,-0.00112829,1.9546,0
30610,-0.916833,-0.0074508,1.96004,0
30630,-0.915491,-0.0128223,1.96518,0
30650,-0.914553,-0.0167646,1.97079,0
30670,-0.912974,-0.019928,1.97638,0
30690,-0.913003,-0.0230185,1.97869,0
30710,-0.914446,-0.0254099,1.98002,0
30730,-0.915408,-0.0265703,1.98285,0
30750,-0.913699,-0.0273707,1.98681,0
30770,-0.913235,-0.0285929,1.98988,0
30790,-0.914627,-0.0294264,1.99261,0
30810,-0.916507,-0.0294043,1.99606,0
30830,-0.91743,-0.0297875,1.9997,0
30850,-0.919318,-0.0306016,2.00218,0
30870,-0.920727,-0.031278,2.00451,0
30890,-0.922136,-0.0315017,2.00746,0
30910,-0.92389,-0.0317587,2.01076,0
30930,-0.925247,-0.0321125,2.01371,0
30950,-0.927055,-0.0328102,2.01584,0
30970,-0.929446,-0.033356,2.01873,0
30990,-0.931402,-0.0334636,2.02218,0
31010,-0.932902,-0.0336132,2.02566,0
31040,-0.91743,-0.0297875,1.9997,0
31060,-0.919318,-0.0306016,2.00218,0
31070,-0.936119,-0.034879,2.03336,0
31090,-0.938179,-0.0362148,2.0373,0
31110,-0.940787,-0.0377794,2.04177,0
31130,-0.942913,-0.0391086,2.0454,0
31150,-0.944568,-0.0408521,2.04894,0
31170,-0.945779,-0.0426505,2.05274,0
31190,-0.946405,-0.0440633,2.05593,0
31210,-0.947262,-0.0459817,2.05903,0
31230,-0.948788,-0.0484608,2.06216,0
31250,-0.949446,-0.0509012,2.0649,0
31270,-0.950102,-0.0527972,2.06779,0
31290,-0.951686,-0.0547329,2.07075,0
31310,-0.953225,-0.0566,2.07286,0
31330,-0.954034,-0.0584146,2.07484,0
31350,-0.95497,-0.0601489,2.0777,0
31370,-0.955674,-0.0621202,2.07987,0
31390,-0.955874,-0.0638393,2.08188,0
31410,-0.956386,-0.0658855,2.08454,0
31430,-0.956699,-0.0680935,2.08693,0
31450,-0.956409,-0.0698212,2.08933,0
31470,-0.955977,-0.0713174,2.09194,0
31490,-0.955406,-0.0731272,2.09437,0
31510,-0.955498,-0.074834,2.09662,0
31530,-0.956475,-0.0765429,2.09886,0
31550,-0.957497,-0.077983,2.10112,0
31570,-0.957123,-0.0791642,2.10379,0
31590,-0.956936,-0.080207,2.10662,0
31610,-0.957429,-0.081381,2.10963,0
31630,-0.958297,-0.08283,2.11198,0
31650,-0.958454,-0.0842371,2.11443,0
31670,-0.957952,-0.0859367,2.11654,0
31690,-0.957806,-0.0879876,2.11781,0
31710,-0.958088,-0.0891265,2.11913,0
31730,-0.958858,-0.0903373,2.12066,0
31750,-0.959414,-0.0911648,2.12229,0
31770,-0.959627,-0.0917157,2.12355,1000
31790,-0.960437,-0.0921906,2.12494,0
31810,-0.961512,-0.0924803,2.1264,0
31830,-0.963221,-0.0929747,2.12763,0
31850,-0.964493,-0.09354,2.1291,0
31870,-0.964688,-0.0942257,2.13059,0
31890,-0.965197,-0.0952049,2.13163,0
31910,-0.965943,-0.096264,2.13273,0
31930,-0.966389,-0.0975781,2.13393,0
31950,-0.966432,-0.0991848,2.13562,0
31970,-0.965941,-0.10074,2.13733,0
31990,-0.966354,-0.102187,2.1391,0
32010,-0.966941,-0.103502,2.14043,0
32030,-0.968643,-0.10468,2.14201,0
32050,-0.970445,-0.10617,2.144,0
32070,-0.971607,-0.107839,2.14555,0
32090,-0.972058,-0.108982,2.14646,0
32110,-0.972653,-0.110179,2.14744,0
32130,-0.973841,-0.111918,2.14802,0
32150,-0.974394,-0.113522,2.14818,0
32170,-0.974451,-0.113746,2.14811,0
32190,-0.974537,-0.113947,2.14817,0
32210,-0.97486,-0.114435,2.14756,0
32230,-0.975709,-0.11492,2.147,0
32250,-0.975938,-0.115256,2.14662,0
32270,-0.975797,-0.115142,2.14613,0
32290,-0.97621,-0.115272,2.14548,0
32310,-0.977108,-0.115371,2.14481,0
32330,-0.978589,-0.11538,2.14462,0
32350,-0.979455,-0.115051,2.14443,0
32370,-0.980205,-0.114833,2.14447,0
32390,-0.981334,-0.114375,2.14477,0
32410,-0.98172,-0.113949,2.14483,0
32430,-0.982466,-0.114347,2.14538,0
32450,-0.982982,-0.115652,2.14581,0
32470,-0.982576,-0.117004,2.14609,0
32490,-0.982139,-0.118008,2.14633,0
32500,-0.982582,-0.119723,2.14675,0
32520,-0.982258,-0.121677,2.14653,0
32540,-0.981193,-0.12316,2.1464,0
32560,-0.980047,-0.124625,2.14593,0
32580,-0.979485,-0.125941,2.14553,0
32600,-0.979285,-0.127094,2.14521,0
32620,-0.978832,-0.128116,2.14486,0
32640,-0.977666,-0.129283,2.1443,0
32660,-0.977319,-0.13051,2.14367,0
32680,-0.978027,-0.131257,2.14254,0
32700,-0.978756,-0.131821,2.14088,0
32720,-0.978567,-0.132861,2.1394,0
32740,-0.978233,-0.133787,2.13741,0
32760,-0.97832,-0.134216,2.13534,0
32780,-0.978716,-0.134631,2.13333,0
32800,-0.979223,-0.135067,2.13085,0
32820,-0.979848,-0.135081,2.12864,0
32840,-0.979726,-0.134296,2.12689,0
32860,-0.979175,-0.133392,2.12519,0
32880,-0.978874,-0.132868,2.12411,0
32900,-0.978997,-0.13257,2.12369,0
32920,-0.978812,-0.132343,2.12363,0
32940,-0.97806,-0.13224,2.12408,0
32960,-0.977861,-0.131937,2.125,0
32980,-0.977293,-0.131982,2.12602,0
33000,-0.976664,-0.131992,2.1273,0
33020,-0.976972,-0.132016,2.12869,0
33040,-0.977335,-0.131893,2.1301,0
33060,-0.976709,-0.131903,2.13139,0
33080,-0.976361,-0.132215,2.13302,0
33100,-0.975587,-0.132861,2.13409,0
33120,-0.975416,-0.133906,2.13593,0
33140,-0.975749,-0.135347,2.13761,0
33160,-0.975993,-0.136713,2.13901,0
33180,-0.97606,-0.138285,2.14067,0
33200,-0.975973,-0.139798,2.14259,0
33220,-0.97636,-0.140978,2.14393,0
33240,-0.976823,-0.141746,2.14529,0
33260,-0.977311,-0.142387,2.14654,0
33280,-0.977827,-0.142634,2.148,0
33300,-0.978808,-0.143162,2.14975,0
33330,-0.979568,-0.143841,2.15342,0
33350,-0.979855,-0.144068,2.15523,0
33370,-0.97984,-0.143998,2.15749,0
33390,-0.98063,-0.143981,2.16002,0
33410,-0.981203,-0.143946,2.16256,0
33430,-0.981168,-0.143819,2.16522,0
33450,-0.98171,-0.143672,2.1682,0
33470,-0.982306,-0.14287,2.17105,0
33490,-0.982469,-0.141958,2.17394,0
33510,-0.982665,-0.141347,2.1774,0
33530,-0.982714,-0.140996,2.18028,0
33550,-0.982942,-0.140626,2.18308,0
33570,-0.984108,-0.140058,2.18628,0
33590,-0.984075,-0.139689,2.18882,0
33610,-0.982786,-0.139807,2.19093,0
33630,-0.981705,-0.140336,2.1933,0
33650,-0.98033,-0.140947,2.19556,0
33670,-0.97896,-0.141879,2.19778,0
33690,-0.977771,-0.142925,2.20019,0
33710,-0.977269,-0.144197,2.2021,0
33730,-0.975614,-0.146116,2.20417,0
33750,-0.974711,-0.148304,2.20679,0
33770,-0.974026,-0.150896,2.20885,0
33790,-0.972828,-0.153688,2.21058,0
33810,-0.971512,-0.156677,2.21271,0
33830,-0.970941,-0.15955,2.21433,0
33850,-0.969949,-0.16211,2.21508,0
33870,-0.968381,-0.164158,2.21672,0
33890,-0.966283,-0.166937,2.2184,0
33910,-0.964605,-0.169489,2.21924,0
33930,-0.964007,-0.171489,2.2203,0
33950,-0.963684,-0.173747,2.22165,0
33970,-0.962958,-0.176013,2.2226,0
33990,-0.961729,-0.178083,2.22308,0
34010,-0.96105,-0.179708,2.22471,0
34030,-0.961026,-0.181782,2.22664,0
34050,-0.961366,-0.183145,2.22827,0
34070,-0.9619,-0.184062,2.22933,0
34090,-0.962336,-0.185043,2.23069,0
34110,-0.962684,-0.186144,2.23231,0
34130,-0.962244,-0.187508,2.23324,0
34150,-0.960976,-0.188922,2.23407,0
34170,-0.95997,-0.190903,2.23466,0
34190,-0.959827,-0.193265,2.23522,0
34210,-0.959508,-0.195582,2.23525,0
34230,-0.959674,-0.198089,2.23525,0
34250,-0.959612,-0.200451,2.235,0
34270,-0.959385,-0.202626,2.2344,0
34290,-0.959317,-0.204933,2.23421,0
34310,-0.958983,-0.207087,2.23327,0
34330,-0.959129,-0.209183,2.23231,0
34350,-0.959997,-0.211425,2.23155,0
34370,-0.960439,-0.213407,2.23001,0
34390,-0.960885,-0.215185,2.22838,0
34410,-0.960952,-0.217452,2.2273,0
34430,-0.961302,-0.219743,2.22572,0
34450,-0.961539,-0.222003,2.22346,0
34470,-0.961824,-0.224336,2.22198,0
34490,-0.962443,-0.226802,2.22006,0
34510,-0.962565,-0.228794,2.21776,0
34530,-0.962179,-0.23067,2.21563,0
34550,-0.962032,-0.2332,2.21345,0
34570,-0.961616,-0.235382,2.21047,0
34590,-0.961799,-0.236882,2.20802,0
34610,-0.961525,-0.238829,2.20587,0
34630,-0.960343,-0.240833,2.20329,0
34650,-0.959758,-0.242144,2.20091,0
34670,-0.959832,-0.243176,2.19837,0
34690,-0.959953,-0.24427,2.19628,0
34710,-0.9601,-0.245079,2.19394,0
34730,-0.960211,-0.245642,2.19146,0
34750,-0.959698,-0.246729,2.18928,0
34770,-0.959026,-0.248159,2.18715,0
34790,-0.959418,-0.249434,2.18473,0
34810,-0.959661,-0.250898,2.18188,0
34830,-0.959734,-0.252649,2.17914,0
34850,-0.959751,-0.254496,2.17643,0
34870,-0.959891,-0.256475,2.17364,0
34890,-0.960423,-0.257997,2.1707,0
34910,-0.961598,-0.259088,2.16811,0
34930,-0.963058,-0.260685,2.16518,0
34950,-0.96443,-0.262405,2.16249,0
34970,-0.965516,-0.26434,2.15994,0
34990,-0.96705,-0.26794,2.15474,0
35010,-0.96745,-0.27028,2.15212,0
35030,-0.968255,-0.272228,2.14931,0
35050,-0.970041,-0.273844,2.1465,0
35070,-0.971374,-0.276013,2.14387,0
35090,-0.971625,-0.278308,2.14118,0
35110,-0.971907,-0.280323,2.13826,0
35130,-0.972948,-0.28218,2.13539,0
35150,-0.974259,-0.283399,2.13251,0
35170,-0.974735,-0.284482,2.12935,0
35190,-0.974175,-0.285266,2.1261,0
35210,-0.973567,-0.286201,2.12284,0
35230,-0.973026,-0.287365,2.11953,0
35250,-0.972622,-0.288206,2.11606,0
35270,-0.972643,-0.289571,2.11272,0
35290,-0.972052,-0.291148,2.10911,0
35310,-0.971878,-0.292339,2.10531,0
35330,-0.971972,-0.293673,2.10158,0
35350,-0.972229,-0.295129,2.09757,0
35370,-0.972167,-0.296273,2.09318,0
35390,-0.972109,-0.297421,2.08879,0
35410,-0.971569,-0.298649,2.08402,0
35430,-0.970812,-0.299777,2.07895,0
35450,-0.970379,-0.300899,2.07396,0
35470,-0.970142,-0.302069,2.06855,0
35490,-0.969832,-0.303146,2.06298,0
35510,-0.968886,-0.304496,2.05696,0
35530,-0.96719,-0.306094,2.0508,0
35550,-0.965931,-0.307962,2.04411,0
35570,-0.964423,-0.309738,2.03732,0
35590,-0.962351,-0.311681,2.03084,0
35610,-0.959886,-0.31403,2.02462,0
35630,-0.957224,-0.316452,2.01796,0
35650,-0.955104,-0.318712,2.01201,0
35670,-0.953146,-0.320843,2.00609,0
35690,-0.950943,-0.323064,2.00026,0
35710,-0.948134,-0.325382,1.99464,0
35730,-0.944858,-0.327614,1.98884,0
35750,-0.94214,-0.330263,1.9832,0
35770,-0.939733,-0.332722,1.97747,0
35790,-0.937094,-0.334752,1.97133,0
35810,-0.934619,-0.336711,1.96551,0
35820,-0.931923,-0.33868,1.95995,0
35840,-0.92956,-0.340328,1.9545,0
35860,-0.92645,-0.34199,1.94882,0
35880,-0.923645,-0.343844,1.94332,0
35900,-0.921064,-0.345041,1.93749,0
35920,-0.918745,-0.345952,1.93182,0
35940,-0.915932,-0.347088,1.92662,0
35960,-0.912832,-0.348067,1.92122,0
35980,-0.910292,-0.349349,1.91577,0
36000,-0.908139,-0.350303,1.91025,0
36020,-0.905572,-0.350953,1.90492,0
36040,-0.903219,-0.351775,1.89986,0
36060,-0.900927,-0.352633,1.89459,0
36080,-0.898306,-0.353347,1.88932,0
36100,-0.89532,-0.354239,1.88433,0
36120,-0.89236,-0.35555,1.87979,0
36140,-0.889389,-0.357048,1.87543,0
36160,-0.887132,-0.358306,1.87103,0
36180,-0.885056,-0.359685,1.86724,0
36200,-0.883178,-0.361058,1.86426,0
36220,-0.881941,-0.362352,1.86162,0
36240,-0.881031,-0.363914,1.85847,0
36260,-0.880268,-0.365303,1.8553,0
36280,-0.879164,-0.366857,1.85255,0
36300,-0.877307,-0.368528,1.84902,0
36320,-0.874511,-0.370053,1.84497,0
36340,-0.871956,-0.371996,1.84113,0
36360,-0.868829,-0.374488,1.83722,0
36380,-0.864782,-0.37688,1.83244,0
36400,-0.862019,-0.379304,1.82774,0
36420,-0.859785,-0.381309,1.82362,0
36440,-0.85633,-0.383303,1.81887,0
36460,-0.852862,-0.385287,1.81446,0
36480,-0.849465,-0.387246,1.81038,0
36500,-0.846298,-0.38881,1.80562,0
36520,-0.843839,-0.389844,1.80105,0
36540,-0.841678,-0.390221,1.79781,0
36560,-0.838979,-0.390814,1.79456,0
36580,-0.836855,-0.391239,1.79182,0
36600,-0.834852,-0.391688,1.78954,0
36620,-0.833302,-0.391944,1.78733,0
36640,-0.832293,-0.392035,1.78545,0
36670,-0.829712,-0.392143,1.78226,0
36690,-0.828856,-0.392446,1.78164,0
36710,-0.82749,-0.392842,1.78085,0
36730,-0.826372,-0.393343,1.77979,0
36750,-0.825618,-0.393742,1.77913,0
36770,-0.82563,-0.393741,1.7788,0
36790,-0.825275,-0.39371,1.77775,0
36810,-0.82375,-0.393203,1.77698,0
36830,-0.822534,-0.392734,1.77628,0
36850,-0.822127,-0.392028,1.77552,0
36870,-0.821068,-0.390641,1.7746,0
36890,-0.819926,-0.389089,1.77423,0
36910,-0.818617,-0.387906,1.77369,0
36930,-0.817885,-0.386549,1.77365,0
36950,-0.818228,-0.384516,1.77307,0
36970,-0.818652,-0.3824,1.77248,0
36990,-0.818284,-0.379755,1.77174,0
37010,-0.817304,-0.377043,1.77007,0
37030,-0.817063,-0.374061,1.76887,0
37050,-0.816715,-0.370867,1.76695,0
37070,-0.817443,-0.367683,1.7655,0
37090,-0.817903,-0.364392,1.76417,0
37110,-0.819081,-0.360852,1.76284,0
37150,-0.819191,-0.35521,1.76129,0
37170,-0.818739,-0.353546,1.76095,0
37190,-0.819402,-0.351149,1.75974,0
37210,-0.82124,-0.348741,1.75913,0
37230,-0.822433,-0.346507,1.75934,0
37250,-0.822789,-0.344572,1.75945,0
37270,-0.823469,-0.342966,1.75987,0
37290,-0.8243,-0.340959,1.76,0
37310,-0.825184,-0.339791,1.76106,0
37330,-0.826141,-0.339081,1.76298,0
37350,-0.827481,-0.338147,1.76466,0
37370,-0.829202,-0.337168,1.76637,0
37390,-0.830679,-0.336065,1.76884,0
37410,-0.832415,-0.334708,1.77095,0
37430,-0.834208,-0.333328,1.7724,0
37450,-0.835461,-0.331806,1.77374,0
37470,-0.836513,-0.330087,1.77517,0
37490,-0.837621,-0.328353,1.77643,0
37510,-0.838292,-0.326499,1.77754,0
37530,-0.838919,-0.324532,1.77852,0
37550,-0.838976,-0.322366,1.77925,0
37570,-0.838951,-0.320465,1.78028,0
37590,-0.83953,-0.319307,1.78177,0
37610,-0.840726,-0.318027,1.78355,0
37630,-0.842504,-0.316643,1.78548,0
37650,-0.844625,-0.315334,1.78808,0
37670,-0.847049,-0.313882,1.79046,0
37690,-0.84929,-0.312591,1.79318,0
37710,-0.851537,-0.312135,1.79654,0
37730,-0.853315,-0.3114,1.79932,0
37750,-0.854411,-0.310672,1.802,0
37760,-0.85472,-0.309936,1.80464,0
37780,-0.855413,-0.309074,1.80733,0
37800,-0.856025,-0.307944,1.80994,0
37820,-0.856874,-0.30709,1.81339,0
37840,-0.858058,-0.30572,1.81668,0
37860,-0.859788,-0.303747,1.81988,0
37880,-0.86171,-0.30219,1.82408,0
37900,-0.863845,-0.300695,1.82838,0
37920,-0.866047,-0.299231,1.83248,0
37940,-0.867284,-0.297682,1.83659,0
37960,-0.869342,-0.296257,1.84092,0
37980,-0.871671,-0.294323,1.84475,0
38000,-0.873566,-0.292079,1.84862,0
38020,-0.8758,-0.290094,1.85248,0
38040,-0.877875,-0.287547,1.85619,0
38060,-0.879219,-0.285095,1.85996,0
38080,-0.880862,-0.283043,1.8639,0
38100,-0.88289,-0.280804,1.86757,0
38120,-0.884906,-0.278685,1.87104,0
38140,-0.886148,-0.277006,1.87458,0
38160,-0.887829,-0.275049,1.87816,0
38180,-0.889957,-0.273438,1.88168,0
38200,-0.89206,-0.271639,1.88577,0
38220,-0.894271,-0.269804,1.88948,0
38240,-0.896176,-0.267941,1.89314,0
38260,-0.897883,-0.266439,1.89732,0
38280,-0.899541,-0.264526,1.90126,0
38300,-0.901502,-0.262253,1.90567,0
38320,-0.903702,-0.260557,1.91056,0
38340,-0.90565,-0.258597,1.91461,0
38360,-0.90785,-0.256469,1.91907,0
38380,-0.910112,-0.254732,1.92432,0
38400,-0.912608,-0.252854,1.92899,0
38420,-0.914791,-0.250233,1.93307,0
38440,-0.916857,-0.247883,1.93766,0
38460,-0.919032,-0.245914,1.94232,0
38480,-0.921062,-0.243453,1.94645,0
38500,-0.92305,-0.241054,1.95074,0
38520,-0.925615,-0.239243,1.95524,0
38540,-0.928006,-0.237061,1.95935,0
38560,-0.930318,-0.234779,1.96372,0
38580,-0.933081,-0.232751,1.968,0
38600,-0.935113,-0.230387,1.97161,0
38620,-0.937358,-0.228473,1.97612,0
38640,-0.939951,-0.226493,1.98052,0
38660,-0.941975,-0.224355,1.98428,0
38680,-0.944267,-0.222223,1.98884,0
38700,-0.946749,-0.220379,1.99344,0
38720,-0.949648,-0.218537,1.99857,0
38740,-0.952577,-0.216562,2.00358,0
38760,-0.955507,-0.214819,2.00873,0
38780,-0.958557,-0.213508,2.01433,0
38800,-0.961666,-0.212412,2.01988,0
38810,-0.965603,-0.21079,2.03062,0
38830,-0.96771,-0.210501,2.03633,0
38850,-0.969778,-0.210299,2.04174,0
38870,-0.971165,-0.210182,2.04707,0
38890,-0.97387,-0.210632,2.05343,0
38910,-0.976598,-0.210775,2.05894,0
38930,-0.979104,-0.210688,2.06459,0
38950,-0.981707,-0.210984,2.07096,0
38970,-0.984565,-0.210924,2.07711,0
38990,-0.987351,-0.210831,2.08294,0
39010,-0.989637,-0.210822,2.08862,0
39030,-0.991971,-0.21097,2.09463,0
39050,-0.994351,-0.211355,2.10047,0
39070,-0.996645,-0.211847,2.10576,0
39090,-0.998858,-0.212304,2.11153,0
39110,-1.0014,-0.212419,2.1174,0
39130,-1.00318,-0.213073,2.12307,0
39150,-1.00481,-0.213978,2.12896,0
39170,-1.00749,-0.214342,2.13525,0
39190,-1.00977,-0.214512,2.14095,0
39210,-1.01185,-0.215275,2.14741,0
39230,-1.01674,-0.215947,2.15523,0
39250,-1.0218,-0.215634,2.16296,0
39270,-1.02694,-0.21474,2.17092,0
39290,-1.03205,-0.213592,2.17863,0
39310,-1.03669,-0.213289,2.18673,0
39330,-1.03988,-0.213791,2.19476,0
39350,-1.04149,-0.215143,2.20179,0
39370,-1.04226,-0.217177,2.2085,0
39390,-1.04444,-0.219641,2.21547,0
39410,-1.04647,-0.22252,2.22165,0
39430,-1.04775,-0.225796,2.2271,0
39450,-1.04913,-0.22963,2.23305,0
39470,-1.05048,-0.234029,2.23905,0
39490,-1.05147,-0.238631,2.24453,0
39510,-1.05306,-0.242885,2.24992,0
39530,-1.05496,-0.247468,2.2554,0
39550,-1.05719,-0.252432,2.26063,0
39570,-1.05906,-0.257265,2.26547,0
39590,-1.06113,-0.262082,2.27017,0
39610,-1.06303,-0.266877,2.27525,0
39630,-1.06447,-0.271941,2.28003,0
39650,-1.06629,-0.276671,2.28413,0
39670,-1.06885,-0.280885,2.28818,0
39690,-1.07098,-0.284654,2.29214,0
39710,-1.07172,-0.287961,2.29563,0
39730,-1.07189,-0.291116,2.29915,0
39750,-1.07386,-0.294188,2.30306,0
39770,-1.07564,-0.296734,2.30616,0
39790,-1.07668,-0.298792,2.309,0
39810,-1.078,-0.300601,2.31317,0
39830,-1.07839,-0.30334,2.31674,0
39850,-1.07832,-0.305481,2.31923,0
39870,-1.0796,-0.306945,2.32223,0
39890,-1.08111,-0.308336,2.32475,0
39910,-1.08173,-0.309599,2.32706,0
39930,-1.08112,-0.311039,2.32975,0
39950,-1.08134,-0.312634,2.33277,0
39970,-1.08192,-0.314764,2.33466,0
39990,-1.08237,-0.316072,2.33694,0
40010,-1.08354,-0.317675,2.34097,0
40030,-1.08402,-0.320272,2.34388,0
40050,-1.08423,-0.322861,2.34606,0
40070,-1.08522,-0.324416,2.34935,0
40090,-1.0867,-0.326348,2.35309,0
40110,-1.08783,-0.327846,2.35674,0
40130,-1.08916,-0.328792,2.36023,0
40150,-1.09163,-0.329723,2.36417,0
40170,-1.09454,-0.330875,2.3678,0
40190,-1.09708,-0.331781,2.37082,0
40210,-1.09807,-0.332666,2.37319,0
40230,-1.09918,-0.334281,2.37576,0
40250,-1.09977,-0.336352,2.37824,0
40270,-1.10126,-0.338006,2.38034,0
40290,-1.10204,-0.339697,2.38191,0
40310,-1.10268,-0.342141,2.38355,0
40330,-1.10325,-0.344814,2.3847,0
40350,-1.10299,-0.347795,2.38474,0
40370,-1.10307,-0.350768,2.38461,0
40390,-1.10389,-0.352892,2.38496,0
40410,-1.10489,-0.354958,2.38505,0
40430,-1.10513,-0.357151,2.38423,0
40450,-1.1059,-0.35916,2.38333,0
40470,-1.10804,-0.361087,2.38424,0
40490,-1.10902,-0.363303,2.38411,0
40510,-1.11016,-0.3657,2.38362,0
40530,-1.11203,-0.368384,2.38322,0
40550,-1.11416,-0.371458,2.38223,0
40570,-1.1159,-0.373856,2.3804,0
40590,-1.11708,-0.375812,2.37879,0
40610,-1.11839,-0.378295,2.37761,0
40630,-1.1203,-0.381782,2.37586,0
40650,-1.1217,-0.384797,2.37327,0
40670,-1.12324,-0.387006,2.3705,0
40690,-1.125,-0.389368,2.36879,0
40710,-1.1258,-0.392837,2.36603,0
40730,-1.1268,-0.396369,2.36244,0
40750,-1.12901,-0.39927,2.35896,0
40770,-1.13118,-0.402471,2.35481,0
40790,-1.13232,-0.405845,2.35032,0
40810,-1.1329,-0.409322,2.34568,0
40830,-1.13364,-0.413464,2.34112,0
40850,-1.1341,-0.417832,2.33641,0
40870,-1.13494,-0.422205,2.33134,0
40890,-1.13587,-0.426323,2.32634,0
40910,-1.13736,-0.430742,2.32181,0
40930,-1.13833,-0.434571,2.31698,0
40950,-1.13852,-0.4384,2.31168,0
40970,-1.13935,-0.442177,2.30666,0
40990,-1.14103,-0.445884,2.30219,0
41010,-1.142,-0.449977,2.2967,0
41030,-1.14221,-0.453149,2.29078,0
41050,-1.14252,-0.456074,2.28515,0
41070,-1.14133,-0.459731,2.27938,0
41080,-1.13996,-0.463394,2.27322,0
41100,-1.13894,-0.466189,2.26619,0
41120,-1.13791,-0.468938,2.25966,0
41140,-1.13678,-0.471902,2.25366,0
41160,-1.13466,-0.474777,2.24695,0
41180,-1.13189,-0.477804,2.23977,0
41200,-1.12999,-0.480858,2.23362,0
41220,-1.12742,-0.483282,2.22706,0
41240,-1.12399,-0.48567,2.21981,0
41260,-1.12091,-0.48898,2.21281,0
41280,-1.11826,-0.491929,2.20649,0
41300,-1.1155,-0.49464,2.2004,0
41320,-1.1125,-0.497597,2.19373,0
41340,-1.10938,-0.500603,2.18769,0
41360,-1.10622,-0.503762,2.18142,0
41380,-1.10268,-0.507378,2.17498,0
41400,-1.09939,-0.51087,2.16858,0
41420,-1.09649,-0.51401,2.16242,0
41440,-1.09407,-0.516855,2.15648,0
41460,-1.09143,-0.519733,2.151,0
41480,-1.08867,-0.522814,2.14601,0
41500,-1.08636,-0.525967,2.14127,0
41520,-1.08416,-0.529205,2.13641,0
41540,-1.0822,-0.532338,2.1318,0
41560,-1.08006,-0.535334,2.12765,0
41580,-1.07762,-0.538679,2.12318,0
41600,-1.07499,-0.542318,2.11891,0
41620,-1.07288,-0.545217,2.11471,0
41640,-1.07094,-0.547795,2.10954,0
41660,-1.06925,-0.550204,2.10489,0
41680,-1.06672,-0.552308,2.1,0
41700,-1.06334,-0.554177,2.0948,0
41720,-1.05968,-0.556598,2.08983,0
41740,-1.05645,-0.559053,2.08467,0
41760,-1.05316,-0.56157,2.07879,0
41780,-1.04915,-0.564076,2.07219,0
41800,-1.0451,-0.566369,2.06527,0
41820,-1.04019,-0.568049,2.0578,0
41840,-1.0339,-0.569442,2.04897,0
41860,-1.0274,-0.570619,2.04006,0
41880,-1.02108,-0.570894,2.03109,0
41900,-1.0146,-0.571222,2.02214,0
41920,-1.00799,-0.571711,2.01314,0
41940,-1.00231,-0.572105,2.00468,0
41960,-0.99709,-0.572528,1.99606,0
41980,-0.991892,-0.57214,1.9874,0
42000,-0.986743,-0.571587,1.97918,0
42020,-0.981934,-0.571188,1.97112,0
42040,-0.977074,-0.570858,1.96279,0
42060,-0.972354,-0.570612,1.95468,0
42080,-0.968981,-0.569675,1.94723,0
42100,-0.965428,-0.56888,1.94069,0
42120,-0.961439,-0.568248,1.93442,0
42140,-0.956926,-0.567573,1.92754,0
42160,-0.95298,-0.566828,1.92082,0
42180,-0.94913,-0.565148,1.91378,0
42200,-0.944476,-0.56353,1.90658,0
42220,-0.940156,-0.562351,1.89959,0
42240,-0.936065,-0.561422,1.89211,0
42260,-0.932009,-0.560553,1.88463,0
42280,-0.929246,-0.559535,1.87828,0
42300,-0.926659,-0.558613,1.87262,0
42320,-0.923813,-0.55804,1.86673,0
42340,-0.921559,-0.557139,1.86075,0
42360,-0.919972,-0.555704,1.85513,0
42380,-0.918603,-0.554001,1.85026,0
42400,-0.916025,-0.552813,1.84491,0
42420,-0.91275,-0.551562,1.83867,0
42440,-0.909526,-0.550362,1.83191,0
42460,-0.906655,-0.548921,1.82514,0
42480,-0.903865,-0.54672,1.81942,0
42500,-0.900173,-0.545453,1.81377,0
42520,-0.896999,-0.544034,1.80856,0
42540,-0.894812,-0.54233,1.8032,0
42560,-0.892568,-0.540446,1.79806,0
42580,-0.890557,-0.538766,1.79375,0
42600,-0.889199,-0.536971,1.78935,0
42620,-0.888285,-0.535391,1.78523,0
42640,-0.887695,-0.534054,1.7816,0
42660,-0.887306,-0.532464,1.77877,0
42680,-0.886601,-0.530365,1.77589,0
42700,-0.885655,-0.528596,1.77355,0
42720,-0.885154,-0.526373,1.77168,0
42740,-0.88542,-0.524018,1.76983,0
42760,-0.885602,-0.521542,1.76903,0
42780,-0.885908,-0.51943,1.76838,0
42800,-0.886517,-0.517169,1.76816,0
42820,-0.886898,-0.515554,1.76833,0
42840,-0.887316,-0.513667,1.7685,0
42860,-0.888493,-0.511649,1.76868,0
42880,-0.88973,-0.509417,1.76888,0
42900,-0.890597,-0.507214,1.76946,0
42920,-0.891334,-0.504328,1.76979,0
42940,-0.892533,-0.501453,1.77034,0
42950,-0.894915,-0.498195,1.77119,0
42980,-0.896563,-0.494758,1.77135,0
43000,-0.897802,-0.491824,1.77141,0
43010,-0.898965,-0.489682,1.77195,0
43030,-0.90046,-0.48687,1.77246,0
43050,-0.902706,-0.483864,1.77299,0
43070,-0.904765,-0.481588,1.77469,0
43090,-0.906447,-0.479252,1.77514,0
43110,-0.907595,-0.476844,1.77618,0
43130,-0.907704,-0.474564,1.7776,0
43150,-0.908483,-0.472882,1.7792,0
43170,-0.909466,-0.471289,1.78042,0
43190,-0.910741,-0.46955,1.78175,0
43210,-0.91293,-0.468058,1.78402,0
43220,-0.915168,-0.466596,1.78678,0
43250,-0.918777,-0.463396,1.78987,0
43270,-0.92045,-0.462142,1.79257,0
43290,-0.922017,-0.46105,1.79512,0
43310,-0.923159,-0.459648,1.79678,0
43330,-0.924207,-0.458924,1.79827,0
43350,-0.924851,-0.457833,1.80035,0
43370,-0.925408,-0.456564,1.80262,0
43390,-0.927221,-0.455548,1.80461,0
43400,-0.92822,-0.454826,1.80628,0
43420,-0.928519,-0.453635,1.80828,0
43440,-0.929049,-0.452896,1.81038,0
43460,-0.929898,-0.452839,1.8127,0
43480,-0.930823,-0.452199,1.81439,0
43500,-0.932483,-0.450901,1.81608,0
43520,-0.934461,-0.449761,1.81807,0
43540,-0.935256,-0.448758,1.81995,0
43560,-0.936063,-0.447575,1.82134,0
43580,-0.936651,-0.446457,1.8226,0
43600,-0.937559,-0.445551,1.82446,0
43620,-0.938479,-0.444906,1.82614,0
43640,-0.937791,-0.44369,1.8275,0
43660,-0.937426,-0.442886,1.82931,0
43680,-0.938447,-0.442077,1.83114,0
43700,-0.940013,-0.440791,1.83288,0
43720,-0.941468,-0.439004,1.83499,0
43740,-0.943802,-0.437263,1.83773,0
43760,-0.947425,-0.435708,1.84103,0
43780,-0.950482,-0.43387,1.84397,0
43800,-0.954207,-0.431493,1.84729,0
43820,-0.958213,-0.429548,1.85054,0
43840,-0.961146,-0.427815,1.85296,0
43860,-0.962564,-0.425934,1.85542,0
43880,-0.963494,-0.42354,1.85801,0
43900,-0.96541,-0.42243,1.86015,0
43920,-0.966596,-0.420955,1.86214,0
43940,-0.967907,-0.419235,1.86445,0
43960,-0.96898,-0.417508,1.86698,0
43980,-0.969828,-0.41643,1.86953,0
44000,-0.97064,-0.415181,1.87176,0
44020,-0.971504,-0.413958,1.8745,0
44040,-0.973131,-0.412804,1.87777,0
44060,-0.975133,-0.411295,1.88059,0
44080,-0.976962,-0.409681,1.88395,0
44100,-0.979116,-0.408396,1.88779,0
44120,-0.981593,-0.407098,1.89104,0
44140,-0.983597,-0.405419,1.89438,0
44160,-0.985035,-0.403897,1.89803,0
44180,-0.986725,-0.402452,1.90111,0
44200,-0.988127,-0.400585,1.90393,0
44220,-0.988993,-0.399376,1.90739,0
44240,-0.990011,-0.398584,1.91063,0
44260,-0.991468,-0.396955,1.91343,0
44280,-0.993252,-0.394767,1.91618,0
44300,-0.994529,-0.392408,1.91907,0
44320,-0.996365,-0.3899,1.92267,0
44340,-0.99782,-0.387769,1.92632,0
44360,-0.999678,-0.385342,1.92925,0
44380,-1.00257,-0.382432,1.93242,0
44400,-1.00537,-0.379529,1.93597,0
44420,-1.00722,-0.376936,1.93941,0
44440,-1.00831,-0.37448,1.94251,0
44460,-1.00903,-0.372589,1.94586,0
44480,-1.00987,-0.370801,1.94886,0
44500,-1.01093,-0.369091,1.95146,0
44520,-1.01213,-0.368133,1.95487,0
44540,-1.01319,-0.36732,1.95762,0
44560,-1.01338,-0.366418,1.96025,0
44580,-1.0141,-0.36621,1.96364,0
44600,-1.01545,-0.365631,1.96613,0
44620,-1.01698,-0.364479,1.96841,0
44640,-1.01932,-0.363523,1.97156,0
44660,-1.02144,-0.362692,1.9735,0
44680,-1.02335,-0.360882,1.97571,0
44700,-1.02587,-0.359408,1.97862,0
44720,-1.02877,-0.358101,1.98058,0
44740,-1.03111,-0.356683,1.98214,0
44760,-1.03311,-0.3552,1.98467,0
44780,-1.03499,-0.353785,1.9867,0
44800,-1.03657,-0.352132,1.989,0
44820,-1.03822,-0.350558,1.99179,0
44840,-1.04051,-0.348749,1.99462,0
44860,-1.04399,-0.346628,1.9977,0
44880,-1.04778,-0.343661,2.001,0
44900,-1.05136,-0.34082,2.00445,0
44920,-1.05505,-0.338272,2.00869,0
44940,-1.05953,-0.335645,2.01258,0
44960,-1.06379,-0.332864,2.01587,0
44980,-1.06791,-0.330133,2.02002,0
45000,-1.0733,-0.327096,2.02463,0
45020,-1.07869,-0.323876,2.02976,0
45040,-1.08232,-0.320986,2.03446,0
45060,-1.08407,-0.318257,2.03819,0
45080,-1.08569,-0.316173,2.04178,0
45100,-1.08849,-0.314337,2.04566,0
45120,-1.09073,-0.312883,2.04891,0
45140,-1.09134,-0.31187,2.05173,0
45160,-1.09118,-0.311175,2.05507,0
45180,-1.09241,-0.311197,2.05844,0
45200,-1.09404,-0.310401,2.061,0
45220,-1.09586,-0.309524,2.0646,0
45240,-1.09624,-0.309337,2.06809,0
45260,-1.09629,-0.309223,2.07144,0
45280,-1.09696,-0.309185,2.07503,0
45300,-1.09833,-0.30978,2.07882,0
45320,-1.09958,-0.310548,2.08269,0
45340,-1.10054,-0.310994,2.08626,0
45360,-1.10094,-0.312284,2.09041,0
45380,-1.10138,-0.313721,2.09417,0
45400,-1.10173,-0.315158,2.09758,0
45420,-1.10329,-0.317236,2.1021,0
45440,-1.10459,-0.319207,2.10586,0
45460,-1.10449,-0.320919,2.10911,0
45480,-1.10446,-0.323145,2.11354,0
45500,-1.10609,-0.326445,2.11764,0
45520,-1.10764,-0.329222,2.1211,0
45540,-1.10899,-0.330961,2.12443,0
45560,-1.10955,-0.333084,2.12807,0
45580,-1.10874,-0.335921,2.13204,0
45600,-1.10679,-0.338909,2.13486,0
45620,-1.10698,-0.341666,2.13931,0
45640,-1.10961,-0.345027,2.1447,0
45660,-1.11265,-0.347446,2.14921,0
45680,-1.11549,-0.349465,2.15414,0
45700,-1.11861,-0.351515,2.16034,0
45720,-1.12255,-0.354711,2.16659,0
45740,-1.12537,-0.35798,2.17154,0
45760,-1.12712,-0.361244,2.17697,0
45780,-1.1308,-0.364335,2.1846,0
45800,-1.13497,-0.367708,2.19168,0
45820,-1.13886,-0.37056,2.19792,0
45840,-1.14281,-0.373355,2.20512,0
45860,-1.14753,-0.376604,2.21339,0
45880,-1.15134,-0.379982,2.22038,0
45900,-1.15547,-0.383223,2.22743,0
45920,-1.1606,-0.386467,2.23524,0
45940,-1.16535,-0.390209,2.24222,0
45960,-1.16928,-0.39387,2.24896,0
45980,-1.17431,-0.397341,2.25691,0
46000,-1.17987,-0.400914,2.26457,0
46020,-1.18478,-0.404074,2.27052,0
46040,-1.18937,-0.40683,2.27608,0
46060,-1.19443,-0.40861,2.28227,0
46080,-1.19858,-0.410451,2.28746,0
46100,-1.202,-0.411512,2.2918,0
46120,-1.20555,-0.412289,2.29601,0
46140,-1.20952,-0.412923,2.3003,0
46160,-1.21248,-0.412909,2.30423,0
46180,-1.21465,-0.413158,2.30802,0
46200,-1.21651,-0.413785,2.31216,0
46220,-1.21932,-0.414283,2.3161,0
46240,-1.22262,-0.414375,2.32008,0
46260,-1.22576,-0.415068,2.324,0
46280,-1.22726,-0.41589,2.32751,0
46300,-1.22886,-0.416364,2.33136,0
46320,-1.23202,-0.416805,2.33601,0
46340,-1.2354,-0.417284,2.34036,0
46360,-1.23868,-0.417794,2.34507,0
46370,-1.2423,-0.418256,2.35055,0
46390,-1.24607,-0.418937,2.35585,0
46410,-1.24913,-0.419275,2.36044,0
46430,-1.25194,-0.419732,2.36505,0
46450,-1.25467,-0.42078,2.36928,0
46470,-1.25731,-0.42226,2.37326,0
46490,-1.26002,-0.424236,2.37702,0
46510,-1.26276,-0.426282,2.38051,0
46530,-1.26505,-0.428133,2.38374,0
46550,-1.26667,-0.429836,2.3871,0
46570,-1.26857,-0.431998,2.39007,0
46590,-1.27044,-0.433892,2.39235,0
46610,-1.27201,-0.435572,2.39425,0
46630,-1.27425,-0.437493,2.39654,0
46650,-1.27537,-0.438982,2.39818,0
46670,-1.27721,-0.439832,2.39977,0
46690,-1.2798,-0.440397,2.40156,0
46710,-1.28172,-0.440973,2.40289,0
46730,-1.28358,-0.441815,2.40428,0
46750,-1.28499,-0.442993,2.40593,0
46770,-1.28623,-0.444281,2.40734,0
46790,-1.28767,-0.446139,2.40848,0
46810,-1.28899,-0.447927,2.40946,0
46830,-1.2904,-0.450297,2.41024,0
46850,-1.291,-0.452898,2.41108,0
46870,-1.29226,-0.454963,2.41227,0
46890,-1.29371,-0.458029,2.41319,0
46910,-1.29429,-0.461764,2.41379,0
46930,-1.29557,-0.464782,2.41483,0
46950,-1.29731,-0.468088,2.41637,0
46970,-1.29921,-0.471464,2.4186,0
46990,-1.3006,-0.474752,2.42031,0
47010,-1.30288,-0.47737,2.42207,0
47030,-1.30681,-0.479641,2.42494,0
47050,-1.31115,-0.482172,2.42662,0
47070,-1.31504,-0.48434,2.42782,0
47090,-1.31795,-0.486063,2.42942,0
47110,-1.32049,-0.487754,2.43031,0
47130,-1.32201,-0.489348,2.43073,0
47150,-1.3225,-0.490583,2.43046,0
47170,-1.32435,-0.492475,2.43052,0
47190,-1.32616,-0.494551,2.43051,0
47210,-1.32743,-0.496634,2.43075,0
47230,-1.32965,-0.498387,2.4314,0
47250,-1.33213,-0.500808,2.43217,0
47270,-1.33489,-0.503628,2.43344,0
47290,-1.33724,-0.506874,2.43429,0
47310,-1.3391,-0.510827,2.43596,0
47330,-1.34086,-0.515156,2.43757,0
47350,-1.3432,-0.520021,2.43825,0
47370,-1.34616,-0.524614,2.43852,0
47390,-1.34875,-0.52919,2.43908,0
47410,-1.35148,-0.534201,2.43998,0
47430,-1.35424,-0.539401,2.44077,0
47450,-1.3566,-0.544767,2.44122,0
47470,-1.35967,-0.5494,2.44212,0
47490,-1.36196,-0.554352,2.44266,0
47510,-1.36408,-0.559341,2.44381,0
47530,-1.36628,-0.563968,2.44436,0
47550,-1.368,-0.568146,2.44378,0
47570,-1.36995,-0.572119,2.44247,0
47590,-1.37143,-0.575262,2.44139,0
47610,-1.37342,-0.577703,2.43985,0
47630,-1.37427,-0.580155,2.43758,0
47650,-1.37435,-0.582361,2.43519,0
47670,-1.3743,-0.58433,2.43211,0
47690,-1.37378,-0.586753,2.42779,0
47710,-1.37271,-0.589088,2.42303,0
47730,-1.37185,-0.591205,2.41868,0
47750,-1.36979,-0.5935,2.4138,0
47770,-1.36712,-0.59598,2.40834,0
47790,-1.36379,-0.598923,2.40221,0
47810,-1.36179,-0.601949,2.3965,0
47830,-1.35977,-0.605159,2.39115,0
47850,-1.35695,-0.608277,2.38607,0
47870,-1.3541,-0.61148,2.3814,0
47890,-1.35213,-0.615305,2.37684,0
47910,-1.35005,-0.619516,2.37182,0
47930,-1.34818,-0.623781,2.36792,0
47950,-1.34565,-0.628208,2.36426,0
47970,-1.34366,-0.633135,2.36068,0
47990,-1.34216,-0.638368,2.35731,0
48010,-1.34085,-0.643681,2.35406,0
48030,-1.3396,-0.648623,2.35089,0
48050,-1.3382,-0.653204,2.34823,0
48070,-1.33658,-0.657993,2.34615,0
48090,-1.33502,-0.663256,2.34322,0
48110,-1.33362,-0.66757,2.34039,0
48130,-1.33262,-0.672134,2.3379,0
48150,-1.3314,-0.676625,2.33541,0
48170,-1.32977,-0.68109,2.33214,0
48190,-1.32771,-0.68542,2.32822,0
48210,-1.32546,-0.689773,2.3246,0
48230,-1.3232,-0.694029,2.32103,0
48250,-1.32101,-0.69764,2.31639,0
48270,-1.31852,-0.701575,2.31107,0
48290,-1.31578,-0.705706,2.30645,0
48300,-1.31281,-0.709783,2.30095,0
48320,-1.30955,-0.71417,2.29543,0
48340,-1.30606,-0.718576,2.28988,0
48360,-1.30294,-0.722936,2.28456,0
48380,-1.29896,-0.727295,2.27823,0
48400,-1.29427,-0.731806,2.2715,0
48420,-1.29118,-0.73579,2.26594,0
48440,-1.28689,-0.739972,2.25909,0
48460,-1.28148,-0.744231,2.25175,0
48480,-1.27686,-0.747738,2.24516,0
48500,-1.27298,-0.75158,2.23838,0
48520,-1.2688,-0.755632,2.23148,0
48540,-1.26376,-0.759541,2.22417,0
48560,-1.2586,-0.763743,2.21659,0
48580,-1.25311,-0.768246,2.20893,0
48600,-1.24672,-0.772509,2.20011,0
48620,-1.24035,-0.776466,2.19108,0
48640,-1.23366,-0.780407,2.18201,0
48660,-1.22636,-0.784766,2.17188,0
48680,-1.21834,-0.788856,2.16038,0
48700,-1.21063,-0.791734,2.14903,0
48720,-1.20187,-0.79492,2.13667,0
48740,-1.19221,-0.797019,2.12327,0
48760,-1.18235,-0.798509,2.10952,0
48780,-1.17283,-0.798942,2.09658,0
48800,-1.1632,-0.798938,2.08334,0
48820,-1.15405,-0.798987,2.07022,0
48840,-1.14662,-0.798201,2.05816,0
48860,-1.14006,-0.796986,2.04697,0
48880,-1.13309,-0.796244,2.03508,0
48900,-1.1262,-0.795478,2.02347,0
48920,-1.11931,-0.794294,2.01216,0
48940,-1.11236,-0.79279,2.00085,0
48960,-1.10585,-0.790977,1.98994,0
48980,-1.09905,-0.789428,1.979,0
49000,-1.09185,-0.787845,1.96777,0
49020,-1.08597,-0.785887,1.95722,0
49040,-1.07979,-0.783408,1.94709,0
49060,-1.07486,-0.780262,1.93835,0
49080,-1.07059,-0.777021,1.93077,0
49100,-1.06628,-0.773946,1.92395,0
49120,-1.06171,-0.770855,1.9169,0
49140,-1.05833,-0.767043,1.91044,0
49160,-1.05703,-0.762282,1.90503,0
49180,-1.05467,-0.757659,1.89943,0
49200,-1.05007,-0.753546,1.89418,0
49220,-1.04473,-0.749955,1.88882,0
49240,-1.0391,-0.746921,1.88296,0
49260,-1.03386,-0.743059,1.87631,0
49280,-1.02852,-0.738321,1.86973,0
49300,-1.02193,-0.73462,1.86315,0
49320,-1.01577,-0.731305,1.85735,0
49340,-1.01049,-0.728126,1.85218,0
49360,-1.00645,-0.725048,1.84679,0
49380,-1.00447,-0.720233,1.84175,0
49400,-1.00279,-0.714493,1.83686,0
49420,-1.00069,-0.708716,1.83281,0
49440,-0.998607,-0.703322,1.82891,0
49460,-0.996654,-0.698061,1.82461,0
49480,-0.994676,-0.692979,1.82055,0
49500,-0.994299,-0.688308,1.81822,0
49520,-0.993715,-0.684672,1.81506,0
49540,-0.99354,-0.681261,1.81173,0
49560,-0.992997,-0.678001,1.80884,0
49580,-0.992922,-0.67425,1.80611,0
49600,-0.992511,-0.670362,1.80295,0
49620,-0.992174,-0.666045,1.79943,0
49640,-0.992846,-0.6621,1.79685,0
49660,-0.99444,-0.658366,1.79432,0
49680,-0.996828,-0.654725,1.79214,0
49700,-0.999092,-0.650954,1.7908,0
49720,-1.00021,-0.647589,1.79063,0
49740,-1.00162,-0.644885,1.79125,0
49760,-1.00257,-0.643238,1.79149,0
49780,-1.00516,-0.640843,1.79207,0
49800,-1.00729,-0.6378,1.79212,0
49820,-1.00929,-0.634893,1.79284,0
49840,-1.0112,-0.632503,1.79377,0
49860,-1.01295,-0.62957,1.79468,0
49880,-1.01558,-0.626544,1.79606,0
49900,-1.01821,-0.623599,1.79742,0
49920,-1.02041,-0.620076,1.79911,0
49950,-1.02509,-0.613897,1.80353,0
49970,-1.02767,-0.610103,1.80596,0
49990,-1.03048,-0.606515,1.80859,0
50010,-1.03382,-0.60288,1.81188,0
50030,-1.03627,-0.599286,1.81383,0
50050,-1.03822,-0.595654,1.81584,0
50070,-1.04051,-0.59298,1.81891,0
50090,-1.04283,-0.590108,1.82081,0
50110,-1.04436,-0.586388,1.82178,0
50130,-1.04562,-0.583037,1.82345,0
50150,-1.04704,-0.579476,1.8246,0
50170,-1.04799,-0.575115,1.82504,0
50190,-1.04845,-0.571348,1.82655,0
50210,-1.04944,-0.567576,1.82753,0
50230,-1.05055,-0.563535,1.82732,0
50250,-1.05128,-0.558996,1.82759,0
50270,-1.05201,-0.554709,1.82822,0
50290,-1.05244,-0.550311,1.8287,0
50310,-1.05268,-0.545922,1.82888,0
50330,-1.05345,-0.541903,1.82971,0
50350,-1.05425,-0.538756,1.83134,0
50370,-1.05494,-0.536204,1.8334,0
50390,-1.0559,-0.534178,1.83579,0
50410,-1.05739,-0.532221,1.83817,0
50430,-1.05937,-0.530374,1.84101,0
50450,-1.06169,-0.528434,1.84464,0
50470,-1.06294,-0.526331,1.84768,0
50490,-1.06402,-0.524409,1.85063,0
50510,-1.06614,-0.523228,1.85455,0
50530,-1.06916,-0.522137,1.85859,0
50550,-1.07151,-0.520822,1.86179,0
50570,-1.07386,-0.519481,1.86587,0
50590,-1.07663,-0.518323,1.87044,0
50610,-1.07899,-0.517338,1.87423,0
50630,-1.08114,-0.5158,1.87794,0
50650,-1.08425,-0.51382,1.88209,0
50670,-1.08817,-0.511394,1.88574,0
50690,-1.0914,-0.508125,1.88934,0
50710,-1.09356,-0.504259,1.89279,0
50730,-1.0964,-0.500621,1.89621,0
50750,-1.10006,-0.496614,1.89968,0
50770,-1.10432,-0.492576,1.9031,0
50790,-1.10755,-0.488988,1.90614,0
50810,-1.11073,-0.485388,1.90937,0
50830,-1.11485,-0.482442,1.91292,0
50850,-1.11986,-0.479797,1.91696,0
50870,-1.12525,-0.477264,1.9208,0
50900,-1.13236,-0.471751,1.9267,0
50920,-1.13454,-0.468623,1.92903,0
50940,-1.13553,-0.465355,1.93075,0
50960,-1.13652,-0.462612,1.93258,0
50980,-1.13719,-0.459601,1.93403,0
51000,-1.13691,-0.456059,1.93599,0
51020,-1.13593,-0.453673,1.93842,0
51040,-1.13618,-0.451703,1.94074,0
51060,-1.13762,-0.449114,1.94318,0
51080,-1.14006,-0.446573,1.94666,0
51100,-1.14253,-0.445066,1.95108,0
51120,-1.14511,-0.444167,1.95522,0
51130,-1.14811,-0.443573,1.95907,0
51150,-1.15206,-0.442165,1.96284,0
51170,-1.15591,-0.440886,1.96737,0
51190,-1.15893,-0.440145,1.9717,0
51210,-1.161,-0.43946,1.97562,0
51230,-1.16443,-0.438422,1.97956,0
51250,-1.16864,-0.437103,1.98326,0
51270,-1.17265,-0.436356,1.98826,0
51290,-1.17614,-0.435942,1.99287,0
51310,-1.17915,-0.435827,1.99735,0
51330,-1.18281,-0.436444,2.00259,0
51350,-1.18718,-0.437129,2.00758,0
51370,-1.19129,-0.43812,2.01241,0
51390,-1.19486,-0.438918,2.01733,0
51410,-1.19795,-0.439516,2.02228,0
51430,-1.20129,-0.440766,2.02749,0
51450,-1.20455,-0.442432,2.03286,0
51470,-1.20851,-0.44367,2.03823,0
51490,-1.21242,-0.444505,2.04349,0
51510,-1.21676,-0.445379,2.0495,0
51530,-1.22132,-0.446213,2.05582,0
51550,-1.22471,-0.447092,2.06207,0
51570,-1.22746,-0.44851,2.06792,0
51590,-1.23157,-0.449986,2.07417,0
51610,-1.23627,-0.451141,2.08022,0
51630,-1.23961,-0.452042,2.08577,0
51640,-1.24251,-0.453509,2.09148,0
51660,-1.24614,-0.45486,2.09775,0
51680,-1.24962,-0.455887,2.10362,0
51700,-1.25335,-0.456728,2.10969,0
51720,-1.25738,-0.458213,2.11606,0
51740,-1.26177,-0.459366,2.12226,0
51760,-1.26589,-0.460363,2.12813,0
51780,-1.26966,-0.46217,2.13439,0
51800,-1.27323,-0.464416,2.14059,0
51820,-1.2771,-0.4665,2.14617,0
51840,-1.28036,-0.468513,2.15178,0
51860,-1.28376,-0.470767,2.15744,0
51880,-1.28759,-0.472386,2.16216,0
51900,-1.29046,-0.474091,2.16687,0
51920,-1.293,-0.476347,2.17242,0
51940,-1.296,-0.478754,2.177,0
51960,-1.29953,-0.479401,2.18044,0
51980,-1.30263,-0.47977,2.18438,0
52000,-1.30554,-0.480194,2.18859,0
52020,-1.30806,-0.481139,2.19283,0
52040,-1.31175,-0.482541,2.19744,0
52060,-1.31568,-0.483252,2.20197,0
52080,-1.31928,-0.484273,2.20693,0
52100,-1.32276,-0.485848,2.21264,0
52120,-1.32593,-0.487973,2.218,0
52140,-1.32944,-0.490471,2.22286,0
52160,-1.33297,-0.49318,2.2281,0
52180,-1.33684,-0.496183,2.23403,0
52200,-1.34013,-0.498981,2.23941,0
52220,-1.34288,-0.502319,2.24488,0
52240,-1.34537,-0.505846,2.25042,0
52260,-1.34776,-0.5091,2.25489,0
52280,-1.35065,-0.511832,2.26019,0
52300,-1.35405,-0.513963,2.26619,0
52320,-1.35806,-0.51615,2.27212,0
52340,-1.36282,-0.518664,2.27775,0
52360,-1.3683,-0.52055,2.28406,0
52380,-1.3738,-0.522478,2.29076,0
52400,-1.37907,-0.524892,2.29687,0
52420,-1.38364,-0.527296,2.30242,0
52440,-1.38795,-0.529382,2.30759,0
52460,-1.39243,-0.531702,2.31296,0
52480,-1.39643,-0.534528,2.31789,0
52500,-1.39898,-0.53763,2.32161,0
52520,-1.40076,-0.540737,2.32488,0
52540,-1.40292,-0.543388,2.3279,0
52560,-1.40373,-0.546125,2.32997,0
52580,-1.40496,-0.548611,2.33263,0
52600,-1.40686,-0.55106,2.33513,0
52620,-1.4096,-0.553363,2.33756,0
52640,-1.4124,-0.555513,2.33958,0
52660,-1.416,-0.556744,2.34223,0
52680,-1.41875,-0.558368,2.34411,0
52700,-1.42148,-0.560141,2.34642,0
52720,-1.42477,-0.562054,2.34867,0
52740,-1.42816,-0.563602,2.35088,0
52760,-1.43064,-0.56576,2.3531,0
52780,-1.43391,-0.567902,2.35588,0
52800,-1.43702,-0.570088,2.35829,0
52820,-1.44002,-0.572904,2.36086,0
52840,-1.44324,-0.575693,2.36356,0
52860,-1.4467,-0.578126,2.36703,0
52880,-1.44905,-0.58141,2.37012,0
52900,-1.45281,-0.584924,2.37349,0
52920,-1.45705,-0.588218,2.37687,0
52940,-1.45985,-0.591853,2.37982,0
52960,-1.46195,-0.596134,2.38348,0
52980,-1.46452,-0.600204,2.38707,0
53000,-1.46902,-0.604339,2.39026,0
53020,-1.47297,-0.608626,2.39236,0
53040,-1.47642,-0.612335,2.39427,0
53060,-1.47957,-0.615286,2.39563,0
53080,-1.48216,-0.618143,2.39661,0
53100,-1.48409,-0.621244,2.39757,0
53120,-1.48519,-0.624444,2.39829,0
53140,-1.48686,-0.626584,2.39894,0
53160,-1.48792,-0.628182,2.39986,0
53180,-1.48854,-0.630086,2.40095,0
53200,-1.48829,-0.63225,2.40201,0
53220,-1.48943,-0.635032,2.40429,0
53240,-1.49252,-0.63751,2.40707,0
53260,-1.49367,-0.640824,2.40879,0
53280,-1.49482,-0.644089,2.41101,0
53300,-1.49621,-0.647337,2.41331,0
53320,-1.49724,-0.650347,2.41455,0
53340,-1.49681,-0.653027,2.41459,0
53360,-1.49639,-0.655903,2.4147,1001
53380,-1.49622,-0.658376,2.41486,0
53400,-1.49537,-0.661243,2.41442,0
53420,-1.49517,-0.66408,2.41377,0
53440,-1.49671,-0.666761,2.4143,0
53460,-1.4976,-0.669641,2.41436,0
53480,-1.49852,-0.671781,2.41402,0
53500,-1.49924,-0.674223,2.41391,0
53520,-1.49974,-0.676704,2.4136,0
53540,-1.50066,-0.67939,2.41275,0
53560,-1.50116,-0.682005,2.41216,0
53580,-1.50212,-0.684247,2.41206,0
53590,-1.50137,-0.68591,2.41137,0
53610,-1.50061,-0.687783,2.40956,0
53630,-1.49923,-0.689135,2.40582,0
53650,-1.49534,-0.688454,2.40013,0
53670,-1.49175,-0.687131,2.39396,0
53690,-1.48677,-0.68478,2.38558,0
53710,-1.47758,-0.681837,2.37434,0
53730,-1.46533,-0.676604,2.36198,0
53750,-1.4526,-0.668451,2.34845,0
53770,-1.43696,-0.658146,2.33227,0
53790,-1.41831,-0.646032,2.3118,0
53810,-1.39889,-0.632028,2.29062,0
53830,-1.37807,-0.616664,2.26731,0
53850,-1.35564,-0.600258,2.24109,0
53870,-1.33087,-0.581429,2.21207,0
53890,-1.3061,-0.562598,2.18279,0
53910,-1.28299,-0.544256,2.15596,0
53930,-1.26117,-0.526722,2.13096,0
53950,-1.23793,-0.50837,2.10463,0
53970,-1.2187,-0.489672,2.08313,0
53990,-1.20013,-0.475478,2.06511,0
54010,-1.18107,-0.463557,2.04932,0
54030,-1.16516,-0.452241,2.03712,0
54050,-1.15368,-0.442507,2.03031,0
54070,-1.14915,-0.436196,2.02912,0
54090,-1.14427,-0.431173,2.02814,0
54110,-1.14242,-0.424755,2.02827,0
54130,-1.14614,-0.418764,2.03131,0
54150,-1.15409,-0.414664,2.03492,0
54170,-1.16289,-0.412343,2.03875,0
54190,-1.17101,-0.41174,2.0427,0
54210,-1.18008,-0.413269,2.04848,0
54230,-1.18965,-0.419756,2.05385,0
54250,-1.19915,-0.430175,2.05934,0
54270,-1.20778,-0.443772,2.06424,0
54290,-1.21477,-0.459219,2.06839,0
54310,-1.22142,-0.475255,2.07232,0
54330,-1.22809,-0.490839,2.0753,0
54350,-1.23465,-0.504691,2.07815,0
54370,-1.24002,-0.515702,2.08129,0
54390,-1.24367,-0.523664,2.08309,0
54410,-1.24675,-0.527974,2.08484,0
54430,-1.24945,-0.528937,2.08686,0
54450,-1.25255,-0.526683,2.08999,0
54470,-1.25412,-0.522409,2.09288,0
54490,-1.25334,-0.516424,2.09485,0
54510,-1.25131,-0.507969,2.09615,0
54530,-1.24893,-0.497022,2.0961,0
54550,-1.24638,-0.481961,2.094,0
54570,-1.24247,-0.462858,2.09195,0
54590,-1.2368,-0.442879,2.09059,0
54610,-1.23178,-0.42276,2.09144,0
54630,-1.22728,-0.402558,2.09372,0
54650,-1.22295,-0.383632,2.09687,0
54670,-1.21988,-0.363968,2.1009,0
54690,-1.22016,-0.343526,2.10477,0
54710,-1.22253,-0.324722,2.10928,0
54730,-1.22478,-0.307929,2.11587,0
54750,-1.22688,-0.293222,2.12316,0
54770,-1.22877,-0.280666,2.13065,0
54790,-1.23057,-0.269695,2.13808,0
54810,-1.23072,-0.260614,2.14624,0
54830,-1.23012,-0.253977,2.15434,0
54850,-1.22959,-0.248253,2.16095,0
54870,-1.22966,-0.242307,2.16643,0
54890,-1.22936,-0.235591,2.17199,0
54910,-1.22892,-0.22928,2.17804,0
54930,-1.22777,-0.224066,2.18465,0
54950,-1.22705,-0.219066,2.19201,0
54970,-1.22573,-0.214213,2.19875,0
54990,-1.22403,-0.209809,2.20548,0
55010,-1.22324,-0.206459,2.21306,0
55030,-1.22262,-0.20329,2.22029,0
55050,-1.2221,-0.200546,2.22699,0
55070,-1.22207,-0.197287,2.2335,0
55090,-1.22201,-0.193647,2.24007,0
55110,-1.22313,-0.190096,2.24644,0
55130,-1.22298,-0.186668,2.2515,0
55150,-1.22322,-0.183054,2.25536,0
55170,-1.22489,-0.179477,2.25884,0
55190,-1.22675,-0.176826,2.26273,0
55210,-1.22691,-0.174902,2.26592,0
55230,-1.22606,-0.173796,2.2677,0
55250,-1.22496,-0.173478,2.26942,0
55270,-1.22419,-0.173552,2.27032,0
55290,-1.22322,-0.17342,2.27089,0
55310,-1.22287,-0.173278,2.27134,0
55330,-1.22325,-0.173172,2.2726,0
55350,-1.22286,-0.173593,2.2742,1000
55370,-1.22198,-0.174232,2.27536,0
55390,-1.22141,-0.175239,2.27666,0
55410,-1.22166,-0.176395,2.27856,0
55430,-1.22179,-0.177165,2.28026,0
55450,-1.22207,-0.177689,2.28172,0
55470,-1.22262,-0.177855,2.28347,0
55490,-1.22251,-0.178509,2.28555,0
55510,-1.22242,-0.179074,2.28781,0
55530,-1.22302,-0.179488,2.2903,0
55550,-1.22489,-0.179596,2.29301,0
55570,-1.22712,-0.179025,2.29537,0
55590,-1.22926,-0.178382,2.29753,0
55610,-1.23071,-0.177595,2.2998,0
55630,-1.23139,-0.177119,2.30202,0
55650,-1.23174,-0.17725,2.3038,0
55670,-1.23239,-0.178037,2.30559,0
55690,-1.23287,-0.179093,2.30753,0
55710,-1.23296,-0.180194,2.30892,0
55730,-1.23315,-0.181344,2.30993,0
55750,-1.23377,-0.182152,2.31096,0
55770,-1.23422,-0.18319,2.31187,0
55790,-1.23437,-0.184065,2.31246,0
55810,-1.23515,-0.185234,2.31381,0
55830,-1.23602,-0.186472,2.31469,0
55850,-1.23609,-0.187647,2.31468,0
55870,-1.2357,-0.188413,2.3151,0
55890,-1.23631,-0.189378,2.31591,0
55910,-1.23645,-0.19062,2.31631,0
55930,-1.23577,-0.191343,2.31659,0
55950,-1.23585,-0.1915,2.31662,0
55970,-1.23677,-0.192245,2.31672,0
55990,-1.23656,-0.192288,2.31668,0
56010,-1.23651,-0.192447,2.31666,0
56030,-1.23658,-0.19283,2.3173,0
56050,-1.23651,-0.193009,2.31719,0
56070,-1.23648,-0.193325,2.31763,0
56090,-1.2363,-0.193751,2.31843,0
56110,-1.23679,-0.194402,2.31897,0
56130,-1.23694,-0.194695,2.31935,0
56150,-1.23593,-0.194516,2.31952,0
56170,-1.23474,-0.193372,2.32014,0
56190,-1.23347,-0.192427,2.32054,0
56210,-1.23402,-0.192446,2.32021,0
56230,-1.23417,-0.191791,2.3199,0
56250,-1.23425,-0.190415,2.32058,0
56270,-1.23399,-0.189736,2.32134,0
56290,-1.23319,-0.189762,2.32184,0
56310,-1.23342,-0.189351,2.32296,0
56330,-1.23421,-0.188936,2.32473,0
56350,-1.23426,-0.188952,2.32666,0
56370,-1.23405,-0.189292,2.32872,0
56390,-1.23357,-0.18945,2.33056,0
56410,-1.2337,-0.189289,2.3326,0
56430,-1.23398,-0.189103,2.3348,0
56450,-1.2345,-0.189049,2.33719,0
56470,-1.2346,-0.188958,2.33938,0
56490,-1.23495,-0.189245,2.34206,0
56510,-1.23538,-0.18937,2.34455,0
56530,-1.23594,-0.189489,2.3471,0
56550,-1.23592,-0.189757,2.34997,0
56570,-1.23591,-0.190344,2.35308,0
56590,-1.23569,-0.19168,2.35587,0
56610,-1.23489,-0.192944,2.35929,0
56630,-1.2344,-0.19418,2.36292,0
56650,-1.23468,-0.195852,2.36625,0
56670,-1.23506,-0.197202,2.36963,0
56690,-1.23547,-0.198479,2.37286,0
56710,-1.23545,-0.199657,2.37597,0
56730,-1.23531,-0.201181,2.37916,0
56750,-1.23466,-0.202933,2.38221,0
56770,-1.23346,-0.205008,2.38514,0
56790,-1.23272,-0.20736,2.38858,0
56810,-1.23165,-0.210015,2.39134,0
56830,-1.23047,-0.212456,2.39434,0
56850,-1.23009,-0.214938,2.39758,0
56870,-1.22954,-0.217753,2.40051,0
56890,-1.22885,-0.220864,2.40352,0
56910,-1.22791,-0.224002,2.40642,0
56930,-1.2267,-0.227528,2.40895,0
56950,-1.22634,-0.231482,2.4119,0
56970,-1.22568,-0.235494,2.41456,0
56980,-1.22473,-0.239636,2.41684,0
57000,-1.22448,-0.244002,2.41969,0
57020,-1.22468,-0.248397,2.42298,0
57040,-1.22374,-0.252926,2.426,0
57060,-1.2227,-0.257396,2.42882,0
57080,-1.22342,-0.261694,2.43148,0
57100,-1.22441,-0.265857,2.43384,0
57120,-1.22464,-0.270343,2.43633,0
57140,-1.22403,-0.274852,2.43913,0
57160,-1.22498,-0.279372,2.44162,0
57180,-1.22631,-0.283895,2.44365,0
57200,-1.2268,-0.288881,2.44496,0
57220,-1.22765,-0.293732,2.44646,0
57240,-1.22878,-0.297849,2.44743,0
57260,-1.22901,-0.301438,2.44758,0
57280,-1.22885,-0.305263,2.44731,0
57300,-1.22832,-0.309033,2.44605,0
57320,-1.22858,-0.312468,2.44445,0
57340,-1.22823,-0.315765,2.44269,0
57360,-1.22674,-0.319323,2.44013,0
57380,-1.22491,-0.322411,2.43635,0
57400,-1.22434,-0.325398,2.43258,0
57420,-1.22426,-0.328315,2.4292,0
57440,-1.22377,-0.33169,2.4249,0
57460,-1.22322,-0.334889,2.4202,0
57500,-1.22246,-0.340786,2.41163,0
57530,-1.2228,-0.346115,2.40373,0
57570,-1.22242,-0.352179,2.39584,0
57600,-1.22181,-0.357421,2.38891,0
57620,-1.22103,-0.360683,2.38587,0
57640,-1.22013,-0.364233,2.3832,0
57660,-1.21863,-0.368202,2.37992,0
57680,-1.21715,-0.372011,2.37686,0
57700,-1.21649,-0.375637,2.37461,0
57720,-1.21533,-0.379995,2.37189,0
57740,-1.21385,-0.384316,2.36898,0
57760,-1.21246,-0.388428,2.36533,0
57780,-1.21192,-0.392217,2.36127,0
57800,-1.21092,-0.395004,2.3576,0
57820,-1.20855,-0.397232,2.35374,0
57840,-1.20588,-0.400505,2.34944,0
57860,-1.20427,-0.403623,2.34551,0
57880,-1.20355,-0.406535,2.34185,0
57900,-1.20256,-0.409825,2.33811,0
57920,-1.20115,-0.413112,2.33464,0
57940,-1.20027,-0.415527,2.33075,0
57960,-1.19944,-0.417459,2.32722,0
57980,-1.1987,-0.419932,2.32498,0
58000,-1.19815,-0.423124,2.32236,0
58020,-1.19824,-0.426191,2.31865,0
58040,-1.19839,-0.429594,2.31469,0
58060,-1.19843,-0.433288,2.31141,0
58080,-1.19757,-0.43658,2.30755,0
58100,-1.19724,-0.439734,2.30405,0
58120,-1.19717,-0.443716,2.30042,0
58140,-1.19753,-0.447554,2.29676,0
58160,-1.19761,-0.451173,2.29272,0
58180,-1.19809,-0.455188,2.28913,0
58200,-1.19781,-0.459302,2.28519,0
58220,-1.19756,-0.463409,2.28114,0
58240,-1.19678,-0.467574,2.27656,0
58260,-1.19602,-0.471578,2.27221,0
58280,-1.1956,-0.475717,2.26778,0
58300,-1.19501,-0.479269,2.26266,0
58320,-1.19402,-0.482591,2.25695,0
58340,-1.19303,-0.485319,2.25115,0
58360,-1.19155,-0.488521,2.24525,0
58380,-1.18982,-0.491319,2.23896,0
58400,-1.18764,-0.493892,2.23241,0
58420,-1.1856,-0.496383,2.2262,0
58440,-1.18335,-0.498616,2.2196,0
58460,-1.1803,-0.501517,2.21291,0
58480,-1.17664,-0.50455,2.20635,0
58500,-1.17412,-0.507922,2.19961,0
58520,-1.17133,-0.511571,2.19242,0
58540,-1.16879,-0.515705,2.18462,0
58560,-1.16552,-0.521117,2.17644,0
58580,-1.1611,-0.526677,2.16796,0
58600,-1.15566,-0.531576,2.15836,0
58620,-1.15042,-0.537403,2.14802,0
58640,-1.14516,-0.543462,2.13646,0
58660,-1.13994,-0.548727,2.1246,0
58680,-1.13368,-0.554025,2.11273,0
58700,-1.12711,-0.559325,2.10158,0
58720,-1.12107,-0.56398,2.09108,0
58740,-1.11534,-0.568422,2.08005,0
58760,-1.10925,-0.572403,2.06816,0
58780,-1.10437,-0.57584,2.05811,0
58800,-1.09908,-0.578907,2.04797,0
58820,-1.09226,-0.582322,2.03679,0
58840,-1.08595,-0.584917,2.02582,0
58860,-1.08045,-0.586682,2.01532,0
58880,-1.07402,-0.587811,2.00434,0
58890,-1.06754,-0.588637,1.99423,0
58910,-1.06108,-0.58927,1.98475,0
58930,-1.05426,-0.589784,1.97517,0
58950,-1.04796,-0.590019,1.96575,0
58970,-1.04265,-0.589535,1.95686,0
58990,-1.03729,-0.5886,1.94891,0
59010,-1.0324,-0.587404,1.94205,0
59030,-1.02837,-0.586682,1.93582,0
59050,-1.02603,-0.58547,1.92988,0
59070,-1.0249,-0.583587,1.92444,0
59090,-1.02326,-0.581167,1.91887,0
59110,-1.02133,-0.579253,1.91447,0
59130,-1.0196,-0.577269,1.9101,0
59150,-1.0176,-0.575192,1.90474,0
59170,-1.01518,-0.573531,1.89948,0
59190,-1.01287,-0.572239,1.89469,0
59210,-1.01153,-0.571422,1.89017,0
59230,-1.00969,-0.570494,1.8852,0
59250,-1.00793,-0.569392,1.88057,0
59270,-1.00545,-0.568163,1.87569,0
59290,-1.00312,-0.566598,1.87117,0
59310,-1.00049,-0.566154,1.8668,0
59330,-0.998575,-0.566714,1.86333,0
59350,-0.996454,-0.567626,1.85924,0
59370,-0.994725,-0.567868,1.85508,0
59390,-0.992817,-0.569039,1.85167,0
59410,-0.990769,-0.57022,1.84868,0
59430,-0.989218,-0.570027,1.84535,0
59450,-0.987438,-0.570335,1.84155,0
59470,-0.985999,-0.570923,1.83876,0
59490,-0.984726,-0.570916,1.83577,0
59510,-0.983162,-0.570876,1.83227,0
59530,-0.981173,-0.570456,1.82899,0
59550,-0.979374,-0.569589,1.82545,0
59570,-0.977069,-0.567893,1.82196,0
59590,-0.975644,-0.566328,1.81972,0
59610,-0.975594,-0.564996,1.81773,0
59630,-0.975135,-0.563529,1.81526,0
59650,-0.973696,-0.56206,1.81256,0
59670,-0.971414,-0.561609,1.81007,0
59690,-0.970034,-0.560959,1.80832,0
59710,-0.968769,-0.559752,1.80647,0
59730,-0.968207,-0.558289,1.80595,0
59750,-0.968594,-0.556277,1.80629,0
59770,-0.968759,-0.553542,1.80595,0
59790,-0.969308,-0.550658,1.80537,0
59810,-0.970108,-0.547898,1.80512,0
59830,-0.970689,-0.545309,1.80527,0
59850,-0.969928,-0.544107,1.80482,0
59870,-0.968955,-0.543643,1.80438,0
59890,-0.96932,-0.542808,1.80432,0
59910,-0.969484,-0.541826,1.80439,0
59930,-0.968806,-0.540643,1.80445,0
59950,-0.96754,-0.539375,1.80405,0
59970,-0.967482,-0.537513,1.80533,0
59990,-0.967933,-0.536234,1.80708,0
60010,-0.968561,-0.53471,1.80744,0
60030,-0.969308,-0.532135,1.80808,0
60050,-0.970452,-0.52916,1.80933,0
60070,-0.971416,-0.526426,1.81077,0
60090,-0.972084,-0.523332,1.81158,0
60110,-0.971943,-0.519742,1.81183,0
60130,-0.972557,-0.515859,1.81279,0
60150,-0.973768,-0.512218,1.81386,0
60170,-0.97337,-0.508707,1.81417,0
60190,-0.971625,-0.50619,1.81385,0
60210,-0.969901,-0.504048,1.81391,0
60230,-0.969809,-0.501683,1.81521,0
60250,-0.968961,-0.499363,1.81564,0
60270,-0.968347,-0.496874,1.81569,0
60290,-0.968916,-0.493717,1.81623,0
60310,-0.969959,-0.490335,1.81752,0
60330,-0.970296,-0.486751,1.81861,0
60350,-0.970105,-0.483963,1.81995,0
60370,-0.970892,-0.481814,1.82166,0
60390,-0.971458,-0.480387,1.82339,0
60410,-0.971349,-0.478678,1.82509,0
60430,-0.972201,-0.477392,1.82763,0
60450,-0.973692,-0.476587,1.83023,0
60470,-0.973703,-0.475581,1.83175,0
60490,-0.974296,-0.47443,1.83432,0
60510,-0.975665,-0.473524,1.83694,0
60530,-0.975824,-0.472535,1.83861,0
60550,-0.975564,-0.471589,1.84051,0
60570,-0.976537,-0.470587,1.84323,0
60590,-0.978039,-0.469856,1.84549,0
60610,-0.978938,-0.468591,1.84721,0
60630,-0.979813,-0.467102,1.84971,0
60650,-0.980817,-0.466027,1.85227,0
60670,-0.981682,-0.465416,1.85431,0
60690,-0.982322,-0.464289,1.85607,0
60710,-0.983974,-0.462805,1.85915,0
60730,-0.984669,-0.461512,1.86123,0
60750,-0.984572,-0.459908,1.86361,0
60770,-0.985138,-0.458386,1.86711,0
60790,-0.986553,-0.457422,1.87027,0
60810,-0.987333,-0.456056,1.87336,0
60830,-0.988196,-0.454446,1.87694,0
60850,-0.989897,-0.453427,1.88076,0
60870,-0.991278,-0.452527,1.8841,0
60890,-0.991875,-0.451336,1.88742,0
60910,-0.993481,-0.450479,1.89111,0
60930,-0.994917,-0.449756,1.89445,0
60950,-0.99606,-0.448166,1.89699,0
60960,-0.997043,-0.446151,1.89973,0
60980,-0.997441,-0.444435,1.90291,0
61000,-0.997652,-0.442722,1.9058,0
61020,-0.998065,-0.440355,1.90867,0
61040,-0.999567,-0.438359,1.91181,0
61060,-1.0007,-0.436532,1.91522,0
61080,-1.00123,-0.434766,1.91859,0
61100,-1.0021,-0.433019,1.92207,0
61120,-1.00317,-0.430946,1.92551,0
61140,-1.00396,-0.42877,1.92882,0
61160,-1.00502,-0.426698,1.93227,0
61180,-1.00665,-0.425079,1.93614,0
61200,-1.00789,-0.423342,1.93955,0
61220,-1.00827,-0.421249,1.94246,0
61240,-1.00878,-0.419755,1.94588,0
61260,-1.00998,-0.418736,1.94974,0
61280,-1.01121,-0.417592,1.95319,0
61300,-1.01225,-0.416784,1.95636,0
61320,-1.01408,-0.415895,1.95985,0
61340,-1.01525,-0.414844,1.963,0
61360,-1.01638,-0.413863,1.96631,0
61380,-1.01738,-0.412948,1.96912,0
61400,-1.01835,-0.412378,1.9718,0
61420,-1.01907,-0.411562,1.97455,0
61440,-1.01998,-0.41055,1.97718,0
61460,-1.02172,-0.409824,1.98022,0
61480,-1.02375,-0.409266,1.98304,0
61500,-1.02448,-0.408588,1.9854,0
61520,-1.02594,-0.407949,1.9887,0
61540,-1.02843,-0.407789,1.99227,0
61560,-1.03078,-0.407305,1.99504,0
61580,-1.03216,-0.406637,1.99781,0
61600,-1.03409,-0.406596,2.00163,0
61620,-1.03669,-0.406774,2.00543,0
61640,-1.0392,-0.406278,2.00837,0
61660,-1.04127,-0.406113,2.01211,0
61680,-1.04396,-0.406419,2.01659,0
61700,-1.04674,-0.406578,2.02057,0
61720,-1.04895,-0.406425,2.02403,0
61740,-1.0518,-0.406492,2.02767,0
61760,-1.05494,-0.40664,2.03146,0
61780,-1.05748,-0.406281,2.03516,0
61800,-1.05849,-0.405631,2.03854,0
61820,-1.06038,-0.405554,2.04301,0
61840,-1.06299,-0.40547,2.0472,0
61860,-1.06481,-0.40533,2.05032,0
61880,-1.06649,-0.404669,2.05414,0
61900,-1.06892,-0.403899,2.05849,0
61920,-1.07089,-0.403052,2.06241,0
61940,-1.07206,-0.402115,2.06625,0
61960,-1.07412,-0.401205,2.07078,0
61980,-1.07656,-0.400337,2.07551,0
62000,-1.0785,-0.39948,2.07965,0
62020,-1.08085,-0.398559,2.08471,0
62040,-1.08425,-0.397855,2.0905,0
62060,-1.08703,-0.396965,2.09524,0
62080,-1.08889,-0.396113,2.09968,0
62100,-1.09069,-0.395534,2.10479,0
62120,-1.09259,-0.394659,2.10937,0
62140,-1.0939,-0.393488,2.11374,0
62160,-1.09545,-0.392816,2.11852,0
62180,-1.09704,-0.392066,2.12315,0
62200,-1.09879,-0.391035,2.128,0
62220,-1.10083,-0.390271,2.13332,0
62230,-1.10312,-0.389281,2.13788,0
62250,-1.10483,-0.387434,2.1426,0
62270,-1.10793,-0.385622,2.14879,0
62290,-1.11117,-0.384288,2.15484,0
62310,-1.114,-0.382867,2.1607,0
62330,-1.11757,-0.381574,2.16671,0
62350,-1.12099,-0.380393,2.17327,0
62370,-1.12404,-0.378894,2.1797,0
62390,-1.12649,-0.377665,2.18621,0
62410,-1.12964,-0.376993,2.19305,0
62430,-1.13374,-0.376296,2.19962,0
62450,-1.13728,-0.375223,2.20647,0
62470,-1.14032,-0.374367,2.21341,0
62490,-1.14366,-0.373567,2.22072,0
62510,-1.14713,-0.372982,2.22783,0
62530,-1.14997,-0.372703,2.23481,0
62550,-1.15344,-0.372797,2.24263,0
62570,-1.15747,-0.373238,2.25062,0
62590,-1.16,-0.374234,2.25757,0
62610,-1.1628,-0.375027,2.26513,0
62630,-1.16638,-0.37584,2.27317,0
62650,-1.16997,-0.37722,2.2813,0
62670,-1.17238,-0.379154,2.28894,0
62690,-1.17502,-0.381332,2.29729,0
62710,-1.18098,-0.383277,2.30672,0
62730,-1.18688,-0.385459,2.31582,0
62750,-1.18864,-0.389254,2.32417,0
62770,-1.19017,-0.39372,2.33306,0
62790,-1.19309,-0.39901,2.34198,0
62810,-1.19644,-0.403892,2.35073,0
62830,-1.1995,-0.408294,2.35874,0
62850,-1.20205,-0.413106,2.36649,0
62870,-1.20471,-0.41843,2.37446,0
62890,-1.20739,-0.424004,2.38203,0
62910,-1.20967,-0.428999,2.38835,0
62930,-1.21148,-0.434133,2.39393,0
62950,-1.21341,-0.439045,2.40037,0
62970,-1.21518,-0.443445,2.40606,0
62990,-1.21682,-0.447186,2.41176,0
63010,-1.21934,-0.450814,2.4181,0
63030,-1.22164,-0.455152,2.42404,0
63050,-1.22378,-0.458779,2.43039,0
63070,-1.22744,-0.461726,2.43754,0
63090,-1.23122,-0.465479,2.44421,0
63110,-1.23487,-0.469076,2.45067,0
63130,-1.23887,-0.472073,2.45711,0
63150,-1.24351,-0.474631,2.46435,0
63170,-1.24937,-0.477398,2.47226,0
63190,-1.25496,-0.480996,2.48005,0
63210,-1.26063,-0.484624,2.48869,0
63230,-1.26613,-0.488651,2.49626,0
63250,-1.27227,-0.492031,2.50314,0
63270,-1.27911,-0.494931,2.50932,0
63290,-1.28589,-0.49718,2.51503,0
63310,-1.29109,-0.499583,2.52034,0
63330,-1.29521,-0.502433,2.52597,0
63350,-1.29901,-0.505256,2.53143,0
63370,-1.3023,-0.508143,2.53593,0
63390,-1.30597,-0.510793,2.53957,0
63410,-1.30885,-0.512703,2.54263,0
63430,-1.31104,-0.514312,2.54543,0
63450,-1.31279,-0.515116,2.54799,0
63470,-1.31449,-0.516319,2.54951,0
63490,-1.31675,-0.517197,2.55093,0
63510,-1.31829,-0.517949,2.55185,0
63530,-1.31971,-0.518474,2.55286,0
63550,-1.32047,-0.519952,2.55363,0
63570,-1.32087,-0.521205,2.55366,0
63590,-1.3222,-0.522226,2.55358,0
63610,-1.32407,-0.523126,2.55376,0
63630,-1.32541,-0.523964,2.55369,0
63650,-1.32653,-0.525297,2.55335,0
63670,-1.32792,-0.527161,2.55244,0
63690,-1.32974,-0.528291,2.55153,0
63710,-1.33139,-0.529463,2.5505,0
63730,-1.33302,-0.530911,2.54934,0
63750,-1.33462,-0.532544,2.5481,0
63770,-1.33584,-0.53427,2.54688,0
63790,-1.33691,-0.535862,2.54576,0
63810,-1.33842,-0.536714,2.54449,0
63830,-1.34008,-0.537989,2.5432,0
63850,-1.34076,-0.539868,2.54224,0
63870,-1.34249,-0.540818,2.54198,0
63890,-1.34508,-0.542009,2.5415,0
63910,-1.34746,-0.543509,2.54054,0
63930,-1.34877,-0.544411,2.53889,0
63950,-1.35046,-0.545539,2.53814,0
63970,-1.35196,-0.546996,2.53751,0
63990,-1.35338,-0.548895,2.53608,0
64010,-1.35575,-0.550883,2.53515,0
64030,-1.35773,-0.553055,2.53431,0
64050,-1.35934,-0.555038,2.53362,0
64070,-1.36073,-0.557601,2.53184,0
64090,-1.36211,-0.559879,2.52972,0
64110,-1.36423,-0.562867,2.52867,0
64130,-1.36553,-0.566379,2.52681,0
64150,-1.36714,-0.570081,2.52411,0
64170,-1.36878,-0.573893,2.52156,0
64180,-1.36987,-0.577656,2.51947,0
64200,-1.37059,-0.581218,2.51685,0
64220,-1.37146,-0.58531,2.51376,0
64240,-1.37254,-0.589093,2.51111,0
64260,-1.37404,-0.592627,2.509,0
64280,-1.37573,-0.596225,2.50658,0
64300,-1.37665,-0.5997,2.50382,0
64320,-1.3776,-0.603188,2.50129,0
64340,-1.37916,-0.606483,2.49904,0
64360,-1.37988,-0.609737,2.49566,0
64380,-1.38063,-0.613099,2.49257,0
64400,-1.38078,-0.616293,2.48911,0
64420,-1.38112,-0.619651,2.48541,0
64440,-1.38174,-0.622133,2.48201,0
64460,-1.38166,-0.62372,2.47845,0
64480,-1.38021,-0.627323,2.47426,0
64500,-1.37918,-0.63076,2.47106,0
64520,-1.37915,-0.634218,2.46851,0
64540,-1.37902,-0.638449,2.46518,0
64560,-1.3785,-0.642657,2.46195,0
64580,-1.37904,-0.646423,2.45929,0
64600,-1.37902,-0.649243,2.45613,0
64620,-1.37793,-0.653197,2.45271,0
64640,-1.37725,-0.656887,2.44977,0
64660,-1.37759,-0.660721,2.44712,0
64680,-1.37836,-0.664103,2.44482,0
64700,-1.37761,-0.668014,2.44122,0
64720,-1.37695,-0.671369,2.43751,0
64740,-1.3765,-0.674021,2.43355,0
64760,-1.37557,-0.677119,2.4294,0
64780,-1.37446,-0.680461,2.42519,0
64800,-1.3734,-0.682743,2.42064,0
64820,-1.37214,-0.684874,2.4158,0
64840,-1.37016,-0.688151,2.41117,0
64860,-1.36864,-0.69106,2.40738,0
64880,-1.36798,-0.69377,2.40377,0
64900,-1.36722,-0.697155,2.40018,0
64920,-1.36565,-0.700565,2.39638,0
64940,-1.36453,-0.703823,2.39316,0
64960,-1.3632,-0.706923,2.38956,0
64980,-1.36225,-0.709874,2.38579,0
65000,-1.36067,-0.71291,2.38181,0
65020,-1.35888,-0.715685,2.3776,0
65040,-1.35791,-0.718642,2.37395,0
65060,-1.35654,-0.721564,2.37009,0
65080,-1.35422,-0.724717,2.36491,0
65100,-1.35207,-0.727945,2.35948,0
65120,-1.34979,-0.730692,2.35471,0
65140,-1.3469,-0.733604,2.35031,0
65160,-1.34527,-0.736541,2.34691,0
65180,-1.34484,-0.739666,2.34292,0
65200,-1.34396,-0.742658,2.33833,0
65220,-1.34305,-0.746045,2.33403,0
65240,-1.3419,-0.749653,2.32987,0
65260,-1.33922,-0.753222,2.32509,0
65280,-1.33715,-0.756741,2.32008,0
65300,-1.33587,-0.760495,2.31484,0
65320,-1.33401,-0.763816,2.30966,0
65340,-1.33224,-0.766623,2.30515,0
65360,-1.3297,-0.769885,2.30013,0
65380,-1.3271,-0.773665,2.29496,0
65400,-1.32512,-0.777391,2.28994,0
65420,-1.32277,-0.78094,2.28541,0
65440,-1.32033,-0.784787,2.28077,0
65460,-1.31777,-0.788957,2.27543,0
65480,-1.31532,-0.792443,2.27011,0
65500,-1.31339,-0.79528,2.26509,0
65520,-1.31104,-0.797979,2.25963,0
65540,-1.30748,-0.800471,2.25288,0
65560,-1.30374,-0.801794,2.24633,0
65580,-1.30023,-0.803267,2.24052,0
65600,-1.29657,-0.805332,2.23457,0
65620,-1.29366,-0.807234,2.22949,0
65640,-1.29181,-0.809352,2.22494,0
65660,-1.28949,-0.811679,2.22071,0
65680,-1.28568,-0.813697,2.21606,0
65700,-1.2827,-0.814862,2.21171,0
65720,-1.28048,-0.815666,2.208,0
65740,-1.27665,-0.816756,2.20383,0
65760,-1.27373,-0.817788,2.20008,0
65780,-1.27132,-0.818409,2.19609,0
65800,-1.26892,-0.818938,2.19182,0
65820,-1.26529,-0.819897,2.18749,0
65840,-1.26208,-0.821126,2.18361,0
65860,-1.25872,-0.822662,2.17914,0
65880,-1.25512,-0.8242,2.17464,0
65900,-1.25075,-0.825983,2.1694,0
65920,-1.2463,-0.828063,2.16411,0
65940,-1.24157,-0.830133,2.15868,0
65960,-1.23694,-0.831717,2.15281,0
65980,-1.23288,-0.832967,2.14747,0
66000,-1.22855,-0.834206,2.14198,0
66020,-1.22408,-0.835847,2.13628,0
66040,-1.21937,-0.837399,2.13004,0
66060,-1.21458,-0.838542,2.1241,0
66080,-1.20856,-0.839512,2.11668,0
66100,-1.20195,-0.841078,2.10945,0
66120,-1.19572,-0.842097,2.10273,0
66140,-1.18985,-0.842605,2.09575,0
66160,-1.18321,-0.843328,2.08804,0
66180,-1.17691,-0.84371,2.08074,0
66200,-1.17142,-0.843771,2.07381,0
66220,-1.16528,-0.843539,2.06578,0
66240,-1.15879,-0.843083,2.05783,0
66260,-1.15279,-0.842113,2.05026,0
66280,-1.14655,-0.841229,2.04252,0
66300,-1.14021,-0.840419,2.0344,0
66320,-1.13368,-0.8395,2.02579,0
66340,-1.12737,-0.838264,2.01766,0
66360,-1.12155,-0.836516,2.0098,0
66380,-1.11518,-0.834943,2.00147,0
66400,-1.10934,-0.833058,1.99421,0
66420,-1.10442,-0.830568,1.98741,0
66440,-1.0991,-0.828669,1.98017,0
66460,-1.09323,-0.826228,1.97274,0
66480,-1.08821,-0.823515,1.96603,0
66500,-1.08352,-0.820987,1.95966,0
66520,-1.07825,-0.817852,1.9524,0
66540,-1.07281,-0.814708,1.94478,0
66560,-1.06829,-0.811172,1.93846,0
66580,-1.06355,-0.808298,1.93282,0
66600,-1.05899,-0.805611,1.92773,0
66620,-1.05464,-0.803021,1.92294,0
66640,-1.05064,-0.799757,1.91802,0
66660,-1.0471,-0.79583,1.91327,0
66680,-1.04475,-0.791561,1.90966,0
66700,-1.04322,-0.787331,1.90668,0
66720,-1.04065,-0.783456,1.90259,0
66740,-1.03774,-0.779558,1.89867,0
66760,-1.03546,-0.775398,1.89554,0
66780,-1.03258,-0.771501,1.89197,0
66800,-1.029,-0.767758,1.88808,0
66820,-1.02567,-0.764322,1.8842,0
66840,-1.02283,-0.761012,1.88014,0
66860,-1.01933,-0.756997,1.87515,0
66880,-1.01603,-0.751941,1.87016,0
66900,-1.01222,-0.747128,1.86585,0
66920,-1.00787,-0.742269,1.86195,0
66940,-1.00477,-0.737781,1.85923,0
66960,-1.00175,-0.73387,1.85711,0
66980,-0.998572,-0.729295,1.85373,0
67000,-0.995922,-0.724089,1.85037,0
67020,-0.993262,-0.718797,1.84787,0
67040,-0.990246,-0.714146,1.8452,0
67060,-0.985937,-0.710047,1.84246,0
67080,-0.981841,-0.706823,1.8404,0
67100,-0.978276,-0.70346,1.83745,0
67120,-0.975928,-0.69925,1.83506,0
67140,-0.97518,-0.695048,1.83457,0
67160,-0.974237,-0.69124,1.83393,0
67180,-0.97312,-0.687873,1.83332,0
67200,-0.971625,-0.684308,1.83313,0
67220,-0.97178,-0.681151,1.83367,0
67240,-0.972464,-0.677656,1.83353,0
67260,-0.974244,-0.673416,1.83414,0
67280,-0.976548,-0.669236,1.83495,0
67300,-0.978024,-0.665375,1.83497,0
67320,-0.979479,-0.661405,1.83508,0
67340,-0.981571,-0.656943,1.83637,0
67360,-0.983158,-0.652919,1.83706,0
67380,-0.985144,-0.64949,1.83803,0
67400,-0.987234,-0.646805,1.83946,0
67420,-0.98861,-0.644976,1.8405,0
67440,-0.990344,-0.643366,1.84048,0
67460,-0.993859,-0.640876,1.8418,0
67480,-0.997738,-0.638144,1.84471,0
67500,-0.998803,-0.635295,1.84653,0
67520,-0.999884,-0.632173,1.84812,0
67540,-1.00351,-0.628228,1.85116,0
67550,-1.00617,-0.623501,1.85363,0
67570,-1.00735,-0.618772,1.8557,0
67590,-1.00851,-0.615385,1.85828,0
67610,-1.00977,-0.611849,1.86016,0
67630,-1.01112,-0.60797,1.86126,0
67650,-1.012,-0.604778,1.86268,0
67670,-1.0121,-0.602421,1.86462,0
67690,-1.01089,-0.600331,1.86744,0
67710,-1.00938,-0.599058,1.86956,0
67730,-1.01051,-0.597874,1.87164,0
67750,-1.01302,-0.595782,1.87433,0
67770,-1.0144,-0.593163,1.8772,0
67790,-1.01562,-0.5911,1.88099,0
67810,-1.01776,-0.58969,1.88487,0
67830,-1.02025,-0.587337,1.88828,0
67850,-1.02401,-0.584232,1.89248,0
67870,-1.02729,-0.581382,1.89681,0
67890,-1.02821,-0.578835,1.90085,0
67910,-1.02936,-0.577106,1.90536,0
67930,-1.03267,-0.57638,1.91037,0
67950,-1.03586,-0.57494,1.91459,0
67970,-1.03797,-0.57334,1.91884,0
67990,-1.0404,-0.572297,1.92394,0
68010,-1.04416,-0.571203,1.92884,0
68030,-1.04799,-0.568979,1.93271,0
68050,-1.05289,-0.565537,1.93731,0
68070,-1.05767,-0.56216,1.94263,0
68090,-1.06071,-0.558811,1.94687,0
68110,-1.06316,-0.555897,1.95,0
68130,-1.06604,-0.553341,1.95311,0
68150,-1.06894,-0.550874,1.95567,0
68170,-1.07126,-0.54813,1.95752,0
68190,-1.07342,-0.546157,1.96041,0
68210,-1.0746,-0.544254,1.96255,0
68230,-1.07465,-0.541974,1.96288,0
68250,-1.07459,-0.538992,1.96385,0
68270,-1.07653,-0.535896,1.96531,0
68290,-1.07852,-0.532894,1.96603,0
68310,-1.07906,-0.530279,1.96716,0
68330,-1.08077,-0.528053,1.96937,0
68350,-1.08281,-0.526357,1.97144,0
68370,-1.08418,-0.525069,1.97382,0
68390,-1.08563,-0.524211,1.97683,0
68410,-1.08645,-0.523258,1.98013,0
68430,-1.08712,-0.522734,1.98294,0
68450,-1.08843,-0.522136,1.98584,0
68470,-1.08943,-0.520745,1.98844,0
68490,-1.09051,-0.519709,1.9917,0
68510,-1.09174,-0.519295,1.99529,0
68530,-1.09192,-0.518852,1.99725,0
68550,-1.09277,-0.518671,2.00047,0
68570,-1.09555,-0.518704,2.00548,0
68590,-1.09755,-0.519052,2.0098,0
68610,-1.09898,-0.519404,2.01369,0
68630,-1.10174,-0.520029,2.01828,0
68650,-1.10562,-0.519872,2.02198,0
68670,-1.10893,-0.51953,2.02493,0
68690,-1.11133,-0.518757,2.02858,0
68710,-1.1125,-0.518145,2.03082,0
68730,-1.11387,-0.517257,2.03308,0
68750,-1.11603,-0.516312,2.036,0
68770,-1.11802,-0.515422,2.03799,0
68790,-1.1192,-0.514125,2.03956,0
68810,-1.12173,-0.513325,2.04255,0
68830,-1.12484,-0.51261,2.04529,0
68850,-1.12651,-0.511132,2.04674,0
68870,-1.12852,-0.509896,2.04933,0
68890,-1.13001,-0.508664,2.05139,0
68910,-1.13149,-0.50717,2.05318,0
68930,-1.13216,-0.50569,2.05475,0
68950,-1.13286,-0.504122,2.05648,0
68970,-1.13489,-0.502789,2.05923,0
68990,-1.13706,-0.501541,2.06198,0
69010,-1.13872,-0.499794,2.06417,0
69030,-1.13948,-0.498382,2.06646,0
69050,-1.14172,-0.497468,2.0701,0
69070,-1.14367,-0.495888,2.07231,0
69090,-1.14551,-0.493859,2.07451,0
69110,-1.1467,-0.492014,2.07751,0
69130,-1.1489,-0.490827,2.08106,0
69150,-1.14969,-0.489503,2.08383,0
69170,-1.15,-0.488286,2.08658,0
69190,-1.15211,-0.488032,2.09053,0
69210,-1.15384,-0.488055,2.09451,0
69230,-1.15478,-0.487926,2.09775,0
69250,-1.15615,-0.487955,2.1016,0
69270,-1.15898,-0.48786,2.10627,0
69290,-1.16159,-0.487502,2.11195,0
69310,-1.16219,-0.487455,2.11756,0
69330,-1.16429,-0.488661,2.12339,0
69340,-1.16952,-0.49042,2.1303,0
69370,-1.17414,-0.49134,2.13704,0
69390,-1.17793,-0.493129,2.14363,0
69410,-1.18174,-0.495095,2.1507,0
69430,-1.18593,-0.497211,2.15744,0
69450,-1.19026,-0.499294,2.16402,0
