Timestamp, Rotation x, Rotation y, Rotation z, Marker
30,-0.5625,-0.3125,0.4375,0
60,-1.75,-0.125,1.3125,0
80,-2.5625,-0.125,1.125,0
100,-3.3125,-1.75,0.5,0
120,-1.625,-3.625,-4.1875,0
130,5.3125,-10.4375,-12.5625,0
150,31.875,-24.375,-15.625,0
150,52.6875,-28.75,-20.1875,0
190,-90.375,-111.375,7.8125,0
210,-83.5,-122.062,-11.25,0
230,-74.3125,-135.188,-18.75,0
250,-65.0625,-150.5,-14.75,0
260,-59.3125,-162.938,-15,0
280,-63.1875,-159.688,-24.875,0
300,-64.4375,-157.875,-32.375,0
310,-65.4375,-160.375,-32.3125,0
310,-71.1875,-160.125,-24.375,0
360,-76.75,-154.5,-9.625,0
380,-75.75,-142.5,2.125,0
400,-69.625,-132.188,8.375,0
420,-65.125,-128.625,14.1875,0
440,-63.875,-121.562,24.6875,0
460,-63.125,-113.188,35.75,0
470,-42.125,-83.4375,37.5625,0
510,3.5625,-32,-33.875,0
530,14.6875,-39.1875,-12.9375,0
550,8.375,-36.5625,-2.75,0
570,-22.4375,-24.5,6.875,0
590,-25.625,-14.875,-0.3125,0
610,-25,0,-6.75,0
630,-14.4375,7.75,-10.3125,0
640,-11.8125,5.3125,-5.625,0
660,-17.9375,-3.75,-1.1875,0
680,-19.75,-9.75,6.25,0
700,-18.625,-11.5625,13.6875,0
720,-15.5625,-12.1875,12.25,0
740,-3.8125,-17.1875,-0.25,0
760,3,-22.125,-9.5,0
780,0.75,-25.75,-9.5625,0
800,11.0625,-28.625,-17.5625,0
820,15,-34.375,-30.4375,0
840,7.75,-34.5,-28.8125,0
860,-3.125,-27.875,-12.75,0
860,-15,-18.875,8.375,0
880,-23.625,-14.5625,30.25,0
900,-18.4375,-11.0625,38.0625,0
900,-5.8125,-9.5,32.75,0
920,4.5,-4.0625,30,0
920,11.9375,2.0625,29,0
940,21.3125,4.125,26.4375,0
950,25.25,9.875,30.5,0
960,25.625,14.625,41.25,0
1030,28.25,-4.8125,18.125,0
1050,88.875,153.938,-43.6875,0
1070,89.6875,184.062,-34.25,0
1090,81.5625,209.562,-26.625,0
1100,68.5625,219.312,-38.125,0
1120,85.9375,211.125,-59.8125,0
1140,102.625,186.875,-42.25,0
1160,102.75,171.75,-31.4375,0
1180,81.5625,174.75,-40.875,0
1210,48.875,192.562,-28.625,0
1240,58.125,205,-8.75,0
1260,74.6875,214.688,-4.5625,0
1300,67.9375,-107.812,-0.6875,0
1330,-32.6875,-0.875,19.3125,0
1370,-2.8125,31.75,17,0
1390,-23.75,-21.3125,-6.4375,0
1410,-17.125,-19.5625,-1.375,0
1430,2.8125,-13.0625,-15.5625,0
1460,-0.625,-7.75,-69.3125,0
1480,46.3125,2.375,-161.562,0
1500,98,-13.6875,-167.5,0
1520,135.312,-51.75,-180.188,0
1540,141.75,-97.875,-205.5,0
1560,104.688,-122.562,-229.688,0
1580,65.4375,-141.375,-210.312,0
1600,41.8125,-164.438,-196.562,0
1620,24.875,-171.188,-199,0
1640,29.5625,-174.938,-186.5,0
1660,30.0625,-177,-170.5,0
1680,38.25,-175.062,-158.875,0
1700,33.75,-170.625,-140.5,0
1720,23,-164.625,-118.562,0
1740,18.875,-153.875,-103.438,0
1760,19.125,-144.438,-93,0
1780,23.5625,-133.75,-75.75,0
1800,24.375,-121.25,-64.3125,0
1820,25.3125,-111.812,-50.8125,0
1840,20.8125,-98.875,-36.0625,0
1860,12,-85.375,-20.75,0
1880,3.375,-75.5,-5.5,0
1900,2.125,-64.0625,1.6875,0
1920,-0.875,-50.9375,4,0
1940,0.5625,-35.3125,9.4375,0
1960,-3.9375,-23.375,12.5625,0
1980,-2.9375,-15.125,11.125,0
2000,0.75,-7.4375,8.125,0
2020,3.5,-4.875,3.1875,0
2040,2.8125,-8.5625,0.3125,0
2060,-0.3125,-10.875,0.875,0
2080,-5,-8.0625,4.1875,0
2100,-8.25,-7,7.0625,0
2120,-7.625,-12.1875,7.8125,0
2140,-10.9375,-12.75,11.75,0
2160,-9.625,-1.3125,12.75,0
2180,-10.3125,3.75,7.75,0
2200,-11.9375,-1.1875,3.9375,0
2220,-6.9375,-2.8125,-3.0625,0
2240,-1.75,0.6875,-5.9375,0
2260,-0.25,6.8125,-3.75,0
2280,-1.125,5.875,-8.4375,0
2300,-2.25,-1.5625,-8.5,0
2320,-0.6875,-1.75,-7.5,0
2340,0.125,-1.75,-6.1875,0
2360,-0.1875,-1.8125,-4.8125,0
2380,2.8125,-0.6875,-3.5,0
2400,4.5,-3.25,-3.75,0
2420,1.625,-5.5625,-3.5,0
2440,-2.625,-4.25,-0.5,0
2460,-7.625,-1.625,0.1875,0
2480,-10.6875,2.9375,-2.875,0
2500,-7.4375,15,-6,0
2520,-6.0625,33.375,-4.75,0
2540,-12.125,51.8125,5.375,0
2560,-25.75,66.9375,25.875,0
2580,-42.5,79.625,49.4375,0
2590,-47.6875,97.3125,73,0
2610,-41.625,124.75,98.5,0
2630,-33.8125,150.312,135.188,0
2650,-40,166.25,161.125,0
2670,-36.0625,162.75,171.938,0
2680,-35.8125,158.688,185.5,0
2700,-50.1875,163,191.938,0
2720,-66.1875,170.312,180.562,0
2740,-72.5625,155.875,174.438,0
2760,-70.375,131.75,191.812,0
2780,-60.6875,109.312,205.5,0
2800,-50.375,100.375,184.312,0
2820,-29.3125,97.4375,157.438,0
2840,0,91,138.875,0
2860,29.125,79.5,124.812,0
2880,50.8125,70.75,120.125,0
2900,52.8125,67.875,119.438,0
2920,48.375,67.9375,119,0
2960,-142.188,-26,48.9375,0
2980,-98.0625,-55.75,-13.125,0
3000,3.25,-52.8125,-18.625,0
3020,103.625,-37.0625,-23,0
3040,137.188,-23,-13.5625,0
3060,99.875,-12.3125,1.375,0
3080,37.875,0.1875,18.75,0
3100,-26.4375,4.25,33.375,0
3120,-63.75,1.1875,38.1875,0
3140,-72.6875,-3.75,34.4375,0
3160,-63,-9.8125,30.8125,0
3180,-41.5625,-12.375,23.5,0
3200,-21.625,-10.125,13.0625,0
3220,-11.5625,-6.875,6.625,0
3240,-7.8125,-3.875,3.3125,0
3260,-5.5625,-0.9375,0.1875,0
3260,-0.8125,0.4375,-2.625,0
3300,10.5,1.0625,-1,0
3330,7.25,2.4375,-1.75,0
3350,6.25,2.5625,-2.75,0
3380,1.125,3.4375,-4.4375,0
3400,-1.25,2,-2.25,0
3420,-2.25,1,0.4375,0
3440,-1.8125,0.125,-0.0625,0
3460,-1.1875,-0.9375,-0.8125,0
3480,0.0625,-1.375,-1,0
3500,0.375,-1.5,-1.3125,0
3500,1.375,-1.625,-1.3125,0
3520,1.625,-1.6875,-0.8125,0
3540,2.4375,-1.4375,0,0
3550,3.5,-1.5,0.4375,0
3550,3.6875,-1.4375,0.4375,0
3570,3,-1.375,0.3125,0
3590,3.25,-1.375,0.125,0
3630,0.75,-0.8125,-0.1875,0
3640,-1.0625,-0.0625,0.1875,0
3640,-2,0.1875,2.375,0
3680,3,-0.1875,1.875,0
3690,3,-0.375,1.75,0
3730,3,-0.1875,0.6875,0
3740,0.625,-1.125,0.625,0
3760,-2.25,-1.8125,1.4375,0
3790,0.25,-0.6875,0.8125,0
3810,-0.125,-0.6875,0.0625,0
3830,-0.625,-0.4375,-0.9375,0
3850,5.1875,-0.5,-2.375,0
3860,3.1875,-0.375,-1.875,0
3880,1,0.0625,-1.3125,0
3900,1.0625,0.125,-1.0625,0
3930,0.8125,-0.5625,0.3125,0
3960,-5.5,-1.5625,2.875,0
3990,-3.75,-1.25,2.6875,0
4010,-3.125,-1.25,2.75,0
4030,-2.6875,-1.3125,2.5,0
4050,-2.6875,-1,1.8125,0
4070,-2.5,-0.75,1.3125,0
4090,-1.875,-0.4375,0.9375,0
4120,2.4375,0.0625,-1.375,0
4140,2.4375,-0.25,-1.5,0
4160,2.3125,-0.9375,-1.5,0
4230,24.0625,1.3125,-15.5625,0
4250,23.875,-0.125,-14,0
4260,20.1875,-0.4375,-12.125,0
4260,6.9375,0.125,-6.25,0
4280,3.9375,-0.125,-4.5,0
4310,1.0625,1.0625,-3.375,0
4330,-3.25,0.875,-3.25,0
4360,-10.3125,-2.0625,4.75,0
4380,-5.9375,-2.375,2.8125,0
4390,-2.75,1,-0.875,0
4420,2.5625,3.5,1.25,0
4440,3.5,0.3125,2.5625,0
4460,-2.25,-1.125,4.6875,0
4470,-7.1875,-2.1875,6.9375,0
4490,-8.625,-3.9375,7.9375,0
4530,-3.4375,-1.5625,3.4375,0
4550,-2.875,-1.5625,3.5625,0
4560,-3,-1.5,3.125,0
4580,-3.1875,-1.0625,3.125,0
4600,-2.875,-0.9375,3.5625,0
4600,-2.5625,-1.0625,4,0
4620,-1.9375,-1,3.6875,0
4640,-1.5625,-0.875,3.125,0
4660,-2.0625,-0.5,2.125,0
4680,-2.125,-0.4375,2.0625,0
4700,-2,-0.3125,2,0
4710,-1.8125,-0.25,1.8125,0
4730,-1.4375,-0.3125,1.5625,0
4750,-1.125,-0.375,1.75,0
4780,-1,-0.0625,1.75,0
4800,-2.125,-0.125,1.5,0
4830,-2,-0.8125,1.5625,0
4850,-1.3125,-0.6875,1.3125,0
4880,-0.875,-0.6875,0.5,0
4910,-0.8125,-0.875,0.4375,0
4940,-0.875,-0.5625,-0.375,0
4960,-0.625,-0.9375,-1.125,0
4980,-0.8125,-1.375,-1.875,0
5000,-2.3125,2,1.875,0
5030,-0.6875,0.6875,-0.25,0
5040,-0.875,0.5625,-0.1875,0
5090,-1.875,-0.1875,-1,0
5110,3,-0.0625,-3,0
5130,4.4375,-0.125,-2.375,0
5150,-5.75,-0.875,3.1875,0
5190,-2.375,-0.5625,1.4375,0
5210,1.0625,-0.375,-0.5625,0
5250,-0.625,-1.5,0.625,0
5280,-0.625,-1.3125,0.1875,0
5320,-0.125,-1.6875,-0.3125,0
5340,0.9375,-1.75,-1.125,0
5360,0.9375,-1.5,-1.5625,0
5380,0.6875,-1.4375,-0.875,0
5400,1.625,-1.6875,-0.5625,0
5420,1.125,-1.6875,0.1875,0
5440,-0.25,-1.75,0.125,0
5460,-0.5625,-2.25,0.125,0
5470,0.25,-2.0625,0.125,0
5490,0.25,-1.9375,0.3125,0
5510,-0.75,-1.875,-0.125,0
5530,-1.5,-1.6875,-0.625,0
5540,-0.125,-1.25,-1.4375,0
5560,0.9375,-0.9375,-1.625,0
5560,1.6875,-1.25,-1.1875,0
5560,1.5625,-1.5625,-0.875,0
5580,1.125,-1.625,-0.8125,0
5590,1.0625,-1.875,-1.375,0
5630,0.9375,-1.8125,0.3125,0
5640,-1.625,-1.75,0.9375,0
5660,-1.3125,-1.6875,1,0
5670,-1.25,-1.375,1.375,0
5690,-1,-1.3125,1.1875,0
5710,-0.6875,-1,0.375,0
5730,0.4375,-0.8125,0.0625,0
5730,0.875,-1,0.1875,0
5750,0.9375,-0.9375,-0.1875,0
5780,0.375,-1.1875,0.0625,0
5810,0.0625,-1.3125,0.0625,0
5850,0.3125,-1.1875,0.0625,0
5860,-0.125,-1.25,0.375,0
5880,-0.3125,-1.0625,0.125,0
5880,-0.3125,-1.375,0.125,0
5880,-0.4375,-1.375,0.125,0
5900,-0.4375,-1.375,0.1875,0
5910,0.125,-1.4375,-0.1875,0
5960,0.3125,-1.5,-0.6875,0
5970,0.3125,-1.5625,-0.5,0
5990,0.0625,-1.5,-0.6875,0
6020,1.5625,-1.375,-0.75,0
6040,1.8125,-1.75,0.0625,0
6080,-1.0625,-2,2.0625,0
6100,-1,-1.9375,2.6875,0
6120,-0.6875,-1.9375,4.1875,0
6140,-2.1875,-1.8125,4.625,0
6160,-2.875,-2.25,5.1875,0
6180,-3.25,-2.5,5.0625,0
6200,-3.5625,-2.25,4.8125,0
6220,-3.8125,-1.75,5,0
6240,-4.75,-1.75,4.9375,0
6260,-5.1875,-1.75,4.75,0
6280,-4.125,-1.875,4.5,0
6300,-2.875,-1.5,2.875,0
6320,-1.125,-1.3125,1.9375,0
6340,0.125,-0.1875,1.6875,0
6360,-0.125,0.0625,1.6875,0
6390,0,0.5,0.8125,0
6410,0.3125,0.5,0.8125,0
6430,0.1875,0.5,0.6875,0
6450,-0.375,0.3125,0.375,0
6470,-0.6875,0.25,0.125,0
6490,-0.4375,0.1875,0.0625,0
6540,0.625,-0.3125,0.4375,0
6580,-0.8125,-0.625,1,0
6600,-0.75,-0.9375,1.1875,0
6620,-0.75,-0.75,1.25,0
6630,-0.875,-0.625,1.25,0
6650,-1.0625,-0.625,1.5,0
6670,-1.3125,-0.75,1.5625,0
6710,-1.8125,-0.625,0.6875,0
6740,-0.1875,-0.625,0.5,0
6780,0.0625,-0.6875,0.6875,0
6810,-0.875,-0.625,1.125,0
6830,-1.1875,-0.625,1.25,0
6850,-1.375,-0.25,1.125,0
6870,-1.5,-0.3125,1,0
6890,-1.9375,-0.3125,0.9375,0
6920,-0.875,-0.125,-0.125,0
6940,-0.5625,-0.0625,-0.125,0
6960,-0.125,0.1875,-0.375,0
6970,0.625,0.125,-0.8125,0
6990,1.125,0.0625,-0.9375,0
7010,1,0.375,-0.75,0
7030,0.25,0.75,-0.625,0
7050,-0.625,0.6875,-0.9375,0
7070,-1.0625,0.625,-0.625,0
7090,-1.3125,0.75,-0.0625,0
7100,-1.4375,1.25,0.1875,0
7120,-1.1875,1.375,-0.125,0
7140,-1.125,1.1875,-0.4375,0
7160,-1.25,1.375,0.0625,0
7180,-1.3125,1.125,0.25,0
7200,-0.875,0.75,-0.125,0
7220,0.625,0.3125,-0.875,0
7240,1.6875,0.4375,-1.0625,0
7260,2.3125,0.375,-0.5625,0
7280,2,0.3125,-0.25,0
7290,1.125,0.125,-0.125,0
7330,2.5625,-1.625,-1.5625,0
7350,3,-1.9375,-2.5625,0
7370,3.5625,-2.0625,-2.375,0
7390,5,-2,-1.25,0
7410,4.6875,-2.6875,-1,0
7430,4.3125,-3,-1.5625,0
7440,3,-3.0625,-1.4375,0
7460,1,-3,-0.875,0
7480,-0.375,-2.9375,0.125,0
7500,-0.9375,-2.8125,0.5625,0
7510,-1.6875,-2.6875,1,0
7530,-2.9375,-2.75,1.5,0
7550,-4.125,-2.9375,1.8125,0
7570,-3.875,-2.8125,1.5625,0
7590,-2.875,-2.8125,0.9375,0
7610,-2.375,-2.4375,0.125,0
7650,-0.4375,-2.25,-0.5,0
7670,1.0625,-2.1875,-1.125,0
7690,2.1875,-1.875,-1.875,0
7710,2.4375,-1.6875,-2.1875,0
7730,2.5625,-1.4375,-2.4375,0
7740,3,-1.125,-2.4375,0
7760,1.8125,-0.6875,-2.1875,0
7780,1,-0.6875,-1.75,0
7800,0.4375,-0.5625,-1.375,0
7820,0.5625,-0.625,-1,0
7840,0.1875,-0.4375,-0.75,0
7860,-0.375,-0.375,-0.375,0
7880,-1,-0.4375,0.0625,0
7900,-1.5,-0.25,0.25,0
7920,-1.5,-0.3125,0.375,0
7940,-1.5,-0.4375,0.375,0
7960,-1.25,-0.8125,0.5,0
7980,-1.5625,-0.75,0.5,0
8000,-1.6875,-0.625,0.375,0
8040,-1,-1,0.4375,0
8060,0,-1.125,0.375,0
8080,-0.25,-1,-0.125,0
8090,0.75,-0.8125,0.1875,0
8100,0.3125,-0.6875,0.0625,0
8120,0.375,-0.6875,-0.375,0
8150,-0.75,-0.8125,-0.0625,0
8190,-0.0625,-1.0625,-0.0625,0
8210,0.125,-1,0.125,0
8230,-0.4375,-0.6875,0.25,0
8250,-0.625,-1.0625,0.1875,0
8270,-0.625,-1.3125,0.25,0
8300,-0.8125,-1,0.375,0
8320,-0.25,-1.3125,0.125,0
8340,0.375,-1.4375,-0.25,0
8360,0.375,-1.125,-0.4375,0
8380,0.25,-1,-0.375,0
8400,0.5,-0.9375,-0.5,0
8420,1.6875,-0.8125,-0.6875,0
8450,0.75,-0.9375,-0.25,0
8470,0.5,-0.75,-0.3125,0
8510,-0.125,-0.6875,0,0
8530,-0.5625,-0.75,0.125,0
8550,-0.75,-0.8125,0.0625,0
8560,-0.8125,-0.8125,0.125,0
8580,-1.375,-0.75,0.125,0
8610,-2.0625,-0.25,-1,0
8630,-1.4375,-0.5625,-1.1875,0
8650,-0.625,-1.1875,-1.625,0
8660,-0.4375,-1.1875,-2.5,0
8680,0.375,-0.9375,-2.625,0
8700,1.125,-1,-1.875,0
8730,0,-1.25,-1.75,0
8760,-0.625,-1.3125,-2.1875,0
8780,-0.625,-1.0625,-1.875,0
8800,-0.9375,-0.75,-1.8125,0
8820,-1.9375,0.125,-1.8125,0
8840,-0.75,0.25,-1.25,0
8860,-1.0625,-0.125,-1.6875,0
8880,-0.625,-0.8125,-1.8125,0
8900,-0.3125,-0.875,-1.6875,0
8930,0,-0.8125,-1.375,0
8960,-0.8125,-0.0625,-1.6875,0
8980,-0.625,0.0625,-1.8125,0
9000,0.125,-0.125,-2.1875,0
9010,0.4375,-0.1875,-2.375,0
9030,0.375,-0.0625,-2.5,0
9050,0.0625,0.125,-2.5,0
9060,-0.0625,0.1875,-2.4375,0
9060,-0.25,0.3125,-2.375,0
9080,-0.4375,0.25,-2.5,0
9100,-0.375,0.125,-2.375,0
9120,-0.125,-0.375,-2.25,0
9140,-0.3125,-0.5,-2.3125,0
9160,-0.625,-0.5625,-2.1875,0
9210,-0.8125,-0.6875,-1.6875,0
9230,-0.875,-0.5625,-1.625,0
9240,-1.1875,-0.6875,-1.6875,0
9260,-1.25,-1.0625,-1.5,0
9260,-1,-1.125,-0.5625,0
9280,-1.625,-1.1875,-0.0625,0
9300,-2.25,-0.8125,-0.5,0
9310,-2.5625,-0.75,-0.5625,0
9310,-3.25,-0.3125,0,0
9330,-2.8125,-0.3125,-0.3125,0
9350,-1.75,-0.0625,-0.875,0
9370,0.5,-0.125,-1.125,0
9410,0.0625,-0.375,-1.375,0
9430,0.5625,-0.4375,-1.75,0
9430,1.25,-0.5625,-1.4375,0
9450,0.875,-0.375,-1.1875,0
9460,0.5,-0.625,-0.75,0
9490,0,-1,-0.375,0
9510,-0.375,-1,0.0625,0
9550,-0.3125,-1.0625,0.25,0
9580,-0.25,-1.1875,0.0625,0
9600,-0.25,-1.3125,0.3125,0
9620,-0.75,-1.125,0.3125,0
9650,-0.5625,-1.1875,-0.25,0
9670,0.3125,-0.75,-0.4375,0
9710,0.875,-1.1875,0.25,0
9730,0.6875,-1.0625,0.0625,0
9750,0.1875,-0.8125,-0.3125,0
9750,-0.375,-0.875,-0.1875,0
9770,-0.8125,-1.0625,0.125,0
9790,-0.375,-1.0625,-0.0625,0
9830,0.625,-1.1875,0.0625,0
9850,0.6875,-1.3125,0.125,0
9890,0.0625,-1.125,0,0
9910,-0.0625,-1.0625,0,0
9930,0.0625,-1.25,0.4375,0
9950,0.1875,-1.1875,0.5,0
9970,0.625,-1.25,0.25,0
9970,0.1875,-1.1875,0.375,0
9990,-0.125,-1.125,0.3125,0
10010,-0.0625,-0.9375,0.1875,0
10030,0.25,-0.9375,0.0625,0
10060,0.5,-1.125,0.1875,0
10080,0.375,-1.3125,0.1875,0
10100,0.375,-1.3125,0.0625,0
10120,0.125,-1.375,0.375,0
10160,-0.1875,-1.5,0.375,0
10200,0.4375,-1.5,0.125,0
10210,1.125,-1.25,-0.4375,0
10230,1.4375,-1.5625,0,0
10250,1.1875,-1.4375,-0.4375,0
10270,0.8125,-1.4375,-0.4375,0
10310,0.9375,-1.5625,0,0
10330,-0.0625,-1.3125,0.1875,0
10350,-0.8125,-1.5625,0.5,0
10360,-0.75,-1.4375,0.5,0
10400,-1,-1.5,0.9375,0
10440,-0.625,-1.375,0.625,0
10460,-1,-1.125,1,0
10480,-0.75,-1.3125,1,0
10500,-0.8125,-1.1875,0.875,0
10510,-1.375,-0.8125,1.125,0
10530,-6.0625,-9.6875,2.8125,0
10560,-16.1875,-14.6875,-6.875,0
10580,10.875,-28.0625,-51.3125,0
10620,18.25,-59.125,-100.062,0
10640,16.375,-69.4375,-108.5,0
10660,11.5,-78.375,-111.312,0
10680,3.8125,-87.5625,-115.438,0
10700,-1.25,-98.1875,-120.562,0
10720,-8.8125,-103.938,-121.188,0
10740,-19.6875,-103.5,-115,0
10760,-24.5625,-107.062,-108.75,0
10780,-30.25,-108.438,-101.625,0
10800,-39.5625,-103.125,-95.9375,0
10820,-44.5625,-97.5625,-89.625,0
10840,-46.5,-92.625,-79.25,0
10860,-42.3125,-86.6875,-71.8125,0
10880,-33.6875,-80.375,-69.5625,0
10900,-29.9375,-75.1875,-66.1875,0
10920,-25.5,-68.5,-59.5,0
10940,-23.1875,-61.3125,-53.25,0
10960,-21.3125,-53.8125,-47.875,0
10980,-20.0625,-47,-43.625,0
11000,-18.25,-41.8125,-38.5,0
11020,-14.375,-36.4375,-33.6875,0
11040,-10.8125,-32,-27.125,0
11060,-9.125,-27.875,-20.9375,0
11080,-9.4375,-23.375,-16.6875,0
11100,-9.1875,-20.0625,-12.6875,0
11120,-7.8125,-17.3125,-8.875,0
11140,-6.5625,-14.625,-3.5,0
11160,-6,-13.75,2.4375,0
11180,-7.3125,-11.6875,8.5625,0
11200,-7.875,-9.75,10.4375,0
11220,-6.125,-9.75,9.9375,0
11240,-4.0625,-11,9.25,0
11260,-2.5625,-11.125,8.5625,0
11280,0.5625,-10.8125,7.375,0
11300,2.75,-10.375,7.0625,0
11320,4,-8.8125,7.875,0
11340,4.875,-7.6875,7.75,0
11360,6.625,-7.6875,10.125,0
11380,6.125,-6.125,12.375,0
11400,3.25,-3.1875,13.9375,0
11420,3.9375,-1.6875,13.5,0
11440,2.6875,-1.75,13.125,0
11460,1.8125,-2.875,12.875,0
11480,2.75,-3.6875,10.75,0
11500,2.625,-3.8125,8.375,0
11520,2.3125,-2.9375,7.625,0
11540,1.5625,-2.75,7.25,0
11560,2.25,-3.0625,6.9375,0
11580,2.875,-2.25,6.4375,0
11600,1.0625,-0.6875,5.0625,0
11620,-0.1875,0.375,3.8125,0
11640,-0.8125,0.375,4.1875,0
11660,-0.75,-0.6875,3.9375,0
11680,0.625,-1.5,3.875,0
11700,1,-1.5,3.5625,0
11720,-0.0625,-1.625,2.9375,0
11740,-0.8125,-2.625,4.1875,0
11760,-0.875,-2.625,5.3125,0
11780,-1.25,-2.875,4.75,0
11800,-1.625,-3.25,5.5,0
11820,-1.4375,-1.875,5.4375,0
11840,-0.875,0,3.125,0
11860,-0.0625,0.625,0.75,0
11880,0.75,-0.25,-0.4375,0
11900,1.125,-0.8125,0.5,0
11920,0.6875,-0.6875,0.875,0
11940,-0.1875,-0.875,0.25,0
11960,-0.375,-0.8125,-0.25,0
11980,-1.3125,-1.125,1.0625,0
12000,-1.75,-0.5,2.125,0
12020,-1,-0.1875,2.6875,0
12040,-0.9375,-1.125,2.6875,0
12060,-0.375,-1.6875,2.0625,0
12080,-0.625,-1,1.5,0
12100,-1.75,0.0625,1.5625,0
12120,-1.125,0.6875,2.25,0
12140,0.375,1.3125,1.625,0
12160,2.375,0.375,1.4375,0
12180,3.3125,-1.375,2.6875,0
12200,2.6875,-2.9375,2.875,0
12220,1.9375,-2.6875,2.375,0
12240,3.5625,-3.1875,1.125,1000
12260,4.875,-3.5,-1.0625,0
12280,6.625,-1.75,-4.25,0
12300,4.625,0.4375,-4.75,0
12320,3.75,1,-3.5625,0
12340,0.5625,0.875,-1.3125,0
12360,-1.3125,-0.625,-0.0625,0
12380,-2.4375,-1.5,0.6875,0
12400,-2.4375,-1.25,1.8125,0
12420,-1.875,-1.5625,1.5625,0
12440,-0.9375,-1.75,0.4375,0
12460,-1.9375,-1.875,0.125,0
12480,-2.25,-1.8125,0.25,0
12500,-1,-2,0,0
12520,0.25,-3.125,-0.6875,0
12540,0.5625,-3.6875,-0.75,0
12560,-0.4375,-4.9375,0.375,0
12580,0.875,-5.5625,1.4375,0
12600,0.4375,-6.375,1.375,0
12620,-0.5625,-7.375,1.625,0
12640,-0.25,-8.25,1.3125,0
12660,0.625,-9.875,1.9375,0
12680,0.0625,-10.5625,3.25,0
12700,0,-9.4375,2.5625,0
12720,0.1875,-9.9375,2,0
12740,0.125,-10.625,0.4375,0
12760,2.25,-10.375,0.0625,0
12780,2.375,-10.875,-0.6875,0
12800,3.875,-11.5,-3,0
12820,5.3125,-12.8125,-4.4375,0
12840,4.125,-14.1875,-4.8125,0
12860,1.5,-15.5625,-3.75,0
12880,1.6875,-17.0625,-4.625,0
12900,1.9375,-18.3125,-6.3125,0
12920,1.375,-19.3125,-6.25,0
12940,-0.875,-18.5625,-3.8125,0
12960,-1.4375,-18.3125,-2.5,0
12980,-1.0625,-18.9375,-4.375,0
12990,-0.5625,-20.1875,-4,0
13010,-0.5625,-21,-5.375,0
13030,0.9375,-21.75,-7.0625,0
13050,2.3125,-20.5625,-6.625,0
13070,2.5,-19.625,-6.9375,0
13090,1.5,-19.0625,-6.5625,0
13110,2,-18.0625,-7.3125,0
13130,4.3125,-17.625,-9.75,0
13150,5,-18,-12.3125,0
13170,5.0625,-16.8125,-12.625,0
13190,5.625,-15.4375,-11.4375,0
13210,7,-15,-10.9375,0
13230,5.3125,-15.625,-13.6875,0
13250,4.25,-15.375,-15,0
13270,2.625,-14.1875,-12.5625,0
13290,3.625,-13.25,-11.625,0
13310,5.625,-13.5,-12.5,0
13330,5.4375,-13.5625,-16.3125,0
13350,4.625,-13.4375,-19.9375,0
13370,3.6875,-13.4375,-16.75,0
13390,1.5625,-14.375,-15.1875,0
13410,3.125,-16.125,-19.5625,0
13430,2,-15.5,-19.9375,0
13450,-2.0625,-12.625,-18.75,0
13470,-1.5,-9.5,-18.1875,0
13490,0.5625,-9.75,-19.375,0
13510,-0.125,-10.1875,-22.1875,0
13530,-0.375,-10.125,-24.6875,0
13550,0.25,-9.375,-25.25,0
13570,1.5,-10.0625,-25.375,0
13590,1.5,-11.25,-28.4375,0
13610,0.6875,-11.3125,-31.625,0
13630,0.375,-9.75,-32.1875,0
13650,-0.3125,-7.6875,-29.5625,0
13670,-1.1875,-5.5625,-29,0
13690,-3.625,-4.5,-30.375,0
13710,-3.625,-4.9375,-29.8125,0
13730,-5.625,-4.125,-29.3125,0
13750,-4.875,-4.4375,-29.375,0
13770,-5.6875,-2.9375,-28.5625,0
13790,-7.0625,-0.875,-27.5,0
13810,-6.625,1.4375,-26.8125,0
13830,-8.375,5.1875,-27.375,0
13850,-10.375,8.875,-28.8125,0
13870,-10.9375,12.125,-29.5,0
13890,-11.25,14.9375,-30.1875,0
13910,-11.125,17.6875,-31.1875,0
13930,-11.25,21.75,-32.25,0
13950,-12.125,25.5,-33.875,0
13970,-14.3125,27.875,-34.4375,0
13990,-15.4375,30.9375,-32.25,0
14010,-15.875,34.9375,-29.8125,0
14030,-17.625,37.9375,-30.1875,0
14050,-18.375,38.0625,-30.5,0
14070,-17.75,36.625,-29.125,0
14090,-16.8125,35.5625,-28.3125,0
14110,-15.9375,34.75,-28.4375,0
14130,-14.25,32.3125,-28.1875,0
14150,-12,28.3125,-28.4375,0
14170,-12,26.25,-28.3125,0
14190,-12.875,24.875,-28.4375,0
14210,-13.875,23.9375,-27.25,0
14230,-12.8125,23.3125,-24.5625,0
14250,-12.25,24,-22.9375,0
14270,-13.0625,25,-23.625,0
14290,-13.6875,25.1875,-24.25,0
14310,-12.125,24.9375,-25.25,0
14330,-10.8125,25.75,-25.875,0
14350,-10.0625,27.625,-27.25,0
14370,-10.4375,27.9375,-27.9375,0
14390,-10.3125,27.875,-27.625,0
14410,-10.375,28.8125,-26.6875,0
14430,-10.625,30.75,-23.625,0
14450,-10.75,33.375,-19.875,0
14470,-10.3125,34.625,-18.25,0
14490,-10.125,33.8125,-15.9375,0
14510,-9.6875,31.875,-13.25,0
14530,-9.9375,30.8125,-12.1875,0
14550,-8.875,29.4375,-11.5,0
14570,-8.4375,26.75,-10.6875,0
14590,-7.6875,23.4375,-12.125,0
14610,-7.3125,21.1875,-11.4375,0
14630,-7.875,20.25,-10.5625,0
14650,-8.3125,19.6875,-9.5625,0
14670,-9.5,21.75,-5.625,0
14690,-10.75,22.25,-7.9375,0
14710,-9.875,21.125,-8,0
14730,-9.25,22.5,-4.875,0
14750,-11,24.5625,-2.5,0
14770,-11.1875,25.0625,-2.4375,0
14790,-11.0625,22.8125,-3.875,0
14810,-8.75,20.9375,-4.875,0
14830,-7.4375,21.125,-2.6875,0
14850,-8.5625,25.125,0.25,0
14870,-12.4375,27.0625,-0.9375,0
14890,-12.3125,23.9375,-3,0
14910,-9.25,20.375,-3.625,0
14930,-6.625,21.0625,-2.875,0
14950,-8.5625,24.4375,-0.0625,0
14970,-12.25,21.75,-1.125,0
14990,-8.375,14.125,-0.625,0
15010,-2.1875,11.0625,-0.875,0
15030,-0.8125,14,-2.1875,0
15050,-4.625,15.6875,0.25,0
15070,-9.9375,12.3125,4,0
15090,-9.0625,8.25,6.9375,0
15110,-6.25,8.75,7.25,0
15130,-4.625,11.5,9.375,0
15150,-3.4375,10.125,9.625,0
15170,-1.5625,4.5625,10.6875,0
15190,0.25,1.1875,11.625,0
15210,-0.125,3.25,13.9375,0
15230,-3.5625,3,14.0625,0
15250,-4.5625,-0.1875,15.9375,0
15270,-2.6875,-1.75,16.625,0
15290,-1.3125,0.1875,16.8125,0
15310,1.0625,1.3125,15.6875,0
15330,2.375,0.6875,12.6875,0
15350,2.4375,0.4375,12.375,0
15370,1.375,1.25,12.375,0
15390,1.125,1.6875,12.5,0
15410,1.9375,0,11.4375,0
15430,2.125,-0.375,11.4375,0
15450,0.75,-0.375,12.6875,0
15470,1.3125,-1.25,14.5,0
15490,0.875,-0.875,16.375,0
15510,0.0625,-1,16.4375,0
15530,1.9375,-2.1875,15.625,0
15550,3.5625,-3.125,16.125,0
15560,3.6875,-1.9375,16.625,0
15580,1.9375,-0.375,17.3125,0
15600,1.0625,-1.1875,17.6875,0
15620,3.25,-2.125,15.625,0
15640,4.4375,-4.5,14.875,0
15660,4.25,-4.5,14.375,0
15680,2.6875,-4.3125,13.125,0
15700,1.875,-4.5,14.25,0
15720,2.5625,-5.0625,14.4375,0
15740,3.625,-4,14.25,0
15760,4.625,-3.5625,13.125,0
15780,4.6875,-4,12.8125,0
15800,4.5625,-5.375,13.25,0
15820,4.3125,-6.375,13.1875,0
15840,3.875,-6.625,12.25,0
15860,3.875,-7.375,11.6875,0
15880,4.5625,-8.1875,11.3125,0
15900,4.5625,-8.6875,11.4375,0
15920,4.6875,-8.75,11,0
15940,3.9375,-8,11.0625,0
15960,4,-8.875,11.0625,0
15980,3.8125,-9.5,10.875,0
16000,3.375,-9.375,11.375,0
16020,1.9375,-9.0625,10.875,0
16040,2.5625,-8.3125,10.8125,0
16060,3.5,-7.875,10.875,0
16080,3.8125,-7.25,10.625,0
16100,4.4375,-8.0625,10.25,0
16120,3.625,-7.625,10.25,0
16140,3.5,-7.6875,9.5,0
16160,2.8125,-8.125,9.25,0
16180,3.5625,-9.25,8.375,0
16200,2.625,-8.5625,8.5,0
16220,1.8125,-8.125,8.8125,0
16240,1.5625,-6.4375,9.875,0
16260,2.625,-5.9375,10.4375,0
16280,2.3125,-5.25,9.875,0
16300,2.25,-5,9.75,0
16320,1.8125,-4.375,10.0625,0
16340,1.5625,-4.5,9.1875,0
16360,1.6875,-5.6875,8.4375,0
16380,1.1875,-5.75,8,0
16400,1.6875,-5.875,8.5,0
16420,0.6875,-6.1875,9.9375,0
16440,-1.3125,-6.75,9.125,0
16460,-1.25,-7.5625,8.0625,0
16480,-1.9375,-8.5,8.9375,0
16500,-2.75,-8.125,9.9375,0
16520,-4.375,-7.625,10.5,0
16540,-3.4375,-6.75,9.8125,0
16550,-3.3125,-7.25,10.875,0
16570,-3.4375,-6.375,10.6875,0
16590,-3.375,-6.125,10.1875,0
16610,-3.125,-6.4375,10.75,0
16630,-4.25,-6.375,10.75,0
16650,-4.875,-6.75,10.1875,0
16670,-3.8125,-6.625,9.8125,0
16690,-2.125,-6.75,9.9375,0
16710,-0.9375,-6.5,9.25,0
16730,1.8125,-6.75,9,0
16750,2.25,-7.1875,9,0
16770,1.9375,-6.5,8.5625,0
16790,1.375,-4.875,8.375,0
16810,2.9375,-4.5625,8.625,0
16830,4.6875,-4.75,8.1875,0
16850,5.3125,-5.25,8.875,0
16850,3.8125,-5.25,10.0625,0
16870,2.125,-5.0625,9.6875,0
16890,3.5625,-4.375,7.625,0
16910,3.5,-11.5,10.375,0
16930,1.5,-16.5,7.8125,0
16970,10.1875,0,3.375,0
16990,-2.375,-11.1875,5.1875,0
16990,5.1875,-5.9375,7.8125,0
17010,6.75,-9.0625,5.6875,0
17030,4.8125,-10.625,7.125,0
17050,6.8125,-18.25,6.25,0
17070,-2.4375,-18.875,8.5,0
17090,7.3125,0.9375,6.5,0
17120,-5.875,-4.875,6.1875,0
17150,-3.6875,-10,11.6875,0
17170,1.625,-11.1875,13.25,0
17190,5.375,-11.25,13.75,0
17210,6.25,-11.6875,10.625,0
17230,4.625,-12.375,10.375,0
17250,-0.125,-10.75,10.6875,0
17270,6.1875,-14.5625,9.1875,0
17290,1.625,-4.5,7.9375,0
17310,2.375,-8.1875,8.8125,0
17330,0.5625,-8.5625,8.75,0
17350,-0.125,-9.3125,9.25,0
17370,-0.4375,-10.25,9.5625,0
17390,0.125,-11.1875,8.5625,0
17410,0.625,-11.625,7.875,0
17430,1.25,-12.0625,7.5625,0
17450,2.3125,-12.875,6.75,0
17470,3.1875,-14.625,6.0625,0
17490,2.375,-16.4375,5.9375,0
17510,0.875,-17.25,6.9375,0
17530,-0.0625,-17.5,7.3125,0
17550,0.875,-17.6875,6.25,0
17570,1.125,-18.75,5.9375,0
17590,1.8125,-19.5625,5.8125,0
17610,2.5,-18.625,4.4375,0
17630,2.8125,-17.25,3.25,0
17650,3.6875,-17.375,3.5,0
17670,4.8125,-17.6875,3.5625,0
17690,5.0625,-17.625,4,0
17710,3.25,-17.5625,4.875,0
17730,1.25,-17.1875,5.5,0
17750,1.5625,-17.5,5.8125,0
17770,1.6875,-18.3125,5.6875,0
17790,1.6875,-18.375,5.375,0
17810,1.375,-17.9375,5.6875,0
17830,1.25,-18.0625,6,0
17850,1.25,-18.625,6.6875,0
17870,0.75,-18.375,6.125,0
17890,1.6875,-19.4375,5.3125,0
17910,2.0625,-20.125,4.0625,0
17930,1.9375,-20.75,3.8125,0
17950,0.9375,-22.3125,3.4375,0
17970,0,-22.375,3.5,0
17990,-1.5625,-22,4,0
18010,-2.0625,-22.1875,4.75,0
18030,-2.6875,-22,4.75,0
18050,-2.625,-21.6875,4.875,0
18070,-0.75,-21.4375,5.0625,0
18090,0.75,-20.3125,4.375,0
18110,1.25,-20.125,4.875,0
18130,-1,-21.5,6.0625,0
18140,-0.9375,-21.3125,5.0625,0
18160,-0.4375,-20.625,3.4375,0
18180,0.125,-21.5625,2.5625,0
18200,-0.0625,-21.375,1.875,0
18220,-0.125,-21.5,0.6875,0
18240,0.5625,-22.0625,-1.5625,0
18260,0.125,-23,-2.0625,0
18280,-0.625,-24.75,-2.9375,0
18300,1.4375,-26.6875,-6.3125,0
18320,1.375,-28,-9.375,0
18340,2.25,-28.0625,-12.5,0
18360,1.125,-28.875,-14.8125,0
18380,0.5625,-29.375,-17.25,0
18400,2.625,-30.1875,-18.5625,0
18420,5,-30.9375,-20.25,0
18440,1.875,-32.6875,-22.75,0
18460,1.625,-33,-25,0
18480,1.25,-32.8125,-26.8125,0
18500,-0.5625,-34.125,-26.5625,0
18520,-2.125,-34.75,-31,0
18540,-3,-32.625,-34.0625,0
18560,-6.875,-27.875,-34.5,0
18580,-8.125,-23.875,-35.25,0
18600,-7.0625,-22.125,-39.125,0
18620,-9.625,-17.75,-43.75,0
18640,-11.4375,-13.5625,-46.375,0
18660,-14.375,-11.1875,-48.0625,0
18680,-19.0625,-8.875,-48.625,0
18700,-22.4375,-3.125,-52,0
18720,-21.1875,2.3125,-51.9375,0
18740,-23.5,3.625,-52.25,0
18760,-23,2.4375,-54.3125,0
18780,-23.5625,3.4375,-55.0625,0
18800,-25.375,4.875,-54.5625,0
18820,-29.4375,6.5625,-54.25,0
18840,-28.0625,9.3125,-53.1875,0
18860,-25.3125,11.5,-56.4375,0
18880,-22.5,11.0625,-57.3125,0
18900,-28.0625,10.5625,-55.75,0
18920,-29.625,11.25,-55.4375,0
18940,-27.5,12.125,-56.375,0
18960,-24.0625,11.5,-55.875,0
18980,-23.5625,10.125,-56.0625,0
19020,-23.9375,9.125,-54.375,0
19060,-21.625,12.125,-47.1875,0
19080,-20.6875,16.875,-40.9375,0
19100,-20.875,24.75,-34.75,0
19120,-20.6875,32.125,-29.6875,0
19140,-18.9375,40.125,-23.25,0
19160,-17.125,43.5,-19.625,0
19180,-14.4375,42.375,-16.9375,0
19200,-13.3125,41.875,-14.3125,0
19220,-14.5625,43.625,-12.3125,0
19240,-13.375,45.9375,-7.375,0
19260,-10.875,51.375,-1.4375,0
19280,-10.3125,50.875,-0.5,0
19300,-6.25,51.1875,1.375,0
19320,-5.625,54.75,5.3125,0
19340,-7.3125,59.375,13.25,0
19360,-11.0625,68.125,24.9375,0
19380,-13.9375,63.5625,31.5,0
19400,-9.8125,54.25,32.5625,0
19420,-8.875,50.3125,29.3125,0
19440,-9,49.6875,32.75,0
19460,-15.0625,47.6875,43.375,0
19480,-17.4375,38.875,48.1875,0
19500,-15.125,32.9375,43.125,0
19520,-11.1875,27.125,38.75,0
19540,-4.75,18.875,40.625,0
19560,-6.0625,13.0625,44.1875,0
19580,-11.8125,9.875,45.9375,0
19600,-13.875,5.5,45.5625,0
19620,-11.4375,2.6875,47.8125,0
19640,-9.5625,2.4375,50.1875,0
19660,-7.875,3.625,51.5625,0
19680,-8,4.125,51.6875,0
19700,-5.1875,5.5,50.25,0
19720,-7.8125,6.375,47,0
19740,-10.875,5.6875,44.625,0
19760,-12.0625,1.8125,43.4375,0
19780,-8.125,1.0625,40,0
19800,-1.8125,-0.8125,36.1875,0
19820,1.0625,-3.125,32.3125,0
19840,0.75,-4.375,29.875,0
19860,-1.25,-9.1875,29.25,0
19880,0.25,-14,27.8125,0
19900,2.6875,-16.4375,25.625,0
19920,3.1875,-18.125,24.125,0
19940,2.6875,-22.375,24.75,0
19960,1.1875,-24.375,26.125,0
19980,1.5,-24.0625,24.5625,0
20000,3.625,-25.0625,23.25,0
20020,4.6875,-27.125,24.0625,0
20040,4.1875,-28,25,0
20060,3.375,-28.3125,24.4375,0
20080,3.6875,-27.3125,23.125,0
20100,4,-27.375,22.75,0
20120,4.4375,-28.1875,22.8125,0
20140,3.625,-29.25,24.25,0
20160,1.3125,-28.5,24.25,0
20180,0.1875,-28.5,23.8125,0
20200,-0.5625,-29.6875,22.875,0
20220,-0.625,-30.25,21.375,0
20240,0.1875,-30.4375,20.4375,0
20260,2.1875,-31.25,19.75,0
20280,4.1875,-29.8125,17.3125,0
20300,5.875,-28.25,14.9375,0
20320,5.4375,-28.5,13.125,0
20340,4.5,-29.1875,13.0625,0
20360,3.5625,-27.5625,12.5625,0
20380,3.5,-24.5625,10.875,0
20400,4.9375,-24,10.5625,0
20420,3.4375,-24.0625,10.1875,0
20440,-1.375,-23.5,11.25,0
20460,-4.5625,-21.4375,11.8125,0
20480,-3.4375,-16.3125,9.875,0
20500,-0.5,-13.125,6.4375,0
20520,2.5625,-11.1875,4.8125,0
20540,1.8125,-9.5625,4.875,0
20560,1.0625,-8.5,5.1875,0
20580,1.4375,-6,5.375,0
20600,3.1875,-5.4375,4.75,0
20620,3.1875,-8.625,2.125,0
20640,0.625,-11.125,1.6875,0
20660,-2.25,-14.125,2.5,0
20680,-2.9375,-16.6875,0.75,0
20700,0.3125,-17.6875,-4,0
20710,4.5625,-21.75,-6.5625,0
20730,6.4375,-27.4375,-8.125,0
20750,7.5,-30.75,-8.4375,0
20770,8.1875,-31.5625,-11,0
20790,8.3125,-33.4375,-12,0
20810,7.375,-37.5625,-11.5625,0
20830,7.3125,-37.6875,-13.25,0
20850,8.4375,-39,-16.875,0
20870,7.875,-41.875,-18.8125,0
20890,6.375,-42.8125,-22.1875,0
20910,3.125,-41.25,-25.875,0
20930,2.6875,-43.1875,-30.6875,0
20950,6.875,-42.625,-34.5,0
20970,7.0625,-43.125,-37.25,0
20990,4.6875,-40.6875,-37.75,0
21010,-1.375,-34.1875,-39.625,0
21030,-6.625,-29.4375,-40.875,0
21050,-10.0625,-25.5,-41.8125,0
21070,-11.4375,-22.4375,-42.25,0
21090,-11.875,-20.875,-47.4375,0
21110,-13.375,-24.4375,-52.9375,0
21130,-18.0625,-25.5,-54.5,0
21150,-18.4375,-22.625,-57,0
21170,-19.125,-20.9375,-59.0625,0
21190,-24.875,-17.9375,-58.125,0
21210,-26.625,-17.5,-59.375,0
21230,-23.3125,-15.5,-61.25,0
21250,-22.9375,-10.5,-62.375,0
21270,-23.375,-9,-62.5,0
21290,-25.25,-9.125,-61.125,0
21310,-26.375,-7.6875,-59.8125,0
21330,-25.9375,-8.1875,-61.5,0
21350,-26.125,-6.6875,-60.1875,0
21370,-28.0625,-3.4375,-56.9375,0
21390,-28.4375,2.5625,-53.75,0
21410,-27.0625,5.8125,-53.75,0
21430,-24.5,7.4375,-52.125,0
21450,-24.5625,9,-48.75,0
21470,-22.875,13,-46.8125,0
21490,-22.625,17.3125,-44.9375,0
21510,-23.5,21,-42.3125,0
21530,-21.625,24.0625,-39.625,0
21550,-18.6875,27.25,-38.1875,0
21570,-19.8125,32.375,-35.25,0
21590,-22.75,39.0625,-31.875,0
21610,-21.5,46.1875,-27.875,0
21630,-17.5,52.6875,-20.5,0
21650,-15.75,58.75,-14.3125,0
21670,-15.5625,66.5625,-7.75,0
21690,-17.375,73.75,1.6875,0
21710,-17.875,76.5625,9.9375,0
21730,-14.8125,74.6875,12.25,0
21750,-9,74.25,13.5625,0
21770,-4.75,79,16.6875,0
21790,-10.5,74,22.375,0
21810,-18.125,63.375,28.75,0
21830,-21.5625,55.875,33.5,0
21850,-19.5,55.375,39.1875,0
21870,-20.8125,55.5,46.3125,0
21890,-24.625,46.875,50.875,0
21910,-33.625,42,53.5625,0
21930,-41.5625,40.9375,54.875,0
21950,-42.875,37.3125,56.0625,0
21970,-38.875,29.8125,58.375,0
21990,-36.875,26.375,60.8125,0
22010,-38.125,26.8125,57.0625,0
22030,-42.8125,26.875,56.9375,0
22050,-44.4375,25.25,56.3125,0
22070,-40.125,21.875,54,0
22090,-32.25,19.5625,52.75,0
22110,-29.9375,16.6875,48.6875,0
22130,-33.5,11.3125,44.875,0
22150,-34.5625,4.875,43.1875,0
22170,-32.0625,-1.625,38.0625,0
22190,-29.5625,-7.75,34.5,0
22210,-30.875,-10.625,34.75,0
22230,-32.5625,-15.1875,35,0
22250,-33.6875,-19.5625,34.4375,0
22270,-34.5,-21.1875,34.1875,0
22290,-33.5,-22.125,34.9375,0
22310,-31.625,-25.25,36.125,0
22330,-31.25,-23.8125,32.5,0
22350,-27.4375,-21.4375,32.375,0
22370,-23.9375,-22.125,30.375,0
22390,-23.3125,-21.9375,29.5,0
22410,-23.375,-22.375,29.375,0
22430,-19,-22.125,27,0
22450,-12.9375,-22.6875,25,0
22470,-10.1875,-24.75,24.625,0
22490,-12.25,-25,24.75,0
22510,-14.75,-24.0625,26.0625,0
22530,-13.0625,-22.5625,22.9375,0
22550,-10.75,-22.875,23.0625,0
22570,-10.25,-20.875,23.875,0
22590,-12.625,-19.5625,23.1875,0
22610,-13.0625,-18,22.1875,0
22630,-9.375,-17,18.375,0
22650,-5.625,-15.5625,16.1875,0
22670,-1.8125,-15.5,13.5625,0
22690,-0.75,-18,11.5625,0
22710,-0.875,-17.9375,8.75,0
22730,2.75,-18.0625,5.75,0
22750,8.25,-19.875,3.1875,0
22770,10.875,-20,1,0
22790,10.4375,-22.375,0.125,0
22810,7,-25.125,-0.9375,0
22830,5.5625,-27.4375,-2.0625,0
22850,7.9375,-30.625,-4.875,0
22870,12.5625,-33.1875,-8.5,0
22890,12.25,-37.625,-11.8125,0
22910,10.9375,-40.25,-13.5,0
22930,10.4375,-41.625,-13.75,0
22950,12.875,-41.3125,-14.25,0
22970,16.25,-40.3125,-14.0625,0
22990,17.125,-38.5625,-13.0625,0
23010,13.8125,-39.5625,-10.75,0
23030,6.625,-41,-7.125,0
23050,-1.875,-42.0625,-5.1875,0
23070,-6.5,-42.4375,-5.5,0
23090,-6.3125,-44.6875,-6.25,0
23110,-4.5625,-45.875,-6.625,0
23130,-3.0625,-46.3125,-7.5625,0
23150,-3.5625,-46.3125,-9.125,0
23170,-1.8125,-43.6875,-10.3125,0
23190,0.625,-41.4375,-12.625,0
23210,3.75,-38.1875,-15,0
23230,7.1875,-35.3125,-18.0625,0
23250,14.375,-32.5625,-21.5,0
23270,15.0625,-32.75,-21.8125,0
23290,8.4375,-33.875,-20.8125,0
23300,3.625,-30.875,-19.5,0
23320,1.5625,-29,-19.125,0
23340,1.1875,-28.375,-19.125,0
23360,1.9375,-28,-19.75,0
23380,-1.8125,-28.875,-20.5625,0
23400,-1.25,-28.8125,-19.9375,0
23420,0.375,-26.9375,-21.6875,0
23440,2.5,-22.5,-23.375,0
23460,5.9375,-20.9375,-26.8125,0
23480,9.375,-20.8125,-29.5,0
23500,12.625,-20.5,-31.6875,0
23520,15.375,-20.375,-35.0625,0
23540,14.9375,-19.9375,-36.5625,0
23560,11.375,-20.1875,-37.75,0
23580,8.4375,-22.1875,-35.8125,0
23600,5.25,-20.125,-34.25,0
23620,5.3125,-18.4375,-34.9375,0
23640,5.0625,-17.9375,-34.125,0
23660,2.1875,-17.0625,-32.75,0
23680,-0.3125,-13.3125,-31.0625,0
23700,-1.5625,-11.875,-30,0
23720,-1.125,-11.5625,-29.8125,0
23740,-0.375,-8.3125,-29.25,0
23760,-0.8125,-5,-28.25,0
23780,-3.625,-1.9375,-26.25,0
23800,-1.5,-0.1875,-26.4375,0
23820,2.9375,0.9375,-27.8125,0
23840,5.125,1.5,-26.375,0
23860,6.3125,2.4375,-24.5625,0
23880,7.125,2.625,-23.375,0
23900,7.25,2.3125,-21.9375,1001
23920,6.875,0.75,-20.0625,0
23940,4.75,-0.5625,-18.5,0
23960,3.1875,-0.4375,-16.6875,0
23980,4.375,0.625,-14.5,0
24000,4.9375,-0.0625,-11.9375,0
24020,5.9375,-1,-7.875,0
24040,2.75,0.6875,-3.9375,0
24060,-0.8125,2.8125,-0.0625,0
24080,-1.1875,2.6875,2.9375,0
24100,-0.6875,5.5625,6.1875,0
24140,-0.9375,6.75,6.875,0
24160,0.1875,5.3125,6.6875,0
24180,2.75,5.125,6.5,0
24200,3.75,1.8125,2.1875,0
24220,4.3125,-2.4375,4.875,0
24240,5.5625,1.75,0.4375,0
24260,5.4375,4,-0.5625,0
24280,7.6875,5.125,-2.5,0
24300,9.9375,7.4375,-3.75,0
24320,12.1875,12.6875,-2.375,0
24340,10.9375,16.5625,-2.9375,0
24360,7.3125,17.0625,-1.125,0
24380,5,24.4375,3.125,0
24400,4.75,33.3125,4.375,0
24420,2.3125,36.9375,5.125,0
24440,0.75,41.0625,3.625,0
24460,-3.1875,44.25,2,0
24480,-4.75,45.1875,-1.5,0
24500,-0.5625,44.8125,-8,0
24520,6.125,45.625,-10.5,0
24540,9.4375,51.25,-6.25,0
24560,14.625,57.0625,-2,0
24580,18.75,63,5.3125,0
24600,19.75,69,22.6875,0
24620,11.8125,70.875,49.0625,0
24640,6.5,69.9375,65.25,0
24660,8.0625,76.125,76.25,0
24680,2.0625,85.625,92.625,0
24700,-5.4375,85.4375,110.875,0
24720,-6.25,71.75,121.375,0
24740,-7.0625,58.875,123.562,0
24760,-2.0625,58.3125,120,0
24780,-3.875,52.0625,120.75,0
24800,-4.375,29.625,127.75,0
24820,-8.8125,11.625,126.562,0
24840,-15.5625,4.9375,111.375,0
24860,-15.5625,0.6875,97.9375,0
24880,-23.125,-10.0625,99.9375,0
24900,-27.3125,-17.3125,92,0
24920,-28.5,-21.875,70.625,0
24940,-16.8125,-29.1875,51.625,0
24960,1.5,-36.1875,44.3125,0
24980,15,-38.5,37.0625,0
25000,24.25,-36.5,27.6875,0
25020,21.625,-31.8125,18.125,0
25040,15.875,-26.3125,14.4375,0
25050,14.125,-21.375,16.0625,0
25050,13.0625,-16.9375,14.6875,0
25070,14,-14.1875,10.3125,0
25100,13.8125,-15.0625,7.1875,0
25130,10.5625,0,11.625,0
25150,11.8125,-5.9375,10.8125,0
25170,1.5625,0.5625,5.1875,0
25190,-0.625,-5.4375,7.375,0
25210,6.9375,-5.25,9.3125,0
25230,7.25,-3.6875,7.4375,0
25250,4.375,-3.875,8.125,0
25270,0.75,-4.5,14,0
25290,-5.5625,-2.3125,16.5625,1000
25310,-8.625,3.6875,13.75,0
25330,-1.125,4.75,9.4375,0
25350,-7.5,2.9375,12.875,0
25370,0.75,4.625,9.375,0
25390,-2.3125,3.25,10.375,0
25410,-1.375,1.75,9.5625,0
25430,-2,3.4375,7.875,0
25450,-2.8125,3.3125,8,0
25480,-2.75,2.8125,5.5,0
25500,-1.4375,2.625,3.6875,0
25520,-3.1875,-3.9375,1.75,0
25530,2.3125,-1.375,-2.4375,0
25530,0.75,-0.375,0,0
25550,0.5625,-0.4375,1.4375,0
25590,-2,0.5,2.375,0
25610,3,-10.4375,0.75,0
25630,-4.75,-10.4375,4.4375,0
25650,2.875,7.5,0.8125,0
25670,-8.6875,3.1875,-0.9375,0
25690,-8.6875,-2.125,5.125,0
25710,-4.9375,-3.125,8.8125,0
25730,-3.75,-2.1875,8.5,0
25750,-3.6875,-1.25,8.4375,0
25770,-6.75,0.625,10.375,0
25790,-5.75,5.625,7.875,0
25810,2.1875,5,4.3125,0
25830,-4.625,1.0625,8.4375,0
25850,-1,2.5625,4.9375,0
25870,-5.9375,1.75,6.25,0
25890,-4.375,-0.9375,4.625,0
25910,-0.8125,-0.5625,2.6875,0
25930,-1,-1.25,-0.5625,0
25950,-1.25,-1.75,-2.4375,0
25970,-1.5,-2.25,-2.1875,0
25990,-1.3125,-2.4375,-2.75,0
26010,-2.125,-5.1875,-3.75,0
26030,-1.75,-8.5625,-3.6875,0
26050,-2.625,-10.625,-2.25,0
26070,-4.0625,-11.9375,-3.1875,0
26090,-2.125,-14.1875,-5.4375,0
26110,-0.6875,-17.375,-3.5625,0
26130,-6.3125,-20.25,-1.25,0
26150,-4.3125,-20.0625,1.6875,0
26170,2.3125,-23.5,-0.4375,0
26190,-0.25,-24.5,-0.125,0
26210,-0.5,-20,-1.25,0
26230,-0.5625,-18.25,0.5,0
26250,0.25,-25.5,-4.375,0
26270,0.75,-27.5625,-7.5,0
26290,3.3125,-28.75,-10.3125,0
26310,4.625,-30.3125,-11.875,0
26330,6.375,-30.5625,-16.125,0
26350,8.5,-30.9375,-17.5,0
26370,6.1875,-29.5625,-16.1875,0
26390,4.375,-27.3125,-14.75,0
26410,6.5625,-27.9375,-16.25,0
26430,9,-28.0625,-23.75,0
26450,9.4375,-28.5,-29.1875,0
26470,5,-27.9375,-31.0625,0
26490,1.1875,-26.625,-31.5,0
26510,-0.5625,-26.125,-32,0
26530,0.8125,-28.75,-39.0625,0
26550,4.8125,-26.75,-41.25,0
26570,4.6875,-23.25,-41.375,0
26590,1,-19.0625,-41.875,0
26610,-2.5625,-16.1875,-44.3125,0
26630,-4.5,-13.1875,-45.5625,0
26650,-4.4375,-9.875,-44.1875,0
26670,-3.875,-5.4375,-44.875,0
26690,-3.0625,0.625,-45.4375,0
26710,-6.4375,5,-42.625,0
26730,-11,11.5,-40.4375,0
26750,-13.6875,14.0625,-40.9375,0
26770,-10.75,16.3125,-45.625,0
26790,-6.375,18.5,-46.125,0
26810,-8.4375,19.4375,-47.6875,0
26830,-12.4375,21.8125,-52.25,0
26850,-15.375,23.4375,-53.375,0
26870,-18.375,25.4375,-51.8125,0
26890,-17.0625,27,-54.8125,0
26910,-14.5625,28.0625,-59.3125,0
26930,-12,30.375,-62.4375,0
26950,-13,31.875,-60.5,0
26970,-16.625,36.5,-61.5625,0
26990,-20.375,41.875,-63.4375,0
27010,-23,43.5625,-63,0
27030,-22.1875,45.375,-63.25,0
27050,-20.875,48.5,-64.3125,0
27070,-21.625,53.1875,-65.0625,0
27090,-25.9375,58.25,-64.5625,0
27110,-28.6875,62.8125,-63.25,0
27130,-28.25,66.6875,-57.4375,0
27150,-25.9375,70,-50.3125,0
27170,-23.8125,71.3125,-45,0
27190,-22.1875,70.0625,-37.5625,0
27210,-19.125,68.25,-30.4375,0
27230,-17.4375,66.8125,-22.75,0
27250,-17.5,64.875,-15.6875,0
27270,-19.8125,59.5,-10.6875,0
27290,-17.625,53.6875,-3.0625,0
27310,-14.5,48.8125,5.4375,0
27330,-14.75,46.75,12.125,0
27350,-16.8125,45.375,16.5,0
27370,-16.375,38.125,18.5,0
27390,-12.1875,31.0625,21.0625,0
27410,-9.875,32.1875,21.375,0
27430,-13.3125,36.0625,27.25,0
27450,-21.75,32.75,31.6875,0
27470,-17.9375,17.5625,31.4375,0
27490,-9.375,11.5,27.5,0
27510,-10.1875,17.9375,28.9375,0
27530,-18.1875,21.375,38.5,0
27550,-28,14.5,48,0
27570,-30.5625,8.875,49.4375,0
27590,-25.25,11.5625,47.875,0
27610,-15.25,10.9375,46.6875,0
27630,-13.4375,6.1875,48.5,0
27650,-21.1875,6.875,47.25,0
27670,-25.1875,9.25,44.6875,0
27690,-20.8125,8.9375,42.25,0
27710,-16.25,6.875,39.375,0
27730,-13.8125,8.6875,37.4375,0
27750,-13.8125,8.375,33.9375,0
27770,-10.6875,5.8125,28.5625,0
27790,-5.75,3.75,23.125,0
27810,-3.4375,2.5,21.9375,0
27810,-2.875,2.875,21.25,0
27830,-3.5,1.25,19.25,0
27850,-4.625,-2.0625,16.75,0
27870,-9.625,-8.5625,18.125,0
27890,-13.375,-13.8125,17.625,0
27910,-3.9375,1.0625,14.0625,0
27930,-13.1875,-5.625,13.875,0
27950,-5.8125,-13.1875,19,0
27970,-1.0625,-16.4375,17.875,0
27990,1.125,-15.625,16.1875,0
28010,1.9375,-15.375,15.625,0
28050,2.5,-16.5625,16.8125,0
28070,0.125,-16.9375,18.0625,0
28090,6.1875,-22.9375,17.5625,0
28110,-2.5,-12,16.25,0
28130,-0.375,-17.375,17.375,0
28150,-0.625,-17.5,18.0625,0
28170,-0.25,-17.25,19,0
28190,-0.125,-17.9375,18.625,0
28210,1.125,-19.25,17.6875,0
28230,2.9375,-20.6875,17.25,0
28250,2.4375,-23.75,17.9375,0
28270,1.75,-25.375,18.875,0
28270,-1.75,-25.3125,19.6875,0
28290,-3.9375,-24.875,20.0625,0
28310,-1.125,-25.375,19.1875,0
28330,0.875,-31.1875,19.3125,0
28350,3.375,-37.5625,15.6875,0
28370,-5.625,-26.75,13.125,0
28390,6.4375,-25.125,17.4375,0
28410,6.125,-14.8125,9.1875,0
28430,1.625,-13,3.9375,0
28450,-0.4375,-14.3125,5.1875,0
28470,-0.6875,-15.875,8.125,0
28490,-0.375,-17.25,7.875,0
28520,0.9375,-18.875,7.5,0
28540,-0.9375,-25.125,7.875,0
28560,-11.25,-27.5625,14.125,0
28580,-6.9375,-26.6875,9.625,0
28600,-9.0625,-25.4375,10.625,0
28620,-2.375,-25.875,12.0625,0
28640,2.6875,-21.75,9.6875,0
28660,0.6875,-20.1875,10.9375,0
28680,-2.0625,-21.3125,9.5625,0
28700,-3.125,-21.6875,10.125,0
28720,-2.9375,-22.4375,10.625,0
28740,0.125,-23.375,10.375,0
28760,3.5625,-25.125,9.4375,0
28780,2.8125,-28.625,9.25,0
28800,2.1875,-30.9375,9.375,0
28820,2.4375,-32.4375,9.6875,0
28840,3.5625,-34,9.75,0
28860,5.375,-35.875,8.5625,0
28880,-5,-32.8125,7.75,0
28900,-0.125,-44,11.875,0
28920,2.0625,-44.875,7.9375,0
28940,1,-48.625,6.5,0
28960,-2.625,-51,5.875,0
28980,-5.25,-51.875,4.0625,0
29000,-3.5,-52.125,1.875,0
29020,1.0625,-54.375,-1.3125,0
29040,2.6875,-56.8125,-3.125,0
29060,-0.5,-57.375,-3.875,0
29080,-2,-55.8125,-5.1875,0
29100,0.4375,-54.125,-6.3125,0
29120,0,-53.6875,-5.125,0
29140,-1.3125,-51,-3.9375,0
29160,-2.375,-45.875,-4.5,0
29180,-3.625,-44.4375,-2.9375,0
29200,-0.9375,-44.625,-3.75,0
29220,1.0625,-44.5625,-5.875,0
29240,2.375,-42.25,-7.875,0
29260,0.625,-40.25,-8.5625,0
29280,-2,-39.25,-9.125,0
29300,-2.5,-38.625,-11.3125,0
29320,-1.0625,-36,-14.1875,0
29340,1.0625,-35.6875,-16.1875,0
29360,0.9375,-36.875,-21.0625,0
29380,-4.9375,-36,-22.0625,0
29400,-10.1875,-37.0625,-25.625,0
29420,-16.4375,-35.4375,-31.0625,0
29440,-9.6875,-32.4375,-34.6875,0
29460,-2.625,-29.4375,-37.6875,0
29480,-0.625,-25,-39.4375,0
29500,-0.9375,-17.75,-44.8125,0
29520,2.25,-16.1875,-50.9375,0
29540,4.5625,-16.75,-56.625,0
29560,4.4375,-14.625,-58.5625,0
29580,2.25,-8.0625,-61.25,0
29600,-0.6875,-2.125,-65,0
29620,-7.0625,1.6875,-63.4375,0
29640,-12.875,4.875,-59.5625,0
29660,-20.625,12.75,-55.8125,0
29680,-11.4375,13.0625,-63.5625,0
29700,-11.25,12.5625,-66.25,0
29720,-16.875,15.375,-68.25,0
29740,-18.1875,16.9375,-68.9375,0
29760,-16.5,15.3125,-66.375,0
29780,-15.875,16.8125,-64.3125,0
29800,-17.625,18.125,-65.75,0
29820,-20.5625,20.0625,-63.3125,0
29840,-22.9375,24,-59.4375,0
29860,-21.9375,26.6875,-58.875,0
29880,-21.1875,29.9375,-57.6875,0
29900,-19.5,33.125,-58,0
29950,-18.0625,53.625,-47.875,0
29970,-17.6875,58.5,-41.625,0
29990,-17.25,60.75,-34.25,0
30010,-17.5,63.8125,-24.75,0
30030,-16.0625,66.6875,-18.3125,0
30050,-17.1875,69.25,-10.5,0
30070,-23.8125,73.125,1.8125,0
30090,-26.875,73.125,11,0
30110,-18.5,68.8125,16.0625,0
30130,-11.75,69.8125,17.6875,0
30150,-11.4375,71.0625,19.25,0
30170,-15.1875,70.0625,23.25,0
30190,-25.1875,66.4375,29.375,0
30210,-23.375,56.625,32.9375,0
30230,-14.875,43.1875,31.375,0
30250,-12.4375,38.75,28.1875,0
30270,-12,39.875,26.875,0
30290,-16.625,37.3125,31.3125,0
30310,-21.4375,30.875,36.6875,0
30330,-25.125,27.5625,38.625,0
30350,-25.125,24.8125,43.125,0
30370,-19.125,22.1875,45.875,0
30390,-19.0625,21.625,48.3125,0
30410,-24.8125,20.625,45.5,0
30430,-27.1875,18.0625,44.3125,0
30450,-29.75,15.625,46.1875,0
30470,-29.0625,14.25,47.3125,0
30490,-22.625,15.375,46,0
30510,-17.4375,15.25,46.375,0
30530,-20.3125,10.75,46.375,0
30550,-23.3125,-0.375,46.4375,0
30570,-22.0625,-8.5,42.75,0
30590,-14.5,-14.125,36.6875,0
30610,-10.3125,-20.75,32.3125,0
30630,-13.375,-24.875,29.5625,0
30650,-15.8125,-25.75,28.1875,0
30670,-12.75,-24.75,28,0
30690,-9.9375,-23.9375,26.3125,0
30710,-11.125,-20.375,26.3125,0
30730,-12.3125,-13,28.0625,0
30750,-12.1875,-5.875,31.125,0
30770,-8.375,-2.5625,33.0625,0
30790,-5.3125,-0.4375,33.3125,0
30810,-5.8125,1.5,32.5,0
30830,-8.6875,1.5,28.6875,0
30850,-11.625,-0.125,28.5625,0
30870,-11.875,-3.0625,27.375,0
30890,-13.8125,-4.125,25,0
30910,-12.9375,-5.5,23.625,0
30930,-12.9375,-8.5,22.5625,0
30950,-16.1875,-11.625,20.5,0
30970,-21.625,-12.4375,18.25,0
30990,-24.6875,-13.25,17.4375,0
31000,-22.5,-16.5,18,0
31020,-21.25,-19.1875,15.9375,0
31040,-21.8125,-19.5625,15.6875,0
31040,-22.625,-18.625,12.4375,0
31060,-17.875,-23.75,10.5625,0
31080,-14.9375,-25.3125,9.875,0
31100,-7.875,-38.125,6.25,0
31120,-6.375,-43.8125,6.625,0
31160,-7.5,-26.9375,0.1875,0
31180,-7.0625,-43.125,7.3125,0
31180,-7.6875,-30.6875,7.9375,0
31220,-9.625,-35.25,4.1875,0
31240,-6.8125,-44.6875,7,0
31260,-3.375,-40.6875,7.375,0
31280,-6.1875,-41.875,9.5,0
31300,-10.0625,-40.1875,12.0625,0
31320,-11.375,-42.5625,14.625,0
31340,-10.375,-44.5625,16.75,0
31360,-7,-44.25,15.9375,0
31380,-4.4375,-47.75,13.25,0
31400,-5.875,-51.875,11.9375,0
31420,-5.9375,-52.6875,10.875,0
31440,1.25,-52.25,7.0625,0
31460,8,-54.375,1.3125,0
31480,9.75,-59.4375,-0.3125,0
31500,7.6875,-59.6875,-2.875,0
31520,6.875,-55.6875,-8.375,0
31540,6.4375,-54.9375,-9.625,0
31560,0.4375,-53.125,-6.625,0
31580,-8,-47.75,-5.4375,0
31600,-11.125,-42.125,-7.9375,0
31620,-5.8125,-43.625,-13.75,0
31640,-0.8125,-46.5,-19.25,0
31660,0.1875,-45.125,-24.375,0
31680,0.5625,-44.6875,-28.375,0
31700,4.375,-42.4375,-32.5625,0
31720,12.375,-37.625,-38,0
31740,22.3125,-36.4375,-42.4375,0
31760,27.3125,-38.9375,-49.125,0
31780,25.3125,-37.5,-55.0625,0
31800,23.8125,-30.4375,-56.8125,0
31820,23.5,-27.9375,-52.1875,0
31840,19.875,-25.625,-48.9375,0
31860,16.1875,-21.0625,-49.1875,0
31880,13.6875,-16.9375,-49.4375,0
31900,11.0625,-15.8125,-46.5,0
31920,12.375,-17.5,-42.25,0
31940,14.0625,-16.875,-45.875,0
31960,14,-13,-56.0625,0
31980,11.375,-10.4375,-58.5,0
32000,13.5625,-12,-58.3125,0
32020,16.125,-15.9375,-60.625,0
32040,8.0625,-15.1875,-62.6875,0
32060,2.5,-10.3125,-62.5,0
32080,-0.75,-3.375,-62,0
32100,-5.3125,0.5625,-62,0
32120,-13.8125,6.9375,-58.25,0
32140,-15.875,8.4375,-60.0625,0
32160,-13.5625,11.5625,-64.6875,0
32180,-13.3125,18.6875,-63.125,0
32200,-16.4375,24.8125,-62.6875,0
32220,-20.5,28.0625,-63,0
32240,-23.5,30.0625,-60.6875,0
32260,-21.8125,33.1875,-58.5625,0
32280,-21.625,36.8125,-57.8125,0
32300,-24.0625,41.625,-53.1875,0
32320,-27.75,45.625,-47.5,0
32340,-26.875,48.9375,-42.1875,0
32360,-27.25,52.5,-35.25,0
32380,-31.875,55.9375,-28.0625,0
32400,-32.875,61.0625,-22.5625,0
32420,-27.9375,64,-15.625,0
32440,-22,62.75,-6.6875,0
32460,-17.9375,65.4375,3.1875,0
32480,-18.25,71.9375,9.125,0
32500,-21.1875,76,15.625,0
32520,-21,73.875,25.0625,0
32540,-17.75,69.4375,29.1875,0
32560,-18.875,69.125,34.9375,0
32580,-24.0625,72.375,38.8125,0
32600,-29.1875,72.9375,44.75,0
32620,-33.1875,68.4375,53.3125,0
32640,-35.8125,62.3125,53.0625,0
32660,-37.5,58.4375,50.25,0
32680,-43.75,54.875,53,0
32700,-51.4375,51.1875,53.0625,0
32720,-56.3125,42,49.25,0
32740,-54.125,33.9375,42.8125,0
32760,-52.5625,28.6875,43,0
32780,-50.625,22.125,43.0625,0
32800,-55.375,16.375,43.0625,0
32820,-51.3125,14.5625,42.9375,0
32840,-41.3125,9.0625,39.5,0
32860,-33.9375,6.625,35.1875,0
32880,-32.5,3.625,34.25,0
32900,-34.6875,1.8125,34.25,0
32920,-32.75,1.125,32.8125,0
32940,-30.6875,-3.25,29.875,0
32960,-31.625,-7.5625,29.8125,0
32980,-38.5625,-8.0625,32.125,0
33000,-43.5,-9.875,31.125,0
33020,-42.375,-12.625,28.375,0
33040,-37.1875,-15.4375,27.25,0
33060,-31.1875,-17.5,25.75,0
33080,-28,-15.25,24.3125,0
33100,-25.6875,-13.1875,21.5,0
33120,-22.8125,-14.625,20.5,0
33140,-22.25,-13.4375,21.25,0
33160,-26.25,-11.75,21,0
33180,-28.5625,-9.8125,20.4375,0
33200,-28.8125,-8.25,19.1875,0
33220,-25,-5.75,19.875,0
33240,-21.6875,-4.125,19.9375,0
33260,-16.875,-4.0625,20.1875,0
33280,-14.5625,-4.8125,18.0625,0
33300,-13,-8.9375,14.125,0
33320,-12.4375,-16.1875,10.875,0
33340,-9.3125,-25.8125,9.9375,0
33360,-4.8125,-33.3125,8.0625,0
33380,-3.8125,-41,5.6875,0
33400,-6.9375,-49.3125,5.625,0
33420,-11.5,-55.3125,4.6875,0
33440,-12.0625,-61.25,3.0625,0
33460,-9.5625,-66.8125,1.8125,0
33480,-7.9375,-68.5625,0.375,0
33500,-7.0625,-69.9375,-1.6875,0
33520,-4.25,-71.875,-4.5,0
33540,0.4375,-74.875,-8.625,0
33560,3.625,-76.5625,-12.6875,0
33580,3.9375,-75.6875,-15.0625,0
33590,3.8125,-72.4375,-18.375,0
33610,5.5,-71.625,-20.375,0
33630,8.875,-71.1875,-23.625,0
33650,5.625,-70.875,-23.125,0
33670,-3.25,-70.9375,-19.375,0
33690,-11.25,-66.8125,-18.375,0
33710,-11.5,-64,-19,0
33730,-7.875,-63.3125,-20.625,0
33750,-4.75,-61.9375,-19.8125,0
33770,-7.125,-58.625,-16.625,0
33790,-8,-51.9375,-17.0625,0
33810,-3.25,-46.5625,-21.875,0
33830,10.875,-44,-30.3125,0
33850,17.125,-43.3125,-37.5625,0
33870,16.125,-39.5625,-39.0625,0
33890,16.1875,-34.1875,-38.625,0
33910,17.9375,-31.3125,-38.6875,0
33930,20.125,-30.625,-39.5,0
33950,16.625,-29.3125,-37.8125,0
33970,14.3125,-28.5,-36.0625,0
33990,11.375,-25.375,-35.1875,0
34010,9.125,-21.125,-36.875,0
34030,10,-21.0625,-34.875,0
34050,5.8125,-22.5,-35.375,0
34070,5.5625,-18.5,-41.25,0
34090,6.8125,-14.4375,-41.9375,0
34110,7,-12.8125,-40.5,0
34130,5.8125,-9.75,-41.375,0
34150,4.625,-4.375,-39.5625,0
34170,6.0625,-0.5,-39.9375,0
34190,6.75,1.25,-39.0625,0
34210,5.3125,0.1875,-33.25,0
34230,4.75,-0.375,-31.1875,0
34250,-0.0625,0.4375,-33.375,0
34270,-1.9375,0.125,-34.1875,0
34290,-2.875,-1.5625,-33.625,0
34310,-2.25,-3.125,-31.75,0
34330,-3.625,-1.5625,-27.75,0
34350,-4.0625,1.4375,-23.75,0
34370,-2.375,3.0625,-21.125,0
34390,1.5,0,-20.4375,1001
34410,2.6875,-0.9375,-18.875,0
34430,2.125,-1.4375,-15.375,0
34450,4,-4.9375,-14.4375,0
34470,2.4375,-11.9375,-13.625,0
34490,-2.0625,-16.375,-11.1875,0
34510,-4.25,-19,-5.5,0
34530,-5.3125,-22.875,1.4375,0
34550,-5.0625,-25.125,4.8125,0
34570,-4.1875,-27.75,7.1875,0
34590,-4.4375,-26.625,11.625,0
34610,-6,-21.1875,9,0
34630,-6.5625,-16.9375,5.125,0
34650,-4.25,-12.625,4.25,0
34670,0.625,-7.6875,-0.1875,0
34690,1,-4.125,-5.375,0
34710,3.6875,-0.0625,-4.1875,0
34730,7.4375,6.375,-2.25,0
34750,6.125,17.25,-7.5625,0
34770,7,21.75,-14.5,0
34790,9.75,21.6875,-14.25,0
34810,9.5625,25.5,-10.1875,0
34830,7.3125,31.25,-2.75,0
34850,2.0625,36.5625,10.9375,0
34870,-6.8125,40.4375,28.9375,0
34890,-11.4375,47.8125,44.75,0
34910,-9.5,60.0625,54.125,0
34930,-7.0625,73.375,62.375,0
34950,-0.8125,80.9375,74.375,0
34970,10.1875,79.4375,83.75,0
34990,16.625,80.4375,88.4375,0
35010,17.375,90.25,87.4375,0
35030,29.0625,95.375,81.5,0
35050,32.4375,87.5625,83.0625,0
35070,25.4375,75.1875,91.4375,0
35090,29.25,62.9375,85.375,0
35110,39.25,52.875,82.0625,0
35130,32.5625,41.125,93.5625,0
35150,27.9375,25.9375,95.8125,0
35170,25.375,17.3125,92.4375,0
35190,18.9375,14.0625,94.6875,0
35210,14.125,9.5625,94.5625,0
35230,13.4375,2.6875,87.0625,0
35250,18.625,-5.125,72.9375,0
35270,21.4375,-5.875,65.375,0
35290,16.625,-4.4375,58.625,0
35310,13.6875,-2.0625,49.25,0
35330,10.375,0.8125,40.3125,0
35350,11.125,3.875,33.375,0
35370,14.375,3.25,23.3125,0
35390,21.125,-0.75,17.625,0
35410,32.6875,-5,13.1875,0
35420,36.5,-4.75,9.4375,0
35450,28.9375,-2.8125,9.8125,0
35450,16.9375,-3.4375,13.75,0
35470,7.625,-2.9375,19.375,1000
35500,6.8125,-16.8125,15,0
35520,0.5,-5.875,11.6875,0
35540,10,-8.5,11.8125,0
35560,11.375,1.0625,4.9375,0
35580,5.25,4.5625,2.9375,0
35600,4.75,5.3125,3.3125,0
35620,5.3125,5.0625,0.6875,0
35640,9.4375,3.9375,-0.6875,0
35660,8.625,3.25,0.6875,0
35680,4.9375,1.1875,5.625,0
35700,-1.625,6.125,7.5,0
35720,6.5625,5.5625,4.3125,0
35740,1.1875,5.25,5.375,0
35760,4.3125,3.875,3.8125,0
35780,3.3125,5.5625,3.0625,0
35780,0.8125,5.25,5.375,0
35800,-4.9375,4.875,6.8125,0
35840,-1.4375,-5.5625,10.8125,0
35860,6.5,3.25,6.8125,0
35880,-0.125,2.8125,2.0625,0
35900,-6.5625,-6.1875,1.5625,0
35920,6.125,-9.9375,-1.125,0
35940,10.5625,-13.875,-6.5,0
35960,14.8125,-15.75,-11.875,0
35980,12.625,-15.3125,-13.8125,0
36000,6.3125,-15.8125,-7.5625,0
36020,-1,-14.6875,-2.25,0
36040,-0.25,-12.1875,-7.0625,0
36060,3.875,-18.6875,-8.5,0
36080,0.25,-21.6875,-5.25,0
36100,6.9375,-26.375,-10.125,0
36120,4.375,-27.5,-9.375,0
36150,3.0625,-32.3125,-8.5625,0
36170,10.625,-37.875,-14.5625,0
36190,7.9375,-33.3125,-15.375,0
36200,16.4375,-45.875,-25.1875,0
36220,22.5625,-47.4375,-30,0
36240,21.25,-48.5,-30.5625,0
36260,12.625,-45.375,-30.75,0
36280,2.5625,-43.8125,-30.4375,0
36300,-10.8125,-42,-26.6875,0
36320,-13.875,-39,-30.5,0
36340,-9.625,-35.3125,-36.25,0
36360,-5.1875,-33.125,-42.6875,0
36380,-4.0625,-27.875,-45.6875,0
36400,-5.3125,-25.125,-43.5625,0
36420,-10.625,-21.8125,-39.8125,0
36440,-7.5,-18.0625,-44.25,0
36460,2.5,-16.4375,-48.8125,0
36480,7.4375,-13.5,-53.75,0
36500,3.5,-12.3125,-55.3125,0
36520,-2.9375,-11.25,-52.875,0
36540,-6.375,-4.8125,-50.5625,0
36560,-8.375,1.5,-48.125,0
36580,-2.8125,7.5,-52.4375,0
36600,-0.0625,11.6875,-51.4375,0
36620,-2.6875,14.5625,-49.125,0
36640,-7.0625,24.8125,-53.5,0
36660,-5.25,39.75,-56.8125,0
36680,-1.75,50.8125,-55.6875,0
36700,-2.375,60.6875,-50.25,0
36720,-7,68.5625,-50.5625,0
36740,-15,66.0625,-51.0625,0
36760,-19.3125,56.25,-49.6875,0
36780,-15.125,42.625,-49.125,0
36800,-11.75,38.125,-50.625,0
36820,-15.25,39.125,-60.0625,0
36840,-17.4375,41.3125,-68.125,0
36860,-20.6875,41.3125,-70.1875,0
36880,-21.1875,38.25,-71.1875,0
36900,-21.125,39,-72.625,0
36920,-22.0625,42,-73.25,0
36940,-23,46.875,-72.25,0
36960,-25.75,50.5625,-70.6875,0
36980,-27.8125,50.8125,-68.8125,0
37000,-26.25,51.0625,-65,0
37020,-22.4375,51.5,-60.3125,0
37040,-20.9375,50.4375,-56.3125,0
37060,-19.875,51.0625,-52.5,0
37080,-17.875,50.75,-45.75,0
37100,-15.3125,49.875,-37.0625,0
37120,-12.1875,50.4375,-30.625,0
37140,-8.0625,51.4375,-24.5,0
37160,-6.3125,52.125,-16.6875,0
37180,-4.375,54.6875,-8.125,0
37200,-3.9375,59.5625,1.5625,0
37220,-6.4375,64.8125,13.5625,0
37240,-10.5,63.625,24.25,0
37260,-10.5625,52.125,37.1875,0
37280,-9.875,41.4375,48,0
37300,-10.25,33.4375,56.1875,0
37320,-16.4375,31.5,60.5,0
37340,-20.375,27.9375,64.625,0
37360,-18.6875,18.625,68.6875,0
37380,-17.625,7.375,72.6875,0
37400,-12.375,4.125,68.6875,0
37420,-9.25,6,57.125,0
37440,-13.9375,6.8125,50.75,0
37460,-22.25,3.625,55.9375,0
37480,-20.9375,0.4375,54.6875,0
37500,-15.5625,0.625,45.6875,0
37520,-8.125,2.3125,38.5,0
37540,-4.3125,5.3125,36.5625,0
37560,-8.8125,9.125,35,0
37580,-8.625,8.875,31.6875,0
37600,-8.625,4.5,27.5,0
37620,-7.5625,2.0625,23,0
37640,-8.5625,3.1875,24.4375,0
37660,-12.375,3.3125,26.125,0
37680,-13.5625,-0.1875,25.625,0
37700,-12.125,-4.5625,25.625,0
37720,-8.1875,-6.75,25.875,0
37740,-7.125,-7.4375,25,0
37760,-10,-8.625,24.75,0
37780,-13.9375,-10.125,25.125,0
37800,-13.625,-10.3125,26.375,0
37820,-10.5,-10,26.25,0
37840,-4.9375,-11.3125,24.25,0
37860,0.9375,-12.8125,23.5,0
37880,1.75,-14.6875,22.3125,0
37900,-1.1875,-16.0625,21.5625,0
37920,-2.5625,-18.0625,21.4375,0
37940,-2.875,-21.1875,22.375,0
37960,-0.3125,-21.5625,22.6875,0
37980,1.875,-21.6875,21.0625,0
38000,2.6875,-22.6875,21.375,0
38000,2.1875,-23,21.5,0
38020,1.8125,-22.5,21.125,0
38040,1.25,-22.6875,20.5,0
38050,1.1875,-21.875,22.8125,0
38060,1.625,-22.4375,24.25,0
38080,3.6875,-21.6875,24.4375,0
38100,4.625,-21.5625,27.375,0
38100,2.5,-21.875,28.5625,0
38120,-0.0625,-22.6875,28.75,0
38140,0,-22.4375,28.125,0
38150,3.125,-24.375,28.4375,0
38160,4.375,-28.5625,27.0625,0
38180,2.75,-30.625,26.75,0
38200,0.125,-31.3125,27.9375,0
38200,-0.5,-31.0625,27.3125,0
38220,0.4375,-31.25,25.0625,0
38240,2.6875,-32.9375,24.625,0
38240,4.375,-33.875,22.8125,0
38260,5.375,-34.625,21.5625,0
38280,3.75,-37.8125,22.875,0
38300,-1.625,-31.1875,22,0
38320,-5.8125,-34.875,22.8125,0
38340,2.625,-37.9375,21.625,0
38370,-10.25,-41.625,15.6875,0
38400,-4.5,-51.9375,23.6875,0
38420,1.8125,-57.75,25.9375,0
38440,2.375,-59.4375,23.4375,0
38480,-1.4375,-59,17.875,0
38540,-6,-61.3125,16.125,0
38600,-0.8125,-65.75,13.6875,0
38620,-6.9375,-55.4375,4.75,0
38640,-2.8125,-59.5625,1.1875,0
38660,-2.6875,-58.75,-1.8125,0
38680,0.75,-58.8125,-3.75,0
38700,2.3125,-57.3125,-8,0
38720,0.75,-53.3125,-10.25,0
38740,-2.0625,-50.9375,-10.8125,0
38760,-9,-46.5,-13.0625,0
38780,-24.1875,-38.8125,-14.3125,0
38790,-9.75,-35.375,-20.375,0
38810,7.8125,-36.3125,-26,0
38830,14.625,-40.3125,-25.8125,0
38850,14.625,-41.9375,-27.875,0
38870,12.875,-41.8125,-31.4375,0
38890,10.0625,-42.6875,-30.5,0
38910,7.6875,-40.9375,-29.6875,0
38930,8.3125,-41.25,-30.25,0
38950,9.375,-39.4375,-32.6875,0
38970,5.5625,-37.3125,-34.5,0
38990,1.75,-33.4375,-39.25,0
39010,-5.3125,-30.8125,-42.4375,0
39030,-7.4375,-29.3125,-44.8125,0
39050,-4.625,-27.5,-44.375,0
39070,-1.75,-24.125,-49.25,0
39090,-2.3125,-18.375,-54.4375,0
39110,-6.25,-18.6875,-58.8125,0
39130,-7.3125,-22.9375,-58.375,0
39150,-11.625,-25.6875,-59.5,0
39170,-16.4375,-20.9375,-56.25,0
39190,-13,-16.9375,-59,0
39210,-14.5625,-17.5,-61.75,0
39230,-21.4375,-18.3125,-63.4375,0
39250,-28.75,-15.0625,-63.6875,0
39270,-28.875,-12,-64.8125,0
39290,-25.875,-8.0625,-66.125,0
39310,-23.875,-1.625,-67.625,0
39330,-25.625,3.1875,-69.0625,0
39350,-26.25,10.3125,-71.0625,0
39370,-26.9375,19.0625,-75.25,0
39390,-26.5625,25.4375,-76.8125,0
39410,-23.4375,31.875,-78.125,0
39430,-20.4375,38.875,-77.0625,0
39450,-21.6875,45.3125,-73.875,0
39470,-22.1875,50.4375,-68.5625,0
39490,-22,55.4375,-61.25,0
39510,-22.625,60.375,-54.1875,0
39530,-24,65.5625,-46.4375,0
39550,-24.8125,67.25,-37.25,0
39570,-25.3125,68.125,-26.9375,0
39590,-25.625,72.25,-16.8125,0
39610,-25.25,84.9375,-3.0625,0
39630,-24.6875,88.875,6.3125,0
39650,-19.8125,86.0625,8.125,0
39670,-19.25,86.75,10.6875,0
39690,-19.6875,86.9375,12.125,0
39710,-16.625,85.625,16.1875,0
39730,-13.8125,84.875,17.4375,0
39750,-8.6875,79.1875,12.375,0
39770,-6.75,71.625,6.8125,0
39790,-4.625,64.4375,3.75,0
39810,-6.3125,59.9375,7.875,0
39830,-7.375,54.9375,10.8125,0
39850,-2.625,46.9375,13.25,0
39870,-0.8125,45.5,15.8125,0
39890,-5.9375,48.4375,19.25,0
39910,-16.4375,53.125,30.3125,0
39930,-26.25,54.4375,38.375,0
39950,-29.5,51.375,39.75,0
39970,-22.125,48.1875,36.6875,0
39990,-17.875,44.3125,36.9375,0
40010,-28.75,37.4375,38.5625,0
40030,-44.9375,30.875,41.25,0
40050,-48.125,26.375,45.9375,0
40070,-45.9375,18.5,50,0
40090,-38.3125,14.125,47.8125,0
40110,-41,14,44.6875,0
40130,-46.6875,13.3125,45.375,0
40150,-50.3125,10.6875,47.25,0
40170,-47.5625,4.75,44.875,0
40190,-39.875,-0.75,37.75,0
40210,-32.75,-4.6875,34.0625,0
40230,-30.125,-9.375,33.6875,0
40250,-29.4375,-14.8125,33.9375,0
40270,-30.9375,-19.25,34,0
40290,-29.9375,-24.4375,33.9375,0
40310,-29.0625,-31.75,34.6875,0
40330,-28.875,-36,36.1875,0
40350,-27.375,-38.8125,35.9375,0
40370,-22.8125,-44.125,34,0
40390,-15.3125,-46.375,30.4375,0
40410,-12.125,-48.875,27.6875,0
40430,-11.5,-51.4375,27.4375,0
40450,-11.625,-51.5625,26.875,0
40470,-10.4375,-51.375,27.0625,0
40490,-9.0625,-53,28.6875,0
40510,-9.4375,-53.875,29.75,0
40530,-10.0625,-53.1875,28.1875,0
40550,-7.625,-52.0625,27.5625,0
40570,-5.25,-53.125,29.6875,0
40590,-4.3125,-51.6875,28.3125,0
40610,-4.0625,-48.1875,26.125,0
40630,-3.5,-45.375,23.625,0
40650,-1.75,-43.8125,21.5,0
40670,-0.4375,-42.9375,19.125,0
40690,1.1875,-40.4375,17.4375,0
40710,1.75,-37.125,16,0
40730,1.75,-34.4375,14.0625,0
40750,0.25,-33.1875,13.1875,0
40770,-0.9375,-30,13.375,0
40790,-4.6875,-27.125,13.4375,0
40810,-6.25,-26.5,14.25,0
40830,-9.3125,-26.375,13.4375,0
40850,-10.9375,-27.25,9.6875,0
40870,-4.9375,-28.125,2.0625,0
40890,-0.125,-32.9375,-6.375,0
40910,2,-39.125,-8.6875,0
40930,-0.4375,-42.375,-11.125,0
40950,-4.125,-43.5625,-13.4375,0
40970,-8.0625,-47.125,-14.6875,0
40990,-11.9375,-50.5,-17.25,0
41010,-12.4375,-51.625,-19.875,0
41030,-10.5625,-52,-20.625,0
41050,-2.375,-47.8125,-23,0
41070,9.5,-47.3125,-28.125,0
41090,12.125,-49.1875,-33.3125,0
41110,8.4375,-48.4375,-35.375,0
41130,-2.75,-48.1875,-35.875,0
41150,-6.1875,-47.8125,-40.1875,0
41170,-4.125,-44,-44.375,0
41190,-2.6875,-44.3125,-47.875,0
41210,-2.4375,-45.75,-50.9375,0
41230,-0.875,-43.8125,-53.75,0
41250,-2.8125,-38.875,-54.9375,0
41270,-6.5,-34.4375,-52.625,0
41290,-9,-30.375,-52.3125,0
41310,-10.375,-27.375,-52.6875,0
41330,-8.8125,-22.75,-56.5625,0
41350,-8.625,-17.1875,-58.125,0
41370,-7.5,-10.5,-57.125,0
41380,-6.5,-6.625,-57.4375,0
41400,-5.75,-2.375,-58.75,0
41420,-8.0625,3.625,-56.375,0
41440,-7.75,8,-54.75,0
41460,-7.25,14.3125,-54.25,0
41480,-8.5625,21.875,-52.0625,0
41500,-11.1875,27.125,-48.5625,0
41520,-12.4375,29.5,-46.8125,0
41540,-18.5,30.6875,-44.375,0
41560,-23.4375,30.375,-43.5625,0
41580,-23.875,31.625,-42.375,0
41600,-24.8125,37,-41.375,0
41620,-24.0625,40.8125,-41.9375,0
41640,-22.1875,44.625,-40.875,0
41660,-23.8125,49.4375,-40.4375,0
41680,-23,54.125,-39.875,0
41700,-18.8125,54.9375,-40.0625,0
41720,-13.4375,54.625,-37.75,0
41740,-10.5,55.8125,-35.1875,0
41760,-6.4375,55.5,-28.1875,0
41780,-5.75,52.6875,-19.75,0
41800,-5.0625,49.8125,-13.8125,0
41820,-3.8125,49.25,-7.5625,0
41840,-7,52.25,-2.875,0
41860,-9.75,55.1875,3.375,0
41880,-8.625,52.625,12.75,0
41900,-4.3125,50.4375,17.5625,0
41920,-0.6875,50.8125,17.6875,0
41940,-0.3125,53.6875,18,0
41960,-1.1875,54.8125,20.9375,0
41980,-2.75,55.25,25.6875,0
42000,-0.625,53.9375,27.5,0
42020,4.375,49.5625,28.0625,0
42040,2.4375,47.8125,29.75,0
42060,-6,47.9375,36.75,0
42080,-17.0625,45.9375,41.9375,0
42100,-29.125,46.6875,41.4375,0
42120,-36.3125,46.6875,44.4375,0
42140,-31.9375,40.75,47.375,0
42160,-26.0625,32.75,49.8125,0
42180,-27.125,29.8125,54.5625,0
42200,-36,29.125,54.25,0
42220,-42.5,24.5,49.75,0
42240,-43.375,14.75,46.0625,0
42260,-37.375,11.0625,44.75,0
42280,-32.6875,5.875,38.875,0
42300,-27.5,-4.0625,34.8125,0
42320,-23.625,-8.625,32.375,0
42340,-21.125,-11.5,32.1875,0
42360,-20.375,-15.25,32.75,0
42380,-20.8125,-17.1875,33.25,0
42400,-21.75,-17.625,33.375,0
42420,-20.9375,-16.875,32.6875,0
42440,-20.375,-17.625,31.4375,0
42460,-19.4375,-15.625,31.375,0
42480,-20,-14.875,30.75,0
42500,-21.375,-14.875,30.5,0
42520,-21.9375,-14.8125,26.25,0
42540,-21.3125,-15.9375,23.5625,0
42560,-21.375,-19.0625,25.75,0
42580,-24.375,-20,27.875,0
42600,-29.4375,-19.0625,28.75,0
42620,-30.625,-20.1875,28.75,0
42640,-30.0625,-21.8125,28,0
42660,-29.375,-25.0625,27.1875,0
42680,-27.4375,-27.1875,24.1875,0
42700,-22.0625,-29.5625,21.4375,0
42720,-15.9375,-33.125,18.3125,0
42740,-15.375,-36.6875,16.6875,0
42760,-21,-39.125,17.25,0
42780,-26.8125,-42.75,19.5625,0
42800,-26.9375,-47.3125,19.9375,0
42820,-23.0625,-48.4375,17.6875,0
42840,-18.75,-47,13.5625,0
42860,-14,-47.5,11.0625,0
42880,-12.1875,-47.5625,8.875,0
42900,-8.625,-45.1875,2.625,0
42920,2.3125,-44.375,-4.375,0
42940,13.375,-45.5,-9.9375,0
42960,18.8125,-44.6875,-13.0625,0
42980,21.6875,-45.1875,-13.9375,0
43000,25.25,-47.1875,-15.5625,0
43020,27.8125,-49.25,-17,0
43040,35.1875,-50.9375,-19.4375,0
43060,39.25,-55.625,-24.5,0
43080,35.75,-59.625,-26.75,0
43100,27.125,-61.75,-28.5,0
43120,20.0625,-65,-30.375,0
43140,12.8125,-66.8125,-31.6875,0
43160,5.625,-65.8125,-30.5,0
43180,2.375,-63.4375,-30.75,0
43200,3.125,-63.125,-31.5625,0
43220,1.5,-62.6875,-33.125,0
43240,5.625,-57.5,-34.625,0
43260,6,-54.5,-36.8125,0
43280,6,-52.5625,-38.375,0
43300,4.5,-50,-37.4375,0
43320,3.4375,-47.375,-35.25,0
43340,11.8125,-44.25,-35.625,0
43360,12.625,-44.875,-35.3125,0
43380,0.75,-43.25,-33.9375,0
43400,-7.6875,-38.0625,-33.125,0
43420,-3.1875,-33.6875,-30.25,0
43440,2.5,-32.5625,-32.375,0
43460,2.75,-32.0625,-35.9375,0
43480,3.9375,-31.375,-35.75,0
43500,6.0625,-27.3125,-36.25,0
43520,6.5,-23.0625,-41.5625,0
43540,6.4375,-23,-41.6875,0
43560,-0.5,-23.8125,-37.8125,0
43580,0,-22.875,-34.0625,0
43600,3.6875,-18.8125,-35.25,0
43620,0.4375,-14.6875,-36.9375,0
43640,-0.3125,-13.0625,-32.5,0
43660,-2.4375,-13,-26.1875,0
43680,-0.3125,-9.9375,-24,0
43700,1.9375,-5.5625,-25.8125,0
43720,1.5,-3.625,-24.5,1001
43740,0.8125,-0.5,-18.625,0
43760,-0.25,2.9375,-14.625,0
43780,3.875,7.5625,-15.1875,0
43800,3.1875,9.75,-14.375,0
43820,2.0625,12.1875,-11.125,0
43840,1.0625,12.625,-8.0625,0
43860,1.8125,11.375,-4.0625,0
43880,-0.5625,11.25,-0.875,0
43900,-1.5,11.1875,2.3125,0
43920,0.4375,12.5625,3.25,0
43940,1.5625,10.4375,0.6875,0
43960,-5.75,4.375,5.375,0
43970,-0.3125,0.875,14.125,0
43990,-4.375,2.4375,10.875,0
44010,0.3125,11,-1.5625,0
44030,5.5625,16.5625,-1.9375,0
44050,7.875,29.6875,4.5,0
44070,28,45.8125,8.5625,0
44090,43.625,56.75,16.375,0
44110,36.625,63,30.125,0
44130,19,74.375,43.875,0
44150,10.9375,89,50.5625,0
44170,18.9375,104.438,55.6875,0
44190,28.625,117.312,63.125,0
44210,36.8125,121.812,66.875,0
44230,37,122,72.3125,0
44250,41.0625,126.25,80.9375,0
44270,43.25,128.938,91.1875,0
44290,32.0625,116.625,96.375,0
44310,18.375,99.1875,97.25,0
44330,1.3125,89.5,102.188,0
44350,-20.4375,77.125,104.25,0
44370,-28.6875,51.8125,105.125,0
44390,-28.5625,30.25,110.562,0
44410,-27.4375,19.375,113.188,0
44430,-25.9375,13.625,100.75,0
44450,-18.5,5.6875,81.5,0
44470,-4.125,-4.8125,65.75,0
44490,12.125,-17,57.5,0
44510,24.625,-24.75,49.125,0
44530,28.8125,-27.5625,36.5,0
44550,22.75,-26.625,27.3125,0
44570,14.9375,-24.75,24.9375,0
44590,9,-26.0625,26.0625,0
44610,7.6875,-25.875,21.625,0
44630,9.5625,-23.625,10.8125,0
44650,11.5,-20.4375,4.5,0
44670,9.4375,-16.5,4.9375,0
44690,7.5625,-11.75,6.9375,0
44710,8.125,-8.9375,4.0625,0
44730,10.9375,-8.75,1.5625,0
44750,9.4375,-9.0625,2.625,0
44760,4.9375,-6.5,1.875,0
44780,1.3125,-2.9375,2.3125,0
44780,-2.25,-1.875,4.5625,0
44800,-2.6875,-1.9375,4,0
44840,-0.6875,-1.9375,2.125,0
44860,-2.6875,0.5625,2.8125,0
44880,-1.6875,-2.6875,0.5,0
44900,5.625,9.5,-2.6875,0
44930,-4.1875,4.6875,-1.8125,0
44950,-8.625,2.1875,-1.1875,0
44960,-9,-0.625,1.6875,0
44980,-4.75,10.5625,5.125,0
45000,-3.125,-3.125,4.5625,0
45020,-11.25,8.9375,6.125,0
45040,-8.625,11.1875,5.5,0
45060,-7.8125,-6.875,8.5,0
45080,-1.875,2,3.125,0
45100,-9.4375,2.625,-1.375,0
45130,-11.9375,1.6875,-0.375,0
45150,-12.5625,1.8125,1,0
45170,-11.5625,0.8125,4.3125,1000
45180,-5.125,4.625,-2.5,0
45200,0.5625,2.8125,-11.3125,0
45220,8.25,-4.4375,-8.6875,0
45240,-0.75,-4.4375,-3,0
45260,1.5,-6.1875,-4.5625,0
45280,-10.5625,-6.9375,0,0
45300,-10.625,-10.5,3,0
45320,-6.9375,-11.6875,0,0
45340,-7.625,-12.5625,0.0625,0
45360,-9.1875,-13.4375,1.9375,0
45380,-7.5625,-14.5625,0.875,0
45400,-6,-18.5,-2.6875,0
45420,-4.0625,-24.375,-7.8125,0
45440,-1.0625,-27,-10.5,0
45470,3.875,-28.6875,-13.8125,0
45490,7.8125,-30.4375,-17.375,0
45510,11.5625,-29.6875,-23.3125,0
45530,0.5625,-24.6875,-25.375,0
45550,-0.5625,-26.9375,-28.6875,0
45570,2.25,-24.875,-31.875,0
45590,4.9375,-23.3125,-33.75,0
45610,3.4375,-20.9375,-38.5,0
45630,2.5625,-18.25,-44.1875,0
45650,1.5,-18,-44.5,0
45670,2.875,-18.5625,-46.3125,0
45690,0.3125,-15.1875,-50.125,0
45710,-2.625,-11.8125,-49.625,0
45730,0.0625,-12.25,-50.3125,0
45750,1.125,-9.5,-55.3125,0
45770,-6.125,-2.5,-57.0625,0
45790,-7.375,4.625,-57.125,0
45810,-6,5.5625,-54.8125,0
45830,-3.0625,7.5625,-49.375,0
45850,-4.9375,11.5625,-52.3125,0
45870,-6.0625,13.5625,-53.25,0
45890,-7.5625,18.5625,-48.5625,0
45910,-6.25,22.5625,-44.3125,0
45930,-4.5,25.4375,-46.4375,0
45950,-7.8125,28.75,-51.3125,0
45970,-10.3125,29.75,-54.9375,0
45990,-13.125,31.625,-56.3125,0
46010,-17.125,32.5,-58.3125,0
46030,-16.375,33.6875,-59.9375,0
46050,-16.0625,34.9375,-58.9375,0
46070,-17.5625,43.875,-58.4375,0
46090,-17.75,50.6875,-57.6875,0
46110,-20.8125,58.25,-55,0
46130,-21.8125,64.625,-54.3125,0
46150,-19.0625,68.625,-51.3125,0
46170,-17.625,71.5,-47.5625,0
46190,-19.6875,72.6875,-45.1875,0
46210,-19.625,71.625,-41.4375,0
46230,-16.375,68.75,-36.4375,0
46250,-14.125,66.0625,-29.25,0
46270,-11.9375,62.25,-22.875,0
46290,-10.25,57,-18,0
46310,-9.875,53.1875,-13,0
46330,-11.5,54.5625,-6.8125,0
46350,-13.8125,55,-2.125,0
46370,-8.75,50.0625,0.8125,0
46390,-2.8125,42.75,2.1875,0
46410,-0.125,40.625,2.5,0
46430,-1.625,40.9375,2.9375,0
46450,-8.9375,37.5625,13.25,0
46470,-7.25,28.875,19.5625,0
46490,-2.8125,25.25,22.25,0
46510,-3.8125,28.8125,19.6875,0
46530,-4,31.1875,24.375,0
46550,-4.5625,21.0625,31,0
46560,-3.6875,9.4375,37.0625,0
46580,-3,9.4375,35.4375,0
46600,-7,17.125,34.375,0
46620,-11,17.625,42.25,0
46640,-15.75,13.9375,50.25,0
46660,-20.1875,12.3125,46.8125,0
46680,-22.5625,14.75,37.5,0
46700,-22,18.125,36.5625,0
46720,-19.3125,16.25,38.75,0
46740,-15.4375,13.625,36.5625,0
46760,-13.3125,13.25,29.6875,0
46780,-13,13.125,23.375,0
46800,-13.6875,7.9375,24.125,0
46820,-15.125,2.5625,24.25,0
46820,-17.3125,-0.0625,21.3125,0
46840,-16,-1.0625,19.625,0
46860,-15.6875,-1.125,18.8125,0
46880,-15.125,3.5,17.4375,0
46900,-15.1875,-6.5,18.4375,0
46920,-8,4.25,13.0625,0
46940,-11.8125,-13.0625,18.6875,0
46970,-1.875,-11,20.875,0
47000,-2.1875,-5.8125,13.625,0
47020,-3.4375,-2.5,6.5,0
47040,-3.3125,-2.4375,3.125,0
47060,0.375,-5.4375,3.5625,0
47080,3,-10.4375,5.375,0
47100,-0.1875,-11.8125,13.625,0
47120,3.75,-11.25,10.4375,0
47140,-1.8125,-15.3125,13.5625,0
47160,1.6875,-19,15.0625,0
47180,3.1875,-20.5,17.5,0
47200,1.5625,-23.3125,16.9375,0
47220,-0.8125,-25.1875,17.9375,0
47240,-1.25,-26.6875,17.625,0
47260,-2.4375,-28.25,16.5625,0
47280,-1.5,-30.6875,17.75,0
47300,-0.1875,-31.4375,16.8125,0
47320,1.4375,-30.625,16.375,0
47340,2.25,-30.6875,16.75,0
47360,1.25,-30.375,18.5,0
47380,-1.25,-28.1875,16.875,0
47400,-1.4375,-25.125,18.3125,0
47400,3.5,-23.875,16.875,0
47420,2.1875,-23.25,15.25,0
47440,5.25,-25.75,14.9375,0
47460,4.5625,-26.875,19.375,0
47480,8.25,-25.9375,20.625,0
47520,4.5,-16.5625,11.75,0
47540,-11.375,-14.0625,8.0625,0
47560,-7.5625,-9.3125,15.4375,0
47580,-2.5,-19.6875,14.5,0
47600,-0.75,-20.4375,12.625,0
47620,-2.625,-21.25,13,0
47640,-5.5625,-22.4375,13.1875,0
47660,-8.0625,-22.125,12.9375,0
47680,-8,-22.125,12.1875,0
47700,-7,-23.9375,12.8125,0
47720,-6.5,-25.375,14.875,0
47740,-7.6875,-25.9375,15.375,0
47760,-8.625,-27.25,15.3125,0
47780,-10.9375,-29.5,14.8125,0
47800,-12.5625,-30.75,13.125,0
47820,-12.5,-32.5,10.375,0
47840,-9.875,-34.375,8.9375,0
47860,-7.25,-35,10.5,0
47880,-7.4375,-36,12.6875,0
47900,-6.8125,-37.25,13.9375,0
47920,-7.25,-37.375,15.9375,0
47940,-9,-36.75,17,0
47960,-12.0625,-37.3125,14.3125,0
47980,-13.75,-36.75,12.0625,0
48000,-11.1875,-36.1875,8.375,0
48020,-5.1875,-35.625,2.6875,0
48040,1.75,-34.6875,-3,0
48060,5.125,-35,-3.0625,0
48080,6.375,-37.8125,0.75,0
48100,8.8125,-38.75,2.3125,0
48120,9.5,-37.125,6,0
48140,6.5625,-38.3125,8.4375,0
48160,3.375,-40.3125,6.0625,0
48180,-0.0625,-41,2.4375,0
48200,-2.4375,-41.0625,0.0625,0
48220,-2.6875,-40.625,-5.3125,0
48240,3,-36.4375,-12.8125,0
48260,4.625,-31.125,-13.625,0
48280,8.6875,-32.125,-10.875,0
48300,22.5625,-38.4375,-13.4375,0
48320,15.125,-39.9375,-11.6875,0
48340,-0.3125,-43.5,-5.125,0
48360,-3.8125,-49.5,-6.75,0
48380,-3.3125,-52.625,-16.25,0
48400,-4.125,-49.625,-20.75,0
48420,-9.5625,-44.875,-18.3125,0
48440,-6.9375,-38.75,-20.125,0
48460,-0.1875,-28.5,-25.9375,0
48480,4,-19.5625,-26.375,0
48500,12.0625,-15.5625,-27.125,0
48520,14.6875,-16.6875,-25,0
48540,13.5625,-21.8125,-29.6875,0
48560,9.5,-26.0625,-34.5625,0
48580,0.375,-27.5,-29.125,0
48600,-2.25,-28.8125,-25.3125,0
48620,-0.125,-26.625,-26.25,0
48640,-3.25,-22.375,-25.0625,0
48660,-3.625,-18.6875,-23.25,0
48680,-2.875,-15.5625,-25.625,0
48700,1.5,-10.4375,-29.625,0
48720,6,-7.5625,-30,0
48740,4.5,-6.625,-32.3125,0
48760,1.6875,-7.75,-36.0625,0
48780,-7.625,-7.25,-35.25,0
48800,-12.9375,-5.375,-32.375,0
48820,-12.375,-2.375,-33.4375,0
48840,-11.1875,-0.5,-35.4375,0
48860,-13.4375,3.9375,-36.5,0
48880,-18.5,8.875,-37.625,0
48900,-18.875,11.375,-43.5625,0
48920,-18.0625,12.8125,-51.25,0
48940,-11.5,16.125,-55.1875,0
48960,-10.1875,16.6875,-54.375,0
48980,-14.4375,13.4375,-54.4375,0
49000,-17.1875,13,-54.125,0
49020,-21.25,14.0625,-48.4375,0
49040,-22.4375,14,-45.4375,0
49060,-22.6875,14,-44.4375,0
49080,-24.3125,15.25,-40.75,0
49100,-23.8125,19.625,-38,0
49120,-24,22.875,-38.3125,0
49140,-21.125,27.625,-41.875,0
49160,-20.9375,31.375,-46.0625,0
49160,-15.125,40,-53.625,0
49180,-10.4375,42.25,-54.0625,0
49200,-13.125,46.8125,-49.6875,0
49220,-17.375,45.3125,-44.0625,0
49240,-16.4375,41.9375,-37.1875,0
49260,-13.875,41.9375,-31.375,0
49280,-13.75,45.5625,-27.8125,0
49300,-14.1875,50.8125,-26.875,0
49320,-11.8125,55.25,-25.125,0
49340,-9.875,57.5,-24,0
49360,-7.125,62.25,-21.6875,0
49380,-8.875,70.375,-15.8125,0
49400,-9.5,68.875,-10.1875,0
49420,-2.5,66.4375,-1.375,0
49440,0.125,71.125,4.75,0
49460,3.5,76.625,17,0
49480,-1.3125,66.75,25.8125,0
49500,-9.375,51.25,31.875,0
49520,-13.8125,39.6875,40.6875,0
49540,-16.5625,33.875,55.75,0
49560,-17.4375,28.5625,61,0
49580,-19.25,22.5625,58.625,0
49600,-20.25,21.0625,59.375,0
49620,-24.25,24.5,62.25,0
49640,-26.125,23.6875,65.1875,0
49660,-22.6875,21.8125,61.6875,0
49680,-23.5,21.875,55.75,0
49700,-22.8125,20.5625,54.5,0
49720,-26.625,15.6875,56.5,0
49740,-30.0625,11.0625,59.5625,0
49760,-24.0625,7.0625,59.8125,0
49780,-19.0625,-1.5625,56.625,0
49800,-19.4375,-7.875,54.9375,0
49820,-25.8125,-11.25,55.0625,0
49840,-28.375,-13.5625,54.9375,0
49860,-29.4375,-16.1875,51.4375,0
49880,-29.4375,-18.5625,47.8125,0
49900,-26.25,-17.9375,43.0625,0
49920,-17.1875,-17.125,38.375,0
49940,-7.9375,-17.75,32.75,0
49960,-5.9375,-21.0625,27.5,0
49980,-10.25,-22.3125,27.875,0
50000,-11.375,-22.875,28.75,0
50020,-8.9375,-23.5,27.8125,0
50040,-10.5625,-23,27.75,0
50060,-15.125,-22.5625,28.5625,0
50080,-17.875,-24.6875,28.1875,0
50100,-17.0625,-26.0625,26.625,0
50120,-16,-28.875,23.375,0
50140,-13.25,-32.3125,19.1875,0
50160,-11.75,-34.875,16.25,0
50180,-11.3125,-36.3125,13.25,0
50200,-16.8125,-39.3125,15.5,0
50220,-21.0625,-42.4375,18,0
50240,-18.1875,-44.25,16.0625,0
50260,-14.6875,-47.25,14,0
50280,-16.8125,-50.5625,12.8125,0
50300,-21.9375,-51.4375,10.5625,0
50320,-21.1875,-53.0625,5.75,0
50340,-14.75,-54.0625,-1.4375,0
50360,-7.125,-55.5,-10,0
50380,-2.375,-59.5625,-13.375,0
50400,0.9375,-59.4375,-16.3125,0
50420,4.5,-55.1875,-21.4375,0
50440,5.375,-57.3125,-22.3125,0
50460,5.25,-59.1875,-23.875,0
50480,8.3125,-57.6875,-27.6875,0
50500,8.5,-57.875,-28.5,0
50520,7.875,-57.375,-27.9375,0
50540,8.5,-57.6875,-29.9375,0
50560,13.0625,-56.6875,-29,0
50580,16.5,-52,-29.5625,0
50600,25.0625,-48.8125,-32.625,0
50620,34.3125,-43.75,-31.4375,0
50640,29.5625,-39.9375,-30,0
50660,22.625,-34.0625,-36.25,0
50680,15.25,-29.625,-39.875,0
50700,11.0625,-26.8125,-38.625,0
50720,8.375,-22.375,-36.8125,0
50740,8.875,-14.75,-39,0
50760,7.6875,-7.625,-42.75,0
50780,7.75,-3.8125,-47.3125,0
50800,5.25,-3.5625,-54,0
50820,-0.5,-1.125,-60.375,0
50840,-2.3125,4.6875,-60.25,0
50860,-6.8125,7.125,-57.0625,0
50880,3.0625,1.25,-62.3125,0
50900,2.3125,-4,-63.3125,0
50920,-5.625,-6.75,-52.4375,0
50940,-11.0625,-7.4375,-44.625,0
50960,-7.6875,-7,-45.8125,0
50980,-7.25,-4.625,-44,0
51000,-8.875,2.9375,-41.5625,0
51020,-5.875,12.4375,-46.875,0
51040,-1.3125,17.3125,-55.5625,0
51060,5.5,18.375,-63.6875,0
51080,4.375,19.8125,-67.3125,0
51100,-5.8125,22.3125,-66.375,0
51120,-13.25,26.9375,-66.8125,0
51140,-13.125,29.25,-65.0625,0
51160,-8.9375,25.875,-62.9375,0
51180,-3.375,21.75,-57.9375,0
51200,-6.875,16,-47.5,0
51220,-15.125,10.8125,-32.875,0
51240,-18,7.1875,-22.3125,0
51260,-13.5625,8.375,-20.625,0
51280,-10.0625,11,-21.1875,0
51300,-9,15.6875,-25.25,0
51320,-8.5,25.5625,-29.6875,0
51340,-3.4375,30,-39.125,0
51360,7.0625,31,-45.75,0
51380,7.625,33.1875,-43.3125,0
51400,0.4375,35.6875,-36.375,0
51420,-3.5,37.25,-31,0
51440,-3.0625,39.6875,-24.4375,0
51460,-3.6875,45.75,-14.5,0
51480,-10.0625,51,-2.1875,0
51500,-12.9375,56.125,7.8125,0
51520,-14.3125,52.6875,12.375,0
51540,-9.25,50.0625,15.9375,0
51560,-8.0625,50.4375,21.125,0
51580,-12.625,49.8125,27.1875,0
51600,-13.375,46.5625,29.3125,0
51620,-10.5,43.4375,29.0625,0
51640,-8.875,43.0625,32.1875,0
51660,-11,41.4375,37.9375,0
51680,-11.375,40.875,41.5625,0
51700,-9.8125,39.0625,40.25,0
51720,-8.4375,34.75,42.25,0
51730,-7.75,33.6875,48.5,0
51750,-14.1875,33.375,57.0625,0
51770,-16.4375,33.25,63.5,0
51790,-20.0625,33.5625,67.625,0
51810,-31,34.5,67.25,0
51830,-44.375,33.0625,68.0625,0
51850,-57.625,31.0625,67.75,0
51870,-60.625,29.8125,65.1875,0
51890,-57.75,27.125,62.5625,0
51910,-51.3125,23.4375,59.9375,0
51930,-49.4375,18.875,57.5625,0
51950,-52,20,53.6875,0
51970,-52.6875,18.4375,49.6875,0
51990,-49.8125,13.25,48.0625,0
52010,-53.125,2.5625,47.3125,0
52030,-55.1875,-6.375,43.5625,0
52050,-45.9375,-13.5,38.1875,0
52070,-35.5,-15.4375,32.6875,0
52090,-32.4375,-16,30.125,0
52110,-31.9375,-16.3125,31.3125,0
52130,-32.125,-15.4375,28.1875,0
52150,-27.0625,-15.5,24.375,0
52170,-22.9375,-16.875,22.8125,0
52190,-21.25,-19.75,19.625,0
52210,-22.125,-23,19.3125,0
52230,-23.3125,-28.8125,22.5,0
52250,-31.4375,-36.3125,26.6875,0
52270,-42.5,-39.0625,30.6875,0
52290,-42.3125,-37.625,25.0625,0
52310,-25.5625,-39.5625,12.0625,0
52330,-3.9375,-43.5625,4.0625,0
52350,2.5625,-43.3125,-1.8125,0
52370,0.875,-40.625,-4.1875,0
52390,0.875,-41.875,-4.1875,0
52410,4.625,-41.6875,-5.8125,0
52430,6.5625,-45.5625,-5.8125,0
52450,0.3125,-51,-2.875,0
52470,-17.25,-52.5,-1.5625,0
52490,-25.5625,-56.0625,-1.1875,0
52510,-23.75,-61.5,-2.5,0
52530,-16.9375,-66.1875,-2.5,0
52550,-10.375,-66.875,-6.875,0
52570,-4.4375,-64.1875,-15.125,0
52590,5.5,-60.625,-24,0
52610,13.4375,-59.375,-30.875,0
52630,15.25,-58.3125,-34.5625,0
52650,8.375,-56.375,-32,0
52670,4,-51.625,-30.3125,0
52690,3.3125,-50.4375,-31.0625,0
52710,7.5,-50.25,-29.6875,0
52730,6.375,-47.9375,-28.5625,0
52750,-1.4375,-43.1875,-27.875,0
52770,-1.9375,-42,-28.4375,0
52790,9,-40.0625,-34.375,0
52810,22.4375,-41.375,-41.5625,0
52830,24,-41.4375,-41.5625,0
52850,17.875,-36.6875,-42.8125,0
52870,17.25,-35.3125,-49.4375,0
52890,21.8125,-36.875,-51,0
52910,23.1875,-36.8125,-46.8125,0
52930,18.1875,-35.375,-46.1875,0
52950,16,-34.0625,-47.4375,0
52970,15.8125,-34.75,-47.6875,0
52990,14.75,-37.8125,-45.4375,0
53010,12.5,-38.125,-42.4375,0
53030,10.9375,-32.8125,-40,0
53050,17.25,-30.875,-39,0
53070,20.8125,-29.25,-37.5625,0
53090,15.375,-24.75,-35.75,0
53110,10.9375,-19.6875,-34.9375,0
53130,8.625,-22.0625,-31.625,0
53150,9.5625,-18.375,-27.25,1001
53170,9.6875,-13.25,-25.75,0
53190,6.125,-11.9375,-20.75,0
53210,6.1875,-7.125,-15.5,0
53230,2.625,1.6875,-17.625,0
53250,2.625,9.1875,-15,0
53270,6.375,11,-10.875,0
53290,8,13.375,-10.5,0
53310,6.25,14.75,-8.5625,0
53330,4.3125,15.625,-3.1875,0
53350,2.9375,18.375,2.875,0
53370,2.8125,17,5.75,0
53390,4.125,10.9375,5.375,0
53410,-0.25,5.0625,7.25,0
53430,-1.0625,3.6875,8.9375,0
53450,-3.4375,5.3125,7.375,0
53470,-0.375,6.5,5.3125,0
53490,2.1875,12.0625,-1.75,0
53510,7.0625,17.5625,-13.4375,0
53530,11.25,17.375,-17.4375,0
53550,13.375,18.25,-19.4375,0
53570,13.6875,19.9375,-20.6875,0
53590,12.5625,25.25,-19.6875,0
53610,6.6875,30.8125,-15.75,0
53630,2.9375,34.5,-10.875,0
53650,0.25,41.375,0.625,0
53670,2.875,43.6875,13.9375,0
53690,3.1875,42.8125,36.0625,0
53710,-0.875,42.625,56.1875,0
53730,-3.8125,47.9375,66.5625,0
53750,0.875,56.4375,81.3125,0
53770,3,53.6875,103.562,0
53790,-5.1875,50.625,119.625,0
53810,-8.8125,55.8125,121.062,0
53830,-1.375,63.375,116.625,0
53850,4.625,64,114,0
53870,8.125,59.375,104.062,0
53890,15.125,50.875,95,0
53910,12.0625,44.9375,98.125,0
53930,6.875,43.25,102.812,0
53950,-6.5625,39.5625,93.25,0
53970,-9.9375,34.8125,75.5625,0
53990,-3.4375,36.5,69.625,0
54010,5.5,37.3125,61.5625,0
54030,10,35.3125,51.9375,0
54050,2.375,32.25,44.6875,0
54070,-4.125,30.3125,42.5625,0
54090,-9.5625,27.5625,38.0625,0
54110,-5.125,23.9375,32.125,0
54130,-1.125,18.8125,27.6875,0
54130,5.25,12.8125,21.9375,0
54150,10.25,5.1875,16.5,0
54170,10.875,-0.8125,13.75,0
54170,4.5,-5.5625,9.625,0
54190,-2.375,-9,9.75,0
54210,-2.8125,-11.625,13.6875,0
54230,-3.5625,1.3125,12.8125,0
54250,2.875,4.125,12,0
54270,7.75,-9.5,15.3125,0
54310,7.3125,0.6875,9.6875,0
54330,-4.1875,2.0625,6.875,0
54350,-8,2.0625,10.1875,0
54370,-4.875,3.1875,8.75,0
54390,2.5,2.8125,4.5,0
54410,7,0.875,2.6875,0
54430,11.1875,-2.1875,0.4375,0
54460,3.3125,-6.75,6.125,0
54480,5.1875,-3.9375,6.25,0
54500,4.0625,-8.375,6.5,0
54520,4.625,-5.1875,1.6875,0
54540,-0.25,-4.375,3.125,0
54560,-1,-6.1875,6.375,0
54580,0.5,-7.625,9.3125,1000
54600,5.25,-7.25,3.25,0
54620,2,-7.625,-1.875,0
54640,2.8125,-7.75,-7.0625,0
54660,5.5625,-12.25,-6.3125,0
54680,-0.8125,-17.75,-4.5625,0
54700,-8.625,-21.6875,-6.9375,0
54720,-4.4375,-24.3125,-8.875,0
54740,4.5625,-27.375,-6.4375,0
54760,4.875,-30,-6.875,0
54780,8,-31.125,-9.3125,0
54800,12.5625,-33.875,-14.3125,0
54820,7,-32.8125,-18.8125,0
54840,10.6875,-44,-22,0
54860,8.375,-34.5625,-21.3125,0
54880,11.375,-33.5,-24.875,0
54900,10.1875,-30.125,-27.9375,0
54920,4.3125,-27.625,-28.875,0
54940,-0.6875,-26.0625,-27.4375,0
54960,-2.8125,-25.25,-28.1875,0
54980,0,-26.4375,-30.875,0
55000,4.8125,-25.5,-33.75,0
55020,2,-25.375,-33.3125,0
55040,-0.8125,-23.8125,-35.25,0
55060,-2.8125,-22.9375,-36.6875,0
55080,-0.4375,-24.125,-40.6875,0
55100,1.6875,-20.3125,-37.75,0
55120,5.125,-14.25,-37.375,0
55140,2,-6.875,-39.0625,0
55160,-8.9375,2.125,-42.0625,0
55180,-16.0625,6.1875,-43.1875,0
55200,-10.9375,7.8125,-47.1875,0
55220,-8.75,15.0625,-50.125,0
55240,-12.375,21.75,-55.125,0
55260,-13.25,28.3125,-58.1875,0
55280,-11.75,32.0625,-61.1875,0
55300,-8.6875,33.125,-60.8125,0
55320,-11.4375,39.125,-68.5625,0
55340,-17.9375,49.5625,-80.4375,0
55360,-20.0625,58.8125,-87.6875,0
55380,-17.1875,68.125,-91.625,0
55400,-20.125,78.5,-94.5,0
55420,-20.375,87.625,-96.8125,0
55440,-23,93.5625,-92.5,0
55460,-25.75,97.6875,-84.3125,0
55480,-25.5625,99.4375,-75.4375,0
55500,-21.75,99.5,-66.375,0
55520,-19.1875,97.1875,-56.875,0
55540,-21.625,95.5,-43.1875,0
55560,-21.625,93.9375,-35.875,0
55580,-17.75,89.0625,-26.8125,0
55600,-12.625,85.375,-14.0625,0
55620,-8.9375,80,-8,0
55640,-6.125,71.5625,1.125,0
55660,1.0625,58.6875,6.8125,0
55680,2,49.625,4.5,0
55700,-2.4375,44.375,3,0
55720,-1.25,37,5.25,0
55740,1.9375,26.4375,14.0625,0
55760,4.5625,18.1875,22,0
55780,8.875,16.4375,29.875,0
55800,11,19.9375,39.1875,0
55820,2.6875,17.5625,43.625,0
55840,-12.5625,11.875,50,0
55860,-20.25,8.75,59.75,0
55880,-22.125,4,67.75,0
55900,-14.0625,0.25,66.5625,0
55920,-14.25,-0.5625,61.4375,0
55940,-25.5625,1.25,58,0
55960,-32.5625,0.8125,57.625,0
55980,-34.375,-1.875,58.9375,0
56000,-28.125,-1.875,55.25,0
56020,-22.4375,-2,49.1875,0
56040,-24.25,-3.375,43.6875,0
56060,-26.25,-1.8125,40.1875,0
56080,-22.5,-0.875,40.375,0
56100,-20.375,-1.3125,43.875,0
56120,-18.3125,-2.3125,40.5625,0
56140,-18.625,-3,32.9375,0
56160,-18.5,-4.875,29.5,0
56180,-16.3125,-8.3125,30.1875,0
56200,-12,-10.75,27.5,0
56210,-11.3125,-12.875,22.25,0
56250,-11.625,-15.625,21.375,0
56250,-10.625,-18.5625,20.6875,0
56260,-7.1875,-15.625,17.25,0
56290,-9.25,-16,19.25,0
56310,-2.75,-10.125,15.1875,0
56330,-6.3125,-31.8125,20.9375,0
56350,3.125,-24.625,19.1875,0
56370,1.3125,-19.8125,12.1875,0
56390,0,-20.0625,10.8125,0
56410,-0.4375,-22.4375,14.25,0
56430,0.0625,-25,15.5625,0
56460,3.625,-28.375,13.8125,0
56480,6,-35.375,16.125,0
56500,-1.75,-36.5625,22.0625,0
56520,0.375,-30.875,21.1875,0
56540,-8.8125,-43.3125,19.875,0
56560,-2.9375,-45.5625,15.4375,0
56580,7.3125,-48.125,15.25,0
56600,7.9375,-49.375,13.8125,0
56620,2.8125,-50.5,11.1875,0
56640,-1.4375,-54.1875,11.375,0
56660,-1.625,-57.25,12.25,0
56680,-0.125,-58.375,10.875,0
56700,2.9375,-57.5625,10,0
56720,3.75,-58.4375,8.4375,0
56740,3.625,-60.5,6.5,0
56760,4.0625,-61.5625,6,0
56780,-0.375,-61.75,5,0
56800,-4.5,-61.9375,5.9375,0
56820,-7.4375,-61.3125,4.5,0
56840,-9,-59.375,3.625,0
56860,-6.3125,-59.625,0.375,0
56880,-6,-60.375,-2,0
56900,-7.8125,-57.8125,-4.1875,0
56920,-7.9375,-54.5625,-5.25,0
56940,-5.125,-53.5,-8.125,0
56950,-2.375,-53.25,-10.3125,0
56970,-0.1875,-51.5625,-9.9375,0
56990,0.1875,-49.1875,-12.125,0
57010,-1.25,-48.9375,-15.1875,0
57030,-4,-49.0625,-17.875,0
57050,-3.5625,-47,-20.375,0
57070,-1,-45.25,-22.0625,0
57090,-2.5,-44.25,-24.3125,0
57110,-1.6875,-41.875,-27.875,0
57130,-1.9375,-39.75,-29.6875,0
57150,-6.375,-34.8125,-27.875,0
57170,-6.0625,-27.5,-26.5625,0
57190,-6.625,-23.0625,-28.625,0
57210,-3.625,-23.375,-34.8125,0
57230,-5.3125,-21.125,-38.25,0
57250,-7.3125,-17.4375,-39.5,0
57270,-11.1875,-12.5625,-40.875,0
57290,-15.4375,-10.3125,-41.8125,0
57310,-13,-7.125,-44.5625,0
57330,-13.5,-3.0625,-48.3125,0
57350,-16.25,1.3125,-48,0
57370,-16.375,6.75,-46.75,0
57390,-12.5,6.75,-52.25,0
57410,-14.5625,6.4375,-55.8125,0
57430,-16.1875,8.875,-57.6875,0
57450,-14.4375,11.6875,-58.75,0
57470,-13.5625,14.9375,-56,0
57490,-19.25,17.625,-54.5625,0
57510,-20.3125,20.375,-56.25,0
57530,-18.0625,23.9375,-54.75,0
57550,-17.3125,27.875,-52.4375,0
57570,-19.125,29.9375,-52,0
57590,-19.3125,32.4375,-53.4375,0
57610,-18.5625,34.5,-54.25,0
57630,-17.375,34.9375,-53.0625,0
57650,-16.3125,33.625,-50.9375,0
57670,-17,32.5,-49.375,0
57690,-16.4375,30.875,-50,0
57710,-14.125,29.6875,-49.3125,0
57730,-15.25,29.5625,-46.5625,0
57750,-15.4375,29.75,-43.1875,0
57770,-14.625,32.0625,-40.5,0
57790,-14.6875,34.0625,-38.875,0
57810,-13.9375,36.375,-37.5625,0
57830,-14.1875,37.5,-35.5625,0
57850,-14.125,38.375,-33.5625,0
57870,-13.8125,39.6875,-31.125,0
57890,-14.1875,40.3125,-27.3125,0
57910,-13.0625,41.8125,-23.4375,0
57930,-12.9375,42.875,-19.9375,0
57950,-13.25,44.9375,-14.375,0
57970,-14.5,47.4375,-9.4375,0
57990,-15.5,47.125,-2.125,0
58010,-14.8125,47,8.25,0
58030,-12.0625,47.875,17.4375,0
58050,-10.5625,45.875,21.1875,0
58070,-9.625,42.875,25.0625,0
58090,-10.4375,40.75,33.8125,0
58110,-11.0625,41.8125,44.125,0
58130,-12.4375,40.125,50,0
58150,-12.1875,36.9375,52,0
58170,-10.125,36.3125,53.1875,0
58190,-8.625,43.875,55.9375,0
58210,-12.125,44.875,59.3125,0
58230,-18.1875,39.625,62.5625,0
58250,-23.3125,37.0625,58.25,0
58270,-21.75,33.375,55.125,0
58290,-14.0625,30.25,56.0625,0
58310,-17.75,32.5,56.4375,0
58330,-27.375,32.375,52.4375,0
58350,-35.1875,27.25,50.8125,0
58370,-34.375,21.875,49.3125,0
58390,-30.625,20.875,49.5,0
58410,-31.75,21.4375,49,0
58430,-32.25,17.75,45.75,0
58450,-32.6875,11.875,45.5625,0
58470,-30.1875,6.875,42,0
58490,-27.6875,4.1875,38.8125,0
58510,-29.6875,-0.625,38.5,0
58530,-29.5,-6.0625,35.75,0
58550,-26.1875,-9.4375,31.375,0
58570,-19.25,-11.9375,28.5625,0
58590,-12.5,-15.25,24.5,0
58610,-6.5625,-17.25,18.625,0
58630,-2.9375,-18,15.9375,0
58650,0.625,-19.25,14.125,0
58670,3.1875,-21.375,12.8125,0
58690,4.375,-21.5,13.0625,0
58710,3.1875,-22,14.1875,0
58730,1.125,-24.125,17.0625,0
58750,-2.125,-24.6875,20.5625,0
58770,-5.3125,-22.625,22.3125,0
58790,-9.75,-22.3125,24.1875,0
58810,-13.4375,-25.5,24.8125,0
58830,-14.0625,-26.625,24.1875,0
58850,-10.9375,-27.4375,23.8125,0
58870,-7.25,-28.5625,22.5625,0
58890,-6.25,-29.0625,20.875,0
58910,-8.0625,-29.875,19.5,0
58930,-8.9375,-31.625,17.8125,0
58950,-7.0625,-33.4375,16.8125,0
58970,-3.4375,-35.125,15.125,0
58990,-0.5625,-36.75,13.375,0
59010,-0.75,-37,13.125,0
59030,-2,-37.5,12.75,0
59050,-1.9375,-39.625,12.125,0
59070,-1,-41.25,11.5,0
59090,-0.625,-43.125,11,0
59110,-1.5,-45.1875,11.5625,0
59130,-7.5,-48.6875,12.1875,0
59150,-15.3125,-51.1875,11.75,0
59170,-18.5625,-50.9375,9.6875,0
59190,-19.25,-53.1875,8.3125,0
59210,-16.9375,-55.6875,7.625,0
59230,-18.125,-53.1875,4.375,0
59250,-15.625,-48.875,0.9375,0
59270,-9.75,-51.4375,-3.375,0
59290,-8,-56.75,-7.875,0
59310,-5.5625,-55,-13.75,0
59330,-3.6875,-51.8125,-19,0
59350,-0.0625,-52.0625,-23.125,0
59370,0,-54.1875,-27.9375,0
59390,-0.3125,-54.3125,-30.875,0
59410,-3.1875,-54.0625,-33.5625,0
59430,0.6875,-55.125,-33.9375,0
59450,0.9375,-56.4375,-35.125,0
59470,0.375,-54.6875,-38.1875,0
59490,2,-50,-40.375,0
59510,0.75,-46.1875,-41.125,0
59530,1.5625,-45.5,-44.75,0
59540,1.9375,-43.625,-48.375,0
59560,1.875,-41.125,-51.625,0
59580,-0.4375,-35.3125,-53.6875,0
59600,-1.875,-27.25,-52.1875,0
59620,1.3125,-23.0625,-55.25,0
59640,-1.8125,-20.5625,-58.1875,0
59660,-3.125,-17.125,-62.875,0
59680,-4.625,-13.5,-64.6875,0
59700,-8.5625,-12,-66.6875,0
59720,-12.4375,-15.875,-69.4375,0
59740,-12.5625,-17.375,-73.625,0
59760,-13.4375,-16.25,-75.4375,0
59780,-15.5,-11,-72.6875,0
59800,-19.0625,-5.875,-68.0625,0
59820,-22,-5.375,-66.25,0
59840,-23.9375,-6.8125,-66.75,0
59860,-24.375,-6.9375,-65.25,0
59880,-21.3125,-7.625,-69.875,0
59900,-23.3125,-6.875,-73.625,0
59920,-25.75,-2.5625,-72.1875,0
59940,-27.6875,4.25,-68.25,0
59960,-29.75,13.3125,-63.9375,0
59980,-30.4375,21.4375,-59,0
60000,-28.0625,29.5,-54.6875,0
60020,-26.625,38.5625,-49,0
60040,-26.75,49.75,-42.4375,0
60060,-26.8125,63.375,-34.625,0
60080,-28.3125,75.3125,-25.6875,0
60100,-26.5,83.1875,-17.375,0
60120,-22.3125,86.75,-9.375,0
60140,-17.125,89.75,0.1875,0
60160,-15,93.3125,9.0625,0
60180,-13.4375,95.125,16.8125,0
60200,-8.0625,93.8125,23.25,0
60220,-1.0625,91.4375,27.5,0
60240,-2.9375,92.6875,32.0625,0
60260,-7.1875,91.9375,36.5,0
60280,-8.625,86.4375,38.875,0
60300,-13.8125,87.375,45.625,0
60320,-20.1875,83.6875,56.6875,0
60340,-18.5,79.25,63.1875,0
60360,-22.1875,76.1875,57.0625,0
60380,-19.6875,72.9375,53.75,0
60400,-25.9375,71.8125,58.25,0
60420,-40.1875,69.1875,61.4375,0
60440,-50,60.9375,59.125,0
60460,-52.875,52.6875,57.5,0
60480,-52.875,47.1875,59.4375,0
60500,-52.5,45.375,62.9375,0
60520,-52.6875,44.5625,61.375,0
60540,-51.5,39.875,55.125,0
60560,-49.4375,33.5,50.75,0
60580,-48.5625,31.1875,49.875,0
60600,-46.0625,29.5625,48.625,0
60620,-38.125,26.125,40.125,0
60640,-30,18.6875,34.25,0
60660,-20.75,11.6875,31.0625,0
60680,-15.125,9.1875,26.3125,0
60700,-17.3125,3.3125,23.6875,0
60720,-22.125,-2.625,22.4375,0
60740,-35.1875,-7.875,23.6875,0
60760,-46.0625,-11.8125,23.625,0
60780,-52.5,-15.25,23,0
60800,-49.4375,-20.25,21.0625,0
60820,-43.125,-25.3125,18,0
60840,-39,-26.5,16.125,0
60860,-36.375,-27,14.3125,0
60880,-35.1875,-30,13.25,0
60900,-31.5625,-33.1875,10.9375,0
60920,-30.9375,-37.75,9.875,0
60940,-34.375,-40,11.25,0
60960,-39,-42.4375,14.625,0
60980,-45.9375,-48.4375,18.3125,0
61000,-58.125,-53.375,22.0625,0
61020,-67.25,-57.3125,23.5,0
61040,-68.25,-61.8125,21.125,0
61060,-61.1875,-67.625,16.75,0
61080,-51.625,-71.125,12.4375,0
61100,-42.625,-73.25,8.8125,0
61120,-32.4375,-73.875,2.5,0
61140,-22.4375,-72.75,-2.25,0
61160,-15.125,-73.4375,-2.8125,0
61180,-10.75,-70.8125,-7.0625,0
61200,-6.375,-69.3125,-9.625,0
61220,-1.25,-70.6875,-10.5625,0
61240,3.75,-68.8125,-12.3125,0
61260,6.125,-63.75,-14.625,0
61280,14.9375,-60.3125,-18.75,0
61300,26.8125,-57.6875,-26.625,0
61320,39.75,-55.625,-36.1875,0
61340,44.4375,-56.9375,-40.8125,0
61360,42.0625,-56.625,-40.5625,0
61380,33.0625,-53,-38.8125,0
61400,28.8125,-51.125,-36.3125,0
61420,20.5,-52.125,-35.5625,0
61440,14.3125,-50.625,-36.375,0
61460,8.3125,-47.875,-34.8125,0
61480,5.75,-43.6875,-33.375,0
61500,7.625,-37.75,-31.6875,0
61520,12.8125,-33.8125,-31.4375,0
61540,15.875,-30.8125,-30.4375,0
61560,10.4375,-27.375,-27.9375,0
61580,6.3125,-26.5,-27.25,0
61600,1.75,-25.875,-30.5625,0
61620,4,-21.125,-33.125,0
61640,8.4375,-19.9375,-33.9375,0
61660,8.75,-21.25,-36.3125,0
61680,10.5625,-19.625,-41.125,0
61700,13.75,-17,-40.8125,0
61720,13.1875,-16.6875,-38,0
61740,14.0625,-13.625,-40.5,0
61760,16,-12.0625,-45.3125,0
61780,15,-13.3125,-46.125,0
61800,11.875,-11.9375,-43.8125,0
61820,9.125,-8.875,-43.1875,0
61840,6.0625,-7.25,-44.8125,0
61860,2.75,-7.125,-43.875,0
61880,-0.0625,-5.8125,-41.875,0
61900,-1.8125,-2.6875,-40.75,0
61920,-0.5,-2,-39.5625,0
61940,0,-1.9375,-39.9375,0
61960,-1.1875,-1.8125,-41.1875,0
61980,-1.625,-1,-39.75,0
62000,-1.5,-0.75,-36.1875,0
62020,-0.25,0.8125,-29.6875,1001
62040,2.8125,0.625,-21.875,0
62060,3.3125,-2.1875,-10.5625,0
62080,-0.8125,-1.4375,0.3125,0
62100,-7.6875,5.4375,11.0625,0
62120,-10.25,9.3125,19.75,0
62130,-7.125,9.625,21.375,0
62150,-2.375,9.4375,15.6875,0
62170,1,10.0625,11.4375,0
62190,3.625,9.5625,8.8125,0
62210,8.25,7.6875,5.6875,0
62230,11.5625,5.4375,2.375,0
62250,12.25,5.75,1.25,0
62270,7.4375,3.25,-3.625,0
62290,-1.6875,-4,-1.1875,0
62310,-3.125,-9.375,6.875,0
62330,9.25,-10.3125,-1.4375,0
62350,10,-6.8125,-19.375,0
62370,14.9375,-2.0625,-38.875,0
62390,22.625,-2.625,-52.8125,0
62410,30.5,-1.8125,-66.375,0
62430,40.375,-4.5,-62.0625,0
62450,33.4375,-3.9375,-46.625,0
62470,18.9375,4.8125,-39.625,0
62490,18.8125,13.4375,-31.25,0
62510,17,13.0625,-14.0625,0
62530,11.75,9.375,7.3125,0
62550,16.5,10.0625,38.1875,0
62570,21.8125,17.4375,70,0
62590,19.6875,25.0625,89.8125,0
62610,16.3125,28.375,99.75,0
62630,16.5625,31.3125,113,0
62650,15.4375,33,132.75,0
62670,14.1875,40.125,146.25,0
62690,11.375,51.875,145.688,0
62710,23.0625,55.375,130.625,0
62730,34.4375,50.125,132.25,0
62750,27.0625,40,135.375,0
62770,8.3125,35.25,125.125,0
62790,-6.6875,36.8125,108.875,0
62810,-1.875,30.9375,93.8125,0
62830,5.6875,17.8125,86,0
62850,8.125,5.875,75.5,0
62870,11.5625,0.625,64.6875,0
62890,10,1.875,52.1875,0
62910,11.3125,1.75,45,0
62930,9.75,-1.4375,43.4375,0
62950,9.75,0.875,39.875,0
62950,8.5625,4.5625,35.6875,0
62970,4.625,6.625,34.0625,0
62990,2.9375,7.0625,28.9375,0
62990,6.4375,5.375,24.125,0
63010,8.25,4.25,24.375,0
63030,5.5,3.375,23.3125,0
63050,3.0625,2.125,24.625,1000
63050,7.875,1.75,24.125,0
63070,9.9375,2.6875,17.375,0
63090,8.5625,4.125,15.6875,0
63110,5.75,8.25,15.375,0
63130,3.4375,9.8125,14.5625,0
63150,15.9375,6.25,8.0625,0
63170,3,-1.5625,6.125,0
63190,4.4375,-7.75,10,0
63220,5.5625,-10.1875,10.75,0
63250,6.75,-10.8125,10.8125,0
63270,6.0625,-9.4375,8.6875,0
63290,2.5,-6.9375,6.625,0
63330,-2.625,-2,5.3125,0
63370,3.1875,1.1875,1.375,0
63390,7.625,-2.9375,0.875,0
63410,-0.4375,0.25,4.9375,0
63410,6.125,8.5,4.125,0
63430,6.375,-3.1875,1.9375,0
63450,5.125,-5.5,3.5625,0
63470,10.875,-10.875,-1,0
63490,11.5,-9.0625,-1.625,0
63530,-0.375,-17.5,-2.1875,0
63550,15.125,-15.75,-0.5,0
63570,13.9375,-13.3125,-3.25,0
63590,-0.25,-14.1875,-6,0
63610,-5.6875,-13.4375,-15.75,0
63630,7.125,-15.5625,-22.8125,0
63650,24,-23.375,-20.375,0
63670,23.125,-32.4375,-18.0625,0
63690,11.0625,-34.5625,-18,0
63710,6.875,-39.8125,-22.375,0
63730,-0.375,-51.3125,-17.75,0
63750,4.375,-56.5,-21.375,0
63770,7.8125,-50.8125,-23.375,0
63790,7.5625,-48.5625,-22.4375,0
63810,5.8125,-45.875,-21.3125,0
63830,5.6875,-43.875,-20.75,0
63850,8.5,-42.5625,-27.25,0
63870,7.625,-42.1875,-28.375,0
63890,4.625,-38.625,-26.1875,0
63910,1.625,-33.8125,-29.6875,0
63930,-1.3125,-31.8125,-33.875,0
63950,-18.6875,-32.3125,-31.875,0
63970,-23.5,-26.4375,-34.4375,0
63990,-21.4375,-22.375,-32.6875,0
64010,-8,-19.625,-35.375,0
64030,-4.6875,-14.625,-39.5625,0
64050,-10.3125,-10.5625,-39.8125,0
64070,-7.625,-9,-48.8125,0
64090,-5.875,-4.75,-52.375,0
64110,1.375,2.625,-54.375,0
64130,-2.3125,10.8125,-51.8125,0
64150,-8.8125,18.5,-50.6875,0
64170,-7.0625,27.625,-54.125,0
64190,-9.5,33.5,-52.3125,0
64210,-8.0625,39,-50.875,0
64230,-9.1875,45.375,-50.375,0
64250,-12.9375,50.5,-47.5,0
64270,-14.875,57,-47.125,0
64290,-15.375,65.375,-44.625,0
64310,-13.0625,71.125,-42.3125,0
64330,-11.75,72.3125,-41.1875,0
64350,-11.5,73.625,-42.8125,0
64370,-14.8125,77,-44.25,0
64390,-17.5625,81.4375,-45.125,0
64410,-15.1875,83.6875,-46.1875,0
64430,-10.875,81.875,-46.875,0
64450,-9.0625,80.1875,-48.4375,0
64470,-9.25,79.75,-50.75,0
64490,-9.9375,75,-50.375,0
64510,-8.0625,70.3125,-48.3125,0
64530,-6.625,67.8125,-42.3125,0
64550,-8.0625,66.875,-33.5,0
64570,-10.5625,67.6875,-24.3125,0
64590,-12,69.125,-13,0
64610,-16.5,71.5625,-2.3125,0
64630,-12.625,65.8125,3.8125,0
64650,-6.4375,60.0625,10.1875,0
64670,-4.75,57.0625,15.4375,0
64690,-2.8125,58.875,17.25,0
64710,-2.9375,55.75,18.75,0
64730,-1.5,49,20.9375,0
64740,-2.75,47.375,23.0625,0
64760,-3.4375,49,26.5,0
64780,0.0625,45.3125,29.6875,0
64800,6.3125,36.5625,32.5625,0
64820,11,33.8125,33.9375,0
64840,4.125,35.0625,34.1875,0
64860,-4.8125,32.5,38.9375,0
64880,-11.1875,22.6875,42.0625,0
64900,-10.1875,12.0625,42.875,0
64920,-10,5.6875,40.6875,0
64940,-13.125,4.375,41.3125,0
64960,-17.25,0,43.125,0
64980,-20.5,-6.5625,45.1875,0
65000,-20.6875,-10.5625,44.1875,0
65020,-20.75,-7.625,39.9375,0
65040,-21,-4.625,37.875,0
65060,-21.1875,-5.0625,38.625,0
65080,-14.25,-5.875,36.125,0
65100,-11.0625,-4.625,30.8125,0
65120,-10.3125,-4.125,26.25,0
65140,-9.4375,-3.5,26.125,0
65160,-6.9375,-3.0625,29.9375,0
65180,-8,-2.0625,31.75,0
65200,-8.8125,-2.4375,29.3125,0
65220,-12.5,-2.6875,27.9375,0
65240,-17.125,-3.5,32.75,0
65260,-17.1875,-5.4375,34.5625,0
65280,-15.0625,-7.5625,32.3125,0
65300,-13.6875,-10.3125,28,0
65320,-11.8125,-13.6875,27.5,0
65340,-7.3125,-17.125,27,0
65360,-3.125,-20.8125,24.5625,0
65380,-2.5,-26.5,22.5,0
65390,-7.125,-31,22.5,0
65410,-12.3125,-35.8125,22.375,0
65430,-13.75,-39.625,20.5,0
65450,-8.5,-39.625,14.25,0
65470,-3.6875,-37.125,13.625,0
65490,-1.3125,-63.0625,18.75,0
65510,-2.4375,-53.5,9.0625,0
65530,-11.125,-56.1875,7.5,0
65550,-11.25,-60.875,13.375,0
65570,-8.0625,-63.0625,18.9375,0
65590,0.8125,-73.875,17.6875,0
65620,-5,-63.875,8.3125,0
65630,-1.625,-69,5.5625,0
65650,1.8125,-69.3125,2.6875,0
65670,5.1875,-71.6875,-0.875,0
65670,5.1875,-73.6875,-3.5,0
65690,4.5625,-75.625,-3.875,0
65710,3.9375,-77.3125,-4.75,0
65730,4.875,-76.0625,-5.875,0
65730,4.25,-74.125,-6.3125,0
65750,4.125,-73.875,-9.0625,0
65800,3.75,-72.875,-8.4375,0
65840,2.125,-68.0625,-8.0625,0
65860,2.6875,-61.1875,-8.75,0
65880,5.5625,-58,-9.75,0
65900,8.75,-56.5,-14.5625,0
65920,10,-55.1875,-18.625,0
65940,11.125,-52.3125,-18.75,0
65960,11.0625,-51.0625,-19.5,0
65980,10.375,-48.6875,-20.375,0
66000,7.5,-46.6875,-19.125,0
66020,4.3125,-44.0625,-17.75,0
66040,2.9375,-42.375,-18.5625,0
66060,-0.1875,-40.625,-18.5,0
66080,0.1875,-39.4375,-24.9375,0
66100,0.375,-36.8125,-28.6875,0
66120,-1.25,-31.625,-29.3125,0
66140,-2.6875,-26.4375,-28.5625,0
66160,-4.3125,-24.125,-30.875,0
66180,-5.5625,-21.75,-33.8125,0
66200,-4.375,-18.4375,-36.4375,0
66220,-6,-15.375,-36.625,0
66240,-7.375,-14.4375,-37.0625,0
66260,-6.625,-13.75,-38.75,0
66280,-7.25,-10.375,-38.8125,0
66300,-8.5625,-6.125,-41.8125,0
66320,-10.375,-4.625,-44.8125,0
66340,-9.3125,-4,-49,0
66360,-12.375,0,-47.8125,0
66380,-15.9375,8.875,-46.25,0
66400,-17.625,13.8125,-47.0625,0
66420,-16.875,18,-50.25,0
66440,-13.9375,22.0625,-53.75,0
66460,-14.125,24.0625,-54.75,0
66480,-14.1875,25.625,-59.8125,0
66500,-11.625,25.6875,-62.6875,0
66520,-12.4375,27.1875,-64.375,0
66540,-14.8125,30.5625,-63.375,0
66560,-17.5625,33.25,-63.375,0
66580,-18.3125,35.25,-63.375,0
66600,-19.625,37.875,-61.6875,0
66620,-23.125,40.9375,-60.9375,0
66640,-24.25,45.0625,-60.125,0
66660,-23.5,47.625,-56.4375,0
66680,-25.25,49,-52.5625,0
66700,-24.125,51.625,-50.625,0
66720,-25.5625,54.4375,-48.6875,0
66740,-25.75,57.625,-46.3125,0
66760,-26.1875,60.5625,-40,0
66780,-27.375,67.6875,-30.6875,0
66800,-29.4375,74.5,-22.8125,0
66820,-27.8125,74.375,-17.25,0
66840,-21.75,71.5625,-14.625,0
66860,-20.1875,72.25,-11.9375,0
66880,-20.5625,76.875,-3.25,0
66900,-21.625,80.375,1.375,0
66920,-21.5,78.125,2.125,0
66940,-20.75,75.75,7.9375,0
66960,-19.8125,75.875,20.75,0
66980,-15.375,72.3125,28.0625,0
67000,-13.1875,59.125,25.875,0
67020,-22.25,48.4375,23.9375,0
67040,-25.1875,46.75,30.5,0
67060,-29.1875,46.8125,44.75,0
67080,-33.125,45.8125,59.0625,0
67100,-39.3125,39.5,56.3125,0
67120,-50.5,32.4375,51.375,0
67140,-51.625,26.5,58.9375,0
67160,-47.875,18.5625,64.9375,0
67180,-43.8125,9.0625,63.75,0
67200,-39.625,3.3125,55.625,0
67220,-43,-1.25,52.9375,0
67240,-45.8125,-5.5625,52.125,0
67260,-39.875,-10.5,51.1875,0
67280,-30.6875,-16.375,49.625,0
67300,-22.6875,-20.375,45.625,0
67320,-22.0625,-22.625,40.625,0
67340,-23.3125,-29.625,39.125,0
67350,-26.9375,-35.75,36.9375,0
67370,-24.125,-35.4375,34.9375,0
67390,-18.875,-35.75,33.625,0
67410,-14.4375,-37.625,33.9375,0
67430,-15.6875,-39.5625,33.1875,0
67450,-19.4375,-38.5,32.1875,0
67470,-19.5,-34.5,31.1875,0
67490,-12.375,-33.3125,28.8125,0
67510,-4.5625,-38.25,26.125,0
67530,-2.6875,-40.875,23.5,0
67550,-1.6875,-41.375,21.1875,0
67570,-1.3125,-41.125,20.8125,0
67590,-3.625,-41.375,21.6875,0
67610,-9.5,-43.8125,23.5625,0
67630,-15.3125,-44.75,24.5625,0
67650,-14.3125,-40.625,23.625,0
67670,-9.5,-39.3125,22.8125,0
67690,-5.6875,-37.8125,21.625,0
67710,-6.8125,-34.5,21.0625,0
67730,-7.625,-32.125,20.625,0
67750,-5.75,-30.4375,17.25,0
67770,-1.625,-30,14.125,0
67790,-0.5625,-31.875,13.125,0
67810,-2.25,-31.25,11.3125,0
67830,1,-31.75,6.1875,0
67850,2.6875,-37.6875,1.75,0
67870,2.3125,-43.3125,-1.4375,0
67890,-0.0625,-46.6875,-5.0625,0
67910,-0.8125,-48.625,-8.8125,0
67930,2.9375,-51.3125,-13.125,0
67950,6.4375,-56.625,-18.25,0
67970,5.9375,-62.25,-22,0
67990,4.625,-65.75,-24.9375,0
68010,-0.4375,-69,-26.625,0
68030,-1.25,-70.75,-27.0625,0
68050,-1.0625,-73.5625,-28.375,0
68070,2.3125,-73.75,-31.1875,0
68090,4.4375,-73.25,-36.375,0
68110,5.375,-72.375,-39.875,0
68130,5.5625,-70.625,-39,0
68150,7.3125,-66.125,-41.5625,0
68170,7,-61.75,-48.125,0
68190,5.8125,-56.3125,-53.6875,0
68210,7.4375,-50.375,-55.875,0
68230,10.125,-42.9375,-54.6875,0
68250,9.375,-35.0625,-54.9375,0
68270,11.125,-26.1875,-57.9375,0
68290,11.3125,-20.8125,-58.875,0
68310,8.8125,-19.5625,-60.625,0
68330,5.1875,-16.125,-64.125,0
68350,0,-15.4375,-64,0
68370,-3.75,-12.0625,-64.1875,0
68390,-8.875,-4.4375,-57.25,0
68410,-8.4375,-3.375,-55.4375,0
68430,-6.6875,-5.4375,-65.4375,0
68450,-11.5,-2,-66.75,0
68470,-15.9375,3.25,-64.0625,0
68490,-12.8125,5.625,-65.625,0
68510,-14.6875,9.5625,-65.1875,0
68530,-17.6875,13.5,-64.5,0
68550,-18.6875,16.5,-64.5,0
68570,-21.8125,16.875,-63.6875,0
68590,-22.5,18.25,-60.8125,0
68610,-21.625,21.25,-58.3125,0
68630,-21.875,26.1875,-57.5,0
68650,-24.0625,33.5625,-56.125,0
68670,-25.125,40.875,-54.0625,0
68690,-22.9375,45.5625,-53,0
68710,-17.1875,48.0625,-51.25,0
68730,-14.6875,51.75,-47.5,0
68750,-14.1875,59.25,-40.875,0
68770,-16.9375,69.375,-33.1875,0
68790,-14.25,77.25,-25.6875,0
68810,-10,80,-16.8125,0
68830,-6,81.4375,-8.75,0
68850,-3.1875,83.75,-2.625,0
68870,-2.4375,87.5,5.375,0
68890,-6.6875,89,15.4375,0
68910,-6.375,85.8125,26.9375,0
68930,-7.9375,81.625,34,0
68950,-7.8125,84.125,33.5625,0
68970,-8,87.125,37.6875,0
68990,-3.5,88.75,40.125,0
69010,-3.8125,91.0625,42.3125,0
69030,-7.1875,92.25,47.5625,0
69050,-12.125,94,49.875,0
69070,-28.5,93.9375,50.25,0
69090,-45.625,85.5,54.75,0
69110,-52.1875,66.5,60.0625,0
69130,-53.875,56.4375,57.375,0
69150,-50.6875,48,56.625,0
69170,-43.3125,40.375,57.875,0
69190,-37.875,35.8125,56.4375,0
69210,-35.625,29.6875,49.9375,0
69230,-36.1875,20.1875,48.125,0
69250,-40.125,11.5,47.625,0
69270,-41.6875,4,47.375,0
69290,-33.875,-0.0625,46.375,0
69310,-26.625,-6.125,44.25,0
69330,-22.6875,-10.6875,41,0
69350,-21.6875,-18.3125,37.3125,0
69370,-25,-23.9375,38.375,0
69390,-32.125,-28.5625,40.5,0
69410,-41.0625,-28.875,44.125,0
69430,-45.125,-28.875,44.125,0
69450,-38.5,-32,37.8125,0
69470,-28.5625,-36.75,31.8125,0
69490,-21.9375,-39.25,28.625,0
69510,-21.0625,-42.125,24.875,0
69530,-18.1875,-47.125,19.3125,0
69550,-11.1875,-57.3125,16.5625,0
69570,-6.6875,-62.375,16.5625,0
69590,-17.125,-64.1875,19.625,0
69610,-27.375,-66.8125,20,0
69630,-32.6875,-71.75,19.375,0
69650,-31.4375,-78.25,19.875,0
69670,-31.0625,-81,19.5625,0
69690,-31.9375,-82.0625,14.9375,0
69710,-33,-86.25,11.1875,0
69730,-32.25,-87.4375,7.3125,0
69750,-26.1875,-85.125,0.5,0
69770,-14.1875,-82.5625,-5,0
69790,-2.75,-79.875,-12,0
69810,2.4375,-77.75,-16.125,0
69830,5.5,-76.4375,-20.625,0
69850,7.0625,-76.25,-24.6875,0
69870,8.375,-76,-28.5625,0
69890,10.9375,-73.4375,-31.75,0
69910,12.75,-68.4375,-35.8125,0
69930,17.6875,-64.0625,-41.9375,0
69950,21.875,-62.8125,-49,0
69970,26.0625,-59.5,-52.25,0
69980,31.25,-52.3125,-54.5,0
70000,31.5,-48.25,-57.5,0
70020,27.1875,-43.1875,-56.0625,0
70040,26.4375,-36.5625,-52.5,0
70060,25.5,-34.5625,-54.9375,0
70080,20.875,-33.6875,-59.25,0
70100,16,-30.375,-55.9375,0
70120,13.375,-28.75,-50.6875,0
70140,9.1875,-28.375,-48.8125,0
70160,4.75,-25.6875,-49.375,0
70180,1,-20.25,-51.125,0
70200,4.375,-16.3125,-50.9375,0
70220,6.75,-17.375,-49.3125,0
70240,4.5625,-17.1875,-49,0
70260,-0.75,-15,-48,0
70280,-3.125,-10.375,-44,0
70300,0.375,-7,-39.625,0
70320,3.625,-3.9375,-42.125,0
70340,0.0625,-3.75,-44.9375,0
70360,0.9375,-1.5625,-42.5,0
70380,0,-0.0625,-37.1875,0
70400,0.625,0.125,-34,1001
70420,0.75,2.625,-28.5,0
70440,-0.5,6.25,-23.3125,0
70460,1.9375,3.875,-21.375,0
70480,5.875,-4.375,-18.625,0
70500,2.5625,-8.9375,-11.0625,0
70520,-3.4375,-9.5,-1.875,0
70540,-8.125,-10.75,6.375,0
70560,-6.9375,-14,9.4375,0
70580,-3.25,-15.25,10.3125,0
70600,-5.9375,-13,7.4375,0
70620,-9.3125,-10.125,9.75,0
70640,-9.8125,-5.0625,10.625,0
70660,-7.9375,0.9375,7.3125,0
70680,-6.875,8.375,4.5625,0
70700,-9.5625,15.1875,2.75,0
70720,-12.0625,18.1875,3.375,0
70740,-13.1875,20.1875,9.1875,0
70760,-14.0625,25.8125,14.5,0
70780,-16.625,32.1875,20.625,0
70800,-21.75,37.0625,30.4375,0
70820,-23.4375,40.0625,43.1875,0
70840,-23.625,44.5,53.75,0
70860,-28.125,49.1875,63.3125,0
70880,-27.125,50.8125,72.625,0
70900,-23.375,50.5625,81.25,0
70920,-22.375,50.3125,96.0625,0
70940,-20.25,47.625,109.062,0
70960,-19.5625,46.5,118.875,0
70980,-23.5,38.625,117.25,0
71000,-23.25,26.0625,112.062,0
71020,-14.3125,16.4375,110.188,0
71040,-7,12.8125,111.438,0
71060,2.375,10.625,110.938,0
71080,8.6875,6.5,111.125,0
71100,17.8125,7.625,104.562,0
71120,28.1875,11.25,88.75,0
71140,36.4375,11.5625,81.625,0
71160,39.5625,6.5,78.9375,0
71180,41.75,5.5,67.375,0
71200,46.75,9.875,49.8125,0
71220,46.5625,11.375,34.375,0
71240,47.5625,9.3125,25.4375,0
71260,55.9375,6.8125,19.75,0
71280,60,7.3125,14.75,0
71300,54.6875,7.75,8.8125,0
71320,45.25,6.125,6.8125,0
71340,32.3125,4.4375,8.8125,0
71360,28.375,3.6875,9.25,0
71380,28.75,3.5625,7.0625,0
71400,20,-0.4375,6.6875,0
71420,10.125,0.0625,4.1875,0
71440,2.375,1.5,3.3125,0
71460,-1.375,2.8125,6.25,0
71470,3.125,4.5625,3.625,0
71470,11.6875,3.5625,-3,0
71510,15.125,0.5625,-5.0625,0
71530,11.75,-5.625,-4.0625,1000
71550,11,-9.3125,-2.375,0
71570,0.75,-12.1875,8.4375,0
71590,12.1875,1.1875,10.1875,0
71610,7.8125,3.3125,3.4375,0
71630,-1.5,-1.625,0.875,0
71660,-3.25,-4.75,5,0
71680,3,-4.8125,8.125,0
71700,9.0625,-3.25,8.625,0
71720,10.125,-7.375,13.5,0
71740,2.4375,-2.875,14.125,0
71760,2.8125,3,13.625,0
71780,3.0625,2.3125,16.3125,0
71790,4.5625,-1.8125,17.6875,0
71810,6.875,-6.6875,14.1875,0
71830,11,-6.0625,5.125,0
71830,5.75,-7,-8.8125,0
71850,6.6875,-12.9375,-6.375,0
71870,7.375,-16.8125,1.5,0
71890,5.1875,-20.125,2.6875,0
71940,-1.875,-24.4375,2.6875,0
71960,-5.4375,-28.875,2.125,0
71980,-4.875,-32.9375,-3.25,0
72000,-0.0625,-37.625,-6.125,0
72020,1.8125,-40.375,-7.1875,0
72040,6.6875,-38.625,-14.25,0
72060,9.4375,-38,-20.3125,0
72080,12.9375,-40.4375,-25.5625,0
72100,4.1875,-41.8125,-27.8125,0
72120,-3.75,-37.3125,-32.625,0
72140,-5.8125,-35.375,-42.3125,0
72160,-7.3125,-34.125,-48.8125,0
72180,-5.875,-28.5625,-52.6875,0
72200,-6.0625,-22,-54.8125,0
72220,-7.1875,-18.5,-56.125,0
72240,-7.125,-16.1875,-55.8125,0
72260,-10,-6.875,-58,0
72280,-10.8125,-2.375,-55.8125,0
72300,-6.3125,4.1875,-51.6875,0
72320,-9.9375,8.1875,-49.9375,0
72340,-15.0625,11.5,-57.75,0
72360,-21.625,19.6875,-61.25,0
72380,-23.8125,24.625,-62.8125,0
72400,-23,30.25,-68,0
72420,-20.0625,39.375,-76.5625,0
72440,-20.8125,46.625,-79.5625,0
72460,-23.375,59,-81.375,0
72480,-28.4375,70.125,-86.875,0
72500,-32.0625,77.875,-87.1875,0
72520,-33.875,89.625,-85.8125,0
72540,-35.5,100.625,-83.375,0
72560,-35.75,108.375,-76.25,0
72570,-33.125,112.5,-68,0
72590,-32.75,112.062,-57.625,0
72610,-35.1875,104.812,-44.3125,0
72630,-43.0625,97.25,-32.6875,0
72650,-45.4375,90.8125,-23.3125,0
72670,-47.375,85.9375,-11.875,0
72690,-43.875,76.625,2.1875,0
72710,-36.5625,69,13.8125,0
72730,-30.125,65,25,0
72750,-21.3125,53.9375,28.6875,0
72770,-12.3125,42,31.25,0
72790,-8.75,38.1875,26.375,0
72810,-9.8125,40.0625,21.875,0
72830,-12.4375,40.125,29.875,0
72850,-12.5,32.6875,41.8125,0
72870,-9,24.1875,49.0625,0
72890,-5.5,23.1875,49.125,0
72910,-0.25,24,46.625,0
72930,2.125,14.5,50.1875,0
72950,-0.3125,6.875,56.875,0
72970,-11.0625,4.4375,57.5,0
72990,-13.9375,3.625,48.3125,0
73010,-8,0.3125,43.1875,0
73030,-6,-2.75,47.75,0
73050,-1,-3.4375,53.5625,0
73070,-8.6875,-2.875,48.25,0
73090,-15.6875,-6.0625,39.1875,0
73110,-12.5,-11.9375,39.5,0
73130,-1.25,-16.8125,41.6875,0
73150,2.25,-15.875,40.3125,0
73170,-1.25,-14.8125,38.625,0
73190,-6.75,-16.4375,37.1875,0
73210,-9.625,-20.5,36.6875,0
73230,-6.3125,-22.375,35.5625,0
73250,-1.625,-23.5,35.0625,0
73250,1.0625,-27.0625,36.6875,0
73270,-0.75,-31.5,35.6875,0
73290,-3.9375,-30.4375,30.25,0
73310,0.6875,-45.8125,28.0625,0
73330,4.5625,-47.9375,27.125,0
73350,-3.6875,-46.625,24.375,0
73370,7.6875,-51.8125,28.125,0
73400,8.25,-48.9375,21.0625,0
73430,5.5,-48.4375,13.25,0
73450,3.875,-50.6875,8.5625,0
73470,6.8125,-54.5625,8.3125,0
73490,7.5625,-58.875,9.9375,0
73490,1.5625,-64.125,14.3125,0
73510,9.625,-65,14.875,0
73530,4.625,-57.75,11.1875,0
73550,5.375,-67.625,10.75,0
73590,3.5625,-70.25,10,0
73610,-1.4375,-71.0625,9.3125,0
73630,0.3125,-72.9375,5.375,0
73650,2.25,-75.6875,2.6875,0
73670,2.3125,-78.25,2.1875,0
73690,3.6875,-77.6875,-0.4375,0
73710,5.375,-79.125,-8.5,0
73730,4.3125,-84.4375,-14.0625,0
73750,1.375,-85.625,-14.8125,0
73770,-0.6875,-81.125,-18.6875,0
73790,3,-76.5625,-28.6875,0
73810,5.75,-70.9375,-30.875,0
73830,2.25,-64.125,-28.5,0
73850,5.375,-56.75,-32.625,0
73870,4.375,-49.125,-38.625,0
73890,-4.125,-43.125,-38.875,0
73910,-10.8125,-37.3125,-38.5625,0
73930,-6.875,-34.3125,-44.625,0
73950,-10.5,-31.625,-45.5,0
73970,-10.25,-29.125,-48.3125,0
73990,-17.5625,-27,-50.8125,0
74010,-24.0625,-23.25,-54.125,0
74030,-28.8125,-23.625,-56,0
74050,-31.25,-16.75,-57.9375,0
74070,-33,-9,-64.9375,0
74090,-35.1875,-3.9375,-70.125,0
74110,-45.75,-0.25,-70.9375,0
74130,-45.6875,3.75,-75.8125,0
74150,-46.5,10.125,-77.6875,0
74170,-50.3125,16.75,-81.4375,0
74190,-50.4375,20.5625,-81.75,0
74210,-51.6875,26.5,-73.625,0
74230,-58.0625,29.6875,-73.4375,0
74250,-58,34.9375,-70.3125,0
74270,-59.3125,40.625,-64.3125,0
74290,-58.125,47.125,-54.9375,0
74310,-56.0625,55.0625,-45.6875,0
74330,-53.5625,65.25,-35.9375,0
74350,-46.75,74.9375,-29.125,0
74370,-39.8125,78.1875,-22.9375,0
74390,-33.875,79.9375,-14.0625,0
74410,-30.5,81.6875,-6.9375,0
74430,-27.75,84,-1.6875,0
74450,-25.9375,84.5,4.375,0
74470,-21.9375,84.5,16.75,0
74490,-18.6875,80.25,29.5625,0
74510,-14.5625,74.3125,38.5625,0
74530,-17.0625,70.8125,44.625,0
74550,-18.3125,66,52,0
74570,-15.875,65.25,61.4375,0
74590,-18.25,68.0625,67.75,0
74610,-20,66.5625,66.0625,0
74630,-23.0625,57.125,67,0
74650,-24.25,54.0625,72.375,0
74670,-26.25,50.6875,73.1875,0
74690,-23.0625,48.4375,73.125,0
74710,-18.6875,38.125,64.125,0
74730,-15.5625,34.5,52.1875,0
74750,-17.8125,33.875,56.75,0
74770,-20.375,28.4375,68.6875,0
74790,-28.125,19.3125,65.5625,0
74810,-32.125,5.6875,51.25,0
74830,-35.6875,-11.25,46.4375,0
74850,-30.5,-21.0625,44.9375,0
74870,-26.0625,-25,40.25,0
74890,-20.375,-29.5625,40.625,0
74910,-15.75,-32.8125,41.75,0
74930,-14.125,-35.875,35.5625,0
74950,-15.875,-40.4375,32.5,0
74970,-13.875,-41.375,31.4375,0
74990,-8.3125,-42,26.4375,0
75010,-3.4375,-45.1875,21.4375,0
75030,-1,-47.25,19.75,0
75050,-0.75,-46.75,19.125,0
75070,0.9375,-46.375,18.0625,0
75090,4.375,-50.1875,17.1875,0
75110,4.6875,-53.375,16.9375,0
75130,2.125,-55.4375,18.1875,0
75150,-2.25,-55.75,18.625,0
75170,-4.4375,-56.0625,19.75,0
75190,-6.4375,-58.75,21.9375,0
75200,-7.9375,-58.8125,21.875,0
75220,-7.8125,-55.5625,18.625,0
75240,-5.75,-57.5625,17.5,0
75260,-2.375,-61.9375,17.8125,0
75280,-5,-63.9375,16.875,0
75300,-7.3125,-60.625,12.75,0
75320,-4.6875,-57.75,7.6875,0
75340,-2,-59.5,5.625,0
75360,5.3125,-56.4375,-2.0625,0
75380,11.8125,-51.4375,-12.125,0
75400,17.6875,-51.0625,-15.5,0
75420,15.3125,-52.0625,-16.625,0
75440,14.4375,-48.8125,-20.25,0
75460,22.5,-45.4375,-28.3125,0
75480,26.8125,-48.5,-35.5,0
75500,23.375,-51.5625,-39.25,0
75520,16.625,-50.375,-40.75,0
75540,10.25,-48.125,-38.3125,0
75560,7.4375,-46.8125,-38.75,0
75580,7.8125,-46.125,-41.5625,0
75600,6.3125,-43.4375,-43.75,0
75620,6,-38.6875,-46.4375,0
75640,0.8125,-35.9375,-48.9375,0
75660,2.625,-32.5,-51.25,0
75680,4.375,-27.25,-55.75,0
75700,5.5,-19,-57.3125,0
75720,7.6875,-12.25,-58,0
75740,6.9375,-10.4375,-63.0625,0
75760,0.875,-8.375,-65.5625,0
75780,-6.25,0.375,-63,0
75800,-8.3125,7.8125,-56.25,0
75820,-5.0625,11.25,-55.0625,0
75840,-5.4375,10.9375,-62.6875,0
75860,-11.375,14.5625,-65.5625,0
75880,-18.5625,22,-63.875,0
75900,-19.25,28.0625,-63.9375,0
75920,-18.9375,30.9375,-65.25,0
75940,-15.875,29.875,-71.5,0
75960,-18.25,32.5,-75.4375,0
75980,-23.5625,36.875,-77.1875,0
76000,-25.6875,38.0625,-78.75,0
76020,-26.375,39.625,-78.1875,0
76040,-26.125,43.25,-74.6875,0
76060,-26.8125,47.1875,-70.25,0
76080,-27.0625,51.375,-66.4375,0
76100,-26.1875,54,-62.75,0
76120,-25.1875,56.5,-58.625,0
76140,-23.5,57.6875,-51.75,0
76160,-19.125,57.9375,-44.875,0
76180,-16.375,58.5625,-41.4375,0
76200,-13.25,61.25,-37.5,0
76220,-13.5,64.1875,-29.75,0
76240,-13.3125,66.9375,-21.0625,0
76260,-10.5,67.5,-13.25,0
76280,-7.125,66.3125,-7.25,0
76300,-4.6875,64.5625,0.875,0
76320,-4.25,64.1875,11.1875,0
76340,-4.75,62.125,19.875,0
76360,-7.375,60.3125,28.1875,0
76380,-7.5625,60.0625,36.8125,0
76400,-9.125,63,44.875,0
76420,-8.125,62.625,52.1875,0
76440,-4.9375,56.75,58.25,0
76460,-11.3125,53.25,63.875,0
76480,-20.5,53.75,69.875,0
76500,-32.5625,58.4375,74.9375,0
76520,-46.5,55.75,79.5625,0
76540,-48.4375,46.625,77.3125,0
76560,-49.25,33.625,70.375,0
76580,-48.5,27.3125,67.9375,0
76600,-49.9375,24.875,66.625,0
76620,-52.1875,20.3125,62.375,0
76640,-49.4375,17.75,56.6875,0
76660,-44.5625,12.375,54.25,0
76680,-39.9375,11.75,52.4375,0
76700,-37.6875,11,49.375,0
76720,-36.0625,8.25,47.625,0
76740,-35.75,5.75,48.6875,0
76760,-37.375,2.5625,44.4375,0
76780,-36.25,-0.8125,44.5625,0
76800,-31.75,-4.375,43.875,0
76820,-25.1875,-11.3125,39.875,0
76840,-20.1875,-16.5625,35.0625,0
76860,-21.0625,-18.375,30.625,0
76880,-23.3125,-23.0625,29.8125,0
76900,-26.5,-28.9375,28.6875,0
76920,-28.3125,-31.8125,26.125,0
76940,-24.375,-36.8125,24.25,0
76960,-21.375,-40.875,21.9375,0
76980,-25.125,-40.875,20.4375,0
77000,-34.0625,-42.375,20.0625,0
77020,-39.625,-45.5,20.4375,0
77040,-44.25,-48.5,21.375,0
77060,-48.4375,-50.4375,22.0625,0
77080,-50.625,-52.0625,19.3125,0
77100,-46.3125,-55.3125,15.5625,0
77120,-32.0625,-58.5625,9.75,0
77140,-16.75,-65.75,3.375,0
77160,-10.0625,-71.5,-0.75,0
77180,-13.8125,-77.0625,-2.9375,0
77200,-17.5,-82.9375,-5.8125,0
77220,-9.25,-89.625,-11.125,0
77240,7.875,-93.625,-21.8125,0
77260,26.1875,-97.0625,-31.5625,0
77280,36.4375,-97.8125,-38,0
77300,32.6875,-97.0625,-43.0625,0
77320,27.1875,-93.9375,-46.0625,0
77340,24.125,-90.8125,-48.5625,0
77360,25.25,-86.75,-50.5625,0
77380,22.625,-78.8125,-50.875,0
77400,18.375,-67.625,-50.5,0
77420,14.875,-53.125,-48,0
77440,23.5625,-41.625,-49.0625,0
77460,38.8125,-41,-56.5625,0
77480,40.9375,-46.75,-62.25,0
77500,31.6875,-41.1875,-56.25,0
77520,18.625,-29.25,-48.25,0
77540,9.1875,-26.6875,-43.125,0
77560,1.625,-32.9375,-53.125,0
77580,-2.1875,-32.6875,-61.25,0
77600,-1,-27.0625,-55.5,0
77620,4.4375,-23.75,-53,0
77640,8.875,-23.25,-54.375,0
77660,11.75,-22.3125,-59.125,0
77680,11.5625,-15.9375,-61.6875,0
77700,8.1875,-11.625,-57.1875,0
77720,5.1875,-13.125,-54.125,0
77740,6.0625,-9.5625,-54.125,0
77760,7.8125,-8,-54.25,0
77780,2.8125,-7.875,-49.4375,0
77800,-4.0625,-8.5625,-39.9375,0
77810,-6.8125,-5.8125,-30.5625,1001
77830,-4.0625,-2.875,-21.875,0
77850,-6,-1.875,-12.875,0
77870,-9.8125,-1.375,-3.75,0
77890,-10.9375,-5.9375,3.125,0
77910,-6.4375,-5.1875,6.4375,0
77930,-7.625,-2.9375,10.1875,0
77950,-5.5,-2.375,15.3125,0
77970,-6.9375,-3.5625,15,0
77990,-8.9375,-2.8125,11.9375,0
78010,-3.375,-3.5,9.875,0
78030,5.625,-2.125,6.3125,0
78050,8.375,0.1875,0.0625,0
78070,6.8125,2.625,-0.8125,0
78090,1.5625,0.875,2.625,0
78110,2.875,1.25,2.0625,0
78130,7.1875,1,3.75,0
78150,5.9375,6.1875,0.125,0
78170,5.125,11.6875,0.375,0
78190,7.75,14.25,6.625,0
78210,11.5,20,10.9375,0
78230,12.9375,23.25,20.75,0
78250,7.5625,26.4375,33.625,0
78270,1.4375,32.4375,44.3125,0
78290,4.6875,39.625,52.9375,0
78310,3.125,40.3125,61.5,0
78330,0.75,40.1875,73.625,0
78350,5.125,42.3125,89,0
78370,13.6875,49.8125,104.125,0
78390,12.1875,54.5625,109.438,0
78410,8.25,57.6875,108.688,0
78430,9.6875,63.125,117.375,0
78450,12,65.625,125,0
78470,20.375,68.75,117.25,0
78490,19.8125,68.0625,116.125,0
78510,8.25,66.3125,117.25,0
78530,4.875,62.3125,100.188,0
78550,11.4375,56.3125,73.75,0
78570,24.25,42.625,58.875,0
78590,32.1875,28.25,52.875,0
78610,32.125,20.625,47.6875,0
78630,24.25,17.625,38.875,0
78650,19.8125,13.4375,24.375,0
78660,20.375,5.8125,15.5,0
78670,24.125,-1.375,16.625,0
78690,21.4375,-2.9375,19.5,0
78710,13.875,-2.5625,17.125,0
78710,10.375,-2.9375,16.25,0
78730,9.4375,-3.25,17.75,0
78750,7.625,-1.625,17.0625,0
78770,5,-0.0625,14.25,0
78770,1.4375,1.6875,15.375,0
78790,5.4375,1.5625,17.6875,0
78790,9,0.625,13.8125,0
78810,6.3125,-1.125,11.75,0
78850,0.3125,2.875,16.1875,0
78870,-0.8125,-7,17,0
78890,5.875,3.5625,9.6875,0
78910,-2.1875,-8.4375,11.6875,0
78930,3.4375,-8.75,13.125,0
78950,7.8125,-7.25,10.375,0
78970,9.625,-8.3125,8.5625,0
79010,4.8125,-7.25,13.5625,0
79030,-2.875,-2.875,18,0
79050,-3.3125,1.5625,13.4375,0
79090,3.75,1.4375,7.6875,1000
79130,1.4375,-4.75,-1.75,0
79150,6.6875,-8.75,-13.3125,0
79170,7.5,-17.625,-8.25,0
79190,11.75,-10.5,-9.1875,0
79210,1.875,-26.375,-12.375,0
79230,-3.3125,-30,-11.875,0
79250,-0.9375,-32.625,-13.9375,0
79270,6.125,-36.8125,-21.0625,0
79290,9.6875,-41.125,-26.125,0
79310,9.75,-42.0625,-26.5625,0
79330,7.8125,-42.5625,-29.5625,0
79350,7.25,-42.875,-37.125,0
79370,6.1875,-47.5,-43.25,0
79390,4.25,-52.25,-45.9375,0
79410,-0.9375,-56.75,-51.25,0
79430,-6.25,-57.1875,-58.375,0
79450,-12.125,-53.8125,-61,0
79470,-15.75,-48.375,-70.5625,0
79490,-21.625,-38.875,-69,0
79510,-24.0625,-33.5,-71.5,0
79530,-18.5625,-25.9375,-73.875,0
79550,-15.6875,-17.0625,-71.875,0
79570,-13.9375,-6.875,-72.5,0
79590,-19.8125,4.4375,-69.1875,0
79610,-19.5625,17,-69.625,0
79630,-20.8125,31.625,-72.8125,0
79650,-27.8125,44.4375,-69.9375,0
79670,-33.625,56.4375,-73.25,0
79690,-34.125,70.375,-72.25,0
79710,-31.25,83.6875,-70.8125,0
79730,-30.4375,95.5625,-69.25,0
79750,-29.5,105.125,-68.625,0
79770,-28.25,111.938,-67.75,0
79790,-29.6875,116.625,-65.5625,0
79810,-27.8125,116.25,-62.4375,0
79830,-23,108.188,-53.75,0
79850,-17.1875,99.3125,-43.0625,0
79870,-14.9375,92.875,-32.125,0
79890,-16.25,91.25,-19.375,0
79910,-19.0625,92.375,-10.375,0
79930,-15.75,89.5,1,0
79950,-11.8125,86.5,15.375,0
79970,-8.0625,79.1875,23.6875,0
79990,0.125,69.9375,25.625,0
80010,5.8125,64.8125,28.0625,0
80030,9.625,63.5,33.4375,0
80050,6.4375,66.0625,36.75,0
80070,-0.0625,60.625,37.4375,0
80090,7,50.9375,36.25,0
80110,13.1875,45.4375,41.75,0
80130,18.25,41.125,43,0
80150,19.25,34.4375,48.375,0
80170,10.8125,30.4375,51.5,0
80190,-9.9375,28.8125,48.0625,0
80210,-17.8125,18.9375,46.1875,0
80230,-10.3125,7.75,49.875,0
80250,-7.0625,3.625,51.75,0
80270,-10.8125,1.5,49.3125,0
80290,-11,-4,43.8125,0
80310,-4.3125,-12.5625,38.9375,0
80330,7,-17.5,36.8125,0
80350,13.1875,-18.5,37.125,0
80370,5.8125,-20.6875,34.9375,0
80390,-1.1875,-23.4375,34.8125,0
80410,-4.25,-27.125,37.8125,0
80420,-1.0625,-28.9375,41.3125,0
80440,1,-29.25,42.3125,0
80450,-2.25,-29,43.75,0
80470,-5.0625,-29.5,46.1875,0
80490,-7.5,-27.6875,49.25,0
80510,-0.8125,-37.875,49.5625,0
80530,-0.125,-37.625,49.3125,0
80550,-17.875,-37.9375,46.25,0
80580,-10.5625,-48.5,55.0625,0
80600,-15.25,-36.4375,49.8125,0
80620,-11.5,-56.9375,46.5625,0
80640,-10.6875,-60.125,43.5,0
80660,-9.25,-63.3125,39.4375,0
80680,-8.875,-63.5,37.375,0
80700,-7.875,-65.25,38.5,0
80720,-8.1875,-67.0625,37.4375,0
80740,-9.8125,-67.6875,32.5625,0
80760,-10,-70.875,28.25,0
80780,-10,-74.3125,25.6875,0
80800,-9.875,-73.0625,17.125,0
80820,-5.125,-73.875,5.25,0
80840,4.125,-76.1875,-6.8125,0
80860,8,-79.1875,-16.1875,0
80870,5.625,-81.5,-19.3125,0
80890,4.375,-81.4375,-21.625,0
80910,5.75,-79.75,-28.5625,0
80910,6.1875,-78.875,-32.9375,0
80930,5.1875,-75.125,-31.5625,0
80970,-0.75,-74.625,-34.5625,0
81000,-7.1875,-72.9375,-45.1875,0
81020,-11.8125,-68.6875,-51.0625,0
81040,-11.6875,-63.125,-55,0
81060,-16.375,-56.875,-63.4375,0
81080,-17.5,-55.3125,-68.4375,0
81100,-21.4375,-49.25,-70.25,0
81120,-26.6875,-49.8125,-78.0625,0
81140,-27.125,-52.375,-85.875,0
81160,-29,-46.4375,-84.5,0
81180,-37,-31.5625,-80.75,0
81200,-38.125,-26.75,-83.3125,0
81220,-34.0625,-24.9375,-84.875,0
81240,-30.8125,-18.1875,-81.375,0
81260,-35.9375,-7.5625,-78.5625,0
81280,-38.125,5.5625,-78.1875,0
81300,-34.6875,11.5,-80.125,0
81320,-30.375,15.1875,-80.125,0
81340,-26.875,21.5,-76.9375,0
81360,-26.75,32.75,-71,0
81380,-25.25,42.875,-68.625,0
81400,-23.6875,49.1875,-64,0
81420,-20.25,56.125,-58.1875,0
81440,-14.6875,59.125,-54.5625,0
81460,-8.875,60.6875,-51.8125,0
81480,-7.75,66.0625,-46.1875,0
81500,-12.5,74.25,-39.75,0
81520,-14.125,77.25,-33.8125,0
81540,-6.75,74,-28.6875,0
81560,-1.25,74.125,-23.3125,0
81580,0.75,76.8125,-15.1875,0
81600,1.125,76.9375,-3.125,0
81620,1.1875,74.1875,7.9375,0
81640,-0.875,70.75,11.1875,0
81660,1.1875,67.5,17.3125,0
81680,1.4375,64.25,29.5625,0
81700,1.875,69.3125,43.625,0
81720,-3.25,67.625,48.3125,0
81740,-5.9375,56.875,49.6875,0
81760,-8.9375,52.0625,57,0
81780,-7.0625,51.8125,66.6875,0
81800,-4.125,44.4375,69.375,0
81820,-9.4375,40.8125,64,0
