Timestamp, Angle x, Angle y, Angle z, Marker
30,-1.14545,0.450885,-0.292168,0
50,-1.14593,0.450186,-0.292022,0
70,-1.14713,0.450457,-0.291843,0
90,-1.1487,0.451174,-0.291931,0
110,-1.1503,0.45216,-0.29235,0
130,-1.15079,0.452637,-0.292546,0
150,-1.15048,0.453144,-0.292484,0
150,-1.14914,0.453501,-0.292152,0
190,-1.14811,0.453229,-0.292363,0
210,-1.14705,0.45245,-0.292568,0
230,-1.14655,0.451592,-0.292719,0
250,-1.14665,0.451246,-0.29234,0
270,-1.14714,0.451332,-0.291962,0
290,-1.14793,0.451751,-0.291766,0
310,-1.14917,0.4521,-0.291674,0
330,-1.1502,0.452633,-0.291599,0
350,-1.15117,0.453075,-0.291897,0
370,-1.1511,0.452963,-0.291812,0
390,-1.15019,0.452722,-0.29195,0
410,-1.14851,0.452184,-0.291802,0
430,-1.14656,0.451838,-0.291107,0
450,-1.14557,0.451912,-0.290251,0
470,-1.14549,0.452315,-0.289606,0
490,-1.14682,0.452813,-0.289598,0
510,-1.14859,0.453137,-0.289802,0
530,-1.15058,0.453539,-0.290127,0
550,-1.15194,0.453903,-0.290337,0
570,-1.15177,0.453903,-0.290302,0
590,-1.15055,0.453395,-0.290149,0
610,-1.14894,0.452878,-0.289735,0
630,-1.14737,0.452438,-0.289407,0
650,-1.14669,0.451906,-0.289552,0
670,-1.14647,0.451447,-0.289778,0
690,-1.14698,0.451085,-0.289853,0
710,-1.14771,0.450813,-0.289588,0
730,-1.14831,0.451068,-0.288923,0
750,-1.14882,0.451749,-0.288072,0
770,-1.14907,0.452455,-0.287716,0
790,-1.14885,0.453128,-0.287366,0
810,-1.14882,0.453564,-0.287372,0
830,-1.14854,0.453656,-0.287761,0
850,-1.14838,0.453206,-0.288179,0
870,-1.14855,0.452735,-0.288207,0
890,-1.14895,0.452656,-0.288118,0
910,-1.14933,0.452541,-0.288029,0
930,-1.14933,0.452541,-0.288029,0
950,-1.14838,0.452412,-0.287494,0
970,-1.14721,0.452362,-0.287083,0
990,-1.14647,0.452332,-0.287127,0
1010,-1.14561,0.451866,-0.28713,0
1030,-1.14491,0.451612,-0.287039,0
1050,-1.14419,0.451492,-0.286732,0
1070,-1.14401,0.451559,-0.286591,0
1090,-1.14399,0.452074,-0.28603,0
1110,-1.14431,0.452632,-0.285622,0
1130,-1.14517,0.452865,-0.285291,0
1150,-1.14576,0.452931,-0.285213,0
1170,-1.1457,0.452347,-0.285124,0
1190,-1.14528,0.451811,-0.285231,0
1210,-1.14473,0.450839,-0.2853,0
1230,-1.14396,0.45026,-0.285255,0
1250,-1.14396,0.45026,-0.285255,0
1270,-1.14396,0.45026,-0.285255,0
1290,-1.14435,0.450271,-0.285515,0
1310,-1.14456,0.450348,-0.285634,0
1330,-1.14439,0.450348,-0.2856,0
1350,-1.14388,0.450686,-0.285067,0
1370,-1.14308,0.450992,-0.284573,0
1390,-1.14226,0.451364,-0.283971,0
1410,-1.14195,0.451779,-0.283556,0
1430,-1.14178,0.451779,-0.283522,0
1450,-1.1427,0.452124,-0.283274,0
1470,-1.14399,0.452657,-0.283157,0
1490,-1.14523,0.453203,-0.283306,0
1510,-1.14551,0.453605,-0.28338,0
1530,-1.14537,0.45364,-0.283345,0
1550,-1.14514,0.453527,-0.283227,0
1570,-1.14514,0.453527,-0.283227,0
1580,-1.14498,0.453629,-0.283084,0
1600,-1.1449,0.453695,-0.2837,0
1620,-1.14419,0.45353,-0.283958,0
1640,-1.14426,0.453642,-0.284042,0
1660,-1.14404,0.453632,-0.283816,0
1680,-1.14475,0.454031,-0.283885,0
1700,-1.14584,0.454509,-0.284109,0
1720,-1.14663,0.454742,-0.284502,0
1740,-1.14729,0.454943,-0.284968,0
1760,-1.14754,0.454818,-0.28541,0
1780,-1.14736,0.454885,-0.285269,0
1800,-1.14678,0.45464,-0.284645,0
1820,-1.14593,0.454635,-0.283736,0
1840,-1.14515,0.454591,-0.282755,0
1860,-1.14488,0.454783,-0.282205,0
1880,-1.14488,0.454783,-0.282205,0
1900,-1.1455,0.455016,-0.282564,0
1920,-1.14634,0.454958,-0.282929,0
1940,-1.14723,0.45508,-0.283272,0
1960,-1.14768,0.455312,-0.283597,0
1980,-1.14788,0.455479,-0.284067,0
2000,-1.14774,0.455514,-0.284032,0
2020,-1.14772,0.455581,-0.283924,0
2040,-1.147,0.45546,-0.283616,0
2060,-1.1462,0.455015,-0.283352,0
2080,-1.14559,0.454333,-0.283447,0
2100,-1.14531,0.453357,-0.283477,0
2120,-1.14578,0.45292,-0.283467,0
2140,-1.14651,0.452951,-0.283425,0
2160,-1.14711,0.453422,-0.28346,0
2180,-1.14712,0.454105,-0.283335,0
2200,-1.1467,0.454722,-0.283321,0
2220,-1.14581,0.455004,-0.283091,0
2240,-1.14478,0.45511,-0.282955,0
2260,-1.14406,0.455011,-0.283105,0
2280,-1.14332,0.454575,-0.283036,0
2300,-1.14307,0.453846,-0.282936,0
2320,-1.14303,0.453577,-0.282609,0
2340,-1.14379,0.453923,-0.282328,0
2360,-1.14507,0.454245,-0.282343,0
2380,-1.14646,0.454758,-0.282529,0
2400,-1.14709,0.454901,-0.282537,0
2420,-1.14709,0.454901,-0.282537,0
2440,-1.14625,0.45468,-0.282409,0
2460,-1.14516,0.454031,-0.282401,0
2480,-1.14445,0.45363,-0.282331,0
2500,-1.14445,0.45363,-0.282331,0
2520,-1.14507,0.453752,-0.281881,0
2540,-1.14636,0.454457,-0.281551,0
2560,-1.14771,0.455173,-0.281415,0
2580,-1.14838,0.455777,-0.281164,0
2600,-1.14859,0.456067,-0.281155,0
2620,-1.14862,0.456103,-0.281154,0
2640,-1.14803,0.455755,-0.281467,0
2660,-1.14726,0.455092,-0.281984,0
2680,-1.14612,0.454455,-0.28224,0
2700,-1.14484,0.453853,-0.282462,0
2720,-1.1439,0.453532,-0.282515,0
2740,-1.14368,0.453352,-0.282505,0
2760,-1.1446,0.453317,-0.282603,0
2780,-1.14583,0.453459,-0.282641,0
2800,-1.14684,0.453511,-0.283018,0
2820,-1.14684,0.453511,-0.283018,0
2840,-1.14602,0.453222,-0.282999,0
2860,-1.14454,0.452925,-0.282757,0
2880,-1.14318,0.452939,-0.282205,0
2900,-1.14301,0.452939,-0.282171,0
2920,-1.14364,0.453275,-0.282419,0
2940,-1.14465,0.453496,-0.28258,0
2960,-1.14575,0.453436,-0.282907,0
2980,-1.14665,0.45377,-0.283119,0
3000,-1.14743,0.454071,-0.283404,0
3020,-1.14743,0.454071,-0.283404,0
3040,-1.14726,0.45407,-0.28337,0
3060,-1.1465,0.453872,-0.282976,0
3080,-1.14612,0.453582,-0.282953,0
3100,-1.14612,0.453582,-0.282953,0
3120,-1.14674,0.453343,-0.283306,0
3140,-1.14753,0.453105,-0.283694,0
3160,-1.14807,0.452992,-0.283639,0
3180,-1.14823,0.453272,-0.283436,0
3200,-1.14841,0.453485,-0.283341,0
3220,-1.14841,0.453485,-0.283341,0
3240,-1.14792,0.453778,-0.283372,0
3260,-1.14748,0.453779,-0.283376,0
3280,-1.14706,0.453713,-0.283487,0
3300,-1.14673,0.453433,-0.283656,0
3320,-1.14636,0.453075,-0.28374,0
3340,-1.14634,0.453143,-0.283633,0
3360,-1.14685,0.453253,-0.283713,0
3380,-1.14757,0.453374,-0.284021,0
3400,-1.14757,0.453374,-0.284021,0
3420,-1.14693,0.453298,-0.283905,0
3440,-1.14676,0.453298,-0.283871,0
3460,-1.14676,0.453298,-0.283871,0
3480,-1.1467,0.453207,-0.284244,0
3500,-1.14672,0.453243,-0.284244,0
3520,-1.14666,0.45313,-0.284159,0
3540,-1.14666,0.45313,-0.284159,0
3550,-1.14665,0.453409,-0.283922,0
3570,-1.14725,0.453688,-0.283715,0
3590,-1.14775,0.45427,-0.283801,0
3610,-1.14806,0.454536,-0.284091,0
3630,-1.14808,0.454572,-0.28409,0
3650,-1.1478,0.454471,-0.284236,0
3670,-1.14763,0.454471,-0.284202,0
3690,-1.14763,0.454471,-0.284202,0
3710,-1.14763,0.454471,-0.284202,0
3730,-1.1476,0.454394,-0.284116,0
3750,-1.14743,0.454393,-0.284082,0
3770,-1.14739,0.454316,-0.283997,0
3790,-1.14664,0.454352,-0.283931,0
3810,-1.14658,0.45424,-0.283847,0
3830,-1.14641,0.454239,-0.283813,0
3850,-1.14641,0.454239,-0.283813,0
3870,-1.14641,0.454239,-0.283813,0
3890,-1.14641,0.454239,-0.283813,0
3910,-1.14644,0.454275,-0.283812,0
3930,-1.14627,0.454274,-0.283778,0
3950,-1.14548,0.454041,-0.283385,0
3970,-1.14441,0.453877,-0.282923,0
3990,-1.14386,0.453756,-0.28265,0
4010,-1.14386,0.453756,-0.28265,0
4030,-1.14369,0.453756,-0.282616,0
4050,-1.14413,0.453754,-0.282612,0
4070,-1.14449,0.454111,-0.282528,0
4090,-1.14485,0.454728,-0.282578,0
4110,-1.14492,0.455053,-0.282532,0
4130,-1.14477,0.454985,-0.282606,0
4150,-1.14479,0.45502,-0.282605,0
4170,-1.14473,0.454908,-0.282521,0
4190,-1.14454,0.454974,-0.282379,0
4210,-1.14454,0.454974,-0.282379,0
4230,-1.14393,0.454741,-0.282021,0
4250,-1.14327,0.45471,-0.281339,0
4270,-1.143,0.454901,-0.280789,0
4290,-1.143,0.454901,-0.280789,0
4310,-1.143,0.454901,-0.280789,0
4330,-1.143,0.454901,-0.280789,0
4350,-1.14277,0.454788,-0.280671,0
4370,-1.14214,0.454644,-0.280663,0
4390,-1.14129,0.454489,-0.280429,0
4410,-1.14124,0.45431,-0.280452,0
4430,-1.14124,0.45431,-0.280452,0
4450,-1.14127,0.454345,-0.280451,0
4470,-1.14167,0.454375,-0.28034,0
4490,-1.14232,0.454555,-0.280347,0
4510,-1.14264,0.454733,-0.280286,0
4530,-1.14264,0.455114,-0.279939,0
4550,-1.14265,0.455496,-0.279593,0
4570,-1.14257,0.456134,-0.279274,0
4590,-1.14257,0.456134,-0.279274,0
4610,-1.14257,0.456134,-0.279274,0
4630,-1.14243,0.456169,-0.279239,0
4650,-1.14166,0.455866,-0.278954,0
4670,-1.14166,0.455866,-0.278954,0
4690,-1.14149,0.455865,-0.27892,0
4710,-1.14149,0.455865,-0.27892,0
4730,-1.1415,0.455798,-0.279028,0
4750,-1.14153,0.455834,-0.279027,0
4770,-1.14152,0.455901,-0.278919,0
4790,-1.1413,0.45572,-0.278908,0
4810,-1.1413,0.45572,-0.278908,0
4830,-1.14131,0.455823,-0.2788,0
4850,-1.14114,0.455822,-0.278765,0
4870,-1.14114,0.455822,-0.278765,0
4890,-1.14097,0.455821,-0.278731,0
4910,-1.141,0.455857,-0.27873,0
4930,-1.14012,0.455454,-0.278627,0
4950,-1.13869,0.454972,-0.278337,0
4970,-1.13751,0.454797,-0.278407,0
4990,-1.13629,0.454587,-0.278478,0
5010,-1.13516,0.454423,-0.278742,0
5030,-1.13405,0.454102,-0.278764,0
5050,-1.133,0.4537,-0.27863,0
5070,-1.13216,0.453545,-0.278398,0
5090,-1.13158,0.453388,-0.278128,0
5110,-1.13141,0.453387,-0.278094,0
5130,-1.13143,0.453489,-0.277985,0
5150,-1.13143,0.453489,-0.277985,0
5170,-1.13126,0.453489,-0.277951,0
5190,-1.13126,0.453489,-0.277951,0
5210,-1.13126,0.453489,-0.277951,0
5230,-1.13112,0.453523,-0.277916,0
5250,-1.13112,0.453523,-0.277916,0
5270,-1.13112,0.453523,-0.277916,0
5290,-1.13098,0.453558,-0.277882,0
5310,-1.13091,0.453445,-0.277798,0
5330,-1.13074,0.453444,-0.277764,0
5350,-1.13074,0.453444,-0.277764,0
5370,-1.12973,0.453078,-0.277631,0
5390,-1.12883,0.452642,-0.277534,0
5410,-1.12879,0.452564,-0.27745,0
5430,-1.12862,0.452564,-0.277416,0
5450,-1.12865,0.452599,-0.277416,0
5470,-1.12842,0.452485,-0.277298,0
5490,-1.12769,0.452623,-0.277126,0
5510,-1.12752,0.452622,-0.277092,0
5530,-1.12752,0.452622,-0.277092,0
5550,-1.12737,0.452723,-0.276949,0
5570,-1.12732,0.452544,-0.276974,0
5590,-1.12713,0.45261,-0.276832,0
5610,-1.12676,0.452514,-0.277054,0
5630,-1.12653,0.4524,-0.276937,0
5650,-1.12653,0.4524,-0.276937,0
5670,-1.12639,0.452435,-0.276902,0
5690,-1.12639,0.452435,-0.276902,0
5710,-1.12632,0.452322,-0.276819,0
5730,-1.12616,0.452321,-0.276785,0
5750,-1.12618,0.452356,-0.276784,0
5770,-1.12618,0.452356,-0.276784,0
5790,-1.12602,0.452356,-0.27675,0
5810,-1.12602,0.452356,-0.27675,0
5830,-1.12595,0.452243,-0.276667,0
5850,-1.12598,0.452278,-0.276667,0
5870,-1.12581,0.452277,-0.276633,0
5890,-1.12581,0.452277,-0.276633,0
5910,-1.12581,0.452277,-0.276633,0
5930,-1.12578,0.4522,-0.276549,0
5950,-1.12561,0.452199,-0.276515,0
5970,-1.12561,0.452199,-0.276515,0
5990,-1.12547,0.452233,-0.276481,0
6010,-1.12481,0.452122,-0.276369,0
6030,-1.12415,0.452112,-0.276149,0
6050,-1.1232,0.451968,-0.276078,0
6070,-1.12261,0.452071,-0.275941,0
6090,-1.12261,0.452071,-0.275941,0
6110,-1.12247,0.452105,-0.275906,0
6130,-1.12259,0.452137,-0.275832,0
6150,-1.12282,0.452056,-0.275709,0
6170,-1.12301,0.452201,-0.275718,0
6190,-1.12304,0.452236,-0.275718,0
6210,-1.12287,0.452236,-0.275684,0
6230,-1.12286,0.452302,-0.275575,0
6250,-1.12286,0.452302,-0.275575,0
6270,-1.12265,0.452223,-0.275458,0
6290,-1.12265,0.452223,-0.275458,0
6310,-1.12267,0.452157,-0.275566,0
6330,-1.1225,0.452156,-0.275532,0
6350,-1.12247,0.452078,-0.275449,0
6370,-1.12247,0.452078,-0.275449,0
6390,-1.12247,0.452078,-0.275449,0
6410,-1.12224,0.451965,-0.275332,0
6430,-1.12226,0.452,-0.275332,0
6450,-1.12226,0.452,-0.275332,0
6470,-1.1221,0.451999,-0.275298,0
6490,-1.1221,0.451999,-0.275298,0
6510,-1.12206,0.451921,-0.275214,0
6530,-1.12189,0.45192,-0.275181,0
6550,-1.12189,0.45192,-0.275181,0
6570,-1.12175,0.451955,-0.275146,0
6590,-1.12175,0.451955,-0.275146,0
6610,-1.12169,0.451842,-0.275063,0
6630,-1.12152,0.451841,-0.27503,0
6650,-1.12155,0.451876,-0.275029,0
6670,-1.12138,0.451876,-0.274995,0
6690,-1.12138,0.451876,-0.274995,0
6710,-1.12138,0.451876,-0.274995,0
6730,-1.12141,0.451911,-0.274994,0
6750,-1.12124,0.45191,-0.274961,0
6770,-1.12101,0.451796,-0.274844,0
6790,-1.12099,0.45203,-0.274518,0
6810,-1.12127,0.452128,-0.274369,0
6830,-1.12138,0.452226,-0.274186,0
6850,-1.12155,0.452437,-0.274087,0
6870,-1.12135,0.452358,-0.273969,0
6890,-1.12135,0.452358,-0.273969,0
6910,-1.12042,0.452055,-0.273659,0
6930,-1.12045,0.45209,-0.273658,0
6950,-1.12028,0.452089,-0.273624,0
6970,-1.11951,0.451879,-0.273696,0
6990,-1.11892,0.451799,-0.27415,0
7000,-1.118,0.451524,-0.274298,0
7020,-1.11726,0.451155,-0.274131,0
7040,-1.11712,0.451189,-0.274097,0
7060,-1.11712,0.451189,-0.274097,0
7080,-1.11739,0.451287,-0.273947,0
7100,-1.11753,0.45163,-0.27363,0
7120,-1.11749,0.451828,-0.273303,0
7140,-1.11749,0.451828,-0.273303,0
7160,-1.1173,0.451893,-0.273161,0
7180,-1.11732,0.451827,-0.27327,0
7200,-1.11716,0.451927,-0.273127,0
7220,-1.11716,0.451927,-0.273127,0
7240,-1.117,0.451926,-0.273093,0
7260,-1.11696,0.451848,-0.27301,0
7280,-1.11679,0.451848,-0.272976,0
7300,-1.11679,0.451848,-0.272976,0
7320,-1.11666,0.451882,-0.272941,0
7340,-1.11666,0.451882,-0.272941,0
7360,-1.11666,0.451882,-0.272941,0
7380,-1.11659,0.451769,-0.272859,0
7400,-1.11645,0.451803,-0.272825,0
7420,-1.11645,0.451803,-0.272825,0
7440,-1.11629,0.451802,-0.272791,0
7460,-1.11631,0.451837,-0.27279,0
7480,-1.11608,0.451723,-0.272674,0
7500,-1.11608,0.451723,-0.272674,0
7520,-1.11601,0.451871,-0.272722,0
7540,-1.11599,0.451937,-0.272613,0
7560,-1.11582,0.451936,-0.272579,0
7580,-1.11576,0.451823,-0.272497,0
7600,-1.11562,0.451857,-0.272463,0
7620,-1.11562,0.451857,-0.272463,0
7640,-1.11565,0.451892,-0.272462,0
7660,-1.11542,0.451778,-0.272346,0
7680,-1.11542,0.451778,-0.272346,0
7700,-1.11528,0.451813,-0.272312,0
7720,-1.11511,0.451812,-0.272278,0
7740,-1.11505,0.451699,-0.272196,0
7760,-1.11508,0.451734,-0.272195,0
7780,-1.11491,0.451733,-0.272161,0
7800,-1.11491,0.451733,-0.272161,0
7820,-1.11474,0.451732,-0.272127,0
7840,-1.11477,0.451767,-0.272127,0
7860,-1.11454,0.451653,-0.272011,0
7880,-1.11457,0.451688,-0.27201,0
7900,-1.11457,0.451688,-0.27201,0
7920,-1.11434,0.451574,-0.271894,0
7940,-1.11437,0.451609,-0.271893,0
7960,-1.1142,0.451608,-0.27186,0
7980,-1.1142,0.451608,-0.27186,0
8000,-1.11406,0.451643,-0.271825,0
8020,-1.11389,0.451642,-0.271792,0
8040,-1.11389,0.451642,-0.271792,0
8060,-1.11386,0.451564,-0.271709,0
8080,-1.11369,0.451563,-0.271675,0
8100,-1.11369,0.451563,-0.271675,0
8120,-1.11352,0.451562,-0.271641,0
8140,-1.11355,0.451597,-0.271641,0
8160,-1.11346,0.451615,-0.271341,0
8180,-1.11381,0.451761,-0.271382,0
8200,-1.11398,0.451972,-0.271281,0
8220,-1.11409,0.452069,-0.271098,0
8240,-1.11418,0.452022,-0.270941,0
8260,-1.11418,0.452022,-0.270941,0
8280,-1.11418,0.452022,-0.270941,0
8300,-1.11401,0.452021,-0.270907,0
8320,-1.11398,0.451943,-0.270824,0
8340,-1.11381,0.451942,-0.27079,0
8360,-1.11381,0.451942,-0.27079,0
8380,-1.11381,0.451942,-0.27079,0
8400,-1.11361,0.451863,-0.270674,0
8420,-1.11361,0.451863,-0.270674,0
8440,-1.11361,0.451863,-0.270674,0
8460,-1.11344,0.451862,-0.27064,0
8480,-1.11347,0.451897,-0.270639,0
8500,-1.11341,0.451784,-0.270557,0
8520,-1.11341,0.451784,-0.270557,0
8540,-1.11324,0.451783,-0.270523,0
8560,-1.11324,0.451783,-0.270523,0
8580,-1.11327,0.451818,-0.270523,0
8600,-1.1131,0.451817,-0.270489,0
8620,-1.1131,0.451817,-0.270489,0
8640,-1.1131,0.451817,-0.270489,0
8660,-1.1129,0.451738,-0.270373,0
8680,-1.1129,0.451738,-0.270373,0
8700,-1.1129,0.451738,-0.270373,0
8720,-1.11273,0.451737,-0.270339,0
8740,-1.11276,0.451772,-0.270338,0
8760,-1.11259,0.451771,-0.270304,0
8780,-1.11259,0.451771,-0.270304,0
8800,-1.11239,0.451692,-0.270188,0
8820,-1.11238,0.451758,-0.270079,0
8840,-1.11221,0.451757,-0.270045,0
8860,-1.11224,0.451792,-0.270045,0
8880,-1.11207,0.451791,-0.270011,0
8900,-1.11202,0.451779,-0.269819,0
8920,-1.11196,0.451875,-0.269602,0
8940,-1.11196,0.451875,-0.269602,0
8960,-1.11196,0.451875,-0.269602,0
8980,-1.11182,0.451909,-0.269568,0
8990,-1.11182,0.451909,-0.269568,0
9010,-1.11168,0.451943,-0.269533,0
9030,-1.11162,0.45183,-0.269451,0
9050,-1.11162,0.45183,-0.269451,0
9070,-1.11145,0.451829,-0.269418,0
9090,-1.11142,0.45175,-0.269335,0
9110,-1.11142,0.45175,-0.269335,0
9130,-1.11142,0.45175,-0.269335,0
9150,-1.11125,0.45175,-0.269301,0
9170,-1.11125,0.45175,-0.269301,0
9190,-1.11122,0.451671,-0.269219,0
9210,-1.11105,0.45167,-0.269185,0
9230,-1.11105,0.45167,-0.269185,0
9250,-1.11091,0.451705,-0.26915,0
9270,-1.11091,0.451705,-0.26915,0
9290,-1.11097,0.451623,-0.268994,0
9310,-1.111,0.451657,-0.268993,0
9330,-1.11099,0.451723,-0.268884,0
9350,-1.11082,0.451722,-0.268851,0
9370,-1.11082,0.451722,-0.268851,0
9390,-1.11068,0.451756,-0.268816,0
9410,-1.11062,0.451643,-0.268734,0
9430,-1.11062,0.451643,-0.268734,0
9450,-1.11062,0.451643,-0.268734,0
9470,-1.10991,0.451488,-0.267977,0
9490,-1.10921,0.451208,-0.266415,0
9510,-1.10941,0.451105,-0.264814,0
9530,-1.10967,0.450806,-0.26354,0
9550,-1.10895,0.449391,-0.262396,0
9570,-1.10692,0.446459,-0.260199,0
9590,-1.10395,0.44205,-0.258135,0
9610,-1.10364,0.436921,-0.256662,0
9630,-1.10672,0.430499,-0.255557,0
9650,-1.11113,0.423239,-0.255138,0
9670,-1.11477,0.414371,-0.255896,0
9690,-1.11692,0.402297,-0.25739,0
9710,-1.11896,0.386156,-0.260416,0
9730,-1.11995,0.368212,-0.262711,0
9750,-1.12066,0.348689,-0.263468,0
9770,-1.12061,0.325679,-0.264134,0
9790,-1.11988,0.299968,-0.266238,0
9810,-1.11964,0.272194,-0.270074,0
9830,-1.11979,0.243999,-0.274179,0
9850,-1.11993,0.215752,-0.276809,0
9870,-1.12131,0.187383,-0.277434,0
9890,-1.1243,0.159728,-0.276023,0
9910,-1.12876,0.133665,-0.273044,0
9930,-1.1347,0.108268,-0.268128,0
9950,-1.1405,0.0851777,-0.262358,0
9970,-1.14633,0.0642366,-0.255078,0
9990,-1.15166,0.0448095,-0.246261,0
10010,-1.1552,0.0260034,-0.237715,0
10030,-1.15711,0.00926577,-0.228858,0
10050,-1.15793,-0.00563905,-0.219178,0
10070,-1.1589,-0.0192534,-0.20843,0
10090,-1.15974,-0.0322807,-0.197753,0
10110,-1.16092,-0.0444279,-0.18751,0
10130,-1.16268,-0.0554182,-0.177432,0
10150,-1.16391,-0.0661002,-0.167227,0
10170,-1.1643,-0.0766653,-0.157212,0
10190,-1.16326,-0.0868421,-0.148611,0
10210,-1.16223,-0.0969228,-0.140092,0
10230,-1.16285,-0.105995,-0.132239,0
10250,-1.16418,-0.114662,-0.125226,0
10270,-1.16704,-0.122831,-0.119653,0
10290,-1.17111,-0.130952,-0.11581,0
10310,-1.17551,-0.138913,-0.113208,0
10330,-1.1808,-0.14604,-0.112271,0
10350,-1.18697,-0.152449,-0.112942,0
10370,-1.19172,-0.159144,-0.115506,0
10390,-1.19695,-0.165311,-0.118258,0
10410,-1.20172,-0.17035,-0.12133,0
10430,-1.20533,-0.174241,-0.124195,0
10450,-1.20775,-0.178612,-0.127081,0
10470,-1.21029,-0.183139,-0.130139,0
10490,-1.21298,-0.187959,-0.133137,0
10510,-1.2157,-0.192951,-0.135712,0
10530,-1.21982,-0.197864,-0.137665,0
10550,-1.22351,-0.202274,-0.139385,0
10560,-1.22687,-0.206355,-0.141951,0
10580,-1.22919,-0.210313,-0.143892,0
10600,-1.2299,-0.213959,-0.145086,0
10620,-1.22954,-0.217285,-0.146256,0
10640,-1.2281,-0.220629,-0.147462,0
10660,-1.22667,-0.224122,-0.148899,0
10680,-1.22509,-0.227087,-0.15026,0
10700,-1.22259,-0.229265,-0.151777,0
10720,-1.21931,-0.231379,-0.153381,0
10740,-1.21539,-0.232807,-0.155655,0
10760,-1.2109,-0.233114,-0.157545,0
10780,-1.20733,-0.23356,-0.159441,0
10800,-1.20373,-0.233547,-0.161317,0
10820,-1.20046,-0.232941,-0.163136,0
10840,-1.19811,-0.23169,-0.164891,0
10860,-1.19559,-0.230184,-0.166958,0
10880,-1.19242,-0.228666,-0.169812,0
10900,-1.18957,-0.226864,-0.172835,0
10920,-1.18658,-0.224667,-0.175972,0
10940,-1.18267,-0.223034,-0.179514,0
10960,-1.17862,-0.22182,-0.183069,0
10980,-1.17493,-0.221132,-0.185806,0
11000,-1.17163,-0.22102,-0.188862,0
11020,-1.16843,-0.221569,-0.193126,0
11040,-1.16462,-0.222322,-0.197879,0
11060,-1.16022,-0.222899,-0.202777,0
11080,-1.15507,-0.223411,-0.207566,0
11100,-1.14994,-0.22401,-0.212771,0
11120,-1.14386,-0.224751,-0.218464,0
11140,-1.13737,-0.225553,-0.224913,0
11160,-1.13074,-0.225825,-0.23107,0
11180,-1.12472,-0.226163,-0.237446,0
11200,-1.119,-0.226533,-0.244069,0
11220,-1.11331,-0.226532,-0.250606,0
11240,-1.10809,-0.226224,-0.256543,0
11260,-1.10414,-0.225749,-0.262125,0
11280,-1.10125,-0.224761,-0.266772,0
11300,-1.09979,-0.22299,-0.271123,0
11320,-1.09928,-0.22068,-0.274295,0
11340,-1.09976,-0.218925,-0.277096,0
11360,-1.10053,-0.217772,-0.27939,0
11380,-1.10187,-0.217157,-0.281211,0
11400,-1.10283,-0.217245,-0.283328,0
11420,-1.10317,-0.218216,-0.285244,0
11440,-1.10362,-0.219529,-0.28649,0
11460,-1.10469,-0.220806,-0.287021,0
11480,-1.1058,-0.221754,-0.287012,0
11500,-1.10754,-0.22207,-0.286926,0
11520,-1.10923,-0.222865,-0.28668,0
11540,-1.11094,-0.223802,-0.286218,0
11560,-1.11208,-0.224694,-0.285654,0
11580,-1.11262,-0.225531,-0.285428,0
11600,-1.11317,-0.226057,-0.28539,0
11620,-1.11312,-0.226669,-0.285454,0
11640,-1.11218,-0.227431,-0.285606,0
11660,-1.1108,-0.228026,-0.285872,0
11680,-1.10928,-0.228392,-0.286267,0
11700,-1.10823,-0.228511,-0.28682,0
11720,-1.10689,-0.22855,-0.287575,0
11740,-1.10528,-0.227931,-0.288269,0
11760,-1.10344,-0.226896,-0.289106,0
11780,-1.10127,-0.225919,-0.289884,0
11800,-1.0994,-0.225087,-0.290572,0
11820,-1.09756,-0.224229,-0.290994,0
11840,-1.09601,-0.223452,-0.291215,0
11860,-1.09486,-0.222812,-0.291014,0
11880,-1.09389,-0.222575,-0.29076,0
11900,-1.09317,-0.222196,-0.290847,0
11920,-1.09316,-0.221908,-0.291297,0
11940,-1.09257,-0.221655,-0.292485,0
11960,-1.09186,-0.221097,-0.294169,0
11980,-1.09044,-0.220025,-0.295713,0
12000,-1.08958,-0.217887,-0.297463,0
12020,-1.08846,-0.214974,-0.299645,0
12040,-1.08769,-0.211741,-0.302619,0
12060,-1.08717,-0.208718,-0.305575,0
12080,-1.08594,-0.205898,-0.308438,0
12100,-1.08479,-0.202493,-0.310326,0
12120,-1.08284,-0.199911,-0.311727,0
12140,-1.08107,-0.198228,-0.312856,0
12160,-1.07939,-0.197408,-0.31422,0
12180,-1.07757,-0.196659,-0.314817,0
12200,-1.0765,-0.195636,-0.31469,0
12220,-1.07519,-0.194233,-0.314502,0
12240,-1.07492,-0.192531,-0.31462,0
12260,-1.07551,-0.191173,-0.314551,0
12280,-1.07632,-0.190574,-0.314474,0
12300,-1.07695,-0.189982,-0.313497,0
12320,-1.07713,-0.189521,-0.311716,0
12340,-1.07764,-0.188976,-0.309711,0
12360,-1.07886,-0.188461,-0.307968,0
12380,-1.08006,-0.188034,-0.306605,0
12400,-1.08077,-0.186845,-0.305123,0
12410,-1.08075,-0.184192,-0.302903,0
12430,-1.07989,-0.181115,-0.300493,0
12450,-1.07796,-0.178604,-0.298195,0
12470,-1.07629,-0.176269,-0.296078,0
12490,-1.07467,-0.173203,-0.293646,0
12510,-1.07266,-0.169959,-0.291772,0
12530,-1.07059,-0.165889,-0.290667,0
12550,-1.06842,-0.159959,-0.289344,0
12570,-1.06628,-0.152284,-0.28888,0
12590,-1.06427,-0.143955,-0.290388,0
12610,-1.06344,-0.136133,-0.29335,0
12630,-1.06426,-0.129022,-0.295052,0
12650,-1.06552,-0.121667,-0.296183,0
12670,-1.06538,-0.114289,-0.297023,0
12690,-1.06112,-0.106422,-0.296858,0
12710,-1.05841,-0.0987063,-0.295493,0
12730,-1.0581,-0.0910032,-0.293616,0
12750,-1.05954,-0.0841333,-0.293655,0
12770,-1.06281,-0.0792342,-0.295504,0
12790,-1.06462,-0.0753514,-0.296136,0
12810,-1.06543,-0.0729723,-0.294555,0
12830,-1.06408,-0.0724199,-0.292079,0
12850,-1.06217,-0.0733512,-0.290578,0
12870,-1.06102,-0.0754324,-0.290311,0
12890,-1.06183,-0.0771158,-0.290517,0
12920,-1.0707,-0.0796822,-0.293032,0
12940,-1.07362,-0.0808188,-0.294081,0
12960,-1.07626,-0.0820935,-0.294762,0
12980,-1.07799,-0.0833556,-0.295386,0
13000,-1.07958,-0.0846094,-0.295583,0
13020,-1.08045,-0.0847326,-0.295559,0
13040,-1.08159,-0.083354,-0.294841,0
13060,-1.08281,-0.0812688,-0.294113,0
13080,-1.08437,-0.0792695,-0.293944,0
13100,-1.08672,-0.0779882,-0.294253,0
13120,-1.08875,-0.0772184,-0.295255,0
13140,-1.09041,-0.077081,-0.296431,0
13160,-1.0906,-0.0773308,-0.297747,0
13180,-1.08992,-0.0774673,-0.298647,0
13200,-1.08826,-0.0771856,-0.299598,0
13220,-1.08659,-0.0759041,-0.300568,0
13240,-1.08456,-0.0741201,-0.301527,0
13260,-1.08371,-0.0721632,-0.302788,0
13280,-1.08359,-0.0703362,-0.304306,0
13300,-1.08275,-0.0696398,-0.305546,0
13320,-1.08129,-0.0702002,-0.306433,0
13340,-1.07914,-0.0721675,-0.306718,0
13360,-1.0762,-0.0761935,-0.306925,0
13380,-1.07284,-0.0815537,-0.30631,0
13400,-1.06775,-0.0857938,-0.304857,0
13420,-1.06117,-0.0887174,-0.301404,0
13440,-1.05629,-0.091501,-0.295993,0
13460,-1.0542,-0.0947114,-0.289453,0
13480,-1.05496,-0.0981924,-0.282302,0
13500,-1.05622,-0.099939,-0.274018,0
13520,-1.05836,-0.098898,-0.264647,0
13540,-1.05947,-0.0953625,-0.254988,0
13560,-1.05997,-0.0905486,-0.245483,0
13580,-1.05962,-0.0858008,-0.2375,0
13600,-1.05781,-0.0817699,-0.230365,0
13620,-1.05662,-0.0787741,-0.223365,0
13640,-1.05685,-0.0772937,-0.216666,0
13660,-1.05824,-0.0760111,-0.211024,0
13680,-1.06036,-0.0752882,-0.206936,0
13700,-1.06292,-0.0746194,-0.203823,0
13720,-1.06463,-0.0738591,-0.200736,0
13740,-1.06584,-0.0737212,-0.19784,0
13760,-1.0659,-0.0744275,-0.195433,0
13780,-1.06621,-0.0750805,-0.193332,0
13800,-1.06826,-0.0759559,-0.192,0
13820,-1.07105,-0.0768138,-0.191689,0
13840,-1.07427,-0.0780885,-0.192001,0
13860,-1.07647,-0.0794151,-0.192115,0
13880,-1.07865,-0.0807366,-0.190792,0
13900,-1.08139,-0.0817081,-0.18853,0
13920,-1.08518,-0.0825749,-0.18592,0
13940,-1.08967,-0.0834592,-0.183437,0
13960,-1.09403,-0.0844089,-0.181334,0
13980,-1.0984,-0.0858524,-0.17937,0
14000,-1.10205,-0.0873152,-0.177801,0
14020,-1.10521,-0.0891765,-0.176246,0
14040,-1.1087,-0.0914057,-0.174338,0
14060,-1.11127,-0.0939167,-0.171646,0
14080,-1.11344,-0.0965798,-0.169289,0
14100,-1.1153,-0.0992686,-0.167478,0
14120,-1.11707,-0.101529,-0.165931,0
14140,-1.11708,-0.104238,-0.163814,0
14160,-1.11605,-0.107302,-0.160597,0
14180,-1.11533,-0.110692,-0.157624,0
14200,-1.11479,-0.114135,-0.154484,0
14220,-1.1142,-0.118139,-0.152,0
14240,-1.1135,-0.122149,-0.150254,0
14260,-1.11307,-0.12582,-0.14928,0
14280,-1.11372,-0.128598,-0.149006,0
14300,-1.11467,-0.129841,-0.149663,0
14320,-1.11626,-0.130233,-0.149537,0
14340,-1.11783,-0.13136,-0.148515,0
14350,-1.11826,-0.133552,-0.146427,0
14370,-1.11858,-0.135335,-0.142547,0
14390,-1.11938,-0.136456,-0.13776,0
14410,-1.12093,-0.137878,-0.132181,0
14430,-1.12295,-0.140565,-0.125795,0
14450,-1.12533,-0.143213,-0.11839,0
14470,-1.12688,-0.145018,-0.110947,0
14490,-1.12819,-0.145815,-0.103565,0
14510,-1.12935,-0.146351,-0.0964886,0
14530,-1.1301,-0.146181,-0.0897408,0
14550,-1.13062,-0.145422,-0.0843754,0
14570,-1.13039,-0.144008,-0.0799077,0
14590,-1.12954,-0.141581,-0.0755156,0
14610,-1.12877,-0.138708,-0.0704088,0
14630,-1.12754,-0.136228,-0.0655084,0
14650,-1.12628,-0.133883,-0.0608087,0
14670,-1.12486,-0.130188,-0.0558057,0
14690,-1.12303,-0.125831,-0.050236,0
14710,-1.12174,-0.121092,-0.0460492,0
14730,-1.12066,-0.116908,-0.0429388,0
14750,-1.11996,-0.113789,-0.0410202,0
14770,-1.11596,-0.111124,-0.0389593,0
14790,-1.1113,-0.109562,-0.036388,0
14810,-1.10594,-0.110021,-0.0343287,0
14830,-1.10076,-0.110413,-0.0344622,0
14850,-1.09703,-0.109933,-0.0375018,0
14870,-1.09514,-0.107365,-0.0407244,0
14890,-1.09616,-0.103,-0.0426279,0
14910,-1.09834,-0.0976284,-0.0439584,0
14930,-1.09928,-0.0936456,-0.045796,0
14950,-1.09663,-0.0919626,-0.0474799,0
14970,-1.0932,-0.0913949,-0.0470739,0
14990,-1.09102,-0.0902732,-0.0435306,0
15010,-1.09014,-0.0891574,-0.0389381,0
15030,-1.09223,-0.0882011,-0.0367373,0
15050,-1.09338,-0.0870475,-0.0364013,0
15070,-1.0938,-0.0852944,-0.0363097,0
15090,-1.09437,-0.0829282,-0.0354369,0
15110,-1.09584,-0.0802308,-0.0330244,0
15130,-1.09726,-0.0778331,-0.0290099,0
15150,-1.0964,-0.076324,-0.0230795,0
15180,-1.09348,-0.0783833,-0.0167661,0
15200,-1.0928,-0.0818407,-0.01755,0
15220,-1.09321,-0.0852359,-0.0200513,0
15240,-1.09327,-0.0869922,-0.0226979,0
15260,-1.09277,-0.0876891,-0.0245791,0
15280,-1.09244,-0.0894132,-0.0262596,0
15300,-1.09158,-0.0907985,-0.0278909,0
15320,-1.09052,-0.0916472,-0.0291259,0
15340,-1.08918,-0.0917383,-0.0305482,0
15360,-1.08818,-0.0939458,-0.0309632,0
15380,-1.08742,-0.0958832,-0.0299735,0
15400,-1.08609,-0.097425,-0.0276618,0
15420,-1.08522,-0.0982628,-0.0246201,0
15440,-1.0847,-0.0984378,-0.0206877,0
15460,-1.08417,-0.0989892,-0.0166669,0
15480,-1.08343,-0.0978856,-0.0132229,0
15500,-1.08356,-0.0985118,-0.0107012,0
15520,-1.08163,-0.0980617,-0.00935204,0
15540,-1.07849,-0.0997887,-0.00718123,0
15560,-1.07568,-0.0973521,-0.00492462,0
15580,-1.073,-0.0923501,-0.00191423,0
15600,-1.07066,-0.0903299,0.000900887,0
15620,-1.07167,-0.0895998,0.00193575,0
15640,-1.07219,-0.0890075,0.00175545,0
15660,-1.07328,-0.0839231,0.00318196,0
15680,-1.07477,-0.076033,0.0136182,0
15700,-1.0717,-0.0654952,0.0262618,0
15720,-1.06843,-0.0554945,0.0311353,0
15740,-1.06868,-0.0436581,0.0281101,0
15760,-1.07109,-0.0326602,0.0215122,0
15780,-1.07585,-0.0235559,0.0174652,0
15800,-1.08159,-0.0173501,0.0171112,0
15820,-1.08565,-0.0126063,0.0164439,0
15840,-1.0851,-0.00578786,0.0147503,0
15860,-1.08147,0.0037292,0.00858201,0
15880,-1.07696,0.0113967,-0.0042488,0
15900,-1.07503,0.0156532,-0.0192784,0
15920,-1.07129,0.0186544,-0.0305205,0
15940,-1.06332,0.02193,-0.0388162,0
15960,-1.0503,0.0269809,-0.0442761,0
15980,-1.03791,0.0360126,-0.048972,0
16000,-1.03037,0.050975,-0.0539819,0
16020,-1.02945,0.0685144,-0.0570021,0
16040,-1.0323,0.0871661,-0.0558062,0
16060,-1.0346,0.106799,-0.0509676,0
16080,-1.03649,0.124971,-0.0452986,0
16100,-1.03972,0.13958,-0.0427827,0
16120,-1.04352,0.148736,-0.0444265,0
16140,-1.04871,0.151847,-0.0461057,0
16160,-1.05279,0.15212,-0.0457823,0
16180,-1.06329,0.152158,-0.0397996,0
16200,-1.08014,0.150754,-0.0297398,0
16220,-1.09908,0.142731,-0.0201086,0
16240,-1.11881,0.119397,-0.0213189,0
16260,-1.13175,0.0866918,-0.0304871,0
16280,-1.13385,0.0502761,-0.0451827,0
16300,-1.13138,0.0106596,-0.0631681,0
16320,-1.13348,-0.0338719,-0.0873115,0
16340,-1.14224,-0.0812139,-0.11479,0
16360,-1.14922,-0.127658,-0.14504,0
16380,-1.14927,-0.170723,-0.177817,0
16400,-1.1451,-0.206804,-0.207805,0
16420,-1.13787,-0.232887,-0.236525,0
16440,-1.1332,-0.247457,-0.260961,0
16460,-1.12982,-0.254182,-0.272956,0
16480,-1.12725,-0.259391,-0.267451,0
16500,-1.12708,-0.264527,-0.24587,0
16520,-1.12733,-0.268107,-0.217845,0
16540,-1.13057,-0.267708,-0.192718,0
16560,-1.13646,-0.264711,-0.171996,0
16580,-1.14516,-0.258119,-0.147689,0
16600,-1.1543,-0.247297,-0.116511,0
16620,-1.16129,-0.234284,-0.0815144,0
16640,-1.16388,-0.223808,-0.0462743,0
16660,-1.16135,-0.220051,-0.0141265,0
16680,-1.15953,-0.222783,0.0142079,0
16700,-1.16234,-0.224978,0.0416607,0
16720,-1.16833,-0.220354,0.0677334,0
16740,-1.17565,-0.210193,0.0923921,0
16760,-1.18257,-0.10992,0.197381,0
16780,-1.18324,-0.107311,0.197626,0
16800,-1.18516,-0.104071,0.196103,0
16820,-1.18731,-0.0975197,0.194135,0
16840,-1.18788,-0.0902756,0.191803,0
16860,-1.18788,-0.0822448,0.188725,0
16880,-1.1891,-0.0740107,0.185631,0
16900,-1.18727,-0.0678859,0.186325,0
16920,-1.18396,-0.0651962,0.188913,0
16940,-1.18419,-0.0659258,0.187361,0
16960,-1.18465,-0.0722192,0.181471,0
16980,-1.18301,-0.082263,0.175697,0
17000,-1.18147,-0.092436,0.171926,0
17020,-1.18033,-0.102907,0.168981,0
17040,-1.1805,-0.115266,0.163765,0
17060,-1.18044,-0.12858,0.155791,0
17080,-1.18215,-0.140574,0.145518,0
17100,-1.18442,-0.151979,0.134623,0
17120,-1.1863,-0.162188,0.124663,0
17140,-1.18639,-0.172089,0.117216,0
17160,-1.18319,-0.181881,0.111916,0
17180,-1.17802,-0.19232,0.107083,0
17200,-1.17231,-0.201496,0.102301,0
17220,-1.16768,-0.207339,0.0998273,0
17240,-1.16639,-0.210067,0.101027,0
17260,-1.16714,-0.210298,0.104071,0
17280,-1.16789,-0.208251,0.108102,0
17300,-1.16905,-0.204419,0.113499,0
17320,-1.17135,-0.199095,0.121147,0
17340,-1.17466,-0.19241,0.129928,0
17360,-1.17875,-0.184793,0.138921,0
17380,-1.18298,-0.175697,0.147369,0
17400,-1.18706,-0.165742,0.155481,0
17420,-1.19164,-0.155019,0.162832,0
17440,-1.19609,-0.143617,0.169094,0
17460,-1.19939,-0.131006,0.174493,0
17480,-1.20207,-0.118312,0.17958,0
17500,-1.20418,-0.106325,0.185369,0
17520,-1.20512,-0.0950386,0.191944,0
17540,-1.20503,-0.0840377,0.198608,0
17560,-1.20384,-0.0737001,0.205318,0
17580,-1.20089,-0.0647163,0.212046,0
17600,-1.19657,-0.0577821,0.217534,0
17610,-1.19084,-0.052416,0.222039,0
17630,-1.18453,-0.047763,0.226984,0
17650,-1.17936,-0.0439198,0.232157,0
17670,-1.17445,-0.0396362,0.237363,0
17690,-1.17097,-0.0344447,0.241968,0
17710,-1.16818,-0.0285713,0.247084,0
17730,-1.16639,-0.0234092,0.252337,0
17750,-1.16395,-0.0190982,0.256182,0
17770,-1.16162,-0.0153207,0.258776,0
17790,-1.15946,-0.0129248,0.26127,0
17810,-1.15794,-0.0112708,0.262991,0
17830,-1.15668,-0.0106504,0.263057,0
17850,-1.15543,-0.0097124,0.262037,0
17870,-1.15404,-0.00959604,0.259779,0
17890,-1.15287,-0.0097003,0.256657,0
17910,-1.15331,-0.0100173,0.252504,0
17930,-1.15469,-0.0108307,0.247135,0
17950,-1.15586,-0.0114773,0.240762,0
17970,-1.1562,-0.0132007,0.233553,0
17990,-1.15749,-0.013379,0.225854,0
18010,-1.15716,-0.0133881,0.216011,0
18030,-1.15627,-0.0127507,0.205413,0
18050,-1.1545,-0.0112845,0.195108,0
18070,-1.15305,-0.00777288,0.184975,0
18090,-1.15299,-0.00316214,0.174515,0
18110,-1.15357,0.00176706,0.16316,0
18130,-1.15398,0.00760554,0.151198,0
18150,-1.15427,0.0149885,0.138518,0
18170,-1.15427,0.0237948,0.123586,0
18190,-1.15354,0.0340595,0.107404,0
18210,-1.15147,0.0455327,0.0903036,0
18230,-1.15056,0.0580042,0.0725952,0
18250,-1.15018,0.0715592,0.0544911,0
18270,-1.15111,0.0862913,0.0372037,0
18290,-1.15511,0.101525,0.0191322,0
18310,-1.15999,0.116559,0.00117142,0
18330,-1.16473,0.129817,-0.0158954,0
18350,-1.16898,0.140911,-0.0308687,0
18370,-1.172,0.147938,-0.0454744,0
18390,-1.17177,0.14936,-0.0593119,0
18410,-1.16747,0.144679,-0.0720766,0
18430,-1.16138,0.137376,-0.0837962,0
18450,-1.15368,0.127844,-0.0941812,0
18470,-1.14712,0.116028,-0.103954,0
18490,-1.14492,0.103044,-0.111938,0
18510,-1.14276,0.0876661,-0.119411,0
18530,-1.14,0.0707741,-0.12706,0
18550,-1.13747,0.0530346,-0.132915,0
18570,-1.13239,0.0317812,-0.137292,0
18590,-1.12235,0.0085903,-0.139013,0
18610,-1.11169,-0.0154226,-0.141024,0
18630,-1.10295,-0.0408237,-0.142068,0
18650,-1.09151,-0.0646569,-0.13882,0
18670,-1.08408,-0.0864909,-0.131655,0
18690,-1.08357,-0.105487,-0.127273,0
18710,-1.083,-0.120198,-0.126921,0
18730,-1.07907,-0.131996,-0.127988,0
18750,-1.0749,-0.140945,-0.131535,0
18770,-1.07324,-0.145578,-0.13958,0
18790,-1.07539,-0.146564,-0.153408,0
18810,-1.07652,-0.142883,-0.165318,0
18830,-1.07366,-0.133308,-0.170609,0
18850,-1.07417,-0.120087,-0.17055,0
18870,-1.08062,-0.10597,-0.170442,0
18890,-1.08847,-0.0915932,-0.169755,0
18910,-1.08985,-0.0771516,-0.16598,0
18930,-1.08726,-0.0663685,-0.159968,0
18950,-1.08476,-0.0605286,-0.152835,0
18970,-1.08528,-0.0575985,-0.146735,0
18990,-1.08739,-0.0567639,-0.141968,0
19010,-1.08926,-0.0580606,-0.136772,0
19030,-1.09174,-0.0616291,-0.130767,0
19050,-1.09611,-0.0659221,-0.126182,0
19070,-1.10211,-0.069728,-0.123162,0
19090,-1.10903,-0.0732447,-0.120724,0
19110,-1.11525,-0.0766519,-0.117743,0
19130,-1.12005,-0.0807753,-0.114724,0
19150,-1.12368,-0.0849895,-0.111767,0
19170,-1.12706,-0.0889804,-0.110097,0
19190,-1.13045,-0.0921517,-0.110086,0
19210,-1.13157,-0.0940547,-0.111343,0
19230,-1.12947,-0.0968011,-0.110939,0
19250,-1.12684,-0.100197,-0.107533,0
19270,-1.12541,-0.103666,-0.102473,0
19290,-1.12716,-0.10738,-0.0980599,0
19310,-1.12883,-0.111039,-0.094273,0
19330,-1.12933,-0.114803,-0.0889637,0
19350,-1.13024,-0.118896,-0.0834583,0
19370,-1.13093,-0.12287,-0.0796053,0
19390,-1.13156,-0.126688,-0.0784757,0
19410,-1.13307,-0.128029,-0.0769816,0
19430,-1.13448,-0.129322,-0.0740625,0
19450,-1.13784,-0.132247,-0.0707461,0
19470,-1.14143,-0.135074,-0.0695171,0
19490,-1.1422,-0.138228,-0.0693581,0
19510,-1.14222,-0.142403,-0.0692901,0
19520,-1.1428,-0.147065,-0.0678839,0
19550,-1.14308,-0.150527,-0.0662267,0
19570,-1.14376,-0.151826,-0.0647726,0
19590,-1.14361,-0.152903,-0.0626288,0
19600,-1.14359,-0.154725,-0.0611722,0
19620,-1.14276,-0.156134,-0.060754,0
19640,-1.1409,-0.156799,-0.0604385,0
19660,-1.1381,-0.15661,-0.0607206,0
19680,-1.13588,-0.156397,-0.0615762,0
19700,-1.13405,-0.155441,-0.0625803,0
19720,-1.13327,-0.154386,-0.0632985,0
19740,-1.13338,-0.153328,-0.0636726,0
19760,-1.13273,-0.152039,-0.0642316,0
19780,-1.13098,-0.150225,-0.0638787,0
19800,-1.12773,-0.148236,-0.0618336,0
19820,-1.1245,-0.146912,-0.0592156,0
19840,-1.12275,-0.146006,-0.0568447,0
19860,-1.12138,-0.145571,-0.0551656,0
19880,-1.12091,-0.145472,-0.0532265,0
19900,-1.121,-0.145282,-0.0513066,0
19920,-1.12128,-0.14504,-0.0492836,0
19940,-1.12252,-0.144669,-0.0474101,0
19960,-1.12389,-0.144321,-0.0462493,0
19980,-1.12438,-0.143849,-0.0452185,0
20000,-1.12384,-0.144363,-0.0444875,0
20020,-1.12288,-0.14534,-0.0440772,0
20040,-1.12259,-0.14641,-0.0444311,0
20060,-1.12305,-0.147672,-0.0447795,0
20080,-1.12405,-0.14819,-0.0452622,0
20100,-1.12471,-0.148519,-0.0461688,0
20120,-1.12584,-0.14863,-0.0469054,0
20140,-1.1276,-0.149521,-0.0465169,0
20160,-1.1299,-0.151126,-0.0453684,0
20180,-1.13233,-0.15347,-0.0444543,0
20190,-1.13478,-0.157024,-0.0445232,0
20210,-1.13673,-0.16106,-0.0451648,0
20230,-1.13916,-0.164915,-0.0454571,0
20250,-1.14128,-0.168453,-0.0455084,0
20270,-1.14281,-0.171708,-0.0460876,0
20290,-1.14305,-0.174468,-0.0460496,0
20310,-1.14124,-0.177046,-0.0459846,0
20330,-1.13977,-0.180965,-0.0479668,0
20350,-1.14061,-0.185739,-0.0505338,0
20370,-1.141,-0.189964,-0.0532065,0
20390,-1.1413,-0.192881,-0.0545332,0
20410,-1.14188,-0.194313,-0.0548679,0
20430,-1.1436,-0.19547,-0.0557427,0
20450,-1.14543,-0.196826,-0.0573593,0
20470,-1.14534,-0.198469,-0.0592377,0
20490,-1.14536,-0.20028,-0.0615847,0
20510,-1.14502,-0.201628,-0.0643961,0
20530,-1.14583,-0.201522,-0.0670385,0
20550,-1.14832,-0.199752,-0.0684296,0
20570,-1.15284,-0.19837,-0.0680873,0
20590,-1.15867,-0.197141,-0.0662289,0
20610,-1.16484,-0.196124,-0.0642191,0
20630,-1.17123,-0.195301,-0.0629309,0
20650,-1.17954,-0.194233,-0.0621191,0
20670,-1.19107,-0.192046,-0.061833,0
20690,-1.20668,-0.185955,-0.060942,0
20710,-1.22772,-0.177084,-0.059949,0
20730,-1.25064,-0.167615,-0.0603792,0
20750,-1.27134,-0.15695,-0.0596278,0
20770,-1.29386,-0.147117,-0.057154,0
20790,-1.32099,-0.137136,-0.0558707,0
20810,-1.35661,-0.125557,-0.0577132,0
20830,-1.39242,-0.107899,-0.0622563,0
20850,-1.42022,-0.0865542,-0.0665857,0
20870,-1.45108,-0.0657159,-0.0687508,0
20890,-1.48473,-0.0455199,-0.0712817,0
20910,-1.52703,-0.02713,-0.0749552,0
20930,-1.568,-0.00896092,-0.0788401,0
20950,-1.6029,0.00767143,-0.0818126,0
20970,-1.63006,0.0277438,-0.0846195,0
20990,-1.65343,0.0475506,-0.0860731,0
21010,-1.66724,0.0658522,-0.0857762,0
21030,-1.66998,0.08081,-0.0819631,0
21050,-1.65942,0.0902991,-0.076068,0
21070,-1.63953,0.0939324,-0.0691283,0
21090,-1.6104,0.0915627,-0.0624938,0
21110,-1.57365,0.082583,-0.0558465,0
21130,-1.53322,0.0675104,-0.0487509,0
21150,-1.49095,0.0459863,-0.0436175,0
21170,-1.44673,0.0212186,-0.0421887,0
21190,-1.40045,-0.00471221,-0.0412093,0
21210,-1.35736,-0.0314662,-0.0394036,0
21230,-1.3159,-0.0593179,-0.0398186,0
21250,-1.27338,-0.0850535,-0.0437642,0
21270,-1.23281,-0.106549,-0.0494117,0
21290,-1.19986,-0.127461,-0.0530728,0
21310,-1.17211,-0.145114,-0.0560263,0
21330,-1.14675,-0.157711,-0.0581935,0
21350,-1.12693,-0.167128,-0.059548,0
21370,-1.10967,-0.175903,-0.0608817,0
21390,-1.09499,-0.182687,-0.0625119,0
21410,-1.08459,-0.188077,-0.0653499,0
21430,-1.07696,-0.192085,-0.0691255,0
21450,-1.07282,-0.194172,-0.0713477,0
21470,-1.07093,-0.194205,-0.0714601,0
21490,-1.07034,-0.192821,-0.0694653,0
21510,-1.07152,-0.191455,-0.0667528,0
21530,-1.07251,-0.191596,-0.0651675,0
21550,-1.07345,-0.193353,-0.064626,0
21570,-1.07475,-0.194973,-0.0649939,0
21590,-1.07672,-0.195437,-0.0657101,0
21610,-1.07787,-0.194382,-0.0671061,0
21630,-1.07874,-0.191911,-0.0680865,0
21650,-1.07821,-0.189115,-0.068501,0
21670,-1.07679,-0.186586,-0.0678294,0
21690,-1.07545,-0.184074,-0.0674045,0
21710,-1.07454,-0.181627,-0.0674977,0
21730,-1.0743,-0.179408,-0.0681118,0
21750,-1.07425,-0.177644,-0.0687449,0
21770,-1.07447,-0.176575,-0.0690685,0
21790,-1.07485,-0.17642,-0.0697055,0
21810,-1.07543,-0.176697,-0.0700858,0
21830,-1.07583,-0.177571,-0.0705348,0
21850,-1.07638,-0.178724,-0.070949,0
21870,-1.07678,-0.17948,-0.0719149,0
21890,-1.07673,-0.179982,-0.0727607,0
21910,-1.07655,-0.180227,-0.0731957,0
21930,-1.07625,-0.180215,-0.0732198,0
21950,-1.07553,-0.180189,-0.0732847,0
21970,-1.0754,-0.180186,-0.0733015,0
21990,-1.0754,-0.180186,-0.0733015,0
22010,-1.07441,-0.179936,-0.0727932,0
22030,-1.07333,-0.179502,-0.07199,0
22050,-1.07257,-0.178636,-0.0704133,0
22070,-1.07211,-0.178029,-0.0685096,0
22090,-1.07138,-0.177527,-0.0665768,0
22110,-1.06994,-0.177547,-0.064664,0
22130,-1.06863,-0.177697,-0.0629492,0
22150,-1.06794,-0.178697,-0.0611353,0
22170,-1.06735,-0.180256,-0.0595296,0
22190,-1.06724,-0.181842,-0.057901,0
22210,-1.06723,-0.183067,-0.0566111,0
22230,-1.06698,-0.18435,-0.0547311,0
22250,-1.0669,-0.185517,-0.0526289,0
22270,-1.06646,-0.186706,-0.0510958,0
22290,-1.06582,-0.188972,-0.0492432,0
22310,-1.06508,-0.190766,-0.0485316,0
22330,-1.06463,-0.193035,-0.0480996,0
22350,-1.06414,-0.195379,-0.0480438,0
22370,-1.06414,-0.197828,-0.0476144,0
22390,-1.06438,-0.2,-0.047166,0
22410,-1.06504,-0.20103,-0.04665,0
22430,-1.06571,-0.201264,-0.0457473,0
22450,-1.06601,-0.201053,-0.0451125,0
22470,-1.06672,-0.200526,-0.0450832,0
22490,-1.06751,-0.199804,-0.0454378,0
22510,-1.06772,-0.199067,-0.0458472,0
22530,-1.06736,-0.198343,-0.0465962,0
22550,-1.06679,-0.196916,-0.0476293,0
22570,-1.06632,-0.194985,-0.0492402,0
22590,-1.06482,-0.193358,-0.0510273,0
22610,-1.06286,-0.191357,-0.0532101,0
22630,-1.06173,-0.188929,-0.0543099,0
22650,-1.06066,-0.188262,-0.0547749,0
22670,-1.05976,-0.187772,-0.0552764,0
22690,-1.0596,-0.187763,-0.0552847,0
22710,-1.05956,-0.188427,-0.0544857,0
22730,-1.05994,-0.190206,-0.0538378,0
22750,-1.06048,-0.192289,-0.0534406,0
22770,-1.06143,-0.194213,-0.0529529,0
22790,-1.06266,-0.196074,-0.0523203,0
22810,-1.06403,-0.19773,-0.0518004,0
22830,-1.06529,-0.199181,-0.0514294,0
22850,-1.0658,-0.20048,-0.0509058,0
22870,-1.06666,-0.202087,-0.0498901,0
22890,-1.0678,-0.203926,-0.0489883,0
22910,-1.06873,-0.205563,-0.0484955,0
22930,-1.06936,-0.206804,-0.0485745,0
22950,-1.06995,-0.20846,-0.0491178,0
22970,-1.07092,-0.21037,-0.0500329,0
22990,-1.07191,-0.212589,-0.0512153,0
23010,-1.07218,-0.215058,-0.0524472,0
23030,-1.07056,-0.218249,-0.0539849,0
23040,-1.06841,-0.221609,-0.0556549,0
23060,-1.0669,-0.223177,-0.0568593,0
23080,-1.06538,-0.224901,-0.0585706,0
23100,-1.06418,-0.22638,-0.0598225,0
23120,-1.06292,-0.22743,-0.0613251,0
23140,-1.06111,-0.22817,-0.0626397,0
23160,-1.05845,-0.228759,-0.0638439,0
23180,-1.05581,-0.227644,-0.0643248,0
23200,-1.05446,-0.225766,-0.0642539,0
23220,-1.05502,-0.222382,-0.064442,0
23240,-1.05795,-0.216866,-0.0649639,0
23260,-1.0622,-0.210353,-0.0662455,0
23280,-1.06708,-0.202924,-0.0687747,0
23300,-1.0703,-0.196072,-0.0746964,0
23320,-1.07143,-0.189539,-0.0829043,0
23340,-1.07218,-0.182816,-0.0922802,0
23360,-1.07301,-0.177215,-0.101112,0
23380,-1.0713,-0.172896,-0.10848,0
23400,-1.0679,-0.16812,-0.114206,0
23420,-1.06347,-0.162592,-0.118379,0
23440,-1.05779,-0.158343,-0.121821,0
23460,-1.05101,-0.157344,-0.124259,0
23480,-1.04466,-0.160077,-0.125525,0
23500,-1.03833,-0.163894,-0.125755,0
23520,-1.03322,-0.167638,-0.125165,0
23540,-1.03071,-0.170127,-0.123599,0
23560,-1.03283,-0.175097,-0.12253,0
23580,-1.03781,-0.178636,-0.121097,0
23600,-1.0445,-0.181629,-0.120589,0
23620,-1.05063,-0.184713,-0.12033,0
23640,-1.05557,-0.187338,-0.120215,0
23660,-1.06053,-0.190265,-0.12109,0
23680,-1.06497,-0.194229,-0.125223,0
23700,-1.06822,-0.1985,-0.132697,0
23720,-1.06943,-0.202935,-0.142491,0
23740,-1.06861,-0.207727,-0.153094,0
23760,-1.06591,-0.212876,-0.163324,0
23780,-1.06195,-0.217918,-0.172542,0
23800,-1.05736,-0.222228,-0.180526,0
23820,-1.05255,-0.225815,-0.186918,0
23840,-1.04772,-0.228793,-0.192112,0
23860,-1.04355,-0.231061,-0.195947,0
23880,-1.0399,-0.232553,-0.198323,0
23900,-1.03685,-0.234122,-0.198496,0
23920,-1.03431,-0.235739,-0.195184,0
23940,-1.03201,-0.237154,-0.18995,0
23960,-1.02999,-0.238461,-0.183208,0
23980,-1.02896,-0.239698,-0.175322,0
24000,-1.02941,-0.241458,-0.16645,0
24020,-1.03158,-0.244068,-0.156416,0
24040,-1.03429,-0.24749,-0.14572,0
24060,-1.03739,-0.251449,-0.134667,0
24080,-1.04092,-0.256703,-0.123095,0
24100,-1.04522,-0.263066,-0.110609,0
24120,-1.05055,-0.269799,-0.0983381,0
24140,-1.05673,-0.277009,-0.0874764,0
24160,-1.06313,-0.285097,-0.0785755,0
24180,-1.0694,-0.293586,-0.0706428,0
24200,-1.07364,-0.302349,-0.0640608,0
24220,-1.07615,-0.311341,-0.0572419,0
24240,-1.07708,-0.32115,-0.050413,0
24260,-1.0776,-0.330047,-0.0447615,0
24280,-1.07825,-0.337963,-0.0407947,0
24300,-1.07838,-0.344821,-0.0389945,0
24320,-1.07879,-0.3503,-0.0377037,0
24340,-1.07859,-0.35517,-0.0369776,0
24360,-1.07754,-0.360454,-0.0366232,0
24390,-1.07161,-0.370598,-0.0428054,0
24410,-1.07151,-0.369734,-0.0462178,0
24430,-1.07247,-0.367073,-0.0502331,0
24450,-1.07349,-0.363682,-0.0554095,0
24470,-1.07364,-0.360862,-0.0626968,0
24490,-1.07255,-0.358421,-0.0718556,0
24510,-1.07061,-0.355655,-0.0818879,0
24530,-1.06933,-0.352211,-0.0918194,0
24550,-1.06761,-0.348343,-0.101879,0
24570,-1.06534,-0.344371,-0.111192,0
24590,-1.06286,-0.341117,-0.118655,0
24610,-1.06083,-0.338848,-0.124294,0
24630,-1.0614,-0.325837,-0.14,0
24640,-1.06048,-0.322158,-0.140793,0
24660,-1.05937,-0.319277,-0.139851,0
24680,-1.05742,-0.31713,-0.137725,0
24700,-1.05533,-0.316313,-0.135703,0
24720,-1.0539,-0.316194,-0.134194,0
24740,-1.05378,-0.315812,-0.132854,0
24760,-1.05481,-0.314336,-0.131282,0
24780,-1.05581,-0.312597,-0.128552,0
24800,-1.05743,-0.31064,-0.125293,0
24820,-1.0597,-0.30898,-0.121659,0
24840,-1.06235,-0.307346,-0.11823,0
24860,-1.06527,-0.305102,-0.115168,0
24880,-1.06851,-0.302452,-0.112561,0
24890,-1.07551,-0.298189,-0.1083,0
24910,-1.07929,-0.296926,-0.106738,0
24920,-1.0824,-0.296142,-0.105657,0
24940,-1.08487,-0.295759,-0.104452,0
24960,-1.08651,-0.295994,-0.102803,0
24980,-1.0875,-0.2969,-0.100995,0
25000,-1.08819,-0.298803,-0.0994755,0
25020,-1.08818,-0.301392,-0.0980639,0
25040,-1.08761,-0.304578,-0.0968124,0
25060,-1.08666,-0.307858,-0.0950979,0
25080,-1.08564,-0.311398,-0.0931147,0
25100,-1.08505,-0.314853,-0.0911242,0
25120,-1.0854,-0.317604,-0.0894159,0
25140,-1.08685,-0.319637,-0.0881613,0
25160,-1.08889,-0.320462,-0.0873889,0
25180,-1.09119,-0.320884,-0.0868407,0
25200,-1.09391,-0.320835,-0.0870753,0
25220,-1.0965,-0.32065,-0.0882913,0
25240,-1.09809,-0.320674,-0.0905403,0
25260,-1.099,-0.320924,-0.092606,0
25280,-1.09967,-0.321172,-0.0942578,0
25300,-1.09958,-0.321386,-0.0960287,0
25320,-1.099,-0.321433,-0.0981127,0
25340,-1.09807,-0.320601,-0.1005,0
25360,-1.0972,-0.319783,-0.102428,0
25380,-1.09637,-0.319139,-0.103926,0
25400,-1.09517,-0.318836,-0.105132,0
25420,-1.09408,-0.318911,-0.10599,0
25440,-1.09188,-0.318937,-0.107278,0
25460,-1.09049,-0.318683,-0.107912,0
25480,-1.09022,-0.316934,-0.107943,0
25500,-1.08991,-0.315963,-0.107845,0
25520,-1.0901,-0.315204,-0.107263,0
25540,-1.09045,-0.314555,-0.106589,0
25560,-1.09111,-0.314099,-0.105919,0
25580,-1.09158,-0.313787,-0.105294,0
25600,-1.09208,-0.313555,-0.104795,0
25620,-1.09287,-0.313234,-0.104317,0
25640,-1.09362,-0.312965,-0.103934,0
25660,-1.09426,-0.313217,-0.103721,0
25680,-1.0944,-0.313729,-0.103816,0
25700,-1.09431,-0.314075,-0.104636,0
25720,-1.09425,-0.313884,-0.106218,0
25740,-1.09403,-0.313101,-0.108749,0
25760,-1.09368,-0.312141,-0.112433,0
25780,-1.09335,-0.310124,-0.116736,0
25800,-1.09269,-0.307189,-0.121507,0
25820,-1.09151,-0.302595,-0.126751,0
25840,-1.0902,-0.296356,-0.134269,0
25860,-1.08802,-0.288057,-0.145463,0
25880,-1.08608,-0.274786,-0.158076,0
25900,-1.08399,-0.260705,-0.172443,0
25920,-1.08074,-0.246061,-0.185734,0
25940,-1.0752,-0.229571,-0.194953,0
25960,-1.06758,-0.211642,-0.199933,0
25980,-1.05945,-0.192074,-0.20103,0
26000,-1.05226,-0.169558,-0.199341,0
26020,-1.04641,-0.146152,-0.198036,0
26040,-1.04154,-0.122845,-0.198703,0
26060,-1.0372,-0.101373,-0.200402,0
26080,-1.03055,-0.0804731,-0.199822,0
26100,-1.02581,-0.0593013,-0.196233,0
26120,-1.01896,-0.0359293,-0.190215,0
26140,-1.00765,-0.0112374,-0.18338,0
26160,-0.994562,0.0126686,-0.177088,0
26180,-0.982192,0.0354023,-0.17165,0
26200,-0.971371,0.0570295,-0.167186,0
26220,-0.965041,0.0777854,-0.163826,0
26240,-0.961103,0.0988168,-0.161413,0
26260,-0.958023,0.119027,-0.161215,0
26280,-0.953899,0.137297,-0.162456,0
26300,-0.949118,0.155401,-0.164569,0
26320,-0.945439,0.171372,-0.166458,0
26340,-0.943396,0.186388,-0.170641,0
26360,-0.941787,0.199362,-0.175041,0
26380,-0.942264,0.208139,-0.177438,0
26400,-0.940918,0.211345,-0.181096,0
26420,-0.938461,0.208345,-0.186742,0
26440,-0.938724,0.200582,-0.194201,0
26460,-0.939147,0.188947,-0.202165,0
26480,-0.940317,0.172031,-0.210823,0
26500,-0.939873,0.150734,-0.219611,0
26520,-0.941379,0.127882,-0.224287,0
26540,-0.947583,0.0995582,-0.22444,0
26560,-0.957352,0.0681736,-0.223331,0
26580,-0.969871,0.0391691,-0.22121,0
26600,-0.981395,0.0125941,-0.217908,0
26620,-0.991549,-0.0148438,-0.213225,0
26640,-1.00028,-0.0430223,-0.207259,0
26660,-1.00738,-0.0703852,-0.19909,0
26680,-1.01225,-0.0958272,-0.190922,0
26700,-1.01533,-0.117772,-0.185144,0
26720,-1.01653,-0.13473,-0.173642,0
26740,-1.0149,-0.146477,-0.151974,0
26760,-1.01625,-0.152689,-0.132289,0
26780,-1.01982,-0.160608,-0.118018,0
26800,-1.02106,-0.168799,-0.108174,0
26820,-1.01842,-0.176375,-0.10018,0
26840,-1.01363,-0.180599,-0.0998145,0
26860,-1.00684,-0.182886,-0.102642,0
26880,-0.999653,-0.183268,-0.101365,0
26900,-0.995792,-0.186038,-0.091846,0
26920,-0.99431,-0.188657,-0.0815849,0
26940,-0.99659,-0.190325,-0.0753258,0
26960,-1.00179,-0.193145,-0.0704649,0
26980,-1.00829,-0.198172,-0.0641068,0
27000,-1.01409,-0.205323,-0.0574227,0
27020,-1.02232,-0.214759,-0.0581937,0
27040,-1.02952,-0.226573,-0.0684283,0
27060,-1.03325,-0.238883,-0.0846445,0
27080,-1.03386,-0.249726,-0.0987874,0
27100,-1.03388,-0.256623,-0.108849,0
27120,-1.03451,-0.259013,-0.120256,0
27140,-1.04258,-0.257288,-0.134459,0
27160,-1.05323,-0.250413,-0.146774,0
27180,-1.07385,-0.235156,-0.154339,0
27200,-1.11523,-0.208719,-0.1601,0
27220,-1.17397,-0.168431,-0.165319,0
27240,-1.24914,-0.121937,-0.16834,0
27260,-1.33316,-0.0731931,-0.169408,0
27280,-1.39217,-0.0306834,-0.166831,0
27300,-1.41432,0.013656,-0.158407,0
27320,-1.42125,0.0667777,-0.150611,0
27340,-1.43554,0.128571,-0.146182,0
27360,-1.47192,0.186973,-0.140418,0
27380,-1.53166,0.230516,-0.133763,0
27400,-1.58028,0.265545,-0.128321,0
27420,-1.60868,0.29451,-0.128237,0
27440,-1.61771,0.320105,-0.131932,0
27460,-1.62324,0.337844,-0.137444,0
27480,-1.62837,0.349252,-0.144511,0
27500,-1.6427,0.357432,-0.149494,0
27520,-1.65796,0.365676,-0.15514,0
27540,-1.66431,0.375288,-0.160634,0
27560,-1.66144,0.383247,-0.164356,0
27580,-1.65678,0.386454,-0.169627,0
27600,-1.65204,0.389403,-0.17601,0
27620,-1.64841,0.397363,-0.18139,0
27640,-1.64723,0.408938,-0.183752,0
27660,-1.65116,0.42272,-0.184244,0
27680,-1.66193,0.436074,-0.181635,0
27700,-1.67158,0.447708,-0.178052,0
27720,-1.68154,0.4604,-0.175111,0
27740,-1.6915,0.474534,-0.174183,0
27760,-1.69897,0.487894,-0.173336,0
27780,-1.70514,0.497083,-0.17347,0
27800,-1.70836,0.5013,-0.17604,0
27820,-1.70639,0.501345,-0.182152,0
27840,-1.69566,0.498197,-0.189538,0
27860,-1.67686,0.490617,-0.199294,0
27880,-1.64665,0.476157,-0.210344,0
27900,-1.61013,0.456702,-0.222892,0
27920,-1.56721,0.432709,-0.235469,0
27940,-1.51933,0.403127,-0.247358,0
27960,-1.46691,0.369541,-0.257537,0
27980,-1.41462,0.33342,-0.265907,0
28000,-1.36575,0.296714,-0.273868,0
28020,-1.31811,0.258047,-0.279213,0
28040,-1.27193,0.216227,-0.282473,0
28060,-1.22773,0.173778,-0.284833,0
28080,-1.18955,0.13415,-0.284728,0
28100,-1.16212,0.096663,-0.281678,0
28120,-1.14604,0.0625511,-0.276035,0
28140,-1.13871,0.0308149,-0.26924,0
28160,-1.13796,-0.000713527,-0.262424,0
28180,-1.13729,-0.0321111,-0.255041,0
28200,-1.13498,-0.0617986,-0.247273,0
28220,-1.12973,-0.091045,-0.23894,0
28240,-1.1267,-0.117778,-0.230837,0
28260,-1.1259,-0.141732,-0.223559,0
28280,-1.12548,-0.163623,-0.215727,0
28300,-1.12334,-0.183219,-0.206316,0
28320,-1.1227,-0.199629,-0.197004,0
28330,-1.12255,-0.210579,-0.18782,0
28350,-1.12144,-0.217048,-0.178002,0
28370,-1.11922,-0.219334,-0.164551,0
28390,-1.11637,-0.218758,-0.153532,0
28410,-1.11237,-0.217848,-0.143572,0
28430,-1.10721,-0.216434,-0.133428,0
28450,-1.10249,-0.214905,-0.122224,0
28470,-1.09862,-0.213699,-0.111503,0
28490,-1.09697,-0.211547,-0.10178,0
28510,-1.0954,-0.207039,-0.093086,0
28530,-1.09229,-0.199117,-0.0825472,0
28550,-1.08901,-0.189177,-0.0698078,0
28570,-1.0856,-0.178254,-0.0598375,0
28580,-1.08315,-0.167853,-0.0505083,0
28600,-1.08039,-0.145049,-0.0311841,0
28610,-1.07924,-0.133277,-0.0211727,0
28630,-1.07813,-0.124609,-0.0113064,0
28630,-1.07296,-0.120701,0.019784,0
28650,-1.06883,-0.122601,0.0368309,0
28650,-1.06731,-0.119867,0.0529903,0
28680,-1.06929,-0.108072,0.0508311,0
28700,-1.06911,-0.100928,0.0455914,0
28720,-1.06525,-0.0949381,0.0429411,0
28740,-1.05973,-0.0918201,0.0460234,0
28780,-1.05042,-0.0900043,0.0664444,0
28810,-1.04812,-0.0850164,0.0677787,0
28830,-1.04347,-0.080926,0.0651386,0
28850,-1.0391,-0.0778894,0.0651076,0
28870,-1.03675,-0.0756734,0.0658184,0
28890,-1.03355,-0.0728247,0.0666857,0
28910,-1.02933,-0.0704052,0.0685874,0
28930,-1.02567,-0.0685705,0.0704387,0
28950,-1.02263,-0.0673485,0.0719658,0
28970,-1.02013,-0.0653004,0.071944,0
28990,-1.01735,-0.0623472,0.0702897,0
29010,-1.01497,-0.0588262,0.0676473,0
29030,-1.01181,-0.0554337,0.06352,0
29050,-1.00758,-0.0533504,0.0585544,0
29070,-1.00459,-0.0532811,0.0539307,0
29090,-1.00337,-0.0530544,0.0477658,0
29110,-1.00264,-0.0525838,0.0402391,0
29130,-1.00047,-0.0537139,0.0328436,0
29150,-0.997781,-0.0577992,0.0281608,0
29170,-0.996729,-0.0632587,0.0255345,0
29190,-0.998303,-0.0686249,0.0231007,0
29210,-0.9994,-0.0716053,0.0204596,0
29230,-1.00038,-0.0740749,0.0185079,0
29250,-1.00278,-0.077952,0.0196196,0
29270,-1.00817,-0.0821282,0.0248152,0
29290,-1.01471,-0.0849696,0.0334177,0
29310,-1.0207,-0.0849675,0.0410082,0
29330,-1.02372,-0.0837331,0.0462223,0
29350,-1.02526,-0.0816824,0.0506182,0
29370,-1.02678,-0.0807259,0.0560505,0
29390,-1.03155,-0.0764359,0.0625883,0
29410,-1.04119,-0.0722923,0.054412,0
29420,-1.04853,-0.0734641,0.0454556,0
29430,-1.09556,-0.157106,-0.0709918,0
29450,-1.09944,-0.166797,-0.0981211,0
29480,-1.09997,-0.181968,-0.148953,0
29500,-1.09696,-0.183166,-0.167611,0
29520,-1.09121,-0.183431,-0.181289,0
29540,-1.08739,-0.185248,-0.19292,0
29560,-1.08978,-0.183644,-0.202357,0
29580,-1.09157,-0.180525,-0.212026,0
29600,-1.08887,-0.177583,-0.221971,0
29620,-1.08397,-0.176519,-0.230236,0
29640,-1.0773,-0.177253,-0.235421,0
29660,-1.07032,-0.17926,-0.23813,0
29680,-1.06141,-0.18288,-0.239377,0
29700,-1.05149,-0.189812,-0.238653,0
29720,-1.03973,-0.200133,-0.234834,0
29740,-1.03007,-0.211545,-0.22694,0
29760,-1.02384,-0.22285,-0.216808,0
29780,-1.01868,-0.234195,-0.206135,0
29800,-1.01643,-0.245832,-0.193342,0
29820,-1.01617,-0.258137,-0.179624,0
29840,-1.01562,-0.27097,-0.16766,0
29860,-1.0126,-0.282153,-0.155411,0
29870,-1.00988,-0.293251,-0.142369,0
29900,-1.00769,-0.304401,-0.13073,0
29920,-1.00785,-0.31482,-0.121897,0
29940,-1.00887,-0.323442,-0.113633,0
29960,-1.00913,-0.33065,-0.103269,0
29970,-1.00925,-0.338821,-0.092115,0
29990,-1.01123,-0.345464,-0.0840594,0
30010,-1.01609,-0.347655,-0.081977,0
30030,-1.01978,-0.345158,-0.0819172,0
30050,-1.02128,-0.342738,-0.0787679,0
30070,-1.01965,-0.344733,-0.0716475,0
30090,-1.01653,-0.352811,-0.0620782,0
30110,-1.01543,-0.362986,-0.0526734,0
30130,-1.01761,-0.370937,-0.0468845,0
30150,-1.02145,-0.375964,-0.0428304,0
30170,-1.02634,-0.3789,-0.0408775,0
30190,-1.03157,-0.380299,-0.0411504,0
30210,-1.03477,-0.380836,-0.0458552,0
30230,-1.03582,-0.3798,-0.0540135,0
30250,-1.03542,-0.379144,-0.0626616,0
30270,-1.0333,-0.379464,-0.0707191,0
30290,-1.02954,-0.380493,-0.0779615,0
30310,-1.02481,-0.382132,-0.0853216,0
30330,-1.0188,-0.383941,-0.0926417,0
30350,-1.01278,-0.386313,-0.0995271,0
30370,-1.00814,-0.388625,-0.1075,0
30390,-1.00494,-0.391301,-0.113737,0
30410,-1.00408,-0.393501,-0.118704,0
30430,-1.00487,-0.394209,-0.122776,0
30450,-1.005,-0.393385,-0.12607,0
30470,-1.00487,-0.392081,-0.129089,0
30490,-1.00466,-0.39239,-0.131229,0
30510,-1.00496,-0.394304,-0.134309,0
30530,-1.00367,-0.398539,-0.139006,0
30550,-1.00134,-0.403582,-0.142979,0
30570,-0.998336,-0.408677,-0.145764,0
30590,-0.997115,-0.413493,-0.148995,0
30610,-0.998406,-0.417303,-0.153375,0
30630,-1.00044,-0.419989,-0.158761,0
30650,-1.0033,-0.419289,-0.163839,0
30670,-1.00392,-0.415109,-0.16802,0
30690,-1.00372,-0.410117,-0.168267,0
30710,-1.00067,-0.408002,-0.16631,0
30730,-0.996103,-0.409915,-0.164751,0
30750,-0.989213,-0.415455,-0.168269,0
30770,-0.982536,-0.423783,-0.176092,0
30790,-0.977125,-0.433923,-0.184818,0
30810,-0.974136,-0.444425,-0.193622,0
30830,-0.971692,-0.45378,-0.203505,0
30850,-0.968145,-0.46237,-0.212736,0
30870,-0.963878,-0.471728,-0.218054,0
30890,-0.956806,-0.480636,-0.22043,0
30910,-0.948531,-0.487336,-0.223995,0
30930,-0.94349,-0.490928,-0.22799,0
30950,-0.942046,-0.492728,-0.230449,0
30970,-0.940473,-0.492749,-0.23173,0
30990,-0.936395,-0.49228,-0.233497,0
31010,-0.933836,-0.491271,-0.236204,0
31030,-0.932001,-0.488304,-0.242045,0
31050,-0.928653,-0.481962,-0.252009,0
31070,-0.925613,-0.473193,-0.266799,0
31090,-0.925996,-0.460055,-0.281165,0
31110,-0.921361,-0.446363,-0.295556,0
31130,-0.912866,-0.434044,-0.308951,0
31150,-0.906115,-0.425908,-0.319965,0
31170,-0.89781,-0.423101,-0.330384,0
31190,-0.891635,-0.421351,-0.342175,0
31210,-0.887746,-0.418051,-0.353032,0
31230,-0.883481,-0.412024,-0.363374,0
31250,-0.87587,-0.403848,-0.372178,0
31270,-0.867656,-0.398356,-0.376554,0
31290,-0.865894,-0.39574,-0.374173,0
31310,-0.872571,-0.39391,-0.369506,0
31330,-0.88382,-0.389719,-0.365382,0
31350,-0.895707,-0.387227,-0.3595,0
31370,-0.900157,-0.391755,-0.354358,0
31390,-0.89727,-0.39974,-0.349077,0
31410,-0.895945,-0.405991,-0.341986,0
31430,-0.899848,-0.411417,-0.331889,0
31450,-0.904128,-0.418254,-0.320875,0
31470,-0.908677,-0.42716,-0.3106,0
31490,-0.915048,-0.438527,-0.301513,0
31510,-0.922998,-0.449887,-0.295378,0
31530,-0.929261,-0.457913,-0.292469,0
31550,-0.932329,-0.463067,-0.292273,0
31570,-0.934195,-0.465054,-0.292725,0
31590,-0.936042,-0.463815,-0.293162,0
31610,-0.935805,-0.462285,-0.295648,0
31630,-0.932335,-0.46042,-0.298866,0
31650,-0.92441,-0.458605,-0.302555,0
31670,-0.91323,-0.459436,-0.307424,0
31690,-0.900375,-0.459462,-0.314924,0
31710,-0.888764,-0.454423,-0.323929,0
31730,-0.878,-0.446284,-0.335764,0
31750,-0.865344,-0.437272,-0.349528,0
31770,-0.852524,-0.429144,-0.361161,0
31790,-0.844035,-0.423502,-0.369112,0
31810,-0.839031,-0.418373,-0.375303,0
31830,-0.838331,-0.412808,-0.381798,0
31850,-0.838115,-0.406858,-0.390614,0
31870,-0.837,-0.400467,-0.397941,0
31890,-0.835031,-0.391803,-0.40157,0
31910,-0.832925,-0.383224,-0.397686,0
31930,-0.830002,-0.375856,-0.385526,0
31950,-0.832731,-0.369814,-0.372541,0
31970,-0.840083,-0.361791,-0.361227,0
31990,-0.849972,-0.35025,-0.352804,0
32010,-0.862799,-0.336085,-0.339594,0
32030,-0.884414,-0.323335,-0.31825,0
32050,-0.912535,-0.310342,-0.297236,0
32070,-0.942236,-0.296156,-0.28066,0
32090,-0.97118,-0.283762,-0.265999,0
32110,-1.00611,-0.268758,-0.251809,0
32130,-1.04128,-0.251099,-0.240981,0
32150,-1.08087,-0.2291,-0.231945,0
32170,-1.12081,-0.208729,-0.221166,0
32190,-1.16196,-0.191986,-0.208961,0
32210,-1.20428,-0.173377,-0.194682,0
32230,-1.24779,-0.146672,-0.182363,0
32250,-1.28254,-0.116099,-0.170255,0
32270,-1.30416,-0.0994203,-0.162496,0
32290,-1.31204,-0.0951274,-0.157518,0
32310,-1.30463,-0.100414,-0.149065,0
32330,-1.28203,-0.113388,-0.135121,0
32350,-1.25347,-0.133363,-0.121805,0
32370,-1.22594,-0.156714,-0.116745,0
32390,-1.20113,-0.178367,-0.118438,0
32410,-1.17689,-0.196766,-0.122094,0
32430,-1.15365,-0.212977,-0.123853,0
32450,-1.13056,-0.227662,-0.121999,0
32470,-1.10717,-0.240004,-0.117369,0
32490,-1.08552,-0.248976,-0.111831,0
32500,-1.06938,-0.253516,-0.106459,0
32520,-1.06392,-0.251727,-0.100295,0
32540,-1.06711,-0.243585,-0.0916863,0
32560,-1.07176,-0.232243,-0.0815705,0
32580,-1.07614,-0.22207,-0.0728532,0
32600,-1.07954,-0.213893,-0.0672311,0
32620,-1.08056,-0.207425,-0.0629675,0
32640,-1.08023,-0.201168,-0.0578445,0
32660,-1.07891,-0.196051,-0.0528469,0
32680,-1.07611,-0.194187,-0.0513233,0
32700,-1.07295,-0.193414,-0.0511852,0
32720,-1.07012,-0.193639,-0.0510014,0
32740,-1.06648,-0.194309,-0.0504792,0
32760,-1.06281,-0.194536,-0.0499312,0
32780,-1.05924,-0.193359,-0.0496349,0
32800,-1.05786,-0.19243,-0.0487256,0
32820,-1.05795,-0.192462,-0.0475575,0
32840,-1.05966,-0.193059,-0.0459231,0
32860,-1.06111,-0.193717,-0.0444296,0
32880,-1.06192,-0.193467,-0.0429315,0
32900,-1.06279,-0.193206,-0.0411657,0
32920,-1.06362,-0.192328,-0.0393277,0
32940,-1.06403,-0.190711,-0.0372557,0
32960,-1.06357,-0.189476,-0.0354592,0
32980,-1.06246,-0.188491,-0.0344104,0
33000,-1.06118,-0.187638,-0.034321,0
33020,-1.05971,-0.187,-0.0343837,0
33040,-1.05844,-0.186815,-0.034465,0
33060,-1.05748,-0.187597,-0.0342243,0
33080,-1.05659,-0.188726,-0.0333534,0
33100,-1.05548,-0.190152,-0.0320474,0
33120,-1.05553,-0.191603,-0.0306378,0
33140,-1.05665,-0.192722,-0.0297458,2000
33160,-1.05773,-0.193056,-0.0287338,0
33180,-1.05845,-0.193653,-0.0274792,0
33200,-1.05869,-0.195064,-0.0254962,0
33220,-1.05881,-0.197441,-0.0239614,0
33240,-1.05971,-0.200146,-0.0231406,0
33260,-1.06039,-0.202571,-0.0230752,0
33280,-1.06126,-0.204548,-0.0227013,0
33300,-1.06163,-0.205602,-0.0220336,0
33300,-1.06163,-0.205602,-0.0220336,0
33310,-1.05553,-0.191603,-0.0306378,0
33340,-1.06166,-0.206189,-0.0208463,0
33360,-1.06156,-0.207124,-0.0193046,0
33380,-1.06181,-0.208553,-0.0175911,0
33400,-1.0623,-0.210059,-0.0162243,0
33410,-1.06246,-0.21074,-0.0149475,0
33430,-1.06212,-0.210649,-0.0143412,0
33450,-1.06159,-0.210541,-0.0137382,0
33470,-1.061,-0.211034,-0.0129477,0
33490,-1.05996,-0.211721,-0.0120653,0
33510,-1.05857,-0.212305,-0.0110313,0
33530,-1.05739,-0.212765,-0.0100165,0
33550,-1.05657,-0.212367,-0.00820819,0
33570,-1.05671,-0.21219,-0.00545545,0
33590,-1.05767,-0.212628,-0.00196625,0
33610,-1.06034,-0.213788,0.00241353,0
33630,-1.0643,-0.215385,0.00762376,0
33660,-1.07481,-0.220209,0.0205226,0
33680,-1.08172,-0.223062,0.0276388,0
33700,-1.08864,-0.226923,0.0356776,0
33700,-1.09518,-0.233048,0.0444086,0
33720,-1.10191,-0.240048,0.0540629,0
33740,-1.10875,-0.247357,0.0634365,0
33780,-1.12659,-0.267081,0.0863705,0
33800,-1.13232,-0.273959,0.0937361,0
33820,-1.13737,-0.282217,0.0995943,0
33840,-1.14196,-0.290815,0.103755,0
33860,-1.14645,-0.300208,0.107157,0
33880,-1.15109,-0.310484,0.110178,0
33900,-1.15547,-0.322005,0.112882,0
33920,-1.15936,-0.333884,0.114413,0
33940,-1.16332,-0.346153,0.114949,0
33960,-1.16685,-0.359056,0.114088,0
33980,-1.16993,-0.371894,0.111057,0
34000,-1.17264,-0.383778,0.105655,0
34020,-1.17511,-0.394654,0.0974603,0
34060,-1.1796,-0.414955,0.0729373,0
34080,-1.18053,-0.425026,0.0566012,0
34100,-1.18099,-0.434974,0.0379263,0
34120,-1.18104,-0.445187,0.0161085,0
34120,-1.18007,-0.45503,-0.0091636,0
34150,-1.16662,-0.485394,-0.0958348,0
34160,-1.1465,-0.52129,-0.189515,0
34180,-1.13788,-0.533856,-0.222071,0
34200,-1.13015,-0.543509,-0.253513,0
34220,-1.11193,-0.564035,-0.343613,0
34240,-1.10607,-0.568832,-0.372674,0
34260,-1.09914,-0.572407,-0.400383,0
34280,-1.09172,-0.575815,-0.42695,0
34300,-1.08386,-0.577888,-0.452388,0
34320,-1.07693,-0.578075,-0.477483,0
34340,-1.07065,-0.577546,-0.501383,0
34360,-1.06395,-0.576343,-0.523565,0
34380,-1.05711,-0.575205,-0.542222,0
34400,-1.04985,-0.57425,-0.559476,0
34420,-1.0424,-0.571249,-0.575815,0
34440,-1.03426,-0.567427,-0.591078,0
34460,-1.02533,-0.563813,-0.605232,0
34480,-1.01732,-0.558138,-0.617225,0
34500,-1.00935,-0.550039,-0.625693,0
34520,-0.999444,-0.541903,-0.63216,0
34540,-0.98943,-0.534233,-0.637742,0
34560,-0.983012,-0.527373,-0.640836,0
34580,-0.978175,-0.5198,-0.642445,0
34600,-0.972962,-0.511938,-0.642632,0
34620,-0.969385,-0.502717,-0.638738,0
34640,-0.967414,-0.492352,-0.631306,0
34660,-0.966711,-0.482661,-0.623509,0
34680,-0.967165,-0.474605,-0.614989,0
34700,-0.969177,-0.467333,-0.605383,0
34720,-0.972604,-0.460402,-0.593872,0
34740,-0.977031,-0.453213,-0.58126,0
34760,-0.980927,-0.445243,-0.567055,0
34780,-0.984465,-0.436482,-0.551463,0
34800,-0.987778,-0.427191,-0.535726,0
34820,-0.991861,-0.417282,-0.519416,0
34840,-0.99601,-0.407238,-0.503147,0
34860,-1.00036,-0.396639,-0.486418,0
34880,-1.00574,-0.385678,-0.469041,0
34900,-1.01131,-0.375428,-0.452162,0
34920,-1.01739,-0.365472,-0.434956,0
34940,-1.02231,-0.357143,-0.416888,0
34960,-1.02631,-0.350698,-0.398316,0
34980,-1.02992,-0.345753,-0.37987,0
35000,-1.03363,-0.341355,-0.361947,0
35020,-1.03804,-0.338763,-0.344176,0
35040,-1.04212,-0.337667,-0.326067,0
35060,-1.04585,-0.337487,-0.307378,0
35080,-1.04968,-0.338443,-0.289177,0
35100,-1.05466,-0.340242,-0.270855,0
35120,-1.06005,-0.342556,-0.252141,0
35140,-1.06667,-0.344633,-0.232956,0
35160,-1.07479,-0.346772,-0.213517,0
35180,-1.08318,-0.348877,-0.193441,0
35200,-1.09216,-0.351577,-0.172919,0
35220,-1.10281,-0.35391,-0.152471,0
35230,-1.11387,-0.356936,-0.131887,0
35250,-1.12497,-0.36147,-0.110933,0
35270,-1.1352,-0.366136,-0.089725,0
35290,-1.14483,-0.37092,-0.0683668,0
35310,-1.15419,-0.377081,-0.0473226,0
35330,-1.16451,-0.384844,-0.0254941,0
35350,-1.1745,-0.39391,-0.00336499,0
35370,-1.18449,-0.40351,0.0176598,0
35390,-1.19332,-0.41285,0.0367451,0
35410,-1.20282,-0.422249,0.056305,0
35430,-1.21287,-0.432689,0.0759344,0
35450,-1.22345,-0.444388,0.0956032,0
35470,-1.23347,-0.456187,0.114845,0
35490,-1.24316,-0.467565,0.133339,0
35510,-1.25286,-0.479242,0.150782,0
35530,-1.26327,-0.490358,0.168278,0
35550,-1.27331,-0.502065,0.184768,0
35570,-1.28313,-0.514591,0.200195,0
35590,-1.29313,-0.52677,0.215795,0
35610,-1.30223,-0.539243,0.229416,0
35630,-1.31123,-0.551275,0.240925,0
35650,-1.32024,-0.563723,0.251368,0
35670,-1.32955,-0.577357,0.26087,0
35690,-1.33859,-0.592561,0.269156,0
35710,-1.3465,-0.608666,0.274763,0
35730,-1.35262,-0.623563,0.276636,0
35750,-1.35735,-0.638237,0.274781,0
35770,-1.36072,-0.654088,0.271103,0
35790,-1.36311,-0.671853,0.265903,0
35810,-1.36436,-0.690258,0.258182,0
35830,-1.36483,-0.708346,0.246818,0
35850,-1.36232,-0.726404,0.230119,0
35860,-1.35723,-0.743578,0.208026,0
35880,-1.3505,-0.760089,0.183177,0
35900,-1.34181,-0.776491,0.15513,0
35920,-1.33172,-0.792508,0.124259,0
35940,-1.31859,-0.807982,0.0896223,0
35960,-1.30177,-0.822342,0.0512535,0
35980,-1.28183,-0.83506,0.0100084,0
36000,-1.25922,-0.846254,-0.0349309,0
36020,-1.23514,-0.856393,-0.0824764,0
36040,-1.20934,-0.865793,-0.133469,0
36060,-1.18171,-0.874981,-0.186431,0
36080,-1.15154,-0.880648,-0.241678,0
36100,-1.11559,-0.879532,-0.302027,0
36120,-1.07809,-0.877208,-0.36226,0
36140,-1.04121,-0.875787,-0.418355,0
36160,-1.00637,-0.873,-0.470531,0
36180,-0.971529,-0.867579,-0.521383,0
36200,-0.938511,-0.858252,-0.569402,0
36220,-0.911312,-0.844157,-0.609009,0
36240,-0.892216,-0.823841,-0.638161,0
36260,-0.875323,-0.801721,-0.661392,0
36280,-0.861499,-0.780987,-0.680194,0
36300,-0.850765,-0.762681,-0.694508,0
36320,-0.846288,-0.741242,-0.698575,0
36340,-0.846156,-0.717127,-0.6982,0
36360,-0.850906,-0.692888,-0.698231,0
36380,-0.866139,-0.66699,-0.694954,0
36400,-0.886546,-0.639141,-0.68481,0
36420,-0.902492,-0.611813,-0.670903,0
36440,-0.912542,-0.585995,-0.65677,0
36460,-0.923924,-0.5608,-0.641635,0
36480,-0.940196,-0.536641,-0.622469,0
36500,-0.958078,-0.514703,-0.600524,0
36520,-0.978402,-0.495486,-0.57607,0
36540,-1.00086,-0.47903,-0.548618,0
36560,-1.02443,-0.465489,-0.519213,0
36580,-1.04817,-0.454481,-0.486866,0
36600,-1.07134,-0.446676,-0.452177,0
36620,-1.09365,-0.4432,-0.416107,0
36640,-1.1156,-0.443288,-0.378431,0
36660,-1.13688,-0.446485,-0.339939,0
36680,-1.15577,-0.456676,-0.301285,0
36700,-1.17546,-0.468661,-0.261892,0
36720,-1.19484,-0.480728,-0.220778,0
36740,-1.21469,-0.493603,-0.17863,0
36760,-1.23555,-0.508586,-0.135347,0
36780,-1.25865,-0.524257,-0.0925081,0
36800,-1.28062,-0.539867,-0.0501447,0
36820,-1.30161,-0.555255,-0.00744614,0
36840,-1.32285,-0.572289,0.0340343,0
36860,-1.34451,-0.59069,0.0748632,0
36880,-1.36741,-0.610714,0.11348,0
36900,-1.38746,-0.633348,0.149657,0
36920,-1.40942,-0.656102,0.185959,0
36940,-1.43286,-0.679793,0.218941,0
36960,-1.45571,-0.707166,0.249498,0
36980,-1.47707,-0.735517,0.277833,0
37000,-1.49814,-0.76552,0.303895,0
37020,-1.51934,-0.796556,0.326873,0
37040,-1.53952,-0.82936,0.346484,0
37060,-1.55835,-0.863367,0.363486,0
37080,-1.57805,-0.896418,0.378655,0
37100,-1.59809,-0.929917,0.390033,0
37120,-1.61593,-0.964937,0.396716,0
37140,-1.63076,-1.00009,0.398744,0
37160,-1.64259,-1.03346,0.39582,0
37180,-1.64627,-1.06535,0.381308,0
37200,-1.64164,-1.0967,0.357121,0
37220,-1.62908,-1.12714,0.323267,0
37240,-1.60435,-1.15604,0.275486,0
37260,-1.56401,-1.18204,0.211259,0
37280,-1.50909,-1.20346,0.131841,0
37300,-1.42958,-1.21848,0.0276833,0
37320,-1.33785,-1.22719,-0.0887702,0
37340,-1.24428,-1.22761,-0.205654,0
37360,-1.15644,-1.22051,-0.314441,0
37380,-1.0764,-1.2069,-0.410358,0
37400,-1.0066,-1.18832,-0.492753,0
37420,-0.947345,-1.16533,-0.561404,0
37440,-0.896733,-1.13774,-0.617017,0
37460,-0.852057,-1.10735,-0.663109,0
37480,-0.811516,-1.0781,-0.703492,0
37500,-0.778877,-1.04712,-0.73386,0
37520,-0.75532,-1.01649,-0.75532,0
37540,-0.740549,-0.986912,-0.770838,0
37560,-0.739457,-0.956385,-0.778852,0
37580,-0.745673,-0.922534,-0.782532,0
37600,-0.756737,-0.888662,-0.781509,0
37620,-0.772267,-0.856366,-0.775476,0
37640,-0.791045,-0.825451,-0.764967,0
37660,-0.813561,-0.795211,-0.749867,0
37680,-0.839215,-0.766025,-0.731162,0
37700,-0.866516,-0.739028,-0.71082,0
37720,-0.89915,-0.715449,-0.687941,0
37740,-0.935026,-0.694773,-0.661483,0
37760,-0.972876,-0.67793,-0.631971,0
37780,-1.01144,-0.664773,-0.599507,0
37800,-1.05034,-0.655261,-0.564318,0
37820,-1.0867,-0.649746,-0.527447,0
37840,-1.12119,-0.647858,-0.48841,0
37860,-1.15619,-0.648307,-0.446079,0
37880,-1.19274,-0.650254,-0.401372,0
37900,-1.22786,-0.656618,-0.356235,0
37920,-1.26265,-0.664153,-0.309556,0
37940,-1.29716,-0.671932,-0.261442,0
37960,-1.33379,-0.679863,-0.211486,0
37980,-1.37307,-0.687605,-0.159673,0
38000,-1.41097,-0.695205,-0.108122,0
38020,-1.44651,-0.701815,-0.0576165,0
38040,-1.48018,-0.709124,-0.00794837,0
38060,-1.51075,-0.717612,0.040955,0
38080,-1.53947,-0.725988,0.0881277,0
38100,-1.56461,-0.735289,0.132666,0
38120,-1.58945,-0.747524,0.175636,0
38140,-1.61114,-0.763348,0.217009,0
38160,-1.63053,-0.781167,0.258745,0
38180,-1.65399,-0.800389,0.300633,0
38200,-1.67677,-0.818914,0.338603,0
38220,-1.69535,-0.839126,0.373003,0
38240,-1.71022,-0.861674,0.406751,0
38260,-1.72668,-0.885289,0.438714,0
38280,-1.74337,-0.907899,0.466431,0
38300,-1.75596,-0.930725,0.488334,0
38320,-1.76773,-0.952495,0.508984,0
38340,-1.78272,-0.974443,0.528534,0
38360,-1.79687,-0.995064,0.543972,0
38380,-1.80622,-1.01184,0.555207,0
38400,-1.81469,-1.02456,0.56227,0
38420,-1.81933,-1.03613,0.564818,0
38440,-1.82403,-1.04644,0.56692,0
38460,-1.82842,-1.05404,0.567481,0
38480,-1.82901,-1.05872,0.562346,0
38500,-1.82583,-1.06124,0.553099,0
38520,-1.82252,-1.06069,0.544216,2001
38540,-1.81694,-1.0589,0.533087,0
38560,-1.80945,-1.05543,0.520471,0
38580,-1.80247,-1.05008,0.508496,0
38600,-1.79537,-1.04449,0.49801,0
38620,-1.79241,-1.04051,0.491956,0
38630,-1.78958,-1.03634,0.485904,0
38650,-1.78479,-1.03217,0.477571,0
38670,-1.77887,-1.02995,0.468013,0
38690,-1.77646,-1.02812,0.463995,0
38710,-1.77423,-1.02637,0.462144,0
38730,-1.76771,-1.02219,0.458262,0
38750,-1.76069,-1.01688,0.454762,0
38770,-1.75885,-1.01385,0.454897,0
38790,-1.75884,-1.01327,0.454734,0
38810,-1.75747,-1.01528,0.452802,0
38830,-1.7557,-1.01637,0.451838,0
38850,-1.75467,-1.01613,0.4493,0
38870,-1.75306,-1.01532,0.447403,0
38890,-1.75634,-1.01387,0.449469,0
38910,-1.7598,-1.00851,0.451963,0
38930,-1.76192,-0.998721,0.45383,0
38950,-1.75976,-0.986243,0.4504,0
38970,-1.75022,-0.973832,0.438244,0
38990,-1.73751,-0.960887,0.424081,0
39010,-1.72228,-0.945013,0.409451,0
39030,-1.7031,-0.924922,0.39145,0
39050,-1.6798,-0.899791,0.371477,0
39070,-1.65231,-0.87612,0.345907,0
39090,-1.61666,-0.853367,0.315207,0
39110,-1.57907,-0.828123,0.284962,0
39130,-1.53942,-0.800425,0.255995,0
39150,-1.50023,-0.77177,0.227519,0
39170,-1.46174,-0.742873,0.199584,0
39190,-1.42746,-0.714908,0.173769,0
39210,-1.39871,-0.688082,0.147927,0
39230,-1.3711,-0.660633,0.124102,0
39250,-1.34588,-0.633073,0.105871,0
39270,-1.32401,-0.606843,0.0898638,0
39290,-1.30437,-0.58206,0.0739732,0
39310,-1.2878,-0.560804,0.061265,0
39330,-1.27588,-0.5441,0.0522534,0
39350,-1.26684,-0.531396,0.0438886,0
39370,-1.25823,-0.519965,0.0354516,0
39390,-1.24939,-0.509983,0.0265582,0
39410,-1.24221,-0.502025,0.0176802,0
39430,-1.23655,-0.495403,0.00840187,0
39450,-1.23214,-0.488236,-0.00087309,0
39470,-1.22613,-0.480517,-0.00996196,0
39490,-1.22125,-0.471593,-0.0192182,0
39510,-1.21727,-0.463259,-0.02884,0
39530,-1.21392,-0.454981,-0.0385715,0
39550,-1.21066,-0.447623,-0.0489268,0
39570,-1.20849,-0.438136,-0.0578775,0
39590,-1.20588,-0.428638,-0.0644865,0
39610,-1.20304,-0.420413,-0.0703553,0
39630,-1.19991,-0.41366,-0.07492,0
39650,-1.19849,-0.40753,-0.0775244,0
39670,-1.19781,-0.403566,-0.0791436,0
39690,-1.19696,-0.40102,-0.0806869,0
39710,-1.19615,-0.39891,-0.0824136,0
39730,-1.19447,-0.396734,-0.0829543,0
39750,-1.19279,-0.394022,-0.0816111,2000
39770,-1.19143,-0.391169,-0.0799728,0
39790,-1.19134,-0.388539,-0.078116,0
39810,-1.19295,-0.386352,-0.0764795,0
39830,-1.19399,-0.384697,-0.0746765,0
39850,-1.19469,-0.383155,-0.0733452,0
39870,-1.19518,-0.381017,-0.0727269,0
39890,-1.19747,-0.377625,-0.0707193,0
39910,-1.19962,-0.372298,-0.067471,0
39930,-1.19933,-0.366413,-0.0648635,0
39950,-1.19728,-0.361149,-0.0624592,0
39970,-1.19427,-0.356969,-0.0598708,0
39990,-1.19242,-0.354499,-0.0568778,0
40010,-1.19227,-0.352789,-0.0522043,0
40030,-1.1925,-0.352127,-0.0456957,0
40050,-1.19297,-0.353451,-0.0381005,0
40070,-1.19328,-0.35678,-0.0303983,0
40090,-1.19274,-0.361962,-0.0229327,0
40110,-1.19235,-0.368992,-0.0137295,0
40130,-1.19238,-0.376537,-0.00318553,0
40150,-1.19335,-0.384424,0.00730338,0
40170,-1.19685,-0.393456,0.017043,0
40190,-1.20368,-0.403186,0.0288664,0
40210,-1.21131,-0.412817,0.0429567,0
40230,-1.21763,-0.421634,0.0573518,0
40250,-1.22312,-0.430687,0.0697291,0
40270,-1.22896,-0.440495,0.0802388,0
40290,-1.23477,-0.449184,0.0908254,0
40310,-1.23882,-0.457067,0.101653,0
40330,-1.2412,-0.465843,0.111846,0
40350,-1.24346,-0.475996,0.120388,0
40370,-1.245,-0.485487,0.127116,0
40390,-1.24625,-0.495587,0.131449,0
40410,-1.24738,-0.506722,0.134164,0
40430,-1.24827,-0.518889,0.134071,0
40450,-1.2485,-0.5315,0.13039,0
40470,-1.24772,-0.544275,0.123857,0
40490,-1.24659,-0.557653,0.114832,0
40510,-1.24439,-0.57187,0.101937,0
40530,-1.23918,-0.585846,0.0831895,0
40550,-1.23188,-0.59961,0.0584313,0
40570,-1.22335,-0.612543,0.0303822,0
40590,-1.21347,-0.625136,-0.000866069,0
40610,-1.20172,-0.636721,-0.0360224,0
40630,-1.18616,-0.647668,-0.0753622,0
40640,-1.16791,-0.657433,-0.117754,0
40660,-1.14751,-0.666268,-0.162228,0
40680,-1.12534,-0.675984,-0.206953,0
40690,-1.10294,-0.686021,-0.251618,0
40710,-1.07841,-0.696707,-0.299223,0
40730,-1.05287,-0.705917,-0.349295,0
40750,-1.00553,-0.71656,-0.449995,0
40750,-0.947969,-0.72393,-0.578251,0
40770,-0.930246,-0.726991,-0.615097,0
40780,-0.912551,-0.726644,-0.649677,0
40800,-0.896632,-0.722764,-0.681804,0
40820,-0.880276,-0.716853,-0.711874,0
40830,-0.865436,-0.708669,-0.737064,0
40850,-0.851412,-0.698226,-0.756396,0
40870,-0.837134,-0.687174,-0.770703,0
40890,-0.820598,-0.675317,-0.782115,0
40910,-0.805813,-0.661417,-0.792449,0
40930,-0.796275,-0.648089,-0.800347,0
40950,-0.794092,-0.631809,-0.802296,0
40970,-0.798545,-0.61203,-0.797984,0
40990,-0.804863,-0.590358,-0.78983,0
41010,-0.811955,-0.568347,-0.7789,0
41030,-0.821087,-0.546877,-0.766283,0
41050,-0.82977,-0.52614,-0.753106,0
41070,-0.838847,-0.505657,-0.740717,0
41090,-0.850933,-0.484722,-0.726574,0
41110,-0.864706,-0.462814,-0.709336,0
41130,-0.877071,-0.442227,-0.690549,0
41150,-0.889585,-0.423313,-0.671444,0
41170,-0.901471,-0.405048,-0.651796,0
41190,-0.914479,-0.387875,-0.630539,0
41210,-0.927116,-0.373692,-0.607419,0
41230,-0.941577,-0.363109,-0.583645,0
41250,-0.958343,-0.353612,-0.559382,0
41270,-0.975609,-0.346459,-0.533404,0
41290,-0.992128,-0.342448,-0.504876,0
41310,-1.00894,-0.342296,-0.47484,0
41330,-1.02771,-0.34586,-0.443794,0
41350,-1.04818,-0.351279,-0.411507,0
41370,-1.06926,-0.35723,-0.377234,0
41390,-1.08925,-0.364005,-0.341487,0
41410,-1.10738,-0.377237,-0.306176,0
41430,-1.1264,-0.39212,-0.270099,0
41450,-1.14588,-0.407924,-0.233174,0
41470,-1.16691,-0.424049,-0.194732,0
41490,-1.18977,-0.440878,-0.156418,0
41510,-1.21223,-0.458656,-0.11967,0
41530,-1.23036,-0.477096,-0.0838082,0
41550,-1.24797,-0.496134,-0.0490865,0
41570,-1.26618,-0.514762,-0.0149765,0
41590,-1.28233,-0.534829,0.0179109,0
41610,-1.29879,-0.555377,0.0497413,0
41630,-1.3141,-0.579108,0.0783816,0
41650,-1.33016,-0.605645,0.101667,0
41670,-1.34451,-0.634456,0.122566,0
41690,-1.35835,-0.665456,0.141702,0
41710,-1.37196,-0.697257,0.158618,0
41730,-1.38421,-0.728474,0.170705,0
41750,-1.39491,-0.758081,0.178817,0
41770,-1.40124,-0.791806,0.181416,0
41790,-1.40947,-0.828194,0.182823,0
41810,-1.41873,-0.864007,0.181746,0
41830,-1.42678,-0.899577,0.174246,0
41850,-1.43172,-0.935985,0.15899,0
41870,-1.4326,-0.971306,0.136574,0
41890,-1.42848,-1.00582,0.10725,0
41910,-1.41918,-1.03751,0.0724187,0
41930,-1.4023,-1.06651,0.0291709,0
41950,-1.37421,-1.09348,-0.0256123,0
41970,-1.3328,-1.11698,-0.0929784,0
41990,-1.28033,-1.13469,-0.170944,0
42010,-1.21163,-1.14317,-0.265319,0
42030,-1.13849,-1.14527,-0.363032,0
42050,-1.06495,-1.1417,-0.458591,0
42070,-0.994082,-1.13169,-0.547678,0
42090,-0.930995,-1.11358,-0.626667,0
42110,-0.875863,-1.08972,-0.693382,0
42130,-0.825854,-1.06476,-0.749295,0
42150,-0.780498,-1.04138,-0.796332,0
42170,-0.747637,-1.01435,-0.828426,0
42190,-0.718253,-0.984287,-0.850931,0
42210,-0.693017,-0.954147,-0.863316,0
42230,-0.670467,-0.925147,-0.8735,0
42250,-0.668333,-0.894897,-0.870428,0
42270,-0.677116,-0.863148,-0.858986,0
42290,-0.68696,-0.830165,-0.845495,0
42310,-0.699149,-0.796433,-0.83252,0
42330,-0.717299,-0.763568,-0.817774,0
42350,-0.740102,-0.732433,-0.799281,0
42370,-0.764388,-0.702926,-0.777117,0
42390,-0.789207,-0.675255,-0.752522,0
42410,-0.816401,-0.649606,-0.725874,0
42430,-0.846319,-0.62654,-0.698143,0
42450,-0.877649,-0.605428,-0.668989,0
42470,-0.908452,-0.587462,-0.638685,0
42490,-0.942247,-0.570958,-0.605734,0
42510,-0.979719,-0.55622,-0.570707,0
42530,-1.01876,-0.544883,-0.534591,0
42550,-1.05457,-0.53705,-0.498612,0
42570,-1.08837,-0.533655,-0.460741,0
42590,-1.12202,-0.533979,-0.41976,0
42610,-1.15575,-0.535166,-0.376764,0
42630,-1.1852,-0.54331,-0.335211,0
42650,-1.2149,-0.554673,-0.292576,0
42670,-1.24608,-0.568485,-0.247508,0
42690,-1.2773,-0.584051,-0.201751,0
42710,-1.30749,-0.600899,-0.155538,0
42730,-1.33574,-0.619322,-0.109364,0
42750,-1.36362,-0.640151,-0.0641851,0
42770,-1.3894,-0.661971,-0.0208127,0
42790,-1.41272,-0.686151,0.0214878,0
42810,-1.43334,-0.713353,0.0630351,0
42830,-1.45393,-0.746683,0.1036,0
42850,-1.4769,-0.782911,0.141943,0
42870,-1.50236,-0.821668,0.178696,0
42890,-1.52645,-0.86138,0.212873,0
42910,-1.54935,-0.902674,0.244197,0
42930,-1.5659,-0.943275,0.268279,0
42950,-1.5825,-0.985777,0.287298,0
42970,-1.59765,-1.02787,0.301089,0
42990,-1.6076,-1.06915,0.307746,0
43010,-1.61174,-1.10998,0.303484,0
43030,-1.60496,-1.15049,0.28383,0
43050,-1.58369,-1.18898,0.248511,0
43070,-1.55879,-1.22426,0.207087,0
43090,-1.51409,-1.2574,0.143285,0
43110,-1.44121,-1.28753,0.0488126,0
43130,-1.33902,-1.31109,-0.0761014,0
43150,-1.21021,-1.32567,-0.226379,0
43170,-1.06096,-1.32715,-0.394243,0
43190,-0.926141,-1.31628,-0.546163,0
43210,-0.813612,-1.29365,-0.671071,0
43230,-0.723924,-1.26635,-0.77057,0
43250,-0.650914,-1.23574,-0.851433,0
43270,-0.598852,-1.19984,-0.908478,0
43290,-0.554998,-1.16552,-0.953493,0
43310,-0.526424,-1.1292,-0.979973,0
43330,-0.521336,-1.08401,-0.980259,0
43350,-0.503927,-1.04985,-0.994078,0
43370,-0.499241,-1.01426,-1.00131,0
43390,-0.509794,-0.976834,-1.0017,0
43410,-0.529585,-0.9396,-0.997145,0
43430,-0.552996,-0.904348,-0.987333,0
43450,-0.579807,-0.873224,-0.971748,0
43470,-0.606354,-0.845755,-0.9557,0
43490,-0.637035,-0.820328,-0.939417,0
43510,-0.6738,-0.795636,-0.920858,0
43530,-0.714132,-0.772688,-0.899221,0
43550,-0.755331,-0.752402,-0.875375,0
43570,-0.798194,-0.734841,-0.848595,0
43590,-0.838356,-0.719538,-0.822049,0
43610,-0.875888,-0.708979,-0.795065,0
43630,-0.916314,-0.701992,-0.764402,0
43650,-0.958566,-0.696857,-0.730653,0
43670,-1.00225,-0.693788,-0.692826,0
43690,-1.04098,-0.692664,-0.654413,0
43710,-1.07602,-0.695696,-0.615038,0
43730,-1.11233,-0.702004,-0.571927,0
43750,-1.15047,-0.709533,-0.525609,0
43770,-1.18512,-0.721599,-0.481327,0
43790,-1.22207,-0.734793,-0.434512,0
43810,-1.2627,-0.747263,-0.384156,0
43830,-1.30565,-0.758084,-0.331215,0
43850,-1.34982,-0.768303,-0.278773,0
43870,-1.39444,-0.779226,-0.224646,0
43890,-1.44334,-0.790288,-0.167562,0
43910,-1.49362,-0.79956,-0.110596,0
43930,-1.54171,-0.808157,-0.0548876,0
43950,-1.58761,-0.817336,-0.00167372,0
43960,-1.63044,-0.827023,0.0496368,0
43980,-1.66915,-0.83723,0.0996447,0
44000,-1.70284,-0.848261,0.146526,0
44020,-1.73439,-0.861842,0.190656,0
44040,-1.76395,-0.876845,0.231891,0
44060,-1.79053,-0.891137,0.268718,0
44080,-1.8112,-0.905129,0.29915,0
44100,-1.82389,-0.919405,0.323163,0
44120,-1.83239,-0.935639,0.343387,0
44140,-1.83716,-0.953257,0.35795,0
44160,-1.83638,-0.971586,0.367412,0
44180,-1.83235,-0.989583,0.373866,0
44200,-1.8317,-1.00847,0.380703,0
44220,-1.82836,-1.02714,0.382783,2001
44240,-1.82389,-1.04056,0.383255,0
44260,-1.8172,-1.05454,0.381708,0
44280,-1.80873,-1.0678,0.377544,0
44300,-1.80377,-1.08084,0.375568,0
44320,-1.8001,-1.09288,0.372318,0
44340,-1.79656,-1.10147,0.367763,0
44360,-1.79421,-1.10786,0.362544,0
44380,-1.79662,-1.11256,0.35948,0
44400,-1.79938,-1.11623,0.357533,0
44420,-1.8037,-1.11522,0.358108,0
44440,-1.80353,-1.10953,0.354537,0
44460,-1.80325,-1.1007,0.351604,0
44480,-1.80783,-1.09171,0.352349,0
44500,-1.80418,-1.08632,0.346449,0
44520,-1.80297,-1.0886,0.341909,0
44540,-1.79878,-1.09107,0.337303,0
44560,-1.79538,-1.08989,0.335017,0
44580,-1.79023,-1.08459,0.332171,0
44600,-1.77963,-1.07906,0.321981,0
44620,-1.7631,-1.0743,0.305438,0
44640,-1.74084,-1.06682,0.285064,0
44660,-1.71592,-1.05555,0.263106,0
44680,-1.68842,-1.0423,0.238284,0
44700,-1.65622,-1.02613,0.21047,0
44720,-1.62343,-1.00472,0.183259,0
44740,-1.59221,-0.978714,0.156396,0
44760,-1.55964,-0.949854,0.12791,0
44780,-1.52434,-0.919305,0.0970062,0
44800,-1.48619,-0.888329,0.0648486,0
44820,-1.44685,-0.854374,0.0335868,0
44840,-1.40484,-0.819553,-0.000473535,0
44860,-1.36019,-0.78033,-0.0361615,0
44880,-1.31448,-0.739248,-0.0677801,0
44900,-1.27379,-0.698729,-0.0937067,0
44920,-1.23946,-0.665246,-0.113004,0
44940,-1.20849,-0.632556,-0.129804,0
44960,-1.186,-0.601814,-0.13943,0
44980,-1.17339,-0.572538,-0.143521,0
45000,-1.16049,-0.548803,-0.1479,0
45020,-1.15126,-0.527277,-0.149386,0
45040,-1.14603,-0.507765,-0.149953,0
45060,-1.14412,-0.490602,-0.15028,0
45080,-1.14128,-0.475275,-0.149586,0
45100,-1.13777,-0.460583,-0.147751,0
45120,-1.13577,-0.448937,-0.147295,0
45140,-1.13395,-0.438887,-0.148527,0
45160,-1.13108,-0.429544,-0.151848,0
45180,-1.13027,-0.418568,-0.157174,0
45200,-1.12913,-0.409295,-0.162274,0
45220,-1.12686,-0.403645,-0.165385,0
45240,-1.12366,-0.400857,-0.16596,0
45260,-1.12015,-0.399265,-0.165984,0
45280,-1.11648,-0.398494,-0.166429,2000
45300,-1.11445,-0.398582,-0.166082,0
45320,-1.11466,-0.398959,-0.164768,0
45340,-1.11665,-0.400271,-0.162055,0
45360,-1.11969,-0.402869,-0.157583,0
45380,-1.12208,-0.405688,-0.15367,0
45400,-1.1245,-0.407909,-0.149506,0
45420,-1.12783,-0.40981,-0.145244,0
45440,-1.13181,-0.410228,-0.139403,0
45460,-1.13565,-0.40894,-0.132129,0
45480,-1.13898,-0.406404,-0.124479,0
45500,-1.1416,-0.404384,-0.116961,0
45520,-1.1451,-0.402747,-0.108906,0
45540,-1.14742,-0.40202,-0.101028,0
45560,-1.14973,-0.402565,-0.0921832,0
45580,-1.15236,-0.404837,-0.0820671,0
45600,-1.15497,-0.408944,-0.0707035,0
45620,-1.15658,-0.415487,-0.0601503,0
45640,-1.15577,-0.424274,-0.0517845,0
45660,-1.1555,-0.436551,-0.042671,0
45680,-1.15775,-0.453052,-0.0329355,0
45700,-1.16259,-0.470533,-0.0211858,0
45720,-1.17049,-0.487394,-0.00850145,0
45740,-1.18046,-0.504823,0.00442893,0
45760,-1.19158,-0.5233,0.0169468,0
45780,-1.20148,-0.540667,0.0286967,0
45800,-1.20945,-0.554844,0.0400403,0
45820,-1.21521,-0.56835,0.0471735,0
45840,-1.22006,-0.580581,0.0503583,0
45860,-1.22311,-0.59047,0.0506917,0
45880,-1.22443,-0.599767,0.0483167,0
45900,-1.22595,-0.611919,0.0459492,0
45920,-1.22818,-0.628002,0.0416548,0
45940,-1.229,-0.64728,0.0317795,0
45960,-1.22688,-0.666331,0.01503,0
45970,-1.22277,-0.68367,-0.00659961,0
45990,-1.21689,-0.701364,-0.0329385,0
46000,-1.20699,-0.719739,-0.0666242,0
46010,-1.19178,-0.737029,-0.107475,0
46030,-1.17217,-0.751231,-0.153777,0
46050,-1.14627,-0.764946,-0.206447,0
46070,-1.11774,-0.775353,-0.262201,0
46090,-1.08461,-0.782995,-0.322816,0
46110,-1.04728,-0.789188,-0.388771,0
46130,-1.00798,-0.792218,-0.45607,0
46150,-0.970057,-0.790201,-0.520958,0
46170,-0.933758,-0.781485,-0.585151,0
46190,-0.901409,-0.771645,-0.64556,0
46210,-0.869887,-0.762585,-0.701976,0
46230,-0.840113,-0.751927,-0.753791,0
46250,-0.812394,-0.740975,-0.800617,0
46270,-0.787673,-0.72767,-0.840626,0
46290,-0.769828,-0.709902,-0.872473,0
46310,-0.758806,-0.688445,-0.894344,0
46330,-0.748424,-0.669146,-0.910854,0
46350,-0.740766,-0.648885,-0.920896,0
46370,-0.73714,-0.620429,-0.913016,0
46390,-0.7281,-0.594523,-0.911119,0
46410,-0.723018,-0.571696,-0.911236,0
46430,-0.725654,-0.548822,-0.908412,0
46450,-0.736042,-0.525272,-0.899602,0
46470,-0.749588,-0.502077,-0.887317,0
46490,-0.764244,-0.479268,-0.873219,0
46510,-0.780203,-0.457212,-0.858786,0
46530,-0.79577,-0.436666,-0.84125,0
46550,-0.811696,-0.418287,-0.820884,0
46570,-0.828159,-0.40349,-0.799494,0
46590,-0.84666,-0.390744,-0.777764,0
46610,-0.867796,-0.378808,-0.75456,0
46630,-0.888564,-0.368925,-0.728557,0
46650,-0.907113,-0.361779,-0.700965,0
46670,-0.924629,-0.357649,-0.672914,0
46690,-0.943744,-0.355491,-0.644495,0
46710,-0.964348,-0.355611,-0.615434,0
46730,-0.98442,-0.358323,-0.585014,0
46750,-1.00278,-0.361964,-0.55305,0
46770,-1.02228,-0.367357,-0.520375,0
46790,-1.0433,-0.3742,-0.486096,0
46810,-1.06631,-0.381364,-0.450387,0
46830,-1.09058,-0.393838,-0.414083,0
46850,-1.1154,-0.408162,-0.377761,0
46870,-1.13962,-0.424374,-0.342121,0
46890,-1.16306,-0.441074,-0.306333,0
46910,-1.18383,-0.458081,-0.270801,0
46930,-1.20193,-0.475774,-0.236278,0
46950,-1.21936,-0.491864,-0.203301,0
46970,-1.23462,-0.512651,-0.171294,0
46990,-1.25039,-0.536269,-0.141539,0
47010,-1.26554,-0.560277,-0.114325,0
47030,-1.27805,-0.585171,-0.0896653,0
47050,-1.28896,-0.610705,-0.0678144,0
47070,-1.29813,-0.63906,-0.0492992,0
47090,-1.30546,-0.670264,-0.0341053,0
47110,-1.31047,-0.704761,-0.0243918,0
47130,-1.31387,-0.742056,-0.0194683,0
47150,-1.31327,-0.779141,-0.0208035,0
47170,-1.31273,-0.816496,-0.0288636,0
47190,-1.30899,-0.851211,-0.0436691,0
47210,-1.30717,-0.887096,-0.060583,0
47230,-1.30018,-0.917973,-0.0854909,0
47250,-1.28708,-0.947766,-0.118,0
47270,-1.27398,-0.97716,-0.150869,0
47290,-1.25974,-1.00478,-0.186063,0
47310,-1.2409,-1.02992,-0.22789,0
47330,-1.21481,-1.0525,-0.279806,0
47350,-1.18187,-1.07235,-0.338361,0
47370,-1.1437,-1.08758,-0.39967,0
47390,-1.09777,-1.09801,-0.468326,0
47410,-1.0449,-1.103,-0.541737,0
47430,-0.990245,-1.10193,-0.614195,0
47450,-0.937213,-1.09539,-0.683626,0
47470,-0.884942,-1.0825,-0.750233,0
47490,-0.836786,-1.06044,-0.809776,0
47510,-0.794478,-1.03625,-0.857235,0
47530,-0.757254,-1.00985,-0.895172,0
47550,-0.727871,-0.98119,-0.925442,0
47570,-0.707791,-0.951736,-0.943512,0
47590,-0.681783,-0.923855,-0.960477,0
47610,-0.662442,-0.89484,-0.972655,0
47630,-0.659307,-0.860557,-0.967342,0
47650,-0.653325,-0.827135,-0.967719,0
47670,-0.650054,-0.793792,-0.968346,0
47690,-0.65688,-0.759932,-0.964695,0
47710,-0.671847,-0.726916,-0.954791,0
47730,-0.690997,-0.695581,-0.941372,0
47750,-0.710964,-0.666719,-0.926376,0
47770,-0.730991,-0.64056,-0.908271,0
47790,-0.751874,-0.617767,-0.886903,0
47810,-0.775455,-0.597014,-0.862374,0
47830,-0.805085,-0.578019,-0.835172,0
47850,-0.839192,-0.560817,-0.805648,0
47870,-0.875097,-0.545516,-0.772454,0
47890,-0.910359,-0.533636,-0.736687,0
47910,-0.946154,-0.525916,-0.699376,0
47930,-0.98345,-0.522288,-0.660976,0
47950,-1.02233,-0.520896,-0.620225,0
47970,-1.06056,-0.520658,-0.576461,0
47990,-1.09497,-0.527793,-0.532084,0
48010,-1.13012,-0.537626,-0.486433,0
48030,-1.16764,-0.549147,-0.43981,0
48050,-1.20564,-0.561518,-0.392167,0
48070,-1.24293,-0.574011,-0.343651,0
48090,-1.27957,-0.586649,-0.293541,0
48110,-1.31631,-0.599766,-0.243281,0
48130,-1.35241,-0.614171,-0.194608,0
48150,-1.3847,-0.629751,-0.147391,0
48170,-1.41194,-0.645537,-0.102529,0
48190,-1.44,-0.662969,-0.0595174,0
48210,-1.46699,-0.683745,-0.0174343,0
48230,-1.48901,-0.709383,0.0216278,0
48250,-1.50681,-0.737249,0.0590994,0
48270,-1.52933,-0.768847,0.0959493,0
48290,-1.55291,-0.802933,0.128582,0
48310,-1.57359,-0.838062,0.158435,0
48330,-1.59111,-0.875729,0.186345,0
48350,-1.6138,-0.918066,0.212673,0
48370,-1.63457,-0.96054,0.235266,0
48390,-1.6528,-1.00204,0.253067,0
48410,-1.66833,-1.04326,0.265695,0
48430,-1.6806,-1.08359,0.270563,0
48450,-1.68407,-1.12264,0.26587,0
48470,-1.67593,-1.15941,0.248445,0
48490,-1.6644,-1.19445,0.223641,0
48510,-1.63658,-1.22714,0.180138,0
48530,-1.59354,-1.25621,0.120422,0
48550,-1.53131,-1.28196,0.0409601,0
48570,-1.44272,-1.30358,-0.0630901,0
48590,-1.33492,-1.32022,-0.185682,0
48610,-1.21665,-1.32991,-0.319046,0
48630,-1.09394,-1.33169,-0.456461,0
48650,-0.972052,-1.32407,-0.591113,0
48670,-0.867154,-1.30956,-0.706641,0
48690,-0.786256,-1.29092,-0.796148,0
48710,-0.723127,-1.26875,-0.862672,0
48730,-0.679359,-1.24488,-0.905775,0
48750,-0.64214,-1.2229,-0.941956,0
48770,-0.616,-1.19661,-0.968072,0
48790,-0.602839,-1.16484,-0.980106,0
48810,-0.594559,-1.12386,-0.983621,0
48830,-0.572578,-1.08983,-0.995019,0
48850,-0.557985,-1.05509,-1.004,0
48870,-0.551547,-1.01853,-1.00497,0
48890,-0.552209,-0.977044,-1.00362,0
48910,-0.566697,-0.932044,-0.997785,0
48930,-0.596228,-0.889582,-0.985491,0
48950,-0.627085,-0.848365,-0.970201,0
48970,-0.656923,-0.809781,-0.95339,0
48990,-0.690802,-0.777477,-0.934703,0
49010,-0.730847,-0.750648,-0.914275,0
49030,-0.777909,-0.727599,-0.891453,0
49050,-0.829238,-0.708906,-0.86478,0
49070,-0.881992,-0.694538,-0.833566,0
49090,-0.933408,-0.68432,-0.799869,0
49110,-0.985171,-0.679025,-0.762547,0
49130,-1.03714,-0.676669,-0.721369,0
49150,-1.0867,-0.67646,-0.677427,0
49170,-1.13279,-0.679747,-0.632661,0
49190,-1.17732,-0.687676,-0.585838,0
49210,-1.22283,-0.696976,-0.535218,0
49230,-1.26881,-0.706893,-0.483444,0
49250,-1.315,-0.717526,-0.430871,0
49270,-1.36411,-0.727941,-0.375438,0
49290,-1.40905,-0.737758,-0.319758,0
49310,-1.44985,-0.74804,-0.264932,0
49330,-1.49126,-0.760672,-0.209649,0
49350,-1.53229,-0.774471,-0.153635,0
49370,-1.5705,-0.787686,-0.100232,0
49380,-1.60648,-0.801023,-0.0468777,0
49400,-1.64265,-0.815728,0.00631554,0
49420,-1.67975,-0.830448,0.0591175,0
49440,-1.71406,-0.846694,0.110438,0
49460,-1.74928,-0.863951,0.160721,0
49480,-1.78359,-0.883871,0.210478,0
49500,-1.8157,-0.904291,0.260375,0
49520,-1.84736,-0.923374,0.305954,0
49540,-1.87593,-0.941932,0.345332,0
49560,-1.89772,-0.960019,0.377343,0
49580,-1.912,-0.97974,0.401712,0
49600,-1.9174,-0.998182,0.416767,0
49620,-1.92052,-1.01374,0.425895,0
49640,-1.91453,-1.02868,0.424262,0
49660,-1.89838,-1.04215,0.413738,2001
49680,-1.88052,-1.05417,0.400906,0
49700,-1.86288,-1.06502,0.386069,0
49720,-1.84352,-1.07416,0.368225,0
49740,-1.82126,-1.08156,0.346581,0
49760,-1.80255,-1.08635,0.326098,0
49780,-1.7875,-1.08666,0.307704,0
49800,-1.77308,-1.08365,0.289342,0
49820,-1.76132,-1.07781,0.272635,0
49840,-1.75534,-1.07032,0.260609,0
49860,-1.75279,-1.06139,0.253393,0
49880,-1.75562,-1.05321,0.25355,0
49900,-1.76012,-1.04958,0.254189,0
49920,-1.76318,-1.04869,0.25429,0
49940,-1.76906,-1.04868,0.256684,0
49960,-1.77388,-1.04458,0.257449,0
49980,-1.7731,-1.03935,0.252999,0
50000,-1.76707,-1.03557,0.243279,0
50020,-1.75837,-1.03099,0.232131,0
50040,-1.74676,-1.02328,0.219276,0
50060,-1.72964,-1.01201,0.200594,0
50080,-1.70559,-0.998534,0.174898,0
50100,-1.68244,-0.983342,0.150789,0
50120,-1.66009,-0.966164,0.127573,0
50140,-1.63477,-0.946372,0.101868,0
50160,-1.60767,-0.925404,0.0741852,0
50180,-1.57911,-0.904233,0.0462979,0
50200,-1.5474,-0.882368,0.0200383,0
50220,-1.51596,-0.858011,-0.00299765,0
50240,-1.48313,-0.832251,-0.0261332,0
50260,-1.45021,-0.807734,-0.0499041,0
50280,-1.41593,-0.78562,-0.0738123,0
50300,-1.37817,-0.762465,-0.0997681,0
50320,-1.34148,-0.735131,-0.120998,0
50340,-1.3079,-0.708862,-0.138384,0
50360,-1.27826,-0.684069,-0.151324,0
50380,-1.25486,-0.658441,-0.160864,0
50400,-1.23752,-0.630924,-0.167622,0
50420,-1.22411,-0.605611,-0.172262,0
50430,-1.20448,-0.564387,-0.177236,0
50430,-1.19719,-0.544346,-0.177755,0
50450,-1.19113,-0.52383,-0.177556,0
50470,-1.18574,-0.503889,-0.177766,0
50490,-1.18113,-0.484837,-0.179921,0
50510,-1.17567,-0.467015,-0.183187,0
50530,-1.16931,-0.452765,-0.18734,0
50550,-1.16382,-0.440262,-0.191491,0
50570,-1.15961,-0.427318,-0.195554,0
50590,-1.15639,-0.41657,-0.200107,0
50610,-1.15152,-0.409736,-0.204878,0
50630,-1.14459,-0.405917,-0.207782,0
50650,-1.1372,-0.403856,-0.209511,0
50670,-1.13268,-0.404102,-0.20971,0
50690,-1.13151,-0.40589,-0.208589,0
50710,-1.13193,-0.408298,-0.207183,2000
50730,-1.13306,-0.408792,-0.2046,0
50750,-1.13444,-0.40837,-0.201201,0
50770,-1.13516,-0.407892,-0.198416,0
50790,-1.13508,-0.407356,-0.195578,0
50810,-1.13539,-0.406041,-0.192326,0
50830,-1.13568,-0.402835,-0.188413,0
50850,-1.13784,-0.39887,-0.182934,0
50870,-1.14207,-0.395553,-0.174637,0
50890,-1.14723,-0.394082,-0.163525,0
50910,-1.15141,-0.395168,-0.151082,0
50930,-1.1544,-0.39749,-0.136671,0
50950,-1.15708,-0.400997,-0.120588,0
50970,-1.16112,-0.406878,-0.103024,0
50990,-1.16653,-0.415083,-0.085257,0
51010,-1.17165,-0.424934,-0.0675918,0
51030,-1.18009,-0.436694,-0.0496753,0
51050,-1.18907,-0.447793,-0.0306581,0
51070,-1.19816,-0.459206,-0.0109908,0
51090,-1.20623,-0.471581,0.00881959,0
51110,-1.21454,-0.483714,0.0286159,0
51130,-1.22162,-0.495568,0.0474807,0
51150,-1.22858,-0.506821,0.0654645,0
51170,-1.23414,-0.51874,0.0773904,0
51190,-1.23718,-0.532014,0.0836251,0
51210,-1.23775,-0.545417,0.0856718,0
51230,-1.23785,-0.557851,0.0843183,0
51250,-1.23833,-0.569459,0.0807156,0
51270,-1.23769,-0.583541,0.0751284,0
51290,-1.23551,-0.599056,0.0655812,0
51310,-1.23114,-0.614595,0.0501488,0
51330,-1.22439,-0.629096,0.0277026,0
51340,-1.21691,-0.643054,0.000578202,0
51360,-1.20916,-0.657922,-0.0286631,0
51380,-1.1999,-0.671565,-0.059743,0
51400,-1.18908,-0.684096,-0.092243,0
51420,-1.17529,-0.695254,-0.127661,0
51430,-1.15887,-0.705424,-0.167291,0
51450,-1.13854,-0.714714,-0.210134,0
51470,-1.11558,-0.72305,-0.255077,0
51490,-1.09045,-0.7295,-0.302962,0
51510,-1.06331,-0.735571,-0.352775,0
51530,-1.03434,-0.738991,-0.402841,0
51550,-1.00394,-0.740641,-0.454439,0
51570,-0.973277,-0.740921,-0.506338,0
51590,-0.94523,-0.739229,-0.555543,0
51610,-0.915717,-0.736345,-0.604311,0
51630,-0.885087,-0.732816,-0.653314,0
51650,-0.856945,-0.727079,-0.70037,0
51670,-0.833444,-0.719004,-0.741902,0
51690,-0.814638,-0.705608,-0.776339,0
51710,-0.796606,-0.689148,-0.801461,0
51730,-0.780147,-0.673649,-0.82354,0
51750,-0.768217,-0.655011,-0.841456,0
51770,-0.765582,-0.630681,-0.839921,0
51790,-0.754091,-0.60494,-0.843156,0
51810,-0.743611,-0.583016,-0.845439,0
51830,-0.740582,-0.562005,-0.846007,0
51850,-0.74535,-0.540461,-0.843851,0
51870,-0.758169,-0.517483,-0.836839,0
51890,-0.774138,-0.493428,-0.82361,0
51910,-0.790023,-0.470318,-0.80587,0
51930,-0.808604,-0.44891,-0.785401,0
51950,-0.828913,-0.429668,-0.763377,0
51970,-0.851757,-0.412635,-0.739712,0
51990,-0.875085,-0.39793,-0.712691,0
52010,-0.900552,-0.38627,-0.681943,0
52030,-0.927471,-0.377338,-0.649474,0
52050,-0.956276,-0.370863,-0.616635,0
52070,-0.984928,-0.366244,-0.582259,0
52090,-1.01305,-0.365087,-0.544767,0
52110,-1.03812,-0.373285,-0.506909,0
52130,-1.06116,-0.384593,-0.469433,0
52150,-1.0841,-0.399813,-0.432201,0
52170,-1.10673,-0.417572,-0.393666,0
52190,-1.12765,-0.437575,-0.35417,0
52210,-1.14792,-0.460311,-0.314649,0
52230,-1.16891,-0.485157,-0.275772,0
52250,-1.18907,-0.512324,-0.239659,0
52270,-1.2047,-0.541549,-0.205631,0
52290,-1.22103,-0.572565,-0.173483,0
52310,-1.2392,-0.603444,-0.142695,0
52330,-1.25589,-0.637451,-0.114889,0
52350,-1.27173,-0.674562,-0.0905826,0
52370,-1.28672,-0.712464,-0.0700901,0
52390,-1.29773,-0.749798,-0.0528682,0
52410,-1.30363,-0.787511,-0.0418534,0
52430,-1.30651,-0.826439,-0.0382956,0
52450,-1.31053,-0.866649,-0.0409576,0
52470,-1.31253,-0.905249,-0.051371,0
52490,-1.30776,-0.942779,-0.0713889,0
52510,-1.29788,-0.978983,-0.101558,0
52530,-1.28179,-1.01378,-0.140622,0
52550,-1.2582,-1.04466,-0.187498,0
52570,-1.22862,-1.07352,-0.241915,0
52590,-1.18734,-1.09834,-0.308623,0
52610,-1.13521,-1.11788,-0.38635,0
52630,-1.07351,-1.13222,-0.472523,0
52650,-1.00683,-1.14126,-0.56354,0
52670,-0.932147,-1.13876,-0.661583,0
52690,-0.857601,-1.12988,-0.758096,0
52710,-0.789036,-1.11757,-0.844357,0
52730,-0.72872,-1.10408,-0.920464,0
52750,-0.679289,-1.08451,-0.980485,0
52770,-0.638895,-1.06023,-1.0261,0
52790,-0.600712,-1.0379,-1.06617,0
52810,-0.571605,-1.0137,-1.09289,0
52830,-0.546497,-0.988596,-1.11308,0
52850,-0.544982,-0.957797,-1.10521,0
52870,-0.533367,-0.927381,-1.11109,0
52890,-0.523997,-0.899884,-1.11461,0
52910,-0.529112,-0.872478,-1.10915,0
52930,-0.542017,-0.843689,-1.10023,0
52950,-0.560292,-0.813798,-1.08822,0
52970,-0.58263,-0.784068,-1.07211,0
52990,-0.605495,-0.756448,-1.05321,0
53010,-0.629747,-0.731331,-1.03259,0
53030,-0.659659,-0.708179,-1.00912,0
53050,-0.694379,-0.686991,-0.982782,0
53070,-0.729825,-0.667804,-0.954836,0
53090,-0.766393,-0.651789,-0.924594,0
53110,-0.805708,-0.63894,-0.892579,0
53130,-0.850159,-0.629307,-0.859104,0
53150,-0.89955,-0.621658,-0.822084,0
53170,-0.948755,-0.613538,-0.781577,0
53190,-0.994107,-0.608297,-0.740201,0
53210,-1.0394,-0.607313,-0.697757,0
53230,-1.08884,-0.607736,-0.651494,0
53250,-1.13648,-0.611551,-0.604013,0
53270,-1.1837,-0.61609,-0.554291,0
53290,-1.23185,-0.622323,-0.501855,0
53310,-1.27743,-0.629887,-0.447772,0
53330,-1.32158,-0.640394,-0.393329,0
53350,-1.36232,-0.654729,-0.339611,0
53370,-1.40171,-0.671579,-0.285534,0
53390,-1.43974,-0.690592,-0.230347,0
53410,-1.47572,-0.711656,-0.175786,0
53430,-1.50547,-0.7352,-0.124256,0
53450,-1.52981,-0.761224,-0.0746408,0
53470,-1.55743,-0.789528,-0.0255824,0
53490,-1.58343,-0.820451,0.0236164,0
53510,-1.60656,-0.85523,0.0661617,0
53530,-1.63143,-0.892612,0.106942,0
53550,-1.65857,-0.930976,0.145969,0
53570,-1.67874,-0.968345,0.181131,0
53590,-1.69823,-1.00895,0.211502,0
53610,-1.716,-1.05143,0.237493,0
53630,-1.73014,-1.09264,0.25502,0
53650,-1.73707,-1.13318,0.261316,0
53670,-1.7317,-1.17282,0.255235,0
53690,-1.71751,-1.21168,0.237738,0
53710,-1.68804,-1.24999,0.201722,0
53730,-1.6433,-1.28691,0.148134,0
53750,-1.57068,-1.31893,0.065814,0
53770,-1.46541,-1.34587,-0.0505825,0
53790,-1.32665,-1.3651,-0.202781,0
53810,-1.14854,-1.37185,-0.394769,0
53830,-0.971394,-1.36804,-0.583743,0
53850,-0.826149,-1.35703,-0.737167,0
53870,-0.716652,-1.33815,-0.851245,0
53890,-0.631536,-1.31463,-0.938673,0
53910,-0.566736,-1.28407,-1.00514,0
53930,-0.52239,-1.24962,-1.05077,0
53950,-0.500304,-1.21054,-1.07069,0
53970,-0.482462,-1.17184,-1.08625,0
53990,-0.467824,-1.13227,-1.09661,0
54010,-0.455777,-1.0922,-1.10551,0
54030,-0.447376,-1.05263,-1.11431,0
54050,-0.445408,-1.01259,-1.11747,0
54070,-0.452624,-0.973263,-1.11408,0
54090,-0.467868,-0.934342,-1.10537,0
54110,-0.493196,-0.894367,-1.09021,0
54130,-0.525813,-0.85754,-1.07127,0
54150,-0.560721,-0.826864,-1.0508,0
54170,-0.59931,-0.802134,-1.02495,0
54190,-0.644115,-0.779355,-0.992741,0
54210,-0.701845,-0.760683,-0.955081,0
54230,-0.775559,-0.747466,-0.910697,0
54250,-0.851558,-0.736929,-0.862428,0
54270,-0.923499,-0.730572,-0.811062,0
54290,-0.988607,-0.725637,-0.758901,0
54310,-1.04912,-0.729556,-0.707134,0
54330,-1.1077,-0.736089,-0.653429,0
54350,-1.16388,-0.744483,-0.598282,0
54370,-1.21512,-0.755323,-0.5416,0
54390,-1.2647,-0.76938,-0.482601,0
54410,-1.31231,-0.785098,-0.423178,0
54430,-1.35765,-0.801196,-0.364424,0
54450,-1.40084,-0.817897,-0.306465,0
54470,-1.44222,-0.835686,-0.249625,0
54490,-1.48249,-0.854352,-0.193504,0
54510,-1.52249,-0.872962,-0.139035,0
54530,-1.56581,-0.890015,-0.0828791,0
54550,-1.60598,-0.906828,-0.0296696,0
54570,-1.64222,-0.922353,0.0190218,0
54590,-1.6757,-0.938258,0.0628903,0
54610,-1.70758,-0.954826,0.102241,0
54630,-1.73207,-0.971086,0.134652,0
54650,-1.74919,-0.984492,0.156774,0
54670,-1.75953,-0.997832,0.173131,0
54690,-1.76375,-1.01214,0.183874,0
54710,-1.76386,-1.02624,0.188523,0
54730,-1.75733,-1.03769,0.185678,0
54750,-1.74721,-1.04714,0.178284,2001
54760,-1.73433,-1.05325,0.167372,0
54780,-1.72168,-1.0576,0.155,0
54800,-1.70842,-1.06017,0.141732,0
54820,-1.69464,-1.06112,0.128687,0
54840,-1.68266,-1.05984,0.11796,0
54860,-1.67444,-1.05961,0.109312,0
54880,-1.66937,-1.05955,0.101837,0
54900,-1.66567,-1.05793,0.0963393,0
54920,-1.66498,-1.0555,0.0942375,0
54940,-1.66734,-1.05375,0.0963421,0
54960,-1.67141,-1.05219,0.100954,0
54980,-1.67985,-1.05026,0.108488,0
55000,-1.6879,-1.04833,0.115367,0
55020,-1.69078,-1.04751,0.118227,0
55040,-1.69117,-1.04816,0.120783,0
55060,-1.69049,-1.04879,0.122994,0
55080,-1.68707,-1.04689,0.123207,0
55100,-1.68055,-1.04313,0.11969,0
55120,-1.66965,-1.03921,0.111877,0
55140,-1.65428,-1.03512,0.0983104,0
55160,-1.63818,-1.02976,0.0855632,0
55180,-1.62171,-1.02488,0.0730215,0
55200,-1.6009,-1.0179,0.0564496,0
55220,-1.57899,-1.0083,0.0354316,0
55240,-1.55369,-0.997355,0.00853873,0
55260,-1.52252,-0.986399,-0.022587,0
55280,-1.48928,-0.972355,-0.0520336,0
55300,-1.45682,-0.953425,-0.0788218,0
55320,-1.42316,-0.932025,-0.108258,0
55340,-1.38336,-0.91157,-0.143363,0
55360,-1.34315,-0.890682,-0.177681,0
55380,-1.30287,-0.865361,-0.212462,0
55400,-1.26303,-0.835903,-0.247569,0
55420,-1.22274,-0.805581,-0.281139,0
55440,-1.18591,-0.775735,-0.309297,0
55460,-1.15194,-0.744246,-0.334831,0
55480,-1.12314,-0.710212,-0.357371,0
55500,-1.09829,-0.675646,-0.376058,0
55520,-1.07999,-0.640769,-0.388785,0
55540,-1.06352,-0.606202,-0.400654,0
55560,-1.04924,-0.572229,-0.411098,0
55580,-1.03839,-0.541709,-0.418686,0
55600,-1.03227,-0.515295,-0.421008,0
55620,-1.03071,-0.489995,-0.418551,0
55640,-1.03226,-0.465451,-0.413572,0
55660,-1.03614,-0.443839,-0.409077,0
55680,-1.04283,-0.426019,-0.403981,0
55700,-1.04821,-0.411476,-0.396791,0
55720,-1.05431,-0.398437,-0.387779,0
55740,-1.06194,-0.388082,-0.37878,0
55760,-1.0696,-0.379675,-0.370253,0
55780,-1.07505,-0.372296,-0.359918,0
55800,-1.07855,-0.365632,-0.346855,0
55820,-1.08102,-0.36041,-0.333349,0
55840,-1.0837,-0.356974,-0.321524,0
55860,-1.08709,-0.354271,-0.31132,0
55880,-1.09179,-0.351911,-0.301418,0
55900,-1.09786,-0.35003,-0.29063,0
55920,-1.10347,-0.348932,-0.27888,0
55940,-1.10649,-0.348381,-0.267443,0
55960,-1.10859,-0.348212,-0.256299,0
55980,-1.11199,-0.348662,-0.246161,0
56000,-1.11482,-0.349178,-0.237031,0
56020,-1.11721,-0.34864,-0.227135,0
56040,-1.1197,-0.347443,-0.216425,0
56060,-1.12206,-0.34718,-0.207259,0
56080,-1.12345,-0.348826,-0.200271,0
56100,-1.12438,-0.352565,-0.193983,0
56120,-1.12617,-0.357845,-0.186187,0
56140,-1.1292,-0.364128,-0.176377,0
56160,-1.13288,-0.372591,-0.166586,0
56180,-1.13592,-0.382837,-0.15748,0
56200,-1.13773,-0.395435,-0.148518,0
56220,-1.13966,-0.410963,-0.140375,0
56240,-1.14177,-0.428731,-0.135784,0
56260,-1.14485,-0.448663,-0.134804,0
56280,-1.14959,-0.469944,-0.133627,0
56300,-1.15881,-0.493454,-0.132761,0
56320,-1.16512,-0.516531,-0.135124,0
56340,-1.17041,-0.54004,-0.140945,0
56360,-1.17547,-0.564265,-0.148556,0
56380,-1.18023,-0.588683,-0.158313,0
56400,-1.18514,-0.612347,-0.169977,0
56420,-1.18948,-0.634886,-0.184406,0
56440,-1.19219,-0.65705,-0.201433,0
56460,-1.19299,-0.678834,-0.220846,0
56480,-1.19025,-0.698995,-0.243577,0
56500,-1.18264,-0.717791,-0.271363,0
56520,-1.17018,-0.735395,-0.304169,0
56540,-1.15303,-0.750571,-0.340963,0
56560,-1.13144,-0.763895,-0.382125,0
56580,-1.10526,-0.774744,-0.428608,0
56600,-1.07584,-0.782844,-0.47832,0
56620,-1.04253,-0.787655,-0.53056,0
56640,-1.00697,-0.788864,-0.583656,0
56660,-0.970011,-0.783586,-0.637431,0
56680,-0.932925,-0.775549,-0.688908,0
56700,-0.896763,-0.767928,-0.737321,0
56720,-0.86285,-0.759587,-0.782547,0
56740,-0.829194,-0.748957,-0.827249,0
56750,-0.798332,-0.733004,-0.867099,0
56770,-0.773703,-0.712688,-0.896192,0
56790,-0.751626,-0.688168,-0.91367,0
56810,-0.733791,-0.665431,-0.924122,0
56830,-0.71904,-0.644499,-0.930211,0
56850,-0.710763,-0.623473,-0.932807,0
56870,-0.706087,-0.597371,-0.931709,0
56890,-0.699238,-0.575927,-0.9313,0
56910,-0.698231,-0.55775,-0.925567,0
56930,-0.704722,-0.54001,-0.91227,0
56950,-0.716158,-0.523913,-0.895812,0
56970,-0.730457,-0.508286,-0.878139,0
56990,-0.745944,-0.49104,-0.857839,0
57010,-0.763368,-0.471793,-0.832797,0
57030,-0.784041,-0.452122,-0.805026,0
57050,-0.808533,-0.433236,-0.776801,0
57070,-0.835145,-0.415104,-0.748361,0
57090,-0.862042,-0.397339,-0.71911,0
57110,-0.888746,-0.380269,-0.687828,0
57130,-0.916958,-0.365714,-0.655468,0
57150,-0.948153,-0.354563,-0.62234,0
57170,-0.983083,-0.346511,-0.588467,0
57190,-1.01849,-0.341474,-0.552838,0
57210,-1.05138,-0.339329,-0.516259,0
57230,-1.07893,-0.339805,-0.478841,0
57250,-1.10267,-0.343162,-0.441831,0
57270,-1.12206,-0.354732,-0.406546,0
57290,-1.14098,-0.369809,-0.3718,0
57310,-1.15791,-0.387146,-0.337331,0
57330,-1.17234,-0.406851,-0.304796,0
57350,-1.18499,-0.426402,-0.273688,0
57370,-1.19598,-0.447195,-0.243056,0
57390,-1.20759,-0.471191,-0.214261,0
57410,-1.2196,-0.497934,-0.186994,0
57430,-1.22819,-0.526175,-0.162081,0
57450,-1.23702,-0.557446,-0.139536,0
57470,-1.2469,-0.592447,-0.119851,0
57490,-1.25892,-0.630673,-0.101281,0
57510,-1.27067,-0.67144,-0.0857489,0
57530,-1.28089,-0.711464,-0.074375,0
57550,-1.29427,-0.751059,-0.065639,0
57570,-1.3073,-0.789905,-0.0609471,0
57590,-1.31896,-0.827408,-0.0594015,0
57610,-1.32773,-0.864038,-0.063346,0
57630,-1.33578,-0.900073,-0.0711734,0
57650,-1.33788,-0.932109,-0.0875326,0
57670,-1.33021,-0.960991,-0.115797,0
57690,-1.3118,-0.985473,-0.155876,0
57710,-1.2859,-1.00523,-0.202966,0
57730,-1.2541,-1.01771,-0.253588,0
57750,-1.21346,-1.02388,-0.310267,0
57780,-1.13304,-1.024,-0.411913,0
57800,-1.09888,-1.01554,-0.453778,0
57820,-1.07203,-1.00179,-0.486127,0
57840,-1.05502,-0.984871,-0.508489,0
57860,-1.04545,-0.966327,-0.521284,0
57880,-1.04373,-0.947145,-0.522156,0
57900,-1.04707,-0.927602,-0.512903,0
57920,-1.05335,-0.906232,-0.497413,0
57940,-1.06095,-0.882802,-0.479511,0
57960,-1.0723,-0.860499,-0.455648,0
57980,-1.08792,-0.838695,-0.428065,0
58000,-1.10347,-0.815583,-0.399085,0
58020,-1.11819,-0.791456,-0.370154,0
58040,-1.13325,-0.764664,-0.341918,0
58060,-1.14567,-0.733444,-0.317569,0
58080,-1.15474,-0.700467,-0.295603,0
58100,-1.15958,-0.667956,-0.275732,0
58120,-1.16297,-0.639728,-0.258959,0
58140,-1.16089,-0.615343,-0.249151,0
58160,-1.15879,-0.593327,-0.244239,0
58180,-1.16024,-0.571158,-0.240036,0
58200,-1.16345,-0.551055,-0.237422,0
58220,-1.16834,-0.533806,-0.235438,0
58240,-1.17391,-0.518548,-0.233289,0
58260,-1.17624,-0.505161,-0.231545,0
58280,-1.17458,-0.494129,-0.231394,0
58300,-1.17146,-0.485365,-0.232502,0
58320,-1.1703,-0.4789,-0.233756,0
58340,-1.17002,-0.474396,-0.235365,0
58360,-1.16874,-0.471577,-0.236771,0
58380,-1.16849,-0.470932,-0.237242,0
58400,-1.16953,-0.470957,-0.236409,2000
58420,-1.17187,-0.471085,-0.234572,0
58440,-1.17591,-0.470025,-0.232276,0
58460,-1.18013,-0.468492,-0.23053,0
58480,-1.18373,-0.46662,-0.22791,0
58500,-1.1872,-0.46475,-0.225376,0
58520,-1.19057,-0.461509,-0.223711,0
58540,-1.19255,-0.456823,-0.222445,0
58560,-1.19475,-0.452474,-0.220949,0
58580,-1.19555,-0.448792,-0.218803,0
58600,-1.19368,-0.444478,-0.215428,0
58620,-1.19185,-0.441826,-0.211631,0
58640,-1.19238,-0.440554,-0.205919,0
58660,-1.19463,-0.4418,-0.198664,0
58680,-1.19556,-0.446534,-0.190891,0
58700,-1.1958,-0.453255,-0.181884,0
58720,-1.19549,-0.461556,-0.172079,0
58740,-1.19679,-0.471773,-0.160969,0
58760,-1.19987,-0.483658,-0.148778,0
58780,-1.20404,-0.496514,-0.134747,0
58800,-1.20888,-0.509559,-0.120055,0
58820,-1.21545,-0.52319,-0.103601,0
58840,-1.22182,-0.537827,-0.0883603,0
58860,-1.22652,-0.553126,-0.0756071,0
58880,-1.23112,-0.569074,-0.0626015,0
58900,-1.23639,-0.585794,-0.0496775,0
58920,-1.24376,-0.60271,-0.0364108,0
58940,-1.25161,-0.62135,-0.0251999,0
58960,-1.26069,-0.639956,-0.0146112,0
58980,-1.26844,-0.657112,-0.00426228,0
59000,-1.27532,-0.671768,0.00347812,0
59020,-1.28033,-0.687232,0.00743995,0
59040,-1.29114,-0.717731,0.0118878,0
59060,-1.29614,-0.72886,0.0139587,0
59080,-1.30051,-0.737556,0.0130411,0
59100,-1.30424,-0.745028,0.0104991,0
59120,-1.30633,-0.750007,0.00653073,0
59140,-1.3046,-0.750629,-0.000380978,0
59160,-1.29965,-0.749405,-0.00873074,0
59180,-1.29541,-0.74901,-0.0138023,0
59200,-1.29237,-0.748615,-0.0170998,0
59220,-1.28718,-0.746736,-0.0223392,0
59240,-1.28029,-0.744363,-0.0300199,0
59250,-1.27377,-0.744765,-0.0371507,0
59270,-1.26993,-0.748308,-0.0415506,0
59290,-1.26316,-0.76385,-0.0556089,0
59320,-1.25308,-0.804757,-0.094084,0
59330,-1.24515,-0.836148,-0.125214,0
59350,-1.23831,-0.849893,-0.146514,0
59370,-1.23017,-0.862477,-0.1711,0
59390,-1.22302,-0.87701,-0.195384,0
59400,-1.21801,-0.891807,-0.216755,0
59420,-1.21126,-0.904719,-0.239119,0
59440,-1.19975,-0.915444,-0.267121,0
59460,-1.18326,-0.924824,-0.300113,0
59480,-1.16371,-0.934594,-0.334907,0
59500,-1.14298,-0.942483,-0.370926,0
59520,-1.11852,-0.948981,-0.41098,0
59540,-1.08917,-0.952602,-0.455577,0
59560,-1.05565,-0.955013,-0.503552,0
59580,-1.0197,-0.956525,-0.552696,0
59600,-0.982028,-0.956072,-0.602322,0
59620,-0.944416,-0.951636,-0.651559,0
59640,-0.907652,-0.942335,-0.700342,0
59660,-0.873588,-0.929943,-0.746625,0
59680,-0.843193,-0.915987,-0.78897,0
59700,-0.815779,-0.9006,-0.827065,0
59720,-0.79126,-0.882107,-0.859796,0
59740,-0.770873,-0.860934,-0.887417,0
59760,-0.753287,-0.839012,-0.910983,0
59780,-0.738146,-0.816448,-0.930146,0
59800,-0.725501,-0.794847,-0.944051,0
59820,-0.716789,-0.774828,-0.951406,0
59840,-0.711816,-0.753552,-0.95331,0
59860,-0.711005,-0.729339,-0.949965,0
59880,-0.711122,-0.706138,-0.945685,0
59900,-0.714601,-0.68566,-0.936965,0
59920,-0.722004,-0.665775,-0.924506,0
59940,-0.732008,-0.646246,-0.910101,0
59960,-0.743011,-0.626847,-0.895612,0
59980,-0.759363,-0.606881,-0.87936,0
60000,-0.775632,-0.587699,-0.861975,0
60020,-0.79093,-0.570984,-0.845678,0
60040,-0.806976,-0.555357,-0.830766,0
60050,-0.824462,-0.53893,-0.814839,0
60070,-0.842502,-0.520357,-0.796706,0
60090,-0.858586,-0.502303,-0.777874,0
60110,-0.874831,-0.48589,-0.759732,0
60130,-0.894088,-0.469634,-0.742323,0
60150,-0.914833,-0.452846,-0.724764,0
60170,-0.936953,-0.435885,-0.705505,0
60190,-0.958865,-0.421221,-0.685886,0
60210,-0.982181,-0.408903,-0.667269,0
60230,-1.00567,-0.398096,-0.649678,0
60250,-1.02719,-0.386364,-0.631537,0
60270,-1.04593,-0.374051,-0.613042,0
60290,-1.06536,-0.362967,-0.593751,0
60310,-1.08462,-0.354848,-0.574069,0
60330,-1.10264,-0.350506,-0.553922,0
60350,-1.11712,-0.349521,-0.53383,0
60370,-1.12795,-0.351054,-0.514351,0
60390,-1.13876,-0.35613,-0.495018,0
60410,-1.15051,-0.364365,-0.474623,0
60430,-1.16216,-0.37398,-0.453295,0
60450,-1.17332,-0.385333,-0.431105,0
60470,-1.18487,-0.399311,-0.408053,0
60490,-1.19509,-0.413776,-0.38524,0
60510,-1.20938,-0.429541,-0.362097,0
60530,-1.22659,-0.447117,-0.339562,0
60550,-1.24212,-0.465743,-0.317673,0
60570,-1.25391,-0.484572,-0.29609,0
60590,-1.26489,-0.503815,-0.273814,0
60610,-1.27772,-0.525649,-0.25151,0
60630,-1.28926,-0.55141,-0.231731,0
60650,-1.30086,-0.579695,-0.212776,0
60670,-1.3128,-0.60838,-0.194485,0
60690,-1.32613,-0.637676,-0.177059,0
60710,-1.33929,-0.668196,-0.162246,0
60730,-1.3509,-0.701577,-0.150353,0
60750,-1.36226,-0.735744,-0.140589,0
60770,-1.37004,-0.767628,-0.133383,0
60790,-1.37366,-0.796912,-0.130456,0
60810,-1.37229,-0.823511,-0.134,0
60830,-1.36562,-0.849814,-0.146601,0
60850,-1.35566,-0.876463,-0.164041,0
60870,-1.34374,-0.90039,-0.184569,0
60890,-1.32767,-0.921341,-0.21093,0
60910,-1.30611,-0.938699,-0.244527,0
60930,-1.27922,-0.95356,-0.283231,0
60950,-1.24734,-0.964822,-0.325917,0
60970,-1.21005,-0.973849,-0.373435,0
60990,-1.16868,-0.982213,-0.424772,0
61010,-1.12498,-0.989314,-0.478487,0
61030,-1.07961,-0.995297,-0.53494,0
61050,-1.03254,-0.998759,-0.593043,0
61070,-0.986608,-0.999727,-0.65013,0
61090,-0.944586,-0.996266,-0.702433,0
61110,-0.908437,-0.987342,-0.749821,0
61130,-0.872452,-0.977128,-0.796005,0
61150,-0.840266,-0.965395,-0.835054,0
61170,-0.814167,-0.95044,-0.865071,0
61190,-0.790154,-0.931943,-0.888601,0
61210,-0.771306,-0.91156,-0.905533,0
61230,-0.753612,-0.890609,-0.921216,0
61250,-0.7432,-0.868768,-0.931737,0
61270,-0.734685,-0.846025,-0.938584,0
61290,-0.731903,-0.822806,-0.941613,0
61310,-0.7311,-0.798505,-0.946494,0
61330,-0.732784,-0.771457,-0.951278,0
61350,-0.739095,-0.742308,-0.953953,0
61370,-0.744965,-0.71354,-0.953645,0
61390,-0.747735,-0.686482,-0.95487,0
61410,-0.752895,-0.66113,-0.955617,0
61430,-0.761297,-0.6327,-0.952921,0
61450,-0.771496,-0.603117,-0.946322,0
61470,-0.780923,-0.575059,-0.939603,0
61490,-0.794724,-0.548809,-0.932855,0
61510,-0.817832,-0.525481,-0.924571,0
61530,-0.842299,-0.504399,-0.915166,0
61550,-0.865894,-0.484813,-0.903984,0
61570,-0.890205,-0.47021,-0.890535,0
61590,-0.917736,-0.458142,-0.876541,0
61610,-0.947156,-0.446956,-0.862242,0
61630,-0.975887,-0.438319,-0.84611,0
61650,-1.00289,-0.433258,-0.826855,0
61670,-1.02758,-0.431206,-0.805361,0
61690,-1.05083,-0.432261,-0.783244,0
61710,-1.07461,-0.435137,-0.758719,0
61730,-1.09892,-0.439962,-0.731954,0
61750,-1.12377,-0.446554,-0.70201,0
61770,-1.15093,-0.45405,-0.667904,0
61790,-1.17863,-0.466415,-0.631272,0
61810,-1.21007,-0.479276,-0.592162,0
61830,-1.2449,-0.492031,-0.550022,0
61850,-1.28349,-0.504707,-0.504307,0
61870,-1.32305,-0.51809,-0.456155,0
61890,-1.36274,-0.532467,-0.406593,0
61910,-1.40377,-0.549241,-0.356066,0
61930,-1.44177,-0.567032,-0.306089,0
61950,-1.47333,-0.584749,-0.257617,0
61970,-1.49992,-0.604054,-0.209995,0
61990,-1.52183,-0.624303,-0.164364,0
62010,-1.53614,-0.645939,-0.122583,0
62030,-1.55031,-0.671397,-0.0820846,0
62050,-1.56513,-0.700892,-0.0438202,0
62060,-1.5754,-0.730718,-0.00952198,0
62080,-1.58283,-0.761798,0.0209546,0
62100,-1.58491,-0.797393,0.0443411,0
62120,-1.58229,-0.833858,0.0619198,0
62140,-1.5784,-0.871334,0.0768642,0
62160,-1.57018,-0.909793,0.0839825,0
62180,-1.55851,-0.94847,0.0793566,0
62200,-1.53797,-0.985009,0.0627051,0
62220,-1.51384,-1.02067,0.0395872,0
62240,-1.48786,-1.05419,0.0147925,0
62260,-1.45639,-1.08716,-0.019369,0
62280,-1.41712,-1.11868,-0.0660895,0
62300,-1.36881,-1.14697,-0.124898,0
62320,-1.31347,-1.17084,-0.190373,0
62340,-1.25251,-1.1905,-0.266962,0
62360,-1.18337,-1.20452,-0.354341,0
62380,-1.10671,-1.21285,-0.448746,0
62400,-1.02727,-1.21515,-0.543615,0
62420,-0.94896,-1.21082,-0.634752,0
62440,-0.876455,-1.20137,-0.718455,0
62460,-0.814139,-1.18671,-0.791529,0
62480,-0.766282,-1.16861,-0.850116,0
62500,-0.727763,-1.14547,-0.896481,0
62520,-0.688953,-1.12291,-0.939859,0
62540,-0.657811,-1.09889,-0.974008,0
62560,-0.639051,-1.06672,-0.994246,0
62580,-0.616633,-1.03719,-1.01476,0
62600,-0.596725,-1.0066,-1.03367,0
62620,-0.586529,-0.972,-1.0474,0
62640,-0.588679,-0.931486,-1.0546,0
62660,-0.592652,-0.891773,-1.06406,0
62680,-0.600751,-0.853699,-1.06813,0
62700,-0.616181,-0.816483,-1.06357,0
62720,-0.628056,-0.782132,-1.0619,0
62740,-0.645599,-0.74804,-1.05977,0
62760,-0.66898,-0.717263,-1.05315,0
62780,-0.692182,-0.690377,-1.04462,0
62800,-0.71578,-0.667538,-1.03575,0
62820,-0.743243,-0.648815,-1.02573,0
62840,-0.772336,-0.634202,-1.0133,0
62860,-0.800666,-0.622051,-0.999217,0
62880,-0.829256,-0.61294,-0.981121,0
62900,-0.863355,-0.607379,-0.960459,0
62920,-0.902786,-0.602663,-0.936358,0
62940,-0.944165,-0.599546,-0.907917,0
62960,-0.981043,-0.598984,-0.878974,0
62980,-1.01916,-0.601027,-0.845979,0
63000,-1.0603,-0.603731,-0.809929,0
63020,-1.10267,-0.607021,-0.77264,0
63040,-1.14859,-0.611473,-0.731273,0
63060,-1.19259,-0.617076,-0.687578,0
63080,-1.23278,-0.625476,-0.643165,0
63100,-1.27335,-0.635354,-0.596329,0
63120,-1.31379,-0.647533,-0.549,0
63140,-1.35304,-0.661994,-0.500522,0
63160,-1.39305,-0.67676,-0.449944,0
63180,-1.4289,-0.691351,-0.40126,0
63200,-1.46133,-0.706376,-0.353085,0
63220,-1.49324,-0.722512,-0.304991,0
63240,-1.52287,-0.738001,-0.257936,0
63260,-1.55128,-0.751643,-0.21246,0
63280,-1.57606,-0.768284,-0.170082,0
63300,-1.59639,-0.787336,-0.131002,0
63320,-1.61523,-0.807452,-0.0935629,0
63340,-1.62965,-0.827257,-0.0598275,0
63360,-1.64472,-0.846338,-0.0268663,0
63380,-1.65914,-0.864539,0.002116,0
63400,-1.66952,-0.881646,0.026428,0
63420,-1.67626,-0.898686,0.0485567,0
63440,-1.68152,-0.917357,0.0679737,0
63460,-1.68348,-0.934287,0.0840101,0
63480,-1.68456,-0.950162,0.0961435,0
63500,-1.68078,-0.965072,0.103944,0
63520,-1.67502,-0.979195,0.109101,0
63540,-1.66944,-0.99353,0.113228,0
63560,-1.66586,-1.00872,0.116889,0
63580,-1.66153,-1.02412,0.117482,0
63600,-1.65615,-1.03723,0.116657,2001
63620,-1.64837,-1.04763,0.113827,0
63640,-1.64019,-1.05445,0.109232,0
63660,-1.63387,-1.06093,0.103505,0
63680,-1.62638,-1.06623,0.0971637,0
63700,-1.61911,-1.07089,0.0870601,0
63720,-1.61177,-1.0727,0.0743218,0
63740,-1.60355,-1.0718,0.0622171,0
63760,-1.59471,-1.06887,0.0501337,0
63780,-1.58668,-1.06419,0.0396224,0
63800,-1.58374,-1.05815,0.0328417,0
63820,-1.58516,-1.05146,0.029235,0
63840,-1.58724,-1.04595,0.0278675,0
63860,-1.59021,-1.04403,0.0294396,0
63880,-1.58935,-1.0434,0.0275871,0
63900,-1.58806,-1.04237,0.0260766,0
63920,-1.58794,-1.04117,0.024,0
63940,-1.58692,-1.03874,0.0202582,0
63960,-1.58911,-1.03463,0.0182027,0
63980,-1.5898,-1.02791,0.0151103,0
64000,-1.58242,-1.01936,0.0040414,0
64020,-1.56558,-1.00988,-0.0157924,0
64040,-1.54495,-0.998876,-0.0362396,0
64060,-1.5256,-0.986376,-0.0562127,0
64080,-1.50512,-0.971292,-0.0795799,0
64100,-1.48138,-0.952681,-0.106008,0
64120,-1.45909,-0.931205,-0.130243,0
64140,-1.43731,-0.908113,-0.152686,0
64160,-1.40866,-0.882187,-0.180113,0
64180,-1.3798,-0.853139,-0.204378,0
64200,-1.3494,-0.822277,-0.227374,0
64220,-1.31614,-0.788954,-0.251766,0
64240,-1.28576,-0.754786,-0.273779,0
64260,-1.26044,-0.721103,-0.291528,0
64280,-1.23807,-0.68697,-0.306861,0
64290,-1.2157,-0.649656,-0.322063,0
64310,-1.19521,-0.610982,-0.333474,0
64330,-1.17703,-0.574731,-0.34262,0
64350,-1.16108,-0.542217,-0.350516,0
64370,-1.1443,-0.514175,-0.355135,0
64390,-1.13189,-0.490029,-0.356778,0
64410,-1.12144,-0.469767,-0.356634,0
64430,-1.11219,-0.451746,-0.353903,0
64450,-1.10643,-0.43745,-0.348975,0
64470,-1.10395,-0.426864,-0.34361,0
64490,-1.10421,-0.420282,-0.336825,0
64510,-1.10549,-0.416687,-0.329232,0
64530,-1.10681,-0.414337,-0.321097,0
64550,-1.10817,-0.412724,-0.3134,0
64570,-1.10876,-0.413275,-0.306951,0
64590,-1.1099,-0.415132,-0.300703,0
64610,-1.11343,-0.417391,-0.293607,0
64630,-1.11861,-0.419939,-0.287216,0
64650,-1.12386,-0.422108,-0.28246,0
64660,-1.12954,-0.423187,-0.27885,0
64680,-1.13408,-0.422363,-0.275235,0
64700,-1.1375,-0.421141,-0.272174,0
64720,-1.13945,-0.419498,-0.270233,0
64740,-1.14048,-0.417182,-0.26943,0
64760,-1.1406,-0.414958,-0.269562,0
64780,-1.14051,-0.41307,-0.270301,0
64800,-1.13945,-0.411064,-0.271711,0
64820,-1.13779,-0.408546,-0.27389,0
64840,-1.1364,-0.40628,-0.275472,0
64860,-1.13543,-0.405148,-0.276161,0
64880,-1.13359,-0.405433,-0.277567,0
64900,-1.1314,-0.406826,-0.279248,0
64920,-1.12924,-0.408358,-0.280689,0
64940,-1.12772,-0.409552,-0.281796,0
64960,-1.12746,-0.410718,-0.282816,0
64980,-1.12767,-0.411266,-0.283331,0
65000,-1.12727,-0.411533,-0.284136,0
65020,-1.12681,-0.411789,-0.285394,0
65040,-1.126,-0.412213,-0.287066,0
65060,-1.12493,-0.412386,-0.288462,0
65080,-1.12359,-0.411854,-0.289556,0
65100,-1.12237,-0.410457,-0.290829,0
65120,-1.12041,-0.409697,-0.292299,0
65140,-1.11795,-0.410012,-0.293583,0
65160,-1.11557,-0.410207,-0.294686,2000
65180,-1.11399,-0.409204,-0.295136,0
65200,-1.11302,-0.407984,-0.294796,0
