Timestamp, Rotation x, Rotation y, Rotation z, Marker
40,8,13.6875,-9.9375,0
60,22.25,7,-5.875,0
80,35.5,-0.75,-6.375,0
100,36.8125,-3.375,-9.8125,0
120,28.8125,-5.1875,-7,0
140,18.75,-4.375,-4.25,0
160,4.8125,-2.4375,-1.6875,0
160,-5.375,-1.875,1.75,0
160,-7.0625,-0.5625,3.125,0
210,-2.6875,0.6875,1.4375,0
230,-2.3125,4.625,-0.3125,0
250,1.1875,4.75,-0.6875,0
270,7.0625,-0.5,-0.8125,0
290,11.125,-3.8125,-1.125,0
310,10.0625,-3,0.3125,0
330,10.1875,-1.875,-0.25,0
350,9,-0.75,0.25,0
370,6.5625,-1.9375,-0.25,0
390,6.0625,-2.5625,-0.75,0
410,9.5625,-0.5,-3.5,0
430,11.3125,1.9375,-4.9375,0
450,9.9375,4.3125,-5.1875,0
470,2.8125,5.3125,-4.0625,0
490,-0.9375,4.1875,-1.6875,0
510,-4.8125,4.75,2,0
530,-12.5625,5.375,5.0625,0
550,-20.6875,6.625,7.5625,0
570,-23,7.0625,7.25,0
590,-20.3125,7.125,5.875,0
610,-17.0625,6.6875,1.3125,0
630,-11.5,5.0625,-2.8125,0
650,-4.375,1.625,-5.25,0
670,2.3125,0.1875,-6.1875,0
690,9,0.5625,-6.3125,0
710,9.125,1.9375,-5.75,0
730,7.1875,3.25,-4.9375,0
750,4.0625,3.3125,-3.5,0
770,1.75,4.25,-2.75,0
790,1,5.75,-2.6875,0
810,-0.4375,6.1875,-0.4375,0
830,0.3125,7.875,1.875,0
850,1.625,8.0625,1.5,0
870,2.3125,5.9375,0.3125,0
890,1.75,3.3125,-0.4375,0
910,0.875,1.125,-0.1875,0
930,1.8125,-0.4375,-0.6875,0
950,2.875,-2.875,-2.5625,0
970,1.6875,-4.5,-2.8125,0
990,1.125,-3.5,-2.3125,0
1010,3.125,-3.75,-1.9375,0
1030,3.9375,-4.6875,-3.25,0
1050,2.9375,-5.125,-3.125,0
1070,1.4375,-4.75,-2.25,0
1090,2.125,-4.375,-1.6875,0
1110,1,-2.75,-2.5,0
1130,-0.5,-3,-3.1875,0
1150,-0.3125,-2.6875,-1.4375,0
1170,1,-1.875,-1.0625,0
1190,0.4375,-0.5625,-1.8125,0
1210,2.25,0,-3.0625,0
1230,2.875,-0.8125,-2.75,0
1250,2.875,-0.4375,-1.1875,0
1260,-1,0.25,-1.9375,0
1280,-2.1875,-0.5,-1.5,0
1300,-2.375,-2.25,-0.6875,0
1320,3.5625,-4.0625,0.0625,0
1340,6.5625,-4.625,0.875,0
1360,8.6875,-4.25,1.4375,0
1380,8.25,-3.25,2.875,0
1400,6.625,-2.375,4,0
1420,2.1875,-1.5625,3.25,0
1440,-3.3125,-1.0625,2.0625,0
1460,-6.625,-0.5,1.375,0
1480,-8.125,-0.875,1.5,0
1500,-4,-1,0.25,0
1520,0,-0.875,-1.125,0
1540,2,-0.75,-1.125,0
1560,1.4375,-0.75,-1.4375,0
1580,-0.25,-0.4375,-0.9375,0
1600,-1.5,0.1875,-1.125,0
1620,-1.75,0.625,-1.3125,0
1640,-2.25,1.4375,0.3125,0
1660,-4.5,2.125,1.375,0
1680,-5.4375,2.625,2,0
1700,-5.875,1.5625,1.9375,0
1720,-4.875,0.0625,1.625,0
1740,-4.9375,0.375,2.4375,0
1760,-3.75,1.625,2.625,0
1780,-3.25,2.375,2.5625,0
1800,-4.375,2.4375,1.5,0
1820,-3.875,1.625,0.4375,0
1840,-5.25,2,-0.25,0
1860,-6.125,2.25,-0.8125,0
1880,-5.75,1.75,-0.1875,0
1900,-5.375,1.1875,0.25,0
1920,-7.1875,1.625,-0.9375,0
1940,-8.625,0.5625,-1.0625,0
1960,-9.0625,0.0625,-0.9375,0
1980,-10.625,3.4375,-1.1875,0
2000,-7.75,4.125,-1.6875,0
2020,-4.5625,3.5625,-1.875,0
2040,-2.875,2.875,-2.75,0
2060,-3.875,2.8125,-4.375,0
2080,-7.125,4,-4.8125,0
2100,-8.625,3.75,-3.875,0
2120,-11.25,2.8125,-0.125,0
2140,-12.8125,4.875,1.5625,0
2160,-14.0625,6.4375,2.375,0
2180,-13.375,6.8125,2.1875,0
2200,-15.875,5.8125,2.1875,0
2220,-19.9375,7.0625,2.0625,0
2240,-21.25,7.375,0.125,0
2260,-21.3125,8.1875,-0.4375,0
2280,-20.8125,10.4375,0.75,0
2300,-20,12.125,-0.0625,0
2320,-17.5625,10.5,0.875,0
2340,-15.75,7.8125,0.5,0
2360,-13.6875,5.8125,0.75,0
2380,-9.25,3.75,1.0625,0
2400,-5.5625,3.5,1.5,0
2420,-0.125,2.625,1.25,0
2440,2.75,1.3125,0,0
2460,2.9375,1.1875,-0.6875,0
2480,1.5,1.1875,-0.8125,0
2500,1.1875,0.625,-0.375,0
2520,1.625,0.5,0.25,0
2540,2.125,0.9375,0.75,0
2560,3.6875,1.4375,1.5,0
2580,4.9375,0.875,1.9375,0
2600,6.4375,0.125,1.5,0
2620,7.25,-0.0625,0.75,0
2640,7.5,-0.375,0.1875,0
2660,8.75,-1.3125,0.375,0
2680,8.3125,-1.6875,0.75,0
2700,6.25,-1.1875,0.375,0
2720,2.875,-0.5,-0.0625,0
2740,1.3125,-0.75,-0.4375,0
2760,1.375,-1.25,-0.75,0
2780,0.3125,-0.75,-1.125,0
2800,-1.1875,-0.1875,-1.0625,0
2820,-0.8125,-1,-1.1875,0
2840,-0.8125,-0.625,-0.5,0
2860,-2.0625,0.5625,-0.75,0
2880,-2.875,0.6875,-0.9375,0
2900,-2.875,0,-1.3125,0
2920,-4.8125,-0.625,-1.75,0
2940,-4.625,-0.75,-1.8125,0
2960,-4.6875,-0.8125,-1.75,0
2980,-4.4375,-0.9375,-1.0625,0
3000,-4,-1.5,-1.4375,0
3020,-4.625,-3.25,-1.1875,0
3040,-3.5625,-2.6875,-1.75,0
3060,-5.3125,-2.375,-1.3125,0
3080,-6.6875,-1.75,-0.4375,0
3100,-5.625,-2,-0.625,0
3120,-4.375,-1.375,-1,0
3140,-2.5625,0.375,-0.5625,0
3160,-2.875,0.6875,-0.3125,0
3180,-1.25,0.1875,-0.3125,0
3200,-0.5625,-0.3125,-0.75,0
3220,0.875,-0.375,-0.6875,0
3240,-0.25,0,-0.1875,0
3260,1.125,-0.0625,0.1875,0
3280,0.5,0.375,-0.5625,0
3300,2.5625,-0.4375,-0.8125,0
3320,3.25,-0.9375,-0.6875,0
3340,3.375,-0.4375,-0.625,0
3360,1.625,0.5625,-0.1875,0
3380,3.25,0.625,0.375,0
3400,2.6875,-0.3125,0.125,0
3420,0.6875,-0.9375,-0.3125,0
3440,-1.5625,-0.75,-0.5625,0
3460,-0.9375,-0.1875,-0.75,0
3480,0.625,-0.4375,-0.75,0
3500,2.0625,-0.25,-0.375,0
3520,1.625,0,-0.4375,0
3540,0.9375,-0.25,-0.75,0
3560,1.0625,-0.6875,-0.5,0
3580,1.3125,-0.5,-0.125,0
3600,0.5625,-0.5625,-0.3125,0
3620,0.8125,-0.625,-0.375,0
3640,0.25,-0.4375,-0.5625,0
3660,0.8125,-0.5,-0.3125,0
3680,0.8125,-0.25,-0.3125,0
3700,0.6875,-0.125,-0.375,0
3720,0.8125,-0.25,-0.6875,0
3740,0.9375,-0.375,-0.6875,0
3760,1,-0.3125,-0.5,0
3780,0.3125,-0.1875,-0.25,0
3800,-0.4375,-0.125,-0.125,0
3820,-0.5625,0.0625,0,0
3840,-0.25,-0.25,0,0
3860,0.625,-0.375,-0.4375,0
3880,0.5625,-0.4375,-0.375,0
3900,0.875,-0.25,-0.25,0
3920,1.0625,-0.625,-0.375,0
3940,1.25,-0.5,-0.3125,0
3960,0.625,-0.125,0.125,0
3980,0.6875,0,0,0
4000,0.75,-0.4375,-0.5625,0
4020,1.625,-0.6875,-0.9375,0
4040,2,-0.8125,-0.1875,0
4060,1.9375,-0.4375,0.375,0
4080,0.25,-0.125,-0.125,0
4100,0.6875,-0.5625,-0.875,0
4120,1.5,-0.5625,-0.5,0
4140,1.9375,-0.625,-0.3125,0
4160,0.9375,-0.6875,-0.4375,0
4180,0.4375,-0.625,-0.5625,0
4200,0.375,-0.5,-0.3125,0
4220,1.25,-0.5,-0.25,0
4240,1.1875,-0.5625,-0.4375,0
4260,0.1875,-0.375,-0.5625,0
4280,-0.125,-0.5,-0.5625,0
4300,1.1875,-0.4375,0.0625,0
4320,1.5,-0.5,0.125,0
4340,1.375,-0.5,-0.25,0
4360,1.1875,-0.3125,-0.125,0
4380,1.125,-0.25,-0.125,0
4400,0.5625,-0.3125,-0.25,0
4420,0.6875,-0.375,-0.3125,0
4440,0.9375,-0.4375,-0.375,0
4460,1.6875,-0.8125,-0.375,0
4480,2,-0.75,-0.5,0
4500,1.75,-0.5,-0.1875,0
4520,1.25,-0.375,-0.375,0
4540,0.875,-0.4375,-0.125,0
4560,1.375,-0.625,-0.25,0
4580,1.5,-0.6875,-0.375,0
4600,1.8125,-1,-0.375,0
4620,1.75,-0.8125,0,0
4640,1.5625,-0.5625,-0.125,0
4650,1.6875,-0.5625,-0.125,0
4670,1.625,-0.625,-0.125,0
4690,1.75,-0.5625,-0.3125,0
4710,2.25,-0.75,-0.1875,0
4730,3,-0.8125,-0.125,0
4750,2.625,-0.6875,-0.5,0
4770,2,-0.875,-0.75,0
4790,2.1875,-1,-0.3125,0
4810,2.4375,-0.8125,0.125,0
4830,2.375,-0.6875,-0.4375,0
4850,2.0625,-0.5625,-0.8125,0
4870,2.625,-0.75,-0.75,0
4890,3.3125,-1.125,-0.5,0
4910,3.0625,-1.375,-0.25,0
4930,2.5625,-1.375,-0.375,0
4950,2.75,-1.5,-0.375,0
4970,3.0625,-1.5,-0.3125,0
4990,3.75,-1.75,-0.375,0
5010,3.8125,-1.3125,-0.25,0
5030,4.1875,-1.3125,-0.375,0
5050,3.9375,-1.375,0,0
5070,4.4375,-1,0.125,0
5090,4.5625,-1.6875,0.375,0
5110,4.6875,-1.375,0.5625,0
5130,5.75,-1.4375,1.1875,0
5150,6.875,-2.1875,1.0625,0
5170,7.875,-2.375,0.75,0
5190,8.1875,-2.6875,0.6875,0
5210,8.125,-2.8125,0.625,0
5230,8.5,-2.9375,0.6875,0
5250,8.6875,-3.1875,0.25,0
5270,8.25,-3.25,0,0
5290,8.1875,-3.6875,0.1875,0
5310,8,-3.6875,0.125,0
5330,7.8125,-4.5625,0.5625,0
5350,7.6875,-6.5,0.5,0
5370,4.6875,-5.125,0.3125,0
5390,3.125,-3.875,0.3125,0
5410,5.125,-5.0625,0.25,0
5430,5.625,-4.9375,0.3125,0
5450,3.3125,-3.125,-0.3125,0
5470,-2.5625,-3.625,-0.125,0
5490,-7.4375,-6.3125,0,0
5510,-14.8125,-7.75,-1.1875,0
5530,-23.5,-6.875,-2.875,0
5550,-31.75,-7.5,-1.125,0
5570,-37.8125,-10.875,6.75,0
5590,-34.1875,-9.375,7.5625,0
5610,-30.1875,-5.6875,2.75,0
5630,-23.4375,-3.3125,2.3125,0
5650,-16.6875,-1.125,1.1875,0
5670,-5.3125,0.4375,0.625,0
5690,2.9375,3.125,0.75,0
5710,10.3125,5.6875,0.1875,0
5730,19.25,4.6875,-1.25,0
5750,21.375,4.375,-2.1875,0
5770,18.6875,3.1875,-1.8125,0
5790,11.125,3.5,-0.3125,0
5810,4.25,4.625,0.125,0
5830,2.0625,6.25,-0.25,0
5850,-0.8125,6.6875,-0.75,0
5870,-0.8125,7.5625,-1.1875,0
5890,-0.5625,8.125,-2.3125,0
5910,1.25,6.6875,-3.375,0
5930,1.875,3.5625,-2.6875,0
5950,3.25,1.5625,-2.9375,0
5970,2.625,-0.375,-2.375,0
5990,-0.0625,-0.9375,-1.8125,0
6010,-3,-0.9375,-1,0
6030,-3.875,0.4375,0.1875,0
6050,-3,0.8125,0.8125,0
6070,-0.75,0.9375,0.4375,0
6090,-1.25,0.4375,0.1875,0
6110,-1.0625,0.125,-0.125,0
6130,-1.8125,0.3125,-0.4375,0
6150,0.5625,-0.0625,-0.5625,0
6170,0.6875,-0.1875,-1,0
6190,-0.5,0.3125,-1.375,0
6210,-2.6875,-0.1875,-0.75,0
6230,-2.9375,-1.625,-0.4375,0
6250,-4.625,-2.75,0.0625,0
6270,-7.4375,-2.5625,-0.3125,0
6290,-7.125,-3.5625,0.25,0
6310,-4.625,-3.25,0.1875,0
6330,-1.9375,-1.8125,0.75,0
6350,1.875,-0.4375,1.625,0
6370,4.125,-0.5625,0.25,0
6390,3.875,-1.125,-0.9375,0
6410,2.5,-1.875,-1.5625,0
6430,0.875,-3.8125,-1.625,0
6450,2.25,-4.375,-1.125,0
6470,1.875,-1.75,-0.5,0
6490,6.4375,0.5,-0.9375,0
6510,6.5,1.625,-1.5625,0
6530,7.8125,1,-1.8125,0
6550,7.875,-0.0625,-1.875,0
6570,8,0.125,-1.0625,0
6590,3.875,1.0625,0,0
6610,-0.6875,1.4375,1.125,0
6620,-3.875,1.9375,1.6875,0
6640,-1.25,1.5625,1.1875,0
6660,3.1875,0.5,0.25,0
6680,3.875,0.3125,-0.5625,0
6700,3.5625,0.125,-1,0
6720,2.625,0,-2,0
6740,0.5,-1.0625,-3.375,0
6760,-1,-1.5625,-3.6875,0
6780,-2.375,0,-2.375,0
6800,0.8125,0.875,-0.6875,0
6820,2,0.875,-0.0625,0
6840,0.125,0.4375,-0.375,0
6860,-1.8125,0.625,0.6875,0
6880,-2.5,1.3125,2.3125,0
6900,-2.4375,2.375,3.1875,0
6920,-2.4375,2.0625,2.75,0
6940,-1.375,0.875,2.0625,0
6960,-0.1875,0.375,1.5,0
6980,1.625,0.125,0.625,0
7000,2.25,0.1875,0.5,0
7020,3.0625,-0.6875,-0.4375,0
7040,4.375,-1.5,-1.25,0
7060,3.375,-0.6875,-1.75,0
7080,2.9375,-0.9375,-1.1875,0
7100,3.75,-2.0625,-0.625,0
7120,4.625,-2.5625,-0.6875,0
7140,3.375,-2.1875,-0.625,0
7160,3.125,-1.125,-0.0625,0
7180,1.25,-0.25,0.8125,0
7200,-0.6875,0.25,1.8125,0
7220,-2.25,0.5,2.4375,0
7240,-3,0.9375,2.5,0
7260,-3.5,1.5,2.5,0
7280,-3.3125,2.375,2.1875,0
7300,-3.5,2.3125,2.4375,0
7320,-2.75,1.5625,1.8125,0
7340,-2,2,1.875,0
7360,-1.8125,3.25,2.3125,0
7380,0.5,3.9375,2.0625,0
7400,3.4375,3.6875,0.875,0
7420,4.25,2.375,-0.0625,0
7440,2.4375,0.6875,-1.1875,0
7460,0.3125,0.375,-1.125,0
7480,-1.6875,0.75,-0.3125,0
7500,-2.75,1.875,0.75,0
7520,-3.8125,2.5625,2.3125,0
7540,-3.625,2.3125,1.75,0
7560,-5.3125,0.9375,2.25,0
7580,-6.4375,1.4375,2.25,0
7600,-4.6875,1.4375,2.5,0
7620,-1.6875,0,1.3125,0
7640,-0.5,-0.9375,0,0
7660,2.5,-0.6875,0,0
7680,7.375,-1.5,-1.9375,0
7700,10.0625,-2.25,-4.75,0
7720,10.0625,-2.75,-6.3125,0
7740,6.625,-3.4375,-6.4375,0
7760,7.9375,-5.5,-6.5,0
7780,3.875,-6.3125,-4.8125,0
7800,2.125,-4.8125,-3.4375,0
7820,2,-3.25,-2.25,0
7840,1.75,-1.9375,-0.5625,0
7860,1.3125,-0.875,0.75,0
7880,1,-1.0625,0.5,0
7900,0.9375,-1.75,-0.25,0
7920,3.25,-2.0625,-0.4375,0
7940,2.625,-1.5625,0.125,0
7960,3.8125,-1.625,0.1875,0
7980,2.375,-1.5625,0.375,0
8000,2.6875,-2,-0.25,0
8020,3.8125,-2.125,-0.375,0
8040,5.5,-2.125,-0.75,0
8060,6.75,-1.5,-0.4375,0
8080,5.75,-0.75,1.1875,0
8100,2.5,-0.375,1.8125,0
8120,-1.25,-0.125,2.125,0
8140,-3.375,-0.1875,1.8125,0
8160,-4.1875,-0.8125,1.75,0
8180,-2,-1.6875,1.25,0
8200,1.25,-1.9375,0.1875,0
8220,2.5625,-2.25,-1.25,0
8240,3,-4.5,-1.9375,0
8260,0.6875,-5,-2.5625,0
8280,-2.6875,-3,-1.8125,0
8300,-5.5625,-1.375,-1.8125,0
8320,-6.3125,-0.25,-1.625,0
8340,-4.75,0.875,-1.9375,0
8360,-2.3125,2.1875,-2.5625,0
8380,-3.375,1.875,-2.1875,0
8400,-2.6875,0.875,1.3125,0
8420,-1,0.25,2.4375,0
8440,-0.5625,0.8125,1.5625,0
8460,0.4375,1.5,1.625,0
8480,0,0.3125,0.8125,0
8500,1.0625,-0.875,-1.5,0
8520,2.375,-0.5625,-1.75,0
8540,4,0,-1.0625,0
8560,1.8125,-0.75,-1.375,0
8580,-0.25,-0.4375,-1,0
8600,-0.8125,0.1875,0.125,0
8620,-0.3125,0.5,0.1875,0
8640,-1,0.3125,-0.125,0
8660,-0.875,0.375,-0.3125,0
8680,0.75,0.125,-0.8125,0
8700,-0.1875,0.3125,-0.9375,0
8720,-1.75,0.3125,-0.3125,0
8740,-2.5,0.4375,1.1875,0
8760,-1.1875,0.625,0.625,0
8780,0.75,-0.4375,-1.125,0
8800,3,-1.6875,-1.6875,0
8820,2.625,-1.4375,-0.8125,0
8840,1.8125,-1.25,0.5,0
8860,-0.75,-2.1875,1.75,0
8880,-3.5625,-1.625,2.1875,0
8900,-2.9375,-1.0625,2.3125,0
8920,-1.625,-1.0625,0.4375,0
8940,-2.0625,-0.8125,-0.4375,0
8960,-1.5,-0.1875,-1.625,0
8980,0,0.0625,-2.5625,0
9000,1.6875,-0.25,-3.3125,0
9020,2.9375,-0.25,-3.375,0
9040,2.375,0.1875,-3,0
9060,0.1875,0.375,-2.0625,0
9080,-3.6875,0.75,-0.6875,0
9100,-6,0.3125,0.6875,0
9120,-9.5625,-0.125,2.4375,0
9140,-15.375,0.875,5.75,0
9160,-23.0625,1.625,8.6875,0
9180,-23.875,1.625,8.1875,0
9200,-24.375,3.1875,8.4375,0
9220,-23.1875,5.3125,5.75,0
9240,-17.25,7,3.4375,0
9260,-16.875,5.75,3.8125,0
9280,-15.375,3.9375,3.1875,0
9300,-9.125,3.125,3,0
9320,0.75,1.1875,1.0625,0
9340,6.5625,0.6875,-1.3125,0
9360,8.375,0.125,-2.4375,0
9380,11.1875,-1.75,-3.1875,0
9400,15.125,-2.5,-4.0625,0
9420,17.4375,-3.9375,-4.625,0
9440,17.6875,-4.625,-5.4375,0
9460,15.125,-3.5,-5.9375,0
9480,9.625,-3.25,-5.6875,0
9500,-0.1875,-4.4375,-2.9375,0
9520,-9.875,-2.375,0.9375,0
9540,-12.1875,-0.625,2.875,0
9560,-11.9375,0.1875,3.75,0
9580,-4,-0.25,0.875,0
9600,-0.6875,-1.875,-2.375,0
9620,2.8125,-4,-3.9375,0
9640,7,-6.25,-3.5625,0
9660,8.6875,-5.375,-2.375,0
9680,6.125,-2.3125,-1.0625,0
9700,6.6875,-0.3125,-0.375,0
9720,4.0625,0.375,-0.375,0
9740,-0.125,0.875,0.1875,0
9760,-1.625,1.375,0.5,0
9780,-1.875,2.625,0.5,0
9800,-4.3125,2.4375,0.5625,0
9820,-6,1.1875,0.8125,0
9840,-4.5625,1.125,2.6875,0
9860,-1.6875,1.0625,1.125,0
9880,0.5625,-0.5625,-1.375,0
9900,5.5,-2.4375,-2.375,0
9920,7,-3.5625,-2,0
9940,-0.1875,-2.8125,-1,0
9960,-8.5625,-1.8125,0.5625,0
9980,-9.5625,-1.625,1.6875,0
10000,-8.4375,-0.9375,2.625,0
10020,-5,-1.875,2.375,0
10030,-1.375,-3.125,1.5,0
10050,-4.25,-2,2.4375,0
10070,-5.9375,-0.25,2.5625,0
10090,-6.25,1.1875,0.375,0
10110,-8.125,2.625,-0.0625,0
10130,-10.625,2.6875,-1.0625,0
10150,-12.3125,2.4375,-2.625,0
10170,-15.875,4.625,-2.0625,0
10190,-15.1875,3.25,-2,0
10210,-11.9375,0.125,-0.25,0
10230,-9.625,0.5625,-0.5625,0
10250,-9.6875,3.1875,-3.0625,0
10270,-11.8125,5.125,-3.6875,0
10290,-12.25,5.125,-2.8125,0
10310,-12.3125,4.5,-5,0
10330,-11.5,2.75,-8,0
10350,-11.4375,0.5,-7.4375,0
10370,-7.5625,-0.3125,-8.0625,0
10390,-5,-1.1875,-10.5,0
10410,0.9375,-2.0625,-11.875,0
10430,10.625,-3.875,-10.75,0
10450,18,-4.0625,-7.875,0
10470,27,-4.4375,-3.6875,0
10490,34.1875,-4.625,1.4375,0
10510,30.8125,-4.9375,5.5,0
10530,20.75,-4.3125,6.5,0
10550,6.5,0.1875,7.4375,0
10570,-10.6875,5.3125,8.5,0
10590,-19.0625,5.9375,6.75,0
10610,-23.125,6.625,1.8125,0
10630,-15.5,4.875,-0.6875,0
10650,-1.5,1.0625,-1.5,0
10670,13.5625,-2.8125,-1.125,0
10690,23.4375,-6.375,-3.25,0
10710,24.6875,-6.625,-8.1875,0
10730,17.8125,-4.9375,-11.3125,0
10750,9.3125,-2.75,-12.625,0
10770,-1.3125,-0.9375,-11.1875,0
10790,-8.3125,1.0625,-8.6875,0
10810,-10.6875,3.5625,-5.8125,0
10830,-8.5625,4.5625,-3.1875,0
10850,-4.875,4.8125,-3.0625,0
10870,-1.3125,3.375,-3.5,0
10890,1.4375,2.25,-3.875,0
10910,2.0625,1.0625,-2.75,0
10930,0.75,0.5,-1.6875,0
10950,2.4375,-1.1875,-1.5,0
10970,3.875,-1.375,-2.4375,0
10990,4.375,-1.875,-1.8125,0
11010,1.25,-0.75,0,0
11030,-0.75,0.375,2.1875,0
11050,-0.8125,0.625,7.125,0
11070,-1.875,1.0625,11.0625,0
11090,-4,2.625,11.5,0
11110,-6.4375,2.8125,10.5,0
11130,-6.125,3.5,9.625,0
11150,-3.4375,2.5,7.875,0
11170,-0.875,-0.1875,8.6875,0
11190,3.5625,-2.25,8.125,0
11210,9.25,-5,5.625,0
11230,14.4375,-6.4375,2.3125,0
11250,14.5625,-6.4375,1.0625,0
11270,11.6875,-6.3125,1.1875,0
11290,6.6875,-6.0625,2,0
11310,1.5625,-6.375,2.9375,0
11330,-0.8125,-8.5,2.5625,0
11350,-1.3125,-10.3125,1.5,0
11370,-7.0625,-8.625,0.5,0
11390,-12.75,-5.375,1.25,0
11410,-6.1875,-5.5,-2.375,0
11430,13.0625,-6.875,-4.75,0
11450,25.9375,-7.1875,-3.6875,0
11470,26.875,-6.9375,-5.375,0
11490,16.875,-5.0625,-6.8125,0
11510,2.3125,-1.375,-6.625,0
11530,-10.5625,2.875,-3.1875,0
11550,-15.1875,5.25,-1.1875,0
11570,-12.4375,5.5,-1.75,0
11590,-4.5,3.875,-3.3125,0
11610,2.375,2,-4.3125,0
11630,6.75,0.625,-3.3125,0
11650,6.125,-0.1875,-2.375,0
11670,6.1875,-1.375,-1.6875,0
11690,3.6875,-2.625,-2.1875,0
11710,2.625,-3.4375,-2.25,0
11730,-0.3125,-4.75,-1.125,0
11750,1.5625,-6.25,0.75,0
11770,2.375,-5.9375,3.1875,0
11790,2.6875,-3.8125,3.8125,0
11810,2.4375,-2.5,3.6875,0
11830,2.1875,-1.0625,3.375,0
11850,-1.375,0.5,4.5625,0
11870,-3.9375,0.5,4.625,0
11890,-4.9375,-0.375,4.9375,0
11910,-6.25,0.4375,5.25,0
11930,-5.4375,0.6875,5.3125,0
11950,-3.1875,0.125,5.4375,0
11970,-4.375,0.5625,4.125,0
11990,-5.75,0.625,2.25,0
12000,-5.8125,0.5,1.5,0
12020,-3.8125,0.25,0.4375,0
12040,-0.6875,0,0.0625,0
12060,1.1875,0.6875,0.75,0
12080,-0.4375,1.25,0.375,0
12100,-2.625,1.5625,-0.6875,0
12120,-2.125,1.5,-1.875,0
12140,-2.0625,1.875,-3.25,0
12160,3.125,0.375,-4.8125,0
12180,3.5625,0.3125,-3.5625,0
12200,2.75,-0.8125,-4.25,0
12220,2.625,-0.9375,-2.625,0
12240,-1.75,0.375,2.0625,0
12260,-4.0625,-0.875,-1,0
12280,6,-3.4375,-4.3125,0
12300,9.5,-4.625,-4.8125,0
12320,9.0625,-5.9375,-7.0625,0
12340,8.4375,-14.625,-5.4375,0
12360,22,-28.625,-3.1875,0
12380,46.0625,-43.5625,-12.125,0
12400,70.0625,-58.0625,-35.8125,0
12420,72.125,-73.875,-54.75,0
12440,24.5,-89.5,-58.1875,0
12460,-20.625,-104.375,-67.4375,0
12480,-59.5625,-112.5,-68.75,0
12500,-78.5,-111.5,-72.75,0
12520,-45.9375,-134.875,-97,0
12540,2.8125,-161.25,-110.625,0
12560,14.375,-168.875,-109.375,0
12580,15,-176.812,-109.438,0
12600,-21,-188.188,-93.1875,0
12620,-56,-203.875,-86.6875,0
12640,-71.4375,-205.25,-81.125,0
12660,-57.3125,-207,-72.625,0
12680,-56.1875,-196.062,-66.25,0
12700,-65.3125,-171,-50.6875,0
12720,-69.375,-145.25,-38.625,0
12740,-60.5625,-121.188,-36.375,0
12760,-47.9375,-93.3125,-25.5625,0
12780,-36.8125,-64.25,-17.5625,0
12800,-25.5625,-36.6875,-9.4375,0
12820,-16.4375,-16.5625,-3.375,0
12840,-8.6875,-0.125,-1.875,0
12860,-7.25,9.875,-2,0
12880,-5.125,14.4375,6.625,0
12900,0.875,18.6875,10.1875,0
12920,4.125,21.0625,8.625,0
12940,3,19.3125,6.625,0
12960,4.1875,17.5,6.5625,0
12980,6.9375,15.5625,4.875,0
13000,8.3125,11.0625,4.1875,0
13020,6.4375,5.9375,-0.5,0
13040,4.3125,2.5,-2,0
13060,4.3125,0.3125,-0.375,0
13080,1.6875,-0.4375,2.75,0
13100,0.1875,0,2.5,0
13120,0.6875,-0.1875,4.3125,0
13140,0.8125,-0.3125,3.875,0
13160,-3.3125,3.25,5.5625,0
13180,-1.1875,4.875,5.3125,0
13200,0.4375,6.75,3.6875,0
13220,-0.4375,8.5625,4.125,0
13240,-1.8125,10.75,2.6875,0
13260,-0.5625,10.25,2.875,0
13280,1,10.3125,2.875,0
13300,-2.1875,10.875,3.25,0
13320,1.3125,9.5,3.6875,0
13340,0.375,8.625,1.9375,0
13360,-0.25,8.6875,1.625,0
13380,-1.4375,8.3125,1.875,0
13400,-2.5625,7.9375,3.625,0
13420,-3.9375,8.375,3.3125,0
13440,-6.75,9.25,4.3125,0
13460,-6.75,11.6875,6.4375,0
13480,-6.75,12.375,7.5,0
13500,-8.8125,13.6875,8,0
13520,-14.6875,19.8125,13.25,0
13540,-9.4375,24.0625,12.125,0
13560,-6.125,26.3125,11.9375,0
13580,-6.75,29.375,11.875,0
13600,-10.875,31.625,12,0
13620,-14,33.8125,17.375,0
13640,-7,31.875,14.1875,0
13660,-9.25,29.0625,15.9375,0
13680,-7.25,27.6875,15.4375,0
13700,-9.875,29.875,16.125,0
13720,-4.9375,28,13.5625,0
13740,-3.1875,24.5625,11.8125,0
13760,-4.875,23,8.1875,0
13780,-5.1875,22.1875,8.25,0
13800,-2.0625,22.1875,7.4375,0
13820,1.5625,19.1875,4.5625,0
13840,-1.8125,16.875,6.1875,0
13860,-3.25,15.1875,4.625,0
13880,0.1875,13.1875,2.375,0
13900,0.5625,10,4,0
13920,-1.3125,8.1875,1.875,0
13940,-2.5625,6.5,2.25,0
13960,-0.8125,5.3125,1.375,0
13980,-1.6875,2.625,1.4375,0
14000,-1.25,2.375,3.8125,0
14020,-0.3125,4.0625,1.9375,0
14040,1.0625,1,1.25,0
14060,0.9375,-1.875,-1.625,0
14080,1.8125,-3.0625,-1.9375,0
14100,3.125,-3.0625,1.625,0
14120,2.875,-2.875,0.4375,0
14140,0.125,-4.1875,2.0625,1000
14160,2.0625,-5.0625,0.6875,0
14180,4.4375,-5.125,1.875,0
14200,4.125,-5.25,0.3125,0
14220,2.4375,-5.125,-2.4375,0
14240,1.9375,-4.3125,-1.125,0
14260,6,-4.625,-0.8125,0
14280,4.0625,-6.25,-4.3125,0
14300,-1.1875,-7.125,-5.625,0
14320,-0.125,-6.375,-2.375,0
14340,4.4375,-6.5625,-0.875,0
14360,1.6875,-5.5,-1.6875,0
14380,-0.1875,-5.1875,-2,0
14400,0.25,-4.5625,0.0625,0
14420,1.25,-2.8125,0.25,0
14440,0.25,-1.25,-0.875,0
14460,-2.1875,0,-0.5,0
14480,-1.6875,0.25,-1.375,0
14500,-0.0625,0.9375,-1.0625,0
14520,-0.1875,0.9375,0.3125,0
14540,-1.0625,1.5625,0.0625,0
14560,-1.9375,1.0625,-0.25,0
14580,-1.875,0.75,0.4375,0
14600,-0.8125,1.1875,1,0
14620,0.125,2.4375,-0.5,0
14640,-1.3125,2.5,-0.6875,0
14660,-0.4375,1.375,0.3125,0
14680,0.0625,1.25,-0.75,0
14700,1.5,2.5,-0.8125,0
14720,-1.5,2.25,-1.3125,0
14740,-1.0625,1.0625,-2.5625,0
14760,1.0625,0.125,-3.75,0
14780,3.4375,0.3125,-4.1875,0
14800,1.1875,0.875,-3.1875,0
14820,1.6875,0.9375,-3.5,0
14840,2.5625,0.25,-3.6875,0
14860,3.5,0.5,-3.8125,0
14880,3.1875,1.5,-2.9375,0
14900,4.625,2.125,-1.9375,0
14920,3.1875,2.0625,-0.9375,0
14940,3.125,1.875,-0.125,0
14960,4.0625,1.5625,-0.125,0
14980,3.8125,1.25,0.5,0
15000,3.375,0.1875,0.6875,0
15020,3.9375,0.25,-1.1875,0
15040,6.25,-0.75,-0.0625,0
15060,6.75,-0.8125,0.25,0
15080,5.5625,0.0625,-0.75,0
15100,2.125,0.1875,0.75,0
15120,2.25,-0.1875,0.6875,0
15140,3,0.3125,0.9375,0
15160,3.5625,0.375,1.5,0
15180,2.875,0.0625,0.5625,0
15200,1.625,0.4375,0.125,0
15220,3.6875,-0.1875,-0.0625,0
15240,2.9375,-2.375,0.5625,0
15260,2.375,-3.3125,-0.25,0
15280,2.8125,-4.0625,-0.4375,0
15300,2.75,-4.875,-1.25,0
15320,1.9375,-5.5,-1.25,0
15340,1.1875,-4.8125,-1.1875,0
15360,0.25,-3.625,-1.1875,0
15380,2.25,-2.375,-2.125,0
15390,2.8125,-2.9375,-2.1875,0
15410,0.875,-2.8125,-1.25,0
15430,0.0625,-1.0625,-1.875,0
15450,0.125,-1.375,-1.4375,0
15470,0,-1.4375,-1.5625,0
15490,-1.8125,-1.1875,-1.375,0
15510,-3.75,-0.375,-1.125,0
15530,-1.0625,0.375,-2.25,0
15550,-0.4375,0.0625,-1.5625,0
15570,1.8125,0,-1.125,0
15590,-1.3125,-0.875,-2.625,0
15610,-1.625,-0.8125,-2.625,0
15630,1.3125,-1.0625,-2.5,0
15650,3.25,-2,-3.0625,0
15670,0.8125,-3,-1.3125,0
15690,-0.9375,-3.625,-0.4375,0
15710,-0.625,-4.5625,0.75,0
15730,0.9375,-6,1.1875,0
15750,1.3125,-7.625,0.25,0
15770,2.25,-9.1875,-0.125,0
15790,0.875,-9.75,2.625,0
15810,3.8125,-10.9375,1.4375,0
15830,5.6875,-12.0625,-0.625,0
15850,6.875,-13.5,-0.0625,0
15870,7.3125,-14.375,0.1875,0
15890,9.125,-15.875,-1.1875,0
15910,9.75,-16.875,-1.25,0
15930,11,-16.6875,-0.0625,0
15950,6.125,-16,-0.375,0
15970,3.875,-16.0625,-1.25,0
15990,4.125,-16.5,-0.125,0
16010,6.375,-17.375,1,0
16030,7.5,-16.0625,-0.875,0
16050,4.0625,-14.9375,-0.1875,0
16070,0.8125,-13.5,0,0
16090,1.1875,-13.625,-2,0
16110,3.75,-14.75,-3.375,0
16130,3.9375,-15.75,-2.9375,0
16150,2.875,-15.4375,-2.0625,0
16170,2.875,-15.5625,-3.875,0
16190,4.4375,-15.625,-5.6875,0
16190,4,-16.75,-4.5,0
16210,2,-16.8125,-1.8125,0
16230,2.25,-15.3125,-4,0
16250,3.625,-15.5,-7.0625,0
16270,4.4375,-15.4375,-8.375,0
16290,3.375,-14.4375,-6.75,0
16310,2.9375,-14.5,-7.375,0
16330,2.3125,-15.5,-10.3125,0
16350,0.9375,-16.4375,-11.8125,0
16370,0.875,-16,-8.8125,0
16390,-0.5625,-14.8125,-7.6875,0
16410,-1.8125,-14.75,-9.8125,0
16430,-3.4375,-15.1875,-12.625,0
16450,-3.9375,-14.3125,-12,0
16470,-2.25,-13.8125,-12.6875,0
16490,-2.4375,-13.125,-12.5625,0
16510,-4.4375,-13.1875,-16.5625,0
16530,-6,-14,-16.9375,0
16550,-6.1875,-12.625,-15.4375,0
16570,-7.6875,-10.8125,-15.4375,0
16590,-8.5625,-11.5,-17.5625,0
16610,-8.9375,-12.4375,-19.5625,0
16630,-9.625,-11.0625,-20.1875,0
16650,-9.4375,-10.375,-20.125,0
16670,-9.0625,-10.0625,-21.4375,0
16690,-10.5625,-9.4375,-23.5,0
16710,-11.625,-7.6875,-23.875,0
16730,-10.3125,-5.75,-23.5,0
16750,-10.6875,-4.875,-24.5625,0
16770,-12.8125,-3.875,-25.0625,0
16790,-14.9375,-3.625,-25,0
16810,-15,-1.8125,-24.8125,0
16830,-14.625,-1.4375,-25.9375,0
16850,-15.6875,-1.5,-26.9375,0
16870,-16.875,0,-27.375,0
16890,-18.375,1.875,-27.1875,0
16910,-18.875,4.125,-26.625,0
16930,-18.6875,4.875,-27.375,0
16950,-17.5625,4.9375,-27.6875,0
16970,-17.75,6.375,-28.3125,0
16990,-19.1875,7.75,-30,0
17010,-20.1875,9.4375,-31.125,0
17030,-20.375,10.8125,-31.6875,0
17050,-20.25,12.5625,-32.375,0
17070,-20.6875,15.3125,-34.5625,0
17090,-22.3125,17.25,-35.3125,0
17110,-22.625,18.1875,-35.125,0
17130,-21.25,18.625,-33.125,0
17150,-19.6875,17.5,-34.25,0
17170,-20.25,16.75,-34.875,0
17190,-21.5,16.875,-34.6875,0
17210,-21.875,16.6875,-33.125,0
17220,-20.25,17.625,-30.0625,0
17250,-19.0625,17.875,-29.25,0
17270,-19.5625,16.625,-29,0
17290,-17.75,15.375,-29.9375,0
17310,-17.125,16.1875,-27.5,0
17330,-17,17.875,-26.25,0
17340,-16.4375,19.4375,-27.25,0
17360,-15.0625,19.25,-29.375,0
17380,-16.0625,20.4375,-28.875,0
17400,-15.75,22.875,-27.875,0
17420,-13,24.9375,-27.9375,0
17440,-13.0625,26,-29.3125,0
17460,-14.75,27.9375,-29.0625,0
17480,-13.75,30.8125,-27.0625,0
17500,-12.25,34.125,-26.75,0
17520,-13.6875,37.0625,-26.4375,0
17540,-14.125,38.4375,-26.0625,0
17560,-15.25,39.375,-24.625,0
17580,-14.5625,39.5,-22.4375,0
17600,-14,40.0625,-20.625,0
17620,-13.5625,40.9375,-19.5625,0
17640,-15.625,42.875,-18.375,0
17660,-16.6875,45.1875,-15.875,0
17680,-17.25,46.625,-15,0
17700,-14.8125,47.5625,-14.4375,0
17720,-12.8125,47.3125,-13.5,0
17740,-11.625,46,-11,0
17760,-13.875,45.5,-7.75,0
17780,-11.6875,41.25,-7.6875,0
17800,-8.5,36.75,-9.0625,0
17820,-4.1875,37.5,-5.625,0
17840,-16.625,42.8125,3.125,0
17860,-10.3125,40.6875,-1.125,0
17880,1.8125,29,3.25,0
17900,7.1875,25.0625,5.3125,0
17920,7.5625,26.3125,5.6875,0
17940,5.8125,21.4375,7.5625,0
17960,10,20.75,0.3125,0
17980,4.875,22.5,-3.9375,0
18000,-7.25,26.5,0,0
18020,-15.9375,29.875,0.5625,0
18040,-6.5625,30.4375,-2.9375,0
18060,4.125,26.625,-1.3125,0
18080,-5.5,31.5,8.4375,0
18100,-9.25,30.875,12.3125,0
18120,2.4375,25.25,5.25,0
18140,8.125,22,5.3125,0
18160,-2.125,25.3125,13.625,0
18180,-13.8125,25.5,17.4375,0
18200,-6.8125,21.9375,15.375,0
18220,3.125,16.25,14.75,0
18240,-1.5,18.125,21.1875,0
18260,-14,24.1875,29.4375,0
18280,-13.25,19.5,24.3125,0
18300,4.875,10.75,20.6875,0
18320,12.75,4.1875,24.3125,0
18340,6.375,9.9375,25.875,0
18360,-11.0625,18.6875,30.25,0
18380,-4.4375,16.5,27.375,0
18400,5.1875,6.75,29.125,0
18420,7.5,3.8125,33.375,0
18440,0,8.5625,29.3125,0
18460,-0.6875,8.5,27.5625,0
18480,2.625,0.5625,30.6875,0
18500,12.6875,-1.5625,26.5625,0
18520,11.625,-1.9375,22.0625,0
18540,11.6875,-3.375,23.8125,0
18560,16,-6.25,26.875,0
18580,13.4375,-7.125,25.25,0
18600,11.875,-7.3125,23.5625,0
18620,9.25,-6.625,27.25,0
18640,8.0625,-6.625,30.0625,0
18660,10.8125,-7.1875,28.1875,0
18680,6.0625,-7.25,28.1875,0
18700,5,-6.6875,30.9375,0
18720,5.5625,-4.25,31.8125,0
18740,9.6875,-4.75,29.5625,0
18760,7.1875,-6.1875,28,0
18780,7.5625,-6.5,28.3125,0
18800,6.75,-5.25,27.5,0
18820,8.6875,-4.5625,25.4375,0
18840,8.6875,-5.8125,26.875,0
18860,4.25,-6.75,26.5625,0
18880,1.5625,-5.1875,21.9375,0
18900,3.9375,-5.625,23.3125,0
18920,1.9375,-7.25,24.3125,0
18940,3.25,-7.125,19.375,0
18960,3.375,-8.3125,17.1875,0
18980,5.375,-11.625,17.875,0
19000,6.4375,-13.375,16.5625,0
19020,3.375,-12.5625,15.3125,0
19040,2.3125,-11.5,15.625,0
19060,2.375,-12.0625,16.125,0
19080,-2.4375,-13.4375,17.1875,0
19100,-3.875,-13.8125,16.1875,0
19120,-3.6875,-14.5,16.4375,0
19140,-2.5625,-14.4375,18.375,0
19160,-3.6875,-15.5625,16.0625,0
19180,-6.5625,-15.75,16.125,0
19200,-6.5,-15.5625,17.875,0
19220,-3.875,-15.8125,16.6875,0
19240,-2.6875,-15.3125,16.125,0
19260,-2.9375,-15,15.875,0
19280,-4.3125,-15.4375,16.5,0
19300,-3.75,-16.125,16.625,0
19320,-7.25,-15.9375,18,0
19340,-6.875,-16.0625,19.3125,0
19360,-7.125,-16.8125,18.1875,0
19380,-3.5,-15.375,17.625,0
19400,-5,-17.5,16.6875,0
19420,-4.9375,-20.4375,16.375,0
19440,-2.375,-21.9375,18.4375,0
19460,-2.6875,-19.875,17.625,0
19480,-7.4375,-20.1875,17,0
19500,-10.3125,-21.375,17.5625,0
19520,-7.75,-21.0625,17.625,0
19540,-7.0625,-20.8125,18.5625,0
19560,-8.8125,-21.75,17.3125,0
19580,-8.875,-21.9375,16.9375,0
19600,-7.9375,-22.8125,16.9375,0
19620,-6,-23.125,16.25,0
19640,-6.9375,-23.75,15.3125,0
19660,-8.25,-25.625,13.9375,0
19680,-6.8125,-28.3125,11.9375,0
19700,-2.5,-28.6875,11.0625,0
19720,-5.5,-29.5,10.6875,0
19740,-4.6875,-32.75,7.1875,0
19760,-3.25,-36.1875,7.0625,0
19780,2,-37.9375,7.0625,0
19800,-0.25,-38.4375,4.0625,0
19820,-2.375,-39.9375,2.125,0
19840,-4.4375,-42.8125,4.1875,0
19860,-0.75,-41.9375,3.875,0
19880,2.375,-39.625,2.625,0
19900,-1.25,-39.75,1.4375,0
19920,-0.625,-40.9375,-2.375,0
19940,0.9375,-42.3125,-2.9375,0
19960,3.875,-41.375,-1.1875,0
19980,3.75,-39.8125,0.4375,0
20000,-1.8125,-38.4375,-1.9375,0
20020,-2.4375,-38.1875,-3.6875,0
20040,1.6875,-36.875,-0.625,0
20060,1.25,-35.8125,0.8125,0
20080,-1.25,-32.5625,-2,0
20100,-2.8125,-30.4375,-2.1875,0
20120,2.8125,-31,-2.8125,0
20140,-0.5625,-28.125,-1.375,0
20160,1.625,-25.6875,-4.375,0
20180,2.5625,-25.75,-3.5625,0
20200,2,-27.625,-4.625,0
20220,7.4375,-27.1875,-12.5,0
20240,10.8125,-27,-13.375,0
20260,5.0625,-24.3125,-14.8125,0
20280,5.1875,-23.5625,-19.375,0
20300,5.375,-23,-24.375,0
20320,11.5,-23.875,-28.375,0
20340,6.5625,-23.625,-30.125,0
20360,-1.9375,-18.8125,-34.625,0
20380,-3.125,-17.5625,-37.75,0
20400,0.875,-19.5625,-40.3125,0
20420,-3.5625,-19.625,-42,0
20440,-9.75,-15.75,-42.9375,0
20460,-10.5,-16.375,-45.625,0
20480,-13.125,-14.0625,-46.625,0
20500,-11.8125,-12.625,-47.75,0
20520,-17.625,-9.5625,-44.0625,0
20540,-18.125,-7.4375,-42.9375,0
20560,-16.75,-4,-44.75,0
20580,-17.4375,-2,-43.9375,0
20600,-19.125,0.5625,-41.5625,0
20620,-23.3125,5.125,-40.375,0
20640,-22.3125,4.4375,-45.5625,0
20660,-18.375,2.125,-48.625,0
20680,-19.25,1.8125,-50.0625,0
20700,-20.125,3.125,-53.0625,0
20720,-23.375,3.75,-54.75,0
20730,-23.9375,3.0625,-57.9375,0
20750,-21.4375,2.375,-59.6875,0
20770,-19.4375,4.375,-60.5,0
20790,-23.75,9.0625,-60.625,0
20810,-25.8125,14.625,-59.1875,0
20830,-26.5625,17.8125,-56.8125,0
20850,-24.5625,19.5625,-56.6875,0
20870,-22.875,21.0625,-54.5,0
20890,-23.9375,24.0625,-53.4375,0
20910,-22,26.875,-50.0625,0
20930,-22.1875,30.375,-48.6875,0
20950,-21.1875,31.1875,-47.125,0
20970,-20.875,30.6875,-46.875,0
20990,-18.0625,32.125,-46.25,0
21010,-20.5625,38.0625,-41.5625,0
21030,-23.8125,43.25,-37.9375,0
21050,-17.625,40.25,-36.125,0
21070,-10.3125,37.0625,-32.4375,0
21090,-5.9375,36.375,-29.25,0
21110,0,35.625,-20.8125,0
21130,3.8125,31.3125,-19.8125,0
21150,-1.0625,25.875,-20.1875,0
21170,-0.25,28.5,-17.4375,0
21190,-10.5,37.5,-15.875,0
21210,-16.125,40.125,-16.9375,0
21230,-17.125,40.125,-10.3125,0
21250,-5.6875,36.5,-8.25,0
21260,1.6875,34.9375,-6.8125,0
21280,-4,37.0625,-4.25,0
21300,-15.875,36.75,3.0625,0
21320,-13.3125,35.75,9.9375,0
21340,-6.4375,37.0625,14.75,0
21360,-4.375,36.6875,20.25,0
21400,-18.25,37,31.875,0
21420,-16.0625,39.1875,32.0625,0
21440,-8.125,37,34.6875,0
21460,-9.875,34.375,39.875,0
21480,-23,36.25,44.8125,0
21500,-20.125,32.4375,42.375,0
21520,-1.75,25.1875,43.25,0
21540,7.25,22.5625,45.6875,0
21560,-16.1875,28.0625,47.1875,0
21580,-25.0625,27.4375,48.5625,0
21600,-6.8125,21.1875,47.6875,0
21620,5.4375,16.75,47.1875,0
21640,-11.75,22.4375,46.75,0
21660,-19.3125,22.0625,49.4375,0
21680,-10,15.0625,50.4375,0
21700,2.375,11.25,49.75,0
21720,-2.6875,15.625,48.0625,0
21740,-14.25,17.3125,50.4375,0
21760,-6.4375,10.9375,51.4375,0
21780,-0.375,3.5625,49.8125,0
21800,-4.375,2.625,47.1875,0
21820,-9,3.3125,45.625,0
21840,-7,-5,47,0
21860,-7.1875,-11,45.3125,0
21880,-8.75,-12.3125,44.5,0
21900,-4.5,-15.1875,45.3125,0
21920,-2.8125,-19.4375,44.125,0
21940,-2.125,-25.125,44.625,0
21960,-7.8125,-25.9375,47.375,0
21980,-11.625,-26.9375,47.625,0
22000,-8.375,-31.8125,46.75,0
22020,-5.6875,-37.3125,47.3125,0
22040,-10.6875,-39.75,46.875,0
22060,-17.625,-39.1875,45.8125,0
22080,-19.1875,-43,42.875,0
22100,-10.375,-49.3125,40.6875,0
22120,-8.1875,-53.6875,36.8125,0
22140,-13.0625,-55.375,32.3125,0
22160,-14.9375,-59.25,26.5,0
22180,-17.8125,-67.125,24.625,0
22200,-22.25,-73.25,23.9375,0
22220,-24.1875,-75.75,19.0625,0
22240,-22.9375,-76.6875,13.1875,0
22260,-23.4375,-82.4375,11.0625,0
22280,-25.9375,-87.5,8.25,0
22300,-19.0625,-84.1875,0.5625,0
22320,-16.25,-79.5625,-7.75,0
22340,-1.3125,-80.75,-8.5,0
22360,-7.125,-84.625,-10.75,0
22380,-3,-76.8125,-19,0
22400,-1.25,-70.5,-24.5,0
22420,2.625,-67.5625,-28.0625,0
22440,-2.3125,-63.0625,-35.0625,0
22460,-0.5625,-57.8125,-44.5625,0
22480,0.75,-54,-52,0
22500,-2.0625,-48.375,-54.625,0
22520,-5.8125,-37.9375,-61.875,0
22540,-10.375,-28.125,-68.875,0
22560,-13.5,-23.5625,-68.875,0
22580,-20.375,-19.8125,-68.5,0
22600,-23.375,-9.9375,-72.1875,0
22620,-25.125,-2,-73.5625,0
22640,-27.375,2.25,-73.3125,0
22660,-31,6.875,-73.1875,0
22680,-32,12.375,-76.6875,0
22690,-33.875,19.0625,-81.125,0
22710,-32.8125,22.75,-77.6875,0
22730,-32.0625,25.375,-75.5625,0
22750,-20.125,26.875,-80.25,0
22770,-19.9375,28.9375,-78.0625,0
22790,-26.25,32.625,-72.625,0
22810,-24.6875,34.875,-65.0625,0
22830,-20.1875,36.1875,-64.25,0
22850,-22.375,36.8125,-62.8125,0
22870,-27.5625,36.9375,-55.875,0
22890,-36.5625,41.5625,-47.5625,0
22910,-29.875,44,-42.4375,0
22930,-21.625,43.9375,-36.875,0
22950,-14.25,44.6875,-33.875,0
22970,-20.9375,47,-25.5625,0
22990,-20.5,49.5,-18.125,0
23010,-14.6875,51.5,-17.5625,0
23030,-6.1875,49.25,-12.8125,0
23050,-11.625,51.5625,-3.5,0
23070,-3.8125,53.25,-1.1875,0
23090,3.4375,55.0625,2.25,0
23110,-1.75,57.75,7.8125,0
23130,-14.0625,63.1875,16.3125,0
23150,-8.5,65.4375,21.4375,0
23170,3.125,66,25.625,0
23190,-7.4375,70.6875,27.8125,0
23210,-33.625,71.375,33.25,0
23230,-22.9375,67.3125,38.5625,0
23250,-11.25,60.9375,40.25,0
23270,-0.6875,54.375,37.5625,0
23290,-20.1875,52.6875,39,0
23310,-30.0625,50.1875,42.4375,0
23330,-19.0625,45.0625,44.5,0
23350,-15.8125,42.3125,42.3125,0
23370,-13.5,38.5625,44.625,0
23390,-16,32.4375,50.375,0
23410,-11.9375,30.6875,52.4375,0
23430,-14.9375,24.125,48.8125,0
23450,-14,15.375,48.0625,0
23470,-16.8125,11.9375,48.1875,0
23490,-24,8.875,50.625,0
23510,-24.8125,0.5625,48.4375,0
23530,-24.375,-6.25,46.0625,0
23550,-20.5,-13,44.4375,0
23570,-14.5625,-19.625,43.8125,0
23590,-13.75,-24.8125,40.375,0
23610,-19.0625,-30.9375,40.875,0
23630,-22.625,-35.1875,42.125,0
23650,-23.5625,-39.125,44.4375,0
23670,-21.625,-41.0625,44.375,0
23690,-24.75,-42.25,43.125,0
23710,-21.5,-44.8125,41.8125,0
23730,-16.6875,-49.8125,39.3125,0
23750,-16.1875,-53.5,40.75,0
23770,-22.6875,-59.75,38.8125,0
23790,-26,-68.4375,32.8125,0
23810,-21.625,-76.25,28,0
23830,-21.625,-79.8125,21,0
23850,-25.625,-84.3125,12.0625,0
23870,-26.3125,-91,4.5625,0
23890,-18.5625,-96.9375,-4.75,0
23910,-8.5,-97.0625,-12.375,0
23930,-6.1875,-90.6875,-17.8125,0
23950,-7.25,-84.5625,-22.375,0
23970,-7.875,-82.625,-24.875,0
23990,-5.8125,-81,-27.5625,0
24010,4.375,-75,-28.9375,0
24030,12.875,-66.8125,-28.6875,0
24050,-0.25,-60.9375,-30,0
24070,-6.875,-56.6875,-34.875,0
24090,0.3125,-53.8125,-41.4375,0
24110,8.0625,-50.1875,-40.8125,0
24130,7.0625,-45.375,-40,0
24150,2.6875,-38.1875,-43.0625,0
24170,3.5,-35.3125,-45,0
24190,2.9375,-30.4375,-44.0625,0
24210,2,-27.3125,-39,0
24230,3.9375,-24.75,-35.0625,0
24250,14.875,-22.9375,-36.6875,0
24270,17.25,-22.75,-35.0625,0
24290,13.3125,-23.0625,-32.75,0
24310,9.4375,-21.875,-30.6875,0
24330,9.25,-23,-27.6875,0
24350,19.3125,-26,-28.8125,0
24370,13.625,-24.0625,-30.4375,1001
24390,9.9375,-22.5,-26,0
24410,-0.5625,-18.5625,-17.3125,0
24430,-0.0625,-15.0625,-15.375,0
24450,3.1875,-14.0625,-12.375,0
24470,3.0625,-12.0625,-9.5,0
24490,-1.375,-9.75,-2.5625,0
24510,-11.75,-2.3125,2.9375,0
24530,-2.8125,-3.375,-0.3125,0
24550,1.8125,-6.3125,-1.6875,0
24570,4.125,-7.6875,-0.9375,0
24590,3.125,-5.3125,0.8125,0
24610,3.6875,-2.4375,3.125,0
24630,-2.125,2.1875,2.1875,0
24650,-0.5,5.875,0.125,0
24670,7.875,3.5625,2.375,0
24690,15.1875,0.5,-1.1875,0
24710,11.5625,-0.25,-0.625,0
24730,4.125,0.1875,9.3125,0
24750,3.8125,4.5,7.125,0
24770,4.6875,11.8125,4,0
24790,-9.75,20.8125,6.375,0
24810,-8.5625,19.8125,14.875,0
24830,4,26.625,29.3125,0
24850,10,34.3125,40.4375,0
24870,5.25,43.875,52.5,0
24890,-2.3125,50.625,58.4375,0
24910,-2.8125,41.8125,69.1875,0
24930,0.4375,43.1875,69.125,0
24950,18.4375,57.0625,76.3125,0
24970,25.8125,51.3125,95.125,0
24990,34.9375,50.9375,89,0
25010,50.875,55.5,88.625,0
25030,72.1875,67.0625,99.4375,0
25050,55.125,76,102.938,0
25070,45.625,79,91.6875,0
25090,51.625,74.1875,86.375,0
25110,56.5625,70.75,93.375,0
25130,34.6875,74.5625,75.375,0
25150,21.375,65.6875,63.375,0
25170,14.875,45.9375,71.1875,0
25190,12.8125,27.8125,69.625,0
25210,18.8125,16.25,53.5,0
25230,12.75,10.4375,47.6875,0
25250,3.75,6.75,38.125,0
25270,0.4375,3.1875,26.6875,0
25290,5.0625,0.75,18.6875,0
25310,12.4375,3.0625,10.25,0
25330,14,4.9375,4.4375,0
25350,9.1875,2.8125,2.5625,0
25370,9.625,1.8125,3.6875,0
25390,12.9375,3.1875,1.5,0
25410,13.5625,3.5,-2.5625,0
25430,10.375,1,-6,0
25450,9.625,0.4375,-8.875,0
25470,9.6875,0.8125,-4.375,0
25490,8.6875,-0.4375,-4.5,0
25510,-1,0.8125,-6.6875,0
25530,9.5,-4.5,-11.5,0
25550,6.4375,-14.9375,0.3125,0
25570,12.1875,-15.4375,-2.1875,0
25590,15.75,-18.125,-4,0
25610,7.4375,-19.8125,0.375,1000
25630,5.0625,-16.25,-0.3125,0
25650,14.8125,-15.125,-4.25,0
25670,7.3125,-15.8125,-4.75,0
25690,1.6875,-13.0625,-6.125,0
25710,10.0625,-14.5625,-11.75,0
25730,3.125,-17.625,-9.3125,0
25750,-0.375,-18.5625,-9.5625,0
25770,-1.375,-15.375,-5.6875,0
25790,-1.1875,-10.5,-1.875,0
25810,-8,-6.9375,1.4375,0
25830,-8.6875,-2.3125,1.75,0
25850,-4.375,2.8125,3.625,0
25870,-4.3125,7.1875,8.0625,0
25890,-4.625,8.6875,6.625,0
25910,-1.4375,6.5,2.25,0
25930,2.875,4.5625,1.4375,0
25950,1.75,2.0625,2.875,0
25970,1.375,-0.0625,1.1875,0
25990,2.25,-1.9375,-0.9375,0
26010,2.625,-1.875,-0.8125,0
26030,-0.25,-0.6875,-2.125,0
26050,-0.1875,-0.5,0,0
26070,-1.875,0.375,0.0625,0
26090,1.3125,0.5625,-0.875,0
26110,1.4375,0.375,2.4375,0
26120,4.9375,-3.375,1.9375,0
26140,2.25,-9.25,5.4375,0
26160,9.3125,-14.5,5.1875,0
26180,9.0625,-19.8125,9,0
26200,10.625,-21.8125,10.4375,0
26220,11.1875,-21.9375,4.9375,0
26240,10.25,-24.625,0.6875,0
26260,14.75,-24.125,-4.1875,0
26280,16.1875,-21,-2.9375,0
26300,16.3125,-18.1875,-6.625,0
26320,11.6875,-16.375,-7.75,0
26340,10.0625,-17.5,-7.9375,0
26360,8.6875,-16.875,-6.75,0
26380,7.8125,-19.125,-3.625,0
26400,7.8125,-20.4375,-3.3125,0
26420,3.8125,-18.9375,-5.3125,0
26440,0.125,-15.875,-2.625,0
26460,-0.1875,-16.25,-3.125,0
26480,0.9375,-16,-4.5,0
26500,0.5625,-15.3125,-6.625,0
26520,0,-14.25,-5.875,0
26540,0.6875,-14.6875,-4.75,0
26560,0.4375,-15.125,-5.75,0
26580,-0.375,-17.1875,-8.4375,0
26600,-1.3125,-18.4375,-8.5,0
26620,-1.375,-18.375,-4.9375,0
26640,-0.875,-18.125,-6.3125,0
26660,1.1875,-20.875,-8.9375,0
26680,-0.4375,-22.3125,-8.8125,0
26700,-2.375,-20.875,-9.125,0
26720,-4.6875,-18.9375,-10.4375,0
26740,-4.125,-20.25,-13.375,0
26760,-6.625,-22.3125,-17.8125,0
26780,-9.8125,-24,-19.375,0
26800,-9.4375,-22.625,-20.4375,0
26820,-8.625,-19.6875,-24.8125,0
26840,-11.75,-16.5625,-31.0625,0
26860,-13.75,-16.125,-32.0625,0
26880,-13.1875,-16.9375,-30.8125,0
26900,-14.625,-17.0625,-32.75,0
26920,-20.375,-14.125,-36.25,0
26940,-24.3125,-11.4375,-38.6875,0
26960,-23.4375,-7.8125,-37.0625,0
26980,-19.375,-4.3125,-37.125,0
26990,-20.5625,1.5,-38.4375,0
27010,-22,6.375,-40.9375,0
27020,-22.0625,8.6875,-42.1875,0
27040,-18.9375,10.25,-41.9375,0
27060,-18.375,13.0625,-42.8125,0
27080,-22.3125,16.5625,-43.625,0
27100,-23.75,17.8125,-42.1875,0
27120,-21.875,16.75,-37,0
27160,-25.25,15.0625,-38,0
27180,-23.5,15.125,-37.0625,0
27240,-19.3125,17.5,-39.75,0
27270,-16.375,18.4375,-40.3125,0
27290,-18.375,21.0625,-41,0
27310,-17.125,22.1875,-40.1875,0
27330,-16.8125,23.0625,-40.25,0
27350,-18.125,25.625,-43,0
27370,-19.9375,28.6875,-44.1875,0
27390,-20.5625,29.5,-43.6875,0
27410,-18.25,28.875,-41.1875,0
27430,-19.375,29.5,-42.375,0
27450,-20.0625,30.75,-45,0
27470,-19.9375,34.0625,-44,0
27490,-18.6875,39.25,-39.4375,0
27510,-17.3125,44.75,-35.8125,0
27530,-17.25,50.0625,-33.8125,0
27550,-15.3125,52.625,-32,0
27570,-12.0625,54.5,-31.875,0
27590,-10.1875,57.1875,-30.4375,0
27610,-12.75,58.625,-27.875,0
27630,-11.8125,58.5,-28.25,0
27650,-4.6875,55.5,-28.1875,0
27670,-2.25,56.8125,-25.5625,0
27690,-10.75,60.6875,-20.5625,0
27710,-7.75,59.5625,-19.8125,0
27730,1.25,55.375,-16.1875,0
27750,0.4375,53,-11.75,0
27770,-13,51.375,-3.8125,0
27790,-1.25,44.75,4.5625,0
27810,14.375,36.125,10.25,0
27830,27.5625,28.875,13.9375,0
27850,15.1875,31.1875,24.75,0
27870,23.25,27.6875,18.625,0
27890,30.75,18.5,6.25,0
27910,21.5,26.1875,-2.6875,0
27930,-2.125,36.5625,1.875,0
27950,-6.0625,40,5.375,0
27970,10.75,36.75,2.25,0
27990,18.4375,31.8125,-2.625,0
28000,14.5625,29.75,1.625,0
28020,-16.0625,43.0625,11.375,0
28040,-6.6875,42.625,9.6875,0
28060,4.625,36.375,6.9375,0
28080,19.625,28.0625,12.4375,0
28100,-0.25,33.9375,21.9375,0
28120,-5.8125,42.6875,23.3125,0
28140,-6.125,41.5625,18.9375,0
28160,10.9375,28.875,25.1875,0
28180,9,27.0625,29.1875,0
28200,-18.75,39.1875,31.625,0
28220,-7.875,37.375,26.5625,0
28240,0.1875,26.625,26.3125,0
28260,8.4375,18.5625,27.3125,0
28280,-4.5,22.125,29,0
28300,-5.5,22.25,28.625,0
28320,0.375,17.0625,27,0
28340,-9.75,12.75,31.625,0
28360,-10.25,9.0625,38.875,0
28380,0.1875,4.6875,39.875,0
28400,1.9375,1.125,36.75,0
28420,-6.625,-1.75,34.25,0
28450,-9.6875,-10.4375,36.1875,0
28460,0.5625,-13.6875,34.4375,0
28480,4.125,-15.5,32.3125,0
28500,5.8125,-17,32,0
28520,3.9375,-18,33.625,0
28540,4.8125,-17.9375,35,0
28560,5.3125,-17.3125,35.3125,0
28580,3.1875,-19.125,37.875,0
28600,0.1875,-19.9375,40.4375,0
28620,-2.25,-20.25,40.1875,0
28640,-8.0625,-22.25,41.9375,0
28660,-7.5625,-24.0625,41.625,0
28680,-7.9375,-24.25,40.8125,0
28700,-11.6875,-27.25,45.375,0
28720,-22.9375,-31.125,53.375,0
28740,-36.875,-33.1875,60.8125,0
28760,-47.5,-36.1875,67.1875,0
28780,-43.4375,-38.375,60.5625,0
28800,-34.375,-43.5,50.875,0
28820,-26.6875,-48.5625,44.125,0
28840,-15.9375,-50.6875,41.25,0
28860,-11,-48.75,38.3125,0
28880,-10.9375,-46.4375,33.125,0
28900,-13.5625,-48.1875,29.125,0
28920,-14.25,-51.6875,30.625,0
28940,-17.6875,-53,36.3125,0
28960,-20.75,-47,33.1875,0
28980,-21.8125,-46.0625,30.875,0
29000,-24.6875,-52.25,31.25,0
29020,-21.875,-54.0625,24.3125,0
29040,-2.8125,-51.125,16.5,0
29060,3.0625,-51.375,13.125,0
29080,-3.625,-55.25,12.0625,0
29100,-6.25,-57.375,10.3125,0
29120,-1.125,-58.3125,4.9375,0
29140,6.9375,-62,2.1875,0
29160,2.8125,-65.3125,2.6875,0
29180,4.3125,-65.8125,-1.3125,0
29200,2.5625,-65.0625,-4.875,0
29220,1.625,-65.25,-2.8125,0
29240,6.5625,-64.6875,-2.8125,0
29260,-0.8125,-60.5625,-6.5625,0
29280,-6.25,-56,-9.5,0
29300,3.875,-56,-8,0
29320,7.9375,-58.5625,-5.125,0
29340,0.375,-59.5,-7.1875,0
29360,-10.625,-53.9375,-9.3125,0
29380,-5.8125,-54.375,-14.1875,0
29400,1.5,-59.4375,-20.5,0
29420,-8.125,-54.5625,-23,0
29440,-13.375,-46.3125,-31.9375,0
29460,-9.3125,-46.375,-38.5,0
29480,-1.375,-50.0625,-44.25,0
29500,-3.875,-52.5625,-48.875,0
29520,-24.8125,-41.75,-58.5625,0
29540,-30.375,-33.125,-59.6875,0
29560,-19.75,-34.0625,-66.8125,0
29580,-20.6875,-29.0625,-70.75,0
29600,-23.6875,-22.25,-71.3125,0
29620,-25.6875,-14.875,-71.6875,0
29640,-28,-7.6875,-70.75,0
29660,-27.25,-4.8125,-73.75,0
29680,-29.875,-0.125,-77.25,0
29700,-31.875,6.375,-78.25,0
29720,-31.8125,14.9375,-81.3125,0
29740,-35.125,20.1875,-84.0625,0
29760,-34.625,21.4375,-84.875,0
29780,-32.0625,21.75,-84.5625,0
29800,-30.1875,23.9375,-85.25,0
29820,-28.25,24.625,-83.875,0
29840,-29.875,24.5,-79.75,0
29860,-25.375,27.0625,-77.25,0
29880,-21.625,27.375,-71.5,0
29900,-21.125,29.6875,-68.375,0
29920,-21.25,30.0625,-61.5,0
29940,-24.875,34.625,-57.3125,0
29960,-24.6875,38.0625,-57.25,0
29980,-18.3125,37.0625,-55.25,0
30000,-12.5625,36.25,-56.0625,0
30020,-10.875,37.0625,-51.3125,0
30040,-12.875,43.9375,-44.6875,0
30060,-9.625,48.5625,-41.625,0
30080,-1.375,47.0625,-29.75,0
30100,9.9375,45.5,-30.8125,0
30120,6.6875,43.9375,-14.9375,0
30140,3.875,43.6875,-9.0625,0
30160,4.6875,41.0625,-7.0625,0
30180,8.8125,33.25,-1.625,0
30200,4.75,29.375,0.1875,0
30220,-9.9375,48.1875,8.8125,0
30240,-19.5625,55.25,8.75,0
30260,-8.875,54.8125,13.0625,0
30280,-0.375,50.0625,21.625,0
30300,-13.8125,55.125,30.25,0
30320,-26.875,60.875,43.125,0
30340,-2.5,51.75,41.5625,0
30360,19,37.5625,44.5625,0
30380,5.25,38.6875,45.0625,0
30400,-17.625,47.1875,57.125,0
30420,-37.4375,48.4375,65.5,0
30440,-27.25,41,60.75,0
30460,-12.6875,39.625,61.1875,0
30480,-22.25,47.875,65.0625,0
30500,-7.5,46.1875,63.9375,0
30520,0.6875,36.4375,59.5625,0
30540,1.0625,32.625,53.1875,0
30560,-4.3125,32.5625,51.8125,0
30580,3.0625,26.625,56.625,0
30600,4.8125,19.8125,55.25,0
30620,13.5625,11.875,49.3125,0
30640,6.875,9.8125,49.75,0
30660,6.0625,8.1875,50.0625,0
30680,5.6875,3.25,50.25,0
30700,0.375,1.6875,50.8125,0
30720,-8,-0.3125,51.0625,0
30740,-0.6875,-4.8125,49.1875,0
30760,1.4375,-8.6875,47.9375,0
30780,-5.3125,-11.25,48.3125,0
30800,-12.75,-11.5,48.0625,0
30820,-9.8125,-16.875,47.5625,0
30840,-6.5,-23.6875,46,0
30860,-10.25,-27.4375,46.125,0
30880,-14.3125,-27.8125,43.875,0
30900,-15.3125,-32.125,42.5,0
30920,-14,-32.1875,38.75,0
30940,-10.5,-31.1875,36.1875,0
30960,-11.5625,-31,35.9375,0
30980,-9.125,-30.9375,29.75,0
31000,-7,-32.5625,26.625,0
31020,-8.1875,-33.9375,25.75,0
31040,-11.1875,-34.5625,24.75,0
31060,-10.3125,-34.875,24.125,0
31080,-9.75,-37.75,21.25,0
31100,-4.625,-43.375,19.25,0
31120,-4.375,-46.75,17.75,0
31140,-8.125,-43.25,14.0625,0
31160,-13.25,-45.9375,14.4375,0
31180,-15.125,-52.75,12.75,0
31200,-18.875,-54.0625,5.8125,0
31220,-16.5625,-55.6875,3.375,0
31240,-12.875,-58.8125,4.4375,0
31260,-9.5,-61.875,1.5625,0
31280,-8.6875,-65.1875,-2.6875,0
31300,-10.3125,-66.75,-4.25,0
31320,-6.3125,-67.5,-8.75,0
31340,-0.75,-68.0625,-13.5,0
31360,3.875,-67.5,-19.4375,0
31380,-3.8125,-66.4375,-23.375,0
31390,2,-66.0625,-27.1875,0
31410,6.75,-66.4375,-30.375,0
31430,2.1875,-62.6875,-34.5,0
31450,-1.625,-61.3125,-35.625,0
31470,0.625,-61.5,-40.375,0
31490,2.5,-59.875,-42.4375,0
31510,-6.6875,-55,-42.625,0
31530,-7.6875,-48.6875,-42.625,0
31550,-12.375,-46.625,-44.5625,0
31570,-10,-48,-48.5,0
31590,-12.5,-45.8125,-47.3125,0
31610,-14.25,-38.9375,-51.4375,0
31630,-20.875,-33.25,-51.4375,0
31650,-24.5,-25.125,-46.875,0
31670,-9.875,-23.625,-53.5,0
31690,-11.6875,-19.875,-59.4375,0
31710,-15.375,-16.1875,-63.4375,0
31730,-24.0625,-12.5,-59.9375,0
31750,-21.8125,-5.625,-59.8125,0
31770,-15.75,-2.75,-62.375,0
31790,-23.4375,1,-64.6875,0
31810,-30.3125,4.5,-68.4375,0
31830,-28.875,5.4375,-69.3125,0
31850,-27.25,6,-66.1875,0
31870,-33.875,11.1875,-65.6875,0
31890,-38.5,17.6875,-65.875,0
31910,-37.5,23.5,-60.9375,0
31930,-33.0625,29.3125,-56.5625,0
31950,-32.0625,33.5625,-52.6875,0
31970,-33.25,39.8125,-52.5,0
31990,-26.9375,42.0625,-48.9375,0
32010,-23.1875,43.75,-46.5625,0
32030,-18.875,43.25,-43.5,0
32050,-23.3125,50.3125,-40.75,0
32070,-30.375,61.5625,-37.6875,0
32090,-24.0625,63.125,-32.5,0
32110,-20.4375,63.25,-27.4375,0
32130,-22.75,65.625,-22.875,0
32150,-26.25,73,-17.625,0
32170,-30.1875,76.8125,-12.9375,0
32190,-28.875,72.125,-7,0
32210,-18.1875,67.3125,-1.3125,0
32230,-21.25,74.125,5.9375,0
32250,-31.25,75.25,13.4375,0
32270,-23.1875,62.6875,21.5,0
32290,-12.875,56.0625,32.125,0
32310,-19.25,60,38.125,0
32330,-43.0625,61.8125,46.5625,0
32350,-46.0625,56.9375,50.25,0
32370,-25.3125,52.625,52.3125,0
32390,-18.875,50.5,59.125,0
32410,-31.9375,51,65,0
32430,-22.875,45.1875,60.6875,0
32450,-11.6875,36.625,57.875,0
32470,-20,35.4375,59.75,0
32490,-22.5625,29.4375,59.875,0
32510,-9.8125,21.9375,55.75,0
32530,0.6875,18.125,50.9375,0
32550,-4.75,17.5625,50.1875,0
32570,-19,15.6875,51.0625,0
32590,-21.625,7.6875,51.625,0
32610,-6.9375,1.9375,49.75,0
32630,-4.875,-0.1875,47,0
32650,-11.25,-2.125,47.25,0
32670,-10.375,-7.5,45.375,0
32690,-3.5,-12.9375,41.5,0
32710,-2.125,-16.25,37.875,0
32730,-4.3125,-18.25,34.9375,0
32750,-3.9375,-22.5625,33.4375,0
32770,-5.875,-24.625,31.75,0
32790,-5.1875,-27.25,31.375,0
32810,-2.75,-29,30.75,0
32830,-0.3125,-27,29.25,0
32850,-7.375,-28.1875,28.25,0
32870,-6.4375,-30.6875,26,0
32890,-7.875,-32.4375,25.5,0
32910,-7.125,-34.5625,25.3125,0
32930,-11.1875,-38.8125,26.5625,0
32950,-12.875,-41.375,24.3125,0
32970,-11.625,-44.8125,21.125,0
32990,-11.25,-46.3125,18.4375,0
33010,-8.375,-48.5625,17.0625,0
33030,-6.0625,-50.75,14.25,0
33050,-9,-52.25,10.1875,0
33070,-8.5625,-54.8125,8.5,0
33090,-3.875,-55.375,5.625,0
33110,-4.5,-54.3125,3,0
33130,-5.1875,-56.4375,0.375,0
33150,-6.125,-59.5,-1.8125,0
33170,-7,-58.5625,-3.625,0
33190,-9.1875,-56.5,-5.5625,0
33210,-5.375,-57.4375,-6.3125,0
33230,-5.0625,-57,-5.8125,0
33250,-5.125,-54.6875,-8,0
33270,-11,-54.125,-10.25,0
33290,-10.6875,-54.4375,-10.8125,0
33310,-3.9375,-53.3125,-12.8125,0
33330,-1.125,-51.9375,-14.125,0
33350,-9.625,-52.6875,-12.75,0
33360,-15.25,-49.375,-17.0625,0
33380,-9.8125,-46.5625,-25.9375,0
33400,-4.9375,-47.25,-29.25,0
33420,-1.125,-47,-32.875,0
33440,-1.625,-46.75,-36.75,0
33460,-5.0625,-48.25,-38.875,0
33480,-12.875,-46.875,-34.75,0
33500,-15.1875,-43.8125,-34.3125,0
33520,-14.6875,-47.875,-36.875,0
33540,-16.5,-47.3125,-34.9375,0
33560,-15.9375,-44.5,-32.75,0
33580,-15.75,-41.1875,-29.4375,0
33600,-14.3125,-39.1875,-28.1875,0
33620,-9,-31.6875,-27.1875,0
33640,-0.6875,-27.5625,-24.875,0
33660,2.0625,-26.375,-20.5625,0
33680,-7.8125,-21,-15.1875,0
33700,-7.4375,-15.875,-15.625,0
33720,-2.625,-13.375,-22,1001
33740,-1,-10.9375,-18.75,0
33760,1.875,-13.3125,-12.5,0
33780,6,-8.625,-8.25,0
33800,4.4375,-5.1875,-5.3125,0
33820,11.0625,-4.9375,-1.875,0
33840,3.6875,-3.25,0.75,0
33860,3.9375,-0.4375,5.125,0
33880,3.875,2.5,3.8125,0
33900,7.0625,3.1875,1.3125,0
33920,2.3125,2.25,2.0625,0
33940,4.0625,2.875,5.0625,0
33960,9.875,4,1.375,0
33980,0.0625,6.6875,-6.4375,0
34000,2.5625,7.3125,3,0
34020,4.5625,15.5,5.3125,0
34040,13.625,34.0625,-5.0625,0
34060,11.5625,40.5625,-9.6875,0
34080,21.9375,43.6875,-1.125,0
34100,29,44.1875,-8.1875,0
34120,17.25,47.6875,-1.375,0
34140,2.1875,54,9.25,0
34160,10.8125,63.75,18.625,0
34180,32.5625,71.875,29.375,0
34200,32.6875,74.3125,54.9375,0
34220,29.75,89.5625,71.625,0
34240,41.0625,104.375,94.8125,0
34260,62.125,116.312,114.188,0
34280,82,120.188,127,0
34300,75.625,120.938,142,0
34320,70.5,135.562,137.562,0
34340,67.5625,148.625,136.062,0
34360,90.625,142.062,142.562,0
34380,78.75,118.438,130.938,0
34400,58.625,91.8125,104.688,0
34420,35.3125,61.25,76.4375,0
34440,21.8125,31.5,48.25,0
34460,12.4375,2.5625,36.6875,0
34480,-0.25,-21.25,32.8125,0
34500,-7.875,-39.875,19.4375,0
34520,-10.4375,-43.25,6.0625,0
34540,-10.375,-41.0625,2.5625,0
34560,-5.25,-38.375,-3.8125,0
34580,2.0625,-35.8125,-6.3125,0
34600,-2.8125,-28.5625,-2.6875,0
34620,-3.625,-12.5625,-4.8125,0
34640,-3.9375,-3.5625,-10.25,0
34660,1.6875,-4.3125,-6.375,0
34680,-1.5,-3.375,-8.375,0
34700,-0.8125,3.75,-3.125,0
34720,8,6.9375,-10.25,0
34740,14.8125,6.125,-13.5,0
34760,5.125,6.125,-0.3125,1000
34780,1,15.4375,4.5,0
34800,8.5,12.5625,-11.4375,0
34820,8.9375,2.625,3.125,0
34840,-6.5,3.5,12.3125,0
34860,-7.625,6.125,3.0625,0
34880,-3.0625,4.1875,8.75,0
34900,2.125,2.9375,14.25,0
34920,1.1875,3,0.375,0
34940,-0.875,4.25,0,0
34960,-0.25,3.3125,3.25,0
34980,-1.0625,-0.8125,-1.8125,0
35000,-5.125,-2.3125,1.9375,0
35020,-7.5625,-2.625,6.25,0
35040,-8.625,-4,4.75,0
35060,-7.125,-3.75,3.5,0
35080,-9.6875,-0.9375,3.9375,0
35100,-8.4375,0.0625,3.8125,0
35120,-7.5,-0.375,6.375,0
35140,0.875,-4.375,1.875,0
35160,7.125,-10.875,-0.8125,0
35180,10,-16.5625,-0.375,0
35200,9.4375,-20.0625,-0.125,0
35220,8.0625,-23.8125,0.0625,0
35240,9.4375,-27.5625,2.375,0
35260,9.9375,-27.4375,1.6875,0
35280,12.375,-26.625,-2.375,0
35300,11.1875,-31.3125,-6.75,0
35320,10.0625,-32.8125,-2.25,0
35340,8.4375,-29.8125,-4.3125,0
35360,4.375,-29.3125,-6.125,0
35380,3,-32.9375,-7,0
35400,2.75,-36.3125,-3.375,0
35420,1.875,-35.5625,-2.8125,0
35440,-0.9375,-33.5625,-5.375,0
35460,-1.4375,-34.1875,-9.375,0
35480,-0.5,-35.125,-8,0
35500,-0.0625,-32,-6.9375,0
35520,-4.5625,-28.8125,-10.1875,0
35540,-6.5,-27.8125,-10.375,0
35560,-4.4375,-26.4375,-10.9375,0
35580,-4.625,-24.25,-13.0625,0
35600,-6.75,-23.875,-14.25,0
35620,-7.875,-23.5,-14.4375,0
35640,-9.75,-23.3125,-18.1875,0
35660,-10.4375,-23.875,-19.9375,0
35680,-9.1875,-23.5,-21.25,0
35700,-11.5625,-19.875,-25.3125,0
35720,-15.6875,-14.5625,-31.4375,0
35740,-18,-11.125,-32.5625,0
35760,-15.9375,-9.1875,-31.4375,0
35780,-17.75,-3.3125,-37.3125,0
35800,-26.375,3.8125,-44.1875,0
35820,-30.375,9.8125,-45.5,0
35840,-28.9375,11.8125,-43.0625,0
35860,-31,16.5625,-46.3125,0
35880,-34.875,24.375,-53.5,0
35900,-39.125,32.75,-58.5625,0
35930,-33.5625,37.1875,-52.9375,0
35950,-31.5625,40.875,-56.1875,0
35960,-32.9375,45.5625,-61.3125,0
35980,-30.4375,43.5,-60.9375,0
36000,-25.8125,38.4375,-58.1875,0
36020,-25.125,35.4375,-57.0625,0
36030,-28.4375,35.5,-60.875,0
36050,-29.5625,33.25,-63.1875,0
36070,-27.25,28.4375,-60.25,0
36090,-27,25.5,-56.9375,0
36110,-27.9375,26.0625,-57.9375,0
36130,-28.1875,26.625,-59.5,0
36150,-24.9375,25.75,-57.0625,0
36170,-20.25,23.4375,-55.75,0
36190,-18,24.4375,-57.625,0
36210,-17.1875,28.4375,-62.375,0
36230,-15.5625,30.125,-62.5625,0
36250,-14.9375,30.6875,-61.0625,0
36270,-16.4375,33.5,-62.5,0
36290,-18.875,39.8125,-62.1875,0
36310,-18.375,45,-58.375,0
36330,-13.4375,47.75,-54.3125,0
36350,-9.625,50,-51.125,0
36370,-7.0625,54.75,-49.5,0
36390,-10.75,61.375,-44.5,0
36410,-13.0625,63.9375,-37.5625,0
36430,-8.3125,63.0625,-32.0625,0
36450,-2.3125,63.5625,-31.375,0
36470,-6.1875,66,-24.5,0
36490,-0.75,63.0625,-17.1875,0
36510,7.1875,58.5625,-11.5625,0
36530,10.6875,54.25,-12.3125,0
36550,4.4375,51.3125,0.625,0
36570,22,43.1875,15.375,0
36590,35.125,32.0625,20.8125,0
36610,31.1875,29.875,16.875,0
36630,30.25,18.125,16.6875,0
36650,16.5,32.4375,19.6875,0
36670,6.0625,38.3125,18.375,0
36690,-11.5,44.5625,20.4375,0
36710,-1.375,42.875,19.375,0
36730,2.875,44.5625,28.0625,0
36740,10.375,48.4375,33.6875,0
36760,9.25,57.1875,29.6875,0
36780,-6.5625,58,24.1875,0
36800,-1.75,45.75,35.4375,0
36820,-0.1875,38.6875,46.4375,0
36840,3.6875,39.125,40.5625,0
36860,-13.375,36.6875,37.8125,0
36880,-13.75,23.375,56,0
36900,-12.5,12.75,61.875,0
36920,9.25,6.8125,51.9375,0
36940,-15.4375,5.625,54.9375,0
36960,-18.4375,5.1875,61.25,0
36980,-25.6875,5.8125,67.6875,0
37000,-18.125,-0.0625,61.8125,0
37020,-17.125,-9.4375,60.8125,0
37040,-11.3125,-12.9375,60.8125,0
37060,-6.3125,-13.3125,61.875,0
37080,-11.375,-17.3125,64.625,0
37100,-17.75,-25.5625,63.5625,0
37120,-21.625,-31.25,64,0
37140,-14.875,-33.875,64.0625,0
37160,-10.25,-37.1875,60.9375,0
37180,-11.1875,-45.375,58.125,0
37200,-20.5,-51.3125,58.4375,0
37220,-27.75,-47.375,55.25,0
37240,-19.6875,-50.1875,57.125,0
37260,-18.1875,-59.8125,54.125,0
37280,-25.8125,-60.4375,45.875,0
37300,-27.75,-62.8125,39.1875,0
37320,-24.625,-70,37.5,0
37340,-19.3125,-72.1875,34.375,0
37360,-18.5,-70.75,27.6875,0
37380,-19.75,-72.5625,22.625,0
37400,-25.375,-78.75,24.75,0
37420,-23.9375,-81,25.875,0
37440,-22.875,-80.125,26.6875,0
37460,-22.5625,-80.25,24.625,0
37480,-26.6875,-80.4375,22.625,0
37500,-20.4375,-79.4375,20.6875,0
37520,-7.3125,-80.375,19.25,0
37540,-6.375,-82.375,11,0
37560,-11.5625,-77.125,4,0
37580,6,-77.5625,-3.8125,0
37600,3.9375,-77.5625,-3.25,0
37620,-3.8125,-75.125,-9.375,0
37640,1.75,-75.1875,-24.3125,0
37660,-0.9375,-73.5625,-26.5,0
37680,-0.0625,-73,-29.375,0
37700,-3.625,-68.125,-39.8125,0
37720,-4.625,-64.0625,-52.8125,0
37740,-17.375,-63.1875,-56.125,0
37760,-10.8125,-66.5625,-60.9375,0
37780,-20.375,-58.5625,-66.625,0
37800,-30.75,-46.5625,-83.6875,0
37820,-31,-40.875,-87.1875,0
37840,-34.5,-33.4375,-89.4375,0
37860,-38.6875,-25.9375,-93.8125,0
37880,-41.1875,-14.6875,-97.4375,0
37900,-45.75,-0.9375,-104.688,0
37920,-49,14.25,-109.25,0
37940,-51.125,27.25,-108.625,0
37960,-54.5,35.875,-111.75,0
37980,-56.5625,44.5625,-115.812,0
38000,-52.6875,51.5,-117.312,0
38020,-45.3125,56.9375,-115.562,0
38040,-46.4375,64.5,-111.438,0
38060,-46.9375,69.0625,-106.375,0
38080,-44.375,75.875,-104.312,0
38100,-40.1875,81.75,-100.938,0
38120,-32.875,82.0625,-87.3125,0
38140,-26.25,79.0625,-75.1875,0
38160,-16.375,76,-61.0625,0
38180,-5.125,69.0625,-49.125,0
38200,-1.5,73.9375,-31.5,0
38220,0.625,69.0625,-6.8125,0
38240,5.3125,63.375,12.5,0
38260,-13.9375,79.625,14.5,0
38280,-39.375,83.0625,33.8125,0
38300,-35.5,76.875,52.3125,0
38320,-16.9375,75.25,59.5,0
38340,-8.9375,68.5625,70.25,0
38360,-4.8125,59.3125,79.625,0
38380,-12.0625,48.4375,84.8125,0
38400,-33.75,43.4375,91.5625,0
38420,-14.875,31.4375,91.0625,0
38440,-17.125,15.75,96.0625,0
38460,-22,4,101.375,0
38480,-46.8125,1.0625,102.125,0
38500,-4.375,-10.125,94.125,0
38520,4,-15.875,92.4375,0
38540,2.375,-18.8125,91.6875,0
38560,-8.6875,-16.8125,88.3125,0
38580,3.4375,-20.25,84.3125,0
38590,6,-30,85.125,0
38620,0.0625,-36.625,82.8125,0
38640,-0.625,-39.6875,77.375,0
38660,-2.875,-45.875,76,0
38680,-2.5,-50.625,72.5,0
38700,-2.25,-51.0625,64.25,0
38720,1.5625,-55.5,58.8125,0
38730,1.1875,-59.3125,53.6875,0
38750,-1.0625,-64.875,49.6875,0
38770,-10,-72.5,48.1875,0
38790,-9.875,-76.3125,43.875,0
38810,-3,-77.0625,35.5,0
38830,-8.4375,-82.4375,31.6875,0
38850,-7.0625,-87.625,21,0
38870,-1.25,-88.5,4.375,0
38890,6.1875,-85.8125,-6.1875,0
38910,6.3125,-84.4375,-18.1875,0
38930,1.3125,-86.0625,-28.25,0
38950,-1.6875,-86.125,-42,0
38970,-4.4375,-81,-59.0625,0
38990,-13.25,-73,-62.125,0
39010,-17.75,-71.6875,-63.5625,0
39030,-25.3125,-71.8125,-71.8125,0
39050,-40.3125,-64.375,-80.375,0
39070,-33.8125,-62.3125,-84.6875,0
39090,-37.6875,-63.125,-84.9375,0
39110,-50.5625,-55.25,-88.4375,0
39130,-54.5625,-45.125,-93.375,0
39150,-54.6875,-38.625,-94.625,0
39170,-51.8125,-28.25,-94.1875,0
39190,-57.25,-13.25,-90.5,0
39210,-56.625,-0.875,-92.25,0
39230,-54.8125,5.375,-92.6875,0
39250,-53.75,12.625,-92.0625,0
39270,-47.6875,27.75,-87.4375,0
39290,-31.375,39.8125,-88,0
39310,-24,49.75,-86.9375,0
39330,-27.375,61,-84.375,0
39350,-30.375,67.625,-77.1875,0
39370,-21.3125,73,-66.5,0
39390,-13.5625,79.875,-62,0
39410,-15.3125,84.25,-58.625,0
39430,-21,88,-44.625,0
39450,-16.125,93.25,-27.9375,0
39470,5.6875,87.5,-11.625,0
39490,10.1875,85.3125,-0.75,0
39510,5.75,88.875,8.125,0
39530,-3.8125,94.5,22.1875,0
39550,-24.4375,98.8125,42.5,0
39570,-2.3125,90.9375,46.9375,0
39590,-8.375,85.5,60.8125,0
39610,-5.1875,75.125,72.75,0
39630,-6.3125,62.5625,75.75,0
39650,-14.5625,56.3125,75.0625,0
39670,-23.4375,51.5625,82.25,0
39690,-22.8125,44.5625,92.25,0
39710,-11.4375,38.625,94.9375,0
39730,-11.25,32.5625,88.8125,0
39750,-27.0625,24,80.625,0
39770,-8.25,14.875,79.875,0
39790,-0.75,8.5,86.625,0
39810,2.375,2.875,82.4375,0
39830,-8.5625,-6.3125,80.75,0
39850,-7.125,-13.4375,82.75,0
39870,-6.4375,-17.3125,79.3125,0
39890,-8.5,-23.5,71.6875,0
39910,-13.3125,-28.3125,61,0
39930,-8.25,-34.6875,54.0625,0
39950,8.5,-44.3125,49.375,0
39970,9.4375,-51.375,42.6875,0
39990,1.3125,-56,35.625,0
40010,-2.625,-62.875,30.5625,0
40030,1.0625,-68.8125,26.5,0
40050,0.125,-72.0625,24.4375,0
40070,-6.6875,-75.5625,19.3125,0
40090,-7.875,-84.1875,13,0
40110,-0.1875,-90.3125,4.5625,0
40130,4.625,-90.125,-5.375,0
40150,0.875,-86.625,-11.3125,0
40170,-2.5625,-84.1875,-17.6875,0
40190,3.25,-88.0625,-29,0
40210,13.4375,-88.3125,-34.5625,0
40230,13.75,-83.875,-38.4375,0
40250,1.25,-82.625,-40.625,0
40270,-8.9375,-81.0625,-45.125,0
40290,-14.125,-75.5625,-48.875,0
40310,3.6875,-69.9375,-48.625,0
40330,-3.9375,-64.3125,-40.4375,0
40350,-26.75,-58.1875,-36.9375,0
40370,-27.1875,-56.0625,-42.1875,0
40390,-6,-61.5,-44.375,0
40410,-6.1875,-60.625,-37.4375,0
40430,-24.3125,-50.25,-32.5,0
40450,-20.6875,-46,-32.6875,0
40470,-17.625,-40.4375,-31.5625,0
40490,-4.125,-37.0625,-29.0625,0
40510,-8.5,-26.5,-22.5625,1001
40530,-12.5,-13.9375,-20.125,0
40550,0.75,-13.4375,-14.3125,0
40570,0.5625,-12.375,-14,0
40590,0.4375,-7.5,-12.5625,0
40610,3.8125,-3.25,-8.4375,0
40630,5.3125,-2.8125,-3.0625,0
40650,0.375,1.4375,1.5625,0
40670,-0.5625,6.625,3.4375,0
40690,8.125,6,6,0
40710,6.6875,5.1875,6.75,0
40730,5.6875,5.6875,8.125,0
40750,-0.375,8.3125,7.6875,0
40770,1.5,6.375,6.25,0
40790,11.0625,2.75,6.9375,0
40810,13.6875,1.8125,2.8125,0
40830,-1.125,-1.9375,-0.875,0
40850,-4.5,-5.5625,6.3125,0
40870,3.625,-2.375,1.625,0
40890,2.0625,12.625,-17.5,0
40910,10.3125,19.4375,-11.5625,0
40930,3.3125,31.625,6.8125,0
40950,-0.8125,40.6875,14.25,0
40970,-10.75,49.1875,29.625,0
40990,-15.0625,61.625,49.25,0
41010,-18.4375,74.1875,66.3125,0
41030,-22.875,89.4375,85.9375,0
41050,-5.125,101.062,119.688,0
41070,25.75,116.938,138.625,0
41090,44.0625,135.562,164.5,0
41110,67.375,167.5,184.375,0
41130,87.125,188.625,203.438,0
41150,72.75,201.5,208.5,0
41170,78.0625,215.188,203.312,0
41190,94.5,220.875,192.375,0
41210,103.75,201.688,187,0
41230,114.688,167.375,144.875,0
41250,141.125,128.688,105.625,0
41270,144.938,85,89.1875,0
41290,108,40.1875,51.625,0
41310,69.9375,1,-0.9375,0
41330,4.4375,-19.3125,17.625,0
41350,-45.9375,-45.5,20.875,0
41370,-67.5625,-74.3125,-24.9375,0
41390,-66.375,-84,-37.875,0
41410,-63.5625,-86.1875,-44.6875,0
41430,-46.625,-85.25,-65.0625,0
41450,-36,-75.9375,-47.5,0
41470,-28.375,-68.4375,-27.875,0
41490,-21.8125,-61.25,-31.1875,0
41510,-18.125,-51.8125,-26.75,0
41530,-13.9375,-43.6875,-18,0
41550,-7.6875,-38.375,-18.4375,0
41570,-7.1875,-31.625,-16.125,0
41590,-6.375,-26.75,-12.8125,0
41610,-2.9375,-23.5,-14.1875,0
41630,-0.375,-20.5,-11.25,0
41650,-3.1875,-18.0625,-11.8125,0
41670,-3.375,-16.375,-11.125,0
41690,-0.875,-11.4375,-7.125,0
41710,-1.4375,-4.875,-7.375,0
41730,-4.375,0.4375,-4.4375,0
41750,-16.6875,8.625,-2.75,0
41770,-11.25,9.875,0.0625,0
41790,-1,9.8125,-0.625,0
41810,3.25,8.5625,-4.5625,0
41830,2.875,4.1875,-0.8125,0
41850,-1.0625,-1.4375,-1.5625,0
41870,1.6875,-4.625,-4.3125,1000
41890,0.4375,-6,-1.9375,0
41910,-3.125,-4.8125,2.5625,0
41930,-5.4375,-2.375,4,0
41950,-4.8125,-0.5,2.9375,0
41970,-1.5,0.6875,0.875,0
41990,-1.875,3.3125,0.3125,0
42010,0.625,3.625,1.625,0
42030,2.6875,0.125,-0.75,0
42050,4.125,-5.1875,-5,0
42070,-0.1875,-9.125,-0.75,0
42090,7.0625,-17.6875,10.375,0
42110,7.6875,-23.125,9.0625,0
42130,14.125,-29.3125,-6.25,0
42140,11.25,-35.9375,-7.4375,0
42160,9.5625,-41.1875,-2.9375,0
42180,7.375,-44.125,-6.8125,0
42200,2.4375,-47.3125,-16.5,0
42220,-0.125,-53,-19.375,0
42240,1.5,-57.375,-13.3125,0
42260,-4.8125,-53.9375,-16.125,0
42280,-13.625,-52.9375,-27.125,0
42300,-18.1875,-52.0625,-32.4375,0
42320,-18.625,-47.25,-30.5625,0
42340,-27.125,-41.3125,-33.75,0
42360,-35.375,-36.3125,-44.125,0
42380,-41.5,-32.0625,-52.0625,0
42400,-41.0625,-28.0625,-53.1875,0
42420,-43.125,-26.4375,-52.8125,0
42440,-50.6875,-21.875,-63.5,0
42460,-57.25,-16.5,-74.1875,0
42480,-54.1875,-13.25,-74.75,0
42500,-50.9375,-10.375,-72.625,0
42520,-55.0625,-1.8125,-80.75,0
42540,-60.375,7.875,-92.5625,0
42540,-58.1875,16.25,-95.1875,0
42570,-53.6875,42.0625,-92.9375,0
42580,-48.125,46.625,-87.1875,0
42600,-47.9375,54.5,-87.0625,0
42620,-45.1875,60.0625,-87.25,0
42640,-38.375,61.375,-84.125,0
42660,-32.875,63.3125,-80.9375,0
42680,-23.875,66.75,-80.0625,0
42700,-19.375,71.9375,-77.25,0
42720,-21.125,73,-71.8125,0
42740,-15.8125,73.4375,-60.25,0
42760,-11.5,75.5,-48.375,0
42780,-3.625,81,-39.625,0
42800,-7.6875,89.125,-29.875,0
42820,-13.875,95,-16.5,0
42840,-12.0625,96.8125,-4.4375,0
42860,-12.75,100.062,8.625,0
42880,-16.3125,103.062,22.875,0
42900,-0.125,92.75,37.1875,0
42920,28.5,75.3125,53.125,0
42940,41.25,54.8125,69.375,0
42960,24.1875,32.4375,72.0625,0
42980,25.0625,36.9375,57.0625,0
43000,22.0625,39.875,48.9375,0
43020,11.875,36.5,56.5,0
43040,6.8125,24.6875,62,0
43060,15.4375,17.8125,63.625,0
43080,2.3125,16.4375,63.6875,0
43100,-14.75,16.75,63.625,0
43120,-3.75,8.125,68.375,0
43140,14.625,-1.5,71.625,0
43160,15.0625,0.375,61.9375,0
43180,-10.4375,2.5625,60.0625,0
43200,-7.9375,-9.1875,66.375,0
43220,8.625,-18.375,68.75,0
43240,17.3125,-18.75,66.0625,0
43260,0.4375,-17.8125,67.6875,0
43280,-13.6875,-23.375,71.1875,0
43300,-8.625,-30.125,72.75,0
43320,6.875,-32.9375,69.0625,0
43340,0.1875,-34.625,66.375,0
43360,-3.75,-40.125,64.6875,0
43380,-7.5625,-47.1875,62.5625,0
43400,-4.5,-52.75,62.5,0
43420,-0.1875,-54.6875,58.3125,0
43440,-3.3125,-56.1875,55.375,0
43460,-11.25,-60.625,57.125,0
43480,-12.125,-64.9375,56.125,0
43500,-10.125,-66.125,47.5625,0
43520,-8.3125,-66.5625,43.4375,0
43540,-0.8125,-70.125,42,0
43560,0.5625,-72.375,33,0
43580,-8.75,-68.8125,21.375,0
43600,-12.0625,-67.625,16.25,0
43620,-5.8125,-71.25,10.9375,0
43640,-7.3125,-71.9375,4.0625,0
43660,-21.3125,-68.8125,-1.875,0
43680,-14.625,-73.375,-10.1875,0
43700,-12.75,-79.1875,-15,0
43720,-22.0625,-80.5625,-23.0625,0
43740,-21.375,-82.125,-37.6875,0
43760,-18.375,-88.3125,-43.25,0
43780,-37.5,-84.875,-58,0
43800,-44.0625,-77.375,-68.875,0
43820,-45.75,-73.9375,-79.5,0
43840,-45.4375,-70.25,-86.5,0
43860,-46.5625,-67.375,-95,0
43880,-49.4375,-62.6875,-101.188,0
43890,-58.75,-52.0625,-104.375,0
43920,-63.875,-36.625,-107.688,0
43940,-67.875,-22.6875,-111.938,0
43960,-66.125,-9.5,-115,0
43980,-59.6875,1.3125,-115.75,0
44000,-55.625,14.25,-117.25,0
44010,-55,29.6875,-119.938,0
44030,-55.8125,40.6875,-117.562,0
44050,-49.1875,49.25,-112.688,0
44070,-40.6875,59.125,-108.25,0
44090,-36.25,69.0625,-106.438,0
44110,-25.125,74.9375,-101.688,0
44130,-10,77.3125,-93.1875,0
44150,-8.9375,81.4375,-85.3125,0
44170,-23.8125,92.8125,-72.4375,0
44190,-27.3125,101.062,-56.9375,0
44210,-14.875,96.9375,-39.9375,0
44230,5.125,81.5625,-20.8125,0
44250,-3.5625,85.25,-0.5,0
44260,-6.5625,89.375,23.375,0
44280,22.125,70.875,38.5,0
44300,35.3125,54.4375,48.0625,0
44320,30.1875,42.25,53,0
44340,14.5625,57.875,66.125,0
44360,14.125,46.625,62.6875,0
44380,17.625,33.5625,69.1875,0
44400,-5.875,42.5625,78.5625,0
44420,-22,39.5625,89.5,0
44440,2.9375,15.25,93.0625,0
44460,33.3125,1.25,82.8125,0
44480,30.4375,3.75,78.25,0
44500,-14.9375,13.4375,91,0
44520,0.5625,5.1875,92.9375,0
44540,19.5625,-2.75,85.9375,0
44560,15.75,-2.5625,84,0
44580,-14.875,-0.75,98,0
44600,9.375,-13.0625,96.125,0
44620,7.0625,-22.0625,87.25,0
44640,-8.875,-23.5,83.6875,0
44660,-21.3125,-24.75,89,0
44680,-21.4375,-35.875,89.625,0
44700,-12.625,-47.375,82.0625,0
44720,-15.4375,-52.5,68.5,0
44740,-11.5,-57.875,59.8125,0
44760,-9.9375,-67.0625,57.6875,0
44780,-7,-74.5,47.25,0
44800,-8.0625,-76.5,36.125,0
44820,-6.875,-80.9375,29.25,0
44840,-5.5,-84,28.25,0
44860,-22.1875,-84.25,23.875,0
44880,-23.9375,-83.1875,11.625,0
44900,-25.1875,-82.5625,-3.1875,0
44920,-31.0625,-77.625,-15.3125,0
44940,-22.6875,-74.1875,-31.4375,0
44960,-23.6875,-73.5,-48.5625,0
44980,-22.8125,-66.625,-61.625,0
45000,-23.8125,-59.3125,-76.5,0
45020,-27.5625,-55.125,-88.625,0
45040,-28.625,-49.8125,-90.75,0
45060,-35.125,-42.4375,-100.062,0
45080,-42.8125,-34.75,-103.312,0
45100,-48.375,-26.375,-98.8125,0
45120,-36.625,-18.0625,-104.812,0
45140,-34.625,-11.125,-112.438,0
45160,-42.75,-0.6875,-114.938,0
45180,-49.75,5.625,-114.875,0
45200,-39.375,17.3125,-109.188,0
45220,-27.5,28.4375,-116.875,0
45240,-23.0625,33.3125,-113.812,0
45260,-25,44.625,-100.875,0
45280,-23.75,62.8125,-93.375,0
45300,-16.8125,71.625,-83.6875,0
45320,-18.625,73,-73.125,0
45340,-10.4375,74.8125,-60.3125,0
45360,-19.3125,81.4375,-56.4375,0
45380,-19.125,85.375,-40.375,0
45400,-23.6875,84.125,-19.4375,0
45420,-13.5625,80.3125,-9.75,0
45440,-14.5625,76.875,4.25,0
45460,-31.375,79.1875,23.8125,0
45480,-14,78.1875,34.625,0
45500,-5.9375,74.9375,40.25,0
45520,-2.6875,68.125,48.75,0
45540,1.8125,64.375,54.1875,0
45560,-21.125,67.375,67.375,0
45580,-24,62.5,76.4375,0
45600,-5,52,76.625,0
45620,-8,40.375,83.125,0
45640,-8.9375,31.6875,88.1875,0
45660,-8.0625,26,80.4375,0
45680,-8.9375,17.9375,75.75,0
45700,-3.4375,6.625,76.5625,0
45720,0.875,-0.3125,71.625,0
45740,5.625,-7.875,63.375,0
45760,4.625,-17.1875,58.875,0
45780,3.1875,-23.9375,56.6875,0
45800,-1.25,-25.375,55,0
45820,-9.625,-25.3125,50.75,0
45840,-5.9375,-28.8125,47,0
45860,-5.9375,-33.625,47.8125,0
45880,-7.6875,-39.1875,50.4375,0
45900,-12.3125,-38.6875,47.75,0
45920,-15,-41.625,45.0625,0
45940,-17.125,-47.3125,46.75,0
45960,-19.75,-49.3125,50.125,0
45980,-30.8125,-49.8125,52.625,0
46000,-35.25,-53.1875,47.375,0
46020,-24.375,-56.625,36.9375,0
46040,-21.875,-59.6875,30.8125,0
46060,-27.25,-57,22.5625,0
46080,-28.375,-55.3125,10.9375,0
46100,-13.375,-62.5,2.75,0
46120,-3.6875,-65.875,-4.0625,0
46140,-12.0625,-61.8125,-9.375,0
46160,-14.3125,-58.75,-18.8125,0
46180,-13.5,-57.9375,-26.4375,0
46200,-9.875,-58,-30.5625,0
46220,-1.3125,-58.5,-32.75,0
46240,-3.5,-53.75,-36.3125,0
46260,-6.25,-51.125,-41,0
46280,-5.875,-51.5,-41.8125,0
46300,-4.625,-46.9375,-44.625,0
46320,-14.6875,-39.3125,-41,0
46340,-6.5,-39.4375,-39.5625,0
46360,-2.1875,-42.1875,-41.375,0
46380,-1.5625,-41.0625,-39.9375,0
46400,-17.5625,-33.3125,-35.5,0
46420,-8.9375,-33.625,-31.4375,0
46440,7.9375,-34,-29.5,0
46460,-2,-24.875,-23.5,0
46480,-9.125,-16.375,-15.0625,0
46500,-1.625,-14.3125,-16.0625,0
46520,11,-15.625,-14.25,1001
46540,12.1875,-14.75,-12,0
46560,8.9375,-12.1875,-11.6875,0
46580,-0.375,-7.5,-7.5625,0
46600,14.875,-14.125,-9.4375,0
46620,15.6875,-15.25,-9,0
46640,10.9375,-13.875,-5.0625,0
46660,0.375,-10.1875,-2.5625,0
46680,-0.0625,-8.125,3.75,0
46700,-0.75,-3.3125,4.8125,0
46720,2.125,1.8125,3,0
46740,0.625,3.875,3.875,0
46760,-0.9375,3,2.5,0
46780,2.0625,2.625,-0.125,0
46800,-1.0625,4.1875,-1.0625,0
46820,6.25,3.75,0.375,0
46840,10.25,4.6875,-1.3125,0
46860,-2.3125,19.75,-14.5625,0
46880,3.375,28.5625,-11.375,0
46900,8.9375,39.8125,1.8125,0
46920,0.5,51.25,11.5,0
46940,-9.125,58.875,35,0
46960,-15.6875,72.375,59.8125,0
46980,-19.125,78.3125,81.125,0
47000,-24.125,90.75,119.5,0
47020,22.75,101.312,146.125,0
47040,64.125,110.812,159.125,0
47060,81.6875,139.375,155.625,0
47080,91.1875,170.438,164.5,0
47100,91,179.5,173.125,0
47120,94.8125,169.688,155.625,0
47140,106.5,158.938,135.312,0
47160,92.875,143.812,108.375,0
47180,75.3125,106.438,71.375,0
47200,56.625,52.1875,51.6875,0
47220,44.0625,5.875,39.25,0
47240,37.875,-24.0625,27,0
47260,23.9375,-40.9375,15.0625,0
47280,4.875,-48.625,6.4375,0
47300,-14.3125,-45.5,3.0625,0
47320,-16.9375,-29.875,6.0625,0
47340,-12,-19.5625,-1.25,0
47360,-11.625,-6.0625,-8.0625,0
47380,-10.0625,9.375,-4.9375,0
47400,-16.5625,24.75,11.8125,0
47410,-13.5,33.5,14.875,0
47430,-3.3125,31.8125,10.125,0
47450,-7.3125,30.1875,25.0625,1000
47470,7.625,23.625,11.875,0
47490,16.75,11.375,-4.625,0
47510,19.5625,-2.8125,-3.4375,0
47530,16.25,-14.75,-7.5625,0
47550,8.75,-19.875,-11.5,0
47570,1.125,-16.0625,-9,0
47590,-8.125,-9.75,-4.875,0
47610,-12.375,-5.3125,0.5625,0
47630,-10.8125,-4.875,-0.8125,0
47650,-7.625,-3.5,0.75,0
47670,-3.6875,-2.875,1.8125,0
47690,-1.125,-2.3125,0.75,0
47710,-0.3125,-4,0.25,0
47730,3.25,-9.625,-0.6875,0
47750,2.1875,-16.5,-1.25,0
47770,5.9375,-24.6875,-5.25,0
47790,6.25,-34.1875,-4,0
47810,9.1875,-41.6875,-5.3125,0
47830,5.875,-43.75,-4.375,0
47850,4.4375,-45.9375,-9.4375,0
47870,1.9375,-48.125,-15.25,0
47890,-1.75,-46.1875,-13.8125,0
47910,-3.3125,-45.25,-13.4375,0
47930,-8.0625,-46.0625,-15.625,0
47950,-6.875,-45.625,-11,0
47960,-9.1875,-45.0625,-15,0
47980,-12.6875,-43.875,-18.4375,0
48000,-11.625,-46.0625,-18.875,0
48020,-9.875,-45.1875,-24.3125,0
48040,-14.6875,-44.875,-30.5,0
48060,-14.125,-46.25,-31.125,0
48080,-14.5625,-46.8125,-31.0625,0
48100,-20.3125,-43.875,-32.9375,0
48120,-25.3125,-42.4375,-38.1875,0
48140,-24.25,-42.3125,-38.4375,0
48160,-25.75,-39.875,-38.125,0
48180,-29,-36.4375,-42.1875,0
48200,-33.5625,-33,-50.0625,0
48220,-35.5625,-32.25,-53.8125,0
48240,-33.0625,-30.9375,-55.3125,0
48260,-32.9375,-25.3125,-62,0
48280,-37.5,-17.0625,-70.25,0
48300,-39.4375,-11.1875,-70.375,0
48320,-41.8125,-5.125,-68.625,0
48340,-42.0625,1.25,-71,0
48360,-48.4375,11.375,-76.5625,0
48380,-49.625,16.1875,-77.4375,0
48400,-46.3125,19.75,-75.125,0
48420,-46,25.75,-76.375,0
48440,-46.8125,33.8125,-78.5625,0
48480,-46.5625,38.875,-76.125,0
48500,-45.5,43.625,-78.4375,0
48540,-42.25,50.0625,-72.1875,0
48550,-40,59.8125,-69.9375,0
48570,-38.375,73.0625,-65.875,0
48590,-36.0625,79.5625,-58.125,0
48610,-33.875,84.25,-51.0625,0
48630,-25.4375,90.8125,-48.4375,0
48650,-23.5,102.062,-49.75,0
48670,-22.75,108.75,-43.9375,0
48690,-17.6875,106.312,-32.875,0
48710,-3.9375,106.188,-27.25,0
48730,-6.375,106.688,-29.4375,0
48750,-7.6875,103.25,-23.125,0
48770,-18.5,101.188,-4.6875,0
48790,-7.625,92.0625,4.625,0
48810,3.9375,85.1875,11.8125,0
48830,0.375,73.4375,19.625,0
48850,1.4375,62.1875,44.5,0
48870,18,43.5625,61.3125,0
48890,51.875,30.5,59.5,0
48910,44.5,22.8125,48.625,0
48930,-1.1875,41.9375,49.5,0
48950,-12.0625,34.4375,52.4375,0
48970,5.0625,27.125,53.3125,0
48990,13.125,23.25,50,0
49010,-7.9375,29.75,62.875,0
49030,-12.875,28.625,70.6875,0
49050,9,21.4375,66.5,0
49070,14.75,19,55.4375,0
49090,8.8125,15.5625,58.4375,0
49110,-32.25,20.9375,77.9375,0
49130,-3.4375,17.9375,75.125,0
49150,13.1875,13.0625,62.75,0
49170,3.25,2.0625,61.4375,0
49190,-18.5,-0.875,71.375,0
49210,-19.375,0.25,72.6875,0
49230,6.75,-4.25,66.4375,0
49250,6.25,-13.1875,60.9375,0
49260,-1,-21.625,65.5,0
49280,-22.125,-21.75,69.875,0
49300,-10.5,-24.375,70.125,0
49320,-8.25,-32.25,67.0625,0
49340,-15.8125,-39.375,68.1875,0
49360,-13.1875,-43.125,66.5,0
49380,-5.625,-46.375,66.75,0
49400,-8.8125,-49.6875,67.125,0
49420,-14.4375,-55.1875,66.1875,0
49440,-19.625,-57.25,65.875,0
49460,-13.5,-60.8125,64.875,0
49480,-20.25,-65.1875,60.75,0
49500,-23.125,-67.5625,59,0
49520,-14.6875,-73.25,60.1875,0
49540,-7.75,-76.625,51.5625,0
49560,-7.75,-77.5625,40.9375,0
49580,-15.6875,-80.1875,36.125,0
49600,-15.125,-85.5625,35.5625,0
49620,-9.9375,-88.25,30.125,0
49640,1.625,-86.8125,17.1875,0
49660,-7,-85.375,10,0
49680,-4.875,-87.875,-0.8125,0
49700,-5.9375,-86.375,-14.0625,0
49720,-8.625,-80.875,-22.75,0
49740,-9.5,-79.25,-29.125,0
49760,-22,-78.125,-38.5,0
49780,-28.3125,-71.25,-53.4375,0
49800,-29.125,-71.3125,-61.75,0
49820,-45.5,-63,-71.25,0
49840,-50.5625,-62.625,-80.8125,0
49860,-47.25,-64.375,-90.125,0
49880,-58.5,-54.625,-93.375,0
49900,-65.1875,-43.5,-99.8125,0
49920,-67.1875,-33.8125,-100.125,0
49940,-63,-26.375,-108.375,0
49960,-59.8125,-16.9375,-115.562,0
49970,-57.875,-3.6875,-121.375,0
49990,-62.1875,10.1875,-123,0
50010,-58.375,19.8125,-123.375,0
50030,-48.125,27.4375,-122.062,0
50050,-43.75,38.125,-119.875,0
50070,-44.9375,50.75,-117.938,0
50090,-40.375,61.5625,-111.25,0
50110,-29.3125,71.875,-103.875,0
50130,-24.5625,80.9375,-99.0625,0
50150,-26.875,90.5,-94.1875,0
50170,-31.75,98.125,-85.9375,0
50190,-26.4375,104.25,-71.4375,0
50210,-15.75,104.188,-59.25,0
50230,-13.9375,96.875,-47.6875,0
50250,-15.5625,91.1875,-28.5,0
50270,-8.5,86.6875,-9.4375,0
50290,10.75,69,13.8125,0
50310,27.8125,52.6875,18.8125,0
50330,15.125,50.8125,25.9375,0
50350,-5.25,64.6875,34.375,0
50370,-3.3125,57.875,46.375,0
50390,-9.5625,58.25,56.625,0
50410,-11.625,54.6875,64.5625,0
50430,-7.875,47.4375,76.375,0
50450,-3.5,41.375,83.5,0
50470,11.125,35.4375,80.125,0
50490,-20.6875,36.4375,81.9375,0
50510,-4.75,27.375,80.0625,0
50530,-5.625,19.6875,86.3125,0
50550,4.1875,16.4375,81.75,0
50570,3.4375,12.75,74.0625,0
50590,-9.5625,6.625,76.375,0
50610,-1.5625,2.1875,79.6875,0
50630,0.5,-0.9375,78.6875,0
50650,11.625,-3.8125,70.5,0
50670,6.1875,-9.5625,66.75,0
50690,-1.625,-12.3125,70,0
50710,-3.5625,-11,69.125,0
50730,2.8125,-12.625,63.25,0
50750,7.625,-20.75,59,0
50770,0.8125,-26.875,56.5,0
50790,-2,-29.875,58.625,0
50810,-7.5625,-31.3125,56.625,0
50830,-4.625,-36.5625,52.625,0
50850,-11.875,-45.75,52.0625,0
50870,-9.5625,-48.8125,49.375,0
50890,-9.6875,-51.8125,44.1875,0
50910,-11.625,-58.75,43.25,0
50930,-20.8125,-62.6875,41.5625,0
50950,-22.8125,-61.9375,42.125,0
50970,-13.5,-61,43.5,0
50990,-7.125,-61.5,31.375,0
51010,-5.25,-61.9375,19.8125,0
51030,-2.0625,-66.6875,12.75,0
51050,7.75,-73.375,9.6875,0
51070,4,-71.375,3.25,0
51090,8.25,-71.625,-6.875,0
51110,-0.25,-80.125,-10.1875,0
51130,-5.75,-82.8125,-19.5625,0
51150,-7.625,-80.4375,-32.375,0
51170,-20.1875,-78.625,-45.9375,0
51190,-23.6875,-77.5625,-52.4375,0
51210,-25.125,-72.75,-61.8125,0
51230,-29.625,-65.125,-72.4375,0
51250,-30.875,-57.625,-74.5625,0
51270,-39.4375,-52.6875,-72.0625,0
51290,-36.3125,-50.625,-75.4375,0
51310,-37.375,-44.125,-80.125,0
51330,-38.75,-39,-78.4375,0
51350,-41.25,-34.375,-74.1875,0
51370,-43.3125,-25,-74.4375,0
51390,-41.8125,-15.5625,-77.8125,0
51410,-40.125,-9.0625,-80.625,0
51430,-41.125,-0.5625,-79,0
51450,-39.125,9.6875,-81.9375,0
51470,-35.125,18.25,-82.6875,0
51490,-41.25,27.0625,-82.5,0
51510,-42.9375,32.3125,-85.8125,0
51530,-34.4375,40.0625,-85.25,0
51550,-36.4375,46.375,-84.5,0
51570,-38.25,47.625,-80.1875,0
51590,-42.75,51.6875,-70.5,0
51610,-41.6875,64.375,-65.0625,0
51630,-34.375,73.4375,-57.4375,0
51650,-38.0625,77.375,-49.8125,0
51670,-38.875,80.5,-42.5625,0
51690,-29.1875,81,-32.4375,0
51710,-28.8125,82.8125,-27.4375,0
51730,-36.1875,82.5625,-17.9375,0
51750,-29.0625,79.1875,-8.125,0
51770,-18.25,78.6875,-0.375,0
51790,-22.6875,84.6875,9.1875,0
51810,-18.5,82.375,16.4375,0
51830,-8.125,75.1875,25,0
51850,-23.25,74.125,36.0625,0
51870,-16.5625,72.625,40.0625,0
51890,-10.5,65.8125,40.9375,0
51910,-3.125,55,49.375,0
51930,-10.3125,51.375,57.6875,0
51950,-10.8125,47.3125,60.5,0
51970,-1.875,38.625,60.3125,0
51990,-4.375,30.5,62.3125,0
52010,-17.1875,24.5625,65.625,0
52030,-18.1875,17.5,68.375,0
52050,-1.9375,9.25,71.8125,0
52070,5.4375,2.375,69.625,0
52090,-5.0625,-0.5,69.0625,0
52110,-8.9375,-3.0625,68.5625,0
52130,0.8125,-8.9375,64,0
52150,4.9375,-11.8125,64.75,0
52170,-1.6875,-10.8125,65.875,0
52190,-11,-11.5625,67.4375,0
52210,-3.5625,-15.3125,61.25,0
52230,3.0625,-21.875,61.1875,0
52250,-0.0625,-25.4375,61.5625,0
52270,-1.5,-26.625,59.0625,0
52290,-8.8125,-31.125,59.5625,0
52310,-8.8125,-38.6875,58.4375,0
52330,-4.6875,-41,55.3125,0
52350,-1.8125,-44.1875,53.25,0
52370,-2.5625,-48.75,50.0625,0
52390,-2.25,-55.4375,46.875,0
52410,-1.5,-58.1875,41.625,0
52430,-3.1875,-58.6875,37.125,0
52450,-2.5,-58.125,33.375,0
52470,-8.0625,-61.1875,31.5,0
52490,-17,-62.8125,29.25,0
52510,-23.0625,-62.5625,25.625,0
52530,-21.5,-63.25,23.1875,0
52550,-26.125,-67.1875,24.625,0
52570,-30.9375,-69.9375,19.5625,0
52590,-36,-71.375,13.4375,0
52610,-38.375,-73.625,10.25,0
52630,-32.8125,-75.8125,0.5,0
52650,-18.6875,-77.25,-8.9375,0
52660,-12.9375,-75.5,-14.9375,0
52680,-12.0625,-71,-22.4375,0
52700,0.9375,-67,-30.25,0
52720,1.9375,-65.75,-36.875,0
52740,5.875,-62.8125,-44.4375,0
52760,10.3125,-60,-49.25,0
52780,16,-57.125,-52.625,0
52800,9.75,-52.9375,-52.1875,0
52820,-4.1875,-49.5625,-54.125,0
52840,-4,-47.1875,-51,0
52860,5.375,-44.9375,-47.0625,0
52880,3.6875,-39.875,-42.875,0
52900,5.75,-37,-40.8125,0
52920,-1,-34.25,-42.5,0
52940,8.3125,-29.6875,-40.9375,0
52960,11.4375,-26.125,-40.8125,0
52980,13.5,-21.3125,-38.375,0
53000,18.5,-18.8125,-36.8125,0
53020,11.375,-11.625,-34.125,0
53040,8,-4.8125,-23.9375,1001
53060,4.8125,-3.625,-17.375,0
53080,5.0625,-3.25,-13.9375,0
53100,-2.625,0.3125,-11.875,0
53120,-5.125,0,-7.8125,0
53140,2.3125,-6.375,-1.375,0
53160,2.5,-6.9375,-1.625,0
53180,-4.8125,-0.8125,0.6875,0
53200,-3.1875,-0.375,0.0625,0
53220,2.75,-4,1.0625,0
53240,6.5,-2.75,0.375,0
53260,-1.6875,2.9375,0.25,0
53280,-5.3125,5.75,2.25,0
53300,1.5625,5.75,-1.1875,0
53320,7.6875,4.625,-1.6875,0
53340,2.5625,4.375,-6.0625,0
53360,-0.875,0.9375,-8.0625,0
53380,3.75,0.5625,-4.125,0
53400,7.375,11.125,-12.6875,0
53420,14.4375,24.6875,-31.4375,0
53440,13.5625,26.875,-15.9375,0
53460,15.9375,34.3125,-4.6875,0
53480,5.3125,41.3125,-5.875,0
53500,-11.6875,54,2.25,0
53520,-27.9375,72.6875,19.25,0
53540,-27.75,89.125,39.5625,0
53560,-14.0625,92.5,82,0
53580,1.25,118.312,102.375,0
53600,16.5,145,120.875,0
53620,42.4375,167.438,144.75,0
53640,48.5,176.938,152.5,0
53660,67.6875,179.062,149.812,0
53680,83.5625,177.25,152.938,0
53700,71.5,163.188,143.875,0
53720,76.25,132.188,104.312,0
53740,83.875,86.375,83.5625,0
53760,83.125,49.3125,56.375,0
53780,67.75,24.4375,42.875,0
53800,43.75,10.4375,39.125,0
53820,14.5625,-0.5625,33.125,0
53840,-20.75,-11.75,25,0
53860,-39.3125,-18.5,22.125,0
53880,-37.625,-16.9375,21.8125,0
53900,-24.0625,-15.75,17.375,0
53920,-13.0625,-13.6875,11.25,0
53940,-12.875,-8.125,10.8125,0
53960,-18,-1.5625,13.8125,0
53980,-13.6875,6.0625,11.5625,0
54000,-4.3125,8,5.5,0
54020,-3.5,12.875,4.625,0
54040,-6.125,14.9375,10.375,0
54060,-0.0625,11.1875,9.4375,0
54080,16.0625,5.8125,0.8125,1000
54100,12.5625,3.1875,10.25,0
54120,9.3125,0.375,8,0
54140,-0.4375,0.8125,-0.3125,0
54160,-2,-1.375,0.1875,0
54180,-0.5,-2.875,4.125,0
54200,-0.25,-1.75,-1,0
54220,-6.25,0.9375,-4.8125,0
54240,-4.5,0.75,-8.6875,0
54260,-3.8125,-1.1875,-4.8125,0
54280,-0.75,-1.8125,-4.375,0
54300,-1.0625,-1.25,-4.3125,0
54320,-3.4375,-1.125,-2.0625,0
54340,-2.125,-2.375,-0.125,0
54360,-1.5,-3.9375,1.1875,0
54380,-0.3125,-5.625,0.25,0
54400,0.5,-7.6875,-1.3125,0
54420,2.8125,-10.625,-2.3125,0
54440,1.8125,-16.5,1.9375,0
54460,7.25,-22.1875,-1.9375,0
54480,8,-27,-4.875,0
54500,10.9375,-35.75,-4.875,0
54520,10.4375,-38.5,-6.4375,0
54540,15.6875,-39.4375,-9.875,0
54560,11.375,-40.375,-13.4375,0
54580,8.875,-41.875,-16.125,0
54600,10.625,-44.8125,-18.25,0
54620,5.875,-40.4375,-21.625,0
54630,-4.5,-39.75,-30.5,0
54650,-11,-38.3125,-37.125,0
54670,-5.3125,-37.1875,-39.875,0
54690,-10.0625,-36.1875,-50.625,0
54700,-19.25,-35.25,-64.4375,0
54720,-26.375,-35.4375,-65,0
54730,-23.375,-36.625,-63.75,0
54750,-26.5625,-34.0625,-62.875,0
54770,-31.625,-30.0625,-65.3125,0
54790,-36.3125,-27.25,-63.9375,0
54810,-36.5,-23.4375,-62.8125,0
54830,-36.75,-21.25,-61.6875,0
54850,-40.4375,-15,-63.8125,0
54870,-46.4375,-1.625,-67.375,0
54890,-43.875,2,-62.3125,0
54910,-39.9375,1.25,-59.125,0
54930,-45.375,6.625,-63.8125,0
54950,-47.6875,14.3125,-66.4375,0
54970,-41.625,17.9375,-66.5,0
54990,-36.625,18,-64.9375,0
55010,-33.0625,20.875,-68.5625,0
55030,-34.75,29.8125,-73.4375,0
55050,-33.5625,35.1875,-73.375,0
55080,-25.875,44,-73.75,0
55100,-24.25,49,-71.25,0
55120,-16.875,48.25,-63.75,0
55140,-11.5,49.5,-61.5,0
55160,-13.5,57.1875,-62.25,0
55180,-11.6875,61.4375,-59.75,0
55200,-9.1875,62.8125,-52.6875,0
55220,-7.75,62.1875,-46.75,0
55240,-4.375,68.3125,-46.75,0
55260,-9.5,74.125,-46.5625,0
55280,-11.75,70.75,-37.5625,0
55300,-5.4375,61.125,-23.875,0
55320,5.6875,60.9375,-17.1875,0
55340,0.9375,69.875,-11.25,0
55360,-7.25,59.5625,3.875,0
55380,2.8125,48.8125,13.5,0
55400,13.5625,44,25.375,0
55420,28.5,39.75,23.625,0
55440,32.1875,36.0625,20.875,0
55460,21.8125,26.6875,26.3125,0
55480,15.1875,38,30.4375,0
55500,2.25,43.8125,16.3125,0
55520,1.8125,46.6875,21.125,0
55540,-1.375,39.8125,37.75,0
55560,8.625,34.1875,39,0
55580,5.5,35.25,27.625,0
55600,-2.1875,27.5,33.375,0
55620,-3.1875,20.1875,42.3125,0
55640,-8,25.25,41.5625,0
55660,-4.75,26.8125,32.75,0
55680,-2.6875,18.9375,34.1875,0
55700,2.875,9.875,36.9375,0
55720,1.5,10.5625,34.875,0
55740,-3.875,10.0625,31.8125,0
55760,3.6875,4.375,26.75,0
55780,4.3125,-3,28,0
55800,4.625,-5.9375,31.3125,0
55820,-4.5625,-0.75,26.4375,0
55840,2.5625,-2.75,27.1875,0
55860,6.25,-8.625,32.1875,0
55880,4.0625,-8.25,32.1875,0
55900,-3.625,-5.375,31,0
55920,-1.9375,-6.125,33,0
55940,-0.625,-8.625,35.0625,0
55960,-2.1875,-9.375,35.1875,0
55980,-4.3125,-8.8125,36.3125,0
56000,0.5,-10.0625,37.6875,0
56020,-0.1875,-10.6875,38.375,0
56040,-0.6875,-11.25,38.8125,0
56060,-1.375,-11.3125,37,0
56080,0.375,-12.0625,36.8125,0
56100,0.3125,-13.75,37.875,0
56120,1.625,-15,39.25,0
56140,-2,-14.75,40.375,0
56160,-1.5625,-14.75,38.9375,0
56180,-0.625,-16.8125,39.875,0
56200,-5.3125,-17.5625,41.25,0
56220,-6.8125,-15.6875,40.9375,0
56240,-4.8125,-16.8125,40.375,0
56260,-4.625,-18.1875,40,0
56280,-2.6875,-17.75,38.9375,0
56300,-4.25,-17.3125,38.8125,0
56320,-5.75,-18.9375,39.5625,0
56340,-4.625,-20.5625,36.25,0
56360,-3.5,-22.8125,36.9375,0
56380,-4.8125,-25.0625,37.8125,0
56400,-4.5625,-26.625,38.6875,0
56420,-11.375,-27.125,35.875,0
56440,-11.9375,-29.625,37.5,0
56460,-10.4375,-32.5,37.4375,0
56480,-7.125,-33.125,34.9375,0
56500,-8.9375,-34.0625,31.3125,0
56520,-11.125,-37.4375,32.375,0
56540,-4.6875,-40.5625,31.125,0
56560,-3.6875,-41.875,26.5,0
56580,-7.625,-43.6875,24.875,0
56600,-12.6875,-45.9375,27.875,0
56620,-13.3125,-48.0625,27.3125,0
56640,-12.5,-49.375,18.1875,0
56660,-8.375,-51.75,14.1875,0
56680,-16.125,-53.125,13.375,0
56700,-7.4375,-57.1875,8.875,0
56720,1.375,-57.875,4.875,0
56740,7.375,-57.6875,0.75,0
56760,6.375,-59.375,-3.75,0
56780,-0.9375,-61.9375,-4.6875,0
56800,-5.8125,-62.8125,-7.3125,0
56820,-5.25,-65.875,-7.5625,0
56840,-7.75,-66.9375,-7.25,0
56860,-8.5,-67,-10.9375,0
56880,-5.9375,-66.8125,-11.1875,0
56900,-10.5,-67.3125,-17.5625,0
56920,-12.8125,-68.375,-16.9375,0
56940,-10.4375,-66.5,-21.4375,0
56960,-14,-57,-33.625,0
56980,-13.75,-53.75,-43.625,0
57000,-12.1875,-54.125,-44.0625,0
57020,-11.4375,-45.375,-52.25,0
57040,-11.9375,-34.3125,-64.0625,0
57060,-22.3125,-27.875,-68,0
57080,-28,-28.6875,-66.0625,0
57100,-24.4375,-26.9375,-71.0625,0
57120,-29.25,-15.5625,-79.5,0
57140,-31,-5,-85.25,0
57160,-28.6875,-1.4375,-84.8125,0
57180,-27.9375,-0.0625,-83.5625,0
57200,-27.5625,9.1875,-83.1875,0
57220,-25.0625,17.3125,-83.0625,0
57240,-21.875,20.3125,-79.875,0
57260,-18.6875,23.625,-76.75,0
57280,-18.125,29.9375,-74.6875,0
57300,-16.875,35.375,-71.25,0
57320,-14.0625,39.25,-68,0
57340,-6.5,34.5,-62.8125,0
57360,-4.75,34.1875,-59.0625,0
57380,-9.375,38.25,-58.3125,0
57400,-9.75,37.6875,-55.9375,0
57420,-1.0625,32.3125,-53.6875,0
57440,0.875,30.6875,-49.125,0
57460,-3.5625,34.625,-48.375,0
57480,-6.125,34.25,-45.8125,0
57500,-0.6875,29.5,-38.25,0
57520,7.875,24.3125,-33.75,0
57540,2.9375,28.75,-31.5625,0
57560,-4.875,34.5,-27.8125,0
57580,-2.125,36.5,-23.8125,0
57600,-1.9375,35.4375,-20.4375,0
57620,-3.625,35.25,-15.375,0
57640,-3.9375,34,-12.375,0
57660,1.875,33.25,-15,0
57680,-1.6875,30.0625,-6.3125,0
57700,-1.4375,37.25,-5.125,0
57720,-10.625,30.3125,1.375,0
57740,4.75,24,2.625,0
57760,-0.75,15.1875,7,0
57780,-6.625,28.1875,5.1875,0
57800,-14.625,33.5625,4.75,0
57820,-14.125,31.1875,7.3125,0
57840,-5.5625,29,9.1875,0
57860,-8.375,28.25,5.75,0
57880,-24.875,33.5,9.5,0
57900,-23.0625,29.25,9.4375,0
57920,-8.125,22.4375,10.75,0
57940,-11.1875,22.3125,10.25,0
57960,-29.4375,26.5625,14.25,0
57980,-26.375,22.25,17.0625,0
58000,-9.3125,18.5,16.9375,0
58010,-1.5625,19.625,16,0
58030,-20.6875,23.5625,18.9375,0
58050,-27.875,23.5625,21.625,0
58070,-19.75,21.875,20.125,0
58090,-4.75,20,20.5625,0
58110,-25.125,26,28.75,0
58130,-23.125,23.1875,29.375,0
58150,-14.5625,19.0625,24.375,0
58170,-10.6875,14.625,27.75,0
58190,-9.4375,11.5625,33.625,0
58210,-25.1875,11.75,40.3125,0
58230,-11.125,9.375,36.6875,0
58250,-10.25,6.6875,36.9375,0
58270,-8.0625,5,38.5625,0
58290,-22.625,4.6875,43.4375,0
58310,-7.0625,0.0625,40.375,0
58330,-2.4375,-2.625,37.625,0
58350,-3.75,-3.9375,38.3125,0
58370,-5.3125,-4.3125,38.1875,0
58390,-7.9375,-6.3125,40.5,0
58410,-0.6875,-8.375,39.6875,0
58430,-2.25,-9.6875,39.5,0
58450,-8.125,-10.75,41.875,0
58470,-6.125,-13.625,43.25,0
58490,-4.125,-13.9375,43.375,0
58510,-7.9375,-14.125,41.875,0
58530,-9.1875,-15.1875,41.8125,0
58550,-8.1875,-17.375,39.625,0
58570,-2.0625,-19.5,38.875,0
58590,-1.3125,-20.3125,37.8125,0
58610,-5.5,-19.375,35.1875,0
58630,-4.5,-20.9375,35.1875,0
58650,-1.6875,-23.75,34.75,0
58670,-0.4375,-25.875,34.375,0
58690,-5.25,-26.625,32.875,0
58710,-9.25,-26.6875,32.9375,0
58730,-5.3125,-27.625,32.75,0
58750,-3.5,-29.6875,31.3125,0
58770,-3.25,-31.3125,29.4375,0
58790,-6.5625,-32,28.0625,0
58810,-6.3125,-33.1875,26.5,0
58830,-3.6875,-37.375,26.0625,0
58850,-2.0625,-40.9375,26.0625,0
58870,-5.9375,-43,24.125,0
58890,-9.125,-46.125,23.75,0
58910,-6.3125,-50.6875,22.4375,0
58930,-0.5,-54.9375,17.75,0
58950,3.6875,-58.125,13.6875,0
58970,-3.6875,-58.9375,10.625,0
58990,-6.8125,-59.1875,4.625,0
59010,2.75,-59.0625,-1.5625,0
59030,16.5,-61.875,-7.25,0
59050,11.125,-62.75,-9.125,0
59070,-2.25,-55.625,-16.6875,0
59090,-4.6875,-52.6875,-23.875,0
59110,0.5625,-56,-27.5,0
59130,13.5625,-56.6875,-34.375,0
59150,13.5,-55,-41.6875,0
59170,-4.125,-51.6875,-44.0625,0
59190,-13.9375,-51.75,-45.875,0
59210,-7.3125,-52,-50.125,0
59230,-10.125,-43.6875,-53.6875,0
59250,-14.9375,-39.4375,-56.375,0
59270,-18.8125,-40.6875,-60.0625,0
59290,-16,-38.5625,-60.125,0
59310,-23.5,-28.25,-64.25,0
59330,-21,-22.25,-67.25,0
59350,-16.25,-21.6875,-66.5,0
59370,-14.8125,-20.0625,-65.25,0
59390,-11.5625,-16.8125,-68.5,0
59410,-23.5,-7.125,-67,0
59430,-29.125,0.5,-65.4375,0
59450,-17.3125,-0.8125,-66.125,0
59470,-11.4375,-3.9375,-68.875,0
59490,-18.875,0.4375,-67.625,0
59510,-23.625,9.8125,-65.875,0
59530,-20.5625,13.5625,-64.5625,0
59550,-5.3125,13.75,-61,0
59570,-8.9375,18.4375,-63.6875,0
59590,-14.1875,25,-60.3125,0
59610,-10.875,28.8125,-54.9375,0
59630,-4,29.0625,-51.5,0
59650,-1.8125,29.1875,-50.6875,0
59670,-10.875,32.4375,-47.9375,0
59690,-10.25,34.125,-44.25,0
59710,-6.625,33.875,-40.1875,0
59730,-9.9375,35.625,-38.8125,0
59750,-20.75,42.1875,-35.875,0
59770,-20.3125,48.75,-30.5625,0
59790,-27.0625,58.375,-18.0625,0
59810,-14.6875,58.25,-13.9375,0
59830,-11.25,55.875,-11.9375,0
59850,-14.0625,56.1875,-7.625,0
59870,-21.375,57.5625,-0.4375,0
59890,-12.125,54.25,10.3125,0
59910,-4.75,51.5,12.875,0
59930,-11.4375,53,13.0625,0
59950,-30.25,56.125,19.0625,0
59970,-20.8125,52.25,26.625,0
59980,-13.375,51.3125,30.5,0
60000,-18.75,53.4375,32.75,0
60020,-33.3125,52.25,33.75,0
60040,-21.5625,43.3125,39.8125,0
60060,-23.6875,41.8125,42.125,0
60080,-14.0625,38.4375,37.9375,0
60100,-18.75,35.5625,37.9375,0
60120,-26.3125,32.125,43.9375,0
60140,-12.0625,29.5625,42.8125,0
60160,-7.8125,29.3125,37.5,0
60180,-16.4375,28,37.3125,0
60200,-24.1875,21.375,39,0
60220,-6.875,13,39.9375,0
60240,-0.6875,8.75,37.0625,0
60260,-13.4375,10.5,38.125,0
60280,-17,7.125,40.8125,0
60300,-12.25,1.25,44.25,0
60320,-10.5625,-1.3125,44.3125,0
60340,-22.4375,0.875,46.8125,0
60360,-17.6875,-0.25,47.0625,0
60380,-3.25,-7.1875,46.5,0
60400,6.25,-10.5625,43.5,0
60420,4.125,-9.375,43,0
60440,-5.9375,-10.9375,44.3125,0
60460,0.5,-14.4375,46.875,0
60480,3.125,-17.375,47.8125,0
60500,4.25,-20.9375,46.375,0
60520,-3,-21.375,43.875,0
60540,-9.5,-25.25,44.1875,0
60560,-6.8125,-29.0625,44.6875,0
60580,-7.375,-31.3125,44.4375,0
60600,-7.125,-31.8125,42.6875,0
60620,-14.3125,-33.125,41.125,0
60640,-14.6875,-34.5,39.3125,0
60660,-9.25,-37.75,35.3125,0
60680,-4.4375,-38.5,31.3125,0
60700,-8.625,-37.375,27.25,0
60720,-10.3125,-40.875,24.5,0
60740,-11.125,-43.6875,20.375,0
60760,-7.875,-44.375,18.25,0
60780,-9.125,-46.3125,18.125,0
60800,-10.5625,-49.25,16,0
60820,-11.625,-53.0625,11.5,0
60840,-13.3125,-56.3125,8.5,0
60860,-14.75,-58.0625,6.4375,0
60880,-14.6875,-61.3125,3.5,0
60900,-11.4375,-62.6875,1.5,0
60920,-12.6875,-64.1875,-3.0625,0
60940,-18.5,-63.5,-3.4375,0
60960,-14.125,-62.5625,-6.9375,0
60980,-7.375,-63.75,-11,0
61000,-13.375,-61.375,-12.1875,0
61020,-11.4375,-58.5625,-18.6875,0
61040,-15.8125,-60.9375,-21.75,0
61060,-6.25,-60.9375,-28.625,0
61080,-6.4375,-58.6875,-34.125,0
61100,-12.9375,-54.4375,-33.125,0
61120,-15.1875,-51.5,-33.25,0
61140,-9.3125,-49.5,-35.0625,0
61160,-1.5,-47.0625,-38.6875,0
61180,-2.25,-40.0625,-38.9375,0
61200,0.8125,-36.625,-37.6875,0
61220,6.125,-39.3125,-37.75,0
61240,7.875,-40.1875,-40.4375,0
61260,8.4375,-36,-38.5625,0
61280,2.75,-32.5,-35.375,0
61300,-2.4375,-30.4375,-31.875,0
61320,1.625,-27.75,-28.9375,0
61340,1.1875,-22.5625,-23.0625,0
61360,-3.4375,-16.5625,-18.8125,0
61380,4.0625,-14.125,-14.25,0
61400,3.0625,-11.5,-11.25,0
61420,-0.3125,-5.75,-5.5625,0
61440,3.375,-3.9375,-2.1875,0
61460,0.5,1.6875,4,0
61480,-1.5,4.5,6.6875,0
61500,-1.8125,3.1875,8,0
61520,-0.9375,1.0625,8.6875,0
61540,1.0625,0.1875,9.125,0
61560,-2.8125,-0.75,6.9375,0
61580,-6.625,0.75,3.0625,0
61600,-7.9375,3.375,2.0625,0
61620,-4.75,2.5,3.25,0
61640,-1.4375,1.375,0.6875,0
61660,-2.125,1.8125,-0.375,0
61680,-4.8125,4.3125,0,0
61700,-1.8125,4,0.4375,0
61720,1.5,3.4375,0.25,0
61740,2.5,2.5625,-0.25,0
61760,-3.375,3.3125,1.375,0
61780,-9.5,4.25,0.625,0
61800,-4.8125,3.3125,0.875,0
61820,-0.5,4,0.75,0
61840,-4.25,4.25,-1.1875,0
61860,-4.6875,3.5625,-1.1875,0
61880,-2.1875,1.75,-1.875,0
61900,-1.375,-1.3125,-0.4375,0
61920,-4.9375,-1.75,1,0
61940,-6.3125,-3.375,1.5625,0
61960,-9.5,-1.6875,3.3125,0
61980,-15.875,3.6875,4.0625,0
62000,-14.6875,6.25,3.625,0
62020,-8.375,2.8125,-2.25,0
62040,-6.5,-1.25,-2.4375,0
62060,-13.375,-2.0625,-3.25,0
62080,-15.25,-1.25,-4.25,0
62100,-14.25,-3.75,-4.3125,0
62120,-9.375,-5.875,-3.0625,0
62140,-8.4375,-5.3125,-4.1875,0
62160,-8.9375,-4.9375,-5.625,0
62180,-8.4375,-6.875,-4.125,0
62200,-0.1875,-8.25,-4.3125,0
62220,1.375,-10.125,-6,0
62240,-2.5,-7.25,-3.9375,1001
62260,-7.3125,-4.25,-3.5,0
62280,2.5,-7.6875,0.9375,0
62300,4.5,-6.25,0.25,0
62320,-4.0625,-3,-0.5,0
62340,-5.8125,-2.875,1.1875,0
62360,2.6875,-6.75,-1.25,0
62380,7.375,-6.6875,-3.8125,0
62400,1.625,-4.25,-5.0625,0
62420,0.75,-4.0625,-6.4375,0
62440,4.5,-3.4375,-6.5,0
62460,4.5,-1.3125,-4.9375,0
62480,2,-0.125,-3.0625,0
62500,0.0625,0.625,-0.375,0
62520,0.25,2.625,0.875,0
62540,-4.625,3.9375,3.0625,0
62560,-4.375,3.1875,2.5625,0
62580,-1.125,4.375,1.8125,0
62600,-4,3.1875,1.375,0
62620,-0.8125,1.0625,-2,0
62640,2.4375,0.8125,-3.25,0
62660,1.4375,-0.125,-3.6875,0
62680,5.5,-6.4375,-4.625,0
62700,7.25,-9.4375,-5,0
62720,10.375,-4.6875,-3.625,0
62740,-5.625,24.4375,-17.0625,0
62760,6.3125,26.4375,-26.9375,0
62780,27.125,24.5,-0.8125,0
62800,26,36.375,-7.5625,0
62820,15.8125,49.875,-14.6875,0
62840,10.5625,59.4375,-14.625,0
62860,12.625,67.6875,-7.4375,0
62880,31.375,70.25,-0.375,0
62900,30.6875,87.5,11.8125,0
62920,24.4375,104.812,31.0625,0
62940,28.8125,129.938,35.5,0
62960,56.875,156.562,68.25,0
62980,74.375,174.438,96.125,0
63000,72.75,199.938,112.188,0
63020,102.312,221.625,131,0
63050,146.5,203.562,144.188,0
63070,89.1875,184.188,125.812,0
63090,27.0625,132.812,107.375,0
63110,32.1875,64.9375,86.625,0
63130,27.5,2.8125,58.25,0
63150,2.875,-41.75,39.3125,0
63170,-34.0625,-60.5,46.625,0
63190,-48.625,-88.875,30,0
63210,-56.0625,-98,20.875,0
63230,-62.25,-95.0625,19.875,0
63250,-61.6875,-88.625,4.75,0
63270,-51.3125,-81.75,9.6875,0
63290,-45,-76.125,17.375,0
63310,-39.875,-65,10.5625,0
63330,-33.9375,-57.0625,5.1875,0
63340,-27.125,-55.75,6.125,0
63360,-26.8125,-49.8125,-1.625,0
63380,-22.8125,-41.625,-3.75,0
63400,-21.1875,-31.0625,-9.6875,0
63420,-23.625,-27,-13.75,0
63440,-29.8125,-24.875,-12.25,0
63460,-27.375,-16.8125,-13.5,0
63480,-24.8125,-9.8125,-14.375,0
63500,-30.125,-6.875,-14.0625,0
63520,-30,-5.0625,-9.4375,0
63540,-23.875,2.875,-7.375,0
63560,-23.5,10,-9.0625,0
63580,-23.0625,9.1875,-0.9375,0
63600,-26.0625,12.9375,3.75,0
63620,-30.4375,22.1875,0.25,0
63640,-30.75,30.625,1.375,0
63660,-31.375,38.5,18.375,0
63680,-29.625,38.875,26.25,0
63700,-10.9375,27,2.375,0
63720,2.6875,13.5625,6.0625,0
63740,9.5625,2.6875,10.5625,0
63760,5.5625,-6.0625,3.9375,0
63780,9.8125,-9.3125,0.8125,1000
63800,8.875,-4.875,5.125,0
63820,2.8125,-1.25,7.4375,0
63840,-3,2.8125,5.4375,0
63860,-1.9375,7,0.0625,0
63880,0.8125,7.875,1.375,0
63900,0.25,6.5625,6.4375,0
63920,-2.625,4.9375,3.5,0
63940,1.9375,1.1875,1.3125,0
63960,4.8125,-0.5,-0.375,0
63980,2.8125,-0.8125,3.6875,0
64000,0.8125,0.5625,3.375,0
64020,4.375,-0.125,-0.75,0
64040,6.75,-1.0625,-1.3125,0
64060,7.8125,0,-0.0625,0
64080,8.9375,-0.375,3.625,0
64100,10.375,-2.875,-0.75,0
64120,16.75,-11.5,-2.75,0
64140,15.6875,-17.4375,1.8125,0
64160,17.4375,-20,4.9375,0
64180,11.8125,-19,10.0625,0
64200,8.25,-17.4375,10.8125,0
64220,6.6875,-15.3125,8.6875,0
64240,8.5,-13.625,7.625,0
64260,6.1875,-14.8125,-0.5,0
64280,4.4375,-19.375,-6.25,0
64300,3.0625,-18.75,-1.375,0
64320,-0.9375,-17.125,5.375,0
64340,-2.75,-18.875,3.0625,0
64360,-5.1875,-20.9375,-3.5,0
64380,-3.8125,-19.5625,-2.5625,0
64400,-2.25,-16,1.875,0
64420,-2.8125,-17.4375,-1.3125,0
64440,-3.9375,-19.625,-6.8125,0
64460,-2.875,-17.125,-6.5,0
64480,0.8125,-11.25,-1.8125,0
64500,-1.125,-10.125,-3.6875,0
64520,-1.6875,-12.75,-5.0625,0
64540,-1.375,-12.125,-6.0625,0
64560,-1.5625,-8.875,-2.75,0
64580,-2.5625,-8.625,0.875,0
64600,-1.9375,-12.75,-0.9375,0
64620,-2.75,-14,0.375,0
64640,-1.5,-14.5,3.3125,0
64660,-2.875,-17,3.3125,0
64680,-3.3125,-18.5,1.3125,0
64700,-2,-19.0625,-0.1875,0
64720,-2,-16.9375,0.8125,0
64740,-2.5,-17.375,0.9375,0
64760,-3.3125,-20.5,-2.875,0
64780,-2.4375,-21.875,-5.0625,0
64800,-2.1875,-21.9375,-5.875,0
64820,-1.25,-20.75,-4.125,0
64840,-0.25,-20.1875,-5.9375,0
64860,1.25,-18.6875,-8.6875,0
64880,1.625,-13.875,-12.8125,0
64900,-1.125,-8.8125,-10.75,0
64920,-3.375,-7,-1.4375,0
64940,-1.875,-7.625,-0.0625,0
64960,-3.5,-10.1875,-5,0
64980,-4.1875,-10.8125,-2.25,0
65000,-7.375,-8.1875,-2.3125,0
65020,-5.3125,-10,1.8125,0
65040,-6.875,-16.5,-5.3125,0
65060,-12.75,-21.75,-12.5,0
65080,-14.6875,-19.3125,-11.5,0
65100,-13.3125,-12.875,-10.75,0
65120,-13.6875,-11.375,-11.4375,0
65140,-14.9375,-11.6875,-11.75,0
65160,-14.9375,-9.3125,-11.75,0
65180,-13.4375,-5.9375,-9.875,0
65200,-10.8125,-4.3125,-8.75,0
65220,-10.6875,-5.8125,-9.5,0
65240,-9.8125,-8.0625,-9.5625,0
65260,-8.1875,-6.375,-8,0
65280,-7.5,-4.375,-8.9375,0
65300,-7.8125,-2.875,-10.8125,0
65310,-7.625,-3.8125,-10,0
65330,-8.6875,-5.0625,-12.6875,0
65350,-9.625,-5.0625,-11.75,0
65370,-11.25,-4.4375,-13.4375,0
65390,-14.125,-3.9375,-16.125,0
65410,-13.8125,-1.125,-16.375,0
65430,-12.4375,2.3125,-13.25,0
65450,-11.125,5.6875,-12.8125,0
65470,-11.625,5.0625,-17.0625,0
65490,-11.75,6.1875,-18.1875,0
65510,-9,12.125,-13.625,0
65530,-8.125,13.0625,-12.5625,0
65550,-8.75,8.3125,-16.1875,0
65570,-10.0625,5,-20.5,0
65590,-8.8125,13.1875,-13.75,0
65610,-9.6875,11.5625,-15.9375,0
65640,-13.125,9.625,-20.9375,0
65680,-15.625,12.875,-19,0
65700,-15.9375,9.5625,-20.4375,0
65720,-16.25,11.4375,-18.8125,0
65740,-15.4375,14.75,-20.3125,0
65760,-16.4375,15.25,-21.375,0
65780,-15.625,17.4375,-20.75,0
65800,-14.25,18.4375,-19.9375,0
65820,-14.375,17.0625,-22,0
65840,-14.875,14.875,-23.1875,0
65860,-14.875,14.625,-22.9375,0
65880,-14.75,17.3125,-19.9375,0
65900,-16.1875,18.875,-20.125,0
65920,-15.0625,18,-21.8125,0
65940,-14.9375,16.25,-21.4375,0
65960,-15,17.5625,-20.75,0
65970,-15,19.0625,-19.5,0
65990,-14.25,16.75,-20.375,0
66010,-12.8125,13.625,-20.75,0
66030,-13.375,13.625,-19.625,0
66050,-13.1875,16.0625,-19.0625,0
66070,-12.3125,16.0625,-18.0625,0
66090,-11.4375,14.375,-17.4375,0
66110,-11.5625,13.3125,-17.375,0
66130,-12.5,15,-16.9375,0
66150,-12.375,17.375,-15.375,0
66170,-11.875,17.6875,-14.5,0
66190,-12.1875,17.5,-15.6875,0
66210,-13.375,17.6875,-16,0
66230,-12,18.8125,-17.1875,0
66250,-11.625,19.875,-17.25,0
66270,-12.625,20.4375,-18.125,0
66290,-12.25,21.4375,-18.0625,0
66310,-10.9375,23,-16.3125,0
66330,-9.125,24.0625,-14.1875,0
66350,-9.6875,25.5,-12.875,0
66370,-9.1875,27.1875,-12.6875,0
66390,-7.625,28.75,-11.8125,0
66410,-5.5625,29.8125,-9.3125,0
66430,-6,31.125,-10.0625,0
66450,-5.0625,31.75,-10.8125,0
66470,-4.5625,33.25,-11.1875,0
66490,-4.3125,36.3125,-9.3125,0
66510,-5.625,38.9375,-9.125,0
66530,-6.0625,38.5625,-10.625,0
66550,-6.75,38.5625,-11.375,0
66570,-6.75,43.125,-9.25,0
66590,-9.0625,45.625,-7.125,0
66610,-8.9375,43.75,-7.75,0
66630,-8.5,41.875,-8,0
66650,-7.875,43.5,-6.4375,0
66670,-8.6875,45.3125,-2.75,0
66690,-8.875,42,-3.5625,0
66710,-8.625,36.3125,-4.125,0
66730,-6.3125,33.9375,-3.875,0
66750,-3.25,34.0625,-1.625,0
66770,0.125,33.25,-2.6875,0
66790,-0.625,32.375,-3.0625,0
66810,-3.75,33.9375,-2.25,0
66830,-4.125,35.375,-1.25,0
66850,-3.75,35.1875,3.3125,0
66870,-4.625,34.5,1.1875,0
66890,-3.6875,35.3125,-0.5625,0
66910,-5.875,37,-0.1875,0
66930,-8.25,37.0625,-0.75,0
66950,-6.5625,35.25,-3.1875,0
66970,-5.0625,32.8125,-3.6875,0
66990,-8.25,30.4375,-3.0625,0
67010,-10,29.0625,0.6875,0
67030,-6.0625,24.125,3.6875,0
67050,5.3125,19.875,3.8125,0
67070,6.8125,11.5,10.3125,0
67090,-0.5,10.75,12.5,0
67110,-0.3125,17.8125,9.3125,0
67130,8.1875,20.75,3.375,0
67150,6.5,18.1875,1.625,0
67170,0.1875,18.9375,4.375,0
67190,-16.3125,23.125,6.8125,0
67210,-9.1875,18.5625,3.9375,0
67230,3.1875,15.375,6.5,0
67250,11,14.0625,9,0
67270,4.0625,16.0625,10.6875,0
67290,-9.4375,18.5625,9.25,0
67310,-4.1875,16.5,6.625,0
67330,4.8125,10.9375,11.3125,0
67350,11.375,10.3125,12.5,0
67370,4.3125,15.5,10.375,0
67390,1.875,16.4375,9.0625,0
67410,5.875,11.0625,9.8125,0
67430,12.1875,7.8125,14.4375,0
67450,12.125,9.125,11.75,0
67470,1.5,12.75,10.75,0
67490,4.25,10.25,14.4375,0
67510,10.5,6.25,16,0
67530,16.625,6.8125,14.75,0
67550,1.1875,14,15.5625,0
67570,-2.75,13.875,16,0
67590,3.75,8.875,16.1875,0
67610,11.9375,5.9375,16.6875,0
67630,12.0625,7.5625,15.6875,0
67650,-1.625,8.75,17.0625,0
67670,-2.8125,5.625,17.25,0
67690,6.0625,0.4375,17.4375,0
67710,11.0625,-1.625,17.5,0
67730,3.625,-0.875,18.875,0
67750,-3.875,-1.4375,20.25,0
67770,1.5,-6.75,19.375,0
67790,8.4375,-9.9375,21.75,0
67810,7.5625,-10.375,22.5,0
67830,2.375,-7.9375,21.3125,0
67850,4.3125,-10,19.25,0
67870,9.4375,-14.5,19.0625,0
67890,15.5,-16.75,18.875,0
67910,11.625,-13.8125,19.125,0
67930,7.125,-12.4375,19.125,0
67950,7.625,-12.875,19.4375,0
67970,11.125,-13.75,21.125,0
67990,9.5,-11.75,22.9375,0
68010,1.5625,-8,22.75,0
68030,2.875,-8.375,21.625,0
68050,7.75,-10.0625,23,0
68070,7.0625,-8.6875,22.75,0
68090,6.875,-7.625,24.0625,0
68110,5.125,-8.4375,22.9375,0
68130,5.5625,-10.8125,22.125,0
68150,7.5625,-11.875,23.5,0
68160,5.125,-11.75,23.9375,0
68180,3.125,-11.1875,23.125,0
68200,7.1875,-11.75,22.125,0
68220,9.6875,-14.25,22.625,0
68240,11.8125,-15.5625,23.5625,0
68260,6.375,-13.25,25.25,0
68280,9.8125,-12.4375,23.5,0
68300,7.5,-13.8125,23.6875,0
68320,5.625,-17,26.75,0
68340,7.0625,-15,27.6875,0
68360,6,-13.1875,27.75,0
68370,5.1875,-13.9375,27.3125,0
68390,6.5,-16.5625,24.75,0
68410,10.5,-19.75,27.6875,0
68430,11.25,-18.4375,26.1875,0
68450,8.25,-18.125,24.5625,0
68470,1.875,-20.8125,23.8125,0
68490,5.4375,-22.125,24.875,0
68510,10.8125,-21.1875,25.6875,0
68530,8.3125,-19.75,25.0625,0
68550,0.25,-19.0625,22.625,0
68570,-2.75,-21.5,25,0
68590,7.5625,-22.625,25.9375,0
68610,8.75,-19.9375,23.8125,0
68630,4.75,-20.5625,22.3125,0
68650,1.875,-24.125,23,0
68670,5,-25.375,24.9375,0
68690,6.375,-25.0625,25.875,0
68710,-0.25,-25.1875,25.375,0
68730,-0.9375,-28.5,27.4375,0
68750,4.5,-30.5625,28.5625,0
68770,1.875,-27.0625,27.4375,0
68790,-4.875,-26.3125,25.5625,0
68810,-3.75,-29.6875,27.1875,0
68830,6.1875,-31.375,26.3125,0
68850,8.5,-29.4375,23.25,0
68870,-1.75,-29.625,23.5625,0
68890,-7.875,-30.5,25.875,0
68910,-1.375,-32.4375,25.5625,0
68930,7.0625,-33.8125,24.9375,0
68950,4.3125,-34.875,27.75,0
68970,-5.25,-35.5,27.125,0
68990,-4,-36.8125,22.4375,0
69010,-1.3125,-37.8125,21.25,0
69030,3.625,-39.875,21.0625,0
69050,-0.6875,-40.3125,21,0
69070,-5.5625,-39.875,18.75,0
69090,-10.625,-40.625,19.0625,0
69110,-8.0625,-41.0625,19.5,0
69130,-12.25,-40.1875,16.75,0
69150,-14.25,-39,13.0625,0
69170,-7,-38.5625,10.5625,0
69190,-1.8125,-39.625,7.9375,0
69210,-7.9375,-37.75,4.75,0
69230,-13,-33.375,1.1875,0
69250,-13.375,-32.375,-1.375,0
69270,-9.75,-33.125,-2.5,0
69290,-2.75,-34.375,-3.75,0
69310,-3.4375,-33.1875,-6.0625,0
69330,-9.25,-31.0625,-7.5,0
69350,-12.25,-31.9375,-11.75,0
69370,-8.75,-33.3125,-13.5625,0
69390,-8.625,-32.4375,-15.3125,0
69410,-8.8125,-32.375,-18.0625,0
69430,-9.3125,-30.0625,-18.5,0
69450,-11.375,-31.4375,-19.5,0
69470,-10,-31.5,-19.875,0
69490,-12.3125,-29,-22.375,0
69510,-14.8125,-25.875,-24.75,0
69530,-12,-26.4375,-23.75,0
69550,-15.125,-26.375,-24.6875,0
69570,-14,-24.4375,-28.125,0
69590,-12.375,-24.0625,-31.1875,0
69610,-17.25,-21.5625,-28.3125,0
69630,-18.25,-18.1875,-30.125,0
69650,-17.0625,-17.125,-34.875,0
69670,-20.1875,-13.875,-34.0625,0
69690,-19.625,-11.875,-35.875,0
69710,-19.75,-11,-37.375,0
69730,-20.4375,-7.625,-40.3125,0
69750,-23.5,-6.8125,-42.125,0
69770,-22.125,-5,-45.1875,0
69790,-20.4375,-4.75,-45.4375,0
69810,-22.0625,-1.75,-49.9375,0
69830,-22.9375,0.4375,-52.375,0
69850,-24.0625,2.4375,-51.8125,0
69870,-24.4375,1.25,-49.8125,0
69890,-23.0625,2.1875,-49.4375,0
69910,-23.625,5.5625,-50,0
69930,-25.25,8.3125,-51.375,0
69950,-24.75,7.875,-50.25,0
69970,-22.75,7.5,-49,0
69990,-22,8.4375,-48.25,0
70010,-23.1875,10.5625,-48,0
70030,-22.6875,10.0625,-45.75,0
70050,-22,10.375,-45.75,0
70070,-23.875,13.3125,-46.8125,0
70090,-26.5625,15.375,-46.0625,0
70110,-23.125,14.4375,-45.0625,0
70130,-19.625,12.6875,-45.9375,0
70150,-20.3125,13.625,-47.625,0
70170,-20.875,14.9375,-50.5625,0
70190,-19.375,13.625,-51.125,0
70200,-18.5,12.375,-50.75,0
70230,-18.3125,12.9375,-51.1875,0
70250,-16.6875,12.75,-51.0625,0
70270,-18.0625,15.0625,-50.8125,0
70290,-17.5,15.25,-47.625,0
70310,-15.3125,14.6875,-44.25,0
70330,-14.875,17.375,-43.8125,0
70350,-12.9375,18.8125,-43.5,0
70360,-13.75,19,-41.3125,0
70380,-13.8125,19.6875,-38.3125,0
70400,-13.5,22.625,-37.125,0
70420,-9.9375,24.375,-34.75,0
70440,-8.125,25.625,-34.0625,0
70460,-9.875,27.5,-31.875,0
70480,-10.8125,29.125,-28.6875,0
70500,-10.375,30.75,-26.0625,0
70520,-10.75,35.25,-24.9375,0
70540,-13.375,38.1875,-23.5,0
70560,-18.625,42.8125,-19.4375,0
70580,-15.125,45.75,-16.875,0
70600,-12.75,48.625,-14,0
70620,-12.875,50.875,-11.3125,0
70640,-6,44.8125,-6.5,0
70660,5.375,38.1875,0.5,0
70680,2.125,40.9375,6.4375,0
70700,-9.625,43.0625,6.1875,0
70720,-16.625,50.625,8.25,0
70740,-18.875,47.125,11.6875,0
70760,-10,44.375,18.25,0
70780,-19.25,53.4375,22.75,0
70800,-21.5625,52.0625,23.3125,0
70820,-23.625,46.5,31.75,0
70840,-10.625,37.625,33.0625,0
70860,3.5625,35.375,34.5625,0
70880,-16.75,38.5625,41,0
70900,-8.9375,34.8125,38.6875,0
70930,5.75,28.5625,33.375,0
70950,-8.75,29.4375,36.625,0
70970,0.9375,25.125,36.625,0
70990,11.3125,21.6875,34.9375,0
71010,9.375,21.3125,32.1875,0
71030,3,21.4375,30.75,0
71050,-0.375,18.5625,35.25,0
71070,14.75,12.75,37,0
71090,20.0625,10.8125,31.0625,0
71110,4.75,12.6875,31.875,0
71130,0.6875,8.75,34.375,0
71150,6.375,4.375,37.6875,0
71170,13.375,3.1875,34.6875,0
71190,14.9375,3.375,33.8125,0
71210,6.75,2.8125,34.75,0
71230,5.125,-1.375,37.4375,0
71250,10.9375,-5.0625,37.375,0
71270,10.25,-5.6875,37.1875,0
71290,8.1875,-6.6875,39,0
71310,1.625,-8.625,39.9375,0
71330,5.5,-10.5625,40.375,0
71350,8.0625,-12.625,40.5625,0
71370,6.625,-13,40.75,0
71390,4.0625,-13.5,41.3125,0
71410,1.4375,-16.25,43.875,0
71430,7.4375,-19.875,44.8125,0
71450,7.1875,-19.0625,42.5625,0
71470,1.0625,-17.625,44.5625,0
71490,-5.125,-18.0625,46.5625,0
71510,-0.5,-19.25,47.125,0
71530,2.0625,-20.5625,46.4375,0
71550,-2.9375,-20.125,44.875,0
71570,-6.0625,-20.875,43.5,0
71590,-6,-22.9375,42.125,0
71610,-5.4375,-25.1875,41.125,0
71630,-4.75,-25.3125,40.1875,0
71650,-9.8125,-24.875,39.0625,0
71670,-13.25,-25.4375,39.125,0
71690,-10.4375,-25.5,37.25,0
71710,-9.25,-27.625,34.4375,0
71730,-15.625,-28.1875,35.1875,0
71750,-19.75,-28.1875,35,0
71770,-18.625,-30.25,33.5,0
71790,-16.875,-33,33.0625,0
71810,-19.1875,-33.75,30.1875,0
71830,-21.4375,-34.3125,28.125,0
71850,-19.0625,-34.75,25.5625,0
71870,-15,-36.5625,22.0625,0
71890,-13.8125,-36.75,19.5625,0
71910,-13.1875,-35.3125,16.0625,0
71930,-8.875,-35.9375,13.375,0
71950,-7.8125,-37.125,9.5,0
71970,-8.25,-37.8125,6.375,0
71990,-9.3125,-39.25,5.3125,0
72010,-8.8125,-37.25,0.6875,0
72030,-2.6875,-37.5,-3.625,0
72050,-3.75,-40.9375,-6.0625,0
72070,1,-42.3125,-11.375,0
72090,3.0625,-39.875,-12.9375,0
72110,-6.25,-38.9375,-12.4375,0
72130,-8.6875,-38.6875,-12.8125,0
72150,-2.4375,-41.25,-14.1875,0
72170,-2,-40.75,-16.5,0
72190,-5,-38.875,-18.375,0
72210,-6.5,-38.4375,-18.25,0
72230,-6.3125,-39,-19.375,0
72250,3.5,-40.875,-22.1875,0
72270,0.3125,-39.3125,-22.3125,0
72290,-3.6875,-35.375,-21.8125,0
72310,-6.1875,-36.75,-20.375,0
72330,-3.0625,-39.1875,-19,0
72350,-1.4375,-39.25,-20.1875,0
72370,-0.875,-36.75,-20.5,0
72390,-7.9375,-32.9375,-18.375,0
72410,-7.1875,-34.3125,-19.8125,0
72430,-8.375,-35.5,-19.75,0
72450,0.25,-36,-24.1875,0
72470,-1.0625,-32.1875,-25.4375,0
72490,-10.625,-29.9375,-26.125,0
72510,-12.875,-27.75,-24.375,0
72530,-11.5,-24.6875,-28.0625,0
72550,-1.5625,-24.1875,-33.375,0
72570,-0.5,-22.125,-33.5625,0
72590,-10.125,-19.5,-33.625,0
72610,-21,-16.625,-33.375,0
72630,-14.6875,-17.9375,-36.8125,0
72650,-3.75,-16.8125,-39.1875,0
72670,-11.9375,-13.125,-39.1875,0
72690,-21.8125,-11.125,-37.6875,0
72710,-22,-10.25,-39.25,0
72730,-18,-8.6875,-41,0
72750,-14,-5.875,-44.0625,0
72770,-17.5,-5.3125,-46.3125,0
72790,-24.75,-3.9375,-45.9375,0
72810,-21.1875,-1.4375,-45.625,0
72830,-11.75,0.1875,-49.1875,0
72850,-15.75,1.3125,-49.3125,0
72870,-21.75,2.625,-48.0625,0
72890,-19.875,4.4375,-48.0625,0
72910,-14.3125,6.75,-48.625,0
72930,-17.75,8.375,-50,0
72950,-19.4375,8.125,-50.625,0
72970,-16.125,9.5625,-48.9375,0
72990,-14.625,13.6875,-48.3125,0
73010,-20.75,16.625,-49,0
73030,-23.5625,18.3125,-47.4375,0
73050,-21.25,19.875,-46,0
73070,-15.9375,23.4375,-45.25,0
73090,-18.625,29.0625,-46.0625,0
73110,-19.3125,32.4375,-44.3125,0
73130,-18.875,32.5,-41.125,0
73150,-16,33,-39.5,0
73170,-19.25,38.8125,-35.875,0
73190,-20.3125,41.25,-34.8125,0
73210,-16.9375,38.0625,-34.1875,0
73230,-15.5,36.625,-28.75,0
73250,-10.9375,38,-23.5,0
73270,-13.625,41.75,-23.5625,0
73290,-16.625,40.75,-22.4375,0
73310,-16,44.375,-20.25,0
73330,-24.375,53.625,-11.0625,0
73350,-18.125,53.25,-7.6875,0
73370,-16.5625,51.5625,-4.9375,0
73390,-20.4375,50.125,-1.625,0
73410,-29.8125,55.5,6.4375,0
73430,-25.75,53.75,7.625,0
73450,-16.5,50.5,10.1875,0
73470,-14.5625,50.8125,10.5625,0
73490,-17.75,52.625,14.25,0
73510,-28.1875,51.25,18.25,0
73530,-13.6875,48.4375,17.4375,0
73550,-23.625,53.5,17.8125,0
73570,-27.125,56.4375,20.875,0
73590,-22.125,47.625,28.375,0
73610,-10.0625,41.3125,28.625,0
73630,-15.125,41.5,24.9375,0
73650,-31.6875,43.8125,29.125,0
73670,-30.0625,39.0625,32.9375,0
73690,-9.75,27.4375,36.125,0
73710,-0.75,21.5625,32.125,0
73730,-15.9375,25.5,31.9375,0
73750,-30.3125,25.375,34.3125,0
73760,-17.6875,16.0625,38.4375,0
73780,-2.4375,10.9375,37.75,0
73800,0.5,11.4375,34.75,0
73820,-17.0625,13.125,34.8125,0
73840,-16.5,7.6875,36.0625,0
73860,-4.9375,0.8125,34.8125,0
73880,8.5625,-0.5,32.5625,0
73900,5.1875,0.125,33.75,0
73920,-3.0625,-1.6875,35.375,0
73940,-4.5,-6.5625,36.625,0
73960,6.5625,-10.625,35.6875,0
73980,8.125,-11.3125,35,0
74000,3,-10.1875,36.5,0
74020,-4.6875,-12,36.625,0
74040,2.375,-14.4375,35.25,0
74060,9.5,-16.0625,35.4375,0
74080,13.4375,-16.1875,34.9375,0
74100,9.5625,-17.6875,37.375,0
74120,6.5,-20.4375,38.3125,0
74160,14.75,-22.5,38.125,0
74180,11.125,-24.8125,38.75,0
74200,13.3125,-28.0625,39.3125,0
74220,7.4375,-29.375,38.5625,0
74240,8.0625,-29.6875,39.3125,0
74260,4.75,-29.375,38.625,0
74280,3.3125,-30,40.25,0
74300,4.125,-30.875,39.4375,0
74320,2.125,-29.0625,37.75,0
74340,-0.875,-29.0625,36.5625,0
74360,0,-30.625,34.25,0
74380,9.125,-33.1875,32.5,0
74400,12.3125,-35.125,31.875,0
74420,10.125,-37.375,29.8125,0
74440,8,-38.625,26.375,0
74460,10.0625,-43.0625,24.25,0
74480,11.5,-47.3125,21.1875,0
74500,12.375,-49.5625,17.5625,0
74520,9.375,-50.3125,17.6875,0
74540,6.1875,-50.0625,16.6875,0
74560,5.4375,-53.0625,14.5625,0
74580,2.4375,-54.4375,12.5,0
74600,-2.75,-51.5,10.375,0
74620,-5.75,-50.4375,9,0
74640,-4.0625,-53.5625,5.9375,0
74660,-1.875,-55.3125,5.1875,0
74680,-9.75,-55.75,3.6875,0
74700,-13.3125,-56.125,-0.75,0
74720,-2.0625,-58,-6.1875,0
74740,7,-61.25,-6.3125,0
74760,7.5,-62.0625,-9.6875,0
74780,-6.125,-55.25,-11.6875,0
74800,-11.8125,-50.75,-15.0625,0
74820,-5.8125,-54.875,-16.9375,0
74840,2.4375,-57,-16.9375,0
74860,-0.25,-50.9375,-20.6875,0
74880,-4.5,-44.9375,-22.1875,0
74900,-9.75,-44.8125,-23.25,0
74920,-10.3125,-46.5,-24.1875,0
74940,1.5625,-46,-24.875,0
74960,4.8125,-40.4375,-26.9375,0
74980,2.4375,-36.5625,-28.75,0
75000,2,-34.1875,-29.4375,0
75020,7.6875,-37.25,-31.3125,0
75040,12,-39.375,-32.375,0
75060,7.125,-34.6875,-33.5625,0
75080,3.125,-31.125,-33.125,0
75100,4.25,-27.875,-30.25,0
75120,3.5,-23,-29.5625,0
75140,8.1875,-17.8125,-29,0
75160,6.75,-12.0625,-22.375,0
75180,3.1875,-12,-18.9375,0
75200,-1.125,-6.3125,-17.375,0
75220,-5.4375,1.3125,-13.25,0
75240,2.1875,1.6875,-7.9375,0
75260,2.3125,0.1875,-6.5,0
75280,-2.25,2,-5.5625,0
75300,-5.0625,4.875,-6.5625,0
75320,-2.5,4.0625,-6.375,0
75340,0.125,2.6875,-4.875,0
75360,-1.25,2.8125,-5.75,0
75380,-0.4375,3.0625,-5.125,0
75400,-2.8125,1.25,-4.25,0
75420,-5.625,2.375,-4.75,0
75440,-6.5625,3.625,-3.875,1001
75460,-7.375,2.875,-2.4375,0
75480,-5.9375,4.0625,-2.125,0
75500,-8.875,5.125,0.25,0
75520,-10.4375,5.8125,-3.3125,0
75540,-5.9375,7.1875,-4.8125,0
75560,-7,7.875,-0.9375,0
75580,-13.125,8.375,1.25,0
75600,-8.9375,6.3125,-1.4375,0
75620,-4.875,5,-1.0625,0
75640,-8.5,5.875,-0.6875,0
75660,-9.75,7.75,2.25,0
75680,-5.375,7.5,4.6875,0
75690,-2.1875,6.9375,1.5,0
75710,-8.4375,9.8125,1.625,0
75730,-1.875,10.1875,1.5,0
75750,2.25,7.125,1,0
75770,2.125,6.4375,0.875,0
75790,3.5625,10.0625,-1.0625,0
75810,2.3125,11.0625,-3.875,0
75830,15.375,-0.3125,-8,0
75850,21.9375,-5.8125,-4.8125,0
75870,16.375,1.75,-12.5,0
75890,8.5,19.8125,-22.8125,0
75910,15.6875,21.875,-35.625,0
75930,21,15.6875,-22.6875,0
75950,11.6875,16.8125,-30.375,0
75970,-2.75,32.25,-28.8125,0
75990,-16,41.375,-13.5625,0
76010,-35.8125,49.875,-3.0625,0
76030,-26.75,65.625,8.3125,0
76050,-22.75,79.5625,29.8125,0
76070,-12.5625,77.9375,60,0
76090,-5.1875,95.9375,64.75,0
76110,14,98.6875,68.6875,0
76130,4.1875,111.062,84.3125,0
76150,10,104.188,96.9375,0
76170,36.375,90.5,104.125,0
76190,56.25,88.875,110.938,0
76210,69.5625,91.125,99.1875,0
76230,71.875,85.4375,85.6875,0
76260,114.062,62.375,53.8125,0
76280,107.625,42.0625,49.875,0
76300,69.5,26.625,49.5,0
76310,50.875,24.8125,51.8125,0
76330,25.1875,19.625,53.9375,0
76350,-2.8125,7.6875,44.25,0
76370,-13.625,-2.4375,30,0
76390,-9.1875,-8.625,17.1875,0
76410,-3.625,-8.1875,9.0625,0
76430,-4.0625,-1.625,-0.875,0
76450,-4.375,3.375,-11.625,0
76470,-6.375,7.125,-11.125,0
76490,-1.125,12.5,-6.5,0
76510,6.125,15.5,-8.6875,0
76530,8.0625,12.4375,-6.5,0
76550,8.75,10.25,-5.6875,0
76570,10.125,12.5625,-3.75,0
76590,10.4375,12,-3.4375,0
76610,7.125,9.4375,-4.25,0
76630,6.6875,6.625,-7.125,0
76650,5.4375,4.25,-5.625,0
76670,1.875,3.5,-4.625,0
76690,-0.0625,1.625,-5.1875,0
76720,-5.5625,-3.4375,-4.375,0
76740,-4.8125,-0.375,-0.9375,0
76750,-3.4375,3.25,-0.1875,0
76770,-0.8125,6.0625,0.9375,0
76790,1,12.6875,6.875,1000
76810,-3.5625,23.125,11.5625,0
76830,-3.1875,28,13.5625,0
76840,-2.9375,19.8125,0.4375,0
76860,-7.1875,18,-3.1875,0
76880,-4.125,13.375,2.875,0
76890,-5.3125,9.3125,6.75,0
76910,-1.3125,3.125,4.125,0
76920,2.3125,-2.3125,0.0625,0
76940,-1.3125,0.125,2.625,0
76960,-4.875,4.5,1.9375,0
76980,-5.5,3.9375,0.4375,0
77000,-3.25,2,-1.25,0
77020,-3.25,1.5,0.625,0
77060,-1,3.125,-0.8125,0
77070,0.5,0.75,-0.625,0
77090,1.0625,1.6875,2.25,0
77110,1.8125,-1.0625,1.6875,0
77130,1.6875,-3.5,2,0
77150,1.3125,-3.3125,4.9375,0
77170,1.125,-3.3125,4.875,0
77200,1.5625,-12.0625,5,0
77220,1.25,-13.3125,8.375,0
77260,1.1875,-12.1875,6.8125,0
77280,-0.625,-11.9375,10.3125,0
77290,-0.4375,-10.4375,12.25,0
77310,1.25,-10,8.0625,0
77330,1.25,-11.25,5.0625,0
77350,4.5,-12.375,8.625,0
77370,5.4375,-10.6875,11.0625,0
77390,7.0625,-10.6875,8.25,0
77410,5.9375,-12.1875,2.875,0
77420,6.125,-13.9375,2.75,0
77440,5.8125,-14.375,3.625,0
77470,1.5625,-14.1875,0.6875,0
77480,0.9375,-13.625,3.25,0
77500,-0.875,-10.25,3.625,0
77510,-1.125,-7.3125,0.875,0
77530,-2,-7.1875,0.875,0
77550,1.1875,-8.125,1.4375,0
77570,1.25,-7.75,-0.5,0
77590,0.0625,-7.25,-1.125,0
77610,0.5,-8.0625,-2.1875,0
77630,-1.1875,-8.875,-2.5625,0
77650,-1.1875,-7.75,-2,0
77670,-0.75,-4.125,-2.5,0
77690,-1.375,-0.125,-1.5,0
77710,-2.875,0.625,-2.6875,0
77730,-2.8125,-0.5625,-2.5,0
77750,-1.1875,-1.1875,-4.1875,0
77770,-1.875,-4.75,-4.4375,0
77790,-0.9375,-8.875,-5,0
77810,0.0625,-12.625,-3.25,0
77830,-0.0625,-15.5625,-4.6875,0
77850,0,-17.875,-5.6875,0
77870,2.125,-20.0625,-3.4375,0
77890,1,-20.3125,-1.8125,0
77910,-0.6875,-19.625,-2.875,0
77930,1,-20.25,-3.0625,0
77950,2.125,-19,-2.0625,0
77970,0.1875,-17.875,-0.75,0
77990,-1.875,-19.625,-0.9375,0
78010,-1.3125,-21.9375,-2.625,0
78030,-1.625,-23,-3.1875,0
78050,-2.3125,-23.75,-2.5625,0
78070,-3,-23.125,-1.125,0
78090,-5,-21.0625,-0.25,0
78110,-7.1875,-19.5625,0.0625,0
78130,-7.9375,-19.8125,0.3125,0
78150,-5.75,-20.5625,-0.625,0
78170,-5.25,-21.0625,-1.4375,0
78190,-5.375,-20.6875,-3.0625,0
78210,-4.25,-20.5,-4.1875,0
78230,-2.5625,-21.4375,-6.875,0
78250,-2.875,-21.75,-7.0625,0
78270,-3.75,-21.75,-7.375,0
78290,-5.5,-20.1875,-6.5625,0
78310,-4.4375,-17.5,-6.625,0
78330,-4.1875,-17.5625,-7.9375,0
78350,-6.5625,-18.9375,-7.875,0
78370,-6,-18.6875,-6.625,0
78390,-5.125,-17.0625,-6.9375,0
78410,-6.6875,-16.375,-8.625,0
78420,-8.875,-17.625,-8.0625,0
78440,-7.875,-19,-7.4375,0
78470,-8.1875,-23.5625,-10.1875,0
78490,-9.4375,-24.3125,-10.125,0
78510,-7.875,-21.75,-7.75,0
78530,-7.5625,-18.75,-6.8125,0
78550,-8.0625,-16.8125,-7.75,0
78570,-9.4375,-15.5,-9.6875,0
78590,-9.875,-13,-9.125,0
78610,-8.25,-10.0625,-8.1875,0
78630,-7.6875,-7.1875,-8.3125,0
78650,-8.875,-7.4375,-9.375,0
78670,-9.3125,-7.9375,-9.5625,0
78690,-8.6875,-7.0625,-9.4375,0
78710,-8.875,-6.75,-9.1875,0
78730,-8.875,-7.6875,-9.375,0
78750,-10.1875,-9.5625,-10.1875,0
78770,-10.625,-10.0625,-10.5,0
78780,-10.0625,-9.0625,-10.3125,0
78800,-10.5625,-7.4375,-9.5625,0
78820,-10.6875,-6.5625,-9.4375,0
78840,-11.0625,-4.8125,-9.6875,0
78860,-11.5,0,-11,0
78900,-9.5,7.125,-7.75,0
78920,-9.5,7.9375,-7.625,0
78940,-8.625,8.1875,-8.25,0
78960,-8.0625,7.8125,-8.5,0
78980,-7.9375,7.0625,-7.6875,0
79000,-7.6875,5,-7.5,0
79020,-6.625,2.3125,-8.0625,0
79040,-7.1875,0.6875,-9,0
79060,-8,0.0625,-10.625,0
79080,-8,0.125,-9.875,0
79100,-8.3125,0.125,-9.6875,0
79120,-8.6875,-0.0625,-11.3125,0
79140,-9.625,-1.125,-13.9375,0
79160,-9.6875,-0.375,-13.6875,0
79180,-8.125,1,-11.875,0
79200,-8,1.25,-12.3125,0
79220,-8.5,0,-13.375,0
79230,-8.8125,-0.8125,-12.5625,0
79250,-7.3125,0.75,-9.1875,0
79270,-5.375,2.125,-7.9375,0
79290,-2.875,0,-6.5,0
79310,-1.3125,0.4375,-4.6875,0
79330,-1.75,1.1875,-4.875,0
79350,-3.5,1.8125,-6,0
79370,-3.875,2.4375,-6.625,0
79390,-2.6875,4.6875,-5.5,0
79410,-2.5,5.4375,-4.9375,0
79430,-2.5,3.3125,-6.3125,0
79450,-1.6875,2.1875,-7,0
79470,-1.0625,2.3125,-5.125,0
79510,-0.0625,2.4375,-1.0625,0
79520,3.1875,3,2.375,0
79540,3.1875,2.3125,1.3125,0
79560,2.375,1.3125,0.3125,0
79580,3.75,1.625,1.9375,0
79600,4.4375,1.125,3.0625,0
79640,2.8125,-0.6875,-0.5,0
79690,-0.0625,1.625,0.3125,0
79770,4.125,11.625,4.9375,0
79790,8.375,18,8.375,0
79810,8.6875,17.3125,7.5625,0
79840,5.25,13.5625,4.1875,0
79870,2.25,12.1875,0.5,0
79880,5.25,24.5625,-0.25,0
79910,7.6875,44.875,5,0
79910,10.0625,44.875,4.1875,0
79940,19.6875,37.6875,20,0
79960,14.8125,34.5625,16.125,0
79980,11.5,31.1875,10.75,0
80000,14.5,25.25,14,0
80020,16.625,19.5,17.875,0
80040,12.75,19.3125,12.4375,0
80060,5.6875,19.5625,3.1875,0
80080,6.25,15.1875,3.375,0
80100,7.875,8.4375,6.5,0
80120,7.4375,7.5625,2.5625,0
80140,2.875,9.75,-3.875,0
80160,1.75,9.25,-2.375,0
80180,3.6875,5.8125,1,0
80200,4.1875,3.875,0.6875,0
80220,2.5,6,-2.5625,0
80220,1.5,7.875,-4.375,0
80240,4.6875,5.8125,-2.1875,0
80260,5.1875,3.9375,-0.6875,0
80280,5.0625,4,-1.3125,0
80300,6.375,5.4375,-2.5625,0
80320,5.9375,6.5625,-2.125,0
80340,5.5625,2.8125,1,0
80360,5.875,0.1875,2.125,0
80380,5.75,-0.1875,-0.125,0
80400,5.25,0.9375,-1.0625,0
80420,3.875,-2.0625,3.5625,0
80440,5,-5.875,3,0
80460,5.5,-8.25,-0.9375,0
80480,2.375,-5.625,-3.3125,0
80500,0.4375,-6.125,-3.875,0
80510,0.6875,-9.375,-3.75,0
80530,1.625,-10.0625,-4.6875,0
80550,1.3125,-8.9375,-6.625,0
80560,-0.5625,-6.9375,-7.75,0
80580,-1.8125,-7,-8.0625,0
80600,-2,-8.5,-7.9375,0
80610,-1.1875,-7.9375,-8.8125,0
80630,-2.125,-5.1875,-11,0
80650,-3.9375,-4.3125,-11.6875,0
80680,-3.375,-5.8125,-12.375,0
80700,-4.875,-3.625,-14.0625,0
80720,-4.75,-3.3125,-13.9375,0
80730,-8.125,-1.75,-17.25,0
80740,-9.9375,0.625,-17.875,0
80760,-8.5625,0.4375,-17,0
80780,-5.5625,-0.9375,-15.8125,0
80800,-6.5,-0.3125,-16.8125,0
80810,-10,3.4375,-18.9375,0
80830,-8.0625,2.5,-18.4375,0
80850,-5.5625,0.875,-18.0625,0
80870,-5.75,1.3125,-18.125,0
80890,-6.6875,2.8125,-18.625,0
80910,-8.9375,5.1875,-17.9375,0
80930,-7,4.5625,-15.6875,0
80950,-4.3125,2.625,-14.3125,0
80970,-3.8125,2.1875,-14.3125,0
80990,-5.375,4.125,-14.5625,0
81010,-5.5625,5.9375,-14,0
81030,-4.0625,5.5,-12.3125,0
81050,-3,4.375,-11.4375,0
81070,-1.6875,4.125,-12.6875,0
81090,-3.3125,7.3125,-13.9375,0
81110,-4.5625,10.0625,-14.125,0
81130,-4.0625,8.3125,-14.875,0
81150,-3.6875,6.1875,-15.8125,0
81170,-4.5625,7.5625,-17.125,0
81190,-6.0625,10.375,-17.125,0
81210,-6.5,10.0625,-16.9375,0
81230,-4.5,6.25,-17.25,0
81250,-4.5,6.125,-18.4375,0
81270,-6,8.0625,-18.3125,0
81290,-6.25,7.6875,-16.875,0
81310,-4.75,6.375,-16.875,0
81330,-4.5,5.3125,-16.9375,0
81350,-5.75,6.125,-16.75,0
81370,-6.0625,7,-16.5625,0
81390,-4.875,6.9375,-15.75,0
81410,-4.375,6.375,-15.75,0
81430,-5.75,6.125,-16.9375,0
81450,-6.6875,8.4375,-17.3125,0
81470,-6.375,9.1875,-17.4375,0
81490,-5.8125,8.1875,-16.5,0
81510,-4.9375,7.3125,-16.6875,0
81530,-5.75,8.6875,-16.1875,0
81550,-5.6875,11,-16,0
81570,-5.875,10.625,-14.875,0
81590,-5.6875,8.6875,-13.375,0
81610,-5.125,6.9375,-13.75,0
81630,-6.6875,9.75,-14.9375,0
81650,-7.625,13,-16.3125,0
81670,-6.6875,12.5625,-16.25,0
81690,-5.5,11.5,-16.875,0
81710,-7.4375,11.875,-18.5,0
81730,-8.8125,15.3125,-19.4375,0
81750,-10.0625,17.75,-20.0625,0
81770,-9,19.3125,-19.9375,0
81790,-9.0625,23.4375,-22.625,0
81810,-10.5625,28.5,-23.9375,0
81830,-10.75,29.75,-23.3125,0
81850,-9,29.375,-22,0
81870,-6.3125,28.625,-22.75,0
81890,-7.375,30.5,-23.1875,0
