Timestamp, Angle x, Angle y, Angle z, Marker
40,-0.624621,0.625762,1.99618,0
60,-0.618913,0.629334,1.99249,0
80,-0.607604,0.62919,1.99055,0
100,-0.595892,0.626847,1.98798,0
120,-0.58576,0.6237,1.98728,0
140,-0.578151,0.621408,1.98754,0
160,-0.574778,0.620443,1.98849,0
160,-0.574794,0.620227,1.99023,0
160,-0.57627,0.620705,1.99167,0
210,-0.576838,0.620927,1.99208,0
230,-0.578203,0.621911,1.99105,0
250,-0.57887,0.623573,1.98956,0
270,-0.57659,0.624224,1.98933,0
290,-0.571917,0.623429,1.98996,0
310,-0.567646,0.62316,1.99096,0
330,-0.564087,0.623114,1.99121,0
350,-0.560776,0.623084,1.99155,0
370,-0.558291,0.623017,1.99184,0
390,-0.556026,0.62274,1.99221,0
410,-0.553919,0.622339,1.99069,0
430,-0.550801,0.622122,1.98861,0
450,-0.548258,0.622597,1.98614,0
470,-0.547917,0.623673,1.98406,0
490,-0.54878,0.624398,1.98267,0
510,-0.550562,0.625732,1.98258,0
530,-0.553315,0.628228,1.98388,0
550,-0.558716,0.631602,1.9857,0
570,-0.565553,0.635517,1.98727,0
590,-0.571795,0.639559,1.988,0
610,-0.578331,0.642767,1.9869,0
630,-0.583837,0.645313,1.98458,0
650,-0.587041,0.645934,1.98204,0
670,-0.58795,0.645739,1.97973,0
690,-0.586442,0.644994,1.97708,0
710,-0.584841,0.644698,1.97445,0
730,-0.584094,0.644743,1.97177,0
750,-0.583866,0.644892,1.96974,0
770,-0.584873,0.645106,1.96739,0
790,-0.586388,0.646019,1.96472,0
810,-0.587487,0.647685,1.9632,0
830,-0.588381,0.650279,1.96173,0
850,-0.588453,0.653643,1.96048,0
870,-0.587657,0.65613,1.95957,0
890,-0.586826,0.65786,1.95926,0
910,-0.585783,0.658842,1.9594,0
930,-0.584348,0.659247,1.95985,0
950,-0.582642,0.658544,1.96007,0
970,-0.581628,0.65674,1.96037,0
990,-0.581524,0.655559,1.96008,0
1010,-0.580782,0.654449,1.95998,0
1030,-0.579474,0.652825,1.95997,0
1050,-0.578062,0.651092,1.96026,0
1070,-0.577203,0.649557,1.96064,0
1090,-0.576129,0.648216,1.96125,0
1110,-0.575765,0.64737,1.96103,0
1130,-0.576191,0.646189,1.96055,0
1150,-0.576065,0.645096,1.9608,0
1170,-0.57549,0.644266,1.96108,0
1190,-0.575333,0.643992,1.9607,0
1210,-0.575422,0.64368,1.95949,0
1230,-0.5747,0.643199,1.95872,0
1250,-0.573328,0.642949,1.95857,0
1260,-0.573658,0.642928,1.95826,0
1280,-0.574336,0.642787,1.95782,0
1300,-0.574737,0.642226,1.95832,0
1320,-0.573201,0.641491,1.9591,0
1340,-0.570553,0.640507,1.9604,0
1360,-0.567386,0.639596,1.96149,0
1380,-0.564025,0.639016,1.96289,0
1400,-0.560618,0.638976,1.96477,0
1420,-0.558125,0.639445,1.96684,0
1440,-0.557595,0.63983,1.96837,0
1460,-0.558814,0.640757,1.9695,0
1480,-0.560798,0.641691,1.97052,0
1500,-0.561714,0.64184,1.97098,0
1520,-0.561645,0.641709,1.97094,0
1540,-0.560694,0.641578,1.97081,0
1560,-0.559892,0.640869,1.97081,0
1580,-0.559772,0.640746,1.97082,0
1600,-0.560198,0.640156,1.97068,0
1620,-0.561133,0.63974,1.97008,0
1640,-0.56218,0.639922,1.96971,0
1660,-0.563943,0.641078,1.96965,0
1680,-0.566125,0.642359,1.9696,0
1700,-0.567738,0.643287,1.97008,0
1720,-0.569397,0.644021,1.97049,0
1740,-0.570822,0.644571,1.97112,0
1760,-0.572049,0.645948,1.97159,0
1780,-0.572984,0.647454,1.97183,0
1800,-0.574156,0.649019,1.97206,0
1820,-0.575379,0.649672,1.97207,0
1840,-0.577296,0.650377,1.97165,0
1860,-0.579609,0.651005,1.97096,0
1880,-0.581477,0.651593,1.97078,0
1900,-0.583118,0.652186,1.97082,0
1920,-0.585954,0.652499,1.97014,0
1940,-0.588795,0.652514,1.96995,0
1960,-0.591347,0.652355,1.97002,0
1980,-0.595987,0.653243,1.96864,0
2000,-0.600484,0.654334,1.96639,0
2020,-0.60335,0.655434,1.96474,0
2040,-0.604994,0.656015,1.96316,0
2060,-0.607877,0.656219,1.96093,0
2080,-0.611966,0.656622,1.95822,0
2100,-0.615771,0.657442,1.95612,0
2120,-0.619765,0.658638,1.95562,0
2140,-0.625322,0.660656,1.95458,0
2160,-0.631215,0.663343,1.95351,0
2180,-0.636347,0.665915,1.95241,0
2200,-0.641807,0.668278,1.95206,0
2220,-0.64811,0.670818,1.95171,0
2240,-0.656148,0.6733,1.95013,0
2260,-0.664543,0.675507,1.94805,0
2280,-0.672745,0.678243,1.94601,0
2300,-0.681789,0.680878,1.94264,0
2320,-0.690229,0.68354,1.93953,0
2340,-0.697914,0.685306,1.93696,0
2360,-0.704417,0.686705,1.9348,0
2380,-0.709154,0.687723,1.93356,0
2400,-0.712106,0.689122,1.93266,0
2420,-0.712999,0.690517,1.93188,0
2440,-0.712618,0.691354,1.93112,0
2460,-0.712343,0.691771,1.93025,0
2480,-0.712697,0.69221,1.92945,0
2500,-0.712971,0.692474,1.92871,0
2520,-0.71287,0.692693,1.9284,0
2540,-0.712542,0.693041,1.92809,0
2560,-0.711272,0.693667,1.9282,0
2580,-0.709145,0.694315,1.92876,0
2600,-0.706502,0.69488,1.92924,0
2620,-0.703872,0.695208,1.92939,0
2640,-0.701298,0.695525,1.92949,0
2660,-0.698011,0.695599,1.93,0
2680,-0.694487,0.695251,1.93079,0
2700,-0.69175,0.69517,1.93144,0
2720,-0.690381,0.695149,1.93172,0
2740,-0.689825,0.69515,1.9319,0
2760,-0.689044,0.694886,1.93205,0
2780,-0.688769,0.694744,1.93218,0
2800,-0.689266,0.694796,1.93196,0
2820,-0.689624,0.694327,1.9317,0
2840,-0.689624,0.694327,1.9317,0
2860,-0.690179,0.694326,1.93152,0
2880,-0.691177,0.69439,1.93116,0
2900,-0.692158,0.694333,1.93101,0
2920,-0.693539,0.693636,1.93087,0
2940,-0.69519,0.693121,1.93051,0
2960,-0.697181,0.692412,1.93016,0
2980,-0.698377,0.692069,1.93032,0
3000,-0.699957,0.691449,1.93023,0
3020,-0.701067,0.690489,1.93084,0
3040,-0.702292,0.689552,1.93094,0
3060,-0.704359,0.688439,1.93092,0
3080,-0.70639,0.688161,1.93131,0
3100,-0.708277,0.687797,1.93161,0
3120,-0.710487,0.687292,1.93111,0
3140,-0.712454,0.687274,1.93033,0
3160,-0.713684,0.687606,1.93002,0
3180,-0.714329,0.687747,1.92989,0
3200,-0.714329,0.687747,1.92989,0
3220,-0.714346,0.687866,1.92967,0
3240,-0.714357,0.687936,1.92988,0
3260,-0.713876,0.688003,1.92988,0
3280,-0.713762,0.688068,1.92988,0
3300,-0.713128,0.68808,1.9297,0
3320,-0.711881,0.687714,1.92971,0
3340,-0.710419,0.687546,1.92993,0
3360,-0.709732,0.687575,1.9298,0
3380,-0.708743,0.688056,1.92988,0
3400,-0.707534,0.688237,1.93,0
3420,-0.70742,0.688301,1.93,0
3440,-0.707777,0.688143,1.93031,0
3460,-0.707766,0.688072,1.9301,0
3480,-0.707766,0.688072,1.9301,0
3500,-0.707063,0.687982,1.93019,0
3520,-0.70649,0.687947,1.93006,0
3540,-0.706377,0.688012,1.93006,0
3560,-0.706204,0.687734,1.92998,0
3580,-0.705701,0.687719,1.93011,0
3600,-0.705647,0.687733,1.93015,0
3620,-0.705534,0.687797,1.93015,0
3640,-0.705534,0.687797,1.93015,0
3660,-0.705534,0.687797,1.93015,0
3680,-0.705534,0.687797,1.93015,0
3700,-0.705674,0.687922,1.93015,0
3720,-0.705561,0.687987,1.93015,0
3740,-0.705561,0.687987,1.93015,0
3760,-0.705032,0.687782,1.93028,0
3780,-0.705032,0.687782,1.93028,0
3800,-0.705032,0.687782,1.93028,0
3820,-0.705032,0.687782,1.93028,0
3840,-0.705032,0.687782,1.93028,0
3860,-0.704919,0.687847,1.93028,0
3880,-0.704919,0.687847,1.93028,0
3900,-0.704865,0.68786,1.93033,0
3920,-0.704223,0.687721,1.93046,0
3940,-0.70358,0.687581,1.9306,0
3960,-0.703694,0.687517,1.9306,0
3980,-0.70358,0.687581,1.9306,0
4000,-0.70358,0.687581,1.9306,0
4020,-0.703019,0.687224,1.93065,0
4040,-0.702124,0.687024,1.93079,0
4060,-0.700971,0.687106,1.93139,0
4080,-0.700858,0.687171,1.93139,0
4100,-0.700858,0.687171,1.93139,0
4120,-0.700206,0.686961,1.93132,0
4140,-0.699377,0.686818,1.93163,0
4160,-0.699377,0.686818,1.93163,0
4180,-0.699264,0.686882,1.93162,0
4200,-0.699264,0.686882,1.93162,0
4220,-0.698737,0.686678,1.93176,0
4240,-0.697957,0.686414,1.9319,0
4260,-0.697844,0.686478,1.9319,0
4280,-0.697844,0.686478,1.9319,0
4300,-0.697542,0.686539,1.93207,0
4320,-0.696633,0.686612,1.93246,0
4340,-0.695993,0.686473,1.9326,0
4360,-0.695429,0.686403,1.93256,0
4380,-0.694762,0.686467,1.93274,0
4400,-0.694762,0.686467,1.93274,0
4420,-0.694762,0.686467,1.93274,0
4440,-0.694762,0.686467,1.93274,0
4460,-0.694123,0.686328,1.93288,0
4480,-0.693286,0.686115,1.93297,0
4500,-0.692459,0.685973,1.93328,0
4520,-0.69195,0.68589,1.9332,0
4540,-0.69195,0.68589,1.9332,0
4560,-0.691284,0.685954,1.93338,0
4580,-0.690507,0.68569,1.93352,0
4600,-0.689544,0.685423,1.93384,0
4620,-0.688612,0.685307,1.93424,0
4640,-0.688113,0.685294,1.93437,0
4650,-0.687363,0.68522,1.93451,0
4670,-0.686476,0.685022,1.93465,0
4690,-0.685864,0.685073,1.93478,0
4710,-0.684918,0.684927,1.93488,0
4730,-0.683618,0.684854,1.9352,0
4750,-0.682475,0.684635,1.93526,0
4770,-0.681811,0.684347,1.93531,0
4790,-0.680852,0.684081,1.93563,0
4810,-0.6795,0.684021,1.93599,0
4830,-0.678557,0.683876,1.93609,0
4850,-0.677668,0.683719,1.93615,0
4870,-0.676633,0.683368,1.936,0
4890,-0.675534,0.683018,1.93623,0
4910,-0.674113,0.682891,1.93677,0
4930,-0.672773,0.68244,1.93709,0
4950,-0.671487,0.681978,1.93738,0
4970,-0.670226,0.681705,1.93766,0
4990,-0.668591,0.681317,1.93816,0
5010,-0.667159,0.681163,1.9384,0
5030,-0.665458,0.68076,1.93864,0
5050,-0.663632,0.6803,1.93911,0
5070,-0.661551,0.680173,1.93962,0
5090,-0.659593,0.68005,1.94034,0
5110,-0.65738,0.679798,1.94086,0
5130,-0.654827,0.679688,1.94181,0
5150,-0.652002,0.67937,1.94269,0
5170,-0.648628,0.678988,1.94354,0
5190,-0.644908,0.678679,1.94462,0
5210,-0.641183,0.678248,1.94591,0
5230,-0.637455,0.67775,1.94699,0
5250,-0.633708,0.677107,1.94799,0
5270,-0.630396,0.676528,1.94881,0
5290,-0.626835,0.675767,1.94984,0
5310,-0.623516,0.675,1.95067,0
5330,-0.619767,0.673876,1.95217,0
5350,-0.6155,0.672067,1.9543,0
5370,-0.612411,0.670576,1.9561,0
5390,-0.610569,0.669711,1.95731,0
5410,-0.607865,0.668464,1.95868,0
5430,-0.60526,0.667007,1.95995,0
5450,-0.603484,0.666192,1.96071,0
5470,-0.603147,0.665151,1.96206,0
5490,-0.603593,0.66348,1.96438,0
5510,-0.607228,0.661437,1.9662,0
5530,-0.614798,0.658237,1.96713,0
5550,-0.624051,0.655471,1.96901,0
5570,-0.632374,0.653871,1.97539,0
5590,-0.641088,0.652814,1.98045,0
5610,-0.65015,0.65168,1.98299,0
5630,-0.657493,0.651465,1.98456,0
5650,-0.663649,0.651796,1.98482,0
5670,-0.666561,0.652656,1.98417,0
5690,-0.666965,0.653971,1.9828,0
5710,-0.664846,0.656076,1.98116,0
5730,-0.659519,0.657372,1.97929,0
5750,-0.653118,0.658196,1.97725,0
5770,-0.647325,0.658419,1.97584,0
5790,-0.643525,0.659189,1.97522,0
5810,-0.642762,0.660224,1.97408,0
5830,-0.643385,0.661568,1.97213,0
5850,-0.644898,0.663265,1.97013,0
5870,-0.646379,0.665324,1.96787,0
5890,-0.648726,0.667266,1.96462,0
5910,-0.649908,0.668872,1.96167,0
5930,-0.65,0.669903,1.9601,0
5950,-0.649581,0.670031,1.95882,0
5970,-0.648804,0.669365,1.95823,0
5990,-0.648551,0.668767,1.9581,0
6010,-0.64939,0.668076,1.95813,0
6030,-0.650928,0.668241,1.9581,0
6050,-0.651863,0.668927,1.95814,0
6070,-0.651863,0.668927,1.95814,0
6090,-0.65237,0.669131,1.95801,0
6110,-0.652887,0.669401,1.95808,0
6130,-0.653631,0.669599,1.95774,0
6150,-0.653631,0.669599,1.95774,0
6170,-0.653762,0.669723,1.95773,0
6190,-0.654698,0.669739,1.95679,0
6210,-0.655564,0.669361,1.9566,0
6230,-0.655923,0.669035,1.9572,0
6250,-0.656179,0.668516,1.9586,0
6270,-0.658038,0.667861,1.95939,0
6290,-0.659901,0.66705,1.96049,0
6310,-0.661299,0.666118,1.96116,0
6330,-0.662213,0.665923,1.96138,0
6350,-0.661786,0.666272,1.96189,0
6370,-0.660189,0.666688,1.96199,0
6390,-0.658289,0.666463,1.96242,0
6410,-0.656871,0.665716,1.9626,0
6430,-0.655836,0.664835,1.96337,0
6450,-0.654509,0.663434,1.96427,0
6470,-0.654023,0.66284,1.96436,0
6490,-0.652906,0.662643,1.96326,0
6510,-0.651866,0.662746,1.9619,0
6530,-0.649643,0.662974,1.9611,0
6550,-0.64661,0.662606,1.9608,0
6570,-0.643652,0.662255,1.96075,0
6590,-0.642181,0.662204,1.96051,0
6610,-0.642186,0.66274,1.96065,0
6620,-0.643511,0.663756,1.96076,0
6640,-0.644052,0.664873,1.96077,0
6660,-0.642854,0.665567,1.96075,0
6680,-0.641642,0.665765,1.96052,0
6700,-0.640483,0.665846,1.96012,0
6720,-0.639884,0.665648,1.95961,0
6740,-0.639714,0.664938,1.95889,0
6760,-0.639938,0.66386,1.9584,0
6780,-0.641349,0.663298,1.95761,0
6800,-0.641349,0.663298,1.95761,0
6820,-0.64093,0.66352,1.95728,0
6840,-0.640817,0.663584,1.95728,0
6860,-0.641607,0.663604,1.95719,0
6880,-0.64196,0.664319,1.95774,0
6900,-0.642284,0.665879,1.95859,0
6920,-0.642703,0.667245,1.95903,0
6940,-0.642899,0.668269,1.95955,0
6960,-0.643043,0.66889,1.95977,0
6980,-0.64284,0.669331,1.95957,0
7000,-0.642264,0.669693,1.9595,0
7020,-0.641244,0.669801,1.95961,0
7040,-0.639904,0.669298,1.95933,0
7060,-0.639378,0.668699,1.95873,0
7080,-0.638309,0.668406,1.95854,0
7100,-0.636232,0.667958,1.95926,0
7120,-0.63417,0.667163,1.95984,0
7140,-0.632665,0.66645,1.96012,0
7160,-0.631481,0.666042,1.96056,0
7180,-0.630641,0.665868,1.961,0
7200,-0.630063,0.666313,1.96187,0
7220,-0.630001,0.666982,1.9629,0
7240,-0.630173,0.667646,1.96372,0
7260,-0.630952,0.668491,1.96432,0
7280,-0.631588,0.669727,1.96476,0
7300,-0.63224,0.671153,1.9652,0
7320,-0.632983,0.672368,1.96555,0
7340,-0.633773,0.673508,1.96564,0
7360,-0.634436,0.675227,1.96558,0
7380,-0.634919,0.677164,1.96498,0
7400,-0.634573,0.67891,1.9641,0
7420,-0.63332,0.679953,1.96357,0
7440,-0.632511,0.679966,1.96296,0
7460,-0.632333,0.679546,1.96278,0
7480,-0.63299,0.679483,1.96259,0
7500,-0.634019,0.680079,1.96232,0
7520,-0.635314,0.681301,1.96248,0
7540,-0.636365,0.682462,1.96265,0
7560,-0.637484,0.683473,1.96337,0
7580,-0.638935,0.684641,1.96422,0
7600,-0.640455,0.686092,1.96452,0
7620,-0.640499,0.686807,1.96505,0
7640,-0.640578,0.686944,1.9651,0
7660,-0.639999,0.687309,1.96504,0
7680,-0.637932,0.687078,1.96462,0
7700,-0.634686,0.685727,1.96374,0
7720,-0.632253,0.684156,1.96211,0
7740,-0.630383,0.681977,1.96095,0
7760,-0.627435,0.679053,1.96041,0
7780,-0.626094,0.676134,1.96037,0
7800,-0.625414,0.673692,1.96028,0
7820,-0.624923,0.671903,1.96028,0
7840,-0.624427,0.671122,1.96037,0
7860,-0.624079,0.671192,1.96059,0
7880,-0.623563,0.671338,1.96087,0
7900,-0.622949,0.671034,1.9613,0
7920,-0.621585,0.670513,1.96179,0
7940,-0.620131,0.670203,1.96238,0
7960,-0.618512,0.670137,1.96273,0
7980,-0.617015,0.669902,1.96357,0
8000,-0.615685,0.669651,1.96395,0
8020,-0.613972,0.669135,1.96446,0
8040,-0.612224,0.668455,1.96458,0
8060,-0.609755,0.667707,1.96485,0
8080,-0.607134,0.667588,1.96562,0
8100,-0.605325,0.667692,1.96658,0
8120,-0.604756,0.668147,1.96775,0
8140,-0.605023,0.668607,1.96877,0
8160,-0.605825,0.669069,1.96961,0
8180,-0.606185,0.669323,1.97053,0
8200,-0.605583,0.669141,1.97076,0
8220,-0.604581,0.668549,1.97102,0
8240,-0.603442,0.666983,1.97134,0
8260,-0.602579,0.664918,1.97188,0
8280,-0.603017,0.66345,1.97218,0
8300,-0.605323,0.662552,1.97173,0
8320,-0.608033,0.662299,1.97117,0
8340,-0.610916,0.662391,1.96986,0
8360,-0.612827,0.662455,1.9682,0
8380,-0.614471,0.662661,1.96722,0
8400,-0.613874,0.663445,1.96824,0
8420,-0.613003,0.664432,1.96952,0
8440,-0.613301,0.664972,1.9697,0
8460,-0.6136,0.665807,1.96938,0
8480,-0.613547,0.665817,1.96943,0
8500,-0.613277,0.665655,1.96926,0
8520,-0.612775,0.665024,1.96875,0
8540,-0.611564,0.665171,1.96833,0
8560,-0.610979,0.664816,1.96812,0
8580,-0.610965,0.664626,1.96812,0
8600,-0.610852,0.664691,1.96813,0
8620,-0.610852,0.664691,1.96813,0
8640,-0.610852,0.664691,1.96813,0
8660,-0.610852,0.664691,1.96813,0
8680,-0.610738,0.664756,1.96813,0
8700,-0.610685,0.664766,1.96818,0
8720,-0.611548,0.665151,1.96803,0
8740,-0.612248,0.665442,1.96823,0
8760,-0.612559,0.666172,1.96841,0
8780,-0.612415,0.666027,1.96812,0
8800,-0.611961,0.665262,1.96776,0
8820,-0.611221,0.664402,1.96756,0
8840,-0.610195,0.664031,1.96817,0
8860,-0.609464,0.663904,1.96945,0
8880,-0.60966,0.663939,1.97092,0
8900,-0.610119,0.664475,1.97198,0
8920,-0.610585,0.664771,1.9724,0
8940,-0.611009,0.664669,1.97251,0
8960,-0.611768,0.664711,1.97202,0
8980,-0.612429,0.664533,1.97099,0
9000,-0.612525,0.664251,1.96995,0
9020,-0.612143,0.663316,1.96879,0
9040,-0.612143,0.662647,1.96751,0
9060,-0.612289,0.661955,1.96681,0
9080,-0.613465,0.661767,1.96664,0
9100,-0.615131,0.66202,1.96698,0
9120,-0.617212,0.66229,1.96828,0
9140,-0.621279,0.664094,1.97026,0
9160,-0.628451,0.666417,1.97258,0
9180,-0.635287,0.668598,1.97494,0
9200,-0.64164,0.670965,1.97761,0
9220,-0.648705,0.673116,1.97861,0
9240,-0.65475,0.675957,1.97829,0
9260,-0.660994,0.678632,1.97782,0
9280,-0.66721,0.680317,1.97733,0
9300,-0.671864,0.681786,1.97655,0
9320,-0.67269,0.682802,1.97578,0
9340,-0.671266,0.683748,1.975,0
9360,-0.668793,0.684717,1.97411,0
9380,-0.66514,0.684478,1.97356,0
9400,-0.659987,0.683468,1.97295,0
9420,-0.654181,0.681987,1.9724,0
9440,-0.648657,0.679653,1.97166,0
9460,-0.644053,0.677277,1.97052,0
9480,-0.641093,0.675186,1.9695,0
9500,-0.64061,0.672712,1.96997,0
9520,-0.642988,0.671462,1.97127,0
9540,-0.646179,0.671449,1.97256,0
9560,-0.648984,0.672293,1.97418,0
9580,-0.650029,0.672644,1.97473,0
9600,-0.650171,0.672313,1.97447,0
9620,-0.649806,0.670921,1.97397,0
9640,-0.647658,0.66843,1.97395,0
9660,-0.645085,0.66645,1.97416,0
9680,-0.643445,0.66545,1.9739,0
9700,-0.641638,0.665226,1.97353,0
9720,-0.640133,0.66543,1.97355,0
9740,-0.640004,0.665305,1.97356,0
9760,-0.640521,0.6657,1.97343,0
9780,-0.641364,0.666416,1.97313,0
9800,-0.642616,0.667428,1.973,0
9820,-0.644201,0.667901,1.97317,0
9840,-0.645206,0.668986,1.9739,0
9860,-0.645403,0.670139,1.97423,0
9880,-0.645155,0.670238,1.97393,0
9900,-0.643627,0.669173,1.97367,0
9920,-0.640831,0.667862,1.97403,0
9940,-0.639675,0.666727,1.975,0
9960,-0.64151,0.666115,1.97613,0
9980,-0.644247,0.666053,1.97721,0
10000,-0.646612,0.666509,1.97815,0
10020,-0.647872,0.666804,1.97936,0
10030,-0.647534,0.666269,1.98069,0
10050,-0.648173,0.666299,1.98223,0
10070,-0.650035,0.666719,1.98301,0
10090,-0.652112,0.66739,1.98276,0
10110,-0.65544,0.668584,1.98216,0
10130,-0.65971,0.669524,1.98112,0
10150,-0.664786,0.669542,1.97952,0
10170,-0.670982,0.670191,1.97794,0
10190,-0.677176,0.671132,1.97629,0
10210,-0.682401,0.670668,1.97556,0
10230,-0.686625,0.67009,1.97487,0
10250,-0.691298,0.669772,1.97285,0
10270,-0.697108,0.670357,1.97031,0
10290,-0.702326,0.671301,1.96812,0
10310,-0.708037,0.671873,1.96539,0
10330,-0.714715,0.671701,1.96156,0
10350,-0.720806,0.670941,1.95868,0
10370,-0.725587,0.670222,1.95578,0
10390,-0.730194,0.668273,1.9519,0
10410,-0.733394,0.666078,1.94773,0
10430,-0.733556,0.6624,1.94387,0
10450,-0.730598,0.658766,1.94101,0
10470,-0.72363,0.655819,1.93963,0
10490,-0.712128,0.653977,1.94038,0
10510,-0.699134,0.653,1.94384,0
10530,-0.688046,0.652429,1.94828,0
10550,-0.682192,0.653087,1.95211,0
10570,-0.682304,0.656293,1.95512,0
10590,-0.686019,0.659812,1.95741,0
10610,-0.693382,0.662524,1.95699,0
10630,-0.699884,0.664722,1.95532,0
10650,-0.701467,0.665957,1.9541,0
10670,-0.69628,0.666253,1.95475,0
10690,-0.686798,0.665057,1.95595,0
10710,-0.677468,0.661977,1.95571,0
10730,-0.672449,0.658222,1.95334,0
10750,-0.671542,0.654685,1.94956,0
10770,-0.674298,0.65167,1.94601,0
10790,-0.680327,0.649293,1.94213,0
10810,-0.686417,0.648481,1.93872,0
10830,-0.690749,0.648571,1.93649,0
10850,-0.693581,0.648866,1.93423,0
10870,-0.69486,0.64872,1.93247,0
10890,-0.695168,0.648664,1.93074,0
10910,-0.694733,0.648613,1.92977,0
10930,-0.694917,0.648929,1.929,0
10950,-0.694299,0.648562,1.92879,0
10970,-0.693751,0.648071,1.928,0
10990,-0.692316,0.6475,1.92788,0
11010,-0.691858,0.647637,1.92808,0
11030,-0.691619,0.648225,1.92873,0
11050,-0.690584,0.649865,1.93085,0
11070,-0.689071,0.652399,1.93437,0
11090,-0.687736,0.655745,1.93811,0
11110,-0.688145,0.658807,1.94105,0
11130,-0.689293,0.661809,1.94303,0
11150,-0.690101,0.664357,1.94434,0
11170,-0.689608,0.6665,1.9469,0
11190,-0.687096,0.667705,1.94982,0
11210,-0.682542,0.667511,1.95248,0
11230,-0.675959,0.665904,1.95518,0
11250,-0.669022,0.664268,1.95759,0
11270,-0.662755,0.662803,1.96017,0
11290,-0.65746,0.661773,1.96361,0
11310,-0.653776,0.661331,1.96701,0
11330,-0.651091,0.660231,1.97095,0
11350,-0.648565,0.658103,1.9748,0
11370,-0.648757,0.656896,1.97763,0
11390,-0.651632,0.657424,1.97983,0
11410,-0.653206,0.656784,1.9806,0
11430,-0.649736,0.654032,1.98008,0
11450,-0.64199,0.650577,1.97962,0
11470,-0.634426,0.646557,1.97859,0
11490,-0.630182,0.642584,1.9769,0
11510,-0.631532,0.64008,1.97429,0
11530,-0.636631,0.640262,1.97217,0
11550,-0.642505,0.641861,1.9707,0
11570,-0.647375,0.643498,1.9691,0
11590,-0.650205,0.644358,1.9669,0
11610,-0.650556,0.644438,1.96491,0
11630,-0.648641,0.644157,1.96368,0
11650,-0.646526,0.64385,1.96337,0
11670,-0.644105,0.643192,1.96333,0
11690,-0.642048,0.642145,1.96368,0
11710,-0.639988,0.640853,1.96444,0
11730,-0.638986,0.639508,1.9657,0
11750,-0.63733,0.637689,1.96744,0
11770,-0.634755,0.636229,1.97013,0
11790,-0.632288,0.635396,1.97266,0
11810,-0.630156,0.634656,1.97467,0
11830,-0.628227,0.634418,1.97632,0
11850,-0.62786,0.635296,1.97764,0
11870,-0.628469,0.636337,1.97913,0
11890,-0.62929,0.637477,1.98096,0
11910,-0.630209,0.639028,1.98272,0
11930,-0.63119,0.640756,1.98444,0
11950,-0.631252,0.642148,1.98625,0
11970,-0.631947,0.643648,1.9876,0
11990,-0.633766,0.64487,1.98801,0
12000,-0.636036,0.645882,1.98832,0
12020,-0.637236,0.646523,1.98822,0
12040,-0.637236,0.646523,1.98822,0
12060,-0.636873,0.647282,1.98827,0
12080,-0.636889,0.648311,1.9882,0
12100,-0.637826,0.648965,1.9879,0
12120,-0.639374,0.648977,1.9867,0
12140,-0.641436,0.649093,1.98483,0
12160,-0.642542,0.647801,1.98237,0
12180,-0.641804,0.647211,1.98121,0
12200,-0.641206,0.646053,1.98021,0
12220,-0.641128,0.645253,1.97919,0
12240,-0.640721,0.646689,1.98026,0
12260,-0.641175,0.646627,1.9807,0
12280,-0.640006,0.645005,1.97998,0
12300,-0.637836,0.642435,1.97877,0
12320,-0.636544,0.640038,1.97709,0
12340,-0.635002,0.63628,1.97749,0
12360,-0.624589,0.630752,1.98309,0
12380,-0.607741,0.618818,1.98784,0
12400,-0.587119,0.599711,1.98663,0
12420,-0.563946,0.573974,1.98379,0
12440,-0.55091,0.54317,1.98558,0
12460,-0.557561,0.500938,1.98498,0
12480,-0.577121,0.45534,1.98651,0
12500,-0.603889,0.408928,1.98719,0
12520,-0.61996,0.350341,1.98661,0
12540,-0.618921,0.281242,1.98776,0
12560,-0.612784,0.210365,1.99094,0
12580,-0.606327,0.136838,1.99497,0
12600,-0.612136,0.0631409,2.00613,0
12620,-0.63061,-0.0131783,2.02286,0
12640,-0.656446,-0.0887956,2.04322,0
12660,-0.679858,-0.163713,2.06829,0
12680,-0.705187,-0.232804,2.09483,0
12700,-0.735604,-0.290836,2.1219,0
12720,-0.768324,-0.338603,2.14819,0
12740,-0.79733,-0.378065,2.17046,0
12760,-0.821841,-0.40978,2.1895,0
12780,-0.839673,-0.431184,2.20292,0
12800,-0.852466,-0.442434,2.21123,0
12820,-0.859552,-0.447208,2.21509,0
12840,-0.862415,-0.44728,2.21468,0
12860,-0.863238,-0.444584,2.21111,0
12880,-0.86361,-0.439082,2.20839,0
12900,-0.861976,-0.432012,2.20546,0
12920,-0.858951,-0.424441,2.20158,0
12940,-0.85686,-0.418194,2.19785,0
12960,-0.854496,-0.413388,2.19468,0
12980,-0.85115,-0.409773,2.1915,0
13000,-0.848272,-0.407227,2.18983,0
13020,-0.84624,-0.407544,2.18841,0
13040,-0.845017,-0.409585,2.18733,0
13060,-0.844553,-0.412039,2.18771,0
13080,-0.845305,-0.413596,2.18895,0
13100,-0.8463,-0.414551,2.18987,0
13120,-0.847093,-0.415291,2.19131,0
13140,-0.848302,-0.416555,2.19276,0
13160,-0.849879,-0.416568,2.19331,0
13180,-0.850593,-0.415771,2.19346,0
13200,-0.85035,-0.414788,2.19247,0
13220,-0.850566,-0.413594,2.19135,0
13240,-0.850306,-0.411793,2.18897,0
13260,-0.849433,-0.409542,2.18675,0
13280,-0.84879,-0.407464,2.1847,0
13300,-0.848733,-0.405244,2.18249,0
13320,-0.847747,-0.402885,2.18088,0
13340,-0.846922,-0.401538,2.17882,0
13360,-0.84708,-0.400324,2.1772,0
13380,-0.847164,-0.399118,2.17533,0
13400,-0.848251,-0.397963,2.17434,0
13420,-0.849719,-0.397304,2.17302,0
13440,-0.85193,-0.395824,2.17164,0
13460,-0.854854,-0.393775,2.17039,0
13480,-0.857939,-0.391797,2.16924,0
13500,-0.861442,-0.389958,2.16768,0
13520,-0.866894,-0.385485,2.16584,0
13540,-0.869475,-0.378971,2.16209,0
13560,-0.869909,-0.371649,2.15741,0
13580,-0.870746,-0.363425,2.15213,0
13600,-0.872821,-0.353944,2.14611,0
13620,-0.875643,-0.341626,2.14052,0
13640,-0.875519,-0.329302,2.13463,0
13660,-0.876986,-0.317838,2.13008,0
13680,-0.878112,-0.307439,2.12586,0
13700,-0.879403,-0.295675,2.12087,0
13720,-0.87937,-0.284201,2.11609,0
13740,-0.878777,-0.2742,2.11182,0
13760,-0.879232,-0.265537,2.10734,0
13780,-0.879678,-0.257514,2.10296,0
13800,-0.879772,-0.249385,2.09866,0
13820,-0.878372,-0.242253,2.09436,0
13840,-0.878681,-0.235739,2.09124,0
13860,-0.878799,-0.22985,2.08805,0
13880,-0.878229,-0.225306,2.085,0
13900,-0.877794,-0.221843,2.08316,0
13920,-0.877639,-0.219193,2.08135,0
13940,-0.87774,-0.217081,2.07994,0
13960,-0.878307,-0.215526,2.07893,0
13980,-0.879263,-0.214769,2.07856,0
14000,-0.879794,-0.213725,2.07886,0
14020,-0.879508,-0.212388,2.07812,0
14040,-0.878848,-0.211556,2.07805,0
14060,-0.87878,-0.212217,2.07816,0
14080,-0.878497,-0.213489,2.07864,0
14100,-0.877665,-0.213726,2.07983,0
14120,-0.876833,-0.213765,2.08085,0
14140,-0.877195,-0.213792,2.08241,1000
14160,-0.877022,-0.213935,2.08402,0
14180,-0.875738,-0.214477,2.08583,0
14200,-0.874487,-0.215682,2.0873,0
14220,-0.874164,-0.217131,2.08821,0
14240,-0.874059,-0.21823,2.08923,0
14260,-0.872074,-0.219195,2.09033,0
14280,-0.870519,-0.221579,2.09094,0
14300,-0.87139,-0.224746,2.09169,0
14320,-0.872129,-0.22667,2.09305,0
14340,-0.870768,-0.228394,2.09453,0
14360,-0.870402,-0.230461,2.09561,0
14380,-0.871255,-0.232264,2.09675,0
14400,-0.871544,-0.234352,2.09803,0
14420,-0.871796,-0.236255,2.099,0
14440,-0.872127,-0.237438,2.09919,0
14460,-0.873098,-0.238057,2.09914,0
14480,-0.873665,-0.238596,2.09875,0
14500,-0.873936,-0.238826,2.09835,0
14520,-0.874016,-0.238982,2.09846,0
14540,-0.87433,-0.238495,2.09799,0
14560,-0.87473,-0.237846,2.09767,0
14580,-0.875364,-0.237602,2.09739,0
14600,-0.875675,-0.237645,2.0974,0
14620,-0.875238,-0.236916,2.09655,0
14640,-0.875485,-0.235808,2.09578,0
14660,-0.87587,-0.235426,2.09547,0
14680,-0.876002,-0.235595,2.09499,0
14700,-0.875452,-0.235108,2.09414,0
14720,-0.875686,-0.234638,2.09329,0
14740,-0.87592,-0.235057,2.09248,0
14760,-0.87571,-0.235939,2.09167,0
14780,-0.874764,-0.236827,2.09063,0
14800,-0.873925,-0.237421,2.08962,0
14820,-0.873235,-0.238128,2.08865,0
14840,-0.872304,-0.238895,2.08783,0
14860,-0.8711,-0.239589,2.08679,0
14880,-0.869719,-0.239729,2.08575,0
14900,-0.867596,-0.239449,2.0846,0
14920,-0.866153,-0.238806,2.08387,0
14940,-0.86464,-0.238204,2.08322,0
14960,-0.862886,-0.237662,2.08272,0
14980,-0.861105,-0.2372,2.08238,0
15000,-0.859577,-0.236708,2.08235,0
15020,-0.857971,-0.236798,2.08203,0
15040,-0.856048,-0.237007,2.08227,0
15060,-0.853821,-0.237742,2.08259,0
15080,-0.851967,-0.238212,2.08237,0
15100,-0.851684,-0.237732,2.08264,0
15120,-0.851285,-0.237493,2.08291,0
15140,-0.850277,-0.237586,2.08304,0
15160,-0.848973,-0.236947,2.0833,0
15180,-0.847848,-0.236342,2.08344,0
15200,-0.846983,-0.235912,2.08323,0
15220,-0.845507,-0.235595,2.08318,0
15240,-0.844622,-0.235868,2.08401,0
15260,-0.844016,-0.236401,2.08488,0
15280,-0.84318,-0.237419,2.08575,0
15300,-0.842674,-0.238936,2.08695,0
15320,-0.842205,-0.240944,2.08806,0
15340,-0.842093,-0.242648,2.08903,0
15360,-0.84204,-0.244424,2.08969,0
15380,-0.841369,-0.245894,2.08983,0
15390,-0.840618,-0.247224,2.0902,0
15410,-0.840572,-0.248615,2.09062,0
15430,-0.840433,-0.249812,2.09048,0
15450,-0.840926,-0.25098,2.09058,0
15470,-0.840602,-0.251573,2.09048,0
15490,-0.841271,-0.252404,2.09055,0
15510,-0.84284,-0.253429,2.09045,0
15530,-0.843443,-0.254505,2.08993,0
15550,-0.843454,-0.25491,2.08945,0
15570,-0.842714,-0.254863,2.08926,0
15590,-0.84291,-0.255501,2.08883,0
15610,-0.843274,-0.256121,2.08833,0
15630,-0.842941,-0.256512,2.08805,0
15650,-0.841542,-0.257096,2.08791,0
15670,-0.841085,-0.257847,2.08825,0
15690,-0.841219,-0.258548,2.08908,0
15710,-0.841706,-0.259113,2.09034,0
15730,-0.841772,-0.259675,2.09226,0
15750,-0.841454,-0.260425,2.09431,0
15770,-0.841111,-0.261729,2.09671,0
15790,-0.841578,-0.262782,2.09996,0
15810,-0.840762,-0.264135,2.10311,0
15830,-0.839031,-0.266059,2.10611,0
15850,-0.837678,-0.268374,2.10967,0
15870,-0.836465,-0.271313,2.11368,0
15890,-0.83449,-0.274845,2.11768,0
15910,-0.832195,-0.278651,2.12189,0
15930,-0.829873,-0.282541,2.12654,0
15950,-0.828892,-0.28644,2.13066,0
15970,-0.829021,-0.29038,2.13479,0
15990,-0.829291,-0.294368,2.13929,0
16010,-0.828457,-0.29894,2.14425,0
16030,-0.827406,-0.303495,2.14835,0
16050,-0.827615,-0.307875,2.15256,0
16070,-0.828682,-0.311959,2.15628,0
16090,-0.828918,-0.315834,2.15936,0
16110,-0.828409,-0.320051,2.16241,0
16130,-0.828339,-0.324656,2.16607,0
16150,-0.828715,-0.329313,2.16978,0
16170,-0.829051,-0.33383,2.17312,0
16190,-0.828332,-0.338744,2.17596,0
16190,-0.828338,-0.344445,2.1795,0
16210,-0.829176,-0.348928,2.18367,0
16230,-0.829343,-0.353452,2.18681,0
16250,-0.82885,-0.358806,2.18925,0
16270,-0.828123,-0.364746,2.19142,0
16290,-0.828203,-0.369955,2.19387,0
16310,-0.828015,-0.375213,2.19599,0
16330,-0.827577,-0.381443,2.19761,0
16350,-0.827993,-0.388294,2.19923,0
16370,-0.829152,-0.394533,2.20169,0
16390,-0.830403,-0.400694,2.20386,0
16410,-0.831531,-0.4072,2.20549,0
16430,-0.833235,-0.414333,2.20656,0
16450,-0.835152,-0.421011,2.20758,0
16470,-0.836385,-0.427864,2.20838,0
16490,-0.837495,-0.43468,2.20884,0
16510,-0.838863,-0.442122,2.20843,0
16530,-0.841046,-0.449969,2.20815,0
16550,-0.843239,-0.457009,2.20796,0
16570,-0.845708,-0.463798,2.20718,0
16590,-0.847914,-0.470945,2.20582,0
16610,-0.850209,-0.479108,2.20434,0
16630,-0.85245,-0.486939,2.20229,0
16650,-0.854838,-0.494486,2.20017,0
16670,-0.856917,-0.502048,2.19776,0
16690,-0.859038,-0.510312,2.19447,0
16710,-0.861292,-0.518153,2.19072,0
16730,-0.862426,-0.525801,2.18614,0
16750,-0.863803,-0.533705,2.18122,0
16770,-0.86597,-0.54164,2.17603,0
16790,-0.868603,-0.549684,2.17072,0
16810,-0.870767,-0.557279,2.1648,0
16830,-0.872372,-0.564831,2.15833,0
16850,-0.874314,-0.572703,2.15168,0
16870,-0.876281,-0.580931,2.14435,0
16890,-0.878537,-0.588391,2.13664,0
16910,-0.880471,-0.594929,2.1282,0
16930,-0.88209,-0.601302,2.11925,0
16950,-0.883233,-0.60799,2.11037,0
16970,-0.883909,-0.614748,2.10063,0
16990,-0.884506,-0.621425,2.08989,0
17010,-0.885076,-0.628144,2.07848,0
17030,-0.885044,-0.634594,2.06628,0
17050,-0.884541,-0.640978,2.05331,0
17070,-0.882814,-0.647375,2.03852,0
17090,-0.881073,-0.653262,2.02284,0
17110,-0.879063,-0.658817,2.00666,0
17130,-0.876635,-0.6637,1.99082,0
17150,-0.873587,-0.669061,1.97509,0
17170,-0.870851,-0.675119,1.95934,0
17190,-0.868218,-0.68068,1.9433,0
17210,-0.865919,-0.686233,1.92777,0
17220,-0.863109,-0.690538,1.91272,0
17250,-0.860176,-0.69464,1.89779,0
17270,-0.857489,-0.698732,1.88328,0
17290,-0.854029,-0.703556,1.86876,0
17310,-0.850763,-0.707513,1.8547,0
17330,-0.847188,-0.710835,1.84034,0
17340,-0.842939,-0.713714,1.82525,0
17360,-0.837419,-0.716925,1.80917,0
17380,-0.832663,-0.720083,1.79339,0
17400,-0.82722,-0.722326,1.77675,0
17420,-0.820468,-0.723343,1.75956,0
17440,-0.813192,-0.724456,1.74142,0
17460,-0.806309,-0.725169,1.72297,0
17480,-0.798613,-0.724649,1.704,0
17500,-0.789974,-0.723207,1.68421,0
17520,-0.781279,-0.720622,1.66359,0
17540,-0.772681,-0.717811,1.64272,0
17560,-0.764573,-0.713798,1.62197,0
17580,-0.756924,-0.709274,1.60224,0
17600,-0.7493,-0.704172,1.58287,0
17620,-0.741504,-0.698455,1.56355,0
17640,-0.734604,-0.692004,1.54424,0
17660,-0.72868,-0.684523,1.52552,0
17680,-0.72254,-0.676074,1.50633,0
17700,-0.715942,-0.66692,1.48757,0
17720,-0.709162,-0.657667,1.46925,0
17740,-0.70329,-0.648419,1.45266,0
17760,-0.698846,-0.638268,1.43724,0
17780,-0.69516,-0.628809,1.42347,0
17800,-0.690128,-0.620659,1.41028,0
17820,-0.68485,-0.612477,1.39839,0
17840,-0.686087,-0.600578,1.38863,0
17860,-0.683892,-0.588877,1.37778,0
17880,-0.679137,-0.57842,1.37088,0
17900,-0.673543,-0.570668,1.36588,0
17920,-0.668686,-0.562358,1.36121,0
17940,-0.664145,-0.554587,1.35757,0
17960,-0.656984,-0.548288,1.35211,0
17980,-0.650509,-0.543248,1.34456,0
18000,-0.649645,-0.536572,1.33798,0
18020,-0.652039,-0.527458,1.33115,0
18040,-0.649917,-0.517664,1.32257,0
18060,-0.64497,-0.509084,1.31566,0
18080,-0.643695,-0.49913,1.31039,0
18100,-0.6453,-0.48702,1.30704,0
18120,-0.642557,-0.475621,1.30283,0
18140,-0.637649,-0.466857,1.29912,0
18160,-0.637575,-0.457834,1.29742,0
18180,-0.641679,-0.446166,1.29669,0
18200,-0.643353,-0.433692,1.2962,0
18220,-0.641873,-0.423987,1.29661,0
18240,-0.642543,-0.415126,1.2987,0
18260,-0.648538,-0.403196,1.30202,0
18280,-0.652742,-0.389734,1.30433,0
18300,-0.650845,-0.378296,1.30734,0
18320,-0.647477,-0.371446,1.31331,0
18340,-0.646106,-0.364675,1.31832,0
18360,-0.650504,-0.353153,1.32284,0
18380,-0.653005,-0.338891,1.32694,0
18400,-0.65292,-0.327591,1.33374,0
18420,-0.652311,-0.318853,1.34249,0
18440,-0.654331,-0.309166,1.34909,0
18460,-0.656171,-0.297621,1.35515,0
18480,-0.657023,-0.288043,1.36365,0
18500,-0.653878,-0.280485,1.37136,0
18520,-0.651491,-0.274567,1.37818,0
18540,-0.649112,-0.268927,1.38568,0
18560,-0.645585,-0.263621,1.39469,0
18580,-0.642986,-0.258425,1.40338,0
18600,-0.641759,-0.253937,1.41214,0
18620,-0.640545,-0.249098,1.4213,0
18640,-0.639679,-0.243612,1.43121,0
18660,-0.638327,-0.237706,1.44098,0
18680,-0.638764,-0.232897,1.45081,0
18700,-0.639389,-0.228094,1.46112,0
18720,-0.639518,-0.22201,1.47109,0
18740,-0.638391,-0.215691,1.48069,0
18760,-0.638102,-0.209858,1.49007,0
18780,-0.63781,-0.204892,1.49968,0
18800,-0.63818,-0.199602,1.5088,0
18820,-0.637431,-0.194197,1.51715,0
18840,-0.636637,-0.188701,1.52618,0
18860,-0.638411,-0.183817,1.53549,0
18880,-0.640426,-0.179537,1.54297,0
18900,-0.641411,-0.174382,1.55106,0
18920,-0.643032,-0.170005,1.55964,0
18940,-0.643924,-0.166751,1.56681,0
18960,-0.644469,-0.163703,1.57345,0
18980,-0.644336,-0.161873,1.5812,0
19000,-0.643953,-0.161251,1.58884,0
19020,-0.644504,-0.160909,1.59578,0
19040,-0.645005,-0.160498,1.60284,0
19060,-0.645646,-0.159338,1.60988,0
19080,-0.648606,-0.158843,1.6178,0
19100,-0.651748,-0.158756,1.62547,0
19120,-0.654323,-0.158597,1.63313,0
19140,-0.656759,-0.157536,1.64145,0
19160,-0.659857,-0.157389,1.64939,0
19180,-0.663843,-0.157812,1.65743,0
19200,-0.667288,-0.157922,1.66574,0
19220,-0.670545,-0.15807,1.67384,0
19240,-0.673233,-0.158733,1.68191,0
19260,-0.676045,-0.158903,1.6897,0
19280,-0.679008,-0.15859,1.69762,0
19300,-0.682404,-0.159173,1.70594,0
19320,-0.68685,-0.159647,1.71458,0
19340,-0.690827,-0.158744,1.72342,0
19360,-0.694941,-0.159116,1.73219,0
19380,-0.697273,-0.159451,1.7405,0
19400,-0.70061,-0.159378,1.74898,0
19420,-0.704184,-0.159839,1.7581,0
19440,-0.706586,-0.161531,1.76819,0
19460,-0.70935,-0.162986,1.77746,0
19480,-0.71399,-0.16362,1.78678,0
19500,-0.719879,-0.164547,1.79654,0
19520,-0.724191,-0.165447,1.80621,0
19540,-0.729122,-0.166188,1.81617,0
19560,-0.734422,-0.167372,1.82601,0
19580,-0.73962,-0.16846,1.83569,0
19600,-0.744509,-0.16946,1.84562,0
19620,-0.748993,-0.171517,1.85565,0
19640,-0.753766,-0.174125,1.86543,0
19660,-0.759199,-0.176259,1.87546,0
19680,-0.764048,-0.17943,1.88556,0
19700,-0.767595,-0.183839,1.89555,0
19720,-0.771936,-0.188815,1.90577,0
19740,-0.776294,-0.193617,1.91585,0
19760,-0.780403,-0.19916,1.92685,0
19780,-0.782587,-0.206342,1.93825,0
19800,-0.785179,-0.215276,1.94899,0
19820,-0.789064,-0.224189,1.95984,0
19840,-0.794724,-0.233064,1.97218,0
19860,-0.798195,-0.242871,1.98397,0
19880,-0.800258,-0.252799,1.99493,0
19900,-0.804108,-0.263101,2.00587,0
19920,-0.807891,-0.27359,2.01603,0
19940,-0.811187,-0.284029,2.02675,0
19960,-0.813286,-0.294783,2.03745,0
19980,-0.81574,-0.305615,2.0484,0
20000,-0.819826,-0.315634,2.05821,0
20020,-0.82386,-0.325585,2.06771,0
20040,-0.827287,-0.335052,2.07788,0
20060,-0.831309,-0.344851,2.08824,0
20080,-0.83501,-0.353913,2.09685,0
20100,-0.839106,-0.361573,2.10476,0
20120,-0.842187,-0.369839,2.11313,0
20140,-0.845837,-0.378215,2.121,0
20160,-0.847922,-0.385523,2.12733,0
20180,-0.849901,-0.392154,2.13389,0
20200,-0.851941,-0.399424,2.14062,0
20220,-0.851891,-0.408294,2.14551,0
20240,-0.850545,-0.417144,2.15021,0
20260,-0.850695,-0.426722,2.15369,0
20280,-0.850652,-0.437738,2.15598,0
20300,-0.8497,-0.4484,2.15681,0
20320,-0.847212,-0.460999,2.15716,0
20340,-0.846098,-0.475477,2.157,0
20360,-0.845884,-0.489462,2.15386,0
20380,-0.845338,-0.503559,2.1495,0
20400,-0.843847,-0.519229,2.14518,0
20420,-0.843893,-0.537066,2.14058,0
20440,-0.845038,-0.553617,2.13441,0
20460,-0.844941,-0.571072,2.12702,0
20480,-0.845687,-0.588203,2.11904,0
20500,-0.845716,-0.605975,2.11031,0
20520,-0.847534,-0.621533,2.10147,0
20540,-0.848063,-0.635646,2.09166,0
20560,-0.846979,-0.650055,2.0801,0
20580,-0.845814,-0.663574,2.06801,0
20600,-0.844528,-0.675832,2.05537,0
20620,-0.843942,-0.686791,2.04166,0
20640,-0.841563,-0.697761,2.02612,0
20660,-0.837714,-0.710178,2.01031,0
20680,-0.833568,-0.723797,1.99401,0
20700,-0.828799,-0.737568,1.97633,0
20720,-0.824207,-0.751076,1.95741,0
20730,-0.818986,-0.765416,1.93751,0
20750,-0.811471,-0.780188,1.91642,0
20770,-0.802362,-0.795017,1.89404,0
20790,-0.793432,-0.809137,1.86982,0
20810,-0.783645,-0.82138,1.84368,0
20830,-0.773365,-0.831676,1.81681,0
20850,-0.760841,-0.841104,1.78849,0
20870,-0.747353,-0.849954,1.75979,0
20890,-0.733225,-0.8575,1.73012,0
20910,-0.718234,-0.863795,1.70039,0
20930,-0.701921,-0.868217,1.66927,0
20950,-0.685498,-0.871468,1.63845,0
20970,-0.668485,-0.874393,1.60725,0
20990,-0.650248,-0.877121,1.57588,0
21010,-0.633496,-0.877258,1.54498,0
21030,-0.617779,-0.873737,1.51394,0
21050,-0.601505,-0.86911,1.48493,0
21070,-0.585105,-0.864891,1.45901,0
21090,-0.568309,-0.860579,1.43463,0
21110,-0.552775,-0.854456,1.41443,0
21130,-0.538472,-0.848699,1.39709,0
21150,-0.525267,-0.844705,1.37991,0
21170,-0.512385,-0.840166,1.36345,0
21190,-0.502721,-0.833162,1.34609,0
21210,-0.49392,-0.824078,1.32737,0
21230,-0.489928,-0.812437,1.31345,0
21250,-0.482923,-0.80161,1.30115,0
21260,-0.473271,-0.791943,1.28925,0
21280,-0.465658,-0.782079,1.27779,0
21300,-0.46482,-0.76992,1.26996,0
21320,-0.465722,-0.756627,1.26555,0
21340,-0.465846,-0.742918,1.26326,0
21360,-0.465913,-0.728214,1.2627,0
21400,-0.474565,-0.697379,1.2679,0
21420,-0.480619,-0.680161,1.27116,0
21440,-0.484808,-0.662403,1.27558,0
21460,-0.491185,-0.645968,1.28265,0
21480,-0.503889,-0.627458,1.29169,0
21500,-0.514482,-0.609632,1.29982,0
21520,-0.519181,-0.592625,1.3094,0
21540,-0.520503,-0.578321,1.31979,0
21560,-0.529677,-0.562481,1.32962,0
21580,-0.542264,-0.544166,1.33975,0
21600,-0.549305,-0.525519,1.35108,0
21620,-0.552777,-0.51044,1.36328,0
21640,-0.561622,-0.495358,1.37421,0
21660,-0.572654,-0.477739,1.38531,0
21680,-0.581483,-0.460173,1.39836,0
21700,-0.585832,-0.445215,1.41166,0
21720,-0.591349,-0.430611,1.42362,0
21740,-0.600833,-0.413871,1.43566,0
21760,-0.608198,-0.396734,1.44929,0
21780,-0.613723,-0.382174,1.46389,0
21800,-0.620067,-0.370636,1.47758,0
21820,-0.627157,-0.358207,1.49045,0
21840,-0.634211,-0.346524,1.50545,0
21860,-0.642006,-0.337533,1.52135,0
21880,-0.650402,-0.329851,1.53725,0
21900,-0.656861,-0.321796,1.55377,0
21920,-0.662599,-0.314344,1.57077,0
21940,-0.669024,-0.309105,1.5893,0
21960,-0.678212,-0.304185,1.60902,0
21980,-0.688318,-0.298262,1.62878,0
22000,-0.697379,-0.292864,1.64942,0
22020,-0.706861,-0.289285,1.67169,0
22040,-0.718393,-0.287811,1.69451,0
22060,-0.731765,-0.285083,1.71668,0
22080,-0.746507,-0.282411,1.73924,0
22100,-0.759325,-0.281642,1.76307,0
22120,-0.771798,-0.28291,1.7871,0
22140,-0.785338,-0.285722,1.81035,0
22160,-0.800529,-0.289468,1.8336,0
22180,-0.818267,-0.294855,1.85884,0
22200,-0.837864,-0.301776,1.88577,0
22220,-0.856459,-0.31094,1.91186,0
22240,-0.875305,-0.321417,1.93738,0
22260,-0.895537,-0.333119,1.96474,0
22280,-0.917383,-0.347505,1.99334,0
22300,-0.935561,-0.363338,2.01949,0
22320,-0.951289,-0.379185,2.04261,0
22340,-0.963974,-0.394726,2.06696,0
22360,-0.980756,-0.414185,2.09308,0
22380,-0.993582,-0.435526,2.11498,0
22400,-1.00366,-0.455744,2.13365,0
22420,-1.01181,-0.476885,2.15085,0
22440,-1.02088,-0.500035,2.16558,0
22460,-1.02872,-0.524318,2.17733,0
22480,-1.03487,-0.549783,2.18651,0
22500,-1.04084,-0.576427,2.19339,0
22520,-1.04523,-0.603817,2.19517,0
22540,-1.0485,-0.630427,2.19212,0
22560,-1.05275,-0.656096,2.18801,0
22580,-1.05717,-0.681565,2.18178,0
22600,-1.05826,-0.706763,2.17009,0
22620,-1.05788,-0.731489,2.15502,0
22640,-1.05586,-0.754984,2.13747,0
22660,-1.05247,-0.778126,2.11709,0
22680,-1.04703,-0.801503,2.09321,0
22690,-1.03808,-0.825035,2.06435,0
22710,-1.02767,-0.846404,2.03424,0
22730,-1.01453,-0.866032,2.00188,0
22750,-0.993694,-0.885503,1.96583,0
22770,-0.972117,-0.904164,1.92886,0
22790,-0.949508,-0.920696,1.88909,0
22810,-0.925297,-0.934354,1.84884,0
22830,-0.897946,-0.946385,1.80711,0
22850,-0.871134,-0.957555,1.76506,0
22870,-0.846536,-0.966578,1.72421,0
22890,-0.825216,-0.971462,1.68375,0
22910,-0.801939,-0.97332,1.64387,0
22930,-0.777509,-0.973304,1.60618,0
22950,-0.750317,-0.973102,1.56878,0
22970,-0.728277,-0.969935,1.53456,0
22990,-0.708264,-0.963952,1.50297,0
23010,-0.686782,-0.955305,1.47195,0
23030,-0.664568,-0.94577,1.4438,0
23050,-0.648638,-0.934069,1.42064,0
23070,-0.631372,-0.920549,1.39889,0
23090,-0.612589,-0.905249,1.37856,0
23110,-0.599153,-0.888658,1.36175,0
23130,-0.591651,-0.869304,1.34734,0
23150,-0.585304,-0.847744,1.33618,0
23170,-0.575721,-0.825301,1.32643,0
23190,-0.571587,-0.801145,1.31795,0
23210,-0.577776,-0.775605,1.31132,0
23230,-0.582876,-0.748407,1.30807,0
23250,-0.58565,-0.722131,1.30741,0
23270,-0.58285,-0.698519,1.30576,0
23290,-0.586771,-0.675154,1.30477,0
23310,-0.595158,-0.651951,1.30539,0
23330,-0.60239,-0.627943,1.30894,0
23350,-0.60752,-0.605326,1.31185,0
23370,-0.613755,-0.583163,1.31688,0
23390,-0.622052,-0.562022,1.32479,0
23410,-0.628672,-0.540852,1.33345,0
23430,-0.636532,-0.520497,1.34242,0
23450,-0.645435,-0.5033,1.35322,0
23470,-0.654942,-0.487166,1.36458,0
23490,-0.668008,-0.470245,1.37735,0
23510,-0.682738,-0.454951,1.39181,0
23530,-0.697293,-0.442432,1.40689,0
23550,-0.710332,-0.431759,1.42278,0
23570,-0.722086,-0.422706,1.43999,0
23590,-0.734809,-0.415205,1.45818,0
23610,-0.750092,-0.409607,1.47794,0
23630,-0.766954,-0.403787,1.49915,0
23650,-0.784726,-0.398302,1.52175,0
23670,-0.802271,-0.393965,1.5452,0
23690,-0.822275,-0.38937,1.56897,0
23710,-0.842274,-0.384829,1.59341,0
23730,-0.859807,-0.381696,1.61839,0
23750,-0.878267,-0.378729,1.64496,0
23770,-0.900999,-0.377622,1.67329,0
23790,-0.92523,-0.379239,1.70304,0
23810,-0.948377,-0.383529,1.73412,0
23830,-0.971743,-0.390406,1.76513,0
23850,-0.997398,-0.400194,1.79627,0
23870,-1.02467,-0.412007,1.829,0
23890,-1.04936,-0.427036,1.86228,0
23910,-1.06992,-0.445233,1.89456,0
23930,-1.08866,-0.464663,1.92429,0
23950,-1.10759,-0.483595,1.952,0
23970,-1.12575,-0.502216,1.97871,0
23990,-1.14121,-0.521832,2.00401,0
24010,-1.15193,-0.542237,2.02726,0
24030,-1.15972,-0.562148,2.04848,0
24050,-1.17205,-0.58183,2.06803,0
24070,-1.18434,-0.602175,2.08486,0
24090,-1.19268,-0.62361,2.09959,0
24110,-1.20002,-0.645576,2.1145,0
24130,-1.20703,-0.66741,2.12802,0
24150,-1.21364,-0.688692,2.13834,0
24170,-1.21914,-0.709757,2.14733,0
24190,-1.22424,-0.729165,2.15492,0
24210,-1.22815,-0.747662,2.16119,0
24230,-1.22951,-0.764615,2.16608,0
24250,-1.22734,-0.780954,2.17054,0
24270,-1.22592,-0.796734,2.17615,0
24290,-1.22506,-0.812727,2.18142,0
24310,-1.22456,-0.827274,2.18589,0
24330,-1.226,-0.841159,2.1923,0
24350,-1.22521,-0.855754,2.20012,0
24370,-1.22553,-0.871273,2.20674,1001
24390,-1.22713,-0.88521,2.21345,0
24410,-1.23434,-0.895583,2.2215,0
24430,-1.23929,-0.90406,2.22727,0
24450,-1.24252,-0.910225,2.23276,0
24470,-1.24599,-0.916681,2.23816,0
24490,-1.25148,-0.921242,2.24384,0
24510,-1.2575,-0.921659,2.24613,0
24530,-1.2605,-0.922142,2.24839,0
24550,-1.26292,-0.924202,2.25195,0
24570,-1.26487,-0.927227,2.25615,0
24590,-1.26529,-0.929108,2.2585,0
24610,-1.26553,-0.929935,2.26037,0
24630,-1.26645,-0.929529,2.26025,0
24650,-1.26469,-0.928832,2.25754,0
24670,-1.26211,-0.92702,2.25707,0
24690,-1.25808,-0.926415,2.25801,0
24710,-1.25596,-0.92587,2.25952,0
24730,-1.25699,-0.9216,2.26208,0
24750,-1.25564,-0.916047,2.26166,0
24770,-1.25288,-0.909682,2.2586,0
24790,-1.2506,-0.900406,2.25027,0
24810,-1.24753,-0.888264,2.24258,0
24830,-1.23839,-0.870941,2.23308,0
24850,-1.22688,-0.851743,2.22264,0
24870,-1.21247,-0.828148,2.20802,0
24890,-1.19943,-0.799776,2.19149,0
24910,-1.19329,-0.770182,2.18314,0
24930,-1.18063,-0.741998,2.17087,0
24950,-1.16169,-0.70864,2.15661,0
24970,-1.15033,-0.674476,2.15282,0
24990,-1.13304,-0.640766,2.14717,0
25010,-1.106,-0.606894,2.13855,0
25030,-1.07735,-0.569779,2.13273,0
25050,-1.05576,-0.527298,2.12642,0
25070,-1.03836,-0.492356,2.11889,0
25090,-1.01532,-0.459034,2.11064,0
25110,-0.996337,-0.426798,2.10804,0
25130,-0.984432,-0.401165,2.10145,0
25150,-0.97591,-0.377843,2.09475,0
25170,-0.974851,-0.353945,2.09684,0
25190,-0.97485,-0.333025,2.10362,0
25210,-0.96966,-0.317173,2.1096,0
25230,-0.967681,-0.305145,2.11655,0
25250,-0.967812,-0.294509,2.1223,0
25270,-0.967179,-0.282909,2.1263,0
25290,-0.96554,-0.273224,2.12971,0
25310,-0.96133,-0.266076,2.1308,0
25330,-0.956288,-0.258597,2.13033,0
25350,-0.952546,-0.250158,2.12991,0
25370,-0.948952,-0.242719,2.13016,0
25390,-0.944248,-0.237084,2.12948,0
25410,-0.939614,-0.232246,2.12798,0
25430,-0.935447,-0.228216,2.12637,0
25450,-0.93121,-0.225487,2.12426,0
25470,-0.927386,-0.223232,2.12312,0
25490,-0.924847,-0.221791,2.12243,0
25510,-0.925228,-0.219723,2.12074,0
25530,-0.920486,-0.218719,2.11935,0
25550,-0.917678,-0.218704,2.1233,0
25570,-0.913902,-0.222016,2.12718,0
25590,-0.910084,-0.227966,2.13165,0
25610,-0.908444,-0.235076,2.13714,1000
25630,-0.907837,-0.24136,2.14173,0
25650,-0.90509,-0.247986,2.14551,0
25670,-0.904222,-0.256103,2.14904,0
25690,-0.904773,-0.263489,2.15163,0
25710,-0.901626,-0.269437,2.15302,0
25730,-0.902025,-0.276407,2.15613,0
25750,-0.903589,-0.284986,2.15942,0
25770,-0.905643,-0.290932,2.16279,0
25790,-0.907271,-0.293979,2.16555,0
25810,-0.911204,-0.295636,2.16806,0
25830,-0.914967,-0.295564,2.16911,0
25850,-0.916971,-0.293826,2.16932,0
25870,-0.918396,-0.289857,2.16903,0
25890,-0.919227,-0.284958,2.16787,0
25910,-0.918256,-0.281012,2.16611,0
25930,-0.91659,-0.278385,2.16506,0
25950,-0.915834,-0.277197,2.16499,0
25970,-0.914634,-0.276042,2.16506,0
25990,-0.913437,-0.276139,2.16527,0
26010,-0.912605,-0.277108,2.16564,0
26030,-0.912766,-0.277793,2.16533,0
26050,-0.912849,-0.277628,2.16548,0
26070,-0.91385,-0.276858,2.16545,0
26090,-0.913149,-0.276076,2.16504,0
26110,-0.912888,-0.274151,2.16556,0
26120,-0.911041,-0.271969,2.16678,0
26140,-0.910239,-0.269683,2.17045,0
26160,-0.907393,-0.26926,2.17539,0
26180,-0.904403,-0.269956,2.18255,0
26200,-0.90177,-0.271835,2.19074,0
26220,-0.899433,-0.27617,2.19799,0
26240,-0.897231,-0.281461,2.20497,0
26260,-0.894031,-0.287602,2.21099,0
26280,-0.890659,-0.293858,2.21647,0
26300,-0.887318,-0.299935,2.22048,0
26320,-0.884847,-0.306073,2.22358,0
26340,-0.882962,-0.311944,2.22691,0
26360,-0.882072,-0.31737,2.2304,0
26380,-0.881325,-0.322772,2.23524,0
26400,-0.880124,-0.328562,2.24023,0
26420,-0.880651,-0.334921,2.24447,0
26440,-0.882899,-0.339975,2.24882,0
26460,-0.884809,-0.345133,2.25283,0
26480,-0.88544,-0.350449,2.25631,0
26500,-0.886449,-0.355833,2.25926,0
26520,-0.887439,-0.360597,2.262,0
26540,-0.888249,-0.365058,2.26513,0
26560,-0.88893,-0.369792,2.26805,0
26580,-0.889672,-0.375337,2.27094,0
26600,-0.890644,-0.381052,2.2739,0
26620,-0.892386,-0.386091,2.27811,0
26640,-0.893901,-0.391095,2.28193,0
26660,-0.895221,-0.397405,2.28599,0
26680,-0.897282,-0.404586,2.29061,0
26700,-0.899779,-0.411775,2.29462,0
26720,-0.902854,-0.418581,2.29787,0
26740,-0.90621,-0.426104,2.30114,0
26760,-0.910312,-0.4357,2.30397,0
26780,-0.914919,-0.44545,2.30674,0
26800,-0.918614,-0.455608,2.30862,0
26820,-0.921324,-0.466599,2.30878,0
26840,-0.924468,-0.478173,2.30655,0
26860,-0.928106,-0.490161,2.304,0
26880,-0.931909,-0.502045,2.30223,0
26900,-0.936353,-0.514917,2.30004,0
26920,-0.942176,-0.527773,2.29637,0
26940,-0.947536,-0.540367,2.2908,0
26960,-0.951847,-0.551763,2.2843,0
26980,-0.953993,-0.562672,2.27649,0
26990,-0.955386,-0.573578,2.26651,0
27010,-0.956241,-0.5841,2.25434,0
27020,-0.955727,-0.594549,2.2407,0
27040,-0.953844,-0.605153,2.22652,0
27060,-0.951919,-0.615974,2.21153,0
27080,-0.950381,-0.625753,2.1951,0
27100,-0.948677,-0.634675,2.17818,0
27120,-0.94732,-0.642913,2.16305,0
27160,-0.94324,-0.675312,2.09773,0
27180,-0.941174,-0.683944,2.08195,0
27240,-0.92887,-0.708361,2.02987,0
27270,-0.917803,-0.724123,1.99503,0
27290,-0.911691,-0.731306,1.97579,0
27310,-0.904809,-0.737405,1.95628,0
27330,-0.897481,-0.743313,1.93624,0
27350,-0.889408,-0.749486,1.9145,0
27370,-0.880679,-0.755263,1.89101,0
27390,-0.870999,-0.760424,1.8665,0
27410,-0.861411,-0.765123,1.84325,0
27430,-0.85152,-0.76997,1.81921,0
27450,-0.840933,-0.775191,1.79364,0
27470,-0.828904,-0.779293,1.76665,0
27490,-0.816556,-0.781298,1.73964,0
27510,-0.803648,-0.781207,1.71216,0
27530,-0.789098,-0.778642,1.68296,0
27550,-0.773549,-0.774172,1.65338,0
27570,-0.757276,-0.769195,1.62391,0
27590,-0.740735,-0.763239,1.5946,0
27610,-0.724831,-0.756003,1.56547,0
27630,-0.70801,-0.747641,1.53585,0
27650,-0.690531,-0.739276,1.50824,0
27670,-0.673751,-0.73167,1.48202,0
27690,-0.660744,-0.720734,1.45691,0
27710,-0.645701,-0.707548,1.43151,0
27730,-0.631573,-0.694429,1.41044,0
27750,-0.620949,-0.682431,1.39294,0
27770,-0.616269,-0.667795,1.37822,0
27790,-0.609753,-0.651322,1.36786,0
27810,-0.602012,-0.637052,1.36287,0
27830,-0.590184,-0.626202,1.36026,0
27850,-0.584564,-0.613135,1.36105,0
27870,-0.576246,-0.60039,1.36093,0
27890,-0.56323,-0.592542,1.35833,0
27910,-0.551236,-0.58584,1.35126,0
27930,-0.548475,-0.575382,1.34417,0
27950,-0.547516,-0.5624,1.33776,0
27970,-0.540976,-0.548684,1.33116,0
27990,-0.530116,-0.537804,1.32342,0
28000,-0.521602,-0.528187,1.31766,0
28020,-0.525187,-0.51386,1.313,0
28040,-0.525292,-0.498726,1.30804,0
28060,-0.520324,-0.482914,1.30273,0
28080,-0.511468,-0.470662,1.3009,0
28100,-0.512648,-0.457212,1.30226,0
28120,-0.513402,-0.440543,1.30152,0
28140,-0.514011,-0.421266,1.2996,0
28160,-0.510246,-0.404649,1.30213,0
28180,-0.507921,-0.390884,1.30634,0
28200,-0.514016,-0.374604,1.30893,0
28220,-0.51655,-0.356905,1.31045,0
28240,-0.516995,-0.340855,1.31379,0
28260,-0.514741,-0.328932,1.31891,0
28280,-0.517404,-0.316816,1.3239,0
28300,-0.51963,-0.304537,1.32856,0
28320,-0.520521,-0.292294,1.33392,0
28340,-0.525447,-0.281239,1.34147,0
28360,-0.531645,-0.27081,1.3518,0
28380,-0.534395,-0.260762,1.36337,0
28400,-0.534524,-0.251678,1.37399,0
28420,-0.537657,-0.244003,1.38447,0
28450,-0.55019,-0.231081,1.40947,0
28460,-0.552334,-0.226643,1.42247,0
28480,-0.552553,-0.222851,1.43495,0
28500,-0.552866,-0.219087,1.44772,0
28520,-0.554424,-0.215626,1.46145,0
28540,-0.555326,-0.211938,1.4753,0
28560,-0.556244,-0.207521,1.4893,0
28580,-0.559203,-0.203395,1.50444,0
28600,-0.562605,-0.199898,1.5206,0
28620,-0.567062,-0.195716,1.53667,0
28640,-0.573828,-0.191711,1.55366,0
28660,-0.580071,-0.188985,1.57077,0
28680,-0.586488,-0.186438,1.58764,0
28700,-0.595449,-0.183311,1.60674,0
28720,-0.608867,-0.180013,1.62876,0
28740,-0.626612,-0.175708,1.6533,0
28760,-0.64681,-0.170302,1.67996,0
28780,-0.665586,-0.166584,1.70507,0
28800,-0.682234,-0.165931,1.72883,0
28820,-0.697989,-0.167512,1.7523,0
28840,-0.710829,-0.170085,1.77565,0
28860,-0.72037,-0.172791,1.79761,0
28880,-0.727794,-0.175817,1.81732,0
28900,-0.737651,-0.1787,1.83678,0
28920,-0.750568,-0.181782,1.85789,0
28940,-0.763849,-0.185575,1.88083,0
28960,-0.774611,-0.189257,1.9008,0
28980,-0.786328,-0.192019,1.92023,0
29000,-0.801527,-0.196271,1.94181,0
29020,-0.814485,-0.203434,1.962,0
29040,-0.81993,-0.21207,1.97946,0
29060,-0.824121,-0.220489,1.99646,0
29080,-0.83136,-0.229982,2.01444,0
29100,-0.838864,-0.239996,2.03251,0
29120,-0.843232,-0.250539,2.04929,0
29140,-0.846341,-0.262784,2.06681,0
29160,-0.852482,-0.277162,2.08582,0
29180,-0.857878,-0.291788,2.10419,0
29200,-0.862358,-0.306107,2.12103,0
29220,-0.868121,-0.320801,2.13892,0
29240,-0.872859,-0.336066,2.15696,0
29260,-0.879662,-0.350867,2.173,0
29280,-0.887316,-0.364645,2.18723,0
29300,-0.891008,-0.378872,2.20154,0
29320,-0.896775,-0.394206,2.2185,0
29340,-0.905587,-0.409417,2.23548,0
29360,-0.916057,-0.423704,2.24992,0
29380,-0.924736,-0.439088,2.26385,0
29400,-0.931088,-0.457347,2.2779,0
29420,-0.940375,-0.476488,2.29024,0
29440,-0.94893,-0.495413,2.29784,0
29460,-0.95555,-0.515834,2.30416,0
29480,-0.960787,-0.540236,2.31131,0
29500,-0.968373,-0.571975,2.31916,0
29520,-0.977476,-0.598959,2.31986,0
29540,-0.985263,-0.624229,2.31665,0
29560,-0.990839,-0.651594,2.31345,0
29580,-0.996241,-0.679344,2.30839,0
29600,-1.00164,-0.705746,2.30129,0
29620,-1.00391,-0.730594,2.28998,0
29640,-1.00534,-0.754085,2.27629,0
29660,-1.00624,-0.7778,2.26143,0
29680,-1.00498,-0.801967,2.243,0
29700,-0.999347,-0.825635,2.21939,0
29720,-0.988357,-0.849379,2.18972,0
29740,-0.97547,-0.872502,2.15621,0
29760,-0.960378,-0.894177,2.12067,0
29780,-0.942128,-0.914824,2.08312,0
29800,-0.919106,-0.935094,2.04156,0
29820,-0.893537,-0.954422,1.99829,0
29840,-0.869098,-0.971665,1.95582,0
29860,-0.841137,-0.98632,1.91141,0
29880,-0.812202,-0.999639,1.86781,0
29900,-0.781056,-1.01129,1.82246,0
29920,-0.751111,-1.02103,1.77864,0
29940,-0.721712,-1.02816,1.73425,0
29960,-0.689503,-1.03279,1.68693,0
29980,-0.654966,-1.03594,1.63993,0
30000,-0.618346,-1.03825,1.5928,0
30020,-0.582501,-1.0388,1.54733,0
30040,-0.549729,-1.03506,1.50446,0
30060,-0.516242,-1.02725,1.46198,0
30080,-0.490258,-1.01677,1.43053,0
30100,-0.462197,-1.00761,1.40084,0
30120,-0.442596,-0.9981,1.38012,0
30140,-0.426671,-0.987423,1.36285,0
30160,-0.410314,-0.976609,1.34609,0
30180,-0.397974,-0.968288,1.3356,0
30200,-0.387344,-0.960781,1.32617,0
30220,-0.383214,-0.947244,1.31777,0
30240,-0.380977,-0.930249,1.30799,0
30260,-0.377433,-0.910198,1.30105,0
30280,-0.376663,-0.890486,1.30069,0
30300,-0.383191,-0.86982,1.30366,0
30320,-0.397897,-0.843877,1.31148,0
30340,-0.402246,-0.817769,1.31849,0
30360,-0.403456,-0.797691,1.33045,0
30380,-0.408533,-0.781886,1.34172,0
30400,-0.420671,-0.762273,1.35424,0
30420,-0.441615,-0.738557,1.36965,0
30440,-0.459609,-0.714269,1.38505,0
30460,-0.473726,-0.69107,1.40102,0
30480,-0.490439,-0.66651,1.41634,0
30500,-0.500722,-0.639881,1.4304,0
30520,-0.507867,-0.61328,1.4446,0
30540,-0.5134,-0.589469,1.45673,0
30560,-0.520073,-0.567584,1.4679,0
30580,-0.526136,-0.546439,1.48237,0
30600,-0.532437,-0.52506,1.49769,0
30620,-0.53519,-0.508247,1.5125,0
30640,-0.540846,-0.495016,1.52792,0
30660,-0.545976,-0.482327,1.54326,0
30680,-0.55114,-0.470229,1.55926,0
30700,-0.559006,-0.459324,1.57607,0
30720,-0.570071,-0.448869,1.59325,0
30740,-0.578229,-0.438062,1.61054,0
30760,-0.585842,-0.428075,1.62817,0
30780,-0.59512,-0.420592,1.64605,0
30800,-0.6067,-0.411922,1.66365,0
30820,-0.618649,-0.403217,1.68255,0
30840,-0.630092,-0.397179,1.70262,0
30860,-0.642438,-0.394354,1.72321,0
30880,-0.656052,-0.391378,1.74324,0
30900,-0.671886,-0.389939,1.7644,0
30920,-0.685165,-0.390014,1.78385,0
30940,-0.696296,-0.38956,1.80213,0
30960,-0.708507,-0.38882,1.82051,0
30980,-0.719518,-0.388777,1.8373,0
31000,-0.728592,-0.389089,1.85323,0
31020,-0.738679,-0.389827,1.86953,0
31040,-0.749585,-0.390673,1.88561,0
31060,-0.760215,-0.391615,1.90164,0
31080,-0.77054,-0.393833,1.91779,0
31100,-0.781118,-0.397575,1.93541,0
31120,-0.792533,-0.404182,1.95397,0
31140,-0.803576,-0.411252,1.97027,0
31160,-0.815733,-0.418208,1.98708,0
31180,-0.830629,-0.426993,2.00609,0
31200,-0.846111,-0.437454,2.02387,0
31220,-0.860303,-0.44735,2.04137,0
31240,-0.874128,-0.457599,2.06047,0
31260,-0.887193,-0.469251,2.07996,0
31280,-0.899631,-0.482006,2.09956,0
31300,-0.912979,-0.495874,2.11953,0
31320,-0.92524,-0.512125,2.13916,0
31340,-0.935462,-0.530048,2.15818,0
31360,-0.94381,-0.549367,2.17605,0
31380,-0.95519,-0.56921,2.19332,0
31390,-0.964136,-0.590397,2.20987,0
31410,-0.972451,-0.612442,2.22677,0
31430,-0.98088,-0.635903,2.24133,0
31450,-0.990766,-0.658785,2.25568,0
31470,-0.999893,-0.682402,2.26964,0
31490,-1.00927,-0.706666,2.28366,0
31510,-1.02113,-0.730762,2.29627,0
31530,-1.03156,-0.753426,2.3065,0
31550,-1.0427,-0.775385,2.31568,0
31570,-1.05412,-0.798687,2.32555,0
31590,-1.06741,-0.821496,2.33611,0
31610,-1.07835,-0.844535,2.34278,0
31630,-1.08827,-0.866524,2.34595,0
31650,-1.09672,-0.886348,2.34601,0
31670,-1.0987,-0.907582,2.34423,0
31690,-1.10089,-0.929791,2.34066,0
31710,-1.10193,-0.95292,2.33431,0
31730,-1.1034,-0.973376,2.32549,0
31750,-1.09952,-0.993487,2.31165,0
31770,-1.092,-1.01482,2.29584,0
31790,-1.08613,-1.03575,2.27818,0
31810,-1.07838,-1.05641,2.25599,0
31830,-1.06543,-1.07689,2.22951,0
31850,-1.05254,-1.09776,2.20351,0
31870,-1.03864,-1.11723,2.17379,0
31890,-1.01864,-1.13448,2.13625,0
31910,-0.990462,-1.14883,2.09116,0
31930,-0.956695,-1.16147,2.04182,0
31950,-0.921786,-1.17096,1.99148,0
31970,-0.882129,-1.17847,1.93562,0
31990,-0.836177,-1.1831,1.87592,0
32010,-0.784235,-1.18567,1.81184,0
32030,-0.734598,-1.18799,1.7518,0
32050,-0.685504,-1.18668,1.69035,0
32070,-0.636541,-1.1798,1.62638,0
32090,-0.591517,-1.16984,1.56858,0
32110,-0.550549,-1.15755,1.51643,0
32130,-0.512186,-1.14345,1.46662,0
32150,-0.478314,-1.12596,1.42031,0
32170,-0.452284,-1.10546,1.38043,0
32190,-0.43296,-1.08338,1.34829,0
32210,-0.416706,-1.06234,1.32372,0
32230,-0.405577,-1.03924,1.30333,0
32250,-0.40343,-1.01343,1.28908,0
32270,-0.40472,-0.988989,1.28243,0
32290,-0.407032,-0.966659,1.28219,0
32310,-0.413037,-0.944104,1.28374,0
32330,-0.43118,-0.918996,1.28988,0
32350,-0.451674,-0.892034,1.29801,0
32370,-0.466247,-0.866535,1.3076,0
32390,-0.482353,-0.842972,1.32145,0
32410,-0.502722,-0.816928,1.33613,0
32430,-0.517037,-0.790301,1.34816,0
32450,-0.529682,-0.767977,1.36217,0
32470,-0.545726,-0.746457,1.37676,0
32490,-0.562636,-0.725176,1.39208,0
32510,-0.57494,-0.705598,1.40705,0
32530,-0.583958,-0.688953,1.42181,0
32550,-0.594368,-0.674001,1.43604,0
32570,-0.610062,-0.657728,1.45076,0
32590,-0.627336,-0.641274,1.46701,0
32610,-0.640621,-0.627098,1.48447,0
32630,-0.652195,-0.61552,1.50086,0
32650,-0.664509,-0.603913,1.51676,0
32670,-0.679083,-0.59244,1.53465,0
32690,-0.691301,-0.583572,1.55236,0
32710,-0.70236,-0.577148,1.56957,0
32730,-0.71409,-0.570421,1.58646,0
32750,-0.725895,-0.565275,1.60383,0
32770,-0.73808,-0.560844,1.62098,0
32790,-0.750712,-0.556486,1.63901,0
32810,-0.762465,-0.554111,1.65731,0
32830,-0.77282,-0.551565,1.6745,0
32850,-0.784506,-0.549245,1.6911,0
32870,-0.796863,-0.547721,1.70839,0
32890,-0.810814,-0.546413,1.72646,0
32910,-0.824263,-0.545524,1.7449,0
32930,-0.839493,-0.545173,1.76466,0
32950,-0.855241,-0.546,1.7845,0
32970,-0.871516,-0.548495,1.80517,0
32990,-0.887682,-0.55151,1.82568,0
33010,-0.902843,-0.554727,1.84648,0
33030,-0.918006,-0.559501,1.86793,0
33050,-0.934168,-0.565458,1.88905,0
33070,-0.951086,-0.572417,1.91099,0
33090,-0.96682,-0.580397,1.93308,0
33110,-0.981477,-0.588574,1.95377,0
33130,-0.995946,-0.597938,1.97464,0
33150,-1.01112,-0.608677,1.9962,0
33170,-1.02751,-0.620193,2.0179,0
33190,-1.04422,-0.63145,2.03876,0
33210,-1.05943,-0.643027,2.05973,0
33230,-1.0749,-0.655343,2.08118,0
33250,-1.09013,-0.667656,2.10176,0
33270,-1.10678,-0.679886,2.12158,0
33290,-1.12385,-0.692411,2.14202,0
33310,-1.13956,-0.704873,2.16266,0
33330,-1.15486,-0.716756,2.18339,0
33350,-1.17376,-0.728691,2.20503,0
33360,-1.19253,-0.740868,2.22419,0
33380,-1.20677,-0.754672,2.24023,0
33400,-1.22058,-0.769835,2.25713,0
33420,-1.23389,-0.785894,2.27447,0
33440,-1.24761,-0.802579,2.29181,0
33460,-1.26233,-0.820963,2.30924,0
33480,-1.27952,-0.838447,2.32685,0
33500,-1.29769,-0.854813,2.34397,0
33520,-1.31799,-0.872175,2.36377,0
33540,-1.34051,-0.889371,2.38507,0
33560,-1.36253,-0.905154,2.4059,0
33580,-1.38375,-0.919394,2.42569,0
33600,-1.40415,-0.932744,2.44509,0
33620,-1.42151,-0.944819,2.46221,0
33640,-1.43512,-0.955664,2.47788,0
33660,-1.44812,-0.966257,2.4938,0
33680,-1.46228,-0.974282,2.507,0
33700,-1.4734,-0.981797,2.51686,0
33720,-1.48259,-0.991172,2.52588,1001
33740,-1.48998,-0.999447,2.53357,0
33760,-1.49734,-1.00577,2.54269,0
33780,-1.50146,-1.00998,2.54945,0
33800,-1.50504,-1.01371,2.55471,0
33820,-1.50681,-1.01618,2.56038,0
33840,-1.50884,-1.0177,2.56387,0
33860,-1.50979,-1.017,2.56591,0
33880,-1.50853,-1.01627,2.56552,0
33900,-1.50583,-1.01595,2.56481,0
33920,-1.50421,-1.0156,2.56373,0
33940,-1.50248,-1.01424,2.5631,0
33960,-1.49824,-1.01255,2.56159,0
33980,-1.49417,-1.01288,2.5568,0
34000,-1.49066,-1.00984,2.5534,0
34020,-1.48139,-1.00401,2.5441,0
34040,-1.46068,-1.00044,2.52427,0
34060,-1.43516,-0.999669,2.49819,0
34080,-1.40508,-0.994038,2.47131,0
34100,-1.37167,-0.989207,2.44309,0
34120,-1.33932,-0.981662,2.41217,0
34140,-1.30861,-0.970373,2.37759,0
34160,-1.27035,-0.953624,2.33806,0
34180,-1.22463,-0.930973,2.29826,0
34200,-1.18794,-0.904669,2.26757,0
34220,-1.14849,-0.867992,2.23313,0
34240,-1.10986,-0.82239,2.20248,0
34260,-1.06807,-0.768206,2.17585,0
34280,-1.02621,-0.708971,2.15647,0
34300,-0.992172,-0.645424,2.14439,0
34320,-0.957411,-0.580759,2.1286,0
34340,-0.924196,-0.513785,2.11167,0
34360,-0.889665,-0.446562,2.10293,0
34380,-0.862736,-0.388355,2.10088,0
34400,-0.843041,-0.342497,2.10106,0
34420,-0.833766,-0.317761,2.10383,0
34440,-0.829286,-0.30545,2.10796,0
34460,-0.829338,-0.301134,2.1168,0
34480,-0.833715,-0.300881,2.13072,0
34500,-0.840375,-0.306479,2.14621,0
34520,-0.84849,-0.315921,2.15956,0
34540,-0.856913,-0.324339,2.17189,0
34560,-0.861325,-0.331455,2.18149,0
34580,-0.862797,-0.337389,2.18975,0
34600,-0.864891,-0.342259,2.1967,0
34620,-0.866767,-0.346363,2.19908,0
34640,-0.867636,-0.346712,2.19765,0
34660,-0.865069,-0.343708,2.19671,0
34680,-0.864303,-0.343091,2.19536,0
34700,-0.863267,-0.342127,2.19326,0
34720,-0.858374,-0.339559,2.18868,0
34740,-0.850694,-0.337903,2.18342,0
34760,-0.847887,-0.336726,2.1815,1000
34780,-0.846887,-0.331678,2.1784,0
34800,-0.84138,-0.326089,2.17196,0
34820,-0.837008,-0.322251,2.17165,0
34840,-0.840554,-0.319474,2.1739,0
34860,-0.843605,-0.316142,2.17317,0
34880,-0.845384,-0.312462,2.17423,0
34900,-0.845139,-0.309203,2.17691,0
34920,-0.844355,-0.309598,2.17607,0
34940,-0.844249,-0.309122,2.17495,0
34960,-0.844596,-0.308004,2.17489,0
34980,-0.844808,-0.30931,2.17461,0
35000,-0.846228,-0.309776,2.17552,0
35020,-0.849222,-0.309796,2.17769,0
35040,-0.85275,-0.310391,2.1799,0
35060,-0.855964,-0.310978,2.18172,0
35080,-0.859557,-0.309895,2.18293,0
35100,-0.862181,-0.307897,2.1837,0
35120,-0.864244,-0.304538,2.18499,0
35140,-0.863867,-0.302387,2.18649,0
35160,-0.861569,-0.302397,2.18908,0
35180,-0.858373,-0.30502,2.19327,0
35200,-0.855578,-0.309163,2.19844,0
35220,-0.85391,-0.314261,2.20472,0
35240,-0.852628,-0.319358,2.21278,0
35260,-0.851608,-0.324769,2.22079,0
35280,-0.849823,-0.331152,2.22776,0
35300,-0.8486,-0.340084,2.23488,0
35320,-0.848501,-0.348292,2.2437,0
35340,-0.848729,-0.356034,2.25111,0
35360,-0.85005,-0.364206,2.25805,0
35380,-0.851327,-0.373374,2.26539,0
35400,-0.853469,-0.383353,2.27479,0
35420,-0.856619,-0.392749,2.2843,0
35440,-0.860501,-0.402186,2.29266,0
35460,-0.864087,-0.412886,2.30024,0
35480,-0.867388,-0.423983,2.3084,0
35500,-0.870962,-0.434141,2.31625,0
35520,-0.875947,-0.443793,2.32263,0
35540,-0.881216,-0.453373,2.32856,0
35560,-0.884969,-0.46257,2.33374,0
35580,-0.888097,-0.471763,2.33772,0
35600,-0.892174,-0.480746,2.34141,0
35620,-0.897003,-0.489695,2.34536,0
35640,-0.901792,-0.499268,2.34808,0
35660,-0.906274,-0.509652,2.35046,0
35680,-0.910391,-0.520387,2.35264,0
35700,-0.915047,-0.531291,2.35298,0
35720,-0.919374,-0.542117,2.35013,0
35740,-0.922564,-0.552558,2.34525,0
35760,-0.92515,-0.562381,2.34027,0
35780,-0.927314,-0.57276,2.33227,0
35800,-0.930694,-0.583501,2.32048,0
35820,-0.932513,-0.593316,2.30542,0
35840,-0.933475,-0.602602,2.29016,0
35860,-0.933911,-0.612558,2.27253,0
35880,-0.933884,-0.622847,2.25081,0
35900,-0.931639,-0.63239,2.22418,0
35930,-0.921989,-0.64725,2.16868,0
35950,-0.914674,-0.655174,2.13918,0
35960,-0.905441,-0.663092,2.1061,0
35980,-0.89589,-0.670461,2.07396,0
36000,-0.885733,-0.679034,2.04385,0
36020,-0.876411,-0.687827,2.01522,0
36030,-0.867562,-0.697061,1.98545,0
36050,-0.859206,-0.70697,1.95569,0
36070,-0.85066,-0.71745,1.92782,0
36090,-0.842906,-0.727948,1.90152,0
36110,-0.835011,-0.73778,1.87472,0
36130,-0.825797,-0.747503,1.8464,0
36150,-0.815474,-0.756721,1.8187,0
36170,-0.802411,-0.766054,1.79085,0
36190,-0.788121,-0.775407,1.76201,0
36210,-0.771376,-0.784192,1.73003,0
36230,-0.753336,-0.792297,1.69714,0
36250,-0.735827,-0.799971,1.66499,0
36270,-0.717847,-0.806852,1.63118,0
36290,-0.698919,-0.811584,1.5951,0
36310,-0.678801,-0.813458,1.55817,0
36330,-0.656785,-0.813172,1.52133,0
36350,-0.633705,-0.811277,1.48521,0
36370,-0.610132,-0.807742,1.44903,0
36390,-0.588052,-0.801223,1.41315,0
36410,-0.568319,-0.791067,1.37955,0
36430,-0.549554,-0.779389,1.34937,0
36450,-0.529723,-0.76747,1.32009,0
36470,-0.512519,-0.753185,1.29296,0
36490,-0.496935,-0.737487,1.27052,0
36510,-0.482478,-0.722476,1.2528,0
36530,-0.467339,-0.707578,1.23588,0
36550,-0.458718,-0.690077,1.22543,0
36570,-0.44945,-0.673378,1.22299,0
36590,-0.439419,-0.658633,1.22575,0
36610,-0.429103,-0.646282,1.22688,0
36630,-0.419017,-0.63696,1.22927,0
36650,-0.412912,-0.625008,1.23051,0
36670,-0.410233,-0.611158,1.23061,0
36690,-0.413371,-0.593801,1.23038,0
36710,-0.413074,-0.576192,1.23016,0
36730,-0.413204,-0.557926,1.233,0
36740,-0.409619,-0.53976,1.23644,0
36760,-0.405896,-0.518352,1.2377,0
36780,-0.405794,-0.496283,1.23621,0
36800,-0.407702,-0.474351,1.24131,0
36820,-0.407506,-0.453593,1.24985,0
36840,-0.407864,-0.433403,1.2574,0
36860,-0.413448,-0.414246,1.26408,0
36880,-0.421114,-0.394745,1.27861,0
36900,-0.428698,-0.375955,1.29639,0
36920,-0.430001,-0.362818,1.3124,0
36940,-0.440896,-0.350908,1.32989,0
36960,-0.451032,-0.33818,1.34867,0
36980,-0.464291,-0.321976,1.36916,0
37000,-0.476537,-0.306742,1.38932,0
37020,-0.48919,-0.295812,1.41072,0
37040,-0.49895,-0.286279,1.43246,0
37060,-0.505797,-0.27647,1.45396,0
37080,-0.514697,-0.266456,1.47717,0
37100,-0.527556,-0.257971,1.50169,0
37120,-0.542664,-0.251254,1.52773,0
37140,-0.554283,-0.245854,1.55368,0
37160,-0.564147,-0.24118,1.57945,0
37180,-0.576701,-0.238789,1.60639,0
37200,-0.593048,-0.239614,1.63463,0
37220,-0.609203,-0.240105,1.66082,0
37240,-0.624881,-0.238721,1.68845,0
37260,-0.6421,-0.241138,1.71781,0
37280,-0.660319,-0.246769,1.74489,0
37300,-0.678731,-0.252705,1.7706,0
37320,-0.698335,-0.260056,1.79824,0
37340,-0.715485,-0.269248,1.82549,0
37360,-0.730963,-0.278912,1.85069,0
37380,-0.747232,-0.288433,1.87534,0
37400,-0.767043,-0.298763,1.90252,0
37420,-0.785304,-0.309953,1.93065,0
37440,-0.803654,-0.321064,1.959,0
37460,-0.822461,-0.333921,1.98739,0
37480,-0.842478,-0.346423,2.01552,0
37500,-0.85842,-0.357392,2.04255,0
37520,-0.872153,-0.369301,2.07061,0
37540,-0.886916,-0.385647,2.0981,0
37560,-0.901496,-0.401469,2.1224,0
37580,-0.910075,-0.417205,2.14535,0
37600,-0.921512,-0.433527,2.16958,0
37620,-0.934493,-0.45237,2.1918,0
37640,-0.94341,-0.473502,2.21044,0
37660,-0.952683,-0.495252,2.22833,0
37680,-0.964462,-0.519289,2.24727,0
37700,-0.975162,-0.544682,2.26212,0
37720,-0.984373,-0.57189,2.2732,0
37740,-0.997806,-0.601101,2.28362,0
37760,-1.00852,-0.636437,2.29438,0
37780,-1.02155,-0.670295,2.30199,0
37800,-1.03391,-0.704351,2.30209,0
37820,-1.04485,-0.739343,2.29976,0
37840,-1.0532,-0.774854,2.29337,0
37860,-1.05977,-0.809642,2.28264,0
37880,-1.06419,-0.84364,2.26715,0
37900,-1.06064,-0.876146,2.24092,0
37920,-1.04918,-0.907304,2.20422,0
37940,-1.03124,-0.935544,2.15909,0
37960,-1.00771,-0.962761,2.10639,0
37980,-0.976248,-0.988246,2.0443,0
38000,-0.935273,-1.01152,1.97365,0
38020,-0.885287,-1.03171,1.89648,0
38040,-0.82948,-1.04716,1.81292,0
38060,-0.770089,-1.05753,1.72572,0
38080,-0.705317,-1.06311,1.63378,0
38100,-0.637141,-1.0635,1.54001,0
38120,-0.570484,-1.05982,1.4515,0
38140,-0.510794,-1.05275,1.37363,0
38160,-0.457089,-1.04326,1.30651,0
38180,-0.410417,-1.0321,1.25181,0
38200,-0.372987,-1.01557,1.20893,0
38220,-0.349858,-0.996925,1.18378,0
38240,-0.33469,-0.978461,1.17093,0
38260,-0.322909,-0.954691,1.15491,0
38280,-0.331145,-0.924644,1.15156,0
38300,-0.348441,-0.893211,1.16053,0
38320,-0.361585,-0.861657,1.17267,0
38340,-0.372028,-0.830489,1.18772,0
38360,-0.383161,-0.800166,1.20701,0
38380,-0.403086,-0.77117,1.23295,0
38400,-0.429693,-0.741889,1.25984,0
38420,-0.449037,-0.715921,1.28735,0
38440,-0.47367,-0.694097,1.32035,0
38460,-0.505415,-0.675697,1.35932,0
38480,-0.545168,-0.656747,1.39789,0
38500,-0.566618,-0.639612,1.43373,0
38520,-0.585009,-0.623299,1.4697,0
38540,-0.604463,-0.608938,1.50595,0
38560,-0.626622,-0.592706,1.54043,0
38580,-0.64333,-0.576124,1.57349,0
38590,-0.660702,-0.560988,1.60931,0
38620,-0.680405,-0.548471,1.64565,0
38640,-0.700247,-0.537359,1.68126,0
38660,-0.720401,-0.527868,1.71721,0
38680,-0.740415,-0.520178,1.75343,0
38700,-0.759425,-0.51343,1.78723,0
38720,-0.778734,-0.507172,1.82153,0
38730,-0.796952,-0.503842,1.85501,0
38750,-0.814534,-0.501416,1.88822,0
38770,-0.83754,-0.500134,1.92386,0
38790,-0.862089,-0.501122,1.96039,0
38810,-0.882104,-0.504263,1.99457,0
38830,-0.903871,-0.508651,2.02936,0
38850,-0.926381,-0.515466,2.06428,0
38870,-0.947932,-0.527471,2.09715,0
38890,-0.964767,-0.542588,2.12686,0
38910,-0.979745,-0.560199,2.15348,0
38930,-0.997723,-0.580313,2.18004,0
38950,-1.01624,-0.604853,2.20455,0
38970,-1.03203,-0.634219,2.22382,0
38990,-1.0494,-0.664053,2.24021,0
39010,-1.06866,-0.694089,2.25702,0
39030,-1.08885,-0.726159,2.27221,0
39050,-1.11223,-0.760094,2.28394,0
39070,-1.13445,-0.796074,2.29601,0
39090,-1.15754,-0.83301,2.30863,0
39110,-1.1815,-0.87123,2.31717,0
39130,-1.20537,-0.911011,2.32256,0
39150,-1.22913,-0.949887,2.32703,0
39170,-1.24758,-0.987408,2.32651,0
39190,-1.2612,-1.02212,2.31832,0
39210,-1.27104,-1.05644,2.30502,0
39230,-1.27586,-1.08942,2.28709,0
39250,-1.26774,-1.121,2.25693,0
39270,-1.24341,-1.14931,2.21187,0
39290,-1.20064,-1.17666,2.15318,0
39310,-1.14249,-1.20152,2.08117,0
39330,-1.06678,-1.22076,1.98999,0
39350,-0.977283,-1.23449,1.88417,0
39370,-0.880155,-1.24162,1.7742,0
39390,-0.778688,-1.24386,1.6624,0
39410,-0.676041,-1.24034,1.54882,0
39430,-0.583256,-1.22889,1.44425,0
39450,-0.504955,-1.20943,1.35676,0
39470,-0.445687,-1.19054,1.29704,0
39490,-0.398464,-1.16874,1.25194,0
39510,-0.359049,-1.14233,1.21422,0
39530,-0.338016,-1.10963,1.19224,0
39550,-0.340307,-1.07406,1.188,0
39570,-0.33993,-1.04017,1.18923,0
39590,-0.348748,-1.00385,1.19946,0
39610,-0.360831,-0.96915,1.21616,0
39630,-0.379469,-0.938999,1.2393,0
39650,-0.399647,-0.909393,1.26143,0
39670,-0.426085,-0.878174,1.28771,0
39690,-0.456091,-0.847492,1.3191,0
39710,-0.480126,-0.819438,1.34981,0
39730,-0.501656,-0.791559,1.37765,0
39750,-0.528279,-0.766314,1.40413,0
39770,-0.549626,-0.744365,1.43235,0
39790,-0.570126,-0.723604,1.46384,0
39810,-0.588568,-0.703461,1.49421,0
39830,-0.613185,-0.684241,1.52685,0
39850,-0.638573,-0.667764,1.56172,0
39870,-0.661516,-0.653185,1.59457,0
39890,-0.683213,-0.639969,1.62565,0
39910,-0.707065,-0.629365,1.65528,0
39930,-0.729432,-0.619917,1.68473,0
39950,-0.747265,-0.612446,1.71565,0
39970,-0.764239,-0.609549,1.7462,0
39990,-0.783347,-0.6096,1.77591,0
40010,-0.804852,-0.610986,1.80666,0
40030,-0.825988,-0.614474,1.83857,0
40050,-0.847613,-0.619648,1.87094,0
40070,-0.871839,-0.626244,1.90351,0
40090,-0.898106,-0.63509,1.93803,0
40110,-0.92142,-0.647317,1.97275,0
40130,-0.943056,-0.664993,2.00611,0
40150,-0.964099,-0.684321,2.03681,0
40170,-0.985807,-0.702595,2.06617,0
40190,-1.00576,-0.723036,2.09535,0
40210,-1.02418,-0.746647,2.12561,0
40230,-1.04046,-0.772647,2.15332,0
40250,-1.06089,-0.799492,2.18079,0
40270,-1.08561,-0.826034,2.20834,0
40290,-1.11087,-0.851139,2.23398,0
40310,-1.1294,-0.876661,2.25851,0
40330,-1.15021,-0.900368,2.2828,0
40350,-1.17785,-0.921543,2.30551,0
40370,-1.20508,-0.943272,2.32745,0
40390,-1.23162,-0.96724,2.35587,0
40410,-1.25968,-0.990165,2.38623,0
40430,-1.28813,-1.01044,2.41028,0
40450,-1.31524,-1.02942,2.4338,0
40470,-1.3426,-1.04632,2.45772,0
40490,-1.36728,-1.06209,2.48302,0
40510,-1.38898,-1.07491,2.5031,1001
40530,-1.40341,-1.08618,2.51363,0
40550,-1.41427,-1.09459,2.52529,0
40570,-1.42788,-1.10326,2.53922,0
40590,-1.43521,-1.11143,2.5468,0
40610,-1.43664,-1.11729,2.54958,0
40630,-1.44077,-1.12123,2.55533,0
40650,-1.44401,-1.12302,2.55822,0
40670,-1.44022,-1.12319,2.55383,0
40690,-1.43272,-1.12246,2.54873,0
40710,-1.42821,-1.12143,2.54618,0
40730,-1.42419,-1.11954,2.54365,0
40750,-1.41914,-1.11716,2.53789,0
40770,-1.41449,-1.11495,2.53343,0
40790,-1.40934,-1.11295,2.53204,0
40810,-1.40409,-1.11105,2.5314,0
40830,-1.40565,-1.11037,2.53271,0
40850,-1.41308,-1.10703,2.53888,0
40870,-1.41608,-1.10251,2.54319,0
40890,-1.40741,-1.10273,2.5336,0
40910,-1.39223,-1.10217,2.52004,0
40930,-1.37561,-1.09281,2.5015,0
40950,-1.35621,-1.07922,2.4781,0
40970,-1.33603,-1.06144,2.45016,0
40990,-1.31004,-1.03523,2.41488,0
41010,-1.28144,-0.999598,2.37524,0
41030,-1.24834,-0.955147,2.32958,0
41050,-1.22245,-0.903742,2.29573,0
41070,-1.18588,-0.842566,2.26129,0
41090,-1.14529,-0.769949,2.22864,0
41110,-1.09705,-0.685674,2.1938,0
41130,-1.04757,-0.592078,2.1633,0
41150,-1.00637,-0.494474,2.13586,0
41170,-0.965459,-0.394882,2.10895,0
41190,-0.922603,-0.2962,2.08386,0
41210,-0.881901,-0.203415,2.0685,0
41230,-0.839269,-0.129207,2.05686,0
41250,-0.789739,-0.0739547,2.0495,0
41270,-0.74186,-0.0343891,2.05151,0
41290,-0.706854,-0.0157262,2.05576,0
41310,-0.692576,-0.0289732,2.05551,0
41330,-0.696824,-0.0391171,2.06479,0
41350,-0.718112,-0.0550083,2.08095,0
41370,-0.743252,-0.0854848,2.09186,0
41390,-0.766746,-0.117152,2.10227,0
41410,-0.789074,-0.151045,2.11217,0
41430,-0.805443,-0.186156,2.11759,0
41450,-0.817133,-0.210874,2.125,0
41470,-0.826014,-0.229549,2.13538,0
41490,-0.831709,-0.247074,2.1431,0
41510,-0.83619,-0.260912,2.14953,0
41530,-0.839627,-0.271691,2.15595,0
41550,-0.84185,-0.280917,2.16138,0
41570,-0.843508,-0.288383,2.16542,0
41590,-0.8453,-0.294922,2.16922,0
41610,-0.845392,-0.301587,2.1716,0
41630,-0.845435,-0.307609,2.17423,0
41650,-0.846976,-0.313824,2.17625,0
41670,-0.848008,-0.319489,2.17786,0
41690,-0.848941,-0.323733,2.17924,0
41710,-0.850148,-0.32699,2.17914,0
41730,-0.851759,-0.327121,2.17812,0
41750,-0.85656,-0.324558,2.17505,0
41770,-0.860965,-0.322661,2.17275,0
41790,-0.860697,-0.318324,2.17003,0
41810,-0.857934,-0.315686,2.16632,0
41830,-0.854479,-0.314857,2.1643,0
41850,-0.853692,-0.315633,2.16398,0
41870,-0.852385,-0.317711,2.16394,1000
41890,-0.852216,-0.319842,2.16502,0
41910,-0.85376,-0.320626,2.16694,0
41930,-0.856388,-0.320214,2.1687,0
41950,-0.858507,-0.318644,2.16954,0
41970,-0.859101,-0.317336,2.16954,0
41990,-0.859179,-0.315019,2.16873,0
42010,-0.858663,-0.311842,2.16798,0
42030,-0.85712,-0.308733,2.16766,0
42050,-0.855697,-0.308984,2.16786,0
42070,-0.854999,-0.310151,2.16972,0
42090,-0.852918,-0.309988,2.17662,0
42110,-0.851815,-0.311141,2.18481,0
42130,-0.8489,-0.318785,2.19136,0
42140,-0.847514,-0.328948,2.1995,0
42160,-0.847085,-0.338616,2.21004,0
42180,-0.848228,-0.349554,2.22068,0
42200,-0.85094,-0.364014,2.22997,0
42220,-0.85418,-0.380785,2.24001,0
42240,-0.858427,-0.397647,2.25296,0
42260,-0.864799,-0.414536,2.26455,0
42280,-0.87349,-0.433738,2.27343,0
42300,-0.88333,-0.453875,2.28111,0
42320,-0.893138,-0.472908,2.28806,0
42340,-0.904806,-0.490644,2.2926,0
42360,-0.917772,-0.509392,2.29336,0
42380,-0.930778,-0.530008,2.29092,0
42400,-0.942143,-0.550521,2.28676,0
42420,-0.955204,-0.570966,2.28296,0
42440,-0.969111,-0.593087,2.27554,0
42460,-0.982423,-0.617769,2.26379,0
42480,-0.992898,-0.642936,2.25031,0
42500,-1.00249,-0.668096,2.23669,0
42520,-1.01106,-0.694245,2.21877,0
42540,-1.017,-0.721568,2.19421,0
42540,-1.01827,-0.776716,2.13438,0
42570,-0.991912,-0.849114,2.01393,0
42580,-0.974112,-0.868094,1.96785,0
42600,-0.953012,-0.885057,1.91778,0
42620,-0.926143,-0.899625,1.86263,0
42640,-0.894943,-0.912113,1.80603,0
42660,-0.859702,-0.922337,1.74755,0
42680,-0.820069,-0.930523,1.68764,0
42700,-0.778525,-0.935701,1.62692,0
42720,-0.738093,-0.936928,1.56719,0
42740,-0.700465,-0.934152,1.51311,0
42760,-0.663286,-0.926337,1.46233,0
42780,-0.626981,-0.914383,1.41547,0
42800,-0.594784,-0.897503,1.37174,0
42820,-0.568968,-0.873974,1.33337,0
42840,-0.547089,-0.84825,1.30115,0
42860,-0.534002,-0.817326,1.27784,0
42880,-0.527436,-0.782101,1.26111,0
42900,-0.521505,-0.746487,1.25351,0
42920,-0.513097,-0.715216,1.25687,0
42940,-0.507977,-0.687517,1.2718,0
42960,-0.510644,-0.665054,1.29153,0
42980,-0.503762,-0.64547,1.30161,0
43000,-0.498907,-0.623974,1.31,0
43020,-0.503231,-0.601192,1.324,0
43040,-0.507328,-0.58063,1.33985,0
43060,-0.508722,-0.560763,1.35727,0
43080,-0.51586,-0.543086,1.37568,0
43100,-0.529094,-0.524899,1.39377,0
43120,-0.537013,-0.506941,1.41362,0
43140,-0.540785,-0.490402,1.43694,0
43160,-0.544108,-0.476795,1.4574,0
43180,-0.554848,-0.462153,1.47606,0
43200,-0.566763,-0.446656,1.49919,0
43220,-0.574376,-0.433418,1.52518,0
43240,-0.577599,-0.42344,1.54993,0
43260,-0.5864,-0.412533,1.57464,0
43280,-0.602102,-0.399868,1.60216,0
43300,-0.615395,-0.388084,1.63081,0
43320,-0.623542,-0.378928,1.65917,0
43340,-0.63449,-0.370675,1.68733,0
43360,-0.646698,-0.362868,1.71592,0
43380,-0.66048,-0.356709,1.74546,0
43400,-0.674894,-0.353372,1.77668,0
43420,-0.687753,-0.351881,1.80727,0
43440,-0.701086,-0.350357,1.83723,0
43460,-0.717783,-0.349063,1.86866,0
43480,-0.735763,-0.349487,1.90131,0
43500,-0.753476,-0.351789,1.93236,0
43520,-0.769677,-0.35419,1.96229,0
43540,-0.783872,-0.357977,1.99302,0
43560,-0.79755,-0.365689,2.02243,0
43580,-0.812556,-0.374572,2.04772,0
43600,-0.826804,-0.383395,2.07094,0
43620,-0.839787,-0.394084,2.09449,0
43640,-0.853662,-0.408126,2.11709,0
43660,-0.870629,-0.422169,2.13731,0
43680,-0.883899,-0.437733,2.15649,0
43700,-0.898694,-0.45552,2.17733,0
43720,-0.916853,-0.478196,2.19755,0
43740,-0.933223,-0.506551,2.21488,0
43760,-0.951109,-0.544697,2.2346,0
43780,-0.974167,-0.579389,2.25067,0
43800,-0.997503,-0.614763,2.26273,0
43820,-1.01867,-0.653772,2.27149,0
43840,-1.03907,-0.695168,2.27861,0
43860,-1.06054,-0.737395,2.28492,0
43880,-1.08036,-0.779615,2.28836,0
43890,-1.10065,-0.82109,2.28769,0
43920,-1.11774,-0.861054,2.28032,0
43940,-1.1303,-0.900253,2.26553,0
43960,-1.1353,-0.938813,2.24264,0
43980,-1.13153,-0.975886,2.21247,0
44000,-1.11811,-1.01151,2.1729,0
44010,-1.09189,-1.04495,2.11945,0
44030,-1.05491,-1.07523,2.05449,0
44050,-1.00558,-1.10108,1.97943,0
44070,-0.943587,-1.12212,1.89416,0
44090,-0.868447,-1.13764,1.79691,0
44110,-0.782122,-1.14692,1.69246,0
44130,-0.687852,-1.15329,1.58591,0
44150,-0.596374,-1.15329,1.48283,0
44170,-0.515493,-1.14388,1.38579,0
44190,-0.450924,-1.12259,1.30429,0
44210,-0.396223,-1.0991,1.23878,0
44230,-0.35607,-1.0781,1.19683,0
44250,-0.334039,-1.05315,1.17152,0
44260,-0.323133,-1.02353,1.15889,0
44280,-0.314244,-0.99555,1.16061,0
44300,-0.31202,-0.973133,1.17466,0
44320,-0.314359,-0.954701,1.19263,0
44340,-0.322838,-0.92932,1.21291,0
44360,-0.329356,-0.906183,1.23131,0
44380,-0.341389,-0.88658,1.25739,0
44400,-0.364597,-0.86424,1.28689,0
44420,-0.394097,-0.839194,1.31903,0
44440,-0.418222,-0.81618,1.35634,0
44460,-0.428608,-0.800179,1.39048,0
44480,-0.441267,-0.787336,1.42404,0
44500,-0.468052,-0.769428,1.45804,0
44520,-0.49018,-0.749328,1.49374,0
44540,-0.505701,-0.730224,1.52864,0
44560,-0.524507,-0.714194,1.56417,0
44580,-0.553392,-0.696149,1.60189,0
44600,-0.572334,-0.678196,1.63986,0
44620,-0.592217,-0.662357,1.67704,0
44640,-0.618547,-0.650006,1.71392,0
44660,-0.649595,-0.634694,1.75227,0
44680,-0.68123,-0.617907,1.79251,0
44700,-0.710217,-0.603876,1.8333,0
44720,-0.73885,-0.595991,1.87126,0
44740,-0.765178,-0.590235,1.9079,0
44760,-0.792228,-0.58513,1.94652,0
44780,-0.81912,-0.585271,1.98519,0
44800,-0.845824,-0.588097,2.02195,0
44820,-0.872634,-0.593446,2.05885,0
44840,-0.901639,-0.60098,2.09813,0
44860,-0.932299,-0.609618,2.13455,0
44880,-0.961368,-0.620492,2.16766,0
44900,-0.992103,-0.635504,2.19933,0
44920,-1.02257,-0.653826,2.22717,0
44940,-1.04797,-0.67494,2.2511,0
44960,-1.07052,-0.700676,2.27098,0
44980,-1.09117,-0.731195,2.28715,0
45000,-1.10983,-0.764286,2.29888,0
45020,-1.12637,-0.799737,2.30638,0
45040,-1.14392,-0.836099,2.3135,0
45060,-1.15644,-0.874221,2.31333,0
45080,-1.16864,-0.912449,2.30915,0
45100,-1.18325,-0.949128,2.30448,0
45120,-1.18527,-0.986058,2.29112,0
45140,-1.18025,-1.02457,2.27063,0
45160,-1.16959,-1.06263,2.24095,0
45180,-1.15434,-1.0995,2.20373,0
45200,-1.12582,-1.13274,2.15638,0
45220,-1.0745,-1.16568,2.08967,0
45240,-1.00955,-1.19523,2.01073,0
45260,-0.933286,-1.21675,1.91962,0
45280,-0.835779,-1.23308,1.80739,0
45300,-0.727449,-1.24063,1.6869,0
45320,-0.620574,-1.24085,1.56807,0
45340,-0.524084,-1.23522,1.46305,0
45360,-0.435073,-1.22462,1.36257,0
45380,-0.367676,-1.20688,1.28459,0
45400,-0.323794,-1.1843,1.23002,0
45420,-0.290686,-1.16121,1.19057,0
45440,-0.272789,-1.13806,1.16717,0
45460,-0.274973,-1.11,1.15961,0
45480,-0.276599,-1.08015,1.15872,0
45500,-0.280181,-1.0515,1.16295,0
45520,-0.28776,-1.02315,1.17377,0
45540,-0.297763,-0.99596,1.1888,0
45560,-0.320721,-0.966307,1.21025,0
45580,-0.347477,-0.935987,1.23577,0
45600,-0.367977,-0.906149,1.26209,0
45620,-0.392186,-0.8802,1.29244,0
45640,-0.418959,-0.856467,1.32586,0
45660,-0.442318,-0.833309,1.35571,0
45680,-0.464397,-0.812956,1.38386,0
45700,-0.48782,-0.796311,1.41564,0
45720,-0.509475,-0.780342,1.44676,0
45740,-0.527567,-0.766514,1.4755,0
45760,-0.546676,-0.756837,1.50477,0
45780,-0.566603,-0.750494,1.53474,0
45800,-0.58711,-0.744387,1.56369,0
45820,-0.609588,-0.737993,1.59108,0
45840,-0.630848,-0.73252,1.61827,0
45860,-0.652621,-0.727871,1.64653,0
45880,-0.675452,-0.725279,1.67658,0
45900,-0.69959,-0.722517,1.70582,0
45920,-0.726148,-0.720249,1.73597,0
45940,-0.754849,-0.718439,1.76839,0
45960,-0.784081,-0.715879,1.80152,0
45980,-0.819505,-0.713076,1.83679,0
46000,-0.855788,-0.711084,1.87141,0
46020,-0.888248,-0.710395,1.90471,0
46040,-0.920479,-0.713378,1.93824,0
46060,-0.953652,-0.717552,1.96938,0
46080,-0.984471,-0.722118,1.99676,0
46100,-1.01065,-0.728336,2.02519,0
46120,-1.03405,-0.738555,2.05406,0
46140,-1.0587,-0.750801,2.08036,0
46160,-1.08224,-0.765453,2.10389,0
46180,-1.10432,-0.78038,2.12588,0
46200,-1.12466,-0.796677,2.14729,0
46220,-1.14359,-0.815869,2.17009,0
46240,-1.16013,-0.836359,2.18947,0
46260,-1.17675,-0.857725,2.20746,0
46280,-1.1938,-0.879046,2.22618,0
46300,-1.20907,-0.901346,2.2429,0
46320,-1.22656,-0.9214,2.25754,0
46340,-1.24134,-0.939905,2.27261,0
46360,-1.25483,-0.9595,2.28837,0
46380,-1.27162,-0.979489,2.30712,0
46400,-1.29079,-0.995983,2.32224,0
46420,-1.30704,-1.01095,2.33779,0
46440,-1.32078,-1.02533,2.35653,0
46460,-1.33595,-1.03865,2.37219,0
46480,-1.34867,-1.04835,2.38266,0
46500,-1.35717,-1.05631,2.3914,0
46520,-1.36425,-1.06446,2.40295,1001
46540,-1.36924,-1.0729,2.41315,0
46560,-1.37294,-1.08055,2.42075,0
46580,-1.37674,-1.08474,2.42491,0
46600,-1.37922,-1.0895,2.43368,0
46620,-1.38329,-1.09571,2.44438,0
46640,-1.38909,-1.10155,2.45486,0
46660,-1.39568,-1.10403,2.46244,0
46680,-1.40276,-1.10377,2.47012,0
46700,-1.40611,-1.103,2.4735,0
46720,-1.40655,-1.10234,2.47438,0
46740,-1.40652,-1.10061,2.474,0
46760,-1.40893,-1.10008,2.4755,0
46780,-1.40778,-1.09959,2.47467,0
46800,-1.4065,-1.09869,2.4725,0
46820,-1.40432,-1.09622,2.47193,0
46840,-1.40112,-1.09299,2.47159,0
46860,-1.39101,-1.09174,2.45835,0
46880,-1.37356,-1.08845,2.439,0
46900,-1.34839,-1.07838,2.41326,0
46920,-1.32134,-1.06455,2.38178,0
46940,-1.29225,-1.04267,2.34542,0
46960,-1.26267,-1.01234,2.30605,0
46980,-1.23872,-0.974002,2.2711,0
47000,-1.22208,-0.922983,2.24151,0
47020,-1.19229,-0.862109,2.2152,0
47040,-1.15101,-0.79565,2.19179,0
47060,-1.10052,-0.725728,2.16171,0
47080,-1.04698,-0.647883,2.12873,0
47100,-0.999771,-0.565826,2.10189,0
47120,-0.95481,-0.489945,2.07983,0
47140,-0.909879,-0.421724,2.06164,0
47160,-0.872574,-0.364178,2.04561,0
47180,-0.843144,-0.323617,2.03354,0
47200,-0.825464,-0.304656,2.03281,0
47220,-0.815639,-0.299239,2.04193,0
47240,-0.808192,-0.303205,2.05571,0
47260,-0.805498,-0.312058,2.07076,0
47280,-0.809828,-0.323898,2.08574,0
47300,-0.819691,-0.335058,2.09892,0
47320,-0.828705,-0.339923,2.10842,0
47340,-0.833748,-0.341729,2.11329,0
47360,-0.83675,-0.341067,2.11268,0
47380,-0.838188,-0.33603,2.10849,0
47400,-0.84117,-0.323838,2.10416,0
47410,-0.841324,-0.306391,2.09773,0
47430,-0.838929,-0.290631,2.09103,0
47450,-0.838466,-0.277862,2.08832,1000
47470,-0.832168,-0.268965,2.0842,0
47490,-0.824138,-0.266099,2.07963,0
47510,-0.816041,-0.266802,2.07922,0
47530,-0.812154,-0.272825,2.08164,0
47550,-0.811599,-0.281282,2.08454,0
47570,-0.81317,-0.287672,2.08689,0
47590,-0.817615,-0.291073,2.08865,0
47610,-0.823147,-0.290931,2.09039,0
47630,-0.827473,-0.290747,2.09161,0
47650,-0.829449,-0.290243,2.09238,0
47670,-0.829663,-0.289321,2.09325,0
47690,-0.828969,-0.288405,2.0936,0
47710,-0.827789,-0.288078,2.09432,0
47730,-0.825535,-0.288263,2.09625,0
47750,-0.824714,-0.290505,2.09997,0
47770,-0.822867,-0.295181,2.10479,0
47790,-0.822376,-0.302926,2.11287,0
47810,-0.821327,-0.314139,2.1224,0
47830,-0.822431,-0.325159,2.13308,0
47850,-0.824216,-0.337854,2.14314,0
47870,-0.826956,-0.352744,2.15245,0
47890,-0.831793,-0.367435,2.16212,0
47910,-0.836552,-0.380755,2.17131,0
47930,-0.848476,-0.409744,2.18949,0
47950,-0.861883,-0.437832,2.21001,0
47960,-0.868995,-0.452581,2.21938,0
47980,-0.877295,-0.467989,2.22795,0
48000,-0.885171,-0.483039,2.23705,0
48020,-0.900382,-0.51498,2.2559,0
48040,-0.909118,-0.533025,2.26258,0
48060,-0.917984,-0.551525,2.26998,0
48080,-0.926937,-0.570662,2.27743,0
48100,-0.938188,-0.589094,2.28435,0
48120,-0.95006,-0.608304,2.28947,0
48140,-0.961911,-0.627528,2.29495,0
48160,-0.973528,-0.646335,2.29973,0
48180,-0.985386,-0.66606,2.30259,0
48200,-0.997494,-0.686567,2.30301,0
48220,-1.00876,-0.707347,2.30166,0
48240,-1.01878,-0.729253,2.29997,0
48260,-1.0269,-0.753085,2.29489,0
48280,-1.03332,-0.777735,2.28482,0
48300,-1.03851,-0.800857,2.27232,0
48320,-1.04299,-0.822822,2.25778,0
48340,-1.0448,-0.844704,2.23953,0
48360,-1.04426,-0.866169,2.2154,0
48380,-1.04034,-0.887158,2.1872,0
48400,-1.0329,-0.907345,2.15669,0
48420,-1.0214,-0.926826,2.12178,0
48440,-1.00556,-0.944596,2.08137,0
48480,-0.942475,-0.993497,1.94484,0
48500,-0.914324,-1.00796,1.89232,0
48540,-0.814929,-1.0387,1.7218,0
48550,-0.775294,-1.0435,1.65941,0
48570,-0.730567,-1.0423,1.59205,0
48590,-0.686698,-1.03556,1.52632,0
48610,-0.643546,-1.02489,1.46277,0
48630,-0.599338,-1.01067,1.40064,0
48650,-0.554111,-0.991059,1.33725,0
48670,-0.513258,-0.966874,1.27859,0
48690,-0.479525,-0.940229,1.23004,0
48710,-0.446936,-0.911777,1.18787,0
48730,-0.417541,-0.882902,1.1476,0
48750,-0.394132,-0.853435,1.11369,0
48770,-0.38382,-0.821754,1.09127,0
48790,-0.37325,-0.790568,1.0746,0
48810,-0.363905,-0.763293,1.06413,0
48830,-0.360348,-0.738198,1.05986,0
48850,-0.365823,-0.711357,1.06895,0
48870,-0.369834,-0.687596,1.08672,0
48890,-0.360275,-0.670634,1.10424,0
48910,-0.349855,-0.659293,1.11765,0
48930,-0.353339,-0.640276,1.12841,0
48950,-0.363224,-0.619142,1.1423,0
48970,-0.369049,-0.599766,1.1581,0
48990,-0.372409,-0.584969,1.17358,0
49010,-0.385902,-0.566537,1.19322,0
49030,-0.398309,-0.545946,1.21356,0
49050,-0.403006,-0.525999,1.23352,0
49070,-0.404088,-0.508863,1.24988,0
49090,-0.409364,-0.493809,1.26832,0
49110,-0.430481,-0.474571,1.29235,0
49130,-0.4386,-0.454143,1.31436,0
49150,-0.441537,-0.435762,1.33376,0
49170,-0.447123,-0.422292,1.35388,0
49190,-0.463317,-0.409038,1.3783,0
49210,-0.478189,-0.394994,1.40242,0
49230,-0.484233,-0.380473,1.42523,0
49250,-0.489812,-0.368429,1.44761,0
49260,-0.499019,-0.359925,1.4729,0
49280,-0.515743,-0.350991,1.49949,0
49300,-0.527776,-0.341068,1.52632,0
49320,-0.540363,-0.33303,1.55388,0
49340,-0.55587,-0.327388,1.58307,0
49360,-0.570219,-0.323451,1.61248,0
49380,-0.583017,-0.320497,1.64287,0
49400,-0.598143,-0.317367,1.67431,0
49420,-0.614737,-0.314977,1.70639,0
49440,-0.632929,-0.313678,1.73867,0
49460,-0.650371,-0.314005,1.77193,0
49480,-0.670533,-0.316212,1.80521,0
49500,-0.691763,-0.318446,1.83869,0
49520,-0.710062,-0.32146,1.87375,0
49540,-0.725363,-0.327875,1.90719,0
49560,-0.740333,-0.335947,1.93846,0
49580,-0.758087,-0.34448,1.96915,0
49600,-0.777318,-0.353895,2.0019,0
49620,-0.79516,-0.365598,2.03432,0
49640,-0.80717,-0.380842,2.06306,0
49660,-0.821332,-0.396988,2.08977,0
49680,-0.836489,-0.415481,2.11561,0
49700,-0.852459,-0.437239,2.13905,0
49720,-0.866781,-0.459868,2.15851,0
49740,-0.879809,-0.484338,2.17594,0
49760,-0.896384,-0.512723,2.19134,0
49780,-0.914249,-0.543564,2.20232,0
49800,-0.932047,-0.580206,2.21218,0
49820,-0.952162,-0.616348,2.21716,0
49840,-0.972775,-0.654126,2.22045,0
49860,-0.992885,-0.693657,2.22369,0
49880,-1.01577,-0.732663,2.22417,0
49900,-1.03653,-0.772527,2.21917,0
49920,-1.05293,-0.809129,2.20893,0
49940,-1.06374,-0.847154,2.19359,0
49960,-1.0683,-0.88611,2.17196,0
49970,-1.06458,-0.924371,2.14122,0
49990,-1.05365,-0.960806,2.10061,0
50010,-1.03269,-0.995369,2.05091,0
50030,-1.00044,-1.02746,1.99309,0
50050,-0.957715,-1.05586,1.92568,0
50070,-0.903334,-1.07915,1.84561,0
50090,-0.837466,-1.09598,1.75547,0
50110,-0.761838,-1.10559,1.65945,0
50130,-0.680581,-1.11257,1.55914,0
50150,-0.599285,-1.1113,1.45786,0
50170,-0.5204,-1.10146,1.35781,0
50190,-0.453083,-1.08165,1.27193,0
50210,-0.396033,-1.05798,1.20096,0
50230,-0.353507,-1.03572,1.14593,0
50250,-0.323922,-1.01081,1.10558,0
50270,-0.306689,-0.983351,1.08197,0
50290,-0.296126,-0.959838,1.07487,0
50310,-0.282789,-0.941877,1.07255,0
50330,-0.274721,-0.925325,1.07257,0
50350,-0.275423,-0.901665,1.07498,0
50370,-0.282219,-0.876536,1.08581,0
50390,-0.296112,-0.851251,1.10235,0
50410,-0.311531,-0.826655,1.12127,0
50430,-0.330085,-0.800001,1.14669,0
50450,-0.348226,-0.773779,1.17459,0
50470,-0.361832,-0.750915,1.20262,0
50490,-0.384028,-0.725913,1.22892,0
50510,-0.399813,-0.703475,1.25496,0
50530,-0.420495,-0.682918,1.28608,0
50550,-0.433374,-0.664051,1.31344,0
50570,-0.447062,-0.645336,1.33962,0
50590,-0.466866,-0.628443,1.36781,0
50610,-0.484325,-0.611812,1.3974,0
50630,-0.4994,-0.59609,1.42627,0
50650,-0.507936,-0.581098,1.45168,0
50670,-0.520665,-0.568845,1.47825,0
50690,-0.53719,-0.558062,1.50642,0
50710,-0.553114,-0.545363,1.5334,0
50730,-0.564774,-0.532972,1.55796,0
50750,-0.577482,-0.523416,1.58398,0
50770,-0.592068,-0.516857,1.61026,0
50790,-0.607358,-0.510576,1.63725,0
50810,-0.623204,-0.504494,1.66331,0
50830,-0.640387,-0.499051,1.69033,0
50850,-0.661149,-0.496045,1.71946,0
50870,-0.679239,-0.494741,1.74769,0
50890,-0.696934,-0.49423,1.77515,0
50910,-0.718282,-0.496514,1.80507,0
50930,-0.743724,-0.500438,1.83615,0
50950,-0.767465,-0.5032,1.86617,0
50970,-0.787074,-0.505987,1.89583,0
50990,-0.802699,-0.513093,1.92241,0
51010,-0.817171,-0.522196,1.94631,0
51030,-0.832135,-0.532553,1.97095,0
51050,-0.845771,-0.546344,1.99771,0
51070,-0.858401,-0.562039,2.02151,0
51090,-0.869581,-0.578048,2.04387,0
51110,-0.887286,-0.596064,2.06963,0
51130,-0.905882,-0.619114,2.09417,0
51150,-0.92444,-0.644326,2.11602,0
51170,-0.945128,-0.67254,2.13418,0
51190,-0.965085,-0.702807,2.15059,0
51210,-0.984322,-0.734554,2.16426,0
51230,-1.00294,-0.768477,2.17375,0
51250,-1.01975,-0.802076,2.18026,0
51270,-1.03704,-0.835293,2.18469,0
51290,-1.05331,-0.868499,2.18881,0
51310,-1.06883,-0.901232,2.19055,0
51330,-1.0836,-0.933042,2.19095,0
51350,-1.09788,-0.963028,2.19013,0
51370,-1.11034,-0.992119,2.18566,0
51390,-1.11784,-1.02103,2.1759,0
51410,-1.12077,-1.04964,2.16167,0
51430,-1.11837,-1.07631,2.14122,0
51450,-1.10501,-1.10282,2.10998,0
51470,-1.08316,-1.12823,2.07104,0
51490,-1.05632,-1.15201,2.02438,0
51510,-1.01531,-1.17428,1.96302,0
51530,-0.95898,-1.19375,1.88916,0
51550,-0.89653,-1.2111,1.80795,0
51570,-0.830033,-1.22431,1.72238,0
51590,-0.760221,-1.23085,1.63254,0
51610,-0.676623,-1.22985,1.52938,0
51630,-0.596022,-1.22374,1.43152,0
51650,-0.527068,-1.21362,1.3445,0
51670,-0.46654,-1.19815,1.26573,0
51690,-0.41385,-1.17942,1.19909,0
51710,-0.370945,-1.15941,1.14268,0
51730,-0.341578,-1.1366,1.09775,0
51750,-0.320079,-1.11203,1.06429,0
51770,-0.301513,-1.08762,1.03816,0
51790,-0.292325,-1.06004,1.02038,0
51810,-0.285456,-1.03255,1.00774,0
51830,-0.28293,-1.00498,1.00355,0
51850,-0.290606,-0.977511,1.00585,0
51870,-0.299815,-0.94963,1.01217,0
51890,-0.307092,-0.922556,1.01913,0
51910,-0.315043,-0.897734,1.03095,0
51930,-0.331457,-0.873293,1.04934,0
51950,-0.347651,-0.849631,1.06828,0
51970,-0.36057,-0.827623,1.08749,0
51990,-0.373861,-0.80712,1.10722,0
52010,-0.395739,-0.787191,1.13118,0
52030,-0.420543,-0.767711,1.15805,0
52050,-0.439474,-0.749086,1.18614,0
52070,-0.455854,-0.734162,1.21446,0
52090,-0.474578,-0.720524,1.24187,0
52110,-0.495403,-0.704913,1.26978,0
52130,-0.513357,-0.691146,1.29781,0
52150,-0.530537,-0.680317,1.32644,0
52170,-0.548253,-0.669408,1.35406,0
52190,-0.567387,-0.656981,1.38102,0
52210,-0.583923,-0.64448,1.40687,0
52230,-0.600854,-0.6352,1.43524,0
52250,-0.617975,-0.628176,1.4636,0
52270,-0.634253,-0.621057,1.4909,0
52290,-0.654464,-0.613397,1.51966,0
52310,-0.676935,-0.608106,1.5507,0
52330,-0.695768,-0.603595,1.58034,0
52350,-0.713486,-0.599548,1.60989,0
52370,-0.732938,-0.597549,1.64049,0
52390,-0.754277,-0.598083,1.67278,0
52410,-0.775211,-0.599914,1.70469,0
52430,-0.795291,-0.60275,1.73483,0
52450,-0.814283,-0.606268,1.76383,0
52470,-0.837637,-0.611525,1.79464,0
52490,-0.863395,-0.617589,1.82501,0
52510,-0.8902,-0.623517,1.85417,0
52530,-0.917012,-0.629238,1.88372,0
52550,-0.946843,-0.635815,1.91518,0
52570,-0.9787,-0.643443,1.947,0
52590,-1.01251,-0.651579,1.97848,0
52610,-1.0483,-0.660053,2.0111,0
52630,-1.08172,-0.670607,2.04301,0
52650,-1.11002,-0.682957,2.07417,0
52660,-1.135,-0.697213,2.1037,0
52680,-1.15693,-0.713413,2.12999,0
52700,-1.17481,-0.731311,2.15504,0
52720,-1.19249,-0.750758,2.17956,0
52740,-1.20664,-0.772209,2.20137,0
52760,-1.2179,-0.79541,2.22152,0
52780,-1.22703,-0.820927,2.24073,0
52800,-1.23899,-0.845148,2.25984,0
52820,-1.25349,-0.868544,2.27652,0
52840,-1.26871,-0.891211,2.2937,0
52860,-1.28214,-0.912875,2.31205,0
52880,-1.29523,-0.932721,2.32898,0
52900,-1.30779,-0.951005,2.34591,0
52920,-1.31932,-0.97,2.35954,0
52940,-1.32675,-0.988632,2.37179,0
52960,-1.33331,-1.00626,2.38357,0
52980,-1.33661,-1.02357,2.39251,0
53000,-1.3372,-1.04012,2.40037,0
53020,-1.33752,-1.05502,2.40466,0
53040,-1.33804,-1.06513,2.40752,1001
53060,-1.33715,-1.07293,2.40809,0
53080,-1.33665,-1.08,2.40921,0
53100,-1.33827,-1.0856,2.40933,0
53120,-1.34033,-1.08897,2.40931,0
53140,-1.34297,-1.09063,2.41332,0
53160,-1.34664,-1.09345,2.41833,0
53180,-1.35163,-1.09492,2.42149,0
53200,-1.35332,-1.09539,2.42198,0
53220,-1.35502,-1.09578,2.42506,0
53240,-1.3555,-1.09655,2.42795,0
53260,-1.35582,-1.09712,2.42729,0
53280,-1.3549,-1.09607,2.42401,0
53300,-1.35067,-1.09612,2.4198,0
53320,-1.34634,-1.09696,2.41756,0
53340,-1.34175,-1.0979,2.41335,0
53360,-1.3416,-1.09901,2.4126,0
53380,-1.3409,-1.09836,2.41286,0
53400,-1.33106,-1.09779,2.40417,0
53420,-1.30728,-1.10283,2.38243,0
53440,-1.28124,-1.10171,2.35871,0
53460,-1.25815,-1.09533,2.33771,0
53480,-1.23445,-1.08868,2.31169,0
53500,-1.20417,-1.07625,2.27318,0
53520,-1.17189,-1.05445,2.22621,0
53540,-1.13644,-1.02284,2.17567,0
53560,-1.11,-0.980543,2.14036,0
53580,-1.07847,-0.928748,2.10323,0
53600,-1.03953,-0.866734,2.06264,0
53620,-0.99669,-0.793629,2.02634,0
53640,-0.956664,-0.716536,1.99496,0
53660,-0.914576,-0.639095,1.96841,0
53680,-0.874429,-0.562342,1.94994,0
53700,-0.843856,-0.491305,1.93819,0
53720,-0.812924,-0.435652,1.92796,0
53740,-0.785022,-0.40199,1.92733,0
53760,-0.761101,-0.384175,1.93123,0
53780,-0.744935,-0.37456,1.93865,0
53800,-0.736657,-0.365853,1.9483,0
53820,-0.738776,-0.358771,1.95905,0
53840,-0.751142,-0.355852,1.96938,0
53860,-0.767875,-0.355317,1.97995,0
53880,-0.782836,-0.353532,1.98953,0
53900,-0.792812,-0.350722,1.99778,0
53920,-0.797643,-0.347857,2.00361,0
53940,-0.80225,-0.344117,2.00811,0
53960,-0.807388,-0.338531,2.01122,0
53980,-0.810202,-0.331184,2.0118,0
54000,-0.810442,-0.324094,2.01067,0
54020,-0.810087,-0.317355,2.0082,0
54040,-0.810428,-0.309316,2.00645,0
54060,-0.807823,-0.299964,2.00505,0
54080,-0.80192,-0.293268,2.00381,1000
54100,-0.798313,-0.29221,2.0056,0
54120,-0.795564,-0.290607,2.00759,0
54140,-0.795629,-0.290513,2.00757,0
54160,-0.797312,-0.291154,2.00826,0
54180,-0.798698,-0.292029,2.01024,0
54200,-0.799582,-0.293449,2.01067,0
54220,-0.801144,-0.294216,2.00909,0
54240,-0.802022,-0.294909,2.00675,0
54260,-0.80195,-0.295343,2.00552,0
54280,-0.80094,-0.296343,2.00455,0
54300,-0.800097,-0.29631,2.00346,0
54320,-0.800414,-0.296191,2.00292,0
54340,-0.800338,-0.296253,2.00333,0
54360,-0.800206,-0.296265,2.00436,0
54380,-0.800009,-0.296578,2.00558,0
54400,-0.799747,-0.297005,2.00717,0
54420,-0.799089,-0.297967,2.00927,0
54440,-0.799356,-0.299314,2.01395,0
54460,-0.797826,-0.303034,2.01904,0
54480,-0.796129,-0.308552,2.02468,0
54500,-0.794559,-0.31743,2.03279,0
54520,-0.792892,-0.326591,2.04095,0
54540,-0.78995,-0.337561,2.04869,0
54560,-0.788045,-0.349641,2.05573,0
54580,-0.787265,-0.36388,2.06254,0
54600,-0.785994,-0.378394,2.06952,0
54620,-0.786294,-0.394147,2.07476,0
54630,-0.788861,-0.41151,2.07735,0
54650,-0.791944,-0.430456,2.0774,0
54670,-0.793687,-0.450674,2.07684,0
54690,-0.795735,-0.473146,2.07322,0
54700,-0.798906,-0.497939,2.06546,0
54720,-0.804301,-0.522437,2.05755,0
54730,-0.808695,-0.546825,2.05034,0
54750,-0.813796,-0.571322,2.04266,0
54770,-0.819212,-0.594969,2.03294,0
54790,-0.825826,-0.617808,2.0227,0
54810,-0.832631,-0.639419,2.01202,0
54830,-0.839263,-0.661252,2.00119,0
54850,-0.84544,-0.682701,1.98773,0
54870,-0.849763,-0.70176,1.96851,0
54890,-0.852239,-0.718001,1.94885,0
54910,-0.854635,-0.733851,1.93081,0
54930,-0.855155,-0.749798,1.90848,0
54950,-0.853608,-0.764481,1.88217,0
54970,-0.847834,-0.778195,1.85364,0
54990,-0.839016,-0.791714,1.82434,0
55010,-0.828003,-0.805958,1.79317,0
55030,-0.813811,-0.818712,1.75689,0
55050,-0.796787,-0.829278,1.71775,0
55080,-0.733115,-0.855203,1.59377,0
55100,-0.706824,-0.860801,1.54792,0
55120,-0.679175,-0.864591,1.50436,0
55140,-0.649683,-0.867268,1.46089,0
55160,-0.619089,-0.866895,1.4151,0
55180,-0.587934,-0.863768,1.3693,0
55200,-0.558394,-0.858071,1.32656,0
55220,-0.531491,-0.850025,1.28765,0
55240,-0.503885,-0.840276,1.24872,0
55260,-0.47738,-0.827099,1.2088,0
55280,-0.456021,-0.811005,1.17455,0
55300,-0.43931,-0.794991,1.14964,0
55320,-0.421885,-0.778982,1.12846,0
55340,-0.408614,-0.758927,1.10985,0
55360,-0.401042,-0.738084,1.09797,0
55380,-0.396563,-0.719501,1.09391,0
55400,-0.391444,-0.7019,1.09549,0
55420,-0.38279,-0.684934,1.09809,0
55440,-0.371133,-0.67117,1.09948,0
55460,-0.363477,-0.660246,1.10362,0
55480,-0.358344,-0.644299,1.10799,0
55500,-0.356251,-0.627158,1.10712,0
55520,-0.356877,-0.607965,1.10896,0
55540,-0.361741,-0.587252,1.1175,0
55560,-0.362622,-0.568239,1.12672,0
55580,-0.362039,-0.55168,1.13144,0
55600,-0.365472,-0.53704,1.13916,0
55620,-0.373545,-0.523071,1.15246,0
55640,-0.382358,-0.507642,1.16432,0
55660,-0.386618,-0.492492,1.17174,0
55680,-0.390826,-0.478717,1.18085,0
55700,-0.394592,-0.467348,1.19244,0
55720,-0.39886,-0.45675,1.20348,0
55740,-0.403985,-0.445834,1.21307,0
55760,-0.406255,-0.437578,1.22169,0
55780,-0.408265,-0.431665,1.23183,0
55800,-0.41186,-0.427254,1.24385,0
55820,-0.417657,-0.421849,1.25344,0
55840,-0.421232,-0.415928,1.26345,0
55860,-0.423919,-0.411593,1.27589,0
55880,-0.426583,-0.408426,1.28803,0
55900,-0.431862,-0.403956,1.29944,0
55920,-0.437776,-0.399045,1.31189,0
55940,-0.442891,-0.39489,1.32516,0
55960,-0.447586,-0.391517,1.33816,0
55980,-0.453849,-0.38783,1.35185,0
56000,-0.459115,-0.383917,1.36625,0
56020,-0.463869,-0.380313,1.38067,0
56040,-0.468413,-0.376976,1.39519,0
56060,-0.473858,-0.374261,1.4094,0
56080,-0.479432,-0.371129,1.42392,0
56100,-0.484326,-0.367773,1.43882,0
56120,-0.488604,-0.364809,1.45407,0
56140,-0.494596,-0.362193,1.46991,0
56160,-0.501155,-0.358814,1.48544,0
56180,-0.50743,-0.355701,1.50159,0
56200,-0.514584,-0.353505,1.51809,0
56220,-0.522919,-0.350263,1.53429,0
56240,-0.531178,-0.346356,1.55082,0
56260,-0.538585,-0.34321,1.56711,0
56280,-0.544977,-0.340007,1.58292,0
56300,-0.55233,-0.336145,1.5988,0
56320,-0.560591,-0.332837,1.61516,0
56340,-0.567543,-0.330096,1.63062,0
56360,-0.575258,-0.327768,1.64709,0
56380,-0.583315,-0.326859,1.66419,0
56400,-0.591546,-0.32625,1.68187,0
56420,-0.601408,-0.325195,1.69854,0
56440,-0.612831,-0.323758,1.7167,0
56460,-0.624093,-0.324153,1.73542,0
56480,-0.633502,-0.325393,1.75341,0
56500,-0.642202,-0.326475,1.77029,0
56520,-0.653552,-0.327776,1.78872,0
56540,-0.662875,-0.330187,1.80753,0
56560,-0.670586,-0.333796,1.82495,0
56580,-0.680229,-0.338479,1.84277,0
56600,-0.692962,-0.343393,1.86221,0
56620,-0.705381,-0.348181,1.88189,0
56640,-0.717099,-0.355301,1.89941,0
56660,-0.726874,-0.364393,1.91647,0
56680,-0.739858,-0.373498,1.93395,0
56700,-0.750698,-0.384495,1.9518,0
56720,-0.757441,-0.397595,1.96842,0
56740,-0.760544,-0.411623,1.98359,0
56760,-0.766267,-0.425744,1.99909,0
56780,-0.776397,-0.441591,2.01585,0
56800,-0.786098,-0.458714,2.03141,0
56820,-0.794314,-0.476314,2.04719,0
56840,-0.805604,-0.494203,2.06446,0
56860,-0.81846,-0.514177,2.08184,0
56880,-0.829929,-0.534627,2.09902,0
56900,-0.842088,-0.556074,2.11484,0
56920,-0.856601,-0.579089,2.1321,0
56940,-0.870722,-0.601828,2.14857,0
56960,-0.882556,-0.62538,2.15887,0
56980,-0.892213,-0.649612,2.16572,0
57000,-0.901467,-0.674552,2.17289,0
57020,-0.909086,-0.699811,2.17611,0
57040,-0.914356,-0.726756,2.17365,0
57060,-0.919482,-0.752199,2.16692,0
57080,-0.924873,-0.777367,2.15965,0
57100,-0.92809,-0.804716,2.15066,0
57120,-0.9275,-0.832414,2.13431,0
57140,-0.921689,-0.858663,2.11097,0
57160,-0.913657,-0.884249,2.08584,0
57180,-0.90305,-0.909966,2.0588,0
57200,-0.886879,-0.933693,2.02576,0
57220,-0.864768,-0.954273,1.98706,0
57240,-0.839527,-0.972867,1.94656,0
57260,-0.809558,-0.989417,1.90281,0
57280,-0.776043,-1.00294,1.85543,0
57300,-0.741034,-1.01309,1.80655,0
57320,-0.701487,-1.01968,1.75465,0
57340,-0.660751,-1.02551,1.70508,0
57360,-0.623106,-1.03074,1.6593,0
57380,-0.587107,-1.03337,1.6131,0
57400,-0.548961,-1.03398,1.56545,0
57420,-0.509412,-1.03424,1.51991,0
57440,-0.474609,-1.03449,1.47991,0
57460,-0.442162,-1.03317,1.44054,0
57480,-0.40958,-1.02906,1.40068,0
57500,-0.380616,-1.02409,1.36729,0
57520,-0.356145,-1.021,1.34149,0
57540,-0.33207,-1.01673,1.31465,0
57560,-0.311651,-1.00853,1.28904,0
57580,-0.291435,-0.999208,1.2651,0
57600,-0.275249,-0.990274,1.24523,0
57620,-0.264531,-0.98059,1.23075,0
57640,-0.254815,-0.969791,1.21736,0
57660,-0.240874,-0.960091,1.20196,0
57680,-0.232329,-0.951084,1.19185,0
57700,-0.226152,-0.939614,1.18375,0
57720,-0.225276,-0.928516,1.17891,0
57740,-0.22084,-0.919532,1.17611,0
57760,-0.221216,-0.914575,1.17707,0
57780,-0.220364,-0.905301,1.17429,0
57800,-0.222027,-0.892688,1.17104,0
57820,-0.226345,-0.88002,1.17061,0
57840,-0.22939,-0.869099,1.17198,0
57860,-0.230153,-0.858704,1.17019,0
57880,-0.238539,-0.8454,1.17038,0
57900,-0.24591,-0.832836,1.1703,0
57920,-0.249604,-0.823328,1.17224,0
57940,-0.253794,-0.815474,1.17336,0
57960,-0.264332,-0.804768,1.17524,0
57980,-0.276143,-0.793913,1.17965,0
58000,-0.283843,-0.78552,1.18561,0
58010,-0.287297,-0.777914,1.1901,0
58030,-0.295807,-0.767267,1.19394,0
58050,-0.308871,-0.755461,1.19961,0
58070,-0.319801,-0.744513,1.20564,0
58090,-0.325586,-0.735638,1.2117,0
58110,-0.338292,-0.723118,1.21921,0
58130,-0.34868,-0.709713,1.22597,0
58150,-0.357895,-0.698004,1.23299,0
58170,-0.366426,-0.688789,1.24162,0
58190,-0.377505,-0.680388,1.25395,0
58210,-0.393385,-0.669725,1.2674,0
58230,-0.403706,-0.66004,1.27973,0
58250,-0.414658,-0.651949,1.29275,0
58270,-0.425831,-0.64482,1.30709,0
58290,-0.443152,-0.635032,1.32319,0
58310,-0.453667,-0.626452,1.33821,0
58330,-0.462485,-0.620605,1.35276,0
58350,-0.471633,-0.615775,1.36752,0
58370,-0.482439,-0.609458,1.38293,0
58390,-0.494729,-0.60267,1.39955,0
58410,-0.503664,-0.597118,1.41568,0
58430,-0.513333,-0.592559,1.43196,0
58450,-0.526555,-0.587256,1.44974,0
58470,-0.539082,-0.581788,1.46835,0
58490,-0.550835,-0.576713,1.48709,0
58510,-0.562795,-0.572222,1.50471,0
58530,-0.576461,-0.567064,1.52302,0
58550,-0.589606,-0.562718,1.54115,0
58570,-0.600352,-0.559322,1.55932,0
58590,-0.611003,-0.556626,1.57732,0
58610,-0.622516,-0.553726,1.59414,0
58630,-0.634291,-0.55065,1.61165,0
58650,-0.645242,-0.548379,1.62955,0
58670,-0.65509,-0.546832,1.64752,0
58690,-0.667093,-0.545969,1.6653,0
58710,-0.68104,-0.545334,1.68363,0
58730,-0.693671,-0.544256,1.70202,0
58750,-0.704954,-0.543449,1.72001,0
58770,-0.715696,-0.543944,1.73775,0
58790,-0.72852,-0.545381,1.7558,0
58810,-0.741743,-0.546359,1.77418,0
58830,-0.753541,-0.547279,1.79286,0
58850,-0.765175,-0.549665,1.81263,0
58870,-0.778928,-0.553287,1.83276,0
58890,-0.795042,-0.557111,1.85426,0
58910,-0.809616,-0.561026,1.87615,0
58930,-0.822774,-0.567023,1.89858,0
58950,-0.835155,-0.575737,1.92118,0
58970,-0.849654,-0.58555,1.94336,0
58990,-0.864947,-0.595445,1.96438,0
59010,-0.876413,-0.60525,1.98412,0
59030,-0.884723,-0.618037,2.00457,0
59050,-0.895197,-0.634067,2.02512,0
59070,-0.907415,-0.65048,2.04127,0
59090,-0.918852,-0.665135,2.05473,0
59110,-0.929433,-0.681492,2.06913,0
59130,-0.935015,-0.701375,2.08245,0
59150,-0.940202,-0.724246,2.09407,0
59170,-0.949675,-0.747415,2.10373,0
59190,-0.960735,-0.770387,2.11194,0
59210,-0.9708,-0.79426,2.12081,0
59230,-0.979555,-0.81942,2.12602,0
59250,-0.987362,-0.844814,2.12838,0
59270,-0.994833,-0.870784,2.12924,0
59290,-1.00283,-0.896873,2.13109,0
59310,-1.00748,-0.923199,2.12608,0
59330,-1.00785,-0.948806,2.11693,0
59350,-1.00755,-0.973398,2.10866,0
59370,-1.00594,-0.99797,2.09946,0
59390,-0.999723,-1.02419,2.08658,0
59410,-0.992607,-1.04772,2.06797,0
59430,-0.981395,-1.06849,2.04317,0
59450,-0.965271,-1.08912,2.01762,0
59470,-0.947235,-1.11207,1.9922,0
59490,-0.928095,-1.13334,1.96294,0
59510,-0.90129,-1.15131,1.92408,0
59530,-0.863548,-1.16749,1.87577,0
59550,-0.823067,-1.18265,1.82989,0
59570,-0.777258,-1.1969,1.77708,0
59590,-0.726235,-1.20645,1.71704,0
59610,-0.672955,-1.21263,1.65614,0
59630,-0.618696,-1.217,1.59692,0
59650,-0.563033,-1.22061,1.53703,0
59670,-0.511006,-1.22157,1.47774,0
59690,-0.458175,-1.21966,1.41811,0
59710,-0.407846,-1.21717,1.36261,0
59730,-0.36311,-1.2136,1.31153,0
59750,-0.324852,-1.20573,1.26302,0
59770,-0.291072,-1.19387,1.21934,0
59790,-0.267553,-1.177,1.18433,0
59810,-0.243446,-1.15914,1.15354,0
59830,-0.22292,-1.14189,1.12779,0
59850,-0.209623,-1.12443,1.10853,0
59870,-0.203776,-1.1045,1.09469,0
59890,-0.202778,-1.08491,1.09,0
59910,-0.200701,-1.0679,1.08703,0
59930,-0.201001,-1.04981,1.08427,0
59950,-0.212434,-1.02755,1.08624,0
59970,-0.225483,-1.00703,1.09397,0
59980,-0.235082,-0.988665,1.10134,0
60000,-0.248667,-0.967961,1.11103,0
60020,-0.267035,-0.945741,1.12041,0
60040,-0.285568,-0.925779,1.13485,0
60060,-0.303529,-0.906938,1.14844,0
60080,-0.316163,-0.89022,1.15984,0
60100,-0.332783,-0.873453,1.17313,0
60120,-0.351171,-0.855636,1.18705,0
60140,-0.365755,-0.839118,1.2017,0
60160,-0.376656,-0.824426,1.21338,0
60180,-0.389071,-0.809156,1.22413,0
60200,-0.405903,-0.793769,1.23694,0
60220,-0.419217,-0.780594,1.25244,0
60240,-0.428665,-0.771207,1.26627,0
60260,-0.441283,-0.760996,1.27949,0
60280,-0.456271,-0.749694,1.29419,0
60300,-0.472549,-0.739137,1.31232,0
60320,-0.488502,-0.731462,1.33096,0
60340,-0.508108,-0.722046,1.34933,0
60360,-0.525147,-0.711761,1.36733,0
60380,-0.53821,-0.70293,1.38671,0
60400,-0.547598,-0.696698,1.40557,0
60420,-0.558616,-0.690099,1.42474,0
60440,-0.572848,-0.683007,1.44409,0
60460,-0.586142,-0.675706,1.46537,0
60480,-0.59966,-0.668609,1.48791,0
60500,-0.613078,-0.663571,1.51091,0
60520,-0.628297,-0.658618,1.53286,0
60540,-0.646915,-0.653857,1.55616,0
60560,-0.665636,-0.649426,1.58089,0
60580,-0.684495,-0.645557,1.60586,0
60600,-0.702554,-0.642615,1.63004,0
60620,-0.722356,-0.640263,1.65357,0
60640,-0.743,-0.638033,1.6776,0
60660,-0.761528,-0.636444,1.70108,0
60680,-0.778334,-0.636817,1.72408,0
60700,-0.795313,-0.637358,1.74516,0
60720,-0.81336,-0.638845,1.76684,0
60740,-0.830544,-0.64219,1.78762,0
60760,-0.847365,-0.645551,1.80868,0
60780,-0.865632,-0.649596,1.83089,0
60800,-0.883129,-0.654523,1.85255,0
60820,-0.901515,-0.661158,1.87466,0
60840,-0.921274,-0.668802,1.89767,0
60860,-0.943292,-0.677334,1.92195,0
60880,-0.965217,-0.687335,1.94665,0
60900,-0.986276,-0.697691,1.9718,0
60920,-1.00784,-0.709609,1.99678,0
60940,-1.03207,-0.721659,2.02224,0
60960,-1.05466,-0.733327,2.04717,0
60980,-1.07586,-0.746023,2.07274,0
61000,-1.09972,-0.759679,2.09819,0
61020,-1.12154,-0.774659,2.12168,0
61040,-1.14508,-0.789947,2.14579,0
61060,-1.16512,-0.807518,2.16942,0
61080,-1.18558,-0.826416,2.19246,0
61100,-1.20771,-0.84459,2.21458,0
61120,-1.22779,-0.862018,2.23412,0
61140,-1.24545,-0.880129,2.25315,0
61160,-1.26135,-0.899226,2.27221,0
61180,-1.27638,-0.918117,2.28917,0
61200,-1.28888,-0.934662,2.30451,0
61220,-1.30121,-0.951281,2.32185,0
61240,-1.31388,-0.969986,2.34018,0
61260,-1.32685,-0.987721,2.35834,0
61280,-1.34294,-1.00367,2.37707,0
61300,-1.35871,-1.01949,2.39394,0
61320,-1.37162,-1.03371,2.40927,0
61340,-1.38483,-1.04572,2.42423,0
61360,-1.39547,-1.05508,2.43455,0
61380,-1.40319,-1.0629,2.4446,0
61400,-1.41017,-1.06934,2.45323,0
61420,-1.41393,-1.07303,2.45719,0
61440,-1.41641,-1.07499,2.46106,0
61460,-1.41763,-1.07448,2.46206,0
61480,-1.41676,-1.07323,2.46028,0
61500,-1.41789,-1.07132,2.4604,0
61520,-1.41985,-1.06866,2.46187,0
61540,-1.42195,-1.06644,2.46424,0
61560,-1.42565,-1.06453,2.4669,0
61580,-1.42713,-1.06354,2.46612,0
61600,-1.42811,-1.06233,2.46405,0
61620,-1.42954,-1.06053,2.46357,0
61640,-1.4287,-1.05997,2.46211,0
61660,-1.42767,-1.06032,2.46034,0
61680,-1.42566,-1.06071,2.45635,0
61700,-1.42494,-1.06002,2.45457,0
61720,-1.42395,-1.05934,2.45346,0
61740,-1.4235,-1.05954,2.45347,0
61760,-1.42443,-1.05939,2.45269,0
61780,-1.4258,-1.05942,2.45026,0
61800,-1.4254,-1.05879,2.44794,0
61820,-1.42364,-1.05874,2.44561,0
61840,-1.42158,-1.05976,2.44182,0
61860,-1.42105,-1.06017,2.43928,0
61880,-1.42042,-1.06094,2.43773,0
61900,-1.4212,-1.06179,2.43818,0
61920,-1.42385,-1.06233,2.43926,0
61940,-1.4281,-1.06237,2.44169,0
61960,-1.4335,-1.06107,2.44388,0
61980,-1.43825,-1.05972,2.44265,0
62000,-1.44033,-1.05722,2.43905,0
62020,-1.44201,-1.05722,2.4374,0
62040,-1.44657,-1.0579,2.43964,0
62060,-1.45143,-1.05923,2.44007,0
62080,-1.45646,-1.05995,2.43983,0
62100,-1.46198,-1.06088,2.44088,0
62120,-1.46673,-1.06209,2.44316,0
62140,-1.47255,-1.06319,2.44649,0
62160,-1.47842,-1.06465,2.44964,0
62180,-1.48402,-1.0654,2.45312,0
62200,-1.48876,-1.06614,2.4586,0
62220,-1.49582,-1.06851,2.46682,0
62240,-1.50261,-1.07016,2.4731,1001
62260,-1.50741,-1.07047,2.47573,0
62280,-1.51188,-1.07013,2.48176,0
62300,-1.51636,-1.07022,2.48819,0
62320,-1.52153,-1.07051,2.49198,0
62340,-1.52627,-1.06942,2.49485,0
62360,-1.52982,-1.06968,2.49987,0
62380,-1.53217,-1.07137,2.50532,0
62400,-1.53545,-1.07359,2.5093,0
62420,-1.53726,-1.0758,2.51178,0
62440,-1.53906,-1.07833,2.51534,0
62460,-1.53942,-1.08067,2.51718,0
62480,-1.53933,-1.08218,2.51781,0
62500,-1.5394,-1.08239,2.51779,0
62520,-1.53922,-1.08228,2.51737,0
62540,-1.53984,-1.08119,2.51578,0
62560,-1.53823,-1.08036,2.51262,0
62580,-1.53598,-1.07985,2.50956,0
62600,-1.53588,-1.07926,2.50766,0
62620,-1.53486,-1.08007,2.50628,0
62640,-1.53344,-1.08088,2.50579,0
62660,-1.53249,-1.08178,2.50527,0
62680,-1.53426,-1.08268,2.50957,0
62700,-1.53615,-1.08319,2.5151,0
62720,-1.53767,-1.083,2.52032,0
62740,-1.52753,-1.08469,2.50548,0
62760,-1.50461,-1.08998,2.48273,0
62780,-1.47775,-1.08564,2.4633,0
62800,-1.45094,-1.08179,2.44164,0
62820,-1.41294,-1.08011,2.40457,0
62840,-1.36757,-1.07627,2.35775,0
62860,-1.31901,-1.06708,2.30768,0
62880,-1.25769,-1.05322,2.25225,0
62900,-1.1888,-1.03177,2.18817,0
62920,-1.12978,-1.00629,2.1298,0
62940,-1.06177,-0.972486,2.06248,0
62960,-0.988825,-0.922378,1.99925,0
62980,-0.921561,-0.859027,1.94806,0
63000,-0.860152,-0.784058,1.9016,0
63020,-0.798093,-0.698715,1.86457,0
63050,-0.638008,-0.449876,1.83623,0
63070,-0.606076,-0.375905,1.83433,0
63090,-0.598863,-0.319603,1.83949,0
63110,-0.597834,-0.295542,1.85419,0
63130,-0.59878,-0.295567,1.87283,0
63150,-0.60779,-0.311261,1.89448,0
63170,-0.628074,-0.32795,1.9213,0
63190,-0.65445,-0.353542,1.94991,0
63210,-0.683198,-0.379362,1.97836,0
63230,-0.714814,-0.401918,2.00676,0
63250,-0.744369,-0.423275,2.02996,0
63270,-0.770416,-0.439493,2.05349,0
63290,-0.794813,-0.451973,2.078,0
63310,-0.815154,-0.462584,2.09785,0
63330,-0.831814,-0.471205,2.1142,0
63340,-0.846855,-0.478695,2.13076,0
63360,-0.859745,-0.486931,2.14372,0
63380,-0.869925,-0.493834,2.15379,0
63400,-0.877894,-0.49938,2.15943,0
63420,-0.887058,-0.504644,2.16367,0
63440,-0.898791,-0.51045,2.1679,0
63460,-0.90863,-0.514865,2.16941,0
63480,-0.917573,-0.518373,2.16932,0
63500,-0.927603,-0.521407,2.16812,0
63520,-0.937607,-0.523357,2.16744,0
63540,-0.944821,-0.523876,2.16483,0
63560,-0.949672,-0.523689,2.15915,0
63580,-0.955307,-0.521922,2.15548,0
63600,-0.962016,-0.518651,2.15178,0
63620,-0.969346,-0.515537,2.14466,0
63640,-0.974733,-0.510756,2.13453,0
63660,-0.98181,-0.49935,2.12613,0
63680,-0.987711,-0.483139,2.11853,0
63700,-0.986156,-0.472584,2.10945,0
63720,-0.981131,-0.465846,2.10515,0
63740,-0.976278,-0.461253,2.10555,0
63760,-0.974029,-0.460901,2.10775,0
63780,-0.971154,-0.462057,2.11047,1000
63800,-0.96998,-0.461891,2.11346,0
63820,-0.971095,-0.460697,2.11611,0
63840,-0.97315,-0.4581,2.11679,0
63860,-0.973183,-0.454979,2.1147,0
63880,-0.972665,-0.451514,2.11282,0
63900,-0.971972,-0.447651,2.11197,0
63920,-0.972104,-0.444291,2.1109,0
63940,-0.970948,-0.442759,2.11072,0
63960,-0.969382,-0.442743,2.11085,0
63980,-0.968536,-0.441813,2.11173,0
64000,-0.968479,-0.440357,2.11228,0
64020,-0.966808,-0.439487,2.11218,0
64040,-0.96414,-0.43895,2.11204,0
64060,-0.961176,-0.437596,2.11193,0
64080,-0.957688,-0.434689,2.11257,0
64100,-0.952897,-0.43306,2.11265,0
64120,-0.946765,-0.433259,2.1149,0
64140,-0.943544,-0.435159,2.12071,0
64160,-0.940209,-0.437208,2.12796,0
64180,-0.939251,-0.438134,2.13602,0
64200,-0.940266,-0.439426,2.14412,0
64220,-0.941046,-0.44095,2.15095,0
64240,-0.941051,-0.442562,2.15717,0
64260,-0.941191,-0.446188,2.16174,0
64280,-0.942631,-0.452434,2.16688,0
64300,-0.944755,-0.457798,2.17278,0
64320,-0.94855,-0.460651,2.17966,0
64340,-0.952651,-0.464037,2.18638,0
64360,-0.957093,-0.469572,2.19227,0
64380,-0.961145,-0.47506,2.19813,0
64400,-0.964307,-0.478295,2.20358,0
64420,-0.967618,-0.482368,2.20889,0
64440,-0.970913,-0.488398,2.21344,0
64460,-0.973896,-0.494604,2.21769,0
64480,-0.975617,-0.497455,2.2212,0
64500,-0.977401,-0.50033,2.22384,0
64520,-0.979047,-0.504478,2.22668,0
64540,-0.981046,-0.509103,2.22955,0
64560,-0.98314,-0.511647,2.23196,0
64580,-0.985498,-0.513195,2.23511,0
64600,-0.987812,-0.515732,2.23895,0
64620,-0.990815,-0.518348,2.24356,0
64640,-0.994018,-0.520018,2.24913,0
64660,-0.998124,-0.52209,2.25557,0
64680,-1.00222,-0.525202,2.26195,0
64700,-1.00596,-0.528986,2.26831,0
64720,-1.00976,-0.531724,2.27428,0
64740,-1.01382,-0.53427,2.28048,0
64760,-1.01778,-0.538414,2.28672,0
64780,-1.02129,-0.543262,2.29284,0
64800,-1.02496,-0.548524,2.29901,0
64820,-1.02857,-0.553025,2.30533,0
64840,-1.03128,-0.557958,2.31099,0
64860,-1.03247,-0.563798,2.31518,0
64880,-1.03311,-0.570098,2.31745,0
64900,-1.03472,-0.574901,2.31881,0
64920,-1.03729,-0.576693,2.32109,0
64940,-1.03936,-0.577748,2.32373,0
64960,-1.04253,-0.581033,2.3266,0
64980,-1.04672,-0.584265,2.33055,0
65000,-1.05126,-0.587159,2.33336,0
65020,-1.056,-0.588615,2.33772,0
65040,-1.06163,-0.593451,2.34303,0
65060,-1.07045,-0.602073,2.34916,0
65080,-1.07951,-0.609932,2.35473,0
65100,-1.08658,-0.616525,2.35793,0
65120,-1.09291,-0.622616,2.36022,0
65140,-1.09968,-0.628548,2.3626,0
65160,-1.10596,-0.634097,2.36399,0
65180,-1.11075,-0.638268,2.36427,0
65200,-1.11426,-0.641746,2.36412,0
65220,-1.11774,-0.645563,2.36431,0
65240,-1.12162,-0.649511,2.36541,0
65260,-1.12508,-0.653273,2.36641,0
65280,-1.12793,-0.656875,2.36659,0
65300,-1.13054,-0.660523,2.36592,0
65310,-1.13302,-0.66416,2.3656,0
65330,-1.13595,-0.669322,2.36544,0
65350,-1.13979,-0.673883,2.3656,0
65370,-1.14428,-0.678661,2.36549,0
65390,-1.14916,-0.684244,2.36466,0
65410,-1.15286,-0.689659,2.36251,0
65430,-1.155,-0.693844,2.35905,0
65450,-1.15628,-0.697464,2.35461,0
65470,-1.15722,-0.702217,2.34946,0
65490,-1.15796,-0.707738,2.34378,0
65510,-1.15657,-0.710857,2.33651,0
65530,-1.1544,-0.712942,2.32878,0
65550,-1.15271,-0.716642,2.32188,0
65570,-1.15199,-0.722361,2.31582,0
65590,-1.14959,-0.729774,2.30119,0
65610,-1.14771,-0.732793,2.29324,0
65640,-1.14615,-0.742594,2.2778,0
65680,-1.11817,-0.802211,2.12835,0
65700,-1.11484,-0.811158,2.10949,0
65720,-1.11373,-0.815563,2.10013,0
65740,-1.10548,-0.825465,2.06768,0
65760,-1.10276,-0.829296,2.05595,0
65780,-1.09832,-0.832771,2.04279,0
65800,-1.0935,-0.836072,2.02952,0
65820,-1.0887,-0.83968,2.01637,0
65840,-1.08421,-0.844002,2.00353,0
65860,-1.07994,-0.848356,1.99093,0
65880,-1.07555,-0.851326,1.9781,0
65900,-1.07093,-0.854114,1.96437,0
65920,-1.06552,-0.857505,1.95029,0
65940,-1.06069,-0.861125,1.93709,0
65960,-1.05574,-0.864357,1.92357,0
65970,-1.05071,-0.866907,1.9099,0
65990,-1.04497,-0.869619,1.89604,0
66010,-1.03962,-0.873044,1.88357,0
66030,-1.03501,-0.876424,1.87158,0
66050,-1.03004,-0.879205,1.85902,0
66070,-1.02469,-0.88113,1.84646,0
66090,-1.01922,-0.883043,1.8344,0
66110,-1.0145,-0.885198,1.82307,0
66130,-1.01001,-0.886992,1.81143,0
66150,-1.00481,-0.887819,1.79905,0
66170,-0.999285,-0.88852,1.78657,0
66190,-0.993901,-0.889654,1.77398,0
66210,-0.988722,-0.890838,1.76111,0
66230,-0.981772,-0.891966,1.74689,0
66250,-0.974618,-0.892962,1.7325,0
66270,-0.967314,-0.894071,1.71746,0
66290,-0.959856,-0.894643,1.70216,0
66310,-0.95168,-0.894582,1.68663,0
66330,-0.943203,-0.893992,1.67158,0
66350,-0.934654,-0.892445,1.65608,0
66370,-0.925457,-0.890272,1.63994,0
66390,-0.915098,-0.887339,1.62332,0
66410,-0.904744,-0.883673,1.6073,0
66430,-0.893834,-0.87958,1.59048,0
66450,-0.882676,-0.875065,1.57347,0
66470,-0.87145,-0.870263,1.55634,0
66490,-0.859785,-0.864075,1.53863,0
66510,-0.848385,-0.856952,1.52055,0
66530,-0.837245,-0.84971,1.50237,0
66550,-0.826391,-0.842797,1.48412,0
66570,-0.814809,-0.834345,1.46483,0
66590,-0.804076,-0.824446,1.44563,0
66610,-0.793721,-0.814312,1.42713,0
66630,-0.783536,-0.805087,1.40904,0
66650,-0.773763,-0.795852,1.39156,0
66670,-0.764876,-0.785507,1.37482,0
66690,-0.756606,-0.774491,1.35907,0
66710,-0.749272,-0.765168,1.3449,0
66730,-0.742216,-0.757027,1.33195,0
66750,-0.735279,-0.748582,1.32031,0
66770,-0.727446,-0.740381,1.30885,0
66790,-0.719938,-0.732442,1.29757,0
66810,-0.713975,-0.723867,1.28652,0
66830,-0.708769,-0.714564,1.27574,0
66850,-0.704352,-0.704609,1.2666,0
66870,-0.699592,-0.694635,1.25685,0
66890,-0.694278,-0.684628,1.24642,0
66910,-0.689724,-0.674355,1.23591,0
66930,-0.68606,-0.664165,1.22515,0
66950,-0.681492,-0.653969,1.21416,0
66970,-0.677132,-0.644668,1.20387,0
66990,-0.674575,-0.63618,1.19476,0
67010,-0.674015,-0.62743,1.18737,0
67030,-0.674046,-0.618469,1.18267,0
67050,-0.670646,-0.610707,1.17913,0
67070,-0.668602,-0.604837,1.1796,0
67090,-0.67012,-0.599239,1.18127,0
67110,-0.668748,-0.591946,1.17939,0
67130,-0.663305,-0.584023,1.17505,0
67150,-0.658386,-0.577644,1.17075,0
67170,-0.656157,-0.571236,1.16719,0
67190,-0.660438,-0.563182,1.16387,0
67210,-0.661801,-0.555515,1.1604,0
67230,-0.659534,-0.548312,1.15845,0
67250,-0.655372,-0.542343,1.15791,0
67270,-0.653301,-0.536056,1.15717,0
67290,-0.655349,-0.528197,1.15534,0
67310,-0.655491,-0.52032,1.15324,0
67330,-0.653947,-0.513341,1.15397,0
67350,-0.649922,-0.507467,1.15517,0
67370,-0.647905,-0.50071,1.15449,0
67390,-0.646627,-0.492441,1.15345,0
67410,-0.644001,-0.484286,1.15356,0
67430,-0.64053,-0.477739,1.15603,0
67450,-0.636653,-0.472325,1.15753,0
67470,-0.636176,-0.465379,1.15787,0
67490,-0.636035,-0.457745,1.16016,0
67510,-0.633567,-0.450821,1.1636,0
67530,-0.628976,-0.445265,1.16651,0
67550,-0.629547,-0.438112,1.16833,0
67570,-0.631579,-0.429551,1.17028,0
67590,-0.631562,-0.421062,1.17339,0
67610,-0.628762,-0.414438,1.17712,0
67630,-0.625884,-0.409358,1.18033,0
67650,-0.627557,-0.402871,1.18343,0
67670,-0.630163,-0.395646,1.18764,0
67690,-0.629776,-0.390082,1.19275,0
67710,-0.627887,-0.386217,1.19833,0
67730,-0.628694,-0.382347,1.20425,0
67750,-0.632135,-0.377442,1.21062,0
67770,-0.633905,-0.373013,1.21777,0
67790,-0.633992,-0.369988,1.22657,0
67810,-0.634257,-0.368799,1.23551,0
67830,-0.635067,-0.366336,1.24321,0
67850,-0.635261,-0.363098,1.25081,0
67870,-0.634909,-0.361395,1.25965,0
67890,-0.632862,-0.362463,1.26906,0
67910,-0.63175,-0.363035,1.27788,0
67930,-0.631703,-0.362227,1.28608,0
67950,-0.632417,-0.360301,1.2949,0
67970,-0.632225,-0.359289,1.30441,0
67990,-0.632227,-0.357905,1.31387,0
68010,-0.634284,-0.354888,1.32237,0
68030,-0.635599,-0.350716,1.33055,0
68050,-0.636775,-0.347722,1.33988,0
68070,-0.637488,-0.345464,1.34873,0
68090,-0.637356,-0.341874,1.35731,0
68110,-0.637967,-0.338106,1.36582,0
68130,-0.638854,-0.335255,1.37474,0
68150,-0.639328,-0.332973,1.38425,0
68160,-0.640763,-0.330719,1.39407,0
68180,-0.642011,-0.328439,1.40317,0
68200,-0.641739,-0.325214,1.41206,0
68220,-0.641575,-0.322677,1.42183,0
