Timestamp, Rotation x, Rotation y, Rotation z, Marker
40,-4.0625,-1.25,3.25,0
60,6.9375,-2.8125,-0.5625,0
80,7.4375,-4.0625,-4.8125,0
100,9.3125,-2.6875,-1.4375,0
120,3.375,-0.875,1.625,0
140,2.3125,-0.5625,-1.8125,0
140,6.8125,-2,-11.125,0
160,22.75,3.25,-8.125,0
190,18.5625,7.375,-9.6875,0
210,15.8125,9.4375,-9.4375,0
230,20,9,-11.5625,0
250,15.75,14.3125,-11.8125,0
270,18.6875,16,-10.375,0
290,22.25,15.8125,-7.875,0
310,25.25,20.5625,-6.75,0
330,24.5625,16.6875,-10.8125,0
350,29.4375,8.375,-17.875,0
370,35.8125,15.625,-15.875,0
390,33.4375,11.9375,-25.4375,0
410,54.1875,18.25,-23.875,0
430,65.0625,20.125,-32.9375,0
450,62.625,22.9375,-41.9375,0
470,65.3125,14.125,-39.625,0
490,54.0625,19.4375,-40.4375,0
510,18.875,24.0625,-30.375,0
530,5.6875,12.75,-25.0625,0
550,5.0625,6.625,-26.3125,0
570,-16.8125,5.125,-24.3125,0
590,-19,6.5,-17.3125,0
610,-30.375,-6.25,-4.3125,0
630,-21.1875,-14.5625,5.4375,0
650,-27.75,-4.6875,5.625,0
670,-12.75,-1.75,21.625,0
690,-23.8125,-5.875,23.25,0
710,-30.125,-12.8125,25,0
730,-24.6875,-17.3125,28.5625,0
750,-28.8125,-23.9375,31.75,0
770,-29.25,-34.5625,39.125,0
790,-22.25,-42.75,47.875,0
810,-26.25,-48.25,54.4375,0
830,-34.375,-45.4375,58.5,0
850,-41.0625,-42.375,53.6875,0
870,-41.75,-44.1875,48.9375,0
870,-37.375,-43.3125,45,0
890,-31.3125,-36,39.5625,0
910,-28.25,-29.5,32.5625,0
930,-25.4375,-28.5625,29.125,0
950,-25.5,-13.6875,27.8125,0
970,-16.9375,-3.4375,21.125,0
990,-14.625,-2.5,17.5,0
1010,-17.625,1.6875,19.0625,0
1030,-19.625,3.3125,18.5,0
1050,-16.9375,4.75,16.0625,0
1070,-13.9375,5.625,12.0625,0
1090,-12.75,7.375,7.0625,0
1110,-9.9375,8.0625,4.8125,0
1130,-8.5625,7.8125,4,0
1150,-10,7.25,1,0
1170,-7.25,8.6875,-0.875,0
1190,-6.375,9.8125,-1.8125,0
1210,-4.1875,9.6875,-0.625,0
1230,-4.1875,11.375,1.375,0
1250,-3.75,10.375,-0.0625,0
1270,-2.5,6.5,-0.4375,0
1290,-3.875,3,-0.5625,0
1300,-3.5625,-1.8125,-0.875,0
1330,-4.0625,0.5,2.375,0
1350,-3.125,2.1875,3,0
1370,-1.6875,0.75,-1.125,0
1390,0.125,-0.75,-1.25,0
1400,1.0625,1.0625,-0.9375,0
1420,-0.375,-0.3125,0.125,0
1440,0.25,-1.5,-0.75,0
1460,1.375,-0.875,-1.125,0
1480,3.3125,-0.4375,-0.9375,0
1500,2.8125,0.5,0.5,0
1520,1.25,0.5625,2.75,0
1540,-0.875,0.625,3.375,0
1560,0.5,0.1875,3.75,0
1580,0.125,-0.125,3.3125,0
1600,0.125,0.4375,4.5,0
1620,0.6875,1.125,3.375,0
1640,1.6875,1.1875,2.25,0
1660,4.1875,-0.4375,0.875,0
1680,1.3125,-0.625,1.25,0
1700,1,-0.75,1.5625,0
1720,1.125,-0.9375,0.375,0
1740,3.3125,-1.125,-0.0625,0
1760,4.375,-1.6875,-0.4375,0
1780,2.8125,-1.5625,0.1875,0
1800,1.0625,-0.5,1.4375,0
1820,0.375,-0.375,0.3125,0
1840,0.625,-1.6875,-1.25,0
1860,1.875,-2.5,-0.375,0
1880,1.375,-3.4375,-0.0625,0
1900,-1.3125,-2.6875,-0.1875,0
1920,-2.875,-2.75,-1.0625,0
1940,-0.125,-3.4375,-2.1875,0
1960,2.375,-3.5,-2.75,0
1980,3.75,-2.5,-2.875,0
2000,1.6875,-1.625,-2.25,0
2020,-0.0625,-1,-3.5625,0
2040,0.4375,-1.75,-4.375,0
2060,1.4375,-2.5,-3.375,0
2080,1.3125,-2.5,-2.5,0
2100,1.5,-2.625,-3,0
2120,1.625,-2.625,-3.125,0
2140,1.0625,-1.5625,-1.875,0
2160,-1.125,0.625,0,0
2180,-3.4375,2.875,1.75,0
2200,-3.9375,3.6875,2.375,0
2220,-3,4.1875,3.25,0
2240,-3.8125,4.125,3.75,0
2260,-6.6875,4.625,3.3125,0
2280,-7.0625,5.9375,3.125,0
2300,-5.125,3.9375,3.4375,0
2320,-6.375,3.5,4.4375,0
2340,-7.4375,3.9375,2.3125,0
2360,-5,2.75,-0.375,0
2380,-1.875,1.75,-2.1875,0
2400,1.6875,0.375,-3.1875,0
2420,2.5,0.125,-3.8125,0
2440,0.6875,-0.6875,-4.8125,0
2460,0.4375,0.25,-4.1875,0
2480,0.1875,0.5,-2.3125,0
2500,-2.6875,0.6875,-0.875,0
2520,-6.4375,1.3125,-0.4375,0
2540,-6.9375,2.5625,0,0
2560,-6.8125,4,0.75,0
2580,-7.625,4.0625,1.125,0
2600,-7.625,3.75,1,0
2620,-8,3.5,0.8125,0
2640,-5.9375,2.6875,0.1875,0
2660,-1.875,1.6875,-0.9375,0
2680,-1.125,0.75,-2.1875,0
2700,-0.75,1.0625,-2,0
2720,-0.375,0.6875,-1.8125,0
2740,0.1875,0.375,-1.75,0
2760,1.25,0.4375,-0.5625,0
2780,2.5,0.75,-0.6875,0
2800,1.875,0.0625,-1.25,0
2820,0.6875,-0.375,-0.9375,0
2840,-0.375,-0.3125,0.0625,0
2860,0,0.5,0.375,0
2880,0.5625,0.8125,0.8125,0
2900,-0.1875,1.125,0.1875,0
2920,-0.125,0.8125,0.875,0
2940,-0.0625,0.8125,1.5,0
2960,0,1,1.5625,0
2980,0.0625,0.3125,0.75,0
3000,0.9375,-0.6875,-0.25,0
3020,2.1875,-1.4375,-0.25,0
3040,3.3125,-1.4375,0,0
3060,3.125,-1.0625,-0.25,0
3080,2.375,-1.125,-0.375,0
3100,1.4375,-0.25,-0.4375,0
3120,1.0625,-0.3125,-0.375,0
3140,0.375,-0.1875,0.125,0
3160,-0.125,0.3125,0.8125,0
3180,-0.1875,-0.1875,0.25,0
3200,0.6875,-0.9375,-0.6875,0
3220,0.6875,-0.875,-1.3125,0
3240,0.625,-0.8125,-1.375,0
3260,0.875,-0.75,-1.625,0
3280,1.3125,-0.6875,-2.0625,0
3300,1.8125,-0.3125,-2.375,0
3320,0.875,-0.0625,-1.75,0
3340,-1.1875,1,-0.1875,0
3360,-0.75,1.0625,0,0
3380,0.1875,0.0625,-1,0
3400,-0.8125,0.5625,-1.625,0
3420,-0.0625,1.375,-1.75,0
3440,2.5,1.4375,-2.375,0
3460,5,0.8125,-2.625,0
3480,6.125,0.6875,-3.1875,0
3500,6.1875,-0.1875,-3.3125,0
3520,4.1875,-0.5625,-2.75,0
3540,1.5625,-0.375,-1.625,0
3560,0.0625,-0.375,-0.375,0
3580,0.0625,-0.9375,-0.8125,0
3600,2.0625,-1.625,-1.625,0
3620,4.625,-1.8125,-1.625,0
3640,6.0625,-2.0625,-1.4375,0
3660,7.5,-3.8125,-1.875,0
3680,8.375,-5.9375,-1.8125,0
3700,9.625,-8.0625,-0.75,0
3720,9.1875,-8.9375,0.1875,0
3740,9.625,-9.625,1.4375,0
3760,9.0625,-10.8125,2.125,0
3780,6.5625,-11,2.4375,0
3800,3.0625,-10.3125,1.8125,0
3820,2.1875,-9,1.0625,0
3840,4.625,-8.375,-0.3125,0
3860,7.6875,-7.75,-1.1875,0
3880,7.125,-5.0625,-1.9375,0
3900,8.3125,-3.5,-3.0625,0
3920,10.25,-2.4375,-4.0625,0
3940,12.375,-1.75,-4.3125,0
3960,12.25,0.125,-3.4375,0
3980,11.8125,1.6875,-2.75,0
4000,10.125,2.0625,-2.125,0
4020,6.9375,3.6875,-0.5625,0
4040,2.9375,3.4375,0.875,0
4060,-0.125,3.375,0.9375,0
4080,-2.6875,2.1875,0.9375,0
4100,-3.3125,1.375,-0.25,0
4120,-1.75,0.5625,-2.3125,0
4140,1.8125,1.5625,-3.9375,0
4160,4.6875,3.1875,-4.5625,0
4180,5.875,3.9375,-5.0625,0
4200,3.75,4.4375,-5.375,0
4220,0.5625,4.8125,-5.125,0
4240,-0.25,5,-5.5625,0
4260,1.625,5.8125,-6.3125,0
4280,1.875,5.5,-5.375,0
4300,3.25,5.875,-2.9375,0
4320,1.5,4.1875,-3.9375,0
4340,6.8125,2.8125,-5.8125,0
4360,11.0625,4.5,-9.5,0
4380,13.375,4.375,-10.5,0
4400,12.375,3.25,-10.8125,0
4420,11.75,2.5625,-12.4375,0
4440,11.625,2.0625,-12,0
4460,10.9375,2.5625,-7.125,0
4480,9,2.75,-4,0
4500,8.0625,5.8125,-0.625,0
4520,12.625,9.5625,-0.0625,0
4540,16.75,14.375,-0.375,0
4560,20.75,18.1875,-0.25,0
4580,17.4375,18.9375,-0.375,0
4600,8.4375,16.9375,-0.25,0
4620,3.8125,13,-1.5,0
4640,4.6875,9,-3.625,0
4660,5.1875,3.625,-6.25,0
4680,4.6875,1.8125,-8.4375,0
4700,3,-1.5,-9.375,0
4720,0.6875,-3.5,-11.1875,0
4740,3.375,-1.375,-11.5625,0
4760,5.8125,0.5625,-11.8125,0
4780,0.6875,0.0625,-13,0
4790,6.125,2.5,-14.875,0
4810,10.5,2.375,-14.6875,0
4830,12.6875,1.3125,-11.6875,0
4850,8.875,1.9375,-8.4375,0
4870,1.1875,-0.6875,-6.375,0
4890,-1.0625,-2.25,-3.4375,0
4910,3.375,-0.8125,1.1875,0
4930,7.0625,-2.9375,5.4375,0
4950,12.875,-4.4375,7.0625,0
4970,10.8125,0.625,4.8125,0
4990,8.125,3.25,4.3125,0
5010,-3.25,6.875,5.3125,0
5030,2.625,6.6875,1.6875,0
5050,10.375,4.5,-2.25,0
5070,18.0625,1.25,-6.6875,0
5090,24.1875,-1.75,-2.625,0
5110,24.9375,-3.5625,-6.375,0
5130,27.625,-6.875,-6.3125,0
5150,25.4375,-7,-6,0
5170,20.3125,-7.125,-2.5,0
5190,16.125,-4.4375,-1.5625,0
5210,20.8125,-1.375,-0.125,0
5230,21.625,-0.25,0.75,0
5250,15.9375,1.4375,-0.3125,0
5270,7.625,6.5625,1.25,0
5290,-2.0625,10.25,-0.25,0
5310,-9.8125,8.8125,-1.25,0
5330,-20.375,-5.5625,1.75,0
5350,-3.6875,-30.25,0.125,0
5370,14.625,-39.125,10.5,0
5390,20,-48.1875,20.8125,0
5410,-1.6875,-33.75,25.5625,0
5430,-20.3125,-10.125,18,0
5450,-22,-5.625,-0.625,0
5470,-11.3125,2.75,-19.5625,0
5490,-5.625,-1.9375,-24.625,0
5510,6.5625,12.25,-26.6875,0
5530,-7,19.9375,-24.9375,0
5550,-4.375,24,-21.5,0
5570,-10.3125,32.6875,-24.25,0
5590,-19.6875,41.375,-19.9375,0
5610,5.4375,34.4375,-15.0625,0
5630,25.5,20.9375,-16.6875,0
5650,35.25,6.9375,-7.625,0
5670,23.9375,2,-3.5625,0
5690,5.6875,7.25,-6.125,0
5710,-5.0625,13.0625,-12.3125,0
5730,4,12.1875,-14.75,0
5750,10.3125,7.875,-8.4375,0
5770,12.6875,4.375,-2.125,0
5790,8.25,4.375,1.875,0
5810,5.375,2.4375,-0.3125,0
5830,6.8125,4.6875,-1.375,0
5850,6.125,2.4375,4.75,0
5870,-3.625,-1.0625,9.9375,0
5890,-16.9375,-5,12.875,0
5910,-22.5625,-3.3125,18.25,0
5930,-21.5625,-3.875,20.4375,0
5950,-15.8125,-5.375,22.5625,0
5970,-13.5,-4.875,20.6875,0
5990,-12.4375,-6.0625,15.1875,0
6010,-3.1875,-8.125,9.375,0
6030,3.375,-9.0625,5.1875,0
6050,6.1875,-7.25,1.75,0
6070,4.75,-6.25,-1.1875,0
6090,2.5,-6.25,-3.0625,0
6110,-0.5625,-5.75,-4.4375,0
6130,-3,-6.25,-4.625,0
6150,-3.1875,-7.375,-4.1875,0
6170,0.0625,-7.6875,-3.6875,0
6190,1.25,-8.25,-4.4375,0
6210,0.9375,-6.875,-8.4375,0
6230,-1.1875,-3.75,-9.5,0
6250,0.4375,-3,-7.25,0
6270,1.6875,-4.375,-6.625,0
6290,2.125,-2.625,-7.6875,0
6310,-3.25,3.625,-9.625,0
6330,-8,7.9375,-9.875,0
6350,-12.8125,9.0625,-7.625,0
6370,-17.25,10.1875,-6,0
6390,-16.1875,12.0625,-5.0625,0
6410,-15.3125,12.3125,-5.625,0
6430,-15.375,11.375,-4.4375,0
6450,-19.25,13,-3.0625,0
6470,-23.1875,13.5,-5.5625,0
6490,-25.3125,11.4375,-9.1875,0
6510,-17.375,3.1875,-10.375,0
6530,-0.9375,-8.875,-10.8125,0
6550,8.25,-14.9375,-7.875,0
6570,11.625,-16.875,-9,0
6590,20.5,-15.875,-12.4375,0
6610,12.6875,-12.75,-13.6875,0
6630,12.3125,-8.625,-8.1875,0
6650,9.6875,-5.875,-1.875,0
6670,3.25,-3.25,0.9375,0
6690,-2.375,-0.5625,3.0625,0
6710,-5.4375,2.3125,6,0
6730,-4.5625,3.625,7.3125,0
6750,-0.4375,2.375,5.8125,0
6760,0.9375,0.75,3.5,0
6780,3.5625,0.5625,0.375,0
6800,2.9375,0.75,-0.6875,0
6820,2.625,-1,-1,0
6840,3.625,-3.125,-2.25,0
6850,5.4375,-4.375,-2.875,0
6870,6.8125,-4.5625,-3.25,0
6890,7,-3.125,-2.625,0
6910,3.5,-1.375,-2.125,0
6930,3.0625,0.5625,-3,0
6950,1.0625,2.625,-3.5625,0
6970,0.5,4,-3,0
6990,0.0625,5.625,-2.1875,0
7010,-4.875,6.8125,-0.9375,0
7030,-4.1875,7.375,-1.4375,0
7050,-1.4375,8.0625,-2.5,0
7070,2.8125,7.5625,-3.4375,0
7090,3.5625,7.0625,-4.5,0
7110,3.0625,6.6875,-5.75,0
7130,0.4375,6.4375,-5.625,0
7150,-0.8125,6,-5.8125,0
7170,-1.6875,4.875,-5,0
7190,-1.8125,4.4375,-3.3125,0
7210,-1.0625,4.125,-2.9375,0
7230,-0.8125,3.1875,-3.875,0
7250,0.25,2.4375,-4.0625,0
7270,0.25,2.625,-3.6875,0
7290,0.0625,3,-2.5625,0
7310,-0.3125,1.875,-1.375,0
7330,-0.8125,1.1875,0.4375,0
7350,0.875,1.125,2,0
7370,3.4375,-0.4375,2.1875,0
7390,0.75,-2.1875,1.1875,0
7410,0.4375,-2.6875,1.125,0
7430,3.25,-3.3125,1.125,0
7450,6.25,-3.9375,-0.4375,0
7470,7,-4.4375,-1.5625,0
7490,6.8125,-5,-2.0625,0
7510,8.4375,-5.75,-3.1875,0
7530,11.3125,-6.3125,-3.4375,0
7550,10.5,-6.5625,-2.0625,0
7570,6.1875,-5.125,-0.8125,0
7590,2.625,-4.0625,0.0625,0
7610,-3.25,-3,3.5625,0
7630,-4.6875,-2,5.1875,0
7650,-3.8125,-0.0625,6,0
7670,-2.4375,0.875,7.125,0
7690,-0.5625,0.25,6.875,0
7710,-1.8125,0.5,6.5625,0
7730,-1.8125,1,6.8125,0
7750,-4,1.375,6.5625,0
7770,-4.0625,1.75,6.3125,0
7790,-7.8125,2.125,5.375,0
7810,-9.3125,2.4375,4.8125,0
7830,-12.9375,2.3125,3.125,0
7850,-12.8125,2.8125,2.1875,0
7870,-12.4375,4.625,1.125,0
7890,-9,5.375,-0.1875,0
7910,-4.4375,5.875,-1.6875,0
7930,-3.6875,5.125,-2.3125,0
7950,-3.75,4.875,-2.6875,0
7970,-2.1875,4.6875,-3.4375,0
7990,-0.8125,4.125,-3.5,0
8010,-1.75,4.375,-2.4375,0
8030,-2.3125,4,-2.1875,0
8050,-4.25,4.4375,-1.875,0
8070,-4.125,4.9375,-1.1875,0
8090,-4.3125,4.5,-0.4375,0
8110,-3,3.6875,-0.5625,0
8130,-2.5625,3.1875,0,0
8150,-3.625,2.5,0.8125,0
8170,-3.4375,2.4375,0.375,0
8190,-0.6875,2.0625,-0.3125,0
8210,0.0625,1.6875,-0.3125,0
8230,1,0.1875,-0.4375,0
8250,2.1875,-1.0625,-1,0
8270,3.375,-2,-1.625,0
8290,4.6875,-4,-1.9375,0
8310,5.25,-4.5625,-3,0
8330,6.125,-4.625,-3.0625,0
8350,10.5625,-3.625,-0.875,0
8370,8.5,-4.5625,-1.6875,0
8390,7.3125,-3.3125,-0.9375,0
8410,7.375,-2.9375,-0.125,0
8430,6.9375,-1.9375,0.8125,0
8450,4.5625,-0.875,1,0
8470,-0.625,-1.375,1.1875,0
8490,-3.9375,-1.875,1.375,0
8510,-2,-0.75,1.3125,0
8530,0.9375,-1.75,0.625,0
8550,3.25,-2.5,-0.0625,0
8570,5.9375,-2.5,-0.25,0
8590,6.5,-3.25,-0.5,0
8610,6.375,-2.9375,0.125,0
8630,4.125,-1.6875,1,0
8650,1.6875,-1,1.8125,0
8670,-0.4375,-1.0625,2,0
8690,-2.25,-0.0625,2.6875,0
8710,-7.5625,0.375,2.875,0
8730,-10.875,1.1875,3.0625,0
8750,-12,1.875,2.3125,0
8770,-8.5625,2.6875,2.625,0
8790,-4.5625,2.3125,2.25,0
8810,-3.4375,2.25,0.0625,0
8830,-3.625,2.4375,-1,0
8850,-4.9375,2.5,-0.5,0
8870,-5.9375,3.125,0.125,0
8890,-6.125,3.4375,0.9375,0
8910,-6.375,3.4375,1.5625,0
8930,-7.9375,2.8125,2.625,0
8950,-7.125,4,3.125,0
8970,-7.5,4.25,3.375,0
8990,-7.8125,4.125,3.1875,0
9010,-7.0625,4.5625,2.1875,0
9030,-4.375,3.75,2.125,0
9050,-3.4375,2.875,1,0
9070,-1.8125,0.875,-0.875,0
9090,-0.375,-0.375,-2.375,0
9110,1.625,-1.125,-3,0
9130,2,-1.5,-2.25,0
9150,0.75,-1.8125,-0.6875,0
9170,-0.375,-0.625,-1.875,0
9190,1.1875,0.75,-0.3125,0
9210,0.25,0.75,0.9375,0
9230,-1.8125,-0.375,1.375,0
9250,-2.0625,-0.9375,2.0625,0
9270,-1,-1.1875,1.5,0
9290,0.0625,-1.375,-0.1875,0
9310,0.875,-2.5625,-1.625,0
9330,2.375,-3.25,-3,0
9350,3.25,-3.5625,-4.125,0
9370,4,-4.0625,-5.125,0
9390,6.125,-4.75,-6,0
9410,6.75,-5.6875,-5.5,0
9430,11.875,-5.1875,-4.4375,0
9450,12.4375,-5.5625,-3.4375,0
9470,9.75,-5.125,-1.5,0
9490,5.125,-3.875,1.125,0
9510,-3.5,-3.25,1.75,0
9530,-3.625,-2.875,2.125,0
9550,-3.5,-2.125,2.1875,0
9570,-0.5,-1.9375,1.625,0
9590,1.875,-2.375,0.8125,0
9610,2.5625,-2.375,0,0
9630,3.4375,-2.8125,-0.8125,0
9650,4.9375,-2.25,-1.5625,0
9670,4.8125,-1.75,-1.375,0
9690,3.1875,-1.1875,-1.8125,0
9710,2.0625,-0.625,-1.625,0
9730,0,-0.25,-0.8125,0
9750,-1,-0.4375,-0.4375,0
9770,-0.0625,-0.4375,-0.5,0
9790,0.75,-0.5,-0.375,0
9810,0.1875,-0.5625,0.3125,0
9830,-4.1875,-0.4375,0.375,0
9850,-0.0625,0.0625,-0.5625,0
9870,-1.5,0.375,-1,0
9890,-2.4375,0.1875,-1.25,0
9910,-3.75,0.1875,-0.9375,0
9930,-2,0.25,-0.875,0
9950,2.3125,0.3125,-1.3125,0
9970,4,-0.5,-0.75,0
9990,1.625,1,-0.6875,0
10010,0.125,1.5625,-0.4375,0
10030,-4.125,2.5625,0.6875,0
10050,-1.1875,4.0625,3.5,0
10070,-3.4375,3.75,3,0
10090,-4.1875,2.875,2.3125,0
10110,-4.875,1.625,2.125,0
10130,-2.625,0,1.625,0
10150,-0.5625,-0.75,0.5,0
10160,0.1875,-0.9375,-1,0
10180,1,-1.0625,-3.0625,0
10200,1.625,-1.6875,-3.75,0
10220,1.125,-1.9375,-3.4375,0
10240,-0.0625,-2,-3.1875,0
10260,2.3125,-1.375,-3.0625,0
10280,7.125,-1.3125,-3.1875,0
10300,4.8125,-0.875,-2,0
10320,-1.125,2.25,-0.75,0
10340,-5.4375,5.75,2.625,0
10360,-5.875,7.0625,4.625,0
10380,-4.5625,8.25,4,0
10400,-5.375,6.4375,2.625,0
10420,-7.9375,3.5625,1.9375,0
10440,-5.3125,0.0625,-0.3125,0
10460,-0.0625,-2.5,-2.6875,0
10480,4.75,-1.8125,-5.75,0
10500,10.3125,-3.375,-6.25,0
10520,6.25,-2.875,-6.6875,0
10540,4.1875,-1.5,-5.5,0
10560,0.375,0.9375,-4,0
10580,-0.0625,4.375,0,0
10600,-3.375,5.3125,2.375,0
10620,-5.5625,6.5625,1.6875,0
10640,-6.5,6.75,2.625,0
10660,-4.375,5.5625,4.0625,0
10680,-2.4375,3.4375,3.75,0
10700,-4.625,0.625,2.625,0
10720,-5.25,-2.875,1.6875,0
10740,-4.1875,-4.75,1.25,0
10760,-0.875,-5.5625,-0.375,0
10780,4.125,-5.3125,-2.5,0
10800,10.6875,-6,-3.6875,0
10820,11.0625,-5.1875,-4.375,0
10840,9.5625,-3.25,-3.375,0
10860,3.8125,-1.1875,-2.375,0
10880,-3.875,1.25,0.5625,0
10900,-6.875,2.5625,1.5,0
10920,-7.3125,2.9375,2.75,0
10940,-6.1875,3.25,3.9375,0
10960,-4.75,2.9375,3.375,0
10980,-5.1875,0.9375,0.5625,0
11000,-3.75,0.3125,0.8125,0
11020,-1.6875,-0.4375,0.6875,0
11040,-0.4375,-0.6875,-0.4375,0
11060,0.4375,-0.375,-1.25,0
11080,0.875,-0.375,-0.75,0
11100,1.3125,-1,-0.0625,0
11120,0.9375,-0.3125,-0.25,0
11140,0.375,0.625,-0.4375,0
11160,-2.1875,1.3125,-0.4375,0
11180,-2.9375,1.1875,-0.4375,0
11200,-1.25,0.5,-1.375,0
11220,1.5,-0.375,-1.1875,0
11240,4.875,-1.0625,-0.8125,0
11260,6.5,-1.875,-0.4375,0
11280,4.25,-2,0,0
11300,2,-1.4375,-0.6875,0
11320,0.3125,-0.875,-0.9375,0
11340,-1.0625,-0.375,-0.75,0
11360,-3,0.1875,-0.125,0
11380,-2.0625,0.3125,-0.0625,0
11400,-0.5,1.125,-0.625,0
11420,-0.25,1.9375,-0.8125,0
11440,-1.4375,3.4375,0.125,0
11460,-1,3.875,0.375,0
11480,-0.4375,2.875,0.625,0
11500,0.25,1.8125,0.5625,0
11520,-3.5,1,0.9375,0
11540,-6.0625,-0.6875,1.1875,0
11560,-5,-1.5,-0.4375,0
11580,7.3125,0.3125,-0.0625,0
11600,4,-0.8125,-0.5,0
11620,0.875,1.6875,-1.0625,0
11640,-0.125,2.8125,0.5,0
11660,1.25,4.25,2.6875,0
11680,2.6875,3.3125,2.1875,0
11700,-4.25,3.125,2.8125,0
11720,-7.25,1.625,2.1875,0
11740,-4.125,-1,1,0
11760,0.5,-3.4375,-1,0
11780,2.8125,-4.6875,-2.625,0
11800,2.0625,-5.1875,-3.625,0
11820,5.5,-4.5,-2.0625,0
11840,3.625,-4.4375,-2.5625,0
11860,3.4375,-4.1875,-2.3125,0
11880,1.9375,-4.3125,-2.5625,0
11900,1.3125,-4.0625,-2.5625,0
11920,-2.75,-3.0625,-2.4375,0
11940,-2.125,-1.875,-2.0625,0
11960,0.1875,-1.5,-2.5,0
11980,2.6875,-1.8125,-3.1875,0
12000,3.5,-2.125,-2.6875,0
12020,4.125,-1.8125,-3,0
12040,3.3125,-1.625,-1.9375,0
12060,2.4375,-1.3125,-1.125,0
12080,1.5,-0.9375,0.125,0
12100,1.0625,-0.75,0.6875,0
12120,0.3125,-0.375,0.8125,0
12140,0,-0.8125,1.4375,0
12150,1,-0.9375,1.625,0
12170,1.4375,-2.8125,2.0625,0
12190,4,-5.625,3.1875,0
12210,8,-11,0.5625,0
12230,7,-13.5625,-2.125,0
12250,8.5625,-14.625,-4.75,0
12270,9.75,-17.375,-9.25,0
12290,3.75,-22,-11.4375,0
12310,3.8125,-25.6875,-13.1875,0
12330,2.8125,-27.375,-17.4375,0
12350,4.8125,-27.375,-15.0625,0
12370,6.625,-28.5625,-18.3125,0
12390,9.25,-29.875,-20.25,0
12410,8.0625,-24.375,-13.8125,0
12430,2.4375,-26.375,-12.375,0
12450,-4.6875,-34.3125,-9.625,0
12470,-10.125,-41.625,-1.8125,0
12490,1.1875,-46.875,3.1875,0
12510,0.75,-47.125,-1.5625,0
12530,-5.8125,-53.5625,-3.75,0
12550,-19.125,-58.5625,-6,0
12570,-24.4375,-62.0625,-7.75,0
12590,-24.75,-64.875,-6.875,0
12610,-23.75,-64.25,-1.875,0
12630,-21.6875,-62.5,-0.8125,0
12650,-22.8125,-60.5625,-2.1875,0
12670,-27.3125,-59.8125,-1.5625,0
12690,-29.0625,-58.1875,-0.0625,0
12710,-25.4375,-53.3125,1.75,0
12730,-24.0625,-47.75,4.5625,0
12750,-23.125,-42.25,7.375,0
12770,-25.1875,-33.4375,8.875,0
12790,-27.125,-28,8.3125,0
12810,-24.125,-22.8125,7.3125,0
12830,-22.3125,-10.0625,-4.0625,0
12850,-31.875,-13.8125,-10.8125,0
12870,-17.875,-11.1875,0,0
12890,-15.0625,-10.3125,-0.75,0
12910,-19.125,-11.75,0.5,0
12930,-17.875,-9.4375,-5.875,0
12950,-30.75,-8.875,-20.625,0
12970,-16.1875,-9.5625,-21.0625,0
12990,-8,-3.1875,-21.9375,0
13010,-17.375,-0.0625,-29.375,0
13030,-26.8125,0.6875,-32,0
13050,-23.8125,-0.5,-31.8125,0
13070,-22.4375,2.5625,-37.0625,0
13090,-21.4375,4.1875,-38.75,0
13110,-26.3125,5.3125,-41.5625,0
13130,-50.5625,6.0625,-47,0
13150,-54.375,2.9375,-42.125,0
13170,-51.0625,10.0625,-27.5,0
13190,-50.375,15.8125,-23.1875,0
13210,-56.6875,9.625,-18.25,0
13230,-66.1875,12.8125,-9.25,0
13250,-82.75,4.8125,-1,0
13270,-72.75,-3.375,2.1875,0
13290,-52.5,-5,2.25,0
13310,-45.5,-4.875,-4.1875,0
13330,-45.375,-4.4375,-10.625,0
13350,-36.5,-8.1875,-13.25,0
13370,-30.5625,-12.3125,-14.375,0
13370,-30.5625,-12.3125,-14.375,0
13380,-50.375,15.8125,-23.1875,0
13410,-25.375,-14.875,-12.125,0
13430,-27.0625,-8,-9.6875,0
13450,-22.8125,-0.125,-11.4375,0
13470,-18.375,-5.875,-5.3125,0
13490,-12.625,-15.4375,0.125,0
13510,-17.3125,-4.25,5.5625,0
13530,-27.75,2.6875,4.5,0
13550,-40.875,-2.1875,0.375,0
13570,-45.125,-13.0625,3.25,0
13590,-43.25,-16.8125,-2.4375,0
13610,-38.8125,-16.3125,-6.3125,0
13630,-24.25,-15.3125,-9.1875,0
13650,-21.8125,-14.9375,-12.125,0
13670,-18.1875,-17.875,-12.3125,0
13690,-12.8125,-12.375,-15.0625,0
13710,-3.25,-17,-13.8125,0
13730,-1.4375,-20.75,-12.5625,0
13750,1,-19.25,-12.875,0
13770,4.875,-18.0625,-14.25,0
13790,9.75,-15.25,-21.75,0
13810,10.5625,-20.125,-27.375,0
13830,9.625,-22.6875,-28.3125,0
13850,6,-19.375,-29.0625,0
13870,1.5,-14.125,-25.1875,0
13890,-1.6875,-19.375,-14,0
13910,-6.6875,-19.375,-8.25,0
13930,-1.4375,-20.0625,1.1875,0
13950,-4,-19.625,11.375,0
13970,-16.75,-15.0625,17.6875,0
13990,-22.0625,-7.75,21.4375,0
14010,-32.375,-1.9375,26.1875,0
14030,-32.625,-1.75,27.9375,0
14050,-32.625,-4.125,29.875,0
14070,-17.8125,-3.4375,20.375,0
14090,-17.0625,-7.25,16.75,0
14110,-7.0625,-7.0625,13.875,0
14130,-9.4375,-9.5625,10.5625,0
14150,-5.1875,-8.375,6.1875,0
14170,-4,-5.875,2,0
14190,0,-5.9375,-0.875,0
14210,3.5,-7.875,0.1875,0
14230,-0.1875,-4.875,-1.5625,0
14250,-0.1875,-1.6875,-3.1875,0
14270,0.75,-1.6875,-0.8125,0
14290,1.6875,-0.125,-0.625,0
14310,-0.5,1,3.4375,0
14330,-6.8125,-0.1875,6,0
14350,-8,-0.0625,4.4375,0
14370,-3.625,-0.0625,2.625,0
14390,-1.875,-0.0625,1.875,0
14410,-4.0625,0.5,1.1875,0
14430,-2.5,0.875,2.0625,0
14450,-3.25,1.5625,2.1875,0
14470,-6.125,2,1.75,0
14490,-5.375,3.375,0.8125,0
14510,-1.6875,5.75,-0.9375,0
14530,-0.8125,6.8125,-1.8125,0
14550,0.4375,6.9375,-3.625,0
14570,1.0625,5.5625,-2.8125,0
14590,-0.5625,3.375,-0.8125,0
14610,-0.75,3.125,-2.6875,0
14630,1.375,1.625,-1.75,0
14650,0.625,1.0625,-0.875,0
14670,1.1875,0.5625,0.125,0
14690,0.625,0.0625,2.875,0
14710,-3.125,-0.75,4.625,0
14730,-1.375,-1.9375,4.375,2000
14750,2.5625,-3,1.75,0
14770,0.9375,-3.0625,0.375,0
14790,-4.125,-5.1875,4.0625,0
14810,-5.375,-4.375,3.4375,0
14830,-2.4375,-2.875,0.875,0
14850,-0.25,-1.75,-2.125,0
14870,1.125,-2.3125,-2.3125,0
14890,1.5625,-4.1875,-0.625,0
14910,-1.0625,-6.375,0.25,0
14930,0.5625,-4.0625,-0.625,0
14950,1.1875,-3.5625,-3.5625,0
14970,3.4375,-5.0625,-3.3125,0
14990,1.875,-5.9375,-1,0
15010,1.875,-6.3125,0.1875,0
15030,2.5625,-6.625,0.75,0
15050,-1.375,-7.9375,2.4375,0
15070,-0.8125,-7.6875,2.125,0
15090,0.75,-9,1.5,0
15110,-1,-10.875,1.0625,0
15130,-0.8125,-11.3125,-0.5625,0
15150,1.375,-11.625,-2.4375,0
15170,1.125,-13.5,-2.875,0
15190,0,-14.5625,-4.625,0
15210,2.1875,-15.4375,-6.4375,0
15230,1.9375,-17.1875,-5.375,0
15250,1,-16.5625,-5.75,0
15270,4.5,-18.0625,-7.1875,0
15290,2.25,-20.375,-6.0625,0
15310,-0.3125,-20.3125,-3.8125,0
15330,-1.25,-19.5625,-3.5625,0
15350,-1.0625,-18.5625,-4.9375,0
15370,0.1875,-18.625,-3.3125,0
15390,-2.4375,-17,-1.3125,0
15410,0.5,-16.0625,-4.875,0
15430,2.875,-16.0625,-6.0625,0
15450,2.625,-16.375,-4.5,0
15470,3.9375,-13.1875,-6.9375,0
15490,7.0625,-12.6875,-9.8125,0
15510,7.0625,-13.3125,-10.25,0
15530,4.875,-12.25,-12.75,0
15550,4.5,-11.75,-14.375,0
15560,7.8125,-11,-16.375,0
15580,9.1875,-11.4375,-16.5625,0
15600,7.125,-8.875,-17.5,0
15620,7.625,-6.25,-19.625,0
15640,9.9375,-5.75,-19.25,0
15660,11.5625,-6.0625,-18.1875,0
15680,10.375,-4.625,-19.125,0
15700,9.875,-2.875,-18.125,0
15720,9.6875,-1.5625,-14.5625,0
15740,4.0625,-2.5625,-11.375,0
15760,4.75,-2.1875,-11.3125,0
15780,7.9375,-1.3125,-11.9375,0
15800,5.5625,-2.625,-12.625,0
15820,2.625,-2.5625,-11.5,0
15840,2.625,-1.6875,-10.5625,0
15860,5.5625,-1.5625,-12.4375,0
15880,4.375,-5.3125,-15.1875,0
15900,3.875,-5.75,-13.9375,0
15920,6.9375,-3.1875,-16.8125,0
15940,5.5,-2.6875,-15.9375,0
15960,3,-2.0625,-15.6875,0
15980,3.3125,-0.75,-15.875,0
16000,5.1875,-0.3125,-16,0
16020,5.125,-0.25,-16.3125,0
16040,3.25,2.375,-17.5,0
16060,4.6875,4.8125,-21.875,0
16080,5.375,5.8125,-21.625,0
16100,4.1875,8.375,-20.6875,0
16120,4.5,10.5625,-22.9375,0
16140,1.125,11.8125,-23.4375,0
16160,3.4375,14.0625,-23.0625,0
16180,3.8125,16.375,-25.4375,0
16200,4.6875,19.0625,-28.3125,0
16220,6.125,20.75,-28.8125,0
16240,5.875,21.625,-27.5625,0
16260,4.125,23.625,-27.625,0
16280,3.875,23.4375,-29.5,0
16300,2.875,26,-29.0625,0
16320,3.75,27.5625,-28.5,0
16340,0.375,29.8125,-26.4375,0
16360,2.75,29.625,-25.3125,0
16380,3,29.6875,-24.5625,0
16400,-0.125,28.25,-27,0
16420,-0.8125,27.125,-28.8125,0
16440,0.125,26.0625,-28.875,0
16460,1.0625,24.8125,-29.4375,0
16480,0.125,23.3125,-28.125,0
16500,-1.25,21.75,-28.5,0
16520,-1.25,20.8125,-32.0625,0
16540,0.625,18.3125,-31.8125,0
16560,0.5625,16.75,-29.6875,0
16580,-2.125,16.8125,-30.5,0
16600,-3.375,17.625,-31.75,0
16620,-2.75,18.375,-32.1875,0
16640,-1.125,19.375,-31.5625,0
16660,-1.5,22.125,-26.75,0
16680,-0.375,24.625,-25.1875,0
16700,0.75,24.3125,-23.25,0
16720,0.875,24.3125,-22.1875,0
16740,1.9375,24.875,-20.25,0
16760,-1.75,25.625,-17.125,0
16780,-1,25.8125,-13.125,0
16800,-0.0625,24.75,-6.75,0
16820,-5.0625,25.0625,-7.3125,0
16840,-7.3125,25.875,-6.6875,0
16860,-7,24.75,-3.4375,0
16880,-1.9375,21.25,-5.625,0
16900,1.4375,19.5625,-4.9375,0
16920,5.125,18.3125,-6.125,0
16940,-1.25,18.0625,-7.75,0
16960,-2.75,17.4375,-6.5,0
16980,-2.1875,16.5625,-5.4375,0
17000,-6.75,16.6875,-2.4375,0
17020,-8.3125,17.9375,2,0
17040,-6.9375,19.1875,0.625,0
17060,-3,17.4375,0.4375,0
17080,-0.5,15.875,4.4375,0
17100,-1,16.625,6.1875,0
17120,-5.8125,17.25,5.5625,0
17140,-6.4375,15.0625,6.6875,0
17160,-4.625,14.4375,7.75,0
17180,-4.375,13.25,11.8125,0
17200,-1.3125,8.9375,15.4375,0
17220,-3.0625,7.1875,15.4375,0
17240,-6.5,5.375,14.625,0
17260,-8.9375,2.4375,17.5625,0
17280,-8.0625,3.4375,17.625,0
17300,-9.5625,4.0625,17.375,0
17320,-9.125,3.25,18.875,0
17340,-7.3125,2.9375,20.3125,0
17360,-8.6875,2.5625,18.5625,0
17380,-8.3125,1.875,20.75,0
17400,-4.6875,2.0625,21.125,0
17420,-2.5625,0.3125,18.9375,0
17440,-2.75,-1.125,17.75,0
17460,-3.8125,-2.5625,18.375,0
17480,-4.5625,-2.9375,17.5,0
17500,-4.0625,-5.0625,17.1875,0
17510,0.3125,-6.1875,16.1875,0
17530,2.0625,-7.9375,15.0625,0
17550,2.8125,-9.25,15.375,0
17570,0.125,-8.125,15.375,0
17590,-0.25,-7.75,13.6875,0
17610,-1.1875,-10.875,13.875,0
17630,-0.125,-10.875,14.5625,0
17650,-0.8125,-10.4375,13.875,0
17670,-2.3125,-10.6875,13.1875,0
17690,-1.8125,-9.75,12.75,0
17710,-0.25,-10,14.9375,0
17730,-1.5,-11,16.375,0
17750,-3.125,-10.4375,15.1875,0
17770,-4.8125,-11.375,15.1875,0
17790,-4.375,-12.5625,15.3125,0
17810,-4.1875,-12.6875,15.1875,0
17830,-4.3125,-13.9375,15.5625,0
17850,-3.6875,-15.6875,17,0
17870,-4.6875,-17.25,17.5625,0
17890,-4.5,-17.8125,16.5,0
17910,-2.9375,-18.6875,17,0
17930,-2,-20.6875,15.9375,0
17950,-3,-22,16.1875,0
17970,-2.4375,-22.625,16.25,0
17990,-2.25,-24.125,15.75,0
18010,-1.0625,-24.4375,14.0625,0
18030,1.5,-24.5625,12.8125,0
18050,2.9375,-24.75,12.0625,0
18070,1.75,-24.75,12.3125,0
18090,2.5625,-23.4375,11.375,0
18110,1.4375,-24.1875,11.375,0
18130,-3.0625,-23.5,11.8125,0
18150,-1.75,-21.875,12.3125,0
18170,-0.125,-21.5625,12.1875,0
18190,-3.9375,-23.8125,12.3125,0
18210,-3.6875,-21.3125,11.6875,0
18230,-2.125,-20.6875,10.1875,0
18250,-2.5,-22.125,12,0
18270,-4.875,-22.8125,12.5625,0
18290,-5,-21.8125,11.25,0
18310,-6.9375,-22.125,11.1875,0
18330,-7.5,-22.375,12.5625,0
18350,-4.875,-23.875,10.8125,0
18370,-6.1875,-25,11.75,0
18390,-4.75,-24.1875,12.5625,0
18410,-4.75,-24.1875,12.125,0
18430,-5.0625,-24.0625,11.875,0
18450,-4.9375,-23.9375,13,0
18470,-4.5,-23.625,12,0
18490,-2.25,-23,10,0
18510,-1.3125,-23.25,10,0
18530,-2.25,-23.125,9.125,0
18550,-0.0625,-22.25,6.9375,0
18570,3.25,-22.6875,5.5625,0
18590,6.375,-22.625,4.4375,0
18610,5.375,-22.6875,3.0625,0
18630,1.5625,-21.8125,3.375,0
18650,1.8125,-20.5625,2.1875,0
18670,-0.5,-23.0625,3.0625,0
18690,-2.125,-22.625,3.1875,0
18710,3.0625,-20.875,-0.25,0
18730,3.1875,-20.9375,-2.9375,0
18750,0.4375,-22.6875,-4.375,0
18770,-5.25,-22.875,-5.375,0
18790,-6.0625,-22.875,-6.4375,0
18810,-7.1875,-22.875,-9.125,0
18830,-4.4375,-23.5,-9.875,0
18850,-4.5,-24.75,-9.3125,0
18870,-6.125,-25.875,-8.6875,0
18890,-5.1875,-24.75,-11.5,0
18910,-7,-24.1875,-10.75,0
18930,-7.9375,-24.375,-10.5625,0
18950,-7.75,-23.25,-10.5625,0
18970,-8.0625,-22.6875,-9.25,0
18990,-3.875,-22.875,-10.3125,0
19010,-2.5,-21.875,-9.0625,0
19030,-3.9375,-18.9375,-7.9375,0
19050,-4.5,-15.6875,-6.6875,0
19070,-4.5625,-15.6875,-8.5,0
19090,-1.875,-15.6875,-11.375,0
19110,-1.375,-13.6875,-12.1875,0
19130,-4.375,-12.25,-10.875,0
19150,-4.8125,-11.5,-11.5625,0
19170,-5.375,-11.0625,-15.5625,0
19190,-5.25,-7.8125,-17.5625,0
19210,-4.5625,-4.8125,-20.0625,0
19230,-7.6875,-1.5625,-18.625,0
19250,-5.625,1.75,-15.75,0
19270,-6,3.75,-14.1875,0
19290,-7.1875,7.75,-14.4375,0
19310,-7.125,9.125,-14.8125,0
19330,-8.1875,7.25,-18.0625,0
19350,-7.25,7.4375,-17.875,0
19370,-3.8125,11,-17.5625,0
19390,-4.75,8.375,-18.6875,0
19410,-7.1875,8.8125,-21.1875,0
19430,-8.75,9.6875,-23.125,0
19450,-7.3125,9.25,-23.9375,0
19470,-5.625,8.5,-26.1875,0
19490,-7.625,10,-25.6875,0
19510,-7.375,12.125,-21.375,0
19530,-8.375,12.5,-21.75,0
19550,-8.3125,14.1875,-24.375,0
19570,-5.9375,15,-24.625,0
19590,-7.4375,14.875,-21.5625,0
19610,-7.8125,13.8125,-23.875,0
19630,-8.1875,12.125,-26.25,0
19650,-8.1875,13.375,-26.5,0
19670,-8.25,14.75,-28.125,0
19690,-9.0625,12.75,-30.5625,0
19710,-8.3125,13.8125,-30.1875,0
19730,-7.0625,15.0625,-28.125,0
19750,-10.25,15.9375,-29.25,0
19770,-11.375,17.3125,-29.9375,0
19790,-8.125,18.9375,-30.1875,0
19810,-8.25,21.5,-30.9375,0
19830,-8.9375,22.9375,-29.75,0
19850,-8.8125,23.1875,-28.8125,0
19870,-8.4375,23.9375,-28.25,0
19890,-7.125,25.3125,-29.4375,0
19910,-6.125,25.75,-28.8125,0
19930,-6.9375,26,-27.625,0
19950,-6.125,26.8125,-27.5,0
19970,-5.4375,27.1875,-26.0625,0
19990,-6.4375,27.1875,-26.0625,0
20010,-7.875,26.6875,-25.6875,0
20030,-5.25,26.8125,-22.1875,0
20050,-5.5,25.875,-20.875,0
20070,-4.5625,25.25,-21.0625,0
20090,-2.875,25.3125,-19.125,0
20110,-3.1875,25.5,-18.4375,0
20130,-2.5,24.0625,-19.6875,0
20150,-3.125,22.625,-17.375,0
20170,-2.25,20.6875,-13.5625,0
20190,-1.9375,17.8125,-11.25,0
20210,-4.3125,18.75,-10.375,0
20230,-3.8125,20.0625,-9.875,0
20250,-4.625,17.1875,-6.8125,0
20270,-4.5,15.8125,-4.5,0
20290,-2.75,15.9375,-3.3125,0
20310,-0.3125,14.875,-3,0
20330,-1,13.8125,-0.125,0
20350,0.25,14.9375,0.125,0
20370,0.5625,13.9375,1.6875,0
20390,-0.375,13.375,2.5,0
20410,1.75,13.5,1.375,0
20430,2.5,12,3.125,0
20450,2.6875,10.5625,3.6875,0
20470,2.5625,11.3125,3.625,0
20490,4.4375,11.25,4.8125,0
20510,2.25,9.6875,5.9375,0
20530,1.0625,9.9375,5.125,0
20550,4.4375,9.25,5.4375,0
20570,3.5625,7.8125,6.875,0
20590,1.8125,9.25,8.25,0
20610,-0.75,9.5,9.8125,0
20630,1.3125,7.4375,9.125,0
20650,1.75,5.9375,9.5625,0
20670,3,4.25,9.875,0
20690,2.6875,3.25,8.9375,0
20710,2.3125,3.5625,9.75,0
20730,1.75,2.9375,10.625,0
20750,0.3125,3.625,11.875,0
20770,0.625,4.3125,12.125,0
20790,0.3125,2.8125,14.375,0
20810,-0.625,3.6875,14.9375,0
20830,1.1875,6.75,12.875,0
20850,2.375,7.0625,12.5,0
20870,-2,6.125,14.0625,0
20890,-2.1875,6.875,15.0625,0
20910,-5.125,5.9375,16.5,0
20920,-9.25,6.5625,17.375,0
20940,-11,6.3125,17.9375,0
20960,-11.125,6.875,17.3125,0
20980,-9.0625,4.8125,16.9375,0
21000,-8.25,3.625,18.8125,0
21020,-7.9375,4.6875,18.3125,0
21040,-7.3125,4.9375,16.0625,0
21060,-6.75,4.9375,15.6875,0
21080,-5.125,4.75,20,0
21100,-6.75,3.875,19.4375,0
21120,-6.9375,4.0625,17.9375,0
21140,-3.9375,2.6875,18.6875,0
21160,-5.4375,2.75,18,0
21180,-6.4375,2.1875,16.75,0
21200,-4,-1,19.6875,0
21220,-1.0625,-2.25,18.625,0
21240,-1,-2.625,14.75,0
21260,1.9375,-3.375,13.75,0
21280,-0.625,-5.625,16,0
21300,-3.8125,-6.5,16.6875,0
21320,-2.3125,-6.9375,17.8125,0
21340,-3.625,-7.6875,15.9375,0
21360,-1.9375,-9.25,14.1875,0
21380,-1.75,-9.9375,15.6875,0
21400,-2.8125,-10.4375,16.3125,0
21420,-2.8125,-9.5,14.5625,0
21440,-0.5625,-10.875,15.5,0
21460,-2,-12.125,15.1875,0
21480,-2.125,-12.75,13.875,0
21500,0.6875,-12.8125,13.6875,0
21520,0.5625,-16.3125,14.75,0
21540,1.375,-16.0625,13.5,0
21560,0.3125,-15.9375,13.1875,0
21580,-1.8125,-16.8125,15.5,0
21600,-1.9375,-17.125,16.25,0
21620,0.6875,-18.6875,15.6875,0
21640,-0.125,-19.6875,14.4375,0
21660,0.25,-19.375,14.5625,0
21680,-0.25,-18.9375,15.9375,0
21700,-2.8125,-19.5,15,0
21720,-5.125,-21.1875,15.0625,0
21740,-2.8125,-22.125,14.125,0
21760,-0.75,-22,11.875,0
21780,-1.0625,-21.875,10.9375,0
21800,-3.1875,-23.3125,10.75,0
21820,-4.5625,-23.9375,8.9375,0
21840,-2.625,-22,6.5625,0
21860,4.5625,-22,5.625,0
21880,2.4375,-22.625,4.75,0
21900,-0.5,-22.125,5.5625,0
21920,-2.875,-21.8125,4.375,0
21940,-4.75,-21.875,2.8125,0
21960,-0.5,-22.75,1.8125,0
21980,-1.5625,-24.6875,2,0
22000,-3.8125,-24,1.375,0
22020,-6.0625,-23.125,2.1875,0
22040,-4.125,-22.875,1.375,0
22060,-4.5,-24.375,-0.25,0
22080,-0.1875,-23.5625,-0.875,0
22100,-0.125,-22.1875,0,0
22120,-8.0625,-21.3125,1.3125,0
22140,-5.6875,-20,1.9375,0
22160,-2.6875,-21.5625,1.8125,0
22180,-4.625,-22.1875,-0.0625,0
22200,-6.5625,-22.3125,-0.125,0
22220,-4.0625,-21.625,0,0
22240,-2.1875,-22.0625,-1.125,0
22260,-1.75,-23.625,-1.875,0
22280,-0.125,-23.9375,-1.4375,0
22300,-1.625,-24.875,-1.4375,0
22320,-3.5625,-24.3125,-1.3125,0
22340,-1.875,-23.125,-2.8125,0
22360,-1.125,-23.25,-5.875,0
22380,-3.0625,-23.6875,-5.5625,0
22400,-1.625,-22.5,-4.6875,0
22420,-0.125,-22.375,-8.5625,0
22440,-1.3125,-22.625,-10.5625,0
22460,-1.25,-22.625,-10.4375,0
22480,-0.625,-22.3125,-12.1875,0
22500,-2.0625,-22.8125,-11.375,0
22520,-0.3125,-23.3125,-11.9375,0
22540,2.9375,-24.125,-11.0625,0
22560,3.0625,-25.5,-12.5625,0
22580,1.4375,-26.3125,-17.6875,0
22600,-1.875,-25.1875,-19.9375,0
22620,-5.625,-23.75,-21.3125,0
22640,-5.4375,-22.0625,-22.1875,0
22660,-2.375,-20.625,-24.4375,0
22680,1,-18.25,-24.0625,0
22700,0.5,-15.75,-25.0625,0
22720,-0.75,-12.4375,-25.4375,0
22740,-0.25,-9.3125,-23.9375,0
22760,-0.625,-7.25,-21.625,0
22780,-1.875,-5.125,-21.6875,0
22800,-1.6875,-2.375,-21.25,0
22810,-2.8125,-2.375,-22.875,0
22840,-4.25,-3,-23,0
22860,-8,-1.5625,-25.0625,0
22880,-11,-0.75,-20.4375,0
22890,-8.75,-2.25,-23.875,0
22910,-7.5625,-6.75,-27.3125,0
22930,-8.25,-6.875,-29.875,0
22950,-9.9375,-5.25,-31.25,0
22970,-12.9375,-4.25,-30.6875,0
22990,-12.75,-2.75,-29.25,0
23010,-10.375,-1.5,-29.4375,0
23030,-10.1875,-1.25,-29.125,0
23050,-8.875,1.0625,-25.6875,0
23070,-8.375,3,-25.6875,0
23090,-7.8125,3.5,-23.3125,0
23110,-6.75,4.75,-23.25,0
23130,-8.4375,6.75,-23.25,0
23150,-11.125,8.0625,-21.625,0
23170,-11,8.75,-23.125,0
23190,-10.5,8.4375,-23.25,0
23210,-10.125,9.4375,-25.4375,0
23230,-12.3125,11.0625,-25.3125,0
23250,-13.625,12.6875,-23.1875,0
23270,-14.5625,13.6875,-23.0625,0
23290,-14.75,15.125,-24.6875,0
23310,-14.625,16.8125,-26.1875,0
23330,-15.375,18.375,-25.3125,0
23350,-15.5,21.1875,-24.5,0
23370,-14.75,23.5625,-24.1875,0
23390,-14.5625,23.75,-23.125,0
23410,-15.75,25.8125,-23.8125,0
23430,-15.75,28.6875,-24.25,0
23450,-10.9375,30.1875,-24.5,0
23470,-9.5,31.5625,-24,0
23490,-10.4375,32.5,-23.4375,0
23510,-10.5,35.25,-22.25,0
23530,-10,38.375,-20.5,0
23550,-6.3125,37.9375,-20.5,0
23570,-4.8125,37.3125,-17.6875,0
23590,-2.6875,38.5625,-13.375,0
23610,0.0625,37.5625,-13.8125,0
23630,-0.125,34.4375,-14.875,0
23650,-2.5,31.1875,-13.625,0
23670,-3.0625,28.625,-9.9375,0
23690,-0.8125,26.5625,-6.875,0
23710,0.8125,23.8125,-5.125,0
23730,0.0625,22.625,-3.8125,0
23750,-0.4375,20.875,-3.8125,0
23770,-1.9375,19.125,-4.3125,0
23790,2.375,18,-2.5,0
23810,8.125,21.3125,-1.8125,0
23830,9.125,25.375,0.4375,0
23850,12.5625,27.75,4.5625,0
23870,16.1875,27.1875,1.9375,0
23890,13.3125,23.8125,-0.0625,0
23910,9,20.5,1.5,0
23930,6.5625,20.625,3.125,0
23950,4.0625,22.5625,5.25,0
23970,3.6875,20.5625,7,0
23990,4.5625,18.4375,10.125,0
24010,2.0625,18.25,11.5625,0
24030,0.1875,18.625,10.6875,0
24050,1.3125,20.0625,11,0
24070,2.75,21.875,12.625,0
24090,3.875,20.5,15.8125,0
24110,1.125,19.125,17.625,0
24130,0,19.4375,13.75,0
24150,2.375,17.25,13.25,0
24170,1.6875,16.875,13.5,0
24190,-1.0625,17.3125,15.4375,0
24210,-2.875,15.25,19.3125,0
24230,0.4375,11,18.0625,0
24250,1.4375,9.125,15.8125,0
24270,4.1875,8,12.75,0
24290,4.4375,5.4375,12.0625,0
24310,2.625,5.25,13.3125,0
24330,3.6875,5.5,15.375,0
24350,3.6875,7.6875,17.0625,0
24370,4.9375,8.9375,16.5625,0
24390,9.25,7.5,17.8125,0
24410,8,7.125,18.875,0
24430,5.25,6.125,17.75,0
24450,1.625,3.1875,19.75,0
24470,-0.8125,2.25,20.4375,0
24490,0.6875,1.3125,19.6875,0
24510,1.375,0.0625,21.8125,0
24530,0.1875,-0.8125,25.0625,0
24550,-0.8125,-0.125,23.4375,0
24570,1.5625,-0.8125,22.25,0
24590,1,-2.75,22,0
24610,-3.4375,-3.3125,22.4375,0
24630,-5,-3.0625,24.3125,0
24650,-5,-4.75,23.375,0
24670,-5,-6.125,22.0625,0
24690,-0.625,-8.1875,22.0625,0
24710,2.375,-8.5625,21.6875,0
24730,3.8125,-7.875,20.8125,0
24750,1.0625,-11,20.9375,0
24770,-4.25,-12.5,21,0
24790,-4.1875,-12.1875,20.625,0
24810,0.875,-13.0625,19.0625,0
24830,1.25,-14.625,19.5,0
24850,1.5625,-13.6875,19.8125,0
24870,-0.3125,-15.9375,20.1875,0
24890,-4.25,-16.125,18.4375,0
24910,-2.375,-15.4375,17.5,0
24930,-3.9375,-16.4375,17.3125,0
24950,-3.3125,-16.875,17.5625,0
24970,0.1875,-16.8125,16.5625,0
24990,2.1875,-16.4375,15.875,0
25010,-0.375,-17.3125,15.1875,0
25030,-0.3125,-17.6875,15.4375,0
25050,-1.8125,-18.8125,16.1875,0
25070,-4.3125,-20.5,16.1875,0
25090,-6.625,-21.625,14.8125,0
25110,-6.125,-22.75,13.6875,0
25130,-3.625,-24.1875,12.4375,0
25150,-1.5625,-25.0625,9.9375,0
25170,-1.125,-26.125,9.8125,0
25190,-6.625,-28.0625,11.5625,0
25210,-8.75,-27.875,10.25,0
25230,-5.6875,-27.3125,10.0625,0
25250,-5.25,-28.1875,8.9375,0
25270,-7.3125,-28.875,10.25,0
25290,-6.25,-29.625,9.1875,0
25310,-5.375,-29.0625,5.4375,0
25330,-5.4375,-29.375,4.3125,0
25350,-3.75,-28.9375,5.75,0
25370,-1.375,-26.875,4.4375,0
25390,1.8125,-26.5625,3.5625,0
25410,-4.25,-28.4375,2.5,0
25430,-3.875,-27.0625,0.875,0
25450,-0.4375,-26.3125,-2,0
25470,-2.625,-26.9375,-3.0625,0
25490,-3.5625,-28.3125,-2.25,0
25510,-2.875,-26.5,-6.75,0
25530,1.25,-26.0625,-13.5,0
25550,-4.5625,-27.125,-12.3125,0
25570,-7.125,-26.0625,-8.625,0
25590,-4.375,-26,-8.9375,0
25610,-6.75,-27.75,-8.875,0
25630,-6.75,-27.5625,-6.25,0
25650,-6.3125,-27,-7.125,0
25670,-6.4375,-28.5,-7.0625,0
25690,-6.375,-27.9375,-6,0
25710,-8.9375,-26.5,-6.75,0
25730,-7,-25.875,-9.1875,0
25750,-4.625,-26,-11,0
25770,-3.8125,-25.375,-12.8125,0
25790,-3.4375,-24.625,-14.25,0
25810,-0.625,-22.9375,-16.1875,0
25830,2.375,-22.75,-20.375,0
25850,-0.75,-22.125,-19.9375,0
25870,-3.125,-20.875,-20.6875,0
25890,-4.25,-20.4375,-22.5,0
25910,-2.125,-19.625,-24.75,0
25930,-3,-16.5,-26.875,0
25950,-1.9375,-12.3125,-27,0
25970,1.5,-8.25,-26.5,0
25990,2.75,-6.875,-28.9375,0
26010,-1.0625,-2.875,-28.6875,0
26030,-1.875,3.8125,-27.25,0
26050,-0.75,6.25,-23.5,0
26070,-0.4375,9.6875,-19.3125,0
26090,3.25,12.625,-19.625,2001
26110,2.1875,11.875,-23.1875,0
26130,-1.875,12.375,-22.75,0
26150,-2.875,13.75,-22.5,0
26170,-2.3125,12.3125,-23.75,0
26190,-5.4375,11.25,-22,0
26210,-7.125,10.6875,-17.4375,0
26230,-5.4375,8.5625,-14.8125,0
26250,-4.375,8.1875,-13.0625,0
26270,-6.3125,7.4375,-9.25,0
26290,-7.75,6.125,-3.9375,0
26300,-7.3125,3.4375,-2.5,0
26320,-6.3125,0.75,-2.875,0
26340,-7.375,-0.1875,-3.4375,0
26360,-6.375,1,-2.1875,0
26380,-2.5,6.8125,-5.8125,0
26400,-1.625,10.875,-4.375,0
26420,1.375,14.6875,8.75,0
26440,4.9375,15.6875,16,0
26460,5.5,21.25,15.4375,0
26480,-0.3125,26.6875,15.875,0
26500,-5.8125,28.875,23.5625,0
26520,-5.375,28.8125,23.5625,0
26540,-5.125,27.8125,22.4375,0
26560,-4.25,27.5625,18,0
26580,-6.75,27.9375,16.9375,0
26600,-8.5,29.1875,15.125,0
26620,-6.75,31.9375,11.9375,0
26640,-0.5,35.5625,10.9375,0
26660,4.75,38.3125,18.0625,0
26680,6.6875,45.3125,32.9375,0
26700,12.6875,51.5,42.875,0
26720,24.3125,51.6875,41.125,0
26740,29.0625,53.9375,46.375,0
26760,27.75,51.8125,49.3125,0
26780,25.625,47.5,52.9375,0
26800,30.0625,41.25,53.8125,0
26820,35.625,36.8125,54.1875,0
26840,49.25,33.75,60.375,0
26860,42.3125,27.1875,69.8125,0
26880,28.0625,21.5625,64.9375,0
26900,27.3125,22.75,56.375,0
26920,29,18.125,59.1875,0
26940,22.5625,9.5625,59.6875,0
26960,20.5625,7.375,54.625,0
26980,22.375,12.375,54.25,0
27000,20.5,14.5,55.1875,0
27020,8.5,13.875,52.3125,0
27040,2.1875,13.0625,46.875,0
27060,4.75,11.6875,44.25,0
27080,-0.0625,14,43.5,0
27100,-7.25,18.125,41.9375,0
27120,-5.25,18.875,40,0
27140,-6.3125,14.75,34.4375,0
27160,-6.8125,13.9375,30.8125,0
27180,-8,12.1875,26.5625,0
27200,-9.9375,6.3125,21.9375,0
27220,-6.0625,2.4375,16.125,0
27240,-0.3125,-0.6875,13.1875,0
27260,-0.0625,-1.8125,11.1875,0
27280,-6.1875,-1.3125,10.5625,0
27300,-2.9375,-1.0625,10.5,0
27320,0.8125,-3.3125,3.5625,0
27340,0.4375,-5.875,1.75,0
27360,-0.1875,-7.5,2.875,0
27380,0.875,-8.875,-0.25,0
27400,2.5,-12.1875,-1.75,0
27420,3.125,-12.3125,0.0625,0
27440,0.125,-11.125,-0.875,0
27460,-2.375,-11,-0.25,0
27480,-0.3125,-10.75,3.875,0
27500,0.5,-10.375,6,0
27520,-0.75,-9.75,7.5625,0
27540,-0.4375,-7.5,8.75,0
27560,-1.125,-7.9375,11.375,0
27580,-4.9375,-5.375,14.5,0
27600,-3.3125,-6.5,13.4375,0
27620,-4.5,-7,9.8125,0
27640,-1.625,-9.3125,9.0625,0
27660,6.875,-10.125,7.9375,0
27680,8.25,-8.625,3.375,0
27700,6.0625,-12.1875,2.5625,2000
27720,2.5625,-16.375,5.8125,0
27740,6.125,-7.8125,1.5,0
27760,11.0625,-5.0625,-4.5625,0
27780,9.0625,-5.375,-6.625,0
27800,2.0625,-9.25,-5.625,0
27820,-2.125,-13.6875,0.6875,0
27840,0.6875,-15.8125,3.3125,0
27860,3.375,-17.3125,3.25,0
27880,5.625,-15.6875,0,0
27900,4,-14.5625,-1.9375,0
27920,2.375,-15.75,0.1875,0
27940,1.125,-16.1875,3.5625,0
27960,5.6875,-17.75,3.0625,0
27980,8.3125,-18.875,-0.0625,0
28000,6.5,-17.8125,1.625,0
28020,7.9375,-17.4375,1.0625,0
28040,10.375,-19.0625,-5.1875,0
28060,11.75,-19.0625,-7.5625,0
28080,14.25,-21.6875,-9.3125,0
28100,13.3125,-23.0625,-12.75,0
28120,15.125,-20.9375,-18.1875,0
28140,17.25,-18.1875,-21.8125,0
28160,20.0625,-16,-20.0625,0
28180,18.875,-14.75,-14.875,0
28190,17.1875,-14.5625,-17.5,0
28220,12.25,-12.4375,-22.25,0
28240,10.8125,-11.5,-24.125,0
28260,9.5,-10.8125,-20.75,0
28270,6.6875,-10.625,-17.625,0
28290,0.25,-11.125,-14.9375,0
28310,-3.3125,-8.75,-13.8125,0
28330,-3.875,-9.125,-12.3125,0
28350,-9.5,-9.4375,-9.1875,0
28370,-11.75,-7.3125,-6.9375,0
28390,-11.8125,-5.5,-9.3125,0
28410,-15.0625,-6.5,-12.6875,0
28430,-15,-6.3125,-16.3125,0
28450,-13.25,-3.9375,-16.625,0
28470,-10.25,1.375,-18.5,0
28490,-9.625,4.4375,-22.3125,0
28510,-11.9375,7.4375,-26.875,0
28530,-14.9375,11.4375,-28.875,0
28550,-16.0625,14.25,-27.0625,0
28570,-16.5625,14.9375,-26,0
28590,-15.875,13.9375,-24.125,0
28610,-13.5625,15.875,-29.5625,0
28630,-14.4375,17.5625,-31.3125,0
28650,-17.25,16.5,-29.75,0
28670,-19.4375,17.3125,-27.3125,0
28690,-22.375,19.4375,-28.75,0
28710,-21.875,19.125,-28.6875,0
28730,-16.0625,19.375,-31.3125,0
28750,-12.6875,19.8125,-31.1875,0
28770,-15.0625,20.8125,-29.5625,0
28790,-14.1875,21.3125,-28.875,0
28810,-9.875,22.3125,-28.8125,0
28830,-7.125,23.6875,-28.875,0
28850,-8.375,24,-30.625,0
28870,-11.3125,24.25,-30.5,0
28890,-8.75,25.375,-28.125,0
28910,-4.4375,24.625,-29.1875,0
28930,-3.5625,24.375,-31.4375,0
28950,-3.625,25.6875,-30.8125,0
28970,-4.4375,25.8125,-30.625,0
28990,-5.5,23.8125,-31.3125,0
29010,-5.75,24.25,-31.375,0
29030,-5.875,24.1875,-28.4375,0
29050,-4.625,24.375,-28.9375,0
29070,-5.1875,23.125,-28.125,0
29090,-6.75,23.625,-25,0
29110,-6.375,24.625,-24.75,0
29130,-4.25,24.6875,-26.0625,0
29150,-2.6875,24.0625,-28.625,0
29170,-1.875,23.5,-28.5625,0
29190,-2.5625,24.1875,-27.5625,0
29210,-2.3125,26.3125,-25.6875,0
29230,-0.75,27.125,-26.0625,0
29250,-1.125,25.0625,-24.5625,0
29270,-3.5,23.75,-22.9375,0
29290,-3.25,22.75,-19.9375,0
29310,-4.5,22.3125,-18.125,0
29330,-4.25,22.625,-18.25,0
29350,-4,20.9375,-16.25,0
29370,-2.8125,18.25,-11.5625,0
29390,-3.75,16.75,-8.75,0
29410,-6.1875,17.1875,-8.625,0
29430,-2.1875,16.5625,-6.9375,0
29450,0.9375,13.1875,-2.0625,0
29470,-6,12,-3.75,0
29490,-8.4375,12.4375,-4,0
29510,-9.3125,13.625,-1.4375,0
29530,-8.8125,11.6875,1.5625,0
29550,-8,10.75,3.4375,0
29570,-8.8125,12.75,2.75,0
29590,-7.1875,12.0625,2.5625,0
29610,-3.1875,10.4375,1.5,0
29630,0.9375,10.5,3.3125,0
29650,1.5625,9.875,5.875,0
29670,-1.4375,8.9375,7.8125,0
29690,1.25,9.75,7,0
29710,2.25,9.5,5.0625,0
29730,-0.25,7.875,6.4375,0
29750,-1.8125,7.5625,11.125,0
29770,-2.375,7.9375,11.625,0
29790,-4.25,7.3125,10.125,0
29810,0.375,6.5,13.0625,0
29830,3.375,5.3125,16.3125,0
29850,1.25,5.1875,14.9375,0
29870,1.125,5.5625,14.875,0
29890,1.0625,5.5,16.0625,0
29910,-0.375,5.125,14.6875,0
29930,0.1875,5.6875,14.4375,0
29950,0.75,5.1875,15.8125,0
29970,0.5625,5.0625,11.25,0
29990,1,5.625,10.8125,0
30010,1.9375,6.75,11.625,0
30030,0.25,6.5,10.625,0
30050,1.5625,7.5625,12.3125,0
30070,3,8.5625,14.375,0
30090,1.125,8.375,14.25,0
30110,2,8.875,12.25,0
30130,1.0625,6.875,12.5,0
30150,3.125,5.0625,16.25,0
30170,-0.625,5.375,17.25,0
30190,-1.375,5.6875,14.6875,0
30210,1.9375,3.75,12.75,0
30230,2.625,2,14.625,0
30250,1.875,1.125,15,0
30270,1.8125,0.4375,14,0
30290,0.375,-1.875,12.9375,0
30310,2,-3.0625,12.4375,0
30330,0.6875,-4,13.1875,0
30350,-2.0625,-5.3125,13.0625,0
30370,-3.3125,-6.6875,14.75,0
30390,-3.25,-8.875,16.25,0
30410,-3.6875,-9.6875,16.375,0
30430,-6.1875,-8.5625,16.3125,0
30450,-7.0625,-9.1875,17.75,0
30470,-7.5,-10.375,16.375,0
30490,-6.5625,-10.5625,15.0625,0
30510,-3.6875,-9.3125,16.0625,0
30530,-2.625,-8.5,15.3125,0
30550,-5.9375,-9,16.5625,0
30570,-9,-9.625,18.9375,0
30590,-7.4375,-10.25,19,0
30610,-10.6875,-11.1875,18.8125,0
30630,-9.25,-11.125,19.75,0
30650,-7.0625,-11.8125,19.5,0
30670,-7.0625,-11.3125,18.9375,0
30690,-7.0625,-11.6875,18.8125,0
30710,-8.875,-13.75,19.3125,0
30730,-8.1875,-13.8125,18.0625,0
30750,-4.3125,-15,16.9375,0
30770,-6.625,-17.25,16.5625,0
30790,-6.1875,-16.3125,15.25,0
30810,-2.5625,-16.1875,14.4375,0
30830,1.9375,-19.25,13.625,0
30850,0.5625,-17.9375,13.125,0
30870,-1.4375,-18.625,14.5,0
30890,-0.25,-19.4375,13.75,0
30910,-2.3125,-19.375,14.375,0
30930,-3.8125,-19.0625,13,0
30950,-3.25,-20,13,0
30970,-5.3125,-19.375,12.6875,0
30990,-4.6875,-19,11.5625,0
31010,-0.8125,-20.75,12.0625,0
31030,1.375,-20.9375,10.0625,0
31050,0.5,-20.25,6.9375,0
31070,-2,-20.5625,6.625,0
31090,-6.1875,-21.9375,7.375,0
31110,-3.8125,-22.9375,7.25,0
31130,-4.0625,-23.4375,6.0625,0
31150,-4.9375,-21.3125,4.3125,0
31170,-3.875,-21.6875,4.25,0
31190,-3.375,-22.3125,3.875,0
31210,-2.75,-22.75,2.8125,0
31230,-2.3125,-23.625,2.0625,0
31250,-2.25,-23.1875,1.375,0
31270,-3.5625,-22.75,0.5625,0
31290,-4.875,-25.375,0.875,0
31310,-7.1875,-25.75,2.1875,0
31330,-5.3125,-24.1875,1.3125,0
31350,-2.9375,-24.1875,0,0
31370,-2.9375,-24.5625,-1.375,0
31390,-1.125,-24.8125,-1.4375,0
31410,2.1875,-24,-0.125,0
31430,3.125,-24.4375,0.3125,0
31450,1.5625,-24.25,0.375,0
31470,2.875,-24.6875,-0.6875,0
31490,1.5,-26,0.8125,0
31510,-0.875,-28.375,0.75,0
31530,1.125,-29.1875,2.1875,0
31550,2.75,-28.9375,-0.1875,0
31570,0.5,-29.375,-2.375,0
31590,-3.375,-31.9375,-1.8125,0
31610,-5.3125,-32.75,0.0625,0
31630,-5.75,-32.5625,1,0
31650,-4.4375,-32.5625,-1.6875,0
31670,-4.6875,-32.5,-4.5625,0
31680,-2.4375,-31.625,-5.1875,0
31700,0,-30.8125,-4.1875,0
31720,-1.4375,-29.5625,-6.3125,0
31740,-0.3125,-27.6875,-8.75,0
31760,1.5,-29.3125,-7.3125,0
31780,3,-29.3125,-6.0625,0
31800,2.5625,-26.875,-6.0625,0
31820,-1.75,-25.75,-4.3125,0
31840,-3.5625,-24.5,-2.9375,0
31860,-3,-22.6875,0.875,0
31880,-4.5625,-20.9375,1.1875,0
31900,-4.8125,-20.4375,-1.8125,0
31920,-3.8125,-17.125,-2.5,0
31940,-3.625,-14.6875,-2,0
31960,-3.875,-14.5,-3.125,0
31980,-6,-12.875,-7.25,0
32000,-3.0625,-11.375,-7.3125,0
32020,1.375,-10.125,-10.9375,0
32040,-2,-9.125,-17.9375,0
32060,-4.1875,-8.4375,-18.4375,0
32080,-1.625,-6.4375,-18.375,0
32100,-3.875,-3.125,-17.625,0
32120,-4.9375,-1,-20.5625,0
32140,-5.6875,-3.25,-19.0625,0
32160,-5.75,-3.4375,-16.125,0
32180,-4.5625,-1.25,-19,0
32200,-5,-0.5625,-22.0625,0
32220,-6.3125,0.1875,-18,0
32240,-6.75,1.3125,-21.5625,0
32260,-9.3125,-0.75,-22.5,0
32280,-9.5625,0.375,-24.4375,0
32300,-8.75,2.6875,-28.375,0
32320,-9.6875,3.0625,-27.5625,0
32340,-9.5,4.625,-26.5,0
32360,-11.0625,6.4375,-26.25,0
32380,-11.3125,8.0625,-25.125,0
32400,-9.3125,10.25,-24.9375,0
32420,-9,12.5625,-26.625,0
32440,-10.875,14.5625,-25.9375,0
32460,-11.875,16.875,-25.5,0
32480,-12.3125,19,-26.375,0
32500,-10.0625,20.0625,-28,0
32520,-9.0625,21.5,-25,0
32540,-11.1875,22.75,-23.1875,0
32560,-12.1875,24.5625,-24.375,0
32580,-9.75,24.875,-26.25,0
32600,-8.6875,25.25,-27.5625,0
32620,-5.75,25.25,-27.1875,0
32640,-8.1875,25.3125,-26.5,0
32660,-7.25,25.0625,-25.4375,0
32680,-6.0625,25.25,-26.625,0
32700,-5.875,24.9375,-27.875,0
32720,-8.1875,25.5625,-28.3125,0
32740,-8.9375,25.9375,-25.875,0
32760,-4.125,25.8125,-25.75,0
32780,-1,25.875,-27.4375,0
32800,-2.5,25.5625,-26.375,0
32820,-6.5625,27.4375,-27.3125,0
32840,-5.9375,27.8125,-29,0
32860,-0.5625,25.875,-27.0625,0
32880,-0.25,26.25,-25.5,0
32900,-4.4375,27.375,-24.4375,0
32920,-7.8125,29.1875,-22.5,0
32940,-4.4375,28.9375,-22.5625,0
32960,-2.375,26.1875,-24.9375,0
32980,-2.6875,25.25,-20.875,0
33000,-5.5625,26.25,-15.5625,0
33020,-4.1875,24.8125,-13.3125,0
33040,-4.5625,23.0625,-13.5,0
33060,-6.9375,23.9375,-12.0625,0
33080,-7.625,23.0625,-12.0625,0
33100,-5.9375,19.8125,-11.1875,0
33120,-2.9375,17.1875,-6,0
33140,-4.75,15.375,-3.5625,0
33160,-8.4375,13.875,-4.1875,0
33180,-8.375,13.125,-2.3125,0
33200,-12.375,14.3125,-0.25,0
33220,-10.75,14.875,-1.375,0
33240,-7.75,13.0625,2.6875,0
33260,-6.125,14.5625,5.25,0
33280,-7.6875,16.4375,4.4375,0
33300,-5.875,16.6875,7.75,0
33320,-4.6875,15.5,11.5,0
33340,-6.8125,13.0625,11.125,0
33360,-5.125,11.875,9.8125,0
33380,-5.25,12.0625,12.0625,0
33400,-7.5625,12.625,11.6875,0
33420,-7.1875,12.8125,11.375,0
33440,-4,10.375,12.75,0
33460,-0.1875,9.6875,13.1875,0
33480,-1.8125,10.1875,12.5,0
33500,-0.75,10.6875,10.8125,0
33520,-3.375,8.6875,9.9375,0
33540,-4.5625,7.5,11.5,0
33560,-1.375,7.9375,13.25,0
33580,-1.6875,6.625,11.625,0
33600,-2.9375,5.875,12.1875,0
33620,-0.625,5.5625,12.5,0
33640,-0.3125,5.0625,9.9375,0
33650,2,3.625,9.0625,0
33670,4.625,3.9375,11.0625,0
33690,5.5625,4.5,10.5,0
33710,0.9375,4.8125,8.125,0
33730,-0.3125,4.6875,7.375,0
33750,2.1875,4.5625,10.1875,0
33770,3.0625,5.6875,12.1875,0
33790,1.375,6.4375,12.6875,0
33810,-2.125,6,13,0
33830,-4.5625,6.1875,12.375,0
33850,-4.125,6.0625,12.25,0
33870,-1.4375,6.125,13.75,0
33890,-3.8125,5.0625,14.625,0
33910,-4,3.375,15.5625,0
33930,-4.625,3.375,15.1875,0
33950,-4.375,3.8125,10.0625,0
33970,0.875,2,9.3125,0
33990,6.125,0.75,10.4375,0
34010,0.875,0.3125,10.25,0
34030,-4.625,1,9.25,0
34050,-4.8125,-0.5,11.0625,0
34070,-4.125,-2.375,11.8125,0
34090,-5.8125,-2.875,11.375,0
34110,-4.25,-3.6875,12.8125,0
34130,-2.4375,-4,12.125,0
34150,-2.9375,-5.375,12.25,0
34170,-1.875,-4.9375,14.4375,0
34190,1.8125,-3.375,14.1875,0
34210,1.0625,-4.75,14.4375,0
34230,-1.3125,-4.375,16.6875,0
34250,-3.5,-4,17,0
34270,-3.125,-6.4375,17.625,0
34290,-1.625,-6.125,18.125,0
34310,-1.5625,-4.875,17.875,0
34330,-2.1875,-5.875,18.0625,0
34350,-1.4375,-6.125,19.125,0
34370,-1.125,-6.0625,18.6875,0
34390,-2.125,-6.3125,17.5,0
34410,-2.8125,-7.4375,17.9375,0
34430,-1.1875,-7.75,16.1875,0
34450,0.8125,-9.5625,14.5,0
34470,-0.8125,-10.8125,15.1875,0
34490,-1,-10.875,16.0625,0
34510,-1,-12.25,14.5625,0
34530,-0.5625,-14.0625,15.125,0
34550,-2.1875,-13.1875,15.6875,0
34570,-1.6875,-13.5,15.125,0
34590,-0.25,-16.5625,15,0
34610,-1.125,-16.8125,13.875,0
34630,0.0625,-16.3125,13,0
34650,1.1875,-18.3125,12.9375,0
34670,-3,-19.875,12.5625,0
34690,-2.0625,-19.5625,10.6875,0
34710,0.3125,-22.3125,10.25,0
34730,-1.875,-23.6875,10.5,0
34750,-3.875,-22.625,8.875,0
34770,-2.3125,-23.8125,7.9375,0
34790,-2.3125,-25.375,7.3125,0
34810,-2.4375,-24.8125,4.9375,0
34830,-3.5,-26.4375,6.3125,0
34850,-6.5625,-27.9375,8.875,0
34870,-6.5,-26.9375,6.8125,0
34890,-3.8125,-27.4375,4.75,0
34910,-7.0625,-29.3125,7.0625,0
34930,-7.625,-28.3125,8.8125,0
34950,-6,-27.875,6.8125,0
34970,-7.9375,-29.1875,5.375,0
34990,-7,-28.625,6.9375,0
35010,-4.125,-27.125,5.4375,0
35030,-1.5,-24.3125,3.0625,0
35050,2.8125,-23.5625,6.1875,0
35070,0.25,-24.125,8.8125,0
35090,0.5,-24.75,7,0
35110,-1.8125,-24.1875,7.1875,0
35130,-4.5625,-24.1875,9.4375,0
35150,-3.8125,-23.125,9.4375,0
35170,-4.3125,-22,10.375,0
35190,-6.75,-21.625,10.25,0
35210,-5.6875,-19.8125,9.3125,0
35230,-2.0625,-19.625,8.75,0
35250,-2.6875,-19.0625,6.8125,0
35270,-3.25,-18.0625,4.3125,0
35290,-1.75,-17.5,3.4375,0
35310,3.8125,-17.625,1.3125,0
35330,3.0625,-18.0625,-0.8125,0
35350,-3.3125,-17.8125,-2.6875,0
35370,-0.125,-17.6875,-7.125,0
35390,4.6875,-19,-7.125,0
35410,3.1875,-18.875,-5.875,0
35430,0.75,-17.4375,-8.9375,0
35450,-1.875,-18.125,-8.625,0
35470,0.125,-19.4375,-7.3125,0
35490,-0.4375,-19.75,-8.75,0
35510,-2.6875,-19.6875,-8.75,0
35530,-4.4375,-20.3125,-8,0
35550,-5.125,-21,-7.5625,0
35570,-4.9375,-22.0625,-10,0
35590,-5,-24.0625,-9,0
35610,-6.6875,-23.6875,-8.6875,0
35630,-9.6875,-22.75,-9.5,0
35650,-7.8125,-22.625,-10.125,0
35670,-7.75,-22.9375,-12.3125,0
35690,-8.0625,-23.0625,-13.3125,0
35710,-8.3125,-21.5625,-13.6875,0
35730,-5.9375,-20,-14.75,0
35750,-6.6875,-20.375,-16.9375,0
35770,-11.1875,-19.25,-18.3125,0
35790,-9.4375,-17.8125,-17.75,0
35810,-4.1875,-16.875,-19.4375,0
35830,-6.25,-17.6875,-24.8125,0
35850,-8.3125,-17.125,-25.0625,0
35870,-6.625,-14.1875,-25.8125,0
35890,-7,-13.1875,-25.3125,0
35910,-9.6875,-11.25,-24.75,0
35930,-9.6875,-10.5625,-27.0625,0
35950,-6.3125,-9.625,-27.0625,0
35970,-3.875,-7.5625,-24.125,0
35990,-5.25,-5.0625,-26.875,0
36010,-4.1875,-2.875,-28.4375,0
36030,-7.0625,-1.125,-24.5625,0
36050,-8.125,-0.625,-24.0625,0
36070,-8.9375,-0.625,-28,0
36090,-8.5,0.125,-27.4375,0
36110,-8.4375,1.375,-25.9375,0
36130,-12.375,2.4375,-24.375,0
36150,-13.9375,3.1875,-20.8125,0
36170,-12.6875,3.625,-20.875,0
36190,-13.9375,4,-23.75,0
36210,-17.4375,5.1875,-23.375,0
36230,-15.875,4.875,-23.625,0
36250,-15.3125,6.8125,-24.5625,0
36270,-14.25,9.6875,-25.25,0
36290,-16.625,10.875,-23.1875,0
36310,-18.25,14.0625,-21.375,0
36330,-17.375,16.25,-19.875,0
36350,-16.5625,16.6875,-20.6875,0
36370,-15.5,18.0625,-19.625,0
36390,-14.5,20.25,-18.4375,0
36410,-16.5,20.0625,-19.5,0
36430,-16.8125,20.1875,-19.375,0
36450,-13.3125,20.6875,-20.375,0
36470,-14.125,19.4375,-21.4375,0
36490,-14.9375,20.25,-21.8125,0
36510,-16.9375,21.5625,-22.3125,0
36530,-14.9375,22.3125,-24.3125,0
36550,-14.25,22.875,-24,0
36570,-13.8125,25.3125,-22.1875,0
36590,-12,27.125,-18.4375,0
36610,-10.3125,29.25,-17.375,0
36630,-9.1875,30.3125,-17,0
36650,-9.0625,31.0625,-14.5,0
36670,-11.6875,31.625,-11.5625,0
36690,-7.75,31,-11.375,0
36710,-6.1875,29.5625,-8.75,0
36730,-7.125,28.5625,-10.5625,0
36750,-8.25,25.9375,-8.5625,0
36770,-7.625,24.75,-5.6875,0
36790,-9.0625,25.625,-5.8125,0
36810,-6.6875,25.3125,-6.375,0
36830,-4.875,25.6875,-2.6875,0
36850,-2.875,24.8125,-3.1875,0
36870,-1.875,21.75,-1.375,0
36890,-2.5625,22.4375,-1.125,0
36910,-0.4375,23.875,-2.1875,0
36930,-1.5,23.625,-0.5625,0
36950,-3.3125,24.6875,5.0625,0
36970,-7.1875,25.3125,6.8125,0
36990,-4.8125,25.1875,9.3125,0
37010,-1.75,24,8.125,0
37030,-2.8125,23.5625,6.5,0
37050,-1.3125,23.5625,8.6875,0
37060,-1.5,24.3125,11.1875,0
37080,-3.875,25.5,7.625,0
37100,-2,26.6875,9.0625,0
37120,0.75,26.625,11,0
37140,2.5,26.125,5.3125,0
37160,4.5,24.5625,4.5625,0
37180,4.4375,24.6875,5.8125,0
37200,0.125,25.9375,3.625,0
37220,-0.625,25.9375,4.0625,0
37240,-2.875,24.6875,11.25,0
37260,-3.6875,23.25,10.125,0
37280,-0.5,21.25,8.5,0
37300,1.1875,19.6875,8.875,0
37320,-4.625,20.1875,7.3125,0
37340,-8.5,22.0625,7.625,0
37360,-8.25,21,10,0
37380,-9.125,20.9375,9.875,0
37400,-6.25,21,5.25,0
37420,-0.5,18.125,5.8125,0
37440,-4.3125,17.3125,7.25,0
37460,-6.3125,20.125,6.0625,0
37480,-5.6875,19.3125,7,0
37500,-4.4375,15.8125,7.9375,0
37520,-3.875,14.6875,8.3125,0
37540,-2.125,12.875,6.875,0
37560,-5.0625,12.8125,6.8125,0
37580,-6.5,12.0625,6.625,0
37600,-5.375,9.3125,6.875,0
37620,-3.375,8.4375,7.6875,0
37640,-1.625,7.75,7.25,0
37660,-7.5625,6.9375,8.625,0
37680,-11,7.875,10.0625,0
37720,-4.9375,4.625,9.75,0
37740,-3.4375,5.25,11.375,0
37760,-3.25,7.0625,10.625,0
37780,-4.375,7.625,10.375,0
37800,-6.6875,7.0625,11.3125,0
37820,-4.0625,7.125,11.4375,0
37840,0.875,6.9375,8.5625,0
37860,5.125,5.625,10,0
37880,3.3125,4.9375,9.75,0
37900,2.0625,7,6.5625,0
37920,2.9375,6.375,8.875,0
37940,0.8125,3.1875,11.6875,0
37960,-1.8125,2.5625,10.875,0
37980,-4.125,2.25,9.5,0
38000,-2.625,-0.75,10.75,0
38020,-1.4375,-2.375,9.75,0
38040,1.1875,-4.5625,8.3125,0
38060,0.25,-7.125,6.9375,0
38080,-1.4375,-7.8125,6.0625,0
38100,-0.9375,-7.8125,4.9375,0
38120,0,-10.0625,5.5625,0
38140,0.6875,-9.8125,5.8125,0
38160,0.625,-9.5625,5.8125,0
38180,-0.1875,-10.375,7.25,0
38200,-1.625,-9.8125,6.875,0
38220,-1.75,-9.4375,6.8125,0
38240,0.125,-10.0625,9.25,0
38260,1.375,-10.8125,10.625,0
38280,1,-9.75,9.3125,0
38300,-1.1875,-10.25,9.4375,0
38320,-0.25,-11,11.4375,0
38340,0.1875,-10.875,12.0625,0
38360,1.25,-10.3125,11,0
38380,1.4375,-11.8125,11.625,0
38400,4.875,-13.125,13.5,0
38420,9.6875,-11.875,11.625,0
38440,8.0625,-11.375,9.125,0
38460,-0.625,-12.625,14.0625,0
38480,-4.6875,-12.625,14.9375,0
38500,-0.875,-15.1875,12,0
38520,1.0625,-16,16.0625,0
38540,1.125,-14,17.5625,0
38560,0.125,-12.75,17.25,0
38580,-2.75,-14.5,16.75,0
38600,-3.5625,-12.5,13.3125,0
38620,-2.9375,-12.3125,12.625,0
38640,-3.6875,-15.0625,14.75,0
38660,-4.8125,-14.3125,13.4375,0
38680,-5.5625,-13.75,12.625,0
38700,-5.875,-14.0625,12.375,0
38720,-7.0625,-14.125,14.5,0
38740,-7.6875,-14.125,14.75,0
38760,-8.75,-13.5625,13.125,0
38780,-10.3125,-12.875,11.25,0
38800,-8.5625,-13.375,9.8125,0
38820,-9,-13.75,9.75,0
38840,-7.0625,-13.375,9.625,0
38860,-8.8125,-13.25,9.5,0
38880,-11.875,-13.75,9.875,0
38900,-11.6875,-15.0625,11.625,0
38920,-9.25,-15.5625,10.5625,0
38940,-9.125,-14.625,9.3125,0
38960,-11.375,-14.6875,10.3125,0
38980,-8.0625,-14.5,9.5,0
39000,-7.25,-16.3125,9.125,0
39020,-9.5,-17.25,8.0625,0
39030,-6.125,-16.3125,6,0
39050,-6.0625,-17.1875,4.3125,0
39070,-6.125,-16.25,4.75,0
39090,-4.3125,-15.5625,3.4375,0
39110,-5.8125,-16.6875,3.3125,0
39130,-7.875,-15.625,2.8125,0
39150,-6.5625,-16.25,1.875,0
39170,-4.4375,-17,1.375,0
39190,-7,-17.125,3.75,0
39210,-9.3125,-16.625,4.875,0
39230,-9.125,-17.0625,1.4375,0
39250,-9.1875,-18,0.9375,0
39270,-8.5625,-16.9375,0.8125,0
39290,-7.0625,-17.9375,-0.375,0
39310,-6.875,-18.0625,0.25,0
39330,-7.0625,-16.5,-0.125,0
39350,-3.75,-15.625,-3.625,0
39370,-3.1875,-18.6875,-4.3125,0
39390,-4.0625,-18.9375,-2.8125,0
39410,-4.25,-17.5625,-3.75,0
39430,-6.9375,-19.0625,-4.625,0
39450,-6.5,-19,-3.75,0
39470,-8.4375,-18,-4.25,0
39490,-10.375,-19.125,-3.625,0
39510,-7.375,-20.4375,-3.625,0
39530,-3.875,-21.75,-5.5,0
39550,-4.375,-21.375,-7.0625,0
39570,-5.625,-21.125,-8.5,0
39590,-3.75,-19.9375,-9.75,0
39610,-2.3125,-19.125,-10.1875,0
39630,-6,-19.375,-9.25,0
39650,-8.625,-18.8125,-10.1875,0
39670,-2.6875,-19,-11.625,0
39690,-1.6875,-20,-10.625,0
39710,-5.25,-19.9375,-8.875,0
39730,-9.3125,-17.6875,-8.875,0
39750,-8.0625,-16.4375,-8.5,0
39770,-6.375,-16.5,-8.125,0
39790,-9.3125,-15.8125,-5.8125,0
39810,-13.125,-13,-3.875,0
39830,-10.3125,-11.0625,-4.125,0
39850,-7.0625,-12.5625,-2.9375,0
39870,-8.5625,-11.4375,-1.1875,0
39890,-9.375,-10.0625,-2.625,0
39910,-8.3125,-8.875,-5.125,0
39930,-9.3125,-7.875,-3.8125,0
39950,-11.5,-7,-2.25,0
39970,-9.75,-7.5,-3.125,0
39990,-6.5625,-7.75,-5.375,0
40010,-6.75,-6.4375,-7.5,0
40030,-6.6875,-5.0625,-7.8125,0
40050,-7.5,-5.875,-8.875,0
40070,-8.1875,-5.375,-12,0
40090,-5.25,-4.125,-13.6875,0
40110,-2.25,-3.8125,-13,0
40130,-0.5625,-4.0625,-15.1875,0
40150,-0.125,-4.3125,-15.625,0
40170,1.0625,-4,-16.9375,0
40190,0.0625,-4.6875,-20.4375,0
40210,-5.1875,-6.3125,-19.9375,0
40230,-4.25,-5.9375,-20.75,0
40250,-0.75,-7.4375,-21.4375,0
40270,-1.5,-8.0625,-22.625,0
40290,-4.9375,-6.5625,-24.125,0
40310,-4.4375,-6.125,-22.25,0
40330,-2.5625,-7.875,-18.8125,0
40350,-1.875,-9.8125,-18,0
40370,-3.75,-10.9375,-19.4375,0
40390,-5.625,-11.0625,-19.375,0
40410,-9.1875,-11.625,-16.5,0
40430,-13.0625,-13.1875,-12.5625,2001
40450,-9.5625,-13.1875,-9.75,0
40470,-9.5,-13.3125,-9.6875,0
40490,-7.5,-11.8125,-9.0625,0
40510,-6.125,-10.75,-7.125,0
40530,-3.125,-10.0625,-6.9375,0
40550,-0.8125,-9.875,-8.0625,0
40570,-0.5625,-10.3125,-8.375,0
40590,2.0625,-8.375,-8.4375,0
40610,5.1875,-5.9375,-7.625,0
40630,6.5,-4.5,-6.0625,0
40650,8.4375,-3.8125,-4.75,0
40670,9.5625,-1.5625,-3.1875,0
40690,12.9375,1.1875,-0.1875,0
40710,15.125,1.75,3.1875,0
40730,17.625,1.875,7.3125,0
40750,22.875,9,9.9375,0
40770,28.8125,11.4375,13.9375,0
40790,32.3125,11.0625,19.375,0
40810,37.375,15.375,25.8125,0
40830,42.8125,21.4375,22.0625,0
40850,40.375,22.1875,18.75,0
40870,29.5,24.5,16.25,0
40890,26.25,31.375,19.8125,0
40910,24.0625,38.3125,31.1875,0
40930,26.5,37.5,34.5625,0
40950,30.1875,31.75,22.1875,0
40970,27.5,29.875,18.75,0
40990,28.0625,29.25,21.9375,0
41010,21.75,28.3125,19.8125,0
41030,16.875,30.3125,19.0625,0
41050,15.1875,32.625,21.8125,0
41070,18.5,36.0625,27.5625,0
41090,22.125,35.6875,30,0
41110,22.8125,35.8125,31.5625,0
41130,31.875,40.9375,40.5,0
41150,49.9375,45.5625,45.875,0
41170,55.375,40.8125,48.875,0
41190,45.375,40.6875,49.125,0
41210,43.125,52.4375,53.5,0
41230,47.875,58.4375,63.625,0
41250,42.25,51.9375,68.625,0
41270,38.3125,49.8125,67.375,0
41290,39.1875,53.875,68.9375,0
41310,36.1875,53.4375,71,0
41330,21.1875,48.25,66.3125,0
41350,14.5,46.3125,60.625,0
41370,19.3125,43.75,55.5625,0
41390,13.8125,35.3125,50.125,0
41410,9.6875,28.75,40.625,0
41430,10.375,23.9375,35.0625,0
41450,11.0625,15.125,28.1875,0
41470,8.3125,6.875,20.375,0
41490,7.625,-0.625,16.25,0
41510,5.375,-2.9375,13.0625,0
41530,1.5625,-5.9375,9.375,0
41550,-1.4375,-9.6875,7.3125,0
41570,-2.1875,-9.8125,8.4375,0
41590,-0.25,-10.9375,7.25,0
41610,0.875,-14.625,5.5625,0
41630,1.5,-15.5,5.25,0
41650,3.625,-14.125,5.5625,0
41670,0.6875,-14.125,5.125,0
41690,-1.375,-14.125,4,0
41710,-1.9375,-12.1875,4.875,0
41730,-1.1875,-10.8125,5.6875,0
41750,-1.4375,-9.75,6,0
41770,1.1875,-8.5625,8.5625,0
41790,4.875,-8.9375,8.1875,0
41810,7.1875,-11.1875,6.9375,2000
41830,9.1875,-11.3125,7.875,0
41850,6.8125,-11.25,10.3125,0
41870,4.5,-10.6875,14.6875,0
41890,3.125,-9.8125,9.9375,0
41910,1.1875,-10.8125,5.625,0
41930,1.1875,-13.5,6.9375,0
41950,2.375,-15.375,9.9375,0
41970,-1.9375,-15.8125,11.5,0
41990,-1.5,-17.125,9.25,0
42010,-2.9375,-17.6875,5.5,0
42030,-0.5625,-20.0625,1.625,0
42050,-0.125,-24.0625,1,0
42070,-0.3125,-25.1875,1.8125,0
42090,0.3125,-24.125,0.375,0
42110,-3.3125,-25.0625,0.0625,0
42130,-3.375,-25.25,-0.4375,0
42150,-4.125,-25.0625,-3.3125,0
42170,-2.25,-25.6875,-4.5625,0
42190,0.3125,-22.375,-5.6875,0
42210,2.875,-19.9375,-6.3125,0
42230,-0.9375,-19.6875,-5.1875,0
42250,-3.6875,-19.25,-5.9375,0
42270,-5.875,-19.8125,-8.625,0
42290,-4.125,-19.25,-10.6875,0
42310,-0.1875,-19.625,-10.75,0
42330,0.375,-19.1875,-11,0
42350,-1.3125,-16.75,-10,0
42370,-1.375,-18.4375,-8,0
42390,-6.9375,-17.375,-10.875,0
42410,-6.4375,-15.3125,-13.75,0
42430,-0.375,-14.75,-14.0625,0
42440,2.25,-13.1875,-17.75,0
42460,2,-11.1875,-19.5,0
42480,-1.8125,-9.8125,-17.9375,0
42500,-0.75,-7.9375,-20.6875,0
42520,-0.125,-6.6875,-20.5,0
42540,-1,-3.375,-18.625,0
42560,0.3125,0.3125,-18.9375,0
42580,0.875,2.75,-17.375,0
42600,2.25,4.5625,-18.125,0
42620,1.625,5.625,-22.8125,0
42640,0.0625,8.0625,-26.3125,0
42660,-0.3125,12.6875,-27.6875,0
42680,-1.3125,16.1875,-30.125,0
42700,-0.375,19.0625,-31.125,0
42720,0.875,21.3125,-32.1875,0
42740,2.125,21,-34,0
42760,-3.25,20.375,-33.3125,0
42780,-6.1875,20.1875,-37.375,0
42800,-6.875,19.5625,-37.4375,0
42820,-6.0625,18.3125,-32.125,0
42840,-6.8125,18.5625,-32.75,0
42860,-7.125,17.625,-31.1875,0
42880,-8.375,18.5,-29.3125,0
42900,-10.4375,20.4375,-28.8125,0
42920,-14.8125,20.125,-28.625,0
42940,-10.8125,19.25,-29.5625,0
42960,-9.5,19.5625,-31.75,0
42980,-8.8125,19.4375,-30.9375,0
43000,-5.5,23.3125,-27.875,0
43020,-4.375,25.875,-24.9375,0
43040,-5.875,27.0625,-24.625,0
43060,-8,27.125,-26.8125,0
43080,-5.1875,26.4375,-29.375,0
43100,-0.875,27.6875,-28.8125,0
43120,-0.5,29.25,-26.4375,0
43140,-0.875,29.25,-25.25,0
43160,-2.1875,27.6875,-24.9375,0
43180,-1.3125,25.6875,-26.125,0
43200,0.1875,26.5625,-26.875,0
43220,1.875,25.75,-25.9375,0
43240,-1.1875,24.5625,-23.625,0
43260,-2.9375,24.3125,-24.9375,0
43280,0.8125,23.5,-26.3125,0
43300,2.8125,21.125,-26.5625,0
43320,2.8125,18.625,-24.375,0
43340,4.375,18.8125,-21.625,0
43360,2.3125,18.5625,-19.25,0
43380,-1.4375,18.8125,-20.3125,0
43400,0.25,17.375,-17.625,0
43420,2.75,16.25,-13.4375,0
43440,0.5,17.9375,-12,0
43460,-0.75,19,-10.0625,0
43480,-1.5,18.5625,-7.125,0
43500,-2.125,18.1875,-5.6875,0
43520,-1.125,17.8125,-3.5,0
43540,-3.125,18,-2.25,0
43560,-0.4375,18.3125,-0.75,0
43580,4.875,16.0625,-4.5,0
43600,4.5,14.3125,-5.5,0
43620,4.375,15.75,-5.375,0
43640,2.1875,17.25,-5.5625,0
43660,1.0625,18.25,-8.6875,0
43680,-1.375,17.5625,-10.6875,0
43700,0.5,17.1875,-9.4375,0
43720,0.8125,16.1875,-7.375,0
43740,1.8125,15.625,-5.4375,0
43760,5.3125,15.75,-2.75,0
43780,5.1875,14.875,-3.5625,0
43800,4.125,11.125,-3.75,0
43820,1.875,9.5625,-0.3125,0
43840,0.5,10.125,1.5,0
43860,5.1875,6.875,2.875,0
43880,7.9375,6.25,3.5625,0
43900,6.375,9.0625,3,0
43920,1.125,12.25,4.875,0
43940,0.875,11.6875,7.8125,0
43960,-0.5625,9.9375,7.9375,0
43980,0.5,6.9375,7.375,0
44000,3.9375,4.0625,9.625,0
44020,2.875,5.0625,9,0
44040,7.0625,4.6875,8.6875,0
44060,4.625,3.4375,10.75,0
44080,-2.375,3.75,11.0625,0
44100,-1.0625,4,11,0
44120,1.375,3.0625,12.3125,0
44140,4.25,3.8125,12.625,0
44160,4.1875,4.1875,13.8125,0
44180,1.5625,3.9375,16.1875,0
44200,-0.8125,4,16.8125,0
44220,-2.5,3.875,15.0625,0
44240,-2.875,2.8125,14.75,0
44260,-2.375,3.25,15.125,0
44280,-1.1875,2.375,16.1875,0
44300,0.4375,1.375,17.125,0
44320,0.3125,0.625,16.4375,0
44340,-0.875,-0.8125,14.75,0
44360,1.9375,-0.875,14.5,0
44380,5.625,-0.5,15.25,0
44390,1.5625,0.1875,16.125,0
44410,-0.5,-0.125,15.25,0
44430,2.375,-1.8125,15.5625,0
44450,3.5,-3.4375,18.3125,0
44470,0.875,-3.3125,17.5,0
44490,-1.9375,-3.4375,17.25,0
44510,-5.625,-2.4375,18.0625,0
44530,-4.375,-2.9375,16.5,0
44550,-3.5,-4.625,15.125,0
44570,-2.375,-4.6875,15.75,0
44590,-1.625,-5.0625,15.125,0
44610,-2.0625,-4.8125,12.4375,0
44630,-2.4375,-4.75,13,0
44650,-1.0625,-4.5625,13.5625,0
44670,-1.3125,-4.8125,12.3125,0
44690,-1.8125,-4.875,11.75,0
44710,-0.75,-5.75,14.0625,0
44730,-1.375,-5.4375,14.125,0
44750,-0.3125,-4.0625,13.875,0
44770,-0.4375,-5.4375,14.1875,0
44790,-3.3125,-7,14.75,0
44810,-3.125,-7.3125,14.625,0
44830,0.125,-7.5,15.1875,0
44850,0.3125,-7.875,15.6875,0
44870,-3.75,-8.8125,15.125,0
44890,-3.375,-9.0625,14.125,0
44910,0.25,-10.75,14.8125,0
44930,-0.4375,-11,13.5625,0
44960,1.75,-13.75,15.3125,0
44980,1.75,-13.8125,16.0625,0
45000,-0.1875,-14.25,16.5625,0
45020,-1.625,-15.1875,16.875,0
45040,-1.875,-16,18.3125,0
45060,-3.1875,-17.25,17.75,0
45080,-3.625,-18.8125,16.375,0
45100,-4.6875,-19.5,17,0
45120,-4.3125,-19.375,17,0
45140,-3.1875,-20.5625,18.0625,0
45160,-3.75,-21.5625,16.5625,0
45180,-4.5,-21.0625,16,0
45200,-3.4375,-21.6875,18.3125,0
45220,-4.75,-22.4375,17.75,0
45240,-5.9375,-21.8125,15.5625,0
45260,-6.75,-21.9375,16.5,0
45280,-5.3125,-22,17.6875,0
45300,-5.5625,-22,18.5,0
45320,-6.875,-22,18.625,0
45340,-6.625,-23.1875,18.9375,0
45360,-7.625,-23.125,16.625,0
45380,-7.875,-23.625,15.625,0
45400,-6.75,-22.9375,15.875,0
45420,-5.625,-22.6875,13.9375,0
45440,-7.6875,-23.25,11.5625,0
45460,-6.9375,-22.3125,10.4375,0
45480,-4.875,-24.1875,11.0625,0
45500,-3.375,-26.25,9.25,0
45520,-3.8125,-25.625,7.3125,0
45540,-3.1875,-23.8125,5.3125,0
45560,-4.375,-23.1875,4.5625,0
45580,-7.0625,-25.4375,6.125,0
45600,-7.1875,-26.0625,3.8125,0
45620,-3.875,-25.9375,0.1875,0
45640,-2.8125,-27.625,1.625,0
45660,-2.0625,-27.1875,-0.375,0
45680,-0.8125,-26.625,-4.125,0
45700,-2.0625,-28.0625,-4.9375,0
45720,-2.8125,-28.6875,-4.375,0
45740,-0.25,-29.125,-5.1875,0
45760,-0.125,-31.0625,-7.1875,0
45780,-2.25,-32,-5.75,0
45800,-1.875,-31.5,-5.6875,0
45820,-3.875,-29.8125,-6.3125,0
45840,-5.3125,-27.8125,-5.375,0
45860,-7.0625,-28.8125,-5.125,0
45880,-7.1875,-29.5,-4.75,0
45900,-4.6875,-27.6875,-7.4375,0
45920,-3.8125,-28.25,-9.0625,0
45940,-6.625,-27.4375,-6.1875,0
45960,-8.125,-25.875,-6.4375,0
45980,-7.3125,-25.5,-8.4375,0
46000,-7.125,-24.0625,-9.375,0
46020,-8.6875,-22.3125,-10.4375,0
46040,-6.8125,-22.9375,-10,0
46060,-5.4375,-23.8125,-13.5625,0
46080,-3.875,-23.6875,-17.375,0
46100,-3.125,-20.875,-19.75,0
46120,-1.875,-18.125,-20.4375,0
46140,-6.875,-17.25,-22.625,0
46160,-7.8125,-15.8125,-23.75,0
46180,-8.5,-13.375,-23.6875,0
46200,-8.3125,-10.8125,-23.875,0
46220,-12.4375,-8.5625,-25.1875,0
46240,-12.5,-6.625,-24,0
46260,-8.1875,-6.125,-23.875,0
46280,-10.6875,-6.5,-25.875,0
46300,-15,-4.5625,-26.0625,0
46320,-16.1875,-2,-26.75,0
46340,-14.5,-1.8125,-26.6875,0
46360,-16.25,-0.875,-26.8125,0
46380,-14.875,0.8125,-27.75,0
46400,-14.625,3.125,-27.0625,0
46420,-16.875,4.9375,-26.125,0
46440,-20.375,7.9375,-25.5,0
46460,-17.375,10.125,-23.875,0
46480,-15.0625,11.125,-23.8125,0
46500,-14.4375,10.625,-25.9375,0
46520,-17.1875,12.25,-26.3125,0
46540,-17.875,16.875,-28,0
46560,-14.375,17.375,-30.3125,0
46580,-13,17.5625,-32,0
46600,-12.5,20.6875,-31.0625,0
46620,-12.6875,23.875,-31.8125,0
46640,-13.5,25.125,-34.75,0
46660,-13,27.1875,-35.8125,0
46680,-11.9375,30.5,-34.0625,0
46700,-10.8125,32.125,-30.75,0
46720,-8,29.9375,-30.75,0
46740,-7.1875,27.9375,-31.25,0
46760,-7.875,26.6875,-30.3125,0
46780,-8.4375,26.4375,-31.125,0
46800,-6.8125,25.3125,-30.9375,0
46820,-5.75,24.5,-28.1875,0
46840,-7.5625,24.75,-25.1875,0
46860,-8.3125,23.8125,-25.3125,0
46880,-7.25,24,-25.0625,0
46900,-7.1875,23.6875,-22.6875,0
46920,-7.4375,23.6875,-20.75,0
46940,-6.75,24.6875,-18,0
46960,-4.8125,24.4375,-18.5625,0
46980,-3.6875,21.8125,-16.9375,0
47000,-4.75,21.375,-17.5,0
47020,-4.125,22.3125,-17.9375,0
47040,-0.9375,20.5625,-17.125,0
47060,-0.375,18.875,-15.25,0
47080,1.0625,17.3125,-13.9375,0
47100,4.25,15.4375,-10.9375,0
47120,2.375,14.6875,-10.6875,0
47140,2.125,15.125,-10.1875,0
47160,2.5625,14.6875,-8.125,0
47180,1.25,13.9375,-7.6875,0
47200,0.8125,14.375,-4,0
47220,1.5625,13.5625,-0.5,0
47240,1.875,13.3125,-3.0625,0
47260,1.625,12.375,-2.5,0
47280,3.9375,11.4375,0.6875,0
47300,3.1875,11.75,0.875,0
47320,0.9375,12.25,-1.4375,0
47340,0.8125,12.625,1.625,0
47360,0.75,14.3125,3.3125,0
47380,2.25,14.375,4,0
47400,3.5,14.9375,8.875,0
47420,2.5,14.6875,10,0
47440,0.25,12.8125,6.25,0
47460,0.1875,12.6875,6,0
47480,-0.1875,13.4375,6.875,0
47500,-0.6875,11.375,7.8125,0
47520,-1.5,8.9375,8.25,0
47540,-2.75,9.3125,7.8125,0
47560,-2.125,10.5625,4.75,0
47580,-1.9375,11.5625,4.0625,0
47600,-2.9375,12.25,7.9375,0
47620,-4.875,11.5,9.3125,0
47640,-6.0625,8.75,7.375,0
47660,-3.3125,8.25,5.4375,0
47680,-0.0625,8.6875,5.75,0
47700,-0.8125,8.4375,7.5,0
47720,-2.5625,9.1875,8.75,0
47740,-4.25,8.25,10.75,0
47760,-3.375,6.625,13.0625,0
47780,-3.1875,3.9375,10.125,0
47790,-2.4375,3,9.8125,0
47810,-1.8125,2.9375,11.625,0
47830,-3,1.8125,11.125,0
47850,-3.3125,0.25,11.4375,0
47870,-3.6875,0.75,12.0625,0
47890,-1.375,2.125,11.5625,0
47910,-0.3125,3.0625,12.4375,0
47930,-0.625,3.125,15.25,0
47950,-2.8125,3.125,16,0
47970,-2.1875,3,14.4375,0
47990,0.4375,2.625,13.4375,0
48010,2.0625,2.375,15.0625,0
48030,0.25,1.875,16.75,0
48050,-0.375,1.9375,16.8125,0
48070,2.9375,2.0625,16.875,0
48090,5.625,1.25,15.0625,0
48110,1.75,-0.75,15.25,0
48130,0.25,-1.5,18.3125,0
48150,2.625,-2.375,17.8125,0
48170,5.0625,-3.3125,17.375,0
48190,5,-3.6875,19.0625,0
48210,0.5,-3.9375,19.3125,0
48230,-1.4375,-4.625,17.4375,0
48250,-1.4375,-5.25,18.4375,0
48270,-1.0625,-6.5,18.1875,0
48290,0.5625,-8.375,17.8125,0
48310,1.8125,-9.6875,17.0625,0
48330,2.1875,-9.5625,15.3125,0
48350,0.3125,-10.125,13.5625,0
48370,1.25,-12,13.1875,0
48390,5.25,-13.25,14.1875,0
48410,5.0625,-14.5,15.0625,0
48430,2.1875,-14,14,0
48450,1.375,-13.9375,14.625,0
48470,1.9375,-13.75,16.5,0
48490,3.375,-13.3125,16.125,0
48510,4.375,-14.625,18.4375,0
48530,1.4375,-15.3125,18.8125,0
48550,-0.3125,-14.6875,17.1875,0
48570,2.6875,-14.3125,17.8125,0
48590,3.875,-16.25,17.4375,0
48610,3,-16.75,15.75,0
48630,4.0625,-16.75,15.25,0
48650,2.1875,-18.625,15.5,0
48670,2,-19.125,14.125,0
48690,3.3125,-19.4375,12.75,0
48710,2.5,-19.9375,12.6875,0
48730,0.5,-21.8125,12,0
48750,1.6875,-22.75,12.3125,0
48770,3.5,-23.125,12.5625,0
48790,0.625,-23.6875,11.4375,0
48810,-2.25,-23.9375,11.1875,0
48830,-0.875,-24.75,12.625,0
48850,-1.5625,-27.625,14.8125,0
48870,-4.125,-27.6875,15.0625,0
48890,-2,-26.125,14.5,0
48910,1.125,-28.6875,14.8125,0
48930,5.625,-28.125,15.6875,0
48950,6.125,-25,15.5,0
48970,-2,-24.8125,15.125,0
48990,-8.875,-24.1875,15.125,0
49010,-5.0625,-24.375,15.5625,0
49030,2.25,-27.25,15,0
49050,0,-26.0625,12.0625,0
49070,-4.6875,-22.9375,12.125,0
49090,-8.4375,-22.6875,12.6875,0
49110,-1.875,-24.125,12.5625,0
49130,4.8125,-23.625,9.875,0
49150,2.625,-22.8125,7.125,0
49170,-2.75,-25.1875,6.3125,0
49190,0.0625,-27.3125,6.6875,0
49210,0.5,-29.8125,7,0
49230,-5.375,-32,6.625,0
49250,-14.125,-30.6875,2.5625,0
49270,-13.125,-31.6875,-1.125,0
49290,-5.75,-34.3125,0.4375,0
49310,1.375,-33.625,-0.1875,0
49330,-3.375,-30.6875,-2.8125,0
49350,-9.375,-31,-5.1875,0
49370,-17.3125,-29.3125,-9,0
49390,-9.375,-29.75,-12.875,0
49410,-4.3125,-31.75,-13.6875,0
49430,-6.3125,-29.875,-14.25,0
49450,-11.5625,-26.5,-13.9375,0
49470,-14.25,-26.5625,-13.6875,0
49490,-16.625,-27,-14.625,0
49510,-12.6875,-25.375,-15.875,0
49530,-12.75,-24.625,-14.9375,0
49550,-16.6875,-22.75,-14,0
49570,-14.5625,-21.4375,-15.6875,0
49590,-12.3125,-21,-15.375,0
49610,-12.3125,-17.4375,-16.25,0
49630,-15.4375,-13.875,-17.1875,0
49650,-14.3125,-11.3125,-15.8125,0
49670,-13.5625,-11.4375,-19.0625,0
49690,-12.0625,-11.8125,-18.625,0
49710,-10.0625,-9.625,-19,0
49730,-13.125,-7.5,-20.125,0
49740,-13.5,-5.75,-20.375,0
49760,-13.5625,-4.6875,-20.6875,0
49780,-16,-3.25,-20.1875,0
49800,-16.5625,-0.625,-22.75,0
49820,-15.25,0.375,-23.25,0
49840,-13,1.6875,-20.9375,0
49860,-15.375,2.375,-20.5,0
49880,-16.5625,3.0625,-22.375,0
49900,-15.0625,4.5,-21.8125,0
49920,-17.5,5.5625,-23,0
49940,-19.4375,6.6875,-23.9375,0
49960,-19.5,7.375,-21.4375,0
49980,-18.8125,7.1875,-22.625,0
50000,-17.375,7.75,-25,0
50020,-17.375,10.8125,-25.625,0
50040,-18.6875,13.625,-25.4375,0
50060,-20.875,13.875,-22.9375,0
50080,-20.5,15.25,-22.375,0
50100,-18.625,16.625,-24.5625,0
50120,-17.25,17.0625,-24.9375,0
50140,-18.5,18.5,-23.5625,0
50160,-18.9375,20.625,-22.5625,0
50180,-18.25,22.125,-22.125,0
50200,-18.375,24.125,-22.0625,0
50220,-16.0625,25.5,-22.875,0
50240,-11.875,26.5625,-21.25,0
50250,-10.25,27.4375,-23.125,0
50270,-13.4375,26.4375,-24.6875,0
50290,-14.9375,26.4375,-22.9375,0
50310,-15.6875,27.125,-23.4375,0
50330,-15.0625,26.1875,-25.0625,0
50350,-12.8125,26.125,-24.0625,0
50370,-16.5625,27.25,-24.3125,0
50390,-15.5625,26.4375,-24.1875,0
50410,-14.3125,26.75,-21.5625,0
50430,-14.9375,29.125,-21.4375,0
50450,-15.625,31,-21,0
50470,-14.375,32.6875,-17.0625,0
50490,-12.1875,35.4375,-10.4375,0
50510,-9.6875,37.5625,-7.9375,0
50530,-5.375,37.5,-5.8125,0
50550,-2,38.125,-3.0625,0
50570,-2.25,38.875,-0.6875,0
50590,-1.75,38.75,1.9375,0
50610,-0.625,38.25,2.4375,0
50630,-2.125,35.625,2.625,0
50650,-5.125,33.9375,4.375,0
50670,-3.3125,34.25,5.25,0
50690,-4.375,32.6875,4.6875,0
50710,-4.375,29.5625,4.75,0
50730,-4.125,29.4375,6.75,0
50750,-4.3125,31.125,5.5,0
50770,-6.4375,30.6875,5.4375,0
50790,-9.5625,31.5,6.3125,0
50810,-8.375,28.875,6.125,0
50830,-8.0625,25.9375,8,0
50850,-12,25.3125,6.875,0
50870,-6.8125,25.0625,5.5625,0
50890,-0.75,23.8125,8.3125,0
50910,-1.4375,24.75,8.625,0
50930,-3.6875,23,6.5625,0
50950,-7.5625,21.6875,8.125,0
50970,-5.8125,22.0625,7.5625,0
50990,-3.125,19.625,7.5625,0
51010,-3.3125,16.9375,8.5625,0
51030,-3.625,16.75,8.5,0
51050,-1.5,18.1875,6.9375,0
51070,-1.5625,17.5625,6.9375,0
51090,-5.25,17.1875,8.625,0
51110,-2.1875,14.9375,9.4375,0
51130,0,10.25,6.5625,0
51150,-1.75,8.75,4.75,0
51170,-2.125,9.25,5.125,0
51190,-3.5,8,3.4375,0
51210,-5.375,5.75,4.875,0
51230,-6,6,9.0625,0
51250,-3.75,7.9375,8.5625,0
51270,-2.8125,9.25,8.6875,0
51290,-6.625,9.625,12.75,0
51310,-11.5,11.6875,13.3125,0
51330,-5.3125,11.375,12.5,0
51350,-0.1875,7.375,11,0
51370,5.75,6.375,8.6875,0
51390,6.625,6.875,9.0625,0
51410,1.75,6.5625,9.125,0
51430,2.4375,6.6875,7.5,0
51450,4.4375,4.625,7.25,0
51470,4,2.75,9.1875,0
51490,2.5625,1.6875,9.3125,0
51510,4.6875,0.8125,8.6875,0
51530,5.375,-0.125,10.9375,0
51550,-0.4375,-0.625,14.375,0
51570,-3.375,0.3125,13.625,0
51590,3.25,-0.875,11.9375,0
51610,2.125,-4.5625,13.5625,0
51630,-3.875,-5.1875,15.125,0
51650,-8.8125,-4.3125,15.1875,0
51670,-5.875,-5.3125,16.25,0
51690,-6.75,-5.9375,17.1875,0
51710,-7,-6,17.25,0
51730,-4.4375,-8.0625,16.5625,0
51750,-5.5,-9.6875,15.3125,0
51770,-6.75,-9,13.875,0
51790,-4.1875,-7.875,14.375,0
51810,-4.0625,-9.5,16.125,0
51830,-5.6875,-10.1875,16.1875,0
51850,-3.8125,-9.625,18.125,0
51870,-6.125,-10.75,16.6875,0
51890,-7.3125,-12.1875,16.1875,0
51910,-6.375,-12.5625,17.625,0
51930,-3.9375,-13.0625,17,0
51950,-6.1875,-15,16.25,0
51970,-5.9375,-14.3125,15.375,0
51990,-1.9375,-14.8125,13.9375,0
52010,-4.6875,-17.3125,14.5625,0
52030,-5.5,-15.6875,13.125,0
52050,-0.625,-14.4375,9.625,0
52070,0.6875,-15.25,8.5,0
52090,0.8125,-15.125,8.6875,0
52110,1.4375,-13.5625,6.8125,0
52130,0.8125,-14,6.875,0
52150,-2.1875,-15,7.5625,0
52170,-2,-13.1875,6.375,0
52190,-1.25,-13.75,5.5625,0
52210,-4.8125,-15.3125,8.3125,0
52230,-5.3125,-13.8125,8.5,0
52250,-3.6875,-13.625,7.375,0
52270,-2.375,-14.625,8.0625,0
52290,-6.125,-15.0625,9.5625,0
52310,-7,-15.5625,10.0625,0
52330,-3.6875,-15.875,7.5,0
52350,-2.625,-18.125,7.5625,0
52370,-5.0625,-19,7.75,0
52390,-5.5,-18.625,4.6875,0
52410,-1.0625,-19.25,-0.5,0
52430,0.4375,-20.5,-1.75,0
52450,-1,-21.125,0.375,0
52470,-3.9375,-20.875,0.8125,0
52490,-1.4375,-20.25,0.8125,0
52510,0.3125,-20.125,-1,0
52530,-0.75,-20.6875,-3.75,0
52550,-0.6875,-21.3125,-3.625,0
52570,-0.5,-22,-1.25,0
52590,-2.375,-21.5625,0.25,0
52610,-4.25,-20.875,0.75,0
52630,-3.3125,-21.625,0.875,0
52650,-4.1875,-22.6875,1.5,0
52670,-6.6875,-22.125,0.875,0
52690,-5.8125,-21.8125,0.25,0
52710,-6.5,-22.4375,1.1875,0
52730,-6.8125,-22.125,1.9375,0
52750,-8,-22.5625,1.75,0
52770,-8.9375,-21.8125,1.375,0
52790,-4.4375,-20.5625,-0.75,0
52810,-3.8125,-21.75,-0.9375,0
52830,-5.6875,-21.5625,-0.5625,0
52850,-5.75,-18.875,-0.75,0
52870,-5.6875,-17.9375,-2.375,0
52890,-7.25,-18.6875,-2.9375,0
52910,-8.375,-17.875,-1.9375,0
52930,-5.5625,-16.375,-2.5,0
52950,-2.5,-16.5,-3.25,0
52970,-5.9375,-15.5625,-3.875,0
52990,-6.1875,-13.75,-4.125,0
53010,-1.5625,-13.75,-5.6875,0
53030,-2.5,-14.6875,-7.125,0
53050,-4.5,-14.3125,-8.875,0
53070,-5.5625,-13.9375,-7.9375,0
53090,-7.4375,-14.8125,-7.125,0
53110,-9.0625,-16.0625,-6.75,0
53130,-8.875,-17.375,-7.5,0
53150,-6.0625,-19.625,-8.375,0
53160,-8.5,-21.6875,-13,0
53180,-13.5625,-22.625,-13.5625,0
53200,-14,-21.8125,-13.625,0
53220,-14.875,-21.75,-13.5,0
53240,-15,-22.9375,-13,0
53260,-15.875,-24.3125,-13.875,0
53280,-12.8125,-24.5,-17.125,0
53300,-9.75,-25.5,-18.5625,0
53320,-10.25,-24.5625,-17.875,0
53340,-10.75,-23.75,-17.8125,0
53360,-11.6875,-23.9375,-17.6875,0
53380,-15.4375,-22.9375,-19.4375,0
53400,-15,-21.25,-21.9375,0
53420,-10.9375,-19.875,-22.0625,0
53440,-7.125,-19.3125,-21.625,0
53460,-7.5625,-17.5625,-21,0
53480,-9.375,-15.0625,-22.25,0
53500,-8.75,-12.4375,-24.25,0
53520,-4.375,-11.9375,-25.6875,0
53540,-7.875,-11.5625,-26.1875,0
53560,-7.5,-9.625,-24.3125,0
53580,-6.6875,-5.4375,-22.9375,0
53600,-6.4375,-6.4375,-22.625,0
53620,-6.9375,-4.5625,-19.1875,2001
53640,-6.3125,-0.625,-18.625,0
53660,-4.4375,0.5,-20.9375,0
53680,-4.3125,0.3125,-18.8125,0
53700,-2.5,3.375,-12.0625,0
53720,-3.5,7.1875,-8,0
53740,-3.1875,7.625,-5.1875,0
53760,-3.5625,8.75,-3,0
53780,-0.75,9.6875,-0.375,0
53800,2.125,10.5625,-0.125,0
53820,3,11.1875,0.625,0
53840,3.875,9.1875,3.875,0
53860,2.6875,9.375,1.9375,0
53880,-0.9375,11.9375,-1.875,0
53900,5.4375,11.5,-1.8125,0
53920,8.75,12.375,-8.5,0
53940,8.4375,12.4375,-7.1875,0
53960,8.125,12.9375,-1,0
53980,8.625,14.3125,0.625,0
54000,10.75,13.5625,-0.75,0
54020,9.875,11.9375,1.5,0
54040,12.4375,13.25,7,0
54060,16.5,14.5,9.875,0
54080,15.8125,13.375,14.5625,0
54100,14.5,15,15.6875,0
54120,14.125,18.125,20.5,0
54140,18.6875,24.6875,31.375,0
54160,30.1875,27.1875,35.3125,0
54180,36.6875,29.0625,27.9375,0
54200,38.6875,34.3125,26.375,0
54220,41.9375,45.0625,39.3125,0
54240,44.9375,49.1875,52.25,0
54260,43.875,50,51.0625,0
54280,43.6875,54.8125,48.5,0
54300,49.9375,62.3125,52.9375,0
54320,52.5625,63.1875,58.25,0
54340,44.125,65.4375,57.4375,0
54360,43.4375,73.6875,64.4375,0
54380,53.125,72.9375,76.0625,0
54400,46.9375,62.375,80.5625,0
54420,33.8125,57.5625,72.125,0
54440,32.875,58.1875,68.1875,0
54460,31.4375,51.8125,67.5,0
54480,34.1875,40.3125,66.9375,0
54500,34.625,34.3125,61.6875,0
54520,35.1875,32.0625,55.8125,0
54540,32.125,31.125,52.375,0
54560,26.875,29.625,50,0
54580,22.25,30.4375,50.1875,0
54600,17.25,27.9375,50.6875,0
54620,16.8125,25.9375,45.9375,0
54640,12.0625,22.625,44.1875,0
54660,7.6875,23.25,47,0
54680,4.1875,22.25,44.0625,0
54700,3.75,19.625,37.8125,0
54720,3.6875,16.1875,31.3125,0
54740,3.75,11.5,28.875,0
54760,2.125,7.0625,25.25,0
54780,0.5,4.125,22.25,0
54800,3.625,3.6875,15.9375,0
54820,6.625,-0.3125,11.0625,0
54840,6.4375,-3.5625,8.625,0
54860,2.75,-6.9375,8.125,0
54880,-3.625,-9.6875,6.4375,0
54900,-0.125,-12.3125,2.8125,0
54920,2.25,-15.125,2.5,0
54940,4.8125,-16,1.9375,0
54960,-0.3125,-14.8125,1,0
54980,-0.4375,-14.3125,2.6875,0
55000,2.5625,-14.1875,1.75,0
55020,4.6875,-15.375,0.3125,0
55040,3.625,-13.75,0.625,0
55060,0.75,-11.1875,2.0625,0
55080,-1.3125,-9.6875,2.375,0
55100,-3.875,-10.8125,2.4375,0
55120,-0.6875,-11.375,2.625,0
55140,-2.625,-11.6875,5,2000
55150,-5.25,-12.375,5.25,0
55170,-6.8125,-12,5.0625,0
55190,-4,-10.375,3.6875,0
55210,-3.5625,-9.8125,1.625,0
55230,-3.0625,-8.8125,1.8125,0
55250,-4,-9.5,4.3125,0
55270,-5.3125,-12.0625,6.5,0
55290,-5.875,-12.375,4.75,0
55310,-5.625,-12.875,2.9375,0
55330,-5.3125,-14.4375,4.0625,0
55350,-4,-15.25,4.6875,0
55370,0.0625,-15.0625,3.9375,0
55390,2,-16.6875,3.5,0
55410,3.375,-18.1875,1.5625,0
55430,1.875,-20.1875,-1.9375,0
55450,1.5,-21.375,-1.125,0
55470,2.4375,-20.3125,0.3125,0
55490,1.875,-19.25,0.6875,0
55510,2.5,-19.75,0.5625,0
55530,3.375,-18.8125,-0.75,0
55550,4.9375,-16.5625,-2.8125,0
55570,3,-14.8125,-2.625,0
55590,4.1875,-14.75,-1.3125,0
55610,9.4375,-15.875,-4.375,0
55630,10.0625,-15,-7.25,0
55650,9.625,-13.0625,-8.9375,0
55670,9.4375,-11.6875,-7.25,0
55690,9.8125,-11.8125,-8.3125,0
55710,11.125,-12.125,-8.4375,0
55730,11.25,-12.875,-11.0625,0
55750,10.625,-12.75,-11.3125,0
55770,7.0625,-11.1875,-11.4375,0
55790,6.5625,-11.875,-12.0625,0
55810,7.375,-11.625,-12.8125,0
55830,7.125,-10.3125,-11.5,0
55850,5.4375,-9.125,-12,0
55870,5.4375,-8.75,-13.5,0
55890,5.0625,-8.375,-17,0
55910,2.375,-7.0625,-16.125,0
55930,0.25,-7.1875,-14.9375,0
55950,-0.75,-8.6875,-13.4375,0
55970,-3.0625,-9.8125,-11.625,0
55990,-5.4375,-11.4375,-15.5625,0
56010,-7,-12.25,-18.25,0
56030,-8.875,-10.8125,-19.375,0
56050,-10.5,-9.875,-17.8125,0
56070,-9.125,-9.125,-16.4375,0
56090,-8.5,-6.9375,-18,0
56110,-5.6875,-4.6875,-20.25,0
56130,-4.3125,-2.8125,-20.125,0
56150,-4.6875,-0.8125,-19.9375,0
56170,-5.5,0.5625,-22.3125,0
56190,-6.375,2.125,-21.625,0
56210,-6.5,5.375,-22.5625,0
56230,-5,7.3125,-24.8125,0
56250,-2.8125,9.5,-25.375,0
56270,-2.125,11.5,-24.875,0
56290,-4.4375,12.5625,-24.75,0
56310,-5.1875,14.875,-24.5,0
56330,-1.1875,17.125,-25.625,0
56350,-2.625,17.125,-26.8125,0
56370,-5.125,17.4375,-25.5,0
56390,-7.625,18.875,-22.375,0
56410,-6.4375,19.3125,-24.75,0
56430,-6.1875,18.6875,-23.1875,0
56450,-6.625,20.75,-22.75,0
56470,-6.25,21.25,-24.125,0
56490,-6.875,21.0625,-25.0625,0
56510,-6.5,22.4375,-23.9375,0
56530,-4.9375,23.125,-23.125,0
56550,-4.6875,21.75,-24.6875,0
56570,-6.8125,22.125,-26.5625,0
56590,-5.75,23.375,-26.3125,0
56610,-4.875,23.6875,-25.75,0
56630,-4.6875,22.875,-25.75,0
56650,-4.5,22.1875,-25.0625,0
56670,-2.3125,22.625,-27.375,0
56690,-1.75,20.375,-29.25,0
56710,-1,20.875,-28.8125,0
56730,-1.6875,21.25,-27.5,0
56750,-2.125,20,-27.5625,0
56770,-0.9375,20.1875,-28.3125,0
56790,-0.75,20.75,-29.8125,0
56810,-1.625,17.9375,-27.9375,0
56830,-1.875,17.125,-27.6875,0
56850,-1.125,16.6875,-27.875,0
56870,0.25,15.6875,-28,0
56890,-0.375,16.75,-26.8125,0
56910,-1.1875,17.8125,-22.625,0
56930,-0.625,16.375,-18.5625,0
56950,-0.0625,14.1875,-17.125,0
56970,-1.1875,14.625,-19.9375,0
56990,2.125,14.9375,-21.3125,0
57010,3.0625,13.25,-20.0625,0
57030,3.5625,12.375,-18.5625,0
57050,3.125,12.4375,-15.9375,0
57070,2.625,12.25,-16.1875,0
57090,3.4375,11.75,-17.625,0
57110,5.4375,11.8125,-15.9375,0
57130,5.6875,10.6875,-12.3125,0
57150,4.3125,11.8125,-9.8125,0
57170,2.5625,13.25,-12.0625,0
57190,2.875,12.9375,-10.6875,0
57210,3.125,13,-6.375,0
57230,2.5625,12.375,-5,0
57250,3,11.4375,-1.6875,0
57270,3.4375,11.25,1.625,0
57290,1.8125,12.875,0.5625,0
57310,2.75,13.5,-0.9375,0
57330,2.5,12.8125,3.375,0
57350,-1.9375,12.625,3.9375,0
57370,-2.5625,12.25,2.75,0
57390,1.5625,9.875,3.625,0
57410,5.25,7.5,5.5,0
57430,2.6875,6.8125,4.5,0
57450,-3.625,6.125,6.875,0
57470,-10.25,6.125,12.4375,0
57490,-8.625,4.5625,11.9375,0
57510,-4.5625,4.0625,8.625,0
57530,-0.8125,4.875,8.1875,0
57550,-5.1875,5.75,10,0
57570,-9,6.875,9.1875,0
57590,-8.375,7.75,4.875,0
57610,-4.125,5,2.5625,0
57630,0,2.8125,2,0
57650,2.1875,4.5625,1.4375,0
57670,0.5,4.8125,1.875,0
57690,-0.875,4.5625,3.5,0
57710,-3,4.75,5.25,0
57730,-3.4375,5.75,5.375,0
57750,-0.6875,5,6.25,0
57770,1.4375,4.9375,9.375,0
57790,-1.9375,8.125,9.6875,0
57810,-3.375,10.0625,8.9375,0
57830,-2.5625,10.125,12.8125,0
57850,-1.6875,10.875,11.9375,0
57870,-0.4375,9.5625,10.8125,0
57890,-0.75,8.8125,11.125,0
57910,-0.5625,9.0625,11.375,0
57930,0.0625,10.25,10.5625,0
57950,-1.0625,9.875,11.875,0
57970,-1.5,10.75,14.625,0
57990,-4.125,11.25,12.6875,0
58010,-2.375,9.75,11.6875,0
58030,-2.25,8.3125,13.4375,0
58050,-1.125,8.0625,15.0625,0
58070,-2.625,8.25,16.0625,0
58090,-4.875,7.75,15.4375,0
58110,-3.75,7.125,13.8125,0
58130,-1.1875,4.625,16.125,0
58150,-3.75,3.5,16.8125,0
58170,-9.375,4.3125,15.4375,0
58190,-7.5625,4.125,16.125,0
58210,-3.8125,2,18.25,0
58230,-8.3125,0.3125,18.5625,0
58250,-10.625,1.1875,18.5625,0
58270,-8.5625,0.4375,18.875,0
58290,-7,-1.5,17.75,0
58310,-8.6875,-1.6875,15.5625,0
58330,-5.125,-2,14.625,0
58350,-5.25,-3.1875,14.125,0
58370,-4.875,-3.375,12.125,0
58390,-3.5625,-4.4375,11.5625,0
58410,-2.9375,-5.9375,10.6875,0
58430,-3.25,-7.8125,11.6875,0
58450,-4.125,-8.0625,12.5625,0
58470,-4.5,-8.4375,11.375,0
58490,-5,-8.5625,11.3125,0
58510,-4.8125,-8.25,14,0
58530,-2.9375,-9.0625,15.0625,0
58540,-4.5625,-9.6875,13.5,0
58560,-1.8125,-9.625,13.8125,0
58580,1.0625,-11.125,16.0625,0
58600,-2.5,-10.5,16.3125,0
58620,-3.5,-9,17.5625,0
58640,-2.6875,-10.4375,18.1875,0
58660,-4.5625,-13.0625,18.5625,0
58680,-4.875,-13.0625,19,0
58700,-4.0625,-13.125,18.5,0
58720,-4.625,-14.375,17.5625,0
58740,-6.25,-15.1875,16.0625,0
58760,-4.4375,-14.8125,15.75,0
58780,-0.875,-16.75,15.125,0
58800,-2.75,-16.5625,13.125,0
58820,-2.625,-16.3125,15.125,0
58840,-4.0625,-18.125,17.1875,0
58860,-3.875,-18.25,14.4375,0
58880,-4.375,-18,15.25,0
58900,-3.4375,-18.75,17.25,0
58920,-6.4375,-19.0625,17.1875,0
58940,-6.0625,-19.3125,16.4375,0
58960,-4.625,-20.4375,15.5625,0
58980,-4.75,-22.1875,15.6875,0
59000,-5.5,-22.4375,14.9375,0
59020,-6.0625,-23.0625,14.3125,0
59040,-5,-24.5,13.4375,0
59060,-4.9375,-25.6875,12.9375,0
59080,-5.25,-25.3125,10.625,0
59100,-5.0625,-27.4375,8.9375,0
59120,-5,-28.875,10.625,0
59140,-1.125,-31.4375,9,0
59160,2.0625,-36.25,4.75,0
59180,0.125,-37.3125,2.6875,0
59200,-2.3125,-36.375,1.5,0
59220,-5.0625,-38,1.625,0
59240,-2.875,-38.5625,0.6875,0
59260,-1.75,-38.125,1.625,0
59280,-4.1875,-38.0625,1.9375,0
59300,-3.375,-37.625,-0.875,0
59320,-2.1875,-37.75,-1.1875,0
59340,-1.6875,-37.1875,0.0625,0
59360,-3.6875,-34.375,0.125,0
59380,-5.5625,-32.25,-2.125,0
59400,-3.75,-32,-0.8125,0
59420,-2.875,-30.1875,-1.8125,0
59440,-2.4375,-29.9375,-5.4375,0
59460,-0.375,-28.875,-5.1875,0
59480,1.6875,-27.25,-3.75,0
59500,-2.625,-26.125,-6.625,0
59520,-6.8125,-25.6875,-10.4375,0
59540,-4.5625,-25.5,-11.0625,0
59560,-2.25,-24.875,-11.125,0
59580,-3.25,-24.3125,-9.5625,0
59600,-4.9375,-23,-10.125,0
59620,-5.625,-20.4375,-11.5,0
59640,-4.1875,-19.5625,-10.0625,0
59660,-0.4375,-18.6875,-13,0
59680,-1,-16.0625,-12.1875,0
59700,-1.375,-12.9375,-14.1875,0
59720,-2.5625,-11.6875,-15.5625,0
59740,-0.125,-12,-18.9375,0
59760,-1,-11.875,-20,0
59780,-4.9375,-11.1875,-20.0625,0
59800,-7.5625,-9.4375,-21.5625,0
59820,-6.3125,-9.5625,-23.4375,0
59840,-7.3125,-9.8125,-22.8125,0
59860,-9.375,-8.5625,-19.875,0
59880,-7.125,-8.5625,-19.3125,0
59900,-7.4375,-9,-22.125,0
59920,-8.9375,-7.3125,-22.125,0
59940,-10.3125,-6.1875,-21.3125,0
59960,-8.25,-7.5,-23.875,0
59980,-6.9375,-8.75,-23.8125,0
60000,-7.125,-6.875,-24.25,0
60020,-10.1875,-6.375,-26.5625,0
60040,-11.875,-7.75,-27.5,0
60060,-11.5625,-7.0625,-26.5625,0
60080,-11.0625,-5.6875,-26.75,0
60100,-11.625,-5.0625,-27,0
60120,-14.6875,-3.3125,-26.75,0
60140,-15.25,2,-23.5,0
60160,-13.25,3.75,-25.125,0
60180,-12.6875,1.9375,-25.8125,0
60200,-14.25,4.4375,-27,0
60220,-17,7.3125,-27,0
60240,-19.5625,8.6875,-27.5,0
60260,-16.25,10.8125,-26.5,0
60280,-13.8125,13.3125,-23.75,0
60300,-14.4375,14.375,-24.8125,0
60320,-17.375,14.125,-25.5625,0
60340,-17,15.125,-24.9375,0
60360,-15.9375,17.6875,-25.625,0
60380,-16.0625,18.25,-27.125,0
60400,-14.875,18.75,-25.5625,0
60420,-12.9375,20.0625,-25.125,0
60440,-14.125,21.0625,-24.5,0
60460,-14.1875,22.25,-25.6875,0
60480,-12.375,22.9375,-24.5,0
60500,-10.8125,24.5625,-24.25,0
60510,-10.875,25.1875,-25.125,0
60530,-9.6875,25.9375,-23.5,0
60550,-8.5625,27.9375,-23.25,0
60570,-5.5625,26.3125,-25.0625,0
60590,-4.6875,24.375,-22.625,0
60610,-3.5,25.1875,-18.875,0
60630,-4.125,24.75,-16.6875,0
60650,-4.625,23.75,-17.125,0
60670,-5.3125,22.3125,-14.9375,0
60690,-3.5625,21.0625,-11.625,0
60710,-3.375,20.0625,-10.75,0
60730,-4.5,19.5625,-5.4375,0
60750,-2.8125,17.5,-5,0
60770,-4.4375,15.625,-7.375,0
60790,-3.75,15.4375,-7.9375,0
60820,-0.25,13.8125,-3.125,0
60840,-0.6875,13.125,-2.9375,0
60860,0.75,12.875,-0.75,0
60880,1.25,14.4375,0.1875,0
60900,2.8125,14.375,-2.5,0
60920,1.8125,12.125,-0.75,0
60940,1.375,11.4375,1.125,0
60960,2.6875,10.4375,0.4375,0
60980,2.8125,10.1875,0.0625,0
61000,2.375,11.125,0.6875,0
61020,2.3125,11.5,2.125,0
61040,2.3125,10.75,5.4375,0
61060,3.6875,10.125,4.0625,0
61080,2.5625,11.25,3.125,0
61100,3.625,12.0625,3.25,0
61120,1.625,11.375,3.875,0
61140,2.875,12.25,4.375,0
61160,3.3125,10.875,4.375,0
61180,1.8125,9.6875,5.0625,0
61200,3.4375,9.875,2.5625,0
61220,2.125,9.8125,1.875,0
61240,2.4375,9.6875,1.5,0
61260,6.125,10.5,0.4375,0
61280,7.875,11.8125,3,0
61300,8.0625,12.9375,4.125,0
61320,6.3125,11.1875,2.125,0
61340,4.9375,9,0.75,0
61360,6.3125,8.75,0.0625,0
61380,3.75,9.4375,2.0625,0
61400,2.625,11.5625,3.4375,0
61420,2.8125,12.5,4.4375,0
61440,2.375,12.25,6.1875,0
61460,1.3125,14,6.8125,0
61480,0.9375,15,7.8125,0
61500,2,13.25,7.8125,0
61520,-0.8125,12.5,7.25,0
61540,1.5,12.1875,9.25,0
61560,1.4375,12.3125,11.5,0
61580,2.9375,13.4375,10.8125,0
61600,1.875,14.375,7.875,0
61620,0.375,13.0625,8.4375,0
61640,1.4375,11.75,8.0625,0
61660,0.375,9.8125,8.75,0
61680,3.75,8.8125,11.1875,0
61700,0.5,10.625,11.5625,0
61720,1.8125,13.25,7.75,0
61740,2.375,10.3125,8.4375,0
61760,-1.25,9.1875,10.8125,0
61780,-0.5625,9.875,11,0
61800,0.6875,8.6875,11.9375,0
61820,-1.25,7.4375,11.9375,0
61840,-1.3125,7.25,12.375,0
61860,-2.1875,5.6875,12.6875,0
61880,-2.125,5.875,11.75,0
61900,-3.5625,4.0625,14.5,0
61920,-2.625,1.4375,16.3125,0
61940,-3.375,-1.625,14.4375,0
61960,-4.3125,-1.5625,12.5,0
61980,-3.125,-1.875,13.4375,0
62000,-3.4375,-4.0625,14.9375,0
62020,-3.875,-5.6875,14.125,0
62040,-2.875,-5.375,12.1875,0
62060,-1.75,-6.5625,11.6875,0
62080,-4.5,-8.125,12.875,0
62100,-3.5625,-8.3125,14.75,0
62120,-0.4375,-8.75,14.875,0
62140,-1.375,-10.6875,14.4375,0
62160,-3.3125,-10.4375,15.1875,0
62180,-4.75,-9.4375,14.6875,0
62200,-4.75,-11.125,14.75,0
62220,-6.5625,-12.0625,18.1875,0
62240,-2.875,-10.125,19.4375,0
62260,0.125,-8.5625,16.5,0
62280,0.5625,-6.6875,15,0
62300,1.6875,-5.5,17.375,0
62320,-1.0625,-5.8125,17.5,0
62340,-0.75,-5.5625,14.4375,0
62360,1.875,-6.9375,14.75,0
62380,0.3125,-9.375,15.625,0
62400,-0.3125,-9.1875,13.3125,0
62420,-0.875,-9.0625,13.5,0
62440,-4.375,-10.9375,15.8125,0
62460,-7,-12.625,16.375,0
62480,-2.1875,-13.75,15.0625,0
62500,2,-14.25,12.3125,0
62520,-0.5,-14.5625,12.9375,0
62540,-4.1875,-15.4375,15.625,0
62560,-4.6875,-17.3125,15,0
62580,-0.125,-17.125,11.625,0
62600,1.1875,-18.375,13.875,0
62620,-0.375,-20.8125,19.25,0
62640,1.8125,-21.0625,15.6875,0
62660,1.3125,-20.5625,13.25,0
62680,-1.25,-23.375,16.8125,0
62700,-4.6875,-23.4375,15.625,0
62720,-6.875,-24.0625,14.25,0
62740,-5.625,-25.125,13.25,0
62760,-6.4375,-26.875,10.75,0
62780,-7.1875,-26.9375,9.6875,0
62800,-4.375,-24.6875,7.75,0
62820,-1.625,-23.1875,3.8125,0
62840,-3.125,-24.375,4.625,0
62860,-7.625,-23.8125,5.75,0
62880,-7.4375,-25.1875,4.9375,0
62900,-4.5625,-26,1.875,0
62920,-5.0625,-24.5625,0.1875,0
62940,-4.375,-23.125,-1.1875,0
62960,-6.625,-23.875,-1.3125,0
62980,-9.1875,-24.125,0.5625,0
63000,-8.75,-23.1875,0.1875,0
63020,-9.3125,-23.9375,-2.8125,0
63040,-9.5625,-24.75,-3.5625,0
63060,-9.3125,-24.25,-1.0625,0
63080,-11.5625,-23.3125,-0.5,0
63100,-12.0625,-23.5625,-3.5,0
63120,-10.875,-23.9375,-4.8125,0
63140,-9.5625,-24.375,-4,0
63160,-10.5625,-23.5625,-3.375,0
63180,-12.25,-22.9375,-5.6875,0
63200,-11.4375,-22.0625,-5.375,0
63220,-9.5,-21.25,-6.375,0
63240,-7.6875,-21.1875,-8.1875,0
63260,-9.125,-20.5,-7.0625,0
63280,-9.6875,-20,-6.625,0
63300,-10.625,-21.5625,-8.3125,0
63320,-8.9375,-20.25,-9.6875,0
63340,-8.3125,-20.75,-9.125,0
63360,-13.9375,-20.3125,-7.9375,0
63380,-14.875,-18.375,-7.8125,0
63400,-10.5,-16.875,-10.1875,0
63420,-7.375,-16.5,-11.125,0
63440,-10.4375,-15.8125,-9.6875,0
63460,-10.5,-13.9375,-10.75,0
63480,-9.3125,-12.8125,-14,0
63500,-11.125,-13.375,-18.25,0
63520,-11.1875,-11.75,-21,0
63540,-9.8125,-10.75,-19.4375,0
63560,-9.25,-9.625,-19,0
63580,-12,-8.5,-22.125,0
63600,-15.3125,-7.3125,-23.375,0
63620,-12.5625,-7.1875,-22.0625,0
63640,-12.4375,-6.25,-22.375,0
63660,-13.9375,-4.625,-22.3125,0
63680,-15.5,-3.1875,-21.375,0
63700,-15.5625,-2.3125,-22.875,0
63720,-14.25,-0.875,-23.9375,0
63740,-15.5,-1.6875,-23.6875,0
63760,-17.0625,0.1875,-23.75,0
63780,-17.875,3.1875,-21.9375,0
63800,-14.0625,4.75,-21.6875,0
63820,-14,4.6875,-22.0625,0
63840,-14.6875,7.4375,-22.5,0
63860,-13.9375,9.3125,-23.25,0
63880,-13.875,10.4375,-22.75,0
63900,-14.625,13.9375,-22.0625,0
63910,-15.25,15.75,-24,0
63930,-15.125,15.9375,-23.3125,0
63950,-13.125,18.8125,-22,0
63970,-12,20.375,-20.75,0
63990,-12.125,21.5,-20.5,0
64010,-12.125,22.1875,-21.6875,0
64030,-10.6875,22.625,-22.9375,0
64050,-12.8125,23,-22.0625,0
64070,-14.25,22.8125,-18.9375,0
64090,-12.4375,23.3125,-18.0625,0
64110,-12.75,22.8125,-18.5,0
64130,-11.6875,21.8125,-17.875,0
64150,-10.375,22.25,-17.6875,0
64170,-11.1875,21.25,-18.375,0
64190,-12,20.4375,-16.4375,0
64210,-9.875,20.4375,-13.5,0
64230,-7.9375,21.75,-13.875,0
64250,-9.75,21.125,-16.875,0
64270,-10.875,21.125,-15.9375,0
64290,-7.4375,24.4375,-15.5,0
64310,-5.8125,25.3125,-15.1875,0
64330,-3.9375,26.8125,-9.5,0
64350,0.0625,28.875,-9.375,0
64370,-0.625,29,-10.9375,0
64390,0.0625,30.625,-7.4375,0
64410,-0.5625,31.75,-6.0625,0
64430,1.0625,31.625,-5.4375,0
64450,0.8125,30.8125,-1.0625,0
64470,1.0625,30.5,-2.1875,0
64490,2,29.25,-2.0625,0
64510,1.0625,30.0625,0.25,0
64530,-0.5625,32.25,0.625,0
64550,0,32,5.25,0
64570,5.1875,31.4375,7,0
64590,5.6875,31.6875,6.0625,0
64610,2.125,30.6875,5.8125,0
64630,-0.9375,30.75,6.6875,0
64650,-1.0625,30.875,7.75,0
64670,0.75,30.0625,8.75,0
64690,-1.3125,29.375,7.6875,0
64710,-3.5625,29.5625,6.875,0
64730,-4.625,28.875,5.8125,0
64750,-7.25,27.5625,7.5625,0
64770,-3.25,26.9375,9,0
64790,0.9375,24.5625,7.875,0
64810,-0.9375,20.5625,8.25,0
64830,-4.0625,20.0625,9.4375,0
64850,-3.625,18.4375,8.6875,0
64870,-3.75,15.4375,6.9375,0
64890,-5.0625,13.125,7.4375,0
64910,-3.6875,11.5625,8.9375,0
64930,-6.125,10.3125,8.4375,0
64950,-6.1875,8.9375,7.5625,0
64970,-2.1875,7.5625,6.0625,0
64990,2.0625,5.3125,5.25,0
65010,-0.625,4.5,8.1875,0
65030,-1.8125,5.5625,7.125,0
65050,-0.1875,5,6.6875,0
65070,-0.4375,2.5625,10.5625,0
65090,-2.125,1.9375,12,0
65110,0.875,2.25,11.0625,0
65130,2.5,1.9375,11.6875,0
65150,0.125,1.3125,11.25,0
65170,-1.5,1,11.6875,0
65190,0.9375,-0.6875,11.5625,0
65210,1.125,-1.8125,11.25,0
65230,2.625,-1.875,10.875,0
65250,2.5,-2.25,10.5,0
65270,2,-2.75,10.75,0
65290,-0.1875,-2.375,10.0625,0
65310,1.0625,-2.25,9.5,0
65330,3.375,-3.8125,11.375,0
65350,0.3125,-3.8125,10.125,0
65370,0.875,-3.375,10,0
65390,2.5625,-3.75,11.25,0
65410,-0.625,-2.8125,12.25,0
65430,-1.8125,-1.8125,13.1875,0
65450,-2.375,-2.125,13.5,0
65470,-1.5625,-3.25,13.5625,0
65490,-0.8125,-2.5,13.3125,0
65510,1.125,-2.0625,13.4375,0
65530,0.6875,-3.625,14.5625,0
65550,-2.5,-3.3125,15.1875,0
65570,-1.3125,-2.3125,14.6875,0
65590,2.5,-3.1875,13.6875,0
65610,1.375,-5.125,15,0
65630,-2.6875,-3.9375,13.5625,0
65650,-1.0625,-3.625,12.625,0
65670,1.4375,-5.1875,12.5625,0
65690,-0.9375,-4.9375,11.75,0
65710,-0.6875,-4.5625,12.5,0
65730,2.3125,-5.25,12.5625,0
65750,1.3125,-6.375,12.6875,0
65770,0.5625,-7.25,12.1875,0
65790,0.0625,-8.875,10.5625,0
65810,-2.25,-10.5,11.8125,0
65830,-1.625,-11.125,13.75,0
65850,0.1875,-12,12.25,0
65870,-1.8125,-13.5625,11.625,0
65880,-3.8125,-15.1875,12.5,0
65900,-3.1875,-15.625,10.5,0
65920,-3.125,-17.3125,10.125,0
65940,-4.75,-18.75,10.375,0
65960,-8.0625,-19.3125,8.1875,0
65980,-7.5625,-21.625,7.6875,0
66000,-9.3125,-24.1875,7.75,0
66020,-9.9375,-24,7.75,0
66040,-11.25,-25.3125,7.0625,0
66060,-12.25,-26,6.5,0
66080,-10.625,-26.1875,6.875,0
66100,-8.5,-26.875,7.125,0
66120,-10.875,-27.8125,7.9375,0
66140,-12.8125,-26.8125,9.8125,0
66160,-12.3125,-25.4375,8.9375,0
66180,-10.8125,-26.3125,8.4375,0
66200,-11.875,-26.25,9.25,0
66220,-11.625,-24.625,10,0
66240,-8.875,-23.625,9.6875,0
66260,-14.0625,-23.125,9.3125,0
66280,-14.3125,-20.0625,8.6875,0
66300,-8.3125,-18.9375,7.4375,0
66320,-7,-20.3125,6.8125,0
66340,-8.4375,-18.5,7.75,0
66360,-8.5625,-15.625,9.375,0
66380,-7.5,-16,7.625,0
66400,-8.4375,-15.375,6.5,0
66420,-4.5625,-13.75,5.9375,0
66440,-3.5625,-14.5625,5,0
66460,-3.875,-14.5625,3.25,0
66480,-4.6875,-14.625,4.25,0
66500,-6.5,-15.0625,3.375,0
66520,-7.625,-14.875,1.375,0
66540,-7.375,-14.75,0.8125,0
66560,-6,-15.875,0.5,0
66580,-7.375,-17.5625,-1.25,0
66600,-8.8125,-17.75,-1.125,0
66620,-5.6875,-17.8125,-3.125,0
66640,-5.1875,-21.0625,-6.0625,0
66660,-6.375,-21.5625,-5.9375,0
66680,-5.3125,-20.4375,-7.5,0
66700,-7.25,-21.6875,-10,0
66720,-8.4375,-23.125,-10.375,0
66740,-7,-23.6875,-11.6875,0
66760,-5.9375,-23.375,-13.375,0
66780,-6.125,-23.0625,-14.1875,0
66800,-8.1875,-23.25,-14.25,0
66820,-7.8125,-23.3125,-13.125,0
66840,-4.5625,-23.3125,-12.5,0
66860,-5.75,-22.625,-13.5,0
66880,-7.5,-22.9375,-15.375,0
66900,-8.6875,-22.75,-14.125,0
66920,-10,-21.5,-13.0625,0
66940,-9.3125,-20.0625,-13.8125,0
66960,-10.9375,-21.8125,-13.0625,0
66980,-11,-21.3125,-12.75,0
67000,-7.9375,-20.25,-15.6875,0
67020,-9.125,-19.25,-16.875,0
67040,-10.3125,-17.125,-16.5625,0
67060,-10.1875,-15.375,-17.3125,0
67080,-9.25,-15.4375,-18.3125,0
67100,-9.4375,-16.1875,-18.25,0
67120,-7.9375,-14.9375,-18.25,0
67140,-8.3125,-14.4375,-18.875,0
67160,-12.375,-13.0625,-19.75,0
67180,-10.3125,-10.375,-20.25,0
67200,-7,-8.5625,-21.25,0
67220,-4.3125,-7,-23,0
67240,-4.0625,-5.3125,-24.8125,0
67260,-3.375,-3.4375,-25.5,0
67280,-1.3125,-1.25,-25.625,0
67300,0.5625,0.0625,-26.1875,0
67320,-0.375,-0.125,-25.3125,2001
67340,-2.75,0.25,-23.625,0
67360,-2.3125,2.1875,-24.5625,0
67380,-0.4375,3.75,-23.375,0
67400,3.25,5.75,-20.375,0
67420,2.625,6.875,-16.25,0
67440,2.5625,8.375,-12.75,0
67460,1.1875,9.4375,-10.4375,0
67480,-3.8125,9.5,-7.375,0
67500,-9.375,8.0625,-5.6875,0
67520,-8.4375,9.125,-8.0625,0
67540,-2.4375,6.125,-9.6875,0
67560,-1.5,4.0625,-7.125,0
67580,2.9375,8.9375,-3.4375,0
67600,9.375,12.125,-2.0625,0
67620,11.5625,11.75,3.5,0
67640,19.6875,16.125,3.375,0
67660,23.8125,22.25,2.1875,0
67680,25.875,24.5,13.6875,0
67700,28.25,24.75,24.4375,0
67720,25.25,24.25,24.5625,0
67740,15.875,28.9375,18.9375,0
67760,16.75,35.0625,24.5625,0
67780,21.375,34.375,29.1875,0
67800,20.3125,33.5,31.375,0
67820,23.6875,40.25,41.625,0
67840,31.9375,47,50.6875,0
67860,34.8125,45.5625,48.6875,0
67880,30.5,44.5625,39,0
67900,20.875,47.875,33.5,0
67920,12.375,57.3125,33,0
67940,22.3125,61.8125,45.1875,0
67960,30.3125,51.75,56.8125,0
67980,31.8125,46.1875,53.3125,0
68000,39.125,51.375,53.125,0
68020,48.4375,53.25,62.0625,0
68040,44.8125,47.8125,71.25,0
68060,41.6875,50.875,68.4375,0
68080,42.0625,58.625,71.5625,0
68100,48.5,56.0625,82.375,0
68120,41.5625,48.375,82.25,0
68140,30.9375,45.4375,81.0625,0
68160,26.125,43.6875,82.625,0
68180,23.3125,35.6875,74.5625,0
68200,19.6875,27.8125,65.875,0
68220,21.5625,23.25,62.375,0
68240,17.8125,16.5,57,0
68260,5.625,10.75,50.6875,0
68280,-2.125,9.3125,45.9375,0
68300,1.375,6.625,36.0625,0
68320,0.6875,-0.6875,29.75,0
68340,-1.0625,-5.6875,23.75,0
68360,1.8125,-6,17.8125,0
68380,3.625,-9.1875,15.125,0
68400,4.1875,-14.6875,13.5,0
68420,3.5,-16.5,9.8125,0
68440,2.0625,-14.625,5.9375,0
68460,3.375,-14.3125,5.9375,0
68480,1.25,-15.75,7.375,0
68500,-0.9375,-16.4375,7.5625,0
68520,-1.9375,-13.875,6.625,0
68540,-3.875,-14.625,4.8125,0
68560,-4.4375,-14.125,5.5,0
68580,-1.8125,-13.75,8.6875,0
68600,0,-12.3125,6.3125,2000
68620,-1,-14.9375,4.6875,0
68640,-0.375,-13.6875,6.1875,0
68660,3.1875,-10.9375,2.125,0
68680,6.0625,-11.6875,-1.125,0
68700,2.1875,-12.4375,-0.3125,0
68720,-0.4375,-14.0625,4.5,0
68740,-4.5,-15.4375,10.75,0
68760,-2.4375,-13.6875,9.625,0
68780,0.5625,-13.75,7.25,0
68800,3.75,-16.8125,4.875,0
68820,3.25,-18.5625,5.5,0
68840,3.1875,-18.375,5.3125,0
68860,4,-17.75,2.1875,0
68880,2.0625,-19.625,-0.0625,0
68900,1.875,-20.375,-1.1875,0
68920,4.125,-21.375,-2,0
68940,4.125,-25.375,-2.8125,0
68960,1.75,-25.9375,-3.125,0
68980,4.25,-23.3125,-3.9375,0
69000,6.1875,-23.25,-4.0625,0
69020,6.8125,-25.75,-6.875,0
69040,4.6875,-25.6875,-8,0
69060,3.75,-23.3125,-8.625,0
69080,2.125,-21.8125,-9.75,0
69100,-0.125,-22.875,-7.75,0
69120,3.125,-22.1875,-5.625,0
69140,7.75,-21.625,-7.1875,0
69160,2.125,-20.75,-11.5,0
69180,-2.9375,-17.875,-9.5625,0
69200,-2.875,-13.75,-11.375,0
69220,1,-15,-16.3125,0
69240,1.0625,-16.25,-16.75,0
69260,1.9375,-13.4375,-16.5,0
69280,2.75,-11.75,-14.4375,0
69290,1.25,-12.25,-12.3125,0
69310,-0.8125,-12,-16.1875,0
69330,2.3125,-10.0625,-18.25,0
69350,4.0625,-7.875,-15.625,0
69370,3,-6.125,-12.3125,0
69390,1.4375,-4.875,-12,0
69410,0.5625,-3.375,-10.9375,0
69430,0.0625,-0.6875,-12.4375,0
69450,0.625,0.625,-13.75,0
69470,1.5,1.125,-14.3125,0
69490,3,2.0625,-16.875,0
69510,5.5,3,-19.6875,0
69530,4.25,5.125,-21.8125,0
69550,3.0625,7.625,-22.1875,0
69570,3.4375,8.75,-25.5,0
69590,3,10.8125,-25.3125,0
69610,3.4375,12.875,-22.6875,0
69630,2.8125,13.6875,-23.5,0
69650,-1.125,11.5625,-22.75,0
69670,-8.125,12.3125,-19.5625,0
69690,-11.1875,15.1875,-15.25,0
69710,-9.6875,15.6875,-12.0625,0
69730,-9.6875,15.0625,-13.1875,0
69750,-10.875,14.25,-13.875,0
69770,-10.6875,14.875,-16.3125,0
69790,-10.375,17.1875,-18,0
69810,-5.25,18.1875,-20.25,0
69830,-5.5625,17.1875,-21,0
69850,-6.875,17.625,-22.1875,0
69870,-5.125,19.5625,-24.8125,0
69890,-1,22.75,-25.6875,0
69910,-0.6875,23.5625,-25.9375,0
69930,-4.1875,26.1875,-27.5625,0
69960,-1.6875,26.8125,-32.0625,0
69980,-3.625,27.3125,-31.6875,0
70000,0.0625,29.1875,-28.125,0
70020,-0.5625,30.75,-26.3125,0
70040,-2.875,29.8125,-28.3125,0
70060,-4.3125,29.9375,-26.5,0
70080,-3.9375,29.125,-24,0
70100,-2.75,27.1875,-23.375,0
70120,-1.375,27.75,-25.625,0
70140,-0.8125,29.625,-26.9375,0
70160,0.375,29.875,-26.8125,0
70180,-1.625,29.25,-24.75,0
70200,-0.125,28.9375,-22.9375,0
70220,3.3125,27.625,-24.0625,0
70240,2.8125,25.625,-24.9375,0
70260,3.625,24.5625,-25.8125,0
70280,1.9375,23.1875,-25.125,0
70300,0.125,22.6875,-21.75,0
70320,0.8125,23.1875,-20.375,0
70340,3.3125,23.4375,-17.6875,0
70360,4.375,22.9375,-16,0
70380,0.4375,21.625,-14.6875,0
70400,0.1875,20.5,-14.4375,0
70420,3.75,20,-14.3125,0
70440,2.125,17.9375,-13.375,0
70460,3.875,16.1875,-13.4375,0
70480,5.25,16.25,-12.0625,0
70500,3,15.9375,-10.8125,0
70520,2,14,-7.6875,0
70540,2.5625,13.5625,-5,0
70560,5.625,14.875,-2.5,0
70580,4.875,14.75,0.75,0
70600,-2.0625,16,2.5625,0
70620,-3.3125,15.5625,2.3125,0
70640,-3.6875,12.4375,6.1875,0
70660,-3.125,12.25,9.375,0
70680,-3.6875,14.0625,8.875,0
70700,-5.75,14.0625,10.125,0
70720,-3.3125,11.8125,11.375,0
70740,-1.8125,10.0625,10.4375,0
70760,-0.25,9.875,9.9375,0
70780,0.125,10.3125,9.375,0
70800,-4,9.125,7.6875,0
70820,-5.4375,9.75,7.75,0
70840,-4.5,8.5,9.9375,0
70860,-1.0625,7.6875,10.3125,0
70880,-1.25,6.25,9.0625,0
70900,-0.75,7.0625,8.6875,0
70920,-4.125,8,10.5,0
70940,-4.875,9,12.5625,0
70960,-4.5,8.375,13.375,0
70980,-5.625,8.4375,10.1875,0
71000,-3.875,9.3125,9.8125,0
71020,-2.3125,7.875,11.875,0
71040,-5.125,6.6875,14.1875,0
71060,-8.625,6.1875,12.5,0
71080,-5,3.25,12.9375,0
71100,-2.5625,2.1875,15.1875,0
71120,-6.625,2.3125,14.8125,0
71140,-6.625,1.75,16.375,0
71160,-9.1875,2.3125,16.75,0
71180,-11.875,1.5625,15.125,0
71200,-8.25,-0.1875,15.6875,0
71220,-4.25,-0.875,17.625,0
71240,-5.5,-0.1875,17.6875,0
71250,-9.5,1.375,15.75,0
71270,-7.8125,1.875,14.9375,0
71290,-5.8125,-0.8125,17.1875,0
71310,-6.4375,0.0625,19.4375,0
71330,-5.5,2.125,17.5625,0
71350,-6.25,1.3125,16.0625,0
71370,-9,0.75,16.6875,0
71390,-5.0625,0.5,16.9375,0
71410,-1.375,-1.1875,16.3125,0
71430,-3.875,-3.1875,13.9375,0
71450,-2.6875,-3.875,13.5625,0
71470,-1.0625,-5,14.1875,0
71490,-2.25,-6.25,13.8125,0
71510,-4.5625,-6.9375,13.5625,0
71530,-4.1875,-7.1875,13.4375,0
71550,-2.875,-8.5625,12.5625,0
71570,-5.875,-8.875,12.375,0
71590,-6.75,-8.75,13.125,0
71610,-6.875,-9.5,13.125,0
71630,-5.8125,-9.75,12.75,0
71650,-4.75,-9.8125,12.8125,0
71670,-6.5,-10.6875,13.6875,0
71690,-7.1875,-11.4375,13.375,0
71710,-6.1875,-12.5,13,0
71730,-2.9375,-14,13.4375,0
71750,-5.25,-14.875,13.5,0
71770,-7,-13.4375,13.9375,0
71790,-6.9375,-14.6875,15.125,0
71810,-8,-15.6875,13.1875,0
71830,-4.5625,-16.5625,12.125,0
71850,-0.9375,-16.3125,14.375,0
71870,-1.625,-16.25,16.25,0
71890,-6.1875,-14.5625,14.875,0
71910,-9.4375,-14.3125,12.75,0
71930,-5.6875,-15.4375,13,0
71950,-3.9375,-16.25,15,0
71970,-4.75,-14.25,15.6875,0
71990,-5.625,-14,14.625,0
72010,-7.375,-14.3125,13.3125,0
72030,-7.375,-14.0625,12.5,0
72050,-4.5,-13.75,12.3125,0
72070,-5.125,-15.625,14,0
72090,-7.8125,-16.125,13.5625,0
72110,-8.1875,-16.0625,11.9375,0
72130,-6,-16.5,11.25,0
72150,-7.1875,-17.8125,12.625,0
72170,-8.1875,-18.25,12,0
72190,-7.125,-19.125,11.1875,0
72210,-6.625,-20.0625,10.3125,0
72230,-7.8125,-20.5,12.1875,0
72250,-5.625,-20.1875,11.75,0
72270,-4.5,-21.3125,9.9375,0
72290,-6,-21.5625,9.375,0
72310,-9.375,-22.375,8.5,0
72330,-9.5625,-23,7.9375,0
72350,-7.125,-23.125,7.3125,0
72370,-5.8125,-22.4375,6.1875,0
72390,-5.625,-22.25,2.1875,0
72410,-4.5,-22.75,1.6875,0
72430,-3.5,-22.1875,1.25,0
72450,-4.3125,-21.625,0.3125,0
72470,-4.6875,-23.125,-2.9375,0
72490,-3.625,-23.75,-4.75,0
72510,-1.5625,-23,-5.625,0
72530,-0.625,-24.0625,-4.375,0
72550,-1.3125,-24.125,-3.375,0
72570,-0.5,-24.625,-4.1875,0
72590,-0.1875,-24.9375,-2.75,0
72610,-3.9375,-25.9375,-3.875,0
72630,-8,-26.4375,-3.5625,0
72650,-7.25,-26.0625,-2.6875,0
72670,-3.6875,-26.75,-3.5625,0
72690,-6.4375,-26.6875,-2.9375,0
72710,-9.6875,-26.0625,-1.5,0
72730,-7.1875,-24.75,-1,0
72750,-10.125,-23.375,-0.3125,0
72770,-12.5625,-22.3125,-0.6875,0
72790,-10.375,-21.3125,-1.625,0
72810,-10.4375,-22.3125,-0.8125,0
72830,-9.875,-20.625,-2.0625,0
72850,-7.1875,-18.25,-4.3125,0
72870,-5.625,-17.625,-9.625,0
72890,-12,-19.1875,-8.875,0
72910,-14.375,-16.625,-9.6875,0
72930,-16.375,-16.3125,-6.75,0
72950,-12.9375,-16.25,-4.375,0
72970,-13.25,-14.8125,-6.25,0
72990,-12.3125,-14.9375,-7.75,0
73010,-7.875,-15.75,-7.875,0
73030,-7.8125,-17.125,-12.625,0
73050,-11.3125,-18.5,-16.125,0
73070,-10,-17.9375,-17.0625,0
73090,-6.625,-17.0625,-20.1875,0
73110,-6.5625,-16.5625,-20.375,0
73130,-10.1875,-15,-21.625,0
73150,-8.4375,-14.25,-23.75,0
73170,-9.375,-12.0625,-26.0625,0
73190,-11.125,-9.8125,-23.25,0
73210,-10.125,-8,-23.5625,0
73230,-6.9375,-9.1875,-27.125,0
73250,-6.75,-6.625,-27,0
73270,-9.125,-3.375,-29.4375,0
73290,-12.1875,-1.125,-29.5625,0
73310,-9.375,2.125,-31.5625,0
73330,-8.4375,4.75,-31.75,0
73350,-7.875,8.25,-32.125,0
73370,-9.5625,11.4375,-33.25,0
73390,-8.875,14.8125,-34.3125,0
73410,-7.4375,17.4375,-34.625,0
73430,-7.1875,21.25,-34.125,0
73450,-6.6875,25.4375,-32.5625,0
73470,-7.5,29.5,-32.9375,0
73490,-9.5,31.4375,-33.375,0
73510,-7.75,31.8125,-33.4375,0
73530,-5.625,32.4375,-33.75,0
73550,-7.5,32.875,-34.375,0
73570,-10.4375,35,-36.375,0
73590,-10.8125,33.4375,-35.5,0
73610,-8.875,33,-33,0
73630,-9.375,33.125,-30.125,0
73650,-10.25,34.3125,-27.625,0
73670,-5.4375,34,-29.125,0
73690,-4.3125,32,-29.25,0
73710,-6.125,30.6875,-29.75,0
73730,-7,30.0625,-31.0625,0
73750,-4.8125,27.6875,-27.6875,0
73770,-2.1875,28.1875,-24.5,0
73790,-2.5,29.6875,-25.75,0
73810,-4.375,30.125,-24.6875,0
73830,-5.9375,30.9375,-18.0625,0
73850,-3.8125,31.1875,-15.875,0
73870,-2,29.3125,-15.25,0
73890,0.4375,28.4375,-9.75,0
73910,0.8125,29.5625,-7.625,0
73920,0.375,30.125,-10.5625,0
73930,-0.4375,28,-6.625,0
73950,3.4375,28.25,1.625,0
73970,3.1875,28.6875,-1.4375,0
73990,-0.125,26.0625,-4.0625,0
74010,0.6875,25.875,-2.375,0
74030,3.5625,24.8125,0.25,0
74050,3.6875,21.8125,-0.8125,0
74070,2.375,19.875,-0.125,0
74090,-0.125,19.75,3.3125,0
74110,1.0625,18.6875,-0.25,0
74130,1.75,16.0625,0.5625,0
74150,1.25,14.5,2.75,0
74170,0.5625,13.4375,6.6875,0
74190,-2.5625,13.5625,4.75,0
74210,-6.125,13.125,4.375,0
74230,-5.9375,13.125,7,0
74250,-6.125,13.5625,6.4375,0
74270,-3.5,10.375,6.75,0
74290,1.125,5.6875,4.0625,0
74310,1.125,3.6875,3.125,0
74330,1.0625,4.125,2.375,0
74350,-1.75,5.9375,3,0
74370,-4.625,8.125,6.125,0
74390,-1,8.25,9.625,0
74410,-0.625,4.375,7.5,0
74430,-1.875,1.6875,6.9375,0
74450,1.3125,2.1875,6.0625,0
74470,0.875,1.5625,9.25,0
74490,0.0625,1.125,9.4375,0
74510,3.875,0.6875,8,0
74530,5.625,2.4375,7.875,0
74550,4.25,4.6875,10.5625,0
74570,1.5625,6.0625,14.0625,0
74590,2.0625,7.375,14.3125,0
74610,2.5625,4.8125,11.125,0
74630,3,3.125,11.8125,0
74640,4.375,3.75,12.25,0
74660,4.0625,5.25,12.625,0
74680,1.1875,6.1875,14.4375,0
74700,-2.3125,7.0625,16.8125,0
74720,-3.25,7.625,16.4375,0
74740,-0.875,6.4375,16.5625,0
74760,0.3125,5.875,17.3125,0
74780,2.25,4.6875,14.0625,0
74800,-1.875,4,13.375,0
74820,-5.1875,5.375,14.0625,0
74840,-5.9375,3.3125,15.875,0
74860,-1.75,1.875,16,0
74880,-1.625,1.1875,17.25,0
74900,-4.1875,0.625,17.4375,0
74920,-7.5625,2.75,18.6875,0
74940,-6.875,3.3125,20.3125,0
74960,-6,3.75,20.25,0
74980,-1.4375,2,18,0
75000,-2.25,-0.5625,18.4375,0
75020,-6,-0.5625,18.3125,0
75040,-5.1875,-0.8125,18.25,0
75060,-0.875,-3.4375,16.875,0
75080,-2.625,-5.5625,15.3125,0
75100,-3.375,-6.0625,14.5,0
75120,-2.25,-7.125,12.5,0
75140,-4.9375,-9.1875,12.5625,0
75160,-4.625,-9.4375,10.875,0
75180,0.1875,-10.6875,7.6875,0
75200,0.5625,-12.25,6.75,0
75220,-2.4375,-12.625,7.875,0
75240,-4.3125,-13.25,6.9375,0
75260,-0.6875,-13.5,5.9375,0
75280,-0.8125,-14.6875,8.0625,0
75300,-4.875,-15.0625,10.1875,0
75320,-9,-14,9.25,0
75340,-5.125,-15.0625,8.125,0
75360,-3.4375,-17.0625,10.125,0
75380,-4.4375,-19.375,11.8125,0
75400,-3.6875,-19.1875,8.4375,0
75420,-2.125,-21.0625,8.1875,0
75440,-6.5,-22.875,9.5625,0
75460,-8.5625,-20.0625,7.75,0
75480,-6.0625,-21.1875,9.875,0
75500,-9,-23.3125,11.25,0
75520,-7.5625,-22.625,8.25,0
75540,-3.875,-23.75,8.0625,0
75560,-3.25,-24.5,7.1875,0
75580,-5.75,-24.625,7.25,0
75600,-6.4375,-25.0625,7.5,0
75620,-1.625,-23.75,5.0625,0
75640,1,-24,5.8125,0
75660,-2,-24.25,11.0625,0
75680,-10.125,-23.9375,11.6875,0
75700,-8.3125,-22.5625,6.375,0
75720,-1.5,-25.125,3.875,0
75740,2,-27.6875,4.0625,0
75760,-3,-27.375,4.875,0
75780,-5.9375,-24.8125,6.8125,0
75800,-7.5625,-25.625,6.9375,0
75820,-10.125,-27.625,1.5,0
75840,-5.125,-27.5625,-0.375,0
75860,-0.375,-29.8125,-1.6875,0
75880,0.4375,-30.375,-5.375,0
75900,-0.8125,-30.25,-5.6875,0
75920,-1.8125,-29.625,-4.125,0
75940,-1.625,-28.5625,-4.5625,0
75960,-2.25,-26.75,-4.5,0
75980,-4.1875,-27.1875,-2.25,0
76000,-7.75,-28.6875,-1.125,0
76020,-6.25,-29.6875,-3.6875,0
76040,-6.375,-29.875,-5.75,0
76060,-7.9375,-30.25,-6.5625,0
76080,-9.4375,-29.5,-5.4375,0
76100,-7.6875,-29.625,-6.75,0
76120,-5.625,-29.625,-8.5625,0
76140,-5.75,-28.6875,-8.8125,0
76160,-6.1875,-27.5,-5.6875,0
76180,-9.25,-25.9375,-7.3125,0
76200,-9.125,-25.5625,-10.375,0
76220,-6.5,-27.625,-12.1875,0
76240,-6.125,-28.1875,-12.5625,0
76260,-6.9375,-25.6875,-11.5,0
76280,-7.25,-24.625,-14.0625,0
76300,-6.875,-24.75,-18.1875,0
76320,-4.5,-26.375,-19.75,0
76340,2.25,-25.375,-20.375,0
76360,3.5,-22.125,-15.9375,0
76380,-3.5625,-17.4375,-17.125,0
76400,-10.3125,-15.8125,-21.8125,0
76420,-11.875,-16.6875,-22.875,0
76440,-6.8125,-16.0625,-22.8125,0
76460,-6.375,-12.375,-21.75,0
76480,-8.875,-11.5625,-18.25,0
76500,-12.125,-10,-17.75,0
76520,-11.4375,-7.0625,-19.625,0
76540,-10.6875,-6.75,-19.625,0
76560,-10.6875,-4.5625,-16.5,0
76580,-11.8125,-0.8125,-14.25,0
76600,-12.5,0.1875,-15.6875,0
76610,-11.875,0.5625,-15.5625,0
76630,-9.75,0.6875,-18.75,0
76650,-9.1875,1.5,-20.875,0
76670,-12.625,2.8125,-23.0625,0
76690,-14,4.9375,-23.25,0
76710,-12.75,4.8125,-23.375,0
76730,-11.3125,5.25,-24.5,0
76750,-11.75,6.25,-24.75,0
76770,-14.875,7.125,-24.25,0
76790,-14.5,8.125,-24.0625,0
76810,-13.4375,9.4375,-22.125,0
76830,-13.75,10.5,-21.125,0
76850,-14.6875,11.6875,-21.0625,0
76870,-13.8125,13.25,-17.8125,0
76890,-13.5,13.4375,-19.5,0
76910,-14.3125,12.1875,-23,0
76930,-15,12.9375,-23.375,0
76950,-14.5625,13.3125,-26.4375,0
76970,-14.75,12.875,-26.4375,0
76990,-16.3125,13.625,-23.4375,0
77010,-15.6875,14.5,-22.375,0
77030,-16.0625,15.125,-22.625,0
77030,-16.375,16.375,-22,0
77040,-12.3125,19.4375,-22.375,0
77060,-11.0625,18.5,-18.6875,0
77080,-12.1875,20.125,-17.9375,0
77100,-12.1875,23,-18.75,0
77120,-11.3125,23.8125,-16.875,0
77140,-10.75,23.0625,-17.5625,0
77160,-10.1875,21.8125,-17,0
77180,-8.5,22.375,-13.5,0
77200,-8.8125,22.8125,-12.5625,0
77220,-9.625,22.75,-13.6875,0
77240,-8.875,24.75,-11.1875,0
77260,-4.75,24.9375,-8.3125,0
77280,-3.1875,24.0625,-8.4375,0
77300,-4.875,24.4375,-8.125,0
77320,-5.3125,25.625,-5.625,0
77340,-4.1875,25.6875,-4.375,0
77360,-4,26.25,-3.5625,0
77380,-2.9375,27.9375,-2.375,0
77400,-0.25,28.375,-2.4375,0
77420,-1.625,29.25,-1.4375,0
77440,-3.5,31.4375,0.625,0
77460,-1.9375,31.8125,2.8125,0
77480,-1.625,31.0625,2.0625,0
77500,-0.8125,30.8125,1.0625,0
77520,-0.375,29.9375,1.25,0
77540,-2.125,30.3125,3.4375,0
77560,-4.3125,31.75,6.4375,0
77580,-6.3125,31.75,10,0
77600,-5.5625,30.625,11.125,0
77620,-2,28.5625,10.9375,0
77640,-3,26.125,11.5625,0
77660,-7.25,26.75,10.8125,0
77680,-9.4375,26.3125,9.0625,0
77700,-6.6875,23.9375,10.5,0
77720,-7.4375,23.125,13.75,0
77740,-5.125,23.9375,12.375,0
77760,-3.25,23.4375,12.9375,0
77780,-3.5,21.8125,14.75,0
77800,-2.125,20.375,11.625,0
77820,-1.75,17.4375,9.3125,0
77840,-2,15.8125,7.875,0
77860,-0.125,15.0625,8.0625,0
77880,-2.875,13.875,8.75,0
77900,-7.375,11.8125,9.375,0
77920,-8.4375,11,9.6875,0
77940,-8.4375,10,12,0
77960,-7.5,8.375,11.375,0
77980,-7.125,7.5625,10.625,0
78000,-7.25,6.625,14.5625,0
78020,-7.0625,6.375,13.5,0
78040,-5.0625,5.25,13,0
78060,-4.125,4.1875,13.6875,0
78080,-5.4375,4.4375,12.3125,0
78100,-5.0625,5.125,11.625,0
78120,-1.125,2.8125,13,0
78140,-2.4375,3,13,0
78160,-1.75,4.5625,11.625,0
78180,0.8125,4.1875,12.4375,0
78200,0,3.0625,13,0
78220,-0.5625,2.8125,11.875,0
78240,0.875,2.4375,12.375,0
78260,0.5625,1.125,12.1875,0
78280,0.3125,-0.0625,11.75,0
78300,1.625,-0.875,13.6875,0
78320,-1.3125,0,12.4375,0
78340,-3.375,-0.5625,14,0
78360,-0.4375,-2.6875,15.125,0
78380,1.5,-3.125,13,0
78400,-2.25,-3.375,14.5625,0
78420,-3.8125,-3,16.0625,0
78440,0,-3.375,13.875,0
78460,-1.125,-6.1875,13.4375,0
78480,-3.125,-5.5,13.25,0
78500,-2.875,-3.9375,13.25,0
78520,-1.3125,-5.1875,13.5625,0
78540,-3.3125,-6.0625,13.5625,0
78560,-1.5,-5.3125,12.5,0
78580,2.125,-6.3125,11.75,0
78600,0.5,-7.1875,10.8125,0
78620,-1.1875,-5.375,12.25,0
78640,-0.3125,-6.3125,12.5625,0
78660,-2.875,-8.5625,14.125,0
78680,-2.875,-8.25,15.0625,0
78700,0.875,-9,13.25,0
78720,1.0625,-11.3125,12.75,0
78740,-4.4375,-11.8125,14.1875,0
78760,-2.25,-11.5,12.8125,0
78780,2.5625,-14.25,10.4375,0
78800,-0.6875,-16.3125,9.8125,0
78820,-2.25,-15.0625,8.5625,0
78840,0.25,-16.4375,7.8125,0
78860,0.4375,-17.9375,8.25,0
78880,-1.3125,-17.4375,8.5,0
78900,-1,-17.8125,7.75,0
78920,-2.0625,-20.125,7.1875,0
78940,-1.75,-19.4375,6.875,0
78960,1.875,-18.3125,4.8125,0
78980,3.4375,-20.375,3.6875,0
79000,-4.0625,-21.125,4.125,0
79020,-6.3125,-19.5,3.6875,0
79040,-1.75,-19.875,2.3125,0
79060,-1.125,-20.75,3.9375,0
79080,-0.375,-19.75,4.25,0
79100,-3.4375,-20.0625,3.8125,0
79120,-5.375,-20.625,4.1875,0
79140,-4.3125,-20.875,3.375,0
79160,-3.8125,-20.9375,2.8125,0
79180,-4.9375,-21.5625,4.375,0
79200,-8.125,-21.125,3.4375,0
79220,-7.6875,-21.125,2.625,0
79240,-8.25,-21.3125,2.1875,0
79260,-7.625,-20.6875,0.625,0
79280,-5.4375,-20.625,-0.6875,0
79300,-5.4375,-21.6875,-0.1875,0
79320,-7.0625,-20.8125,-0.8125,0
79340,-5.25,-19.1875,-2.4375,0
79360,-6.6875,-19.3125,-3.4375,0
79380,-8.8125,-19,-2.5,0
79400,-6.3125,-19.0625,-0.625,0
79420,-7.3125,-20.5,0.875,0
79440,-10.125,-19.375,0.125,0
79460,-8.5,-17.1875,-2.9375,0
79480,-5.6875,-18.6875,-4.375,0
79500,-9.8125,-21.0625,-0.25,0
79520,-12.0625,-19.5625,3.6875,0
79540,-10.1875,-19.625,2.75,0
79560,-11.6875,-20.25,0.3125,0
79580,-11.6875,-19.5,-2.3125,0
79600,-8.75,-20.625,-4.5,0
79620,-8.75,-20.5625,-7,0
79640,-8.9375,-18.25,-8.6875,0
79660,-8.4375,-18,-10.375,0
79680,-10.1875,-17.75,-12.5625,0
79700,-6.6875,-17.875,-12.5625,0
79720,-4.3125,-17,-12.4375,0
79740,-7.5,-17.0625,-11.875,0
79760,-10.375,-16.9375,-11.5,0
79780,-7.125,-15.9375,-13.5,0
79800,-5.4375,-16.5,-15.375,0
79820,-8.8125,-16.9375,-15.0625,0
79840,-12,-16.3125,-12.125,0
79860,-9.3125,-14.75,-13.9375,0
79880,-6.0625,-15.375,-16.1875,0
79900,-8,-16.25,-14,0
79920,-10.125,-15.1875,-12.25,0
79940,-10.9375,-13.8125,-12.5625,0
79960,-11.375,-14.0625,-13.9375,0
79970,-11.375,-12.375,-14.625,0
79990,-8.9375,-11.9375,-14.6875,0
80010,-6.125,-11.3125,-14.4375,0
80030,-9.875,-11.0625,-15.25,0
80050,-8.0625,-10.125,-17.625,0
80070,-4.9375,-10.875,-19.4375,0
80090,-8.1875,-11.375,-19,0
80110,-12.0625,-10.6875,-18.625,0
80130,-10.125,-10.1875,-19.125,0
80150,-9.4375,-11.1875,-20.125,0
80170,-9.625,-10.6875,-21.625,0
80190,-9.0625,-10.9375,-22.25,0
80210,-6,-11,-22.1875,0
80230,-6.1875,-6.5,-24.5,0
80250,-4.9375,-4.625,-28.125,2001
80270,-3.375,-3.375,-29.5,0
80290,-2.4375,-0.8125,-27.875,0
80310,-0.6875,-0.8125,-22.125,0
80330,-0.125,0.8125,-16.125,0
80350,-5.0625,3.1875,-14.6875,0
80370,-4.5,3.625,-13.5625,0
80390,-4.375,6,-14.1875,0
80410,-1.125,5.125,-12.25,0
80430,1.8125,4.9375,-7.25,0
80450,0.6875,4.5,-1.1875,0
80470,-1.875,3.3125,1.625,0
80490,-0.9375,1.5,3.4375,0
80510,5.75,2.8125,2.6875,0
80530,13.875,6.375,2.0625,0
80550,14.4375,8.1875,-0.25,0
80570,19.125,10.3125,0.3125,0
80590,21.9375,12,4.5,0
80610,25,15.1875,12.625,0
80630,31.0625,16.1875,19.875,0
80650,33.625,19.8125,23.3125,0
80670,41.5625,31.5625,25,0
80690,46.4375,41.9375,29.5,0
80710,47.3125,52.8125,34.8125,0
80730,46.75,66.625,44.3125,0
80750,62.4375,84.1875,63.5,0
80770,82.875,99,80.5625,0
80790,92.875,101.625,90.125,0
80810,86.9375,109.188,83.6875,0
80830,83.0625,124.938,80.9375,0
80850,86.125,130.25,83.3125,0
80870,67.0625,116.625,81.4375,0
80890,57.1875,108.062,71.1875,0
80910,56.9375,101.562,62.375,0
80930,76.3125,86.9375,58.3125,0
80950,79.8125,64.5625,51.1875,0
80970,75.375,54.6875,38.875,0
80990,68.6875,53.5,35.125,0
81010,65.0625,46.3125,30.5625,0
81030,55.75,37.6875,22.1875,0
81050,44.125,28.5,19.0625,0
81070,35.6875,23.625,18.8125,0
81090,35.5,14.1875,24.6875,0
81110,29.9375,5.25,24.5,0
81130,25.3125,1.5625,25.9375,0
81150,14.5625,0.125,26.3125,0
81170,3.625,-3.1875,26.125,0
81190,-0.3125,-8.0625,23.5625,0
81210,1.625,-13.9375,21.9375,0
81230,5.3125,-18.375,21.8125,0
81250,5.75,-21.125,20.625,0
81270,2.75,-24.5,20.3125,0
81290,-1.9375,-28.25,22.1875,0
81310,-4.3125,-31.5,25.3125,0
81330,-6.1875,-33.8125,26.5,0
81350,-8.9375,-34.5625,26.1875,0
81370,-9.375,-31.9375,26.0625,0
81390,-12.875,-32.6875,24.75,0
81410,-23.8125,-37.0625,27,0
81430,-25.75,-35.6875,28.8125,0
81450,-16.25,-31.6875,28.9375,0
81470,-17.625,-32.3125,30,0
81490,-29.625,-32.875,30.375,0
81510,-32.875,-25.375,29.4375,0
81530,-27.125,-18.0625,23.8125,0
81550,-16.5,-18.125,17.125,0
81570,-10.5,-20.25,15.5,0
81590,-10.8125,-17.6875,13.5,0
81610,-12.25,-16.375,7.75,0
81630,-10.6875,-15.375,0.4375,0
81650,-5.4375,-14.25,-3.4375,0
81670,0.25,-14.25,-4.0625,0
81690,-2.5,-14.125,-6.9375,0
81710,-5.625,-12.5625,-10.125,0
81730,-2.6875,-10,-12.1875,0
81750,0,-11.375,-12.125,0
81770,-2.25,-14.5,-12.375,0
81790,-3.375,-11.375,-13.375,0
81810,-3.75,-9.5,-12.5,0
81830,-6.875,-12.9375,-13.375,0
81850,-2.875,-10.875,-9.5,0
81870,-0.625,-9.1875,-5.3125,0
81890,-4.125,-9.4375,-3.0625,0
81910,-4.3125,-8.6875,-0.125,0
81930,-4.3125,-7.875,4.1875,0
81940,-2.375,-6.9375,1.6875,0
81960,-2.75,-4.3125,1.8125,2000
81980,-0.625,-2.875,5.75,0
82000,1.1875,-0.5,6.5,0
82020,-1.125,1.9375,2,0
82040,-0.6875,-2.9375,1.625,0
82060,0.75,-6.125,2.6875,0
82080,-1.375,-8.6875,3.0625,0
82100,0.5625,-11.75,4.6875,0
82120,1.0625,-14,4.8125,0
82140,-1.6875,-15.125,1.75,0
82160,-0.1875,-16.0625,-0.25,0
82180,2,-17.4375,0.8125,0
82200,4.625,-17.75,-0.8125,0
82220,3.9375,-18.625,-1.75,0
82240,6.5,-19.9375,-1.625,0
82260,7.75,-19.8125,-4.3125,0
82280,6.875,-18.125,-5.4375,0
82300,6.6875,-17.25,-4.1875,0
82320,5.0625,-16.9375,-1,0
82340,3.625,-15.4375,-0.4375,0
82360,4.8125,-13.75,-4.375,0
82380,6.0625,-14.5,-5.9375,0
82400,6.5,-15,-4.5625,0
82420,5.9375,-15.125,-2,0
