Timestamp, Angle x, Angle y, Angle z, Marker
40,-0.745094,0.431048,-0.258134,0
60,-0.743179,0.429986,-0.257861,0
80,-0.740089,0.427923,-0.257926,0
100,-0.736357,0.426765,-0.257407,0
120,-0.734586,0.426835,-0.256699,0
140,-0.734432,0.425989,-0.257237,0
140,-0.734668,0.423034,-0.260496,0
160,-0.730144,0.422483,-0.264556,0
190,-0.727311,0.422059,-0.269919,0
210,-0.724326,0.422158,-0.275164,0
230,-0.720778,0.421146,-0.28129,0
250,-0.719405,0.421071,-0.288758,0
270,-0.716725,0.422791,-0.296184,0
290,-0.711478,0.424568,-0.302413,0
310,-0.707363,0.428067,-0.310282,0
330,-0.700847,0.431575,-0.317093,0
350,-0.693941,0.429686,-0.324558,0
370,-0.684795,0.431671,-0.33305,0
390,-0.677197,0.428665,-0.343338,0
410,-0.663407,0.428994,-0.355039,0
430,-0.648888,0.426259,-0.370656,0
450,-0.633677,0.425186,-0.388401,0
470,-0.614783,0.422902,-0.402949,0
490,-0.599924,0.422624,-0.418654,0
510,-0.598819,0.425445,-0.433175,0
530,-0.600128,0.425912,-0.443472,0
550,-0.601561,0.424436,-0.452863,0
570,-0.609667,0.422093,-0.461067,0
590,-0.619119,0.42055,-0.467962,0
610,-0.627991,0.420734,-0.467247,0
630,-0.632725,0.417301,-0.461885,0
650,-0.642418,0.415915,-0.459606,0
670,-0.641638,0.41918,-0.451579,0
690,-0.645864,0.422123,-0.442867,0
710,-0.65143,0.424455,-0.432053,0
730,-0.653946,0.425331,-0.419027,0
750,-0.657145,0.425293,-0.403589,0
770,-0.658211,0.425875,-0.383157,0
790,-0.653898,0.425344,-0.357932,0
810,-0.649353,0.423443,-0.32918,0
830,-0.648677,0.422725,-0.300386,0
850,-0.652145,0.422264,-0.274111,0
870,-0.658027,0.42046,-0.249673,0
870,-0.664073,0.417239,-0.226972,0
890,-0.669196,0.414422,-0.207565,0
910,-0.674417,0.412007,-0.191741,0
930,-0.678122,0.409901,-0.176684,0
950,-0.683892,0.41019,-0.165756,0
970,-0.688311,0.413711,-0.159267,0
990,-0.691389,0.417523,-0.153622,0
1010,-0.695308,0.421897,-0.148388,0
1030,-0.701115,0.426888,-0.144129,0
1050,-0.706334,0.432245,-0.140922,0
1070,-0.711291,0.436923,-0.139279,0
1090,-0.716367,0.440449,-0.139375,0
1110,-0.720291,0.443995,-0.14014,0
1130,-0.723214,0.447332,-0.140718,0
1150,-0.727011,0.449581,-0.142155,0
1170,-0.730051,0.451643,-0.14441,0
1190,-0.732909,0.453379,-0.147168,0
1210,-0.735466,0.455017,-0.149815,0
1230,-0.738844,0.457735,-0.152853,0
1250,-0.742171,0.460064,-0.155861,0
1270,-0.7447,0.461286,-0.158103,0
1290,-0.747305,0.461904,-0.159445,0
1300,-0.749303,0.460758,-0.159644,0
1330,-0.7512,0.461416,-0.159356,0
1350,-0.752911,0.463217,-0.159444,0
1370,-0.754077,0.4635,-0.160147,0
1390,-0.754127,0.462866,-0.16032,0
1400,-0.753729,0.462955,-0.160788,0
1420,-0.753585,0.463033,-0.160632,0
1440,-0.753691,0.462062,-0.160668,0
1460,-0.753736,0.461121,-0.16097,0
1480,-0.753354,0.460533,-0.161432,0
1500,-0.753062,0.460716,-0.16169,0
1520,-0.752593,0.461145,-0.161218,0
1540,-0.75297,0.46195,-0.160568,0
1560,-0.752438,0.462596,-0.159606,0
1580,-0.751799,0.462824,-0.158597,0
1600,-0.751247,0.463825,-0.157382,0
1620,-0.750571,0.464885,-0.156701,0
1640,-0.749529,0.465742,-0.156228,0
1660,-0.747366,0.465926,-0.155607,0
1680,-0.746274,0.466025,-0.154951,0
1700,-0.745433,0.466142,-0.154239,0
1720,-0.745048,0.465968,-0.153938,0
1740,-0.743728,0.465697,-0.153591,0
1760,-0.741775,0.465248,-0.153181,0
1780,-0.740663,0.464869,-0.152725,0
1800,-0.740298,0.464865,-0.152358,0
1820,-0.740298,0.464865,-0.152358,0
1840,-0.740166,0.464184,-0.152325,0
1860,-0.739685,0.463363,-0.151991,0
1880,-0.739074,0.462691,-0.151171,0
1900,-0.739463,0.462508,-0.150646,0
1920,-0.740514,0.461931,-0.150421,0
1940,-0.740692,0.46093,-0.150199,0
1960,-0.739714,0.459456,-0.150038,0
1980,-0.738188,0.458058,-0.150134,0
2000,-0.73734,0.456957,-0.150141,0
2020,-0.737424,0.455759,-0.150766,0
2040,-0.737699,0.454381,-0.15161,0
2060,-0.73757,0.452875,-0.152036,0
2080,-0.737116,0.451718,-0.152143,0
2100,-0.73667,0.450332,-0.152261,0
2120,-0.7363,0.448487,-0.152492,0
2140,-0.735804,0.446902,-0.152681,0
2160,-0.736246,0.446106,-0.152722,0
2180,-0.737297,0.446575,-0.152919,0
2200,-0.739145,0.447403,-0.153317,0
2220,-0.740487,0.448642,-0.153634,0
2240,-0.741507,0.450217,-0.153458,0
2260,-0.743702,0.451924,-0.153651,0
2280,-0.746165,0.454468,-0.154238,0
2300,-0.747696,0.456711,-0.154083,0
2320,-0.749764,0.459024,-0.153818,0
2340,-0.752182,0.461172,-0.153992,0
2360,-0.754005,0.462126,-0.154742,0
2380,-0.755183,0.462597,-0.155766,0
2400,-0.755014,0.46233,-0.15682,0
2420,-0.75455,0.461922,-0.157873,0
2440,-0.755124,0.460874,-0.159207,0
2460,-0.756067,0.460135,-0.160776,0
2480,-0.757133,0.459876,-0.161881,0
2500,-0.758903,0.459761,-0.162576,0
2520,-0.762108,0.459778,-0.163411,0
2540,-0.764975,0.45976,-0.164184,0
2560,-0.76748,0.460604,-0.164928,0
2580,-0.770318,0.46185,-0.165672,0
2600,-0.773427,0.462975,-0.166429,0
2620,-0.776507,0.464068,-0.167193,0
2640,-0.77882,0.464696,-0.167801,0
2660,-0.77959,0.465173,-0.16835,0
2680,-0.780064,0.465288,-0.169078,0
2700,-0.780504,0.465142,-0.16981,0
2720,-0.780823,0.465027,-0.170507,0
2740,-0.781172,0.464634,-0.171122,0
2760,-0.7813,0.464476,-0.171605,0
2780,-0.780556,0.464295,-0.172011,0
2800,-0.780417,0.463498,-0.172591,0
2820,-0.780572,0.463499,-0.172624,0
2840,-0.780526,0.463376,-0.172565,0
2860,-0.780504,0.463204,-0.172628,0
2880,-0.780504,0.463204,-0.172628,0
2900,-0.780786,0.463495,-0.172959,0
2920,-0.780941,0.463496,-0.172991,0
2940,-0.781042,0.464271,-0.172801,0
2960,-0.780978,0.464964,-0.1727,0
2980,-0.780978,0.464964,-0.1727,0
3000,-0.781179,0.465089,-0.172792,0
3020,-0.780466,0.464609,-0.172545,0
3040,-0.778794,0.46439,-0.172002,0
3060,-0.777501,0.46425,-0.171705,0
3080,-0.776405,0.463922,-0.171418,0
3100,-0.775701,0.463764,-0.171436,0
3120,-0.775328,0.463779,-0.171456,0
3140,-0.775328,0.463779,-0.171456,0
3160,-0.775316,0.463917,-0.171394,0
3180,-0.775316,0.463917,-0.171394,0
3200,-0.775316,0.463917,-0.171394,0
3220,-0.775009,0.463467,-0.171516,0
3240,-0.774335,0.462802,-0.171454,0
3260,-0.773829,0.462228,-0.171486,0
3280,-0.773227,0.46142,-0.171789,0
3300,-0.772586,0.460812,-0.172298,0
3320,-0.772173,0.460268,-0.172631,0
3340,-0.772516,0.460313,-0.172876,0
3360,-0.773048,0.460621,-0.17315,0
3380,-0.773169,0.460589,-0.173183,0
3400,-0.773309,0.460523,-0.173726,0
3420,-0.773143,0.460995,-0.174283,0
3440,-0.77249,0.461308,-0.175193,0
3460,-0.771388,0.461035,-0.176255,0
3480,-0.770422,0.460377,-0.177599,0
3500,-0.769046,0.459383,-0.178703,0
3520,-0.768136,0.458377,-0.179518,0
3540,-0.768044,0.457928,-0.179975,0
3560,-0.768044,0.457928,-0.179975,0
3580,-0.768044,0.457928,-0.179975,0
3600,-0.767231,0.45713,-0.179949,0
3620,-0.765687,0.456145,-0.179946,0
3640,-0.763598,0.455226,-0.179816,0
3660,-0.761161,0.453956,-0.179573,0
3680,-0.758436,0.451981,-0.178691,0
3700,-0.754908,0.449545,-0.177163,0
3720,-0.75107,0.447123,-0.174898,0
3740,-0.746671,0.444618,-0.172076,0
3760,-0.742057,0.442365,-0.168635,0
3780,-0.737838,0.440378,-0.164872,0
3800,-0.734802,0.438508,-0.161481,0
3820,-0.732496,0.436945,-0.158683,0
3840,-0.729474,0.435214,-0.156316,0
3860,-0.725681,0.433421,-0.154526,0
3880,-0.722157,0.432035,-0.153498,0
3900,-0.718666,0.430507,-0.15323,0
3920,-0.71535,0.428768,-0.153874,0
3940,-0.711346,0.426717,-0.154636,0
3960,-0.707342,0.424999,-0.155656,0
3980,-0.703862,0.423768,-0.156858,0
4000,-0.700403,0.423012,-0.157856,0
4020,-0.698318,0.423218,-0.158872,0
4040,-0.697081,0.424017,-0.159273,0
4060,-0.697348,0.424902,-0.159806,0
4080,-0.697901,0.425803,-0.159889,0
4100,-0.698737,0.426538,-0.160103,0
4120,-0.69904,0.42675,-0.160654,0
4140,-0.698492,0.427098,-0.161976,0
4160,-0.696942,0.427792,-0.163847,0
4180,-0.695049,0.428698,-0.165854,0
4200,-0.694204,0.429626,-0.168244,0
4220,-0.695024,0.430426,-0.170995,0
4240,-0.696565,0.430578,-0.173964,0
4260,-0.697595,0.431713,-0.177295,0
4280,-0.698884,0.431384,-0.18054,0
4300,-0.699077,0.43197,-0.183074,0
4320,-0.699333,0.431884,-0.185231,0
4340,-0.697589,0.430081,-0.187416,0
4360,-0.695088,0.428439,-0.191187,0
4380,-0.691699,0.42686,-0.195174,0
4400,-0.688904,0.424886,-0.199158,0
4420,-0.686881,0.422895,-0.203591,0
4440,-0.685008,0.420584,-0.207807,0
4460,-0.682255,0.419031,-0.210642,0
4480,-0.679287,0.418061,-0.21219,0
4500,-0.677048,0.418678,-0.213836,0
4520,-0.673888,0.420675,-0.216174,0
4540,-0.669188,0.423475,-0.219593,0
4560,-0.66291,0.428152,-0.223677,0
4580,-0.657657,0.434002,-0.227767,0
4600,-0.655512,0.439894,-0.231459,0
4620,-0.654892,0.444698,-0.234619,0
4640,-0.65391,0.448504,-0.237588,0
4660,-0.652792,0.450154,-0.240138,0
4680,-0.652639,0.450439,-0.243221,0
4700,-0.65315,0.449432,-0.245899,0
4720,-0.654392,0.44672,-0.248687,0
4740,-0.654774,0.444215,-0.251958,0
4760,-0.654056,0.442282,-0.255678,0
4780,-0.655772,0.439562,-0.259758,0
4790,-0.656858,0.43706,-0.265337,0
4810,-0.656059,0.433955,-0.27071,0
4830,-0.652845,0.431024,-0.274325,0
4850,-0.650277,0.429227,-0.277091,0
4870,-0.650075,0.427548,-0.278666,0
4890,-0.64994,0.425882,-0.27894,0
4910,-0.648518,0.424922,-0.278361,0
4930,-0.645199,0.425054,-0.276093,0
4950,-0.639461,0.424123,-0.272956,0
4970,-0.634638,0.423693,-0.271431,0
4990,-0.630516,0.424809,-0.270373,0
5010,-0.630912,0.427327,-0.269918,0
5030,-0.630709,0.429292,-0.271077,0
5050,-0.628988,0.430355,-0.27324,0
5070,-0.624652,0.429963,-0.27604,0
5090,-0.617692,0.430553,-0.277055,0
5110,-0.610457,0.429667,-0.278669,0
5130,-0.60205,0.427867,-0.279551,0
5150,-0.593683,0.426511,-0.28007,0
5170,-0.585734,0.425754,-0.279215,0
5190,-0.579099,0.425038,-0.278328,0
5210,-0.570504,0.426003,-0.277624,0
5230,-0.561816,0.427785,-0.276889,0
5250,-0.555224,0.428728,-0.276801,0
5270,-0.550967,0.430079,-0.276917,0
5290,-0.550614,0.431764,-0.278257,0
5310,-0.551393,0.432993,-0.278842,0
5330,-0.553386,0.430411,-0.275427,0
5350,-0.551095,0.419325,-0.268812,0
5370,-0.541055,0.409006,-0.25749,0
5390,-0.528047,0.398068,-0.241452,0
5410,-0.522914,0.392508,-0.226658,0
5430,-0.523009,0.394248,-0.217391,0
5450,-0.531104,0.394854,-0.216832,0
5470,-0.544776,0.392457,-0.226346,0
5490,-0.556157,0.387291,-0.236437,0
5510,-0.562024,0.386612,-0.248966,0
5530,-0.570254,0.389004,-0.261355,0
5550,-0.574195,0.392739,-0.272303,0
5570,-0.580548,0.397341,-0.285709,0
5590,-0.587547,0.40612,-0.298388,0
5610,-0.585504,0.414719,-0.308421,0
5630,-0.576646,0.418981,-0.31656,0
5650,-0.560269,0.420861,-0.318167,0
5670,-0.549191,0.420589,-0.318363,0
5690,-0.549695,0.42011,-0.322244,0
5710,-0.557979,0.420223,-0.33053,0
5730,-0.565372,0.41946,-0.340159,0
5750,-0.567249,0.418312,-0.345887,0
5770,-0.564627,0.417577,-0.347965,0
5790,-0.561372,0.416956,-0.348097,0
5810,-0.55938,0.41349,-0.348553,0
5830,-0.557316,0.412201,-0.349826,0
5850,-0.553023,0.413026,-0.348074,0
5870,-0.550198,0.415278,-0.34363,0
5890,-0.550956,0.417979,-0.337127,0
5910,-0.55487,0.422678,-0.329986,0
5930,-0.559979,0.428234,-0.322789,0
5950,-0.562939,0.43343,-0.3148,0
5970,-0.566109,0.437871,-0.307802,0
5990,-0.5703,0.439339,-0.302732,0
6010,-0.571737,0.437911,-0.298999,0
6030,-0.570639,0.435208,-0.296006,0
6050,-0.568355,0.432652,-0.294324,0
6070,-0.566622,0.430351,-0.293526,0
6090,-0.565187,0.427839,-0.293,0
6110,-0.56466,0.425356,-0.292986,0
6130,-0.56487,0.422874,-0.292769,0
6150,-0.565352,0.420563,-0.29241,0
6170,-0.564527,0.418004,-0.291779,0
6190,-0.562985,0.415122,-0.291127,0
6210,-0.562874,0.411772,-0.292376,0
6230,-0.564375,0.40945,-0.294617,0
6250,-0.564599,0.408469,-0.296309,0
6270,-0.563843,0.406954,-0.297205,0
6290,-0.56341,0.405206,-0.299013,0
6310,-0.564837,0.404882,-0.302379,0
6330,-0.567951,0.406136,-0.306547,0
6350,-0.573118,0.408086,-0.310416,0
6370,-0.580629,0.409844,-0.314449,0
6390,-0.588683,0.412401,-0.318779,0
6410,-0.596677,0.414986,-0.323654,0
6430,-0.604955,0.417108,-0.327962,0
6450,-0.613576,0.420335,-0.331992,0
6470,-0.623561,0.423481,-0.336666,0
6490,-0.635666,0.425661,-0.342534,0
6510,-0.64426,0.425916,-0.346802,0
6530,-0.645885,0.421595,-0.348427,0
6550,-0.641968,0.415095,-0.347111,0
6570,-0.636037,0.407589,-0.345459,0
6590,-0.628055,0.399068,-0.34534,0
6610,-0.625207,0.39175,-0.34714,0
6630,-0.621672,0.3871,-0.347893,0
6650,-0.618742,0.384598,-0.347468,0
6670,-0.616765,0.383529,-0.346344,0
6690,-0.616741,0.383505,-0.345146,0
6710,-0.618142,0.384769,-0.34384,0
6730,-0.618917,0.386894,-0.342281,0
6750,-0.617567,0.388591,-0.340574,0
6760,-0.615686,0.389193,-0.339265,0
6780,-0.613674,0.389356,-0.338954,0
6800,-0.612265,0.389907,-0.339053,0
6820,-0.610319,0.390286,-0.338835,0
6840,-0.608551,0.390174,-0.338614,0
6850,-0.606239,0.389415,-0.338433,0
6870,-0.603777,0.387939,-0.338369,0
6890,-0.601201,0.386828,-0.338534,0
6910,-0.600395,0.386149,-0.339017,0
6930,-0.600199,0.385823,-0.340168,0
6950,-0.600946,0.385883,-0.342072,0
6970,-0.601846,0.386595,-0.343974,0
6990,-0.60237,0.388043,-0.345774,0
7010,-0.604521,0.389863,-0.347455,0
7030,-0.606529,0.391221,-0.34947,0
7050,-0.607602,0.392708,-0.351824,0
7070,-0.607306,0.393767,-0.354344,0
7090,-0.606702,0.394802,-0.357168,0
7110,-0.605914,0.395667,-0.360023,0
7130,-0.606587,0.39692,-0.362986,0
7150,-0.607772,0.398115,-0.365932,0
7170,-0.609087,0.398716,-0.368448,0
7190,-0.610073,0.399668,-0.370347,0
7210,-0.610666,0.400378,-0.371928,0
7230,-0.611233,0.400355,-0.373644,0
7250,-0.611333,0.39962,-0.375252,0
7270,-0.612104,0.398776,-0.376994,0
7290,-0.612752,0.398229,-0.378549,0
7310,-0.613577,0.397851,-0.379549,0
7330,-0.614224,0.397585,-0.379754,0
7350,-0.614154,0.398071,-0.379512,0
7370,-0.612392,0.398784,-0.378651,0
7390,-0.611243,0.398944,-0.377621,0
7410,-0.610701,0.399165,-0.376765,0
7430,-0.609229,0.399107,-0.375708,0
7450,-0.606981,0.398758,-0.375007,0
7470,-0.604353,0.398172,-0.374518,0
7490,-0.602025,0.397072,-0.374196,0
7510,-0.5992,0.395334,-0.374054,0
7530,-0.595738,0.393101,-0.373982,0
7550,-0.591979,0.390677,-0.373385,0
7570,-0.589595,0.38866,-0.372626,0
7590,-0.588304,0.387079,-0.37164,0
7610,-0.588665,0.386019,-0.369935,0
7630,-0.589454,0.384998,-0.367828,0
7650,-0.589468,0.385026,-0.365749,0
7670,-0.58879,0.385767,-0.363345,0
7690,-0.587404,0.386301,-0.360959,0
7710,-0.586776,0.386975,-0.358806,0
7730,-0.585844,0.388094,-0.356596,0
7750,-0.585913,0.389422,-0.354574,0
7770,-0.585769,0.391443,-0.352599,0
7790,-0.587227,0.393679,-0.351096,0
7810,-0.58942,0.396033,-0.349821,0
7830,-0.593556,0.398129,-0.349215,0
7850,-0.598005,0.400427,-0.349161,0
7870,-0.60301,0.402966,-0.349998,0
7890,-0.606725,0.405677,-0.351233,0
7910,-0.609157,0.40773,-0.353094,0
7930,-0.611086,0.408874,-0.354913,0
7950,-0.613299,0.409921,-0.35691,0
7970,-0.615105,0.41018,-0.35905,0
7990,-0.616502,0.410227,-0.361269,0
8010,-0.61755,0.410303,-0.362762,0
8030,-0.619169,0.410705,-0.364512,0
8050,-0.621295,0.411242,-0.366051,0
8070,-0.623705,0.412384,-0.367624,0
8090,-0.626398,0.413688,-0.369069,0
8110,-0.628129,0.41474,-0.370179,0
8130,-0.629471,0.416003,-0.370988,0
8150,-0.630859,0.417097,-0.371232,0
8170,-0.632445,0.418106,-0.371761,0
8190,-0.632774,0.41887,-0.372259,0
8210,-0.633155,0.419758,-0.372814,0
8230,-0.632823,0.420275,-0.373044,0
8250,-0.632124,0.420029,-0.373164,0
8270,-0.631072,0.419473,-0.373204,0
8290,-0.629631,0.418063,-0.373095,0
8310,-0.628072,0.416123,-0.373027,0
8330,-0.625792,0.413974,-0.372963,0
8350,-0.622109,0.412916,-0.372525,0
8370,-0.619148,0.411557,-0.37204,0
8390,-0.616563,0.410599,-0.371677,0
8410,-0.613631,0.409524,-0.371048,0
8430,-0.610861,0.408716,-0.3703,0
8450,-0.608798,0.408344,-0.369755,0
8470,-0.607892,0.407927,-0.368717,0
8490,-0.608719,0.407411,-0.367834,0
8510,-0.60916,0.407226,-0.367232,0
8530,-0.608408,0.406989,-0.366556,0
8550,-0.606943,0.406352,-0.366084,0
8570,-0.604772,0.405957,-0.365641,0
8590,-0.602246,0.404926,-0.365026,0
8610,-0.599753,0.404503,-0.364362,0
8630,-0.5979,0.404642,-0.363669,0
8650,-0.597167,0.405193,-0.362884,0
8670,-0.597079,0.405161,-0.362063,0
8690,-0.597431,0.405242,-0.361261,0
8710,-0.599125,0.405326,-0.360156,0
8730,-0.601856,0.406353,-0.359119,0
8750,-0.605525,0.407415,-0.358601,0
8770,-0.608003,0.408803,-0.358287,0
8790,-0.609077,0.409867,-0.357887,0
8810,-0.609871,0.41068,-0.358111,0
8830,-0.610338,0.41114,-0.358531,0
8850,-0.611714,0.41141,-0.358984,0
8870,-0.61411,0.411889,-0.35965,0
8890,-0.616878,0.412838,-0.360322,0
8910,-0.620001,0.414233,-0.360849,0
8930,-0.623182,0.415334,-0.360901,0
8950,-0.625926,0.416898,-0.360877,0
8970,-0.628541,0.419059,-0.360772,0
8990,-0.631138,0.421062,-0.360743,0
9010,-0.633731,0.4231,-0.361125,0
9030,-0.635037,0.425116,-0.361155,0
9050,-0.636184,0.426793,-0.36142,0
9070,-0.637025,0.427505,-0.361909,0
9090,-0.637275,0.427279,-0.362557,0
9110,-0.637147,0.426582,-0.363189,0
9130,-0.636605,0.425701,-0.363517,0
9150,-0.636154,0.425015,-0.363401,0
9170,-0.636954,0.424475,-0.363953,0
9190,-0.63734,0.424361,-0.36455,0
9210,-0.637534,0.424472,-0.364638,0
9230,-0.638692,0.424671,-0.36437,0
9250,-0.639541,0.425004,-0.363801,0
9270,-0.639624,0.425522,-0.363082,0
9290,-0.639145,0.425703,-0.362623,0
9310,-0.637866,0.425259,-0.362247,0
9330,-0.636407,0.424258,-0.362141,0
9350,-0.634712,0.422634,-0.36228,0
9370,-0.633615,0.420658,-0.362981,0
9390,-0.632261,0.417973,-0.363887,0
9410,-0.630669,0.415125,-0.364541,0
9430,-0.627364,0.412405,-0.365052,0
9450,-0.623662,0.409573,-0.365165,0
9470,-0.620285,0.407034,-0.364687,0
9490,-0.617821,0.405416,-0.36334,0
9510,-0.618321,0.404498,-0.362096,0
9530,-0.618702,0.403944,-0.360555,0
9550,-0.619137,0.403834,-0.359316,0
9570,-0.618541,0.404058,-0.35832,0
9590,-0.61707,0.403865,-0.357342,0
9610,-0.615436,0.403462,-0.356517,0
9630,-0.613468,0.402938,-0.355953,0
9650,-0.611391,0.402136,-0.355796,0
9670,-0.609294,0.401178,-0.355713,0
9690,-0.608197,0.400148,-0.355993,0
9710,-0.607444,0.399496,-0.35623,0
9730,-0.607583,0.399482,-0.35626,0
9750,-0.607583,0.399482,-0.35626,0
9770,-0.607749,0.399434,-0.356415,0
9790,-0.607749,0.399434,-0.356415,0
9810,-0.607701,0.399311,-0.356361,0
9830,-0.608801,0.399255,-0.356099,0
9850,-0.608635,0.399303,-0.355944,0
9870,-0.609079,0.399161,-0.35627,0
9890,-0.609937,0.399102,-0.356601,0
9910,-0.611301,0.398989,-0.35691,0
9930,-0.612373,0.399004,-0.35745,0
9950,-0.611734,0.39869,-0.357834,0
9970,-0.610473,0.398094,-0.358091,0
9990,-0.609767,0.397566,-0.358382,0
10010,-0.609683,0.397321,-0.358801,0
10030,-0.611394,0.397968,-0.359198,0
10050,-0.611796,0.399962,-0.358951,0
10070,-0.612788,0.401932,-0.358839,0
10090,-0.613931,0.403721,-0.358582,0
10110,-0.615891,0.404885,-0.358447,0
10130,-0.617016,0.405499,-0.358167,0
10150,-0.617039,0.405656,-0.358097,0
10160,-0.617039,0.405656,-0.358097,0
10180,-0.616683,0.40512,-0.358734,0
10200,-0.615814,0.404255,-0.359257,0
10220,-0.615459,0.403209,-0.359846,0
10240,-0.615952,0.401846,-0.360549,0
10260,-0.616224,0.400383,-0.361416,0
10280,-0.614045,0.398801,-0.362141,0
10300,-0.612093,0.397453,-0.362483,0
10320,-0.6124,0.397133,-0.362976,0
10340,-0.614298,0.399096,-0.36336,0
10360,-0.616292,0.402198,-0.363516,0
10380,-0.617975,0.405846,-0.36406,0
10400,-0.620018,0.409237,-0.364609,0
10420,-0.623401,0.411845,-0.36498,0
10440,-0.625587,0.412438,-0.365248,0
10460,-0.625422,0.41159,-0.365428,0
10480,-0.623396,0.409828,-0.366366,0
10500,-0.619706,0.407675,-0.367393,0
10520,-0.618196,0.404904,-0.368778,0
10540,-0.617455,0.402404,-0.37033,0
10560,-0.617864,0.400476,-0.371728,0
10580,-0.617955,0.40101,-0.372599,0
10600,-0.618798,0.402065,-0.372796,0
10620,-0.621278,0.403636,-0.37374,0
10640,-0.624233,0.406113,-0.37461,0
10660,-0.625964,0.409151,-0.374702,0
10680,-0.626964,0.411792,-0.374467,0
10700,-0.628551,0.414046,-0.373861,0
10720,-0.630294,0.414688,-0.372844,0
10740,-0.630936,0.414235,-0.371273,0
10760,-0.630561,0.412998,-0.370069,0
10780,-0.628883,0.410913,-0.369658,0
10800,-0.625567,0.408207,-0.369653,0
10820,-0.621658,0.405123,-0.369764,0
10840,-0.617905,0.402606,-0.369863,0
10860,-0.616217,0.400849,-0.370119,0
10880,-0.616995,0.400377,-0.370024,0
10900,-0.619261,0.400889,-0.370134,0
10920,-0.62201,0.402081,-0.369957,0
10940,-0.624045,0.403835,-0.369535,0
10960,-0.625509,0.405943,-0.369092,0
10980,-0.626853,0.406753,-0.368947,0
11000,-0.627665,0.407722,-0.368584,0
11020,-0.627936,0.408204,-0.368172,0
11040,-0.627796,0.408218,-0.368142,0
11060,-0.627712,0.408038,-0.368445,0
11080,-0.627684,0.408005,-0.368432,0
11100,-0.627803,0.4079,-0.36842,0
11120,-0.627801,0.407833,-0.368532,0
11140,-0.627801,0.407833,-0.368532,0
11160,-0.628715,0.407892,-0.368924,0
11180,-0.629907,0.408048,-0.369295,0
11200,-0.630543,0.407943,-0.369822,0
11220,-0.6299,0.407695,-0.370086,0
11240,-0.628039,0.407259,-0.369968,0
11260,-0.625461,0.406748,-0.369629,0
11280,-0.623569,0.40603,-0.36914,0
11300,-0.622985,0.405296,-0.36912,0
11320,-0.622959,0.40533,-0.368994,0
11340,-0.623378,0.405219,-0.369196,0
11360,-0.624261,0.405506,-0.369266,0
11380,-0.625261,0.405619,-0.369436,0
11400,-0.625236,0.405394,-0.369617,0
11420,-0.624649,0.405781,-0.369993,0
11440,-0.625135,0.406495,-0.370637,0
11460,-0.625807,0.407375,-0.371397,0
11480,-0.626433,0.408267,-0.371878,0
11500,-0.626375,0.40888,-0.372084,0
11520,-0.627167,0.409497,-0.371987,0
11540,-0.62877,0.409893,-0.371241,0
11560,-0.630145,0.409422,-0.370909,0
11580,-0.627234,0.409938,-0.370848,0
11600,-0.625907,0.409413,-0.370836,0
11620,-0.626375,0.409776,-0.371748,0
11640,-0.627162,0.410041,-0.372444,0
11660,-0.626843,0.411647,-0.37267,0
11680,-0.625813,0.412817,-0.372688,0
11700,-0.627361,0.414312,-0.372581,0
11720,-0.630284,0.4152,-0.372371,0
11740,-0.632115,0.415353,-0.372123,0
11760,-0.631811,0.41468,-0.37167,0
11780,-0.630209,0.413388,-0.371297,0
11800,-0.629183,0.411675,-0.371067,0
11820,-0.627595,0.410701,-0.370951,0
11840,-0.626276,0.409438,-0.370677,0
11860,-0.625109,0.408546,-0.370573,0
11880,-0.624418,0.407054,-0.370386,0
11900,-0.623566,0.405487,-0.370128,0
11920,-0.624054,0.40396,-0.369978,0
11940,-0.624818,0.403014,-0.370232,0
11960,-0.625188,0.401885,-0.370715,0
11980,-0.624796,0.400107,-0.371426,0
12000,-0.623377,0.398445,-0.371652,0
12020,-0.621711,0.396654,-0.372032,0
12040,-0.620093,0.39537,-0.372079,0
12060,-0.618748,0.394375,-0.371907,0
12080,-0.61756,0.393838,-0.371415,0
12100,-0.616657,0.393845,-0.370921,0
12120,-0.616608,0.393722,-0.370866,0
12140,-0.616485,0.393767,-0.370324,0
12150,-0.615965,0.394014,-0.369623,0
12170,-0.615325,0.394115,-0.368576,0
12190,-0.613984,0.393784,-0.366669,0
12210,-0.610727,0.392036,-0.364312,0
12230,-0.607371,0.389182,-0.362081,0
12250,-0.603513,0.385844,-0.36036,0
12270,-0.599073,0.381084,-0.359205,0
12290,-0.596794,0.375041,-0.357906,0
12310,-0.59518,0.367317,-0.35661,0
12330,-0.594527,0.357333,-0.356493,0
12350,-0.591621,0.346221,-0.355111,0
12370,-0.588735,0.332883,-0.354733,0
12390,-0.585109,0.318039,-0.354665,0
12410,-0.581425,0.307146,-0.353726,0
12430,-0.579112,0.29484,-0.352007,0
12450,-0.578767,0.279178,-0.347821,0
12470,-0.58065,0.261854,-0.340173,0
12490,-0.57851,0.243558,-0.330233,0
12510,-0.57619,0.226194,-0.321415,0
12530,-0.574581,0.208097,-0.311781,0
12550,-0.57875,0.187815,-0.302091,0
12570,-0.585062,0.166633,-0.292212,0
12590,-0.591976,0.145719,-0.281477,0
12610,-0.598585,0.12613,-0.269326,0
12630,-0.604287,0.107816,-0.257129,0
12650,-0.609926,0.0903349,-0.245485,0
12670,-0.617467,0.0735102,-0.233846,0
12690,-0.62649,0.0573731,-0.22188,0
12710,-0.634528,0.0424156,-0.210484,0
12730,-0.642063,0.0293584,-0.19917,0
12750,-0.650722,0.0187469,-0.188234,0
12770,-0.660474,0.0106159,-0.178724,0
12790,-0.669441,0.00387014,-0.170472,0
12810,-0.678128,-0.00117359,-0.163509,0
12830,-0.68776,-0.00387188,-0.162299,0
12850,-0.700196,-0.00809276,-0.162147,0
12870,-0.708575,-0.0100478,-0.159548,0
12890,-0.713692,-0.011002,-0.157493,0
12910,-0.719944,-0.0123909,-0.154638,0
12930,-0.727827,-0.0149939,-0.153956,0
12950,-0.740799,-0.0199167,-0.157201,0
12970,-0.749077,-0.0258541,-0.160174,0
12990,-0.754244,-0.0301916,-0.165017,0
13010,-0.761696,-0.0360766,-0.172441,0
13030,-0.7712,-0.0428045,-0.180601,0
13050,-0.78162,-0.0512689,-0.188312,0
13070,-0.792551,-0.0600247,-0.197862,0
13090,-0.801619,-0.0688145,-0.208287,0
13110,-0.81063,-0.0782574,-0.219627,0
13130,-0.827391,-0.0894049,-0.232417,0
13150,-0.845208,-0.0997761,-0.243087,0
13170,-0.864382,-0.10501,-0.251816,0
13190,-0.880527,-0.10792,-0.26137,0
13210,-0.897071,-0.111295,-0.26828,0
13230,-0.916714,-0.11235,-0.274177,0
13250,-0.94285,-0.111954,-0.275972,0
13270,-0.966903,-0.112575,-0.274773,0
13290,-0.984399,-0.115287,-0.27307,0
13310,-1.00065,-0.120335,-0.272458,0
13330,-1.01552,-0.126092,-0.273218,0
13350,-1.02771,-0.133279,-0.273213,0
13370,-1.03846,-0.14147,-0.272136,0
13370,-1.03846,-0.14147,-0.272136,0
13380,-0.880527,-0.10792,-0.26137,0
13410,-1.04795,-0.150104,-0.26972,0
13430,-1.05884,-0.156764,-0.268794,0
13450,-1.06768,-0.161245,-0.270521,0
13470,-1.0734,-0.163479,-0.269632,0
13490,-1.07879,-0.166704,-0.264825,0
13510,-1.08628,-0.169131,-0.262323,0
13530,-1.0968,-0.168933,-0.262408,0
13550,-1.10936,-0.168813,-0.261991,0
13570,-1.12341,-0.169697,-0.257748,0
13590,-1.13992,-0.173592,-0.252553,0
13610,-1.15403,-0.177967,-0.248188,0
13630,-1.16236,-0.182925,-0.244751,0
13650,-1.17085,-0.188801,-0.241557,0
13670,-1.17805,-0.194794,-0.237336,0
13690,-1.18178,-0.201039,-0.235508,0
13710,-1.18355,-0.206809,-0.231789,0
13730,-1.18508,-0.21307,-0.226682,0
13750,-1.18497,-0.219253,-0.222104,0
13770,-1.18443,-0.225842,-0.218029,0
13790,-1.18202,-0.23336,-0.21583,0
13810,-1.1789,-0.243027,-0.212884,0
13830,-1.17736,-0.25444,-0.209031,0
13850,-1.17718,-0.265675,-0.206277,0
13870,-1.17654,-0.274522,-0.20514,0
13890,-1.17908,-0.28141,-0.20041,0
13910,-1.18311,-0.28629,-0.194912,0
13930,-1.18472,-0.289046,-0.188294,0
13950,-1.18825,-0.289322,-0.180104,0
13970,-1.19736,-0.288221,-0.172356,0
13990,-1.20763,-0.283747,-0.166631,0
14010,-1.22001,-0.27693,-0.162694,0
14030,-1.23176,-0.268278,-0.158788,0
14050,-1.24531,-0.258669,-0.153711,0
14070,-1.25343,-0.251201,-0.149874,0
14090,-1.26041,-0.246644,-0.145597,0
14110,-1.26353,-0.24234,-0.141742,0
14130,-1.26779,-0.239758,-0.13733,0
14150,-1.27143,-0.238893,-0.133547,0
14170,-1.27391,-0.239252,-0.13126,0
14190,-1.27469,-0.240186,-0.129279,0
14210,-1.27447,-0.241545,-0.126435,0
14230,-1.27529,-0.243841,-0.124853,0
14250,-1.27567,-0.24576,-0.124481,0
14270,-1.27636,-0.246321,-0.123866,0
14290,-1.27653,-0.246527,-0.123698,0
14310,-1.27728,-0.245608,-0.123536,0
14330,-1.27975,-0.243614,-0.122817,0
14350,-1.28266,-0.242209,-0.122386,0
14370,-1.28465,-0.240675,-0.121978,0
14390,-1.28653,-0.239681,-0.121508,0
14410,-1.28822,-0.238875,-0.121528,0
14430,-1.28925,-0.237333,-0.121509,0
14450,-1.29107,-0.235996,-0.121615,0
14470,-1.29332,-0.23488,-0.122123,0
14490,-1.29508,-0.234113,-0.123193,0
14510,-1.29603,-0.233386,-0.125087,0
14530,-1.29615,-0.232902,-0.127451,0
14550,-1.29533,-0.23293,-0.130277,0
14570,-1.29442,-0.232948,-0.132514,0
14590,-1.29433,-0.232956,-0.133753,0
14610,-1.29427,-0.233487,-0.135078,0
14630,-1.29375,-0.233803,-0.135798,0
14650,-1.29372,-0.234099,-0.13619,0
14670,-1.2934,-0.233884,-0.136381,0
14690,-1.29339,-0.232693,-0.13602,0
14710,-1.29467,-0.231715,-0.135284,0
14730,-1.29503,-0.230814,-0.134224,2000
14750,-1.29447,-0.230491,-0.133102,0
14770,-1.29471,-0.230742,-0.131972,0
14790,-1.29672,-0.230258,-0.129721,0
14810,-1.29886,-0.230059,-0.128032,0
14830,-1.30034,-0.230457,-0.126846,0
14850,-1.30055,-0.231496,-0.126349,0
14870,-1.29983,-0.232403,-0.125866,0
14890,-1.29946,-0.232733,-0.124558,0
14910,-1.30058,-0.233436,-0.122237,0
14930,-1.30053,-0.234298,-0.120953,0
14950,-1.30032,-0.235283,-0.120069,0
14970,-1.3,-0.236351,-0.118507,0
14990,-1.30034,-0.236644,-0.116413,0
15010,-1.30034,-0.236565,-0.114293,0
15030,-1.29987,-0.236231,-0.111921,0
15050,-1.30133,-0.235728,-0.108766,0
15070,-1.30215,-0.235318,-0.106061,0
15090,-1.30273,-0.235158,-0.102729,0
15110,-1.30399,-0.235689,-0.0989654,0
15130,-1.30513,-0.236841,-0.095026,0
15150,-1.30552,-0.238479,-0.0912596,0
15170,-1.30646,-0.240397,-0.0867516,0
15190,-1.30732,-0.243023,-0.082178,0
15210,-1.30779,-0.246107,-0.077469,0
15230,-1.30891,-0.248586,-0.071849,0
15250,-1.3098,-0.251823,-0.0666593,0
15270,-1.30922,-0.255676,-0.061105,0
15290,-1.31035,-0.259261,-0.0545122,0
15310,-1.31278,-0.262792,-0.0476326,0
15330,-1.31489,-0.26608,-0.0411021,0
15350,-1.3168,-0.269119,-0.0350881,0
15370,-1.31905,-0.271494,-0.0287693,0
15390,-1.32143,-0.273718,-0.0228458,0
15410,-1.32194,-0.277133,-0.0179388,0
15430,-1.32222,-0.281002,-0.0128442,0
15450,-1.32344,-0.285034,-0.00720831,0
15470,-1.32342,-0.289576,-0.00321008,0
15490,-1.32184,-0.294529,0.00043319,0
15510,-1.32087,-0.299875,0.00427566,0
15530,-1.32072,-0.306016,0.00762417,0
15550,-1.31966,-0.312809,0.0104029,0
15560,-1.31792,-0.320233,0.0128835,0
15580,-1.31609,-0.327606,0.0156185,0
15600,-1.31441,-0.335084,0.0172228,0
15620,-1.31199,-0.342897,0.0176666,0
15640,-1.30872,-0.350274,0.0179144,0
15660,-1.30551,-0.357371,0.0185308,0
15680,-1.30258,-0.364756,0.0186032,0
15700,-1.29956,-0.371327,0.0180588,0
15720,-1.29728,-0.376319,0.0176634,0
15740,-1.29616,-0.381234,0.0175723,0
15760,-1.29438,-0.386216,0.0172602,0
15780,-1.29164,-0.390563,0.0165734,0
15800,-1.29002,-0.39531,0.0163886,0
15820,-1.28868,-0.400101,0.0159831,0
15840,-1.2873,-0.40397,0.0153379,0
15860,-1.28534,-0.408056,0.0147084,0
15880,-1.28383,-0.413676,0.0150231,0
15900,-1.28208,-0.419582,0.0153211,0
15920,-1.27936,-0.425722,0.0146743,0
15940,-1.27716,-0.431306,0.0138307,0
15960,-1.276,-0.437322,0.0130406,0
15980,-1.27376,-0.442958,0.0112605,0
16000,-1.27069,-0.448347,0.00940259,0
16020,-1.26809,-0.453797,0.00754291,0
16040,-1.26591,-0.459368,0.00475577,0
16060,-1.2624,-0.465724,0.000348125,0
16080,-1.25871,-0.472167,-0.00425145,0
16100,-1.25488,-0.478429,-0.0097611,0
16120,-1.25106,-0.484939,-0.0160791,0
16140,-1.2473,-0.491552,-0.0234314,0
16160,-1.24241,-0.49832,-0.0315835,0
16180,-1.23683,-0.505533,-0.0408534,0
16200,-1.22989,-0.512756,-0.0517201,0
16220,-1.22245,-0.519948,-0.0632622,0
16240,-1.21524,-0.526831,-0.0748752,0
16260,-1.20775,-0.533769,-0.0874637,0
16280,-1.19985,-0.541212,-0.10064,0
16300,-1.1921,-0.548021,-0.114559,0
16320,-1.18384,-0.554424,-0.128909,0
16340,-1.17583,-0.559876,-0.144168,0
16360,-1.16683,-0.564805,-0.159446,0
16380,-1.15799,-0.569525,-0.174536,0
16400,-1.14977,-0.574898,-0.189862,0
16420,-1.14116,-0.580606,-0.205357,0
16440,-1.13304,-0.586625,-0.220162,0
16460,-1.12448,-0.592985,-0.234969,0
16480,-1.11608,-0.599087,-0.249248,0
16500,-1.10879,-0.605386,-0.262782,0
16520,-1.10082,-0.612309,-0.277083,0
16540,-1.09238,-0.619351,-0.290603,0
16560,-1.08474,-0.626442,-0.303007,0
16580,-1.07779,-0.6341,-0.315868,0
16600,-1.07032,-0.641578,-0.329538,0
16620,-1.06297,-0.648797,-0.343373,0
16640,-1.05461,-0.655994,-0.357661,0
16660,-1.04652,-0.66167,-0.371876,0
16680,-1.03677,-0.666187,-0.387258,0
16700,-1.02719,-0.670341,-0.402178,0
16720,-1.01744,-0.67386,-0.416801,0
16740,-1.00848,-0.676574,-0.430709,0
16760,-1.00056,-0.678323,-0.444415,0
16780,-0.992687,-0.678979,-0.457341,0
16800,-0.986241,-0.678067,-0.467978,0
16820,-0.980812,-0.677333,-0.479274,0
16840,-0.975336,-0.675603,-0.491176,0
16860,-0.970966,-0.672507,-0.501472,0
16880,-0.965359,-0.670484,-0.511143,0
16900,-0.958952,-0.668878,-0.519919,0
16920,-0.952187,-0.668149,-0.528081,0
16940,-0.946394,-0.668117,-0.53727,0
16960,-0.941643,-0.66749,-0.545708,0
16980,-0.937123,-0.665989,-0.553477,0
17000,-0.934085,-0.663469,-0.560859,0
17020,-0.93196,-0.659213,-0.567558,0
17040,-0.92898,-0.654472,-0.575075,0
17060,-0.925726,-0.649327,-0.581363,0
17080,-0.922323,-0.64412,-0.586438,0
17100,-0.919072,-0.638482,-0.591121,0
17120,-0.91672,-0.632589,-0.596693,0
17140,-0.915264,-0.625702,-0.601061,0
17160,-0.914769,-0.618388,-0.604146,0
17180,-0.914725,-0.610261,-0.605986,0
17200,-0.915021,-0.601553,-0.605485,0
17220,-0.916925,-0.593565,-0.603967,0
17240,-0.91983,-0.586176,-0.602202,0
17260,-0.923703,-0.578812,-0.599253,0
17280,-0.927249,-0.571254,-0.596486,0
17300,-0.931574,-0.563546,-0.5939,0
17320,-0.935644,-0.555609,-0.590852,0
17340,-0.939613,-0.547835,-0.587209,0
17360,-0.943696,-0.5408,-0.584074,0
17380,-0.947881,-0.533565,-0.5803,0
17400,-0.950776,-0.526293,-0.576388,0
17420,-0.95362,-0.519629,-0.572129,0
17440,-0.956133,-0.513657,-0.568072,0
17460,-0.958962,-0.508204,-0.563526,0
17480,-0.962137,-0.502958,-0.558784,0
17500,-0.965692,-0.497836,-0.553585,0
17510,-0.968046,-0.493559,-0.547979,0
17530,-0.970171,-0.489896,-0.542142,0
17550,-0.972072,-0.486931,-0.53569,0
17570,-0.974693,-0.483913,-0.529669,0
17590,-0.977112,-0.48042,-0.524167,0
17610,-0.980701,-0.477547,-0.517598,0
17630,-0.98426,-0.474558,-0.510557,0
17650,-0.987919,-0.471974,-0.50401,0
17670,-0.99149,-0.469383,-0.497741,0
17690,-0.994936,-0.466312,-0.491747,0
17710,-0.998717,-0.462542,-0.484894,0
17730,-1.00275,-0.459263,-0.477787,0
17750,-1.00686,-0.455866,-0.471193,0
17770,-1.01178,-0.452325,-0.464163,0
17790,-1.01656,-0.448818,-0.456853,0
17810,-1.02117,-0.445185,-0.449466,0
17830,-1.02581,-0.441409,-0.441896,0
17850,-1.03068,-0.437688,-0.433399,0
17870,-1.03614,-0.434581,-0.424226,0
17890,-1.04142,-0.431301,-0.415168,0
17910,-1.0463,-0.427751,-0.405723,0
17930,-1.05099,-0.424997,-0.395864,0
17950,-1.05601,-0.422468,-0.385576,0
17970,-1.06123,-0.419917,-0.375014,0
17990,-1.06659,-0.417574,-0.363819,0
18010,-1.07179,-0.41577,-0.353009,0
18030,-1.07588,-0.41441,-0.342334,0
18050,-1.07982,-0.413706,-0.331443,0
18070,-1.08409,-0.412819,-0.320641,0
18090,-1.08802,-0.411914,-0.310493,0
18110,-1.09273,-0.411372,-0.299679,0
18130,-1.09834,-0.410854,-0.28954,0
18150,-1.10348,-0.409738,-0.279639,0
18170,-1.10833,-0.40855,-0.269815,0
18190,-1.11431,-0.407992,-0.259448,0
18210,-1.11973,-0.407146,-0.250071,0
18230,-1.12469,-0.406453,-0.240952,0
18250,-1.13041,-0.406064,-0.230957,0
18270,-1.13644,-0.405902,-0.221039,0
18290,-1.14245,-0.406177,-0.211417,0
18310,-1.14879,-0.406583,-0.201952,0
18330,-1.15516,-0.406699,-0.192329,0
18350,-1.16059,-0.407508,-0.182365,0
18370,-1.16723,-0.408277,-0.171786,0
18390,-1.17359,-0.408792,-0.161218,0
18410,-1.17913,-0.409045,-0.151031,0
18430,-1.18457,-0.409171,-0.14098,0
18450,-1.19077,-0.408419,-0.130569,0
18470,-1.19636,-0.407907,-0.12055,0
18490,-1.20067,-0.407672,-0.111141,0
18510,-1.20496,-0.406798,-0.101511,0
18530,-1.20978,-0.406018,-0.0919271,0
18550,-1.21295,-0.405725,-0.0833122,0
18570,-1.21561,-0.405493,-0.0742942,0
18590,-1.21742,-0.405937,-0.0653979,0
18610,-1.22017,-0.407043,-0.0563621,0
18630,-1.22405,-0.407946,-0.0476489,0
18650,-1.22688,-0.408867,-0.039883,0
18670,-1.23122,-0.410105,-0.0309499,0
18690,-1.23611,-0.411663,-0.0221551,0
18710,-1.23894,-0.413878,-0.0143408,0
18730,-1.24139,-0.416841,-0.00680791,0
18750,-1.24491,-0.421135,0.00101853,0
18770,-1.25008,-0.4257,0.00881424,0
18790,-1.25597,-0.43039,0.0165842,0
18810,-1.2615,-0.435952,0.0239195,0
18830,-1.26699,-0.441759,0.0317706,0
18850,-1.27271,-0.447764,0.0400412,0
18870,-1.27873,-0.454308,0.0487065,0
18890,-1.28471,-0.461448,0.0569856,0
18910,-1.29117,-0.468161,0.0651148,0
18930,-1.29746,-0.475118,0.0731264,0
18950,-1.30375,-0.481974,0.0808587,0
18970,-1.31019,-0.487774,0.08855,0
18990,-1.31551,-0.494132,0.0963756,0
19010,-1.3204,-0.499806,0.104155,0
19030,-1.32536,-0.505342,0.110911,0
19050,-1.3302,-0.5101,0.116575,0
19070,-1.33433,-0.514828,0.121928,0
19090,-1.33808,-0.520861,0.127244,0
19110,-1.34182,-0.526642,0.132072,0
19130,-1.34636,-0.531648,0.136398,0
19150,-1.3501,-0.53669,0.140102,0
19170,-1.3541,-0.543479,0.143367,0
19190,-1.35754,-0.55071,0.145387,0
19210,-1.36046,-0.558547,0.146159,0
19230,-1.3635,-0.565395,0.14572,0
19250,-1.36538,-0.5711,0.144229,0
19270,-1.36685,-0.57637,0.14195,0
19290,-1.36832,-0.581109,0.138265,0
19310,-1.36866,-0.585368,0.133672,0
19330,-1.36925,-0.591236,0.129263,0
19350,-1.36966,-0.597017,0.12491,0
19370,-1.36814,-0.602361,0.119183,0
19390,-1.36777,-0.6085,0.114624,0
19410,-1.36746,-0.61616,0.109421,0
19430,-1.36751,-0.624145,0.103526,0
19450,-1.36715,-0.632182,0.0978634,0
19470,-1.36686,-0.64096,0.0927299,0
19490,-1.36631,-0.650016,0.086596,0
19510,-1.36475,-0.657429,0.0796534,0
19530,-1.3639,-0.665035,0.0726939,0
19550,-1.36185,-0.673027,0.0644422,0
19570,-1.35942,-0.680895,0.0562,0
19590,-1.35774,-0.687544,0.0484221,0
19610,-1.35563,-0.695445,0.0401912,0
19630,-1.35362,-0.704266,0.0324647,0
19650,-1.35146,-0.71278,0.0242024,0
19670,-1.34857,-0.721798,0.0150109,0
19690,-1.34644,-0.731981,0.00647968,0
19710,-1.34345,-0.741418,-0.00273727,0
19730,-1.34022,-0.750197,-0.0119107,0
19750,-1.33723,-0.759529,-0.0221627,0
19770,-1.33351,-0.769076,-0.0334641,0
19790,-1.32814,-0.778276,-0.0455445,0
19810,-1.3219,-0.787646,-0.0589698,0
19830,-1.31441,-0.79651,-0.0737227,0
19850,-1.30689,-0.804988,-0.088581,0
19870,-1.29909,-0.813129,-0.103721,0
19890,-1.28998,-0.821364,-0.120014,0
19910,-1.28001,-0.829163,-0.13659,0
19930,-1.27034,-0.836571,-0.15335,0
19950,-1.25961,-0.843908,-0.170787,0
19970,-1.24797,-0.850115,-0.188731,0
19990,-1.23694,-0.856492,-0.206589,0
20010,-1.22601,-0.862539,-0.224593,0
20030,-1.21484,-0.867129,-0.241817,0
20050,-1.20367,-0.871524,-0.258977,0
20070,-1.19106,-0.876286,-0.276854,0
20090,-1.17867,-0.88016,-0.293998,0
20110,-1.1668,-0.883078,-0.310788,0
20130,-1.15442,-0.886391,-0.327782,0
20150,-1.14269,-0.888898,-0.343795,0
20170,-1.13312,-0.890346,-0.35724,0
20190,-1.12437,-0.891526,-0.369147,0
20210,-1.1165,-0.892675,-0.3812,0
20230,-1.10767,-0.892637,-0.394051,0
20250,-1.10089,-0.89202,-0.40444,0
20270,-1.09434,-0.891075,-0.414223,0
20290,-1.08763,-0.889669,-0.423736,0
20310,-1.08078,-0.888346,-0.432379,0
20330,-1.07497,-0.886083,-0.439779,0
20350,-1.06833,-0.883867,-0.447902,0
20370,-1.06221,-0.881149,-0.454885,0
20390,-1.05698,-0.878058,-0.461355,0
20410,-1.0507,-0.875117,-0.468167,0
20430,-1.04571,-0.871288,-0.47311,0
20450,-1.04122,-0.868062,-0.477493,0
20470,-1.03619,-0.864761,-0.482641,0
20490,-1.03064,-0.860991,-0.487191,0
20510,-1.02754,-0.857042,-0.490091,0
20530,-1.02388,-0.853207,-0.493834,0
20550,-1.01959,-0.849473,-0.49704,0
20570,-1.01702,-0.845814,-0.498851,0
20590,-1.01532,-0.841408,-0.500437,0
20610,-1.01323,-0.835975,-0.502796,0
20630,-1.01046,-0.830842,-0.504992,0
20650,-1.0088,-0.825663,-0.505782,0
20670,-1.00789,-0.821138,-0.505133,0
20690,-1.00669,-0.817144,-0.504823,0
20710,-1.00599,-0.812893,-0.504226,0
20730,-1.00617,-0.808572,-0.50284,0
20750,-1.00663,-0.803751,-0.501609,0
20770,-1.00672,-0.798537,-0.500766,0
20790,-1.008,-0.793311,-0.498514,0
20810,-1.00939,-0.78787,-0.496564,0
20830,-1.00964,-0.782292,-0.495703,0
20850,-1.00988,-0.776602,-0.494901,0
20870,-1.01155,-0.771099,-0.493573,0
20890,-1.01297,-0.765203,-0.492492,0
20910,-1.01654,-0.759028,-0.490387,0
20920,-1.02018,-0.752185,-0.489301,0
20940,-1.02476,-0.74476,-0.4878,0
20960,-1.02862,-0.737106,-0.486885,0
20980,-1.0318,-0.729784,-0.485618,0
21000,-1.03579,-0.722427,-0.483309,0
21020,-1.03967,-0.715114,-0.48113,0
21040,-1.04247,-0.708399,-0.479967,0
21060,-1.04469,-0.701643,-0.479137,0
21080,-1.04821,-0.693744,-0.476306,0
21100,-1.05237,-0.68659,-0.473576,0
21120,-1.05508,-0.679504,-0.471911,0
21140,-1.05809,-0.672935,-0.469064,0
21160,-1.06113,-0.666602,-0.466564,0
21180,-1.06443,-0.660678,-0.464331,0
21200,-1.06819,-0.65395,-0.459852,0
21220,-1.07077,-0.648235,-0.455469,0
21240,-1.07241,-0.643478,-0.452014,0
21260,-1.07421,-0.638601,-0.447834,0
21280,-1.07811,-0.634345,-0.442224,0
21300,-1.08239,-0.629994,-0.436671,0
21320,-1.08679,-0.624993,-0.43054,0
21340,-1.09185,-0.620425,-0.424288,0
21360,-1.09639,-0.61608,-0.417793,0
21380,-1.10137,-0.611728,-0.410632,0
21400,-1.1065,-0.607586,-0.403552,0
21420,-1.11097,-0.603695,-0.397295,0
21440,-1.1154,-0.599456,-0.390097,0
21460,-1.12056,-0.596061,-0.382494,0
21480,-1.12548,-0.592574,-0.375159,0
21500,-1.12927,-0.589131,-0.367904,0
21520,-1.13395,-0.586126,-0.359057,0
21540,-1.13846,-0.583369,-0.350291,0
21560,-1.14379,-0.580794,-0.341677,0
21580,-1.14947,-0.577636,-0.332482,0
21600,-1.15478,-0.574114,-0.323455,0
21620,-1.16029,-0.570669,-0.313419,0
21640,-1.16614,-0.567996,-0.30332,0
21660,-1.17198,-0.565106,-0.293207,0
21680,-1.17758,-0.561762,-0.283272,0
21700,-1.184,-0.559108,-0.27338,0
21720,-1.19185,-0.556116,-0.262659,0
21740,-1.19928,-0.553187,-0.251684,0
21760,-1.2054,-0.551238,-0.241276,0
21780,-1.21116,-0.54972,-0.231043,0
21800,-1.21822,-0.548545,-0.220412,0
21820,-1.22546,-0.548017,-0.209823,0
21840,-1.23196,-0.547665,-0.200085,0
21860,-1.2358,-0.547857,-0.190537,0
21880,-1.23984,-0.548633,-0.181103,0
21900,-1.24574,-0.549082,-0.171386,0
21920,-1.25259,-0.549492,-0.16172,0
21940,-1.25943,-0.550426,-0.152624,0
21960,-1.26483,-0.551852,-0.143312,0
21980,-1.27113,-0.553292,-0.133101,0
22000,-1.27809,-0.555084,-0.123169,0
22020,-1.28554,-0.556912,-0.11358,0
22040,-1.29243,-0.559109,-0.104101,0
22060,-1.29917,-0.561569,-0.0944405,0
22080,-1.30473,-0.564429,-0.0849128,0
22100,-1.31021,-0.566912,-0.0755675,0
22120,-1.31793,-0.568847,-0.0668543,0
22140,-1.32449,-0.570146,-0.0585701,0
22160,-1.33101,-0.571249,-0.0492715,0
22180,-1.33764,-0.572993,-0.040178,0
22200,-1.34447,-0.574933,-0.0313077,0
22220,-1.35029,-0.576924,-0.0228453,0
22240,-1.35602,-0.57901,-0.0137462,0
22260,-1.36265,-0.580869,-0.0039154,0
22280,-1.36847,-0.582433,0.00599789,0
22300,-1.37504,-0.584331,0.0162972,0
22320,-1.38228,-0.58616,0.0264413,0
22340,-1.38846,-0.588173,0.036014,0
22360,-1.39446,-0.591147,0.0455621,0
22380,-1.40103,-0.594172,0.0550039,0
22400,-1.40687,-0.597036,0.0642038,0
22420,-1.41221,-0.600985,0.0731831,0
22440,-1.41785,-0.605303,0.0820051,0
22460,-1.42367,-0.610197,0.091032,0
22480,-1.42888,-0.615811,0.0998373,0
22500,-1.43523,-0.620591,0.108957,0
22520,-1.44086,-0.625674,0.118345,0
22540,-1.4464,-0.630729,0.128561,0
22560,-1.45212,-0.635942,0.139253,0
22580,-1.45826,-0.643442,0.149886,0
22600,-1.46563,-0.652062,0.16043,0
22620,-1.47412,-0.660822,0.170221,0
22640,-1.48152,-0.669385,0.179168,0
22660,-1.48792,-0.679005,0.187624,0
22680,-1.49284,-0.688258,0.195376,0
22700,-1.49763,-0.697776,0.202266,0
22720,-1.5018,-0.707594,0.207584,0
22740,-1.50555,-0.716363,0.21198,0
22760,-1.50872,-0.724562,0.215475,0
22780,-1.51186,-0.733012,0.218156,0
22800,-1.51457,-0.741019,0.219846,0
22810,-1.51723,-0.749436,0.221311,0
22840,-1.5203,-0.758473,0.222887,0
22860,-1.52446,-0.768531,0.223807,0
22880,-1.52915,-0.775729,0.224496,0
22890,-1.53286,-0.784467,0.225191,0
22910,-1.53829,-0.79473,0.228709,0
22930,-1.54451,-0.806143,0.232449,0
22950,-1.55048,-0.817968,0.235385,0
22970,-1.55719,-0.829973,0.2379,0
22990,-1.5638,-0.841304,0.240027,0
23010,-1.56899,-0.852091,0.241503,0
23030,-1.57377,-0.862883,0.242751,0
23050,-1.57723,-0.872573,0.24285,0
23070,-1.58,-0.882217,0.242034,0
23090,-1.58206,-0.890543,0.240863,0
23110,-1.58349,-0.899359,0.239058,0
23130,-1.584,-0.908166,0.235847,0
23150,-1.58465,-0.91667,0.2316,0
23170,-1.58485,-0.925459,0.226916,0
23190,-1.58539,-0.934264,0.222775,0
23210,-1.58571,-0.943892,0.218333,0
23230,-1.58558,-0.953508,0.212517,0
23250,-1.58489,-0.96235,0.205562,0
23270,-1.58435,-0.9712,0.198258,0
23290,-1.58235,-0.980563,0.189531,0
23310,-1.57978,-0.990556,0.179903,0
23330,-1.57634,-0.999981,0.169098,0
23350,-1.57092,-1.00945,0.155972,0
23370,-1.56335,-1.0185,0.141001,0
23390,-1.55622,-1.02732,0.126146,0
23410,-1.54805,-1.03645,0.109652,0
23430,-1.53584,-1.0455,0.0891617,0
23450,-1.52132,-1.05484,0.0678533,0
23470,-1.50544,-1.06362,0.045561,0
23490,-1.48881,-1.07227,0.0219694,0
23510,-1.46969,-1.08021,-0.00401398,0
23530,-1.44755,-1.08706,-0.033414,0
23550,-1.42197,-1.09307,-0.0645617,0
23570,-1.39651,-1.09813,-0.0951033,0
23590,-1.36958,-1.10117,-0.126254,0
23610,-1.3414,-1.10406,-0.1577,0
23630,-1.31495,-1.10663,-0.186999,0
23650,-1.29152,-1.10881,-0.213939,0
23670,-1.27075,-1.10933,-0.238312,0
23690,-1.25014,-1.10878,-0.261212,0
23710,-1.23119,-1.1081,-0.281616,0
23730,-1.21445,-1.10721,-0.300289,0
23750,-1.19784,-1.10647,-0.318548,0
23770,-1.18235,-1.10588,-0.336113,0
23790,-1.16793,-1.1044,-0.350827,0
23810,-1.14917,-1.10179,-0.368059,0
23830,-1.12899,-1.098,-0.386915,0
23850,-1.1089,-1.09194,-0.404638,0
23870,-1.08652,-1.08675,-0.423221,0
23890,-1.06688,-1.08286,-0.439811,0
23910,-1.05119,-1.07896,-0.453568,0
23930,-1.03651,-1.07465,-0.467419,0
23950,-1.02371,-1.06872,-0.480162,0
23970,-1.01339,-1.06223,-0.490261,0
23990,-1.00466,-1.05572,-0.498354,0
24010,-0.996565,-1.04907,-0.506379,0
24030,-0.989101,-1.04217,-0.514467,0
24050,-0.981072,-1.0349,-0.522911,0
24070,-0.972362,-1.02662,-0.531252,0
24090,-0.966289,-1.01792,-0.537008,0
24110,-0.961565,-1.00884,-0.541684,0
24130,-0.955611,-1.00028,-0.5482,0
24150,-0.951126,-0.992141,-0.552439,0
24170,-0.946797,-0.984137,-0.556491,0
24190,-0.943719,-0.975648,-0.560393,0
24210,-0.943935,-0.965895,-0.561412,0
24230,-0.943492,-0.957135,-0.561398,0
24250,-0.943514,-0.949341,-0.560315,0
24270,-0.942316,-0.942703,-0.55997,0
24290,-0.93979,-0.937089,-0.560178,0
24310,-0.937685,-0.930988,-0.560178,0
24330,-0.937403,-0.924766,-0.558487,0
24350,-0.937841,-0.917535,-0.556493,0
24370,-0.93691,-0.909489,-0.555206,0
24390,-0.936236,-0.901593,-0.552198,0
24410,-0.935847,-0.893728,-0.548998,0
24430,-0.935952,-0.886311,-0.546383,0
24450,-0.939683,-0.87952,-0.541138,0
24470,-0.944027,-0.873045,-0.53567,0
24490,-0.946945,-0.865843,-0.530886,0
24510,-0.951588,-0.858273,-0.524165,0
24530,-0.957756,-0.850312,-0.515827,0
24550,-0.962428,-0.843249,-0.509504,0
24570,-0.966646,-0.835896,-0.502827,0
24590,-0.97222,-0.829334,-0.495026,0
24610,-0.979195,-0.823052,-0.48716,0
24630,-0.987027,-0.816,-0.478899,0
24650,-0.994895,-0.808943,-0.470471,0
24670,-1.00268,-0.802195,-0.461966,0
24690,-1.00977,-0.796337,-0.452392,0
24710,-1.01488,-0.790702,-0.4437,0
24730,-1.01989,-0.785041,-0.434882,0
24750,-1.02744,-0.779943,-0.42403,0
24770,-1.03606,-0.775541,-0.413726,0
24790,-1.04493,-0.770239,-0.403338,0
24810,-1.05216,-0.765191,-0.392916,0
24830,-1.05932,-0.760793,-0.382014,0
24850,-1.06619,-0.756498,-0.371308,0
24870,-1.0751,-0.752537,-0.359254,0
24890,-1.0844,-0.74902,-0.348271,0
24910,-1.09287,-0.745204,-0.337426,0
24930,-1.10218,-0.74204,-0.326305,0
24950,-1.1103,-0.738816,-0.315673,0
24970,-1.11721,-0.735549,-0.305083,0
24990,-1.12467,-0.732519,-0.293968,0
25010,-1.13257,-0.730197,-0.283076,0
25030,-1.13968,-0.727639,-0.272594,0
25050,-1.14818,-0.724713,-0.26113,0
25070,-1.15803,-0.721927,-0.249053,0
25090,-1.16814,-0.719125,-0.236945,0
25110,-1.17839,-0.716811,-0.224735,0
25130,-1.18772,-0.715645,-0.212343,0
25150,-1.19668,-0.714476,-0.199814,0
25170,-1.20665,-0.713409,-0.186166,0
25190,-1.21918,-0.712659,-0.171452,0
25210,-1.23146,-0.711578,-0.15744,0
25230,-1.24318,-0.70994,-0.143517,0
25250,-1.25466,-0.70905,-0.129385,0
25270,-1.26695,-0.708037,-0.114883,0
25290,-1.27873,-0.707397,-0.100412,0
25310,-1.28971,-0.707741,-0.0866678,0
25330,-1.30074,-0.708615,-0.0730746,0
25350,-1.31129,-0.70898,-0.0591358,0
25370,-1.31999,-0.709473,-0.0466162,0
25390,-1.32796,-0.710045,-0.0339444,0
25410,-1.33844,-0.711825,-0.0206412,0
25430,-1.34844,-0.713523,-0.00792622,0
25450,-1.35763,-0.715751,0.00460381,0
25470,-1.36706,-0.718584,0.017032,0
25490,-1.37682,-0.72173,0.0297769,0
25510,-1.38531,-0.726274,0.0411785,0
25530,-1.39315,-0.732302,0.0528028,0
25550,-1.4035,-0.738461,0.0650073,0
25570,-1.41414,-0.743105,0.0768282,0
25590,-1.4243,-0.747638,0.0888447,0
25610,-1.4355,-0.752282,0.101667,0
25630,-1.44675,-0.756283,0.114417,0
25650,-1.45768,-0.760149,0.126999,0
25670,-1.46909,-0.76401,0.140325,0
25690,-1.4809,-0.767793,0.15386,0
25710,-1.49295,-0.771528,0.166512,0
25730,-1.50455,-0.77572,0.179284,0
25750,-1.51606,-0.780481,0.192448,0
25770,-1.52674,-0.785765,0.205196,0
25790,-1.5369,-0.79158,0.217459,0
25810,-1.54537,-0.797743,0.228859,0
25830,-1.55377,-0.804924,0.240893,0
25850,-1.56323,-0.811825,0.252819,0
25870,-1.57284,-0.819367,0.264018,0
25890,-1.58252,-0.827344,0.274916,0
25910,-1.59218,-0.835816,0.286203,0
25930,-1.60134,-0.844913,0.29627,0
25950,-1.60813,-0.854238,0.303867,0
25970,-1.6125,-0.863422,0.309684,0
25990,-1.61645,-0.874051,0.315314,0
26010,-1.62051,-0.884666,0.319062,0
26030,-1.62142,-0.894813,0.31874,0
26050,-1.6212,-0.903728,0.31726,0
26070,-1.61842,-0.911575,0.313126,0
26090,-1.61264,-0.919282,0.306956,2001
26110,-1.60845,-0.928795,0.301868,0
26130,-1.60523,-0.938253,0.296331,0
26150,-1.60076,-0.947305,0.289181,0
26170,-1.5966,-0.956711,0.282766,0
26190,-1.59414,-0.965106,0.277123,0
26210,-1.59243,-0.972102,0.271522,0
26230,-1.5901,-0.978286,0.266538,0
26250,-1.5878,-0.984042,0.261805,0
26270,-1.58647,-0.988324,0.257453,0
26290,-1.58646,-0.990578,0.253969,0
26300,-1.58607,-0.991623,0.25104,0
26320,-1.58684,-0.992815,0.249614,0
26340,-1.58928,-0.993787,0.24954,0
26360,-1.58971,-0.993691,0.247921,0
26380,-1.58616,-0.994829,0.242902,0
26400,-1.58014,-0.994837,0.235344,0
26420,-1.57211,-0.990395,0.226204,0
26440,-1.56285,-0.984054,0.216843,0
26460,-1.5505,-0.978543,0.20404,0
26480,-1.53615,-0.972726,0.186895,0
26500,-1.52279,-0.964196,0.168875,0
26520,-1.51094,-0.955729,0.151921,0
26540,-1.49888,-0.946851,0.135384,0
26560,-1.48582,-0.939487,0.11833,0
26580,-1.4744,-0.932793,0.101807,0
26600,-1.46251,-0.926117,0.0842667,0
26620,-1.44817,-0.920668,0.0644711,0
26640,-1.42947,-0.915114,0.0423083,0
26660,-1.41025,-0.906174,0.0208715,0
26680,-1.39012,-0.891229,-0.00138746,0
26700,-1.36592,-0.873896,-0.0262103,0
26720,-1.33788,-0.858896,-0.0504213,0
26740,-1.30939,-0.841312,-0.0737119,0
26760,-1.28455,-0.821418,-0.0934439,0
26780,-1.26277,-0.800598,-0.109877,0
26800,-1.24245,-0.780984,-0.122496,0
26820,-1.22212,-0.760774,-0.132172,0
26840,-1.20174,-0.737674,-0.136889,0
26860,-1.19026,-0.714603,-0.134753,0
26880,-1.18365,-0.696422,-0.131536,0
26900,-1.17451,-0.679963,-0.131068,0
26920,-1.16821,-0.661314,-0.127039,0
26940,-1.16802,-0.644189,-0.11823,0
26960,-1.16655,-0.630126,-0.110811,0
26980,-1.16314,-0.615557,-0.105367,0
27000,-1.16098,-0.598903,-0.100076,0
27020,-1.16147,-0.582061,-0.0957264,0
27040,-1.16235,-0.56651,-0.0929233,0
27060,-1.16322,-0.551351,-0.0895494,0
27080,-1.16536,-0.535149,-0.0871181,0
27100,-1.16824,-0.518002,-0.0870775,0
27120,-1.16989,-0.501,-0.0876376,0
27140,-1.17258,-0.485528,-0.0874511,0
27160,-1.17563,-0.470406,-0.0874586,0
27180,-1.17778,-0.455687,-0.0881084,0
27200,-1.1807,-0.444014,-0.0875008,0
27220,-1.18331,-0.434602,-0.0861332,0
27240,-1.18522,-0.426503,-0.0835963,0
27260,-1.18638,-0.420017,-0.081227,0
27280,-1.18757,-0.414742,-0.0799785,0
27300,-1.18823,-0.409702,-0.0785556,0
27320,-1.18769,-0.406603,-0.0772253,0
27340,-1.18782,-0.404202,-0.0751976,0
27360,-1.18809,-0.402261,-0.072493,0
27380,-1.18747,-0.402014,-0.0700819,0
27400,-1.18654,-0.401919,-0.0666491,0
27420,-1.18706,-0.402105,-0.062377,0
27440,-1.18783,-0.403051,-0.0587249,0
27460,-1.18908,-0.403224,-0.0553617,0
27480,-1.19009,-0.401699,-0.0513343,0
27500,-1.192,-0.400288,-0.046817,0
27520,-1.19416,-0.398505,-0.0421578,0
27540,-1.19549,-0.396043,-0.0384621,0
27560,-1.19781,-0.393158,-0.0339406,0
27580,-1.20112,-0.389505,-0.0300733,0
27600,-1.20371,-0.385892,-0.0260123,0
27620,-1.20616,-0.383253,-0.022537,0
27640,-1.20793,-0.38106,-0.0181209,0
27660,-1.20709,-0.379592,-0.0135438,0
27680,-1.20569,-0.378928,-0.0100202,0
27700,-1.20521,-0.378827,-0.0053641,2000
27720,-1.20676,-0.378895,0.00118434,0
27740,-1.20581,-0.378765,0.00405153,0
27760,-1.20308,-0.378944,0.00546871,0
27780,-1.19997,-0.380225,0.00632402,0
27800,-1.20015,-0.381387,0.00883535,0
27820,-1.20211,-0.38129,0.0135256,0
27840,-1.20325,-0.381331,0.019186,0
27860,-1.20352,-0.38202,0.0252819,0
27880,-1.20331,-0.383401,0.030722,0
27900,-1.20343,-0.384898,0.035398,0
27920,-1.20463,-0.386075,0.040957,0
27940,-1.20615,-0.385705,0.0470459,0
27960,-1.20594,-0.385478,0.0533117,0
27980,-1.20455,-0.387202,0.0596421,0
28000,-1.20405,-0.388617,0.0659222,0
28020,-1.20279,-0.390387,0.0718162,0
28040,-1.20016,-0.394071,0.0773795,0
28060,-1.19755,-0.398802,0.0827617,0
28080,-1.19461,-0.404413,0.0888866,0
28100,-1.19171,-0.411708,0.0949956,0
28120,-1.18803,-0.420327,0.0997155,0
28140,-1.18326,-0.429426,0.102922,0
28160,-1.17762,-0.437964,0.105737,0
28180,-1.17317,-0.444816,0.109198,0
28190,-1.16819,-0.452324,0.111778,0
28220,-1.16413,-0.460923,0.112663,0
28240,-1.16154,-0.469517,0.113507,0
28260,-1.16025,-0.477039,0.114836,0
28270,-1.15975,-0.484181,0.116616,0
28290,-1.16217,-0.49064,0.119036,0
28310,-1.16413,-0.496562,0.1203,0
28330,-1.16638,-0.501991,0.121728,0
28350,-1.17152,-0.506793,0.12418,0
28370,-1.1769,-0.510742,0.12607,0
28390,-1.1807,-0.515559,0.126417,0
28410,-1.18594,-0.521372,0.126703,0
28430,-1.19116,-0.528019,0.126693,0
28450,-1.19565,-0.535074,0.125804,0
28470,-1.19763,-0.542262,0.122625,0
28490,-1.19832,-0.550769,0.117566,0
28510,-1.19957,-0.559385,0.111025,0
28530,-1.20123,-0.567915,0.10294,0
28550,-1.20224,-0.575461,0.0936509,0
28570,-1.20316,-0.582268,0.0842895,0
28590,-1.20432,-0.58796,0.0755386,0
28610,-1.20399,-0.595316,0.0653305,0
28630,-1.20341,-0.60357,0.0542131,0
28650,-1.20372,-0.611842,0.0435379,0
28670,-1.20503,-0.61968,0.0329388,0
28690,-1.20608,-0.627189,0.020941,0
28710,-1.20658,-0.635159,0.00883406,0
28730,-1.20463,-0.643716,-0.00380986,0
28750,-1.20166,-0.65211,-0.0165778,0
28770,-1.19871,-0.659637,-0.0299584,0
28790,-1.19497,-0.667,-0.0436615,0
28810,-1.18909,-0.674329,-0.0579943,0
28830,-1.18229,-0.681285,-0.0727341,0
28850,-1.17597,-0.688763,-0.0877246,0
28870,-1.17061,-0.69606,-0.102868,0
28890,-1.16325,-0.702623,-0.118819,0
28910,-1.15439,-0.709109,-0.134596,0
28930,-1.14547,-0.716282,-0.150464,0
28950,-1.13589,-0.723356,-0.167173,0
28970,-1.12596,-0.72977,-0.184197,0
28990,-1.11735,-0.736496,-0.200314,0
29010,-1.10865,-0.742571,-0.216825,0
29030,-1.09951,-0.748273,-0.233176,0
29050,-1.08959,-0.754141,-0.249945,0
29070,-1.08045,-0.759569,-0.266018,0
29090,-1.07267,-0.763692,-0.281312,0
29110,-1.06373,-0.767539,-0.297467,0
29130,-1.05386,-0.771436,-0.31395,0
29150,-1.04288,-0.775919,-0.331076,0
29170,-1.03069,-0.780889,-0.348524,0
29190,-1.01924,-0.785982,-0.365974,0
29210,-1.00731,-0.789515,-0.383833,0
29230,-0.995184,-0.792572,-0.401767,0
29250,-0.98452,-0.795103,-0.418038,0
29270,-0.973939,-0.797427,-0.434322,0
29290,-0.963666,-0.799219,-0.449945,0
29310,-0.954674,-0.800036,-0.464347,0
29330,-0.94506,-0.800614,-0.47946,0
29350,-0.935537,-0.801093,-0.49372,0
29370,-0.92838,-0.800422,-0.504809,0
29390,-0.92338,-0.799516,-0.513907,0
29410,-0.918561,-0.797591,-0.523356,0
29430,-0.912612,-0.795133,-0.532345,0
29450,-0.907836,-0.793142,-0.538471,0
29470,-0.904649,-0.7922,-0.545214,0
29490,-0.901864,-0.790547,-0.552135,0
29510,-0.900307,-0.787324,-0.558384,0
29530,-0.900213,-0.783825,-0.562727,0
29550,-0.899539,-0.780285,-0.56667,0
29570,-0.898133,-0.776358,-0.57181,0
29590,-0.896799,-0.772027,-0.57644,0
29610,-0.894141,-0.768698,-0.580871,0
29630,-0.89105,-0.764888,-0.58432,0
29650,-0.888437,-0.760731,-0.586749,0
29670,-0.887009,-0.756495,-0.58858,0
29690,-0.884587,-0.751671,-0.590669,0
29710,-0.882302,-0.74752,-0.592849,0
29730,-0.881231,-0.743591,-0.594182,0
29750,-0.881317,-0.738862,-0.594073,0
29770,-0.882254,-0.733855,-0.593863,0
29790,-0.882922,-0.728326,-0.594193,0
29810,-0.882884,-0.722037,-0.593213,0
29830,-0.882308,-0.715731,-0.591073,0
29850,-0.881617,-0.710047,-0.589901,0
29870,-0.881773,-0.70383,-0.588081,0
29890,-0.882913,-0.697683,-0.585607,0
29910,-0.884409,-0.691892,-0.583201,0
29930,-0.885533,-0.685852,-0.581161,0
29950,-0.887116,-0.679891,-0.578374,0
29970,-0.887633,-0.674852,-0.577098,0
29990,-0.887399,-0.66964,-0.576342,0
30010,-0.887157,-0.663636,-0.575438,0
30030,-0.887351,-0.657867,-0.574913,0
30050,-0.886591,-0.651455,-0.574414,0
30070,-0.885562,-0.644556,-0.573808,0
30090,-0.885902,-0.637102,-0.572584,0
30110,-0.88509,-0.630329,-0.572538,0
30130,-0.88478,-0.623743,-0.57156,0
30150,-0.884787,-0.61746,-0.569111,0
30170,-0.886071,-0.611139,-0.566656,0
30190,-0.887364,-0.604557,-0.564695,0
30210,-0.887357,-0.598771,-0.562921,0
30230,-0.887412,-0.593238,-0.560206,0
30250,-0.88767,-0.587867,-0.557115,0
30270,-0.887838,-0.583043,-0.554354,0
30290,-0.889012,-0.57915,-0.550664,0
30310,-0.891019,-0.575624,-0.546255,0
30330,-0.893281,-0.572742,-0.541562,0
30350,-0.896861,-0.569951,-0.536366,0
30370,-0.900836,-0.56675,-0.530641,0
30390,-0.905784,-0.56359,-0.523554,0
30410,-0.911233,-0.560292,-0.516164,0
30430,-0.916347,-0.556999,-0.50958,0
30450,-0.922572,-0.553521,-0.50225,0
30470,-0.928954,-0.550523,-0.494943,0
30490,-0.934645,-0.547634,-0.487853,0
30510,-0.939838,-0.544082,-0.480775,0
30530,-0.944223,-0.540819,-0.474258,0
30550,-0.950288,-0.537206,-0.467109,0
30570,-0.957677,-0.532959,-0.459286,0
30590,-0.96448,-0.528356,-0.451299,0
30610,-0.972341,-0.524029,-0.443262,0
30630,-0.980035,-0.519534,-0.434855,0
30650,-0.986413,-0.515838,-0.426791,0
30670,-0.992772,-0.511821,-0.41875,0
30690,-0.999441,-0.507775,-0.410569,0
30710,-1.00724,-0.50386,-0.401556,0
30730,-1.01481,-0.500582,-0.392924,0
30750,-1.02081,-0.497886,-0.384045,0
30770,-1.02778,-0.495591,-0.374685,0
30790,-1.03402,-0.493114,-0.365971,0
30810,-1.03903,-0.490507,-0.357546,0
30830,-1.04292,-0.489323,-0.348066,0
30850,-1.04704,-0.488,-0.33925,0
30870,-1.0525,-0.485815,-0.329824,0
30890,-1.05865,-0.484018,-0.319571,0
30910,-1.06556,-0.482544,-0.309338,0
30930,-1.07141,-0.48146,-0.300099,0
30950,-1.07768,-0.480307,-0.290414,0
30970,-1.08464,-0.478731,-0.280965,0
30990,-1.09094,-0.476986,-0.271865,0
31010,-1.09599,-0.475518,-0.262221,0
31030,-1.10058,-0.475053,-0.252812,0
31050,-1.10523,-0.475255,-0.244013,0
31070,-1.11104,-0.475919,-0.235062,0
31090,-1.11802,-0.476704,-0.225651,0
31110,-1.12479,-0.477412,-0.215819,0
31130,-1.13131,-0.478502,-0.206074,0
31150,-1.13718,-0.4799,-0.19756,0
31170,-1.14267,-0.481356,-0.189118,0
31190,-1.14855,-0.482502,-0.180095,0
31210,-1.15435,-0.483722,-0.171048,0
31230,-1.15978,-0.485699,-0.16198,0
31250,-1.16541,-0.48773,-0.152965,0
31270,-1.17191,-0.490115,-0.143998,0
31290,-1.17895,-0.492774,-0.134187,0
31310,-1.18685,-0.495081,-0.124065,0
31330,-1.19331,-0.497891,-0.11478,0
31350,-1.19827,-0.501125,-0.105988,0
31370,-1.20348,-0.504692,-0.0971754,0
31390,-1.20844,-0.50763,-0.0880038,0
31410,-1.21213,-0.510404,-0.0790195,0
31430,-1.21624,-0.51345,-0.0694369,0
31450,-1.22058,-0.5168,-0.0600163,0
31470,-1.22439,-0.520477,-0.050795,0
31490,-1.22951,-0.523453,-0.0404254,0
31510,-1.23584,-0.526385,-0.0292437,0
31530,-1.24187,-0.529599,-0.0174803,0
31550,-1.24694,-0.533856,-0.00618441,0
31570,-1.25338,-0.538527,0.00534053,0
31590,-1.26175,-0.543082,0.0179382,0
31610,-1.27108,-0.547556,0.0310913,0
31630,-1.28012,-0.55166,0.044185,0
31650,-1.28866,-0.556177,0.0569612,0
31670,-1.29651,-0.561808,0.0691462,0
31680,-1.30326,-0.567618,0.0808008,0
31700,-1.31014,-0.572716,0.0929973,0
31720,-1.31714,-0.578093,0.104429,0
31740,-1.32292,-0.583934,0.114772,0
31760,-1.32912,-0.589468,0.126248,0
31780,-1.33549,-0.595059,0.138161,0
31800,-1.34168,-0.600033,0.149328,0
31820,-1.34864,-0.60386,0.159786,0
31840,-1.35577,-0.607288,0.169915,0
31860,-1.36325,-0.609092,0.180027,0
31880,-1.37086,-0.610498,0.189388,0
31900,-1.37789,-0.613165,0.198062,0
31920,-1.38363,-0.615939,0.205266,0
31940,-1.38923,-0.618416,0.211794,0
31960,-1.3942,-0.621019,0.217797,0
31980,-1.39892,-0.625518,0.22253,0
32000,-1.40252,-0.629192,0.226797,0
32020,-1.40509,-0.633689,0.230913,0
32040,-1.40848,-0.640576,0.234272,0
32060,-1.4117,-0.647735,0.236876,0
32080,-1.41415,-0.655046,0.238976,0
32100,-1.41716,-0.661492,0.239995,0
32120,-1.41863,-0.668432,0.239237,0
32140,-1.42091,-0.675731,0.239564,0
32160,-1.4237,-0.682522,0.240346,0
32180,-1.4257,-0.689545,0.240161,0
32200,-1.42705,-0.69782,0.239196,0
32220,-1.42927,-0.704613,0.238508,0
32240,-1.43054,-0.713124,0.23669,0
32260,-1.4339,-0.721964,0.236107,0
32280,-1.43678,-0.731058,0.23493,0
32300,-1.43824,-0.741684,0.232077,0
32320,-1.44056,-0.752211,0.229646,0
32340,-1.4426,-0.762127,0.2268,0
32360,-1.44392,-0.771819,0.222609,0
32380,-1.44511,-0.780703,0.217837,0
32400,-1.44507,-0.789231,0.212278,0
32420,-1.44327,-0.79807,0.204938,0
32440,-1.44143,-0.807337,0.196459,0
32460,-1.43848,-0.816113,0.186589,0
32480,-1.43539,-0.82528,0.175781,0
32500,-1.43031,-0.834662,0.163931,0
32520,-1.42456,-0.842935,0.151494,0
32540,-1.4191,-0.850268,0.138452,0
32560,-1.41234,-0.857753,0.123764,0
32580,-1.40423,-0.865708,0.108455,0
32600,-1.39471,-0.874333,0.0922162,0
32620,-1.38457,-0.882586,0.0761894,0
32640,-1.37511,-0.890072,0.060239,0
32660,-1.3656,-0.89744,0.0442838,0
32680,-1.35459,-0.90493,0.0274479,0
32700,-1.34322,-0.912879,0.0102933,0
32720,-1.33226,-0.920409,-0.00728668,0
32740,-1.32084,-0.927198,-0.0254787,0
32760,-1.30671,-0.934423,-0.0445574,0
32780,-1.2915,-0.942044,-0.0637449,0
32800,-1.27783,-0.949086,-0.0820899,0
32820,-1.26377,-0.955868,-0.102394,0
32840,-1.24758,-0.962683,-0.124313,0
32860,-1.23127,-0.969242,-0.144489,0
32880,-1.21525,-0.974955,-0.164355,0
32900,-1.20022,-0.980237,-0.184916,0
32920,-1.18412,-0.98435,-0.207343,0
32940,-1.16626,-0.987875,-0.230385,0
32960,-1.14926,-0.9919,-0.251836,0
32980,-1.13448,-0.995001,-0.270977,0
33000,-1.12077,-0.995923,-0.289914,0
33020,-1.10538,-0.99659,-0.309353,0
33040,-1.09175,-0.997464,-0.327137,0
33060,-1.08024,-0.997645,-0.343932,0
33080,-1.06875,-0.997518,-0.360612,0
33100,-1.0573,-0.997413,-0.376231,0
33120,-1.04912,-0.996605,-0.387508,0
33140,-1.04201,-0.995476,-0.397763,0
33160,-1.0345,-0.994935,-0.409041,0
33180,-1.02991,-0.993556,-0.417798,0
33200,-1.02709,-0.991052,-0.426084,0
33220,-1.02192,-0.988609,-0.436042,0
33240,-1.01831,-0.985247,-0.443381,0
33260,-1.01502,-0.981314,-0.4498,0
33280,-1.01035,-0.976445,-0.457945,0
33300,-1.00603,-0.970736,-0.465239,0
33320,-1.004,-0.964179,-0.469626,0
33340,-1.00247,-0.958152,-0.473974,0
33360,-1.00009,-0.952711,-0.478209,0
33380,-0.999182,-0.947028,-0.481138,0
33400,-0.999142,-0.941336,-0.484345,0
33420,-0.997616,-0.934932,-0.488497,0
33440,-0.9973,-0.928679,-0.490269,0
33460,-0.996142,-0.922483,-0.491301,0
33480,-0.99479,-0.91696,-0.493359,0
33500,-0.991977,-0.911252,-0.496464,0
33520,-0.991461,-0.906057,-0.498113,0
33540,-0.992676,-0.90035,-0.498294,0
33560,-0.993174,-0.894328,-0.498306,0
33580,-0.992788,-0.888727,-0.498681,0
33600,-0.993285,-0.883675,-0.498805,0
33620,-0.993841,-0.878635,-0.498163,0
33640,-0.994208,-0.873674,-0.497541,0
33650,-0.994456,-0.869577,-0.496514,0
33670,-0.993739,-0.865818,-0.495326,0
33690,-0.991884,-0.862169,-0.49465,0
33710,-0.990972,-0.85852,-0.494963,0
33730,-0.991189,-0.854536,-0.494812,0
33750,-0.991933,-0.850077,-0.493265,0
33770,-0.99162,-0.845051,-0.492306,0
33790,-0.992004,-0.839608,-0.491342,0
33810,-0.993409,-0.834208,-0.49041,0
33830,-0.995524,-0.828832,-0.489679,0
33850,-0.997302,-0.823105,-0.488855,0
33870,-0.99878,-0.817168,-0.487713,0
33890,-1.00054,-0.81135,-0.486532,0
33910,-1.00314,-0.806087,-0.484198,0
33930,-1.00671,-0.800429,-0.481494,0
33950,-1.00949,-0.795342,-0.480037,0
33970,-1.01062,-0.790792,-0.478319,0
33990,-1.01042,-0.78701,-0.475663,0
34010,-1.01214,-0.784386,-0.473086,0
34030,-1.01483,-0.780738,-0.471183,0
34050,-1.01848,-0.776295,-0.468275,0
34070,-1.02307,-0.772581,-0.464045,0
34090,-1.02703,-0.769539,-0.46063,0
34110,-1.03087,-0.766117,-0.456482,0
34130,-1.03459,-0.76262,-0.452078,0
34150,-1.03938,-0.759429,-0.44675,0
34170,-1.04328,-0.755598,-0.441503,0
34190,-1.04532,-0.751205,-0.437148,0
34210,-1.04881,-0.746815,-0.431592,0
34230,-1.05331,-0.742087,-0.425786,0
34250,-1.05785,-0.737305,-0.420646,0
34270,-1.06271,-0.732396,-0.41438,0
34290,-1.06806,-0.727076,-0.407445,0
34310,-1.07326,-0.721681,-0.401013,0
34330,-1.0781,-0.716924,-0.39471,0
34350,-1.08217,-0.71193,-0.388539,0
34370,-1.08662,-0.707046,-0.382119,0
34390,-1.09195,-0.702411,-0.375623,0
34410,-1.09706,-0.697637,-0.368822,0
34430,-1.10107,-0.692879,-0.362799,0
34450,-1.10546,-0.688608,-0.355717,0
34470,-1.11082,-0.685022,-0.348025,0
34490,-1.11595,-0.680995,-0.340545,0
34510,-1.12132,-0.677336,-0.332622,0
34530,-1.1274,-0.673505,-0.32365,0
34550,-1.13309,-0.669594,-0.315528,0
34570,-1.13859,-0.665742,-0.307437,0
34590,-1.14488,-0.662521,-0.297701,0
34610,-1.15106,-0.6593,-0.288325,0
34630,-1.15604,-0.656024,-0.279784,0
34650,-1.16223,-0.653057,-0.269574,0
34670,-1.17021,-0.650655,-0.25894,0
34690,-1.17704,-0.648396,-0.249193,0
34710,-1.18368,-0.646435,-0.23828,0
34730,-1.19192,-0.64485,-0.226356,0
34750,-1.2001,-0.643622,-0.215512,0
34770,-1.20777,-0.64272,-0.204375,0
34790,-1.2163,-0.642353,-0.192406,0
34810,-1.22399,-0.642445,-0.181322,0
34830,-1.23303,-0.64237,-0.169075,0
34850,-1.24322,-0.642131,-0.156214,0
34870,-1.25323,-0.642191,-0.143749,0
34890,-1.26239,-0.642654,-0.131443,0
34910,-1.27333,-0.642877,-0.117986,0
34930,-1.28429,-0.642914,-0.104615,0
34950,-1.29403,-0.643505,-0.0921484,0
34970,-1.30413,-0.644364,-0.0793741,0
34990,-1.314,-0.645367,-0.0667574,0
35010,-1.32241,-0.646462,-0.0548929,0
35030,-1.32828,-0.64808,-0.0448767,0
35050,-1.33381,-0.64917,-0.0341471,0
35070,-1.34169,-0.649303,-0.0222474,0
35090,-1.34997,-0.649034,-0.00998886,0
35110,-1.35883,-0.648572,0.00200772,0
35130,-1.36781,-0.647777,0.0135379,0
35150,-1.37574,-0.646898,0.0243321,0
35170,-1.38449,-0.644585,0.0352222,0
35190,-1.39433,-0.642347,0.0462557,0
35210,-1.40174,-0.64077,0.0554338,0
35230,-1.40807,-0.639446,0.0645475,0
35250,-1.41489,-0.638491,0.073707,0
35270,-1.42179,-0.637806,0.0823194,0
35290,-1.42718,-0.637402,0.0901319,0
35310,-1.43065,-0.638188,0.09799,0
35330,-1.4359,-0.639217,0.106666,0
35350,-1.44277,-0.640347,0.115015,0
35370,-1.44686,-0.643076,0.121991,0
35390,-1.44976,-0.646216,0.129772,0
35410,-1.45449,-0.648802,0.138285,0
35430,-1.45944,-0.651877,0.145888,0
35450,-1.46483,-0.654995,0.153567,0
35470,-1.47039,-0.657882,0.162153,0
35490,-1.47603,-0.661736,0.170683,0
35510,-1.48245,-0.665275,0.179164,0
35530,-1.48998,-0.668196,0.188228,0
35550,-1.49767,-0.671104,0.197508,0
35570,-1.50502,-0.674959,0.206878,0
35590,-1.51377,-0.678465,0.217589,0
35610,-1.52349,-0.682526,0.22853,0
35630,-1.53324,-0.686917,0.238542,0
35650,-1.54256,-0.691005,0.24875,0
35670,-1.55232,-0.695828,0.259356,0
35690,-1.56216,-0.700794,0.270014,0
35710,-1.57187,-0.706239,0.280038,0
35730,-1.58065,-0.711585,0.289738,0
35750,-1.59045,-0.717275,0.300186,0
35770,-1.60066,-0.723958,0.309445,0
35790,-1.60991,-0.730313,0.31825,0
35810,-1.61766,-0.736937,0.327068,0
35830,-1.62688,-0.745186,0.336772,0
35850,-1.63635,-0.753734,0.34598,0
35870,-1.64457,-0.762428,0.354068,0
35890,-1.65354,-0.771013,0.362376,0
35910,-1.66227,-0.778787,0.369492,0
35930,-1.67066,-0.787697,0.376215,0
35950,-1.67785,-0.797028,0.382779,0
35970,-1.68409,-0.805758,0.388754,0
35990,-1.68909,-0.815678,0.393038,0
36010,-1.6937,-0.826176,0.396826,0
36030,-1.69921,-0.835263,0.400024,0
36050,-1.70376,-0.843624,0.402266,0
36070,-1.70883,-0.853765,0.404665,0
36090,-1.71434,-0.863491,0.407461,0
36110,-1.71999,-0.872949,0.410155,0
36130,-1.72652,-0.882133,0.412152,0
36150,-1.73203,-0.889884,0.412557,0
36170,-1.73718,-0.897492,0.41313,0
36190,-1.74348,-0.906297,0.41427,0
36210,-1.74932,-0.915145,0.413908,0
36230,-1.75494,-0.924239,0.413798,0
36250,-1.76014,-0.934154,0.41315,0
36270,-1.76356,-0.944316,0.410968,0
36290,-1.76773,-0.953687,0.408368,0
36310,-1.7706,-0.962729,0.403625,0
36330,-1.77096,-0.970941,0.396548,0
36350,-1.77098,-0.979671,0.38938,0
36370,-1.76915,-0.987979,0.38074,0
36390,-1.76574,-0.995863,0.370515,0
36410,-1.76384,-1.00418,0.360983,0
36430,-1.76095,-1.01265,0.350626,0
36450,-1.75617,-1.02128,0.339598,0
36470,-1.75297,-1.03062,0.329867,0
36490,-1.74934,-1.04001,0.319403,0
36510,-1.74535,-1.04976,0.30781,0
36530,-1.73995,-1.06008,0.295554,0
36550,-1.73412,-1.07005,0.283004,0
36570,-1.72606,-1.07962,0.268119,0
36590,-1.71516,-1.08735,0.250834,0
36610,-1.70107,-1.09541,0.230899,0
36630,-1.68451,-1.10374,0.208855,0
36650,-1.66804,-1.1106,0.186773,0
36670,-1.65134,-1.11609,0.163425,0
36690,-1.63325,-1.12119,0.140152,0
36710,-1.61479,-1.12542,0.11718,0
36730,-1.59583,-1.13041,0.093497,0
36750,-1.57925,-1.13426,0.072085,0
36770,-1.56371,-1.13678,0.0520121,0
36790,-1.54637,-1.13911,0.0295618,0
36810,-1.52861,-1.14103,0.00768527,0
36830,-1.51038,-1.14172,-0.0142316,0
36850,-1.4912,-1.14263,-0.0361135,0
36870,-1.47458,-1.14286,-0.055119,0
36890,-1.45828,-1.14303,-0.0739691,0
36910,-1.4391,-1.14348,-0.09498,0
36930,-1.42047,-1.14347,-0.115922,0
36950,-1.40299,-1.1416,-0.136194,0
36970,-1.38598,-1.13816,-0.157394,0
36990,-1.36947,-1.13301,-0.177107,0
37010,-1.35281,-1.12833,-0.196003,0
37030,-1.33618,-1.12406,-0.215191,0
37050,-1.32073,-1.11928,-0.232743,0
37060,-1.30642,-1.11375,-0.249211,0
37080,-1.28981,-1.10878,-0.268902,0
37100,-1.274,-1.10251,-0.287035,0
37120,-1.25903,-1.09517,-0.303627,0
37140,-1.24065,-1.0898,-0.322875,0
37160,-1.22332,-1.08514,-0.340416,0
37180,-1.20774,-1.08011,-0.356213,0
37200,-1.19231,-1.07558,-0.373532,0
37220,-1.17742,-1.07035,-0.39064,0
37240,-1.16794,-1.06282,-0.402746,0
37260,-1.1581,-1.05567,-0.415652,0
37280,-1.14724,-1.04889,-0.427806,0
37300,-1.13815,-1.04278,-0.437787,0
37320,-1.13024,-1.03777,-0.44889,0
37340,-1.12332,-1.0317,-0.460355,0
37360,-1.11785,-1.02491,-0.469873,0
37380,-1.1115,-1.01805,-0.480669,0
37400,-1.10268,-1.01217,-0.493011,0
37420,-1.09515,-1.00699,-0.502266,0
37440,-1.09031,-1.00152,-0.509824,0
37460,-1.08492,-0.995995,-0.518839,0
37480,-1.07962,-0.989893,-0.527674,0
37500,-1.0751,-0.984123,-0.534763,0
37520,-1.07163,-0.978116,-0.540451,0
37540,-1.06782,-0.973331,-0.545676,0
37560,-1.06498,-0.968922,-0.551171,0
37580,-1.06368,-0.963733,-0.555354,0
37600,-1.06292,-0.958932,-0.558598,0
37620,-1.06182,-0.95409,-0.561089,0
37640,-1.06117,-0.950026,-0.562858,0
37660,-1.06284,-0.946009,-0.563872,0
37680,-1.06577,-0.940827,-0.565116,0
37720,-1.07021,-0.930126,-0.566241,0
37740,-1.0716,-0.925144,-0.565877,0
37760,-1.07172,-0.920059,-0.566752,0
37780,-1.07197,-0.915137,-0.5683,0
37800,-1.07321,-0.90921,-0.569297,0
37820,-1.07387,-0.90314,-0.57013,0
37840,-1.07094,-0.898391,-0.572608,0
37860,-1.06847,-0.893719,-0.573266,0
37880,-1.06779,-0.889476,-0.572644,0
37900,-1.06612,-0.885474,-0.574065,0
37920,-1.06477,-0.880892,-0.574595,0
37940,-1.06667,-0.875984,-0.572314,0
37960,-1.06902,-0.871241,-0.570132,0
37980,-1.07173,-0.86652,-0.568639,0
38000,-1.0749,-0.861758,-0.565613,0
38020,-1.07752,-0.857542,-0.562475,0
38040,-1.08055,-0.854021,-0.558086,0
38060,-1.08425,-0.851627,-0.553073,0
38080,-1.08777,-0.850501,-0.548515,0
38100,-1.09148,-0.849408,-0.543875,0
38120,-1.09643,-0.848225,-0.537534,0
38140,-1.10169,-0.847438,-0.530675,0
38160,-1.10526,-0.846713,-0.525437,0
38180,-1.10984,-0.845734,-0.519082,0
38200,-1.11555,-0.844248,-0.512531,0
38220,-1.12073,-0.842894,-0.50633,0
38240,-1.12554,-0.841033,-0.499736,0
38260,-1.13084,-0.838868,-0.492198,0
38280,-1.13567,-0.836684,-0.48514,0
38300,-1.14147,-0.834899,-0.478054,0
38320,-1.14676,-0.832737,-0.470832,0
38340,-1.15167,-0.830123,-0.463737,0
38360,-1.15629,-0.827205,-0.456609,0
38380,-1.16202,-0.824805,-0.448461,0
38400,-1.16596,-0.822512,-0.440159,0
38420,-1.16848,-0.820347,-0.432208,0
38440,-1.17246,-0.818271,-0.423815,0
38460,-1.1798,-0.815511,-0.414433,0
38480,-1.18821,-0.811682,-0.405334,0
38500,-1.19643,-0.808237,-0.395291,0
38520,-1.20543,-0.804518,-0.383608,0
38540,-1.21267,-0.800663,-0.37334,0
38560,-1.21963,-0.796416,-0.363881,0
38580,-1.22762,-0.792987,-0.354142,0
38600,-1.23444,-0.790324,-0.34623,0
38620,-1.24153,-0.78679,-0.338093,0
38640,-1.2506,-0.782956,-0.327841,0
38660,-1.25928,-0.779932,-0.318569,0
38680,-1.26675,-0.777049,-0.310483,0
38700,-1.27504,-0.773069,-0.301785,0
38720,-1.2849,-0.76935,-0.292273,0
38740,-1.29369,-0.766328,-0.283495,0
38760,-1.30208,-0.763391,-0.275554,0
38780,-1.3113,-0.760586,-0.267826,0
38800,-1.3197,-0.758349,-0.260329,0
38820,-1.32781,-0.755816,-0.252858,0
38840,-1.3358,-0.753194,-0.24522,0
38860,-1.34434,-0.750763,-0.237603,0
38880,-1.35375,-0.748359,-0.230051,0
38900,-1.36336,-0.745143,-0.221893,0
38920,-1.3725,-0.742534,-0.213407,0
38940,-1.38112,-0.74027,-0.205664,0
38960,-1.3904,-0.737627,-0.197814,0
38980,-1.39819,-0.735153,-0.190378,0
39000,-1.40622,-0.732764,-0.182204,0
39020,-1.41543,-0.730816,-0.17348,0
39030,-1.42366,-0.729387,-0.164911,0
39050,-1.43116,-0.728917,-0.156679,0
39070,-1.43837,-0.727898,-0.148965,0
39090,-1.44568,-0.726898,-0.141102,0
39110,-1.45278,-0.726465,-0.133235,0
39130,-1.46033,-0.725622,-0.125905,0
39150,-1.46805,-0.724595,-0.117966,0
39170,-1.4755,-0.723927,-0.109648,0
39190,-1.48353,-0.722754,-0.101332,0
39210,-1.49246,-0.721643,-0.0931402,0
39230,-1.50111,-0.721375,-0.085101,0
39250,-1.50964,-0.720893,-0.0767335,0
39270,-1.51775,-0.720791,-0.0689977,0
39290,-1.52526,-0.721244,-0.0610049,0
39310,-1.53309,-0.721111,-0.0526827,0
39330,-1.54129,-0.721023,-0.0444872,0
39350,-1.54797,-0.721835,-0.0369327,0
39370,-1.55437,-0.72293,-0.0285004,0
39390,-1.56181,-0.723768,-0.0196139,0
39410,-1.56958,-0.724473,-0.0108726,0
39430,-1.57836,-0.725782,-0.00164038,0
39450,-1.58713,-0.72673,0.00772135,0
39470,-1.59584,-0.727759,0.0162146,0
39490,-1.6056,-0.728355,0.0253021,0
39510,-1.61496,-0.728902,0.0351536,0
39530,-1.62342,-0.730106,0.0456434,0
39550,-1.63134,-0.732708,0.0555035,0
39570,-1.63991,-0.735818,0.0656449,0
39590,-1.64803,-0.738887,0.0754886,0
39610,-1.65571,-0.742184,0.085142,0
39630,-1.665,-0.745787,0.0952615,0
39650,-1.67428,-0.749023,0.104632,0
39670,-1.6822,-0.751964,0.114511,0
39690,-1.69052,-0.755254,0.125126,0
39710,-1.69951,-0.758412,0.135364,0
39730,-1.70906,-0.76131,0.144418,0
39750,-1.71802,-0.763517,0.153134,0
39770,-1.72667,-0.765638,0.161998,0
39790,-1.73595,-0.767792,0.170327,0
39810,-1.74559,-0.768903,0.17714,0
39830,-1.753,-0.769407,0.182793,0
39850,-1.75977,-0.769726,0.188902,0
39870,-1.76765,-0.769923,0.195285,0
39890,-1.77543,-0.771002,0.200935,0
39910,-1.78174,-0.772302,0.205873,0
39930,-1.78822,-0.773179,0.210174,0
39950,-1.79534,-0.773462,0.21425,0
39970,-1.802,-0.774323,0.218445,0
39990,-1.80741,-0.775456,0.22287,0
40010,-1.81271,-0.777618,0.226994,0
40030,-1.81829,-0.779713,0.230926,0
40050,-1.8241,-0.782256,0.235136,0
40070,-1.8294,-0.785986,0.238817,0
40090,-1.83394,-0.789851,0.242541,0
40110,-1.83849,-0.793274,0.246944,0
40130,-1.84281,-0.797159,0.251821,0
40150,-1.84635,-0.801211,0.256512,0
40170,-1.85012,-0.806029,0.261457,0
40190,-1.85511,-0.811601,0.267522,0
40210,-1.86078,-0.817129,0.273193,0
40230,-1.86597,-0.822941,0.27873,0
40250,-1.87129,-0.829234,0.285603,0
40270,-1.87724,-0.836359,0.293044,0
40290,-1.88358,-0.84405,0.299608,0
40310,-1.88963,-0.850869,0.305878,0
40330,-1.89548,-0.855804,0.312706,0
40350,-1.90171,-0.861053,0.3204,0
40370,-1.90944,-0.866942,0.328985,0
40390,-1.91853,-0.872345,0.338262,0
40410,-1.92861,-0.87695,0.347271,0
40430,-1.9397,-0.880032,0.356087,2001
40450,-1.94967,-0.882016,0.364686,0
40470,-1.95975,-0.884418,0.37342,0
40490,-1.96802,-0.886803,0.380992,0
40510,-1.97615,-0.888481,0.388426,0
40530,-1.98307,-0.890036,0.395655,0
40550,-1.98964,-0.891908,0.403144,0
40570,-1.99616,-0.893555,0.410909,0
40590,-2.00164,-0.894841,0.418153,0
40610,-2.0049,-0.896446,0.424061,0
40630,-2.00617,-0.897864,0.428303,0
40650,-2.00638,-0.898559,0.431866,0
40670,-2.00551,-0.898757,0.43443,0
40690,-2.00245,-0.898121,0.435423,0
40710,-1.99714,-0.896751,0.434653,0
40730,-1.98956,-0.89475,0.432543,0
40750,-1.97686,-0.892277,0.426191,0
40770,-1.96125,-0.88787,0.418422,0
40790,-1.94332,-0.882677,0.409381,0
40810,-1.9198,-0.877122,0.396016,0
40830,-1.8937,-0.873481,0.381329,0
40850,-1.87014,-0.871387,0.368151,0
40870,-1.84861,-0.871079,0.353152,0
40890,-1.82406,-0.869659,0.33339,0
40910,-1.7972,-0.863949,0.309344,0
40930,-1.77014,-0.855928,0.285803,0
40950,-1.74524,-0.852074,0.266818,0
40970,-1.72322,-0.849237,0.250045,0
40990,-1.70273,-0.844591,0.234576,0
41010,-1.68466,-0.840634,0.219776,0
41030,-1.66626,-0.836911,0.202954,0
41050,-1.64675,-0.831959,0.184342,0
41070,-1.6252,-0.823871,0.164304,0
41090,-1.60359,-0.814371,0.145293,0
41110,-1.5808,-0.804396,0.125837,0
41130,-1.55207,-0.790851,0.103294,0
41150,-1.51732,-0.774592,0.0802417,0
41170,-1.48599,-0.757833,0.0625073,0
41190,-1.45821,-0.741852,0.0452439,0
41210,-1.42668,-0.723128,0.0224813,0
41230,-1.39648,-0.698756,0.00121237,0
41250,-1.37363,-0.673561,-0.0143741,0
41270,-1.35154,-0.649659,-0.0293066,0
41290,-1.32921,-0.624072,-0.0447785,0
41310,-1.31077,-0.59663,-0.0578706,0
41330,-1.29878,-0.57124,-0.0689031,0
41350,-1.28777,-0.547256,-0.0802882,0
41370,-1.27656,-0.52427,-0.0904815,0
41390,-1.26931,-0.503095,-0.0974091,0
41410,-1.26358,-0.485486,-0.103265,0
41430,-1.25865,-0.469639,-0.107587,0
41450,-1.25473,-0.456695,-0.109383,0
41470,-1.25125,-0.447384,-0.109652,0
41490,-1.24932,-0.440213,-0.107527,0
41510,-1.24867,-0.434035,-0.104899,0
41530,-1.24903,-0.42921,-0.101731,0
41550,-1.25069,-0.425845,-0.0976869,0
41570,-1.25299,-0.422582,-0.0931951,0
41590,-1.25482,-0.41992,-0.0884151,0
41610,-1.25634,-0.418642,-0.0826851,0
41630,-1.25732,-0.417818,-0.0768897,0
41650,-1.25793,-0.416785,-0.0713268,0
41670,-1.25953,-0.416275,-0.0658116,0
41690,-1.26155,-0.415812,-0.060471,0
41710,-1.26422,-0.414503,-0.0555103,0
41730,-1.2662,-0.412465,-0.0510014,0
41750,-1.26763,-0.410615,-0.0470995,0
41770,-1.26798,-0.407778,-0.0433768,0
41790,-1.26756,-0.404709,-0.0393144,0
41810,-1.26668,-0.40277,-0.0345751,2000
41830,-1.26524,-0.399969,-0.0296201,0
41850,-1.26433,-0.396295,-0.0246045,0
41870,-1.26424,-0.391662,-0.019355,0
41890,-1.26538,-0.387485,-0.0144741,0
41910,-1.2666,-0.384726,-0.0100559,0
41930,-1.26786,-0.381796,-0.00455834,0
41950,-1.26957,-0.378234,0.00208394,0
41970,-1.27223,-0.374893,0.00878509,0
41990,-1.27468,-0.372847,0.0157661,0
42010,-1.27751,-0.371709,0.0224063,0
42030,-1.28004,-0.371802,0.0296091,0
42050,-1.28309,-0.373304,0.0383197,0
42070,-1.28651,-0.375123,0.0474923,0
42090,-1.28965,-0.377315,0.0563082,0
42110,-1.29398,-0.3797,0.065243,0
42130,-1.29799,-0.382518,0.0741592,0
42150,-1.30207,-0.385943,0.0826776,0
42170,-1.30594,-0.38996,0.0914409,0
42190,-1.30884,-0.39409,0.0990619,0
42210,-1.31102,-0.397399,0.106025,0
42230,-1.31391,-0.400501,0.112724,0
42250,-1.3173,-0.403939,0.119049,0
42270,-1.32164,-0.40791,0.125431,0
42290,-1.3257,-0.412032,0.131584,0
42310,-1.32825,-0.416742,0.137832,0
42330,-1.33056,-0.422335,0.143959,0
42350,-1.3332,-0.427345,0.149249,0
42370,-1.33678,-0.431573,0.155649,0
42390,-1.34151,-0.436794,0.161146,0
42410,-1.34513,-0.442958,0.165537,0
42430,-1.34689,-0.4493,0.16971,0
42440,-1.34761,-0.457093,0.17318,0
42460,-1.34846,-0.46476,0.175999,0
42480,-1.35061,-0.471655,0.178377,0
42500,-1.35167,-0.479054,0.179766,0
42520,-1.35279,-0.48675,0.180989,0
42540,-1.35369,-0.493814,0.180953,0
42560,-1.3532,-0.500405,0.179452,0
42580,-1.35255,-0.50653,0.177299,0
42600,-1.35167,-0.512,0.174626,0
42620,-1.3499,-0.519359,0.170905,0
42640,-1.34792,-0.527622,0.165768,0
42660,-1.34503,-0.536095,0.158716,0
42680,-1.34118,-0.545738,0.14972,0
42700,-1.33533,-0.556101,0.138933,0
42720,-1.32925,-0.56598,0.127506,0
42740,-1.32369,-0.576231,0.116447,0
42760,-1.3192,-0.586667,0.105252,0
42780,-1.31392,-0.598402,0.0926886,0
42800,-1.30987,-0.60983,0.0807631,0
42820,-1.30734,-0.619361,0.0707716,0
42840,-1.30305,-0.629715,0.0593417,0
42860,-1.29936,-0.639783,0.0486051,0
42880,-1.29632,-0.648809,0.0378712,0
42900,-1.29275,-0.657694,0.0258022,0
42920,-1.28977,-0.666471,0.0133484,0
42940,-1.2854,-0.674972,0.000936319,0
42960,-1.28119,-0.683983,-0.0113125,0
42980,-1.27631,-0.693342,-0.0237322,0
43000,-1.26976,-0.701265,-0.0373549,0
43020,-1.26245,-0.70843,-0.0516721,0
43040,-1.2543,-0.715347,-0.0670461,0
43060,-1.24616,-0.722329,-0.0833235,0
43080,-1.23744,-0.730083,-0.0993492,0
43100,-1.22665,-0.737273,-0.115955,0
43120,-1.21495,-0.743798,-0.133393,0
43140,-1.20313,-0.749493,-0.150871,0
43160,-1.19249,-0.75473,-0.167586,0
43180,-1.18209,-0.760362,-0.183618,0
43200,-1.17028,-0.766277,-0.200565,0
43220,-1.15802,-0.772048,-0.217113,0
43240,-1.14717,-0.777233,-0.232955,0
43260,-1.13642,-0.782267,-0.24918,0
43280,-1.1247,-0.786919,-0.265376,0
43300,-1.11222,-0.791831,-0.281007,0
43320,-1.10099,-0.796818,-0.295096,0
43340,-1.09005,-0.800908,-0.308274,0
43360,-1.08035,-0.804149,-0.320949,0
43380,-1.07027,-0.807032,-0.334842,0
43400,-1.06017,-0.809379,-0.347834,0
43420,-1.05104,-0.810834,-0.358675,0
43440,-1.04234,-0.811658,-0.369988,0
43460,-1.03384,-0.811196,-0.381596,0
43480,-1.02635,-0.80956,-0.392161,0
43500,-1.01956,-0.807416,-0.401947,0
43520,-1.01309,-0.804937,-0.411022,0
43540,-1.00737,-0.801898,-0.419914,0
43560,-1.00055,-0.798092,-0.428834,0
43580,-0.99182,-0.795353,-0.43774,0
43600,-0.984352,-0.793784,-0.445577,0
43620,-0.976488,-0.792046,-0.45392,0
43640,-0.969024,-0.79043,-0.463011,0
43660,-0.961233,-0.789097,-0.473115,0
43680,-0.954276,-0.787799,-0.483502,0
43700,-0.946764,-0.785999,-0.493486,0
43720,-0.939985,-0.783658,-0.5023,0
43740,-0.93298,-0.780961,-0.510763,0
43760,-0.925246,-0.777288,-0.518348,0
43780,-0.918236,-0.774576,-0.525648,0
43800,-0.912498,-0.772503,-0.531273,0
43820,-0.908431,-0.769516,-0.535546,0
43840,-0.904666,-0.765506,-0.539836,0
43860,-0.901228,-0.761864,-0.542,0
43880,-0.896584,-0.759111,-0.543836,0
43900,-0.892052,-0.756126,-0.546729,0
43920,-0.889166,-0.751782,-0.549984,0
43940,-0.886992,-0.746598,-0.552479,0
43960,-0.885633,-0.741371,-0.554212,0
43980,-0.884681,-0.736792,-0.554998,0
44000,-0.884254,-0.732528,-0.553587,0
44020,-0.88287,-0.728254,-0.553138,0
44040,-0.88027,-0.724122,-0.552928,0
44060,-0.879963,-0.720037,-0.550929,0
44080,-0.881609,-0.715962,-0.549197,0
44100,-0.882439,-0.71147,-0.54789,0
44120,-0.883068,-0.706558,-0.545722,0
44140,-0.883077,-0.701704,-0.54335,0
44160,-0.88331,-0.696971,-0.540772,0
44180,-0.88482,-0.691876,-0.537571,0
44200,-0.886766,-0.686411,-0.534365,0
44220,-0.889092,-0.681118,-0.531749,0
44240,-0.891378,-0.67573,-0.528959,0
44260,-0.893898,-0.67024,-0.526105,0
44280,-0.896028,-0.664842,-0.522673,0
44300,-0.897931,-0.659545,-0.518835,0
44320,-0.900178,-0.654386,-0.514748,0
44340,-0.902635,-0.649649,-0.510758,0
44360,-0.903565,-0.645242,-0.506926,0
44380,-0.903401,-0.64099,-0.50316,0
44390,-0.905072,-0.636306,-0.499092,0
44410,-0.907533,-0.631234,-0.495047,0
44430,-0.910197,-0.626079,-0.489939,0
44450,-0.913727,-0.621185,-0.483133,0
44470,-0.916822,-0.617092,-0.47737,0
44490,-0.920284,-0.612524,-0.472044,0
44510,-0.925545,-0.607609,-0.466454,0
44530,-0.93056,-0.602734,-0.460863,0
44550,-0.935027,-0.598561,-0.455436,0
44570,-0.939074,-0.594169,-0.449953,0
44590,-0.943218,-0.590457,-0.444107,0
44610,-0.946667,-0.587377,-0.439401,0
44630,-0.950142,-0.583633,-0.434509,0
44650,-0.95345,-0.580192,-0.429538,0
44670,-0.956046,-0.576708,-0.425238,0
44690,-0.959099,-0.573123,-0.420727,0
44710,-0.963122,-0.569286,-0.414919,0
44730,-0.966464,-0.565944,-0.409738,0
44750,-0.968192,-0.562021,-0.405499,0
44770,-0.971033,-0.558099,-0.400378,0
44790,-0.97617,-0.554333,-0.394187,0
44810,-0.980294,-0.55065,-0.388277,0
44830,-0.983208,-0.546942,-0.382329,0
44850,-0.986288,-0.543412,-0.376122,0
44870,-0.99137,-0.539999,-0.3695,0
44890,-0.995463,-0.536839,-0.363453,0
44910,-0.998598,-0.534046,-0.356635,0
44930,-1.00576,-0.528683,-0.342742,0
44960,-1.01182,-0.524375,-0.327957,0
44980,-1.01529,-0.521919,-0.319746,0
45000,-1.0199,-0.519459,-0.311249,0
45020,-1.02496,-0.517069,-0.302441,0
45040,-1.0301,-0.514675,-0.293172,0
45060,-1.03591,-0.512213,-0.283538,0
45080,-1.04254,-0.510077,-0.273417,0
45100,-1.04954,-0.507993,-0.263082,0
45120,-1.05589,-0.506134,-0.253037,0
45140,-1.06238,-0.504409,-0.24229,0
45160,-1.06903,-0.502659,-0.231528,0
45180,-1.07607,-0.500558,-0.220831,0
45200,-1.08334,-0.498901,-0.209468,0
45220,-1.09057,-0.497504,-0.198175,0
45240,-1.09785,-0.495674,-0.18745,0
45260,-1.10587,-0.493115,-0.176553,0
45280,-1.11325,-0.491017,-0.165363,0
45300,-1.12026,-0.48871,-0.154323,0
45320,-1.1283,-0.485495,-0.143225,0
45340,-1.1371,-0.482044,-0.131182,0
45360,-1.14548,-0.480067,-0.119867,0
45380,-1.15333,-0.478275,-0.108913,0
45400,-1.16131,-0.475902,-0.0978332,0
45420,-1.1687,-0.474226,-0.0871995,0
45440,-1.17642,-0.473161,-0.0768109,0
45460,-1.18353,-0.471581,-0.0670499,0
45480,-1.19073,-0.470122,-0.0562091,0
45500,-1.19763,-0.469969,-0.0450175,0
45520,-1.20425,-0.470331,-0.0342858,0
45540,-1.21008,-0.471152,-0.0247194,0
45560,-1.21617,-0.472459,-0.0153881,0
45580,-1.22377,-0.473076,-0.00498659,0
45600,-1.23157,-0.474286,0.00542373,0
45620,-1.23777,-0.476503,0.015284,0
45640,-1.24374,-0.479437,0.0257832,0
45660,-1.24933,-0.4829,0.0360619,0
45680,-1.25415,-0.486963,0.0455353,0
45700,-1.25974,-0.491299,0.0556415,0
45720,-1.26597,-0.495551,0.0660151,0
45740,-1.27171,-0.500192,0.0768007,0
45760,-1.27766,-0.505307,0.088056,0
45780,-1.28459,-0.510077,0.0999403,0
45800,-1.29203,-0.515436,0.111997,0
45820,-1.29906,-0.521231,0.122959,0
45840,-1.30664,-0.526125,0.133501,0
45860,-1.31528,-0.530943,0.144553,0
45880,-1.32398,-0.535648,0.155958,0
45900,-1.3313,-0.540719,0.166394,0
45920,-1.33855,-0.546426,0.177072,0
45940,-1.34666,-0.550961,0.187695,0
45960,-1.35488,-0.555268,0.197589,0
45980,-1.36272,-0.559939,0.207137,0
46000,-1.37012,-0.565034,0.216117,0
46020,-1.37738,-0.570723,0.224348,0
46040,-1.38488,-0.576118,0.233189,0
46060,-1.39212,-0.582655,0.242123,0
46080,-1.39874,-0.590783,0.250959,0
46100,-1.40451,-0.600207,0.25857,0
46120,-1.41017,-0.608825,0.265531,0
46140,-1.41725,-0.618208,0.272141,0
46160,-1.42405,-0.627391,0.277948,0
46180,-1.43045,-0.636452,0.282694,0
46200,-1.43631,-0.645607,0.286632,0
46220,-1.44317,-0.655231,0.289541,0
46240,-1.44969,-0.663772,0.291809,0
46260,-1.45425,-0.672099,0.293837,0
46280,-1.45951,-0.682339,0.295783,0
46300,-1.46565,-0.692782,0.296724,0
46320,-1.47118,-0.702955,0.296496,0
46340,-1.47707,-0.712775,0.296837,0
46360,-1.48315,-0.723319,0.296757,0
46380,-1.48773,-0.733941,0.295469,0
46400,-1.49228,-0.744208,0.293695,0
46420,-1.49762,-0.753843,0.291568,0
46440,-1.50217,-0.763618,0.287364,0
46460,-1.50489,-0.772478,0.282064,0
46480,-1.50649,-0.780844,0.276411,0
46500,-1.50802,-0.790589,0.270951,0
46520,-1.50979,-0.800807,0.264469,0
46540,-1.50969,-0.811047,0.255365,0
46560,-1.50827,-0.821941,0.246119,0
46580,-1.50627,-0.833963,0.236736,0
46600,-1.50264,-0.845825,0.225432,0
46620,-1.49753,-0.857444,0.212308,0
46640,-1.49155,-0.869841,0.19789,0
46660,-1.4845,-0.882303,0.182175,0
46680,-1.47537,-0.893654,0.164698,0
46700,-1.46522,-0.903635,0.146036,0
46720,-1.45343,-0.913925,0.127468,0
46740,-1.44222,-0.924461,0.109874,0
46760,-1.43213,-0.934557,0.0932263,0
46780,-1.42097,-0.944923,0.0754815,0
46800,-1.409,-0.955206,0.0578011,0
46820,-1.39737,-0.964402,0.0408501,0
46840,-1.38623,-0.972185,0.0238309,0
46860,-1.37513,-0.980198,0.00677523,0
46880,-1.36263,-0.987692,-0.0113039,0
46900,-1.35102,-0.994158,-0.0285296,0
46920,-1.33826,-0.999973,-0.0464963,0
46940,-1.32498,-1.00482,-0.0650823,0
46960,-1.30985,-1.00948,-0.0845307,0
46980,-1.29716,-1.01377,-0.101184,0
47000,-1.28396,-1.01811,-0.118421,0
47020,-1.26948,-1.02172,-0.136816,0
47040,-1.25485,-1.02515,-0.153938,0
47060,-1.24155,-1.02813,-0.169792,0
47080,-1.22777,-1.03045,-0.184811,0
47100,-1.21595,-1.03296,-0.197116,0
47120,-1.20417,-1.03508,-0.209668,0
47140,-1.19191,-1.03678,-0.222548,0
47160,-1.18097,-1.03771,-0.23424,0
47180,-1.17115,-1.03865,-0.245278,0
47200,-1.16067,-1.03787,-0.256475,0
47220,-1.15171,-1.03629,-0.265976,0
47240,-1.14205,-1.03525,-0.2761,0
47260,-1.13321,-1.03406,-0.285256,0
47280,-1.12541,-1.03241,-0.292781,0
47300,-1.11727,-1.03082,-0.300437,0
47320,-1.10843,-1.02966,-0.309975,0
47340,-1.1012,-1.02689,-0.317625,0
47360,-1.09439,-1.02367,-0.32527,0
47380,-1.08692,-1.01993,-0.333096,0
47400,-1.08036,-1.01463,-0.33931,0
47420,-1.07528,-1.0089,-0.344263,0
47440,-1.07028,-1.00472,-0.350071,0
47460,-1.0654,-1.00035,-0.35574,0
47480,-1.06084,-0.994917,-0.361208,0
47500,-1.05753,-0.98971,-0.365122,0
47520,-1.05611,-0.984847,-0.367716,0
47540,-1.05446,-0.979648,-0.37065,0
47560,-1.05081,-0.975224,-0.375514,0
47580,-1.04637,-0.97136,-0.381349,0
47600,-1.04255,-0.966174,-0.386566,0
47620,-1.04054,-0.960609,-0.390574,0
47640,-1.03972,-0.955921,-0.393887,0
47660,-1.03707,-0.951587,-0.397877,0
47680,-1.03379,-0.947486,-0.401498,0
47700,-1.03206,-0.943356,-0.403929,0
47720,-1.03084,-0.938711,-0.406097,0
47740,-1.031,-0.933303,-0.407494,0
47760,-1.03134,-0.92754,-0.407942,0
47780,-1.0325,-0.922878,-0.40763,0
47790,-1.0342,-0.918604,-0.406325,0
47810,-1.03564,-0.914768,-0.404956,0
47830,-1.03643,-0.911042,-0.404213,0
47850,-1.03911,-0.906984,-0.401849,0
47870,-1.04311,-0.902669,-0.398619,0
47890,-1.0451,-0.898795,-0.396571,0
47910,-1.04547,-0.894434,-0.395634,0
47930,-1.04776,-0.888861,-0.392847,0
47950,-1.0511,-0.883005,-0.38983,0
47970,-1.05313,-0.877856,-0.387924,0
47990,-1.05377,-0.872391,-0.386228,0
48010,-1.05478,-0.867068,-0.383814,0
48030,-1.05707,-0.861496,-0.380605,0
48050,-1.05915,-0.855298,-0.377483,0
48070,-1.06025,-0.849189,-0.374481,0
48090,-1.06024,-0.843829,-0.371523,0
48110,-1.06219,-0.838973,-0.367793,0
48130,-1.06581,-0.832841,-0.362609,0
48150,-1.06893,-0.826915,-0.357185,0
48170,-1.07104,-0.821476,-0.351535,0
48190,-1.0741,-0.816189,-0.345055,0
48210,-1.07848,-0.811223,-0.338743,0
48230,-1.08282,-0.806468,-0.333058,0
48250,-1.08813,-0.800705,-0.326401,0
48270,-1.09339,-0.795317,-0.319483,0
48290,-1.09758,-0.790971,-0.31255,0
48310,-1.10204,-0.787042,-0.304742,0
48330,-1.10682,-0.783622,-0.297103,0
48350,-1.11149,-0.780689,-0.289857,0
48370,-1.11571,-0.778698,-0.28252,0
48390,-1.11922,-0.776868,-0.274253,0
48410,-1.12436,-0.774984,-0.264543,0
48430,-1.13032,-0.773033,-0.255239,0
48450,-1.13633,-0.770383,-0.246073,0
48470,-1.1422,-0.766448,-0.236484,0
48490,-1.14749,-0.762576,-0.227387,0
48510,-1.15326,-0.758492,-0.217101,0
48530,-1.16043,-0.754049,-0.206307,0
48550,-1.16754,-0.749155,-0.19634,0
48570,-1.17334,-0.744041,-0.186589,0
48590,-1.17908,-0.740118,-0.176206,0
48610,-1.18497,-0.736621,-0.16599,0
48630,-1.19105,-0.732762,-0.15547,0
48650,-1.19809,-0.729466,-0.144269,0
48670,-1.20442,-0.726753,-0.133648,0
48690,-1.20997,-0.723944,-0.123328,0
48710,-1.21724,-0.720569,-0.111741,0
48730,-1.22499,-0.718385,-0.100154,0
48750,-1.23172,-0.716089,-0.0885258,0
48770,-1.23881,-0.713614,-0.0763499,0
48790,-1.24749,-0.711567,-0.0635574,0
48810,-1.25647,-0.709238,-0.0512416,0
48830,-1.26454,-0.707223,-0.0389641,0
48850,-1.27383,-0.705153,-0.0251604,0
48870,-1.28434,-0.702347,-0.0111295,0
48890,-1.29394,-0.69911,0.00252639,0
48910,-1.30226,-0.696449,0.0165617,0
48930,-1.30899,-0.693956,0.030547,0
48950,-1.31602,-0.69145,0.0439316,0
48970,-1.32609,-0.688685,0.057269,0
48990,-1.33735,-0.684294,0.0699,0
49010,-1.34767,-0.679907,0.082524,0
49030,-1.35649,-0.676082,0.0967561,0
49050,-1.36601,-0.673188,0.110293,0
49070,-1.37599,-0.669855,0.122283,0
49090,-1.3856,-0.666171,0.133209,0
49110,-1.39316,-0.663152,0.144532,0
49130,-1.39901,-0.660164,0.156093,0
49150,-1.40608,-0.658382,0.167498,0
49170,-1.41536,-0.656625,0.179728,0
49190,-1.42384,-0.653984,0.192705,0
49210,-1.43267,-0.651542,0.206672,0
49230,-1.44407,-0.650376,0.221439,0
49250,-1.45682,-0.649761,0.234703,0
49270,-1.46884,-0.650107,0.247873,0
49290,-1.47966,-0.650779,0.262714,0
49310,-1.48892,-0.651895,0.277949,0
49330,-1.49865,-0.654991,0.291594,0
49350,-1.51087,-0.658534,0.305465,0
49370,-1.52499,-0.662309,0.318405,0
49390,-1.53642,-0.666451,0.331451,0
49410,-1.54752,-0.6717,0.345906,0
49430,-1.55964,-0.677689,0.360221,0
49450,-1.57185,-0.683285,0.372545,0
49470,-1.58515,-0.688762,0.385066,0
49490,-1.59917,-0.694175,0.397601,0
49510,-1.61208,-0.699652,0.409943,0
49530,-1.62543,-0.705003,0.422489,0
49550,-1.63976,-0.710607,0.434298,0
49570,-1.65199,-0.715909,0.444854,0
49590,-1.66359,-0.721967,0.45547,0
49610,-1.67473,-0.728367,0.465022,0
49630,-1.68602,-0.734379,0.473009,0
49650,-1.69626,-0.739278,0.479918,0
49670,-1.70601,-0.745157,0.486897,0
49690,-1.71578,-0.75113,0.494334,0
49710,-1.72499,-0.757498,0.501355,0
49730,-1.73453,-0.764059,0.507461,0
49740,-1.74275,-0.770974,0.512123,0
49760,-1.75134,-0.778084,0.516978,0
49780,-1.76033,-0.784783,0.520966,0
49800,-1.76825,-0.792627,0.523743,0
49820,-1.77573,-0.800999,0.526322,0
49840,-1.7824,-0.808374,0.528607,0
49860,-1.78895,-0.815429,0.529851,0
49880,-1.79586,-0.823952,0.531155,0
49900,-1.80215,-0.832278,0.531996,0
49920,-1.8089,-0.840464,0.532476,0
49940,-1.8162,-0.849186,0.532689,0
49960,-1.82254,-0.857171,0.531932,0
49980,-1.8288,-0.865918,0.531434,0
50000,-1.83509,-0.876325,0.531348,0
50020,-1.84039,-0.886643,0.529908,0
50040,-1.84529,-0.896899,0.527329,0
50060,-1.8512,-0.906495,0.524695,0
50080,-1.85516,-0.915548,0.52031,0
50100,-1.85799,-0.925358,0.515529,0
50120,-1.8609,-0.935556,0.51113,0
50140,-1.86323,-0.945462,0.505593,0
50160,-1.86403,-0.955443,0.498133,0
50180,-1.86418,-0.96556,0.489996,0
50200,-1.86287,-0.975508,0.480368,0
50220,-1.85832,-0.98633,0.46846,0
50240,-1.85253,-0.99691,0.456493,0
50250,-1.84686,-1.00794,0.444879,0
50270,-1.84242,-1.01924,0.43373,0
50290,-1.83752,-1.02961,0.421508,0
50310,-1.83133,-1.04007,0.407893,0
50330,-1.82488,-1.05101,0.394446,0
50350,-1.81898,-1.06187,0.382168,0
50370,-1.81315,-1.07309,0.36853,0
50390,-1.80612,-1.08401,0.354149,0
50410,-1.7984,-1.0936,0.33957,0
50430,-1.78912,-1.10357,0.322951,0
50450,-1.77694,-1.11389,0.303032,0
50470,-1.7613,-1.12308,0.280117,0
50490,-1.74151,-1.12986,0.253589,0
50510,-1.71826,-1.13516,0.224065,0
50530,-1.69319,-1.13974,0.194257,0
50550,-1.66598,-1.1432,0.163531,0
50570,-1.63715,-1.14543,0.130874,0
50590,-1.60752,-1.14577,0.0976606,0
50610,-1.57833,-1.14516,0.0655118,0
50630,-1.55233,-1.14409,0.0359921,0
50650,-1.52714,-1.14242,0.00655675,0
50670,-1.50097,-1.13982,-0.0231357,0
50690,-1.47745,-1.13708,-0.0506981,0
50710,-1.45584,-1.13417,-0.0758955,0
50730,-1.43558,-1.13102,-0.0998172,0
50750,-1.41427,-1.12776,-0.12483,0
50770,-1.39522,-1.12437,-0.148495,0
50790,-1.3762,-1.11993,-0.173105,0
50810,-1.35819,-1.11513,-0.195779,0
50830,-1.34362,-1.11037,-0.215344,0
50850,-1.33068,-1.1055,-0.234256,0
50870,-1.31506,-1.10048,-0.253815,0
50890,-1.2993,-1.09522,-0.271504,0
50910,-1.28407,-1.09021,-0.288705,0
50930,-1.27107,-1.08619,-0.304793,0
50950,-1.25947,-1.08123,-0.320368,0
50970,-1.24747,-1.07575,-0.33557,0
50990,-1.23804,-1.07032,-0.347464,0
51010,-1.23085,-1.06494,-0.357136,0
51030,-1.22238,-1.05971,-0.367715,0
51050,-1.21216,-1.05466,-0.379612,0
51070,-1.20329,-1.04994,-0.3903,0
51090,-1.19644,-1.04387,-0.399806,0
51110,-1.19009,-1.03774,-0.408026,0
51130,-1.18492,-1.03332,-0.413738,0
51150,-1.18028,-1.0296,-0.419306,0
51170,-1.17608,-1.02606,-0.424601,0
51190,-1.17279,-1.02334,-0.429689,0
51210,-1.17234,-1.01989,-0.432272,0
51230,-1.1735,-1.01523,-0.433266,0
51250,-1.17187,-1.01058,-0.436634,0
51270,-1.16967,-1.00547,-0.440168,0
51290,-1.1694,-0.999725,-0.443147,0
51310,-1.16877,-0.993135,-0.448035,0
51330,-1.16656,-0.985516,-0.45242,0
51350,-1.1641,-0.979256,-0.455215,0
51370,-1.15937,-0.974318,-0.457985,0
51390,-1.15532,-0.970136,-0.45973,0
51410,-1.15245,-0.96599,-0.461977,0
51430,-1.14929,-0.961715,-0.464725,0
51450,-1.14703,-0.957356,-0.465547,0
51470,-1.14693,-0.952852,-0.464106,0
51490,-1.14667,-0.948605,-0.463136,0
51510,-1.14578,-0.94452,-0.461978,0
51530,-1.14701,-0.939889,-0.458488,0
51550,-1.15115,-0.934936,-0.453963,0
51570,-1.15439,-0.929864,-0.450997,0
51590,-1.15559,-0.925172,-0.448167,0
51610,-1.15992,-0.920719,-0.442072,0
51630,-1.16696,-0.915649,-0.43517,0
51650,-1.17565,-0.910191,-0.428611,0
51670,-1.1827,-0.90467,-0.42229,0
51690,-1.1898,-0.899617,-0.416019,0
51710,-1.1972,-0.894096,-0.409597,0
51730,-1.20513,-0.888967,-0.401702,0
51750,-1.21352,-0.885136,-0.393424,0
51770,-1.22099,-0.881283,-0.38666,0
51790,-1.22732,-0.876635,-0.380042,0
51810,-1.23525,-0.871922,-0.371957,0
51830,-1.24295,-0.867089,-0.364097,0
51850,-1.25003,-0.861661,-0.356406,0
51870,-1.25863,-0.856801,-0.347913,0
51890,-1.26785,-0.851933,-0.339131,0
51910,-1.27632,-0.846337,-0.330359,0
51930,-1.28466,-0.841176,-0.321099,0
51950,-1.2944,-0.836506,-0.311128,0
51970,-1.30307,-0.831841,-0.302123,0
51990,-1.31074,-0.827967,-0.292756,0
52010,-1.32096,-0.824272,-0.281594,0
52030,-1.3297,-0.820668,-0.272106,0
52050,-1.33538,-0.817992,-0.264391,0
52070,-1.34155,-0.815337,-0.255648,0
52090,-1.34815,-0.812635,-0.246676,0
52110,-1.35329,-0.811002,-0.239071,0
52130,-1.35904,-0.809113,-0.231059,0
52150,-1.36661,-0.806975,-0.22221,0
52170,-1.37308,-0.804929,-0.214513,0
52190,-1.37914,-0.803475,-0.207018,0
52210,-1.38697,-0.801422,-0.198507,0
52230,-1.39392,-0.798972,-0.191243,0
52250,-1.40047,-0.796197,-0.18386,0
52270,-1.40736,-0.793739,-0.175748,0
52290,-1.41543,-0.79143,-0.16748,0
52310,-1.42323,-0.787938,-0.159398,0
52330,-1.43058,-0.785491,-0.151086,0
52350,-1.43842,-0.78328,-0.141484,0
52370,-1.44733,-0.781194,-0.1316,0
52390,-1.45617,-0.779787,-0.122003,0
52410,-1.4635,-0.779717,-0.112351,0
52430,-1.47088,-0.780062,-0.102018,0
52450,-1.47986,-0.78018,-0.0907636,0
52470,-1.48942,-0.780038,-0.0797951,0
52490,-1.49711,-0.78006,-0.0697067,0
52510,-1.50444,-0.780877,-0.059532,0
52530,-1.51205,-0.782207,-0.0492402,0
52550,-1.51996,-0.783446,-0.038759,0
52570,-1.5284,-0.784037,-0.0274119,0
52590,-1.53707,-0.78452,-0.0164732,0
52610,-1.54568,-0.784503,-0.00623233,0
52630,-1.55443,-0.784277,0.00441371,0
52650,-1.56462,-0.784056,0.0161506,0
52670,-1.57523,-0.78384,0.0274192,0
52690,-1.58509,-0.783669,0.0384515,0
52710,-1.59534,-0.783204,0.0496767,0
52730,-1.60587,-0.782507,0.0607957,0
52750,-1.61711,-0.781582,0.0723245,0
52770,-1.62775,-0.780912,0.0829292,0
52790,-1.63624,-0.780459,0.093001,0
52810,-1.64584,-0.780339,0.104237,0
52830,-1.65575,-0.780636,0.115152,0
52850,-1.66485,-0.780342,0.124787,0
52870,-1.67435,-0.780122,0.134623,0
52890,-1.68412,-0.780083,0.144359,0
52910,-1.69394,-0.779713,0.153628,0
52930,-1.70206,-0.779336,0.162081,0
52950,-1.70964,-0.779259,0.170944,0
52970,-1.7178,-0.779604,0.179255,0
52990,-1.72508,-0.779745,0.186331,0
53010,-1.7312,-0.780103,0.193889,0
53030,-1.73848,-0.781082,0.202206,0
53050,-1.74573,-0.782825,0.210211,0
53070,-1.75331,-0.78405,0.217865,0
53090,-1.7625,-0.78484,0.226414,0
53110,-1.77197,-0.785061,0.235098,0
53130,-1.78152,-0.78565,0.244215,0
53150,-1.79126,-0.786463,0.254798,0
53160,-1.80246,-0.788972,0.266639,0
53180,-1.81572,-0.792301,0.278886,0
53200,-1.82938,-0.795319,0.291147,0
53220,-1.84343,-0.798022,0.303412,0
53240,-1.85759,-0.800049,0.316031,0
53260,-1.87254,-0.802358,0.329396,0
53280,-1.88698,-0.805417,0.343475,0
53300,-1.9012,-0.808643,0.358587,0
53320,-1.91565,-0.811804,0.373487,0
53340,-1.9301,-0.81505,0.388012,0
53360,-1.94584,-0.818331,0.403461,0
53380,-1.96251,-0.822178,0.418504,0
53400,-1.97781,-0.826729,0.432427,0
53420,-1.99171,-0.831011,0.446272,0
53440,-2.00519,-0.835142,0.460664,0
53460,-2.01817,-0.839547,0.474125,0
53480,-2.03108,-0.844824,0.486805,0
53500,-2.04308,-0.850775,0.498553,0
53520,-2.05364,-0.856559,0.510441,0
53540,-2.06622,-0.863188,0.523109,0
53560,-2.07824,-0.86971,0.534765,0
53580,-2.08779,-0.875727,0.543881,0
53600,-2.09785,-0.881926,0.553679,0
53620,-2.10717,-0.887611,0.562039,2001
53640,-2.11461,-0.892752,0.568307,0
53660,-2.12192,-0.89837,0.575121,0
53680,-2.12889,-0.904095,0.581477,0
53700,-2.13169,-0.907839,0.583743,0
53720,-2.13355,-0.912042,0.583838,0
53740,-2.13392,-0.914944,0.582491,0
53760,-2.13294,-0.917172,0.57957,0
53780,-2.13059,-0.918804,0.575719,0
53800,-2.126,-0.921318,0.570812,0
53820,-2.1198,-0.923483,0.564565,0
53840,-2.11484,-0.924222,0.559588,0
53860,-2.11125,-0.92576,0.555616,0
53880,-2.10732,-0.929593,0.550264,0
53900,-2.10073,-0.933715,0.544631,0
53920,-2.09554,-0.939512,0.541574,0
53940,-2.09114,-0.945339,0.538902,0
53960,-2.08542,-0.949492,0.534366,0
53980,-2.07786,-0.953107,0.528072,0
54000,-2.06894,-0.956142,0.521626,0
54020,-2.05999,-0.958072,0.514789,0
54040,-2.04941,-0.95834,0.506693,0
54060,-2.03611,-0.957073,0.497038,0
54080,-2.02275,-0.954903,0.48693,0
54100,-2.0074,-0.952772,0.474439,0
54120,-1.9881,-0.949601,0.457701,0
54140,-1.96251,-0.942893,0.435037,0
54160,-1.93222,-0.934389,0.41127,0
54180,-1.90058,-0.929541,0.388527,0
54200,-1.86652,-0.926176,0.363532,0
54220,-1.82633,-0.917948,0.331683,0
54240,-1.78445,-0.904066,0.298094,0
54260,-1.74279,-0.891665,0.264688,0
54280,-1.69896,-0.880662,0.228975,0
54300,-1.6524,-0.867148,0.191593,0
54320,-1.60882,-0.849302,0.157273,0
54340,-1.56764,-0.832068,0.122635,0
54360,-1.52487,-0.812141,0.0852854,0
54380,-1.48338,-0.785359,0.0523838,0
54400,-1.45219,-0.756713,0.0286525,0
54420,-1.42737,-0.7316,0.00753574,0
54440,-1.40242,-0.706321,-0.0136316,0
54460,-1.38028,-0.680783,-0.0312526,0
54480,-1.36128,-0.656192,-0.0428734,0
54500,-1.34362,-0.633857,-0.0518479,0
54520,-1.3267,-0.614066,-0.0596802,0
54540,-1.31193,-0.595392,-0.0666356,0
54560,-1.30035,-0.577623,-0.0723651,0
54580,-1.29128,-0.558856,-0.0775875,0
54600,-1.28458,-0.539984,-0.0816933,0
54620,-1.27701,-0.522514,-0.0861085,0
54640,-1.2718,-0.505503,-0.0891922,0
54660,-1.26787,-0.487248,-0.0923819,0
54680,-1.26506,-0.469839,-0.0954304,0
54700,-1.26201,-0.454143,-0.0984854,0
54720,-1.25912,-0.440178,-0.101056,0
54740,-1.25649,-0.426853,-0.102269,0
54760,-1.25496,-0.415172,-0.10223,0
54780,-1.2549,-0.40528,-0.101274,0
54800,-1.25322,-0.396901,-0.100929,0
54820,-1.25042,-0.39012,-0.0999059,0
54840,-1.24886,-0.384528,-0.0976494,0
54860,-1.24978,-0.379744,-0.0939715,0
54880,-1.25212,-0.3763,-0.0899008,0
54900,-1.25293,-0.374381,-0.0855928,0
54920,-1.25383,-0.372833,-0.0801009,0
54940,-1.25436,-0.37169,-0.074209,0
54960,-1.25578,-0.371329,-0.0689752,0
54980,-1.25703,-0.370862,-0.0638521,0
55000,-1.25804,-0.3706,-0.0586523,0
55020,-1.25818,-0.370627,-0.0532067,0
55040,-1.25862,-0.371201,-0.0482332,0
55060,-1.26012,-0.371218,-0.0439455,0
55080,-1.26198,-0.370975,-0.0402767,0
55100,-1.26431,-0.370569,-0.0362968,0
55120,-1.26606,-0.369783,-0.0319329,0
55140,-1.26929,-0.368796,-0.027001,2000
55150,-1.27255,-0.36814,-0.0221155,0
55170,-1.27633,-0.366904,-0.0174064,0
55190,-1.2789,-0.36567,-0.0133719,0
55210,-1.28071,-0.365402,-0.00997052,0
55230,-1.28244,-0.36484,-0.00681481,0
55250,-1.28544,-0.363305,-0.00295168,0
55270,-1.28927,-0.361802,0.00223142,0
55290,-1.2925,-0.360878,0.00693162,0
55310,-1.29563,-0.360374,0.0116508,0
55330,-1.29903,-0.359691,0.017052,0
55350,-1.30177,-0.35932,0.022729,0
55370,-1.30277,-0.359061,0.0281663,0
55390,-1.30393,-0.358802,0.0344374,0
55410,-1.30509,-0.35896,0.0409921,0
55430,-1.30658,-0.360472,0.048065,0
55450,-1.30849,-0.362013,0.055571,0
55470,-1.3105,-0.363018,0.0629766,0
55490,-1.31159,-0.363955,0.0697067,0
55510,-1.31288,-0.365461,0.0767559,0
55530,-1.31391,-0.367539,0.0834299,0
55550,-1.3147,-0.369971,0.0892168,0
55570,-1.31542,-0.371934,0.0943552,0
55590,-1.31505,-0.373178,0.0992847,0
55610,-1.31327,-0.375466,0.104543,0
55630,-1.31156,-0.378652,0.109267,0
55650,-1.30962,-0.382284,0.113185,0
55670,-1.30739,-0.385711,0.116529,0
55690,-1.30512,-0.389506,0.120003,0
55710,-1.30308,-0.393327,0.123695,0
55730,-1.30065,-0.398084,0.127369,0
55750,-1.29905,-0.403518,0.131111,0
55770,-1.29819,-0.408702,0.13423,0
55790,-1.2972,-0.413811,0.137427,0
55810,-1.29595,-0.419199,0.140447,0
55830,-1.29454,-0.4249,0.143036,0
55850,-1.29384,-0.430674,0.14522,0
55870,-1.29288,-0.436314,0.147107,0
55890,-1.29231,-0.442987,0.148757,0
55910,-1.29229,-0.449412,0.149754,0
55930,-1.29248,-0.455362,0.150774,0
55950,-1.29422,-0.461153,0.152881,0
55970,-1.29788,-0.466503,0.156045,0
55990,-1.30208,-0.4731,0.159193,0
56010,-1.30585,-0.480713,0.161995,0
56030,-1.30967,-0.488652,0.163996,0
56050,-1.31362,-0.496089,0.165665,0
56070,-1.31799,-0.502862,0.167646,0
56090,-1.32131,-0.509723,0.168564,0
56110,-1.32267,-0.51724,0.168134,0
56130,-1.32411,-0.524732,0.167364,0
56150,-1.32584,-0.532091,0.166171,0
56170,-1.32684,-0.540259,0.163876,0
56190,-1.32778,-0.548309,0.161061,0
56210,-1.32776,-0.556365,0.156802,0
56230,-1.32677,-0.565187,0.151366,0
56250,-1.32471,-0.573409,0.145204,0
56270,-1.32223,-0.581503,0.138449,0
56290,-1.31997,-0.589636,0.131001,0
56310,-1.31732,-0.597602,0.122583,0
56330,-1.31266,-0.604957,0.113132,0
56350,-1.30837,-0.61289,0.103382,0
56370,-1.30513,-0.620433,0.0938842,0
56390,-1.30225,-0.626698,0.0837663,0
56410,-1.2984,-0.633812,0.0730361,0
56430,-1.29517,-0.6405,0.063021,0
56450,-1.29115,-0.647078,0.0519453,0
56470,-1.28639,-0.654146,0.0401704,0
56490,-1.28195,-0.661321,0.0284603,0
56510,-1.27729,-0.66811,0.0164683,0
56530,-1.2713,-0.674581,0.00370512,0
56550,-1.26515,-0.681499,-0.00876073,0
56570,-1.25966,-0.689063,-0.0215428,0
56590,-1.25377,-0.696371,-0.034862,0
56610,-1.24663,-0.702977,-0.0487338,0
56630,-1.23911,-0.709445,-0.0625009,0
56650,-1.23223,-0.715824,-0.0757835,0
56670,-1.2238,-0.722532,-0.0898907,0
56690,-1.21511,-0.730093,-0.103707,0
56710,-1.20626,-0.737844,-0.117603,0
56730,-1.19725,-0.744897,-0.131661,0
56750,-1.18867,-0.751997,-0.145309,0
56770,-1.17983,-0.758991,-0.159096,0
56790,-1.16995,-0.765973,-0.173799,0
56810,-1.16089,-0.773035,-0.187482,0
56830,-1.15172,-0.779676,-0.201003,0
56850,-1.14243,-0.785807,-0.214463,0
56870,-1.13297,-0.792187,-0.227405,0
56890,-1.12428,-0.798225,-0.240257,0
56910,-1.11489,-0.802434,-0.25366,0
56930,-1.10553,-0.805603,-0.266073,0
56950,-1.09722,-0.808126,-0.276987,0
56970,-1.08878,-0.811699,-0.288785,0
56990,-1.07842,-0.815489,-0.301277,0
57010,-1.06829,-0.819179,-0.312907,0
57030,-1.0592,-0.822562,-0.323542,0
57050,-1.0505,-0.825077,-0.333355,0
57070,-1.04191,-0.827758,-0.343474,0
57090,-1.03255,-0.830625,-0.354028,0
57110,-1.0234,-0.832513,-0.363688,0
57130,-1.01557,-0.834037,-0.371698,0
57150,-1.00787,-0.834745,-0.379825,0
57170,-0.998475,-0.835471,-0.390185,0
57190,-0.99016,-0.835695,-0.399558,0
57210,-0.983234,-0.834905,-0.407323,0
57230,-0.975926,-0.833789,-0.415093,0
57250,-0.970484,-0.83158,-0.420714,0
57270,-0.965997,-0.828577,-0.42507,0
57290,-0.961112,-0.825554,-0.430684,0
57310,-0.954139,-0.82282,-0.437834,0
57330,-0.949439,-0.819106,-0.442669,0
57350,-0.946924,-0.815298,-0.447012,0
57370,-0.943941,-0.811094,-0.45176,0
57390,-0.939994,-0.806989,-0.455632,0
57410,-0.937392,-0.803614,-0.456734,0
57430,-0.935952,-0.801432,-0.457792,0
57450,-0.935803,-0.798421,-0.458981,0
57470,-0.939492,-0.793827,-0.458375,0
57490,-0.942989,-0.788695,-0.45722,0
57510,-0.944472,-0.784237,-0.456969,0
57530,-0.944596,-0.780431,-0.456818,0
57550,-0.945969,-0.776735,-0.45669,0
57570,-0.947908,-0.772597,-0.45767,0
57590,-0.948517,-0.768324,-0.460091,0
57610,-0.949478,-0.765227,-0.461067,0
57630,-0.948807,-0.763514,-0.461842,0
57650,-0.945583,-0.761965,-0.464259,0
57670,-0.942891,-0.759866,-0.466594,0
57690,-0.942944,-0.757539,-0.467289,0
57710,-0.943542,-0.754587,-0.467745,0
57730,-0.943089,-0.750966,-0.469321,0
57750,-0.942219,-0.747158,-0.470111,0
57770,-0.941905,-0.743004,-0.46965,0
57790,-0.941923,-0.738403,-0.47043,0
57810,-0.941087,-0.733575,-0.472406,0
57830,-0.941804,-0.727311,-0.472788,0
57850,-0.941313,-0.72121,-0.473777,0
57870,-0.940596,-0.715672,-0.474678,0
57890,-0.940452,-0.710297,-0.475191,0
57910,-0.939976,-0.704855,-0.475815,0
57930,-0.938871,-0.69949,-0.477008,0
57950,-0.938238,-0.693877,-0.477951,0
57970,-0.93841,-0.687174,-0.478109,0
57990,-0.939646,-0.680981,-0.478692,0
58010,-0.940262,-0.674955,-0.478965,0
58030,-0.940721,-0.668939,-0.478891,0
58050,-0.941333,-0.662907,-0.478171,0
58070,-0.943372,-0.656445,-0.476676,0
58090,-0.945956,-0.650323,-0.475402,0
58110,-0.946828,-0.644291,-0.475008,0
58130,-0.948243,-0.638066,-0.47289,0
58150,-0.952163,-0.632423,-0.469275,0
58170,-0.956595,-0.627056,-0.467111,0
58190,-0.960351,-0.62075,-0.464795,0
58210,-0.964587,-0.61426,-0.460581,0
58230,-0.970705,-0.608883,-0.455861,0
58250,-0.975635,-0.60304,-0.452392,0
58270,-0.980399,-0.59683,-0.448464,0
58290,-0.985651,-0.59146,-0.443705,0
58310,-0.990532,-0.586951,-0.439726,0
58330,-0.994683,-0.582496,-0.435628,0
58350,-0.998969,-0.578503,-0.431275,0
58370,-1.00247,-0.574848,-0.42751,0
58390,-1.00608,-0.571012,-0.423433,0
58410,-1.00967,-0.56756,-0.418775,0
58430,-1.01388,-0.564798,-0.413278,0
58450,-1.01826,-0.561955,-0.407844,0
58470,-1.02322,-0.559307,-0.402156,0
58490,-1.02785,-0.556373,-0.396722,0
58510,-1.03206,-0.553027,-0.391133,0
58530,-1.03603,-0.549677,-0.384989,0
58540,-1.0404,-0.546415,-0.379036,0
58560,-1.04405,-0.54263,-0.372915,0
58580,-1.04806,-0.539385,-0.365382,0
58600,-1.05241,-0.53603,-0.358478,0
58620,-1.0569,-0.531692,-0.351847,0
58640,-1.0621,-0.526945,-0.344196,0
58660,-1.06821,-0.523028,-0.335881,0
58680,-1.07375,-0.518975,-0.327681,0
58700,-1.07949,-0.515164,-0.319404,0
58720,-1.08555,-0.51133,-0.310762,0
58740,-1.09136,-0.507823,-0.302614,0
58760,-1.09621,-0.504809,-0.294868,0
58780,-1.10107,-0.502188,-0.28594,0
58800,-1.10631,-0.500203,-0.277681,0
58820,-1.11137,-0.497293,-0.269,0
58840,-1.11758,-0.494941,-0.259412,0
58860,-1.12355,-0.492731,-0.250219,0
58880,-1.12964,-0.489657,-0.241088,0
58900,-1.13553,-0.486562,-0.231424,0
58920,-1.14262,-0.48351,-0.221633,0
58940,-1.14941,-0.48005,-0.211911,0
58960,-1.15607,-0.476685,-0.201798,0
58980,-1.16326,-0.474284,-0.191045,0
59000,-1.17042,-0.472063,-0.180448,0
59020,-1.1779,-0.469737,-0.169682,0
59040,-1.18502,-0.467939,-0.158605,0
59060,-1.19248,-0.466567,-0.147055,0
59080,-1.19938,-0.465455,-0.136165,0
59100,-1.20624,-0.464524,-0.124993,0
59120,-1.21409,-0.463205,-0.112617,0
59140,-1.22032,-0.462868,-0.0998707,0
59160,-1.22621,-0.464596,-0.0857066,0
59180,-1.23306,-0.467918,-0.0714228,0
59200,-1.24069,-0.471826,-0.0573814,0
59220,-1.2491,-0.475506,-0.043089,0
59240,-1.25694,-0.479212,-0.0284355,0
59260,-1.26529,-0.482636,-0.0135343,0
59280,-1.27401,-0.485823,0.00127022,0
59300,-1.28162,-0.489944,0.0153207,0
59320,-1.28958,-0.493846,0.0296996,0
59340,-1.29788,-0.497494,0.044425,0
59360,-1.30603,-0.500779,0.0578531,0
59380,-1.31409,-0.504387,0.0701579,0
59400,-1.32187,-0.507432,0.0826739,0
59420,-1.3289,-0.510461,0.0943896,0
59440,-1.33558,-0.514658,0.105749,0
59460,-1.34177,-0.518656,0.116848,0
59480,-1.3472,-0.522226,0.127673,0
59500,-1.35436,-0.526923,0.138045,0
59520,-1.36176,-0.532608,0.147444,0
59540,-1.36808,-0.538217,0.156724,0
59560,-1.37432,-0.543548,0.166142,0
59580,-1.38138,-0.548328,0.17578,0
59600,-1.38926,-0.553566,0.185216,0
59620,-1.3966,-0.559073,0.193438,0
59640,-1.40228,-0.56373,0.200756,0
59660,-1.40626,-0.569885,0.207644,0
59680,-1.41074,-0.575074,0.21395,0
59700,-1.41466,-0.580851,0.218899,0
59720,-1.41845,-0.586807,0.223212,0
59740,-1.42141,-0.593637,0.227379,0
59760,-1.42492,-0.601107,0.231797,0
59780,-1.4301,-0.608956,0.236117,0
59800,-1.43522,-0.617593,0.239358,0
59820,-1.44011,-0.626217,0.242663,0
59840,-1.44593,-0.634718,0.246531,0
59860,-1.45136,-0.64255,0.249521,0
59880,-1.45589,-0.650457,0.252532,0
59900,-1.46085,-0.659051,0.255735,0
59920,-1.46637,-0.668019,0.258523,0
59940,-1.47172,-0.676264,0.260693,0
59960,-1.47624,-0.685599,0.263182,0
59980,-1.4812,-0.694877,0.266536,0
60000,-1.48608,-0.704336,0.269357,0
60020,-1.49154,-0.714581,0.271729,0
60040,-1.49725,-0.724624,0.274271,0
60060,-1.50412,-0.734408,0.277503,0
60080,-1.50972,-0.744515,0.27972,0
60100,-1.51571,-0.755283,0.281876,0
60120,-1.52237,-0.76578,0.283419,0
60140,-1.52765,-0.774331,0.28263,0
60160,-1.53074,-0.783712,0.280398,0
60180,-1.53427,-0.794007,0.279061,0
60200,-1.53784,-0.805077,0.276638,0
60220,-1.54162,-0.815485,0.273138,0
60240,-1.54583,-0.826029,0.268952,0
60260,-1.54761,-0.835999,0.263413,0
60280,-1.54765,-0.844592,0.256625,0
60300,-1.54788,-0.854119,0.249604,0
60320,-1.54827,-0.863831,0.242017,0
60340,-1.5483,-0.873835,0.233874,0
60360,-1.54702,-0.883219,0.224572,0
60380,-1.54505,-0.893467,0.214519,0
60400,-1.54199,-0.903137,0.203761,0
60420,-1.53792,-0.912614,0.192684,0
60440,-1.5346,-0.921774,0.181399,0
60460,-1.52933,-0.931471,0.168416,0
60480,-1.52264,-0.940866,0.154561,0
60500,-1.51486,-0.949863,0.139876,0
60510,-1.50586,-0.959053,0.124209,0
60530,-1.49582,-0.967683,0.107646,0
60550,-1.48373,-0.975468,0.0892589,0
60570,-1.47097,-0.983777,0.0715997,0
60590,-1.45931,-0.991703,0.0553206,0
60610,-1.44643,-0.998145,0.0383202,0
60630,-1.4332,-1.00388,0.0210561,0
60650,-1.4198,-1.00967,0.00342361,0
60670,-1.40837,-1.01406,-0.0123636,0
60690,-1.39761,-1.01703,-0.0266817,0
60710,-1.38659,-1.01988,-0.041122,0
60730,-1.37508,-1.02116,-0.0558229,0
60750,-1.36512,-1.02262,-0.0686233,0
60770,-1.35589,-1.02409,-0.0806878,0
60790,-1.34636,-1.02592,-0.0929986,0
60820,-1.32798,-1.02686,-0.114045,0
60840,-1.31927,-1.02717,-0.124167,0
60860,-1.31073,-1.02648,-0.133617,0
60880,-1.30154,-1.02504,-0.143434,0
60900,-1.29147,-1.02428,-0.153823,0
60920,-1.2842,-1.02282,-0.161581,0
60940,-1.2765,-1.0211,-0.169743,0
60960,-1.26873,-1.01999,-0.177431,0
60980,-1.26125,-1.01841,-0.184554,0
61000,-1.25385,-1.01691,-0.192204,0
61020,-1.24694,-1.01475,-0.199102,0
61040,-1.24155,-1.0115,-0.204696,0
61060,-1.23423,-1.00897,-0.211368,0
61080,-1.22682,-1.00646,-0.218594,0
61100,-1.21962,-1.00384,-0.225545,0
61120,-1.21368,-1.00104,-0.231652,0
61140,-1.2069,-0.997988,-0.238404,0
61160,-1.20049,-0.994993,-0.244551,0
61180,-1.19497,-0.991843,-0.249896,0
61200,-1.18783,-0.989341,-0.256537,0
61220,-1.18204,-0.987018,-0.262317,0
61240,-1.17647,-0.984923,-0.267828,0
61260,-1.16766,-0.983098,-0.275215,0
61280,-1.15856,-0.980056,-0.282452,0
61300,-1.15011,-0.976481,-0.289172,0
61320,-1.14194,-0.973842,-0.295926,0
61340,-1.13506,-0.971766,-0.301715,0
61360,-1.12908,-0.969699,-0.30622,0
61380,-1.12467,-0.967208,-0.310428,0
61400,-1.11837,-0.963927,-0.316366,0
61420,-1.11172,-0.960344,-0.323052,0
61440,-1.10649,-0.956193,-0.328129,0
61460,-1.10194,-0.951827,-0.333592,0
61480,-1.09709,-0.946338,-0.339181,0
61500,-1.09175,-0.940975,-0.344586,0
61520,-1.08748,-0.936201,-0.349901,0
61540,-1.08347,-0.930943,-0.354046,0
61560,-1.07946,-0.925343,-0.357896,0
61580,-1.07428,-0.920015,-0.362725,0
61600,-1.06935,-0.914693,-0.367844,0
61620,-1.06589,-0.909539,-0.372191,0
61640,-1.06202,-0.904129,-0.376171,0
61660,-1.05959,-0.898769,-0.378989,0
61680,-1.05797,-0.89327,-0.379575,0
61700,-1.05642,-0.887883,-0.381464,0
61720,-1.05176,-0.882654,-0.386217,0
61740,-1.04953,-0.877689,-0.388515,0
61760,-1.04877,-0.872623,-0.389831,0
61780,-1.04755,-0.867088,-0.391692,0
61800,-1.04663,-0.861177,-0.392482,0
61820,-1.04656,-0.855638,-0.393029,0
61840,-1.04675,-0.849855,-0.393236,0
61860,-1.04828,-0.844848,-0.392335,0
61880,-1.04899,-0.839809,-0.392161,0
61900,-1.05208,-0.833856,-0.38988,0
61920,-1.05577,-0.827817,-0.386374,0
61940,-1.05988,-0.823315,-0.382189,0
61960,-1.0635,-0.818908,-0.378713,0
61980,-1.06712,-0.81443,-0.37494,0
62000,-1.07164,-0.810157,-0.369988,0
62020,-1.07667,-0.806304,-0.364457,0
62040,-1.08082,-0.802969,-0.359631,0
62060,-1.08537,-0.800071,-0.354086,0
62080,-1.09134,-0.796955,-0.347824,0
62100,-1.09759,-0.79276,-0.340691,0
62120,-1.10225,-0.788895,-0.333965,0
62140,-1.10769,-0.785885,-0.326492,0
62160,-1.11418,-0.782598,-0.318704,0
62180,-1.12074,-0.77909,-0.311511,0
62200,-1.1281,-0.775618,-0.303524,0
62220,-1.13583,-0.771792,-0.295088,0
62240,-1.14175,-0.767142,-0.287235,0
62260,-1.14624,-0.763211,-0.280422,0
62280,-1.14958,-0.759826,-0.274885,0
62300,-1.15292,-0.75582,-0.269142,0
62320,-1.1569,-0.7512,-0.26351,0
62340,-1.16091,-0.746436,-0.258129,0
62360,-1.16564,-0.741457,-0.251418,0
62380,-1.17082,-0.737181,-0.243974,0
62400,-1.17511,-0.733676,-0.237742,0
62420,-1.17957,-0.729378,-0.231408,0
62440,-1.18697,-0.724714,-0.223306,0
62460,-1.19465,-0.719836,-0.215063,0
62480,-1.20012,-0.716088,-0.207213,0
62500,-1.20459,-0.713062,-0.19918,0
62520,-1.21099,-0.710232,-0.190315,0
62540,-1.21845,-0.706406,-0.181148,0
62560,-1.22574,-0.702453,-0.171753,0
62580,-1.23125,-0.699396,-0.162784,0
62600,-1.23701,-0.696136,-0.153052,0
62620,-1.24376,-0.691761,-0.141851,0
62640,-1.25013,-0.687888,-0.130737,0
62660,-1.25702,-0.684391,-0.119578,0
62680,-1.26684,-0.681214,-0.106225,0
62700,-1.27653,-0.678355,-0.0939247,0
62720,-1.28713,-0.67473,-0.0814494,0
62740,-1.29779,-0.671339,-0.0683674,0
62760,-1.30845,-0.669122,-0.0552876,0
62780,-1.31872,-0.667214,-0.0426932,0
62800,-1.32751,-0.665214,-0.0310753,0
62820,-1.33544,-0.66443,-0.0201555,0
62840,-1.34448,-0.663527,-0.00836977,0
62860,-1.35462,-0.66218,0.00300619,0
62880,-1.36474,-0.661417,0.014595,0
62900,-1.3738,-0.661282,0.0263659,0
62920,-1.38324,-0.661539,0.0377208,0
62940,-1.39203,-0.662503,0.0483424,0
62960,-1.40076,-0.66387,0.0587897,0
62980,-1.41111,-0.66476,0.0696763,0
63000,-1.42143,-0.665535,0.0804056,0
63020,-1.43159,-0.667617,0.0911108,0
63040,-1.44174,-0.670144,0.102036,0
63060,-1.45197,-0.672259,0.112829,0
63080,-1.46342,-0.674004,0.123774,0
63100,-1.47433,-0.675949,0.134247,0
63120,-1.48538,-0.678438,0.145125,0
63140,-1.49633,-0.680748,0.156501,0
63160,-1.50753,-0.682916,0.167497,0
63180,-1.51848,-0.685731,0.177857,0
63200,-1.52938,-0.688271,0.188108,0
63220,-1.53918,-0.691387,0.19783,0
63240,-1.54908,-0.69475,0.208101,0
63260,-1.5592,-0.69755,0.217983,0
63280,-1.56965,-0.700038,0.227889,0
63300,-1.58052,-0.703599,0.2382,0
63320,-1.5902,-0.707259,0.247892,0
63340,-1.60064,-0.710688,0.258381,0
63360,-1.61273,-0.713822,0.26861,0
63380,-1.62397,-0.71645,0.277399,0
63400,-1.63339,-0.71951,0.285877,0
63420,-1.64242,-0.722819,0.294625,0
63440,-1.65196,-0.725966,0.302879,0
63460,-1.66111,-0.729715,0.310332,0
63480,-1.66952,-0.734251,0.31747,0
63500,-1.67887,-0.739985,0.324973,0
63520,-1.68781,-0.746802,0.33201,0
63540,-1.69615,-0.753182,0.338667,0
63560,-1.70434,-0.759471,0.345195,0
63580,-1.71319,-0.766792,0.351281,0
63600,-1.72229,-0.774197,0.356525,0
63620,-1.73069,-0.781063,0.361946,0
63640,-1.73957,-0.788607,0.367582,0
63660,-1.74821,-0.796094,0.372356,0
63680,-1.75613,-0.803283,0.375778,0
63700,-1.76371,-0.811406,0.378964,0
63720,-1.77139,-0.819825,0.382283,0
63740,-1.78035,-0.828004,0.386448,0
63760,-1.78903,-0.836663,0.389566,0
63780,-1.79644,-0.84461,0.39085,0
63800,-1.80174,-0.852555,0.391193,0
63820,-1.80733,-0.860716,0.391897,0
63840,-1.81252,-0.869523,0.39152,0
63860,-1.81662,-0.878543,0.390169,0
63880,-1.8201,-0.887764,0.388135,0
63900,-1.82269,-0.896994,0.384327,0
63910,-1.82442,-0.906396,0.379555,0
63930,-1.82562,-0.915928,0.374307,0
63950,-1.82465,-0.925797,0.367271,0
63970,-1.82262,-0.935197,0.35922,0
63990,-1.82028,-0.944614,0.350594,0
64010,-1.81721,-0.95456,0.341395,0
64030,-1.81337,-0.964875,0.33194,0
64050,-1.80913,-0.974993,0.321402,0
64070,-1.80557,-0.984155,0.310844,0
64090,-1.801,-0.992663,0.299885,0
64110,-1.79617,-1.00102,0.288618,0
64130,-1.79048,-1.00922,0.277172,0
64150,-1.78552,-1.01748,0.266504,0
64170,-1.78068,-1.02549,0.255995,0
64190,-1.77533,-1.03356,0.244886,0
64210,-1.76839,-1.04102,0.2328,0
64230,-1.76086,-1.04814,0.220725,0
64250,-1.75454,-1.05605,0.209135,0
64270,-1.74671,-1.06372,0.196002,0
64290,-1.73599,-1.07144,0.180753,0
64310,-1.72411,-1.07855,0.164787,0
64330,-1.70949,-1.08411,0.146438,0
64350,-1.69163,-1.08968,0.126189,0
64370,-1.67337,-1.09567,0.105428,0
64390,-1.6546,-1.09978,0.0839768,0
64410,-1.63378,-1.10317,0.0603096,0
64430,-1.61158,-1.10591,0.0359275,0
64450,-1.59005,-1.10743,0.0120479,0
64470,-1.56774,-1.10886,-0.0122705,0
64490,-1.54623,-1.11016,-0.0354053,0
64510,-1.52505,-1.11013,-0.0585859,0
64530,-1.50247,-1.10977,-0.0841753,0
64550,-1.47915,-1.10728,-0.109787,0
64570,-1.45468,-1.10438,-0.134843,0
64590,-1.43114,-1.10165,-0.159016,0
64610,-1.40954,-1.09838,-0.182241,0
64630,-1.38866,-1.09473,-0.205925,0
64650,-1.36914,-1.08992,-0.228238,0
64670,-1.34976,-1.08425,-0.249486,0
64690,-1.33135,-1.07941,-0.270496,0
64710,-1.31329,-1.07419,-0.291915,0
64730,-1.29703,-1.06893,-0.31186,0
64750,-1.28355,-1.06304,-0.330166,0
64770,-1.26947,-1.05638,-0.347274,0
64790,-1.25502,-1.05007,-0.363214,0
64810,-1.24454,-1.04469,-0.375338,0
64830,-1.23531,-1.03925,-0.387379,0
64850,-1.227,-1.03339,-0.398391,0
64870,-1.21991,-1.0283,-0.407812,0
64890,-1.21382,-1.02362,-0.41613,0
64910,-1.20894,-1.01864,-0.422751,0
64930,-1.20658,-1.01397,-0.427912,0
64950,-1.20424,-1.00946,-0.432587,0
64970,-1.20074,-1.00509,-0.437276,0
64990,-1.19712,-1.00145,-0.440185,0
65010,-1.19625,-0.997804,-0.441276,0
65030,-1.1938,-0.994157,-0.444403,0
65050,-1.19132,-0.990018,-0.447111,0
65070,-1.1928,-0.984821,-0.445613,0
65090,-1.19426,-0.979979,-0.444423,0
65110,-1.19388,-0.975393,-0.444324,0
65130,-1.1938,-0.97034,-0.443099,0
65150,-1.19456,-0.965746,-0.441895,0
65170,-1.19532,-0.960694,-0.440911,0
65190,-1.19697,-0.955795,-0.438201,0
65210,-1.19938,-0.95141,-0.434829,0
65230,-1.20037,-0.947083,-0.432104,0
65250,-1.20146,-0.942993,-0.429206,0
65270,-1.20392,-0.93933,-0.425547,0
65290,-1.20609,-0.935269,-0.42255,0
65310,-1.2072,-0.931404,-0.420194,0
65330,-1.21011,-0.927217,-0.415275,0
65350,-1.21302,-0.923403,-0.411539,0
65370,-1.21521,-0.919657,-0.40818,0
65390,-1.21848,-0.915552,-0.403172,0
65410,-1.22215,-0.911423,-0.398931,0
65430,-1.22497,-0.906923,-0.395864,0
65450,-1.22886,-0.901831,-0.392163,0
65470,-1.23305,-0.89702,-0.387577,0
65490,-1.23571,-0.892166,-0.384206,0
65510,-1.23746,-0.887056,-0.38109,0
65530,-1.24148,-0.88234,-0.376,0
65550,-1.24619,-0.877451,-0.371296,0
65570,-1.24952,-0.871922,-0.367495,0
65590,-1.25194,-0.866839,-0.363436,0
