Timestamp, Angle x, Angle y, Angle z, Marker
50,-0.634197,0.411774,2.15784,0
70,-0.633442,0.4119,2.15743,0
90,-0.632792,0.412074,2.15678,0
100,-0.632228,0.412222,2.15621,0
120,-0.632347,0.412585,2.15532,0
120,-0.632222,0.412825,2.15406,0
160,-0.632413,0.413175,2.15256,0
180,-0.632484,0.413112,2.15106,0
200,-0.632506,0.413053,2.14943,0
220,-0.633091,0.412794,2.14746,0
240,-0.633408,0.412337,2.14544,0
260,-0.633921,0.412007,2.14365,0
280,-0.634687,0.411591,2.14209,0
300,-0.63553,0.411004,2.1407,0
320,-0.636064,0.410882,2.13992,0
340,-0.636538,0.410948,2.13917,0
360,-0.636752,0.411042,2.1387,0
380,-0.636949,0.411442,2.13811,0
400,-0.636509,0.411627,2.13799,0
420,-0.636532,0.411703,2.13767,0
440,-0.635656,0.41175,2.13734,0
460,-0.635074,0.411828,2.13709,0
480,-0.635355,0.412117,2.13616,0
500,-0.636583,0.413077,2.13554,0
520,-0.638896,0.413941,2.13488,0
540,-0.640356,0.415652,2.13458,0
560,-0.641203,0.417549,2.13452,0
580,-0.641851,0.418639,2.13455,0
600,-0.641919,0.418917,2.1345,0
620,-0.641361,0.419154,2.13436,0
640,-0.640266,0.419108,2.1345,0
660,-0.639399,0.418731,2.13434,0
680,-0.638548,0.418613,2.13404,0
700,-0.637529,0.418312,2.13393,0
720,-0.63652,0.418154,2.13372,0
740,-0.635275,0.418102,2.13349,0
760,-0.634056,0.417884,2.13328,0
780,-0.632764,0.417597,2.13325,0
800,-0.6307,0.417131,2.13348,0
820,-0.627406,0.416166,2.13367,0
840,-0.623356,0.415166,2.13403,0
860,-0.618172,0.413745,2.13483,0
880,-0.612021,0.411866,2.13555,0
900,-0.605032,0.409947,2.13621,0
920,-0.59715,0.408178,2.13684,0
940,-0.588948,0.406328,2.13777,0
950,-0.58128,0.404365,2.13866,0
970,-0.574247,0.40244,2.13964,0
990,-0.567582,0.401304,2.14025,0
1010,-0.5613,0.400052,2.14106,0
1030,-0.555517,0.398741,2.14203,0
1050,-0.548885,0.397062,2.14296,0
1070,-0.54262,0.395226,2.14392,0
1090,-0.536268,0.393186,2.1452,0
1110,-0.530042,0.390835,2.1475,0
1130,-0.522028,0.3888,2.15004,0
1150,-0.513831,0.387162,2.15261,0
1170,-0.506357,0.385516,2.15465,0
1190,-0.500574,0.383713,2.15619,0
1210,-0.495368,0.381816,2.15708,0
1230,-0.490832,0.380176,2.1578,0
1250,-0.486159,0.378671,2.15811,0
1270,-0.482167,0.377308,2.15849,0
1290,-0.478559,0.376226,2.15904,0
1310,-0.475873,0.375386,2.15933,0
1330,-0.473385,0.374866,2.1595,0
1350,-0.47093,0.374526,2.15995,0
1370,-0.469132,0.374289,2.1603,0
1390,-0.467431,0.374116,2.16043,0
1410,-0.466333,0.37407,2.16032,0
1430,-0.465676,0.374186,2.15989,0
1450,-0.465837,0.374287,2.15907,0
1470,-0.467197,0.373821,2.15845,0
1490,-0.468834,0.37383,2.15812,0
1510,-0.469875,0.374851,2.15849,0
1530,-0.470929,0.376169,2.15891,0
1550,-0.472233,0.37733,2.15912,0
1570,-0.473524,0.378261,2.15883,0
1590,-0.475308,0.378765,2.15817,0
1610,-0.477113,0.378805,2.15748,0
1630,-0.479311,0.37942,2.157,0
1650,-0.482432,0.380471,2.1566,0
1670,-0.486083,0.381732,2.15631,0
1690,-0.489525,0.383186,2.15659,0
1710,-0.491799,0.385173,2.15748,0
1730,-0.493517,0.386769,2.15798,0
1750,-0.494707,0.387697,2.15814,0
1770,-0.4954,0.388184,2.15866,0
1790,-0.496776,0.389498,2.15805,0
1810,-0.499066,0.390757,2.15712,0
1830,-0.502918,0.391967,2.1561,0
1850,-0.508166,0.394691,2.15479,0
1870,-0.512991,0.398079,2.15341,0
1890,-0.517151,0.400594,2.15295,0
1910,-0.522644,0.403379,2.15251,0
1930,-0.53066,0.409164,2.15133,0
1950,-0.538598,0.418181,2.14916,0
1970,-0.544157,0.424016,2.14872,0
1990,-0.551558,0.42681,2.14819,0
2010,-0.564107,0.436974,2.1457,0
2030,-0.578565,0.450335,2.1432,0
2050,-0.594385,0.456742,2.14061,0
2070,-0.606769,0.457702,2.13693,0
2090,-0.615697,0.460788,2.13309,0
2110,-0.629136,0.463994,2.12678,0
2130,-0.641553,0.462969,2.12138,0
2150,-0.644041,0.457968,2.11796,0
2170,-0.637029,0.45167,2.11468,0
2190,-0.624804,0.443548,2.11161,0
2210,-0.604191,0.431578,2.10843,0
2230,-0.584176,0.421163,2.10705,0
2250,-0.567122,0.412607,2.10814,0
2270,-0.54813,0.406358,2.11239,0
2290,-0.524463,0.40227,2.12127,0
2310,-0.49621,0.398957,2.13392,0
2330,-0.461933,0.394766,2.14734,0
2350,-0.424176,0.388244,2.16128,0
2370,-0.384045,0.379442,2.17427,0
2390,-0.343204,0.369357,2.18599,0
2410,-0.304982,0.359862,2.196,0
2430,-0.278899,0.350627,2.203,0
2450,-0.258965,0.344597,2.20589,0
2470,-0.249717,0.341688,2.20762,0
2490,-0.245839,0.341207,2.20836,0
2510,-0.24362,0.341585,2.20861,0
2530,-0.240507,0.341871,2.20958,0
2550,-0.236492,0.341489,2.21119,0
2570,-0.231367,0.339946,2.21316,0
2590,-0.225241,0.3372,2.21507,0
2610,-0.218318,0.333598,2.21689,0
2630,-0.212007,0.330066,2.21786,0
2650,-0.207148,0.327525,2.21782,0
2670,-0.204024,0.326223,2.21708,0
2690,-0.202913,0.326308,2.21598,0
2710,-0.203108,0.327188,2.21528,0
2730,-0.204066,0.328402,2.21501,0
2750,-0.205117,0.329424,2.21508,0
2770,-0.205992,0.329704,2.2155,0
2790,-0.206711,0.329353,2.21577,0
2810,-0.207619,0.328802,2.21611,0
2830,-0.208664,0.328714,2.21616,0
2850,-0.210222,0.329204,2.21582,0
2870,-0.212125,0.330099,2.21553,0
2890,-0.213806,0.331648,2.21519,0
2910,-0.215492,0.333221,2.21501,0
2920,-0.216801,0.334679,2.21491,0
2940,-0.218285,0.335653,2.21487,0
2960,-0.219601,0.336281,2.21477,0
2980,-0.220486,0.336418,2.21484,0
3000,-0.221748,0.336645,2.21466,0
3020,-0.223097,0.336959,2.21426,0
3040,-0.22456,0.337218,2.21385,0
3060,-0.226087,0.337591,2.21344,0
3080,-0.227342,0.338106,2.21334,0
3100,-0.228558,0.338502,2.21318,0
3120,-0.229523,0.339012,2.2131,0
3140,-0.230819,0.339644,2.21306,0
3160,-0.233037,0.340125,2.21295,0
3180,-0.235835,0.340591,2.21265,0
3200,-0.239592,0.341132,2.21192,0
3220,-0.243126,0.341916,2.21092,0
3240,-0.245654,0.342902,2.20993,0
3260,-0.247968,0.343601,2.20933,0
3280,-0.25072,0.343617,2.20818,0
3300,-0.252746,0.343296,2.2071,0
3320,-0.254593,0.342913,2.20603,0
3340,-0.255787,0.34272,2.20522,0
3360,-0.257141,0.342435,2.20413,0
3380,-0.258586,0.342126,2.20324,0
3400,-0.259534,0.34189,2.20217,0
3420,-0.260507,0.34183,2.20154,0
3440,-0.261437,0.342192,2.20125,0
3460,-0.262882,0.343184,2.20093,0
3480,-0.264907,0.345016,2.20104,0
3500,-0.266691,0.346467,2.20204,0
3520,-0.266433,0.347941,2.20347,0
3540,-0.26694,0.348619,2.20513,0
3560,-0.264902,0.349569,2.20755,0
3580,-0.262495,0.351132,2.21001,0
3600,-0.259552,0.353502,2.21238,0
3620,-0.255645,0.356788,2.21508,0
3640,-0.253035,0.359534,2.21739,0
3670,-0.247561,0.364472,2.22258,0
3690,-0.243449,0.366247,2.22613,0
3710,-0.238817,0.367275,2.22974,0
3730,-0.233967,0.368139,2.23345,0
3750,-0.226975,0.36843,2.23737,0
3770,-0.21766,0.368967,2.24185,0
3790,-0.207675,0.369372,2.24666,0
3810,-0.1975,0.368693,2.25233,0
3830,-0.187743,0.368946,2.25905,0
3850,-0.178908,0.370354,2.26713,0
3870,-0.169328,0.371362,2.27542,0
3890,-0.159672,0.373292,2.28362,0
3910,-0.151966,0.375973,2.29025,0
3930,-0.145494,0.378909,2.2949,0
3950,-0.144196,0.378613,2.29767,0
3970,-0.141299,0.379981,2.30073,0
3990,-0.135763,0.38354,2.30546,0
4010,-0.129029,0.387767,2.31443,0
4030,-0.120995,0.391468,2.32568,0
4050,-0.117888,0.394522,2.33776,0
4070,-0.117136,0.399069,2.35155,0
4090,-0.116569,0.405876,2.36559,0
4110,-0.116136,0.413014,2.3792,0
4130,-0.114493,0.417197,2.39238,0
4150,-0.108694,0.416229,2.40597,0
4170,-0.101902,0.416256,2.41813,0
4190,-0.10208,0.421451,2.42663,0
4210,-0.101263,0.426436,2.43933,0
4230,-0.105547,0.433631,2.4533,0
4250,-0.10415,0.439819,2.4708,0
4270,-0.0982411,0.442569,2.48621,0
4290,-0.0870483,0.444538,2.50274,0
4310,-0.0747965,0.446705,2.51911,0
4330,-0.0643641,0.450307,2.53424,0
4350,-0.0565775,0.45563,2.54806,0
4370,-0.0506317,0.459958,2.56088,0
4390,-0.0465888,0.461014,2.56979,0
4410,-0.0426216,0.461096,2.57281,0
4430,-0.034809,0.460046,2.57363,0
4450,-0.0263307,0.456964,2.57418,0
4470,-0.0187613,0.454189,2.57628,0
4490,-0.0130028,0.450503,2.58302,0
4510,-0.00879495,0.446711,2.59436,0
4530,-0.00589555,0.444887,2.60831,0
4550,-0.00423073,0.444433,2.62139,0
4570,-0.00517605,0.443997,2.63157,0
4590,-0.00714096,0.443978,2.63884,0
4610,-0.00900675,0.445481,2.64314,0
4630,-0.0101174,0.448706,2.64527,0
4650,-0.0120236,0.452232,2.6448,0
4670,-0.0152144,0.45501,2.64082,0
4690,-0.0195442,0.4588,2.63373,0
4710,-0.0245805,0.464038,2.6249,0
4730,-0.030804,0.468852,2.61524,0
4750,-0.0393673,0.471172,2.60565,0
4770,-0.049512,0.470657,2.59663,0
4790,-0.060701,0.469318,2.58876,0
4810,-0.0726813,0.468961,2.5826,0
4830,-0.0845065,0.470787,2.57764,0
4850,-0.0969107,0.474777,2.57203,0
4870,-0.1109,0.479388,2.56377,0
4890,-0.127511,0.484311,2.55077,0
4910,-0.145549,0.488849,2.53255,0
4930,-0.163357,0.493252,2.51235,0
4950,-0.180501,0.496868,2.49432,0
4970,-0.194618,0.499567,2.48165,0
4990,-0.216224,0.502135,2.46852,0
5010,-0.238329,0.501706,2.45793,0
5030,-0.253767,0.501476,2.4475,0
5050,-0.264623,0.503454,2.43704,0
5070,-0.274634,0.5056,2.42769,0
5090,-0.290982,0.508448,2.41674,0
5110,-0.31228,0.510903,2.40442,0
5130,-0.335722,0.512313,2.39206,0
5150,-0.359731,0.512775,2.38095,0
5170,-0.381831,0.51312,2.37048,0
5190,-0.401448,0.513781,2.35994,0
5210,-0.418568,0.514554,2.34959,0
5230,-0.432593,0.514458,2.34133,0
5250,-0.446524,0.514179,2.33529,0
5270,-0.462783,0.51285,2.32745,0
5290,-0.47696,0.512226,2.32047,0
5310,-0.49586,0.5139,2.31314,0
5330,-0.512141,0.513343,2.30799,0
5350,-0.526655,0.512199,2.30538,0
5370,-0.540703,0.509885,2.30361,0
5390,-0.554787,0.50793,2.3013,0
5410,-0.570584,0.505689,2.29625,0
5430,-0.586631,0.501097,2.28996,0
5450,-0.596975,0.494747,2.28433,0
5470,-0.604076,0.488203,2.27846,0
5490,-0.609692,0.48275,2.27239,0
5510,-0.614222,0.480151,2.26577,0
5530,-0.616834,0.480412,2.25991,0
5550,-0.614869,0.479825,2.25615,0
5570,-0.61772,0.478642,2.25035,0
5590,-0.621622,0.477891,2.24435,0
5610,-0.627822,0.479845,2.23863,0
5630,-0.636579,0.483101,2.2312,0
5650,-0.644647,0.485841,2.22361,0
5670,-0.646995,0.487276,2.21649,0
5690,-0.647563,0.487405,2.20841,0
5710,-0.649427,0.485783,2.20048,0
5730,-0.648692,0.483048,2.19497,0
5750,-0.646835,0.480603,2.18927,0
5770,-0.644814,0.478802,2.18318,0
5790,-0.639439,0.475667,2.17813,0
5810,-0.631585,0.470306,2.17309,0
5830,-0.622016,0.464415,2.16797,0
5850,-0.609653,0.45827,2.16372,0
5870,-0.5965,0.453137,2.16063,0
5890,-0.58575,0.44874,2.15805,0
5910,-0.580096,0.447143,2.15537,0
5930,-0.579781,0.447058,2.15232,0
5950,-0.582175,0.447356,2.14863,0
5970,-0.583747,0.447984,2.14618,0
5990,-0.585096,0.449953,2.14534,0
6010,-0.587471,0.452696,2.1448,0
6030,-0.591078,0.455338,2.14517,0
6050,-0.593521,0.455238,2.14611,0
6070,-0.593893,0.453289,2.14662,0
6090,-0.590673,0.45315,2.14814,0
6110,-0.584278,0.452485,2.15106,0
6130,-0.578337,0.451875,2.15376,0
6150,-0.573605,0.451359,2.15604,0
6170,-0.571967,0.45141,2.15704,0
6190,-0.574149,0.453,2.15818,0
6210,-0.579474,0.454573,2.15822,0
6230,-0.584979,0.455403,2.15868,0
6250,-0.588797,0.455829,2.15936,0
6270,-0.590502,0.456085,2.16096,0
6290,-0.593068,0.456061,2.16168,0
6310,-0.593914,0.455355,2.16253,0
6320,-0.593203,0.453652,2.16399,0
6340,-0.592091,0.451531,2.16533,0
6360,-0.589795,0.44912,2.16625,0
6380,-0.585274,0.447294,2.1671,0
6400,-0.577808,0.447233,2.16903,0
6420,-0.56901,0.44808,2.17169,0
6440,-0.561364,0.449477,2.17453,0
6460,-0.555623,0.451358,2.17759,0
6480,-0.551529,0.452985,2.18015,0
6500,-0.548513,0.454344,2.18158,0
6520,-0.545596,0.455028,2.18203,0
6540,-0.544969,0.454571,2.18216,0
6560,-0.553809,0.450898,2.17875,0
6580,-0.560085,0.446912,2.17557,0
6600,-0.562633,0.444308,2.17278,0
6620,-0.563598,0.442634,2.17207,0
6640,-0.563171,0.442539,2.1712,0
6660,-0.565709,0.441862,2.16823,0
6680,-0.567304,0.441219,2.168,0
6700,-0.567853,0.440831,2.16819,0
6720,-0.568622,0.439135,2.16766,0
6740,-0.568709,0.436489,2.16758,0
6760,-0.567155,0.435698,2.16749,0
6780,-0.564762,0.437408,2.16728,0
6800,-0.563391,0.439533,2.16859,0
6820,-0.564122,0.43989,2.1683,0
6840,-0.566208,0.439923,2.16812,0
6860,-0.569673,0.440406,2.16808,0
6880,-0.577321,0.442634,2.16697,0
6900,-0.579667,0.443664,2.16695,0
6920,-0.581451,0.442459,2.16596,0
6940,-0.581426,0.441283,2.16455,0
6960,-0.577574,0.440215,2.16446,0
6980,-0.571524,0.438918,2.16487,0
7000,-0.564346,0.437763,2.16552,0
7040,-0.550314,0.435157,2.16756,0
7060,-0.542939,0.433204,2.16825,0
7080,-0.535027,0.431453,2.16932,0
7100,-0.528245,0.430358,2.1703,0
7120,-0.522491,0.429539,2.1713,0
7140,-0.518187,0.4285,2.17258,0
7160,-0.515392,0.427407,2.17434,0
7180,-0.513637,0.426942,2.17569,0
7200,-0.512597,0.427492,2.17686,0
7220,-0.511555,0.427891,2.17811,0
7240,-0.510886,0.428336,2.17904,0
7260,-0.510422,0.428378,2.17973,0
7280,-0.509275,0.42806,2.18001,0
7300,-0.507491,0.427611,2.18033,0
7320,-0.505792,0.427277,2.18065,0
7340,-0.504146,0.427228,2.18094,0
7360,-0.50281,0.427055,2.18069,0
7380,-0.501557,0.426738,2.18054,0
7400,-0.500671,0.426565,2.18045,0
7420,-0.500414,0.426279,2.17981,0
7440,-0.499916,0.426193,2.17954,0
7460,-0.49939,0.425921,2.179,0
7480,-0.498892,0.425683,2.17882,0
7500,-0.498263,0.425612,2.17839,0
7530,-0.497462,0.425403,2.17837,0
7550,-0.496836,0.425777,2.17881,0
7570,-0.496719,0.425829,2.1788,0
7590,-0.496934,0.42604,2.17892,0
7610,-0.496818,0.426093,2.17892,0
7630,-0.496818,0.426093,2.17892,0
7650,-0.496818,0.426093,2.17892,0
7670,-0.49659,0.426287,2.1795,0
7690,-0.496473,0.42634,2.17949,0
7710,-0.496473,0.42634,2.17949,0
7730,-0.496473,0.42634,2.17949,0
7750,-0.496473,0.42634,2.17949,0
7770,-0.496473,0.42634,2.17949,0
7790,-0.497215,0.426682,2.17914,0
7810,-0.498006,0.427157,2.17884,0
7830,-0.49887,0.427384,2.17916,0
7850,-0.499861,0.427769,2.17893,0
7870,-0.500481,0.428368,2.17892,0
7890,-0.500481,0.428368,2.17892,0
7910,-0.500565,0.428484,2.17892,0
7930,-0.500565,0.428484,2.17892,0
7950,-0.501138,0.428334,2.17869,0
7970,-0.501124,0.428294,2.17853,0
7990,-0.501286,0.42873,2.17887,0
8000,-0.501679,0.42923,2.1785,0
8030,-0.501729,0.429362,2.17856,0
8050,-0.501729,0.429362,2.17856,0
8070,-0.501729,0.429362,2.17856,0
8090,-0.501729,0.429362,2.17856,0
8110,-0.501246,0.429424,2.17842,0
8130,-0.50036,0.429252,2.17833,0
8150,-0.499598,0.428932,2.17786,0
8170,-0.499356,0.428687,2.17738,0
8190,-0.499668,0.428607,2.17679,0
8210,-0.500512,0.428596,2.17639,0
8240,-0.501426,0.428661,2.17583,0
8250,-0.501043,0.428371,2.17565,0
8270,-0.50069,0.428269,2.17575,0
8290,-0.500573,0.428322,2.17575,0
8310,-0.500573,0.428322,2.17575,0
8330,-0.500573,0.428322,2.17575,0
8350,-0.500573,0.428322,2.17575,0
8370,-0.500089,0.428232,2.17569,0
8390,-0.49932,0.428009,2.17561,0
8410,-0.499204,0.428062,2.1756,0
8430,-0.499204,0.428062,2.1756,0
8450,-0.499204,0.428062,2.1756,0
8470,-0.499204,0.428062,2.1756,0
8490,-0.49932,0.428009,2.17561,0
8510,-0.49932,0.428009,2.17561,0
8530,-0.499306,0.427969,2.17545,0
8550,-0.499391,0.428085,2.17544,0
8570,-0.499779,0.428172,2.17527,0
8590,-0.500368,0.428321,2.17509,0
8610,-0.501011,0.428246,2.1747,0
8630,-0.500894,0.428299,2.17469,0
8650,-0.500894,0.428299,2.17469,0
8670,-0.500894,0.428299,2.17469,0
8690,-0.501361,0.428088,2.17471,0
8710,-0.50222,0.428224,2.17444,0
8730,-0.502255,0.428208,2.17437,0
8750,-0.502372,0.428155,2.17438,0
8770,-0.502372,0.428155,2.17438,0
8790,-0.502337,0.428171,2.17444,0
8810,-0.502421,0.428287,2.17443,0
8830,-0.502421,0.428287,2.17443,0
8850,-0.502407,0.428247,2.17427,0
8870,-0.502276,0.428152,2.17415,0
8890,-0.502392,0.4281,2.17415,0
8910,-0.502308,0.427984,2.17416,0
8930,-0.502308,0.427984,2.17416,0
8950,-0.502808,0.428221,2.17434,0
8970,-0.504064,0.428686,2.17441,0
8990,-0.505424,0.42906,2.17432,0
9010,-0.506618,0.429354,2.17416,0
9030,-0.507774,0.429404,2.1742,0
9050,-0.50831,0.429626,2.17431,0
9070,-0.50831,0.429626,2.17431,0
9090,-0.508278,0.429795,2.1743,0
9110,-0.508618,0.430366,2.17422,0
9130,-0.50975,0.430998,2.17405,0
9150,-0.511249,0.431621,2.174,0
9170,-0.512764,0.432394,2.17408,0
9190,-0.513936,0.432952,2.17451,0
9210,-0.51439,0.433678,2.17479,0
9230,-0.514236,0.434105,2.17512,0
9250,-0.514321,0.434221,2.17511,0
9270,-0.514204,0.434274,2.1751,0
9290,-0.513679,0.434557,2.17538,0
9310,-0.513679,0.434557,2.17538,0
9330,-0.513679,0.434557,2.17538,0
9350,-0.514161,0.434854,2.17579,0
9370,-0.514882,0.435307,2.17609,0
9390,-0.515634,0.435592,2.1764,0
9410,-0.516456,0.436311,2.17682,0
9430,-0.517502,0.437038,2.177,0
9450,-0.518809,0.437755,2.17688,0
9470,-0.520036,0.438148,2.17642,0
9490,-0.521295,0.438373,2.17598,0
9510,-0.522252,0.438779,2.17562,0
9530,-0.522252,0.438779,2.17562,0
9550,-0.521788,0.43878,2.17525,0
9570,-0.520789,0.438186,2.17512,0
9590,-0.518808,0.437507,2.17527,0
9610,-0.516942,0.436625,2.1755,0
9630,-0.515213,0.435991,2.17577,0
9650,-0.513466,0.435415,2.17627,0
9670,-0.512396,0.435062,2.17663,0
9690,-0.512481,0.435178,2.17662,0
9710,-0.512859,0.435058,2.177,0
9730,-0.513267,0.434618,2.17747,0
9750,-0.513437,0.434641,2.1782,0
9770,-0.513777,0.434896,2.17891,0
9790,-0.514339,0.435007,2.17947,0
9810,-0.514974,0.435346,2.17978,0
9830,-0.515629,0.435519,2.1799,0
9850,-0.515623,0.435106,2.1801,0
9870,-0.515687,0.434769,2.18013,0
9880,-0.515849,0.434438,2.18039,0
9900,-0.516261,0.434152,2.18078,0
9920,-0.516261,0.434152,2.18078,0
9940,-0.517049,0.434422,2.18103,0
9960,-0.517891,0.435088,2.18122,0
9980,-0.518921,0.435667,2.18128,0
10000,-0.520261,0.43586,2.18091,0
10020,-0.521821,0.435798,2.18042,0
10040,-0.522939,0.435515,2.18006,0
10060,-0.523179,0.435203,2.17972,0
10080,-0.522829,0.434531,2.1792,0
10100,-0.521826,0.433838,2.17848,0
10120,-0.5203,0.43358,2.17796,0
10140,-0.518484,0.433861,2.17799,0
10160,-0.517191,0.434327,2.17797,0
10180,-0.516427,0.434152,2.17742,0
10200,-0.515393,0.433013,2.17654,0
10220,-0.514141,0.431664,2.17554,0
10240,-0.513484,0.430576,2.17433,0
10260,-0.513171,0.429893,2.17375,0
10280,-0.512873,0.42936,2.1733,0
10300,-0.512236,0.428874,2.17307,0
10320,-0.511664,0.428559,2.17306,0
10340,-0.510773,0.428235,2.17304,0
10360,-0.509379,0.428029,2.17312,0
10380,-0.507582,0.427699,2.1732,0
10400,-0.506444,0.427949,2.17321,0
10420,-0.505879,0.428049,2.173,0
10440,-0.505852,0.428013,2.17264,0
10460,-0.505773,0.427694,2.1723,0
10480,-0.504971,0.427131,2.17201,0
10500,-0.503898,0.426429,2.1719,0
10520,-0.502975,0.426015,2.17199,0
10540,-0.502773,0.425953,2.172,0
10560,-0.503393,0.42578,2.17192,0
10580,-0.50443,0.425881,2.17194,0
10600,-0.505085,0.426309,2.17195,0
10620,-0.505976,0.426784,2.17188,0
10640,-0.506648,0.426896,2.17177,0
10660,-0.50747,0.426786,2.17169,0
10680,-0.50747,0.426786,2.17169,0
10700,-0.507456,0.426747,2.17153,0
10720,-0.507572,0.426694,2.17153,0
10740,-0.507522,0.426562,2.17147,0
10760,-0.508128,0.426859,2.17142,0
10780,-0.508749,0.427195,2.17153,0
10800,-0.509522,0.427571,2.17153,0
10820,-0.510383,0.427706,2.17126,0
10840,-0.511024,0.427987,2.17115,0
10860,-0.511496,0.428036,2.17105,0
10880,-0.511982,0.428125,2.17111,0
10900,-0.512603,0.427954,2.17102,0
10920,-0.513308,0.427897,2.17093,0
10940,-0.514216,0.427904,2.17084,0
10960,-0.514888,0.427865,2.17082,0
10980,-0.515848,0.427647,2.17051,0
11000,-0.51632,0.42723,2.17018,0
11020,-0.516033,0.426586,2.16997,0
11040,-0.515344,0.425968,2.16969,0
11060,-0.515095,0.425568,2.16929,0
11080,-0.51513,0.425551,2.16922,0
11100,-0.515687,0.425716,2.16911,0
11120,-0.516292,0.425861,2.16914,0
11140,-0.517235,0.426317,2.16921,0
11160,-0.517671,0.42674,2.16944,0
11180,-0.517757,0.426856,2.16943,0
11200,-0.517757,0.426856,2.16943,0
11220,-0.517757,0.426856,2.16943,0
11240,-0.517757,0.426856,2.16943,0
11260,-0.517453,0.426528,2.16933,0
11280,-0.516965,0.42633,2.1693,0
11300,-0.51688,0.426215,2.16931,0
11320,-0.517418,0.426079,2.16917,0
11340,-0.518206,0.425987,2.16915,0
11360,-0.519521,0.426228,2.16901,0
11380,-0.520313,0.426287,2.16891,0
11400,-0.520769,0.426545,2.16896,0
11420,-0.520754,0.426505,2.1688,0
11440,-0.520754,0.426505,2.1688,0
11460,-0.520754,0.426505,2.1688,0
11480,-0.520501,0.42631,2.16875,0
11500,-0.520044,0.425943,2.16874,0
11520,-0.519338,0.425642,2.16856,0
11540,-0.51846,0.425358,2.16871,0
11560,-0.517638,0.42511,2.16852,0
11580,-0.516714,0.424955,2.16849,0
11600,-0.515534,0.424811,2.16876,0
11620,-0.514843,0.424908,2.16901,0
11630,-0.51429,0.425004,2.169,0
11650,-0.513515,0.424985,2.16926,0
11670,-0.512503,0.42492,2.16959,0
11690,-0.511358,0.424759,2.16979,0
11710,-0.509848,0.424101,2.16967,0
11730,-0.508993,0.423762,2.16959,0
11750,-0.508908,0.423647,2.1696,0
11770,-0.509025,0.423594,2.16961,0
11790,-0.509759,0.423725,2.1698,0
11810,-0.509586,0.424206,2.17035,0
11830,-0.509044,0.424546,2.17085,0
11850,-0.508188,0.424672,2.171,0
11870,-0.506967,0.424808,2.17102,0
11890,-0.505911,0.424407,2.17094,0
11910,-0.505005,0.423786,2.17089,0
11930,-0.504301,0.423227,2.17083,0
11950,-0.503848,0.422862,2.17082,0
11970,-0.50388,0.422693,2.17084,0
11990,-0.50388,0.422693,2.17084,0
12010,-0.503983,0.422601,2.17068,0
12030,-0.503983,0.422601,2.17068,0
12050,-0.504067,0.422716,2.17067,0
12070,-0.503451,0.422534,2.17049,0
12090,-0.502869,0.422335,2.17023,0
12110,-0.502638,0.422593,2.17015,0
12130,-0.501823,0.422501,2.16989,0
12150,-0.50191,0.422262,2.16961,0
12170,-0.500994,0.421755,2.16932,0
12190,-0.500994,0.421755,2.16932,0
12210,-0.501008,0.421794,2.16948,0
12230,-0.500959,0.421663,2.16942,0
12250,-0.501061,0.42157,2.16927,0
12270,-0.501061,0.42157,2.16927,0
12290,-0.501061,0.42157,2.16927,0
12310,-0.501061,0.42157,2.16927,0
12330,-0.501061,0.42157,2.16927,0
12350,-0.500691,0.421785,2.16948,0
12370,-0.500575,0.421838,2.16947,0
12390,-0.500272,0.421868,2.16963,0
12410,-0.499905,0.421727,2.16958,0
12430,-0.499905,0.421727,2.16958,0
12450,-0.499821,0.421612,2.16959,0
12470,-0.500592,0.421522,2.16937,0
12490,-0.501143,0.421533,2.16934,0
12510,-0.501526,0.421821,2.16951,0
12530,-0.501774,0.42237,2.16983,0
12550,-0.501774,0.42237,2.16983,0
12570,-0.501121,0.422559,2.16998,0
12590,-0.50057,0.422656,2.16997,0
12610,-0.50057,0.422656,2.16997,0
12630,-0.500687,0.422603,2.16998,0
12650,-0.50057,0.422656,2.16997,0
12670,-0.500937,0.422796,2.17003,0
12690,-0.50156,0.422928,2.16979,0
12710,-0.501663,0.422836,2.16963,0
12730,-0.50156,0.422928,2.16979,0
12750,-0.501526,0.422944,2.16985,0
12770,-0.502532,0.422856,2.1696,0
12790,-0.504209,0.42288,2.16924,0
12810,-0.50557,0.423401,2.16907,0
12830,-0.506286,0.423847,2.16937,0
12850,-0.506921,0.42433,2.1696,0
12870,-0.507427,0.424362,2.16944,0
12890,-0.507463,0.42399,2.1691,0
12910,-0.50715,0.423777,2.16876,0
12930,-0.5071,0.423645,2.1687,0
12950,-0.508007,0.423802,2.16853,0
12970,-0.508832,0.423952,2.16832,0
12990,-0.50964,0.42431,2.16826,0
13010,-0.510413,0.424685,2.16827,0
13030,-0.510498,0.4248,2.16826,0
13050,-0.510498,0.4248,2.16826,0
13070,-0.510498,0.4248,2.16826,0
13090,-0.50976,0.424518,2.16815,0
13110,-0.509775,0.424557,2.16831,0
13130,-0.509658,0.42461,2.16831,0
13150,-0.509658,0.42461,2.16831,0
13170,-0.50976,0.424518,2.16815,0
13190,-0.50976,0.424518,2.16815,0
13210,-0.509523,0.424363,2.16826,0
13230,-0.50971,0.424386,2.16809,0
13250,-0.50971,0.424386,2.16809,0
13270,-0.50971,0.424386,2.16809,0
13290,-0.50971,0.424386,2.16809,0
13310,-0.50971,0.424386,2.16809,0
13330,-0.50971,0.424386,2.16809,0
13350,-0.50971,0.424386,2.16809,0
13370,-0.50971,0.424386,2.16809,0
13390,-0.50971,0.424386,2.16809,0
13410,-0.50939,0.424268,2.16813,0
13430,-0.508889,0.424032,2.16795,0
13450,-0.508338,0.423665,2.16772,0
13470,-0.508188,0.42327,2.16755,0
13490,-0.508103,0.423154,2.16756,0
13510,-0.507986,0.423207,2.16755,0
13530,-0.507986,0.423207,2.16755,0
13550,-0.507986,0.423207,2.16755,0
13570,-0.507986,0.423207,2.16755,0
13590,-0.507986,0.423207,2.16755,0
13600,-0.507986,0.423207,2.16755,0
13620,-0.507986,0.423207,2.16755,0
13640,-0.508103,0.423154,2.16756,0
13660,-0.508103,0.423154,2.16756,0
13680,-0.508103,0.423154,2.16756,0
13700,-0.508103,0.423154,2.16756,0
13720,-0.508103,0.423154,2.16756,0
13740,-0.508103,0.423154,2.16756,0
13760,-0.507653,0.42305,2.16743,0
13780,-0.507102,0.422683,2.16719,0
13800,-0.507102,0.422683,2.16719,0
13820,-0.507522,0.4226,2.16704,0
13840,-0.508225,0.422542,2.16695,0
13860,-0.508792,0.422593,2.16708,0
13880,-0.508792,0.422593,2.16708,0
13900,-0.508792,0.422593,2.16708,0
13920,-0.508778,0.422553,2.16692,0
13940,-0.508778,0.422553,2.16692,0
13960,-0.508778,0.422553,2.16692,0
13980,-0.50807,0.422351,2.16713,0
14000,-0.506894,0.422209,2.1674,0
14020,-0.505602,0.42212,2.16766,0
14040,-0.504794,0.422118,2.16799,0
14060,-0.50434,0.422217,2.16821,0
14080,-0.50402,0.422563,2.16847,0
14100,-0.503417,0.422884,2.16868,0
14120,-0.502515,0.423032,2.1687,0
14140,-0.500946,0.422715,2.16855,0
14160,-0.499225,0.42236,2.16851,0
14180,-0.49762,0.4218,2.16855,0
14200,-0.496988,0.42132,2.16832,0
14220,-0.496988,0.42132,2.16832,0
14240,-0.497553,0.421369,2.16845,0
14260,-0.498721,0.421713,2.16852,0
14280,-0.499878,0.42217,2.16836,0
14300,-0.500464,0.422165,2.16826,0
14320,-0.500548,0.422281,2.16825,0
14340,-0.500548,0.422281,2.16825,0
14360,-0.499994,0.422117,2.16836,0
14380,-0.499607,0.422032,2.16853,0
14400,-0.499607,0.422032,2.16853,0
14420,-0.499607,0.422032,2.16853,0
14440,-0.499607,0.422032,2.16853,0
14460,-0.499607,0.422032,2.16853,0
14480,-0.499491,0.422085,2.16853,0
14500,-0.50021,0.422327,2.16848,0
14520,-0.500826,0.422508,2.16867,0
14540,-0.501512,0.422765,2.16868,0
14560,-0.502127,0.422947,2.16887,0
14580,-0.502127,0.422947,2.16887,0
14600,-0.502127,0.422947,2.16887,0
14620,-0.502127,0.422947,2.16887,0
14640,-0.502127,0.422947,2.16887,0
14660,-0.502127,0.422947,2.16887,0
14680,-0.502043,0.422832,2.16887,0
14700,-0.502323,0.423212,2.16921,0
14720,-0.50259,0.423553,2.16938,0
14740,-0.503226,0.42368,2.16934,0
14760,-0.503226,0.42368,2.16934,0
14780,-0.503226,0.42368,2.16934,0
14800,-0.503226,0.42368,2.16934,0
14820,-0.504064,0.423869,2.16929,0
14840,-0.505089,0.424081,2.16908,0
14860,-0.506149,0.424277,2.16881,0
14880,-0.506149,0.424277,2.16881,0
14900,-0.506352,0.423984,2.16854,0
14920,-0.506236,0.423573,2.16831,0
14940,-0.505867,0.422816,2.1681,0
14960,-0.505682,0.422438,2.168,0
14980,-0.505093,0.421827,2.16795,0
15000,-0.504072,0.421261,2.16789,0
15020,-0.502398,0.420884,2.16798,0
15040,-0.500843,0.420607,2.16799,0
15060,-0.499376,0.420554,2.16796,0
15080,-0.498475,0.420703,2.16798,0
15100,-0.497436,0.420808,2.16829,0
15120,-0.496499,0.421327,2.16865,0
15130,-0.496348,0.421396,2.16871,0
15150,-0.496584,0.42155,2.1686,0
15170,-0.497317,0.42183,2.16871,0
15190,-0.498101,0.421734,2.16869,0
15210,-0.499024,0.421683,2.16836,0
15230,-0.499716,0.421275,2.1678,0
15250,-0.499851,0.420552,2.16743,0
15270,-0.499954,0.42046,2.16728,0
15290,-0.500104,0.420391,2.16722,0
15310,-0.500601,0.420472,2.16747,0
15330,-0.501485,0.421146,2.16775,0
15350,-0.502188,0.421703,2.16781,0
15370,-0.502273,0.421818,2.1678,0
15390,-0.502273,0.421818,2.1678,0
15410,-0.50199,0.421793,2.16774,0
15430,-0.501794,0.421528,2.1674,0
15450,-0.501562,0.421172,2.16716,0
15470,-0.501432,0.420723,2.16677,0
15490,-0.501432,0.420723,2.16677,0
15510,-0.501432,0.420723,2.16677,0
15530,-0.501549,0.42067,2.16677,0
15550,-0.501549,0.42067,2.16677,0
15570,-0.501549,0.42067,2.16677,0
15590,-0.501549,0.42067,2.16677,0
15610,-0.501549,0.42067,2.16677,0
15630,-0.501464,0.420555,2.16678,0
15650,-0.501549,0.42067,2.16677,0
15670,-0.501316,0.420776,2.16676,0
15690,-0.501316,0.420776,2.16676,0
15710,-0.50135,0.42076,2.1667,0
15730,-0.500997,0.420659,2.1668,0
15750,-0.500997,0.420659,2.1668,0
15770,-0.500997,0.420659,2.1668,0
15790,-0.501569,0.420615,2.16655,0
15810,-0.502321,0.420687,2.16651,0
15830,-0.503137,0.42093,2.16669,0
15850,-0.503587,0.421033,2.16682,0
15870,-0.503587,0.421033,2.16682,0
15890,-0.502951,0.420907,2.16686,0
15910,-0.502383,0.420705,2.16681,0
15930,-0.502383,0.420705,2.16681,0
15950,-0.502383,0.420705,2.16681,0
15970,-0.502383,0.420705,2.16681,0
15990,-0.502383,0.420705,2.16681,0
16010,-0.502383,0.420705,2.16681,0
16030,-0.502383,0.420705,2.16681,0
16050,-0.502383,0.420705,2.16681,0
16070,-0.502417,0.420689,2.16674,0
16090,-0.502383,0.420705,2.16681,0
16110,-0.502383,0.420705,2.16681,0
16130,-0.502383,0.420705,2.16681,0
16150,-0.502467,0.42082,2.1668,0
16170,-0.502467,0.42082,2.1668,0
16190,-0.502467,0.42082,2.1668,0
16210,-0.502467,0.42082,2.1668,0
16230,-0.502467,0.42082,2.1668,0
16250,-0.502467,0.42082,2.1668,0
16270,-0.502467,0.42082,2.1668,0
16290,-0.502467,0.42082,2.1668,0
16310,-0.502467,0.42082,2.1668,0
16330,-0.502467,0.42082,2.1668,0
16350,-0.502351,0.420874,2.16679,0
16370,-0.502351,0.420874,2.16679,0
16390,-0.502351,0.420874,2.16679,0
16410,-0.501831,0.420695,2.16684,0
16430,-0.501831,0.420695,2.16684,0
16450,-0.502219,0.420779,2.16667,0
16470,-0.502784,0.420829,2.1668,0
16490,-0.503133,0.421133,2.16704,0
16510,-0.503367,0.421642,2.1672,0
16530,-0.503367,0.421642,2.1672,0
16550,-0.503367,0.421642,2.1672,0
16570,-0.503251,0.421695,2.16719,0
16590,-0.503301,0.421826,2.16725,0
16610,-0.503301,0.421826,2.16725,0
16630,-0.503301,0.421826,2.16725,0
16650,-0.503185,0.421879,2.16724,0
16670,-0.503185,0.421879,2.16724,0
16690,-0.503185,0.421879,2.16724,0
16710,-0.503185,0.421879,2.16724,0
16730,-0.503185,0.421879,2.16724,0
16750,-0.503185,0.421879,2.16724,0
16770,-0.503082,0.421972,2.1674,0
16790,-0.503082,0.421972,2.1674,0
16810,-0.503082,0.421972,2.1674,0
16830,-0.503167,0.422087,2.16739,0
16850,-0.503082,0.421972,2.1674,0
16870,-0.503167,0.422087,2.16739,0
16890,-0.50305,0.42214,2.16738,0
16910,-0.50305,0.42214,2.16738,0
16930,-0.503016,0.422156,2.16745,0
16950,-0.503016,0.422156,2.16745,0
16970,-0.503016,0.422156,2.16745,0
16990,-0.502899,0.422209,2.16744,0
17000,-0.502899,0.422209,2.16744,0
17020,-0.502899,0.422209,2.16744,0
17040,-0.502984,0.422325,2.16744,0
17060,-0.502867,0.422378,2.16743,0
17080,-0.502867,0.422378,2.16743,0
17100,-0.502867,0.422378,2.16743,0
17120,-0.502867,0.422378,2.16743,0
17140,-0.502867,0.422378,2.16743,0
17160,-0.502415,0.42263,2.16757,0
17180,-0.501699,0.422649,2.16751,0
17200,-0.500579,0.422436,2.16749,0
17220,-0.500115,0.422186,2.16724,0
17240,-0.499616,0.421953,2.16706,0
17260,-0.498898,0.421865,2.16703,0
17280,-0.498283,0.421684,2.16685,0
17310,-0.498283,0.421684,2.16685,0
17330,-0.498283,0.421684,2.16685,0
17350,-0.498283,0.421684,2.16685,0
17370,-0.498138,0.421552,2.16656,0
17390,-0.497703,0.421489,2.1666,0
17410,-0.497054,0.421325,2.16648,0
17430,-0.497054,0.421325,2.16648,0
17450,-0.496938,0.421378,2.16648,0
17470,-0.496938,0.421378,2.16648,0
17490,-0.496938,0.421378,2.16648,0
17510,-0.496938,0.421378,2.16648,0
17530,-0.496938,0.421378,2.16648,0
17550,-0.496938,0.421378,2.16648,0
17570,-0.496938,0.421378,2.16648,0
17590,-0.496938,0.421378,2.16648,0
17610,-0.496938,0.421378,2.16648,0
17630,-0.497022,0.421493,2.16647,0
17650,-0.497022,0.421493,2.16647,0
17670,-0.496489,0.421276,2.16635,0
17690,-0.496387,0.421369,2.16651,0
17710,-0.496387,0.421369,2.16651,0
17730,-0.496972,0.421362,2.16641,0
17750,-0.497607,0.421487,2.16637,0
17770,-0.497723,0.421434,2.16637,0
17790,-0.497723,0.421434,2.16637,0
17810,-0.497409,0.421578,2.1663,0
17830,-0.496823,0.421584,2.16639,0
17850,-0.496823,0.421584,2.16639,0
17870,-0.496823,0.421584,2.16639,0
17890,-0.496823,0.421584,2.16639,0
17910,-0.496823,0.421584,2.16639,0
17930,-0.496707,0.421638,2.16639,0
17950,-0.496707,0.421638,2.16639,0
17970,-0.496823,0.421584,2.16639,0
17990,-0.496823,0.421584,2.16639,0
18010,-0.496823,0.421584,2.16639,0
18030,-0.496707,0.421638,2.16639,0
18050,-0.496791,0.421753,2.16638,0
18070,-0.496541,0.42156,2.16633,0
18090,-0.496541,0.42156,2.16633,0
18110,-0.496541,0.42156,2.16633,0
18130,-0.496541,0.42156,2.16633,0
18150,-0.496978,0.421776,2.16622,0
18170,-0.497426,0.421878,2.16634,0
18190,-0.497426,0.421878,2.16634,0
18210,-0.497426,0.421878,2.16634,0
18230,-0.497426,0.421878,2.16634,0
18250,-0.497426,0.421878,2.16634,0
18270,-0.497426,0.421878,2.16634,0
18290,-0.497012,0.42176,2.16615,0
18310,-0.495929,0.421534,2.16607,0
18330,-0.494495,0.421315,2.16605,0
18350,-0.493811,0.42106,2.16604,0
18370,-0.493224,0.420913,2.16621,0
18390,-0.493224,0.420913,2.16621,0
18410,-0.493335,0.42106,2.16656,0
18430,-0.493335,0.42106,2.16656,0
18450,-0.492951,0.421129,2.16666,0
18470,-0.492219,0.42085,2.16655,0
18490,-0.492219,0.42085,2.16655,0
18510,-0.492233,0.420889,2.16671,0
18530,-0.492233,0.420889,2.16671,0
18550,-0.492233,0.420889,2.16671,0
18570,-0.492233,0.420889,2.16671,0
18590,-0.492219,0.42085,2.16655,0
18610,-0.492335,0.420797,2.16655,0
18630,-0.492838,0.420828,2.16638,0
18650,-0.493457,0.420806,2.16622,0
18670,-0.493457,0.420806,2.16622,0
18690,-0.493457,0.420806,2.16622,0
18710,-0.493457,0.420806,2.16622,0
18730,-0.493423,0.420822,2.16629,0
18750,-0.493506,0.420937,2.16628,0
18770,-0.493506,0.420937,2.16628,0
18790,-0.493506,0.420937,2.16628,0
18810,-0.493506,0.420937,2.16628,0
18830,-0.493623,0.420884,2.16628,0
18850,-0.493623,0.420884,2.16628,0
18870,-0.493623,0.420884,2.16628,0
18890,-0.493707,0.420999,2.16627,0
18910,-0.493693,0.42096,2.16611,0
18930,-0.493693,0.42096,2.16611,0
18950,-0.493693,0.42096,2.16611,0
18960,-0.493175,0.420782,2.16616,0
18980,-0.492611,0.420735,2.16603,0
19000,-0.492495,0.420788,2.16603,0
19020,-0.492695,0.42085,2.16602,0
19040,-0.493197,0.420881,2.16586,0
19060,-0.493561,0.420867,2.16599,0
19080,-0.493977,0.421137,2.1661,0
19100,-0.493977,0.421137,2.1661,0
19120,-0.493645,0.420982,2.16598,0
19140,-0.493412,0.420475,2.16582,0
19160,-0.49325,0.420044,2.16549,0
19180,-0.49325,0.420044,2.16549,0
19200,-0.49325,0.420044,2.16549,0
19220,-0.493366,0.41999,2.1655,0
19240,-0.493366,0.41999,2.1655,0
19260,-0.493366,0.41999,2.1655,0
19280,-0.49345,0.420106,2.16549,0
19300,-0.494234,0.420161,2.16538,0
19320,-0.494234,0.420161,2.16538,0
19340,-0.494234,0.420161,2.16538,0
19360,-0.494234,0.420161,2.16538,0
19380,-0.494234,0.420161,2.16538,0
19400,-0.494234,0.420161,2.16538,0
19420,-0.494234,0.420161,2.16538,0
19440,-0.494234,0.420161,2.16538,0
19460,-0.494234,0.420161,2.16538,0
19480,-0.494337,0.420068,2.16523,0
19500,-0.494421,0.420183,2.16522,0
19510,-0.494421,0.420183,2.16522,0
19530,-0.494421,0.420183,2.16522,0
19550,-0.494421,0.420183,2.16522,0
19570,-0.494421,0.420183,2.16522,0
19590,-0.494421,0.420183,2.16522,0
19610,-0.494505,0.420299,2.16521,0
19630,-0.494621,0.420245,2.16521,0
19650,-0.494621,0.420245,2.16521,0
19670,-0.494621,0.420245,2.16521,0
19690,-0.494621,0.420245,2.16521,0
19710,-0.494339,0.420221,2.16515,0
19730,-0.493975,0.420235,2.16502,0
19750,-0.493975,0.420235,2.16502,0
19770,-0.494091,0.420182,2.16502,0
19790,-0.494077,0.420143,2.16486,0
19810,-0.494161,0.420258,2.16485,0
19830,-0.494161,0.420258,2.16485,0
19850,-0.493548,0.42008,2.16467,0
19870,-0.492503,0.419487,2.16426,0
19890,-0.491439,0.418948,2.16407,0
19910,-0.490747,0.418456,2.16355,0
19930,-0.490399,0.418003,2.16338,0
19950,-0.490399,0.418003,2.16338,0
19970,-0.490598,0.418065,2.16338,0
19990,-0.490585,0.418026,2.16322,0
20010,-0.490701,0.417972,2.16322,0
20030,-0.490701,0.417972,2.16322,0
20050,-0.490701,0.417972,2.16322,0
20070,-0.490117,0.41798,2.16332,0
20090,-0.48945,0.417873,2.16343,0
20110,-0.488933,0.417696,2.16347,0
20130,-0.488402,0.417482,2.16336,0
20150,-0.48792,0.41729,2.16334,0
20170,-0.487256,0.41683,2.16318,0
20190,-0.486958,0.416509,2.16307,0
20210,-0.486958,0.416509,2.16307,0
20230,-0.486958,0.416509,2.16307,0
20250,-0.486297,0.416203,2.16284,0
20270,-0.485582,0.415966,2.16289,0
20290,-0.485582,0.415966,2.16289,0
20310,-0.486079,0.416349,2.16299,0
20330,-0.486476,0.416931,2.16321,0
20350,-0.486476,0.416931,2.16321,0
20370,-0.486409,0.417115,2.16326,0
20390,-0.485912,0.416732,2.16316,0
20410,-0.485532,0.416449,2.16298,0
20430,-0.485031,0.415805,2.163,0
20450,-0.484535,0.415423,2.1629,0
20470,-0.484419,0.415476,2.16289,0
20490,-0.485346,0.415813,2.163,0
20510,-0.48676,0.415988,2.16285,0
20530,-0.487592,0.416171,2.1628,0
20550,-0.487592,0.416171,2.1628,0
20570,-0.487161,0.416217,2.1628,0
20590,-0.486293,0.415942,2.16295,0
20610,-0.485449,0.415721,2.16284,0
20630,-0.485565,0.415667,2.16284,0
20650,-0.485565,0.415667,2.16284,0
20670,-0.485565,0.415667,2.16284,0
20690,-0.485565,0.415667,2.16284,0
20710,-0.485648,0.415782,2.16284,0
20730,-0.485648,0.415782,2.16284,0
20750,-0.485648,0.415782,2.16284,0
20770,-0.485648,0.415782,2.16284,0
20790,-0.485648,0.415782,2.16284,0
20810,-0.485318,0.415629,2.16272,0
20830,-0.485318,0.415629,2.16272,0
20850,-0.485433,0.415576,2.16272,0
20870,-0.485433,0.415576,2.16272,0
20890,-0.485318,0.415629,2.16272,0
20910,-0.485318,0.415629,2.16272,0
20930,-0.485433,0.415576,2.16272,0
20950,-0.485517,0.415691,2.16271,0
20970,-0.485517,0.415691,2.16271,0
20990,-0.485503,0.415652,2.16255,0
21010,-0.485503,0.415652,2.16255,0
21030,-0.485619,0.415598,2.16256,0
21050,-0.485222,0.41563,2.16249,0
21070,-0.484788,0.415415,2.1626,0
21090,-0.484458,0.415263,2.16248,0
21110,-0.484458,0.415263,2.16248,0
21130,-0.484458,0.415263,2.16248,0
21150,-0.484293,0.415187,2.16243,0
21170,-0.48371,0.415195,2.16252,0
21190,-0.48371,0.415195,2.16252,0
21210,-0.48371,0.415195,2.16252,0
21230,-0.48424,0.415409,2.16264,0
21250,-0.48464,0.415638,2.16259,0
21270,-0.484606,0.415653,2.16265,0
21290,-0.484689,0.415768,2.16264,0
21310,-0.484144,0.415409,2.16241,0
21330,-0.483765,0.415127,2.16224,0
21350,-0.483881,0.415073,2.16224,0
21370,-0.483881,0.415073,2.16224,0
21390,-0.483881,0.415073,2.16224,0
21410,-0.483964,0.415188,2.16223,0
21430,-0.484327,0.415172,2.16236,0
21450,-0.484327,0.415172,2.16236,0
21470,-0.484327,0.415172,2.16236,0
21490,-0.484327,0.415172,2.16236,0
21510,-0.484327,0.415172,2.16236,0
21530,-0.484327,0.415172,2.16236,0
21550,-0.484327,0.415172,2.16236,0
21570,-0.484442,0.415118,2.16236,0
21590,-0.484429,0.41508,2.1622,0
21610,-0.484512,0.415194,2.1622,0
21640,-0.484512,0.415194,2.1622,0
21660,-0.484628,0.415141,2.1622,0
21680,-0.485145,0.41547,2.16208,0
21700,-0.485696,0.41563,2.16197,0
21720,-0.485696,0.41563,2.16197,0
21740,-0.485895,0.415691,2.16196,0
21760,-0.485895,0.415691,2.16196,0
21780,-0.485895,0.415691,2.16196,0
21800,-0.485895,0.415691,2.16196,0
21820,-0.485881,0.415653,2.1618,0
21840,-0.485965,0.415768,2.16179,0
21860,-0.485965,0.415768,2.16179,0
21880,-0.486665,0.415859,2.16162,0
21900,-0.487447,0.415912,2.16152,0
21920,-0.487963,0.416087,2.16147,0
21940,-0.488013,0.416217,2.16153,0
21960,-0.488013,0.416217,2.16153,0
21980,-0.488013,0.416217,2.16153,0
22000,-0.488013,0.416217,2.16153,0
22020,-0.488013,0.416217,2.16153,0
22040,-0.488013,0.416217,2.16153,0
22060,-0.488013,0.416217,2.16153,0
22080,-0.488013,0.416217,2.16153,0
22100,-0.488013,0.416217,2.16153,0
22120,-0.488013,0.416217,2.16153,0
22140,-0.488129,0.416164,2.16153,0
22160,-0.488163,0.416148,2.16147,0
22180,-0.488212,0.416278,2.16152,0
22200,-0.488212,0.416278,2.16152,0
22220,-0.488212,0.416278,2.16152,0
22240,-0.488212,0.416278,2.16152,0
22260,-0.488212,0.416278,2.16152,0
22280,-0.488212,0.416278,2.16152,0
22300,-0.488282,0.416355,2.16135,0
22320,-0.488398,0.416301,2.16136,0
22340,-0.488398,0.416301,2.16136,0
22350,-0.488398,0.416301,2.16136,0
22370,-0.488398,0.416301,2.16136,0
22390,-0.488398,0.416301,2.16136,0
22410,-0.488482,0.416416,2.16135,0
22430,-0.488482,0.416416,2.16135,0
22450,-0.488482,0.416416,2.16135,0
22470,-0.488565,0.416531,2.16134,0
22490,-0.488681,0.416477,2.16134,0
22510,-0.488681,0.416477,2.16134,0
22530,-0.488681,0.416477,2.16134,0
22550,-0.489219,0.416599,2.16107,0
22570,-0.489853,0.416874,2.16095,0
22590,-0.49035,0.417104,2.16113,0
22610,-0.490749,0.417686,2.16135,0
22630,-0.490749,0.417686,2.16135,0
22650,-0.490832,0.417801,2.16134,0
22670,-0.490832,0.417801,2.16134,0
22690,-0.490832,0.417801,2.16134,0
22710,-0.491132,0.418123,2.16145,0
22730,-0.491583,0.418483,2.16145,0
22750,-0.492082,0.418867,2.16155,0
22770,-0.492082,0.418867,2.16155,0
22790,-0.492082,0.418867,2.16155,0
22810,-0.492082,0.418867,2.16155,0
22830,-0.492082,0.418867,2.16155,0
22850,-0.492082,0.418867,2.16155,0
22870,-0.492166,0.418982,2.16154,0
22890,-0.492166,0.418982,2.16154,0
22910,-0.492166,0.418982,2.16154,0
22930,-0.492166,0.418982,2.16154,0
22950,-0.492366,0.419043,2.16154,0
22970,-0.492353,0.419005,2.16138,0
22990,-0.492353,0.419005,2.16138,0
23010,-0.492353,0.419005,2.16138,0
23030,-0.492402,0.419135,2.16143,0
23050,-0.492402,0.419135,2.16143,0
23070,-0.492402,0.419135,2.16143,0
23090,-0.492402,0.419135,2.16143,0
23110,-0.492486,0.41925,2.16142,0
23130,-0.492155,0.419097,2.16131,0
23150,-0.491708,0.418997,2.16118,0
23170,-0.491112,0.41912,2.16104,0
23190,-0.491112,0.41912,2.16104,0
23210,-0.491112,0.41912,2.16104,0
23230,-0.491112,0.41912,2.16104,0
23250,-0.491228,0.419066,2.16105,0
23270,-0.491228,0.419066,2.16105,0
23290,-0.491312,0.419181,2.16104,0
23310,-0.491312,0.419181,2.16104,0
23330,-0.491312,0.419181,2.16104,0
23350,-0.491312,0.419181,2.16104,0
23370,-0.491312,0.419181,2.16104,0
23390,-0.491312,0.419181,2.16104,0
23410,-0.491312,0.419181,2.16104,0
23430,-0.491312,0.419181,2.16104,0
23450,-0.491299,0.419142,2.16088,0
23470,-0.491415,0.419089,2.16088,0
23490,-0.491415,0.419089,2.16088,0
23510,-0.491415,0.419089,2.16088,0
23530,-0.491498,0.419204,2.16087,0
23550,-0.491498,0.419204,2.16087,0
23570,-0.491498,0.419204,2.16087,0
23590,-0.491498,0.419204,2.16087,0
23610,-0.491498,0.419204,2.16087,0
23630,-0.491583,0.419319,2.16086,0
23650,-0.491583,0.419319,2.16086,0
23670,-0.491698,0.419265,2.16087,0
23690,-0.491698,0.419265,2.16087,0
23710,-0.491698,0.419265,2.16087,0
23730,-0.491698,0.419265,2.16087,0
23750,-0.491782,0.41938,2.16086,0
23770,-0.491782,0.41938,2.16086,0
23790,-0.491769,0.419341,2.1607,0
23810,-0.491769,0.419341,2.1607,0
23830,-0.491769,0.419341,2.1607,0
23850,-0.491769,0.419341,2.1607,0
23870,-0.49245,0.419487,2.16075,0
23890,-0.492966,0.419509,2.16078,0
23910,-0.493768,0.419862,2.16072,0
23930,-0.493853,0.419977,2.16071,0
23950,-0.493853,0.419977,2.16071,0
23970,-0.493853,0.419977,2.16071,0
23990,-0.493853,0.419977,2.16071,0
24010,-0.494321,0.420022,2.16061,0
24030,-0.494321,0.420022,2.16061,0
24050,-0.494321,0.420022,2.16061,0
24070,-0.494321,0.420022,2.16061,0
24090,-0.494321,0.420022,2.16061,0
24110,-0.494437,0.419968,2.16062,0
24130,-0.494521,0.420083,2.16061,0
24150,-0.494521,0.420083,2.16061,0
24170,-0.494521,0.420083,2.16061,0
24190,-0.494405,0.420137,2.1606,0
24210,-0.494405,0.420137,2.1606,0
24230,-0.494605,0.420199,2.1606,0
24250,-0.494605,0.420199,2.1606,0
24270,-0.494605,0.420199,2.1606,0
24290,-0.494605,0.420199,2.1606,0
24310,-0.494323,0.420175,2.16053,0
24320,-0.494189,0.41993,2.16049,0
24340,-0.493907,0.419907,2.16042,0
24360,-0.493942,0.419891,2.16036,0
24380,-0.493942,0.419891,2.16036,0
24400,-0.493376,0.419692,2.16031,0
24420,-0.493244,0.4196,2.16019,0
24440,-0.492862,0.419316,2.16001,0
24460,-0.492215,0.419155,2.15989,0
24480,-0.491749,0.419264,2.15992,0
24500,-0.491749,0.419264,2.15992,0
24520,-0.491749,0.419264,2.15992,0
24540,-0.492299,0.41927,2.15989,0
24560,-0.492299,0.41927,2.15989,0
24580,-0.492299,0.41927,2.15989,0
24600,-0.491831,0.419225,2.15999,0
24620,-0.491064,0.418858,2.15998,0
24640,-0.490532,0.418644,2.15987,0
24660,-0.490449,0.418529,2.15988,0
24680,-0.490449,0.418529,2.15988,0
24700,-0.490449,0.418529,2.15988,0
24720,-0.490449,0.418529,2.15988,0
24740,-0.491029,0.418873,2.16005,0
24760,-0.491029,0.418873,2.16005,0
24780,-0.491029,0.418873,2.16005,0
24800,-0.490914,0.418927,2.16004,0
24820,-0.49083,0.418812,2.16005,0
24840,-0.49083,0.418812,2.16005,0
24860,-0.490914,0.418927,2.16004,0
24880,-0.491416,0.418957,2.15988,0
24900,-0.491416,0.418957,2.15988,0
24920,-0.491416,0.418957,2.15988,0
24940,-0.491287,0.418512,2.15949,0
24960,-0.491287,0.418512,2.15949,0
24980,-0.491403,0.418458,2.15949,0
25000,-0.491403,0.418458,2.15949,0
25020,-0.491403,0.418458,2.15949,0
25040,-0.491602,0.418519,2.15949,0
25060,-0.491602,0.418519,2.15949,0
25080,-0.491602,0.418519,2.15949,0
25100,-0.491589,0.418481,2.15932,0
25120,-0.491121,0.418436,2.15943,0
25140,-0.491005,0.418489,2.15942,0
25160,-0.491005,0.418489,2.15942,0
25180,-0.491121,0.418436,2.15943,0
25200,-0.491205,0.418551,2.15942,0
25220,-0.491321,0.418497,2.15942,0
25240,-0.491321,0.418497,2.15942,0
25260,-0.490874,0.418398,2.1593,0
25280,-0.490458,0.41813,2.15919,0
25300,-0.490458,0.41813,2.15919,0
25320,-0.490458,0.41813,2.15919,0
25340,-0.490458,0.41813,2.15919,0
25360,-0.490458,0.41813,2.15919,0
25380,-0.490574,0.418076,2.15919,0
25400,-0.490574,0.418076,2.15919,0
25420,-0.490658,0.418191,2.15919,0
25440,-0.490658,0.418191,2.15919,0
25460,-0.490658,0.418191,2.15919,0
25480,-0.490658,0.418191,2.15919,0
25500,-0.490742,0.418306,2.15918,0
25520,-0.490729,0.418267,2.15902,0
25540,-0.490729,0.418267,2.15902,0
25560,-0.490844,0.418213,2.15902,0
25580,-0.490844,0.418213,2.15902,0
25600,-0.490844,0.418213,2.15902,0
25620,-0.490844,0.418213,2.15902,0
25640,-0.490844,0.418213,2.15902,0
25660,-0.490928,0.418328,2.15901,0
25680,-0.490928,0.418328,2.15901,0
25700,-0.491044,0.418275,2.15902,0
25720,-0.490928,0.418328,2.15901,0
25740,-0.490928,0.418328,2.15901,0
25760,-0.491044,0.418275,2.15902,0
25780,-0.491128,0.418389,2.15901,0
25800,-0.491128,0.418389,2.15901,0
25820,-0.491128,0.418389,2.15901,0
25840,-0.491866,0.418572,2.15873,0
25860,-0.49265,0.418624,2.15863,0
25880,-0.493418,0.418991,2.15863,0
25900,-0.493916,0.41922,2.15881,0
25920,-0.494,0.419335,2.1588,0
25940,-0.493966,0.419351,2.15886,0
25960,-0.494,0.419335,2.1588,0
25980,-0.494,0.419335,2.1588,0
26000,-0.494,0.419335,2.1588,0
26020,-0.493966,0.419351,2.15886,0
26040,-0.49405,0.419466,2.15886,0
26060,-0.49405,0.419466,2.15886,0
26080,-0.494166,0.419412,2.15886,0
26100,-0.494237,0.419488,2.15869,0
26120,-0.494237,0.419488,2.15869,0
26140,-0.494321,0.419603,2.15868,0
26160,-0.494321,0.419603,2.15868,0
26180,-0.494321,0.419603,2.15868,0
26200,-0.494321,0.419603,2.15868,0
26220,-0.494521,0.419664,2.15868,0
26240,-0.494521,0.419664,2.15868,0
26260,-0.494507,0.419625,2.15851,0
26280,-0.494592,0.41974,2.15851,0
26300,-0.494708,0.419686,2.15851,0
26320,-0.494792,0.419801,2.1585,0
26340,-0.494792,0.419801,2.1585,0
26360,-0.494792,0.419801,2.1585,0
26380,-0.494876,0.419916,2.15849,0
26400,-0.494876,0.419916,2.15849,0
26420,-0.494842,0.419932,2.15856,0
26440,-0.494913,0.420008,2.15839,0
26460,-0.494631,0.419985,2.15832,0
26480,-0.49425,0.420208,2.15834,0
26500,-0.494318,0.420131,2.15825,0
26520,-0.494352,0.420116,2.15818,0
26540,-0.494318,0.420131,2.15825,0
26560,-0.494402,0.420246,2.15824,0
26580,-0.494402,0.420246,2.15824,0
26600,-0.49412,0.420223,2.15818,0
26620,-0.493907,0.42017,2.15798,0
26640,-0.493907,0.42017,2.15798,0
26660,-0.494023,0.420116,2.15799,0
26680,-0.494023,0.420116,2.15799,0
26700,-0.493991,0.420285,2.15798,0
26720,-0.493957,0.4203,2.15804,0
26740,-0.494059,0.420207,2.15788,0
26760,-0.494059,0.420207,2.15788,0
26780,-0.494178,0.420307,2.15781,0
26800,-0.494294,0.420253,2.15781,0
26820,-0.494259,0.420269,2.15788,0
26840,-0.494259,0.420269,2.15788,0
26860,-0.494344,0.420384,2.15787,0
26880,-0.494344,0.420384,2.15787,0
26900,-0.494344,0.420384,2.15787,0
26920,-0.494415,0.42046,2.1577,0
26940,-0.494415,0.42046,2.1577,0
26960,-0.494415,0.42046,2.1577,0
26980,-0.494449,0.420444,2.15764,0
27000,-0.494304,0.420313,2.15735,0
27020,-0.494151,0.420276,2.15745,0
27040,-0.493985,0.420199,2.15739,0
27060,-0.493503,0.420116,2.15734,0
27080,-0.493035,0.420071,2.15744,0
27100,-0.492919,0.420125,2.15743,0
27120,-0.493106,0.420147,2.15727,0
27140,-0.493022,0.420032,2.15728,0
27160,-0.492638,0.420102,2.15737,0
27180,-0.492722,0.420217,2.15736,0
27200,-0.492722,0.420217,2.15736,0
27220,-0.493106,0.420147,2.15727,0
27240,-0.493638,0.420361,2.15738,0
27260,-0.493722,0.420476,2.15737,0
27270,-0.493722,0.420476,2.15737,0
27290,-0.493722,0.420476,2.15737,0
27310,-0.493722,0.420476,2.15737,0
27330,-0.493807,0.420591,2.15737,0
27350,-0.493909,0.420498,2.15721,0
27370,-0.493909,0.420498,2.15721,0
27390,-0.493909,0.420498,2.15721,0
27410,-0.493909,0.420498,2.15721,0
27430,-0.493993,0.420613,2.1572,0
27450,-0.494109,0.420559,2.1572,0
27470,-0.494109,0.420559,2.1572,0
27490,-0.494109,0.420559,2.1572,0
27510,-0.494109,0.420559,2.1572,0
27530,-0.494109,0.420559,2.1572,0
27550,-0.494194,0.420674,2.15719,0
27570,-0.494296,0.420581,2.15704,0
27590,-0.494296,0.420581,2.15704,0
27610,-0.494296,0.420581,2.15704,0
27630,-0.49438,0.420696,2.15703,0
27650,-0.494496,0.420642,2.15703,0
27670,-0.494496,0.420642,2.15703,0
27690,-0.494496,0.420642,2.15703,0
27700,-0.494496,0.420642,2.15703,0
27720,-0.494581,0.420757,2.15702,0
27740,-0.494581,0.420757,2.15702,0
27760,-0.494581,0.420757,2.15702,0
27780,-0.494696,0.420703,2.15703,0
27800,-0.494683,0.420664,2.15687,0
27820,-0.494567,0.420718,2.15686,0
27840,-0.494183,0.420789,2.15696,0
27860,-0.494183,0.420789,2.15696,0
27880,-0.494183,0.420789,2.15696,0
27900,-0.494783,0.420925,2.15698,0
27920,-0.4954,0.421254,2.15708,0
27940,-0.495516,0.4212,2.15709,0
27960,-0.495566,0.421331,2.15714,0
27980,-0.495284,0.421308,2.15708,0
28000,-0.494952,0.421155,2.15696,0
28020,-0.494952,0.421155,2.15696,0
28040,-0.494952,0.421155,2.15696,0
28060,-0.494952,0.421155,2.15696,0
28080,-0.495002,0.421286,2.15701,0
28100,-0.495118,0.421232,2.15702,0
28120,-0.495189,0.421308,2.15685,0
28140,-0.495189,0.421308,2.15685,0
28160,-0.495189,0.421308,2.15685,0
28180,-0.495189,0.421308,2.15685,0
28200,-0.495189,0.421308,2.15685,0
28220,-0.49539,0.421369,2.15684,0
28240,-0.495943,0.421528,2.15673,0
28260,-0.495943,0.421528,2.15673,0
28280,-0.496028,0.421643,2.15672,0
28300,-0.496028,0.421643,2.15672,0
28320,-0.496028,0.421643,2.15672,0
28340,-0.496215,0.421665,2.15656,0
28360,-0.496829,0.421841,2.15674,0
28380,-0.497096,0.422179,2.15691,0
28400,-0.497125,0.422364,2.15719,0
28420,-0.496469,0.422758,2.15768,0
28440,-0.495616,0.423245,2.15811,0
28460,-0.4955,0.423298,2.1581,0
28480,-0.495466,0.423314,2.15817,0
28500,-0.49555,0.423429,2.15816,0
28520,-0.496339,0.423635,2.15798,0
28540,-0.496883,0.423909,2.15763,0
28560,-0.498063,0.424305,2.15723,0
28580,-0.499766,0.424857,2.15742,0
28600,-0.502164,0.425397,2.15793,0
28620,-0.504091,0.42574,2.15862,0
28640,-0.505605,0.427296,2.15981,0
28660,-0.506649,0.427944,2.16065,0
28680,-0.508368,0.429211,2.16157,0
28700,-0.510401,0.429889,2.16172,0
28720,-0.51314,0.430508,2.16177,0
28740,-0.514652,0.43101,2.16196,0
28760,-0.515842,0.431709,2.1625,0
28780,-0.517403,0.432551,2.1631,0
28800,-0.519861,0.433358,2.16344,0
28820,-0.524463,0.434806,2.16483,0
28840,-0.528937,0.436324,2.16712,0
28860,-0.532409,0.438206,2.16955,0
28880,-0.538164,0.440761,2.17065,0
28900,-0.544877,0.443331,2.17076,0
28920,-0.551723,0.445393,2.17002,0
28940,-0.555571,0.447114,2.17039,0
28960,-0.556765,0.44733,2.17055,0
28980,-0.558393,0.44371,2.17091,0
29000,-0.558205,0.437752,2.17111,0
29020,-0.556379,0.43047,2.16971,0
29040,-0.557761,0.420516,2.16786,0
29060,-0.560438,0.405786,2.16742,0
29080,-0.564513,0.387294,2.1666,0
29100,-0.571472,0.366543,2.16588,0
29120,-0.574782,0.344238,2.16711,0
29140,-0.574158,0.320595,2.16874,0
29160,-0.573541,0.295292,2.16906,0
29180,-0.574262,0.268057,2.17053,0
29200,-0.575952,0.239717,2.17257,0
29220,-0.575532,0.211001,2.17422,0
29240,-0.574685,0.181376,2.17725,0
29260,-0.57361,0.150743,2.18092,0
29280,-0.572386,0.119859,2.18542,0
29300,-0.57106,0.0889,2.19143,0
29320,-0.569663,0.058357,2.19909,0
29340,-0.570826,0.028682,2.20857,0
29360,-0.575061,-0.000946269,2.21827,0
29380,-0.58162,-0.0304912,2.22897,0
29400,-0.586787,-0.059317,2.24038,0
29420,-0.591629,-0.0869487,2.25305,0
29440,-0.598853,-0.112353,2.26669,0
29460,-0.609921,-0.135439,2.27994,0
29480,-0.623474,-0.156476,2.29251,0
29500,-0.638796,-0.175718,2.30439,0
29520,-0.652234,-0.192942,2.3151,0
29540,-0.665385,-0.206671,2.32506,0
29560,-0.677264,-0.216213,2.33503,0
29580,-0.683879,-0.223385,2.3439,0
29600,-0.687976,-0.229522,2.35199,0
29620,-0.690672,-0.234327,2.35824,0
29640,-0.694427,-0.237015,2.36228,0
29660,-0.701391,-0.237649,2.36736,0
29670,-0.710588,-0.236725,2.3741,0
29690,-0.715856,-0.23483,2.38029,0
29710,-0.717562,-0.231226,2.3847,0
29730,-0.720112,-0.227529,2.38763,0
29750,-0.71986,-0.223031,2.39044,0
29770,-0.718144,-0.217129,2.39359,0
29790,-0.716359,-0.211842,2.39619,0
29810,-0.714119,-0.207263,2.39659,0
29830,-0.71219,-0.202735,2.39582,0
29850,-0.709432,-0.198391,2.39413,0
29870,-0.705763,-0.193759,2.3921,0
29890,-0.703777,-0.189045,2.38971,0
29910,-0.70382,-0.184217,2.38688,0
29930,-0.704593,-0.179547,2.38342,0
29950,-0.703906,-0.17556,2.37948,0
29970,-0.702907,-0.172164,2.37679,0
29990,-0.70046,-0.170034,2.37428,0
30010,-0.699578,-0.170015,2.37228,0
30030,-0.699545,-0.171576,2.37042,0
30050,-0.697914,-0.173001,2.36921,0
30070,-0.697645,-0.176402,2.36704,0
30090,-0.696104,-0.180399,2.3647,0
30110,-0.696102,-0.182577,2.3627,0
30130,-0.702178,-0.185054,2.36002,0
30150,-0.707803,-0.18774,2.35675,0
30170,-0.715324,-0.190178,2.35168,0
30190,-0.723831,-0.194067,2.34403,0
30210,-0.730252,-0.19855,2.33584,0
30230,-0.746267,-0.204844,2.33139,0
30250,-0.757245,-0.218461,2.32734,0
30270,-0.755788,-0.238755,2.31821,0
30290,-0.749778,-0.264022,2.30728,0
30310,-0.74415,-0.295093,2.29253,0
30330,-0.739337,-0.327806,2.27433,0
30350,-0.734747,-0.358924,2.2575,0
30370,-0.720541,-0.391608,2.24045,0
30390,-0.698075,-0.425918,2.2206,0
30410,-0.674604,-0.455487,2.19341,0
30430,-0.652074,-0.47773,2.16115,0
30450,-0.624498,-0.490316,2.12465,0
30470,-0.589836,-0.490632,2.09036,0
30490,-0.562622,-0.47627,2.06132,0
30510,-0.545171,-0.448812,2.04279,0
30530,-0.536002,-0.407763,2.04152,0
30550,-0.532059,-0.363463,2.0572,0
30570,-0.526183,-0.331897,2.08027,0
30590,-0.514231,-0.317547,2.09996,0
30610,-0.515448,-0.316496,2.11718,0
30630,-0.526263,-0.32233,2.13544,0
30650,-0.541013,-0.327613,2.15021,0
30670,-0.552272,-0.323041,2.16092,0
30690,-0.564853,-0.314957,2.16283,0
30710,-0.5738,-0.313502,2.16386,0
30730,-0.567523,-0.312638,2.16553,0
30750,-0.561843,-0.315088,2.1703,0
30770,-0.567146,-0.319576,2.18041,0
30790,-0.58263,-0.327952,2.19204,0
30810,-0.607766,-0.34082,2.20502,0
30830,-0.638542,-0.353971,2.21961,0
30850,-0.683025,-0.356314,2.23517,0
30870,-0.722929,-0.353124,2.25475,0
30890,-0.749683,-0.350821,2.2834,0
30910,-0.761337,-0.357884,2.31876,0
30930,-0.761373,-0.372307,2.33668,0
30950,-0.769348,-0.382143,2.35164,0
30970,-0.791173,-0.383571,2.3736,0
30990,-0.814724,-0.382257,2.40113,0
31010,-0.829699,-0.385496,2.42367,0
31030,-0.832251,-0.39366,2.43716,0
31050,-0.831268,-0.404735,2.449,0
31070,-0.838884,-0.413549,2.46677,0
31090,-0.848822,-0.423077,2.48183,0
31110,-0.855623,-0.435559,2.48911,0
31130,-0.862325,-0.445797,2.49547,0
31150,-0.866068,-0.448572,2.50182,0
31170,-0.864602,-0.448158,2.50851,0
31190,-0.85871,-0.453081,2.51101,0
31210,-0.849076,-0.461682,2.50906,0
31230,-0.838725,-0.470377,2.50343,0
31250,-0.82712,-0.480389,2.49603,0
31270,-0.811956,-0.489356,2.4863,0
31290,-0.793824,-0.493811,2.47978,0
31310,-0.776063,-0.496774,2.47374,0
31330,-0.75868,-0.499094,2.46786,0
31350,-0.744212,-0.500955,2.46526,0
31370,-0.731978,-0.500133,2.46659,0
31390,-0.721473,-0.498912,2.4699,0
31410,-0.712135,-0.49811,2.47572,0
31430,-0.70515,-0.496511,2.48218,0
31450,-0.697385,-0.49514,2.48822,0
31470,-0.689186,-0.492762,2.49513,0
31490,-0.679008,-0.489001,2.50309,0
31510,-0.670264,-0.488246,2.50971,0
31530,-0.661254,-0.490295,2.51576,0
31550,-0.655639,-0.490976,2.52166,0
31570,-0.651814,-0.492637,2.52559,0
31590,-0.648102,-0.496956,2.52875,0
31610,-0.647962,-0.503328,2.53297,0
31630,-0.650361,-0.510319,2.53673,0
31650,-0.648491,-0.515675,2.54416,0
31670,-0.643933,-0.519134,2.549,0
31690,-0.645207,-0.515283,2.55332,0
31710,-0.642545,-0.50354,2.55952,0
31730,-0.633011,-0.489304,2.56369,0
31750,-0.627369,-0.477802,2.56367,0
31770,-0.632714,-0.466686,2.56197,0
31790,-0.636137,-0.458318,2.5618,0
31810,-0.631859,-0.456955,2.56126,0
31830,-0.62836,-0.458513,2.55882,0
31850,-0.627215,-0.461414,2.55853,0
31870,-0.629301,-0.465812,2.56237,0
31890,-0.639466,-0.470768,2.56615,0
31910,-0.657508,-0.475038,2.57031,0
31930,-0.678817,-0.477201,2.57434,0
31950,-0.704508,-0.475363,2.57794,0
31970,-0.729197,-0.471997,2.58044,0
31990,-0.750795,-0.467455,2.58132,0
32010,-0.772911,-0.461636,2.58125,0
32030,-0.798398,-0.453834,2.58223,0
32050,-0.821967,-0.443008,2.58404,0
32070,-0.84184,-0.43081,2.58371,0
32090,-0.856132,-0.423525,2.57988,0
32110,-0.867299,-0.419532,2.57549,0
32130,-0.884044,-0.417961,2.57573,0
32150,-0.90183,-0.416801,2.57666,0
32170,-0.913954,-0.412537,2.58045,0
32190,-0.916017,-0.411946,2.58298,0
32210,-0.909592,-0.417962,2.58167,0
32230,-0.906243,-0.422532,2.58043,0
32250,-0.909876,-0.423243,2.58114,0
32270,-0.914689,-0.426059,2.58455,0
32290,-0.911814,-0.436772,2.58635,0
32310,-0.902278,-0.454684,2.58436,0
32330,-0.897068,-0.478752,2.57568,0
32350,-0.888089,-0.506289,2.55921,0
32370,-0.875971,-0.526809,2.54269,0
32390,-0.866157,-0.537276,2.52865,0
32410,-0.857387,-0.544047,2.51452,0
32430,-0.847406,-0.547098,2.49895,0
32450,-0.833799,-0.544378,2.48181,0
32470,-0.813299,-0.536844,2.46584,0
32490,-0.786015,-0.525591,2.4525,0
32510,-0.755754,-0.512716,2.44129,0
32530,-0.729501,-0.500047,2.43388,0
32550,-0.707524,-0.487743,2.43067,0
32570,-0.694186,-0.473058,2.43295,0
32590,-0.685258,-0.457232,2.43913,0
32610,-0.673923,-0.442505,2.44868,0
32630,-0.65201,-0.430358,2.46134,0
32650,-0.626197,-0.426972,2.47326,0
32670,-0.609562,-0.433038,2.48112,0
32690,-0.602471,-0.444033,2.48641,0
32710,-0.604143,-0.45521,2.49251,0
32730,-0.611366,-0.466712,2.50041,0
32750,-0.620971,-0.474411,2.50738,0
32770,-0.637819,-0.477485,2.5169,0
32790,-0.660435,-0.475194,2.52463,0
32810,-0.686583,-0.470213,2.52764,0
32830,-0.715316,-0.464905,2.5287,0
32850,-0.740015,-0.459292,2.53283,0
32870,-0.760277,-0.452834,2.53466,0
32890,-0.770893,-0.448859,2.5327,0
32910,-0.779817,-0.442396,2.52694,0
32930,-0.79244,-0.435113,2.5247,0
32950,-0.809181,-0.428989,2.52198,0
32970,-0.825091,-0.423201,2.51746,0
32990,-0.839238,-0.415404,2.51186,0
33010,-0.853459,-0.409076,2.50876,0
33030,-0.867647,-0.404483,2.50806,0
33050,-0.881116,-0.399711,2.51248,0
33070,-0.891549,-0.399282,2.51799,0
33080,-0.896782,-0.399899,2.52156,0
33100,-0.89849,-0.400837,2.52645,0
33120,-0.899741,-0.405041,2.53091,0
33140,-0.90703,-0.415172,2.52767,0
33160,-0.907874,-0.43023,2.51949,0
33180,-0.890257,-0.442492,2.51189,0
33200,-0.86613,-0.449721,2.50567,0
33220,-0.843499,-0.45644,2.4947,0
33240,-0.824422,-0.463228,2.48062,0
33260,-0.803984,-0.467222,2.46819,0
33280,-0.784161,-0.465577,2.45948,0
33300,-0.766675,-0.460756,2.45143,0
33320,-0.748987,-0.456292,2.44535,0
33340,-0.733487,-0.451255,2.44478,0
33360,-0.717334,-0.4479,2.45046,0
33380,-0.69857,-0.445931,2.45476,0
33400,-0.676475,-0.44157,2.46102,0
33420,-0.653069,-0.436341,2.46449,0
33440,-0.633704,-0.434365,2.4671,0
33460,-0.624176,-0.43873,2.46983,0
33480,-0.6222,-0.446486,2.47402,0
33500,-0.626594,-0.454677,2.4774,0
33520,-0.635338,-0.45189,2.4781,0
33540,-0.646339,-0.44331,2.47607,0
33560,-0.654799,-0.440327,2.47625,0
33580,-0.661088,-0.443181,2.48057,0
33600,-0.668464,-0.44106,2.48506,0
33620,-0.667352,-0.435673,2.48648,0
33640,-0.659374,-0.435017,2.48519,0
33660,-0.652482,-0.436337,2.48308,0
33680,-0.645149,-0.436977,2.48292,0
33700,-0.6431,-0.436803,2.48089,0
33720,-0.639328,-0.436674,2.47873,0
33740,-0.636551,-0.440442,2.476,0
33760,-0.633252,-0.443245,2.47297,0
33780,-0.628999,-0.444536,2.47014,0
33800,-0.624696,-0.444666,2.4691,0
33820,-0.623502,-0.44739,2.4692,0
33840,-0.62662,-0.451317,2.47111,0
33860,-0.627795,-0.455626,2.47525,0
33880,-0.629193,-0.460123,2.48279,0
33900,-0.633204,-0.467641,2.48852,0
33920,-0.641889,-0.469205,2.49678,0
33940,-0.662776,-0.468023,2.49477,0
33960,-0.668134,-0.467594,2.48954,0
33980,-0.665556,-0.460833,2.50103,0
34000,-0.668689,-0.474233,2.50293,0
34020,-0.65878,-0.484009,2.48864,0
34040,-0.651741,-0.47783,2.49275,0
34060,-0.660658,-0.479952,2.48918,0
34080,-0.673865,-0.478953,2.48634,0
34100,-0.686901,-0.48085,2.4878,0
34120,-0.697025,-0.489265,2.48946,0
34140,-0.700923,-0.487511,2.49492,0
34160,-0.707931,-0.484593,2.49381,0
34180,-0.697027,-0.487457,2.48379,0
34200,-0.678196,-0.488282,2.474,0
34220,-0.653833,-0.494138,2.46256,0
34240,-0.622693,-0.491801,2.45898,0
34260,-0.621741,-0.483332,2.4587,0
34280,-0.624119,-0.482818,2.45602,0
34300,-0.629196,-0.490553,2.45948,0
34320,-0.627428,-0.488607,2.46375,0
34340,-0.62655,-0.483804,2.46844,0
34360,-0.636828,-0.481838,2.47959,0
34380,-0.636804,-0.484267,2.48736,0
34400,-0.645828,-0.509775,2.48933,0
34420,-0.650193,-0.512994,2.47475,0
34440,-0.642058,-0.512031,2.47011,0
34460,-0.652115,-0.517392,2.46838,0
34480,-0.661455,-0.514987,2.47284,0
34500,-0.665092,-0.505547,2.48856,0
34520,-0.677801,-0.505518,2.50221,0
34540,-0.68768,-0.505022,2.50112,0
34560,-0.692511,-0.498166,2.49237,0
34580,-0.692036,-0.495431,2.48907,0
34600,-0.67597,-0.499441,2.47938,0
34620,-0.649683,-0.50439,2.46953,0
34640,-0.628316,-0.504471,2.46631,0
34660,-0.627818,-0.502107,2.46729,0
34680,-0.633188,-0.507992,2.46869,0
34700,-0.63314,-0.514885,2.47488,0
34720,-0.635228,-0.519214,2.48253,0
34740,-0.644037,-0.521669,2.49278,0
34760,-0.64732,-0.522075,2.49674,0
34780,-0.660094,-0.513938,2.49677,0
34800,-0.643219,-0.515236,2.47873,0
34820,-0.618826,-0.506942,2.47578,0
34840,-0.607278,-0.501968,2.48001,0
34860,-0.608864,-0.504668,2.47168,0
34880,-0.621923,-0.499531,2.46855,0
34900,-0.633984,-0.500497,2.46185,0
34920,-0.644187,-0.505077,2.45992,0
34940,-0.649581,-0.504049,2.46824,0
34960,-0.652048,-0.507702,2.46694,0
34980,-0.638985,-0.508714,2.45724,0
35000,-0.631883,-0.512882,2.44641,0
35020,-0.634051,-0.517385,2.43638,0
35040,-0.629981,-0.513473,2.42781,0
35050,-0.62994,-0.501566,2.42607,0
35070,-0.648502,-0.492271,2.42494,0
35090,-0.674123,-0.482085,2.42618,0
35110,-0.698143,-0.469385,2.43113,0
35130,-0.709756,-0.458963,2.43418,0
35150,-0.713667,-0.449159,2.43408,0
35170,-0.720806,-0.43762,2.4348,0
35190,-0.732194,-0.427749,2.43988,0
35210,-0.743586,-0.420722,2.44918,0
35230,-0.757531,-0.410789,2.45654,0
35250,-0.764417,-0.402532,2.45916,0
35270,-0.771395,-0.396531,2.46228,0
35290,-0.781877,-0.388748,2.46887,0
35310,-0.787708,-0.377624,2.47683,0
35330,-0.787446,-0.369223,2.48181,0
35350,-0.784999,-0.362652,2.48514,0
35370,-0.785065,-0.354788,2.48757,0
35390,-0.788279,-0.347501,2.48993,0
35410,-0.793441,-0.341091,2.49239,0
35430,-0.796281,-0.334958,2.49228,0
35450,-0.797204,-0.328788,2.49115,0
35470,-0.797441,-0.321129,2.49233,0
35490,-0.796509,-0.312059,2.49498,0
35510,-0.796234,-0.304138,2.496,0
35530,-0.799597,-0.296274,2.49645,0
35550,-0.802557,-0.288181,2.49667,0
35570,-0.803706,-0.28038,2.4965,0
35590,-0.80314,-0.272196,2.49699,0
35610,-0.802547,-0.264645,2.49698,0
35630,-0.802316,-0.258364,2.49536,0
35650,-0.80307,-0.252328,2.49315,0
35670,-0.802227,-0.246843,2.49233,0
35690,-0.79955,-0.242746,2.4921,0
35710,-0.796542,-0.240292,2.49192,1000
35730,-0.794751,-0.239107,2.49151,0
35750,-0.7949,-0.23816,2.49162,0
35770,-0.79522,-0.236897,2.49218,0
35790,-0.795381,-0.235339,2.49334,0
35810,-0.793582,-0.234029,2.49473,0
35830,-0.791734,-0.233403,2.49611,0
35850,-0.790564,-0.233415,2.49789,0
35870,-0.788972,-0.233776,2.49972,0
35890,-0.78645,-0.234423,2.50169,0
35910,-0.782633,-0.236219,2.50376,0
35930,-0.778636,-0.238617,2.50586,0
35950,-0.775682,-0.24138,2.50864,0
35970,-0.773385,-0.243848,2.51171,0
35990,-0.77175,-0.246137,2.5155,0
36010,-0.770445,-0.248193,2.51911,0
36030,-0.769468,-0.25016,2.52226,0
36050,-0.769346,-0.251548,2.52585,0
36070,-0.769124,-0.252848,2.52957,0
36090,-0.767876,-0.254451,2.53307,0
36110,-0.765878,-0.256066,2.53615,0
36130,-0.764769,-0.257678,2.53847,0
36150,-0.764049,-0.258804,2.53999,0
36170,-0.76279,-0.259356,2.54147,0
36190,-0.761904,-0.259504,2.5429,0
36210,-0.761074,-0.259435,2.54425,0
36230,-0.761351,-0.259014,2.54486,0
36250,-0.764246,-0.257611,2.54602,0
36270,-0.766745,-0.255623,2.54728,0
36290,-0.768027,-0.253902,2.54817,0
36310,-0.768296,-0.252319,2.54857,0
36330,-0.767661,-0.251488,2.54839,0
36350,-0.767166,-0.250783,2.54778,0
36370,-0.766287,-0.250314,2.54687,0
36390,-0.764984,-0.249945,2.54605,0
36410,-0.764601,-0.249706,2.54563,0
36430,-0.764068,-0.250147,2.54482,0
36450,-0.763472,-0.250843,2.5437,0
36470,-0.763679,-0.251094,2.54264,0
36490,-0.764676,-0.250984,2.54242,0
36510,-0.765734,-0.251389,2.5421,0
36530,-0.765763,-0.251231,2.54215,0
36550,-0.766414,-0.250833,2.54168,0
36570,-0.765895,-0.250187,2.5412,0
36590,-0.762975,-0.248906,2.54111,0
36610,-0.761217,-0.248215,2.54164,0
36630,-0.760597,-0.247248,2.54206,0
36650,-0.760198,-0.246556,2.54204,0
36670,-0.758431,-0.245842,2.54195,0
36690,-0.756788,-0.245194,2.54246,0
36710,-0.755425,-0.244407,2.54281,0
36730,-0.755655,-0.242535,2.54358,0
36750,-0.756327,-0.241015,2.54384,0
36770,-0.757087,-0.239704,2.54433,0
36790,-0.757225,-0.238636,2.54534,0
36810,-0.756683,-0.238127,2.54677,0
36830,-0.755664,-0.237633,2.54738,0
36850,-0.755477,-0.237265,2.54808,0
36870,-0.755519,-0.23772,2.54901,0
36890,-0.755353,-0.238292,2.54974,0
36910,-0.754676,-0.238709,2.55043,0
36930,-0.754574,-0.239076,2.5514,0
36950,-0.754967,-0.239199,2.55271,0
36970,-0.755214,-0.239329,2.55389,0
36990,-0.7554,-0.239666,2.55483,0
37010,-0.756335,-0.239977,2.55587,0
37030,-0.757348,-0.239898,2.55657,0
37050,-0.75778,-0.23914,2.55702,0
37070,-0.758247,-0.238429,2.55747,0
37090,-0.758512,-0.237995,2.55777,0
37110,-0.758604,-0.237011,2.5582,0
37130,-0.75939,-0.23622,2.5588,0
37150,-0.760057,-0.235853,2.55926,0
37170,-0.760321,-0.235274,2.55983,0
37190,-0.760245,-0.235042,2.56032,0
37210,-0.760799,-0.235064,2.56102,0
37230,-0.761215,-0.235156,2.56181,0
37250,-0.7612,-0.235097,2.56284,0
37270,-0.761221,-0.235515,2.56408,0
37290,-0.761305,-0.235871,2.56528,0
37310,-0.761903,-0.235711,2.56676,0
37330,-0.762703,-0.235321,2.56829,0
37350,-0.763135,-0.234671,2.57013,0
37370,-0.76329,-0.234116,2.5722,0
37390,-0.763189,-0.23339,2.57444,0
37410,-0.763629,-0.232704,2.57668,0
37430,-0.763961,-0.232456,2.57908,0
37450,-0.76395,-0.232547,2.58109,0
37470,-0.764303,-0.232225,2.58305,0
37490,-0.765087,-0.231904,2.58504,0
37510,-0.765132,-0.231679,2.58716,0
37530,-0.765471,-0.231527,2.58938,0
37550,-0.765629,-0.231484,2.59118,0
37570,-0.765786,-0.231903,2.59281,0
37590,-0.766714,-0.232262,2.59525,0
37610,-0.766921,-0.232597,2.59746,0
37630,-0.767277,-0.23343,2.59955,0
37650,-0.767106,-0.234802,2.60159,0
37670,-0.766558,-0.236606,2.60392,0
37690,-0.766042,-0.23835,2.60611,0
37710,-0.7661,-0.240666,2.60866,0
37730,-0.766331,-0.243543,2.61131,0
37750,-0.766335,-0.246778,2.61417,0
37770,-0.765683,-0.250574,2.61685,0
37790,-0.76554,-0.254699,2.62007,0
37810,-0.766049,-0.259125,2.62367,0
37830,-0.766758,-0.263506,2.62785,0
37850,-0.766853,-0.267509,2.6321,0
37870,-0.767602,-0.27127,2.63645,0
37890,-0.769179,-0.275093,2.6403,0
37910,-0.771088,-0.278708,2.64421,0
37930,-0.773039,-0.282258,2.64799,0
37950,-0.774258,-0.285437,2.65152,0
37970,-0.774868,-0.288826,2.6553,0
37990,-0.775099,-0.292908,2.65882,0
38010,-0.77578,-0.297423,2.66191,0
38030,-0.777113,-0.302539,2.66507,0
38050,-0.778329,-0.307382,2.6678,0
38070,-0.77951,-0.312434,2.67031,0
38090,-0.780635,-0.317477,2.67318,0
38110,-0.781456,-0.322679,2.67605,0
38130,-0.781856,-0.327719,2.67864,0
38150,-0.783247,-0.332963,2.6809,0
38170,-0.785097,-0.337899,2.68293,0
38190,-0.787119,-0.342585,2.68496,0
38210,-0.789119,-0.347724,2.68721,0
38230,-0.790518,-0.352377,2.68926,0
38250,-0.791354,-0.357689,2.69068,0
38270,-0.792425,-0.363215,2.69178,0
38290,-0.793326,-0.36864,2.69263,0
38310,-0.79411,-0.374213,2.69344,0
38330,-0.793968,-0.379059,2.69373,0
38350,-0.793285,-0.383789,2.69393,0
38370,-0.793732,-0.388536,2.69423,0
38390,-0.795029,-0.393235,2.69433,0
38410,-0.796274,-0.398089,2.69406,0
38430,-0.798036,-0.402993,2.69344,0
38440,-0.799176,-0.408283,2.69276,0
38460,-0.799787,-0.414208,2.69184,0
38480,-0.799983,-0.420674,2.69038,0
38500,-0.800194,-0.427195,2.68818,0
38520,-0.800117,-0.433721,2.68582,0
38540,-0.799705,-0.440177,2.68307,0
38560,-0.799499,-0.4468,2.67986,0
38580,-0.798922,-0.452363,2.67603,0
38600,-0.798146,-0.457076,2.67212,0
38620,-0.797201,-0.461754,2.66813,0
38640,-0.796811,-0.466335,2.6639,0
38660,-0.796695,-0.470755,2.65938,0
38680,-0.796637,-0.475193,2.65453,0
38700,-0.796797,-0.479458,2.64905,0
38720,-0.797056,-0.483937,2.64352,0
38740,-0.797005,-0.488644,2.63727,0
38760,-0.796662,-0.49318,2.63089,0
38780,-0.795592,-0.497791,2.62449,0
38800,-0.794547,-0.502347,2.61776,0
38820,-0.794,-0.506818,2.61116,0
38840,-0.792818,-0.511308,2.60453,0
38860,-0.791887,-0.516003,2.59777,0
38880,-0.791887,-0.519832,2.59061,0
38900,-0.791569,-0.52329,2.58398,0
38920,-0.791439,-0.526691,2.57762,0
38940,-0.79121,-0.529781,2.57126,0
38960,-0.791236,-0.533203,2.56484,0
38980,-0.791351,-0.536537,2.55828,0
39000,-0.790426,-0.539957,2.55165,0
39020,-0.789407,-0.543349,2.54484,0
39040,-0.787833,-0.547209,2.53764,0
39060,-0.785476,-0.551149,2.52976,0
39080,-0.782768,-0.555369,2.52102,0
39100,-0.779779,-0.559933,2.51216,0
39120,-0.776093,-0.564651,2.50316,0
39140,-0.771815,-0.569447,2.49351,0
39160,-0.768293,-0.573818,2.48361,0
39180,-0.765819,-0.578098,2.47388,0
39200,-0.762779,-0.582215,2.46408,0
39220,-0.758165,-0.586558,2.45369,0
39240,-0.753384,-0.590653,2.44324,0
39260,-0.748707,-0.594668,2.43248,0
39280,-0.744615,-0.598762,2.42183,0
39300,-0.740184,-0.602477,2.41156,0
39320,-0.73582,-0.605214,2.40126,0
39340,-0.731268,-0.607186,2.39074,0
39360,-0.727472,-0.609044,2.3807,0
39380,-0.72334,-0.611022,2.37067,0
39400,-0.718946,-0.612755,2.36074,0
39420,-0.714401,-0.614303,2.35046,0
39440,-0.710098,-0.615987,2.34028,0
39460,-0.704335,-0.617719,2.32989,0
39480,-0.698193,-0.619471,2.31926,0
39500,-0.692436,-0.620911,2.30848,0
39520,-0.68695,-0.622119,2.29734,0
39540,-0.681196,-0.623564,2.28691,0
39560,-0.675208,-0.624878,2.27673,0
39580,-0.669876,-0.626119,2.26673,0
39600,-0.665594,-0.626562,2.25654,0
39620,-0.661196,-0.625898,2.24584,0
39640,-0.655524,-0.625162,2.2349,0
39660,-0.648511,-0.623834,2.22404,0
39680,-0.640659,-0.622404,2.21236,0
39700,-0.633525,-0.620187,2.20021,0
39720,-0.626642,-0.617214,2.18812,0
39740,-0.619609,-0.614089,2.17654,0
39760,-0.612685,-0.610876,2.16513,0
39780,-0.604365,-0.607366,2.15274,0
39800,-0.596794,-0.60231,2.14028,0
39820,-0.590107,-0.596447,2.1294,0
39840,-0.582474,-0.59136,2.11933,0
39860,-0.573775,-0.587005,2.10976,0
39880,-0.565661,-0.582946,2.10048,0
39900,-0.557717,-0.578613,2.09098,0
39920,-0.552191,-0.574361,2.08263,0
39940,-0.547591,-0.569951,2.07529,0
39960,-0.542697,-0.565634,2.06844,0
39980,-0.537353,-0.561882,2.06262,0
40000,-0.531141,-0.55828,2.05653,0
40020,-0.524784,-0.554619,2.05021,0
40040,-0.51927,-0.551331,2.04425,0
40060,-0.514101,-0.547387,2.03834,0
40080,-0.509509,-0.54274,2.03309,0
40100,-0.503509,-0.538874,2.0278,0
40120,-0.496427,-0.535731,2.02215,0
40140,-0.489466,-0.532183,2.01657,0
40160,-0.483476,-0.528093,2.0109,0
40180,-0.478272,-0.523624,2.00582,0
40200,-0.472863,-0.519853,2.00085,0
40220,-0.467726,-0.516316,1.99644,0
40240,-0.461707,-0.513184,1.99175,0
40260,-0.456069,-0.50908,1.98662,0
40280,-0.452097,-0.504759,1.9819,0
40300,-0.450211,-0.500726,1.97854,0
40320,-0.448276,-0.497819,1.97521,0
40340,-0.444874,-0.494839,1.971,0
40360,-0.442277,-0.491385,1.96675,0
40380,-0.441155,-0.488254,1.96311,0
40400,-0.441141,-0.485255,1.96023,0
40420,-0.439551,-0.482881,1.95805,0
40430,-0.436056,-0.480466,1.95595,0
40450,-0.433031,-0.47859,1.95401,0
40470,-0.430727,-0.476207,1.95114,0
40490,-0.431063,-0.472388,1.9488,0
40510,-0.433032,-0.468883,1.94708,0
40530,-0.433933,-0.465963,1.94523,0
40550,-0.434458,-0.46227,1.94371,0
40570,-0.433667,-0.457428,1.94268,0
40590,-0.433765,-0.452208,1.94151,0
40610,-0.43417,-0.44701,1.94009,0
40630,-0.433629,-0.441981,1.93833,0
40650,-0.433488,-0.437435,1.93696,0
40670,-0.432759,-0.433076,1.9356,0
40690,-0.431966,-0.428745,1.9339,0
40710,-0.43219,-0.424362,1.93227,0
40730,-0.433128,-0.420436,1.93121,0
40750,-0.432467,-0.417688,1.92997,0
40770,-0.431571,-0.415316,1.92853,0
40790,-0.430758,-0.412766,1.92716,0
40810,-0.431532,-0.410372,1.92657,0
40830,-0.432892,-0.408149,1.92675,0
40850,-0.432109,-0.405745,1.92686,0
40870,-0.4312,-0.403749,1.92718,0
40890,-0.431471,-0.401298,1.92796,0
40910,-0.43398,-0.398119,1.92961,0
40930,-0.436223,-0.394446,1.93142,0
40950,-0.437995,-0.390953,1.93338,0
40970,-0.440244,-0.38724,1.93567,0
40990,-0.442635,-0.382841,1.93811,0
41010,-0.445032,-0.378402,1.94103,0
41030,-0.447441,-0.374483,1.94434,0
41050,-0.449627,-0.371346,1.9475,0
41070,-0.452553,-0.368416,1.94973,0
41090,-0.455469,-0.364551,1.95211,0
41110,-0.45874,-0.360381,1.95519,0
41130,-0.460907,-0.356406,1.95806,0
41150,-0.461554,-0.352371,1.96117,0
41170,-0.46334,-0.348476,1.96478,0
41190,-0.466399,-0.345276,1.96849,0
41210,-0.47049,-0.341173,1.97254,0
41230,-0.475601,-0.336437,1.97702,0
41250,-0.480341,-0.333003,1.98215,0
41270,-0.483395,-0.329947,1.98753,0
41290,-0.486753,-0.326104,1.99274,0
41310,-0.491356,-0.323003,1.99782,0
41330,-0.495759,-0.319891,2.00243,0
41350,-0.49892,-0.315982,2.00738,0
41370,-0.502222,-0.312331,2.01273,0
41390,-0.505759,-0.309771,2.01787,0
41410,-0.507741,-0.306952,2.02253,0
41430,-0.509957,-0.303662,2.02676,0
41450,-0.512419,-0.30133,2.03096,0
41470,-0.514007,-0.298809,2.03522,0
41490,-0.515064,-0.296127,2.04024,0
41510,-0.518133,-0.294425,2.04571,0
41530,-0.519291,-0.293061,2.05085,0
41550,-0.519252,-0.290407,2.05597,0
41570,-0.521805,-0.288222,2.06101,0
41590,-0.525529,-0.287447,2.06618,0
41610,-0.528728,-0.286531,2.07122,0
41630,-0.531116,-0.285335,2.07632,0
41650,-0.533291,-0.285082,2.08169,0
41670,-0.534477,-0.284669,2.08697,0
41690,-0.536739,-0.283991,2.09245,0
41710,-0.540231,-0.283779,2.09822,0
41730,-0.543542,-0.282765,2.10427,0
41750,-0.545597,-0.281297,2.11029,0
41770,-0.548891,-0.279765,2.11698,0
41790,-0.553006,-0.277986,2.12352,0
41810,-0.556339,-0.275958,2.13068,0
41830,-0.558284,-0.273916,2.13836,0
41850,-0.558695,-0.273435,2.14606,0
41870,-0.558755,-0.273601,2.15329,0
41890,-0.560425,-0.273338,2.15996,0
41910,-0.564283,-0.27281,2.16673,0
41930,-0.569566,-0.27236,2.17424,0
41940,-0.575473,-0.271237,2.18255,0
41960,-0.580691,-0.270178,2.19099,0
41980,-0.584615,-0.269074,2.19954,0
42020,-0.592937,-0.266352,2.2165,0
42040,-0.597679,-0.265279,2.22511,0
42060,-0.60233,-0.264077,2.23387,0
42080,-0.60589,-0.263327,2.24246,0
42100,-0.609344,-0.263391,2.25083,0
42120,-0.613074,-0.262884,2.2588,0
42140,-0.618233,-0.262055,2.26722,0
42160,-0.624051,-0.261655,2.27596,0
42180,-0.62815,-0.260888,2.28409,0
42200,-0.630997,-0.260032,2.29229,0
42220,-0.634134,-0.25941,2.30084,0
42240,-0.637499,-0.258674,2.30964,0
42260,-0.640993,-0.257205,2.31859,0
42280,-0.643721,-0.256064,2.32777,0
42300,-0.645821,-0.255504,2.33723,0
42320,-0.648841,-0.255186,2.34676,0
42340,-0.653276,-0.255239,2.35614,0
42360,-0.658182,-0.255571,2.36558,0
42380,-0.662166,-0.256179,2.37464,0
42400,-0.665648,-0.256984,2.38356,0
42420,-0.668768,-0.258041,2.39242,0
42440,-0.671095,-0.260178,2.40072,0
42460,-0.673109,-0.262515,2.40884,0
42480,-0.675662,-0.264617,2.41704,0
42500,-0.679532,-0.266166,2.42513,0
42520,-0.684571,-0.267344,2.43294,0
42540,-0.688441,-0.268555,2.44135,0
42560,-0.691972,-0.270629,2.45104,0
42580,-0.693353,-0.272787,2.45996,0
42600,-0.694538,-0.274585,2.4671,0
42620,-0.698465,-0.275992,2.47391,0
42640,-0.703795,-0.276817,2.48095,0
42660,-0.707208,-0.277645,2.48852,0
42680,-0.707999,-0.279642,2.49631,0
42700,-0.708054,-0.282012,2.50392,0
42720,-0.709918,-0.283421,2.5105,0
42740,-0.7151,-0.284557,2.51704,0
42760,-0.720268,-0.285812,2.52418,0
42780,-0.723521,-0.286902,2.53187,0
42800,-0.72528,-0.288048,2.53981,0
42820,-0.727009,-0.289872,2.54766,0
42840,-0.729936,-0.292024,2.55537,0
42860,-0.73312,-0.294331,2.56285,0
42880,-0.736723,-0.296145,2.57019,0
42900,-0.740795,-0.297895,2.57769,0
42920,-0.745319,-0.299559,2.58504,0
42940,-0.748789,-0.301133,2.59238,0
42960,-0.751698,-0.302488,2.59962,0
42980,-0.754412,-0.304325,2.60658,0
43000,-0.757619,-0.306677,2.61365,0
43020,-0.761682,-0.309444,2.62027,0
43040,-0.764885,-0.311768,2.62634,0
43060,-0.76801,-0.313768,2.6324,0
43080,-0.771422,-0.316063,2.63891,0
43100,-0.774305,-0.31901,2.64536,0
43120,-0.776317,-0.322055,2.65123,0
43140,-0.778607,-0.325135,2.65659,0
43160,-0.782322,-0.328182,2.66178,0
43180,-0.786297,-0.330649,2.66717,0
43200,-0.789528,-0.332928,2.67278,0
43220,-0.790972,-0.335519,2.6779,0
43240,-0.791823,-0.338345,2.68218,0
43260,-0.793443,-0.341277,2.68631,0
43280,-0.7959,-0.343989,2.69069,0
43300,-0.79725,-0.346506,2.695,0
43320,-0.797509,-0.349872,2.69941,0
43340,-0.798141,-0.353831,2.70395,0
43360,-0.799149,-0.357912,2.70811,0
43380,-0.800836,-0.362235,2.71192,0
43400,-0.80301,-0.366428,2.71601,0
43420,-0.805362,-0.371001,2.72057,0
43440,-0.806089,-0.374532,2.72427,0
43460,-0.807119,-0.377828,2.72751,0
43480,-0.809456,-0.380955,2.72955,0
43500,-0.81323,-0.383381,2.73103,0
43520,-0.818635,-0.386137,2.73342,0
43540,-0.820844,-0.38968,2.73565,0
43560,-0.820188,-0.393902,2.73698,0
43580,-0.820178,-0.399385,2.73775,0
43600,-0.821622,-0.405492,2.73811,0
43620,-0.823889,-0.410965,2.73862,0
43640,-0.826321,-0.41664,2.73962,0
43660,-0.82867,-0.422648,2.74107,0
43680,-0.830366,-0.428591,2.74259,0
43700,-0.831432,-0.434341,2.74373,0
43720,-0.83285,-0.439937,2.74491,0
43740,-0.835254,-0.445041,2.74635,0
43760,-0.837265,-0.44977,2.74796,0
43780,-0.838744,-0.454119,2.74925,0
43800,-0.839561,-0.458459,2.75073,0
43810,-0.841153,-0.462992,2.75195,0
43830,-0.843099,-0.467372,2.75233,0
43850,-0.84398,-0.471437,2.75299,0
43870,-0.84479,-0.476289,2.75367,0
43890,-0.845049,-0.481217,2.75357,0
43910,-0.845956,-0.485698,2.75281,0
43930,-0.846916,-0.490321,2.75217,0
43950,-0.847111,-0.495366,2.75241,0
43970,-0.845977,-0.500849,2.75199,0
43990,-0.845563,-0.506771,2.75086,0
44010,-0.846824,-0.512574,2.74915,0
44030,-0.848889,-0.518196,2.74631,0
44050,-0.849985,-0.5237,2.74367,0
44070,-0.85132,-0.529429,2.74161,0
44090,-0.852646,-0.535186,2.7387,0
44110,-0.852972,-0.54083,2.7351,0
44130,-0.852782,-0.546164,2.73035,0
44150,-0.852118,-0.551329,2.72457,0
44170,-0.851617,-0.556871,2.71984,0
44190,-0.85001,-0.562589,2.71505,0
44210,-0.847913,-0.568435,2.70921,0
44230,-0.847139,-0.574281,2.70284,0
44250,-0.845526,-0.580384,2.6956,0
44270,-0.841992,-0.586232,2.68757,0
44290,-0.838774,-0.592143,2.67987,0
44310,-0.835952,-0.598416,2.67148,0
44330,-0.832884,-0.604869,2.66303,0
44350,-0.830359,-0.610608,2.65493,0
44370,-0.827506,-0.615615,2.64624,0
44390,-0.824323,-0.620019,2.63669,0
44410,-0.820924,-0.625102,2.6267,0
44430,-0.815909,-0.630446,2.61655,0
44450,-0.81063,-0.635741,2.606,0
44470,-0.806425,-0.641025,2.5945,0
44490,-0.802827,-0.645801,2.58206,0
44510,-0.797913,-0.650518,2.56799,0
44530,-0.791672,-0.655291,2.55372,0
44550,-0.784379,-0.659856,2.53967,0
44570,-0.776788,-0.664624,2.52539,0
44590,-0.769324,-0.66966,2.51084,0
44610,-0.764179,-0.674147,2.4962,0
44630,-0.759087,-0.678052,2.48139,0
44650,-0.753342,-0.682273,2.46756,0
44670,-0.74773,-0.687178,2.4546,0
44690,-0.7429,-0.692581,2.44183,0
44710,-0.738059,-0.697959,2.42853,0
44730,-0.733494,-0.703513,2.41546,0
44750,-0.72876,-0.709671,2.40203,0
44770,-0.722797,-0.716268,2.38819,0
44790,-0.716582,-0.722566,2.3748,0
44810,-0.709195,-0.72871,2.36134,0
44830,-0.70168,-0.734686,2.34763,0
44850,-0.69439,-0.740715,2.33384,0
44870,-0.685753,-0.747152,2.31957,0
44890,-0.677381,-0.753033,2.30547,0
44910,-0.669271,-0.758487,2.29158,0
44930,-0.661337,-0.763506,2.27827,0
44950,-0.652817,-0.768017,2.26612,0
44970,-0.64399,-0.771538,2.25356,0
44990,-0.635267,-0.773768,2.24118,0
45010,-0.627696,-0.77553,2.22878,0
45030,-0.621116,-0.776691,2.21702,0
45050,-0.613575,-0.777934,2.20681,0
45070,-0.604338,-0.7788,2.19652,0
45090,-0.59594,-0.779254,2.1858,0
45110,-0.589735,-0.779163,2.17497,0
45130,-0.583564,-0.77845,2.1651,0
45150,-0.57541,-0.777753,2.15606,0
45170,-0.565969,-0.778288,2.14784,0
45190,-0.557554,-0.778948,2.13888,0
45210,-0.549866,-0.778311,2.12921,0
45230,-0.54329,-0.776621,2.11922,0
45250,-0.537279,-0.774651,2.10953,0
45270,-0.53122,-0.772068,2.10046,0
45290,-0.525624,-0.769732,2.09214,0
45310,-0.522446,-0.767663,2.08442,0
45330,-0.518312,-0.765148,2.07607,0
45350,-0.513551,-0.761712,2.06656,0
45370,-0.508863,-0.757964,2.05766,0
45390,-0.503223,-0.753909,2.04966,0
45410,-0.496064,-0.75056,2.043,0
45430,-0.48784,-0.748068,2.03583,0
45450,-0.481172,-0.745864,2.02932,0
45470,-0.475222,-0.743356,2.02233,0
45490,-0.469784,-0.740125,2.01499,0
45510,-0.46487,-0.736309,2.00882,0
45530,-0.460285,-0.73347,2.00349,0
45550,-0.453899,-0.731067,1.99801,0
45570,-0.446392,-0.72896,1.99208,0
45590,-0.438165,-0.726229,1.98505,0
45610,-0.432056,-0.722094,1.97759,0
45630,-0.428427,-0.718484,1.97106,0
45650,-0.425289,-0.714998,1.96602,0
45670,-0.419689,-0.711439,1.96029,0
45690,-0.414996,-0.707246,1.95521,0
45710,-0.411936,-0.702508,1.95188,0
45730,-0.40973,-0.69715,1.95037,0
45750,-0.408555,-0.692071,1.95031,0
45770,-0.407912,-0.687166,1.95005,0
45790,-0.407569,-0.6819,1.94934,0
45800,-0.40799,-0.675266,1.94884,0
45820,-0.410021,-0.668297,1.94933,0
45840,-0.41138,-0.6617,1.95006,0
45860,-0.41282,-0.654634,1.95057,0
45880,-0.413999,-0.647099,1.95013,0
45900,-0.416482,-0.63859,1.95042,0
45920,-0.418622,-0.629085,1.95155,0
45940,-0.420125,-0.619775,1.95279,0
45960,-0.421934,-0.611816,1.95398,0
45980,-0.424145,-0.604242,1.95418,0
46000,-0.425222,-0.596145,1.95341,0
46020,-0.425772,-0.587383,1.95287,0
46040,-0.426879,-0.579486,1.95303,0
46060,-0.427657,-0.572354,1.95302,0
46080,-0.427696,-0.564818,1.95278,0
46100,-0.42776,-0.557439,1.95333,0
46120,-0.430786,-0.55073,1.95501,0
46140,-0.433121,-0.543987,1.95727,0
46160,-0.434526,-0.536904,1.96072,0
46180,-0.437849,-0.531015,1.96519,0
46200,-0.441943,-0.526056,1.96884,0
46220,-0.4449,-0.519772,1.97141,0
46240,-0.450806,-0.512059,1.97497,0
46260,-0.46159,-0.50372,1.98157,0
46280,-0.470101,-0.494328,1.98777,0
46300,-0.476118,-0.484089,1.99366,0
46320,-0.48388,-0.474449,2.00042,0
46340,-0.493819,-0.466421,2.00819,0
46360,-0.502737,-0.459214,2.01629,0
46380,-0.508093,-0.452126,2.02329,0
46400,-0.514602,-0.445275,2.02994,0
46420,-0.52378,-0.438061,2.03699,0
46440,-0.533384,-0.430058,2.04423,0
46460,-0.541857,-0.422528,2.05233,0
46480,-0.547128,-0.416653,2.06063,0
46500,-0.551632,-0.410831,2.06787,0
46520,-0.557305,-0.404448,2.07467,0
46540,-0.563408,-0.397705,2.08116,0
46560,-0.571548,-0.392009,2.08818,0
46580,-0.578664,-0.386646,2.09556,0
46600,-0.582337,-0.380947,2.10244,0
46620,-0.585882,-0.376311,2.1094,0
46640,-0.590428,-0.373143,2.11587,0
46660,-0.594937,-0.369456,2.12219,0
46680,-0.598397,-0.365563,2.12839,0
46700,-0.602751,-0.362343,2.135,0
46720,-0.606397,-0.358622,2.14245,0
46740,-0.609487,-0.35507,2.15012,0
46760,-0.612553,-0.352418,2.15866,0
46780,-0.616322,-0.350762,2.1671,0
46800,-0.621306,-0.34846,2.17528,0
46820,-0.627987,-0.345736,2.18397,0
46840,-0.635837,-0.343571,2.19335,0
46860,-0.643318,-0.341488,2.20261,0
46880,-0.649658,-0.33859,2.21156,0
46900,-0.657359,-0.335919,2.22127,0
46920,-0.66692,-0.33369,2.23181,0
46940,-0.675227,-0.331188,2.24259,0
46960,-0.681339,-0.328387,2.25312,0
46980,-0.686298,-0.326406,2.26348,0
47000,-0.693192,-0.32493,2.27437,0
47020,-0.700305,-0.323001,2.28524,0
47040,-0.705278,-0.320982,2.29648,0
47060,-0.70954,-0.320205,2.30804,0
47080,-0.714056,-0.320343,2.31933,0
47100,-0.71805,-0.319914,2.33026,0
47120,-0.723604,-0.3208,2.34197,0
47140,-0.729415,-0.322807,2.35392,0
47160,-0.735741,-0.32467,2.36622,0
47180,-0.741817,-0.32638,2.37835,0
47200,-0.74749,-0.328623,2.39005,0
47220,-0.753718,-0.331479,2.40108,0
47240,-0.760519,-0.335459,2.41309,0
47260,-0.767396,-0.340286,2.42522,0
47280,-0.772588,-0.344754,2.43647,0
47300,-0.778491,-0.348936,2.44731,0
47320,-0.785096,-0.354117,2.45864,0
47340,-0.790996,-0.359403,2.47008,0
47360,-0.796442,-0.364584,2.4818,0
47380,-0.801015,-0.370173,2.49356,0
47400,-0.805228,-0.376237,2.50448,0
47420,-0.809063,-0.381889,2.51477,0
47440,-0.814461,-0.387454,2.52574,0
47460,-0.821028,-0.392308,2.53679,0
47480,-0.826792,-0.396615,2.54792,0
47500,-0.829414,-0.401409,2.55883,0
47520,-0.832973,-0.407196,2.56985,0
47540,-0.83817,-0.412188,2.57997,0
47560,-0.844672,-0.417019,2.59021,0
47580,-0.850132,-0.422793,2.59987,0
47600,-0.855233,-0.428317,2.60888,0
47620,-0.861156,-0.433436,2.61751,0
47640,-0.865378,-0.438774,2.62589,0
47660,-0.868503,-0.444779,2.63426,0
47680,-0.871239,-0.451286,2.64297,0
47700,-0.873474,-0.458005,2.65154,0
47720,-0.875454,-0.463974,2.65912,0
47740,-0.878619,-0.470204,2.66666,0
47760,-0.883309,-0.477108,2.67448,0
47780,-0.887516,-0.483362,2.68185,0
47800,-0.890542,-0.489007,2.68823,0
47820,-0.892789,-0.494603,2.6939,0
47840,-0.896002,-0.50046,2.69975,0
47860,-0.898165,-0.506592,2.70541,0
47880,-0.898728,-0.512878,2.71002,0
47900,-0.900093,-0.519633,2.7142,0
47920,-0.90142,-0.525867,2.71834,0
47940,-0.900915,-0.532131,2.72202,0
47960,-0.902311,-0.539235,2.72643,0
47980,-0.904269,-0.546697,2.73052,0
48000,-0.905915,-0.553919,2.73428,0
48020,-0.907763,-0.561359,2.73806,0
48040,-0.909612,-0.569656,2.74242,0
48060,-0.911701,-0.578165,2.74645,0
48080,-0.913039,-0.586355,2.74931,0
48100,-0.912926,-0.594988,2.7521,0
48110,-0.912726,-0.604233,2.75463,0
48120,-0.910864,-0.613628,2.75673,0
48140,-0.910215,-0.623331,2.75876,0
48160,-0.910203,-0.633323,2.76016,0
48180,-0.910631,-0.643221,2.76144,0
48200,-0.912105,-0.652387,2.76297,0
48220,-0.912059,-0.661563,2.76415,0
48240,-0.910764,-0.670824,2.76527,0
48260,-0.909981,-0.68005,2.76637,0
48280,-0.909638,-0.688878,2.76738,0
48300,-0.911058,-0.69711,2.76894,0
48320,-0.91231,-0.704841,2.76991,0
48340,-0.913075,-0.712324,2.77111,0
48360,-0.913333,-0.720668,2.77254,0
48380,-0.914194,-0.72876,2.77448,0
48400,-0.914966,-0.736521,2.77441,0
48420,-0.916123,-0.743519,2.77258,0
48440,-0.918137,-0.749768,2.76992,0
48460,-0.917987,-0.75568,2.76687,0
48480,-0.915355,-0.762539,2.76282,0
48500,-0.912259,-0.769744,2.75746,0
48520,-0.908523,-0.776952,2.75015,0
48540,-0.904372,-0.783862,2.74172,0
48560,-0.900002,-0.790805,2.73379,0
48580,-0.895348,-0.798522,2.72508,0
48600,-0.8892,-0.806844,2.71507,0
48630,-0.880331,-0.824292,2.69652,0
48650,-0.876478,-0.832518,2.68694,0
48670,-0.872228,-0.839967,2.67636,0
48690,-0.86823,-0.846948,2.66622,0
48710,-0.863309,-0.853989,2.65681,0
48730,-0.85649,-0.861419,2.64678,0
48750,-0.850138,-0.869186,2.63576,0
48770,-0.845362,-0.876032,2.62379,0
48790,-0.840284,-0.882056,2.61232,0
48810,-0.832841,-0.887268,2.60035,0
48830,-0.82428,-0.893523,2.58746,0
48850,-0.814035,-0.900374,2.57278,0
48870,-0.801623,-0.906455,2.55595,0
48890,-0.787962,-0.910898,2.5375,0
48910,-0.774233,-0.91573,2.52005,0
48930,-0.759703,-0.920551,2.50261,0
48950,-0.745167,-0.925727,2.48598,0
48970,-0.7305,-0.930754,2.46937,0
48990,-0.715601,-0.935655,2.45202,0
49010,-0.70147,-0.940304,2.43467,0
49030,-0.688282,-0.943829,2.41689,0
49050,-0.674178,-0.947513,2.39935,0
49070,-0.659502,-0.951719,2.38335,0
49090,-0.643845,-0.956532,2.36771,0
49110,-0.629339,-0.961235,2.35149,0
49130,-0.615335,-0.965175,2.33425,0
49150,-0.600586,-0.967767,2.31623,0
49170,-0.586935,-0.969448,2.30031,0
49180,-0.573266,-0.97151,2.2848,0
49200,-0.558954,-0.973111,2.26884,0
49220,-0.545696,-0.973181,2.25417,0
49240,-0.5339,-0.972454,2.2403,0
49260,-0.521172,-0.972314,2.22597,0
49280,-0.509111,-0.971856,2.21257,0
49300,-0.497204,-0.971039,2.19917,0
49320,-0.485481,-0.97021,2.18541,0
49340,-0.473644,-0.96873,2.17191,0
49360,-0.462681,-0.96628,2.15948,0
49380,-0.453218,-0.963328,2.14751,0
49400,-0.442844,-0.959829,2.13511,0
49420,-0.431975,-0.954952,2.12312,0
49440,-0.424122,-0.949519,2.11381,0
49460,-0.41802,-0.945623,2.10571,0
49480,-0.409546,-0.941235,2.09665,0
49500,-0.399226,-0.935733,2.0874,0
49520,-0.391877,-0.92955,2.0785,0
49540,-0.387371,-0.92262,2.07155,0
49560,-0.383132,-0.914034,2.06591,0
49580,-0.376633,-0.905472,2.05995,0
49600,-0.370255,-0.897084,2.05425,0
49620,-0.365911,-0.889558,2.04915,0
49640,-0.362382,-0.881157,2.04376,0
49660,-0.359727,-0.871787,2.0391,0
49680,-0.358276,-0.862817,2.03527,0
49700,-0.357189,-0.854253,2.03206,0
49720,-0.356117,-0.84637,2.02975,0
49740,-0.353476,-0.838577,2.0264,0
49760,-0.352433,-0.830279,2.02324,0
49780,-0.352502,-0.821376,2.01971,0
49800,-0.352293,-0.811658,2.0153,0
49820,-0.352996,-0.803229,2.01322,0
49840,-0.352766,-0.795756,2.01189,0
49860,-0.35024,-0.786501,2.00938,0
49880,-0.350801,-0.77629,2.00738,0
49900,-0.353787,-0.766539,2.00585,0
49920,-0.357182,-0.756549,2.00516,0
49940,-0.360746,-0.746314,2.00618,0
49960,-0.363079,-0.736776,2.00735,0
49980,-0.365145,-0.727134,2.00848,0
50000,-0.369146,-0.717599,2.00905,0
50020,-0.374892,-0.70819,2.00967,0
50040,-0.379415,-0.698535,2.0102,0
50060,-0.383169,-0.689281,2.01119,0
50080,-0.387414,-0.681862,2.01332,0
50100,-0.390542,-0.675121,2.01526,0
50120,-0.39283,-0.668004,2.01699,0
50140,-0.398118,-0.661694,2.01965,0
50160,-0.403851,-0.656458,2.02292,0
50180,-0.409208,-0.651614,2.02716,0
50200,-0.413286,-0.646727,2.0314,0
50220,-0.414731,-0.641957,2.03451,0
50240,-0.417009,-0.637616,2.0381,0
50260,-0.418876,-0.633581,2.04155,0
50280,-0.421136,-0.629633,2.04634,0
50300,-0.423343,-0.62661,2.05201,0
50320,-0.425694,-0.624177,2.05766,0
50340,-0.430302,-0.620834,2.06353,0
50360,-0.435952,-0.617141,2.06979,0
50380,-0.442343,-0.613367,2.07741,0
50400,-0.450476,-0.609556,2.0868,0
50420,-0.461297,-0.605574,2.09699,0
50440,-0.468284,-0.601148,2.10618,0
50460,-0.474298,-0.596995,2.11539,0
50480,-0.480948,-0.594061,2.12415,0
50500,-0.487204,-0.591215,2.13204,0
50520,-0.493034,-0.588276,2.13997,0
50540,-0.499254,-0.585967,2.14799,0
50560,-0.50616,-0.584214,2.15691,0
50580,-0.512476,-0.582222,2.16569,0
50600,-0.517721,-0.580113,2.1745,0
50620,-0.524173,-0.578573,2.18373,0
50640,-0.53003,-0.577385,2.19246,0
50660,-0.537033,-0.575683,2.20223,0
50680,-0.544197,-0.574178,2.21209,0
50700,-0.55086,-0.572717,2.22166,0
50720,-0.55846,-0.571162,2.23224,0
50740,-0.566824,-0.569986,2.24308,0
50760,-0.573906,-0.568468,2.25389,0
50780,-0.580669,-0.567227,2.26452,0
50800,-0.589625,-0.566728,2.27643,0
50820,-0.599534,-0.565654,2.28833,0
50840,-0.609274,-0.563215,2.30003,0
50860,-0.618784,-0.561796,2.31209,0
50880,-0.628084,-0.560679,2.32444,0
50900,-0.638223,-0.559123,2.33659,0
50920,-0.650949,-0.556558,2.34989,0
50940,-0.666778,-0.553779,2.36463,0
50960,-0.682464,-0.550642,2.38042,0
50980,-0.694147,-0.54771,2.3953,0
51000,-0.705014,-0.546433,2.40937,0
51020,-0.716366,-0.546279,2.42184,0
51040,-0.728195,-0.546193,2.43375,0
51060,-0.739412,-0.546843,2.44571,0
51080,-0.748554,-0.547795,2.45762,0
51100,-0.757081,-0.548777,2.46913,0
51120,-0.765042,-0.549504,2.48043,0
51130,-0.773168,-0.550281,2.49168,0
51150,-0.781783,-0.550911,2.50272,0
51170,-0.788833,-0.551418,2.51325,0
51190,-0.794695,-0.552077,2.52294,0
51210,-0.800932,-0.552273,2.5324,0
51230,-0.808264,-0.553106,2.54194,0
51250,-0.814606,-0.553559,2.55111,0
51270,-0.821169,-0.554327,2.56023,0
51290,-0.827212,-0.555402,2.56843,0
51310,-0.833448,-0.556682,2.57669,0
51330,-0.839365,-0.557899,2.58472,0
51350,-0.844902,-0.559373,2.59326,0
51370,-0.851225,-0.561666,2.60179,0
51390,-0.85677,-0.563517,2.60948,0
51410,-0.862498,-0.565009,2.6177,0
51430,-0.869315,-0.567539,2.62616,0
51450,-0.874773,-0.570512,2.63362,0
51470,-0.878224,-0.573271,2.64048,0
51490,-0.881854,-0.576905,2.6479,0
51510,-0.885723,-0.580833,2.6549,0
51530,-0.889158,-0.584012,2.66138,0
51550,-0.893838,-0.587098,2.66843,0
51570,-0.898045,-0.589962,2.67539,0
51590,-0.901576,-0.592793,2.68229,0
51610,-0.905623,-0.595523,2.68939,0
51630,-0.91173,-0.598603,2.69693,0
51650,-0.91745,-0.601798,2.70376,0
51670,-0.921449,-0.604499,2.71003,0
51690,-0.925071,-0.608061,2.71677,0
51710,-0.928807,-0.612828,2.7236,0
51730,-0.932165,-0.618011,2.73034,0
51750,-0.934281,-0.622938,2.7367,0
51770,-0.935919,-0.628265,2.74296,0
51790,-0.939133,-0.634405,2.74985,0
51810,-0.942242,-0.64058,2.75662,0
51830,-0.945617,-0.646707,2.76361,0
51850,-0.94787,-0.653582,2.7701,0
51870,-0.950517,-0.660794,2.77671,0
51890,-0.953827,-0.667795,2.78313,0
51910,-0.957415,-0.675176,2.78909,0
51930,-0.960015,-0.682589,2.79526,0
51950,-0.961737,-0.69022,2.80166,0
51970,-0.963752,-0.697968,2.80776,0
51990,-0.968205,-0.705865,2.8139,0
52010,-0.971292,-0.713,2.81947,0
52030,-0.97333,-0.719172,2.82492,0
52050,-0.975315,-0.725842,2.83061,0
52070,-0.977883,-0.733025,2.83567,0
52090,-0.980958,-0.739612,2.84095,0
52110,-0.984535,-0.745704,2.84617,0
52130,-0.986741,-0.752578,2.85106,0
52150,-0.988721,-0.760184,2.85549,0
52170,-0.991622,-0.768343,2.85989,0
52190,-0.996163,-0.776496,2.86397,0
52210,-0.999686,-0.784152,2.86715,0
52230,-1.00121,-0.792308,2.86976,0
52250,-1.00287,-0.800979,2.87256,0
52270,-1.00475,-0.81014,2.87426,0
52290,-1.00677,-0.818626,2.8755,0
52310,-1.00668,-0.826647,2.87592,0
52330,-1.00686,-0.835119,2.8768,0
52350,-1.0072,-0.84351,2.878,0
52370,-1.00736,-0.851311,2.87803,0
52390,-1.00704,-0.858374,2.87671,0
52410,-1.00783,-0.864887,2.87663,0
52430,-1.00727,-0.8714,2.87684,0
52450,-1.006,-0.878225,2.87701,0
52470,-1.00426,-0.884104,2.87606,0
52490,-1.00317,-0.889835,2.87509,0
52510,-1.00255,-0.895506,2.87496,0
52530,-1.00123,-0.901109,2.8746,0
52550,-0.999637,-0.906945,2.87391,0
52570,-0.998172,-0.912812,2.87394,1001
52590,-0.99779,-0.918744,2.87382,0
52610,-0.999325,-0.92372,2.87417,0
52630,-1.00157,-0.927304,2.87517,0
52650,-1.00198,-0.930333,2.87622,0
52670,-1.00114,-0.934174,2.87741,0
52690,-1.00044,-0.93796,2.8778,0
52710,-1.0017,-0.940827,2.87786,0
52730,-1.00515,-0.942907,2.87898,0
52750,-1.00538,-0.944605,2.8793,0
52770,-1.00391,-0.946197,2.87876,0
52790,-1.00281,-0.947621,2.87765,0
52810,-1.00184,-0.94911,2.87619,0
52830,-1.00033,-0.950421,2.87382,0
52850,-0.998519,-0.950726,2.87114,0
52870,-0.997223,-0.949943,2.8697,0
52890,-0.994025,-0.949158,2.86654,0
52910,-0.990077,-0.94906,2.86254,0
52930,-0.985784,-0.947579,2.85794,0
52950,-0.982289,-0.944285,2.85413,0
52970,-0.978662,-0.940951,2.84991,0
52990,-0.975303,-0.937567,2.84634,0
53010,-0.972335,-0.9334,2.84222,0
53030,-0.967746,-0.928807,2.83591,0
53050,-0.963879,-0.923085,2.82962,0
53070,-0.959141,-0.916143,2.82375,0
53090,-0.953263,-0.908055,2.8182,0
53110,-0.950473,-0.899401,2.81375,0
53130,-0.947334,-0.889896,2.808,0
53150,-0.943937,-0.879036,2.79967,0
53170,-0.938802,-0.866767,2.78978,0
53190,-0.934082,-0.853155,2.78275,0
53210,-0.932971,-0.839029,2.77946,0
53230,-0.931235,-0.825023,2.77489,0
53250,-0.926794,-0.80932,2.7655,0
53270,-0.921858,-0.791512,2.75844,0
53290,-0.923506,-0.774296,2.75496,0
53310,-0.921371,-0.756414,2.74886,0
53330,-0.916365,-0.735965,2.74004,0
53350,-0.912781,-0.71257,2.73247,0
53370,-0.910297,-0.689933,2.72651,0
53390,-0.905751,-0.668301,2.71959,0
53410,-0.897365,-0.645392,2.71143,0
53430,-0.890767,-0.62343,2.70401,0
53450,-0.883353,-0.602226,2.69489,0
53470,-0.874391,-0.580059,2.68385,0
53490,-0.867844,-0.556475,2.67414,0
53510,-0.863082,-0.533472,2.66737,0
53530,-0.857269,-0.511186,2.66155,0
53550,-0.847893,-0.48747,2.655,0
53570,-0.840258,-0.463166,2.64791,0
53590,-0.834924,-0.439507,2.64155,0
53610,-0.829375,-0.415833,2.63562,0
53630,-0.815284,-0.373569,2.62497,0
53650,-0.806777,-0.355364,2.61965,0
53670,-0.800262,-0.336783,2.61554,0
53690,-0.797595,-0.320835,2.61327,0
53710,-0.792556,-0.308419,2.61105,0
53730,-0.784952,-0.297597,2.61016,0
53740,-0.779736,-0.287897,2.6104,0
53760,-0.776767,-0.27905,2.61131,0
53780,-0.775894,-0.271775,2.61332,0
53800,-0.774227,-0.265557,2.61634,0
53820,-0.772029,-0.259463,2.62005,0
53840,-0.771766,-0.253924,2.62445,0
53860,-0.773178,-0.249778,2.6288,0
53880,-0.772926,-0.246065,2.6328,0
53900,-0.771758,-0.242748,2.63774,1000
53920,-0.770129,-0.240469,2.64287,0
53940,-0.769235,-0.239037,2.64711,0
53960,-0.768682,-0.237427,2.65082,0
53980,-0.769277,-0.235408,2.65525,0
54000,-0.771154,-0.234205,2.66,0
54020,-0.770102,-0.233597,2.66415,0
54040,-0.768279,-0.232633,2.66799,0
54060,-0.767237,-0.231961,2.6717,0
54080,-0.766779,-0.232088,2.67528,0
54100,-0.766125,-0.232168,2.67843,0
54120,-0.76406,-0.232407,2.68092,0
54140,-0.761702,-0.232814,2.68349,0
54160,-0.760514,-0.23379,2.68648,0
54180,-0.758143,-0.234857,2.68842,0
54200,-0.756953,-0.235645,2.68994,0
54220,-0.755839,-0.236734,2.69143,0
54240,-0.753898,-0.237757,2.69283,0
54260,-0.752697,-0.239279,2.69417,0
54280,-0.752071,-0.241607,2.69562,0
54300,-0.750816,-0.244229,2.69657,0
54320,-0.750429,-0.246568,2.69807,0
54340,-0.751038,-0.248761,2.6993,0
54360,-0.751997,-0.25068,2.7005,0
54380,-0.752165,-0.25226,2.70162,0
54400,-0.752054,-0.253714,2.70251,0
54420,-0.751543,-0.255389,2.70304,0
54440,-0.750665,-0.256656,2.70362,0
54460,-0.749947,-0.257811,2.70454,0
54480,-0.749266,-0.258543,2.70488,0
54500,-0.748398,-0.258752,2.70477,0
54520,-0.748301,-0.258613,2.70475,0
54530,-0.748878,-0.257909,2.70525,0
54550,-0.748553,-0.256745,2.70589,0
54570,-0.747165,-0.255285,2.70623,0
54590,-0.746357,-0.253737,2.70685,0
54610,-0.745695,-0.252882,2.70719,0
54630,-0.744978,-0.252461,2.70745,0
54650,-0.744246,-0.251875,2.70771,0
54670,-0.744051,-0.25152,2.70812,0
54690,-0.742534,-0.251012,2.70871,0
54710,-0.741006,-0.250418,2.70885,0
54730,-0.741221,-0.250104,2.70943,0
54750,-0.742575,-0.250183,2.70976,0
54770,-0.742738,-0.250101,2.70976,0
54790,-0.742262,-0.249621,2.70994,0
54810,-0.742035,-0.249492,2.71044,0
54830,-0.74143,-0.24976,2.71035,0
54850,-0.74069,-0.250209,2.71013,0
54870,-0.740026,-0.250679,2.70982,0
54890,-0.739621,-0.251483,2.70958,0
54910,-0.739462,-0.252409,2.70951,0
54930,-0.738901,-0.253201,2.70948,0
54950,-0.738047,-0.253548,2.70973,0
54970,-0.737014,-0.25409,2.71002,0
54990,-0.73668,-0.254705,2.71092,0
55010,-0.735727,-0.255702,2.71178,0
55030,-0.735488,-0.256504,2.7126,0
55050,-0.735103,-0.257275,2.71338,0
55070,-0.735211,-0.257753,2.71426,0
55090,-0.735858,-0.258384,2.71575,0
55110,-0.736333,-0.259163,2.71738,0
55130,-0.735425,-0.260094,2.71876,0
55150,-0.735744,-0.261235,2.72045,0
55170,-0.73649,-0.262271,2.72261,0
55190,-0.737372,-0.262789,2.7252,0
55210,-0.737,-0.2633,2.72791,0
55230,-0.736039,-0.264319,2.7307,0
55250,-0.736447,-0.265359,2.73394,0
55270,-0.737854,-0.266635,2.73793,0
55290,-0.739228,-0.267968,2.74201,0
55310,-0.740048,-0.269283,2.74578,0
55330,-0.739985,-0.271148,2.74932,0
55350,-0.74007,-0.273159,2.75296,0
55370,-0.74035,-0.275302,2.75629,0
55390,-0.739989,-0.27747,2.75928,0
55410,-0.739517,-0.279743,2.76152,0
55430,-0.739564,-0.28261,2.7637,0
55450,-0.739062,-0.285373,2.76577,0
55470,-0.737668,-0.287556,2.76742,0
55490,-0.735615,-0.289842,2.76806,0
55510,-0.73442,-0.292358,2.76905,0
55530,-0.734113,-0.29527,2.7702,0
55550,-0.734063,-0.298326,2.77116,0
55570,-0.733892,-0.301146,2.77226,0
55590,-0.73391,-0.304138,2.77376,0
55610,-0.734482,-0.307533,2.77563,0
55630,-0.734913,-0.311456,2.7773,0
55650,-0.734521,-0.31573,2.77869,0
55670,-0.734175,-0.32044,2.77968,0
55690,-0.733619,-0.325557,2.78049,0
55710,-0.733062,-0.330843,2.78125,0
55730,-0.731761,-0.33688,2.7823,0
55750,-0.729886,-0.343217,2.78326,0
55770,-0.728943,-0.349415,2.78483,0
55790,-0.728897,-0.354842,2.78621,0
55810,-0.729683,-0.359875,2.78738,0
55830,-0.731392,-0.364443,2.78867,0
55850,-0.733048,-0.368685,2.79037,0
55870,-0.733684,-0.373249,2.79166,0
55890,-0.734284,-0.37755,2.79256,0
55910,-0.734673,-0.381239,2.79323,0
55930,-0.735313,-0.384773,2.79349,0
55950,-0.735554,-0.388369,2.79397,0
55970,-0.734387,-0.391713,2.79391,0
55990,-0.733257,-0.395023,2.79325,0
56010,-0.732809,-0.398131,2.792,0
56030,-0.731198,-0.401148,2.7905,0
56050,-0.729038,-0.405033,2.78879,0
56070,-0.72677,-0.40986,2.78675,0
56090,-0.724617,-0.415002,2.78397,0
56110,-0.723121,-0.420015,2.78118,0
56130,-0.721747,-0.425164,2.77822,0
56150,-0.719218,-0.430341,2.77411,0
56170,-0.715961,-0.434965,2.76953,0
56190,-0.712978,-0.439344,2.76499,0
56210,-0.710137,-0.443753,2.7605,0
56230,-0.70729,-0.448287,2.75533,0
56250,-0.70445,-0.452468,2.74908,0
56270,-0.701815,-0.456725,2.74271,0
56290,-0.698873,-0.461169,2.73656,0
56310,-0.696049,-0.465935,2.73043,0
56330,-0.693124,-0.47059,2.7238,0
56350,-0.689447,-0.475206,2.71606,0
56370,-0.68484,-0.479858,2.70737,0
56390,-0.678978,-0.485244,2.69856,0
56410,-0.673769,-0.490571,2.68988,0
56430,-0.669834,-0.49612,2.68234,0
56450,-0.665201,-0.501601,2.6743,0
56470,-0.659996,-0.506714,2.66531,0
56480,-0.655747,-0.5116,2.65623,0
56500,-0.653119,-0.51627,2.64742,0
56520,-0.650075,-0.520612,2.63864,0
56540,-0.646047,-0.524735,2.62986,0
56560,-0.641928,-0.529192,2.62111,0
56580,-0.638452,-0.533419,2.61134,0
56600,-0.6361,-0.537361,2.6013,0
56620,-0.633493,-0.541344,2.59088,0
56640,-0.629258,-0.545342,2.58028,0
56660,-0.625356,-0.549797,2.56984,0
56680,-0.621725,-0.554757,2.55865,0
56700,-0.617744,-0.559633,2.54658,0
56720,-0.613509,-0.564766,2.53384,0
56740,-0.609044,-0.570039,2.52025,0
56760,-0.603346,-0.57529,2.50596,0
56780,-0.596962,-0.580565,2.49221,0
56800,-0.59073,-0.585913,2.47898,0
56820,-0.584407,-0.591306,2.46506,0
56840,-0.577842,-0.596534,2.45065,0
56860,-0.571531,-0.601295,2.43671,0
56880,-0.56565,-0.606013,2.42294,0
56900,-0.559813,-0.610876,2.40916,0
56920,-0.553422,-0.615665,2.39514,0
56940,-0.54651,-0.620612,2.38137,0
56960,-0.539615,-0.625403,2.36716,0
56980,-0.533211,-0.629941,2.35239,0
57000,-0.527492,-0.634614,2.33778,0
57020,-0.521006,-0.639012,2.32323,0
57040,-0.513973,-0.643756,2.309,0
57060,-0.506846,-0.648086,2.29408,0
57080,-0.499523,-0.651961,2.27855,0
57100,-0.491556,-0.655094,2.26199,0
57120,-0.483157,-0.658175,2.24567,0
57140,-0.47364,-0.660854,2.22885,0
57160,-0.463793,-0.663378,2.21256,0
57180,-0.454079,-0.665082,2.19635,0
57200,-0.444218,-0.666459,2.18033,0
57220,-0.435491,-0.667296,2.16506,0
57240,-0.426646,-0.667985,2.15036,0
57260,-0.417485,-0.668293,2.13631,0
57280,-0.408563,-0.667434,2.1223,0
57300,-0.400468,-0.666041,2.10928,0
57320,-0.3931,-0.663954,2.09767,0
57340,-0.385062,-0.661018,2.08603,0
57360,-0.376909,-0.658229,2.07535,0
57380,-0.369243,-0.654405,2.06502,0
57400,-0.361102,-0.650567,2.05437,0
57420,-0.354081,-0.645598,2.0436,0
57440,-0.34744,-0.64007,2.03354,0
57460,-0.341312,-0.634418,2.02639,0
57480,-0.334535,-0.628898,2.01941,0
57500,-0.327708,-0.624562,2.01303,0
57520,-0.323326,-0.620175,2.00723,0
57540,-0.320102,-0.615536,2.00159,0
57560,-0.317742,-0.610726,1.99633,0
57580,-0.315961,-0.606455,1.99222,0
57600,-0.31286,-0.602486,1.98925,0
57620,-0.30934,-0.598033,1.98601,0
57640,-0.306981,-0.59335,1.98363,0
57660,-0.305249,-0.588907,1.98103,0
57680,-0.303663,-0.584031,1.97854,0
57700,-0.304844,-0.578199,1.97808,0
57720,-0.306407,-0.572202,1.97812,0
57740,-0.304166,-0.566976,1.97728,0
57760,-0.300499,-0.562149,1.97701,0
57780,-0.299861,-0.559015,1.97741,0
57800,-0.301411,-0.556276,1.97637,0
57820,-0.302987,-0.550684,1.97521,0
57840,-0.306564,-0.544528,1.97596,0
57860,-0.310753,-0.540417,1.97769,0
57880,-0.31141,-0.537147,1.97951,0
57900,-0.312809,-0.531853,1.98113,0
57920,-0.31483,-0.525862,1.98279,0
57940,-0.318247,-0.519064,1.9852,0
57960,-0.322449,-0.511732,1.9886,0
57980,-0.325523,-0.503079,1.99281,0
58000,-0.324165,-0.495608,1.99755,0
58020,-0.322158,-0.4891,2.00288,0
58040,-0.323203,-0.481907,2.00636,0
58060,-0.326035,-0.474116,2.00903,0
58080,-0.330176,-0.466424,2.01177,0
58100,-0.331372,-0.459392,2.01418,0
58120,-0.332068,-0.452055,2.01585,0
58140,-0.333266,-0.444957,2.01701,0
58160,-0.333183,-0.438393,2.01881,0
58180,-0.332308,-0.433089,2.0219,0
58200,-0.329188,-0.428681,2.02351,0
58220,-0.325763,-0.424306,2.0239,0
58240,-0.323948,-0.419437,2.02505,0
58260,-0.323559,-0.415065,2.02666,0
58280,-0.32402,-0.411356,2.02848,0
58300,-0.323844,-0.408027,2.03097,0
58320,-0.320902,-0.404761,2.03333,0
58340,-0.318722,-0.399894,2.03534,0
58360,-0.320199,-0.394793,2.03773,0
58380,-0.322958,-0.389524,2.04155,0
58400,-0.324699,-0.384555,2.04621,0
58420,-0.324897,-0.379462,2.04994,0
58440,-0.324698,-0.373664,2.05322,0
58460,-0.326782,-0.368176,2.05746,0
58480,-0.329427,-0.362403,2.06138,0
58500,-0.33143,-0.356776,2.06601,0
58520,-0.332176,-0.351768,2.07087,0
58540,-0.333231,-0.346864,2.07537,0
58560,-0.336017,-0.341868,2.08017,0
58580,-0.339047,-0.33738,2.08503,0
58600,-0.341399,-0.333368,2.09044,0
58620,-0.34314,-0.329888,2.09615,0
58640,-0.344341,-0.326809,2.10184,0
58660,-0.346015,-0.324267,2.10822,0
58680,-0.34943,-0.322367,2.11547,0
58700,-0.353499,-0.320848,2.12309,0
58720,-0.357213,-0.319518,2.13096,0
58740,-0.361125,-0.318008,2.13911,0
58760,-0.366509,-0.316833,2.14808,0
58780,-0.372772,-0.316188,2.15728,0
58800,-0.376746,-0.315376,2.16588,0
58820,-0.381314,-0.313871,2.17441,0
58840,-0.387125,-0.312524,2.18331,0
58860,-0.39254,-0.312199,2.1921,0
58880,-0.395723,-0.31159,2.19997,0
58900,-0.398728,-0.310655,2.20751,0
58920,-0.4015,-0.309929,2.21492,0
58940,-0.405165,-0.3098,2.22324,0
58960,-0.408536,-0.309406,2.23146,0
58980,-0.410301,-0.307741,2.23918,0
59010,-0.415989,-0.30371,2.25503,0
59030,-0.420267,-0.301708,2.26286,0
59050,-0.423363,-0.29881,2.27076,0
59070,-0.427007,-0.296279,2.27882,0
59090,-0.430146,-0.294046,2.28579,0
59110,-0.431888,-0.291315,2.29167,0
59130,-0.43374,-0.288705,2.29827,0
59140,-0.435756,-0.287456,2.3065,0
59160,-0.436442,-0.28649,2.31502,0
59180,-0.436969,-0.285169,2.32349,0
59200,-0.439963,-0.283952,2.33219,0
59220,-0.444105,-0.282571,2.34036,0
59240,-0.449923,-0.281648,2.34993,0
59260,-0.455975,-0.282004,2.36043,0
59280,-0.461217,-0.281859,2.37072,0
59300,-0.46794,-0.280832,2.38191,0
59320,-0.47609,-0.280476,2.3936,0
59340,-0.485434,-0.281386,2.40554,0
59360,-0.492675,-0.282377,2.41714,0
59380,-0.500443,-0.284351,2.42983,0
59400,-0.507935,-0.286839,2.44241,0
59420,-0.515268,-0.289093,2.45485,0
59440,-0.524119,-0.290964,2.46786,0
59460,-0.533098,-0.292765,2.48146,0
59480,-0.540575,-0.293928,2.49442,0
59500,-0.547286,-0.294962,2.5071,0
59520,-0.555463,-0.296342,2.52049,0
59540,-0.563779,-0.298085,2.53335,0
59560,-0.570675,-0.299181,2.54573,0
59580,-0.576984,-0.299907,2.55828,0
59600,-0.583867,-0.30167,2.57086,0
59620,-0.59057,-0.304283,2.58327,0
59640,-0.595507,-0.306421,2.59522,0
59660,-0.599717,-0.308648,2.60643,0
59680,-0.605039,-0.312108,2.6173,0
59700,-0.611442,-0.315602,2.62769,0
59720,-0.617106,-0.318813,2.63771,0
59740,-0.622845,-0.322708,2.64797,0
59760,-0.629838,-0.327535,2.65839,0
59780,-0.639102,-0.331804,2.66827,0
59800,-0.648017,-0.335869,2.67726,0
59820,-0.654423,-0.34102,2.68581,0
59840,-0.659253,-0.347267,2.69473,0
59860,-0.663496,-0.355021,2.70366,0
59870,-0.666886,-0.363189,2.71187,0
59890,-0.66996,-0.370997,2.71968,0
59910,-0.672398,-0.378391,2.72773,0
59930,-0.676742,-0.386047,2.7364,0
59950,-0.679956,-0.393565,2.74494,0
59970,-0.682874,-0.401097,2.75253,0
59990,-0.685843,-0.408474,2.75983,0
60010,-0.691226,-0.415306,2.76796,0
60030,-0.695116,-0.421678,2.77595,0
60050,-0.697911,-0.428691,2.78294,0
60070,-0.701292,-0.435706,2.78988,0
60090,-0.705307,-0.443095,2.79698,0
60110,-0.70943,-0.44983,2.80402,0
60130,-0.712823,-0.456435,2.81097,0
60150,-0.714921,-0.463078,2.81731,0
60170,-0.716741,-0.46994,2.82329,0
60190,-0.718559,-0.476355,2.82896,0
60210,-0.720813,-0.482634,2.8343,0
60230,-0.723772,-0.488393,2.83934,0
60250,-0.726228,-0.49408,2.84428,0
60270,-0.727134,-0.498893,2.84875,0
60290,-0.729136,-0.504044,2.85372,0
60310,-0.730555,-0.509332,2.85836,0
60330,-0.731656,-0.514047,2.86191,0
60350,-0.732854,-0.518474,2.86454,0
60370,-0.732626,-0.523134,2.86682,0
60390,-0.732889,-0.528336,2.86941,0
60410,-0.732802,-0.533291,2.87168,0
60430,-0.733649,-0.538,2.87354,0
60450,-0.735349,-0.542403,2.87491,0
60470,-0.736811,-0.547029,2.87633,0
60490,-0.739493,-0.551334,2.8782,0
60510,-0.741628,-0.556031,2.87927,0
60530,-0.740728,-0.561443,2.87902,0
60550,-0.741625,-0.567887,2.87972,0
60570,-0.743933,-0.574987,2.88057,0
60590,-0.74496,-0.581545,2.88008,0
60610,-0.74637,-0.587905,2.87978,0
60630,-0.748699,-0.595387,2.88108,0
60650,-0.750469,-0.603601,2.88211,0
60670,-0.751884,-0.611297,2.88242,0
60690,-0.75171,-0.619099,2.88037,0
60710,-0.751433,-0.626144,2.87788,0
60730,-0.751106,-0.632747,2.87632,0
60750,-0.74926,-0.640264,2.87337,0
60770,-0.747145,-0.647056,2.86962,0
60790,-0.744971,-0.653797,2.86511,0
60810,-0.74287,-0.660739,2.86064,0
60830,-0.740882,-0.668089,2.85548,0
60850,-0.738951,-0.675329,2.84981,0
60870,-0.736783,-0.683454,2.8439,0
60890,-0.734088,-0.6926,2.83785,0
60910,-0.732835,-0.702057,2.83199,0
60930,-0.73103,-0.711542,2.82447,0
60950,-0.729326,-0.720694,2.81653,0
60970,-0.727702,-0.730073,2.80904,0
60990,-0.725984,-0.739514,2.80178,0
61010,-0.723242,-0.748479,2.79294,0
61030,-0.720174,-0.757129,2.78291,0
61050,-0.71621,-0.765666,2.77216,0
61070,-0.712656,-0.773706,2.7619,0
61090,-0.709763,-0.782257,2.75165,0
61110,-0.705781,-0.790784,2.73986,0
61130,-0.701542,-0.799063,2.72752,0
61150,-0.698329,-0.806746,2.7157,0
61170,-0.695056,-0.813797,2.70376,0
61190,-0.690069,-0.820895,2.69099,0
61210,-0.684281,-0.827934,2.67717,0
61230,-0.680143,-0.833896,2.66294,0
61250,-0.675614,-0.839,2.6484,0
61270,-0.668418,-0.844424,2.63305,0
61290,-0.661595,-0.850495,2.61832,0
61310,-0.654108,-0.857253,2.60231,0
61330,-0.645388,-0.863497,2.5856,0
61350,-0.635923,-0.869503,2.56918,0
61370,-0.625162,-0.875326,2.55092,0
61390,-0.615514,-0.881214,2.53338,0
61410,-0.605443,-0.886646,2.51527,0
61430,-0.593679,-0.891986,2.49597,0
61450,-0.582843,-0.896703,2.477,0
61470,-0.569895,-0.901595,2.4567,0
61490,-0.555627,-0.905847,2.43547,0
61510,-0.540637,-0.909291,2.41501,0
61530,-0.526254,-0.913056,2.39456,0
61550,-0.509976,-0.917186,2.37241,0
61570,-0.493275,-0.920252,2.34959,0
61590,-0.477998,-0.922098,2.32804,0
61610,-0.462635,-0.923708,2.30742,0
61630,-0.444992,-0.924968,2.28788,0
61650,-0.428264,-0.925782,2.26915,0
61670,-0.413824,-0.926224,2.25062,0
61690,-0.400374,-0.925484,2.23225,0
61710,-0.388939,-0.924207,2.2166,0
61730,-0.378105,-0.923681,2.20272,0
61750,-0.367132,-0.922528,2.18868,0
61770,-0.356743,-0.919734,2.17505,0
61790,-0.347955,-0.916011,2.16211,0
61810,-0.339802,-0.912237,2.15012,0
61830,-0.332476,-0.908712,2.14065,0
61850,-0.325224,-0.905802,2.13201,0
61860,-0.316322,-0.902429,2.12194,0
61880,-0.306161,-0.897461,2.11072,0
61900,-0.295829,-0.891745,2.09955,0
61920,-0.289824,-0.887328,2.0908,0
61940,-0.281499,-0.883127,2.08054,0
61960,-0.271581,-0.877303,2.07015,0
61980,-0.263488,-0.87038,2.06214,0
62000,-0.25547,-0.864009,2.05366,0
62020,-0.247794,-0.857459,2.04519,0
62040,-0.239285,-0.850365,2.03735,0
62060,-0.230966,-0.84403,2.02966,0
62080,-0.224007,-0.83762,2.02179,0
62100,-0.218173,-0.82949,2.01441,0
62120,-0.212685,-0.821209,2.00703,0
62140,-0.208748,-0.814254,2.00179,0
62160,-0.203711,-0.806862,1.99537,0
62180,-0.197725,-0.798665,1.98922,0
62200,-0.194374,-0.790489,1.98434,0
62220,-0.191981,-0.784411,1.98018,0
62240,-0.187983,-0.779004,1.97582,0
62260,-0.18256,-0.773127,1.97108,0
62280,-0.178946,-0.767019,1.96679,0
62300,-0.177224,-0.761205,1.96321,0
62320,-0.175067,-0.75576,1.95993,0
62340,-0.171757,-0.750895,1.95714,0
62360,-0.168645,-0.747116,1.95412,0
62380,-0.165314,-0.743468,1.95065,0
62400,-0.165796,-0.738382,1.94791,0
62420,-0.169255,-0.731524,1.9466,0
62440,-0.171265,-0.72445,1.94636,0
62460,-0.171405,-0.717974,1.94604,0
62480,-0.16937,-0.711959,1.9439,0
62500,-0.168176,-0.704356,1.94099,0
62520,-0.169619,-0.696346,1.93933,0
62540,-0.169622,-0.688729,1.93798,0
62560,-0.166946,-0.681364,1.93624,0
62580,-0.16376,-0.674651,1.93578,0
62600,-0.163734,-0.669085,1.93554,0
62620,-0.163468,-0.662294,1.93491,0
62640,-0.164777,-0.654272,1.93513,0
62660,-0.168867,-0.647911,1.93669,0
62680,-0.169917,-0.642623,1.93805,0
62700,-0.169633,-0.63758,1.93978,0
62720,-0.171041,-0.632244,1.94115,0
62740,-0.17546,-0.626988,1.94332,0
62760,-0.179545,-0.622448,1.9455,0
62780,-0.181544,-0.6176,1.94748,0
62800,-0.183426,-0.613324,1.9493,0
62820,-0.186516,-0.609869,1.95058,0
62850,-0.197272,-0.601322,1.95835,0
62870,-0.200793,-0.597293,1.9626,0
62890,-0.20194,-0.59387,1.96657,0
62910,-0.204814,-0.590875,1.97107,0
62930,-0.210636,-0.5877,1.97572,0
62950,-0.215752,-0.583155,1.97979,0
62970,-0.219825,-0.579138,1.98495,0
62990,-0.223828,-0.577059,1.99125,0
63010,-0.227572,-0.575076,1.9974,0
63030,-0.23166,-0.571507,2.00293,0
63050,-0.237128,-0.567983,2.00935,0
63070,-0.242574,-0.565063,2.01614,0
63090,-0.246165,-0.562103,2.02298,0
63110,-0.249727,-0.558831,2.02972,0
63130,-0.254291,-0.555652,2.03646,0
63150,-0.259001,-0.551705,2.04263,0
63170,-0.264395,-0.547233,2.0494,0
63190,-0.269292,-0.543084,2.05641,0
63210,-0.273612,-0.53951,2.06388,0
63230,-0.277735,-0.535964,2.07068,0
63250,-0.283322,-0.5311,2.07752,0
63270,-0.289906,-0.525988,2.08505,0
63290,-0.295696,-0.521844,2.0924,0
63310,-0.300274,-0.517335,2.0998,0
63330,-0.30488,-0.512521,2.10745,0
63350,-0.311688,-0.508615,2.11538,0
63370,-0.31773,-0.504896,2.12243,0
63390,-0.322626,-0.501375,2.12962,0
63410,-0.327136,-0.498171,2.1367,0
63430,-0.331756,-0.495953,2.14336,0
63450,-0.334782,-0.494066,2.14943,0
63470,-0.339129,-0.491644,2.1558,0
63490,-0.34349,-0.489406,2.16205,0
63510,-0.3458,-0.487745,2.16762,0
63530,-0.345399,-0.486018,2.17268,0
63550,-0.345453,-0.484999,2.17815,0
63570,-0.345704,-0.484555,2.18389,0
63590,-0.346438,-0.483852,2.19001,0
63610,-0.34948,-0.48264,2.19723,0
63630,-0.354502,-0.481755,2.20576,0
63650,-0.359494,-0.480658,2.21466,0
63670,-0.363582,-0.478934,2.22352,0
63690,-0.368489,-0.477722,2.23283,0
63710,-0.374673,-0.476936,2.24216,0
63730,-0.380054,-0.475746,2.2511,0
63750,-0.385186,-0.473838,2.26018,0
63770,-0.390907,-0.472218,2.26951,0
63790,-0.398177,-0.471167,2.2794,0
63810,-0.404868,-0.470043,2.28905,0
63830,-0.41075,-0.468623,2.29855,0
63850,-0.417006,-0.467683,2.30822,0
63870,-0.423796,-0.466888,2.31814,0
63890,-0.430441,-0.466034,2.32793,0
63910,-0.436765,-0.46505,2.33739,0
63930,-0.444064,-0.465208,2.34767,0
63950,-0.451007,-0.465388,2.35758,0
63970,-0.45648,-0.465077,2.36619,0
63990,-0.460972,-0.465621,2.37384,0
64010,-0.464971,-0.467506,2.38149,0
64030,-0.468374,-0.469357,2.38876,0
64050,-0.47122,-0.470765,2.39582,0
64070,-0.473998,-0.472768,2.40376,0
64090,-0.477722,-0.475181,2.41209,0
64110,-0.482444,-0.476942,2.41988,0
64130,-0.488849,-0.478532,2.42814,0
64150,-0.495566,-0.480272,2.43669,0
64170,-0.50163,-0.482213,2.44493,0
64190,-0.506673,-0.484142,2.45295,0
64210,-0.511647,-0.487408,2.46117,0
64230,-0.516114,-0.49099,2.46907,0
64250,-0.520914,-0.493933,2.47678,0
64270,-0.524408,-0.497002,2.48441,0
64290,-0.527815,-0.500971,2.49277,0
64310,-0.532252,-0.505131,2.50156,0
64330,-0.536756,-0.50883,2.51032,0
64350,-0.542269,-0.512192,2.5194,0
64370,-0.548942,-0.515854,2.5288,0
64390,-0.555411,-0.519232,2.53891,0
64410,-0.561594,-0.522018,2.54928,0
64430,-0.569181,-0.524329,2.55984,0
64450,-0.577783,-0.526789,2.57124,0
64470,-0.586203,-0.529011,2.58334,0
64490,-0.59393,-0.531343,2.59537,0
64510,-0.601441,-0.533677,2.6062,0
64530,-0.610157,-0.535859,2.61701,0
64550,-0.620817,-0.538396,2.62848,0
64570,-0.630066,-0.54183,2.6399,0
64590,-0.637726,-0.545402,2.65083,0
64610,-0.645123,-0.549023,2.66092,0
64630,-0.653999,-0.553231,2.67022,0
64650,-0.662921,-0.557182,2.67913,0
64670,-0.66919,-0.559952,2.68729,0
64690,-0.673889,-0.56264,2.69572,0
64710,-0.678446,-0.566195,2.70382,0
64730,-0.68336,-0.56945,2.71125,0
64750,-0.688909,-0.572128,2.71852,0
64770,-0.696549,-0.575085,2.72692,0
64790,-0.704504,-0.578759,2.73565,0
64810,-0.711453,-0.581589,2.74366,0
64830,-0.71854,-0.58379,2.75125,0
64850,-0.725106,-0.586921,2.75851,0
64870,-0.72963,-0.589972,2.76496,0
64890,-0.735681,-0.59259,2.77199,0
64910,-0.741258,-0.594945,2.7788,0
64930,-0.746258,-0.597245,2.78535,0
64950,-0.749888,-0.599727,2.79207,0
64970,-0.754484,-0.602985,2.79863,0
64990,-0.759317,-0.605574,2.80487,0
65010,-0.76431,-0.607993,2.81097,0
65030,-0.770658,-0.611057,2.81796,0
65050,-0.776264,-0.613593,2.82447,0
65070,-0.779773,-0.615247,2.82998,0
65090,-0.782611,-0.617612,2.83447,0
65110,-0.78574,-0.620813,2.83962,0
65130,-0.788614,-0.624088,2.84419,0
65150,-0.790415,-0.627205,2.84842,0
65170,-0.790338,-0.630466,2.85206,0
65190,-0.790167,-0.634073,2.85524,0
65210,-0.791269,-0.638329,2.8593,0
65230,-0.792637,-0.643132,2.86322,0
65240,-0.79439,-0.647918,2.8674,0
65260,-0.795998,-0.653153,2.87144,0
65280,-0.797865,-0.658414,2.87471,0
65300,-0.799019,-0.664271,2.87744,0
65320,-0.798914,-0.670574,2.87968,0
65340,-0.797457,-0.678059,2.88268,0
65350,-0.79687,-0.68731,2.88619,0
65370,-0.797278,-0.696412,2.88907,0
65390,-0.798741,-0.704672,2.8911,0
65410,-0.799689,-0.712525,2.89282,0
65430,-0.799775,-0.720639,2.89495,0
65450,-0.79943,-0.729584,2.89724,0
65470,-0.798657,-0.738573,2.89911,0
65490,-0.797842,-0.747703,2.89983,0
65510,-0.798734,-0.756562,2.90074,0
65530,-0.800279,-0.764947,2.90185,0
65550,-0.801593,-0.77274,2.90281,0
65570,-0.803122,-0.780673,2.90375,0
65590,-0.804095,-0.788081,2.904,0
65610,-0.805382,-0.795511,2.90467,0
65630,-0.807147,-0.803134,2.9053,0
65650,-0.808264,-0.810489,2.90545,0
65670,-0.809147,-0.818013,2.90452,0
65690,-0.809462,-0.825782,2.90315,0
65710,-0.807809,-0.834385,2.90235,0
65730,-0.806457,-0.844176,2.90135,0
65750,-0.80629,-0.854122,2.89922,0
65770,-0.806537,-0.863477,2.89517,0
65790,-0.80497,-0.872085,2.89038,0
65810,-0.803234,-0.880603,2.88586,0
65830,-0.801063,-0.889704,2.88102,0
65850,-0.798831,-0.898806,2.87501,0
65870,-0.795423,-0.907497,2.86798,0
65890,-0.791878,-0.916521,2.86139,0
65910,-0.788944,-0.925591,2.85455,0
65930,-0.787013,-0.934073,2.84712,0
65950,-0.785154,-0.94176,2.83967,0
65970,-0.78228,-0.949199,2.83254,0
65990,-0.779211,-0.956513,2.82504,0
66010,-0.776273,-0.962798,2.81673,0
66030,-0.773918,-0.968601,2.80691,0
66050,-0.768857,-0.975185,2.7963,0
66070,-0.763252,-0.982028,2.78605,0
66090,-0.758436,-0.989445,2.77548,0
66110,-0.752857,-0.996759,2.76297,0
66130,-0.746622,-1.00398,2.75031,0
66150,-0.739415,-1.01094,2.73778,0
66170,-0.731836,-1.01777,2.72473,0
66190,-0.723774,-1.02491,2.71028,0
66210,-0.712789,-1.03173,2.69412,0
66230,-0.702402,-1.03809,2.67866,0
66250,-0.691442,-1.04365,2.66205,0
66270,-0.680262,-1.04865,2.64522,0
66290,-0.668243,-1.05357,2.62817,0
66310,-0.655381,-1.0582,2.61096,0
66330,-0.64351,-1.06162,2.59281,0
66350,-0.632453,-1.06468,2.57474,0
66370,-0.619777,-1.06818,2.55567,0
66390,-0.606125,-1.07216,2.5373,0
66410,-0.593187,-1.07678,2.51935,0
66430,-0.581268,-1.08143,2.50109,0
66450,-0.568599,-1.08587,2.48255,0
66470,-0.553575,-1.08999,2.46347,0
66490,-0.54155,-1.09354,2.44562,0
66510,-0.528966,-1.09693,2.42654,0
66530,-0.513714,-1.09933,2.407,0
66550,-0.500065,-1.10144,2.38918,0
66570,-0.486175,-1.10427,2.3701,0
66590,-0.472044,-1.10549,2.35062,0
66610,-0.459659,-1.1061,2.33279,0
66630,-0.44681,-1.10589,2.31434,0
66650,-0.431758,-1.10519,2.29564,0
66670,-0.416543,-1.10427,2.27745,0
66690,-0.4017,-1.1033,2.25863,0
66710,-0.386658,-1.1013,2.23934,0
66730,-0.373824,-1.09843,2.22212,0
66750,-0.363063,-1.09441,2.20705,0
66770,-0.353484,-1.08832,2.19428,0
66790,-0.340537,-1.0823,2.18112,0
66810,-0.327617,-1.07751,2.16756,0
66830,-0.315828,-1.07264,2.15329,0
66850,-0.304988,-1.0668,2.13942,0
66870,-0.29624,-1.06068,2.12641,0
66890,-0.28865,-1.05478,2.11658,0
66910,-0.283465,-1.0486,2.1099,0
66930,-0.277901,-1.04183,2.10276,0
66950,-0.273173,-1.03417,2.09486,0
66970,-0.270927,-1.02538,2.08776,0
66990,-0.271498,-1.01596,2.08339,0
67010,-0.275202,-1.00606,2.08332,0
67030,-0.278954,-0.99539,2.08391,0
67050,-0.280058,-0.984479,2.08437,0
67070,-0.283256,-0.972821,2.08738,0
67090,-0.28897,-0.961798,2.09115,0
67110,-0.293986,-0.951687,2.09307,0
67130,-0.297947,-0.940823,2.09444,0
67150,-0.303841,-0.930068,2.09618,0
67170,-0.308633,-0.9196,2.09734,0
67190,-0.311948,-0.908861,2.09822,0
67210,-0.313994,-0.899418,2.09892,0
67220,-0.314868,-0.890682,2.0988,0
67240,-0.315577,-0.88092,2.09857,0
67260,-0.317529,-0.871602,2.09783,0
67280,-0.319041,-0.862157,2.09661,0
67300,-0.319968,-0.852911,2.09622,0
67320,-0.32065,-0.844521,2.09671,0
67340,-0.320576,-0.83673,2.09605,0
67360,-0.320231,-0.828482,2.09478,0
67380,-0.323095,-0.818985,2.09605,0
67400,-0.330482,-0.810826,2.10022,0
67420,-0.33523,-0.803047,2.1051,0
67440,-0.338415,-0.795226,2.11011,0
67460,-0.342126,-0.788341,2.11448,0
67480,-0.348795,-0.782259,2.11847,0
67500,-0.358529,-0.775896,2.12422,0
67520,-0.367638,-0.768893,2.13072,0
67540,-0.376586,-0.762261,2.13764,0
67560,-0.386572,-0.756553,2.14499,0
67580,-0.396201,-0.750091,2.1518,0
67600,-0.406602,-0.742568,2.15982,0
67620,-0.415874,-0.735565,2.16735,0
67640,-0.423314,-0.728133,2.17361,0
67660,-0.430516,-0.720667,2.18023,0
67680,-0.438454,-0.713871,2.18716,0
67700,-0.445754,-0.707632,2.19445,0
67720,-0.451021,-0.700847,2.20126,0
67740,-0.457029,-0.694429,2.20819,0
67760,-0.463849,-0.689111,2.21546,0
67780,-0.470599,-0.683627,2.2225,0
67800,-0.476355,-0.678112,2.23006,0
67820,-0.482087,-0.673486,2.23742,0
67840,-0.487269,-0.669511,2.24447,0
67860,-0.493455,-0.665509,2.25194,0
67880,-0.50009,-0.661501,2.25957,0
67900,-0.506689,-0.657666,2.26695,0
67920,-0.51369,-0.653929,2.27435,0
67940,-0.521186,-0.650247,2.28166,0
67960,-0.530184,-0.646558,2.28892,0
67980,-0.540917,-0.642302,2.29649,0
68000,-0.550249,-0.637834,2.30308,0
68020,-0.555901,-0.633304,2.30963,0
68040,-0.562151,-0.63021,2.31671,0
68060,-0.568712,-0.62767,2.32346,0
68080,-0.574418,-0.624853,2.33013,0
68100,-0.579495,-0.621848,2.33665,0
68120,-0.586229,-0.619365,2.34399,0
68140,-0.593846,-0.616041,2.35156,0
68160,-0.599907,-0.612324,2.35918,0
68180,-0.605479,-0.60913,2.36691,0
68200,-0.612081,-0.605983,2.37471,0
