Timestamp, Rotation x, Rotation y, Rotation z, Marker
20,-2.8125,6.8125,9.25,0
60,1.25,-3.0625,-10.5,0
80,7.1875,-8.25,-13.0625,0
100,12,-9,-8.875,0
120,8.0625,-3.75,-0.25,0
130,-0.3125,4.125,9.5625,0
150,-10.375,9.1875,17.3125,0
170,-14.25,11.75,17.125,0
190,-12.4375,10.9375,10.125,0
210,-6.625,7.9375,0.9375,0
230,1.0625,2.6875,-9.375,0
250,9,-7.9375,-15.1875,0
260,12.3125,-13.3125,-12.8125,0
260,12.0625,-10.5625,-4.75,0
300,7.75,-1.1875,2.9375,0
310,1.3125,8.8125,9.625,0
330,-4.5,13.625,10.875,0
350,-5.75,12.9375,7.5,0
370,-1.5,7.1875,-1.6875,0
390,6,-0.125,-12.375,0
410,12.875,-7,-16.75,0
430,15.5625,-9.875,-12.8125,0
450,12.9375,-7.5,-3.375,0
470,3.5,-1.375,5.375,0
500,-22.375,2.4375,15.5625,0
540,-17.75,-5.625,-1.0625,0
560,-5.0625,-12.25,-10.8125,0
570,1.9375,-20.25,-10.1875,0
590,4.1875,-21.1875,-1.5,0
610,2.875,-14.125,7.4375,0
630,-0.5,-3.625,15.625,0
650,-4,4.875,19.25,0
670,-7.9375,9.4375,16.6875,0
690,-9.3125,8.625,8.0625,0
710,-7.6875,3.875,-3.1875,0
730,14,-7.25,-1.4375,0
750,5.3125,1.125,6.1875,0
770,-3.9375,8.4375,9.8125,0
780,-10.3125,10.0625,8.9375,0
810,-4.8125,-0.6875,-3.5625,0
830,3.4375,-5.625,-6.625,0
860,4.5625,-5.1875,-0.0625,0
880,-1.4375,-1.5625,4.25,0
900,-7.1875,1.0625,5.625,0
930,-7.125,0.5625,2.0625,0
960,2.5,0.5,-0.125,0
980,3.0625,1,1,0
1000,0.125,2.3125,1.9375,0
1020,-2.375,3.75,2.625,0
1050,-6.4375,7.125,6.5625,0
1070,-3.6875,9.0625,8.625,0
1090,-1.1875,9.1875,9,0
1110,-3.1875,7.375,6.125,0
1130,-10,4.75,2.5625,0
1150,-19,1.125,1.5625,0
1170,-21.6875,-3.0625,1.125,0
1190,-14.75,-6.25,1,0
1210,-3.375,-6.5,2.3125,0
1230,1.0625,-4.625,1.5,0
1250,-3.3125,-3.25,-0.1875,0
1290,3.0625,-1.875,-2.5625,0
1310,12.9375,-1.5625,-4.375,0
1330,17.1875,-1.0625,-4.875,0
1350,15.9375,-0.5,-5.875,0
1360,13.4375,-0.3125,-7.4375,0
1380,12.625,0.125,-8.3125,0
1400,11.5,0,-6.75,0
1420,9.5,-0.0625,-6,0
1440,2.8125,0.4375,-3.6875,0
1460,-4.1875,1.25,-2.4375,0
1470,-13.125,3.1875,-0.375,0
1490,-24.125,7.4375,4.375,0
1510,-33.625,7.8125,11,0
1530,-32.6875,2.875,14.8125,0
1550,-40.25,4.875,13.6875,0
1570,-47.375,6.75,13.25,0
1590,-46.1875,5.125,14.5625,0
1610,-45.1875,3.375,16.125,0
1630,-40.5,1.375,16.125,0
1650,-32.0625,-1.1875,14.4375,0
1670,-20.9375,-3.5,9.5,0
1690,-7,-5.9375,4.6875,0
1710,11.375,-9.625,-1.25,0
1730,37.5,-14,-11.125,0
1750,74.375,-19.4375,-20.125,0
1770,100.562,-20.625,-24.9375,0
1790,99.8125,-14.0625,-24.125,0
1810,65.625,-3,-22.125,0
1830,27.75,12.5625,-7.8125,0
1850,5.4375,22.625,8.8125,0
1870,3.1875,14.375,7.8125,0
1890,18.125,-3.8125,-0.1875,0
1910,31.9375,-18.25,-0.4375,0
1930,24.75,-18.75,2.875,0
1960,-62.5,2.5625,5.6875,0
1980,-48.9375,0.0625,1.25,0
2000,-33.625,-0.375,-1.3125,0
2020,-22.0625,3.1875,-1,0
2040,-13.625,9.625,-0.375,0
2060,-11.25,18.0625,1.25,0
2080,-10.4375,22.3125,3.9375,0
2100,-5.0625,20.75,7,0
2110,1.4375,15,7.75,0
2130,1.875,9.25,7.5625,0
2150,-5.6875,5.9375,6.5625,0
2170,-16.5625,5,5.125,0
2210,-23.1875,3.625,6.0625,0
2230,-13.0625,1,4.75,0
2250,-2.3125,-1.5625,2.4375,0
2270,8.4375,-2.5625,-1.875,0
2290,17.5,-3.1875,-5.875,0
2310,24.0625,-4.375,-7.4375,0
2330,37.3125,-9,-10.25,0
2350,57.6875,-16.4375,-16.5,0
2370,71.0625,-20.0625,-22.625,0
2390,68.375,-14.875,-26.625,0
2410,48.6875,-2.4375,-26.625,0
2430,27.5,9.5,-25.75,0
2450,16.75,16.8125,-19.875,0
2470,15.625,12.8125,-10.4375,0
2490,21.3125,3.75,-2.3125,0
2510,27.25,-8.3125,4.25,0
2530,21.4375,-15.625,8.75,0
2570,-16.3125,-9.875,7.875,0
2580,-50.1875,-4.375,9,0
2600,-48.8125,-6.3125,9.6875,0
2620,-34.5,-9,9.5,0
2640,-13,-9.1875,8.625,0
2660,3.5625,-5.9375,6.3125,0
2680,11,-0.75,3,0
2700,12.0625,2.875,2.5625,0
2720,15.625,1.75,2.5,0
2740,19,-5.1875,8.1875,0
2760,30.5,-11.625,6.4375,0
2780,29.5,-23,2.25,0
2800,8.875,-28.875,-1.5,0
2820,-16,-33.4375,-11.875,0
2840,-34.4375,-41,-21.5,0
2860,-44.4375,-45.1875,-35.1875,0
2880,-49,-51.75,-52.9375,0
2900,-37.25,-67.1875,-66.1875,0
2920,-26.625,-74.4375,-78.625,0
2950,-30.5,-81.125,-94.9375,0
2970,-33.9375,-81.8125,-97.25,0
3030,-31.6875,-51,-65,0
3050,-32.375,-40.375,-55.9375,0
3070,-31.5,-33.625,-46,0
3090,-26.1875,-25.625,-38.6875,0
3110,-15.625,-18.1875,-30.1875,0
3130,-13.9375,-13.5,-24.75,0
3150,-11.3125,-8.375,-20.4375,0
3170,-7.75,-4.625,-15.125,0
3190,-8.25,-2.375,-11.3125,0
3210,-8.875,-2.375,-8.3125,0
3230,-2.25,-2.9375,-6.8125,0
3250,4.9375,-3.5625,-7.0625,0
3270,2.75,-4.1875,-7.6875,0
3290,0.125,-5.4375,-6.75,0
3310,0.875,-6.3125,-5.1875,0
3330,0.5,-5.3125,-5.5625,0
3350,-1,-6.25,-5.6875,0
3370,-1.9375,-5.8125,-3.75,0
3390,-2.375,-5.4375,-2.4375,0
3410,-3.6875,-5.6875,-1.9375,0
3430,-4.9375,-4.4375,-3.1875,0
3450,-5.3125,-3.875,-2.875,0
3470,-5.25,-3.9375,-1.5625,0
3490,-4.25,-3.5625,-1.5,0
3510,-2.875,-3.5625,-1.5625,0
3530,-4.6875,-3.3125,-0.5625,0
3550,-5.5,-2.125,0.5625,0
3570,-5.125,-2.3125,1,0
3590,-3.4375,-2,0.25,0
3610,-2.375,-2.125,-0.5625,0
3630,-2.1875,-0.9375,-0.3125,0
3650,-4.5625,-1,0.75,0
3670,-4.1875,-0.9375,1.4375,0
3690,-1.875,-1,1.875,0
3710,-1.3125,-0.375,0.9375,0
3730,-1.8125,0,0.25,0
3750,-2.625,-0.4375,1.5625,0
3770,-2.5,0.125,0.9375,0
3790,-2,0.1875,0.6875,0
3810,-3.3125,-0.6875,0.5,0
3820,-2,-0.625,-0.1875,0
3850,-1.375,-0.1875,-1.125,0
3870,-1.375,-0.875,-1.625,2000
3890,-0.875,-1.75,-1.5,0
3910,-1,-1.5625,-1.75,0
3930,-1.5625,-1.0625,-1.1875,0
3940,-2.6875,-1.75,0,0
3960,-3.1875,-2.0625,0.0625,0
3980,-2.9375,-1.375,-0.6875,0
4000,-3.1875,-1.5,0,0
4020,-4.875,-2,1,0
4040,-5.375,-0.9375,1.1875,0
4060,-4,0,1.75,0
4080,-1.875,0.5,1.25,0
4100,0.5625,1.3125,1.1875,0
4120,0.1875,1.75,0,0
4140,0.9375,2.75,-0.6875,0
4160,1.1875,2.6875,-0.125,0
4180,1.125,1.9375,0.4375,0
4200,1.5,1.875,0.8125,0
4220,2.625,1.1875,1,0
4240,2.8125,1.125,1,0
4260,2.625,1.8125,1,0
4280,2.375,0.8125,0.375,0
4300,0.6875,-0.5625,0.5625,0
4320,-0.125,-1.0625,0.125,0
4340,-0.6875,-1.125,0.5,0
4360,-0.8125,-1.4375,0.0625,0
4380,-1.125,-2.0625,0.4375,0
4400,-1.9375,-1.875,1.875,0
4420,-2.9375,-0.9375,0.25,0
4440,-4.0625,-2.8125,0.3125,0
4460,2.25,-3.6875,0.8125,0
4480,5.5625,-3.625,-1.75,0
4500,3.9375,-1.625,-1.125,0
4520,-1.625,-1.9375,1.375,0
4540,-6.0625,-3.0625,2.5,0
4560,-11.0625,-3.625,2.3125,0
4580,-13.625,1.3125,-0.875,0
4600,-11.75,0.4375,-3.1875,0
4620,-6.4375,-5.4375,-3,0
4640,-1.8125,-9.9375,0.8125,0
4660,-4,-13.4375,1.4375,0
4680,-13.4375,-14.5,-2.125,0
4700,-18.4375,-14.0625,-3.75,0
4720,-14.75,-17.375,-4.4375,0
4740,-6.5625,-21.1875,-4.4375,0
4760,-3.625,-24,-4.3125,0
4780,-4.0625,-24.375,-6,0
4800,-8.3125,-27.0625,-7.875,0
4820,-8.625,-31.125,-6.3125,0
4840,-4.8125,-34.3125,-8.875,0
4860,-4.9375,-38.9375,-14.8125,0
4880,-8.5625,-41.0625,-15.5625,0
4900,-10.125,-41.8125,-16.125,0
4920,-13.0625,-42.0625,-16.8125,0
4940,-14.125,-41.5625,-18.5625,0
4960,-12.3125,-41.6875,-15.75,0
4980,-10.875,-38.8125,-14.6875,0
5000,-15.625,-36.3125,-14.6875,0
5020,-20.0625,-30.75,-14.25,0
5040,-20,-28.8125,-9.4375,0
5060,-18.5,-24.6875,-9.5625,0
5080,-19.125,-19.8125,-13.0625,0
5100,-26.375,-17.0625,-15.25,0
5120,-25.5625,-14.875,-13.0625,0
5140,-21.3125,-11.875,-15.125,0
5160,-20.3125,-5.5625,-23.25,0
5180,-20.25,-1.5,-27.625,0
5200,-20,1.5625,-24.1875,0
5220,-20.625,5.4375,-23.375,0
5240,-24.125,11.3125,-21.9375,0
5260,-25.0625,16.8125,-22,0
5280,-27.5625,23.25,-22.4375,0
5300,-25.875,31.8125,-25,0
5320,-27.1875,37.75,-24.5625,0
5340,-29.1875,42.0625,-25.875,0
5360,-27.6875,49.1875,-29.5625,0
5380,-23.25,55.875,-31.625,0
5400,-27.625,64.0625,-31,0
5420,-29.5,73.25,-29.875,0
5440,-30.5625,79.0625,-31.375,0
5460,-30.3125,84.8125,-33.25,0
5480,-30.0625,88.625,-35.4375,0
5500,-30.5625,91.4375,-37.75,0
5520,-29.4375,92,-40.1875,0
5540,-28.625,92.875,-43.0625,0
5560,-29.5,88.9375,-41.5625,0
5580,-28.6875,86.5,-40.1875,0
5600,-25.875,82,-40.875,0
5620,-24,76.875,-37.75,0
5640,-21.75,72.875,-31.5625,0
5660,-18.125,68,-25.125,0
5680,-12.75,63.375,-20.875,0
5700,-11.4375,58.875,-16.125,0
5720,-14.75,52.1875,-6.4375,0
5740,-13.8125,48.75,3.75,0
5760,-9.375,48.4375,10.9375,0
5780,-2.125,47.375,11.6875,0
5800,1.9375,47.875,14.3125,0
5820,-2.9375,49,17.0625,0
5840,-1.3125,48.75,14,0
5860,-3.8125,46.3125,11.8125,0
5880,3.25,40.3125,15.9375,0
5900,16.0625,32.125,18.75,0
5920,16.875,24,16.3125,0
5940,11.5,17.0625,12.8125,0
5960,6.375,9,12.0625,0
5980,13.4375,1.1875,13.75,0
6000,16.0625,-3.875,13.4375,0
6020,16.5625,-6.3125,14.5625,0
6040,18.375,-7.0625,16.25,0
6060,15.6875,-9.6875,15.25,0
6080,10,-13.9375,16.0625,0
6100,16.5625,-16.8125,19.1875,0
6120,23.875,-18.125,19.5,0
6140,27.875,-21.125,23.4375,0
6160,26.375,-23.625,22.125,0
6180,22.25,-24.3125,20.5625,0
6200,23,-25.125,20.8125,0
6220,21.9375,-27,22.75,0
6240,21.8125,-26.375,22.1875,0
6260,17.3125,-27.0625,25.6875,0
6280,13.5625,-28.0625,31.5625,0
6300,9.4375,-27.25,37.3125,0
6320,9.5,-27.4375,37.625,0
6340,9.625,-29.125,33.875,0
6360,8.0625,-32.3125,31.3125,0
6380,12.375,-36.0625,30.0625,0
6400,14.8125,-38.9375,27,0
6420,15.3125,-40.125,23.625,0
6440,11.5,-42.5,23.125,0
6460,8.0625,-44.9375,24.8125,0
6480,10.75,-46.75,22.5,0
6500,12.6875,-47.25,20.1875,0
6520,11.625,-47.6875,19.5625,0
6540,10.125,-47.625,17.5625,0
6560,10.25,-47.25,13.6875,0
6580,8.75,-48.5625,12.3125,0
6600,7.25,-49.375,10.5625,0
6620,8.125,-48.9375,9,0
6640,7.75,-49,7.375,0
6660,4.6875,-48.5625,7.0625,0
6680,2.25,-48.125,7.4375,0
6700,-1,-47.1875,5.3125,0
6720,-5.5,-47.3125,3.6875,0
6740,-8.875,-47.9375,4.625,0
6760,-10.3125,-49.5625,5.5625,0
6780,-12.5,-49.75,4.3125,0
6800,-15,-49.6875,2.5625,0
6820,-18.25,-49.8125,1.625,0
6840,-19.875,-49.1875,-1.5,0
6860,-14.5625,-47.6875,-4.9375,0
6880,-9.25,-47.25,-8.125,0
6900,-2.625,-47.4375,-12.5,0
6920,-6,-49.5625,-13.5,0
6940,-5.125,-48.1875,-16.75,0
6960,-5.375,-47.5625,-18,0
6980,-6,-48.375,-18.8125,0
7000,-6.875,-45.875,-23.375,0
7020,-0.8125,-42.0625,-26.25,0
7040,0.9375,-37.6875,-29.375,0
7060,2.8125,-37.4375,-31.0625,0
7080,-1.9375,-34.9375,-33.5,0
7100,-3.9375,-32.25,-36.625,0
7120,-8.9375,-27.8125,-41,0
7140,-15.8125,-21.375,-44.5,0
7160,-13.4375,-17.375,-43.25,0
7180,-12,-13,-50.75,0
7200,-13.1875,-4.5625,-61.25,0
7220,-9.5625,2.3125,-71.625,0
7240,-5,6.3125,-78.75,0
7260,-12.25,7.4375,-80.625,0
7280,-20.125,11.9375,-82.875,0
7300,-22.125,19.75,-84.4375,0
7320,-25.75,24.4375,-78.75,0
7340,-32.3125,30.6875,-72.875,0
7350,-36.8125,42.1875,-67.125,0
7370,-44.375,49.8125,-62,0
7390,-47.0625,51.5625,-56.25,0
7410,-46.625,55.75,-53.5625,0
7430,-47.3125,58.8125,-50.8125,0
7450,-44.5,61.3125,-49,0
7470,-37.5625,61.4375,-48.4375,0
7490,-35.0625,63,-46.3125,0
7510,-40.625,62.1875,-43.5,0
7530,-43.375,60.6875,-39.25,0
7550,-41.125,61.0625,-34.625,0
7570,-37.5625,59.5,-32.5,0
7590,-35.0625,57.125,-26.8125,0
7610,-34.6875,55,-15.25,0
7630,-43,58.375,3.5625,0
7650,-36.75,52.125,9.3125,0
7670,-19,43.1875,9.5,0
7690,-10.0625,36,12.1875,0
7710,-8.25,35.1875,20.4375,0
7730,-12.1875,33.125,23.4375,0
7750,-6.625,33.75,19.5,0
7770,-2.875,34.0625,19.25,0
7790,1.625,30.5625,24.375,0
7810,2.5625,28.75,22.3125,0
7830,2.75,26.375,17.125,0
7850,10.4375,20.875,18.125,0
7870,17.75,19.125,26.625,0
7890,10.625,18.4375,32.1875,0
7910,7.125,14.8125,33.4375,0
7930,10.8125,10.625,33.0625,0
7950,19.625,8.875,34.875,0
7970,18.4375,9.125,35.8125,0
7990,7.8125,7.8125,39.9375,0
8010,10.125,5,41.25,0
8030,22.0625,0.6875,37.6875,0
8050,25.0625,-5,41.6875,0
8070,15.625,-6.25,44.4375,0
8090,7.9375,-8.625,45.8125,0
8110,12.9375,-13.0625,46.875,0
8130,19.8125,-17.875,45,0
8150,15.5625,-21,43.25,0
8170,3.375,-20.625,43.8125,0
8190,-3.125,-20.8125,42.375,0
8210,10.25,-25.5,42.8125,0
8230,18.75,-31.6875,41.625,0
8250,19.9375,-36.8125,36.3125,0
8270,11.5,-39.125,33.9375,0
8290,4,-43.1875,33.125,0
8310,6.3125,-46.25,31.0625,0
8330,16.5625,-49.25,27.3125,0
8350,22.0625,-50.9375,22.4375,0
8370,20.4375,-52.6875,20.9375,0
8390,16.9375,-53.625,20.5,0
8410,16.3125,-55.875,17.9375,0
8430,18.3125,-59.4375,14.75,0
8450,18.9375,-60.5,13.0625,0
8470,16.125,-61.5625,14.375,0
8490,7.75,-63,15.4375,0
8510,2.5,-61.75,12.9375,0
8530,2.5625,-61.625,11.4375,0
8550,-1.3125,-63.625,10.3125,0
8570,7.625,-65.25,8,0
8590,8.5625,-65.875,5.1875,0
8610,3.0625,-64.375,1.75,0
8630,2.125,-63.9375,1.8125,0
8650,-3.125,-62.8125,0.75,0
8670,-2.6875,-61.75,-4,0
8690,-5.0625,-60.0625,-4.4375,0
8710,-6.3125,-57.75,-7.0625,0
8730,-5.75,-57,-11.5,0
8750,-8.4375,-56.375,-14.0625,0
8770,-10.375,-51.25,-17.25,0
8790,-8.6875,-45.75,-20.8125,0
8810,-6.3125,-41.3125,-25,0
8830,-9.3125,-38.8125,-26.4375,0
8850,-8.0625,-36.1875,-23.1875,0
8870,-5.4375,-33.75,-27.875,0
8890,-8.6875,-30.8125,-32.75,0
8910,-16.5,-29.5625,-36.375,0
8930,-20,-27.4375,-38.6875,0
8950,-24.75,-25.4375,-37.4375,0
8970,-22.5625,-20.9375,-42.5625,0
8990,-24.8125,-15.8125,-48.1875,0
9010,-28.375,-14.125,-51.625,0
9030,-33,-14,-49.5625,0
9050,-34.625,-16.6875,-49.3125,0
9070,-40.5625,-16.4375,-51.0625,0
9090,-48.625,-11.1875,-50.125,0
9110,-53.875,-7.25,-47.1875,0
9130,-55.25,-2.6875,-43.625,0
9150,-54.6875,1.5,-41.1875,0
9170,-53.4375,4.1875,-44,0
9190,-56.6875,7.375,-42.4375,0
9210,-57.375,12.9375,-39.8125,0
9230,-57.5625,18.9375,-35.8125,0
9250,-58.9375,25.625,-32,0
9270,-57.8125,30.5625,-29.875,0
9290,-56,32.375,-25.125,0
9310,-64.0625,33.5,-21,0
9320,-61.9375,33.6875,-15.3125,0
9350,-62.3125,35.375,-9.0625,0
9360,-60.0625,37.75,-4.4375,0
9380,-56.3125,40.375,-1.25,0
9400,-49.875,43.625,-1.5625,0
9420,-48.5625,47.5,-1.3125,0
9440,-44.25,49.5625,0.0625,0
9460,-40.9375,54,3.8125,0
9480,-38.5625,58.3125,4.8125,0
9500,-30.4375,63.1875,6.9375,0
9520,-26,65.375,10.9375,0
9540,-22.25,70.6875,14.125,0
9560,-18.125,75.4375,23.375,0
9580,-7.1875,81.375,27.375,0
9600,-3.25,80.25,27.5625,0
9620,-0.1875,79.5,26.0625,0
9640,-4.3125,77.375,28.25,0
9660,-6,71.1875,30.1875,0
9680,-2.75,63.3125,32.375,0
9700,-4.625,58.5625,34.625,0
9720,-3.3125,55.375,34.5625,0
9740,1.0625,49.375,32.375,0
9760,4.6875,47,35.8125,0
9780,5.125,45.6875,35.125,0
9800,8.3125,42.0625,39.1875,0
9820,16.25,39.4375,38.625,0
9840,21.9375,38.375,42,0
9860,24.1875,35.9375,48.625,0
9880,20.5625,30.1875,54,0
9900,19.1875,30.6875,50.875,0
9920,25.3125,27.875,42.4375,0
9940,29.6875,19.75,40.125,0
9960,17.125,14.6875,43.3125,0
9980,1.125,9.9375,38.9375,0
10000,0.5,6.375,35.625,0
10020,13.375,2.6875,34.75,0
10040,17.9375,0.6875,34.75,0
10060,12.6875,-1.25,31.875,0
10080,1.375,-2.1875,28.9375,0
10100,2,-5.9375,28.5,0
10120,7.75,-11.4375,30.5,0
10140,10.875,-13.6875,26.6875,0
10160,7.5625,-13.5,23.9375,0
10180,4.8125,-13.9375,23.4375,0
10200,6.875,-14.125,24.75,0
10220,9.25,-15.625,24.1875,0
10240,13.5625,-17.5625,23,0
10260,14.375,-17.75,23.875,0
10280,11,-19.0625,26.5625,0
10300,7.875,-21.3125,25.625,0
10320,7.375,-23.5625,27.5,0
10340,6.0625,-26.375,29.5,0
10360,6.5,-27.625,29.0625,0
10380,1.4375,-30.3125,28,0
10400,-2.4375,-32.625,26.625,0
10420,1.8125,-35.125,24.6875,0
10440,5.3125,-37.625,22.6875,0
10460,9.0625,-39.125,21.125,0
10480,11.0625,-40.375,17.375,0
10500,14.375,-41.375,13.625,0
10520,19.3125,-43.3125,12,0
10540,23.6875,-45.625,10.125,0
10560,27,-47.4375,7.25,0
10580,17.6875,-49.875,4.3125,0
10600,8.25,-52.5,5.9375,0
10620,7.1875,-53.4375,7.5,0
10640,5.375,-54.5625,3.1875,0
10660,-0.8125,-53.375,2,0
10680,-4.75,-55.125,0.5625,0
10700,-6,-53.75,-2.125,0
10720,-9.4375,-52.5,-4.3125,0
10740,-10.3125,-50.9375,-6.4375,0
10760,-12.3125,-50.9375,-10.625,0
10780,-12.75,-50.8125,-14.375,0
10800,-10.4375,-50.0625,-18.75,0
10820,-10.9375,-48.875,-22.0625,0
10840,-11.75,-46.625,-23.4375,0
10860,-12.875,-46.0625,-24.8125,0
10880,-12.25,-44.75,-28.6875,0
10900,-12.0625,-45.1875,-31.6875,0
10920,-9.5,-44.875,-33.5625,0
10940,-12.375,-43.6875,-33.8125,0
10960,-15.4375,-43.3125,-32.75,0
10980,-17.375,-44.1875,-32.875,0
11000,-13,-47.5625,-35.5,0
11020,-9.75,-48.125,-34.5,0
11040,-8.75,-45.875,-31.75,0
11060,-13.3125,-42.1875,-27.9375,0
11080,-15.8125,-38.5625,-27.25,0
11100,-15.8125,-35.375,-30.25,0
11120,-13.375,-33.3125,-33,0
11140,-12.5625,-30.5,-31.8125,0
11160,-13.3125,-27.25,-31.0625,0
11180,-14.375,-21.375,-31.8125,0
11200,-18.3125,-18.8125,-30.6875,0
11220,-18.875,-17.5625,-27.75,0
11240,-18.125,-15.75,-28.375,0
11260,-15.875,-13.5625,-28.4375,0
11280,-16.875,-11.0625,-23.4375,0
11300,-20.9375,-7.4375,-17.625,0
11320,-20.6875,-3.3125,-14.375,0
11340,-14.8125,-2.375,-10.5625,0
11360,-11.125,-2.25,-7.1875,0
11380,-14.125,0.5625,-4.6875,0
11400,-20.125,3.4375,-5,0
11420,-23.5,4.1875,-3.625,0
11440,-10.3125,7.5625,-0.9375,0
11460,-0.0625,3.1875,0.3125,0
11480,-0.25,4.9375,3.1875,0
11500,-7.5625,6.8125,-0.9375,0
11520,-8.0625,8.0625,-0.375,0
11540,-0.9375,7.8125,-0.0625,0
11560,9.25,6.375,0.0625,0
11580,11.5625,4.125,0,0
11600,8.75,4.1875,2.3125,0
11620,3.875,5,6.3125,0
11640,4.9375,4.5,10.25,0
11660,5.875,4.125,11.125,0
11680,5.375,5.6875,10.8125,0
11700,4,8.0625,9.625,0
11720,0.6875,9.375,8.625,2001
11740,-1.8125,10.8125,7.8125,0
11760,-0.5625,10.4375,5.625,0
11780,1,9,3,0
11800,0.5,8.5,2.25,0
11820,0.5625,8.25,0.1875,0
11840,-0.875,7.5625,-1.375,0
11860,-0.6875,6.9375,-2.1875,0
11880,-0.8125,6.0625,-0.875,0
11900,-1.5625,6.125,-0.25,0
11920,-4.0625,7.75,1.375,0
11940,-2.9375,6.125,3.125,0
11960,-2.1875,1.25,5.0625,0
11980,-2.5625,-0.125,7.0625,0
12000,-0.75,-0.3125,7.125,0
12020,-0.1875,-2.4375,6.375,0
12040,-1.3125,-5.8125,7.375,0
12060,-0.4375,-7.375,9.375,0
12080,0.0625,-9.375,11.75,0
12100,-0.0625,-10.5,14.375,0
12120,-2.5,-10.6875,19.375,0
12140,-3.6875,-11.25,26.4375,0
12160,0.4375,-13.3125,35.4375,0
12180,6.9375,-13.125,48.0625,0
12200,9.5625,-13.75,62.5,0
12220,12.6875,-14.125,70.375,0
12240,16.9375,-10.75,75.875,0
12260,23.8125,-6.625,87.6875,0
12280,35.6875,-6.875,90.5625,0
12300,40.375,-13,82.75,0
12320,34.875,-14.0625,81.4375,0
12340,31.3125,-9.4375,80.75,0
12360,46.5625,-6.625,75.4375,0
12380,60.8125,-5.9375,70.5,0
12400,63.125,-6.5625,75.5625,0
12420,53.9375,1.0625,73.4375,0
12440,59.6875,13.375,67.125,0
12460,60.125,14.6875,71.3125,0
12480,48.4375,13.5,72.5625,0
12500,48.1875,23.6875,63.6875,0
12520,49.25,31.375,55.4375,0
12540,43.9375,32.9375,60.75,0
12560,38.5,33,63.625,0
12580,44.5625,37,60.5625,0
12600,51.9375,41.3125,56.9375,0
12620,44.0625,43.75,55.5,0
12640,32.5625,43.9375,50.125,0
12660,28.0625,41.3125,45.5625,0
12680,23.0625,36.375,37.75,0
12700,18.5625,32.4375,29,0
12720,19.1875,25.4375,23.5625,0
12740,18.75,17.4375,19.0625,0
12760,15.375,12.75,15.875,0
12770,13.125,10.75,11.375,0
12790,7.6875,5.8125,10.75,0
12810,-0.875,2,11.75,2000
12830,-3.3125,-0.6875,12.6875,0
12850,2.6875,-4.5,9.75,0
12870,-0.875,-6.125,8.4375,0
12890,-6.375,-4.6875,6.875,0
12910,-7.9375,-6.9375,10.4375,0
12930,-10.125,-4.75,12.9375,0
12950,-4.25,-3.8125,9.375,0
12970,-3.25,-6.625,8.5625,0
12990,1.875,-6.4375,8.1875,0
13010,5.1875,-6.5625,7.25,0
13030,3.75,-6.6875,5.25,0
13050,-5.875,-10,4.5,0
13070,-8.5625,-12.9375,8.5,0
13090,-10.6875,-14.8125,7.6875,0
13110,-9.375,-13.375,6.5625,0
13130,-8.3125,-14.0625,2.625,0
13150,-6.1875,-18.1875,0.0625,0
13170,-3.0625,-21.25,-0.9375,0
13190,-3.0625,-24.0625,-2.8125,0
13210,-3.0625,-25.8125,-5.625,0
13230,-6,-26,-7.75,0
13250,-5.25,-28.375,-8.8125,0
13270,0.1875,-30.625,-10.8125,0
13290,0.25,-31.875,-14,0
13310,-1.375,-33.75,-13.6875,0
13330,-0.0625,-34.875,-14.9375,0
13350,-2.375,-36.1875,-16.875,0
13370,-2,-34.625,-18.625,0
13390,1.4375,-32.3125,-24.1875,0
13410,3.4375,-29.3125,-24.125,0
13430,2.4375,-31.5,-18.625,0
13450,4.375,-30.8125,-19.0625,0
13470,4.6875,-26.875,-24.1875,0
13490,0.75,-22.875,-29.25,0
13510,-7,-18.9375,-26.375,0
13530,-2.25,-13.9375,-31.6875,0
13550,-1.125,-12.0625,-33.6875,0
13570,-0.1875,-9.125,-36.5,0
13590,-2.125,-5.9375,-36.625,0
13610,-14.125,-4.625,-35.25,0
13630,-21.4375,2.0625,-29.25,0
13650,-18.6875,11.875,-26.8125,0
13670,-21.9375,9.625,-19.4375,0
13690,-23.25,9.5,-20.375,0
13710,-17.0625,10.8125,-24.875,0
13730,-20.3125,11.375,-25.875,0
13750,-21.3125,18.3125,-30.3125,0
13770,-24.875,22.875,-31.125,0
13790,-24.5,26.0625,-32.4375,0
13810,-21.625,26.0625,-30.375,0
13830,-19.0625,27.125,-30,0
13850,-23.125,30.4375,-29.375,0
13870,-32.0625,36.75,-27.875,0
13890,-32.125,38,-24.1875,0
13910,-29.625,37.0625,-16.75,0
13930,-30.1875,39.6875,-10.1875,0
13950,-31.3125,42.375,-5.875,0
13970,-34.875,48.5625,-0.9375,0
13990,-34.4375,52.75,0.9375,0
14010,-33.375,52.9375,3,0
14030,-30.75,53.25,0.3125,0
14050,-28.3125,53.75,-3.4375,0
14070,-29.4375,53.3125,-6.9375,0
14090,-29.4375,57.3125,-12.75,0
14110,-28.5625,59.875,-14.375,0
14130,-28.125,61,-16,0
14150,-24.625,61.0625,-19.25,0
14170,-21.625,60.4375,-21,0
14190,-20.3125,61.5,-23.375,0
14210,-20.5625,59.875,-27.4375,0
14230,-20.375,57.25,-31.1875,0
14250,-20.4375,57.6875,-30.5625,0
14270,-20.5625,62.5625,-22.6875,0
14290,-11.625,58.5625,-21.625,0
14310,-5.625,50.1875,-19.0625,0
14330,-4.875,48.3125,-17.4375,0
14350,-10.6875,54.125,-9.4375,0
14370,-14.5625,51.25,0.1875,0
14390,-1.9375,45,3.75,0
14410,6.5625,40.5,2.4375,0
14430,7,42.75,3.6875,0
14450,-6.6875,45,12.25,0
14470,-3.25,42.5,11.375,0
14490,2.5,37.625,7.8125,0
14510,9.5,33.875,5.4375,0
14530,7.375,31.3125,3.3125,0
14550,0.4375,28.3125,6.9375,0
14570,-4.25,27.5625,10.3125,0
14590,3.9375,27.5625,8.875,0
14610,2.8125,27.25,13.25,0
14630,-1.6875,24.5,19.25,0
14650,2.9375,21.0625,22.8125,0
14670,10.1875,19.75,22,0
14690,11.4375,20.8125,16.4375,0
14710,1.3125,20,15.6875,0
14720,-0.25,14.8125,16.5625,0
14740,14.9375,9.5,19.9375,0
14760,24.75,4.1875,18.1875,0
14780,20.9375,2.25,11.8125,0
14800,11.625,0.5625,6.0625,0
14820,9.5,-2.25,4.9375,0
14840,17,-7.0625,9.0625,0
14860,21.8125,-10.1875,12.9375,0
14880,15.5625,-12,14.9375,0
14900,10.3125,-13.75,13.375,0
14920,7.6875,-15.3125,13.0625,0
14940,7.875,-18,17.3125,0
14960,9.875,-20.625,21.0625,0
14980,8.375,-20.0625,20.6875,0
15000,3.25,-18.8125,17.9375,0
15020,0.125,-18.25,19.125,0
15040,2.6875,-19.4375,27.875,0
15060,6.1875,-20.5625,29.875,0
15080,10.125,-23.0625,24.0625,0
15100,2.875,-22.5625,18.375,0
15120,-5.75,-22.4375,17.9375,0
15140,-4.5625,-22.3125,20,0
15160,3.4375,-22.5625,18.25,0
15180,9.6875,-23.125,13.25,0
15200,8.9375,-21.6875,11.25,0
15220,2.9375,-21.4375,12.1875,0
15240,2.5,-23.25,14.125,0
15260,7.4375,-24.3125,15.5,0
15280,7.5625,-26.25,15.1875,0
15300,1,-27.125,16.1875,0
15320,-3.375,-30.9375,19.25,0
15340,1.1875,-34.75,21.0625,0
15360,7.5625,-33.0625,19.1875,0
15380,6.75,-32.3125,14.4375,0
15400,8.5,-34.3125,11.0625,0
15420,9.75,-35.375,7.6875,0
15440,9.6875,-38.3125,3.75,0
15460,9.125,-40.1875,0.25,0
15480,7.6875,-42.8125,-1.1875,0
15500,6.5,-43.5625,0.3125,0
15520,6.3125,-43.8125,0.8125,0
15540,6.875,-44.25,0.375,0
15560,5.25,-44.3125,0.8125,0
15580,2.1875,-45.6875,2.125,0
15600,2.4375,-46.1875,3.3125,0
15620,0.75,-47.5,3.25,0
15640,-2.1875,-48.5,0.875,0
15660,-5.75,-48.5625,0.4375,0
15680,-8.5,-49,2.5,0
15700,-4.75,-48.1875,1.3125,0
15720,-0.5,-45.625,-0.6875,0
15740,-4.75,-46.3125,-1.4375,0
15760,-14.5625,-48.1875,5.3125,0
15780,-14.4375,-48.4375,10.3125,0
15800,-4.875,-48.0625,9.4375,0
15820,-9.5625,-48.375,8.1875,0
15840,-18.375,-46.25,5.375,0
15860,-16.9375,-43.5,2.625,0
15880,-8.25,-43.5625,-0.8125,0
15900,-3.625,-44.1875,-4.9375,0
15920,-5,-42.375,-7.3125,0
15940,-5.5625,-39.125,-11.9375,0
15960,-5,-37.1875,-16.75,0
15980,-5.125,-37.5625,-18.6875,0
16000,-1.6875,-35.6875,-21.5,0
16020,-2.8125,-33.4375,-22.5,0
16040,-2.625,-29.75,-24,0
16060,-4,-28.0625,-22.375,0
16080,-3.375,-24.875,-20.8125,0
16100,-3,-22.8125,-20.8125,0
16120,-7.0625,-20.9375,-18.9375,0
16140,-7.875,-18.125,-17.25,0
16160,-6.875,-14.5625,-11,0
16180,-8.125,-10.5,-9.8125,0
16200,-11.5625,-7.25,-8.875,0
16220,-7.625,-5.9375,-10.5,0
16240,-9,-3.125,-11.0625,0
16260,-9.5625,0,-12.875,0
16280,-9.6875,3.25,-12.3125,0
16300,-11.8125,5.1875,-14.9375,0
16320,-13.125,9.375,-16.9375,0
16340,-13.6875,11.4375,-15.6875,0
16360,-13.0625,11.3125,-18.125,0
16380,-11.875,10.875,-20.9375,0
16400,-13.6875,13.125,-25.4375,0
16420,-15.0625,17.375,-26.375,0
16440,-15.125,19.625,-23.4375,0
16460,-18.9375,20.5,-24.75,0
16480,-19.8125,23.75,-27.8125,0
16500,-20.1875,24.1875,-23.6875,0
16520,-17.1875,22.6875,-20.1875,0
16540,-20,25,-23.125,0
16560,-26.5,26.9375,-27.5625,0
16580,-30.5,27.5,-27.6875,0
16600,-24.25,26.875,-25.8125,0
16620,-18.9375,25.875,-29.625,0
16640,-20.875,27.125,-35.1875,0
16660,-29.25,29.6875,-37.75,0
16680,-32.5625,28.75,-35.25,0
16700,-32.3125,27.125,-32.0625,0
16720,-34.75,27.625,-30.375,0
16740,-41.0625,34.25,-28.625,0
16760,-34.625,39,-23.875,0
16780,-26.625,40.0625,-15.8125,0
16800,-27.375,43.9375,-13.25,0
16820,-35.25,46.5,-15,0
16840,-38.875,46.125,-14.375,0
16860,-32.875,44.625,-12.6875,0
16880,-27.9375,43,-12.0625,0
16900,-30.875,43.1875,-12.375,0
16920,-39.3125,44.5625,-11.0625,0
16940,-34.625,48.5,-9.3125,0
16960,-28.0625,50,-6.25,0
16980,-26.6875,53,-5.9375,0
17000,-25.1875,53,-4.9375,0
17020,-24.125,50.125,-0.125,0
17040,-17.6875,47.1875,-1.125,0
17060,-14.25,44.625,-2.25,0
17080,-18.5625,43.375,0.75,0
17100,-26.125,39.625,5.75,0
17120,-15.3125,35.6875,5.5625,0
17140,-6.5,38.1875,6.0625,0
17160,-1.375,40.4375,6.6875,0
17180,0.625,43.25,14.3125,0
17200,-5.0625,44.3125,16.25,0
17220,-13.75,46.6875,16.625,0
17240,-10.625,46.5,20.4375,0
17260,1.9375,44.125,22.875,0
17280,8.375,40.0625,24.625,0
17300,9.875,39.625,23.4375,0
17320,2.875,37.625,24.125,0
17340,-0.9375,32.875,23.875,0
17360,1.875,28.3125,23.4375,0
17380,3.375,24.0625,24.1875,0
17400,4.6875,19.6875,23.9375,0
17420,9.25,14.25,23.6875,0
17440,9.5,10.9375,24.1875,0
17460,9.8125,8.375,23.625,0
17480,9.375,4.625,24,0
17500,8.1875,0.75,25.25,0
17520,7.3125,-0.25,25.25,0
17540,8.375,-1.875,25.125,0
17560,10.3125,-4.25,24.1875,0
17580,14.9375,-5.4375,25.875,0
17600,16.75,-7.375,28.4375,0
17620,17.5,-9.6875,30.125,0
17640,12.875,-10.8125,28.625,0
17660,15.875,-13.25,29.3125,0
17680,18.1875,-14.5625,29,0
17700,17.5625,-15.375,28.375,0
17720,17.5625,-17.875,27.5,0
17740,18.25,-19.8125,26.8125,0
17760,21.25,-21.1875,25.1875,0
17780,20.75,-22.875,24.125,0
17800,18.0625,-24.5,25.6875,0
17820,15.8125,-26.5,30.0625,0
17840,9.6875,-28.8125,33.875,0
17860,8.8125,-30.4375,31.1875,0
17880,16.0625,-22.3125,25.25,0
17900,17.9375,-23.4375,17.5,0
17920,14.875,-28.6875,13.5625,0
17940,18,-31.9375,15.25,0
17960,21,-33.9375,11.6875,0
17980,23.75,-34.8125,7.9375,0
18000,16.125,-35.8125,9.875,0
18020,12.25,-37.4375,12,0
18040,12.875,-38.4375,12.0625,0
18060,8.6875,-40.3125,12.375,0
18080,1,-43.625,10.75,0
18100,-0.125,-48.375,10.6875,0
18120,-5.1875,-52.9375,9.3125,0
18140,-4.125,-56.8125,7.4375,0
18150,-4.875,-61,4.6875,0
18170,-8,-62.375,0.625,0
18190,-11.375,-62.1875,-2.3125,0
18210,-11.6875,-64.0625,-3.5,0
18230,-8.5625,-64.5625,-3.5,0
18250,-10.625,-64.4375,-5.5,0
18270,-14.375,-63.625,-6.625,0
18290,-17.375,-60.5625,-7.3125,0
18310,-17.375,-58.25,-9.125,0
18330,-12.5625,-56.8125,-9.75,0
18350,-8.4375,-56.375,-11.5,0
18370,-5.0625,-52.75,-13.4375,0
18390,-7.0625,-51.4375,-14.4375,0
18410,-10.1875,-47.9375,-17,0
18430,-12,-46.375,-20.8125,0
18450,-10.6875,-45.375,-21.5625,0
18470,-12.875,-44.1875,-21.8125,0
18490,-14.1875,-43.25,-23.75,0
18510,-10.9375,-39.75,-25.3125,0
18530,-10.0625,-36.25,-26.8125,0
18550,-11.5,-33.8125,-27.6875,0
18570,-11.25,-30.1875,-27.875,0
18590,-9.875,-28.0625,-28.9375,0
18610,-11.25,-25.625,-30.75,0
18630,-12.5,-23,-30.625,0
18650,-14.5,-19.5,-29.125,0
18670,-14.1875,-13.5,-29.25,0
18690,-15.4375,-10.4375,-26,0
18710,-13.875,-7.6875,-24.1875,0
18730,-14.1875,-3.875,-27.875,0
18750,-16.3125,-0.25,-30,0
18770,-11.8125,2.0625,-34.0625,0
18790,-11.5,4.3125,-37,0
18810,-16.9375,7.0625,-36.4375,0
18830,-13.375,9.625,-37.125,0
18850,-11.875,11.5625,-39.375,0
18870,-21.5625,16.4375,-39.625,0
18890,-29.25,21.875,-36.4375,0
18910,-34.25,26.3125,-30.375,0
18930,-33.5625,26.875,-26.75,0
18950,-34,25.5625,-24.1875,0
18970,-39.3125,26.75,-22.1875,0
18990,-39.75,30.5,-18.5625,0
19010,-39,34.0625,-12.5625,0
19030,-34.625,34.0625,-13.4375,0
19050,-35.125,34,-13.0625,0
19070,-34.9375,36.25,-17.4375,0
19090,-40,41.0625,-20.8125,0
19110,-40.0625,44.0625,-19.6875,0
19130,-32.875,42.875,-17.75,0
19150,-27.6875,40.4375,-17.25,0
19170,-27.25,43.1875,-19,0
19190,-27.1875,47.625,-20.4375,0
19210,-30.875,48.875,-14.625,0
19230,-28.6875,49.625,-6.4375,0
19250,-24.8125,50.5,0.0625,0
19270,-21.9375,51.5625,0.8125,0
19290,-14.375,52.0625,-1.5625,0
19310,-13.1875,49.75,-0.1875,0
19330,-13.875,51.5625,-2.9375,0
19350,-13.5,53.8125,-5.25,0
19370,-12.875,53.6875,-3.875,0
19390,-7.3125,52.1875,1.5625,0
19410,-7.75,50.8125,8.0625,0
19430,-9.5,48.125,10.3125,0
19450,-5.9375,46,14.125,0
19470,-2.125,43.625,17.3125,0
19490,-1.8125,43.3125,22.625,0
19510,-9.4375,43.375,27.5625,0
19530,-5.3125,39.875,31.5,0
19550,6.75,32.8125,35.4375,0
19570,8.75,29.8125,31.8125,0
19590,0.5,30.625,25,0
19610,-8.1875,31.125,24.25,0
19640,-8.9375,24.4375,33,0
19660,5.125,17.0625,35,0
19680,15.1875,12.875,31.0625,0
19700,10.6875,16.4375,27,0
19720,-3.125,18.3125,27.0625,0
19740,-10.9375,14.625,30.625,0
19760,1.75,7.875,35.5625,0
19780,17.5,2.3125,35.1875,0
19800,18.8125,3.625,32.5625,0
19820,7.375,5.5625,29.5625,0
19840,-2.1875,2.5625,28.625,0
19860,7.9375,-2.8125,30,0
19880,23.75,-5.8125,28,0
19900,23.875,-5.5,23.125,0
19930,14.375,-6.625,19.125,0
19960,28.25,-12.125,18.625,0
19980,28.8125,-12.75,15.0625,0
19980,20.25,-11.9375,14.4375,0
20000,14.5,-14.0625,14.625,0
20020,20.8125,-16.6875,15.625,0
20040,24.375,-18.3125,17.0625,0
20060,19.5625,-18.0625,15,0
20070,12.3125,-18.375,15.3125,0
20090,12.25,-19.0625,16.625,0
20110,17,-20.9375,16.5625,0
20130,19.375,-23.5,15.25,0
20150,14.1875,-24.4375,14.5,0
20170,8.3125,-25.3125,14.25,0
20190,5.75,-26.125,13.3125,0
20210,10.125,-27.75,12.8125,0
20230,11.8125,-28.625,11.9375,0
20250,9.6875,-28.1875,10.6875,0
20270,9.625,-28.625,10,0
20290,12.375,-29.5625,8.4375,0
20310,10.5,-30.4375,5.375,0
20330,8.1875,-33.125,5.4375,0
20350,7.3125,-35.1875,4.75,0
20370,4.875,-37.4375,2.75,0
20390,1.25,-39,0.9375,0
20410,-1.25,-39.1875,0.875,0
20430,-2.4375,-39.0625,1,0
20450,-3.625,-39.3125,0.1875,0
20470,-3.75,-39.375,-0.0625,0
20490,-4.0625,-40.4375,-2.6875,0
20510,-6.75,-42.3125,-4.0625,0
20530,-7.9375,-42.1875,-3.25,0
20550,-4.375,-40.9375,-3.625,0
20570,-6.125,-41,-5.1875,0
20590,-8.125,-41.0625,-6.5,0
20610,-8.8125,-40.3125,-7.875,0
20630,-9,-38.5625,-9,0
20650,-9.5625,-40.1875,-10.625,0
20670,-8.5625,-40.6875,-12.5,0
20690,-9.375,-40.125,-13.5,0
20710,-7.8125,-39,-13.25,0
20730,0.8125,-39.1875,-13.8125,0
20750,2.8125,-42.25,-17.125,0
20770,-1.625,-44.5,-22.625,0
20790,-8.125,-45.75,-26.125,0
20810,-9.5625,-44.375,-25.5,0
20830,-8.75,-43.75,-25.75,0
20850,-9,-43.125,-27.1875,0
20870,-7.875,-42.6875,-28.5,0
20890,-11.8125,-39.625,-28.75,0
20910,-13.875,-35.6875,-27.625,0
20920,-12.75,-34.375,-28.875,0
20940,-13.6875,-32.75,-31.25,0
20960,-15.3125,-30.8125,-33.3125,0
20980,-13.8125,-29,-32.5,0
21000,-12.5625,-27,-32.5,0
21020,-11.25,-24.625,-34.6875,0
21040,-13.25,-21.625,-34,0
21060,-13.4375,-18.125,-31.3125,0
21080,-12.3125,-13.625,-29.8125,0
21100,-11.25,-9.8125,-25.9375,0
21120,-6.25,-6.25,-23.375,0
21140,-12.625,-4.0625,-19.75,0
21160,-15.625,-1.6875,-15.8125,0
21180,-17.125,1.25,-10.8125,2001
21200,-13.375,2.625,-6.875,0
21220,-12.125,4.25,-2.625,0
21240,-11.3125,5.75,1.3125,0
21260,-12.0625,7.3125,0.8125,0
21280,-12.3125,8.5625,-2.0625,0
21300,-7.5,9.125,-3.9375,0
21320,-6.125,7.5,-3.75,0
21340,-3.1875,4.9375,-4.625,0
21360,-8.5625,4.125,-6.8125,0
21380,-10.125,4.75,-7.4375,0
21400,-11.9375,2.5625,-4.5,0
21420,-12.5625,-2.125,2.3125,0
21440,-6.6875,-3.6875,3.5,0
21460,-4.5625,-3.375,1.1875,0
21480,-1.6875,-4.0625,2.25,0
21500,0.25,-4.625,6,0
21520,-1.625,-7,8.75,0
21540,-1,-7.875,12.0625,0
21560,-0.875,-10.8125,15.0625,0
21580,-1.625,-14.8125,20.8125,0
21600,-0.5,-17.9375,28.6875,0
21620,2.375,-22,40.75,0
21640,-0.625,-22.5,52.125,0
21660,4.3125,-20,57.5625,0
21680,7.125,-14.75,63.9375,0
21700,18.3125,-8.875,74.5,0
21720,34.9375,-3.9375,84.125,0
21740,36.1875,-3.6875,88.1875,0
21760,36.6875,2.9375,88.25,0
21780,46.6875,7.625,89.25,0
21800,53.9375,6.5625,90.4375,0
21820,51.75,8.3125,85.5,0
21840,53.625,16.125,85.1875,0
21860,63.5,19.625,80.9375,0
21880,64.6875,20.75,75.875,0
21900,73.6875,27.0625,69.5,0
21920,78.9375,31.125,64.625,0
21940,70.5,34.125,56.875,0
21960,67.5,40.25,43.1875,0
21980,60.4375,37.9375,39.6875,0
22000,47.5625,34.125,40.375,0
22020,38.4375,34.4375,37.0625,0
22040,40.125,32.4375,32.6875,0
22060,32.3125,29.4375,30.9375,0
22080,23.875,28.25,28.4375,0
22100,20.625,25.25,26.6875,0
22120,22.75,19.375,26.625,0
22140,10.8125,14.1875,24.125,0
22160,4,12.25,21.5625,0
22180,4.75,7.5,21.875,0
22200,-1.9375,7.625,22.0625,0
22220,-8.4375,10.8125,21.25,0
22240,-11.4375,8.125,23.3125,0
22260,-8.25,8.4375,23.4375,0
22280,-5.5,5.8125,20.125,0
22300,-4,7.0625,17.75,0
22320,-3.9375,8.4375,15.4375,0
22340,-2.1875,3.8125,13.1875,0
22360,-0.75,2.125,14.1875,0
22380,-1.0625,2.1875,13.375,0
22400,-3.0625,2.25,10.8125,0
22420,-4.375,2.8125,9,0
22440,-6.1875,2.5625,6.4375,0
22460,-2.875,1.375,5.4375,0
22480,-0.875,-0.75,4.9375,0
22500,1.4375,-3.875,5.0625,0
22520,4.4375,-5.875,2.4375,0
22540,0.5625,-5.25,2,0
22560,-0.1875,-7.0625,1.9375,0
22580,-3.3125,-10.4375,0.625,0
22600,-0.5,-12.6875,2.25,0
22620,0.875,-14.125,2.0625,0
22640,1.6875,-15.75,-1.5625,0
22660,-0.1875,-17.9375,-3.0625,0
22680,-2.25,-21.625,-6.0625,0
22700,-1.8125,-24.9375,-4.8125,0
22720,-0.375,-25.3125,-10.625,0
22740,0.9375,-26.6875,-15.3125,0
22760,-0.625,-27.625,-16.5,0
22780,-1.5,-28.1875,-18.125,0
22800,-1.75,-27.375,-21.0625,0
22820,-2.4375,-27.25,-24.4375,0
22840,-1,-28.0625,-24.3125,0
22860,-3.6875,-28.125,-22.1875,0
22880,-5,-30.25,-18.875,0
22900,-8.5,-29,-19.25,0
22920,-14.375,-27.1875,-17.375,0
22940,-14.1875,-27.25,-12.4375,0
22960,-15.3125,-26.375,-12.4375,0
22980,-15.75,-24.6875,-15.0625,0
23000,-13.75,-23.375,-14.875,0
23020,-19.25,-21.25,-14.5625,0
23040,-18.375,-20.3125,-18,0
23060,-20,-19.6875,-21.5,0
23080,-23.875,-14.3125,-21.375,0
23100,-20.9375,-14.5,-13.625,0
23120,-20.5,-13.5625,-11.1875,0
23140,-20.0625,-11.375,-16.9375,0
23160,-25.5,-8.5625,-15.9375,0
23180,-26.375,-4.9375,-12.8125,0
23200,-24.125,-4.125,-13.5,0
23220,-19.0625,-3.5625,-15.9375,0
23240,-16.625,0,-18.125,0
23260,-15.4375,1.875,-17.5,0
23280,-13.625,4.875,-19.0625,0
23300,-10.6875,8.9375,-17.375,0
23320,-12.0625,12.5,-11.375,0
23340,-11.5625,15.4375,-2.4375,0
23360,-8.9375,17.125,8.4375,0
23380,-1.4375,20.25,21.4375,0
23400,3.3125,24.0625,30.8125,0
23420,12.875,29,35.9375,0
23440,10.375,29.3125,42.1875,0
23460,5.75,30.75,53.4375,0
23480,12.1875,32,59.3125,0
23490,26.875,29.5625,53.3125,0
23510,23.9375,30.4375,44,0
23530,17.125,32.4375,35.625,0
23550,4.375,31.6875,37.6875,0
23570,17.5,31.8125,35.3125,0
23590,33.0625,29,28.125,0
23610,28.8125,30.4375,19.3125,0
23630,11,29.375,16.625,0
23650,5.6875,28.5625,13.9375,0
23670,12.1875,25.4375,13.625,0
23690,18.4375,20.625,10.5625,0
23710,20,19.1875,8.25,0
23730,12,18.1875,9.6875,0
23750,7.25,14.4375,6.875,0
23770,9,12.4375,5.75,0
23790,9.9375,9.375,3.625,0
23810,4.8125,9.6875,2.875,0
23830,-0.75,6.625,3.875,0
23850,-3.375,4.1875,5.3125,0
23870,-5.3125,1.8125,4.375,0
23890,-3.3125,-1.0625,5.3125,0
23910,-2.125,-3,6.1875,0
23930,-2.375,-5.125,4.625,0
23950,-7.0625,-10.125,3.25,0
23970,-3.875,-14.6875,3.0625,0
23990,-2,-19.0625,1.5,0
24010,-0.625,-20.4375,1.75,0
24030,-5.6875,-21.625,-0.9375,0
24050,-6,-21,-3.25,0
24070,-0.5,-23.5,-3.125,0
24090,6.125,-24.625,-3.6875,0
24110,2.25,-26.125,-6,0
24130,-1.125,-28.3125,-9.0625,0
24150,-1.4375,-31.25,-11.375,0
24170,2.375,-33.6875,-14.125,0
24190,2.6875,-36.9375,-15.4375,0
24210,1.25,-37.8125,-17.5,0
24230,-2.8125,-37.25,-19.125,0
24250,-3.9375,-36.6875,-19.25,0
24270,-0.375,-35.6875,-18.3125,0
24290,-1.25,-34,-20.25,0
24310,-6.625,-33.125,-21.75,0
24330,-5.5,-30.5625,-23.875,0
24350,-9.4375,-26.625,-25.4375,0
24370,-8,-24.375,-21.5,0
24390,-4,-22.8125,-17.875,0
24410,-6.4375,-20.125,-18.5,0
24430,-8.3125,-17.6875,-16.25,0
24450,-8.5,-14.5,-19.4375,0
24470,-10.5,-13.1875,-23.1875,0
24490,-13.8125,-12.625,-21.1875,0
24510,-12.6875,-10.0625,-21.125,0
24530,-12.9375,-6.6875,-22.125,0
24550,-13.75,-1.75,-23.8125,0
24570,-17.625,3.25,-22.25,0
24590,-15.8125,4.8125,-23.1875,0
24610,-15.0625,7.125,-21.9375,0
24630,-16.1875,12,-18.875,0
24650,-17.1875,12.125,-19.625,0
24670,-16.75,10.625,-19.1875,0
24690,-17.9375,11.9375,-17.75,0
24710,-15.5,10.0625,-13.9375,0
24730,-8.9375,5.875,-6.0625,0
24750,-1.1875,6.875,0.125,0
24750,2.6875,13.6875,3.375,0
24770,0.125,22.875,10.75,0
24810,4.8125,29.8125,35.875,0
24830,19.3125,33.6875,40.25,0
24850,25.4375,37.875,42.5,0
24870,20.5,40.75,47.1875,0
24890,12.125,38.1875,52.75,0
24910,21.25,38.5,48.8125,0
24930,33.1875,37.5625,40.25,0
24950,25.6875,39.0625,37.125,0
24970,13.125,41.1875,34.1875,0
24990,12.375,32.6875,26,0
25010,23.875,27.75,21.625,0
25030,25.9375,23.5,19.25,0
25050,16.5625,23.25,18,0
25070,1.875,21.375,13.4375,0
25090,3.3125,17.0625,5.9375,0
25110,10.9375,11.5625,4.6875,0
25130,12.25,9.8125,5,0
25150,9.25,6.875,2.75,0
25170,-2.5,6.75,4.125,0
25190,-3.0625,6.25,3.625,0
25210,4.0625,2.6875,3.625,0
25230,3.75,-0.0625,4.125,0
25250,-5,-1.0625,6.3125,2000
25270,-11.5,-2.4375,7.1875,0
25290,-10.625,1.6875,7.0625,0
25310,-11.3125,0.8125,5.5625,0
25330,-10.6875,-1.5625,8.9375,0
25350,-7.375,0.625,14.25,0
25370,-7.25,5.25,8.0625,0
25390,-5.375,5.9375,1.8125,0
25410,-3.625,2.25,4.25,0
25430,-2.625,1.3125,5.3125,0
25450,-1.5625,3.875,2.25,0
25460,-2.875,3,-0.125,0
25480,-1.4375,0.3125,1.75,0
25500,5,0.4375,2.0625,0
25520,7.3125,-1.5625,-1.5,0
25540,14.3125,-4.75,-1.9375,0
25560,15.0625,-4.3125,-3.8125,0
25580,8.8125,-6.9375,-4.75,0
25600,-3.875,-9.3125,-4.875,0
25620,-5.5625,-10.625,-4.6875,0
25640,-3.9375,-12.4375,-5.25,0
25660,0.1875,-15.75,-5.9375,0
25680,-3.75,-18.875,-6.5625,0
25700,-5.4375,-18.9375,-5.875,0
25720,-4.375,-20.3125,-6.1875,0
25740,-4.9375,-20.9375,-5.5625,0
25760,-5.0625,-21.4375,-7.625,0
25780,-5.25,-22.375,-7.0625,0
25800,-3.875,-21,-8.4375,0
25820,-6.8125,-21.25,-10.25,0
25840,-6,-21.3125,-8.8125,0
25860,-2.125,-20.3125,-8.9375,0
25880,-1.1875,-17.25,-10.8125,0
25900,-4.75,-12.4375,-11.125,0
25920,-4.6875,-8.4375,-7.75,0
25940,-5.9375,-0.8125,-3.5625,0
25960,-2.8125,7.3125,0,0
25980,-2.25,14.3125,6.625,0
26000,-3.5625,19.6875,13.25,0
26020,2.5,24.75,17.9375,0
26040,7.625,29.1875,18.0625,0
26060,5.8125,28.5625,18.9375,0
26080,9.5625,27.625,19.0625,0
26100,17.375,23.5625,14.125,0
26120,15.4375,16.9375,10.125,0
26140,14.5,12.0625,7.75,0
26160,12.25,4.8125,3.4375,0
26180,8.9375,0.3125,0.625,0
26200,6.25,-3.5,0.625,0
26220,6.125,-5.875,0.9375,0
26240,4.25,-6.5,0.125,0
26260,2.4375,-7.8125,-1.8125,0
26280,-2.625,-9.375,-0.875,0
26300,-2.125,-8.125,-1.4375,0
26320,-0.875,-8,-1.75,0
26340,-4.1875,-5.8125,-1.375,0
26360,-5.25,-4.25,-0.8125,0
26380,-2.875,-3.1875,0.75,0
26400,0.75,-2.6875,0.625,0
26420,3.1875,-3.3125,-1.125,0
26440,1.8125,-5.75,-2.9375,0
26460,1.3125,-6.625,-3.625,0
26480,0.125,-8,-2.625,0
26500,0.8125,-9.6875,-2.9375,0
26520,2,-11.875,-4,0
26540,2.8125,-13.6875,-3.25,0
26560,0.8125,-14.9375,-3.0625,0
26580,-0.375,-15.4375,-3.25,0
26600,0.6875,-18.375,-4.9375,0
26620,1.625,-19.875,-6.125,0
26640,-0.6875,-20.6875,-7.625,0
26660,-3.875,-21.6875,-6.8125,0
26680,-1.5625,-21.5625,-7.875,0
26700,-0.875,-21.875,-8.5,0
26720,-2.375,-23.0625,-9.5,0
26740,-4.1875,-22.9375,-9.8125,0
26760,-3.375,-20.875,-10.8125,0
26780,-3.25,-19.375,-8.75,0
26800,-5.5625,-18.5,-8.125,0
26820,-3.625,-17.75,-10.0625,0
26840,-5.25,-17.125,-13.125,0
26860,-7.3125,-14.5,-14.6875,0
26880,-8.5625,-12.4375,-13.9375,0
26900,-7.6875,-10.5625,-12.6875,0
26920,-5.0625,-9.125,-14.0625,0
26940,-2.8125,-7.8125,-14.5,0
26960,-3.25,-7.4375,-14.6875,0
26980,-8.0625,-5.375,-16.0625,0
27000,-9.75,-3.125,-16.0625,0
27020,-8.5,-0.625,-16.1875,0
27040,-5.6875,4,-15.6875,0
27060,-5.875,6.9375,-12.5,0
27080,-11.125,8.125,-11.5,0
27100,-12.5,9.9375,-13.625,0
27120,-13.0625,11.25,-13.75,0
27140,-13.375,12.375,-12.875,0
27160,-18.9375,13.6875,-9.8125,0
27180,-10.5625,14.625,-13.6875,0
27200,-9.5625,14.0625,-15.625,0
27220,-13.6875,15.1875,-19.375,0
27240,-17,16.9375,-21.375,0
27260,-14.75,18.375,-21.5625,0
27280,-8.375,17.875,-20.625,0
27300,-8,19.375,-19.3125,0
27320,-10.125,23.5625,-18.1875,0
27340,-14.4375,27.625,-12.9375,0
27360,-12.5,32.5,-7.625,0
27380,-9.25,33.5625,-4.375,0
27400,-9.5625,31.3125,-1.25,0
27420,-11.5,30.75,-0.9375,0
27440,-9.5,33.3125,-5.1875,0
27460,-12,36.3125,-5.1875,0
27480,-15.125,36,-4.125,0
27500,-16.3125,32.875,-3.875,0
27520,-14.1875,31.1875,-5,0
27540,-13.875,30.5625,-6,0
27560,-17.0625,32.125,-7.8125,0
27580,-18.4375,34.25,-9.125,0
27600,-15.875,35.0625,-10.25,0
27620,-11.9375,33.375,-12.25,0
27640,-15.1875,34,-16.875,0
27660,-16.6875,36.5,-22,0
27680,-11.125,38.8125,-25.8125,0
27700,-6.3125,39.5,-29.5,0
27720,-5,39.1875,-31.75,0
27740,-7.8125,37.0625,-32.375,0
27760,-9.8125,34.9375,-32.6875,0
27780,-6.5,33.625,-31,0
27800,-7.0625,35.625,-28.875,0
27820,-12.5625,38.9375,-24.375,0
27840,-12.625,39.4375,-21.1875,0
27860,-11.125,38.4375,-18.4375,0
27880,-9.1875,38,-17.5625,0
27900,-10.8125,39.4375,-15.8125,0
27920,-14.875,41.8125,-13.25,0
27940,-15.9375,44.0625,-9.625,0
27960,-10.0625,44.25,-9.6875,0
27980,-7.75,43.1875,-9.875,0
28000,-10.125,45.125,-10,0
28020,-12.4375,47.3125,-7.3125,0
28040,-7,45.1875,-3.3125,0
28060,-3.1875,41.6875,-2.8125,0
28080,-4.875,42.1875,-5.3125,0
28100,-7.9375,42.9375,-4.125,0
28120,-9.8125,43.4375,-0.0625,0
28140,-6.5625,40.4375,-1.1875,0
28160,-3.375,36.5625,-3.125,0
28180,-0.5,36.8125,-5.25,0
28200,-0.5625,33.8125,-6.875,0
28220,-1.8125,29.125,-6.1875,0
28240,-4.9375,26.375,-2.5625,0
28260,-0.875,26.875,-2.5625,0
28280,0,26.5625,-0.875,0
28300,0.375,23.6875,0.5,0
28320,-1.75,21.5,1.875,0
28340,-1.4375,22.5,1.1875,0
28360,-3.1875,26.3125,4.0625,0
28380,-8.9375,30.25,10.1875,0
28400,-9.4375,33.0625,23.1875,0
28420,6.75,28.0625,27.1875,0
28440,16.6875,20.875,22.6875,0
28460,16.1875,15.5625,14.5,0
28480,2.8125,14.1875,10.875,0
28500,-4.6875,13.8125,9.5,0
28520,-3.125,13.1875,6.25,0
28540,-0.8125,9.875,3.375,0
28560,-0.4375,5.1875,4,0
28580,-1.25,3,4.6875,0
28600,1.5625,1,9.125,0
28620,5.125,-0.5,10.9375,0
28640,4.125,-2.1875,10.1875,0
28660,6.0625,-1.6875,9.9375,0
28680,6.625,0.1875,10.25,0
28700,8.4375,0.8125,11.4375,0
28720,11.1875,-0.0625,10.5625,0
28740,12.9375,-3.125,10.25,0
28760,11.125,-4.3125,10.5,0
28780,9.6875,-4.3125,8.6875,0
28800,8,-4.4375,8.6875,0
28820,6.75,-4.125,8.9375,0
28840,5,-5.0625,9.4375,0
28850,8.6875,-6.375,10.25,0
28870,6.625,-6.8125,10.125,0
28890,6.375,-7.125,9.125,0
28910,4.625,-5.875,8.5625,0
28930,3.1875,-4.6875,8.875,0
28950,6.6875,-5.625,9.875,0
28970,9.125,-7,10.5625,0
28990,9.3125,-8.625,9.125,0
29010,7.0625,-9.4375,12.4375,0
29030,3.625,-10.25,14.375,0
29050,1.625,-10.6875,11.875,0
29070,-1.9375,-12.25,13,0
29090,-1,-11.6875,12.3125,0
29110,-0.1875,-11.625,10.8125,0
29130,-1.125,-12.4375,11.9375,0
29150,1.3125,-13.3125,12.25,0
29170,3.1875,-13.75,11.9375,0
29190,-1.375,-13.125,10.375,0
29210,-2.9375,-12.75,9.5625,0
29230,-0.9375,-11.75,10.125,0
29250,2.75,-11.4375,10.125,0
29270,5.1875,-12.5,10.875,0
29290,7.25,-12.8125,13.125,0
29310,9.9375,-12.875,14.1875,0
29330,9.6875,-12.875,14.375,0
29350,5.75,-14.0625,15.6875,0
29370,5.625,-16.25,15.0625,0
29390,8.375,-16.5625,14.3125,0
29410,7.1875,-18.75,13.1875,0
29430,6.6875,-20.9375,12.6875,0
29450,6.875,-23.3125,12.4375,0
29470,6.125,-24.4375,11.75,0
29490,5.5625,-24.125,10.25,0
29510,7.0625,-23.4375,9.4375,0
29530,7.1875,-23.5625,10.125,0
29550,7.5,-23.6875,11.0625,0
29570,9,-23.3125,9.4375,0
29590,9,-23.25,8.625,0
29610,7.0625,-22.5625,8.5625,0
29630,8.5625,-21.5625,7.3125,0
29650,8.625,-21.625,7.5625,0
29670,7.375,-22.5,7.1875,0
29690,8.6875,-22.125,6.125,0
29710,7.25,-22.0625,5.25,0
29730,4.9375,-22.5625,5.0625,0
29750,3.8125,-23.1875,5.125,0
29770,5.1875,-23.3125,5.1875,0
29790,6.5,-23.8125,4.6875,0
29810,3.6875,-24.625,4.8125,0
29830,3.25,-23.6875,4.8125,0
29850,3.375,-23.25,4.75,0
29870,1.875,-23.5625,6.5625,0
29890,2.375,-23.625,9.25,0
29910,3.625,-23.0625,9.6875,0
29930,3.1875,-23.375,5.875,0
29950,3.6875,-23.8125,3.4375,0
29970,3.5625,-24.625,2.3125,0
29990,3.25,-25.75,2,0
30010,3.9375,-27.25,1.5,0
30030,1.25,-28.625,0.1875,0
30050,-3.6875,-29,0.3125,0
30070,-5.875,-29.9375,1.3125,0
30090,-6,-30.5625,2.5625,0
30110,-6.1875,-31.1875,2.0625,0
30130,-6.6875,-30.9375,0.75,0
30150,-5.75,-30.4375,0,0
30170,-2.375,-30.1875,-1,0
30190,-0.75,-29.3125,-1.1875,0
30210,0.75,-28.625,-2.75,0
30230,-0.9375,-25.9375,-5.1875,0
30250,3.375,-22.875,-7.125,0
30270,5.25,-21.5625,-7.3125,0
30290,0,-20.625,-5.75,0
30310,0.4375,-17.75,-6.5,0
30330,-0.1875,-17.6875,-6.0625,0
30350,-1.75,-19.25,-4.625,0
30370,-0.625,-19.375,-2.625,0
30390,-1,-18.8125,-1.4375,0
30410,-4.625,-19.25,-1.125,0
30430,-10.125,-20,-0.3125,0
30450,-12.5625,-21.5625,2.5,0
30470,-10.625,-22.625,4.9375,0
30490,-8.8125,-22.3125,4.25,0
30510,-8.625,-23.0625,1.0625,0
30530,-9.5625,-23.4375,1.0625,0
30550,-5.375,-24.5625,1.1875,0
30570,-5,-25.875,0.125,0
30590,-3.875,-26.125,-1.8125,0
30610,-4.0625,-25.5,-2.5,0
30630,-2.5,-25.5625,-3.3125,0
30650,-2.75,-26.125,-4.875,0
30670,-2.75,-25.5625,-4.4375,0
30690,-2.0625,-25.625,-3.6875,0
30710,-2.5,-24.6875,-3.5,0
30730,-2.75,-24.5,-6.375,0
30750,-4.375,-24.375,-7.625,0
30770,-5.5625,-22.0625,-8.375,0
30790,0.375,-16.875,-8.75,0
30810,8.3125,-13.75,-5,0
30830,6.5,-13.0625,-6.5625,0
30840,3.0625,-13.125,-10.1875,0
30860,2.75,-12.5,-9.75,0
30880,3.875,-12.8125,-8.5,0
30900,2.9375,-13.3125,-9.25,0
30920,0,-12.4375,-9.5625,0
30940,-2.1875,-9.9375,-11.125,0
30960,-0.4375,-8,-13.8125,0
30980,-3.0625,-6.6875,-16.4375,0
31000,-6.375,-7.875,-18.25,0
31020,-11.125,-8,-20.0625,0
31040,-12.5,-5.875,-24.9375,0
31060,-13.5625,-4,-26,0
31080,-13.25,-4.5,-27,0
31100,-13.6875,-5.1875,-28.3125,0
31120,-14.8125,-2.25,-29.0625,0
31140,-16.625,1.875,-29.5,0
31160,-16.75,2.875,-29,0
31180,-16.4375,4.375,-29.1875,0
31200,-17.75,6.4375,-31.1875,0
31220,-21.875,10.6875,-31.375,0
31240,-21.5,13.9375,-30.6875,0
31260,-22.25,14,-30,0
31280,-20.4375,18.125,-32.1875,0
31300,-15.3125,22.4375,-36.5,0
31320,-13.3125,25.625,-42.125,0
31340,-16.875,27.375,-44.5625,0
31360,-18.0625,30.1875,-44.4375,0
31380,-15.625,30.375,-41.875,0
31400,-15.875,28,-42.9375,0
31420,-19.3125,27.625,-42.875,0
31440,-23.1875,31.625,-41.125,0
31460,-23.75,35.1875,-39.0625,0
31480,-25.5,37.5,-35.9375,0
31500,-28.5625,37.625,-32.875,0
31520,-27.3125,37.75,-32.25,0
31540,-29.375,39.5,-30,0
31560,-28.6875,42,-27,0
31580,-26.25,43.625,-26.125,0
31600,-22.5,44.75,-24.625,0
31620,-23.4375,44.125,-23.5,0
31640,-28.1875,46.5,-24,0
31660,-30.9375,47.8125,-24.3125,0
31680,-27.625,45.25,-21.75,0
31700,-23.4375,41.0625,-19.625,0
31720,-22.8125,40.4375,-19.625,0
31740,-26.875,43.0625,-18.25,0
31760,-28.9375,46.0625,-14.0625,0
31780,-24,45.5,-11,0
31800,-23.3125,44.9375,-8.625,0
31820,-23.125,45.875,-7.8125,0
31840,-23.1875,47.125,-5.4375,0
31860,-24,47.5,-0.5,0
31880,-23.5,48.375,4.125,0
31900,-20.75,48.4375,10.625,0
31920,-17,48.4375,14.5625,0
31940,-14.25,45.9375,16.3125,0
31960,-10.25,44.625,17.5,0
31980,-10.5,41.6875,18.75,0
32000,-13.25,40.9375,19.875,0
32020,-16.875,40.25,23.5,0
32040,-9.5,36.875,25.6875,0
32060,-3.25,32.4375,25.8125,0
32080,-3.6875,29.5,24.8125,0
32100,-6.75,29.6875,24.1875,0
32120,-6.875,30.5,24.9375,0
32140,-2.25,29.375,24.4375,0
32160,-2.5,26.375,28.75,0
32180,-2.9375,24.8125,30.625,0
32200,-5.8125,24.4375,30.875,0
32220,-9.75,24.125,30.75,0
32240,-6.6875,22.375,28.0625,0
32260,-3.1875,20.6875,26.125,0
32280,-4.75,19.375,25.75,0
32300,-6.75,16.75,24.3125,0
32320,-4.875,14.625,23.4375,0
32340,-3.25,11.6875,22.6875,0
32360,2,8.1875,20.875,0
32380,0.5,5.8125,21.125,0
32400,-2.25,3.5,20.875,0
32420,-1.5,1.8125,20.125,0
32440,-2.375,0,20.875,0
32460,-1.625,-3.0625,22.375,0
32480,3.6875,-4.0625,24.875,0
32500,9.6875,-5.6875,25.3125,0
32520,8.1875,-9.25,22.375,0
32540,7.125,-10.125,20.375,0
32560,7.8125,-11.375,22,0
32580,9.375,-12.875,22.3125,0
32600,11.5,-14.6875,22.25,0
32620,10.875,-16.8125,20.625,0
32640,7.0625,-19,17.4375,0
32660,-4.0625,-20.6875,18.0625,0
32680,-5.3125,-21.625,19.75,0
32700,-3,-24.4375,21.875,0
32720,-1.875,-25.6875,20.6875,0
32740,-3.1875,-26.3125,18.3125,0
32760,-4.125,-26.1875,17.25,0
32780,-6.6875,-27.4375,17.875,0
32800,0.25,-27.6875,16.3125,0
32820,7.1875,-28.125,14.5625,0
32840,9.5625,-29.125,12.1875,0
32860,10.8125,-29,8.3125,0
32880,15.1875,-28.375,5.1875,0
32900,15.6875,-28.4375,3.5625,0
32920,15.625,-30.1875,4.5625,0
32940,12.25,-32.3125,7.5,0
32960,10.4375,-33.3125,10.125,0
32980,12,-35.3125,11.125,0
33000,6.75,-37.1875,11.125,0
33020,3.75,-38.3125,12.875,0
33040,4.625,-38.5,13.375,0
33060,6.8125,-39.5,12,0
33080,10.9375,-38.8125,8.8125,0
33100,16.5625,-37.75,5.4375,0
33120,16.4375,-36.1875,2,0
33140,19.3125,-35.375,0.875,0
33160,21,-37.0625,1,0
33180,21.375,-37.4375,0.6875,0
33200,16.625,-37.8125,0.9375,0
33220,15.5625,-37.3125,0,0
33240,13.8125,-38.4375,0,0
33260,11.875,-39.5625,-1.625,0
33280,12.5625,-41.125,-4,0
33300,8.9375,-43.3125,-7.125,0
33320,3.5,-43.75,-9,0
33340,-0.3125,-44.625,-11.125,0
33360,1.8125,-44.25,-12.8125,0
33380,5.125,-44.9375,-15.9375,0
33400,8.6875,-43.5625,-18.8125,0
33420,8.9375,-42.1875,-20.25,0
33440,6.9375,-42,-20.8125,0
33460,2.3125,-40.25,-21.5625,0
33480,3.9375,-38.6875,-23.1875,0
33500,7.3125,-38,-22.875,0
33520,10.4375,-36.75,-23.9375,0
33540,6.75,-36,-23.1875,0
33560,2.6875,-36.3125,-21.75,0
33580,-0.6875,-36.75,-21.25,0
33600,1.6875,-35.625,-22.5625,0
33620,1.6875,-32.25,-21.9375,0
33640,-0.875,-30.4375,-18.25,0
33660,-4.8125,-28.875,-18.25,0
33680,-7.8125,-27.3125,-21.875,0
33700,-8.375,-25.75,-22.4375,0
33720,-10.875,-24.9375,-22.125,0
33740,-11.9375,-22.25,-23.625,0
33760,-17.75,-19,-25.5625,0
33780,-15,-15.4375,-28.1875,0
33800,-15.3125,-14.4375,-27,0
33820,-16.875,-12.4375,-24.75,0
33840,-19.6875,-9.3125,-24.8125,0
33860,-19.3125,-7.5,-23.625,0
33880,-18.0625,-5.875,-24.125,0
33900,-20.5625,-3.8125,-22.375,0
33920,-23.875,-0.125,-21.5625,0
33940,-22.5,3.8125,-20.8125,0
33960,-22.9375,6.75,-20.875,0
33980,-23.125,10.3125,-19.1875,0
34000,-24.375,13.4375,-19,0
34020,-24.5625,17.1875,-19.875,0
34040,-24.375,20.4375,-20.875,0
34060,-23.6875,24.0625,-21.0625,0
34080,-24.8125,28.6875,-20.1875,0
34100,-26.375,34.5,-18.6875,0
34120,-22.5,41.5,-16.5,0
34140,-18.875,41.875,-15.4375,0
34160,-14.4375,40.5625,-17.875,0
34180,-16.375,42.3125,-18.5625,0
34200,-25.5,45.875,-20.3125,0
34220,-27.3125,48.3125,-21.9375,0
34240,-21.1875,46.75,-21.8125,0
34250,-17.625,44.6875,-20.3125,0
34270,-21.125,45.25,-20.6875,0
34290,-24.1875,47.3125,-19.6875,0
34310,-23.1875,46.6875,-16.9375,0
34330,-23.5,45,-15.5,0
34350,-22.4375,44.375,-15.0625,0
34370,-24.125,44.75,-15.25,0
34390,-23.625,44.8125,-14.0625,0
34410,-22.5,45.5,-11.875,0
34430,-20.875,45.875,-7.9375,0
34450,-19.75,43.8125,-4.8125,0
34470,-16.6875,41.75,-1.3125,0
34490,-14.5,40.8125,2.3125,0
34510,-11.875,40,3.75,0
34530,-10.125,40.125,4.3125,0
34550,-9.6875,38.1875,6.125,0
34570,-9.5,37.6875,8.5625,0
34590,-16.375,38.125,11.25,0
34610,-14.875,38.75,15.625,0
34630,-12.0625,38.3125,20.0625,0
34650,-6.75,37.25,22,0
34670,-8.3125,34.75,23.375,0
34690,-12.625,36,26.0625,0
34710,-12.875,39.3125,27.8125,0
34730,-6.1875,37.6875,29.375,0
34750,-2.4375,33.125,28.4375,0
34770,-7.6875,32.6875,27.8125,0
34790,-7.375,32.5625,29.1875,0
34810,-5.5625,28.6875,31.5,0
34830,-1.3125,24.9375,34.25,0
34850,-2.4375,20.625,34.375,0
34870,-4.4375,16.3125,36.1875,0
34890,-0.75,15.3125,36.3125,0
34910,4.5,10.4375,33.3125,0
34930,2.875,6.75,33.9375,0
34950,-2.4375,4.5625,35.5625,0
34970,-9.3125,5.8125,33.125,0
34990,-3.625,3.375,28.6875,0
35010,7.9375,-3.6875,27.9375,0
35030,10.9375,-5.625,28.25,0
35050,11.1875,-5.25,26.0625,0
35070,7,-3.4375,24.1875,0
35090,7.375,-5.75,23.375,0
35110,10.375,-7.75,23,0
35130,12.25,-8.9375,23.75,0
35150,11.6875,-9.0625,24.375,0
35170,8.5625,-9.375,24,0
35190,7.5625,-9.8125,24.8125,0
35210,5.0625,-10.8125,24.125,0
35230,4.875,-11.8125,24,0
35250,8.0625,-13.125,25.0625,0
35270,7.1875,-14.9375,22.625,0
35290,1.625,-17.4375,22.125,0
35310,-2.8125,-21.875,22.625,0
35330,-2.9375,-25.9375,25.375,0
35350,-3.5,-31.625,27.125,0
35370,-0.5,-30.0625,23.25,0
35390,2.625,-26.8125,16.6875,0
35410,0.4375,-27.5,15.4375,0
35430,0.8125,-29.375,16.375,0
35450,4.5,-30.9375,15.5625,0
35470,8.8125,-31.8125,12.625,0
35490,11.25,-29.25,11.1875,0
35510,10.875,-30.0625,10.25,0
35530,9,-29.8125,10.25,0
35550,7.1875,-30.375,10.125,0
35570,7.125,-30.9375,9.6875,0
35590,6,-30.5625,7.9375,0
35610,6.375,-29.875,6.5625,0
35630,5.25,-30.25,7.1875,0
35650,5.25,-31.625,6.8125,0
35670,4.3125,-31.875,5.375,0
35690,0.625,-32.1875,4.8125,0
35710,-1.5625,-32.3125,5.1875,0
35730,-1.0625,-32.125,3.625,0
35750,-0.4375,-32,2.9375,0
35770,-2.1875,-31.8125,2.3125,0
35790,-1.125,-31.5625,0.875,0
35810,-2.5625,-31.0625,-0.25,0
35830,-4.5,-30.125,-0.25,0
35850,-4.375,-31.25,-1.875,0
35870,-3.9375,-31.125,-2.9375,0
35890,-7,-31.4375,-2.875,0
35910,-6.75,-30.9375,-2.125,0
35930,-6.4375,-30.625,-2.9375,0
35950,-7.125,-29.4375,-4.75,0
35970,-6.75,-28.8125,-6.0625,0
35990,-7.5,-28.5625,-7.0625,0
36010,-8.1875,-29.9375,-8.375,0
36030,-7,-30.25,-9.9375,0
36050,-3.5,-29.6875,-12,0
36070,-2.25,-29.1875,-14,0
36090,-4.625,-29.1875,-13.75,0
36110,-3.8125,-29.875,-14.8125,0
36130,-3,-30.1875,-16.8125,0
36150,-2.875,-29.75,-17.25,0
36170,-4.5625,-30.375,-15.5625,0
36190,-6.0625,-30.0625,-15.625,0
36210,-4.9375,-29.5,-14.625,0
36230,-4.75,-29.375,-14.0625,0
36240,-7.25,-27.875,-13.6875,0
36260,-6.625,-24.1875,-12.75,0
36280,-5.4375,-23.9375,-12.0625,0
36300,-6.25,-24.375,-12.6875,0
36320,-8.625,-24,-13.1875,0
36340,-6.25,-22.6875,-14.5625,0
36360,-6.875,-21.25,-15.375,0
36380,-9.75,-20.3125,-16.25,0
36400,-9.9375,-19.3125,-15.875,0
36420,-6.9375,-18.375,-16.8125,0
36440,-4.875,-17.75,-18.4375,0
36460,-6.5,-16.1875,-18.875,0
36480,-8.25,-15.5,-19.375,0
36500,-8.5625,-14.5,-18.625,0
36520,-8.0625,-13.875,-18.6875,0
36540,-6.75,-13.1875,-19.5,0
36560,-6.5,-12,-18.375,0
36580,-2.5625,-10.5625,-16.8125,0
36600,1.1875,-9.9375,-18.3125,0
36620,1.5,-8.75,-19.9375,0
36640,0.3125,-8.1875,-20.75,0
36660,-5.75,-6.875,-19.625,0
36680,-4,-5.375,-18.25,0
36700,-0.125,-5.0625,-16.1875,0
36720,-1.625,-3.625,-15.1875,0
36740,-4.5625,-0.3125,-12.75,0
36760,-5.375,3.0625,-9.6875,0
36780,-8.125,3.25,-6.75,0
36800,-8.5625,3.6875,-6.3125,0
36820,-5.9375,2.75,-7.125,2001
36840,-5.9375,2.9375,-7.0625,0
36860,-8.9375,2.5,-6.0625,0
36880,-9.1875,4.25,-6.0625,0
36900,-8.5625,4.25,-7.1875,0
36920,-6.5625,3.5,-5.5625,0
36940,-4.25,2,-5.875,0
36960,-2.125,1.0625,-5.5625,0
36980,-0.6875,1.125,-4.4375,0
37000,-4.125,2.25,-2.5625,0
37020,-4.5625,3.5,-1.6875,0
37040,-3.5625,2.5625,-0.4375,0
37060,-0.8125,0.75,0.5625,0
37080,-0.625,0,1.8125,0
37100,-2.5,-0.375,3.125,0
37120,-3.0625,1.1875,4.5,0
37140,-2,1.875,5.4375,0
37160,0.5,1.3125,6.9375,0
37180,1.625,0.3125,8.5,0
37200,-0.25,0.125,10.9375,0
37220,-1.0625,1.5,16.3125,0
37240,1.625,3.375,23.875,0
37260,8.25,3.1875,33.8125,0
37280,8.625,-0.125,42.1875,0
37300,5.375,5.3125,49.6875,0
37320,10.0625,11.9375,59,0
37340,23.75,15.1875,65.6875,0
37360,37.5,17.625,68.6875,0
37380,36,19.4375,75.5625,0
37400,33.5,24.125,83.25,0
37420,37.75,27.8125,88,0
37440,42.625,29.4375,88.5625,0
37460,49.625,28.9375,86.875,0
37480,44.9375,27,84.25,0
37500,38,27.25,83.875,0
37520,39.0625,26.25,81.25,0
37560,50.125,22.75,61.125,0
37580,42.875,22.0625,60.1875,0
37600,35.25,19.875,62.625,0
37620,30.5625,21.25,58.3125,0
37640,33.4375,24.375,57.8125,0
37660,35.75,22.4375,57.3125,0
37680,31.625,19.375,54,0
37700,27.1875,19.125,46.8125,0
37720,19.375,19.875,45.3125,0
37740,15.4375,21.0625,40.25,0
37760,13.3125,18.5625,36.25,0
37780,9.0625,14.5,34,0
37800,12.9375,12,29.375,0
37820,14.25,9.125,22.0625,0
37840,11.1875,7.8125,18.25,0
37860,6.625,6.375,15.5625,0
37880,3.6875,6.1875,13.25,0
37900,2,5.625,11.125,0
37920,1.4375,2.3125,8.5625,2000
37940,5.625,2.1875,6.9375,0
37960,4.875,2.125,6,0
37980,2.75,0.625,5.625,0
38000,-4.5,-3.9375,7.375,0
38020,-8.375,-4.5,7.875,0
38040,-10.6875,-5.3125,4.6875,0
38060,-16,-8.8125,5.5,0
38080,-19.6875,-10.625,8.5625,0
38100,-13.1875,-11.6875,6.25,0
38120,-8.5,-7.75,-0.5625,0
38140,-9.4375,-11.1875,-2.3125,0
38160,-3,-17.125,4.0625,0
38180,-1.9375,-18.4375,2.125,0
38200,-5.75,-14,-4.0625,0
38220,-8.9375,-13.6875,-4.25,0
38240,-9.25,-17.0625,-3.1875,0
38260,-0.8125,-19.4375,0.5,0
38280,-0.3125,-18.0625,1.875,0
38300,-5,-16.25,-0.6875,0
38320,-4.8125,-16.9375,-6.8125,0
38340,1,-17.75,-8.625,0
38360,5.1875,-18.5625,-8.875,0
38380,5.4375,-17.5,-8.5625,0
38400,6.625,-18,-9.5625,0
38420,2.625,-19.375,-8.125,0
38440,1.875,-19.125,-6.75,0
38460,0.3125,-18.25,-9.75,0
38480,2.5625,-18.3125,-10.75,0
38500,5.6875,-18.5625,-11.1875,0
38520,5.5,-19.0625,-10.6875,0
38540,2.875,-18.625,-13,0
38560,0.125,-17,-13.5,0
38580,-0.1875,-16.375,-13.25,0
38600,-0.4375,-16.3125,-10.625,0
38620,2.625,-16.875,-9.875,0
38640,4.5,-16.625,-14,0
38660,0,-15.25,-14.625,0
38680,-3.25,-13.8125,-12.3125,0
38700,-2.5,-14.375,-12.125,0
38720,-0.875,-15.5,-14.3125,0
38740,-1.5625,-15.4375,-16.125,0
38760,-3.3125,-13.25,-17.6875,0
38780,-5.0625,-10.5,-16.9375,0
38800,-5.125,-8.75,-14.5,0
38820,-4.25,-6,-16.125,0
38840,-6,-2.8125,-16.375,0
38860,-3.9375,0.4375,-25.25,0
38880,-4.0625,3.5625,-31.25,0
38900,-3.625,7.3125,-32.375,0
38920,-4.625,11.4375,-29.75,0
38940,-6.1875,13.0625,-29.0625,0
38960,-7.4375,16.0625,-27.5625,0
38980,-7.875,19.25,-25.9375,0
39000,-10.9375,25.9375,-21.5,0
39020,-13.8125,29.9375,-18.1875,0
39040,-16.1875,30.3125,-15.125,0
39060,-14.4375,29.9375,-17.25,0
39080,-15.0625,31.375,-18.1875,0
39100,-18.3125,33.125,-17.9375,0
39120,-21.75,34.25,-19.0625,0
39140,-21.9375,32.4375,-20.3125,0
39160,-23.4375,32.4375,-21,0
39180,-25.6875,35.125,-21.75,0
39200,-28.8125,37.125,-20.625,0
39220,-27.875,39.0625,-18.0625,0
39240,-25.9375,42,-17.9375,0
39260,-26.125,46.9375,-17.8125,0
39280,-29.3125,48.8125,-17.25,0
39300,-32.1875,52.1875,-18.4375,0
39320,-32.875,52.375,-18.3125,0
39340,-35.3125,54.0625,-17.125,0
39360,-36.0625,54.5625,-14.8125,0
39380,-33.4375,54.8125,-12.8125,0
39400,-31.375,55.5625,-13,0
39420,-32.1875,57.5,-14.75,0
39440,-32.9375,56.25,-14.5625,0
39460,-30.4375,55.125,-12.875,0
39480,-28.875,53.5,-12.875,0
39500,-29.8125,54.5,-13.0625,0
39520,-31.8125,54.6875,-13.75,0
39540,-28.6875,53.375,-13.5625,0
39560,-24.4375,51.25,-13.25,0
39580,-22.4375,54,-12.375,0
39600,-28.875,63.0625,-7.125,0
39620,-29.0625,69,0.8125,0
39640,-17.4375,67.125,6.5,0
39650,-0.5625,58.9375,4.375,0
39670,3.875,53.9375,-0.0625,0
39690,-3.3125,54.875,-4.875,0
39710,-18,57.5,-2.1875,0
39730,-15.875,51.25,-1.3125,0
39750,1.8125,40.625,-1.9375,0
39770,13,32.375,-2.5625,0
39790,9.875,30.75,-5.1875,0
39810,-4.3125,33.75,-2.625,0
39830,-13.75,30.625,4.9375,0
39850,4.1875,20.9375,7.1875,0
39870,19.125,15,6.625,0
39890,19,13.25,1.75,0
39910,4.8125,15.625,5.1875,0
39930,-8.125,14.8125,8.3125,0
39950,-2.875,13.5625,8.0625,0
39970,8.25,8.875,8.5625,0
39990,14.125,3.75,11.375,0
40010,9.875,4.875,11.625,0
40030,1.375,5.9375,9.75,0
40050,-5.0625,3.875,11.625,0
40070,-3.6875,2.3125,13.1875,0
40090,4.625,0.25,13.375,0
40110,11.25,-1.875,12.6875,0
40130,9.25,-1.6875,12.5,0
40150,5.5625,-2.625,12.125,0
40170,5.625,-3.625,12.9375,0
40190,8.6875,-4.625,13,0
40210,10.375,-3.9375,12.5625,0
40230,8.25,-2.5,13.75,0
40250,2.5,-2.25,15.75,0
40270,3.5,-3,16.875,0
40290,9.9375,-7.0625,18.25,0
40310,13.625,-7.5,17.125,0
40330,8.9375,-6.5,15.5625,0
40350,-1,-6.625,18,0
40370,0,-8.6875,20.25,0
40390,10.25,-10.375,21,0
40410,17.5,-11.3125,19.9375,0
40430,11.4375,-11.375,18.25,0
40450,6.5625,-11.875,17.5625,0
40470,5.75,-13.875,18.0625,0
40490,9.5,-16.625,18.75,0
40510,14.6875,-18.0625,18.9375,0
40530,14.9375,-19.3125,17.625,0
40550,10.4375,-20.6875,16.4375,0
40570,9.3125,-21.8125,16.6875,0
40590,12.0625,-24.1875,16.875,0
40610,14.6875,-25.5625,17.1875,0
40630,13.8125,-26.8125,15.6875,0
40650,9.875,-28,14.1875,0
40670,9.9375,-29.9375,14.75,0
40690,8.75,-31.75,15.8125,0
40710,9.0625,-32.5625,15.5625,0
40730,9.625,-32.625,13.875,0
40750,8.8125,-33.625,12.375,0
40770,7.9375,-34.4375,11.6875,0
40790,6,-34.625,11.0625,0
40810,6.9375,-34.75,10.125,0
40830,8.4375,-34.1875,10.125,0
40850,5.625,-34.5625,10.9375,0
40870,3.5,-34.875,9.625,0
40890,2.875,-35.1875,8.375,0
40910,2.1875,-35.5625,7.6875,0
40930,3,-36.3125,8.1875,0
40950,3.5625,-37,7,0
40970,0.125,-37.5,5.5,0
40990,-2.75,-37.3125,4.9375,0
41010,-1.625,-37.125,5,0
41030,0.625,-36.625,4.1875,0
41050,-3.125,-37.875,1.8125,0
41070,-7.5,-38.1875,1.5,0
41090,-5.75,-39,1.8125,0
41110,-5.125,-38.625,1.125,0
41130,-5.125,-38.6875,1.4375,0
41150,-6.625,-40,2,0
41170,-7.5625,-40.9375,0.5,0
41190,-8.1875,-39.5,-1.5,0
41210,-7.625,-38.75,-2,0
41230,-6.4375,-39.875,-2.375,0
41250,-4.4375,-41.1875,-4.8125,0
41270,-2.6875,-42.375,-6.0625,0
41290,-4.6875,-44.3125,-8.125,0
41310,-8.125,-46.75,-10.875,0
41330,-10.625,-48.8125,-9.9375,0
41350,-7.5,-50.1875,-7.75,0
41370,-2.875,-48.9375,-7.25,0
41390,-1.625,-47.3125,-11.625,0
41410,-5.5,-45.75,-15.1875,0
41430,-7.8125,-45.3125,-16.125,0
41450,-6.25,-44.5,-16.875,0
41470,-3.0625,-42.6875,-20.6875,0
41490,-2.75,-39.5625,-24.125,0
41510,-7.3125,-38.625,-24.4375,0
41530,-8.5,-37.5,-21.5625,0
41550,-9.875,-34.9375,-19.6875,0
41570,-5.9375,-29.8125,-21.6875,0
41590,-6.25,-27.1875,-20.3125,0
41610,-5.25,-24,-16.1875,0
41620,-9.4375,-17.3125,-16.1875,0
41640,-11,-12.9375,-18.5625,0
41660,-10,-11.4375,-19,0
41680,-7.1875,-10.6875,-14.375,0
41700,-5.125,-9.4375,-15.25,0
41720,-6.0625,-6.3125,-16.9375,0
41740,-10.5625,-4.5625,-18.1875,0
41760,-15.9375,-3.25,-16.6875,0
41780,-15.875,-0.5,-18.4375,0
41800,-12.4375,1.625,-20.6875,0
41820,-10.625,4.6875,-21.1875,0
41840,-12.4375,7.3125,-21.375,0
41860,-17.875,9.9375,-19.6875,0
41880,-19.9375,13,-19.25,0
41900,-19.4375,13.375,-19.8125,0
41920,-16.8125,13,-20.8125,0
41940,-14.9375,13.125,-22.625,0
41960,-19.375,16.5625,-23.8125,0
41980,-23.625,20.875,-26.5625,0
42000,-26.9375,26.0625,-26.875,0
42020,-25.375,27.1875,-24.875,0
42040,-23.875,27.6875,-24.75,0
42060,-23.6875,29.9375,-28.625,0
42080,-27.125,32.3125,-28.3125,0
42100,-27.8125,33.8125,-26.375,0
42120,-30.0625,36.8125,-24.1875,0
42140,-30.5,40.9375,-25.8125,0
42160,-30.4375,42.625,-26.625,0
42180,-31.8125,44.25,-24.5625,0
42200,-28.4375,43.3125,-23.6875,0
42220,-27.1875,44.3125,-23.375,0
42240,-27.1875,46.6875,-25.5625,0
42260,-31.1875,47.3125,-25.5625,0
42280,-32.625,46.0625,-24.4375,0
42300,-29.6875,43.1875,-23.5,0
42320,-29.125,42,-22.25,0
42340,-29.125,43.4375,-22.5625,0
42360,-28.6875,41.625,-20.25,0
42380,-27.0625,38.6875,-17.75,0
42400,-26.75,38.75,-17.125,0
42420,-24.125,38.625,-17.0625,0
42440,-24.375,37.4375,-14.5,0
42460,-23.6875,36.375,-11.75,0
42480,-24.875,38.75,-8.125,0
42500,-25.3125,40.875,-4.75,0
42520,-22.4375,40,0.25,0
42540,-18.125,37.6875,5.6875,0
42560,-13.8125,37.125,7.9375,0
42580,-12.625,38,10.25,0
42600,-15.875,39.5,12.6875,0
42620,-18.125,42.625,17.125,0
42640,-12.875,40.25,23.125,0
42660,0.125,37.6875,24.25,0
42680,1,37.3125,23.1875,0
42700,-0.5625,35.375,25.875,0
42720,-3.5,35.6875,29.875,0
42740,-6.625,33,28.1875,0
42760,-5.125,28.8125,32.125,0
42780,1.9375,25.5,31.3125,0
42800,6.75,25.75,28.0625,0
42820,-2.125,29.4375,26.5,0
42840,-15.25,28.875,30.1875,0
42860,-4.8125,25.3125,32.375,0
42880,16.8125,18.6875,31.75,0
42900,21.6875,16.125,26.9375,0
42920,12.625,17.0625,22.625,0
42940,-1.6875,15.4375,22.5,0
42960,2.75,9.5625,23.1875,0
42980,19.875,4.0625,22.5,0
43000,21.5,3.75,19.875,0
43020,11.6875,4.625,19.0625,0
43030,1.875,1.6875,20.625,0
43050,4.375,-3.5,22.625,0
43070,10.0625,-8.5,19.6875,0
43090,14.5625,-13.0625,14.1875,0
43110,14.8125,-15.4375,11.25,0
43130,12.625,-16.75,9.1875,0
43150,12.75,-15.875,8.875,0
43170,14.1875,-17,11.9375,0
43190,13.75,-18.125,12.5,0
43210,14.0625,-17.4375,13.625,0
43230,11.875,-18.1875,15.375,0
43250,9.875,-18.625,16.6875,0
43270,11.875,-17.875,17.5,0
43290,10.375,-16.125,16.875,0
43310,9.25,-14.8125,17.8125,0
43330,11.8125,-14.25,19.6875,0
43350,12.875,-13.4375,20.25,0
43370,14.8125,-13,20.125,0
43390,18,-13.0625,18.8125,0
43410,22.6875,-13.125,17.0625,0
43430,22.625,-13.3125,15.125,0
43450,18.9375,-14.0625,14.6875,0
43470,17.9375,-14.5,14.8125,0
43490,18.75,-15.875,16.5,0
43510,18.8125,-17.5625,16.8125,0
43530,16.75,-18.875,15.375,0
43550,15,-19.875,13.875,0
43570,13.5625,-21.5,13.1875,0
43590,14.4375,-22.9375,12,0
43610,13.125,-24.6875,10.75,0
43630,14.5,-25.375,9.4375,0
43650,14,-26.8125,7.9375,0
43670,11.8125,-28,6.375,0
43690,10,-28.9375,4.875,0
43710,11.1875,-29.875,4,0
43730,12.3125,-30.1875,3.125,0
43750,9.6875,-30.5,1.9375,0
43770,6,-31.0625,1.75,0
43790,4.5,-31.75,1.375,0
43810,4.1875,-32.375,0.6875,0
43830,4.625,-31.9375,0.6875,0
43850,2.125,-31.9375,0.0625,0
43870,1.4375,-32.5,-1.0625,0
43890,-0.875,-32.625,-0.0625,0
43910,0.4375,-33.875,0.9375,0
43930,0.4375,-35,0,0
43950,-4,-37.125,-0.25,0
43970,-8.3125,-38.9375,1.3125,0
43990,-7.9375,-42.1875,2.625,0
44010,-5.0625,-43.8125,-0.0625,0
44030,-4.4375,-43.6875,-4.875,0
44050,-4.625,-42,-5.75,0
44070,-6.75,-41.875,-5.625,0
44090,-4.8125,-42.375,-7,0
44110,-0.5625,-42.0625,-9.5625,0
44130,-0.625,-41.5625,-10,0
44150,-5,-39.25,-8.625,0
44170,-4,-37.375,-9.3125,0
44190,-1.9375,-38.3125,-10.5,0
44210,-2.0625,-39.5,-11.9375,0
44230,-3.9375,-38.0625,-13,0
44250,-5.9375,-36.25,-13,0
44270,-3.6875,-34.5,-13.6875,0
44290,-0.375,-34.0625,-15.3125,0
44310,2.5,-33.3125,-17.9375,0
44330,1.8125,-30.9375,-20.25,0
44350,0.875,-27.8125,-21.6875,0
44370,-0.6875,-26.0625,-21.6875,0
44390,-2.625,-25.75,-19.1875,0
44410,-2.625,-25.1875,-18.1875,0
44430,-6,-24.6875,-16.875,0
44450,-7.875,-21.625,-17.0625,0
44470,-12.3125,-17.875,-16.25,0
44490,-13.4375,-14.5,-16.75,0
44510,-11.625,-14.6875,-18.5,0
44530,-10.3125,-13.75,-19.3125,0
44550,-11.3125,-11.875,-22.8125,0
44570,-13.8125,-8.125,-24.125,0
44590,-14.8125,-6.6875,-23.75,0
44610,-15.625,-4.625,-22.9375,0
44630,-15.1875,-2.25,-25.8125,0
44650,-14.1875,-1.1875,-27.375,0
44670,-17.8125,-0.3125,-24.8125,0
44690,-21.125,2.8125,-22.6875,0
44710,-22.5625,3.625,-22.1875,0
44730,-23.8125,3.5625,-21.4375,0
44750,-25.625,5.4375,-20.875,0
44770,-25.0625,6.875,-21.1875,0
44790,-26.625,9.375,-19.5,0
44810,-29.875,14.375,-18.625,0
44830,-33,17.3125,-17.4375,0
44850,-29.375,19.25,-16.75,0
44870,-31.1875,20.8125,-16.5,0
44890,-32.0625,23.3125,-17.125,0
44910,-30.875,26.375,-17.25,0
44930,-30.5,27.25,-15,0
44950,-30.4375,25.6875,-11.5625,0
44970,-29.0625,27.375,-10.125,0
44990,-24.125,28.375,-12.1875,0
45010,-29,28.625,-16.625,0
45020,-34.125,31.0625,-19.0625,0
45040,-35.3125,34.75,-21.375,0
45060,-32.0625,34.25,-21.8125,0
45080,-29.3125,31.875,-20.6875,0
45100,-29.1875,30.625,-20.4375,0
45120,-31,33.875,-17.75,0
45140,-34.5,37.4375,-16.1875,0
45160,-33.5625,36.6875,-15.375,0
45180,-31.0625,33.6875,-13.8125,0
45200,-29.875,30.6875,-10.9375,0
45220,-27.1875,31.125,-10.4375,0
45240,-30.4375,33.9375,-11.625,0
45260,-29.6875,35.4375,-9.625,0
45280,-23,34.375,-6.125,0
45300,-20.75,32.375,-0.4375,0
45320,-15.875,32.625,1.25,0
45340,-13.625,36.0625,0.4375,0
45360,-16.3125,37.875,2.9375,0
45380,-15.6875,37.75,8.8125,0
45400,-11.1875,36.9375,12,0
45420,-9.6875,35.8125,13.9375,0
45440,-5.9375,35.9375,13.25,0
45460,-4,33.5,14.25,0
45480,-6.8125,33.375,16.1875,0
45500,-10.625,35.75,17,0
45520,-12.5,37.3125,18.6875,0
45540,-9.5625,34.625,21.875,0
45560,-2.25,31.5,25.625,0
45580,3.875,30.9375,26.6875,0
45600,1.1875,31.3125,25.9375,0
45620,-5.375,31.375,26.1875,0
45640,-5.9375,29.8125,27.375,0
45660,-0.25,28,28.4375,0
45680,0.25,29,30.0625,0
45700,-2,31,30,0
45720,-0.9375,29.625,29.1875,0
45740,3.25,26.125,30.375,0
45760,7.1875,21.3125,30.6875,0
45780,7.5,17.75,28.625,0
45800,7.25,17.1875,26.1875,0
45820,3.625,17.625,26.375,0
45840,-3.625,17.75,27.1875,0
45860,-2.625,14.0625,27.8125,0
45880,7.375,9.125,27.4375,0
45900,10.25,8.0625,24.25,0
45920,5.5,9.125,21.875,0
45940,2.0625,8.75,22.125,0
45960,2.875,6.9375,23.375,0
45980,12.375,5.0625,23.6875,0
46000,19.25,2.875,23.875,0
46020,15.9375,4.5,21,0
46040,11.875,5.875,20.4375,0
46060,9.5625,4.0625,21.375,0
46080,18.125,-0.625,20.375,0
46100,32,-2.1875,17.125,0
46120,33.375,-3.375,15.8125,0
46140,20.4375,-1.1875,15.9375,0
46160,16,-1.875,12.25,0
46180,18.75,-5.75,13.125,0
46200,20.5,-8.6875,13.625,0
46220,17.0625,-9.25,14.3125,0
46240,12.625,-8.8125,13.4375,0
46260,11.5,-9.875,14,0
46280,10.75,-11.4375,15.1875,0
46300,11,-12.625,14.75,0
46320,9.1875,-13.9375,14.5625,0
46340,6.3125,-14.5,14.875,0
46360,6.125,-17.125,15.5,0
46380,5.3125,-18.6875,15.1875,0
46400,5.125,-18.75,15.0625,0
46420,2.4375,-19.375,14,0
46440,4.4375,-20.625,13.625,0
46460,7.0625,-22.5625,12.6875,0
46480,6.625,-24.0625,11.125,0
46500,8.25,-24.6875,9,0
46520,5.25,-26.4375,6.9375,0
46540,4.3125,-27.6875,6.9375,0
46560,3.5625,-29.5625,7.25,0
46580,3.625,-31.0625,6.5,0
46600,0.9375,-32.0625,6,0
46620,-1.8125,-32.8125,5.9375,0
46640,-1.0625,-34,4.5625,0
46660,-1.1875,-34.1875,3.75,0
46680,-3.3125,-34.1875,3.0625,0
46700,-3.3125,-34.5,2.875,0
46720,-2.25,-35.75,2.375,0
46740,-0.875,-36.5,2.625,0
46760,-1.25,-36.625,1.8125,0
46780,-1.9375,-36.25,0,0
46800,-3.375,-37.0625,-1.1875,0
46820,-3.875,-37.125,-1.3125,0
46840,-4.25,-37.875,-2.0625,0
46860,-5.5,-37.6875,-3.375,0
46880,-7,-38.375,-3.75,0
46900,-8.0625,-39.125,-4,0
46920,-8.9375,-40.125,-5.6875,0
46940,-9.0625,-41.0625,-8.125,0
46960,-9.4375,-41.3125,-9.0625,0
46980,-10.625,-41.1875,-8.875,0
47000,-10.4375,-40.5,-11.0625,0
47010,-8,-39.9375,-13.375,0
47030,-7.5625,-39.875,-14.9375,0
47050,-6.8125,-39.4375,-16.375,0
47070,-4.5625,-38.9375,-18.375,0
47090,-3.5,-37.0625,-20.125,0
47110,-9.0625,-35.625,-22.4375,0
47130,-14.625,-36.1875,-23.5,0
47150,-13.5625,-37.3125,-23.8125,0
47170,-5,-37.25,-26.625,0
47190,0.875,-35.75,-28.5,0
47210,-4.625,-32.75,-26.375,0
47230,-8.75,-31.6875,-26.1875,0
47250,-8.4375,-32.8125,-29.75,0
47270,-2.375,-34.4375,-31.0625,0
47290,2.4375,-33.375,-30.6875,0
47310,-2.0625,-31.25,-31.1875,0
47330,-6,-29.3125,-30.1875,0
47350,-7.6875,-27.6875,-31.3125,0
47370,-2.9375,-27.5,-32.4375,0
47390,-0.75,-26.625,-32.875,0
47410,-0.5,-22.0625,-32.4375,0
47430,-3.1875,-16.875,-30.3125,0
47450,-2.5,-13.25,-27.375,0
47470,-0.25,-11.375,-26.75,0
47490,-1.0625,-9.5,-25.125,0
47510,0.3125,-7.8125,-23.4375,0
47530,-3,-4.25,-20.75,0
47550,-4.375,-1.6875,-16.3125,0
47570,-1.5625,-1.375,-15.3125,0
47590,0.25,-0.125,-16.5625,0
47610,-2.375,0.4375,-16.9375,0
47630,-4.875,2.1875,-15.625,0
47650,-9.8125,4.125,-14.1875,0
47670,-10.125,6.5625,-12.5,2001
47690,-6.625,6.6875,-10.125,0
47710,-1.75,5.125,-8.375,0
47730,-1.9375,5,-8.6875,0
47750,-7.4375,5.875,-8.125,0
47770,-9.75,6.5625,-6.25,0
47790,-9.0625,3.0625,-1.375,0
47810,-6.1875,-2.3125,2.75,0
47830,3.0625,-5,3.25,0
47850,-0.8125,-3.5625,3.25,0
47870,-5,-0.3125,4.375,0
47890,-3.3125,-1.1875,2.875,0
47910,1.125,-2.6875,1.9375,0
47930,6.375,-5.4375,3.3125,0
47950,11.9375,-12.9375,3.4375,0
47970,12.125,-15.5625,6.5,0
47990,17.25,-12.75,14.5625,0
48010,26.5,-7.6875,22.625,0
48030,37.9375,-2.1875,33.0625,0
48050,53.3125,6.1875,45.625,0
48070,56.875,11.625,64.25,0
48090,67.375,18.6875,77.1875,0
48110,85,30.5,84.3125,0
48130,94.6875,42,98.3125,0
48150,112.062,42.3125,102.188,0
48170,119.688,51.125,103.25,0
48190,135,54.625,102.062,0
48210,147.062,58.5625,95.25,0
48230,150,67.6875,94.375,0
48260,135.125,66.0625,97.1875,0
48280,146.438,68.9375,101.938,0
48300,137.875,71.6875,95.6875,0
48320,106.812,66.1875,73.875,0
48340,78.75,66.25,56.1875,0
48350,71.0625,31.3125,32.9375,0
48360,-1.4375,21.9375,12.75,0
48370,7.5625,22.6875,29.4375,0
48390,1.9375,17.375,24,0
48410,6.1875,8.5625,18.8125,0
48430,4.5625,-1.625,13.875,0
48450,1.1875,-8.3125,4.375,0
48470,-5.375,-16.5,0.625,0
48480,-9,-22.6875,-2.125,0
48500,-9.875,-25.75,-7.4375,0
48520,-12.5,-24.6875,-14.8125,0
48540,-19.125,-22.6875,-15.8125,0
48560,-22,-20.5,-16.25,0
48580,-15.4375,-20.75,-18.9375,0
48600,-7.4375,-20.75,-13.25,0
48620,-6.75,-20.25,-10.75,0
48640,-12.8125,-11.4375,-11,0
48660,-20.375,-6.25,-14.1875,0
48680,-5.625,-2.75,-22.625,0
48700,12.1875,-6.5625,-24.625,0
48720,16.1875,-3.875,-25.25,0
48740,-2.5,-2.0625,-23.625,0
48760,-14.5625,-5.3125,-13.5,0
48780,-19.5625,-6.8125,-7.875,0
48800,-4.1875,-0.125,-5.875,0
48820,3.5625,11.375,-2.125,0
48840,-4.4375,16.75,0.75,0
48860,-4,12.625,4.5,0
48880,3.5625,8.0625,3.75,0
48900,3.6875,11.5,0.25,0
48920,-0.9375,16.375,-6.1875,0
48940,8.625,11.4375,-4.125,0
48960,13.9375,8.875,0,0
48980,8.3125,7.4375,6,0
49000,-1.1875,8,6.25,0
49020,-6.375,8.5625,1.375,0
49040,-3.625,6.6875,2.125,0
49060,-1.625,2.4375,3.9375,0
49080,-3.5625,0.5625,1.5,0
49100,1.125,-0.375,-3.5625,0
49120,4.4375,-0.0625,-7.4375,0
49140,4.8125,-0.625,-8.6875,0
49160,3.9375,-2.625,-5.5625,0
49180,3.5625,-0.4375,-6.25,0
49200,4.3125,1.1875,-10.875,0
49220,5.375,2.125,-12.875,0
49240,4.125,3.875,-14.75,0
49260,1.9375,5.4375,-14.6875,0
49280,-0.1875,5.75,-11.625,0
49300,-2.1875,7.5,-13.6875,0
49320,-2.625,8.125,-14.125,0
49340,-0.5625,8.375,-12.0625,0
49360,1.1875,12.4375,-14.25,0
49380,4.375,11.9375,-14.4375,0
49400,7.25,9,-12.5625,0
49420,5.75,9.375,-14.5625,0
49440,3.8125,12.875,-15.5625,0
49460,-0.625,11.5,-17.6875,0
49480,5.3125,8.0625,-16.75,0
49500,8.125,6,-14.375,0
49520,2.9375,5.25,-11.5625,0
49540,-3.9375,3.1875,-8.6875,0
49560,-4.8125,2.4375,-6.75,0
49580,-1.625,0.75,-3.0625,0
49600,-0.6875,0.4375,0.25,0
49620,-1.0625,-3.3125,4.125,0
49640,1.625,-8.125,5.6875,0
49660,1.5625,-7.375,6.9375,0
49680,3.75,-6.1875,9.125,0
49700,6.5625,-6.75,10.4375,0
49720,11.25,-4,9.1875,0
49740,11.5625,-0.3125,6.4375,0
49760,5.4375,-1.1875,8.1875,0
49780,-0.125,-5.9375,12.5,0
49800,-0.5,-6.625,17.0625,0
49820,-0.6875,-3.625,17.0625,0
49840,-4.1875,-0.875,17,0
49860,-9.625,-2.5,19.8125,0
49880,-13.375,-2.125,20.9375,0
49900,-12.75,-1.3125,16.6875,0
49920,-14.3125,-2.6875,13.625,0
49940,-15,-6.6875,11.4375,0
49960,-13.125,-11.4375,10.9375,0
49980,-11.5625,-12.75,9.5625,0
50000,-8.5625,-11.3125,5.8125,0
50020,-8.1875,-14.0625,4.4375,0
50040,-7.9375,-16.5625,5.625,0
50060,-7.5625,-16.75,7.1875,0
50070,-7.6875,-14.3125,8.6875,0
50090,-9.625,-11.6875,9.5,0
50110,-14.625,-8.875,10.4375,0
50130,-15.625,-6.4375,12.4375,0
50150,-12.875,-1,12.125,0
50160,-6.375,0.3125,8.8125,0
50180,-2.5,-2.8125,6.25,0
50200,-4,-4.5,3.625,0
50220,-0.875,-1.5,-0.1875,0
50240,-2.3125,0.0625,-2.25,0
50260,-5.75,-3.6875,0.9375,0
50280,-6.25,-5.25,4.1875,0
50300,-5.6875,-3.875,3.6875,0
50320,-7.125,2.25,-0.8125,0
50340,-12.8125,3.6875,-3.3125,0
50360,-9.75,-3.25,2,0
50380,-2.25,-5.125,5.6875,0
50400,-2.3125,-1.3125,-0.5625,0
50420,-8.1875,-3.5625,-2.1875,0
50440,-12.75,-6.75,1.75,0
50460,-5.625,-11,1.0625,0
50480,0.375,-12.9375,0.625,0
50500,-8.4375,-16.3125,-0.6875,0
50520,-14.8125,-19,5.5625,0
50540,-14.9375,-18.8125,5,0
50560,-7.1875,-19,-1.6875,0
50580,-7,-20.9375,-5.875,0
50600,-7.5,-24.875,-2.625,0
50620,-8.6875,-24.75,-0.4375,0
50640,-10.5,-20.75,-0.6875,0
50660,-9.3125,-20.375,-1.875,0
50680,-2.4375,-22.4375,-0.5,0
50700,6.375,-26.25,0.75,0
50720,8.1875,-26.4375,1.75,0
50740,2.375,-23.5625,-1.9375,0
50760,0,-25.1875,-3.875,0
50780,1.75,-28.625,-3.0625,0
50800,2.4375,-28.875,-5.6875,0
50820,2.6875,-26.5,-8.25,0
50840,2.875,-26.125,-9.8125,0
50860,3.625,-28.25,-8.6875,0
50880,0.1875,-30.125,-9.625,0
50900,-3.875,-26.4375,-12.6875,0
50920,-7.9375,-22.375,-14.8125,0
50940,-7.25,-22.875,-11.6875,0
50960,-6.0625,-24.9375,-13.25,0
50980,-5.5625,-24.375,-15.5625,0
51000,-9.375,-19,-17.5,0
51020,-13.5,-16,-19.875,0
51040,-17.375,-16.1875,-19.0625,0
51090,-5.5,-14.0625,-22.3125,0
51110,-4.625,-10.625,-28.125,0
51130,-8.6875,-10.375,-31.375,0
51140,-5.9375,-8,-38.1875,0
51150,-10,-6.125,-39.5,0
51170,-15.4375,-3.375,-38.6875,0
51190,-17.875,-1.5,-37.6875,0
51210,-23.375,3.5625,-33.875,0
51210,-28.1875,7.5,-32.25,0
51230,-31.125,8.875,-31.1875,0
51240,-31.25,11.5,-32.0625,0
51260,-28.6875,10.5,-31.125,0
51280,-27.125,11.8125,-30.125,0
51300,-29.5625,13.5,-30.25,0
51320,-34.5625,17.6875,-30.8125,0
51340,-33.4375,16.875,-27.0625,0
51360,-26.8125,15.4375,-22.5625,0
51380,-22.75,16.875,-22,0
51400,-23.5,19.25,-21.625,0
51420,-22.0625,23.25,-16.6875,0
51440,-17.0625,23.3125,-8.8125,0
51460,-8.3125,21.625,0.375,0
51480,-0.3125,24.25,10,0
51500,5.5625,26.5,20.5,0
51520,9.6875,27.9375,30.625,0
51540,15.5625,29.375,42.3125,0
51560,17.375,36.4375,54.8125,0
51580,15.375,40.0625,69.75,0
51600,16.6875,38,74.5625,0
51620,17.875,33.25,76.3125,0
51640,18.3125,30.1875,76.5625,0
51660,18,26.5625,74.3125,0
51680,12,19.25,73.0625,0
51700,0.75,17.3125,73.1875,0
51720,-7.9375,16.4375,74.4375,0
51740,-5.5625,17.9375,69.6875,0
51760,-9.1875,26.1875,61.0625,0
51780,-8.25,26.875,55.8125,0
51800,-13.6875,26.8125,52.1875,0
51820,-10,26.75,49.1875,0
51840,-10.9375,21.875,46.375,0
51860,-11.8125,17.5625,38.75,0
51880,-3.25,19.9375,28,0
51900,-3.5,19.25,22.875,0
51920,-2,16.0625,18.8125,0
51940,0.75,6.5625,15.25,0
51960,8.125,1.25,8.625,0
51980,8.75,0.75,1.1875,0
52000,4.9375,-0.3125,-0.0625,0
52010,2.75,-1.625,4.1875,0
52030,3,-5.4375,5.25,0
52050,3.6875,-6.125,2.3125,0
52070,-4.75,-1.25,1.9375,0
52090,-9.375,-3.5625,7.875,0
52110,-6.5625,-2,12.3125,0
52130,-8.5,0.375,3.625,0
52150,-5.875,-0.5,0.5,0
52170,-7.5625,-8.6875,4.4375,0
52190,-4.8125,-10.8125,9.8125,0
52210,-5.4375,-8.6875,5.3125,0
52230,-3.875,-9.8125,0.3125,0
52250,-3.625,-15.3125,1.375,0
52270,-0.6875,-17.3125,4.4375,0
52290,0.875,-15.8125,0.375,0
52310,-0.4375,-15.5,-3.125,0
52330,-1.5,-19.25,-4.3125,0
52350,-0.6875,-23.3125,-1.8125,0
52370,0.625,-25.1875,-2.625,0
52390,-2.0625,-26.5,-4.5625,0
52410,-11.0625,-28.75,-2,0
52430,-15,-29.3125,2.6875,0
52450,-9.5625,-29.0625,2.9375,0
52470,-2.375,-30.9375,0.375,0
52490,1.1875,-29,-2.375,0
52510,1.375,-29.4375,-5.125,0
52530,-1.125,-28.6875,-5.625,0
52550,-2.375,-28.1875,-8.0625,0
52570,-3.75,-26.875,-9.0625,0
52590,-6.25,-26.625,-6.0625,0
52610,-4.1875,-26.6875,-5.3125,0
52630,-3.8125,-25.8125,-5.5625,0
52650,-8,-22.75,-8.625,0
52670,-12,-21.1875,-8.4375,0
52690,-7.6875,-19.875,-10,0
52710,-1.3125,-19.6875,-10.875,0
52730,-0.1875,-18.125,-14.125,0
52750,-3.25,-16.625,-16.125,0
52770,-1.3125,-16.6875,-17,0
52780,1.5,-16.0625,-17.75,0
52800,-3.4375,-14.25,-17.375,0
52820,-4.875,-11.5625,-17.9375,0
52840,-7.4375,-7.125,-12.3125,0
52860,-10.8125,-0.75,-6.4375,0
52880,-11.5625,2.875,-0.6875,0
52900,-11.75,11.5625,4.625,0
52920,-12.125,24.375,11,0
52940,-8.0625,32.6875,23.1875,0
52960,2.4375,43.6875,29.0625,0
52980,5.6875,53.9375,32.125,0
53000,-1.75,59.4375,32.8125,0
53020,-0.9375,61.75,31.0625,0
53040,0.4375,57.875,24.5,0
53060,4.625,48.625,20.6875,0
53080,0.625,44.875,15.6875,0
53100,-0.875,39.4375,7.875,0
53120,-0.5625,30.8125,8.0625,0
53140,5.3125,24.125,11,0
53160,5.1875,20,9.625,0
53180,-3.125,16.6875,6.375,0
53200,-2.9375,14.4375,4.5,0
53220,-1.375,12.3125,4.625,0
53240,1.75,12,5.25,2000
53260,-2.1875,8.625,6.5625,0
53280,-5.75,6.0625,5.4375,0
53300,-5.1875,4.1875,3.875,0
53320,-9,4.125,3,0
53340,-8.25,1.875,2.5,0
53360,-6.5,-1.1875,1,0
53380,-8.5,0.75,0.0625,0
53400,-8.125,0.25,1.25,0
53420,-5.25,-3.9375,3.5625,0
53440,-1.25,-3,5.5625,0
53460,3.3125,-6.25,4.3125,0
53480,0.625,-5.5625,-1.5625,0
53500,3.5,-5.6875,0.75,0
53520,4.9375,-10.3125,2,0
53540,-1.25,-8,1.1875,0
53560,-1.3125,-8.75,-0.9375,0
53580,-0.3125,-9.5625,-3,0
53600,0.5,-13,-5.125,0
53620,-1.375,-16.6875,-5.125,0
53640,-4.9375,-18.25,-6.75,0
53660,-3.75,-18.5,-7.6875,0
53680,-1.5625,-19.875,-9.1875,0
53700,-0.625,-21.5,-10.5,0
53720,-3.625,-22.6875,-9.875,0
53740,-3.8125,-25.0625,-9.125,0
53760,-3.1875,-24.625,-7.875,0
53780,-0.8125,-24.8125,-9.875,0
53800,-3.3125,-26.125,-7.5625,0
53820,-5.1875,-26.625,-7.0625,0
53840,-4,-26.25,-8,0
53860,-3.375,-23.9375,-6.75,0
53880,-5.125,-20.5625,-3.4375,0
53900,-7.25,-15,-0.3125,0
53920,-6.75,-8.3125,1.8125,0
53940,-2.8125,-2.125,1.4375,0
53960,-1.3125,1.75,2.5,0
53980,-3.8125,7.8125,5.6875,0
54000,-5.5625,16.25,9.0625,0
54020,-3.9375,23.625,10.5625,0
54040,0.375,26.5,11.25,0
54060,4.5,29.0625,12.5,0
54080,6.3125,30.875,10.5,0
54100,6.5625,29.5,11.875,0
54120,6.9375,24.25,9,0
54140,5.1875,19.0625,6.9375,0
54160,5.875,14.8125,3.5,0
54180,3.375,11.6875,2.625,0
54200,-0.375,11.25,2.625,0
54220,0.875,11.25,-0.4375,0
54240,2.375,11.3125,-0.375,0
54260,3.8125,11.25,0.4375,0
54280,1.3125,11.625,2.625,0
54300,4.0625,11.5625,4.6875,0
54320,4.1875,9.375,5.1875,0
54340,2.625,6.875,5.0625,0
54360,1.4375,3.6875,4,0
54380,0,-0.6875,2.625,0
54400,0.375,-5.125,2.1875,0
54420,3.625,-8.3125,0.125,0
54440,5.25,-11.75,-0.875,0
54460,4.25,-14.6875,-2.6875,0
54480,1.375,-16.4375,-3.125,0
54500,0.375,-19.25,-3.25,0
54520,1.8125,-21.25,-3.8125,0
54540,0.625,-23.9375,-4.4375,0
54560,1.5,-25.5625,-4.9375,0
54580,1.875,-27.3125,-6.4375,0
54600,1,-27.875,-7.4375,0
54620,0.75,-28.5625,-8.625,0
54640,0.875,-29.6875,-8.0625,0
54660,1,-30.5625,-9.0625,0
54680,1.6875,-31.75,-9,0
54700,0.6875,-30.8125,-8.6875,0
54720,-0.5625,-29.5,-12.25,0
54740,-1.875,-30,-10.125,0
54780,-5.875,-25.25,-9.75,0
54790,-4.3125,-23.4375,-11.5,0
54810,-3.9375,-20.75,-13,0
54830,-3.3125,-18.4375,-12.6875,0
54850,-7.875,-14.875,-13,0
54870,-12.5625,-11.875,-11.6875,0
54890,-15.1875,-7.5625,-7.75,0
54910,-11.75,-6.5625,-5.1875,0
54930,-14.6875,-10.1875,-2.625,0
54950,-17.625,-8.8125,-6.8125,0
54970,-20.625,-4.5,-11.125,0
54990,-26,-1.0625,-11.875,0
55010,-26.5,1.5625,-14.9375,0
55030,-23,1.5625,-18.375,0
55050,-23.25,0.375,-21.5625,0
55070,-23.125,2.8125,-24.125,0
55090,-21.6875,5.6875,-21.25,0
55110,-21.3125,8.875,-18.1875,0
55130,-25.25,10.5625,-18.4375,0
55150,-29.3125,11.9375,-18.75,0
55170,-30.6875,13.875,-16.75,0
55190,-28.125,15.6875,-17.1875,0
55210,-30.5625,17.1875,-15.5,0
55230,-31.8125,19.0625,-13.75,0
55250,-29.8125,19.6875,-16.625,0
55270,-29.875,18.9375,-19.8125,0
55290,-31.5,20.125,-20.0625,0
55310,-30.25,21.1875,-18.8125,0
55330,-25.125,20.8125,-18.4375,0
55350,-26.25,20.1875,-18.1875,0
55360,-30.375,22.3125,-16.9375,0
55380,-31.125,24.6875,-12.75,0
55400,-29.625,25.0625,-7.4375,0
55420,-24.625,26.0625,-4.75,0
55440,-18.9375,28.4375,-3.875,0
55460,-18.25,32,-5.5625,0
55480,-19.4375,33.0625,-6.5625,0
55500,-18,32.875,-5.75,0
55520,-15.125,34.1875,-6.0625,0
55540,-13.375,36.5625,-6.0625,0
55560,-10.5625,39.75,-6.9375,0
55580,-11.6875,42.5,-8.1875,0
55600,-15.25,44.75,-9.8125,0
55620,-16.6875,47.625,-10,0
55640,-14.25,49.75,-9.875,0
55660,-14.9375,50.3125,-10.625,0
55680,-15.4375,50.125,-12.5,0
55700,-16.9375,49.3125,-14.125,0
55720,-16.6875,48.5625,-15,0
55740,-13.0625,45.5,-13.8125,0
55760,-9.1875,42.8125,-12.9375,0
55780,-10.5,41.625,-12.5,0
55800,-13.75,40,-14,0
55820,-12.75,36.375,-15.3125,0
55840,-11.875,32,-14.125,0
55860,-10.75,30.6875,-13,0
55880,-12.4375,30.3125,-8.25,0
55900,-10.125,29.625,-5.5,0
55920,-8.25,27.5625,-4.25,0
55940,-9.75,27.375,-2.75,0
55960,-12.4375,29.0625,3.4375,0
55980,-8.6875,27.8125,9,0
56000,-2.4375,25.5625,14.0625,0
56020,-2.5,23.75,13.375,0
56040,-1.625,23.875,10.1875,0
56060,-7.3125,25,9.25,0
56080,-9.4375,25.9375,8.0625,0
56100,-6.875,25,8.0625,0
56120,-2.5,24.375,7.375,0
56140,-1.0625,23.0625,5.4375,0
56160,-1.6875,23,3.625,0
56180,-0.8125,22.4375,2.375,0
56200,-0.3125,22.75,0.6875,0
56220,-2.125,22.8125,1.6875,0
56240,-4.1875,22.625,1.9375,0
56260,-4.1875,22.25,1.625,0
56280,1.375,21.625,-1.5625,0
56300,0.0625,18.8125,-1.75,0
56320,-3.8125,16.375,0.3125,0
56340,-3.5625,14.625,0.25,0
56360,-2.875,15.4375,0.3125,0
56380,-5,13.75,3.25,0
56400,-2.3125,11.875,3.875,0
56420,2.125,9.75,5.5625,0
56440,8.9375,8.1875,4.6875,0
56460,13.4375,6.1875,4.125,0
56480,10.9375,8.375,7.4375,0
56500,7.125,12.0625,12.6875,0
56520,3.625,14.0625,15.5,0
56540,10,12.25,14.625,0
56560,15.8125,9.375,13,0
56580,20.75,9.3125,15.875,0
56600,4.875,11.125,18.25,0
56620,1.75,11.9375,15.4375,0
56640,14.8125,6.5625,17.125,0
56660,25.9375,1.3125,19.375,0
56680,25.5,3.625,21.3125,0
56700,12.4375,6.0625,20.0625,0
56720,11.5625,5.625,17.8125,0
56740,17.25,2.125,17.375,0
56760,22.0625,-0.75,18.1875,0
56780,17.0625,-0.6875,20.75,0
56800,10.1875,-3,21.5,0
56820,10.5625,-8.1875,21.9375,0
56840,14.5625,-10.625,21.6875,0
56860,14.25,-10.875,18.375,0
56880,8.5625,-11.1875,17,0
56900,6.625,-13.125,18.25,0
56920,10.5,-16.0625,17.875,0
56940,14.5625,-16.6875,16.3125,0
56960,10.75,-17.3125,15.6875,0
56980,5.8125,-17.8125,14.875,0
57000,3.875,-20,16.125,0
57020,7.875,-22.0625,17,0
57040,9.5,-23.25,15.125,0
57060,6.25,-22.875,15,0
57080,1.875,-22.125,16,0
57100,2.1875,-23,14.875,0
57120,3.1875,-23.0625,13.875,0
57140,6.4375,-23,14.125,0
57160,5.1875,-24.25,15.3125,0
57180,1.125,-24.5625,15.6875,0
57200,-0.4375,-25.5625,16.1875,0
57220,3.125,-27.125,16.875,0
57240,1.3125,-28,15.75,0
57260,0.375,-28.5,13.8125,0
57280,-0.0625,-28.5,13.8125,0
57290,2.875,-29.5625,14.6875,0
57320,3.0625,-30.625,13.1875,0
57330,1.9375,-30.9375,12.0625,0
57350,2.25,-30.75,10.9375,0
57370,3.625,-31.6875,10.25,0
57390,4.125,-31.875,9.6875,0
57410,5.125,-32.0625,7.8125,0
57430,4.125,-32.3125,7.1875,0
57450,2.875,-33.5625,5.8125,0
57470,6.375,-33.75,4.8125,0
57490,7.5625,-35.1875,4.25,0
57510,3.8125,-35.625,1.375,0
57530,-0.1875,-35.3125,1.5,0
57550,0.5,-36.5625,2.9375,0
57570,-0.5,-37.625,3.8125,0
57590,-0.6875,-37.5625,3.0625,0
57610,-3.25,-37.75,1.5,0
57630,-5.4375,-38.5625,1.9375,0
57650,-4.5,-39.1875,1.8125,0
57670,-4.875,-39.8125,1.875,0
57690,-3.6875,-39.5,2.125,0
57710,-4.8125,-39.25,0.8125,0
57730,-5.75,-40.6875,0.1875,0
57750,-6.3125,-41.4375,-0.0625,0
57770,-6.8125,-41.5625,-1.25,0
57790,-7.8125,-41.8125,-3.8125,0
57810,-6.375,-42.125,-5.375,0
57830,-4.3125,-42.1875,-7.1875,0
57850,-6.8125,-42.5625,-8.5625,0
57870,-9.75,-40.6875,-10.375,0
57890,-4.875,-39.9375,-13.5625,0
57910,0.8125,-40.75,-15.5625,0
57930,-1.625,-41.875,-16.1875,0
57950,-6.3125,-40.375,-17.875,0
57970,-6.6875,-36.0625,-19.5,0
57990,-3.0625,-33.1875,-18.6875,0
58010,-1.1875,-32.9375,-18.25,0
58030,-5.4375,-31.1875,-19.6875,0
58050,-5.8125,-26.0625,-25.5,0
58070,-1.875,-21,-28.75,0
58090,2,-19.75,-24.5,0
58110,1.25,-20.8125,-17.5,0
58130,-0.9375,-21.6875,-15.4375,0
58150,-4.3125,-17.875,-19.1875,0
58170,-10.25,-13.6875,-19.8125,0
58190,-9.0625,-10.5,-16.4375,0
58210,-5.25,-10.1875,-15.625,0
58230,-7.125,-13.5625,-15.9375,0
58250,-11.6875,-14.125,-19.25,0
58270,-11.6875,-9.9375,-21.4375,0
58290,-12.8125,-5.9375,-21.25,0
58310,-11.4375,-4.125,-20.625,0
58330,-11.75,-3.875,-20.1875,0
58350,-12.875,0,-21.625,0
58370,-9.125,3.75,-24,0
58390,-9,6.0625,-23.8125,0
58410,-11.6875,6.625,-22.875,0
58430,-11.3125,7.375,-20.125,0
58450,-8.5625,8,-20.75,0
58470,-8.75,9,-20.75,0
58490,-10.9375,10,-20.125,0
58510,-16.25,14,-19.6875,0
58530,-16,15.0625,-19.25,0
58550,-13.0625,14.625,-21.9375,0
58570,-13.625,13.6875,-22.5625,0
58590,-18.0625,15.1875,-24.625,0
58610,-21.3125,14.75,-24.5625,0
58630,-22.625,14.9375,-24.3125,0
58650,-22.9375,14.9375,-22.9375,0
58670,-25.0625,14.3125,-22.625,0
58690,-27.9375,13.375,-20.8125,0
58710,-32.875,13.0625,-18.75,0
58730,-35,13.25,-19.3125,0
58750,-37,12.875,-18.625,0
58770,-39.8125,14.875,-16.25,0
58790,-40.8125,17.4375,-12.9375,0
58810,-37,18.625,-13.375,0
58830,-36.8125,19.8125,-12.1875,0
58850,-37.5625,21.5625,-12.125,0
58870,-36.9375,24.3125,-11.9375,0
58890,-36.375,28.1875,-11.5,0
58910,-35.3125,30.3125,-11.5,0
58930,-33.5,31.375,-12.8125,0
58950,-31.375,30.6875,-14.3125,0
58970,-31.1875,30.375,-15.125,0
58990,-29.625,31.5,-16.5,0
59010,-28.9375,33.25,-16.875,0
59030,-27.625,34.1875,-18.125,0
59050,-26.6875,33.5625,-18.25,0
59070,-26.5625,34.3125,-16.3125,0
59090,-24.9375,35.125,-14,0
59110,-24.0625,35.875,-10.6875,0
59130,-23.625,36.625,-6.8125,0
59150,-24.9375,38.0625,-3.8125,0
59170,-27,40.5625,-1.1875,0
59190,-28.125,44.75,2.6875,0
59210,-28.5625,51.375,9.125,0
59230,-20.875,54.4375,14.9375,0
59250,-6.5625,51.875,18.0625,0
59270,-1.5625,47.625,19.25,0
59290,-2.1875,46.25,18.9375,0
59310,-4.8125,48.5,19,0
59330,-8.9375,52.5625,21.375,0
59350,-9.6875,55.8125,24.1875,0
59370,-7.0625,52.625,28.1875,0
59390,-1.9375,50,31.0625,0
59410,0.0625,47.625,30.6875,0
59430,1.25,48.1875,29.9375,0
59450,2.625,44.875,29.75,0
59470,5.4375,37.625,28.8125,0
59490,5.8125,32.25,28.9375,0
59510,5.25,31.1875,25.375,0
59530,2.75,31.1875,23.5625,0
59550,3.75,27.3125,22.4375,0
59570,-2.875,21.375,26.25,0
59590,-4.1875,17.1875,31.8125,0
59610,0.375,14.5625,34.125,0
59630,5.5,11.9375,33.6875,0
59650,5,11.3125,31,0
59670,1.6875,12,29.4375,0
59690,3.5,9.25,30.1875,0
59710,12.625,5.3125,28.3125,0
59730,17.125,0,25.75,0
59750,13.9375,-2,22.625,0
59770,9.625,-1.9375,21.6875,0
59790,2.1875,-4.1875,24.9375,0
59810,8.8125,-6.125,26.375,0
59830,18.9375,-9.0625,26.8125,0
59850,20.75,-9.9375,26.3125,0
59870,15.0625,-8.1875,25.1875,0
59890,6.1875,-10.9375,29.25,0
59910,8.625,-13.8125,29.625,0
59930,22.875,-16.6875,28.625,0
59950,23,-19.375,26.5,0
59970,13.875,-18.5,22.1875,0
59990,4.5625,-20.9375,22.3125,0
60010,3.5,-24.5,23.875,0
60030,6.6875,-26.5,23.625,0
60050,13.1875,-27.75,22.1875,0
60070,9.375,-27.125,18.6875,0
60090,1.5625,-26.6875,18.125,0
60110,3.1875,-29.5625,18.875,0
60130,9.5,-31.875,19.0625,0
60150,12.6875,-32.25,16.5625,0
60170,9.75,-32.3125,14.125,0
60190,3.375,-33.3125,14,0
60210,3.5,-35.4375,13.1875,0
60230,12.375,-37.5625,10.875,0
60250,15.625,-39.625,7.1875,0
60270,10.375,-40.625,4.625,0
60290,7.6875,-43.6875,3.375,0
60310,8,-46.5625,4,0
60330,5.6875,-50.0625,2,0
60350,-0.25,-52.25,1.3125,0
60370,-4.5625,-53.1875,1.6875,0
60390,-7.75,-54.6875,2.0625,0
60410,-7.875,-54.4375,0,0
60430,-7.875,-54.1875,-3.9375,0
60450,-9.3125,-54,-7.1875,0
60470,-12.75,-53.3125,-8.875,0
60490,-14.0625,-51.125,-10.4375,0
60510,-11.5,-50,-12.1875,0
60530,-12.5,-49.3125,-13.4375,0
60550,-15.125,-49.5,-17.0625,0
60570,-12.9375,-49.5,-20.4375,0
60590,-13.0625,-47.75,-21.8125,0
60610,-16.375,-45.75,-21.1875,0
60630,-17.1875,-46.3125,-22.1875,0
60650,-14.625,-46.9375,-25.5625,0
60670,-13.6875,-44.9375,-28.25,0
60690,-14.6875,-42.3125,-28,0
60710,-15.125,-39.4375,-26.4375,0
60730,-17.5,-38.125,-28.625,0
60750,-19.9375,-37.5625,-31.6875,0
60760,-19.8125,-35.625,-32.4375,0
60780,-10.25,-32.8125,-36,0
60800,-1.4375,-31.8125,-38.3125,0
60820,-2.125,-30.4375,-42.25,0
60840,-14.8125,-29.1875,-42.0625,0
60860,-19.8125,-24,-40.6875,0
60880,-16.6875,-21.0625,-43.5,0
60900,-14.8125,-17.625,-44.9375,0
60920,-18.375,-17.3125,-40.8125,0
60940,-26.3125,-11.4375,-35.25,0
60960,-28.8125,-3.9375,-33.8125,0
60980,-34.4375,-0.1875,-36.6875,0
61000,-35.6875,4.875,-39.375,0
61020,-34.3125,9.25,-38.875,0
61040,-31.6875,10.625,-32.125,0
61060,-29.875,13.0625,-26.75,0
61080,-31.25,19.5,-24.375,0
61100,-33.125,22.4375,-24.625,0
61120,-28.6875,25.8125,-26.5625,0
61140,-27.5625,28.6875,-26.9375,0
61160,-28.75,35.25,-25.5,0
61180,-32.5625,38.5625,-22.5625,0
61200,-32.1875,41.1875,-22.375,0
61220,-30.375,44.3125,-23.1875,0
61240,-33.75,46.6875,-22,0
61260,-36,48.8125,-18.3125,0
61280,-29.875,51.25,-14.1875,0
61300,-25.3125,51.8125,-12.625,0
61320,-24.4375,53.8125,-13,0
61340,-21.5,56.375,-12.25,0
61360,-19.6875,56.8125,-11.75,0
61380,-23.5625,59.5,-10.75,0
61400,-16.1875,55.6875,-8.625,0
61420,-3.5625,48.625,-6.625,0
61440,2.3125,41.1875,-4.4375,0
61460,-2.75,41.0625,-6.8125,0
61480,-9.25,44.375,-8.9375,0
61500,-12.5625,44.3125,-7.75,0
61520,-7.4375,40.625,-3.125,0
61540,-3.0625,38.375,-0.125,0
61560,0.5,40.0625,1.6875,0
61580,-2.8125,43,4.9375,0
61600,-5.25,45.8125,7.75,0
61620,-6.1875,45.3125,11.0625,0
61640,-0.75,44.6875,17.875,0
61660,1.3125,43.5,21.125,0
61680,-0.5,46.6875,19.75,0
61700,-0.5,47.8125,18,0
61720,1.3125,45,20.125,0
61740,-0.25,42.0625,21.75,0
61760,-0.6875,40.9375,23.0625,0
61780,3.875,41.4375,24.0625,0
61800,12,37.1875,22.75,0
61820,14.9375,30.5,20.9375,0
61840,13.1875,26.3125,19.6875,0
61860,10.0625,27.625,19.9375,0
61880,5.75,27.375,21.375,0
61900,4.1875,23.75,22.125,0
61920,7.375,19.8125,23.875,0
61940,9.25,16.1875,24.5,0
61960,4.0625,13.375,27,0
61980,2.0625,9.3125,29.4375,0
62000,7.5,6.5,29.1875,0
62020,14,6.1875,26.0625,0
62040,9.8125,5.375,23.5,0
62060,2.875,4.5625,22.9375,0
62080,1.875,5.5,22.4375,0
62100,6.6875,2.875,23.3125,0
62120,9.0625,-2,23.25,0
62140,7.125,-5.25,22.125,0
62160,1.125,-6.75,22.25,0
62180,-0.6875,-6.375,23.625,0
62200,-2.375,-5.625,24.375,0
62220,-5,-7.75,27.1875,0
62240,-3.0625,-9.875,27,0
62260,-3.0625,-11,26.5,0
62280,-6.125,-11.25,24.5625,0
62300,-4.0625,-12,24,0
62320,-4.25,-12.3125,23.0625,0
62340,-5.75,-12.75,22.375,0
62360,-7.75,-13.3125,21.75,0
62380,-5.375,-14.75,20.9375,0
62400,-4,-16.125,20,0
62420,-3.5625,-17.1875,18.5,0
62440,-4.875,-20.125,17.125,0
62460,-9.0625,-22.8125,18.125,0
62480,-11.9375,-25.25,18.75,0
62500,-7.9375,-27.5,16.125,0
62520,-6.5625,-29.375,15.125,0
62540,-13.6875,-31.5625,14.4375,0
62560,-13.6875,-33.125,13.625,0
62580,-13.6875,-35.5625,13.75,0
62600,-15.625,-36,12.3125,0
62620,-13.9375,-36.25,9.5625,0
62640,-13.0625,-38.5625,8.75,0
62660,-11.75,-40.625,6.875,0
62680,-8.625,-43.375,3.1875,0
62700,-8.0625,-45.125,-0.875,0
62720,-9.875,-45.375,-4.25,0
62740,-7,-48.375,-4.25,0
62750,-1.5,-49.4375,-4.8125,0
62770,3,-47.6875,-7.625,0
62790,2,-45.6875,-9.75,0
62810,-2.25,-44.375,-9.875,0
62830,-2,-44.625,-10.75,0
62850,-0.125,-45.125,-13,0
62870,2.5625,-44.25,-14.0625,0
62890,2.5625,-42.25,-13.8125,0
62910,1.0625,-41,-14.25,0
62930,1.375,-41.125,-13.6875,0
62950,-1.125,-40.8125,-14.125,0
62970,-3.375,-40.6875,-15.625,0
62990,-0.9375,-39.875,-16.4375,0
63010,-3.3125,-39.375,-16.4375,0
63030,-6.125,-39.1875,-17.5,0
63050,-9.5,-40.3125,-17.1875,0
63070,-8.5625,-41,-17.625,0
63090,-9.0625,-42.0625,-16.875,0
63110,-7.375,-42.25,-16.6875,0
63130,-6.8125,-42,-18.625,0
63150,-10.75,-41.75,-21.0625,0
63170,-14.25,-39.3125,-22.125,0
63190,-15.6875,-37.0625,-21,0
63210,-13.9375,-36,-22.9375,0
63230,-10.25,-35.1875,-26.5625,0
63250,-10.875,-34.8125,-28,0
63270,-11.375,-32.4375,-28.875,0
63290,-11.4375,-30.25,-30,0
63310,-11.625,-27.3125,-29.4375,0
63330,-11.875,-24.25,-28.875,0
63350,-10.5,-22.0625,-28.3125,0
63370,-9.9375,-19.9375,-26.5,0
63390,-10,-17.5625,-24.9375,0
63410,-8.5625,-14.3125,-23.25,0
63430,-6.6875,-11.4375,-22.0625,0
63450,-6.4375,-10.125,-21.5625,0
63470,-8.1875,-7.125,-22.375,0
63490,-10.8125,-4.5625,-20.5,0
63510,-9.375,-3.0625,-19.125,0
63530,-12.0625,-1.6875,-16.625,0
63550,-9.0625,-1.125,-12.1875,2001
63570,-5.8125,-0.375,-9.25,0
63590,-7.25,1.5625,-7.5625,0
63610,-8.75,2.6875,-5.5625,0
63630,-9.6875,1.8125,-2.9375,0
63650,-8.1875,1.0625,-3.125,0
63670,-6.8125,-0.125,-3.4375,0
63690,-7.875,-1.1875,-3.0625,0
63710,-10.8125,-0.875,-2.875,0
63730,-10.5625,0.375,-2.8125,0
63750,-7.1875,-0.125,-0.4375,0
63770,-2.0625,-1.0625,0.0625,0
63790,-0.3125,-2.5625,0.5,0
63810,2.1875,-3.8125,1.6875,0
63830,7.1875,-2.0625,3.625,0
63850,21.375,-0.0625,6.25,0
63870,42.75,1,12.375,0
63890,49.0625,-6.1875,17.0625,0
63910,43.6875,-10.75,15.625,0
63930,35.3125,-2.6875,20.3125,0
63950,40.1875,8.75,30.0625,0
63970,63.75,9.5625,38.3125,0
63990,70.4375,3.75,40.4375,0
64010,72.375,5.5,43.1875,0
64030,77.4375,17.5,48.9375,0
64050,81.3125,28.0625,57.1875,0
64070,76.75,29.375,60.875,0
64090,76.6875,34.75,63.25,0
64110,87.875,41.8125,67.8125,0
64130,87.0625,38.5,77.25,0
64150,81.75,37.125,82.8125,0
64170,81.375,46.6875,82.125,0
64190,79.25,49.6875,74.4375,0
64210,75.8125,45.8125,66,0
64230,73.0625,45.625,62.9375,0
64250,70.1875,45.4375,56.0625,0
64270,67.25,46.0625,43.25,0
64290,52.625,46.75,35.9375,0
64310,39.9375,42.9375,37.125,0
64330,39,37,34.75,0
64350,34.875,36.5625,29.4375,0
64370,23.625,36.4375,28.75,0
64390,14.9375,39.125,28.4375,0
64410,10.75,37.6875,34.25,0
64430,14.3125,32.75,33.25,0
64450,10.4375,32.25,33.875,0
64470,8.9375,29.75,29.75,0
64490,11.5625,23.875,23.4375,0
64510,9.8125,17.25,18.25,2000
64530,8.9375,15.9375,11.75,0
64550,6.8125,14.3125,7.3125,0
64570,3.9375,12.375,5.3125,0
64590,-1.8125,9.375,4.5625,0
64610,-0.0625,8,6.75,0
64630,7.4375,6.8125,7.625,0
64650,16.1875,3.9375,8.375,0
64670,7,3.1875,5.5625,0
64690,2.0625,1.9375,6.0625,0
64710,-1.25,-2.25,8.875,0
64730,1.75,-7.3125,8.9375,0
64750,4.875,-7.125,4.375,0
64770,2.875,-6.75,-4.9375,0
64790,-0.6875,-12.0625,-5.0625,0
64810,5.125,-19.75,1.8125,0
64830,7.9375,-22.75,1.375,0
64850,1,-20.25,-1.75,0
64870,-4,-18.8125,-4.625,0
64890,-1.4375,-18.9375,-5,0
64910,5.6875,-25.0625,-4.5,0
64930,9.0625,-31.25,-3.1875,0
64950,7.5625,-31.375,-5.6875,0
64970,3.25,-29.4375,-8.4375,0
64990,1.875,-29.5625,-11.8125,0
65010,-1.1875,-30.9375,-9.875,0
65030,0.875,-32.8125,-7.125,0
65050,6,-32.25,-6,0
65070,6.3125,-31.6875,-7.5625,0
65090,3.6875,-30.4375,-9.625,0
65110,-0.25,-29.5,-8.5,0
65130,0.375,-28.0625,-7.375,0
65150,1.125,-24.625,-7.6875,0
65170,3.0625,-25.125,-9.625,0
65190,3.75,-25.75,-11.25,0
65210,2.0625,-23.375,-10.25,0
65230,2.8125,-20,-8.6875,0
65250,1.25,-17.1875,-11.75,0
65270,-2.3125,-14.9375,-14.625,0
65290,-3.6875,-14.0625,-17,0
65310,-1.1875,-12.875,-15.5625,0
65330,0.125,-12.8125,-16.3125,0
65350,-2.75,-11.3125,-18.25,0
65370,-6.625,-8.0625,-19.8125,0
65390,-13.125,-3.5,-18.875,0
65410,-8.5,3.5625,-18.375,0
65430,1.875,6.75,-18.5,0
65450,-0.875,8.4375,-18.25,0
65460,-12.8125,19.875,-28.375,0
65480,-15.1875,19.5,-30,0
65500,-16.0625,18.8125,-32.75,0
65520,-13.5625,17.8125,-34.8125,0
65540,-17.9375,18.125,-36.6875,0
65560,-27.875,20.375,-38.1875,0
65580,-37.75,24.4375,-39.625,0
65600,-45,32,-38.4375,0
65620,-48.6875,37.625,-36.0625,0
65640,-49.375,37.3125,-32.6875,0
65660,-50.0625,35.625,-28.875,0
65680,-46,36.4375,-26.625,0
65700,-49.125,42.375,-27.0625,0
65720,-52.125,46.125,-28.6875,0
65740,-50.625,46.4375,-31,0
65760,-47.0625,42.4375,-32,0
65780,-42.25,40.875,-31.625,0
65800,-39.8125,42.5,-30.8125,0
65820,-44,45.75,-30,0
65840,-42.6875,48.5625,-30.125,0
65860,-40.25,52.125,-30.8125,0
65880,-39.625,53.8125,-31.25,0
65900,-35.5625,54.0625,-31.125,0
65920,-31.0625,54.9375,-30.25,0
65940,-30.4375,56.4375,-29.125,0
65960,-31.75,59.875,-28.5625,0
65980,-35.25,62.125,-27.8125,0
66000,-33.5,62.625,-29.625,0
66020,-28.5,61.5,-30.75,0
66040,-21.375,55.6875,-27.3125,0
66060,-14.625,50.875,-21.8125,0
66080,-14.3125,51.6875,-16.75,0
66090,-16.375,53.5625,-9.875,0
66110,-17,52.8125,-0.625,0
66130,-16.4375,52.6875,8.125,0
66150,-13.9375,49.0625,9.125,0
66170,-11.6875,44.4375,12,0
66190,-7.9375,40.875,18.1875,0
66210,-8,38.125,21.75,0
66230,-6.625,33.875,22.125,0
66250,-5.625,29.625,22.6875,0
66270,-4.8125,25.125,23.6875,0
66290,-2.75,24.0625,24.4375,0
66310,-3.375,24.75,23.5,0
66330,-4.625,25,23.9375,0
66350,-1.0625,21.375,22.5625,0
66370,4.75,17.375,22.0625,0
66390,9.1875,18.75,21,0
66410,9.5625,19.3125,17.9375,0
66430,4.0625,19.625,19.8125,0
66450,2.3125,16.375,22.4375,0
66470,6.5625,14.3125,27.25,0
66490,11.0625,11.5625,31.8125,0
66510,13.1875,9.8125,36.375,0
66530,13.25,13.0625,35.9375,0
66550,15.0625,14.6875,32.8125,0
66570,9.3125,12.5,30,0
66590,10.625,7.9375,28.6875,0
66610,11.125,5,27.125,0
66630,10.3125,1.875,27.3125,0
66650,8.5625,-0.5625,22.875,0
66670,10.6875,-4.9375,20.0625,0
66690,10.375,-9,20.0625,0
66710,10.375,-11.5,21.875,0
66730,8.9375,-8.875,23.25,0
66750,6.875,-11.4375,20.875,0
66770,11.125,-15.0625,20.9375,0
66790,11.75,-17.3125,22.125,0
66810,6.375,-16.5,22.5,0
66830,1.9375,-17.9375,21.4375,0
66850,3.1875,-22.9375,23.3125,0
66870,6,-24.75,23.3125,0
66890,6.5625,-23.875,20.875,0
66910,4,-23.5625,21.6875,0
66930,-0.6875,-25.375,24.25,0
66950,0.0625,-25.0625,22.875,0
66970,3.125,-26.3125,22.25,0
66990,4.625,-27.1875,24.4375,0
67010,3.9375,-26.5625,25.5,0
67030,2.75,-26.5625,24.8125,0
67050,-1.25,-26.625,24.5,0
67070,0.1875,-26.6875,22.8125,0
67090,4.625,-27.0625,21.8125,0
67110,8.4375,-27.5625,23.0625,0
67130,8.5,-27.3125,21.8125,0
67150,4.9375,-26.1875,20.5,0
67170,5.25,-27.3125,21,0
67190,6.1875,-29.4375,19.9375,0
67210,7.4375,-32.3125,19.125,0
67230,5.6875,-33.25,17.9375,0
67250,2.8125,-34.1875,15.8125,0
67270,2.8125,-35.0625,13.125,0
67290,3.875,-36.0625,12.75,0
67310,4.875,-36.1875,13.25,0
67330,6,-34.875,10.3125,0
67350,5.3125,-32.625,8.8125,0
67370,3.375,-31.5,8.8125,0
67390,1.375,-31.1875,7.5625,0
67410,0.3125,-29.875,5.8125,0
67430,-0.875,-29.9375,4.8125,0
67450,-5.5,-31.25,4,0
67460,-4.6875,-32.4375,4.6875,0
67480,-5.6875,-33.25,4.125,0
67500,-8.125,-35.5,4.25,0
67520,-8.4375,-38.0625,4.1875,0
67540,-10.8125,-41.375,1.875,0
67560,-10.5625,-42.4375,0.5625,0
67580,-10.625,-42.6875,-1.1875,0
67600,-12.9375,-43,-1.9375,0
67620,-13.125,-45,-2.125,0
67640,-9.375,-46.5,-4.4375,0
67660,-9,-46.875,-9.0625,0
67680,-8.1875,-46.4375,-10.375,0
67690,-8.6875,-47.5625,-9.0625,0
67710,-4.4375,-47.375,-9.875,0
67730,-3.1875,-46.625,-10.9375,0
67750,-5.125,-45.375,-11.3125,0
67770,-5.375,-45,-10.75,0
67790,-3.5625,-45.875,-9.0625,0
67810,0.3125,-44.9375,-10.5625,0
67830,-0.125,-44.5,-12.0625,0
67850,-4.4375,-42.875,-12.875,0
67870,-6,-40.75,-11.5625,0
67890,-4.5625,-40.125,-10.8125,0
67910,-4.625,-38.8125,-11,0
67930,-2.125,-37,-12.8125,0
67950,-2.125,-34.875,-13.6875,0
67970,-4,-31.5,-15,0
67990,-5,-27.3125,-16.375,0
68010,-5.25,-26.25,-13.75,0
68030,-4.0625,-24.5625,-14.1875,0
68040,-4.6875,-22.5,-17.3125,0
68060,-8.9375,-18.9375,-17.3125,0
68080,-9.9375,-12.875,-14.8125,0
68100,-12.0625,-9.375,-13,0
68120,-9.875,-6.625,-12.9375,0
68140,-8.0625,-7.5625,-15.3125,0
68160,-9.0625,-8.8125,-21.5625,0
68180,-8.25,-7.6875,-26.75,0
68200,-2.4375,-3.625,-26.5625,0
68220,-7.3125,-0.25,-26.625,0
68240,-13.5,0.5,-26.0625,0
68260,-15.3125,2.625,-24.4375,0
68280,-19.25,7.875,-25.5625,0
68300,-23.25,13.375,-24.9375,0
68320,-28.9375,15.375,-19.8125,0
68340,-33.3125,17.375,-18.1875,0
68360,-30.4375,19.0625,-20.125,0
68380,-30.375,20.5625,-22.5625,0
68400,-33.1875,24.625,-24.125,0
68420,-36.875,25.125,-28.3125,0
68440,-38.8125,22.625,-30.125,0
68460,-36.9375,22.875,-33.5,0
68480,-37.9375,28.9375,-32.5625,0
68500,-38.6875,33.625,-34.125,0
68520,-39.375,36.9375,-36.3125,0
68540,-37.875,38,-35.9375,0
68560,-35,35.625,-35.375,0
68580,-33.5,37.875,-37,0
68600,-37,40.625,-37.4375,0
68620,-37.6875,43.6875,-34.9375,0
68640,-37.625,45.25,-31.25,0
68660,-34.125,46.1875,-27.25,0
68680,-28.875,47.1875,-23.125,0
68700,-28.5625,49.4375,-20.4375,0
68720,-31.625,53,-14.875,0
68740,-29.9375,53.75,-7.375,0
68760,-21.6875,51,-3.0625,0
68780,-18.75,48.875,-3.5,0
68800,-20.5,50.5,-5.3125,0
68820,-24.8125,54.875,-4.8125,0
68840,-23.6875,56.75,-0.5,0
68860,-17.625,55.6875,1.5625,0
68880,-12.875,54.75,1.8125,0
68900,-14.4375,56.8125,2.875,0
68920,-16.3125,57.3125,5.875,0
68940,-10.625,55.875,8.875,0
68960,-5.3125,52.1875,8.625,0
68980,-6.125,52.5,6.3125,0
69000,-8,51.3125,7,0
69020,-10.9375,51.1875,13.5,0
69040,-9.6875,46.4375,18.9375,0
69060,-3.125,37.3125,22.625,0
69080,3.5625,26.875,21.8125,0
69100,5.875,23,19.8125,0
69120,-1.0625,23.4375,18.875,0
69140,-17.6875,25.25,22.5,0
69160,-22.1875,21.875,28.25,0
69180,-6.1875,15.25,26.1875,0
69200,5.5,8.75,23.375,0
69220,7.125,10.5,22.4375,0
69240,-4.3125,15.5625,24.625,0
69260,-22.75,15.625,27,0
69280,-19.5625,10.6875,29.4375,0
69300,-0.6875,2.375,28.4375,0
69320,10.3125,-1.0625,27.0625,0
69340,6.0625,1.625,26,0
69360,-2.875,5.5,22.3125,0
69380,-8.1875,1.5,20.4375,0
69400,-1.9375,-7.4375,17.9375,0
69420,9.25,-11,13.75,0
69440,14.625,-7.25,15.5,0
69460,8.5,-5.25,20.125,0
69480,-2.8125,-5.875,23.625,0
69500,-6.875,-8.875,26,0
69520,1.1875,-12.75,27.5,0
69540,11.375,-14.5625,27,0
69560,10.3125,-15.6875,25.6875,0
69580,4.0625,-15.6875,26.3125,0
69600,2.4375,-16.5625,26.5625,0
69620,6.375,-19.5625,22.9375,0
69640,12.9375,-20.8125,20.4375,0
69660,13.4375,-22.875,19.125,0
69680,12.5625,-24.3125,16.5,0
69700,9,-25.4375,15.0625,0
69720,12.8125,-27.375,14.25,0
69740,15.3125,-31.1875,14.375,0
69760,14.4375,-33.75,13,0
69780,13.6875,-35.5,11.0625,0
69800,11.625,-37.625,10.8125,0
69820,7.125,-41.875,12.5625,0
69840,7.1875,-47,13,0
69860,6.1875,-50.5,10.625,0
69880,4.25,-52.5,8.625,0
69900,0.625,-56.4375,6,0
69920,1.9375,-58.5,3.1875,0
69940,5.0625,-59.0625,1.9375,0
69960,6.5,-57.9375,1.9375,0
69980,5.4375,-56,-0.6875,0
70000,2.0625,-54.75,-2.375,0
70020,2.875,-53.875,-5.125,0
70040,7.5,-53.375,-7,0
70060,7.625,-51.8125,-5.9375,0
70080,3.4375,-49.6875,-8.5625,0
70100,-0.25,-48.375,-10.875,0
70120,0.75,-49.625,-11.4375,0
70140,5.375,-51,-11.3125,0
70160,3.6875,-47.125,-8.4375,0
70180,-3.5,-44.375,-7.5,0
70200,-10.3125,-43.875,-7.625,0
70220,-8.1875,-44.5625,-8.3125,0
70240,-3.5625,-45,-7.625,0
70260,2.0625,-44,-8.4375,0
70280,1.375,-42.75,-13.6875,0
70300,-2.25,-42.5625,-14.625,0
70320,-3.4375,-42.5625,-14.375,0
70340,-2.625,-41.9375,-12.625,0
70360,-1.3125,-40.0625,-11.75,0
70380,-3.875,-38.5,-14.375,0
70400,-4,-36.625,-15.8125,0
70420,-5.25,-32.5,-15.6875,0
70440,-5.625,-28.1875,-16.3125,0
70460,-5,-25.125,-17.9375,0
70480,-6.375,-22.0625,-20.875,0
70500,-6.3125,-19.625,-23.625,0
70520,-4.375,-18.8125,-25.0625,0
70540,-4.875,-16.375,-26.9375,0
70560,-8.25,-12.9375,-29.0625,0
70580,-9.1875,-11.625,-30.4375,0
70600,-8.25,-14.0625,-31.8125,0
70620,-7.75,-14.5625,-33.5625,0
70640,-9.4375,-13.0625,-34.5,0
70660,-10,-8.4375,-35.875,0
70680,-13.0625,-3.0625,-35.25,0
70700,-15.1875,2.875,-33.5625,0
70720,-14.375,3.75,-32.9375,0
70740,-8.25,4.0625,-37.0625,0
70760,-9.375,8.1875,-37.6875,0
70780,-10.8125,12.5,-37.875,0
70800,-19.625,15.875,-36.6875,0
70820,-25.6875,18.5,-35.375,0
70840,-24.0625,17.4375,-33.125,0
70860,-19.0625,17.0625,-35,0
70880,-23.25,19.1875,-35.875,0
70900,-29.1875,23.5625,-34,0
70920,-30.5625,25.8125,-31.375,0
70940,-24.6875,25.0625,-29.9375,0
70960,-21.625,25.375,-28.625,0
70980,-25,29.6875,-29.75,0
71000,-28,32.0625,-27.3125,0
71020,-25.3125,31.625,-23.6875,0
71040,-21.4375,30.25,-21.0625,0
71060,-21.3125,30.5625,-20.8125,0
71080,-23.875,31.8125,-20.6875,0
71100,-24,32.625,-19.5625,0
71120,-24.1875,33.125,-16.5,0
71140,-22,33.6875,-13.9375,0
71160,-23.5625,37.0625,-12.875,0
71180,-20.8125,40.6875,-10.3125,0
71200,-17.625,41.8125,-7.5625,0
71220,-16.3125,42.3125,-6.5625,0
71240,-17.875,45.3125,-7.625,0
71260,-19.1875,46.8125,-6.375,0
71280,-18.3125,45.75,-4.125,0
71300,-13.375,44.6875,-0.4375,0
71320,-11.0625,45.9375,3.6875,0
71340,-10.75,47.75,5.3125,0
71360,-14.5625,47.75,6.9375,0
71380,-15.875,47.8125,9.375,0
71400,-15.125,47.3125,13.25,0
71420,-7.9375,46.6875,15.75,0
71440,-4.0625,46.5625,17.1875,0
71450,-5.1875,47.3125,19,0
71470,-7.5625,48.125,21.125,0
71490,-13.5,48.4375,24.5,0
71510,-14.9375,44.875,27.875,0
71530,-5.75,39.6875,29.4375,0
71550,-3.0625,36.0625,28.9375,0
71570,-7.3125,34.0625,26.9375,0
71590,-12.8125,33.3125,26.5625,0
71610,-14.125,29.6875,29.25,0
71630,-6.5,24.625,30.25,0
71650,-1.0625,22,30.5,0
71670,0.625,20.3125,28.625,0
71690,-2.375,19.8125,26.375,0
71710,-6.75,21.4375,24.5625,0
71730,-4.1875,18.625,26.3125,0
71750,4.375,13.6875,26.5625,0
71770,10.5,12.5,24.1875,0
71790,6.4375,12.8125,20.375,0
71810,2,11.3125,21.8125,0
71830,3.625,7.25,23.375,0
71850,7.6875,3.6875,24.3125,0
71870,10.1875,4.0625,21.75,0
71890,8.8125,3.875,16.3125,0
71910,7.4375,2,10,0
71930,6.6875,1.5625,7.9375,0
71950,14.1875,-2,13.5625,0
71970,14.9375,-2.875,14.9375,0
71990,5.6875,-1,14.1875,0
72010,-1.6875,-1,15.375,0
72030,-6.3125,-3.3125,17.5625,0
72050,-3.6875,-7,21,0
72070,-0.4375,-9.625,23.8125,0
72090,2.1875,-10.8125,25.125,0
72110,-3.1875,-9.5,25.3125,0
72130,-6.75,-8.75,23.4375,0
72150,1.3125,-11.25,21.5,0
72170,13.75,-12.875,18.125,0
72190,16.8125,-14.5,14.5625,0
72210,12.6875,-15.375,11.75,0
72230,9.125,-18.375,9.1875,0
72250,11.75,-21.625,7.8125,0
72270,15,-25.125,6.3125,0
72290,14.0625,-27.0625,4.9375,0
72310,8.4375,-27.8125,4.625,0
72330,9,-30.125,4.3125,0
72350,10.1875,-34,4,0
72370,7,-36.25,4.6875,0
72390,2.6875,-36.9375,6.625,0
72410,0.125,-35.9375,7.6875,0
72430,-0.5625,-35.75,7.5625,0
72450,1.75,-37.875,7.4375,0
72470,2.9375,-38.8125,7.6875,0
72490,1.8125,-38.625,7.3125,0
72510,1.9375,-37.6875,7.3125,0
72530,-1.3125,-39.25,7.25,0
72550,1.3125,-40.3125,7.5,0
72570,1.75,-41.375,7.9375,0
72590,0.75,-41.25,9.25,0
72610,2.9375,-40.875,7.9375,0
72630,2.4375,-40.9375,5.8125,0
72650,0.6875,-40.3125,4.5625,0
72670,0.8125,-41.75,6.375,0
72690,3.8125,-42.375,7.5,0
72710,4.0625,-43,7.5625,0
72730,4.5625,-42.4375,5.6875,0
72750,3.3125,-40.375,3.875,0
72770,3.9375,-38.8125,1.8125,0
72790,6.125,-38.3125,-0.6875,0
72810,6.25,-37.625,-2.875,0
72830,7.6875,-35.6875,-5.625,0
72850,7.9375,-33.6875,-9.5625,0
72870,5.25,-33.8125,-12.625,0
72890,5.0625,-33.875,-13.5625,0
72910,6,-34.9375,-14.8125,0
72930,6.3125,-34.625,-16.25,0
72950,3,-32.25,-17.75,0
72970,-2.625,-31,-16.6875,0
72990,-3.875,-29.8125,-17.0625,0
73010,-0.6875,-29.3125,-18.125,0
73030,-0.9375,-29.3125,-19.5625,0
73050,-3.1875,-27.75,-17.625,0
73070,-5.3125,-24.5625,-12.4375,0
73090,-8,-24.3125,-8.75,0
73110,-5.5,-25.75,-8.4375,0
73130,-1.625,-27.0625,-11.5,0
73150,-4.875,-26.3125,-13.1875,0
73170,-8.125,-24.4375,-13.1875,0
73190,-9.5625,-23.5,-12.5,0
73210,-8,-21.4375,-13.5625,0
73230,-3.375,-21.625,-15.5625,0
73250,-1.625,-19.5625,-19.1875,0
73270,-6.625,-17.25,-21.5625,0
73290,-10.375,-14.0625,-23.125,0
73310,-10.3125,-13.5625,-22.1875,0
73330,-6.875,-14.4375,-20.5,0
73350,-6.25,-12.75,-19.5,0
73370,-11,-10.8125,-18.125,0
73390,-11.8125,-9.5625,-18,0
73410,-10.1875,-9.75,-17.6875,0
73420,-8.625,-8.0625,-19.8125,0
73440,-9.5,-6.5,-20.5625,0
73460,-10.4375,-5.25,-21.125,0
73480,-8.3125,-2.625,-21.3125,0
73500,-7.1875,-1.6875,-21.0625,0
73520,-6.375,-2.1875,-19.1875,0
73540,-6.4375,-0.875,-16.875,0
73560,-6.1875,0.625,-13.875,2001
73580,-7.375,2.5,-11.1875,0
73600,-6.75,2.875,-8.4375,0
73620,-4.9375,0.25,-5.6875,0
73640,-5.1875,-1.375,-5.9375,0
73660,-9.6875,-0.1875,-4.5625,0
73680,-13.5,-3,-1.25,0
73700,-15.5625,-8.875,4.4375,0
73720,-13.9375,-10.3125,7.4375,0
73740,-8.75,-10,6.5,0
73760,-4.6875,-8.875,7.0625,0
73780,1.875,-8.1875,6.4375,0
73800,9.75,-5.6875,3.375,0
73820,17.9375,-1.1875,2.625,0
73840,22.25,-2.625,7.8125,0
73860,35.6875,-4.75,14.8125,0
73880,46.0625,-6,17.5625,0
73900,50.8125,-2.0625,20.4375,0
73920,52,6.6875,20.8125,0
73940,61.1875,19.5,19.1875,0
73960,75.5625,30.5625,18.25,0
73980,86.25,32.375,22,0
74000,94.4375,40.75,25.125,0
74020,109.312,50.0625,34.1875,0
74040,106.438,57,46.375,0
74060,100.562,66.25,53.875,0
74080,102.5,80.4375,58.0625,0
74100,112.188,92.8125,62.6875,0
74120,121,99.25,68.875,0
74140,114.125,98.75,75.0625,0
74160,92.375,88.8125,83.4375,0
74180,80.0625,92.4375,72.0625,0
74200,65.9375,90.1875,60.9375,0
74220,50.3125,73.9375,56.0625,0
74240,36.8125,63.5,50.1875,0
74260,18.375,59.375,44.5,0
74280,8.5,59.125,31.125,0
74300,4.0625,46.8125,23.4375,0
74320,3.8125,34.0625,19.125,0
74340,6.4375,35.5,16.9375,0
74360,6.25,37.9375,9.3125,0
74380,-1.1875,35.5625,7.8125,0
74400,-3.25,28.625,10.1875,0
74420,-3.8125,24.5625,8.3125,0
74440,-1.25,21.625,8.0625,0
74460,-4.5625,21.75,9.125,0
74480,-10.0625,22.125,12.1875,0
74500,-10.5,21.6875,13.75,0
74520,-0.3125,19.625,8.5625,0
74540,6.3125,13.5,8,0
74560,3.5625,10.875,5.375,0
74580,-0.5625,10.375,2.125,0
74600,4.5625,4.4375,3.125,0
74620,2.3125,-1.125,5.25,0
74640,-1.8125,-0.4375,3.25,0
74660,-3.8125,-2.4375,1.25,0
74680,-5.5,-10.3125,6.625,0
74700,-0.1875,-10.625,10.25,0
74720,3.4375,-4.75,4.375,0
74740,0.5,-2.5,-2.1875,0
74760,0.75,-7.9375,0.875,0
74780,2.6875,-17.4375,4.0625,0
74800,4.625,-22.5,4.375,0
74820,5.3125,-18.875,1.0625,0
74840,-0.5,-17.875,-1.875,0
74860,4.4375,-21.5,-2.3125,0
74880,4.875,-26.9375,-0.375,0
74900,5.3125,-26.6875,-2.125,0
74920,3.375,-26.25,-4.75,0
74940,4.5,-25.875,-9.875,0
74960,4.125,-30.0625,-9,0
74980,1.8125,-31.6875,-4.125,0
75000,1.3125,-26.375,-5.1875,0
75020,0.4375,-25.5625,-11.4375,0
75040,2.9375,-27.25,-13.125,0
75060,3,-29.625,-9.1875,0
75080,2.875,-28.625,-7.8125,0
75100,3.625,-26.5,-8.4375,0
75120,-1.0625,-25.1875,-6.9375,0
75140,-3.6875,-23.5,-9.625,0
75160,-1.375,-24.0625,-11.0625,0
75180,1.6875,-23.25,-9.875,0
75200,0.4375,-20.6875,-11.9375,0
75220,-1.375,-18.625,-13.625,0
75240,-2.3125,-16.125,-15.1875,0
75260,-1.25,-14.375,-18.3125,0
75280,-0.75,-13.125,-20.1875,0
75300,-0.625,-13.125,-20,0
75320,-1.75,-15.375,-18.625,0
75340,-2.4375,-14.9375,-18.4375,0
75360,-6.125,-12.9375,-16.125,0
75380,-9.1875,-8.9375,-12.875,0
75400,-9.1875,-5.4375,-7.375,0
75420,-8.5625,-2.4375,-2.25,0
75440,-4.9375,4.75,0.5,0
75460,-5.9375,19.625,5.9375,0
75480,-2.6875,35.5,22.125,0
75500,-3,50.625,32.5,0
75520,-6,63.4375,41.25,0
75540,-10.375,70.5,48.3125,0
75560,-11.6875,72.8125,48.875,0
75580,-7.5625,67.6875,44,0
75600,-2.6875,70.25,31.375,0
75610,-6.0625,68.4375,23.1875,0
75630,-9.9375,71.8125,18.5625,0
75650,-23.75,60.875,19.875,0
75670,-13.5625,49.6875,18.6875,0
75690,-2.0625,40.25,13.1875,0
75710,0,33,11.8125,0
75730,-4.875,27.4375,12.6875,0
75750,-4.6875,18.8125,9.6875,0
75770,-0.75,8.9375,3.5,2000
75790,3.375,3.125,0,0
75810,4.75,3.6875,-1.375,0
75830,-1.375,1.0625,0.8125,0
75850,-10.25,-0.6875,3.8125,0
75870,-11.3125,0,3.0625,0
75890,-10.4375,-1.25,0,0
75910,-13.8125,-6.625,4.9375,0
75930,-11.75,-9.6875,11.1875,0
75950,-9.3125,-10.125,10.625,0
75970,-7.5,-9.6875,3.125,0
75990,-5.5625,-14.875,1.1875,0
76010,1,-17.25,4.25,0
76030,5.5,-18.9375,2.8125,0
76050,7.5625,-21,1.625,0
76070,6.1875,-23.3125,0.375,0
76090,2.375,-27.125,0.75,0
76110,3.375,-27.6875,0.4375,0
76130,3.5,-27.6875,-5.3125,0
76150,5.875,-31.5,-7.375,0
76170,9.625,-33.875,-6.75,0
76180,8.75,-34.4375,-7.6875,0
76200,8.625,-33.375,-8.375,0
76220,4.125,-32.8125,-8.625,0
76240,3.8125,-32.375,-8.125,0
76260,4.75,-32.8125,-8.1875,0
76280,5.1875,-34.1875,-8.125,0
76300,5.3125,-32.8125,-7.5625,0
76320,0.75,-28.8125,-7.8125,0
76340,0.125,-24.8125,-5.1875,0
76360,2.6875,-24.4375,-3.125,0
76380,5.3125,-24.5,-6.4375,0
76400,4.5625,-22.0625,-7.75,0
76420,1.125,-17.875,-7.5625,0
76440,-1.5,-15.75,-7.5,0
76460,0.8125,-15.5,-11.1875,0
76480,2.125,-16.125,-14.0625,0
76500,1.9375,-16,-17.5625,0
76520,0.625,-15.75,-19.5625,0
76540,-2.875,-14.125,-19.5,0
76560,-6.8125,-12.125,-19,0
76580,-9.0625,-12.125,-17.25,0
76600,-10.0625,-11.4375,-16.875,0
76620,-15.5625,-9.5,-15.1875,0
76640,-18.5625,-5.875,-14.625,0
76660,-20,1.75,-16.8125,0
76670,-17.8125,3.4375,-23.125,0
76690,-15.6875,0.75,-27.75,0
76710,-16.3125,1.875,-29.4375,0
76730,-18.75,5.625,-30.5,0
76750,-24.4375,9,-31.125,0
76760,-27.75,11.6875,-31.75,0
76780,-28.6875,13.5625,-31.75,0
76800,-27.9375,13.8125,-31.25,0
76820,-27.1875,14.9375,-32.1875,0
76840,-30.8125,17.375,-33.125,0
76860,-33.8125,20.0625,-32.5,0
76880,-32.25,22.6875,-31.1875,0
76900,-28.4375,23.4375,-32,0
76920,-29.875,24.1875,-31.625,0
76940,-31.25,25.75,-32.75,0
76960,-33.3125,28.9375,-31.25,0
76980,-34.4375,33,-27,0
77000,-35.4375,35.875,-23,0
77020,-38.5625,38.375,-19.5,0
77040,-39.9375,41.9375,-16,0
77060,-41.75,47.125,-13.25,0
77080,-43.4375,53.125,-11.875,0
77100,-44.875,59.1875,-12.375,0
77120,-44.75,63.5625,-15,0
77140,-42.0625,64.8125,-17.1875,0
77160,-36.125,65.5,-19.8125,0
77180,-32.4375,67.125,-22,0
77200,-31.5625,68.8125,-23.625,0
77220,-30.5,67.6875,-23.3125,0
77240,-27.875,66.6875,-20,0
77260,-25.6875,64.75,-15.625,0
77280,-27.3125,66.5625,-11.6875,0
77300,-29.875,72.5,-1.625,0
77320,-34.8125,71.375,9.75,0
77340,-25.25,64,11,0
77360,-21.25,54.75,8.4375,0
77380,-17.75,52.4375,3.4375,0
77400,-20.75,55.625,2.625,0
77420,-26.1875,54.1875,10.6875,0
77440,-16.5,43.9375,6.6875,0
77460,-9.375,33.9375,3.875,0
77480,-4.1875,33.25,2.0625,0
77500,-13.375,41.9375,9.4375,0
77520,-23.25,40.625,18.3125,0
77540,-18.3125,30.625,19.875,0
77560,-13.4375,18.375,18.5625,0
77580,-0.4375,13.625,13.1875,0
77600,4.25,16.1875,11.875,0
77620,-7.0625,18.0625,12.75,0
77640,-14.8125,12.5625,14.125,0
77660,-8,7.1875,16.3125,0
77680,2.1875,4.125,15,0
77700,11.25,4.75,16.4375,0
77720,6.375,4.375,17.75,0
77740,2.625,1.9375,18.0625,0
77760,2.4375,-3.625,20.0625,0
77780,10,-7.375,23.4375,0
77800,11.75,-9.75,23,0
77820,9.875,-11.5625,24.6875,0
77840,3.3125,-15.625,28.625,0
77860,2.375,-19.1875,29.875,0
77880,3.6875,-21.5,29.9375,0
77900,-1.75,-23.1875,29.25,0
77920,-5.875,-26.5,29.375,0
77940,-1,-28,30.0625,0
77960,1.5,-28.875,31.25,0
77980,-3.5,-28.8125,30.0625,0
78000,-9.375,-27.25,30.3125,0
78020,-13.875,-31.25,30.4375,0
78040,-6,-33.3125,30.5,0
78060,-8.0625,-33.375,28.9375,0
78080,-4.6875,-31.8125,25,0
78100,-2.4375,-31.875,21,0
78120,-0.6875,-31.5,17.1875,0
78140,0.5,-31.3125,15.75,0
78160,4.5625,-30.9375,16.0625,0
78180,8.125,-28.625,11.9375,0
78200,15.1875,-28.5,9.6875,0
78220,14.5625,-28.625,11.1875,0
78240,9.0625,-29.3125,12.8125,0
78260,4.375,-29.75,12.8125,0
78280,4.625,-28.9375,9.875,0
78300,7.3125,-29.0625,8.3125,0
78320,10.0625,-30.875,10.0625,0
78340,9.875,-32.3125,9.875,0
78360,6.625,-32.125,9.0625,0
78380,8.4375,-33.125,7.9375,0
78400,9.1875,-34.1875,7.1875,0
78420,8.625,-35.0625,8.375,0
78440,7.4375,-36,9.125,0
78460,8.625,-35.375,9.0625,0
78480,9.125,-35.8125,7.8125,0
78500,3.0625,-36.8125,7.875,0
78520,3.8125,-37.8125,9.9375,0
78540,5.875,-38.5625,10.875,0
78560,3.5,-39.375,11.9375,0
78580,0.75,-39.625,11.0625,0
78600,-4.125,-42.5625,10.875,0
78610,-2.9375,-44.3125,9.875,0
78640,-0.625,-44.875,9.125,0
78660,-0.5625,-43.875,8,0
78680,-0.75,-44.875,5,0
78700,-4.375,-46.3125,3.125,0
78720,-3.375,-48.25,2.3125,0
78740,-0.125,-48.4375,0.9375,0
78750,1.875,-46.4375,-3.9375,0
78770,-2.5625,-45.5625,-5.3125,0
78790,-5.125,-47.625,-5.3125,0
78810,-3.4375,-47.75,-5.9375,0
78830,0.6875,-48.0625,-8.625,0
78850,3.1875,-48.875,-11.375,0
78870,0.6875,-47.9375,-12.75,0
78890,-1.4375,-43.8125,-15.75,0
78910,-1.375,-39.6875,-15.5625,0
78930,4.75,-37.4375,-17.4375,0
78950,10.75,-37.75,-18.4375,0
78970,9.5625,-36.75,-20.8125,0
78990,3.125,-29.8125,-23.75,0
79010,-1.125,-25.6875,-24.75,0
79030,4.5,-24.75,-21.875,0
79050,9.9375,-24.5625,-22.125,0
79070,7.5625,-21.6875,-25.5625,0
79090,3.75,-15.8125,-27.25,0
79110,2.5,-14.3125,-25.875,0
79130,2.4375,-12.3125,-23.8125,0
79150,3.75,-9.5,-23.75,0
79170,1.375,-6.75,-23.25,0
79190,1,-2.625,-26.4375,0
79210,1,0.9375,-26.6875,0
79230,1.5625,3.9375,-26,0
79250,3.5,6.375,-25.5,0
79270,1.6875,9.6875,-27.375,0
79290,0.6875,14.125,-30.3125,0
79310,-2.5,14,-31.5625,0
79330,-2.9375,13.4375,-31.875,0
79350,-5,16.8125,-32.125,0
79370,-8.375,21.25,-33.25,0
79390,-12.3125,23.8125,-33.3125,0
79410,-11.9375,23.9375,-34.5625,0
79430,-13.375,23.1875,-34.875,0
79450,-16.3125,25.625,-36.5,0
79470,-19,28.0625,-39.0625,0
79490,-17.6875,31,-39.125,0
79510,-13.5625,30.5,-39.9375,0
79530,-12.1875,30.125,-41.625,0
79550,-14.5,29.5,-44.5,0
79570,-17.5625,29.5,-44.6875,0
79590,-18.75,30.25,-46.3125,0
79610,-18.8125,31.6875,-47.375,0
79630,-22.875,31.0625,-46.8125,0
79650,-22.8125,31.5625,-44.375,0
79670,-24.875,33.125,-42.6875,0
79690,-26.3125,35.125,-38.625,0
79710,-27.4375,35.3125,-35,0
79730,-27.0625,36.3125,-32.6875,0
79750,-27.5625,37.9375,-31.1875,0
79770,-26.1875,40.3125,-27.625,0
79790,-25,42.1875,-23.9375,0
79810,-28.5,45.875,-22.25,0
79830,-28.75,47.25,-21.0625,0
79850,-24.625,45.4375,-16.8125,0
79870,-20.875,45.5625,-9.75,0
79890,-24.1875,49.875,-4.9375,0
79910,-29,50.625,1.125,0
79930,-27.125,44.625,5,0
79950,-17.625,37.1875,6.75,0
79970,-12.5,34.0625,5.125,0
79990,-13.625,34.5,5.875,0
80010,-22.125,38.3125,10.875,0
80030,-27.125,37.625,14.75,0
80050,-17.6875,31.3125,15.4375,0
80070,-1.1875,28.3125,14.25,0
80090,2.75,31.625,11.9375,0
80110,-6.375,38.5625,15.0625,0
80130,-19.875,46.0625,23.9375,0
80150,-15.3125,38.875,27.375,0
80170,1.375,27.25,28.1875,0
80190,8.125,25.1875,21.75,0
80210,2.375,30.75,19.25,0
80230,-15.5625,31.25,20.75,0
80250,-19.4375,24.5625,22.25,0
80270,-0.6875,14.5625,23.375,0
80290,12.5625,10.375,19.375,0
80310,14.125,15.5625,16.5625,0
80330,-8.625,17.625,18.9375,0
80350,-19.875,13.25,22.3125,0
80370,-8.125,6.1875,27.1875,0
80390,8.4375,2.1875,29.125,0
80410,9.625,3.1875,26.75,0
80430,-4.1875,4.5625,27.1875,0
80450,-20.0625,2.1875,26.6875,0
80470,-13.125,-4.1875,25.125,0
80490,6,-7.3125,26.0625,0
80510,7.6875,-6.25,25.625,0
80530,-5.875,-3,24.4375,0
80550,-18.0625,-4.375,23.3125,0
80570,-4.4375,-9.25,26,0
80590,9.125,-11.6875,27.75,0
80610,10.3125,-9.875,26.6875,0
80630,-0.8125,-6.9375,26.5,0
80650,-7.0625,-7.875,27.4375,0
80670,1.5625,-9.0625,28.25,0
80690,13.5625,-11.5625,26.125,0
80710,13.875,-13.8125,23.4375,0
80730,7.125,-16.125,22.5,0
80750,4,-19.5,20.625,0
80770,5.5625,-23.4375,20.5,0
80790,7.4375,-26.1875,20.4375,0
80810,7,-28.5625,19.4375,0
80830,3.4375,-30.125,16.9375,0
80850,2.375,-32.4375,15.875,0
80870,5.125,-34.6875,15.25,0
80890,8.9375,-36.4375,12.625,0
80910,8.4375,-37.6875,12.0625,0
80930,3.125,-38.8125,11.125,0
80950,0.8125,-40.0625,10.5,0
80970,2.75,-41,10.5625,0
80990,2.5,-40.625,11.9375,0
81010,-0.9375,-42.125,13.1875,0
81030,-6.0625,-45.125,15.5,0
81050,-8.875,-47.75,18.5625,0
81070,-6.0625,-48.9375,18.875,0
81090,-0.4375,-48.875,14.5,0
81110,-5.125,-47.75,10,0
81130,-14.5,-49.125,8.4375,0
81150,-14.875,-52.25,8.6875,0
81170,-6.75,-53.0625,8.5625,0
81190,2.375,-51.9375,4.125,0
81210,-4.3125,-48.125,0.25,0
81230,-13.0625,-46.75,-2,0
81250,-8.1875,-48.0625,-3.625,0
81270,1.25,-47.9375,-8.125,0
81290,1.875,-47,-11.25,0
81310,-2.3125,-45,-13.375,0
81330,-10.9375,-40.25,-17.625,0
81350,-17.0625,-40.125,-18.1875,0
81370,-8.625,-43.125,-17.5,0
81390,-1.1875,-44.75,-18.3125,0
81410,-3.6875,-43.4375,-21.6875,0
81430,-6.75,-41.5,-23.0625,0
81450,-6.25,-38.75,-22.5625,0
81470,-6.0625,-36.3125,-24,0
81490,-5.625,-34.9375,-24.875,0
81510,-5.625,-31.8125,-26.125,0
81530,-0.75,-29.875,-29.8125,0
