Timestamp, Electrode 1, Electrode 2, Electrode 3, Electrode 4, Electrode 5, Electrode 6, Electrode 7, Electrode 8, Marker
0,-7,-3,1,-9,1,51,-2,0,0
5,1,-10,-11,-11,-11,-48,-25,1,0
10,-1,1,9,2,13,6,30,6,0
15,-1,3,2,2,3,-4,11,-1,0
20,0,2,2,4,-3,-2,8,-5,0
25,-1,-1,2,0,-2,3,-2,-4,0
30,-1,-5,-2,-2,-4,0,-14,-4,0
35,-2,-7,-12,-4,-3,-2,-7,-2,0
40,2,1,8,1,0,-17,-9,-1,0
45,0,4,3,0,0,11,-5,-2,0
50,0,-2,9,0,-6,-11,-20,-3,0
55,-2,-1,-3,-3,0,8,-17,-2,0
60,2,1,-4,0,3,-11,-14,0,0
65,0,5,2,2,13,15,9,-1,0
70,-4,-2,-1,-6,-14,10,-23,-9,0
75,2,-4,-11,-12,0,14,35,6,0
80,-6,-7,-8,-11,-28,-5,-49,-14,0
85,5,0,4,3,11,11,55,17,0
90,1,5,-3,7,8,-13,-6,0,0
95,-1,2,3,4,7,-1,13,0,0
100,-4,-1,-3,-3,-7,-28,-7,-8,0
105,-5,4,2,3,0,24,-7,-8,0
110,-7,-5,-10,-6,8,48,23,-5,0
115,-7,-3,-2,-4,3,29,-5,-9,0
120,10,7,6,15,-25,-55,1,11,0
125,0,-3,-1,-10,4,-28,-17,-5,0
130,-1,-7,-9,-4,-8,4,-2,0,0
135,-2,-1,0,9,-3,9,-7,-1,0
140,-1,-1,-2,-12,10,18,-1,2,0
145,0,2,4,-1,4,1,-3,-1,0
150,-1,1,2,0,6,-2,-1,-1,0
155,-1,-1,-2,1,0,-7,-1,0,0
160,0,0,-2,3,-5,-12,-3,1,0
165,1,0,-5,-2,-3,-4,-1,0,0
170,-1,-2,-3,0,-3,-8,-5,-2,0
175,-1,-1,-3,-4,-2,-4,5,-2,0
180,-2,-1,0,1,-1,-5,-9,-1,0
185,-2,-5,-3,-4,-1,-5,-7,-2,0
190,-2,0,-1,-3,-4,-2,0,-4,0
195,-1,2,0,0,2,3,10,6,0
200,0,1,0,-1,-2,-2,9,0,0
205,-1,-2,1,0,2,2,3,1,0
210,1,-1,2,1,-2,-4,-6,-1,0
215,1,-3,-2,-10,-3,-4,-7,-1,0
220,1,0,0,-4,-5,-5,-1,-2,0
225,-1,-2,-4,0,-5,-8,-2,-3,0
230,-1,0,-1,0,6,-8,2,0,0
235,-4,-1,-1,-2,-5,1,0,-4,0
240,-2,-2,-2,1,-1,0,1,0,0
245,1,1,0,1,-3,-3,-3,0,0
250,1,0,-1,-2,0,3,3,0,0
255,-1,-2,-1,1,2,1,2,2,0
260,0,1,0,-1,1,-3,13,-2,0
265,-2,-2,-4,-4,-4,1,2,-2,0
270,0,-1,-1,3,8,-2,3,-1,0
275,-2,-3,-3,-7,-17,-3,-5,-4,0
280,-1,-1,-1,8,6,-5,-23,-2,0
285,0,0,-1,-13,-4,5,6,3,0
290,-1,-1,0,2,-1,2,-1,1,0
295,-1,-2,-1,-1,2,-6,-14,-2,0
300,-2,-4,-1,-4,-5,1,-4,-3,0
305,-2,0,3,4,-4,-5,-8,0,0
310,-2,0,2,0,3,0,-11,-4,0
315,0,2,0,-4,-7,4,9,0,0
320,0,-2,-3,0,3,1,-16,-1,0
325,-1,-2,1,3,7,-2,0,2,0
330,-4,0,0,-4,-7,1,-14,-6,0
335,2,2,1,3,4,2,10,12,0
340,-2,0,-2,-3,-8,-4,0,-2,0
345,-3,-2,-4,-2,-6,-2,-1,-4,0
350,-1,-1,2,6,7,-6,4,2,0
355,-5,-5,-4,-7,-6,-11,-9,-12,0
360,6,3,4,8,21,6,44,17,0
365,-2,-3,-1,-2,0,3,-28,-9,0
370,0,0,-4,0,-2,-2,-2,8,0
375,-1,-1,1,5,7,0,-10,-4,0
380,-4,-2,-2,-5,-11,-6,12,-2,0
385,0,0,2,4,11,-1,1,-4,0
390,1,-2,0,-4,-8,-3,-1,-3,0
395,-2,-1,-3,-2,1,2,5,-3,0
400,-3,-3,-2,0,3,6,-12,-6,0
405,1,0,1,0,-17,-1,2,3,0
410,-2,-3,-4,1,4,14,22,2,0
415,0,-3,-2,-3,-7,1,46,10,0
420,0,0,-1,-4,-5,7,-23,-4,0
425,-1,-1,-3,-1,8,2,12,5,0
430,0,1,3,0,-3,4,-16,-5,0
435,0,1,2,3,-11,-16,-38,-5,0
440,0,-1,1,3,8,5,-14,-2,0
445,2,-1,-5,-5,-15,-11,-14,-4,0
450,5,-1,-2,-1,5,-9,5,2,0
455,5,0,0,4,10,1,-13,-8,0
460,7,-2,-4,-6,6,1,15,-3,0
465,-1,-2,-3,0,5,15,0,-17,0
470,-6,-1,0,-2,6,19,4,-2,0
475,-9,-2,-3,-2,-3,-3,-6,0,0
480,-3,1,4,2,-2,-9,-2,20,0
485,-6,-1,-2,0,-4,1,13,12,0
490,-5,-2,-5,-3,6,-23,6,10,0
495,-1,-1,-3,-8,-7,13,8,7,0
500,-4,-1,-1,-4,-13,-15,30,-4,0
505,-6,-1,0,3,16,6,54,3,0
510,-4,-4,-5,-3,-6,-8,29,-7,0
515,-3,-2,2,1,2,-6,21,1,0
520,-2,-9,-14,-9,-19,5,2,-6,0
525,6,2,3,1,-7,1,-7,13,0
530,1,0,-2,-5,-2,3,6,-2,0
535,0,5,13,14,12,-7,-27,-34,0
540,7,1,-3,-6,-17,-20,-3,29,0
545,3,0,6,4,-3,16,-40,-13,0
550,7,-2,-2,2,9,10,21,26,0
555,-2,-4,-5,-4,-5,2,-62,-6,0
560,-11,-5,-3,-2,0,-24,-68,-27,0
565,-4,0,-1,0,5,-3,-35,8,0
570,-3,6,9,7,-19,-10,-20,-8,0
575,2,-10,-17,-19,-9,-1,56,1,0
580,7,2,2,1,15,-2,64,-2,0
585,3,-2,-4,-3,-8,-9,87,-7,0
590,5,-1,-1,2,10,16,35,-11,0
595,1,-1,-1,0,5,-4,28,5,0
600,-4,-1,2,0,-6,15,-11,-12,0
605,2,3,1,3,18,-1,39,20,0
610,-6,-1,2,-3,-6,-1,-27,-8,0
615,-3,-2,2,0,-7,58,-91,3,0
620,-3,0,3,4,3,-57,-112,-5,0
625,-11,-2,-3,-1,18,79,-125,-10,0
630,-4,3,4,8,8,-48,-80,2,0
635,-7,-3,-5,-7,-7,0,-14,6,0
640,-3,3,2,6,15,10,5,1,0
645,2,-4,-5,-5,-14,-26,40,-8,0
650,3,-7,-8,-8,-3,-1,-4,-19,0
655,15,3,4,-1,0,-10,24,16,0
660,3,1,9,11,-2,54,24,-6,0
665,0,-8,-9,-9,-40,-33,-2,6,0
670,-8,-3,-3,-8,-9,10,-5,2,0
675,-9,-1,-4,-2,-17,-38,8,-8,0
680,-6,-1,-4,-6,5,-15,35,-4,0
685,0,-1,2,1,-10,-8,18,-6,0
690,-2,0,3,5,-2,6,5,-8,0
695,2,-1,-2,3,15,-16,25,4,0
700,-4,-6,-9,-8,-18,-10,11,-6,0
705,1,-1,1,0,-5,-2,51,-5,0
710,-2,-5,-6,-3,7,4,29,-6,0
715,2,-3,2,0,-11,-29,44,2,0
720,-4,-2,-1,5,40,29,28,-12,0
725,-2,-4,-6,-10,-13,-20,-78,-9,0
730,-1,-1,-2,-3,-16,-4,-82,-1,0
735,-1,-2,-4,-3,4,16,-71,9,0
740,-5,-1,7,3,2,17,-21,7,0
745,-2,-10,-13,-5,-12,-25,12,3,0
750,-3,1,1,1,8,-10,-11,0,0
755,-4,-3,-5,-1,10,11,-38,-8,0
760,2,-2,-1,-6,-12,10,9,10,0
765,-1,4,9,12,24,2,36,2,0
770,3,-5,-3,-10,-18,-9,121,8,0
775,0,-4,0,1,5,5,91,-9,0
780,1,0,-2,-3,-15,-16,50,-13,0
785,-1,0,5,2,10,26,12,6,0
790,-1,-6,-7,-1,-6,1,-82,11,0
795,1,0,7,11,14,0,-90,17,0
800,-4,-5,-7,-9,-14,35,-45,21,0
805,3,-4,-2,0,7,-50,-115,12,0
810,2,-1,-7,-7,-18,-3,83,-10,0
815,-5,-1,-7,-5,7,2,57,-8,0
820,-2,1,-1,-2,-1,15,-9,-8,0
825,-2,2,1,0,-5,-29,-31,-10,0
830,-3,0,0,-1,3,-2,-73,-19,0
835,-9,-6,-9,-11,-11,42,68,-18,0
840,12,4,1,3,11,-74,-58,-5,0
845,-2,0,-2,-6,5,56,8,-7,0
850,0,3,7,11,8,0,6,1,0
855,-5,2,5,1,-2,9,10,-2,0
860,-3,1,-8,-8,-4,10,38,-7,0
865,-3,-2,-5,0,-3,-8,50,1,0
870,6,3,0,-1,2,-8,-26,11,0
875,-2,3,4,10,13,8,24,0,0
880,3,-3,-1,-6,-10,-10,28,-1,0
885,4,2,-3,-5,2,15,14,-2,0
890,-8,-4,-5,-4,-12,-55,-32,-6,0
895,0,4,2,-7,2,29,-6,4,0
900,8,7,0,3,17,-22,-56,-1,0
905,-10,1,9,11,-18,17,64,-6,0
910,0,-6,-17,-16,-31,-19,10,-6,0
915,-1,2,-2,-2,8,-13,-24,-12,0
920,-7,-2,-2,-5,-2,42,26,2,0
925,5,5,-2,-3,11,-36,-44,-2,0
930,-1,3,5,4,6,-13,14,-4,0
935,1,-2,0,1,-6,20,-42,-1,0
940,-1,0,-4,-2,-6,45,3,0,0
945,-9,-5,-3,-5,-4,-21,-41,-10,0
950,14,5,2,2,4,8,16,26,0
955,-1,-1,-4,-4,1,-14,22,2,0
960,-3,-13,-24,-25,-19,2,-8,-14,0
965,-5,-9,6,-3,0,-9,-26,0,0
970,-7,8,-6,0,-9,34,88,-3,0
975,-1,-1,8,11,10,-32,-78,7,0
980,-3,0,5,5,4,18,0,8,0
985,6,4,1,5,4,-20,-40,5,0
990,1,-3,-3,-7,-18,3,-3,-10,0
995,-13,-22,-12,-13,-2,28,62,4,0
1000,-1,1,5,9,2,-14,-27,-7,0
1005,-5,-7,-10,-11,-15,-5,11,-12,0
1010,2,0,4,-1,-13,-6,-13,6,0
1015,4,0,-11,-5,-2,-13,-41,-11,0
1020,-5,-3,0,-1,5,5,27,-2,0
1025,1,5,2,6,8,1,-7,9,0
1030,-9,-2,-2,-3,-10,-13,19,-5,0
1035,10,-3,-3,1,7,26,-37,15,0
1040,-5,9,-2,-3,2,-13,-17,-1,0
1045,0,3,0,1,3,-27,23,-5,0
1050,4,-1,1,-3,-1,18,8,-3,0
1055,-8,-4,-2,-3,-5,-20,29,-7,0
1060,2,-2,2,2,5,10,13,2,0
1065,1,2,-3,-1,-3,1,-1,0,0
1070,-12,-5,1,-2,0,18,-8,0,0
1075,-3,0,-10,-3,-1,-71,-26,3,0
1080,3,0,14,2,2,20,-1,5,0
1085,0,0,-9,-7,-10,-2,1,0,0
1090,3,-3,7,6,10,-13,3,-3,0
1095,2,6,-1,1,1,36,31,-12,0
1100,1,8,1,-6,-6,-11,-23,-11,0
1105,7,-2,3,9,2,-3,-1,2,0
1110,-5,-3,-3,-2,1,14,-9,-3,0
1115,4,3,-2,-5,-13,-2,-2,1,0
1120,-9,-5,1,0,-4,-29,-3,-9,0
1125,-2,1,3,0,0,31,-61,2,0
1130,6,-1,-1,2,2,-25,-17,16,0
1135,-3,2,-1,-2,-6,-37,42,-10,0
1140,-3,-7,-9,-8,-5,32,33,11,0
1145,2,0,0,2,8,-40,2,0,0
1150,-1,-4,-4,-6,-3,13,-2,0,0
1155,-5,-1,5,1,4,-1,-1,1,0
1160,-7,-8,-5,-2,-2,-3,21,-10,0
1165,-2,-2,-3,-7,-11,7,30,6,0
1170,1,1,-1,2,8,-6,-51,-4,0
1175,-2,-3,-4,-7,-5,14,55,-1,0
1180,5,1,-1,5,5,8,-84,0,0
1185,1,0,1,2,-3,1,8,1,0
1190,-1,-8,-6,-8,-11,-15,-10,6,0
1195,2,1,6,10,16,26,27,7,0
1200,-3,-2,-4,-1,0,0,3,-1,0
1205,-1,-2,-3,-4,-2,-10,-40,8,0
1210,-5,-5,-4,-7,-11,-4,-18,-5,0
1215,-1,1,2,0,2,10,18,13,0
1220,5,-1,1,4,12,18,9,6,0
1225,-10,0,0,-3,-5,-10,26,-15,0
1230,-4,-3,-6,-7,-10,-20,15,-15,0
1235,0,0,2,2,2,-1,9,-3,0
1240,-2,1,-2,5,11,24,5,-3,0
1245,3,-1,-2,-2,-9,-15,-4,-2,0
1250,-1,-2,-1,0,-4,-2,14,-5,0
1255,-1,-5,-6,-10,-11,-12,-37,-1,0
1260,-2,0,2,4,7,25,18,1,0
1265,-5,-1,3,-3,3,14,34,-2,0
1270,5,2,-2,4,1,16,-27,-4,0
1275,3,-3,-3,-3,-1,-48,0,-6,0
1280,1,-3,-3,-2,-7,-39,-33,2,0
1285,-5,0,1,1,2,7,-29,-1,0
1290,1,3,5,10,3,-2,-15,5,0
1295,-2,1,-2,-1,-1,17,-27,-4,0
1300,-1,2,5,6,3,-20,8,-4,0
1305,0,-8,-8,-7,-20,-17,-9,0,0
1310,-1,-2,-8,-14,0,-8,-4,0,0
1315,-5,-1,-6,0,0,15,-4,-6,0
1320,0,0,-3,-4,2,-11,-34,-7,0
1325,-4,-1,7,1,-5,-23,-21,-12,0
1330,2,-1,2,10,5,53,0,2,0
1335,-4,-3,-7,-21,3,42,-42,-7,0
1340,-1,1,14,19,10,-33,91,11,0
1345,0,-10,-13,-13,-11,-16,-64,-1,0
1350,3,3,8,10,8,-8,46,16,0
1355,1,-1,-1,-4,-11,-18,-9,0,0
1360,-5,-2,-6,0,9,7,-10,-8,0
1365,2,4,-1,-7,-7,31,7,-5,0
1370,-2,-3,-3,3,0,-35,-7,-4,0
1375,-1,0,1,-3,-1,3,12,1,0
1380,-6,-5,-3,-4,-13,15,-44,-7,0
1385,-1,2,7,19,43,-29,20,-1,0
1390,2,0,1,-20,-41,-5,28,7,0
1395,-2,-6,-8,21,69,19,-87,-7,0
1400,-2,-6,-14,-61,-95,-27,89,6,0
1405,3,1,0,13,40,15,79,14,0
1410,-2,4,8,8,16,10,-5,-5,0
1415,0,1,-1,7,4,-25,-7,0,0
1420,-1,2,1,22,29,-4,-38,-4,0
1425,-2,-3,-5,-5,-21,11,-16,-3,0
1430,-3,-2,-2,-4,20,13,-8,-5,0
1435,-4,0,6,4,-39,-1,0,-3,0
1440,-1,-1,1,3,-13,-21,23,-2,0
1445,-1,-3,-2,-6,14,45,-30,-1,0
1450,-4,-4,-7,-1,25,-15,-4,-6,0
1455,0,1,2,0,-27,-15,-10,-5,0
1460,-1,-1,-4,-3,-9,14,19,4,0
1465,-1,-2,-8,3,-7,-12,-14,-2,0
1470,0,1,2,9,45,-8,15,3,0
1475,-1,-3,-5,-14,-42,20,60,4,0
1480,6,0,0,9,25,1,-46,7,0
1485,0,3,2,3,-4,-20,8,2,0
1490,-3,-2,-5,-4,0,16,-59,-7,0
1495,1,2,5,6,5,-24,26,4,0
1500,-2,-1,-2,1,18,3,-6,-1,0
1505,-2,-1,-5,-17,-32,2,-7,-2,0
1510,-6,-1,3,-7,-19,-3,-23,-6,0
1515,-3,-3,-2,-1,11,1,-2,4,0
1520,-1,-1,-5,-5,-11,7,-1,-2,0
1525,-1,0,3,4,17,5,0,2,0
1530,0,-1,-3,2,-17,-8,-6,-2,0
1535,1,-1,-2,-4,-6,-2,5,1,0
1540,-2,1,3,7,9,28,-41,-4,0
1545,-2,-5,-3,-2,-10,-5,8,-2,0
1550,-1,-4,-9,-9,-21,-20,-20,-4,0
1555,3,0,-3,-11,-1,33,12,3,0
1560,1,-1,-2,-4,5,6,-16,-4,0
1565,-4,1,2,4,9,-8,-4,-3,0
1570,-2,-1,1,-2,-7,-2,26,-1,0
1575,-4,-1,-1,0,2,-1,-10,-5,0
1580,-2,1,3,5,12,-2,0,-2,0
1585,0,1,0,-3,-22,-2,5,0,0
1590,0,-2,-3,-7,11,17,4,-3,0
1595,-1,0,0,-3,1,-13,7,-2,0
1600,-1,0,-1,-2,2,-2,3,-2,0
1605,-1,1,-1,-3,-7,-7,-2,-4,0
1610,0,0,0,-1,-7,2,3,1,0
1615,1,1,1,2,2,-2,-4,-1,0
1620,-1,-1,-5,-5,-2,-4,3,-2,0
1625,0,1,-3,-1,1,1,-10,-3,0
1630,-4,1,0,3,-4,-2,-87,0,0
1635,0,1,-3,-2,6,-2,-107,0,0
1640,0,-3,-2,-6,-7,-1,-56,1,0
1645,0,0,2,0,4,-1,-94,1,0
1650,0,1,0,2,-6,2,-67,-1,0
1655,0,0,1,2,-2,-2,-44,-1,0
1660,-2,-1,-2,-3,-2,-9,-24,-4,0
1665,0,-1,-1,1,5,2,97,4,0
1670,-1,-1,-3,-3,-4,-2,127,2,0
1675,-1,-2,0,2,0,-1,127,-3,0
1680,-3,-3,0,2,-5,7,64,1,0
1685,0,-2,1,2,-3,-6,4,4,0
1690,-1,-6,-5,-4,-6,0,43,1,0
1695,1,-1,1,0,4,-1,47,6,0
1700,0,-7,-1,1,-8,-3,29,0,0
1705,-2,-3,0,4,-1,-3,8,-5,0
1710,0,0,-1,0,-1,3,64,2,0
1715,-2,-2,-1,1,2,-1,71,0,0
1720,-2,-1,2,0,3,0,61,0,0
1725,-2,-1,2,6,-1,2,23,-3,0
1730,-2,-4,-2,-6,-12,-10,-68,-7,0
1735,-1,0,2,0,7,-6,-19,5,0
1740,0,1,-3,-6,-14,-3,-73,1,0
1745,-1,-6,0,-8,1,1,-57,-2,0
1750,-3,-6,-5,2,4,-2,-57,-4,0
1755,-2,-1,5,2,-6,-23,-61,-5,0
1760,-2,5,13,-1,2,1,-36,1,0
1765,-1,-12,-20,-7,-8,-7,-9,-6,0
1770,7,6,6,0,0,0,47,0,0
1775,5,-6,-4,-6,-3,-17,28,-5,0
1780,6,0,0,2,-1,-2,28,-4,0
1785,-5,3,3,2,2,21,-2,-4,0
1790,-7,-2,-1,6,13,-10,-19,0,0
1795,-1,4,-1,-2,-2,-2,-30,-3,0
1800,-6,-7,-4,2,0,-8,-21,-3,0
1805,-6,-3,-2,-2,4,14,-16,-4,0
1810,1,-2,1,4,-1,-18,-2,0,0
1815,2,-1,0,0,0,32,5,3,0
1820,-3,0,-3,-1,-3,-11,-5,-1,0
1825,-37,-14,-3,-5,-8,8,5,-2,0
1830,65,26,7,5,-1,-7,-3,9,0
1835,-18,3,-4,-8,-2,26,5,-6,0
1840,23,-3,-12,2,6,-43,33,5,0
1845,1,-3,1,3,2,44,70,-3,0
1850,-35,-14,25,-5,-6,1,44,-6,0
1855,48,26,-20,-1,-2,13,4,7,0
1860,-81,-21,-5,-2,4,10,-15,-4,0
1865,99,35,15,-3,-3,-26,-26,0,0
1870,-51,-25,-12,1,-2,9,-38,-2,0
1875,-23,-27,4,1,-1,-9,-21,-2,0
1880,39,7,4,-4,-2,1,-29,-5,0
1885,-28,-7,-6,0,0,-22,-20,-2,0
1890,38,30,2,-6,1,12,-13,4,0
1895,-21,-3,18,-1,-1,-12,-18,6,0
1900,-21,-14,-25,2,6,13,10,-4,0
1905,-42,-21,1,-4,-4,-4,0,-4,0
1910,95,72,32,6,3,1,-2,5,0
1915,-20,-29,-39,-13,-21,-22,5,-8,0
1920,51,0,-16,-6,2,16,3,5,0
1925,-21,-2,17,5,0,-10,-15,2,0
1930,-46,-36,-23,-2,-3,0,-9,-10,0
1935,-7,10,23,4,-5,-44,-24,-26,0
1940,14,15,8,0,6,92,-2,-7,0
1945,11,13,3,5,9,-11,-4,-4,0
1950,-40,-38,-23,-5,-8,0,28,7,0
1955,9,14,15,-2,0,26,18,-2,0
1960,24,3,-20,1,3,-16,36,22,0
1965,-24,-10,-7,-6,-5,-7,2,-8,0
1970,-24,-8,-6,-3,-2,-1,-49,-4,0
1975,9,3,-3,1,4,-9,4,3,0
1980,-17,-5,4,-3,-8,-33,-2,-11,0
1985,25,31,37,3,-1,-4,-70,10,0
1990,6,15,-20,-5,-2,-10,37,6,0
1995,-3,-73,-41,0,2,4,-34,4,0
2000,-13,7,16,-1,-7,-19,-38,-5,0
2005,-6,-13,-9,-4,-2,0,38,3,0
2010,-9,-4,5,-3,-2,4,-3,-7,0
2015,-3,24,17,1,6,2,2,5,0
2020,-10,-9,2,-6,-11,-7,10,-1,0
2025,6,1,-8,-3,-5,-6,5,-2,0
2030,-2,-1,2,5,2,3,14,-4,0
2035,4,10,0,-2,-5,-1,23,3,0
2040,-9,-3,4,4,-34,-30,-20,-7,0
2045,1,3,-8,-11,-45,-29,-6,-1,0
2050,-7,-11,-2,-6,51,45,-20,-9,0
2055,3,-3,-9,-1,8,2,-5,10,0
2060,-12,6,10,-3,4,0,-15,-11,0
2065,5,-2,-6,4,-62,-52,-5,5,0
2070,1,-10,-6,-9,20,11,3,-2,0
2075,-5,13,14,0,2,7,17,-4,0
2080,0,0,4,5,10,1,39,3,0
2085,4,-2,-10,2,20,6,17,-1,0
2090,-1,-3,-3,-2,-46,-41,2,-5,0
2095,-3,6,2,-7,-8,-21,6,-4,0
2100,-3,-2,1,7,63,62,8,2,0
2105,-5,-12,-11,1,26,13,13,-6,0
2110,12,7,15,24,-19,-21,2,3,0
2115,6,4,-7,-31,-14,-20,11,4,0
2120,-5,-8,-6,10,27,47,3,-2,0
2125,1,2,6,8,16,14,2,-1,0
2130,-4,-2,0,2,-23,-16,-10,-2,0
2135,-3,-4,-13,-15,-40,-13,-25,-8,0
2140,-4,0,5,-9,-32,-22,-8,-4,0
2145,3,5,-6,4,33,9,11,6,0
2150,-8,-3,-3,-2,-24,-5,0,-8,0
2155,5,1,0,4,23,1,9,8,0
2160,-5,-7,-9,-26,-21,32,23,-1,0
2165,0,-4,1,-2,-27,0,30,1,0
2170,3,0,5,4,-3,-23,10,4,0
2175,-3,0,8,24,25,5,-19,-3,0
2180,-1,-3,1,5,10,-11,-37,-2,0
2185,0,1,0,1,8,-38,-19,0,0
2190,-2,1,-2,-4,-38,0,-13,-1,0
2195,-6,-6,-5,-5,95,65,8,0,0
2200,-2,-2,-9,-5,-24,-17,-24,-9,0
2205,-12,-8,-8,-23,-51,6,-16,-6,0
2210,6,5,14,21,29,10,-13,2,0
2215,-1,8,9,25,-11,-52,-12,-3,0
2220,-1,-4,-8,-36,-76,-20,-6,0,0
2225,-3,-3,-6,-5,19,15,-17,-9,0
2230,-3,-5,-6,-18,44,48,11,0,0
2235,-4,-2,-1,0,-54,-15,-19,-8,0
2240,1,3,-3,8,34,-15,22,-2,0
2245,2,1,4,10,77,33,9,5,0
2250,3,-2,1,11,-74,-19,0,9,0
2255,3,2,4,-3,5,3,17,1,0
2260,-2,0,-3,7,32,50,1,0,0
2265,3,7,9,18,-32,-58,-19,-5,0
2270,-8,-11,-8,6,61,36,0,-2,0
2275,-5,-4,-18,-47,-84,-9,-1,-2,0
2280,-2,-1,0,-1,-20,-27,-9,-1,0
2285,2,1,2,5,-26,-39,-6,-1,0
2290,-1,0,-6,17,114,97,13,1,0
2295,-2,0,-6,12,5,5,3,-3,0
2300,-4,-1,3,10,-15,-36,-8,-3,0
2305,0,-6,-11,-38,-75,-63,-16,-2,0
2310,-6,-4,-8,-17,29,26,-17,-10,0
2315,4,2,0,-10,2,5,53,16,0
2320,14,12,8,36,38,-2,38,16,0
2325,2,9,-6,21,122,78,30,2,0
2330,-10,-13,-30,-68,-108,-115,-50,-16,0
2335,-2,-3,8,-7,-56,-35,-11,-7,0
2340,-4,-7,-3,-7,-54,-36,-17,-6,0
2345,0,-6,-1,-22,61,77,5,2,0
2350,3,7,13,40,68,-11,16,3,0
2355,-5,-6,-11,-7,-46,19,-7,-6,0
2360,-4,-2,26,3,39,-16,-4,0,0
2365,3,3,9,23,5,9,-6,-1,0
2370,8,5,-12,14,18,-10,12,6,0
2375,-4,-7,-24,-6,-15,-14,-8,-5,0
2380,-3,-3,-14,-22,-61,-34,-22,-5,0
2385,-11,-10,-2,-13,9,82,1,-7,0
2390,1,3,-7,-32,-56,-87,1,10,0
2395,-4,1,11,29,53,51,-12,-9,0
2400,7,2,3,-23,20,-39,34,19,0
2405,0,-4,15,6,-24,19,-11,0,0
2410,-1,2,36,16,-31,-19,-2,-2,0
2415,-9,-1,19,12,47,16,-14,-14,0
2420,-5,-6,-23,-8,5,45,-17,-11,0
2425,2,4,21,43,-33,-30,2,-3,0
2430,0,-5,-7,-53,17,42,5,-3,0
2435,5,6,43,-15,12,18,4,6,0
2440,7,2,-23,24,-17,-53,-7,4,0
2445,-6,-5,-44,-48,-4,15,2,-4,0
2450,-9,-14,-27,12,15,-51,5,-4,0
2455,4,1,7,-34,-20,7,-13,0,0
2460,6,9,17,44,52,26,10,10,0
2465,-2,-10,-14,-17,-38,-39,21,2,0
2470,0,1,-2,2,-12,51,-6,-3,0
2475,8,9,7,34,21,-62,3,11,0
2480,-6,5,28,8,-27,91,2,-3,0
2485,3,4,-30,23,34,-40,-13,1,0
2490,-7,-12,-2,-10,-61,15,29,-1,0
2495,-8,-15,-4,-10,-64,-16,-35,-11,0
2500,-5,-4,-27,-25,-19,-29,-25,-8,0
2505,-2,-1,22,35,49,72,14,3,0
2510,13,15,49,3,-8,-49,18,15,0
2515,-7,-16,2,-8,18,42,-5,-8,0
2520,-3,-6,16,-33,45,-13,9,1,0
2525,-5,1,18,18,-11,-119,-45,-13,0
2530,-1,0,-22,-9,-50,117,23,4,0
2535,5,5,-30,42,14,-91,52,12,0
2540,1,-1,-23,-11,9,-11,-75,0,0
2545,2,-5,-2,-12,-50,33,52,4,0
2550,10,13,29,4,45,9,-22,2,0
2555,-8,-2,-6,44,34,13,-3,-8,0
2560,-11,-17,-7,-47,-75,36,17,-12,0
2565,5,2,-5,-31,-12,-31,-11,10,0
2570,-5,-3,-9,21,20,-31,-13,-9,0
2575,3,3,-8,14,5,38,14,4,0
2580,1,6,-4,32,47,-33,16,-1,0
2585,-7,-6,-9,-8,-9,19,-13,-10,0
2590,-6,-1,-6,-11,-13,-8,1,-3,0
2595,2,3,5,-5,24,9,-5,-1,0
2600,-1,-3,8,1,-4,1,10,-1,0
2605,4,-2,9,-24,-9,-5,0,4,0
2610,-4,-3,0,3,0,6,-8,-5,0
2615,1,2,4,-15,-4,-6,-8,-1,0
2620,1,0,14,2,1,5,6,-2,0
2625,-4,-1,-2,-6,-12,17,-1,-3,0
2630,-3,-3,-1,8,16,-28,-8,-3,0
2635,-3,-4,-11,-13,3,27,-1,-4,0
2640,0,3,-1,-1,5,-13,6,2,0
2645,1,2,-1,2,-24,-19,-6,4,0
2650,-4,-5,-11,-19,1,3,-8,0,0
2655,2,0,-3,-8,-1,-10,7,4,0
2660,-3,2,-12,8,1,12,8,2,0
2665,-2,1,-12,6,1,-17,-5,-1,0
2670,-2,0,0,11,-10,-4,-4,-1,0
2675,0,-2,-2,-2,-6,17,2,2,0
2680,-3,-2,-31,-4,5,-4,6,0,0
2685,-2,-1,-36,-6,2,6,-9,-3,0
2690,-2,-3,-62,-18,-12,-2,12,-2,0
2695,-2,-2,-23,-30,-4,-1,-11,-2,0
2700,0,-1,15,-6,7,18,11,0,0
2705,-4,0,30,-7,11,-6,1,-1,0
2710,0,2,57,3,1,5,-19,-3,0
2715,-1,0,68,4,7,-5,5,0,0
2720,-1,1,35,0,-5,8,-3,-1,0
2725,-2,-3,39,-3,-2,20,-6,-5,0
2730,-2,-2,17,11,3,-4,-3,-3,0
2735,0,-2,15,5,-16,2,-9,-1,0
2740,-4,-6,12,14,-2,10,-19,-7,0
2745,2,1,-4,14,31,27,15,4,0
2750,2,0,-22,8,10,-39,12,2,0
2755,4,-2,-40,-3,20,-9,23,8,0
2760,-1,0,-10,11,2,-4,-3,-5,0
2765,-2,0,-12,10,-2,-41,-24,-7,0
2770,-6,-5,-7,-20,-38,29,-4,-5,0
2775,-3,-1,-14,7,16,17,-5,-3,0
2780,1,2,-4,6,8,-16,-1,1,0
2785,-1,-5,-22,-21,-12,6,6,-3,0
2790,-1,-4,-8,-13,-37,-13,-5,-1,0
2795,-4,-1,-14,-1,-6,-3,-12,-5,0
2800,-1,2,3,21,2,-2,-5,-2,0
2805,1,-3,-9,-15,21,51,9,4,0
2810,0,0,-5,21,7,-45,-3,-4,0
2815,-1,-5,-13,-14,-1,28,-1,1,0
2820,-1,-3,0,9,-3,-25,6,-3,0
2825,3,0,2,0,-21,-32,-13,-1,0
2830,0,-2,4,11,25,51,16,7,0
2835,-5,-1,-3,1,6,1,-14,-5,0
2840,0,-1,-3,-10,-6,-3,0,-1,0
2845,-2,-1,-5,-4,-14,-12,1,-4,0
2850,0,0,4,-4,5,7,-13,-5,0
2855,1,2,5,3,1,-6,-3,-2,0
2860,-1,0,-1,2,6,3,1,-1,0
2865,1,-2,-1,1,6,-9,-4,3,0
2870,-5,-2,-4,-10,-11,18,-2,-7,0
2875,-5,-1,1,-3,7,2,1,2,0
2880,4,-1,-2,-4,0,-4,0,10,0
2885,-1,1,4,8,15,8,2,1,0
2890,2,0,3,6,-5,-20,-2,-5,0
2895,2,0,0,6,6,0,3,-4,0
2900,-4,-5,-9,-16,-25,3,-5,-6,0
2905,-3,-3,-5,-3,-8,0,3,-2,0
2910,0,1,-3,-3,12,1,0,2,0
2915,-3,-1,3,-2,-17,-15,-4,-3,0
2920,-2,-2,0,-6,11,9,2,-1,0
2925,-1,1,4,3,-2,6,3,0,0
2930,-1,-3,0,0,9,-4,-4,-1,0
2935,0,0,1,1,0,-9,-3,2,0
2940,0,0,1,-1,-5,-3,-3,-2,0
2945,0,-1,-1,-5,-6,2,-2,-3,0
2950,-3,-1,1,-1,5,0,-5,0,0
2955,-1,0,-3,-4,-9,-2,-3,-2,0
2960,0,0,-3,-2,-1,1,-1,-2,0
2965,-2,-2,-1,-3,-16,-3,-5,-3,0
2970,-1,-1,-2,2,15,5,2,1,0
2975,0,-1,-5,2,0,2,-2,-2,0
2980,-2,-1,1,-2,-5,-4,4,-2,0
2985,-2,0,1,3,6,-3,-1,1,0
2990,0,-3,0,-1,-4,-6,-2,1,0
2995,1,-2,-5,-2,-10,-7,0,-2,0
3000,0,0,-1,-3,10,4,0,-2,0
3005,0,-1,-3,0,4,2,0,-2,0
3010,-1,0,-1,-5,-6,-7,0,-2,0
3015,-2,-1,0,1,0,6,0,-1,0
3020,-2,-1,-1,-3,-1,8,1,0,0
3025,-3,-2,1,-1,-8,-5,2,1,0
3030,-1,0,-4,-5,-23,3,-3,-2,0
3035,0,0,-1,3,15,-3,3,3,0
3040,-1,0,4,10,12,-2,1,-2,0
3045,-1,-3,-5,-10,-11,-6,4,1,0
3050,-5,-4,-5,-12,0,-5,-4,-5,0
3055,-1,0,-2,-8,-22,-7,0,-2,0
3060,-2,-1,-1,-4,0,3,-6,-1,0
3065,0,0,4,11,11,3,-13,-2,0
3070,0,0,2,6,12,3,-13,1,0
3075,0,-2,0,-3,-2,-1,-14,-3,0
3080,1,0,-1,-2,-3,-2,-8,0,0
3085,-1,-1,-1,0,-1,-1,-8,-3,0
3090,0,1,1,-2,-2,-3,-5,-1,0
3095,-2,-1,2,-1,-3,0,-2,-3,0
3100,-3,-1,-3,-5,-9,-2,19,-16,0
3105,-2,0,-2,-4,-2,6,55,-6,0
3110,0,-1,-2,1,1,3,81,-2,0
3115,1,-3,-1,3,-2,-8,86,7,0
3120,1,-2,-3,-2,-4,-11,66,15,0
3125,-1,0,-2,-1,-4,-11,1,10,0
3130,-2,0,1,2,6,-10,-40,7,0
3135,-1,0,1,1,-2,-5,-57,-2,0
3140,-2,-3,-3,-4,-1,4,-68,-4,0
3145,0,-2,-2,-1,3,4,-62,-6,0
3150,-2,0,0,0,-1,1,-49,-4,0
3155,-3,1,-2,-4,-4,2,-38,-4,0
3160,-2,0,-3,-5,-1,2,-30,-2,0
3165,-3,0,0,-1,0,7,-24,-3,0
3170,0,-2,0,-1,3,6,-18,-1,0
3175,-3,0,-3,-3,-1,4,-6,-2,0
3180,-2,0,-1,-3,-4,1,-1,-2,0
3185,-1,0,0,-2,0,2,9,-2,0
3190,2,-2,1,-2,-2,3,13,-1,0
3195,-1,-1,-3,-1,-3,-2,9,0,0
3200,1,-1,-3,-1,-5,-5,6,3,0
3205,1,-1,-1,0,-2,-5,7,-1,0
3210,-1,2,0,-1,-2,-4,4,-3,0
3215,1,-3,0,-1,-1,-2,-1,-5,0
3220,-3,-1,-1,-2,1,1,-4,-3,0
3225,-2,-3,0,-1,1,0,-7,-2,0
3230,-1,0,0,1,2,-3,-1,0,0
3235,-1,-1,-2,-2,0,-2,-1,-1,0
3240,-3,-2,0,1,-2,2,1,-1,0
3245,0,-1,-1,-3,-2,1,5,-1,0
3250,1,-4,-1,0,1,-3,5,-2,0
3255,-2,0,-1,-3,0,-2,3,0,0
3260,-2,0,1,-1,-1,0,3,-1,0
3265,0,0,-1,-3,-2,-1,0,2,0
3270,1,-2,0,-2,-2,0,1,-1,0
3275,-1,0,-2,-2,-1,-3,-2,-2,0
3280,0,-1,0,-1,-3,-5,0,-1,0
3285,0,0,-2,2,3,5,3,-2,0
3290,0,-2,-3,-2,-4,0,5,-2,0
3295,0,-1,0,-1,-4,-2,-8,-1,0
3300,0,-1,0,-3,-2,-1,-8,0,0
3305,0,-1,-3,-1,-3,-4,-13,1,0
3310,-1,-1,-1,-1,-1,-4,-9,-3,0
3315,0,-1,0,-1,-3,2,-1,-6,0
3320,-5,-2,-3,0,17,17,1,-3,0
3325,1,-1,-2,0,2,-1,3,2,0
3330,-2,-1,0,0,-1,-3,-1,0,0
3335,3,0,-3,0,-2,-7,-2,2,0
3340,1,-2,-3,-1,-6,-6,-2,-3,0
3345,-4,-2,-2,-1,-3,1,2,-2,0
3350,-3,-2,0,-1,0,0,2,1,0
3355,1,-1,0,0,-2,-1,2,-2,0
3360,0,-1,-2,0,-4,-4,1,-1,0
3365,0,0,-1,-1,-1,-2,-2,-1,0
3370,-1,-1,0,-3,-2,-3,1,-1,0
3375,2,-1,1,1,-3,-2,1,-3,0
3380,1,-1,0,-1,-1,1,0,-2,0
3385,-4,-2,-2,0,-3,0,2,0,0
3390,1,0,1,-1,-4,-4,0,1,0
3395,-1,0,0,0,-5,-6,-1,-3,0
3400,-1,0,-2,-1,9,7,4,0,0
3405,2,-2,-3,-3,-1,1,2,-2,0
3410,-6,0,-1,-3,-1,-3,-1,-2,0
3415,-3,-1,-1,-2,2,-1,-2,-2,0
3420,-3,-2,-1,-1,-4,-4,-3,-3,0
3425,-2,-3,2,-1,1,-2,0,0,0
3430,2,0,0,-1,-2,-4,2,-2,0
3435,1,-1,0,-2,2,5,-1,0,0
3440,-2,0,-3,-2,-9,-8,-2,-1,0
3445,-1,-2,-6,-1,-3,-3,-4,0,0
3450,-2,-1,-1,0,13,16,10,4,0
3455,-4,-2,-1,-1,0,-1,-1,-5,0
3460,1,-2,-1,-1,-5,-5,1,-2,0
3465,0,0,0,-1,-2,-2,-4,-2,0
3470,-2,-1,-2,-1,-6,-6,-4,-1,0
3475,0,-2,-4,-1,0,1,-2,0,0
3480,-1,0,2,-3,-2,-2,0,0,0
3485,-1,-1,-1,-2,-5,-7,-1,0,0
3490,2,0,1,-1,-2,3,-1,-2,0
3495,-2,-1,-1,-3,0,-3,0,-1,0
3500,-3,-2,1,-1,3,3,-4,-1,0
3505,-4,0,-1,-2,1,0,0,-2,0
3510,-1,0,-1,-1,-3,-4,-3,-1,0
3515,-1,-2,-1,0,-11,-4,-1,0,0
3520,0,2,0,-1,4,2,-2,-2,0
3525,-1,-1,1,2,7,8,4,-1,0
3530,0,0,-1,-1,-9,-9,-3,-3,0
3535,1,0,-1,-2,-11,-13,-4,0,0
3540,0,-2,-3,-1,11,5,-1,1,0
3545,-1,-1,-1,-3,3,4,0,1,0
3550,2,-2,-3,0,2,-3,-1,-1,0
3555,-2,-1,-1,0,-4,-4,1,-1,0
3560,-3,-2,-1,-2,-4,-3,-2,-1,0
3565,-2,-2,-3,-1,-1,-6,0,-1,0
3570,-2,-2,-2,0,-3,-3,-4,-2,0
3575,0,-1,-1,-2,-4,-5,-2,-3,0
3580,0,-2,-2,0,3,4,1,1,0
3585,-3,-1,-1,0,-2,5,-2,-1,0
3590,0,0,0,-3,-5,-9,0,2,0
3595,-1,-1,1,-1,7,3,1,-1,0
3600,0,0,-1,-2,-5,5,-5,-1,0
3605,2,0,-1,0,-6,-4,1,1,0
3610,0,-2,0,-1,-3,-6,-1,-3,0
3615,0,-1,-1,-3,-2,5,-4,1,0
3620,1,-2,-3,-2,-5,3,2,1,0
3625,-5,1,1,-2,7,-5,-3,-1,0
3630,1,-3,0,1,6,0,-4,-4,0
3635,-1,-1,-2,-3,-20,-8,0,-1,0
3640,0,0,-3,0,17,19,1,-1,0
3645,1,-2,-1,-1,-8,-3,-3,-1,0
3650,-3,1,-5,0,-6,-4,-1,0,0
3655,-1,-1,-3,-4,5,1,-2,-1,0
3660,-1,-1,3,2,-7,-30,-3,0,0
3665,0,0,-1,1,4,2,7,2,0
3670,-3,-2,2,1,0,10,-1,1,0
3675,0,-2,1,-3,-3,-9,-5,-1,0
3680,-5,-1,-1,-5,-7,17,-3,-3,0
3685,1,0,1,-2,1,-8,1,0,0
3690,-1,-1,0,0,1,-2,-4,1,0
3695,-2,-2,-2,0,7,8,1,-1,0
3700,-1,-1,-1,-1,-19,-11,-2,-4,0
3705,0,-4,-3,-3,13,23,-1,-4,0
3710,0,-3,-3,-3,-8,-1,-1,-1,0
3715,-2,-2,0,1,9,10,1,0,0
3720,-1,1,1,1,-2,-17,-1,0,0
3725,0,0,-3,-3,-12,-8,-7,-3,0
3730,-3,-2,-4,-5,-4,2,0,-3,0
3735,1,0,2,4,4,10,5,2,0
3740,0,-2,-2,-2,4,5,3,-2,0
3745,2,0,0,-1,-22,-17,-6,0,0
3750,-4,0,-5,-1,16,13,-2,-1,0
3755,-2,-1,-2,0,3,0,-5,-2,0
3760,-2,1,-1,-2,-38,-27,-3,-2,0
3765,-2,-1,-2,-5,31,19,2,0,0
3770,-3,-1,0,1,-2,-2,-2,-1,0
3775,0,0,0,-5,-6,-6,-4,-2,0
3780,-1,-1,-1,0,16,3,-9,2,0
3785,1,-1,1,0,-37,-48,-5,-1,0
3790,2,3,3,2,3,0,7,3,0
3795,-4,-3,-2,-3,8,10,2,-3,0
3800,-4,-2,-2,1,10,12,0,-5,0
3805,-3,-4,0,-2,-18,-36,-18,-3,0
3810,0,-2,-1,-5,6,44,18,0,0
3815,3,1,2,7,-6,-36,-19,3,0
3820,0,-1,-2,-3,9,23,3,1,0
3825,-3,-1,0,3,4,-1,5,0,0
3830,-2,0,-1,-1,-7,-27,-6,-3,0
3835,-2,-1,-3,-3,-10,-13,-1,-3,0
3840,0,-1,0,-1,4,5,1,-1,0
3845,-2,-1,-2,0,3,15,1,-2,0
3850,0,0,1,0,5,-12,-7,-1,0
3855,-2,-2,-1,-2,4,0,1,-2,0
3860,1,-1,-2,1,-10,-14,-5,2,0
3865,-1,1,-2,-4,-1,19,3,-2,0
3870,-2,-4,0,0,-2,-11,-5,-1,0
3875,-1,0,-1,-1,1,6,0,-2,0
3880,-2,-1,-4,0,6,7,3,-2,0
3885,0,-1,-2,-1,-5,-6,2,0,0
3890,0,1,-3,-3,-10,-4,-5,-1,0
3895,-1,0,-1,3,25,22,3,1,0
3900,-1,0,0,1,-1,-6,1,0,0
3905,0,-2,0,-2,1,14,2,0,0
3910,0,1,-1,-4,-9,8,-4,-3,0
3915,1,-2,1,2,-7,-39,-14,-4,0
3920,-2,-2,-1,-8,-6,12,15,-1,0
3925,1,2,1,8,12,-25,-1,1,0
3930,-1,-3,-3,-2,-8,-7,0,-3,0
3935,-3,1,-2,-2,-5,16,2,-2,0
3940,-4,-5,-3,4,11,19,11,2,0
3945,0,0,-3,-1,4,-5,3,1,0
3950,0,0,0,1,0,-8,-6,0,0
3955,-3,0,-4,-9,-7,-12,-4,-4,0
3960,1,1,-1,-2,-1,-19,-7,-2,0
3965,-1,-1,1,-3,-9,12,4,-1,0
3970,0,-2,0,-1,-12,-18,-2,0,0
3975,-2,-1,-3,-6,19,39,-3,-3,0
3980,1,-7,-2,3,8,10,3,1,0
3985,-2,-2,-2,-3,3,19,2,-3,0
3990,-1,1,-1,-2,-1,1,4,-1,0
3995,-3,-1,1,4,-9,-28,-7,-1,0
4000,1,1,1,-2,-13,-13,-6,-2,0
4005,1,0,-1,-4,-1,-15,-6,-3,0
4010,-1,2,0,-2,2,11,4,1,0
4015,-4,-4,-3,-2,-5,4,3,-4,0
4020,-2,0,-1,-4,-2,-10,-4,-2,0
4025,-4,-3,-2,2,1,4,-2,1,0
4030,2,-1,0,2,-3,2,1,-1,0
4035,-1,-1,0,0,0,13,3,-2,0
4040,0,1,0,-2,-12,-4,-1,-1,0
4045,-4,-2,-3,-4,-17,-50,-12,-6,0
4050,3,1,1,6,50,92,20,7,0
4055,2,-2,2,10,4,18,11,4,0
4060,0,2,-1,-1,-7,3,-5,-2,0
4065,-2,-5,-2,-3,-16,-25,-2,-1,0
4070,-2,-3,-1,-6,-4,15,-6,-5,0
4075,-1,-2,-1,-1,2,-3,2,1,0
4080,2,-2,-3,-2,0,-9,3,-1,0
4085,-4,3,-1,-2,-1,17,6,1,0
4090,-4,-1,-2,-1,0,-23,-9,-3,0
4095,-1,-2,-1,-4,-13,-2,-2,-4,0
4100,-2,-2,0,-3,-9,-12,-6,-3,0
4105,7,1,-2,-3,11,5,-6,3,0
4110,2,1,4,4,1,-32,-3,6,0
4115,-1,6,1,-1,1,2,-3,-3,0
4120,-8,-6,-7,-4,-4,-4,-4,-6,0
4125,-1,-1,-1,-4,0,46,12,-1,0
4130,1,-1,2,4,0,-65,-13,0,0
4135,-2,-1,-3,-2,-4,5,-5,-2,0
4140,0,2,0,-1,7,6,-3,0,0
4145,-5,1,-1,-4,-21,0,0,-6,0
4150,-6,-3,-2,-1,9,3,-3,-7,0
4155,2,-4,-2,-2,2,-10,8,3,0
4160,1,2,0,4,6,-7,-4,0,0
4165,2,-1,1,3,8,17,2,1,0
4170,2,-2,-1,-2,-17,-14,-5,-5,0
4175,-11,-3,0,-2,15,34,-1,-2,0
4180,2,2,3,-2,-13,-21,2,3,0
4185,-2,0,-2,-2,14,-2,-4,-2,0
4190,2,-2,-5,-4,-12,24,-1,-3,0
4195,1,-1,-2,1,2,-39,-8,-2,0
4200,0,-3,-3,0,0,-2,0,-1,0
4205,-4,-1,-1,2,-10,-21,-3,-1,0
4210,-3,-1,-2,-1,-1,13,1,-1,0
4215,-1,-3,-3,-5,-2,9,2,-1,0
4220,-1,0,1,1,1,0,-4,1,0
4225,0,-1,0,-4,0,13,5,-1,0
4230,1,-1,0,1,0,-34,-7,2,0
4235,2,0,0,-5,-7,3,-6,-2,0
4240,2,0,0,1,8,36,14,-1,0
4245,-11,-2,-2,-2,-9,-36,-8,-8,0
4250,12,1,2,7,5,41,6,9,0
4255,-3,-3,0,-1,-4,-2,-4,-3,0
4260,-1,-1,-3,-1,-2,9,-2,-2,0
4265,2,-3,-4,-1,-4,-6,1,1,0
4270,-7,-1,-3,-3,-8,-2,1,-3,0
4275,0,-2,-1,0,1,-15,-5,1,0
4280,0,-3,0,-5,-2,10,2,0,0
4285,-1,-1,0,-3,0,9,-2,1,0
4290,-4,-3,-3,-1,6,-2,-1,-3,0
4295,1,0,-1,2,5,15,0,0,0
4300,-4,-1,-2,-4,-6,-21,-5,-2,0
4305,1,-2,0,2,10,9,0,0,0
4310,-2,0,0,0,-7,-3,-1,-1,0
4315,0,-2,-1,-3,-13,-10,1,-3,0
4320,-3,-1,0,0,7,0,-2,-4,0
4325,2,0,0,-1,1,-1,0,0,0
4330,-3,0,-2,-2,0,6,1,-1,0
4335,-2,0,-3,-1,-4,-4,-2,-2,0
4340,-2,-1,-2,0,0,-5,-2,0,0
4345,3,-1,-1,0,-3,5,-1,1,0
4350,-2,-1,-1,-1,-4,-8,-1,0,0
4355,-1,-2,0,1,9,0,1,0,0
4360,1,-1,-2,-2,-16,0,2,1,0
4365,-2,-2,-1,1,4,-12,-3,1,0
4370,-4,-2,0,-2,2,21,5,-3,0
4375,-3,-2,-1,-2,-4,-19,-10,-3,0
4380,1,-1,1,1,-2,5,0,-1,0
4385,0,-1,0,0,6,8,3,0,0
4390,-1,-1,-2,0,1,-13,-2,-2,0
4395,-2,-1,-3,-4,-9,1,-2,0,0
4400,-3,0,-1,0,4,-5,13,-1,0
4405,-1,0,-3,-2,-4,-3,-11,-2,0
4410,-3,-1,-2,-2,-2,7,3,-3,0
4415,-2,-1,-3,-2,-2,13,0,-2,0
4420,-1,0,1,2,3,-27,-12,1,0
4425,-1,-1,1,1,1,12,1,1,0
4430,-2,-1,0,-2,-1,-13,-7,-3,0
4435,0,0,-2,-1,-4,-1,3,0,0
4440,0,-1,-3,-4,6,0,-5,-3,0
4445,0,-1,-1,-1,-2,-3,15,-1,0
4450,-4,-3,-1,-4,-2,19,-7,-2,0
4455,-3,0,1,1,9,-22,-4,1,0
4460,-1,-2,-1,1,-2,19,-4,-2,0
4465,3,0,0,2,2,-29,-12,-1,0
4470,4,1,1,-1,-7,-3,-6,1,0
4475,-2,1,1,-2,-7,13,12,0,0
4480,-4,0,-2,1,12,3,-3,-3,0
4485,-5,-3,-4,-7,-10,24,11,-4,0
4490,3,1,4,5,10,-53,-20,4,0
4495,1,-4,-1,0,-1,-2,-9,-5,0
4500,-2,-2,-1,-4,-9,-6,8,0,0
4505,0,1,1,-1,5,9,2,4,0
4510,-2,-3,-3,-3,-8,-4,12,-2,0
4515,1,0,0,1,5,4,8,1,0
4520,-2,0,-2,0,-4,1,-11,-1,0
4525,0,-2,-2,-1,-2,-3,-14,-5,0
4530,-2,-2,-1,-1,2,7,-11,-8,0
4535,3,0,0,-1,2,-9,14,5,0
4540,-4,-3,-2,-5,-6,5,-3,-3,0
4545,-1,1,1,1,0,-3,26,4,0
4550,-7,-1,-4,-2,-1,-10,-15,-5,0
4555,-2,0,-1,-2,-9,5,7,-3,0
4560,-3,-2,-1,-1,11,8,-7,-1,0
4565,0,-2,1,-1,-7,-15,-11,-4,0
4570,0,-2,-2,-2,-1,-4,4,0,0
4575,0,-3,0,2,3,9,-6,-3,0
4580,0,-2,0,-2,2,-17,27,7,0
4585,-2,0,-1,-1,-15,-5,-3,-5,0
4590,1,0,0,1,4,18,35,8,0
4595,1,1,-1,0,-4,-4,-54,-6,0
4600,-1,-1,1,1,5,-4,-3,-3,0
4605,-3,0,0,0,-2,-14,-18,-5,0
4610,0,-2,-1,-3,-1,8,-1,0,0
4615,-2,0,-1,-2,-3,1,9,-2,0
4620,-2,-4,-1,-4,-9,0,-4,-6,0
4625,-2,-4,-2,2,1,-35,-6,-1,0
4630,-1,2,-2,0,-4,4,-23,-9,0
4635,1,-1,-4,-1,3,-6,26,11,0
4640,-1,8,0,-2,-8,3,-9,-4,0
4645,-8,-14,-7,-5,-13,-16,-6,-5,0
4650,0,-1,0,-1,24,72,25,4,0
4655,0,2,1,4,1,-16,-11,-1,0
4660,-1,-1,-1,-5,-8,-38,10,2,0
4665,4,4,1,3,17,27,2,8,0
4670,-3,-1,-3,-2,-12,-28,-9,-4,0
4675,-4,-5,-3,-6,-4,8,-7,-9,0
4680,-1,1,-2,-1,2,6,2,0,0
4685,-2,1,-1,-2,-4,-12,-13,-6,0
4690,3,-2,0,0,-5,-16,-6,4,0
4695,-1,2,0,-3,-1,9,9,-2,0
4700,-3,-5,-2,-1,-3,-15,-13,-2,0
4705,0,-2,-1,-3,-4,14,9,-2,0
4710,7,1,-1,3,12,5,-3,2,0
4715,-2,1,-1,-1,-5,2,6,-2,0
4720,2,-1,-1,1,-2,-9,-15,-5,0
4725,-2,1,0,2,0,4,1,1,0
4730,-5,-1,-3,-1,-5,-20,-2,-5,0
4735,3,-1,1,-1,3,19,10,6,0
4740,-1,-2,-2,-1,4,14,4,1,0
4745,2,3,0,0,9,0,-3,3,0
4750,-3,-3,-1,-5,-26,-20,-5,-3,0
4755,-3,-6,-6,-9,-9,7,-7,-6,0
4760,-3,2,3,8,13,-27,-16,0,0
4765,1,-1,0,0,6,3,14,1,0
4770,4,1,2,3,2,11,1,6,0
4775,-4,-3,-2,-2,-4,8,3,-5,0
4780,3,0,-1,-3,-8,8,-3,-2,0
4785,0,-2,-2,-3,-4,-13,-25,-3,0
4790,-4,-1,-1,-2,-2,-7,5,-3,0
4795,-2,-3,0,-4,-2,-5,-1,0,0
4800,-4,-1,-3,-1,-3,-1,-6,-5,0
4805,0,1,-2,-1,10,16,10,0,0
4810,-4,0,-1,-3,-8,-9,-4,-4,0
4815,3,-1,0,1,8,1,17,7,0
4820,-3,-1,0,2,1,-3,-7,-3,0
4825,0,0,-1,-1,-3,17,12,1,0
4830,-1,-2,-1,-1,-4,0,7,-3,0
4835,-2,1,-2,-1,0,-46,-34,-10,0
4840,-3,-7,-1,-2,-4,2,17,1,0
4845,-3,-3,-5,-6,-7,19,0,0,0
4850,1,-4,-6,-1,-2,-9,-10,-3,0
4855,-2,0,-1,-1,-7,12,6,-1,0
4860,2,0,-3,-4,3,-5,-3,-2,0
4865,-8,-2,0,-5,-3,3,10,-6,0
4870,5,0,8,9,9,-38,-3,9,0
4875,-4,1,-4,-1,1,3,-5,-2,0
4880,1,0,0,-1,-7,1,-6,-2,0
4885,-3,-1,-2,-4,-11,-1,-8,-5,0
4890,-6,-3,-1,-8,-2,13,1,-3,0
4895,2,3,5,7,8,-18,4,4,0
4900,2,0,-2,-2,0,15,11,4,0
4905,-4,1,-1,2,1,-7,10,0,0
4910,-1,0,-2,-2,-4,6,2,-6,0
4915,0,-3,-1,-3,0,1,-15,2,0
4920,-7,-2,-2,-2,-2,15,19,-4,0
4925,-1,-1,1,2,3,-6,-12,1,0
4930,3,-1,0,-4,-4,24,25,5,0
4935,-5,-2,0,-2,-11,-37,-16,-7,0
4940,1,0,0,-3,8,22,-3,1,0
4945,3,2,0,0,5,8,6,2,0
4950,-4,0,-2,-1,-2,-22,-13,-5,0
4955,3,-2,-1,0,-1,8,9,2,0
4960,0,-1,-1,0,-5,-3,-14,-3,0
4965,-5,-1,1,-1,-3,-4,0,-1,0
4970,0,-2,-2,-4,2,17,-2,1,0
4975,-6,-1,-1,-2,-1,4,3,-1,0
4980,1,-1,-1,1,-3,-8,1,0,0
4985,1,-2,-2,-2,0,3,-1,0,0
4990,-1,-1,-3,0,-1,-9,-13,-3,0
4995,0,-2,0,-3,-1,6,-15,-3,0
5000,-3,1,-1,-2,-3,23,36,1,0
5005,4,0,2,5,4,-37,-8,2,0
5010,-3,0,-3,-1,0,-1,-3,-3,0
5015,1,-1,-3,2,-1,8,4,0,0
5020,-2,-2,-1,-4,-4,-11,-9,-4,0
5025,-2,-2,-2,-1,0,11,-6,-4,0
5030,-4,-3,-1,0,-2,-10,-1,0,0
5035,0,-1,-2,-1,4,13,5,-1,0
5040,4,2,1,0,-2,-17,-15,2,0
5045,-1,1,-2,-1,2,18,7,-1,0
5050,0,-1,0,-1,-2,-9,-9,-5,0
5055,-5,-4,-2,-1,-4,5,-1,-1,0
5060,-2,-2,-4,-3,-4,-3,21,-1,0
5065,1,-2,0,1,9,13,-19,0,0
5070,0,1,-2,3,2,2,9,5,0
5075,0,-1,-1,-3,-5,17,5,-1,0
5080,-2,-1,0,1,-2,-10,-11,1,0
5085,-4,0,-2,-3,-5,-29,-1,-4,0
5090,-2,-1,-1,1,1,10,-4,-2,0
5095,1,0,-1,-1,-1,3,10,2,0
5100,-3,-3,0,1,1,9,-15,-4,0
5105,1,-2,-3,-5,-7,4,0,-3,0
5110,1,0,-2,-3,-3,-5,-1,3,0
5115,-5,-7,-1,0,4,-23,-19,-5,0
5120,1,7,2,0,-1,10,6,-2,0
5125,3,-1,1,-1,-3,-14,9,3,0
5130,-8,-3,0,-2,6,24,7,-4,0
5135,1,0,-4,-2,-9,-10,-9,3,0
5140,-2,-2,-3,2,3,-7,-4,0,0
5145,3,-1,1,2,-1,-18,-7,2,0
5150,-2,0,0,-2,-3,-10,7,-3,0
5155,-1,-1,-3,-2,-4,12,7,1,0
5160,-3,-3,-1,-1,-1,8,-4,-3,0
5165,-2,-2,-3,-4,-3,-6,7,0,0
5170,0,-2,-1,-1,-3,-6,-3,-2,0
5175,-1,0,0,1,10,9,-1,-1,0
5180,1,-1,0,-1,-2,-7,-6,-1,0
5185,-1,-2,-2,-1,-2,3,-3,-2,0
5190,0,-2,-4,-4,-4,-1,-7,-5,0
5195,0,1,-1,-1,-7,-19,0,1,0
5200,-4,-1,0,-1,6,9,7,4,0
5205,1,-2,-1,-2,4,20,6,0,0
5210,-1,-6,0,2,-1,-18,-8,-1,0
5215,2,10,3,0,-6,-27,-4,-2,0
5220,1,-5,0,0,-2,6,-2,-2,0
5225,-3,-3,-3,-2,-5,-25,-4,0,0
5230,-2,0,0,-1,0,0,1,-1,0
5235,-1,-3,1,-1,0,-1,-2,-1,0
5240,-3,-1,-2,0,5,1,-4,0,0
5245,-4,-1,-2,-2,-5,4,2,-2,0
5250,1,1,0,-1,0,7,3,2,0
5255,-2,-2,-3,-2,1,-9,-2,-1,0
5260,-3,-2,-3,1,-3,-13,-4,-5,0
5265,2,0,1,-1,3,28,6,3,0
5270,-2,-1,-2,-2,-5,-10,-7,-5,0
5275,-1,-1,1,2,0,-3,-4,-1,0
5280,-1,-1,-3,-6,4,13,5,-1,0
5285,-3,-1,-1,-1,0,-2,-12,-3,0
5290,1,0,0,-1,0,26,28,3,0
5295,-3,-8,-2,-2,-4,-26,-9,-4,0
5300,0,10,0,0,4,19,5,1,0
5305,2,-1,2,5,-1,-45,-21,-4,0
5310,3,3,-3,-4,0,8,1,2,0
5315,-6,-3,-2,-3,-5,16,5,-3,0
5320,0,-2,0,-1,5,15,0,0,0
5325,-1,-5,-3,-3,-4,6,2,-3,0
5330,-2,-2,-4,-1,-2,-5,-10,-6,0
5335,0,-2,-2,-1,2,8,3,-1,0
5340,-4,-4,1,-1,-5,-26,-7,1,0
5345,1,3,1,-2,-2,9,5,1,0
5350,-6,-3,1,0,-3,-12,-4,-2,0
5355,0,-1,0,-3,7,12,5,-1,0
5360,-5,-2,1,-1,-5,-13,-5,-3,0
5365,4,0,-2,1,-5,-6,7,2,0
5370,-1,-1,-1,-1,-4,-11,-13,-3,0
5375,0,0,-4,-2,3,1,-2,1,0
5380,-1,-2,-3,-3,-3,21,12,3,0
5385,-5,1,2,-2,-3,-33,-6,-2,0
5390,1,0,-2,2,4,23,3,2,0
5395,-1,0,-1,1,-2,-3,-2,-1,0
5400,0,-9,-4,-4,-10,-14,-16,-4,0
5405,-2,7,-2,-5,4,18,24,2,0
5410,-2,1,1,-2,-1,-8,-1,0,0
5415,-2,-1,0,-2,-6,-8,1,-3,0
5420,1,-2,-1,2,8,1,-8,-1,0
5425,0,-4,-1,-1,4,16,-4,-1,0
5430,-2,-2,-2,-1,0,-3,-12,-4,0
5435,-2,2,-2,-1,1,14,19,5,0
5440,0,2,0,1,-11,-39,-11,-4,0
5445,-2,-3,-1,0,-1,-8,-5,-3,0
5450,1,-2,-1,-1,1,15,0,-2,0
5455,-1,-1,-1,1,-2,3,-4,0,0
5460,0,0,-2,-5,-4,4,5,0,0
5465,-2,-2,-2,-2,0,0,-8,-3,0
5470,-2,-3,-1,-6,-10,-6,-1,-2,0
5475,0,0,2,1,8,-13,7,0,0
5480,-1,0,-1,0,0,7,-4,-1,0
5485,-1,-1,-1,0,1,-1,-4,-1,0
5490,-2,-1,-2,-3,-2,9,5,0,0
5495,-2,-1,-2,-3,0,-15,-12,-4,0
5500,2,-1,0,3,7,6,2,3,0
5505,0,-2,-2,0,-4,3,-11,-2,0
5510,-2,-2,2,0,-2,2,14,-2,0
5515,4,-1,-2,-3,-3,4,-1,5,0
5520,-1,-1,-1,-3,-1,-2,-1,-1,0
5525,-4,-1,-1,-2,-5,-9,-1,-4,0
5530,1,0,2,0,2,-5,-12,0,0
5535,-3,-4,0,0,0,9,5,-2,0
5540,0,-1,-4,-3,-2,0,3,-4,0
5545,-7,-3,-4,-4,-6,21,3,-4,0
5550,2,2,0,4,4,-53,-14,1,0
5555,-4,-2,-2,-1,1,25,7,-1,0
5560,-1,-3,-1,0,-2,-2,-16,-2,0
5565,-1,-1,-3,0,-3,7,2,-2,0
5570,-4,-1,-2,-4,-4,-11,-2,-2,0
5575,3,1,0,-1,-3,-15,-5,-1,0
5580,0,-1,0,0,1,3,7,0,0
5585,-1,-1,1,0,3,4,-3,0,0
5590,-2,-1,-2,-3,-3,16,12,1,0
5595,-1,-1,1,-1,-4,-21,-5,-3,0
5600,-1,-1,0,0,3,-4,-12,1,0
5605,1,1,0,-1,-3,3,14,2,0
5610,-3,-2,-2,1,-1,-6,-1,-1,0
5615,-4,-2,-3,-4,2,19,-6,-6,0
5620,-1,0,-1,-4,0,-10,3,4,0
5625,-1,-2,1,4,4,-6,-17,-3,0
5630,0,-3,-3,0,0,2,5,4,0
5635,-1,-2,-4,1,-5,1,-4,-5,0
5640,-7,-1,-1,-3,-5,-1,7,-3,0
5645,0,-2,-1,-1,-1,-5,-2,1,0
5650,-2,0,-2,-1,1,2,-1,-1,0
5655,-1,0,-1,-2,-3,-4,-4,0,0
5660,1,-3,-2,1,-1,-6,-2,-2,0
5665,-5,-1,-2,-1,-3,-2,-2,-3,0
5670,-4,-1,0,-1,-2,3,-2,-4,0
5675,-4,-1,-1,-5,3,20,24,1,0
5680,14,2,2,8,7,-25,-24,7,0
5685,-6,-5,-2,-4,1,5,0,-2,0
5690,2,0,0,-1,-3,-2,9,2,0
5695,0,1,0,1,1,-14,-7,-2,0
5700,-5,0,-1,-4,-3,11,9,-4,0
5705,0,1,0,-2,-2,6,0,0,0
5710,-3,-2,0,-3,0,4,-10,-5,0
5715,4,-2,1,0,-5,-13,-4,1,0
5720,-5,-3,-3,-2,-4,-3,5,-5,0
5725,3,1,-2,0,2,-3,-7,-1,0
5730,-3,0,-4,-4,0,21,3,1,0
5735,0,1,1,2,3,-21,5,3,0
5740,1,-2,0,-1,-3,10,9,-1,0
5745,0,-2,-1,-2,-3,5,-9,-3,0
5750,0,-1,0,-1,0,-15,-1,1,0
5755,-1,-2,0,-2,-8,1,-11,-3,0
5760,-3,0,-1,-4,-3,6,1,-4,0
5765,0,-1,1,1,0,-30,-2,1,0
5770,2,-2,-1,-1,5,17,-12,2,0
5775,0,1,0,4,8,-4,22,4,0
5780,-3,0,-1,-1,-8,13,-4,-4,0
5785,-4,-2,-2,-2,-8,9,-5,-2,0
5790,-1,-3,-2,-4,-6,-20,-14,-6,0
5795,0,1,0,-2,-2,26,8,6,0
5800,-3,0,1,4,7,-19,-3,2,0
5805,3,0,-2,2,1,-9,-1,1,0
5810,-4,-2,-2,0,-1,1,1,-3,0
5815,-1,-1,-2,-2,-1,2,-9,-3,0
5820,-2,-1,-2,-3,-1,4,6,-1,0
5825,0,-1,0,-3,-2,0,-1,-1,0
5830,1,-1,0,0,-2,-7,1,-1,0
5835,-3,-2,-1,1,-6,3,-15,-5,0
5840,-1,-2,-2,-1,3,-4,-1,-1,0
5845,-2,-2,-3,-3,-2,-2,-6,-2,0
5850,1,1,0,1,0,4,21,5,0
5855,0,0,-2,0,2,0,-4,0,0
5860,1,-2,-2,-2,-3,5,3,0,0
5865,0,-1,-1,1,3,-9,5,0,0
5870,1,1,0,2,0,-23,-16,-2,0
5875,-1,-2,-4,-3,-3,18,6,-2,0
5880,-1,0,1,-1,-2,-25,-11,-2,0
5885,-2,1,0,-1,-4,2,7,1,0
5890,-2,0,-3,0,5,3,-5,-2,0
5895,-2,-2,-1,1,-1,-14,-16,-2,0
5900,-3,-2,-2,-3,-4,-11,42,6,0
5905,-3,1,1,2,1,9,-2,-1,0
5910,-2,-2,-1,0,-3,0,0,-4,0
5915,1,0,0,-1,-3,2,-7,-4,0
5920,0,-1,1,0,-1,-4,-9,-3,0
5925,0,-1,-3,-3,-10,-5,-3,0,0
5930,0,-1,-2,-3,4,9,5,1,0
5935,-2,-2,0,-1,-2,2,0,1,0
5940,-3,-1,-1,-2,5,3,-26,-9,0
5945,2,1,-1,2,-1,-6,14,9,0
5950,-3,0,-1,1,-3,0,-16,-4,0
5955,-1,-1,-1,-2,-3,-19,18,3,0
5960,-2,-1,-2,-3,-5,3,-10,-5,0
5965,1,-1,0,-2,-7,-3,-7,-3,0
5970,-3,-2,1,-1,6,18,14,-1,0
5975,-1,0,-2,0,3,-8,-6,-4,0
5980,3,0,-1,0,-2,11,9,1,0
5985,-4,-1,-3,-2,2,6,-10,-5,0
5990,3,0,0,0,-8,-34,1,0,0
5995,-3,-2,-1,-2,0,8,-5,-1,0
6000,-1,-3,-2,-3,0,6,-3,2,0
6005,-3,-3,-3,-1,-8,-1,0,-6,0
6010,-1,-1,-2,-1,8,7,18,5,0
6015,-1,-1,-1,1,2,-1,6,-1,0
6020,1,2,-1,1,-4,-18,-9,3,0
6025,0,0,-2,0,4,5,-4,-2,0
6030,-2,-1,-3,-3,-8,4,-3,-3,0
6035,1,0,-1,-1,-4,1,-3,-1,0
6040,0,-2,-2,1,8,-8,-13,-2,0
6045,-2,-2,0,0,3,4,9,1,0
6050,-3,-1,0,1,-5,-30,-25,-3,0
6055,0,-1,-1,-2,-4,6,12,1,0
6060,-1,-2,0,-4,-5,1,4,-1,0
6065,-2,-1,0,-3,2,2,-9,-2,0
6070,0,-2,-2,-1,-1,5,13,-2,0
6075,-1,-3,-3,-3,-5,-10,-11,-4,0
6080,-1,0,-3,0,-7,7,4,3,0
6085,-5,0,-3,-1,5,5,-4,-2,0
6090,3,0,-1,-2,-8,-2,9,4,0
6095,1,0,0,1,12,7,-6,2,0
6100,-1,-1,-1,-1,-2,1,-10,-6,0
6105,0,-4,-2,-3,-9,13,24,3,0
6110,-4,-1,0,0,-2,-32,-35,-6,0
6115,2,-1,-1,1,4,26,10,1,0
6120,-1,1,2,1,-3,-7,-18,-4,0
6125,1,-2,0,-2,3,1,17,1,0
6130,-1,-2,-2,-4,-3,10,4,-2,0
6135,-2,-3,-3,-3,-5,-7,-7,-3,0
6140,-1,-3,-5,-4,-1,-1,3,-2,0
6145,-2,-1,-3,-2,-1,-1,-6,-2,0
6150,6,1,1,0,4,-7,-14,6,0
6155,0,1,2,2,-1,-9,4,1,0
6160,0,2,0,1,4,11,11,4,0
6165,-7,-2,-2,-1,-1,-4,3,-1,0
6170,-5,-3,-2,-1,0,17,-2,-8,0
6175,-6,-3,-2,-2,-6,-24,-13,-6,0
6180,0,-4,-1,-2,-4,-6,2,-5,0
6185,4,-1,0,0,3,3,5,7,0
6190,-2,-2,-1,0,-2,10,6,-2,0
6195,-4,-2,-1,0,0,2,-5,-4,0
6200,0,-2,1,1,-3,-6,-1,-2,0
6205,-1,-2,0,-3,-4,-13,-7,-3,0
6210,0,-2,-2,-2,1,7,5,1,0
6215,-3,-2,-2,-3,-3,-3,-7,-2,0
6220,-1,0,-1,-3,0,-7,8,3,0
6225,2,1,3,2,3,9,-17,-1,0
6230,-1,-1,-1,-2,-2,4,-15,-2,0
6235,2,0,-1,-1,1,-3,18,0,0
6240,-3,1,-1,0,-1,3,-4,-3,0
6245,-3,-2,-5,-2,-4,-17,-4,-5,0
6250,1,0,-2,-3,0,7,7,0,0
6255,0,-1,-3,0,-3,1,-3,2,0
6260,-2,-2,-3,-5,-7,-4,1,-4,0
6265,0,0,0,1,2,-10,-2,-1,0
6270,1,1,0,2,7,30,0,5,0
6275,0,-2,0,1,-3,-18,-8,1,0
6280,-1,0,0,0,-1,1,2,-1,0
6285,-3,-3,-2,-4,-7,-23,-11,-6,0
6290,-2,-3,-1,-2,0,18,14,-2,0
6295,1,1,2,1,0,-8,-9,3,0
6300,-1,-1,-2,-2,-1,13,15,-1,0
6305,-1,0,1,0,0,-9,-9,-2,0
6310,-3,0,0,0,-9,-18,-3,-1,0
6315,-2,-2,-3,-5,-2,-2,-1,-3,0
6320,-2,-2,-2,-1,1,14,-11,-3,0
6325,-1,1,0,2,-3,-14,7,-2,0
6330,-2,0,-1,-1,2,2,6,0,0
6335,2,-4,-3,-4,-7,12,1,-4,0
6340,-1,1,2,0,4,-15,-4,6,0
6345,0,0,0,0,3,22,3,1,0
6350,-3,-2,-1,-1,0,-4,-3,1,0
6355,-1,1,-4,-1,-7,-8,-5,-1,0
6360,1,-1,0,-1,6,9,2,0,0
6365,1,-2,-1,-2,-5,5,12,2,0
6370,-2,-1,0,-1,1,-11,-17,-6,0
6375,-3,-1,-3,-2,2,0,-4,-4,0
6380,-1,-1,-3,-2,-5,0,-6,-2,0
6385,-1,1,-3,1,-1,0,-1,-2,0
6390,-3,-2,-4,0,-6,-9,-7,-3,0
6395,2,3,2,2,1,-7,21,7,0
6400,0,-1,-3,0,0,-4,-13,-1,0
6405,0,-5,-3,-4,0,17,-15,-5,0
6410,-1,-1,-2,-2,-4,-1,2,-3,0
6415,-4,-2,1,-2,-1,-6,-5,0,0
6420,2,1,1,4,5,-2,4,3,0
6425,-1,-1,-1,-1,-3,4,-4,-4,0
6430,3,0,1,-2,0,-1,-7,1,0
6435,-3,-2,-3,-3,-3,0,-12,-7,0
6440,-2,-4,-3,-4,-2,12,2,-5,0
6445,-1,-1,1,0,0,-27,2,3,0
6450,0,-1,0,-3,-1,22,4,2,0
6455,2,-2,2,2,1,1,8,2,0
6460,-2,0,-1,0,1,-8,-2,0,0
6465,-4,0,-1,-2,-4,19,-3,-6,0
6470,-2,0,-2,-3,-3,-10,4,1,0
6475,2,-1,-1,-4,-2,-24,-5,1,0
6480,2,0,0,-1,-3,7,-10,-2,0
6485,1,-2,1,-1,2,2,10,2,0
6490,0,1,0,-1,-3,12,10,0,0
6495,-5,-1,-4,-3,-1,-4,-11,-5,0
6500,1,0,1,2,-1,-18,10,3,0
6505,-1,-1,-4,-3,-3,5,-1,2,0
6510,-1,-1,0,1,4,-2,7,-2,0
6515,-3,-3,-3,-2,-1,14,2,-3,0
6520,-2,0,-3,-1,-3,-11,-4,-2,0
6525,0,-1,1,-1,1,7,0,-2,0
6530,-3,-2,1,0,0,-24,-4,1,0
6535,-2,0,2,0,-1,6,-12,-3,0
6540,-2,-2,0,-2,-4,-1,12,1,0
6545,2,-2,-4,-3,-9,-22,-10,0,0
6550,1,-2,-1,0,3,22,16,3,0
6555,0,0,2,1,4,10,-20,-4,0
6560,-3,-3,0,-1,-4,5,-9,-4,0
6565,-1,-2,1,0,1,11,9,-1,0
6570,-5,-3,-3,-4,-5,7,-6,-8,0
6575,0,-1,-1,-1,-1,0,6,5,0
6580,6,1,0,0,0,-11,1,0,0
6585,-3,-1,-2,-2,1,-8,-3,-3,0
6590,0,-3,-1,0,-2,-2,2,1,0
6595,-3,-2,-3,-1,-3,16,6,-4,0
6600,-3,-3,-3,-3,-5,3,2,0,0
6605,0,-1,-1,-1,1,6,-18,-6,0
6610,2,-1,0,-1,-3,-25,0,0,0
6615,-3,0,-1,-1,1,3,-9,-2,0
6620,-2,0,0,-1,-4,2,3,-2,0
6625,-2,-3,-3,-3,-4,-6,1,-4,0
6630,-2,-1,-2,-2,-6,-7,-16,0,0
6635,0,-1,0,0,4,-14,22,2,0
6640,-1,-2,0,1,-2,7,-5,-1,0
6645,-2,-2,1,1,0,-11,-7,1,0
6650,-2,-2,-2,-1,-6,-19,-17,-7,0
6655,-2,-2,-2,-6,-3,16,12,3,0
6660,-1,1,-1,-1,-2,-13,12,1,0
6665,-2,-2,-3,-1,13,4,-12,-2,0
6670,0,-1,-1,-1,-6,-11,-13,-2,0
6675,-2,0,-1,-2,-6,0,-1,-2,0
6680,2,1,1,-1,2,-18,-14,1,0
6685,1,1,2,3,0,-7,16,2,0
6690,-4,-1,0,0,0,-6,5,-1,0
6695,-1,-1,0,-1,2,16,-1,-2,0
6700,-5,-3,-4,-4,-4,-10,-12,-6,0
6705,3,1,3,0,-1,7,6,7,0
6710,-1,1,0,0,6,-1,9,2,0
6715,1,-2,0,1,-4,-18,-5,2,0
6720,-4,-4,-3,-2,-1,9,-2,-5,0
6725,-3,-3,-2,-5,-5,16,3,-5,0
6730,-2,0,-2,1,1,-17,4,-4,0
6735,1,1,0,-4,-10,9,-11,0,0
6740,2,3,3,7,17,-3,30,5,0
6745,-2,-2,-3,-2,-8,9,0,-5,0
6750,0,1,0,-2,-1,-5,11,2,0
6755,-2,-1,-1,-1,-2,-13,-9,-6,0
6760,-3,-2,-3,-5,0,14,-4,1,0
6765,-3,0,-1,-2,-3,-6,0,-3,0
6770,0,1,1,-1,1,20,-1,1,0
6775,-2,-3,-2,-1,2,-22,-3,-2,0
6780,-1,-2,-1,-1,1,3,-12,-2,0
6785,-1,-1,-1,3,-2,-14,-8,2,0
6790,-1,-2,-4,0,-1,8,15,0,0
6795,-1,1,-2,-2,-8,-3,-6,-4,0
6800,-2,-1,-2,-5,-1,19,4,-3,0
6805,1,1,0,0,3,-1,-12,-3,0
6810,1,-3,1,0,-2,-30,-5,2,0
6815,1,1,-1,3,5,0,12,3,0
6820,-2,-2,-3,-3,-10,-8,-5,-1,0
6825,0,1,-1,0,3,22,5,-1,0
6830,1,0,-3,-2,-1,16,-4,-3,0
6835,-2,-3,-1,-1,0,-2,-5,-2,0
6840,-1,-2,-1,-1,-7,-6,-5,-2,0
6845,-2,-1,0,-2,-7,-9,-5,-1,0
6850,-1,0,0,1,1,0,20,4,0
6855,0,-2,0,-1,2,-31,-4,-2,0
6860,-4,-3,-3,-7,1,62,0,-4,0
6865,-2,0,2,4,-3,-52,-24,-3,0
6870,2,2,-1,1,12,19,15,6,0
6875,0,0,-2,1,-3,-3,-10,-2,0
6880,0,-1,-2,1,-3,1,8,-2,0
6885,-2,-2,-2,-4,-4,5,-2,-2,0
6890,-3,-1,-1,-3,-4,5,-12,-6,0
6895,-1,-3,-2,-1,1,17,8,1,0
6900,0,1,-1,0,1,-22,-7,0,0
6905,-2,0,-3,-2,-1,4,8,1,0
6910,-1,-3,-1,-2,-6,-9,-13,-2,0
6915,2,-1,1,-2,0,19,8,3,0
6920,0,0,-1,1,-3,-17,-9,-4,0
6925,0,-2,-2,0,3,5,7,2,0
6930,-1,-2,-1,-1,-2,-1,-9,-2,0
6935,-2,0,-2,-1,1,1,0,-2,0
6940,-1,0,0,0,-3,-8,3,1,0
6945,0,0,-2,0,-1,-2,3,-2,0
6950,2,-1,-2,-6,-6,17,-10,-3,0
6955,-5,-1,2,3,12,-12,10,0,0
6960,0,-3,-1,-1,3,-3,-12,-1,0
6965,0,-2,-1,-1,0,3,14,3,0
6970,-1,0,-2,-1,-8,-7,-19,-6,0
6975,3,1,-1,-3,-4,4,2,2,0
6980,-2,-2,-1,-3,1,-8,1,0,0
6985,-3,0,1,0,2,3,-6,1,0
6990,-2,-3,-1,-1,-4,-1,-2,-3,0
6995,2,-1,-3,0,0,-3,3,0,0
7000,1,0,0,1,0,4,4,0,0
7005,0,-1,-2,-3,-4,-3,-2,-2,0
7010,-2,-1,-1,0,1,-9,0,-3,0
7015,-7,-1,-3,-2,-1,3,-2,-3,0
7020,3,-2,-3,-1,0,0,1,4,0
7025,2,-1,-2,0,-1,-2,1,1,0
7030,-3,-1,0,0,-2,-3,-1,0,0
7035,0,-2,1,-1,-9,-1,-6,-3,0
7040,-2,-1,-1,-1,1,-7,-2,-2,0
7045,-1,-2,-1,-4,4,3,3,-3,0
7050,0,0,-2,2,4,1,-8,0,0
7055,2,-1,1,-3,-15,-4,3,1,0
7060,-5,-3,0,-1,-9,-12,-7,-4,0
7065,-1,-1,0,0,3,7,8,0,0
7070,-2,-2,-2,-1,0,-2,-8,-1,0
7075,3,-3,-2,-2,-2,4,2,0,0
7080,-2,-2,1,-1,-8,-14,-8,-1,0
7085,-5,-1,-3,-3,-1,-11,-13,-6,0
7090,-1,-1,-1,0,0,4,8,-3,0
7095,-7,1,-1,1,7,10,-4,3,0
7100,0,-2,-2,-2,-1,2,1,0,0
7105,-1,0,-1,-1,-4,-1,-2,0,0
7110,-3,0,-2,-2,-4,-9,2,-2,0
7115,2,-1,-4,-1,-1,2,-2,-4,0
7120,-4,0,-3,1,-1,-1,-1,-4,0
7125,0,-1,-3,-1,-2,1,5,6,0
7130,-1,0,-1,-2,0,0,-4,-1,0
7135,-2,-2,0,-1,0,-9,-4,-5,0
7140,0,0,-1,0,-1,-10,-3,1,0
7145,4,-1,-1,-1,-4,-4,0,-2,0
7150,-2,-1,-1,1,1,2,-6,-3,0
7155,-5,-2,0,-4,1,-19,10,1,0
7160,-6,-3,-2,-1,4,30,-2,-5,0
7165,4,1,0,0,-5,-18,-2,3,0
7170,0,-2,0,-2,-2,6,0,2,0
7175,0,-1,-1,1,-4,-8,-2,-2,0
7180,-2,-1,-1,-1,-4,-1,7,-1,0
7185,-5,-2,-2,-1,1,7,-3,-4,0
7190,1,-1,1,-1,-1,-6,1,1,0
7195,0,0,-3,0,-1,1,-5,-3,0
7200,0,-1,-2,-1,0,-10,-5,2,0
7205,-3,-1,-1,-1,-2,0,4,-1,0
7210,0,1,0,1,7,12,7,3,0
7215,0,-2,-1,-1,-1,0,-9,-1,0
7220,1,0,0,-1,-2,-5,-1,0,0
7225,-2,-2,-1,0,-1,-6,-5,-2,0
7230,-5,-3,-2,-3,-8,-8,-6,-3,0
7235,-2,-1,0,1,4,13,10,-1,0
7240,-2,0,-2,-2,1,10,2,-2,0
7245,-4,-1,-3,-2,-4,-14,-4,-3,0
7250,0,-1,1,2,-2,-15,2,2,0
7255,-1,-1,-2,-2,5,16,-15,-3,0
7260,1,-1,-1,0,-2,-9,8,1,0
7265,-1,-2,-2,-2,2,15,5,-1,0
7270,-4,-2,-3,-2,-4,-3,-13,-4,0
7275,0,-3,-2,-3,-7,-14,-5,-3,0
7280,1,-1,1,-3,0,8,1,-2,0
7285,0,2,3,0,0,-2,-4,3,0
7290,-4,-3,-1,0,3,4,-2,-5,0
7295,-1,-1,0,0,-6,-2,2,1,0
7300,-1,-2,-2,-1,-1,3,-2,-3,0
7305,1,-2,0,-1,1,3,1,-2,0
7310,-1,0,-1,-1,-3,-3,-1,-1,0
7315,-2,0,-2,1,1,-1,-2,-2,0
7320,-3,1,-1,-2,-10,-10,-2,0,0
7325,-2,1,-2,-3,9,8,0,-2,0
7330,0,0,1,-1,1,-13,-4,1,0
7335,-2,-2,0,-1,-3,-2,-1,-1,0
7340,0,1,0,1,-4,-13,1,1,0
7345,-1,-2,-1,-2,1,15,-3,-5,0
7350,1,-1,-3,-3,-5,-5,5,-1,0
7355,-4,2,0,1,3,9,-1,-2,0
7360,1,0,-1,-1,2,-5,4,1,0
7365,-3,-3,-1,1,-5,-6,-3,-1,0
7370,3,-2,-2,-3,-5,1,5,-1,0
7375,2,0,-2,-2,-1,-1,4,-2,0
7380,-2,-1,-2,-2,0,5,-4,-3,0
7385,-1,-2,-1,-1,-2,-8,-3,-2,0
7390,-1,-2,0,-2,-3,0,2,-2,0
7395,0,-3,-2,0,3,9,0,1,0
7400,-1,-1,0,0,6,5,-3,-3,0
7405,0,-2,-2,-3,-8,-7,0,0,0
7410,-5,-1,-1,-3,0,-2,-6,-5,0
7415,5,-1,0,-2,-1,8,-5,4,0
7420,-4,-1,-1,0,2,-6,9,0,0
7425,0,-2,1,2,-1,-13,-1,1,0
7430,-2,0,0,-2,-3,5,-2,-2,0
7435,-2,-1,-1,-1,1,-6,-6,-2,0
7440,2,0,0,-1,-1,-5,-5,-1,0
7445,-1,-2,-2,-4,-5,17,-7,-3,0
7450,-2,-2,0,0,4,-2,15,1,0
7455,1,-1,1,-3,-10,-9,-8,-2,0
7460,-1,-2,0,-1,3,-4,-6,0,0
7465,-5,-2,0,2,1,4,2,0,0
7470,-1,-1,-1,1,2,-7,-4,-2,0
7475,-1,2,0,-2,-5,-5,4,0,0
7480,-2,-1,2,-1,-2,-5,-3,-1,0
7485,0,0,0,-2,-2,2,-4,-5,0
7490,2,-1,-1,-1,0,8,-1,3,0
7495,-3,-2,-1,-1,-5,-10,4,-1,0
7500,1,0,-1,-1,-6,-7,-4,0,0
7505,-3,-2,-1,1,8,14,3,-1,0
7510,2,-1,-2,1,4,5,-3,-3,0
7515,1,1,-1,-1,1,-6,-6,0,0
7520,-5,0,0,-2,-4,1,8,1,0
7525,-5,-2,-2,-2,-4,-2,-9,-5,0
7530,-2,-2,-1,-4,-4,2,14,4,0
7535,-1,-2,-2,1,0,-7,4,-2,0
7540,-1,0,-3,-1,1,0,-16,-2,0
7545,-1,-2,-3,0,-1,2,2,-2,0
7550,-1,-1,0,1,2,3,1,0,0
7555,0,0,1,0,-1,0,-6,0,0
7560,0,1,1,-2,-8,-6,6,1,0
7565,0,-1,1,3,7,9,2,-1,0
7570,0,0,-5,-2,-2,-1,-5,-3,0
7575,-2,0,-1,-2,-1,-3,-1,0,0
7580,-3,-1,-2,0,5,-13,-1,-3,0
7585,-3,-3,-1,0,-1,5,-9,0,0
7590,2,-2,-2,-3,-7,-3,-3,1,0
7595,1,-1,-1,-2,-6,-8,20,-2,0
7600,-2,0,-2,-1,-3,-1,0,0,0
7605,1,1,0,0,7,1,-8,0,0
7610,-2,-1,-1,-1,9,14,-2,-2,0
7615,-2,-2,-2,-3,-8,-8,-5,0,0
7620,-2,-1,-1,-2,0,1,-1,-2,0
7625,-2,-5,-4,-2,3,4,6,-1,0
7630,-4,-18,-4,-2,-5,2,-7,-4,0
7635,1,28,2,-2,-2,-11,-2,2,0
7640,2,-3,3,2,-1,-1,-2,-1,0
7645,0,-1,-1,-2,1,9,-2,0,0
7650,-3,-3,-1,1,0,-4,0,-3,0
7655,-3,-14,-4,-3,-1,-3,-12,-4,0
7660,-1,0,-4,-1,3,-1,5,0,0
7665,-4,-1,-4,-3,-4,6,9,-2,0
7670,4,3,1,0,2,-5,-1,1,0
7675,-2,0,0,0,1,9,-9,-3,0
7680,-2,1,-1,-1,-5,-13,1,0,0
7685,-2,-3,-1,-1,5,3,3,-1,0
7690,-3,2,0,-1,3,3,5,1,0
7695,1,-2,-2,-2,-3,-5,1,1,0
7700,-1,-3,-3,-4,0,4,-12,-3,0
7705,-3,-1,0,-1,3,-19,-1,-4,0
7710,-2,-2,-2,-4,-11,7,-2,-2,0
7715,-2,3,1,0,-1,-2,-1,2,0
7720,0,-6,0,0,4,5,1,-1,0
7725,0,-10,-3,-4,-17,-11,4,0,0
7730,-3,21,2,3,17,13,-26,-4,0
7735,1,-13,0,-1,-7,0,18,2,0
7740,0,0,-3,-2,0,-1,-8,-3,0
7745,1,0,-2,-5,-6,2,6,-1,0
7750,1,-1,1,2,-1,-17,6,3,0
7755,-6,-3,-4,-3,-12,6,-6,-5,0
7760,-2,-1,-3,-1,5,7,-1,1,0
7765,3,1,1,1,-1,-7,-6,0,0
7770,-1,-3,-2,2,-5,-12,1,-3,0
7775,-1,0,-2,-3,4,-3,0,-2,0
7780,-2,-2,-1,-3,-1,8,6,1,0
7785,-3,-3,-2,1,1,1,-13,-2,0
7790,0,-1,-2,-1,-3,-6,1,-1,0
7795,2,2,-1,0,1,-6,10,4,0
7800,-1,-5,-2,0,-2,2,-4,-2,0
7805,2,5,0,1,6,14,6,1,0
7810,-1,1,-1,-2,-6,-19,-8,-2,0
7815,-1,-6,0,-2,12,25,-8,-4,0
7820,0,2,0,-1,-3,-8,1,0,0
7825,-3,3,1,1,5,-3,0,-1,0
7830,0,-4,0,-4,-7,-6,0,0,0
7835,-4,-8,-4,-4,-7,-7,-7,-4,0
7840,0,4,0,0,2,3,6,2,0
7845,2,2,2,0,5,8,0,-3,0
7850,-2,-6,-4,0,1,2,-3,0,0
7855,0,-2,-2,-1,-4,-8,-6,-1,0
7860,-2,-2,-2,-2,-2,8,-1,-2,0
7865,-5,4,0,0,-6,-15,-4,-1,0
7870,-2,-3,-5,-4,-2,0,-2,-5,0
7875,1,2,-2,1,8,16,4,-1,0
7880,-1,-3,-3,1,-5,-13,-5,-2,0
7885,1,-1,-5,-2,5,12,8,1,0
7890,-3,-5,2,5,-9,4,-2,0,0
7895,-1,13,5,0,-1,-16,-5,-2,0
7900,-1,-5,-3,-6,-16,-5,-7,-3,0
7905,-1,-3,-3,0,20,4,1,2,0
7910,-3,-1,-5,-11,-9,5,0,0,0
7915,-3,-7,-5,-7,-10,-10,0,-1,0
7920,0,2,1,0,5,-1,0,-1,0
7925,1,2,0,1,-8,-13,-2,-1,0
7930,2,-1,3,8,11,3,5,0,0
7935,-1,-3,1,3,5,3,-5,-1,0
7940,-2,1,-2,-6,2,9,1,-2,0
7945,0,-4,-3,0,-17,-21,-1,1,0
7950,-1,0,-2,-1,2,8,0,-1,0
7955,0,-1,1,1,1,2,2,0,0
7960,-2,0,1,7,-2,-14,-4,0,0
7965,-2,-3,-2,-8,-9,10,-8,-7,0
7970,-1,-1,-4,-15,-12,1,-13,1,0
7975,2,0,-2,-2,8,-7,7,4,0
7980,-2,1,-1,-1,-2,2,-4,-2,0
7985,0,-1,2,8,15,-10,0,0,0
7990,-1,2,0,0,-4,-5,-5,-3,0
7995,-3,-4,-2,-4,-19,-12,-5,-4,0
8000,2,0,-2,0,12,8,2,1,0
8005,-1,1,3,2,-10,5,5,0,0
8010,-4,-1,-2,6,19,0,9,-1,0
8015,0,-4,-3,-9,-26,-20,-3,-2,0
8020,-2,-2,-3,-2,-4,-2,-4,-2,0
8025,-2,-1,-3,-9,9,-4,-15,-3,0
8030,2,-1,1,4,-1,37,14,0,0
8035,0,1,3,9,16,9,7,1,0
8040,0,-3,2,0,-2,-8,3,0,0
8045,-4,-1,0,-1,-4,-3,-4,-1,0
8050,-1,0,1,5,14,-1,-2,-1,0
8055,-3,-2,-3,-1,-10,-8,-12,-2,0
8060,-1,-1,-1,-10,-8,2,-3,0,0
8065,-3,-3,-4,-4,-10,-26,-3,-1,0
8070,0,-2,-4,-7,-5,2,-2,-2,0
8075,0,-2,-2,4,12,21,4,1,0
8080,-2,0,3,3,8,4,-4,1,0
8085,0,0,-5,-7,-15,-2,-1,1,0
8090,-3,-1,-5,-4,-12,-16,-7,-2,0
8095,0,0,1,1,12,15,3,-1,0
8100,0,-1,2,5,10,-11,0,-1,0
8105,0,-1,0,-2,-23,5,5,0,0
8110,-2,-2,-2,-5,0,-8,-4,-4,0
8115,-2,0,1,0,2,1,3,-2,0
8120,-1,-1,1,7,3,-7,7,-1,0
8125,-1,-1,-1,-1,4,-6,-10,-3,0
8130,-1,-3,-1,-2,2,-4,5,-1,0
8135,-4,-1,-7,-5,-12,4,-5,-2,0
8140,-3,-1,-3,-3,-4,13,-4,-3,0
8145,2,2,-2,1,2,-2,4,2,0
8150,-1,0,-1,0,2,11,2,0,0
8155,0,2,2,5,13,-14,-8,-1,0
8160,-2,-3,-4,-8,-16,-11,0,-4,0
8165,-1,0,-1,-3,-15,10,3,1,0
8170,3,0,2,1,-1,-9,-2,0,0
8175,-1,-2,-4,0,-4,-16,-3,-4,0
8180,-1,1,-1,-2,3,9,-9,-2,0
8185,-1,-2,3,11,13,11,-3,0,0
8190,-1,-1,1,-2,3,-14,-6,0,0
8195,0,-3,-5,-14,-24,-7,-4,1,0
8200,-3,-3,-4,-7,-12,-7,-5,-2,0
8205,-1,0,3,0,4,12,0,0,0
8210,-1,-1,1,9,5,7,0,1,0
8215,0,-3,-1,7,12,3,0,0,0
8220,-1,-3,-1,-5,9,4,-1,0,0
8225,-2,-2,-6,-10,-19,-17,-7,-4,0
8230,-1,1,1,0,-5,13,0,-2,0
8235,1,0,1,1,6,-9,-5,-1,0
8240,1,1,1,5,-3,-4,0,0,0
8245,-2,0,0,5,8,14,7,1,0
8250,-2,-2,-5,-8,-8,-17,1,-1,0
8255,-1,-4,-12,-22,-32,-1,-4,-2,0
8260,0,-2,-1,2,4,11,-2,0,0
8265,1,0,0,5,13,-21,5,1,0
8270,0,-1,1,-6,6,8,3,0,0
8275,-1,1,3,14,12,8,0,1,0
8280,-2,-1,2,6,-7,-13,-8,-4,0
8285,-1,-3,-3,-16,-6,37,-22,-2,0
8290,0,0,-3,-5,-12,-5,-7,-1,0
8295,-3,-2,0,0,5,-7,-20,-4,0
8300,0,2,-4,-3,3,8,38,5,0
8305,-2,-1,1,3,10,-19,8,1,0
8310,-2,-1,-1,4,3,23,1,-1,0
8315,-2,-1,3,1,-5,-7,1,-1,0
8320,-2,-1,-5,-2,-6,-33,-9,-3,0
8325,-1,1,5,5,-4,-13,4,1,0
8330,0,-3,-8,-10,-3,-14,2,-2,0
8335,-3,-1,-4,-4,-7,10,-1,-3,0
8340,-3,-2,-1,-2,1,3,-10,-3,0
8345,1,-1,-1,0,7,-2,11,0,0
8350,-3,-3,-2,-7,-18,-10,-15,-3,0
8355,1,0,4,3,11,-15,6,0,0
8360,-3,0,-1,2,7,2,-12,-3,0
8365,-2,-1,1,1,2,9,-3,-3,0
8370,-2,2,2,6,-1,-10,-15,-4,0
8375,2,-1,-1,6,7,18,32,4,0
8380,0,-2,-4,-13,-9,-6,7,-2,0
8385,-3,0,-1,-3,-4,-21,1,-2,0
8390,-3,0,7,14,-2,-2,-3,-4,0
8395,0,-1,-1,1,21,-18,13,0,0
8400,0,-3,-12,-15,-32,8,-3,-1,0
8405,0,0,2,-4,-5,-2,0,1,0
8410,-1,2,5,5,10,0,-7,-2,0
8415,1,-1,-4,-4,-14,-25,-30,0,0
8420,0,-2,-5,2,11,23,21,6,0
8425,-2,-2,-3,-8,-5,-16,5,-9,0
8430,-1,-2,-4,-5,-20,9,7,-1,0
8435,-1,2,6,7,25,53,-10,-7,0
8440,1,-1,-2,-3,-7,-12,-6,0,0
8445,-3,-4,-5,-5,-6,33,-12,-3,0
8450,2,1,1,14,21,-18,17,10,0
8455,-2,-6,-21,-11,-17,14,1,0,0
8460,-3,-3,4,-1,5,-10,-5,-1,0
8465,-1,7,34,10,-11,4,-8,-4,0
8470,-1,-2,-2,-6,2,30,9,-2,0
8475,0,-3,2,-4,-18,-11,0,1,0
8480,0,-2,-16,-2,1,-22,-10,-2,0
8485,-3,-5,-9,-1,0,39,-12,-3,0
8490,2,-1,-1,-9,7,25,27,5,0
8495,1,0,-6,-4,-11,-2,10,-1,0
8500,2,1,8,10,17,-11,-34,-3,0
8505,-1,0,-6,3,14,-18,6,2,0
8510,-4,-1,0,0,-19,9,-6,0,0
8515,5,0,-3,-6,-3,-10,-10,-2,0
8520,0,3,11,9,5,27,4,-2,0
8525,2,0,-5,-4,-2,11,-14,0,0
8530,-5,-8,-12,-4,0,-28,-8,-2,0
8535,-3,5,14,-4,-6,5,14,-5,0
8540,4,3,7,3,8,-17,-3,2,0
8545,0,-1,-14,7,-4,24,21,0,0
8550,-7,-14,-25,-25,-20,-45,-12,-5,0
8555,4,8,-5,-5,4,39,5,5,0
8560,-9,-5,6,-2,-2,-12,-10,-4,0
8565,2,-1,-7,1,6,12,15,3,0
8570,-5,-4,24,13,5,-29,-2,0,0
8575,-4,4,-1,-6,-9,-15,-13,-6,0
8580,4,5,0,10,19,-38,-17,-1,0
8585,-3,-7,-10,-3,0,-14,16,1,0
8590,6,1,-6,-8,-10,12,5,-7,0
8595,-8,-10,-1,10,14,30,-4,-2,0
8600,-5,-3,-2,-5,-11,3,1,-3,0
8605,-4,-7,-2,-11,-15,20,-3,-7,0
8610,10,13,4,0,5,-70,-20,7,0
8615,-1,-4,4,7,6,-17,0,0,0
8620,-3,-1,-4,-3,-15,-9,-2,0,0
8625,0,-1,-3,-9,-4,-2,-15,-4,0
8630,1,-1,-2,0,4,-29,9,-1,0
8635,0,1,3,9,11,16,35,5,0
8640,0,-5,1,-3,2,31,20,-3,0
8645,1,-5,-5,-1,-10,-61,-36,-4,0
8650,-20,-8,-1,-3,0,0,-2,-3,0
8655,-3,-21,-4,-3,2,-2,-14,-5,0
8660,5,17,-3,-5,-5,6,20,-10,0
8665,0,2,8,10,13,13,0,-8,0
8670,2,2,-9,1,-6,43,-17,-4,0
8675,-11,-20,-3,-16,-21,32,12,2,0
8680,4,0,3,3,14,17,-16,4,0
8685,0,-5,1,-5,-4,-5,0,4,0
8690,-1,-5,4,12,19,3,12,2,0
8695,-1,8,-2,-1,-2,29,-13,-1,0
8700,-6,-5,-3,-7,2,-72,-31,-5,0
8705,8,9,8,10,20,0,28,15,0
8710,0,-1,-1,0,5,113,33,0,0
8715,5,4,1,4,-4,-47,11,1,0
8720,0,-4,-2,-8,-14,19,17,0,0
8725,-3,-8,-5,-5,-12,-20,-21,-5,0
8730,8,2,2,-3,-6,0,-21,-1,0
8735,9,5,-2,-3,2,-17,-25,-4,0
8740,-1,-9,-3,-2,-13,6,-2,0,0
8745,-31,-14,-8,-6,-11,0,3,-3,0
8750,-5,7,1,-6,-3,10,7,-4,0
8755,6,-3,1,5,5,-84,-33,-5,0
8760,5,20,1,-4,-17,-51,-13,-6,0
8765,0,2,4,7,8,3,7,16,0
8770,-5,-6,-4,-5,-7,15,-11,-8,0
8775,-11,-4,3,8,7,32,12,5,0
8780,-3,-7,-2,-2,-24,-56,-10,-7,0
8785,-8,2,3,4,26,106,63,10,0
8790,-5,3,10,15,14,21,19,-1,0
8795,-4,-11,-13,-14,-26,-52,-26,-7,0
8800,-7,2,4,2,-4,5,-8,-1,0
8805,3,-3,-10,-11,-22,-44,-27,-6,0
8810,-9,-12,0,-2,7,11,27,-4,0
8815,49,42,10,9,19,50,2,22,0
8820,-6,-3,2,-2,-8,-16,-26,-8,0
8825,0,-6,-6,1,-4,-35,-35,1,0
8830,7,3,2,2,9,34,-30,-2,0
8835,-17,-12,-3,2,-6,-31,-8,-14,0
8840,3,1,-2,3,11,-2,83,23,0
8845,17,9,8,8,4,-11,-14,0,0
8850,-8,-7,-2,1,-14,-4,23,-3,0
8855,-4,-7,-6,-6,-2,-20,-25,4,0
8860,-1,3,-1,-2,-3,-24,-8,-5,0
8865,-5,0,2,-7,3,-23,5,4,0
8870,5,9,7,10,14,22,-3,9,0
8875,-6,-11,-17,-28,-27,-9,1,-9,0
8880,10,6,2,2,-19,-86,-96,-10,0
8885,-1,2,1,-4,4,4,37,4,0
8890,12,6,2,8,21,41,20,13,0
8895,-4,4,5,10,10,20,8,-5,0
8900,-13,-16,-4,1,6,-7,21,-4,0
8905,-7,-6,-6,-12,-17,5,-55,-21,0
8910,-34,-18,-8,-9,-14,-51,49,-29,0
8915,17,19,8,-1,-5,-22,-18,10,0
8920,5,-6,-11,-15,-16,-20,-93,-45,0
8925,7,12,6,20,24,-12,36,45,0
8930,-1,-15,-11,-9,-7,97,115,-12,0
8935,0,-2,4,6,18,3,-57,33,0
8940,20,11,0,-4,-1,1,-9,-12,0
8945,-13,9,24,7,8,10,-39,-24,0
8950,8,-15,-32,-29,-57,-43,-66,5,0
8955,-14,-13,-1,-8,-4,16,10,-17,0
8960,-1,9,1,8,17,43,38,24,0
8965,25,-2,-4,-10,-13,-2,7,-7,0
8970,-11,-1,15,17,20,48,-2,3,0
8975,-10,-6,-3,-2,-6,-1,13,-32,0
8980,-28,-14,-6,4,7,-14,1,-31,0
8985,47,13,-1,-2,-6,-2,23,3,0
8990,8,9,8,0,10,21,-11,71,0
8995,14,-3,-8,6,10,-16,24,42,0
9000,-10,-8,3,-1,-6,-9,12,41,0
9005,-28,-12,-11,-5,-10,-1,18,-21,0
9010,7,9,5,4,5,-14,-65,-26,0
9015,-16,-4,1,2,-3,-13,-3,-18,0
9020,-2,-11,-3,-4,2,-7,16,-14,0
9025,25,17,4,4,-5,16,-6,-5,0
9030,-10,-2,-6,-5,-3,-10,5,0,0
9035,21,7,0,-2,-5,-18,-5,-14,0
9040,-10,-8,1,3,4,20,16,5,0
9045,23,16,6,6,10,26,-16,3,0
9050,-32,-7,-4,-6,-20,-48,-23,-8,0
9055,-3,-16,-10,-10,-7,-24,-11,-40,0
9060,-8,8,12,-4,-3,35,94,9,0
9065,-1,-11,-10,0,1,-20,-85,27,0
9070,-1,9,18,9,12,3,7,-10,0
9075,10,12,14,4,2,4,-4,93,0
9080,-3,-4,-18,-10,-15,4,-7,-17,0
9085,-49,-20,-16,4,18,14,41,-14,0
9090,-9,15,7,-5,-8,-23,9,-43,0
9095,-6,-9,-8,-2,-2,-14,-58,-34,0
9100,10,11,8,3,8,-10,53,7,0
9105,-36,-26,-14,-15,-25,-25,-62,-56,0
9110,28,0,-18,1,5,-3,-100,25,0
9115,-17,-6,-14,-3,-5,-25,-9,-24,0
9120,33,15,-7,1,12,39,3,22,0
9125,-20,-6,12,1,-2,3,15,-14,0
9130,6,-8,2,2,3,-18,45,7,0
9135,-2,-1,6,-4,-2,11,10,-5,0
9140,-9,-10,-8,-8,-17,-39,-42,-23,0
9145,-1,-2,-6,-6,2,4,10,29,0
9150,-14,2,3,3,4,-4,61,5,0
9155,-2,2,-2,-3,-5,-12,30,-19,0
9160,-8,-1,-4,8,6,-9,-57,-10,0
9165,-4,-1,-6,-2,-8,-9,6,6,0
9170,-2,-1,6,-2,0,10,0,5,0
9175,4,-3,-1,-4,-5,-1,-3,2,0
9180,-44,-17,-4,-3,0,-12,-6,-20,0
9185,-5,2,1,0,-3,8,69,20,0
9190,39,11,10,13,13,1,0,0,0
9195,8,1,-1,-2,-6,-5,14,6,0
9200,2,-12,-13,-4,1,5,23,12,0
9205,-23,0,17,5,2,2,11,-15,0
9210,15,8,-5,-4,2,5,9,8,0
9215,-1,-3,-7,-7,-10,-14,55,-9,0
9220,25,11,6,4,4,33,-64,-4,0
9225,5,-4,-7,-2,-2,3,-29,-1,0
9230,-14,-2,-21,-1,2,-3,-82,-2,0
9235,-9,9,37,9,3,7,-38,-2,0
9240,20,7,2,1,5,14,35,10,0
9245,-10,-8,-10,-7,-8,3,-6,-10,0
9250,-21,-8,-2,-4,-2,-2,14,-9,0
9255,-25,-22,-14,-8,-3,8,-2,9,0
9260,5,8,-3,-7,-5,-14,8,-11,0
9265,-17,0,9,7,9,9,15,7,0
9270,1,0,2,1,0,-1,44,8,0
9275,-16,-12,-12,-5,-5,22,-24,-2,0
9280,8,-1,5,5,0,-5,37,-1,0
9285,10,-2,-3,-3,-1,8,-11,-2,0
9290,-6,-5,-1,-5,-7,11,-18,3,0
9295,5,-8,0,3,5,-1,0,2,0
9300,-1,25,2,-2,-4,-17,0,-5,0
9305,10,1,-3,3,6,27,2,1,0
9310,-6,0,6,-2,-8,5,4,4,0
9315,7,3,-3,0,13,48,5,-3,0
9320,12,-6,-6,-7,3,6,-14,-3,0
9325,-16,-4,-3,2,-4,-18,-16,-4,0
9330,-7,-6,-4,-9,-13,-3,19,-19,0
9335,11,2,-5,-4,-5,-10,-81,-2,0
9340,-9,-8,-53,-11,-4,15,12,4,0
9345,7,18,53,18,15,3,40,0,0
9350,-2,-1,5,0,-3,-22,-35,-9,0
9355,-6,1,-7,1,-10,-30,34,-3,0
9360,-1,-10,-5,-11,-19,-26,-75,-16,0
9365,4,0,-15,-2,1,-6,42,16,0
9370,-22,-7,-6,0,9,37,-23,-1,0
9375,38,13,10,5,10,4,-5,5,0
9380,1,3,9,3,1,6,4,2,0
9385,-8,-10,-21,-10,-12,-45,-13,-16,0
9390,8,8,12,5,5,-20,19,10,0
9395,-14,-3,-3,-3,-1,10,-3,1,0
9400,5,-6,8,2,-3,-9,25,-12,0
9405,3,9,4,5,3,15,-52,19,0
9410,-6,-14,-13,-24,-31,-25,-26,-23,0
9415,-2,9,13,14,34,9,-55,12,0
9420,18,-8,-5,-12,-36,-97,55,-10,0
9425,-21,-5,-6,-5,8,62,17,5,0
9430,22,0,-2,8,3,-67,2,-2,0
9435,-10,-1,-2,-8,-8,29,38,-9,0
9440,5,6,18,10,15,0,-26,6,0
9445,-7,-6,-13,-5,-5,-30,-64,-12,0
9450,2,1,2,1,5,36,-6,12,0
9455,-10,-5,-11,-21,-34,-25,14,-27,0
9460,-4,2,9,19,18,-51,10,11,0
9465,10,-3,-4,1,1,29,-22,-1,0
9470,0,1,4,4,5,19,-21,7,0
9475,-7,-5,-12,-7,-6,18,29,-4,0
9480,-26,1,14,-5,-9,-9,6,11,0
9485,26,5,-1,-5,9,60,-64,3,0
9490,-3,1,0,3,8,-28,25,1,0
9495,1,0,4,12,-7,-24,22,5,0
9500,-16,-5,-6,-10,3,43,-11,2,0
9505,-3,-3,-4,-3,-7,-42,44,-11,0
9510,1,0,0,2,6,22,-18,14,0
9515,-9,-5,-7,-12,-14,-42,-9,-25,0
9520,13,4,7,11,22,65,18,20,0
9525,-4,-5,-3,-5,-14,-35,25,-4,0
9530,9,2,-2,1,4,47,-35,3,0
9535,-2,-6,-10,-1,0,-91,-14,-1,0
9540,-2,13,26,0,5,33,1,-4,0
9545,15,2,6,4,1,-30,-10,4,0
9550,-13,0,3,6,6,2,8,1,0
9555,5,0,0,-3,-5,10,13,7,0
9560,-4,-4,-15,-6,-2,20,-33,0,0
9565,-7,-1,-5,-2,-1,-11,13,-2,0
9570,1,1,3,-3,-2,9,-6,-4,0
9575,2,4,2,3,4,11,-16,3,0
9580,-12,-7,-7,-6,-7,-13,-12,-2,0
9585,22,-4,-5,-4,-7,2,-15,-7,0
9590,-3,14,9,3,-2,-18,50,-6,0
9595,-4,-1,-1,1,5,16,-7,20,0
9600,-2,0,5,2,7,-29,11,-12,0
9605,2,-1,-6,-3,-8,-23,8,-3,0
9610,-26,-9,-10,-7,-2,14,-10,4,0
9615,20,1,-1,-1,4,-1,7,5,0
9620,-5,-1,-1,-5,-8,-2,-5,-3,0
9625,-15,-3,-1,-4,-6,-12,-44,-16,0
9630,9,-3,-3,3,-4,-22,42,8,0
9635,-5,1,-2,-4,-5,15,29,-3,0
9640,-3,-3,-3,0,1,6,-19,-8,0
9645,-5,1,-1,-1,-4,-3,16,4,0
9650,3,-2,-11,-9,-4,11,-57,-1,0
9655,-17,-3,3,0,3,-1,-18,27,0
9660,23,8,13,-1,-5,-1,18,1,0
9665,-9,9,13,4,5,0,9,2,0
9670,-48,-10,2,3,1,-7,-1,-11,0
9675,27,9,-11,-5,-7,8,-35,-3,0
9680,-3,12,6,5,7,-6,2,3,0
9685,-16,-14,-10,-6,-3,0,24,14,0
9690,11,-2,-9,-3,-7,-3,-26,-10,0
9695,-26,-13,-28,-5,2,0,-10,-21,0
9700,-5,7,24,3,0,18,10,-12,0
9705,7,2,13,2,-2,1,-1,-9,0
9710,18,-1,-11,-5,-1,-8,0,1,0
9715,10,1,11,7,3,2,-2,-6,0
9720,-15,-15,-10,-5,-8,-4,25,-5,0
9725,-1,8,-3,0,3,8,36,8,0
9730,-12,-3,5,1,7,5,0,-1,0
9735,-19,-2,5,-2,1,-5,-26,-2,0
9740,26,1,-13,-6,-6,-1,14,14,0
9745,-27,-8,1,1,0,-1,-14,-13,0
9750,29,-7,-30,-9,-5,-2,-26,3,0
9755,-24,26,50,13,11,11,29,-10,0
9760,26,-1,-8,2,0,-3,3,3,0
9765,-49,-19,-12,-12,-20,-13,-51,-19,0
9770,50,13,14,12,19,6,43,28,0
9775,-34,-17,-22,-6,-6,-8,18,-17,0
9780,44,18,11,-1,2,9,-55,7,0
9785,16,3,4,-2,0,2,23,0,0
9790,-21,-7,0,-1,-4,0,-15,-2,0
9795,34,4,2,-4,-2,0,7,5,0
9800,-20,-7,-1,6,-1,-7,9,-3,0
9805,-17,-7,-9,-7,-4,-2,-26,-11,0
9810,75,19,18,3,-1,-3,-7,7,0
9815,-15,-6,-7,9,16,-5,75,-14,0
9820,-13,-7,-11,-2,1,7,-67,2,0
9825,-4,-1,-6,-1,-6,-2,3,-2,0
9830,-1,-12,-13,-10,-8,-5,-22,-6,0
9835,29,19,35,3,0,5,-41,13,0
9840,-32,-10,-1,-3,-1,-3,4,-14,0
9845,52,7,1,4,7,0,14,13,0
9850,-37,-3,1,-1,-6,-2,-29,-10,0
9855,14,-5,-16,-2,-3,4,-9,2,0
9860,-18,-6,8,3,0,0,16,-8,0
9865,-9,3,-17,-2,7,9,-42,10,0
9870,6,-3,8,5,-2,-7,39,0,0
9875,-13,-8,-9,-6,-9,1,-31,-6,0
9880,-7,-4,-1,-6,-1,-9,15,-1,0
9885,42,7,18,16,15,8,-2,-1,0
9890,-21,-17,-14,-14,-25,-12,11,-4,0
9895,3,-2,-8,-8,-7,-4,2,7,0
9900,3,-5,-18,-2,0,1,-9,1,0
9905,-1,2,17,-4,2,5,7,-4,0
9910,-36,1,13,7,8,-2,-13,-13,0
9915,30,-2,-5,1,-4,5,17,6,0
9920,-11,-5,-9,-1,0,-6,-11,-2,0
9925,10,3,-4,2,5,1,38,5,0
9930,-16,3,22,2,0,2,-27,-3,0
9935,-7,-9,-8,-2,-6,-7,14,-11,0
9940,8,6,-5,-1,3,2,-33,3,0
9945,3,-1,4,-2,-5,-5,8,-3,0
9950,-12,-3,-11,-4,-4,-5,-9,-3,0
9955,-9,-7,-6,-7,-4,-5,-20,-4,0
9960,12,-1,-2,1,2,5,1,12,0
9965,-13,-7,-15,-10,-14,-1,30,-9,0
9970,11,2,-5,3,10,-5,-5,8,0
9975,-34,0,9,3,2,-4,-21,-7,0
9980,6,-9,-21,-4,-4,-2,-1,1,0
9985,-4,5,16,0,-3,-3,-6,-2,0
9990,6,3,1,-1,-1,1,5,-1,0
9995,-29,-5,-12,1,0,-1,-11,5,0
10000,20,12,20,-2,-3,-4,3,-14,0
10005,0,-4,-14,-3,-2,-5,-15,0,0
10010,-15,-1,4,3,2,4,-2,-3,0
10015,15,-6,-22,-5,-3,-7,4,5,0
10020,-65,-15,-10,-9,-7,-1,8,-15,0
10025,24,3,12,6,4,-1,-4,9,0
10030,-17,12,8,1,3,4,-4,-17,0
10035,25,2,5,1,-2,-3,3,-1,0
10040,-20,-4,-7,4,4,4,-8,2,0
10045,-9,-5,-13,-4,0,-11,5,1,0
10050,1,-5,-9,-6,-6,-2,-21,-4,0
10055,7,1,2,-2,2,6,-1,-6,0
10060,15,3,0,2,-1,-3,5,7,0
10065,-18,-8,-18,-1,0,2,-12,-5,0
10070,7,4,19,-3,-5,-7,5,1,0
10075,14,-1,-9,-2,2,4,8,8,0
10080,-26,-8,5,-1,-2,3,-21,-12,0
10085,-12,-5,-12,3,5,-5,33,3,0
10090,0,0,-14,-1,0,2,13,1,0
10095,-13,3,17,2,-3,-2,-3,-2,0
10100,1,-6,-19,-9,-4,-8,-5,-2,0
10105,-12,-6,15,3,-4,1,18,-5,0
10110,28,-1,-9,-4,-4,-2,9,4,0
10115,-5,2,9,2,3,5,6,-2,0
10120,8,-5,-18,-2,-1,2,-36,2,0
10125,12,5,-1,-4,-2,0,-26,0,0
10130,8,-2,-2,2,7,4,27,4,0
10135,1,-2,5,1,-7,-6,5,-6,0
10140,24,1,7,1,-7,-9,15,12,0
10145,-15,0,11,-3,1,2,-3,-9,0
10150,-18,-3,9,2,2,3,20,2,0
10155,2,-2,-14,-7,-1,-7,-15,-4,0
10160,-34,-12,-8,-7,-7,-10,-2,-1,0
10165,21,14,23,6,5,5,15,-6,0
10170,-22,-11,-23,-4,-8,-3,-15,-4,0
10175,-9,-1,11,2,5,-4,12,6,0
10180,30,10,12,3,-1,3,-9,0,0
10185,-9,-6,-34,-6,-1,-1,-17,3,0
10190,-17,0,14,-3,-2,-8,-7,-6,0
10195,42,0,-8,2,-2,2,-57,9,0
10200,-12,-3,-5,-1,2,0,25,-8,0
10205,-5,0,3,0,-1,-3,7,5,0
10210,3,5,8,2,-1,-8,15,-7,0
10215,15,2,-5,0,2,3,-33,13,0
10220,12,1,-11,-3,-5,0,-14,-7,0
10225,0,3,28,5,3,-11,1,-12,0
10230,-15,-4,-9,-5,-4,-1,-1,4,0
10235,-17,-1,7,-3,-3,-3,-8,-12,0
10240,6,-1,-1,2,1,3,-23,-1,0
10245,-6,-8,-18,-4,2,2,-2,5,0
10250,16,6,0,2,-2,3,4,2,0
10255,-13,-5,-3,-2,-3,-7,18,-4,0
10260,3,0,-1,-2,-1,2,1,-1,0
10265,2,-6,-12,-5,-4,-4,11,2,0
10270,-7,0,25,3,1,3,-37,0,0
10275,15,5,-14,-2,6,6,47,1,0
10280,14,1,23,4,-3,-4,47,4,0
10285,-6,0,-12,-6,-9,1,-31,-2,0
10290,-18,-6,-5,1,6,0,12,3,0
10295,37,9,6,-2,-3,-2,-33,1,0
10300,-16,-2,-1,2,5,5,-23,5,0
10305,1,0,4,3,0,1,21,-2,0
10310,14,1,2,-4,-3,-1,-1,-5,0
10315,-34,-16,-11,-1,-15,-9,-16,-4,0
10320,9,4,0,-10,-3,-4,-28,-3,0
10325,-11,-1,-14,7,14,15,25,8,0
10330,-4,-6,-5,-4,0,-2,-5,-8,0
10335,0,8,23,4,10,2,4,2,0
10340,6,3,9,3,0,-1,9,1,0
10345,-17,-8,-15,-3,-6,-6,-11,-11,0
10350,25,-1,-15,-2,2,4,2,6,0
10355,-3,-3,0,-3,0,1,0,-1,0
10360,-13,1,7,3,-2,-3,38,-10,0
10365,15,6,13,3,4,0,-5,6,0
10370,9,-3,-11,-2,-2,-6,10,-12,0
10375,-16,-5,-7,-2,-6,7,-28,-3,0
10380,-26,-1,12,-2,2,-1,-2,-12,0
10385,22,4,3,3,0,6,15,12,0
10390,-2,4,3,0,-1,-5,-12,2,0
10395,-11,-6,-20,-3,-3,-3,1,-7,0
10400,-11,-6,-5,-1,4,5,5,-3,0
10405,-8,4,16,-2,-5,3,1,-3,0
10410,-9,-10,-14,1,-1,-8,0,-4,0
10415,-7,3,14,-2,5,2,2,2,0
10420,3,1,-4,1,2,5,38,13,0
10425,-12,-7,-6,-10,-7,-4,-22,-11,0
10430,3,0,-8,-5,-3,1,0,-1,0
10435,14,3,-6,0,2,-5,28,8,0
10440,-24,4,20,8,10,1,-22,-1,0
10445,-4,-6,8,-9,-17,-10,-5,-8,0
10450,63,2,-6,1,1,-9,-12,11,0
10455,-11,-5,4,-2,-7,-6,8,-9,0
10460,9,-4,-29,-6,-6,2,-24,0,0
10465,3,1,6,0,5,2,5,3,0
10470,-21,1,14,1,0,3,17,-1,0
10475,-4,0,-10,-4,0,3,7,-4,0
10480,12,-3,-2,-1,-1,-3,-4,2,0
10485,-9,-2,-9,0,-4,-5,-29,-5,0
10490,-15,0,-5,4,5,12,6,2,0
10495,-14,-1,13,1,2,1,28,1,0
10500,-11,-12,-32,-5,-4,0,-12,-17,0
10505,65,25,29,2,-1,-5,15,0,0
10510,-17,-10,-24,-4,-4,-7,-20,-4,0
10515,-9,0,6,-3,0,-1,2,1,0
10520,11,-2,-14,1,-2,-4,4,2,0
10525,-16,-12,-13,-4,-1,1,6,-5,0
10530,2,0,5,-1,-3,-2,5,0,0
10535,-6,-2,-8,-3,-2,5,-20,-7,0
10540,2,-2,4,-1,0,-9,7,0,0
10545,-20,-8,-9,1,0,2,-2,-9,0
10550,-8,1,4,-5,-3,4,-15,7,0
10555,-31,-10,-10,4,0,6,-2,-1,0
10560,67,8,-2,-7,-6,2,28,11,0
10565,-15,6,24,8,6,8,5,16,0
10570,15,7,13,-2,-1,-1,42,2,0
10575,-16,-5,7,-1,1,-4,-27,-5,0
10580,-8,1,2,-1,0,-3,-12,-4,0
10585,-6,-4,-18,-7,-5,-6,-18,-6,0
10590,-10,-8,-13,-2,-5,-2,-12,-5,0
10595,13,3,1,1,-1,-5,6,1,0
10600,6,2,2,-5,-5,-4,-13,-4,0
10605,-34,-8,0,5,6,-1,7,0,0
10610,-9,4,0,1,3,4,0,6,0
10615,20,4,-10,4,2,-3,-12,-2,0
10620,-9,-1,6,0,-2,-2,-3,0,0
10625,-1,-2,-6,-6,-6,-4,-9,-6,0
10630,-17,-5,-16,-5,-3,3,7,-4,0
10635,5,2,7,-2,-3,-3,-17,-3,0
10640,1,0,5,-2,-2,-4,-11,-3,0
10645,0,-2,-14,3,1,-5,-16,-7,0
10650,-17,-6,2,-3,-2,-6,12,-3,0
10655,-20,-11,-8,-1,-2,4,18,-2,0
10660,53,28,24,7,5,7,-33,7,0
10665,1,1,-8,-4,-3,-8,-1,6,0
10670,-6,-4,-8,-5,-4,3,-31,-6,0
10675,-1,-1,-7,-5,-2,3,9,-2,0
10680,-20,-10,-1,-3,-2,-4,-6,6,0
10685,3,-4,-6,-1,0,7,-1,2,0
10690,2,8,9,5,5,-1,-30,-9,0
10695,12,-1,-4,-4,-7,-6,0,7,0
10700,-18,-11,-18,5,-3,-3,13,-10,0
10705,10,4,8,-9,-7,-2,-18,-10,0
10710,-21,-1,20,6,5,-4,30,4,0
10715,-7,0,1,-6,-1,-6,-13,-5,0
10720,13,6,21,8,14,6,36,9,0
10725,-21,-12,-16,-6,-9,-2,1,-11,0
10730,-2,-6,-10,0,-4,5,-3,-8,0
10735,4,-1,0,1,-1,0,12,2,0
10740,-13,-1,-5,-5,0,0,-33,-3,0
10745,21,9,4,2,3,2,20,6,0
10750,9,-2,-7,-3,-4,-3,-16,0,0
10755,3,-2,5,2,3,3,0,0,0
10760,-14,-1,12,-5,-4,0,10,-3,0
10765,-39,-16,-8,-2,-3,-11,-5,-11,0
10770,50,-1,8,-1,-6,5,-54,11,0
10775,1,5,0,3,-3,-8,28,-9,0
10780,-14,-9,-12,-6,2,3,28,6,0
10785,10,3,16,3,1,3,9,-13,0
10790,-25,-3,-9,-3,-3,-4,-17,0,0
10795,17,-1,-13,1,0,-4,-2,6,0
10800,-6,3,18,-2,-3,-3,-13,-7,0
10805,5,-5,-17,-1,0,-6,-4,2,0
10810,-6,-9,4,-6,-4,-6,25,-15,0
10815,-10,6,-3,-2,-3,0,-35,0,0
10820,2,-2,-2,7,2,-5,44,1,0
10825,12,-2,-11,-7,-8,-3,-43,-1,0
10830,-4,0,8,-1,2,2,1,4,0
10835,7,7,7,0,3,2,18,4,0
10840,-27,-8,-5,-6,-2,0,-24,-8,0
10845,28,6,22,10,2,3,-2,-1,0
10850,-26,-4,-12,-1,0,3,-7,-2,0
10855,27,2,0,-1,-3,-6,-14,3,0
10860,-2,-3,-23,-4,-6,-3,13,2,0
10865,-19,-3,-16,-5,3,11,27,6,0
10870,5,0,16,1,-3,-10,14,-3,0
10875,4,-6,0,-2,2,5,18,1,0
10880,-5,2,9,2,-1,1,-37,-5,0
10885,-18,-6,-15,0,1,-6,-7,-1,0
10890,4,-2,-16,-3,-5,-2,10,3,0
10895,-19,-6,23,0,-2,-5,-2,-5,0
10900,-3,-3,-3,-3,-6,-4,-21,0,0
10905,-6,0,-15,-2,4,-2,30,3,0
10910,8,12,13,8,11,8,1,5,0
10915,-19,1,10,1,-3,3,-5,-11,0
10920,15,-7,-10,-3,-5,-3,24,8,0
10925,2,2,-4,-3,-5,-5,6,2,0
10930,-12,-5,-17,-5,-4,-4,-11,-5,0
10935,6,-4,-21,-5,-1,-3,-28,0,0
10940,-16,9,24,6,4,2,-4,-6,0
10945,30,1,15,6,2,2,8,5,0
10950,11,-1,-2,-2,-5,-2,-7,0,0
10955,11,-2,-7,2,3,5,27,4,0
10960,3,-1,-9,-2,0,-3,-15,-1,0
10965,-7,-7,-23,-7,-1,-2,-2,-2,0
10970,-10,-2,18,2,-2,2,-15,-3,0
10975,0,-2,-1,-3,-3,-3,-39,-6,0
10980,-2,0,2,3,0,-2,-38,-2,0
10985,0,2,4,-1,-2,-2,2,-1,0
10990,24,-2,-22,-3,3,5,-12,4,0
10995,-49,-10,-3,-7,-5,-2,5,-7,0
11000,9,6,-8,-3,0,1,4,-3,0
11005,-2,6,32,9,7,-3,-49,-2,0
11010,-3,-6,-13,-5,-10,-4,5,-4,0
11015,-1,-4,-9,2,1,-6,22,-1,0
11020,-5,-3,-5,-8,-2,5,4,10,0
11025,-3,0,-8,-4,0,-2,9,-7,0
11030,0,5,10,4,4,-1,-23,4,0
11035,-3,-1,-10,2,-1,5,-7,0,0
11040,-2,-7,9,-2,-4,-10,2,-3,0
11045,3,-1,7,1,-2,-1,5,-1,0
11050,-2,-7,-29,-3,0,0,3,1,0
11055,4,9,39,2,-2,-7,13,-3,0
11060,43,6,9,2,-1,2,-20,-7,0
11065,-38,-10,4,-1,0,1,12,9,0
11070,23,15,8,0,3,11,15,12,0
11075,1,0,-19,-2,2,1,5,10,0
11080,-29,-9,-7,-1,-4,-5,-9,-6,0
11085,-18,1,-5,-3,-5,-5,-30,-12,0
11090,14,0,4,0,-1,2,34,-8,0
11095,-4,-4,-4,-4,-2,-2,-15,0,0
11100,6,-1,3,-3,0,0,19,5,0
11105,1,-9,-34,-6,-5,4,9,-6,0
11110,-17,6,35,1,-3,-8,9,-6,0
11115,17,-2,1,-4,-4,-2,15,-9,0
11120,-18,-10,-14,2,2,-2,-15,5,0
11125,23,5,5,-6,-3,-5,3,1,0
11130,-23,-8,-9,0,4,5,12,-2,0
11135,5,-8,-23,-7,-6,-2,-14,-2,0
11140,1,6,19,3,0,-10,39,-1,0
11145,5,-2,-4,1,6,5,-4,4,0
11150,-16,-2,-4,-1,-2,-3,-5,-10,0
11155,4,2,4,-1,0,-5,-16,-5,0
11160,-14,-2,-15,2,5,6,17,-3,0
11165,9,3,10,-1,-6,3,-4,-8,0
11170,-20,-6,-16,-4,-3,-15,8,2,0
11175,-3,-6,-24,-6,0,-1,-20,9,0
11180,15,5,16,1,-6,4,-8,-3,0
11185,-25,-12,-7,-3,-5,-17,7,-17,0
11190,41,17,13,0,2,4,-30,21,0
11195,-9,21,8,4,0,5,-9,0,0
11200,5,-4,-19,-7,-3,-8,1,0,0
11205,-5,-1,0,0,1,1,-10,5,0
11210,-9,-4,1,1,1,2,10,-12,0
11215,-14,-7,-7,-2,1,-2,-2,-4,0
11220,-4,-7,-15,-3,1,-5,12,-10,0
11225,20,9,17,4,2,11,-17,8,0
11230,-20,-10,-8,-4,-6,-9,-15,-18,0
11235,-6,1,13,1,3,8,21,1,0
11240,-5,-6,-13,-4,-3,0,-19,-5,0
11245,-12,-4,-10,-4,-1,2,-18,-2,0
11250,25,0,4,-1,-4,-11,-7,5,0
11255,13,-4,3,3,-1,-1,20,-1,0
11260,-17,-1,3,-2,-2,2,-3,-5,0
11265,4,-2,1,-5,-6,2,13,6,0
11270,9,-2,-13,-4,-5,-9,-38,-10,0
11275,-2,1,24,1,3,-4,-30,5,0
11280,8,15,6,4,6,3,-12,7,0
11285,-3,-2,-5,1,2,0,8,-9,0
11290,-16,-6,10,-1,-2,-5,42,-13,0
11295,20,-5,-32,-2,-1,1,-13,-7,0
11300,-20,5,32,3,2,3,-8,-1,0
11305,6,-4,-1,-2,-3,-2,-10,6,0
11310,-3,-3,-14,-3,-1,2,11,-2,0
11315,0,-7,-3,-1,-2,-3,-15,6,0
11320,3,-4,-1,1,0,-2,-9,-6,0
11325,3,1,-6,-1,-4,-6,0,-3,0
11330,-9,-3,1,-7,-1,8,6,4,0
11335,5,1,0,-1,-2,-8,-58,6,0
11340,0,-10,-21,-3,-3,5,3,1,0
11345,6,11,24,9,6,-5,4,7,0
11350,-10,-3,0,2,1,4,20,-1,0
11355,-13,-2,-5,1,-2,-6,-4,-6,0
11360,-5,-7,6,-1,-2,2,-21,0,0
11365,-2,2,-4,2,3,5,-6,7,0
11370,1,-3,-20,-2,1,-1,1,3,0
11375,3,3,25,2,-2,-1,10,-2,0
11380,-19,-16,-26,-12,-8,-3,-1,-3,0
11385,12,-4,-4,-6,-6,-7,3,-3,0
11390,-11,4,9,4,4,3,-35,4,0
11395,-4,-3,-15,2,3,-7,12,-3,0
11400,6,1,-1,0,0,-1,-19,-2,0
11405,7,0,18,-4,-3,-7,7,-3,0
11410,0,1,-9,0,-1,5,6,-8,0
11415,-8,-5,3,2,-7,-2,-4,5,0
11420,13,5,-1,-2,2,2,13,3,0
11425,-9,-4,-10,-6,-4,-1,7,0,0
11430,-11,-2,0,0,0,-4,-39,-3,0
11435,28,-2,-4,-4,-1,4,6,6,0
11440,-34,-1,4,-1,-6,-9,30,-14,0
11445,14,0,0,4,2,-3,-41,6,0
11450,-35,-10,9,-2,-4,-6,6,-6,0
11455,87,16,7,-1,0,8,6,11,0
11460,-9,-8,-6,-2,3,-7,11,17,0
11465,-19,1,-2,1,2,5,11,-9,0
11470,15,1,-3,-2,-4,-2,5,1,0
11475,-32,-5,-7,-3,0,2,-12,-23,0
11480,6,0,0,-2,-1,2,-3,5,0
11485,-7,-2,-4,-1,2,1,24,1,0
11490,28,0,0,0,-1,-1,-3,0,0
11495,-22,-1,-1,-3,0,3,-21,7,0
11500,13,4,2,5,0,0,-7,-7,0
11505,-17,-5,-5,-4,0,2,-1,5,0
11510,32,5,-13,-2,-2,0,7,6,0
11515,-32,-12,9,-3,-2,-2,2,-6,0
11520,-6,-1,-1,3,-2,1,3,-2,0
11525,9,-1,13,-2,0,3,0,-4,0
11530,15,2,4,1,2,2,10,11,0
11535,-12,-4,-10,-2,-5,-7,-7,-15,0
11540,14,0,-5,-2,-1,-1,-19,14,0
11545,-3,0,-4,-2,-4,-2,8,-12,0
11550,0,1,3,0,-3,0,-5,0,0
11555,-10,-5,-5,-4,-6,-4,-7,-8,0
11560,6,0,-2,-5,-2,-7,-9,-7,0
11565,9,-6,-24,-1,4,5,-16,24,0
11570,19,19,30,3,-1,-5,-25,5,0
11575,-12,13,17,6,2,-3,6,11,0
11580,0,0,-5,-3,1,10,-12,-9,0
11585,3,-1,1,1,-1,-3,15,-3,0
11590,-17,-9,-14,-6,-8,-1,-17,-9,0
11595,-20,-6,-15,2,6,7,25,-1,0
11600,5,5,11,-5,-4,-6,14,-3,0
11605,-6,0,-1,-2,0,1,0,3,0
11610,-8,-4,-2,-1,2,1,-11,-16,0
11615,-14,-4,-9,-5,-7,-3,-3,-7,0
11620,11,-3,-8,-3,-3,1,-2,-4,0
11625,7,1,-10,-2,0,-10,2,-2,0
11630,-39,-6,11,2,0,4,28,-2,0
11635,18,-3,-16,-3,1,-2,-25,6,0
11640,7,1,8,-2,-2,-5,-3,-8,0
11645,-13,-3,2,-2,-4,-1,-2,-11,0
11650,9,-2,-6,-3,-1,-5,15,-1,0
11655,-2,-2,2,1,1,1,-5,-1,0
11660,-11,-8,-14,1,-1,2,1,7,0
11665,-26,4,15,3,5,-6,1,-10,0
11670,6,-7,-15,-4,-2,1,-17,4,0
11675,15,-4,11,0,-3,-4,-3,2,0
11680,-5,-1,-8,-3,-6,-6,-22,-8,0
11685,0,-5,-10,-5,-3,3,-8,7,0
11690,30,7,20,0,2,1,-22,1,0
11695,-43,-5,6,4,2,-1,11,-13,0
11700,5,3,4,1,-1,-2,-9,11,0
11705,4,-4,-4,-2,-3,1,1,-8,0
11710,-2,-6,-12,-2,-1,-3,1,-1,0
11715,15,4,6,-2,-3,3,-16,13,0
11720,-5,-7,-4,0,-2,-3,-39,-16,0
11725,18,5,3,2,0,-4,-2,5,0
11730,-29,-7,-5,0,-1,0,-8,-13,0
11735,14,5,5,0,1,1,5,-8,0
11740,-8,-4,-4,-3,-2,-5,-15,2,0
11745,-1,-2,-2,-1,-2,4,-10,-5,0
11750,1,0,-1,2,3,1,-6,4,0
11755,-2,-3,-2,-3,-5,1,0,-4,0
11760,-1,-4,-4,-4,-2,0,9,-1,0
11765,5,-1,-4,-4,-5,-5,-25,-1,0
11770,-26,-1,10,1,4,0,-7,0,0
11775,36,5,-2,-1,-11,-2,-28,3,0
11780,-20,0,5,-2,-1,-7,16,-15,0
11785,9,-1,2,-3,-3,9,-29,29,0
11790,10,5,-1,2,2,-12,-2,1,0
11795,-7,-6,-9,-2,0,-7,-4,-10,0
11800,11,0,2,1,2,5,6,5,0
11805,-5,-2,-2,-3,0,1,-16,-13,0
11810,0,-2,-1,6,2,-4,-9,-1,0
11815,-2,-7,-8,-8,-6,2,24,5,0
11820,6,5,1,6,10,-15,-4,5,0
11825,-13,-4,-2,-7,-10,-4,11,-7,0
11830,-1,-3,-5,0,-2,-9,-9,-3,0
11835,-3,4,5,3,13,63,-26,3,0
11840,-6,-3,1,-1,-3,4,-27,3,0
11845,4,-4,-2,6,3,39,-15,-5,0
11850,-4,-4,0,-2,-4,-46,55,4,0
11855,4,0,3,1,6,17,-10,-1,0
11860,2,-2,-6,-4,0,29,-12,-3,0
11865,-1,5,13,9,17,-3,2,3,0
11870,4,-8,-13,-10,-13,7,-2,-5,0
11875,-13,-7,-5,-6,-4,-21,3,2,0
11880,0,-1,3,-1,-3,-8,-8,0,0
11885,-4,-2,0,1,3,3,33,-4,0
11890,-6,0,1,0,1,-16,-28,-5,0
11895,-3,1,3,3,0,-14,1,4,0
11900,-13,-3,-1,-4,-8,-5,-7,-4,0
11905,11,-1,-1,-2,-4,-5,2,-2,0
11910,-3,-1,-8,-12,2,22,-18,-1,0
11915,3,2,3,6,7,-77,-16,-4,0
11920,-3,0,1,-1,-2,52,-29,2,0
11925,-4,0,5,9,7,9,3,-4,0
11930,2,-5,-12,-11,-12,0,18,4,0
11935,-5,-1,-1,-5,-5,-6,9,-2,0
11940,1,0,1,2,2,5,10,4,0
11945,-12,-4,-6,-6,-4,-21,1,-10,0
11950,13,2,3,3,3,14,-12,5,0
11955,-5,-1,-4,0,-3,13,5,-3,0
11960,9,0,0,-1,-2,-21,-12,-3,0
11965,-20,-4,-3,-4,-5,8,29,5,0
11970,-3,2,4,4,-6,-72,-3,0,0
11975,-1,-3,-5,-3,1,-26,-28,1,0
11980,10,6,2,1,1,15,8,6,0
11985,-14,-4,-4,-8,-13,-6,-20,-4,0
11990,17,2,2,2,9,28,30,3,0
11995,-8,-2,-1,-5,-2,13,17,-4,0
12000,-2,4,1,1,1,-20,12,-3,0
12005,6,1,-2,-3,3,4,-5,-5,0
12010,-11,1,5,3,-2,1,15,-6,0
12015,5,-2,-7,-12,-22,26,-22,-1,0
12020,3,-3,-5,0,2,-31,2,5,0
12025,5,2,-1,-1,1,25,-2,1,0
12030,-1,1,-1,-2,4,22,13,1,0
12035,-2,-2,1,1,-6,-22,-8,-5,0
12040,-5,-1,2,4,-1,-9,4,-4,0
12045,4,0,-1,-5,-4,-3,20,0,0
12050,-8,-5,-11,-7,-7,-22,-17,-7,0
12055,-14,2,3,3,7,5,-1,2,0
12060,52,2,-7,-9,-1,-7,6,8,0
12065,-15,-3,1,1,-2,-7,-16,-5,0
12070,-7,0,-1,-1,0,16,-29,1,0
12075,2,0,-4,-2,-4,10,-13,-1,0
12080,-9,-2,1,2,5,-16,-18,-8,0
12085,12,2,1,4,6,22,-31,10,0
12090,2,-2,-7,-5,-9,-20,0,2,0
12095,-8,-4,-1,-2,16,64,-20,-4,0
12100,-11,0,1,-1,-3,-3,-18,3,0
12105,1,-1,-4,-4,-5,1,10,-7,0
12110,-4,4,6,12,11,-15,-32,2,0
12115,11,-3,-5,-5,-3,-23,-9,0,0
12120,-13,-6,-5,-4,-2,18,8,-4,0
12125,1,0,0,-2,1,0,-10,4,0
12130,7,6,4,-1,-3,19,-6,1,0
12135,1,-2,-4,-2,-5,-4,14,-4,0
12140,-4,-3,-5,-1,-5,-56,-16,-3,0
12145,-20,-3,-3,1,6,-1,4,-7,0
12150,22,-1,2,-2,2,9,6,4,0
12155,-1,0,2,2,3,22,12,1,0
12160,-11,-2,-4,-7,2,39,31,-5,0
12165,8,3,3,4,-3,-42,-35,2,0
12170,-9,-4,-3,0,4,5,25,-3,0
12175,4,0,-2,-2,-8,-46,-11,0,0
12180,-4,-3,0,0,-8,7,-1,-7,0
12185,6,1,0,-2,0,-28,-16,0,0
12190,-1,0,2,-1,7,39,6,1,0
12195,-9,-8,-8,0,-3,-24,1,-2,0
12200,-8,6,10,1,-3,-23,7,1,0
12205,0,-2,6,-2,-9,-13,13,-7,0
12210,-10,-4,-4,-4,-9,-17,4,-4,0
12215,2,0,-2,-5,-4,0,2,-2,0
12220,-6,-3,-5,-1,12,32,1,-1,0
12225,6,-3,-1,3,-16,-68,-24,3,0
12230,-5,-4,-1,-4,-2,6,-3,-4,0
12235,-31,-9,-1,-3,-11,-26,20,0,0
12240,38,7,1,3,10,47,-51,6,0
12245,3,3,-1,-1,5,31,20,-3,0
12250,-22,-9,-3,-2,-2,-22,-5,-5,0
12255,25,7,-3,-4,-11,-26,0,0,0
12260,-8,-2,-8,-3,-4,19,2,0,0
12265,-3,1,-1,3,9,27,4,-5,0
12270,-12,2,20,0,-6,17,26,-2,0
12275,18,-2,-5,-4,10,40,5,-1,0
12280,-14,-3,-5,0,-1,4,12,-1,0
12285,36,6,1,5,4,1,-52,5,0
12290,-40,-16,-12,-6,-11,-14,15,-7,0
12295,-20,-6,-4,-4,3,23,-1,-4,0
12300,2,6,6,2,3,-2,11,-4,0
12305,6,-1,-3,0,5,9,12,3,0
12310,9,-2,8,-5,-2,11,-13,1,0
12315,-2,1,3,-1,2,27,-6,-3,0
12320,-1,-1,0,2,-5,-60,-8,0,0
12325,-7,-1,1,-2,1,-15,2,-1,0
12330,-5,-4,-10,-6,-9,9,14,-3,0
12335,6,-5,-3,-3,1,9,-12,-6,0
12340,-3,-2,-3,1,-2,4,9,2,0
12345,3,1,-3,1,1,-9,-5,0,0
12350,0,4,4,3,4,3,-3,1,0
12355,-10,-2,10,2,0,-7,1,-2,0
12360,-10,-7,-12,-7,-5,-11,-28,-7,0
12365,14,6,1,4,8,27,43,19,0
12370,1,-2,-2,0,-8,-13,-20,-5,0
12375,-6,-3,-8,-2,1,-6,24,5,0
12380,7,-1,2,2,-1,-5,-15,-4,0
12385,-15,-7,-6,-11,-11,-1,-23,-10,0
12390,6,2,4,6,5,-26,-2,0,0
12395,-21,-3,-2,4,0,4,-1,-2,0
12400,-6,-5,-4,-13,-7,18,-2,7,0
12405,-2,0,1,-1,-3,-2,-8,-7,0
12410,5,-2,-4,0,0,-5,-14,-1,0
12415,3,2,0,1,5,1,-19,-1,0
12420,-15,-1,-1,1,-2,0,-13,-9,0
12425,3,-4,5,0,-6,-12,-14,0,0
12430,-1,-5,-4,-2,-7,-23,-14,3,0
12435,-10,2,7,2,19,35,-14,0,0
12440,-2,8,5,1,-3,-11,-5,2,0
12445,23,9,10,4,1,-5,-10,2,0
12450,-3,-2,-5,-2,-1,4,-6,-1,0
12455,0,-6,-6,-6,-10,-21,-20,-1,0
12460,4,-5,-5,-1,-4,-1,-15,-2,0
12465,-9,-2,-8,0,6,5,-9,-2,0
12470,2,-5,-4,-5,-10,-24,-4,-5,0
12475,9,-1,-1,-3,-7,-3,16,6,0
12480,-19,-13,-7,2,29,46,-42,-2,0
12485,-21,11,10,3,-7,22,-2,-6,0
12490,-4,-3,-1,0,2,-2,22,2,0
12495,-17,-4,-2,0,2,-2,7,-4,0
12500,21,-3,6,-4,-12,-40,1,3,0
12505,5,-6,-7,-6,-3,-13,-2,7,0
12510,-3,-1,1,0,6,25,-21,2,0
12515,-5,-1,4,-3,-11,-4,19,-3,0
12520,3,-1,-10,-6,-15,-31,1,2,0
12525,12,-5,-8,3,4,7,7,-3,0
12530,-15,1,8,0,1,5,-1,-4,0
12535,10,3,8,2,-1,-21,-1,-2,0
12540,-9,-4,-11,-8,-8,0,-4,-5,0
12545,-23,0,-3,1,5,-5,1,3,0
12550,4,-10,-5,-4,-2,4,5,2,0
12555,-26,-8,-19,-3,-1,2,-7,-8,0
12560,53,24,29,2,5,7,18,3,0
12565,-16,-9,-11,-3,-3,-8,-5,-2,0
12570,-1,5,1,3,-4,12,-7,-3,0
12575,-6,-46,-9,-6,-9,-26,14,1,0
12580,-8,14,-12,-1,8,35,6,-10,0
12585,1,-7,5,-2,-2,-9,-2,9,0
12590,17,11,0,-1,-2,-6,-11,8,0
12595,-7,16,4,2,-3,-1,-2,-2,0
12600,3,-16,3,7,11,-4,14,4,0
12605,18,7,5,-2,-3,-6,6,-5,0
12610,-9,-14,-6,-6,0,8,-16,-8,0
12615,-10,5,-7,2,-2,-2,-8,5,0
12620,7,-9,-19,-5,-5,-2,-8,-1,0
12625,-32,-4,9,1,1,-4,-9,-9,0
12630,11,4,0,-3,-1,-5,-3,-1,0
12635,10,-1,-16,-2,4,-9,-21,-7,0
12640,-6,13,15,-1,-8,-16,14,1,0
12645,20,-2,-7,-3,3,18,4,6,0
12650,-9,2,-5,-3,-10,-33,-7,-5,0
12655,10,2,16,2,2,7,1,-2,0
12660,-16,-14,-14,2,0,-3,1,2,0
12665,-6,2,-1,-3,-3,-6,-3,-8,0
12670,-1,-1,-1,0,-4,-5,-7,1,0
12675,-2,4,-3,-4,-5,7,-5,-6,0
12680,0,-6,-11,1,9,-18,-8,6,0
12685,18,0,13,-4,-10,-19,8,-3,0
12690,-44,-29,-73,-10,-3,-6,-26,-7,0
12695,19,18,53,13,14,33,9,-6,0
12700,28,10,25,5,-1,6,-6,8,0
12705,-8,28,-7,-1,-3,-9,-12,-5,0
12710,25,-3,11,-1,2,9,18,10,0
12715,-14,-4,-22,-6,-7,-12,-47,-10,0
12720,8,18,14,-1,5,21,29,6,0
12725,2,0,-11,-7,-4,-3,-27,1,0
12730,-9,-8,4,0,-2,8,-3,-3,0
12735,-1,-12,-21,-9,-6,-5,-12,1,0
12740,24,12,22,8,4,7,-14,-2,0
12745,-15,0,8,1,-2,-9,18,1,0
12750,-16,-3,-6,-5,-7,2,3,-2,0
12755,2,-6,-8,-3,-3,-6,-16,0,0
12760,-10,2,10,6,9,9,-3,-7,0
12765,0,-2,-9,-11,-17,-7,16,3,0
12770,2,3,-7,-3,-8,-4,-26,-3,0
12775,-12,-7,-11,0,0,7,1,-3,0
12780,15,3,3,-2,2,-2,3,9,0
12785,-7,-3,3,3,1,-12,13,-5,0
12790,-22,-5,-19,-6,1,12,-4,-10,0
12795,28,4,15,0,-3,-6,-4,3,0
12800,-17,-13,-3,0,-1,4,-15,0,0
12805,46,2,-9,-5,-1,-10,0,4,0
12810,20,21,7,1,-5,1,-7,5,0
12815,-24,-14,6,4,6,-11,-18,-6,0
12820,4,4,-9,-2,-2,-6,-2,2,0
12825,-9,6,0,-3,2,6,-3,-3,0
12830,0,-2,1,-1,1,-10,-16,-3,0
12835,11,-3,-7,-3,1,8,-20,1,0
12840,-11,-6,1,-4,-5,-2,7,-6,0
12845,-13,0,-8,-2,0,-4,-17,2,0
12850,32,-1,-5,3,6,7,21,5,0
12855,-9,3,8,0,-5,-10,-11,1,0
12860,-10,-10,-14,0,-1,3,2,-10,0
12865,-17,16,27,1,0,6,-13,3,0
12870,-10,-2,6,1,-2,0,3,-3,0
12875,-5,-3,9,1,3,-3,18,4,0
12880,-4,5,5,0,-2,-6,-20,-6,0
12885,4,-13,-25,-4,-4,3,-12,7,0
12890,13,-2,-2,0,3,1,0,-1,0
12895,-4,1,1,-1,1,3,6,1,0
12900,2,0,2,-1,0,1,-6,-4,0
12905,-5,-4,-11,5,4,2,14,3,0
12910,-4,3,17,-3,-9,-4,-9,-4,0
12915,-6,1,-5,3,0,14,34,-6,0
12920,8,1,7,-2,-1,1,-35,9,0
12925,4,-1,-5,-3,-1,10,30,-7,0
12930,-14,-7,-17,-1,1,-25,-18,-4,0
12935,14,2,2,-5,-2,14,9,6,0
12940,-17,-6,-17,-3,-4,-8,14,-5,0
12945,-19,-3,15,3,2,3,-20,-9,0
12950,-7,-10,5,-3,-1,-3,7,10,0
12955,-5,5,-4,2,-3,2,-22,-3,0
12960,5,-1,6,0,0,0,15,-7,0
12965,-6,-5,-7,0,1,-5,-16,-1,0
12970,-21,9,-12,-1,-1,2,4,-1,0
12975,10,-3,3,0,-2,-10,-25,3,0
12980,-5,-10,5,0,1,6,5,-9,0
12985,12,17,-7,-1,-4,-8,-19,16,0
12990,-8,-4,-1,-2,4,4,-6,2,0
12995,16,1,-4,-3,1,-4,-5,-6,0
13000,-2,4,5,0,-2,1,3,-1,0
13005,1,-7,-2,0,1,-4,0,-7,0
13010,8,-5,-9,-5,-3,-2,-2,-3,0
13015,-13,0,4,0,-2,-3,9,2,0
13020,8,-3,-9,-2,0,-1,-7,4,0
13025,-18,-5,28,5,1,0,1,-7,0
13030,8,4,3,0,-1,4,-3,-6,0
13035,-6,-8,-6,5,9,0,14,0,0
13040,3,-3,-11,-5,-11,-7,3,-1,0
13045,-1,-7,-18,-7,-3,-1,-8,2,0
13050,10,1,24,1,1,4,16,-3,0
13055,0,4,3,-1,1,-3,-28,0,0
13060,-24,-6,-9,-2,1,0,5,-1,0
13065,45,16,-8,-2,3,0,2,12,0
13070,-8,0,13,6,-3,-5,1,-10,0
13075,0,-10,-23,-6,-5,-2,6,-7,0
13080,-5,2,4,2,2,2,-4,4,0
13085,3,-15,-17,-7,-4,-6,-6,-6,0
13090,-29,-3,20,-1,-1,-1,9,-1,0
13095,15,3,-1,-2,-3,-3,-4,0,0
13100,-8,-2,-13,-2,-2,0,-9,-5,0
13105,26,9,19,0,0,0,3,1,0
13110,7,5,-11,-2,1,0,-8,2,0
13115,-11,-6,4,3,-3,-4,4,-5,0
13120,3,5,2,-2,-1,1,4,0,0
13125,-5,-9,-5,2,1,-1,4,2,0
13130,2,1,-9,-2,-2,1,-9,-5,0
13135,-8,-10,-29,-4,-3,-6,-9,-5,0
13140,-17,10,34,1,4,6,10,-2,0
13145,38,1,7,6,2,2,-7,6,0
13150,10,1,-3,0,0,-2,-9,1,0
13155,-17,-6,-6,-5,-4,5,-8,-3,0
13160,-5,-10,-40,-6,-1,-8,-5,0,0
13165,-41,-15,-3,-5,-4,-1,1,-16,0
13170,89,29,30,7,0,-2,4,27,0
13175,-10,0,7,-1,-1,0,-8,-1,0
13180,7,1,-1,0,1,1,-8,2,0
13185,-19,-2,0,-4,2,0,3,-3,0
13190,-23,-21,-28,-3,-7,-3,-9,-4,0
13195,4,3,6,-2,-4,-4,2,4,0
13200,15,2,13,3,-2,-1,4,-3,0
13205,-12,-2,-8,-3,2,6,2,1,0
13210,-20,-4,-5,-1,1,0,2,-8,0
13215,11,4,1,0,0,-4,-5,4,0
13220,-17,-13,-31,-6,-3,-5,-30,-18,0
13225,14,5,27,2,-3,0,39,21,0
13230,-23,-7,-12,-6,-5,-3,-1,-6,0
13235,-10,1,24,4,1,2,3,-12,0
13240,13,8,6,-4,-2,-2,-6,6,0
13245,-6,-2,-9,2,0,0,-10,-6,0
13250,-3,-3,-2,0,-2,1,0,-1,0
13255,-5,-7,-16,-3,-4,-4,-5,3,0
13260,-1,0,11,2,2,4,-3,-1,0
13265,7,4,0,-2,-3,-3,1,-5,0
13270,-18,-2,-4,-1,4,0,-1,-5,0
13275,1,3,10,5,4,0,-11,-1,0
13280,3,0,6,0,-6,-12,10,2,0
13285,-6,-3,-8,-5,0,14,-36,-1,0
13290,-7,-10,-16,-7,-4,-8,5,-3,0
13295,0,1,-3,-5,1,9,-2,-1,0
13300,-1,3,16,2,0,-3,4,0,0
13305,10,-11,-46,-5,-3,-3,-20,-3,0
13310,-11,5,22,-1,2,0,14,-1,0
13315,6,1,-5,-1,-1,1,3,3,0
13320,1,-1,14,2,-1,2,16,2,0
13325,-7,-4,-12,2,-1,-3,2,-3,0
13330,-2,-3,-7,-5,-3,0,-9,-2,0
13335,6,-1,-7,-5,-3,-4,10,2,0
13340,-3,0,-2,-3,-3,6,4,-2,0
13345,-6,4,10,5,3,-8,12,-3,0
13350,3,0,-6,0,-1,-4,-6,-1,0
13355,-9,-1,-4,-6,-4,-4,-6,1,0
13360,-24,-24,-34,-2,-3,-1,-1,-9,0
13365,60,33,42,0,0,1,21,13,0
13370,6,7,5,4,0,3,20,-3,0
13375,-7,-2,0,-2,-1,-3,-9,-7,0
13380,2,3,-11,-3,2,-1,-15,-2,0
13385,-25,-8,5,0,-1,-4,-9,-4,0
13390,-10,-7,-3,-1,-1,1,-13,-2,0
13395,4,-1,-25,-6,-4,-4,-2,3,0
13400,16,7,30,5,2,6,26,-15,0
13405,18,-5,-18,-5,-4,-4,-12,11,0
13410,-22,-4,10,1,0,-1,-18,4,0
13415,-3,-4,-1,-4,-2,-3,3,-2,0
13420,-5,4,7,2,1,0,2,-7,0
13425,-21,0,5,-4,-3,-5,-2,-6,0
13430,0,-5,-14,0,1,2,8,-8,0
13435,-4,-1,1,0,0,4,-2,2,0
13440,11,3,3,-1,1,-1,19,7,0
13445,-48,-13,-23,-5,-2,1,6,-12,0
13450,6,13,23,7,9,10,38,-17,0
13455,24,-19,-1,-6,-12,-12,29,30,0
13460,22,34,23,2,-4,-3,-24,4,0
13465,-11,-11,2,3,-1,-1,8,1,0
13470,-10,0,-18,-6,-3,-1,-8,-5,0
13475,-6,-2,7,6,7,7,8,-14,0
13480,-6,-13,-7,-2,1,-2,0,7,0
13485,-2,-1,-8,-4,-4,-3,-2,-1,0
13490,3,-4,-5,-5,0,-1,-9,4,0
13495,-4,7,7,7,2,4,-13,-14,0
13500,0,-14,-14,-10,-14,-12,5,13,0
13505,-5,3,2,0,2,2,-11,-12,0
13510,-1,-1,-4,-3,0,-1,-20,4,0
13515,5,8,9,2,1,-1,-3,-4,0
13520,-12,-4,-9,-2,-5,-3,-17,-3,0
13525,4,7,27,1,0,4,-9,-1,0
13530,-3,-5,-2,0,1,0,1,1,0
13535,-5,-2,-9,-8,-10,-22,11,-1,0
13540,1,0,8,0,8,39,-29,0,0
13545,-1,-3,-9,2,4,-28,-8,0,0
13550,3,-2,-5,-2,-6,-59,-16,5,0
13555,-5,2,-7,-1,15,27,-8,-2,0
13560,0,3,31,3,10,46,-13,1,0
13565,1,9,7,9,7,20,3,-1,0
13570,-2,-11,-10,-19,-39,-36,20,-3,0
13575,1,2,4,16,25,68,-12,-5,0
13580,-1,-8,-16,-4,-12,-38,5,0,0
13585,-2,0,-2,-4,5,-13,-29,-4,0
13590,1,-2,3,-3,-12,-22,26,3,0
13595,-6,1,3,3,12,67,-11,-4,0
13600,2,-4,-12,-6,-6,-38,6,0,0
13605,-2,-4,4,0,-7,35,51,2,0
13610,3,-3,-10,7,26,76,-18,2,0
13615,-5,4,13,9,19,11,-6,-4,0
13620,-5,-8,-8,-9,-18,14,27,-9,0
13625,4,-4,-7,-4,-10,-48,-9,0,0
13630,-5,-6,-7,-6,-3,-25,17,-1,0
13635,1,0,2,3,-6,-32,14,4,0
13640,-5,1,4,1,12,27,36,-3,0
13645,-4,-8,-7,-4,-4,15,27,-2,0
13650,2,-1,3,5,14,36,18,2,0
13655,-3,-2,0,-7,-23,-73,8,-1,0
13660,2,0,-4,1,2,5,-4,4,0
13665,-20,-1,-3,-1,0,10,-13,-6,0
13670,19,2,-1,0,-2,11,-44,-1,0
13675,-10,-3,-8,-12,-22,-13,23,-8,0
13680,6,7,4,10,-15,-102,-92,4,0
13685,1,-1,1,-2,10,40,-29,-3,0
13690,-1,1,0,0,9,62,-12,4,0
13695,6,2,0,6,-12,-79,-28,5,0
13700,0,0,-2,-7,3,37,-6,-3,0
13705,-1,1,-1,-1,-7,-1,-12,-3,0
13710,-5,0,-2,-1,-10,-45,-11,-10,0
13715,2,-2,-4,-6,0,5,13,3,0
13720,-3,-1,2,4,8,-17,0,1,0
13725,1,-1,-3,-2,-9,-24,4,0,0
13730,-6,4,0,-1,6,-19,-7,-1,0
13735,-2,3,-1,-5,0,18,-13,-1,0
13740,-8,-3,-8,-7,-6,14,-1,-1,0
13745,10,-1,-1,-1,9,4,28,1,0
13750,1,1,0,-1,-12,-17,-31,3,0
13755,-4,2,2,0,-9,28,-21,-5,0
13760,7,2,-2,4,9,-10,28,7,0
13765,1,1,2,1,3,-5,7,0,0
13770,-3,-3,-6,-3,-17,-58,-4,-6,0
13775,6,-1,-2,0,8,36,18,0,0
13780,-6,-2,-1,-2,-1,10,-13,-4,0
13785,0,-2,-2,0,-9,4,2,0,0
13790,-4,-1,-3,-2,6,50,20,-7,0
13795,-1,-2,0,-1,-7,-26,-29,0,0
13800,1,0,0,0,-2,-7,8,-2,0
13805,-3,-2,-2,-2,-1,6,-31,-5,0
13810,0,-1,2,3,20,29,5,4,0
13815,-5,1,2,0,6,5,-3,-3,0
13820,-2,-3,-4,-10,-8,-2,18,0,0
13825,-1,-2,1,-3,-19,-29,-26,-5,0
13830,-2,0,1,2,8,22,1,2,0
13835,2,-2,-4,-2,0,-22,20,4,0
13840,0,1,2,4,9,-1,-10,-3,0
13845,0,0,-2,-3,1,-27,-1,0,0
13850,0,0,-1,-3,-8,2,-7,-3,0
13855,-3,-3,-1,-3,-4,-3,-8,-4,0
13860,-3,-2,-2,1,-3,10,-3,-3,0
13865,-2,0,-1,1,9,-16,-1,3,0
13870,-5,-1,-4,-4,-8,18,8,-3,0
13875,2,-1,-4,-3,-7,-8,-21,2,0
13880,0,-1,1,3,5,-14,1,-1,0
13885,-2,0,-1,-3,-1,42,5,-2,0
13890,1,-1,-2,2,1,-15,12,-2,0
13895,-1,-3,-7,-21,-24,4,-9,-2,0
13900,-1,7,9,11,9,-5,-6,0,0
13905,-2,-6,-7,-4,-14,-4,-20,4,0
13910,-3,-3,-8,-16,-18,-15,-18,-1,0
13915,-1,-1,1,3,13,22,-6,-4,0
13920,0,1,-5,-2,22,32,-9,-1,0
13925,-2,1,4,4,-4,-48,23,0,0
13930,0,6,13,10,2,-14,-21,-1,0
13935,1,-4,-7,5,-5,11,12,-1,0
13940,-2,-7,-6,-13,-23,-37,1,-2,0
13945,-4,0,-4,-2,14,21,12,-1,0
13950,1,-1,0,1,9,2,0,3,0
13955,-2,0,6,1,18,24,5,-2,0
13960,-2,0,-1,2,-18,33,2,-2,0
13965,-2,-5,-8,-17,-17,5,5,-3,0
13970,-4,0,1,5,6,-23,18,0,0
13975,-2,0,4,4,12,32,19,0,0
13980,1,-2,-1,1,-13,-62,-12,-2,0
13985,3,1,1,2,6,23,6,3,0
13990,-1,0,4,3,7,7,5,-2,0
13995,-5,-5,-2,-9,-11,1,-12,-7,0
14000,3,6,7,6,16,24,21,7,0
14005,-2,-7,-4,4,-8,25,72,-1,0
14010,2,-1,-5,-2,2,-74,36,-1,0
14015,-2,-5,-8,-4,0,14,68,-1,0
14020,-4,-2,-5,-14,-7,-1,-15,-5,0
14025,0,1,1,3,5,-13,-44,-2,0
14030,-1,-3,1,-2,6,54,-53,1,0
14035,-2,-2,-3,-8,-18,-51,-23,0,0
14040,-3,2,10,11,8,-16,12,-4,0
14045,1,0,1,6,-2,-2,68,-3,0
14050,-3,-7,-8,-8,-13,24,75,-2,0
14055,-1,0,4,3,-3,-53,-21,-1,0
14060,-5,-7,-12,-7,-8,22,-34,-4,0
14065,1,0,-2,-10,-21,-30,-93,1,0
14070,2,1,2,7,4,-33,-47,2,0
14075,2,3,3,4,10,-1,-25,2,0
14080,-1,-6,-6,-5,-7,13,-38,-6,0
14085,-3,-3,-3,-3,3,-14,-38,-8,0
14090,-4,-2,-2,-5,-7,6,-17,-2,0
14095,-3,2,0,5,1,-12,-13,-5,0
14100,2,-2,-2,-1,1,-10,26,8,0
14105,0,1,8,6,19,49,-8,-2,0
14110,1,-8,-13,-16,-16,-3,9,0,0
14115,-3,1,0,-1,5,6,21,-1,0
14120,-4,1,3,1,9,1,-11,-1,0
14125,3,2,-3,2,6,-66,-14,1,0
14130,1,2,7,10,6,50,-4,-2,0
14135,2,-2,0,0,-9,-12,8,2,0
14140,-1,-2,0,-1,-3,-18,8,-1,0
14145,-3,-2,0,-3,-5,25,13,0,0
14150,-3,2,-3,-8,-7,-30,-30,-8,0
14155,3,-4,2,8,14,35,20,4,0
14160,0,3,3,10,20,8,29,0,0
14165,-3,-3,-6,-8,-9,-8,29,0,0
14170,-4,-1,-2,-4,3,41,11,-3,0
14175,-3,1,6,3,-10,-5,8,-5,0
14180,-2,-4,-8,-6,-9,3,-3,-3,0
14185,0,-3,-5,-11,1,27,10,1,0
14190,-2,-2,-6,-5,-2,-15,18,-1,0
14195,-1,-2,-3,-3,-1,0,0,0,0
14200,1,2,3,8,7,13,-10,-2,0
14205,-2,-4,-4,-9,-17,-6,-46,-6,0
14210,-1,-2,-6,6,-7,-35,-38,0,0
14215,5,0,1,-13,-13,-17,-40,1,0
14220,-2,0,5,0,0,24,-9,0,0
14225,-4,-1,0,8,11,-9,15,0,0
14230,-1,-4,3,-3,-2,25,39,1,0
14235,-2,-4,-9,-4,0,4,7,-3,0
14240,-1,-2,-4,-3,1,-15,10,-2,0
14245,2,7,12,15,6,15,-14,1,0
14250,-1,0,1,4,-3,-44,0,0,0
14255,-1,-2,-6,0,11,26,14,4,0
14260,2,-4,-1,-8,-3,5,15,1,0
14265,-4,-2,-8,1,6,11,17,-2,0
14270,0,2,6,6,3,-4,3,-2,0
14275,1,-3,-4,-5,-13,-26,-4,0,0
14280,-4,-2,-5,1,18,6,5,-2,0
14285,-2,-4,0,-3,-11,10,28,-1,0
14290,3,1,4,5,2,-49,19,2,0
14295,-5,-8,-14,-10,-9,-19,9,-4,0
14300,9,6,3,5,-1,-10,-11,4,0
14305,-4,0,-9,-10,4,2,-23,-2,0
14310,0,-7,-10,-4,-3,5,-37,-1,0
14315,3,6,20,4,4,5,-11,-1,0
14320,-4,-2,0,-1,0,-6,3,-3,0
14325,-2,-3,-2,6,0,-2,0,2,0
14330,-2,-7,-14,-18,-12,11,13,2,0
14335,-13,0,-3,7,8,-1,-3,-6,0
14340,10,-1,-2,-8,-4,11,26,-3,0
14345,0,1,2,0,0,-6,1,-4,0
14350,-2,0,8,1,6,48,13,-2,0
14355,1,1,4,1,-12,-32,-18,-3,0
14360,4,1,2,-2,-3,-10,-8,1,0
14365,-9,-9,-2,-1,4,-1,-30,2,0
14370,15,13,4,3,8,45,9,3,0
14375,-6,-5,-5,-6,-8,-18,13,-3,0
14380,-40,-10,-4,5,-4,7,-6,-5,0
14385,31,3,-15,-12,-14,-11,-10,-1,0
14390,-14,1,17,0,1,2,-3,-6,0
14395,8,4,4,2,13,30,1,0,0
14400,-8,-13,-45,-11,-9,13,-4,-3,0
14405,-8,-3,26,-2,-1,-2,13,-3,0
14410,-20,0,8,1,-3,-37,-5,1,0
14415,17,5,-1,0,12,49,6,1,0
14420,-15,-10,-2,-4,-6,-23,-26,-8,0
14425,17,11,-5,5,5,4,13,4,0
14430,2,-2,-10,0,-7,-12,-8,-3,0
14435,-11,-4,2,0,0,-6,0,1,0
14440,9,9,6,-1,0,16,6,-4,0
14445,-5,-6,-7,-2,-11,-71,-26,-6,0
14450,7,-1,-4,-7,7,-5,3,3,0
14455,7,5,-3,4,-5,-6,1,3,0
14460,6,-1,5,-2,-7,-3,-2,2,0
14465,-15,1,-1,-3,2,-18,-3,-4,0
14470,-17,-3,-5,5,0,11,-7,-6,0
14475,29,-2,-9,-6,-5,-24,-19,2,0
14480,-8,5,18,10,1,-11,3,-2,0
14485,-4,-2,-14,-6,-8,-6,9,-2,0
14490,-5,-3,-9,0,3,14,0,-2,0
14495,-5,12,14,-3,-3,-11,-8,-6,0
14500,30,-7,-6,-8,-4,0,4,14,0
14505,-34,2,-5,4,1,6,-8,-10,0
14510,-5,3,16,0,-9,-1,-5,-1,0
14515,2,-9,-11,-6,-11,-8,3,1,0
14520,1,-1,2,-4,1,0,-6,-4,0
14525,-21,-6,-1,4,1,3,19,5,0
14530,4,0,-1,-3,5,12,3,-5,0
14535,-11,-4,-19,1,2,0,-12,-12,0
14540,9,27,10,-1,-9,-19,16,8,0
14545,-3,-28,-16,-3,4,28,-6,10,0
14550,-18,5,9,3,-1,-5,-2,-14,0
14555,-29,-20,-14,-2,-8,-9,-4,5,0
14560,5,41,37,0,7,10,11,10,0
14565,12,-7,-37,-10,-4,4,4,7,0
14570,38,-2,34,1,-13,-28,20,-18,0
14575,-42,-19,-23,-2,-4,-8,-20,14,0
14580,30,-6,-13,-5,-7,0,-1,-7,0
14585,-25,-22,5,0,2,2,3,6,0
14590,-2,-4,-18,-7,-3,-2,-9,7,0
14595,19,58,37,15,11,15,34,-18,0
14600,-14,-4,14,-2,-6,-7,-15,1,0
14605,46,24,-2,-5,-6,2,-3,13,0
14610,-10,-39,-25,-8,-6,-14,-28,18,0
14615,-38,-94,-59,-11,-4,2,6,-8,0
14620,61,39,11,12,11,11,-21,4,0
14625,-45,9,42,11,3,2,1,-17,0
14630,98,70,17,9,5,10,1,22,0
14635,-28,38,36,-4,-5,-3,5,-15,0
14640,-28,-39,-43,0,2,6,14,-36,0
14645,11,-47,-40,-15,-12,-9,-14,11,0
14650,-13,21,19,4,0,4,13,-7,0
14655,6,-19,-27,-9,-5,-5,-14,7,0
14660,-40,14,53,-11,-5,-8,-15,-7,0
14665,-16,-46,-26,1,-2,-2,0,-19,0
14670,2,-63,-57,-9,-2,4,-31,0,0
14675,62,82,29,7,5,0,-7,12,0
14680,-22,19,23,15,3,-4,26,11,0
14685,5,28,19,9,10,10,-2,1,0
14690,-29,-29,-10,-5,-4,-2,1,1,0
14695,-14,-18,-10,-8,-5,0,-6,-21,0
14700,23,-15,-11,-1,2,6,-49,29,0
14705,3,24,21,4,0,-1,9,-6,0
14710,-6,-3,-48,-8,-1,6,3,-9,0
14715,12,21,80,13,16,16,37,-2,0
14720,-113,-62,-63,-16,-16,-17,18,-17,0
14725,46,3,16,6,3,0,16,-5,0
14730,-22,19,16,6,3,0,-15,-2,0
14735,3,5,-17,0,0,4,39,-33,0
14740,-6,-29,-10,-8,-7,-9,-19,45,0
14745,18,11,6,-1,-2,-5,-9,0,0
14750,-22,-7,-1,-4,-2,-6,1,0,0
14755,-3,-11,0,2,1,0,-6,10,0
14760,2,-5,-11,-7,-1,0,-5,-27,0
14765,48,9,5,4,0,5,8,21,0
14770,-34,24,36,3,1,-3,4,-16,0
14775,-8,-24,-10,-5,-6,-5,1,5,0
14780,59,8,-20,-4,-2,-2,1,1,0
14785,-44,5,8,1,0,0,6,-6,0
14790,2,3,6,2,0,1,8,-5,0
14795,-7,-15,-10,1,-2,-2,-5,1,0
14800,-12,9,7,1,4,4,6,-21,0
14805,3,18,7,-1,0,2,27,-6,0
14810,40,23,16,2,-6,-10,-22,5,0
14815,-65,-51,-37,-13,-7,-4,-18,-1,0
14820,-10,9,47,9,4,2,10,4,0
14825,20,0,4,-1,4,-1,-19,15,0
14830,-12,18,22,12,9,6,14,-8,0
14835,2,-11,-6,-13,-29,-13,-6,-8,0
14840,-2,-9,-29,-8,0,3,-15,2,0
14845,4,-16,-14,-4,-3,-4,4,2,0
14850,4,1,14,1,7,5,15,-5,0
14855,-12,13,-11,0,10,0,-14,-5,0
14860,65,-9,-24,-6,-6,1,-4,6,0
14865,-12,27,41,1,-7,-9,9,-22,0
14870,15,0,-7,-2,-2,1,-12,10,0
14875,-4,8,15,-2,2,2,3,1,0
14880,-5,5,17,5,6,3,-10,-1,0
14885,31,-1,-37,-8,-7,-5,-3,14,0
14890,-50,-16,19,2,-4,0,8,-16,0
14895,85,25,-8,2,3,2,-12,14,0
14900,1,7,16,-1,1,0,14,2,0
14905,-6,-16,-9,2,-1,0,-5,-4,0
14910,12,1,-10,-5,-4,2,5,10,0
14915,-2,1,12,7,4,2,-3,-19,0
14920,3,2,-9,-4,-7,-4,5,-2,0
14925,4,-2,3,-1,-1,0,3,-3,0
14930,-26,-17,-15,-5,-1,-2,-1,-3,0
14935,2,34,57,4,2,-2,-4,4,0
14940,-31,-34,-58,-1,3,-1,6,-14,0
14945,28,38,29,8,0,2,-8,-6,0
14950,19,23,59,-10,-8,-10,-19,-5,0
14955,-63,-61,-108,2,10,11,-17,-16,0
14960,8,17,43,5,-7,-8,0,26,0
14965,-36,-3,-5,-3,-1,1,3,-13,0
14970,0,-22,-55,-5,0,-1,-13,24,0
14975,-14,3,59,-2,-6,-7,-24,2,0
14980,50,25,-1,-1,-3,-6,-3,-11,0
14985,-19,-18,-15,-2,2,-2,-6,18,0
14990,40,15,4,2,2,5,18,-8,0
14995,-17,-4,-9,-5,-2,-4,9,-9,0
15000,-19,-1,-11,-3,2,1,-5,-5,0
15005,16,2,18,-3,-3,-1,1,2,0
15010,5,-7,-9,1,5,3,6,0,0
15015,16,11,6,6,6,6,1,-4,0
15020,-10,-8,3,-5,-25,-15,-3,-8,0
15025,2,-8,-12,-5,-2,3,-8,1,0
15030,11,-5,-12,-3,-3,-1,21,-2,0
15035,0,1,-13,-1,4,-1,-14,9,0
15040,0,28,52,10,17,9,-3,-4,0
15045,-12,-18,-14,3,-9,-15,-5,6,0
15050,0,-2,-12,-3,-3,3,5,1,0
15055,9,7,14,4,-4,-6,7,-4,0
15060,-12,-7,-14,-9,-7,0,8,-5,0
15065,4,-2,0,4,14,13,8,5,0
15070,-37,-11,-20,0,2,-7,-18,-10,0
15075,14,5,14,-7,0,0,10,-1,0
15080,10,15,32,9,8,2,-10,-2,0
15085,-10,-8,-6,-10,-17,-11,13,6,0
15090,-1,-3,-9,4,-1,1,2,-3,0
15095,-12,-14,-18,-14,-14,-1,4,-1,0
15100,-5,1,-9,2,9,-2,-20,-1,0
15105,6,0,5,0,2,4,0,-4,0
15110,13,5,6,6,2,-2,0,-2,0
15115,1,-5,-10,-4,-6,-6,-10,-4,0
15120,-2,-1,4,-7,0,12,-9,-2,0
15125,2,-7,-10,0,2,-9,26,2,0
15130,16,5,8,3,-3,3,3,-2,0
15135,-21,-4,3,2,1,1,-8,1,0
15140,0,-4,-7,0,1,-3,13,2,0
15145,-5,-6,-4,2,-8,27,-6,-5,0
15150,7,2,5,1,0,-21,-30,5,0
15155,-3,-7,-22,-4,-6,0,0,-2,0
15160,-1,3,10,-1,3,-6,-3,-2,0
15165,-6,0,5,-3,-2,-17,5,-7,0
15170,5,2,7,1,1,17,8,12,0
15175,1,2,2,2,2,8,-5,-11,0
15180,-8,-4,-13,-4,-5,-5,11,0,0
15185,4,2,-3,0,-1,-10,-8,2,0
15190,-1,-3,-5,-8,-3,23,1,-9,0
15195,4,2,4,5,1,-18,11,-1,0
15200,7,3,-2,7,15,19,-5,8,0
15205,-3,0,3,-2,-6,-2,-11,-3,0
15210,-2,-4,-10,-18,-18,-19,8,-6,0
15215,5,-2,9,-1,1,-2,-5,1,0
15220,-1,2,-10,-3,-3,-2,8,-6,0
15225,-1,3,3,2,6,28,4,2,0
15230,-1,-3,-2,1,-8,-43,2,-3,0
15235,5,1,0,0,0,-11,-1,3,0
15240,-3,-4,0,-5,-11,-16,10,1,0
15245,-2,0,-6,2,8,5,-39,-3,0
15250,-2,-4,-22,-9,-5,13,26,0,0
15255,-1,7,44,1,0,20,-1,-1,0
15260,-16,-1,9,0,-3,-18,7,-6,0
15265,28,0,-7,-3,-5,-21,-13,5,0
15270,-5,3,10,8,8,0,-5,-6,0
15275,-3,-7,-22,-2,0,20,4,1,0
15280,1,-3,-7,-5,-1,11,-25,-1,0
15285,-4,1,9,0,-1,-37,11,1,0
15290,-2,1,3,6,9,18,-15,-5,0
15295,8,0,-7,-4,-1,-2,1,6,0
15300,10,-2,-3,-4,-5,-6,14,4,0
15305,-15,-27,-20,-10,-9,-5,-4,-9,0
15310,4,12,4,1,9,8,-2,-5,0
15315,11,26,28,14,8,-7,6,5,0
15320,-1,2,4,-1,-6,4,-3,-4,0
15325,-23,-15,-9,-3,-1,10,-1,-3,0
15330,-9,14,16,-8,-6,-4,15,-33,0
15335,41,-88,-67,-8,0,5,4,25,0
15340,4,31,7,5,1,-1,14,-25,0
15345,-15,0,7,2,1,2,-10,16,0
15350,23,66,77,8,4,10,42,-52,0
15355,-21,-65,-57,-7,-10,-19,-51,40,0
15360,37,-14,-10,-3,3,7,-13,13,0
15365,-7,44,32,11,0,-5,46,-4,0
15370,-7,-4,8,8,6,8,16,7,0
15375,19,33,23,1,1,4,9,-19,0
15380,23,-18,-7,-3,-2,-3,-14,3,0
15385,40,6,-22,-5,1,6,-32,5,0
15390,-43,-1,-12,2,0,-2,-1,-9,0
15395,-31,7,-7,-3,-4,1,11,-1,0
15400,-3,-9,40,1,-4,-8,15,-2,0
15405,-41,-3,-13,6,7,9,4,1,0
15410,-1,-33,-31,-10,-7,-13,-58,30,0
15415,9,40,21,13,5,-2,-7,-11,0
15420,2,34,-15,-3,-4,-3,-5,-8,0
15425,-2,3,26,-4,0,9,36,-35,0
15430,-27,-41,-31,-1,-2,-6,-14,59,0
15435,9,20,15,-4,2,0,-23,1,0
15440,-14,2,17,0,-3,-4,2,14,0
15445,17,15,-11,-7,-6,-5,-13,-15,0
15450,-28,-30,-32,-8,-4,-5,1,-35,0
15455,-4,3,0,-7,-3,6,11,-26,0
15460,-44,-11,15,-3,-4,-6,-16,10,0
15465,59,11,-7,3,-2,-2,-5,17,0
15470,35,31,57,5,-3,-1,5,4,0
15475,-24,-47,-61,-16,-17,-20,-15,10,0
15480,2,-19,-24,-2,10,18,19,-24,0
15485,-7,30,19,-7,2,-4,-9,14,0
15490,-58,-44,-14,-3,-3,-6,-28,28,0
15495,85,22,30,8,3,-3,13,-5,0
15500,-20,0,-8,0,-5,-1,17,-1,0
15505,-11,-31,-31,-11,-8,-9,-26,10,0
15510,10,20,32,5,9,8,10,-2,0
15515,-45,-1,15,2,6,1,2,-28,0
15520,-17,-23,-28,-8,-11,-11,-53,39,0
15525,26,2,18,4,-1,-4,14,0,0
15530,-4,-8,-43,-6,-5,-3,-3,-12,0
15535,-18,8,21,0,-3,0,-1,-5,0
15540,10,31,25,3,8,6,11,-10,0
15545,-36,-63,-78,-9,-7,4,11,-25,0
15550,2,-8,0,-10,-9,-10,-38,29,0
15555,-26,6,-1,2,6,1,8,-14,0
15560,12,15,1,5,2,6,-6,-5,0
15565,-10,-17,7,-5,-22,-12,22,8,0
15570,28,-7,-22,-2,-1,0,22,-14,0
15575,-18,0,-19,-6,0,8,-12,3,0
15580,-6,2,10,-5,-4,-8,-6,-4,0
15585,9,17,28,11,16,-1,-12,2,0
15590,16,0,-4,8,1,4,2,0,0
15595,-11,-8,-2,-13,-17,-4,8,-3,0
15600,-15,-12,-16,-4,-2,-2,14,-11,0
15605,-1,-6,10,-2,2,3,-11,-7,0
15610,20,10,4,1,0,7,10,-4,0
15615,-10,5,1,1,3,-17,-12,1,0
15620,8,-15,-19,2,3,5,-7,-1,0
15625,-1,2,8,-1,-10,-13,19,-1,0
15630,-1,-4,-15,2,4,7,-14,-1,0
15635,-21,-8,-2,-9,-4,-3,-5,0,0
15640,25,16,20,7,3,0,33,3,0
15645,-11,4,1,2,4,-7,-4,-8,0
15650,-1,7,10,3,0,1,7,-3,0
15655,4,-9,-15,-1,-5,-1,0,-2,0
15660,-8,-13,-15,-1,-4,-7,-1,-4,0
15665,-9,-1,2,-7,-1,-5,-3,-2,0
15670,13,4,3,-2,1,-2,7,-2,0
15675,7,1,-6,-4,0,0,16,2,0
15680,-6,-5,0,-1,-6,-5,-5,-2,0
15685,0,4,4,5,5,5,-8,0,0
15690,2,-2,0,-6,-2,-7,6,-1,0
15695,-2,8,14,7,8,15,-16,2,0
15700,-4,-2,-4,0,2,-11,-11,-3,0
15705,-5,-6,-6,-2,-7,3,-6,-2,0
15710,2,-2,-5,-8,-7,2,2,-3,0
15715,6,6,10,3,3,-1,17,2,0
15720,-1,-5,-11,-5,0,5,13,-2,0
15725,3,5,-1,0,2,10,-15,-3,0
15730,1,-6,-1,-2,-4,-6,-11,-3,0
15735,0,5,8,3,1,0,25,-4,0
15740,-13,-8,-2,-2,2,9,-16,0,0
15745,-3,1,3,2,3,-19,27,4,0
15750,1,3,-2,-1,2,21,10,-2,0
15755,3,4,4,0,-4,-7,-17,-2,0
15760,-4,-8,-7,-5,-9,5,15,-3,0
15765,-2,2,2,-2,3,-6,-19,-3,0
15770,9,2,-3,0,3,-5,-21,1,0
15775,-2,3,9,5,6,8,-3,-2,0
15780,-5,-6,-7,-2,-4,-9,-1,0,0
15785,-10,-10,-7,-11,-9,14,27,-4,0
15790,-2,7,-11,-1,6,2,-4,4,0
15795,4,4,18,0,1,-7,-2,-2,0
15800,-3,-2,-9,-6,-7,7,5,-2,0
15805,6,1,6,1,3,2,-18,1,0
15810,-11,-5,-7,-1,-3,-4,6,0,0
15815,0,1,-10,-1,-5,-1,-8,0,0
15820,5,3,3,-1,-1,-8,-4,-2,0
15825,-5,-2,-4,0,0,6,-10,0,0
15830,-1,0,6,-3,-5,-36,7,-6,0
15835,7,0,-8,-7,-2,34,-24,5,0
15840,3,-2,3,3,6,35,-4,-1,0
15845,-2,4,4,0,1,-1,-5,-2,0
15850,1,-5,-2,0,5,12,3,2,0
15855,5,1,6,3,-8,-31,11,-2,0
15860,-5,-2,-5,-3,5,4,-14,-2,0
15865,-1,2,2,5,7,-21,13,-1,0
15870,2,1,5,5,3,32,-12,-3,0
15875,-7,-6,-8,-2,-5,64,16,-1,0
15880,6,0,-1,4,10,-30,-25,3,0
15885,-5,-6,-3,-1,-8,23,14,1,0
15890,-3,-5,-1,-12,-20,-3,32,-6,0
15895,8,5,3,17,27,-62,-51,9,0
15900,-1,0,-1,-2,-8,5,-9,-3,0
15905,1,-2,0,-4,-1,14,-3,-4,0
15910,-3,-2,-2,-2,-9,-23,0,-1,0
15915,1,0,-2,-2,1,23,7,1,0
15920,-16,-3,1,-1,-1,-17,20,-2,0
15925,19,1,0,3,-6,-52,-34,0,0
15930,-2,-1,-3,-4,0,26,1,-3,0
15935,-2,-2,-4,-7,-6,2,14,-4,0
15940,3,1,-1,-4,-2,1,3,0,0
15945,-5,0,-3,-3,2,-16,-7,-3,0
15950,2,0,1,-5,-2,-11,-6,0,0
15955,5,2,1,0,-15,-84,-18,0,0
15960,1,-2,-2,0,6,23,-5,-1,0
15965,-4,-1,-2,-1,1,31,15,2,0
15970,1,-1,0,1,5,39,-2,0,0
15975,-8,-2,-4,-3,1,-1,8,-5,0
15980,4,1,0,-2,-12,-60,-14,-2,0
15985,-3,0,-1,-5,-4,80,3,-1,0
15990,1,0,2,3,-3,-88,-14,4,0
15995,-2,-5,-5,-6,-3,20,-3,-6,0
16000,2,1,-2,-2,-7,19,-1,-4,0
16005,-2,0,-2,-2,1,-1,-2,-1,0
16010,-1,3,2,3,1,8,3,-1,0
16015,-1,-3,-5,-2,-2,-1,20,-3,0
16020,3,-1,-2,-4,-5,-9,38,1,0
16025,0,0,0,4,1,8,10,4,0
16030,0,0,-2,-3,4,9,-4,0,0
16035,-15,1,4,3,0,-3,-6,-3,0
16040,21,-3,-4,-5,-7,6,-19,2,0
16045,-5,-3,1,-2,-9,-36,15,0,0
16050,-1,-3,0,4,6,-2,-8,2,0
16055,0,-3,-4,-6,-5,34,48,0,0
16060,-14,-3,0,4,3,0,40,-3,0
16065,-3,-4,-3,-2,-2,-19,-8,-1,0
16070,3,-1,2,-1,-6,-7,-42,-7,0
16075,-3,-3,0,0,8,20,-1,6,0
16080,-2,-2,1,2,1,-18,3,-1,0
16085,2,-1,-1,1,2,-5,-2,-5,0
16090,-3,3,1,0,0,22,-1,5,0
16095,2,-1,-1,-5,-9,-15,11,-1,0
16100,-1,0,0,-2,8,28,65,-2,0
16105,2,2,2,4,0,-10,106,-1,0
16110,-4,-2,-2,-1,-2,-19,127,-3,0
16115,0,-3,-1,-2,-9,-7,2,-2,0
16120,-1,-2,-2,0,-5,-12,-49,1,0
16125,-7,-2,-3,-2,0,11,-91,0,0
16130,-1,-3,-2,0,-2,-4,-103,-1,0
16135,-1,1,1,-2,8,9,-78,-1,0
16140,-2,-2,-1,4,-11,-59,-109,0,0
16145,0,-1,3,0,7,-26,-73,-1,0
16150,1,-2,-3,-1,-8,1,-49,-1,0
16155,0,-2,-6,-6,1,2,-26,-4,0
16160,-5,-4,-1,-3,2,17,-21,-2,0
16165,0,-1,-1,-1,1,-11,-7,0,0
16170,-1,0,1,-2,-1,-3,7,-1,0
16175,-1,0,2,1,-3,-9,17,0,0
16180,-2,0,2,3,13,2,51,2,0
16185,1,-1,1,7,3,71,23,0,0
16190,0,-4,-6,-9,-18,-77,8,-4,0
16195,-2,-4,-5,-7,1,7,14,1,0
16200,-2,-2,-5,-6,4,14,-6,-2,0
16205,-4,0,3,3,4,17,-15,-1,0
16210,0,0,-2,3,6,4,-7,3,0
16215,-1,-3,-2,-5,-9,-6,-19,-6,0
16220,1,1,1,1,2,-15,18,2,0
16225,-3,-4,-6,-9,-8,-33,-15,-5,0
16230,-3,-2,0,-1,2,29,19,-6,0
16235,4,2,4,9,7,-3,11,5,0
16240,-3,0,-2,0,3,35,-16,-2,0
16245,0,-2,-2,-2,5,-27,41,-3,0
16250,-3,0,3,0,-12,-12,36,-1,0
16255,0,2,2,4,4,-16,12,-3,0
16260,0,-1,-7,-7,-5,35,6,1,0
16265,-2,-3,-4,-4,3,3,52,6,0
16270,0,2,-1,-3,0,42,19,4,0
16275,1,-1,3,2,0,23,-4,-1,0
16280,-12,-3,0,0,-8,-37,-2,4,0
16285,36,1,1,0,2,67,16,3,0
16290,-2,-4,-5,-1,2,-41,-18,-3,0
16295,-11,-5,-2,0,0,67,-2,-11,0
16300,-2,0,-3,-3,4,45,9,-2,0
16305,-8,-3,-2,0,0,-118,-49,8,0
16310,3,-5,1,-1,-3,-7,18,5,0
16315,0,0,0,-3,5,64,-1,1,0
16320,0,-4,2,1,-10,-85,-24,-11,0
16325,6,0,-4,-4,4,63,-24,-7,0
16330,-41,-8,-3,-6,7,68,-9,-5,0
16335,-21,-10,-11,-13,-19,-19,-21,-22,0
16340,35,1,0,2,5,11,32,15,0
16345,-31,-4,8,6,-4,-19,25,3,0
16350,16,-4,-4,-2,-3,-26,-2,-2,0
16355,16,11,-2,-3,-5,-27,31,6,0
16360,-12,-16,-4,-5,-9,19,11,-8,0
16365,5,3,0,-2,-2,-15,0,-7,0
16370,6,5,1,4,5,11,22,-3,0
16375,16,-6,-7,-5,-9,-46,34,2,0
16380,-6,13,1,-6,-6,13,22,1,0
16385,-20,10,7,-4,-2,-16,-1,-6,0
16390,7,6,5,-2,-4,19,-19,-8,0
16395,23,0,-2,4,5,-14,-8,0,0
16400,-35,-9,0,2,-1,-24,-15,-7,0
16405,6,-5,-8,-8,-13,-7,-24,-2,0
16410,10,2,-6,-1,4,2,-19,-6,0
16415,-57,-11,10,10,8,-37,-16,16,0
16420,8,5,3,2,4,48,-16,-5,0
16425,23,1,-1,2,-1,-11,-14,1,0
16430,-16,1,1,2,-3,-14,-34,0,0
16435,12,-3,-5,-13,-13,33,-15,-9,0
16440,-8,-1,4,12,13,-80,1,3,0
16445,-12,-11,-4,-4,-6,67,33,-4,0
16450,43,23,-1,-2,1,-38,19,9,0
16455,-14,1,-1,-5,-3,8,-15,-5,0
16460,-7,-9,-3,-7,-6,6,-35,-8,0
16465,-26,-12,-5,-1,-7,-12,-74,-15,0
16470,11,11,10,7,3,7,-15,20,0
16475,-2,-3,2,1,3,-17,-24,0,0
16480,28,11,-3,-4,-5,-17,-36,-5,0
16485,-9,1,1,1,3,2,-7,2,0
16490,-16,-9,-3,-2,2,16,-11,-5,0
16495,13,5,0,1,-2,-22,-5,1,0
16500,2,-3,-1,-2,-5,3,-10,-4,0
16505,-36,1,-1,-5,2,31,6,1,0
16510,46,0,-1,8,7,1,26,7,0
16515,-9,-3,-4,-3,-4,7,16,-5,0
16520,24,13,2,-3,-3,21,36,8,0
16525,-12,-2,-3,-8,-6,9,-3,-11,0
16530,-15,-7,1,7,6,6,14,-7,0
16535,0,4,0,4,1,-25,25,2,0
16540,-10,-4,-3,-4,-7,23,19,-2,0
16545,22,2,-2,-1,-3,-17,16,-6,0
16550,-19,-8,-3,-5,-6,-1,-10,-17,0
16555,6,-2,-1,0,1,-7,17,1,0
16560,-23,-6,-5,-11,-5,33,-26,-9,0
16565,21,4,4,11,18,-77,1,18,0
16570,-9,-6,-1,-2,-12,-31,-82,-8,0
16575,-3,-1,3,5,11,58,69,27,0
16580,2,-2,-2,0,-2,-32,-22,1,0
16585,3,4,-5,-5,-9,-2,-33,2,0
16590,-18,-13,-4,-7,-4,18,-7,-2,0
16595,6,1,0,0,-2,-22,-30,-7,0
16600,-17,-5,-2,-3,-2,6,-3,-2,0
16605,58,-15,-7,-3,-6,8,7,8,0
16610,-31,18,3,-2,2,-5,7,-2,0
16615,-14,-3,-2,-5,-4,-24,-28,-4,0
16620,0,-5,-1,-2,0,-13,2,2,0
16625,-16,-4,4,10,20,71,32,4,0
16630,11,-2,-2,3,-5,-31,8,4,0
16635,2,0,-6,-7,-12,-29,-17,-6,0
16640,-3,2,2,8,10,7,2,-1,0
16645,2,5,-1,-6,-11,-6,-8,-4,0
16650,-2,-6,-4,-8,-2,1,7,-2,0
16655,4,13,3,3,4,24,5,-4,0
16660,8,-16,-4,-1,-6,-14,8,0,0
16665,-13,13,-2,-3,-3,-7,5,-3,0
16670,1,-8,-2,0,5,10,29,4,0
16675,-11,-1,-2,0,-6,-15,-13,-7,0
16680,-16,-2,-2,3,6,8,30,5,0
16685,-5,1,8,9,1,-18,25,-3,0
16690,-9,-7,-3,-2,-5,9,41,-2,0
16695,3,-1,-10,-15,-8,-9,32,-3,0
16700,-3,1,-5,-13,-10,19,12,-7,0
16705,3,0,-3,-4,-4,-35,22,-1,0
16710,-9,-1,8,16,25,-3,31,17,0
16715,10,0,10,13,10,4,-24,1,0
16720,9,6,-1,4,-5,0,-21,-1,0
16725,7,-5,-9,-14,-21,-15,-52,-9,0
16730,-23,-14,-6,-11,-8,7,-43,-7,0
16735,-11,-6,-5,1,5,-4,-19,2,0
16740,11,3,10,9,8,-11,-25,-1,0
16745,-7,-4,-5,-5,-9,4,-12,-6,0
16750,9,3,-2,-5,-4,2,-12,-2,0
16755,-9,-6,0,1,16,1,8,-1,0
16760,-3,-1,-4,-9,-22,-13,-6,-6,0
16765,-1,-2,4,6,-13,5,-6,1,0
16770,1,-1,-1,-2,0,-1,-13,0,0
16775,3,-2,-4,-12,-10,-7,-22,-5,0
16780,5,2,1,1,10,-1,9,1,0
16785,-6,-3,1,1,3,-18,-37,-8,0
16790,2,2,0,4,20,61,80,4,0
16795,9,1,3,4,-24,-65,-11,0,0
16800,-1,0,-1,2,17,42,39,3,0
16805,-12,-3,-2,-1,-4,6,4,1,0
16810,-2,-3,-6,-9,-3,1,-29,-14,0
16815,5,2,2,3,7,9,-2,4,0
16820,-3,-5,-3,-4,-13,-2,6,4,0
16825,-2,-2,-2,-1,-5,-15,-7,-5,0
16830,6,3,1,-1,-8,-23,-15,-2,0
16835,10,6,-3,-2,-1,26,-10,-1,0
16840,-13,-15,0,-1,0,13,13,1,0
16845,-3,-1,-2,-4,8,0,8,-6,0
16850,5,1,-1,-6,-16,-42,-2,-2,0
16855,12,-7,1,7,18,43,82,11,0
16860,-15,30,6,5,1,-8,-28,-8,0
16865,12,6,2,1,1,4,40,6,0
16870,-3,-6,-3,0,-4,-2,-20,-2,0
16875,-10,-3,3,3,-6,-12,-11,-5,0
16880,-2,-5,-4,-5,-10,-24,28,-1,0
16885,6,-4,-10,-16,-1,16,67,9,0
16890,-21,7,-1,-3,-8,-10,55,-8,0
16895,2,-2,-1,2,4,4,75,-2,0
16900,10,-1,2,2,7,-7,51,-3,0
16905,-46,-24,-12,6,3,-1,21,-2,0
16910,47,61,27,8,5,19,16,11,0
16915,-32,-12,-1,-3,-5,-11,-78,-11,0
16920,0,-2,1,3,1,-5,-106,1,0
16925,15,2,-1,1,0,-6,-64,4,0
16930,0,-13,-12,-1,1,0,-42,7,0
16935,-5,3,-1,-2,-4,3,-32,-4,0
16940,13,3,-2,-4,-3,-6,-17,0,0
16945,-8,-5,-5,0,0,2,-10,-2,0
16950,-11,-12,-2,4,11,12,-29,-8,0
16955,13,9,7,4,6,-8,-22,2,0
16960,-5,-16,-10,-13,-38,-11,19,-3,0
16965,4,2,-4,-12,-5,-6,19,-1,0
16970,-10,-10,-4,-5,-4,-1,16,-5,0
16975,13,1,1,0,7,5,-27,-4,0
16980,-2,-2,3,10,22,8,-20,2,0
16985,-7,5,5,3,1,-1,-64,2,0
16990,3,-6,-2,-2,-6,-5,-36,-6,0
16995,-13,-6,-7,-1,-1,4,63,-12,0
17000,-1,-3,-3,-2,1,-4,62,-15,0
17005,19,18,4,0,-3,2,13,-1,0
17010,-10,-14,-5,-3,-3,-2,-39,28,0
17015,1,-1,-1,-2,-7,9,-111,5,0
17020,-3,0,-6,-5,-5,-8,-87,0,0
17025,1,-1,3,3,6,4,-67,1,0
17030,3,-2,-3,-3,-3,4,-26,-2,0
17035,6,8,3,0,-1,9,-87,39,0
17040,-3,-3,-1,-1,1,-34,-125,-17,0
17045,4,-3,3,7,12,16,75,0,0
17050,-1,-3,-3,1,0,1,99,-4,0
17055,-6,-7,-5,-8,-11,-7,127,-10,0
17060,1,-2,0,-4,0,-4,127,12,0
17065,4,-3,4,3,0,-18,-31,-11,0
17070,-8,-4,-1,0,-3,4,-6,-13,0
17075,-9,-2,-9,-5,-9,-11,38,-8,0
17080,24,5,1,-3,-2,16,9,5,0
17085,-10,0,-6,-2,3,-8,73,3,0
17090,-1,-5,-4,-2,-5,-7,7,-8,0
17095,-5,-4,-3,-4,-10,-5,23,-9,0
17100,-8,-3,3,7,10,1,-16,-9,0
17105,-2,-4,0,-4,-18,-2,-45,-11,0
17110,2,-4,-5,-8,-6,-12,-65,7,0
17115,3,0,1,2,5,0,-44,4,0
17120,-10,-2,-1,-1,6,1,-28,17,0
17125,13,0,0,-2,-5,-1,-36,8,0
17130,-12,0,-1,-2,2,-4,-29,-15,0
17135,3,0,-3,-4,-13,-7,-11,-4,0
17140,-3,-2,2,6,29,23,-1,-6,0
17145,-7,0,10,11,-3,-2,-7,7,0
17150,6,-2,-8,-9,-18,-3,26,-3,0
17155,0,-3,-4,-2,10,-4,4,-5,0
17160,0,0,1,-4,-18,-3,34,1,0
17165,-4,-4,0,2,18,14,38,-5,0
17170,0,-2,0,-7,-27,-29,20,-11,0
17175,-1,0,4,3,11,11,12,-2,0
17180,-5,-3,-1,1,3,6,-11,6,0
17185,5,-2,-1,-8,1,-10,-4,9,0
17190,-3,-3,-3,-1,-17,-9,26,-9,0
17195,-1,-3,0,-4,10,20,13,-7,0
17200,-2,-1,-2,3,-11,-9,14,-12,0
17205,-6,-2,0,6,22,-2,12,-5,0
17210,-1,0,4,11,14,24,-2,4,0
17215,1,-5,-7,-12,-26,-8,-16,9,0
17220,-2,-3,1,-4,-7,0,22,2,0
17225,-3,-3,-10,-11,-10,0,-14,4,0
17230,4,0,-1,1,10,-10,-24,6,0
17235,-4,0,1,10,13,-1,-11,-6,0
17240,-4,2,-1,2,2,3,1,-2,0
17245,-4,-7,-1,-5,-24,-13,-40,-18,0
17250,-10,0,1,1,15,12,-4,11,0
17255,11,-1,10,6,12,-2,-23,-5,0
17260,28,1,-13,4,-2,-5,8,15,0
17265,-6,-2,-8,-7,-21,-4,-14,-1,0
17270,1,-3,-1,-4,12,-5,-18,1,0
17275,-6,-3,0,-17,-20,-3,-4,-6,0
17280,-11,-2,1,-9,-6,-10,12,-23,0
17285,-7,-3,-2,-6,-15,-2,16,-10,0
17290,1,-7,0,2,0,11,7,16,0
17295,-7,7,0,6,17,-11,22,-7,0
17300,33,6,6,12,34,67,4,32,0
17305,1,2,-2,4,0,-15,-28,7,0
17310,-5,0,5,7,13,-10,-12,-2,0
17315,-8,-8,-6,0,-14,4,-40,-8,0
17320,-14,0,-5,-10,-22,-54,-32,-10,0
17325,-6,-3,8,1,1,26,14,-11,0
17330,-1,-10,-6,-4,-1,-7,13,-15,0
17335,0,19,-9,-2,-7,10,30,-16,0
17340,1,-12,-5,-12,-15,-27,-21,20,0
17345,-11,-5,3,5,12,-2,-15,15,0
17350,7,10,8,0,-12,-7,-42,-10,0
17355,-1,-10,3,11,9,-10,-18,12,0
17360,-23,-3,-4,1,10,7,-34,-33,0
17365,25,-9,-45,-22,-22,-7,-15,42,0
17370,3,-7,21,1,-3,11,19,-20,0
17375,9,21,23,3,2,-12,-28,1,0
17380,-12,1,9,4,3,6,-3,-7,0
17385,16,2,3,9,15,15,13,18,0
17390,-13,-8,-35,-10,-1,0,17,-17,0
17395,-2,-9,-12,-14,-17,-1,25,-2,0
17400,7,8,7,-10,-8,-8,29,2,0
17405,-10,6,-3,-8,-10,10,23,-18,0
17410,14,7,7,14,4,-2,17,12,0
17415,-7,-9,3,7,12,-21,68,12,0
17420,-6,-5,-6,0,0,4,58,-3,0
17425,-9,-1,3,3,9,-2,25,-16,0
17430,-2,1,-2,-3,-5,1,-11,-4,0
17435,-1,-5,2,1,3,6,-33,0,0
17440,-4,-4,-16,-10,-12,-5,-17,-3,0
17445,7,6,8,-4,-7,6,6,1,0
17450,-7,-1,5,0,1,0,0,6,0
17455,-2,-5,-14,-6,1,0,-4,-6,0
17460,-1,2,3,9,18,4,-4,-5,0
17465,-7,-2,9,6,15,0,-8,-7,0
17470,-1,-2,-6,-13,-30,-10,-14,4,0
17475,1,-4,-14,-13,-6,1,-11,5,0
17480,-5,-2,-2,-3,-28,-8,-1,-4,0
17485,-6,0,10,13,25,-3,-11,-12,0
17490,1,-1,-5,8,32,8,-10,1,0
17495,2,0,1,-13,-23,-11,-4,2,0
17500,-3,-3,1,1,-13,10,5,-7,0
17505,0,1,-7,-9,-3,-7,27,5,0
17510,0,-1,3,1,-8,7,-1,4,0
17515,-2,-6,0,16,18,-4,-23,-1,0
17520,2,1,0,-6,4,-2,-21,0,0
17525,-1,3,0,7,6,-2,-12,-6,0
17530,-1,1,1,-1,15,-10,-4,-1,0
17535,1,-2,-3,-11,-33,2,-8,-5,0
17540,-9,-8,-7,-3,2,4,-11,-7,0
17545,3,1,2,0,-1,-15,-3,4,0
17550,-3,-2,-4,-8,-3,-4,-1,2,0
17555,3,-2,0,6,13,3,4,-4,0
17560,1,1,0,0,-6,1,11,0,0
17565,0,-1,4,1,1,3,3,-1,0
17570,-5,-1,-2,5,9,12,2,-12,0
17575,14,3,2,-7,-10,-4,-4,-7,0
17580,8,-3,-9,-7,-13,-6,1,24,0
17585,-4,0,1,5,3,3,-2,6,0
17590,-1,-2,1,7,25,-8,1,3,0
17595,-8,-4,-5,-9,-51,-1,1,-7,0
17600,3,2,-2,1,31,29,5,-7,0
17605,-1,0,4,1,0,0,-1,-5,0
17610,3,-5,-17,-13,-19,-7,-1,-1,0
17615,-14,-2,-1,2,19,4,1,-13,0
17620,-6,0,12,9,8,-15,-7,2,0
17625,20,1,-3,-4,4,12,-1,17,0
17630,1,1,0,-10,-43,-13,5,1,0
17635,-2,-4,-9,-11,-18,-4,-2,1,0
17640,-7,-10,-14,-2,-17,-27,-3,-10,0
17645,-5,4,5,5,19,1,-4,-11,0
17650,1,8,3,3,15,3,-7,-2,0
17655,3,0,-20,1,0,-5,-1,5,0
17660,-2,-1,12,-1,3,7,-2,3,0
17665,-6,-7,5,0,12,4,-5,-11,0
17670,-1,-11,-18,-2,-32,-6,3,0,0
17675,4,9,65,5,10,-10,-2,-8,0
17680,-2,-5,-13,4,19,27,1,2,0
17685,-4,16,14,10,-7,-3,10,0,0
17690,1,-1,0,-11,-10,19,3,-4,0
17695,0,-8,-40,-8,3,-5,16,24,0
17700,4,-5,0,-9,8,-5,-3,-8,0
17705,-10,-12,-12,-10,-34,-8,-13,-7,0
17710,-4,-3,-2,10,28,21,-3,-4,0
17715,0,3,-9,0,8,14,-7,-4,0
17720,0,7,30,10,-5,-16,-7,3,0
17725,-7,-4,-6,-9,1,-5,-9,-10,0
17730,1,-1,-12,2,-6,-2,-2,0,0
17735,-2,-3,9,5,13,0,-6,1,0
17740,-4,-5,-38,-14,-18,11,2,-1,0
17745,-1,3,20,16,25,-6,0,-3,0
17750,1,1,4,-8,-33,-14,0,1,0
17755,-4,-7,-5,-16,-14,-16,-6,-2,0
17760,-2,0,-9,-5,14,16,-5,-7,0
17765,-3,-5,-12,-4,-9,12,5,-2,0
17770,-1,-9,6,8,22,1,-1,-17,0
17775,-9,15,2,9,17,10,5,19,0
17780,3,-1,-3,-1,-14,-19,-2,3,0
17785,0,-7,-16,-14,-27,-8,-8,2,0
17790,-8,0,16,9,18,3,-5,3,0
17795,-1,-2,-6,8,17,12,-5,-15,0
17800,-2,0,6,3,-22,0,4,-5,0
17805,-1,-3,-12,-16,-1,-3,5,-1,0
17810,-6,-5,8,-7,-25,-14,-1,-1,0
17815,1,-8,-25,-3,-1,4,2,-4,0
17820,4,14,46,14,27,23,-2,7,0
17825,-1,-6,-2,10,-5,-19,-10,-7,0
17830,2,4,-2,-6,13,-3,3,5,0
17835,3,-3,-8,-7,-1,8,14,-2,0
17840,-3,-8,-32,-14,-26,-4,16,-6,0
17845,-6,2,14,6,3,5,5,-10,0
17850,5,7,10,-4,-2,-8,-1,7,0
17855,2,3,12,13,5,-5,-4,2,0
17860,-2,-5,-9,-3,15,-3,-7,-10,0
17865,1,-2,-4,-14,-47,-4,-7,15,0
17870,-1,0,-9,3,14,0,-10,0,0
17875,-2,-1,19,10,-3,-3,-7,-1,0
17880,-3,-1,-7,-1,-4,-8,-6,-4,0
17885,10,2,-6,-8,9,-2,-2,-4,0
17890,-14,-1,-3,0,-4,-6,-12,-1,0
17895,5,0,-4,-4,-2,-11,-17,-3,0
17900,-7,-5,-17,2,14,13,-5,-2,0
17905,-7,-3,36,5,-14,-2,-3,-3,0
17910,-23,-6,-16,-14,-14,-12,-2,-1,0
17915,8,-1,-7,-5,4,-5,3,-6,0
17920,0,3,12,2,4,-10,4,2,0
17925,2,-2,-20,5,10,4,10,-2,0
17930,-8,-2,6,-2,-3,8,9,2,0
17935,-8,-8,-9,-10,-12,3,-1,-4,0
17940,7,3,0,4,6,-13,-5,4,0
17945,-9,-6,-8,-9,0,9,-5,-5,0
17950,7,1,8,10,-8,-4,-2,1,0
17955,5,1,-5,-10,-8,6,1,-1,0
17960,3,-1,3,-2,-6,-8,1,1,0
17965,-2,1,2,3,11,-3,1,2,0
17970,8,-2,-7,2,16,16,6,-4,0
17975,1,3,7,12,11,-3,3,2,0
17980,-9,-3,4,-8,-33,0,-2,-6,0
17985,-2,-2,-14,-12,-8,-8,-1,-6,0
17990,10,0,-3,-6,2,-8,-6,3,0
17995,-4,-3,0,8,8,7,4,-1,0
18000,-3,-2,1,-2,-1,-11,0,1,0
18005,0,0,-8,0,-3,2,0,0,0
18010,11,6,3,-2,-8,2,-2,0,0
18015,-16,-9,2,-3,-1,-4,-4,-4,0
18020,1,-3,-3,12,23,0,1,3,0
18025,1,0,1,-3,-11,2,2,-4,0
18030,-2,-5,-4,-12,-17,-10,-2,2,0
18035,0,3,6,4,-14,-11,-5,-3,0
18040,1,-1,-6,-17,-9,-2,0,1,0
18045,-4,-4,-7,3,12,-1,-1,-3,0
18050,-2,-1,12,8,14,5,1,-2,0
18055,11,13,3,3,2,3,9,4,0
18060,-2,-2,2,7,-10,-17,6,-4,0
18065,2,1,-1,-1,20,18,4,-1,0
18070,-1,-1,-7,-8,-24,-37,-5,-1,0
18075,-7,-7,-2,-5,-8,2,-2,-1,0
18080,-2,3,6,7,16,-6,-13,-2,0
18085,-4,3,-1,0,-19,1,-1,0,0
18090,7,-2,-13,-16,-4,5,1,-1,0
18095,-17,-9,0,-1,-1,-6,-4,-2,0
18100,0,2,3,6,7,8,-10,1,0
18105,0,-4,0,6,1,-8,-5,-3,0
18110,-6,-1,2,10,25,6,1,-9,0
18115,12,-1,-4,-7,-29,11,5,11,0
18120,-1,-2,-9,-21,-17,9,2,3,0
18125,-4,0,2,-4,-3,-8,-6,1,0
18130,-7,1,-2,5,6,5,-2,-4,0
18135,2,-4,-30,1,16,12,4,-6,0
18140,3,11,58,18,16,7,8,-1,0
18145,-8,-7,-8,5,-17,-15,-4,-4,0
18150,2,-1,-4,-22,-26,5,2,-4,0
18155,-17,-8,-13,-12,-9,-14,9,-8,0
18160,29,0,-14,2,21,-2,-24,11,0
18165,-11,-1,8,7,13,-10,-9,-14,0
18170,3,3,4,12,5,3,3,28,0
18175,-8,-4,6,3,16,13,-3,-3,0
18180,-7,-7,-14,-20,-45,-8,11,-4,0
18185,5,0,5,4,14,0,-1,-4,0
18190,-3,-7,-6,-3,-5,2,-5,-10,0
18195,2,3,3,-10,-4,6,3,1,0
18200,1,3,10,1,-1,-8,-1,-6,0
18205,-4,-6,-23,-10,8,6,1,2,0
18210,-6,0,0,-2,-25,5,-2,-6,0
18215,11,3,12,2,15,-18,-4,3,0
18220,-9,-3,-8,-1,-3,-2,-4,-5,0
18225,3,0,-5,-11,-11,3,7,6,0
18230,2,-1,5,12,24,-16,-14,-6,0
18235,6,4,7,2,2,7,0,1,0
18240,0,-2,-11,-3,-6,-39,-8,-2,0
18245,3,2,6,3,-2,21,1,5,0
18250,0,-6,-4,-2,-1,4,4,-2,0
18255,1,0,1,-1,-7,8,-6,-5,0
18260,-17,0,-8,-6,-2,6,6,-2,0
18265,11,0,-1,-4,2,5,3,4,0
18270,-10,-5,4,8,5,6,8,-5,0
18275,-4,1,4,4,7,-10,-7,-3,0
18280,-1,-4,-5,1,-4,15,3,-1,0
18285,-13,-6,-4,-7,-4,-22,13,-5,0
18290,7,2,-5,-5,-11,23,-14,2,0
18295,0,5,-4,1,7,-5,-12,-2,0
18300,-2,-1,5,4,-9,-12,3,-12,0
18305,3,4,8,2,9,32,-1,1,0
18310,16,6,2,-3,-4,-28,6,38,0
18315,-13,-8,2,1,0,-6,2,-1,0
18320,-2,4,1,4,1,9,1,-2,0
18325,2,2,-13,-10,-7,-16,-6,-13,0
18330,3,0,-8,-5,2,1,7,-12,0
18335,-18,-9,-15,-1,-6,13,-1,2,0
18340,42,-4,11,-1,0,3,1,3,0
18345,2,4,5,4,-1,-18,-16,0,0
18350,-12,-9,0,-5,0,-20,-8,-7,0
18355,6,16,-3,-7,-13,13,6,-2,0
18360,-11,-6,-7,5,9,16,8,-1,0
18365,1,0,2,-7,3,-15,-1,5,0
18370,3,-6,-28,-3,-17,6,-4,-5,0
18375,-8,-3,36,9,20,-27,1,-5,0
18380,-7,-9,-11,-7,-36,0,-2,1,0
18385,-9,-5,-13,0,4,5,-11,1,0
18390,-16,5,25,5,16,-40,-1,-9,0
18395,-1,-10,-19,-8,-11,38,5,-1,0
18400,-8,0,2,-5,11,1,-3,3,0
18405,1,-4,6,2,-13,-4,3,2,0
18410,5,-2,-14,-6,3,8,3,-7,0
18415,0,0,1,3,2,-14,-6,0,0
18420,-7,0,4,4,11,3,-5,1,0
18425,3,0,-7,-3,-1,-4,7,-2,0
18430,-1,1,-6,-2,-14,9,1,-2,0
18435,12,-1,3,1,-1,-21,-6,3,0
18440,-25,1,-3,0,4,-1,2,-6,0
18445,23,3,3,-4,-2,-1,3,-1,0
18450,-5,-4,8,7,7,-17,-13,1,0
18455,0,-2,-4,0,-2,9,0,1,0
18460,-2,-3,-13,-6,10,-15,-17,-4,0
18465,-15,1,4,4,-8,-2,-3,-9,0
18470,1,2,14,3,2,18,-1,-7,0
18475,2,-1,-7,-5,-14,-12,-5,16,0
18480,4,1,1,6,18,14,8,5,0
18485,-3,-6,-10,-15,-18,-1,-6,-6,0
18490,-6,-1,-3,1,-2,-5,3,-6,0
18495,4,0,-2,0,3,-5,-3,-10,0
18500,-6,-2,1,-5,-11,-6,-2,-1,0
18505,0,-3,-4,-1,17,1,-1,0,0
18510,-9,-1,17,2,-32,5,4,-1,0
18515,4,1,1,5,5,-1,-5,-1,0
18520,3,0,5,-6,-7,-3,5,4,0
18525,-25,-13,-16,-6,-13,-12,-4,-1,0
18530,68,30,0,-1,21,13,7,10,0
18535,-11,-2,4,0,-1,6,2,-6,0
18540,6,-2,2,6,-3,-10,-8,-6,0
18545,3,2,0,4,8,0,-2,4,0
18550,-19,-10,-4,-3,-2,8,1,-2,0
18555,-4,-3,-2,-1,-6,6,4,-2,0
18560,2,7,-7,-3,2,5,2,-2,0
18565,-5,-2,6,4,-7,-7,-1,4,0
18570,-9,-13,-15,-10,-3,-16,-5,-3,0
18575,5,4,1,-4,-5,-14,1,-5,0
18580,-24,-19,-3,0,7,-1,0,2,0
18585,1,7,0,0,-7,2,0,1,0
18590,-5,-4,2,-2,8,5,-5,-5,0
18595,1,-2,-3,4,9,-10,-2,0,0
18600,7,4,-4,-1,-11,-2,-1,0,0
18605,5,1,5,-1,-12,10,2,-1,0
18610,-6,-3,-5,-6,-3,1,-1,-2,0
18615,-3,-3,-4,-4,-7,-7,-3,1,0
18620,-1,1,-3,4,19,14,-2,-1,0
18625,-19,-6,2,-7,-12,-14,-3,-3,0
18630,42,-1,2,-2,-3,9,3,3,0
18635,6,3,2,1,3,-3,-3,-3,0
18640,-8,1,8,4,-2,-1,0,-3,0
18645,6,6,1,6,10,13,3,9,0
18650,-16,2,-1,5,11,-2,1,-2,0
18655,-2,-1,0,-7,-20,-6,-2,7,0
18660,1,-8,-10,-6,-4,11,2,-4,0
18665,2,-4,-2,0,1,-12,-3,-5,0
18670,-11,1,4,5,9,-4,1,-1,0
18675,2,-1,-1,0,8,7,-4,-4,0
18680,-3,1,-12,-10,-27,-19,-2,0,0
18685,2,-4,8,2,8,10,-5,-2,0
18690,-14,-1,0,-2,-8,-5,-5,-5,0
18695,-11,2,13,4,14,0,6,-2,0
18700,12,-3,-10,-5,-2,1,-7,3,0
18705,4,2,2,-1,4,-20,3,0,0
18710,-3,-4,-29,-2,5,5,2,-2,0
18715,-9,1,27,1,-10,-11,-8,-5,0
18720,-7,-6,2,-8,-5,-5,2,-1,0
18725,-8,-2,0,2,2,6,-3,-2,0
18730,-9,0,3,1,-2,-2,-5,-7,0
18735,7,-3,-11,3,10,27,3,-3,0
18740,0,-1,1,-3,-14,-15,0,13,0
18745,4,-5,-5,1,9,-3,1,-4,0
18750,-5,-9,-12,-21,-23,3,1,1,0
18755,7,-4,-7,-5,-4,-24,-9,-6,0
18760,-18,3,11,8,13,11,-5,-10,0
18765,20,-2,0,6,0,-10,-1,4,0
18770,-8,4,6,8,13,3,2,2,0
18775,2,-9,-26,-12,-12,13,9,2,0
18780,-4,1,16,2,5,-6,1,0,0
18785,2,7,0,1,3,11,-12,-1,0
18790,-5,-9,6,3,-3,-8,2,-4,0
18795,5,5,2,4,7,24,-8,5,0
18800,-5,-7,-17,-13,-14,-17,-3,-4,0
18805,-5,-3,-2,-4,-4,8,3,-8,0
18810,8,5,1,-4,-1,-12,-13,3,0
18815,-17,1,4,-1,-3,-4,8,-3,0
18820,4,-1,4,11,9,31,12,3,0
18825,42,4,5,0,-5,-19,-5,4,0
18830,0,-2,-9,2,14,14,2,1,0
18835,-3,-3,-8,-8,-22,0,-3,-3,0
18840,2,2,-3,-1,5,-14,-13,-4,0
18845,-12,-2,-1,-2,-9,-23,6,0,0
18850,-13,-4,4,-1,20,-33,-37,-5,0
18855,9,1,-2,-2,-32,68,40,3,0
18860,3,3,0,2,7,2,3,3,0
18865,-10,-2,-6,-1,-5,3,3,2,0
18870,4,-1,-1,1,6,-20,-7,0,0
18875,-14,-5,-2,-5,-7,-31,-16,-9,0
18880,11,3,0,-3,-3,-3,-1,-1,0
18885,-11,-3,6,-8,0,15,-1,-4,0
18890,2,1,7,1,-14,-2,4,-1,0
18895,1,-3,-6,2,20,-3,-6,5,0
18900,-4,0,-4,3,-3,-7,6,0,0
18905,-8,0,2,-6,-5,-7,-3,-2,0
18910,-7,-3,-3,-2,-11,14,9,2,0
18915,5,-1,8,4,8,-9,-1,1,0
18920,-4,3,-2,-4,8,-5,-7,-4,0
18925,-7,-6,-16,-5,-2,8,-6,-5,0
18930,-3,0,11,-4,-11,9,8,-5,0
18935,-7,3,8,14,20,-13,-6,-2,0
18940,7,-5,-6,-12,-22,6,9,0,0
18945,-3,1,3,-3,3,-3,-3,-1,0
18950,9,-3,-12,-4,1,9,4,0,0
18955,2,2,-7,-7,-6,-9,-13,2,0
18960,-9,-5,7,7,12,4,0,-2,0
18965,-5,-5,-5,4,2,11,3,-4,0
18970,-2,0,2,2,-5,-3,0,2,0
18975,1,-5,-4,-9,1,-7,-1,-1,0
18980,-12,0,-7,-5,-1,-1,-5,-6,0
18985,30,1,0,-1,-3,0,-5,4,0
18990,-3,-2,6,2,-5,-3,0,0,0
18995,8,2,2,1,2,-2,14,3,0
19000,-4,-3,-5,-4,-1,0,1,-7,0
19005,-9,0,1,1,2,1,-3,1,0
19010,-2,2,6,7,13,1,-4,-6,0
19015,-4,-5,-4,4,-1,-6,-5,-2,0
19020,16,5,-7,-11,-14,-2,0,-3,0
19025,-9,-4,-2,-6,2,0,6,6,0
19030,7,0,-7,-8,-17,-1,3,20,0
19035,-7,1,4,6,15,4,-1,-1,0
19040,2,-2,5,9,3,-9,-3,-3,0
19045,-3,-2,-6,-3,-14,-4,-5,-10,0
19050,-4,-1,0,-5,1,6,5,-7,0
19055,-2,-2,-3,-8,-4,-6,-6,-6,0
19060,6,0,1,5,5,1,0,4,0
19065,-9,-1,-1,-1,-3,-5,-7,-9,0
19070,-7,-2,-3,1,5,14,15,0,0
19075,7,1,-1,-2,-5,-11,-7,-11,0
19080,11,0,-1,4,9,0,-5,12,0
19085,-6,1,7,13,7,3,7,3,0
19090,-1,-2,-4,-3,-8,-8,-12,8,0
19095,-4,-3,-4,-13,-9,8,1,-4,0
19100,-6,-5,-15,-16,-44,-5,6,-6,0
19105,-2,1,2,0,6,-3,-7,-3,0
19110,-2,2,5,5,13,4,-1,-14,0
19115,6,-2,-2,5,16,-3,-2,10,0
19120,0,-1,2,2,2,1,-14,-3,0
19125,0,-4,-4,-5,-15,0,5,4,0
19130,-5,0,2,0,7,-1,-5,-13,0
19135,-8,-10,0,7,-7,4,-14,-5,0
19140,13,14,-4,-8,-2,1,13,10,0
19145,0,-7,-2,-2,3,1,-6,5,0
19150,2,0,-5,-1,-1,1,4,14,0
19155,-1,-3,0,2,4,-7,1,-5,0
19160,-7,2,2,6,6,-1,-5,-14,0
19165,-2,-5,-5,-3,13,4,22,-6,0
19170,7,3,-3,-14,-37,-4,37,17,0
19175,0,4,5,4,0,-2,4,4,0
19180,-2,-5,-1,3,5,0,-10,-4,0
19185,0,2,1,5,11,1,7,4,0
19190,-5,-6,0,1,14,1,-17,-9,0
19195,1,1,-6,-12,-29,-8,4,2,0
19200,-4,-4,2,-4,8,0,-4,1,0
19205,-1,0,1,3,-1,3,-5,-1,0
19210,-18,-1,-1,2,4,2,-13,-7,0
19215,19,1,-8,-9,-4,-4,11,4,0
19220,3,-1,0,-1,3,-1,1,0,0
19225,-17,-4,0,-4,-8,-6,-21,-4,0
19230,-1,0,0,4,7,7,15,-3,0
19235,0,4,2,-2,-6,-5,-1,6,0
19240,-2,-4,-3,-1,-2,0,-20,-8,0
19245,5,4,0,-2,-3,11,35,14,0
19250,6,-1,0,1,0,-3,-4,-1,0
19255,-10,-4,-5,-2,6,-2,-10,-8,0
19260,2,-1,0,0,1,-6,-17,0,0
19265,-1,2,4,-3,-7,-12,-5,-2,0
19270,1,-2,-2,1,2,1,-14,-4,0
19275,2,-4,-6,-1,-1,-2,3,-1,0
19280,-11,-1,-1,-2,-4,-1,-6,-1,0
19285,-23,-2,-5,-2,-1,-7,-4,-10,0
19290,51,3,0,1,3,-1,3,10,0
19295,-11,0,-1,-3,-4,-3,-9,-8,0
19300,0,-3,1,3,3,-1,13,8,0
19305,5,0,-2,-5,-3,2,-3,-4,0
19310,-10,-1,0,-3,-9,-4,-4,-3,0
19315,-1,0,-2,0,3,-10,-1,7,0
19320,-2,-4,-1,-3,-9,10,10,-2,0
19325,8,1,1,1,8,-2,-4,-2,0
19330,-21,-2,0,3,-2,3,-21,-8,0
19335,4,-1,-1,1,15,0,-8,-4,0
19340,-9,-1,-5,-6,-22,-2,0,1,0
19345,5,1,-2,-6,-12,-6,-4,-2,0
19350,-3,-3,1,0,1,0,1,-1,0
19355,0,1,1,3,11,1,-5,-4,0
19360,-30,-10,1,2,-2,0,4,-14,0
19365,27,1,-6,-5,-8,-4,-11,6,0
19370,-2,-1,-1,-4,1,-3,9,-2,0
19375,-2,1,3,3,7,7,10,-6,0
19380,17,2,4,4,7,-1,7,33,0
19385,-11,-1,-3,-1,-9,-3,-4,-4,0
19390,-8,7,-1,-6,-3,-8,-7,-6,0
19395,0,-8,-5,1,5,-1,-11,-9,0
19400,-10,-10,-2,0,7,-2,10,-13,0
19405,-5,-8,-1,-3,-18,-2,-13,-2,0
19410,6,-2,-3,-2,-4,8,0,5,0
19415,-9,-8,-56,-17,-9,-21,0,-6,0
19420,11,11,56,8,5,0,-8,-1,0
19425,-5,1,2,8,19,6,7,1,0
19430,7,-3,5,0,-6,-1,3,-13,0
19435,4,4,6,0,-1,0,1,33,0
19440,-3,-7,-24,-3,4,-1,1,-8,0
19445,0,-2,1,-3,-3,-3,0,-3,0
19450,-6,4,3,3,9,0,-4,-5,0
19455,4,1,5,4,0,8,3,-4,0
19460,2,-6,-36,-11,-7,-6,-1,-2,0
19465,-2,-1,-15,-6,1,4,3,0,0
19470,-1,-2,41,4,-17,-6,-2,-1,0
19475,0,-2,3,-2,-4,3,-2,-9,0
19480,-13,-13,6,2,2,-5,-1,2,0
19485,7,18,-9,8,20,12,-2,4,0
19490,-5,7,-14,-5,4,-8,1,3,0
19495,1,0,4,-9,-30,-4,6,2,0
19500,-5,-1,-11,-9,-8,-9,-5,-16,0
19505,-5,-13,0,-2,2,20,5,1,0
19510,-2,3,-3,8,16,2,-3,3,0
19515,-14,-3,14,0,0,4,1,-6,0
19520,21,4,-8,2,1,3,3,1,0
19525,-4,3,5,-2,9,-8,-1,1,0
19530,1,-7,-6,-5,-18,-2,-2,-1,0
19535,-3,-5,-6,-4,-3,0,-6,1,0
19540,0,4,-2,-2,2,0,1,-3,0
19545,5,4,11,6,3,-5,-6,-4,0
19550,-10,-7,-14,-9,-13,-6,-1,-4,0
19555,-4,-1,2,-2,-1,-5,-8,-7,0
19560,4,7,3,3,13,15,39,0,0
19565,2,-8,7,0,-3,-3,-3,7,0
19570,-3,-8,-25,-3,-1,-1,-5,1,0
19575,1,5,31,7,-2,-2,-8,-6,0
19580,-1,0,1,-7,-9,-6,-18,-11,0
19585,-5,1,-6,-3,-1,10,-2,0,0
19590,3,5,0,-2,2,-12,3,-1,0
19595,4,2,0,12,13,9,5,23,0
19600,0,3,6,5,10,-6,-6,2,0
19605,-4,-4,-6,-16,-33,-15,0,-10,0
19610,-3,-3,-7,-5,11,-10,-26,-11,0
19615,-2,-1,-5,-8,-20,-1,12,-10,0
19620,0,-2,1,2,8,6,10,11,0
19625,-4,-2,-8,5,3,-2,2,-7,0
19630,-5,-12,-53,-8,16,6,2,2,0
19635,8,20,83,19,-8,-3,-6,-2,0
19640,-5,-3,-9,-6,-8,-4,-14,-1,0
19645,-16,-8,13,2,-2,-6,-2,-3,0
19650,10,0,-2,-1,-4,6,7,4,0
19655,-11,-4,-28,-7,2,-4,-21,-8,0
19660,12,-2,-4,0,3,10,12,7,0
19665,-6,2,1,3,1,-4,10,-8,0
19670,-6,-7,-4,0,-4,-1,3,-2,0
19675,-3,-7,-12,-5,4,-6,9,2,0
19680,1,9,35,14,3,22,-11,5,0
19685,-3,-6,-20,-10,4,-7,-8,-4,0
19690,-3,0,13,-6,-25,-13,2,2,0
19695,-4,-5,-18,-6,8,3,-5,-8,0
19700,-11,-8,-20,-8,-4,-15,-10,-6,0
19705,13,2,-8,5,9,2,0,6,0
19710,-9,2,42,7,0,-2,-4,-7,0
19715,1,-3,-14,-2,4,16,53,11,0
19720,1,1,0,-1,4,11,4,-1,0
19725,-7,-2,-7,-3,-6,-4,-5,-3,0
19730,3,4,-3,-1,-3,0,-9,-8,0
19735,0,-8,-12,-2,3,-14,-15,-4,0
19740,2,2,1,-2,-2,-12,-3,-1,0
19745,-2,-1,7,7,4,21,12,8,0
19750,-10,-8,-4,-2,-10,-2,-2,-3,0
19755,27,15,0,-5,-4,-2,-6,0,0
19760,-17,-7,-15,-4,-1,-13,-11,-5,0
19765,11,-9,-16,-5,-13,-10,-7,1,0
19770,1,2,0,0,15,12,13,3,0
19775,-24,-3,4,0,-11,-3,-6,-5,0
19780,27,4,18,-5,-8,-14,-17,-1,0
19785,2,-4,-7,3,2,13,6,4,0
19790,0,3,2,4,5,-7,1,2,0
19795,-1,-11,7,0,-6,-4,-2,-4,0
19800,2,8,-6,2,5,8,-5,1,0
19805,-3,-4,8,-2,1,-7,-7,-6,0
19810,3,1,-4,-1,-7,5,-3,2,0
19815,-9,-4,-11,-2,6,-4,-6,0,0
19820,-7,2,2,3,-1,-11,3,-2,0
19825,1,5,7,1,0,-2,0,-2,0
19830,-1,1,3,5,17,0,8,1,0
19835,1,-2,-5,-3,-19,2,-1,-2,0
19840,-7,-8,-13,-18,-14,-9,-2,-2,0
19845,3,0,-1,-18,-21,-5,-1,-4,0
19850,-3,1,4,-4,-5,2,-6,3,0
19855,0,-3,12,11,23,-2,-11,-4,0
19860,-3,-7,-14,6,-2,13,12,-2,0
19865,-3,4,6,3,10,-5,-4,-3,0
19870,2,1,4,-2,-5,-3,3,0,0
19875,-3,-1,-7,-3,-2,15,-6,-2,0
19880,-4,-1,1,1,1,-8,-3,0,0
19885,-2,-1,4,0,0,-3,0,-4,0
19890,0,-5,-4,0,-1,5,5,0,0
19895,4,3,-4,-2,2,-6,2,0,0
19900,-5,-4,-2,-3,-3,-1,-2,-4,0
19905,-3,-3,-4,2,3,4,0,-2,0
19910,2,0,2,3,12,-2,-3,1,0
19915,-2,-2,-8,-10,-21,-5,1,-1,0
19920,-2,-1,5,-5,-8,-3,-1,-1,0
19925,-1,2,-8,-7,-16,-14,-10,-1,0
19930,1,-5,-3,1,5,7,-9,-2,0
19935,-3,1,3,7,15,1,-1,0,0
19940,0,-1,-2,-5,-2,3,0,1,0
19945,-1,-2,4,-1,-6,-15,2,-1,0
19950,-2,0,-2,1,-2,0,-2,-2,0
19955,-2,0,-5,-4,5,-2,3,0,0
19960,-22,-2,8,4,9,-2,1,-3,0
19965,37,3,-7,-5,-10,4,0,3,0
19970,-4,-2,1,1,5,-2,0,-2,0
19975,-2,-6,0,3,0,-1,-1,1,0
19980,-1,5,-2,-6,-10,2,-2,-1,0
19985,-13,-2,-7,-2,7,0,-5,-4,0
19990,2,1,1,0,0,-9,5,-2,0
19995,1,-5,-5,1,2,14,-7,-4,0
20000,3,-2,-1,0,3,16,1,0,0
20005,-10,1,2,-1,-9,-21,-2,-3,0
20010,5,-7,3,3,0,8,-9,1,0
20015,-15,5,-1,7,11,-7,-3,-1,0
20020,42,2,2,-2,-1,1,-13,1,0
20025,-12,-3,-2,-6,-19,0,-15,-4,0
20030,-6,3,-7,-13,-23,-14,-12,-4,0
20035,4,4,1,-3,6,6,5,2,0
20040,-16,-6,-4,4,0,-5,-5,-1,0
20045,-5,1,9,13,26,13,-3,-1,0
20050,10,0,0,4,4,-10,3,-1,0
20055,-4,-8,-8,-14,-29,-9,-19,1,0
20060,-7,5,-10,-2,-2,-8,-1,-1,0
20065,1,0,1,-1,2,3,-4,-3,0
20070,-14,-6,-6,2,8,11,6,-2,0
20075,6,5,2,2,6,-12,9,-1,0
20080,-22,-5,-10,2,-3,-3,10,-2,0
20085,10,-5,0,-2,6,-6,3,3,0
20090,-8,8,2,-5,-22,-8,-6,-9,0
20095,28,-1,-7,-2,-2,4,-13,-3,0
20100,-26,-6,8,4,7,22,-9,-6,0
20105,-11,-1,2,12,20,8,9,1,0
20110,4,-6,-5,-8,-4,-3,-6,3,0
20115,11,-9,-5,-13,-36,3,11,1,0
20120,-19,18,-8,-8,0,-9,40,-1,0
20125,23,-5,9,-5,-1,0,14,6,0
20130,-6,-1,5,4,13,3,14,4,0
20135,-10,-5,1,6,9,-5,35,10,0
20140,19,-3,-1,0,-2,-2,16,27,0
20145,-14,1,-1,-3,-5,1,35,-17,0
20150,-4,3,-1,-1,-1,-16,-3,2,0
20155,-11,0,-2,2,3,-5,-1,0,0
20160,21,-5,2,-1,-3,-9,-2,17,0
20165,-9,1,-3,-7,-10,-5,-28,2,0
20170,11,-5,0,3,5,6,43,7,0
20175,-8,1,4,5,14,32,14,8,0
20180,-15,-4,0,1,-3,-6,-13,-17,0
20185,6,-2,1,2,-5,5,2,-3,0
20190,-2,-1,-6,-5,-8,-17,7,-17,0
20195,1,-1,-3,-1,1,-6,13,-10,0
20200,-7,-3,2,0,-3,-3,-3,-13,0
20205,-4,0,-4,-1,-6,-10,-16,-7,0
20210,-4,-2,-4,-4,-5,5,-22,0,0
20215,22,3,3,-1,4,-7,-20,-4,0
20220,-34,-24,1,-4,-11,-26,-58,-28,0
20225,38,17,-1,4,5,17,58,23,0
20230,-9,-12,1,3,4,12,-2,12,0
