Timestamp, Rotation x, Rotation y, Rotation z, Marker
20,53.6875,0.875,34.125,0
50,63,-7.875,33.25,0
70,36.875,-30.25,23.9375,0
90,28.9375,-37.375,5.1875,0
110,30,-42.3125,-4.625,0
130,34.125,-49.3125,-5.8125,0
130,26.25,-35.3125,-1.125,0
170,30.625,-18.625,-22.625,0
190,34.125,-15,-30.1875,0
210,22.5,-10.3125,-38.3125,0
230,25.875,-5.625,-49.8125,0
250,28.3125,-4.375,-55,0
270,16,-0.875,-57.3125,0
290,7.0625,9.25,-58.875,0
310,-1.125,25.1875,-54.1875,0
330,10.9375,39.625,-45.375,0
350,18,52.5,-39,0
370,13.625,59,-43.875,0
390,6.4375,60.3125,-55.875,0
410,15.1875,53.5625,-70.0625,0
430,17.125,44.5,-87.25,0
450,3.875,37.6875,-103.688,0
470,-2.1875,33.375,-120.5,0
490,-0.375,22.5625,-131.125,0
510,8.625,11.8125,-142.938,0
530,18.0625,1.3125,-152.5,0
550,25.3125,-1.8125,-154.125,0
570,29.125,-9.5,-162.188,0
590,29.125,-21.875,-169.75,0
610,29.625,-35,-160.812,0
630,46.1875,-49.375,-155.125,0
650,46.4375,-58.1875,-148.688,0
670,35.4375,-73.6875,-134.75,0
690,20.6875,-67.3125,-126.812,0
710,19,-68.875,-120.938,0
730,20.3125,-75.4375,-102.938,0
750,14.625,-75.75,-87.1875,0
770,15.375,-63.75,-78.375,0
790,-3.0625,-58.375,-70.75,0
810,-14.1875,-48.3125,-64.375,0
820,-12.75,-45.625,-49.0625,0
840,-13.6875,-35.75,-42,0
860,-15.625,-27.625,-39.5625,0
880,-20.0625,-25,-34.1875,0
900,-22.625,-25.25,-30,0
920,-24.6875,-14.3125,-19.9375,0
940,-16.4375,-6.625,-15.875,0
960,-12.3125,-10,-20.9375,0
970,-15.875,-22.3125,-27.25,0
990,-15.1875,-32.1875,-27.875,0
1010,-20.375,-25.8125,-21.75,0
1030,-25.625,-18.75,-18,0
1050,-22.75,-21.75,-14.25,0
1070,-15.8125,-26.375,-7.9375,0
1090,-10.625,-27.75,-3.25,0
1110,-7.8125,-28.25,1.125,0
1130,-0.5,-27.6875,3.625,0
1150,1.75,-23.25,11.3125,0
1170,5.8125,-18.25,19.875,0
1190,19.4375,-12,17.375,0
1210,23.4375,-11.0625,20.75,0
1230,21.125,-10.4375,20.0625,0
1250,29.875,1.125,17.125,0
1270,25.5,-3.6875,21.875,0
1290,32.0625,-2.875,23.375,0
1310,32.5,-5.375,32,0
1320,28.3125,-6.4375,35.6875,0
1340,40.5,-4.5,31.875,0
1360,46.5625,-7.9375,36.375,0
1380,51.8125,-5.8125,43.5,0
1400,55.8125,-2.5,44.125,0
1420,55.3125,6.9375,48.375,0
1440,71,11.625,45.75,0
1460,76.1875,17.3125,47,0
1480,78.5,19.9375,52.6875,0
1500,85.875,22.25,54.875,0
1520,92.125,27.3125,51.875,0
1540,92.5625,31.125,49.9375,0
1560,102.875,29.9375,49.125,0
1580,98.5625,35,55.9375,0
1600,101.25,46.5,57.25,0
1620,113.938,55.8125,60.75,0
1640,116,64.5,66.1875,0
1660,101.25,73.5,64.6875,0
1680,94.625,81.3125,64.75,0
1700,92.6875,102.375,76.5,0
1720,89.625,121.625,80.625,0
1740,94.6875,118.625,69.9375,0
1760,79.625,115.938,70.9375,0
1780,80.9375,94.875,63.1875,0
1800,80.6875,62.5,53.375,0
1820,84.5,34.3125,30.75,0
1840,95.3125,22.3125,6.3125,0
1860,95.0625,8.875,-8.5,0
1880,96.5625,-0.1875,-14.125,0
1900,88.625,0.1875,-24.4375,0
1920,86.25,11.8125,-29.625,0
1940,97.6875,21.6875,-23.75,0
1960,81.6875,27.0625,-25.375,0
1980,71.1875,20.875,-8.1875,0
2020,67.5,18.125,38.0625,0
2040,67.875,22.75,38.0625,0
2060,51.125,43.625,44,0
2080,95.0625,40.375,47.625,0
2100,91.4375,59.5,52.75,0
2120,48.75,73.4375,83.875,0
2140,30.1875,92.25,70.375,0
2160,42.75,82.4375,17.25,0
2180,91.875,53.75,41.3125,0
2200,81.4375,44.375,83.4375,0
2220,54.4375,31.25,48.8125,0
2240,25.8125,18.1875,39.75,0
2260,30.1875,18.3125,51.8125,0
2280,15.5,6.125,33.5,0
2300,23.4375,-22.1875,39.5,0
2320,25.25,-41.1875,41.1875,0
2340,15,-45,29.625,0
2360,-2.9375,-61.375,43.25,0
2380,-1.1875,-70.125,34.625,0
2400,-10.6875,-66.625,2.4375,0
2420,-0.875,-67.5,-4.4375,0
2440,9.3125,-69.375,17.4375,0
2460,1.0625,-61.875,14.875,0
2480,10.5625,-54.75,15.25,0
2500,-4.0625,-57.9375,17.1875,0
2520,9.3125,-52.375,8.4375,0
2540,0.875,-36.25,-9,0
2560,0.1875,-36.4375,1.8125,0
2580,3.6875,-46.75,15.5,0
2600,12.125,-60,7.5625,0
2620,19.3125,-44.25,10.5,0
2640,10.625,-22.9375,-3.875,0
2660,18.8125,-13.9375,30,0
2680,52.6875,-3,40.8125,0
2700,67.375,25.75,26.25,0
2720,53.8125,37.0625,29.3125,0
2740,36.25,35.8125,37.5,0
2760,41.9375,44.4375,23.4375,0
2780,59.625,65.125,13.25,0
2800,62.5,75.625,13.1875,0
2820,56.9375,87.5,4.4375,0
2840,71.25,93.8125,-12.8125,0
2860,64.75,104.688,-20.9375,0
2880,49.375,123.688,-23.6875,0
2900,61,126.688,-33,0
2920,77.375,124.625,-46.3125,0
2940,82.875,126.875,-62.9375,0
2960,80.9375,126,-73.375,0
2980,70.875,123.5,-70.4375,0
3000,49.375,127.5,-66.6875,0
3020,46,135.625,-56.1875,0
3040,43.1875,146.688,-45.0625,0
3060,41.5625,153.5,-37.25,0
3080,50.625,153.688,-35.8125,0
3100,55,151.062,-40.875,0
3120,30.4375,105,-35.75,0
3140,26.0625,39.75,-85.6875,0
3160,20.1875,-18.8125,-130.875,0
3200,89.125,-26.0625,-73.875,0
3210,95.0625,12.5625,-68.125,0
3240,-6.0625,47.25,1.8125,0
3260,-97,14.8125,22.8125,0
3280,-92.9375,-20.3125,0.375,0
3300,-57.8125,-22,21.6875,0
3310,-12.75,-18.625,22.25,0
3330,19.8125,-19.5625,5.125,0
3350,24.375,-21.5625,-1.375,0
3380,12.875,-4.25,-2.6875,0
3400,4.25,-2.4375,-5.75,0
3420,-0.8125,-3.3125,-7.25,0
3440,-0.875,-4.5625,-4.375,0
3460,-1.9375,-3.3125,-2.5625,0
3480,-0.3125,-0.1875,-0.125,0
3500,-4.5,1.875,1.9375,0
3520,-4.25,1.8125,0.6875,0
3540,-2.625,0.75,-0.625,0
3560,0,0.875,-2.3125,0
3580,1.375,0.4375,-3.375,0
3600,1.75,0.375,-5.3125,0
3620,2.875,-0.625,-6.9375,0
3640,0,-0.5,-6.25,0
3660,-2.5625,0.625,-5.625,0
3680,-2.5625,-0.5625,-4.8125,0
3700,-3.4375,-1.3125,-3.4375,0
3720,-3.1875,1.1875,-2.5,0
3740,-0.625,2.25,-1.9375,0
3760,-3.8125,3.9375,-0.625,0
3780,-2.3125,5.0625,1.6875,0
3800,-5.5625,7.125,5.1875,0
3820,-6.625,8.8125,7.5,0
3840,-12.3125,5.9375,9.5625,0
3860,-9.1875,5.1875,10.0625,0
3880,-8.6875,4.875,9.0625,0
3900,-5.8125,6.0625,7,0
3920,-5.375,8.625,4.6875,0
3950,-3.9375,6.625,4.875,0
3970,-4.25,3.0625,5.4375,0
3990,-8.6875,3.4375,1.625,0
4010,-3.75,3.5,-1,0
4030,-3.625,5.125,-0.125,0
4050,-3.75,5.875,-0.0625,0
4070,-6,5.375,-1.25,0
4090,-3.9375,2,1.75,0
4110,-8.8125,0.9375,3.0625,0
4130,-8.4375,0.25,1.6875,0
4150,-3.125,-0.3125,1.75,0
4170,-1.75,2,2.25,0
4190,0.3125,1.8125,0.4375,0
4210,-2,-0.625,-3.8125,0
4230,-0.125,-0.4375,-5.375,0
4250,3.1875,-0.5,-6.5,0
4270,3.5625,-0.5625,-6.8125,0
4290,1.5625,0.125,-6.375,0
4310,0.875,0.9375,-7.875,0
4330,3.875,2.5625,-10,0
4350,5.1875,2.9375,-7.9375,0
4370,4.0625,3.75,-6.625,0
4390,3,2.375,-5.8125,0
4410,3.125,2.125,-3.4375,0
4430,1.875,1.6875,-4.1875,0
4450,1.75,-1.5625,0.5,0
4470,-2.5625,-1.25,2.125,0
4490,-3.4375,-2.375,2.5,0
4510,-4.1875,-3.0625,2.6875,0
4530,-3.875,-2.75,2.5,0
4550,-3.25,-1.5625,0.25,0
4570,-1.6875,-1,-1.5625,0
4590,-1.5,-0.9375,-2,0
4610,-2,-1.3125,-0.6875,0
4630,-4,-1.5625,1.375,0
4650,-1.9375,-1.3125,0.25,0
4670,-2.9375,-1.125,-1.25,0
4690,-0.8125,-0.9375,-1.0625,0
4710,-1.75,-1.25,1.1875,0
4730,-3.4375,-0.6875,1.8125,0
4750,-2.625,-1.1875,1.875,0
4770,-2.375,-1.125,3.5,0
4790,-3.4375,-3.3125,4.6875,0
4810,-5.8125,-3.3125,7.375,0
4830,-7.9375,-1.875,5.1875,0
4850,-4.8125,-2.6875,3.5625,0
4870,-4.4375,-3.3125,4.375,0
4890,-3.9375,-2.125,4.5,0
4910,-0.875,-1.9375,1.5,0
4930,1.8125,-2,-1.875,0
4950,2.5625,-2.8125,-4.9375,0
4970,2.375,-1.9375,-5.6875,0
4990,3.9375,-1.9375,-5.625,0
5010,5.1875,-1.75,-6,0
5030,5,-2.4375,-5.6875,0
5050,2.8125,-1.5625,-3.375,0
5070,-1.5,0.0625,-0.6875,0
5090,-2.3125,2.375,-0.5,0
5110,-1.125,2.125,1.9375,0
5130,-3.1875,2.625,3.125,0
5150,-3,2.375,2,0
5170,-0.375,1,1.0625,0
5190,1.125,-1.3125,-0.0625,0
5210,2.5625,-1.1875,-1.0625,0
5230,3.125,-1.1875,-2.6875,0
5250,3.8125,-2.0625,-2.875,0
5270,3.625,-1.3125,-0.75,0
5290,2.4375,1.6875,-0.875,0
5310,1.125,1.625,-1.3125,0
5330,0.9375,-0.875,0.875,0
5350,0.5,0.125,2.9375,0
5370,-0.5,1.75,1.0625,0
5390,0.375,1.6875,2.625,0
5410,-1.5625,1.9375,2.9375,0
5430,-1.4375,1.875,3.5,0
5450,-3.8125,1.875,3.375,0
5470,-2.6875,1,2.3125,0
5490,-3.0625,0.0625,3.4375,0
5510,-2.75,0.5,1.5625,0
5530,-2.1875,0.0625,-0.125,0
5550,-1.4375,0.6875,-1.1875,0
5570,-1.0625,1.0625,-0.9375,0
5590,-1.5625,1.4375,-1.125,0
5610,-1.625,1.625,-1.375,0
5630,-2.5,1.5,0.1875,0
5650,-3.3125,2.75,-0.125,0
5670,-3.6875,2.25,1,0
5690,-3.1875,2.25,1.625,0
5710,-3.9375,2.1875,-0.5625,0
5730,-2.5625,1.1875,0.625,0
5750,-2.125,1.5,0.5,0
5770,-2.4375,0.8125,0.5625,0
5790,-2.125,1.0625,0.0625,0
5810,-1.375,0.875,-0.5,0
5830,-2.375,1.1875,-0.5625,0
5850,-4.375,1.375,0.4375,0
5870,-3.625,3,0.25,0
5890,-2.875,3.1875,0.8125,0
5910,-4.1875,2.8125,0.875,0
5930,-6.3125,2.9375,1.25,0
5950,-6.875,4.875,-0.1875,0
5970,-4.625,6.125,-2.5,0
5990,-3.8125,5.3125,-3.0625,0
6010,-4.6875,4.1875,-4,0
6030,-2.75,2.5625,-3.9375,0
6050,-2.5,2.9375,-2.3125,0
6070,-2.8125,2.25,-1.6875,0
6090,-1.5,0.875,1.375,0
6110,-2.4375,1.125,1.125,0
6130,-1.1875,0.3125,-0.125,0
6150,-0.25,-0.1875,-0.625,0
6170,-0.5,-0.25,-1.625,0
6190,-1.25,0.5625,-2.5625,0
6210,-1.75,0.0625,-2.0625,0
6230,-2.75,-0.625,0.5,0
6250,-3.5625,-0.1875,1.1875,0
6270,-4.1875,-0.625,1.8125,0
6290,-4,-0.375,2,0
6310,-2.5,0.375,1.8125,0
6330,-0.9375,0.25,1.5625,0
6350,0.375,0.0625,0.1875,0
6370,0.75,-1.0625,-0.5,0
6390,0.8125,-1.25,-0.625,0
6410,0.5,-0.9375,0.1875,0
6430,0.5625,-0.5625,0.375,0
6450,0.25,-0.5625,0.0625,0
6470,0.125,-0.25,0.125,0
6490,0.75,-0.375,0.4375,0
6510,0.625,-0.3125,1.875,0
6530,-0.375,-0.0625,2.4375,0
6550,-0.75,-0.6875,2.1875,0
6570,0,-0.5,1.5,0
6590,0.625,-0.375,0.5625,0
6610,1.125,-0.625,0.4375,0
6630,0.8125,-0.625,-0.125,0
6650,0.75,-0.9375,-1.0625,0
6670,1.375,-0.625,-1.125,0
6690,0.875,-0.25,-0.5,0
6710,0.4375,-0.125,-0.4375,0
6730,0.4375,0.4375,-0.4375,0
6740,0.375,0.3125,-0.5,0
6760,0.8125,0.3125,-0.3125,0
6780,0.625,0.25,0.0625,0
6800,0.6875,0,-0.375,0
6820,0.5625,-0.5,-0.625,0
6840,0.4375,-0.5625,0.375,0
6860,0.5625,-1,1,0
6880,2.4375,-1.3125,4.6875,0
6900,1.0625,0.0625,5.9375,0
6920,-5.125,0.0625,-1.8125,0
6940,-2.875,-1.9375,-2.5,0
6960,-1.25,6.9375,-12.6875,0
6980,3.75,8.625,-16.125,0
7000,5.25,7.0625,-4.375,0
7020,3.5625,9.4375,-4.375,0
7040,-0.125,3.375,-8.25,0
7060,-0.875,-3.3125,-6.0625,0
7080,4.5,-4.125,-1.8125,0
7100,5.8125,-5.125,3.6875,0
7120,4.5,-6.375,5.1875,0
7140,6.5625,-6.5,6.125,0
7160,7,-4.9375,8.0625,0
7180,4.9375,-3.625,7.9375,0
7200,3.9375,-4.375,6.3125,0
7220,3.25,-4.9375,1.5,0
7240,3.9375,-4.6875,-3.125,0
7260,2.4375,-2.9375,-4.1875,0
7280,-1.0625,-0.625,-3.25,0
7300,-5.125,1.6875,-0.8125,0
7320,-8.4375,3.4375,1.1875,0
7340,-11.25,5.4375,2.8125,0
7360,-12.5625,7.3125,3.5625,0
7380,-13.875,8.625,2.4375,0
7400,-12.0625,8.5625,0.9375,0
7420,-8.0625,8.6875,-1.25,0
7440,-5.5,7.9375,-2.5,0
7460,-4,7.3125,-3,0
7480,-1.9375,5.5,-3.9375,0
7500,0.5,4.125,-3.875,0
7510,0.5,3.625,-2.875,0
7550,-3.5625,5.375,-0.375,0
7570,-9,6.4375,2.25,0
7590,-12.875,6.8125,3.5,0
7610,-14.3125,8.0625,4.4375,0
7630,-14.25,8.5625,4.5,0
7650,-13.25,7.1875,4.25,0
7670,-12.625,6.4375,3.8125,0
7690,-11.1875,5.4375,0.875,0
7710,-8.0625,4.625,-0.5,0
7730,-3.625,3.5,-1.625,0
7750,-2.4375,3.5,-3.3125,0
7770,-2.75,4.25,-6.9375,0
7790,3.5,5.1875,-13,0
7810,5.8125,6.5,-13.5,0
7830,3.5625,9.25,-14.5625,0
7850,3.5,12.5,-17.125,0
7870,7.375,16.1875,-21.0625,0
7890,5.0625,20.6875,-22.0625,0
7910,-5.875,21.25,-16.5625,0
7930,6.125,13.625,-15.25,0
7950,31.6875,10.3125,-25.0625,0
7970,44.5625,-0.5,-28.6875,0
7990,60,-11.25,-32.0625,0
8010,72.625,-10.8125,-42.75,0
8030,60.75,-3.6875,-52,0
8050,41.3125,-1.75,-65.125,0
8070,2.125,0.4375,-71.0625,0
8090,-32.75,-2.5625,-75.4375,0
8110,-45.0625,-3.0625,-86.4375,0
8130,-26.8125,-10.3125,-91.375,0
8150,-1.3125,-24.5625,-95.5625,0
8170,10.0625,-30.9375,-110.125,0
8190,1,-35.4375,-114.25,0
8210,-15.9375,-43.4375,-119.875,0
8230,-29.8125,-52.75,-129,0
8250,-31.5625,-61.1875,-130.188,0
8270,-29.875,-71,-132.188,0
8290,-19.1875,-77.3125,-136.562,0
8310,-6.875,-87.5,-135.312,0
8330,-7.4375,-95.8125,-126.5,0
8350,-15.9375,-99.4375,-116.312,0
8370,-19.0625,-106.062,-114.312,0
8390,-23.1875,-110.625,-109.188,0
8410,-24.9375,-110.25,-92.625,0
8430,-27.6875,-109.875,-85,0
8450,-30.125,-114.438,-84.75,0
8470,-28.9375,-122.25,-77,0
8490,-18.625,-125.688,-69,0
8510,-24.25,-127.125,-75.75,0
8530,-21.4375,-138.375,-77.25,0
8550,-13.4375,-152.125,-65.875,0
8570,-8,-167.125,-61.3125,0
8590,7.9375,-178.312,-67.1875,0
8610,17.9375,-174.875,-59,0
8630,6.4375,-174.75,-48.1875,0
8650,2.75,-179.438,-39.875,0
8670,12.5,-179.688,-30.0625,0
8690,16.3125,-178.562,-24.625,0
8710,15.4375,-170.875,-21.4375,0
8720,17.5625,-162.625,-15.625,0
8740,22.0625,-153.25,-8.5,0
8760,27,-140.438,-5.6875,0
8790,22.5625,-110.375,9.25,0
8810,23.6875,-104.188,8.4375,0
8830,18.5,-95.5625,8.625,0
8850,15.0625,-90.25,6.875,0
8870,16.4375,-86.125,4.125,0
8890,10.1875,-78,-4.6875,0
8910,2.125,-61.4375,-8,0
8930,-0.5,-52.3125,-4.1875,0
8950,12.3125,-49.375,0.3125,0
8970,12.125,-31.25,-8.625,0
8990,2,-20.1875,-14.25,0
9010,-0.6875,-24.1875,-4.125,0
9030,6.875,-34.3125,6.4375,0
9050,29.3125,-38.3125,16.0625,0
9070,22,-34.9375,18.8125,0
9090,11.75,-36.4375,9.3125,0
9110,10.625,-35.3125,0.25,0
9130,7.25,-44.0625,0,0
9150,7.5625,-51.25,-5.9375,0
9180,-13.5,-32.625,-17.1875,0
9200,-15.625,-21.1875,-16.5,0
9220,-16.0625,-12.375,-16.4375,0
9240,-12.75,-6.5625,-17.8125,0
9260,-9,-2.0625,-11.0625,0
9280,-4.6875,1.3125,-4.1875,0
9300,-5.8125,3.75,-0.75,0
9320,-3.6875,2.875,0.1875,0
9340,-7.3125,2.625,2.25,0
9360,-9.6875,3.5,3.0625,0
9380,-11.1875,5.75,5.125,0
9400,-13.3125,4.25,4.6875,0
9420,-17.0625,-0.5,1.6875,0
9440,-24.3125,-1.625,1.1875,0
9460,-27.5,1,-1,0
9480,-29.875,1.0625,-1.625,0
9500,-33.25,1,-3.4375,0
9520,-35.75,1.9375,-6.5,0
9540,-32.9375,0.75,-7.8125,0
9560,-32.3125,0.5,-8.3125,0
9580,-32.6875,0.5,-8.75,0
9600,-27.9375,-0.75,-7.125,0
9620,-17.125,-2.8125,-1.3125,0
9640,-7.6875,-6.125,7.25,0
9660,0.1875,-6.5,15.5625,0
9680,10.875,-6.0625,18.6875,0
9700,17.4375,-4.3125,20.0625,0
9720,9.3125,-3.75,15.9375,0
9740,1.25,-2.3125,6.75,0
9760,-1.9375,2.5625,0.625,0
9780,0.5,8.375,-0.3125,0
9800,1.0625,12,1.75,0
9820,3.4375,13.0625,3.9375,0
9840,6.625,12,5.8125,0
9860,4.3125,14.3125,5.75,0
9880,1.3125,12.25,3.25,0
9900,1.8125,5,4.5,0
9920,4.0625,-1.5,7.0625,0
9940,6.3125,-4.25,6.3125,0
9960,5.75,-2.9375,5.875,0
9980,4.375,0.875,6.5625,0
10000,1.3125,2.6875,6.4375,0
10020,1.5,2.3125,1.4375,0
10040,0.875,-0.5,0.5625,0
10060,0,-1.6875,-0.625,0
10080,-4.8125,0,-0.6875,0
10100,-5.5,1.5625,-1.375,0
10120,-2.9375,6,1.875,0
10140,-2.625,8.6875,4.5625,0
10160,1.75,9.5,6.25,0
10180,5.375,9.9375,7.4375,0
10200,4.8125,7.8125,5.75,0
10220,5.5625,1.375,5.9375,0
10240,5.75,-1.1875,3.5625,0
10260,4.5,-3.0625,4.25,0
10280,6.3125,-0.9375,2.75,0
10300,4.9375,1.1875,-0.9375,0
10320,0.5,-7.25,-5.4375,0
10340,3.8125,-15.4375,-4.25,0
10360,8,-15.3125,1.875,0
10380,6.5625,-13.125,-0.8125,0
10400,2.6875,-6.8125,-2.1875,0
10420,2,1.3125,0.375,0
10440,1.4375,4.9375,1.5,0
10460,-2.0625,-2.125,-3.625,0
10480,-6,-8.875,-3.75,0
10500,-6.0625,-13.4375,-3.25,0
10520,-4.625,-7.1875,-4,0
10540,-4,3.125,0.75,0
10560,-3.5625,6.25,0.3125,0
10580,-5.6875,3.625,-1.125,0
10600,-4,1.375,0,0
10620,-2.0625,2.25,1,0
10640,0.9375,-1,2,0
10660,5.625,-0.875,3.8125,0
10680,3.125,4.3125,4.875,0
10700,0.25,10.8125,0.1875,0
10720,0.25,15.875,1.8125,0
10740,4.625,13.4375,6.75,0
10760,2.4375,7.9375,11,0
10780,5.9375,-3.5,4.5625,0
10800,9.1875,-8.1875,7.3125,0
10820,4.875,-14.6875,-1,0
10840,2,-14.625,-7,0
10860,0.125,-14.1875,-6.1875,0
10880,0.5625,-11.125,-6,0
10900,-1.375,-7,-3.625,0
10920,-2.625,-4.4375,-3.5,0
10940,-5.625,-7,-4.1875,0
10960,-6.25,-4.8125,-2.625,0
10980,-5.25,0.0625,0.9375,0
11000,-3.3125,3.5625,2.875,0
11020,-3.125,6.125,4.5,0
11040,-1.875,4.6875,4.6875,0
11060,0.5,-0.5625,5.1875,0
11080,3.8125,-0.875,6.8125,0
11100,4.5625,0,5.9375,0
11120,4.875,4.875,2.875,0
11140,0.3125,5.875,-0.5625,0
11160,1.0625,4.4375,-0.625,0
11180,8.1875,7.125,5.5625,0
11200,5.6875,1.375,4.25,0
11220,3.1875,-4.375,1.3125,0
11240,0.6875,-1.5625,-1.25,0
11260,-1.5,-7.75,-3.9375,0
11280,1.375,-6.8125,-2.1875,0
11300,-1.375,-3.9375,-2.125,0
11320,-3.0625,-1.5625,-6,0
11340,-3.125,0.8125,-1.125,0
11360,-3.4375,0.75,0.375,0
11380,-3.9375,0,0,0
11400,-2.4375,-0.9375,1.625,0
11420,-0.625,0.0625,4.375,0
11440,0.1875,2.9375,5,0
11460,0.0625,6.875,5.8125,0
11480,0.1875,9.0625,5.875,0
11500,-2.75,6.25,2.3125,0
11520,0.0625,5.5,2.4375,0
11540,1.75,4.625,4.4375,0
11560,2.875,2.8125,3.6875,0
11580,1.75,4.3125,2.6875,0
11600,0.125,5,0.625,0
11620,-1,3.875,-1.25,0
11640,-0.6875,2.5,0,0
11660,-3.0625,2.5,1.375,0
11680,-3.0625,3.125,-2.8125,0
11700,-3.25,1.5,-2.5,0
11720,-3.9375,-1.5,-2.75,0
11740,-3.9375,-3.1875,-3.25,0
11760,-3.75,-1.9375,-3.3125,0
11780,-4.25,-0.9375,-3.1875,0
11800,-4.125,-1.6875,-2.125,0
11820,-3.25,-1.8125,-1.5625,0
11840,-4.8125,-0.75,-1.625,0
11860,-8.625,-1.9375,-2.75,0
11880,-15.8125,4.1875,-6.625,0
11900,-18.5,11.4375,-12.5,0
11920,-16,18.0625,-13.0625,0
11940,-12,20.6875,-7.875,0
11960,0,25,-3.5,0
11980,8.125,29.75,0.75,0
12000,4.875,29.0625,-0.6875,0
12020,4.3125,29.5625,-2.625,0
12040,7,31.4375,-2.4375,0
12060,6.0625,40.75,-6.625,0
12080,8.375,49.5,-6.4375,0
12100,7.5,52.8125,-6.25,0
12120,4.9375,56.6875,-5.1875,0
12130,9.125,57.625,-0.75,0
12150,13.8125,52.125,5.6875,0
12170,11.25,42.375,5.5,0
12190,6.9375,32.1875,4.875,0
12210,6.1875,19.9375,4.8125,0
12230,7.375,6.4375,4.625,0
12250,1.9375,-4.8125,5.5,0
12260,0.9375,-13.0625,5.875,0
12280,0.6875,-17.75,4.9375,0
12300,-1.6875,-20.1875,4.875,0
12310,-2,-22.4375,6.1875,0
12330,-0.5625,-20.25,7.625,0
12350,1.25,-16.8125,7.875,0
12370,1.9375,-12.75,8.4375,0
12390,2.25,-11.125,9.375,0
12410,4.4375,-8.8125,10.625,0
12430,7.1875,-8.375,11.75,0
12450,1.0625,-11.5,10.875,0
12470,-0.0625,-12.4375,0.9375,0
12490,-2.8125,-12.0625,-0.8125,0
12510,-1,-11.125,-0.25,0
12530,-0.3125,-9.3125,3.3125,0
12550,2,-9.125,4.375,0
12570,3.1875,-8.5,4,0
12590,4.125,-7.5,2.3125,0
12610,2.4375,-7.625,-0.0625,0
12630,-3,-8.75,-5.0625,0
12650,-5.9375,-10.625,-8.5,0
12670,-5.5,-10.75,-6.5,0
12690,-3.4375,-9.1875,-3.3125,0
12710,-1.375,-7.5625,-0.5625,0
12720,-1,-6.4375,-0.375,0
12740,-2.375,-4.4375,0.625,0
12760,-2.25,-3.5625,0.375,0
12780,-4.375,-2.5,-1.25,0
12800,-3.1875,-1.5,0.375,0
12820,-3.125,-0.25,-0.125,0
12840,-2.5625,1,0.875,0
12860,-2.375,1.8125,1.625,0
12880,-5.1875,1.9375,1.75,0
12900,-3.6875,1.75,0.4375,0
12920,-1.0625,2.25,0.875,0
12940,-1.875,2.5625,1.875,0
12960,-2,3.6875,1.375,0
12980,-0.4375,4.1875,-0.1875,0
13000,-1.0625,3.5,-0.5625,0
13020,1.125,1.125,1.3125,0
13040,4.625,0.3125,4.5,0
13060,6.75,-0.375,4.375,0
13080,7.625,0,6,0
13100,5.1875,-1.0625,3.5625,0
13120,2.9375,-4.0625,1.8125,0
13140,3.375,-8.6875,0.75,0
13160,1.5625,-7.625,-1.0625,0
13180,-1.875,-3.9375,-3.375,0
13200,-2.6875,-4.8125,-3.875,0
13220,-2.8125,-7.6875,-1.0625,0
13240,-1.125,-3.375,-0.9375,0
13260,-2.75,1.75,-1.0625,0
13280,-3.375,3.9375,-1.9375,0
13300,-4.25,1,-2.125,0
13320,-3,0.4375,-1.5625,0
13340,-1.8125,0.5625,-0.75,0
13360,-0.1875,3.25,3.25,0
13380,1.75,5.3125,5.1875,0
13400,3.625,6.375,3.5625,0
13420,0.125,3.875,2.4375,0
13440,0.8125,1.3125,0.75,0
13460,1.4375,1.6875,1.875,0
13480,6.75,1.625,2.5,0
13500,5.6875,7.1875,2.125,0
13520,3.25,6.25,1.125,0
13540,2.75,5.6875,-1.6875,0
13560,1.5,3.5,-2.5,0
13580,-0.25,0.875,-1.6875,0
13600,-5.5,0.5,-3.1875,0
13620,-8.75,8.875,-8.5625,0
13640,-6.75,21.0625,-12.0625,0
13660,2,38.9375,-11.625,0
13680,16.1875,47.8125,-6.0625,0
13700,19.625,51.375,0.75,0
13720,28.6875,54.4375,-4.75,0
13740,31.3125,62.625,-6.4375,0
13760,39.25,68.9375,-8.375,0
13780,42.625,77,-9.875,0
13800,51.25,86,-10.6875,0
13820,58.25,97.9375,-10.3125,0
13840,61.625,109.875,-9.4375,0
13860,70.125,126.375,-10.25,0
13880,78.375,145.188,-4.9375,0
13900,85.8125,165.75,9.375,0
13920,97.0625,175.375,11.1875,0
13940,105.125,198.125,13.9375,0
13960,99.8125,199.562,10.75,0
13980,87.5,194.375,15.0625,0
14000,90.8125,172.5,13.8125,0
14020,99.3125,143.25,16.125,0
14040,88.9375,110.312,13.25,0
14060,76.3125,64.625,6.4375,0
14080,63.9375,27.0625,-8.25,0
14100,37.875,-2.125,-4.1875,0
14110,5.8125,-26.25,2.3125,0
14130,-32.1875,-43.125,3.875,0
14150,-54.875,-60.125,1.4375,0
14170,-68.6875,-72.5,-9.75,0
14190,-72.8125,-82.875,-12.5625,0
14210,-71.125,-93.875,-19,0
14230,-75.6875,-103.938,-20.9375,0
14250,-78.875,-115,-18.6875,0
14270,-84.3125,-120.938,-16.1875,0
14290,-85.625,-123.625,-16.125,0
14310,-83.8125,-125.562,-16.5,0
14330,-84.625,-129.625,-13.625,0
14350,-83.6875,-132.688,-12.0625,0
14370,-79.125,-130.375,-11.6875,0
14390,-78.5,-120.438,-5.5625,0
14410,-77.875,-109.625,0.3125,0
14430,-68.0625,-94.6875,-3.375,0
14450,-56.1875,-78,-4.5,0
14470,-53.4375,-61.6875,-0.375,0
14490,-35.8125,-50.3125,7.75,0
14510,-24.375,-41.5,13.5,0
14530,-0.75,-34.3125,1.8125,0
14550,4.375,-31.5,11,0
14570,-5.5625,-30.375,17.75,0
14590,21.25,-44.25,-4,0
14610,-0.625,-37.125,-14.375,0
14630,-8.3125,-31,-17.3125,0
14650,-3.6875,-20.25,-14.4375,0
14670,3.4375,-13,-14.875,0
14690,-6.875,-11.0625,-12.625,0
14710,-18.5625,-16.6875,-21.875,0
14730,-26.25,-25.875,-28.3125,0
14750,-27.0625,-26.75,-24.625,0
14770,-23.4375,-24.3125,-27,0
14790,-30.9375,-15.8125,-18.125,0
14810,-32.875,-14.875,-15.125,0
14820,-31.3125,-13.3125,-14.6875,0
14840,-30.75,-13.3125,-14.0625,0
14860,-21.875,-11.75,-15.5,0
14880,-14.375,-9.125,-2.25,0
14900,-3.5625,-3.625,3.375,0
14920,1.4375,4.8125,6.8125,0
14940,4.75,11.8125,7.875,0
14960,11,11.125,6.625,0
14980,9.4375,5.125,1.875,0
15000,7.4375,0.9375,-0.5625,0
15020,5.8125,-3.375,-0.5625,0
15040,7.8125,-3.6875,0.3125,0
15060,9.5,-6.25,2.1875,0
15080,10.1875,-0.9375,8.0625,0
15100,7.6875,4.9375,8.5,0
15120,5.1875,11.0625,7.5,0
15140,1.4375,15.125,4.4375,0
15160,-5.375,15.75,2.9375,0
15180,-12.75,18.25,1.375,0
15200,-12.25,18.3125,1.4375,0
15220,-13.875,20.875,1.4375,0
15240,-13.0625,23.375,3.5625,0
15260,-12.1875,24.0625,7.25,0
15280,-6,22.6875,6.875,0
15300,-0.8125,21.0625,9.0625,0
15320,6.9375,15.25,13.0625,0
15340,18,3.1875,11.6875,0
15360,24.25,-13.9375,8.8125,0
15380,24.125,-24.8125,4.5625,0
15400,14.4375,-22.1875,-4.0625,0
15420,6.1875,-8.625,-8.8125,0
15440,6.75,14.875,-2.1875,0
15460,10.875,21.8125,8.6875,0
15480,15.25,10.5,10.5625,0
15500,10.75,0.5,5.9375,0
15520,4.4375,-1,-1.5,0
15540,-0.5625,2.5625,-4.125,0
15560,-2.25,0.625,-5.75,0
15580,-1.125,-9.5625,-2.9375,0
15600,0.3125,-15.25,-1.875,0
15620,-5.25,-16.125,-3.4375,0
15640,-8.125,-16,-6.125,0
15660,-8.4375,-9.875,-6.625,0
15680,-10.5,-4.1875,-5.25,0
15700,-7.4375,0.75,-2.1875,0
15720,-6.0625,3.375,0.5625,0
15740,-3.5,10.5,4.4375,0
15760,-3.0625,13.5625,5.3125,0
15780,-3.1875,14.4375,6.4375,0
15800,-2.8125,14.6875,8,0
15820,1.3125,15.3125,6.625,0
15840,0.375,13.875,6.375,0
15860,-2,13.9375,7.6875,0
15880,-2.125,17.75,11.4375,0
15900,0.625,23,11.25,0
15920,6.8125,34,13.0625,0
15940,15.5,49.5625,15.375,0
15960,26.25,63.625,10.25,0
15980,32.4375,79.75,3.4375,0
16000,45.875,92.5,0.9375,0
16020,58.625,103.688,4.25,0
16040,67.125,117,5,0
16060,65.1875,133.5,-0.125,0
16080,61.75,151.625,-5.375,0
16100,63.875,167.562,-5.3125,0
16120,76.375,179.312,5.8125,0
16140,82.9375,194.5,23.1875,0
16160,87.25,205.562,37.0625,0
16180,86.4375,213.625,47.6875,0
16200,62.25,212.625,51,0
16220,37.5625,214,61.5625,0
16240,28,189.312,64.3125,0
16260,18.5625,151.5,59.75,0
16280,31.375,131.125,54.3125,0
16300,30.4375,129,48.25,0
16320,16.8125,128.562,41.5625,0
16340,-10.25,130.312,20.625,0
16360,-13.3125,107.812,-15.8125,0
16380,1.375,79.875,-36.375,0
16400,19.25,60.9375,-45.1875,0
16420,28.5,54.375,-52,0
16440,32.125,49.1875,-28.6875,0
16460,13.5,31.125,20.5,0
16480,-19.1875,6.8125,48,0
16500,-36.25,-14.75,42,0
16520,-22.875,-32.25,38.25,0
16540,-9.125,-57.875,47.6875,0
16560,10.0625,-58.375,50.875,0
16580,3.75,-40.875,50.5625,0
16600,-16.25,-32.6875,54.0625,0
16620,-38.5,-34.3125,57.5625,0
16640,-43.6875,-24,40.6875,0
16660,-32.0625,-15.75,18.875,0
16680,0.375,-22.625,17,0
16700,30.9375,-25.75,13.9375,0
16720,39.3125,-15.5625,-1.9375,0
16740,30.9375,-9.3125,-13.6875,0
16760,31.875,-21,-11.9375,0
16780,31,-29.125,-15.1875,0
16800,30.375,-27.9375,-27,0
16820,22.3125,-16.875,-33.875,0
16840,19.0625,-19.3125,-27.5,0
16860,19.875,-8.8125,-17,0
16880,11.0625,18.8125,-33,0
16900,8.375,20.1875,-14.3125,0
16920,13.0625,2,-0.875,0
16940,7.0625,5.625,-28.3125,0
16960,2.25,11.5625,-27.5,0
16980,-10.5,8.875,-6.625,0
17000,-14.0625,-0.8125,1.5625,0
17020,-14.75,-6.5,3.625,0
17040,-23.6875,-7.0625,10.375,0
17060,-38.4375,-4.875,8.6875,0
17080,-37.1875,-9.75,1.3125,0
17100,-27.625,-11.3125,-0.3125,0
17120,-0.1875,-9.1875,10,0
17140,10.0625,-13.1875,17.75,0
17160,4.4375,-16.125,22.875,0
17180,0.375,-13.375,24.0625,0
17200,-1.25,-9.0625,26.75,0
17220,-4.5,-2.0625,18.5625,0
17240,-1.125,0.6875,16.875,0
17260,-3.8125,3.4375,17.875,0
17280,-11.25,2.9375,3.5625,0
17300,-4.1875,0.125,-2.3125,0
17320,3.5625,-3.375,4.375,0
17340,7.375,0,-2.3125,0
17360,-0.875,2.8125,-11.625,0
17380,-0.0625,6.8125,-10.4375,0
17400,1.5,13.5,-3.0625,0
17420,-5.75,22.4375,-6.1875,0
17440,-9.4375,23.75,-1.9375,0
17460,-19.8125,21.5,6.875,0
17480,-15.125,20.5625,-3.25,0
17500,0.3125,19.8125,-4.9375,0
17520,8.9375,23.3125,-5.4375,0
17530,4.375,17.9375,-18.5625,0
17550,6.375,9.8125,-16.5,0
17570,3.625,8.4375,-11.3125,0
17590,-2.1875,12.3125,-14.5625,0
17610,2.0625,12.1875,-21,0
17630,6,11.375,-23.5,0
17650,6.875,13.375,-24.1875,0
17670,9.4375,12.125,-29.125,0
17690,6,14.6875,-32,0
17710,4.375,13.5,-33.5625,0
17730,1.6875,10.4375,-32.4375,0
17750,2.125,5,-27.375,0
17770,1,-0.125,-30.5,0
17790,12.125,-5.8125,-29.125,0
17810,14.125,-10.3125,-31.5625,0
17830,17.625,-13.9375,-30.375,0
17850,10.5,-17.75,-27.3125,0
17870,12.875,-22.4375,-24,0
17890,15.1875,-28,-20.1875,0
17910,17.3125,-32.125,-16.25,0
17930,16.3125,-34,-14.0625,0
17950,15.3125,-32.875,-12.75,0
17970,11.25,-33.125,-11.375,0
17990,9.75,-32.6875,-10.625,0
18010,13.75,-34.6875,-8.625,0
18030,20.1875,-31.25,-9.4375,0
18050,21.75,-26.75,-5.5625,0
18070,18.9375,-24.75,-3,0
18090,10.4375,-22.75,-2.8125,0
18110,7.4375,-20.375,-2.8125,0
18130,9.375,-21.25,0.6875,0
18150,14.6875,-19.875,4.8125,0
18170,13.3125,-14.9375,2.1875,0
18190,6.5625,-12.875,1.8125,0
18210,4.5,-11.125,6.4375,0
18230,2.125,-10.1875,6.25,0
18250,5.875,-8.6875,3.5,0
18270,5.9375,-8.25,4.125,0
18290,8.8125,-11.1875,4.8125,0
18310,3.9375,-13.0625,5.75,0
18330,8.9375,-11.625,7.9375,0
18350,7.5625,-9.0625,2.0625,0
18370,3.125,-5.625,1.125,0
18390,1.5,-2.8125,4,0
18410,-3.5,1.8125,0.9375,0
18430,1.5,3.4375,1,0
18450,6.3125,4.4375,0.0625,0
18470,6.1875,6.875,0.25,0
18490,1.625,6.1875,3.5625,0
18510,-0.4375,6.125,3.375,0
18530,1.3125,6.9375,2.375,0
18550,1.25,6.875,-0.875,0
18570,0.75,5.75,-2.9375,0
18590,-0.125,4.6875,-4.625,0
18610,-2.4375,6.5,-5.875,0
18630,-5.5,8.4375,-7.125,0
18650,-7.125,10,-7.4375,0
18670,-10.4375,9.3125,-4.1875,0
18690,-11.25,6.1875,-5.25,0
18710,-8.4375,5.4375,-7.5,0
18730,-8.5,3.5,-7.0625,0
18750,-9.4375,3.8125,-7.875,0
18770,-7.8125,1,-7,0
18790,-5.875,0.9375,-6,0
18810,-4.625,-0.1875,-9.75,0
18830,-5,-1.875,-8.5,0
18850,-8.6875,-2.125,-7.5,0
18870,-6.0625,-1.8125,-10.25,0
18890,-5.6875,-2.4375,-9.75,0
18910,-5.875,-0.9375,-9.375,0
18930,-5,-1.5,-11,0
18950,-6.9375,2.5625,-10.5,0
18970,-7.9375,9.75,-11.375,0
18990,-10,12.4375,-12.5,0
19010,-5.75,8.1875,-10.5,0
19030,4.375,11.6875,-5.6875,0
19050,8.4375,13,-9.5625,0
19070,5.6875,6.375,-7.875,0
19090,4.8125,6.125,-3.5,0
19110,3.625,12.625,-9.125,0
19130,5.25,12.1875,-11,0
19150,4.3125,10.75,-3.125,0
19170,3.125,9.3125,-2,0
19190,3.8125,7.9375,-4.375,0
19210,2.375,9.3125,-6.1875,0
19230,-0.625,10.625,-10.875,0
19250,-4.375,10.0625,-11.5,0
19270,-3.5625,7.4375,-11.5625,0
19290,-0.75,4.0625,-13.4375,0
19310,0.375,3.75,-12.375,0
19330,-3.75,6.75,-12.8125,0
19350,-8.625,9.0625,-11.4375,0
19370,-2.875,9.125,-11.0625,0
19390,0,10.4375,-11.625,0
19410,-3.9375,15.375,-9.375,0
19430,-7.6875,19.75,-8.8125,0
19450,-5.25,23.875,-4.375,0
19470,-2.375,30,1.875,0
19490,1.4375,35.125,2.875,0
19510,3.9375,42.5,1.1875,0
19520,1.5625,46.5,-1.0625,0
19540,-3.9375,51.5625,-0.5,0
19560,-3.875,55.4375,-0.5,0
19580,-7.0625,58.5,1.125,0
19600,-3.375,60,7.625,0
19620,-1.6875,61.8125,11.875,0
19640,-8.125,62.75,12.25,0
19660,-7.125,62.875,13.4375,0
19680,-10.875,61.875,11.375,0
19700,-14,67.1875,12.125,0
19720,-7.9375,65.875,10.75,0
19740,-5.0625,62.1875,14.1875,0
19760,-7.4375,65.3125,20.8125,0
19780,-7.25,66.8125,27.6875,0
19800,-5.75,63.875,34.625,0
19820,-3.5625,63.3125,36.25,0
19840,-4.625,65.3125,39.625,0
19860,-0.0625,61.0625,40.625,0
19880,12.25,56.25,42.8125,0
19900,13.5625,55.5625,47.8125,0
19920,6.6875,59.75,51.5,0
19940,-5.5,65.8125,55.6875,0
19960,-6,70.75,55.875,0
19980,-3.0625,72.0625,55.75,0
20000,-0.4375,73.4375,52.1875,0
20020,-0.5625,74.6875,64.1875,0
20040,14.75,70.875,56.75,0
20060,38.0625,74.6875,48.9375,0
20080,47.5625,71.8125,47.9375,0
20100,46.3125,67.125,44.5,0
20120,5.5,49.9375,46.625,0
20140,10.3125,36.75,30.8125,0
20160,4.8125,30,20.5,0
20180,-14.3125,10.25,22.3125,0
20200,-14.75,-2.625,12.125,0
20220,-6.25,-12.3125,9.4375,0
20240,-4.5625,-16.375,5.4375,0
20260,5.875,-19.25,2.5,0
20280,3.9375,-25.375,0.4375,0
20300,8.875,-23.125,2.125,0
20320,5.5625,-22.0625,2,0
20340,5.9375,-21.875,2.5,0
20360,2.4375,-19.625,1.8125,0
20380,-2.1875,-12.8125,5.875,0
20400,-6.8125,-8.3125,8.875,0
20420,-4.3125,-2.75,8.75,0
20430,-3.25,-3.5,14.4375,0
20450,-9.0625,6.3125,21.375,0
20470,-12.125,9.5,22.4375,0
20490,-20.0625,14.6875,26.1875,0
20510,-17.3125,18.6875,28.9375,0
20530,-17.875,18.6875,28.75,0
20550,-19.3125,14.4375,25.125,0
20570,-23.0625,9.5,21.25,0
20590,-20.5625,7.6875,15,0
20610,-15.375,7.75,8.5625,0
20630,-7.4375,5.125,3.5625,0
20650,-3.125,0.9375,0,0
20670,-0.625,-1.8125,-4.5625,0
20690,1.625,-4.25,-7.3125,0
20710,3,-5.3125,-9.3125,0
20730,4.6875,-4.125,-9.6875,0
20750,3.8125,-3.5,-8.5625,0
20770,-0.1875,-0.375,-6.6875,0
20790,-0.125,-0.1875,-2.375,0
20810,1,0,-1.9375,0
20830,-2.125,0.625,-2.5625,0
20850,-3.625,1.1875,-1.3125,0
20870,-8.5625,2.5,0.75,0
20890,-14.0625,-0.9375,3.5,0
20910,3.0625,-2,-3.25,0
20930,0.75,-3.3125,-6.9375,0
20950,3,-4.9375,-7.1875,0
20970,2.5,-5.9375,-8.9375,0
20990,-4.5625,-5.3125,-9.5625,0
21010,-1.0625,-10,-16.5625,0
21030,3,-11,-25,0
21050,-10.8125,-16.75,-30.375,0
21070,-9.5625,-21.9375,-34.125,0
21090,0.5625,-25,-39.5,0
21110,3.1875,-30.625,-48.0625,0
21130,-5.4375,-36.4375,-51.25,0
21150,-16.75,-39.625,-57.5,0
21170,-22.375,-52.75,-65.875,0
21190,-11.125,-61.9375,-55.4375,0
21210,13.5,-69.125,-66.6875,0
21230,36.9375,-78.6875,-74.875,0
21250,51.8125,-94.1875,-72.6875,0
21270,40.6875,-104.625,-65.125,0
21290,23.5,-110.312,-64.9375,0
21310,10,-112.312,-59.1875,0
21330,25.4375,-116.812,-51.8125,0
21350,9.625,-116.125,-48.25,0
21370,2.125,-115.5,-44.5625,0
21390,-9.6875,-113.312,-36.5,0
21410,-15.375,-110.812,-29.125,0
21430,-14.5,-107.438,-22.25,0
21450,-9.5625,-100.375,-14.125,0
21470,-9.4375,-90.4375,-9.5,0
21490,-10.375,-80,-8.25,0
21510,-16.125,-71.6875,-6.25,0
21530,-15.4375,-65.1875,-4.875,0
21550,-7.25,-58.0625,-3.6875,0
21570,-5.0625,-53.75,-1.3125,0
21590,-1.5,-47.5,1.875,0
21610,3.0625,-45.1875,6.3125,0
21630,4.3125,-38.3125,9.625,0
21650,7.375,-32.125,7.9375,0
21670,8.25,-26.9375,9.625,0
21690,9.125,-21.75,11.9375,0
21710,8.625,-17.25,8.9375,0
21730,8.625,-14.375,11.75,0
21750,8.3125,-14.0625,17.25,0
21770,13.875,-8.0625,11.8125,0
21790,11.9375,-7.1875,15.9375,0
21810,15.1875,-1.625,8.6875,0
21830,16.3125,1.125,6.6875,0
21850,11.125,1.9375,10.1875,0
21870,12.0625,4.1875,6.375,0
21890,7.0625,3.125,10.25,0
21910,8.9375,4.4375,6.75,0
21930,5.75,4.75,5.6875,0
21950,7.4375,7.25,1.5,0
21970,3.8125,5.5,-0.1875,0
21990,3.0625,0.4375,0.0625,0
22010,1.25,-3.0625,3.125,0
22030,2.5625,-1.6875,-2.9375,0
22050,0.3125,-2.25,-2.75,0
22070,-2.3125,-3.0625,-2.25,0
22090,-2.625,-3.3125,-3.0625,0
22110,-1.375,-2.5625,-2.8125,0
22130,-1.625,-1.125,-2.6875,0
22150,-1.5,0.1875,-3.3125,0
22170,-1.375,0.8125,-2.75,0
22190,-1.9375,1.5625,-2.8125,0
22210,-2.1875,2.1875,-2.0625,0
22230,-1.5625,3.1875,-1.1875,0
22250,-0.875,4.0625,-1.875,0
22270,-0.5,5.375,-3.1875,0
22290,0.125,5.5625,-4.4375,0
22310,1.125,5.75,-6.375,0
22330,2.75,4.8125,-8.4375,0
22350,3.6875,5.125,-9.5625,0
22370,3.4375,6.5625,-9.75,0
22390,1.5625,9,-8.4375,0
22410,-0.875,9.875,-5.9375,0
22430,-1.5625,9.5625,-2.9375,0
22450,0,7.4375,-3.375,0
22470,1.6875,4.3125,-4.25,0
22490,2.375,2.625,-5.0625,0
22510,2,2.5625,-6.4375,0
22530,1,1.8125,-7.1875,0
22550,0.1875,1.1875,-5.9375,0
22570,-1.4375,1.375,-7.5,0
22590,-0.3125,3.75,-10.5625,0
22610,-2.125,6.75,-7.75,0
22630,-3.875,8,-2.9375,0
22650,-3.75,8.25,1.875,0
22670,-3.25,7.875,3.5,0
22690,-3.25,8.0625,4.25,0
22710,-2.125,6.5,3.375,0
22730,-1.25,5.1875,1.875,0
22750,-0.125,2.8125,0.125,0
22770,0.9375,0.25,-1.875,0
22790,2.125,-1.3125,-3.0625,0
22810,2.3125,-1.25,-2.6875,0
22830,1.4375,0.125,-3.125,0
22850,0.625,1.25,-3.875,0
22870,-0.625,1.8125,-2.25,0
22890,-2.875,2.3125,-0.5625,0
22910,-4.5625,1,1.1875,0
22930,-5.625,-1.25,1.5625,0
22950,-5.6875,-3.1875,1.5625,0
22960,-6.0625,-3.75,0.6875,0
22980,-4.25,-4.375,0.875,0
23000,-2.625,-3.8125,1.3125,0
23020,-1.375,-3.0625,1.1875,0
23040,-0.5,-2.4375,0.5625,0
23060,0.125,-1.0625,0.0625,0
23080,-0.3125,-0.5625,1.4375,0
23100,-1.5,-0.6875,2,0
23120,-2.4375,-1.0625,2.6875,0
23160,-3.5625,-4.9375,4.625,0
23180,-4.75,-7.0625,5.0625,0
23200,-6.1875,-10.0625,5.625,0
23220,-7.8125,-13.25,7.375,0
23240,-9.75,-16.8125,8.375,0
23260,-11.8125,-20.625,7.5,0
23280,-14.3125,-25.375,7.75,0
23300,-14.625,-29.5625,9.4375,0
23320,-15.4375,-31.375,11,0
23340,-18.875,-34.25,9.625,0
23360,-19,-37.3125,9.5,0
23380,-20,-40.5,10.5625,0
23400,-20.875,-41.5625,10.8125,0
23420,-23.1875,-42.1875,11.8125,0
23440,-23.3125,-41.75,11,0
23460,-21.9375,-40.4375,10.6875,0
23480,-21.6875,-38.5625,10.1875,0
23500,-21.625,-36.5625,9.9375,0
23520,-18.1875,-33.25,11.5625,0
23540,-18.9375,-26.5625,11.1875,0
23560,-17.6875,-19.125,10.5625,0
23580,-14.6875,-15.625,14.875,0
23600,-9.1875,-8.3125,17.75,0
23620,-6.25,1.0625,13.375,0
23640,-6.5625,5.8125,11.5625,0
23660,-0.5,7,12.75,0
23680,4,7.125,13.5625,0
23700,7.375,10,11.9375,0
23720,8,12.4375,9.125,0
23740,12.1875,12.375,5.625,0
23760,16.9375,12.9375,1.9375,0
23780,14.4375,13.875,1.625,0
23800,13.75,14.875,5.4375,0
23820,12.5,13.125,4.125,0
23840,17.25,14.9375,4.3125,0
23860,14.0625,11.625,2.25,0
23880,6.6875,8.8125,-0.75,0
23900,3.125,10.5,-0.6875,0
23920,4.125,12.25,-4.125,0
23940,4.8125,11.6875,-3.375,0
23960,1,7.3125,-0.25,0
23980,1.125,4.3125,2.0625,0
24000,1.875,5.3125,-0.25,0
24020,0,6.9375,-1.9375,0
24040,-0.75,5.4375,-2.1875,0
24060,-0.375,3.6875,-2.375,0
24080,0.6875,2,-2.6875,0
24100,1.5625,1.625,-1.875,0
24120,-1.1875,1.8125,-3.125,0
24140,-2.1875,-0.1875,-4.0625,0
24160,-1.5,-1.5,-4.625,0
24180,-1,-2.5625,-5.6875,0
24200,-2.4375,-1.6875,-5.25,0
24220,-2.125,-0.8125,-3.8125,0
24240,0.5,0,-5,0
24260,-1.625,-0.8125,-5.6875,0
24280,-1.25,-3.3125,-2.0625,0
24300,2.125,-5.125,0,0
24320,1.375,-4.6875,-0.25,0
24340,0.875,-4.875,2.25,0
24360,-0.375,-2.8125,0.0625,0
24380,2,-0.5625,-3.0625,0
24400,-2.5625,-0.6875,-2.5,0
24420,-1.5,0,-2.6875,0
24440,-2.1875,0.75,-2.25,0
24460,-1.1875,0.75,-3.125,0
24480,-0.25,-0.875,-3.8125,0
24500,-1,-1.25,-3.4375,0
24520,-3.125,-2.75,-2.75,0
24540,-1.4375,-4.125,-1.1875,0
24560,-1.5625,-4.125,-1.8125,0
24580,-1.5,-5.1875,-4.0625,0
24600,-3.4375,-6.125,-2.8125,0
24620,-3.5625,-5.9375,-1.5625,0
24640,-2.375,-5.6875,-0.1875,0
24660,-2.375,-3.375,-0.0625,0
24680,-3.1875,-2.75,0.125,0
24700,-2.6875,-2.5,-0.5625,0
24720,-1.9375,-3,-2.125,0
24740,-0.25,-2.375,-0.75,0
24760,-1.4375,-1.4375,-1.875,0
24780,0.1875,-1.625,-1.9375,0
24800,-0.6875,-0.75,-1.625,0
24820,-0.875,-1.375,-1.0625,0
24840,-0.8125,-1.5625,0.4375,0
24860,-1.125,-0.1875,1.1875,0
24880,-0.6875,-0.25,0.6875,0
24900,-0.3125,0.125,1.125,0
24920,0,-1.75,1.625,0
24940,-0.1875,-2.9375,1.375,0
24960,0.375,-2.3125,2.375,0
24970,0.875,-2.75,2.0625,0
24990,1.0625,-3.1875,1.25,0
25010,0.75,-2.125,1.625,0
25030,0.25,-1.6875,0.5625,0
25050,0,-2.3125,0.25,0
25070,-0.5625,-1.875,-1.375,0
25090,-0.5625,-1.6875,-2.4375,0
25110,-0.5625,-1.75,-2.125,0
25130,0.375,-0.5625,-0.9375,0
25150,0.9375,0.875,0.25,0
25170,0.9375,1.6875,-0.25,0
25190,1.4375,1.125,-0.75,0
25210,1.875,-0.3125,-0.8125,0
25230,1.75,0.5625,-2.125,0
25250,0,2.0625,-4.3125,0
25270,-0.6875,2.5,-5.9375,0
25290,-1.9375,-0.5625,-6.125,0
25310,2.8125,0.5,-4.0625,0
25330,5.1875,-0.3125,-2.5,0
25350,2.875,-1.4375,-0.875,0
25370,2.625,-2.8125,2.75,0
25390,7.6875,-3.375,-0.6875,0
25410,4.75,2.25,-2.4375,0
25430,2,5,-1.9375,0
25450,-0.3125,0.9375,2.5625,0
25470,4.0625,2,1.3125,0
25490,3.9375,4.25,-0.75,0
25510,4.625,2.5,0.5,0
25530,4.4375,1.6875,1.9375,0
25550,3.0625,3,0.5,0
25570,1,3.6875,0.25,0
25590,1.3125,3.8125,0.5625,0
25610,-0.0625,4.3125,-0.4375,0
25630,-1,6.0625,-2.375,0
25650,-2.375,5.9375,-3.75,0
25670,-1.5625,4.875,-2.4375,0
25690,-1.875,2.6875,2.125,0
25710,1.25,4.6875,-1.875,0
25730,-0.5,5.125,-6.5625,0
25750,1.4375,2.375,-6.3125,0
25770,3.75,1.25,-3.1875,0
25790,-0.875,2.1875,0.5625,0
25810,-0.25,4.0625,-3.125,0
25830,-0.0625,1.5,-2.6875,0
25850,0.3125,-2.1875,-1.4375,0
25870,0.25,-2.9375,-1.9375,0
25890,-2.125,-1.0625,-1.4375,0
25910,-1.875,1.5625,-1.1875,0
25930,-2.3125,3.25,-1.625,0
25950,-1.5,1.0625,-0.0625,0
25970,1.125,-2.25,1,0
25990,1.875,-1.75,0.5,0
26010,0.5625,-3.25,-1.0625,0
26030,1.1875,-2.5625,-0.375,0
26050,1.375,-2.8125,-0.4375,0
26070,1.1875,-4.4375,-0.625,0
26090,1.375,-3.6875,-0.5,0
26110,0,-3.5,-1.6875,0
26130,0.8125,-3.3125,-0.5625,0
26150,0.1875,-3.3125,0.6875,0
26170,-2.0625,-0.75,-2,0
26190,-4.1875,0.8125,-3.625,0
26210,-6,0.5,-4.3125,0
26230,-7.8125,2.75,-6.25,0
26250,-8.0625,6.8125,-8,0
26270,-9.6875,8,-8.1875,0
26290,-10.875,3.5,-5.125,0
26310,-10,-1.625,-1.8125,0
26330,-6.4375,-4.25,1.8125,0
26350,-5.625,-6.5,4.25,0
26370,-7.3125,-8.75,3.375,0
26390,-9.875,-11.8125,3.6875,0
26410,-10.5,-16.25,1.8125,0
26430,-14,-20.75,-3.1875,0
26450,-15.8125,-27.125,-6.9375,0
26470,-15.1875,-33.9375,-7.1875,0
26490,-17.5625,-36.0625,-8.1875,0
26510,-18.625,-37.25,-8.5625,0
26530,-18.25,-39.4375,-6.0625,0
26550,-16.5,-39.25,-7.25,0
26570,-16.6875,-37.8125,-8.8125,0
26590,-13.25,-35.8125,-7.8125,0
26610,-8.4375,-28.6875,-5.125,0
26630,-5.3125,-16.625,-3.875,0
26650,-3.9375,-1.9375,-5.25,0
26670,2.375,10.5,-2.4375,0
26690,7.3125,25.25,-1.125,0
26710,7.5625,45.75,-0.6875,0
26730,10,64.1875,1.75,0
26750,14.5625,73.625,2,0
26770,17.5625,75.4375,-2.5625,0
26790,18.1875,77.875,-9.5,0
26810,15.5625,79.3125,-15.9375,0
26830,15.875,78.875,-17.1875,0
26850,16.3125,73.6875,-15.8125,0
26870,22.4375,66.1875,-16.625,0
26890,26.5,60.75,-9.5625,0
26910,18.6875,62.1875,-1.0625,0
26930,11.75,60.125,0.875,0
26950,15.875,46,7.0625,0
26970,18.0625,32.9375,5.3125,0
26990,9.9375,18.0625,5.6875,0
27010,10.5625,2.4375,12.25,0
27030,10.75,-8.875,12.5,0
27050,9.9375,-22.1875,17,0
27070,1.375,-37.625,23.125,0
27090,-3.25,-48.625,23.6875,0
27110,-11.1875,-50.625,21.75,0
27130,-17.75,-49.5,10.25,0
27150,-20.4375,-55.125,1.8125,0
27170,-9.875,-60.0625,-0.1875,0
27190,-26.5625,-58.625,-1.8125,0
27210,-32.5625,-67.625,9.25,0
27230,-26.125,-74.875,19.375,0
27250,-21,-78.8125,20.75,0
27270,-21.5625,-82.75,20,0
27290,-21.5625,-85.75,10.375,0
27310,-23.5,-83.625,-6.125,0
27330,-23.3125,-74.375,-20.75,0
27350,-24.5625,-62.1875,-23.3125,0
27370,-22.875,-51.9375,-20.25,0
27390,-21.4375,-41.5625,-18.6875,0
27410,-16.5,-32,-12.25,0
27430,-11.5625,-17.3125,-9.6875,0
27450,-10.125,1.125,-10.5625,0
27470,-7.4375,19.75,-11.9375,0
27490,-3.75,37.0625,-14.0625,0
27510,1.1875,51.875,-12.75,0
27530,3.25,64.375,-14.9375,0
27550,3.25,76.0625,-15.8125,0
27570,5.0625,84.1875,-10.1875,0
27590,8.1875,89.875,-9.125,0
27610,10.1875,91.4375,-12.8125,0
27630,4.4375,88.75,-13.5,0
27650,4.75,82.1875,-20.8125,0
27670,8.1875,73.75,-27.0625,0
27690,10.8125,73.4375,-29.1875,0
27710,17.1875,73.625,-20.375,0
27730,17.5,67.25,-2.875,0
27750,20.9375,55.9375,15.625,0
27770,26.1875,48.6875,27.8125,0
27790,19.1875,45.6875,19.6875,0
27810,13.75,36.625,10.8125,0
27830,12,22.75,6.75,0
27850,16.25,6.625,3.25,0
27870,14.375,-5.0625,5.6875,0
27890,7.4375,-11.6875,10.5,0
27910,2.3125,-18,10.625,0
27930,-2.875,-23.625,9,0
27950,-7.375,-27.3125,7.4375,0
27970,-8.1875,-28.4375,4.75,0
27990,-10,-29.125,3.1875,0
28010,-11,-32.375,1.1875,0
28030,-8.5625,-36.625,1.5625,0
28050,-8,-37.5625,1.3125,0
28070,-8.625,-35.125,0.125,0
28090,-8.8125,-30.875,-0.4375,0
28110,-10,-26.0625,-2.125,0
28130,-9.875,-23.0625,-2.375,0
28150,-8.6875,-22.125,-2,0
28170,-8.1875,-19.1875,-0.625,0
28190,-5.5,-11.625,0.3125,0
28210,-3.5,-3.9375,0.6875,0
28230,-2.5,1.6875,0.9375,0
28250,-1.5,4.125,1.3125,0
28270,1.5625,4.875,2.5625,0
28290,3.1875,7.8125,2.4375,0
28310,4.125,12.1875,0.9375,0
28330,5.125,14.625,-0.4375,0
28350,6.125,15.3125,-1,0
28370,5.5,16.6875,-0.625,0
28390,5.125,17.9375,-0.0625,0
28410,4.875,18.0625,0.6875,0
28420,2.1875,16.6875,1.0625,0
28440,1,15.5625,1.1875,0
28460,-2.5625,15.0625,1.75,0
28480,-4.0625,14.375,2,0
28500,-2.8125,13.1875,1.875,0
28520,-2.0625,12.25,3.5625,0
28540,-3.4375,10.625,4.75,0
28560,-5.75,9.25,4.625,0
28580,-4.125,8.4375,4.375,0
28600,-4.8125,8.625,3.25,0
28620,-1.6875,8.6875,2,0
28640,-2.125,7.1875,3.0625,0
28660,-1.0625,4.75,2.9375,0
28680,0.75,3.125,2.875,0
28700,1.4375,1.9375,1.5625,0
28720,2.625,0.8125,0.5625,0
28740,1.625,-1.1875,2.0625,0
28760,1.625,-1.375,3.5625,0
28780,0.375,-1.5,2.4375,0
28800,-0.125,-1.5625,1.8125,0
28820,-0.125,-2.125,2.625,0
28840,-0.25,-2.5625,3.9375,0
28860,-0.5625,-2.375,4.625,0
28880,-1.1875,-2.25,4.1875,0
28900,-0.1875,-2.3125,4.5,0
28920,0.8125,-1.4375,5.9375,0
28940,1.25,0,7.25,0
28960,0.3125,1.0625,7.8125,0
28980,-0.6875,2.5,7.6875,0
29000,-0.5,4.625,7.125,0
29020,-0.5,5.9375,6.0625,0
29040,-0.5,7.8125,6.625,0
29060,-1.75,10.625,5.875,0
29080,2.125,11.1875,4.625,0
29100,2.625,10.9375,5.3125,0
29120,-0.3125,12.6875,5.625,0
29140,-0.5,14.375,5.4375,0
29160,-0.875,14.8125,6.1875,0
29180,-1.8125,13.625,6.75,0
29200,-0.8125,10.375,5.375,0
29220,1.375,8.75,5.4375,0
29240,3.125,8.75,5,0
29260,2,9.8125,4.4375,0
29280,1.5,8.375,4.3125,0
29300,2.4375,6.375,3,0
29320,3.3125,5.5625,3.1875,0
29340,4.0625,5.9375,2.6875,0
29360,3.0625,6.5625,1.6875,0
29380,3.5,6.3125,1.0625,0
29400,4.5625,5.3125,-0.4375,0
29420,3,1.8125,-0.125,0
29440,3.25,-0.875,0.875,0
29460,3.3125,-3.1875,1.6875,0
29480,2.9375,-3.125,2.5,0
29500,3.1875,-3.8125,1.875,0
29520,3.6875,-5.25,0.875,0
29540,2.5,-6.1875,1.0625,0
29560,1.875,-6.9375,0.5625,0
29580,1.5625,-7.8125,1.375,0
29600,2.625,-7.9375,1.6875,0
29620,0.5625,-7.5625,1.4375,0
29640,1,-6.8125,0.5625,0
29660,0.75,-6.375,0.75,0
29680,0,-5.9375,1,0
29700,-0.6875,-5.9375,1.8125,0
29720,-0.125,-6.375,1.6875,0
29740,0.0625,-6.1875,0.125,0
29760,1.3125,-5.25,-0.9375,0
29780,0.875,-3.75,-2.625,0
29800,1.5,-2.5625,-3.75,0
29820,1.6875,-0.1875,-5.1875,0
29840,3.6875,3.5625,-6.9375,0
29860,3,8.875,-7.5,0
29880,0.875,16.75,-6.75,0
29900,-0.375,23.5,-9,0
29920,-3.875,27.75,-11.6875,0
29940,-5.0625,28,-15.875,0
29960,-6.4375,27.625,-18.3125,0
29980,-6.0625,27.3125,-21.875,0
30000,-9.5,23.3125,-25.25,0
30020,-13.125,20.125,-27.875,0
30040,-17.3125,16.8125,-33.1875,0
30060,-19.4375,10.5,-41.125,0
30080,-21.125,2.3125,-46.1875,0
30100,-23.6875,-7.625,-49.625,0
30120,-23.75,-15.125,-52.3125,0
30140,-23.25,-21.75,-50.75,0
30160,-24.0625,-27,-50.6875,0
30180,-26.25,-29.8125,-51.0625,0
30200,-26.125,-34.5,-49.25,0
30220,-20,-37,-45.375,0
30240,-19.0625,-34.9375,-36.9375,0
30260,-17.0625,-32,-29.625,0
30280,-10.3125,-30.125,-21.75,0
30300,-5.625,-25.875,-12.9375,0
30320,-0.875,-20.9375,-4,0
30340,4.625,-13.3125,3.5625,0
30360,11.1875,-3.875,11.5625,0
30380,17.3125,7.375,22.0625,0
30400,21.875,18.0625,33.4375,0
30420,26.0625,24.8125,45.0625,0
30430,31.0625,29.375,51.9375,0
30450,34.9375,32.125,59.5625,0
30470,35.5625,33.25,71.0625,0
30490,32.25,35.1875,82.25,0
30510,26.875,34.375,86.25,0
30530,14.75,29.0625,86.9375,0
30550,9.875,25.125,79.0625,0
30570,7.0625,21.3125,70.375,0
30590,10.1875,14.875,66.625,0
30610,10.0625,5.3125,61.75,0
30630,11.375,-7.3125,57.375,0
30650,13.5625,-22,50.125,0
30670,15.3125,-30.9375,40.75,0
30690,13.5625,-34.0625,29.1875,0
30710,6.9375,-35.75,18,0
30730,0.625,-35.6875,10.125,0
30750,-2.0625,-34.875,-1.0625,0
30770,-10.6875,-35.4375,-10.875,0
30790,-14.6875,-34.8125,-17.3125,0
30810,-16.3125,-34.8125,-28.125,0
30830,-21.25,-33.4375,-39.75,0
30850,-23,-29.25,-49,0
30870,-25.875,-27.25,-58.125,0
30890,-22.625,-21.4375,-66.0625,0
30910,-21.125,-11.9375,-70.5,0
30930,-22.5625,2.625,-74.1875,0
30950,-19.5,13,-71.5625,0
30970,-17.25,27.5,-65.8125,0
30990,-16.875,42.5625,-53.5625,0
31010,-11.6875,56.0625,-49.25,0
31030,-0.0625,66.8125,-38.875,0
31050,5.375,78,-15.125,0
31070,9,93.5,3.875,0
31090,3.25,106.25,11.875,0
31110,-17.5625,110.562,22.0625,0
31130,-36.875,116.688,30.4375,0
31150,-33.75,111.062,31.5625,0
31170,-27,98.5,30.4375,0
31190,-13.5625,90.25,16.1875,0
31210,-9.875,79.1875,8.8125,0
31230,-9.8125,62.5625,-1.0625,0
31250,-5.125,45.4375,-16.3125,0
31270,1.625,25.125,-34.75,0
31290,16.75,9.375,-48.625,0
31310,17.9375,-5.25,-54.1875,0
31330,14.625,-18.625,-50.375,0
31350,4.6875,-29.75,-39.5,0
31370,-2.5,-39.1875,-30,0
31390,-7.5625,-49.4375,-19.5,0
31410,-7.3125,-58.875,-0.9375,0
31430,-8.4375,-65.375,16.5,0
31450,-9.0625,-69.6875,31.3125,0
31470,-11.4375,-71.5,48.1875,0
31490,-15.875,-71.5,56.0625,0
31510,-10.625,-67.4375,62.75,0
31530,-5.6875,-58.5625,69.1875,0
31550,-1.25,-48.0625,75.5,0
31570,6.375,-42,78.1875,0
31590,14.0625,-38.375,82.875,0
31610,9.25,-31.8125,92.8125,0
31630,4.375,-26.75,91.4375,0
31650,10.1875,-24.5,88.375,0
31670,11.6875,-22.875,78.375,0
31690,9.5,-19.125,56.1875,0
31710,10.75,-18.375,44.25,0
31730,12.375,-21.25,28.1875,0
31750,13.0625,-25.4375,8.4375,0
31770,13,-28.375,-6.9375,0
31790,26.4375,-28.625,-18.3125,0
31810,31.25,-27.4375,-24.1875,0
31830,27.625,-24.375,-19.375,0
31850,7.1875,-16.5,-14.5625,0
31870,-11.1875,-2,-21.375,0
31890,-15.75,10.625,-29.4375,0
31910,-21.5,21,-25.625,0
31930,-33.5625,32.5625,-13.25,0
31950,-37.125,36.875,-6.9375,0
31970,-29,41.0625,-1.4375,0
31990,-24.5,45.4375,4.125,0
32010,-16.75,51.75,11.25,0
32030,-17.25,56.4375,14.0625,0
32050,-22.4375,61.875,20.5,0
32070,-28.9375,62.5625,20.375,0
32090,-23.4375,56.125,18,0
32110,-11.75,44.125,15.1875,0
32130,7.0625,32,8.9375,0
32150,21.25,23.5625,0.3125,0
32170,24.25,17.25,3,0
32190,20.75,12.125,7.5625,0
32210,10.8125,6.375,12.4375,0
32230,8.125,0.75,19.625,0
32250,7.0625,-4.3125,22.875,0
32270,8.875,-6.8125,17.3125,0
32290,11.8125,-7,14,0
32310,14.0625,-8.75,21.625,0
32330,7.5625,-11.25,22.6875,0
32350,6.875,-12.0625,23.4375,0
32370,3.125,-15.375,30.4375,0
32390,6.375,-19.5,27.4375,0
32410,8.6875,-18.25,20.0625,0
32430,7.875,-15.4375,11.0625,0
32450,5.625,-17.9375,14.875,0
32470,4.625,-21.375,22.5,0
32490,12.125,-24.9375,19.3125,0
32510,19,-29.8125,23.75,0
32530,20.625,-27.25,18,0
32550,16.875,-24.9375,12.5,0
32570,12.4375,-22.1875,15.625,0
32590,7.5625,-21.5625,9.5625,0
32610,12.875,-22.0625,-0.25,0
32630,0.375,-22.375,-4.6875,0
32650,-0.3125,-22,2.3125,0
32670,-2.5625,-18.4375,5.875,0
32690,4.375,-13.5,5.875,0
32710,5.9375,-11.75,10.1875,0
32730,0.0625,-11.75,10.375,0
32750,-0.9375,-12.8125,11.75,0
32770,1.6875,-15.6875,12.6875,0
32790,6.6875,-19.75,11,0
32810,6.0625,-14.9375,8.75,0
32830,-0.4375,-9.6875,-5.3125,0
32850,-6.0625,-8.75,-11.0625,0
32870,-7.125,-8.5,-6.3125,0
32890,-5.25,-7,-5.375,0
32910,-0.625,-7.125,0.3125,0
32930,-5.8125,-8.75,3.8125,0
32950,-8.6875,-5.1875,2.5625,0
32970,-6.375,-0.75,-0.75,0
32990,-7.75,0.75,-0.8125,0
33010,-4.8125,-0.125,-5.375,0
33030,-6.25,2.8125,-5.625,0
33050,-7.0625,5,-3.5,0
33070,-8.25,6.75,-10.8125,0
33090,-4.5625,6.4375,-14.875,0
33110,-0.875,4.625,-9.625,0
33130,-0.25,4.5625,-6.75,0
33150,1.4375,5.9375,-7.1875,0
33170,4.4375,2.3125,-18,0
33190,0.6875,-0.375,-23.75,0
33210,-7.0625,2.875,-18.1875,0
33230,-8.4375,6.1875,-14.75,0
33250,-4.8125,0.9375,-13.3125,0
33270,-0.375,-2.25,-13,0
33290,-11.3125,2.5625,-15.25,0
33310,-11.6875,3.6875,-13.125,0
33330,-3.375,-0.5,-9.75,0
33350,1.5,-4.0625,-8.6875,0
33370,0.625,-6.125,-4.875,0
33390,-5.5625,-3.6875,-2.375,0
33410,-6.9375,-2.5625,0.5,0
33430,-5.3125,-0.6875,-1.4375,0
33450,-0.625,-1,-3,0
33470,-0.9375,-2.4375,-1.4375,0
33490,1.75,-0.25,0,0
33510,-4.25,1.5,-1.1875,0
33530,-0.5,0.25,4.375,0
33550,-2.4375,-0.25,3,0
33570,-1.8125,0.9375,3.125,0
33590,-2.75,-0.25,2.75,0
33610,-0.8125,-0.875,2,0
33630,-1.25,-1.875,0.9375,0
33650,-1.25,-2.5,3.1875,0
33670,-3.4375,-1.5625,3.6875,0
33690,-1.4375,-1.875,5.75,0
33710,-1.3125,-4.0625,9.0625,0
33730,-3.625,-4.5,10.5,0
33750,-3.25,-3.25,12.9375,0
33770,-2.625,-2.3125,15.875,0
33790,-2.0625,-2.875,16.25,0
33810,-1.6875,-4.0625,18.625,0
33830,-2.4375,-3.75,20.25,0
33850,-4.625,-2.6875,17.4375,0
33860,-3.375,-1.9375,15.4375,0
33880,-3,-2.5625,16.4375,0
33900,-4.75,-3.1875,19.25,0
33920,-6.25,-1.8125,19.8125,0
33940,-8.4375,-1.125,19.6875,0
33960,-14.6875,-1.875,20.5625,0
33980,-19.625,-1.375,20.875,0
34000,-23,-1.9375,20.9375,0
34020,-22.6875,-1.4375,19.75,0
34040,-24.875,-3.4375,20.0625,0
34060,-25.0625,-3.4375,19.75,0
34080,-27.3125,-3.5625,16.6875,0
34100,-27.5625,-4.375,15,0
34120,-20.4375,-5.1875,13.375,0
34140,-18.5625,-6.0625,13,0
34160,-21.9375,-4.9375,10.875,0
34180,-20.5,-3.0625,5.875,0
34200,-13.625,-5.3125,5,0
34220,-7.125,-8.9375,4.5,0
34240,-7.8125,-8.75,1.75,0
34260,-7.875,-9.5,-1.1875,0
34280,-2.9375,-7.75,-2.9375,0
34300,1.75,-9.4375,-0.5625,0
34320,4.5625,-9.125,0.1875,0
34340,2.625,-7.375,-0.375,0
34360,-2.9375,-6.8125,0.9375,0
34380,-3.5625,-5.8125,0.625,0
34400,-1,-4.3125,-0.5625,0
34420,3.25,-3.625,-2.875,0
34440,-0.0625,-3.0625,-2.3125,0
34460,-4.5,-1.3125,-3.1875,0
34480,-3.875,-1.1875,-4.625,0
34500,-1.6875,-1,-4.1875,0
34520,0.8125,0.75,-3.8125,0
34540,-1.375,0,-3.625,0
34560,-5.5625,1.1875,-1.3125,0
34580,-5.4375,3.4375,-2.5,0
34600,-7.625,1.375,-1.1875,0
34620,-6.625,2.1875,-2.1875,0
34640,-2.1875,1.5625,-3.4375,0
34660,-3.5625,-0.0625,-1.5,0
34680,-9.8125,-0.625,1.75,0
34700,-8.6875,1.8125,0.125,0
34720,-4.875,0.6875,-1.1875,0
34740,-1.9375,-0.5625,-1.25,0
34760,-4.4375,-0.5,-0.5,0
34780,-6.5,-0.0625,1.5,0
34800,-2.75,0.75,0.8125,0
34820,-2.9375,-0.3125,0.125,0
34840,-5.6875,-0.8125,1.1875,0
34860,-4.125,-0.25,0.1875,0
34880,-0.875,-0.4375,-1.75,0
34900,-0.0625,-1.4375,-1.5625,0
34920,-1.375,-1.375,-1.1875,0
34940,-0.5,-0.3125,-2.75,0
34960,-0.5625,-1.25,-2.25,0
34980,-3.25,-1,-1.3125,0
35000,-6.875,-0.8125,-0.375,0
35020,-4.375,0.75,-2.4375,0
35040,-1.375,1.75,-2.8125,0
35060,-4.8125,1.125,-0.625,0
35080,-6.0625,2.8125,-0.1875,0
35100,-3.875,2,0.0625,0
35120,-1.4375,0.25,1.8125,0
35140,-0.3125,2.125,0.0625,0
35160,-6.375,1.125,2,0
35180,-8.9375,3.1875,2.8125,0
35200,-4.6875,2.5625,2.5625,0
35220,-1.625,1.1875,1,0
35240,2.5625,-0.125,0.5625,0
35260,0.25,-0.375,0.25,0
35280,-1.125,-0.0625,0.1875,0
35300,0.1875,-0.8125,-0.75,0
35320,2.6875,-1.3125,-2.1875,0
35340,3.9375,-3.3125,-1,0
35360,2.625,-3,-0.6875,0
35380,1.4375,-2.5625,-0.5625,0
35400,0.3125,-2.4375,-0.5625,0
35420,-0.3125,-2.0625,-0.25,0
35440,-0.25,-1.1875,0,0
35460,-0.8125,-1.125,0.25,0
35480,-0.5,0.25,-0.25,0
35500,-1.125,0.9375,0.4375,0
35520,-2.625,1.9375,0.4375,0
35540,-2.8125,1.875,0.5625,0
35560,-2.125,1.6875,-0.3125,0
35580,0.125,2.1875,-0.75,0
35600,2.6875,1.6875,-0.75,0
35620,1.0625,1.5,0,0
35640,-0.125,0.8125,0.75,0
35660,-0.125,1.1875,-0.1875,0
35680,-0.8125,2,0.6875,0
35700,-1.5,2.1875,2.3125,0
35720,-2.0625,2.3125,3.5625,0
35740,-3.4375,2.9375,3.875,0
35760,-3.5,1.625,3.625,0
35780,-1.75,0.3125,2.875,0
35800,-1.625,0.4375,2.8125,0
35820,-2.0625,1.75,1.8125,0
35840,-0.3125,2,0.375,0
35860,1.8125,0.8125,0.75,0
35880,0.875,1.125,0,0
35890,0.875,1.6875,-0.25,0
35910,2.4375,1.375,-1.3125,0
35930,2.4375,0.625,-0.125,0
35950,0.3125,1.375,1.25,0
35970,-2.3125,1.5625,0.9375,0
35990,0.5625,0.75,-0.8125,0
36010,2.8125,-0.8125,-0.5,0
36030,-1.375,-1.25,0.625,0
36050,-3.25,-1.0625,0.25,0
36070,-1.375,-1.1875,-1.9375,0
36090,1,-2.6875,-1,0
36110,-0.8125,-2.375,-0.8125,0
36130,-1.1875,-0.875,-2,0
36150,-1.75,-0.9375,-1.5625,0
36170,-1.5625,-0.625,-0.8125,0
36190,-1.1875,-0.5,-0.375,0
36210,1.25,0.3125,-0.6875,0
36230,-1.375,0.5,-1.125,0
36250,-3.5625,1.375,-0.1875,0
36270,-1.3125,0.75,0.5625,0
36290,0.25,0.75,-0.3125,0
36310,0.25,0.1875,-0.1875,0
36330,-1.375,0.125,0.1875,0
36350,-1.875,0.5,0.25,0
36370,-1.9375,0.5625,0.125,0
36390,-2.0625,0.5,-0.125,0
36410,1,0.1875,-0.125,2000
36430,0,0.125,0.6875,0
36450,0.1875,0,1.9375,0
36470,-2.375,-0.6875,2.1875,0
36490,-3.9375,-0.6875,0.8125,0
36510,1.3125,-1.1875,-3.0625,0
36530,1.8125,-2.4375,-3.25,0
36550,-1.4375,-2.125,-0.3125,0
36570,-0.875,-0.5625,-0.625,0
36590,2.1875,-1.5625,-0.5,0
36610,2.4375,-2.3125,0.75,0
36630,-1.9375,-2.8125,1.5625,0
36650,-2.3125,-1.4375,0,0
36670,1.4375,-0.625,-0.6875,0
36690,2,-1.6875,0.9375,0
36710,0.4375,-2.375,1.125,0
36730,-2.0625,-2.6875,0.3125,0
36750,1.125,-3.1875,-0.0625,0
36770,2.3125,-3.9375,-0.6875,0
36790,0.3125,-5.5625,0.4375,0
36810,-2.4375,-6.125,0.75,0
36830,-2.6875,-5.5625,-2.125,0
36850,-1.125,-7.1875,-2.1875,0
36870,0.5,-9.6875,-1.0625,0
36890,0.375,-10.375,-1,0
36910,2.25,-11.3125,-1.75,0
36930,1,-12.125,-1.875,0
36950,2,-13.4375,-1.125,0
36970,1.5,-14.375,-1.125,0
36990,2.0625,-13.9375,-1.5,0
37010,4.75,-13.9375,-2,0
37030,5.25,-14.5,-1.4375,0
37050,5.4375,-15.125,-0.6875,0
37070,6.5625,-15.3125,-1.25,0
37090,8.6875,-15.25,-3.125,0
37110,13.4375,-16.6875,-5.0625,0
37130,10.5,-16.6875,-4.0625,0
37150,8.0625,-16.6875,-2.6875,0
37170,6,-18.8125,-3.4375,0
37190,10.4375,-19.125,-6.1875,0
37210,14.5625,-21.0625,-6.375,0
37230,15.4375,-23,-6.75,0
37250,20.5625,-31.4375,-4.6875,0
37270,15.3125,-25.625,-5.0625,0
37290,14.75,-24.625,-6.9375,0
37310,16.0625,-25.375,-6.5625,0
37330,14.375,-30.6875,-9.3125,0
37350,9.5625,-28.4375,-9,0
37370,8.875,-27.5,-8.0625,0
37390,12.1875,-28.375,-9.375,0
37410,15.25,-29.5625,-10.125,0
37430,14.9375,-27.5625,-10.875,0
37450,11.0625,-25.875,-11.3125,0
37470,12.625,-26.6875,-13.875,0
37490,13.75,-28.6875,-16.9375,0
37510,9.8125,-26.875,-18.25,0
37530,6.75,-25.5,-20.8125,0
37550,4,-24.875,-22.25,0
37570,5.1875,-22.9375,-22.375,0
37590,6.25,-22.625,-26.5,0
37610,5.6875,-21.5625,-28.875,0
37630,3.1875,-21.125,-27.4375,0
37650,3.875,-21.9375,-29,0
37670,2.625,-19,-31.8125,0
37690,2.375,-20.75,-31.4375,0
37710,-0.375,-25.6875,-30.9375,0
37730,-3.3125,-21.125,-35.0625,0
37750,-8.5625,-17.75,-33.75,0
37770,-12.5625,-24.375,-31.9375,0
37790,-12.6875,-15.0625,-30.1875,0
37810,-15.625,-15.875,-28.6875,0
37830,-17,-16,-32,0
37850,-18.0625,-12.5625,-35.9375,0
37870,-20.9375,-25.25,-38.5625,0
37890,-22.1875,-8.625,-39.375,0
37910,-22.6875,-9.75,-41.25,0
37930,-23.8125,-14.375,-48.375,0
37950,-29.5625,-8,-48.1875,0
37970,-31.125,-6.875,-50.375,0
37990,-30.625,-3.6875,-50.125,0
38010,-33.75,0.8125,-50.1875,0
38030,-34.5,1.125,-49,0
38050,-36.25,3.125,-47.875,0
38070,-36.8125,5.6875,-47,0
38090,-33.8125,8.5,-45.4375,0
38110,-29.75,12.25,-40.4375,0
38130,-28,17.9375,-34.8125,0
38150,-25.1875,23.6875,-31.1875,0
38170,-21.8125,28.6875,-28,0
38190,-20.5625,31.8125,-25.75,0
38210,-18.4375,35.8125,-23.5,0
38230,-14.6875,39.1875,-20.0625,0
38250,-14.3125,42,-16.8125,0
38270,-12.1875,43.5625,-16.5625,0
38290,-10.875,45.5,-13.4375,0
38310,-12.3125,47.25,-11.6875,0
38330,-11.625,46.8125,-12.875,0
38350,-9.25,43.3125,-11.75,0
38370,-11.25,41.5,-8.5,0
38390,-13.1875,43.125,-11.125,0
38410,-15.0625,43.0625,-12.5625,0
38430,-16.25,42.875,-12.5625,0
38450,-13.4375,39.5625,-14.0625,0
38470,-13.375,35.3125,-12,0
38490,-15.875,34.1875,-10.4375,0
38510,-18.625,36.375,-6.375,0
38530,-19.5,36.3125,-6.3125,0
38550,-15.3125,36,-7.1875,0
38570,-13.375,32.9375,-3.3125,0
38590,-9.625,30.5625,3.1875,0
38610,-11.4375,34.0625,2.5,0
38630,-4.9375,35.75,3.125,0
38650,-3.25,30.6875,6.25,0
38670,2.3125,22.5625,17.5,0
38690,9.0625,23.3125,13.75,0
38710,9.8125,19.5,14.5,0
38730,-1.125,20.5625,15.375,0
38750,-1.6875,19.6875,20,0
38770,5.9375,13.125,23.9375,0
38790,14.625,4.4375,26.5625,0
38810,21,4,30.5,0
38830,24.375,8,31.6875,0
38850,16.125,12.4375,26.3125,0
38870,5.5,9.625,31.25,0
38890,-2.875,5.25,31.375,0
38910,-5.0625,4.125,28.75,0
38930,2.25,1.125,27.875,0
38950,7.375,0.75,31.0625,0
38970,0.25,2.625,31.1875,0
38990,-4.625,1.375,32,0
39010,-5.8125,-1.0625,31.8125,0
39030,0.5625,-4.625,31.8125,0
39050,5.1875,-6.375,34.25,0
39070,0,-5.5,33.625,0
39090,-7.4375,-5.1875,31.75,0
39110,-5.0625,-8.0625,29.125,0
39130,1.875,-11.25,29.6875,0
39150,2.375,-12.375,28.375,0
39170,-0.5,-9.125,26.3125,0
39190,-0.9375,-10,23.625,0
39210,-1.6875,-12.9375,24.25,0
39230,-0.4375,-16.375,24.0625,0
39250,0.25,-17.25,23.4375,0
39270,0.875,-19.25,24.5,0
39290,1.1875,-22.625,24.875,0
39310,-1.0625,-24.25,23.8125,0
39320,-1.5,-25.4375,24.625,0
39340,-3.1875,-28.25,28.1875,0
39360,-4.75,-28,25.875,0
39380,-3.5,-27.8125,24.1875,0
39400,-2.9375,-28.875,26.75,0
39420,-3.1875,-30.625,27.75,0
39440,-2.6875,-30.5,27.875,0
39460,-2.125,-28.375,25.875,0
39480,-1.125,-26.75,23.6875,0
39500,-1.8125,-27.375,25.25,0
39520,-3.125,-28.1875,25.75,0
39540,-1.125,-28.3125,25.8125,0
39560,0.125,-26.3125,22.875,0
39580,1.75,-27.25,20.9375,0
39600,-1.3125,-29.4375,23.25,0
39620,-0.6875,-28.0625,21.4375,0
39640,-0.75,-27.6875,18.4375,0
39660,-4.375,-29.75,20.8125,0
39680,-5.25,-27.625,18.875,0
39700,-2.6875,-24.3125,13.6875,0
39720,-2,-26.625,13.25,0
39740,-4.9375,-28.4375,13.75,0
39760,-3.8125,-29.0625,8.875,0
39780,2.6875,-28,2.125,0
39800,2.9375,-29.1875,-0.125,0
39820,3,-31.125,-1.8125,0
39840,2.8125,-33.125,-5.3125,0
39860,1.3125,-32.0625,-6.9375,0
39880,0,-32.3125,-12.1875,0
39900,4.375,-34.1875,-15.375,0
39920,7.0625,-33.4375,-14.375,0
39940,10.5625,-36.6875,-15.9375,0
39960,5.0625,-35.5625,-16,0
39980,3.8125,-36,-15.75,0
40000,6.4375,-36.25,-13.4375,0
40020,5.0625,-35.9375,-17.3125,0
40040,6.375,-40.625,-20.625,0
40060,1.875,-40.5,-18,0
40080,-1.6875,-35.3125,-20.4375,0
40100,-15.0625,-34,-20.625,0
40120,-3.75,-37.4375,-22.6875,0
40140,-1.6875,-37.9375,-24.3125,0
40160,-4.9375,-33,-23.25,0
40180,0.75,-26.3125,-24.375,0
40200,0.375,-28.25,-24.1875,0
40220,-4.4375,-29.1875,-26.8125,0
40240,-0.8125,-26.125,-32.25,0
40260,-1.0625,-24.875,-30.875,0
40280,-6.9375,-26.3125,-29.3125,0
40300,-9.0625,-21.6875,-34.25,0
40320,-8.0625,-20.125,-37.875,0
40340,-7.875,-16.5625,-39.25,0
40360,-8.5625,-17.1875,-37.1875,0
40380,-10.125,-8.9375,-38.4375,0
40400,-11.6875,-6.8125,-37.8125,0
40420,-14.5625,-5,-37.1875,0
40440,-16.875,-2.5625,-41,0
40460,-18.6875,-2,-46.125,0
40480,-16.5,-7.8125,-44.4375,0
40500,-20.375,4,-46.9375,0
40520,-22.5,8.0625,-46.125,0
40540,-23.1875,10.625,-47.9375,0
40560,-24.4375,13.6875,-48.0625,0
40580,-26.3125,17.9375,-47.5,0
40600,-26.5,22.75,-43.5,0
40620,-23.125,27,-39.75,0
40640,-16.9375,21.75,-38.375,0
40660,-21.6875,31.4375,-38.375,0
40680,-22.75,38.3125,-36.125,0
40700,-24.0625,40.8125,-27.875,0
40720,-24.5,48.4375,-21.8125,0
40740,-21.125,51.5625,-20.25,0
40760,-21.75,51.25,-20.75,0
40780,-26.0625,52.5625,-22,0
40800,-24.375,53.25,-20.625,0
40820,-25.0625,54.625,-15.6875,0
40840,-25.5625,51.9375,-13.3125,0
40860,-21.375,49.9375,-13.625,0
40880,-21.5,49.5,-16.75,0
40900,-20.9375,48.375,-14.375,0
40920,-17.3125,46.75,-11.0625,0
40940,-13.4375,45.5,-6.5625,0
40960,-11.125,47.875,-6.875,0
40980,-8,46.375,-7.5,0
41000,-3.625,40.625,-6.1875,0
41020,1.4375,34.625,-3.1875,0
41040,3.125,35.0625,-0.375,0
41060,6.125,36.25,-1.625,0
41080,4.0625,27.375,1.5625,0
41100,13.875,18.5625,14.6875,0
41120,17.0625,25.875,20.125,0
41140,13.625,30.375,17.25,0
41160,9.5625,27.5,10.625,0
41180,-3.5,21.375,20.75,0
41200,-5.625,21.75,29.0625,0
41220,-6.875,22.9375,27.375,0
41240,-6.8125,27.3125,29.25,0
41260,-3.3125,29.375,29.75,0
41280,-5.3125,27.875,32.625,0
41300,-9.0625,28.75,33.5,0
41320,-7.25,28.625,32.75,0
41330,-2.625,26.5,32.25,0
41350,-7.75,24,33.9375,0
41370,-10.375,22.9375,30.5,0
41390,-9.5,23,32,0
41410,-7.75,18.75,34.25,0
41430,-13.8125,15.5,36.5,0
41450,-15.5,13.9375,37.875,0
41470,-14.0625,10.625,36,0
41490,-13.8125,7.1875,35.4375,0
41510,-15.0625,5,37.75,0
41530,-15.0625,3.1875,38.25,0
41550,-13.6875,-1.75,36.875,0
41570,-13.8125,-5.25,34.8125,0
41590,-12.3125,-6,31.625,0
41610,-7.875,-8,28,0
41630,-4.75,-13.9375,29.125,0
41650,-5.25,-14.125,30.5,0
41670,-6.6875,-14.5,28,0
41690,-6,-20,28.125,0
41710,-6.3125,-21.625,29.4375,0
41730,-7.875,-23.25,29.3125,0
41750,-10.6875,-26.8125,31.375,0
41770,-11.3125,-25.1875,30.125,0
41790,-9.1875,-29.25,30.8125,0
41810,-10.6875,-33.875,34.6875,0
41830,-7.9375,-31.5625,31.5,0
41850,-2.625,-35.5,27.625,0
41870,-7.0625,-39.375,30.25,0
41890,-13.3125,-35.75,29.75,0
41910,-10.375,-36.875,25.625,0
41930,-5.1875,-40.1875,23.375,0
41950,-6.0625,-42.125,21.75,0
41970,-9,-40.125,18.4375,0
41990,-9.3125,-40.75,14.6875,0
42010,-4.6875,-43.1875,11,0
42030,-4.25,-44.4375,9.375,0
42050,-6.0625,-43.875,5.8125,0
42070,-3.125,-43.3125,1.8125,0
42090,-2.6875,-45.9375,1.5,0
42110,-1.6875,-46.0625,0.375,0
42130,-3.3125,-44.375,-4.125,0
42150,0.125,-45.1875,-8,0
42170,3.9375,-48,-7.5,0
42190,5.4375,-47.5625,-10.625,0
42210,0.5625,-46.4375,-13,0
42230,-1.25,-46.9375,-11.625,0
42250,4.0625,-47.375,-12.1875,0
42270,8.8125,-48.75,-14.6875,0
42290,0.9375,-49.9375,-14.375,0
42310,-1.1875,-46.5,-12.875,0
42330,0,-46.5,-16.625,0
42350,2.5625,-46.8125,-19.125,0
42370,2.25,-44.0625,-19,0
42390,1.25,-37.8125,-22.125,0
42410,11.0625,-34.4375,-26.8125,0
42430,20.375,-45.375,-26.9375,0
42450,7.125,-43.75,-24.75,0
42470,0.875,-38.875,-29.1875,0
42490,4.625,-32.75,-32,0
42510,6.5625,-32.625,-27.1875,0
42530,1.5625,-32.1875,-29,0
42550,5.1875,-30.9375,-30.375,0
42570,1.9375,-27.6875,-32.9375,0
42590,-5.625,-23,-34.125,0
42610,-18.9375,-21.875,-32.75,0
42630,-12.5625,-19.875,-34,0
42650,-14.75,-19.4375,-37.1875,0
42670,-12,-15.625,-38,0
42690,-16.875,-12.5625,-39.9375,0
42710,-10.9375,-12.25,-39.4375,0
42730,-12.875,-13.5,-41.6875,0
42750,-13.875,-8.8125,-44.1875,0
42770,-15.875,-5.0625,-44,0
42790,-17.3125,-3.1875,-44.3125,0
42810,-17.625,-1.375,-45.9375,0
42830,-16.6875,-0.75,-47.1875,0
42850,-18.5625,2.1875,-47.8125,0
42870,-21.875,7.5625,-48.0625,0
42890,-24.4375,12.5,-45.9375,0
42910,-22.4375,13.5,-42.9375,0
42930,-17.25,12.1875,-44.875,0
42950,-21.25,17.375,-44.25,0
42970,-24.3125,23.6875,-43.9375,0
42990,-22.5,30.8125,-44,0
43010,-20.1875,35.0625,-39.4375,0
43030,-22.25,34.3125,-33.375,0
43050,-23.125,36.5,-33.375,0
43070,-22.9375,40.5625,-35.4375,0
43090,-25.0625,45.3125,-33,0
43110,-21.9375,48.1875,-27.0625,0
43130,-18.3125,48.5625,-22.5625,0
43150,-17.5625,52.1875,-22.3125,0
43170,-17.875,53.0625,-20.9375,0
43190,-16.625,51.125,-16,0
43210,-8.8125,48.625,-10.75,0
43230,-3.125,46.875,-5.0625,0
43250,-6.375,48.5,-6,0
43270,-6.0625,43.8125,4.5625,0
43290,-5.8125,41.8125,8.4375,0
43310,8.1875,38.1875,17,0
43330,11.4375,41.75,27,0
43350,0.9375,49.25,28.6875,0
43370,-1,42.625,29.625,0
43390,-6.375,42.4375,33.5625,0
43410,-13.875,45.125,31.8125,0
43430,-18.375,44.5,25,0
43450,-18.625,38.6875,28.5625,0
43470,-10.9375,37.4375,31.375,0
43490,-15.5625,35.6875,27.125,0
43510,-18.125,33.0625,22.75,0
43530,-22.5,35.75,19.8125,0
43550,-19.3125,32.1875,24.375,0
43570,-20.75,29.875,35.6875,0
43590,-26.375,30.4375,32,0
43610,-26.0625,28.8125,28.25,0
43630,-17.9375,24.75,28.875,0
43650,-14.3125,22,34.3125,0
43670,-21.4375,22.875,35.75,0
43690,-27.4375,24.8125,34.9375,0
43710,-20.1875,20.375,33.6875,0
43730,-18.5,15.25,36.25,0
43750,-22,16.875,40.875,0
43770,-23.8125,20,36.9375,0
43790,-22.0625,14.1875,32.0625,0
43810,-20.625,13.625,29.875,0
43830,-19.1875,12.375,28.9375,0
43850,-14.125,8.625,27.5,0
43870,-22.1875,7.5,24.3125,0
43890,-28.0625,6.625,27.8125,0
43910,-25.375,0.125,28.0625,0
43930,-21.5,-6.0625,26.8125,0
43950,-23.125,-10.625,22.9375,0
43970,-28.8125,-16.625,29.875,0
43990,-21.625,-21,28.6875,0
44010,-6.75,-27.25,20.875,0
44030,-2.75,-36.625,22.125,0
44050,-11.75,-40.25,24.875,0
44070,-16.375,-41.25,25.875,0
44090,-9.875,-43.3125,23.0625,0
44110,-5.8125,-50.375,24.125,0
44130,-8.9375,-53,25.375,0
44150,-8.625,-49.8125,21.625,0
44170,-6,-53.625,19.5,0
44190,-6,-55.625,19.4375,0
44210,-6.25,-54.125,18,0
44230,-1.4375,-52.875,15.1875,0
44250,0.375,-54.125,13.0625,0
44270,-0.3125,-48.9375,11.375,0
44290,-3.125,-50,10.6875,0
44310,-2.5625,-48.625,6.0625,0
44330,0.375,-48,2.8125,0
44350,2.375,-48.625,1,0
44370,4.5625,-46.6875,-4.4375,0
44390,9.625,-46.25,-8.3125,0
44410,11.1875,-47.0625,-9.0625,0
44430,5.9375,-48,-10.875,0
44450,2.3125,-46,-13.8125,0
44470,1.9375,-46.8125,-16.125,0
44490,5.25,-49.625,-13.9375,0
44510,6.0625,-48.75,-17.8125,0
44530,8.6875,-48.375,-22.3125,0
44550,9.4375,-48.6875,-23,0
44570,6.5625,-46.6875,-22.1875,0
44590,5.5,-45,-23.5,0
44610,8.0625,-44.4375,-25.75,0
44630,15.8125,-44.3125,-27.1875,0
44650,13.5,-44.125,-26.625,0
44670,11.4375,-40.8125,-30.625,0
44690,11.5625,-32.5625,-31.3125,0
44710,14.6875,-33.375,-26.875,0
44730,11.625,-35.625,-22.9375,0
44750,18.6875,-30.0625,-28.5,0
44760,17.875,-23.4375,-29.625,0
44780,15.5,-19.875,-23.8125,0
44800,6.4375,-18.3125,-18.8125,2001
44820,7.125,-14.25,-18.125,0
44840,19.5,-13.375,-21.125,0
44860,12.8125,-6.9375,-19.25,0
44880,7.3125,-4.4375,-18,0
44900,4.5625,-2.75,-20.25,0
44920,1.1875,1.6875,-17.8125,0
44940,4.8125,6.6875,-14,0
44960,13.1875,6.5,-12.375,0
44980,7.375,4.375,-13.6875,0
45000,-1.9375,4.1875,-15.1875,0
45020,3.875,3.625,-15.125,0
45040,5.5625,3.4375,-9.8125,0
45060,6,0.4375,-3.125,0
45080,0.1875,0.5625,1.375,0
45100,-5.875,1.0625,1.75,0
45120,-4.4375,-3.5,3.625,0
45140,-0.25,-3.9375,7.75,0
45160,3.3125,-5.1875,12.375,0
45180,0.75,-3.4375,14.75,0
45200,-0.75,0.1875,13.4375,0
45220,-1.875,4.8125,14.625,0
45240,-7.6875,7,18.375,0
45260,-5.875,8.4375,20.625,0
45280,-3.75,8.8125,15,0
45300,-3,10.4375,10.5,0
45320,-6.8125,15.4375,8.6875,0
45340,-6.625,17.125,7.8125,0
45360,-8.25,14.5625,10.3125,0
45380,-12.8125,13.125,7.3125,0
45400,-8.3125,8,4.3125,0
45420,-5.625,4.625,2.625,0
45440,-6.125,0.9375,0.6875,0
45460,-11.0625,-6.4375,-2,0
45480,-12.8125,-12.5625,-4.625,0
45500,-10.3125,-15,-8.9375,0
45520,-8.4375,-18.6875,-13.375,0
45540,-7.1875,-21.3125,-14.375,0
45560,-6.75,-24.5,-12.4375,0
45580,-7.375,-26.25,-12.6875,0
45600,-3.8125,-27.8125,-14.0625,0
45620,-6.25,-26.875,-17.125,0
45640,-4.4375,-23.8125,-17.25,0
45660,-1.25,-23.5625,-12.8125,0
45680,-1,-21.8125,-11.625,0
45700,-1.5,-19.9375,-9.25,0
45720,-0.1875,-19.3125,-7.5,0
45740,1.9375,-18.5625,-8.375,0
45760,2.4375,-14.9375,-6.8125,0
45780,6.3125,-10.375,-5.8125,0
45800,3.8125,-7.0625,-6,0
45820,2.125,-6.25,-5.0625,0
45840,9.375,-4.1875,-4.0625,0
45860,12.375,6.875,-5.5,0
45880,16.3125,18,-4.4375,0
45900,16.9375,28.4375,6.125,0
45920,5.125,38.9375,12.625,0
45940,0.8125,52,13.3125,0
45960,-0.375,64.1875,22.875,0
45980,-5.875,69.625,32.5625,0
46000,-1.5625,78.0625,41.5,0
46020,5.875,82.125,42.9375,0
46040,8,87.8125,46.0625,0
46060,-1.5625,91.8125,55.8125,0
46080,-6.8125,97,62.4375,0
46100,-1.8125,96.5625,66.625,0
46120,9.5625,94.25,70.6875,0
46140,15.6875,94.5,69.25,0
46160,18,96.75,67.5625,0
46180,28.4375,93.875,73,0
46200,34.9375,96.625,79.5625,0
46220,48.1875,99.5625,72.6875,0
46240,46.1875,105.812,65.25,0
46260,50.375,101.625,74.5625,0
46280,45.4375,97.75,81.375,0
46300,37.875,92.25,76.0625,0
46320,42.6875,86.125,72.8125,0
46340,50.8125,75.5625,63.875,0
46360,46.125,64.1875,62.9375,0
46380,41.0625,50.8125,68.5,0
46400,38.6875,33.375,69.75,0
46420,38.5625,14.6875,54.9375,0
46440,43.25,-2.125,40.1875,0
46460,44.375,-15.125,36.875,0
46480,39.125,-24.8125,35.6875,0
46500,26.5625,-34.9375,33.4375,0
46520,17.0625,-46,28.9375,0
46540,12.875,-52.875,20.625,0
46560,5.875,-53.625,13.375,0
46580,3,-51.25,15.1875,0
46600,0.0625,-46.5625,13.75,0
46620,-3.1875,-38.5625,6.0625,0
46640,-4.4375,-31,-2.8125,0
46660,-4.3125,-24,-6.5,0
46680,-4.625,-13.9375,-5.375,0
46700,-9.1875,-2.5,-7.4375,0
46720,-3.5625,2.875,-4.4375,0
46740,-12.5,0.5,-1.375,0
46760,-16.75,6.75,0.25,0
46780,-14.5,9.5,-2.0625,0
46790,-6.5,8.3125,-5.125,0
46810,-3.0625,7.3125,-3.1875,0
46830,-7.125,9.1875,-1.5625,0
46850,-10.125,8.25,-3.875,0
46870,-9.875,4.375,-4.9375,0
46890,-6,2.3125,-4.5625,0
46910,-2.8125,-0.1875,-2.625,0
46930,-1.5625,-3.125,-4,0
46950,-3.875,-3.625,-5.6875,0
46970,-3.875,-5.125,-2.3125,0
46990,-5.25,-6.75,0,0
47010,-6.25,-5.125,0.25,0
47030,-8.1875,-4.0625,1.3125,0
47050,-7.8125,-3.5625,1.5,2000
47070,-4.3125,-3.5,2.8125,0
47090,-5.3125,-2.9375,3.4375,0
47110,-4.5625,-1.9375,2.25,0
47130,-3.75,-3.3125,0.3125,0
47150,0.4375,-3.8125,-1.5,0
47170,3.8125,-3.5625,-3.3125,0
47190,3.5,-4.3125,-3.6875,0
47210,2.75,-4.25,-3.25,0
47230,-2.5,-5.5,-3.125,0
47250,1.625,-5.375,-5,0
47270,2.8125,-4.0625,-5.5,0
47290,0.6875,-3.8125,-1.75,0
47310,-2.3125,-4.5625,1.75,0
47330,-3.8125,-4.25,2.8125,0
47350,-2.25,-4.5,4.0625,0
47370,-0.9375,-6.5,5.4375,0
47390,-1.5625,-5.3125,6.375,0
47410,-3.5625,-3.75,5.1875,0
47430,-3.25,-3.25,5.125,0
47450,-2.5625,-4.625,6.0625,0
47470,-1.8125,-4.875,7,0
47490,3.375,-4.8125,5.25,0
47510,8.0625,-10.25,6.125,0
47530,7.125,-10.9375,5.4375,0
47550,8.6875,-13.9375,4.625,0
47570,12.25,-15.1875,3.0625,0
47590,10.1875,-17.1875,2.5,0
47610,8.0625,-19.5,2.5625,0
47630,3.75,-24.25,0.875,0
47650,6.3125,-25.0625,2.625,0
47670,4.9375,-24.625,3.5,0
47690,5.375,-26.3125,2.25,0
47710,7,-28.5625,2.0625,0
47730,7.8125,-29,3.875,0
47750,6.125,-29.625,4.375,0
47770,7.4375,-32.25,3.125,0
47790,5.625,-35.125,1.8125,0
47810,5.375,-35.3125,1.1875,0
47830,6.875,-35.1875,-2.0625,0
47850,7.1875,-35,-3.5625,0
47870,7.625,-33.6875,-2,0
47890,2.9375,-33.9375,-2.75,0
47910,2.75,-34.1875,-6,0
47930,2.9375,-33.25,-6.0625,0
47950,4.125,-32.5625,-7.9375,0
47970,2.75,-33.3125,-7.625,0
47990,3.5625,-31.25,-6.75,0
48010,5.125,-32.25,-9.625,0
48030,7.3125,-34,-12.25,0
48050,4.5625,-34.625,-13,0
48070,0.5,-33.5625,-16.8125,0
48090,-1.375,-34.1875,-16.8125,0
48110,0.75,-33.875,-18.625,0
48130,0.0625,-35.25,-19.375,0
48150,-1.625,-31.6875,-20.125,0
48170,-4,-36.9375,-19.5,0
48190,-6.125,-29.3125,-22.8125,0
48210,-6.1875,-27.125,-24.8125,0
48230,-3.5625,-24.375,-25.875,0
48250,-4.1875,-22.125,-25.125,0
48270,-5.5,-19.375,-25.9375,0
48290,-5.75,-27.0625,-28.25,0
48310,-7.8125,-13,-28.125,0
48330,-13.5,-14.25,-26.4375,0
48350,-10.1875,-11.4375,-34.5,0
48370,-12.25,-9.3125,-33.375,0
48390,-14.75,-10.8125,-34.125,0
48410,-13.375,-5.6875,-34.75,0
48430,-16.75,-1,-34.1875,0
48450,-19.6875,3,-35.5,0
48470,-18.9375,0.5,-34.4375,0
48490,-21.75,12.375,-32,0
48510,-20.875,16.125,-33.9375,0
48530,-21.3125,18.5,-36.25,0
48550,-23.875,21.5,-37.8125,0
48570,-22.3125,16.25,-36.75,0
48590,-22.3125,22.625,-39.0625,0
48610,-24.1875,22.5,-42.125,0
48630,-27.25,22.5,-43.375,0
48650,-28.9375,20.5,-46,0
48670,-30.0625,20.0625,-45.375,0
48690,-31.125,21.375,-43.3125,0
48710,-31.125,22.8125,-42.625,0
48730,-29.8125,24.6875,-42.5,0
48750,-29.4375,26.625,-40.8125,0
48770,-27.625,28.5,-38.1875,0
48790,-28.1875,32.0625,-35.5,0
48810,-26.5625,35.3125,-33.5,0
48830,-26.1875,37.4375,-31.875,0
48850,-25.5625,37.625,-30.8125,0
48870,-25.0625,39.3125,-31.1875,0
48890,-21.5,40.75,-31.375,0
48910,-21.6875,44.6875,-28.1875,0
48920,-23.75,47.625,-25.875,0
48940,-24.1875,46.6875,-23.375,0
48960,-19.25,45.125,-22.3125,0
48980,-20.5625,46.0625,-19.8125,0
49000,-23.5625,48.1875,-20.5625,0
49020,-23.5,48.625,-17.4375,0
49040,-24.25,46.875,-18.25,0
49060,-22.5625,43.8125,-17.125,0
49080,-19.125,41.0625,-12,0
49100,-19.0625,41.6875,-15.375,0
49120,-21.125,40.6875,-18.375,0
49140,-17.8125,36.8125,-14.875,0
49160,-16.5,33.9375,-7.0625,0
49180,-15.6875,32.75,-5,0
49200,-15,30.875,-11.6875,0
49220,-16.8125,35.3125,-10.9375,0
49240,-16.8125,35.8125,-3.625,0
49260,-11.125,31.375,7.25,0
49280,-6,31.0625,10.625,0
49300,-8.9375,37.4375,0.6875,0
49320,-4.9375,32.875,3.9375,0
49340,0,27.3125,18.25,0
49360,2.1875,28.75,22.3125,0
49380,2.125,29.6875,13.9375,0
49400,4.1875,24.375,13.5,0
49420,4.5625,27.875,23.375,0
49440,6.125,23.5,26,0
49460,9.4375,17.4375,22.5,0
49480,17.25,13.875,29.25,0
49500,16.4375,15.5,31.25,0
49520,22.5625,13.375,22.3125,0
49540,14.75,12.9375,20.4375,0
49560,1.8125,13.9375,23.375,0
49580,-0.4375,12.75,24.375,0
49600,5.0625,12.8125,22.5,0
49620,8.75,12.0625,22.0625,0
49640,9.125,12.8125,22,0
49660,5.5625,11.625,19.8125,0
49680,5.75,10.5,21.75,0
49700,9.25,10.875,22.6875,0
49720,15.1875,8.875,24.75,0
49740,17.25,4.9375,26.375,0
49760,15.375,0.8125,25.6875,0
49780,11.875,-0.3125,27.6875,0
49800,11.5625,-3.1875,30.6875,0
49820,7.6875,-6.0625,34.125,0
49840,4.8125,-8.25,37.1875,0
49860,6.125,-9.3125,35.6875,0
49880,6.5625,-10.0625,34.5,0
49900,5.25,-11.625,40.4375,0
49920,0.625,-13.1875,43.125,0
49940,-0.4375,-14.5625,38.875,0
49960,-0.6875,-17.1875,37.25,0
49980,-3.125,-19.125,41.6875,0
50000,-6.25,-20.5,41.0625,0
50020,-5.5,-24.375,39.6875,0
50040,-3.8125,-27.5,39.25,0
50060,-1.5625,-31.125,34.75,0
50080,-4.3125,-33.6875,32,0
50100,-6.0625,-34.5625,33.875,0
50120,-3.625,-37.125,30.375,0
50140,-3.5,-40.5,28.25,0
50160,-5.875,-39.125,30.4375,0
50180,-4.25,-40.8125,26.375,0
50200,-5.9375,-43.6875,23.6875,0
50210,-9.125,-43.75,25.625,0
50230,-7.4375,-47.6875,21,0
50250,-6.3125,-49.3125,16.625,0
50270,-8.6875,-47.6875,17.1875,0
50290,-7.4375,-49.75,16.6875,0
50310,-10.5,-50.625,13,0
50330,-10.625,-49.75,11.625,0
50350,-3.3125,-51.5,11.875,0
50370,-3.375,-53.0625,13.25,0
50390,-6.875,-49.6875,9.75,0
50410,-7.25,-48.75,4.25,0
50430,-4.25,-53,5.1875,0
50450,-5.3125,-51.6875,7.0625,0
50470,-4.875,-51.1875,2.375,0
50490,1.75,-53.9375,-1.75,0
50510,7.125,-62.5,-0.125,0
50530,-0.0625,-55.25,-0.9375,0
50550,-4.875,-54.9375,-2.6875,0
50570,-2.125,-57.1875,-6.6875,0
50590,-2,-59.8125,-7.125,0
50610,-2.6875,-55.5625,-5.5,0
50630,-3.8125,-50.875,-6.125,0
50650,2.3125,-52.875,-14.125,0
50670,-0.9375,-53.25,-16.125,0
50690,-2.875,-50.25,-11.375,0
50710,-4,-46.3125,-12.3125,0
50730,-3.6875,-44.3125,-18.25,0
50750,-6.9375,-42,-18.625,0
50770,-10,-35.625,-18.5625,0
50790,-6.6875,-34.0625,-21.375,0
50810,-6.0625,-33.6875,-23.125,0
50830,-9.375,-33.4375,-26.125,0
50850,-11.1875,-33,-29.5,0
50870,-14.0625,-35.4375,-30,0
50890,-16.0625,-35.125,-32.3125,0
50910,-17.4375,-33.1875,-34.0625,0
50930,-19.25,-33.0625,-38.1875,0
50950,-23.3125,-32.4375,-38.75,0
50970,-24.625,-25.125,-38.75,0
50990,-21,-32.75,-38.0625,0
51010,-21.4375,-24.5,-39.125,0
51030,-21.375,-32.125,-40.4375,0
51050,-22.875,-17.9375,-43.5,0
51070,-26.25,-11.375,-44.25,0
51090,-28.1875,-12.375,-42.625,0
51110,-27.1875,-5.875,-47,0
51130,-27.3125,-7.1875,-50.4375,0
51150,-27.625,-3.9375,-53.6875,0
51170,-24.8125,-15.3125,-55.375,0
51190,-31.5,7.3125,-53.5625,0
51210,-29.75,10.875,-53.5,0
51230,-28,13,-52.75,0
51250,-28.75,17.5625,-51.0625,0
51270,-30.0625,24.0625,-48.625,0
51290,-29.8125,30.1875,-48.375,0
51310,-29.1875,34.25,-47.4375,0
51330,-26.8125,38.25,-43.25,0
51350,-23.125,41.875,-37.25,0
51370,-21.1875,47,-37.4375,0
51390,-21,50.8125,-37,0
51410,-20.5625,48.75,-37.125,0
51430,-17.875,46.125,-32.9375,0
51450,-19.0625,50.25,-34.3125,0
51470,-18.375,52.375,-35.0625,0
51490,-18.625,51.75,-33,0
51510,-25.3125,49.875,-21.9375,0
51530,-28.25,54.875,-15.5625,0
51550,-24.3125,55.5625,-17.0625,0
51570,-22.375,52.125,-19.25,0
51590,-21.625,52.125,-20.8125,0
51610,-23.75,50.6875,-13.75,0
51630,-22.0625,52.8125,-8.9375,0
51650,-22.375,57.9375,-10.3125,0
51670,-20,59.4375,-9,0
51690,-17.25,58.5625,-2.5,0
51710,-10.25,58.125,0.125,0
51730,-8.0625,57.9375,1.8125,0
51750,-6.25,55.875,5.6875,0
51770,-5.4375,52.8125,15.9375,0
51790,5.25,47.8125,22.375,0
51810,6.9375,41.125,25.75,0
51830,3.125,37.5,23.375,0
51850,5.625,34.9375,29.9375,0
51870,9.5625,24.5,39.0625,0
51890,11.3125,25.25,42.6875,0
51910,14,27.8125,36.0625,0
51930,9.375,30.5625,36.4375,0
51950,-2.5625,31.5625,42.75,0
51970,-18.75,28.6875,42.875,0
51990,-15.125,28.8125,36.25,0
52010,-9.875,29.125,35.625,0
52030,-6.5,27.375,38.8125,0
52050,-8.875,23.125,44.375,0
52070,-15.1875,20.625,45.125,0
52090,-11.5625,19.8125,41.8125,0
52110,-7.625,13,39.5,0
52130,-6.125,10.1875,42.625,0
52150,-14.9375,9.625,42.1875,0
52170,-15.4375,9,41.0625,0
52180,-7.4375,4.125,38.75,0
52200,-2.375,2.75,36.0625,0
52220,-7.75,2.0625,38.625,0
52240,-12.25,0.1875,43.375,0
52260,-6.25,-3.5625,40.25,0
52280,5,-8.25,40.5625,0
52300,0.8125,-10.3125,42.75,0
52320,-8.5,-9.0625,42.8125,0
52340,-11.9375,-11.75,40.875,0
52360,-3.8125,-15.5625,37.8125,0
52380,-0.8125,-21.3125,36.875,0
52400,-4.8125,-23.6875,34,0
52420,-2.6875,-25.5625,31.375,0
52440,2.0625,-29.125,27.1875,0
52460,-0.3125,-34.3125,26.8125,0
52480,-7.0625,-35.6875,26.75,0
52500,-7.875,-38.125,25.875,0
52520,-6.75,-43.5,24.8125,0
52540,-7.4375,-46,28.4375,0
52560,-12.5,-45.1875,29.4375,0
52580,-14.75,-48.75,27,0
52600,-13,-51.5625,27.25,0
52620,-9.5,-54,26.625,0
52640,-7.9375,-54.4375,23,0
52660,-8.8125,-55.125,21.8125,0
52680,-11.875,-56.5625,23,0
52700,-10.0625,-56.125,20.8125,0
52720,-7.75,-54.1875,17.9375,0
52740,-3.0625,-55.5625,14.875,0
52760,-5.0625,-57.3125,10.6875,0
52780,-9.5,-54.3125,7.9375,0
52800,-8.1875,-51.1875,3.8125,0
52820,-4.375,-54.4375,0.75,0
52840,-3.0625,-53.4375,-3.5,0
52860,0.5625,-52.875,-9,0
52880,2.5625,-55.25,-12.875,0
52900,2.4375,-53.0625,-16.9375,0
52920,-2.25,-49.375,-21.6875,0
52940,-4.75,-52.0625,-24.1875,0
52960,1.3125,-51.625,-30,0
52980,7.4375,-53.375,-35.6875,0
53000,3.8125,-52.5,-37.25,0
53020,2.75,-47.875,-39.8125,0
53040,3.4375,-47.9375,-42.5625,0
53060,3.4375,-50.3125,-42.6875,0
53080,-6.4375,-47.875,-39.4375,0
53100,-3.25,-44.875,-41.625,0
53120,-3.8125,-39.625,-43.6875,0
53140,-1.625,-37.5,-33.0625,0
53160,-12.8125,-38.6875,-34.875,0
53180,-14,-34.5625,-39.5,0
53200,-12,-30.25,-45.0625,0
53220,-21.5,-30.3125,-47.8125,0
53240,-15.3125,-24.8125,-42.1875,0
53260,-14.5625,-22.6875,-52.375,0
53280,-6.875,-22.1875,-54.75,0
53300,-15.75,-19.6875,-56.75,0
53320,-16.125,-13,-57.875,0
53340,-18.625,-10.75,-53.625,0
53360,-18.3125,-11.75,-48.8125,0
53380,-17.75,-12.75,-50.9375,0
53400,-24.125,-3.5625,-52.5,0
53420,-26.875,6.25,-48.375,0
53440,-25.625,5.4375,-45.375,0
53460,-29.25,9.25,-41.75,0
53480,-25.8125,13.25,-43.375,0
53500,-28.875,19.6875,-43.4375,0
53520,-28.125,24.625,-40.4375,0
53540,-26.125,31,-37.8125,0
53560,-26.4375,32.9375,-35.8125,0
53580,-24.875,34.4375,-32.4375,0
53600,-26.875,38,-33.4375,0
53620,-26.875,43.3125,-33.5625,0
53640,-30.875,45.75,-30.3125,0
53660,-32.875,49.0625,-22.625,0
53680,-37.375,59.375,-21.4375,0
53700,-35.8125,64.5,-20.5625,0
53720,-28.4375,61.125,-18.75,0
53740,-23.125,59.125,-6.375,0
53760,-22.3125,59.625,1.4375,0
53780,-17.375,58.4375,-1.125,0
53800,-11.25,53.75,-0.8125,0
53820,-6.5,53.75,3.4375,0
53840,-1.8125,54,12.4375,0
53860,8.0625,48.25,13.5,0
53880,14.4375,50,16.8125,0
53900,5.4375,50.5625,17.0625,0
53920,1.0625,53.0625,18.0625,0
53940,-11.0625,53.75,25.5,0
53960,-14.3125,50.375,24.125,0
53980,-12.75,52.6875,18.5,0
54000,-14.5625,53.8125,24.875,0
54020,-9.875,56.0625,32.0625,0
54040,-11.0625,54.0625,28.5,0
54060,-14.25,48.75,24.625,0
54080,-19.1875,50.5,28.75,0
54100,-19.875,47.8125,34.1875,0
54120,-15.25,39.125,41.0625,0
54140,-26.8125,35.0625,42.5625,0
54160,-46.5625,36.0625,44.5625,0
54180,-48.75,34.875,44.8125,0
54200,-31.9375,23.25,47.5625,0
54220,-31.25,18.75,49.3125,0
54240,-28.875,23.5625,41.125,0
54260,-28.3125,13.125,35.75,0
54280,-24.875,10.875,42.375,0
54300,-14.1875,11,40,0
54320,-8.5625,3.1875,36.3125,0
54340,-20.3125,-2.625,37.875,0
54360,-19.0625,-3,34.25,0
54380,-11.0625,-14.375,32.25,0
54400,-24.4375,-18.5,40.75,0
54420,-38.625,-19.1875,49.75,0
54440,-17.25,-25.0625,42.9375,0
54460,3.3125,-35.3125,37,0
54480,-16.4375,-41.3125,45.125,0
54500,-37.25,-38.25,48.6875,0
54520,-22.75,-37.5,38.4375,0
54540,-2.875,-55.125,33.9375,0
54560,-13.8125,-57.375,36.375,0
54580,-27.75,-54.125,37.25,0
54600,-19,-60.6875,32.25,0
54620,-8.5,-65.625,27.25,0
54640,-13.625,-63.5,28.375,0
54660,-17.4375,-62,26.25,0
54680,-8.6875,-66.4375,21.1875,0
54700,-0.9375,-69.5,13.1875,0
54720,3.9375,-66.875,10.4375,0
54740,4.375,-64.25,3.5625,0
54760,-1.75,-63.3125,-0.375,0
54780,-0.0625,-65,-2.5,0
54800,9.4375,-63.75,-7.875,0
54820,12.875,-60.5625,-12.8125,0
54840,6.3125,-58,-13.8125,0
54860,-0.5625,-59.5625,-13.8125,0
54880,6.625,-58.75,-17.875,0
54900,9.5625,-52.875,-20.875,0
54920,6.5625,-53.3125,-16.6875,0
54940,3.8125,-55.875,-16.75,0
54960,10.25,-51.3125,-24.25,0
54980,8.4375,-49,-24.875,0
55000,4.75,-47.5625,-21.25,0
55020,11.25,-46.6875,-27.75,0
55040,15.8125,-50.8125,-30.5,0
55060,13.875,-46.25,-30.1875,0
55080,11.25,-41.875,-33.4375,0
55100,14.5,-42.5625,-34.3125,0
55120,12.8125,-41.75,-32.8125,0
55140,7.375,-33.5,-32,0
55160,6.9375,-31.5,-31,0
55180,6.875,-31.5625,-29.9375,0
55200,6.25,-30.3125,-32.5625,0
55220,12.875,-24.6875,-36.125,0
55240,15.4375,-22.1875,-34.1875,0
55260,5.9375,-20.5625,-31.8125,0
55280,-1.25,-17.625,-30.9375,2001
55300,5.25,-14.625,-28.25,0
55320,4.9375,-14.5,-27.6875,0
55340,3.625,-14.0625,-26.6875,0
55360,7.0625,-13.625,-23.625,0
55380,-2.0625,-8.4375,-20,0
55400,-0.0625,-9.3125,-12.75,0
55420,4.3125,-8,-11.75,0
55440,2.125,-6.125,-10.625,0
55460,-3.25,-2.25,-4.5,0
55480,-1.5,-6.0625,2.8125,0
55500,3.3125,-7.375,4.1875,0
55520,1.875,-5.1875,2.9375,0
55540,2.1875,-2.4375,2.25,0
55560,1,-2.5625,2.75,0
55580,6.9375,-2.0625,2.6875,0
55600,12.875,-1,3.625,0
55620,15.875,-0.0625,8.25,0
55640,10.4375,4.4375,8.875,0
55660,4.25,12.125,8.25,0
55670,0.5625,19.9375,10.5,0
55690,-0.8125,25.5625,16.0625,0
55710,3.375,28.8125,14.625,0
55730,1.0625,31.375,14.4375,0
55750,1.625,34.8125,21.75,0
55770,2.125,39.875,25.5625,0
55790,-3.375,44.625,25.875,0
55810,-8.3125,51.0625,26.875,0
55830,-3.8125,58.5625,32.1875,0
55850,-0.625,60.5625,30.75,0
55870,-1.4375,59.3125,32.4375,0
55890,-0.5,63.125,40.6875,0
55910,-1.375,61.0625,38.625,0
55930,9.375,58.3125,30.125,0
55950,11.9375,57.75,33.25,0
55970,15,57.6875,38.9375,0
55990,15,59.3125,41.625,0
56010,14.8125,59.25,35.1875,0
56030,31.8125,60.5,33.5625,0
56050,38.4375,62.4375,42.125,0
56070,28.4375,72.4375,51.375,0
56090,32.5,78.4375,60.625,0
56110,42.0625,76.8125,62.3125,0
56130,47.875,86.1875,63.8125,0
56150,40.375,94.5625,62.0625,0
56170,41.3125,90.3125,70.9375,0
56190,39,79.8125,76.9375,0
56210,38.25,75.875,74.4375,0
56230,42.6875,74.875,69.0625,0
56250,40.375,72.125,71.9375,0
56270,29.75,64.3125,81.0625,0
56290,25.5625,56.375,70.375,0
56310,33.875,43.375,59.0625,0
56330,32.625,31.8125,58.0625,0
56350,21.875,24.3125,54.0625,0
56370,18.625,17.25,44.5,0
56390,17.8125,7.125,32.6875,0
56410,15.1875,-5.125,24.125,0
56430,17.4375,-15.1875,17.9375,0
56450,20.125,-22.625,9.5,0
56470,16.75,-23.0625,3.1875,0
56490,11.5625,-22.625,-3.25,0
56510,6.5,-22.125,-6.1875,0
56530,4.875,-19.8125,-5.8125,0
56550,5.1875,-15.3125,-8.9375,0
56570,6.75,-10.5625,-13.5625,0
56590,3.75,-4.6875,-10.4375,0
56610,-4.125,-0.875,-6.5,0
56630,-2.3125,1.6875,-10,0
56650,-1.9375,2.5,-10.5,0
56670,-1.875,2.9375,-5.875,0
56690,-4.75,5.9375,-4.6875,0
56710,-7.8125,7.0625,-3.9375,0
56730,-1.4375,6.3125,-2.875,2000
56750,-3.125,3.6875,-0.75,0
56770,-6.5625,3.625,3,0
56790,-7.1875,4.25,0.3125,0
56810,-2.625,2.25,-1.25,0
56830,-1.1875,-0.1875,0.375,0
56850,-2.75,-0.5,-0.8125,0
56870,-2.8125,0.375,-1.1875,0
56890,2.1875,0.625,-3.875,0
56910,1.625,-0.8125,-2.0625,0
56930,2.1875,-3.4375,-0.75,0
56950,2.9375,-5.875,0.0625,0
56970,5.125,-7.5,1.125,0
56990,6.25,-9.25,-0.0625,0
57010,4.875,-12,-0.375,0
57030,4.8125,-13.9375,2,0
57050,6.1875,-17.0625,2.875,0
57070,1.0625,-18.6875,0.875,0
57090,2.25,-22.625,1.4375,0
57110,3.25,-26.625,2.1875,0
57130,5.1875,-29.3125,-0.5,0
57150,8.125,-32.25,-0.75,0
57170,6.8125,-33.6875,0.3125,0
57190,5.375,-35.875,0.625,0
57210,4.4375,-36.6875,1.4375,0
57230,9,-38.125,0.125,0
57250,5.5,-38.375,2.25,0
57270,3.4375,-39.0625,2.75,0
57290,2.8125,-40.75,1.875,0
57310,3.9375,-41.75,-2.5,0
57330,2,-40,-3.4375,0
57350,0.4375,-38.625,-0.8125,0
57370,0.75,-40.4375,-3.75,0
57390,-0.1875,-40.25,-5.5625,0
57410,1.75,-38.25,-5.8125,0
57430,3.125,-39.25,-8.6875,0
57450,4.375,-41.8125,-9.9375,0
57470,3.4375,-39.3125,-13.3125,0
57490,0.5625,-37.5625,-18.125,0
57510,0.4375,-39.625,-21.25,0
57530,3.5625,-42.625,-23.8125,0
57550,4.375,-43.25,-22.5,0
57570,-3.5625,-35.3125,-21.625,0
57590,-2.5,-27.8125,-31.75,0
57610,-2.625,-23.375,-33.9375,0
57630,-0.875,-21.875,-35,0
57650,-1.625,-20.625,-35.1875,0
57670,-6.625,-17.1875,-39.4375,0
57680,-13,-13.5,-44.8125,0
57700,-21.6875,-7,-47.625,0
57720,-26.875,-1.375,-45.25,0
57740,-34.6875,4.75,-49.1875,0
57760,-44.5625,4.0625,-51.625,0
57780,-45.6875,7.6875,-52.1875,0
57800,-49,9.125,-51.6875,0
57820,-53.1875,11.3125,-53.375,0
57840,-55.5,16.125,-57.75,0
57860,-54.9375,17.375,-56.8125,0
57880,-52.1875,21.3125,-58,0
57900,-53.4375,29.75,-57.9375,0
57920,-53.625,35,-59.5625,0
57940,-50.4375,37,-59.1875,0
57960,-45.375,37.6875,-57.0625,0
57980,-42.875,42.375,-53.5625,0
58000,-40.375,49.6875,-50.75,0
58020,-36.75,56.5,-47.5,0
58040,-31.4375,60.75,-44.75,0
58060,-30.1875,62.5625,-36.8125,0
58080,-25.9375,66,-31.5,0
58100,-22.0625,70.25,-25.25,0
58120,-18.8125,71.25,-25.625,0
58140,-16.3125,69.125,-25.875,0
58160,-10.9375,69.5,-24.1875,0
58180,-10.625,75.5,-21.9375,0
58200,-10.4375,71.1875,-22.125,0
58220,-9.5625,65.4375,-25.375,0
58240,-7.4375,65,-28.0625,0
58260,-16.125,67.625,-18.5,0
58280,-14.625,62.4375,-13.0625,0
58300,-12.4375,55,-14.0625,0
58320,-9.75,57.125,-13.3125,0
58340,-4.5,52,-9.625,0
58360,-5.4375,42.375,3.25,0
58380,-5.75,41.8125,7.125,0
58400,2,41.0625,2.125,0
58420,4.6875,37.375,8.0625,0
58440,4.5625,30.9375,16.4375,0
58460,3.1875,30.25,26.625,0
58480,11.6875,25.625,29.75,0
58500,17.5625,22.0625,33.9375,0
58520,17.625,15,43.8125,0
58540,14.8125,15.25,45.125,0
58560,14,16.3125,43.75,0
58580,1.625,14.1875,43.9375,0
58600,-9.3125,15,47,0
58620,-11.125,10.9375,49.75,0
58640,-3.4375,8.0625,46.5625,0
58660,-0.5,5.875,38.6875,0
58680,-1.75,4.875,38.9375,0
58700,-3.3125,2.0625,45.125,0
58720,1.625,-0.125,46,0
58740,2.125,-1.8125,39.5625,0
58760,-1.4375,-4.875,41.875,0
58780,-0.375,-10,47.6875,0
58800,-0.4375,-14.5,45.25,0
58820,0.4375,-17.4375,42.5625,0
58840,-4.125,-19.0625,44,0
58860,-7.9375,-23.9375,43.6875,0
58880,-10.625,-30.6875,45.6875,0
58900,-7.4375,-33.875,45.625,0
58920,-7.5,-34.25,40.25,0
58940,-9.1875,-36.125,40.875,0
58960,-10.9375,-38.375,45.75,0
58980,-12,-41.9375,41.5,0
59000,-13.875,-47,37.375,0
59020,-11.625,-48.5,35.75,0
59040,-10.375,-49.8125,34.6875,0
59060,-9.5,-50.75,29.4375,0
59080,-12.4375,-53.3125,26.25,0
59100,-12.1875,-55.9375,27.1875,0
59120,-7.4375,-56.0625,19.375,0
59140,-5.9375,-53.5625,14.0625,0
59160,-11.25,-55.75,20.875,0
59180,-13.875,-58.125,20.9375,0
59200,-10.1875,-57.3125,11.1875,0
59220,-5.6875,-56.75,11.1875,0
59240,-5.6875,-60.125,16.4375,0
59260,-5,-57.5625,9,0
59280,-4.5,-53.3125,1.875,0
59300,-5.6875,-54.8125,3.6875,0
59320,-5.9375,-57.3125,6.5625,0
59340,0.75,-55.5,-1.8125,0
59360,-0.875,-59.8125,-3.75,0
59380,-9.8125,-59.5,-4.5625,0
59400,-7.625,-60.5625,-3.375,0
59420,-5.125,-57.5,-8.6875,0
59440,-0.5625,-53.8125,-6.375,0
59460,0.0625,-56.8125,-2.625,0
59480,0.9375,-58.4375,-7.125,0
59500,1.5625,-56.4375,-11.75,0
59520,-4.4375,-52.875,-14.375,0
59540,-6.25,-52.125,-11.1875,0
59560,-1.3125,-56.25,-13.5625,0
59580,-1.875,-54.125,-16.8125,0
59600,-8.375,-47.875,-16.625,0
59620,-7.625,-44.8125,-18.625,0
59640,-5.75,-48.1875,-20.25,0
59660,-6.3125,-46.125,-20.75,0
59680,-5.9375,-42.125,-22.0625,0
59700,-6.6875,-41.3125,-25.3125,0
59720,-4.0625,-41.4375,-30.5,0
59740,-7.0625,-36.75,-35.625,0
59760,-9,-35.625,-34.5625,0
59780,-9.6875,-35.75,-35.3125,0
59800,-10.125,-33.75,-38.5,0
59820,-13.5625,-29.5,-41.3125,0
59840,-18.375,-22.0625,-41.9375,0
59860,-19.5,-13.25,-41.9375,0
59870,-16.0625,-20.8125,-41.75,0
59880,-15.875,-13.1875,-46.8125,0
59900,-20.6875,-10,-48.6875,0
59920,-23.625,-0.625,-54.3125,0
59940,-26.3125,2.125,-59.875,0
59960,-25.6875,6.5,-66.1875,0
59980,-30.25,15.625,-65.375,0
60000,-31.25,20.3125,-66.125,0
60020,-31.5625,27.5625,-68.6875,0
60040,-34.6875,34.5625,-68.9375,0
60060,-38.5625,40.625,-66.75,0
60080,-36.3125,45.4375,-63.9375,0
60100,-35.5,48.6875,-59.75,0
60120,-34.875,53.75,-57.25,0
60140,-35.0625,58,-53.6875,0
60160,-33.3125,62.125,-50.9375,0
60180,-32.1875,64.1875,-49,0
60200,-31.25,67.8125,-47.6875,0
60220,-30.4375,73.5625,-49.125,0
60240,-28.0625,76.5,-47.4375,0
60260,-20.4375,73.6875,-46.75,0
60280,-17.1875,74.8125,-47.625,0
60300,-20.4375,80.25,-44.875,0
60320,-25.6875,82.375,-38.625,0
60340,-18.25,75.3125,-31.5,0
60360,-15.625,71.6875,-24.1875,0
60380,-13.625,72.75,-20.6875,0
60400,-16.5625,71.9375,-17.0625,0
60420,-12.5,63.5625,-2.8125,0
60440,-5.75,57.4375,3.875,0
60460,-1.625,60.0625,7.0625,0
60480,5.25,57.8125,15.1875,0
60500,14.125,51.3125,26,0
60520,15.4375,43.0625,28.875,0
60540,14.5625,41.0625,33.625,0
60560,14,35.375,29.0625,0
60580,21.1875,26.875,43.875,0
60600,31.125,27.75,50.5,0
60620,12.1875,29.3125,46.625,0
60640,-11.125,28.6875,49,0
60660,-27.25,30.375,50.0625,0
60680,-16.0625,22.25,56.875,0
60700,-12.25,14.4375,59.4375,0
60720,-13.75,14.5,56.25,0
60740,-17.6875,14.375,54.5625,0
60760,-13.875,4.75,63.4375,0
60780,-18.6875,1.125,63.1875,0
60800,-24.125,1.125,56.75,0
60820,-21.1875,-1.25,57.4375,0
60840,-21.375,-7.625,61.0625,0
60860,-30.3125,-12.25,61.5625,0
60880,-32.3125,-11.5,58.0625,0
60900,-23.3125,-17.25,53.125,0
60920,-19.0625,-23.6875,53.5,0
60940,-25.625,-28,54.375,0
60960,-26.375,-30.1875,49.5,0
60980,-21.25,-35,46,0
61000,-16.1875,-45.5,48.6875,0
61020,-25,-47.6875,51.125,0
61040,-32,-44.9375,43.625,0
61060,-27,-49.125,38.0625,0
61080,-19.25,-60,41.875,0
61090,-17.5625,-62.25,34,0
61110,-12.9375,-60.4375,23.3125,0
61130,-5.1875,-63.9375,17,0
61150,-6.0625,-67.6875,13.3125,0
61170,-6.9375,-67.4375,6.5625,0
61190,-2.4375,-67.25,-2.4375,0
61210,6.1875,-70.625,-1,0
61230,1.9375,-68.8125,-2.25,0
61250,-2.5,-65.875,-5.375,0
61270,1,-69.8125,-6.25,0
61290,2.0625,-72.0625,-3.75,0
61310,1,-62.375,-7.8125,0
61330,-8,-59.75,-6.5,0
61350,-2.875,-63.0625,-9.625,0
61370,-1.875,-62.3125,-17.1875,0
61390,7.125,-55.25,-22.5625,0
61410,6.9375,-49.625,-25.9375,0
61430,0.0625,-45.5,-25.875,0
61450,-4.875,-49.25,-26.25,0
61470,4.1875,-47.8125,-35.1875,0
61490,-0.875,-41.375,-45.0625,0
61510,-4.6875,-37.4375,-35.25,0
61530,-5.5625,-36.6875,-34.125,0
61550,-0.8125,-34.5625,-46.125,0
61570,2.3125,-27.1875,-51.5,0
61590,-11.25,-20.625,-46.25,0
61610,-11.1875,-19.125,-40.875,0
61630,-7.375,-19.1875,-47.6875,0
61650,-8.4375,-14.75,-55.125,0
61670,-13.5,-10.5,-51.375,0
61690,-16.0625,-7.25,-52.125,0
61710,-18.3125,-1.125,-55.125,0
61730,-22.9375,3.6875,-52.125,0
61750,-25.75,4.625,-50.5625,0
61770,-25.6875,4.9375,-52.0625,0
61790,-26.1875,9.625,-52.8125,0
61810,-29.5,16.9375,-54.5625,0
61830,-29.6875,18.25,-52.875,0
61850,-27.5625,18.5625,-51.4375,0
61870,-26.125,20.625,-54.25,0
61890,-31.9375,28.3125,-55,0
61910,-33.75,33.875,-53.875,0
61930,-28.625,32.125,-49.8125,0
61950,-28.625,34.75,-41.25,0
61970,-34.75,42.625,-38.8125,0
61990,-30.125,47.875,-41.125,0
62010,-26.8125,49.5625,-37.5,0
62030,-26.375,51.8125,-28.8125,0
62050,-22.4375,53.25,-25.125,0
62070,-11.6875,53.1875,-27.75,0
62090,-6.5,59.1875,-26.1875,0
62110,-10.1875,63.3125,-16.25,0
62130,-6.875,61.5,-7.875,0
62150,0.5,53.75,-9.75,0
62170,10.1875,51.75,-14.3125,0
62190,9.5625,54.3125,-4.125,0
62210,9.875,50.8125,4.4375,0
62230,9.0625,46,5.5625,0
62250,2.625,50.5,13.75,0
62270,0.5625,48.6875,25.0625,0
62290,-11.0625,48.375,26.625,0
62310,-18.625,47.25,27.25,0
62330,-23.4375,50.6875,22.9375,0
62350,-20.8125,47.75,28.625,0
62370,-16.3125,41.875,36.375,0
62390,-14.3125,42.625,34.9375,0
62410,-16.8125,44.9375,28.5,0
62430,-23.875,44.3125,31.5,0
62450,-24.375,41.4375,39.9375,0
62470,-24.5,38.875,39.6875,0
62490,-22.5625,36,33.8125,0
62510,-18.1875,33.6875,31.875,0
62530,-11.4375,34.5625,34.1875,0
62550,-14.3125,30.125,33.1875,0
62570,-20.625,26.1875,34,0
62590,-17.5,23.75,34.6875,0
62610,-8,23.3125,33.625,0
62630,-10.1875,20.5625,35.8125,0
62650,-29.25,17.3125,44.0625,0
62670,-29.0625,14.6875,42.0625,0
62690,-21.9375,8.1875,36.25,0
62710,-30.5625,0.3125,42.5625,0
62730,-34.1875,-2.25,41.4375,0
62750,-19.75,-13.1875,35.25,0
62770,-19.75,-18.375,33.75,0
62790,-31.75,-28.4375,40.3125,0
62810,-21.9375,-29.1875,33.25,0
62830,-0.0625,-39.1875,28.1875,0
62850,-6.75,-50.25,34.6875,0
62870,-28.25,-56.6875,36.5,0
62890,-24.1875,-56.625,34.125,0
62910,-6.1875,-61.625,26.75,0
62930,-10.125,-70.3125,28,0
62950,-22.375,-72.625,28.125,0
62970,-15.9375,-70.4375,22.375,0
62990,-7.375,-73,15.4375,0
63010,-7.9375,-78.5,13.0625,0
63030,-12.6875,-75.5,10.6875,0
63050,-7.625,-69.3125,2.875,0
63070,2.5,-72.5,-1.5625,0
63090,5.4375,-75.625,-3.75,0
63100,5.4375,-72.6875,-5.25,0
63120,2.9375,-65.8125,-10.1875,0
63140,3.375,-67.5625,-10.1875,0
63160,0.4375,-68.9375,-11.0625,0
63180,2.125,-62.4375,-16.1875,0
63200,4,-55.125,-17.9375,0
63220,1.3125,-59.875,-14,0
63240,1.875,-61.5,-16.875,0
63260,5.4375,-53.0625,-25.5625,0
63280,5.6875,-47.1875,-24.875,0
63300,5.9375,-50.9375,-22.5,0
63320,6.6875,-54.4375,-26.5625,0
63340,14.6875,-49.6875,-35.4375,0
63360,14.75,-44.4375,-37.125,0
63380,12.4375,-42.75,-32,0
63400,13.25,-42.3125,-33.8125,0
63420,18.6875,-40.1875,-39.25,0
63440,18.75,-37.875,-39.0625,0
63460,15.375,-35.0625,-33.0625,0
63480,9.8125,-30.875,-35.625,0
63500,16.25,-33.6875,-40.5625,0
63520,8.5625,-29.25,-28,0
63540,12.25,-29.1875,-19.9375,0
63560,14.75,-24.6875,-27.625,0
63580,15.1875,-17.9375,-33.9375,0
63600,10.9375,-15.5625,-25.8125,0
63620,8.8125,-17.375,-13.25,2001
63640,16.5,-18.875,-11.625,0
63660,15.1875,-12,-15.25,0
63680,8.9375,-5.25,-12.4375,0
63700,3.375,-3.375,-0.5625,0
63720,4.8125,-8.375,6.25,0
63740,5.9375,-7.9375,4.5,0
63760,5.375,-3.25,0.8125,0
63780,1,-0.6875,5.9375,0
63800,-3.5625,-5.75,13.8125,0
63820,1.4375,-7.5625,14.75,0
63840,4,-6.8125,10.4375,0
63860,0.3125,-3.3125,8.4375,0
63880,-0.625,-1.9375,9.6875,0
63900,-2.1875,-2.9375,12.0625,0
63920,2.9375,0.75,6.25,0
63940,11.8125,1.6875,6.6875,0
63960,7.9375,4.5625,6.5625,0
63980,3.3125,7.25,6.8125,0
64000,4.4375,11.9375,3.5,0
64020,7.75,20.3125,-2.875,0
64040,0.4375,19.0625,2.0625,0
64060,-1.25,15.4375,10.4375,0
64080,1.75,19.625,8.6875,0
64100,-4.6875,26.125,7,0
64120,-12.9375,35.125,6.1875,0
64140,-12.75,36.9375,4.3125,0
64160,-6.25,29,11.75,0
64180,-6.4375,30.4375,19.8125,0
64200,-13.3125,40.8125,18.0625,0
64220,-15.5625,49.4375,18.875,0
64240,-11.25,48.0625,23.4375,0
64260,-0.875,45,31.4375,0
64280,0,43,33.0625,0
64300,-5.9375,47.1875,37.5625,0
64320,-3.875,54.0625,38.4375,0
64340,5.125,60.125,38.0625,0
64360,12.6875,65.0625,44.375,0
64380,17.6875,67.875,47.25,0
64400,31.875,67.875,51.3125,0
64420,41.8125,71.8125,62.4375,0
64440,36.375,80.0625,75.4375,0
64460,27.5,87.625,77.5,0
64480,38.75,90.125,77.25,0
64500,52.75,85.125,79.25,0
64520,60.1875,85.25,77.25,0
64540,59.25,89.25,79.4375,0
64560,54.125,93.0625,78.25,0
64580,53.625,92.4375,73.5,0
64600,57.375,81.4375,67.75,0
64620,60.1875,75.6875,69.875,0
64640,52.9375,71.25,69.375,0
64660,46.3125,62.75,60.875,0
64680,42.3125,50.5,54.625,0
64700,36.5625,40,53.3125,0
64720,27.5625,32.125,47,0
64740,25.125,24.0625,33.1875,0
64760,26.625,14.9375,26.625,0
64780,23.9375,7.6875,24.375,0
64800,13.625,1.75,22.3125,0
64820,10.1875,-6.25,16.0625,0
64840,12.375,-10.375,4.1875,0
64860,11.375,-9.875,-1.75,0
64880,8.5,-9.125,-0.5625,0
64900,1.75,-11.6875,1.625,0
64920,1.125,-15.0625,-0.8125,0
64940,4.0625,-17.0625,-2.3125,0
64960,4.375,-16.0625,-5.875,0
64980,1.625,-15.8125,-4.875,0
65000,-0.8125,-13.875,-2.875,0
65020,-3,-8.6875,-3.5,0
65040,-2.5625,-5.1875,-4.9375,0
65060,-2.0625,-1,-2.875,0
65080,-2.125,0.1875,3.5625,0
65100,-2.0625,2.1875,2.625,0
65120,-5.1875,4.9375,1.1875,0
65140,-1.9375,7,0.6875,0
65160,-4.3125,7.3125,1.6875,0
65180,-6,7.5,2.625,0
65200,-3.0625,7.75,0.375,0
65220,0.75,4.9375,-2.1875,0
65240,0.8125,1.375,-1.125,0
65260,-0.8125,-1.1875,-0.8125,0
65280,-0.9375,-1.25,-2.625,2000
65300,2.125,-2.875,-3.125,0
65320,1.25,-3.5,-3.3125,0
65340,-2.3125,-5.25,-0.625,0
65360,-1.6875,-5.375,0.375,0
65380,1,-4.875,-3.4375,0
65400,1.375,-6.75,-2.5625,0
65420,-3.1875,-8.375,0.3125,0
65440,-2.1875,-11.625,1.25,0
65460,0.5,-12.3125,1.9375,0
65480,2.1875,-12.5625,3.125,0
65500,3.6875,-15.375,5.0625,0
65520,4.3125,-17.5625,3.8125,0
65540,5.875,-18.375,0.5625,0
65560,7.3125,-19.375,0,0
65580,8.6875,-21.1875,-0.4375,0
65600,6.625,-23.5625,0.875,0
65620,5.4375,-24.5,1.25,0
65640,6.6875,-25.1875,-3.5625,0
65660,4,-27.375,-5.875,0
65680,3.8125,-29.9375,-3.875,0
65700,4.5,-31.5625,-1.0625,0
65720,6.125,-31.1875,-2.4375,0
65740,6.5,-31.5625,-2.8125,0
65760,4.4375,-33.6875,-1.0625,0
65780,2.25,-34.5,0.6875,0
65800,1.6875,-34.25,1.0625,0
65820,1.125,-35.6875,0.4375,0
65840,3.6875,-34.625,-2.75,0
65860,2.1875,-35.375,-2.3125,0
65880,2.5,-35.8125,-1.9375,0
65900,3.8125,-38,-2.125,0
65920,1.875,-37.75,-3.1875,0
65940,0.3125,-35.5625,-8.25,0
65960,2.8125,-37.3125,-12.9375,0
65980,2.75,-39.875,-13.3125,0
66000,2.875,-38.5625,-12.75,0
66020,2.5625,-38.5,-14.125,0
66040,0.5,-37.8125,-19.125,0
66060,-2.5,-38,-17.625,0
66080,-2.5625,-37.3125,-18.3125,0
66100,-3.4375,-33.4375,-20.5625,0
66120,-5.5,-29.625,-23.5625,0
66140,-7.9375,-27,-23.25,0
66160,-6,-21.75,-26.0625,0
66180,-2.75,-20.8125,-29.4375,0
66200,-3.6875,-9.125,-29.4375,0
66220,-6.25,-17.25,-29.75,0
66240,-8.25,0.75,-34.625,0
66260,-8.25,3.0625,-36.5625,0
66280,-7,4.1875,-39,0
66300,-10.1875,5.8125,-40.25,0
66320,-14.1875,5.375,-41.1875,0
66340,-15.4375,-1.25,-40.4375,0
66360,-20.375,12.9375,-40.5,0
66380,-25.75,15.4375,-38.5625,0
66400,-27.9375,18.9375,-36,0
66420,-28.4375,24,-35.1875,0
66440,-30.875,26.25,-35.875,0
66460,-33.5625,29.1875,-36.1875,0
66480,-33.625,32,-34.9375,0
66500,-31.8125,33.5625,-33.75,0
66520,-30.0625,34.6875,-34.5,0
66540,-30.375,36.125,-35.75,0
66550,-29.1875,36.875,-35.6875,0
66570,-28,38.3125,-35.5625,0
66590,-27.625,39.75,-37.5625,0
66610,-27.25,40.4375,-40.375,0
66630,-25.6875,39.5,-40.875,0
66650,-24.3125,41.125,-39.5625,0
66670,-24.375,45.125,-37.875,0
66690,-23,46.875,-36.5625,0
66710,-22.25,47.0625,-34.4375,0
66730,-19.8125,46.75,-32.9375,0
66750,-20.5,49.6875,-33.5,0
66770,-19.5625,48.5625,-33.25,0
66790,-20,43.8125,-30.9375,0
66810,-17.4375,42.8125,-30.625,0
66830,-17.25,43.5,-34.25,0
66850,-17.5625,43.5,-35.625,0
66870,-14.5,42.4375,-31.375,0
66890,-11.0625,40.75,-28.125,0
66910,-10.375,40.9375,-31.1875,0
66930,-11.5,41.125,-34.25,0
66950,-15.9375,38.9375,-31.375,0
66970,-13.125,38.3125,-24.0625,0
66990,-11.4375,39.1875,-19.8125,0
67010,-10.9375,39.875,-22.625,0
67030,-13.875,41.75,-20.4375,0
67050,-11.4375,37.25,-10,0
67070,-10.1875,33.1875,0.1875,0
67090,-9.375,30.9375,-6.5625,0
67110,-8.0625,29.5,-12.375,0
67130,-1.0625,31.5625,-4.125,0
67150,-2.125,32.875,5.9375,0
67170,-7.8125,28.125,11.375,0
67190,-1.125,23.4375,7.0625,0
67210,1.125,27.875,6.5625,0
67230,5.625,29.0625,19.125,0
67250,7.875,23.1875,23.75,0
67270,3.75,21.9375,20,0
67290,4.625,21.5625,22.3125,0
67310,7.75,16.5,33.1875,0
67330,6.9375,11.0625,37.375,0
67350,4.125,9.9375,30,0
67370,7.4375,6.6875,29.125,0
67390,8.25,2.875,38.625,0
67410,-2.5625,4.4375,43.1875,0
67430,-11.6875,6.1875,35.4375,0
67450,-12.875,4.6875,35,0
67470,-8.625,1.5625,44.4375,0
67490,-10.375,0.5,45.4375,0
67510,-13.875,-0.0625,40.125,0
67530,-7.3125,-3,38.5625,0
67550,-4.5625,-7.375,41.0625,0
67570,-5.5,-6.9375,42,0
67590,-9.875,-7.125,38.6875,0
67610,-5.8125,-11.4375,37.625,0
67630,-3.625,-17.625,36.125,0
67650,-3.5625,-19.75,36.5,0
67670,-9.1875,-20.625,37.625,0
67690,-11.1875,-25.3125,37.9375,0
67710,-10.625,-28.375,35.125,0
67730,-8.5,-31.6875,35.9375,0
67750,-13.375,-35.75,38.3125,0
67770,-14.125,-37.6875,35.3125,0
67790,-8.5,-38.875,30.9375,0
67810,-7.4375,-43.5625,34.625,0
67830,-12.625,-47.375,33.625,0
67850,-12.3125,-47.4375,26.0625,0
67870,-4.875,-48.625,22.875,0
67890,-3.8125,-51.75,23,0
67910,-7.6875,-53,20,0
67930,-5,-53.25,15.8125,0
67950,-0.9375,-56.5625,16.0625,0
67970,-2.3125,-55.75,15.8125,0
67990,-6.5,-54.8125,13.3125,0
68010,-4.5625,-56.1875,11.4375,0
68030,-2.6875,-55.3125,10.6875,0
68050,-3.5,-55.1875,13.125,0
68070,-0.125,-53.0625,10.25,0
68090,2.5625,-54.4375,5.5625,0
68110,1.125,-54.25,3.0625,0
68130,0.1875,-56.875,6.375,0
68150,3.4375,-57.375,10.375,0
68170,2.625,-57.25,-1.375,0
68190,5.125,-56.1875,-2.125,0
68210,1.6875,-55,1.875,0
68230,1.0625,-55.4375,2.0625,0
68250,4.375,-54.875,0.375,0
68270,6.125,-53,-4.75,0
68290,4.8125,-53.25,-2.3125,0
68310,1.375,-50.625,-1.3125,0
68330,1.25,-46.875,-6.625,0
68350,-1.125,-47.125,-8.875,0
68370,2.1875,-48.75,-9.5625,0
68390,-1.5625,-49.375,-11.625,0
68410,1.6875,-42.8125,-13.8125,0
68430,1.375,-43.1875,-15.9375,0
68450,-1.25,-45,-17.4375,0
68470,-4,-42.9375,-16.125,0
68490,-5.375,-40.25,-19.9375,0
68510,-3,-37.9375,-25.125,0
68530,-5.875,-37,-26.25,0
68540,-8.375,-35.125,-24.5625,0
68560,-8.875,-30.375,-26.875,0
68580,-9.5,-30.9375,-31.375,0
68600,-14.4375,-30.5625,-30.4375,0
68620,-16.9375,-29.25,-30.25,0
68640,-17.25,-28.1875,-33.375,0
68660,-18.9375,-27.6875,-35.625,0
68680,-22.9375,-25.25,-35.9375,0
68700,-24.875,-21.1875,-36.6875,0
68720,-26.375,-14.9375,-38.1875,0
68740,-27.25,-16.1875,-41.5625,0
68760,-27.1875,-11.625,-44.9375,0
68780,-30.75,-4.625,-45.4375,0
68800,-32.125,-2.875,-46.0625,0
68820,-27.25,-13.875,-48,0
68840,-34.4375,2.75,-52,0
68860,-37.125,4.25,-55.6875,0
68880,-36.875,6.3125,-56.4375,0
68900,-38.125,9.5625,-55.4375,0
68920,-38.625,14.125,-54.875,0
68940,-38.875,20.25,-55.25,0
68960,-38.875,25.875,-54.0625,0
68980,-38.5,29.0625,-50.5625,0
69000,-36.3125,31.6875,-48.1875,0
69020,-35.5,37.0625,-47,0
69040,-32.6875,41.875,-48.125,0
69060,-31.625,44.1875,-44.0625,0
69080,-28.75,47.25,-38.6875,0
69100,-25.875,49.375,-34.5,0
69120,-21.1875,52.0625,-33.5,0
69140,-18.0625,53.0625,-33.5625,0
69160,-19.0625,49.1875,-32.625,0
69180,-18.25,51.75,-29.375,0
69200,-19.1875,58.0625,-28.4375,0
69220,-13.4375,62.4375,-31.4375,0
69240,-9.9375,58.5,-30.3125,0
69260,-8.9375,55.875,-26.25,0
69280,-9.625,54.0625,-17.5,0
69300,-11.5,59.9375,-17.3125,0
69320,-10.5,63.625,-21.0625,0
69340,-10.875,55.75,-15.5,0
69360,-11.125,48.4375,2.375,0
69380,-14.6875,51.875,5.875,0
69400,-10.5,50.8125,2.75,0
69420,-12.0625,50.5,12.75,0
69440,-8.3125,40.6875,30.6875,0
69460,-6.75,37.6875,39.25,0
69480,-4.375,43.875,27.75,0
69500,0.75,44.625,28,0
69520,4.5625,33.3125,39.5625,0
69540,4.8125,33,50,0
69560,6.6875,34.625,44.3125,0
69580,12.5,33.75,31.9375,0
69600,14.125,31.5625,24.875,0
69620,17.9375,22.25,46.9375,0
69640,11.75,23.9375,53.1875,0
69660,10.8125,25.5625,37.5,0
69680,9,28.375,30.6875,0
69700,6.3125,24.375,41.875,0
69720,-10.1875,22.9375,45.6875,0
69740,-12.0625,21.25,42.1875,0
69760,-5.625,18.0625,39.375,0
69780,6.8125,13.6875,43.4375,0
69800,-1.125,11.8125,45.625,0
69820,-8.25,11.8125,45.5,0
69840,-13.125,8.5625,43.625,0
69860,-10.5625,3.25,46.4375,0
69880,-8.8125,-0.6875,47.0625,0
69900,-8.75,-3.625,44.625,0
69920,-11,-5.625,42.3125,0
69940,-13.25,-10.375,43.8125,0
69960,-11.5625,-14.625,44.0625,0
69980,-7.625,-18.9375,39.875,0
70000,-4.3125,-21.875,37.6875,0
70020,-6.1875,-24.5625,35.25,0
70040,-9.3125,-27.5,32.375,0
70060,-7.1875,-29.8125,29.3125,0
70080,-1.4375,-34.1875,27.5625,0
70100,-4.25,-37.625,28.5,0
70120,-7.625,-38.75,28,0
70140,-7.375,-42.9375,26.6875,0
70160,-6.3125,-47.875,27.875,0
70180,-5.5625,-49.5625,27.375,0
70200,-3.9375,-52.25,25.0625,0
70220,-0.6875,-55.625,24.5625,0
70240,-4,-57.5,24.125,0
70260,-8.3125,-58.625,22.5625,0
70280,-2.75,-59.5625,21.625,0
70300,2.4375,-61.1875,19.125,0
70320,0,-63.4375,18.25,0
70340,-4.25,-62.9375,19.0625,0
70360,-6.875,-60.5,15.5625,0
70380,-9.125,-61.375,12.625,0
70400,-8.75,-60.75,12.625,0
70420,-3.0625,-61.5,11,0
70440,0.375,-62.625,6,0
70460,-0.5625,-59.5,2.8125,0
70480,-5.75,-55.8125,2.3125,0
70500,-3.5,-55.1875,-2.125,0
70520,-1.625,-55.0625,-6.4375,0
70540,0.5,-52.5625,-7.8125,0
70560,-8.125,-54.625,-16.625,0
70580,-8.3125,-51,-19.25,0
70600,-11.0625,-46.125,-20.0625,0
70620,-7.125,-44.125,-24.5,0
70640,-5,-47.5625,-23.875,0
70660,-6.8125,-40.5,-26.8125,0
70680,-7.625,-31.9375,-31.6875,0
70700,-9.5625,-31.375,-31.875,0
70720,-9.5625,-34.75,-30.3125,0
70740,-8.75,-32.0625,-35.5625,0
70760,-11.0625,-31.375,-40.375,0
70780,-15.4375,-28.1875,-40.5,0
70800,-18.5625,-26.125,-40.125,0
70820,-16.25,-24.0625,-42.625,0
70840,-16,-26.4375,-46.5625,0
70860,-19.8125,-22.4375,-48.375,0
70880,-23.3125,-13.875,-48.6875,0
70900,-25.0625,-9.25,-48.5,0
70920,-23.6875,-10.75,-51.75,0
70940,-21.75,-10.125,-51.3125,0
70960,-23.625,-6.25,-49.375,0
70980,-23.75,-4.8125,-52.375,0
71000,-28.875,2,-58,0
71020,-27.625,2.125,-56.875,0
71040,-29.5,6.5,-52.75,0
71060,-27.375,10.6875,-53.1875,0
71080,-28.75,15.3125,-54.4375,0
71100,-31.25,23.6875,-52.375,0
71120,-29.3125,26.4375,-50.5625,0
71140,-28.5,30.75,-49.4375,0
71160,-29.3125,33.1875,-48.6875,0
71180,-32.75,36.25,-42.8125,0
71200,-32.375,40.5625,-39.0625,0
71220,-31.375,42.875,-38.75,0
71240,-34.375,44.6875,-36.75,0
71260,-32.8125,45.375,-33.4375,0
71280,-33.125,48.5625,-30.1875,0
71300,-34,51.6875,-26.625,0
71320,-32.375,51.625,-23.4375,0
71340,-31.75,56.0625,-21.125,0
71360,-25.3125,59.5,-18.0625,0
71380,-15.75,56.25,-15.625,0
71400,-12.625,54.125,-9,0
71420,-1.9375,52.4375,-7,0
71440,-4.125,58.875,-7.875,0
71460,-4.8125,61.625,-1.125,0
71480,2.0625,51.5625,9.25,0
71500,9.1875,48.1875,8.9375,0
71520,15.8125,47.125,9.75,0
71540,8.375,50.5,7.75,0
71560,6,47.25,18.875,0
71580,9.5,41.0625,24.875,0
71600,20,35.25,21.1875,0
71620,17.5,39.5,19.125,0
71640,7.6875,42.75,26.875,0
71660,-1.75,42.375,34.6875,0
71680,-12,41.625,32.875,0
71700,-18,40.0625,30.3125,0
71720,-16.0625,41.8125,32.6875,0
71740,-10.625,40.4375,34,0
71760,-14.5625,37.4375,33.0625,0
71780,-25.75,37.4375,31.75,0
71800,-22.3125,32.1875,25.9375,0
71820,-12.5,36.3125,20.375,0
71840,-3.5625,30.3125,33.3125,0
71860,-13.4375,24.125,44.125,0
71880,-27.8125,23.375,39.625,0
71900,-22.875,17.0625,34.375,0
71920,-9,14.0625,30.9375,0
71940,-4.9375,9.875,36.25,0
71960,-18.875,6.625,40.375,0
71980,-29.25,3.8125,39.375,0
71990,-16.6875,-7,34.1875,0
72010,-6.5,-11.9375,31.6875,0
72030,-9,-9.5625,34.75,0
72050,-14.125,-12.625,37.6875,0
72070,-16.3125,-18.875,37.6875,0
72090,-11.625,-23.875,35.75,0
72110,-4.875,-21.6875,31.8125,0
72130,-3.9375,-24.0625,31.375,0
72150,-11.1875,-28.125,36.4375,0
72170,-14.75,-32.5,36.625,0
72190,-8.9375,-33.3125,30.875,0
72210,-0.0625,-32.4375,28,0
72230,-0.9375,-35.125,29.625,0
72250,-6.125,-38.1875,32.9375,0
72270,-7.5625,-38.625,28.375,0
72290,-2.25,-41.375,27,0
72310,-0.125,-41.8125,25.5625,0
72330,-2.0625,-40.4375,25.4375,0
72350,-5.5625,-41.3125,22.875,0
72370,-7.75,-42.5,23.125,0
72390,-4.1875,-43.5,23,0
72410,5.5,-41.4375,13.75,0
72430,13.25,-48,10.375,0
72450,8,-50.375,12.5625,0
72470,2.1875,-45.6875,9.4375,0
72490,3.1875,-44.5625,5.125,0
72510,3.6875,-49,5.9375,0
72530,10.6875,-51.5,5.3125,0
72550,13.75,-52.1875,1.375,0
72570,5.1875,-46.75,-4,0
72590,-4.625,-44.9375,-2.0625,0
72610,2.0625,-50,0.8125,0
72630,12.1875,-54.3125,-3.6875,0
72650,7.3125,-49.75,-6.375,0
72670,-5.25,-42.8125,-6.75,0
72690,-6.0625,-44.625,-5.3125,0
72710,2.6875,-50.6875,-4.8125,0
72730,2.125,-48.125,-8.4375,0
72750,0.1875,-40.3125,-13.625,0
72770,-0.625,-35.875,-13.625,0
72790,1.875,-43.5625,-12.4375,0
72810,6.125,-46.75,-16.6875,0
72830,8.4375,-37.625,-23.5625,0
72850,6.625,-33.4375,-25.125,0
72870,2.375,-40.5,-20.4375,0
72890,5.25,-44.75,-20.625,0
72910,9.375,-38,-28.5,0
72930,8.6875,-31.5625,-28.875,0
72950,1.75,-31.9375,-23.25,0
72970,2.125,-38.9375,-22.625,0
72990,5.125,-36.5625,-24.1875,0
73010,10.375,-32,-28.25,0
73030,3.875,-29.5625,-27.5625,0
73050,-0.1875,-27.5,-22.1875,0
73070,1.9375,-24.125,-22.625,0
73090,8.0625,-21.8125,-27.625,0
73110,4.4375,-20.8125,-27.75,0
73130,5.0625,-18.6875,-23.3125,0
73150,7.4375,-18.375,-20.6875,2001
73170,4.75,-16.625,-24.4375,0
73190,1.125,-15.75,-23.25,0
73210,3.5,-6.5625,-23.375,0
73230,1.4375,-8.25,-14.25,0
73250,-0.5625,-10.1875,-7.0625,0
73270,-4.625,-9.6875,-8.9375,0
73290,-3,-4.6875,-10.6875,0
73310,-3.375,-0.8125,-8.25,0
73330,-3.9375,-4.625,-0.75,0
73350,-3.4375,-4.0625,4.25,0
73370,-2.0625,-1.375,4.6875,0
73390,0.625,-2.125,4.6875,0
73410,1.1875,-1.125,3.3125,0
73430,4,-2.3125,4.9375,0
73450,3.6875,-0.1875,5.625,0
73470,5,-0.625,9.375,0
73490,3.4375,4.4375,10.9375,0
73510,2.3125,15.3125,3.25,0
73530,-0.8125,19.9375,3.0625,0
73550,-4.5,20.6875,14.5625,0
73570,-4.9375,23.5,15.4375,0
73590,-0.625,28.8125,14.125,0
73610,-2.5625,35.9375,12.1875,0
73630,-1.6875,44,10.3125,0
73650,-2.875,52.125,14.625,0
73670,-3.375,50.375,30.125,0
73690,0.5,51.75,36,0
73710,8.125,56.125,34.4375,0
73730,5.9375,60,35.1875,0
73750,-1.0625,66.4375,44.75,0
73770,2,72.9375,53.375,0
73790,11.875,80.4375,52.9375,0
73810,11.375,87,56.1875,0
73830,8.125,89.5,63,0
73850,16,90.3125,65.625,0
73870,36.75,89.6875,58.125,0
73890,37.4375,91.8125,67.375,0
73910,26.625,95.0625,81.8125,0
73920,32.8125,94.1875,84.25,0
73950,48.8125,92.625,73.5625,0
73970,55.6875,95.125,67.1875,0
73990,59.5625,92.375,69.3125,0
74010,56.125,89.125,80.5,0
74020,50.5,86.5,78.4375,0
74040,50.875,78.4375,73.75,0
74060,50.0625,66.375,73.125,0
74080,47.0625,51.1875,67.0625,0
74100,47.6875,40.3125,60.1875,0
74120,53.4375,30.25,53.875,0
74140,42.25,20.875,51.9375,0
74160,26.375,12.125,46.5625,0
74180,21.375,0.875,35.3125,0
74200,26.1875,-6.8125,20.625,0
74220,30.8125,-13.25,13.125,0
74240,26.75,-19.75,12.5,0
74260,21.9375,-22.0625,7.9375,0
74280,17.4375,-22.0625,-1.5625,0
74300,19.9375,-23.4375,-9.125,0
74320,16.6875,-23,-10.5,0
74340,10.25,-21.6875,-7.25,0
74360,8.3125,-18.75,-13.1875,0
74380,5.375,-17.5,-16.8125,0
74400,5.125,-15.5625,-16.5625,0
74420,1.5625,-13.875,-13.9375,0
74440,-0.3125,-15.125,-9.25,0
74460,-3.4375,-11.4375,-10.6875,2000
74480,-3.375,-6.875,-14.125,0
74500,-6,-4,-8,0
74520,-7,-2.5,-1.6875,0
74540,-3.8125,1.0625,1.0625,0
74560,-0.9375,0.5625,0.5625,0
74580,-5.4375,2.375,-2.5625,0
74600,-8.3125,2.125,-3.375,0
74620,-5.375,-0.625,2.75,0
74640,1.625,-4.75,1.6875,0
74660,4,-8,2.0625,0
74680,2.1875,-11.25,6.5625,0
74700,4.3125,-13.4375,6.5625,0
74720,6.6875,-13.125,2.3125,0
74740,7.8125,-14.25,3.0625,0
74760,3.5625,-15.5,8,0
74780,1.75,-17.4375,10.1875,0
74800,8.125,-18.25,7.125,0
74820,9.8125,-20.25,4.875,0
74840,5.8125,-21.3125,4.8125,0
74860,-3.875,-24.1875,7.9375,0
74880,-2,-26.875,5.875,0
74900,0,-28.3125,1.6875,0
74920,4.0625,-29.25,-2.5625,0
74940,6.0625,-31.6875,-4,0
74960,9.25,-33.625,-5.3125,0
74980,6.9375,-32.9375,-5.4375,0
75000,8.5,-32.4375,-7.625,0
75020,3.5625,-33.125,-9.25,0
75040,0.625,-34.4375,-7.5,0
75060,0.375,-37.0625,-7.8125,0
75080,1.125,-38.9375,-11.375,0
75100,-0.375,-38.5,-12.375,0
75120,-2.25,-42.1875,-11.875,0
75140,-3.625,-42.0625,-19,0
75160,-6.1875,-42.5625,-21.125,0
75180,-7.5,-43.3125,-22.75,0
75200,-8.5625,-44.625,-25.25,0
75220,-6.625,-45.1875,-30.75,0
75240,-8.5,-45.3125,-31.0625,0
75260,-15.8125,-42.75,-29.625,0
75280,-18.125,-40.8125,-32.625,0
75300,-20.125,-42,-34.8125,0
75320,-22.75,-37.375,-37.375,0
75340,-25.125,-36.5625,-40.8125,0
75360,-27.9375,-30.5625,-41,0
75380,-29.0625,-25.6875,-44.6875,0
75400,-31,-24.125,-48.5625,0
75420,-36.4375,-16.5625,-48.1875,0
75440,-36.3125,-12.0625,-50.25,0
75460,-39.8125,-2.625,-52.125,0
75480,-41.5625,2.8125,-53.0625,0
75500,-42.1875,6.875,-54.125,0
75520,-45,11.3125,-52.9375,0
75540,-48,14.9375,-52.25,0
75560,-48.8125,17.1875,-53,0
75580,-46.4375,23.0625,-53.4375,0
75600,-50.1875,38.4375,-50.5,0
75620,-48.375,43.625,-50.5625,0
75640,-48.1875,45.5,-49.375,0
75660,-47.6875,49.6875,-48.8125,0
75680,-47.25,57.0625,-47.9375,0
75700,-44.625,60.5625,-45.8125,0
75720,-40.9375,61.1875,-43.125,0
75740,-38.625,65.5,-41.1875,0
75760,-36.5,71.3125,-39.75,0
75780,-36.1875,75,-34.375,0
75800,-31.375,74.625,-31.0625,0
75820,-25.6875,76,-29.5625,0
75840,-20.9375,75.5,-30.3125,0
75860,-21.625,75.125,-31.375,0
75880,-19.0625,71.75,-27.125,0
75900,-15.0625,70.6875,-20.6875,0
75920,-10.5625,71.125,-21.75,0
75940,-7.1875,69.25,-26.6875,0
75960,-8.6875,62.125,-20.9375,0
75980,-9.0625,54.5,-6.3125,0
76000,-11.625,55.8125,-3.625,0
76020,-7.4375,56.375,-8.125,0
76040,-0.6875,52.4375,-4.8125,0
76060,4.8125,45.5625,2.3125,0
76080,4.25,44.4375,10.6875,0
76100,-3.1875,46.9375,13.4375,0
76120,2.1875,42.6875,17.4375,0
76140,3.25,35.875,28,0
76160,2.875,33.6875,32.6875,0
76180,6.625,31.875,28.0625,0
76200,8.25,31.3125,29.5,0
76220,9.9375,24.3125,44.8125,0
76240,11.125,22.5,49.4375,0
76260,10.125,20.3125,41.0625,0
76280,12,14.5625,44.8125,0
76300,12.8125,7.25,60.8125,0
76320,7.0625,8.0625,54.1875,0
76340,-0.3125,9.4375,38.875,0
76360,-1.9375,6.25,42.4375,0
76380,2.25,2.375,53.6875,0
76400,-1.1875,-0.0625,51.75,0
76420,-5,0.3125,42,0
76440,-5.3125,-2.3125,41.875,0
76460,1.625,-9.375,48.4375,0
76480,3.125,-12.4375,46.4375,0
76500,0.0625,-13.3125,42.0625,0
76520,-4.8125,-17.9375,43.5625,0
76540,-3.9375,-22,45.25,0
76560,-5.4375,-24.5,47.4375,0
76580,-8.875,-26.75,46.3125,0
76600,-10.1875,-28.6875,45.5,0
76620,-8.0625,-31.125,45.8125,0
76640,-9.6875,-36.6875,45.75,0
76660,-13.25,-38.25,43.8125,0
76680,-12.1875,-40.0625,45,0
76700,-8.8125,-45.0625,40.875,0
76720,-11.25,-46,36.6875,0
76740,-12.125,-45.4375,35.3125,0
76760,-8.5625,-49.4375,32.3125,0
76780,-8.875,-50.6875,26.5,0
76800,-9.4375,-50.25,23.1875,0
76820,-5.25,-52.6875,21.6875,0
76840,-0.9375,-54.0625,17.5,0
76860,-5.5,-55.4375,15.125,0
76880,-10.0625,-58.1875,14.8125,0
76900,-2.9375,-56.75,3.9375,0
76920,2,-55,-1.375,0
76940,-1.8125,-60.1875,6.4375,0
76960,0.0625,-63.1875,4.625,0
76980,-0.125,-66.75,-5.3125,0
77000,-0.5625,-61.875,-8.375,0
77020,-1.4375,-62.1875,-3.8125,0
77040,4.3125,-62.5,-2.5,0
77060,6.0625,-63.25,-5.1875,0
77080,4.3125,-60.25,-8.5,0
77100,-4.9375,-56.9375,-9.375,0
77120,-5.8125,-58.125,-11.4375,0
77140,-4.6875,-58.5625,-14.25,0
77160,-5.3125,-56.875,-13.875,0
77180,-5.5625,-56.875,-12.4375,0
77200,-7.125,-55.875,-15.6875,0
77220,-10.125,-55.625,-16.75,0
77240,-10.75,-51.25,-19.125,0
77260,-8.1875,-51.6875,-21.1875,0
77280,-7.25,-55.4375,-22.375,0
77300,-10.25,-52.25,-23,0
77320,-11.25,-50.5,-30.25,0
77340,-13.5,-49.6875,-35.1875,0
77360,-14,-47.8125,-34.625,0
77380,-14.9375,-46.75,-37.25,0
77400,-16.5,-46,-44.3125,0
77420,-16.625,-45.4375,-48.625,0
77440,-22.375,-38.875,-52.1875,0
77450,-26.0625,-33.1875,-54.625,0
77470,-26.5,-26.875,-57.1875,0
77490,-22.9375,-17.625,-59.8125,0
77510,-27.1875,-13.375,-59.3125,0
77530,-31.0625,-7.5,-59.9375,0
77550,-35,4.125,-65,0
77570,-40,9.8125,-68.5625,0
77590,-32.875,13.4375,-63.0625,0
77610,-37.75,39.625,-55.5,0
77630,-35.25,35.25,-57.6875,0
77650,-37.4375,36.1875,-60.4375,0
77670,-40.875,45.9375,-61,0
77690,-40.0625,56.5625,-58.375,0
77710,-37.875,62.5,-51.5625,0
77730,-36.375,61.25,-43.75,0
77750,-33.75,62.1875,-38.8125,0
77770,-32.5625,67.0625,-37.125,0
77790,-31.1875,67.6875,-33.3125,0
77810,-32.3125,60.25,-28.8125,0
77830,-32.125,58.375,-28.125,0
77850,-30.375,64.1875,-32.1875,0
77870,-26.8125,66.375,-38.1875,0
77890,-21.4375,57.125,-28.1875,0
77910,-20.8125,54.125,-22.75,0
77930,-21.0625,60.875,-28.625,0
77950,-14.4375,64.25,-28.25,0
77970,-15.8125,55.5,-17.9375,0
77990,-20.375,58.625,-9.1875,0
78010,-22.0625,65.375,-12.875,0
78030,-13,63.3125,-14.3125,0
78050,-7.375,59,-6.25,0
78070,-11.375,59.6875,6.5625,0
78090,-12.75,62,7.875,0
78110,-4.1875,65.4375,7.4375,0
78130,-4.0625,52.5625,19.25,0
78150,-0.125,51,30.9375,0
78170,5.4375,52.75,24,0
78190,12.1875,52.3125,22.125,0
78210,11.125,38.5,41.4375,0
78230,6.6875,33.9375,46.625,0
78250,5.5,36.75,37.8125,0
78270,11.75,30.75,47,0
78290,10.625,26.375,55.375,0
78310,-3.875,28.25,46.25,0
78330,-16.1875,28,45.75,0
78350,-16.875,24.25,51,0
78370,-15.875,17.4375,53.9375,0
78390,-12.1875,15.0625,53.375,0
78410,-14.3125,13.3125,49.9375,0
78430,-15.3125,9.375,49.9375,0
78450,-18.6875,4.5,50.5625,0
78470,-18.125,1.5625,50.4375,0
78490,-15.25,-1.6875,45.75,0
78510,-17.1875,-6.375,47.75,0
78530,-17,-12.1875,50.875,0
78550,-16.25,-14.9375,46.125,0
78570,-15.5,-18.75,43.75,0
78590,-14.8125,-21.6875,45,0
78610,-14.75,-26.9375,41.6875,0
78630,-11.8125,-32.5625,37.8125,0
78650,-8.875,-33.875,38.75,0
78670,-4.1875,-34.8125,36.5,0
78690,0.875,-37.375,34.875,0
78710,4,-38.9375,34.3125,0
78730,1.3125,-40.3125,32.3125,0
78750,-1.6875,-41.625,30.6875,0
78770,1.6875,-43.9375,30.4375,0
78790,4.625,-49.4375,27.5,0
78810,-1.375,-55.75,27.8125,0
78830,-7.875,-56.5625,25.0625,0
78850,-3.0625,-57.125,22.125,0
78870,3.75,-61.5625,18.3125,0
78890,1.8125,-66.75,16.5625,0
78910,-3.375,-65.4375,15.25,0
78930,0.1875,-65.25,13,0
78950,2.3125,-69.6875,10.9375,0
78970,2,-72,12.5,0
78990,1.1875,-69.375,8.125,0
79010,-2.375,-68.5625,5.0625,0
79030,-4.75,-70,7.4375,0
79050,-2.1875,-70.875,7.0625,0
79070,2.625,-68.0625,-3.5,0
79090,2,-64.6875,-7.3125,0
79110,2.8125,-62.625,-9.5,0
79130,5.5,-63.3125,-12.625,0
79150,-7.75,-61.9375,-22.25,0
79170,-5.9375,-59.125,-25.8125,0
79190,-4.75,-58.1875,-26.75,0
79210,-7.1875,-57.8125,-25.6875,0
79230,-9.9375,-53.3125,-28.3125,0
79250,-7.25,-51.125,-31.9375,0
79270,-9.625,-48.8125,-36.4375,0
79290,-11.375,-48.875,-39.4375,0
79310,-14,-42.8125,-41,0
79330,-17.3125,-35.4375,-38.125,0
79350,-16.75,-38.125,-36.5625,0
79370,-15.625,-36.8125,-42.625,0
79390,-13.625,-33.25,-49.125,0
79410,-14.1875,-28.5,-50.875,0
79430,-22.3125,-24.9375,-48.75,0
79450,-19.25,-26.125,-50.5,0
79460,-19.6875,-22.3125,-53.5,0
79480,-24.5,-13.625,-54.8125,0
79500,-28.8125,-9.8125,-51.6875,0
79520,-28.9375,-7.625,-48.75,0
79540,-28.875,-5.3125,-49,0
79560,-31.5625,2.1875,-50.4375,0
79580,-32,7.3125,-51.5,0
79600,-29.5,6.1875,-53,0
79620,-34.625,11.875,-49.625,0
79640,-34.6875,16.125,-51.6875,0
79660,-33.0625,18.75,-52.8125,0
79680,-25.9375,17.125,-55.0625,0
79700,-35.3125,22.4375,-50.1875,0
79720,-35.5,27.375,-50.3125,0
79740,-35.1875,33.875,-52.6875,0
79760,-35.6875,38.125,-47.5,0
79780,-33.4375,39.3125,-42.1875,0
79800,-31.625,41.8125,-37.1875,0
79820,-31.9375,50.375,-34.4375,0
79840,-32.9375,58.3125,-32.75,0
79860,-34.4375,58.8125,-23.375,0
79880,-32,60.25,-18.6875,0
79900,-28.5625,64.8125,-21.625,0
79920,-27.25,70.125,-19.125,0
79940,-22.5,65.5625,-8.375,0
79960,-21.8125,67.5625,-3.3125,0
79980,-21,77.375,-1.3125,0
80000,-16.25,84.25,3.5,0
80020,-0.4375,75.3125,9.75,0
80040,11,68.1875,20.3125,0
80060,8.875,72.625,19.6875,0
80080,11.1875,73.5625,22.9375,0
80100,14.3125,54,34.0625,0
80120,17.125,47.375,36.125,0
80140,10.4375,53.875,31.625,0
80160,6.8125,55.5,32.75,0
80180,5.875,46.6875,41.0625,0
80200,-6.4375,46.125,44.1875,0
80220,-20.375,48.625,41.875,0
80240,-26.875,52.9375,40.8125,0
80260,-17.6875,46.0625,50.5,0
80280,-18.625,37.625,49.4375,0
80300,-31.75,40.5625,50.5,0
80320,-40.5,43.375,52.0625,0
80340,-21.75,30.75,53.6875,0
80360,-18.75,23.4375,49.1875,0
80380,-35.375,24.3125,47.625,0
80400,-43.0625,17.4375,50.75,0
80420,-33,7,52.75,0
80440,-23.9375,-2.4375,47.875,0
80460,-29.5,-6.1875,44.8125,0
80480,-31,-8.3125,43.0625,0
80500,-28.25,-19.8125,44.25,0
80520,-31.875,-29.75,44.5,0
80540,-27.625,-31.4375,39.3125,0
80560,-8.3125,-37.1875,37.875,0
80580,-0.875,-45.5625,34.375,0
80600,-9.9375,-48.125,35.3125,0
80620,-10.0625,-46.875,34.0625,0
80640,-2.875,-57.25,34.9375,0
80660,-5.125,-59.125,32.0625,0
80680,-4.125,-59.5,32,0
80700,-2.6875,-64.75,33.4375,0
80720,-6.0625,-69.375,34.5625,0
80740,-7.6875,-69,31.25,0
80760,-2.5,-70.625,27.8125,0
80780,-1.375,-70.8125,27.9375,0
80800,-3.8125,-71,25.5625,0
80820,2.875,-72.375,21.5625,0
80840,8.625,-76.4375,17.9375,0
80860,4.625,-72.25,13.125,0
80880,2.6875,-70.25,8.75,0
80900,4.6875,-70.5625,5.9375,0
80920,8.5,-70.625,1.8125,0
80940,9.5625,-67.3125,-4.375,0
80960,13.875,-63.25,-10.0625,0
80980,14.75,-63.3125,-13.0625,0
81000,9.1875,-61.375,-14.6875,0
81020,9.75,-58.125,-21.4375,0
81040,18.5,-56.125,-27.25,0
81060,20.9375,-55.625,-27.5,0
81080,10.625,-53,-27.375,0
81100,7.5625,-47.875,-27.4375,0
81120,11.1875,-46.5,-30.5,0
81140,13.4375,-44.25,-32.0625,0
81160,7.3125,-41.0625,-30.75,0
81180,3.8125,-36.5,-26.375,0
81200,6.1875,-37.25,-31.5625,0
81220,6.0625,-35.5,-34.3125,0
81240,-1.0625,-31.25,-29.3125,0
81260,-5.5,-32.0625,-29.5,0
81280,0.4375,-29.4375,-35.25,0
81300,-0.4375,-26.9375,-37.375,0
81320,-6.8125,-27.375,-27.8125,0
81340,-7.375,-26.625,-25.5625,0
81360,1,-25.125,-30.9375,0
81380,-1.9375,-19.125,-33.875,2001
81400,-6.875,-16.875,-30.5,0
81420,-3.625,-15.5625,-29.375,0
81440,-1.4375,-12,-29.1875,0
81460,-0.1875,-8.1875,-20.9375,0
81480,-3.0625,-6.75,-17.1875,0
81500,-6.8125,-5.75,-17.875,0
81520,-2.3125,-3.1875,-13.8125,0
81540,-1.5625,2.625,-11.75,0
81560,-2.0625,-1.375,-4.875,0
81580,0.125,-2.1875,1.5625,0
81600,0.8125,-2.3125,0.25,0
81620,0.3125,-1.5625,4.125,0
81640,2.4375,-3.1875,6.8125,0
81660,6.75,-3.875,4.75,0
81680,7.125,0,4.875,0
81700,8.3125,3.125,2.1875,0
81720,14.375,6.4375,-5.5625,0
81740,7,8.6875,1.3125,0
81760,-0.3125,13.75,9.875,0
81780,7.625,24.4375,3,0
81800,3.8125,34.625,-3.625,0
81820,1.6875,39.6875,6.625,0
81840,-6.9375,39.4375,21.625,0
81860,-4.6875,47.5625,33.125,0
81880,-9.25,57.375,34.75,0
81900,-4.0625,61.1875,37.6875,0
81920,2.6875,63.3125,41.0625,0
81940,7.375,64.5,46.625,0
81960,7.8125,73.375,59,0
81980,3,86.875,72.5,0
82000,6.9375,98.625,71.9375,0
82020,16.5,99.3125,64.25,0
82040,23.5625,96.625,68.4375,0
82060,29.625,102.062,78.125,0
82080,39.4375,114.688,86.0625,0
82100,43.25,117.625,87.5625,0
82120,51.3125,121.312,82.4375,0
82140,62.5625,127.938,84.75,0
82160,59.5625,121.75,98.8125,0
82180,47.875,112.312,98.5625,0
82200,51.25,106.562,94.25,0
