Timestamp, Rotation x, Rotation y, Rotation z, Marker
10,-1.1875,-2.1875,-0.1875,0
50,-2.875,-0.6875,-0.125,0
70,-3.1875,0.25,0.8125,0
90,-2.3125,1.0625,1.0625,0
110,-2.25,1.4375,1.0625,0
130,-3.4375,1.375,0.4375,0
130,-3.5,0.5,0.625,0
160,-0.5625,0.25,0.3125,0
180,1.125,-0.4375,-1.0625,0
200,3.625,-0.5625,-2.5625,0
220,6.125,-1.25,-2.625,0
240,7.3125,-1.875,-1.8125,0
260,5.375,-2.5,-1,0
280,3.0625,-2.625,-0.625,0
300,3.125,-3.25,-0.375,0
320,4.9375,-3.25,-1.3125,0
340,7.75,-2.625,-1.625,0
360,8.1875,-1.875,-2,0
380,7,-1.375,-2.9375,0
400,5.9375,-1.1875,-3.25,0
410,6.5,-1,-1.8125,0
430,6.25,-1.375,-0.25,0
450,3.625,-2.375,-0.9375,0
470,1.6875,-2.8125,-1.4375,0
490,0.8125,-2.375,0.8125,0
510,-0.4375,-1.75,2,0
530,-1.0625,-2.125,2.5,0
560,-8.25,11.9375,2.3125,0
580,-6.8125,8.625,3.875,0
600,-15.9375,0.125,7.0625,0
620,-11.25,1.3125,4.875,0
640,-10.25,7.1875,6.375,0
660,-13.875,7.25,6.9375,0
680,-17.75,8,5.6875,0
700,-21.875,7.375,5.0625,0
720,-22.375,5.8125,4,0
740,-24.5,4.8125,0.625,0
760,-21.375,4.6875,-1.625,0
780,-15.0625,4.3125,-1.4375,0
800,-10.5625,5.1875,0.0625,0
820,-10.5625,6.0625,0.8125,0
840,-7.125,5.5625,-0.6875,0
860,-4,4.8125,-0.125,0
880,-2.25,5.4375,2.5,0
900,-6,5.6875,4.4375,0
920,-9.5,4.8125,3.5625,0
940,-10.0625,2.1875,1.8125,0
960,-10.5,1.375,2.3125,0
980,-11.25,1.0625,4,0
1000,-14.6875,0.625,4.4375,0
1020,-19.625,-0.1875,4.375,0
1040,-21.625,-0.75,4,0
1060,-18.75,-1.625,2.9375,0
1080,-15.625,-1.5625,2.8125,0
1100,-12.25,0.3125,2.75,0
1120,-6.6875,1.0625,1.5,0
1140,-2.25,1.5625,-0.1875,0
1160,-0.6875,1.1875,-1.25,0
1180,3.0625,-0.5,-1.375,0
1200,4.5625,-1.5625,-0.9375,0
1220,5.5,-2.625,-1.0625,0
1240,6.6875,-4.5625,-1.75,0
1260,10.125,-6,-2.125,0
1280,11.5625,-5.8125,-1.5625,0
1300,10.5625,-4.1875,-0.9375,0
1320,8,-1.9375,-0.4375,0
1340,6.1875,-0.8125,-0.125,0
1360,6.4375,0.5,-1.0625,0
1380,6.4375,0.9375,-2.25,0
1400,5.5625,1.1875,-2.125,0
1420,2.625,-0.1875,-1.9375,0
1440,1.25,-1.125,-1.75,0
1460,1.6875,-1.6875,-1.5,0
1480,3.625,-2.5625,-1,0
1500,5.4375,-2.4375,-0.75,0
1520,6.0625,-2.375,-0.875,0
1540,6.125,-2,-1.75,0
1560,6.8125,-2.125,-1.625,0
1580,7.0625,-2.25,-1.9375,0
1600,8.25,-3.8125,-2.4375,0
1620,9.8125,-5.5625,-2.8125,0
1640,12.1875,-6.4375,-3.5625,0
1660,12.25,-6.9375,-3.375,0
1680,9.25,-5.5625,-2.625,0
1700,7.8125,-4.75,-2.75,0
1720,7.875,-4.125,-2.125,0
1740,6.25,-2.875,-1.0625,0
1760,3.5625,-2.3125,-0.125,0
1780,2.25,-3.75,0.75,0
1800,0.375,-2.625,2.625,0
1820,-5.3125,1.25,1.625,0
1840,-6.3125,1.3125,2.125,0
1860,-10.3125,2.8125,3.5,0
1880,-13.1875,4.375,3.625,0
1900,-13.125,3.9375,1.3125,0
1920,-3.8125,3.25,-2.625,0
1940,9.75,0.75,-5.125,0
1960,13.25,1.5,-5,0
1980,8.25,3.0625,-3.125,0
2000,8.75,4.625,-1.6875,0
2020,12.8125,6.3125,-2.375,0
2040,17,6.75,-1.25,0
2060,12.5625,4.8125,1.625,0
2080,5.5625,0.3125,1.9375,0
2100,-1.9375,-3.875,-0.125,0
2120,-9.3125,-5.9375,-0.5,0
2140,-14.6875,-6.75,1.0625,0
2160,-14.75,-6.3125,0.25,0
2180,-11.625,-4.4375,-0.25,0
2200,-10.0625,-0.75,0.0625,0
2220,-5.0625,2.8125,1.0625,0
2240,1.5625,5.75,2.0625,0
2260,5.25,7.125,1.25,0
2280,4.8125,5.5,-0.125,0
2300,6.5,3.375,-0.875,0
2320,9,-0.25,-3.3125,0
2340,9.375,-3.5,-4.0625,0
2360,5.1875,-5.0625,-3.1875,0
2380,2.6875,-7.5625,-2,0
2400,1.3125,-9,-0.875,0
2420,2.8125,-9.375,-0.3125,0
2440,3.625,-7.6875,-0.25,0
2460,4.75,-5.125,0,0
2470,5.375,-2.125,0.0625,0
2490,3.4375,1.25,0.25,0
2510,0.5,3.6875,0.125,0
2530,1.75,3.1875,-0.625,0
2550,6.625,1.75,-2.125,0
2570,10.8125,0.875,-2.6875,0
2590,10.625,-1.9375,-2.25,0
2610,5.625,-4.0625,-1.75,0
2630,1.8125,-5.5625,-0.75,0
2650,2.1875,-5.875,0.5,0
2670,5.9375,-5.375,1.5625,0
2690,6.125,-4.75,1.875,0
2710,-0.8125,-3.5,1.5625,0
2730,-4.5625,-2.25,-0.25,0
2750,-3.8125,-0.9375,-1.75,0
2770,-2,0.6875,-1.25,0
2790,-3.5,2,-0.875,0
2810,-3.875,2.5625,-0.6875,0
2830,-2.625,2.125,-0.1875,0
2850,-1.1875,0.9375,1.3125,0
2870,-0.125,-0.125,1.75,0
2890,-0.6875,-0.75,0.8125,0
2910,-1.25,-1.5625,0.1875,0
2930,-2.1875,-1.5625,0.3125,0
2950,-1.5,-1.5,0.25,0
2970,-0.4375,-2,0.0625,0
2990,1.125,-2,-0.0625,0
3010,0.875,-1.375,0,0
3030,1.4375,-0.375,0.0625,0
3050,3.6875,-0.3125,0.0625,0
3070,4.25,-1.375,-0.3125,0
3090,2.0625,-1.5,-0.75,0
3110,1.25,-2.375,-1.75,0
3130,3.75,-2,-1.9375,0
3150,6.4375,-1.5625,-2.375,0
3170,6.8125,-1.4375,-2.9375,0
3190,6.6875,-1.4375,-2.5,0
3210,7.25,-1.3125,-1.8125,0
3230,8.3125,-1.6875,-1.6875,0
3250,9.75,-2.6875,-1.75,0
3270,6.625,-3.3125,-1.8125,0
3290,2.625,-2.625,-1.3125,0
3310,1.625,-2.5,-1.3125,0
3330,3.4375,-3.25,-1.8125,0
3350,4.875,-2.9375,-2.1875,0
3370,3.375,-2.875,-2.6875,0
3390,0.625,-2.25,-2.8125,0
3410,2.9375,-1.8125,-2.25,0
3430,6.0625,-0.5,-2.375,0
3450,6.625,0.875,-2.0625,0
3470,-1.625,5,-0.6875,0
3470,-1.4375,6,0.0625,0
3490,5.1875,3.9375,-1.75,0
3510,12.625,-0.125,-2.4375,0
3530,14.75,-5.375,-4,0
3570,10.875,-7.4375,-3.9375,0
3590,3.0625,-5.125,-3.3125,0
3590,-6,-5,-1.0625,0
3610,-8.875,-5.4375,1.0625,0
3630,-6.1875,-6.0625,2.5,0
3650,-8.6875,4.25,0.375,0
3680,-7.5625,1,0,0
3710,5.8125,7.375,-0.9375,0
3730,-2.4375,-1.25,3.6875,0
3750,-0.8125,-0.625,6.875,0
3770,-3.5,4.0625,2,0
3790,-3.375,5.125,-2.125,0
3810,0.4375,4.4375,-1.875,0
3830,4.1875,1.3125,-0.4375,0
3850,4.5,-4,3,0
3870,2.4375,-5.25,6.1875,0
3890,3.3125,-12.125,4.75,0
3890,4.375,-7.375,-1.25,0
3910,3.75,-5.375,-0.6875,0
3930,5.25,-6.625,-0.0625,0
3950,2.5625,5.8125,-2.1875,0
3970,6.6875,6.3125,-1.0625,0
4010,7.0625,-9.5625,2.875,0
4030,10.75,2,-2,0
4050,3.0625,2,-5.375,0
4070,-0.375,-2.0625,-2.9375,0
4090,-0.125,-4.1875,1.4375,0
4090,-0.8125,-3.75,2.5625,0
4110,4,-0.3125,0.0625,0
4130,-0.8125,-3.25,0.0625,0
4150,-1.8125,-2.1875,-0.0625,0
4150,-0.8125,-1.125,0.0625,0
4170,1.0625,-0.9375,0.4375,0
4190,0.4375,-1.0625,0.625,0
4210,-1.0625,-1.25,0.25,0
4210,-1.1875,-1.75,0.0625,0
4230,0.3125,-2.3125,0.375,0
4250,-0.3125,-2.125,0.4375,0
4270,0.3125,-2.125,0.4375,0
4280,0.4375,-2.125,0.6875,0
4290,-0.0625,-1.625,1.125,0
4310,-1.125,-1,1.25,0
4330,-2.6875,-0.625,1,0
4350,-2.0625,-0.375,0.8125,0
4350,-1.6875,-0.125,0.875,0
4370,-2,0,1,0
4390,-3.625,-0.0625,1.1875,0
4410,-4.4375,0.25,1.0625,0
4410,-3.8125,0.1875,0.875,0
4430,-2.5625,0.75,0.75,0
4450,-2.875,0.8125,0.8125,0
4470,-3.4375,0.4375,0.875,0
4470,-3.375,0,0.4375,0
4490,-3.0625,-0.375,0.375,0
4510,-2.5625,-0.3125,0.6875,0
4530,-2.5625,-0.25,0.4375,0
4550,-1.8125,-0.25,0.5,0
4550,-1.5625,-0.25,-0.0625,0
4570,-0.9375,-0.6875,0.0625,0
4590,-1.1875,-0.6875,0.375,0
4590,-1.875,-0.75,0.4375,0
4610,-2.3125,-0.4375,0.1875,0
4630,-1.9375,0.0625,0.5625,0
4650,-1.9375,0.3125,0.25,0
4660,-0.3125,-0.5,0.0625,0
4670,-1.5625,-0.75,-0.125,0
4690,-0.9375,-1.25,-0.125,0
4710,-0.5,-1.3125,0.0625,0
4730,0.125,-1.4375,0.125,0
4730,0.375,-1.25,-0.125,0
4750,1.0625,-1.3125,-0.25,0
4770,2.0625,-1.25,-0.125,0
4790,1.3125,-1.4375,-0.1875,0
4790,0.6875,-1.25,-0.1875,0
4810,0,-1.125,-0.1875,0
4830,1.5625,-1.25,-0.0625,0
4840,1.75,-1.0625,-0.0625,0
4850,0.875,-0.875,-0.25,0
4870,0.3125,-1.25,-0.1875,0
4890,0.3125,-1.125,-0.375,0
4910,0.75,-1.4375,-0.1875,0
4910,1.4375,-1.6875,-0.25,0
4930,0.6875,-1.5625,0.0625,0
4950,1.375,-1.75,0.0625,0
4970,0.875,-1.5,-0.125,0
4970,0.3125,-1.1875,-0.5625,0
4990,0.875,-0.9375,-0.3125,0
5010,0.875,-0.5,0.0625,0
5030,0,-0.625,0.125,0
5030,-0.5625,-1.1875,-0.25,0
5050,-0.1875,-1.1875,0,0
5090,-0.4375,-1.25,-0.125,0
5150,-0.5625,-1.4375,0.0625,0
5210,-1,-1.0625,0.0625,0
5260,-0.6875,-0.6875,0.0625,0
5310,-0.25,-0.625,0.0625,0
5370,-0.8125,-0.625,0.0625,0
5420,-0.5625,-1.125,0.0625,0
5450,0.3125,-0.8125,-0.0625,0
5470,0.0625,-0.9375,0.25,0
5470,-0.625,-0.8125,0.125,0
5490,-0.25,-1.0625,0.0625,0
5510,0.4375,-1.25,0.25,0
5530,0.875,-1.375,-0.125,0
5540,0.375,-1.6875,-0.125,0
5550,-0.125,-1.4375,-0.3125,0
5570,0.4375,-1.1875,0.125,0
5590,0.6875,-1,0.4375,0
5610,-0.3125,-1.0625,0.3125,0
5610,-0.8125,-0.875,0.125,0
5630,-1.25,-0.9375,0.0625,0
5650,-0.9375,-0.8125,0.0625,0
5670,-0.6875,-0.875,0,0
5670,-0.5,-0.75,0.0625,0
5690,-0.25,-0.75,0.125,0
5710,-0.375,-0.5625,0.125,0
5730,-0.0625,-0.875,0.375,0
5730,0.4375,-0.9375,0.375,0
5750,0.3125,-1.1875,0.1875,0
5770,0.1875,-1.4375,0.0625,0
5790,-0.9375,-1.125,0.3125,0
5810,0,-1.1875,0.8125,0
5810,-0.3125,-0.6875,0.75,0
5830,-1.625,-0.75,0.4375,0
5850,-1.3125,-0.9375,0.8125,0
5850,-0.375,-1.1875,0.9375,0
5870,0,-1.125,0.5625,0
5890,-1.125,-0.9375,0.5625,0
5910,-1.3125,-0.5,0.3125,0
5910,-0.8125,-0.75,0.25,0
5930,0.1875,-1,0.4375,0
5950,-0.125,-1.3125,0.4375,0
5970,-1,-0.875,0.375,0
5970,-0.375,-0.75,0.5,0
5990,0.1875,-0.625,0.5625,0
6010,0.4375,-1.0625,0.5625,0
6030,0.25,-1,0.375,0
6040,-0.8125,-0.8125,0.375,0
6050,-0.6875,-0.9375,0.6875,0
6070,-0.125,-0.9375,0.4375,0
6070,-0.0625,-1.125,0.4375,0
6100,-0.125,-1.4375,0.75,0
6130,-2.6875,0.1875,1.625,0
6150,1.8125,-11.6875,2.8125,0
6170,-5.9375,-2.875,0.4375,0
6190,5.75,-1.0625,1.75,0
6210,-1.4375,6.3125,-5.0625,0
6230,-4.5625,2.375,-3.0625,0
6290,-4.75,-0.6875,0.3125,0
6350,-3.9375,-1.5,1.125,0
6410,-5.75,-1.25,2.4375,0
6450,-2.5625,1,1.875,0
6510,0,-0.8125,0.3125,0
6560,0.1875,-0.5625,0.0625,0
6610,0.875,-1,0.3125,0
6660,0.0625,-1.1875,-0.0625,0
6680,-0.5,-1.1875,-0.125,0
6700,0.5,-1.0625,-0.25,0
6720,1.625,-0.8125,-0.25,0
6740,1.3125,-0.3125,-0.375,0
6760,1.0625,-0.4375,-0.5625,0
6780,-0.375,-1.375,-0.0625,0
6800,-1.125,-2.0625,0.625,0
6820,-1.1875,-4.5,2.4375,0
6840,-6,-5.1875,4.125,0
6860,-12.875,-4.75,5.8125,0
6880,-18,-4.9375,8.25,0
6900,-20.3125,-0.125,7.375,0
6920,-17.25,2.125,5.125,0
6940,-11.5625,3.75,5,0
6960,-4.125,5.375,4.3125,0
6980,-2.9375,4.8125,2.875,0
7000,-7.6875,5.3125,2.3125,0
7020,-10.6875,6.5,1.25,0
7040,-12.5,7.25,2,0
7060,-12.375,8.125,4.4375,0
7080,-12.4375,9,4.8125,0
7100,-14.875,10.375,5.125,0
7120,-19.375,12.5625,4.3125,0
7140,-20.3125,14.4375,3.875,0
7160,-18.6875,14.875,3.1875,0
7180,-19.1875,15.75,4.6875,0
7200,-23.6875,16.4375,6.375,0
7220,-28.5,16.125,6.5625,0
7240,-30.75,14.5,6.75,0
7260,-34.9375,12.875,7.875,0
7280,-42.1875,12.3125,9.5,0
7300,-47.875,10.3125,10.75,0
7320,-47.1875,7.875,8.4375,0
7340,-40,10.375,6.5625,0
7360,-34.8125,11.1875,6.0625,0
7380,-28.25,11.75,3.1875,0
7400,-15.375,10.6875,0.375,0
7420,-6.8125,8.125,-0.9375,0
7440,0.75,4.5625,-0.25,0
7460,6.5625,2.3125,2.25,0
7480,6.25,1.625,4.1875,0
7500,3.9375,1.75,5.8125,0
7520,2.125,3.75,5.8125,0
7540,2.4375,3.1875,4.25,0
7560,1,0.4375,2.4375,0
7580,-3.25,-1.4375,1.25,0
7590,-7.125,-1.875,-0.1875,0
7610,-7.625,-2.125,-0.875,0
7630,-6.125,-1.375,-1.3125,0
7650,-4.6875,-1.0625,-1.5625,0
7670,-1.5,-1.75,-0.625,0
7690,0.375,-1.5625,1,0
7710,0.5,-0.9375,2.625,0
7730,0,-1.0625,2,0
7750,1.5625,-0.625,0.5,0
7770,3.375,-0.875,-0.5625,0
7790,4.25,-2,-0.8125,0
7810,3.5625,-2.875,-1.25,0
7830,1.1875,-3.3125,-1.375,0
7850,-0.3125,-3.3125,-0.75,0
7870,-0.3125,-2.6875,-0.375,0
7890,1.125,-2.1875,-0.4375,0
7910,2.375,-1.125,-0.1875,0
7930,2.1875,-0.4375,-0.25,0
7950,1.625,0.6875,0.0625,0
7970,1.625,0.4375,0.125,0
7990,2.4375,-1.0625,-0.0625,0
8010,6.1875,-2.75,-1.3125,0
8030,8.3125,-4.5625,-2.125,0
8050,7.25,-5.625,-1.4375,0
8070,4.4375,-4.8125,0.1875,0
8090,1.5,-3.375,0.8125,0
8110,2.3125,-1.8125,0.875,0
8130,2.5,0.125,0.25,0
8150,0.25,1.25,0.125,0
8170,-4.375,1.875,0.3125,0
8190,-6.875,2.4375,0.375,0
8210,-5.8125,1.75,-0.625,0
8230,-3.25,0.4375,-1.3125,0
8250,-4.25,0.25,-1.4375,0
8270,-3.9375,-0.875,-1.375,0
8290,-1.9375,-2.5625,-0.6875,0
8310,-1.4375,-3.1875,0.5,0
8330,-2.6875,-2.5,2.0625,0
8350,-4.3125,-0.25,2.5625,0
8370,-5.5,2,2.25,0
8390,-4.4375,2.5,0.9375,0
8410,-0.25,1.1875,-0.4375,0
8430,2.875,-1.5,-1.375,0
8450,1.9375,-3.5,-0.875,0
8470,-0.75,-4.375,0.0625,0
8490,-1.8125,-4.0625,0.125,0
8510,-1.875,-2.9375,-0.125,0
8530,1.8125,-1.6875,-0.4375,0
8550,5.125,-0.6875,-0.8125,0
8570,5.1875,-0.75,-0.875,0
8590,3.6875,-0.875,-0.625,0
8610,2.375,-1.5,-0.4375,0
8630,3.4375,-1.5625,0.0625,0
8650,3.375,-1.9375,-0.375,0
8670,3.3125,-2.4375,-0.6875,0
8690,2.8125,-2.6875,-0.5625,0
8710,2.75,-3.25,-0.25,0
8730,2.375,-3,-0.125,0
8750,0.6875,-2.625,-0.6875,0
8770,1.1875,-2.6875,-0.8125,0
8790,2.25,-2.5625,-0.5625,0
8810,1.4375,-2,0.25,0
8830,0.25,-1.875,0.5,0
8850,-0.625,-1.4375,0.375,0
8870,-1.4375,-0.9375,0.0625,0
8890,-0.375,-0.875,0.0625,0
8910,-0.25,-0.6875,0.375,0
8930,-1.4375,-0.3125,0.375,0
8950,-1.75,-0.5,0.1875,0
8970,-1.625,-0.5625,0.625,0
8990,-1.8125,-0.8125,0.625,0
9010,-1.5625,-1.4375,0.0625,0
9030,-1.1875,-1.125,0.0625,0
9050,-0.8125,-0.5,0.125,0
9070,-0.9375,-0.125,0.6875,0
9090,-1.3125,-0.1875,0.875,0
9110,-1.3125,-0.4375,0.4375,0
9130,-1.5,-0.9375,0.5625,0
9150,-1.875,-0.9375,0.4375,0
9170,-2.1875,-0.5625,0.3125,0
9190,-2,-0.5,-0.125,0
9210,-1.375,-0.4375,-0.1875,0
9230,-1.375,-0.375,0.125,0
9250,-2.5,-0.5,0.5,0
9270,-2.625,-0.9375,0.625,0
9290,-1.125,-1,0.375,0
9310,-0.25,-0.9375,0.125,0
9330,-0.3125,-0.9375,0.25,0
9350,-0.9375,-0.9375,0.3125,0
9370,-1.0625,-1,0.5,0
9390,-0.8125,-1.0625,0.125,0
9410,0.4375,-0.875,0.1875,0
9430,0.0625,-0.8125,0.125,0
9450,-0.4375,-0.625,0.3125,0
9470,-0.5625,-0.625,0.0625,0
9490,0.25,-0.5625,0.375,0
9510,0.25,-0.5625,0.25,0
9530,0.3125,-0.25,0.3125,0
9550,-1.3125,-0.3125,0.6875,0
9570,-3.5625,-0.75,0.25,0
9590,-0.5,-1.5625,-0.1875,0
9610,2,-1.5625,-0.5,0
9630,1.8125,-1.5625,0,0
9650,0.25,-1.75,-0.625,0
9670,2.6875,-2.5625,-1.0625,0
9690,6.6875,-3.9375,-2.5,0
9710,11.3125,-6.5625,-4.5625,0
9730,14.75,-9.375,-7.375,0
9750,17.5,-12.3125,-7.0625,0
9770,21.0625,-12.875,-6.1875,0
9790,34.8125,-15.5,-5.3125,0
9810,46.875,-16.75,-6.75,0
9830,51.75,-16.4375,-5.5625,0
9850,45,-13.5,-4.4375,0
9870,37.125,-11.625,-5.5,0
9890,33.875,-11.6875,-6.4375,0
9910,30.1875,-12.0625,-5.5625,0
9930,25.625,-11.75,-5.125,0
9950,20.25,-10.9375,-6.3125,0
9970,19.4375,-11.8125,-7.25,0
9990,19.9375,-10.8125,-7.5,0
10010,19.625,-9.25,-6.6875,0
10030,17.625,-7,-5.4375,0
10050,15,-4.5625,-5.4375,0
10070,15.3125,-3.875,-5.375,0
10090,17.25,-5.875,-4.25,0
10110,15.9375,-7.4375,-1.4375,0
10130,5.25,-6.75,0.25,0
10150,-5.1875,-6.0625,0.625,0
10160,-7.75,-5.5,1.4375,0
10180,-6.25,-3.0625,1,0
10200,-4.4375,0,0.9375,0
10220,-4.8125,1.5625,-0.8125,0
10240,-1.4375,1.4375,-2.9375,0
10260,5.4375,-0.5,-3.0625,0
10280,9.625,-2.1875,-3.125,0
10300,8.0625,-4.3125,-2.375,0
10320,6.6875,-4.0625,-1.4375,0
10340,7.4375,-3.1875,-1.625,0
10360,10.75,-2,-1.25,0
10380,10,0.5625,-1,0
10400,8.9375,1.625,0.5625,0
10420,4.9375,1.75,3.4375,0
10440,-1.4375,2.1875,4.5,0
10460,-9.9375,3.1875,3.5625,0
10480,-15.0625,5.125,0.1875,0
10500,-12.3125,5.3125,-0.375,0
10520,-10.375,4.1875,2.4375,0
10540,-11.6875,1.375,4.875,0
10560,-14.1875,-2.5625,4.5625,0
10580,-16.3125,-2.9375,2.5,0
10600,-12.9375,-2.0625,0.375,0
10620,-4.125,0.375,0.5,0
10640,2.9375,3.25,-0.25,0
10660,6.5625,4.3125,0.0625,0
10680,3.9375,3.9375,0.4375,0
10700,0.5625,2.75,0.9375,0
10720,1.3125,1.4375,1.625,0
10740,2.8125,-0.8125,1.4375,0
10760,2.25,-1.9375,1.125,0
10780,-3.0625,-1,0.4375,0
10800,-5.0625,-0.75,0,0
10820,-3.8125,-0.9375,0.75,0
10840,-1.6875,-0.375,1.3125,0
10860,-1.6875,-0.875,0.9375,0
10880,-2.75,-1.5,1.5625,0
10900,-2.5,-1.9375,1.6875,0
10920,-0.9375,-2.375,1.125,0
10940,0.375,-2.125,0.375,0
10960,0.0625,-1.1875,0.125,0
10980,-0.25,-0.1875,0.375,0
11000,0.375,0.25,0.75,0
11020,0.75,0.8125,0.5,0
11040,0.125,0.3125,0.0625,0
11060,0.25,-0.0625,0.4375,0
11080,0,-0.1875,0.375,0
11100,0.75,-0.875,0.75,0
11120,-0.125,-1.3125,0.5,0
11140,-0.0625,-1.75,0.375,0
11160,-0.8125,-2.1875,0.0625,0
11180,0.0625,-2.125,0.1875,0
11200,0.9375,-1.625,0.4375,0
11220,1.125,-1.1875,0.4375,0
11240,0.125,-1.5,0.0625,0
11260,0.5625,-1.5625,-0.0625,0
11280,0.75,-1.5625,-0.25,0
11300,0.9375,-1.3125,-0.0625,0
11320,0.875,-1.1875,-0.125,0
11340,1.5,-1,-0.125,0
11360,1.3125,-1,-0.25,0
11380,0.75,-1,0.0625,0
11400,-0.5,-0.8125,0.125,0
11420,0,-1.1875,-0.1875,0
11440,0.125,-1.1875,-0.3125,0
11460,-0.25,-1,-0.3125,0
11480,0.4375,-0.9375,0.0625,0
11500,0.4375,-1.0625,0,0
11520,0.625,-1.25,0,0
11540,-0.5,-1.625,-0.25,0
11560,-0.875,-1.5,-0.1875,0
11580,0.5,-1.25,-0.1875,0
11600,2.0625,-1.1875,-0.1875,0
11620,1.5,-0.875,0,0
11640,-0.1875,-1,-0.375,0
11660,-1.125,-0.75,-0.5,0
11680,-0.5625,-1.1875,0.125,0
11700,0,-0.6875,0,0
11720,0,-0.4375,-0.25,0
11740,0,-0.1875,-0.0625,0
11760,0.75,-0.25,0.5,0
11780,0.5,-1.1875,0.875,0
11800,-0.4375,-1.5625,0.5,0
11820,-0.625,-1.6875,0.0625,0
11840,-0.375,-2.0625,-0.375,0
11860,0.5625,-1.625,0.0625,0
11880,0.6875,-1.5625,0.1875,0
11900,-0.4375,-1.3125,-0.0625,0
11920,-0.3125,-1.3125,-0.125,0
11940,1.3125,-0.875,-0.125,0
11960,1.375,-0.375,0.1875,0
11980,-0.0625,-0.375,0.125,0
12000,-1.1875,-0.1875,-0.25,0
12020,0,-0.5625,0.0625,0
12040,0.625,-0.5625,0.0625,0
12060,0,-0.6875,0.1875,0
12080,-1.25,-0.1875,-0.1875,0
12100,-0.5,-0.3125,-0.0625,0
12120,-0.25,-0.25,0.25,0
12140,-0.75,0,0.75,0
12160,-1.1875,-0.1875,0.5,0
12180,0.625,-0.8125,0.0625,0
12200,0.9375,-0.4375,-0.3125,0
12220,-0.1875,0.1875,-0.0625,0
12240,-1.125,0.8125,0.25,0
12260,-0.3125,0.75,0.4375,0
12280,0.6875,0.5,0.0625,0
12300,0.5625,0.0625,-0.4375,0
12320,-0.1875,-0.125,-0.1875,0
12340,-1.0625,-0.125,0,0
12360,-0.875,-0.1875,-0.125,0
12380,-0.3125,-0.0625,-0.4375,0
12400,0.9375,0,-0.125,0
12420,0,0.3125,0.5,0
12440,-0.9375,-0.0625,0.5625,0
12460,-0.875,-0.375,0.3125,0
12480,0.6875,-0.5,-0.25,0
12500,0.625,0.0625,-0.3125,0
12520,1,0.25,0.375,0
12540,0.3125,0.5,0.1875,0
12560,-0.8125,0.1875,-0.0625,0
12580,-0.375,-0.0625,0.25,0
12600,0.0625,-0.0625,0,0
12620,-0.4375,0.125,-0.1875,0
12640,-0.3125,0,-0.3125,0
12660,0.125,-0.0625,0,0
12680,0.4375,-0.1875,0.125,0
12700,-1.5625,-0.1875,0,0
12720,-0.9375,-0.0625,0.4375,0
12730,-0.5,0.3125,0,0
12750,0.625,0.3125,0.125,0
12770,-0.25,0,-0.0625,0
12790,-1,-0.3125,0.25,0
12810,-1.125,-0.25,0.0625,0
12830,-0.125,-0.1875,0.125,0
12850,0.25,0.0625,0.1875,0
12870,-0.125,0.1875,0.25,0
12890,-1.125,0.0625,-0.1875,0
12910,0.0625,-0.5,-0.0625,0
12930,0.3125,0,-0.125,0
12950,1.5,-0.1875,0.125,0
12970,-0.0625,0,-0.25,0
12990,-1.25,0.3125,-0.3125,0
13010,0.125,0.125,0.1875,0
13030,0.5625,-0.125,0.625,0
13050,0,-0.0625,0.4375,0
13070,-1.625,-0.125,-0.25,0
13090,-0.5625,-0.0625,-0.25,0
13110,0.125,-0.0625,-0.1875,0
13130,0.0625,-0.0625,-0.125,0
13150,-0.75,-0.0625,0.25,0
13170,-0.75,-0.25,0.25,0
13190,0.25,0,-0.1875,0
13210,1.3125,-0.0625,0.4375,0
13230,0,0.0625,0.3125,0
13250,-0.125,0,-0.0625,0
13270,-0.8125,0.125,-0.4375,0
13290,0.5625,0.125,0.125,0
13310,0.125,0.3125,0.125,0
13330,-0.3125,-0.3125,0.3125,0
13350,-1.1875,-0.1875,0.25,0
13370,0.75,-0.3125,0,0
13390,1,-0.125,-0.0625,0
13410,-0.3125,-0.0625,-0.3125,0
13430,-1.0625,0.0625,0.0625,0
13450,-0.3125,0,0.25,0
13470,1,0,0.0625,0
13490,0.125,0,0,0
13510,-0.3125,-0.0625,0.25,0
13530,-0.6875,0,0.3125,0
13550,0.625,0,-0.0625,0
13570,0.5,0,-0.3125,0
13590,0.375,-0.3125,0,0
13610,-0.3125,-0.1875,0.375,0
13630,-0.0625,-0.1875,0.5,0
13650,-0.3125,0,-0.125,0
13670,0.625,-0.3125,0.25,0
13690,-0.375,0.25,-0.0625,0
13710,0.4375,0.0625,0.125,0
13730,-0.5,-0.0625,-0.125,0
13750,0.25,-0.5,-0.125,0
13770,0.375,-0.3125,-0.0625,0
13790,-0.25,0.125,-0.25,0
13810,0.3125,0.5,0,0
13830,0.8125,0.0625,0.5,0
13850,-1.5625,-0.125,-0.4375,0
13870,-1.3125,-0.875,-0.75,0
13890,0.25,-0.375,-0.4375,0
13910,0.0625,0.0625,-0.25,0
13930,-1.5,-0.3125,0.0625,0
13950,-1.625,-0.625,-0.3125,0
13970,-0.1875,-0.6875,-0.0625,0
13990,0.3125,-0.25,-0.0625,0
14010,-0.5625,-0.1875,-0.0625,0
14030,-1.25,-0.875,0,0
14050,-0.625,-0.8125,0.1875,0
14070,0.375,-0.75,-0.25,0
14090,1.875,-0.1875,0.125,0
14110,1.0625,0.5625,0.6875,0
14130,-0.3125,0.875,0.5625,0
14150,-0.9375,0.5625,0.0625,0
14170,-0.0625,0.125,0.0625,0
14190,0.9375,-0.5625,-0.125,0
14210,-1.3125,-1,-0.3125,0
14230,-3.3125,-1.125,0.125,0
14250,-2.375,-1.0625,-0.375,0
14270,-1.1875,-0.4375,-0.1875,0
14290,-0.8125,0.25,0.25,0
14310,-1.1875,1.0625,0.375,0
14330,-0.4375,0.9375,0.125,0
14350,-0.125,0.625,-0.1875,0
14370,0.25,0.25,-0.125,0
14390,-0.0625,-0.0625,0,0
14410,0.125,0.1875,0.4375,0
14430,-0.3125,0.5,0.6875,0
14450,-1.3125,0.625,0.625,0
14470,-1.4375,0.5625,0.5625,0
14490,-0.9375,0.4375,0.5625,0
14510,-0.25,0.0625,0.125,0
14530,0.125,-0.3125,-0.25,0
14550,-1.25,-0.1875,-0.4375,0
14570,-0.9375,-0.125,-0.3125,0
14590,-0.1875,0.0625,-0.4375,0
14610,1,0.3125,-0.4375,0
14630,-0.125,0.625,-0.25,0
14650,-0.3125,-0.3125,0,0
14670,-0.0625,-0.875,0.1875,0
14690,0.4375,-0.8125,0.125,0
14710,-0.375,-0.25,-0.3125,0
14730,-0.75,0.375,-0.4375,0
14750,-0.5625,0.8125,-0.25,0
14770,-0.0625,0.4375,0.1875,0
14790,-0.5,-0.375,0.375,0
14810,-1.3125,-0.375,0.125,0
14830,-0.6875,-0.1875,0.4375,0
14850,0.125,0.125,0.4375,0
14870,0.875,0.5,0,0
14890,0.0625,0.3125,-0.1875,0
14910,0.4375,-0.0625,0.4375,0
14930,-0.9375,0.25,0.375,0
14950,-0.5,-0.3125,0.375,0
14970,-0.9375,-0.125,-0.25,0
14990,0.625,0,-0.4375,0
15010,0.625,0.4375,-0.375,0
15030,0.0625,0.8125,-0.25,0
15050,-0.0625,1.3125,-0.1875,0
15070,0.5,1.9375,-0.375,0
15090,6.75,1.4375,0.875,0
15110,21,-2.1875,4.4375,0
15130,52.4375,-9.0625,3.25,0
15150,86.9375,-8.3125,-4.75,0
15170,90.25,-16.125,-17.125,0
15190,82.375,-25.125,-26.5625,0
15210,58.9375,-37.5,-43.3125,0
15230,25.375,-48.5,-51.75,0
15250,3.625,-53,-63.3125,0
15270,14.4375,-57.5625,-79.625,0
15280,22.3125,-62.9375,-100.312,0
15300,29.6875,-72.1875,-117.25,0
15320,37.5,-83.5625,-131.25,0
15340,38.1875,-93.25,-145.438,0
15360,25.875,-103.062,-159.25,0
15380,12.5625,-113.188,-167.625,0
15400,11,-122.688,-169.375,0
15420,6.9375,-128.438,-172.875,0
15440,2.25,-131.438,-178.312,0
15460,-9.875,-133.75,-179,0
15470,-13.5625,-138.188,-175.812,0
15490,-25.875,-143.75,-166.375,0
15520,-29.4375,-143.812,-160.188,0
15540,-37.8125,-146.938,-151.5,0
15560,-40.375,-156.812,-149.625,0
15580,-49.5625,-162.062,-135.812,0
15600,-50.875,-163.438,-129.312,0
15620,-53.9375,-163.312,-117.75,0
15640,-48.8125,-161.375,-110.938,0
15660,-47.75,-157.5,-105.438,0
15680,-44.5625,-146.25,-92.5625,0
15700,-40.75,-135.188,-82.875,0
15720,-40.375,-124.062,-78.1875,0
15740,-40.3125,-116.5,-66.1875,0
15760,-31.125,-106.938,-62.3125,0
15780,-27.875,-100.625,-57.125,0
15800,-28.125,-91.75,-54.9375,0
15820,-24.875,-78.25,-49.5,0
15840,-18.8125,-66.9375,-46.8125,0
15860,-13,-63.0625,-41.6875,0
15880,-8.1875,-64.0625,-36,0
15900,-6.5,-62.5625,-25.625,0
15920,-4.0625,-60.5,-24.1875,0
15940,1.5625,-56.125,-20.1875,0
15960,4.25,-53.8125,-21.3125,0
15980,4.0625,-53.6875,-13.0625,0
16000,5.25,-51.375,-3.0625,0
16020,7.875,-45.1875,8.1875,0
16040,6.1875,-32.0625,15.75,0
16060,1.5625,-26.625,15.125,0
16080,6.4375,-12,20.625,0
16100,19.1875,-4.1875,1.125,0
16120,19.8125,-16.1875,8.8125,0
16140,24.4375,-20.9375,17.5625,0
16160,2.125,-3.8125,17.375,0
16180,-5.25,4.25,19.6875,0
16200,-4.875,0.5,15.625,0
16220,-10.125,-2.875,14.25,0
16240,-8.375,-2.3125,15.4375,0
16260,-1.375,-0.125,12.3125,0
16280,3.625,5.0625,6.0625,0
16300,0.5,5.4375,10.1875,0
16320,7.0625,1.25,12.625,0
16340,18.6875,-6,12.625,0
16360,21.875,-7.875,17.25,0
16380,24,-8.3125,15.25,0
16400,20.875,-8.375,16.75,0
16420,23.1875,-6.3125,17.9375,0
16440,23,0.6875,19.75,0
16460,18.5625,-2.625,18.8125,0
16480,18.1875,-10.875,16.0625,0
16500,20.6875,-10,17.6875,0
16520,20.1875,-9.4375,14.1875,0
16540,18.3125,-6,17.3125,0
16560,11.9375,1.8125,12.3125,0
16580,13,3.375,10,0
16600,15.125,2.0625,7.75,0
16620,17.4375,5.1875,7.3125,0
16640,14.125,9.625,3.4375,0
16660,14.5,9.25,1.375,0
16680,17.0625,4,-1.25,0
16700,18.8125,2.25,-1.25,0
16720,19.25,6.5625,-2.25,0
16740,17.5,5.125,-5.375,0
16760,21.8125,-0.6875,-0.5625,0
16780,27.6875,-0.125,6.625,0
16800,25.8125,2.1875,8.4375,0
16820,24.9375,7.25,9.4375,0
16840,20,10.875,7.5,0
16860,12.9375,10.875,3.0625,0
16880,9.75,11.1875,-2.9375,0
16900,5.4375,11.3125,-7.5,0
16920,2,12.8125,-8.375,0
16940,2.0625,10.5625,-7.6875,0
16960,1.4375,9.5,-7.75,0
16980,0.3125,9.125,-7.6875,0
17000,-1.5,11.5625,-3.4375,0
17020,-2.875,8.5625,-2.8125,0
17040,-0.3125,4.5,-3.4375,0
17060,-4,4.5625,-4.3125,0
17080,-4.1875,2.0625,-4.75,0
17100,-0.375,-1.8125,-3.625,0
17120,-1.0625,0.1875,-5.3125,0
17140,-3.5625,3.5625,-6.6875,0
17160,1,0.4375,-3.75,0
17180,1.25,1.8125,-4.125,0
17200,1.4375,3.75,-5.8125,0
17220,2.125,2.75,-6.875,0
17240,4.375,-0.5,-5.25,0
17260,5.3125,-2.125,-1.5625,0
17280,8.75,-1.3125,1.5,0
17300,8.9375,2.1875,2.625,0
17320,10.1875,5.5,6.875,0
17340,11.125,8,11.625,0
17360,11.8125,11.1875,16.0625,0
17380,9.3125,13.25,15.875,0
17400,11.875,9.5625,18.5625,0
17420,16.4375,6,17.4375,0
17440,16.375,6.1875,9.875,0
17460,14.6875,8.25,4.5,0
17480,13.8125,8,-1.3125,0
17500,13.3125,10.3125,-4.1875,0
17520,12.4375,15.8125,-2.3125,0
17540,12.5625,16.6875,2.25,0
17560,12.125,16.25,6.9375,0
17580,10.3125,17.125,9.3125,0
17600,11.5625,13.875,11,0
17620,14.875,9.0625,15.1875,0
17640,16.25,7.25,17.125,0
17660,13.875,5.9375,17.6875,0
17680,12.0625,3.6875,12.3125,0
17700,9.4375,-1.1875,-1.3125,0
17720,-0.75,-4.125,-12.6875,0
17740,-9.25,0.25,-17.25,0
17760,-11,4.625,-21.3125,0
17780,-4.75,6.25,-17.625,0
17800,-6.8125,9.8125,-12,0
17820,-5.25,12.625,-5.125,0
17830,1.0625,10.1875,-0.25,0
17850,6.1875,-4.625,7.5,0
17870,11,-9.25,12.25,0
17890,6.25,10.125,7.75,0
17910,1.5,18.4375,1.8125,0
17930,5.375,10.4375,3.4375,0
17950,5.4375,6.375,0.9375,0
17970,1.625,7.75,-5.8125,0
17990,-0.8125,9.6875,-11.9375,0
18010,2.0625,6.75,-14,0
18030,6.625,-0.8125,-14.8125,0
18050,8.0625,-2.125,-16.8125,0
18070,6.25,0.8125,-18.0625,0
18090,11.1875,-0.625,-13.5,0
18110,13.8125,-4.1875,-5.375,0
18130,11.5,-2.875,-2.1875,0
18150,5.75,-1.5625,-2.4375,0
18170,4.5625,-1.3125,-5.25,0
18190,3.3125,-0.75,-6.8125,0
18210,-1.5625,2.125,-8.625,0
18230,-2.625,2.5,-11.0625,0
18250,0.625,2.5625,-9,0
18270,-2.125,7.0625,-8.625,0
18290,-4.25,2.4375,-8.1875,0
18310,-1.6875,-5.0625,-7.75,0
18330,0.125,-2.3125,-6.5625,0
18350,-3.25,1.1875,-8.25,0
18370,-5.625,0.875,-8,0
18390,-5.25,3.75,-6.9375,0
18410,-5.375,2.8125,-7.0625,0
18430,-5.625,-2.75,-7.375,0
18450,-6.5,-3.5625,-5.9375,0
18470,-6.8125,-2,-8.1875,0
18490,-6.375,-1.6875,-8.25,0
18510,-7.125,0.8125,-5.625,0
18530,-10.25,2.5,-3.4375,0
18550,-9.6875,2.9375,-2.5,0
18570,-9.4375,6.1875,-2,0
18590,-10.4375,6.5,-2.8125,0
18610,-9,3.875,0.8125,0
18630,-5.5,1.8125,0.1875,0
18650,-5.25,-2.5,-2,0
18670,-5.25,-5.375,-3,0
18690,-3,-5.9375,-4.9375,0
18710,-2.5,-4.4375,-4.8125,0
18730,-3.0625,-1.1875,-5.25,0
18750,-1.75,1,-5.4375,0
18770,-1.5,-1.5625,-6.375,0
18790,0.0625,-5.125,-6.0625,0
18810,4.25,-6.0625,-3.0625,0
18830,5.1875,-2.4375,-3.125,0
18850,4.0625,0.375,-1.0625,0
18870,7.5625,-1.5625,2,0
18890,8.4375,-4,1.8125,0
18910,11.375,-3.125,3.125,0
18930,14.0625,-2.5,2.6875,0
18950,13,-0.6875,1.1875,0
18970,11.25,-0.9375,4.875,0
18990,10.25,0.0625,6.0625,0
19010,6.5,1.25,5.1875,0
19030,5.8125,0.5,8.3125,0
19050,5.9375,3.3125,9.875,0
19070,4.8125,6.9375,8.75,0
19090,2.5625,9.125,9.3125,0
19110,1.4375,11.4375,8.0625,0
19130,1.4375,12.375,5.9375,0
19150,0.25,8,3.8125,0
19170,0.1875,2.8125,0.9375,0
19190,0.0625,1,3.6875,0
19210,-0.3125,0.5625,3.9375,0
19230,-0.6875,-5.1875,3.1875,0
19250,4.5625,-11.4375,4.1875,0
19270,4.5625,-6.9375,3.875,0
19290,-1.1875,1.8125,-0.1875,0
19310,-3.875,6.0625,-3.75,0
19330,-0.875,-0.125,1.0625,0
19350,3.3125,-3,5.125,0
19370,6.9375,-4.625,6,0
19390,6.75,-6.4375,5.875,0
19410,6.25,-9.1875,2,0
19430,5.5625,-12.125,-5.125,0
19450,5.6875,-13.9375,-10.5625,0
19470,2.5,-14.75,-13,0
19490,-3.25,-12.8125,-12.625,0
19510,-5.75,-7.9375,-9.75,0
19530,-4.6875,-6.6875,-9.75,0
19550,-7.0625,-6.5625,-7.125,0
19570,-7.9375,-3.625,-9.5625,0
19590,-12.4375,1.8125,-7.375,0
19610,-8.5625,2.5,-1.5,0
19630,-3.6875,-1.625,1.625,0
19650,-5.6875,-4.0625,0.875,0
19670,-6.8125,-3.8125,1.25,0
19690,-4.4375,-0.8125,0.375,0
19710,-1.5625,-0.1875,-2.125,0
19730,0.6875,-1.8125,-3,0
19750,2.4375,-3.875,-2.3125,0
19770,2.125,-3.1875,-1.0625,0
19790,2.875,-1.375,1.875,0
19810,2.9375,-0.1875,2.125,0
19830,3,-2.0625,1.875,0
19850,2.9375,-2.125,1.3125,0
19870,1.4375,0.0625,1.375,0
19890,2.0625,1.875,1.125,0
19910,4.375,0.8125,1.4375,0
19930,4.375,-2.5,0.875,0
19950,7.125,-4.25,-1.5625,0
19970,3.6875,0.4375,-3.8125,0
19990,-1.5625,3.875,-6.1875,0
20010,-3,6.0625,-3.1875,0
20030,0.75,3.5625,-0.4375,0
20050,3,-0.9375,4.375,0
20070,1.25,-2.5625,2.4375,0
20090,1.8125,-2.4375,3.1875,0
20110,3.375,-1.8125,0.25,0
20130,2.1875,-1.5625,-5.375,0
20150,0,-2.4375,-6.875,0
20170,-1.5,-1,-5.75,0
20190,0.875,-3.3125,-1.5625,0
20210,2.25,-4,3.5,0
20230,2.4375,-5.125,7.6875,0
20250,0.0625,-6,9,0
20270,-2.9375,-2.75,4.8125,0
20290,-7.5625,1.375,1,0
20310,-9.75,4.5625,1.375,0
20330,-5.5625,5.875,4.0625,0
20350,-0.3125,7.8125,6,0
20370,3.875,9.875,9.3125,0
20390,7.5,14,8.6875,0
20410,8.5625,15.0625,7.1875,0
20420,4.75,17.8125,6.0625,0
20440,4.25,25.4375,7.0625,0
20460,2.875,33,7.375,0
20480,-4.5625,30.75,6.5625,0
20500,-5.25,23.5,8.125,0
20520,-1.125,14.9375,9.375,0
20540,5.3125,8.1875,6.875,0
20560,2.125,1,6.3125,0
20580,3.5,-4.1875,9.25,0
20600,7.4375,-2.5,11.6875,0
20620,4.6875,-0.6875,14.6875,0
20640,1.875,0.25,14.6875,0
20660,3.9375,0.75,9,0
20680,5.25,-0.6875,3.375,0
20700,4.9375,-0.9375,1.125,0
20720,5.75,-0.0625,0.375,0
20740,9.625,-0.3125,0.125,0
20760,14.0625,-3.6875,5.875,0
20780,15.875,-4.4375,7.375,0
20800,14.3125,-1.8125,2.875,0
20820,13,0.5,-2.875,0
20840,17,-1.8125,-4.875,0
20860,16.6875,0.1875,-6.6875,0
20880,9.4375,2.25,-6.0625,0
20900,11.9375,-1.8125,-0.9375,0
20920,13.9375,-2.875,3.0625,0
20940,7.875,2.375,3.25,0
20960,6,3.875,4.75,0
20980,6.6875,0.625,3.3125,0
21000,2.75,0.875,0.5,0
21020,0.9375,2.875,0.9375,0
21040,4,1.25,3.5,0
21060,1.4375,0.625,4,0
21080,-4.125,5.3125,4.8125,0
21100,-3.25,2,2.0625,0
21120,0.375,-3.4375,1.375,0
21140,0.375,-1.6875,-2.25,0
21160,-2.9375,1.875,-7.25,0
21180,-2.375,1.0625,-8.75,0
21200,-0.6875,0.0625,-10.3125,0
21220,-0.3125,-1.125,-9.9375,0
21240,0.1875,-1.8125,-9.125,0
21260,1.0625,-2.3125,-7.5625,0
21280,4.375,-0.4375,-4.6875,0
21300,5.5,7.3125,-5.6875,0
21320,6.375,14.875,-8.9375,0
21340,9.25,24.4375,-8.875,0
21360,10.1875,36.4375,-7.875,0
21380,8.8125,48.3125,-4.5625,0
21400,6,58.3125,5.0625,0
21420,4.1875,70,15.4375,0
21440,2.3125,85.875,27,0
21460,-0.375,106.062,42.0625,0
21480,-0.3125,126.812,56.125,0
21500,2.4375,144.875,72.875,0
21520,4.875,161.562,91.5,0
21540,2.375,174.312,108.188,0
21560,11.5,184.375,122.75,0
21580,16.5,194.25,128.562,0
21600,25.1875,196.375,143.625,0
21620,31.75,189.938,146.5,0
21640,26.875,175.5,143.312,0
21660,14,159.875,137.75,0
21680,14.875,150.375,152.062,0
21700,27.3125,144,171.75,0
21720,36,132.062,166.062,0
21740,23.3125,121.312,156.812,0
21760,10.6875,114.375,155.812,0
21780,-1.5625,106.688,155.875,0
21800,-11.375,92.875,141.938,0
21820,-1.6875,74.625,124.812,0
21840,15.4375,60.25,115.875,0
21860,25.8125,53.3125,115.188,0
21880,32.125,47.875,111.75,0
21900,13.8125,44.25,101.375,0
21920,-2.125,45.5,96.5625,0
21940,1,49.8125,99.4375,0
21960,8.8125,52.4375,92.1875,0
21980,12.9375,60.8125,79.5625,0
22000,29.4375,71.0625,75.8125,0
22020,29,77.0625,74.125,0
22040,5.1875,68.5,24.9375,0
22060,29.8125,37.5625,-27.6875,0
22080,22.5,6.625,-14.625,0
22100,24.75,0.4375,-21.1875,0
22120,47,-3.75,-4.3125,0
22140,13.9375,6.4375,6.6875,0
22160,-28.6875,15.375,8.75,0
22180,-53.9375,17.4375,10.5625,0
22200,-54.3125,16.375,9.25,0
22220,-33.375,14.4375,5.6875,0
22240,-2.125,11.875,1.375,0
22260,19.625,9.5625,-2.8125,0
22280,19.3125,6.6875,-3.375,0
22300,6.625,5.1875,-2.3125,0
22320,-0.4375,3,-1.8125,0
22340,-2.6875,2.625,-2.5625,0
22360,0.3125,2.625,-2.3125,0
22380,3.5,3.25,-2.125,0
22400,5.4375,3,-1.75,0
22420,4.875,2.4375,-1.625,0
22440,3.4375,2.5625,-1.1875,0
22460,2.4375,2.25,-0.5625,0
22480,0.8125,1.5,-0.0625,0
22500,-0.6875,1.375,0.75,0
22520,-1.125,1.3125,1.3125,0
22540,-1.625,1.25,1.75,0
22560,-2.625,1.5625,1.8125,0
22580,-2.0625,1.125,1.3125,0
22600,-1.875,0.75,0.5,0
22620,-0.375,-0.125,0.5,0
22640,1.5,-0.4375,0.4375,0
22660,1.3125,-0.5625,0.25,0
22680,-1.25,-0.1875,1.0625,0
22700,-3.9375,0.3125,2.0625,0
22720,-4.8125,-0.3125,3.3125,0
22740,-3.125,-0.5625,3.75,0
22760,-1.5625,-0.9375,3.125,0
22780,-1.25,-1.6875,2.5,0
22800,-0.8125,-2.5,2.1875,0
22820,1.4375,-3.4375,2.125,0
22840,3.9375,-4.5,2.0625,0
22860,4.875,-4.75,2.25,0
22880,6.9375,-5.125,2.25,0
22900,8.5625,-6.1875,2.0625,0
22920,8.9375,-7,2,0
22940,9.25,-6.3125,1.9375,0
22960,8.625,-5.9375,1.75,0
22980,6.9375,-5.3125,0.9375,0
22990,4.25,-3.8125,0.625,0
23010,1.5625,-2.1875,1.1875,0
23030,3.25,-2.875,0.6875,0
23050,3.125,-2.9375,0,0
23070,1,-5.9375,4.3125,0
23090,-1.75,-11.6875,8.6875,0
23110,-22.125,-24.5,-2.75,0
23130,3.625,-31.25,-39.75,0
23150,15.875,-40.4375,-64.8125,0
23170,20.6875,-51.5625,-84.3125,0
23190,42.8125,-53.0625,-116.938,0
23210,101.5,-55.5,-131.5,0
23230,156.688,-55.125,-145.125,0
23250,162.312,-24.8125,-155.312,0
23270,137.75,8.0625,-152.188,0
23290,110.812,24.875,-139.438,0
23310,23.5,53.4375,-122.812,0
23330,-52.4375,85.375,-90.375,0
23350,-95.5625,65.4375,-49.875,0
23370,-87.25,38.0625,-27.6875,0
23390,-48.4375,21.4375,-15.0625,0
23410,-14.4375,11,-16.6875,0
23430,-58.1875,-31,-31.6875,0
23450,-40,-25.125,-13.5,0
23470,9.75,-20.5625,-11.8125,0
23490,27.8125,-23.4375,5.8125,0
23510,-27.6875,-27.5625,30.9375,0
23530,-131.062,-24.625,30.6875,0
23550,-239.688,-51.9375,8.75,0
23570,-396.562,-70.125,3.6875,0
23590,-490.75,-46.5625,15.1875,0
23610,-490.75,-8.0625,48.8125,0
23630,-314.75,38.875,74.6875,0
23650,3.0625,86.5625,-1,0
23670,261.062,150.188,-124.688,0
23690,372.812,76.75,-115.312,0
23710,274.625,-27.3125,-67.25,0
23730,150.562,-67.1875,-44.3125,0
23750,85.75,-66.0625,-48.6875,0
23770,43.5625,-10.6875,-81.875,0
23790,-40.6875,17.8125,-142.312,0
23810,-110.375,29.375,-115.625,0
23830,-35.5625,93.5,-127.312,0
23850,53.9375,86.4375,-81.375,0
23870,99.75,-9,-14.0625,0
23890,136.938,-162.562,75.8125,0
23910,124.812,-259.562,117.938,0
23930,87.125,-283.938,121.812,0
23950,48.125,-234.75,60.25,0
23970,33.375,-151.062,-22.0625,0
23990,67.875,-89.4375,-76.375,0
24010,114,-45.375,-123,0
24030,100.688,-8.6875,-158.438,0
24050,8.5625,3.3125,-167.938,0
24070,-64.625,9.9375,-199.312,0
24090,-151.938,21.5,-190.75,0
24110,-188.438,23.4375,-147.938,0
24130,-188.062,3.1875,-84.6875,0
24150,-188.875,-15.3125,-21.5,0
24170,-175.812,-34.5,25.875,0
24190,-183.062,-46.0625,61.6875,0
24210,-183.812,-47.8125,69.3125,0
24230,-155.812,-55.125,52.4375,0
24250,-93.625,-54.9375,35.5,0
24270,-26.5,-28.0625,8.375,0
24290,59.25,-5.25,-21.4375,0
24310,89.75,5.25,-66.8125,0
24330,90.375,2.5,-83.375,0
24350,64.125,0.5,-78.125,0
24370,69.3125,-3.75,-73.1875,0
24390,32.625,12.375,-54.8125,0
24410,-14.4375,26.9375,-38.5625,0
24430,-45.625,42,-20.9375,0
24450,-58.75,53.5,-8.1875,0
24470,-56.25,71.9375,7.9375,0
24490,-29.625,81,18.0625,0
24510,2.375,93.5625,30.4375,0
24530,3.125,96.125,55.5,0
24550,-2.5625,100.25,63.0625,0
24570,10.4375,98.625,70.6875,0
24590,26.3125,99.8125,77.375,0
24610,36.875,90.5,83.125,0
24630,43.6875,74.1875,90.625,0
24650,44.6875,54.25,104.75,0
24670,55.1875,23.375,105.875,0
24690,64,6.625,105.812,0
24710,66.1875,-2.3125,113.75,0
24730,57,-17.9375,112.938,0
24750,60.4375,-33.25,119,0
24770,56.6875,-39.5625,130.938,0
24790,58.9375,-42.125,122.688,0
24810,48.0625,-47,105.688,0
24830,35,-50.75,108.562,0
24850,23.1875,-48.375,111.125,0
24870,20.125,-34.6875,102.938,0
24890,22.75,-21.6875,101.75,0
24910,36.1875,-7.375,105,0
24930,31.75,6.375,115.188,0
24950,28.6875,20.125,118.062,0
24970,16,19.9375,119,0
24990,-15.6875,23.25,122.5,0
25010,-51.375,36.9375,121.312,0
25030,-76.6875,51.25,122.625,0
25050,-101.938,76.8125,123.562,0
25070,-202.875,50.3125,-22.625,0
25090,14.3125,7.0625,-184.688,0
25110,45.5,24.3125,19.875,0
25130,74.6875,80.6875,50,0
25150,59.8125,59.3125,-14.0625,0
25170,-44.4375,32.5,8.1875,0
25190,-126.5,14.5,27.375,0
25210,-113.625,4.625,13.125,0
25230,-111.688,6,27,0
25250,-96.75,-3.25,42.125,0
25270,-86.6875,-15.6875,36.375,0
25290,-69.125,-22.625,40.6875,0
25310,-33.6875,-18.9375,53.0625,0
25330,-4.1875,-12.5,61.0625,0
25350,9.9375,-6.9375,64.0625,0
25370,17.875,-0.75,63.8125,0
25390,25.5625,6.5625,54.3125,0
25410,36.3125,10.5,35.125,0
25430,49.125,9.5,23.9375,0
25450,45.75,7.75,24.4375,0
25470,52.375,1.1875,25.75,0
25490,42.875,1.5625,18.6875,0
25510,38.1875,2.875,15.25,0
25530,20.875,2.8125,14.75,0
25550,5.3125,5.5,11.6875,0
25560,-0.9375,6.75,3.375,0
25580,-0.0625,7.1875,-3.125,0
25600,10.6875,6.4375,-6.5625,0
25620,22.0625,4.3125,-8.4375,0
25640,17.5,3.5625,-8.125,0
25660,13.5,5.875,-5.25,0
25680,13.1875,5.125,1.125,0
25700,-6.1875,2.9375,9.4375,0
25720,-26.375,-0.1875,12.4375,0
25740,-34.875,-1.5625,7.125,0
25760,-33.5625,-3.375,0.75,0
25780,-19.8125,-4.125,-0.75,0
25800,-8.6875,-4.3125,-0.25,0
25820,-6.625,-3.9375,-1.3125,0
25840,-6.3125,-3.0625,-3.375,0
25860,-9.125,0.125,-6.5,0
25880,-0.3125,4.125,-1.25,0
25900,3.4375,3.0625,5.875,0
25920,3.625,3.5625,6.0625,0
25940,-2.5625,2.0625,3.625,0
25960,-5.5,0.0625,-0.5,0
25980,-0.1875,-2.125,-2.0625,0
26000,6.5625,-2.6875,-5.1875,0
26020,10.375,-3.125,-8.5,0
26040,7.0625,-2.9375,-11.1875,0
26060,9,0.1875,-9.8125,0
26080,8.9375,-0.25,0.0625,0
26100,5.875,1.3125,4.875,0
26120,2.5625,1.5,6.375,0
26140,-0.25,-1.0625,4.3125,0
26160,3.25,-4.75,2.1875,0
26180,7.375,-6.4375,0.5625,0
26200,10.8125,-5.3125,-2.875,0
26220,6.375,-3.5625,-4.4375,0
26240,5.625,-1.4375,-3.75,0
26260,6.375,0,-2.0625,0
26280,8.5625,0.3125,0.0625,0
26300,6.625,-1.3125,2.4375,0
26320,6.3125,-2.5,3.1875,0
26340,8.125,-4.375,2.75,0
26360,8.625,-5.1875,1.4375,0
26380,7.75,-3.5625,-0.9375,0
26400,10.625,-0.4375,-3.375,0
26420,8.8125,2.1875,-5.875,0
26440,5.875,3.5625,-7.375,0
26460,5.1875,3.375,-4.875,0
26480,1,2.5625,-0.8125,0
26500,-1.875,3.25,0,0
26520,-4.5625,3.5,-0.0625,0
26540,-10.3125,3,0.0625,0
26560,-10.1875,4.3125,0.3125,0
26580,-7.4375,7.0625,-2.125,0
26600,-7.25,10.375,-3.8125,0
26620,-12,12.875,-5.875,0
26640,-15.5625,13.6875,-8.3125,0
26660,-14.4375,13.0625,-6.125,0
26680,-14.4375,11.4375,-2.6875,0
26700,-16,10.5,-1.5625,0
26720,-18.0625,10.3125,-2.25,0
26740,-21.625,10.9375,-3.5,0
26760,-12.1875,10,-1.6875,0
26780,-0.4375,8.6875,-2.625,0
26800,3.9375,8.0625,-6.25,0
26820,3.8125,6.6875,-8.75,0
26840,-1.9375,6.375,-8.3125,0
26860,0.0625,5.375,-2.75,0
26880,2.8125,4,2.9375,0
26900,-4.8125,5,4.4375,0
26920,-11.625,6.625,3.5,0
26940,-15,6.0625,2.625,0
26960,-11.1875,3.625,1.9375,0
26980,-7.625,1.9375,-0.4375,0
27000,-4.75,2.4375,-2.3125,0
27020,-5,3.25,-0.5625,0
27040,-8.5625,2.8125,0.625,0
27060,-10.6875,2.0625,0.3125,0
27080,-11.6875,1.6875,-0.75,0
27100,-6.25,1.25,-0.0625,0
27120,2.125,1,0.75,0
27140,9.8125,-0.3125,0.375,0
27160,11.6875,-2.25,-0.375,0
27180,10.125,-2.8125,-1.4375,0
27200,10.625,-2.1875,-2.5,0
27220,11.9375,-1.625,-1.75,0
27240,8.25,-1.875,0.6875,0
27260,1.875,-2.125,2.25,0
27280,-2.875,-3.5,4.9375,0
27300,-5.5,-3.5,4.5,0
27320,-2.6875,-2.25,4.75,0
27340,2.375,-0.625,4.625,0
27360,4.6875,0.0625,2.5625,0
27380,7.75,-0.75,0.0625,0
27400,10.8125,-1,-2.5625,0
27420,14.375,0,-6,0
27440,20.9375,0.8125,-8.5,0
27460,26.125,1.75,-7.125,0
27480,28.5,0.8125,1.375,0
27500,16.4375,-0.25,8.4375,0
27520,-0.875,-0.125,7.8125,0
27540,-9.5625,0.3125,2.125,0
27560,-6.8125,1.0625,-4.1875,0
27580,2.625,1.25,-6.5,0
27600,7,0.75,-5.25,0
27620,1.375,-0.8125,-4,0
27640,-6.25,-2.5,-3.25,0
27660,-8.1875,-3.1875,-6.75,0
27680,3.5,-5.125,-8.1875,0
27700,12.9375,-8.0625,-1.9375,0
27720,20.5,-9.75,9.1875,0
27740,10.875,-9.125,15.0625,0
27760,2.5625,-9.5625,12.6875,0
27780,1.25,-12.25,7.0625,0
27800,10.4375,-12.9375,2.5,0
27820,22.0625,-11.3125,2.125,0
27840,27.5625,-8.9375,1.4375,0
27860,26.4375,-7.5,-1.6875,0
27880,24,-4.625,-5,0
27900,22.5,-1.375,-4.75,0
27920,19.8125,1.1875,-1.625,0
27940,15.375,-0.625,1.4375,0
27960,9.75,-4,1.375,0
27980,8.4375,-6.125,-0.4375,0
28000,10.4375,-6.3125,-2.0625,0
28020,16.875,-4.875,-2.625,0
28040,21.625,-2.5,-2.5625,0
28060,21.0625,-0.8125,-1.6875,0
28080,15.375,0.5,-0.75,0
28100,9.8125,1.1875,-3.5,0
28120,6.1875,0.125,-7.3125,0
28130,4,-1.5,-11.875,0
28150,5.375,-1.5625,-12.75,0
28170,7.1875,-1.6875,-9.8125,0
28190,7.4375,-1.5,-6.0625,0
28210,6.25,-0.1875,-2.75,0
28230,6.125,1.75,0.4375,0
28250,0.1875,4.5,0.875,0
28270,-5.0625,4.6875,1.75,0
28290,-9.125,3.5625,3.125,0
28310,-17.375,2.8125,2.6875,0
28330,-23.3125,3.375,1.375,0
28350,-30.4375,4.125,-0.1875,0
28370,-35.9375,5.5,-0.75,0
28390,-36.6875,6.4375,-2.625,0
28410,-29.8125,5.9375,-4.6875,0
28430,-17.25,5.0625,-6.8125,0
28450,-6.3125,3.6875,-6.8125,0
28470,-2.9375,3.0625,-3.6875,0
28490,1.5,1.75,0.6875,0
28510,4.5,0.75,4.75,0
28530,8.3125,1.125,8.8125,0
28550,11.375,1.5625,10.8125,0
28570,14.3125,2.125,10.5,0
28590,15.8125,0.3125,8.5,0
28610,16.9375,-0.8125,6,0
28630,18.5,-0.9375,4.5625,0
28650,17.25,-0.3125,5.8125,0
28670,14.375,1.9375,6.25,0
28690,8.1875,1.8125,3.625,0
28710,2.375,2.0625,2.375,0
28730,-1.9375,2.1875,1.5,0
28750,-2.9375,2,-0.5625,0
28770,-4.1875,1.625,-1.9375,0
28790,-6.625,-0.1875,-1.0625,0
28810,-14.0625,0.375,-1.625,0
28830,-16.3125,1.6875,-2.375,0
28850,-17.1875,3.375,-2.1875,0
28870,-16.3125,3.6875,-0.875,0
28890,-13.1875,2.5,-0.375,0
28910,-10,0.8125,0.625,0
28930,-7.8125,0.375,0.375,0
28950,-2.1875,-0.1875,0.125,0
28970,3.5,-0.5,0.5,0
28990,5.625,0.125,1.25,0
29010,5.1875,1.125,2.3125,0
29030,3.375,1.625,2.375,0
29050,2.0625,1.0625,0.9375,0
29070,1.5,0.4375,-0.375,0
29090,0.6875,-0.25,-0.625,0
29110,-2.25,0.3125,-0.75,0
29130,-5.375,1.375,-1.0625,0
29150,-6.9375,2.3125,-1.3125,0
29170,-5.375,1.5625,-1.8125,0
29190,-5.5,0.75,-2,0
29210,-2.625,0.25,-1.6875,0
29230,-1.3125,-0.5,-3.6875,0
29250,-3.875,-1.375,-7.6875,0
29270,-5.5625,-3.625,-10.5625,0
29290,-5.75,-5.0625,-11.3125,0
29310,-7.9375,-3.6875,-10.875,0
29330,-7.9375,-0.9375,-10.0625,0
29350,-8.3125,2.75,-9,0
29370,-6.8125,5.1875,-8.0625,0
29390,-4.375,7.5625,-6.3125,0
29410,-1.1875,9.375,-3.4375,0
29430,2.125,10.25,-0.8125,0
29450,5.4375,9,0.6875,0
29470,8.0625,8.25,2,0
29490,8.375,6.9375,2.9375,0
29510,5.625,5.3125,3.125,0
29530,3.125,2.5625,1.9375,0
29550,-1.125,-0.625,-1.25,0
29570,-5.875,-1.1875,-3.875,0
29590,-6.25,-2.4375,-7.5,0
29610,-4.75,-3.125,-11.6875,0
29630,-8.8125,-1.625,-13.5,0
29650,-15.3125,-0.8125,-13.5,0
29670,-21.5,1.4375,-12.4375,0
29690,-21.875,4,-9.5625,0
29710,-20,4.75,-7.875,0
29730,-16.4375,3.125,-5.75,0
29750,-13.3125,0.625,-3.875,0
29770,-9.125,-0.4375,-1.9375,0
29790,-3.0625,0.5625,0.9375,0
29810,1.8125,1.4375,4.25,0
29830,3.5,2.625,6.6875,0
29850,5.5,2.3125,8.25,0
29870,4.5,2.125,7.375,0
29890,7.9375,2.5,6.4375,0
29910,10.5625,2.9375,6,0
29930,11.75,1.9375,4.5,0
29950,10,0.125,2.75,0
29970,7.125,-0.8125,1.8125,0
29990,4.6875,-0.0625,1.5,0
30010,0.8125,1.1875,1.5,0
30030,-0.5,1.4375,1.5,0
30050,-0.5625,-0.25,2.25,0
30070,0.375,-1.75,2.3125,0
30090,-0.3125,-1.875,1.8125,0
30110,-0.875,-1.4375,2.5,0
30130,0.1875,0.125,4.125,0
30150,-0.875,1.1875,5.5,0
30170,-3.4375,2,7.0625,0
30190,-4.9375,1.6875,6.25,0
30210,-5.3125,1.25,3.4375,0
30230,1.6875,0.8125,1.6875,0
30250,7.25,0.375,0.0625,0
30270,4.5,1.1875,-0.75,0
30290,1.125,1.9375,-0.125,0
30310,-0.4375,3,0.8125,0
30330,1.75,2.625,0.25,0
30350,3,1.75,0.1875,0
30370,1.5,1.4375,0.6875,0
30390,-1,1.5,0.875,0
30410,-0.8125,1.6875,1.25,0
30430,-0.875,1.625,0.75,0
30450,-4.3125,0.6875,-1.1875,0
30470,-5.25,-0.8125,-1.625,0
30490,-7.0625,-1,-2.75,0
30510,-4.3125,-1.6875,-3.125,0
30530,-3.4375,-1.5625,-3.25,0
30550,-3.8125,-0.8125,-2.8125,0
30570,-3.6875,-0.875,-2.8125,0
30590,-3.5,-0.5625,-2.8125,0
30610,-2.3125,0.0625,-2.8125,0
30630,-2.25,0.875,-2.5625,0
30650,-3,1.4375,-1.6875,0
30670,-2.25,1.0625,-1.0625,0
30690,0,0.75,-1.5,0
30710,0.4375,-0.125,-0.5,0
30720,1.75,-0.5,0.5,0
30740,1.1875,0.5625,0.375,0
30760,1.3125,1.5625,0.9375,0
30780,-0.25,1.9375,1,0
30800,-2.875,2.4375,1.625,0
30820,-3.5,2.0625,1.9375,0
30840,-5.3125,2.5625,0.75,0
30860,-5.3125,1.8125,-0.625,0
30880,-5.5625,0.8125,-1.5625,0
30900,-5.25,0.75,-2,0
30920,-5.9375,0.875,-1.9375,0
30940,-6.6875,1.125,-1.25,0
30960,-5.375,0.8125,-0.4375,0
30980,-2.3125,0.875,0.25,0
31000,1.0625,1.0625,0.5,0
31020,1.75,0.625,0.1875,0
31040,1.375,0.1875,1,0
31060,0.25,0,1,0
31080,2.125,-0.4375,0.75,0
31100,1.6875,-1.0625,0.0625,0
31120,1.625,-1.1875,-0.375,0
31140,1.0625,-0.4375,-0.1875,0
31160,0.6875,0.0625,-0.4375,0
31180,0.625,-0.5625,-0.4375,0
31200,1.0625,-1,-0.625,0
31220,2,-0.6875,-0.625,0
31240,3.375,-0.5625,-0.4375,0
31260,3.375,-0.4375,0.1875,0
31280,2.1875,-0.5,0.75,0
31300,2.8125,-0.625,0.875,0
31320,3.4375,-0.9375,0.875,0
31340,3.5,-1.9375,0.4375,0
31360,2.6875,-1.875,0.6875,0
31380,3.6875,-1.5,0.6875,0
31400,5.1875,-0.75,0.1875,0
31420,3.8125,-0.5,0.375,0
31440,2.375,-0.1875,0.75,0
31460,2.25,-0.8125,1.9375,0
31480,3.5,-0.625,1.8125,0
31500,4.0625,-1.0625,0.875,0
31520,5.5,-1.5,0,0
31540,7.5,-1.875,-0.4375,0
31560,8,-2,-0.4375,0
31580,10.25,-2.1875,0.125,0
31600,12.0625,-1.625,0.75,0
31620,13.9375,-1.6875,1.4375,0
31640,12.875,-2.125,1.625,0
31660,10.9375,-2.4375,1.4375,0
31680,8.3125,-2.375,1.375,0
31700,4.375,-1.5625,1.875,0
31720,3.1875,-1.5,2,0
31740,0.5,-1.875,0.625,0
31760,-3.8125,-2,-0.5,0
31780,-5.3125,-1.4375,-0.5625,0
31800,-6.8125,-0.8125,-0.1875,0
31820,-9.375,-0.75,-0.1875,0
31840,-10.5625,-1,-0.5,0
31860,-9.8125,-0.875,-0.6875,0
31880,-7.1875,-0.3125,-0.625,0
31900,-4.1875,-0.375,0.4375,0
31920,-4.375,-0.375,1.0625,0
31940,-3.25,-0.1875,1.625,0
31960,-1.8125,-0.5625,1.4375,0
31980,-1.0625,-0.5,1.5625,0
32000,-0.625,-0.1875,1.5625,0
32020,-1.6875,-0.125,1.625,0
32040,-2.4375,0.1875,0.875,0
32060,-2.25,0.3125,0.4375,0
32080,-2,0.6875,0,0
32100,-2.625,0.9375,0.5,0
32120,-5.75,1.0625,0.5,0
32140,-6.5625,0.8125,0.5,0
32160,-7.875,0.125,0.25,0
32180,-11,0.75,0.125,0
32200,-11.9375,1.5625,0.125,0
32220,-10.625,1.375,-0.3125,0
32240,-8.0625,0.8125,-0.25,0
32260,-6.5625,0.875,0.3125,0
32280,-6.125,0.75,0.5625,0
32300,-6.875,0.8125,1.125,0
32320,-4.4375,0.3125,1,0
32340,-1.375,-0.0625,0.875,0
32360,1.1875,-0.3125,1.375,0
32380,1.625,-0.3125,1.3125,0
32400,2,-0.5,1.3125,0
32420,2.125,-0.9375,0.875,0
32440,4.25,-1.125,0.375,0
32460,4.1875,-0.875,0.4375,0
32480,4,-0.875,0.1875,0
32500,3.75,-0.75,0.0625,0
32520,3.5,-0.8125,0.3125,0
32540,1.75,-0.125,0.375,0
32560,1.375,-0.25,0.5625,0
32580,1.3125,-0.6875,0.0625,0
32600,1.8125,-0.875,-0.125,0
32620,1.4375,-0.375,-0.125,0
32640,0.75,-0.1875,0.3125,0
32660,0.625,-0.375,0.5,0
32680,1.5,-1.0625,0.875,0
32700,1.5625,-1.375,1.375,0
32720,1.4375,-1.6875,1.9375,0
32740,0.8125,-1.1875,2.125,0
32760,0.6875,-0.75,1.625,0
32780,2,-0.5,0.75,0
32800,3.125,-0.75,0.5625,0
32820,1.375,-0.5,0.5625,0
32840,-0.4375,-0.3125,0.0625,0
32860,-0.6875,0,-0.3125,0
32880,0.25,0.125,-0.3125,0
32900,0.5,0.0625,0.25,0
32920,0.25,0.125,0.0625,0
32940,0.5625,-0.375,0.1875,0
32960,0.5,-0.375,0.6875,0
32980,0.25,-0.25,1.0625,0
33000,0.5625,-0.3125,0.75,0
33020,1.625,-0.5625,1.1875,0
33040,1.3125,-0.75,1.4375,0
33060,0.875,-0.8125,1.5625,0
33080,-0.4375,-0.5625,1.0625,0
33100,0.1875,-0.3125,0.5625,0
33120,0.5625,-0.1875,0.875,0
33140,-0.75,-0.25,0.875,0
33160,-1.5625,0,0.3125,0
33180,-1.625,0.3125,0.4375,0
33200,-0.5625,0.375,0.625,0
33220,-0.4375,0.1875,0.875,0
33240,-1.125,-0.0625,0.6875,0
33260,-0.6875,-0.375,0.8125,0
33280,0.5625,-0.0625,0.8125,0
33290,1,0.1875,1.125,0
33310,0.25,0.1875,1.1875,0
33330,0,-0.0625,1.1875,0
33350,-0.25,-0.125,0.6875,0
33370,0.25,0.1875,0.25,0
33390,0.3125,0.0625,-0.125,0
33410,0.1875,-0.125,-0.6875,0
33430,0.4375,-0.375,-0.75,0
33450,2,-0.1875,-0.6875,0
33470,2.625,-0.5,-0.25,0
33490,1.5625,-0.75,-0.0625,0
33510,1.375,-1.125,-0.5625,0
33530,1.4375,-1.4375,-0.8125,0
33550,2.0625,-1.375,-0.75,0
33570,2.0625,-0.875,-0.6875,0
33590,1.75,-1,-0.1875,0
33610,-0.375,-0.875,-0.0625,0
33630,-1.5,-0.5,-0.25,0
33650,-2.5,-0.0625,-0.75,0
33670,-3.3125,0.3125,-0.9375,0
33690,-3.125,0.8125,-1.0625,0
33710,-3,1.1875,-1.0625,0
33730,-2,1.1875,-0.5,0
33750,-1.375,1.1875,0.0625,0
33770,-0.6875,0.5,0.0625,0
33790,1,-0.25,0.5625,0
33810,2.625,0,1,0
33830,3.625,0.4375,1.25,0
33850,4.375,0.6875,1.5,0
33870,5.5,0.0625,1.75,0
33890,3.1875,-0.1875,1.6875,0
33910,0.1875,0.25,1.1875,0
33930,-0.0625,0.75,0.375,0
33950,-0.25,0.8125,0.3125,0
33970,-3.8125,1.1875,0.0625,0
33990,-4.8125,1.75,0.1875,0
34010,-4.5,1.6875,0,0
34030,-3.375,1.625,0.0625,0
34050,-2.5625,0.9375,0.375,0
34070,-2.6875,0.9375,0.25,0
34090,-1.4375,0.5625,0.1875,0
34110,0.5625,-0.0625,0.1875,0
34130,3,-0.625,0.5,0
34150,1.625,-0.3125,0.5625,0
34170,1,0.75,0.625,0
34190,1.8125,0.4375,1,0
34210,2.5625,0.75,0.5625,0
34230,4,0.4375,0.0625,0
34250,0.5,0.625,-0.4375,0
34270,-0.3125,0.5625,-0.3125,0
34290,-1.0625,0.375,-0.125,0
34310,-0.1875,-0.0625,-0.125,0
34330,-0.75,-0.4375,0.125,0
34350,-2.1875,-0.375,0.3125,0
34370,-1.625,-0.1875,0.1875,0
34390,-0.1875,-0.1875,-0.1875,0
34410,1.125,-1.0625,-0.0625,0
34430,1,-1.5,0.25,0
34450,1.125,-1.4375,0.6875,0
34470,0.4375,-1.0625,0.9375,0
34490,0.6875,-0.75,0.375,0
34510,0.125,-0.125,0.125,0
34530,-0.75,0.8125,-0.25,0
34550,-1.5,1.375,-0.75,0
34570,-2,1.75,-1.125,0
34590,-2,2.0625,-0.875,0
34610,-2.6875,1.8125,0,0
34630,-4.25,1.625,0.9375,0
34650,-7.8125,1,1.25,0
34670,-7.75,0.75,0.8125,0
34690,-3.625,0.4375,-0.5,0
34710,2.0625,-0.6875,-0.4375,0
34730,1,-1.25,0.6875,0
34750,-2.1875,-0.8125,1.625,0
34770,-3.4375,-0.6875,1.25,0
34790,-1.8125,-0.6875,0.5625,0
34810,-0.5,-0.125,0.1875,0
34830,-0.5,-0.125,0.1875,0
34850,-1,0,-0.5,0
34870,-0.625,0.3125,-1.25,0
34890,1.4375,0.0625,-0.9375,0
34910,2.0625,-0.4375,0,0
34930,1.3125,-0.5,0.5625,0
34950,1.3125,-0.875,-0.0625,0
34970,1.5,-1.25,0,0
34990,0.3125,-1.4375,0.4375,0
35010,-1.25,-1.1875,0.5,0
35030,-2.3125,-1.25,0.375,0
35050,-4.375,-1.8125,0.5625,0
35070,-7.3125,-2.3125,1.75,0
35090,-8.625,-1.6875,1.5,0
35110,-4.3125,-1.0625,0.875,0
35130,-1.4375,-0.875,0.375,0
35150,-3.125,-0.375,0.5,0
35170,-3.25,0.25,0.4375,0
35190,-1.0625,0.25,-0.125,0
35210,0.625,0.25,-0.625,0
35230,0.6875,0.8125,-0.875,0
35250,1.1875,1.625,-1.8125,0
35270,5.125,2.375,-2.5625,0
35290,9.8125,2,-3.375,0
35310,8.875,1.375,-2.75,0
35330,6.375,0.3125,-1.375,0
35350,3.1875,0,-0.0625,0
35370,3.1875,0.4375,1,0
35390,5.5625,-0.3125,0.6875,0
35410,7.3125,-2,0,0
35430,7.625,-2.875,-0.1875,0
35450,6.75,-2.9375,0.25,0
35470,5.5625,-2.6875,0.25,0
35490,5,-2.75,0.0625,0
35510,4.875,-2.6875,0.125,0
35530,5.25,-2.3125,0.5,0
35550,4.1875,-1.8125,0.6875,0
35570,3.375,-1.6875,0.75,0
35590,3.4375,-1.625,0.875,0
35610,3.625,-1.5625,0.625,0
35630,2.375,-1.8125,0.6875,0
35650,1.6875,-1.375,0.625,0
35670,2.3125,-0.9375,1.25,0
35690,2.3125,-1.0625,1.6875,0
35710,2.25,-1.4375,1.3125,0
35730,1.1875,-1.5,0.875,0
35750,1,-1.0625,0.5625,0
35770,1.0625,-0.8125,0.375,0
35790,1.0625,-0.6875,0.125,0
35810,1,-0.625,-0.125,0
35830,0.375,-0.375,-0.4375,0
35850,0.375,0,-0.5625,0
35860,1.375,0.1875,-0.375,0
35880,0.5625,0.4375,-0.625,0
35900,0.1875,0.875,-0.8125,0
35920,-0.9375,1.125,-0.5625,0
35940,-0.6875,1.125,-0.6875,0
35960,-1.5,1,-1.125,0
35980,-1.125,0.5,-0.8125,0
36000,-1.9375,0.375,-0.5625,0
36020,-2.375,0.375,-0.3125,0
36040,-2.8125,0.625,-0.1875,0
36060,-2.25,0.8125,-0.0625,0
36080,-1.875,1.125,0.75,0
36100,-2.375,1.125,0.9375,0
36120,-3.3125,1.125,0.4375,0
36140,-2.375,0.875,-0.25,0
36160,-1.9375,0.875,0.125,0
36180,-1.375,1.125,0.3125,0
36200,-2.375,1.3125,0.25,0
36220,-3.3125,1.1875,0,0
36240,-3.125,1.25,-0.125,0
36260,-2,1.5,0,0
36280,-2.125,1.625,-0.125,0
36300,-2.625,1.4375,-0.5,0
36320,-3.3125,1.0625,-0.1875,0
36340,-3.5625,1,-0.25,0
36360,-2.25,0.8125,-0.25,0
36380,-3.8125,0.875,-0.0625,0
36400,-3.875,0.5625,2.6875,0
36420,-5.875,0.375,9.0625,0
36440,-11.3125,0.4375,9.75,0
36460,-8.3125,0.375,9.5,0
36480,-6,0.1875,8.625,0
36500,-3.0625,0.9375,6,0
36520,-1.5625,1,6.25,0
36540,3.9375,-0.0625,6.5,0
36560,9.875,-1.4375,6.625,0
36580,10.25,-0.1875,5,0
36600,16.25,0.875,0.25,0
36620,23.375,2.125,-8.125,0
36640,31.5625,1.125,-12.9375,0
36660,35.375,0.3125,-7.0625,0
36680,32.25,0.25,4.8125,0
36700,14.5,-0.25,10.4375,0
36720,-5.9375,0.6875,6.8125,0
36740,-14.875,2.125,0.875,0
36760,-12.3125,3.125,-1.375,0
36780,-6.625,2.1875,0.5625,0
36800,-5.875,1.625,-0.6875,0
36820,-5.5,2.25,-3.4375,0
36840,1,1.875,-1.3125,0
36860,0,1.0625,5.75,0
36880,0.625,1.0625,6.5,0
36900,-3.5,1.125,4.75,0
36920,-2.125,1.375,3.3125,0
36940,1.75,0.8125,1.125,0
36960,3.75,1.5,-2.3125,0
36980,6.3125,3.6875,-8.3125,0
37000,10.3125,4.1875,-16.5625,0
37020,13.625,2.0625,-22.6875,0
37040,14,0.5625,-22.375,0
37060,12.1875,-0.0625,-15.5,0
37080,8.8125,-0.1875,-5.125,0
37100,-1.4375,0.8125,-1,0
37120,-20.4375,3.6875,-0.1875,0
37140,-41.1875,4.4375,2.25,0
37160,-59.9375,0.875,6.375,0
37180,-53.625,-7.0625,2.4375,0
37200,-29.75,-16,-8.25,0
37220,1.0625,-22.0625,-21.9375,0
37240,26.6875,-24.8125,-35.75,0
37260,50.125,-18.4375,-47.0625,0
37280,62.9375,-4.625,-47.125,0
37300,64.125,8.8125,-37.6875,0
37320,52.4375,19.625,-26.3125,0
37340,35.125,21.625,-20.625,0
37360,23.75,20.3125,-10.25,0
37380,8.875,19,1.3125,0
37400,-5.375,14.4375,10,0
37420,-9.375,9.125,15.5625,0
37440,-4.5625,4.5625,15.875,0
37460,3.25,0.75,17.25,0
37480,3.5625,-3.1875,18.5,0
37500,-3.5,-4.8125,18.375,0
37520,-9.0625,-5.375,18.8125,0
37540,-13.5625,-3.875,17.6875,0
37560,-15.25,-1.8125,14.5625,0
37580,-15.4375,0.1875,10.875,0
37600,-14.4375,2,7.1875,0
37620,-11.5625,3.875,4.125,0
37640,-9.3125,5.0625,1.5625,0
37660,-9.25,4.875,-1.125,0
37680,-10.0625,4.5625,-3,0
37700,-11.1875,3.75,-4.125,0
37720,-10.1875,3.375,-5.125,0
37740,-9.3125,3.8125,-4.75,0
37760,-7.8125,4.75,-4,0
37780,-4.5625,5.375,-2.75,0
37800,-3.375,5.25,-2.3125,0
37820,-4.625,4.5625,-2.625,0
37840,-4.625,4.375,-2.0625,0
37860,-5.6875,4,-1.75,0
37880,-8.5,3.375,-1.375,0
37900,-10.25,2.4375,-1.8125,0
37920,-9.9375,2.1875,-1.8125,0
37940,-6.9375,2,-1.3125,0
37960,-3.8125,1.5,-0.9375,0
37980,-2.3125,0.8125,-1.3125,0
38000,-0.875,-0.375,-1.9375,0
38020,0.125,-1.9375,-2.375,0
38040,2.25,-4.4375,-1.375,0
38060,3.8125,-6.375,-1.5,0
38080,6.8125,-9.375,-2.625,0
38100,13.0625,-12.5625,-4.4375,0
38120,18.875,-15.75,-4.5625,0
38140,16,-14.5625,-5.125,0
38160,10.625,-13.5,-5.5625,0
38180,9.75,-12.0625,-6.8125,0
38200,12.375,-7.5,-7.9375,0
38220,11.0625,-2.75,-5.75,0
38240,5.125,2.875,-4,0
38260,3.3125,6.5625,-3.5,0
38280,0.6875,7.875,-3.9375,0
38300,-1.125,7.9375,-2.625,0
38320,-1.4375,6.875,-0.1875,0
38340,-1.75,6.125,1.0625,0
38360,-3.5625,4.9375,1.6875,0
38380,-6.25,2.875,2.75,0
38400,-5.3125,1.6875,3.125,0
38420,-0.6875,0.8125,3.4375,0
38430,4.5625,0.6875,4,0
38450,6.125,1.3125,2.6875,0
38470,6.25,2.6875,2.75,0
38490,6.5,3.875,3.375,0
38510,4.8125,4.75,3,0
38530,1.25,4.9375,2.1875,0
38550,-0.3125,5.5625,1.125,0
38570,0.4375,6.9375,-0.3125,0
38590,1,7.8125,-2.875,0
38610,0.75,8.25,-4.6875,0
38630,-0.75,7.5,-6.25,0
38650,0,7.1875,-7.6875,0
38670,-1.8125,6.5,-8.6875,0
38690,-4.875,6.125,-10.125,0
38710,-6.9375,6.3125,-9.5625,0
38730,-8.3125,7,-7.3125,0
38750,-9.1875,7.1875,-4.4375,0
38770,-12.125,6.1875,-2.875,0
38790,-13.5625,4.3125,-1.25,0
38810,-13.625,2.625,-0.625,0
38830,-10.125,0.8125,0.5625,0
38850,-6.25,-0.125,1.6875,0
38870,-5.25,-0.5,1.75,0
38890,-7.875,0.8125,1.125,0
38910,-9.375,2.0625,0.6875,0
38930,-10.25,3.6875,0.75,0
38950,-9.375,5,1.625,0
38970,-9.3125,5,2.375,0
38990,-12,4.25,1.6875,0
39010,-10.5,3.3125,1.625,0
39030,-8,2.625,1.25,0
39050,-5.9375,3.375,0.9375,0
39070,-4.6875,3.6875,1.8125,0
39090,-5.6875,2.875,2.6875,0
39110,-6.375,1.5625,2.4375,0
39130,-3.75,-0.125,2,0
39150,-1.9375,-1.0625,1.25,0
39170,0.375,-0.1875,2.375,0
39190,-0.4375,0.375,3,0
39210,-5.25,1.1875,4.6875,0
39230,-4,-0.3125,5.5625,0
39250,-3.3125,0,2.9375,0
39270,2.125,-1.125,2.1875,0
39290,-0.125,-1.4375,2.8125,0
39310,-2.5,-1.375,3.4375,0
39330,1.125,0.6875,0.1875,0
39350,5.75,2.25,-2.5625,0
39370,6.1875,1.25,-3.375,0
39390,1.9375,-1.9375,-3,0
39410,2.875,-4.125,-1.5625,0
39430,3.3125,-5.125,-0.625,0
39450,1.5,-5.9375,0.875,0
39470,-2.1875,-6.25,1.375,0
39490,-3.375,-5.3125,2.875,0
39510,-5.25,-1.375,4.8125,0
39530,-4.5625,-0.25,2.3125,0
39550,-1.5,-0.4375,1.4375,0
39570,0.8125,-0.5625,2.1875,0
39590,2.5,-1.75,0.8125,0
39610,1.0625,-1.5,-0.5,0
39630,3.4375,-1.3125,-1.9375,0
39650,4.5,-1,-1.5625,0
39670,2.375,-0.4375,-0.25,0
39690,-1,0.25,0.5,0
39710,-2.25,0.625,0.25,0
39730,-1,-0.375,-0.9375,0
39750,-0.8125,-1.1875,-0.75,0
39770,0.9375,-1.9375,0,0
39790,1.6875,-2,0.125,0
39810,-0.625,-1.625,1,0
39830,-0.9375,-1.125,1.625,0
39850,-2.9375,-1.0625,1.6875,0
39870,-4.1875,-1.8125,0.75,0
39890,-3.875,-1.1875,-0.3125,0
39910,-3.1875,-0.25,-0.125,0
39930,-3.3125,0.9375,-0.125,0
39950,-5.5,2,-0.4375,0
39970,-4.3125,1.75,-0.6875,0
39990,-2.5,0.75,-1.4375,0
40010,-1.8125,-0.125,-1.875,0
40030,-2.875,-0.125,-1.125,0
40050,-3.5,-0.1875,0.25,0
40070,-3.3125,-0.9375,2.125,0
40090,-1.875,-0.8125,2.1875,0
40110,-1.125,-1.4375,2.5625,0
40130,-0.1875,-2.4375,2.3125,0
40150,-1.5625,-3.1875,2.1875,0
40170,-1.9375,-6.8125,3.125,0
40190,0.8125,-7.8125,2,0
40210,0.6875,-12.9375,2.375,0
40230,0.25,-19.625,3.75,0
40250,-1.6875,-29.75,5.625,0
40270,0.4375,-34.3125,3.1875,0
40290,-5.6875,-39.0625,2.125,0
40310,-5.375,-42.125,2.1875,0
40330,-0.8125,-39.5,4.125,0
40350,1.0625,-40.5,3.1875,0
40370,-2.0625,-41.625,-0.9375,0
40390,-1.5,-42.8125,2.125,0
40410,-4.5,-55.875,-0.5625,0
40430,-9,-72.25,-6.875,0
40450,-6.125,-93.125,-12.625,0
40470,0.9375,-119.312,-21.5625,0
40490,3.5625,-137.938,-24.9375,0
40510,8.5,-148.25,-23.4375,0
40530,17.8125,-157.125,-33.625,0
40550,8.1875,-158.75,-32.75,0
40570,-15.5,-154.812,-29.8125,0
40590,-26.9375,-148.25,-26.4375,0
40610,-41.4375,-135.562,-24.125,0
40630,-44,-114.375,-21.5625,0
40650,-29.1875,-99,-21.1875,0
40670,-21.5625,-87.75,-18.6875,0
40690,-28.5625,-68,-14.0625,0
40710,-23.375,-50.4375,-12.375,0
40730,-6.1875,-43.1875,-3.1875,0
40750,-12.9375,-32.625,0.4375,0
40770,-22.4375,-14.8125,-3.0625,0
40790,-27.3125,0.5625,1.625,0
40810,-28.6875,3.375,6.25,0
40830,-33.4375,6.625,8,0
40850,-39.8125,16.3125,6,0
40850,-32.9375,15.25,3.625,0
40870,-30.25,9.125,7.375,0
40890,-21.5,10.5,4.875,0
40910,-29.125,17,-1.8125,0
40930,-14.9375,5.8125,-7.4375,0
40950,6.1875,6.875,-17.375,0
40970,20.5,-10.5625,-21.875,0
40990,36.9375,-18.8125,-22.5625,0
41010,44.5625,-20.875,-34.1875,0
41040,42.0625,-31.4375,-33.9375,0
41060,56.875,-14.375,-37.4375,0
41070,51.75,-4.1875,-65.875,0
41090,47.6875,-25.625,-46.9375,0
41120,63.6875,-27.6875,-28.9375,0
41140,53.5,-23.6875,-39.0625,0
41160,-1.1875,-5.6875,-38.8125,0
41180,-39.3125,-7.5,-31.3125,0
41200,-58.8125,-14.8125,-22.375,0
41220,-70.875,-0.625,-7.1875,0
41240,-48.75,11.375,-5.75,0
41260,-18.1875,17.6875,10.125,0
41280,-11.375,14.75,11.625,0
41300,-7.4375,7.875,-10.5625,0
41320,3.4375,-6.6875,-14.0625,0
41340,27.625,-18.375,-10.1875,0
41360,50.6875,-15.75,-14.0625,0
41380,55.875,-19.625,-15.25,0
41390,16.75,-24,-11.3125,0
41410,10.3125,-33.4375,-10.1875,0
41430,7.875,-32.6875,-15.3125,0
41430,17.875,-31.125,-13.375,0
41480,36.125,-31.875,-6.1875,0
41490,48.5625,-28.625,-10.125,0
41510,33.1875,-25.5625,-14.625,0
41530,30.75,-22.5,-7.75,0
41530,33,-19.125,-0.875,0
41550,44,-9.8125,3.0625,0
41570,28.375,0.3125,3.8125,0
41590,13.9375,5.5,20.75,0
41610,7.75,1.5,37.3125,0
41610,19.5,1.5625,44.0625,0
41630,24.625,2.5625,38.5625,0
41650,23,5.875,32.4375,0
41650,19.375,9.6875,18.25,0
41700,21.0625,12.3125,11.9375,0
41750,33.875,10.5,16.5,0
41780,40.625,14.0625,14.6875,0
41800,27.8125,25.9375,7.625,0
41820,33.1875,24.25,21.1875,0
41840,34.5,24.4375,16.5625,0
41860,34.9375,22,-4.625,0
41880,32.25,29.25,-6.625,0
41900,26.4375,26.8125,-4.75,0
41920,23.0625,22,1.75,0
41940,17.5,21,2.875,0
41960,7.6875,26.375,-1.625,0
41980,0.8125,26,-4.25,0
42000,-1.6875,21.25,-4.0625,0
42010,-0.1875,15.3125,-8.5625,0
42030,-0.125,10,-12.625,0
42050,-0.375,3.625,-15.1875,0
42050,2.75,-0.75,-16,0
42070,0,-4.1875,-20.4375,0
42090,-3.9375,-11.0625,-17.25,0
42110,-1.1875,-16.5,-12.6875,0
42110,-1.5625,-16.3125,-13.0625,0
42130,1.5625,-17.375,-16,0
42150,1.0625,-15.25,-14.4375,0
42150,3.4375,-11.125,-13.25,0
42210,3.625,-11.0625,-8.0625,0
42250,5.875,-0.625,-7.875,0
42280,-2.375,5.5,-1.4375,0
42300,10.9375,1.1875,3.5,0
42320,6.6875,10.75,6.6875,0
42340,5.875,14.875,7.3125,0
42360,16.3125,15.5625,0.6875,0
42380,24.9375,14.125,-1.5625,0
42400,23.3125,7.125,-0.3125,0
42410,18.3125,7.3125,-1.5,0
42430,16.5,6.25,-3.0625,0
42450,10.875,3.0625,-3.875,0
42450,1.625,-1.8125,-5.75,0
42490,-2.125,-0.625,-9.1875,0
42520,-7.25,0.125,-13.4375,0
42550,-6.25,-5.8125,-13.75,0
42570,-5.1875,-7.625,-14.6875,0
42590,-7.8125,-7.75,-20.375,0
42610,-5,-14.0625,-22.75,0
42630,-6.3125,-17.1875,-15.6875,0
42650,-8.875,-18.625,-14.625,0
42670,-8.5625,-23.625,-11.875,0
42690,-9.9375,-28.25,-10.0625,0
42710,-10.5,-27.75,-5.25,0
42730,-11.4375,-23.75,-4.6875,0
42750,-12.125,-22.875,-3.75,0
42770,-9.875,-16.75,-2.25,0
42790,-10.125,-4.3125,-7.1875,0
42810,-7.6875,4,-11.625,0
42830,-6.625,12.25,-12.6875,0
42850,-5.625,22.5625,-14.8125,0
42870,-6.875,33.9375,-20.25,0
42890,-6.25,42.125,-27.375,0
42910,-6.125,47.6875,-33.1875,0
42930,-6.875,51.5,-34.6875,0
42950,-7.75,55.75,-36.625,0
42970,-6.5625,58.1875,-38.1875,0
42990,-2.3125,52.125,-34.5625,0
43010,-1.3125,43.5625,-28.125,0
43030,-2.375,37.8125,-25.75,0
43050,-2.875,29.1875,-25.625,0
43070,-2.3125,20.875,-26.6875,0
43090,-4.9375,21,-26.875,0
43110,-6.125,22.375,-24.25,0
43130,-5.3125,19,-18.4375,0
43150,-2.625,13.3125,-8.5,0
43170,0.0625,6.4375,0.4375,0
43190,-0.375,5.375,6.5625,0
43210,-4.1875,4.8125,8.125,0
43220,-7,0.8125,10.625,0
43240,-7.375,0.875,11.375,0
43240,-9.5625,3.125,12.6875,0
43260,-12.8125,7.875,13.875,0
43280,-17.8125,18.25,9.75,0
43300,-21.5625,15,9.4375,0
43320,-27.1875,9.8125,13.0625,0
43340,-25.3125,15.625,11.8125,0
43370,-38.1875,13.5625,13,0
43400,-33.125,7.1875,6.75,0
43420,-23.625,0.5,4,0
43440,-20.125,-3.5625,5,0
43460,-24,-3.125,3.1875,0
43480,-23.4375,-6.75,1.5625,0
43500,-20.75,2.9375,1.25,0
43520,-17.875,7.125,-4.6875,0
43540,-22.3125,6.8125,-2.8125,0
43560,-25.5625,12,-4.5625,0
43580,-23.9375,9.0625,-2.8125,0
43600,-20.3125,11.1875,-1.3125,0
43620,-22,10.8125,-0.4375,0
43640,-25,9.3125,-1.125,0
43660,-25.3125,10.375,-2.8125,0
43680,-19.625,9.75,-2.4375,0
43700,-13.125,8.125,-3.0625,0
43720,-12.25,9.6875,-1.0625,0
43740,-14.8125,10.6875,1,0
43760,-13.8125,8.4375,-3.4375,0
43780,-10.75,4.4375,-2.125,0
43800,-10.5,2.1875,-0.9375,0
43820,-10.125,2.8125,-2.6875,0
43840,-6.0625,2.25,-3.125,0
43860,-4.5,-0.0625,-3.3125,0
43880,-4.0625,-0.6875,-2.3125,0
43900,-1.75,0.0625,-1.5,0
43920,-1.9375,-0.6875,-2.5625,0
43940,-3.6875,2.25,-4.8125,0
43960,6.5625,-0.875,-3.3125,0
43980,-1.1875,0.875,-2.25,0
44000,1.125,-0.1875,-3.3125,0
44020,0.75,3.5,-4.3125,0
44040,-3.3125,1.5625,-2.75,0
44060,3.8125,1.875,-3.5,0
44080,0.0625,4.5,-5,0
44100,-5.125,4.125,-3.3125,0
44120,2.25,4.3125,-3.8125,0
44140,4.9375,7.5,-2.625,0
44160,-5.375,8.875,0.125,0
44180,-6,6,-0.6875,0
44200,4.0625,5.75,-2.0625,0
44220,1.125,8.625,-2.6875,0
44220,-8.375,8.375,-4.3125,0
44260,-6.3125,6.3125,-0.875,0
44280,1.625,7.0625,-2.4375,0
44300,-4.1875,1.6875,0.3125,0
44320,-3.25,2.1875,-2.4375,0
44340,-5.6875,7.0625,-0.5625,0
44360,-4.3125,6.5625,0.5,0
44380,-4.625,5.875,0.375,0
44400,-5.1875,5.75,-0.3125,0
44420,-2.75,3.25,-0.625,0
44440,-6.875,5.625,-1.0625,0
44460,-0.75,7.1875,-0.1875,0
44480,-8.9375,6.5,2.1875,0
44500,-9.25,3.875,2.6875,0
44520,-2.125,3.4375,1.25,0
44540,2.3125,5.125,1.9375,0
44560,-3.9375,6.5625,0.875,0
44580,-11,4.875,1.375,0
44600,-7.9375,2,4.1875,0
44620,-2.75,1.4375,0.5625,0
44640,4.4375,1.8125,0.6875,0
44660,-0.875,3.375,2.875,0
44680,-1.5625,4,1.5625,0
44700,1.3125,4.6875,2.3125,0
44720,0.6875,5.75,3.5625,0
44740,-3.875,5.375,4.375,0
44760,-4.4375,4.1875,4.6875,0
44780,-4.1875,3.75,4.1875,0
44800,-2.875,3.375,3.1875,0
44820,-4.5625,1.75,5.375,0
44840,-7,1.25,5.5,0
44860,-3.875,1.375,3.4375,0
44880,-3.1875,1.3125,1.9375,0
44900,-3.375,0.1875,2.5,0
44920,-3.5,-1.3125,1.9375,0
44940,-2,-1,0.25,0
44960,1.3125,-0.75,-0.9375,0
44980,2.375,-1.5,-1.25,0
45000,0.875,-0.625,-1,0
45020,0.125,-0.3125,-0.1875,0
45040,-0.1875,1.0625,-1.3125,0
45060,0,1.375,-1.75,0
45080,0.5625,0.5,-0.0625,0
45100,-1.5,1.4375,0.5,2000
45120,0.9375,2.125,0.4375,0
45140,2.5625,1.375,0.4375,0
45160,0.0625,1.375,0.5,0
45180,-1.125,1.6875,1.25,0
45200,-1,1.4375,1.1875,0
45220,0.75,0.75,0.1875,0
45240,-1.125,0.0625,0.0625,0
45260,0.3125,-0.5625,-0.625,0
45280,1,-1,-0.75,0
45300,-1.375,-0.6875,0,0
45320,-2.375,-0.8125,-0.3125,0
45340,-3,-1.1875,0.4375,0
45360,-3.625,-0.8125,0.75,0
45380,-3.4375,0.4375,-0.0625,0
45400,-1.625,0.625,0.5,0
45420,-0.6875,0.3125,2.0625,0
45440,0.6875,0,0.9375,0
45460,5.0625,-0.375,-0.3125,0
45480,3.5,0.625,-0.8125,0
45500,-0.3125,1.4375,0,0
45520,-1.5,2,0.1875,0
45540,-0.625,2.125,-0.25,0
45560,0.3125,2,-0.75,0
45580,-0.8125,1.5625,0.125,0
45600,-2.5625,1.625,0.3125,0
45620,-1.4375,1,0.0625,0
45640,-0.6875,0.375,-1.1875,0
45660,-1.5,0.5,-1.5,0
45680,-2.75,-0.5625,-0.625,0
45700,-2.4375,-1.625,0.625,0
45720,-2.6875,-1.5625,-0.1875,0
45740,-1.4375,-0.875,-1.75,0
45760,-0.4375,-1.125,-0.5625,0
45780,-1.0625,-1.1875,0.1875,0
45800,-0.5625,-1,-0.25,0
45820,-0.6875,-0.6875,-1,0
45840,0,-0.5625,-0.5625,0
45860,0.0625,-0.375,0,0
45880,-1.625,-0.25,0.3125,0
45900,-1.125,-0.1875,-0.5,0
45920,0.125,-0.375,-1,0
45940,1.0625,-0.3125,-1.25,0
45960,-0.375,-0.75,-0.8125,0
45980,-0.875,-0.3125,0,0
46000,-2.125,0.8125,-0.5625,0
46020,-2.5,1.25,-0.6875,0
46040,-3.375,1.875,0.5,0
46060,-2,1.5625,1.875,0
46080,-1.5625,1.8125,1.3125,0
46100,-3.0625,2.1875,1.6875,0
46120,-2.8125,1.375,2.125,0
46140,-3.8125,1.1875,2.5625,0
46150,-4.125,0.8125,2.1875,0
46170,-4.4375,-0.125,-1.25,0
46190,3.125,-3.125,-0.125,0
46210,5.875,-2.875,-1.625,0
46230,5,-1.125,-3.0625,0
46250,-0.5,-1,-1.125,0
46270,-0.375,-1,-1.1875,0
46290,1.9375,-2.4375,-0.6875,0
46310,0.6875,-2.3125,-0.25,0
46330,-2.4375,-1.625,0,0
46350,-3.75,-0.8125,-0.625,0
46370,-1.75,-0.0625,-1.75,0
46390,0.5,-0.5625,-1.4375,0
46410,0.875,-0.5625,-0.4375,0
46430,-3.3125,-0.25,0.0625,0
46450,-2.125,-0.8125,-0.375,0
46470,-0.25,-0.5,-0.6875,0
46490,0.625,-0.5,-1.0625,0
46510,0.3125,-0.5,-0.5625,0
46530,-0.75,-0.125,1.375,0
46550,0.4375,-0.5,2.1875,0
46570,-0.4375,0.25,0.6875,0
46590,0.4375,-0.125,0.0625,0
46610,1.125,-1.3125,1.6875,0
46630,-0.625,-2.0625,2.125,0
46650,-0.875,-2.75,1.125,0
46670,1,-3.3125,0.25,0
46690,2.375,-4.6875,-0.25,0
46710,1.9375,-5.75,1.3125,0
46730,0.5,-5.625,1.5,0
46750,0.25,-5.25,-0.1875,0
46770,1.5625,-5.5,0.25,0
46790,-0.875,-5,0.75,0
46810,0.0625,-5.1875,1.1875,0
46830,1.5,-5.625,1.125,0
46850,2.9375,-4.9375,0.75,0
46870,0.8125,-4.4375,1.3125,0
46890,-0.5,-3.8125,2.25,0
46910,-2.8125,-3.125,2.3125,0
46930,-1.6875,-3.5625,2.375,0
46950,-1.5,-4.5,2.25,0
46970,0.125,-5.25,2.5,0
46990,-1.5,-5.125,1.8125,0
47010,-0.4375,-5.5625,1.625,0
47030,0.5,-6,0.875,0
47050,1.875,-5.5625,-0.625,0
47070,2.5,-5.8125,-0.25,0
47090,0.5625,-6,0.5625,0
47110,0,-5.4375,0.5625,0
47130,-0.375,-5.5,0.5,0
47150,-1.8125,-5,1.3125,0
47170,-1.5625,-4.875,1.9375,0
47190,-1.6875,-4.125,2.0625,0
47210,-1.9375,-4.1875,2,0
47230,-0.6875,-4.5625,2.875,0
47250,0.4375,-5.25,2.125,0
47270,0.25,-5.0625,0.1875,0
47290,-0.375,-5.3125,0.0625,0
47310,1.25,-6.4375,-0.3125,0
47330,2.125,-7.125,-1.1875,0
47350,2.25,-6.625,-0.6875,0
47370,1.625,-7,-1.1875,0
47390,1.6875,-7.0625,-1.3125,0
47410,-0.75,-6.875,-0.9375,0
47430,-0.5,-7.0625,-0.625,0
47450,2.0625,-6.8125,-0.4375,0
47470,2.3125,-6.4375,-0.75,0
47490,0.5625,-6.375,-0.375,0
47510,-0.5625,-6.5,-0.625,0
47530,1.3125,-7,-1.625,0
47550,1.9375,-7,-1.3125,0
47570,0,-7.3125,-0.9375,0
47590,0.625,-7.125,-2.3125,0
47610,3.3125,-7.625,-2.9375,0
47630,1.875,-8.125,-2,0
47650,-0.75,-8.0625,-2.0625,0
47670,-0.3125,-8.3125,-3.1875,0
47690,2.8125,-7.3125,-3.5,0
47710,2.6875,-6.0625,-3.75,0
47730,1.0625,-6.25,-2.75,0
47750,2.625,-6.625,-1.5,0
47770,3.5,-5.25,-2.5625,0
47790,1,-4.5,-2.9375,0
47810,-0.3125,-4.8125,-1.625,0
47830,1.875,-5.25,-1.8125,0
47850,0.9375,-4.8125,-0.875,0
47870,-2.0625,-4.4375,-0.75,0
47890,-1.5,-4.0625,-1.9375,0
47910,0.625,-3.6875,-2.5,0
47930,2.1875,-4.875,-1.875,0
47950,1.0625,-5.4375,-0.6875,0
47970,-0.6875,-5.25,-2,0
47990,0.0625,-5.3125,-2.625,0
48010,0.1875,-4.8125,-2.1875,0
48030,0.0625,-4.875,-2.0625,0
48050,0.0625,-4.1875,-0.875,0
48060,-0.5,-3.6875,-2.125,0
48080,1.0625,-3.75,-4.625,0
48100,2.5625,-4.0625,-3.6875,0
48120,2.6875,-3.25,-3.625,0
48140,1.125,-3.1875,-3.9375,0
48160,0.0625,-3.3125,-2.5625,0
48180,-0.4375,-2.6875,-1.9375,0
48200,0.75,-3.8125,-3.5,0
48220,0.9375,-4,-3.25,0
48240,0.5,-3.9375,-2.5625,0
48260,1.1875,-3.5,-1.375,0
48280,0.25,-1.5,-1,0
48300,1,-1.9375,-1.375,0
48320,1,-2.5625,-2.3125,0
48340,1.3125,-1.6875,-2.6875,0
48360,1.25,-0.5625,-1.75,0
48380,3.4375,-0.9375,-3.625,0
48400,5.3125,-1.5625,-4.875,0
48420,6.5625,-1.75,-5,0
48440,6.25,-2.5,-6.0625,0
48460,4.6875,-2.3125,-6,0
48480,1.25,-1.8125,-5.8125,0
48500,-0.4375,-2,-5.6875,0
48520,0.125,-2.625,-5,0
48540,-1.4375,-1.9375,-5,0
48560,-1.75,-0.5,-4.75,0
48580,-2,-0.3125,-3.75,0
48600,-2,0.5625,-3.3125,0
48620,-0.1875,0.1875,-4.3125,0
48640,1.125,1.5625,-3.4375,0
48660,1.5,2.1875,-4.875,0
48680,0.3125,2.625,-5.8125,0
48700,1.625,2.6875,-5.75,0
48720,0.8125,2.1875,-5.3125,0
48740,0.4375,1.25,-5,0
48760,0.3125,1.375,-4.375,0
48780,-2.5625,1.5625,-4.1875,0
48800,-3,0.8125,-4.9375,0
48820,-4,0.75,-3.6875,0
48840,-3.6875,0.1875,-3.25,0
48860,-3.625,-0.8125,-3.5625,0
48880,-2.5625,-1.125,-4.6875,0
48900,-4.0625,0.0625,-6.125,0
48920,-3.375,0.8125,-7.375,0
48940,-0.8125,0.3125,-6.6875,0
48950,1.4375,0.875,-7.5,0
48970,0.125,1.4375,-6.9375,0
48990,-0.375,2.375,-8.25,0
49010,1.4375,3.375,-9.875,0
49030,3.1875,3.0625,-9.3125,0
49050,1,3.9375,-8.25,0
49070,-0.0625,5,-7.8125,0
49090,-0.4375,6.1875,-9,0
49110,-1.125,5.875,-9,0
49130,-4.5625,5.25,-6.8125,0
49150,-4.6875,5.5,-6.0625,0
49170,-1.6875,4.6875,-6.8125,0
49190,-0.5,3.9375,-9.4375,0
49210,-0.875,3.4375,-9.4375,0
49230,-2.0625,3.75,-7.625,0
49250,-1,4.3125,-6.875,0
49270,-1.5,5.125,-6.25,0
49290,-1.3125,5.375,-5.0625,0
49310,-0.5625,4.625,-4.8125,0
49330,1.625,4.125,-3.9375,0
49350,0.4375,5.1875,-4.25,0
49370,0.1875,5.3125,-5.25,0
49390,1.3125,4.5,-4.9375,0
49410,1.625,4,-6.5625,0
49430,1,3.8125,-7.0625,0
49450,-0.3125,4.5625,-7.9375,0
49470,0.625,4.625,-7.6875,0
49490,0.4375,5.3125,-8,0
49510,-0.6875,6.6875,-9.0625,0
49530,-0.625,7.875,-8.6875,0
49550,-0.8125,8.25,-9.75,0
49570,-1.9375,8.625,-10.5625,0
49590,-1.1875,9.0625,-11.875,0
49610,-0.625,10.4375,-11.625,0
49630,-0.6875,12.125,-10.6875,0
49650,-0.6875,13.125,-11.0625,0
49670,-1.5625,12.625,-10.75,0
49690,-0.875,12.4375,-10.5625,0
49710,-1.875,12.8125,-10,0
49730,-1.5625,13.25,-10.1875,0
49750,-0.4375,12.4375,-11.6875,0
49770,0.375,11.625,-12.375,0
49790,0.6875,9.875,-11.9375,0
49810,1.3125,9.3125,-12.25,0
49830,1,9.125,-12.4375,0
49850,0.9375,9.25,-12.1875,0
49870,0.125,9.125,-12.8125,0
49890,-1.125,8.6875,-11.4375,0
49910,-0.25,8.625,-11.875,0
49930,-0.0625,9.1875,-11.625,0
49950,0.125,8.75,-11.625,0
49970,-0.125,8.25,-11.5625,0
49990,-0.875,8.3125,-11.0625,0
50010,-1,8.6875,-11.625,0
50030,-0.125,9.5,-12.1875,0
50050,0.375,10,-11.9375,0
50070,-0.125,10.625,-10.5625,0
50090,-0.0625,10.3125,-11.3125,0
50110,0.875,10,-12,0
50130,1.875,10.3125,-12.6875,0
50150,1.5625,9.875,-12.75,0
50170,1,9.8125,-12.75,0
50190,0.25,10.3125,-12.1875,0
50210,0.625,10.375,-12.625,0
50230,0.625,10.0625,-12.8125,0
50250,-0.3125,10.0625,-12.25,0
50270,0.1875,10.6875,-12.25,0
50290,-0.1875,11.375,-13,0
50310,-0.3125,11.75,-14.25,0
50330,-1.125,11.5625,-14.375,0
50350,-0.3125,11.8125,-14.25,0
50370,-0.3125,12.5625,-14.5625,0
50390,-0.5625,13.0625,-16.125,0
50410,-0.0625,12.3125,-16.5625,0
50430,-0.4375,12.8125,-15.75,0
50450,0.125,13.625,-15.1875,0
50470,0.5,13.6875,-14.8125,0
50490,0.375,13.625,-16.0625,0
50510,-0.5,13.5625,-16.5,0
50530,-0.625,13.4375,-16.375,0
50550,-1.75,13.1875,-14.6875,0
50570,-2.25,12.875,-14.0625,0
50590,-4.4375,13.1875,-14.3125,0
50610,-3.875,12.8125,-14.625,0
50630,-1.625,12.375,-14.6875,0
50650,-2.25,11.875,-14.5,0
50670,-2.1875,11.9375,-15.3125,0
50690,-1.0625,11.375,-15.0625,0
50710,-1.75,11.5,-14.125,0
50730,-0.3125,11.25,-14.3125,0
50750,-1.1875,12.0625,-14.875,0
50770,-1.4375,12.9375,-15.75,0
50790,-1.5,11.9375,-14.5625,0
50810,-1.625,11.125,-15,0
50830,-0.5625,10.75,-14.1875,0
50850,-1.8125,10.8125,-13.25,0
50870,-3.125,10.75,-12.75,0
50890,-1.875,9.9375,-11.125,0
50910,-2.6875,9.5625,-12.375,0
50930,-4.125,9.0625,-13.0625,0
50950,-2.5625,8.125,-12.75,0
50970,-0.8125,7.625,-12.3125,0
50990,-2.9375,7.5625,-11.5625,0
51010,-2.875,8.0625,-11.125,0
51030,-1.4375,8.5625,-12.125,0
51050,-2.6875,8.3125,-11,0
51070,-2.3125,8.25,-10.1875,0
51090,-2.125,8.875,-10.0625,0
51110,-2.1875,9.4375,-9.875,0
51130,-3.4375,9.1875,-9.75,0
51150,-2.8125,8.6875,-9.6875,0
51170,-3.375,8.625,-8.875,0
51190,-4.125,7.3125,-9,0
51210,-5.375,7.4375,-8.875,0
51230,-4.5625,7.6875,-8.25,0
51250,-2.4375,6.25,-9,0
51270,-2.625,5.9375,-9,0
51290,-6.4375,7.3125,-8.4375,0
51300,-5.5,7.0625,-6.5,0
51320,-1.5,4.9375,-5.875,0
51340,1.25,3.0625,-6.3125,0
51360,-1.0625,2.9375,-6.375,0
51380,-4.1875,4.8125,-7.6875,0
51400,-1.5,4.625,-9.4375,0
51420,0.9375,4.3125,-8.3125,0
51440,2.75,3.8125,-9.25,0
51460,4,4.25,-10.3125,0
51480,3.625,4.75,-10.6875,0
51500,4.625,4.8125,-11.375,0
51520,3.8125,5.9375,-11.875,0
51540,1.4375,6.1875,-10.375,0
51560,2.25,6.375,-10.8125,0
51580,3.25,6.375,-11.0625,0
51600,4.4375,5.8125,-11.25,0
51620,2.875,6.125,-9.875,0
51640,-1.25,7.1875,-9.25,0
51660,-1.125,6.625,-8.5,0
51680,-1.5,6.5,-6.9375,0
51700,-2.1875,6.875,-4.625,0
51720,-6.875,7.125,-3.75,0
51740,-9.125,7.75,-3.875,0
51760,-6.375,6.625,-2.1875,0
51780,-4.625,5.8125,-0.1875,0
51800,-6.75,5.125,-0.8125,0
51820,-6.9375,4.875,-2.8125,0
51840,-6.8125,4.4375,-3.3125,0
51860,-8.4375,3.5625,-3.6875,0
51880,-6.25,2.875,-2.5,0
51900,-3.9375,2.625,-2,0
51920,-3.625,2.625,-1.8125,0
51940,-0.625,2.1875,-2.4375,0
51960,0.0625,1.625,-1.6875,0
51980,3.5,1.3125,-1.125,0
52000,2.8125,2.5625,-0.4375,0
52020,6.6875,3.0625,-1.25,0
52040,5.5625,3.625,-3.25,0
52060,7.75,3.6875,-4.8125,0
52080,11.375,3.875,-5.4375,0
52100,10.75,4.75,-5.8125,0
52120,9.1875,5.5625,-5,0
52140,7.8125,6.375,-5.125,0
52160,6,7.5,-4.25,0
52180,1.625,7.8125,-2.9375,0
52200,1.3125,7.75,-2.25,0
52220,-1.5625,6.25,-1.375,0
52240,-2,5.125,-0.8125,0
52260,-2.3125,4.75,-0.625,0
52280,-2.9375,3.9375,-0.1875,0
52300,-1.875,1.75,1.75,0
52320,-0.6875,0.375,3.25,0
52340,0.9375,0,3.0625,0
52360,-1.1875,0.6875,4.6875,0
52380,-2.125,0.1875,7.0625,0
52400,-2.875,-0.25,8.0625,0
52420,-4.375,0.6875,8.6875,0
52440,-5.4375,1.625,9.0625,0
52460,-2.5,-0.125,9.9375,0
52480,-1.5625,-1.3125,8.875,0
52500,0.6875,-2.75,7.25,0
52520,0.5,-3.3125,5.5625,0
52540,-1.5625,-3.8125,3,0
52560,0.375,-4.375,1.375,0
52580,4.4375,-4.75,1.125,0
52600,2.0625,-3.3125,0.125,0
52620,3.8125,-3.125,-1.5625,0
52640,3,-2.8125,-2.25,0
52660,1.4375,-1.8125,-1.0625,0
52680,2.5,-1.6875,-0.9375,0
52700,2.6875,-1.1875,0.0625,0
52720,1.4375,-1.125,1.75,0
52740,2.875,-0.9375,1.1875,0
52760,3.75,-0.6875,1.4375,0
52780,3.625,-0.8125,2.5625,0
52800,2.9375,-1.3125,3.25,0
52820,2.625,-2.0625,4.75,0
52840,2.0625,-1.8125,3.4375,0
52860,2.75,-1.8125,3.6875,0
52880,3.6875,-1,3.9375,0
52900,4.625,-1.25,3.1875,0
52920,5.9375,-2.8125,1.75,0
52940,6.8125,-4.3125,1.5625,0
52960,5,-4.875,1.0625,0
52980,6.5,-5.5625,0.375,0
53000,9.1875,-5.4375,0.1875,0
53020,9.875,-6.375,0.5,0
53040,6.25,-7.1875,-0.125,0
53060,4.8125,-7,-1.9375,0
53080,3.625,-7.125,-0.8125,0
53100,0.8125,-7.25,0.0625,0
53120,3.0625,-8.4375,0,0
53140,6.625,-8.6875,0.0625,0
53160,3.375,-8.625,-0.4375,0
53170,0.8125,-8.75,0.125,0
53190,2.0625,-7.9375,1.3125,0
53210,3.0625,-7.3125,2.1875,0
53230,4.25,-7.25,2.6875,0
53250,0.4375,-7,3.3125,0
53270,-1.9375,-5.875,4.25,0
53290,-1.8125,-3.4375,3.9375,0
53310,-0.6875,-1.5625,5.4375,0
53330,0.375,-0.6875,7.25,0
53350,3.0625,1,7.625,0
53370,6,2,7.375,0
53390,5.5625,2.9375,6.5,0
53410,5.0625,3.0625,6.375,0
53430,3.5,4.5625,6.9375,0
53450,3.5,5,7.6875,0
53470,1.375,6.5,8.25,0
53490,-0.0625,7.375,6.0625,0
53510,-3.0625,9.0625,4.5625,0
53530,-3.5,9.4375,4.25,0
53550,-3.625,10.375,3.8125,0
53570,0.4375,10.625,3.125,0
53590,0.8125,9.625,3.125,0
53610,2.8125,8.0625,1.5625,0
53630,2.375,5.75,1.5625,0
53650,0.5,3.4375,3.125,0
53670,0.625,1.875,2.8125,0
53690,2.125,1.125,2.4375,0
53710,-3.375,0.4375,2.8125,0
53730,-4.6875,0.0625,3.3125,0
53750,-3.75,-0.625,2.75,0
53770,-1.3125,-0.9375,4.5,0
53790,-1.5625,-1.3125,7.375,0
53810,2.5625,-2.875,8.4375,0
53830,5.875,-3.75,7.75,0
53850,3.75,-4.9375,7.5625,0
53870,2.875,-6.3125,7.6875,0
53890,5.75,-7.75,9.25,0
53910,7.5,-8.125,10.1875,0
53930,2.625,-7.5,8.9375,0
53950,0.3125,-7.125,9.625,0
53970,-1.625,-6.5,9.5625,0
53990,1.4375,-5.6875,10.4375,0
54010,1,-4.5625,11.625,0
54030,3.5,-4.5625,12.4375,0
54050,5.875,-5.375,12.5,0
54070,3.5,-5.8125,12,0
54090,3.6875,-6.625,11.625,0
54110,3.75,-7.25,12.25,0
54130,2.6875,-7.5,13.4375,0
54150,-0.4375,-7,12.5625,0
54170,-1.25,-7,13.125,0
54190,-2.75,-5.6875,12.6875,0
54210,-1.5,-5.25,12.625,0
54230,-3.625,-5.25,14.3125,0
54250,-4.625,-5.5,12.9375,0
54270,0.5625,-6,11,0
54290,0.75,-6.6875,11.0625,0
54310,-1.1875,-8.3125,11.625,0
54330,-1.0625,-8.625,10.5,0
54350,-0.1875,-8.75,10.0625,0
54370,1.5625,-8.625,10.5,0
54390,1.4375,-8.375,11.8125,0
54410,-0.6875,-7.875,13.625,0
54430,-3.0625,-7.3125,14.0625,0
54450,-1.5625,-6.625,14.25,0
54470,-1,-6,13.625,0
54490,-1.3125,-6.5625,15.1875,0
54510,-1.8125,-6.375,15.25,0
54530,2.8125,-7.0625,14.1875,0
54550,3.375,-8.375,14.1875,0
54570,0.6875,-9.5,14.375,0
54590,0.8125,-11.125,14.125,0
54610,2.9375,-11.8125,12.9375,0
54630,2.875,-12.625,12.4375,0
54650,-0.5,-13.1875,13.5625,0
54670,-1.75,-14.1875,13.875,0
54690,-1.625,-14.125,12.6875,0
54710,-3.125,-14.1875,12.875,0
54730,-4.75,-14.375,14.25,0
54750,-3.6875,-14.75,14.3125,0
54770,-3.125,-14.8125,14.25,0
54790,-3.625,-14.875,13.3125,0
54810,-3.6875,-14.9375,14.0625,0
54830,-4.1875,-14.5625,14.125,0
54850,-3.125,-14.5625,14.125,0
54870,-4.375,-14.75,15.875,0
54890,-5.3125,-14.5625,15.1875,0
54910,-4,-14.3125,15.1875,0
54930,-4.5625,-14.125,16.125,0
54950,-4.1875,-13.9375,15.375,0
54970,-2.125,-13.875,14.9375,0
54990,-3.9375,-13.6875,15,0
55010,-4.1875,-13.8125,14.4375,0
55030,-3,-13.75,14.125,0
55050,-5,-13.375,15.1875,0
55070,-5.8125,-13.125,16.1875,0
55090,-6.0625,-12.3125,15.125,0
55110,-7.25,-12.25,16.1875,0
55130,-9.1875,-12.5625,16.5,0
55150,-9.625,-12.6875,16.625,0
55170,-9.375,-12.625,16.5625,0
55190,-9.4375,-12.5,15.3125,0
55210,-9.875,-12.25,14.75,0
55230,-9.1875,-12.875,15.4375,0
55250,-9,-13.25,14.9375,0
55270,-11.125,-13.9375,15.5,0
55290,-10.5,-14.0625,15.0625,0
55310,-10.4375,-14.5,14.1875,0
55330,-11.125,-14.4375,14,0
55350,-10.875,-14.0625,14,0
55370,-11.1875,-14.0625,13.6875,0
55390,-12.5,-14.375,13.25,0
55410,-11.875,-14.25,12.625,0
55430,-10.5,-13.875,10.625,0
55450,-9.75,-13.625,10.4375,0
55470,-12.4375,-14.0625,10.5,0
55490,-9.5,-14.9375,9.75,0
55510,-8.1875,-15.375,9.1875,0
55530,-8.625,-16.4375,8.625,0
55550,-9.1875,-17.125,6.875,0
55570,-6.75,-17.3125,6.125,0
55590,-7.9375,-18.625,5.8125,0
55610,-8.4375,-18.875,5.125,0
55630,-6.5,-18.75,4.3125,0
55650,-4.625,-18.5625,3.4375,0
55670,-7.125,-19.125,3.875,0
55690,-8.25,-19.1875,3.875,0
55710,-7.3125,-18.5,2.3125,0
55730,-6.0625,-17.6875,1.8125,0
55750,-8.375,-17.0625,2.625,0
55770,-9.5,-17.125,2.9375,0
55790,-7.25,-17.4375,2,0
55810,-11.1875,-16.5,1.1875,0
55830,-12.4375,-16.5625,0.4375,0
55850,-9.9375,-17.0625,-0.5,0
55870,-10.6875,-16.4375,-0.4375,0
55890,-11.875,-15.5625,0.5,0
55910,-11.3125,-14.6875,-1.9375,0
55930,-9.125,-15.125,-2.8125,0
55950,-10.1875,-14.8125,-2.125,0
55970,-9.375,-15.5,-2.375,0
55990,-6.5625,-16,-3.375,0
56010,-7.75,-15.9375,-3.375,0
56030,-11.9375,-16.1875,-3.0625,0
56050,-12,-16.4375,-2.5,0
56070,-9,-16.4375,-4.375,0
56090,-8.5625,-16.5,-4.375,0
56110,-9.0625,-16.75,-4.1875,0
56130,-7.3125,-17.375,-5.75,0
56150,-6.625,-16.3125,-6.25,0
56170,-8.5625,-15.5625,-6,0
56190,-9.3125,-16.75,-4.0625,0
56210,-9.375,-17.25,-3.875,0
56230,-8.75,-17.1875,-4.4375,0
56250,-9.375,-16.625,-4.5625,0
56270,-8.625,-16.5,-4.375,0
56290,-5.375,-17.5625,-4.4375,0
56310,-5.8125,-18.625,-4.9375,0
56330,-4.0625,-17.0625,-6.375,0
56350,-5.1875,-14.0625,-6.5,0
56370,-4,-13.5625,-6.0625,0
56390,-4.25,-12.625,-8.125,0
56410,-2.375,-10.1875,-8.1875,0
56430,-2.3125,-9.5625,-6.875,0
56450,-1.5,-8.1875,-6.9375,0
56460,-1.3125,-8.1875,-8.9375,0
56480,-2.1875,-6.9375,-10.625,0
56500,-1.3125,-5.6875,-11.25,0
56520,-0.625,-5.5625,-12.5625,0
56540,-2,-5.1875,-12.875,0
56560,-2.1875,-6,-12.8125,0
56580,-3.75,-3.9375,-11.6875,0
56600,0.5625,-3.0625,-15.5625,0
56620,-1,-1.4375,-15.75,0
56640,-1.3125,0.4375,-14.1875,0
56660,0.25,1.125,-15.9375,0
56680,-0.75,1.9375,-18.875,0
56700,-1.5625,2.375,-22,0
56720,-2.9375,3.25,-22.6875,0
56740,-4.4375,4.25,-22.4375,0
56760,-2.1875,4.3125,-24.625,0
56780,-4.375,6.4375,-24.75,0
56800,-5,9.25,-24.875,0
56820,-6.3125,10,-24.9375,0
56840,-5.3125,10.875,-25.75,0
56860,-4.3125,11.75,-26.8125,0
56880,-4.0625,14.1875,-27.0625,0
56900,-5.25,14.875,-25.625,0
56920,-9.25,17.6875,-24.8125,0
56940,-7.75,19.5,-25.625,0
56960,-4.375,18.5,-25.75,0
56980,-8.6875,19,-28,0
57000,-11.3125,19.6875,-27.25,0
57020,-9.3125,21.1875,-26.3125,0
57040,-6.3125,21.125,-27.5625,0
57060,-8.5,21.125,-29,0
57080,-11.0625,21.375,-29.8125,0
57100,-6.8125,20.875,-29.0625,0
57120,-5.5625,20.8125,-29.375,0
57140,-7.3125,20.3125,-32.4375,0
57160,-6,20.125,-32.8125,0
57180,-3.8125,20.5625,-31.8125,0
57200,-2.375,21.9375,-31.625,0
57220,-4.1875,22.6875,-33.4375,0
57240,-2.875,22.75,-35.25,0
57260,0.5625,23.25,-33.75,0
57280,2.5,23,-32.4375,0
57300,-0.4375,24.125,-33.5,0
57320,-2.625,24.1875,-33.1875,0
57340,-1.1875,24.375,-33.625,0
57360,-1.125,23.6875,-32.6875,0
57380,-2.5625,21.625,-31.6875,0
57400,-4.125,20,-30.375,0
57420,-4,21,-30.625,0
57440,-3.625,21.25,-28.75,0
57460,-6.6875,21.125,-27.5,0
57480,-6.125,20.3125,-25.875,0
57500,-5.0625,20.375,-25.5,0
57520,-4.6875,21.0625,-27.1875,0
57540,-10.5,24.3125,-23.25,0
57560,-7.5,25.8125,-22.0625,0
57580,-4.4375,24.75,-21.75,0
57600,-0.625,21.5625,-21.875,0
57620,-3,20.875,-19.9375,0
57640,-8.1875,21.75,-18,0
57660,-6.6875,22.3125,-16.4375,0
57680,-4.1875,21.5,-17.25,0
57700,-3.6875,19.8125,-14.3125,0
57720,-5.125,18.75,-9.1875,0
57740,-7.4375,18.25,-8.3125,0
57760,-2.125,17.625,-6.8125,0
57780,-2.5625,17.875,-3.6875,0
57800,-0.5,16.5,-3.625,0
57820,1.8125,17.125,-1.875,0
57840,-3.4375,16.4375,0.6875,0
57860,-0.4375,15.3125,3.375,0
57880,1.25,15.1875,2.6875,0
57900,-0.625,16.75,1.1875,0
57920,-1.5625,17.125,4.5,0
57940,0.125,14.875,6.375,0
57960,4.75,9.5,8.3125,0
57980,7,9.25,7.375,0
58000,6.4375,12.6875,7.375,0
58020,2.125,13.125,9.125,0
58040,6.625,10.3125,9.0625,0
58060,11.5625,9.8125,10.5,0
58080,5.3125,11.8125,10.625,0
58100,2.25,11.6875,11.625,0
58120,3.8125,12.375,12.4375,0
58140,7.4375,11.125,13.0625,0
58160,4.4375,10.75,14.75,0
58180,3.625,9.8125,13.3125,0
58200,8.625,8.5625,9.3125,0
58220,12.1875,7.375,10.4375,0
58240,9.0625,7.5625,13.1875,0
58260,3.8125,9.5625,16.4375,0
58280,5.8125,8.3125,17,0
58290,9,7.625,16.75,0
58320,9.375,7.4375,18.9375,0
58340,-0.3125,6.6875,24,0
58350,2.6875,5.375,26.9375,0
58370,4.8125,3.3125,27.9375,0
58390,1.375,1.0625,30.1875,0
58410,-1.25,0.9375,31.25,0
58430,-0.75,-0.8125,33.125,0
58450,3.6875,-2.1875,33.375,0
58470,8,-2.3125,32.875,0
58490,7.1875,-4.1875,32.75,0
58510,7.0625,-5.1875,33.875,0
58530,6.4375,-6.9375,34.5,0
58550,6.25,-9.5,35.8125,0
58570,2.8125,-10.3125,35.4375,0
58590,1.1875,-13.0625,35.125,0
58610,0.1875,-14.625,32.375,0
58630,-3.125,-17.625,32.25,0
58650,-3.0625,-20.875,33.75,0
58670,-4.1875,-22.875,32.625,0
58690,-6.5,-24.4375,31.5625,0
58710,-7.625,-25.875,29.625,0
58730,-4.1875,-27.5625,29.4375,0
58750,-3.3125,-27.75,29.5625,0
58770,-5,-28.9375,27.625,0
58790,-3.5,-30.0625,25.4375,0
58810,-3.25,-31.75,25.8125,0
58830,-2.8125,-32.375,26.3125,0
58850,-1.75,-32.125,26.0625,0
58870,-1.3125,-31.375,23,0
58890,-0.75,-32.3125,22.4375,0
58910,-2.8125,-34.875,26.4375,0
58930,-2.0625,-35.0625,26.875,0
58950,-2.625,-33.375,23,0
58970,-4.125,-31.4375,21.3125,0
58990,-0.625,-29,19.3125,0
59010,0.5625,-28.3125,18.5625,0
59030,-1.5625,-27.4375,19.875,0
59050,0.25,-27.0625,18.4375,0
59070,-1.375,-26.125,16.5625,0
59090,-0.9375,-26.5625,14.875,0
59110,-6.3125,-28.0625,16,0
59130,-11,-28.75,15.125,0
59150,-11.8125,-28.5,10.9375,0
59170,-16.9375,-28.5625,9.5,0
59190,-19.8125,-28.5,8.9375,0
59210,-24,-27.6875,4.875,0
59230,-18.1875,-27.875,3.125,0
59250,-18.75,-27.0625,1.6875,0
59270,-24.875,-27.125,1.625,0
59290,-21.75,-28.1875,0.375,0
59310,-20.5,-32.1875,0.3125,0
59330,-26,-34,3,0
59350,-31.0625,-32.3125,1.6875,0
59370,-27.9375,-33.375,-4.375,0
59390,-29.0625,-34.6875,-3.4375,0
59410,-30.5,-35,-5.3125,0
59430,-23.125,-35.3125,-9.5,0
59450,-18.5,-34.625,-12.9375,0
59470,-12.625,-33.6875,-18.1875,0
59490,-9.25,-36.125,-23.3125,0
59510,-7.625,-37,-28.375,0
59530,-4.125,-34.75,-34.625,0
59550,-0.4375,-32.875,-39.5625,0
59570,-0.625,-31.625,-39.9375,0
59590,-8.5625,-30.3125,-36,0
59610,-10.0625,-27.5,-38.0625,0
59630,-6.375,-24.25,-42.6875,0
59650,-0.6875,-20.5,-42.3125,0
59670,-6,-16.5625,-42.5625,0
59690,-3.4375,-13.4375,-43.5,0
59710,-5,-10.625,-45.5625,0
59730,-1.6875,-6.6875,-44.125,0
59750,-1.5,-4.4375,-45,0
59770,-3.625,-0.875,-47.6875,0
59790,-6,2.5625,-49.375,0
59810,-6.25,7.1875,-46.0625,0
59830,-12.5625,13,-43.5625,0
59850,-14.0625,17.375,-49.625,0
59870,-22.25,22.5625,-46,0
59890,-18.25,23.5,-43.375,0
59910,-15.8125,24.75,-40.5625,0
59930,-17.0625,26.4375,-39.0625,0
59950,-16.9375,30.0625,-38.75,0
59970,-8.1875,31.5,-38.875,0
59990,-6.8125,31.1875,-37.1875,0
60010,-5.75,28.875,-39.75,0
60030,-4,28.75,-42.125,0
60050,-2.875,30.5625,-43.125,0
60070,-2.75,30,-41.6875,0
60090,-1.5625,29.4375,-40,0
60110,-0.5,28.9375,-41,0
60120,2.125,29.625,-42.3125,0
60140,0.1875,31.3125,-40.3125,0
60160,0.375,30.9375,-36.1875,0
60180,2.5625,30.25,-33.3125,0
60200,2.25,30.375,-31.5,0
60220,0.125,31.875,-29.5,0
60240,-0.25,32.625,-26.375,0
60260,3.4375,31.625,-22.125,0
60280,3.9375,31.5,-21.6875,0
60300,4.1875,32.0625,-20.4375,0
60320,3.4375,34.125,-18.625,0
60340,-2,36.0625,-16.5,0
60360,-4.125,34.9375,-11.0625,0
60380,0.6875,31.6875,-7.375,0
60400,-0.3125,29.75,-4.375,0
60420,-3,30.3125,-2.6875,0
60440,-8.4375,33.625,-2.75,0
60460,-10.4375,29.75,-1.5625,0
60480,-2.875,31.625,-0.1875,0
60500,-2.9375,30.3125,2.4375,0
60520,-12.875,31.6875,3.375,0
60540,-12.125,33.1875,5.125,0
60560,-9.25,32.125,7.375,0
60580,-5.6875,28.875,9.1875,0
60600,-8.4375,30.9375,9.75,0
60620,-22.5625,32.75,10.75,0
60640,-8.6875,30.1875,13.625,0
60660,-2.5625,30.125,15.9375,0
60680,0.75,31.6875,16.9375,0
60700,-4.4375,33.5,17.9375,0
60720,-4.1875,32.4375,18.5625,0
60740,-4.1875,31.125,19.5,0
60760,-2.875,32.25,17,0
60780,-12,32.25,19.4375,0
60800,-10.6875,28.25,23.6875,0
60820,-5.75,27.625,26.6875,0
60840,-10.75,30.0625,24.3125,0
60860,-16.4375,29.75,25.875,0
60880,-14.625,24.6875,31.375,0
60900,-12,20.6875,32.9375,0
60920,-8.375,18.875,30.8125,0
60940,-15.4375,17,29.5625,0
60960,-16.6875,13.125,29.375,0
60980,-14.625,9.75,26.6875,0
61000,-13,8.125,25.1875,0
61020,-14.375,6.875,25.1875,0
61040,-14.5625,3.875,28.25,0
61060,-8.75,2.375,27.3125,0
61080,-5.875,3.125,25.75,0
61100,-6.5625,2.25,26.6875,0
61120,-10.0625,-1,28.5625,0
61140,-6.4375,-2.25,29.4375,0
61160,-5.4375,-3.4375,28,0
61180,-7.4375,-4.8125,27.5,0
61200,-11.4375,-7.1875,29.0625,0
61220,-10.625,-7.6875,28.125,0
61240,-4.875,-10.125,28.25,0
61260,-4.125,-10.625,28,0
61280,-13.0625,-12.3125,29.4375,0
61300,-6.8125,-15.0625,30.6875,0
61320,-8.1875,-17.9375,28.75,0
61340,-7.125,-19.4375,28.125,0
61360,-11.5625,-20.3125,27.8125,0
61380,-10.9375,-21.75,25.25,0
61400,-12.1875,-22.9375,24.3125,0
61420,-15.9375,-24.8125,24.9375,0
61440,-16.5,-25.9375,24.0625,0
61460,-11.875,-25.75,20.375,0
61480,-12.125,-27.3125,19.125,0
61500,-15.8125,-30,19.8125,0
61520,-16.9375,-30.3125,19,0
61540,-13.25,-29.3125,15.5625,0
61560,-13.9375,-29.875,15.375,0
61580,-20.125,-30.375,14.6875,0
61600,-24.0625,-29.6875,14.8125,0
61620,-20,-28.375,12.6875,0
61630,-14.5,-27,12.375,0
61650,-19.5,-27.0625,12.8125,0
61670,-24.25,-28.4375,13.75,0
61690,-22.875,-27.4375,10.5,0
61710,-15.5,-26.0625,7.4375,0
61730,-15.25,-26.875,6.9375,0
61750,-15.625,-28.9375,6.75,0
61770,-10.25,-28.3125,5.0625,0
61790,-0.9375,-26.1875,2.9375,0
61810,-1.6875,-24.9375,1.5,0
61830,-5.375,-25,2.125,0
61850,-3.6875,-24.75,2.1875,0
61870,-1,-23.1875,0,0
61890,-4.0625,-22.3125,-0.4375,0
61910,-7.5625,-24.375,1.3125,0
61930,-9.25,-25.5625,1.3125,0
61950,-9.1875,-25.0625,-0.875,0
61970,-9.9375,-24.75,-1.9375,0
61990,-12,-25,-1,0
62010,-12.875,-25,0.0625,0
62030,-11,-24.625,-1.75,0
62050,-7.6875,-23.6875,-2.5625,0
62070,-7.5,-24.3125,-3.4375,0
62090,-5.3125,-25.75,-5.125,0
62110,-2.5,-25.3125,-6.75,0
62130,-1.0625,-24,-8.25,0
62150,1.75,-24.75,-7.875,0
62170,4.9375,-25.5,-9.3125,0
62190,6.25,-24.125,-10.5625,0
62210,-0.0625,-22.8125,-13.125,0
62230,1.75,-23.25,-12.625,0
62250,3.375,-23.75,-11.6875,0
62270,3.875,-22.8125,-13.0625,0
62290,1.5,-23,-15.8125,0
62310,0.875,-23.625,-15.375,0
62330,1,-23.625,-13.8125,0
62350,-1.6875,-23.1875,-14.25,0
62370,-4.75,-23.375,-14.5,0
62390,-0.9375,-22.25,-16.25,0
62410,1,-21.4375,-16.9375,0
62430,1.25,-22,-17.625,0
62450,1.5625,-21.9375,-16.0625,0
62470,1.5625,-21.3125,-17.375,0
62490,3.6875,-21,-18.8125,0
62510,3.125,-20.0625,-19,0
62530,1.8125,-19.6875,-17.6875,0
62550,-2.625,-19.9375,-16.8125,0
62570,-2.125,-18.1875,-17.1875,0
62590,2,-16.375,-17.4375,0
62610,1.625,-15.125,-16.875,0
62630,0.5625,-15.125,-16.625,0
62650,-0.375,-14.375,-16.125,0
62670,0.8125,-13.4375,-16.125,0
62690,0.125,-13.125,-16.375,0
62710,-0.3125,-12,-15.5,0
62730,-1.5625,-11.375,-14.625,0
62750,-2.8125,-10.0625,-13.3125,0
62770,0.375,-8.125,-13.875,0
62790,2.25,-6.625,-14.125,0
62810,2.0625,-5.375,-12,0
62830,0.8125,-5.375,-10.4375,0
62850,2.375,-4.6875,-11.1875,0
62870,5.5625,-3.1875,-12.625,0
62890,5.4375,-2.9375,-12.0625,0
62910,9,-3.625,-9.375,0
62930,5.8125,-3.25,-9.9375,0
62950,8.1875,-1.625,-11.9375,2001
62970,5.5,-0.5625,-10.9375,0
62990,5.8125,0.875,-9.5625,0
63010,7.625,0.5,-7.5625,0
63030,7.5,1.125,-8.375,0
63050,7.75,2.8125,-9.1875,0
63070,4.5625,3.1875,-8.25,0
63090,1.5,1.5625,-8.1875,0
63110,3.5625,0,-7.9375,0
63130,3.3125,1.0625,-7.875,0
63150,0.3125,2.375,-7.5,0
63170,-2.375,2.5,-4.3125,0
63190,-1.375,2.375,-1.8125,0
63210,-3.0625,1.875,1.625,0
63230,-7.875,3,2,0
63250,-4.75,3.375,0.4375,0
63270,-2.1875,2.5625,2.125,0
63290,-4.3125,3,3.625,0
63310,-1.5625,2.5,1.6875,0
63330,-2.75,3,1.375,0
63350,-6.5625,1.4375,2.4375,0
63370,-4,0.4375,4.125,0
63390,1.1875,3.5,-3.625,0
63410,7.4375,5.875,-6.625,0
63430,3.5625,3.125,1.5625,0
63450,2.5,2.3125,2.6875,0
63470,3.1875,6.9375,2.625,0
63490,5.5625,8.625,1.1875,0
63510,3.625,10.0625,3.1875,0
63520,-1.125,11.5625,6.625,0
63540,-2.75,12.125,7.1875,0
63560,1.1875,13.8125,5.1875,0
63580,3.375,15.8125,7.375,0
63600,3.75,16.9375,11.3125,0
63620,0.25,16.8125,13.8125,0
63640,1.3125,18.4375,12.6875,0
63660,4.4375,21.5,13.0625,0
63680,10.0625,25,12.5,0
63700,12.5625,27.1875,16.75,0
63720,11.125,30,19.3125,0
63740,18.125,32.875,17.6875,0
63760,21.8125,37.0625,18.625,0
63780,19.0625,42.5,18.9375,0
63800,15.625,48,21.8125,0
63820,18.4375,52.9375,23.75,0
63840,28.8125,60.4375,20.9375,0
63860,22.4375,68.875,18.125,0
63880,25.3125,77.5625,19.6875,0
63900,26.4375,80.9375,26.625,0
63920,29.5,85,31.875,0
63940,30.5,96.1875,31.125,0
63960,36.0625,106.562,33.5,0
63980,27.6875,107.5,45.1875,0
64000,4.8125,113.562,50.125,0
64020,9.0625,116.75,60.75,0
64040,27.875,115.125,64.1875,0
64060,14.3125,110.188,68.4375,0
64080,-10.875,102.438,67.5625,0
64100,-10.1875,87.125,80.1875,0
64120,-4.8125,72.1875,78.875,0
64140,-5.6875,55.4375,71.875,0
64160,-3.8125,34.375,70.625,0
64180,3.25,12.5625,71.1875,0
64200,11.1875,-4.125,59,0
64220,14.8125,-20.1875,49.1875,0
64240,11.4375,-35.0625,47.1875,0
64260,9.8125,-47.3125,44.0625,0
64280,11.25,-53.875,33.0625,0
64300,9.6875,-58.1875,21.875,0
64320,3.625,-61.5625,21.5625,0
64340,-0.0625,-63.0625,26.3125,0
64360,2.5625,-58.5,23.1875,0
64380,0.4375,-51.5625,14.1875,0
64400,-2.75,-45.1875,12.5625,0
64420,-5.0625,-39,14.3125,0
64440,-1.625,-32,10.625,0
64460,5.125,-26.125,8.125,0
64480,8.8125,-18.0625,4.0625,0
64500,7.0625,-10.375,4.6875,0
64520,10.75,-5.9375,3.5,0
64540,15.5625,-2.1875,0.1875,0
64560,13.25,0.375,-2.75,0
64580,6.0625,2.5,-3,0
64600,7.25,1.25,-2.1875,0
64620,6.625,1.4375,-2.5,0
64640,-0.75,0.375,-0.375,0
64660,-4,-1.5,2.5625,0
64680,-4.9375,-4.4375,4,0
64700,-4.125,-7,7.3125,0
64720,-7.3125,-6.5625,5.375,0
64740,-6.125,-7.375,4,0
64760,-6.3125,-8.9375,6.375,0
64780,-5.3125,-7.5,6.6875,0
64800,-3.25,-6,3.4375,0
64820,-0.75,-4.375,1.6875,0
64840,2.625,-3.25,0.375,0
64860,-2.0625,2.125,1,0
64880,-0.6875,4.25,1.9375,0
64900,-1.4375,4.4375,1.375,0
64920,-4.625,4.75,2.9375,0
64940,-6.6875,2.375,2.9375,0
64960,-5.3125,2.125,4.9375,0
64980,-1.9375,1.25,5.625,0
65000,-3.375,2.625,4.25,0
65020,-3.875,1.75,3.8125,0
65040,-5.375,1.5,3.5625,0
65060,-0.5625,0.1875,3.4375,0
65080,-3.125,0.625,4.875,0
65100,-4.8125,0.0625,5.5,0
65120,-2.625,-1.0625,3.4375,0
65140,1.6875,-1.0625,2.9375,0
65160,-0.25,-0.375,3.8125,0
65180,-3.3125,-0.6875,4.5,0
65200,-0.9375,-1.375,3.25,0
65220,2.4375,-2.375,2.8125,0
65240,-1.0625,-4.5625,3.875,0
65260,0.0625,-6.9375,3.875,0
65280,0.6875,-8.4375,4.5,0
65300,0.5625,-10.6875,4.9375,0
65320,-1.375,-13.6875,3.625,0
65340,-1.5,-15.375,3.4375,0
65360,-2.1875,-15.8125,3.8125,0
65380,-1.1875,-16.125,3.6875,0
65400,-2.5625,-15.0625,3.3125,0
65420,-0.75,-15.875,3.75,0
65440,0.375,-14.8125,1.875,0
65460,2.25,-14,0.0625,0
65480,2.1875,-12.8125,0.5,0
65500,3.375,-13.5,-0.9375,0
65520,1.375,-12.625,-1.0625,0
65540,-0.1875,-10.9375,-0.1875,0
65560,-0.8125,-10.4375,1.625,0
65580,-2.8125,-8.75,1.75,0
65600,-2.1875,-8.3125,0.375,0
65620,-1,-7.75,1.3125,0
65640,-1.75,-7.5625,2.4375,0
65660,-1.0625,-7.25,2.25,0
65680,0.25,-8.1875,0.0625,0
65700,1,-8.3125,0.3125,0
65720,2.0625,-9,1.375,0
65740,2.375,-9.8125,0.1875,0
65760,3.625,-9.6875,-2.0625,0
65780,5.0625,-9,-3.4375,0
65800,4.25,-7.875,-1.9375,0
65820,3.4375,-7.1875,-2.25,0
65840,3.75,-7.5625,-2.125,0
65860,4.5625,-6.75,-1.9375,0
65880,2.6875,-7,-2.5625,0
65900,2.5625,-8.875,-3.75,0
65920,3.3125,-8.8125,-2.6875,0
65940,3.625,-8.125,-2.125,0
65960,4.125,-10.25,-3.5,0
65980,1.1875,-9.0625,-4.25,0
66000,2.375,-8.1875,-3.5,0
66020,1.4375,-7.6875,-3.8125,0
66040,0.375,-7.375,-2.5625,0
66060,0.9375,-6.3125,-3.125,0
66080,0.25,-3.375,-2.375,0
66100,-0.875,-0.25,-3.1875,0
66120,-4.0625,1.3125,-4.8125,0
66140,-9.25,4.5625,-0.3125,0
66160,-14.1875,8.8125,2.9375,0
66180,-12.3125,15.4375,0.1875,0
66200,-12.8125,20.5,-9.3125,0
66220,-17.375,24,-3.5,0
66240,-10,26.25,-1.75,0
66260,-7.9375,28.0625,-4.25,0
66280,-7.9375,27,-10,0
66300,-5.3125,25.75,-6,0
66320,-7.375,22.4375,0.5625,0
66340,-2.6875,20.75,-0.0625,0
66360,-4.875,20.25,1.0625,0
66380,-3.3125,11.125,0.75,0
66400,-5.1875,11.5,7.375,0
66420,-6.625,9.875,7.4375,0
66440,-1.0625,10,6.5,0
66460,0.25,8,4.25,0
66480,0.9375,7.9375,4.25,0
66500,6.5625,7.4375,4.6875,0
66520,4.3125,7.5,4.0625,0
66540,3.6875,5.9375,3.5625,0
66560,1.625,4.4375,3.4375,0
66580,5.875,3.25,3.1875,0
66600,4.8125,2.8125,3.5,0
66620,2.5,0.375,5.375,0
66640,4.125,-1.0625,1.625,0
66660,7,-2.0625,-0.25,0
66680,5.5,-1.4375,1.9375,0
66700,0.8125,-0.5,1.8125,0
66720,1.5,0.5625,2.875,0
66740,2.0625,2.375,4,0
66760,-0.6875,3.125,4.6875,0
66780,-1,2.625,5.25,0
66800,-0.75,2,6.5,0
66820,0.875,2.8125,5.375,0
66830,0.0625,3.625,2.1875,0
66850,-1,2.5,2.5,0
66870,1.5625,0.8125,2.25,0
66890,1.5,0,1.625,0
66910,-0.5,0.0625,1.5625,0
66930,-0.25,0,0.25,0
66950,0.3125,-0.1875,-0.125,0
66970,0.5,-0.9375,0.1875,0
66990,-0.5,-2.3125,1.3125,0
67010,0,-2.1875,0.375,0
67030,2.25,-2.3125,-1.9375,0
67050,1.625,-3,-2.3125,0
67070,1.4375,-5.375,-0.4375,0
67090,0.4375,-6.6875,1.375,0
67110,-0.5625,-7.125,0.125,0
67130,2.625,-9.8125,0.1875,0
67150,5.8125,-10.8125,0.3125,0
67170,5.8125,-11.5625,0.0625,0
67190,3.1875,-12.625,0.375,0
67210,6.25,-14.8125,0.6875,0
67230,6.8125,-16.5,0.8125,2000
67250,5.9375,-19,0.75,0
67270,6.5625,-19.25,1.1875,0
67290,3.75,-16.0625,-2.375,0
67310,2.1875,-15.5625,-2.75,0
67330,1.625,-14.25,-3.5625,0
67350,0.375,-11,-6.3125,0
67370,0.6875,-9.125,-7.125,0
67390,-3.4375,-5.5,-3.9375,0
67410,-4.625,-2.875,-1.8125,0
67430,-6.0625,-2.75,-1.375,0
67450,-7,-1.6875,-1.875,0
67470,-3.625,-0.25,0.25,0
67490,-0.8125,0.875,2.75,0
67510,0.125,0.875,4.8125,0
67530,1.5625,1,3.4375,0
67550,5.25,1.5625,1.5,0
67570,4.4375,3.375,1.9375,0
67590,4.1875,3.625,2.5625,0
67610,2.625,1.875,3,0
67630,0.625,1.3125,1.125,0
67650,-1,1.5,0.9375,0
67670,-1.0625,0.875,-0.625,0
67690,-2,-1,2.1875,0
67710,-2.875,-1.875,2.5625,0
67730,-4.5625,-0.1875,-0.25,0
67750,-5.6875,0.5,-1.3125,0
67770,-2.375,-0.75,-2.875,0
67790,1.25,-1.5,-5.375,0
67810,0,-2.5,-7.125,0
67830,0.625,-2.875,-6.1875,0
67850,0.75,-0.8125,-5,0
67870,0.8125,0.875,-5.375,0
67890,1,-1.1875,-5.8125,0
67910,0.75,-4.4375,-3.25,0
67930,1.125,-4.375,1.1875,0
67950,0.0625,-0.8125,0,0
67970,0.625,0,-0.25,0
67990,3.875,-2.3125,2.25,0
68010,3.1875,-3.25,3.75,0
68030,0,-0.9375,3.6875,0
68050,2.4375,-0.9375,2.6875,0
68070,5.1875,-2.4375,1.875,0
68090,3.6875,-4.5,2.9375,0
68110,3.125,-3.25,2.8125,0
68130,2.5625,-3.5,1.875,0
68150,3.5,-5.1875,2.3125,0
68170,4.125,-5.9375,2.4375,0
68190,1.3125,-5.0625,2.5,0
68210,2.1875,-3.9375,1.8125,0
68230,3.5625,-5.25,0.0625,0
68250,3.625,-4,0.5625,0
68270,2.9375,-6.4375,0.1875,0
68290,2.0625,-6.125,0.625,0
68310,3.1875,-5.625,-0.625,0
68330,3.5625,-4.5,-0.625,0
68350,2.625,-4.1875,0.4375,0
68370,1.5625,-5.875,0.6875,0
68390,2.375,-6.5625,0.75,0
68410,2.4375,-6.3125,-0.875,0
68430,0.9375,-4.9375,-1.8125,0
68450,1.3125,-5.625,-1,0
68470,0.75,-5.75,-2,0
68490,2.75,-6.3125,-2.6875,0
68510,1.625,-5.8125,-1.75,0
68530,1.3125,-5.375,-1.9375,0
68550,2.0625,-4.8125,-3.75,0
68570,0.5625,-5.3125,-3.625,0
68590,1.4375,-5.6875,-6.375,0
68610,2.125,-6.6875,-6.6875,0
68630,5.25,-5.6875,-7.1875,0
68650,2.25,-3.9375,-8.4375,0
68670,2.875,-3.3125,-9.9375,0
68690,4,-3.3125,-11.5,0
68710,5.8125,-2,-11.5625,0
68720,2,-1.5,-13.875,0
68740,0.875,-2.875,-12.3125,0
68760,1.6875,-3.5,-10.625,0
68780,1.125,-2.4375,-11.75,0
68800,0,-2.3125,-12.75,0
68820,0.5,-2.5625,-12.5625,0
68840,0.125,-1.8125,-14.375,0
68860,-1.0625,-2.4375,-15.25,0
68880,-1.125,-4.5,-16.0625,0
68900,-3.75,-4.5625,-16.8125,0
68920,-3.25,-4.3125,-17.6875,0
68940,-2.8125,-5,-18.0625,0
68960,-3.6875,-5.625,-18.5625,0
68980,-3.625,-6.8125,-19.0625,0
69000,-3.5,-7.4375,-20.5,0
69020,-4.3125,-8.625,-22.125,0
69040,-4.5625,-9.125,-24.3125,0
69060,-4.9375,-8.375,-24.6875,0
69080,-4.9375,-7.3125,-25.1875,0
69100,-5.0625,-7.1875,-24.375,0
69120,-5.375,-5.9375,-24.875,0
69140,-5.8125,-3.9375,-24.9375,0
69160,-5,-2.625,-24.125,0
69180,-4.5625,-1.5,-24.125,0
69200,-4.3125,0.25,-24.5,0
69220,-3.75,1.0625,-25.75,0
69240,-4.75,2.3125,-26.5625,0
69260,-4.25,3.375,-26.5625,0
69280,-4.375,4.375,-26.8125,0
69300,-4.4375,5.3125,-27.0625,0
69320,-4.3125,7.3125,-28.375,0
69340,-5.4375,10,-29.5625,0
69360,-5.5625,12.75,-29.8125,0
69380,-4.8125,14.375,-29.4375,0
69400,-6.4375,15.625,-28.875,0
69420,-6.625,15.6875,-28.375,0
69440,-5.3125,15.75,-28.8125,0
69460,-6.25,17.75,-29.0625,0
69480,-7.75,20.25,-30.1875,0
69500,-6.4375,21,-30.5625,0
69520,-5,20.5625,-31.1875,0
69540,-6.125,20.875,-31.625,0
69560,-6.9375,21.375,-32.375,0
69580,-5.8125,23.25,-33.125,0
69600,-4.6875,24.75,-33.1875,0
69620,-5.375,24.3125,-31.9375,0
69640,-4.875,23.375,-31.875,0
69660,-4.5625,23.6875,-33.25,0
69680,-4.4375,25.1875,-33.6875,0
69700,-3.875,24.8125,-33.5625,0
69720,-4.5625,24.5625,-32.6875,0
69740,-4.5625,23.8125,-32.0625,0
69760,-3.6875,24.5,-34,0
69780,-2.9375,24.9375,-35.8125,0
69800,-3.6875,25.375,-35.375,0
69820,-5.0625,25.875,-34.25,0
69840,-4,25.625,-34.1875,0
69860,-3.375,26.1875,-33.875,0
69880,-4.75,27.875,-32.8125,0
69900,-5.0625,27.875,-31.75,0
69920,-4.375,26.375,-32.1875,0
69940,-3.8125,26.875,-33.375,0
69960,-2.75,28.1875,-32.4375,0
69980,-3.125,29.625,-29.875,0
70000,-1.4375,28.75,-27.3125,0
70020,-1.5625,29.375,-27.4375,0
70040,-4.25,31.3125,-26.9375,0
70060,-5.25,32.4375,-25.125,0
70080,-6.0625,30.75,-20.875,0
70100,-3.25,27.625,-18.25,0
70120,-3.875,27.6875,-16.8125,0
70140,-5.75,28.8125,-14.6875,0
70160,-3.625,26.6875,-12,0
70180,-1.6875,23.3125,-9,0
70200,-0.25,19.875,-7.9375,0
70220,-0.375,20.8125,-9,0
70240,0.5,18.25,-8.875,0
70260,6.5,16.4375,-8,0
70280,8.9375,12.4375,-5.625,0
70300,7.6875,10.75,-6.25,0
70320,5.25,11.9375,-9.3125,0
70340,7.375,12.1875,-13.5625,0
70360,5.3125,10.8125,-10.75,0
70380,0.375,9.3125,-3.75,0
70400,2.875,6.9375,-4.5,0
70420,-1.125,7.3125,-7.1875,0
70440,-1.1875,6,-8.375,0
70460,-11.75,8.5,-2.5625,0
70480,-7.3125,6.25,-2.1875,0
70500,-5.6875,6,-1.125,0
70520,0.0625,4.8125,-1.375,0
70540,3.875,3.5,-0.125,0
70560,-7.0625,3.875,3.0625,0
70580,-3.625,5.0625,1.3125,0
70600,-3.75,8.5,-2.8125,0
70620,0.375,6.5625,-1.1875,0
70640,-2.0625,5.3125,4.5625,0
70660,-5,6.4375,4.875,0
70680,0.875,6.3125,4.25,0
70700,0.6875,4.625,4.375,0
70720,2.4375,2.5,5.1875,0
70740,-3.375,2.1875,8.125,0
70760,-4.5625,2.5625,6.3125,0
70780,-0.3125,2.4375,5.1875,0
70800,1.875,1.4375,4.75,0
70820,0.8125,-0.1875,6.9375,0
70840,-4.375,1.6875,6.875,0
70860,-2.75,3.1875,6.3125,0
70880,-0.625,2.5,9.75,0
70900,-2.125,1.4375,12.6875,0
70920,-6.0625,3.25,13.3125,0
70940,-5.875,3.375,12.1875,0
70960,-3.6875,2.75,13.3125,0
70980,0.9375,1.375,14.25,0
71000,-0.3125,0.8125,17.0625,0
71020,-4.375,0.8125,17.8125,0
71040,3.625,0.3125,16.375,0
71060,6.8125,-0.3125,16.625,0
71080,7.0625,-2.4375,18.875,0
71100,4.6875,-2.375,20.125,0
71120,1.3125,-2.5625,19.0625,0
71140,6.5,-3.75,18,0
71160,6.6875,-3.625,19.375,0
71180,5.375,-2.9375,20.8125,0
71200,5.5,-3.875,21.6875,0
71220,2.8125,-3.5,22.125,0
71240,4.375,-3.75,20.375,0
71260,4.6875,-4.0625,21.5625,0
71280,4.5,-4.3125,22.375,0
71300,3,-4.8125,22.9375,0
71320,4.3125,-6.3125,23.75,0
71340,7.375,-6.875,21.5625,0
71360,5,-6.0625,19.4375,0
71380,5.5,-8.8125,20.875,0
71400,4.8125,-9.625,22.875,0
71420,2.875,-8.8125,19.5,0
71440,5.875,-9.25,16.3125,0
71460,3.625,-10.4375,18.25,0
71480,4.5,-11.8125,22.1875,0
71500,4.1875,-11.1875,22.875,0
71520,4.25,-10.6875,21.125,0
71540,2.875,-9.9375,21.0625,0
71560,2.75,-10.875,25.4375,0
71580,1.8125,-12.25,27.4375,0
71600,3.6875,-11.8125,24.1875,0
71620,4.4375,-11.8125,24.625,0
71640,3.25,-12.375,27.5625,0
71660,4.75,-13.0625,27.625,0
71680,8.75,-13.25,25.75,0
71700,8.875,-12.4375,24.875,0
71720,9.5625,-13.625,26.3125,0
71740,9.1875,-13.1875,28.6875,0
71760,8.8125,-13,28.125,0
71780,8.75,-12.4375,25.4375,0
71800,8.8125,-11.8125,25.625,0
71820,5,-12.75,29.0625,0
71840,3.875,-12.9375,28.1875,0
71860,5.125,-11.6875,25.25,0
71880,2.4375,-11.4375,26.8125,0
71900,1.3125,-12.6875,26.875,0
71920,-0.0625,-12.125,26.5625,0
71940,1.1875,-11.6875,26,0
71960,0.375,-12.375,25.75,0
71980,-1.25,-13.125,24.9375,0
72000,-2.875,-13.6875,24.5625,0
72010,-2.375,-13.0625,22.3125,0
72030,-4.4375,-13.0625,21.9375,0
72050,-5,-13.0625,22.5,0
72070,-6.0625,-12.75,23.0625,0
72090,-8.5625,-12.625,20.875,0
72110,-8.4375,-12.3125,19.5625,0
72130,-7,-12.375,20.375,0
72150,-4.875,-12.25,19.0625,0
72170,-9.5,-12.1875,20.3125,0
72190,-11.0625,-12.5625,20.25,0
72210,-7,-12.5,18.875,0
72230,-8.0625,-12.3125,18.9375,0
72250,-8.75,-13,19.1875,0
72270,-9.9375,-13.125,19.3125,0
72290,-7.75,-14.0625,17.3125,0
72310,-7.0625,-14.5625,17.125,0
72330,-10.375,-15.1875,18.875,0
72350,-9.375,-16.1875,18.0625,0
72370,-5.625,-16.375,14.3125,0
72390,-6.75,-17,13.375,0
72410,-11.5625,-17.8125,14.625,0
72430,-11.5625,-18.3125,14.8125,0
72450,-7.1875,-18.75,13.6875,0
72470,-8.875,-19.6875,12.5,0
72490,-10.625,-20.6875,11.9375,0
72510,-11.4375,-21.0625,11.6875,0
72530,-10.1875,-20.25,10.9375,0
72550,-12.25,-20.6875,10.5625,0
72570,-13.1875,-21.25,9.1875,0
72590,-12,-21.1875,6,0
72610,-11.25,-21,5.125,0
72630,-15.25,-22.25,6.625,0
72650,-15.5625,-23.3125,6.125,0
72670,-13.25,-23.5,3.25,0
72690,-15.1875,-24.1875,0.25,0
72710,-14.8125,-25.125,0.625,0
72730,-15.3125,-25,1.125,0
72750,-15,-25.8125,-1.375,0
72770,-14.4375,-26.375,-3.25,0
72790,-13.1875,-26.875,-3.375,0
72810,-16.125,-26.3125,-4.0625,0
72830,-12.5,-27.8125,-4.3125,0
72850,-10.0625,-27.5,-6.9375,0
72870,-8.3125,-27.9375,-7.75,0
72890,-15.0625,-27,-7.75,0
72910,-12.9375,-26.3125,-7.6875,0
72930,-8.625,-28.0625,-9.8125,0
72950,-10.1875,-27.75,-10.9375,0
72970,-12.3125,-25.75,-11.75,0
72990,-9.625,-23.8125,-10.5625,0
73010,-10.5625,-23.125,-9.625,0
73030,-8.3125,-22.625,-11,0
73050,-8.3125,-22.25,-10.3125,0
73070,-8.875,-20.9375,-8.3125,0
73090,-8.5,-19.75,-7.8125,0
73110,-5.1875,-19.4375,-8.875,0
73130,-3.25,-19.875,-9,0
73150,-8.875,-18.5625,-9.25,0
73170,-5.125,-17.1875,-10.125,0
73190,-1.8125,-17.4375,-9.25,0
73210,-1.5625,-18,-9.75,0
73230,-5.0625,-16.4375,-10.4375,0
73250,-2,-14.5625,-11.625,0
73270,-0.0625,-14.5625,-9.8125,0
73290,-6.75,-13.75,-8.75,0
73310,-4.375,-15.625,-13.125,0
73330,-4.1875,-15,-16.6875,0
73350,-3.375,-14.8125,-17.125,0
73370,-8.0625,-12.75,-18.125,0
73390,-4.125,-12.5,-17.5625,0
73410,-0.6875,-12.4375,-17.9375,0
73430,-5.125,-10.375,-22.75,0
73450,-4.8125,-9.75,-23.375,0
73470,-5.375,-8.1875,-23,0
73490,-1.4375,-8.4375,-26.6875,0
73510,-4.1875,-7.5625,-28.125,0
73530,-4.875,-6.8125,-29.625,0
73550,-5.625,-5.875,-31.1875,0
73570,-3.3125,-7.6875,-31.9375,0
73590,-7.0625,-6.4375,-33.25,0
73610,-6.625,-3.75,-34.125,0
73630,-6,-0.5625,-33.8125,0
73650,-7.4375,0.25,-35,0
73670,-7.25,0.6875,-36.9375,0
73690,-7.375,1.3125,-36.875,0
73710,-6.875,4.4375,-37.625,0
73730,-9.625,7.3125,-39.6875,0
73750,-7.625,6.9375,-38.875,0
73770,-5.5,7.5,-39.5,0
73790,-7.1875,8.25,-41.1875,0
73810,-9.25,9.6875,-41.375,0
73830,-7.8125,12.0625,-41.5,0
73850,-6.6875,14.75,-41.5625,0
73870,-5.875,14.25,-40,0
73890,-3.4375,13.1875,-39.5,0
73900,-3.3125,14.0625,-40.6875,0
73920,-2.5,16.5,-44.875,0
73940,-1.3125,16.5625,-44.8125,0
73960,-2.75,16.3125,-42.0625,0
73980,-2.25,16.5625,-40.4375,0
74000,1.125,16.3125,-42.125,0
74020,1.9375,16.75,-42.9375,0
74040,-0.0625,18.125,-41.9375,0
74060,2.25,16.9375,-38.9375,0
74080,2.8125,16.375,-39.5625,0
74100,4.3125,16.1875,-42.125,0
74120,4.625,15.75,-41.25,0
74140,4.6875,15.375,-40.6875,0
74160,3.75,14.9375,-40.25,0
74180,4.9375,16.4375,-40.75,0
74200,3.625,18.875,-40.125,0
74220,2.375,20.8125,-37.875,0
74240,2.25,21.5,-35.4375,0
74260,1.125,21.5625,-33.125,0
74280,0.5,22.25,-32.5,0
74300,0.1875,23.625,-32.625,0
74320,-1.5625,23.9375,-28.75,0
74340,0.5,22.8125,-27.375,0
74360,-2.125,25.4375,-25.25,0
74380,-2.125,29.3125,-25.1875,0
74400,-3.3125,31.5,-21,0
74420,-4.0625,32.5,-18.75,0
74440,-6.125,35.125,-16.5,0
74460,-2.9375,36.8125,-17.875,0
74480,3.9375,36.5625,-17.5,0
74500,2.8125,34.6875,-14.9375,0
74520,-1.625,36.0625,-11.1875,0
74540,-1.9375,35.8125,-6.4375,0
74560,-1.625,33.9375,-5.25,0
74580,2.6875,30.1875,-1.5,0
74600,0.375,32.125,1.375,0
74620,-6.4375,32,4.3125,0
74640,-8.125,32.625,4.375,0
74660,0.375,30.25,9.0625,0
74680,-4.375,31.375,13.1875,0
74700,-15.9375,33.875,15.125,0
74720,-9.375,30.625,16.0625,0
74740,2.375,23.875,18.625,0
74760,-3.4375,21.5,20.5,0
74780,-8.9375,20.4375,20.375,0
74800,-7.875,15.6875,20.75,0
74820,-7.125,13.8125,18.625,0
74840,2.0625,14.625,19.125,0
74860,-1.625,18.3125,21.4375,0
74880,-9.8125,19.875,27.4375,0
74900,-2.3125,16.3125,28.5,0
74920,0.5625,18.375,27.375,0
74940,-2.8125,20.5625,24,0
74960,-17.9375,20.125,25.25,0
74980,-4.125,16.3125,24.1875,0
75000,7.5625,14.375,25.375,0
75020,4.625,14.9375,26.1875,0
75040,1.8125,12,27.0625,0
75060,-5,9.4375,28.1875,0
75080,1.125,8.5,28.4375,0
75100,-0.6875,9.375,26.75,0
75120,1.75,6.4375,30.125,0
75140,1.375,5.125,31.5625,0
75160,3,4.125,31.375,0
75180,4.3125,3.5,30.8125,0
75200,2.75,3.375,31.1875,0
75220,1,2.8125,33.4375,0
75240,2.3125,2,34.25,0
75260,1.1875,1.8125,34.5,0
75280,4.1875,1.4375,32.6875,0
75300,3.3125,1.5,33.75,0
75320,3.25,0.5,36.5,0
75340,-3.4375,-0.5625,36.25,0
75360,-5.75,0.0625,33.6875,0
75380,-1.375,0.5,32.375,0
75400,0.1875,-1.8125,35.375,0
75420,-5.9375,-3.4375,36.1875,0
75440,-8.4375,-5.3125,34.375,0
75460,-6.5625,-6.375,31.5,0
75480,-3.875,-8.6875,31.75,0
75500,-6.4375,-10.5625,33.1875,0
75520,-14.25,-13.0625,33.625,0
75540,-14.75,-15.6875,32.9375,0
75560,-11.5625,-17.3125,31.5,0
75580,-11.0625,-18.5,31.6875,0
75600,-17.1875,-18.9375,31.5625,0
75620,-19.1875,-20.5,30.8125,0
75640,-13,-21.1875,29.3125,0
75660,-8.4375,-21.5625,28.6875,0
75680,-14.4375,-21.875,28.375,0
75700,-20.125,-22.9375,26.5625,0
75720,-12.5625,-23.3125,24.375,0
75740,-11.875,-22.625,23.625,0
75760,-14.5625,-23.125,23.3125,0
75780,-19.0625,-24.0625,23.4375,0
75800,-17.375,-23.4375,20,0
75820,-13.6875,-23.3125,17.4375,0
75840,-11.6875,-24.25,16.8125,0
75860,-15.6875,-25.0625,16.6875,0
75880,-14.0625,-24.625,14.625,0
75900,-11.4375,-24,13.375,0
75920,-12.625,-25.1875,12.4375,0
75940,-14.9375,-26.3125,11.75,0
75960,-15.9375,-26.8125,10.3125,0
75980,-14.1875,-27.4375,7.75,0
76000,-15.8125,-29.3125,6.75,0
76020,-16.125,-29.6875,5.0625,0
76040,-16.5625,-30.6875,4.1875,0
76060,-14.9375,-32.375,2.5,0
76080,-11.9375,-33.75,1.3125,0
76100,-13.9375,-33,0.25,0
76120,-16.125,-32.6875,-0.875,0
76140,-14.1875,-35,-1.4375,0
76160,-6.8125,-35.8125,-3.375,0
76180,-9.8125,-35.3125,-4.4375,0
76200,-10.9375,-35.125,-5.4375,0
76220,-9.375,-36.375,-5.4375,0
76240,-7.3125,-37.625,-6.5,0
76260,-5.8125,-38.125,-8.625,0
76280,-8.8125,-36.4375,-10.5,0
76300,-8.5,-36.6875,-9.5,0
76320,-4.5625,-38.0625,-10.0625,0
76340,-5,-39.625,-10.5625,0
76360,-6.125,-39.3125,-10.875,0
76380,-5.3125,-37.5625,-12.25,0
76400,-5,-37.5,-13.0625,0
76420,0.0625,-38.25,-13.4375,0
76440,-1.875,-36.8125,-13,0
76460,-1.1875,-35.75,-15.1875,0
76480,-3.5625,-35.3125,-13.375,0
76500,-3.875,-34.6875,-14.25,0
76520,3.5625,-35.375,-15.25,0
76540,-1.0625,-34.25,-13.6875,0
76560,-2.0625,-33.5,-14.25,0
76580,-4.125,-32.1875,-17,0
76600,2.3125,-31.0625,-17.9375,0
76620,2.6875,-30.3125,-19.625,0
76640,0.25,-29.6875,-20.6875,0
76660,3,-28.6875,-22.0625,0
76680,3.375,-27.3125,-25.5,0
76700,6.1875,-25.625,-28.125,0
76720,2,-23.1875,-28.5,0
76740,-0.625,-20.3125,-25.375,0
76760,1,-18.8125,-29.5,0
76780,6.5625,-15.3125,-33.6875,0
76800,0,-11.6875,-34.5,0
76820,-3.8125,-11.0625,-33.9375,0
76840,-4.1875,-7.5,-33.3125,0
76860,-2.625,-4.25,-36.9375,0
76880,-2.4375,-2.1875,-38.9375,0
76900,-6.25,-0.4375,-34.125,0
76920,-5.5,2.25,-39.0625,0
76940,-6.0625,4.5625,-41.625,0
76960,-1.3125,5.375,-40.8125,0
76980,-5.5625,6.75,-42.4375,0
77000,-7.9375,10.25,-42.625,0
77020,-4.3125,11.9375,-45.8125,0
77040,-3.3125,13.5625,-46.625,0
77060,-5.25,14.625,-44.3125,0
77080,-8.1875,16.75,-45.375,0
77100,-6,18.1875,-45.9375,0
77120,-5.4375,19.875,-48.25,0
77140,-4.1875,20.1875,-46.3125,0
77160,-7.375,20.125,-43.875,0
77180,-5.75,20.8125,-42.8125,0
77200,-4.5625,22.1875,-46.6875,0
77210,-4.375,22.75,-46.3125,0
77230,-6.125,22.875,-42.0625,0
77250,-6.375,23.3125,-40.0625,0
77270,-8.25,25.5625,-38.375,0
77290,-6.25,27.1875,-38.125,0
77310,-4.9375,29.375,-35.9375,0
77330,-8.3125,30.6875,-30.9375,0
77350,-6.9375,30.375,-27.0625,0
77370,-3.375,30.3125,-26,0
77390,0.3125,30.375,-26.8125,0
77410,1.125,31.875,-26.4375,0
77430,-8.3125,33.1875,-21.875,0
77450,-7.1875,33.4375,-22.0625,0
77470,-1.5625,31.1875,-21.5,0
77490,-0.75,30.5625,-19.5625,0
77510,-12.25,29.6875,-18.5,0
77530,-12.8125,28.4375,-16.625,0
77550,-4.5625,27.5,-13.8125,0
77570,-3.625,28.4375,-11.875,0
77590,-8.4375,30.875,-8.5625,0
77610,-14.3125,31.375,-5,0
77630,-4.75,27.5625,-2.375,0
77650,-4.1875,28.1875,-2.8125,0
77670,-7,28.75,0.375,0
77690,-14.5625,26.875,5.4375,0
77710,-8.4375,27.25,6.5625,0
77730,-6.9375,29.4375,4.8125,0
77750,-6.1875,28.4375,6.0625,0
77770,-12.0625,28.625,10.0625,0
77790,-7.375,27.6875,9.3125,0
77810,-6.75,30.1875,6.8125,0
77830,-1.625,30.125,8.4375,0
77850,-5.75,28.75,13.6875,0
77870,-6.125,28.1875,13.6875,0
77890,-4.875,30.4375,11.5,0
77910,-6.9375,30.375,11.5625,0
77930,-6.8125,27.8125,16,0
77950,-9.375,27.3125,17.0625,0
77970,-9.375,28.1875,15.6875,0
77990,-17.75,28.1875,15.9375,0
78010,-15.875,24.625,18.4375,0
78030,-13.75,22.5,19.9375,0
78050,-13.625,23.9375,21.5,0
78070,-21.5625,23.875,21.4375,0
78090,-14.5625,19.0625,23.3125,0
78110,-14.375,17.25,26.25,0
78130,-11.3125,17.875,26.25,0
78150,-16.4375,19.4375,24.875,0
78170,-13.625,18.375,23.9375,0
78190,-12.0625,15.875,26.8125,0
78210,-8.5625,15.25,27.875,0
78230,-9.6875,14.5625,28.1875,0
78250,-9.875,14.5625,28.125,0
78270,-11.375,13.1875,26.1875,0
78290,-12.3125,12.25,26.75,0
78310,-11.6875,10.4375,28.75,0
78330,-8.4375,8.5,29.5,0
78350,-13.375,8.5,28.3125,0
78370,-14.5625,6.875,29,0
78390,-11.6875,4.6875,31.375,0
78410,-8.375,5.4375,32.0625,0
78430,-12.6875,5.5625,32.8125,0
78450,-14.0625,4.25,29.5,0
78470,-15,1.625,30.5,0
78490,-11.875,-0.0625,31.4375,0
78510,-9.25,0.9375,28.1875,0
78530,-12.25,-0.25,28.0625,0
78550,-14.6875,-2.1875,27.625,0
78570,-12.25,-2.9375,27.625,0
78590,-10.9375,-3.0625,25.375,0
78610,-11.5,-3.875,24.375,0
78630,-15.4375,-3.5625,23.125,0
78650,-16.9375,-5.5625,22.8125,0
78670,-14.375,-7.8125,22.625,0
78690,-13.0625,-6.6875,21.25,0
78710,-16.4375,-7.0625,19.1875,0
78730,-17.5,-9.125,18.125,0
78750,-14.375,-10.75,17.75,0
78770,-12.625,-10.5625,17.0625,0
78790,-14.6875,-9.5625,15.8125,0
78810,-18,-11,16.25,0
78830,-13.9375,-11.75,15.75,0
78850,-9.6875,-10.8125,15.1875,0
78870,-10.6875,-10.25,15.625,0
78890,-14.3125,-12.25,14.1875,0
78910,-11.5625,-12.25,14.375,0
78930,-12.125,-12.4375,15.0625,0
78950,-14.25,-12.375,15.1875,0
78970,-16.375,-12.75,14.0625,0
78990,-18.0625,-13.5625,14.125,0
79010,-19.0625,-14.8125,14.25,0
79030,-20.75,-14.625,14.9375,0
79050,-21.5,-13.3125,12.8125,0
79070,-19.75,-13.875,12.1875,0
79090,-18.25,-14.8125,10,0
79110,-20.25,-14.9375,11.75,0
79120,-21.8125,-15.75,11.625,0
79140,-20.625,-17.5,9.1875,0
79160,-17.8125,-18.25,7.125,0
79180,-17.4375,-18.25,8.4375,0
79200,-18.75,-18.0625,8.3125,0
79220,-16.5,-18.8125,6.75,0
79240,-12.8125,-19.375,4.6875,0
79260,-13,-19.875,3.625,0
79280,-14.6875,-20.4375,3.5625,0
79300,-14.375,-22.625,3.5625,0
79320,-12,-24,2.375,0
79340,-13.5,-24.5,1.625,0
79360,-15.9375,-25.6875,1.4375,0
79380,-13.3125,-26.5,1.1875,0
79400,-9.8125,-25.0625,-0.4375,0
79420,-8.4375,-25.6875,-1.5625,0
79440,-10.375,-26.4375,-1.875,0
79460,-10.3125,-27.875,-1.5,0
79480,-9.75,-27.875,-4.6875,0
79500,-9.875,-27.5625,-5.625,0
79520,-12.8125,-29.3125,-5.5625,0
79540,-10.8125,-30.6875,-6.3125,0
79560,-8.6875,-30.4375,-6.8125,0
79580,-7.9375,-29.625,-7.8125,0
79600,-6.9375,-29.9375,-8.625,0
79620,-6.875,-29.8125,-7.5,0
79640,-4.5625,-29.625,-8.25,0
79660,-5.625,-28.1875,-9.1875,0
79680,-6.375,-27.5625,-9.25,0
79700,-5.1875,-27.625,-8.875,0
79720,-4.4375,-27.5625,-8.0625,0
79740,-7.5625,-27,-9.375,0
79760,-6,-26.25,-10.1875,0
79780,-4.875,-26,-9.4375,0
79800,-3.625,-26.9375,-9.125,0
79820,-5.875,-27.125,-8.9375,0
79840,-4.875,-26.125,-10.5,0
79860,-4.4375,-25,-11.625,0
79880,-8.625,-25,-11.125,0
79900,-1.875,-25.1875,-10.625,0
79920,-1,-23.5,-10.6875,0
79940,-1.0625,-23,-11.25,0
79960,-3.875,-23.1875,-12.75,0
79980,0.125,-23.3125,-13,0
80000,2,-22,-13.4375,0
80020,-0.1875,-21.8125,-14.125,0
80040,0.8125,-21.4375,-14.4375,0
80060,3.6875,-19.6875,-14.5,0
80080,3.5,-17.375,-16.1875,0
80100,1.8125,-16.625,-16.0625,0
80120,9.625,-16.1875,-16.125,0
80140,12.4375,-14.1875,-17.3125,0
80160,7.1875,-12.875,-19.0625,0
80180,5.3125,-11.6875,-20.25,0
80200,10.5,-10.4375,-20.1875,0
80220,12.4375,-9.9375,-20.4375,0
80240,7.0625,-9.5,-20.0625,0
80260,3.125,-7.5625,-20.5,0
80280,5.6875,-7.125,-19.125,0
80300,7.0625,-7.3125,-17.3125,0
80320,2.25,-7.625,-18.1875,0
80340,3.75,-7.25,-18,0
80360,2.5625,-6.375,-16.8125,0
80380,1.5,-6.3125,-15.4375,0
80400,3.4375,-6.0625,-14.5,0
80420,4.4375,-5.375,-14.75,0
80440,6.1875,-4.625,-15.1875,0
80460,4.3125,-3.875,-13.625,0
80480,2.9375,-3.6875,-13.0625,0
80500,3.125,-4,-11.9375,2001
80520,4.3125,-3.6875,-12.625,0
80540,3.125,-3.0625,-11.375,0
80560,-1,-3.25,-9.3125,0
80580,-1.375,-4.4375,-6.5,0
80600,-1.375,-3.875,-5.375,0
80620,-1.875,-3.6875,-4.625,0
80640,-1.625,-4.1875,-2,0
80660,-4.4375,-3.0625,-1.5,0
80680,-4.1875,-3.4375,0.375,0
80700,-4.125,-1.875,-0.375,0
80720,-2.375,0.8125,-1.375,0
80740,-2.25,2,0.625,0
80760,-4.3125,0.375,2.25,0
80780,-0.6875,-0.4375,2.1875,0
80800,-2.8125,0.5,1.75,0
80820,-3.8125,0.1875,0.4375,0
80840,-1.125,0.8125,-0.4375,0
80860,1.375,0.3125,-1.625,0
80880,-0.75,1,0.3125,0
80900,-0.125,1,1,0
80920,2.25,0.875,0.25,0
80940,1.5,1.5625,-1,0
80960,3.25,3.875,-3.5625,0
80980,6.375,5.6875,-5.125,0
81000,8.125,6.125,-4.875,0
81020,10,7.9375,-5.75,0
81040,10.625,10.25,-6.1875,0
81060,10.5625,15.75,-4.0625,0
81080,7.75,25.75,0.25,0
81100,10.4375,37.5,5.9375,0
81120,20.25,46.875,9.3125,0
81140,29.25,55.0625,13.625,0
81160,25.5625,61.5625,18.4375,0
81180,19.9375,68.5625,21.5625,0
81200,30.8125,72.875,19.5625,0
81220,36.9375,79.625,24.625,0
81240,23.9375,83.875,35.8125,0
81260,16.5625,89.875,47.1875,0
81280,17.625,98,54,0
81300,27.1875,114,53.0625,0
81320,35.0625,117.312,57,0
81340,30.375,115.312,66.0625,0
81360,43,123.125,67,0
81380,47,124.25,67.3125,0
81400,40.375,119.312,60.5625,0
81420,48.4375,117.062,70.4375,0
81440,65.5625,116.562,78.625,0
81460,59.375,115.75,71.4375,0
81480,46.75,117.438,56.5,0
81500,43.125,117.375,55.5625,0
81520,39.375,109.875,73.9375,0
81540,21.1875,96.0625,70.1875,0
81560,3.6875,80.875,70.3125,0
81580,-5.375,62.25,69,0
81600,-5.5,39.5,59.5625,0
81620,-6.9375,14.3125,48.625,0
81640,-11.375,-9.5625,38.0625,0
81660,-13.1875,-29.875,28.6875,0
81680,-13.375,-47.1875,21.9375,0
81700,-14.9375,-59.75,18.1875,0
81720,-19.5,-66.9375,15.0625,0
81740,-18,-70.625,12.8125,0
81760,-16.4375,-69.5,9.375,0
81780,-16.3125,-64.5625,6.125,0
81800,-13.875,-61.6875,7.6875,0
81820,-14.1875,-53.1875,5.5625,0
81840,-12.6875,-42.8125,-1.0625,0
81860,-12.75,-36.8125,-3.6875,0
81880,-12.5625,-32.125,-4.875,0
81900,-10.625,-26.25,-5.0625,0
81920,-8.5625,-21.75,-3.75,0
81940,-8.0625,-17.0625,-3.9375,0
81960,-6.625,-12.375,-2.6875,0
81980,-5.75,-8.4375,-2.75,0
82000,-3.75,-5.8125,-1.4375,0
82020,-1.3125,-4,0.0625,0
82040,-2.875,-3.625,1.625,0
82060,-6.25,-3.375,0.625,0
82080,-4.3125,-2.625,0.1875,0
82100,-0.8125,-2.1875,3.875,0
82120,-2.25,-1.8125,6.8125,0
82140,-3,-1.375,7,0
82160,-1.4375,0,7.1875,0
82180,1.75,1.9375,5.25,0
82200,-2,2.5625,4.5625,0
82220,-3.5,0.6875,5,0
82240,0.75,-0.875,5.625,0
82260,3.625,-1.125,3.8125,0
82280,3.125,-3.125,2.8125,2000
82300,-0.0625,-4.5,1.5,0
82320,0.5,-4.6875,-0.4375,0
82340,-0.6875,-4.375,-1.75,0
82360,-3.3125,-4.9375,-0.75,0
82380,-2.75,-5.9375,0.1875,0
82400,-0.5,-6.5625,-0.1875,0
82410,-1.875,-5,-1.1875,0
82430,-1.625,-4.4375,-1.9375,0
82450,-3.3125,-2.875,0.125,0
82470,-2.1875,-0.4375,-0.375,0
82490,0.9375,0.4375,0.1875,0
82510,-0.375,-0.125,1.75,0
82530,-1.3125,0.0625,2.125,0
82550,0.6875,2.1875,1.4375,0
82570,0.9375,4.875,1.3125,0
82590,-1.0625,5,-0.4375,0
82610,-0.5,2.6875,0.375,0
82630,2.6875,1.1875,1.9375,0
82650,0.625,1.8125,0.4375,0
82670,-1.625,0.75,0,0
82690,-0.125,-0.8125,-0.3125,0
82710,0.0625,-1.625,0.8125,0
82730,-1.6875,-2.375,0.375,0
82750,-3.875,-4.375,1.0625,0
82770,0.1875,-5.4375,-0.1875,0
82790,0.25,-3.375,-2.9375,0
82810,-0.375,-3.5625,-2.4375,0
82830,-1.6875,-4.3125,-2.3125,0
82850,1.75,-3.5625,-3.1875,0
82870,2.125,-1.8125,-2.625,0
82890,-2.5,0.0625,-1.875,0
82910,-2.875,-0.4375,-1.75,0
82930,0,-1.5,-0.8125,0
82950,0.5,-1.0625,0.3125,0
82970,-4.375,-0.75,0.75,0
82990,-4.0625,-2.3125,0.0625,0
83010,-1.5625,-2.125,0.1875,0
83030,-2.375,-3.25,-1.9375,0
83050,-2.75,-5.625,-1.3125,0
83070,-2.625,-7.9375,-0.5,0
83090,-1.4375,-9.0625,0.5,0
83110,-1.5625,-9.0625,0.0625,0
83130,-1.75,-9.6875,0.875,0
83150,0.75,-10.0625,-0.3125,0
83170,0.1875,-10,-0.625,0
83190,0.625,-10.6875,2.1875,0
83210,0.625,-11.0625,2.125,0
83230,2.125,-12.125,1.5,0
83250,2.1875,-11.375,2.1875,0
83270,2.5,-11.4375,3.125,0
83290,3.3125,-10.8125,3.25,0
83310,3.625,-10.4375,1.5,0
83330,3.1875,-9.75,1.5625,0
83350,3.875,-10.5,2.6875,0
83370,5.125,-10.375,4.125,0
83390,4.9375,-10.625,3.5,0
83410,5.25,-9.0625,1.25,0
83430,6.5625,-8.75,0.0625,0
83450,5.5625,-9.25,-0.125,0
83470,4.75,-10.8125,0.0625,0
83490,6.3125,-12.9375,0.125,0
83510,7.8125,-13.1875,-2.125,0
83530,5.8125,-11,-3.5,0
83550,3.3125,-10.5625,-2.4375,0
83570,3.3125,-12,-1,0
83590,1.9375,-10.5625,-1.5,0
83610,1,-9.5,-4.8125,0
83630,0.4375,-8.6875,-5.6875,0
83650,1,-9.75,-5.875,0
83670,-0.0625,-10.375,-6.625,0
83690,-2.375,-9.4375,-7,0
83710,0.9375,-7.75,-8.25,0
83730,1.5,-7.875,-9.5625,0
83750,1.6875,-9.8125,-10.25,0
83770,0.5625,-9.4375,-11.8125,0
83790,0.1875,-7.0625,-12.375,0
83810,0.8125,-6.5,-12.1875,0
83830,0.75,-6.75,-12.25,0
83850,0.4375,-7.0625,-12.0625,0
83870,-0.125,-5.125,-13.8125,0
83890,-0.9375,-3.8125,-13.375,0
83910,-0.875,-3.4375,-14.1875,0
83930,-0.125,-2.4375,-13.5,0
83950,-0.9375,-1.125,-14.6875,0
83970,-1.125,0.5,-15.9375,0
83990,-0.4375,1.125,-16.8125,0
84010,-0.125,1.5,-17.125,0
84030,1.375,0.8125,-18.8125,0
84050,1.0625,1.625,-21.3125,0
84070,-1.1875,3.375,-24,0
84090,-3.3125,5.75,-25.8125,0
84110,-4.0625,8,-25.8125,0
84130,-2.25,6,-27.9375,0
84150,-0.875,6.375,-31.3125,0
84170,-2.5625,9.5625,-31.5,0
84190,-2.625,12.125,-32.625,0
84210,-3.875,11.4375,-33.9375,0
84230,-4.875,10.4375,-33.5625,0
84250,-5.375,10.75,-34.5,0
84270,-5.25,11.1875,-35.9375,0
