Timestamp, Angle x, Angle y, Angle z, Marker
10,-1.1211,0.398871,1.51256,0
50,-1.12195,0.398796,1.51276,0
70,-1.12305,0.399053,1.51266,0
90,-1.1242,0.399467,1.5125,0
110,-1.12516,0.399737,1.5121,0
130,-1.12627,0.399898,1.51184,0
130,-1.12741,0.400408,1.51184,0
160,-1.12741,0.400408,1.51184,0
180,-1.1273,0.400194,1.51168,0
200,-1.12658,0.399809,1.51132,0
220,-1.12526,0.399537,1.51089,0
240,-1.12382,0.399312,1.5108,0
260,-1.12294,0.399102,1.51096,0
280,-1.12237,0.398891,1.51131,0
300,-1.12157,0.398195,1.5122,0
320,-1.11995,0.396802,1.51287,0
340,-1.11704,0.395489,1.51339,0
360,-1.11376,0.394337,1.51388,0
380,-1.11075,0.393009,1.5141,0
400,-1.10789,0.391986,1.51425,0
410,-1.10452,0.391605,1.51459,0
430,-1.10174,0.391683,1.51516,0
450,-1.09987,0.391423,1.51606,0
470,-1.09934,0.390576,1.51668,0
490,-1.09881,0.390511,1.51742,0
510,-1.09866,0.390859,1.51833,0
530,-1.10007,0.393336,1.51907,0
560,-1.10353,0.396092,1.51564,0
580,-1.11295,0.401459,1.51093,0
600,-1.11493,0.402444,1.51338,0
620,-1.11771,0.404684,1.51397,0
640,-1.12142,0.407852,1.51285,0
660,-1.12597,0.4104,1.51178,0
680,-1.1317,0.413079,1.51043,0
700,-1.13882,0.415839,1.50918,0
720,-1.14655,0.418041,1.50804,0
740,-1.15521,0.419182,1.50672,0
760,-1.16283,0.420245,1.50497,0
780,-1.16802,0.421603,1.50359,0
800,-1.17263,0.423571,1.50162,0
820,-1.17761,0.425531,1.49936,0
840,-1.18171,0.426339,1.49705,0
860,-1.18468,0.426471,1.49503,0
880,-1.1869,0.426913,1.49302,0
900,-1.1907,0.428324,1.49117,0
920,-1.19571,0.429545,1.48952,0
940,-1.20091,0.429766,1.48832,0
960,-1.20594,0.430474,1.48767,0
980,-1.21083,0.43233,1.48733,0
1000,-1.2172,0.434469,1.48704,0
1020,-1.22543,0.436366,1.48707,0
1040,-1.23418,0.437797,1.4872,0
1060,-1.24143,0.438476,1.48777,0
1080,-1.24704,0.438831,1.48828,0
1100,-1.25101,0.440066,1.48859,0
1120,-1.25281,0.440891,1.48874,0
1140,-1.25308,0.44095,1.48839,0
1160,-1.25258,0.440842,1.48819,0
1180,-1.25063,0.440806,1.48866,0
1200,-1.24791,0.440748,1.48951,0
1220,-1.24494,0.440777,1.49045,0
1240,-1.2424,0.439993,1.49181,0
1260,-1.23915,0.438421,1.49327,0
1280,-1.23592,0.43667,1.49439,0
1300,-1.23299,0.435529,1.49528,0
1320,-1.23146,0.434832,1.49538,0
1340,-1.23034,0.434316,1.49512,0
1360,-1.22923,0.433775,1.49439,0
1380,-1.22714,0.433345,1.49382,0
1400,-1.22491,0.433416,1.49338,0
1420,-1.22348,0.433317,1.49324,0
1440,-1.22221,0.432887,1.49381,0
1460,-1.22075,0.432405,1.49437,0
1480,-1.21897,0.431966,1.49539,0
1500,-1.21662,0.431304,1.49627,0
1520,-1.21421,0.430384,1.49706,0
1540,-1.21222,0.429216,1.49723,0
1560,-1.20968,0.428294,1.49772,0
1580,-1.2069,0.427426,1.4983,0
1600,-1.20395,0.426355,1.49913,0
1620,-1.20028,0.424556,1.50052,0
1640,-1.19589,0.422881,1.50216,0
1660,-1.19114,0.42124,1.50408,0
1680,-1.18734,0.419862,1.50543,0
1700,-1.18435,0.418837,1.50667,0
1720,-1.18159,0.417691,1.50764,0
1740,-1.17855,0.416919,1.50874,0
1760,-1.17651,0.416807,1.50972,0
1780,-1.17557,0.415884,1.51093,0
1800,-1.17545,0.414837,1.51214,0
1820,-1.1772,0.415629,1.51186,0
1840,-1.18011,0.417169,1.51147,0
1860,-1.18426,0.41775,1.5108,0
1880,-1.1896,0.418874,1.50968,0
1900,-1.19452,0.419385,1.50847,0
1920,-1.19654,0.419,1.50701,0
1940,-1.19322,0.417698,1.50611,0
1960,-1.18866,0.416906,1.50504,0
1980,-1.18529,0.417375,1.50387,0
2000,-1.18208,0.418757,1.50229,0
2020,-1.17766,0.419653,1.50018,0
2040,-1.17205,0.420754,1.49791,0
2060,-1.16842,0.421955,1.4965,0
2080,-1.16721,0.422591,1.49611,0
2100,-1.16823,0.42198,1.49714,0
2120,-1.1715,0.421295,1.49879,0
2140,-1.1771,0.420798,1.50072,0
2160,-1.18343,0.419582,1.50223,0
2180,-1.18874,0.417795,1.50294,0
2200,-1.19338,0.416519,1.50277,0
2220,-1.19543,0.416367,1.50177,0
2240,-1.1955,0.417525,1.50018,0
2260,-1.19399,0.418595,1.49811,0
2280,-1.19172,0.419487,1.49655,0
2300,-1.18867,0.420444,1.49596,0
2320,-1.1843,0.421073,1.49593,0
2340,-1.18004,0.421016,1.49681,0
2360,-1.17727,0.421535,1.49848,0
2380,-1.17604,0.421581,1.50049,0
2400,-1.17584,0.420757,1.50297,0
2420,-1.17586,0.419083,1.5053,0
2440,-1.17579,0.416698,1.50702,0
2460,-1.17608,0.413912,1.50773,0
2470,-1.1759,0.411461,1.50756,0
2490,-1.17552,0.410227,1.50687,0
2510,-1.1757,0.410219,1.50576,0
2530,-1.17447,0.410134,1.505,0
2550,-1.17066,0.409816,1.50478,0
2570,-1.16505,0.410353,1.50489,0
2590,-1.15896,0.410915,1.50601,0
2610,-1.15474,0.411188,1.50806,0
2630,-1.15155,0.41131,1.51053,0
2650,-1.14952,0.41108,1.51276,0
2670,-1.1469,0.410636,1.51482,0
2690,-1.14452,0.409974,1.51643,0
2710,-1.14559,0.409331,1.51745,0
2730,-1.14853,0.408215,1.51752,0
2750,-1.15116,0.406928,1.51706,0
2770,-1.15319,0.406538,1.51611,0
2790,-1.15528,0.407001,1.51498,0
2810,-1.15709,0.407836,1.514,0
2830,-1.15802,0.408742,1.51327,0
2850,-1.15845,0.409829,1.51333,0
2870,-1.15802,0.410505,1.51373,0
2890,-1.15795,0.410542,1.51367,0
2910,-1.15783,0.410308,1.51445,0
2930,-1.15839,0.410022,1.51509,0
2950,-1.15864,0.409756,1.51559,0
2970,-1.15846,0.409559,1.5163,0
2990,-1.15785,0.409331,1.51706,0
3010,-1.15727,0.409123,1.51741,0
3030,-1.15692,0.409533,1.51748,0
3050,-1.15593,0.409863,1.51754,0
3070,-1.15487,0.409559,1.51769,0
3090,-1.15437,0.409186,1.51787,0
3110,-1.154,0.408328,1.51839,0
3130,-1.15275,0.407464,1.51851,0
3150,-1.15084,0.406592,1.51873,0
3170,-1.14874,0.405792,1.51863,0
3190,-1.14648,0.404907,1.51854,0
3210,-1.1441,0.404263,1.51866,0
3230,-1.14113,0.403822,1.51893,0
3250,-1.13789,0.403057,1.51944,0
3270,-1.13568,0.401802,1.5202,0
3290,-1.13441,0.400757,1.52087,0
3310,-1.13364,0.400085,1.52135,0
3330,-1.13219,0.399123,1.5223,0
3350,-1.12982,0.397812,1.52305,0
3370,-1.12787,0.396247,1.52366,0
3390,-1.12737,0.394796,1.52414,0
3410,-1.12574,0.39359,1.52468,0
3430,-1.12366,0.392513,1.52449,0
3450,-1.12135,0.391519,1.52393,0
3470,-1.12174,0.391329,1.52237,0
3470,-1.12146,0.392147,1.52091,0
3490,-1.11953,0.392591,1.51959,0
3510,-1.11545,0.391594,1.51916,0
3530,-1.11055,0.389169,1.52001,0
3570,-1.10708,0.386749,1.5215,0
3590,-1.10717,0.386455,1.5221,0
3590,-1.11023,0.387019,1.52298,0
3610,-1.11486,0.38724,1.52406,0
3630,-1.11806,0.388158,1.52594,0
3650,-1.12026,0.387068,1.52497,0
3680,-1.11772,0.383937,1.52652,0
3710,-1.12025,0.388405,1.52266,0
3730,-1.11475,0.388194,1.52582,0
3750,-1.11931,0.381218,1.5254,0
3770,-1.12773,0.374863,1.52173,0
3790,-1.13533,0.371341,1.5177,0
3810,-1.1407,0.368173,1.51409,0
3830,-1.14308,0.357806,1.51226,0
3850,-1.13947,0.337519,1.51453,0
3870,-1.13007,0.328587,1.51968,0
3890,-1.1282,0.331545,1.52437,0
3890,-1.12578,0.332869,1.52658,0
3910,-1.12409,0.333348,1.52822,0
3930,-1.12263,0.334874,1.53008,0
3950,-1.12119,0.337328,1.52815,0
3970,-1.12249,0.342647,1.52488,0
4010,-1.11984,0.339468,1.52817,0
4030,-1.12229,0.341627,1.5253,0
4050,-1.11879,0.351763,1.52476,0
4070,-1.11267,0.36272,1.52704,0
4090,-1.106,0.372307,1.53083,0
4090,-1.10143,0.383511,1.53424,0
4110,-1.10268,0.387539,1.53332,0
4130,-1.1029,0.38767,1.53408,0
4150,-1.10366,0.387229,1.53483,0
4150,-1.10358,0.387264,1.53524,0
4170,-1.10275,0.387197,1.53581,0
4190,-1.10221,0.387043,1.53633,0
4210,-1.10183,0.386782,1.53697,0
4210,-1.1015,0.386293,1.53775,0
4230,-1.1006,0.385782,1.53874,0
4250,-1.09976,0.385709,1.53978,0
4270,-1.09903,0.385471,1.54071,0
4280,-1.09839,0.385162,1.5417,0
4290,-1.09811,0.385048,1.54235,0
4310,-1.09855,0.385233,1.5427,0
4330,-1.09936,0.385552,1.54313,0
4350,-1.10032,0.385863,1.54338,0
4350,-1.10097,0.386415,1.54344,0
4370,-1.10162,0.386968,1.54349,0
4390,-1.10311,0.387431,1.5437,0
4410,-1.10484,0.388036,1.54373,0
4410,-1.10615,0.38864,1.5438,0
4430,-1.10704,0.389051,1.54358,0
4450,-1.10821,0.389731,1.54353,0
4470,-1.10953,0.390239,1.54343,0
4470,-1.11072,0.390726,1.54351,0
4490,-1.11172,0.390752,1.54372,0
4510,-1.11279,0.391121,1.5438,0
4530,-1.11372,0.391404,1.54388,0
4550,-1.11466,0.391591,1.54379,0
4550,-1.11553,0.391692,1.54387,0
4570,-1.11566,0.391714,1.5437,0
4590,-1.11649,0.391944,1.54396,0
4590,-1.11718,0.391991,1.54404,0
4610,-1.11809,0.392088,1.54419,0
4630,-1.11907,0.392243,1.5441,0
4650,-1.11984,0.392414,1.54412,0
4660,-1.11996,0.392533,1.54412,0
4670,-1.12031,0.392509,1.54431,0
4690,-1.12067,0.39255,1.54468,0
4710,-1.12057,0.392401,1.54516,0
4730,-1.1202,0.392266,1.54557,0
4730,-1.12026,0.392106,1.54588,0
4750,-1.11993,0.391842,1.54611,0
4770,-1.11934,0.39163,1.5464,0
4790,-1.11907,0.391586,1.54675,0
4790,-1.11896,0.391372,1.54705,0
4810,-1.11912,0.391266,1.54718,0
4830,-1.11884,0.391034,1.54759,0
4840,-1.11835,0.390875,1.5477,0
4850,-1.11835,0.390875,1.5477,0
4870,-1.11818,0.390762,1.54812,0
4890,-1.11777,0.390631,1.54846,0
4910,-1.11725,0.390666,1.54892,0
4910,-1.11659,0.390394,1.54944,0
4930,-1.11615,0.390171,1.55002,0
4950,-1.11561,0.390018,1.55055,0
4970,-1.11546,0.389551,1.55074,0
4970,-1.11543,0.38946,1.55098,0
4990,-1.11543,0.38946,1.55098,0
5010,-1.11543,0.38946,1.55098,0
5030,-1.11543,0.38946,1.55098,0
5030,-1.11553,0.389295,1.55135,0
5050,-1.11556,0.389167,1.55166,0
5090,-1.11549,0.389205,1.55207,0
5150,-1.11566,0.389005,1.5525,0
5210,-1.11625,0.389,1.55276,0
5260,-1.11625,0.389,1.55276,0
5310,-1.11625,0.389,1.55276,0
5370,-1.1164,0.389087,1.55276,0
5420,-1.11638,0.388804,1.55313,0
5450,-1.11634,0.388772,1.55296,0
5470,-1.11648,0.388859,1.55296,0
5470,-1.11648,0.388859,1.55296,0
5490,-1.11651,0.388828,1.55344,0
5510,-1.11636,0.388902,1.55378,0
5530,-1.11604,0.388637,1.55402,0
5540,-1.11594,0.388487,1.5545,0
5550,-1.11596,0.388456,1.55498,0
5570,-1.11567,0.388444,1.55533,0
5590,-1.11567,0.388444,1.55533,0
5610,-1.11594,0.388555,1.55563,0
5610,-1.11594,0.388555,1.55563,0
5630,-1.11641,0.388653,1.55582,0
5650,-1.11641,0.388653,1.55582,0
5670,-1.11655,0.388739,1.55582,0
5670,-1.11652,0.388772,1.55582,0
5690,-1.11652,0.388772,1.55582,0
5710,-1.11643,0.388841,1.55576,0
5730,-1.11657,0.388927,1.55576,0
5730,-1.11667,0.388859,1.55582,0
5750,-1.11658,0.388833,1.55606,0
5770,-1.11658,0.388614,1.55661,0
5790,-1.11691,0.388405,1.55687,0
5810,-1.11689,0.388343,1.55717,0
5810,-1.11689,0.388343,1.55717,0
5830,-1.11744,0.388725,1.55765,0
5850,-1.11775,0.388834,1.55802,0
5850,-1.11766,0.388969,1.55861,0
5870,-1.11763,0.389163,1.55895,0
5890,-1.11799,0.389428,1.55926,0
5910,-1.11862,0.389803,1.55939,0
5910,-1.11877,0.389889,1.55939,0
5930,-1.11877,0.389889,1.55939,0
5950,-1.11881,0.390048,1.5598,0
5970,-1.11891,0.389979,1.55986,0
5970,-1.11891,0.389979,1.55986,0
5990,-1.11901,0.390035,1.55969,0
6010,-1.11884,0.390142,1.56004,0
6030,-1.11898,0.390229,1.56004,0
6040,-1.11908,0.390161,1.5601,0
6050,-1.11908,0.390161,1.5601,0
6070,-1.1192,0.39028,1.5601,0
6070,-1.11903,0.390388,1.56045,0
6100,-1.1191,0.390799,1.56097,0
6130,-1.12013,0.389314,1.56103,0
6150,-1.1202,0.389051,1.56452,0
6170,-1.11446,0.386518,1.56839,0
6190,-1.12038,0.385098,1.56604,0
6210,-1.12182,0.391892,1.56296,0
6230,-1.11818,0.402257,1.56395,0
6290,-1.11338,0.412017,1.56673,0
6350,-1.10899,0.42183,1.56959,0
6410,-1.10602,0.428957,1.57234,0
6450,-1.10714,0.428546,1.5723,0
6510,-1.10722,0.428411,1.57219,0
6560,-1.10733,0.428246,1.57207,0
6610,-1.10767,0.428199,1.5722,0
6660,-1.10799,0.427156,1.57217,0
6680,-1.10847,0.426268,1.57232,0
6700,-1.10876,0.425296,1.5724,0
6720,-1.10851,0.424384,1.57248,0
6740,-1.10844,0.423653,1.57231,0
6760,-1.10848,0.422854,1.57221,0
6780,-1.10864,0.422367,1.57253,0
6800,-1.11026,0.422313,1.57281,0
6820,-1.11112,0.421856,1.57418,0
6840,-1.11409,0.420948,1.57598,0
6860,-1.11894,0.420112,1.5778,0
6880,-1.12495,0.420017,1.5805,0
6900,-1.13143,0.420479,1.58178,0
6920,-1.1364,0.42069,1.5824,0
6940,-1.13858,0.421272,1.58254,0
6960,-1.13877,0.422596,1.58219,0
6980,-1.13824,0.424365,1.58179,0
7000,-1.13946,0.426949,1.58114,0
7020,-1.14236,0.429993,1.57986,0
7040,-1.14705,0.433361,1.57784,0
7060,-1.15281,0.436223,1.57539,0
7080,-1.15868,0.439135,1.57269,0
7100,-1.16619,0.441857,1.56939,0
7120,-1.17465,0.443645,1.56557,0
7140,-1.18341,0.445574,1.5611,0
7160,-1.1919,0.447094,1.55621,0
7180,-1.20053,0.44952,1.55135,0
7200,-1.21074,0.452884,1.54633,0
7220,-1.2231,0.456715,1.54135,0
7240,-1.23629,0.460482,1.53662,0
7260,-1.25099,0.464405,1.53236,0
7280,-1.26856,0.469179,1.52839,0
7300,-1.28832,0.473619,1.52506,0
7320,-1.30737,0.475731,1.52217,0
7340,-1.3237,0.477581,1.51846,0
7360,-1.33863,0.480176,1.51426,0
7380,-1.35053,0.482281,1.50991,0
7400,-1.35865,0.483659,1.50532,0
7420,-1.36368,0.484303,1.50172,0
7440,-1.36544,0.485195,1.49923,0
7460,-1.36566,0.48652,1.49758,0
7480,-1.36513,0.48792,1.49653,0
7500,-1.36487,0.489847,1.49582,0
7520,-1.36558,0.492012,1.4944,0
7540,-1.36624,0.49362,1.49289,0
7560,-1.36721,0.493975,1.49236,0
7580,-1.36909,0.493508,1.49251,0
7590,-1.37195,0.492963,1.49279,0
7610,-1.37474,0.492353,1.49332,0
7630,-1.3768,0.491808,1.49365,0
7650,-1.37829,0.49136,1.49409,0
7670,-1.3787,0.491289,1.49466,0
7690,-1.3781,0.491491,1.49526,0
7710,-1.37749,0.491982,1.49587,0
7730,-1.37682,0.492116,1.49673,0
7750,-1.37587,0.491893,1.4971,0
7770,-1.37413,0.491371,1.4975,0
7790,-1.37208,0.490917,1.49842,0
7810,-1.37025,0.490313,1.4994,0
7830,-1.3694,0.489884,1.50052,0
7850,-1.36911,0.489519,1.50169,0
7870,-1.36933,0.488806,1.50235,0
7890,-1.36915,0.488194,1.50293,0
7910,-1.36887,0.487615,1.50293,0
7930,-1.36859,0.487207,1.50278,0
7950,-1.3687,0.487079,1.50236,0
7970,-1.36881,0.486951,1.50194,0
7990,-1.3681,0.48663,1.50204,0
8010,-1.36591,0.485928,1.5028,0
8030,-1.36285,0.485135,1.50417,0
8050,-1.35984,0.484592,1.50595,0
8070,-1.35786,0.48429,1.50762,0
8090,-1.35701,0.484011,1.5089,0
8110,-1.35575,0.483518,1.5096,0
8130,-1.35441,0.483311,1.50974,0
8150,-1.35419,0.483342,1.50951,0
8170,-1.35491,0.483375,1.5094,0
8190,-1.35675,0.483394,1.5089,0
8210,-1.35797,0.483069,1.50859,0
8230,-1.35893,0.482612,1.50863,0
8250,-1.36045,0.482538,1.50831,0
8270,-1.36209,0.482864,1.50833,0
8290,-1.36364,0.482608,1.50868,0
8310,-1.36495,0.482487,1.5093,0
8330,-1.36654,0.482657,1.50991,0
8350,-1.36873,0.482552,1.50974,0
8370,-1.37122,0.482552,1.5089,0
8390,-1.37335,0.482282,1.50799,0
8410,-1.37388,0.481936,1.50747,0
8430,-1.37253,0.481637,1.50793,0
8450,-1.37165,0.481574,1.50904,0
8470,-1.37163,0.481661,1.51038,0
8490,-1.37212,0.481838,1.51187,0
8510,-1.37292,0.481753,1.51251,0
8530,-1.37269,0.481599,1.51276,0
8550,-1.37166,0.481361,1.51254,0
8570,-1.3705,0.481076,1.51251,0
8590,-1.36969,0.480983,1.51236,0
8610,-1.36853,0.480559,1.51299,0
8630,-1.36672,0.480037,1.51362,0
8650,-1.36486,0.479486,1.51469,0
8670,-1.36261,0.478862,1.51586,0
8690,-1.36072,0.478505,1.51709,0
8710,-1.35892,0.478008,1.51824,0
8730,-1.35761,0.47756,1.51936,0
8750,-1.35719,0.477195,1.52039,0
8770,-1.35667,0.476814,1.52115,0
8790,-1.35584,0.476467,1.52193,0
8810,-1.35525,0.47666,1.52254,0
8830,-1.35484,0.476653,1.52314,0
8850,-1.35508,0.476783,1.52372,0
8870,-1.35561,0.476417,1.52403,0
8890,-1.3556,0.476339,1.52385,0
8910,-1.3557,0.476277,1.52394,0
8930,-1.35626,0.476307,1.524,0
8950,-1.35666,0.476329,1.52424,0
8970,-1.35705,0.476391,1.52447,0
8990,-1.35744,0.47653,1.52488,0
9010,-1.35812,0.476409,1.52537,0
9030,-1.35845,0.476284,1.52568,0
9050,-1.35845,0.476284,1.52568,0
9070,-1.35836,0.476345,1.5256,0
9090,-1.35896,0.476681,1.52575,0
9110,-1.35941,0.476813,1.52573,0
9130,-1.36021,0.477028,1.52605,0
9150,-1.36084,0.477156,1.52637,0
9170,-1.36197,0.477102,1.52633,0
9190,-1.36305,0.47686,1.52637,0
9210,-1.3637,0.476753,1.52635,0
9230,-1.36442,0.476794,1.52624,0
9250,-1.36546,0.476997,1.52647,0
9270,-1.36616,0.477147,1.52686,0
9290,-1.3666,0.476846,1.52709,0
9310,-1.36677,0.476932,1.5271,0
9330,-1.36675,0.476973,1.52709,0
9350,-1.36691,0.476981,1.52692,0
9370,-1.36739,0.476985,1.52724,0
9390,-1.36806,0.476958,1.52739,0
9410,-1.36804,0.476998,1.52739,0
9430,-1.36804,0.476998,1.52739,0
9450,-1.3682,0.477006,1.52721,0
9470,-1.36829,0.476945,1.5273,0
9490,-1.3682,0.477006,1.52721,0
9510,-1.36829,0.476945,1.5273,0
9530,-1.36844,0.477072,1.5273,0
9550,-1.36917,0.477113,1.52719,0
9570,-1.37051,0.477327,1.5274,0
9590,-1.37045,0.477211,1.52799,0
9610,-1.36985,0.476901,1.52835,0
9630,-1.36889,0.476941,1.52905,0
9650,-1.36867,0.476619,1.52947,0
9670,-1.36779,0.475967,1.53016,0
9690,-1.36584,0.474832,1.53105,0
9710,-1.3619,0.472848,1.53266,0
9730,-1.35634,0.469425,1.53523,0
9750,-1.34844,0.465255,1.53927,0
9770,-1.33851,0.460849,1.54396,0
9790,-1.32422,0.456404,1.54913,0
9810,-1.30628,0.451489,1.55438,0
9830,-1.28717,0.447824,1.55939,0
9850,-1.27065,0.446222,1.56344,0
9870,-1.25738,0.445274,1.56634,0
9890,-1.24608,0.443837,1.56907,0
9910,-1.23569,0.442209,1.57201,0
9930,-1.22631,0.440758,1.57516,0
9950,-1.21836,0.439059,1.57804,0
9970,-1.21044,0.436757,1.58122,0
9990,-1.20227,0.433762,1.58394,0
10010,-1.19388,0.431239,1.58667,0
10030,-1.18647,0.429392,1.58863,0
10050,-1.17986,0.427394,1.58985,0
10070,-1.17392,0.425417,1.59044,0
10090,-1.1678,0.422998,1.59168,0
10110,-1.16193,0.420162,1.59393,0
10130,-1.15872,0.41732,1.59642,0
10150,-1.15893,0.41457,1.59892,0
10160,-1.15957,0.411976,1.60158,0
10180,-1.15988,0.409455,1.60328,0
10200,-1.15852,0.408366,1.60462,0
10220,-1.15752,0.407677,1.60514,0
10240,-1.15542,0.407356,1.60521,0
10260,-1.1514,0.407225,1.60581,0
10280,-1.14692,0.406889,1.60652,0
10300,-1.14296,0.40688,1.60789,0
10320,-1.1402,0.406765,1.60897,0
10340,-1.13805,0.406266,1.60954,0
10360,-1.13537,0.405578,1.60965,0
10380,-1.13283,0.405218,1.60878,0
10400,-1.13081,0.406339,1.60813,0
10420,-1.12994,0.407214,1.60774,0
10440,-1.1316,0.407215,1.60715,0
10460,-1.13697,0.406423,1.60594,0
10480,-1.14385,0.405876,1.6039,0
10500,-1.14881,0.406566,1.60201,0
10520,-1.15243,0.409006,1.60102,0
10540,-1.15647,0.412177,1.6013,0
10560,-1.1613,0.414235,1.60264,0
10580,-1.16711,0.415064,1.60386,0
10600,-1.17164,0.414891,1.60445,0
10620,-1.17339,0.415069,1.60432,0
10640,-1.17341,0.41548,1.60286,0
10660,-1.17202,0.416395,1.60115,0
10680,-1.17115,0.417506,1.59985,0
10700,-1.17113,0.418556,1.59904,0
10720,-1.17101,0.419468,1.59873,0
10740,-1.17023,0.419627,1.59898,0
10760,-1.16975,0.419218,1.59965,0
10780,-1.17071,0.418988,1.60004,0
10800,-1.1721,0.41881,1.60039,0
10820,-1.17281,0.418727,1.60107,0
10840,-1.17319,0.419021,1.6014,0
10860,-1.17312,0.419591,1.60187,0
10880,-1.17361,0.420509,1.60267,0
10900,-1.17463,0.421123,1.60339,0
10920,-1.1754,0.421489,1.60411,0
10940,-1.1756,0.42161,1.60468,0
10960,-1.17589,0.421867,1.60476,0
10980,-1.17604,0.421956,1.60476,0
11000,-1.17629,0.421981,1.60483,0
11020,-1.17625,0.42195,1.60466,0
11040,-1.17625,0.42195,1.60466,0
11060,-1.17627,0.422017,1.60483,0
11080,-1.17627,0.422017,1.60483,0
11100,-1.17627,0.422017,1.60483,0
11120,-1.17607,0.421945,1.60526,0
11140,-1.17579,0.421858,1.60594,0
11160,-1.1758,0.421511,1.60665,0
11180,-1.17579,0.421413,1.6074,0
11200,-1.17557,0.421377,1.60783,0
11220,-1.17533,0.421522,1.60811,0
11240,-1.17538,0.4217,1.60855,0
11260,-1.17526,0.4216,1.60905,0
11280,-1.17496,0.421591,1.6094,0
11300,-1.17457,0.421648,1.60969,0
11320,-1.17421,0.421734,1.61015,0
11340,-1.17372,0.421629,1.61044,0
11360,-1.17321,0.421456,1.61054,0
11380,-1.17331,0.421392,1.61061,0
11400,-1.17331,0.421392,1.61061,0
11420,-1.173,0.421194,1.61104,0
11440,-1.17277,0.420864,1.61136,0
11460,-1.17277,0.420864,1.61136,0
11480,-1.17268,0.420995,1.61146,0
11500,-1.17239,0.420987,1.61182,0
11520,-1.17187,0.420917,1.61211,0
11540,-1.17221,0.420835,1.61257,0
11560,-1.17221,0.420859,1.61308,0
11580,-1.17217,0.420875,1.6135,0
11600,-1.17166,0.420702,1.61361,0
11620,-1.17132,0.420685,1.61389,0
11640,-1.17141,0.420554,1.61379,0
11660,-1.17189,0.420392,1.61389,0
11680,-1.17215,0.420272,1.61411,0
11700,-1.17225,0.420207,1.61418,0
11720,-1.17225,0.420207,1.61418,0
11740,-1.17225,0.420207,1.61418,0
11760,-1.17225,0.420207,1.61418,0
11780,-1.17185,0.420432,1.61482,0
11800,-1.1718,0.420236,1.61522,0
11820,-1.17177,0.420174,1.61597,0
11840,-1.17167,0.42014,1.61665,0
11860,-1.17135,0.420167,1.61701,0
11880,-1.17117,0.420386,1.61755,0
11900,-1.17154,0.420392,1.61777,0
11920,-1.17159,0.42057,1.61821,0
11940,-1.17132,0.420355,1.61821,0
11960,-1.17113,0.42055,1.61824,0
11980,-1.17113,0.42055,1.61824,0
12000,-1.17167,0.420543,1.61828,0
12020,-1.17167,0.420543,1.61828,0
12040,-1.17155,0.420417,1.61828,0
12060,-1.17155,0.420417,1.61828,0
12080,-1.17196,0.420284,1.61831,0
12100,-1.17196,0.420284,1.61831,0
12120,-1.17197,0.42035,1.61849,0
12140,-1.17196,0.420284,1.61831,0
12160,-1.17264,0.420592,1.61829,0
12180,-1.17274,0.420528,1.61836,0
12200,-1.17286,0.420654,1.61836,0
12220,-1.17286,0.420654,1.61836,0
12240,-1.17339,0.421141,1.61794,0
12260,-1.17364,0.421166,1.61801,0
12280,-1.17363,0.4211,1.61783,0
12300,-1.17363,0.4211,1.61783,0
12320,-1.17378,0.421189,1.61783,0
12340,-1.17431,0.421182,1.61787,0
12360,-1.17431,0.421182,1.61787,0
12380,-1.17429,0.421218,1.61787,0
12400,-1.17418,0.421282,1.6178,0
12420,-1.17418,0.421282,1.6178,0
12440,-1.17418,0.421282,1.6178,0
12460,-1.17418,0.421282,1.6178,0
12480,-1.17429,0.421218,1.61787,0
12500,-1.17429,0.421218,1.61787,0
12520,-1.17404,0.421631,1.61777,0
12540,-1.17404,0.421631,1.61777,0
12560,-1.17409,0.421784,1.6177,0
12580,-1.17409,0.421784,1.6177,0
12600,-1.17394,0.421695,1.6177,0
12620,-1.17394,0.421695,1.6177,0
12640,-1.17394,0.421695,1.6177,0
12660,-1.17406,0.42182,1.6177,0
12680,-1.17406,0.42182,1.6177,0
12700,-1.1747,0.421749,1.61781,0
12720,-1.1747,0.421749,1.61781,0
12730,-1.1747,0.421749,1.61781,0
12750,-1.1747,0.421749,1.61781,0
12770,-1.1747,0.421749,1.61781,0
12790,-1.1747,0.421749,1.61781,0
12810,-1.17498,0.421717,1.61778,0
12830,-1.17498,0.421717,1.61778,0
12850,-1.17498,0.421717,1.61778,0
12870,-1.17498,0.421717,1.61778,0
12890,-1.17544,0.421737,1.61774,0
12910,-1.17555,0.421673,1.61781,0
12930,-1.17555,0.421673,1.61781,0
12950,-1.17486,0.421591,1.61778,0
12970,-1.17496,0.421527,1.61785,0
12990,-1.17522,0.421676,1.61767,0
13010,-1.17521,0.421779,1.61785,0
13030,-1.17521,0.421779,1.61785,0
13050,-1.17521,0.421779,1.61785,0
13070,-1.17571,0.421515,1.61778,0
13090,-1.17571,0.421515,1.61778,0
13110,-1.17571,0.421515,1.61778,0
13130,-1.17571,0.421515,1.61778,0
13150,-1.17571,0.421515,1.61778,0
13170,-1.17571,0.421515,1.61778,0
13190,-1.17571,0.421515,1.61778,0
13210,-1.17506,0.421689,1.61785,0
13230,-1.17506,0.421689,1.61785,0
13250,-1.17506,0.421689,1.61785,0
13270,-1.17506,0.421689,1.61785,0
13290,-1.17506,0.421689,1.61785,0
13310,-1.17507,0.421756,1.61803,0
13330,-1.17497,0.42182,1.61796,0
13350,-1.17537,0.421791,1.61817,0
13370,-1.17537,0.421791,1.61817,0
13390,-1.17507,0.421756,1.61803,0
13410,-1.17505,0.421793,1.61803,0
13430,-1.17548,0.42185,1.618,0
13450,-1.17563,0.421939,1.618,0
13470,-1.17531,0.421941,1.61786,0
13490,-1.17541,0.421877,1.61793,0
13510,-1.17541,0.421877,1.61793,0
13530,-1.17528,0.421751,1.61792,0
13550,-1.17528,0.421751,1.61792,0
13570,-1.17541,0.421877,1.61793,0
13590,-1.17532,0.422008,1.61803,0
13610,-1.17532,0.422008,1.61803,0
13630,-1.17531,0.421941,1.61786,0
13650,-1.17531,0.421941,1.61786,0
13670,-1.17541,0.421877,1.61793,0
13690,-1.17541,0.421877,1.61793,0
13710,-1.17531,0.421941,1.61786,0
13730,-1.17541,0.421877,1.61793,0
13750,-1.17541,0.421877,1.61793,0
13770,-1.17541,0.421877,1.61793,0
13790,-1.17541,0.421877,1.61793,0
13810,-1.17541,0.421877,1.61793,0
13830,-1.17541,0.421877,1.61793,0
13850,-1.17582,0.421744,1.61796,0
13870,-1.17619,0.421458,1.61807,0
13890,-1.17619,0.421458,1.61807,0
13910,-1.17619,0.421458,1.61807,0
13930,-1.17692,0.42155,1.61818,0
13950,-1.17754,0.42129,1.61836,0
13970,-1.17739,0.421201,1.61836,0
13990,-1.17739,0.421201,1.61836,0
14010,-1.17729,0.421264,1.61829,0
14030,-1.178,0.421167,1.61847,0
14050,-1.1781,0.421103,1.61854,0
14070,-1.17809,0.421036,1.61837,0
14090,-1.17751,0.420663,1.61846,0
14110,-1.17731,0.420564,1.61839,0
14130,-1.17717,0.420475,1.61839,0
14150,-1.17696,0.42048,1.61849,0
14170,-1.17696,0.42048,1.61849,0
14190,-1.17674,0.420711,1.61853,0
14210,-1.17685,0.421337,1.61901,0
14230,-1.17796,0.421437,1.61934,0
14250,-1.17875,0.421313,1.6196,0
14270,-1.17957,0.420982,1.6195,0
14290,-1.17959,0.420945,1.6195,0
14310,-1.18006,0.420862,1.61928,0
14330,-1.18015,0.420732,1.61918,0
14350,-1.18003,0.420606,1.61917,0
14370,-1.17998,0.420453,1.61924,0
14390,-1.18001,0.420416,1.61924,0
14410,-1.18011,0.420352,1.61931,0
14430,-1.17996,0.420263,1.61931,0
14450,-1.18046,0.420663,1.61914,0
14470,-1.18088,0.421195,1.61908,0
14490,-1.18075,0.421295,1.61901,0
14510,-1.18075,0.421295,1.61901,0
14530,-1.18091,0.421452,1.61919,0
14550,-1.1812,0.42142,1.61916,0
14570,-1.1811,0.421484,1.61909,0
14590,-1.1812,0.42142,1.61916,0
14610,-1.18078,0.421258,1.61901,0
14630,-1.18078,0.421258,1.61901,0
14650,-1.18067,0.421322,1.61894,0
14670,-1.18078,0.421258,1.61901,0
14690,-1.1808,0.421222,1.619,0
14710,-1.18089,0.421091,1.6189,0
14730,-1.18089,0.421091,1.6189,0
14750,-1.18089,0.421091,1.6189,0
14770,-1.18089,0.421091,1.6189,0
14790,-1.18089,0.421091,1.6189,0
14810,-1.18112,0.420784,1.61918,0
14830,-1.18098,0.420694,1.61919,0
14850,-1.181,0.420657,1.61918,0
14870,-1.181,0.420657,1.61918,0
14890,-1.18087,0.420758,1.61912,0
14910,-1.18087,0.420758,1.61912,0
14930,-1.18089,0.420825,1.61929,0
14950,-1.18089,0.420825,1.61929,0
14970,-1.18091,0.420788,1.61929,0
14990,-1.181,0.420657,1.61918,0
15010,-1.18085,0.420568,1.61918,0
15030,-1.18085,0.420568,1.61918,0
15050,-1.18107,0.420603,1.61875,0
15070,-1.18124,0.420751,1.618,0
15090,-1.17961,0.421217,1.61734,0
15110,-1.17449,0.421584,1.61756,0
15130,-1.15975,0.419842,1.61928,0
15150,-1.13121,0.417345,1.62016,0
15170,-1.10157,0.412254,1.62178,0
15190,-1.07216,0.403441,1.62504,0
15210,-1.05261,0.388081,1.62848,0
15230,-1.04534,0.367184,1.63315,0
15250,-1.04394,0.340822,1.63776,0
15270,-1.03817,0.307898,1.64107,0
15280,-1.03038,0.266786,1.64203,0
15300,-1.02006,0.21916,1.64231,0
15320,-1.00653,0.165593,1.64289,0
15340,-0.992944,0.105993,1.64293,0
15360,-0.983605,0.0402372,1.64239,0
15380,-0.978476,-0.029844,1.64259,0
15400,-0.97383,-0.102371,1.64505,0
15420,-0.971007,-0.177454,1.64796,0
15440,-0.969941,-0.254876,1.65042,0
15460,-0.973528,-0.332694,1.65373,0
15470,-0.979395,-0.410393,1.65934,0
15490,-0.991967,-0.486795,1.66966,0
15520,-1.00799,-0.561329,1.68292,0
15540,-1.03104,-0.633393,1.70164,0
15560,-1.06101,-0.706308,1.72808,0
15580,-1.10235,-0.775141,1.76474,0
15600,-1.15275,-0.840841,1.81054,0
15620,-1.21547,-0.90114,1.8681,0
15640,-1.2871,-0.95616,1.93653,0
15660,-1.36955,-1.00603,2.01589,0
15680,-1.46068,-1.04667,2.10411,0
15700,-1.55744,-1.0796,2.19831,0
15720,-1.65796,-1.10643,2.29538,0
15740,-1.7618,-1.12482,2.39518,0
15760,-1.86231,-1.13793,2.49383,0
15780,-1.96129,-1.1459,2.59158,0
15800,-2.06452,-1.1533,2.69197,0
15820,-2.15547,-1.15707,2.78024,0
15840,-2.2353,-1.15847,2.85895,0
15860,-2.30999,-1.15676,2.93368,0
15880,-2.37914,-1.1515,3.00428,0
15900,-2.43836,-1.14206,3.06497,0
15920,-2.49169,-1.13118,3.12036,0
15940,-2.5344,-1.11887,-3.1164,0
15960,-2.57247,-1.10767,-3.07349,0
15980,-2.60523,-1.09388,-3.03686,0
16000,-2.62809,-1.07805,-3.01029,0
16020,-2.64091,-1.06266,-2.99432,0
16040,-2.64642,-1.04819,-2.9873,0
16060,-2.65054,-1.03476,-2.98335,0
16080,-2.64189,-1.02656,-2.99114,0
16100,-2.63811,-1.02293,-2.98843,0
16120,-2.63653,-1.01485,-2.98393,0
16140,-2.62931,-1.00499,-2.98373,0
16160,-2.62805,-1.00008,-2.98666,0
16180,-2.62241,-0.998247,-2.99657,0
16200,-2.61913,-0.995922,-3.00349,0
16220,-2.62112,-0.991737,-3.00683,0
16240,-2.62294,-0.987078,-3.00999,0
16260,-2.62038,-0.985222,-3.01451,0
16280,-2.62142,-0.986007,-3.01417,0
16300,-2.61998,-0.986186,-3.01743,0
16320,-2.61426,-0.985762,-3.02238,0
16340,-2.60776,-0.983851,-3.02384,0
16360,-2.59721,-0.980243,-3.02834,0
16380,-2.58913,-0.975361,-3.02989,0
16400,-2.57941,-0.970828,-3.03373,0
16420,-2.56887,-0.965815,-3.03808,0
16440,-2.55585,-0.962844,-3.04555,0
16460,-2.54548,-0.95943,-3.05164,0
16480,-2.53779,-0.954102,-3.05414,0
16500,-2.52896,-0.948297,-3.05718,0
16520,-2.52293,-0.943148,-3.05769,0
16540,-2.5152,-0.937464,-3.06099,0
16560,-2.50826,-0.935758,-3.0655,0
16580,-2.50086,-0.934894,-3.06976,0
16600,-2.49353,-0.934391,-3.07311,0
16620,-2.48617,-0.933188,-3.07588,0
16640,-2.47931,-0.934602,-3.07918,0
16660,-2.47273,-0.936558,-3.08178,0
16680,-2.46806,-0.938551,-3.08116,0
16700,-2.46222,-0.939863,-3.08059,0
16720,-2.45574,-0.942986,-3.08096,0
16740,-2.44998,-0.947078,-3.08041,0
16760,-2.44296,-0.948596,-3.0798,0
16780,-2.43187,-0.947458,-3.08186,0
16800,-2.42103,-0.946604,-3.08496,0
16820,-2.40834,-0.947684,-3.0906,0
16840,-2.39641,-0.9493,-3.09725,0
16860,-2.38673,-0.951748,-3.10341,0
16880,-2.38086,-0.954737,-3.10654,0
16900,-2.37912,-0.958889,-3.10701,0
16920,-2.37761,-0.9632,-3.1081,0
16940,-2.37667,-0.967499,-3.10866,0
16960,-2.37586,-0.972617,-3.10919,0
16980,-2.37588,-0.976794,-3.10915,0
17000,-2.37378,-0.981008,-3.11238,0
17020,-2.37329,-0.985199,-3.11451,0
17040,-2.37301,-0.988025,-3.11486,0
17060,-2.37449,-0.990962,-3.11478,0
17080,-2.37709,-0.993431,-3.11346,0
17100,-2.38004,-0.99479,-3.11048,0
17120,-2.3841,-0.996223,-3.10657,0
17140,-2.38712,-0.999306,-3.10464,0
17160,-2.38963,-1.00081,-3.10177,0
17180,-2.39241,-1.00295,-3.09866,0
17200,-2.39421,-1.00571,-3.09633,0
17220,-2.39629,-1.00948,-3.09352,0
17240,-2.39742,-1.0117,-3.0904,0
17260,-2.39699,-1.01249,-3.08867,0
17280,-2.39461,-1.01223,-3.08822,0
17300,-2.39141,-1.01273,-3.08879,0
17320,-2.38561,-1.01297,-3.09235,0
17340,-2.37767,-1.01233,-3.09844,0
17360,-2.3666,-1.01097,-3.10792,0
17380,-2.35508,-1.01129,-3.11876,0
17400,-2.34202,-1.01089,-3.13004,0
17420,-2.32952,-1.00923,-3.13864,0
17440,-2.31952,-1.00912,3.13876,0
17460,-2.3095,-1.01039,3.13296,0
17480,-2.30247,-1.01205,3.13014,0
17500,-2.2943,-1.01423,3.1263,0
17520,-2.2841,-1.01704,3.11946,0
17540,-2.2725,-1.01851,3.11055,0
17560,-2.25968,-1.01893,3.10019,0
17580,-2.24632,-1.01901,3.08843,0
17600,-2.23307,-1.01932,3.07736,0
17620,-2.21944,-1.01778,3.06712,0
17640,-2.20702,-1.01577,3.05845,0
17660,-2.19542,-1.01409,3.04992,0
17680,-2.1848,-1.01382,3.04259,0
17700,-2.18213,-1.01538,3.04348,0
17720,-2.18894,-1.01856,3.05097,0
17740,-2.19771,-1.02321,3.05742,0
17760,-2.20444,-1.02954,3.06156,0
17780,-2.20894,-1.03487,3.06498,0
17800,-2.21051,-1.03995,3.0642,0
17820,-2.20558,-1.04535,3.05709,0
17830,-2.19927,-1.04761,3.05059,0
17850,-2.19637,-1.04497,3.0498,0
17870,-2.19558,-1.03913,3.05243,0
17890,-2.18944,-1.03742,3.04677,0
17910,-2.18,-1.04059,3.03622,0
17930,-2.17311,-1.04182,3.03006,0
17950,-2.16973,-1.04312,3.02765,0
17970,-2.16961,-1.04696,3.02766,0
17990,-2.16954,-1.05308,3.02707,0
18010,-2.16922,-1.05918,3.02792,0
18030,-2.17202,-1.06436,3.03385,0
18050,-2.17665,-1.06885,3.04225,0
18070,-2.18023,-1.07416,3.04898,0
18090,-2.17915,-1.0778,3.05285,0
18110,-2.17659,-1.07793,3.0558,0
18130,-2.17564,-1.07704,3.05919,0
18150,-2.17531,-1.0766,3.06114,0
18170,-2.17601,-1.07823,3.06368,0
18190,-2.1783,-1.07957,3.06755,0
18210,-2.18203,-1.08258,3.07074,0
18230,-2.18645,-1.08717,3.07467,0
18250,-2.18995,-1.09045,3.07843,0
18270,-2.19236,-1.09417,3.07987,0
18290,-2.19532,-1.09742,3.08159,0
18310,-2.20218,-1.09911,3.08845,0
18330,-2.20848,-1.09987,3.09517,0
18350,-2.21382,-1.10211,3.09957,0
18370,-2.2194,-1.10446,3.10344,0
18390,-2.22357,-1.10717,3.1056,0
18410,-2.22774,-1.10968,3.1079,0
18430,-2.23506,-1.11072,3.11388,0
18450,-2.24237,-1.11156,3.1193,0
18470,-2.24947,-1.11407,3.12476,0
18490,-2.25652,-1.11671,3.12998,0
18510,-2.26228,-1.11878,3.13338,0
18530,-2.26686,-1.12067,3.13424,0
18550,-2.26962,-1.12233,3.13363,0
18570,-2.27058,-1.12411,3.13101,0
18590,-2.27308,-1.12615,3.12941,0
18610,-2.27362,-1.12727,3.12672,0
18630,-2.27455,-1.12867,3.12552,0
18650,-2.27959,-1.1291,3.12883,0
18670,-2.28608,-1.12897,3.13397,0
18690,-2.29305,-1.12922,3.14068,0
18710,-2.2985,-1.12981,-3.13742,0
18730,-2.30272,-1.13111,-3.13407,0
18750,-2.3051,-1.13228,-3.13196,0
18770,-2.30963,-1.13341,-3.12752,0
18790,-2.31565,-1.13405,-3.121,0
18810,-2.3187,-1.13354,-3.11582,0
18830,-2.32124,-1.13394,-3.1114,0
18850,-2.32143,-1.13419,-3.10978,0
18870,-2.32035,-1.13349,-3.1084,0
18890,-2.32003,-1.1325,-3.10584,0
18910,-2.3169,-1.13108,-3.10497,0
18930,-2.31332,-1.13004,-3.10372,0
18950,-2.31194,-1.12999,-3.10093,0
18970,-2.30879,-1.12884,-3.10071,0
18990,-2.30337,-1.12707,-3.10302,0
19010,-2.29922,-1.12608,-3.10533,0
19030,-2.29374,-1.12461,-3.1092,0
19050,-2.28527,-1.12328,-3.11649,0
19070,-2.27605,-1.1224,-3.12487,0
19090,-2.26542,-1.12166,-3.13567,0
19110,-2.25417,-1.12186,3.13574,0
19130,-2.2433,-1.12236,3.12452,0
19150,-2.23538,-1.12309,3.11612,0
19170,-2.23178,-1.1235,3.11252,0
19190,-2.22817,-1.12286,3.10878,0
19210,-2.22453,-1.12205,3.10496,0
19230,-2.22403,-1.12089,3.10476,0
19250,-2.2255,-1.11823,3.10846,0
19270,-2.226,-1.11556,3.11073,0
19290,-2.22613,-1.11551,3.11019,0
19310,-2.22661,-1.11712,3.10924,0
19330,-2.22701,-1.11655,3.10913,0
19350,-2.22626,-1.11516,3.10933,0
19370,-2.22459,-1.11325,3.11005,0
19390,-2.22459,-1.11084,3.11237,0
19410,-2.22723,-1.10902,3.11765,0
19430,-2.23396,-1.10861,3.12746,0
19450,-2.24434,-1.10835,3.14119,0
19470,-2.25907,-1.10768,-3.12495,0
19490,-2.27196,-1.10771,-3.11161,0
19510,-2.27794,-1.10909,-3.10619,0
19530,-2.28413,-1.11013,-3.10031,0
19550,-2.29019,-1.11018,-3.09566,0
19570,-2.29669,-1.11104,-3.09077,0
19590,-2.30102,-1.11342,-3.09044,0
19610,-2.30123,-1.1141,-3.093,0
19630,-2.30375,-1.11268,-3.09174,0
19650,-2.30948,-1.11152,-3.08807,0
19670,-2.31462,-1.11052,-3.08525,0
19690,-2.31789,-1.11067,-3.08383,0
19710,-2.322,-1.11144,-3.08037,0
19730,-2.32757,-1.11185,-3.07457,0
19750,-2.33242,-1.11176,-3.06872,0
19770,-2.33614,-1.11192,-3.06433,0
19790,-2.33703,-1.11103,-3.06258,0
19810,-2.33734,-1.11068,-3.06165,0
19830,-2.33689,-1.10938,-3.06109,0
19850,-2.33646,-1.10768,-3.06053,0
19870,-2.33501,-1.10664,-3.06142,0
19890,-2.33297,-1.10632,-3.06303,0
19910,-2.3309,-1.10551,-3.06355,0
19930,-2.32895,-1.10598,-3.06389,0
19950,-2.32937,-1.10692,-3.06054,0
19970,-2.32938,-1.10828,-3.059,0
19990,-2.33238,-1.11039,-3.05665,0
20010,-2.33205,-1.11235,-3.05833,0
20030,-2.33169,-1.11314,-3.05868,0
20050,-2.33161,-1.1118,-3.05817,0
20070,-2.33291,-1.11084,-3.05649,0
20090,-2.33253,-1.11009,-3.05643,0
20110,-2.33088,-1.1105,-3.05665,0
20130,-2.3313,-1.11211,-3.05483,0
20150,-2.33401,-1.11318,-3.05141,0
20170,-2.33553,-1.11341,-3.04976,0
20190,-2.33768,-1.11215,-3.04701,0
20210,-2.33757,-1.11036,-3.04637,0
20230,-2.33621,-1.10718,-3.04701,0
20250,-2.3346,-1.10359,-3.04873,0
20270,-2.33452,-1.10157,-3.05004,0
20290,-2.33579,-1.10134,-3.05157,0
20310,-2.33697,-1.10164,-3.05412,0
20330,-2.33505,-1.10219,-3.05865,0
20350,-2.33076,-1.10247,-3.06398,0
20370,-2.32402,-1.10256,-3.07117,0
20390,-2.31316,-1.10406,-3.08105,0
20410,-2.30394,-1.10603,-3.08911,0
20420,-2.29275,-1.10862,-3.1002,0
20440,-2.27565,-1.11271,-3.11797,0
20460,-2.25249,-1.11777,3.1408,0
20480,-2.2329,-1.12186,3.11739,0
20500,-2.21373,-1.12449,3.09495,0
20520,-2.19741,-1.12572,3.07715,0
20540,-2.18569,-1.12565,3.06661,0
20560,-2.18053,-1.12419,3.06199,0
20580,-2.17826,-1.12026,3.06073,0
20600,-2.17417,-1.11647,3.05873,0
20620,-2.16916,-1.11181,3.05455,0
20640,-2.16372,-1.10798,3.04888,0
20660,-2.15952,-1.10623,3.04541,0
20680,-2.15716,-1.10602,3.04484,0
20700,-2.15557,-1.10623,3.04501,0
20720,-2.155,-1.10604,3.04619,0
20740,-2.15141,-1.10644,3.04612,0
20760,-2.1465,-1.10505,3.04603,0
20780,-2.14151,-1.10326,3.04647,0
20800,-2.13669,-1.10252,3.04674,0
20820,-2.13102,-1.10417,3.04594,0
20840,-2.12686,-1.1057,3.04807,0
20860,-2.12353,-1.10677,3.05085,0
20880,-2.12039,-1.10834,3.05118,0
20900,-2.11622,-1.10775,3.05148,0
20920,-2.11231,-1.10546,3.05262,0
20940,-2.10698,-1.10475,3.04966,0
20960,-2.09929,-1.10351,3.04375,0
20980,-2.09528,-1.1017,3.0418,0
21000,-2.09346,-1.10099,3.04109,0
21020,-2.08941,-1.10135,3.03716,0
21040,-2.08534,-1.1,3.03442,0
21060,-2.08443,-1.09855,3.03358,0
21080,-2.08144,-1.09756,3.02855,0
21100,-2.08038,-1.09764,3.02621,0
21120,-2.08252,-1.09731,3.02857,0
21140,-2.08573,-1.09841,3.03188,0
21160,-2.08998,-1.10124,3.03515,0
21180,-2.09468,-1.10438,3.03917,0
21200,-2.10001,-1.10771,3.04448,0
21220,-2.10518,-1.11088,3.04997,0
21240,-2.11085,-1.1136,3.05604,0
21260,-2.11593,-1.11561,3.06187,0
21280,-2.11724,-1.11686,3.06491,0
21300,-2.11443,-1.11946,3.06339,0
21320,-2.10687,-1.12386,3.05745,0
21340,-2.09317,-1.12927,3.04555,0
21360,-2.07155,-1.13545,3.02503,0
21380,-2.04049,-1.14199,2.9937,0
21400,-1.99781,-1.14614,2.94888,0
21420,-1.94137,-1.14714,2.88863,0
21440,-1.87162,-1.14443,2.81286,0
21460,-1.78502,-1.13887,2.71762,0
21480,-1.68388,-1.12624,2.6061,0
21500,-1.57555,-1.10389,2.48666,0
21520,-1.4686,-1.06931,2.36806,0
21540,-1.37184,-1.02305,2.25775,0
21560,-1.28566,-0.966521,2.16055,0
21580,-1.21,-0.903138,2.07466,0
21600,-1.14756,-0.831458,2.00517,0
21620,-1.09768,-0.757479,1.95115,0
21640,-1.06094,-0.685641,1.91029,0
21660,-1.03651,-0.616977,1.87909,0
21680,-1.0192,-0.545219,1.85782,0
21700,-1.00341,-0.469069,1.84537,0
21720,-0.987135,-0.396157,1.83729,0
21740,-0.976273,-0.32684,1.83193,0
21760,-0.970871,-0.259244,1.82913,0
21780,-0.970614,-0.192801,1.82893,0
21800,-0.97417,-0.132777,1.82988,0
21820,-0.974276,-0.0809927,1.83287,0
21840,-0.968241,-0.0345849,1.83827,0
21860,-0.958554,0.0100952,1.84585,0
21880,-0.946834,0.0525266,1.85482,0
21900,-0.940877,0.0910391,1.86318,0
21920,-0.937603,0.131462,1.87063,0
21940,-0.935164,0.174393,1.87747,0
21960,-0.9321,0.215054,1.88186,0
21980,-0.926598,0.253688,1.88171,0
22000,-0.9152,0.294648,1.87832,0
22020,-0.904517,0.338358,1.87349,0
22040,-0.912058,0.366272,1.85746,0
22060,-0.916241,0.372363,1.83703,0
22080,-0.921362,0.371183,1.8278,0
22100,-0.920334,0.364727,1.82073,0
22120,-0.906459,0.36295,1.81981,0
22140,-0.902889,0.368321,1.81905,0
22160,-0.911263,0.376848,1.81753,0
22180,-0.928462,0.3857,1.81572,0
22200,-0.946929,0.392825,1.81333,0
22220,-0.95899,0.397552,1.81061,0
22240,-0.959836,0.400778,1.80754,0
22260,-0.953507,0.40306,1.8043,0
22280,-0.946744,0.405463,1.80196,0
22300,-0.944262,0.408454,1.80031,0
22320,-0.944405,0.411206,1.7991,0
22340,-0.94613,0.413064,1.79761,0
22360,-0.946606,0.414337,1.79624,0
22380,-0.945729,0.415912,1.795,0
22400,-0.943776,0.417359,1.79389,0
22420,-0.94185,0.418648,1.79292,0
22440,-0.940839,0.420114,1.79215,0
22460,-0.940152,0.42172,1.79136,0
22480,-0.940001,0.423235,1.7909,0
22500,-0.940354,0.425012,1.79058,0
22520,-0.940756,0.427038,1.7905,0
22540,-0.94092,0.428923,1.79061,0
22560,-0.941418,0.430975,1.79078,0
22580,-0.941387,0.433046,1.79098,0
22600,-0.941132,0.434887,1.79117,0
22620,-0.941031,0.4352,1.79128,0
22640,-0.939862,0.436684,1.79183,0
22660,-0.938444,0.437776,1.79243,0
22680,-0.93749,0.438911,1.79305,0
22700,-0.937881,0.440299,1.79388,0
22720,-0.93871,0.442013,1.79489,0
22740,-0.938905,0.443509,1.79616,0
22760,-0.938822,0.444971,1.79731,0
22780,-0.938971,0.44622,1.79834,0
22800,-0.938859,0.447269,1.79939,0
22820,-0.937986,0.448247,1.80085,0
22840,-0.935997,0.449044,1.80277,0
22860,-0.933207,0.450095,1.80487,0
22880,-0.929447,0.4513,1.80708,0
22900,-0.925405,0.452359,1.8094,0
22920,-0.921315,0.452727,1.81191,0
22940,-0.916841,0.453009,1.8145,0
22960,-0.912705,0.453312,1.81676,0
22980,-0.909153,0.453232,1.81859,0
22990,-0.906228,0.453268,1.82041,0
23010,-0.904497,0.453597,1.82166,0
23030,-0.902269,0.453548,1.823,0
23050,-0.900153,0.453542,1.82416,0
23070,-0.898541,0.454303,1.82699,0
23090,-0.897834,0.455776,1.8322,0
23110,-0.906916,0.449208,1.83711,0
23130,-0.908838,0.429191,1.83569,0
23150,-0.908063,0.397615,1.83124,0
23170,-0.904175,0.353413,1.82641,0
23190,-0.89292,0.306218,1.81485,0
23210,-0.861998,0.254374,1.79978,0
23230,-0.813125,0.200073,1.77925,0
23250,-0.763571,0.153121,1.74641,0
23270,-0.721743,0.119245,1.70505,0
23290,-0.68752,0.0960357,1.66205,0
23310,-0.682325,0.0857968,1.61703,0
23330,-0.701162,0.103079,1.57379,0
23350,-0.735565,0.125457,1.54582,0
23370,-0.767116,0.145385,1.52971,0
23390,-0.78359,0.161134,1.52092,0
23410,-0.787056,0.169995,1.51425,0
23430,-0.803392,0.155894,1.51493,0
23450,-0.815748,0.149838,1.51831,0
23470,-0.814488,0.144476,1.52027,0
23490,-0.810793,0.139552,1.52669,0
23510,-0.829909,0.134646,1.53966,0
23530,-0.877645,0.135581,1.55276,0
23550,-0.964859,0.125438,1.56844,0
23570,-1.10448,0.112548,1.58978,0
23590,-1.27132,0.110813,1.60724,0
23610,-1.44141,0.126765,1.61351,0
23630,-1.55283,0.153705,1.60179,0
23650,-1.55642,0.153837,1.57127,0
23670,-1.47007,0.110698,1.51628,0
23690,-1.34619,0.08068,1.48302,0
23710,-1.25293,0.0570663,1.48577,0
23730,-1.20294,0.0353952,1.50236,0
23750,-1.19864,0.0121348,1.51722,0
23770,-1.20021,-0.0187448,1.51034,0
23790,-1.21711,-0.0624862,1.487,0
23810,-1.25455,-0.0984015,1.46413,0
23830,-1.26171,-0.130717,1.41905,0
23850,-1.23768,-0.148035,1.38116,0
23870,-1.18418,-0.13711,1.3796,0
23890,-1.14203,-0.132349,1.44239,0
23910,-1.10978,-0.132206,1.5424,0
23930,-1.09448,-0.137268,1.65095,0
23950,-1.09435,-0.15417,1.7349,0
23970,-1.09013,-0.185322,1.77872,0
23990,-1.06961,-0.223532,1.79406,0
24010,-1.02783,-0.268638,1.78617,0
24030,-0.98458,-0.316855,1.75794,0
24050,-0.973695,-0.36171,1.72364,0
24070,-0.979524,-0.414247,1.67851,0
24090,-1.00637,-0.463376,1.62881,0
24110,-1.04821,-0.50058,1.58796,0
24130,-1.10192,-0.52428,1.56903,0
24150,-1.16638,-0.533627,1.56973,0
24170,-1.23378,-0.531148,1.58527,0
24190,-1.30722,-0.517946,1.60886,0
24210,-1.38194,-0.50045,1.63297,0
24230,-1.44775,-0.487184,1.65758,0
24250,-1.49102,-0.484822,1.68053,0
24270,-1.49956,-0.490411,1.68897,0
24290,-1.47347,-0.502686,1.68748,0
24310,-1.43225,-0.52288,1.67861,0
24330,-1.38995,-0.545467,1.66849,0
24350,-1.35788,-0.568386,1.65871,0
24370,-1.32684,-0.592879,1.65121,0
24390,-1.30598,-0.613446,1.63844,0
24410,-1.29972,-0.628645,1.62155,0
24430,-1.29777,-0.633374,1.59805,0
24450,-1.29785,-0.633473,1.57085,0
24470,-1.29369,-0.624275,1.5379,0
24490,-1.27927,-0.609528,1.50285,0
24510,-1.25529,-0.58987,1.46675,0
24530,-1.23652,-0.566237,1.43568,0
24550,-1.22031,-0.535324,1.40484,0
24570,-1.19724,-0.508841,1.37485,0
24590,-1.16742,-0.480976,1.3457,0
24610,-1.13862,-0.452435,1.32329,0
24630,-1.11176,-0.423186,1.30941,0
24650,-1.0938,-0.383911,1.30818,0
24670,-1.07634,-0.348431,1.31819,0
24690,-1.05723,-0.315095,1.33415,0
24710,-1.03865,-0.280372,1.3551,0
24730,-1.02383,-0.248146,1.3812,0
24750,-1.00918,-0.216649,1.41361,0
24770,-0.996647,-0.183849,1.45051,0
24790,-0.982363,-0.155167,1.48677,0
24810,-0.970399,-0.132937,1.52139,0
24830,-0.962491,-0.110668,1.55774,0
24850,-0.957627,-0.0877787,1.59393,0
24870,-0.952375,-0.064715,1.62464,0
24890,-0.945446,-0.0389478,1.65152,0
24910,-0.933314,-0.00954183,1.67528,0
24930,-0.922464,0.0251446,1.69762,0
24950,-0.91248,0.063217,1.71708,0
24970,-0.906533,0.100933,1.73694,0
24990,-0.909981,0.139979,1.7569,0
25010,-0.924859,0.182287,1.77272,0
25030,-0.948388,0.228739,1.78406,0
25050,-0.982787,0.28139,1.78679,0
25070,-1.06104,0.285157,1.76633,0
25090,-1.06672,0.23316,1.73135,0
25110,-1.07021,0.239577,1.72277,0
25130,-1.0504,0.264743,1.70562,0
25150,-1.03561,0.283139,1.68453,0
25170,-1.06202,0.296935,1.67325,0
25190,-1.10582,0.307212,1.67347,0
25210,-1.14615,0.31016,1.67361,0
25230,-1.1848,0.317603,1.67532,0
25250,-1.21421,0.323715,1.68294,0
25270,-1.2399,0.327394,1.69326,0
25290,-1.25727,0.33247,1.70679,0
25310,-1.26401,0.341856,1.71965,0
25330,-1.26126,0.353396,1.73111,0
25350,-1.25396,0.366358,1.74104,0
25370,-1.24287,0.381961,1.74965,0
25390,-1.23158,0.397252,1.75417,0
25410,-1.22002,0.409614,1.75449,0
25430,-1.20685,0.421283,1.75266,0
25450,-1.19353,0.434468,1.75198,0
25470,-1.17625,0.447691,1.75438,0
25490,-1.16216,0.458266,1.75576,0
25510,-1.15091,0.468806,1.75582,0
25530,-1.14644,0.478659,1.75567,0
25550,-1.14591,0.486803,1.75501,0
25560,-1.1465,0.492267,1.75337,0
25580,-1.14634,0.495573,1.7512,0
25600,-1.14181,0.496829,1.74892,0
25620,-1.13389,0.49602,1.74661,0
25640,-1.12687,0.493926,1.74486,0
25660,-1.12055,0.492316,1.74332,0
25680,-1.11595,0.4916,1.74218,0
25700,-1.1185,0.492143,1.74239,0
25720,-1.12621,0.493041,1.74476,0
25740,-1.13634,0.492805,1.74718,0
25760,-1.14658,0.49128,1.74886,0
25780,-1.1519,0.490729,1.75058,0
25800,-1.15335,0.49192,1.75247,0
25820,-1.15411,0.493387,1.7543,0
25840,-1.15526,0.493652,1.75523,0
25860,-1.15777,0.492796,1.75468,0
25880,-1.15818,0.494393,1.75311,0
25900,-1.15757,0.49666,1.75262,0
25920,-1.15662,0.498781,1.75223,0
25940,-1.15761,0.501133,1.75211,0
25960,-1.15969,0.50265,1.75198,0
25980,-1.16016,0.503237,1.75204,0
26000,-1.15856,0.503028,1.75191,0
26020,-1.15598,0.501686,1.75114,0
26040,-1.15394,0.498517,1.7503,0
26060,-1.15101,0.496079,1.74907,0
26080,-1.14801,0.495002,1.74905,0
26100,-1.14496,0.495206,1.74966,0
26120,-1.14247,0.496836,1.75085,0
26140,-1.1412,0.498129,1.75238,0
26160,-1.13881,0.49807,1.75442,0
26180,-1.13517,0.497208,1.757,0
26200,-1.13082,0.496042,1.75826,0
26220,-1.12843,0.495221,1.75877,0
26240,-1.12598,0.494443,1.75876,0
26260,-1.12317,0.493769,1.7589,0
26280,-1.11924,0.49387,1.75928,0
26300,-1.11538,0.494613,1.76063,0
26320,-1.11105,0.49563,1.76276,0
26340,-1.1066,0.49661,1.7651,0
26360,-1.10232,0.496553,1.76737,0
26380,-1.0986,0.495797,1.76859,0
26400,-1.09502,0.495037,1.76814,0
26420,-1.09291,0.494263,1.76628,0
26440,-1.09128,0.493444,1.76415,0
26460,-1.08991,0.49282,1.76239,0
26480,-1.08984,0.492425,1.76141,0
26500,-1.09044,0.49258,1.76036,0
26520,-1.09199,0.493779,1.75939,0
26540,-1.09563,0.495054,1.75874,0
26560,-1.09921,0.495886,1.75747,0
26580,-1.10228,0.496381,1.75511,0
26600,-1.10574,0.496987,1.75127,0
26620,-1.11104,0.497419,1.74631,0
26640,-1.11804,0.497361,1.74084,0
26660,-1.12511,0.497224,1.73529,0
26680,-1.13243,0.497342,1.73077,0
26700,-1.13957,0.497872,1.72677,0
26720,-1.14732,0.498673,1.72293,0
26740,-1.1572,0.49927,1.71845,0
26760,-1.1632,0.500324,1.71457,0
26780,-1.16528,0.500411,1.71074,0
26800,-1.16575,0.499937,1.70693,0
26820,-1.16618,0.498332,1.7031,0
26840,-1.16884,0.496548,1.69935,0
26860,-1.17082,0.496258,1.69649,0
26880,-1.17173,0.497244,1.69486,0
26900,-1.17463,0.499213,1.69325,0
26920,-1.17998,0.502297,1.69136,0
26940,-1.18675,0.505019,1.68916,0
26960,-1.19217,0.5065,1.68736,0
26980,-1.19627,0.507291,1.68631,0
27000,-1.19869,0.507616,1.68485,0
27020,-1.20174,0.508233,1.6831,0
27040,-1.20652,0.50849,1.68164,0
27060,-1.21156,0.508201,1.68044,0
27080,-1.21606,0.508384,1.67974,0
27100,-1.21812,0.509409,1.67941,0
27120,-1.21676,0.510869,1.67951,0
27140,-1.21226,0.512075,1.68007,0
27160,-1.20666,0.511865,1.68127,0
27180,-1.2017,0.510513,1.68276,0
27200,-1.19718,0.508698,1.68359,0
27220,-1.19289,0.507309,1.68368,0
27240,-1.19009,0.506917,1.68438,0
27260,-1.18917,0.507448,1.68528,0
27280,-1.19,0.508385,1.68703,0
27300,-1.19143,0.508751,1.68862,0
27320,-1.19152,0.509758,1.6902,0
27340,-1.19006,0.51125,1.69116,0
27360,-1.18768,0.512656,1.69186,0
27380,-1.18445,0.512938,1.69229,0
27400,-1.17985,0.511707,1.69264,0
27420,-1.17435,0.510133,1.69224,0
27440,-1.16638,0.508693,1.69122,0
27460,-1.15664,0.508376,1.69032,0
27480,-1.14616,0.510186,1.69042,0
27500,-1.1394,0.512626,1.69195,0
27520,-1.13849,0.514447,1.69368,0
27540,-1.14173,0.514208,1.69396,0
27560,-1.14541,0.51226,1.69243,0
27580,-1.14625,0.510054,1.6903,0
27600,-1.14566,0.508743,1.68854,0
27620,-1.1465,0.507573,1.68758,0
27640,-1.14946,0.506042,1.68768,0
27660,-1.15287,0.502526,1.68737,0
27680,-1.15259,0.498907,1.6872,0
27700,-1.14802,0.497263,1.68936,0
27720,-1.13852,0.498799,1.69428,0
27740,-1.1312,0.502143,1.70056,0
27760,-1.1264,0.505098,1.70664,0
27780,-1.12282,0.505524,1.7125,0
27800,-1.11673,0.504201,1.7176,0
27820,-1.10735,0.503541,1.72176,0
27840,-1.09679,0.503345,1.72483,0
27860,-1.08639,0.502476,1.72715,0
27880,-1.07733,0.501027,1.728,0
27900,-1.06878,0.500593,1.72797,0
27920,-1.06119,0.502013,1.72779,0
27940,-1.05472,0.50368,1.72876,0
27960,-1.04899,0.50414,1.73093,0
27980,-1.04395,0.502273,1.73355,0
28000,-1.03883,0.499618,1.73565,0
28020,-1.03146,0.49682,1.73718,0
28040,-1.02309,0.494499,1.7378,0
28060,-1.01516,0.492559,1.738,0
28080,-1.00912,0.491244,1.7381,0
28100,-1.00476,0.489641,1.73761,0
28120,-1.00218,0.487073,1.73659,0
28130,-1.00048,0.482556,1.73507,0
28150,-0.997438,0.478675,1.734,0
28170,-0.993888,0.476406,1.73327,0
28190,-0.990407,0.475326,1.73302,0
28210,-0.987533,0.475055,1.73284,0
28230,-0.985524,0.475703,1.73247,0
28250,-0.986481,0.476908,1.731,0
28270,-0.989988,0.478484,1.72928,0
28290,-0.995573,0.47948,1.72767,0
28310,-1.00431,0.479875,1.72616,0
28330,-1.01524,0.480427,1.72412,0
28350,-1.02847,0.481202,1.72185,0
28370,-1.04395,0.481884,1.71897,0
28390,-1.0595,0.482735,1.71545,0
28410,-1.07248,0.482906,1.71197,0
28430,-1.08108,0.481775,1.70839,0
28450,-1.08527,0.480355,1.7055,0
28470,-1.08721,0.480148,1.70366,0
28490,-1.08615,0.481197,1.70352,0
28510,-1.08257,0.483211,1.70486,0
28530,-1.07702,0.486379,1.70713,0
28550,-1.0701,0.489433,1.70967,0
28570,-1.0622,0.492114,1.71208,0
28590,-1.05444,0.493886,1.71422,0
28610,-1.04669,0.495171,1.7163,0
28630,-1.03897,0.496456,1.7179,0
28650,-1.03172,0.49859,1.7193,0
28670,-1.02603,0.501006,1.72025,0
28690,-1.0232,0.502478,1.72032,0
28710,-1.02254,0.504003,1.72005,0
28730,-1.0238,0.505348,1.71943,0
28750,-1.02537,0.505853,1.71845,0
28770,-1.02782,0.505976,1.71719,0
28790,-1.0314,0.505647,1.71656,0
28810,-1.03719,0.504717,1.7157,0
28830,-1.04342,0.504024,1.71466,0
28850,-1.05027,0.503957,1.71316,0
28870,-1.05655,0.504075,1.71148,0
28890,-1.06121,0.50438,1.71077,0
28910,-1.06462,0.50468,1.71075,0
28930,-1.06691,0.504907,1.711,0
28950,-1.06731,0.505371,1.7113,0
28970,-1.06555,0.505645,1.71168,0
28990,-1.0632,0.506138,1.71196,0
29010,-1.06097,0.507219,1.71228,0
29030,-1.05942,0.508273,1.71229,0
29050,-1.05866,0.508587,1.71207,0
29070,-1.05828,0.508387,1.71191,0
29090,-1.05839,0.508324,1.71197,0
29110,-1.05904,0.508167,1.71181,0
29130,-1.06095,0.508313,1.71113,0
29150,-1.06349,0.50879,1.71033,0
29170,-1.06576,0.508546,1.70942,0
29190,-1.06795,0.508044,1.70881,0
29210,-1.06804,0.507787,1.70891,0
29230,-1.06845,0.507004,1.70839,0
29250,-1.07052,0.504804,1.70724,0
29270,-1.07267,0.501411,1.70662,0
29290,-1.07529,0.497378,1.70596,0
29310,-1.0787,0.493098,1.70523,0
29330,-1.0825,0.489131,1.7034,0
29350,-1.08686,0.486349,1.70079,0
29370,-1.09036,0.484254,1.69762,0
29390,-1.09244,0.483264,1.6943,0
29410,-1.09349,0.483392,1.69102,0
29430,-1.09296,0.484291,1.68798,0
29450,-1.09075,0.485916,1.68587,0
29470,-1.08737,0.487551,1.68406,0
29490,-1.08401,0.48898,1.68282,0
29510,-1.08203,0.490258,1.68186,0
29530,-1.08151,0.490638,1.68116,0
29550,-1.08295,0.489367,1.68057,0
29570,-1.08748,0.48734,1.67915,0
29590,-1.09205,0.484535,1.6776,0
29610,-1.09677,0.480652,1.6755,0
29630,-1.10308,0.476296,1.67243,0
29650,-1.11108,0.472166,1.66966,0
29670,-1.12043,0.468803,1.66665,0
29690,-1.12907,0.467015,1.66374,0
29710,-1.13711,0.466215,1.66087,0
29730,-1.14311,0.466159,1.65917,0
29750,-1.14736,0.465925,1.6587,0
29770,-1.14978,0.466235,1.65889,0
29790,-1.15001,0.467121,1.65917,0
29810,-1.14927,0.469056,1.65938,0
29830,-1.14802,0.471602,1.65941,0
29850,-1.14584,0.474263,1.65993,0
29870,-1.14386,0.476504,1.66045,0
29890,-1.1406,0.478345,1.66074,0
29910,-1.13668,0.480436,1.66083,0
29930,-1.13252,0.482273,1.66093,0
29950,-1.12889,0.482867,1.66136,0
29970,-1.12647,0.482812,1.66169,0
29990,-1.12478,0.482563,1.66197,0
30010,-1.12465,0.482815,1.66178,0
30030,-1.12478,0.483745,1.66149,0
30050,-1.12459,0.484929,1.66216,0
30070,-1.1239,0.485737,1.66309,0
30090,-1.12324,0.486613,1.6642,0
30110,-1.12281,0.487749,1.66533,0
30130,-1.12182,0.489299,1.66627,0
30150,-1.12213,0.491025,1.66654,0
30170,-1.12302,0.493189,1.66733,0
30190,-1.12342,0.495099,1.66814,0
30210,-1.12525,0.495696,1.66833,0
30230,-1.12483,0.495527,1.66818,0
30250,-1.12329,0.494758,1.66767,0
30270,-1.12236,0.494242,1.66684,0
30290,-1.12246,0.494475,1.66601,0
30310,-1.12294,0.495291,1.66513,0
30330,-1.12246,0.496112,1.66449,0
30350,-1.12148,0.496744,1.66398,0
30370,-1.12078,0.497413,1.66361,0
30390,-1.1209,0.498153,1.66338,0
30410,-1.12106,0.499053,1.66309,0
30430,-1.12181,0.499817,1.6626,0
30450,-1.12353,0.499964,1.66211,0
30470,-1.12538,0.499544,1.66219,0
30490,-1.12816,0.498211,1.66205,0
30510,-1.12981,0.496717,1.66196,0
30530,-1.13139,0.495254,1.66181,0
30550,-1.13276,0.494146,1.6615,0
30570,-1.13458,0.492648,1.66124,0
30590,-1.13634,0.491075,1.66071,0
30610,-1.13734,0.489732,1.66026,0
30630,-1.13815,0.489192,1.65962,0
30650,-1.13914,0.489009,1.65911,0
30670,-1.13949,0.489032,1.6588,0
30690,-1.13948,0.488819,1.65834,0
30710,-1.13949,0.488888,1.65852,0
30720,-1.13854,0.488636,1.65869,0
30740,-1.13782,0.488347,1.65874,0
30760,-1.13743,0.488822,1.65853,0
30780,-1.13749,0.489484,1.65803,0
30800,-1.13861,0.490632,1.65756,0
30820,-1.13987,0.491652,1.65704,0
30840,-1.14181,0.492472,1.6564,0
30860,-1.14394,0.492798,1.65555,0
30880,-1.14629,0.49239,1.65508,0
30900,-1.14836,0.49188,1.65437,0
30920,-1.15095,0.491435,1.65378,0
30940,-1.1538,0.491372,1.65296,0
30960,-1.15587,0.491265,1.65258,0
30980,-1.15691,0.491086,1.65216,0
31000,-1.15678,0.491036,1.65182,0
31020,-1.15621,0.49122,1.65167,0
31040,-1.15522,0.491558,1.65203,0
31060,-1.15471,0.491669,1.65228,0
31080,-1.15372,0.492007,1.65264,0
31100,-1.15302,0.492086,1.65301,0
31120,-1.1523,0.491972,1.65343,0
31140,-1.15183,0.491942,1.65349,0
31160,-1.1518,0.491977,1.65349,0
31180,-1.15196,0.492072,1.65349,0
31200,-1.15148,0.491366,1.65361,0
31220,-1.15074,0.490657,1.65376,0
31240,-1.14961,0.490269,1.65385,0
31260,-1.14802,0.49015,1.65413,0
31280,-1.14676,0.490332,1.65467,0
31300,-1.14504,0.490484,1.65527,0
31320,-1.14357,0.490599,1.65575,0
31340,-1.14202,0.49066,1.65649,0
31360,-1.14087,0.490625,1.65725,0
31380,-1.13937,0.490546,1.65778,0
31400,-1.13761,0.490518,1.65794,0
31420,-1.13642,0.490684,1.65804,0
31440,-1.13582,0.491078,1.65829,0
31460,-1.13467,0.491423,1.65885,0
31480,-1.13286,0.491637,1.6594,0
31500,-1.13095,0.491305,1.66014,0
31520,-1.12841,0.490809,1.66084,0
31540,-1.12524,0.490377,1.66148,0
31560,-1.12172,0.490147,1.66239,0
31580,-1.11736,0.489985,1.66335,0
31600,-1.11277,0.49014,1.66407,0
31620,-1.10743,0.490335,1.66492,0
31640,-1.10267,0.490238,1.66573,0
31660,-1.09856,0.490145,1.6668,0
31680,-1.09559,0.489722,1.66779,0
31700,-1.09384,0.489934,1.66846,0
31720,-1.093,0.490012,1.66904,0
31740,-1.09302,0.489309,1.66959,0
31760,-1.09454,0.488372,1.66994,0
31780,-1.09641,0.487823,1.67031,0
31800,-1.09877,0.487693,1.67051,0
31820,-1.10168,0.487858,1.67086,0
31840,-1.10459,0.488062,1.67131,0
31860,-1.10725,0.488077,1.67185,0
31880,-1.10907,0.487989,1.67208,0
31900,-1.10987,0.488525,1.67275,0
31920,-1.11026,0.488932,1.67337,0
31940,-1.11038,0.489667,1.67419,0
31960,-1.11027,0.49004,1.67479,0
31980,-1.1103,0.490316,1.67545,0
32000,-1.11005,0.490749,1.67592,0
32020,-1.11055,0.49108,1.67608,0
32040,-1.11134,0.49096,1.67628,0
32060,-1.1123,0.490733,1.67609,0
32080,-1.11306,0.490631,1.67578,0
32100,-1.11435,0.490791,1.67554,0
32120,-1.11644,0.491149,1.6752,0
32140,-1.119,0.49154,1.67481,0
32160,-1.12209,0.49136,1.67467,0
32180,-1.12619,0.491219,1.67448,0
32200,-1.13059,0.491328,1.67387,0
32220,-1.13444,0.491539,1.67346,0
32240,-1.13727,0.491521,1.67315,0
32260,-1.1392,0.491701,1.67309,0
32280,-1.14118,0.49204,1.67296,0
32300,-1.14327,0.492845,1.673,0
32320,-1.14448,0.493514,1.67312,0
32340,-1.14485,0.494082,1.67352,0
32360,-1.14401,0.49448,1.67379,0
32380,-1.14332,0.495229,1.67411,0
32400,-1.14233,0.495856,1.67462,0
32420,-1.1415,0.496025,1.67493,0
32440,-1.13977,0.495864,1.67541,0
32460,-1.13833,0.495826,1.67569,0
32480,-1.13685,0.495629,1.67603,0
32500,-1.1355,0.495459,1.67619,0
32520,-1.13433,0.4952,1.67648,0
32540,-1.13393,0.495097,1.67652,0
32560,-1.13361,0.495161,1.67658,0
32580,-1.13347,0.494836,1.67663,0
32600,-1.13293,0.494153,1.67667,0
32620,-1.13216,0.493699,1.67678,0
32640,-1.13218,0.493768,1.67696,0
32660,-1.13203,0.493672,1.67697,0
32680,-1.13096,0.493751,1.67766,0
32700,-1.12958,0.493934,1.6785,0
32720,-1.12871,0.494413,1.67941,0
32740,-1.12779,0.494732,1.68039,0
32760,-1.12718,0.495072,1.68098,0
32780,-1.12619,0.495398,1.68135,0
32800,-1.12469,0.495531,1.68186,0
32820,-1.12413,0.495629,1.68205,0
32840,-1.12413,0.495629,1.68205,0
32860,-1.12398,0.495532,1.68205,0
32880,-1.12413,0.495629,1.68205,0
32900,-1.12413,0.495629,1.68205,0
32920,-1.12398,0.495532,1.68205,0
32940,-1.12401,0.495498,1.68204,0
32960,-1.12401,0.495498,1.68204,0
32980,-1.1236,0.495539,1.68237,0
33000,-1.12346,0.495511,1.68256,0
33020,-1.12258,0.495775,1.683,0
33040,-1.12208,0.495947,1.68346,0
33060,-1.1214,0.496057,1.68393,0
33080,-1.12134,0.496298,1.68433,0
33100,-1.12124,0.49636,1.68427,0
33120,-1.12124,0.49636,1.68427,0
33140,-1.12134,0.496298,1.68433,0
33160,-1.12155,0.49647,1.6846,0
33180,-1.12196,0.496573,1.68456,0
33200,-1.12196,0.496573,1.68456,0
33220,-1.12181,0.496476,1.68456,0
33240,-1.12212,0.496586,1.68489,0
33260,-1.122,0.496454,1.68488,0
33280,-1.122,0.496454,1.68488,0
33290,-1.12143,0.496779,1.68503,0
33310,-1.12129,0.49743,1.68517,0
33330,-1.12105,0.497761,1.68545,0
33350,-1.12105,0.497761,1.68545,0
33370,-1.12105,0.497761,1.68545,0
33390,-1.12105,0.497761,1.68545,0
33410,-1.12102,0.497795,1.68546,0
33430,-1.12118,0.497892,1.68545,0
33450,-1.12029,0.497685,1.68537,0
33470,-1.11935,0.497873,1.68555,0
33490,-1.11847,0.497582,1.6858,0
33510,-1.11786,0.497098,1.68615,0
33530,-1.11683,0.496584,1.68664,0
33550,-1.11571,0.495906,1.68711,0
33570,-1.11466,0.49558,1.68747,0
33590,-1.1137,0.49542,1.68785,0
33610,-1.1137,0.49542,1.68785,0
33630,-1.11402,0.494975,1.68797,0
33650,-1.11498,0.494561,1.68784,0
33670,-1.11629,0.494243,1.68758,0
33690,-1.11728,0.493919,1.68719,0
33710,-1.11821,0.493817,1.68668,0
33730,-1.11857,0.493914,1.68656,0
33750,-1.1189,0.494198,1.6863,0
33770,-1.1189,0.494198,1.6863,0
33790,-1.11809,0.494135,1.68667,0
33810,-1.11686,0.494197,1.68704,0
33830,-1.11527,0.494668,1.68711,0
33850,-1.11378,0.495528,1.68724,0
33870,-1.11181,0.495834,1.68725,0
33890,-1.11084,0.496057,1.68745,0
33910,-1.111,0.49645,1.68759,0
33930,-1.11098,0.496381,1.6874,0
33950,-1.11123,0.496416,1.68746,0
33970,-1.11303,0.496451,1.68684,0
33990,-1.11504,0.496811,1.68634,0
34010,-1.11677,0.49717,1.6858,0
34030,-1.11786,0.497461,1.68543,0
34050,-1.11842,0.497661,1.68539,0
34070,-1.11901,0.497951,1.68509,0
34090,-1.11937,0.498345,1.68511,0
34110,-1.11937,0.498345,1.68511,0
34130,-1.11862,0.498339,1.68522,0
34150,-1.11816,0.498305,1.68529,0
34170,-1.11801,0.498783,1.68505,0
34190,-1.1176,0.49936,1.68505,0
34210,-1.11668,0.49957,1.6848,0
34230,-1.11535,0.499554,1.68482,0
34250,-1.11535,0.499554,1.68482,0
34270,-1.11535,0.499554,1.68482,0
34290,-1.11568,0.499684,1.68471,0
34310,-1.11567,0.499615,1.68452,0
34330,-1.11567,0.499615,1.68452,0
34350,-1.11625,0.499501,1.68485,0
34370,-1.11674,0.499347,1.68492,0
34390,-1.11674,0.499347,1.68492,0
34410,-1.11598,0.499063,1.68542,0
34430,-1.11519,0.499109,1.68607,0
34450,-1.11456,0.499252,1.68672,0
34470,-1.11418,0.499554,1.68719,0
34490,-1.11415,0.499588,1.6872,0
34510,-1.11415,0.499588,1.6872,0
34530,-1.11427,0.499423,1.68706,0
34550,-1.11504,0.49948,1.6866,0
34570,-1.11607,0.499525,1.68558,0
34590,-1.11667,0.499673,1.685,0
34610,-1.11742,0.499957,1.6845,0
34630,-1.11869,0.500454,1.6844,0
34650,-1.12094,0.500941,1.68459,0
34670,-1.12326,0.501035,1.68453,0
34690,-1.1242,0.500723,1.68459,0
34710,-1.12352,0.500391,1.68462,0
34730,-1.12309,0.500238,1.68501,0
34750,-1.12363,0.500563,1.68569,0
34770,-1.12471,0.500721,1.686,0
34790,-1.126,0.500314,1.68599,0
34810,-1.1261,0.500252,1.68605,0
34830,-1.12609,0.500182,1.68587,0
34850,-1.12621,0.500314,1.68587,0
34870,-1.12647,0.500176,1.68555,0
34890,-1.12585,0.500196,1.68547,0
34910,-1.12491,0.500681,1.68579,0
34930,-1.12398,0.500908,1.68606,0
34950,-1.12347,0.500783,1.68637,0
34970,-1.1228,0.500366,1.68674,0
34990,-1.12271,0.50022,1.68725,0
35010,-1.12289,0.500046,1.68772,0
35030,-1.12341,0.49988,1.68831,0
35050,-1.12471,0.499536,1.68893,0
35070,-1.12672,0.499515,1.69003,0
35090,-1.12893,0.499602,1.69122,0
35110,-1.13019,0.499381,1.69152,0
35130,-1.13085,0.498949,1.69178,0
35150,-1.13199,0.499047,1.69208,0
35170,-1.13275,0.499356,1.69212,0
35190,-1.1334,0.49913,1.69181,0
35210,-1.1334,0.49913,1.69181,0
35230,-1.1334,0.49913,1.69181,0
35250,-1.13297,0.498508,1.69122,0
35270,-1.13129,0.497554,1.69014,0
35290,-1.12836,0.496446,1.68894,0
35310,-1.12558,0.495587,1.68804,0
35330,-1.12316,0.495252,1.68789,0
35350,-1.12157,0.495043,1.688,0
35370,-1.12007,0.495449,1.68812,0
35390,-1.1181,0.496078,1.68836,0
35410,-1.11533,0.496261,1.68916,0
35430,-1.11258,0.49596,1.68996,0
35450,-1.11014,0.495825,1.69066,0
35470,-1.10843,0.495952,1.6913,0
35490,-1.10703,0.495824,1.69193,0
35510,-1.10541,0.495243,1.69267,0
35530,-1.10376,0.494851,1.69329,0
35550,-1.10212,0.494755,1.69405,0
35570,-1.10048,0.494658,1.69482,0
35590,-1.09853,0.494171,1.69564,0
35610,-1.0968,0.493909,1.69639,0
35630,-1.09503,0.493329,1.69734,0
35650,-1.09357,0.493138,1.69823,0
35670,-1.09183,0.493396,1.69909,0
35690,-1.09008,0.493754,1.70015,0
35710,-1.08838,0.493719,1.70095,0
35730,-1.08737,0.493662,1.70198,0
35750,-1.08648,0.493694,1.7024,0
35770,-1.08578,0.493858,1.70299,0
35790,-1.08508,0.493854,1.70319,0
35810,-1.08471,0.493855,1.70351,0
35830,-1.08471,0.493855,1.70351,0
35850,-1.08471,0.493855,1.70351,0
35860,-1.0847,0.493945,1.70318,0
35880,-1.0847,0.493945,1.70318,0
35900,-1.0847,0.493945,1.70318,0
35920,-1.08522,0.493873,1.70247,0
35940,-1.08565,0.493806,1.70212,0
35960,-1.08638,0.493608,1.70152,0
35980,-1.08646,0.493284,1.70144,0
36000,-1.08699,0.492996,1.70129,0
36020,-1.08775,0.492776,1.7012,0
36040,-1.08861,0.49262,1.70094,0
36060,-1.08938,0.492595,1.70081,0
36080,-1.08972,0.492921,1.70065,0
36100,-1.09068,0.493448,1.70061,0
36120,-1.09172,0.493778,1.70024,0
36140,-1.09288,0.493818,1.69998,0
36160,-1.09354,0.493981,1.69955,0
36180,-1.0943,0.494339,1.69924,0
36200,-1.0955,0.494665,1.69868,0
36220,-1.09689,0.494899,1.69824,0
36240,-1.09826,0.494939,1.69786,0
36260,-1.09902,0.495126,1.69716,0
36280,-1.10011,0.49532,1.69659,0
36300,-1.1013,0.495451,1.69608,0
36320,-1.10248,0.495683,1.69576,0
36340,-1.10394,0.495592,1.69525,0
36360,-1.10496,0.495532,1.69499,0
36380,-1.10639,0.495474,1.69449,0
36400,-1.10786,0.496442,1.69481,0
36420,-1.10999,0.498326,1.69583,0
36440,-1.11374,0.500344,1.69707,0
36460,-1.11655,0.50268,1.69825,0
36480,-1.11863,0.504486,1.69945,0
36500,-1.11903,0.506187,1.70035,0
36520,-1.11845,0.509207,1.70133,0
36540,-1.11586,0.512075,1.70286,0
36560,-1.11134,0.514358,1.70469,0
36580,-1.10629,0.516227,1.70618,0
36600,-1.09924,0.517174,1.70652,0
36620,-1.09109,0.516367,1.70491,0
36640,-1.08065,0.514214,1.70248,0
36660,-1.06882,0.513523,1.70106,0
36680,-1.05764,0.515635,1.70157,0
36700,-1.05286,0.517572,1.70315,0
36720,-1.05546,0.517493,1.70385,0
36740,-1.06255,0.51616,1.70242,0
36760,-1.06931,0.515631,1.70006,0
36780,-1.07253,0.516133,1.69905,0
36800,-1.07443,0.516175,1.69862,0
36820,-1.07584,0.51559,1.69788,0
36840,-1.07462,0.515576,1.69757,0
36860,-1.07285,0.516948,1.69892,0
36880,-1.07054,0.518906,1.7006,0
36900,-1.0707,0.521466,1.70161,0
36920,-1.07069,0.523656,1.70196,0
36940,-1.07035,0.525024,1.70182,0
36960,-1.06965,0.525202,1.70086,0
36980,-1.06846,0.523694,1.69809,0
37000,-1.06671,0.519856,1.69349,0
37020,-1.06387,0.513888,1.68863,0
37040,-1.06082,0.507471,1.68434,0
37060,-1.05799,0.503518,1.68147,0
37080,-1.05568,0.501619,1.68027,0
37100,-1.05726,0.499662,1.67936,0
37120,-1.06505,0.497403,1.67812,0
37140,-1.0801,0.49778,1.67693,0
37160,-1.10143,0.499801,1.67741,0
37180,-1.12081,0.498576,1.67927,0
37200,-1.13245,0.49265,1.68196,0
37220,-1.13438,0.481834,1.68421,0
37240,-1.12776,0.465109,1.68514,0
37260,-1.11291,0.445958,1.68278,0
37280,-1.09374,0.431085,1.67616,0
37300,-1.07531,0.422332,1.6666,0
37320,-1.06112,0.418778,1.65524,0
37340,-1.05158,0.41756,1.64495,0
37360,-1.04415,0.419969,1.63732,0
37380,-1.03999,0.425906,1.63279,0
37400,-1.03873,0.433152,1.6318,0
37420,-1.03741,0.440539,1.63371,0
37440,-1.03442,0.446619,1.63693,0
37460,-1.02948,0.452396,1.64117,0
37480,-1.02497,0.457263,1.64647,0
37500,-1.02358,0.46137,1.65201,0
37520,-1.0243,0.465578,1.65755,0
37540,-1.02769,0.469409,1.66196,0
37560,-1.03279,0.472518,1.66489,0
37580,-1.03864,0.474822,1.66625,0
37600,-1.04465,0.476514,1.66637,0
37620,-1.0502,0.477944,1.66533,0
37640,-1.05529,0.479002,1.66346,0
37660,-1.05994,0.479577,1.66114,0
37680,-1.06503,0.480051,1.65891,0
37700,-1.0703,0.479866,1.65661,0
37720,-1.07508,0.479199,1.65431,0
37740,-1.07927,0.47886,1.65211,0
37760,-1.08265,0.478723,1.64974,0
37780,-1.0854,0.478917,1.64738,0
37800,-1.0876,0.479025,1.64527,0
37820,-1.0896,0.478487,1.64341,0
37840,-1.09157,0.477854,1.6418,0
37860,-1.09419,0.477111,1.64024,0
37880,-1.09732,0.47671,1.63892,0
37900,-1.10063,0.476569,1.63804,0
37920,-1.10375,0.476727,1.63743,0
37940,-1.1059,0.476995,1.63663,0
37960,-1.10714,0.477547,1.63621,0
37980,-1.10787,0.477622,1.63577,0
38000,-1.1082,0.47745,1.63552,0
38020,-1.10833,0.476968,1.63576,0
38040,-1.10739,0.476422,1.63682,0
38060,-1.10578,0.475867,1.63857,0
38080,-1.10276,0.474346,1.64105,0
38100,-1.09751,0.472159,1.64425,0
38120,-1.09023,0.470071,1.64821,0
38140,-1.0838,0.467792,1.65184,0
38160,-1.07862,0.464422,1.65551,0
38180,-1.07402,0.459715,1.65824,0
38200,-1.06883,0.454693,1.65948,0
38220,-1.06447,0.450499,1.65956,0
38240,-1.06209,0.44766,1.65848,0
38260,-1.06118,0.445829,1.656,0
38280,-1.06152,0.444171,1.65286,0
38300,-1.0623,0.442985,1.65018,0
38320,-1.06289,0.442757,1.64828,0
38340,-1.06373,0.443737,1.64656,0
38360,-1.06485,0.445476,1.64561,0
38380,-1.06715,0.447023,1.64511,0
38400,-1.06902,0.44845,1.64499,0
38420,-1.06967,0.449973,1.64516,0
38430,-1.06844,0.451444,1.64545,0
38450,-1.06681,0.452605,1.64524,0
38470,-1.06515,0.454349,1.64473,0
38490,-1.06293,0.456815,1.6442,0
38510,-1.06176,0.459388,1.64293,0
38530,-1.06204,0.461159,1.6418,0
38550,-1.06294,0.462527,1.63997,0
38570,-1.06418,0.463991,1.63745,0
38590,-1.06556,0.465006,1.63415,0
38610,-1.06713,0.465368,1.63027,0
38630,-1.0694,0.465096,1.62643,0
38650,-1.0712,0.464255,1.6224,0
38670,-1.07379,0.462711,1.61847,0
38690,-1.07709,0.46033,1.61471,0
38710,-1.08047,0.457834,1.61093,0
38730,-1.08387,0.456042,1.60779,0
38750,-1.08716,0.455206,1.605,0
38770,-1.09095,0.454507,1.60308,0
38790,-1.09508,0.454078,1.60199,0
38810,-1.09867,0.45377,1.60158,0
38830,-1.1009,0.453972,1.60203,0
38850,-1.10209,0.454121,1.60279,0
38870,-1.10333,0.454141,1.60336,0
38890,-1.1062,0.454258,1.60339,0
38910,-1.11006,0.454715,1.60258,0
38930,-1.11447,0.455822,1.60122,0
38950,-1.11896,0.457692,1.59956,0
38970,-1.12381,0.460126,1.59777,0
38990,-1.12929,0.462313,1.59618,0
39010,-1.13436,0.46407,1.59484,0
39030,-1.13858,0.465178,1.59343,0
39050,-1.14218,0.466405,1.59207,0
39070,-1.14529,0.468064,1.59056,0
39090,-1.14827,0.46961,1.58955,0
39110,-1.15157,0.470838,1.58905,0
39130,-1.15342,0.471259,1.58903,0
39150,-1.15417,0.471213,1.58943,0
39170,-1.15357,0.471573,1.58997,0
39190,-1.1534,0.472689,1.59039,0
39210,-1.15459,0.474283,1.59095,0
39230,-1.15472,0.475809,1.59231,0
39250,-1.1548,0.476382,1.59313,0
39270,-1.15277,0.475966,1.59433,0
39290,-1.15145,0.476438,1.59574,0
39310,-1.15132,0.476933,1.59699,0
39330,-1.15044,0.476763,1.59691,0
39350,-1.14884,0.477073,1.59592,0
39370,-1.14705,0.477621,1.595,0
39390,-1.14672,0.477627,1.59487,0
39410,-1.14595,0.477286,1.59567,0
39430,-1.14454,0.476626,1.59709,0
39450,-1.1434,0.475782,1.59921,0
39470,-1.14379,0.475026,1.60148,0
39490,-1.14459,0.475186,1.60339,0
39510,-1.14589,0.476028,1.60467,0
39530,-1.14755,0.476058,1.60496,0
39550,-1.14808,0.476666,1.60523,0
39570,-1.1473,0.477517,1.60596,0
39590,-1.14599,0.476963,1.60681,0
39610,-1.14483,0.475947,1.60748,0
39630,-1.14295,0.474677,1.6077,0
39650,-1.14131,0.473626,1.60786,0
39670,-1.14004,0.47335,1.60833,0
39690,-1.13979,0.473323,1.60826,0
39710,-1.14011,0.473318,1.60839,0
39730,-1.14011,0.473318,1.60839,0
39750,-1.14021,0.472386,1.60866,0
39770,-1.13928,0.472208,1.60951,0
39790,-1.13832,0.471993,1.61019,0
39810,-1.13799,0.472477,1.61106,0
39830,-1.13793,0.473111,1.61175,0
39850,-1.13864,0.473984,1.61246,0
39870,-1.13999,0.474003,1.61312,0
39890,-1.141,0.473733,1.61353,0
39910,-1.14201,0.473551,1.61362,0
39930,-1.14336,0.47335,1.61333,0
39950,-1.14541,0.473179,1.61245,0
39970,-1.14726,0.473086,1.61186,0
39990,-1.14801,0.472669,1.61145,0
40010,-1.14849,0.472102,1.61122,0
40030,-1.14924,0.472082,1.61112,0
40050,-1.15042,0.472288,1.61134,0
40070,-1.15173,0.472537,1.61188,0
40090,-1.15212,0.472643,1.61234,0
40110,-1.15203,0.473488,1.6134,0
40130,-1.15158,0.473766,1.61459,0
40150,-1.15126,0.474085,1.61611,0
40170,-1.15098,0.47429,1.61896,0
40190,-1.14948,0.474489,1.62196,0
40210,-1.14706,0.474283,1.62681,0
40230,-1.14388,0.474143,1.63432,0
40250,-1.13997,0.472649,1.64549,0
40270,-1.13309,0.470605,1.65874,0
40290,-1.12727,0.466969,1.67337,0
40310,-1.12152,0.460897,1.68905,0
40330,-1.11464,0.454911,1.70401,0
40350,-1.10793,0.448498,1.7185,0
40370,-1.10234,0.440312,1.73269,0
40390,-1.0969,0.433836,1.74759,0
40410,-1.0919,0.426089,1.76599,0
40430,-1.08453,0.4144,1.78973,0
40450,-1.07178,0.396759,1.81986,0
40470,-1.0578,0.369959,1.85538,0
40490,-1.04172,0.337752,1.89568,0
40510,-1.024,0.303086,1.93859,0
40530,-1.00523,0.262535,1.98087,0
40550,-0.992109,0.221009,2.02238,0
40570,-0.98901,0.180541,2.06277,0
40590,-0.992261,0.142341,2.10144,0
40610,-1.00255,0.107501,2.13684,0
40630,-1.01532,0.0782514,2.16678,0
40650,-1.0253,0.050508,2.19235,0
40670,-1.03457,0.0270156,2.21514,0
40690,-1.04628,0.00948807,2.23311,0
40710,-1.05476,-0.00250519,2.2463,0
40730,-1.05845,-0.00960153,2.25885,0
40750,-1.06464,-0.0150713,2.26884,0
40770,-1.07376,-0.0188194,2.27291,0
40790,-1.0837,-0.0175892,2.27303,0
40810,-1.09566,-0.014261,2.27301,0
40830,-1.11108,-0.0100819,2.27227,0
40850,-1.1279,-0.00460921,2.26797,0
40850,-1.14156,7.15852e-05,2.2638,0
40870,-1.15461,0.0023391,2.26187,0
40890,-1.16462,0.00366596,2.2593,0
40910,-1.17401,0.00185374,2.25346,0
40930,-1.17624,-0.000419468,2.25065,0
40950,-1.17675,0.000633419,2.24599,0
40970,-1.16458,0.00024122,2.24639,0
40990,-1.15515,-0.0180096,2.24939,0
41010,-1.14649,-0.0461834,2.25138,0
41040,-1.1411,-0.073162,2.25703,0
41060,-1.13329,-0.097627,2.2571,0
41070,-1.11762,-0.118212,2.24886,0
41090,-1.09976,-0.129191,2.24938,0
41120,-1.07453,-0.138355,2.2527,0
41140,-1.05881,-0.156324,2.25387,0
41160,-1.05926,-0.173676,2.249,0
41180,-1.06804,-0.187532,2.24513,0
41200,-1.08495,-0.201088,2.24529,0
41220,-1.10801,-0.208546,2.24398,0
41240,-1.12224,-0.214765,2.23915,0
41260,-1.12785,-0.215679,2.23495,0
41280,-1.1299,-0.211427,2.23177,0
41300,-1.13108,-0.210828,2.2275,0
41320,-1.13073,-0.213024,2.22766,0
41340,-1.1223,-0.215249,2.23207,0
41360,-1.10747,-0.218338,2.2354,0
41380,-1.09114,-0.221295,2.23962,0
41390,-1.08685,-0.225623,2.24539,0
41410,-1.0873,-0.230343,2.25482,0
41430,-1.08745,-0.235686,2.26297,0
41430,-1.08276,-0.239602,2.27052,0
41480,-1.07263,-0.243681,2.27969,0
41490,-1.05946,-0.250188,2.28739,0
41510,-1.04843,-0.256146,2.29256,0
41530,-1.03792,-0.261145,2.29789,0
41530,-1.02527,-0.267277,2.3029,0
41550,-1.01148,-0.272113,2.30668,0
41570,-1.00188,-0.271651,2.3074,0
41590,-0.995699,-0.265234,2.30924,0
41610,-0.991816,-0.257475,2.31547,0
41610,-0.985565,-0.247214,2.32334,0
41630,-0.978041,-0.237785,2.33012,0
41650,-0.971649,-0.231803,2.33503,0
41650,-0.965462,-0.230282,2.33592,0
41700,-0.956286,-0.228367,2.33442,0
41750,-0.944424,-0.224639,2.33474,0
41780,-0.932389,-0.222082,2.33436,0
41800,-0.921272,-0.217582,2.32859,0
41820,-0.907201,-0.207802,2.32594,0
41840,-0.894718,-0.202115,2.32266,0
41860,-0.882338,-0.202043,2.31588,0
41880,-0.871729,-0.199609,2.30687,0
41900,-0.861353,-0.19465,2.29859,0
41920,-0.85299,-0.189331,2.29319,0
41940,-0.846274,-0.184799,2.28838,0
41960,-0.843064,-0.179786,2.28107,0
41980,-0.841538,-0.173936,2.27323,0
42000,-0.84108,-0.169268,2.26673,0
42010,-0.83975,-0.167181,2.26054,0
42030,-0.837949,-0.167156,2.25473,0
42050,-0.836111,-0.168938,2.24997,0
42050,-0.833428,-0.172274,2.24623,0
42070,-0.831966,-0.177653,2.24225,0
42090,-0.831063,-0.183753,2.24072,0
42110,-0.830769,-0.190517,2.24183,0
42110,-0.830562,-0.1975,2.24287,0
42130,-0.828922,-0.205512,2.24325,0
42150,-0.827664,-0.213717,2.24362,0
42150,-0.826389,-0.220039,2.24328,0
42210,-0.826212,-0.227047,2.24455,0
42250,-0.825851,-0.229519,2.24324,0
42280,-0.824819,-0.228593,2.24107,0
42300,-0.821076,-0.22724,2.24161,0
42320,-0.818046,-0.222356,2.24033,0
42340,-0.814496,-0.215501,2.23802,0
42360,-0.807519,-0.209658,2.23408,0
42380,-0.797514,-0.204319,2.23,0
42400,-0.788075,-0.201203,2.22788,0
42410,-0.780762,-0.19961,2.22554,0
42430,-0.77458,-0.199124,2.22328,0
42450,-0.770921,-0.198945,2.22167,0
42450,-0.770384,-0.201304,2.22062,0
42490,-0.770503,-0.205072,2.21848,0
42520,-0.77226,-0.20887,2.21499,0
42550,-0.775353,-0.217998,2.2097,0
42570,-0.775907,-0.224989,2.20774,0
42590,-0.777041,-0.233317,2.20418,0
42610,-0.77749,-0.242933,2.20184,0
42630,-0.779473,-0.252652,2.20196,0
42650,-0.782796,-0.261831,2.20304,0
42670,-0.787272,-0.271222,2.20622,0
42690,-0.792108,-0.281075,2.21093,0
42710,-0.797755,-0.290841,2.21698,0
42730,-0.803596,-0.299798,2.2221,0
42750,-0.809196,-0.307045,2.22711,0
42770,-0.814196,-0.313164,2.2311,0
42790,-0.818084,-0.3171,2.23059,0
42810,-0.819892,-0.319544,2.2268,0
42830,-0.820391,-0.320272,2.22032,0
42850,-0.819396,-0.319595,2.21067,0
42870,-0.817535,-0.316573,2.19641,0
42890,-0.814293,-0.312736,2.17843,0
42910,-0.80972,-0.308694,2.15719,0
42930,-0.804974,-0.304024,2.13468,0
42950,-0.800446,-0.298994,2.11075,0
42970,-0.794271,-0.293413,2.08537,0
42990,-0.787319,-0.288978,2.06273,0
43010,-0.781065,-0.285665,2.04384,0
43030,-0.776556,-0.282951,2.02735,0
43050,-0.77273,-0.282612,2.01295,0
43070,-0.769912,-0.285104,2.00061,0
43090,-0.768573,-0.287592,1.98846,0
43110,-0.767521,-0.289247,1.97647,0
43130,-0.766227,-0.290142,1.96673,0
43150,-0.765584,-0.29095,1.96124,0
43170,-0.765799,-0.292239,1.95988,0
43190,-0.767472,-0.292602,1.96059,0
43210,-0.770184,-0.292515,1.9618,0
43220,-0.774236,-0.292874,1.96465,0
43240,-0.778955,-0.292964,1.96776,0
43240,-0.785108,-0.291883,1.97093,0
43260,-0.791561,-0.290156,1.97283,0
43280,-0.797968,-0.286045,1.97089,0
43300,-0.806802,-0.281787,1.9697,0
43320,-0.817487,-0.281112,1.97078,0
43340,-0.824196,-0.271147,1.96908,0
43370,-0.835668,-0.266215,1.96815,0
43400,-0.847494,-0.271909,1.96799,0
43420,-0.856666,-0.281865,1.96891,0
43440,-0.865072,-0.293473,1.97141,0
43460,-0.872198,-0.30644,1.97243,0
43480,-0.876848,-0.313419,1.97334,0
43500,-0.885133,-0.29505,1.97328,0
43520,-0.893656,-0.285321,1.97107,0
43540,-0.894615,-0.298275,1.96668,0
43560,-0.907702,-0.274145,1.96385,0
43580,-0.907982,-0.286852,1.95869,0
43600,-0.919159,-0.271449,1.9565,0
43620,-0.927457,-0.257471,1.95373,0
43640,-0.925928,-0.268544,1.94828,0
43660,-0.927774,-0.27632,1.94301,0
43680,-0.936276,-0.268966,1.94035,0
43700,-0.948819,-0.253107,1.93958,0
43720,-0.963425,-0.234063,1.93917,0
43740,-0.978624,-0.214057,1.93865,0
43760,-0.99176,-0.197517,1.93732,0
43780,-1.0007,-0.190083,1.9366,0
43800,-0.998553,-0.197377,1.93468,0
43820,-0.985875,-0.211892,1.93009,0
43840,-0.983846,-0.208911,1.92793,0
43860,-1.00008,-0.192713,1.93026,0
43880,-0.995695,-0.201037,1.92892,0
43900,-0.985959,-0.20472,1.92654,0
43920,-1.00258,-0.192286,1.92932,0
43940,-0.984638,-0.206719,1.92401,0
43960,-1.00001,-0.191572,1.92715,0
43980,-0.980852,-0.205592,1.92268,0
44000,-0.998134,-0.194594,1.92563,0
44020,-0.983973,-0.198194,1.921,0
44040,-0.982461,-0.206262,1.91955,0
44060,-1.00058,-0.192077,1.92227,0
44080,-0.986451,-0.19397,1.91724,0
44100,-0.973949,-0.206885,1.91263,0
44120,-0.992199,-0.198973,1.91445,0
44140,-0.996403,-0.186966,1.91303,0
44160,-0.975767,-0.195703,1.9062,0
44180,-0.976216,-0.201895,1.904,0
44200,-0.995739,-0.188043,1.90609,0
44220,-0.989285,-0.183238,1.90196,0
44220,-0.971342,-0.196849,1.89483,0
44260,-0.982815,-0.196595,1.89468,0
44280,-0.999753,-0.182047,1.89544,0
44300,-1.00118,-0.192338,1.895,0
44320,-1.00142,-0.192742,1.89374,0
44340,-1.00204,-0.191682,1.8913,0
44360,-1.00228,-0.19021,1.88937,0
44380,-1.00284,-0.188887,1.8875,0
44400,-1.0038,-0.187382,1.88568,0
44420,-1.00693,-0.181115,1.88496,0
44440,-0.99887,-0.196651,1.88122,0
44460,-1.00258,-0.185154,1.87975,0
44480,-0.983447,-0.194855,1.87406,0
44500,-0.985814,-0.200725,1.87338,0
44520,-1.00708,-0.189645,1.87647,0
44540,-1.01693,-0.174643,1.87734,0
44560,-1.00254,-0.174643,1.87289,0
44580,-0.985572,-0.186222,1.86792,0
44600,-0.989855,-0.190342,1.86848,0
44620,-0.986382,-0.198248,1.86726,0
44640,-0.986811,-0.195409,1.86729,0
44660,-0.987668,-0.193088,1.86695,0
44680,-0.987691,-0.190648,1.86597,0
44700,-0.98759,-0.187934,1.86506,0
44720,-0.987782,-0.185068,1.86425,0
44740,-0.988562,-0.181816,1.86334,0
44760,-0.99009,-0.178641,1.8631,0
44780,-0.99169,-0.176008,1.86277,0
44800,-0.992945,-0.173458,1.86251,0
44820,-0.994777,-0.170675,1.86306,0
44840,-0.997113,-0.168403,1.86367,0
44860,-0.998485,-0.166624,1.86388,0
44880,-0.99962,-0.164815,1.86386,0
44900,-1.00082,-0.162943,1.86429,0
44920,-1.0021,-0.161792,1.86504,0
44940,-1.00288,-0.160815,1.86544,0
44960,-1.00245,-0.160169,1.86539,0
44980,-1.00184,-0.159898,1.86564,0
45000,-1.0018,-0.159665,1.86569,0
45020,-1.00187,-0.1594,1.86571,0
45040,-1.00211,-0.158552,1.86517,0
45060,-1.00204,-0.157757,1.86441,0
45080,-1.00219,-0.157536,1.86441,0
45100,-1.00265,-0.156539,1.86413,2000
45120,-1.0021,-0.155281,1.86348,0
45140,-1.00135,-0.154217,1.86315,0
45160,-1.00149,-0.153481,1.86292,0
45180,-1.0018,-0.152363,1.86258,0
45200,-1.00217,-0.15127,1.86236,0
45220,-1.00226,-0.151105,1.86251,0
45240,-1.00243,-0.150937,1.86248,0
45260,-1.0023,-0.150869,1.86239,0
45280,-1.00185,-0.151108,1.8625,0
45300,-1.00226,-0.150972,1.8627,0
45320,-1.00299,-0.150916,1.86293,0
45340,-1.00405,-0.150466,1.86331,0
45360,-1.00514,-0.15025,1.86362,0
45380,-1.00598,-0.149955,1.86355,0
45400,-1.00628,-0.149127,1.86331,0
45420,-1.0066,-0.148002,1.86359,0
45440,-1.00658,-0.147822,1.86362,0
45460,-1.00508,-0.147096,1.86378,0
45480,-1.00435,-0.146555,1.8635,0
45500,-1.00474,-0.145905,1.86305,0
45520,-1.00547,-0.144919,1.86253,0
45540,-1.00568,-0.143922,1.86189,0
45560,-1.00529,-0.143388,1.86118,0
45580,-1.0056,-0.142694,1.86075,0
45600,-1.00623,-0.142211,1.86034,0
45620,-1.0066,-0.14185,1.85998,0
45640,-1.00685,-0.141942,1.85957,0
45660,-1.00735,-0.1422,1.8592,0
45680,-1.00812,-0.142172,1.85911,0
45700,-1.00908,-0.142014,1.85976,0
45720,-1.00988,-0.142157,1.86025,0
45740,-1.01024,-0.142472,1.86022,0
45760,-1.01027,-0.142102,1.86029,0
45780,-1.01065,-0.142119,1.86078,0
45800,-1.01074,-0.142035,1.86076,0
45820,-1.01074,-0.142035,1.86076,0
45840,-1.01067,-0.141832,1.86068,0
45860,-1.01067,-0.141832,1.86068,0
45880,-1.01158,-0.141737,1.86087,0
45900,-1.01193,-0.141999,1.86086,0
45920,-1.01201,-0.141915,1.86085,0
45940,-1.0115,-0.142423,1.86076,0
45960,-1.01151,-0.142476,1.86073,0
45980,-1.0116,-0.14252,1.86071,0
46000,-1.01275,-0.14307,1.86039,0
46020,-1.01384,-0.14334,1.85997,0
46040,-1.01477,-0.142969,1.85945,0
46060,-1.01506,-0.141962,1.85924,0
46080,-1.01554,-0.14097,1.85897,0
46100,-1.01638,-0.139953,1.85859,0
46120,-1.01694,-0.138742,1.8585,0
46140,-1.01771,-0.137463,1.8585,0
46150,-1.01868,-0.136117,1.8586,0
46170,-1.01971,-0.135319,1.85843,0
46190,-1.01813,-0.134839,1.85919,0
46210,-1.01633,-0.13605,1.85968,0
46230,-1.01481,-0.136473,1.85962,0
46250,-1.01536,-0.136667,1.85972,0
46270,-1.01553,-0.137096,1.85974,0
46290,-1.01502,-0.13751,1.86043,0
46310,-1.01495,-0.138232,1.86109,0
46330,-1.01595,-0.138907,1.86156,0
46350,-1.01741,-0.139268,1.86164,0
46370,-1.01797,-0.13986,1.86135,0
46390,-1.01776,-0.140268,1.86133,0
46410,-1.01776,-0.140268,1.86133,0
46430,-1.01868,-0.140436,1.86132,0
46450,-1.01906,-0.140329,1.86138,0
46470,-1.01906,-0.140329,1.86138,0
46490,-1.01852,-0.140656,1.86133,0
46510,-1.01852,-0.140656,1.86133,0
46530,-1.0187,-0.139803,1.86158,0
46550,-1.01876,-0.139134,1.86217,0
46570,-1.01876,-0.139134,1.86217,0
46590,-1.01885,-0.139051,1.86215,0
46610,-1.01858,-0.138558,1.86295,0
46630,-1.01874,-0.138108,1.86392,0
46650,-1.01908,-0.138088,1.86491,0
46670,-1.0189,-0.138365,1.86598,0
46690,-1.01819,-0.138703,1.86738,0
46710,-1.01786,-0.139184,1.86927,0
46730,-1.01798,-0.139759,1.8713,0
46750,-1.01803,-0.140483,1.8727,0
46770,-1.01784,-0.141114,1.87452,0
46790,-1.01846,-0.141946,1.87619,0
46810,-1.01828,-0.142162,1.87792,0
46830,-1.01781,-0.142399,1.87975,0
46850,-1.01749,-0.142965,1.88148,0
46870,-1.01746,-0.143513,1.88311,0
46890,-1.01785,-0.143712,1.88468,0
46910,-1.01878,-0.143506,1.88585,0
46930,-1.01958,-0.143697,1.88743,0
46950,-1.02029,-0.143837,1.88922,0
46970,-1.02052,-0.144327,1.89125,0
46990,-1.0211,-0.145156,1.89312,0
47010,-1.02141,-0.14577,1.89498,0
47030,-1.02168,-0.146439,1.89699,0
47050,-1.02109,-0.147641,1.89854,0
47070,-1.02053,-0.148889,1.90024,0
47090,-1.02052,-0.150267,1.90208,0
47110,-1.02098,-0.151029,1.90388,0
47130,-1.02159,-0.15191,1.90574,0
47150,-1.02221,-0.152707,1.90733,0
47170,-1.02302,-0.153045,1.90923,0
47190,-1.02432,-0.153149,1.91088,0
47210,-1.02545,-0.153297,1.91257,0
47230,-1.02567,-0.153344,1.91442,0
47250,-1.02585,-0.153998,1.91634,0
47270,-1.02583,-0.154862,1.91796,0
47290,-1.02598,-0.155681,1.91955,0
47310,-1.02613,-0.156653,1.92143,0
47330,-1.02546,-0.157995,1.92337,0
47350,-1.02486,-0.159626,1.92523,0
47370,-1.02447,-0.161389,1.92703,0
47390,-1.02449,-0.163004,1.92904,0
47410,-1.02496,-0.16492,1.93085,0
47430,-1.02499,-0.166535,1.93287,0
47450,-1.02465,-0.168275,1.93482,0
47470,-1.02412,-0.170091,1.93667,0
47490,-1.02423,-0.171705,1.93851,0
47510,-1.02461,-0.173183,1.94031,0
47530,-1.02461,-0.175079,1.94213,0
47550,-1.02439,-0.176942,1.94392,0
47570,-1.02471,-0.17901,1.94612,0
47590,-1.02477,-0.180792,1.94784,0
47610,-1.0241,-0.18287,1.94959,0
47630,-1.02409,-0.185189,1.95174,0
47650,-1.0245,-0.187695,1.95374,0
47670,-1.02468,-0.190102,1.95568,0
47690,-1.02414,-0.192357,1.95723,0
47710,-1.02377,-0.194634,1.95851,0
47730,-1.02353,-0.196572,1.95986,0
47750,-1.02259,-0.198353,1.96146,0
47770,-1.02194,-0.200247,1.96275,0
47790,-1.02195,-0.202029,1.96354,0
47810,-1.02223,-0.203683,1.96471,0
47830,-1.02168,-0.205319,1.96589,0
47850,-1.02156,-0.206855,1.96725,0
47870,-1.02277,-0.208569,1.9685,0
47890,-1.02327,-0.210189,1.96933,0
47910,-1.023,-0.211779,1.96989,0
47930,-1.02249,-0.213474,1.97105,0
47950,-1.02224,-0.215186,1.97247,0
47970,-1.02282,-0.217117,1.97374,0
47990,-1.02308,-0.21898,1.97497,0
48010,-1.02316,-0.22098,1.97606,0
48030,-1.02343,-0.222605,1.97716,0
48050,-1.02359,-0.223845,1.97819,0
48060,-1.02377,-0.225777,1.97895,0
48080,-1.02326,-0.227933,1.97905,0
48100,-1.02259,-0.22967,1.97974,0
48120,-1.02177,-0.23168,1.97999,0
48140,-1.02141,-0.233846,1.98023,0
48160,-1.02136,-0.235445,1.98075,0
48180,-1.02164,-0.236813,1.98121,0
48200,-1.02164,-0.238588,1.98173,0
48220,-1.02146,-0.240661,1.98241,0
48240,-1.02127,-0.242377,1.98302,0
48260,-1.02075,-0.243509,1.98377,0
48280,-1.02071,-0.244631,1.98401,0
48300,-1.02048,-0.245693,1.98435,0
48320,-1.02033,-0.246967,1.98477,0
48340,-1.01955,-0.248561,1.9847,0
48360,-1.01871,-0.249441,1.98438,0
48380,-1.01755,-0.250932,1.98408,0
48400,-1.01551,-0.252748,1.98353,0
48420,-1.01317,-0.254717,1.98321,0
48440,-1.01083,-0.257204,1.98273,0
48460,-1.00923,-0.259738,1.9823,0
48480,-1.0093,-0.262425,1.98199,0
48500,-1.00954,-0.264755,1.98155,0
48520,-1.00938,-0.266829,1.9814,0
48540,-1.0097,-0.268752,1.98097,0
48560,-1.01008,-0.270425,1.98019,0
48580,-1.01082,-0.271766,1.97966,0
48600,-1.01105,-0.272614,1.9788,0
48620,-1.01034,-0.273552,1.97774,0
48640,-1.0094,-0.274451,1.97654,0
48660,-1.0082,-0.275588,1.9749,0
48680,-1.00723,-0.276796,1.97284,0
48700,-1.00621,-0.278071,1.97093,0
48720,-1.00558,-0.279451,1.96927,0
48740,-1.00486,-0.2811,1.9678,0
48760,-1.00458,-0.282653,1.96653,0
48780,-1.00519,-0.284144,1.96534,0
48800,-1.00596,-0.285901,1.96411,0
48820,-1.00713,-0.287307,1.96325,0
48840,-1.00822,-0.288684,1.96248,0
48860,-1.00912,-0.290543,1.96207,0
48880,-1.00963,-0.292619,1.9614,0
48900,-1.01077,-0.294954,1.96021,0
48920,-1.01111,-0.296773,1.95842,0
48940,-1.01067,-0.298647,1.95701,0
48950,-1.00925,-0.300761,1.95504,0
48970,-1.00864,-0.302706,1.95333,0
48990,-1.0077,-0.304873,1.95085,0
49010,-1.00619,-0.306878,1.94788,0
49030,-1.00445,-0.308944,1.94513,0
49050,-1.00342,-0.310707,1.94237,0
49070,-1.00251,-0.312133,1.93926,0
49090,-1.00153,-0.313555,1.9355,0
49110,-1.00091,-0.314973,1.93196,0
49130,-1.0013,-0.316038,1.92887,0
49150,-1.00141,-0.316684,1.92588,0
49170,-1.00084,-0.317804,1.92289,0
49190,-0.999672,-0.319889,1.91967,0
49210,-0.999027,-0.322545,1.91676,0
49230,-0.998767,-0.324494,1.91413,0
49250,-0.998169,-0.32612,1.91131,0
49270,-0.997726,-0.327191,1.90849,0
49290,-0.997034,-0.327575,1.90576,0
49310,-0.995893,-0.328026,1.90315,0
49330,-0.994241,-0.328489,1.90088,0
49350,-0.993051,-0.328941,1.89846,0
49370,-0.991746,-0.329394,1.89559,0
49390,-0.990508,-0.329603,1.89322,0
49410,-0.989088,-0.330445,1.89067,0
49430,-0.987986,-0.33189,1.88802,0
49450,-0.987103,-0.333419,1.88497,0
49470,-0.985866,-0.334604,1.88203,0
49490,-0.984489,-0.336112,1.87863,0
49510,-0.98353,-0.337774,1.87476,0
49530,-0.982327,-0.339081,1.87064,0
49550,-0.981344,-0.340474,1.86614,0
49570,-0.980309,-0.341966,1.86134,0
49590,-0.978708,-0.343717,1.856,0
49610,-0.977082,-0.345241,1.85038,0
49630,-0.975698,-0.346268,1.84459,0
49650,-0.973705,-0.347003,1.83817,0
49670,-0.972022,-0.347445,1.83206,0
49690,-0.970128,-0.348192,1.82598,0
49710,-0.968655,-0.348945,1.81997,0
49730,-0.966905,-0.349236,1.81364,0
49750,-0.964474,-0.350018,1.80726,0
49770,-0.96205,-0.351095,1.80103,0
49790,-0.959507,-0.352477,1.7953,0
49810,-0.956882,-0.354235,1.78972,0
49830,-0.954259,-0.355986,1.78414,0
49850,-0.952027,-0.357628,1.77866,0
49870,-0.950209,-0.359284,1.77324,0
49890,-0.948708,-0.360714,1.76809,0
49910,-0.946653,-0.362041,1.76279,0
49930,-0.944579,-0.363443,1.75733,0
49950,-0.942352,-0.364796,1.75207,0
49970,-0.940434,-0.366131,1.74692,0
49990,-0.938519,-0.367461,1.74177,0
50010,-0.936585,-0.368866,1.73647,0
50030,-0.934184,-0.370274,1.73082,0
50050,-0.931424,-0.37116,1.72486,0
50070,-0.929368,-0.371608,1.71927,0
50090,-0.926907,-0.372286,1.71345,0
50110,-0.924106,-0.373149,1.70769,0
50130,-0.921079,-0.374134,1.70167,0
50150,-0.918151,-0.375643,1.69573,0
50170,-0.915398,-0.376984,1.68978,0
50190,-0.913105,-0.377971,1.68394,0
50210,-0.910679,-0.378865,1.67801,0
50230,-0.908082,-0.380175,1.67191,0
50250,-0.905896,-0.381191,1.66608,0
50270,-0.903467,-0.382143,1.66003,0
50290,-0.90109,-0.383295,1.65365,0
50310,-0.898517,-0.384588,1.6467,0
50330,-0.896162,-0.385826,1.63989,0
50350,-0.893378,-0.387094,1.63287,0
50370,-0.890682,-0.38841,1.6257,0
50390,-0.888037,-0.389926,1.61821,0
50410,-0.885063,-0.391577,1.61048,0
50430,-0.882108,-0.392952,1.60296,0
50450,-0.878663,-0.393804,1.5952,0
50470,-0.875529,-0.394657,1.58753,0
50490,-0.872308,-0.395707,1.57974,0
50510,-0.869144,-0.397145,1.57158,0
50530,-0.866105,-0.398419,1.5636,0
50550,-0.863634,-0.399377,1.55616,0
50570,-0.861823,-0.40027,1.54907,0
50590,-0.860328,-0.401096,1.54167,0
50610,-0.858525,-0.401789,1.53422,0
50630,-0.856028,-0.402724,1.52701,0
50650,-0.853716,-0.40364,1.51978,0
50670,-0.850991,-0.404808,1.5123,0
50690,-0.848257,-0.406054,1.50524,0
50710,-0.845901,-0.406756,1.49826,0
50730,-0.842981,-0.407697,1.49131,0
50750,-0.840295,-0.408891,1.484,0
50770,-0.837537,-0.40957,1.47632,0
50790,-0.834739,-0.410218,1.46903,0
50810,-0.832102,-0.411311,1.46192,0
50830,-0.829304,-0.412272,1.45502,0
50850,-0.827399,-0.413335,1.44866,0
50870,-0.825538,-0.413745,1.44217,0
50890,-0.823609,-0.413965,1.4364,0
50910,-0.821952,-0.414672,1.43039,0
50930,-0.820706,-0.415646,1.42441,0
50950,-0.818783,-0.416483,1.41854,0
50970,-0.816445,-0.417427,1.413,0
50990,-0.815032,-0.418277,1.40775,0
51010,-0.813613,-0.418766,1.40247,0
51030,-0.811558,-0.419513,1.39683,0
51050,-0.810114,-0.419778,1.39147,0
51070,-0.808793,-0.42033,1.38661,0
51090,-0.806878,-0.420435,1.38124,0
51110,-0.805248,-0.420471,1.37584,0
51130,-0.804164,-0.42045,1.37069,0
51150,-0.803006,-0.42042,1.36568,0
51170,-0.802291,-0.420404,1.3609,0
51190,-0.801602,-0.421032,1.35635,0
51210,-0.801663,-0.421477,1.35206,0
51230,-0.801525,-0.421816,1.34781,0
51250,-0.800507,-0.422425,1.34358,0
51270,-0.799261,-0.423358,1.33928,0
51290,-0.799409,-0.423888,1.33497,0
51300,-0.799459,-0.423584,1.33113,0
51320,-0.798434,-0.423708,1.32795,0
51340,-0.796284,-0.424766,1.32519,0
51360,-0.794835,-0.425501,1.32244,0
51380,-0.794419,-0.425669,1.31881,0
51400,-0.792666,-0.42603,1.31476,0
51420,-0.790291,-0.426412,1.31105,0
51440,-0.787298,-0.42723,1.30728,0
51460,-0.78418,-0.428181,1.30336,0
51480,-0.781071,-0.429299,1.2991,0
51500,-0.777431,-0.430741,1.29458,0
51520,-0.774045,-0.43191,1.28973,0
51540,-0.771946,-0.432165,1.28536,0
51560,-0.769212,-0.432396,1.28067,0
51580,-0.766313,-0.432608,1.27605,0
51600,-0.762773,-0.433194,1.27135,0
51620,-0.760314,-0.433705,1.26712,0
51640,-0.758889,-0.433433,1.26255,0
51660,-0.75761,-0.432897,1.25851,0
51680,-0.756555,-0.432395,1.25478,0
51700,-0.756379,-0.431712,1.25198,0
51720,-0.757207,-0.430863,1.24882,0
51740,-0.758749,-0.429388,1.24552,0
51760,-0.759604,-0.427379,1.243,0
51780,-0.760484,-0.425786,1.24149,0
51800,-0.761946,-0.425077,1.23978,0
51820,-0.763026,-0.424614,1.23756,0
51840,-0.764327,-0.424661,1.23525,0
51860,-0.766174,-0.424856,1.23327,0
51880,-0.767425,-0.425028,1.23176,0
51900,-0.76767,-0.425077,1.2302,0
51920,-0.767794,-0.424674,1.2288,0
51940,-0.767004,-0.424156,1.22724,0
51960,-0.766118,-0.423445,1.22614,0
51980,-0.764048,-0.422237,1.22531,0
52000,-0.76176,-0.420942,1.22418,0
52020,-0.757865,-0.419878,1.22244,0
52040,-0.754376,-0.419466,1.2203,0
52060,-0.750007,-0.419327,1.21775,0
52080,-0.745238,-0.419235,1.21521,0
52100,-0.740719,-0.419575,1.21254,0
52120,-0.736703,-0.419912,1.20996,0
52140,-0.732971,-0.419821,1.20699,0
52160,-0.729841,-0.419117,1.20385,0
52180,-0.728528,-0.417684,1.20117,0
52200,-0.727624,-0.416187,1.19893,0
52220,-0.727384,-0.414934,1.19697,0
52240,-0.727204,-0.413419,1.19522,0
52260,-0.727313,-0.412297,1.1938,0
52280,-0.727503,-0.410794,1.19253,0
52300,-0.727716,-0.409007,1.1925,0
52320,-0.727635,-0.407689,1.19304,0
52340,-0.727162,-0.406635,1.19369,0
52360,-0.727975,-0.405144,1.19484,0
52380,-0.728967,-0.403082,1.1967,0
52400,-0.730117,-0.40109,1.19868,0
52420,-0.731851,-0.399281,1.2007,0
52440,-0.733764,-0.396601,1.20251,0
52460,-0.735397,-0.393806,1.20523,0
52480,-0.736428,-0.391954,1.20784,0
52500,-0.736677,-0.390978,1.21039,0
52520,-0.737311,-0.390412,1.21271,0
52540,-0.738065,-0.390708,1.21427,0
52560,-0.738166,-0.390647,1.21567,0
52580,-0.737342,-0.39109,1.21723,0
52600,-0.736678,-0.39204,1.21802,0
52620,-0.735456,-0.392871,1.21836,0
52640,-0.734913,-0.39389,1.21862,0
52660,-0.734574,-0.39474,1.21889,0
52680,-0.733561,-0.395188,1.21897,0
52700,-0.733131,-0.395353,1.21948,0
52720,-0.732863,-0.395195,1.2202,0
52740,-0.731466,-0.394955,1.22055,0
52760,-0.730123,-0.394738,1.22107,0
52780,-0.728977,-0.394568,1.22187,0
52800,-0.728158,-0.394263,1.22292,0
52820,-0.727985,-0.394128,1.22492,0
52840,-0.727058,-0.393888,1.22595,0
52860,-0.725968,-0.392955,1.22716,0
52880,-0.724787,-0.39185,1.22842,0
52900,-0.723479,-0.391047,1.22961,0
52920,-0.722242,-0.390873,1.23098,0
52940,-0.720294,-0.391163,1.23243,0
52960,-0.71866,-0.391731,1.23369,0
52980,-0.716665,-0.392174,1.23505,0
53000,-0.714361,-0.393357,1.23662,0
53020,-0.711934,-0.3954,1.23856,0
53040,-0.71028,-0.398022,1.24019,0
53060,-0.708905,-0.400047,1.24135,0
53080,-0.70835,-0.402099,1.24289,0
53100,-0.708543,-0.403998,1.24467,0
53120,-0.707873,-0.405901,1.24655,0
53140,-0.706212,-0.407773,1.24874,0
53160,-0.705488,-0.410064,1.25048,0
53170,-0.70536,-0.41161,1.25242,0
53190,-0.705665,-0.412447,1.25483,0
53210,-0.705364,-0.41348,1.25723,0
53230,-0.705001,-0.414728,1.25985,0
53250,-0.705695,-0.415914,1.26247,0
53270,-0.706609,-0.41634,1.26481,0
53290,-0.707532,-0.416473,1.26655,0
53310,-0.708396,-0.415614,1.26854,0
53330,-0.708736,-0.414045,1.27058,0
53350,-0.708128,-0.411568,1.27236,0
53370,-0.70694,-0.409222,1.2741,0
53390,-0.705515,-0.40628,1.27528,0
53410,-0.704243,-0.403592,1.27636,0
53430,-0.70399,-0.400566,1.27757,0
53450,-0.7042,-0.397771,1.27896,0
53470,-0.704646,-0.395512,1.28008,0
53490,-0.704859,-0.393562,1.28002,0
53510,-0.705808,-0.391214,1.27928,0
53530,-0.706503,-0.388347,1.27804,0
53550,-0.706937,-0.384742,1.27648,0
53570,-0.706156,-0.380817,1.27484,0
53590,-0.705558,-0.377579,1.27348,0
53610,-0.704132,-0.37474,1.27195,0
53630,-0.703485,-0.372272,1.27126,0
53650,-0.703542,-0.370609,1.27143,0
53670,-0.703199,-0.370256,1.27158,0
53690,-0.702333,-0.369938,1.27199,0
53710,-0.703426,-0.370448,1.27255,0
53730,-0.704537,-0.370891,1.27324,0
53750,-0.704876,-0.370852,1.27369,0
53770,-0.705096,-0.370261,1.27491,0
53790,-0.705771,-0.368884,1.27705,0
53810,-0.705115,-0.367642,1.27993,0
53830,-0.703036,-0.366719,1.28251,0
53850,-0.702645,-0.366393,1.28579,0
53870,-0.702111,-0.365992,1.28929,0
53890,-0.70111,-0.36516,1.29349,0
53910,-0.700346,-0.365265,1.29841,0
53930,-0.700801,-0.366192,1.30284,0
53950,-0.702336,-0.366273,1.3072,0
53970,-0.703885,-0.366059,1.31143,0
53990,-0.70434,-0.364955,1.31554,0
54010,-0.705198,-0.363426,1.3198,0
54030,-0.70522,-0.36096,1.32433,0
54050,-0.705022,-0.359216,1.32915,0
54070,-0.705369,-0.357804,1.33389,0
54090,-0.705778,-0.356185,1.33888,0
54110,-0.706664,-0.354718,1.34418,0
54130,-0.708068,-0.354057,1.34995,0
54150,-0.710168,-0.353496,1.35529,0
54170,-0.712667,-0.352897,1.36082,0
54190,-0.715168,-0.352105,1.36561,0
54210,-0.717216,-0.350753,1.37042,0
54230,-0.720568,-0.349668,1.37581,0
54250,-0.723566,-0.348458,1.38066,0
54270,-0.724804,-0.347236,1.3852,0
54290,-0.726336,-0.346044,1.38991,0
54310,-0.728441,-0.345622,1.39525,0
54330,-0.730367,-0.345375,1.40014,0
54350,-0.731855,-0.345145,1.40515,0
54370,-0.732747,-0.344462,1.41001,0
54390,-0.733992,-0.343718,1.41536,0
54410,-0.736245,-0.343023,1.42104,0
54430,-0.739081,-0.342199,1.42677,0
54450,-0.740985,-0.340681,1.43209,0
54470,-0.742988,-0.338965,1.43734,0
54490,-0.745339,-0.337179,1.44308,0
54510,-0.747573,-0.334703,1.44877,0
54530,-0.748489,-0.332482,1.45445,0
54550,-0.749513,-0.33114,1.46034,0
54570,-0.751285,-0.330025,1.46671,0
54590,-0.753167,-0.329074,1.47327,0
54610,-0.754329,-0.328847,1.47982,0
54630,-0.755903,-0.328799,1.48653,0
54650,-0.758653,-0.328829,1.49358,0
54670,-0.761859,-0.329237,1.50089,0
54690,-0.764957,-0.329728,1.50806,0
54710,-0.768653,-0.330295,1.51524,0
54730,-0.773032,-0.330273,1.52271,0
54750,-0.777008,-0.330211,1.53046,0
54770,-0.780804,-0.330658,1.53813,0
54790,-0.784291,-0.331335,1.54542,0
54810,-0.788288,-0.331614,1.55299,0
54830,-0.792307,-0.331873,1.56059,0
54850,-0.796015,-0.331638,1.56814,0
54870,-0.800318,-0.331682,1.57621,0
54890,-0.804523,-0.331463,1.5838,0
54910,-0.808566,-0.330818,1.59159,0
54930,-0.813063,-0.330426,1.59965,0
54950,-0.816979,-0.32986,1.60718,0
54970,-0.820452,-0.329109,1.6149,0
54990,-0.824877,-0.328601,1.62247,0
55010,-0.829077,-0.327949,1.62987,0
55030,-0.833103,-0.327062,1.63739,0
55050,-0.83782,-0.326014,1.64508,0
55070,-0.842637,-0.325183,1.6527,0
55090,-0.847767,-0.324102,1.66002,0
55110,-0.853308,-0.322714,1.66761,0
55130,-0.859549,-0.321331,1.67532,0
55150,-0.865803,-0.319914,1.68306,0
55170,-0.871864,-0.318646,1.69068,0
55190,-0.877768,-0.317411,1.69791,0
55210,-0.883851,-0.316244,1.70494,0
55230,-0.889754,-0.31471,1.71226,0
55250,-0.895865,-0.313573,1.71978,0
55270,-0.902656,-0.312663,1.72755,0
55290,-0.909059,-0.311955,1.73511,0
55310,-0.915722,-0.311394,1.74277,0
55330,-0.922169,-0.310876,1.7502,0
55350,-0.928242,-0.31014,1.75733,0
55370,-0.934922,-0.309573,1.76477,0
55390,-0.942058,-0.30943,1.77206,0
55410,-0.948411,-0.309057,1.77901,0
55430,-0.954333,-0.308931,1.78545,0
55450,-0.960233,-0.309097,1.79188,0
55470,-0.966846,-0.309048,1.7985,0
55490,-0.97247,-0.308925,1.80511,0
55510,-0.978042,-0.309213,1.81186,0
55530,-0.983296,-0.310249,1.81866,0
55550,-0.988541,-0.31172,1.8253,0
55570,-0.993327,-0.31324,1.83194,0
55590,-0.998923,-0.315416,1.83915,0
55610,-1.00397,-0.317646,1.84593,0
55630,-1.00883,-0.319659,1.85281,0
55650,-1.01308,-0.321795,1.85942,0
55670,-1.0186,-0.324487,1.86639,0
55690,-1.02419,-0.32683,1.87342,0
55710,-1.02931,-0.328974,1.87984,0
55730,-1.03439,-0.331325,1.88613,0
55750,-1.03999,-0.333408,1.89225,0
55770,-1.04618,-0.335038,1.89859,0
55790,-1.05139,-0.337217,1.90474,0
55810,-1.05792,-0.339984,1.9106,0
55830,-1.0647,-0.343022,1.91618,0
55850,-1.07082,-0.34591,1.92196,0
55870,-1.07686,-0.349117,1.92733,0
55890,-1.08336,-0.352563,1.93283,0
55910,-1.08925,-0.356158,1.93737,0
55930,-1.0946,-0.359316,1.94209,0
55950,-1.10042,-0.362455,1.94692,0
55970,-1.10556,-0.366003,1.95168,0
55990,-1.10978,-0.370021,1.95659,0
56010,-1.11456,-0.374002,1.96152,0
56030,-1.12094,-0.377874,1.9666,0
56050,-1.12699,-0.381779,1.97179,0
56070,-1.13169,-0.386147,1.97665,0
56090,-1.13663,-0.39077,1.98158,0
56110,-1.14173,-0.394947,1.98666,0
56130,-1.14634,-0.399943,1.99182,0
56150,-1.1509,-0.405358,1.99658,0
56170,-1.15594,-0.410311,2.00119,0
56190,-1.16139,-0.414809,2.00644,0
56210,-1.16681,-0.418973,2.01179,0
56230,-1.17234,-0.42336,2.01739,0
56250,-1.17795,-0.428183,2.02262,0
56270,-1.18317,-0.432392,2.02786,0
56290,-1.18749,-0.436449,2.03357,0
56310,-1.19174,-0.440939,2.03936,0
56330,-1.1958,-0.445772,2.04472,0
56350,-1.19984,-0.450325,2.04905,0
56370,-1.2034,-0.45451,2.05331,0
56390,-1.2066,-0.458909,2.05685,0
56410,-1.20903,-0.462549,2.05967,0
56430,-1.21187,-0.46604,2.06256,0
56450,-1.21362,-0.469292,2.06475,0
56460,-1.21505,-0.47341,2.06659,0
56480,-1.2167,-0.477816,2.06789,0
56500,-1.218,-0.482256,2.06875,0
56520,-1.21897,-0.487138,2.06938,0
56540,-1.21989,-0.49181,2.06951,0
56560,-1.22125,-0.497219,2.07028,0
56580,-1.22242,-0.502095,2.07004,0
56600,-1.22198,-0.50775,2.06928,0
56620,-1.22168,-0.513227,2.06768,0
56640,-1.22189,-0.518276,2.06599,0
56660,-1.22113,-0.523443,2.06366,0
56680,-1.22046,-0.529453,2.06069,0
56700,-1.21934,-0.536304,2.05685,0
56720,-1.2191,-0.543453,2.05307,0
56740,-1.21864,-0.550849,2.0485,0
56760,-1.21655,-0.558431,2.04326,0
56780,-1.2149,-0.566194,2.03715,0
56800,-1.21365,-0.574048,2.03041,0
56820,-1.21207,-0.581503,2.02312,0
56840,-1.20956,-0.588816,2.01509,0
56860,-1.20641,-0.596241,2.00654,0
56880,-1.20279,-0.60374,1.99704,0
56900,-1.19953,-0.610999,1.98755,0
56920,-1.19649,-0.617688,1.97664,0
56940,-1.19228,-0.623843,1.96483,0
56960,-1.18799,-0.63049,1.95385,0
56980,-1.18407,-0.638278,1.9418,0
57000,-1.18017,-0.644865,1.92921,0
57020,-1.17531,-0.650793,1.91606,0
57040,-1.16975,-0.65739,1.90294,0
57060,-1.16413,-0.664789,1.88925,0
57080,-1.15904,-0.672047,1.87505,0
57100,-1.15235,-0.678557,1.86097,0
57120,-1.1456,-0.685787,1.84705,0
57140,-1.13838,-0.693993,1.83223,0
57160,-1.13026,-0.702013,1.81709,0
57180,-1.12143,-0.709365,1.8019,0
57200,-1.11165,-0.716601,1.78622,0
57220,-1.10211,-0.724177,1.76958,0
57240,-1.09092,-0.731825,1.75199,0
57260,-1.07836,-0.738519,1.73442,0
57280,-1.06672,-0.745408,1.71798,0
57300,-1.05474,-0.752565,1.70008,0
57320,-1.04308,-0.758807,1.68198,0
57340,-1.03094,-0.764728,1.66376,0
57360,-1.01931,-0.770779,1.64597,0
57380,-1.00857,-0.776896,1.62908,0
57400,-0.998413,-0.782678,1.61266,0
57420,-0.988272,-0.788058,1.59614,0
57440,-0.978089,-0.793106,1.57973,0
57460,-0.968698,-0.797146,1.56329,0
57480,-0.959319,-0.800692,1.54744,0
57500,-0.949776,-0.804253,1.53172,0
57520,-0.939749,-0.807953,1.51534,0
57540,-0.931138,-0.809686,1.49837,0
57560,-0.920779,-0.810535,1.48085,0
57580,-0.909686,-0.811358,1.46376,0
57600,-0.897728,-0.812959,1.44757,0
57620,-0.887507,-0.814365,1.43256,0
57640,-0.878699,-0.814994,1.41732,0
57660,-0.869425,-0.814571,1.40222,0
57680,-0.859816,-0.814759,1.38759,0
57700,-0.852012,-0.814806,1.37506,0
57720,-0.84574,-0.813792,1.36448,0
57740,-0.839712,-0.811739,1.35357,0
57760,-0.832608,-0.80944,1.34363,0
57780,-0.826479,-0.806769,1.3348,0
57800,-0.81948,-0.804053,1.32605,0
57820,-0.812772,-0.800278,1.3184,0
57840,-0.808938,-0.796604,1.31209,0
57860,-0.803491,-0.792115,1.30594,0
57880,-0.79858,-0.787993,1.30051,0
57900,-0.793296,-0.783883,1.29393,0
57920,-0.789692,-0.778084,1.28882,0
57940,-0.785552,-0.772519,1.28439,0
57960,-0.781934,-0.767578,1.28275,0
57980,-0.777956,-0.763791,1.28143,0
58000,-0.7734,-0.75902,1.27905,0
58020,-0.771099,-0.752747,1.27715,0
58040,-0.767893,-0.747009,1.27645,0
58060,-0.763066,-0.742012,1.27608,0
58080,-0.760199,-0.736247,1.27534,0
58100,-0.759231,-0.729243,1.2753,0
58120,-0.757779,-0.721692,1.27533,0
58140,-0.755338,-0.715227,1.27603,0
58160,-0.754304,-0.708667,1.27727,0
58180,-0.753156,-0.702112,1.27812,0
58200,-0.749301,-0.696752,1.27779,0
58220,-0.745105,-0.691477,1.27861,0
58240,-0.742986,-0.685659,1.28051,0
58260,-0.742043,-0.678895,1.28224,0
58280,-0.740706,-0.671823,1.28465,0
58290,-0.738141,-0.664709,1.28702,0
58320,-0.736636,-0.657774,1.29058,0
58340,-0.739435,-0.649413,1.29583,0
58350,-0.742007,-0.640481,1.3025,0
58370,-0.744041,-0.631962,1.3099,0
58390,-0.748427,-0.623603,1.31877,0
58410,-0.753235,-0.614981,1.32761,0
58430,-0.758154,-0.606332,1.33743,0
58450,-0.761922,-0.598066,1.34769,0
58470,-0.764362,-0.590572,1.35799,0
58490,-0.766988,-0.583332,1.36846,0
58510,-0.770084,-0.576207,1.37976,0
58530,-0.774299,-0.5689,1.39183,0
58550,-0.779657,-0.561962,1.40546,0
58570,-0.785722,-0.554869,1.41871,0
58590,-0.792379,-0.5483,1.43251,0
58610,-0.799919,-0.542319,1.4464,0
58630,-0.808533,-0.537115,1.46071,0
58650,-0.817427,-0.531913,1.47628,0
58670,-0.827041,-0.527754,1.49218,0
58690,-0.837458,-0.524137,1.50807,0
58710,-0.847484,-0.521536,1.52359,0
58730,-0.857231,-0.518893,1.53991,0
58750,-0.866496,-0.516506,1.55613,0
58770,-0.875832,-0.514726,1.5719,0
58790,-0.884691,-0.513395,1.58774,0
58810,-0.894536,-0.5123,1.60443,0
58830,-0.904091,-0.511749,1.62137,0
58850,-0.912641,-0.511025,1.63777,0
58870,-0.921167,-0.510693,1.65365,0
58890,-0.930267,-0.509858,1.66991,0
58910,-0.941249,-0.508904,1.6881,0
58930,-0.951248,-0.507958,1.70606,0
58950,-0.960669,-0.507771,1.72264,0
58970,-0.96992,-0.507732,1.73794,0
58990,-0.977778,-0.506971,1.75226,0
59010,-0.985782,-0.506142,1.76663,0
59030,-0.99353,-0.505103,1.78048,0
59050,-1.00068,-0.504322,1.79402,0
59070,-1.00884,-0.503432,1.80719,0
59090,-1.01719,-0.502789,1.82027,0
59110,-1.02818,-0.502145,1.83447,0
59130,-1.04043,-0.501733,1.84836,0
59150,-1.05269,-0.50158,1.86152,0
59170,-1.06626,-0.501919,1.87425,0
59190,-1.08113,-0.502708,1.88708,0
59210,-1.09712,-0.504107,1.89899,0
59230,-1.11078,-0.505628,1.91055,0
59250,-1.12431,-0.507687,1.9215,0
59270,-1.13992,-0.509878,1.93263,0
59290,-1.15467,-0.511946,1.94397,0
59310,-1.17014,-0.513679,1.95718,0
59330,-1.18654,-0.51563,1.97052,0
59350,-1.20341,-0.520007,1.98287,0
59370,-1.21943,-0.525992,1.99509,0
59390,-1.23646,-0.531663,2.00791,0
59410,-1.25363,-0.537589,2.0208,0
59430,-1.26776,-0.545087,2.03305,0
59450,-1.28061,-0.554391,2.04517,0
59470,-1.29089,-0.564777,2.05631,0
59490,-1.30101,-0.575768,2.06838,0
59510,-1.31033,-0.589152,2.08029,0
59530,-1.31735,-0.60589,2.09054,0
59550,-1.32304,-0.622941,2.1,0
59570,-1.32989,-0.638735,2.10984,0
59590,-1.33956,-0.654172,2.11977,0
59610,-1.34832,-0.67097,2.12798,0
59630,-1.35498,-0.688071,2.13468,0
59650,-1.35972,-0.704091,2.14057,0
59670,-1.36551,-0.720661,2.14487,0
59690,-1.37004,-0.737421,2.14827,0
59710,-1.3737,-0.754689,2.14996,0
59730,-1.37512,-0.771036,2.15006,0
59750,-1.37594,-0.787924,2.14912,0
59770,-1.37611,-0.806568,2.14628,0
59790,-1.37456,-0.824831,2.14073,0
59810,-1.37161,-0.841059,2.13314,0
59830,-1.36868,-0.856756,2.12281,0
59850,-1.3638,-0.873952,2.10919,0
59870,-1.36047,-0.889156,2.0936,0
59890,-1.35331,-0.904123,2.07603,0
59910,-1.34405,-0.917683,2.05726,0
59930,-1.33412,-0.930605,2.03735,0
59950,-1.32114,-0.942861,2.01412,0
59970,-1.30431,-0.953704,1.98995,0
59990,-1.28647,-0.964773,1.96532,0
60010,-1.2677,-0.976753,1.94046,0
60030,-1.24715,-0.989095,1.91441,0
60050,-1.22493,-1.0007,1.88672,0
60070,-1.20225,-1.01158,1.85887,0
60090,-1.17795,-1.02151,1.83001,0
60110,-1.15138,-1.03158,1.79938,0
60120,-1.12287,-1.04176,1.76747,0
60140,-1.0945,-1.05038,1.73495,0
60160,-1.06622,-1.05728,1.70276,0
60180,-1.03753,-1.06308,1.67132,0
60200,-1.00875,-1.06793,1.63969,0
60220,-0.980853,-1.07153,1.60803,0
60240,-0.953218,-1.07375,1.57676,0
60260,-0.926228,-1.0748,1.54772,0
60280,-0.898709,-1.07488,1.5183,0
60300,-0.871448,-1.07416,1.48932,0
60320,-0.844422,-1.07205,1.46042,0
60340,-0.821089,-1.06837,1.433,0
60360,-0.802708,-1.06262,1.41012,0
60380,-0.785452,-1.05656,1.39046,0
60400,-0.76964,-1.0508,1.37251,0
60420,-0.754048,-1.04445,1.35407,0
60440,-0.741178,-1.03761,1.33605,0
60460,-0.731472,-1.03003,1.32082,0
60480,-0.719914,-1.02221,1.30625,0
60500,-0.710232,-1.01441,1.29385,0
60520,-0.7034,-1.00611,1.281,0
60540,-0.696935,-0.996627,1.2686,0
60560,-0.69096,-0.986773,1.25815,0
60580,-0.684479,-0.977613,1.24891,0
60600,-0.678843,-0.967456,1.23957,0
60620,-0.678306,-0.955845,1.23019,0
60640,-0.674701,-0.944036,1.22313,0
60660,-0.670348,-0.931952,1.21765,0
60680,-0.665119,-0.919329,1.21224,0
60700,-0.662217,-0.906513,1.20747,0
60720,-0.659149,-0.893462,1.20273,0
60740,-0.657634,-0.880541,1.19963,0
60760,-0.655926,-0.867546,1.19609,0
60780,-0.659881,-0.853191,1.19504,0
60800,-0.662755,-0.839815,1.19469,0
60820,-0.66322,-0.826003,1.19449,0
60840,-0.666546,-0.812118,1.19431,0
60860,-0.672868,-0.796802,1.19526,0
60880,-0.680567,-0.781949,1.19928,0
60900,-0.687189,-0.767937,1.20406,0
60920,-0.692684,-0.754567,1.20884,0
60940,-0.700946,-0.742075,1.21387,0
60960,-0.710278,-0.730701,1.21971,0
60980,-0.717893,-0.720844,1.22507,0
61000,-0.725219,-0.711187,1.23038,0
61020,-0.733499,-0.702369,1.23639,0
61040,-0.743105,-0.693293,1.24424,0
61060,-0.749618,-0.685131,1.25134,0
61080,-0.754999,-0.676939,1.25791,0
61100,-0.761796,-0.668571,1.26565,0
61120,-0.770776,-0.660237,1.27487,0
61140,-0.778247,-0.652087,1.28439,0
61160,-0.7857,-0.644442,1.2938,0
61180,-0.7945,-0.637688,1.30389,0
61200,-0.805043,-0.631159,1.315,0
61220,-0.814253,-0.623901,1.32528,0
61240,-0.822281,-0.617372,1.33659,0
61260,-0.830281,-0.611638,1.34798,0
61280,-0.841971,-0.606332,1.36041,0
61300,-0.852359,-0.599888,1.37403,0
61320,-0.863198,-0.5949,1.38779,0
61340,-0.873865,-0.590889,1.40198,0
61360,-0.886381,-0.58677,1.41641,0
61380,-0.898618,-0.583204,1.43048,0
61400,-0.911651,-0.580292,1.44507,0
61420,-0.925865,-0.577307,1.45992,0
61440,-0.940264,-0.574639,1.47492,0
61460,-0.952916,-0.572459,1.48923,0
61480,-0.965999,-0.570787,1.50368,0
61500,-0.980985,-0.569544,1.51947,0
61520,-0.995842,-0.568728,1.53475,0
61540,-1.00927,-0.56831,1.54927,0
61560,-1.02347,-0.568332,1.56418,0
61580,-1.03902,-0.56886,1.57852,0
61600,-1.05524,-0.569031,1.59258,0
61620,-1.06951,-0.569392,1.60557,0
61630,-1.08267,-0.56989,1.61865,0
61650,-1.09741,-0.570511,1.63177,0
61670,-1.1139,-0.570327,1.64533,0
61690,-1.12969,-0.570797,1.6582,0
61710,-1.14305,-0.571842,1.67038,0
61730,-1.15634,-0.572864,1.68271,0
61750,-1.16926,-0.574125,1.69535,0
61770,-1.17995,-0.5755,1.70736,0
61790,-1.18776,-0.577232,1.71889,0
61810,-1.19553,-0.579824,1.72973,0
61830,-1.20485,-0.581523,1.74083,0
61850,-1.21289,-0.58324,1.75147,0
61870,-1.21984,-0.585777,1.7615,0
61890,-1.22795,-0.588566,1.77133,0
61910,-1.23803,-0.590288,1.78216,0
61930,-1.2483,-0.592752,1.79328,0
61950,-1.25786,-0.595612,1.80363,0
61970,-1.26762,-0.59861,1.81377,0
61990,-1.27846,-0.601493,1.82438,0
62010,-1.28954,-0.604106,1.83497,0
62030,-1.29915,-0.607064,1.84487,0
62050,-1.30837,-0.610014,1.85507,0
62070,-1.31741,-0.613727,1.86518,0
62090,-1.32519,-0.617705,1.87531,0
62110,-1.33185,-0.622121,1.88526,0
62130,-1.33808,-0.626903,1.89473,0
62150,-1.34335,-0.631344,1.90449,0
62170,-1.34809,-0.636673,1.91478,0
62190,-1.3514,-0.642724,1.92395,0
62210,-1.357,-0.649637,1.93266,0
62230,-1.36287,-0.654931,1.94227,0
62250,-1.3681,-0.660744,1.95198,0
62270,-1.37184,-0.667578,1.96052,0
62290,-1.37741,-0.675241,1.96967,0
62310,-1.38368,-0.682173,1.97932,0
62330,-1.38972,-0.6888,1.98892,0
62350,-1.39648,-0.696226,1.99837,0
62370,-1.4046,-0.703061,2.008,0
62390,-1.41109,-0.710426,2.01711,0
62410,-1.41653,-0.718038,2.02573,0
62430,-1.42171,-0.726065,2.03454,0
62450,-1.42713,-0.73314,2.04353,0
62470,-1.4326,-0.740859,2.05236,0
62490,-1.43743,-0.748789,2.06122,0
62510,-1.44222,-0.756825,2.06965,0
62530,-1.44803,-0.764642,2.07852,0
62550,-1.45531,-0.771683,2.08738,0
62570,-1.46156,-0.779016,2.09527,0
62590,-1.46639,-0.786766,2.10277,0
62610,-1.47086,-0.793745,2.10956,0
62630,-1.47628,-0.800558,2.1169,0
62650,-1.48137,-0.80761,2.1235,0
62670,-1.48594,-0.814262,2.12991,0
62690,-1.49095,-0.820543,2.13645,0
62710,-1.49608,-0.827227,2.14274,0
62730,-1.50121,-0.833331,2.14846,0
62750,-1.50608,-0.838986,2.15347,0
62770,-1.50873,-0.84444,2.15729,0
62790,-1.51094,-0.849943,2.16083,0
62810,-1.51305,-0.854805,2.164,0
62830,-1.51557,-0.859099,2.16723,0
62850,-1.51703,-0.863698,2.16997,0
62870,-1.51741,-0.86904,2.17226,0
62890,-1.5176,-0.873857,2.1744,0
62910,-1.51657,-0.877713,2.17666,0
62930,-1.51545,-0.882805,2.17796,0
62950,-1.51276,-0.88787,2.17831,2001
62970,-1.51147,-0.892644,2.17878,0
62990,-1.50971,-0.896996,2.17868,0
63010,-1.50696,-0.900014,2.17839,0
63030,-1.50331,-0.903876,2.17718,0
63050,-1.49885,-0.907508,2.17511,0
63070,-1.49685,-0.911228,2.17401,0
63090,-1.49542,-0.914829,2.17281,0
63110,-1.49399,-0.918331,2.17252,0
63130,-1.49197,-0.922255,2.17157,0
63150,-1.48998,-0.925481,2.16931,0
63170,-1.49006,-0.927566,2.16815,0
63190,-1.4891,-0.928645,2.1665,0
63210,-1.48959,-0.929213,2.16566,0
63230,-1.49067,-0.929219,2.16367,0
63250,-1.49061,-0.92953,2.16166,0
63270,-1.49005,-0.929513,2.1601,0
63290,-1.49064,-0.929097,2.15891,0
63310,-1.49005,-0.929116,2.15739,0
63330,-1.49037,-0.928905,2.15632,0
63350,-1.4921,-0.928276,2.15565,0
63370,-1.49301,-0.927514,2.15522,0
63390,-1.49129,-0.927843,2.15335,0
63410,-1.4869,-0.929281,2.15055,0
63430,-1.48417,-0.928578,2.14885,0
63450,-1.48402,-0.92737,2.14893,0
63470,-1.48081,-0.925823,2.14583,0
63490,-1.47616,-0.925054,2.14191,0
63510,-1.47196,-0.922917,2.13758,0
63520,-1.4688,-0.919489,2.13243,0
63540,-1.46468,-0.915706,2.12603,0
63560,-1.45841,-0.91197,2.11857,0
63580,-1.45123,-0.90767,2.11066,0
63600,-1.44436,-0.902562,2.10292,0
63620,-1.43802,-0.896879,2.09475,0
63640,-1.42866,-0.891165,2.08432,0
63660,-1.41762,-0.884541,2.07271,0
63680,-1.40447,-0.877669,2.06014,0
63700,-1.39082,-0.869169,2.04772,0
63720,-1.37579,-0.859812,2.03339,0
63740,-1.35652,-0.850018,2.01703,0
63760,-1.33636,-0.838719,2.0003,0
63780,-1.31619,-0.826407,1.98167,0
63800,-1.29515,-0.812639,1.96063,0
63820,-1.27107,-0.797552,1.93717,0
63840,-1.24202,-0.782183,1.91122,0
63860,-1.21299,-0.766737,1.88168,0
63880,-1.18188,-0.747728,1.84992,0
63900,-1.14965,-0.725311,1.81793,0
63920,-1.11708,-0.70218,1.78663,0
63940,-1.08241,-0.67712,1.75203,0
63960,-1.04865,-0.648545,1.71783,0
63980,-1.02186,-0.616395,1.68819,0
64000,-1.00275,-0.58114,1.65824,0
64020,-0.984457,-0.541363,1.63112,0
64040,-0.962525,-0.500681,1.60718,0
64060,-0.948877,-0.46047,1.58759,0
64080,-0.944524,-0.421645,1.57032,0
64100,-0.941216,-0.382917,1.56014,0
64120,-0.939393,-0.347777,1.55503,0
64140,-0.938104,-0.319745,1.55319,0
64160,-0.935862,-0.295481,1.55684,0
64180,-0.934056,-0.275728,1.56742,0
64200,-0.93079,-0.263353,1.58054,0
64220,-0.92862,-0.257107,1.5967,0
64240,-0.928664,-0.253827,1.61672,0
64260,-0.9298,-0.254166,1.6396,0
64280,-0.930585,-0.258544,1.66206,0
64300,-0.932979,-0.265068,1.68364,0
64320,-0.93833,-0.271239,1.70639,0
64340,-0.944601,-0.276273,1.73042,0
64360,-0.949668,-0.281448,1.7526,0
64380,-0.955097,-0.285974,1.7709,0
64400,-0.961691,-0.288682,1.78741,0
64420,-0.968607,-0.289608,1.80227,0
64440,-0.972792,-0.289312,1.8142,0
64460,-0.974346,-0.288843,1.82394,0
64480,-0.974236,-0.288225,1.83056,0
64500,-0.973565,-0.285996,1.83469,0
64520,-0.970524,-0.28337,1.83729,0
64540,-0.966218,-0.281538,1.83826,0
64560,-0.962502,-0.280637,1.83785,0
64580,-0.960738,-0.279921,1.8367,0
64600,-0.958587,-0.279283,1.83598,0
64620,-0.956932,-0.279544,1.8353,0
64640,-0.956932,-0.279544,1.8353,0
64660,-0.958871,-0.279298,1.83637,0
64680,-0.960754,-0.279247,1.83839,0
64700,-0.963143,-0.278995,1.84205,0
64720,-0.966061,-0.279692,1.84497,0
64740,-0.96828,-0.280407,1.84778,0
64760,-0.971541,-0.281107,1.85173,0
64780,-0.97396,-0.281589,1.85518,0
64800,-0.975128,-0.281887,1.85756,0
64820,-0.975103,-0.282163,1.85898,0
64840,-0.974853,-0.282585,1.86014,0
64860,-0.975811,-0.281902,1.85979,0
64880,-0.975706,-0.280021,1.85892,0
64900,-0.976387,-0.278166,1.85798,0
64920,-0.978019,-0.276398,1.85726,0
64940,-0.979813,-0.274989,1.85693,0
64960,-0.981137,-0.272622,1.85716,0
64980,-0.981629,-0.270653,1.85776,0
65000,-0.982613,-0.269202,1.85783,0
65020,-0.983847,-0.267919,1.85797,0
65040,-0.985527,-0.266318,1.85817,0
65060,-0.986002,-0.26459,1.8589,0
65080,-0.987265,-0.262955,1.85958,0
65100,-0.988707,-0.260868,1.86055,0
65120,-0.989067,-0.258488,1.8614,0
65140,-0.988734,-0.256056,1.86229,0
65160,-0.989036,-0.254441,1.86308,0
65180,-0.990269,-0.25258,1.86424,0
65200,-0.990742,-0.250162,1.86524,0
65220,-0.990308,-0.248215,1.86658,0
65240,-0.990538,-0.247081,1.86845,0
65260,-0.990929,-0.246676,1.87128,0
65280,-0.991355,-0.246473,1.87458,0
65300,-0.991826,-0.246983,1.87874,0
65320,-0.992916,-0.24844,1.88342,0
65340,-0.994827,-0.250648,1.88874,0
65360,-0.99677,-0.252713,1.89427,0
65380,-0.99852,-0.255084,1.89986,0
65400,-1.00024,-0.256895,1.90491,0
65420,-1.00164,-0.258525,1.91042,0
65440,-1.003,-0.260771,1.9154,0
65460,-1.00345,-0.263177,1.9197,0
65480,-1.0038,-0.264891,1.92376,0
65500,-1.00375,-0.266697,1.92763,0
65520,-1.00492,-0.268614,1.93148,0
65540,-1.00683,-0.270431,1.93509,0
65560,-1.00799,-0.271384,1.93857,0
65580,-1.00953,-0.272002,1.94147,0
65600,-1.01138,-0.27315,1.94419,0
65620,-1.01231,-0.27399,1.94676,0
65640,-1.01346,-0.275052,1.94957,0
65660,-1.01412,-0.276674,1.95215,0
65680,-1.0143,-0.278535,1.95454,0
65700,-1.01472,-0.280299,1.95718,0
65720,-1.01458,-0.282236,1.96018,0
65740,-1.01424,-0.284817,1.96319,0
65760,-1.01304,-0.288116,1.96558,0
65780,-1.01191,-0.291797,1.96773,0
65800,-1.01124,-0.294634,1.96987,0
65820,-1.01063,-0.297285,1.97163,0
65840,-1.00999,-0.299946,1.97359,0
65860,-1.00929,-0.302131,1.97545,0
65880,-1.00937,-0.304303,1.97723,0
65900,-1.00906,-0.307627,1.97926,0
65920,-1.00833,-0.310151,1.98131,0
65940,-1.00757,-0.312179,1.98338,0
65960,-1.0072,-0.315712,1.98601,0
65980,-1.00735,-0.319547,1.98794,0
66000,-1.00716,-0.322555,1.98983,0
66020,-1.0072,-0.325495,1.99152,0
66040,-1.00804,-0.328842,1.99349,0
66060,-1.00824,-0.332329,1.99475,0
66080,-1.00897,-0.335648,1.99555,0
66100,-1.00961,-0.339044,1.99522,0
66120,-1.01113,-0.342544,1.99402,0
66140,-1.01524,-0.344848,1.99294,0
66160,-1.02005,-0.345654,1.99099,0
66180,-1.02326,-0.346077,1.98631,0
66200,-1.02618,-0.348214,1.97846,0
66220,-1.02986,-0.347372,1.97036,0
66240,-1.03032,-0.3443,1.96162,0
66260,-1.0298,-0.34147,1.95185,0
66280,-1.02872,-0.339045,1.94126,0
66300,-1.02741,-0.335297,1.93202,0
66320,-1.02641,-0.329706,1.92451,0
66340,-1.02437,-0.324097,1.91777,0
66360,-1.02396,-0.318306,1.91146,0
66380,-1.0239,-0.313839,1.9082,0
66400,-1.02376,-0.30797,1.90562,0
66420,-1.02426,-0.302835,1.9035,0
66440,-1.02339,-0.297741,1.90144,0
66460,-1.02264,-0.293165,1.89968,0
66480,-1.0211,-0.289096,1.89777,0
66500,-1.01777,-0.285103,1.8962,0
66520,-1.0156,-0.281327,1.89465,0
66540,-1.01387,-0.277848,1.89333,0
66560,-1.01263,-0.27542,1.89258,0
66580,-1.01056,-0.273774,1.89217,0
66600,-1.00868,-0.2715,1.89195,0
66620,-1.00795,-0.268724,1.89292,0
66640,-1.00704,-0.267576,1.89364,0
66660,-1.00474,-0.266984,1.8942,0
66680,-1.00373,-0.266404,1.89522,0
66700,-1.00388,-0.265699,1.89574,0
66720,-1.00366,-0.264236,1.89629,0
66740,-1.0033,-0.262601,1.8964,0
66760,-1.0034,-0.260604,1.89628,0
66780,-1.00358,-0.258125,1.89652,0
66800,-1.00353,-0.255821,1.89697,0
66820,-1.00363,-0.254223,1.8973,0
66830,-1.00367,-0.252848,1.89663,0
66850,-1.00366,-0.251395,1.89631,0
66870,-1.00276,-0.249995,1.89642,0
66890,-1.00215,-0.249732,1.89664,0
66910,-1.00236,-0.249523,1.89694,0
66930,-1.00238,-0.24958,1.89691,0
66950,-1.00223,-0.24951,1.89681,0
66970,-1.00227,-0.249486,1.89695,0
66990,-1.00248,-0.249594,1.89786,0
67010,-1.00251,-0.25033,1.89858,0
67030,-1.00168,-0.251174,1.89888,0
67050,-1.00063,-0.252033,1.8991,0
67070,-1.00045,-0.252763,1.9007,0
67090,-1.00062,-0.253659,1.90287,0
67110,-1.00065,-0.254421,1.90491,0
67130,-0.999996,-0.255272,1.90782,0
67150,-0.998809,-0.256819,1.91114,0
67170,-0.997648,-0.258734,1.91461,0
67190,-0.996767,-0.260238,1.91836,0
67210,-0.995246,-0.262402,1.92293,0
67230,-0.993891,-0.265191,1.92794,2000
67250,-0.992705,-0.26865,1.93368,0
67270,-0.992392,-0.273139,1.93979,0
67290,-0.992903,-0.278149,1.94443,0
67310,-0.993487,-0.282554,1.94868,0
67330,-0.994459,-0.287242,1.95245,0
67350,-0.996308,-0.292215,1.95491,0
67370,-0.997372,-0.296503,1.9565,0
67390,-0.99948,-0.299067,1.95772,0
67410,-1.00151,-0.300178,1.95826,0
67430,-1.0036,-0.300703,1.9588,0
67450,-1.00607,-0.301246,1.95891,0
67470,-1.00749,-0.300682,1.95919,0
67490,-1.00742,-0.299241,1.95933,0
67510,-1.00674,-0.297557,1.95967,0
67530,-1.00585,-0.296333,1.95985,0
67550,-1.00408,-0.295809,1.95972,0
67570,-1.00218,-0.295045,1.95898,0
67590,-1.00034,-0.293937,1.9584,0
67610,-0.999211,-0.293194,1.95829,0
67630,-0.999168,-0.293018,1.9583,0
67650,-0.999705,-0.293104,1.95796,0
67670,-1.00005,-0.293571,1.95763,0
67690,-1.00074,-0.293679,1.95828,0
67710,-1.002,-0.294082,1.95928,0
67730,-1.00399,-0.294589,1.95949,0
67750,-1.00559,-0.295081,1.95897,0
67770,-1.00571,-0.295948,1.95851,0
67790,-1.0052,-0.29723,1.95789,0
67810,-1.00502,-0.298907,1.95731,0
67830,-1.00472,-0.300355,1.95695,0
67850,-1.00469,-0.301537,1.95634,0
67870,-1.00411,-0.302054,1.95508,0
67890,-1.0031,-0.303137,1.95425,0
67910,-1.00218,-0.304128,1.95466,0
67930,-1.00252,-0.305005,1.95624,0
67950,-1.0026,-0.305161,1.95636,0
67970,-1.00252,-0.305005,1.95624,0
67990,-1.00071,-0.304436,1.95716,0
68010,-0.999904,-0.304558,1.95895,0
68030,-1.00024,-0.304522,1.9599,0
68050,-0.999424,-0.304067,1.96072,0
68070,-0.997528,-0.303915,1.96166,0
68090,-0.996535,-0.303982,1.96353,0
68110,-0.996155,-0.304291,1.96521,0
68130,-0.995748,-0.304437,1.96657,0
68150,-0.99475,-0.30445,1.96849,0
68170,-0.993863,-0.304787,1.97086,0
68190,-0.994096,-0.305758,1.97299,0
68210,-0.993603,-0.306259,1.9744,0
68230,-0.992705,-0.307213,1.97602,0
68250,-0.991789,-0.30768,1.97735,0
68270,-0.99123,-0.309077,1.97939,0
68290,-0.990586,-0.310075,1.98116,0
68310,-0.99005,-0.311868,1.98283,0
68330,-0.989091,-0.313007,1.98399,0
68350,-0.988797,-0.313383,1.98546,0
68370,-0.988636,-0.313894,1.98729,0
68390,-0.988486,-0.315161,1.98944,0
68410,-0.987953,-0.317226,1.99114,0
68430,-0.987919,-0.31874,1.99231,0
68450,-0.987925,-0.320039,1.99385,0
68470,-0.988078,-0.321677,1.99519,0
68490,-0.987537,-0.32364,1.99655,0
68510,-0.987134,-0.325426,1.99785,0
68530,-0.98702,-0.327561,1.9991,0
68550,-0.986822,-0.329738,1.99997,0
68570,-0.986923,-0.332324,2.00075,0
68590,-0.9865,-0.335372,2.00128,0
68610,-0.985461,-0.338791,2.0017,0
68630,-0.984072,-0.34228,2.00219,0
68650,-0.983541,-0.345723,2.00188,0
68670,-0.982089,-0.349208,2.00074,0
68690,-0.980004,-0.352874,1.99929,0
68710,-0.977771,-0.356858,1.99768,0
68720,-0.976325,-0.361269,1.99525,0
68740,-0.975005,-0.364911,1.99339,0
68760,-0.973728,-0.369051,1.99217,0
68780,-0.972755,-0.373279,1.99055,0
68800,-0.971712,-0.377475,1.9884,0
68820,-0.970629,-0.381686,1.98644,0
68840,-0.97006,-0.386952,1.98413,0
68860,-0.969737,-0.392461,1.98175,0
68880,-0.969032,-0.397854,1.97954,0
68900,-0.969207,-0.403913,1.97728,0
68920,-0.968756,-0.410283,1.97463,0
68940,-0.968669,-0.416924,1.97225,0
68960,-0.969033,-0.423608,1.97001,0
68980,-0.969271,-0.43075,1.96787,0
69000,-0.969458,-0.438659,1.96578,0
69020,-0.969752,-0.447084,1.96352,0
69040,-0.969839,-0.45621,1.96086,0
69060,-0.970193,-0.465,1.95814,0
69080,-0.970303,-0.473972,1.95483,0
69100,-0.970512,-0.482731,1.95173,0
69120,-0.97052,-0.490906,1.94799,0
69140,-0.970279,-0.499129,1.94355,0
69160,-0.969453,-0.506761,1.93886,0
69180,-0.968474,-0.513979,1.93385,0
69200,-0.966411,-0.520898,1.92778,0
69220,-0.964223,-0.528067,1.9212,0
69240,-0.962293,-0.535156,1.91437,0
69260,-0.960037,-0.541879,1.90702,0
69280,-0.957051,-0.548697,1.89898,0
69300,-0.954304,-0.55593,1.89083,0
69320,-0.950573,-0.56278,1.88144,0
69340,-0.946606,-0.569767,1.87082,0
69360,-0.942286,-0.575751,1.85929,0
69380,-0.937734,-0.581526,1.8474,0
69400,-0.933163,-0.586873,1.835,0
69420,-0.928331,-0.592289,1.82247,0
69440,-0.923098,-0.59752,1.80985,0
69460,-0.918171,-0.60286,1.79669,0
69480,-0.912571,-0.607764,1.78204,0
69500,-0.90608,-0.612207,1.76697,0
69520,-0.899041,-0.617163,1.7517,0
69540,-0.892339,-0.622417,1.73643,0
69560,-0.885528,-0.627397,1.72052,0
69580,-0.877729,-0.631699,1.70371,0
69600,-0.868615,-0.63552,1.68605,0
69620,-0.859929,-0.638839,1.66875,0
69640,-0.851532,-0.642176,1.65198,0
69660,-0.842382,-0.645765,1.63432,0
69680,-0.832719,-0.648666,1.61613,0
69700,-0.823056,-0.651635,1.59815,0
