Timestamp, Rotation x, Rotation y, Rotation z, Marker
40,-27.1875,-14.6875,4.75,0
60,-26.1875,-14.125,4.75,0
80,-22.75,-14.6875,4.0625,0
100,-20.625,-14.25,3.25,0
120,-15.8125,-12.625,0.9375,0
140,-12.875,-10.875,-3.5,0
140,-9.5625,-9.9375,-9.5,0
160,-5.75,-9.3125,-14.8125,0
190,-4.1875,-5.375,-19,0
210,-3.5,-0.3125,-22,0
230,2.125,1.125,-23.5625,0
250,2.375,-0.4375,-19.75,0
270,3.625,-1.625,-15.9375,0
290,-1.6875,-3.5625,-13.1875,0
310,-4.1875,-6.375,-10.8125,0
330,-4.625,-5.6875,-8.8125,0
350,-2.1875,-3.125,-7.75,0
370,-1.375,-0.6875,-6.6875,0
390,-0.875,0.25,-5.3125,0
410,-1.8125,1.875,-4.25,0
430,-5.4375,2.9375,-3.4375,0
450,-7.5,3.1875,-1.5,0
470,-9.6875,3.5625,-0.375,0
490,-9.8125,2.5,-0.1875,0
510,-7.625,2.9375,1.6875,0
530,-6.875,1.875,0.375,0
550,-2.9375,0.6875,-1.4375,0
570,-0.625,-0.3125,-2.6875,0
590,2.125,-1,-4,0
610,4.75,-1.5625,-4.5625,0
630,5.375,-2.0625,-4.4375,0
650,4.6875,-2,-4.25,0
670,2.5,-1.625,-4.1875,0
690,1,-1.0625,-3.6875,0
710,0.0625,-0.9375,-3.375,0
730,-0.125,-0.1875,-3.25,0
750,-0.5,0.375,-3.1875,0
770,-0.25,0.3125,-3.3125,0
790,-1,0.9375,-2.625,0
810,-2.875,1.3125,-2.4375,0
830,-3.875,1.3125,-1.9375,0
850,-4,0.8125,-1.0625,0
870,-2.1875,-0.5,-1.4375,0
890,-0.8125,-1,-1.75,0
910,0.6875,-1.625,-1.125,0
930,1.0625,-1.1875,-1.25,0
950,0.4375,-0.75,-0.875,0
970,-0.9375,-0.6875,0.125,0
990,-2,0.25,0.375,0
1010,-0.8125,0.875,0.25,0
1030,-1.25,-0.125,0.625,0
1050,-0.25,1.3125,0.5625,0
1070,0.4375,2.0625,-1.0625,0
1090,2.1875,1.375,-0.4375,0
1110,1.0625,-0.5,-1.0625,0
1130,-0.75,-0.75,-0.375,0
1150,-1.9375,-0.25,0.8125,0
1170,-1.0625,0.25,1.3125,0
1190,-0.75,0.1875,1.75,0
1210,0.4375,0.1875,0.75,0
1230,1.6875,-0.0625,-0.1875,0
1250,3.6875,-0.5625,-0.4375,0
1270,4.4375,-0.8125,-1.4375,0
1290,3.75,-1.25,-0.125,0
1310,2.8125,-0.8125,-0.25,0
1330,2.6875,-0.625,-0.3125,0
1350,3.25,-0.3125,-0.125,0
1370,3.5,-0.1875,-0.625,0
1390,3.5,-0.25,-0.3125,0
1410,3.25,0,0.1875,0
1430,2.625,0.1875,1,0
1450,2,0.4375,1.5,0
1470,1.125,0.5,2.0625,0
1490,-0.625,0.5,1.9375,0
1510,-1.5625,0.8125,1.4375,0
1530,-3.0625,1,0.5,0
1550,-2.8125,1.25,-1.5625,0
1570,-2.5,1.1875,-2.75,0
1580,-2.9375,1.3125,-3.875,0
1600,-3,1.1875,-4,0
1620,-2.875,1.375,-3.4375,0
1640,-2.1875,1.3125,-2.3125,0
1660,-1.5,1.1875,-1.5,0
1680,0.125,0.625,-1.375,0
1700,1.4375,0,-1.9375,0
1720,2.9375,-0.375,-1.8125,0
1740,2.75,-0.375,-1.1875,0
1760,1.5,-0.25,-0.5,0
1780,0.1875,-0.3125,0.5,0
1800,-0.5,-0.3125,1.25,0
1820,-0.9375,-0.0625,1.5625,0
1840,-0.125,-0.125,1.75,0
1860,0.0625,-0.1875,1.5625,0
1880,0.375,0.0625,0.8125,0
1900,0.3125,0.125,0.5,0
1920,-0.5,0.3125,0.125,0
1940,-0.6875,0.4375,-0.25,0
1960,-0.5,0.625,-0.5625,0
1980,-1.0625,0.625,-0.875,0
2000,-1.1875,0.75,-0.6875,0
2020,-1,0.5625,-0.6875,0
2040,-0.5625,0.375,-0.25,0
2060,-0.1875,0.625,-0.375,0
2080,-0.4375,0.375,0.125,0
2100,-0.375,0.375,0.3125,0
2120,0,0,0.5,0
2140,0.4375,-0.0625,0.6875,0
2160,0.375,-0.1875,0.875,0
2180,0.75,-0.5,0.75,0
2200,1.1875,-0.5625,0.5,0
2220,1.5625,-0.25,0.5,0
2240,0.75,-0.0625,0,0
2260,0,-0.1875,0.125,0
2280,-0.3125,0,0.4375,0
2300,-0.375,0.3125,0.625,0
2320,-0.625,0.3125,0.3125,0
2340,-0.5,0.125,0.25,0
2360,-0.4375,0.125,0.25,0
2380,-0.8125,0.3125,0.375,0
2400,-0.75,0.3125,0.3125,0
2420,-0.6875,0.1875,0.125,0
2440,-0.875,0.0625,0,0
2460,-0.5,-0.1875,0.125,0
2480,-0.3125,0,0.1875,0
2500,-0.125,0,-0.125,0
2520,0.125,-0.125,0.0625,0
2540,-0.125,0,-0.125,0
2560,0.375,0,-0.375,0
2580,0.3125,-0.1875,-0.3125,0
2600,0.6875,-0.1875,-0.3125,0
2620,0.625,-0.125,-0.25,0
2640,-0.0625,0,-0.25,0
2660,-0.625,0.0625,-0.25,0
2680,-0.8125,0,-0.1875,0
2700,-1,0.25,-0.375,0
2720,-0.875,0.375,-0.0625,0
2740,-1.25,0.5625,0.125,0
2760,-1.375,0.5,0.5,0
2780,-1.375,0.625,0.375,0
2800,-1.1875,0.625,0.4375,0
2820,-1.3125,0.625,0.4375,0
2840,-1.5625,0.625,0.375,0
2860,-1.1875,0.625,0.4375,0
2880,-0.875,0.4375,0.25,0
2900,-0.875,0.375,0.125,0
2920,-1.0625,0.5,0.125,0
2940,-0.9375,0.4375,0.125,0
2960,-0.875,0.625,0,0
2980,-0.6875,0.5,-0.0625,0
3000,-0.9375,0.3125,0.375,0
3020,-1.3125,0.4375,0.5,0
3040,-1.4375,0.625,0.4375,0
3060,-1.4375,0.5,0.375,0
3080,-0.8125,0.3125,0.375,0
3100,-0.875,0.3125,0.3125,0
3120,-1,0.4375,0.3125,0
3140,-1,0.625,0.25,0
3160,-1.125,0.625,0.125,0
3180,-0.9375,0.375,0.125,0
3200,-0.375,0.0625,0.4375,0
3220,-0.6875,0.5625,0.1875,0
3240,-0.375,0.5625,0.25,0
3260,-1,0.5625,0.125,0
3280,-0.6875,0.5,0.25,0
3300,-0.3125,0.3125,0.125,0
3320,-0.125,0.125,0.1875,0
3340,0.0625,0.1875,0.0625,0
3360,-0.1875,0.1875,0,0
3380,-0.5625,0.0625,-0.125,0
3400,-1.0625,0.0625,-0.0625,0
3420,-1.0625,-0.0625,-0.1875,0
3440,-0.1875,-0.3125,-0.6875,0
3460,0.375,-0.375,-0.875,0
3480,0.0625,-0.375,-1,0
3500,0,-0.5625,-0.6875,0
3520,0,-0.6875,-0.75,0
3540,0.5625,-0.5625,-0.875,0
3560,0.25,-0.3125,-1,0
3580,0.125,-0.4375,-0.875,0
3600,-0.5,-0.375,-0.5625,0
3620,-0.4375,-0.4375,-0.125,0
3640,-0.5,-0.375,-0.3125,0
3660,0.125,-0.5,-0.75,0
3680,0.6875,-0.5625,-1.125,0
3700,0.5625,-0.25,-1.375,0
3720,0.5,-0.625,-1.5625,0
3740,0.375,-0.5625,-1.625,0
3760,0.3125,-0.4375,-1.25,0
3780,-0.5,-0.25,-0.8125,0
3800,-1.25,-0.1875,-0.5625,0
3820,-1.3125,-0.375,-0.4375,0
3840,-1,-0.4375,-0.5625,0
3860,-0.625,-0.25,-0.8125,0
3880,-0.625,0.1875,-0.875,0
3900,-1.375,0,-1.3125,0
3920,-1.4375,-0.25,-1.0625,0
3940,-1.25,-0.4375,-0.8125,0
3960,-0.5625,-0.0625,-0.9375,0
3980,-0.25,-0.125,-0.75,0
4000,-0.1875,-0.0625,-1,0
4020,-0.6875,0,-1,0
4040,-0.1875,0,-1.0625,0
4060,-0.1875,-0.1875,-1.125,0
4080,0.0625,0,-0.875,0
4100,-0.125,0,-0.875,0
4120,-0.1875,-0.0625,-1.0625,0
4140,-0.625,-0.1875,-0.9375,0
4160,-1,-0.125,-1,0
4180,-1.125,0.0625,-0.8125,0
4200,-1.0625,-0.125,-0.9375,0
4220,-0.8125,0.125,-0.6875,0
4240,-1,0.125,-0.8125,0
4260,-1.4375,0.0625,-0.5625,0
4280,-1.3125,0.1875,-0.5625,0
4300,-1.0625,0.1875,-0.625,0
4320,-1.25,0.4375,-0.1875,0
4340,-1.1875,0.75,-0.625,0
4360,-1.5,0.4375,-0.5,0
4380,-1.0625,0.625,-0.3125,0
4400,-1.3125,0.5625,-0.6875,0
4420,-1.0625,0.1875,-0.125,0
4440,-0.1875,0.125,-0.125,0
4460,0.0625,-0.0625,-0.875,0
4480,0.1875,-0.0625,-0.75,0
4500,-0.1875,0.125,-0.6875,0
4520,-1.0625,0.0625,-0.5625,0
4540,-1.375,0.4375,-0.5,0
4560,-1.6875,0.375,-0.375,0
4580,-1.3125,0.1875,-0.4375,0
4600,-0.75,0.125,-0.4375,0
4620,-0.75,-0.0625,-0.375,0
4640,-0.8125,0,-0.4375,0
4660,-0.875,-0.125,-0.4375,0
4680,-0.3125,-0.125,-0.375,0
4700,-0.3125,0,-0.1875,0
4720,-0.5,0.0625,-0.5,0
4740,-0.625,0,-0.3125,0
4760,-0.4375,-0.0625,-0.125,0
4780,0.125,0,0,0
4800,0.5,0,-0.0625,0
4820,0,0,0,0
4840,-0.25,-0.125,0.1875,0
4860,0,-0.3125,0.0625,0
4880,0.25,-0.375,0,0
4900,0.625,-0.25,0.0625,0
4920,0.8125,-0.4375,-0.25,0
4940,0.6875,-0.5,-0.375,0
4960,0.5625,-0.625,-0.5,0
4980,0.3125,-0.3125,-0.4375,0
5000,0.1875,-0.25,-0.5625,0
5010,0.5,-0.4375,-0.5,0
5030,0.9375,-0.5625,-0.5625,0
5050,1.0625,-0.6875,-0.5,0
5070,1.1875,-0.8125,-0.4375,0
5090,1.375,-0.75,-0.375,0
5110,1.0625,-0.6875,-0.375,0
5130,0.8125,-0.5625,-0.375,0
5150,0.4375,-0.5,-0.25,0
5170,0.0625,-0.4375,-0.1875,0
5190,0.125,-0.4375,-0.375,0
5210,0.4375,-0.4375,-0.375,0
5230,0.4375,-0.3125,-0.5,0
5250,0.1875,-0.375,-0.375,0
5270,0.4375,-0.5,-0.375,0
5290,0.625,-0.5,-0.4375,0
5310,1,-0.5625,-0.4375,0
5330,0.9375,-0.3125,-0.625,0
5350,0.3125,0,-0.8125,0
5370,-0.9375,-0.375,-0.3125,0
5390,-1.4375,-0.0625,-0.1875,0
5410,-0.875,0.125,0.0625,0
5430,-0.625,-0.0625,-0.0625,0
5450,-0.4375,-0.25,-0.125,0
5470,-0.4375,-0.3125,0,0
5490,-0.6875,0,-0.4375,0
5510,-0.5625,-0.1875,-0.5,0
5530,-0.125,0.0625,0,0
5550,-0.625,-0.1875,-0.5625,0
5570,-0.6875,0.0625,0.0625,0
5590,-1,0.0625,-0.3125,0
5610,-0.625,-0.0625,-0.0625,0
5630,0,0.0625,-0.125,0
5650,0.0625,0,-0.25,0
5670,-0.1875,-0.0625,-0.3125,0
5690,-0.6875,0.0625,-0.125,0
5710,-0.875,0.375,0.0625,0
5730,-1.125,0.3125,0.0625,0
5750,-0.625,0.0625,-0.1875,0
5770,-0.0625,-0.0625,-0.25,0
5790,0.0625,-0.1875,-0.625,0
5810,-0.1875,-0.125,-0.4375,0
5830,-0.75,-0.0625,-0.5625,0
5850,-0.9375,-0.25,-0.25,0
5870,-1,-0.125,-0.0625,0
5890,-0.5625,0,-0.1875,0
5910,-0.0625,-0.125,-0.125,0
5930,0.125,-0.125,-0.125,0
5950,0.0625,-0.0625,0,0
5970,-0.125,0.125,0,0
5990,-0.0625,0.0625,-0.1875,0
6010,-0.3125,0,-0.125,0
6030,-0.1875,0,-0.0625,0
6050,-0.0625,0.0625,0.0625,0
6070,-0.0625,0,-0.0625,0
6090,-0.0625,-0.125,-0.3125,0
6110,-0.3125,0,-0.25,0
6130,-0.4375,0,-0.375,0
6150,-0.5625,-0.0625,-0.3125,0
6170,-0.6875,-0.125,-0.5,0
6190,-0.625,-0.25,-0.375,0
6210,-0.1875,-0.25,-0.5,0
6230,0.5,-0.3125,-0.625,0
6250,0.8125,-0.375,-0.625,0
6270,0.8125,-0.4375,-0.6875,0
6290,0.5,0.0625,-0.5625,0
6310,0.0625,0.0625,-0.1875,0
6330,-0.75,-0.0625,0,0
6350,-0.25,0,0.125,0
6370,0.3125,-0.0625,0.1875,0
6390,0.5625,-0.1875,0.0625,0
6410,0.4375,-0.1875,0.125,0
6430,0.4375,-0.4375,0,0
6450,0.625,-0.25,-0.0625,0
6470,0.75,-0.5,-0.375,0
6490,0.5,-0.375,-0.375,0
6510,0.375,-0.25,-0.6875,0
6530,0,-0.0625,-0.5,0
6550,0.0625,-0.125,-0.3125,0
6570,0.3125,-0.25,-0.125,0
6590,0.3125,-0.1875,0.125,0
6610,0.8125,-0.3125,0,0
6630,0.625,-0.5,-0.0625,0
6650,1.125,-0.8125,-0.0625,0
6670,1.6875,-0.9375,0.0625,0
6690,2.125,-1.1875,0.1875,0
6710,2.875,-1.5625,0.3125,0
6730,2.625,-2,-0.125,0
6750,2.5,-2,-0.5,0
6770,2.3125,-1.5,-0.25,0
6790,1.25,-0.6875,-0.375,0
6810,0.8125,-0.375,-0.1875,0
6830,-0.6875,0.4375,0.25,0
6850,-2.1875,0.9375,0.375,0
6870,-3.5625,1.0625,0.625,0
6890,-3,0.8125,0.3125,0
6910,-1.9375,0.6875,0.3125,0
6930,-1.4375,0.6875,0.1875,0
6950,-1.6875,0.6875,0.0625,0
6970,-2.0625,0.6875,0,0
6990,-2.375,0.6875,-0.0625,0
7000,-2.25,0.6875,0.125,0
7020,-2.125,0.75,0,0
7040,-1.5625,0.5625,-0.25,0
7060,-1.5625,0.375,-0.375,0
7080,-1.375,0.4375,-0.5625,0
7100,-1.375,0.375,-0.625,0
7120,-1.0625,0.3125,-0.75,0
7140,-1.0625,0.375,-0.8125,0
7160,-0.6875,0.3125,-0.75,0
7180,-0.8125,0.0625,-0.4375,0
7200,-1.25,0.1875,-0.3125,0
7220,-0.5,0,-0.5,0
7240,-0.1875,0.125,-0.5625,0
7260,0,0.0625,-0.6875,0
7280,-0.3125,-0.0625,-0.75,0
7300,-1.4375,-0.125,-0.375,0
7320,-1.0625,0.0625,-0.25,0
7340,-0.9375,0.125,-0.4375,0
7360,-0.8125,-0.0625,-0.3125,0
7380,-0.8125,-0.1875,-0.4375,0
7400,-1.1875,-0.0625,-0.1875,0
7420,-0.6875,-0.0625,-0.3125,0
7440,-0.625,-0.0625,-0.1875,0
7460,-0.5625,-0.1875,-0.375,0
7480,-0.75,-0.0625,-0.625,0
7500,-0.375,-0.125,-0.3125,0
7520,-0.9375,0,-0.1875,0
7540,-0.8125,-0.1875,0.125,0
7560,-0.8125,-0.25,0.375,0
7580,-0.75,-0.375,0.1875,0
7600,-0.8125,-0.5,0.1875,0
7620,-1.125,-0.3125,0.1875,0
7640,-1,-0.5,0.5,0
7660,-1.3125,-0.125,0.4375,0
7680,-1.125,-0.25,-0.25,0
7700,-1,-0.375,-0.0625,0
7720,-0.9375,0,0.0625,0
7740,-0.8125,0,-0.3125,0
7760,-1.3125,-0.1875,0,0
7780,-1.1875,0,0.125,0
7800,-0.9375,0.0625,-0.1875,0
7820,-0.3125,0.125,-0.5,0
7840,0,-0.125,-0.8125,0
7860,0.125,-0.125,-0.8125,0
7880,0.3125,-0.1875,-1,0
7900,-0.0625,-0.1875,-0.625,0
7920,-0.5,0,-0.6875,0
7940,-0.9375,0.1875,0,0
7960,-0.375,0.1875,0.3125,0
7980,-0.875,-0.125,0.75,0
8000,-0.8125,0.1875,0.8125,0
8020,-0.875,0.0625,0.3125,0
8040,-0.875,0.375,-0.0625,0
8060,-1.3125,0.5,-0.5625,0
8080,-2,0.5625,-0.375,0
8100,-1.625,0.5,-0.375,0
8120,-1.5625,0.5625,-0.5,0
8140,-1.0625,0.3125,-0.1875,0
8160,0.0625,-0.25,-0.8125,0
8180,2.3125,-1.1875,-1.375,0
8200,3.625,-0.625,-2.1875,0
8220,2.75,-0.5,-2.1875,0
8240,1.3125,-0.5625,-1.3125,0
8260,0.875,-0.6875,0.1875,0
8280,0.625,-0.6875,1.8125,0
8300,0.4375,-0.6875,2,0
8320,0.5625,-1,1.3125,0
8340,1,-1.25,0.5625,0
8360,0.875,-1.3125,0,0
8380,0.1875,-0.5625,0.4375,0
8400,-0.9375,-0.125,0.125,0
8420,-1.25,-0.0625,0.3125,0
8440,-1.3125,0,-0.25,0
8460,-1.0625,-0.25,-0.75,0
8480,-0.0625,-0.125,-1.0625,0
8500,0.875,0,-1.5625,0
8520,0.75,0.0625,-1.9375,0
8540,0.25,-0.1875,-1.875,0
8560,0.0625,0,-1.1875,0
8580,0.25,0.0625,-0.875,0
8600,0.125,0,-0.5625,0
8620,0.5,-0.3125,0,0
8640,0.25,-0.4375,0.0625,0
8660,0.1875,-0.4375,0.125,0
8680,0.0625,-0.3125,0.75,0
8700,-0.625,-0.25,0.875,0
8720,-1.375,-0.4375,1,0
8740,-1.4375,-0.125,0.75,0
8760,-1.0625,0,0.125,0
8780,-1,-0.6875,-0.0625,0
8800,-0.375,0.0625,-1.0625,0
8820,0.4375,-0.1875,-2.1875,0
8840,0.25,0.125,-2.625,0
8860,0.25,0.4375,-2.25,0
8880,-0.25,0.375,-0.9375,0
8900,-0.6875,0.25,0.0625,0
8920,-0.8125,0.1875,0.9375,0
8940,0.1875,0.0625,1.3125,0
8960,0.4375,-0.375,1,0
8980,-0.125,-0.3125,1.75,0
9000,-0.0625,0.0625,2.25,0
9020,-1.4375,0.1875,3.25,0
9040,-3.0625,0.25,3.625,0
9060,-3.9375,0.3125,2.875,0
9080,-2.625,0.9375,0.6875,0
9100,-1.4375,1.0625,-1.875,0
9120,-1.625,0.875,-3.3125,0
9140,-2,0.9375,-3.3125,0
9160,-1.75,0.6875,-2,0
9180,-0.75,0.625,-1.375,0
9200,0.75,0.1875,-1.4375,0
9220,1.9375,-0.25,-1.9375,0
9240,2.4375,-0.6875,-1.5625,0
9260,2.0625,-0.375,-0.4375,0
9280,0.3125,-0.8125,0.75,0
9300,-1,-0.6875,1.625,0
9320,-1.6875,-0.6875,1.8125,0
9340,-1.8125,-0.5625,1.9375,0
9360,-1.625,-0.75,1.625,0
9380,-0.9375,-0.75,1.125,0
9400,-0.875,-0.875,0.625,0
9420,-0.75,-0.9375,0.4375,0
9440,-1.3125,-1.125,0.6875,0
9460,-1.0625,-0.6875,-0.75,0
9480,-1.375,-0.6875,-1.3125,0
9500,-1.25,-0.5,-0.875,0
9520,-1.5,-0.25,-0.875,0
9540,-1.3125,-0.25,-0.9375,0
9560,-1.4375,-0.75,0,0
9580,-0.875,-0.25,0.3125,0
9600,-0.4375,0.125,0.375,0
9620,1.0625,0.0625,0.375,0
9640,1,-0.5625,0.125,0
9660,-1,-0.625,1.1875,0
9680,-0.9375,0,1.125,0
9700,-1.125,0.25,1.25,0
9720,-1.3125,0.5625,1.1875,0
9740,-0.8125,0.375,1.0625,0
9760,-0.125,0.1875,0.1875,0
9780,-0.4375,0.125,-0.125,0
9800,-0.5,0.0625,-0.125,0
9820,-1.25,0.0625,-0.5625,0
9840,-1.8125,0.0625,-0.4375,0
9860,-1.8125,-0.125,-0.4375,0
9880,-2.4375,-0.25,-0.5,0
9900,-1.625,0.0625,-0.3125,0
9920,-1.375,0,0.125,0
9940,-0.625,0.125,-0.0625,0
9960,-0.75,-0.0625,-0.1875,0
9980,-0.6875,0.625,0.625,0
10000,-0.6875,0.3125,0.0625,0
10020,0,-0.25,0.375,0
10040,-0.125,0.75,0.3125,0
10060,0.4375,0.75,0.0625,0
10080,1.5,0.625,0.25,0
10100,1.0625,-0.125,-0.3125,0
10120,1,-0.75,-1,0
10140,1.1875,-0.6875,-1.3125,0
10160,0.875,0.0625,-0.875,0
10180,0.6875,0.0625,-0.9375,0
10200,-0.625,0.4375,-1,0
10220,-0.5625,0.125,-0.75,0
10240,-1.3125,-0.875,-0.3125,0
10260,-0.8125,-0.875,-0.125,0
10280,-1.125,-0.25,-0.375,0
10300,-0.75,-0.3125,-0.125,0
10320,-0.6875,-0.8125,-0.375,0
10340,-1.25,-1,0.125,0
10360,-1.3125,-0.9375,-0.1875,0
10380,-1.125,-1.0625,0.3125,0
10400,-0.25,-0.25,-0.0625,0
10420,-0.875,-0.3125,-0.4375,0
10430,-0.3125,-0.125,-0.375,0
10450,-1.0625,-0.1875,-0.1875,0
10470,-0.5625,-0.1875,0.5,0
10490,-0.6875,0,0.5625,0
10510,-1.375,-0.1875,0.5,0
10530,-1.5,-0.125,0.3125,0
10550,-1.3125,-0.0625,0.25,0
10570,-0.6875,0.0625,-0.25,0
10590,0.375,-0.1875,0.3125,0
10610,0.4375,0.375,-0.875,0
10630,0.3125,-0.25,-0.8125,0
10650,0.5,-0.3125,-0.4375,0
10670,-1.25,0.25,-0.375,0
10690,-0.6875,-0.3125,-0.125,0
10710,-0.1875,-0.8125,0,0
10730,0.125,-0.0625,-0.1875,0
10750,0.3125,0.0625,-0.5,0
10770,1.1875,0.625,0.5,0
10790,2.0625,0.8125,-0.25,0
10810,2.375,-0.125,0.375,0
10830,2.0625,-0.1875,0.3125,0
10850,0.75,0.4375,0.1875,0
10870,1,1.0625,-0.8125,0
10890,1.125,1.25,-0.875,0
10910,1.5,1.375,-0.6875,0
10930,1.0625,0.625,-0.625,0
10950,0.75,0.5,0,0
10970,0.375,0.5,-0.125,0
10990,0.25,0.5625,0.1875,0
11010,0.625,0.6875,-0.0625,0
11030,0.375,0.4375,-0.0625,0
11050,0.75,0.125,-0.1875,0
11070,0.625,0.0625,0.125,0
11090,0.4375,0.0625,-0.3125,0
11110,0.25,0,-0.125,0
11130,0.4375,0.25,0.375,0
11150,0.4375,0.125,0.0625,0
11170,0.625,0.3125,0.125,0
11190,0.8125,0.3125,-0.0625,0
11210,0.5,0.5625,-0.1875,0
11230,0.375,0.5,-0.375,0
11250,0.1875,0.125,-0.5,0
11270,-0.25,-0.0625,-0.125,0
11290,-0.4375,0,-0.0625,0
11310,-0.6875,0,-0.0625,0
11330,-0.125,-0.1875,-0.5,0
11350,0.5,-0.5,-0.625,0
11370,0.3125,-0.5625,-1,0
11390,0.3125,-0.1875,-0.8125,0
11410,-0.0625,-0.0625,-1.0625,0
11430,0.0625,-0.3125,-0.8125,0
11450,-0.25,-0.125,-0.8125,0
11470,-0.0625,-0.4375,-0.9375,0
11490,0.1875,0,-1,0
11510,0.25,0,-1.1875,0
11530,-0.4375,0,-1.1875,0
11550,-0.6875,-0.25,-1.125,0
11570,-0.75,0.0625,-1,0
11590,-0.8125,-0.1875,-0.375,0
11610,-0.9375,0.1875,-0.1875,0
11630,-0.875,-0.125,-0.375,0
11650,-1.1875,-0.125,-0.6875,0
11670,-1,0.125,-0.625,0
11690,-1.125,-0.0625,-0.5,0
11710,-1.875,0.25,-0.4375,0
11730,-1.875,-0.1875,-0.4375,0
11750,-1.3125,0.25,-0.0625,0
11770,-1.3125,0.125,-0.25,0
11790,-1,0.125,-0.0625,0
11810,-0.5625,-0.1875,-0.25,0
11830,-0.75,-0.0625,-0.1875,0
11850,-0.8125,0.25,-0.1875,0
11870,-0.8125,0.1875,-0.25,0
11890,-0.75,0,-0.5625,0
11910,-1.125,0,-0.4375,0
11930,-0.3125,0.25,-0.4375,0
11950,-0.4375,0.125,-0.4375,0
11970,-0.625,0.0625,-0.4375,0
11990,-0.6875,0,-0.3125,0
12010,-1.0625,0.1875,-0.3125,0
12030,-0.375,0,-0.3125,0
12050,-0.5625,0.3125,-0.8125,0
12070,-0.375,-0.25,-0.3125,0
12090,-0.5625,0.25,-0.5,0
12110,-0.1875,-0.125,-0.5625,0
12130,-0.375,-0.1875,-0.3125,0
12150,0.1875,0,-0.375,0
12170,0.3125,0,-0.3125,0
12190,0.3125,0.3125,-0.5,0
12210,-0.375,-0.1875,-0.5625,0
12230,-0.4375,-0.125,-0.4375,0
12250,-0.5625,0.0625,-0.3125,0
12270,-0.5,-0.0625,-0.125,0
12290,-0.25,-0.0625,-0.3125,0
12310,-0.3125,-0.25,-0.3125,0
12330,-0.375,-0.25,-0.375,0
12350,-0.6875,-0.1875,-0.125,0
12370,-0.75,-0.0625,-0.125,0
12390,-0.9375,0,-0.3125,0
12410,-0.9375,0,-0.875,0
12420,-0.6875,-0.1875,-0.8125,0
12440,-0.125,0.25,-0.5,0
12460,-0.375,0.4375,-1.25,0
12480,-1.0625,0.625,-0.875,0
12500,-1.4375,0.375,-0.9375,0
12520,-0.1875,0.125,-1.25,0
12540,0.0625,0.25,-1.4375,0
12560,0.6875,-0.125,-1.75,0
12580,0.625,-0.3125,-1.5625,0
12600,0.625,-0.1875,-1.3125,0
12620,-0.0625,-0.125,-0.6875,0
12640,0.0625,0.25,-0.0625,0
12660,-0.4375,-0.0625,0.3125,0
12680,-0.625,-0.0625,0.6875,0
12700,-0.25,0.1875,0.5625,0
12720,0.3125,0.0625,0.5625,0
12740,0.8125,-0.0625,0.1875,0
12760,1.0625,-0.1875,-0.0625,0
12780,0.75,-0.125,-0.1875,0
12800,0.25,0.125,-0.1875,0
12820,-0.125,0.3125,-0.1875,0
12840,-0.4375,0.5,-0.125,0
12860,-0.4375,0.5625,-0.25,0
12880,-0.875,0.8125,0.125,0
12900,-1.4375,1,0.3125,0
12920,-1.875,0.875,0.625,0
12940,-2.3125,1.125,0.9375,0
12960,-1.8125,1.0625,1,0
12980,-1.4375,0.5,0.8125,0
13000,-0.75,0.3125,0.8125,0
13020,-0.3125,0.25,0.25,0
13040,0.125,-0.125,0.125,0
13060,0,-0.25,0.0625,0
13080,0.1875,-0.25,0,0
13100,0.75,-0.375,-0.125,0
13120,1.0625,-0.625,-0.25,0
13140,1.625,-0.9375,-0.3125,0
13160,1.4375,-0.875,-0.375,0
13180,1.9375,-0.5,-0.5625,0
13200,1.5625,-0.6875,-0.5,0
13220,1.375,-0.625,-0.4375,0
13240,0.75,-0.5625,0.1875,0
13260,0.5625,-0.375,0.4375,0
13280,0.4375,-0.375,0.5625,0
13300,0.5625,-0.625,0.125,0
13320,0.75,-0.9375,-0.125,0
13340,0.875,-0.9375,-0.1875,0
13360,1.8125,-1.375,-0.625,0
13380,2.25,-1.5,-1,0
13400,2.1875,-1.5625,-1.3125,0
13420,2,-1.375,-1.125,0
13440,1.9375,-1.25,-0.75,0
13460,1.4375,-0.875,-0.4375,0
13480,1.3125,-0.8125,-0.375,0
13500,0.25,-0.9375,-0.3125,0
13520,0.625,-0.9375,-0.3125,0
13540,1.75,-1.25,-0.75,0
13560,2.1875,-1.6875,-1.0625,0
13580,2.625,-1.625,-1.3125,0
13600,2.4375,-1.75,-1.3125,0
13620,2.1875,-1.5625,-1.375,0
13640,1.75,-1.25,-1.25,0
13660,0.5625,-1,-1,0
13680,-0.0625,-0.625,-0.5625,0
13700,-0.6875,-0.3125,-0.125,0
13720,-0.875,-0.0625,0,0
13740,-1,0,0.0625,0
13760,-1.125,0.0625,-0.125,0
13780,-1.25,0,0,0
13800,-0.875,0.0625,-0.375,0
13820,-0.625,0.25,-1.0625,0
13840,0.1875,0.625,-3.0625,0
13860,-3.625,-0.375,-1.5625,0
13880,-8.375,0.9375,8.4375,0
13900,17.125,-14.75,-21.5,0
13920,5.3125,-23.0625,-26.875,0
13940,25.9375,-24.5,-41.6875,0
13960,45.5,-32.5625,-80,0
13980,69.3125,-51.4375,-100.5,0
14000,78.125,-72.8125,-93.5,0
14020,42.625,-105.062,-88.8125,0
14040,6.75,-133,-89.875,0
14060,-12.625,-158.25,-111.438,0
14080,-18.25,-182.5,-128.562,0
14100,-15.375,-207.625,-130.938,0
14120,-32.6875,-225,-123.125,0
14140,-44.9375,-232.875,-111.688,0
14160,-55.75,-229.812,-109.438,0
14180,-48.0625,-232.375,-114.875,0
14200,-39.25,-236.438,-110.75,0
14220,-33.3125,-238.5,-106.188,0
14240,-28.4375,-244.812,-101.375,0
14270,-33.9375,-237.438,-101.688,0
14290,-23.8125,-232.875,-90.8125,0
14310,-16.125,-222.625,-83.1875,0
14330,-17.1875,-206.375,-68.8125,0
14350,-12.25,-184.438,-49.625,0
14370,-2.4375,-163.875,-33.5,0
14390,-1.5,-141.5,-23.6875,0
14410,0.9375,-117.438,-14.25,0
14430,4.5,-95,-7.125,0
14450,7,-74.5625,-0.125,0
14470,9.5,-59.5,4.5,0
14490,11.4375,-48.4375,4.9375,0
14510,10.5625,-37.125,4.0625,0
14530,11.875,-27.4375,8.75,0
14550,14.375,-21.25,11.875,0
14570,14.875,-18.5625,9.9375,0
14590,12.125,-16.5,6.25,0
14610,9.125,-12.8125,4.25,0
14630,7.4375,-9.9375,5.5625,0
14650,8.1875,-7.625,6,0
14670,5.4375,-6.125,4.8125,0
14690,3.5,-5.5,3.9375,0
14710,2.75,-4.4375,2.75,0
14730,1.5625,-3.75,2.375,0
14750,0.3125,-3.25,1.625,0
14770,0.3125,-2.9375,2.4375,0
14790,-0.6875,-2,3.3125,0
14810,-3.625,-2,4.25,0
14830,-3.3125,-1.6875,4.1875,0
14850,-3.4375,-1,5.625,0
14870,-4.4375,1.1875,4.625,0
14890,-5.0625,-0.25,2.8125,0
14910,-4.625,-2.1875,2.1875,0
14930,-3.125,-3.625,1.0625,0
14950,-2.6875,-4.9375,0.5625,0
14970,-3.625,-3.875,1,0
14990,-2.25,-2.75,-0.4375,0
15010,-1.875,-3.375,-2.5625,0
15030,-2.8125,-5.0625,-3.75,0
15050,-1.375,-6.9375,-2.125,0
15070,-0.0625,-8.9375,-1,0
15090,-0.0625,-8.6875,0,0
15110,1.125,-6.375,1.9375,0
15130,1.75,-3.125,2.75,0
15150,-0.0625,-2.5,3.375,0
15170,-0.75,-3.75,2.6875,0
15190,1.75,-5,1,0
15210,0.75,-4.875,-0.25,0
15230,0.0625,-4.4375,-0.5,0
15250,-0.8125,-4.125,0,0
15270,-0.0625,-4.6875,-1.4375,0
15290,0.875,-4.5625,-0.125,0
15310,-0.375,-4.1875,1.9375,0
15330,-0.125,-3.25,2.75,0
15350,1.5625,-2.5,3.8125,0
15370,1.5625,-3.6875,3.6875,0
15390,1.3125,-5.1875,4.125,0
15410,2.8125,-3.4375,3.875,0
15430,3.625,-0.5,3.5,0
15450,3.375,2.375,2.1875,0
15470,3.0625,3.0625,0.875,0
15490,1.5,2.4375,-1,0
15510,-0.0625,-0.5625,-2.25,0
15530,0.125,-3.1875,-3.1875,0
15550,1.625,-5.5625,-3.375,0
15570,2.375,-6.3125,-3.6875,0
15590,1.75,-5.4375,-4.125,0
15610,2.375,-2.75,-3.5,0
15630,3.125,-0.25,-2.4375,0
15650,0.0625,1.875,-3.875,0
15670,-1,3.125,-3.125,0
15690,0.125,5.6875,-2,0
15710,-0.875,8.75,-2.625,0
15730,-3,14.0625,-5.4375,0
15750,-4.25,20.625,-10,0
15770,-4.9375,26.75,-12.3125,0
15790,-5.625,32.375,-14.25,0
15810,-7.75,37.25,-13.8125,0
15830,-11.125,45.5625,-12.5625,0
15850,-12,60.0625,-11.125,0
15860,-10.8125,77.875,-8.625,0
15880,-10.4375,95.0625,-6.8125,0
15900,-9.625,111.062,-2.8125,0
15920,-9.75,128.062,7.6875,0
15940,-3.125,148.25,15.625,0
15960,13.8125,164.875,23.8125,0
15980,18.25,173.812,40.75,0
16000,9.0625,180.188,54.625,0
16020,7.5,190.688,61.25,0
16040,18.1875,203.938,65.5625,0
16060,24.5625,216.188,68.3125,0
16080,18.1875,224.5,70.375,0
16100,11.0625,216.375,67.6875,0
16120,13,204.938,69.6875,0
16140,15.75,202.375,74.5,0
16160,19.4375,200.75,78.125,0
16180,8.875,181.438,77.625,0
16200,-1.4375,165,68.4375,0
16220,-2.5,147.688,60.5,0
16240,-4.375,131.312,55.4375,0
16260,-1.6875,115.062,46.5625,0
16280,3.9375,102,38.375,0
16300,10.75,94.75,29.75,0
16320,13,86.25,24.4375,0
16340,16.1875,79,22.8125,0
16360,14.0625,79.75,19.625,0
16380,7.3125,86.4375,20.125,0
16400,8.75,85.25,23.5,0
16420,-5.25,75.5625,24.25,0
16440,-18.125,68.625,18.4375,0
16460,-12.875,61.375,15.25,0
16480,-9.875,53.125,13.75,0
16500,-10.25,44.375,12,0
16520,-2.0625,34.875,9.1875,0
16540,1.1875,28.9375,6.875,0
16560,3.625,22.875,5.125,0
16580,3.5,19.125,3.4375,0
16600,-0.875,18.75,3.9375,0
16620,-1.5625,22.375,5.6875,0
16640,-1.3125,25.625,8,0
16660,1.1875,25.125,13.5625,0
16680,6.25,25.8125,21.4375,0
16700,3.4375,24.6875,32.6875,0
16720,-6.25,23.1875,45.1875,0
16740,-15.125,22.125,55.6875,0
16760,-18.6875,20.1875,52,0
16780,-13.0625,22.4375,42.75,0
16800,-4.25,29,42.3125,0
16820,9,37.3125,42.6875,0
16840,17.4375,41.5,40.0625,0
16860,15.25,27.6875,32.8125,0
16880,-10.6875,-2.625,27,0
16900,-37.0625,-26.1875,25.6875,0
16920,-26.9375,-25.4375,22.625,0
16940,11.4375,-11.3125,15.625,0
16960,26.6875,2.75,11.6875,0
16980,12.4375,9.1875,12.875,0
17000,-13.6875,7.6875,13.125,0
17020,-33.0625,1.875,13.5,0
17040,-34.0625,-2,13.9375,0
17060,-20.625,-3.3125,13.0625,0
17080,-7.4375,-0.5625,9.0625,0
17100,-1.875,1.4375,6.5,0
17120,-1.1875,0.625,5,0
17140,-4,-1.6875,4,0
17160,-5.0625,-2.0625,3.75,0
17180,-4.9375,-1.6875,3.9375,0
17200,-5.0625,-0.5,3.4375,0
17220,-5.9375,1.125,3.4375,0
17240,-6.9375,1.1875,3.125,0
17260,-5.9375,0.875,2.25,0
17280,-3.375,0.375,1.125,0
17300,0,0.375,0,0
17320,1.5,0.1875,-1.3125,0
17340,1.8125,-0.0625,-1.5625,0
17360,0.9375,-0.25,-1.5,0
17380,-0.1875,0.25,-0.3125,0
17400,-1.5625,0.6875,0.5,0
17420,-2.0625,1.4375,1.25,0
17440,-2.0625,1.0625,1.625,0
17460,-1.8125,0.125,1.3125,0
17480,-1.75,-0.0625,0.9375,0
17500,-1.25,0.375,0.75,0
17520,-1.1875,0.75,0.3125,0
17540,-1.0625,0.625,-0.4375,0
17560,-0.25,0.4375,-1,0
17580,0.5625,0,-1.5,0
17600,0.5625,-0.25,-1.3125,0
17620,-0.125,0.0625,-0.625,0
17640,-0.9375,0.375,0.125,0
17660,-1.4375,0.8125,0.6875,0
17680,-1.5625,0.625,0.6875,0
17700,-1.25,0.25,0.6875,0
17720,-0.9375,0.3125,0.375,0
17740,-0.625,0.25,0.125,0
17760,-1.375,0.1875,-0.0625,0
17780,-1.375,0.5625,0,0
17800,-1.1875,0.625,-0.25,0
17820,-0.5625,0.375,-0.625,0
17840,-0.625,0.375,-0.4375,0
17850,-0.875,0.125,-0.4375,0
17870,-1.1875,0.125,0.125,0
17890,-1,0.25,-0.125,0
17910,-0.8125,-0.25,-0.5625,0
17930,-0.4375,-0.25,-0.375,0
17950,-0.125,-0.1875,0.125,0
17970,0,-0.375,0.0625,0
17990,-0.1875,0.125,0.25,0
18010,-0.5,0.3125,0.1875,0
18030,-1.4375,0.5,0.6875,0
18050,-1.8125,0.75,0.9375,0
18070,-1.4375,1.125,0.9375,0
18090,-0.9375,1.0625,0.625,0
18110,-0.8125,1.125,0.5,0
18130,-0.875,0.9375,0.125,0
18150,-0.8125,0.8125,0.3125,0
18170,-0.25,0.4375,0.1875,0
18190,0.0625,0.4375,0.0625,0
18210,0.375,0.3125,0,0
18230,0.8125,0.125,-0.125,0
18250,0.875,0.125,-0.125,0
18270,0.875,0.125,-0.125,0
18290,1.1875,-0.125,0.1875,0
18310,1.125,-0.4375,0.625,0
18330,0.3125,-0.5,1.0625,0
18350,-0.1875,-0.4375,0.9375,0
18370,-0.375,-0.125,0.5,0
18390,-0.25,0,0.0625,0
18410,-0.25,0,0.1875,0
18430,-1,-0.125,0.375,0
18450,-0.75,-0.375,1.5625,0
18470,-0.6875,-0.3125,1.25,0
18490,-0.8125,-0.5625,0.3125,0
18510,-0.3125,-0.1875,0,0
18530,0.375,-0.0625,-0.6875,0
18550,0.4375,-0.125,0.0625,0
18570,-0.25,-0.5,0.875,0
18590,-1.125,-0.6875,1.3125,0
18610,-1.4375,-0.75,1.375,0
18630,-1,-0.875,1.625,0
18650,-1,-0.625,2.25,0
18670,-1.5,-0.3125,2,0
18690,-1.5,-0.375,1.9375,0
18710,-1.1875,-0.4375,1.3125,0
18730,-1,-0.1875,0.8125,0
18750,-0.5,0.3125,1,0
18770,-0.0625,0,0.8125,0
18790,-0.1875,-0.125,0.5,0
18810,0.125,-0.3125,0.5,0
18830,-0.375,-0.1875,0.5,0
18850,-0.4375,-0.0625,0.5,0
18870,-0.3125,0.0625,0.375,0
18890,-0.4375,0,0.25,0
18910,-0.875,0.0625,0.375,0
18930,-0.8125,-0.125,0.4375,0
18950,-0.5625,-0.125,0.5,0
18970,-0.1875,0.0625,-0.0625,0
18990,0.0625,-0.1875,0,0
19010,-0.4375,-0.25,-0.125,0
19030,-0.3125,-0.125,-0.3125,0
19050,-0.25,-0.1875,-0.3125,0
19070,-0.375,-0.375,-0.5,0
19090,-0.5,-0.1875,-0.375,0
19110,-0.3125,-0.125,-0.625,0
19130,-0.5625,-0.25,-0.875,0
19150,-0.375,-0.25,-0.875,0
19170,-0.5,-0.25,-0.9375,0
19190,-0.875,-0.25,-0.8125,0
19210,-0.875,-0.0625,-0.625,0
19230,-1,0.0625,-0.5625,0
19250,-1.1875,-0.125,-0.4375,0
19270,-1.125,0.0625,-0.4375,0
19290,-1.1875,-0.0625,-0.375,0
19310,-1.1875,0.0625,-0.5,0
19330,-1.0625,0,-0.625,0
19350,-0.9375,0.0625,-0.5,0
19370,-1.0625,0.25,-0.4375,0
19390,-1.375,0.3125,-0.5625,0
19410,-1.625,0.4375,-0.125,0
19430,-1.75,0.625,0.125,0
19450,-1.6875,0.375,-0.0625,0
19470,-1.5625,0.375,-0.125,0
19490,-1.375,0.25,-0.125,0
19510,-1.3125,0.5,-0.3125,0
19530,-1.1875,0.4375,-0.1875,0
19550,-1.3125,0.125,-0.125,0
19570,-1.125,0.1875,-0.25,0
19590,-1.1875,0.0625,-0.3125,0
19610,-1.1875,0.4375,-0.4375,0
19630,-1,0.4375,-0.5625,0
19650,-1.0625,0.125,-0.3125,0
19670,-1.5,0.1875,-0.25,0
19690,-1.5625,0.375,0.125,0
19710,-1.3125,0.3125,0.0625,0
19730,-0.9375,0.1875,-0.125,0
19750,-0.875,0.375,-0.0625,0
19770,-0.625,0.25,-0.375,0
19790,-1.125,0.125,-0.1875,0
19810,-1,0.0625,-0.1875,0
19830,-0.625,0.125,-0.25,0
19850,-0.6875,0.125,-0.25,0
19870,-0.3125,0.1875,0.125,0
19890,-0.5,0.3125,0.1875,0
19910,-0.5,0.6875,-0.0625,0
19930,0.6875,0.375,0.1875,0
19950,0.625,0,-1.1875,0
19970,0.8125,-0.125,-1.5,0
19990,1.1875,0.0625,-1.3125,0
20010,1.1875,-0.625,0.625,0
20030,-0.3125,-0.6875,1.375,0
20050,-1.625,-0.5625,-0.4375,0
20070,-1,-0.8125,0.875,0
20090,-0.75,0.125,0.6875,0
20110,-0.75,-0.125,1.5,0
20130,-1.0625,-0.125,1,0
20150,-1.0625,-0.5625,-0.625,0
20170,-0.25,-0.6875,0.25,0
20190,0.375,0.625,0.375,0
20210,0.1875,0.125,-1.375,0
20230,0,-0.375,-0.4375,0
20250,-0.25,0.0625,-0.125,0
20270,-0.375,-0.0625,-0.125,0
20290,-0.5,0.1875,0.0625,0
20310,-0.875,0.25,0.125,0
20330,-0.8125,0.1875,-0.0625,0
20350,-0.4375,0.125,0.1875,0
20370,-0.0625,0.0625,0.125,0
20390,0,-0.1875,-0.125,0
20410,-0.5625,0.125,-0.0625,0
20430,-1.3125,0.25,0.1875,0
20450,-1.4375,0.125,0.625,0
20470,-1.3125,0.3125,0.1875,0
20490,-1.625,0.0625,0.0625,0
20510,-1.1875,-0.4375,-0.25,0
20530,-0.0625,-0.0625,-0.5,0
20550,0.1875,-0.1875,-0.6875,0
20570,0.3125,-0.5,-1,0
20590,0,-0.75,-1.125,0
20610,1,-0.875,-1.25,0
20630,0.125,-0.4375,-1.1875,0
20650,-0.5,-0.1875,-0.8125,0
20670,-0.75,-0.375,-0.5,0
20690,-0.3125,-0.4375,-0.6875,0
20710,0.625,-0.6875,-0.5,0
20730,0.5625,-0.5625,-0.0625,0
20750,0.6875,-0.375,-0.125,0
20770,0.4375,-0.1875,0,0
20790,0,-0.3125,0.3125,0
20810,-0.1875,-0.3125,0.4375,0
20830,0.0625,-0.25,0.5625,0
20850,0.4375,-0.375,0.4375,0
20870,0.5625,-0.625,-0.1875,0
20890,0.4375,-0.8125,-0.4375,0
20910,0.875,-0.8125,-0.5,0
20930,0.875,-0.125,-0.5625,0
20950,0.5625,0.125,-0.375,0
20970,0.0625,0.0625,-0.0625,0
20990,-0.1875,0.0625,-0.1875,0
21010,-0.3125,0,0.0625,0
21030,-0.0625,-0.0625,-0.0625,0
21050,0.25,-0.0625,-0.5625,0
21070,0.375,-0.125,-0.625,0
21090,-0.0625,-0.0625,-0.3125,0
21110,-1.0625,0.25,-0.1875,0
21130,-1.25,0.375,-0.125,0
21150,-1.125,0.3125,-0.375,0
21170,-0.8125,0.4375,-0.25,0
21190,-0.75,0.6875,-0.3125,0
21210,-0.4375,0.625,-0.5625,0
21230,-0.5,0.625,-0.375,0
21250,-0.375,0.4375,-0.6875,0
21270,-0.375,0.25,-1.0625,0
21280,-0.4375,0.5625,-1.4375,0
21300,-0.625,0.6875,-1.1875,0
21320,-1.0625,0.5625,-1.25,0
21340,-0.9375,0.5,-1,0
21360,-1.0625,0.125,-0.5625,0
21380,-0.8125,-0.375,-0.25,0
21400,1,0,-0.5625,0
21420,2.25,-0.4375,-1,0
21440,1.5625,-1,-0.8125,0
21460,1.1875,-0.5625,-0.0625,0
21480,-0.25,0.1875,0.125,0
21500,-0.5,0.5,0.6875,0
21520,-0.9375,0.4375,0.75,0
21540,-1.625,-0.125,0.5625,0
21560,-1.4375,-0.0625,0.4375,0
21580,-0.75,0.125,0,0
21600,-0.75,0.1875,-0.125,0
21620,-1,0,-0.4375,0
21640,-1,-0.625,-0.3125,0
21660,-1,-0.6875,0.5625,0
21680,-0.25,0.0625,-0.625,0
21700,-0.25,0.1875,-1.25,0
21720,0.125,0.375,-0.0625,0
21740,-0.375,0.625,-0.375,0
21760,0.125,0.3125,-0.125,0
21780,0.9375,0,-0.1875,0
21800,0.8125,-0.5,-0.6875,0
21820,1.1875,-0.375,-0.75,0
21840,1.1875,-0.75,-1.0625,0
21860,0.875,-1.125,-1.125,0
21880,0.4375,-0.875,-0.5625,0
21900,-0.1875,-0.5,-0.25,0
21920,-0.5625,0.1875,-0.3125,0
21940,-0.125,0.625,-0.75,0
21960,0.0625,0.3125,-0.875,0
21980,0.1875,-0.125,-0.625,0
22000,0.125,0.375,-0.375,0
22020,-0.5625,0.375,-0.5,0
22040,-1.3125,0.25,-0.375,0
22060,-1.0625,-0.0625,-0.1875,0
22080,-0.8125,0.125,0,0
22100,-0.25,0.3125,-0.5,0
22120,0.625,0.0625,-0.375,0
22140,0.9375,-0.125,-0.5,0
22160,0.8125,-0.125,-0.25,0
22180,0.25,-0.25,-0.0625,0
22200,0.0625,0.0625,0.0625,0
22220,-0.125,0.25,0,0
22240,-0.3125,0.25,0,0
22260,-0.5625,0.125,0.0625,0
22280,-0.625,0.375,0.5,0
22300,1.3125,0.9375,-1.3125,0
22320,0.4375,-1.0625,-0.1875,0
22340,-0.9375,-0.375,1.625,0
22360,-1.5625,0.3125,0.5,0
22380,-0.6875,0.6875,0.4375,0
22400,-0.8125,0.4375,0.625,0
22420,-1.4375,0.375,0.875,0
22440,-0.8125,0.375,0.6875,0
22460,-0.3125,0.125,0.5,0
22480,-0.4375,0.0625,0.5625,0
22500,-0.4375,0.125,0.4375,0
22520,-0.3125,0.125,0.125,0
22540,-0.5,0,0.375,0
22560,-0.375,0.125,0.375,0
22580,-0.375,-0.25,0.5,0
22600,-0.875,-0.8125,1.25,0
22620,-1.875,-0.3125,2.5,0
22640,-1.75,0.5,1.25,0
22660,-0.0625,0.375,-0.3125,0
22680,0.8125,-0.0625,-0.1875,0
22700,0.3125,0.125,-0.1875,0
22720,0.0625,0.3125,0.125,0
22740,0.1875,0.125,0.1875,0
22760,0,0,-0.0625,0
22780,0.1875,-0.125,-0.25,0
22800,0.5625,-0.4375,-0.625,0
22820,0.6875,-0.5625,-0.8125,0
22840,0.6875,-0.6875,-0.8125,0
22860,0.375,-0.75,-0.6875,0
22880,0.625,-0.75,-1.5,0
22900,1.1875,-0.75,-1.625,0
22920,1.0625,-0.4375,-1.25,0
22940,0.5,-0.1875,-1,0
22960,0.375,-0.25,-0.8125,0
22980,-0.0625,-0.5625,0.125,0
23000,-0.125,-0.25,-0.1875,0
23020,0.375,-0.1875,-0.9375,0
23040,1,-0.625,-0.5,0
23060,0.5625,-0.4375,-0.5625,0
23080,0.1875,-0.25,-0.125,0
23100,0.1875,0.5,-1.125,0
23120,0.625,-0.8125,-1.25,0
23140,-0.1875,-0.875,0.875,0
23160,0.3125,0.4375,-1.375,0
23180,0.4375,-0.6875,-0.875,0
23200,0.5625,-0.4375,0.3125,0
23220,-0.4375,-0.4375,-0.625,0
23240,-0.625,-0.0625,-0.5,0
23260,-0.1875,-0.3125,-0.4375,0
23280,-0.5,-0.3125,-0.25,0
23290,-0.875,0.3125,0,0
23310,0.125,0.75,-2,0
23330,0.1875,-0.6875,-0.5,0
23350,-0.5625,-0.4375,0.6875,0
23370,-0.875,0.125,-0.0625,0
23390,-0.75,0.1875,-0.25,0
23410,-0.75,0.0625,-0.375,0
23430,-1.3125,-0.0625,0.125,0
23450,-1.375,0.125,0.25,0
23470,-1.75,0.125,0.3125,0
23490,-2.0625,0.1875,0.625,0
23510,-1.6875,0.375,0.375,0
23530,-1.4375,0.3125,0.375,0
23550,-1.1875,0.0625,0.375,0
23570,-1.5625,0.125,0.375,0
23590,-1.4375,0.3125,0.375,0
23610,-0.25,0.0625,-0.1875,0
23630,-1.9375,-1.125,0.1875,0
23650,-3.1875,-0.5,3.4375,0
23670,-2.25,1.875,-0.4375,0
23690,-1.0625,-0.1875,-1.375,0
23710,-0.0625,0.375,-0.1875,0
23730,0,0.0625,-0.9375,0
23750,0.6875,-0.0625,-0.625,0
23770,1.125,-0.125,-0.375,0
23790,-0.125,0.25,-0.6875,0
23810,-0.1875,0.625,-0.875,0
23830,-1.1875,0.3125,-0.1875,0
23850,-1.25,0.0625,-0.1875,0
23870,-0.8125,0.0625,0,0
23890,-0.75,0,-0.1875,0
23910,-0.5,-0.125,-0.125,0
23930,0.1875,0.0625,-0.5625,0
23950,0.25,-0.1875,-0.875,0
23970,0.1875,-0.125,-0.375,0
23990,-0.3125,-0.25,-0.1875,0
24010,-0.25,0,-0.625,0
24030,0,0,-0.75,0
24050,0,-0.0625,-0.4375,0
24070,0.125,-0.125,-0.3125,0
24090,0.5,-0.125,-0.5,0
24110,0.8125,-0.25,-0.375,0
24130,0.125,-0.4375,-0.375,0
24150,-0.1875,-0.1875,-0.0625,0
24170,-0.125,-0.1875,0,0
24190,-0.125,-0.1875,-0.0625,0
24210,0.1875,-0.4375,-0.25,0
24230,0.5625,-0.4375,-0.125,0
24250,0.5,-0.25,-0.625,0
24270,0.3125,-0.1875,-0.625,0
24290,0.125,-0.4375,-0.25,0
24310,-0.25,-0.3125,-0.3125,0
24330,-0.3125,-0.3125,0,0
24350,-0.1875,-0.25,0.0625,0
24370,0.1875,-0.375,-0.3125,0
24390,-0.25,-0.3125,0.125,0
24410,-0.875,0.4375,0.8125,0
24430,0.4375,0.625,-1.625,0
24450,-0.0625,-1.3125,0.4375,0
24470,-0.125,-0.3125,0.25,0
24490,-0.75,-0.1875,-0.125,0
24510,-0.6875,0.5625,0.1875,0
24530,-1.25,0,0.1875,0
24550,-1.5,-0.1875,0.1875,0
24570,-0.875,-0.0625,0.125,0
24590,-0.5625,0.0625,0.125,0
24610,-0.9375,0.0625,0.1875,0
24630,-0.9375,0.1875,0.1875,0
24650,-1.125,0.125,0.0625,0
24670,-0.6875,0.0625,0.25,0
24690,-0.5625,0.125,0.0625,0
24710,-0.5625,0.1875,-0.0625,0
24730,-0.625,-0.0625,0,0
24750,-0.5625,-0.0625,0,0
24770,-0.125,0,0.125,0
24790,-0.3125,0.125,0.3125,0
24810,-0.75,0.125,0.3125,0
24830,-0.3125,-0.25,0.3125,0
24850,-0.125,0.0625,0.1875,0
24870,1,0.125,-0.3125,0
24890,-0.375,-1.1875,0.3125,0
24910,-3.1875,-0.75,3.3125,0
24930,-0.9375,0.875,-0.0625,0
24950,0.1875,-0.25,-0.4375,0
24970,0.9375,-0.3125,0.25,0
24990,0.25,-0.5,-0.625,0
25010,0.6875,-0.4375,0.125,0
25030,0.8125,-0.375,-0.125,0
25050,0.125,-0.5625,-0.0625,0
25070,0.375,-0.3125,-0.4375,0
25090,0.875,-0.3125,-0.625,0
25110,0.6875,-0.5625,-0.5,0
25130,0.6875,-0.625,-0.125,0
25150,0.4375,-0.6875,-0.1875,0
25170,0.9375,-0.6875,-0.1875,0
25190,1.1875,-0.75,-0.1875,0
25210,0.6875,-0.5625,-0.4375,0
25230,0.9375,-0.6875,-0.5,0
25250,0.625,-0.8125,-0.25,0
25270,0.5625,-0.75,-0.4375,0
25290,0.8125,-0.6875,-0.625,0
25310,0.6875,-0.6875,-0.5,0
25330,0.75,-0.625,-0.625,0
25350,0.3125,-0.4375,-0.4375,0
25370,0.3125,-0.375,-0.4375,0
25390,0.1875,-0.375,-0.4375,0
25410,0.1875,-0.375,-0.4375,0
25430,0.1875,-0.25,-0.5,0
25450,0.25,-0.3125,-0.625,0
25470,0.375,-0.25,-0.5625,0
25490,0.375,-0.25,-0.4375,0
25510,0.0625,-0.1875,-0.4375,0
25530,-0.0625,-0.1875,-0.5625,0
25550,-0.125,-0.375,-0.4375,0
25570,-0.1875,-0.375,-0.1875,0
25590,-0.25,-0.1875,-0.125,0
25610,-0.375,-0.125,-0.1875,0
25630,-0.5625,-0.1875,-0.125,0
25650,-0.625,0,-0.3125,0
25670,-0.6875,0.1875,-0.4375,0
25690,-0.4375,0.125,-0.625,0
25710,-0.375,-0.25,-0.125,0
25730,-0.75,0,-0.125,0
25750,-0.9375,0,-0.375,0
25770,-0.625,-0.125,-0.5625,0
25790,-0.625,0.125,-0.4375,0
25810,-0.625,0.125,-0.25,0
25830,-0.6875,-0.0625,-0.3125,0
25850,-0.5,-0.0625,0,0
25870,-0.25,-0.125,-0.25,0
25890,-0.3125,0.25,-0.4375,0
25910,-0.4375,0.1875,-0.5,0
25930,-0.9375,-0.0625,-0.1875,0
25950,-1.3125,0.125,-0.25,0
25970,-0.75,0.125,-0.1875,0
25990,-0.75,0,-0.125,0
26010,-0.6875,0.1875,-0.1875,0
26030,-0.625,-0.0625,-0.4375,0
26050,-1,-0.125,-0.3125,0
26070,-1.0625,0.0625,-0.1875,0
26090,-0.9375,0.1875,-0.1875,0
26110,-0.625,0.0625,-0.5,0
26130,-0.75,0.125,-0.3125,0
26150,-0.875,0.0625,-0.1875,0
26170,-0.8125,0.0625,0,0
26190,-0.5,0.25,-0.0625,0
26210,-0.125,0.0625,-0.1875,0
26230,-0.75,0,-0.125,0
26250,-0.5,0.125,-0.125,0
26270,-0.5625,0,0,0
26290,-0.5625,0.125,-0.1875,0
26310,-0.25,-0.125,-0.3125,0
26330,-0.0625,-0.1875,-0.4375,0
26350,-0.1875,-0.25,-0.3125,0
26370,-0.5,-0.1875,-0.4375,0
26390,-0.375,-0.125,-0.25,0
26410,-0.375,-0.0625,-0.375,0
26430,-0.3125,-0.125,-0.3125,0
26450,-0.1875,-0.0625,-0.3125,0
26470,-0.0625,-0.25,-0.25,0
26490,0.0625,-0.25,-0.3125,0
26510,0.125,-0.1875,-0.3125,0
26530,-0.125,-0.1875,-0.3125,0
26550,-0.0625,-0.1875,-0.3125,0
26570,-0.4375,-0.125,-0.125,0
26590,-0.125,0.1875,-0.3125,0
26610,0.375,-0.25,-0.75,0
26630,0,-0.4375,-0.125,0
26650,-0.4375,-0.125,-0.125,0
26670,-0.25,0,-0.125,0
26690,-0.25,-0.0625,-0.3125,0
26710,-0.4375,-0.1875,-0.125,0
26720,-0.4375,-0.0625,-0.0625,0
26740,-0.3125,-0.0625,-0.25,0
26760,-0.4375,-0.0625,-0.125,0
26780,-0.4375,0.25,-0.4375,0
26800,-0.5,-0.25,-0.5625,0
26820,-0.375,-0.0625,-0.1875,0
26840,-0.4375,-0.1875,-0.1875,0
26860,-0.375,0.125,0.1875,0
26880,-0.4375,0.1875,-0.4375,0
26900,-0.0625,-0.0625,-0.375,0
26920,0.1875,0,-0.1875,0
26940,-0.375,0.5,-0.1875,0
26960,-1.125,0,-0.25,0
26980,-1.5,0.0625,0.0625,0
27000,-1,0.125,0.125,0
27020,-0.3125,-0.0625,0.375,0
27040,-0.5625,-0.0625,-0.125,0
27060,-0.5,-0.125,-0.3125,0
27080,-0.6875,-0.125,-0.125,0
27100,-0.75,-0.1875,-0.1875,0
27120,-0.5625,0.0625,0,0
27140,-0.9375,0.0625,-0.25,0
27160,-0.5,0,-0.375,0
27180,-0.625,0.0625,-0.3125,0
27200,-0.5,-0.0625,-0.0625,0
27220,-0.5625,0.1875,0.125,0
27240,-0.375,0.1875,-0.1875,0
27260,-0.3125,0.0625,0,0
27280,-0.9375,0.0625,-0.125,0
27300,-0.5625,0,-0.25,0
27320,-0.5625,-0.0625,0,0
27340,-0.8125,-0.0625,0.0625,0
27360,-0.5625,-0.0625,-0.25,0
27380,-0.3125,-0.1875,-0.375,0
27400,-0.25,-0.1875,-0.4375,0
27420,-0.5,-0.125,-0.25,0
27440,-0.625,0.0625,-0.0625,0
27460,-0.6875,-0.125,0.0625,0
27480,-0.75,0.0625,0.125,0
27500,-0.5,0,-0.125,0
27520,-0.0625,-0.125,-0.125,0
27540,-0.0625,0,-0.0625,0
27560,-0.125,-0.125,0,0
27580,-0.5625,0.0625,-0.125,0
27600,-0.5,0.125,-0.1875,0
27620,-0.3125,-0.0625,-0.3125,0
27640,-0.25,0,-0.0625,0
27660,-0.3125,0,-0.3125,0
27680,-0.375,-0.1875,-0.1875,0
27700,-0.4375,0,-0.1875,0
27720,-0.4375,-0.0625,-0.1875,0
27740,-0.375,-0.0625,-0.1875,0
27760,-0.375,-0.125,-0.3125,0
27780,-0.375,-0.1875,-0.3125,0
27800,-0.375,0.0625,-0.0625,0
27820,-0.625,0,0.125,0
27840,-0.5,0.125,-0.25,0
27860,-0.375,-0.0625,-0.375,0
27880,-0.1875,0,-0.25,0
27900,0.0625,-0.125,-0.125,0
27920,-0.0625,-0.0625,-0.3125,0
27940,0.125,-0.3125,-0.375,0
27960,-0.125,0,-0.375,0
27980,-0.375,0.1875,-0.25,0
28000,-0.75,-0.1875,-0.25,0
28020,-0.875,-0.3125,-0.1875,0
28040,-0.3125,-0.1875,-0.0625,0
28060,-0.125,-0.125,0,0
28080,-0.125,-0.0625,-0.3125,0
28100,-0.3125,-0.25,-0.375,0
28120,-0.6875,-0.3125,-0.125,0
28140,-0.5,-0.125,-0.25,0
28160,-0.5,0.0625,-0.3125,0
28180,-0.4375,-0.0625,-0.4375,0
28200,-0.1875,-0.125,-0.375,0
28220,-0.3125,-0.0625,-0.25,0
28240,-0.125,-0.1875,0,0
28260,-0.125,-0.125,0,0
28280,0,0.125,-0.1875,0
28300,-0.5625,-0.0625,-0.1875,0
28320,-0.625,0,-0.25,0
28340,-0.3125,-0.1875,-0.0625,0
28360,-0.375,-0.3125,-0.1875,0
28380,-0.0625,0,-0.5,0
28400,0,-0.125,-0.5,0
28420,0.125,-0.125,-0.375,0
28440,-0.3125,-0.0625,-0.3125,0
28460,-0.4375,-0.1875,-0.375,0
28480,-0.5,-0.0625,-0.25,0
28500,-0.25,-0.125,-0.25,0
28520,-0.25,0,-0.125,0
28540,0,-0.125,-0.125,0
28560,0.0625,-0.1875,-0.1875,0
28580,0,-0.0625,-0.125,0
28600,-0.125,0,-0.1875,0
28620,-0.125,0,-0.1875,0
28640,-0.3125,0,-0.25,0
28660,-0.25,-0.0625,-0.1875,0
28680,-0.25,0,-0.0625,0
28700,-0.125,-0.125,-0.25,0
28710,0.0625,-0.125,-0.25,0
28730,-0.125,-0.1875,-0.5,0
28750,-0.1875,-0.125,-0.5,0
28770,0.0625,-0.125,-0.375,0
28790,0.1875,-0.0625,-0.625,0
28810,-0.125,-0.3125,-0.4375,0
28830,-0.375,0,0.125,0
28850,-0.4375,0,-0.375,0
28870,-0.25,-0.125,-0.4375,0
28890,0.125,-0.3125,-0.3125,0
28910,0.625,-0.3125,-0.1875,0
28930,0.8125,-0.5,-0.3125,0
28950,0.4375,-0.25,-0.5625,0
28970,-0.1875,-0.0625,-0.4375,0
28990,-0.8125,-0.3125,0,0
29010,-0.4375,-0.125,0.25,0
29030,0.1875,-0.3125,0.5,0
29050,-0.3125,-0.1875,0.75,0
29070,-0.4375,-0.1875,0.5,0
29090,-0.375,-0.375,0.875,0
29110,-0.4375,-0.0625,0.875,0
29130,-0.375,-0.125,0.5,0
29150,0.125,-0.125,-0.3125,0
29170,1.3125,-0.5,-0.25,0
29190,1.125,-0.3125,0.1875,0
29210,0.1875,-0.3125,0.5625,0
29230,-0.4375,-0.125,0.5,0
29250,-0.3125,0.125,0.0625,0
29270,-0.0625,-0.1875,0.125,0
29290,-0.6875,-0.25,0,0
29310,0.125,-0.4375,-0.1875,0
29330,0.5,-0.5625,-0.0625,0
29350,0.0625,-0.6875,0.0625,0
29370,0.3125,-0.5,0.4375,0
29390,0,-0.3125,0.625,0
29410,-0.125,-0.4375,0.1875,0
29430,0.3125,-0.5,0.0625,0
29450,1,-0.5625,-0.1875,0
29470,0.9375,-0.4375,-0.0625,0
29490,0.75,-0.1875,0.125,0
29510,0.125,-0.5,0.0625,0
29530,-0.375,-0.375,1,0
29550,-0.3125,-0.0625,0.5625,0
29570,-0.3125,0,0.6875,0
29590,-0.1875,-0.125,0.3125,0
29610,-0.125,-0.1875,0,0
29630,0.1875,-0.25,-0.0625,0
29650,0.4375,-0.1875,-0.1875,0
29670,0.4375,-0.3125,-0.1875,0
29690,0.1875,-0.375,-0.0625,0
29710,-0.25,-0.25,-0.1875,0
29730,-0.25,-0.3125,0,0
29750,-0.375,-0.1875,0.0625,0
29770,-0.3125,0,0.125,0
29790,-0.5625,-0.125,0.125,0
29810,-0.5625,0,0.1875,0
29830,-0.375,-0.125,0.25,0
29850,-0.5,-0.3125,0.125,0
29870,-0.375,-0.375,0.0625,0
29890,0.1875,-0.3125,-0.125,0
29910,-0.25,-0.0625,-0.4375,0
29930,-0.5,-0.25,-0.3125,0
29950,-0.9375,-0.4375,-0.3125,0
29970,-0.4375,-0.1875,-0.1875,0
29990,-0.25,-0.1875,-0.0625,0
30010,-0.5,-0.0625,-0.25,0
30030,-0.375,-0.25,-0.5,0
30050,-0.375,-0.3125,-0.3125,0
30070,-0.4375,-0.25,-0.375,0
30090,-0.375,-0.0625,-0.3125,0
30110,-0.625,-0.0625,-0.125,0
30130,-0.5625,-0.0625,-0.375,0
30150,-0.4375,-0.125,-0.25,0
30170,0,-0.25,-0.375,0
30190,-0.375,-0.125,-0.4375,0
30210,-0.0625,-0.25,-0.5625,0
30230,-0.6875,-0.25,-0.6875,0
30250,-0.5,-0.375,-0.625,0
30270,-0.5,-0.3125,-0.5,0
30290,-0.625,-0.4375,-0.5625,0
30310,-0.3125,-0.1875,-0.5625,0
30330,-0.1875,-0.25,-0.6875,0
30350,-0.25,-0.3125,-0.5,0
30370,-0.4375,-0.1875,-0.625,0
30390,-0.8125,-0.3125,-0.5625,0
30410,-0.625,-0.1875,-0.5625,0
30430,-0.75,-0.125,-0.375,0
30450,-0.5,-0.1875,-0.4375,0
30470,-0.375,-0.25,-0.375,0
30490,-0.25,-0.1875,-0.4375,0
30510,-0.25,-0.125,-0.4375,0
30530,-0.3125,-0.0625,-0.375,0
30550,-0.4375,-0.1875,-0.375,0
30570,-0.4375,-0.1875,-0.4375,0
30590,-0.25,-0.1875,-0.5625,0
30610,-0.3125,-0.1875,-0.5,0
30630,-0.375,-0.0625,-0.5625,0
30650,-0.625,-0.125,-0.5,0
30670,-0.625,-0.25,-0.4375,0
30690,-0.4375,-0.1875,-0.5,0
30710,-0.375,-0.25,-0.5,0
30730,-0.4375,-0.0625,-0.5,0
30750,-0.75,-0.0625,-0.4375,0
30770,-0.6875,-0.1875,-0.4375,0
30790,-0.5625,-0.0625,-0.375,0
30810,-0.5,-0.125,-0.3125,0
30830,-0.4375,-0.125,-0.3125,0
30850,-0.125,-0.25,-0.3125,0
30870,-0.375,0.0625,-0.375,0
30890,-0.5625,0.25,-0.3125,0
30910,-0.8125,-0.125,-0.25,0
30930,-1.1875,-0.125,-0.0625,0
30950,-1.0625,0,-0.125,0
30970,-0.75,0,-0.0625,0
30990,-0.75,0.0625,-0.3125,0
31010,-0.75,-0.1875,-0.25,0
31030,-0.8125,-0.125,-0.1875,0
31050,-0.75,-0.0625,-0.375,0
31070,-0.6875,0,-0.1875,0
31090,-0.6875,0.0625,-0.375,0
31110,-0.8125,0.125,-0.25,0
31130,-0.8125,0.1875,-0.1875,0
31150,-0.5625,0,-0.0625,0
31170,-0.75,0.0625,0.0625,0
31190,-0.3125,0.25,-0.0625,0
31210,-0.5,0.1875,-0.125,0
31230,-0.6875,0.0625,-0.1875,0
31250,-0.625,0.0625,-0.1875,0
31270,-0.625,0.0625,-0.1875,0
31290,-0.625,0.25,-0.3125,0
31310,-0.25,-0.0625,-0.3125,0
31330,-0.1875,-0.0625,-0.1875,0
31350,-0.1875,-0.0625,-0.3125,0
31370,-0.1875,-0.0625,-0.25,0
31390,-0.5625,-0.0625,-0.1875,0
31410,-0.5,0,-0.1875,0
31430,-0.25,0,-0.125,0
31450,-0.1875,0,-0.0625,0
31470,0,-0.0625,-0.0625,0
31490,0,-0.125,-0.0625,0
31510,-0.0625,-0.0625,-0.125,0
31530,-0.1875,-0.125,-0.125,0
31550,-0.125,0,-0.125,0
31570,-0.375,0,-0.1875,0
31590,-0.1875,-0.0625,-0.25,0
31610,-0.25,-0.1875,-0.1875,0
31630,-0.1875,-0.125,-0.25,0
31650,-0.25,-0.1875,-0.25,0
31670,-0.1875,-0.25,-0.375,0
31690,-0.1875,-0.125,-0.25,0
31710,-0.375,-0.125,-0.3125,0
31730,-0.3125,-0.0625,-0.1875,0
31750,-0.3125,0,-0.125,0
31770,-0.4375,0,-0.125,0
31790,-0.5,-0.0625,-0.1875,0
31810,-0.3125,-0.0625,-0.3125,0
31830,-0.1875,-0.1875,-0.125,0
31850,0.0625,-0.1875,-0.125,0
31870,-0.3125,-0.125,-0.25,0
31890,-0.0625,-0.125,-0.1875,0
31910,-0.0625,-0.1875,-0.375,0
31930,-0.3125,0.125,-0.3125,0
31950,-0.8125,-0.1875,-0.125,0
31970,-1.1875,-0.1875,0,0
31990,-0.625,-0.0625,0.1875,0
32010,-0.5,-0.0625,0.0625,0
32030,-0.6875,-0.0625,-0.25,0
32050,-0.75,-0.0625,-0.3125,0
32070,-0.875,0,0,0
32090,-0.75,-0.0625,-0.25,0
32110,-0.8125,0.0625,-0.3125,0
32130,-1.0625,0.125,-0.125,0
32140,-0.8125,0.1875,0.0625,0
32160,-0.8125,0.0625,0.125,0
32180,-1,0.0625,0.375,0
32200,-1.125,0.0625,0.625,0
32220,-1.6875,0,0.9375,0
32240,-2.5,0.0625,1.25,0
32260,-1.0625,0.0625,0.625,0
32280,-0.875,0.25,0.0625,0
32300,-0.5,0.3125,-0.3125,0
32320,-0.5625,-0.0625,-0.375,0
32340,-0.5625,-0.0625,-0.125,0
32360,-0.1875,-0.125,-0.25,0
32380,0.125,-0.0625,-0.375,0
32400,-0.25,-0.125,-0.5,0
32420,-0.4375,-0.0625,-0.375,0
32440,-0.5625,0.0625,-0.1875,0
32460,-0.5,0,-0.0625,0
32480,-0.5,-0.0625,-0.25,0
32500,-0.1875,-0.0625,-0.25,0
32520,-0.0625,-0.125,-0.1875,0
32540,0.375,-0.125,-0.25,0
32560,0.0625,-0.1875,-0.3125,0
32580,0,-0.125,-0.25,0
32600,0,-0.0625,-0.3125,0
32620,0.125,-0.1875,-0.375,0
32640,0.25,-0.1875,-0.375,0
32660,0.4375,-0.3125,-0.4375,0
32680,0.625,-0.125,-0.25,0
32700,0.4375,0,-0.1875,0
32720,0.3125,0,-0.125,0
32740,0.125,-0.0625,0,0
32760,0.3125,-0.0625,-0.1875,0
32780,0.375,-0.0625,-0.125,0
32800,0.375,-0.0625,-0.25,0
32820,0.3125,-0.0625,-0.125,0
32840,0.5,-0.125,-0.1875,0
32860,0.3125,-0.0625,-0.1875,0
32880,0.5,-0.0625,0,0
32900,0.1875,-0.3125,0,0
32920,0.5625,-0.25,-0.125,0
32940,0.75,-0.375,-0.25,0
32960,0.5,-0.1875,-0.4375,0
32980,0.3125,0,-0.3125,0
33000,-0.1875,-0.25,-0.125,0
33020,-0.5,-0.125,0.125,0
33040,-1.375,0.125,1.1875,0
33060,-6.4375,0.5625,5.875,0
33080,-17.5,4.875,15.0625,0
33100,-14.9375,-3.8125,15.1875,0
33120,3.625,-14.875,-12.0625,0
33140,-10.1875,-28,-35.5,0
33160,0.375,-39.875,-49.6875,0
33180,4.9375,-46.375,-63.25,0
33200,19.625,-62.625,-73.3125,0
33220,20.0625,-79.25,-74.0625,0
33240,6,-90.6875,-84.4375,0
33260,-6.625,-99.4375,-97.25,0
33280,-15,-109.312,-105.812,0
33300,-11.9375,-115.875,-100,0
33320,-14.9375,-123.625,-96.9375,0
33340,-22.9375,-129.062,-93.125,0
33360,-35.1875,-131.812,-91.625,0
33380,-38.5,-132.25,-87.8125,0
33400,-37.0625,-129.938,-88.25,0
33420,-33.3125,-125.938,-93.75,0
33440,-29.1875,-121.125,-89.5625,0
33460,-29.125,-109.938,-78.8125,0
33480,-25.5625,-102.625,-79.8125,0
33500,-26.25,-96.5625,-79.6875,0
33520,-24.8125,-89,-69.6875,0
33540,-25.875,-81.4375,-59,0
33560,-22.625,-77.875,-51,0
33580,-18.6875,-70,-42.4375,0
33600,-19.8125,-62.25,-37.125,0
33620,-20.5,-56.6875,-32.625,0
33640,-20.5,-52.1875,-24.5625,0
33660,-15.1875,-45.8125,-15.5625,0
33680,-12.8125,-39.6875,-17.0625,0
33700,-11.75,-32.875,-20.625,0
33720,-13.6875,-25.375,-14.5,0
33740,-13.75,-15.75,-9.5625,0
33760,-8.9375,-6,-10.3125,0
33780,-7.8125,1.75,-8.25,0
33800,-7.6875,6.625,-7.4375,0
33820,-2.8125,7.0625,-11.9375,0
33840,-1.625,9,-8.1875,0
33860,1.9375,5.625,-9.25,0
33880,6.1875,3.25,-10.625,0
33900,4.5625,3.25,-9.1875,0
33920,3.5,6.3125,-8.1875,0
33940,4.5,7.9375,-4.6875,0
33960,4.5,9.6875,1.3125,0
33980,4.625,11.5,2.1875,0
34000,3.375,9.9375,2.8125,0
34020,2.125,9.125,7.4375,0
34040,1,11.3125,9.875,0
34060,1.0625,13.375,9.25,0
34080,1.4375,13.375,6.375,0
34100,2.8125,11.1875,6.0625,0
34120,3.4375,11.1875,6.625,0
34130,3.6875,10.4375,3.75,0
34150,3.8125,7.75,1.6875,0
34170,3.9375,5.5,1.4375,0
34190,2.625,3.75,2.0625,0
34210,2.5,1.9375,1.75,0
34230,2.375,0.1875,-0.5,0
34250,0.875,-1.625,-0.1875,0
34270,0.375,-1.3125,1.1875,0
34290,0.375,-1.625,0.0625,0
34310,0.5625,-2.9375,-0.0625,0
34330,-0.0625,-2.8125,1.4375,0
34350,0.5,-2,2,0
34370,0,-3.0625,1.25,0
34390,0.6875,-4.0625,1.5625,0
34410,2,-3.3125,2.25,0
34430,5.25,-2.3125,0.5625,0
34450,6.875,-1.25,2.6875,0
34470,10.75,0.6875,6.6875,0
34490,16.4375,4.625,12.25,0
34510,28.5625,12.375,27.3125,0
34530,30.5,19.125,52.0625,0
34550,33.1875,27.0625,72.0625,0
34570,34.8125,38.25,83,0
34590,39.625,49.375,88.4375,0
34610,43.375,62.125,85,0
34630,47.9375,76.125,86.4375,0
34650,52.8125,87.3125,90.375,0
34670,61.4375,91.25,77.875,0
34690,74.0625,94.1875,60.5,0
34710,82.5625,99.5625,49.4375,0
34730,81.125,102,53.8125,0
34750,84.3125,101.5,61.3125,0
34770,79.75,105.312,63.5,0
34790,69.875,118.5,65,0
34810,51.6875,127.125,70,0
34830,29.25,124.938,68.9375,0
34850,14.3125,124.062,76.875,0
34870,2.75,112.75,75.5,0
34890,15.125,101.25,62.3125,0
34910,16.6875,92.625,44.5,0
34930,12.6875,85.8125,26.9375,0
34950,20.6875,87,23.5625,0
34970,28.25,84.4375,31.5625,0
34990,29.5625,76.75,31.8125,0
35010,13.9375,66.3125,16.4375,0
35030,-3.25,68.375,15.25,0
35050,-14.9375,69.6875,21.3125,0
35070,-12.25,67.8125,27.125,0
35090,-17.375,62.375,22.875,0
35110,-8.25,52.3125,16.5,0
35130,9,36.125,6.75,0
35150,28.25,14.9375,-16.3125,0
35170,27.875,-3.4375,-18.375,0
35190,9.6875,-3.875,-14.375,0
35210,2,-2,-14.625,0
35230,1.3125,-3,-9.8125,0
35250,3.25,0.6875,-5.125,0
35270,2.25,5,-0.8125,0
35290,-0.0625,3.0625,2.5625,0
35310,-5.25,-3.0625,2.125,0
35330,-3.1875,-7.8125,-1.375,0
35350,-1.6875,-7.8125,-1.75,0
35370,-3.125,-6.5,-1.125,0
35390,-1.4375,-4.1875,0.3125,0
35410,-0.625,-2.5,0.8125,0
35430,1.25,-1.4375,-0.5,0
35450,1.1875,-1.6875,-1.5,0
35470,1.1875,-1.1875,-2.25,0
35490,2.3125,-1.0625,-2.3125,0
35510,3.75,-1.0625,-3.875,0
35530,5.4375,-1.1875,-4.1875,0
35550,6.875,-0.8125,-3.6875,0
35570,5.6875,-0.75,-2.5,0
35590,4.5,-1.3125,-1.4375,0
35610,2.3125,-1.4375,0.625,0
35630,-0.0625,-0.5625,3.0625,0
35650,-2.25,0.625,3.6875,0
35670,-1.625,1.1875,3.375,0
35690,-1,0.9375,3.25,0
35710,-2.0625,-0.125,3.125,0
35730,-3.9375,-1,3.5,0
35750,-3.6875,-0.75,3,0
35770,-3.5625,-0.5,3.1875,0
35790,-1.9375,-0.4375,2.4375,0
35810,-2.9375,-0.5,2.25,0
35830,-3,0,2.3125,0
35850,-2.625,0.3125,1.875,0
35870,-2.375,0.25,1.6875,0
35890,-2.0625,0.0625,1.875,0
35910,-1.5,-0.125,1.1875,0
35930,-1.125,0.1875,0.625,0
35950,-0.875,0.125,0.1875,0
35970,-0.9375,0.1875,0.8125,0
35990,-2.5,0.8125,1,0
36010,-3.6875,0.625,1.3125,0
36030,-4.125,0.625,1.625,0
36050,-4.0625,0.125,1.4375,0
36070,-3.0625,0.1875,1.125,0
36090,-3.125,0.5,1.5625,0
36110,-1.875,0.4375,0.625,0
36130,-1.3125,0.3125,0.4375,0
36150,-0.5,0.25,0.125,0
36170,-1.1875,0.6875,0.125,0
36190,0,0.5,0.25,0
36210,-1.3125,-0.25,-0.25,0
36230,-0.75,0.25,0.5625,0
36250,-0.5625,0.3125,0.6875,0
36270,-0.625,0.375,0.3125,0
36290,0,0.25,0.375,0
36310,0.1875,0.125,0.375,0
36330,0.3125,0.25,0.3125,0
36350,0.0625,0.0625,0.3125,0
36370,0.8125,-0.4375,0.125,0
36390,0.8125,-0.5,-0.125,0
36410,1.125,-0.625,-0.375,0
36430,1,-0.5625,-0.4375,0
36450,0.375,-0.625,-0.5625,0
36470,-0.125,-0.625,-0.8125,0
36490,-0.0625,-0.6875,-1,0
36510,0,-0.8125,-1.1875,0
36530,-0.1875,-0.875,-1.1875,0
36550,-0.375,-0.625,-1.1875,0
36570,-0.8125,-0.4375,-1.0625,0
36590,-1.3125,-0.5,-0.9375,0
36610,-2.75,0.5,-0.9375,0
36630,-8.3125,2.25,0.125,0
36650,-17.0625,3.1875,6.0625,0
36670,-26.125,0.4375,6.9375,0
36690,-10.125,-3.5625,-8.0625,0
36710,-8.75,-16.8125,-0.1875,0
36730,-31.6875,-34.8125,8.1875,0
36750,-47.4375,-44.4375,-6.25,0
36770,-50.9375,-73.25,-21.8125,0
36790,-8.5,-96.6875,-34.9375,0
36810,23.5,-129.562,-47.25,0
36830,35.8125,-154.312,-64.3125,0
36850,20.375,-164.062,-64.5625,0
36870,-15.1875,-171.875,-63.0625,0
36890,-39.4375,-181.938,-56.375,0
36910,-46.8125,-180.5,-55.3125,0
36930,-46.6875,-169.438,-54.5625,0
36950,-48.5625,-158.562,-48.4375,0
36970,-52.125,-148.188,-42.5,0
36990,-48.0625,-135,-32.75,0
37010,-41.3125,-119.438,-26.1875,0
37030,-36.6875,-101.062,-22.1875,0
37050,-31.3125,-83,-14.25,0
37070,-27,-68.1875,-11.4375,0
37090,-22.25,-51.5,-9.8125,0
37110,-22.125,-40.6875,-0.5625,0
37130,-21.5625,-34.25,2.375,0
37150,-16.5625,-26.1875,1.9375,0
37170,-14.75,-17.0625,8.875,0
37190,-10.375,-11.375,13.5625,0
37210,-7.1875,-8,14.1875,0
37230,-5.9375,-0.0625,17.8125,0
37250,-1.5,7,18.375,0
37270,-3.6875,8.125,21.6875,0
37290,3.375,6.75,20.3125,0
37310,6,3.4375,21.0625,0
37330,7.8125,3.5,24.125,0
37350,8.8125,6.25,21.25,0
37370,10.6875,6.75,20.6875,0
37390,11.625,7.3125,21.625,0
37410,11.875,11,19.1875,0
37430,13.3125,12.9375,17.75,0
37450,11.625,12.0625,16,0
37470,11.4375,12,12.9375,0
37490,13.3125,11.0625,13.25,0
37510,11.6875,8.1875,11.375,0
37530,9.625,7,9.875,0
37550,10,7.5625,11.4375,0
37560,9.75,6.1875,12.625,0
37580,7.8125,4.125,11.0625,0
37600,5,5.375,11.875,0
37620,5.125,6.625,11.875,0
37640,5.3125,5.8125,9.5,0
37670,4.5,7.5625,3.8125,0
37690,6.9375,6.5625,2.0625,0
37710,7.4375,4.125,2.625,0
37730,7.875,2.625,2.375,0
37750,4.5625,4.0625,7.0625,0
37770,1.9375,3.6875,9.6875,0
37790,0.625,3.5625,7.9375,0
37810,-1.375,4.9375,6.25,0
37830,-0.5625,3.75,4.375,0
37850,0.8125,2.125,3.5,0
37870,1.0625,2.5625,2,0
37890,0.9375,3.1875,0.875,0
37910,2.375,0.875,1.5625,0
37930,0.9375,-1.8125,5.0625,0
37950,0.8125,-1.5625,7.375,0
37970,-0.5,0.5,6.5625,0
37990,-1.1875,1.0625,5.6875,0
38010,-2.0625,0.125,5.875,0
38030,-2.1875,1.625,4.25,0
38050,-0.4375,3.25,0.25,0
38070,0.9375,1.1875,-0.5,0
38090,0.4375,-0.0625,0.25,0
38110,-0.0625,-1.1875,-0.125,0
38130,0.0625,-2.4375,3.8125,0
38150,-0.9375,-1.5625,4.625,0
38170,-4.0625,0.9375,7,0
38190,-6.3125,2.875,8,0
38210,-4.75,3.25,5.75,0
38230,-1.5,2.625,4.6875,0
38250,-1.625,2.9375,3.625,0
38270,-4.9375,4.625,3.8125,0
38290,-5.4375,6.1875,2.375,0
38310,-6.9375,5.375,1.8125,0
38330,-7.8125,5.9375,3.1875,0
38350,-8.3125,10.125,6.25,0
38370,-11.3125,12.6875,7.625,0
38390,-12.8125,14.6875,6.625,0
38410,-16.8125,17.25,6,0
38430,-14.4375,19.9375,5.875,0
38450,-11.75,22,5.3125,0
38470,-7.1875,21.125,2.375,0
38490,-3.5,18.875,0.6875,0
38510,-1.1875,15.9375,0.9375,0
38530,-1.875,15.4375,0.125,0
38550,-5,15,1.5,0
38570,-7.6875,12.5625,3.0625,0
38590,-7.3125,10.25,2.625,0
38610,-4.4375,7.25,2.875,0
38630,-3.1875,6,1,0
38650,-1.3125,5.3125,1.9375,0
38670,-3.6875,5.625,3.1875,0
38690,-5,6.4375,2.8125,0
38710,-6.5,7.25,3.875,0
38730,-6.0625,7.8125,3.75,0
38750,-3.0625,6.75,3.25,0
38770,-1.625,4.875,2.625,0
38790,-4,2.8125,2.5625,0
38810,-1.1875,1.4375,1.5625,1000
38830,2.125,-2,2.5625,0
38850,1.875,-3.1875,1.1875,0
38870,2.1875,-3.9375,0.125,0
38890,2.3125,-6.1875,2.75,0
38910,2.6875,-8.6875,3,0
38930,2,-12,2.5,0
38950,6.625,-15.25,3.8125,0
38970,7.4375,-19.4375,6.75,0
38990,9,-18,7.25,0
39010,10.75,-16.625,9.5625,0
39030,9.375,-9.4375,7.4375,0
39050,14.0625,-3.6875,2.9375,0
39070,14,-5.4375,2.25,0
39090,13.9375,-5.8125,-0.375,0
39110,12.8125,-2.4375,-7.75,0
39130,8.9375,-1.8125,-8.3125,0
39150,12.75,-5,-9.5625,0
39170,11.9375,-8.625,-13.75,0
39190,5.375,-5.375,-12.375,0
39210,8.8125,-1.625,-9.6875,0
39230,5.4375,-3.0625,-9.875,0
39250,1.5625,-3.875,-9.1875,0
39270,2.25,-1.0625,-8.8125,0
39290,4.625,0.875,-8.1875,0
39310,2.6875,-1,-9.1875,0
39330,-0.25,-3.1875,-8.75,0
39350,2.5,-4.75,-8.75,0
39370,2.125,-4.125,-10.5625,0
39390,-0.375,-0.8125,-11.125,0
39410,-1.3125,0.8125,-9.75,0
39430,-2.75,-0.625,-12.625,0
39450,-3.0625,-1.75,-15.875,0
39470,-3,-0.6875,-17.375,0
39490,-0.1875,-0.625,-19.6875,0
39510,-0.5625,-1.4375,-22.4375,0
39520,0.3125,-1.375,-25.1875,0
39540,-2.9375,1.625,-24.25,0
39560,-3.4375,3.5,-23.5,0
39580,-6.625,5.25,-22.8125,0
39600,-6.5,7,-22.875,0
39620,-4,8.0625,-22.4375,0
39640,-4.75,8.8125,-24.25,0
39660,-8.25,7.9375,-23.1875,0
39680,-7.5,7,-22.4375,0
39700,-4,6.375,-23,0
39720,-4.3125,5.625,-23.125,0
39740,-7.6875,5.125,-21.3125,0
39760,-7.5625,6.3125,-20.0625,0
39780,-5.75,6.0625,-21.4375,0
39800,-6.25,6.4375,-21.25,0
39820,-8.6875,7.3125,-21.3125,0
39840,-8.75,8.6875,-22.25,0
39860,-8.6875,8.6875,-21.0625,0
39880,-6.875,7.6875,-24.3125,0
39900,-7.875,6.1875,-25.5,0
39920,-9.5625,6,-23.3125,0
39940,-8.9375,5.8125,-23.25,0
39960,-9,4.3125,-23.25,0
39980,-8.3125,4.9375,-23.0625,0
40000,-8.1875,5.5625,-22.9375,0
40020,-7.8125,6.125,-22.6875,0
40040,-9.75,6.5,-22.0625,0
40060,-8.5625,5.9375,-23.25,0
40080,-5.875,5.5625,-24.3125,0
40100,-5.0625,4.625,-25.3125,0
40120,-5.8125,3.625,-26.4375,0
40140,-7.75,4.6875,-26.125,0
40160,-8.4375,4.875,-27.25,0
40180,-10,4.25,-28,0
40200,-9.8125,4.75,-29.125,0
40220,-7.0625,7,-29.3125,0
40240,-7.125,8.9375,-31.375,0
40260,-8.625,9.375,-32.75,0
40280,-9.875,10.5625,-34.0625,0
40300,-10,12.6875,-34.9375,0
40320,-11,13.3125,-35.9375,0
40340,-11.875,13.5625,-36.6875,0
40360,-12.75,14.9375,-35.4375,0
40380,-14.375,15.875,-35.125,0
40400,-14.875,17,-34.4375,0
40420,-14.375,17.0625,-34.4375,0
40440,-13.625,17.875,-34.3125,0
40460,-15,16.9375,-33.3125,0
40480,-16.1875,17.125,-33.8125,0
40500,-17,16.25,-34.25,0
40520,-18.3125,14.125,-31.75,0
40540,-19.875,13.0625,-28.4375,0
40560,-19.5625,12.25,-27.4375,0
40580,-22.9375,11.4375,-25.875,0
40600,-20.125,11.5625,-23.5625,0
40620,-19.25,10.5,-22.6875,0
40640,-19.4375,11.625,-20.0625,0
40660,-16.5625,10.8125,-20,0
40680,-15.625,9.3125,-17.875,0
40700,-13.625,7.625,-15.0625,0
40720,-11.3125,6.375,-14.8125,0
40740,-9.625,4.6875,-11.0625,0
40760,-12.6875,5.6875,-6.5625,0
40780,-9.6875,4,-6.375,0
40800,-7.5,1.125,-3.8125,0
40820,-5.8125,-0.4375,-2.1875,0
40840,-2.0625,-1.625,-3.6875,0
40860,-1.5,-1.5,-1.5625,0
40880,-4.8125,-0.8125,0.625,0
40900,-2.5,-2.375,2.25,0
40920,-0.1875,-3,1.5,0
40940,-2.4375,-5.3125,4.3125,0
40960,2,-7.9375,3.25,0
40980,0.9375,-11.3125,7.5,0
41000,-1.4375,-10.25,10.625,0
41020,-8.3125,-7.5625,8.8125,0
41030,-8.75,-4.8125,10.125,0
41050,-5.0625,-5.9375,14.25,0
41070,-10.1875,-4.5625,15.5625,0
41090,-7.0625,-2.5,14.3125,0
41110,-4.5625,-4.1875,18.0625,0
41130,-2,-6.25,21.5625,0
41150,-0.625,-6.8125,23.375,0
41170,-3.625,-6.9375,26,0
41190,-6.9375,-6.875,29.6875,0
41210,-5.25,-7.9375,31,0
41230,-0.75,-10.6875,32.0625,0
41250,1.0625,-11.0625,32,0
41270,2.4375,-11.8125,31.4375,0
41290,4.6875,-13.375,31.5625,0
41310,9.75,-15,30.625,0
41330,7.9375,-17.1875,30.9375,0
41350,9.4375,-19.3125,32.0625,0
41370,11,-22.625,31.5,0
41390,9.8125,-25.9375,33.625,0
41410,6.8125,-28.0625,37.0625,0
41430,2.5625,-30.125,37.6875,0
41450,3.4375,-31.6875,37.5625,0
41470,5.625,-32.8125,38.375,0
41490,5.6875,-34.375,38,0
41510,7.875,-33.875,36.75,0
41530,9.3125,-32.375,35.375,0
41550,10.625,-33.25,37.375,0
41570,5.625,-34.5625,37.1875,0
41590,6.6875,-34,36.9375,0
41610,7.6875,-32.125,37.75,0
41630,4.4375,-32.9375,38.875,0
41650,2.875,-32.4375,37.625,0
41670,3.5625,-31.4375,36.1875,0
41690,7.625,-31,35.4375,0
41710,8.1875,-31.875,33.5625,0
41730,8.5,-31.3125,30.125,0
41750,7.125,-31.5625,30.5625,0
41770,5.875,-32.6875,30.625,0
41790,5.8125,-32.125,28.3125,0
41810,4.3125,-32.9375,29.5625,0
41830,3.3125,-33.875,29.875,0
41850,-0.125,-34,28.75,0
41870,-1.875,-32.75,25.5625,0
41890,-0.5625,-33.0625,22.8125,0
41910,6.4375,-33.5,19.75,0
41930,9.375,-35.9375,16.9375,0
41950,8.625,-34.125,13.1875,0
41970,8.9375,-34.875,12.3125,0
41990,7.5625,-34.8125,12.9375,0
42010,3.375,-34.1875,13.6875,0
42030,1.3125,-33.125,11.4375,0
42050,2.25,-31.9375,8.8125,0
42070,4.5625,-31,4.9375,0
42090,-5.625,-26.1875,3.3125,0
42110,-0.5625,-26.875,-0.5625,0
42130,6.1875,-30,-8.4375,0
42150,5.5625,-29.5625,-12.5,0
42170,0.25,-25,-15.5625,0
42190,-0.9375,-22.0625,-13.875,0
42210,-0.8125,-21.5,-17.25,0
42230,-1.9375,-19.0625,-22.4375,0
42250,-4.125,-11.8125,-21.0625,0
42270,-6.5,-9.625,-21,0
42290,-8.75,-10.5625,-24.8125,0
42310,-11.625,-7.75,-27.5625,0
42330,-6.8125,-4.5625,-28.125,0
42350,-6.3125,-2.5625,-29.0625,0
42370,-9,-0.75,-34.125,0
42390,-14.625,3.875,-33.5625,0
42410,-12.3125,5.75,-32.25,0
42430,-14.625,6.75,-35.9375,0
42450,-21,10.6875,-36,0
42470,-20.875,17.0625,-35.875,0
42490,-18.0625,15.9375,-39.5625,0
42510,-16.375,12.6875,-45.25,0
42530,-20.3125,14.4375,-45.9375,0
42550,-19.5625,17.5625,-46.25,0
42570,-18.875,16.125,-49.0625,0
42590,-22.6875,15.6875,-49.625,0
42610,-21.1875,14.875,-49.625,0
42630,-20.125,14.25,-51.75,0
42650,-25.5,15.6875,-48.875,0
42670,-28.9375,18.9375,-44.8125,0
42690,-25.75,19.5,-45.0625,0
42710,-25.5,21.625,-45.6875,0
42730,-26.5,23.8125,-44.25,0
42750,-27.9375,24.0625,-42.5,0
42770,-26.625,25.75,-41.25,0
42790,-25.3125,26.8125,-39.4375,0
42810,-24.875,27.875,-38.75,0
42830,-23.875,27.875,-38.9375,0
42850,-26.4375,29.1875,-36.8125,0
42870,-26.625,29.25,-33.8125,0
42890,-25.5,26.5,-33.5625,0
42910,-23,24.8125,-32.375,0
42930,-23.0625,25.875,-31.375,0
42950,-20.875,27.25,-30.3125,0
42960,-20.75,26.1875,-29,0
42980,-22.5,27.3125,-26.4375,0
43000,-19.4375,26.6875,-28.3125,0
43020,-14.375,26.125,-28.9375,0
43040,-20.875,30,-22.75,0
43060,-16.1875,28.625,-23.375,0
43080,-9.375,23.5625,-25.5625,0
43100,-12.25,22.875,-22.875,0
43120,-15.3125,24.0625,-19.9375,0
43140,-8.75,19.25,-19.875,0
43160,-4.25,15.25,-19.8125,0
43180,-7.5,17.1875,-16.0625,0
43200,-5.8125,18.25,-11.625,0
43220,-0.6875,12.4375,-8.8125,0
43240,2.875,6.5,-8.5625,0
43260,-1.375,6.9375,-1,0
43280,-0.1875,5.625,4.8125,0
43300,8.375,-0.5625,7.5625,0
43320,7.5,-8.25,14.375,0
43340,3,-10.0625,22.25,0
43360,-0.625,-10.25,29.6875,0
43380,5.6875,-13.5,32.4375,0
43400,6.375,-14.5,35.875,0
43420,9.125,-13.5,37.875,0
43440,8.3125,-13.3125,38.5,0
43460,12.25,-13.0625,37.5,0
43480,16.8125,-16.6875,37.4375,0
43500,15.875,-16.75,36.9375,0
43520,16.9375,-16.6875,34.75,0
43540,17.5625,-18.6875,35.75,0
43560,18.375,-20.3125,38.0625,0
43580,13.6875,-19.6875,40.125,0
43600,12.125,-21.125,41.4375,0
43620,13.0625,-22,42.6875,0
43640,11.6875,-21.6875,45.1875,0
43660,12.5625,-23.1875,44.375,0
43680,15.4375,-24.5,44.3125,0
43700,12,-25,46.0625,0
43720,14.1875,-26.3125,46.1875,0
43740,14.25,-29.5,47,0
43760,11.25,-29.8125,47.5625,0
43780,4.1875,-30.5625,45.875,0
43800,10.125,-32.6875,43.75,0
43820,14.4375,-35,43.125,0
43840,9.5,-35,40.0625,0
43860,6.375,-36.6875,39.625,0
43880,6.6875,-38.5625,38.25,0
43900,7.1875,-39.8125,36.3125,0
43920,3.5,-39.4375,36.875,0
43940,5.625,-36.875,34.125,0
43960,5.75,-38.125,33.75,0
43980,3.5,-40.125,33.6875,0
44000,-0.5,-40.25,31.75,0
44020,1.4375,-39.5,31.5,0
44040,-2.125,-41.625,30.625,0
44060,-7.4375,-43.9375,28.5,0
44080,-9.0625,-43.3125,28,0
44100,-6.625,-42.5625,28.125,0
44120,-0.5625,-42.1875,25.4375,0
44140,-5.6875,-41.375,23.875,0
44160,-9.75,-41,22.9375,0
44180,-9.375,-40.6875,19.5,0
44200,-5,-41.1875,11.9375,0
44220,-7.875,-41.3125,4.125,0
44240,-9.9375,-39.4375,1,0
44260,-9.8125,-38.4375,-7.125,0
44280,-8.875,-36.5625,-16.0625,0
44300,-8.75,-33.625,-21.875,0
44320,-9.1875,-30.125,-27.8125,0
44340,-15.625,-29.6875,-32.125,0
44360,-17.25,-25.9375,-33.9375,0
44380,-17.8125,-20.6875,-35,0
44400,-24.9375,-15,-33.125,0
44420,-34.1875,-7.625,-33.0625,0
44440,-23.25,-4.3125,-34.0625,0
44460,-28.5,-1.4375,-34.5625,0
44480,-33.3125,2.875,-36.375,0
44500,-32.375,7.5,-39.9375,0
44520,-30.0625,9.6875,-43.625,0
44540,-28.8125,10.375,-48.8125,0
44560,-34.6875,13.1875,-50.375,0
44580,-35.1875,15.375,-52.8125,0
44600,-32.125,17.6875,-53.6875,0
44620,-34.5,21.1875,-55.5,0
44640,-34.625,22.9375,-55.625,0
44660,-35.375,24.3125,-56.25,0
44680,-31.0625,28,-58.1875,0
44700,-30.3125,31.9375,-58.5,0
44720,-32,34.625,-58,0
44740,-31.5,36.6875,-56.6875,0
44760,-25.25,37.125,-57.0625,0
44780,-25.9375,37.0625,-54.125,0
44800,-25.25,38.0625,-50.75,0
44820,-28,38.5,-46.875,0
44840,-27.25,40.9375,-41.5625,0
44860,-24.0625,41.0625,-40.375,0
44880,-21.125,42.0625,-37.8125,0
44900,-27.625,46,-32.8125,0
44920,-21.4375,47.625,-32.8125,0
44940,-18.125,45.5625,-30.4375,0
44950,-15.125,45.75,-25.5625,0
44970,-11.9375,44.5625,-24.75,0
44990,-10.3125,40.875,-24.625,0
45010,-3.8125,37.3125,-23.5625,0
45030,-11.375,37.8125,-18.25,0
45050,-7.1875,40.25,-14.25,0
45070,2.625,34.5625,-12,0
45090,8.375,32.5,-9.375,0
45110,-2.75,37.875,-3.4375,0
45130,7.4375,33.875,2.1875,0
45150,13,30,5.375,0
45170,0.625,36.125,12.8125,0
45190,9,31.8125,16.4375,0
45210,12.4375,23.875,19.5,0
45230,14.3125,22.375,21.5,0
45250,10.1875,21.8125,26.8125,0
45270,9.5625,15.4375,30.0625,0
45290,8.125,9.625,30.5625,0
45310,10.0625,5.625,32.75,0
45330,8.0625,3.0625,34.875,0
45350,9.625,0.125,37.8125,0
45370,9.125,-4.25,40.0625,0
45390,10.5625,-7.5625,38.1875,0
45410,12.3125,-10.5,37.5,0
45430,11.375,-13.0625,39.9375,0
45450,13.1875,-15.75,40.625,0
45470,10.8125,-19.5,42.6875,0
45490,12.375,-20.75,43.25,0
45510,11.8125,-21.375,43.1875,0
45530,9.3125,-22.5,43.6875,0
45550,10,-24.0625,44.75,0
45570,9.625,-28.125,46.125,0
45590,8.25,-29.0625,44.5625,0
45610,7.125,-28.5,45.3125,0
45630,8.6875,-30.5625,45.6875,0
45650,7.5,-33.375,44.875,0
45670,6.875,-33.5625,42.5625,0
45690,5.875,-32.5,42,0
45710,4.125,-31.9375,45,0
45730,0.9375,-33,42.6875,0
45750,-1.1875,-32.375,41.25,0
45770,1.1875,-31.4375,40.3125,0
45790,-2.625,-32.9375,38.6875,0
45810,-7.125,-34.375,36.3125,0
45830,-4.4375,-35.75,32.8125,0
45850,-3,-38.125,27.5625,0
45870,-6.5,-39.875,24.375,0
45890,-3.3125,-39.9375,21.0625,0
45910,-2.375,-40.375,14.75,0
45930,0.125,-38.625,9,0
45950,-2.125,-38.4375,5.4375,0
45970,-2.1875,-38.75,0.75,0
45990,0.875,-36.5625,-2.8125,0
46010,0.3125,-34.4375,-4.75,0
46030,-6.0625,-36.8125,-6.6875,0
46050,-4.375,-36.8125,-8,0
46070,-4.125,-34.9375,-10.625,0
46090,-4.4375,-31.25,-12.25,0
46110,-10.8125,-29.3125,-14.125,0
46130,-7.6875,-26.375,-17.5625,0
46150,-4.6875,-25.1875,-21,0
46170,-0.1875,-21.8125,-23.0625,0
46190,-3.8125,-18.4375,-25,0
46210,-8.625,-14.0625,-25.6875,0
46230,-6.5625,-10.3125,-25.8125,0
46250,-5.6875,-6.6875,-25.875,0
46270,-5.625,-2.0625,-26.4375,0
46290,-6.875,0.25,-25.9375,0
46310,-6.5625,2.9375,-25.5625,0
46330,-7.375,3.3125,-26.375,0
46350,-4.125,4.25,-27.8125,0
46370,-5.375,5.8125,-26.875,0
46390,-5.9375,4.6875,-25.75,0
46410,-6.25,3.6875,-24.8125,0
46430,-4.0625,5.5,-24.1875,0
46450,-8.125,7.0625,-21.5625,0
46470,-7.5,8.25,-19.8125,0
46490,-3.8125,8.5625,-20.3125,1001
46510,-0.125,8.9375,-20.125,0
46530,-4.1875,8.5,-19.1875,0
46550,-1.4375,7.0625,-19.1875,0
46570,2.4375,6.1875,-19.75,0
46590,-0.375,7.125,-17.9375,0
46610,-2.375,7.4375,-12.9375,0
46630,0.3125,5.625,-9.5,0
46650,-1.8125,5,-6.5625,0
46670,-4.4375,5.8125,-2.5,0
46690,-4.5625,3.1875,1.625,0
46710,-1.0625,1.5,2.4375,0
46730,-1.1875,1.125,0.9375,0
46750,-0.625,-0.5625,1.5625,0
46770,-0.1875,-1.6875,1.125,0
46790,2.875,-3.4375,-0.375,0
46810,2.9375,-5.625,2.6875,0
46830,1.25,-6.25,0.6875,0
46850,7.25,-4.25,-6.875,0
46870,10.25,-5.9375,-7.75,0
46890,7.625,-5.4375,-3.8125,0
46910,5.5625,-3.3125,0.5,0
46930,5.6875,-2.75,1.5625,0
46950,6.125,-1.625,0.8125,0
46970,5.4375,-0.0625,-0.1875,0
46990,9.25,-1.1875,-2.25,0
47010,14.25,-4,-3.8125,0
47030,15.5,-6.0625,-3.25,0
47050,20.9375,-8.3125,-2.8125,0
47070,20.125,-6.6875,-2.3125,0
47090,23.875,-1.6875,-2.6875,0
47110,25,1.875,-1.375,0
47130,27.25,6.5,4.4375,0
47150,28.0625,16.9375,11.625,0
47170,29.25,21.3125,15.1875,0
47190,32.9375,23.5,17.625,0
47210,38.4375,27.1875,13.4375,0
47230,43.8125,33.1875,19.125,0
47250,46.1875,33.3125,31.625,0
47270,43.0625,32.125,30.5,0
47290,47.375,36.6875,30.0625,0
47310,48.3125,47.625,37.5,0
47330,60.75,49.5625,49.75,0
47350,58.5,48.75,51.0625,0
47370,58.375,53.3125,42,0
47390,54.6875,61.8125,40.1875,0
47410,56.75,65.9375,49.25,0
47430,52.625,70.3125,53.5,0
47450,63.875,73.8125,52.625,0
47470,62.5,79.8125,51.8125,0
47490,60.6875,86.5625,58.3125,0
47510,54.5,85.3125,64.375,0
47530,48.0625,80.25,62.1875,0
47550,46.5625,75.9375,61.4375,0
47570,37.3125,69.1875,59,0
47590,33.25,61.1875,53.1875,0
47610,25.875,59.6875,49.4375,0
47630,16.8125,54.625,43.4375,0
47650,6.625,46.6875,33.8125,0
47670,3.9375,38.25,26.8125,0
47690,0.875,31.875,23.375,0
47710,-4.875,28.8125,17.9375,0
47730,-10.6875,26.375,15.125,0
47750,-13.6875,23.875,16.5,0
47770,-14.375,19.9375,20.25,0
47790,-11.6875,17.9375,20.5625,1000
47810,-12,18.3125,18.875,0
47830,-12.5,22.6875,16.75,0
47850,-9.625,17,17.3125,0
47870,-5,11.625,13.5,0
47890,2.5625,6.5,10.0625,0
47910,5,4.5625,4.0625,0
47930,3.125,4.0625,2.3125,0
47950,0.0625,2.25,1.875,0
47970,-3.6875,2.5625,2.625,0
47990,-4.875,3.3125,3.125,0
48010,-7.25,2.8125,0.8125,0
48030,-5.1875,0.5625,-1.4375,0
48050,-4,-0.5,-2.125,0
48070,-5.875,-0.1875,-2.0625,0
48090,-3.875,-0.1875,-2.75,0
48110,-4.125,-2.0625,-5,0
48130,-1.125,-2.5625,-6.8125,0
48150,0.6875,-1.6875,-6.25,0
48170,-1,-4,-4.125,0
48190,0,-6.625,-2.8125,0
48210,2.3125,-6.8125,-4.375,0
48230,5.3125,-8.875,-4.1875,0
48250,5.5,-10.9375,-1.4375,0
48270,5.375,-12.0625,-0.5625,0
48290,4.3125,-12.3125,-1.0625,0
48310,3.5625,-11.25,-1.1875,0
48330,7.625,-15.8125,-1,0
48350,8.25,-19.25,-1.5,0
48370,5.75,-17.875,-2.25,0
48390,5.8125,-15.75,0,0
48400,4.375,-17.0625,1.375,0
48420,5.25,-16.75,0.875,0
48440,4.75,-15.5,-0.5625,0
48460,4.9375,-16.625,2,0
48480,4.3125,-17.6875,4.9375,0
48500,4.375,-18.3125,3.75,0
48520,4.0625,-17.75,2.6875,0
48540,5.0625,-16.125,4.75,0
48560,4.25,-15.375,5.4375,0
48580,4.5625,-17.375,5.25,0
48600,4.3125,-18.25,5.875,0
48620,5.4375,-17.25,5.75,0
48640,5.1875,-16.75,7.1875,0
48660,2.0625,-16.375,8.0625,0
48680,-0.5,-17.4375,7.3125,0
48700,0.8125,-17.875,8,0
48720,0.75,-17.0625,6.75,0
48740,-2.6875,-14.9375,5.75,0
48760,-5.75,-11.125,6.9375,0
48780,-4,-10.75,4.375,0
48800,-4.6875,-10.0625,3.9375,0
48820,-4.5625,-7.625,3.3125,0
48840,-6.9375,-4.125,3.625,0
48860,-2.6875,-4.6875,-0.375,0
48880,-4.125,-5.4375,-4.3125,0
48900,-6,-4.5625,-6.6875,0
48920,-6.125,-1.9375,-5.3125,0
48940,-1.125,-2.5625,-10,0
48960,-3.4375,-4.25,-10.25,0
48980,-7.375,-4.125,-8.9375,0
49000,-9.875,-2.0625,-9.3125,0
49020,-13.6875,1.625,-6.5625,0
49040,-13.25,5.125,-7.6875,0
49060,-11.875,7.75,-13.375,0
49080,-15.3125,6.1875,-11.75,0
49100,-15.3125,5.75,-14.875,0
49120,-12.375,8.375,-19.4375,0
49140,-13.5,11.0625,-18.6875,0
49160,-14.375,13.9375,-20.5625,0
49180,-16.625,15.3125,-21.375,0
49200,-17.875,17.9375,-19.125,0
49220,-18.875,23.8125,-22.6875,0
49240,-18.9375,24.3125,-22.1875,0
49260,-18.1875,27.0625,-22.6875,0
49280,-18.25,26.5625,-26.8125,0
49300,-18.1875,25.4375,-29.1875,0
49320,-20,24,-31.875,0
49340,-22.3125,20.375,-33.75,0
49360,-24.9375,18.5,-35,0
49380,-27.125,16.0625,-34.4375,0
49400,-26.8125,16.1875,-37.625,0
49420,-25.8125,17.5,-39.25,0
49440,-27.5625,17.4375,-39,0
49460,-28.25,17.1875,-39.5,0
49480,-27.5625,18.625,-39.625,0
49500,-27.3125,20.6875,-41.6875,0
49520,-27.8125,21.0625,-40.6875,0
49540,-28.125,18.9375,-39.8125,0
49560,-28.0625,19.5,-40.4375,0
49580,-29.875,21.25,-41.4375,0
49600,-32.0625,21.8125,-41.25,0
49620,-31.875,21.875,-42.5,0
49640,-29.875,23.0625,-44.1875,0
49660,-29.125,25.375,-47,0
49680,-29.3125,27.375,-48.5625,0
49700,-29.25,29.125,-48.625,0
49720,-28.3125,31.6875,-48.9375,0
49740,-27.375,33.1875,-48.4375,0
49760,-27.375,35.5625,-50.1875,0
49780,-27.3125,36.125,-51.25,0
49800,-28.1875,35.375,-51.1875,0
49820,-26.0625,34.6875,-53.875,0
49840,-27.75,33.9375,-54.625,0
49860,-26.25,33.6875,-55.8125,0
49880,-23.9375,30.8125,-57.125,0
49900,-22,26.8125,-52.125,0
49920,-22,24.875,-47,0
49940,-19.625,21.5,-45.375,0
49960,-17.4375,18.3125,-38.8125,0
49980,-18.4375,17.3125,-29.875,0
50000,-15,15.9375,-26.5625,0
50020,-14.0625,15.3125,-21.3125,0
50040,-10.75,13.3125,-17.75,0
50060,-7.0625,12.125,-14,0
50080,-5.8125,12.6875,-10,0
50100,-1.125,8.3125,-12.875,0
50120,-2.375,3.625,-8.625,0
50140,2.25,5.8125,-4,0
50160,7.0625,3.125,-7.3125,0
50180,5.3125,-0.75,-2.125,0
50200,-1.75,0.8125,6.375,0
50220,5.75,-0.75,7.75,0
50240,7.1875,-6.0625,8.1875,0
50260,5.6875,-7.3125,18.75,0
50280,1.875,-6.125,25.25,0
50300,10.1875,-12.375,23.25,0
50320,8.875,-17.125,26.875,0
50340,7.4375,-17.6875,31.75,0
50360,8.75,-17.625,32.0625,0
50380,15.5625,-20.375,29.9375,0
50390,18.25,-23.1875,29.3125,0
50410,15.5,-25.1875,32.0625,0
50430,17.5625,-24.0625,34.5625,0
50450,14,-24.3125,35.75,0
50470,15.9375,-27.75,34.5625,0
50490,13.625,-28.9375,37.5625,0
50510,11.625,-28.1875,39.875,0
50530,9.4375,-28.9375,39.25,0
50550,7.5,-32.25,41.3125,0
50570,10.375,-31.9375,42.25,0
50590,5.6875,-30.8125,42.8125,0
50610,7,-30.75,42,0
50630,6.5,-30.5625,41.9375,0
50650,4.375,-28.25,44.0625,0
50670,9.5,-28.6875,41.4375,0
50690,13.5,-30.4375,38.6875,0
50710,16,-30.6875,38.9375,0
50730,15.875,-32.9375,38.75,0
50750,12.0625,-35.1875,39.3125,0
50770,7.875,-36.4375,41.625,0
50790,7.75,-38.3125,44.0625,0
50810,11.75,-39.5,41.75,0
50830,9.6875,-38.25,40.75,0
50850,7.9375,-37.3125,41.1875,0
50870,9,-39.625,40.1875,0
50890,12.375,-39.125,36.25,0
50910,14.875,-36.4375,34.875,0
50930,11.0625,-36.375,35.5,0
50950,11.3125,-37.9375,33.5625,0
50970,11.25,-38.25,32,0
50990,8.8125,-35.8125,32.5625,0
51010,4.125,-35.0625,33.875,0
51030,3.875,-35.125,31.4375,0
51050,5.6875,-34.6875,29.3125,0
51070,8.0625,-32.1875,26.0625,0
51090,10,-32.9375,21.875,0
51110,10.1875,-33.3125,18.1875,0
51130,11,-33.9375,12,0
51150,11.625,-34.5625,8.5,0
51170,9.625,-36.875,6.8125,0
51190,7.25,-38.625,2.5625,0
51210,6.8125,-39.25,-1.875,0
51230,3.9375,-38.625,-2.5,0
51250,-0.6875,-37.9375,-5.625,0
51270,-1.8125,-34.6875,-9.1875,0
51290,3.75,-32.5,-13.625,0
51310,4.5625,-33.375,-18.25,0
51330,-1.5625,-31.5,-17.8125,0
51350,-2.25,-30.8125,-20.3125,0
51370,-1.9375,-33.25,-25,0
51390,-3.3125,-33.5,-26.5625,0
51410,-9.0625,-29.9375,-27,0
51430,-8.5,-25.4375,-27.4375,0
51450,-14.3125,-22.0625,-31.8125,0
51470,-17.875,-16.6875,-35.375,0
51490,-17.75,-10.8125,-33.0625,0
51510,-14,-7.375,-36.75,0
51530,-15.8125,-7.1875,-42.1875,0
51550,-22.0625,-4.875,-40.625,0
51570,-22.75,0.6875,-37.5,0
51590,-22.5,3.1875,-38.25,0
51610,-25.4375,6.125,-40.75,0
51630,-30.125,9.3125,-39.4375,0
51650,-32.125,13.5625,-40.125,0
51670,-31.25,15.3125,-41.8125,0
51690,-33.625,18.25,-44.375,0
51710,-35.8125,22.5,-46.5625,0
51730,-35.8125,21.4375,-49.25,0
51750,-34.875,19,-49.5625,0
51770,-37.25,20.5,-48.9375,0
51790,-39.75,22,-49.4375,0
51810,-38.75,21.4375,-46.75,0
51830,-38.1875,24.0625,-47.125,0
51850,-39.25,27.25,-45.75,0
51870,-38.375,30.5,-45.75,0
51890,-39.375,32.625,-44.125,0
51910,-37.625,34.1875,-45.3125,0
51930,-34.9375,35.5,-45.0625,0
51950,-33.75,37,-46.375,0
51970,-35.4375,37.0625,-44.8125,0
51990,-33.625,36.8125,-42.3125,0
52010,-28.3125,35.3125,-42.3125,0
52030,-29.375,34.0625,-40.4375,0
52050,-30.375,32.5625,-36.9375,0
52070,-26.25,31.4375,-36.125,0
52090,-22.75,30.875,-33.4375,0
52110,-23.0625,30.8125,-31.5625,0
52130,-20.25,28.9375,-29.875,0
52150,-19.6875,30.1875,-25.5,0
52170,-15.5,33.3125,-24.0625,0
52190,-14.9375,33.25,-22.25,0
52210,-14.875,31.625,-19.25,0
52230,-13,33.6875,-15.4375,0
52250,-6.75,30.625,-17.1875,0
52270,-2.75,25.3125,-13.25,0
52290,-4.0625,23.5625,-8.75,0
52310,-1.6875,24.0625,-4.875,0
52330,0.1875,15.75,-4.625,0
52350,3.8125,10.3125,-0.3125,0
52370,-1.375,13.3125,9.0625,0
52390,2.8125,10.625,13.375,0
52410,9.5625,5.0625,15.625,0
52430,4.5,7.4375,23.5625,0
52450,6.375,7.6875,27.6875,0
52470,15.0625,1.1875,29.5,0
52490,16.5625,-2,34.1875,0
52510,16.9375,-2.5625,35.6875,0
52530,19.4375,-6.5625,34.9375,0
52550,19.5625,-8.625,39.1875,0
52570,23.5625,-12.1875,38.6875,0
52590,23.375,-14.875,38.5,0
52610,21.5625,-14.0625,40.8125,0
52630,24.1875,-15.3125,41,0
52650,27.4375,-19.5,41.9375,0
52670,24.125,-19.6875,40.875,0
52690,23.1875,-19.3125,42.6875,0
52710,25.9375,-23,43.625,0
52730,26.125,-25.6875,42.625,0
52750,22.4375,-25.75,44.125,0
52770,20.0625,-26.9375,44.5625,0
52790,26.1875,-29.5625,43.8125,0
52810,21,-30.9375,42.875,0
52830,18.625,-30.875,44.125,0
52850,17.3125,-32,43.625,0
52870,18.125,-31.1875,42.125,0
52890,14.8125,-31.9375,40.9375,0
52910,13,-32.25,40.0625,0
52930,14.375,-33.75,37.9375,0
52950,18.4375,-34.625,33.125,0
52970,16.8125,-35.6875,32.875,0
52990,11.1875,-36.875,34.6875,0
53010,8.875,-39.3125,33.5625,0
53030,12.8125,-38.8125,31.4375,0
53050,12,-40.125,31.0625,0
53070,12.625,-42.625,28.6875,0
53090,9.8125,-42.1875,24.5625,0
53110,11.8125,-40.375,23.3125,0
53130,13.875,-40.3125,23.4375,0
53150,10.5,-41.75,21.875,0
53170,10.75,-39.625,22.1875,0
53190,10.9375,-37.1875,22.9375,0
53210,8.4375,-36.9375,21.1875,0
53230,8.875,-38.375,18,0
53250,8.4375,-40.8125,16.1875,0
53270,6.125,-42.1875,15.125,0
53290,4.625,-43.5,11.625,0
53310,3.6875,-42.375,6.125,0
53330,5.1875,-40.25,1.4375,0
53350,2.0625,-41.1875,-1.5625,0
53370,-2.3125,-42.125,-5.0625,0
53390,-3.125,-37.1875,-6.6875,0
53410,-4.5625,-33.75,-8.0625,0
53430,-6.625,-36.5625,-12.1875,0
53450,-13.875,-35.625,-17.25,0
53470,-14.0625,-33.4375,-21.3125,0
53490,-15.1875,-31.125,-23.25,0
53510,-20.5625,-26.6875,-25.5,0
53530,-23.5625,-22.3125,-30.9375,0
53550,-23.1875,-18.0625,-31.8125,0
53570,-23.625,-15,-33,0
53590,-25.3125,-10.125,-35.9375,0
53610,-31.875,-4,-39.6875,0
53630,-28.9375,-1.75,-39.9375,0
53650,-32.1875,-1.25,-39.875,0
53670,-36.5,1.0625,-43.75,0
53690,-38.1875,7.5625,-43.9375,0
53710,-38.5,12.125,-44.4375,0
53730,-37.375,16.0625,-48.375,0
53750,-41,18.625,-48.9375,0
53770,-41.4375,22.4375,-51.8125,0
53790,-34.5,25.75,-56.125,0
53810,-38.1875,28.8125,-55.25,0
53820,-41.0625,31.875,-53.6875,0
53840,-37.125,33.75,-54.5625,0
53860,-35.5625,32.875,-51.9375,0
53880,-39.25,35,-50.5,0
53900,-40.375,39.9375,-49.125,0
53920,-31.5,40.1875,-48.875,0
53940,-33.5625,37.9375,-47.9375,0
53960,-37.0625,39.5625,-43.625,0
53980,-32.5625,40.6875,-43,0
54000,-27,41.0625,-42.3125,0
54020,-31,42.0625,-40.9375,0
54040,-35.8125,45.875,-37.75,0
54060,-23.4375,44.5625,-40.375,0
54080,-20.625,42.25,-39.5,0
54100,-22.375,41.1875,-36.75,0
54120,-19.3125,38.25,-36.5,0
54140,-16.8125,37.875,-31.75,0
54160,-9.875,38.5625,-27,0
54180,-13.0625,38.875,-21.0625,0
54200,-10.375,39.3125,-17.5,0
54220,-4.1875,38.125,-13.5,0
54240,0,37.5625,-11.5625,0
54260,1.625,41.8125,-7.75,0
54280,-2.4375,43.8125,-3.75,0
54300,6.375,43.375,-3.125,0
54320,11.5,44.125,-3.4375,0
54340,6.25,46,3.875,0
54360,15.4375,39.75,6.8125,0
54380,15.3125,35.125,9.8125,0
54400,9.9375,32.0625,14.875,0
54420,11.125,25.625,18,0
54440,12.5,18.6875,20.5,0
54460,9.5625,15.375,21.875,0
54480,7.0625,14,22.75,0
54500,6.6875,12.625,25.3125,0
54520,11.875,14.8125,25.125,0
54540,11.1875,14.6875,24.375,0
54560,6.625,15.25,27.5,0
54580,14.25,16.625,29.25,0
54600,14.0625,12.6875,29.0625,0
54620,14.125,10.9375,31.5625,0
54640,8.75,11.875,32.9375,0
54660,10.875,9.9375,35.1875,0
54680,11.5625,5.5,36.5625,0
54700,10.8125,3.375,36.75,0
54720,7.75,1.4375,41.4375,0
54740,7.875,-2.1875,44,0
54760,6.875,-6.5,43.5625,0
54780,4.9375,-9,45.375,0
54800,3,-10.875,44.75,0
54820,4.0625,-12.9375,44.9375,0
54840,6.375,-16.25,44.875,0
54860,4.125,-18.875,44.1875,0
54880,0.6875,-22.4375,45,0
54900,3.5,-24.375,44.5,0
54920,5.5,-25.875,42.6875,0
54940,1.0625,-28.5,43.25,0
54960,2.4375,-30.625,41.5625,0
54980,4.875,-30.8125,38.25,0
55000,6.6875,-31.4375,37.625,0
55020,5.125,-29.875,35.3125,0
55040,3.25,-28.625,34.5625,0
55060,3.8125,-29.0625,35,0
55080,3.6875,-28.6875,33.8125,0
55100,0.5,-29.0625,34.1875,0
55120,-2.875,-29.5625,35.0625,0
55140,-6.375,-29.625,34.5625,0
55160,-4,-31.5625,36.1875,0
55180,-6.0625,-33.8125,33.5,0
55200,-6.1875,-31.8125,32,0
55220,-2.9375,-30.75,30.6875,0
55240,-4.3125,-33.6875,28,0
55260,-3.75,-33.375,25.75,0
55280,-2.75,-31.1875,23.8125,0
55300,-3.125,-32.6875,21,0
55320,-3.4375,-33.5625,17.9375,0
55340,-2.5,-32.5,13.9375,0
55360,-4.3125,-32.6875,11.4375,0
55380,-1.8125,-33.375,8.8125,0
55400,1.375,-34.1875,3.125,0
55420,-1.875,-34.6875,0.4375,0
55440,-4.0625,-33.9375,-1.3125,0
55460,-0.625,-33.5,-4.625,0
55480,2.5625,-34.3125,-8.5,0
55500,-0.9375,-35.4375,-10.0625,0
55520,-0.375,-35.625,-13.4375,0
55540,-2.4375,-35.25,-14.5625,0
55560,-5.5,-32.375,-16,0
55580,-4.8125,-32.125,-18.375,0
55600,-0.1875,-31.375,-19.8125,0
55620,-1.5,-28.625,-21.375,0
55640,-6.25,-26.25,-22.875,0
55660,-5.0625,-25.0625,-23.5,0
55680,-1.875,-25.1875,-25.3125,0
55700,-4.8125,-21.625,-26.125,0
55720,-7.25,-16.3125,-27.5625,0
55740,-6.5625,-16.1875,-28.875,0
55760,-4.5,-17.4375,-27.25,0
55780,-7.375,-15.125,-28.875,0
55800,-8.3125,-10.9375,-30.8125,0
55810,-5.375,-9.1875,-30.125,0
55830,-8.0625,-9.125,-29.125,0
55850,-7.0625,-7.6875,-29.6875,0
55870,-4.1875,-7.6875,-30.8125,0
55890,-4.1875,-5.8125,-29.25,0
55910,-9.4375,-3.3125,-25.6875,0
55930,-7.1875,-3.9375,-23.625,0
55950,-5.6875,-4.75,-21.6875,0
55970,-5.9375,-4.25,-20.8125,0
55990,-5.875,-3.375,-18.0625,0
56010,-4.5,-4.5625,-15,0
56030,0.9375,-6.1875,-13.5625,0
56050,0.25,-7.75,-9.875,0
56070,-1.375,-8.6875,-4.25,0
56090,-1.25,-8.1875,-2.375,0
56110,0.625,-8.125,-0.6875,0
56130,0.8125,-6.375,2.75,0
56150,0.1875,-6.9375,3.1875,1001
56170,3.75,-8.9375,2.4375,0
56190,4.8125,-8.0625,1.25,0
56210,5.25,-8.625,0.8125,0
56230,6.75,-10.375,2.375,0
56250,4.625,-8.3125,3,0
56270,3.875,-7.75,1.9375,0
56290,-0.0625,-7.75,4.4375,0
56310,3.8125,-9.0625,2.75,0
56330,5.625,-8.6875,1.8125,0
56350,3.3125,-6,4.5625,0
56370,2.875,-4.5625,-0.1875,0
56390,3.375,-2.375,-6.625,0
56410,2.625,-0.6875,-4.3125,0
56430,3.5,-0.5,-3.0625,0
56450,4.0625,0.5625,-1.625,0
56470,1.8125,2.1875,-0.3125,0
56490,1.5625,6.4375,1.1875,0
56510,3.125,10.25,4.625,0
56530,7.5625,12.625,6.375,0
56550,7.6875,14.3125,7.25,0
56570,8.375,14.5625,8.25,0
56590,10.5625,13.5625,9.5625,0
56610,15.4375,11.0625,7.0625,0
56630,19.3125,8.6875,5.0625,0
56650,19.125,17.25,11.0625,0
56670,24.875,26,15.0625,0
56690,34.4375,26.9375,10.8125,0
56710,36,28.6875,9.0625,0
56730,37.125,34.125,14,0
56750,35.75,41.4375,21.5,0
56770,46.0625,38.1875,17.8125,0
56790,48.6875,38.25,21.5,0
56810,43.625,42.5625,26.125,0
56830,41,54.875,36.3125,0
56850,45.75,56.9375,37.3125,0
56870,51.25,55.875,30.3125,0
56890,51.375,65.9375,32.3125,0
56910,53.5625,79.9375,40.875,0
56930,56.25,87.875,38.8125,0
56950,62.8125,93.875,29.375,0
56970,62.3125,103,35.4375,0
56990,52.6875,116.062,46.5,0
57010,72.5625,120.062,51.375,0
57030,74.1875,117.75,51.125,0
57050,54,122.688,53.0625,0
57070,44.0625,119.438,47.5625,0
57090,48.875,101.062,43.625,0
57110,45.5625,80.0625,35.5625,0
57130,37.625,64.0625,20.625,0
57150,29.8125,46.6875,12.1875,0
57170,24.1875,27.1875,7.9375,0
57190,13.4375,18.1875,5.3125,0
57210,2.0625,9.875,1.125,0
57230,-7.5625,3.8125,4.6875,0
57250,-11.1875,1.4375,8.5625,0
57270,-11.8125,4.25,8.125,0
57290,-8.125,5.875,12.3125,0
57310,-11.25,7.4375,18.5,0
57330,-3.875,8.6875,19.9375,0
57350,-5.1875,7.5,18.8125,0
57370,-8.375,6.3125,14.8125,0
57390,-4.0625,3.9375,10,0
57410,-1.5,-0.4375,4.125,0
57430,0.75,-4.4375,0.1875,0
57450,0.5625,-5.4375,-2.9375,0
57470,-1.5625,-7,-0.875,0
57490,-5.3125,-7.3125,4.25,0
57510,-7.5,-5.0625,5.75,0
57530,-9.9375,-0.4375,7.125,0
57550,-10.1875,1.25,7.875,0
57570,-7.625,1.5625,7,0
57590,-7.5625,1.25,5.375,1000
57610,-5.75,2.0625,4,0
57630,-3.8125,2.3125,1.375,0
57650,-1.4375,0.625,0.5,0
57670,-4.125,0.75,1.4375,0
57690,-6.125,3.25,2.125,0
57710,-5.25,3.9375,3.125,0
57730,-3.6875,4.3125,3.5,0
57750,-2.0625,5.0625,2.4375,0
57770,-2.4375,8.375,3.25,0
57790,1,8.0625,2.9375,0
57810,0,4.1875,1.9375,0
57830,-0.3125,3.0625,2.75,0
57850,-2.25,4.5,3.4375,0
57870,-0.625,-0.5625,4.875,0
57890,-1,-7.4375,7.6875,0
57910,0.5,-11.875,9.5625,0
57930,2.375,-13.875,9.875,0
57950,3.9375,-16.1875,12.8125,0
57970,4.0625,-16.1875,15.5,0
57990,1.125,-14.5625,16.9375,0
58010,1.25,-15.6875,21.0625,0
58030,4.4375,-19,22.875,0
58050,4.6875,-17.25,22.6875,0
58070,6.25,-13.625,20.9375,0
58090,7.25,-14.875,19.25,0
58110,7.375,-17.8125,18.3125,0
58130,8.625,-16.6875,17.375,0
58150,10.4375,-13.3125,16.5,0
58170,8.5625,-14.125,14.375,0
58190,6.375,-14.3125,12.9375,0
58210,5.3125,-13.3125,10.875,0
58230,6.4375,-12.9375,9.3125,0
58250,6.3125,-15.25,7.25,0
58270,2.5,-16.8125,4.6875,0
58290,-1.9375,-16.625,3.8125,0
58310,-6.625,-14.6875,4.125,0
58330,-8.625,-13.6875,2.625,0
58350,-11.8125,-12.375,-1.6875,0
58370,-16.4375,-6.6875,-3.6875,0
58390,-11.6875,-5.75,-6.1875,0
58410,-14.1875,-5.1875,-8.5625,0
58430,-17.1875,-4.5625,-11.3125,0
58450,-16.375,-1.5625,-13.5,0
58470,-9.4375,-0.8125,-15.3125,0
58490,-10.5,-3,-17.0625,0
58510,-14.0625,-3.3125,-20.1875,0
58530,-18.3125,-2.5,-18.8125,0
58550,-19.5,0.25,-19.9375,0
58570,-17.375,4.25,-22.9375,0
58590,-18.75,7.6875,-28.5,0
58610,-20.5625,11,-28.625,0
58630,-16,14.5625,-28.75,0
58650,-16.8125,17.1875,-31.5625,0
58670,-19.625,14.25,-28.9375,0
58690,-21.9375,14.0625,-28.25,0
58710,-21.6875,15.0625,-27.375,0
58730,-23,11.9375,-27.1875,0
58750,-23.6875,9.875,-28.5625,0
58770,-24.5,6.8125,-28.875,0
58790,-23.875,7.8125,-31.6875,0
58810,-24.875,6.375,-31.25,0
58840,-25.125,9.625,-31.3125,0
58860,-25.75,11.4375,-32.125,0
58880,-26.4375,12.5,-30.8125,0
58900,-27.0625,14.9375,-31.125,0
58920,-27.375,16.125,-29.6875,0
58940,-27.375,18.4375,-31.1875,0
58960,-28.3125,19.9375,-31.0625,0
58980,-28.4375,21.75,-33.625,0
59000,-28.9375,23.6875,-36.625,0
59020,-30.125,25.125,-39.25,0
59040,-29.25,25.875,-42.0625,0
59060,-28.5,25.6875,-45.3125,0
59080,-29.75,26.3125,-47.5,0
59100,-31.0625,26.125,-50.125,0
59120,-30.375,25.375,-50.5625,0
59140,-30,25.4375,-50.125,0
59160,-30.4375,28.375,-49.9375,0
59180,-30.1875,31.75,-49.8125,0
59200,-28.875,35,-49.6875,0
59220,-27.5625,37.5,-50.25,0
59230,-27.0625,39.4375,-49.9375,0
59250,-25.3125,38.9375,-50.1875,0
59270,-24.125,36.25,-48.875,0
59290,-23.375,34.9375,-49.75,0
59310,-23.6875,35.0625,-49.625,0
59330,-23.0625,34.3125,-48.4375,0
59350,-21.375,29.75,-47.4375,0
59370,-21.25,24.8125,-44.5625,0
59390,-20.875,22.5,-44.25,0
59410,-19.625,20.5,-41.5625,0
59430,-16.375,15.625,-37.8125,0
59450,-14.125,11.0625,-33,0
59470,-14.125,11.9375,-28.0625,0
59490,-16.3125,15.6875,-23.5625,0
59510,-10,14.25,-22.4375,0
59530,-5.75,12.0625,-19.8125,0
59550,-6.4375,12.625,-16.25,0
59570,-1.3125,13.5,-17.1875,0
59590,4.4375,9.1875,-14.875,0
59610,3.5,6.375,-9.125,0
59630,4.9375,4.25,-5.625,0
59650,8.25,3.875,-3.75,0
59670,4.5,2.4375,-0.75,0
59690,6.0625,-0.3125,4.5,0
59710,5,-2.8125,6.125,0
59730,5.25,-5.0625,8,0
59750,7,-7.3125,11.375,0
59770,9.3125,-8.0625,14.375,0
59790,9,-7.375,17.875,0
59810,7.5,-8.8125,20.5,0
59830,11.3125,-12.5,22.375,0
59850,12.0625,-14,23.8125,0
59870,13.0625,-15,28.1875,0
59890,13.875,-16.75,29.8125,0
59910,16.875,-18.125,32.375,0
59930,18.5625,-20.1875,34,0
59950,17.8125,-21.3125,34.0625,0
59970,18.5625,-21.25,35.625,0
59990,16.375,-20.8125,36.6875,0
60010,17.5625,-22.625,36.4375,0
60030,18.0625,-22.125,36.8125,0
60050,20.9375,-22.125,37.9375,0
60070,22.75,-24.0625,38.3125,0
60090,17.375,-24,38.375,0
60110,14.1875,-22.875,38.25,0
60130,19,-26.3125,40.5,0
60150,17.75,-27.8125,42.0625,0
60170,11.6875,-27.4375,41.6875,0
60190,14.5625,-28.8125,44.625,0
60210,16.25,-31.4375,44.875,0
60230,15.5625,-30.8125,43.5,0
60250,11.4375,-29.9375,44.8125,0
60270,6.9375,-31.5625,45.625,0
60290,10,-32.25,44.25,0
60310,8.9375,-30.6875,43.875,0
60330,4.75,-29.9375,44.8125,0
60350,1.6875,-30.9375,44.3125,0
60370,4.0625,-28,40.5,0
60390,3.0625,-25.875,40.5,0
60410,3.8125,-28.75,39.8125,0
60430,5.75,-30.4375,36.5625,0
60450,6.5625,-28.9375,35.125,0
60470,4.6875,-30.625,37.0625,0
60490,3.8125,-33.6875,36.6875,0
60510,4.9375,-33.3125,34.1875,0
60530,5.4375,-32.4375,33.3125,0
60550,1.875,-34.1875,31.9375,0
60570,4.8125,-35.875,29,0
60590,7.75,-34.1875,26.6875,0
60610,7.25,-33,23.25,0
60630,8.625,-34.6875,21.125,0
60650,8.0625,-34,19.375,0
60670,3.1875,-30.625,18.75,0
60690,5.25,-30.1875,16.5625,0
60710,5.625,-32.1875,13,0
60730,3.875,-28.1875,10.3125,0
60750,0.3125,-26,8.3125,0
60770,-0.25,-29.25,7.25,0
60790,2.8125,-28.0625,0.5625,0
60810,5.5,-25.3125,-6.25,0
60830,3.5625,-26.0625,-10.5625,0
60850,0.5,-27.25,-9.9375,0
60870,-1.9375,-28.375,-16,0
60890,-3.3125,-25.9375,-20.0625,0
60910,-3.75,-23.6875,-20.3125,0
60930,-6.625,-21.4375,-22.9375,0
60950,-8.875,-19.0625,-26.3125,0
60970,-11.8125,-15.875,-27.5,0
60990,-13.0625,-12.375,-28.875,0
61010,-14.75,-11.9375,-30.5,0
61030,-14.875,-11.3125,-34.875,0
61050,-18.125,-8.3125,-38.125,0
61070,-19.8125,-3.375,-38.125,0
61090,-19.5,-2.625,-39.9375,0
61110,-21.0625,-2.0625,-43.3125,0
61120,-24.8125,2.9375,-44.75,0
61150,-23.1875,4.8125,-44.625,0
61170,-22.625,5.125,-44.6875,0
61190,-26.8125,5.8125,-47.875,0
61210,-28.375,6.8125,-47.9375,0
61220,-26.375,8.4375,-48.3125,0
61240,-28.5625,9.6875,-48.6875,0
61260,-30.8125,11,-49.5,0
61280,-32.0625,13.375,-50.3125,0
61300,-31.4375,14.9375,-49.125,0
61320,-28.5625,17.6875,-50.75,0
61340,-32.6875,20.5,-50.25,0
61360,-33.9375,22.5,-48.6875,0
61380,-30.75,24.0625,-47.5,0
61400,-30.625,26.6875,-48,0
61420,-32.0625,28.25,-46.9375,0
61440,-31.125,27.75,-45.9375,0
61460,-28.1875,27.3125,-45.375,0
61480,-29.5625,28,-44.875,0
61500,-30.625,28.5,-44.5,0
61520,-28.875,27.0625,-43.125,0
61540,-28,25.875,-42.0625,0
61560,-29.125,25.4375,-42.75,0
61580,-28.3125,24.25,-40.875,0
61600,-25,24.875,-40,0
61620,-23,24.4375,-38.625,0
61640,-20.875,21.875,-37.375,0
61660,-17.5625,17.6875,-36.0625,0
61680,-16.5625,17.9375,-32.6875,0
61700,-20.0625,21.0625,-27.625,0
61720,-17.3125,22.25,-26.375,0
61740,-10.125,21.8125,-24.9375,0
61760,-6.9375,23.875,-22.4375,0
61780,-11.8125,26.3125,-15.4375,0
61800,-10.125,22.5625,-15.875,0
61820,-5.0625,19.5,-13.25,0
61840,-2.75,20.5,-9.25,0
61860,-3.1875,19.5625,-5.125,0
61880,-1.8125,18.125,-2.125,0
61900,-2,18.8125,2.75,0
61920,0.8125,15.8125,4.6875,0
61940,-1.1875,14.4375,11.5625,0
61960,2.125,15,14.9375,0
61980,5.5,14.5,16.75,0
62000,9,12.4375,19.25,0
62020,10.4375,9.5,21,0
62040,14.5,5.25,24,0
62060,15.4375,3.25,24.9375,0
62080,16.1875,3.4375,27.3125,0
62100,17.6875,0,30,0
62120,19.375,-1.5625,31.375,0
62140,21.75,-4,33.375,0
62160,21.3125,-4.875,35,0
62180,17.875,-5.8125,37,0
62200,19.6875,-9,36.875,0
62220,20.5625,-8.1875,36.5625,0
62240,22.1875,-6.0625,35.875,0
62260,22.0625,-7.125,37.3125,0
62280,21.75,-9.3125,39.1875,0
62300,19.6875,-8.875,39.9375,0
62320,18.125,-10.4375,42.4375,0
62340,18.0625,-11.6875,43.875,0
62360,14.6875,-13.6875,44.25,0
62380,15,-15.3125,44.25,0
62400,12.1875,-15.3125,45.0625,0
62420,10.5,-16.1875,46.1875,0
62440,10.8125,-17.9375,47.625,0
62460,6.3125,-18.375,46.875,0
62480,6.375,-16.75,44.375,0
62500,6.375,-18,41.3125,0
62520,7.4375,-21.125,40.3125,0
62540,6.9375,-21.1875,38.5,0
62560,6.625,-21.125,35.8125,0
62580,7.0625,-24.125,34.75,0
62600,5.3125,-25.125,32.5,0
62620,4.3125,-26.5625,30.5,0
62640,7.125,-29.625,29.5,0
62660,9.9375,-31.4375,26.5625,0
62680,11.8125,-31.6875,23.875,0
62700,12.4375,-33,22.8125,0
62720,13.3125,-33.1875,20.9375,0
62740,15.125,-31.6875,18.0625,0
62760,14,-31.625,20,0
62780,9,-33.25,21.25,0
62800,5.9375,-33.5625,20.6875,0
62820,5.6875,-32.9375,20.8125,0
62840,5.4375,-34.1875,19.625,0
62860,2.75,-37.1875,19.25,0
62880,4.9375,-38.75,16.8125,0
62900,3.5625,-39.5625,16.875,0
62920,3.375,-41.1875,14.25,0
62940,1.75,-41.6875,12.25,0
62960,-7,-36.375,8.875,0
62980,-4.5625,-32.75,3.6875,0
63000,-3.625,-34.125,-2,0
63020,-8.875,-31.625,-4.9375,0
63040,-12.8125,-27.1875,-8.0625,0
63060,-13.375,-26.4375,-10.1875,0
63080,-11.9375,-25.0625,-12.0625,0
63100,-13.8125,-24.625,-17.25,0
63120,-12.1875,-26,-18.75,0
63140,-13.25,-25.4375,-19.6875,0
63160,-14.625,-24.8125,-23.125,0
63180,-19.6875,-25.25,-23.3125,0
63200,-19.375,-22.125,-22.25,0
63220,-16.9375,-24.75,-25.625,0
63240,-19.75,-25.5625,-27.625,0
63260,-22,-20.8125,-30.25,0
63280,-18.6875,-16.375,-30.1875,0
63300,-23.125,-19.125,-31,0
63320,-24.6875,-20.375,-34.4375,0
63340,-25.25,-16.9375,-37.9375,0
63360,-25,-13.4375,-37.625,0
63380,-29.4375,-12.5,-38.1875,0
63400,-30.0625,-10.75,-40.625,0
63420,-30.9375,-5.6875,-44,0
63440,-28.0625,-2.9375,-45.3125,0
63460,-29,-4.8125,-46.9375,0
63480,-30.9375,-3.875,-48.6875,0
63500,-31.5625,-0.9375,-49.5,0
63520,-28.875,1.0625,-50.0625,0
63540,-32.5,2.75,-49.6875,0
63560,-34.0625,6.125,-50.75,0
63580,-31.25,10.3125,-50.6875,0
63600,-32.75,13.625,-52.25,0
63620,-31.125,17.5,-53.375,0
63640,-31.75,21.5625,-53.0625,0
63660,-32.6875,26.25,-51.1875,0
63680,-29.8125,30.5625,-52,0
63700,-31,34.625,-49.375,0
63720,-33.3125,40.0625,-45.9375,0
63740,-31.75,43.375,-44.125,0
63760,-34.6875,45.5625,-40.3125,0
63780,-32.75,47.375,-37.3125,0
63800,-32.4375,49.75,-35.4375,0
63820,-29.3125,50.0625,-33.6875,0
63840,-26.3125,52.125,-28.875,0
63860,-25.0625,54.125,-24,0
63880,-18.25,54.25,-21.25,0
63900,-17.0625,50.75,-16.0625,0
63920,-11.3125,46.125,-12.625,0
63940,-9.3125,44.625,-9.3125,0
63960,-6.625,43.3125,-4.6875,0
63980,-4.9375,40.375,4.5,0
64000,-3.0625,36.6875,8.8125,0
64020,1.1875,33.5,8.8125,0
64040,1.3125,33.1875,19.1875,0
64060,-0.3125,32.625,24.75,0
64080,8.0625,28.4375,23.75,0
64100,10.1875,26.6875,22.625,0
64120,10.375,27.375,26.8125,0
64140,12,23.375,27.625,0
64160,15.125,18,24,0
64180,14.5,16.5,23,0
64200,13.375,13.625,24.5625,0
64220,14.875,11.25,27.125,0
64240,14.8125,10.25,30.3125,0
64260,12.25,8.625,31.9375,0
64280,8.0625,6.9375,34.6875,0
64300,11.3125,6.5625,37.6875,0
64320,10.625,7.3125,41.1875,0
64340,7.1875,7.4375,39.9375,0
64360,10.0625,5.8125,41.8125,0
64380,11.1875,4.25,44.0625,0
64400,8.875,2.5,43.875,0
64420,5.125,-1.0625,46.0625,0
64440,2.3125,-4.0625,45.0625,0
64460,5,-6.75,44.375,0
64480,6.125,-10.75,45,0
64500,2.3125,-13.5625,42,0
64520,-0.1875,-17.3125,40.6875,0
64540,4.9375,-18.9375,40.5625,0
64560,10.6875,-18.875,39.125,0
64580,2.9375,-20.375,39.25,0
64600,-0.0625,-21.875,40,0
64620,5.25,-22.8125,38.875,0
64640,0.6875,-24.4375,39.125,0
64660,-2.25,-24.875,40,0
64670,-6.125,-26.9375,41.3125,0
64690,-4.1875,-29.125,38.8125,0
64710,-2.4375,-30.1875,37.0625,0
64730,-5.25,-33.125,35.25,0
64750,-2.0625,-34.6875,32.1875,0
64770,0.0625,-35.25,28.6875,0
64790,-2.0625,-36.625,27.0625,0
64810,-4.0625,-39.9375,27,0
64830,-1,-39.8125,22.625,0
64850,-2.5625,-38.8125,22.375,0
64870,-5.5625,-40,22.875,0
64890,-3,-42.375,18.1875,0
64910,-0.5625,-43.4375,15,0
64930,-4.0625,-42.5,13.8125,0
64950,-6.625,-41.875,11,0
64970,-5.625,-43.3125,6.875,0
64990,-2.5625,-44.375,1.1875,0
65010,-4,-42.6875,-2.3125,0
65030,-3.9375,-39.5,-7.375,0
65050,-0.625,-37,-10.75,0
65070,-1.8125,-38.4375,-13.25,0
65090,-3.75,-36.5,-14.9375,0
65110,-4.8125,-32.25,-17.875,0
65130,-9.1875,-29,-17.1875,0
65150,-5.625,-27.75,-16.6875,0
65170,-4.625,-27.9375,-19.375,0
65190,-7.9375,-24.1875,-20.5,0
65210,-8.375,-21.1875,-21,0
65230,-6.75,-22.5,-22.25,0
65250,-3.1875,-22.25,-24.0625,0
65270,-7.3125,-18,-27.0625,0
65290,-4.3125,-15,-28.25,0
65310,-7.0625,-14.25,-27.375,0
65330,-7.8125,-12.4375,-29.4375,0
65350,-5.875,-10.875,-29.3125,0
65370,-4.875,-7.375,-29.625,0
65390,-6.875,-5.875,-27.6875,0
65410,-6.8125,-7.125,-25.9375,0
65430,-5.875,-5.875,-26.1875,0
65450,-2.6875,-5.5625,-25.0625,0
65470,-5.375,-7.1875,-23.6875,0
65490,-4.9375,-7.8125,-23.5,0
65510,-3.8125,-7.0625,-21.9375,0
65530,-2.8125,-5.5625,-20.3125,0
65550,-7.9375,-4.8125,-18.0625,0
65570,-2.3125,-3.75,-15.5,0
65590,-1.3125,-3.6875,-13.5,0
65610,-4,-4.5625,-7.5625,0
65630,-4.25,-2.625,-4.375,0
65650,-1.375,-3.3125,-3.6875,0
65670,1.1875,-4.9375,-0.25,0
65690,0.4375,-5.9375,0.625,0
65710,3.1875,-7.75,0.1875,0
65730,5.125,-9.75,0,0
65750,8.8125,-7.125,-0.6875,0
65770,7.25,-5.4375,-1.125,0
65790,4.75,-6.25,0.9375,0
65810,10,-9.1875,0,0
65830,9.3125,-6.9375,3.5625,0
65850,5.375,-4.5625,5.9375,0
65870,2.1875,-5,6.625,1001
65890,3.5,-6.3125,7.25,0
65910,3.5625,-7.75,5.1875,0
65930,6.375,-8.5625,0.875,0
65950,6.1875,-6.375,-0.75,0
65970,6.25,-3.5,-1.6875,0
65990,5.3125,-4.125,-1.125,0
66010,2.875,-5,-0.75,0
66030,1.5,-4.5,1.5,0
66050,2.9375,-3.0625,1.25,0
66070,4.8125,-3.25,-1.1875,0
66090,6.5,-6.75,-4,0
66110,6.8125,-7.6875,-4.375,0
66130,4.375,-3.5625,-1.6875,0
66150,6.25,-2.0625,-1.25,0
66170,5.875,-0.375,1,0
66190,4.5625,4.25,2.4375,0
66210,6.625,6.375,3.25,0
66230,7.4375,5.8125,3.25,0
66250,6.1875,7.625,3.3125,0
66270,12.375,12.1875,5.125,0
66290,13.125,16.3125,7.5625,0
66310,17.25,19.625,5.4375,0
66330,22.8125,28,5.4375,0
66350,26.875,36.0625,15.0625,0
66370,30.3125,39.25,17.8125,0
66390,32.25,42.625,13.0625,0
66410,33.125,51.1875,14.625,0
66430,36.875,53.1875,23.9375,0
66450,42.125,51.25,25.8125,0
66470,43.625,52.9375,25.5,0
66490,46.6875,53.75,25.8125,0
66510,39,50.75,31.5,0
66530,43.3125,44.5625,29.375,0
66550,47.375,44,32.75,0
66570,43.4375,56.6875,41.875,0
66590,58.5,68.125,40.375,0
66610,66.875,71.875,34.25,0
66630,69.625,78.5,36.9375,0
66650,53.25,92.1875,47.5,0
66660,56.625,101.938,46.5,0
66680,70,99.9375,39.375,0
66700,70.375,99.9375,36.125,0
66720,56.25,95.6875,42.125,0
66740,52.375,87.25,33.5625,0
66760,52.1875,77.5625,31.0625,0
66780,45.4375,74.5,37.6875,0
66800,30.75,69.5625,36.9375,0
66820,29.3125,59.875,29,0
66840,22,49.5625,28.8125,0
66860,11.6875,44.25,30.8125,0
66880,7.6875,38.1875,21.25,0
66900,7.4375,28.875,13.8125,0
66920,-7.9375,17.25,6.1875,0
66940,-11,14,2.1875,0
66960,-10.875,9.1875,3.5,0
66980,-8.75,6.9375,5.3125,0
67000,-9.1875,10.125,5.9375,0
67020,-8.4375,11.0625,4.75,0
67040,-8.4375,10.25,6,0
67060,-4,9.5625,7,1000
67080,-1.1875,7.25,4.375,0
67100,0.0625,5.75,3,0
67120,1.25,4.375,2.4375,0
67140,3.5,2.9375,3.0625,0
67160,3.8125,-0.9375,2.375,0
67180,1.6875,-1.5625,1.5,0
67200,0.8125,-1.375,2.375,0
67220,0.3125,-1.875,3.4375,0
67240,0.9375,-4.0625,3.6875,0
67260,-2.6875,-5.5625,3.625,0
67280,-4.6875,-3.0625,4.3125,0
67300,-4.875,-2.6875,4.125,0
67320,-3.5625,-4.5625,3.1875,0
67340,-3.3125,-3.5,0.75,0
67360,-3.8125,-1.3125,0.1875,0
67380,-3.5625,-2.4375,0.9375,0
67400,-3.3125,-3.0625,0.75,0
67420,-4.0625,-1.25,-0.8125,0
67440,-4.5625,-1.75,2.75,0
67460,-1.625,-5.8125,5.75,0
67480,-1.375,-8.75,8.0625,0
67500,0.125,-10.8125,9.875,0
67520,2.4375,-14.1875,11.1875,0
67540,6.125,-17.75,11.9375,0
67560,7.25,-19.25,11.25,0
67580,6.8125,-18.6875,11.8125,0
67600,6.75,-18.8125,11.6875,0
67620,5.5,-19.5,13.1875,0
67640,6.5625,-19.8125,11.75,0
67660,7.375,-16.125,10.5,0
67680,6.8125,-15.125,10.125,0
67700,7.625,-16.6875,10.1875,0
67720,8.375,-19.5625,9.125,0
67740,9.6875,-22.625,7.125,0
67760,7.375,-24.625,6.375,0
67780,4.875,-25.375,9.4375,0
67800,3.375,-23.5625,9.5,0
67820,-0.0625,-18.4375,8.375,0
67840,-0.875,-15.4375,8.1875,0
67860,-3.125,-18.6875,8.9375,0
67880,-7.25,-18.75,7.3125,0
67900,-9.625,-17.5,6.9375,0
67920,-10.0625,-12.375,3.125,0
67940,-10.25,-10.0625,2.375,0
67960,-13.125,-10.375,1,0
67980,-14.4375,-8.125,-3.25,0
68000,-15.3125,-3.375,-8.5,0
68020,-13.1875,0.25,-11.625,0
68040,-15.1875,1.875,-14.5625,0
68060,-19.125,5.4375,-17.4375,0
68080,-21.25,8.125,-17.75,0
68100,-18.125,13.5,-20.875,0
68120,-15.4375,15.1875,-25.4375,0
68140,-18.6875,15.4375,-26.5,0
68160,-21.625,14.3125,-26.25,0
68180,-20.8125,14.6875,-25.5,0
68200,-19.125,16.6875,-28.75,0
68220,-19.6875,16.625,-28.25,0
68240,-20.4375,16.625,-28.5,0
68260,-20.0625,20.875,-31.4375,0
68280,-19.5,21.0625,-31.6875,0
68300,-19.625,19.625,-32.125,0
68330,-23.5,20.5625,-32.1875,0
68360,-20.875,19.625,-35.5,0
68380,-24.3125,18.5625,-36.75,0
68400,-27.125,16.3125,-35.4375,0
68420,-26.75,16.1875,-37.625,0
68440,-27.75,17.1875,-36.75,0
68460,-30.125,17.9375,-36.3125,0
68480,-31.5625,18.8125,-37.25,0
68500,-32.0625,21.1875,-37.875,0
68520,-31.1875,24.4375,-39.75,0
68540,-30.125,27.6875,-43.25,0
68560,-28.5,29.5625,-46.75,0
68580,-27.625,31.25,-50.9375,0
68600,-28.8125,33.8125,-55.5625,0
68620,-29.9375,35.5,-58.3125,0
68640,-30.0625,37.75,-60.8125,0
68660,-29.1875,39.5625,-63.5625,0
68680,-29.1875,38.6875,-66.5625,0
68700,-25.8125,38.0625,-68,0
68720,-25.6875,37.75,-67.125,0
68740,-27.375,35.375,-66,0
68760,-27.4375,32.25,-63.75,0
68780,-26.8125,28.75,-59.625,0
68800,-27.375,28.3125,-55.9375,0
68820,-27.375,26.1875,-50.5,0
68840,-25.5625,22.125,-42.5625,0
68860,-22.875,19.625,-40.75,0
68880,-22.25,16,-34.9375,0
68900,-20.3125,15.0625,-28.3125,0
68920,-19.6875,13.375,-23.125,0
68940,-16.1875,11.625,-20,0
68960,-14.25,11.3125,-15.875,0
68980,-10.5,11.375,-13.3125,0
69000,-6.8125,8.625,-11.75,0
69020,-4.9375,9.0625,-9.0625,0
69040,-2.3125,7.4375,-6.75,0
69060,0.4375,4.5,0.375,0
69080,1.375,1.375,4,0
69100,1.9375,0.5625,6.6875,0
69120,6.375,0.4375,11.8125,0
69140,3.6875,-0.75,14,0
69160,6.4375,-3.6875,15.8125,0
69180,9.875,-9.125,16.875,0
69210,11.125,-5.9375,21.1875,0
69230,11,-6.9375,22.1875,0
69250,17.75,-10.6875,21.125,0
69270,18.4375,-9.5625,24.3125,0
69290,13.375,-6.1875,27.375,0
69310,13.25,-4.9375,26.8125,0
69330,9.9375,-6.5625,28.1875,0
69350,16.875,-7.9375,30.1875,0
69370,15.625,-7.25,30.4375,0
69390,12.5,-7.9375,29.5,0
69410,12.1875,-11.625,29.9375,0
69430,12.9375,-16,31.6875,0
69450,13.1875,-16.6875,32.6875,0
69470,15,-15.6875,32.875,0
69490,12.8125,-18,33.875,0
69510,12.25,-20.9375,35.25,0
69530,10.375,-21.25,36.9375,0
69550,11.125,-21.4375,39.8125,0
69570,12.875,-22.875,38.5,0
69590,10.5625,-23.875,38.4375,0
69610,9.625,-25.375,39.1875,0
69630,10.4375,-26.8125,40.1875,0
69650,10,-26.4375,39.5625,0
69670,6.625,-26.5,41.625,0
69690,6.75,-27.5625,44.1875,0
69710,6.25,-29.0625,43,0
69730,7.4375,-28.1875,41.625,0
69750,3.375,-27.6875,42.0625,0
69770,4,-29.3125,40.8125,0
69790,6.6875,-30.1875,39,0
69810,9.1875,-30.25,37.5625,0
69830,6.5,-32.3125,39.125,0
69850,3.8125,-35.8125,38.5,0
69870,3.3125,-36.5,35.25,0
69890,2.5,-37.125,35.125,0
69910,-1.0625,-38.3125,35.1875,0
69930,-0.25,-38.6875,30,0
69950,1.25,-38,27.1875,0
69970,1.5,-37.25,25.8125,0
69990,1,-37.8125,22.25,0
70010,4.5,-37.9375,18.625,0
70030,4.1875,-36.6875,16.1875,0
70040,3.6875,-36.875,13.9375,0
70060,6.125,-40.1875,11.4375,0
70080,5.5625,-40.1875,9.5,0
70100,3.0625,-38.5625,8.5,0
70120,3,-38.8125,8,0
70140,2.875,-37.5,5.8125,0
70160,0.75,-36.875,3.8125,0
70180,1.75,-37,3.5,0
70200,-1,-35.375,2.1875,0
70220,-3.6875,-30.8125,-1.125,0
70240,-2.8125,-31.0625,-4.25,0
70260,-0.5625,-35.5,-7.375,0
70280,-1.25,-35.9375,-11.75,0
70300,0.6875,-32.875,-17.6875,0
70320,-3.3125,-30.6875,-21.5,0
70340,-4,-32.1875,-21.625,0
70360,-3.125,-33.125,-25.6875,0
70380,-5,-31.4375,-30.625,0
70400,-8.5625,-28.1875,-30.25,0
70420,-10.25,-27,-32.625,0
70440,-15,-24,-32.25,0
70460,-19.8125,-18.9375,-34.125,0
70480,-16.4375,-13.3125,-37.3125,0
70500,-14.625,-10.75,-37,0
70520,-18.875,-8.5625,-39.8125,0
70540,-22.875,-5.6875,-41.5,0
70560,-24.375,-1.9375,-40.25,0
70580,-22.75,0.3125,-40.75,0
70600,-27.75,3.875,-42.8125,0
70620,-30.3125,5.5,-43.5,0
70640,-31.125,6.9375,-45.4375,0
70660,-33.125,8.9375,-46.5,0
70680,-35.375,10.9375,-47.875,0
70700,-35.5,13.5625,-49.5625,0
70720,-36,16.75,-51.125,0
70740,-39.3125,20.125,-51.3125,0
70760,-41,23.5625,-50.6875,0
70780,-42.25,27.8125,-51.125,0
70800,-41.8125,32.9375,-50.25,0
70820,-42.4375,35.9375,-48.625,0
70840,-42.8125,37.25,-48.125,0
70860,-41.625,39.875,-47.6875,0
70880,-42.875,39.875,-45.5625,0
70900,-42.375,38.6875,-44.3125,0
70920,-38.25,37,-44.5625,0
70940,-37,36.875,-42.9375,0
70960,-38.0625,37.625,-41.625,0
70980,-37.0625,36.375,-39.625,0
71000,-33.5625,33.6875,-37,0
71020,-28.9375,32.25,-37.3125,0
71040,-29.8125,31.125,-34.4375,0
71060,-26.5625,30.625,-31.3125,0
71080,-21.875,30.125,-29.625,0
71100,-16.5,27.6875,-28.4375,0
71120,-13.125,28.375,-25.6875,0
71140,-22.875,34.5625,-17.1875,0
71160,-12.5,34.5,-15.5625,0
71180,-8.625,36.5,-12.25,0
71200,-12.375,39.4375,-7.75,0
71220,-5.5625,38.1875,-3.0625,0
71240,-2.3125,36,-4,0
71260,3.5625,31.4375,-1.3125,0
71280,8.0625,28.125,2.1875,0
71300,5.1875,25.3125,7.8125,0
71320,10.625,20.3125,9.3125,0
71340,10.125,14.5,13.125,0
71360,10.875,13.5,16.4375,0
71380,13.6875,10.3125,21.25,0
71400,19.4375,6,23.0625,0
71420,13.75,4.8125,26.8125,0
71440,13,4.25,31.5625,0
71460,12.875,3,34.875,0
71480,18.25,1.6875,34.6875,0
71500,15.6875,2.4375,35.3125,0
71520,10.1875,2.1875,39.25,0
71540,17.5625,-1.6875,38.1875,0
71560,18.5625,-4.125,36.4375,0
71580,14.8125,-2.0625,37.125,0
71600,10.875,-4.75,39.6875,0
71620,7.4375,-8.6875,40,0
71640,8.875,-8.125,37.6875,0
71660,10,-8.75,39.875,0
71680,10.625,-11.8125,41.625,0
71700,9,-13.25,40.3125,0
71720,6.75,-13.3125,40.125,0
71740,7.6875,-15,41.625,0
71760,7.8125,-16.9375,41.75,0
71780,8.4375,-17,40.375,0
71800,6.6875,-17.9375,40.875,0
71820,7.9375,-19.3125,40.375,0
71840,10.1875,-21.4375,39.3125,0
71860,10.625,-22,38.6875,0
71880,8.4375,-24.125,39.125,0
71900,6.875,-26,38.125,0
71920,7.5,-27.4375,36.5625,0
71940,11.375,-28.25,35.5,0
71960,8.25,-29.625,35.5625,0
71980,6.9375,-29.375,34.75,0
72000,7.375,-29.5,34,0
72020,7.25,-30.8125,34.1875,0
72030,7,-31.375,32.75,0
72050,5.125,-30.625,32.4375,0
72070,6.125,-31.4375,32.5625,0
72090,6.1875,-34.3125,31.6875,0
72110,4.4375,-34.875,31.1875,0
72130,2.3125,-33.625,29.5,0
72150,-0.75,-35.5625,30.75,0
72170,1.9375,-36.5,28.75,0
72190,0.25,-34.4375,26,0
72210,-1.9375,-33.25,25.0625,0
72230,-2.875,-34.375,24.125,0
72250,0.625,-35.75,19.625,0
72270,1.1875,-35.8125,15.375,0
72290,1.6875,-35.75,12.875,0
72310,-0.3125,-39.5625,9.375,0
72330,-0.5,-40.375,6.5625,0
72350,-3.4375,-36.5625,4.375,0
72370,2.625,-36.75,2.5625,0
72390,-0.8125,-37.625,1.875,0
72410,-6.5625,-36.6875,-0.375,0
72430,-3.875,-37,-2.375,0
72450,-3.125,-39.5625,-4.125,0
72470,-7.0625,-39.6875,-6.625,0
72490,-11.875,-39.5625,-9.6875,0
72510,-11.6875,-38.25,-12.25,0
72530,-8.5625,-37.0625,-15.9375,0
72550,-10,-34.0625,-21.125,0
72570,-5.25,-33.1875,-23.8125,0
72590,-7.5625,-31.8125,-26.4375,0
72610,-14.5,-27,-27.875,0
72630,-11.8125,-24.375,-27.9375,0
72650,-11.1875,-24.5625,-31.3125,0
72670,-12.4375,-21.75,-35.25,0
72690,-19.4375,-18.375,-35.4375,0
72710,-24.5,-16.1875,-34.25,0
72730,-22.125,-16.0625,-37.0625,0
72750,-19.5625,-17.125,-41.125,0
72770,-23.4375,-13.375,-42.6875,0
72790,-20.125,-8.6875,-43.6875,0
72810,-16.9375,-6.125,-42.5625,0
72830,-22,-2.5,-42.1875,0
72850,-22.0625,-1.6875,-44.4375,0
72870,-18.8125,-1.625,-46.75,0
72890,-19.1875,-2.5,-47.4375,0
72910,-24.25,-1.875,-47.0625,0
72930,-30.6875,1.1875,-47.1875,0
72950,-30.375,3.4375,-49.625,0
72970,-27.5625,4.125,-51.9375,0
72990,-33.0625,7.25,-50.75,0
73010,-38.125,12.1875,-48.1875,0
73030,-34.5625,16.75,-48.875,0
73050,-35.25,19.75,-46.6875,0
73070,-42.5,25.375,-43.5,0
73090,-40.4375,34.4375,-43.375,0
73110,-38.125,39.8125,-41.75,0
73130,-38.875,40.8125,-40.75,0
73150,-39.4375,40.125,-42.125,0
73170,-32.0625,44.125,-41.9375,0
73190,-27.125,46.5,-38.9375,0
73210,-29.875,45.8125,-38.5,0
73230,-26.3125,49.75,-38,0
73250,-24.125,52.375,-34.6875,0
73270,-19.1875,51.125,-33.8125,0
73290,-17.875,54.8125,-30.6875,0
73310,-22.625,57.375,-23.5625,0
73330,-7.375,52.6875,-21.75,0
73350,-4.0625,52.125,-20.625,0
73370,-5.875,53.8125,-14.5,0
73390,0.625,50.625,-12.25,0
73410,7.25,47.3125,-10.75,0
73430,5.75,47.1875,-7.1875,0
73450,0.0625,47.375,-3.625,0
73470,11.6875,40.875,-2,0
73490,11.6875,34.9375,-2.3125,0
73510,2.25,36.75,-1.5625,0
73530,-0.5625,34.625,2.125,0
73550,2.9375,33.6875,5,0
73570,1.75,36.4375,5.125,0
73590,0.25,36.125,10.125,0
73610,2.875,36.6875,12.5625,0
73630,7.5625,37.4375,14.25,0
73650,2,40.4375,20.5,0
73670,-6.5625,43.25,24,0
73690,-7.375,43.1875,27.0625,0
73710,-5.0625,37.875,25.875,0
73730,1.5,32.3125,23.6875,0
73750,2.75,31.6875,21.125,0
73770,1.125,28.375,23.875,0
73790,1.625,20.5625,26.8125,0
73810,5.5625,15.125,26.1875,0
73830,5.125,10.5625,27.5,0
73850,2.5625,6.875,32.375,0
73870,1.3125,4.5625,33.6875,0
73890,0.0625,1,33,0
73910,3.5625,-2.875,33.125,0
73930,4.6875,-6.125,32.125,0
73950,9.1875,-7.125,32.3125,0
73970,10.6875,-9.8125,30.6875,0
73990,8.75,-12.9375,31.4375,0
74010,6.125,-15.8125,33.75,0
74030,7.8125,-16.0625,32.3125,0
74050,6.4375,-15.875,34.875,0
74070,2.1875,-16.6875,36,0
74090,3.4375,-15.8125,34.6875,0
74110,7.75,-16.5,34.5625,0
74130,1.5625,-17.3125,37.1875,0
74150,-2.875,-16.0625,38.875,0
74170,2.625,-19.0625,37.375,0
74190,3.3125,-21.25,36.625,0
74210,-3.5625,-19.9375,40.0625,0
74230,-6.875,-20.1875,41.25,0
74250,-2.875,-22.8125,41.125,0
74270,-4.75,-24.125,42.125,0
74290,-9.875,-27.3125,44.875,0
74310,-9.375,-29.5625,43.5625,0
74330,-6.5625,-34.9375,41.8125,0
74350,-5.6875,-38.375,40.75,0
74370,-8.875,-39.875,40.5,0
74390,-8.25,-40.25,40.0625,0
74410,-6.125,-42.6875,37.5,0
74430,-5.375,-44.1875,34.9375,0
74450,-2.3125,-43.9375,33.5625,0
74470,-5.625,-41.3125,30.9375,0
74490,-6.25,-40.5,29.5625,0
74510,-3.75,-41.8125,27.4375,0
74530,0.125,-39.375,23.25,0
74550,-2.375,-38.8125,21.75,0
74570,-3.4375,-39.75,18.3125,0
74590,0.75,-41.0625,13.8125,0
74610,-0.25,-41.0625,9.8125,0
74630,-1.5,-41.4375,5.375,0
74650,-1.3125,-43.4375,2,0
74670,-4.9375,-45.375,-0.625,0
74690,-8.6875,-45.0625,-4.625,0
74710,-11.3125,-45.625,-9.375,0
74730,-5.6875,-49.25,-11,0
74750,-8.375,-51.3125,-14.75,0
74770,-12.3125,-49.8125,-17.4375,0
74790,-16.8125,-46.25,-17,0
74810,-16.5,-43.9375,-17.5625,0
74830,-10.0625,-44.0625,-21.4375,0
74850,-6.5625,-39.25,-23.4375,0
74870,-10.0625,-32.6875,-26.0625,0
74890,-13.125,-28,-27.75,0
74910,-6.875,-26.3125,-29.0625,0
74930,-1.5,-21.75,-33.8125,0
74950,-2.0625,-16.5625,-36.8125,0
74970,-3.4375,-16.3125,-35.4375,0
74990,-4.5,-18.9375,-34.9375,0
75010,-0.5,-19.25,-35.25,0
75030,-7.375,-15.375,-34,0
75050,-9.5,-16.875,-31.6875,0
75070,-7.0625,-15.625,-28,0
75090,-8.875,-13.5625,-27.75,0
75110,-7.1875,-12.9375,-25.25,0
75130,-10.6875,-12.125,-22.25,0
75150,-9.625,-10,-20.6875,0
75170,-6.75,-9.8125,-19.625,0
75190,-8.9375,-9,-17.875,0
75210,-3.375,-10.125,-17.5,0
75230,-0.375,-10.25,-17.9375,0
75250,-2.0625,-10,-17.75,0
75270,-0.125,-11.5,-15.8125,0
75290,-1.6875,-11.625,-14.375,0
75310,1.1875,-9.25,-13.8125,0
75330,1.3125,-10.0625,-10.75,0
75350,0.1875,-11.9375,-6.25,0
75370,5.875,-16.5,-5.3125,0
75390,7.1875,-16.6875,-0.625,1001
75410,1.1875,-15.375,4.8125,0
75430,2,-16.0625,8.125,0
75440,5.5625,-15.4375,9.1875,0
75470,6.4375,-15.125,6.6875,0
75480,7.25,-12.875,7.3125,0
75500,-1.125,-7.375,9.375,0
75520,1.8125,-4.5625,7.8125,0
75540,6.3125,-5.875,5.25,0
75560,6.3125,-5.6875,2,0
75580,2.8125,-4.8125,-0.0625,0
75600,3.4375,-5.625,-0.1875,0
75620,4.3125,-4.375,-1.0625,0
75640,3.75,-2.3125,-1.4375,0
75660,4.3125,-3.4375,-0.9375,0
75680,6.0625,-5.9375,0.875,0
75700,6.1875,-6.1875,0.8125,0
75720,8.4375,-3.375,-2.25,0
75740,8.125,0.6875,-2,0
75760,5.9375,5.4375,3.5,0
75780,8.375,7.9375,6.375,0
75800,11.5,9.5625,2.4375,0
75820,11.75,14.5625,2.9375,0
75840,13.375,19.1875,4.8125,0
75860,18.6875,20.25,5,0
75880,26.75,22.1875,4.1875,0
75900,28.9375,24.6875,6.9375,0
75920,25.875,29.1875,9.6875,0
75940,31.8125,36.25,14.0625,0
75960,37,38.375,13.4375,0
75980,41.9375,39.375,12.8125,0
76000,34.5,49.0625,22.125,0
76020,42.8125,57.75,23.75,0
76040,50.9375,60.5,18.0625,0
76060,53.625,64,18.875,0
76080,44.625,70.8125,29.3125,0
76100,48.75,79.5625,30.75,0
76120,61,83.1875,21.5625,0
76140,65.4375,87.9375,18.6875,0
76160,61.0625,98.0625,29,0
76180,63.4375,101.375,35.625,0
76200,67.4375,99.0625,33,0
76220,68.625,102.188,31,0
76240,63.0625,111.75,41.8125,0
76260,54.1875,115.5,46.1875,0
76280,61.4375,107.438,36.5625,0
76300,58,100.062,34.5625,0
76320,45.6875,91.4375,34.25,0
76340,41.5,82,23.375,0
76360,39.3125,70.125,15.4375,0
76380,30.125,58.375,11.4375,0
76400,20.0625,49.75,9.375,0
76420,14.375,41.3125,9.4375,0
76440,9.6875,32.75,10.75,0
76460,6,22.625,11.4375,0
76480,3.1875,17.1875,14.1875,0
76500,-3.4375,19.875,17.1875,0
76520,-6.125,22.1875,19.25,0
76540,-8.75,18.9375,18.9375,0
76560,-5.3125,14,17,0
76580,-2.125,12,13.0625,0
76600,1.0625,11.6875,7.25,0
76620,3.25,7.125,5.0625,0
76640,3.6875,2.875,5.875,1000
76660,2.3125,2.3125,2.6875,0
76680,-1.875,3,0.4375,0
76700,-3.875,1.0625,5.25,0
76720,-4.75,1.5,5.0625,0
76740,-4.625,1.875,3.25,0
76760,-4.8125,0.3125,3.5,0
76780,-5.4375,-3.4375,4.3125,0
76800,-6.375,-3.75,3.4375,0
76820,-5.5,-2.4375,2.375,0
76840,-4.3125,-3.25,1.75,0
76860,-5.8125,-6.0625,1.9375,0
76880,-6.3125,-5.6875,3,0
76900,-5.125,-3,2.0625,0
76920,-3.3125,-1.625,2.5,0
76940,-3.125,-2.8125,2.0625,0
76960,-6.625,-0.5,2.875,0
76980,-6.875,3.3125,4.375,0
77000,-6.5625,1.875,5.8125,0
77020,-5.5,-1.5625,8.5625,0
77040,-4.75,-1.4375,11,0
77060,-4.4375,-3.4375,13.5,0
77080,-0.5,-8.9375,15.4375,0
77100,2.25,-13.0625,15.875,0
77120,4.5625,-14.6875,17,0
77140,4.125,-16.5625,18.6875,0
77160,4.5,-18,17.1875,0
77180,5.125,-18.9375,15.6875,0
77200,9,-19.9375,16.3125,0
77220,11,-21,14.1875,0
77240,9.3125,-20.8125,11.125,0
77260,7.6875,-21.875,11.4375,0
77280,5.5,-21,13.125,0
77300,3.625,-24.3125,12.4375,0
77320,3.375,-26.9375,11.25,0
77340,0.5625,-23.625,11.9375,0
77360,-0.875,-19,9.9375,0
77380,0.8125,-17.1875,6.4375,0
77400,3.9375,-16.75,3.3125,0
77420,4,-14.75,-1.3125,0
77440,3.125,-12.5625,-5.375,0
77450,1.3125,-13.75,-4.0625,0
77470,-3.1875,-12.875,-4.75,0
77490,-6.25,-11.5625,-5.25,0
77510,-9.6875,-8.6875,-7.9375,0
77530,-11.5,-7.875,-8.3125,0
77550,-16.5625,-6.6875,-9.6875,0
77570,-21.0625,-1.25,-14.625,0
77590,-20.3125,2.25,-14.875,0
77610,-23.75,5.3125,-18.25,0
77630,-29.1875,7.125,-19.1875,0
77650,-30.875,11.125,-22.4375,0
77670,-25.125,14.4375,-26.125,0
77690,-24.8125,16.125,-29.6875,0
77710,-28.125,17.125,-31.4375,0
77730,-32.5625,18.375,-32.0625,0
77750,-29.625,19.9375,-33.4375,0
77770,-26,21.3125,-37.1875,0
77790,-27.75,20.875,-36.8125,0
77810,-30.375,21.4375,-39.25,0
77830,-31.625,21.75,-37.625,0
77850,-29.0625,21.5,-37.5625,0
77870,-29.125,19.625,-38.875,0
77890,-31.6875,19.875,-37.375,0
77910,-34.5625,20.25,-36.1875,0
77930,-35.625,22.3125,-35.5,0
77950,-35.25,25.125,-35.4375,0
77970,-34.875,27.0625,-36.8125,0
77990,-33.0625,30.8125,-38.3125,0
78010,-32.375,33.0625,-40.9375,0
78030,-31.375,35.125,-45.125,0
78050,-31.5,34.875,-48.9375,0
78070,-29.75,34.625,-53.875,0
78090,-31.8125,34.625,-59.3125,0
78110,-33.25,34.3125,-62.875,0
78130,-31.25,35,-65,0
78150,-28.8125,34.8125,-67.75,0
78170,-27.9375,33.5,-69.625,0
78190,-27.6875,32.9375,-68.4375,0
78210,-25.875,32,-65.625,0
78230,-25,32,-62.875,0
78250,-25.125,31.5,-59.8125,0
78270,-25.3125,29.5,-56.8125,0
78290,-25.5,26.125,-52.625,0
78310,-25.5625,23.5625,-49.25,0
78330,-25.75,20,-43.625,0
78350,-25.8125,18.8125,-38.9375,0
78370,-26.0625,16.625,-37.25,0
78390,-26.4375,13.5,-27.5,0
78410,-24.25,12.5,-25,0
78430,-21.1875,12.75,-26.5,0
78450,-17.375,12,-24.3125,0
78470,-13.125,14.5625,-20.0625,0
78490,-9.25,16.9375,-18.875,0
78510,-5,14.3125,-17.5,0
78530,-2.9375,13.125,-14.4375,0
78550,-2,13.625,-11.125,0
78570,-1.3125,13.625,-9.4375,0
78590,-1.25,10.9375,-5.9375,0
78610,2.75,7.9375,-1.8125,0
78630,11.875,0.125,-2.8125,0
78650,7,-2.75,2.875,0
78670,5.625,-5.5625,9.6875,0
78690,9.6875,-10.0625,11.6875,0
78710,14.3125,-15.9375,15.5,0
78730,13.5,-12.375,19.4375,0
78750,9.875,-8.8125,25.625,0
78770,13.5625,-11.375,27.625,0
78790,16.9375,-15.25,26.375,0
78810,14.6875,-12.5,29.3125,0
78830,12.6875,-6.625,32.125,0
78850,16.0625,-8.5,33.875,0
78870,14,-10.9375,34.625,0
78890,13.3125,-11.1875,35.125,0
78910,14.625,-10.5,35.5,0
78930,11.3125,-11.4375,35.5625,0
78950,2.1875,-13.5625,37.1875,0
78970,1.9375,-16.5625,37,0
78990,5.3125,-17.6875,37.375,0
79010,2.375,-18.3125,36.125,0
79030,5.5625,-20.1875,35.375,0
79050,2.6875,-23.25,34.625,0
79070,6.125,-25.9375,36.5625,0
79090,11,-29.0625,36.9375,0
79110,10.8125,-30.0625,35.3125,0
79130,8.4375,-30.3125,35.875,0
79150,8.5,-32.375,37.75,0
79170,9.4375,-33,38,0
79190,13.8125,-32.75,37.5625,0
79210,11.1875,-32.8125,38.6875,0
79230,9.8125,-32.625,40.5,0
79250,6.6875,-33.375,41.6875,0
79270,4.5625,-33.25,41.5625,0
79290,6.5625,-33.0625,41.5625,0
79310,7.1875,-32,40.75,0
79330,4.8125,-32.9375,41.4375,0
79350,6.1875,-32.75,40,0
79370,8.1875,-31.1875,39.1875,0
79390,4.625,-31.1875,39.125,0
79410,8,-31.25,38.5,0
79430,9.3125,-31.6875,36.125,0
79450,10.4375,-31.625,37,0
79470,4.9375,-32.375,38.8125,0
79500,1.5,-32.625,36.0625,0
79520,2.8125,-33.25,37.1875,0
79540,2.9375,-34.75,35.125,0
79560,5.5,-37,31.75,0
79580,4.9375,-37.4375,29.4375,0
79600,6.125,-37.25,25.25,0
79620,9.125,-39.8125,20.25,0
79640,9.125,-42.625,16.375,0
79660,6.1875,-41.125,10.0625,0
79680,9.3125,-42.375,7.875,0
79700,10,-43.3125,6.4375,0
79720,8.5625,-42.25,-0.9375,0
79740,6.25,-40.625,-5.0625,0
79760,2.4375,-39.3125,-8.625,0
79780,-1,-37,-12,0
79800,-2.6875,-36.4375,-16.6875,0
79820,-4,-31.25,-20.875,0
79840,-7.1875,-26.125,-21.875,0
79860,-6.5625,-25.875,-24.3125,0
79880,-9.3125,-26.8125,-27.4375,0
79900,-10.9375,-22.0625,-28.625,0
79920,-14.6875,-15.1875,-25.3125,0
79940,-17.875,-12.125,-25.5625,0
79960,-18.4375,-9.25,-27.0625,0
79980,-19.5625,-8.3125,-28,0
80000,-25.4375,-4.5625,-30,0
80020,-25.4375,0.0625,-30.9375,0
80040,-25.125,3.0625,-33.875,0
80060,-23,5.5,-35.375,0
80080,-21.1875,6.25,-37.3125,0
80100,-23.1875,5.75,-39.8125,0
80120,-28.125,9.75,-40.3125,0
80140,-27.375,14,-40.25,0
80160,-25.25,12.0625,-42.75,0
80180,-26.3125,10.625,-44.3125,0
80200,-28.1875,11,-45.875,0
80220,-27.3125,11,-46.9375,0
80240,-29.3125,11,-46.5,0
80260,-31.4375,11.0625,-47.8125,0
80280,-31.25,13.8125,-49.6875,0
80300,-29.4375,13.5625,-50.625,0
80320,-27.5625,12.875,-51.5625,0
80340,-29.8125,14.25,-51.0625,0
80360,-31,17,-48.25,0
80380,-29.75,18.625,-46.75,0
80400,-28.0625,19.1875,-47.625,0
80420,-26.9375,18.125,-48.6875,0
80440,-26.6875,18.875,-48.875,0
80460,-26,21.4375,-47.4375,0
80480,-25.5625,23.125,-45.9375,0
80500,-25.8125,22.625,-46.1875,0
80520,-24.1875,22.25,-46.125,0
80540,-23,22.875,-46.0625,0
80560,-23.25,23.5,-44,0
80580,-24.125,24.1875,-42.5,0
80600,-21.8125,22.875,-42.625,0
80620,-22.25,23.9375,-40.25,0
80640,-22.4375,24.4375,-39.125,0
80660,-23.3125,25.3125,-34.625,0
80680,-20.125,26.25,-33.3125,0
80700,-19.0625,28.0625,-31.625,0
80720,-17.0625,28.625,-27.5,0
80740,-16.4375,27.625,-21.9375,0
80760,-15.8125,28.4375,-17.8125,0
80780,-17.25,28.75,-15.5,0
80800,-13.3125,28.3125,-11.0625,0
80820,-11.625,28.6875,-6.625,0
80840,-11.875,26.4375,-5.25,0
80860,-10.625,26.3125,-1.5,0
80880,-13.125,30.4375,3.75,0
80890,-9.125,29.6875,6,0
80910,2.8125,25,4.3125,0
80930,3.625,28.375,6.0625,0
80950,3.5625,33.6875,9.9375,0
80970,10.25,30.4375,10.875,0
80990,12.75,28.5625,14.875,0
81010,16.3125,27.5,15.3125,0
81030,20.625,21.75,16.625,0
81050,21.75,15.5625,18.0625,0
81070,19.0625,11.875,22.4375,0
81090,16.8125,7.875,25.4375,0
81110,17.125,3.5625,27.8125,0
81130,18.0625,3.5625,28.4375,0
81150,14.75,2.1875,29,0
81170,18.9375,-1.75,30.25,0
81190,21.625,-4.6875,32.4375,0
81210,21.625,-4.9375,33.625,0
81230,18.875,-5.75,36.9375,0
81250,16.8125,-8.125,38.5625,0
81270,13.5,-9.8125,37.875,0
81290,15.5,-9.8125,38.625,0
81310,15.8125,-11.4375,39.6875,0
81330,16.9375,-12.9375,38.9375,0
81350,15.5625,-14.625,40.5625,0
81370,15.9375,-14.75,41.3125,0
81390,15.8125,-16,40.8125,0
81410,15.75,-17,42.5,0
81430,14.3125,-17.4375,44.4375,0
81450,14.1875,-18.9375,43.6875,0
81470,11.1875,-19.6875,43.625,0
81490,10.25,-19.8125,44.5,0
81510,9.9375,-22.375,45.5,0
81530,13.0625,-23.4375,44.75,0
81550,10.125,-23.0625,44.625,0
81570,7.4375,-24.125,46.8125,0
81590,6.75,-25,45,0
81610,8.125,-25.6875,43,0
81630,10.0625,-25.875,41.5,0
81650,8.9375,-26.1875,41.125,0
81670,5.3125,-27.875,40.25,0
81690,3.5625,-27.8125,39.1875,0
81710,4.125,-28.625,39.8125,0
81730,3.75,-30.3125,39.8125,0
81750,5.75,-30.6875,36.8125,0
81770,4.5,-30.1875,36.75,0
81790,-0.375,-31.4375,37.25,0
81810,-0.5625,-33.9375,36.4375,0
81830,3.8125,-34.5625,34.25,0
81850,1.875,-33.9375,31.8125,0
81870,-1.6875,-35.3125,31.625,0
81890,-2.0625,-38.4375,28.625,0
81910,2,-40.5,24.1875,0
81930,4.5,-41.0625,20.4375,0
81950,1.8125,-43.6875,16.8125,0
81970,2.375,-46.3125,10.125,0
81990,0,-45.625,4.25,0
82010,2.4375,-44.125,-2.3125,0
82030,2.1875,-43.5625,-8.125,0
82050,-5.375,-42.6875,-11.9375,0
82070,-9.3125,-39.5625,-14.75,0
82090,-11.5625,-36.0625,-18.3125,0
82110,-11.125,-32.5,-23.1875,0
82130,-15.625,-30.0625,-24.0625,0
82150,-18.9375,-28.5,-24.4375,0
82170,-19.125,-30.4375,-28.0625,0
82190,-22.875,-30.5,-30.125,0
82210,-26,-28,-30,0
82230,-27.8125,-26.375,-30.5,0
82250,-26.375,-25.3125,-34.125,0
82270,-28.75,-23,-35.9375,0
82290,-28.875,-22.9375,-38.9375,0
82310,-27.75,-21.5,-40.8125,0
82330,-29.6875,-19,-42.125,0
82350,-32.6875,-17.25,-43.5,0
82370,-32.375,-17,-45.75,0
82390,-28.875,-14.625,-47.1875,0
82410,-30.25,-12.25,-47.375,0
82430,-38.375,-9.375,-45.8125,0
82450,-38.625,-5.4375,-48.0625,0
82470,-31.75,-3.9375,-52.3125,0
82490,-32.6875,-2.625,-53.75,0
82510,-38.5625,0.75,-54.5,0
82530,-38.9375,5.125,-58,0
82550,-33.625,7.875,-58.5625,0
82570,-38.9375,9.25,-58.3125,0
82590,-42.375,9.9375,-57.1875,0
82610,-40.4375,13,-60.0625,0
82630,-39.3125,18.75,-57.6875,0
82650,-44.3125,25.0625,-52.6875,0
82670,-42.8125,27.5625,-52.9375,0
82690,-37.75,29.375,-52.3125,0
82710,-37.8125,34.875,-50.9375,0
82730,-36.9375,37.5,-48.5625,0
82750,-35.3125,39.0625,-45,0
82770,-31,38.9375,-42.8125,0
82790,-31.5,41.5,-39.9375,0
82810,-33.625,45.1875,-37,0
82820,-26.5625,46.375,-34.3125,0
82850,-22.3125,49.5625,-31,0
82870,-24.5625,57.25,-25.6875,0
82890,-18.375,58,-19.5,0
82900,-4.9375,54.5625,-18,0
82920,-0.6875,52.5625,-15.8125,0
82940,-1.9375,58.125,-8.4375,0
82960,2.4375,53.6875,-0.625,0
82980,4.375,48.5,2.375,0
83000,3.125,46.8125,6.4375,0
83020,6.375,47.5,10.8125,0
83040,4.3125,51.5,14.3125,0
83060,8.9375,45,15.5,0
83080,14.75,42.125,14.5,0
83100,12.1875,43.75,15.3125,0
83120,16.375,39.6875,15.8125,0
83140,9.9375,33.0625,17.375,0
83160,10.6875,29.4375,16.4375,0
83180,10.5,26.9375,16.5,0
83200,6.1875,26.25,20.625,0
