Timestamp, Rotation x, Rotation y, Rotation z, Marker
20,-1.5,-0.3125,1.8125,0
50,-1,-0.25,2.125,0
70,-0.875,-0.375,2.5625,0
90,-2.1875,-0.5625,2.8125,0
110,-2.9375,-0.875,2.4375,0
130,-3.6875,-0.625,1.875,0
140,-2.8125,-0.375,1.25,0
140,-0.4375,-0.4375,0.5,0
180,1.3125,-0.125,-0.375,0
200,2.1875,-0.125,-0.5625,0
220,1.6875,-0.5,-0.25,0
240,-0.5625,-0.8125,0.125,0
260,-7.5625,-4.6875,3.625,0
280,-14.1875,-11.9375,3.9375,0
300,1.8125,-15.125,-9.875,0
320,35.25,-27.4375,-12.5625,0
340,54.9375,-39.6875,-14.875,0
360,40.375,-53.25,-35,0
380,19.6875,-70.0625,-42.375,0
400,10.1875,-84.6875,-49.5625,0
420,17.9375,-101.938,-67.1875,0
440,26.1875,-121,-83.75,0
460,19,-144.062,-98.5,0
480,-1.9375,-165.875,-104.125,0
500,-33.25,-193.188,-107.125,0
520,-48.4375,-207.062,-115.688,0
540,-65.875,-224.438,-130.875,0
560,-75.3125,-232.188,-137.938,0
580,-80.75,-237.625,-140.5,0
600,-82.0625,-232.25,-138.312,0
600,-75.875,-226.312,-136.875,0
620,-73.3125,-210.812,-135.062,0
660,-60.0625,-198,-130.625,0
680,-52.875,-196.312,-116.5,0
700,-40.5,-194.938,-111.438,0
720,-37.75,-180.062,-102.438,0
740,-29.8125,-165.625,-98.25,0
760,-29,-154.375,-88.0625,0
780,-20.9375,-149.562,-73.0625,0
800,-14.4375,-138.688,-59.3125,0
820,-14.875,-123.125,-53.3125,0
840,-17.4375,-112.938,-48.375,0
860,-10.75,-103.312,-43,0
880,-2.75,-93.625,-41.6875,0
900,1.625,-90,-39.375,0
920,0.3125,-84.625,-37.5,0
940,-1.875,-76.375,-37.375,0
960,-4.5,-71.75,-29.6875,0
980,2.6875,-65.1875,-23.5,0
1000,6.75,-53.375,-21.375,0
1020,-0.0625,-42.6875,-17.25,0
1040,-2.25,-36.25,-14.4375,0
1060,5.4375,-30.875,-14.375,0
1080,8,-23.25,-14.9375,0
1100,3.625,-18.4375,-13.3125,0
1120,4.5,-16.8125,-11.625,0
1140,6.125,-16.375,-9.125,0
1160,5.3125,-17.8125,-6.125,0
1180,5.75,-18.0625,-3.75,0
1200,8,-19.75,-3.1875,0
1220,7.0625,-23.0625,-2.375,0
1240,6.625,-23.875,-1.75,0
1260,11,-25.25,-2.5,0
1280,9.5625,-22.5625,-4.125,0
1300,5.1875,-18.25,-6.6875,0
1320,3.4375,-16.25,-5.375,0
1340,4.25,-7.625,-4.6875,0
1360,1.6875,2.3125,-3,0
1380,2.6875,4.25,0.625,0
1400,0.4375,2.625,0.4375,0
1420,4.75,2.3125,0.3125,0
1440,1.6875,5.3125,-1.6875,0
1450,-1.125,5,-0.9375,0
1470,1.8125,4.6875,1.375,0
1490,2.6875,6.875,0.5,0
1510,0.1875,5,-1.9375,0
1530,-1.5,0.8125,-3.6875,0
1550,-2.1875,-1.5625,-5.25,0
1570,-3.0625,-2.1875,-6.125,0
1590,-3.0625,-1.5625,-4.3125,0
1610,-3,-0.9375,-1.625,0
1630,-3.4375,1.0625,0.1875,0
1650,-2.375,3.0625,3.5,0
1670,-4.125,1.9375,5.625,0
1690,-7.75,-3.3125,9,0
1710,-7.1875,-8.4375,12.625,0
1730,-5.125,-9.375,10.625,0
1750,-6.1875,-7,8.25,0
1770,-4.875,-7.1875,8.5,0
1790,-3.0625,-9.625,7.9375,0
1810,0,-7.6875,5.125,0
1830,2.625,-4.375,1.0625,0
1850,3.875,-2.3125,-0.5,0
1870,7,-3.0625,-0.375,0
1880,7.9375,-4,-2.5,0
1900,7.125,-5.125,-2.5625,0
1920,7.625,-7.3125,0.875,0
1940,10.5,-7.625,3.5,0
1960,10.3125,-5.1875,6.375,0
1980,10,-4.3125,7.6875,0
2000,11.375,-5,6.875,0
2020,14.5625,-3.9375,6.875,0
2040,11.6875,-5.0625,2.75,0
2060,13.3125,-13.0625,-0.75,0
2080,12.1875,-16.875,-6.625,0
2100,4.6875,-16.375,-12.3125,0
2120,1.9375,-14.6875,-12.25,0
2140,0.4375,-8.8125,-10.5,0
2160,-0.75,-8,-7.6875,0
2180,0.1875,-4.25,-1.3125,0
2200,1.1875,-3.0625,1.0625,0
2220,0.125,-4.0625,2.375,0
2240,-1.25,-3.9375,0.0625,0
2260,-2.75,-2.9375,0.125,0
2280,-4,-2.5,1.0625,0
2300,-4.9375,-2.5625,2.8125,0
2320,-7.9375,-4.5625,3.1875,0
2340,-14.1875,-4.9375,2.25,0
2360,-22.6875,-3.9375,-2.5,0
2380,-26.0625,-3.125,-3.625,0
2400,-25.6875,1.375,3.875,0
2420,-21.25,8.9375,14.5625,0
2440,-13.5,21.1875,17.3125,0
2460,-17.9375,44.875,5.25,0
2480,-22.625,69.1875,-2.5,0
2500,-17.75,92.1875,3.25,0
2520,-7.125,117.312,14.0625,0
2540,3,142.25,29.125,0
2560,18.875,164.188,44.75,0
2580,32.3125,186.438,64.625,0
2600,37.75,213.812,87.875,0
2620,54.4375,238.188,100.312,0
2640,70.9375,263,102.812,0
2660,77.1875,284.125,106.188,0
2680,75.5,294.562,112.688,0
2700,64.25,296.438,112.625,0
2720,64.3125,290.375,102.125,0
2740,54.625,267.188,92.25,0
2760,32.375,238.812,95.3125,0
2780,8.375,210.75,106.062,0
2800,-13,185.062,105.75,0
2820,-15.6875,154.438,112.062,0
2840,-26.8125,150.438,124,0
2860,-22.3125,141.25,121.562,0
2880,-21.875,123.562,102.312,0
2900,-28.4375,108.625,86.8125,0
2920,-26.8125,102.062,91,0
2940,-15.875,94.75,88.25,0
2960,-21,88.8125,78.875,0
2980,-23.875,81.1875,75.375,0
3000,-22.9375,75.4375,66.875,0
3020,-12.875,69.1875,54.0625,0
3040,-6,66.1875,43.625,0
3060,0.4375,62.3125,38.4375,0
3080,4.25,57.8125,35.9375,0
3100,2.25,55.3125,29.75,0
3120,-1.1875,50.5,26.8125,0
3140,-5.6875,46.8125,23.75,0
3160,-13.25,35.5625,22.75,0
3180,-21.625,9.6875,21,0
3200,-28.9375,-10.9375,21.3125,0
3220,-19.5,-17.6875,16.3125,0
3240,6.9375,-12.6875,8.4375,0
3260,21.375,-4.1875,4.375,0
3280,21.8125,5.8125,4.375,0
3300,14.1875,13.0625,3.375,0
3320,12.125,16.5,5.75,0
3340,3.875,14.5,7.6875,0
3360,0.75,8.4375,7.25,0
3380,4.625,0.125,5.3125,0
3400,9.25,-3.375,4.625,0
3420,13.0625,0.4375,11,0
3440,7.5625,1.3125,15.125,0
3460,-0.6875,1.875,15.75,0
3480,-6.6875,2.375,14.1875,0
3500,-7.0625,2.875,13.0625,0
3520,-3.1875,0.75,8.125,0
3540,1.0625,0.3125,7.5,0
3560,4.1875,0.0625,6.625,0
3580,3,0.4375,6.0625,0
3600,-1.5,0.25,5.0625,0
3620,-2.875,-0.1875,5.25,0
3640,-3.3125,0.4375,5,0
3660,-3.5,1.0625,4.5625,0
3680,-4,1,3.9375,0
3700,-4.5,0.4375,3.5,0
3720,-3.75,0.125,2.25,0
3740,-2.125,-0.125,0.8125,0
3760,-0.9375,0.375,-0.125,0
3780,-0.0625,0.5625,-0.125,0
3800,-0.375,0.0625,0.1875,0
3820,-0.8125,-0.3125,0.625,0
3840,0.1875,-0.6875,0,0
3860,1.4375,-0.6875,-0.9375,0
3880,1.625,-0.3125,-1.5625,0
3900,1.5625,-0.25,-1.8125,0
3920,1.3125,-0.125,-2.4375,0
3940,0.9375,-0.25,-3,0
3960,1.8125,-0.5625,-3.125,0
3980,2.125,-1.0625,-3.0625,0
4000,1.375,-1,-2.9375,0
4010,-0.0625,-1.125,-2.5625,0
4030,-0.4375,-1.3125,-2.125,0
4050,-0.5,-1.3125,-2.25,0
4070,0.4375,-1.25,-2.25,0
4090,1.4375,-1.5625,-1.6875,0
4110,0.8125,-1.5625,-1.0625,0
4130,-0.375,-1.8125,-0.0625,0
4150,-0.5,-1.5625,0,0
4170,-0.1875,-1.0625,0.1875,0
4190,-0.3125,-1.25,0.375,0
4210,-0.5,-1.6875,0.75,0
4230,-0.625,-2.125,1,0
4250,0,-2.0625,0.375,0
4270,0.625,-1.875,-0.3125,0
4290,0.75,-1.6875,-0.4375,0
4310,0.8125,-1.4375,0.3125,0
4330,1.125,-1.625,0.5625,0
4350,1.4375,-2.25,0.125,0
4370,1.125,-2.125,0,0
4390,1,-1.8125,0.125,0
4410,0.5625,-1.375,0.25,0
4430,-0.0625,-1.5,0.25,0
4450,0.25,-1.5625,0.125,0
4470,0.4375,-1.3125,-0.0625,0
4490,0.125,-1.25,0,0
4510,-0.8125,-1.5625,0.375,0
4530,-0.8125,-1.1875,0.4375,0
4550,-0.8125,-1.3125,1,0
4570,-0.8125,-1.25,1.125,0
4590,-1.625,-1.0625,0.6875,0
4610,-1.4375,-1.0625,0.5,0
4630,-0.9375,-1.5625,0.625,0
4650,-0.25,-1.5625,1.125,0
4670,-0.6875,-1.375,1.0625,0
4690,-2.1875,-1.5,1.1875,0
4710,-0.9375,-1.3125,0.5625,0
4730,-0.0625,-1.1875,0.8125,0
4750,0.1875,-0.9375,1.375,0
4770,-1.5,-0.6875,1.875,0
4790,-2.4375,-0.4375,1.5,0
4810,-2.375,-0.25,1.1875,0
4830,-1.75,0.375,0.6875,0
4850,-1.375,0.1875,1.125,0
4870,-2.1875,-0.0625,1.5,0
4890,-2.125,-0.0625,0.8125,0
4910,-2.125,-0.1875,0.1875,0
4930,-1.4375,-0.0625,0,0
4950,-0.875,-0.125,0,0
4970,-0.4375,-0.375,0.0625,0
4990,0.8125,-0.5,-0.3125,0
5010,0.8125,-0.9375,-0.625,0
5030,0.75,-0.875,-0.25,0
5050,0.125,-0.6875,0.0625,0
5070,-0.8125,-0.6875,-0.125,0
5090,-0.8125,-1.1875,-0.0625,0
5110,0.1875,-0.9375,-0.0625,0
5130,1.0625,-0.6875,-0.3125,0
5150,0.875,-0.875,-0.3125,0
5170,0.0625,-1,0,0
5190,-0.8125,-0.4375,0.0625,0
5210,-0.3125,-0.375,0.3125,0
5230,0.5,-1.125,0.5625,0
5250,0.5,-0.9375,0.125,0
5270,0.375,-0.625,0.0625,0
5290,0,-0.4375,0.4375,0
5310,-0.625,-0.3125,1,0
5330,-1.375,0,0.875,0
5350,-2,0.125,1.0625,0
5370,-2.25,0.125,1.375,0
5390,-2.1875,0.375,1.3125,0
5410,-1.375,0.3125,0.8125,0
5430,-1.0625,0.3125,0.5,0
5450,-0.375,0,0.1875,0
5470,-0.25,-0.1875,0.375,0
5490,0.375,0.3125,-0.3125,0
5510,-0.0625,-0.0625,-0.5625,0
5530,-1,-0.5625,0.4375,0
5550,-0.25,-0.4375,0.5,0
5570,-1,-0.75,0.6875,0
5590,-0.375,-0.3125,0.3125,0
5610,0.25,-0.0625,-0.4375,0
5630,0.125,-0.0625,0.0625,0
5650,-0.125,-0.3125,0.1875,0
5670,-1.125,-0.375,0.125,0
5690,-2,-0.1875,0.6875,0
5710,-2.6875,-0.25,1.4375,0
5730,-3.5625,-0.5,1.875,0
5750,-4.375,-0.4375,2.0625,0
5770,-3.4375,0.5,1.6875,0
5790,-2,1.0625,0.25,0
5810,-1.25,0.3125,-2,0
5830,-0.3125,-0.5,-1.9375,0
5850,0.125,-0.125,-2.6875,0
5870,-0.625,0.3125,-3.1875,0
5890,-0.25,0.625,-4,0
5910,0.1875,0.125,-5.1875,0
5930,1.9375,-0.1875,-5.625,0
5950,3.875,-0.5,-6.25,0
5970,6,-0.375,-7.5,0
5990,6.875,1,-8.1875,0
6010,7.375,1.625,-7.0625,0
6030,6.3125,1.5625,-5.4375,0
6050,4.3125,0.75,-3.6875,0
6070,1.4375,-0.9375,-2.4375,0
6090,-0.875,-1.625,-0.75,0
6110,-5.125,-1.3125,0.6875,0
6130,-8.3125,-0.625,1.3125,0
6150,-9.6875,-0.375,0.625,0
6170,-7.6875,-0.375,0.4375,0
6190,-6.25,-0.5,1.125,0
6210,-7.1875,-0.3125,2.3125,0
6230,-8.75,0,2.6875,0
6250,-8.875,0.125,2.875,0
6270,-6.5,0.0625,1.375,0
6290,-4.0625,-0.5,0.9375,0
6310,-0.6875,-0.625,0.75,0
6330,0.0625,-1.375,1.1875,0
6350,1.5625,-2.125,0.6875,0
6370,2.5625,-2.25,-0.125,0
6390,3.6875,-2.5625,-0.125,0
6410,3.875,-4.125,0.0625,0
6430,4.5625,-5.625,0,0
6450,5.75,-5.625,-1.25,0
6470,5.375,-4.25,-3.625,0
6490,2.875,-2.75,-5.125,0
6510,0.9375,-3.1875,-6.6875,0
6530,1.875,-5.3125,-7.625,0
6550,7.0625,-5.75,-7.8125,0
6570,18.8125,-4.5625,-9.25,0
6580,22.9375,-4.0625,-8.75,0
6600,19,-2.125,-4.0625,0
6620,12.3125,-2.0625,-2.6875,0
6640,8.25,-1.3125,-2.8125,0
6660,6.75,-0.25,-0.6875,0
6680,5,-1,1.125,0
6700,2.375,-1.4375,2.75,0
6720,-0.6875,0.625,4.125,0
6740,-1.6875,2.1875,5.125,0
6760,-3.9375,1.75,7,0
6780,-6.4375,0.0625,9.5,0
6800,-9.5625,-1.6875,12.875,0
6820,-9.6875,-2.9375,17.9375,0
6840,-9.4375,-2,18.0625,0
6860,-15.0625,-1.75,15.6875,0
6880,-21.5,-4.3125,14.75,0
6900,-20.375,-7.375,13.4375,0
6920,-12.75,-7,8,0
6940,0.0625,-6.6875,2.3125,0
6960,11.8125,-4.5,-1.1875,0
6980,23.1875,-0.4375,-7.9375,0
7000,29.6875,0.3125,-14.625,0
7020,32.875,0.25,-14.9375,0
7040,39.125,1.5625,-17.4375,0
7060,42.25,2.75,-33.125,0
7080,45,-7.5625,-21.5,0
7100,27.1875,-5.5625,-1.5,0
7120,2.875,2.25,2.0625,0
7140,-21.0625,1.0625,6.9375,0
7160,-30.75,-0.375,16.25,0
7180,-32.375,-2.6875,21.0625,0
7200,-29.75,-4.625,20.75,0
7220,-21.5,-6.75,17.8125,0
7240,-14.5625,-6.625,11.875,0
7260,-10.75,-3.8125,6.75,0
7280,-7.0625,-1.125,3.3125,0
7300,-1.75,-0.5,0.375,0
7320,5.625,-1.3125,-3.3125,0
7340,11.625,-1.9375,-6.3125,0
7360,15.375,-2.25,-7.4375,0
7380,14.125,-1.8125,-6.9375,0
7400,9.75,-1.125,-5.8125,0
7420,6.4375,-0.8125,-4.9375,0
7440,5.3125,-0.75,-4,0
7460,5.25,-1.1875,-3.1875,0
7480,5.375,-1.875,-2.375,0
7500,3.9375,-2.125,-1.25,0
7520,1.625,-1.0625,0.25,0
7540,-2.625,0.6875,2.5,0
7560,-7.5625,1.3125,4.375,0
7580,-13,1.625,5.5625,0
7600,-16.6875,2.0625,5.375,0
7620,-15.125,2.1875,3.875,0
7640,-11.4375,1.5625,1.25,0
7660,-6.8125,1.125,-2.375,0
7680,0.6875,2.125,-5.9375,0
7700,10.3125,1.4375,-8.375,0
7720,19.5,0.125,-9.125,0
7740,24.1875,-0.6875,-8.75,0
7760,24.875,-1.5625,-6,0
7780,18,-2.375,-1.25,0
7800,7.0625,-1.9375,3.625,0
7820,-6.0625,-1.25,7.25,0
7840,-16.875,-2.3125,10.875,0
7860,-28.4375,-4.3125,12.875,0
7880,-32.5,-9.6875,23.0625,0
7900,-42.625,-7.625,42.5,0
7920,-43.3125,-1.1875,36.125,0
7940,-45.9375,-3,25.8125,0
7960,-27.8125,0.875,12.9375,0
7980,3.75,1.6875,3.25,0
8000,23,1.375,-2.5,0
8020,25.75,0.9375,-6.625,0
8040,17.125,0.0625,-9.125,0
8060,5.8125,-0.0625,-7.5625,0
8080,-1.25,-1.875,-1.25,0
8100,-3.875,-4.1875,4.625,0
8120,-3.5,-4.1875,4.75,0
8140,-3.3125,-2.4375,1.8125,0
8160,-3.25,-0.375,-0.0625,0
8180,-0.5,0.5625,-1.5625,0
8200,0.875,1.0625,-1.9375,0
8220,1,0.8125,-1.125,0
8240,-2.75,0.6875,0.1875,0
8260,-5.75,1.9375,1.3125,0
8280,-6.125,2,1.0625,0
8300,-5.4375,1.0625,0.875,0
8320,-3.4375,0.625,-0.25,0
8340,-0.875,0.375,-1,0
8360,0.25,-0.375,-0.625,0
8380,-0.8125,-0.5,0,0
8400,-2.1875,-0.5,0.625,0
8420,-2.5625,-0.8125,1.1875,0
8440,-1.5625,-1.25,1.1875,0
8460,-0.375,-1.5,1.375,0
8480,0.375,-1.4375,1.1875,0
8500,-0.1875,-1.4375,1.375,0
8520,-3.0625,-1.125,3.75,0
8540,-4,-0.5,4.4375,0
8560,-3.9375,-1.25,2.6875,0
8580,-1.6875,-2,1.625,0
8600,0.6875,-2.5,1.875,0
8620,1.5,-2.25,1.875,0
8640,0.125,-2.375,1.875,0
8660,-1.1875,-2.0625,1.5625,0
8680,-1,-1.5625,0,0
8700,1.875,-0.3125,-2.25,0
8720,4.5,0.25,-3.6875,0
8740,3.9375,-0.25,-3.3125,0
8760,1.9375,-0.5,-2.9375,0
8780,-0.5,0.375,-3,0
8800,-1.25,0.9375,-2.75,0
8820,-1.625,0.625,-1.875,0
8840,0,0.375,-1.8125,0
8860,1,-0.5625,-1.5625,0
8880,0.8125,-1.5625,-0.0625,0
8900,-0.8125,-3,1.125,0
8920,-2.8125,-3.375,0.8125,0
8940,-1,-2,-0.6875,0
8960,3.0625,-1.75,-1.4375,0
8980,4.8125,-2.5,-0.3125,0
9000,2.5625,-2.75,1.75,0
9020,-1.375,-2.375,3,0
9040,-3.125,-1.5625,2.5625,0
9060,-1.6875,-1.4375,2.5625,0
9080,-0.8125,-1.5,3.1875,0
9100,-1.5,-1.6875,3.5,0
9120,-3.25,-1.3125,2.75,0
9140,-3.5625,-0.0625,1.8125,0
9150,-0.5625,0.125,-0.8125,0
9170,0.125,-0.0625,-0.6875,0
9190,-0.1875,-0.1875,-0.3125,0
9210,-0.4375,0.5,-2.625,0
9230,0,-0.0625,-4.8125,0
9250,0.25,-0.9375,-4.375,0
9270,1.4375,-1.3125,-4.9375,0
9290,2.3125,-1.125,-5.875,0
9310,4.8125,-1.25,-5.875,0
9330,6.9375,-1.3125,-6.1875,0
9350,7.8125,-2.0625,-6.3125,0
9370,7.625,-2.8125,-5.6875,0
9390,6.25,-3.375,-5.8125,0
9410,4.625,-3.125,-4.3125,0
9430,4.875,-2.5,-3.0625,0
9450,5,-2.75,-2.1875,0
9470,3.5,-2.5625,-0.4375,0
9490,1.6875,-2,0.875,0
9510,-2,-1.5625,2.3125,0
9530,-4.375,-0.8125,3.625,0
9550,-4.8125,-1.0625,3.3125,0
9570,-4.5625,-0.9375,3.375,0
9590,-4.4375,-0.875,3.8125,0
9610,-4.8125,-0.5,2.9375,0
9630,-3.3125,-0.4375,2.1875,0
9650,-1.5625,-0.5,1.5625,0
9670,0.125,-0.1875,1.1875,0
9690,0.6875,-0.4375,0.4375,0
9710,0.875,-0.6875,0.4375,0
9730,1.5625,-0.5625,0.125,0
9750,1.8125,-0.5,-0.125,0
9770,1.6875,-1.25,0,0
9790,1.5,-1.1875,-0.0625,0
9810,0.75,-1.3125,0.125,0
9830,0.75,-1.375,0.875,0
9850,0.5625,-1.375,0.5625,0
9870,0.0625,-1.4375,1.3125,0
9890,-0.5625,-1.0625,2.1875,0
9910,-1,-0.6875,2,0
9930,-0.9375,-0.9375,0.8125,0
9950,-0.4375,-1.125,0.875,0
9970,0.25,-0.8125,1,0
9990,-0.375,-0.375,0.8125,0
10010,-0.5625,-0.5625,1.125,0
10030,-0.375,-0.8125,0.5,0
10050,0.5,-1.0625,0.25,0
10070,0.75,-1.125,0.375,0
10090,0.8125,-0.9375,0.375,0
10110,0.6875,-0.8125,0.0625,0
10130,0.75,-1,0.1875,0
10150,1.0625,-0.875,0.25,0
10170,0.9375,-0.8125,0.1875,0
10190,0.6875,-1.1875,0.4375,0
10210,0.25,-1.1875,0.4375,0
10230,0,-0.5,0.5625,0
10250,-0.75,-0.625,0.5,0
10270,-0.375,-0.875,0.5625,0
10290,0.4375,-0.9375,0.375,0
10310,0.5,-0.9375,0.25,0
10330,-0.375,-0.5625,0.5,0
10350,-0.75,-0.375,0.3125,0
10370,-1,-0.875,0.625,0
10390,-0.0625,-1.25,0.5,0
10410,0.25,-1.0625,0.0625,0
10430,-0.0625,-0.9375,0.0625,0
10450,0.0625,-1.1875,-0.1875,0
10470,0.0625,-1.5625,-0.25,0
10490,0.25,-1.0625,-0.125,0
10510,-0.3125,-0.625,0.1875,0
10530,-1.6875,-0.5,0.6875,0
10550,-2.25,-0.625,0.875,0
10570,-0.875,-0.9375,0.4375,0
10590,-0.1875,-1.25,0.5,0
10610,-0.125,-0.25,0.5,0
10630,-1.75,-0.0625,0.3125,0
10650,-2.4375,-0.1875,1,0
10670,-0.8125,-0.3125,0.5,0
10690,0.5,-0.4375,0.25,0
10710,0.4375,-0.5625,0.625,0
10730,-0.0625,-0.625,0.375,0
10750,-0.875,-0.5,0.5625,0
10770,-1,-0.5625,0.8125,0
10790,-0.8125,-0.5,0.9375,0
10810,-0.75,-0.375,0.875,0
10830,-1,-0.4375,0.75,0
10850,-1.1875,-0.5,0.3125,0
10870,-0.875,-0.5,0.125,0
10890,-0.625,-0.4375,0,0
10910,-1,-0.25,-0.0625,0
10930,-0.8125,-0.1875,-0.375,0
10950,-0.8125,-0.1875,-0.5625,0
10970,0.125,-0.375,-0.875,0
10990,0.5625,-0.5625,-0.875,0
11010,0.25,-0.5,-1,0
11030,-0.8125,-0.5,-0.75,0
11050,-0.9375,-0.6875,-0.625,0
11070,-0.9375,-1.125,-0.625,0
11090,0.375,-1,-0.4375,0
11110,1,-1.25,-1.0625,0
11130,2.0625,-0.25,-2.4375,0
11150,1.375,-0.125,-2.0625,0
11170,-0.375,-0.125,-0.5,0
11190,-1.625,0.25,0.6875,0
11210,-3.8125,0.625,0.75,0
11230,-4.1875,0.0625,0.125,0
11250,-3.5,-0.375,-0.4375,0
11270,-2.5,-0.25,-1.1875,0
11290,-1.6875,-0.3125,-1.6875,0
11310,-1.0625,-0.125,-2.1875,0
11330,-0.8125,0.0625,-2.5,0
11350,-0.4375,-0.375,-2.25,0
11370,0.0625,-1.1875,-1.9375,0
11390,0.8125,-1.0625,-2.625,0
11410,0.8125,-1.25,-3.25,0
11430,-0.375,-1.5625,-3.4375,0
11450,-0.25,-1.5625,-3.5,0
11470,0.25,-1.5625,-2.8125,0
11490,0.1875,-1.875,-2.6875,0
11510,-1,-2,-2.125,0
11530,-0.5,-1.875,-1.875,0
11550,0.1875,-1.8125,-1.875,0
11570,0.125,-1.5625,-1.375,0
11590,-0.1875,-1.5625,-1,0
11610,-0.8125,-1.5,-0.9375,0
11630,-0.625,-1.4375,-0.3125,0
11650,-0.6875,-1.3125,-0.3125,0
11670,-0.8125,-1,-0.1875,0
11690,-1.125,-1.0625,0.0625,0
11710,-0.9375,-1.0625,0.375,0
11720,-0.4375,-1.0625,0.75,0
11740,-0.625,-1.125,0.9375,0
11760,-1.25,-1.125,1.0625,0
11780,-1,-1.1875,0.9375,0
11800,0.5,-1.1875,0.25,0
11820,0.875,-1.3125,0.4375,0
11840,0.1875,-1.0625,1.125,0
11860,-0.5,-0.875,1.75,0
11880,-0.8125,-0.625,1.875,0
11900,-0.625,-1.125,2.375,0
11920,0.375,-0.8125,2.625,0
11940,-0.25,-0.9375,2.75,0
11960,-2.3125,-2.0625,4.5,0
11980,-2.75,-3.9375,7.0625,0
12000,2.6875,-7.1875,6,0
12020,6.625,-9.5625,1.5,0
12040,1.6875,-8.6875,-1.0625,0
12060,-5.875,-11.6875,-4.25,0
12080,-4.875,-12.375,-15.375,0
12100,4.0625,-16.5625,-22.9375,0
12120,18.3125,-20.875,-28.0625,0
12140,27.5625,-23.9375,-34.4375,0
12160,31.125,-28.9375,-39.125,0
12180,25.25,-35.6875,-42.3125,0
12200,17.4375,-40.4375,-41,0
12220,14.8125,-42.875,-37.1875,0
12240,16.5,-45.1875,-36.25,0
12260,11.25,-49.25,-34,0
12280,2.9375,-52.5,-32.125,0
12300,-2.625,-54,-27.9375,0
12320,-5.6875,-56.25,-21.375,0
12340,-12.25,-56.8125,-20.5,0
12360,-13.5625,-54.75,-21.3125,0
12380,-11.9375,-54.5,-25.375,0
12400,-0.75,-58.8125,-23.8125,0
12420,5.1875,-61.1875,-20.1875,0
12440,3.3125,-62.25,-17,0
12460,2.75,-62.3125,-15,0
12480,-1.4375,-61.6875,-9.875,0
12500,-9.0625,-60.375,-4.875,0
12520,-17.125,-58.5625,-4.0625,0
12540,-14.6875,-57,-2.5625,0
12560,-8.625,-55.0625,0.5625,0
12580,-8.125,-54.125,4.125,0
12600,-10.25,-52.6875,4.625,0
12620,-14.6875,-50.5,3.8125,0
12640,-17.4375,-49.5625,3.5625,0
12660,-18.25,-48.1875,2.5625,0
12680,-19.875,-46.8125,3.875,0
12700,-16.875,-43.5625,5,0
12720,-15.5625,-40.625,3.0625,0
12740,-16.1875,-39.1875,0.5625,0
12760,-17.25,-36.4375,-1.3125,0
12780,-16.375,-33.5,-1.6875,0
12800,-13.6875,-29.9375,-2.3125,0
12820,-13,-26.3125,-3,0
12840,-11.375,-23.5,-5.0625,0
12860,-11.375,-20.8125,-7.6875,0
12880,-14,-17.5625,-8,0
12900,-15.375,-14.1875,-8.3125,0
12920,-13.0625,-10.375,-10.1875,0
12940,-10.8125,-7.75,-11.6875,0
12960,-7,-8.1875,-13.25,0
12980,-5.875,-7.875,-16,0
13000,-5.9375,-6.5,-17.25,0
13020,-5.5,-6.125,-17.375,0
13040,-5.3125,-6.75,-16.6875,0
13060,-5.9375,-5.5,-18.4375,0
13080,-4.625,-3.375,-19.1875,0
13100,-3.4375,-3.5,-18.4375,0
13120,-1.625,-4.3125,-18.3125,0
13140,-1.625,-4.5625,-18.4375,0
13160,-3.125,-4,-17.3125,0
13180,-4.25,-5.4375,-15.125,0
13200,-4.625,-8.375,-14.8125,0
13220,-2.4375,-9.25,-13.625,0
13240,-2.0625,-9.125,-12.625,0
13260,-3.625,-9.5625,-11.9375,0
13280,-2.25,-10.8125,-10.625,0
13300,-1.0625,-11.9375,-9.8125,0
13320,0.9375,-11.625,-9.25,0
13340,0.375,-11.375,-7.75,0
13360,1.0625,-12,-5,0
13380,0.8125,-13.3125,-2.375,0
13400,-0.375,-13.125,-0.75,0
13420,0.9375,-13.1875,1.375,0
13440,2.625,-16.5625,4.625,0
13460,1.125,-19.8125,5.3125,0
13480,1.8125,-20.25,5.875,0
13500,2.625,-21.375,6.375,0
13520,2.3125,-21.25,6,0
13540,4,-20.75,5.6875,0
13560,6.6875,-20.5,5.875,0
13580,9.0625,-19.9375,5.8125,0
13600,7.75,-18,5.75,0
13620,2.625,-15,5.4375,0
13640,-0.375,-12.9375,5.3125,0
13660,-1.375,-11.5,3.875,0
13680,-2.8125,-8.3125,2.6875,0
13700,-2.625,-5.375,1.6875,0
13720,-1.9375,-2.625,-0.4375,0
13740,-0.125,-1.0625,-1.75,0
13760,-1.5,0.3125,-3.0625,0
13780,-1,2.0625,-4.6875,0
13800,-2.0625,3.25,-4.8125,0
13820,-3.375,5.625,-4.1875,0
13840,-2.75,7.9375,-4.4375,0
13860,0.3125,8.75,-5.1875,0
13880,1.0625,9.5625,-5.0625,0
13900,0.375,9.0625,-5,0
13920,0.25,8.8125,-5.3125,0
13940,-0.125,8.625,-5.75,0
13960,1.5625,7.9375,-6.1875,0
13980,1.8125,7.8125,-6.375,0
14000,3.875,8.8125,-7.625,0
14020,6.25,8.75,-6.75,0
14040,7.125,8.3125,-6.5,0
14060,5.0625,8.6875,-5.5625,0
14080,3.8125,9.375,-3.5,0
14100,3.6875,8.9375,-1.5625,0
14120,2.125,9,-0.1875,0
14140,1.8125,8.6875,0.75,0
14160,0.6875,8.4375,1.875,0
14180,1.4375,7,2.125,0
14200,1.4375,5.125,2.3125,0
14220,2.4375,3.375,1.875,0
14240,3.1875,1.375,1.5625,0
14260,3.625,-1.125,1.1875,0
14280,3.5,-3.0625,1.1875,0
14290,2.75,-4.4375,0.875,0
14310,0.9375,-4.5,0.875,0
14330,0.375,-4.1875,0.5625,0
14350,1,-3.625,-0.125,0
14370,2.0625,-2.375,-0.8125,0
14390,2.25,-0.6875,-2.0625,0
14410,2.5,1.9375,-2.5,0
14430,2.8125,5.1875,-2.25,0
14450,4,9.3125,-2.25,0
14470,7.125,13.375,-3.5,0
14490,10,14.625,-3.0625,0
14510,9.5,15.8125,-3.5625,0
14530,7.125,17.6875,-2.4375,0
14550,5.5625,18.3125,-0.375,0
14570,6.75,18.25,0.3125,0
14590,9.9375,19.125,0.25,0
14610,14.0625,20.1875,1.1875,0
14630,15.0625,23.875,2.3125,0
14650,18.8125,31.6875,4.5625,0
14670,19.25,43.75,8.9375,0
14690,24.75,55.75,15.8125,0
14710,30.4375,61.9375,20.4375,0
14730,29.6875,68.125,21.5625,0
14750,30.4375,71.25,19.25,0
14770,29.625,70.3125,23.5625,0
14790,25.1875,65.375,28.5625,0
14810,23,62.8125,30.3125,0
14830,22.75,58.4375,31.6875,0
14850,19.3125,53.5625,29.0625,0
14870,15.5,48.0625,21.1875,0
14890,14.75,40.3125,15,0
14910,21.125,29.875,11.125,0
14930,25.6875,20.5625,5,0
14950,25.375,11.625,0.875,0
14970,17.5625,2.875,-1.0625,0
14990,9.9375,-5.25,-1,0
15010,3.125,-11.9375,-0.3125,0
15030,-1.875,-17.5,-0.375,0
15050,-6,-22.375,-2.1875,0
15070,-10.5,-26.625,-2.25,0
15090,-13,-29.4375,-1.1875,0
15110,-13.6875,-31.1875,-1.75,0
15130,-13.75,-32.5,-2.625,0
15150,-13.6875,-33.5625,-3.8125,0
15170,-13.375,-34.4375,-3.5,0
15190,-13.0625,-35.0625,-3.0625,0
15210,-12.875,-34.8125,-3.25,0
15230,-13.4375,-34.4375,-2.8125,0
15250,-12.6875,-33.5625,-2.5625,0
15270,-13.25,-32.1875,-2.75,0
15290,-12.25,-30.875,-2.125,0
15310,-10.6875,-28.75,-2.3125,0
15330,-9.0625,-26.75,-1.5,0
15350,-8.375,-24.9375,-0.8125,0
15370,-8.6875,-23.8125,-0.0625,0
15390,-7.4375,-23.0625,-0.1875,0
15410,-7.1875,-22.5,-1.1875,0
15430,-7.875,-22,-2.1875,0
15450,-6.4375,-20.8125,-2.1875,0
15470,-4.8125,-19.25,-1.0625,0
15490,-5.375,-17.8125,-1.0625,0
15510,-6.625,-16.3125,-0.125,0
15530,-6.9375,-14.4375,1.1875,0
15550,-5.8125,-12.6875,1.75,0
15570,-5.4375,-12.75,1.0625,0
15590,-5.8125,-13,0.125,0
15610,-6.9375,-12.5625,-0.3125,0
15630,-8.3125,-12.1875,0.125,0
15650,-8.375,-12.4375,-1.0625,0
15670,-7.0625,-13.5625,-2.9375,0
15690,-5.6875,-14.8125,-3.4375,0
15710,-5.1875,-15.4375,-2.25,0
15730,-6.875,-17.3125,-0.3125,0
15750,-6.8125,-19.75,1.8125,0
15770,-9.5625,-21.875,4.0625,0
15790,-13.75,-24.625,5.9375,0
15810,-18.3125,-26.625,6.125,0
15830,-19.375,-27.75,6.6875,0
15850,-17.5625,-28.4375,7.3125,0
15870,-11.875,-30.5,7.625,0
15890,-8.8125,-31.3125,7,0
15910,-11.6875,-31,5.125,0
15930,-16.625,-31.625,4.8125,0
15950,-19.8125,-34.0625,6.5,0
15970,-19.125,-34.375,5.875,0
15990,-17.125,-33,4.625,0
16010,-15.6875,-33.5625,4.0625,0
16030,-16.9375,-33.1875,4.5625,0
16050,-16.9375,-31.5,5.4375,0
16070,-13.875,-31.4375,5.5,0
16090,-13.5625,-31.25,7.4375,0
16110,-13.5,-28.5625,7.875,0
16130,-12.6875,-26.4375,8.75,0
16150,-12.875,-25.6875,9.25,0
16170,-13.5,-23.4375,6.9375,0
16190,-11.125,-19.9375,6.4375,0
16210,-9.875,-17,4.8125,0
16230,-5.8125,-14.5625,2.875,0
16250,-5.125,-11.875,3.5625,0
16270,-5.8125,-8.9375,4.5,0
16290,-6.25,-9.8125,3.0625,0
16310,-4.9375,-14.3125,3.125,0
16330,-5.0625,-20.125,3.625,0
16350,-7.875,-26,-0.25,0
16370,-8.625,-32.375,-1.3125,0
16390,-13.5,-35.6875,-0.3125,0
16410,-15.8125,-37,1.375,0
16430,-16.3125,-36.0625,1.4375,0
16450,-13.875,-31.5,-0.4375,0
16470,-7.5625,-24.9375,-3.375,0
16490,-1.3125,-19.9375,-3.75,0
16510,-0.75,-14,-3.3125,0
16530,1.9375,-9.1875,-3.4375,0
16550,2.75,-6.8125,-5.125,0
16570,-6,-3.9375,-6.5625,0
16590,-6.1875,-0.5625,-8.3125,0
16610,0.9375,0.0625,-9.25,0
16630,9.4375,-0.9375,-10.3125,0
16650,5.3125,-1,-11.125,0
16670,9.25,-4,-7.5625,0
16690,12.25,-8.375,-8.5,0
16710,11.5,-10.4375,-7.0625,0
16730,-3.6875,-11.9375,0.5625,0
16750,-10.25,-13,6.375,0
16770,-3.125,-15.5625,6.0625,0
16790,-0.125,-25.9375,3.5625,0
16810,6,-37.8125,9.875,0
16830,3.25,-31.875,14.0625,0
16850,-0.0625,-23.3125,5.4375,0
16860,0.6875,-22.0625,-1.5,0
16880,-3.5625,-16.5625,-4.9375,0
16890,-1.9375,-5.375,-9.625,0
16910,-0.5,4.0625,-13.3125,0
16930,0.375,5.6875,-8.3125,0
16950,4.3125,5.25,-2.5,0
16970,-12.1875,5.6875,-3,0
16990,-10.125,3.375,-1.25,0
17010,-6.1875,-1.9375,-2.125,0
17030,-3.875,-2.6875,-5.25,0
17050,-11.625,-6.5,-6.0625,0
17070,-12.375,-13.0625,4.875,0
17090,-7.1875,-7.8125,7.4375,0
17110,-6.3125,2.0625,-5.5,0
17130,-3.5625,14.8125,-18.8125,0
17150,17.0625,17.25,-13.5625,0
17170,32.375,12.9375,-1.625,0
17190,11.5,2.9375,1.5625,0
17210,-20.3125,-4.6875,6,0
17230,-34.3125,-12.9375,8.0625,0
17250,-17.875,-20.5,-17.0625,0
17270,-1.3125,-22.6875,-37.3125,0
17290,15.6875,-37.4375,-27.8125,0
17310,26.0625,-40.6875,-17.75,0
17330,17.4375,-34.875,-14.5625,0
17350,-2.125,-29.625,-22.3125,0
17370,-21.75,-34.4375,-36.5625,0
17390,-21.1875,-41.9375,-36.625,0
17410,-9.375,-36.75,-30.1875,0
17430,-1,-26.375,-36.375,0
17450,2.5625,-26.625,-39.3125,0
17470,-3.8125,-22.4375,-26.75,0
17490,-12.5625,-13.375,-17.8125,0
17510,-17.875,0.8125,-13.3125,0
17530,-6.125,17.6875,-10.0625,0
17550,6.875,21.9375,-16.375,0
17570,7,22.9375,-16.75,0
17590,13.375,6.125,-7.375,0
17610,12.75,1.625,-7.375,0
17630,17.4375,11.125,-15.3125,0
17650,18.8125,7.0625,-14.5625,0
17670,24.4375,-0.9375,-10.625,0
17690,20.3125,2.875,-14.375,0
17710,20.875,7.4375,-17.375,0
17730,19.4375,8.9375,-17.125,0
17750,12.875,6.875,-22.6875,0
17770,17.4375,-1.75,-26.4375,0
17790,21.6875,-5.6875,-20.9375,0
17810,13.5,-3.25,-18.25,0
17830,7.75,2.125,-17.5625,0
17850,11.8125,-1.1875,-8.625,0
17870,14.75,-6.6875,-4.4375,0
17890,9.1875,-4.25,0.0625,0
17910,2.75,1.25,2.875,0
17930,-0.125,5.3125,-1.0625,0
17950,5.4375,9.875,-2,0
17970,6.1875,10.0625,-7.4375,0
17990,4.375,8.375,-9,0
18010,2.5,10.625,-7.1875,0
18030,1.8125,11,-7.6875,0
18050,4.1875,2.9375,-11.9375,0
18070,-2.5,0.1875,-6.4375,0
18090,-8.5,2.0625,0.9375,0
18110,-10.8125,5.6875,1,0
18130,-11.25,7.0625,-3.1875,0
18150,-12.75,3.8125,-1.9375,0
18170,-19.5625,4.1875,1.0625,0
18190,-17,1.6875,-2.5625,0
18210,-13.25,1.625,-8.5625,0
18230,-13.25,1.1875,-7.625,0
18250,-12.5625,1.25,-5.125,0
18270,-8.5625,0.875,-4.3125,0
18290,0.125,-3.125,-8.875,0
18310,1.0625,-4.3125,-11.3125,0
18330,-2.75,-14.5,-12.125,0
18350,-6.875,-14.375,-11.5625,0
18370,-9.9375,-12.125,-12.5,0
18390,-13.1875,-24.125,-2,0
18410,-11.6875,-17.8125,2.6875,0
18430,-23.25,11.5625,-7.875,0
18450,-21.3125,25.75,0.125,0
18470,-8.4375,23.9375,5.3125,0
18490,-1.625,11.6875,6.8125,0
18510,-3.625,5.125,6.0625,0
18530,-6.1875,-3.3125,15.5625,0
18550,-0.3125,-1.5,17,0
18570,8.25,6,11.625,0
18590,9.6875,8.875,2.375,0
18610,14.125,5,-2.3125,0
18630,10.4375,2.9375,-6.375,0
18650,8.125,3.125,-5.75,0
18670,6.375,3.5,-3.0625,0
18690,3.3125,4.0625,-3.8125,0
18710,-0.25,-0.875,-8.8125,0
18730,-8.3125,-12.625,-7.375,0
18750,-13.1875,-19.625,0.75,0
18770,-3.375,-20.125,4.1875,0
18790,-1.75,-21.4375,1.5625,0
18810,-5.4375,-18.625,4.0625,0
18830,-12.5,-12.4375,5.4375,0
18850,-12.4375,-8.625,2.9375,0
18870,-11.75,-11,0.375,0
18890,-4.5,-13,13,0
18910,-3.5,-5.5625,25.75,0
18930,0,-4.4375,23.25,0
18950,-0.75,-5.5625,13.875,0
18970,1.875,-6.5625,8.125,0
18990,1.5,-10.4375,-0.625,0
19010,2.125,-14.875,-3.3125,0
19030,2.6875,-19.25,-0.875,0
19050,1.5,-23.25,2.625,0
19070,-3.5625,-21.5625,5.5,0
19090,-5,-17.75,7,0
19110,-6,-14.3125,5.3125,0
19130,-5.25,-8.8125,4.75,0
19150,-5.625,-6.9375,5.9375,0
19170,-4.6875,-7.0625,7.875,0
19190,-4,-5.125,8.4375,0
19210,-5.3125,-2.375,4.8125,0
19230,-5.625,1.5,1.875,0
19250,-4.375,0.6875,-0.875,0
19270,-4.5,0.9375,-2.8125,0
19290,-3.875,3.625,-2.625,0
19310,-3.9375,5.125,-4.5625,0
19330,-3.9375,7.875,-4.4375,0
19350,-4.3125,9.4375,-2.0625,0
19370,-4.125,8.1875,-0.625,0
19390,-4.3125,5.8125,-0.0625,0
19410,-9.5,5.875,2.6875,0
19420,-7.5625,4.5625,7.3125,0
19440,-6.375,0.875,5.125,0
19460,-6.25,0,2.9375,0
19480,-5.125,0.125,3.125,0
19500,-1.8125,-0.4375,0.4375,0
19520,0.5625,0,-4.875,0
19540,-0.625,0.3125,-5.5,0
19560,-0.4375,0.1875,-3.375,0
19580,-0.875,-1.125,-2.8125,0
19600,-1.3125,-1.375,-1.875,0
19620,-3.125,0.3125,-0.0625,0
19640,-1.1875,0.125,0.9375,0
19660,-0.8125,0,2.25,0
19680,-2.375,1.0625,2.75,0
19700,-0.5,1.5,1.3125,0
19720,1.875,1.9375,1.6875,0
19740,1.625,1.0625,1,0
19760,0.9375,1.375,1.3125,0
19780,-0.375,3.125,0.1875,0
19800,1.8125,2.8125,0.0625,0
19820,2.5625,1.125,1.25,0
19840,-0.625,0.5625,1.5625,0
19860,-1.0625,-0.25,1.8125,0
19880,-0.5625,-0.875,1.875,0
19900,-0.4375,-0.8125,1.5,0
19920,0.4375,-0.75,1.625,0
19940,-0.6875,-0.75,2.6875,0
19960,-1.625,-1.5625,2.125,0
19980,-2.125,-2.1875,0.5625,0
20000,-0.8125,-2.0625,-0.625,0
20020,-0.625,-2.9375,-2.9375,0
20040,-1.8125,-1.9375,-3.4375,0
20060,-0.3125,-1.875,-1.9375,0
20080,-0.625,-1.3125,-2.5625,0
20100,-2.5625,-0.6875,-2.125,0
20120,-3.5625,-0.5625,1,0
20140,-2.625,-1.8125,2.0625,0
20160,-2.375,-1.5625,1.6875,0
20180,-3.25,-0.8125,0.4375,0
20200,-1.9375,-0.125,-1.1875,0
20220,-0.8125,0,-3,0
20240,0.625,-0.5625,-2.0625,0
20260,-0.25,-0.125,-1.5625,0
20280,-1.25,1.25,-0.3125,0
20300,-1.5625,2.125,-1.375,0
20320,-1.375,1.8125,-2.5,0
20340,-0.8125,2.8125,-1.4375,0
20360,0.6875,3.5625,-0.9375,0
20380,0.75,1.875,-1.25,0
20400,-0.625,1.0625,-2.5625,0
20420,-2.3125,1.1875,-4.6875,0
20440,-2,0.9375,-4.9375,0
20460,-0.5625,1.3125,-5.0625,0
20480,0.375,1.75,-6,0
20500,-0.75,3.125,-7.6875,0
20520,-2,3.375,-8.125,0
20540,-0.9375,2.6875,-8.5625,0
20560,-1.5625,1.5,-9.1875,0
20580,-2.1875,1.375,-8.9375,0
20600,-2.125,0.5625,-8.9375,0
20620,-3.6875,-0.4375,-9.3125,0
20640,-4.4375,0.6875,-9,0
20660,-2.75,1.9375,-9.75,0
20680,-3.25,2.125,-10.3125,0
20700,-5.1875,1.875,-9.6875,0
20720,-6.375,3.3125,-10.1875,0
20740,-5.625,3.75,-11.3125,0
20760,-4.0625,2.375,-12.625,0
20780,-6,3.6875,-12.625,0
20800,-5.5625,6.3125,-11.5,0
20820,-3.875,7.5,-12.375,0
20840,-7.375,6.5625,-14.375,0
20860,-7.625,7.125,-12.25,0
20880,-4.4375,8.375,-10.3125,0
20900,-6.3125,8.0625,-10.6875,0
20920,-7.625,7.5,-9,0
20940,-3.25,7.375,-8.25,0
20960,-1.125,5.5,-6.75,0
20980,-1.3125,3.9375,-2.375,0
21000,-1.5625,3.0625,-0.9375,0
21020,-1.375,2.0625,0.8125,0
21040,2.6875,-0.9375,1.9375,0
21060,4.625,-2.4375,3.875,0
21080,6.75,-3.875,6.75,0
21100,7.4375,-7.375,11.75,0
21120,7.0625,-10.625,13.0625,0
21140,5,-11,11.875,0
21160,6.1875,-10.75,11.625,0
21180,4.625,-13.4375,13.875,0
21200,7.6875,-19.125,18.25,0
21220,4.125,-13.4375,17.5625,0
21240,4.125,-12.375,16.8125,0
21260,1.1875,-12.3125,16.5,0
21280,1.75,-11.9375,13.9375,0
21300,3.5625,-10.8125,11.0625,0
21320,6.1875,-11.0625,9.0625,0
21340,5.375,-10.25,8.8125,0
21360,2.8125,-6.875,8.375,0
21380,3.3125,-4.8125,5.875,0
21400,3,-4.3125,3.5,0
21420,1.3125,-1.6875,3.25,0
21440,2.25,0.8125,2.6875,0
21460,2.5625,1.1875,2.5,0
21480,0.75,1.5625,2.6875,0
21500,1.5,4,2.25,0
21520,-0.375,5.25,2.25,0
21540,-1.25,5.3125,2.125,0
21560,-2,4.8125,2.0625,0
21580,-2.25,4.75,2.1875,0
21600,-0.625,3.5,1.6875,0
21620,-1.875,2,-0.25,0
21640,-2.375,1.5625,-0.625,0
21660,-2.0625,1.25,-0.1875,0
21680,-1,1,-2.1875,0
21700,-3,0.5625,-3.375,0
21720,-3.375,1.5,-3.5625,0
21740,-1.0625,0.375,-3.5625,0
21760,-1.1875,-0.5,-4.25,0
21780,-4.4375,0.8125,-2.625,0
21800,-3.3125,2.0625,-1.4375,0
21820,-2.25,0.1875,-2.375,0
21840,-4,-0.4375,-1.625,0
21860,-4.375,0.375,-0.625,0
21880,-4.5625,0.6875,-0.875,0
21900,-1.25,0.75,0.875,0
21920,-2.375,2.625,3.0625,0
21940,-1.4375,3.0625,0.125,0
21960,-2.875,5,-5.25,0
21980,-2.5625,6,-2.625,0
21990,1.6875,4.3125,-0.5625,0
22010,4.5,3.0625,-3.3125,0
22030,1.9375,4.125,-2.5,0
22050,-1.5625,5,1.25,0
22070,0.0625,3.5,2.5,0
22090,0.4375,2.5625,3.25,0
22110,-2.8125,3.0625,5.8125,0
22130,-3.375,1.9375,5.6875,0
22150,0.75,1.0625,3.625,0
22170,1.625,-0.3125,1.0625,0
22190,0.1875,-0.5,0.4375,0
22210,0,0.0625,0.5,0
22230,0.3125,-0.75,-1.4375,0
22250,1.1875,-1,-1.6875,0
22270,-2.125,0.75,-3.4375,0
22290,-0.25,-0.375,-4.625,0
22310,-1.75,0.3125,-6.75,0
22330,-2.25,1.5625,-6,0
22350,-2.0625,2.3125,-6.625,0
22370,-1.125,4.1875,-6.75,0
22390,-2.75,3.8125,-7.25,0
22410,-4.375,4.0625,-7.5,0
22430,-5.3125,5.25,-8.5,0
22450,-4.25,5.5,-11.3125,0
22470,-4.5,4.5,-10.4375,0
22490,-6.5625,4.75,-9.3125,0
22510,-5.5,6.8125,-9.25,0
22530,-3.6875,7.4375,-10.75,0
22550,-6,6.875,-10.25,0
22570,-6.75,7.1875,-8.125,0
22590,-6.4375,6.875,-9.75,0
22610,-5.875,5.6875,-11.5625,0
22630,-6.25,5.6875,-10.75,0
22650,-2.1875,7,-12.25,0
22670,-2.25,6.375,-12.3125,0
22690,-3.9375,4.5,-10.3125,0
22710,1.875,4.5,-10.1875,0
22730,5.8125,4.4375,-10.9375,0
22750,5.25,2.3125,-9.375,0
22770,2.75,0.4375,-7.875,0
22790,3.375,-2.5625,-5.3125,0
22810,4.5,-5,2.5625,0
22830,3.0625,-6.75,7.5,0
22850,3,-10.0625,8.8125,0
22870,0.875,-13.75,12.125,0
22890,-3.375,-13.5625,15.0625,0
22910,5.9375,-15.75,15.5,0
22930,7.1875,-12.375,12.8125,0
22950,6.9375,-10.5,15.6875,0
22970,7.5,-10.75,18.4375,0
22990,9.625,-10.3125,16,0
23010,13.0625,-7,15.1875,0
23030,14.5625,-5.5,12.6875,0
23050,16.1875,-7.4375,10.125,0
23070,12.9375,-5.9375,8,0
23090,11.625,-3.75,7.375,0
23110,10.375,-4.875,7.6875,0
23130,5.8125,-5.0625,7.5,0
23150,-0.375,-2.5,7.875,0
23170,-2.625,-2.875,9.3125,0
23190,-1.5625,-5.125,8,0
23210,-0.5,-3.1875,7.3125,0
23230,1.25,0.875,3.4375,0
23250,0.375,1.8125,0.3125,0
23270,-0.8125,2.625,1.875,0
23290,-1.1875,4.375,2.9375,0
23310,-2,5.8125,1.75,0
23330,-2.6875,7,0.6875,0
23350,-2.375,8.5,-0.5625,0
23370,-3.25,8.9375,-0.875,0
23390,-3.875,9.1875,-0.0625,0
23410,-3.8125,10.1875,0.875,0
23430,-4.5,11.8125,1.6875,0
23450,-7.25,11.1875,3.5625,0
23470,-10.9375,8.8125,4.125,0
23490,-9.6875,8.25,3.8125,0
23510,-9.125,7,3.6875,0
23530,-5.9375,5.875,2.0625,0
23550,-7.125,5.9375,0.8125,0
23570,-5.6875,5.3125,0.1875,0
23590,-6.125,5.25,0.9375,0
23610,-5.25,4.375,-0.3125,0
23630,-4.8125,3.75,-0.875,0
23650,-4.1875,3.0625,-1.25,0
23670,-3.4375,2.875,-0.5625,0
23690,-3.4375,2.875,-0.875,0
23710,-3.0625,3.6875,-3.25,0
23730,-3.625,3.6875,-3.5625,0
23750,-3.3125,3.5625,-0.9375,0
23770,-2.125,4.5625,1.75,0
23790,1.25,5.75,1.9375,0
23810,1.5,3.4375,2.0625,0
23830,-1.4375,3.0625,-1,0
23850,-4.25,3.125,-2.5625,0
23870,-2.125,2.3125,-4.25,0
23890,1.8125,-0.375,-2.5625,0
23910,3.75,-0.25,-1.375,0
23930,1.625,0.6875,-1.5625,0
23950,-3.125,1.3125,-0.9375,0
23970,-3.8125,1.5625,1.5,0
23990,-2.25,0.9375,2.9375,0
24010,-2,1.5,2.8125,0
24030,-0.8125,3.3125,0.6875,0
24050,-0.0625,4,-1.5,0
24070,-0.8125,3.6875,-0.75,0
24090,-0.125,3.5625,0.0625,0
24110,-0.8125,4.8125,-1.625,0
24130,-3.5,5.3125,-2.1875,0
24150,-2.25,4.4375,-3,0
24170,-1.375,5.1875,-5.1875,0
24190,-2.4375,6.625,-4.125,0
24210,-5.9375,8,-3.8125,0
24230,-4.4375,9.375,-4.875,0
24250,-3.4375,9.4375,-7.5,0
24270,-3.4375,10.0625,-7.375,0
24290,-4.75,10.4375,-8.3125,0
24310,-4.375,10,-8.625,0
24330,-4.5625,9.375,-8.5625,0
24350,-6.625,9.25,-7.75,0
24370,-10.375,7.5,-6.5625,0
24390,-10.625,7.5,-7.75,0
24410,-9.375,8,-10.3125,0
24430,-7.4375,8.375,-11.25,0
24450,-10.4375,9,-11,0
24470,-9.75,10.625,-11.5625,0
24490,-6.5625,10.5,-12.875,0
24510,-4.625,10.4375,-13.875,0
24530,-4.625,9.875,-15.25,0
24550,-4.375,8,-13.1875,0
24560,-1.3125,6.75,-11.25,0
24580,-2.625,4.625,-9.375,0
24600,-2.5,3.125,-5.625,0
24620,1.25,0.5625,-3.5,0
24640,5.9375,-3.75,-3.25,0
24660,4.0625,-9.5,0.75,0
24680,5.0625,-15.1875,10.375,0
24700,4.375,-19.8125,11.9375,0
24720,0.4375,-21.9375,13.0625,0
24740,0.5625,-22.0625,14.125,0
24760,2.4375,-21.8125,14.3125,0
24780,7.1875,-22.4375,15.5625,0
24800,8.6875,-18.375,14.75,0
24820,6.375,-14.125,12.875,0
24840,4.375,-8.25,13.875,0
24860,2.5,-4.625,12,0
24880,3,-0.75,11.375,0
24900,4.8125,2.375,9.4375,0
24920,3.8125,5.6875,10.375,0
24940,2.125,9.8125,10.5625,0
24960,-0.8125,10.875,8.125,0
24980,-3.6875,9.0625,7.5625,0
25000,-8.875,6.6875,10,0
25020,-9.1875,5.125,9.25,0
25040,-6.875,4.625,7.5,0
25060,-7.1875,4.8125,5.4375,0
25080,-6.75,5.9375,3.6875,0
25100,-5.75,7.6875,2.8125,0
25120,-1.25,8.0625,0,0
25140,-0.1875,8.1875,-2.5,0
25160,-4.8125,9,-1.3125,0
25180,-7.125,10.625,-0.3125,0
25200,-5,11.375,-1.6875,0
25220,-5.0625,10.875,-2.5,0
25240,-6.375,11.1875,-2.0625,0
25260,-5.9375,11.5,-1.875,0
25280,-6.875,10.1875,-0.4375,0
25300,-8.9375,9.5625,-0.4375,0
25320,-8.0625,10,0,0
25340,-7.4375,8,0.5,0
25360,-6.1875,7.1875,0.0625,0
25380,-6.5,7.6875,-0.4375,0
25400,-6.25,6.375,-1.6875,0
25420,-4.9375,4.125,-1.9375,0
25440,-2.8125,2.25,-1.9375,0
25460,-1.375,1,-3,0
25480,-2.5625,-0.25,-2.75,0
25500,-0.8125,-1.9375,-1,0
25520,-1.75,-2.0625,-2.75,0
25540,-1.3125,-0.25,-0.0625,0
25560,1.125,-1.125,1.25,0
25580,0.375,-0.75,1.75,0
25600,0.3125,0.9375,1.8125,0
25620,0.375,2.25,1.875,0
25640,1,2.25,3.4375,0
25660,3.875,2.0625,1.9375,0
25680,2.8125,2.5,0.4375,0
25700,2.3125,2.875,2.4375,0
25720,1.0625,3.0625,2.8125,0
25740,4.0625,4.5,1.8125,0
25760,3.4375,5.125,-0.1875,0
25780,1.1875,3.75,0.3125,0
25800,0,3.75,1,0
25820,1.5625,5,-0.25,0
25840,1.5625,4.625,-1.125,0
25860,1.4375,4.75,-3,0
25880,0.875,4.9375,-3.875,0
25900,0.9375,5.6875,-4.5,0
25920,1.5,5.0625,-5.875,0
25940,-0.25,4.625,-6.25,0
25960,-1.875,4.4375,-5.625,0
25980,-3.875,3.8125,-5.6875,0
26000,-2.1875,3.8125,-8.25,0
26020,-2.3125,3.6875,-10.1875,0
26040,-0.125,4.25,-11.0625,0
26060,1.5,3.8125,-12.8125,0
26080,-0.375,3.25,-12.3125,0
26100,-5.375,3.9375,-11.3125,0
26120,-4.4375,4.75,-11.75,0
26140,-2.5,4.5625,-11.5625,0
26160,-3.75,3.8125,-9.3125,0
26180,-5.625,4.1875,-6.875,0
26200,-6.0625,4.375,-6.8125,0
26220,-6.125,3.625,-5.875,0
26240,-1.75,2.875,-5.25,0
26260,1.0625,1.6875,-5.4375,0
26280,3.875,0.625,-5,0
26300,3.3125,-1.0625,-4.125,0
26320,4.875,-3,-0.25,0
26340,6,-5.125,2.6875,0
26360,5.4375,-7.8125,3.0625,0
26380,2.8125,-8.25,5.1875,0
26400,0.1875,-11.375,8.1875,0
26420,4.25,-12.875,10.6875,0
26440,4.875,-12,10.6875,0
26460,4.75,-10.125,11.3125,0
26480,0.6875,-11,13.125,0
26500,2.8125,-9.8125,12.5625,0
26520,5.6875,-7.75,10.8125,0
26540,5,-5.6875,10.125,0
26560,0.1875,-5.25,9,0
26580,0.4375,-5.375,9.5625,0
26600,4.0625,-4.4375,8.125,0
26620,3.4375,-4.125,8.3125,0
26640,-2.3125,-3.25,8.125,0
26660,-4.5,-2.25,7.5625,0
26680,-2.3125,-2.9375,8.1875,0
26700,-2.5625,-4,7.875,0
26720,-3.625,-2.9375,7.125,0
26740,-2.875,-2,5.3125,0
26760,0,-1.625,4.3125,0
26780,1.875,-1.5625,3.25,0
26800,-1,-1.25,3.0625,0
26820,-4.0625,-0.0625,2.4375,0
26840,0.25,1.25,1.4375,0
26860,2.6875,1.25,-1.125,0
26880,-0.9375,2.1875,-1,0
26900,-3,3.25,0.25,0
26920,-2.875,3.875,-1.5625,0
26940,-1.625,4.9375,-2.4375,0
26960,-0.25,4.8125,-1.375,0
26980,-1,4.8125,-2.625,0
27000,-4.8125,6.1875,-4.1875,2000
27020,-4.375,5.8125,-1.8125,0
27040,-6.5625,5.3125,-1.4375,0
27060,-8.125,6,-0.1875,0
27080,-9.4375,7.6875,-0.375,0
27100,-6.75,8.3125,-0.75,0
27120,-5.625,8.1875,-1.9375,0
27140,-5.5,8.125,-0.0625,0
27150,-6.875,8.75,0.9375,0
27170,-3.5625,7.625,-0.1875,0
27190,-1.0625,8.125,-1,0
27210,-1.375,6.375,-0.375,0
27230,-2.1875,5,0.5,0
27250,0.625,3.8125,-0.9375,0
27270,2.375,3,-2.4375,0
27290,4.1875,1.1875,-1.0625,0
27310,5.875,1.625,-1.75,0
27330,4.5625,1.5,-1.4375,0
27350,2,-0.375,0,0
27370,2.1875,-0.3125,-1.625,0
27390,2.75,-1,-1.3125,0
27410,3.0625,-1.375,-1.6875,0
27430,3.75,-1.3125,-3.6875,0
27450,3.8125,-2.5,-4.4375,0
27470,4.875,-2.5,-3.3125,0
27490,7.375,-2.625,-3.0625,0
27510,7.5,-3.5,-5,0
27530,4.125,-3.875,-6.125,0
27550,0.1875,-4.8125,-6,0
27570,3.0625,-4.5,-7.9375,0
27590,3.3125,-4.6875,-9.5,0
27610,2.8125,-4,-7.8125,0
27630,1.1875,-1.5625,-9.1875,0
27650,1.625,-0.5,-12,0
27670,2.0625,-0.75,-11.5625,0
27690,-0.9375,0.5,-10.375,0
27710,-0.9375,1.9375,-11.8125,0
27730,-2.75,1.8125,-12.875,0
27750,-5.9375,1.1875,-11.8125,0
27770,-6.1875,1.8125,-11.625,0
27790,-4.4375,3.5625,-14.25,0
27810,-5.25,3.4375,-13.6875,0
27830,-9.25,4.3125,-13.5,0
27850,-10.3125,8.0625,-15.5625,0
27870,-6.375,8.875,-16.75,0
27890,-7.4375,10.625,-15.6875,0
27910,-11.625,13.125,-15.5625,0
27930,-9.9375,14.8125,-16.875,0
27950,-6.5625,15.9375,-20,0
27970,-8.3125,16.25,-18.9375,0
27990,-10.3125,16.9375,-16.375,0
28010,-9.5,17.4375,-19.25,0
28030,-9.1875,17.375,-18.8125,0
28050,-10.9375,17.5,-17,0
28070,-10.75,18.75,-18.5625,0
28090,-8.8125,18,-20.5625,0
28110,-10.0625,17.1875,-21.875,0
28130,-12.625,17.6875,-20.5,0
28150,-10.375,17.6875,-21.1875,0
28170,-8.875,16.5625,-24,0
28190,-9.3125,15.5625,-24.8125,0
28210,-10.875,14.3125,-25.1875,0
28230,-9.75,13.5,-26.125,0
28250,-10.3125,11.9375,-25.5625,0
28270,-12.25,12,-25,0
28290,-13.125,11.5625,-27.25,0
28310,-12.9375,11.1875,-28.875,0
28330,-9.4375,9.75,-29.6875,0
28350,-10.4375,8.875,-31.4375,0
28370,-11.5,7.875,-31.5,0
28390,-10.875,6.4375,-31.875,0
28410,-10.8125,6.5,-32,0
28430,-12.75,5.6875,-31.125,0
28450,-13.375,5.1875,-31.25,0
28470,-12.8125,4.5625,-30.3125,0
28490,-13.5,4,-28.6875,0
28510,-14.875,4.75,-28.875,0
28530,-13.25,4.5625,-28.125,0
28550,-14,3.6875,-27.375,0
28570,-13.3125,3.5,-26.9375,0
28590,-12.4375,2.1875,-26.4375,0
28610,-13.4375,0.9375,-24.75,0
28630,-13.8125,1.75,-24.375,0
28650,-7.9375,0.75,-24.8125,0
28670,-7,-1.125,-25.6875,0
28690,-8.875,-1.3125,-22.5,0
28710,-10.3125,-2.125,-19.1875,0
28730,-8.3125,-4.8125,-17.6875,0
28750,-10.4375,-6.625,-15.3125,0
28770,-13.75,-8.6875,-9.5,0
28790,-11.1875,-10.5,-7.9375,0
28810,-8,-14,-6.8125,0
28830,-7.625,-16.4375,-2.75,0
28850,-10.0625,-18.8125,0.3125,0
28870,-10.625,-21,3.1875,0
28890,-7.25,-23.125,6.4375,0
28910,-4.9375,-24.125,9.75,0
28930,-3.625,-24.4375,11.875,0
28950,-2.4375,-25,14.4375,0
28970,-1.5,-25.4375,15.75,0
28990,1.625,-24.875,18.125,0
29010,6.125,-24.0625,18.5625,0
29030,8.625,-22.5,19.125,0
29050,10.875,-22.125,22.125,0
29070,11.125,-21.625,23.5625,0
29090,10.8125,-20.6875,24.125,0
29110,11.3125,-20.8125,25.6875,0
29130,13.3125,-20.5,26.125,0
29150,14.875,-19.9375,26.5,0
29170,16.9375,-20,28.0625,0
29190,14.8125,-20.8125,28.25,0
29210,11.9375,-22.625,28.875,0
29230,11.8125,-24.1875,30.8125,0
29250,13.375,-24.8125,30.625,0
29270,12.9375,-26.5625,30.9375,0
29290,13.4375,-27,30.375,0
29310,12.1875,-27.625,30.375,0
29330,12.3125,-27.75,30.5,0
29350,13.125,-27.75,30,0
29370,11.875,-27.375,31,0
29390,10.125,-27.0625,31.375,0
29410,9.875,-27,29.9375,0
29430,10.25,-27.1875,29.75,0
29450,9.625,-27.5625,30.5625,0
29470,6.0625,-27.5625,30.8125,0
29490,1.5625,-27.625,29.5625,0
29510,-1.875,-28.4375,31.4375,0
29530,-3.6875,-29.5625,30.75,0
29550,-3.5625,-30,28.0625,0
29570,-4.875,-30.0625,26.6875,0
29590,-1.875,-28.6875,21.75,0
29610,-0.1875,-28.0625,17.875,0
29630,0.625,-27.625,14.375,0
29650,2.875,-27.0625,9.6875,0
29670,3.5625,-26.1875,3.5,0
29690,-2.5,-26.375,0.875,0
29710,-6.125,-24.5625,-2,0
29730,-4.9375,-22.375,-6.4375,0
29740,-0.75,-20.8125,-9.9375,0
29760,-3.75,-19.6875,-10.5625,0
29780,-5.9375,-17.4375,-12.1875,0
29800,-6.3125,-15.25,-16.875,0
29820,-4.625,-15.125,-17.9375,0
29840,-5.5,-13.5,-18.25,0
29860,-10,-10.25,-20.9375,0
29880,-10.375,-9.0625,-22.5625,0
29900,-9.9375,-7.1875,-24.4375,0
29920,-13.375,-2.3125,-26.1875,0
29940,-11.6875,-0.25,-27.375,0
29960,-9.8125,1.625,-31.3125,0
29980,-12.125,4.1875,-33.0625,0
30000,-20.0625,5.6875,-30.25,0
30020,-17.25,7.9375,-33.5,0
30040,-13.6875,9.9375,-37.3125,0
30060,-17.9375,10.4375,-36.375,0
30080,-22.75,10.5625,-34,0
30100,-18,12.4375,-38.375,0
30120,-19.1875,12.4375,-41.5,0
30140,-19.625,12.375,-39.6875,0
30160,-19.125,13.4375,-40.625,0
30180,-21.125,13.375,-42.5,0
30200,-21.625,12.25,-40.625,0
30220,-20.4375,11.9375,-43.375,0
30240,-17.6875,14.8125,-44.25,0
30260,-16.75,14.9375,-43.1875,0
30280,-23.125,15.5625,-37.625,0
30300,-24.0625,16.4375,-36.5,0
30320,-18.9375,18.6875,-38.3125,0
30340,-17.8125,21.375,-36.4375,0
30360,-18.1875,20.0625,-34.375,0
30380,-16.1875,18.5625,-34.6875,0
30400,-14.5625,20.1875,-33.3125,0
30420,-14.25,20.6875,-30.1875,0
30440,-10.1875,17.5625,-27.375,0
30460,-11.5625,15.6875,-25.375,0
30480,-13.0625,12.8125,-19.875,0
30500,-12,9.1875,-15,0
30520,-8.4375,6.0625,-13.5625,0
30540,-5.8125,3.6875,-11.625,0
30560,-6,1.1875,-5.0625,0
30580,-6,-1.5625,0.125,0
30600,-6.4375,-4.375,5.1875,0
30620,-4.5,-6.625,11.5,0
30640,-3.4375,-8.5625,15.6875,0
30660,-1.4375,-9.75,21,0
30680,1.25,-12.375,25.75,0
30700,3.1875,-13,28.75,0
30720,7,-13.8125,28.0625,0
30740,13.5,-16,26.9375,0
30760,15.9375,-16.8125,30,0
30780,18.625,-17.75,32.125,0
30800,16.9375,-18.5,32.5625,0
30820,15.75,-18.4375,36.5625,0
30840,20.375,-19.4375,37,0
30860,21.125,-20.75,36.4375,0
30880,20,-21.3125,38.6875,0
30900,18.6875,-22.9375,41.625,0
30920,19.875,-24.3125,40.4375,0
30940,21.375,-26.375,38.25,0
30960,19.9375,-29.3125,40.25,0
30980,16.25,-30.1875,41.625,0
31000,14.625,-31.875,41.75,0
31020,11.125,-32.875,41.3125,0
31040,11.1875,-33.6875,40.75,0
31060,12.4375,-34.4375,36.875,0
31080,12.5625,-35.3125,33.75,0
31100,9.5,-36.25,34.125,0
31120,5.5625,-38.5625,34.6875,0
31140,4.5625,-38.0625,29.8125,0
31160,7,-38.5625,22.75,0
31180,7.1875,-39.5,20.625,0
31200,3.75,-38.625,19.125,0
31220,1.125,-36.875,14.0625,0
31240,-1.4375,-35.625,11.25,0
31260,0.5,-33.125,6,0
31280,-0.6875,-28.9375,0.4375,0
31300,0.125,-27.625,-3.3125,0
31320,-2.4375,-26.1875,-8.5,0
31340,-6.4375,-23.375,-13,0
31360,-8.9375,-22,-17,0
31380,-10.375,-19.4375,-20.625,0
31400,-9.75,-14.6875,-26.125,0
31420,-6.5625,-12.6875,-31.5,0
31440,-12.875,-11.125,-32.5625,0
31460,-17.375,-5.875,-31.375,0
31480,-16,-0.375,-39.125,0
31500,-10.875,1.1875,-46.125,0
31520,-18.375,2.5,-43.5625,0
31540,-22.5,6.6875,-42.5625,0
31560,-24.875,10.0625,-46.125,0
31580,-21.3125,10.0625,-46,0
31600,-27.0625,12.0625,-46.8125,0
31620,-27.6875,15.6875,-48.1875,0
31640,-25.9375,16.625,-50.75,0
31660,-24.5625,17.375,-51.4375,0
31680,-25.4375,18.75,-51.0625,0
31700,-21.5,21.5625,-51.875,0
31720,-16.4375,23.9375,-52.625,0
31740,-23.5625,28,-47.125,0
31760,-29.5,33.25,-39.3125,0
31780,-23.25,36.125,-37.75,0
31800,-18.625,36.875,-35.6875,0
31820,-13.8125,36.0625,-32.75,0
31840,-17.625,35.5,-31.1875,0
31860,-14.5,35.25,-28.375,0
31880,-6.9375,33.625,-26.375,0
31900,-5,35.5,-20.75,0
31920,-5.375,34.6875,-13.625,0
31940,-5.25,34.125,-7.75,0
31960,-2.5625,32.25,-3.75,0
31980,-3.25,29.1875,3.1875,0
32000,-3.5,27.5625,10.625,0
32020,2.0625,22.625,13.4375,0
32040,2.625,16.875,16.9375,0
32060,-0.4375,10.75,23.1875,0
32080,-1.8125,3.625,26.4375,0
32100,2.875,-2,30.3125,0
32120,4.875,-8.6875,31.3125,0
32140,3.75,-15.4375,33.25,0
32160,5.75,-18.5625,34.3125,0
32180,10.9375,-21.125,33,0
32200,15,-24.9375,31.9375,0
32220,16.5,-28.375,33.875,0
32240,14.375,-28.9375,34.5,0
32260,14.8125,-30.5,35.6875,0
32280,17.8125,-31.625,36.9375,0
32300,17.375,-33.5625,38.375,0
32310,14.625,-34.8125,38.3125,0
32330,13.3125,-35.0625,39.875,0
32350,14.625,-36.375,38.9375,0
32370,14.6875,-36.375,35.9375,0
32390,11.3125,-37.1875,37,0
32410,8.75,-37.25,37.1875,0
32430,9.125,-37.75,32.6875,0
32450,9.25,-38.625,28.5,0
32470,8.625,-38.1875,24.8125,0
32490,7,-37.875,21.6875,0
32510,8.6875,-35.75,14.5625,0
32530,10.1875,-33.1875,7.75,0
32550,10.5625,-31.3125,5,0
32570,6.4375,-27.75,0.0625,0
32590,7.5,-24.0625,-5.625,0
32610,2.4375,-21.375,-6.25,0
32630,0.3125,-19.1875,-7.4375,0
32650,-4.25,-17.1875,-10.25,0
32670,-9.625,-15.9375,-11.1875,0
32690,-9.8125,-13.875,-12.625,0
32710,-7.375,-12.25,-17.125,0
32730,-8.5,-12.25,-20.875,0
32750,-11.1875,-11.25,-21.6875,0
32770,-12.5625,-9.75,-22.8125,0
32790,-10.6875,-8.375,-24.125,0
32810,-11.4375,-6.75,-24.875,0
32830,-14.8125,-3.625,-23.8125,0
32850,-13.5,-2.1875,-21.9375,0
32870,-12.5,0.1875,-23.4375,2001
32890,-11.875,2.25,-23.75,0
32910,-15.375,3.5,-20.5,0
32930,-12.3125,4.0625,-19.8125,0
32950,-8.75,4.5625,-20.8125,0
32970,-10,4.125,-18.375,0
32990,-9.1875,4.5625,-15.5,0
33010,-8.125,5,-15.8125,0
33030,-7.25,5.75,-15.5625,0
33050,-6.5,5.25,-12.5625,0
33070,-5.75,5.75,-10.3125,0
33090,-3.25,5.4375,-10.8125,0
33110,-3.8125,4.5625,-7.875,0
33130,-2.1875,3.3125,-6.4375,0
33150,0.125,1.6875,-4.6875,0
33170,-2.4375,0.125,-0.75,0
33190,-3.875,-0.6875,0.8125,0
33210,0.0625,-2.6875,-2.375,0
33230,7,-1.9375,-1.5625,0
33250,9.0625,-2.3125,-1.0625,0
33270,7.5625,-0.5,2.625,0
33290,6.125,0.75,3.875,0
33310,2.1875,0.4375,4.4375,0
33330,1.625,0.9375,7.25,0
33350,7.4375,-0.75,5.25,0
33370,10.4375,3.0625,2.25,0
33390,8.1875,3.5,3.4375,0
33410,8.9375,2.25,11.125,0
33430,5.5625,2.875,11.75,0
33450,9.875,1.75,13.125,0
33470,5.9375,0.8125,14.125,0
33490,7.875,2.375,15.125,0
33510,12.75,4.75,13.875,0
33530,19.375,7.125,12.375,0
33550,23.75,13.4375,15.125,0
33570,23.1875,22.5625,19.6875,0
33590,21.1875,31.375,23.375,0
33610,25.1875,34.375,26.375,0
33630,26.9375,41.5,27.125,0
33650,28.1875,51.6875,31.375,0
33670,30.875,54.6875,35.4375,0
33690,31.1875,57.125,35.8125,0
33710,32.5625,63.125,35.5,0
33730,38.75,68.875,39.125,0
33750,37.4375,61.125,47.25,0
33770,41.75,52.8125,55.375,0
33790,37.6875,56.875,54.25,0
33810,29.375,60.5,51.375,0
33830,29.125,53.125,56.4375,0
33850,29.125,43.5625,62.5625,0
33870,33.875,39.9375,57.0625,0
33890,32.875,37.625,53.1875,0
33910,27.1875,33.125,56.6875,0
33930,25.625,25.5625,58.4375,0
33950,28.5625,21.5,49.75,0
33970,32.375,18.625,42.0625,0
33990,35.0625,14.625,46.125,0
34010,33.0625,11.875,44.5625,0
34030,32.125,7.375,33.9375,0
34050,32.9375,5.25,32,0
34070,27.0625,3.6875,40.375,0
34090,27.8125,2.9375,37.25,0
34110,27.25,0.4375,26.9375,0
34130,28.3125,-1.875,26.5625,0
34150,22.1875,-5.0625,29.875,0
34170,23.9375,-5.75,24.1875,0
34190,28.625,-5.8125,19.1875,0
34210,23.875,-7.0625,18.625,0
34230,24.4375,-9.3125,21.5,0
34250,24.9375,-10.75,16.75,0
34270,26.3125,-9,9.9375,0
34290,27.125,-7.3125,11.0625,0
34310,17.3125,-8.625,15.625,0
34330,16.375,-7.375,10.5625,0
34350,10.25,-2.5,3.875,0
34370,6.25,-2.0625,6.25,0
34390,3.0625,-5.375,10.75,0
34410,2.0625,-7.75,11.75,0
34430,-3.6875,-10.5,10.8125,0
34450,-11.375,-12.75,9.625,0
34470,-12.6875,-14.8125,6.625,0
34490,-8.5625,-17,2.125,0
34510,-6.6875,-17.5625,0.9375,0
34530,-7.125,-16.25,1.375,0
34550,-8.25,-15.25,1.4375,0
34570,-6,-14.1875,-2.4375,0
34590,-6.875,-11.4375,-3.6875,0
34610,-10.625,-14.0625,-4.125,0
34630,-12.5625,-17.625,-3.5625,0
34650,-12.1875,-15.3125,-2.625,0
34670,-10.0625,-12.9375,-3.0625,0
34690,-10.6875,-12.375,-4.0625,0
34710,-12.375,-10.125,-1.625,0
34730,-10.8125,-6.6875,3.3125,0
34750,-11.0625,-6.625,2.875,0
34770,-10.75,-5.4375,0.3125,0
34790,-10.0625,-2.625,3,0
34810,-5.3125,-1.625,4.4375,0
34830,-2.5,-1,3.125,0
34850,-6.1875,0.4375,1.1875,0
34870,-11.8125,2.0625,2.5,0
34890,-11.375,0.5625,4,0
34900,-7.625,1.1875,2.6875,0
34920,-4.8125,4.125,0,0
34940,-5.5625,3.3125,0.0625,0
34960,-6.3125,-1.0625,2.0625,0
34980,-5.9375,-2.75,2.3125,0
35000,-2.5625,-2.4375,3.8125,0
35020,0.9375,-5.8125,5,0
35040,-1,-6.75,6.25,0
35060,-5.1875,-5.75,7.875,0
35080,0.0625,-6.3125,6.875,0
35100,4.875,-7.75,4.75,0
35120,2,-5.625,5.8125,0
35140,0.5,-4.125,7.3125,0
35160,-1.625,-4.8125,7.625,0
35180,0.625,-1.25,6.375,0
35200,1.8125,0.75,3.8125,0
35220,1.3125,-0.1875,2.5625,0
35240,1.4375,0,0.0625,0
35260,3.125,1.75,-3,0
35280,3.0625,1.25,-6.1875,0
35300,0.1875,-0.3125,-8.25,0
35320,-0.5625,1.25,-7.875,0
35340,-2.0625,-0.4375,-9.625,0
35360,-4.125,-1.5625,-9.625,0
35380,-4.0625,1.75,-9.8125,0
35400,-2.5625,3,-11.625,0
35420,-3.875,2.25,-12.4375,0
35440,-7.5,6.1875,-12.75,0
35460,-6.125,12.5625,-13.5,0
35480,-7.75,11.375,-16.875,0
35500,-12.5,10.375,-16.5625,0
35520,-11.875,14.3125,-16.875,0
35540,-9.0625,14.8125,-19.9375,0
35560,-11.6875,12.875,-19.875,0
35580,-12.9375,13.8125,-19.0625,0
35600,-7.75,13.5,-19.8125,0
35620,-6.0625,9.5625,-18.3125,0
35640,-9.5,6.625,-11.5625,0
35660,-8.4375,5.125,-7.6875,0
35680,-0.875,2.3125,-8.875,0
35700,1.1875,0.5,-5.875,0
35720,-1.75,-5.6875,4.3125,0
35740,-1,-11.4375,11.8125,0
35760,-0.4375,-14,11.75,0
35780,-2.3125,-17.125,11.6875,0
35800,-6.25,-16.75,12.9375,0
35820,-5.8125,-15.4375,14.625,0
35840,2.8125,-17.5,13,0
35860,3.8125,-16,10.6875,0
35880,-4.5,-10.375,14.25,0
35900,-7.375,-12.5625,15.6875,0
35920,-3.75,-12.125,13.3125,0
35940,-8.75,-6.5,18.125,0
35960,-5.625,-5.9375,16.375,0
35980,-1.375,-8.625,9.25,0
36000,-4.5625,-5,8.9375,0
36020,-6.1875,-3,11,0
36040,-3.625,-3.3125,7.125,0
36060,-2.25,-1.6875,2.75,0
36080,-4.5,1.75,3.5625,0
36100,-4.6875,2,4,0
36120,-2.5,2,3.5625,0
36140,-3.5,4.625,2.125,0
36160,-4.875,7.25,1.6875,0
36180,-3.25,6.75,2.875,0
36200,-3.4375,6.8125,-2.125,0
36220,-1.1875,6.25,-3.8125,0
36240,-0.4375,3.9375,-2.3125,0
36260,-1.75,2.9375,-2.3125,0
36280,-0.625,1.6875,-1.6875,0
36300,-1.75,1.0625,0.0625,0
36320,-1.4375,0.625,-0.8125,0
36340,0.3125,0.5,0.5625,0
36360,3.25,0.125,1.6875,0
36380,1.0625,-1.6875,2.8125,0
36400,-1.1875,-2.8125,7.125,0
36420,-3,-1.1875,7.5,0
36440,1.875,1,7,0
36460,4.75,1.0625,4.4375,0
36480,8.1875,1.25,2.125,0
36500,6.625,1.4375,2.6875,0
36520,4,1.4375,4.6875,0
36540,2.3125,1.125,5.0625,0
36560,2.1875,2.625,3.1875,0
36580,6.75,3.5,1.8125,0
36600,5.3125,2.3125,0.8125,0
36620,2.3125,1.6875,1.3125,0
36640,1.875,1.1875,-0.5,0
36660,4.6875,0.875,-0.9375,0
36680,3.875,-0.75,0.0625,0
36700,0.4375,-1.5625,-0.4375,0
36720,2,-0.5625,-1.875,0
36740,4.6875,-1.8125,-4.5,0
36760,4.9375,-3.1875,-3.5,0
36780,3.3125,-3.375,-1.375,0
36800,1.9375,-0.6875,-1.625,0
36820,3.375,-0.875,-4.5,0
36840,2.875,-1.8125,-5,0
36860,3.5625,-1.8125,-2.8125,0
36880,3.75,-2.75,-3.0625,0
36900,2.5,-3.875,-1.125,0
36920,-2.0625,-1,0.8125,0
36940,-1.1875,-0.5625,-0.75,0
36960,-1.8125,-3.5,-1.5,0
36980,-5.25,-6.9375,1.1875,0
37000,-5.5,-6.875,3.5,0
37020,-2.6875,-6.3125,3.5,0
37040,-5.25,-3.125,3.75,0
37060,-5.375,-1.875,6.3125,0
37080,-2.5,-2.375,8.625,0
37100,1.875,-0.875,9.0625,0
37120,-5.625,2.5625,11.25,0
37140,-4,3.4375,14.3125,0
37160,-5.75,4.75,17.625,0
37180,-5.3125,4.9375,19,0
37200,-7.0625,4.125,17.75,0
37220,-8.625,4,19.5625,0
37240,-6.5,2.125,20.1875,0
37260,-3.4375,1.25,14.9375,0
37280,-2.5,2.0625,13.75,0
37300,-2.375,-0.0625,14.4375,0
37320,-0.5625,-1.5,11.9375,0
37340,2.0625,-0.375,8.75,0
37360,7.5625,-0.9375,8.1875,0
37380,5.8125,-0.9375,8.25,0
37400,1.8125,-0.625,8.5625,0
37420,0.625,-2.125,10.5625,0
37440,-0.3125,-3.375,11.5,0
37460,-0.8125,1.3125,7.5625,0
37480,1.625,2.0625,8.6875,0
37490,5.625,-1.0625,8.375,0
37510,5.1875,-0.5,7.3125,0
37530,1.375,2.375,5,0
37550,3.125,1.25,5.8125,0
37570,6.1875,-0.25,6.5625,0
37590,5.9375,0.1875,5.5,0
37610,5.375,1.375,3.4375,0
37630,3.8125,0.9375,4.9375,0
37650,3.375,0.1875,8.5,2000
37670,4.375,0.25,6.25,0
37690,4.875,0.1875,4.6875,0
37710,6.3125,-0.75,4.4375,0
37730,4.875,-2.9375,7.1875,0
37750,2.375,-3.875,5.875,0
37770,1,-1.0625,2.3125,0
37790,1.75,0.4375,1.6875,0
37810,2,-2.625,2.5,0
37830,2.5625,-3.125,2.375,0
37850,1.0625,0.3125,-1.1875,0
37870,2.5,0.1875,-3.375,0
37890,5.375,-1.625,-1.5625,0
37910,2.3125,-1.375,-0.75,0
37930,-4.5,-1.25,-2.4375,0
37950,-7.1875,-0.4375,-1.5,0
37970,-0.625,-1.5,-0.125,0
37990,4.125,-2.1875,2.125,0
38010,1.875,-1.4375,-0.375,0
38030,-4.5625,-1.5625,-1.4375,0
38050,-2.6875,-2.9375,3.25,0
38070,0.75,-3.5,4.6875,0
38090,4.5,-2.75,3.8125,0
38110,5.4375,-0.6875,3.3125,0
38130,-0.75,-0.5,6.4375,0
38150,-5.5,-1.8125,8.9375,0
38170,-4.5625,-2.5,8.1875,0
38190,3.75,-1.4375,7.1875,0
38210,6.875,-0.1875,3.9375,0
38230,3.3125,-0.625,3.375,0
38250,4.4375,-0.125,4.375,0
38270,8.5,-0.0625,2.375,0
38290,6.3125,3.3125,1,0
38310,1.0625,4.0625,1.875,0
38330,0.375,3.1875,5.3125,0
38350,2.375,2.25,4.25,0
38370,1.8125,2.3125,1.125,0
38390,3.75,1.5625,-0.6875,0
38410,7.5,2.25,0.0625,0
38430,7.0625,1.5625,-0.0625,0
38450,1.1875,0.5,-0.75,0
38470,-3.125,2.3125,-1.375,0
38480,1.3125,3.6875,-3.6875,0
38500,2.4375,4.125,-6,0
38500,-3.125,3.625,-5.3125,0
38520,-4.9375,5.5625,-7.75,0
38570,-1.3125,7.375,-11.375,0
38590,-0.1875,8,-12.8125,0
38610,-4.375,9.1875,-15.75,0
38630,-5.25,12.375,-16.5,0
38650,-1.8125,13.625,-16.375,0
38670,-5.125,13.9375,-18.125,0
38690,-9.1875,15.8125,-18.5625,0
38710,-6.4375,17.6875,-19.125,0
38730,-5.8125,18.9375,-20.3125,0
38750,-10.875,19,-20,0
38770,-8.25,21.9375,-20.8125,0
38790,-4.25,22.8125,-24.3125,0
38810,-5.3125,21.125,-26.1875,0
38830,-9.1875,21,-25.125,0
38850,-9.375,21.8125,-25.1875,0
38870,-6.6875,21.125,-26.6875,0
38890,-10.0625,19.4375,-28.1875,0
38910,-14.75,19.9375,-27.1875,0
38930,-14.6875,21.5625,-28.8125,0
38950,-12.4375,21.5625,-30.875,0
38970,-14.9375,20.6875,-31.75,0
38990,-17,21.3125,-32.4375,0
39010,-17.875,22.375,-34.625,0
39030,-16.375,24,-33.125,0
39050,-18.5,22.9375,-32.125,0
39070,-23.5,23.6875,-32.125,0
39090,-23.0625,26.3125,-31.6875,0
39110,-23.9375,25.3125,-30.9375,0
39130,-24.6875,24.4375,-30.625,0
39150,-27.1875,24.75,-30.1875,0
39170,-25.5,22.5625,-29.1875,0
39190,-25.4375,21.4375,-31.375,0
39210,-28.5,19.6875,-30.4375,0
39230,-24.8125,17.4375,-31.125,0
39250,-22.125,16.25,-33.375,0
39270,-21.3125,12.25,-33.4375,0
39290,-22.6875,11.375,-33.25,0
39310,-22.6875,9.125,-33.625,0
39330,-20.1875,7.25,-33.4375,0
39350,-20.8125,7.0625,-32.4375,0
39370,-17.875,4.4375,-30.4375,0
39390,-17.625,1.625,-27.5625,0
39410,-23.0625,0.6875,-25.1875,0
39430,-25.6875,0.0625,-23.25,0
39450,-17.6875,-3.375,-19.375,0
39470,-15.6875,-7.5,-13.9375,0
39490,-18.5625,-9.75,-10.5,0
39510,-19.0625,-13.875,-7.9375,0
39530,-20.4375,-17,-5.3125,0
39550,-14.5,-19.8125,-0.75,0
39570,-8.8125,-24,5.25,0
39590,-9.6875,-25.8125,8.875,0
39610,-16.4375,-25.1875,14.1875,0
39630,-18.875,-27.5,19.875,0
39650,-10.5625,-30.4375,23.1875,0
39670,-6.0625,-31.625,24.125,0
39690,-7.5625,-32.375,26.3125,0
39710,-7,-33.6875,28.5,0
39730,-1.25,-37.5,29.6875,0
39750,1.5625,-38.375,30.875,0
39770,-2.6875,-39.5,32.25,0
39790,-0.4375,-41.625,34.0625,0
39810,6.6875,-42.5625,33.6875,0
39830,7,-43.75,34.1875,0
39850,4.75,-43.625,35.3125,0
39870,5.4375,-44.3125,35.125,0
39890,9.0625,-44.3125,33.9375,0
39910,10.0625,-44.375,33.1875,0
39930,8.875,-44.25,34,0
39950,6.875,-42.5625,34.25,0
39970,3,-42.0625,35.5,0
39990,1.0625,-41.5625,34.5,0
40010,1,-41.3125,34.75,0
40030,-1.0625,-40.3125,34.125,0
40050,-4.9375,-38.375,33.4375,0
40070,-11.4375,-37.4375,35.5625,0
40080,-12.625,-36.625,36.3125,0
40100,-10.1875,-36.125,31.0625,0
40120,-9.5625,-35.125,29.4375,0
40140,-15.6875,-33.9375,29.5,0
40160,-18.375,-31,24.25,0
40180,-12.375,-28.0625,17.0625,0
40200,-7.625,-24.8125,11.3125,0
40220,-12.8125,-21.875,10.625,0
40240,-13.25,-18.875,7.9375,0
40260,-11,-15.4375,0.5625,0
40280,-9.5625,-12.25,-1.625,0
40300,-3.5625,-7.8125,-7.5625,0
40320,6.5625,-2.625,-21.5625,0
40340,18.625,-0.5,-34.375,0
40360,16.375,-1.4375,-34.875,0
40380,-0.75,4.75,-32.4375,0
40400,-6.0625,8.1875,-32.3125,0
40420,-4.625,9.0625,-37.875,0
40440,1,11.3125,-44.625,0
40460,0,15.3125,-46.3125,0
40480,-6.875,18.4375,-44.25,0
40500,-12.75,19.6875,-40.75,0
40520,-18.125,19.8125,-38.0625,0
40540,-19.375,24.5625,-39.375,0
40560,-15.5625,26.6875,-42.1875,0
40580,-16.1875,26.25,-42.875,0
40600,-18.1875,26.75,-43.0625,0
40620,-17,27.1875,-41.6875,0
40640,-18.0625,28.375,-43.375,0
40660,-20.4375,28.125,-44.1875,0
40680,-19.5625,27.9375,-43.25,0
40700,-15.75,27.3125,-43.6875,0
40720,-12.4375,25.25,-44.875,0
40740,-21.0625,26.6875,-42.0625,0
40760,-17.9375,26.4375,-41.875,0
40780,-10.9375,24.6875,-44.625,0
40800,-10.9375,26.0625,-42.5625,0
40820,-14.875,26.6875,-38.5625,0
40840,-10.6875,25.75,-39.6875,0
40860,-5.625,24.625,-39.625,0
40880,-7.4375,23.3125,-37.8125,0
40900,-16.75,22.8125,-33.6875,0
40920,-13.5625,19.3125,-27.9375,0
40940,-8.25,16.625,-30.25,0
40960,-10.125,14.25,-30.3125,0
40980,-7.4375,7.6875,-26,0
41000,-5.3125,2.375,-21.9375,0
41020,-2.1875,-0.875,-17.9375,0
41040,-6.0625,-4.625,-11.5,0
41060,-6.375,-9.5,-8.0625,0
41080,-12.5625,-12.8125,-1.875,0
41100,-4.4375,-17.6875,4.75,0
41120,-5.625,-21.9375,12.4375,0
41140,-4.5,-23.5,17.0625,0
41160,-4.3125,-26.875,19.5625,0
41180,-2.875,-29.9375,24.75,0
41200,-2.75,-31.25,28.0625,0
41220,3.5,-33.3125,28.0625,0
41240,7.375,-34.1875,27.8125,0
41260,10.75,-34.9375,29.0625,0
41280,10.9375,-37.6875,30.9375,0
41300,12.6875,-38.375,29.625,0
41320,14.5,-39.1875,29.375,0
41340,14,-38.25,31.5625,0
41360,14.75,-39.125,32.25,0
41380,19.3125,-39.9375,30.6875,0
41400,18.125,-41.5625,29.875,0
41420,17.6875,-42.625,29.4375,0
41440,12.9375,-45.5,29.625,0
41460,12.8125,-47.9375,32.1875,0
41480,7.1875,-50.5625,36.125,0
41500,1.125,-50.6875,33,0
41520,-3.4375,-52.4375,35.0625,0
41540,-1.625,-55.5625,35.625,0
41560,3.875,-57,29.375,0
41580,1.3125,-55,25.25,0
41600,-6.9375,-55.4375,30.0625,0
41620,-9.875,-55.3125,27.3125,0
41640,-3.0625,-52.9375,18,0
41660,0.875,-51,12.375,0
41680,1.125,-45.5625,5.3125,0
41700,9.625,-37.875,-8.8125,0
41720,16.125,-34.75,-18.5625,0
41740,14.125,-30.875,-18.5625,0
41760,0.125,-22.4375,-16.75,0
41780,-4.1875,-16.5,-19.5,0
41800,-6.0625,-9.8125,-25.3125,0
41820,-5,-1.5625,-28.5625,0
41840,-3.875,4.25,-27.6875,0
41860,-2.25,7.25,-33.3125,0
41880,-4.6875,13.0625,-36.5,0
41900,-12.8125,19.3125,-32.375,0
41920,-15.8125,24.5,-32.8125,0
41940,-8.75,26.4375,-38.375,0
41960,-14.6875,27.9375,-39.9375,0
41980,-24.8125,32.5625,-36.9375,0
42000,-22.0625,36.6875,-39.25,0
42020,-20.6875,37.25,-44.125,0
42040,-24.1875,38.3125,-42.375,0
42060,-26.3125,40.375,-43.8125,0
42080,-26.875,44.9375,-48.125,0
42100,-21.375,47.1875,-45.125,0
42120,-25.875,49.3125,-43.0625,0
42140,-22.25,54.4375,-47.5,0
42160,-14.875,54.0625,-50.625,0
42180,-17.8125,51.0625,-46.3125,0
42200,-24.25,50.875,-40.0625,0
42220,-31.1875,55.1875,-38.75,0
42240,-20.6875,49.625,-35.3125,0
42260,-25.625,46.375,-29.0625,0
42280,-29.5625,42.8125,-18.625,0
42300,-32.5625,36.5,-15.5,0
42320,-26.25,31.625,-13.625,0
42340,-23.625,26.25,-9.125,0
42360,-16.625,16.6875,1.25,0
42380,-9.375,9.4375,4.25,0
42400,-19.25,3.625,7.8125,0
42420,-20.75,0.25,20.4375,0
42440,-5.375,-10.75,26.6875,0
42460,1.4375,-14.625,27.25,0
42480,-10.0625,-18.0625,33.6875,0
42500,-12.4375,-24.75,37.8125,0
42520,3.125,-30.625,35.3125,0
42540,11.25,-34.3125,34.4375,0
42560,1.875,-36.5,39.375,0
42580,-0.75,-38.5625,39.9375,0
42600,12.1875,-42.625,37.5,0
42620,19.75,-45.8125,36,0
42640,11.5625,-48.25,39.125,0
42660,6.5,-48.25,41.375,0
42670,10.75,-51.8125,37.6875,0
42690,15.5625,-53.625,36.5625,0
42710,10.4375,-53.8125,37.5625,0
42730,9.1875,-52.9375,36.25,0
42750,13.75,-52.9375,28.625,0
42770,17.4375,-53.1875,25.9375,0
42790,14.8125,-52.875,24.4375,0
42810,9.6875,-51.3125,21.375,0
42830,3,-51,21.5625,0
42850,0.4375,-51.5625,20.3125,0
42870,3.8125,-48.1875,15.0625,0
42890,0.1875,-44.5,11.3125,0
42910,-4.75,-42.0625,7.625,0
42930,-1.6875,-36.6875,-0.125,0
42950,7.0625,-30.6875,-11.125,0
42970,8.5,-26.3125,-18.4375,0
42990,4.25,-21.6875,-24,0
43010,4.0625,-16.8125,-28.375,0
43030,2.75,-11.875,-32.0625,0
43050,-2.625,-8.625,-27.3125,0
43070,-7.625,-4,-26.9375,0
43090,-12.25,1.75,-28.6875,0
43110,-12.5625,5,-27.0625,0
43130,-8.0625,8,-28.4375,0
43150,-11.5,13.1875,-29.6875,0
43170,-19.5,15.6875,-27.1875,0
43190,-18.125,16.125,-27.5,0
43210,-12.25,17.25,-27.125,0
43230,-17.625,19.25,-23.875,0
43250,-20.9375,20.375,-20.5625,0
43270,-16.4375,19.4375,-18.875,0
43290,-13.6875,18.0625,-17,0
43310,-17,17.5625,-13.125,0
43330,-16.6875,15.9375,-12.0625,0
43350,-10.375,12.25,-11.3125,0
43370,-10.125,9.8125,-9.875,0
43390,-8.6875,7.0625,-8.25,0
43410,-11.4375,5.375,-10.1875,0
43430,-11.25,4.6875,-8.875,0
43450,5.8125,4.8125,-9.8125,0
43470,14.125,6.875,-7.625,0
43490,7.1875,4.3125,-8.5625,0
43510,-8.75,-0.25,-9.8125,0
43530,0.5625,-0.5,-3.4375,0
43550,12.25,-1.9375,-7.625,0
43570,11.3125,-2.6875,-6.0625,0
43590,2.4375,-3.125,-3,0
43610,1.6875,-3.6875,-1,0
43630,2.0625,-2.75,2.6875,0
43650,-1.75,-1.9375,0.9375,0
43670,-1.1875,-1.5,1.8125,0
43690,0.25,-2.6875,3.625,0
43710,-2.75,-3.5,4.625,0
43730,-3.75,-3.6875,6.125,0
43750,-2,-4.375,7.0625,0
43770,2.1875,-4.9375,5.875,0
43790,3.5,-4.5625,2.9375,0
43810,2.0625,-3.625,5.5625,0
43830,-2.375,-4.5625,6.25,2001
43850,-0.3125,-4.125,5.25,0
43870,0.8125,-3.4375,4,0
43890,-0.375,-1.25,4.6875,0
43910,2.6875,-1.1875,4.0625,0
43930,3.25,-1.75,3.8125,0
43950,1.3125,-2.75,3.8125,0
43970,-4.6875,-5.5,5.75,0
43990,-2.625,-6.9375,4.25,0
44010,7.9375,-7.1875,-0.0625,0
44030,7,-6.5625,-2.375,0
44050,0.125,-5.8125,-1.625,0
44070,2.6875,-4.875,-2.5625,0
44090,9.9375,-4.1875,-1.375,0
44110,7.4375,-3,-1.8125,0
44130,-0.625,-1.75,2.4375,0
44150,-1.25,-2,0.1875,0
44170,3.6875,-2.625,1.3125,0
44190,6.3125,-2.75,0.0625,0
44210,2.5625,0.1875,-1.125,0
44230,2.6875,0.8125,-3.25,0
44250,10,-0.6875,-4.3125,0
44270,14.6875,-0.1875,-5.3125,0
44290,11.125,1.1875,-4.625,0
44310,11.75,3.1875,-5.25,0
44330,15.0625,6,-4.125,0
44350,17.5625,7.5,-0.0625,0
44370,20.9375,10.0625,1,0
44390,15.5625,12.3125,1.9375,0
44410,12.5,14.9375,7.375,0
44430,15.1875,19,9.25,0
44450,23.9375,17.375,5.8125,0
44470,29.125,17.3125,3.4375,0
44490,24.1875,21.5,6.5625,0
44510,29.25,23.9375,9.0625,0
44530,39.1875,22.3125,7.875,0
44550,42.375,25.5625,11.625,0
44570,38.8125,30.0625,16.1875,0
44590,38.5,34.1875,20.625,0
44610,42.25,34.4375,21.5,0
44630,45.5625,35.6875,21.5625,0
44650,50.3125,39.1875,25.875,0
44670,45.125,36.9375,34.375,0
44690,42.1875,34.4375,34.9375,0
44710,45.8125,36.5625,29.8125,0
44730,44.375,38.4375,32.5625,0
44750,42.6875,35.9375,40.5,0
44770,41.5625,32.3125,41,0
44790,40.875,36.375,38.5625,0
44810,37.4375,38.75,37.375,0
44830,36.75,36.3125,39.6875,0
44850,43.8125,31.5625,40.125,0
44870,46.9375,29.75,37.125,0
44890,41.5,30.125,38.4375,0
44910,37.625,26.1875,44.125,0
44930,38.75,22.75,46.5,0
44950,46.1875,19.6875,43.1875,0
44970,47,16.1875,37.375,0
44990,46.25,15.0625,35.9375,0
45010,50.125,13.375,40.5,0
45030,48.625,8.8125,36.8125,0
45050,48.8125,8,31.6875,0
45070,46.4375,8.125,26.125,0
45090,49.9375,7,23.1875,0
45110,46.4375,3.875,24.25,0
45130,41.125,5.6875,26.3125,0
45150,39.625,8.3125,22.125,0
45170,33.375,6.375,19.25,0
45190,30.5,4.4375,21.6875,0
45210,25.1875,5.4375,19.625,0
45230,22.625,3.5,18,0
45250,16.0625,0.125,19.4375,0
45260,11,0.625,17.3125,0
45280,4.6875,-0.9375,13.8125,0
45300,3.75,-5.0625,9.8125,0
45320,6.875,-6.75,6.8125,0
45340,8.375,-9.25,5.5,0
45360,3.8125,-8.8125,6.25,0
45380,1.8125,-8.8125,4.625,0
45400,-1.8125,-6.75,2.25,0
45420,-3,-6.25,-1.0625,0
45440,-5.5,-6.0625,-3.4375,0
45460,-5.625,-3.8125,-1.6875,0
45480,-10.375,-4,0,0
45500,-14.375,-3.375,-0.0625,0
45520,-13.875,-3.625,-1.75,0
45540,-11.25,-3.5625,-2.6875,0
45560,-12.25,-2,-2.6875,0
45580,-12.5625,-0.875,-4.75,0
45600,-8.8125,0.875,-5.3125,0
45620,-8.1875,1.8125,-3.1875,0
45640,-11.5,1.0625,-1.125,0
45660,-14.8125,-0.0625,0.5,0
45680,-13.4375,-1.5,-0.0625,0
45700,-12.375,-1.4375,0.9375,0
45720,-12.5625,-1.5625,0,0
45740,-11.25,-0.4375,-1.4375,0
45760,-10.875,0.875,-2.5,0
45780,-8.0625,4.5,-1.8125,0
45800,-7.1875,4.3125,0.4375,0
45820,-8.8125,5.0625,4.375,0
45840,-9.4375,10.125,6.6875,0
45860,-5.8125,9.625,6,0
45880,-3.25,8.5625,6.0625,0
45900,-3.4375,7.125,7.0625,0
45920,-2.0625,6.0625,7.5625,0
45940,-1.9375,1.875,4.25,0
45960,-2.625,-1,0.25,0
45980,-1.9375,1.375,0.5625,0
46000,0.875,1.5,0.6875,0
46020,0.125,-0.625,0.375,0
46040,-1.8125,1.3125,1.3125,0
46060,-2,4.125,0.1875,0
46080,-1.75,4.875,0.0625,0
46100,-5.4375,3.6875,1.4375,0
46120,-3.4375,1.8125,-0.625,0
46140,-7.9375,2.1875,-2.8125,0
46160,-12.5625,2,-1.6875,0
46180,-9.8125,0.3125,-3.625,0
46200,-4.4375,-1.625,-5.3125,0
46220,-5,-1.8125,-5.375,0
46240,-7.5,-1.625,-2.875,0
46260,-6.125,-2.875,-1.75,0
46280,-4.625,-2.5,0.0625,0
46300,-3.25,-1.9375,1.375,0
46320,-5.0625,-4.5,3.5625,0
46340,-6,-8,4.6875,0
46360,-4.5625,-8.3125,3,0
46380,0.75,-8.125,2,0
46400,0.125,-7.625,1.6875,0
46420,3,-5.5625,-0.125,0
46440,6.4375,-3.1875,-2.9375,0
46460,7.375,-1.5,-2.4375,0
46480,2.3125,-0.375,0.6875,0
46500,-0.625,1.9375,1.875,0
46520,0,0.125,3.625,0
46540,0.8125,-0.3125,4.625,0
46560,-2.3125,0.25,2.375,0
46580,-0.8125,-1.25,3.125,0
46600,0,-2.375,4.0625,0
46620,-1.8125,-2.5625,3.6875,0
46640,-4.1875,-2.5,3.1875,0
46660,-2,-2.5625,2,0
46680,-2.5625,-1.6875,1.25,0
46700,-3.4375,-0.1875,1.9375,0
46720,-5.375,0.875,0.0625,0
46740,-5.6875,0.0625,0.4375,0
46760,-4.0625,0.0625,-0.625,0
46780,-4.625,1.9375,-3,0
46800,-5.4375,4.125,-2.875,0
46820,-2.625,4.25,-3.5625,0
46840,-0.4375,4.875,-2.6875,0
46860,-3.5625,8.6875,-1.5625,0
46880,-7.6875,8.9375,-2,0
46900,-8.6875,6.5625,-2.8125,0
46920,-7.0625,5.875,-2.375,2000
46940,-7.5,5.3125,-0.6875,0
46960,-9.25,5.875,0.875,0
46980,-10.8125,5.375,2.5,0
47000,-12.75,-0.9375,3.8125,0
47020,-9,-4.3125,4.25,0
47040,-4,-6.75,1.5625,0
47060,-5.625,-9,1.125,0
47080,-8.375,-8.5625,4.5625,0
47100,-8.5625,-8.1875,4.625,0
47120,-7.375,-6.4375,4.4375,0
47140,-3.5,-5.75,3,0
47160,-4,-7.0625,3.4375,0
47180,-2.6875,-9.125,4.3125,0
47200,-4.6875,-8.625,5.5625,0
47220,-4.5,-8.625,4.375,0
47240,-2.5,-7.9375,3.9375,0
47260,-0.3125,-8.3125,3.625,0
47280,-2.6875,-9.8125,2.6875,0
47300,-4,-9.125,3.4375,0
47320,-6.3125,-9.8125,3.0625,0
47340,-7,-9.25,2.75,0
47360,-4.8125,-10.6875,0.375,0
47380,-1.625,-10,-0.625,0
47400,-1.4375,-7.9375,0.25,0
47420,-8.625,-8.5,2.5625,0
47440,-11.75,-8.9375,3,0
47460,-10.125,-4.8125,-3.5,0
47480,-5.875,0.75,-9.625,0
47500,-9.5,2.875,-8.625,0
47520,-16.625,7.625,-5.9375,0
47540,-14.375,13.5625,-7.6875,0
47560,-11.625,14.9375,-11.25,0
47580,-13,14,-11.625,0
47600,-16.6875,11.6875,-7.5625,0
47620,-11.1875,11.4375,-8.1875,0
47640,-4.3125,8.6875,-14.3125,0
47660,-8.0625,11.4375,-15.6875,0
47680,-14.4375,13.0625,-13.5,0
47700,-17.625,14.3125,-15.1875,0
47720,-15.75,19.3125,-17.3125,0
47740,-15.9375,17.875,-17.6875,0
47760,-20.3125,20.1875,-20.125,0
47780,-26.9375,18.875,-18.25,0
47800,-22.125,21.75,-21.25,0
47820,-19.75,22.75,-23.5625,0
47840,-24.8125,21.4375,-23.875,0
47850,-26.3125,26.5,-25.9375,0
47870,-27.375,28.875,-26,0
47890,-24.375,31.9375,-27.5,0
47910,-26.875,30.1875,-29.125,0
47930,-28.25,31.4375,-30.5,0
47950,-23.125,32.4375,-30.3125,0
47970,-23.6875,31.25,-30.5625,0
47990,-27.75,30.0625,-31.3125,0
48010,-25.4375,32.1875,-33.5625,0
48030,-26.875,35.625,-33.625,0
48050,-23.5625,37.3125,-32.8125,0
48070,-25.25,39.5,-31.25,0
48090,-28.25,42.375,-31.5625,0
48110,-27.9375,45.625,-33.625,0
48130,-25.625,49.6875,-34.25,0
48150,-23.3125,50.4375,-33.75,0
48170,-22.1875,49,-35.9375,0
48190,-22.8125,53.0625,-35.375,0
48210,-23.625,49.5,-31.875,0
48230,-25.9375,47.25,-29.0625,0
48250,-25.8125,47.9375,-27.375,0
48270,-26.9375,46.6875,-24.75,0
48290,-27.375,45.6875,-21.0625,0
48310,-25.5625,38.375,-17.25,0
48330,-22.1875,31.5,-17.625,0
48350,-24.4375,29.125,-17.625,0
48370,-27.625,24.375,-9.1875,0
48390,-26.375,11,-5.375,0
48410,-16.625,3.1875,-9.0625,0
48430,-17.125,0.75,-10.3125,0
48450,-16.3125,-2.375,-1.625,0
48470,-13.1875,-8.5625,3.5,0
48490,-8.25,-12.1875,4.125,0
48510,-14.3125,-12.5625,5.4375,0
48530,-15.0625,-12.625,7.3125,0
48550,-10.75,-16.375,10.4375,0
48570,-5.3125,-17.4375,12.0625,0
48590,-8,-17.125,8.8125,0
48610,-11.25,-17.9375,12.3125,0
48630,-9.3125,-20.125,14.5,0
48650,-2,-24,15.375,0
48670,-3.1875,-24.125,17.25,0
48690,-8.625,-25,20.875,0
48710,-8.3125,-27.6875,20.8125,0
48730,-3.5,-27.75,21.3125,0
48750,0.6875,-27.5625,20.375,0
48770,0.6875,-29.125,21.1875,0
48790,0.875,-30.6875,24.625,0
48810,-0.8125,-32.1875,25.5625,0
48830,0.625,-31.5,25,0
48850,7.25,-32.4375,24.5625,0
48870,8.125,-34.3125,26.9375,0
48890,4.125,-35.375,27.9375,0
48910,1.6875,-35.1875,26.75,0
48930,5.875,-35.875,28.4375,0
48950,7.25,-36.3125,28.25,0
48970,7.625,-34.9375,27.0625,0
48990,7.5,-33.4375,26.0625,0
49010,7.5625,-34.4375,27.4375,0
49030,8.6875,-33.9375,27.125,0
49050,5.5,-33.75,25.0625,0
49070,6.6875,-35.125,23.5,0
49090,9.3125,-37.875,22.125,0
49110,10.5,-38.1875,19.5625,0
49130,8.0625,-38,17.9375,0
49150,4.625,-37.6875,18.3125,0
49170,5.6875,-37.1875,16.5625,0
49190,4.3125,-36.6875,16.1875,0
49210,-0.375,-35.375,15.6875,0
49230,-2.6875,-34.625,15.1875,0
49250,0.625,-35.875,10.0625,0
49270,3.25,-35.5625,4.125,0
49290,1.625,-35.125,3.875,0
49310,-2.0625,-37.75,2.5,0
49330,-3.5,-36.375,-2.125,0
49350,-1.5625,-34.5625,-6.5625,0
49370,1.8125,-33.25,-9.3125,0
49390,2.75,-31.375,-11.875,0
49410,-0.5625,-29.875,-12.9375,0
49430,-3.6875,-27.125,-16,0
49450,-7.1875,-25.4375,-17.9375,0
49470,-5.25,-22.5,-19.1875,0
49490,-3.9375,-22.0625,-25.875,0
49510,-6.6875,-25.375,-27.6875,0
49530,-10.8125,-27.875,-26.3125,0
49550,-13.125,-28.6875,-31.3125,0
49570,-11.375,-27.125,-35.6875,0
49590,-10.125,-24.75,-36.5,0
49610,-16,-21.375,-33.125,0
49630,-16.9375,-18.8125,-30.9375,0
49650,-18.0625,-13.625,-33.375,0
49670,-23.6875,-2.75,-32.9375,0
49690,-24.875,3.9375,-29.25,0
49710,-23.1875,11.8125,-32.375,0
49730,-21,16.3125,-37.3125,0
49750,-23.0625,18.9375,-37.125,0
49770,-31.625,21.4375,-36.125,0
49790,-27.375,25.0625,-38,0
49810,-24.9375,31.375,-43.9375,0
49830,-29.25,36.4375,-42.4375,0
49850,-31.75,35.375,-37.4375,0
49870,-32.5625,39.6875,-38.1875,0
49890,-30.75,45.375,-39.875,0
49910,-32.0625,49.9375,-37.8125,0
49930,-32.875,50,-35.5625,0
49950,-32.25,48.4375,-35.875,0
49970,-32,50.9375,-35.125,0
49990,-24.75,48.9375,-37,0
50010,-24.3125,45.4375,-37.9375,0
50030,-25.5625,44.8125,-38.1875,0
50050,-35.625,49.625,-31.3125,0
50070,-23.3125,45.5,-25.6875,0
50090,-22.5,39.1875,-28.75,0
50110,-23.375,43.5625,-25.6875,0
50130,-23.5625,43.625,-16.8125,0
50150,-19.4375,38.4375,-8.3125,0
50170,-14.9375,32.5,-4.3125,0
50190,-19.0625,27.0625,-1.3125,0
50210,-19.8125,23.0625,2.8125,0
50230,-15.5625,13,9.6875,0
50250,-6.875,1.875,18.3125,0
50270,-11.3125,-1.5625,23,0
50290,-18.3125,-0.4375,27.75,0
50310,-4.1875,-10.0625,29.6875,0
50330,4,-20.3125,30.4375,0
50350,1.875,-23.3125,33.6875,0
50370,-5.375,-25.8125,36.4375,0
50390,7.3125,-32.625,31.5625,0
50410,19.5625,-38.4375,28,0
50430,16.9375,-38.75,31.6875,0
50440,11.875,-39.5625,38.0625,0
50460,14.8125,-43.625,40.125,0
50480,15.1875,-45.0625,36.3125,0
50500,15.625,-45.4375,37.5,0
50520,21.375,-46.375,38.9375,0
50540,20.0625,-47.0625,37.5,0
50560,14.875,-49.25,38.375,0
50580,8.5625,-50.1875,35.75,0
50600,12.875,-49.4375,33.3125,0
50620,19.6875,-51.9375,31.1875,0
50640,13.1875,-52.8125,30,0
50660,1.9375,-52.625,31.3125,0
50680,6,-52.75,28.5625,0
50700,8.4375,-54,24.25,0
50720,8.875,-54.125,20.8125,0
50740,4.625,-54.625,15.25,0
50760,8.9375,-54.9375,8.5625,0
50780,9.3125,-55.375,4,0
50800,10.75,-51.8125,-1.8125,0
50820,11.4375,-47.625,-8.875,0
50840,9.8125,-44.3125,-11.1875,0
50860,6.5,-39.625,-11.8125,0
50880,2.375,-35.25,-15.5,0
50900,2.0625,-29.3125,-21.4375,0
50920,-0.1875,-25,-25.9375,0
50940,-3.875,-23.6875,-25.8125,0
50960,-5.125,-19.625,-29.75,0
50980,-4.5,-17.0625,-37.5,0
51000,-5.875,-12.0625,-37.3125,0
51020,-8.625,-8,-39,0
51040,-4.875,-8.6875,-43.4375,0
51060,-14.3125,-7.75,-44.4375,0
51080,-20.4375,-6.75,-41.5625,0
51100,-17.875,-7.375,-45.1875,0
51120,-19.75,-5.6875,-46.75,0
51140,-19.9375,-4.6875,-45.1875,0
51160,-25.625,0.875,-46.5,0
51180,-27.5625,9.5,-43.5,0
51200,-24.8125,10.4375,-40.625,0
51220,-28.75,14.875,-39.875,0
51240,-29.5625,24.125,-35.5,0
51260,-28.75,29.0625,-33.75,0
51280,-27.3125,33.25,-32.8125,0
51300,-26.875,37.75,-31.125,0
51320,-27.3125,40.6875,-30.1875,0
51340,-25.3125,42.9375,-31.9375,0
51360,-23.25,44.75,-34.625,0
51380,-19.75,46.375,-37.5,0
51400,-17.25,47.0625,-41.25,0
51420,-17.5,49.375,-41.375,0
51440,-16.75,50.3125,-37.125,0
51460,-11.4375,49,-34.875,0
51480,-9.3125,49.1875,-34.6875,0
51500,-11.375,51.5,-29.25,0
51520,-13.4375,58.125,-20.125,0
51540,-6.1875,55.0625,-15.25,0
51560,-4.75,52.875,-15.1875,0
51580,-2.5,56.875,-10.625,0
51600,8.125,55.1875,-6.8125,0
51620,11.3125,50.5625,-6.0625,0
51640,11.625,47.625,0.4375,0
51660,9.375,41.75,8.5625,0
51680,9.25,37.25,13.3125,0
51700,16.9375,29.375,17.6875,0
51720,14.3125,20.1875,27.375,0
51740,9.5625,12.3125,34,0
51760,10.0625,4.5625,36.5625,0
51780,12.5,-1.75,37.875,0
51800,14.5,-9.1875,40.25,0
51820,13.375,-15.3125,45.1875,0
51840,15.5625,-21.3125,45.5,0
51860,14.1875,-26.625,40.75,0
51880,15.625,-31.125,41.75,0
51900,20.875,-37.5625,42.75,0
51920,19.8125,-41.3125,39.8125,0
51940,17.375,-43.6875,41.5625,0
51960,12.625,-47.25,44.5625,0
51980,14.125,-49,40.9375,0
52000,19.375,-51.9375,35.5625,0
52020,16.75,-54.4375,36.1875,0
52040,12.5,-56.8125,37,0
52060,16.4375,-57.625,31.375,0
52080,15.625,-58.25,27.5,0
52100,13.625,-59.3125,28.5625,0
52120,11.4375,-59,24.75,0
52140,9.5625,-58.6875,20.75,0
52160,10.1875,-58.4375,20.1875,0
52180,8.25,-59.0625,18.3125,0
52200,4.375,-57.9375,15.8125,0
52220,1.6875,-54.5,13.5625,0
52240,0.75,-52.3125,6.3125,0
52260,4.875,-49.625,1.0625,0
52280,8.125,-45.75,-3.8125,0
52300,5.4375,-43.625,-10.875,0
52320,0.4375,-40.25,-13.9375,0
52340,-2.75,-35.375,-19.4375,0
52360,0.125,-30.25,-22.5,0
52380,0.75,-27,-25.8125,0
52400,-4.375,-24.6875,-21.875,0
52420,-6.9375,-22.625,-23.3125,0
52440,-13.0625,-19.25,-26.25,0
52460,-9.25,-17.5,-24.875,0
52480,-8.4375,-15.375,-29.125,0
52500,-4.875,-13.4375,-32.3125,0
52520,-8.625,-11.875,-31.6875,0
52540,-5.5625,-10.5,-31.375,0
52560,-5.8125,-10.25,-34.0625,0
52580,-5.5625,-8.1875,-30.5625,0
52600,-8.1875,-7,-25.5,0
52620,-7.25,-7.75,-23.125,0
52640,-6.6875,-7.5,-22.3125,0
52660,-11.0625,-5.625,-16.8125,0
52680,-4.625,-6,-14.3125,0
52700,-4.75,-4.5,-16.875,0
52720,-6.5,-4.0625,-13.5625,0
52740,-5.6875,-6,-12.875,0
52760,-4.4375,-4.4375,-13.75,0
52780,-6.4375,-3.6875,-11.8125,0
52800,-8.8125,-1.25,-7.9375,0
52820,-2.875,1,-6.5625,0
52840,-6.5625,1.375,-4.6875,0
52860,-10.875,3.625,-2.375,0
52880,-8.5,6.25,-4.5,0
52900,-0.5625,4.875,-5.6875,0
52920,-3.4375,4.4375,-5.3125,0
52940,-5.5625,6.6875,-3.5625,0
52960,-6.6875,5.1875,-3.1875,0
52980,-1.375,2.1875,-0.1875,0
53000,-1.9375,2.9375,-1.0625,0
53020,-7.25,6.625,1.4375,0
53030,-6.0625,5.875,0,0
53050,2.0625,2.625,-3,0
53070,-1.875,0.5,-2.375,0
53090,-2.3125,-0.4375,-2.4375,0
53110,0.6875,-1,-6.25,0
53130,-0.875,-0.75,-6.9375,0
53150,0.5625,-3.875,-2.8125,0
53170,7.125,-7.75,2.875,0
53190,3.6875,-5.875,0.8125,0
53210,-2.375,0.25,0,0
53230,0.375,2.125,-3,0
53250,8.1875,-1.5625,-5.3125,0
53270,10.875,3.125,-3.1875,0
53290,1.0625,9.625,0.0625,0
53310,-1.625,12.875,2.9375,0
53330,3,10.25,1.1875,0
53350,5.5,7.6875,3.4375,0
53370,1.625,4.625,5.3125,0
53390,-2.375,0.25,7.4375,0
53410,-5.1875,-2.375,9.875,0
53430,-0.75,-7,4,0
53450,5.375,-13.0625,-2,0
53470,3.75,-11.625,-3.1875,0
53490,5.6875,-13.0625,-3.3125,0
53510,5.9375,-14.8125,-0.4375,0
53530,6.625,-14.625,-1.5,0
53550,3.9375,-12.9375,-1.75,0
53570,6.3125,-15,-0.8125,0
53590,1.875,-13.25,0.5,0
53610,2.25,-11.9375,0.5625,0
53630,3.6875,-15.0625,-0.9375,0
53650,6.5625,-16.125,-1.75,2001
53670,4.5,-17.875,-4.1875,0
53690,3.8125,-18.5,-6.5,0
53710,5.0625,-22.9375,-6.0625,0
53730,2.4375,-22,-2.5,0
53750,5.5625,-21.0625,-2.8125,0
53770,3,-18.25,-3.6875,0
53790,0.0625,-17.4375,-0.8125,0
53810,0.3125,-16.9375,0.6875,0
53830,2.1875,-14,-1,0
53850,2.5625,-11.25,-2,0
53870,0.125,-8.3125,0.4375,0
53890,-1.4375,-2.9375,2.9375,0
53910,-1.8125,0.9375,4.125,0
53930,1.125,-0.125,3.125,0
53950,0.625,0.75,2.1875,0
53970,0.3125,3,1.4375,0
53990,1.125,2.625,-3.375,0
54010,3.8125,2.25,-5.0625,0
54030,5.25,3.8125,-0.8125,0
54050,6.375,4.8125,1.1875,0
54070,3.8125,8.0625,1.5625,0
54090,5.5625,12.0625,-0.125,0
54110,9.0625,20.25,-4.25,0
54130,10.75,26.6875,-2.5625,0
54150,9.4375,30.8125,0.75,0
54170,11.1875,27.5,1.9375,0
54190,12.3125,28.6875,1.5,0
54210,7.9375,32.0625,0.75,0
54230,9.5625,32,-0.6875,0
54250,14.6875,23.625,-3.0625,0
54270,17.5625,17,-5.125,0
54290,15,14.75,-5,0
54310,17.9375,17.1875,-4.625,0
54330,18,22.4375,-3.125,0
54350,19.9375,22.8125,-2,0
54370,17.5,24.3125,4.1875,0
54390,17.5625,26.125,11.125,0
54410,17.25,21.875,12.0625,0
54430,12.6875,17.25,10.75,0
54450,10.25,16.0625,9,0
54470,12.1875,16.8125,5.5625,0
54490,15.3125,17.375,6.5,0
54510,18.8125,16.125,9.375,0
54530,21.375,14,7.625,0
54550,18.3125,13.75,5.375,0
54570,20,14.0625,5.125,0
54590,23,11.6875,2.3125,0
54610,22.5625,8.75,-1,0
54630,23.0625,7.5625,-1.6875,0
54650,20.9375,4.9375,-0.75,0
54670,19.1875,2.625,-1.125,0
54690,15.125,-1.25,-1.6875,0
54710,12.125,-4.5,-0.1875,0
54730,12.125,-7.8125,1.0625,0
54750,10.9375,-8.625,0.0625,0
54770,9.375,-7.75,-3.625,0
54790,7.5,-7,-3.375,0
54810,5.125,-10.125,2.5625,0
54830,8.75,-9.6875,2.9375,0
54850,8.75,-8.6875,-1.5,0
54870,7.25,-7.0625,-5.0625,0
54890,6.6875,-7.6875,-3.25,0
54910,9.875,-10,1.8125,0
54930,11.5625,-10.125,4.75,0
54950,10.625,-9.25,4.125,0
54970,9.875,-5.1875,2.9375,0
55020,17.75,15.375,1.9375,0
55040,18.8125,20.25,0.3125,0
55060,17.9375,22.9375,1.8125,0
55080,18.625,23.125,2.5625,0
55100,17.9375,23.125,-0.4375,0
55120,15,22.25,-3.75,0
55140,14.25,19.5625,-6.25,0
55160,12.375,19.5625,-5.125,0
55180,13.4375,16.875,-3.875,0
55200,12.1875,10.8125,-4.5625,0
55220,7.4375,7.375,-8.5,0
55240,7,6.375,-11.75,0
55260,10.5,6.25,-13.75,0
55280,10.8125,3,-10.75,0
55300,7.5,-0.1875,-9.1875,0
55320,6.3125,0.5,-10.4375,0
55340,6.5625,0.1875,-11.5625,0
55360,7,-1.25,-10.6875,0
55380,9.5,-0.6875,-6,0
55400,8.25,-1.9375,-0.25,0
55420,10.5,-0.75,0.5,0
55440,10.5625,2.375,-1.4375,0
55460,9.75,2,-1.4375,0
55480,8.0625,-2.125,-0.0625,0
55500,7.6875,-3.125,0.125,0
55520,8.25,-2.4375,-1.5,0
55540,7.6875,-3.875,-2.3125,0
55560,5.0625,-4.75,-1.75,0
55580,5.0625,-4.0625,-0.9375,0
55600,6.25,-2.4375,-2.5,0
55610,7.4375,-3.1875,-2.25,0
55630,5.125,-4.0625,-0.5625,0
55650,5.25,-3,-1.75,0
55670,4.4375,-1.3125,-2.9375,0
55690,6.375,-1.3125,-2.6875,0
55710,9,-2.625,0.0625,0
55730,11.8125,-2.6875,1.5,0
55750,12.6875,-3.625,1.0625,0
55770,12.6875,-5.5625,0.1875,0
55790,12,-7.0625,1.625,0
55810,12.9375,-7.625,1.375,0
55830,12.375,-5.4375,0.0625,0
55850,13.5625,-4.9375,0.4375,0
55870,11.75,-4.9375,3.375,0
55890,9.1875,-2.1875,6.1875,0
55910,5.1875,0.25,8.625,0
55930,2.375,0.0625,5.5625,0
55950,-0.125,1.625,1.5,0
55970,1.25,3.9375,0,0
55990,3.125,2.375,5.375,0
56010,2.375,0.5625,12.4375,0
56030,-1.1875,0.9375,11.625,0
56050,-3.5625,4.9375,9.3125,0
56070,-2.3125,5.5625,10.875,0
56090,2.125,4.875,9.4375,0
56110,1.0625,5.5625,10.1875,0
56130,-0.375,5.125,9.6875,0
56150,2.1875,5.25,8.5,0
56170,0.5625,6.375,7.3125,0
56190,-4.5,7.5,4,0
56210,-3.3125,8.8125,1,0
56230,-5.6875,10.25,-1.4375,0
56250,-4.4375,10.9375,-3.25,0
56270,-4.0625,11.1875,-1.25,0
56290,-3.8125,11.3125,1.125,0
56310,-3.3125,12.1875,1.5,0
56330,-2.6875,10.6875,1.375,0
56350,-2.375,10.1875,2,0
56370,1.5625,9.75,2.25,0
56390,5.3125,7.6875,1.125,0
56410,5.1875,3.9375,1.4375,0
56430,7.1875,0.75,2.5625,0
56450,6.3125,-1.375,4.125,0
56470,3.5,-3.875,5.75,0
56490,1.4375,-5.5625,7.0625,0
56510,-0.6875,-6.8125,7.625,0
56530,-1.8125,-7.0625,7.125,0
56550,-1.625,-7.875,6.875,0
56570,-1.8125,-8,6.25,0
56590,-2.4375,-7.9375,4.75,0
56610,-2.6875,-6.0625,2.75,0
56630,-3.4375,-2.9375,1.1875,0
56650,-3.4375,-0.6875,-1.375,0
56670,0.125,2.3125,-3.625,0
56690,2.875,4.9375,-5.125,0
56710,5.875,8.6875,-5.125,0
56730,8.6875,11.4375,-4.75,0
56750,7.9375,12,-2.4375,0
56770,7.0625,12.5,-0.5,0
56790,5.8125,13.9375,1.125,0
56810,3.8125,16.0625,1.1875,0
56830,4.625,18,-0.125,0
56850,6.75,18.375,-0.5,0
56870,4.5625,18.3125,0.25,0
56890,1.4375,19.6875,0.75,0
56910,0.6875,20.25,1.4375,0
56930,-0.25,19.3125,2.6875,0
56950,-1.875,16.6875,4.5625,0
56970,-4.125,14.3125,4.5,0
56990,-6.0625,14.75,2.1875,0
57010,-4.625,17.3125,-1.1875,0
57030,-2.5,18.5,-3.1875,0
57050,-1.25,17.3125,-1.6875,0
57070,0.3125,16.8125,-0.25,0
57090,1.6875,18.375,-0.6875,0
57110,2.375,21.25,-2,0
57130,3,23.4375,-2.6875,0
57150,1.6875,24.125,-1.875,0
57170,1.4375,23.5625,0,0
57190,2.25,22.4375,0.625,0
57210,2.8125,22.625,-0.6875,0
57230,3,23.9375,-4.125,0
57250,2.875,24.625,-6.1875,0
57270,9.625,23.25,-5.8125,0
57290,7.5625,22,-7,0
57310,6.0625,20.9375,-8.4375,0
57340,9.5625,21.3125,0.5,0
57350,9.3125,22.0625,0.4375,0
57370,10.8125,20.6875,1.125,0
57390,12.75,19.25,2.1875,0
57410,14.375,18.1875,2.6875,0
57430,13.8125,17.9375,3.0625,0
57450,12.25,18.4375,3.4375,0
57470,11.8125,18.25,2.875,0
57490,12.25,16.75,3.0625,0
57510,12.875,16.25,5.3125,0
57530,13.5625,16.1875,7.875,0
57550,8.1875,13.75,9.25,0
57570,4.6875,12.8125,8.125,0
57590,4.625,13.9375,5.9375,0
57610,6.125,14.125,5.6875,0
57630,9.375,11.9375,6.75,0
57650,8.625,9.6875,5.875,0
57670,8.875,9.0625,3.375,0
57690,10.5,7.25,2.125,0
57710,9.875,4.1875,4.375,0
57730,9.4375,3.875,7.75,0
57750,13.875,1.6875,9.8125,0
57770,14.0625,-3.5625,11.3125,0
57790,9.875,-3.5,10.1875,0
57810,9.625,1,8.125,0
57830,12.5,2.625,7.5,0
57850,14.9375,1.9375,10.125,0
57870,11.5,0.75,12.125,0
57890,7.5625,0,12.0625,0
57910,5.5625,-3.875,9.8125,0
57930,2.375,-4.4375,9.1875,0
57950,-3.375,-3.875,8.4375,0
57970,-7.4375,-6.125,6.4375,0
57990,-9.25,-10.4375,3.0625,0
58010,-9,-14.5625,-0.9375,0
58030,-8.75,-16.3125,-4.75,0
58040,-9.4375,-18.3125,-7.25,0
58060,-9.625,-19.0625,-8.75,0
58080,-4.8125,-19.25,-8.375,0
58100,0.8125,-18.875,-7.0625,0
58120,4,-18.125,-4.75,0
58140,3.5625,-16.0625,-5.125,0
58160,1.5625,-11.9375,-6.3125,0
58180,0.625,-10.125,-7.0625,0
58200,2.625,-7.5625,-8.5,0
58220,5.875,-2.9375,-5.9375,0
58240,8.75,-1.5625,-3.75,0
58260,6.375,-2.0625,-2.8125,0
58280,5.375,-1.6875,-2.375,0
58300,5.3125,-0.0625,-2.875,0
58320,3.375,0.8125,-3.625,0
58340,2.3125,1.75,-4.9375,0
58360,3.4375,4.25,-2.9375,0
58380,3.4375,3.9375,-1,0
58400,-0.3125,4.3125,0.25,0
58420,-1.1875,6.6875,0.9375,0
58440,0.3125,9.6875,0.6875,0
58460,3.25,8.4375,1.75,0
58480,3.75,4.3125,1.1875,0
58500,1.75,2.25,-1.0625,0
58520,-1.6875,1.875,-3.0625,0
58540,-3.75,3.625,-5,0
58560,-5.5,3.75,-3.75,0
58580,-3.375,3.625,-1.4375,0
58600,-0.4375,4.3125,0,0
58620,1.375,5.75,-0.25,0
58640,1.3125,5.4375,-0.625,0
58660,-0.5,-1.8125,-2.125,0
58680,-0.8125,-4.1875,-5.75,0
58700,0.5625,-4.125,-8,0
58720,2,-3.4375,-9.5,0
58740,3.75,-2.875,-9.9375,0
58760,5.9375,-1.1875,-7.75,0
58780,7.5625,0.5625,-4.125,0
58800,6.4375,0.375,0.9375,0
58820,4.4375,0.375,5.0625,0
58840,3.125,1.6875,6.625,0
58860,1.125,2.75,6.5625,0
58880,-0.5625,1.5625,6.4375,0
58900,0.4375,-0.6875,6.375,0
58910,1.6875,-3.125,5.875,0
58920,2.4375,-3.3125,3.8125,0
58930,2.9375,-2.9375,1.3125,0
58950,3.375,-3.5625,-0.875,0
58970,3.375,-3.75,-2.25,0
58990,3.1875,-2.3125,-2.125,0
59010,3.625,-0.875,-1.125,0
59030,3.8125,0.8125,-0.1875,0
59050,3.9375,2.5,0.75,0
59070,3.875,3.9375,1.375,0
59090,3.6875,4.8125,1,0
59110,3.75,5.625,0.5625,0
59130,3.3125,6.25,-0.5625,0
59150,4,5.625,-1.4375,0
59170,3.8125,4.375,-2.0625,0
59190,3.75,3.375,-3.125,0
59210,3.6875,2.6875,-4,0
59230,3.5625,3.1875,-5.375,0
59250,2.75,3.5625,-6.75,0
59270,2.5,2.875,-7.0625,0
59290,3.375,2.8125,-7,0
59310,2.6875,2.5625,-6.125,0
59330,1.375,2.5625,-4.5,0
59350,-0.6875,1.1875,-2.5,0
59370,-2.8125,0.0625,-1.1875,0
59390,-4.8125,-0.125,-0.375,0
59410,-5.875,-0.375,-0.125,0
59430,-6,-1.1875,-0.4375,0
59450,-5.4375,-1.6875,-1.1875,0
59470,-4.0625,-1.75,-1.5,0
59490,-3.25,-1.875,-1.6875,0
59510,-2.125,-2.125,-2.25,0
59530,-1.375,-1.6875,-2.5625,0
59550,-1.5625,-0.375,-2.9375,0
59570,-0.8125,1.0625,-2.5625,0
59590,0.5625,2.5,-1.5,0
59610,1.8125,3.5625,0.8125,0
59630,2.4375,4,2.5,0
59650,2.875,4.375,2.6875,0
59670,3.375,4.75,2.375,0
59690,3.0625,5.25,2.0625,0
59710,2.8125,5,2.5,0
59730,2.9375,4,3.0625,0
59750,3.0625,3.3125,2.6875,0
59770,2.625,3.1875,1.5625,0
59790,2.75,2.1875,1.375,0
59810,2.3125,0.625,0.75,0
59830,1.5,-0.6875,0.5625,0
59850,1.3125,-1.1875,0.375,0
59870,1.25,-2.375,-0.125,0
59890,0.4375,-2.5,-0.625,0
59910,-0.25,-2.125,-0.1875,0
59930,-0.375,-2.125,0.0625,0
59950,-0.75,-2.0625,0.1875,0
59970,-0.8125,-1.6875,0,0
59990,-0.6875,-1.5625,-0.125,0
60010,-0.6875,-1.3125,-0.875,0
60030,-1.375,-1.1875,-1.1875,0
60050,-1.125,-1.5625,-1.125,0
60070,-0.6875,-1.4375,-2.0625,0
60090,-0.25,-1.125,-1.75,0
60110,-0.375,-1.5625,-0.5625,0
60130,-0.8125,-3.5,-0.125,0
60150,-2,-5.25,-1.375,0
60170,-2.75,-5.9375,-1.875,0
60190,-2.625,-5.25,0.3125,0
60210,-1.1875,-6.0625,3.5625,0
60230,-0.4375,-8.5625,3.5,0
60250,-0.6875,-8.8125,2.1875,0
60270,-2.1875,-7.125,1.5,0
60290,-2.4375,-6.125,0.0625,0
60310,0.1875,-6,-0.0625,0
60330,2.25,-5.25,-1.0625,0
60350,1.75,-3.6875,-1.5,0
60370,2,-1.875,-1.0625,0
60390,2.5625,-1.1875,-1,0
60410,1.9375,-1.5625,-0.3125,0
60430,0.5625,-1.125,1.625,0
60450,-0.5625,-0.3125,1.3125,0
60470,-1.3125,-0.4375,1.25,0
60490,-2.6875,-0.9375,1.6875,0
60510,-2.625,-1.375,1.9375,0
60530,-1.9375,-2,1.6875,0
60550,-1.375,-2.75,0.6875,0
60570,-1.0625,-2.5625,-0.75,0
60580,-0.8125,-2.5,-1.875,0
60600,0.8125,-2.25,-2.375,0
60620,1.9375,-2.5,-2,0
60640,1.875,-1.1875,-1.875,0
60660,1.3125,0.4375,-1.5625,0
60680,1.6875,0.5,-0.125,0
60700,1.5625,0.375,0.8125,0
60720,1.5625,1.1875,1.125,0
60740,2.1875,1.625,1.875,0
60760,3.0625,1.3125,2.375,0
60780,2.5,1.1875,2.875,0
60800,1.8125,1.125,2.9375,0
60820,1.4375,0.625,3.25,0
60840,0.3125,-0.0625,4.25,0
60860,0.0625,-0.25,4.4375,0
60880,-0.8125,0.25,4.1875,0
60900,-1.875,-0.6875,3.8125,0
60920,-1.0625,-1.8125,5,0
60940,-0.5,-2.3125,7.125,0
60960,-0.8125,0.125,8.0625,0
60980,3.25,4.4375,7.5625,0
61000,5.6875,5.9375,10.1875,0
61020,7.0625,8.3125,15.75,0
61040,9.8125,9.3125,20.9375,0
61060,10.6875,8.8125,22.6875,0
61080,11.3125,8.375,23.5,0
61100,12.5,7.5625,22.375,0
61120,13.9375,6,22.1875,0
61140,14.3125,1.3125,20.3125,0
61160,13.4375,-2.875,18.4375,0
61180,14,-7.4375,17.9375,0
61200,10.3125,-12.1875,16.8125,0
61220,5.4375,-12.3125,14.5625,0
61240,2,-13.9375,12.4375,0
61260,3.5625,-19.0625,10.625,0
61280,4.5625,-21.5625,8.6875,0
61300,1.6875,-18.5625,7.5625,0
61320,0.75,-17.1875,7,0
61340,-0.8125,-15.3125,7.125,0
61360,-3.5625,-9.8125,7.75,0
61380,-2.875,-8.4375,12.25,0
61400,-3.1875,-11.5,15.1875,0
61420,-7.4375,-7.6875,15.75,0
61440,-8.9375,1.375,14.625,0
61460,-7.3125,2.625,14.3125,0
61480,-3.875,-1.25,15.625,0
61500,-0.25,-0.375,12.375,0
61520,1.0625,3.875,10.875,0
61540,-0.3125,3.125,11.5625,0
61560,-1.6875,0.5625,12.5,0
61580,1.4375,0.125,11.125,0
61600,3.625,-1.75,7.5,0
61620,1,-2.5,6.875,0
61640,-0.875,-0.6875,8.9375,0
61660,-0.8125,-3.125,8.0625,0
61680,1.8125,-1.25,4.0625,0
61700,3.1875,3.875,3.125,0
61720,2.8125,4,4.5625,0
61740,0.4375,4.75,5.25,0
61760,0.25,8.625,5.1875,0
61780,-0.4375,9.9375,4.9375,0
61800,-1.375,6.75,4.1875,0
61820,-6.5625,7.875,4.1875,0
61840,-6.4375,8.125,4.9375,0
61860,-8.4375,4,3.8125,0
61880,-9.9375,2.5,1.125,0
61900,-9.4375,5.3125,-0.1875,0
61920,-5.75,6.4375,-0.6875,0
61940,-3.125,5.4375,0.6875,0
61960,-4.625,6.375,0.875,0
61980,-5.5625,9.125,-0.8125,0
62000,-7.625,6.4375,-1.3125,0
62020,-9.25,4.4375,1.1875,0
62040,-8.6875,5.75,2.125,0
62060,-5.6875,5.5625,2.25,0
62080,-3.625,5.3125,1.4375,0
62100,-5.375,5.5625,0.625,0
62120,-6.875,6.875,3.125,0
62140,-5.5,5.625,7.0625,0
62160,-3.75,5,7.25,0
62180,-5.5,7.25,3.5625,0
62200,-11.625,10.75,7,0
62220,-12.125,6.1875,10.0625,0
62240,-11.625,1.875,10.8125,0
62260,-4.9375,0.375,10.875,0
62280,-3.875,-1.3125,6.9375,0
62300,-3,-3.625,8.5625,0
62320,-2.75,-5.25,12.0625,0
62340,-0.75,-5.4375,11.25,0
62360,1.1875,-6.3125,9.125,0
62380,-0.5,-7.9375,8.3125,0
62400,-2.125,-8.6875,8.25,0
62420,-0.8125,-8.5625,8.4375,0
62440,-0.75,-8.875,7.5,0
62460,-2.5,-9.0625,3.3125,0
62480,-1.8125,-5,-1.75,0
62500,1.1875,-3.6875,-5.5,0
62520,0.6875,-7.5,-6.125,0
62540,-2.125,-5.5,-7,0
62560,-1.25,-2.625,-11.125,0
62580,-5.0625,-3.5,-14.5625,0
62600,-5,-2.6875,-13.375,0
62620,-5.5625,-3.4375,-15.25,0
62640,-4.625,-1.875,-16.125,0
62660,-4.3125,1.1875,-16.875,0
62680,-8.0625,2.1875,-16.75,0
62700,-15.125,3.375,-15.3125,0
62720,-13.3125,7.1875,-18.25,0
62740,-7.625,7.0625,-21.5,0
62760,-6.625,8.0625,-20.9375,0
62780,-9.75,9.625,-19.5625,0
62800,-6,9.3125,-20.8125,0
62820,-4.75,5.1875,-18.3125,0
62840,-7.75,2.75,-13.875,0
62860,-7.5,0,-9.375,0
62880,-4.625,-3.8125,-8.0625,0
62900,-3.5625,-6.875,-5.5,0
62920,-4.1875,-8.0625,0.5625,0
62940,-0.625,-7.875,2.0625,0
62960,0.5,-5.625,2,0
62980,1.0625,-8.5,10,0
63000,0.6875,-14.625,16.1875,0
63020,1.25,-16.3125,17.75,0
63040,0.5625,-11.8125,15.0625,0
63060,5.4375,-9.8125,11.3125,0
63080,9.5625,-4.125,11.75,0
63100,8.4375,-1.5625,12.625,0
63120,8.125,-2.5625,16.4375,0
63140,3.125,5.9375,18.9375,0
63160,5.6875,13.6875,18.6875,0
63180,6.4375,11.6875,15.9375,0
63190,2.125,12.375,14.6875,0
63210,-0.6875,14.5625,17.1875,0
63230,0.875,10.5625,12.875,0
63250,2.9375,8.875,7.375,0
63270,5.625,8.6875,5.25,0
63290,3.25,5.3125,4.1875,0
63310,1.1875,2.4375,1.625,0
63330,1.75,5.1875,1.5,0
63350,3.8125,4.3125,1.4375,0
63370,1.3125,3.6875,1,0
63390,-2.0625,6.375,0.5625,0
63410,-3.125,6.6875,-0.1875,0
63430,-1.4375,3.875,0,0
63450,-5.4375,4.9375,0.1875,0
63470,-5.25,8,3.0625,0
63490,-2.25,7.875,0.5,0
63510,-4.1875,7.0625,-3.6875,0
63530,-6.6875,7.5625,-1.375,0
63550,-6,6.1875,0.0625,0
63570,-6,6.125,-1.0625,0
63590,-8,8.4375,-1.6875,0
63610,-6.3125,7.625,0.0625,0
63630,-1.375,5.5,-0.6875,0
63650,-3.9375,6.25,-4.3125,0
63670,-6.9375,7.4375,-2.125,0
63690,-4.375,4.375,0.125,0
63710,-3.5,3.4375,-1.1875,0
63730,-6.375,6.75,-0.375,0
63750,-9.25,8.4375,1,0
63770,-8,6.5,0.625,0
63790,-4.75,1.8125,1.1875,0
63810,-2.9375,0.875,3.9375,0
63830,-2.0625,2.6875,5.5625,0
63850,-4.125,2.375,6.125,0
63870,-6.75,1.1875,6.8125,0
63890,-1.5625,0.4375,6.8125,0
63910,4.6875,-1.375,5.1875,0
63930,3.25,-2.3125,5.0625,0
63950,0.6875,-2.0625,4.6875,0
63970,2.5625,-3.0625,3.625,0
63990,3.375,-2.6875,3.4375,0
64010,3.0625,-1,2.375,0
64030,2.6875,-1.1875,2.625,0
64050,0.5,-1.5625,1.0625,0
64070,-0.875,-0.125,0,0
64090,-0.8125,-0.8125,-0.6875,0
64110,-1.4375,-1.875,-2.0625,0
64130,-1.0625,-0.875,-2.25,0
64150,-1.375,-0.4375,-2.875,0
64170,-1.9375,-1.625,-3.125,0
64190,-3.875,-0.75,-4.3125,0
64210,-5.875,-0.375,-5.5,0
64230,-4.75,-0.1875,-6.5625,0
64250,-5.25,1.6875,-8.125,0
64270,-4.1875,3.8125,-8.4375,0
64290,-3.875,4.5,-8.9375,0
64310,-7.3125,4.8125,-9.125,0
64330,-7.875,4.625,-7.875,0
64350,-5.625,3.9375,-8.1875,0
64370,-4.125,4.1875,-7.625,0
64390,-5.25,1.6875,-4.9375,0
64410,-5.875,-0.875,-4.875,0
64430,-2.6875,-1.5625,-5.125,0
64450,-1.25,-4.0625,-3.6875,0
64470,-2,-7.8125,0.1875,0
64490,2.625,-8.9375,1.8125,0
64510,1.1875,-8,2,0
64530,0.5625,-8.5625,5,0
64550,0.875,-6.4375,8.375,0
64570,1.75,-5.0625,9.875,0
64590,2.5625,-4.375,10.6875,0
64610,-4.5,-1.9375,12.0625,0
64630,1.25,-2.25,13.125,0
64650,2.5625,-3.125,12.5625,0
64670,3.125,-0.25,12.25,0
64690,1.375,1.0625,13,0
64710,4.125,0.8125,10.9375,0
64730,6.8125,0.5,8.125,0
64750,2.75,3.3125,6.375,0
64770,2.4375,3.625,8.75,0
64790,3.0625,0.6875,9.25,0
64810,2.8125,1.125,6.75,0
64830,1.6875,5.375,3.5625,0
64850,2.4375,3.375,2.25,0
64870,4.125,2.6875,1.25,0
64890,2.25,5.0625,1.375,0
64910,0.1875,5.5,2.6875,0
64930,-0.8125,5.4375,3.125,0
64950,-2.25,6.75,-0.0625,0
64970,-2.25,6.25,-0.6875,0
64990,0,3.9375,-0.3125,0
65010,0.9375,3.6875,-0.5,0
65030,-3.25,5.125,-0.3125,0
65050,-2.375,5.1875,-2.25,0
65070,0.1875,5.125,-4.8125,0
65090,0.375,3.4375,-3,0
65110,-3,2.8125,-1.125,0
65130,-4.375,2.875,-1,0
65150,-4.4375,3.25,-1.5,0
65170,-2.3125,2.25,-2.1875,0
65190,-2.125,2.0625,-3,2000
65210,-0.8125,1.5625,-3.75,0
65230,-0.4375,0.1875,-4.3125,0
65250,-2.375,0.25,-3.0625,0
65270,-2,1.0625,-2.5625,0
65290,-1.3125,1.6875,-3.5625,0
65310,0.125,-0.6875,-2.5625,0
65330,-2.875,-0.75,0.1875,0
65350,-6.125,0.5,0.5625,0
65370,-1.4375,-0.1875,0.75,0
65390,-0.9375,-0.0625,2.25,0
65410,-2.6875,1.75,3.5625,0
65430,-2.5,2.25,2.6875,0
65450,-2.25,1.1875,1.875,0
65470,-3.5625,0.875,4,0
65490,-1.75,2.0625,3.5625,0
65510,0.625,2.625,1.6875,0
65530,-0.375,1.4375,2.6875,0
65550,-2.625,0.1875,4.0625,0
65570,-1.875,-0.0625,3.4375,0
65590,0.25,0.4375,2.5625,0
65610,-1.8125,0.75,3.4375,0
65630,-2.5625,0.3125,4.25,0
65650,-1.875,1.125,3.125,0
65670,-1.0625,3.25,-0.1875,0
65690,-0.125,3.6875,-0.125,0
65710,1.6875,3.375,0.25,0
65730,-1.9375,4.1875,-0.6875,0
65750,-1.75,6.25,-1.375,0
65770,1.875,7.5625,-3,0
65780,1.625,7.4375,-4.3125,0
65800,-1.9375,6.8125,-3.875,0
65820,-2.875,7.4375,-5.625,0
65840,-0.25,7.1875,-9.4375,0
65860,1.125,6.6875,-10.125,0
65880,-3.375,7.5625,-10.3125,0
65900,-5.375,9.125,-14.3125,0
65920,-6.1875,9.9375,-16.3125,0
65940,-6.8125,11.5625,-13.3125,0
65960,-10.8125,13.375,-11.5,0
65980,-11.5,15.25,-15.4375,0
66000,-13.375,16.6875,-16.375,0
66020,-15.6875,16.375,-17.625,0
66040,-16.125,15.625,-20.1875,0
66060,-17.5625,16.375,-21.875,0
66080,-15.8125,16.8125,-22.0625,0
66100,-17.6875,15.1875,-23.5,0
66120,-23,15.3125,-23.0625,0
66140,-22.6875,17.4375,-22.5625,0
66160,-22.25,18,-24.8125,0
66180,-22,17.625,-26.0625,0
66200,-26.6875,19,-24.0625,0
66220,-29.375,22.0625,-24.6875,0
66240,-27.4375,21.9375,-26.1875,0
66260,-28.5625,21.8125,-26.5625,0
66280,-29.9375,24.5625,-27.9375,0
66300,-25.3125,27.8125,-31.1875,0
66320,-24,27.9375,-33.0625,0
66340,-31.375,28.0625,-30.25,0
66360,-32.5625,28.5625,-29.875,0
66380,-26.875,28.4375,-35.5,0
66400,-27.25,28.25,-35.75,0
66420,-34.9375,26.4375,-32.75,0
66440,-34.6875,26.125,-33.5,0
66460,-32.0625,25.3125,-37.1875,0
66480,-35.0625,22.9375,-38.125,0
66500,-32,19.9375,-39.375,0
66520,-33.5625,21,-40,0
66540,-41.5,18.4375,-36.0625,0
66560,-34.6875,15.625,-33.5,0
66580,-36.1875,16.8125,-33.5625,0
66600,-39.5,15.25,-29.5,0
66620,-32.75,7.625,-25.5625,0
66640,-22.625,4.8125,-22.875,0
66660,-27.0625,4.4375,-20.875,0
66680,-30.25,-0.9375,-17.125,0
66700,-26.875,-4.125,-13.5,0
66720,-15.4375,-9,-11.125,0
66740,-16.8125,-10.25,-7.1875,0
66760,-19.4375,-13.625,-0.375,0
66780,-20.5625,-19,4.6875,0
66800,-15.5,-22.0625,5.5,0
66820,-13.9375,-24,9.75,0
66840,-13.25,-24.6875,11.5625,0
66860,-11.3125,-27,13.4375,0
66880,-6.8125,-29.3125,15.625,0
66900,-2.4375,-31.125,18.625,0
66920,-3.5,-32.4375,24.375,0
66940,-3.0625,-35.9375,24.5,0
66960,-0.5,-39.125,24.25,0
66980,2.25,-44.1875,29.6875,0
67000,1.25,-48.5,31.9375,0
67020,2.4375,-52.375,33.4375,0
67040,7.625,-56.6875,32,0
67060,10.5625,-61.6875,32.9375,0
67080,12.1875,-63.3125,30.375,0
67100,11.4375,-63.8125,29.125,0
67120,9.0625,-64.875,31.625,0
67140,8.25,-64.3125,32.875,0
67160,5.0625,-63.625,32.375,0
67180,-0.4375,-64.0625,35,0
67200,2.1875,-63.375,30.125,0
67220,8.125,-63.875,23.9375,0
67240,8.1875,-66.4375,25.1875,0
67260,-2.5,-67.5,30.3125,0
67280,-7.6875,-64.6875,27.6875,0
67300,-5.875,-63.375,22.25,0
67320,-2.5,-63.0625,20.5,0
67340,-5.3125,-61.5,20.75,0
67360,-7.75,-55.3125,15.6875,0
67380,-0.1875,-49.25,4.9375,0
67400,4.25,-46.4375,-1.1875,0
67420,2.375,-40.3125,-4.3125,0
67440,-0.125,-34.3125,-7.5625,0
67460,-3,-32.875,-11.9375,0
67480,-7.6875,-29.4375,-18.0625,0
67500,-7.6875,-25,-25.6875,0
67520,-6.5625,-16.625,-32.8125,0
67540,-2.9375,-11.625,-35.375,0
67560,-9.5,-14.9375,-36.4375,0
67580,-17.375,-7.3125,-40.9375,0
67600,-21.1875,5.25,-44.9375,0
67620,-21,16.625,-46.5625,0
67640,-18.0625,24.25,-49,0
67660,-26.875,24.375,-46.5625,0
67680,-31.4375,38.5625,-47.0625,0
67700,-26.0625,45.5,-52.4375,0
67720,-26.5,43.875,-51.3125,0
67740,-35.75,45.4375,-45.875,0
67760,-38.8125,52.1875,-45.125,0
67780,-35.3125,56.875,-49,0
67800,-34.625,58.1875,-48.625,0
67820,-37.125,56.75,-45.1875,0
67840,-34.125,57.1875,-43.8125,0
67860,-28.6875,58.625,-46.125,0
67880,-27.8125,56.25,-44.8125,0
67900,-28.3125,53,-39.5625,0
67920,-35.3125,54.875,-28.4375,0
67940,-25.5625,51.625,-25.1875,0
67960,-31.4375,52.375,-23.8125,0
67980,-28.0625,52.6875,-8.4375,0
68000,-16,37,-4.5,0
68020,-24.4375,31.6875,-2.4375,0
68040,-25.25,25.9375,9.5625,0
68060,-15,9.0625,11.75,0
68080,-9,1.875,10.9375,0
68100,-16.125,-2.3125,16.1875,0
68120,-12.625,-7.0625,21.8125,0
68140,-1.5625,-17.4375,25.75,0
68160,9.1875,-24.1875,24.375,0
68180,4.1875,-22.9375,26.3125,0
68200,4.5,-25,29.125,0
68220,20.6875,-32.125,27.3125,0
68240,24.5,-34.4375,28.5625,0
68260,18.6875,-35.375,30.3125,0
68280,20,-36.625,29.8125,0
68300,28.0625,-39.6875,28.75,0
68320,32.1875,-42.75,30.5,0
68340,23.1875,-43.75,33.5625,0
68360,19.375,-44.75,38.1875,0
68380,22.3125,-47.3125,36.5,0
68390,23.375,-48,33.9375,0
68410,19.125,-49.375,35.625,0
68430,18.875,-51,36.0625,0
68450,22.8125,-52.125,30.6875,0
68470,19.9375,-52.75,29.0625,0
68490,9.875,-53.625,32.4375,0
68510,9.5625,-54,30.75,0
68530,10.6875,-53.625,23.5,0
68550,10.0625,-55.25,19.9375,0
68570,5,-56.5625,20.5,0
68590,6.8125,-54.25,10.4375,0
68610,12.1875,-51.0625,-1.625,0
68630,15.5,-48.25,-8.8125,0
68650,11.6875,-46.375,-14.875,0
68670,8.1875,-46.25,-18.1875,0
68690,-1.5,-39.4375,-23.3125,0
68710,-4.6875,-30.125,-25.9375,0
68730,-2.8125,-26.6875,-30.4375,0
68750,-2.25,-22.25,-34.125,0
68770,-14.875,-12.375,-33.75,0
68790,-16.5,-8.125,-36.875,0
68810,-15.1875,-7.75,-40.4375,0
68830,-16.75,-1.5,-44.625,0
68850,-25.4375,10.1875,-47.625,0
68870,-22.8125,11.1875,-48.875,0
68890,-28.3125,12.375,-48.1875,0
68910,-31.1875,18.3125,-49.375,0
68930,-35.0625,27.375,-52.4375,0
68950,-36.1875,30.5,-49.625,0
68970,-40.1875,32.625,-47.1875,0
68990,-34.75,36.625,-52.8125,0
69010,-36.5,38.625,-55.75,0
69030,-39.1875,43.3125,-53.4375,0
69050,-32.0625,47.375,-54.5,0
69070,-28.25,48.8125,-52.375,0
69090,-30.4375,51.3125,-45.1875,0
69110,-30.375,54.8125,-42.875,0
69130,-23.4375,57.6875,-41.5625,0
69150,-19.4375,56,-36.75,0
69170,-17.75,58.75,-29,0
69190,-23.4375,65.9375,-20.25,0
69210,-18.0625,63.5,-15.9375,0
69230,-13.5,60.9375,-8,0
69250,-8.0625,62.5625,2.4375,0
69270,0.3125,53.25,7.0625,0
69290,-6.5625,47.25,12,0
69310,-9.5,44.125,21.4375,0
69330,6.5625,32.8125,24.5,0
69350,11.5,21.625,24.9375,0
69370,-0.5625,14.375,32.5,0
69390,-2.125,4.5,37.5625,0
69410,9.75,-7,33.8125,0
69430,17.4375,-17.1875,34.6875,0
69450,10.9375,-23.9375,41,0
69470,11.25,-31.5625,42,0
69490,17.875,-36.6875,35.9375,0
69510,22.3125,-41.6875,33.9375,0
69530,18.3125,-46.625,38.6875,0
69550,20.4375,-50.625,38.1875,0
69570,22.1875,-52.875,37.75,0
69590,20.1875,-53.875,35,0
69610,16.5,-56.75,38.375,0
69630,21.0625,-58.4375,37.9375,0
69650,19.3125,-59.25,34.8125,0
69670,12.5625,-60.375,38.6875,0
69690,12.25,-61.3125,37.5625,0
69710,12.4375,-62.4375,33.125,0
69730,10.25,-63.375,30.75,0
69750,7.25,-63.4375,29.125,0
69770,8.75,-61.75,24.3125,0
69790,8.9375,-61,17.125,0
69810,5.375,-61.3125,15.25,0
69830,2.4375,-57.4375,8.875,0
69850,4.5,-53.3125,-0.5625,0
69870,8.875,-48.375,-12.6875,0
69890,7.25,-43.75,-15.1875,0
69910,8.25,-38.8125,-19.4375,0
69930,2.8125,-30.75,-25.0625,0
69950,-1.1875,-24.3125,-24.875,0
69970,2.5,-16.875,-28.0625,0
69990,5.6875,-8.875,-31.3125,0
70010,-5.3125,-5.6875,-25.0625,0
70030,-11.75,-2.6875,-21.625,0
70050,-11.6875,3.0625,-24.1875,0
70070,-6.4375,6.8125,-27.1875,0
70090,-8.9375,8.375,-25.0625,0
70110,-11.25,10.5625,-25.1875,0
70130,-10.9375,14.0625,-26.4375,0
70150,-6.25,15.125,-27.875,0
70170,-7.1875,13.875,-26.375,0
70190,-10.75,14.0625,-24.25,0
70210,-11.1875,16.0625,-23.4375,0
70230,-10.875,16.4375,-24,0
70250,-7.75,12.4375,-21.625,0
70270,-9.625,9.4375,-17.9375,0
70290,-10.1875,9,-14.625,0
70310,-11.25,7.5625,-9.3125,0
70330,-9.375,4.875,-5.5,0
70350,-8.5625,4.9375,-6.5625,0
70370,-9,3.6875,-2.625,0
70390,-5,0.0625,0.5,0
70410,-6.4375,0.6875,0.1875,0
70430,-2.5,1.1875,-0.5625,0
70450,-1.1875,-0.875,1.375,0
70470,-0.625,-2.125,1.5625,0
70490,-1.75,-0.75,-0.1875,0
70510,0.4375,-1.25,-0.5,0
70530,5.3125,-1.9375,-2.0625,0
70550,2.4375,-2.0625,-3.0625,0
70570,2.5625,-6.75,-1.9375,0
70590,4.0625,-9.5625,0.875,2001
70610,3.625,-10.6875,1.25,0
70630,3,-10.75,0.1875,0
70650,2.875,-9.5625,-1.9375,0
70670,6.25,-10.5,-3.5,0
70690,4.0625,-9.375,-2.625,0
70710,5.125,-9.25,-1.25,0
70730,5.5,-7.6875,-2.4375,0
70750,4,-7.0625,-2.1875,0
70770,5.3125,-7.0625,-2.25,0
70790,2.875,-6.875,-3,0
70810,4.25,-7.0625,-1.4375,0
70830,4.625,-5.5625,-4.125,0
70850,7.625,-5.625,-6.8125,0
70870,4.1875,-5.0625,-6.3125,0
70890,3.25,-5.6875,-5.625,0
70910,2.5,-8.125,-4.9375,0
70930,4.8125,-10.0625,-3.3125,0
70950,6.9375,-8.6875,-5.5625,0
70970,7.5625,-3,-7.3125,0
70980,14.875,2.8125,-7.9375,0
71000,20.8125,7.8125,-4.3125,0
71020,27.125,7.5,3.5,0
71040,28.8125,7.375,7.625,0
71060,26.5625,12.375,12.5,0
71080,34.125,17.25,15.5625,0
71100,45.4375,24.125,11.9375,0
71120,53.0625,27.75,10.875,0
71140,52.9375,30.125,22.375,0
71160,51.0625,32.0625,33.0625,0
71180,53.25,34,27.5,0
71200,53.75,45,27.375,0
71220,57.875,45.125,41.125,0
71240,59.3125,42.0625,45.9375,0
71260,58,40.1875,43.625,0
71280,54.1875,43.3125,49.4375,0
71300,49.6875,42.375,55.375,0
71320,51.875,40.25,51.3125,0
71340,46.4375,41.125,48.5625,0
71360,46.75,35.0625,53.1875,0
71380,44.1875,27.125,54.9375,0
71400,34.125,22.75,51.625,0
71420,31.875,16.25,51.4375,0
71440,30.125,10.875,50.5625,0
71460,29.8125,9.5,40.875,0
71480,31.25,8.0625,36.9375,0
71500,32.9375,11,44.5,0
71520,24.8125,12.125,47.9375,0
71540,27.875,15.3125,42.4375,0
71560,25,18,40.9375,0
71580,17.875,19.0625,46,0
71600,17.5,17.25,40.75,0
71620,20.5625,15.1875,26.8125,0
71640,20.1875,14.5625,21.75,0
71660,11.6875,14.1875,23.625,0
71680,9.3125,10.3125,21.5625,0
71700,12.75,8.875,14.125,0
71720,11.6875,8.875,9.3125,0
71740,5.375,8.6875,6.6875,0
71760,2.8125,6.625,4.6875,0
71780,1.5625,3.1875,4.4375,0
71800,2.3125,1.0625,4.125,0
71820,0.1875,1.25,2.5,0
71840,-2.3125,0.9375,1.4375,0
71860,-2.25,0.9375,1.0625,0
71880,2.0625,1.1875,-0.8125,0
71900,0.1875,2.1875,0.0625,0
71920,-2.375,3.25,3.875,0
71940,-0.8125,2.4375,2.3125,0
71960,-0.3125,0.75,-0.25,0
71980,0.75,0.9375,1.75,0
72000,-1.6875,2.5,2.875,0
72020,-4.125,2.0625,2.0625,0
72040,-2.375,2.625,1.9375,0
72060,1.125,2.4375,0.0625,0
72080,0.5,2.4375,0.3125,0
72100,-1.8125,4.0625,5.375,0
72120,0.0625,3.0625,6.625,0
72140,2,0.1875,4.5625,0
72160,-0.8125,0.6875,2.9375,0
72180,-1.875,3.6875,5.25,0
72200,1.375,1.5,7.0625,0
72220,2.3125,-2.125,7.375,0
72240,0.8125,-4.0625,8.625,0
72260,1.9375,-4.25,8.375,0
72280,1.8125,-5.25,8.3125,0
72300,3.125,-6.5,8.0625,0
72320,3.1875,-5.625,7.9375,0
72340,3.9375,-5.9375,9.625,0
72360,1.125,-5,10.9375,0
72380,0,-3.4375,10.875,0
72400,0.25,-2.0625,8.75,0
72420,-0.3125,-1.1875,8.8125,0
72440,1.125,-1.625,7.9375,0
72460,0.5625,-2.375,6.5625,0
72480,0.9375,-2.1875,6.9375,0
72500,2.4375,-2.5625,3.6875,0
72520,1.5625,-3.625,1.5,0
72540,-1.1875,-4.125,1.6875,0
72560,-3.0625,-2.625,1.75,0
72580,1.0625,-2.6875,-1.25,0
72600,1,-1.625,-3.1875,0
72620,-5.3125,-1.25,-2.4375,0
72640,-4.5,3.375,-4.5,0
72660,0.5625,6.8125,-8.1875,0
72680,0.3125,7.1875,-7.125,0
72700,-3.5,4.5625,-4.375,0
72720,-2.375,3.4375,-5.3125,0
72740,-0.375,2.625,-8.125,0
72760,-1.1875,1.125,-7.125,0
72780,-4.25,-2.4375,-5.1875,0
72800,0.125,-5.25,-5.6875,0
72820,1.375,-7.3125,-6.9375,0
72840,0.0625,-10.3125,-5.375,0
72860,-3.0625,-9.75,-3.75,0
72880,2.6875,-11.0625,-6.0625,0
72900,6.0625,-11.0625,-6.125,0
72920,2.5625,-9.9375,1.625,0
72940,-1.0625,-6.875,6.3125,0
72960,2.3125,-3.875,2.1875,0
72980,2.875,2.8125,3.5,0
73000,-0.625,10.125,11.125,0
73020,1.375,9.5,12.4375,0
73040,0.125,11.5,12.5625,0
73060,-3.625,12.9375,15.6875,0
73080,2,11.375,13.8125,0
73100,0.0625,7.8125,7.9375,0
73120,-4.25,8.125,5.25,0
73140,-1.3125,7,2.9375,0
73160,2.625,7.0625,1,0
73180,3.1875,4.25,-0.625,0
73200,-0.625,3.375,-1.375,0
73220,-3.5,6.25,0.1875,0
73240,-2.625,5.875,-0.25,0
73260,-2,3.875,-2.375,0
73280,-0.6875,3.625,-0.3125,0
73300,-2.625,4.4375,1.125,0
73320,-4,3.3125,1,0
73340,-4.125,2.9375,-0.1875,0
73360,-4.4375,3.6875,0,0
73380,-0.9375,3.25,0.125,0
73400,0.5,3.5,-1.5625,0
73420,-1.3125,2.125,0.3125,0
73440,-1.75,2.1875,1.375,0
73460,-0.25,3.3125,-1.3125,0
73480,0.75,2.5625,-1.875,0
73500,-0.125,-0.4375,0.25,0
73520,-2.0625,-1.25,0.1875,0
73540,1.8125,-1.3125,0.125,0
73560,0.875,-2.1875,1.9375,2000
73580,-5.25,-1.6875,2.4375,0
73590,-3.5,-0.5,-0.125,0
73610,2.1875,-1.5625,-2.4375,0
73630,4.6875,-3.125,0.125,0
73650,-0.6875,-3.6875,1.625,0
73670,-2.0625,-4.6875,0.875,0
73690,-0.25,-5.5,-0.5,0
73710,2,-5.25,0,0
73730,1.0625,-6.25,0.375,0
73750,1,-6.75,1.9375,0
73770,-0.8125,-6.625,3.4375,0
73790,-2.75,-6.4375,3.5,0
73810,0.6875,-6,1.9375,0
73830,1.1875,-6.25,2,0
73850,-0.6875,-6.3125,3.8125,0
73870,-2.0625,-5.625,6.625,0
73890,-0.125,-6.3125,5.1875,0
73910,2.0625,-7.5625,-0.1875,0
73930,-2.25,-8,1.1875,0
73950,-3.625,-8.375,5.3125,0
73970,-0.75,-10.3125,5,0
73990,1.125,-11.5625,2.4375,0
74010,-2.8125,-11.3125,1.6875,0
74030,-5.4375,-10.375,4.0625,0
74050,-1.125,-9.375,2.75,0
74070,3.8125,-7.625,-0.375,0
74090,-0.25,-7.1875,1.8125,0
74110,-2.4375,-4.5625,5.25,0
74130,0.625,-3.875,4.125,0
74150,2.1875,-6.6875,2.6875,0
74170,1.3125,-6.8125,5.9375,0
74190,-5.25,-4.625,7.875,0
74210,-0.1875,-2,2.875,0
74230,0.75,-0.5625,-3.75,0
74250,-3.375,3,-4.75,0
74270,-3.8125,8,-6.25,0
74290,-2.3125,12.625,-11.125,0
74310,-0.8125,15.5625,-15.0625,0
74330,-6,20,-15.75,0
74350,-10.1875,25.8125,-18.1875,0
74370,-7.0625,32.3125,-21.5625,0
74390,-7.4375,35.625,-21.3125,0
74410,-14,35.375,-20.375,0
74430,-19.6875,34.625,-22.5,0
74450,-19.8125,36.6875,-26.0625,0
74470,-18.3125,39.0625,-30.1875,0
74490,-20.625,39.3125,-30.75,0
74510,-29.9375,43,-28.25,0
74530,-26.375,46.75,-32.5,0
74550,-23.625,51,-38.5,0
74570,-26.375,52.6875,-38.4375,0
74590,-30.1875,54.25,-39.8125,0
74610,-32.0625,54.5625,-41.9375,0
74630,-30.1875,54,-47.9375,0
74650,-30.0625,51.8125,-52.8125,0
74670,-33.125,48.625,-55.75,0
74690,-33.75,43.9375,-57.25,0
74710,-32.125,41,-58.4375,0
74730,-35.3125,37.1875,-56.75,0
74750,-39.4375,36.0625,-53.0625,0
74770,-42.1875,36.125,-51.8125,0
74790,-41.125,36.25,-49.0625,0
74810,-39.3125,33.9375,-46.9375,0
74830,-45.8125,36.25,-40.3125,0
74850,-41.0625,29.0625,-38.625,0
74870,-37.375,21.4375,-39.8125,0
74890,-36.1875,21.875,-36,0
74910,-42.5,21.875,-26.875,0
74930,-30.9375,9.6875,-21.75,0
74950,-26.25,2.6875,-17.0625,0
74970,-32.625,6.875,-12.5,0
74990,-32.25,0.5,-5.4375,0
75010,-12,-11.625,-4.9375,0
75030,-7.25,-13.5625,-2.25,0
75050,-12.75,-14,6.9375,0
75070,-14.375,-22.6875,14.5625,0
75090,-2.5,-29.5,15.4375,0
75110,-3.9375,-31.75,16.125,0
75130,-1.5625,-35.6875,25.6875,0
75150,2.8125,-37.875,30.6875,0
75170,7.25,-41.5,26.8125,0
75190,10.125,-45.1875,26.25,0
75210,11.6875,-46.375,33.375,0
75230,19.375,-50.0625,36.9375,0
75250,25.75,-51.625,34.3125,0
75270,21.8125,-51.375,36.5625,0
75290,19.875,-55,41.25,0
75310,25.3125,-57.375,39.875,0
75330,27.6875,-56.625,35.3125,0
75350,28.4375,-58.6875,34.125,0
75370,28.1875,-61.4375,36.5625,0
75390,23.0625,-63.9375,37.4375,0
75410,19.5,-65.5625,36.1875,0
75430,18.0625,-66.25,38.5625,0
75450,19.625,-67.125,35.375,0
75470,18.375,-66.5,32.5625,0
75490,12.625,-65.875,33.5625,0
75510,8.5625,-64.6875,30.0625,0
75530,11,-61.875,21,0
75550,12.375,-59.1875,14.875,0
75570,8.625,-58.9375,14.4375,0
75590,4.3125,-59.625,12.5,0
75610,-3.875,-56.25,5.1875,0
75630,-0.1875,-53.375,-4.5,0
75650,-0.5625,-51.3125,-9.1875,0
75670,-1.5625,-49.375,-12.9375,0
75690,-3.5625,-47.5,-20.9375,0
75710,-9.9375,-45.125,-28.5625,0
75730,-7.125,-42.75,-34.4375,0
75750,-10.5625,-37.375,-37.8125,0
75770,-14.3125,-30.0625,-39.4375,0
75790,-13.3125,-22.1875,-45.3125,0
75810,-20.125,-11.5625,-47.875,0
75830,-21.5,-4,-46.6875,0
75850,-29.4375,6.125,-49.9375,0
75870,-32.0625,13.9375,-52.4375,0
75890,-36.9375,23.0625,-51.625,0
75910,-37.9375,30.9375,-50.125,0
75930,-39.5,34,-52,0
75950,-44.5625,44.125,-50.8125,0
75970,-43.75,47.4375,-49.5625,0
75990,-39.0625,48.875,-54.0625,0
76010,-44.75,51.0625,-54.4375,0
76030,-46.8125,57.625,-52.875,0
76050,-44,61.0625,-51.875,0
76070,-42.875,62.0625,-49.6875,0
76090,-46.25,61.5,-45.75,0
76110,-42.1875,62.8125,-43.0625,0
76130,-39.375,61.0625,-42.9375,0
76150,-35.1875,58.25,-41.5625,0
76170,-46.125,61.1875,-35.0625,0
76190,-43.8125,63.4375,-21.5625,0
76200,-35.3125,52.1875,-16.3125,0
76220,-30.375,49.8125,-15.125,0
76240,-36.8125,54.125,-8.875,0
76260,-26.8125,41.3125,-0.875,0
76280,-27.5,35.5625,4.25,0
76300,-19.0625,24.25,12.5625,0
76320,-11.5,8.375,16.4375,0
76340,-11.5,-0.875,15.5,0
76360,-12.125,0.1875,18.5,0
76380,-11.3125,-9.4375,30.25,0
76400,17.5625,-27.125,37.3125,0
76420,4.625,-26.5625,40.5625,0
76440,-9.1875,-30.5625,52.875,0
76460,0.1875,-40.3125,46.8125,0
76480,20.5,-43.9375,39.5625,0
76500,16.125,-45,44.1875,0
76520,24.875,-51.5,44.3125,0
76540,19.1875,-54.9375,41.8125,0
76560,26.4375,-57.75,41.9375,0
76580,26.9375,-56.0625,34.75,0
76600,26.125,-55.4375,36.3125,0
76620,27.6875,-59.375,39.5625,0
76640,26.3125,-62.9375,38.875,0
76660,19.125,-64,33.6875,0
76680,26.75,-61.5,29.25,0
76700,29.75,-63.25,27.625,0
76720,22.625,-65.625,27.6875,0
76740,12.1875,-65.375,26.1875,0
76760,13.0625,-64.3125,19.25,0
76780,17.625,-62.9375,12.8125,0
76800,15.25,-62.625,11.125,0
76820,7.0625,-59.3125,6.9375,0
76840,3.875,-55.1875,-2.8125,0
76860,4.75,-50.875,-12.625,0
76880,7.5,-47.125,-20.875,0
76900,1.25,-38.625,-27.1875,0
76920,-0.75,-32.4375,-34.625,0
76940,-2.5625,-27.625,-41.125,0
76960,-9.625,-21.1875,-41.625,0
76980,-15.625,-14.8125,-45.1875,0
77000,-21.875,-9.875,-49.125,0
77020,-24.125,-2.4375,-54.1875,0
77040,-22,2.75,-58.5625,0
77060,-27.125,2.5625,-60,0
77080,-30.0625,7.1875,-57.625,0
77100,-36.25,13.625,-61,0
77120,-33.4375,18.0625,-66,0
77140,-34.9375,21.75,-68,0
77160,-37.5625,30.125,-65.75,0
77180,-38.4375,32.4375,-64.25,0
77200,-39.4375,39.0625,-62.125,0
77220,-32.1875,44.0625,-63.0625,0
77240,-32.1875,47.625,-64.125,0
77260,-35.0625,52.8125,-58,0
77280,-31.4375,56.8125,-50.125,0
77300,-21.3125,60.4375,-48.25,0
77320,-19.5625,61,-44.125,0
77340,-24.6875,60.3125,-33.8125,0
77360,-20.8125,64.1875,-25.25,0
77380,-7.6875,62.375,-24.8125,0
77400,-5.1875,62.5625,-19.5,0
77420,-9.0625,59.125,-5.5625,0
77440,-9,60.3125,0.375,0
77460,-5.5,63.8125,6.3125,0
77480,4.8125,56.875,19.1875,0
77500,8.375,49,29.5,0
77520,1.875,42,35.8125,0
77540,-2.875,32.875,41.3125,0
77560,2.875,19.3125,42.75,0
77580,7.6875,6.5,45.3125,0
77600,3,-5.125,52.5,0
77620,3.625,-16.1875,54.375,0
77640,2.125,-26.0625,52.125,0
77660,12.0625,-33.8125,51.8125,0
77680,18.5625,-41.9375,52,0
77700,16.75,-47.3125,53.4375,0
77720,18.0625,-51.3125,55.9375,0
77740,27.625,-57.6875,50.125,0
77760,28.0625,-60.75,47.875,0
77780,24.5625,-64.1875,50.0625,0
77800,25.0625,-66.625,47.875,0
77820,22,-65.5625,45.0625,0
77840,18.5,-67.625,42.5,0
77860,17.4375,-71.3125,39.3125,0
77880,15.625,-73.25,33.5625,0
77900,19.0625,-74.4375,25,0
77920,15.5625,-74.625,19.125,0
77940,8.75,-73.125,16.4375,0
77960,8.8125,-68.9375,8,0
77980,8.0625,-64,0.125,0
78000,4.8125,-57.4375,-6.6875,0
78020,5.375,-49,-17.25,0
78040,5.875,-42.9375,-24.875,0
78060,2.6875,-36.0625,-28.625,0
78080,-2.5,-25.6875,-32.125,0
78100,-3.25,-16.75,-33.3125,0
78120,-4.5625,-12.625,-30.1875,0
78140,-9.25,-9.4375,-30.0625,0
78160,-14.3125,-3.0625,-30.1875,0
78180,-17.8125,0.25,-28.5,0
78180,-17.3125,1.6875,-27.625,0
78190,-17.0625,6.125,-26.5,0
78210,-15.5,7.25,-29.75,0
78230,-12.375,7.0625,-27.5625,0
78250,-13.5,5.25,-26.4375,0
78270,-13.5,4.3125,-28.125,0
78290,-11.6875,1.3125,-29.4375,0
78310,-11.4375,0.75,-28.875,0
78330,-9.75,0.1875,-27.0625,0
78350,-10.6875,-1.5,-25.9375,0
78370,-9.8125,0.375,-24.4375,0
78390,-4.375,1,-23.6875,0
78410,-5.5625,1.375,-22,0
78430,-7.125,3.25,-18.125,0
78450,-11.0625,3.875,-14.4375,0
78470,-3.3125,1.8125,-13.125,0
78490,-2.0625,1.5,-13.75,0
78510,-4.4375,2.125,-9.5625,0
78530,-2.0625,-3.8125,-4.3125,0
78550,2.5625,-12.0625,1.3125,0
78570,-1.3125,-15.125,2.8125,0
78590,0.375,-17.6875,7,0
78610,4,-19,9,0
78630,11.375,-21.375,8.5625,0
78650,10.3125,-22.5,8.25,2001
78670,8.3125,-21.875,9.5,0
78690,5.5,-19.75,9.8125,0
78710,9.25,-19.875,8.875,0
78730,7.5,-19.25,5.4375,0
78740,8.625,-18.5625,1.5,0
78760,11.1875,-18.0625,-1.25,0
78780,9.9375,-18.5625,-0.5,0
78800,9.3125,-20.5625,-1.1875,0
78820,4.375,-18,-1.375,0
78840,6.0625,-16.75,-4.5625,0
78860,5.25,-14.4375,-5.9375,0
78880,0.8125,-12.6875,-3.3125,0
78900,2.125,-10.6875,0.6875,0
78920,3,-9.1875,2.125,0
78940,0.375,-7.75,-0.3125,0
78960,0.375,-5.1875,2.125,0
78980,1.25,2.125,-3.4375,0
79000,-0.25,4.5625,-3.75,0
79020,4.5,1.3125,1.125,0
79040,0.3125,-0.1875,0.875,0
79060,-0.75,0.5,-0.75,0
79080,1.25,3.4375,-4,0
79100,4.375,7,-6.125,0
79120,6.6875,8.1875,-4.9375,0
79140,7.6875,10,-3.5,0
79160,8.4375,6.6875,-0.125,0
79180,7.5,6.6875,1.4375,0
79200,10.9375,7.125,0.6875,0
79220,16.5625,9.5625,4.1875,0
79240,25.9375,13.9375,6.4375,0
79260,27.1875,25.125,9.375,0
79280,31.25,33.25,18,0
79300,37.25,38.5625,22.8125,0
79320,40.75,40.75,22.875,0
79340,39.1875,43.875,27.5,0
79360,44.9375,47.1875,32.8125,0
79380,50.75,48.4375,39,0
79400,50.75,50.375,37.0625,0
79420,55.625,47.125,35.1875,0
79440,58.6875,47.125,40.9375,0
79460,59.375,48.25,43.5625,0
79480,63,44.4375,43.1875,0
79500,62.8125,42.75,43.1875,0
79520,61,41.9375,43.875,0
79540,61.125,43.8125,37.25,0
79560,61.6875,48.6875,30.6875,0
79580,59.5,51.25,30.4375,0
79600,54.625,47.6875,33.9375,0
79620,51.6875,42.5,35.1875,0
79640,49,39.6875,33.5625,0
79660,40.6875,38.375,28.875,0
79680,37.375,31.625,24.3125,0
79700,35.875,24.5,21.1875,0
79720,34.8125,19.625,22.0625,0
79740,30.8125,16.0625,22.75,0
79760,25.375,15.3125,19.875,0
79780,22.5,16.4375,18.9375,0
79800,20.1875,18.4375,22.1875,0
79820,16.5,18.625,28.5625,0
79840,12.6875,16.75,32.125,0
79860,8.4375,19.5625,29.5,0
79880,7.5,24.3125,23.9375,0
79900,10.375,23.125,17.875,0
79920,12.625,16.5625,12.125,0
79940,9.6875,14.9375,9.6875,0
79960,6.9375,19.375,7.1875,0
79980,8.4375,18.25,3.5625,0
80000,16.1875,12.75,-0.3125,0
80020,11.1875,13.875,1.9375,0
80040,7.5625,16.375,5.5,0
80060,6.9375,11.6875,3.125,0
80080,5,9.125,0.5625,0
80100,1.8125,6.6875,2.9375,0
80120,1.25,3.5625,5.625,0
80140,1.4375,1.25,3.4375,0
80160,-0.625,2.8125,2.5,0
80180,1.875,2.25,2.5,0
80200,1.9375,-0.625,2.6875,0
80220,2.1875,1.375,3.6875,0
80240,0.3125,2.5,4.1875,0
80260,-1.1875,3.5625,2.375,0
80280,-0.875,4.0625,-0.3125,0
80300,0.6875,4.375,0.375,0
80320,-1.3125,4.5625,0.9375,0
80340,-0.0625,4.1875,0.25,0
80360,-0.1875,3.4375,-0.875,0
80380,-3.625,5,0.6875,0
80400,-5.9375,5.625,2.875,0
80420,-4.25,4.3125,2.25,0
80440,-4.5,3.875,1.9375,0
80460,-3,4.75,4.9375,2000
80480,-1.5,5.3125,5.8125,0
80500,0.3125,5.625,4.5,0
80520,-3.4375,6,3.3125,0
80540,-6.5,6.0625,2.6875,0
80560,-1.4375,4.75,1.6875,0
80580,2.375,2.5,0.3125,0
80600,0.6875,1,1.625,0
80620,-5.5625,-0.375,6.6875,0
80640,-3.4375,-1.375,7.75,0
80660,-1.8125,-1.5,5.125,0
80680,-2.4375,-3.375,5.5,0
80700,-1.375,-6.5625,7.25,0
80720,-0.0625,-7.6875,8.75,0
80740,0.3125,-7.125,9.5625,0
80760,-2.125,-8.5,7.9375,0
80780,-3.375,-8.9375,6.375,0
80800,-0.4375,-8.3125,7.3125,0
80820,1.5,-7.6875,7.5,0
80840,-0.625,-7.0625,8,0
80860,-1.25,-7.0625,6.1875,0
80880,0.25,-5.5625,3.75,0
80900,0.5,-6.625,3.625,0
80920,-3.4375,-7.125,5.8125,0
80940,-3.6875,-6.4375,5.75,0
80960,-0.4375,-6.6875,2.5625,0
80980,-0.5,-7.3125,1.625,0
81000,-5,-7.3125,4.5625,0
81020,-7,-5.1875,5.5,0
81040,-5.125,-3.25,1.1875,0
81060,-5.125,-2.9375,-1.75,0
81080,-10.3125,-2.6875,-1.125,0
81100,-11.6875,2.3125,-4.875,0
81120,-5.375,5.8125,-12.75,0
81140,-3.9375,7.25,-16.4375,0
81160,-8.5,9.625,-13.5625,0
81180,-11.25,9.3125,-15.5625,0
81200,-12,10.25,-22.1875,0
81220,-14.375,13.3125,-23.6875,0
81240,-19.0625,16.1875,-22.125,0
81260,-25.0625,21.6875,-21.6875,0
81280,-22.875,28.5625,-24.625,0
81300,-22.3125,31.6875,-27.4375,0
81320,-26.375,33.1875,-25.0625,0
81340,-29.375,32.6875,-25.5625,0
81350,-30.625,35.0625,-29.4375,0
81370,-30.875,35.5,-32.875,0
81390,-35.5625,35.1875,-32.125,0
81410,-37.9375,36.5625,-32.4375,0
81430,-38,39.125,-37,0
81450,-38,39.75,-40.125,0
81470,-41.5625,40.25,-41.625,0
81490,-44.5,39,-42.0625,0
81510,-42.9375,37.75,-42.9375,0
81530,-41.9375,38.875,-47.3125,0
81550,-44.5,39.0625,-47.875,0
81570,-46.625,37.6875,-46.25,0
81590,-44.4375,38.25,-46.6875,0
81610,-43.1875,41.3125,-45.9375,0
81630,-44.875,44.3125,-43.5,0
81650,-44.375,43.3125,-41.375,0
81670,-44.4375,40.75,-39.1875,0
81690,-42.625,36.25,-38.25,0
81710,-42.6875,33.8125,-37.9375,0
81730,-41.4375,28.4375,-36.9375,0
81750,-38.3125,22.125,-36.0625,0
81770,-35.4375,20.8125,-35.1875,0
81790,-30.5,22.3125,-35,0
81810,-25.4375,19.4375,-29.25,0
81830,-25.5625,17.625,-17.0625,0
81850,-25.1875,14.0625,-11.625,0
81870,-21,10.9375,-10.5,0
81890,-17.0625,6,-6.0625,0
81910,-17.375,4.125,1.25,0
81930,-5.1875,-3.875,4.1875,0
81950,-3.8125,-9.9375,6,0
81970,-10.875,-7.25,13.4375,0
81990,0.5625,-13.9375,17.375,0
82010,5.0625,-20.8125,19.375,0
82030,2.625,-20,28.1875,0
82050,4.375,-23.6875,33.375,0
82070,9.125,-32.0625,33.9375,0
82090,9.8125,-31.75,35.6875,0
82110,12.25,-32.9375,39.4375,0
82130,20.25,-38.125,40,0
82150,20.5,-41.125,40.375,0
82170,18.75,-37.75,40.5,0
82190,29.6875,-40.5625,38.125,0
82210,33.0625,-43.8125,39.5625,0
82230,28.5,-43.75,44.75,0
82250,23.375,-43.6875,45.4375,0
82270,24.8125,-45.3125,43,0
82290,23.5625,-49.0625,45.1875,0
82310,23.125,-51,47.9375,0
82330,26.5,-51,41,0
82350,24.3125,-53.8125,34.8125,0
82370,20.3125,-59.25,40.1875,0
82390,14.125,-60.875,41.625,0
82410,9.25,-61.4375,32.875,0
82430,10.5,-64.6875,28.625,0
82450,12,-65.8125,33.0625,0
82470,5,-64.125,29.1875,0
82490,3.4375,-63.5625,19.5625,0
82510,2.3125,-64.5,17.5,0
82530,1.5,-62.5,13.4375,0
82550,6.125,-61,0.625,0
82570,9.8125,-57.25,-7.625,0
82590,8.5625,-55.6875,-11.875,0
82610,3.3125,-54.0625,-15.25,0
82630,-2,-49.1875,-20.5625,0
82650,-1.25,-43.75,-27,0
82670,1.25,-42.875,-32.3125,0
82690,-5.5,-41.3125,-34.25,0
82710,-12.1875,-41.625,-34.25,0
82730,-15.1875,-39.9375,-39.0625,0
82750,-24.125,-30.625,-42.8125,0
82770,-20,-24.125,-43.9375,0
82790,-20.875,-20.8125,-48.375,0
82810,-33.625,-14.6875,-51.375,0
82830,-41.875,-5.9375,-48.75,0
82850,-47.1875,3.6875,-52,0
82870,-49.375,12.375,-57.0625,0
82890,-50.75,16.1875,-60.5625,0
82910,-59.125,24.6875,-58.3125,0
82930,-57.6875,29.25,-57.6875,0
82950,-58.6875,33.625,-58.875,0
82970,-61.25,39.1875,-57.6875,0
82990,-62.8125,42.6875,-56.1875,0
83010,-63.875,45.75,-56.9375,0
83030,-62.5625,48.375,-55,0
83050,-63.125,51.5625,-48.375,0
83070,-59.0625,56.25,-46.3125,0
83090,-54,59.25,-45.5625,0
83110,-50.75,60.75,-40.875,0
83130,-50.1875,60.25,-29.375,0
83150,-44.875,56.1875,-21.75,0
83170,-37.9375,50.3125,-22.1875,0
83190,-33.125,49.625,-23.3125,0
83210,-33.3125,57.875,-12.0625,0
83230,-27.8125,46.25,4.0625,0
83250,-22.4375,34,7.875,0
