Timestamp, Rotation x, Rotation y, Rotation z, Marker
40,-0.5,-0.875,-0.875,0
60,0.3125,-1.375,-0.9375,0
80,-0.8125,-0.9375,-0.875,0
100,-1.25,-1.3125,0.25,0
120,-1.25,-1.1875,0.625,0
140,-0.5625,-1.5625,0.5625,0
160,0.1875,-0.75,0.1875,0
170,0.375,-0.75,0.625,0
180,-1.0625,-0.5625,1.1875,0
220,-1.3125,-0.1875,0,0
240,-0.0625,-1.0625,-0.875,0
260,-0.0625,-0.625,-0.3125,0
280,0.3125,-1.125,0.1875,0
300,0,-0.875,1.375,0
320,1,-0.75,0.25,0
340,0.3125,-1.5625,-1.25,0
360,0.625,-1.875,0.8125,0
380,-1.3125,-0.5,1.5625,0
400,-1.4375,-0.9375,-0.0625,0
420,-0.5,-1.4375,-0.5,0
440,-1.625,0.25,0.125,0
460,-0.0625,0.125,-1.1875,0
480,-0.8125,-0.0625,-0.375,0
500,-1.75,1.0625,0.4375,0
520,-0.6875,1.25,-1.6875,0
540,0.625,-0.3125,-1.9375,0
560,1.8125,0.1875,-0.375,0
580,1.625,0.6875,-1.9375,0
600,2.5625,-1.375,-2.25,0
620,-0.25,-1.75,0.125,0
640,-1.25,-2.125,0.9375,0
660,-1.75,-2,1.125,0
680,-0.1875,-1.0625,1.625,0
700,-0.0625,-1.0625,1.875,0
720,-0.1875,-0.375,1.125,0
740,0.375,-0.4375,1,0
760,0.125,-1,0.6875,0
780,-0.8125,-0.5625,-0.125,0
800,0.1875,-1.5625,-0.6875,0
820,-1.25,-0.8125,-0.1875,0
840,0.5625,-1.5625,-0.0625,0
860,-0.75,-1.1875,-0.0625,0
880,-1.4375,-1.1875,0.6875,0
900,-1.4375,-1.0625,0.3125,0
920,-2.4375,-1.4375,0.0625,0
940,-2.3125,-1.125,0.4375,0
960,-3,-1.0625,0.4375,0
980,-1.375,-1.5,0,0
1000,-1.9375,-1.625,0.0625,0
1020,-1.625,-1.625,0.1875,0
1040,-2,-1.75,0.125,0
1060,-1.4375,-1.375,0.625,0
1080,-1.25,-1.0625,-0.5625,0
1100,-1.5625,-2.4375,-1.375,0
1120,-0.9375,-1.8125,0.625,0
1140,0.125,-0.8125,1.8125,0
1160,1.25,0.3125,1.1875,0
1180,1.8125,0,-0.3125,0
1200,2.3125,-0.1875,-2,0
1220,3.1875,-0.625,-1.625,0
1240,1.4375,-0.5625,-0.625,0
1250,-0.9375,-1.0625,0.5,0
1270,1.25,1.4375,0.1875,0
1290,3.9375,-0.4375,-1.4375,0
1310,1.625,-0.8125,-0.8125,0
1330,1.125,-0.375,-0.9375,0
1350,0.0625,-1.125,-1.9375,0
1370,-0.8125,0,-0.5625,0
1390,-0.9375,-1.125,-0.375,0
1410,-1.4375,-0.3125,-0.625,0
1430,0.875,-0.9375,-0.0625,0
1450,-0.125,-1,-0.375,0
1470,-0.4375,-1.25,-0.4375,0
1490,-0.1875,-1.0625,-0.3125,0
1510,-0.1875,-0.125,0.75,0
1530,1.3125,-0.375,-0.375,0
1550,1.875,-1.75,-0.5,0
1570,-0.8125,0.4375,0.1875,0
1590,1.6875,-1.125,0.3125,0
1610,-0.9375,-1.8125,-0.5,0
1630,-1.4375,-1.5625,0.875,0
1650,-0.8125,-0.625,0.4375,0
1670,-0.125,-0.4375,0.375,0
1690,-1.125,-0.375,-0.1875,0
1710,0,-0.5,-0.75,0
1730,1.375,-0.8125,-0.4375,0
1750,-1.0625,-1.125,-0.0625,0
1770,-1.5,-1,0.8125,0
1790,-1.25,-0.6875,1.125,0
1810,-1.125,-0.5,1.0625,0
1830,-0.125,-0.4375,0.9375,0
1850,0.0625,-0.5625,0.25,0
1870,1.3125,-0.8125,-0.375,0
1890,1.0625,-1,-0.5625,0
1910,-0.125,-0.5,0.0625,0
1930,-0.8125,-0.625,0.1875,0
1950,-0.0625,-0.6875,0.0625,0
1970,0.1875,-0.75,0.5625,0
1990,-0.5,-0.625,1.375,0
2010,0.8125,0.75,1.0625,0
2030,-3.9375,2.5,0.9375,0
2050,3.4375,-1.9375,-1.5625,0
2070,-3,-0.375,-0.125,0
2090,0.0625,-0.9375,0.75,0
2110,-1.875,-1.375,0.5625,0
2130,0.0625,-1.0625,1,0
2150,-2.9375,-1.125,1.4375,0
2170,0,-1.625,0.8125,0
2190,-0.4375,-2.0625,2.25,0
2210,-1.125,-0.9375,2.125,0
2230,0.5625,-2.4375,0.3125,0
2250,-0.4375,-4.125,0.75,0
2270,-2.75,-0.375,2.25,0
2290,1.4375,-0.25,0.5,0
2310,-1.125,-2.125,-1.8125,0
2330,-0.3125,-1.375,0,0
2350,-0.3125,-1.1875,0.0625,0
2370,0.75,-1.3125,-0.375,0
2390,0.375,-0.4375,0.0625,0
2410,2.25,-1,-0.5,0
2430,0.75,-1.25,-1.5,0
2450,1.3125,-1.1875,-0.875,0
2470,1.75,-1.3125,-0.875,0
2490,1.5625,-1,-1.3125,0
2510,0.5,0.125,-1,0
2530,1.375,-0.4375,-1.3125,0
2550,0.375,-0.375,-1.75,0
2570,0.25,-0.875,-1.8125,0
2590,0.5625,-1,-1.25,0
2610,-0.3125,-0.9375,-0.25,0
2630,-1,-0.5,-0.125,0
2650,-0.4375,-0.75,0.0625,0
2670,-0.9375,-1.125,-0.1875,0
2690,-0.3125,-1.0625,-0.1875,0
2710,-0.625,-0.9375,-0.1875,0
2730,-1,-0.5625,-0.375,0
2750,-0.8125,-0.8125,-0.4375,0
2770,-0.6875,-1.1875,-0.0625,0
2790,-0.75,-0.625,0.75,0
2810,-0.6875,-1.5625,1,0
2830,-2.125,-0.9375,1,0
2850,-1.8125,-0.75,0.6875,0
2870,-1.0625,-1.3125,0.1875,0
2890,-0.625,-0.875,-0.5,0
2910,1.375,-3,3.75,0
2930,-5.1875,2.75,-0.5,0
2950,3,-5.1875,-2.4375,0
2970,-4.4375,1.1875,2.9375,0
2990,0.625,0.125,3,0
3010,-0.375,-1.0625,0.375,0
3030,-2.5,-2.1875,2.1875,0
3050,-3.4375,-2.125,0.25,0
3070,-2.875,-3.5,0.0625,0
3090,-2.4375,-0.3125,1.8125,0
3110,0.5,0.25,1.25,0
3130,-0.0625,-0.4375,0.0625,0
3150,1.25,-0.5,-2.0625,0
3170,1.4375,-2.5625,-2.25,0
3190,0.0625,-0.9375,-1.1875,0
3210,1.1875,-1.125,-0.0625,0
3230,2.125,-1.4375,0.0625,0
3250,0.4375,-0.5625,0.875,0
3270,1.5,-0.9375,0.5,0
3290,0.6875,-1.0625,0.0625,0
3310,-0.1875,-1.0625,0.3125,0
3330,1.25,-2,-0.1875,0
3350,-1,-1.375,-0.5625,0
3370,1.375,-1.1875,-0.125,0
3390,-0.5,-0.125,0.1875,0
3410,0.5,-0.8125,0.0625,0
3430,-0.75,-1.4375,0,0
3450,-1.8125,-1,0.4375,0
3470,-0.75,-2.4375,-0.25,0
3490,-3.4375,-2.5,0.0625,0
3510,-2.4375,-1.1875,1.125,0
3530,-1.8125,-0.8125,0.9375,0
3550,-2.6875,-1.125,0.4375,0
3570,-4.8125,-1.4375,0.75,0
3590,-2.875,-1.125,1.1875,0
3610,-1.75,-0.6875,1.75,0
3630,-1.8125,-0.6875,1.25,0
3650,-1.875,-0.875,1.125,0
3670,-1.375,-1,1.5,0
3690,-1.125,-0.625,1.3125,0
3710,-0.5625,-0.125,0.75,0
3710,-0.375,-0.125,0.75,0
3730,-1.0625,-1.125,0.75,0
3750,-1.625,1.125,1.5,0
3770,1.9375,-7,0.25,0
3790,5.1875,4.6875,0.4375,0
3810,-4.5625,-8.5625,5.625,0
3840,9.625,4.875,-5.0625,0
3880,-3,-11.4375,5.4375,0
3890,-0.5,5.375,1.6875,0
3910,0,-0.8125,1.1875,0
3930,0.375,1.4375,-0.125,0
3950,3.125,-1.1875,-1.5,0
3970,2.0625,-1.5625,-2.0625,0
3990,2.125,-1.1875,-0.25,0
4010,0.4375,-0.6875,0.125,0
4030,1.0625,-0.6875,0.625,0
4050,0.4375,-1.4375,-0.1875,0
4070,-0.1875,-1.4375,-0.4375,0
4090,1.375,-1.8125,-0.6875,0
4110,0.375,-2,0.5,0
4130,1.125,-1.75,-0.4375,0
4150,2.5625,-1.625,-0.5,0
4170,2.375,-1.3125,0.375,0
4190,1.8125,-0.3125,0.4375,0
4210,1.625,-1,0.125,0
4230,-0.5,-0.625,-0.375,0
4250,0.125,-1.5625,-1.125,0
4270,0,-1.25,-0.625,0
4290,0.25,-1.3125,-0.5625,0
4310,0.125,-1,-0.375,0
4330,-0.5625,-1,-0.5625,0
4350,0.25,-1.4375,-0.625,0
4370,-0.0625,-1,0.4375,0
4390,0.3125,-1.125,0.9375,0
4410,1,-1.375,0.875,0
4430,0.75,-1.5625,1.25,0
4450,0,-1,1.25,0
4470,-0.3125,-0.9375,-0.0625,0
4490,2.9375,-0.0625,1.625,0
4510,-8.6875,1.1875,3.25,0
4530,6.4375,-6,-4.9375,0
4550,-6.375,0.1875,2.875,0
4570,0.9375,0.9375,4.25,0
4590,-1.375,-2.625,-2.1875,0
4610,-2.0625,-1.375,3.375,0
4630,-3.375,-0.4375,2.625,0
4650,-2.5625,-1.5625,0.5625,0
4670,-0.25,0.25,2.4375,0
4690,-1.125,-0.375,2.1875,0
4710,-0.6875,-1.0625,0.375,0
4730,0.5625,-1.3125,-0.25,0
4750,0.125,-1.5625,-1.0625,0
4770,1.4375,-2.375,-1.3125,0
4790,-1.0625,-1.5,0,0
4800,1.5625,-1.875,-0.625,0
4820,2.1875,-1.4375,0.8125,0
4820,1.625,-1.625,-0.6875,0
4840,1.5,-1.6875,0.1875,0
4860,1.1875,-1.5,-0.1875,0
4880,2,-1.125,-0.625,0
4900,2.5625,-1.625,-0.5,0
4920,0.9375,-0.375,1.4375,0
4940,1.75,-0.6875,0.125,0
4960,1.125,-1.9375,-0.3125,0
4980,0.875,-1.75,0.4375,0
5000,-0.3125,-1.875,0.0625,0
5020,-0.5,-1.625,-0.0625,0
5040,-1.3125,-1.9375,0.625,0
5060,-0.9375,-1.875,0.8125,0
5080,-0.9375,-1.4375,0.75,0
5100,-0.75,-1,1.1875,0
5120,-1.8125,-0.5625,0.9375,0
5140,0,-1.125,0.0625,0
5160,0.8125,-1,0.875,0
5180,1.1875,-1,0.9375,0
5200,-1.125,-1.5,0.75,0
5220,-1.375,-0.75,0.6875,0
5240,-0.5625,-0.875,0.0625,0
5260,-1.5625,-1.5,-0.4375,0
5280,0.125,-1,0.1875,0
5300,-1.3125,-1.1875,0.6875,0
5320,-0.25,-0.8125,0.4375,0
5340,0.625,-0.8125,0.125,0
5360,-0.5625,-1.375,0.1875,0
5380,-0.125,-0.9375,-0.1875,0
5400,-0.25,-0.9375,-0.4375,0
5420,-2.3125,-1.3125,-0.625,0
5440,-1.25,-1.1875,-0.1875,0
5460,-0.25,-1.125,0.5625,0
5480,-0.375,-1,0.25,0
5500,-0.8125,-1.375,-0.3125,0
5520,-0.25,-1,-0.25,0
5540,-1.6875,-1.4375,-0.5625,0
5560,-0.1875,-0.6875,-0.6875,0
5580,0.625,-0.625,-0.4375,0
5600,1.625,-1,-0.6875,0
5620,1.3125,-0.5625,-0.125,0
5640,1.5,-0.875,0,0
5660,0.6875,-0.9375,-0.1875,0
5680,0.0625,-0.375,0.0625,0
5700,1,-1,-0.875,0
5720,0.9375,-1.375,-0.875,0
5740,0,-1,-0.3125,0
5760,-0.9375,-0.8125,-0.4375,0
5780,0.1875,-0.75,-0.375,0
5800,0.375,-1.0625,-1.5,0
5820,0.125,-0.875,-1.1875,0
5840,0,-0.5,-0.4375,0
5860,-0.125,-0.5625,-1.125,0
5880,0.0625,-0.6875,-0.5625,0
5900,0.125,-0.625,-0.1875,0
5920,-1,-0.5,-0.75,0
5940,0.1875,-0.8125,0.4375,0
5960,-0.3125,-0.5,0.375,0
5980,-0.75,-0.9375,1.125,0
6000,-1.3125,-0.125,0.75,0
6020,-0.75,-0.875,0.3125,0
6040,-0.5,-0.9375,-0.5,0
6060,0,-1.1875,-0.3125,0
6080,0.25,-1.0625,-0.5,0
6100,-1.0625,-1.375,-0.125,0
6120,-0.3125,-0.6875,0.5,0
6140,0.1875,-0.75,0.3125,0
6160,-0.0625,-0.75,0.0625,0
6180,-1.25,-0.75,0.125,0
6200,-1.1875,-0.9375,0.0625,0
6220,-1.125,-0.875,0.25,0
6240,-0.875,-2.1875,3.5625,0
6260,-3.5,1.3125,1.75,0
6280,-1.25,-3.25,-0.125,0
6300,-2.0625,-2.1875,1.1875,0
6320,1.6875,-0.4375,-0.0625,0
6340,-1.6875,-1.3125,-0.4375,0
6360,0.9375,-2.5625,-1.1875,0
6380,-0.375,-1.6875,0.0625,0
6400,-0.8125,-1.9375,-0.125,0
6420,-0.9375,-1.875,0.25,0
6440,0.125,-2.4375,0.875,0
6460,0.6875,-2.5,0.0625,0
6470,-2.25,-2.5,0.1875,0
6490,-4,-2.6875,2,0
6510,-2.9375,-2.625,1.0625,0
6530,-2.5,-2.3125,0.3125,0
6550,-2.125,-2.25,0.8125,0
6570,-1.75,-2.3125,0.125,0
6590,-0.25,-2.25,1.0625,0
6610,0.3125,-2.6875,-0.25,0
6630,2.4375,-1.875,-0.5625,0
6650,2.125,-1.25,-0.875,0
6670,2.5625,-1.4375,-1.375,0
6690,1.9375,-1.875,-0.875,0
6710,-0.5625,-1.125,1,0
6730,-1.0625,-1.75,0.75,0
6750,0.75,-1.1875,0.75,0
6770,-0.6875,-1.5,0.8125,0
6790,-1.6875,-0.625,0.4375,0
6810,-0.0625,-0.9375,-0.0625,0
6830,1.0625,-0.4375,-0.375,0
6850,0.5625,-1.0625,-1,0
6870,-0.0625,-1.0625,-0.5625,0
6890,-0.0625,-0.1875,-0.125,0
6910,1.4375,-0.875,0.5,0
6930,-0.875,-0.9375,-0.125,0
6950,0.6875,-1.25,-0.8125,0
6970,-0.8125,-0.5625,-0.875,0
6990,-2.125,-1,0.125,0
7010,-1.75,-0.1875,0.25,0
7030,-0.8125,-1.125,0.1875,0
7050,-0.625,-0.6875,-0.4375,0
7070,-0.625,-1.625,-0.3125,0
7090,-1.8125,-0.875,-0.25,0
7110,-1.5625,-1.3125,-0.375,0
7130,-0.5,-1.125,-0.4375,0
7150,11.375,-0.3125,-3.5,0
7170,-8.375,-7.3125,5.4375,0
7190,-3.375,9.6875,1.75,0
7210,3.0625,-5.9375,1.3125,0
7230,-3.3125,4.375,5.0625,0
7250,3,-1.5625,3.25,0
7270,-5.25,-1.75,-2.9375,0
7290,2.8125,-1.25,0.125,0
7310,0.9375,-0.0625,0.875,0
7330,1,-0.1875,1.125,0
7350,0.625,0.375,2.25,0
7370,0.3125,-0.875,0.375,0
7390,-0.25,-0.9375,-1.6875,0
7410,0.375,-1.0625,-1.25,0
7430,0.625,-0.8125,-0.4375,0
7450,0.6875,-0.5625,-2.8125,0
7470,2.375,-2.5,-3.3125,0
7490,0.5625,-2.625,-1.8125,0
7510,-0.75,-0.375,-0.6875,0
7530,-1.3125,1.6875,0.75,0
7550,-0.75,-0.0625,1.625,0
7570,-1.4375,0.1875,-0.25,0
7590,0.5625,-0.4375,-2.5,0
7610,1.3125,-0.9375,-2.5625,0
7630,0.125,-0.5625,-0.625,0
7650,-0.4375,-0.875,-0.5,0
7670,0.1875,-1.125,-0.4375,0
7690,-2,-0.625,0.5625,0
7710,-0.0625,-3.1875,1.9375,0
7730,-2.125,-0.9375,2.0625,0
7750,1.6875,-2.4375,-1.9375,0
7770,-4.1875,-1.0625,-0.875,0
7790,2.4375,-1.5625,-2,0
7810,-0.1875,-2.25,-1.4375,0
7830,0.125,-1.125,-0.1875,0
7850,-0.375,-1.1875,-0.375,0
7870,-0.5625,-1.125,0,0
7890,-1.125,-1.625,-0.3125,0
7910,0,-2,-0.125,0
7930,-1.0625,-1.3125,0.0625,0
7950,-0.75,-2.4375,1,0
7970,-3.375,-2.25,1.4375,0
7990,-0.375,-2.25,-0.125,0
8010,0.125,-1.9375,-1.0625,0
8030,-0.6875,-1.75,0.0625,0
8050,-1.1875,-1.5,0.25,0
8070,-1.875,-2.375,1.25,0
8090,-1.6875,-2.5625,0.5625,0
8110,-1.875,-1.75,0.75,0
8130,-0.125,-3.125,0.25,0
8150,-1.5625,-2.1875,1.75,0
8170,-0.1875,-1.75,0.875,0
8190,0.125,-0.8125,0.25,0
8210,-0.3125,-0.8125,0.6875,0
8230,0.125,-1.1875,-0.5,0
8250,-0.1875,-1.6875,0.875,0
8270,-1,-1.9375,1.4375,0
8290,-1.4375,-2.0625,2.375,0
8310,-2.5,-4.25,1.125,0
8330,-3.125,-4.125,2.25,0
8330,-2.6875,-3.875,2.125,0
8350,-1.9375,-3,0,0
8370,-0.625,-2.75,1.0625,0
8370,-0.5625,-2.1875,1.3125,0
8390,-1.3125,-2.4375,1.8125,0
8410,-1.9375,-1.6875,1.75,0
8430,1.125,-0.875,1.8125,0
8440,-0.3125,-0.125,1.5625,0
8450,-0.5,0.625,0.8125,0
8470,-0.25,-0.3125,0.0625,0
8490,0.75,-1.0625,0.1875,0
8510,0,-0.6875,0.4375,0
8510,0.25,-0.9375,1.75,0
8530,2.125,-1.1875,2.375,0
8550,2.9375,-0.1875,0.8125,0
8570,5.8125,0.25,-3,0
8570,4.5,1.375,-4.1875,0
8590,4.8125,2,-4.3125,0
8610,0.6875,4.25,-2.0625,0
8630,4.8125,-8.75,0,0
8650,2.4375,-8.625,4.5625,0
8690,-6,1.25,-1.0625,0
8710,-2.5625,-7.875,6.75,0
8760,4.375,-5.4375,2.375,0
8810,6.625,-1.9375,-6.5625,0
8850,-3.75,-2.5,-4.125,0
8870,1.1875,-0.4375,-1.5,0
8890,0.5,-0.625,0.375,0
8910,-0.375,-1,0.625,0
8930,-0.125,-1.375,1.8125,0
8950,-0.875,-0.8125,2.125,0
8970,-2.25,-0.6875,1.625,0
8990,-1.8125,-0.4375,1.875,0
9010,-0.875,-0.9375,1.125,0
9030,-0.4375,-1.125,0.25,0
9050,-0.75,-1.0625,0.8125,0
9070,0,-1.1875,1.1875,0
9090,-0.375,-1.25,1.25,0
9110,-1.0625,-1.0625,0.5,0
9120,-1.4375,-1.1875,0.25,0
9140,-1.9375,-1.125,0.625,0
9160,-0.8125,-0.875,0.9375,0
9180,-0.375,-0.75,0.4375,0
9200,-1.375,-1.0625,0.4375,0
9220,0.25,-0.75,1.0625,0
9240,-1.25,-0.375,1.5625,0
9260,-1.25,0,0.8125,0
9280,0.75,-0.875,0.375,0
9300,0,-0.375,0.5,0
9320,-0.25,-0.5,0.75,0
9340,0.8125,-0.8125,-0.125,0
9360,0.8125,-0.9375,0.0625,0
9380,1,-1.125,-1.0625,0
9400,1.9375,-0.6875,-0.5,0
9420,1.125,-0.0625,-0.75,0
9440,-0.625,-0.5,-1.625,0
9460,0.8125,0.5,-1.9375,0
9480,2.375,-0.5625,-0.75,0
9500,0.1875,-0.5625,0.0625,0
9520,0.625,-0.8125,-0.125,0
9540,-0.0625,-1,-0.3125,0
9560,0.5,-0.9375,0.25,0
9580,-1.375,-1.3125,0.75,0
9600,-0.375,-1.1875,0.3125,0
9620,0.5,-1.375,0.4375,0
9640,0.3125,-1.0625,0.25,0
9660,0.125,-1.3125,0.125,0
9680,-0.3125,-1.1875,-0.0625,0
9700,0.4375,-1.5,-0.5,0
9720,0,-1.5,-0.4375,0
9740,0.1875,-1.4375,-0.125,0
9760,0.3125,-1,-0.0625,0
9780,-0.3125,-1.125,-0.25,0
9800,-0.3125,-1.125,-0.375,0
9820,-0.1875,-1.375,0.0625,0
9840,0.5,-1.4375,0.125,0
9860,0.9375,-1.9375,-0.5,0
9880,2.8125,-8,4.0625,0
9900,-6.5625,5,2.25,0
9920,5.3125,-6.3125,-0.125,0
9940,-3.125,1.4375,1,0
9960,2.25,0.4375,3.625,0
9980,-3.5,-2,-1.0625,0
10000,1.125,-0.875,1,0
10020,0.4375,0.25,1,0
10040,1.125,-1,-0.3125,0
10060,-0.25,0.5,0.0625,0
10080,-0.3125,0.4375,-0.1875,0
10100,-0.6875,0.5,-1.5625,0
10120,-0.75,-0.5,-0.25,0
10140,-1,0,0.5625,0
10160,-1.9375,-0.75,-0.25,0
10180,-2,-0.9375,-0.375,0
10200,-2.9375,-0.125,0.5,0
10220,-3,-0.625,0.375,0
10240,-1.4375,-0.25,0.5625,0
10260,-2,-0.4375,1.125,0
10280,-1.625,-1.1875,0.8125,0
10300,-1.9375,-1.3125,0.8125,0
10320,-1.75,-1.125,1,0
10340,-1.75,-1.25,0.8125,0
10360,-1.0625,-0.875,0.0625,0
10380,-2.1875,-1.3125,-0.375,0
10400,-1.75,-1.375,0,0
10420,-2.125,-0.375,-1.0625,0
10440,-1.875,-0.5,-1.0625,0
10460,-2.0625,-0.5625,-0.9375,0
10480,-2.75,-0.75,-0.9375,0
10500,-0.8125,-0.4375,-2,0
10520,-1.5,-1.25,-1.9375,0
10540,-1.5,-1.25,-1.0625,0
10560,-1.9375,-0.5,-0.6875,0
10580,-0.8125,-0.5,-0.8125,0
10600,-0.4375,-1.1875,0.125,0
10620,0.0625,-0.3125,1.5,0
10640,0.0625,-0.8125,1.5625,0
10660,0.1875,-1.3125,1.1875,0
10680,-0.6875,-1.3125,1.1875,0
10700,0.3125,-0.4375,1.0625,0
10720,1.8125,-0.625,0.5625,0
10740,15.8125,0.75,-3.3125,0
10760,0.5625,-4,0.4375,0
10780,-4.8125,4.125,4.25,0
10800,6.3125,-3.25,0.25,0
10820,-0.125,-1.6875,1.5625,0
10840,3.4375,0.6875,4.75,0
10860,-0.4375,0,1.625,0
10880,1.9375,-0.875,1.25,0
10900,2.875,-0.375,0.5,0
10920,1.75,-1.9375,-0.3125,0
10940,0.125,-1.25,-1.125,0
10960,1.25,-1.3125,-0.0625,0
10980,-0.0625,-0.5,-0.125,0
11000,0.1875,-1.125,-0.25,0
11020,-1.625,-1.5,0.0625,0
11040,-0.875,-1.5,0.5,0
11060,-1.75,-1.25,1.375,0
11080,-2.0625,-0.625,2.1875,0
11100,-1.4375,-1.0625,1.8125,0
11120,-1.125,-1.0625,0.6875,0
11140,-0.0625,-0.875,-0.3125,0
11160,-0.5,-0.3125,-1.1875,0
11180,0.375,-0.1875,-1,0
11200,1.6875,-1.125,-1.5625,0
11220,1.75,-1.625,-3.1875,0
11240,1,-1.6875,-2.875,0
11260,1,-1.0625,-1.25,0
11280,-0.8125,-0.6875,-0.75,0
11300,-0.1875,-1.1875,-0.6875,0
11320,-1.3125,-1.25,-1.3125,0
11340,-0.125,-0.875,-0.75,0
11360,-0.75,-0.625,-0.625,0
11380,-0.6875,-0.875,0.125,0
11400,-0.75,-0.875,1.125,0
11420,-2.0625,-0.875,0.0625,0
11440,-1.0625,-1.375,0.375,0
11460,-2.125,-1.125,-0.0625,0
11480,0,-1.1875,-0.8125,0
11500,0.375,-1.25,-1,0
11520,0.125,-0.875,-1.375,0
11540,0.4375,-0.9375,-1.25,0
11560,1.625,-1.125,-0.875,0
11580,0.625,-0.9375,0,0
11600,0.0625,-0.3125,-0.125,0
11620,0.3125,-0.5625,-0.3125,0
11640,-0.375,-0.75,-0.3125,0
11660,-0.3125,-0.8125,-0.25,0
11680,0.625,-1.0625,0,0
11700,-0.0625,-0.625,-0.0625,0
11720,0,-1.125,0.1875,0
11740,0.0625,-1,-0.5,0
11760,0.4375,-1.5625,-0.5,0
11770,-0.625,-1.4375,-0.125,0
11790,-0.9375,-1.875,-0.3125,0
11810,-1.3125,-1.0625,1.3125,0
11830,-0.25,-0.5625,0.5,0
11850,-0.625,-1.5625,0.875,0
11870,-2.75,-1.0625,1.625,0
11890,-1.25,-1.5,1.8125,0
11910,-1.4375,-2.1875,1.125,0
11930,-2.25,-1.9375,1.6875,0
11950,-1.5,-1.3125,2,0
11970,-0.9375,-2.125,0.625,0
11990,-2.1875,-1.9375,0.4375,0
12010,-1.5,-0.9375,1.5625,0
12030,-2.75,-1,1.6875,0
12050,-2.25,-0.75,1.5625,0
12070,-1.9375,-0.5,1.375,0
12090,-1.9375,-0.625,1.25,0
12110,-2.375,0.3125,2.25,0
12130,-1.875,0.75,2.3125,0
12150,-2.375,0.1875,0.8125,0
12170,-0.1875,-0.125,0.375,0
12190,0.5,0,1.375,0
12210,0,-0.1875,2.375,0
12230,-2.375,0.4375,1.6875,0
12250,-2,0.125,1.0625,0
12270,-1.25,0.125,-0.1875,0
12290,-0.75,-0.8125,-1.1875,0
12310,-1.25,-1,-2.6875,0
12330,-0.5,0.1875,-1.375,0
12350,-1.0625,-0.3125,-1.375,0
12370,-0.8125,-1,-0.9375,0
12390,0.5625,0.5,0.125,0
12390,2.125,0.5,-1.0625,0
12410,1.625,-0.375,-1.6875,0
12430,-0.5625,0.6875,-0.25,0
12470,3.4375,-1.6875,-2.5,0
12490,5,6.3125,-0.875,0
12510,-2.9375,7.125,3,0
12530,-1.1875,-0.3125,2.5,0
12550,-0.1875,-1.0625,0.75,0
12570,-0.1875,-1.6875,-0.0625,0
12590,-0.4375,-1.625,0.125,0
12610,-2.5625,-0.875,1.4375,0
12630,0.3125,-2.25,2.75,0
12650,6.6875,-4.0625,-2,0
12670,4.125,-4.125,-4.5625,0
12690,2.875,-3.625,-1.5625,0
12710,3.375,-2.5,-1.25,0
12730,5,-2.25,-1.5,0
12750,1.4375,-0.5625,-0.375,0
12770,-1.8125,0.625,1.5,0
12790,-2,2.125,3.125,0
12800,-1.25,2.1875,5.9375,0
12820,-1.8125,2.6875,9,0
12840,0.125,4.8125,6.75,0
12860,-0.5625,5.125,3.3125,0
12880,2.75,4.125,0.875,0
12900,4.3125,1.625,-1.5,0
12920,3.4375,0.125,-5,0
12940,3.375,-1.875,-7.0625,0
12960,0.125,-3.5,-7.5625,0
12980,-3.4375,-4.125,-6.625,0
13000,-3.75,-3.8125,-6.4375,0
13020,-1.125,-4.875,-6.375,0
13040,2.125,-5.125,-7.25,0
13060,7.9375,-5.5,-3.4375,0
13080,-1.375,-0.1875,-5.5625,0
13100,9.6875,-3.9375,-7.5625,0
13120,3.3125,0.8125,-2.5625,0
13140,0.0625,3.0625,0.5625,0
13160,-1.625,1.1875,2.125,0
13180,2.5,-0.8125,3.375,0
13200,3.125,-1,1.625,0
13220,3.0625,-2.3125,-0.5625,0
13240,4.4375,-3.3125,-2.75,0
13260,3.25,-4.375,-2.5,0
13280,2.9375,-4.125,-5.125,0
13300,1.75,-4.6875,-6.25,0
13320,0,-5.0625,-9.0625,0
13340,2.3125,-5.25,-12.25,0
13360,1.1875,-6.9375,-13.75,0
13380,7.5,-10.3125,-19.1875,0
13400,21,-12.3125,-27.6875,0
13420,27.125,-11.0625,-40.4375,0
13440,13.3125,-17.25,-43.375,0
13460,-1.6875,-22.625,-42.3125,0
13480,-26.25,-34.125,-53.5625,0
13500,-123.688,-32.375,-101.812,0
13520,-93,-26,-37.5,0
13540,-56.4375,-37.875,-56.6875,0
13560,-4,-40.125,-68,0
13580,4.0625,-43.5,-60.9375,0
13600,-6.5625,-49.0625,-68.9375,0
13620,-25.375,-52.875,-65.1875,0
13640,-36.5,-53.3125,-59.375,0
13660,-43,-54.25,-56.4375,0
13680,-40.4375,-56.0625,-48.75,0
13700,-38.375,-57.0625,-46.8125,0
13720,-40.5,-59.3125,-45.3125,0
13740,-32.6875,-62.75,-37.5625,0
13760,-32.6875,-61.875,-32.1875,0
13780,-34.8125,-58.4375,-31.6875,0
13800,-39.875,-57,-31.0625,0
13820,-37.25,-58.4375,-26.375,0
13840,-27.75,-58.0625,-20.8125,0
13860,-23.1875,-50.5,-21.125,0
13880,-20.4375,-42.6875,-17.375,0
13900,-23.625,-39.3125,-11.125,0
13900,-25,-36.4375,-11,0
13920,-17.4375,-32.4375,-9.875,0
13940,-12.125,-26.75,-10.3125,0
13960,-7.625,-33.25,-2.6875,0
13980,-15.375,-28,1,0
14000,-7.125,-4.0625,-5.1875,0
14020,-21.625,-5.75,1.1875,0
14040,-17.9375,-5.3125,15.6875,0
14070,-12.375,-5.875,21.625,0
14090,-8.625,-6.75,17.6875,0
14110,-2.375,-5.3125,12.5625,0
14120,-3,-2.5,15.6875,0
14130,3.375,2.1875,13.6875,0
14150,-1.5,0.6875,12.0625,0
14170,-7.75,4.875,12.6875,0
14190,-14.75,1.8125,13.4375,0
14200,-10.4375,3.75,9.0625,0
14220,-4.5625,4.375,6.9375,0
14240,-4.125,1.8125,7,0
14260,-5.0625,3.1875,4.6875,0
14280,-7.0625,4.8125,6,0
14300,-11.25,6.4375,9,0
14310,-13.375,7.0625,10.75,0
14360,-0.25,-0.75,4.125,0
14380,2.3125,-2.3125,3.5,0
14400,-3.3125,-1.9375,2.875,0
14420,1.125,-1.9375,2.6875,0
14460,3.5,-4.1875,2.75,0
14480,9.1875,-3.0625,2.875,0
14500,-7.4375,-1.6875,4,0
14520,0.375,-1.875,1.5625,0
14540,-3.3125,-0.375,5.4375,0
14560,0.3125,-2.75,4.3125,0
14580,11.625,-1.4375,1.375,0
14600,-1.3125,3.75,1.9375,0
14620,-9.9375,2.125,3.0625,0
14620,-2.4375,1.125,3.375,0
14640,7.875,2.1875,0.0625,0
14660,7.4375,4.5,2.0625,0
14680,-3.5625,4.6875,-1.5,0
14700,-8.1875,2.0625,-0.6875,0
14720,1.8125,0.3125,-0.125,0
14740,8.9375,0.0625,0.3125,0
14760,5.625,2.375,-2.1875,0
14770,-4.75,2.1875,0.9375,0
14800,-10.125,1.1875,0.9375,0
14810,-6,-2.3125,3.5625,0
14830,-6.1875,2.9375,2.3125,0
14850,0.0625,9.8125,3.375,0
14870,0,-0.5,1.4375,0
14890,2,-2.25,-0.75,0
14910,4.5625,-2.3125,-1,0
14930,1.25,-2.875,0.375,0
14950,-2.5625,8.375,-0.75,0
14970,-1.8125,-0.875,1.4375,0
14990,5.4375,-2.625,4.0625,0
15010,-1.8125,0.5,1.3125,0
15030,-8.1875,2.3125,1.3125,0
15050,-10.875,0.5,2.625,0
15070,-1.25,0.6875,1.3125,0
15090,8.125,1.375,0.75,0
15110,10.5,1.3125,-1.1875,0
15130,3.25,3.875,-1.8125,0
15150,-3.375,3.8125,-0.5,0
15170,1,-10.125,4.875,0
15190,-2.8125,1.1875,4.4375,0
15210,0.4375,-0.6875,1.625,0
15230,0.1875,-1.875,2.5625,0
15250,-2.375,-0.375,4.1875,0
15270,-3.3125,0.5,3.25,0
15290,0.5,-0.4375,4.4375,0
15310,0.75,-1.1875,3.6875,0
15330,0.3125,-0.1875,1.4375,0
15350,2.875,0.25,2.4375,0
15370,0,-0.5625,2.125,0
15390,0.1875,0,1.375,0
15410,-0.1875,1.4375,0.9375,0
15430,1.4375,0.5,0.75,0
15450,3.875,0.4375,0.125,0
15470,5.3125,1.6875,0.3125,0
15490,-1.125,1.5625,0.8125,0
15510,-1.625,-0.5,-0.5,0
15530,2.0625,-1.25,0.0625,0
15550,4.5,-2.3125,-0.125,0
15570,4.4375,-2.4375,-1.75,0
15590,1.4375,-2.9375,-0.5625,0
15610,-3.3125,-3.6875,0.25,0
15630,-0.3125,-1.5625,-1.3125,0
15650,2.3125,-1.3125,-1.6875,0
15670,1.25,-3.125,-0.875,0
15690,2.4375,-2.6875,-2.25,0
15710,3.5625,-3.6875,-1.0625,0
15730,2.125,-4.375,-1.4375,0
15750,-1.0625,-3.75,-0.1875,0
15770,-3.8125,-2.3125,2.375,0
15790,-2.5,-3.3125,1.6875,0
15810,-0.375,-3.875,0.0625,0
15830,1,-4.1875,-0.625,1000
15850,1.5,-2.5,-0.125,0
15870,1.625,-1.125,0.1875,0
15890,-1.5625,-0.5,0.625,0
15910,-2.1875,-1.5625,2.6875,0
15930,0.5625,-0.5625,3.25,0
15950,1.0625,-1.5625,3.9375,0
15970,-1.25,-2.375,3.0625,0
15990,-1.625,-2.4375,3.25,0
16010,-1.125,-2.75,2.125,0
16030,0.3125,-3.4375,1.375,0
16050,2.4375,-1.5,1.375,0
16070,-0.9375,0.1875,-0.0625,0
16090,-4.125,1,0.25,0
16110,-3.25,1.25,0.5625,0
16130,1.1875,-0.5625,-0.1875,0
16150,4.0625,-1.5625,0.375,0
16170,2.9375,-1.9375,0.875,0
16190,0.0625,-0.875,-0.9375,0
16210,-1.875,-1.6875,-0.9375,0
16230,-2.4375,-4.1875,0.9375,0
16240,3.5625,-3.625,-0.1875,0
16260,3.1875,-1.0625,-1.875,0
16280,-1.3125,-0.875,0.375,0
16300,-2.8125,-0.0625,-1.375,0
16320,-4.8125,-0.125,-1.8125,0
16340,0,1.6875,0.5625,0
16360,3.4375,0.875,1.4375,0
16380,1.5,0.375,0.1875,0
16400,-0.75,-1.5,0.1875,0
16420,-0.6875,-2.875,0.125,0
16440,0.75,-1.6875,-0.125,0
16460,0.75,-0.9375,1.25,0
16480,-1.25,-1.25,-1.125,0
16500,3.875,-3.3125,-0.75,0
16520,4.1875,-3.75,-0.3125,0
16540,0.375,-4.5625,0.1875,0
16560,-2.375,-2.8125,2.875,0
16580,0.125,-1.1875,0.625,0
16600,0,-3.0625,0.6875,0
16620,0.6875,-2.75,2,0
16640,1.0625,-2.3125,2.375,0
16660,0.625,-1.8125,0.5625,0
16680,2.125,-1.375,-0.1875,0
16700,-0.25,-0.8125,0.6875,0
16720,-0.8125,0.3125,0.375,0
16740,-0.8125,1.1875,-1.25,0
16760,1.25,-0.3125,0.125,0
16780,1.5625,-2,0.6875,0
16800,-1.0625,-1.375,-0.0625,0
16820,-1.1875,-1.375,0.125,0
16840,-3,-0.4375,0.25,0
16860,-3.3125,-0.625,1.6875,0
16880,-1.75,-1.5625,0.6875,0
16900,-3.1875,-0.125,-0.6875,0
16920,-4.0625,-0.5,-0.3125,0
16940,-2.8125,-0.375,-0.0625,0
16960,-1.625,-0.8125,-0.1875,0
16980,0.375,0,-0.9375,0
17000,1.75,1.1875,0.3125,0
17020,-1.625,0.9375,0.1875,0
17040,-1.375,-0.5625,-0.75,0
17060,1.4375,0.375,0.8125,0
17080,2.25,0.1875,1.875,0
17100,-1.5625,1.75,1.0625,0
17120,-5.0625,0.4375,0.3125,0
17140,-2.1875,0.125,0.5625,0
17160,1.375,0.3125,1.125,0
17180,1.6875,-0.375,0.0625,0
17200,1.5,-1.8125,-0.25,0
17220,1.6875,-2.0625,0.25,0
17240,0.4375,-2.25,1.0625,0
17260,0.5625,-2.25,1.25,0
17280,-0.8125,-2.9375,1.9375,0
17300,-0.75,-3.8125,0.875,0
17320,-3.25,-4.5,2.125,0
17340,-0.1875,-3.25,0.6875,0
17360,1.75,-3.25,-0.6875,0
17380,0.3125,-3.4375,-1.3125,0
17400,-0.5625,-4.5,-2.125,0
17420,1.9375,-5.0625,-0.8125,0
17440,0.8125,-5.5625,-0.3125,0
17460,1.3125,-5,0.625,0
17480,1,-3.5,1.25,0
17500,-2.3125,-4.625,1.75,0
17520,-2.875,-5.0625,2.3125,0
17540,1.375,-4.1875,0.4375,0
17560,2.4375,-5.4375,0.5625,0
17580,2.5625,-5.625,0.3125,0
17600,1.375,-4.9375,-0.6875,0
17620,2.6875,-5.125,-2.1875,0
17640,5.4375,-5.625,-2.0625,0
17660,7,-5.75,-3.875,0
17680,5.0625,-7.8125,-2.5,0
17700,2.75,-10.75,-0.875,0
17720,1.5625,-12.25,0.0625,0
17740,3.5625,-12.3125,0.3125,0
17760,2.9375,-10.9375,-1.3125,0
17780,1.4375,-12.0625,-1,0
17800,0.25,-13.0625,-0.5625,0
17820,2.5625,-14.5,-3,0
17840,4.6875,-14.5,-4.625,0
17860,5.25,-13.625,-2.875,0
17880,4.3125,-15.3125,-1.6875,0
17900,3.5,-16.3125,-3.8125,0
17920,2.3125,-17.75,-1.9375,0
17940,2.9375,-16.8125,-0.9375,0
17960,3.6875,-15.125,-2.875,0
17980,5.5,-14.4375,-4.1875,0
18000,5.625,-11.625,-2.3125,0
18020,6.375,-11.4375,-4.375,0
18040,9.8125,-11.8125,-6.25,0
18060,13,-13.625,-6.25,0
18080,10.375,-14.875,-4.875,0
18100,7.5,-14.3125,-5.25,0
18120,4.4375,-14.1875,-2,0
18140,4.5,-16.0625,-1.4375,0
18160,10.0625,-16.875,-3.3125,0
18180,8.625,-16.1875,-3.6875,0
18200,7.5625,-14.1875,-4.4375,0
18220,7.25,-14.9375,-5.25,0
18240,7.0625,-15,-7.0625,0
18260,8.125,-17.5,-7.0625,0
18280,11.25,-17.9375,-8.8125,0
18300,12.4375,-18.9375,-7.3125,0
18320,9.5,-18.3125,-7.625,0
18340,8.25,-21,-5.625,0
18360,8.8125,-24.5,-6.375,0
18380,12.125,-25.1875,-5.5,0
18400,10.0625,-24.8125,-4.625,0
18420,5.125,-23.9375,-6.5625,0
18440,4.1875,-25.875,-7.5,0
18460,7.75,-27.0625,-8.0625,0
18480,9.0625,-25.1875,-8.75,0
18500,7,-21.625,-8.5,0
18520,8.25,-21.9375,-11.3125,0
18540,10.5,-26.4375,-11.5625,0
18560,12.25,-28.6875,-12.1875,0
18580,13.125,-26.3125,-13.4375,0
18600,12,-23.125,-14.875,0
18620,6.75,-24.625,-13.125,0
18640,7.875,-26.75,-15.5,0
18660,10.1875,-27.5625,-16.6875,0
18680,9.8125,-24.875,-15.625,0
18700,9,-19.875,-13.875,0
18720,5.75,-18.9375,-13.0625,0
18740,7.5,-19.8125,-10.5,0
18760,9,-20.75,-12.5625,0
18780,10.25,-17.5,-13.5,0
18800,8.4375,-12.8125,-10.5625,0
18820,9.1875,-11.625,-9.0625,0
18840,11.125,-14.75,-10.875,0
18860,16.1875,-16.75,-14.375,0
18880,16.5,-14.5,-14.25,0
18900,14.375,-12.3125,-13.125,0
18920,13.125,-12.125,-12.0625,0
18940,13.25,-14,-13.4375,0
18960,17.1875,-15.4375,-16.9375,0
18980,19.375,-16.6875,-15.9375,0
19000,18.6875,-15.625,-15.0625,0
19020,18.625,-13.9375,-17.5,0
19040,17.4375,-15.875,-16.625,0
19060,17.5625,-17.5,-16.375,0
19080,14.8125,-16.875,-18.125,0
19100,13,-15.1875,-18.375,0
19120,12.0625,-15.625,-20.625,0
19140,10.8125,-11.75,-19.0625,0
19160,6.875,-7.1875,-19.6875,0
19180,4.4375,-4.4375,-23.3125,0
19200,1,-3.875,-23.8125,0
19220,2.25,-5.25,-27.6875,0
19240,-2.8125,-3.75,-28.5,0
19260,-4.875,-4.75,-29.1875,0
19280,-3.5625,-6.0625,-31.9375,0
19300,-6.8125,-6.0625,-34.4375,0
19320,-6.25,-6.75,-33.75,0
19340,-9,-9.5625,-30.5625,0
19360,-9.375,-9.6875,-32.5,0
19380,-12.25,-9,-30.8125,0
19400,-14.4375,-8.625,-31.8125,0
19420,-12.3125,-10.5625,-30.1875,0
19440,-13.5625,-9.8125,-34.875,0
19460,-11.5,-9.8125,-29,0
19480,-12.25,-8.6875,-37.0625,0
19500,-16.375,-7.6875,-31.1875,0
19520,-16.875,-6.75,-39.6875,0
19540,-17.125,-4.4375,-33.3125,0
19550,-19.0625,-3.25,-43,0
19570,-21.625,-1.5,-35.6875,0
19590,-17.1875,-2.375,-43.5,0
19610,-19,-1.6875,-34.625,0
19630,-22.5625,3.8125,-38,0
19650,-22.875,7.625,-37.3125,0
19670,-23.6875,10.0625,-34.0625,0
19690,-21.625,11.5625,-32.875,0
19710,-18.1875,13.8125,-36.3125,0
19730,-21.625,15.0625,-29.1875,0
19750,-16.8125,19.25,-40.25,0
19770,-17.625,16.3125,-32.25,0
19790,-16.25,15.8125,-31.5625,0
19810,-16.1875,18.6875,-29.25,0
19830,-19.4375,23.25,-29,0
19850,-20.8125,27.125,-28.375,0
19870,-23.125,27.75,-28.3125,0
19890,-22.6875,25.9375,-27.9375,0
19910,-22.375,27.125,-27.8125,0
19930,-21.8125,30.375,-27.5625,0
19950,-24.5,34.125,-26.6875,0
19970,-25.3125,34.0625,-24.4375,0
19990,-24.1875,33.0625,-20.5625,0
20010,-27.6875,35.625,-20.875,0
20030,-28.3125,36.4375,-17.3125,0
20050,-24.25,34.375,-13.6875,0
20070,-13.9375,34.6875,-12.0625,0
20090,-13.5625,35.625,-11.25,0
20110,-12.5,37.5,-3.125,0
20130,-3.25,30.75,-2.875,0
20150,-11.5,30,-3.1875,0
20170,-18.6875,37.5,-0.0625,0
20190,-11.875,36.875,0.375,0
20210,-7.125,32.0625,-0.875,0
20230,-0.75,29.0625,-0.0625,0
20250,2.25,29.8125,-1.625,0
20270,-0.1875,30.875,0.8125,0
20290,3.3125,33.3125,1.3125,0
20310,-8.0625,36.9375,3.0625,0
20330,-6.75,33.625,6.375,0
20350,-0.125,26.5625,4.125,0
20370,7.8125,25.5625,2.75,0
20390,1.75,30.125,6.625,0
20410,1.4375,24.3125,9.0625,0
20430,4.625,20.1875,7.75,0
20450,4.875,23.5625,4.6875,0
20470,7,24.5,4.5,0
20490,10.75,23.0625,3.9375,0
20510,14.4375,22.625,1.4375,0
20530,15,25.1875,-2.75,0
20550,11.5,22.6875,-0.75,0
20570,7.5,22.3125,4.4375,0
20590,-0.875,20.8125,6.5,0
20610,7.375,17.6875,7.375,0
20630,9.0625,17.1875,7.1875,0
20650,4.5,16.4375,11.8125,0
20670,-6.4375,22,9.1875,0
20690,-13.4375,19,13.375,0
20710,-3.625,10.9375,13.9375,0
20730,8,8.4375,18.0625,0
20750,3.0625,15,14.25,0
20770,-5.3125,17.3125,17.25,0
20790,-14.625,11.375,24.125,0
20810,-11.625,11.25,18.875,0
20830,-8.8125,13.6875,18.625,0
20850,-9.375,12.625,17.3125,0
20870,-2.5625,9.3125,17.625,0
20890,2.5625,8.75,16.25,0
20910,-3.75,10.375,11.25,0
20930,-6.25,7.8125,8,0
20950,-6.6875,3.5625,6.375,0
20970,4.8125,1.375,13.125,0
20990,2.125,3.375,13.75,0
21010,-6.75,0.3125,17.6875,0
21030,-8.875,-1.625,24.75,0
21050,-4.25,-3.5,20.4375,0
21060,-2,-2.5625,18.0625,0
21090,-7.4375,-1.625,18.75,0
21110,-8.0625,-2.6875,18.75,0
21130,-4.625,-3.9375,18.375,0
21150,0.0625,-4.375,18.3125,0
21170,0.5625,-4,21.875,0
21190,-3.5625,-1.125,23.3125,0
21210,-9.625,-1.4375,22.8125,0
21230,-8,-1.6875,22.25,0
21250,-4.125,0.6875,18.3125,0
21270,-2.75,0.375,20.9375,0
21290,-1.8125,-4.4375,20,0
21310,0.8125,-10.25,15.6875,0
21330,5.8125,-10.9375,12.375,0
21350,3.3125,-10.3125,9.25,0
21370,-4.875,-11.5625,12.375,0
21390,-4.0625,-13.25,14.6875,0
21410,-0.4375,-11.9375,11.9375,0
21430,3,-9.75,12.9375,0
21450,-1.9375,-11.0625,18.0625,0
21470,-6.0625,-11.125,19.375,0
21490,-4.375,-11.5,21.5625,0
21500,-6.125,-9.3125,23,0
21520,-4.25,-10.0625,24.8125,0
21540,-4.4375,-13.0625,22.875,0
21560,2.1875,-13.1875,22.3125,0
21580,5.6875,-9.875,21.8125,0
21600,2.4375,-6.5625,23.25,0
21620,0.625,-8.4375,22.25,0
21640,4,-9.9375,19.375,0
21660,10.5,-11.6875,18.4375,0
21680,12.5,-12.0625,15.375,0
21700,8.0625,-10.8125,17.1875,0
21720,0.75,-9.9375,18.75,0
21740,-1.125,-10.9375,18.1875,0
21760,7,-11.4375,14.3125,0
21780,9.6875,-11.4375,16.0625,0
21800,3.0625,-13.3125,18.8125,0
21820,-3.5625,-13.25,20.875,0
21840,-4.3125,-16.5625,27,0
21860,-0.25,-19.9375,27,0
21880,0.75,-19.1875,26.5625,0
21900,1.6875,-20.375,23.8125,0
21920,3.75,-18.25,18.0625,0
21940,8.3125,-18.0625,16.125,0
21960,12.25,-13.0625,13.5625,0
21980,6.75,-12.25,13.75,0
22000,5.875,-15.0625,12.875,0
22020,11.375,-16.9375,8.1875,0
22040,11.875,-17.75,8.5625,0
22060,5,-15.625,11.125,0
22080,1.0625,-14.3125,12.9375,0
22100,2.8125,-14.875,15.8125,0
22120,5.625,-12.125,14.6875,0
22140,2.9375,-9.1875,16.3125,0
22160,-1.4375,-12.8125,15.5,0
22180,3.5625,-16.1875,12.3125,0
22200,9.75,-17.4375,8.9375,0
22220,9.1875,-19.4375,11.8125,0
22240,1.9375,-20.25,12.9375,0
22260,2.9375,-20.4375,11.25,0
22280,5.1875,-19.25,8.5625,0
22300,5.6875,-18.4375,8,0
22320,6,-17.5625,6.625,0
22340,9.375,-19.8125,7.5625,0
22360,6,-20.4375,8.375,0
22380,-0.1875,-20.3125,7.3125,0
22400,2.375,-22,8.8125,0
22420,2.5625,-22.5625,8.5,0
22440,-0.75,-20.8125,7.0625,0
22460,1.8125,-17.8125,4.875,0
22480,5.1875,-18.4375,3.8125,0
22500,8.25,-19.125,3.0625,0
22520,6.6875,-19,4.5625,0
22540,3.8125,-19.875,5.25,0
22560,0,-22.5625,7,0
22580,1.5625,-24.875,10.0625,0
22600,3.5625,-27.625,13.4375,0
22620,6.4375,-27.0625,10.375,0
22640,7.6875,-23.5625,7.875,0
22660,7.3125,-22.25,6.625,0
22680,4.125,-21.875,1.25,0
22700,11.4375,-26.25,-2.5,0
22720,17.75,-26.1875,-2.5,0
22740,13.8125,-23.75,-4.0625,0
22760,5.4375,-23.625,-0.125,0
22780,2.5,-24.875,1.0625,0
22800,7.6875,-24.5,-2.0625,0
22820,13.5,-22.4375,-1.5,0
22840,11.125,-18.875,-2.6875,0
22860,6.625,-15.5625,-4.6875,0
22880,6.0625,-15.75,-5.4375,0
22900,9.9375,-19.5625,-1.8125,0
22920,13.5,-22.9375,-4.0625,0
22940,10.875,-19.1875,-1.0625,0
22960,8.625,-20.5625,6.5625,0
22980,8.125,-23.75,7.5625,0
23000,6.125,-21.375,5.4375,0
23020,9.25,-19.3125,5.1875,0
23040,7,-20.1875,-0.1875,0
23060,8.1875,-19.9375,-8.75,0
23080,13.0625,-19.3125,-9.5625,0
23100,11.4375,-18,-7.75,0
23120,6.375,-18.4375,-5.3125,0
23140,2.75,-21.6875,0.5,0
23160,5.125,-24.875,5.5625,0
23180,6.8125,-26.4375,7.4375,0
23200,6.0625,-23.5,5.875,0
23220,3,-20.9375,3.6875,0
23240,5.0625,-20.1875,-1.125,0
23260,9.6875,-21.5625,-5.75,0
23280,13.25,-21.4375,-8.0625,0
23300,10.8125,-17.75,-7.5,0
23320,0.5,-16.3125,-2.25,0
23340,1.125,-22.375,-1.9375,0
23360,10.4375,-26.8125,-2.6875,0
23380,9.25,-23.25,0.375,0
23400,3.5,-20.0625,3.75,0
23420,-0.875,-19.6875,5.375,0
23440,3.1875,-18.8125,3.3125,0
23460,3.1875,-17.1875,0.0625,0
23480,1.75,-17.25,-8.5625,0
23500,2.9375,-16.8125,-14.1875,0
23520,3,-16.0625,-13.0625,0
23540,2.875,-18.5625,-12.1875,0
23560,1.0625,-22.1875,-9.8125,0
23580,5.375,-24.75,-4.5,0
23600,6.9375,-24.4375,-3.625,0
23620,4.625,-20.25,-2.875,0
23640,-0.375,-17.3125,-2.5,0
23660,0,-15.75,-5.75,0
23680,2.5,-16.4375,-8.875,0
23700,2.0625,-15.875,-9.4375,0
23720,-0.125,-16.1875,-13.125,0
23740,-1.75,-16.25,-15.5625,0
23760,-5.625,-17.3125,-14.25,0
23780,-4.5,-18.625,-11,0
23800,-1.75,-23.5625,-7.9375,0
23820,0.75,-24.6875,-8.625,0
23840,1.875,-24.125,-6.1875,0
23860,1.9375,-22.1875,-6.625,0
23880,-1.3125,-19.3125,-10.75,0
23900,-7.1875,-17.5,-14.5625,0
23920,-9,-20.8125,-19.625,0
23940,-7.1875,-19.0625,-19,0
23960,-6.5,-8.75,-19.3125,0
23980,-15.5,-3.375,-12.625,0
24000,-24.8125,-5.6875,-20.4375,0
24020,-24.875,-6.5,-15.875,0
24040,-22.0625,-10.1875,-25.9375,0
24060,-22.3125,-6.6875,-22,0
24080,-26.25,-5.8125,-23.625,0
24100,-24.1875,-2.875,-25.25,0
24120,-25.875,-3.25,-24.5,0
24140,-22.5,-4,-25.4375,0
24160,-21.5,-4.625,-26.0625,0
24180,-26.875,-2.5625,-25.4375,0
24200,-28.75,-2.9375,-25.9375,0
24220,-23.6875,-1.375,-22.5,0
24240,-24.5625,-0.875,-20.625,0
24260,-26.0625,-3.5625,-19.9375,0
24280,-23.25,-5.875,-23.4375,0
24300,-25.8125,-5.4375,-17.8125,0
24320,-26.0625,-5.0625,-17.875,0
24340,-21.625,-3.3125,-20.9375,0
24360,-21.125,-2.4375,-19.25,0
24380,-16.875,-0.3125,-28.375,0
24400,-19.5,-0.9375,-21.4375,0
24420,-15.625,-2.25,-22.1875,0
24440,-18,0.0625,-22.1875,0
24460,-20.375,-0.375,-17.25,0
24480,-13.8125,0.6875,-24.9375,0
24500,-18.5625,1.25,-20.75,0
24520,-14.3125,2.125,-26.875,0
24540,-14.6875,2.375,-28.875,0
24560,-17.9375,2.5,-25.625,0
24580,-15.875,3.5625,-28.375,0
24600,-14.125,2.3125,-27.125,0
24620,-21.875,4.75,-21.8125,0
24640,-24.3125,8.25,-19.9375,0
24660,-18.875,8.8125,-22.625,0
24680,-19.5,7.4375,-18.4375,0
24700,-21.3125,10.25,-17.3125,0
24720,-18.8125,14.8125,-18.625,0
24740,-17.1875,14.5625,-17.3125,0
24760,-19.4375,16.25,-17.6875,0
24780,-19.5625,17.375,-18.25,0
24800,-15.375,16.25,-20.4375,0
24820,-15,14.5625,-22,0
24840,-12.5,13.375,-22.3125,0
24860,-3.5,13.3125,-23.5,0
24870,-9.125,13.5,-21.0625,0
24890,-19,13.375,-18.5625,0
24910,-18.6875,12.9375,-19,0
24930,-14.3125,15,-20,0
24950,-15.625,16.4375,-18.625,0
24970,-9.8125,15.8125,-16.9375,0
24990,-6.375,15.25,-24.625,0
25010,-13.375,14.375,-19.8125,0
25030,-20.1875,16.1875,-15.1875,0
25050,-19.4375,17.0625,-15.5625,0
25070,-13.5625,17.0625,-16.0625,0
25090,-3.125,18.5625,-10.125,0
25110,0.625,21.5,-18.9375,0
25130,-9.75,21.0625,-9.625,0
25150,-9.5625,21.75,-10.8125,0
25170,0.9375,20.6875,-14.9375,0
25190,-4.125,20.375,-14.875,0
25210,-15,19.5,-8.875,0
25230,-8,19.8125,-7.5625,0
25250,2.375,18.5625,-12.3125,0
25270,3.875,17.375,-13.8125,0
25290,2.625,19.75,-9.25,0
25310,-3.75,22,-6.0625,0
25330,-5.625,21.625,-8.9375,0
25350,1.25,17.375,-11.5625,0
25370,7.6875,13.875,-10.3125,0
25390,2.5,16.125,-7.875,0
25410,-4.4375,17.9375,-3.9375,0
25430,-8.125,17.6875,-0.625,0
25450,-2.5,13.6875,-0.6875,0
25470,1.875,15.0625,-1.75,0
25490,4.625,18.3125,-0.6875,0
25510,-4.6875,19.1875,0.8125,0
25530,-6.375,18,0.875,0
25550,-0.75,18.3125,3,0
25570,3.9375,18.625,2.875,0
25590,-0.0625,21.8125,3.125,0
25610,0.125,21.3125,2.1875,0
25630,-5.125,22.5,1.25,0
25650,0.625,22.0625,3.25,0
25670,2,21.875,4.8125,0
25690,1.0625,23.1875,4.5625,0
25710,-1.1875,22.625,8.625,0
25730,-4.3125,22.8125,4.5,0
25750,-2.875,22,8.625,0
25770,-8.6875,25.4375,8.9375,0
25790,-8.6875,23,9.5625,0
25810,-8.8125,20.5625,4.5625,0
25830,-5.5,21.25,3.4375,0
25850,-5.125,24.125,6.1875,0
25870,-6.75,19.875,9.75,0
25890,-11.5625,17.8125,7,0
25910,-10.4375,15.875,5.3125,0
25930,-5.125,14.4375,11.3125,0
25950,-8.25,14.5,14.875,0
25970,-12.6875,15.6875,19.8125,0
25990,-16.0625,10.5,20.125,0
26010,-7.5,11,19.8125,0
26030,-8.25,13.9375,15.6875,0
26050,-7.5,14.75,15.6875,0
26070,-8.5625,15.375,12,0
26090,-1.125,17.25,10.4375,0
26110,-3.3125,16.6875,12.3125,0
26130,-8.1875,17.5,10.1875,0
26150,-7.5625,14.6875,7.5625,0
26170,-0.625,9.5,12.5625,0
26190,-5.6875,10.5,11.25,0
26210,-10.25,10.375,13.75,0
26230,-17.5,7.125,13.125,0
26250,-10.5,2.625,10.4375,0
26270,-3.4375,2.8125,7.4375,0
26290,-4.625,0.125,6.625,0
26310,-11.5,-0.3125,9.625,0
26330,-10.75,-1.4375,9.6875,0
26350,-0.5,-5.1875,9.5625,0
26370,1.75,-6,8.75,0
26390,-2.25,-4,13.0625,0
26410,-13.3125,-2.8125,14.8125,0
26430,-10.0625,-4.625,14,0
26450,0.3125,-4.25,12.25,0
26470,2.0625,-1.625,14.5,0
26490,-1.375,-3.5625,16.3125,0
26510,-1.375,-6.25,15.8125,0
26530,4.5625,-7.875,17.125,0
26550,6.1875,-8.375,16.5,0
26570,3.25,-8.375,17.3125,0
26590,2.625,-10.75,18.25,0
26610,5.0625,-8.4375,17,0
26630,5.25,-7.625,17,0
26650,-1.6875,-3.3125,16.4375,0
26670,0.5,-4.4375,16.625,0
26690,6.1875,-8.6875,16.5,0
26710,10.5625,-10.4375,15.75,0
26730,2.5,-8.5625,18.0625,0
26750,-5.1875,-9.3125,17.125,0
26770,-1.875,-9.5625,16.5,0
26790,7.875,-5.25,12.6875,0
26810,6.5625,-4,12.5,0
26820,1.5625,-3.5,16.875,0
26840,-0.375,-4.25,18.5,0
26860,2.375,-7.3125,19.5,0
26880,3.375,-10.125,18.25,0
26900,0.8125,-9.125,16.4375,0
26920,2.0625,-7.25,15.5625,0
26940,7.875,-3.9375,15.75,0
26960,7.625,0.375,16.875,0
26980,4.9375,2.0625,16.125,0
27000,3.125,-0.25,13.375,0
27020,4.6875,-1,12.5,0
27040,2,0.4375,16.4375,0
27060,-4.75,-2.3125,20.375,0
27080,-2,-4.5625,19.125,0
27100,5.5625,-4.3125,15.625,0
27120,8.25,-4.3125,14.1875,0
27140,0.1875,-5.4375,14.875,0
27160,-0.125,-8.75,15.125,0
27180,9.125,-8.625,12.0625,0
27200,10.0625,-7.25,15.25,0
27220,-0.1875,-6.4375,16.9375,0
27240,-3.625,-4.875,18.1875,0
27260,2.25,-4.25,17.9375,0
27280,3.25,-6.75,17.625,0
27300,3.125,-7.1875,16.4375,0
27320,-1.4375,-5.9375,14.75,0
27340,2.1875,-6,13.125,0
27360,4.9375,-6.3125,13.0625,0
27380,5.4375,-4.9375,14.125,0
27400,0.75,-3.375,16.1875,0
27420,1.1875,-3.75,15.8125,0
27440,2.875,-4.9375,15.25,0
27460,5.875,-5.3125,15.3125,0
27480,2.1875,-5.9375,14.25,0
27500,1.625,-7.75,15.3125,0
27520,1,-8.375,14.8125,0
27540,4.375,-9.1875,12.4375,0
27560,4.6875,-9.3125,11.375,0
27580,1.0625,-10,11.875,0
27600,-2.5625,-10.6875,11.5625,0
27620,2,-12.5625,11.0625,0
27640,5.9375,-12.125,12.625,0
27660,-0.5625,-13.9375,15.3125,0
27680,-6.25,-12.9375,15.875,0
27700,-4,-14.25,15.6875,0
27720,1.75,-16.375,13.8125,0
27740,0.625,-17.0625,12.625,0
27760,-2.125,-18.8125,12.1875,0
27780,-2.9375,-20.9375,14.125,0
27800,-3.375,-20.75,13.625,0
27820,1.875,-19.6875,13.25,0
27840,0.4375,-17.375,13.125,0
27860,0.125,-18.8125,14.875,0
27880,-1.25,-17.875,13.5625,0
27900,3.25,-17.1875,13.4375,0
27920,4.0625,-17.1875,13.3125,0
27940,4.4375,-17.5625,11.6875,0
27960,2.25,-15.875,12.4375,0
27980,2.125,-15.625,12.75,0
28000,8.1875,-19.25,6.8125,0
28020,11.1875,-18.25,7.1875,0
28040,6.75,-16.0625,7.6875,0
28060,-1,-17.75,9.1875,0
28080,1.125,-20.125,7.4375,0
28100,7.1875,-20.6875,7.8125,0
28120,3.375,-19.5625,8.875,0
28140,1.125,-19.875,8.6875,0
28160,1.125,-20.9375,8,0
28180,0.875,-22.9375,6.625,0
28200,2.5,-22.875,4.3125,0
28220,3.8125,-21.5625,3.6875,0
28240,3.25,-23.6875,3.1875,0
28260,2.375,-24.75,2.0625,0
28280,2.3125,-24.9375,2.6875,0
28300,1.5,-23.25,5.4375,0
28320,-2.5625,-21.75,4.8125,0
28340,-0.3125,-20.9375,5.5,0
28360,2.6875,-20.75,4.75,0
28380,6,-22.3125,1.75,0
28400,6.5,-22.5,0.3125,0
28420,4.0625,-20.4375,0.6875,0
28440,0.5625,-21.5,-0.8125,0
28460,3.25,-23.875,-1.875,0
28480,9.1875,-23.75,-3.625,0
28500,8.1875,-22.875,-1.1875,0
28520,-0.3125,-23.125,2.0625,0
28540,-1.3125,-21.75,2.4375,0
28560,0.8125,-21.4375,0.25,0
28580,5,-24.5625,0,0
28600,6.375,-25.25,-1.5,0
28620,3.625,-23.5625,-2.1875,0
28640,5.0625,-25.75,-3.1875,0
28660,4.5,-26.9375,-4.625,0
28680,7,-26.9375,-6.4375,0
28700,6.75,-24.125,-5.4375,0
28720,-0.3125,-22.5,-1.75,0
28740,0.6875,-25.25,-0.875,0
28760,7.0625,-25.4375,-4.9375,0
28780,6,-24.5,-3.125,0
28790,0.25,-23.0625,-1.3125,0
28810,-3.1875,-22.375,-1.4375,0
28830,0.875,-23.25,-3.625,0
28850,2.3125,-24,-6.25,0
28870,3.1875,-19.5,-5.9375,0
28890,-2.875,-17.3125,-5.5,0
28910,-4.5,-22.6875,-5.875,0
28930,-1.9375,-25.25,-7.1875,0
28950,0.4375,-19.8125,-8.375,0
28970,-4.125,-16.9375,-6.625,0
28990,-4.75,-21.5,-6.3125,0
29010,-3.25,-22.875,-10.0625,0
29030,-1.5625,-21.5,-9.8125,0
29050,-6.6875,-20,-9.6875,0
29070,-8.625,-21.0625,-9.9375,0
29090,-5.5625,-22.25,-10.875,0
29110,-3.375,-21.4375,-11.5625,0
29130,-4.0625,-22.6875,-12.0625,0
29150,-5,-22.375,-13.375,0
29170,-6.625,-20.75,-12.25,0
29190,-7.625,-18.875,-12.5,0
29210,-6,-19.3125,-12.5625,0
29230,-2.8125,-17.375,-15.4375,0
29250,-2.125,-13.6875,-13.9375,0
29270,-2,-14.5625,-12.9375,0
29290,-1,-16.75,-13.0625,0
29310,0.375,-13.25,-17.125,0
29330,-1,-12.0625,-15.9375,0
29350,-6.9375,-9.375,-12.875,0
29370,-8.375,-7.3125,-14.4375,0
29390,-5.6875,-5.875,-19.4375,0
29410,-6.1875,-5.8125,-19.125,0
29430,-9.5,-5.9375,-18.9375,0
29450,-9.5,-4,-17.1875,0
29470,-11.5,-4.1875,-14.6875,0
29490,-13.5625,-5.25,-15.4375,0
29510,-11.8125,-5.9375,-19.4375,0
29530,-11.75,-4.875,-17.125,0
29550,-14,-5.125,-13.4375,0
29570,-18.75,-4.5,-14.25,0
29590,-17.0625,-4.5625,-15.125,0
29610,-15.1875,-5.8125,-12.875,0
29630,-16.0625,-4,-18.625,0
29650,-19.375,-5.4375,-13.6875,0
29670,-18.5625,-4.6875,-15.8125,0
29690,-15.875,-2.4375,-21.1875,0
29710,-16.1875,-2.3125,-22.25,0
29730,-15.9375,-3.3125,-21.3125,0
29750,-14.3125,-3.25,-22.6875,0
29770,-15.4375,-1,-24.75,0
29790,-15.4375,1.25,-26.625,0
29810,-13.1875,2.625,-25.5625,0
29830,-9.5625,3.75,-24.75,0
29850,-8.625,3.4375,-26,0
29870,-18.875,3.75,-18.9375,0
29890,-22.125,5.875,-17.625,0
29910,-18.75,6.625,-19.75,0
29930,-16.0625,7.1875,-21.125,0
29950,-20.9375,8.875,-21.1875,0
29970,-19.9375,10.875,-21.75,0
29990,-14,12.625,-17.8125,0
30010,-9,11.5,-17.5625,0
30030,-6.625,7.8125,-22.6875,0
30050,-11.375,10.9375,-22.6875,0
30070,-23.625,15.25,-15.5,0
30090,-20.75,18.125,-11.1875,0
30110,-11.5,14.25,-13,0
30130,-3.9375,12.8125,-16.25,0
30150,-9.4375,15.5,-14.75,0
30170,-16.625,17.9375,-10.6875,0
30180,-17.5625,16.75,-11.75,0
30200,-10.0625,17.6875,-14.4375,0
30220,-9,19,-15.3125,0
30240,-9.4375,21.125,-15.25,0
30260,-8.1875,20.25,-13.125,0
30280,-10.3125,19.4375,-11.0625,0
30300,-8.5625,18.9375,-10.8125,0
30320,-5.8125,18.375,-11.1875,0
30340,-9.3125,18,-9.125,0
30360,-8.125,19.3125,-6.25,0
30380,-8,16.625,-6.3125,0
30400,-2.125,15.4375,-7.625,0
30420,-2.25,15.375,-7.1875,0
30440,-5,16.3125,-6.375,0
30460,-5.1875,15.5625,-8.3125,0
30480,0.9375,13.375,-10.25,0
30500,-1.5,14.9375,-12.8125,0
30520,-0.25,15.5625,-10.125,0
30540,0.4375,16.125,-10.3125,0
30560,2.25,15.875,-9.5625,0
30580,0.4375,16.9375,-9,0
30600,-3.875,16.6875,-6.125,0
30620,-4.75,15.625,-3.3125,0
30640,-7.1875,15.4375,-7.1875,0
30660,-3.5625,15.5,-9.0625,0
30680,-0.5,13.0625,-8.8125,0
30700,-2.25,15.9375,-9.1875,0
30720,-2.8125,16,-5.0625,0
30740,-2.25,13.375,-6.125,0
30760,1.75,15.75,-6.75,0
30780,-2.25,17.5,-5.3125,0
30800,-7.5625,16.4375,-3.3125,0
30820,-7.5625,17.625,-3.25,0
30840,-5,16.625,-4.4375,0
30860,-3.1875,15.9375,-7.25,0
30880,-4.125,16.3125,-6.3125,0
30900,-2.6875,15.9375,-5.4375,0
30920,-7.1875,15.375,-4.0625,0
30940,-7.8125,16.75,-4.125,0
30960,-5.25,17.875,-6.1875,0
30980,-0.4375,13.375,-3.6875,0
31000,-1.125,14.25,-2.5,0
31020,-6.875,13.5,-0.3125,0
31040,-10.125,13.4375,-1.25,0
31060,-7,12.8125,0.3125,0
31080,-2,11.5,0.9375,0
31100,-5.1875,11.1875,3.3125,0
31120,-5.6875,10.5625,5.125,0
31140,-3.8125,10.4375,5.875,0
31160,-4.375,10.125,1.9375,0
31180,1.25,8,1.5,0
31200,1.9375,9.0625,0.8125,0
31220,-2.5,7.5625,3,0
31240,-4.5625,7.0625,4,0
31260,-1.9375,6.8125,4.375,0
31280,-1.8125,3.5625,7.5625,0
31300,-4.125,3.375,7.25,0
31320,-1.8125,6.125,6.4375,0
31340,-0.375,7.5,7.875,0
31360,-5.625,8.0625,4.5,0
31380,-1.375,8.625,2.625,0
31400,0.5,6.875,1.5625,0
31420,-4.25,6.5,2.8125,0
31440,-7.75,5.0625,4.375,0
31460,-7,5,3.1875,0
31480,-5.3125,5.3125,3.6875,0
31500,-6.375,6.375,4.125,0
31520,-5.6875,7.625,2.4375,0
31540,-2.6875,5.875,3.25,0
31560,-4.125,5.625,2.375,0
31580,-7.0625,4.5625,2.5,0
31600,-6.6875,5.3125,1.75,0
31620,-5.875,7.375,3.5625,0
31640,-8.5,9.875,4.125,0
31660,-10.5625,9.75,2.9375,0
31680,-3.4375,8.3125,1.6875,0
31700,0.375,8.5625,3.0625,0
31720,-5.0625,8.125,5.3125,0
31740,-10.9375,9.0625,5,0
31760,-9,7.3125,3,0
31780,-2.75,11.0625,4.5,0
31800,-4.4375,14.1875,4.75,0
31820,-9.75,15.8125,8.3125,0
31840,-8.9375,14.5625,7.4375,0
31860,-5.25,19.1875,7.1875,0
31880,-7.1875,15.8125,12.25,0
31900,-12.5,13.875,12.4375,0
31920,-12.5625,12.6875,11.875,0
31940,-12.6875,13.375,11.75,0
31960,-8.75,11,11.6875,0
31980,-5.0625,11.5,11.0625,0
32000,-8.9375,14.25,3.4375,0
32020,-8.25,11,12.8125,0
32040,-8.625,15.625,16.0625,0
32060,-6.8125,8.625,17.4375,0
32080,-5.3125,8.9375,16.8125,0
32100,-11.8125,7.9375,14.8125,0
32120,-12.625,6.6875,15.3125,0
32130,-11.375,2.1875,12.3125,0
32150,-3.9375,3.6875,16.5,0
32170,-6.5625,2.625,13.25,0
32190,-10.25,-0.375,16.8125,0
32210,-9,-0.375,15.6875,0
32230,-6.0625,-1.1875,16.625,0
32250,-3.4375,-2.4375,15.75,0
32270,-2.875,-2,15.5,0
32290,-3.5,-3.3125,14.4375,0
32310,-2,-4.3125,13.375,0
32330,-0.9375,-3.875,10.9375,0
32350,2.75,-5.4375,11.5,0
32370,1.125,-5.875,13.375,0
32390,2.4375,-3.5625,13.4375,0
32410,4.25,-3,13,0
32430,2.6875,-3.375,12.125,0
32450,-0.5625,-3.0625,14.25,0
32470,-1.625,-2.75,15.6875,0
32490,6.25,-4.125,13.4375,0
32510,9.9375,-2.25,12.1875,0
32530,3.4375,-2.1875,14.8125,0
32550,1.8125,-3.3125,15,0
32570,5.75,-2.9375,14.1875,0
32590,7.1875,-5.125,14.0625,0
32610,4.1875,-3.5,14.875,0
32630,2.75,-2.5625,16.1875,0
32650,4.75,-3,15.6875,0
32670,11.0625,-4.875,14.625,0
32690,8.9375,-4.4375,14.3125,0
32710,2.5625,-3.9375,16.375,0
32730,0.9375,-5.5,16.375,0
32750,7,-7,16.25,0
32770,9.3125,-7.75,14.4375,0
32790,5.4375,-7.625,15.9375,0
32810,1.75,-6.875,15.625,0
32830,5.3125,-7.1875,14.5625,0
32850,9.25,-9.1875,13.8125,0
32870,6.8125,-9,14.8125,0
32890,1.3125,-8.875,16.3125,0
32910,1.6875,-8.9375,15.25,0
32930,6.4375,-11.625,15.5625,0
32950,5.125,-13.4375,17.875,0
32970,0.75,-12.6875,19.0625,0
32990,0.9375,-12.0625,18,0
33010,12,-15.625,13.4375,0
33030,10.625,-13.9375,10.75,0
33050,2.75,-13.5625,15.1875,0
33070,0.3125,-15.5625,15.9375,0
33090,7.5625,-15,14.1875,0
33110,11.375,-14.9375,14.1875,0
33130,4.375,-11,15.5,0
33150,0.0625,-10.5,15.4375,0
33170,3.5,-11.5,14.75,0
33190,10.25,-12.9375,14.375,0
33210,8.1875,-12.625,14.1875,0
33230,2.3125,-13.5,13.625,0
33250,3.6875,-14.75,14,0
33270,7.4375,-15.8125,13.875,0
33290,7.5,-15.5,13.375,0
33310,5.5,-15.8125,13.875,0
33330,2.9375,-16,14.5,0
33350,5.3125,-16.1875,12.9375,0
33370,5.375,-16.75,10.6875,0
33390,5.9375,-18.0625,11.9375,0
33410,3.9375,-17.25,10.75,0
33430,2.1875,-18.875,12.4375,0
33450,2.125,-19,14.75,0
33470,-1.25,-17.875,16.5,0
33490,-0.8125,-18.5,14.25,0
33510,5.0625,-18.5625,11.625,0
33530,3.1875,-18.5625,13.1875,0
33550,-0.375,-19.1875,14.375,0
33570,0.5,-20.0625,14.9375,0
33590,4.5,-21,14.4375,0
33610,6.125,-21.0625,11.0625,0
33630,4.375,-19.4375,13.5,0
33650,-1.0625,-19.25,14.3125,0
33670,1.8125,-21.75,11.125,0
33690,7.8125,-20.8125,8.4375,0
33710,7.375,-19.5625,7.625,0
33730,1.25,-19.875,7.6875,0
33750,-0.6875,-21.625,7.875,0
33770,6.5,-23.125,7.3125,0
33790,7.6875,-21.5,6.625,0
33810,-0.75,-22.375,10.125,0
33830,-4.3125,-23.25,7.5625,0
33850,4.3125,-26.5625,3.625,0
33870,9.8125,-28.875,2.6875,0
33890,2.5,-28.8125,1.375,0
33910,-3,-28.8125,2.125,0
33930,1.6875,-28.875,-0.25,0
33950,8.125,-31,0.5625,0
33970,6,-26.6875,-0.1875,0
33990,3.6875,-24.875,-0.375,0
34010,2.25,-25.0625,-0.4375,0
34030,3.5,-27.4375,-3.375,0
34050,8.8125,-26.75,-5.875,0
34070,11.75,-24.6875,-5.6875,0
34090,4.375,-23.5,-4.4375,0
34110,1.5625,-22.25,-5,0
34130,9.9375,-25.4375,-4.125,0
34150,14.625,-25.5625,-1.375,0
34170,8.4375,-24.9375,2,0
34190,0.4375,-23.4375,2.9375,0
34210,2.25,-22.5625,0.25,0
34230,4.6875,-22.5625,-3.1875,0
34250,6.25,-23.6875,-5.875,0
34270,9.8125,-25.25,-7.3125,0
34290,12.1875,-26.5,-10.1875,0
34310,7.8125,-24,-9.5,0
34330,2.75,-24.4375,-7.8125,0
34350,1.5,-22.625,-5.9375,0
34370,5.0625,-21,-6.5,0
34390,10.9375,-22.8125,-7.625,0
34410,6.625,-21.625,-7.625,0
34430,0.375,-16.75,-5.5,0
34450,-0.125,-16.6875,-5.125,0
34470,4.875,-18.4375,-9.75,0
34490,7.5625,-19.125,-11.0625,0
34510,3.1875,-16.5625,-10.125,0
34530,-1.25,-17.1875,-7.625,0
34550,-3.5625,-15.875,-8.125,0
34570,2.75,-15.4375,-9.6875,0
34590,9.5,-16.75,-11.5,0
34610,1.9375,-16,-10.1875,0
34630,-2.1875,-14.25,-7.1875,0
34650,-0.875,-12.875,-7.625,0
34670,2.4375,-12.6875,-9.875,0
34690,3.375,-14.5625,-10,0
34710,2.875,-12.25,-10.625,0
34730,3.125,-11.125,-11.6875,0
34750,2.4375,-11.875,-14.25,0
34770,-0.8125,-11.0625,-14.125,0
34790,1.9375,-7.5,-13.0625,0
34810,-0.0625,-7.8125,-13.9375,0
34830,-1.875,-8,-14.5625,0
34850,2.0625,-7.8125,-13.25,0
34870,3.6875,-9,-13.875,0
34890,-1.4375,-8.5,-12.0625,1001
34910,-2.125,-7.8125,-10.5625,0
34930,-0.75,-8,-8.625,0
34950,-2.5625,-12.5625,-8.875,0
34970,-0.875,-11,-9.4375,0
34990,1.1875,-6.375,-10.75,0
35010,1.375,-5.9375,-10.1875,0
35030,3.25,-9.25,-8.375,0
35050,3.625,-6.25,-8.875,0
35070,2.5,-1.5625,-6.1875,0
35090,-1.0625,-1.5,-2.1875,0
35110,4.5,-1.3125,-1.5,0
35130,7,0.9375,-0.8125,0
35150,1.9375,1.5625,1.5,0
35170,2.3125,1.75,2,0
35190,5.125,0.1875,3.25,0
35210,2.0625,1.625,1.125,0
35230,4.25,-2.4375,3.6875,0
35250,5.1875,-4.6875,0.75,0
35270,-0.4375,-4.8125,1.6875,0
35290,-1.375,-8.25,0.5625,0
35310,0.8125,-7.75,-1.5,0
35330,2.875,-7.9375,-2,0
35350,-2.625,-6.9375,1.875,0
35370,-5.5,-4.125,8.0625,0
35390,-1.8125,-0.1875,11.9375,0
35410,-3.75,3.9375,15.6875,0
35430,-9.6875,6.25,21.25,0
35450,-17,14,24.625,0
35470,-16.875,19.1875,22.1875,0
35480,-9.5,20.6875,18.9375,0
35500,-10.875,20.5625,19.375,0
35520,-20.4375,21.0625,16.875,0
35540,-25.3125,20.625,15.0625,0
35560,-26.3125,18.875,13.125,0
35580,-22.125,16.5,12.5,0
35600,-18.8125,14.0625,15.0625,0
35620,-28.6875,18.75,15.0625,0
35640,-32.3125,18.3125,13.6875,0
35660,-22.3125,13.4375,8.6875,0
35680,-16.8125,14.3125,-0.1875,0
35700,-15.3125,15.6875,-2.5,0
35720,-24.5625,15.75,-5.75,0
35740,-23.5,13.1875,-8.1875,0
35760,-9.1875,14.25,-11,0
35780,-12.9375,18.8125,-10.5,0
35800,-19.1875,20.4375,-3.6875,0
35820,-23.8125,22.9375,-4.0625,0
35840,-28.8125,32.8125,-3.5,0
35860,-23.8125,35.25,0.3125,0
35880,-16.4375,35.25,-6,0
35900,-14.75,41.5625,-9.125,0
35920,-16,42.9375,-11.1875,0
35940,-34.0625,50.75,-15.5625,0
35960,-40,50.125,-12.625,0
35980,-17.0625,44.25,-12.9375,0
36000,-13.375,45.8125,-19.4375,0
36020,-23,48.5625,-7.4375,0
36040,-35.5625,41.25,-2.875,0
36060,-33.375,31.4375,-7.375,0
36080,-23.875,24.125,-6.0625,0
36100,-18.75,23.5,-5,0
36120,-27.5625,22.3125,-4.25,0
36140,-28.5625,16.75,-2.75,0
36160,-17.25,10.5625,-1.6875,0
36180,-19.1875,13.875,-2.6875,0
36200,-32.4375,21.75,-5.4375,0
36220,-33.5,28.3125,-8.3125,0
36240,-25.125,25.0625,-9.5625,0
36260,-17.625,28.4375,-6.0625,0
36280,-20.1875,33.75,-2.0625,0
36300,-19.875,31.5625,-0.6875,0
36320,-12.625,28.6875,0.6875,0
36340,-8.625,26.1875,0.25,0
36360,-7.125,25.6875,-1.0625,0
36380,-4.625,19.125,-2,0
36400,7.3125,9.375,-1.25,0
36420,8.125,-0.625,-3.6875,0
36440,2.75,-9.3125,-2.5625,0
36460,1,-22.6875,-2.75,0
36480,3.25,-29.8125,-5,0
36500,0.0625,-37.5,-2.5,0
36520,-0.5,-38,-3.625,0
36540,-9.8125,-35.25,-0.8125,0
36560,-10.5625,-33.9375,1.375,0
36580,-3.9375,-32.9375,0.3125,0
36600,-6,-27,1.75,0
36620,-7,-20.5,3.0625,0
36640,-4.0625,-12.9375,5.75,0
36660,-4.625,-11.875,7.0625,0
36680,-7.0625,-7.5,7.8125,0
36700,-8.625,-4.75,5.0625,0
36720,-7.6875,-5.375,2.25,0
36740,-10,-5.5625,2.6875,0
36760,-2.75,-4.3125,0.875,0
36780,3.8125,-7.25,0.8125,0
36800,-0.5625,-4.4375,1.4375,0
36820,-5.875,-4.625,2.5625,0
36840,-9.875,-2.4375,2.75,0
36860,-6.9375,2.3125,1.875,0
36880,-5.3125,4.75,0.375,0
36900,-10.1875,7.25,-0.625,0
36920,-12.3125,9.8125,-0.875,0
36940,-10.8125,14,-1.8125,0
36960,-5.875,14.375,1.1875,0
36980,2.875,15.125,0.625,0
37000,6.4375,14.4375,1,0
37020,5.75,17.0625,3.875,0
37040,4.375,15.3125,9.3125,0
37060,3.625,19.875,11.25,0
37080,5.4375,25,13.1875,0
37100,11.5625,25,14.6875,0
37120,16.1875,24.5625,17.25,0
37140,12.375,26.5,18.125,0
37160,6.9375,27.8125,18.25,0
37180,7.625,24.625,18.4375,0
37200,13.125,21.6875,16.1875,0
37220,13.75,21.5,18.4375,0
37240,10.625,19.875,21.4375,0
37260,14.6875,17.625,26.625,0
37280,17.25,20.8125,30.1875,0
37300,14.125,24.1875,33.0625,0
37320,8.875,22.8125,36.8125,0
37340,5.8125,25.6875,45.625,0
37360,5.6875,30.8125,51.75,0
37380,0.4375,35.875,48.875,0
37400,5.8125,36.3125,44.8125,0
37420,14.3125,31.3125,47.75,0
37430,13.625,33.5,43.1875,0
37450,13.75,35.9375,37.625,0
37470,24.5,36.1875,39.0625,0
37480,26.375,36.5625,41.375,0
37500,16.6875,42.25,37.625,0
37520,16.5,47.25,36.8125,0
37540,20.1875,45.0625,35.1875,0
37560,24.8125,41.75,38.0625,0
37580,16.5625,40.3125,34.5,0
37600,14.5625,38.875,28.9375,0
37620,16.4375,31.5,27.75,0
37640,16.5625,25.8125,26.8125,0
37660,16.4375,21.1875,22.6875,0
37680,22.875,18,19.625,0
37700,26.4375,13.5625,16.4375,0
37720,27.0625,9.125,15.5625,0
37740,24.0625,6.3125,15.6875,0
37760,23.5,6.0625,14.8125,0
37780,23.125,2.8125,13.8125,0
37800,21.5,0.25,15.3125,0
37820,12.5625,-0.0625,15.1875,0
37840,6.5625,2.375,15.75,0
37860,0.625,-1.75,14.75,0
37880,3.375,-4.75,8.3125,0
37900,0.3125,-7.6875,6.5625,0
37920,5.0625,-7.125,6.6875,0
37940,-0.9375,-5.0625,2,0
37960,2.25,-4.9375,-5.3125,0
37980,9.75,-5.625,-3.3125,0
38000,12.875,-1.9375,0.6875,0
38020,8.8125,2.9375,-6.4375,0
38040,1.625,3.5,-6.125,0
38060,6.5625,-2.8125,3.75,0
38080,16.8125,-2.6875,6.75,0
38100,9.75,1.5,1.375,0
38120,5.6875,0.5,0.4375,0
38140,-0.875,-3.6875,4.1875,0
38160,3.625,-3.25,4.5625,0
38180,4,-5,1.1875,0
38200,3.3125,-6.5625,-2.1875,0
38220,0.1875,-7.375,-2,0
38240,0.6875,-6.4375,-3.6875,0
38260,-4.5625,-1.75,-3.0625,0
38280,-9.0625,0.5,-5.5,0
38300,-4.3125,0.875,-7.5,1000
38320,0.125,-0.4375,-5.5625,0
38340,-4.875,1.625,-5.1875,0
38360,-9.125,2,-11.125,0
38380,-9.625,-5.875,-8.375,0
38400,-7.4375,-4.5,-8.8125,0
38420,-6.9375,-1.5625,-11.375,0
38440,-8.5625,-6.6875,-7.1875,0
38460,-3,-11.375,0.625,0
38480,-8.625,-8.125,-0.6875,0
38500,-11.75,-6.75,-6.25,0
38520,-18.3125,-15.3125,-4.4375,0
38540,-15,-18.9375,4.8125,0
38560,-12.75,-16.5625,9.375,0
38580,-15.6875,-11.625,3.8125,0
38600,-20.1875,-7.875,-1.375,0
38620,-20.125,-6.25,1.3125,0
38640,-19.6875,-8.75,3.75,0
38660,-6.75,-6.25,2,0
38680,-6.4375,-4.875,1.25,0
38700,-11,-7.375,-0.4375,0
38720,-21.625,-4.4375,0.25,0
38740,-23.8125,-2.625,5.5625,0
38760,-24.3125,-1.8125,5.875,0
38780,-20.625,-1.5625,1.9375,0
38800,-20.25,1.375,-2.5625,0
38820,-14.625,2.3125,-1,0
38840,-15.875,3.6875,-1.875,0
38860,-17.3125,3.875,-5.1875,0
38880,-14.5625,6.5,-0.8125,0
38900,-12.875,6.625,2.0625,0
38920,-9.5,7,-0.3125,0
38940,-8.25,6.5625,3.875,0
38960,-8.125,4.75,5.625,0
38980,-4,3.6875,1.5625,0
39000,-4,2.1875,2.0625,0
39020,-3.375,2.5625,-0.3125,0
39040,-1.875,2.4375,1.125,0
39060,-3,2.3125,0.0625,0
39080,-1.6875,2.125,-1.4375,0
39100,-0.25,3.5,0.25,0
39120,-0.5625,4.5,2.4375,0
39140,-3.375,4.875,5.875,0
39160,-4.0625,2.875,5.375,0
39180,1.5,1.1875,6.5,0
39200,2.875,0.5625,6,0
39220,0.75,-0.4375,5.0625,0
39240,-0.9375,-1.25,1.875,0
39260,-0.6875,-4.5625,1.875,0
39280,1.8125,-7.5,2.25,0
39300,3.375,-7.9375,1.5,0
39320,2.0625,-6.1875,2.6875,0
39340,-4.1875,-4.125,2.125,0
39360,-4.5625,-3.8125,3.875,0
39380,-1.9375,-2.125,4.5625,0
39400,-4.0625,0.3125,4.4375,0
39420,-1.3125,0.8125,2.5625,0
39440,-3.5625,-1.9375,2.6875,0
39460,3.9375,-3.75,0.1875,0
39480,6.75,-4.125,-1.5,0
39500,3.0625,-4.875,-0.3125,0
39520,-5,-3.9375,0.75,0
39540,-2.3125,-3.75,1.875,0
39560,-0.25,-3.8125,1.375,0
39580,0.9375,-0.5,-0.3125,0
39600,-2.75,1.0625,2.4375,0
39620,-2.625,0.375,2.3125,0
39640,-2.125,-1.4375,0.375,0
39660,0.5625,-1.5625,-1,0
39680,1.875,-2.1875,-2,0
39700,4.375,-2.3125,-1.3125,0
39720,-0.4375,-2.6875,-0.625,0
39740,-4.4375,-2.5,-0.5625,0
39760,-4.25,-3,-1,0
39780,0.5,-3.1875,1.0625,0
39800,3.9375,-2.9375,0,0
39820,1.4375,-2.9375,-0.0625,0
39840,-0.0625,-3.6875,0.25,0
39860,-3.0625,-5.3125,-0.625,0
39880,-0.5,-4.375,0.1875,0
39900,1.6875,-3.25,1.375,0
39920,0.75,-4.4375,1,0
39940,-0.375,-4.875,-0.1875,0
39960,2.25,-4.0625,-1.0625,0
39980,-0.875,-4.25,0.625,0
39990,-1.6875,-6.25,0.3125,0
40010,4.25,-6.75,0.25,0
40030,4.75,-6.5625,-0.1875,0
40050,0.625,-7.25,-0.8125,0
40070,-3.1875,-6.1875,-1.125,0
40080,-2.75,-5,0,0
40100,1.625,-5.1875,-0.5,0
40120,1.875,-5.6875,-0.25,0
40140,2,-4.9375,0.0625,0
40160,-1,-5.5625,1.5625,0
40180,0.9375,-7.5625,2.6875,0
40200,3.3125,-7.3125,1.8125,0
40220,0.6875,-7.875,1.3125,0
40240,-0.375,-7.8125,1.875,0
40260,2.125,-8.0625,2.375,0
40280,2.8125,-7.75,2.9375,0
40300,-0.25,-7.0625,-0.4375,0
40320,-1.6875,-6.5,-0.125,0
40340,-0.0625,-5.4375,1.9375,0
40360,1.8125,-5.1875,1.1875,0
40380,4.0625,-5.9375,2,0
40400,6,-5.1875,2.4375,0
40420,1.5625,-5.1875,3.4375,0
40440,-0.75,-4.1875,2.25,0
40460,-0.1875,-4.875,0.3125,0
40480,2.3125,-6.75,1.1875,0
40500,4.3125,-8.4375,-1.1875,0
40520,6.125,-7.1875,-0.6875,0
40540,2.1875,-5.9375,1.625,0
40560,-1.125,-7.25,2,0
40580,1.4375,-10.0625,1.25,0
40600,5.25,-11.6875,-0.0625,0
40620,6,-11.375,2.1875,0
40640,5.4375,-11.6875,-0.5,0
40660,6.0625,-12.5625,-4.625,0
40680,7.1875,-13.625,-4.6875,0
40700,4,-13.875,-3.25,0
40720,4.1875,-15.125,-2.125,0
40740,4.8125,-16.6875,-3.1875,0
40750,5.875,-15.875,-3.0625,0
40770,4.3125,-14.75,-1.625,0
40790,1.3125,-14,0.25,0
40810,1.125,-15,0.625,0
40830,2.3125,-15.5625,-0.75,0
40850,6.1875,-14.9375,-2.875,0
40870,3.375,-13.4375,-0.8125,0
40890,-0.5625,-14.5,0.75,0
40910,-1,-14.8125,-2.1875,0
40930,2.9375,-15.1875,-3.9375,0
40950,2.5625,-14.25,-3.9375,0
40970,2.375,-14,-3.3125,0
40990,1.125,-13.5,-3.3125,0
41010,1,-11.9375,-3.0625,0
41030,2.25,-11.4375,-4.125,0
41050,2.375,-12.4375,-2.8125,0
41070,3.8125,-10.9375,-2.1875,0
41090,3.625,-10.3125,-2.25,0
41110,2.6875,-10.25,-2.0625,0
41130,0.8125,-11.4375,-1,0
41150,3.25,-13.25,0.125,0
41170,4.9375,-14.0625,-2.5625,0
41190,5.5625,-13,-4.8125,0
41210,5.375,-12.5,-5,0
41230,4,-11.75,-6.125,0
41250,4.375,-11.4375,-6.5625,0
41270,4.1875,-11.375,-4.3125,0
41290,3.625,-11.5625,-4.125,0
41310,4.25,-12.5,-5.25,0
41330,5.4375,-11.3125,-4.0625,0
41350,3.5625,-10,-1.9375,0
41370,2.25,-9.6875,-4.4375,0
41390,2.3125,-11.8125,-3.5,0
41410,6.4375,-12.5,-3.875,0
41430,5.625,-11.8125,-4.9375,0
41450,4.1875,-10.625,-4.5625,0
41470,2.5,-12,-4.1875,0
41490,4.0625,-12.875,-4.3125,0
41510,5.8125,-14,-2.9375,0
41530,5,-12.625,-5.125,0
41550,4.4375,-12,-3.3125,0
41570,2.5625,-11.6875,-2.1875,0
41590,4.625,-11.9375,-4.5,0
41610,4.5625,-11.875,-5.5625,0
41630,2.75,-11.0625,-4.9375,0
41650,1.4375,-10.1875,-5.125,0
41670,2.3125,-10.5625,-6.25,0
41690,3.5,-11.6875,-7.5,0
41710,4.4375,-13.6875,-7.75,0
41730,6.1875,-13.3125,-6.8125,0
41750,3.4375,-12.5625,-5.25,0
41770,2.5625,-12.3125,-4.4375,0
41790,3.875,-13.125,-3.8125,0
41810,7.875,-13.0625,-2.875,0
41830,5.625,-12.25,-1.1875,0
41850,2.6875,-10.75,1.375,0
41870,2.8125,-7.375,-2.4375,0
41890,5.6875,-8,-2.75,0
41910,4.4375,-7.4375,-4.875,0
41930,2.5,-6.75,-5.1875,0
41950,4.375,-7.6875,-4.9375,0
41970,4,-8,-3.875,0
41990,2.5625,-6.9375,-4.625,0
42010,3.3125,-7.75,-4.375,0
42030,4.1875,-9.75,-3.125,0
42050,3.0625,-9.125,-2.75,0
42070,1.125,-7.4375,-2.0625,0
42090,1.6875,-7.5625,-2.875,0
42110,3,-8.5,-3,0
42130,2.125,-9.0625,-4.1875,0
42150,3.9375,-9.25,-5.3125,0
42170,4.6875,-8.4375,-5.3125,0
42190,2.75,-7.75,-5.125,0
42210,2.1875,-7.375,-5.25,0
42230,3.375,-9.375,-5.375,0
42250,6.25,-12.0625,-4.25,0
42270,6.1875,-10.25,-4.8125,0
42290,2.8125,-9.0625,-5.125,0
42310,2.625,-8.4375,-6.375,0
42330,3.875,-7.4375,-6.375,0
42350,3.8125,-8.25,-4.4375,0
42370,6.3125,-8.25,-5.375,0
42390,3.875,-7.1875,-5.8125,0
42410,3.3125,-5.875,-6.25,0
42430,3.6875,-6.4375,-5.4375,0
42450,6.875,-9.0625,-4.1875,0
42470,5.4375,-6.1875,-3.9375,0
42490,3.625,-2,-3.875,0
42510,3.3125,-1,-3.625,0
42530,4,-1.1875,-3.875,0
42550,4.5,-0.8125,-4.6875,0
42570,3.8125,-1.25,-3.3125,0
42590,4.25,0.0625,-4.3125,0
42610,2.875,0.4375,-5,0
42630,1.625,0.4375,-4.875,0
42650,2.9375,-1.4375,-4.1875,0
42670,3.375,-1.6875,-3.75,0
42690,1.5,-0.4375,-4.4375,0
42700,0.5,-0.6875,-3.8125,0
42720,1.75,-1.75,-3.9375,0
42740,2,-1.9375,-2.9375,0
42760,0.375,-0.5,-1.3125,0
42780,-0.5,-0.0625,-0.3125,0
42800,0.5,0.3125,0.5,0
42820,0.5625,0,1.4375,0
42840,-0.875,0.125,1.5625,0
42860,-0.0625,-0.375,1.375,0
42880,0.75,-0.5625,0.5625,0
42900,0.375,-0.4375,0.0625,0
42920,-0.8125,-0.4375,0.5625,0
42940,0.4375,-0.9375,0.9375,0
42960,1.4375,-0.8125,0.5,0
42980,0.75,-0.0625,0.375,0
43000,0.75,1.125,-0.1875,0
43020,0.75,2.5,0.0625,0
43040,-0.125,3.125,0.25,0
43060,-1.125,3.4375,-0.4375,0
43080,-1.5,4.5,-0.9375,0
43100,-0.8125,4.5625,-1.125,0
43120,2.1875,4.375,-2.4375,0
43140,7.625,4.625,-0.375,0
43160,8.5,0.8125,2.3125,0
43180,0.6875,0.625,0.9375,0
43200,-4.25,5.125,2.3125,0
43220,-6.5625,4.5625,8,0
43240,-2.5625,0.25,8.3125,0
43260,-1.5625,-1.1875,8.0625,0
43280,-7.1875,0.6875,7.875,0
43300,-9.25,3.0625,5.0625,0
43320,-11.5,6.4375,5.4375,0
43340,-18,4.875,9,0
43360,-20.25,1.5625,9,0
43380,-20.9375,1.5,11.75,0
43400,-25.5625,4.4375,16.875,0
43420,-28.0625,9.125,20.625,0
43440,-34.75,13,24.875,0
43460,-45.25,18.6875,22.75,0
43480,-34.6875,21.125,26,0
43500,-34.0625,17.25,31.75,0
43520,-37,13,25.25,0
43540,-34,10,24.8125,0
43560,-36.9375,12.375,24.1875,0
43580,-35.1875,10.375,19.375,0
43600,-28.125,7.8125,17.0625,0
43620,-25.75,8.875,15.625,0
43640,-21.875,9.4375,16.25,0
43660,-24.5,8.125,14.75,0
43680,-24.1875,6.625,13.1875,0
43700,-17.5625,4,15.4375,0
43720,-8.75,4,12.875,0
43740,-6.1875,5.125,8.875,0
43760,-11.875,3.4375,6.9375,0
43780,-13,-1.125,4.8125,0
43800,-2.1875,-3.875,5.25,0
43820,1.0625,-1,3.8125,0
43840,-5.6875,3.0625,3.1875,0
43860,-14.75,4.375,6.1875,0
43880,-14.25,2.6875,5.6875,0
43900,-8.25,0.5625,5.25,0
43920,-10.0625,0.6875,7.875,0
43940,-15.8125,-0.25,6.1875,0
43960,-15.0625,-1.0625,6.25,0
43980,-14.0625,-1.4375,8.3125,0
43990,-12.5625,-1.5625,3.0625,0
44010,-5,-1.0625,-0.75,0
44030,-2.6875,0.1875,-3.75,0
44050,0.25,0.5,-8.625,0
44070,10.25,-0.75,-14.4375,0
44090,20.5,-1.8125,-15.5625,0
44110,25.25,-5.3125,-20.6875,0
44130,30,-4.625,-26.25,0
44150,30.25,-2.5,-23.9375,0
44170,29.8125,-0.25,-21.375,0
44190,30.4375,-1.375,-22.875,0
44210,28.8125,-3.3125,-25.5,0
44230,43.0625,-8.1875,-28.875,0
44250,41.3125,-4.9375,-18.5625,0
44270,19,2.125,-13.5625,0
44290,5.0625,1.6875,-10.9375,0
44310,12.4375,-2.5,-4.9375,0
44330,18.4375,-5.625,-2.75,0
44350,15.75,-6.4375,-2.0625,0
44370,6.5625,-1.6875,-1.5,0
44390,-0.5625,0.9375,-3.6875,0
44410,0,-0.625,-5.5,0
44430,5.0625,-1.125,-5.625,0
44450,4.375,-1.3125,-3,0
44470,2.375,-0.1875,-2.75,0
44490,0.6875,-0.625,-1.625,0
44510,2.5625,-1,0.0625,0
44530,2.75,-0.6875,0.375,0
44550,0.625,-2.8125,-0.375,0
44570,1,-5.9375,-1.25,0
44590,6.0625,-5.5,-2.625,0
44610,2,-2.5,-1.9375,0
44630,-2.375,-1.5,-1.8125,0
44650,-0.6875,-0.875,-2.8125,0
44670,-2.125,-0.625,-2.5,0
44690,-4.9375,-0.5,-1.5625,0
44710,-6.25,0.0625,-3.5625,0
44730,-1.9375,-0.5625,-3.375,0
44750,-0.5,-1,-4.0625,0
44770,-4.625,-1.1875,-4.6875,0
44790,-3.5,-1.75,-4.6875,0
44810,0.4375,-2,-3.8125,0
44830,2.375,-2.5,-4.875,0
44850,-3,-2.1875,-2.625,0
44870,-2.625,-1.1875,-2.0625,0
44890,-0.4375,0.875,-1.6875,0
44910,-0.625,1.75,-1.8125,0
44930,0.375,0.75,-2.0625,0
44950,0.5625,2.1875,-2.5,0
44970,-0.625,4.625,-1.9375,0
44990,0.6875,6.375,-2.25,0
45010,0.75,6.8125,-3,0
45030,-0.375,8.4375,-3.0625,0
45050,-1.625,12.5625,-2.375,0
45070,-4.1875,16.1875,-1.4375,0
45090,-4.375,16.8125,1.5,0
45110,-1.3125,18.1875,0.375,0
45130,-2.5625,19,0.75,0
45150,-8.4375,19.6875,5.0625,0
45170,-6.8125,22.0625,13.5625,0
45190,-4.25,22.0625,20.0625,0
45210,-4.75,23.1875,22.375,0
45230,-6.9375,23.5625,22.6875,0
45250,-10.4375,23.1875,24.875,0
45270,-9.75,24.5625,28.875,0
45290,-10.6875,18.5,31.625,0
45310,-5.25,10.5,24.75,0
45330,-5.5,-0.1875,17.5625,0
45350,-0.5,-9.25,14,0
45370,2.375,-15.4375,12.25,0
45390,4.9375,-20.625,4.75,0
45410,6.5,-23.6875,1.3125,0
45430,11.6875,-26.25,-1.1875,0
45450,12.4375,-24,-6.125,0
45470,9.75,-18.1875,-8.25,0
45490,2.9375,-15.625,-8.1875,0
45510,3.5625,-16.3125,-6.0625,0
45530,6.125,-15.625,-7.375,0
45550,6.5,-11.4375,-9,0
45570,-0.875,-7.75,-6.125,0
45590,-8,-8.625,-1.5,0
45610,-6.25,-11.9375,-1.3125,0
45630,-0.4375,-11.875,-6,0
45650,-2.75,-8.9375,-9.375,0
45670,-8.1875,-7.4375,-7.75,0
45690,-10.5625,-9.375,-7.0625,0
45710,-6.25,-11.625,-10.1875,0
45730,-2.375,-11.5,-13.5,0
45750,-4.25,-9,-11.8125,0
45770,-4.25,-8.25,-12.375,0
45790,-3.3125,-7.6875,-14.1875,0
45810,-2.6875,-4.5625,-13.3125,0
45830,0.5,-3.5,-11.1875,0
45850,5.9375,-8.125,-11.125,0
45870,7.1875,-7.3125,-12.5625,0
45890,1.375,-1.3125,-9.875,0
45910,-3.875,-0.1875,-5.6875,0
45930,-0.5625,-0.9375,-5.6875,0
45950,3.9375,0.8125,-4.5,0
45970,1.1875,1.0625,0.1875,0
45990,-3.8125,1.25,-1.625,0
46010,-1.9375,0.125,-1.75,0
46030,-2.3125,4.0625,-1.25,0
46050,-5.25,8.4375,0.3125,0
46060,-7.125,7.4375,1.8125,0
46080,-3.1875,3.9375,0.5625,0
46100,0.3125,2.875,2,0
46120,-2.875,5.4375,4.5,0
46140,-6.25,7.25,6.5,0
46160,-3.25,10.0625,6.5625,0
46180,-2.625,11.3125,4.125,0
46200,-5.0625,11.6875,2.4375,0
46220,-6.375,12.375,0.625,0
46240,-5.5625,11.125,-0.75,0
46260,-4,9.75,-3.4375,0
46280,-4.9375,10.6875,-3.875,0
46300,-9.3125,13.125,-4.125,0
46320,-10.75,13.5625,-5.5,0
46340,-7.875,10.3125,-6.6875,0
46360,-8.75,9.8125,-7.3125,0
46380,-9.9375,9.0625,-8.0625,0
46400,-9.0625,4.5625,-8.8125,0
46420,-3.9375,-0.1875,-8.5,0
46440,-4.25,-1.75,-7.9375,0
46460,-4.0625,-1.125,-8.25,0
46480,-2.8125,-3.3125,-8.625,0
46500,2.5625,-7.1875,-11.75,0
46520,6.625,-6.5,-16,0
46540,1.625,-6.375,-11.5,0
46560,-1.5,-5.75,-10.8125,0
46580,1.5625,-6.1875,-14.6875,0
46600,3.9375,-2.625,-13.4375,0
46620,0.625,-1.4375,-10.3125,0
46640,1.0625,0.9375,-10.8125,0
46660,3.5,1.6875,-11.75,0
46680,5.8125,-1.5,-12.9375,0
46700,4.5,-0.625,-11.5,0
46720,2.5,0.6875,-11.6875,0
46740,1.125,0.75,-11.1875,0
46760,0.75,-1,-10.5625,0
46780,2.75,-3.5,-11.9375,0
46800,3.125,-3.4375,-9.5,0
46820,-0.875,-2.75,-10,0
46840,-3.25,-6.375,-12.4375,0
46860,-0.75,-7.5,-9.625,0
46880,1.375,-8.5,-9.875,0
46900,1.6875,-7.4375,-11.3125,0
46920,-3.5625,-6.375,-8.4375,0
46940,-2.9375,-5.5,-8.375,0
46960,-0.875,-4.3125,-8.5,0
46980,0.9375,-5.4375,-12.125,0
47000,-0.3125,-5.3125,-8.1875,0
47020,0.3125,-3.8125,-7.8125,0
47040,-0.4375,-2,-7.5,0
47060,-0.5,-2.0625,-8.9375,0
47080,1.6875,-2.9375,-10.3125,0
47100,5.1875,-1.625,-12.0625,0
47120,1.375,-0.875,-12.5,0
47140,-2.4375,0.3125,-12.75,0
47160,-3.375,-0.5,-11.9375,0
47180,-0.5625,-1.6875,-12.1875,0
47200,-1.4375,-1.875,-13.25,0
47220,-3,-1.125,-14.0625,0
47240,-2.3125,-2.6875,-22.25,0
47260,-5.5,0.3125,-14.0625,0
47280,-6.375,1.125,-13.9375,0
47300,-4.5625,1.75,-13.75,0
47320,-6.8125,4.8125,-14.875,0
47340,-4.6875,4.875,-23,0
47360,-6.9375,3.6875,-20.875,0
47380,-7.375,2,-17.0625,0
47400,-5.5625,4.75,-19.6875,0
47420,-2.6875,7.125,-27.625,0
47440,-7.1875,6.8125,-20,0
47460,-7.6875,5.6875,-16.8125,0
47480,-6.4375,7.3125,-16.5625,0
47500,-7.1875,9.1875,-16.9375,0
47520,-9.75,8.75,-14.4375,0
47540,-7.625,6.3125,-10.875,0
47560,-5,6.5,-12.375,0
47580,-6,8.625,-11.75,0
47600,-5.125,8.0625,-11.875,0
47620,-5.75,6.375,-10.9375,0
47640,-6.25,6.3125,-11,0
47660,-5.625,6.375,-12.25,0
47680,-3.375,6.375,-14.25,0
47700,-5.0625,7,-14.125,0
47720,-7.375,7.875,-14.3125,0
47740,-7.75,8.25,-13.1875,0
47760,-3.875,8.8125,-14.625,0
47780,-1.0625,9.3125,-14.5,0
47800,-8.4375,11.25,-12.5625,0
47820,-13.375,12.0625,-12.125,0
47840,-11.3125,11.5625,-11.5625,0
47860,-6.375,11.625,-12.6875,0
47880,-5.4375,12.5,-14.1875,0
47900,-9.375,14.0625,-13.9375,0
47920,-11.1875,14,-12.6875,0
47940,-6.625,13.9375,-14.3125,0
47960,-5.875,15.4375,-14.5625,0
47980,-6.9375,15.6875,-14.5,0
48000,-12.0625,15.875,-13.75,0
48020,-14.4375,17.3125,-12.6875,0
48030,-9.375,17.75,-12.6875,0
48050,-6.375,18.375,-12.75,0
48070,-2.125,18.4375,-12.6875,0
48090,2.75,15.125,-15.4375,0
48110,-7.6875,14.25,-11.625,0
48130,-15.75,15.875,-10.75,0
48150,-13.1875,16.25,-10.25,0
48170,-4.6875,13.875,-9.75,0
48190,-0.0625,11.125,-8.875,0
48210,1.5625,11.4375,-6.5625,0
48230,3.5625,11.9375,-7.875,0
48250,-1.9375,10.1875,-10.3125,0
48270,-10.5625,10.0625,-7.625,0
48290,-11.8125,11.375,-7.4375,0
48310,-9.25,12.125,-7.25,0
48330,-11.125,11.8125,-6.75,0
48350,-11.5625,13.875,-5.8125,0
48370,-7.4375,14.25,-5.25,0
48390,-2.75,15.4375,-4.375,0
48410,-1.4375,14.6875,-5.25,0
48430,1.875,13,-6.875,0
48450,-8.125,13,-6.75,0
48470,-10.75,12.75,-8.5625,0
48490,-6.6875,12.5,-8.6875,0
48510,-7.375,6.75,-6.1875,0
48530,-5.5625,6.5625,-3.4375,0
48550,-5.375,8,-4.9375,0
48570,2,7.375,-7.3125,0
48590,4.625,6.75,-7.1875,0
48610,-1.5625,7.4375,-4.4375,0
48630,-3.4375,5.25,-1.3125,0
48650,-4.9375,6.0625,-2.6875,0
48670,-2.125,8,-6.5625,0
48690,-1.4375,6.9375,-5.25,0
48710,-4.25,6.5625,-2.5,0
48730,-5.5,8.625,-0.4375,0
48750,-5.3125,8.0625,-0.9375,0
48770,-4.9375,7.3125,-0.875,0
48790,-2.625,6.5,-1.375,0
48810,-0.6875,7.375,-1.9375,0
48830,-2.3125,8.3125,-1.5,0
48850,-4.125,6.9375,-2.1875,0
48870,-3.4375,5.25,0.1875,0
48890,-1.5625,5.8125,-1.9375,0
48910,-1.375,6.9375,-4,0
48930,-1.375,6,-1.75,0
48950,-2.5,4.5625,0.375,0
48970,-2.875,7.4375,0,0
48990,-3.4375,10.3125,-2.5625,0
49010,-4.3125,10.625,-3.875,0
49030,-2.3125,9,-2,0
49050,-0.5,8.25,-0.25,0
49070,-0.5,8.5625,-4.75,0
49090,-1.8125,9.25,-5.25,0
49110,-2.4375,8.4375,-2.4375,0
49130,-3.0625,7.5625,-3.625,0
49150,-1.0625,6.1875,-3.6875,0
49170,-1.875,6.3125,-1.75,0
49190,-2.0625,5.25,-1,0
49210,-3.8125,4.75,-0.75,0
49230,-3.5625,4.25,-1.25,0
49250,-2.125,3.125,-1.4375,0
49270,-2.3125,3,-2.625,0
49290,-2.9375,2.9375,-1.9375,0
49310,-2.625,3.375,-1.3125,0
49330,-3.6875,2.1875,-1.6875,0
49350,-3,1.375,2.9375,0
49370,-4.5,1.0625,1.875,0
49390,-3.6875,0.75,1.6875,0
49410,-1.5625,-1.5625,1.1875,0
49430,2.75,-2.625,0.625,0
49450,0.8125,-1.875,-0.6875,0
49470,-1.3125,-0.4375,2.1875,0
49490,-5.8125,0.125,0.125,0
49510,-1.875,-1.5625,0.625,0
49530,-0.625,-2.875,0.5,0
49550,0.6875,-2.125,-0.4375,0
49570,-2.5,-0.25,-1.75,0
49590,-4.5625,1.125,-2.4375,0
49610,-5.3125,1.375,-3.375,0
49630,-2.1875,2.5,-3.125,0
49650,-1.4375,4.1875,-2.8125,0
49670,-4.5,6.8125,-3.125,0
49690,-5.9375,7.1875,-4.5,0
49710,-1.375,6.0625,-3.875,0
49730,0.625,6.875,-2.75,0
49750,0.8125,8.4375,-2.4375,0
49770,-1.3125,7.4375,-2,0
49790,-0.875,6.6875,-2.125,0
49810,0.375,5.4375,-2.875,0
49830,1.3125,4.8125,-0.3125,0
49850,-0.6875,4.6875,-0.1875,0
49870,-2.625,3.6875,-0.3125,0
49890,0,3.4375,-0.5,0
49910,1.8125,3.5,-2,0
49930,3,2.625,-1.5625,0
49950,-0.375,3,0,0
49970,-3.5625,5.25,2.125,0
49990,-3.8125,4.4375,2,0
50010,0.8125,4.1875,0.25,0
50030,2.375,5.8125,-0.4375,0
50050,-1,5.5,1.625,0
50070,-3.125,4.375,2.875,0
50090,-4.375,5.75,2.125,0
50110,-0.8125,6.25,2.1875,0
50130,-1.4375,6.125,2.5,0
50150,-1.1875,6.6875,2.1875,0
50170,-1.625,6.25,2.125,0
50190,-0.75,4.9375,2.625,0
50210,-1,5.5625,1.375,0
50230,-1.625,6.0625,1.4375,0
50250,-6.0625,5.8125,3.375,0
50270,-5.3125,6.1875,3.875,0
50290,-4.1875,6.5625,3,0
50310,-1,6.6875,2.6875,0
50330,1,7.1875,1.25,0
50350,-2.5,10.6875,0.5,0
50370,-2.8125,9.875,0.375,0
50390,-1.25,8.1875,1.75,0
50410,-0.6875,8.0625,-0.375,0
50430,0.25,8.3125,0.0625,0
50450,-1.1875,4.375,2.375,0
50470,-1.375,2.8125,2.375,0
50490,-3.875,2.5,2.75,0
50510,-3.875,0.25,2.625,0
50530,-3.5,0.4375,-1.375,0
50550,-0.25,0.3125,2.75,0
50570,-2.4375,2.5625,0.75,0
50590,-2.625,1.8125,-0.5,0
50610,-1.3125,1.875,-0.1875,0
50630,-0.375,0.3125,-0.75,0
50650,-0.9375,1.4375,0.8125,0
50670,-4.6875,2.375,2.8125,0
50690,-5.625,3.5625,4.5,0
50710,-4.375,4.125,4,0
50730,-2.1875,3.9375,3.5625,0
50750,-1.1875,4.8125,7,0
50770,-4,5.75,6.5,0
50790,-7.1875,6.4375,6.5625,0
50810,-4.75,4.5625,6.875,0
50830,-0.5625,3.625,6.625,0
50850,1.5,4.9375,6.625,0
50870,-5.1875,5.875,6.4375,0
50890,-6.75,3.875,5.8125,0
50910,-4.6875,1.25,6.1875,0
50930,-0.4375,0.875,2.6875,0
50950,1,3.3125,6.1875,0
50970,-6.875,3.8125,6.3125,0
50990,-7.375,2.0625,7.5625,0
51010,-4.25,1.125,5.5625,0
51030,-1.375,1.9375,2.6875,0
51050,-2.375,2.625,3.4375,0
51070,-7.3125,2.375,4,0
51090,-8.4375,1.3125,4.25,0
51110,-5.4375,2.1875,3.75,0
51130,-2.8125,3,2.9375,0
51150,-2.1875,4,-0.1875,0
51170,-3.25,2.1875,2.9375,0
51190,-3,1.9375,2.0625,0
51210,-2.4375,2.3125,2.3125,0
51230,-5.9375,5.625,4.375,0
51250,-7.9375,4.625,5.3125,0
51270,-6.375,1.25,5,0
51290,-1.4375,0.5625,4.3125,0
51310,-0.8125,1.8125,5.75,0
51330,-4.0625,1.875,5.6875,0
51350,-5.375,2.625,6.0625,0
51370,-5.3125,1.75,7.375,0
51380,-2,1.6875,6.5625,0
51400,1.9375,0.75,6.0625,0
51420,3.5625,1.25,5.5,0
51440,-0.1875,2.8125,5.75,0
51460,-4.8125,1.9375,8.0625,0
51480,-0.5,2.6875,9.3125,0
51500,1.875,2.9375,10.5,0
51520,0.375,2.25,8.5625,0
51540,-2.75,1.875,9.1875,0
51560,-2.8125,2.5,9.6875,0
51580,-1.1875,2.0625,9,0
51600,0.3125,2.1875,6,0
51620,-0.8125,2.75,8.375,0
51640,-3.0625,1.9375,9.6875,0
51660,-2,-0.75,8.625,0
51680,-0.5,-1.75,7.125,0
51700,-0.875,-1.3125,5.875,0
51720,-0.9375,-3.375,6.3125,0
51740,1.0625,-2.875,5.3125,0
51760,0.125,-2.625,6.0625,0
51780,-2.3125,-3.6875,7,0
51800,-0.1875,-2.4375,7.875,0
51820,-0.0625,-1.375,6.8125,0
51840,-0.8125,-0.3125,8.125,0
51860,-0.8125,-1.4375,9.4375,0
51880,0.8125,-2.4375,10.0625,0
51900,1,-2.5,11,0
51920,-0.8125,-1.6875,12.5,0
51940,-3.625,-2.25,12.4375,0
51960,-1.625,-2.3125,13.0625,0
51980,2.125,-3.5,12.1875,0
52000,4.9375,-3.0625,9.8125,0
52020,4.5625,-1.3125,9.125,0
52040,4.625,-1.1875,9.9375,0
52060,3.375,-3.3125,8.75,0
52080,7,-4.5,9,0
52100,6.1875,-2.5625,9.0625,0
52120,2.375,-4.4375,10.875,0
52140,-0.4375,-5.4375,12.5625,0
52160,0.625,-4.375,12.3125,0
52180,1.1875,-5.1875,11.5,0
52200,-1.125,-5.25,11.25,0
52220,-1.25,-4.125,10.125,0
52240,-0.875,-4.6875,10.3125,0
52260,1.5,-4.5625,10.4375,0
52280,1.6875,-5.5625,10.0625,0
52300,-0.6875,-6.75,10.1875,0
52320,-3.875,-7,11.0625,0
52340,-2.375,-7.5,11.75,0
52360,-0.25,-7.9375,11.0625,0
52380,1.3125,-8.1875,11.9375,0
52400,0.4375,-7.8125,10.875,0
52420,-2.125,-8.3125,11.8125,0
52440,-1.4375,-8.4375,12.5625,0
52460,-0.9375,-7.75,13.25,0
52480,-0.4375,-8.25,14.375,0
52500,-1.375,-8.3125,14.8125,0
52520,-1,-8.9375,13.75,0
52540,-0.5625,-9.25,12.9375,0
52560,-1.1875,-10.4375,12.1875,0
52580,1,-11.75,11.6875,0
52600,3.375,-12.5625,10.1875,0
52620,1.25,-13.875,11.4375,0
52640,-2.1875,-12.75,12.375,0
52660,-3.9375,-13.9375,12.3125,0
52680,-0.9375,-14.9375,12.0625,0
52700,1.125,-14.8125,11.375,0
52720,0.4375,-13.875,11.4375,0
52740,-1.25,-12.625,10.125,0
52760,-1.5,-13.875,10.3125,0
52780,0.6875,-14.25,10.75,0
52800,2.8125,-13.375,10.4375,0
52820,-0.8125,-12.4375,11.75,0
52840,-4.0625,-11.4375,11.9375,0
52860,-3.125,-13,12,0
52880,2.75,-12.875,11.875,0
52900,4.3125,-9.625,11.125,0
52920,0.0625,-7.875,11.125,0
52940,-3.3125,-9.6875,10.4375,0
52960,1.0625,-11.25,10.0625,0
52980,5.25,-9.0625,9.25,0
53000,1.75,-9.375,10.3125,0
53020,-3.625,-12.125,12.1875,0
53040,-4.4375,-11.875,10.875,0
53060,1.125,-11.3125,10.4375,0
53080,0.5625,-13.25,9.1875,0
53100,-0.1875,-13.8125,8,0
53120,-2.125,-12.75,8.1875,0
53140,-1.75,-11.9375,9.25,0
53160,-4.4375,-12.5,9.1875,0
53180,-3.9375,-13.25,10.375,0
53200,-3.125,-13.625,10.25,0
53220,-1,-12.6875,10.5,0
53240,-3.625,-9.875,10.0625,0
53260,-8.625,-10.5,10.75,0
53280,-4.1875,-10.375,11.6875,0
53300,0.25,-9.0625,10,0
53320,0.125,-9.375,9.25,0
53340,-4.125,-7.9375,8.3125,0
53350,-3.1875,-9,10.5625,0
53370,0.125,-11.625,9.4375,0
53390,3.875,-9,7.0625,0
53410,0.875,-9.9375,9.375,0
53430,-2.5,-12.1875,9.3125,0
53450,-0.125,-12.6875,8.8125,0
53470,6.5,-13.5625,8.1875,0
53490,7,-14.8125,6.0625,0
53510,2.5625,-14.0625,7,0
53530,-2.25,-13.0625,8.0625,0
53550,-1.5,-13.625,8.625,0
53570,4.375,-13.5,8.4375,0
53590,10.5625,-10.9375,6,0
53610,7.75,-9.375,7,0
53630,-0.75,-11.9375,7.6875,0
53650,-2,-14.0625,8.125,0
53670,6.75,-14.5625,6.3125,0
53690,14.0625,-13,4.5625,0
53710,10.6875,-11.8125,3.5,0
53730,4.5625,-12.875,1.4375,0
53750,10.125,-15.6875,1,0
53770,18.5625,-16.375,4.625,0
53790,12.625,-11.625,3.375,0
53810,0.3125,-8.4375,3.4375,0
53830,-0.8125,-10.75,7,0
53850,5.1875,-12.6875,6.75,0
53870,10,-11.625,2.5,0
53890,8.125,-11.375,1.5,0
53910,4.6875,-12.5625,1.75,0
53930,4.125,-13.25,-0.125,0
53950,11.3125,-14.625,-1.0625,0
53970,11.9375,-17.25,0,0
53990,4.5,-17.25,-0.25,0
54010,-3.625,-17.875,2.6875,0
54030,-3.6875,-20.6875,4.5625,0
54050,2.8125,-20.6875,2.1875,0
54070,2.1875,-20.125,2.6875,0
54090,-2.75,-20.0625,1.8125,0
54110,-7.75,-20.0625,1.125,0
54130,-0.75,-20.625,1.875,0
54150,2.1875,-19.8125,2.6875,0
54170,-2.125,-18.375,4.375,0
54190,-6.25,-19.0625,6.75,0
54210,-2.75,-19.75,6.75,0
54230,2.1875,-17.4375,5.125,0
54250,0.5,-16.625,6.5,0
54270,1.8125,-16.625,4,0
54290,1.8125,-17.375,2.625,0
54310,5.4375,-15.8125,2.5625,0
54330,8.375,-13.4375,2.25,0
54350,6.3125,-11.3125,4.1875,0
54370,1.8125,-10.0625,5.875,0
54390,1.125,-11.9375,5.5625,0
54410,9.4375,-12.125,3.625,0
54430,9.625,-9.625,2.375,0
54450,3.625,-10.1875,3.8125,0
54470,1.625,-12.0625,3.125,0
54490,7.8125,-13.5625,0.3125,0
54510,9.4375,-13.875,0.375,0
54530,5.25,-14.375,-0.8125,0
54550,0.9375,-16.3125,1.625,0
54570,2.5,-15.1875,2.75,0
54590,7.3125,-14.9375,2.3125,0
54610,6.6875,-15.375,0.0625,0
54630,4.1875,-14.9375,0.75,0
54650,2,-15.5,0.75,0
54670,5,-16.8125,-0.8125,0
54690,5.5,-16.5625,-2.0625,0
54710,5.625,-15.625,-0.875,0
54730,5.125,-15.75,-0.125,0
54750,4.9375,-18.125,-0.1875,0
54770,6.4375,-16.6875,-0.0625,0
54790,4,-15.5625,0.4375,0
54810,2.5625,-16.4375,-0.0625,0
54830,2.6875,-16.1875,-1.0625,0
54850,6.6875,-17.3125,-1.75,0
54870,7.125,-16.6875,-0.875,0
54890,3.375,-14.625,-3.25,0
54910,0.5,-14.9375,-1.625,0
54930,4.0625,-16.25,1.0625,0
54950,4.375,-15.75,-0.625,0
54970,2.3125,-13.5,-3.5625,0
54990,5.0625,-11.8125,-2,0
55010,2.3125,-11.375,-2.5625,0
55030,0.3125,-13.1875,-4.375,0
55050,3.9375,-13.4375,-2.5,0
55070,7.125,-13.75,-1.875,0
55090,4.0625,-12.25,-3,0
55110,1.3125,-12.8125,-2.3125,0
55130,2.4375,-14.75,-1.5625,0
55150,4.25,-14.625,-4.5,0
55170,5.375,-12.3125,-5.5625,0
55190,3.875,-12.8125,-6.6875,0
55210,1.625,-15,-7.125,0
55230,3.625,-15.9375,-9.875,0
55250,9.4375,-14.25,-9.9375,0
55270,5.625,-14.375,-8.1875,0
55290,0.4375,-14.75,-7.625,0
55310,0.5,-13.1875,-8.875,0
55330,4.25,-14.375,-9.8125,0
55350,4.4375,-16.875,-8.0625,0
55370,2,-16,-8.875,0
55390,0.875,-12.8125,-9.0625,0
55410,0.1875,-12.25,-8.8125,0
55430,-1,-13.0625,-7.875,0
55450,-1.25,-11.6875,-7.75,0
55470,0.8125,-11.5625,-7.3125,0
55490,-2.125,-10.5625,-8.25,0
55510,-6.875,-7.625,-8.25,0
55530,-8.6875,-4.3125,-4.6875,0
55550,-3.4375,-6.75,-7.4375,0
55570,2.5625,-8.875,-9.5625,0
55590,2.4375,-8.0625,-9.25,0
55610,-1.5,-5.75,-8.4375,0
55630,-6,-7.6875,-9.8125,0
55650,-1.625,-9.6875,-9.375,0
55670,2.75,-9.6875,-12.5,0
55690,3.75,-8.375,-12.5625,0
55710,-3.1875,-5.5,-11.8125,0
55730,-3.4375,-8.3125,-9.875,0
55750,0.4375,-9.375,-11.25,0
55770,-0.125,-7.3125,-11.25,0
55790,-4.875,-4.75,-10.1875,0
55810,-7.25,-7.25,-9.625,0
55830,-2.9375,-7.1875,-9.3125,0
55850,-1.875,-2.6875,-10.0625,0
55870,-9.25,-2.5625,-7.3125,0
55890,-8.8125,-4.375,-5.4375,0
55910,-5,-3.6875,-6.8125,0
55930,-2.75,-2.4375,-8.125,0
55950,-7,-4.75,-9.3125,0
55970,-7.625,-6.0625,-7.875,0
55990,-5.125,-4.1875,-9.6875,0
56010,-3.375,-3.8125,-12.3125,0
56030,-2.8125,-5.6875,-11.25,0
56050,-5.0625,-3.75,-13,0
56070,-7.375,-2.25,-13.0625,0
56090,-8.375,-4.125,-12.8125,0
56110,-6.75,-4.375,-14.75,0
56130,-5.75,-1.4375,-15,0
56150,-6.875,-1.625,-15.4375,0
56170,-10.25,-3.1875,-15.125,0
56190,-6.75,-6.25,-16,0
56210,-4.25,-4.6875,-16.4375,0
56230,-11.75,-0.5,-13.25,0
56250,-13.125,-1.125,-11.125,0
56270,-8.0625,-2.8125,-11.6875,0
56290,-3.9375,-1.5625,-13.5,0
56310,-6.0625,-0.8125,-13.6875,0
56330,-8.9375,-1,-12.875,0
56350,-8.1875,-1.0625,-12.75,0
56370,-5.5625,-2.125,-13,0
56390,-3.0625,-2,-13.75,0
56420,-3.5625,-1.125,-12.125,0
56440,-4.75,-1.5625,-11.5625,0
56460,-3.8125,-2.75,-11.5,0
56480,-3.4375,-2.1875,-10.75,0
56500,-3.875,-0.125,-10.875,0
56520,-3.625,0.5625,-8.625,0
56540,-5.1875,0.625,-8.125,0
56560,-4.375,-1.625,-9.25,0
56580,-1.5,-3.25,-10.1875,0
56600,-3.0625,-2.9375,-11.625,0
56620,-8,-1.5625,-11.625,0
56640,-8.5,-2.4375,-11.6875,0
56660,-1.8125,-3.3125,-13.4375,0
56680,-1.375,-3,-13.4375,0
56700,-5.6875,-2.0625,-12.3125,0
56710,-7,-1.5625,-11,0
56730,-8.625,-0.6875,-12.3125,0
56750,-10.875,-0.4375,-11.9375,0
56760,-10.5,1.0625,-13.0625,0
56780,-10.4375,3.1875,-13.1875,0
56800,-16.4375,4.4375,-13.75,0
56820,-11.25,1.125,-14.6875,0
56840,-12,4.125,-18.25,0
56860,-12.625,5.6875,-18.75,0
56880,-12,5.1875,-16.625,0
56900,-14.0625,4.75,-18.125,0
56920,-10.75,2.5625,-16.75,0
56940,-9.4375,1.875,-15.125,0
56960,-15.0625,6.5,-13.125,0
56980,-17.3125,5.5,-11.5,0
57000,-11,2.75,-10.0625,0
57020,-5.75,1.875,-11.6875,0
57040,-5.75,3.6875,-9.5625,0
57060,-10.6875,4.875,-7.1875,0
57080,-10.875,4.4375,-6.25,0
57100,-2.75,3.5,-7.6875,0
57120,-0.8125,3.1875,-8.375,0
57140,-4.8125,5.125,-7.625,0
57160,-8.9375,4.0625,-7.1875,0
57180,-6.25,3,-7.75,0
57200,-1.0625,3.8125,-9.375,0
57220,0.3125,4.75,-9.8125,0
57240,-5.5,6.375,-8.25,0
57260,-7.25,7,-6.625,0
57280,-5.375,7.125,-6.8125,0
57300,-1.25,5.1875,-8.875,0
57320,-0.875,4.8125,-9.25,0
57340,-4.6875,7.75,-7.375,0
57360,-9.5,8.875,-5.6875,0
57380,-5.6875,7,-8.375,0
57400,-2.125,7.4375,-9.8125,0
57420,-2.3125,8.9375,-8.125,0
57440,-9.5,10.4375,-8.6875,0
57460,-6.9375,9.6875,-10.9375,0
57480,-2.875,8.875,-11.5,0
57500,-2,8.5,-11.5625,0
57520,-2.8125,8.9375,-10.8125,0
57540,-6.375,9.3125,-9.375,0
57560,-8.8125,8.875,-10.125,0
57580,-4.9375,9.0625,-9.5625,0
57600,-2.1875,9.75,-10.0625,0
57620,-2.3125,9.0625,-9.75,0
57640,-3.1875,9.75,-8.125,0
57660,-4.6875,9.25,-6.8125,0
57680,-5.0625,7.625,-6.3125,0
57700,-5.3125,9.1875,-6.0625,0
57720,-4.4375,8,-3.875,0
57740,-2.75,6.875,-6.375,0
57760,-2.625,5.875,-8.1875,0
57780,-0.5,3.25,-8,0
57800,-0.125,3.9375,-8.875,0
57820,-0.625,5.75,-7.375,0
57840,-0.8125,5.6875,-5.75,0
57860,-2.0625,5.0625,-5.375,0
57880,2.1875,3.6875,-7.125,0
57900,2.5625,4.4375,-5.8125,0
57920,-0.3125,6.0625,-3,0
57940,-5.3125,5.5,-3.0625,0
57960,-1.75,3,-4.0625,0
57980,2.8125,3.0625,-3.8125,0
58000,1.375,3.75,-4.6875,0
58020,0.4375,5.5,-5.375,0
58040,-0.5625,6.25,-4,0
58060,-1.5625,5.75,-2.75,0
58080,-0.0625,5.75,-4.0625,0
58100,0.375,5.75,-5.3125,0
58120,1.75,5.5625,-5.1875,0
58140,0.875,6.125,-5.625,0
58160,1.5,6,-4.25,0
58180,-2.5,5.875,-3.875,0
58200,-1.5625,4.6875,-3.0625,0
58220,2.25,5,-4.8125,0
58240,3.9375,5.1875,-4.3125,0
58260,-0.25,4.875,-3.3125,0
58280,-2.4375,5.875,-2.5625,0
58300,-2.5,5.5,-2.5625,0
58320,-0.0625,4.6875,-3.3125,0
58340,-0.375,4.4375,-2.3125,0
58360,-1.1875,6.125,-2.625,0
58380,-1.3125,6.4375,-0.8125,0
58400,-4.625,7.75,0,0
58420,-3,6.25,0,0
58440,0.6875,5.75,-1.0625,0
58460,-0.0625,6.5,-0.125,0
58480,-3.3125,7.4375,1.25,0
58500,-3.1875,8.125,-0.5625,0
58520,-0.5,7.25,-1.4375,0
58540,3,7.75,-1.0625,0
58560,-1.4375,9.375,-0.4375,0
58580,-1.9375,9.3125,-0.1875,0
58600,-4.125,8.9375,-0.5,0
58620,-1.6875,9.625,-0.0625,0
58640,-2.75,11.8125,-0.375,0
58650,-0.125,11.8125,1.4375,0
58670,1.1875,11.4375,-0.4375,0
58690,1.625,10.5,-1.25,0
58710,-1.5625,11.6875,1.625,0
58730,-8.375,11.6875,2.3125,0
58750,-5.375,10.875,0.1875,0
58770,3.125,10,-1.375,0
58790,4.75,11.625,-0.5,0
58810,-3.6875,12.9375,1.625,0
58830,-6.125,11.625,1.125,0
58850,-2.5,9.3125,0.8125,0
58870,2.625,9.75,1.3125,0
58890,-0.8125,12.0625,1.9375,0
58910,-2.875,9.5625,3.625,0
58930,-1.75,9.375,3.125,0
58950,-1.125,10.4375,1.8125,0
58970,0,9.6875,3.0625,0
58990,-0.8125,10.3125,2.1875,0
59010,-4,9.8125,2.8125,0
59030,-2.5625,8.375,2.375,0
59050,0.0625,7.6875,3,0
59070,0.75,8.125,3.3125,0
59090,-3.6875,8.875,2.75,0
59110,-4.5,7.875,4.25,0
59130,-3.4375,7.5625,4.4375,0
59150,-3.5625,9.1875,3.5,0
59170,-4.375,11.125,2.8125,0
59190,-3.375,9.9375,4,0
59210,-1.4375,9.125,3.75,0
59230,-1.0625,8.8125,2.625,0
59250,-2.625,12.1875,2.0625,0
59270,-3.4375,7.25,4.375,0
59290,0.25,7.375,3.125,0
59310,-4.125,7.375,0.4375,0
59330,-2.75,6.1875,3.375,0
59350,-5.6875,6,2.3125,0
59370,-5.5625,5.5,3,0
59390,-3.25,5.3125,2.5,0
59410,2.5625,5.75,1.875,0
59430,-0.4375,5.9375,0.5,0
59450,-5.25,6.1875,2.25,0
59470,-4.25,5.875,2.75,0
59490,-3.5625,3.5,1.875,0
59510,1.1875,3.625,3.375,0
59530,-0.0625,3.6875,1.75,0
59550,-2.4375,3.4375,4.6875,0
59570,-2.8125,2.75,4.8125,0
59590,2.3125,3.8125,3.6875,0
59610,4.8125,3.5,3.125,0
59630,-0.25,4.9375,3.875,0
59650,-1.9375,6.0625,5.9375,0
59670,-0.4375,4.5625,3.4375,0
59690,6,4.25,5.375,0
59710,0.625,5.0625,5.75,0
59730,-6.125,5.1875,8.0625,0
59750,-7.6875,4.3125,6.875,0
59770,0.25,5.875,5.3125,0
59790,3.8125,4.1875,5.5625,0
59810,1.3125,4.125,4.625,0
59830,-3.75,4.375,5.5625,0
59850,-4.6875,4.8125,6.1875,0
59870,-2.5625,5.25,5.375,0
59890,-0.1875,4.375,5.625,0
59910,-3.0625,2.5,1,0
59930,-0.8125,4.125,9.125,0
59950,-3.3125,4,6.4375,0
59970,-2.125,3.625,6.8125,0
59990,1.375,4.5,7.0625,0
60010,0.0625,4.1875,8,0
60030,-1.9375,5.375,9.375,0
60050,-3.6875,3.5625,11.1875,0
60070,-1.9375,3.125,10.375,0
60090,1,2.6875,8.5625,0
60110,1.5,3.0625,7.25,0
60130,0.875,4.5,7.125,0
60150,-1,2.25,5.875,0
60170,0.875,3.1875,6.5,0
60190,2.625,1.4375,5.3125,0
60210,2.125,1.6875,7.3125,0
60230,1.4375,2.375,7.75,0
60250,-0.875,1.0625,8.3125,0
60270,-3.125,0.375,8.8125,0
60290,0.5,0.875,9.6875,0
60310,-0.5,1,6.8125,0
60330,2.1875,0.0625,7.875,0
60350,2.3125,0.0625,7,0
60370,0.875,0.9375,7.4375,0
60390,-2.0625,-1.25,6.6875,0
60410,-2.0625,-1.0625,8.0625,0
60430,-0.25,0.125,5.625,0
60450,1.25,-2.75,7.5,0
60470,-0.125,-1.6875,7.4375,0
60490,-3.5,-1.6875,8.3125,0
60510,-1.0625,-2.3125,7.25,0
60530,2.1875,-3.4375,6.4375,0
60550,1.1875,-2.4375,7.5,0
60570,-2.5,-3.3125,7.75,0
60590,-0.5625,-5.375,8.625,0
60610,1.125,-4,7.375,0
60630,2.75,-4.8125,7.625,0
60650,3.9375,-5.0625,7.5,0
60670,5.5,-3.8125,8.75,0
60690,1.8125,-2.8125,9.1875,0
60710,1.3125,-2.4375,9.9375,0
60730,3.375,-1.875,8.75,0
60750,4.875,-2.5,10.625,0
60770,4.625,-4.6875,10.25,0
60790,1.75,-4.375,10.625,0
60810,-0.8125,-2.5625,11.3125,0
60830,-0.125,-1.5625,10.6875,0
60850,4.75,-0.9375,11.0625,0
60870,2.9375,-1.125,11.375,0
60890,1.375,-2.8125,10.75,0
60910,0.0625,-3.4375,12.125,0
60930,-1.1875,-4.25,13.0625,0
60950,1.9375,-3.3125,12.1875,0
60970,3.125,-4.125,15,0
60990,2.3125,-3.75,13.875,0
61010,1.4375,-5.125,14.75,0
61030,-1.875,-5.8125,16.125,0
61050,-1.5,-5.9375,16.75,0
61070,1.375,-7.0625,16.0625,0
61090,2.4375,-9,15.5625,0
61110,1.5,-8.125,15.4375,0
61130,-0.625,-7.8125,14.3125,0
61150,2,-8.3125,13.1875,0
61170,4.625,-9.625,14.375,0
61190,2.5625,-9.5,15.5,0
61210,-1.3125,-10.6875,17.625,0
61230,-3.5,-9.6875,18.8125,0
61250,-2,-10,19.625,0
61270,4.125,-12.125,16.9375,0
61290,6.3125,-11.9375,15.625,0
61310,0.75,-10.9375,16.6875,0
61330,-3.75,-11.8125,18.0625,0
61350,2.6875,-12.3125,17.75,0
61370,9.625,-13.3125,18.125,0
61390,4.375,-11.5625,20.5625,0
61410,-4.5,-12.125,23.5,0
61430,-2.9375,-12.6875,23,0
61450,6.6875,-15.9375,19.6875,0
61470,9.9375,-18.375,17.5625,0
61490,1.125,-14.6875,17.5625,0
61510,-4.5625,-16,21.6875,0
61530,-0.4375,-17.5,21,0
61550,9.0625,-18.5625,20,0
61570,10.4375,-18.75,18.875,0
61590,2.3125,-19.4375,20.25,0
61610,-3.4375,-21.0625,21.25,0
61630,0.375,-22,19.3125,0
61650,7.8125,-22.5625,17.9375,0
61670,4.1875,-21.625,16.8125,0
61690,-3.4375,-21.25,16.9375,0
61710,-2.875,-21.3125,15.625,0
61730,5,-23.875,13.8125,0
61750,7.875,-25.4375,11.25,0
61770,6.625,-26.0625,13.5,0
61790,1,-23.75,13.9375,0
61810,2.875,-24.5,12.5,0
61830,7.3125,-26.125,13.375,0
61850,6.1875,-24,15.375,0
61870,5.75,-23.9375,12.375,0
61890,6.625,-25.9375,8.6875,0
61910,9.625,-22.875,5.5625,0
61930,8.0625,-20.9375,5.3125,0
61950,8.75,-21.0625,4.4375,0
61970,13.1875,-22.875,2.875,0
61990,15.3125,-24.0625,3.5,0
62000,8.25,-23.75,5.625,0
62020,-0.75,-23.9375,7.3125,0
62040,2.5625,-24.375,5.4375,0
62060,11.625,-26.25,0.0625,0
62080,11.875,-23.625,-2.8125,0
62100,3.625,-22.8125,-1.1875,0
62120,5.625,-21.875,-1,0
62140,18.0625,-27.125,-8.25,0
62160,22,-29.6875,-7,0
62180,12.4375,-25.1875,-3.0625,0
62200,0.9375,-26.4375,2.5,0
62220,2.8125,-28.75,-1.0625,0
62240,13.9375,-34.75,-4.6875,0
62260,10.25,-31.4375,-5.4375,0
62280,-4.9375,-25.6875,-9.0625,0
62300,-5.75,-30.875,-7.4375,0
62320,2.875,-39.5625,-12.125,0
62340,8.3125,-37.375,-17.25,0
62360,7.1875,-32.75,-19.5,0
62380,-0.125,-33.1875,-18.625,0
62400,-9.9375,-34.5625,-17.1875,0
62420,-8,-38.0625,-15,0
62440,-1.1875,-33.625,-19.3125,0
62460,-0.8125,-31.9375,-23.4375,0
62480,-5.9375,-29.0625,-21.5,0
62500,-5.0625,-31.0625,-21.875,0
62520,-4.4375,-31.3125,-23.6875,0
62540,-9.9375,-27.9375,-25.625,0
62560,-9.875,-27.6875,-32.9375,0
62580,-0.8125,-26.375,-34.1875,0
62600,-7.5,-22.375,-38.5,0
62620,-15.4375,-24.75,-38.4375,0
62640,-16.875,-22.375,-39.0625,0
62660,-20.5,-13.75,-44.875,0
62680,-16.0625,-10.5,-47.5625,0
62700,-12.1875,-7.8125,-49.1875,0
62720,-16.3125,-5.8125,-49.4375,0
62740,-25,-2.8125,-41.5625,0
62760,-23.9375,1.3125,-44.1875,0
62780,-17.4375,5.5625,-47.4375,0
62800,-21.0625,10.1875,-45.4375,0
62820,-27.75,13.5,-39,0
62840,-25.5625,16.5625,-38.875,0
62860,-20.9375,18.75,-40.625,0
62880,-14.75,17.1875,-38.0625,0
62900,-10.75,22.8125,-33.9375,0
62920,-15.625,27,-28.5625,0
62940,-21.0625,28,-27.25,0
62960,-14.3125,24.375,-26.4375,0
62980,-5.9375,26.0625,-17.6875,0
63000,-12.875,27.25,-17.875,0
63020,-14.25,25.6875,-18.875,0
63040,-9.75,22.6875,-14.3125,0
63060,-8.625,20.125,-15.5625,0
63080,-10.6875,22.8125,-21.25,0
63100,-7.3125,23.5,-18.5625,0
63120,-6.5,20.375,-16.25,0
63140,-3.125,22.4375,-17.75,0
63160,-5.9375,23.5625,-18.375,0
63180,-4.375,22.1875,-15.875,0
63200,-8.875,22.5,-15.0625,0
63220,-12.3125,24.125,-18.625,0
63240,-8.625,23.25,-15,0
63260,-9.1875,21.875,-14.1875,0
63280,-12,25.3125,-14.25,0
63300,-11.625,27.4375,-13.125,0
63320,-2.625,24.1875,-11.625,0
63340,-7.0625,22.6875,-13.125,0
63360,-14.1875,22.4375,-9.0625,0
63380,-14.875,23.375,-6.1875,0
63400,-5.3125,23.75,-4.3125,0
63420,-5.4375,23.125,-1.375,0
63440,-14.75,27.5625,4.4375,0
63460,-20.25,28,11.625,0
63480,-18.375,31.3125,9.625,0
63500,-7.375,30.5,11.875,0
63520,-6.3125,32.6875,10.0625,0
63540,-8.25,30.0625,8.125,0
63560,-13.125,30.0625,14.0625,0
63580,-12.25,27.9375,13.5625,0
63600,-6.125,26.625,14.625,0
63620,-6.1875,27.75,11.75,0
63640,-8.375,21.5625,18.125,0
63660,-8.9375,20.6875,24.375,0
63680,-17,17.1875,24.5,0
63700,-14.625,12.75,27.6875,0
63720,-13.75,12.625,26.3125,0
63740,-11,12.0625,27.8125,0
63760,-14.375,12.6875,24.9375,0
63780,-22.1875,17.625,18.9375,0
63800,-16.5625,18.125,28.25,0
63820,-8.4375,11.25,20.1875,0
63840,-5.25,7.5625,21.125,0
63860,-8.0625,5.1875,22.5,0
63880,-3.5625,1.4375,22.375,0
63900,2.6875,-3,21.8125,0
63920,-5.0625,-2.1875,28.0625,0
63940,-8.5,0.4375,32.6875,0
63960,1.75,0.375,27,0
63980,5.1875,0.9375,28,0
63990,-7.25,5.1875,29.9375,0
64010,-3.5,-6,31.0625,0
64030,7,-12.375,27.3125,0
64050,1.25,-11.8125,26.9375,0
64070,-6.125,-17.3125,32.125,0
64090,1.5625,-16,29.9375,0
64110,6.8125,-12.5625,25.5625,0
64130,0.8125,-14.3125,31.625,0
64150,2.6875,-16.0625,28.8125,0
64170,7.8125,-18.25,25.25,0
64190,-2.25,-16.75,27.0625,0
64210,-5.3125,-19.9375,29.125,0
64230,3.5625,-30.25,29.8125,0
64250,4.5,-33.75,31.6875,0
64270,-4.625,-30.75,32.8125,0
64290,-3.4375,-29.3125,35.1875,0
64310,2.9375,-28.625,31.875,0
64330,10.5,-28.75,27.25,0
64350,4.125,-26.3125,26.25,0
64370,1.5,-23.625,26.0625,0
64390,1.6875,-23.25,22.9375,0
64410,4.5625,-28.6875,27.5,0
64430,6.5,-29.5625,24,0
64450,12.625,-29.9375,19.0625,0
64470,12.4375,-27.5625,18.625,0
64490,2.25,-25.5625,21.625,0
64510,3.4375,-22.75,20.125,0
64530,9.75,-23.375,17.6875,0
64550,6,-20.5,14.4375,0
64570,-3.4375,-18.0625,11.4375,0
64590,-1.625,-18.5,10.3125,0
64610,5.75,-18.6875,2.6875,0
64630,10.1875,-19.4375,0.5625,0
64650,3.625,-21.9375,4.875,0
64670,0.9375,-23.625,3.5625,0
64690,7.25,-25.0625,3,0
64710,5.75,-26.4375,5.4375,0
64730,-4.625,-22.1875,9,0
64750,-3.375,-24.125,6.9375,0
64770,7.6875,-25,-0.25,0
64790,12.1875,-25,-2.875,0
64810,2.0625,-19.6875,-4,0
64830,0.25,-21.625,-2.125,0
64850,10.5625,-23.75,-5.4375,0
64870,16.75,-26.375,-2.8125,0
64890,4.4375,-24.8125,0.8125,0
64910,-2.9375,-25.625,4.625,0
64930,4.625,-25.4375,5.75,0
64950,6,-21.125,4.875,0
64970,4.5,-19.25,1.5,0
64990,4.125,-18.75,0.125,0
65010,1.625,-19.25,-2.3125,0
65030,-2.4375,-15.1875,-5.4375,0
65050,1.75,-19.4375,-3.1875,0
65070,5.6875,-27.5,-6.6875,0
65090,9,-30.4375,-7.4375,0
65110,4.375,-32.5,-3.6875,0
65130,0.3125,-31.0625,-5,0
65150,2.5625,-30.75,-1.8125,0
65170,3.625,-29.125,-2.625,0
65190,1.0625,-25.3125,-6.5,0
65210,3.1875,-20.9375,-10.8125,0
65230,3.375,-20.8125,-11.375,0
65250,2.125,-21.1875,-14.4375,0
65270,2.125,-24.4375,-12.1875,0
65290,3.875,-23.9375,-11.375,0
65310,5.625,-22.1875,-12.3125,0
65330,4.375,-20.3125,-11,0
65350,0.375,-15.125,-9.6875,0
65370,0.4375,-15.125,-6.4375,0
65390,-0.75,-12.1875,-9.8125,0
65410,1.0625,-6.3125,-11.375,0
65430,3.4375,-7.5,-12.875,0
65450,-4.375,-4,-15.5625,0
65470,-6.75,-8.3125,-13.5625,0
65490,3.8125,-12.125,-16.4375,0
65510,5.75,-13,-18.125,0
65530,4.25,-14.5625,-15.4375,0
65550,-1.0625,-16,-9.25,0
65570,0.125,-17.75,-7.625,0
65590,7.1875,-14.5,-7.3125,0
65610,3.4375,-12.75,-5.375,0
65630,0.5,-7.625,-6.6875,0
65650,2,-4.5,-7.8125,0
65670,-3.125,0,-10.625,0
65690,-0.4375,1,-11.9375,1001
65710,6.875,-2.75,-12.5,0
65730,11.9375,-5.0625,-11.6875,0
65750,4.9375,-9.4375,-8.625,0
65770,5.8125,-12.25,-3.1875,0
65790,4.4375,-10.8125,2.3125,0
65810,-0.25,-7.375,4.9375,0
65830,-1.3125,-5.6875,8.25,0
65850,-3.5625,-4.6875,7.1875,0
65870,-2,1.75,3,0
65890,-5.4375,3.25,-2.5,0
65910,-1.6875,3.3125,-4.375,0
65930,5.875,0.5,-0.9375,0
65950,0.5625,-0.875,0.875,0
65970,-5.75,0.25,5.125,0
65990,-5.375,6.6875,9.875,0
66010,-9.25,12.4375,11.3125,0
66030,-18.5625,25.75,13.6875,0
66050,-24.3125,32.125,14.375,0
66070,-26,44.5,10.9375,0
66090,-27.1875,59.625,12.0625,0
66110,-26.3125,68.4375,19.625,0
66130,-26.0625,73.1875,26.5,0
66150,-28.8125,80.5,30.875,0
66170,-32.1875,86.75,29.6875,0
66190,-22.625,88.1875,20.625,0
66210,-9.125,90.625,14.125,0
66230,-1.5625,88.4375,12.875,0
66250,-8.9375,80.25,8.625,0
66270,-12.125,72.25,6.375,0
66290,-18.75,70.25,6.75,0
66310,-19.125,66.625,11.4375,0
66330,-15.8125,59.375,13.125,0
66350,-8.125,55.3125,7.1875,0
66370,-8.4375,45.375,2.9375,0
66390,-16.75,33.625,-0.6875,0
66410,-21.625,25.75,-7.625,0
66430,-13.5625,17.0625,-11.3125,0
66450,-7.5625,11.25,-13,0
66470,-0.375,-4,-12.25,0
66490,-4.9375,-13.4375,-10.6875,0
66510,-19.5,-16.75,-5.5625,0
66530,-28.75,-15.125,3.5,0
66550,-29.6875,-9.8125,9.4375,0
66570,-20.3125,2.75,18.1875,0
66590,-15.4375,22.4375,24.8125,0
66610,-10.0625,50.125,35.0625,0
66630,-24.4375,67.375,46.375,0
66650,-9.1875,74.9375,46.875,0
66670,12.6875,84.6875,44.5625,0
66690,37.875,88.3125,50.9375,0
66710,54.0625,88.3125,46.6875,0
66730,55.5,74.75,53.625,0
66750,56,68.5,56.125,0
66770,51.625,67,58.8125,0
66790,31.625,58.375,47.3125,0
66810,31.6875,50.0625,35.5625,0
66830,36.4375,43.5625,36.3125,0
66850,30.25,37.125,30.3125,0
66870,4.25,31.0625,18.25,0
66890,-1.1875,30.625,17.8125,0
66910,5.125,36.1875,18.5625,0
66930,12.25,43.8125,19.5,0
66950,15.25,46.9375,20.0625,0
66970,11.125,51.375,26.875,0
66990,8.625,50.5625,33.4375,0
67010,7.875,48.5625,25.875,0
67030,19.9375,40.9375,19.625,0
67050,30,40.0625,17.125,0
67070,31.0625,36.375,17.6875,0
67090,35.5625,28.25,21.25,0
67110,32,28.875,19.5625,0
67130,19,24.6875,18.4375,0
67150,12.875,16.875,13.4375,0
67170,15.375,13.0625,8.1875,0
67190,11.3125,16.6875,11.25,0
67210,-7.5,19.0625,10.3125,0
67230,-2.8125,17.375,9.875,0
67250,2.1875,10.1875,13.125,0
67270,3.75,0.0625,12.75,0
67290,-0.9375,-8.6875,8.5625,0
67310,-2.3125,-10.0625,2.0625,0
67330,-8.375,-17.6875,3.4375,0
67340,-9.875,-26.625,1.5,0
67360,-9.875,-33.625,-0.1875,0
67380,-16,-34,2.9375,0
67400,-23.4375,-33.5625,6.375,0
67420,-24.5,-27.25,8.75,0
67440,-21.375,-16.375,14.1875,0
67460,-32.5625,-0.0625,16.375,0
67480,-45.4375,14.1875,19.75,0
67500,-48.875,17.625,22.75,0
67520,-44.375,17.375,23.75,0
67540,-28.3125,20.125,22.6875,0
67560,-21.75,27.8125,23.8125,0
67580,-31.5,28.0625,27,0
67600,-33.1875,20.9375,24.1875,0
67620,-27.5625,15.9375,23.75,0
67640,-20.875,20.25,26.375,0
67660,-12.5,24.875,19.8125,0
67680,-13.25,23,14.0625,0
67700,-18.375,21.375,10.9375,0
67720,-21.75,17.0625,10.8125,0
67740,-7.625,7.125,5.4375,0
67760,-3.25,4.3125,1,0
67780,3.125,2.125,4.625,0
67800,-1.625,4.25,7.0625,0
67820,-11.8125,4.1875,6.875,0
67840,-17.6875,4.8125,6.125,0
67860,-19.1875,9.5625,10,0
67880,-19.625,14.375,10.3125,0
67900,-24.3125,19.6875,13.75,0
67920,-33.5,23.5,15.1875,0
67940,-42.6875,31.9375,11.125,0
67960,-42.375,37.875,6.5,0
67980,-46.4375,43.25,9.25,0
68000,-52.6875,51.5625,9.375,0
68020,-50.3125,61.5,3.6875,0
68040,-48.9375,71.75,4.9375,0
68060,-43.375,80.0625,4.9375,0
68080,-37.25,90.0625,1.1875,0
68100,-26.875,94.0625,1,0
68120,-20.0625,94.9375,1.75,0
68140,-21.625,94.5625,-3.0625,0
68160,-19.0625,86.5,-13.8125,0
68180,-17.5625,71,-19.75,0
68200,-6.5625,51.8125,-24.5625,0
68220,0.4375,29.375,-31,0
68240,13.8125,5.375,-41.5625,0
68260,23.5,-18.25,-49.6875,0
68280,25.5625,-36,-55.5625,0
68300,22,-51.25,-56.5,0
68320,22.625,-66.8125,-52.6875,0
68340,35.0625,-78.1875,-52.8125,0
68360,50.875,-84.625,-48.125,0
68380,53.0625,-85.9375,-41.8125,0
68400,48.625,-82.8125,-32.9375,0
68420,40.9375,-77.75,-24.6875,0
68440,40.5625,-69.375,-20.9375,0
68460,39.4375,-62.9375,-18.5,0
68480,33.5625,-58,-16.5,0
68500,23.875,-50.75,-10.1875,0
68520,17.5,-42.75,-1.8125,0
68540,12.3125,-34.0625,5.75,0
68560,-1.3125,-22.25,9.625,0
68580,-10.625,-11.5,10.6875,0
68600,-25.5625,1.3125,12.9375,0
68620,-29.9375,9.1875,13.875,0
68640,-28.75,11.875,12.8125,0
68660,-25.625,14.3125,10.4375,0
68680,-20.75,15.5625,8.25,0
68700,-19.125,13.1875,9.0625,0
68720,-21.5,5.375,12.4375,0
68740,-21.5625,-6.25,15.375,0
68760,-16.8125,-22,16.1875,0
68780,-12.625,-38,11.875,0
68800,-4.125,-53.5625,13.25,0
68820,6.6875,-68.25,19.6875,0
68840,18.375,-79.4375,17.75,0
68860,34.25,-84.9375,14.75,0
68880,45.875,-86.375,17.875,0
68900,47.5625,-85.875,23.5625,0
68920,42.3125,-83.9375,29.0625,0
68940,36,-80.25,29.9375,0
68960,33.3125,-75.625,33.125,0
68980,30.1875,-74.0625,36.3125,0
69000,23.75,-67.875,29.1875,0
69020,13.625,-55.5,18.8125,0
69040,2.25,-40.9375,13.1875,0
69060,-8.375,-27.75,11.6875,0
69080,-13.75,-15.875,2.8125,0
69100,3.6875,-3.1875,-9.9375,0
69120,14.125,4.4375,-20.1875,0
69140,16.875,14.0625,-28.8125,0
69160,14.75,22.3125,-37.5,0
69180,16.8125,31.6875,-46.375,0
69200,19.4375,37.625,-55.75,0
69220,52.625,37.125,-55.6875,0
69240,84.75,39.625,-58,0
69260,95.5625,52.5625,-69.5,0
69280,84.9375,67.4375,-73.25,0
69290,90.3125,75.8125,-58.25,0
69310,64.25,74.625,-36.3125,0
69330,69.5,66.75,-24.625,0
69350,58,55.1875,-30.4375,0
69370,37.25,49.375,-20.625,0
69390,29.3125,29.75,-8.75,0
69410,48.6875,21.8125,-10,0
69430,71.125,8.6875,1.875,0
69450,90,-4.9375,9.5625,0
69470,89.3125,-8.1875,10.125,0
69490,78.3125,-11.125,20.0625,0
69510,60.3125,-21.5,31.375,0
69530,53.875,-25.8125,27.3125,0
69550,53.125,-28.9375,9.375,0
69570,50.6875,-29.625,-10.5625,0
69590,45.4375,-35.75,-20.375,0
69610,25,-39.5625,-34.875,0
69630,-16.375,-50.0625,-56.5,0
69650,-67.875,-61.5625,-63.875,0
69670,-96,-68.125,-58.3125,0
69690,-94.375,-64.375,-78.1875,0
69710,-99.75,-52.3125,-65.125,0
69730,-90.1875,-32.8125,-2.75,0
69750,-108,14.625,62.5,0
69770,-145.688,68.25,56.4375,0
69790,-116.438,99.75,26.9375,0
69810,-32.25,90.3125,14.0625,0
69830,69.8125,24,29.125,0
69850,120.062,10.375,52.5,0
69870,175.062,30.5,97.125,0
69890,107.188,39.0625,106.25,0
69910,40.3125,45.125,96.4375,0
69930,18.75,31.25,115.812,0
69950,49.0625,7.5625,108.312,0
69970,78.75,-7.6875,76.125,0
69990,90.1875,-16,73.0625,0
70010,84.1875,-32.5625,69,0
70030,62.375,-41.625,56.875,0
70050,41.4375,-53.5625,48.5,0
70070,23.625,-58,40.75,0
70090,22.125,-62.875,30.1875,0
70110,22,-53.25,15.6875,0
70130,18.5625,-42.75,3.9375,0
70150,12.3125,-47.5625,5.375,0
70170,27.875,-61.125,-8.625,0
70190,40.875,-85.6875,-19.0625,0
70210,64.375,-105.5,-47.375,0
70220,79.9375,-106.5,-66.25,0
70240,98.5,-83.1875,-68.6875,0
70260,121.625,-25,-61.3125,0
70280,138.5,40.125,-20.1875,0
70300,165.438,68.0625,42.5625,0
70320,1.8125,59,111.812,0
70340,-130,-7.6875,57.125,0
70360,-86.5,-24.125,17.4375,0
70380,27.625,-26.5,44.0625,0
70400,92.25,-24.3125,-10.625,0
70420,80.8125,-30.375,-8.1875,0
70440,43.25,-22.375,11.1875,0
70460,0.4375,-12.75,2.4375,0
70480,-3.8125,-2.8125,-2.5625,0
70500,18.9375,0.6875,-2.125,0
70520,29.25,5.25,-7.3125,0
70540,13.125,-0.0625,-3.5625,0
70560,3.6875,-7.1875,-5.4375,0
70580,11.25,-6.25,-12.1875,0
70600,14,-6.875,-13.0625,0
70620,9.6875,-18.375,-13.75,0
70640,17.8125,-19.9375,-21.25,0
70660,23.9375,-14.5,-21.9375,0
70680,25.3125,-19.375,-18.0625,0
70700,18.1875,-22.25,-13.3125,0
70720,13.5625,-14.4375,-5.0625,0
70740,10.9375,-13.625,2.5625,0
70760,2.5,-9.375,6.9375,0
70780,-17.8125,1.6875,12.4375,0
70800,-39.8125,18.4375,12.75,0
70820,-65.125,43.6875,-7.375,0
70840,-65.9375,50.375,-0.125,0
70860,-45.375,47.4375,-25.0625,0
70880,-39.4375,51.6875,-58.25,0
70900,-58.125,47.5625,-75.5,0
70920,-89.5625,47.5,-88.8125,0
70940,-124.562,44.25,-85.875,0
70960,-161.812,38.6875,-64.5,0
70980,-192.375,28.6875,-46.3125,0
71000,-211.75,23.4375,-43.4375,0
71020,-220.438,53.5,-46.5625,0
71040,-224.875,53,-22.6875,0
71060,-247.875,44.1875,24.75,0
71080,-273.25,53.375,49.8125,0
71100,-241.875,55.9375,47.4375,0
71120,-211.312,35.3125,29.8125,0
71140,-165.375,15.25,16.4375,0
71160,-139.375,9.5625,18.3125,0
71180,-132.312,15.4375,18.6875,0
71200,-133.938,20.625,21.5,0
71220,-138.375,31.375,26.5625,0
71240,-124.062,41.5,30.375,0
71260,-87.8125,45,35.9375,0
71290,-39.9375,59,50.25,0
71310,-7.3125,61.6875,49.8125,0
71330,13.875,60.9375,62.625,0
71350,24.4375,48.3125,67.1875,0
71370,49.0625,40.8125,69.1875,0
71390,70.375,22.25,76.1875,0
71410,85.9375,-0.5625,69.0625,0
71430,75.5,-25.8125,74.8125,0
71450,89.3125,-53.25,88.5625,0
71470,119.125,-89.6875,90.0625,0
71490,95.5625,-108.125,75.5625,0
71510,83.9375,-122.875,67.5625,0
71530,74.1875,-162.75,66.0625,0
71550,77.3125,-190.562,57.5625,0
71570,45.5,-201.875,63.3125,0
71590,23.3125,-226.625,46.3125,0
71610,-31.625,-229.688,50.4375,0
71630,-75.8125,-238.75,6.5625,0
71650,-102.625,-224.625,-0.125,0
71670,-118.312,-197.375,32.25,0
71690,-113.562,-175.062,29.625,0
71710,-100.625,-151.188,10.0625,0
71730,-92.375,-123.812,22.1875,0
71750,-97.0625,-92.6875,38.3125,0
71770,-97.375,-55.0625,25.9375,0
71790,-110.75,0.25,20.75,0
71810,-133.25,62.6875,38.5625,0
71830,-117.125,78.4375,53.8125,0
71850,-66.75,67.25,30,0
71870,-55.0625,80.125,30.3125,0
71890,-29.75,104.938,45.3125,0
71910,0.4375,109.062,31.4375,0
71930,2,101.25,15.625,0
71950,32.3125,87.5,4.75,0
71970,45.6875,72.3125,-19.25,0
71990,48.625,69.75,-38.75,0
72010,53.4375,71.3125,-48.6875,0
72030,63.375,65.375,-58.375,0
72050,87.3125,53.125,-66.8125,0
72070,78.3125,31.6875,-74.125,0
72090,59.9375,11.5625,-77.75,0
72100,70.75,-5.3125,-73.6875,0
72120,122.375,-23.25,-87.6875,0
72140,160.688,-24.125,-117.125,0
72160,165.312,-17.9375,-135.375,0
72180,179.188,-7,-124.625,0
72200,184.062,11.125,-110.125,0
72220,134.812,32.625,-90.5625,0
72240,68.125,46.5,-61.5625,0
72260,27.9375,49.5,-46.1875,0
72280,16.25,41.9375,-48.875,0
72300,37.4375,33.9375,-18.125,0
72320,21.875,28.375,-11,0
72340,22.125,21.3125,-36.0625,0
72360,42.625,17.125,-42.75,0
72380,42.375,20.625,-39.8125,0
72400,23.3125,13.4375,-30.875,0
72420,18.6875,18,-30.9375,0
72440,26.1875,31,-24.25,0
72460,16.375,42.375,-21.6875,0
72480,0,48.25,-11,0
72500,0.875,53.9375,-5.1875,0
72520,12.4375,61.5,-13.4375,0
72540,18.9375,58.4375,-18.5,0
72560,30.9375,59.8125,-18.75,0
72580,38.5625,54.6875,-23.125,0
72600,33,44.1875,-24.875,0
72620,27.0625,35.3125,-23.5625,0
72630,20.5625,29.5625,-17.3125,0
72650,19.3125,17,-13,0
72670,20.125,7.375,-13.4375,0
72690,5,7.125,-18.9375,0
72710,-9.4375,1.75,-7.75,0
72730,-8.9375,-4.375,6.1875,0
72750,-12.9375,-6.75,5.25,0
72770,-24.6875,-4.25,-1.875,0
72790,-25.6875,-4.125,3.3125,0
72810,-14.75,-2.1875,-4.4375,0
72830,-7.0625,1.9375,-12.5,0
72850,-11.6875,3.5625,-8,0
72870,-10.75,6.875,-0.6875,0
72890,-9.3125,8.6875,0.25,0
72910,-11.75,7.3125,-0.8125,0
72930,-27.5625,4.375,0.3125,0
72950,-40.3125,-4.3125,8.375,0
72970,-42.4375,-14.5625,23.1875,0
72990,-42.375,-18.625,25.5,0
73010,-31.9375,-29.6875,13.6875,0
73030,-42.1875,-43.3125,-1.625,0
73050,-60.1875,-50.75,-6.5625,0
73070,-65.8125,-46.25,-9.3125,0
73090,-65.9375,-34,-12.3125,0
73110,-54.9375,-17.9375,-8.3125,0
73130,-48.0625,-12.0625,-7.5,0
73150,-53.3125,-6.25,12.625,0
73170,-59.375,-0.1875,6.6875,0
73190,-47.6875,-1.25,-14,0
73210,-39.5,-6.9375,-5.4375,0
73230,-47.375,-9,-4.3125,0
73250,-56.1875,-11.75,-6.0625,0
73270,-61.75,-17.3125,3.25,0
73290,-65.8125,-22.375,6.4375,0
73310,-53.6875,-22.25,4.0625,0
73330,-43.4375,-18.5,-0.8125,0
73350,-37.8125,-17.0625,-0.5,0
73370,-54.0625,-16.1875,5.9375,0
73390,-53.125,-17.875,14.5,0
73410,-41.5625,-21.125,22.125,0
73430,-42.5,-20.25,26.5,0
73450,-48.125,-18.5,21.9375,0
73470,-52.375,-17.5,17.75,0
73490,-49.3125,-21.75,21.0625,1000
73510,-50.9375,-21.625,21.8125,0
73530,-35.9375,-18.5625,15.1875,0
73550,-21.4375,-16.6875,4.1875,0
73570,-23.9375,-13.5,-4,0
73590,-24.75,-13,-0.6875,0
73610,-18.0625,-9.1875,-0.625,0
73630,-2.4375,-7.3125,-9.0625,0
73650,11.5,-6.5625,-9.6875,0
73670,16.4375,-7.4375,-8.3125,0
73690,10.875,-7.5625,-10.375,0
73710,13.3125,-7.0625,-6.75,0
73730,10.6875,-8.6875,-2.8125,0
73750,4.875,-10.4375,-5.125,0
73770,5.0625,-14.8125,-3.125,0
73790,5.75,-14.5625,-2.625,0
73810,5,-11.4375,-5.125,0
73830,0.8125,-9.0625,-2.125,0
73850,-6.4375,-6.0625,-4.9375,0
73870,-1.125,-6.1875,-7.6875,0
73890,2.875,-3.8125,-5.1875,0
73910,5.6875,-3.0625,-8.8125,0
73930,6.875,-3.9375,-4.875,0
73950,3.4375,-3.3125,-0.3125,0
73970,-1.75,-3.6875,3.125,0
73990,0.125,-2.9375,4.9375,0
74010,2.3125,-4.3125,6.125,0
74030,4.4375,-4.6875,5.875,0
74050,6.5625,-4.5625,5.375,0
74070,2.9375,-1.9375,5,0
74090,2.5625,-1.5,4.375,0
74110,1.75,-2.5,4.9375,0
74130,4.625,-3.375,5.3125,0
74150,1,-2.6875,3.0625,0
74170,-2.3125,-1.125,4.25,0
74190,-7.1875,-1.5,7.625,0
74210,-6.125,-0.875,6.8125,0
74230,-3.75,-0.875,7.75,0
74250,-3.4375,1.6875,5.5625,0
74270,-3.25,3.25,2.5625,0
74290,-1.5,0.4375,4.25,0
74310,0.3125,-1.75,5.6875,0
74330,-0.5,-4.0625,4.25,0
74350,-4.125,-5.625,6.1875,0
74370,-4.375,-6.25,9.1875,0
74390,-3.4375,-4.6875,7.6875,0
74410,-4.25,-3.8125,5.5,0
74430,-2.3125,-4.5,4.9375,0
74450,-2.4375,-6.125,4.25,0
74470,-2.5,-7.6875,7,0
74490,-2.3125,-5.375,5.0625,0
74510,-2.75,-6.125,2.9375,0
74530,-3.4375,-9,5,0
74550,-1,-9.25,4.5625,0
74570,3.9375,-7.4375,4.75,0
74580,-0.5625,-6.75,5.0625,0
74600,-6.8125,-6,2.9375,0
74620,-4.4375,-6.8125,1.1875,0
74640,-0.25,-7.3125,1.5625,0
74660,2.5625,-5.5,-1.4375,0
74680,1.875,-5.625,-2.1875,0
74700,2.1875,-5.75,-2.5,0
74720,-0.375,-6.5625,-3.0625,0
74740,0.375,-7,-3.1875,0
74760,1.4375,-7,-3,0
74780,-1.0625,-8.25,-0.0625,0
74800,-1.9375,-9.125,-1.625,0
74820,1.5625,-9.5625,-4.4375,0
74840,-0.375,-9.625,-2.0625,0
74860,-1.8125,-9.25,-0.8125,0
74880,-1.9375,-10.4375,-1.9375,0
74900,1.5,-13.0625,0.9375,0
74920,3.4375,-13.125,-0.625,0
74940,3.375,-12.9375,-0.9375,0
74960,-1.25,-12.5,0.4375,0
74980,-5.6875,-13.1875,1.4375,0
75000,-3.4375,-14.625,1.875,0
75020,4.0625,-14.625,-0.125,0
75040,7.25,-14.0625,-2.5625,0
75060,2.9375,-13.125,-2.0625,0
75080,-4.5625,-12.25,-1.25,0
75100,-0.8125,-13.0625,-0.25,0
75120,2.5625,-13.9375,0.0625,0
75140,5.8125,-13.125,-1.5625,0
75160,1.875,-12,0.5625,0
75180,-0.5,-11.9375,3.0625,0
75200,1.5,-14.5625,2.875,0
75220,5.125,-15.8125,2.3125,0
75240,7.375,-15.75,-0.0625,0
75260,6.5,-13.75,-0.0625,0
75280,2.3125,-13.875,2.125,0
75300,1.9375,-14.875,3.125,0
75320,5,-14.8125,2.5625,0
75340,6.5625,-14.625,1.4375,0
75360,3.3125,-15.875,2.6875,0
75380,2.9375,-16.9375,2.5,0
75400,2.625,-16.75,-1.6875,0
75420,2.5625,-16.1875,-4,0
75440,2.75,-17.375,-1.5,0
75460,1.8125,-19.1875,4.125,0
75480,4.8125,-20.4375,2.3125,0
75500,4.4375,-19.6875,0.625,0
75520,1,-19.25,2.375,0
75540,-1.6875,-20.0625,5.9375,0
75560,2.375,-20.5,4.75,0
75580,3,-20.1875,-0.125,0
75600,1.9375,-20.625,-2.5,0
75620,2.75,-20.5,-1.5,0
75640,4.375,-19.75,-2.5625,0
75660,5.8125,-16.6875,0.0625,0
75680,5.5,-18.9375,-1.5625,0
75700,4.5625,-18.0625,-1.625,0
75720,4.75,-17.6875,-3.8125,0
75740,4.75,-16.6875,-5.75,0
75760,2.8125,-18.3125,-7.25,0
75780,1.25,-19.75,-5.5625,0
75800,3.9375,-21.625,-6.1875,0
75820,6.875,-24.1875,-6,0
75840,4.9375,-23.125,-7.0625,0
75860,0.5625,-23.0625,-9.1875,0
75880,0.1875,-24.9375,-8.9375,0
75900,3.375,-27.75,-9.125,0
75920,4.8125,-26.125,-7.125,0
75940,4.125,-22.8125,-8.75,0
75960,-0.8125,-24.3125,-5.8125,0
75980,1.0625,-23.8125,-11.625,0
76000,4.5,-24.125,-12.75,0
76020,4.5,-21.375,-12.125,0
76040,1.75,-18.8125,-10.4375,0
76060,2.5,-17.875,-13.125,0
76080,5.25,-18.75,-14.125,0
76100,5.4375,-17.5,-15.5625,0
76120,3.25,-14.25,-17.9375,0
76140,1.875,-14.25,-18.25,0
76160,-0.375,-13.0625,-16.75,0
76180,5.4375,-13.5625,-18.875,0
76200,2.625,-12.4375,-19.5,0
76220,-1.25,-12.75,-16.5,0
76240,4.375,-12.25,-22.5,0
76260,-2.625,-13.5625,-21.125,0
76280,-3.4375,-12.1875,-21.125,0
76300,3.125,-19.5,-23.125,0
76320,-1.4375,-15.25,-25.9375,0
76340,-7.4375,-13.375,-26.25,0
76360,-4,-14,-26.6875,0
76380,-4.3125,-12.1875,-28.5,0
76400,0.0625,-13.375,-27.5625,0
76420,-8.625,-7.125,-24.25,0
76440,-6.4375,-9.375,-29.1875,0
76460,-8.125,-7.75,-25,0
76480,-6.4375,-6.4375,-21.5,0
76500,-5,-5.125,-20.8125,0
76520,-4.375,-4.125,-24.0625,0
76540,-8.0625,-1.625,-19.5625,0
76560,-6.5625,-0.4375,-20.8125,0
76580,-2.1875,-0.125,-22,0
76600,7,1,-30.1875,0
76620,-1.125,4.5,-21.625,0
76640,-0.125,4,-23.0625,0
76660,-1.25,4.4375,-20.8125,0
76680,-0.9375,5.375,-22.625,0
76700,0.3125,4.9375,-21.5625,0
76720,-1.375,2.8125,-22.875,0
76740,-0.8125,2.125,-20.6875,0
76760,-2,1.1875,-21.3125,0
76780,-3.625,-1,-20.0625,0
76800,-4.375,-1.25,-23,0
76820,-6.25,-3.875,-24.0625,0
76840,-8,-3.25,-21.1875,0
76860,-6.375,-4.375,-19,0
76880,-9.125,-4.375,-21.0625,0
76900,-9.4375,-3.375,-20.75,0
76920,-10.25,-4.3125,-21.0625,0
76940,-9.625,-3.75,-23.5625,0
76960,-12.0625,-1.5625,-18.9375,0
76980,-11.8125,0.9375,-19.6875,0
77000,-12.3125,1.5625,-20.0625,0
77020,-10.375,1.8125,-20.1875,0
77040,-10.25,3.1875,-18.875,0
77060,-13.0625,4.75,-19.125,0
77080,-13.6875,3.5,-19.4375,0
77100,-11.75,1.3125,-19.0625,0
77120,-11.3125,3.6875,-19.5625,0
77140,-10.9375,4.8125,-18,0
77160,-11.5,5.875,-17.5,0
77180,-12.0625,7.5625,-16.125,0
77200,-12.25,7.9375,-16.1875,0
77220,-7.125,9,-23.8125,0
77240,-11.625,7.0625,-15.5625,0
77260,-12,9.5625,-16.875,0
77280,-9.75,9.25,-17.625,0
77300,-8.875,10.75,-17.0625,0
77320,-8.625,13.0625,-17.25,0
77340,-8.75,14.0625,-17,0
77360,-8,14.6875,-15.5,0
77380,-9.5,16.9375,-15.3125,0
77400,-9.875,17.6875,-15.0625,0
77420,-7.8125,16.125,-15.1875,0
77440,-9.25,16.25,-13.375,0
77460,-5.9375,17.375,-16.375,0
77480,-7.0625,17.25,-15.3125,0
77500,-8.25,18.5,-15.0625,0
77520,-10.1875,15.875,-12.6875,0
77540,-10.6875,19.125,-11.875,0
77560,-9.5,18.9375,-12.0625,0
77580,-9.0625,18.75,-11.75,0
77600,-8.125,17.0625,-10.8125,0
77620,-6.4375,19.9375,-15.625,0
77640,-9.125,16.875,-8.6875,0
77660,-9.125,17.625,-10.25,0
77680,-7,16.875,-10.5625,0
77700,-10.0625,17.875,-9.8125,0
77720,-9.5625,15.625,-10.6875,0
77740,-9.5,13.6875,-11,0
77760,-8.625,12,-12.8125,0
77780,-6.875,13.625,-14.75,0
77800,-9.375,13.75,-13.3125,0
77820,-9,17.9375,-16.625,0
77840,-4.625,15.3125,-16.3125,0
77860,-5.25,15.5625,-14.625,0
77880,-11.0625,17.25,-12.625,0
77900,-12.375,16.25,-10,0
77920,-7.5625,17.5,-9.625,0
77940,-2.3125,15.6875,-12.875,0
77960,-6,14.75,-10,0
77970,-11.5625,15.25,-9.1875,0
77990,-11.25,18.375,-7.4375,0
78010,-8.1875,17.9375,-5.6875,0
78030,-4.0625,15.375,-6,0
78050,-0.4375,16.625,-6.4375,0
78070,-7.6875,19.625,-5.8125,0
78090,-13.75,20.125,-3.9375,0
78110,-9.625,19.25,-2.3125,0
78130,-0.0625,19.5625,-1.875,0
78150,-0.3125,20.6875,-2.6875,0
78170,-7.6875,20.0625,-2.5625,0
78190,-11,17.5625,-2.75,0
78210,-5.5625,17.5625,-4.0625,0
78230,-4.5,18.875,-5.5,0
78250,-8.875,19.8125,-6.0625,0
78270,-7.9375,17.4375,-7.3125,0
78290,-2.5,16.3125,-8.3125,0
78310,0.5,20.9375,-9.0625,0
78330,0.375,20.5625,-10,0
78350,2.5,17.5625,-9.25,0
78370,-1.5,18.8125,-9.1875,0
78390,-6.5,21.0625,-6.5,0
78410,-7.3125,20.5,-3.8125,0
78430,-4.75,20.5,-2.8125,0
78450,0.0625,21.75,-0.8125,0
78470,3.9375,21.5,-0.1875,0
78490,-0.8125,21.4375,-0.9375,0
78510,-7.125,22.3125,2.375,0
78530,-4.8125,21.0625,6.0625,0
78550,3.875,20.3125,5.9375,0
78570,9.625,20.125,3.1875,0
78590,6.625,19.5,-0.3125,0
78610,2.5625,17.75,7.125,0
78630,5.5625,16.3125,7.5625,0
78650,4.875,17.3125,6.8125,0
78670,6.1875,16.375,8.6875,0
78690,9.875,14.75,9.25,0
78710,9.875,18.125,11,0
78730,6.5625,16.4375,10.5,0
78750,2.3125,14.6875,7.625,0
78770,2.8125,12.75,6.0625,0
78790,7.8125,13.125,9.1875,0
78810,2.375,15.3125,9.1875,0
78830,1.9375,13.9375,9.375,0
78850,2.25,13.9375,5.3125,0
78870,5.3125,13.4375,10.5,0
78890,0.25,14,9.3125,0
78910,-3.9375,11.9375,8.9375,0
78930,2.875,10.1875,10.1875,0
78950,6.75,12,10.8125,0
78970,-0.3125,13.6875,7.5,0
78990,-2.5,10.0625,9,0
79010,-2.5625,12,8.125,0
79030,0.1875,12.8125,7.6875,0
79050,-2,12.3125,10.4375,0
79070,-2.25,10.375,8.75,0
79090,-1.5,8.875,6.5625,0
79110,-1.8125,8.625,9.3125,0
79130,-0.6875,9.5,7.8125,0
79150,-0.9375,8.5,6.625,0
79170,-1.1875,6.1875,9.25,0
79190,-1.375,3.8125,7.625,0
79210,3.0625,4.3125,8.1875,0
79230,2.5625,5.8125,6.9375,0
79250,-0.875,4.625,4.5625,0
79270,0.3125,3.0625,7.4375,0
79290,2.125,3.6875,7.75,0
79310,0.1875,3,8.4375,0
79330,0.6875,1.0625,7.8125,0
79350,-0.9375,2.0625,8.3125,0
79370,-3.5,2.0625,9.0625,0
79390,-0.9375,1.3125,9.0625,0
79410,0.0625,3.8125,10.125,0
79430,2.4375,4.1875,9.4375,0
79450,0.4375,4.1875,8.0625,0
79470,-0.875,3.1875,7.625,0
79490,-1.625,2.75,11.6875,0
79510,-1.5,1.9375,11,0
79530,0.875,2.25,11.4375,0
79550,-0.5625,1.6875,12.5,0
79570,-2.9375,2.5,13.3125,0
79590,-0.8125,2.875,14,0
79610,0.25,4.0625,12.375,0
79630,-0.25,3.125,14.3125,0
79650,-1.125,2.875,12.0625,0
79670,-2.625,3.0625,11.1875,0
79690,0.3125,1.375,12.1875,0
79710,2.9375,2.8125,12.5625,0
79730,1.1875,2.875,10.5,0
79750,1.5625,1,15.625,0
79770,0.3125,0.5625,14.3125,0
79790,3.1875,0.4375,14.5,0
79800,-0.125,1.125,18.375,0
79830,-1.875,-0.4375,18.75,0
79850,1.875,-2.5625,18.3125,0
79870,4.875,-1.4375,17.3125,0
79890,2.5,-0.625,18.625,0
79910,1.6875,-3.3125,19.25,0
79920,1.875,-3.375,18.125,0
79940,2.0625,-1.375,17.6875,0
79960,0.3125,-1.5,18.1875,0
79980,-0.125,-3.8125,17.875,0
80000,2.125,-4.875,16.0625,0
80020,3.0625,-4.875,15.5,0
80040,1.0625,-5.9375,15.3125,0
80060,0.125,-8.625,15.375,0
80080,1.625,-9.9375,16.4375,0
80100,3.3125,-9.3125,14.5625,0
80120,4,-10.375,15.625,0
80140,2.75,-9.8125,14.5,0
80160,0,-10.6875,15.875,0
80180,1.625,-11.0625,13.625,0
80200,4.25,-12.25,13.125,0
80220,6.75,-13.3125,11.875,0
80240,4.125,-11.625,9.9375,0
80260,3.6875,-11.4375,10.1875,0
80280,5.6875,-10.6875,10.9375,0
80300,6.75,-11.0625,12.125,0
80320,6.125,-10.1875,13.125,0
80340,5.1875,-10.875,12.8125,0
80360,5.1875,-13.75,13,0
80380,4.8125,-14.25,13.125,0
80400,5.1875,-12.75,14.875,0
80420,3.75,-12.1875,14.875,0
80440,4.5625,-12.125,14.5,0
80460,6.5,-11.9375,15.3125,0
80480,5.4375,-11.8125,16.9375,0
80500,3.5,-10.375,17.125,0
80520,5,-10.9375,16.8125,0
80540,6.9375,-11.8125,20,0
80560,10.4375,-10.6875,16.1875,0
80580,12.4375,-12.0625,14.5,0
80600,11,-14.125,15.25,0
80620,9.5625,-14.125,14.625,0
80640,10,-13.3125,15.0625,0
80660,10,-14.375,15.75,0
80680,11.75,-14.5625,14.9375,0
80700,12.875,-14.4375,13.25,0
80720,11.375,-14.75,16.75,0
80740,7.6875,-16.25,17.1875,0
80760,7.0625,-16.3125,16.4375,0
80780,10.0625,-16.1875,17.3125,0
80800,8.125,-16.8125,18.625,0
80820,4,-15,17.6875,0
80840,9.4375,-14.25,18.6875,0
80860,16.375,-17.375,19.3125,0
80880,14.5,-17.625,17.625,0
80900,7.4375,-16.5625,18.9375,0
80920,6.625,-17.1875,19.875,0
80940,13.125,-17.5,17.5,0
80960,20,-18,14.5,0
80980,15.8125,-18.4375,15,0
81000,10.5625,-17.8125,15,0
81020,12.6875,-20.25,14.9375,0
81040,9.75,-22.1875,15.3125,0
81060,4.5625,-20,15.1875,0
81080,8.5,-19.5625,16.75,0
81100,9,-21.4375,14.5,0
81120,4.5,-20.9375,12.0625,0
81140,3.9375,-20.625,13.6875,0
81160,3.375,-23.0625,16.1875,0
81180,2.5625,-22.8125,12.625,0
81200,7.3125,-23.25,11.5,0
81220,7.5,-25.6875,11.25,0
81240,2,-23.1875,8.375,0
81260,0.625,-22.5625,6.5,0
81280,8.4375,-23.5625,7.375,0
81300,10.875,-25.1875,6.6875,0
81320,4.875,-24.3125,6.5625,0
81340,6.8125,-23.0625,8.4375,0
81360,5.25,-26.6875,12.125,0
81380,6.625,-24.6875,7.875,0
81400,8.6875,-21.875,7.3125,0
81420,10.875,-23.875,9,0
81440,7.5,-25.4375,4.4375,0
81460,8.6875,-23.8125,4.4375,0
81480,10.6875,-24.0625,8.8125,0
81500,5.3125,-23,6.4375,0
81520,8.0625,-18.625,0.125,0
81540,17.75,-19.8125,0.3125,0
81560,16.3125,-22.375,-1.8125,0
81580,9.0625,-18.875,-1.625,0
81600,4.375,-18.5,-1.125,0
81620,7.125,-24.6875,1.1875,0
81640,11.875,-27.625,-1.5625,0
81660,10.0625,-21.625,-4.5625,0
81680,4.625,-21.3125,0.375,0
81700,-2.0625,-26.3125,-0.125,0
81720,5.9375,-26.9375,-3.9375,0
81740,15.0625,-25.0625,-1.6875,0
81760,6.75,-25.875,-1.375,0
81780,-3.0625,-25,-2.1875,0
81800,3.3125,-26.125,-2.5,0
81820,10.1875,-27.4375,-2.5625,0
81840,4.4375,-26.1875,-7.125,0
81860,7.1875,-27.125,-7.1875,0
81880,8.6875,-31.375,-4.5625,0
81900,4.125,-29.5625,-5.375,0
81920,3.4375,-27.5625,-6.9375,0
81940,12.375,-28.5625,-4.6875,0
81960,8.625,-27.75,-8.125,0
81980,10.8125,-26.4375,-10.5,0
82000,9.75,-28.625,-8.8125,0
82020,6.75,-28.125,-10.8125,0
82040,5.375,-24.4375,-11.6875,0
82060,5.375,-26.8125,-7.9375,0
82080,2.6875,-26.4375,-8.3125,0
82100,2.3125,-26.8125,-6.9375,0
82120,2.875,-26.875,-4.6875,0
82140,-1.3125,-22.3125,-7,0
82160,-2.75,-15,-6.5625,0
82180,-2.9375,-17.125,-6.3125,0
82200,-1.625,-16.6875,-7.0625,0
82220,-3.3125,-16.8125,-8.5625,0
82240,-0.5,-16.5625,-8.375,0
82260,0.5,-15.5,-11,0
82280,-1.8125,-14.25,-6,0
82300,-3.8125,-15.3125,-9,0
82320,1.375,-13.9375,-7.875,0
82340,-2.6875,-14.5625,-9.25,0
82360,-6.375,-10.375,-9,0
82380,-1.0625,-12.8125,-11.1875,0
82400,1.625,-12.75,-12.3125,0
82420,-4.125,-16.5625,-13.6875,0
82440,-0.6875,-13.625,-15.5625,0
82460,-1.375,-19.375,-16.4375,0
82480,-8.25,-12.4375,-12.9375,0
82500,-10.0625,-15,-15.25,0
82520,-7.25,-13,-13.4375,0
82540,-8.3125,-18.8125,-12.1875,0
82560,-11.3125,-13.375,-18.625,0
82580,-10.8125,-17.3125,-13.6875,0
82600,-9.3125,-21.3125,-21.375,0
82620,-13.25,-15.75,-16.1875,0
82640,-14.4375,-18,-15.5625,0
82660,-13.625,-14.125,-18.6875,0
82680,-18.875,-12.4375,-14.6875,0
82700,-13.5,-13.5,-26.75,0
82720,-15.6875,-7.0625,-17.75,0
82740,-18.5,-8.125,-15.1875,0
82760,-17.25,-7.0625,-17.6875,0
82780,-12.6875,-12.5625,-29,0
82800,-16.6875,-6.3125,-15.8125,0
82820,-19.375,-5.0625,-13.6875,0
82840,-16.5625,-4.5,-15.5,0
82860,-14.25,-6.1875,-26.75,0
82880,-18.875,-4.3125,-17.5625,0
82900,-19.375,-5.3125,-12.875,0
82920,-18.25,-1.75,-14.8125,0
82940,-16.625,-1.25,-25.625,0
82960,-20.625,1.125,-15.4375,0
82980,-20.3125,-0.5625,-13.6875,0
83000,-16.625,2.6875,-24.375,0
83020,-23.4375,1.625,-15.5625,0
83040,-19.1875,-0.4375,-18.875,0
83060,-17.375,3,-24.75,0
83080,-22.25,4,-21.625,0
83100,-22.125,3.4375,-23.75,0
83120,-21.4375,4.4375,-23.25,0
83140,-21.125,5.9375,-24.5625,0
83160,-22.25,6.875,-25.25,0
83180,-22.8125,8.3125,-26.4375,0
83200,-24.125,11.25,-23.4375,0
83220,-25.75,12.0625,-23.0625,0
83240,-20.8125,10.875,-24.875,0
83260,-22.625,11.3125,-22.125,0
83280,-26.4375,15.25,-20.4375,0
83300,-22.6875,13.75,-17.6875,0
83310,-18.5,11.625,-15.5,0
83330,-22.125,13.0625,-14.8125,0
83350,-21.6875,15.625,-16.1875,0
83370,-19.1875,16.125,-12.125,0
83390,-20.0625,13.5,-10.4375,0
83410,-16.5,13.375,-12.625,0
83430,-13.0625,15.5,-14.9375,0
83450,-17.125,15.8125,-12.625,0
83470,-19.125,18.125,-13.0625,0
83490,-11.125,17.25,-13.3125,0
83510,4.3125,19.0625,-9.4375,0
