Timestamp, Angle x, Angle y, Angle z, Marker
40,-0.605502,0.348868,0.928757,0
60,-0.605639,0.348929,0.928756,0
80,-0.605591,0.349035,0.928733,0
100,-0.605566,0.34937,0.929243,0
120,-0.605731,0.349931,0.929692,0
140,-0.606029,0.350239,0.930062,0
160,-0.606119,0.350406,0.930038,0
170,-0.606071,0.350512,0.930016,0
180,-0.606235,0.351117,0.930626,0
220,-0.606531,0.351716,0.930604,0
240,-0.606758,0.351944,0.930579,0
260,-0.606812,0.352109,0.930519,0
280,-0.606538,0.35239,0.930922,0
300,-0.606183,0.353133,0.931506,0
320,-0.60587,0.353747,0.931643,0
340,-0.605955,0.3536,0.931541,0
360,-0.605128,0.353724,0.932273,0
380,-0.605342,0.354539,0.932987,0
400,-0.606056,0.354942,0.93303,0
420,-0.606101,0.35488,0.933214,0
440,-0.606684,0.355494,0.933177,0
460,-0.607336,0.356044,0.93258,0
480,-0.607287,0.356195,0.932719,0
500,-0.60819,0.35716,0.932471,0
520,-0.609167,0.358018,0.931501,0
540,-0.608725,0.358072,0.931225,0
560,-0.608157,0.358651,0.930947,0
580,-0.608052,0.35886,0.930123,0
600,-0.607041,0.358508,0.929951,0
620,-0.606206,0.358319,0.930606,0
640,-0.606181,0.358319,0.931349,0
660,-0.606765,0.358349,0.932093,0
680,-0.606837,0.358789,0.93273,0
700,-0.606711,0.359426,0.933523,0
720,-0.60683,0.360051,0.933792,0
740,-0.606561,0.360603,0.934116,0
760,-0.606374,0.360692,0.934257,0
780,-0.606464,0.36086,0.934234,0
800,-0.606428,0.360857,0.934197,0
820,-0.606897,0.360871,0.934362,0
840,-0.606671,0.361001,0.934629,0
860,-0.606493,0.361026,0.934918,0
880,-0.606788,0.361379,0.935451,0
900,-0.607372,0.361703,0.935806,0
920,-0.60809,0.361773,0.936078,0
940,-0.60877,0.361885,0.936477,0
960,-0.609587,0.362059,0.936875,0
980,-0.61012,0.362175,0.937128,0
1000,-0.610647,0.362019,0.937463,0
1020,-0.610903,0.362057,0.937882,0
1040,-0.611253,0.361882,0.938345,0
1060,-0.611645,0.362026,0.938924,0
1080,-0.612448,0.362285,0.938865,0
1100,-0.612872,0.361711,0.938998,0
1120,-0.613085,0.361476,0.939464,0
1140,-0.612958,0.362116,0.940259,0
1160,-0.612595,0.362836,0.940376,0
1180,-0.612069,0.363351,0.940282,0
1200,-0.611666,0.363315,0.939716,0
1220,-0.610571,0.363015,0.93932,0
1240,-0.60971,0.36297,0.939373,0
1250,-0.609305,0.363126,0.93993,0
1270,-0.609629,0.364085,0.939407,0
1290,-0.608716,0.364122,0.938965,0
1310,-0.607765,0.36391,0.939042,0
1330,-0.60757,0.364018,0.938874,0
1350,-0.607745,0.363678,0.938503,0
1370,-0.607698,0.363784,0.938482,0
1390,-0.607791,0.363617,0.938688,0
1410,-0.608409,0.363875,0.938444,0
1430,-0.608373,0.363873,0.938408,0
1450,-0.608323,0.364023,0.938548,0
1470,-0.608556,0.363873,0.938591,0
1490,-0.608793,0.364038,0.938713,0
1510,-0.608793,0.364038,0.938713,0
1530,-0.608465,0.364401,0.938627,0
1550,-0.607517,0.363853,0.938934,0
1570,-0.60757,0.364018,0.938874,0
1590,-0.606908,0.364181,0.939176,0
1610,-0.60692,0.363781,0.939553,0
1630,-0.607222,0.363712,0.939993,0
1650,-0.60731,0.363924,0.940132,0
1670,-0.60731,0.363924,0.940132,0
1690,-0.607741,0.364272,0.940031,0
1710,-0.607657,0.364376,0.939973,0
1730,-0.607081,0.36439,0.940171,0
1750,-0.607189,0.36443,0.940443,0
1770,-0.607719,0.36459,0.940859,0
1790,-0.607978,0.364943,0.941358,0
1810,-0.608366,0.365423,0.941708,0
1830,-0.608366,0.365423,0.941708,0
1850,-0.608419,0.365588,0.941648,0
1870,-0.607944,0.365661,0.941809,0
1890,-0.607418,0.365525,0.941866,0
1910,-0.60737,0.365631,0.941845,0
1930,-0.607286,0.365734,0.941786,0
1950,-0.607424,0.365796,0.941785,0
1970,-0.607424,0.365796,0.941785,0
1990,-0.607533,0.366196,0.942301,0
2010,-0.606977,0.366689,0.942485,0
2030,-0.608775,0.368089,0.942153,0
2050,-0.607074,0.36778,0.942233,0
2070,-0.607697,0.368065,0.942462,0
2090,-0.60765,0.368171,0.94244,0
2110,-0.608276,0.368121,0.942899,0
2130,-0.608007,0.368338,0.943458,0
2150,-0.608646,0.36854,0.944147,0
2170,-0.608611,0.368607,0.944747,0
2190,-0.608079,0.368661,0.945932,0
2210,-0.608386,0.36927,0.9467,0
2230,-0.608112,0.369216,0.947342,0
2250,-0.607719,0.368319,0.948428,0
2270,-0.608874,0.36877,0.949076,0
2290,-0.60902,0.369421,0.949076,0
2310,-0.608686,0.368859,0.94922,0
2330,-0.608603,0.368671,0.949555,0
2350,-0.608562,0.368758,0.949845,0
2370,-0.608334,0.368527,0.94987,0
2390,-0.608472,0.368589,0.949868,0
2410,-0.607711,0.3686,0.949884,0
2430,-0.607271,0.368313,0.949836,0
2450,-0.606795,0.368024,0.949752,0
2470,-0.606232,0.367883,0.949773,0
2490,-0.605935,0.36757,0.949398,0
2510,-0.605935,0.36757,0.949398,0
2530,-0.605641,0.367574,0.949104,0
2550,-0.605535,0.367489,0.948668,0
2570,-0.605574,0.367087,0.948295,0
2590,-0.605369,0.366652,0.948289,0
2610,-0.605284,0.366755,0.948231,0
2630,-0.605422,0.366817,0.94823,0
2650,-0.605374,0.366923,0.948208,0
2670,-0.605569,0.366815,0.948376,0
2690,-0.605663,0.366648,0.948582,0
2710,-0.605578,0.366751,0.948525,0
2730,-0.605716,0.366813,0.948523,0
2750,-0.605716,0.366813,0.948523,0
2770,-0.605863,0.366812,0.94867,0
2790,-0.605863,0.366812,0.94867,0
2810,-0.605923,0.366711,0.949477,0
2830,-0.606367,0.367022,0.95,0
2850,-0.607092,0.36737,0.950193,0
2870,-0.607349,0.367364,0.95045,0
2890,-0.607487,0.367427,0.950449,0
2910,-0.605829,0.367039,0.952561,0
2930,-0.60894,0.369161,0.951409,0
2950,-0.607661,0.367032,0.951761,0
2970,-0.609021,0.367922,0.952418,0
2990,-0.608663,0.3693,0.953183,0
3010,-0.60882,0.369235,0.953479,0
3030,-0.608949,0.369265,0.954854,0
3050,-0.610295,0.369589,0.955198,0
3070,-0.611224,0.368531,0.955859,0
3090,-0.612572,0.368857,0.956205,0
3110,-0.612627,0.369701,0.956473,0
3130,-0.612579,0.369807,0.956452,0
3150,-0.612474,0.369674,0.955849,0
3170,-0.612076,0.368692,0.955821,0
3190,-0.612125,0.368225,0.955597,0
3210,-0.611648,0.368295,0.955758,0
3230,-0.610618,0.368159,0.956087,0
3250,-0.610756,0.368222,0.956086,0
3270,-0.610052,0.368421,0.956517,0
3290,-0.609533,0.368262,0.956887,0
3310,-0.609455,0.368347,0.957141,0
3330,-0.609123,0.368144,0.957531,0
3350,-0.609419,0.367782,0.95758,0
3370,-0.608992,0.367747,0.957762,0
3390,-0.608943,0.367852,0.957741,0
3410,-0.609044,0.367913,0.957703,0
3430,-0.608724,0.367602,0.958078,0
3450,-0.609256,0.36777,0.958498,0
3470,-0.609273,0.367371,0.958878,0
3490,-0.609871,0.36672,0.959617,0
3510,-0.610702,0.366843,0.960171,0
3530,-0.611287,0.367178,0.960532,0
3550,-0.612159,0.367215,0.960795,0
3570,-0.613563,0.367151,0.961562,0
3590,-0.614584,0.36719,0.961975,0
3610,-0.615167,0.367617,0.962665,0
3630,-0.615666,0.368102,0.963134,0
3650,-0.615926,0.368464,0.963642,0
3670,-0.616095,0.368702,0.964337,0
3690,-0.616493,0.369127,0.964844,0
3710,-0.616631,0.369191,0.964843,0
3710,-0.616631,0.369191,0.964843,0
3730,-0.616599,0.369262,0.965449,0
3750,-0.616571,0.369243,0.965727,0
3770,-0.615991,0.371324,0.967083,0
3790,-0.614183,0.376714,0.966367,0
3810,-0.6146,0.370374,0.969946,0
3840,-0.615279,0.373845,0.966247,0
3880,-0.620214,0.393467,0.9658,0
3890,-0.620107,0.394076,0.965378,0
3910,-0.620066,0.393831,0.965904,0
3930,-0.620118,0.393967,0.965362,0
3950,-0.619384,0.393289,0.965082,0
3970,-0.618693,0.392234,0.964903,0
3990,-0.617822,0.391523,0.965106,0
4010,-0.617683,0.391459,0.965108,0
4030,-0.617258,0.391358,0.965446,0
4050,-0.617068,0.390793,0.965736,0
4070,-0.61712,0.389988,0.965736,0
4090,-0.616297,0.389217,0.966124,0
4110,-0.615644,0.388593,0.966881,0
4130,-0.615356,0.387921,0.967044,0
4150,-0.61468,0.387122,0.9671,0
4170,-0.613498,0.386643,0.96752,0
4190,-0.612777,0.386586,0.967726,0
4210,-0.611837,0.386232,0.968106,0
4230,-0.611874,0.386235,0.968142,0
4250,-0.61173,0.385581,0.968138,0
4270,-0.611546,0.384969,0.968262,0
4290,-0.611501,0.384422,0.968385,0
4310,-0.611314,0.384464,0.968366,0
4330,-0.611351,0.384467,0.968402,0
4350,-0.611497,0.383832,0.968378,0
4370,-0.611545,0.383727,0.968399,0
4390,-0.611272,0.383627,0.968883,0
4410,-0.610479,0.383319,0.969576,0
4430,-0.609598,0.383158,0.970377,0
4450,-0.609322,0.383103,0.971027,0
4470,-0.609461,0.383167,0.971025,0
4490,-0.607855,0.382966,0.971717,0
4510,-0.610799,0.384358,0.972374,0
4530,-0.608446,0.382335,0.972136,0
4550,-0.610536,0.38141,0.972879,0
4570,-0.610077,0.383574,0.973948,0
4590,-0.610459,0.382204,0.973957,0
4610,-0.610133,0.382091,0.975482,0
4630,-0.611255,0.38288,0.976192,0
4650,-0.612365,0.382507,0.976573,0
4670,-0.612484,0.383125,0.977175,0
4690,-0.612358,0.38339,0.978061,0
4710,-0.612277,0.383203,0.9784,0
4730,-0.612047,0.383015,0.97859,0
4750,-0.612424,0.382616,0.978542,0
4770,-0.611956,0.381665,0.978598,0
4790,-0.612026,0.381118,0.978834,0
4800,-0.611645,0.3807,0.979119,0
4820,-0.610607,0.380326,0.9797,0
4820,-0.609145,0.37982,0.980135,0
4840,-0.608397,0.379466,0.980698,0
4860,-0.60798,0.379045,0.980947,0
4880,-0.607404,0.378686,0.980896,0
4900,-0.605984,0.378137,0.981201,0
4920,-0.605425,0.378331,0.981791,0
4940,-0.604948,0.378667,0.981878,0
4960,-0.604254,0.378162,0.982295,0
4980,-0.60361,0.377869,0.98282,0
5000,-0.603531,0.377409,0.983237,0
5020,-0.603693,0.377031,0.983449,0
5040,-0.603622,0.376598,0.984348,0
5060,-0.603603,0.376288,0.985023,0
5080,-0.603775,0.376165,0.985474,0
5100,-0.603931,0.376194,0.986105,0
5120,-0.60424,0.376408,0.986476,0
5140,-0.604476,0.376307,0.986682,0
5160,-0.604476,0.376307,0.986682,0
5180,-0.603782,0.376391,0.987108,0
5200,-0.603525,0.37627,0.987911,0
5220,-0.603872,0.376442,0.988152,0
5240,-0.60401,0.376507,0.988151,0
5260,-0.60412,0.37628,0.988509,0
5280,-0.604171,0.376175,0.988529,0
5300,-0.604192,0.376095,0.988997,0
5320,-0.60433,0.37616,0.988996,0
5340,-0.60433,0.37616,0.988996,0
5360,-0.604166,0.375803,0.989357,0
5380,-0.604303,0.375868,0.989356,0
5400,-0.604303,0.375868,0.989356,0
5420,-0.604893,0.375578,0.98955,0
5440,-0.605384,0.375181,0.989616,0
5460,-0.605204,0.375249,0.990079,0
5480,-0.605202,0.375294,0.990245,0
5500,-0.605317,0.374977,0.990272,0
5520,-0.605455,0.375042,0.990271,0
5540,-0.605619,0.374666,0.990484,0
5560,-0.605756,0.374731,0.990483,0
5580,-0.605756,0.374731,0.990483,0
5600,-0.605471,0.374391,0.990413,0
5620,-0.605233,0.374263,0.990451,0
5640,-0.604481,0.374196,0.990617,0
5660,-0.60443,0.3743,0.990596,0
5680,-0.60443,0.3743,0.990596,0
5700,-0.604231,0.37413,0.990504,0
5720,-0.603908,0.373833,0.990564,0
5740,-0.603771,0.373769,0.990565,0
5760,-0.603908,0.373833,0.990564,0
5780,-0.603857,0.373938,0.990543,0
5800,-0.604089,0.373494,0.990179,0
5820,-0.603667,0.37309,0.99011,0
5840,-0.603667,0.37309,0.99011,0
5860,-0.603893,0.373007,0.989999,0
5880,-0.603756,0.372943,0.99,0
5900,-0.603756,0.372943,0.99,0
5920,-0.603893,0.373007,0.989999,0
5940,-0.603842,0.373112,0.989978,0
5960,-0.603842,0.373112,0.989978,0
5980,-0.603912,0.373244,0.990555,0
6000,-0.604209,0.373522,0.990776,0
6020,-0.604296,0.373691,0.990754,0
6040,-0.604296,0.373691,0.990754,0
6060,-0.604397,0.373482,0.990796,0
6080,-0.604225,0.373143,0.99084,0
6100,-0.604288,0.372748,0.991256,0
6120,-0.604374,0.372918,0.991234,0
6140,-0.604374,0.372918,0.991234,0
6160,-0.604374,0.372918,0.991234,0
6180,-0.604811,0.372943,0.991367,0
6200,-0.605161,0.372844,0.991688,0
6220,-0.605223,0.372722,0.992027,0
6240,-0.603309,0.372454,0.994093,0
6260,-0.605902,0.374012,0.993858,0
6280,-0.605003,0.373025,0.994859,0
6300,-0.606417,0.372941,0.995469,0
6320,-0.605564,0.373036,0.995426,0
6340,-0.606432,0.372834,0.995455,0
6360,-0.605598,0.372051,0.995799,0
6380,-0.605712,0.371825,0.996158,0
6400,-0.605877,0.371495,0.996539,0
6420,-0.606192,0.371168,0.997071,0
6440,-0.605941,0.371004,0.997709,0
6460,-0.605495,0.370397,0.998332,0
6470,-0.605451,0.369815,0.999055,0
6490,-0.606652,0.369846,1.00026,0
6510,-0.607799,0.369365,1.00096,0
6530,-0.608561,0.368752,1.00154,0
6550,-0.609129,0.368495,1.00219,0
6570,-0.609311,0.368106,1.00273,0
6590,-0.609402,0.367909,1.00354,0
6610,-0.609338,0.36718,1.00404,0
6630,-0.608644,0.366687,1.00414,0
6650,-0.608073,0.36632,1.00408,0
6670,-0.607078,0.365818,1.00387,0
6690,-0.606185,0.365242,1.00421,0
6710,-0.606176,0.365163,1.00464,0
6730,-0.606732,0.364968,1.00514,0
6750,-0.606609,0.364887,1.00546,0
6770,-0.606121,0.364911,1.00622,0
6790,-0.606743,0.365219,1.00647,0
6810,-0.606743,0.365219,1.00647,0
6830,-0.606728,0.365279,1.00631,0
6850,-0.60665,0.364793,1.00625,0
6870,-0.606466,0.36456,1.00631,0
6890,-0.606466,0.36456,1.00631,0
6910,-0.606087,0.364726,1.0066,0
6930,-0.606087,0.364726,1.0066,0
6950,-0.605852,0.364597,1.00663,0
6970,-0.605852,0.364597,1.00663,0
6990,-0.606547,0.364379,1.0068,0
7010,-0.607169,0.364642,1.00688,0
7030,-0.60756,0.364549,1.00724,0
7050,-0.60756,0.364549,1.00724,0
7070,-0.607443,0.364151,1.00747,0
7090,-0.607882,0.364181,1.00761,0
7110,-0.608478,0.3639,1.00782,0
7130,-0.609092,0.363908,1.00766,0
7150,-0.607007,0.36381,1.00616,0
7170,-0.606039,0.36173,1.01032,0
7190,-0.609954,0.366159,1.00809,0
7210,-0.606619,0.364515,1.01033,0
7230,-0.607964,0.366922,1.01068,0
7250,-0.605908,0.367623,1.01226,0
7270,-0.608346,0.366797,1.01165,0
7290,-0.607686,0.366575,1.0117,0
7310,-0.607595,0.366722,1.01181,0
7330,-0.607026,0.366971,1.01224,0
7350,-0.606695,0.367878,1.01281,0
7370,-0.606695,0.367878,1.01281,0
7390,-0.607065,0.367501,1.01244,0
7410,-0.607026,0.366971,1.01224,0
7430,-0.607026,0.366971,1.01224,0
7450,-0.606816,0.366724,1.0115,0
7470,-0.606198,0.365569,1.011,0
7490,-0.606217,0.364664,1.0109,0
7510,-0.606316,0.364728,1.01087,0
7530,-0.606713,0.365514,1.01087,0
7550,-0.606109,0.366334,1.01161,0
7570,-0.60699,0.366746,1.01136,0
7590,-0.607674,0.366323,1.01037,0
7610,-0.607421,0.365681,1.00992,0
7630,-0.607285,0.365615,1.00992,0
7650,-0.607195,0.365718,1.00987,0
7670,-0.607011,0.365528,1.01009,0
7690,-0.607791,0.365482,1.01023,0
7710,-0.606156,0.365352,1.01198,0
7730,-0.607363,0.365971,1.01244,0
7750,-0.606472,0.365346,1.01261,0
7770,-0.60873,0.364816,1.01222,0
7790,-0.608198,0.364358,1.01186,0
7810,-0.607807,0.363345,1.0121,0
7830,-0.607345,0.363341,1.01241,0
7850,-0.607549,0.363198,1.01242,0
7870,-0.607753,0.3631,1.0126,0
7890,-0.608198,0.362904,1.01298,0
7910,-0.608047,0.362505,1.01318,0
7930,-0.608213,0.362495,1.01365,0
7950,-0.607697,0.36229,1.01462,0
7970,-0.608523,0.362154,1.01557,0
7990,-0.609075,0.361708,1.01583,0
8010,-0.609006,0.36095,1.01584,0
8030,-0.60918,0.360624,1.01623,0
8050,-0.609121,0.360652,1.01665,0
8070,-0.609509,0.36053,1.01762,0
8090,-0.609958,0.359943,1.01835,0
8110,-0.610809,0.359738,1.01868,0
8130,-0.610341,0.359218,1.0196,0
8150,-0.610459,0.358966,1.02057,0
8170,-0.610454,0.358936,1.02118,0
8190,-0.610454,0.358936,1.02118,0
8210,-0.610401,0.359039,1.02116,0
8230,-0.610643,0.358898,1.0212,0
8250,-0.610676,0.358869,1.02184,0
8270,-0.610553,0.358713,1.02261,0
8290,-0.61061,0.358926,1.02381,0
8310,-0.610529,0.35847,1.0253,0
8330,-0.611215,0.358035,1.02678,0
8330,-0.611994,0.357454,1.02815,0
8350,-0.612722,0.356961,1.02873,0
8370,-0.612855,0.356352,1.02945,0
8370,-0.612673,0.356177,1.03045,0
8390,-0.612473,0.355944,1.03157,0
8410,-0.613076,0.355645,1.0324,0
8430,-0.612624,0.355896,1.03295,0
8440,-0.612542,0.356346,1.03347,0
8450,-0.612677,0.356412,1.03347,0
8470,-0.612758,0.356581,1.03345,0
8490,-0.612352,0.356471,1.03378,0
8510,-0.612352,0.356471,1.03378,0
8510,-0.612666,0.356745,1.03433,0
8530,-0.612024,0.357076,1.03503,0
8550,-0.610923,0.357427,1.03543,0
8570,-0.609394,0.356789,1.03433,0
8570,-0.608487,0.356456,1.0327,0
8590,-0.607365,0.356537,1.03098,0
8610,-0.606387,0.356384,1.02995,0
8630,-0.604524,0.358693,1.0316,0
8650,-0.603283,0.358414,1.03461,0
8690,-0.60425,0.363252,1.03432,0
8710,-0.601072,0.352059,1.03905,0
8760,-0.598867,0.334958,1.04109,0
8810,-0.599507,0.323673,1.03865,0
8850,-0.602331,0.322053,1.0375,0
8870,-0.601378,0.323294,1.03738,0
8890,-0.60142,0.323463,1.03732,0
8910,-0.601441,0.323733,1.03728,0
8930,-0.601261,0.324681,1.03814,0
8950,-0.601177,0.325696,1.03898,0
8970,-0.601546,0.326763,1.03968,0
8990,-0.602145,0.327964,1.04035,0
9010,-0.602456,0.329049,1.0407,0
9030,-0.602717,0.329752,1.04102,0
9050,-0.602999,0.330354,1.04134,0
9070,-0.60285,0.331216,1.04192,0
9090,-0.602987,0.33211,1.04249,0
9110,-0.603214,0.332858,1.04295,0
9120,-0.603817,0.333447,1.04313,0
9140,-0.604519,0.334191,1.0436,0
9160,-0.604561,0.33436,1.04355,0
9180,-0.604583,0.334631,1.0435,0
9200,-0.604733,0.335211,1.04399,0
9220,-0.604672,0.335885,1.04429,0
9240,-0.604943,0.33689,1.04503,0
9260,-0.605555,0.338024,1.04508,0
9280,-0.60573,0.33826,1.04503,0
9300,-0.605772,0.33843,1.04497,0
9320,-0.605662,0.338678,1.04509,0
9340,-0.605704,0.338847,1.04503,0
9360,-0.605782,0.339016,1.04501,0
9380,-0.605748,0.339346,1.04477,0
9400,-0.605349,0.339519,1.04474,0
9420,-0.605051,0.340132,1.04463,0
9440,-0.605339,0.340406,1.04409,0
9460,-0.605684,0.340906,1.04336,0
9480,-0.604566,0.341223,1.04326,0
9500,-0.604455,0.341471,1.04338,0
9520,-0.604533,0.34164,1.04336,0
9540,-0.604442,0.341743,1.04331,0
9560,-0.604332,0.341991,1.04343,0
9580,-0.604537,0.342469,1.04394,0
9600,-0.604532,0.343042,1.04427,0
9620,-0.604351,0.343379,1.04465,0
9640,-0.604248,0.343884,1.04502,0
9660,-0.604102,0.344176,1.04527,0
9680,-0.604054,0.344536,1.04549,0
9700,-0.603866,0.344615,1.04564,0
9720,-0.603775,0.344762,1.04575,0
9740,-0.603551,0.344885,1.04602,0
9760,-0.603593,0.345055,1.04597,0
9780,-0.603825,0.345232,1.0461,0
9800,-0.603813,0.345591,1.04636,0
9820,-0.60382,0.345849,1.0466,0
9840,-0.603596,0.345972,1.04688,0
9860,-0.603182,0.346131,1.04713,0
9880,-0.599884,0.344581,1.05057,0
9900,-0.603379,0.347572,1.04979,0
9920,-0.600964,0.346331,1.05114,0
9940,-0.602365,0.346866,1.05102,0
9960,-0.601316,0.348795,1.05199,0
9980,-0.602401,0.348483,1.05204,0
10000,-0.602043,0.348582,1.05249,0
10020,-0.601813,0.349564,1.05274,0
10040,-0.601568,0.349745,1.05286,0
10060,-0.601512,0.349848,1.05284,0
10080,-0.60159,0.350017,1.05282,0
10100,-0.602147,0.350427,1.05227,0
10120,-0.602091,0.350529,1.05225,0
10140,-0.601999,0.350632,1.05219,0
10160,-0.60275,0.350977,1.05228,0
10180,-0.60327,0.351188,1.05241,0
10200,-0.604217,0.351713,1.0526,0
10220,-0.605299,0.352306,1.05279,0
10240,-0.605862,0.352732,1.05303,0
10260,-0.606487,0.35327,1.05336,0
10280,-0.60707,0.353682,1.05392,0
10300,-0.607863,0.353914,1.05433,0
10320,-0.608313,0.35426,1.05489,0
10340,-0.608572,0.35464,1.05543,0
10360,-0.609001,0.354956,1.0555,0
10380,-0.609598,0.354965,1.05563,0
10400,-0.610139,0.355121,1.05592,0
10420,-0.611309,0.355267,1.05558,0
10440,-0.612424,0.355515,1.05523,0
10460,-0.613037,0.355537,1.05507,0
10480,-0.613805,0.35557,1.05508,0
10500,-0.614343,0.355706,1.05458,0
10520,-0.61487,0.355299,1.0542,0
10540,-0.615271,0.355128,1.05423,0
10560,-0.616062,0.355387,1.05402,0
10580,-0.616197,0.355455,1.05402,0
10600,-0.616371,0.355409,1.05434,0
10620,-0.616366,0.355986,1.05467,0
10640,-0.616246,0.356483,1.05534,0
10660,-0.615929,0.356844,1.05606,0
10680,-0.615631,0.357103,1.05678,0
10700,-0.615681,0.357578,1.05714,0
10720,-0.615421,0.358031,1.05718,0
10740,-0.612291,0.358663,1.05534,0
10760,-0.609621,0.356995,1.05709,0
10780,-0.611664,0.359528,1.05733,0
10800,-0.609307,0.35955,1.05809,0
10820,-0.609338,0.35898,1.05886,0
10840,-0.607743,0.360685,1.06001,0
10860,-0.607856,0.361646,1.06044,0
10880,-0.607058,0.361961,1.061,0
10900,-0.605839,0.362502,1.06136,0
10920,-0.605012,0.362285,1.06171,0
10940,-0.604836,0.362002,1.0616,0
10960,-0.604357,0.362091,1.06193,0
10980,-0.604264,0.362193,1.06187,0
11000,-0.604074,0.362271,1.06202,0
11020,-0.604536,0.362302,1.06249,0
11040,-0.604844,0.362323,1.0628,0
11060,-0.605177,0.362545,1.06353,0
11080,-0.605765,0.363221,1.06434,0
11100,-0.60593,0.363751,1.065,0
11120,-0.606435,0.363954,1.06542,0
11140,-0.606435,0.363954,1.06542,0
11160,-0.607029,0.363991,1.06493,0
11180,-0.606973,0.364138,1.06508,0
11200,-0.606623,0.363946,1.06482,0
11220,-0.606245,0.363133,1.06401,0
11240,-0.605634,0.362318,1.06375,0
11260,-0.60517,0.362,1.06365,0
11280,-0.605304,0.362069,1.06365,0
11300,-0.605458,0.362035,1.06363,0
11320,-0.605797,0.361752,1.06356,0
11340,-0.605705,0.361854,1.06351,0
11360,-0.605839,0.361923,1.06351,0
11380,-0.605839,0.361923,1.06351,0
11400,-0.605999,0.362193,1.06392,0
11420,-0.606674,0.362419,1.0642,0
11440,-0.606947,0.362485,1.06465,0
11460,-0.607488,0.362599,1.06476,0
11480,-0.607869,0.362487,1.06464,0
11500,-0.608018,0.362238,1.06455,0
11520,-0.60811,0.362047,1.06426,0
11540,-0.60797,0.361764,1.06418,0
11560,-0.607449,0.361548,1.06406,0
11580,-0.607449,0.361548,1.06406,0
11600,-0.607449,0.361548,1.06406,0
11620,-0.607393,0.36165,1.06404,0
11640,-0.607491,0.361718,1.064,0
11660,-0.607491,0.361718,1.064,0
11680,-0.607166,0.361728,1.06415,0
11700,-0.607166,0.361773,1.06432,0
11720,-0.606995,0.361794,1.06462,0
11740,-0.60713,0.361862,1.06462,0
11760,-0.606819,0.361599,1.06485,0
11770,-0.606761,0.361372,1.06502,0
11790,-0.606703,0.361233,1.06554,0
11810,-0.607052,0.361096,1.066,0
11830,-0.60713,0.361266,1.06598,0
11850,-0.607036,0.361172,1.06664,0
11870,-0.60718,0.361475,1.06751,0
11890,-0.607649,0.361768,1.06823,0
11910,-0.607865,0.361697,1.0692,0
11930,-0.608179,0.361695,1.07014,0
11950,-0.608746,0.362059,1.07083,0
11970,-0.608752,0.362079,1.07162,0
11990,-0.609174,0.361571,1.07218,0
12010,-0.609433,0.362001,1.0729,0
12030,-0.610192,0.362334,1.07362,0
12050,-0.610951,0.362578,1.074,0
12070,-0.611499,0.363001,1.07453,0
12090,-0.612141,0.363323,1.07512,0
12110,-0.612539,0.363996,1.07575,0
12130,-0.612958,0.364941,1.07634,0
12150,-0.613987,0.365609,1.07635,0
12170,-0.614122,0.365678,1.07635,0
12190,-0.613936,0.366017,1.07675,0
12210,-0.613372,0.366772,1.07769,0
12230,-0.613692,0.367604,1.07815,0
12250,-0.614261,0.368257,1.07847,0
12270,-0.61523,0.368767,1.0782,0
12290,-0.615805,0.368579,1.07793,0
12310,-0.616567,0.368053,1.07726,0
12330,-0.616873,0.368055,1.07678,0
12350,-0.617101,0.367931,1.0765,0
12370,-0.617101,0.367931,1.0765,0
12390,-0.617236,0.368,1.0765,0
12390,-0.616968,0.368473,1.07592,0
12410,-0.616382,0.368092,1.07552,0
12430,-0.616304,0.367921,1.07554,0
12470,-0.614361,0.370048,1.07558,0
12490,-0.612667,0.373621,1.07401,0
12510,-0.614068,0.374518,1.07336,0
12530,-0.614907,0.375025,1.07406,0
12550,-0.614889,0.375014,1.07435,0
12570,-0.615171,0.374551,1.07463,0
12590,-0.61536,0.374235,1.07502,0
12610,-0.617138,0.374127,1.07519,0
12630,-0.617342,0.374552,1.07617,0
12650,-0.614683,0.37372,1.07653,0
12670,-0.61269,0.371917,1.07628,0
12690,-0.611651,0.370375,1.07659,0
12710,-0.610885,0.369255,1.07653,0
12730,-0.608505,0.368189,1.07692,0
12750,-0.607331,0.367986,1.07709,0
12770,-0.60776,0.368397,1.0775,0
12790,-0.608352,0.369537,1.07787,0
12800,-0.609643,0.370899,1.07885,0
12820,-0.610496,0.372452,1.08056,0
12840,-0.610062,0.374946,1.08163,0
12860,-0.609802,0.377614,1.08169,0
12880,-0.608629,0.380068,1.08138,0
12900,-0.606234,0.381465,1.08091,0
12920,-0.604384,0.381712,1.07978,0
12940,-0.602562,0.380779,1.07858,0
12960,-0.602291,0.37902,1.0772,0
12980,-0.603614,0.376954,1.07621,0
13000,-0.606033,0.37483,1.07473,0
13020,-0.607886,0.372404,1.07353,0
13040,-0.608458,0.369358,1.07195,0
13060,-0.606274,0.367054,1.07179,0
13080,-0.609515,0.365763,1.06942,0
13100,-0.607424,0.362416,1.0676,0
13120,-0.605865,0.36102,1.06697,0
13140,-0.605492,0.361961,1.06661,0
13160,-0.606123,0.363094,1.067,0
13180,-0.604757,0.3639,1.06825,0
13200,-0.603406,0.364628,1.06887,0
13220,-0.60237,0.364543,1.06921,0
13240,-0.601262,0.363408,1.06881,0
13260,-0.600633,0.36199,1.06878,0
13280,-0.600283,0.360419,1.06804,0
13300,-0.600499,0.358072,1.06699,0
13320,-0.601483,0.35484,1.065,0
13340,-0.60222,0.351242,1.0622,0
13360,-0.604579,0.34653,1.05867,0
13380,-0.605882,0.339276,1.05423,0
13400,-0.601814,0.329614,1.04799,0
13420,-0.594626,0.319259,1.03815,0
13440,-0.592857,0.307405,1.02853,0
13460,-0.596254,0.291817,1.02031,0
13480,-0.605473,0.270579,1.01199,0
13500,-0.654925,0.240079,0.988967,0
13520,-0.691881,0.225509,0.983566,0
13540,-0.715703,0.20187,0.976239,0
13560,-0.721031,0.172763,0.966997,0
13580,-0.720641,0.146084,0.961039,0
13600,-0.721987,0.116635,0.954438,0
13620,-0.729486,0.086413,0.949841,0
13640,-0.741339,0.057184,0.946992,0
13660,-0.755786,0.0283592,0.945418,0
13680,-0.768968,0.00125328,0.946681,0
13700,-0.781284,-0.0248928,0.948964,0
13720,-0.793756,-0.0507255,0.952428,0
13740,-0.803711,-0.0755342,0.958891,0
13760,-0.813748,-0.0990748,0.966558,0
13780,-0.824985,-0.121505,0.97372,0
13800,-0.837657,-0.142207,0.980923,0
13820,-0.850436,-0.161608,0.989902,0
13840,-0.860944,-0.179778,1.00047,0
13860,-0.86968,-0.196599,1.00902,0
13880,-0.877533,-0.210363,1.01654,0
13900,-0.886938,-0.221167,1.02479,0
13900,-0.896536,-0.231498,1.03227,0
13920,-0.903613,-0.240442,1.03898,0
13940,-0.908507,-0.248664,1.0441,0
13960,-0.91679,-0.257253,1.0539,0
13980,-0.925338,-0.265099,1.06247,0
14000,-0.929221,-0.261509,1.06283,0
14020,-0.933807,-0.245096,1.06388,0
14040,-0.936934,-0.24416,1.06771,0
14070,-0.939841,-0.260755,1.07327,0
14090,-0.941738,-0.284293,1.07831,0
14110,-0.939605,-0.305262,1.08134,0
14120,-0.938414,-0.302093,1.08439,0
14130,-0.945082,-0.279367,1.08884,0
14150,-0.94171,-0.293226,1.08989,0
14170,-0.95212,-0.270557,1.0932,0
14190,-0.952994,-0.275579,1.09414,0
14200,-0.955691,-0.281505,1.09468,0
14220,-0.965524,-0.266316,1.09704,0
14240,-0.975395,-0.24932,1.09989,0
14260,-0.980403,-0.240815,1.10069,0
14280,-0.982607,-0.237129,1.10043,0
14300,-0.985625,-0.233526,1.10009,0
14310,-0.991566,-0.226205,1.1004,0
14360,-1.00298,-0.202793,1.10492,0
14380,-1.01651,-0.190605,1.10888,0
14400,-1.01838,-0.192679,1.11011,0
14420,-1.003,-0.201069,1.10836,0
14460,-1.00092,-0.202671,1.11257,0
14480,-1.01753,-0.190202,1.11787,0
14500,-0.999508,-0.202304,1.11509,0
14520,-1.02325,-0.189561,1.12059,0
14540,-1.00263,-0.195335,1.11742,0
14560,-1.01134,-0.196641,1.12081,0
14580,-1.02446,-0.184117,1.12461,0
14600,-1.0006,-0.189205,1.11949,0
14620,-0.993267,-0.198884,1.11728,0
14620,-1.01582,-0.195513,1.12176,0
14640,-1.0369,-0.182691,1.12576,0
14660,-1.02778,-0.175695,1.12355,0
14680,-1.00062,-0.183875,1.11685,0
14700,-0.989666,-0.195578,1.11351,0
14720,-1.00788,-0.19536,1.11696,0
14740,-1.03129,-0.183979,1.12201,0
14760,-1.03,-0.175796,1.12103,0
14770,-1.00625,-0.179471,1.11617,0
14800,-0.985507,-0.19124,1.11148,0
14810,-0.99104,-0.197462,1.11344,0
14830,-0.989289,-0.185043,1.11232,0
14850,-0.986683,-0.183933,1.10966,0
14870,-0.986758,-0.185237,1.11012,0
14890,-0.986401,-0.186515,1.11071,0
14910,-0.985659,-0.187139,1.11139,0
14930,-0.985906,-0.187862,1.11239,0
14950,-0.980441,-0.182104,1.10858,0
14970,-0.971973,-0.187073,1.10748,0
14990,-0.991652,-0.173873,1.11289,0
15010,-0.975153,-0.174254,1.11003,0
15030,-0.951184,-0.184135,1.10486,0
15050,-0.946084,-0.194557,1.10358,0
15070,-0.963961,-0.1957,1.10705,0
15090,-0.989991,-0.186128,1.11229,0
15110,-1.00367,-0.173925,1.11486,0
15130,-0.991494,-0.169612,1.11148,0
15150,-0.990439,-0.153695,1.10987,0
15170,-0.993451,-0.148695,1.11428,0
15190,-0.994603,-0.148757,1.11463,0
15210,-0.994938,-0.149633,1.11526,0
15230,-0.995281,-0.150212,1.11638,0
15250,-0.996394,-0.150579,1.11736,0
15270,-0.997309,-0.150969,1.11779,0
15290,-0.997189,-0.150264,1.11862,0
15310,-0.997195,-0.150561,1.11975,0
15330,-0.996939,-0.151723,1.12001,0
15350,-0.995959,-0.151953,1.12038,0
15370,-0.996193,-0.152132,1.12106,0
15390,-0.996321,-0.152429,1.12129,0
15410,-0.996789,-0.152306,1.12108,0
15430,-0.996501,-0.152561,1.12112,0
15450,-0.995009,-0.153008,1.12109,0
15470,-0.993434,-0.152824,1.12066,0
15490,-0.993578,-0.152752,1.12035,0
15510,-0.993991,-0.153172,1.12029,0
15530,-0.993511,-0.153399,1.1207,0
15550,-0.992295,-0.154314,1.12137,0
15570,-0.990605,-0.15565,1.12177,0
15590,-0.990349,-0.15627,1.12251,0
15610,-0.992003,-0.15754,1.12375,0
15630,-0.992154,-0.158875,1.12394,0
15650,-0.991132,-0.159469,1.12402,0
15670,-0.990764,-0.160662,1.12472,0
15690,-0.989954,-0.162129,1.12507,0
15710,-0.988787,-0.163253,1.12588,0
15730,-0.988374,-0.164887,1.12697,0
15750,-0.989,-0.166174,1.12797,0
15770,-0.990543,-0.166496,1.12927,0
15790,-0.991409,-0.16707,1.13044,0
15810,-0.991673,-0.16766,1.13169,0
15830,-0.991535,-0.168728,1.13273,1000
15850,-0.991411,-0.169777,1.13345,0
15870,-0.991014,-0.170147,1.13382,0
15890,-0.992012,-0.169755,1.13417,0
15910,-0.993064,-0.169269,1.13513,0
15930,-0.99242,-0.168807,1.13588,0
15950,-0.991947,-0.167847,1.13705,0
15970,-0.992355,-0.167631,1.13838,0
15990,-0.993078,-0.16784,1.13977,0
16010,-0.993614,-0.167945,1.14086,0
16030,-0.993835,-0.16835,1.1423,0
16050,-0.993253,-0.168989,1.14293,0
16070,-0.993351,-0.169167,1.1429,0
16090,-0.994912,-0.168924,1.14278,0
16110,-0.99613,-0.168488,1.14255,0
16130,-0.9956,-0.168646,1.14258,0
16150,-0.994025,-0.168825,1.14314,0
16170,-0.992966,-0.16943,1.14386,0
16190,-0.992939,-0.169662,1.14382,0
16210,-0.993208,-0.169716,1.14397,0
16230,-0.99425,-0.170536,1.14552,0
16240,-0.993322,-0.172107,1.14653,0
16260,-0.992358,-0.173084,1.14652,0
16280,-0.992624,-0.173326,1.14677,0
16300,-0.99355,-0.173897,1.14653,0
16320,-0.995253,-0.17468,1.14626,0
16340,-0.995065,-0.174661,1.14585,0
16360,-0.993618,-0.174228,1.14579,0
16380,-0.992822,-0.174062,1.14568,0
16400,-0.992908,-0.174176,1.1461,0
16420,-0.993196,-0.175225,1.147,0
16440,-0.99265,-0.176073,1.14741,0
16460,-0.992438,-0.175926,1.14789,0
16480,-0.992628,-0.176593,1.14803,0
16500,-0.991401,-0.177158,1.1488,0
16520,-0.990369,-0.177555,1.14989,0
16540,-0.990477,-0.178499,1.15129,0
16560,-0.991543,-0.178735,1.15268,0
16580,-0.991458,-0.178533,1.15317,0
16600,-0.991758,-0.178539,1.15426,0
16620,-0.991082,-0.178734,1.15538,0
16640,-0.990433,-0.178782,1.15642,0
16660,-0.990519,-0.179208,1.15704,0
16680,-0.989958,-0.179541,1.15747,0
16700,-0.990033,-0.179678,1.15742,0
16720,-0.990109,-0.179816,1.15737,0
16740,-0.990169,-0.179771,1.15687,0
16760,-0.989543,-0.179756,1.15693,0
16780,-0.988851,-0.180165,1.15767,0
16800,-0.989168,-0.180693,1.15795,0
16820,-0.989484,-0.181137,1.15835,0
16840,-0.990654,-0.18153,1.15859,0
16860,-0.991747,-0.180947,1.15905,0
16880,-0.992337,-0.180963,1.15963,0
16900,-0.993264,-0.180964,1.15955,0
16920,-0.994443,-0.181061,1.15948,0
16940,-0.995691,-0.181111,1.15971,0
16960,-0.99644,-0.181381,1.15988,0
16980,-0.99644,-0.181381,1.15988,0
17000,-0.995321,-0.180692,1.15948,0
17020,-0.995752,-0.18004,1.15928,0
17040,-0.996205,-0.180303,1.15915,0
17060,-0.995777,-0.179807,1.15932,0
17080,-0.994944,-0.179335,1.15965,0
17100,-0.995057,-0.178635,1.15913,0
17120,-0.996713,-0.178472,1.15911,0
17140,-0.997488,-0.178115,1.15923,0
17160,-0.996834,-0.177769,1.15939,0
17180,-0.996133,-0.177701,1.15937,0
17200,-0.995645,-0.178086,1.15987,0
17220,-0.995253,-0.178481,1.16058,0
17240,-0.994912,-0.179163,1.16132,0
17260,-0.994569,-0.179282,1.16221,0
17280,-0.994871,-0.179202,1.16342,0
17300,-0.995298,-0.179461,1.16473,0
17320,-0.996597,-0.180036,1.16644,0
17340,-0.99688,-0.180667,1.16758,0
17360,-0.996566,-0.181306,1.16846,0
17380,-0.996332,-0.182168,1.16918,0
17400,-0.996401,-0.183599,1.17005,0
17420,-0.996285,-0.184173,1.17147,0
17440,-0.996099,-0.185088,1.17291,0
17460,-0.995836,-0.185972,1.1746,0
17480,-0.995947,-0.18581,1.17585,0
17500,-0.997157,-0.185723,1.17763,0
17520,-0.998821,-0.185912,1.17962,0
17540,-0.998609,-0.185914,1.18098,0
17560,-0.997677,-0.186313,1.18261,0
17580,-0.996948,-0.187177,1.18441,0
17600,-0.996681,-0.188086,1.18564,0
17620,-0.995738,-0.189064,1.18676,0
17640,-0.993805,-0.190396,1.18798,0
17660,-0.99123,-0.191938,1.18888,0
17680,-0.989641,-0.193824,1.19073,0
17700,-0.989074,-0.196214,1.19367,0
17720,-0.989269,-0.198514,1.19738,0
17740,-0.988815,-0.201007,1.20108,0
17760,-0.98815,-0.203697,1.20399,0
17780,-0.988108,-0.20648,1.20739,0
17800,-0.989035,-0.20914,1.21132,0
17820,-0.988774,-0.212819,1.21486,0
17840,-0.98772,-0.216877,1.21823,0
17860,-0.986751,-0.220429,1.22183,0
17880,-0.986223,-0.223911,1.22609,0
17900,-0.985794,-0.227422,1.2301,0
17920,-0.985608,-0.231132,1.23499,0
17940,-0.985244,-0.234661,1.23971,0
17960,-0.984949,-0.238514,1.24367,0
17980,-0.983909,-0.242154,1.24713,0
18000,-0.982014,-0.244971,1.25002,0
18020,-0.980379,-0.248365,1.25256,0
18040,-0.977293,-0.252017,1.2547,0
18060,-0.973204,-0.25612,1.25744,0
18080,-0.97042,-0.261002,1.26094,0
18100,-0.968469,-0.265686,1.26406,0
18120,-0.967917,-0.268713,1.26788,0
18140,-0.967248,-0.272642,1.27235,0
18160,-0.965053,-0.277175,1.27675,0
18180,-0.963036,-0.281955,1.28072,0
18200,-0.961007,-0.286971,1.28399,0
18220,-0.95929,-0.291675,1.28726,0
18240,-0.95779,-0.296631,1.29027,0
18260,-0.955611,-0.302378,1.2939,0
18280,-0.95216,-0.309188,1.29719,0
18300,-0.949257,-0.315666,1.30137,0
18320,-0.94697,-0.322097,1.30517,0
18340,-0.945456,-0.328492,1.31017,0
18360,-0.943909,-0.335884,1.31594,0
18380,-0.941583,-0.343132,1.32221,0
18400,-0.940367,-0.350579,1.32868,0
18420,-0.940189,-0.358571,1.33426,0
18440,-0.940891,-0.366345,1.34052,0
18460,-0.940897,-0.374382,1.34709,0
18480,-0.939879,-0.383097,1.35284,0
18500,-0.938922,-0.39061,1.3573,0
18520,-0.937719,-0.397575,1.36157,0
18540,-0.936262,-0.405723,1.3671,0
18560,-0.934121,-0.415258,1.37299,0
18580,-0.931736,-0.425012,1.37804,0
18600,-0.929312,-0.433943,1.38188,0
18620,-0.928415,-0.442884,1.38617,0
18640,-0.927818,-0.452638,1.39095,0
18660,-0.926384,-0.463163,1.39559,0
18680,-0.924479,-0.473308,1.39958,0
18700,-0.922818,-0.482295,1.40262,0
18720,-0.921547,-0.489886,1.40521,0
18740,-0.920268,-0.496974,1.40868,0
18760,-0.918616,-0.505551,1.41217,0
18780,-0.91588,-0.513988,1.41427,0
18800,-0.913429,-0.520599,1.41568,0
18820,-0.910924,-0.525957,1.41711,0
18840,-0.908173,-0.532826,1.41919,0
18860,-0.903274,-0.540563,1.42084,0
18880,-0.898085,-0.548562,1.42194,0
18900,-0.892972,-0.555609,1.42232,0
18920,-0.888854,-0.561931,1.42318,0
18940,-0.884329,-0.568835,1.42384,0
18960,-0.877713,-0.576846,1.42387,0
18980,-0.871179,-0.585542,1.42477,0
19000,-0.865457,-0.593656,1.42575,0
19020,-0.859031,-0.601723,1.42561,0
19040,-0.852597,-0.610119,1.4257,0
19060,-0.847493,-0.6194,1.42698,0
19080,-0.842578,-0.628956,1.42739,0
19100,-0.837472,-0.637284,1.42676,0
19120,-0.831729,-0.646182,1.42522,0
19140,-0.82671,-0.654436,1.42328,0
19160,-0.822401,-0.662081,1.41992,0
19180,-0.817221,-0.669764,1.41419,0
19200,-0.812615,-0.677614,1.40782,0
19220,-0.807835,-0.686449,1.40116,0
19240,-0.804133,-0.695339,1.39359,0
19260,-0.800884,-0.704433,1.38599,0
19280,-0.79681,-0.71431,1.37777,0
19300,-0.792513,-0.724841,1.36808,0
19320,-0.788073,-0.735651,1.35878,0
19340,-0.786374,-0.746331,1.35168,0
19360,-0.784792,-0.757992,1.34434,0
19380,-0.783711,-0.768124,1.33674,0
19400,-0.782195,-0.778736,1.32803,0
19420,-0.781454,-0.789335,1.32101,0
19440,-0.778925,-0.801424,1.31142,0
19460,-0.778585,-0.811458,1.30497,0
19480,-0.775145,-0.823146,1.29454,0
19500,-0.773342,-0.83267,1.28496,0
19520,-0.769863,-0.844522,1.27247,0
19540,-0.766763,-0.853677,1.26087,0
19550,-0.761458,-0.865783,1.24522,0
19570,-0.758022,-0.875187,1.23122,0
19590,-0.750399,-0.886939,1.21411,0
19610,-0.746292,-0.896345,1.20038,0
19630,-0.73999,-0.903393,1.18275,0
19650,-0.733083,-0.910902,1.16395,0
19670,-0.726319,-0.916877,1.14516,0
19690,-0.719044,-0.9224,1.12663,0
19710,-0.708349,-0.928305,1.10528,0
19730,-0.701521,-0.932222,1.08721,0
19750,-0.685815,-0.93717,1.06078,0
19770,-0.674157,-0.940482,1.03923,0
19790,-0.662607,-0.944134,1.01816,0
19810,-0.651507,-0.94607,0.997549,0
19830,-0.639785,-0.946839,0.974921,0
19850,-0.628658,-0.945477,0.952081,0
19870,-0.616874,-0.943515,0.928019,0
19890,-0.605576,-0.941872,0.904764,0
19910,-0.594477,-0.9398,0.881555,0
19930,-0.583554,-0.937008,0.858382,0
19950,-0.572839,-0.932586,0.834398,0
19970,-0.562616,-0.927371,0.810989,0
19990,-0.555781,-0.921855,0.791461,0
20010,-0.548855,-0.91553,0.770654,0
20030,-0.54268,-0.907935,0.750726,0
20050,-0.538525,-0.899191,0.734471,0
20070,-0.5313,-0.891572,0.718971,0
20090,-0.523722,-0.883278,0.70329,0
20110,-0.519317,-0.871657,0.691786,0
20130,-0.509971,-0.862413,0.679882,0
20150,-0.507091,-0.85426,0.670696,0
20170,-0.50676,-0.841983,0.661276,0
20190,-0.503095,-0.830147,0.651371,0
20210,-0.500141,-0.819131,0.643635,0
20230,-0.494544,-0.808978,0.635993,0
20250,-0.487712,-0.799081,0.627947,0
20270,-0.482771,-0.789143,0.621047,0
20290,-0.476662,-0.77837,0.613934,0
20310,-0.473833,-0.766518,0.60656,0
20330,-0.472797,-0.753888,0.601737,0
20350,-0.470973,-0.743665,0.598409,0
20370,-0.466056,-0.735067,0.594585,0
20390,-0.463202,-0.724583,0.591085,0
20410,-0.460653,-0.714438,0.589113,0
20430,-0.457485,-0.705733,0.587537,0
20450,-0.453808,-0.697779,0.584678,0
20470,-0.447811,-0.689596,0.58055,0
20490,-0.440496,-0.681512,0.576659,0
20510,-0.431814,-0.674347,0.572046,0
20530,-0.422869,-0.666863,0.56624,0
20550,-0.416332,-0.659682,0.56198,0
20570,-0.412954,-0.650956,0.560167,0
20590,-0.413447,-0.641184,0.559577,0
20610,-0.41119,-0.631509,0.559719,0
20630,-0.407474,-0.62235,0.559362,0
20650,-0.406351,-0.614798,0.560877,0
20670,-0.408056,-0.605865,0.5605,0
20690,-0.413659,-0.596204,0.56238,0
20710,-0.416895,-0.588921,0.565802,0
20730,-0.417164,-0.583601,0.571398,0
20750,-0.416306,-0.577159,0.573462,0
20770,-0.417677,-0.568793,0.575886,0
20790,-0.425585,-0.562057,0.582512,0
20810,-0.431762,-0.554922,0.587314,0
20830,-0.436867,-0.546391,0.591691,0
20850,-0.441905,-0.539182,0.595755,0
20870,-0.444287,-0.532983,0.600002,0
20890,-0.444247,-0.526512,0.603751,0
20910,-0.445003,-0.519579,0.605221,0
20930,-0.446878,-0.513568,0.606279,0
20950,-0.449048,-0.509651,0.607529,0
20970,-0.448831,-0.506469,0.611684,0
20990,-0.449723,-0.502012,0.615806,0
21010,-0.454105,-0.498017,0.621591,0
21030,-0.460535,-0.49358,0.630161,0
21050,-0.465272,-0.489719,0.637828,0
21060,-0.468499,-0.486379,0.64436,0
21090,-0.473237,-0.48291,0.650805,0
21110,-0.479514,-0.479096,0.657889,0
21130,-0.484929,-0.474949,0.665265,0
21150,-0.48827,-0.471753,0.67254,0
21170,-0.491557,-0.469376,0.680741,0
21190,-0.495378,-0.464123,0.688444,0
21210,-0.502004,-0.458048,0.696355,0
21230,-0.508849,-0.453337,0.70451,0
21250,-0.513606,-0.449831,0.710917,0
21270,-0.517532,-0.445897,0.717858,0
21290,-0.521329,-0.442531,0.725349,0
21310,-0.523746,-0.442283,0.732407,0
21330,-0.523689,-0.443311,0.738443,0
21350,-0.524259,-0.445056,0.743305,0
21370,-0.528254,-0.445863,0.74951,0
21390,-0.533399,-0.445073,0.757169,0
21410,-0.536698,-0.443998,0.763732,0
21430,-0.537825,-0.442465,0.769697,0
21450,-0.541655,-0.440854,0.777758,0
21470,-0.546852,-0.438432,0.786134,0
21490,-0.551762,-0.436868,0.795281,0
21500,-0.556681,-0.434294,0.804214,0
21520,-0.561132,-0.429738,0.813791,0
21540,-0.566879,-0.426102,0.823873,0
21560,-0.569844,-0.425186,0.833652,0
21580,-0.570989,-0.424244,0.842549,0
21600,-0.572991,-0.421695,0.850994,0
21620,-0.576596,-0.420005,0.860051,0
21640,-0.579639,-0.419336,0.868771,0
21660,-0.579953,-0.418643,0.877264,0
21680,-0.579491,-0.419056,0.8851,0
21700,-0.58024,-0.418432,0.893094,0
21720,-0.583748,-0.41596,0.901335,0
21740,-0.588312,-0.413771,0.909796,0
21760,-0.589402,-0.412661,0.917057,0
21780,-0.589271,-0.411902,0.924753,0
21800,-0.590964,-0.411947,0.933131,0
21820,-0.595563,-0.410797,0.942363,0
21840,-0.602391,-0.408868,0.954661,0
21860,-0.607877,-0.408864,0.967592,0
21880,-0.612147,-0.408039,0.979948,0
21900,-0.615502,-0.407327,0.991487,0
21920,-0.618169,-0.407791,1.00114,0
21940,-0.619454,-0.409984,1.01046,0
21960,-0.618673,-0.411586,1.01777,0
21980,-0.619482,-0.412355,1.02491,0
22000,-0.62083,-0.413042,1.03237,0
22020,-0.620498,-0.414958,1.03916,0
22040,-0.620208,-0.417882,1.04626,0
22060,-0.622073,-0.419454,1.05347,0
22080,-0.624656,-0.419632,1.06067,0
22100,-0.627551,-0.419951,1.0691,0
22120,-0.628683,-0.420672,1.07646,0
22140,-0.630521,-0.419617,1.08362,0
22160,-0.634233,-0.420421,1.09133,0
22180,-0.636983,-0.421429,1.09921,0
22200,-0.636729,-0.422734,1.10605,0
22220,-0.637105,-0.425083,1.11421,0
22240,-0.640084,-0.428078,1.12284,0
22260,-0.642682,-0.43086,1.13111,0
22280,-0.645046,-0.43368,1.13874,0
22300,-0.646561,-0.436646,1.1458,0
22320,-0.647216,-0.439933,1.15193,0
22340,-0.646991,-0.444452,1.15887,0
22360,-0.648588,-0.449025,1.16647,0
22380,-0.651308,-0.453176,1.17334,0
22400,-0.653688,-0.457053,1.18118,0
22420,-0.657243,-0.461323,1.18961,0
22440,-0.661147,-0.466252,1.19688,0
22460,-0.662444,-0.470687,1.20248,0
22480,-0.662948,-0.475094,1.20789,0
22500,-0.662661,-0.479952,1.21361,0
22520,-0.662181,-0.484384,1.21907,0
22540,-0.66335,-0.488886,1.22534,0
22560,-0.666249,-0.49289,1.23266,0
22580,-0.670288,-0.49714,1.24205,0
22600,-0.675397,-0.502696,1.25361,0
22620,-0.678338,-0.50901,1.2638,0
22640,-0.679259,-0.513944,1.2719,0
22660,-0.681031,-0.519397,1.27979,0
22680,-0.683794,-0.525739,1.28633,0
22700,-0.683426,-0.532777,1.29263,0
22720,-0.680856,-0.539948,1.29886,0
22740,-0.678461,-0.548441,1.30368,0
22760,-0.678894,-0.555743,1.30934,0
22780,-0.68172,-0.562084,1.31609,0
22800,-0.681777,-0.568523,1.32162,0
22820,-0.679468,-0.574571,1.32683,0
22840,-0.677525,-0.581278,1.3307,0
22860,-0.676039,-0.587503,1.33282,0
22880,-0.674598,-0.592275,1.33496,0
22900,-0.674298,-0.59681,1.33983,0
22920,-0.673369,-0.604277,1.34517,0
22940,-0.67234,-0.610786,1.34996,0
22960,-0.673014,-0.615635,1.35718,0
22980,-0.675431,-0.620768,1.36618,0
23000,-0.678153,-0.626196,1.37398,0
23020,-0.679615,-0.631379,1.38128,0
23040,-0.680535,-0.6374,1.38686,0
23060,-0.678171,-0.645024,1.38875,0
23080,-0.673954,-0.652935,1.39025,0
23100,-0.671382,-0.660252,1.39262,0
23120,-0.671859,-0.667272,1.3962,0
23140,-0.675219,-0.674382,1.40278,0
23160,-0.678474,-0.680837,1.41129,0
23180,-0.681689,-0.687053,1.42096,0
23200,-0.684906,-0.693172,1.4295,0
23220,-0.688531,-0.698669,1.43683,0
23240,-0.689939,-0.704463,1.44207,0
23260,-0.688604,-0.711318,1.44594,0
23280,-0.684694,-0.719356,1.44832,0
23300,-0.682306,-0.726429,1.45068,0
23320,-0.685461,-0.732041,1.45515,0
23340,-0.689891,-0.738952,1.4616,0
23360,-0.691437,-0.747415,1.46907,0
23380,-0.693185,-0.754724,1.47633,0
23400,-0.697049,-0.76002,1.48372,0
23420,-0.702561,-0.764315,1.49161,0
23440,-0.706362,-0.768243,1.49868,0
23460,-0.708918,-0.772705,1.50411,0
23480,-0.709216,-0.779439,1.50587,0
23500,-0.706725,-0.786869,1.50492,0
23520,-0.705547,-0.794279,1.50499,0
23540,-0.706753,-0.802095,1.50728,0
23560,-0.709589,-0.809855,1.51121,0
23580,-0.712156,-0.817413,1.51755,0
23600,-0.713958,-0.824855,1.52385,0
23620,-0.716477,-0.83117,1.52944,0
23640,-0.720927,-0.836438,1.53482,0
23660,-0.723756,-0.841905,1.53848,0
23680,-0.724297,-0.848675,1.54052,0
23700,-0.724406,-0.855167,1.54189,0
23720,-0.723153,-0.863016,1.54107,0
23740,-0.721655,-0.871274,1.53936,0
23760,-0.722808,-0.879809,1.53887,0
23780,-0.726661,-0.887577,1.54152,0
23800,-0.732211,-0.896112,1.54756,0
23820,-0.736203,-0.905371,1.55317,0
23840,-0.739683,-0.914144,1.55891,0
23860,-0.743072,-0.922695,1.56424,0
23880,-0.74622,-0.931212,1.56742,0
23900,-0.749827,-0.938595,1.56857,0
23920,-0.752579,-0.947309,1.56833,0
23940,-0.753475,-0.953997,1.56681,0
23960,-0.750416,-0.960666,1.5608,0
23980,-0.752018,-0.964416,1.55639,0
24000,-0.756432,-0.970718,1.55074,0
24020,-0.762006,-0.975483,1.5467,0
24040,-0.765107,-0.984692,1.54063,0
24060,-0.76639,-0.992367,1.53302,0
24080,-0.767927,-1.00049,1.52422,0
24100,-0.767635,-1.00867,1.51381,0
24120,-0.769556,-1.01631,1.50495,0
24140,-0.769389,-1.02461,1.49522,0
24160,-0.768866,-1.03345,1.48567,0
24180,-0.769532,-1.04132,1.47519,0
24200,-0.768903,-1.04896,1.46307,0
24220,-0.767352,-1.05593,1.45195,0
24240,-0.768033,-1.06218,1.44266,0
24260,-0.770577,-1.06892,1.43491,0
24280,-0.771521,-1.07794,1.42648,0
24300,-0.773912,-1.08417,1.41911,0
24320,-0.775394,-1.09078,1.41101,0
24340,-0.771433,-1.09815,1.39868,0
24360,-0.76838,-1.10502,1.38746,0
24380,-0.758829,-1.11323,1.37062,0
24400,-0.753764,-1.11942,1.35756,0
24420,-0.748252,-1.12541,1.34554,0
24440,-0.741245,-1.13165,1.33109,0
24460,-0.73874,-1.1357,1.32044,0
24480,-0.728126,-1.14174,1.3037,0
24500,-0.720353,-1.14679,1.28844,0
24520,-0.707994,-1.15251,1.26947,0
24540,-0.693987,-1.15847,1.24857,0
24560,-0.682788,-1.16344,1.22953,0
24580,-0.668805,-1.16858,1.20834,0
24600,-0.655408,-1.17401,1.18847,0
24620,-0.64547,-1.17738,1.16949,0
24640,-0.63712,-1.17912,1.15112,0
24660,-0.625053,-1.18067,1.13078,0
24680,-0.613992,-1.18257,1.11176,0
24700,-0.604375,-1.18249,1.0932,0
24720,-0.590886,-1.18151,1.0716,0
24740,-0.576245,-1.18107,1.04944,0
24760,-0.561298,-1.17972,1.02626,0
24780,-0.545448,-1.17797,1.00199,0
24800,-0.52959,-1.17622,0.978945,0
24820,-0.514093,-1.17538,0.956363,0
24840,-0.496856,-1.17431,0.932962,0
24860,-0.475411,-1.17408,0.908346,0
24870,-0.456774,-1.17388,0.884812,0
24890,-0.443966,-1.17273,0.863986,0
24910,-0.431711,-1.17106,0.843578,0
24930,-0.41667,-1.16929,0.821826,0
24950,-0.402061,-1.16631,0.800122,0
24970,-0.390492,-1.16312,0.783355,0
24990,-0.369418,-1.16162,0.758041,0
25010,-0.352,-1.15938,0.734505,0
25030,-0.343961,-1.15576,0.717923,0
25050,-0.336941,-1.15174,0.702431,0
25070,-0.326792,-1.14754,0.685892,0
25090,-0.32355,-1.14144,0.679734,0
25110,-0.300388,-1.13661,0.655357,0
25130,-0.289946,-1.13097,0.640592,0
25150,-0.282542,-1.12406,0.62843,0
25170,-0.267043,-1.11849,0.611696,0
25190,-0.251642,-1.11273,0.593516,0
25210,-0.246997,-1.10629,0.582653,0
25230,-0.243156,-1.09931,0.574874,0
25250,-0.232579,-1.09309,0.563587,0
25270,-0.217929,-1.08774,0.548941,0
25290,-0.20635,-1.08155,0.537453,0
25310,-0.200202,-1.07404,0.529082,0
25330,-0.194656,-1.06642,0.520416,0
25350,-0.186308,-1.05984,0.51099,0
25370,-0.176523,-1.05557,0.502655,0
25390,-0.168337,-1.05033,0.494554,0
25410,-0.164519,-1.04375,0.488647,0
25430,-0.165936,-1.03707,0.486845,0
25450,-0.166861,-1.03189,0.486383,0
25470,-0.163361,-1.02603,0.4832,0
25490,-0.158237,-1.01995,0.479671,0
25510,-0.157572,-1.01281,0.477181,0
25530,-0.158882,-1.00609,0.476076,0
25550,-0.159798,-0.999199,0.476717,0
25570,-0.157794,-0.992616,0.476209,0
25590,-0.156251,-0.984772,0.474868,0
25610,-0.154516,-0.976588,0.473217,0
25630,-0.156197,-0.968694,0.472682,0
25650,-0.156106,-0.960461,0.472785,0
25670,-0.155806,-0.952238,0.473359,0
25690,-0.155281,-0.943092,0.473505,0
25710,-0.158176,-0.93438,0.476498,0
25730,-0.161185,-0.925738,0.477865,0
25750,-0.16444,-0.917172,0.480725,0
25770,-0.167758,-0.906644,0.481959,0
25790,-0.172782,-0.897277,0.484782,0
25810,-0.177192,-0.888935,0.485962,0
25830,-0.179565,-0.880344,0.486187,0
25850,-0.18146,-0.870251,0.4867,0
25870,-0.184521,-0.861552,0.488603,0
25890,-0.188894,-0.854306,0.489737,0
25910,-0.192567,-0.848246,0.490224,0
25930,-0.196997,-0.842006,0.494147,0
25950,-0.20318,-0.835291,0.499309,0
25970,-0.212848,-0.827724,0.50709,0
25990,-0.225565,-0.822257,0.516396,0
26010,-0.234871,-0.815715,0.525326,0
26030,-0.241004,-0.807256,0.530521,0
26050,-0.246227,-0.798474,0.535323,0
26070,-0.251548,-0.790655,0.538854,0
26090,-0.253871,-0.782642,0.54165,0
26110,-0.257016,-0.774844,0.544974,0
26130,-0.261185,-0.767162,0.547262,0
26150,-0.265038,-0.759634,0.549006,0
26170,-0.269755,-0.755221,0.554576,0
26190,-0.27457,-0.750772,0.558527,0
26210,-0.280904,-0.744526,0.56306,0
26230,-0.291589,-0.738696,0.568959,0
26250,-0.299892,-0.735235,0.574423,0
26270,-0.302967,-0.732827,0.57726,0
26290,-0.305632,-0.731403,0.579641,0
26310,-0.31123,-0.729634,0.583162,0
26330,-0.317762,-0.727269,0.587449,0
26350,-0.321494,-0.726506,0.592749,0
26370,-0.323845,-0.7273,0.597361,0
26390,-0.327354,-0.726948,0.602681,0
26410,-0.335492,-0.724596,0.608872,0
26430,-0.344225,-0.722516,0.616198,0
26450,-0.348503,-0.72206,0.622514,0
26470,-0.350443,-0.720985,0.628072,0
26490,-0.354372,-0.719221,0.634671,0
26510,-0.35938,-0.718366,0.642153,0
26530,-0.362119,-0.717609,0.649926,0
26550,-0.364238,-0.716437,0.657587,0
26570,-0.368711,-0.714776,0.666377,0
26590,-0.37514,-0.714353,0.676677,0
26610,-0.380655,-0.713198,0.686512,0
26630,-0.384481,-0.713075,0.695123,0
26650,-0.390174,-0.713248,0.702737,0
26670,-0.395765,-0.711461,0.711052,0
26690,-0.400235,-0.710484,0.720394,0
26710,-0.402109,-0.711387,0.728833,0
26730,-0.406291,-0.710418,0.737531,0
26750,-0.413297,-0.708476,0.746031,0
26770,-0.42005,-0.707598,0.755075,0
26790,-0.423081,-0.706183,0.762437,0
26810,-0.425462,-0.706762,0.768839,0
26820,-0.430048,-0.70708,0.776694,0
26840,-0.435605,-0.7047,0.785134,0
26860,-0.440546,-0.70201,0.794448,0
26880,-0.445364,-0.700945,0.803889,0
26900,-0.450563,-0.699247,0.812444,0
26920,-0.456047,-0.696921,0.821035,0
26940,-0.45876,-0.695115,0.828722,0
26960,-0.460795,-0.69399,0.835813,0
26980,-0.463098,-0.691612,0.84213,0
27000,-0.467219,-0.689529,0.848671,0
27020,-0.469242,-0.687864,0.854151,0
27040,-0.471528,-0.684825,0.859922,0
27060,-0.478113,-0.681427,0.86819,0
27080,-0.484963,-0.678609,0.877374,0
27100,-0.487418,-0.67652,0.884302,0
27120,-0.487832,-0.675061,0.890426,0
27140,-0.49245,-0.673937,0.897594,0
27160,-0.499147,-0.673374,0.906515,0
27180,-0.500381,-0.673346,0.91333,0
27200,-0.500614,-0.673433,0.920316,0
27220,-0.506007,-0.673064,0.928485,0
27240,-0.51286,-0.670932,0.937037,0
27260,-0.517086,-0.667209,0.944864,0
27280,-0.521278,-0.665569,0.953276,0
27300,-0.525705,-0.665788,0.961598,0
27320,-0.530741,-0.664744,0.968815,0
27340,-0.5335,-0.662884,0.974918,0
27360,-0.536153,-0.661674,0.981548,0
27380,-0.538274,-0.660417,0.988061,0
27400,-0.541809,-0.658445,0.994784,0
27420,-0.545233,-0.656153,1.00132,0
27440,-0.548646,-0.653941,1.00833,0
27460,-0.55085,-0.651734,1.01536,0
27480,-0.553414,-0.650613,1.0216,0
27500,-0.55764,-0.650218,1.02925,0
27520,-0.562797,-0.649786,1.03734,0
27540,-0.565247,-0.649313,1.044,0
27560,-0.566968,-0.649286,1.05009,0
27580,-0.571309,-0.650003,1.05734,0
27600,-0.576883,-0.650175,1.06438,0
27620,-0.580816,-0.650505,1.07175,0
27640,-0.58319,-0.65065,1.07917,0
27660,-0.588611,-0.651839,1.08801,0
27680,-0.595986,-0.652345,1.09693,0
27700,-0.603094,-0.652329,1.10611,0
27720,-0.6084,-0.653655,1.11552,0
27740,-0.613236,-0.655659,1.12418,0
27760,-0.618711,-0.657426,1.13279,0
27780,-0.626682,-0.659679,1.14357,0
27800,-0.634283,-0.662833,1.15394,0
27820,-0.639492,-0.665727,1.16374,0
27840,-0.644117,-0.66752,1.17241,0
27860,-0.650228,-0.669268,1.18266,0
27880,-0.656703,-0.671255,1.19236,0
27900,-0.6613,-0.672758,1.20161,0
27920,-0.66542,-0.674442,1.21089,0
27940,-0.66956,-0.676671,1.2199,0
27960,-0.674244,-0.678059,1.22878,0
27980,-0.679393,-0.67903,1.23775,0
28000,-0.682171,-0.682291,1.24607,0
28020,-0.683534,-0.686124,1.25396,0
28040,-0.685916,-0.689419,1.26137,0
28060,-0.691936,-0.691866,1.26993,0
28080,-0.697673,-0.695004,1.2788,0
28100,-0.70156,-0.698669,1.28804,0
28120,-0.706134,-0.702021,1.29704,0
28140,-0.711131,-0.705176,1.30565,0
28160,-0.716806,-0.708538,1.31494,0
28180,-0.723304,-0.712966,1.32468,0
28200,-0.728077,-0.717883,1.33323,0
28220,-0.731476,-0.722241,1.34086,0
28240,-0.736329,-0.727566,1.34953,0
28260,-0.741504,-0.732951,1.35831,0
28280,-0.747007,-0.738917,1.36743,0
28300,-0.75369,-0.744432,1.3774,0
28320,-0.760346,-0.749,1.38606,0
28340,-0.765781,-0.752771,1.39443,0
28360,-0.771175,-0.756781,1.40331,0
28380,-0.774738,-0.762226,1.41147,0
28400,-0.777125,-0.767826,1.4187,0
28420,-0.780949,-0.773116,1.42611,0
28440,-0.785819,-0.778664,1.43337,0
28460,-0.78974,-0.784558,1.44081,0
28480,-0.791314,-0.7909,1.4477,0
28500,-0.794856,-0.797468,1.45594,0
28520,-0.801514,-0.803237,1.46504,0
28540,-0.808224,-0.80818,1.47382,0
28560,-0.813505,-0.81332,1.48164,0
28580,-0.818895,-0.819087,1.49105,0
28600,-0.823158,-0.825527,1.50003,0
28620,-0.826927,-0.831754,1.50745,0
28640,-0.830778,-0.838879,1.51554,0
28660,-0.835838,-0.846658,1.52444,0
28680,-0.838831,-0.855087,1.53217,0
28700,-0.842139,-0.862882,1.53972,0
28720,-0.84941,-0.868831,1.54874,0
28740,-0.856575,-0.874464,1.55858,0
28760,-0.861775,-0.88158,1.56801,0
28780,-0.867723,-0.888814,1.5779,0
28790,-0.874492,-0.895208,1.58695,0
28810,-0.882687,-0.901227,1.59612,0
28830,-0.891022,-0.9076,1.60627,0
28850,-0.897244,-0.915128,1.61494,0
28870,-0.900868,-0.922214,1.62115,0
28890,-0.906347,-0.928211,1.62696,0
28910,-0.915277,-0.934403,1.63579,0
28930,-0.923914,-0.941849,1.64544,0
28950,-0.929109,-0.949324,1.65207,0
28970,-0.934131,-0.955276,1.65695,0
28990,-0.942626,-0.961802,1.66524,0
29010,-0.950433,-0.969617,1.67328,0
29030,-0.957343,-0.977867,1.68088,0
29050,-0.965657,-0.985209,1.68797,0
29070,-0.97449,-0.99208,1.69506,0
29090,-0.983328,-0.999393,1.70328,0
29110,-0.991966,-1.00698,1.71176,0
29130,-1.00019,-1.01516,1.71976,0
29150,-1.00811,-1.02385,1.72725,0
29170,-1.01627,-1.03179,1.73429,0
29190,-1.02446,-1.03916,1.74066,0
29210,-1.03267,-1.04671,1.74783,0
29230,-1.0383,-1.05514,1.753,0
29250,-1.04152,-1.06217,1.75601,0
29270,-1.04551,-1.0686,1.75995,0
29290,-1.05058,-1.07558,1.7654,0
29310,-1.05225,-1.08344,1.76747,0
29330,-1.05497,-1.0915,1.77002,0
29350,-1.06015,-1.09717,1.7727,0
29370,-1.06228,-1.10365,1.77199,0
29390,-1.06068,-1.11038,1.76809,0
29410,-1.06114,-1.11766,1.76585,0
29430,-1.06213,-1.12484,1.76331,0
29450,-1.06038,-1.13147,1.75791,0
29470,-1.06293,-1.13703,1.75606,0
29490,-1.0671,-1.14311,1.75516,0
29510,-1.06828,-1.15033,1.75194,0
29530,-1.06774,-1.15732,1.74713,0
29550,-1.07161,-1.16289,1.74583,0
29570,-1.07716,-1.16718,1.74463,0
29590,-1.08054,-1.17243,1.74177,0
29610,-1.08613,-1.17626,1.74198,0
29630,-1.08817,-1.1836,1.73795,0
29650,-1.09267,-1.18929,1.73568,0
29670,-1.09672,-1.196,1.7331,0
29690,-1.0959,-1.20354,1.72619,0
29710,-1.09288,-1.21131,1.71708,0
29730,-1.09043,-1.21884,1.70875,0
29750,-1.08776,-1.22676,1.70068,0
29770,-1.08082,-1.23474,1.6878,0
29790,-1.07061,-1.24301,1.67147,0
29810,-1.05917,-1.24993,1.65463,0
29830,-1.04796,-1.25568,1.63913,0
29850,-1.03193,-1.26362,1.61923,0
29870,-1.02466,-1.26935,1.60469,0
29890,-1.01852,-1.27306,1.59002,0
29910,-1.00458,-1.27773,1.56878,0
29930,-0.989002,-1.28305,1.54681,0
29950,-0.973273,-1.28761,1.52271,0
29970,-0.952585,-1.29219,1.49419,0
29990,-0.933933,-1.29427,1.46954,0
30010,-0.915519,-1.29633,1.4469,0
30030,-0.889358,-1.30144,1.41766,0
30050,-0.860071,-1.30679,1.38354,0
30070,-0.841438,-1.30724,1.35549,0
30090,-0.825002,-1.30472,1.33074,0
30110,-0.802801,-1.3036,1.3037,0
30130,-0.775376,-1.30504,1.27403,0
30150,-0.749446,-1.30578,1.24396,0
30170,-0.727845,-1.30345,1.21556,0
30180,-0.706085,-1.30129,1.18678,0
30200,-0.681143,-1.30009,1.15738,0
30220,-0.653077,-1.29821,1.12511,0
30240,-0.621769,-1.29532,1.08937,0
30260,-0.595699,-1.29246,1.0595,0
30280,-0.572788,-1.28895,1.03211,0
30300,-0.55099,-1.28535,1.00633,0
30320,-0.529825,-1.28241,0.982246,0
30340,-0.510755,-1.27886,0.959276,0
30360,-0.49544,-1.27369,0.940287,0
30380,-0.482226,-1.26946,0.923843,0
30400,-0.466621,-1.2652,0.906709,0
30420,-0.450031,-1.26146,0.888855,0
30440,-0.436074,-1.25719,0.872479,0
30460,-0.420949,-1.25296,0.854985,0
30480,-0.405127,-1.2497,0.838588,0
30500,-0.387133,-1.24638,0.819036,0
30520,-0.369752,-1.24212,0.800919,0
30540,-0.352358,-1.23721,0.782838,0
30560,-0.336982,-1.23274,0.767391,0
30580,-0.324715,-1.22808,0.754305,0
30600,-0.316457,-1.22287,0.744033,0
30620,-0.311193,-1.2177,0.736519,0
30640,-0.303521,-1.21289,0.725609,0
30660,-0.2916,-1.20752,0.711666,0
30680,-0.280161,-1.20386,0.699463,0
30700,-0.268969,-1.19893,0.686595,0
30720,-0.26154,-1.1933,0.677622,0
30740,-0.252947,-1.18826,0.667662,0
30760,-0.243266,-1.18332,0.657995,0
30780,-0.236646,-1.17736,0.649872,0
30800,-0.232785,-1.17161,0.642877,0
30820,-0.229468,-1.16546,0.636495,0
30840,-0.224947,-1.15924,0.629622,0
30860,-0.218379,-1.1537,0.621193,0
30880,-0.211362,-1.14825,0.611971,0
30900,-0.204077,-1.14304,0.603334,0
30920,-0.199907,-1.13747,0.596256,0
30940,-0.196692,-1.13185,0.589837,0
30960,-0.192298,-1.12601,0.582787,0
30980,-0.188333,-1.12234,0.578154,0
31000,-0.183895,-1.11847,0.572902,0
31020,-0.18248,-1.11365,0.56922,0
31040,-0.182168,-1.10819,0.565196,0
31060,-0.18227,-1.1025,0.562701,0
31080,-0.182382,-1.09839,0.562139,0
31100,-0.183012,-1.09398,0.561212,0
31120,-0.184706,-1.08901,0.561563,0
31140,-0.187743,-1.08464,0.563614,0
31160,-0.189249,-1.08052,0.563608,0
31180,-0.189317,-1.07668,0.564089,0
31200,-0.187844,-1.07276,0.563181,0
31220,-0.189005,-1.06909,0.563811,0
31240,-0.19345,-1.06577,0.566819,0
31260,-0.196981,-1.06098,0.569718,0
31280,-0.201541,-1.05775,0.574389,0
31300,-0.207172,-1.05557,0.579077,0
31320,-0.210427,-1.05295,0.582221,0
31340,-0.21367,-1.04956,0.585999,0
31360,-0.218121,-1.04617,0.58875,0
31380,-0.220325,-1.04186,0.590307,0
31400,-0.220482,-1.03897,0.590606,0
31420,-0.222748,-1.03625,0.591486,0
31440,-0.227328,-1.03364,0.593755,0
31460,-0.231585,-1.03094,0.595642,0
31480,-0.23461,-1.0286,0.597046,0
31500,-0.23785,-1.02588,0.598473,0
31520,-0.240834,-1.02263,0.599432,0
31540,-0.242699,-1.01963,0.600521,0
31560,-0.243394,-1.0167,0.600079,0
31580,-0.245726,-1.01392,0.600207,0
31600,-0.248368,-1.01152,0.600613,0
31620,-0.250634,-1.00833,0.600992,0
31640,-0.253707,-1.00445,0.60135,0
31660,-0.258656,-1.00001,0.602612,0
31680,-0.259984,-0.995489,0.602624,0
31700,-0.258733,-0.991114,0.601779,0
31720,-0.259857,-0.987429,0.601919,0
31740,-0.26394,-0.983435,0.602629,0
31760,-0.268306,-0.979554,0.603806,0
31780,-0.270189,-0.974626,0.60484,0
31800,-0.270407,-0.968917,0.604,0
31820,-0.275037,-0.962237,0.605736,0
31840,-0.280713,-0.956099,0.608481,0
31860,-0.282612,-0.947692,0.608868,0
31880,-0.286362,-0.940551,0.611336,0
31900,-0.293054,-0.933809,0.61492,0
31920,-0.300614,-0.926999,0.619039,0
31940,-0.307568,-0.920393,0.622573,0
31960,-0.314083,-0.914004,0.627029,0
31980,-0.317904,-0.907414,0.630106,0
32000,-0.319391,-0.900301,0.62853,0
32020,-0.325882,-0.89477,0.633287,0
32040,-0.333161,-0.887118,0.638873,0
32060,-0.340598,-0.880369,0.64576,0
32080,-0.347514,-0.874326,0.652564,0
32100,-0.356069,-0.86923,0.658506,0
32120,-0.365351,-0.864787,0.664863,0
32130,-0.374952,-0.862052,0.671653,0
32150,-0.381864,-0.85724,0.679015,0
32170,-0.387598,-0.852978,0.684256,0
32190,-0.397503,-0.850183,0.692531,0
32210,-0.407755,-0.847386,0.701256,0
32230,-0.415475,-0.844135,0.709082,0
32250,-0.422615,-0.84183,0.717089,0
32270,-0.42942,-0.839592,0.724949,0
32290,-0.436572,-0.837953,0.732645,0
32310,-0.442985,-0.83707,0.740253,0
32330,-0.44669,-0.835033,0.74547,0
32350,-0.4504,-0.83387,0.751875,0
32370,-0.456402,-0.834018,0.760116,0
32390,-0.460525,-0.832573,0.766919,0
32410,-0.463984,-0.830566,0.773719,0
32430,-0.467537,-0.829145,0.779957,0
32450,-0.473381,-0.827784,0.787399,0
32470,-0.47976,-0.825525,0.795326,0
32490,-0.482612,-0.823545,0.802254,0
32510,-0.483146,-0.822086,0.808056,0
32530,-0.487083,-0.819752,0.815121,0
32550,-0.491588,-0.817586,0.822403,0
32570,-0.494837,-0.81482,0.829633,0
32590,-0.497748,-0.813754,0.837129,0
32610,-0.501821,-0.812148,0.844715,0
32630,-0.506735,-0.809514,0.852731,0
32650,-0.511073,-0.806422,0.860679,0
32670,-0.513431,-0.804324,0.868751,0
32690,-0.515239,-0.803179,0.875948,0
32710,-0.519612,-0.801455,0.88366,0
32730,-0.526758,-0.799201,0.893164,0
32750,-0.531419,-0.797477,0.902487,0
32770,-0.533744,-0.796522,0.910502,0
32790,-0.537855,-0.796059,0.919114,0
32810,-0.543963,-0.795171,0.928026,0
32830,-0.548097,-0.793571,0.936296,0
32850,-0.550839,-0.792985,0.944605,0
32870,-0.554717,-0.793134,0.953303,0
32890,-0.561176,-0.793002,0.962823,0
32910,-0.567107,-0.791261,0.971754,0
32930,-0.571428,-0.790041,0.981249,0
32950,-0.577393,-0.790353,0.992122,0
32970,-0.584768,-0.790398,1.00321,0
32990,-0.591695,-0.789266,1.01367,0
33010,-0.595475,-0.790348,1.02426,0
33030,-0.597454,-0.792345,1.03244,0
33050,-0.602538,-0.792499,1.04172,0
33070,-0.611115,-0.792995,1.05331,0
33090,-0.616662,-0.79359,1.06405,0
33110,-0.619332,-0.795404,1.07383,0
33130,-0.623228,-0.795635,1.08231,0
33150,-0.630257,-0.794824,1.09189,0
33170,-0.636669,-0.794304,1.1019,0
33190,-0.639831,-0.794453,1.11149,0
33210,-0.643723,-0.795015,1.12087,0
33230,-0.649721,-0.795444,1.13048,0
33250,-0.656134,-0.795715,1.14091,0
33270,-0.660857,-0.796711,1.1511,0
33290,-0.665085,-0.797637,1.16099,0
33310,-0.670332,-0.798865,1.1711,0
33330,-0.677099,-0.800168,1.18188,0
33350,-0.683314,-0.800995,1.19272,0
33370,-0.688139,-0.802746,1.20207,0
33390,-0.693484,-0.804968,1.2125,0
33410,-0.7,-0.806161,1.22282,0
33430,-0.706756,-0.807809,1.23344,0
33450,-0.714241,-0.809482,1.24506,0
33470,-0.723318,-0.810561,1.25721,0
33490,-0.731567,-0.811185,1.26848,0
33510,-0.736682,-0.812706,1.27853,0
33530,-0.744363,-0.814501,1.29027,0
33550,-0.753451,-0.81594,1.30259,0
33570,-0.761819,-0.816491,1.31464,0
33590,-0.769649,-0.818301,1.32749,0
33610,-0.775379,-0.821054,1.33871,0
33630,-0.782322,-0.822659,1.35038,0
33650,-0.792067,-0.823478,1.36283,0
33670,-0.801666,-0.825405,1.37587,0
33690,-0.807262,-0.828339,1.38692,0
33710,-0.811834,-0.831368,1.39686,0
33730,-0.819408,-0.833997,1.40741,0
33750,-0.828993,-0.836202,1.41926,0
33770,-0.835434,-0.83932,1.43094,0
33790,-0.840016,-0.843105,1.44107,0
33810,-0.849909,-0.845811,1.45374,0
33830,-0.861405,-0.848089,1.46642,0
33850,-0.868369,-0.852085,1.47802,0
33870,-0.874923,-0.858396,1.491,0
33890,-0.88441,-0.864844,1.50415,0
33910,-0.894789,-0.870294,1.5166,0
33930,-0.902764,-0.876093,1.52824,0
33950,-0.911202,-0.882832,1.54246,0
33970,-0.918321,-0.889078,1.55414,0
33990,-0.923788,-0.895355,1.56369,0
34010,-0.932043,-0.900913,1.57516,0
34030,-0.941116,-0.906943,1.58758,0
34050,-0.945405,-0.913835,1.59723,0
34070,-0.947812,-0.921362,1.60599,0
34090,-0.953484,-0.928538,1.61516,0
34110,-0.959913,-0.934333,1.62392,0
34130,-0.964805,-0.940401,1.63456,0
34150,-0.970536,-0.94683,1.64746,0
34170,-0.978348,-0.952248,1.66061,0
34190,-0.987672,-0.957116,1.67265,0
34210,-0.996022,-0.961947,1.68392,0
34230,-1.00436,-0.96715,1.69562,0
34250,-1.01116,-0.97276,1.7063,0
34270,-1.01617,-0.97958,1.71679,0
34290,-1.02037,-0.988257,1.72724,0
34310,-1.02551,-0.996432,1.73676,0
34330,-1.03373,-1.00372,1.74764,0
34350,-1.04337,-1.00994,1.75939,0
34370,-1.04976,-1.01567,1.769,0
34390,-1.05498,-1.02255,1.77972,0
34410,-1.06199,-1.02995,1.79035,0
34430,-1.06877,-1.03569,1.79845,0
34450,-1.07658,-1.0403,1.8073,0
34470,-1.08248,-1.0457,1.8159,0
34490,-1.08761,-1.05306,1.82477,0
34510,-1.09272,-1.05957,1.83181,0
34530,-1.10133,-1.06548,1.84097,0
34550,-1.10965,-1.07076,1.84905,0
34570,-1.11379,-1.07634,1.85503,0
34590,-1.11722,-1.08333,1.86264,0
34610,-1.12349,-1.08991,1.87048,0
34630,-1.12993,-1.09558,1.87705,0
34650,-1.1353,-1.10036,1.88292,0
34670,-1.14022,-1.10541,1.88927,0
34690,-1.14598,-1.11133,1.89686,0
34710,-1.14925,-1.11711,1.9018,0
34730,-1.15184,-1.12296,1.90586,0
34750,-1.15566,-1.1296,1.91089,0
34770,-1.15851,-1.13595,1.91385,0
34790,-1.15933,-1.1417,1.9155,0
34810,-1.16274,-1.14762,1.91886,0
34830,-1.16431,-1.15352,1.91995,0
34850,-1.16329,-1.1593,1.91986,0
34870,-1.16359,-1.16551,1.92174,0
34890,-1.16634,-1.17129,1.92422,1001
34910,-1.16925,-1.17649,1.9266,0
34930,-1.17258,-1.18033,1.93011,0
34950,-1.17849,-1.18527,1.93582,0
34970,-1.18367,-1.19052,1.94117,0
34990,-1.1855,-1.19594,1.94352,0
35010,-1.18669,-1.20064,1.94522,0
35030,-1.18851,-1.20555,1.94866,0
35050,-1.18899,-1.21037,1.95067,0
35070,-1.1878,-1.21361,1.9502,0
35090,-1.18886,-1.21512,1.95096,0
35110,-1.18631,-1.21628,1.95012,0
35130,-1.18181,-1.21705,1.94803,0
35150,-1.18025,-1.21696,1.94714,0
35170,-1.17778,-1.21603,1.94549,0
35190,-1.17594,-1.21507,1.9456,0
35210,-1.17391,-1.21485,1.94416,0
35230,-1.17465,-1.21448,1.94681,0
35250,-1.17833,-1.21528,1.95252,0
35270,-1.18395,-1.21582,1.9583,0
35290,-1.19152,-1.21778,1.9659,0
35310,-1.19345,-1.21999,1.96873,0
35330,-1.19906,-1.22171,1.97581,0
35350,-1.2094,-1.22117,1.98552,0
35370,-1.21769,-1.21736,1.99223,0
35390,-1.22427,-1.21201,1.99834,0
35410,-1.22937,-1.20489,2.00208,0
35430,-1.23321,-1.19725,2.00269,0
35450,-1.23536,-1.18756,1.99858,0
35470,-1.23431,-1.17808,1.9907,0
35480,-1.22781,-1.16951,1.97986,0
35500,-1.21895,-1.16148,1.96654,0
35520,-1.21452,-1.15402,1.95401,0
35540,-1.21431,-1.14586,1.94368,0
35560,-1.21419,-1.13813,1.93334,0
35580,-1.20993,-1.13113,1.92087,0
35600,-1.20947,-1.12498,1.91338,0
35620,-1.21159,-1.11812,1.90439,0
35640,-1.21144,-1.11142,1.8922,0
35660,-1.21004,-1.10734,1.88257,0
35680,-1.20332,-1.10684,1.86923,0
35700,-1.19557,-1.10658,1.85511,0
35720,-1.19244,-1.10693,1.84202,0
35740,-1.18902,-1.10746,1.82921,0
35760,-1.17984,-1.10818,1.8154,0
35780,-1.16717,-1.10888,1.79679,0
35800,-1.15525,-1.10675,1.77693,0
35820,-1.14676,-1.10326,1.75837,0
35840,-1.13573,-1.09742,1.73457,0
35860,-1.12583,-1.0888,1.71334,0
35880,-1.11155,-1.08347,1.69007,0
35900,-1.0846,-1.07968,1.65495,0
35920,-1.05582,-1.0766,1.61759,0
35940,-1.03177,-1.07214,1.57748,0
35960,-1.01118,-1.06469,1.53883,0
35980,-0.990372,-1.05749,1.50801,0
36000,-0.965879,-1.05415,1.47425,0
36020,-0.944629,-1.0477,1.44116,0
36040,-0.936411,-1.04059,1.41711,0
36060,-0.931348,-1.03482,1.39762,0
36080,-0.926698,-1.03085,1.38227,0
36100,-0.920239,-1.02856,1.36734,0
36120,-0.919277,-1.02612,1.35458,0
36140,-0.923306,-1.02326,1.34675,0
36160,-0.923779,-1.02157,1.34027,0
36180,-0.923944,-1.02078,1.33242,0
36200,-0.922767,-1.01893,1.31799,0
36220,-0.919401,-1.01466,1.30025,0
36240,-0.916481,-1.01068,1.28547,0
36260,-0.90935,-1.0052,1.26929,0
36280,-0.900164,-0.997884,1.25045,0
36300,-0.893367,-0.990084,1.23419,0
36320,-0.886421,-0.9824,1.2205,0
36340,-0.877874,-0.97604,1.20697,0
36360,-0.86873,-0.970373,1.19345,0
36380,-0.860297,-0.966125,1.18203,0
36400,-0.852057,-0.963457,1.17575,0
36420,-0.846987,-0.964867,1.17355,0
36440,-0.847634,-0.968138,1.17595,0
36460,-0.85319,-0.973616,1.18378,0
36480,-0.860335,-0.980563,1.19442,0
36500,-0.871153,-0.988844,1.20866,0
36520,-0.884143,-0.998241,1.22454,0
36540,-0.89881,-1.00504,1.23905,0
36560,-0.914747,-1.00953,1.25458,0
36580,-0.930992,-1.01458,1.27214,0
36600,-0.948676,-1.01896,1.28951,0
36620,-0.963342,-1.02268,1.30336,0
36640,-0.972534,-1.0228,1.31254,0
36660,-0.982001,-1.0229,1.32183,0
36680,-0.989434,-1.022,1.32795,0
36700,-0.995261,-1.02129,1.33153,0
36720,-1.00199,-1.02153,1.33607,0
36740,-1.00791,-1.02098,1.33928,0
36760,-1.00894,-1.01991,1.34009,0
36780,-1.01016,-1.02025,1.34348,0
36800,-1.01216,-1.02006,1.34585,0
36820,-1.01743,-1.01897,1.34962,0
36840,-1.024,-1.01743,1.35289,0
36860,-1.02582,-1.01557,1.35217,0
36880,-1.02547,-1.01458,1.34959,0
36900,-1.02448,-1.01298,1.34458,0
36920,-1.02371,-1.01068,1.33864,0
36940,-1.01991,-1.00672,1.32984,0
36960,-1.01557,-1.00191,1.32225,0
36980,-1.00758,-0.997313,1.31402,0
37000,-0.998084,-0.99294,1.30583,0
37020,-0.98925,-0.986487,1.29774,0
37040,-0.984753,-0.980211,1.29381,0
37060,-0.97974,-0.973179,1.28868,0
37080,-0.971418,-0.963297,1.28085,0
37100,-0.960245,-0.952088,1.27251,0
37120,-0.94973,-0.941706,1.26648,0
37140,-0.940843,-0.931195,1.26063,0
37160,-0.932566,-0.919392,1.25344,0
37180,-0.924985,-0.907494,1.24773,0
37200,-0.916041,-0.896493,1.24275,0
37220,-0.909567,-0.885043,1.24019,0
37240,-0.906923,-0.873735,1.24046,0
37260,-0.903276,-0.861497,1.24214,0
37280,-0.897215,-0.846745,1.24265,0
37300,-0.89202,-0.829367,1.24285,0
37320,-0.892543,-0.813058,1.24687,0
37340,-0.894569,-0.795559,1.25187,0
37360,-0.894581,-0.774471,1.25526,0
37380,-0.894135,-0.752692,1.25586,0
37400,-0.890747,-0.731955,1.25481,0
37420,-0.88662,-0.712931,1.2569,0
37430,-0.880606,-0.693457,1.25656,0
37450,-0.872602,-0.674864,1.25345,0
37470,-0.862811,-0.657239,1.25208,0
37480,-0.854528,-0.639409,1.25254,0
37500,-0.845999,-0.621293,1.24895,0
37520,-0.836248,-0.601914,1.24355,0
37540,-0.825851,-0.583724,1.23906,0
37560,-0.81642,-0.565274,1.23728,0
37580,-0.808957,-0.548612,1.23473,0
37600,-0.801807,-0.533303,1.2313,0
37620,-0.79494,-0.518549,1.22976,0
37640,-0.788619,-0.504499,1.22967,0
37660,-0.78239,-0.492488,1.22979,0
37680,-0.774616,-0.482734,1.23019,0
37700,-0.765806,-0.475576,1.23111,0
37720,-0.756289,-0.469705,1.23276,0
37740,-0.748302,-0.46501,1.23508,0
37760,-0.741421,-0.461134,1.2378,0
37780,-0.734764,-0.45828,1.24103,0
37800,-0.729207,-0.455526,1.24549,0
37820,-0.72683,-0.45291,1.24986,0
37840,-0.727063,-0.449461,1.25426,0
37860,-0.729597,-0.446201,1.25925,0
37880,-0.73023,-0.444537,1.26291,0
37900,-0.731203,-0.443774,1.26657,0
37920,-0.731501,-0.443708,1.27058,0
37940,-0.733607,-0.444,1.27284,0
37960,-0.732997,-0.444488,1.27279,0
37980,-0.728722,-0.444586,1.27284,0
38000,-0.724139,-0.443433,1.27334,0
38020,-0.720179,-0.442466,1.27082,0
38040,-0.718438,-0.440034,1.26814,0
38060,-0.715387,-0.436988,1.26937,0
38080,-0.710761,-0.434817,1.27205,0
38100,-0.707181,-0.433264,1.27195,0
38120,-0.704604,-0.431273,1.27178,0
38140,-0.70484,-0.429137,1.27348,0
38160,-0.70445,-0.426988,1.27552,0
38180,-0.70301,-0.426116,1.27692,0
38200,-0.702118,-0.425876,1.27779,0
38220,-0.702223,-0.425368,1.27885,0
38240,-0.702263,-0.425066,1.27949,0
38260,-0.704226,-0.423671,1.27924,0
38280,-0.707395,-0.421978,1.27782,0
38300,-0.708498,-0.420414,1.27567,1000
38320,-0.70753,-0.419559,1.27401,0
38340,-0.707802,-0.419146,1.2719,0
38360,-0.707868,-0.419419,1.26753,0
38380,-0.710005,-0.420117,1.26621,0
38400,-0.711324,-0.421888,1.26442,0
38420,-0.711581,-0.424586,1.2612,0
38440,-0.711878,-0.427497,1.25969,0
38460,-0.712935,-0.430368,1.26224,0
38480,-0.715889,-0.433133,1.26375,0
38500,-0.719779,-0.437294,1.26348,0
38520,-0.726304,-0.443596,1.26572,0
38540,-0.733822,-0.448936,1.27189,0
38560,-0.741682,-0.453391,1.27898,0
38580,-0.749323,-0.457827,1.28333,0
38600,-0.757072,-0.461224,1.28504,0
38620,-0.765637,-0.46219,1.28733,0
38640,-0.775397,-0.463613,1.29129,0
38660,-0.779553,-0.465329,1.29402,0
38680,-0.782358,-0.466215,1.29563,0
38700,-0.78725,-0.468335,1.29756,0
38720,-0.79532,-0.470214,1.29896,0
38740,-0.804499,-0.469737,1.3011,0
38760,-0.813921,-0.46877,1.30326,0
38780,-0.821964,-0.467966,1.30433,0
38800,-0.829051,-0.467768,1.30351,0
38820,-0.833917,-0.466641,1.30271,0
38840,-0.838503,-0.465132,1.30095,0
38860,-0.842369,-0.464384,1.29794,0
38880,-0.846234,-0.462292,1.29576,0
38900,-0.849979,-0.459524,1.29437,0
38920,-0.850965,-0.457024,1.29154,0
38940,-0.852654,-0.453791,1.29024,0
38960,-0.855235,-0.451045,1.29017,0
38980,-0.855434,-0.449392,1.28914,0
39000,-0.856217,-0.44801,1.28876,0
39020,-0.856348,-0.447297,1.28763,0
39040,-0.8563,-0.446413,1.28708,0
39060,-0.857144,-0.445082,1.28643,0
39080,-0.85784,-0.444089,1.28559,0
39100,-0.857655,-0.443185,1.2848,0
39120,-0.858045,-0.441394,1.28429,0
39140,-0.859306,-0.438292,1.28441,0
39160,-0.860456,-0.435888,1.28474,0
39180,-0.860033,-0.433432,1.28581,0
39200,-0.859405,-0.43179,1.28708,0
39220,-0.859011,-0.43098,1.28817,0
39240,-0.858987,-0.430769,1.28869,0
39260,-0.859898,-0.430345,1.2905,0
39280,-0.860727,-0.431063,1.29344,0
39300,-0.860028,-0.432651,1.29576,0
39320,-0.8601,-0.432788,1.29812,0
39340,-0.862715,-0.432375,1.30007,0
39360,-0.865349,-0.431877,1.30214,0
39380,-0.866649,-0.430923,1.30389,0
39400,-0.868061,-0.42932,1.3048,0
39420,-0.867709,-0.427675,1.30478,0
39440,-0.868535,-0.426772,1.30552,0
39460,-0.866892,-0.42677,1.30641,0
39480,-0.864403,-0.427463,1.30708,0
39500,-0.863457,-0.428705,1.30827,0
39520,-0.865487,-0.429631,1.30943,0
39540,-0.86728,-0.429349,1.31116,0
39560,-0.868424,-0.429444,1.31281,0
39580,-0.868548,-0.429546,1.31293,0
39600,-0.869611,-0.428724,1.31316,0
39620,-0.870708,-0.427738,1.31366,0
39640,-0.871714,-0.42687,1.31417,0
39660,-0.871625,-0.426604,1.31432,0
39680,-0.871042,-0.42742,1.31447,0
39700,-0.869387,-0.427775,1.31476,0
39720,-0.869254,-0.428121,1.31521,0
39740,-0.870696,-0.428613,1.31563,0
39760,-0.872515,-0.428805,1.31637,0
39780,-0.872899,-0.428485,1.31754,0
39800,-0.871703,-0.42925,1.31833,0
39820,-0.870798,-0.429991,1.3189,0
39840,-0.871148,-0.429947,1.31988,0
39860,-0.872834,-0.431059,1.3213,0
39880,-0.873217,-0.432306,1.32255,0
39900,-0.872601,-0.432235,1.32363,0
39920,-0.872916,-0.432419,1.32507,0
39940,-0.873554,-0.433264,1.32654,0
39960,-0.872656,-0.433873,1.32723,0
39980,-0.873674,-0.433941,1.32865,0
39990,-0.875088,-0.434835,1.33057,0
40010,-0.874103,-0.435472,1.33254,0
40030,-0.872767,-0.436718,1.33417,0
40050,-0.873161,-0.438721,1.33605,0
40070,-0.874701,-0.440174,1.33759,0
40080,-0.876329,-0.440789,1.33901,0
40100,-0.876689,-0.441745,1.3406,0
40120,-0.876427,-0.442784,1.34207,0
40140,-0.875939,-0.443126,1.34331,0
40160,-0.877004,-0.443696,1.34535,0
40180,-0.877261,-0.444599,1.34799,0
40200,-0.876876,-0.445424,1.35041,0
40220,-0.877406,-0.446907,1.35292,0
40240,-0.878289,-0.44861,1.35554,0
40260,-0.878611,-0.450153,1.35846,0
40280,-0.878745,-0.451635,1.3614,0
40300,-0.879207,-0.453839,1.36331,0
40320,-0.880658,-0.455302,1.36516,0
40340,-0.881755,-0.455921,1.36732,0
40360,-0.881571,-0.456143,1.36899,0
40380,-0.880873,-0.456541,1.37116,0
40400,-0.87978,-0.45696,1.37325,0
40420,-0.880033,-0.457625,1.3756,0
40440,-0.880766,-0.45814,1.3773,0
40460,-0.880802,-0.458497,1.37854,0
40480,-0.880953,-0.458678,1.38087,0
40500,-0.880403,-0.460377,1.38309,0
40520,-0.879016,-0.461897,1.38502,0
40540,-0.878468,-0.462565,1.38678,0
40560,-0.880001,-0.462902,1.38951,0
40580,-0.88097,-0.463906,1.39284,0
40600,-0.880183,-0.466214,1.39609,0
40620,-0.878948,-0.468506,1.39961,0
40640,-0.878307,-0.471509,1.40288,0
40660,-0.877043,-0.475408,1.40538,0
40680,-0.87578,-0.479194,1.4083,0
40700,-0.875793,-0.483277,1.41151,0
40720,-0.876337,-0.487143,1.4157,0
40740,-0.87683,-0.491387,1.41998,0
40750,-0.877076,-0.495711,1.4243,0
40770,-0.877123,-0.499492,1.4282,0
40790,-0.878718,-0.502341,1.43245,0
40810,-0.88107,-0.505663,1.43758,0
40830,-0.88207,-0.509556,1.44188,0
40850,-0.881411,-0.513954,1.44558,0
40870,-0.881729,-0.517476,1.44936,0
40890,-0.884177,-0.521082,1.454,0
40910,-0.886557,-0.525545,1.45801,0
40930,-0.887679,-0.530168,1.46199,0
40950,-0.888345,-0.534466,1.46535,0
40970,-0.888889,-0.538474,1.46863,0
40990,-0.890423,-0.542454,1.47219,0
41010,-0.891725,-0.546138,1.47524,0
41030,-0.892074,-0.549916,1.47764,0
41050,-0.892626,-0.553465,1.4808,0
41070,-0.892482,-0.556863,1.48359,0
41090,-0.892126,-0.560074,1.48599,0
41110,-0.892388,-0.562901,1.48856,0
41130,-0.893534,-0.565446,1.49185,0
41150,-0.894331,-0.568391,1.49586,0
41170,-0.894638,-0.572302,1.49983,0
41190,-0.894177,-0.576492,1.50267,0
41210,-0.893572,-0.58087,1.50522,0
41230,-0.893167,-0.58523,1.50737,0
41250,-0.892497,-0.589529,1.50926,0
41270,-0.892494,-0.593229,1.51191,0
41290,-0.892406,-0.596773,1.51429,0
41310,-0.89204,-0.60087,1.51682,0
41330,-0.891472,-0.604731,1.51939,0
41350,-0.891689,-0.607846,1.52215,0
41370,-0.891767,-0.61108,1.52403,0
41390,-0.891869,-0.614583,1.52651,0
41410,-0.891359,-0.618827,1.52957,0
41430,-0.890851,-0.623201,1.5322,0
41450,-0.890754,-0.626981,1.53442,0
41470,-0.891549,-0.631008,1.53739,0
41490,-0.891361,-0.635369,1.54024,0
41510,-0.891733,-0.639635,1.54417,0
41530,-0.891441,-0.64391,1.54693,0
41550,-0.89173,-0.647833,1.55002,0
41570,-0.892732,-0.65126,1.55329,0
41590,-0.892938,-0.655289,1.55627,0
41610,-0.892589,-0.659518,1.55866,0
41630,-0.893037,-0.663537,1.56107,0
41650,-0.893305,-0.667305,1.56274,0
41670,-0.893462,-0.671221,1.56457,0
41690,-0.892981,-0.675781,1.56626,0
41710,-0.892326,-0.681232,1.56845,0
41730,-0.891238,-0.68633,1.57065,0
41750,-0.891761,-0.691063,1.57353,0
41770,-0.892721,-0.694918,1.57658,0
41790,-0.893326,-0.698792,1.57998,0
41810,-0.892521,-0.702578,1.58339,0
41830,-0.892992,-0.706115,1.58732,0
41850,-0.894474,-0.708605,1.59142,0
41870,-0.894344,-0.711573,1.59312,0
41890,-0.893292,-0.71446,1.59482,0
41910,-0.892367,-0.717875,1.59605,0
41930,-0.891589,-0.721091,1.59665,0
41950,-0.890588,-0.724326,1.59774,0
41970,-0.890425,-0.727322,1.5995,0
41990,-0.890123,-0.730406,1.6006,0
42010,-0.889576,-0.733361,1.60188,0
42030,-0.889616,-0.73646,1.60434,0
42050,-0.890366,-0.739595,1.60699,0
42070,-0.891115,-0.742202,1.60881,0
42090,-0.891349,-0.744621,1.61046,0
42110,-0.891718,-0.747224,1.61262,0
42130,-0.89186,-0.75002,1.61431,0
42150,-0.891007,-0.754009,1.61572,0
42170,-0.889957,-0.757309,1.61694,0
42190,-0.889602,-0.760831,1.61802,0
42210,-0.888722,-0.763807,1.61856,0
42230,-0.888113,-0.767373,1.61999,0
42250,-0.887966,-0.771276,1.62302,0
42270,-0.88736,-0.775232,1.62539,0
42290,-0.887399,-0.779136,1.6271,0
42310,-0.886658,-0.782857,1.62777,0
42330,-0.886256,-0.786223,1.62893,0
42350,-0.885896,-0.789493,1.63045,0
42370,-0.884711,-0.793217,1.63197,0
42390,-0.883654,-0.796718,1.63265,0
42410,-0.882419,-0.799802,1.63273,0
42430,-0.881301,-0.802609,1.63317,0
42450,-0.880212,-0.805666,1.63519,0
42470,-0.878566,-0.808282,1.63593,0
42490,-0.876351,-0.809862,1.63496,0
42510,-0.874233,-0.811151,1.63394,0
42530,-0.872114,-0.812135,1.63307,0
42550,-0.869293,-0.813631,1.63151,0
42570,-0.866646,-0.815149,1.63032,0
42590,-0.863755,-0.816646,1.62859,0
42610,-0.860898,-0.818249,1.62649,0
42630,-0.858717,-0.819472,1.6244,0
42650,-0.856487,-0.82137,1.62308,0
42670,-0.854214,-0.823257,1.6221,0
42690,-0.852031,-0.825081,1.62023,0
42700,-0.850546,-0.826914,1.61875,0
42720,-0.849624,-0.828923,1.61821,0
42740,-0.848486,-0.830686,1.61779,0
42760,-0.84792,-0.831831,1.61735,0
42780,-0.84804,-0.832045,1.61754,0
42800,-0.847977,-0.832044,1.61737,0
42820,-0.848427,-0.832101,1.61811,0
42840,-0.848573,-0.831918,1.61828,0
42860,-0.84827,-0.832066,1.61827,0
42880,-0.847987,-0.832028,1.61808,0
42900,-0.847986,-0.832124,1.61808,0
42920,-0.847784,-0.831998,1.61789,0
42940,-0.847563,-0.832057,1.61787,0
42960,-0.846822,-0.831941,1.61783,0
42980,-0.846538,-0.831999,1.61764,0
43000,-0.845251,-0.8315,1.61663,0
43020,-0.84379,-0.830668,1.61541,0
43040,-0.84279,-0.829818,1.61404,0
43060,-0.841411,-0.828911,1.61211,0
43080,-0.839538,-0.827638,1.60943,0
43100,-0.837081,-0.826778,1.60641,0
43120,-0.833603,-0.826669,1.60324,0
43140,-0.831072,-0.827482,1.60248,0
43160,-0.829809,-0.829083,1.60397,0
43180,-0.829548,-0.829654,1.60382,0
43200,-0.829834,-0.828083,1.60246,0
43220,-0.834183,-0.822651,1.60436,0
43240,-0.837065,-0.81838,1.60713,0
43260,-0.838875,-0.814569,1.60954,0
43280,-0.842119,-0.810402,1.61126,0
43300,-0.845464,-0.806604,1.61161,0
43320,-0.850742,-0.802248,1.61217,0
43340,-0.860327,-0.79838,1.61517,0
43360,-0.870221,-0.794805,1.61822,0
43380,-0.880606,-0.790198,1.62204,0
43400,-0.893271,-0.783012,1.62654,0
43420,-0.90567,-0.773913,1.62978,0
43440,-0.920727,-0.763054,1.63294,0
43460,-0.934048,-0.752598,1.631,0
43480,-0.943958,-0.74136,1.62906,0
43500,-0.957629,-0.72962,1.63135,0
43520,-0.970373,-0.720222,1.63234,0
43540,-0.98386,-0.710961,1.63484,0
43560,-0.997873,-0.701525,1.63637,0
43580,-1.00864,-0.694175,1.63573,0
43600,-1.01607,-0.688351,1.63493,0
43620,-1.02228,-0.68304,1.63332,0
43640,-1.02834,-0.677095,1.63245,0
43660,-1.03658,-0.671602,1.63238,0
43680,-1.04426,-0.666587,1.63218,0
43700,-1.04978,-0.661993,1.63296,0
43720,-1.05098,-0.659146,1.63257,0
43740,-1.05173,-0.657264,1.63179,0
43760,-1.05662,-0.655212,1.63237,0
43780,-1.06169,-0.653478,1.63358,0
43800,-1.06324,-0.651986,1.63564,0
43820,-1.06367,-0.650529,1.63689,0
43840,-1.06644,-0.648907,1.63718,0
43860,-1.0724,-0.64532,1.63733,0
43880,-1.07685,-0.642086,1.63713,0
43900,-1.07952,-0.639247,1.6376,0
43920,-1.08443,-0.635568,1.63931,0
43940,-1.09099,-0.632544,1.64078,0
43960,-1.09678,-0.629884,1.64222,0
43980,-1.10238,-0.626671,1.64405,0
43990,-1.10609,-0.625804,1.64437,0
44010,-1.10623,-0.626978,1.64364,0
44030,-1.10482,-0.62923,1.64171,0
44050,-1.10058,-0.633159,1.63813,0
44070,-1.0924,-0.639172,1.63372,0
44090,-1.08176,-0.645382,1.63003,0
44110,-1.0702,-0.653558,1.62694,0
44130,-1.05696,-0.662787,1.62289,0
44150,-1.04415,-0.670306,1.61882,0
44170,-1.03223,-0.675896,1.61489,0
44190,-1.0193,-0.68178,1.6106,0
44210,-1.00592,-0.688806,1.6056,0
44230,-0.988535,-0.697944,1.60175,0
44250,-0.975468,-0.703917,1.60099,0
44270,-0.968223,-0.706388,1.59797,0
44290,-0.964728,-0.707138,1.59486,0
44310,-0.961199,-0.706927,1.59527,0
44330,-0.956829,-0.707355,1.59744,0
44350,-0.953687,-0.708894,1.60007,0
44370,-0.952407,-0.709308,1.60083,0
44390,-0.951483,-0.709512,1.59938,0
44410,-0.948991,-0.710335,1.59695,0
44430,-0.945481,-0.71142,1.59528,0
44450,-0.943972,-0.711966,1.59509,0
44470,-0.941969,-0.712391,1.59392,0
44490,-0.940136,-0.712657,1.59275,0
44510,-0.938574,-0.712516,1.59251,0
44530,-0.937922,-0.71205,1.59294,0
44550,-0.93856,-0.712568,1.5941,0
44570,-0.938738,-0.713946,1.59546,0
44590,-0.937187,-0.715347,1.5966,0
44610,-0.937404,-0.716374,1.59746,0
44630,-0.937981,-0.717288,1.59739,0
44650,-0.937727,-0.718153,1.5968,0
44670,-0.938477,-0.718809,1.59655,0
44690,-0.940351,-0.719429,1.59653,0
44710,-0.941158,-0.720125,1.59503,0
44730,-0.940621,-0.720801,1.59378,0
44750,-0.940022,-0.722097,1.59289,0
44770,-0.940958,-0.723935,1.59194,0
44790,-0.940654,-0.725446,1.59061,0
44810,-0.939577,-0.726719,1.58984,0
44830,-0.938357,-0.729312,1.58932,0
44850,-0.939493,-0.73101,1.58951,0
44870,-0.939492,-0.73186,1.58878,0
44890,-0.938014,-0.732045,1.58727,0
44910,-0.936345,-0.731928,1.58542,0
44930,-0.93461,-0.732347,1.58392,0
44950,-0.932725,-0.732481,1.58192,0
44970,-0.930855,-0.7319,1.57924,0
44990,-0.928423,-0.731297,1.5762,0
45010,-0.925931,-0.730645,1.57271,0
45030,-0.9234,-0.729713,1.56872,0
45050,-0.920234,-0.727707,1.56326,0
45070,-0.917368,-0.724748,1.55685,0
45090,-0.915428,-0.72146,1.55131,0
45110,-0.911575,-0.717984,1.54478,0
45130,-0.908748,-0.714332,1.53851,0
45150,-0.907994,-0.709801,1.53284,0
45170,-0.907641,-0.703022,1.5286,0
45190,-0.907798,-0.694553,1.52642,0
45210,-0.908229,-0.684429,1.52447,0
45230,-0.909474,-0.674088,1.52246,0
45250,-0.910877,-0.665107,1.52021,0
45270,-0.912743,-0.654282,1.5188,0
45290,-0.916346,-0.642225,1.52004,0
45310,-0.919017,-0.631761,1.52243,0
45330,-0.922938,-0.624798,1.52664,0
45350,-0.926157,-0.619826,1.53299,0
45370,-0.929026,-0.615391,1.54066,0
45390,-0.930601,-0.613766,1.5481,0
45410,-0.931646,-0.614403,1.55568,0
45430,-0.931781,-0.616947,1.56387,0
45450,-0.93021,-0.621575,1.57,0
45470,-0.928406,-0.626405,1.57361,0
45490,-0.928715,-0.63064,1.57646,0
45510,-0.929947,-0.633878,1.58072,0
45530,-0.929874,-0.638194,1.58409,0
45550,-0.928577,-0.642647,1.58581,0
45570,-0.929602,-0.645802,1.58691,0
45590,-0.934371,-0.647572,1.58985,0
45610,-0.939072,-0.650393,1.59377,0
45630,-0.940672,-0.654852,1.59635,0
45650,-0.941179,-0.659492,1.59648,0
45670,-0.944506,-0.663269,1.59726,0
45690,-0.949759,-0.667385,1.5992,0
45710,-0.95288,-0.672219,1.60073,0
45730,-0.953463,-0.678366,1.60103,0
45750,-0.95395,-0.683283,1.60053,0
45770,-0.954807,-0.688462,1.60006,0
45790,-0.95428,-0.693367,1.59846,0
45810,-0.953088,-0.697143,1.59597,0
45830,-0.952463,-0.700932,1.59476,0
45850,-0.950842,-0.706686,1.59506,0
45870,-0.947137,-0.71299,1.59389,0
45890,-0.945341,-0.715757,1.59177,0
45910,-0.94588,-0.717952,1.59037,0
45930,-0.945081,-0.719888,1.58919,0
45950,-0.942497,-0.720907,1.58755,0
45970,-0.942674,-0.720936,1.58772,0
45990,-0.943271,-0.721267,1.58667,0
46010,-0.942473,-0.721779,1.58539,0
46030,-0.940794,-0.720568,1.5827,0
46050,-0.94058,-0.717893,1.57969,0
46060,-0.942585,-0.715411,1.57808,0
46080,-0.942682,-0.713942,1.57659,0
46100,-0.9415,-0.712857,1.57568,0
46120,-0.94112,-0.71079,1.5743,0
46140,-0.941844,-0.707818,1.57278,0
46160,-0.941137,-0.704315,1.5704,0
46180,-0.939587,-0.701369,1.56709,0
46200,-0.938891,-0.698751,1.56339,0
46220,-0.939164,-0.696397,1.55961,0
46240,-0.939535,-0.694721,1.55603,0
46260,-0.938552,-0.69414,1.55183,0
46280,-0.937594,-0.693414,1.54718,0
46300,-0.937306,-0.692091,1.54149,0
46320,-0.936582,-0.69088,1.53476,0
46340,-0.935562,-0.690455,1.5291,0
46360,-0.935426,-0.690216,1.52382,0
46380,-0.935545,-0.690463,1.51842,0
46400,-0.935278,-0.691803,1.51378,0
46420,-0.934438,-0.69382,1.51107,0
46440,-0.934312,-0.696035,1.50915,0
46460,-0.933844,-0.698106,1.5069,0
46480,-0.9336,-0.701227,1.50543,0
46500,-0.932456,-0.704348,1.50496,0
46520,-0.92786,-0.710181,1.50234,0
46540,-0.925834,-0.714542,1.50092,0
46560,-0.925361,-0.718274,1.49975,0
46580,-0.923329,-0.723335,1.49773,0
46600,-0.919363,-0.727232,1.49433,0
46620,-0.916802,-0.730284,1.49146,0
46640,-0.913431,-0.732449,1.48761,0
46660,-0.908902,-0.734536,1.4832,0
46680,-0.904659,-0.738064,1.47987,0
46700,-0.900952,-0.741329,1.47672,0
46720,-0.897386,-0.744313,1.47296,0
46740,-0.894136,-0.747012,1.46907,0
46760,-0.891248,-0.749952,1.4658,0
46780,-0.887972,-0.754333,1.46294,0
46800,-0.885486,-0.757705,1.46121,0
46820,-0.883879,-0.76104,1.45878,0
46840,-0.883593,-0.765998,1.45709,0
46860,-0.883177,-0.769678,1.4566,0
46880,-0.882324,-0.773999,1.45639,0
46900,-0.881131,-0.779127,1.45553,0
46920,-0.881732,-0.782639,1.45501,0
46940,-0.881609,-0.785486,1.45396,0
46960,-0.880761,-0.78834,1.45268,0
46980,-0.878438,-0.793362,1.45032,0
47000,-0.877331,-0.796258,1.44915,0
47020,-0.875885,-0.79886,1.44779,0
47040,-0.874156,-0.800981,1.44561,0
47060,-0.871685,-0.803672,1.44273,0
47080,-0.868875,-0.806966,1.44012,0
47100,-0.865112,-0.810761,1.43706,0
47120,-0.861688,-0.81446,1.43311,0
47140,-0.858972,-0.817764,1.42845,0
47160,-0.857322,-0.820962,1.4247,0
47180,-0.854996,-0.824334,1.42132,0
47200,-0.852467,-0.828276,1.41727,0
47220,-0.849858,-0.832174,1.41258,0
47240,-0.845631,-0.840057,1.40595,0
47260,-0.843795,-0.843249,1.40087,0
47280,-0.841607,-0.846398,1.39528,0
47300,-0.838824,-0.84939,1.38957,0
47320,-0.83541,-0.85219,1.38224,0
47340,-0.830043,-0.8549,1.37256,0
47360,-0.824935,-0.859434,1.36288,0
47380,-0.821594,-0.862641,1.35548,0
47400,-0.816297,-0.866317,1.34621,0
47420,-0.805607,-0.872351,1.33185,0
47440,-0.799219,-0.87551,1.32077,0
47460,-0.795678,-0.87817,1.31254,0
47480,-0.791007,-0.880568,1.30345,0
47500,-0.786741,-0.881052,1.29413,0
47520,-0.78266,-0.88198,1.28465,0
47540,-0.779743,-0.882602,1.27769,0
47560,-0.774927,-0.884193,1.26972,0
47580,-0.770353,-0.885067,1.26137,0
47600,-0.766229,-0.88522,1.25364,0
47620,-0.762504,-0.885976,1.24656,0
47640,-0.758819,-0.887121,1.23929,0
47660,-0.754448,-0.888211,1.23143,0
47680,-0.748344,-0.890123,1.2225,0
47700,-0.743068,-0.891874,1.21381,0
47720,-0.738352,-0.892947,1.20466,0
47740,-0.733971,-0.893647,1.19581,0
47760,-0.727736,-0.89414,1.18613,0
47780,-0.719868,-0.89501,1.17594,0
47800,-0.714899,-0.895255,1.16617,0
47820,-0.71181,-0.894416,1.15639,0
47840,-0.70797,-0.893415,1.14682,0
47860,-0.701871,-0.893005,1.13651,0
47880,-0.695136,-0.892708,1.1257,0
47900,-0.689451,-0.891523,1.11437,0
47920,-0.685363,-0.89003,1.10414,0
47940,-0.679062,-0.889037,1.09305,0
47960,-0.67206,-0.887441,1.08138,0
47980,-0.66428,-0.886184,1.06884,0
48000,-0.658587,-0.884604,1.05671,0
48020,-0.654798,-0.881591,1.0453,0
48030,-0.649213,-0.878457,1.03384,0
48050,-0.642488,-0.875554,1.02218,0
48070,-0.634996,-0.871895,1.01121,0
48090,-0.622452,-0.870375,0.997437,0
48110,-0.616623,-0.868856,0.987069,0
48130,-0.614783,-0.865984,0.977369,0
48150,-0.612102,-0.862331,0.967831,0
48170,-0.607016,-0.85889,0.959128,0
48190,-0.601536,-0.856553,0.951832,0
48210,-0.596674,-0.853945,0.945946,0
48230,-0.590673,-0.851232,0.939265,0
48250,-0.583244,-0.85035,0.929926,0
48270,-0.582082,-0.848844,0.923542,0
48290,-0.581652,-0.846595,0.91724,0
48310,-0.579294,-0.844148,0.910189,0
48330,-0.578541,-0.841792,0.903964,0
48350,-0.577827,-0.838526,0.897473,0
48370,-0.575534,-0.834647,0.891009,0
48390,-0.57278,-0.830093,0.885443,0
48410,-0.568261,-0.825642,0.878853,0
48430,-0.560151,-0.822949,0.870329,0
48450,-0.557391,-0.819942,0.863265,0
48470,-0.555479,-0.816622,0.855825,0
48490,-0.552898,-0.812862,0.848863,0
48510,-0.550099,-0.810829,0.842882,0
48530,-0.549613,-0.808607,0.839618,0
48550,-0.548402,-0.806275,0.835356,0
48570,-0.54402,-0.804135,0.830254,0
48590,-0.539211,-0.802565,0.825632,0
48610,-0.536299,-0.800656,0.821429,0
48630,-0.535285,-0.799006,0.818904,0
48650,-0.535203,-0.796755,0.816315,0
48670,-0.533077,-0.794584,0.811864,0
48690,-0.530357,-0.792729,0.807544,0
48710,-0.529182,-0.791098,0.804396,0
48730,-0.529516,-0.788213,0.802057,0
48750,-0.529499,-0.785705,0.799556,0
48770,-0.529264,-0.783203,0.797098,0
48790,-0.528313,-0.78066,0.79469,0
48810,-0.526574,-0.778544,0.791934,0
48830,-0.525279,-0.775724,0.789108,0
48850,-0.524164,-0.773129,0.786055,0
48870,-0.524043,-0.770972,0.784531,0
48890,-0.523294,-0.768973,0.78248,0
48910,-0.521182,-0.766772,0.778975,0
48930,-0.519387,-0.764428,0.77628,0
48950,-0.519275,-0.762224,0.77504,0
48970,-0.519291,-0.759847,0.773503,0
48990,-0.518167,-0.756387,0.769995,0
49010,-0.517084,-0.753166,0.766052,0
49030,-0.515459,-0.749792,0.762917,0
49050,-0.513804,-0.746409,0.760483,0
49070,-0.510927,-0.744003,0.756324,0
49090,-0.508317,-0.741517,0.751856,0
49110,-0.507084,-0.738715,0.748767,0
49130,-0.506094,-0.736193,0.74563,0
49150,-0.504442,-0.734148,0.742658,0
49170,-0.503488,-0.732014,0.7404,0
49190,-0.502468,-0.729667,0.738452,0
49210,-0.502973,-0.727878,0.737153,0
49230,-0.503046,-0.726384,0.735491,0
49250,-0.502398,-0.7251,0.733859,0
49270,-0.501878,-0.72395,0.732061,0
49290,-0.501375,-0.722867,0.730296,0
49310,-0.501384,-0.721505,0.728941,0
49330,-0.50146,-0.720736,0.727429,0
49350,-0.502663,-0.719113,0.728048,0
49370,-0.504193,-0.717838,0.728395,0
49390,-0.50536,-0.716565,0.728574,0
49410,-0.505672,-0.716039,0.728928,0
49430,-0.504881,-0.716192,0.729461,0
49450,-0.503914,-0.71687,0.729142,0
49470,-0.504912,-0.716284,0.730066,0
49490,-0.506948,-0.715476,0.730127,0
49510,-0.508124,-0.714908,0.73086,0
49530,-0.509281,-0.715494,0.731893,0
49550,-0.508916,-0.716374,0.732067,0
49570,-0.50877,-0.716553,0.730958,0
49590,-0.509672,-0.715933,0.729879,0
49610,-0.511077,-0.715415,0.728649,0
49630,-0.510282,-0.714533,0.726555,0
49650,-0.509246,-0.71318,0.724447,0
49670,-0.509129,-0.711077,0.721641,0
49690,-0.50885,-0.708801,0.718139,0
49710,-0.507525,-0.706571,0.715299,0
49730,-0.505762,-0.70456,0.712769,0
49750,-0.503385,-0.702187,0.709835,0
49770,-0.50184,-0.69986,0.707159,0
49790,-0.500674,-0.6977,0.704859,0
49810,-0.498571,-0.696294,0.702159,0
49830,-0.496591,-0.694643,0.700531,0
49850,-0.495642,-0.693319,0.699069,0
49870,-0.4957,-0.691992,0.698049,0
49890,-0.495249,-0.690896,0.697169,0
49910,-0.493974,-0.689924,0.695838,0
49930,-0.492081,-0.689341,0.694659,0
49950,-0.491462,-0.688126,0.693804,0
49970,-0.492449,-0.685663,0.693463,0
49990,-0.493629,-0.683151,0.693324,0
50010,-0.492948,-0.6811,0.69255,0
50030,-0.491328,-0.679267,0.691317,0
50050,-0.49063,-0.676804,0.690254,0
50070,-0.491658,-0.674537,0.690415,0
50090,-0.492919,-0.67219,0.689958,0
50110,-0.492716,-0.669436,0.689415,0
50130,-0.492924,-0.667101,0.689064,0
50150,-0.493134,-0.664611,0.68852,0
50170,-0.493341,-0.661698,0.688096,0
50190,-0.493297,-0.659271,0.687881,0
50210,-0.49283,-0.6572,0.686934,0
50230,-0.492176,-0.654603,0.685721,0
50250,-0.494003,-0.651906,0.685643,0
50270,-0.495844,-0.649042,0.68578,0
50290,-0.497017,-0.646264,0.685533,0
50310,-0.497109,-0.643409,0.685085,0
50330,-0.495978,-0.64053,0.683991,0
50350,-0.494876,-0.636719,0.681624,0
50370,-0.494101,-0.633191,0.679363,0
50390,-0.493762,-0.629918,0.678192,0
50410,-0.492596,-0.62681,0.676209,0
50430,-0.491352,-0.623496,0.674537,0
50450,-0.491337,-0.620798,0.674258,0
50470,-0.491609,-0.619107,0.674313,0
50490,-0.492694,-0.617626,0.674492,0
50510,-0.494537,-0.616281,0.675428,0
50530,-0.495201,-0.615322,0.674669,0
50550,-0.495484,-0.614837,0.675563,0
50570,-0.495883,-0.613929,0.675126,0
50590,-0.496225,-0.61279,0.67445,0
50610,-0.4967,-0.610973,0.674129,0
50630,-0.496538,-0.610706,0.673969,0
50650,-0.496357,-0.609518,0.67375,0
50670,-0.498146,-0.607797,0.674251,0
50690,-0.500538,-0.605177,0.675212,0
50710,-0.501936,-0.602425,0.67546,0
50730,-0.502795,-0.599794,0.675946,0
50750,-0.50388,-0.597096,0.677448,0
50770,-0.505042,-0.593761,0.678069,0
50790,-0.508117,-0.589719,0.679174,0
50810,-0.510665,-0.585876,0.680819,0
50830,-0.511185,-0.582661,0.682181,0
50850,-0.510759,-0.579449,0.683181,0
50870,-0.512794,-0.576297,0.684189,0
50890,-0.515282,-0.572927,0.685144,0
50910,-0.518277,-0.57074,0.687259,0
50930,-0.518746,-0.56959,0.687972,0
50950,-0.518731,-0.567388,0.689351,0
50970,-0.521272,-0.564714,0.690429,0
50990,-0.524844,-0.56288,0.692603,0
51010,-0.527196,-0.561799,0.69432,0
51030,-0.527924,-0.560188,0.694823,0
51050,-0.529106,-0.558135,0.695607,0
51070,-0.531818,-0.556215,0.696329,0
51090,-0.535497,-0.554466,0.697607,0
51110,-0.53839,-0.552563,0.698806,0
51130,-0.539764,-0.550586,0.699268,0
51150,-0.539498,-0.548449,0.69811,0
51170,-0.541045,-0.546418,0.698751,0
51190,-0.542265,-0.544551,0.699058,0
51210,-0.543092,-0.543152,0.699257,0
51230,-0.54497,-0.540363,0.699462,0
51250,-0.548071,-0.536702,0.700336,0
51270,-0.550761,-0.533919,0.70165,0
51290,-0.551639,-0.532471,0.702797,0
51310,-0.551652,-0.530385,0.703794,0
51330,-0.553112,-0.527962,0.705057,0
51350,-0.555049,-0.525176,0.706224,0
51370,-0.557651,-0.522238,0.708248,0
51380,-0.55869,-0.519892,0.70979,0
51400,-0.558641,-0.5177,0.71154,0
51420,-0.557583,-0.516062,0.712864,0
51440,-0.557954,-0.513659,0.714142,0
51460,-0.560596,-0.510986,0.716408,0
51480,-0.56181,-0.507692,0.718881,0
51500,-0.562428,-0.504012,0.721672,0
51520,-0.563138,-0.501327,0.723917,0
51540,-0.565069,-0.498941,0.726575,0
51560,-0.567614,-0.495971,0.729361,0
51580,-0.569252,-0.493613,0.731916,0
51600,-0.570105,-0.49145,0.733587,0
51620,-0.571034,-0.488271,0.735579,0
51640,-0.572754,-0.484872,0.738175,0
51660,-0.574364,-0.482343,0.740925,0
51680,-0.575693,-0.480504,0.743564,0
51700,-0.576982,-0.479166,0.745831,0
51720,-0.57848,-0.478529,0.748577,0
51740,-0.579256,-0.477521,0.750931,0
51760,-0.580448,-0.476264,0.753606,0
51780,-0.582467,-0.475708,0.756571,0
51800,-0.584133,-0.474763,0.75981,0
51820,-0.585055,-0.473816,0.762102,0
51840,-0.586024,-0.471924,0.764592,0
51860,-0.58772,-0.46979,0.767935,0
51880,-0.588679,-0.467935,0.771535,0
51900,-0.589869,-0.465969,0.775593,0
51920,-0.591397,-0.463797,0.779684,0
51940,-0.594088,-0.46198,0.783916,0
51960,-0.596478,-0.459549,0.788488,0
51980,-0.597841,-0.457448,0.793246,0
52000,-0.597233,-0.456461,0.796786,0
52020,-0.59619,-0.455013,0.799716,0
52040,-0.595955,-0.452623,0.803117,0
52060,-0.596394,-0.450982,0.806636,0
52080,-0.59612,-0.45032,0.810704,0
52100,-0.595808,-0.44881,0.814294,0
52120,-0.596979,-0.447664,0.818821,0
52140,-0.599492,-0.446483,0.824091,0
52160,-0.601564,-0.444599,0.829067,0
52180,-0.60333,-0.443329,0.833909,0
52200,-0.606041,-0.442566,0.838733,0
52220,-0.608314,-0.441642,0.842925,0
52240,-0.610919,-0.440068,0.847395,0
52260,-0.612453,-0.438333,0.851843,0
52280,-0.613441,-0.437305,0.856107,0
52300,-0.615056,-0.436818,0.860533,0
52320,-0.618365,-0.436461,0.865629,0
52340,-0.621479,-0.436093,0.870937,0
52360,-0.623423,-0.435783,0.875996,0
52380,-0.624628,-0.435755,0.881336,0
52400,-0.626145,-0.435501,0.886279,0
52420,-0.628736,-0.434886,0.891611,0
52440,-0.631831,-0.43404,0.89746,0
52460,-0.63477,-0.4325,0.903539,0
52480,-0.637387,-0.430999,0.909805,0
52500,-0.64035,-0.429569,0.916092,0
52520,-0.643322,-0.428638,0.922468,0
52540,-0.645915,-0.427771,0.928456,0
52560,-0.648539,-0.42746,0.934419,0
52580,-0.650901,-0.427676,0.94081,0
52600,-0.652218,-0.428271,0.946841,0
52620,-0.654472,-0.429814,0.953508,0
52640,-0.658162,-0.431004,0.9603,0
52660,-0.662504,-0.431657,0.967272,0
52680,-0.666066,-0.432425,0.974593,0
52700,-0.668759,-0.4343,0.981661,0
52720,-0.671202,-0.435942,0.988403,0
52740,-0.673598,-0.437161,0.994088,0
52760,-0.676609,-0.438448,1.0005,0
52780,-0.679964,-0.439386,1.00749,0
52800,-0.681935,-0.440462,1.014,0
52820,-0.684677,-0.441713,1.02034,0
52840,-0.688676,-0.442105,1.02668,0
52860,-0.692953,-0.442116,1.03355,0
52880,-0.695328,-0.442723,1.04052,0
52900,-0.696317,-0.443119,1.04624,0
52920,-0.69857,-0.442716,1.05154,0
52940,-0.702167,-0.442183,1.05706,0
52960,-0.705159,-0.44285,1.0632,0
52980,-0.705425,-0.443258,1.06809,0
53000,-0.707023,-0.442433,1.07353,0
53020,-0.711252,-0.442553,1.08013,0
53040,-0.715474,-0.443789,1.08639,0
53060,-0.717853,-0.443922,1.09239,0
53080,-0.720145,-0.444811,1.09842,0
53100,-0.722919,-0.446857,1.10437,0
53120,-0.726063,-0.448375,1.10993,0
53140,-0.729479,-0.44913,1.11585,0
53160,-0.733701,-0.449874,1.12185,0
53180,-0.738239,-0.450483,1.12839,0
53200,-0.7419,-0.451412,1.13473,0
53220,-0.744931,-0.452771,1.14102,0
53240,-0.748626,-0.452951,1.14657,0
53260,-0.754377,-0.452743,1.15245,0
53280,-0.758584,-0.452551,1.15855,0
53300,-0.760956,-0.451974,1.16391,0
53320,-0.763006,-0.452821,1.16896,0
53340,-0.766043,-0.452924,1.17334,0
53350,-0.769778,-0.451965,1.17887,0
53370,-0.772143,-0.452779,1.18455,0
53390,-0.771873,-0.453425,1.18846,0
53410,-0.773739,-0.453164,1.1938,0
53430,-0.777455,-0.454119,1.19978,0
53450,-0.77919,-0.454717,1.2054,0
53470,-0.779174,-0.455098,1.21116,0
53490,-0.779059,-0.457524,1.21675,0
53510,-0.780666,-0.46007,1.22247,0
53530,-0.783975,-0.461751,1.22826,0
53550,-0.787306,-0.463111,1.23453,0
53570,-0.788957,-0.46448,1.24077,0
53590,-0.788074,-0.46535,1.2458,0
53610,-0.787339,-0.465703,1.25032,0
53630,-0.789765,-0.466823,1.25561,0
53650,-0.792948,-0.467665,1.26159,0
53670,-0.793392,-0.469806,1.26755,0
53690,-0.790991,-0.472546,1.27256,0
53710,-0.789389,-0.474685,1.27688,0
53730,-0.789579,-0.477583,1.2808,0
53750,-0.787399,-0.480602,1.28514,0
53770,-0.784294,-0.483411,1.29127,0
53790,-0.782132,-0.486862,1.29555,0
53810,-0.783169,-0.488677,1.29869,0
53830,-0.786295,-0.48878,1.30401,0
53850,-0.78788,-0.48989,1.30978,0
53870,-0.785792,-0.492168,1.31347,0
53890,-0.784147,-0.494253,1.3168,0
53910,-0.784771,-0.496755,1.32108,0
53930,-0.785627,-0.499182,1.32498,0
53950,-0.783304,-0.502071,1.32874,0
53970,-0.781414,-0.506521,1.33361,0
53990,-0.782648,-0.511141,1.33866,0
54010,-0.786928,-0.513795,1.34446,0
54030,-0.792195,-0.517417,1.35183,0
54050,-0.794827,-0.521996,1.35868,0
54070,-0.797658,-0.526285,1.36536,0
54090,-0.802073,-0.531362,1.37182,0
54110,-0.807632,-0.535745,1.37789,0
54130,-0.810949,-0.539862,1.38436,0
54150,-0.81329,-0.544101,1.39074,0
54170,-0.816884,-0.548092,1.39718,0
54190,-0.822224,-0.551096,1.40429,0
54210,-0.82721,-0.55428,1.41215,0
54230,-0.830164,-0.557702,1.41885,0
54250,-0.832911,-0.561036,1.42537,0
54270,-0.83503,-0.564422,1.43125,0
54290,-0.837375,-0.567406,1.43721,0
54310,-0.838482,-0.57091,1.44277,0
54330,-0.838279,-0.574719,1.44769,0
54350,-0.838245,-0.576969,1.45211,0
54370,-0.840473,-0.578103,1.45703,0
54390,-0.842951,-0.579762,1.46231,0
54410,-0.842598,-0.581811,1.46727,0
54430,-0.841502,-0.583668,1.471,0
54450,-0.842547,-0.585372,1.47525,0
54470,-0.844062,-0.587485,1.47959,0
54490,-0.843928,-0.590585,1.48406,0
54510,-0.843643,-0.594082,1.48882,0
54530,-0.843927,-0.59786,1.49297,0
54550,-0.846222,-0.601152,1.49829,0
54570,-0.848664,-0.603414,1.50404,0
54590,-0.849274,-0.606228,1.50939,0
54610,-0.849754,-0.610423,1.51436,0
54630,-0.850903,-0.614381,1.51923,0
54650,-0.852643,-0.617946,1.52414,0
54670,-0.854607,-0.621971,1.5298,0
54690,-0.855849,-0.626548,1.53474,0
54710,-0.856232,-0.630473,1.53935,0
54730,-0.857446,-0.634007,1.54445,0
54750,-0.858874,-0.638148,1.55015,0
54770,-0.859653,-0.642627,1.55546,0
54790,-0.861605,-0.646965,1.56094,0
54810,-0.863866,-0.651018,1.56616,0
54830,-0.865767,-0.655012,1.57113,0
54850,-0.86599,-0.659805,1.57602,0
54870,-0.867058,-0.664462,1.58157,0
54890,-0.868836,-0.669117,1.58588,0
54910,-0.871179,-0.672936,1.5904,0
54930,-0.87325,-0.676663,1.59609,0
54950,-0.875646,-0.68112,1.60167,0
54970,-0.876604,-0.685746,1.60507,0
54990,-0.876509,-0.689371,1.6082,0
55010,-0.878072,-0.693087,1.61165,0
55030,-0.879954,-0.697051,1.61496,0
55050,-0.880844,-0.700821,1.61865,0
55070,-0.881204,-0.704502,1.62303,0
55090,-0.882236,-0.708416,1.62663,0
55110,-0.883803,-0.712327,1.63025,0
55130,-0.885871,-0.716109,1.6349,0
55150,-0.88756,-0.720618,1.63914,0
55170,-0.887251,-0.725502,1.64194,0
55190,-0.887009,-0.730257,1.6441,0
55210,-0.888998,-0.735234,1.64765,0
55230,-0.889822,-0.741312,1.65066,0
55250,-0.888154,-0.747318,1.65301,0
55270,-0.887927,-0.753076,1.65573,0
55290,-0.889869,-0.758591,1.65884,0
55310,-0.89113,-0.764049,1.66098,0
55330,-0.891566,-0.769843,1.66366,0
55350,-0.893024,-0.775986,1.6677,0
55370,-0.894686,-0.782582,1.67117,0
55390,-0.895393,-0.788701,1.67285,0
55410,-0.897054,-0.794269,1.67509,0
55430,-0.8998,-0.799486,1.67807,0
55450,-0.90214,-0.804757,1.68054,0
55470,-0.903308,-0.809977,1.68266,0
55490,-0.904609,-0.815264,1.6838,0
55510,-0.906558,-0.820281,1.68383,0
55530,-0.909841,-0.822781,1.68411,0
55550,-0.911335,-0.826115,1.68458,0
55570,-0.910406,-0.830723,1.68482,0
55590,-0.908222,-0.835601,1.68396,0
55610,-0.908199,-0.839994,1.68334,0
55630,-0.910258,-0.844782,1.68347,0
55650,-0.911019,-0.849168,1.68405,0
55670,-0.908953,-0.854931,1.68319,0
55690,-0.906595,-0.860677,1.68215,0
55710,-0.906966,-0.865315,1.68093,0
55730,-0.907296,-0.869314,1.68036,0
55750,-0.906815,-0.874737,1.68016,0
55770,-0.906962,-0.879957,1.68004,0
55790,-0.907601,-0.884279,1.67866,0
55810,-0.909705,-0.888695,1.67825,0
55830,-0.911384,-0.892908,1.67884,0
55850,-0.91096,-0.897012,1.67714,0
55870,-0.912392,-0.899963,1.6751,0
55890,-0.9148,-0.902901,1.67463,0
55910,-0.915408,-0.905908,1.67356,0
55930,-0.914075,-0.908886,1.67113,0
55950,-0.914601,-0.912363,1.66911,0
55970,-0.916528,-0.916008,1.6686,0
55990,-0.917297,-0.919619,1.66722,0
56010,-0.916448,-0.92367,1.66464,0
56030,-0.916153,-0.928308,1.66316,0
56050,-0.915182,-0.933276,1.65999,0
56070,-0.914813,-0.937427,1.65636,0
56090,-0.915749,-0.941648,1.65373,0
56110,-0.916099,-0.946984,1.65109,0
56130,-0.913284,-0.951422,1.64548,0
56150,-0.911451,-0.95648,1.64032,0
56170,-0.911834,-0.96122,1.63645,0
56190,-0.910935,-0.967273,1.63282,0
56210,-0.90878,-0.973578,1.62867,0
56230,-0.908758,-0.977644,1.62364,0
56250,-0.909966,-0.981252,1.61963,0
56270,-0.909982,-0.984889,1.61636,0
56290,-0.906493,-0.989217,1.61103,0
56310,-0.903655,-0.993879,1.6053,0
56330,-0.901893,-0.997847,1.59984,0
56350,-0.900172,-1.00148,1.59466,0
56370,-0.897733,-1.00576,1.58978,0
56390,-0.894207,-1.01004,1.58467,0
56420,-0.887884,-1.01776,1.5747,0
56440,-0.885751,-1.0214,1.57028,0
56460,-0.883226,-1.02483,1.56607,0
56480,-0.881134,-1.02855,1.56237,0
56500,-0.878249,-1.03178,1.55757,0
56520,-0.875316,-1.0337,1.55282,0
56540,-0.872913,-1.03574,1.54823,0
56560,-0.87041,-1.03821,1.54388,0
56580,-0.8681,-1.04187,1.54077,0
56600,-0.865293,-1.04566,1.53646,0
56620,-0.863452,-1.04898,1.53136,0
56640,-0.862331,-1.05247,1.52682,0
56660,-0.859142,-1.05633,1.52253,0
56680,-0.856012,-1.06057,1.51816,0
56700,-0.853882,-1.06404,1.51352,0
56710,-0.853265,-1.06723,1.5098,0
56730,-0.852013,-1.07095,1.50486,0
56750,-0.851023,-1.07421,1.49936,0
56760,-0.848427,-1.07728,1.49238,0
56780,-0.844797,-1.08013,1.4841,0
56800,-0.838724,-1.0838,1.46397,0
56820,-0.83599,-1.08701,1.45639,0
56840,-0.829579,-1.09093,1.44444,0
56860,-0.819619,-1.0945,1.42898,0
56880,-0.81238,-1.0976,1.4165,0
56900,-0.806957,-1.10028,1.40474,0
56920,-0.800741,-1.10385,1.39371,0
56940,-0.794009,-1.10749,1.38282,0
56960,-0.788321,-1.10943,1.37098,0
56980,-0.784852,-1.11061,1.36056,0
57000,-0.782295,-1.11162,1.3535,0
57020,-0.775923,-1.11408,1.34449,0
57040,-0.768675,-1.11583,1.3347,0
57060,-0.764693,-1.11644,1.32655,0
57080,-0.761737,-1.11633,1.31925,0
57100,-0.756269,-1.11727,1.31235,0
57120,-0.749205,-1.11869,1.30433,0
57140,-0.742661,-1.11985,1.29562,0
57160,-0.738938,-1.12052,1.28828,0
57180,-0.735739,-1.1211,1.28217,0
57200,-0.729335,-1.12187,1.27469,0
57220,-0.720818,-1.12309,1.26555,0
57240,-0.714283,-1.1234,1.25646,0
57260,-0.708466,-1.12287,1.24743,0
57280,-0.703011,-1.12192,1.23931,0
57300,-0.696281,-1.1218,1.23137,0
57320,-0.688738,-1.12256,1.22276,0
57340,-0.681971,-1.12244,1.21364,0
57360,-0.677884,-1.12068,1.20546,0
57380,-0.673755,-1.11988,1.19826,0
57400,-0.665795,-1.11956,1.18856,0
57420,-0.656352,-1.11889,1.17751,0
57440,-0.649496,-1.11732,1.1663,0
57460,-0.641772,-1.11635,1.15497,0
57480,-0.632278,-1.11572,1.14336,0
57500,-0.621531,-1.11518,1.13086,0
57520,-0.612299,-1.11506,1.11968,0
57540,-0.604331,-1.11413,1.10838,0
57560,-0.596219,-1.11312,1.09636,0
57580,-0.588571,-1.11224,1.08598,0
57600,-0.579691,-1.11106,1.07512,0
57620,-0.569955,-1.1097,1.06372,0
57640,-0.561428,-1.10829,1.05318,0
57660,-0.555,-1.10648,1.04441,0
57680,-0.550465,-1.10524,1.0372,0
57700,-0.544434,-1.1034,1.02862,0
57720,-0.539406,-1.10094,1.02165,0
57740,-0.532639,-1.09931,1.01334,0
57760,-0.525703,-1.0982,1.00479,0
57780,-0.519398,-1.09837,0.99769,0
57800,-0.511689,-1.09823,0.989199,0
57820,-0.504377,-1.09735,0.981029,0
57840,-0.498833,-1.09607,0.97466,0
57860,-0.495107,-1.09503,0.969537,0
57880,-0.489343,-1.09462,0.963814,0
57900,-0.481732,-1.09408,0.956782,0
57920,-0.476358,-1.09281,0.951061,0
57940,-0.473805,-1.09096,0.94625,0
57960,-0.471722,-1.09044,0.943163,0
57980,-0.467138,-1.09019,0.939157,0
58000,-0.461431,-1.0894,0.933533,0
58020,-0.456472,-1.08852,0.928202,0
58040,-0.452464,-1.08696,0.923494,0
58060,-0.448972,-1.08485,0.919056,0
58080,-0.444797,-1.08316,0.914359,0
58100,-0.439931,-1.08185,0.908944,0
58120,-0.43423,-1.0805,0.903429,0
58140,-0.428166,-1.07854,0.896968,0
58160,-0.422898,-1.07704,0.89171,0
58180,-0.419578,-1.0753,0.887176,0
58200,-0.416563,-1.07373,0.883248,0
58220,-0.411488,-1.07204,0.878397,0
58240,-0.405625,-1.07065,0.873469,0
58260,-0.401667,-1.0698,0.869139,0
58280,-0.399125,-1.06781,0.865387,0
58300,-0.397251,-1.06577,0.862198,0
58320,-0.39411,-1.06429,0.858599,0
58340,-0.391756,-1.06291,0.855866,0
58360,-0.388393,-1.06079,0.851715,0
58380,-0.38608,-1.05854,0.848795,0
58400,-0.386,-1.05576,0.846778,0
58420,-0.385413,-1.05263,0.844894,0
58440,-0.383775,-1.05092,0.843256,0
58460,-0.381255,-1.04833,0.840546,0
58480,-0.380214,-1.04527,0.838427,0
58500,-0.379012,-1.04225,0.83578,0
58520,-0.377132,-1.03966,0.833349,0
58540,-0.373513,-1.03697,0.830548,0
58560,-0.371043,-1.03408,0.827204,0
58580,-0.368896,-1.03069,0.824164,0
58600,-0.367917,-1.0275,0.821491,0
58620,-0.366729,-1.02404,0.819335,0
58640,-0.364699,-1.01976,0.815893,0
58650,-0.362314,-1.01531,0.813369,0
58670,-0.359367,-1.01092,0.810402,0
58690,-0.355574,-1.0075,0.806745,0
58710,-0.353452,-1.00337,0.804127,0
58730,-0.354684,-0.998523,0.80236,0
58750,-0.355308,-0.994208,0.800591,0
58770,-0.351368,-0.990422,0.797364,0
58790,-0.346187,-0.986555,0.793548,0
58810,-0.344865,-0.981993,0.790725,0
58830,-0.344792,-0.977198,0.788415,0
58850,-0.343926,-0.973009,0.78647,0
58870,-0.341455,-0.969494,0.784883,0
58890,-0.339912,-0.965034,0.782907,0
58910,-0.340304,-0.961339,0.782483,0
58930,-0.340334,-0.957322,0.782019,0
58950,-0.339668,-0.953297,0.780731,0
58970,-0.339395,-0.949313,0.780556,0
58990,-0.338252,-0.945306,0.779165,0
59010,-0.338812,-0.941171,0.778251,0
59030,-0.339538,-0.937462,0.77802,0
59050,-0.339245,-0.933949,0.777874,0
59070,-0.338247,-0.930358,0.777314,0
59090,-0.33893,-0.926634,0.776923,0
59110,-0.341457,-0.92287,0.777956,0
59130,-0.342416,-0.918902,0.778043,0
59150,-0.343732,-0.91526,0.778165,0
59170,-0.344926,-0.910838,0.777644,0
59190,-0.346246,-0.906375,0.777894,0
59210,-0.346356,-0.901758,0.777728,0
59230,-0.346318,-0.897866,0.777307,0
59250,-0.345551,-0.893179,0.775505,0
59270,-0.346988,-0.889194,0.776134,0
59290,-0.347409,-0.885335,0.776551,0
59310,-0.347901,-0.882525,0.775376,0
59330,-0.348869,-0.87946,0.775653,0
59350,-0.350503,-0.876566,0.775331,0
59370,-0.352696,-0.874088,0.775888,0
59390,-0.354122,-0.871252,0.776185,0
59410,-0.352635,-0.868416,0.77569,0
59430,-0.351341,-0.865774,0.774223,0
59450,-0.352861,-0.863089,0.774055,0
59470,-0.354295,-0.860099,0.77417,0
59490,-0.355998,-0.857475,0.774537,0
59510,-0.356124,-0.855327,0.775409,0
59530,-0.355162,-0.853411,0.774813,0
59550,-0.356546,-0.850815,0.776025,0
59570,-0.35887,-0.848987,0.777845,0
59590,-0.358633,-0.846634,0.778741,0
59610,-0.356792,-0.844473,0.77903,0
59630,-0.356434,-0.842312,0.779224,0
59650,-0.35818,-0.839266,0.780735,0
59670,-0.359828,-0.836639,0.782349,0
59690,-0.359048,-0.834345,0.784133,0
59710,-0.35908,-0.831397,0.785235,0
59730,-0.362944,-0.828229,0.787749,0
59750,-0.36789,-0.82515,0.790685,0
59770,-0.369149,-0.821967,0.792307,0
59790,-0.368365,-0.819028,0.793565,0
59810,-0.368595,-0.816564,0.794795,0
59830,-0.370696,-0.814118,0.796235,0
59850,-0.373826,-0.811169,0.798283,0
59870,-0.375753,-0.808062,0.799822,0
59890,-0.376779,-0.805081,0.801381,0
59910,-0.377126,-0.803436,0.800819,0
59930,-0.379204,-0.800581,0.803932,0
59950,-0.381096,-0.797414,0.805412,0
59970,-0.383266,-0.794648,0.807739,0
59990,-0.383866,-0.791374,0.809684,0
60010,-0.385883,-0.788807,0.812711,0
60030,-0.38904,-0.785567,0.816031,0
60050,-0.393363,-0.782648,0.820308,0
60070,-0.396318,-0.779826,0.824102,0
60090,-0.397681,-0.777313,0.826957,0
60110,-0.399169,-0.77503,0.82981,0
60130,-0.399378,-0.772314,0.831319,0
60150,-0.401218,-0.770214,0.833553,0
60170,-0.402763,-0.767568,0.836005,0
60190,-0.403579,-0.765375,0.838278,0
60210,-0.404302,-0.763484,0.840898,0
60230,-0.405738,-0.760936,0.843761,0
60250,-0.408439,-0.759002,0.8473,0
60270,-0.411718,-0.75669,0.850684,0
60290,-0.414365,-0.754219,0.854851,0
60310,-0.416141,-0.752221,0.857496,0
60330,-0.417573,-0.750791,0.860903,0
60350,-0.418782,-0.74957,0.863852,0
60370,-0.420108,-0.747154,0.866694,0
60390,-0.423072,-0.745829,0.869861,0
60410,-0.425995,-0.745012,0.873351,0
60430,-0.428166,-0.743,0.876028,0
60450,-0.430111,-0.74229,0.879811,0
60470,-0.432268,-0.741434,0.883208,0
60490,-0.435626,-0.740056,0.886684,0
60510,-0.438788,-0.738624,0.890476,0
60530,-0.440259,-0.738068,0.893956,0
60550,-0.441225,-0.737214,0.896933,0
60570,-0.444516,-0.735993,0.900727,0
60590,-0.447653,-0.735896,0.905326,0
60610,-0.449248,-0.73528,0.908849,0
60630,-0.450619,-0.734676,0.912696,0
60650,-0.45157,-0.734897,0.916536,0
60670,-0.451816,-0.73429,0.920424,0
60690,-0.453276,-0.733558,0.924417,0
60710,-0.455986,-0.732782,0.929132,0
60730,-0.457391,-0.731437,0.933142,0
60750,-0.459188,-0.72979,0.938221,0
60770,-0.46133,-0.729233,0.943627,0
60790,-0.463981,-0.729283,0.948813,0
60810,-0.466952,-0.728187,0.953539,0
60830,-0.470477,-0.72639,0.958534,0
60850,-0.472497,-0.724627,0.963685,0
60870,-0.474463,-0.72355,0.968523,0
60890,-0.47656,-0.72237,0.973092,0
60910,-0.479743,-0.720975,0.978388,0
60930,-0.484015,-0.720016,0.984547,0
60950,-0.486318,-0.718672,0.989736,0
60970,-0.489521,-0.717299,0.996519,0
60990,-0.492216,-0.715731,1.00254,0
61010,-0.495537,-0.714247,1.00905,0
61030,-0.500848,-0.713575,1.01661,0
61050,-0.506487,-0.711887,1.02462,0
61070,-0.511136,-0.709978,1.03265,0
61090,-0.515471,-0.709825,1.04074,0
61110,-0.519476,-0.70954,1.04833,0
61130,-0.523705,-0.70844,1.05523,0
61150,-0.527558,-0.707562,1.06236,0
61170,-0.531192,-0.707272,1.07039,0
61190,-0.535128,-0.706859,1.0784,0
61210,-0.541051,-0.706545,1.08732,0
61230,-0.547995,-0.705829,1.09675,0
61250,-0.554725,-0.704459,1.10652,0
61270,-0.559184,-0.703932,1.11588,0
61290,-0.561676,-0.704459,1.12415,0
61310,-0.566366,-0.704905,1.13265,0
61330,-0.574091,-0.704542,1.1425,0
61350,-0.579346,-0.703436,1.15224,0
61370,-0.582027,-0.703526,1.16216,0
61390,-0.586601,-0.703501,1.1723,0
61410,-0.595878,-0.702667,1.18439,0
61430,-0.604535,-0.700997,1.19626,0
61450,-0.609988,-0.700424,1.20807,0
61470,-0.613974,-0.702786,1.21961,0
61490,-0.619428,-0.703688,1.2294,0
61510,-0.628732,-0.702538,1.24147,0
61530,-0.637592,-0.702298,1.25446,0
61550,-0.642079,-0.702904,1.26665,0
61570,-0.644761,-0.703688,1.27782,0
61590,-0.651275,-0.704759,1.28996,0
61610,-0.661793,-0.705625,1.30386,0
61630,-0.670586,-0.706339,1.31725,0
61650,-0.676547,-0.707712,1.33042,0
61670,-0.683582,-0.709979,1.34304,0
61690,-0.69238,-0.712264,1.35508,0
61710,-0.700805,-0.712878,1.36662,0
61730,-0.708239,-0.713943,1.37951,0
61750,-0.713208,-0.716984,1.39122,0
61770,-0.718232,-0.720221,1.40316,0
61790,-0.725537,-0.722181,1.4151,0
61810,-0.733005,-0.723258,1.42753,0
61830,-0.739649,-0.726281,1.44073,0
61850,-0.746708,-0.729179,1.45406,0
61870,-0.753357,-0.730976,1.46636,0
61890,-0.758895,-0.734708,1.47793,0
61910,-0.761257,-0.739263,1.487,0
61930,-0.76511,-0.743163,1.49605,0
61950,-0.770149,-0.746273,1.50622,0
61970,-0.771796,-0.750585,1.51512,0
61990,-0.772774,-0.755789,1.52441,0
62000,-0.778701,-0.760143,1.53566,0
62020,-0.787713,-0.764079,1.54722,0
62040,-0.793695,-0.767886,1.55742,0
62060,-0.795773,-0.77261,1.56637,0
62080,-0.797886,-0.77816,1.5744,0
62100,-0.801945,-0.784441,1.58205,0
62120,-0.804403,-0.788858,1.5889,0
62140,-0.802841,-0.794954,1.59569,0
62160,-0.802108,-0.803457,1.60463,0
62180,-0.804205,-0.810625,1.61318,0
62200,-0.812105,-0.816618,1.62421,0
62220,-0.819657,-0.822141,1.63526,0
62240,-0.825097,-0.831432,1.64812,0
62260,-0.831452,-0.842177,1.66004,0
62280,-0.838762,-0.8521,1.66721,0
62300,-0.849358,-0.860897,1.67787,0
62320,-0.860727,-0.87327,1.69226,0
62340,-0.864873,-0.888233,1.70155,0
62360,-0.865935,-0.902837,1.70704,0
62380,-0.874636,-0.916994,1.71666,0
62400,-0.887073,-0.929666,1.7272,0
62420,-0.898017,-0.942078,1.73802,0
62440,-0.906718,-0.954702,1.74759,0
62460,-0.91603,-0.968262,1.75716,0
62480,-0.924883,-0.980666,1.76481,0
62500,-0.931194,-0.994004,1.77091,0
62520,-0.939276,-1.00775,1.77848,0
62540,-0.949737,-1.02138,1.78583,0
62560,-0.955536,-1.03721,1.78851,0
62580,-0.958328,-1.05404,1.79096,0
62600,-0.960939,-1.07122,1.79033,0
62620,-0.967106,-1.08862,1.79081,0
62640,-0.974691,-1.10523,1.7917,0
62660,-0.975144,-1.12194,1.78354,0
62680,-0.968212,-1.13831,1.76956,0
62700,-0.958595,-1.15471,1.75375,0
62720,-0.948598,-1.17148,1.7361,0
62740,-0.941341,-1.18547,1.71839,0
62760,-0.926113,-1.19828,1.69304,0
62780,-0.903147,-1.21144,1.66171,0
62800,-0.879454,-1.22341,1.62811,0
62820,-0.85434,-1.23221,1.5912,0
62840,-0.82541,-1.23945,1.55102,0
62860,-0.791992,-1.24594,1.50786,0
62880,-0.754948,-1.2526,1.46355,0
62900,-0.709251,-1.25647,1.41209,0
62920,-0.667507,-1.2572,1.36307,0
62940,-0.630112,-1.25535,1.31629,0
62960,-0.591412,-1.25396,1.27085,0
62980,-0.557529,-1.25076,1.23362,0
63000,-0.527357,-1.24676,1.19752,0
63020,-0.496582,-1.24237,1.16029,0
63040,-0.471319,-1.23769,1.13072,0
63060,-0.447728,-1.23367,1.10288,0
63080,-0.42025,-1.23018,1.0702,0
63100,-0.392171,-1.22458,1.03821,0
63120,-0.369809,-1.21992,1.01236,0
63140,-0.347622,-1.21505,0.987633,0
63160,-0.325843,-1.20966,0.962109,0
63180,-0.304848,-1.2041,0.938326,0
63200,-0.287938,-1.19877,0.917243,0
63220,-0.271947,-1.19256,0.895057,0
63240,-0.256021,-1.18531,0.874945,0
63260,-0.239275,-1.1792,0.853891,0
63280,-0.226118,-1.17254,0.835339,0
63300,-0.213459,-1.16457,0.817298,0
63320,-0.201516,-1.15724,0.803169,0
63340,-0.188208,-1.1504,0.786314,0
63360,-0.182352,-1.14385,0.774727,0
63380,-0.177585,-1.13531,0.764044,0
63400,-0.170107,-1.12579,0.754457,0
63420,-0.164717,-1.11838,0.747193,0
63440,-0.164413,-1.10814,0.7422,0
63460,-0.171457,-1.096,0.743283,0
63480,-0.17707,-1.0829,0.743251,0
63500,-0.182038,-1.07155,0.746501,0
63520,-0.181497,-1.05976,0.744692,0
63540,-0.182463,-1.04805,0.743558,0
63560,-0.189655,-1.03667,0.747304,0
63580,-0.196762,-1.02468,0.750999,0
63600,-0.203581,-1.0129,0.756769,0
63620,-0.206955,-1.00111,0.75883,0
63640,-0.214543,-0.991774,0.765225,0
63660,-0.225094,-0.981494,0.77529,0
63680,-0.239325,-0.971887,0.785901,0
63700,-0.25713,-0.963819,0.801128,0
63720,-0.272078,-0.95623,0.813933,0
63740,-0.284791,-0.94674,0.825897,0
63760,-0.297595,-0.93868,0.83642,0
63780,-0.310567,-0.930023,0.843223,0
63800,-0.327361,-0.920771,0.856495,0
63820,-0.3367,-0.913042,0.864837,0
63840,-0.342688,-0.906059,0.871877,0
63860,-0.351101,-0.899785,0.880468,0
63880,-0.360288,-0.894691,0.891081,0
63900,-0.366579,-0.889973,0.901569,0
63920,-0.378092,-0.885618,0.91502,0
63940,-0.395116,-0.880117,0.93261,0
63960,-0.406754,-0.875889,0.94749,0
63980,-0.412684,-0.872379,0.959115,0
63990,-0.424288,-0.864601,0.971692,0
64010,-0.439223,-0.859133,0.989144,0
64030,-0.449879,-0.857872,1.00586,0
64050,-0.460382,-0.855198,1.02086,0
64070,-0.476787,-0.853195,1.04009,0
64090,-0.491129,-0.851118,1.05897,0
64110,-0.500438,-0.849306,1.07432,0
64130,-0.515558,-0.847422,1.09389,0
64150,-0.529799,-0.845636,1.11296,0
64170,-0.539551,-0.846165,1.12951,0
64190,-0.550339,-0.844978,1.14431,0
64210,-0.567215,-0.841044,1.16376,0
64230,-0.58509,-0.841093,1.18762,0
64250,-0.602254,-0.843299,1.21218,0
64270,-0.621,-0.843418,1.23536,0
64290,-0.64083,-0.841439,1.25979,0
64310,-0.659555,-0.840356,1.28459,0
64330,-0.673953,-0.841772,1.30716,0
64350,-0.687659,-0.844263,1.32697,0
64370,-0.702111,-0.844288,1.34637,0
64390,-0.713176,-0.842691,1.3625,0
64410,-0.728403,-0.841648,1.38429,0
64430,-0.743111,-0.842727,1.40582,0
64450,-0.752388,-0.843853,1.42405,0
64470,-0.761828,-0.845236,1.44191,0
64490,-0.776392,-0.846195,1.46104,0
64510,-0.790404,-0.84569,1.47944,0
64530,-0.800622,-0.845862,1.49641,0
64550,-0.809702,-0.84695,1.51053,0
64570,-0.819142,-0.849292,1.52162,0
64590,-0.829057,-0.850193,1.53327,0
64610,-0.835041,-0.853552,1.54292,0
64630,-0.836032,-0.857237,1.54979,0
64650,-0.842599,-0.860653,1.5602,0
64670,-0.852555,-0.864832,1.57254,0
64690,-0.859669,-0.868815,1.58472,0
64710,-0.866814,-0.87351,1.597,0
64730,-0.87852,-0.876077,1.60982,0
64750,-0.889739,-0.878378,1.62269,0
64770,-0.896069,-0.883585,1.634,0
64790,-0.89956,-0.891087,1.64383,0
64810,-0.904745,-0.898507,1.65133,0
64830,-0.911199,-0.904187,1.65986,0
64850,-0.913614,-0.910035,1.66805,0
64870,-0.916175,-0.917706,1.6787,0
64890,-0.923317,-0.923538,1.68996,0
64910,-0.934689,-0.927126,1.7031,0
64930,-0.9447,-0.929432,1.71752,0
64950,-0.953957,-0.932594,1.73077,0
64970,-0.960623,-0.936911,1.74088,0
64990,-0.965659,-0.94055,1.74925,0
65010,-0.973292,-0.946157,1.75878,0
65030,-0.980617,-0.952712,1.76612,0
65050,-0.985802,-0.956806,1.77371,0
65070,-0.993051,-0.96362,1.78516,0
65090,-1.00043,-0.971532,1.79808,0
65110,-1.01122,-0.97931,1.81325,0
65130,-1.02313,-0.986311,1.82779,0
65150,-1.03576,-0.991739,1.84404,0
65170,-1.04823,-0.997306,1.86011,0
65190,-1.06075,-1.00467,1.87444,0
65210,-1.06827,-1.01281,1.88427,0
65230,-1.07532,-1.02103,1.89354,0
65250,-1.08194,-1.02985,1.90203,0
65270,-1.09028,-1.03814,1.91269,0
65290,-1.09739,-1.04591,1.92278,0
65310,-1.10417,-1.05323,1.93291,0
65330,-1.11147,-1.05984,1.94285,0
65350,-1.11636,-1.06481,1.94893,0
65370,-1.12437,-1.06778,1.95777,0
65390,-1.13332,-1.07272,1.96666,0
65410,-1.13412,-1.07786,1.96784,0
65430,-1.13391,-1.08404,1.96889,0
65450,-1.1359,-1.09106,1.96886,0
65470,-1.14015,-1.09723,1.9708,0
65490,-1.13988,-1.10438,1.97239,0
65510,-1.13845,-1.11302,1.97356,0
65530,-1.14172,-1.12128,1.9789,0
65550,-1.14922,-1.12752,1.98702,0
65570,-1.15656,-1.13264,1.99567,0
65590,-1.16079,-1.13715,2.00323,0
65610,-1.16882,-1.14182,2.01305,0
65630,-1.17423,-1.14606,2.01881,0
65650,-1.17496,-1.15045,2.02037,0
65670,-1.17365,-1.15508,2.01756,0
65690,-1.1703,-1.1595,2.0135,1001
65710,-1.16408,-1.1639,2.00969,0
65730,-1.15809,-1.16912,2.00803,0
65750,-1.15944,-1.17354,2.01151,0
65770,-1.16392,-1.1762,2.01893,0
65790,-1.1694,-1.17689,2.02685,0
65810,-1.17622,-1.17591,2.03426,0
65830,-1.18721,-1.17449,2.04508,0
65850,-1.19614,-1.17385,2.05323,0
65870,-1.19537,-1.17411,2.05181,0
65890,-1.19587,-1.17548,2.04996,0
65910,-1.19277,-1.17661,2.04601,0
65930,-1.18708,-1.17725,2.04249,0
65950,-1.18663,-1.17726,2.04204,0
65970,-1.18957,-1.17493,2.04315,0
65990,-1.19257,-1.16915,2.04386,0
66010,-1.19013,-1.16177,2.03758,0
66030,-1.18223,-1.1516,2.02193,0
66050,-1.17161,-1.13934,2.00098,0
66070,-1.15693,-1.12579,1.97411,0
66090,-1.13689,-1.10976,1.94004,0
66110,-1.11219,-1.09129,1.9014,0
66130,-1.08509,-1.07165,1.86073,0
66150,-1.0561,-1.04901,1.81711,0
66170,-1.02696,-1.02485,1.77171,0
66190,-0.995359,-1.00199,1.72647,0
66210,-0.960242,-0.980857,1.6816,0
66230,-0.925912,-0.960378,1.64009,0
66250,-0.896329,-0.94251,1.60171,0
66270,-0.871679,-0.925895,1.56783,0
66290,-0.853555,-0.908449,1.53778,0
66310,-0.841606,-0.89066,1.51396,0
66330,-0.832771,-0.874601,1.4951,0
66350,-0.819435,-0.860907,1.47473,0
66370,-0.809191,-0.851489,1.45761,0
66390,-0.807584,-0.846115,1.44637,0
66410,-0.808904,-0.843835,1.43623,0
66430,-0.807079,-0.843632,1.42656,0
66450,-0.806612,-0.844468,1.42026,0
66470,-0.807901,-0.84978,1.41987,0
66490,-0.811586,-0.855692,1.42187,0
66510,-0.821064,-0.861194,1.42589,0
66530,-0.83429,-0.863384,1.43133,0
66550,-0.847336,-0.861388,1.43644,0
66570,-0.854567,-0.853403,1.43889,0
66590,-0.856059,-0.838837,1.43577,0
66610,-0.852587,-0.813824,1.42719,0
66630,-0.852401,-0.779109,1.41608,0
66650,-0.846197,-0.740282,1.40313,0
66670,-0.832937,-0.700741,1.38858,0
66690,-0.805727,-0.661773,1.37171,0
66710,-0.770712,-0.62091,1.35371,0
66730,-0.743124,-0.581239,1.34556,0
66750,-0.719426,-0.548701,1.3422,0
66770,-0.697146,-0.515423,1.34038,0
66790,-0.682091,-0.488993,1.33821,0
66810,-0.669746,-0.469315,1.3366,0
66830,-0.658445,-0.452925,1.33766,0
66850,-0.649524,-0.441339,1.3388,0
66870,-0.645333,-0.425207,1.33736,0
66890,-0.648335,-0.41654,1.33713,0
66910,-0.647481,-0.405857,1.33517,0
66930,-0.640602,-0.392127,1.33078,0
66950,-0.631401,-0.376066,1.32548,0
66970,-0.625637,-0.355056,1.32218,0
66990,-0.622031,-0.332074,1.32108,0
67010,-0.617928,-0.311235,1.31827,0
67030,-0.609424,-0.292956,1.31539,0
67050,-0.598077,-0.275435,1.31225,0
67070,-0.587682,-0.259786,1.31051,0
67090,-0.576279,-0.247631,1.31145,0
67110,-0.565826,-0.235472,1.312,0
67130,-0.559435,-0.225367,1.31278,0
67150,-0.554206,-0.218775,1.31357,0
67170,-0.547548,-0.212806,1.31325,0
67190,-0.544157,-0.204447,1.3138,0
67210,-0.547051,-0.197032,1.31336,0
67230,-0.548827,-0.189637,1.31338,0
67250,-0.55122,-0.1828,1.31599,0
67270,-0.55236,-0.179404,1.32022,0
67290,-0.553982,-0.180848,1.32438,0
67310,-0.55545,-0.184122,1.32693,0
67330,-0.557464,-0.188472,1.33098,0
67340,-0.560403,-0.195663,1.33621,0
67360,-0.562557,-0.204733,1.34208,0
67380,-0.567821,-0.213182,1.34897,0
67400,-0.578125,-0.22091,1.35756,0
