Timestamp, Electrode 1, Electrode 2, Electrode 3, Electrode 4, Electrode 5, Electrode 6, Electrode 7, Electrode 8, Marker
0,0,0,1,-2,-1,2,-1,-2,0
5,2,2,-1,-2,-3,-10,-15,-6,0
10,-19,-14,-3,3,4,14,13,4,0
15,25,10,1,2,2,2,12,2,0
20,-14,0,0,-1,-1,-4,-16,-15,0
25,-2,-2,0,0,0,-2,4,5,0
30,6,0,-1,-4,-1,-7,-17,-3,0
35,-7,-6,-2,-1,-2,0,10,18,0
40,2,-1,-2,0,-4,2,6,-10,0
45,1,-1,-1,-6,-2,-1,13,-3,0
50,-6,0,1,-2,-4,-1,-16,-2,0
55,-3,-5,-1,0,1,1,-6,-3,0
60,3,0,-2,0,-3,-3,-1,6,0
65,-6,-3,-1,1,0,1,-2,0,0
70,5,1,0,2,0,-5,8,-1,0
75,-4,-1,-3,-3,-3,2,-3,-5,0
80,0,-1,0,1,4,2,2,4,0
85,1,-1,0,3,6,2,-5,-3,0
90,2,2,0,-1,-3,-2,-9,-2,0
95,-3,-1,-2,-7,-2,-4,-13,-6,0
100,0,-2,1,5,15,2,3,-1,0
105,-1,-2,-2,-6,-29,-5,-1,2,0
110,3,-1,-5,-10,-7,-10,1,-2,0
115,-5,-2,1,3,-7,-8,-13,-3,0
120,-1,-3,-1,-7,1,0,5,-6,0
125,0,-2,-1,3,12,4,-7,0,0
130,-2,1,2,4,3,12,3,-9,0
135,8,-3,-4,-4,-3,-3,3,16,0
140,-15,2,1,1,-4,-2,2,2,0
145,5,0,0,6,15,3,12,7,0
150,1,2,0,-8,-20,-2,-1,-10,0
155,-4,-5,-2,-2,16,-3,-14,1,0
160,5,-3,-2,1,-7,1,15,12,0
165,0,-2,21,1,-7,-3,-1,-4,0
170,-5,3,-13,7,9,2,6,3,0
175,-3,-4,-16,-13,-9,-4,-3,-8,0
180,-2,0,18,15,-6,-3,-6,-3,0
185,20,10,19,0,10,4,-3,5,0
190,-13,-8,-38,-1,6,-3,0,-7,0
195,-7,3,6,4,-1,-7,-11,-13,0
200,-2,3,43,21,3,-5,-1,-5,0
205,3,-1,-10,-15,2,-8,-5,3,0
210,1,-14,-32,-14,0,-2,-5,-10,0
215,-2,4,-6,-5,-3,-3,11,0,0
220,1,-5,-7,2,2,10,-6,1,0
225,-6,2,22,8,-7,-8,0,1,0
230,4,1,5,6,-1,2,-1,-14,0
235,-3,-4,-3,0,4,-2,-7,9,0
240,-4,-3,-4,-4,0,-5,25,-5,0
245,0,-1,-8,0,-5,1,-19,8,0
250,4,1,-4,-3,1,5,-7,4,0
255,0,-5,2,1,-4,-3,15,-1,0
260,-9,2,-5,1,21,2,-15,-1,0
265,-3,-1,-9,-8,-29,4,25,10,0
270,2,0,7,12,3,-17,-34,-14,0
275,9,-1,22,-3,1,6,6,12,0
280,6,-4,-46,-18,1,-3,-10,-16,0
285,-7,14,6,6,12,4,-1,-8,0
290,-13,-1,8,6,-1,6,16,-6,0
295,1,0,-8,1,-5,-15,-1,8,0
300,9,-1,2,-4,-8,5,9,-9,0
305,-9,-7,-5,-3,4,-3,-11,-11,0
310,-2,2,0,-1,-6,6,15,12,0
315,0,0,7,8,8,4,-17,-18,0
320,8,-1,1,-1,-6,4,1,68,0
325,-16,-5,-5,-2,-2,-2,-8,-58,0
330,16,3,8,-1,3,-3,7,53,0
335,-7,-5,-9,-3,1,-3,4,-22,0
340,-13,0,1,-3,-14,-1,-8,0,0
345,13,-3,2,7,7,6,14,16,0
350,-1,-2,-12,-17,-4,-4,-11,2,0
355,-2,-2,-4,-1,0,1,8,9,0
360,0,0,1,-1,1,3,-5,-2,0
365,0,-1,1,-1,1,-8,0,23,0
370,-13,-6,-4,-1,-3,1,-9,-13,0
375,14,1,-5,-4,2,3,-10,14,0
380,-22,-3,3,1,-3,-4,-8,-78,0
385,16,0,0,2,12,13,24,69,0
390,-1,1,0,-1,-9,-8,1,11,0
395,-4,-5,-5,1,-1,-4,-13,0,0
400,-17,-1,2,-2,-1,-1,3,19,0
405,29,4,1,-1,-2,1,1,-13,0
410,1,1,2,2,5,7,18,16,0
415,-14,-5,-2,1,0,-1,-14,-33,0
420,3,-3,-3,-9,-15,-11,14,18,0
425,-10,-3,-3,1,7,1,-3,-23,0
430,-5,0,0,-1,-8,-11,-12,-23,0
435,-1,-1,1,1,3,6,5,-7,0
440,7,1,-1,-1,-1,-3,0,22,0
445,-7,-4,-8,-9,-10,-8,-3,-20,0
450,3,-1,1,2,2,-4,-11,-9,0
455,-7,0,-2,-2,-4,2,2,-4,0
460,3,-2,-1,0,1,-1,0,12,0
465,-4,-3,0,-1,-2,-6,-16,-3,0
470,-4,0,2,1,2,5,20,-33,0
475,0,-2,-1,-2,-3,-3,-13,9,0
480,6,1,-2,0,-2,-2,-6,-6,0
485,-4,-3,-2,-1,1,-2,-8,-11,0
490,-1,-1,0,0,5,9,6,15,0
495,-1,-1,-1,-1,-6,0,1,4,0
500,-3,-2,-3,-1,5,0,1,-8,0
505,0,-4,-4,-3,-19,-25,-10,-8,0
510,-3,1,-2,-2,-1,0,-1,-9,0
515,1,1,-1,-2,0,3,4,4,0
520,-2,-2,-2,1,2,4,0,-13,0
525,-11,-1,-1,1,4,0,-4,-3,0
530,0,-4,-1,-2,-1,0,-4,-2,0
535,3,0,-3,-4,-4,-5,2,11,0
540,0,-5,0,-1,-1,-12,-34,-19,0
545,3,2,3,5,5,15,40,13,0
550,-3,-1,1,0,13,-5,-3,2,0
555,-7,-1,-1,-5,-17,0,1,-24,0
560,2,-3,-4,-2,-10,-12,-10,-1,0
565,-6,-5,-2,-7,-9,-2,-14,6,0
570,1,-1,2,-1,-3,-1,9,-4,0
575,1,-2,-2,1,7,2,-38,2,0
580,-1,1,1,0,6,0,17,2,0
585,-6,-2,-3,-1,-4,2,-1,-6,0
590,2,-2,-1,1,-1,15,13,-2,0
595,4,-1,-2,-5,-6,-11,-5,3,0
600,17,0,-1,1,2,6,6,16,0
605,-7,6,8,2,0,-10,-2,0,0
610,-1,-5,6,9,1,-5,-22,-7,0
615,-7,-2,-5,-6,-1,2,15,1,0
620,1,2,12,8,-6,-5,-5,-14,0
625,6,-3,-31,-18,-3,1,-3,6,0
630,-21,-7,4,3,-11,-18,-15,-25,0
635,1,3,-7,-17,-2,4,-21,20,0
640,0,2,10,16,12,13,90,36,0
645,11,-7,13,8,-2,2,4,19,0
650,-6,12,-8,-2,4,11,-4,-2,0
655,0,-4,-2,7,2,2,-1,5,0
660,-2,-1,-4,-7,-3,-1,-10,-20,0
665,0,-1,3,6,5,0,-26,-11,0
670,1,-3,-3,-1,-2,-7,-5,-4,0
675,-9,-3,0,0,-3,-5,6,20,0
680,-10,-5,-8,-8,-7,-1,-11,-61,0
685,-8,-9,-2,2,1,-3,0,-14,0
690,25,12,7,-4,-4,-10,-29,15,0
695,-9,5,4,4,3,6,10,-7,0
700,-13,-7,-4,-2,-1,-1,7,-6,0
705,-9,-1,-5,-5,1,1,-5,-2,0
710,-4,-4,-5,-3,-1,-1,-3,-28,0
715,2,1,-1,4,-1,0,29,4,0
720,0,-4,-3,-5,-3,-6,-22,18,0
725,2,-4,2,-7,-5,4,13,-19,0
730,2,1,-4,-6,-13,1,10,26,0
735,0,0,0,7,7,-8,-11,-15,0
740,-13,1,-8,-9,0,1,-16,-11,0
745,6,1,7,2,2,-6,-6,-22,0
750,12,-6,0,-2,-3,-6,14,36,0
755,-7,-2,-1,-1,-8,-5,-6,-36,0
760,12,3,0,2,6,4,-16,27,0
765,-16,2,-3,-1,10,16,-3,-34,0
770,-3,0,-3,2,0,-4,16,4,0
775,-1,-6,-7,-7,-13,-14,-12,-11,0
780,-4,-3,3,-2,-9,-18,-31,5,0
785,3,3,3,-1,-1,-2,19,16,0
790,-5,-4,0,-2,1,4,3,-6,0
795,3,0,-5,-1,5,4,6,5,0
800,-1,1,-4,-2,-3,0,-18,-5,0
805,-1,-6,-4,1,-1,2,3,8,0
810,-5,-2,2,-1,1,3,10,0,0
815,-2,-5,0,-5,-7,-8,-18,-5,0
820,7,7,-1,4,-1,3,20,17,0
825,1,-2,-1,-3,-2,-6,-3,-1,0
830,-5,-2,-3,-4,3,3,-5,-5,0
835,0,-1,0,3,6,3,-6,-1,0
840,-2,-4,-1,-8,-13,-8,-18,-18,0
845,7,4,-2,2,3,7,24,36,0
850,-9,-2,0,6,11,0,-10,-20,0
855,3,-1,2,-3,-14,-4,33,15,0
860,2,18,-10,-9,2,4,-17,-3,0
865,-5,-22,-2,0,-5,-7,-11,-1,0
870,-4,-15,10,-3,-4,-6,-28,-12,0
875,7,3,11,14,14,9,24,17,0
880,-4,6,-5,-2,-8,-1,3,-6,0
885,-2,-3,5,0,-5,-6,-13,1,0
890,-3,-1,-6,-10,-1,-4,16,-5,0
895,2,-14,1,-2,1,0,-14,-5,0
900,-2,2,5,4,0,-2,33,8,0
905,1,8,-9,-3,4,0,-23,2,0
910,-1,-3,-11,-3,-5,1,13,5,0
915,0,10,12,1,0,-3,-17,-11,0
920,-2,-18,-22,-5,0,-1,2,4,0
925,-11,4,2,2,0,1,20,-18,0
930,4,-3,-9,-5,-6,0,-6,5,0
935,-3,2,4,-6,-3,-4,2,-14,0
940,2,-5,12,7,6,4,-1,27,0
945,1,-2,-4,3,14,5,1,-1,0
950,-48,-3,0,-5,-15,0,-1,-31,0
955,43,6,-9,-7,-12,-11,-1,31,0
960,5,-3,0,-3,-1,2,-16,-29,0
965,10,0,-1,-1,0,10,24,12,0
970,-6,3,0,-2,4,-6,-5,12,0
975,-11,-1,-7,1,-1,0,-12,-22,0
980,-8,0,3,-1,0,-2,-1,-12,0
985,5,1,6,-1,0,-4,-4,47,0
990,6,4,-5,2,3,3,4,-9,0
995,-7,-6,-2,-1,2,2,9,32,0
1000,-1,4,3,0,-1,1,5,-1,0
1005,-25,-7,-13,-4,-4,-3,-13,-38,0
1010,27,4,7,0,-3,-8,-25,-12,0
1015,19,7,-5,-2,2,5,23,51,0
1020,-10,-6,1,0,1,2,1,-25,0
1025,-3,3,-1,0,-5,-7,-17,-11,0
1030,-4,-3,-8,-2,-3,-1,-11,6,0
1035,-13,-3,0,-4,1,3,-12,-42,0
1040,13,-3,4,3,4,1,28,34,0
1045,1,1,-2,-4,-5,-9,-29,51,0
1050,3,2,3,4,4,9,37,-37,0
1055,-14,-2,-1,1,5,-1,-6,-10,0
1060,-4,-3,-3,-2,-3,-2,-7,-6,0
1065,0,1,-3,-5,-8,-9,-8,-10,0
1070,0,-1,2,0,0,-1,-9,32,0
1075,-8,-2,-2,3,3,6,14,-19,0
1080,1,-2,-1,1,8,-4,-10,-18,0
1085,4,2,1,-6,-15,-5,-1,-5,0
1090,0,-3,-5,-7,-14,-7,-10,23,0
1095,-5,-7,-2,0,3,4,-4,-57,0
1100,0,-1,-1,2,2,-1,7,-12,0
1105,-20,-11,1,2,6,3,-7,-25,0
1110,8,7,3,1,2,3,0,-14,0
1115,-4,3,0,-2,-3,-3,-3,38,0
1120,3,0,-1,-2,-2,0,-2,5,0
1125,-5,2,-4,-2,1,1,9,-7,0
1130,-8,-7,-2,0,-2,-3,2,6,0
1135,-1,-3,-8,-7,4,-2,-13,-8,0
1140,-22,-5,0,-3,-10,-2,-1,31,0
1145,7,2,-1,2,-5,-2,8,18,0
1150,5,0,-1,-5,0,0,-4,2,0
1155,3,-4,-1,4,0,-3,2,-1,0
1160,2,1,-6,-4,2,-1,-10,-6,0
1165,3,-3,6,1,4,1,0,-19,0
1170,-2,-4,-1,4,2,-3,0,5,0
1175,-3,1,5,-1,-6,-1,3,9,0
1180,11,0,1,6,3,0,-6,-6,0
1185,5,5,-4,-5,-6,-5,-2,4,0
1190,0,-4,-3,-4,-6,-2,-4,-13,0
1195,-12,-1,-3,-5,-3,-3,7,-3,0
1200,-8,-3,-2,-1,-2,-1,-5,-15,0
1205,-4,3,1,4,8,1,3,-12,0
1210,14,3,1,3,1,2,3,-7,0
1215,-6,-9,-7,-11,-10,-6,-3,-4,0
1220,-10,-6,-5,-4,-2,-2,-2,8,0
1225,-4,-1,-2,-1,2,-2,-5,-27,0
1230,18,3,6,-1,-5,1,11,27,0
1235,2,7,6,8,0,-2,-8,-5,0
1240,5,-1,1,-2,3,0,7,10,0
1245,-11,-12,-9,-4,-6,-1,-3,-10,0
1250,0,5,1,0,10,3,-6,-12,0
1255,1,-4,-1,-2,-6,-2,16,26,0
1260,5,0,-1,-2,-2,-1,-5,-5,0
1265,-24,-9,-14,-6,-7,-9,-6,-4,0
1270,14,22,15,-1,4,11,5,22,0
1275,6,-9,-2,1,5,-7,-4,-8,0
1280,-8,-5,-1,1,-7,7,3,-5,0
1285,-5,-12,-3,-5,3,3,0,-10,0
1290,-30,-7,-4,0,-6,-16,-15,-24,0
1295,49,17,5,2,6,5,-10,6,0
1300,-8,7,7,0,-10,-4,27,26,0
1305,8,1,2,4,11,16,-6,-24,0
1310,-11,-6,-8,-5,-15,-11,13,13,0
1315,-29,-7,-5,0,5,14,-8,-41,0
1320,20,-5,-2,0,-1,-15,-13,-5,0
1325,9,5,4,-1,-7,11,21,14,0
1330,-7,-4,-4,2,12,12,-2,13,0
1335,-7,-5,-1,2,-6,-4,-8,3,0
1340,-23,-4,-5,-6,-4,-8,-8,-77,0
1345,19,0,5,1,1,2,2,45,0
1350,3,-2,-2,-4,-5,-6,-11,10,0
1355,-5,-3,-5,-2,0,-1,-1,7,0
1360,-14,2,-2,-2,3,3,-4,-4,0
1365,-5,-5,-11,3,-1,-10,7,0,0
1370,22,5,5,-1,-1,5,-8,22,0
1375,-1,-1,-1,-8,-5,-7,6,-5,0
1380,-5,-2,-4,0,-4,0,-11,-24,0
1385,0,7,4,2,-6,-9,-5,3,0
1390,-11,-13,-6,2,4,-2,4,-7,0
1395,-1,3,1,3,6,12,-3,4,0
1400,8,-2,-3,-3,-5,-12,-6,44,0
1405,3,5,1,-5,2,3,-4,-20,0
1410,-8,-1,-2,-2,-10,-17,-13,-41,0
1415,-21,3,-3,-5,-7,6,-5,7,0
1420,-7,-8,0,-3,-3,-7,3,21,0
1425,25,2,1,-4,-8,-46,-10,-20,0
1430,-7,-1,0,1,6,8,11,14,0
1435,0,-2,-2,3,4,20,5,1,0
1440,-4,0,-3,0,-1,9,3,19,0
1445,0,1,2,-5,-2,6,-5,4,0
1450,-9,-6,-4,2,0,-5,-3,-13,0
1455,-6,-3,-1,0,2,-16,-6,-10,0
1460,5,-4,-3,-1,-3,10,-2,-4,0
1465,3,1,3,3,2,1,-9,6,0
1470,-2,-3,-4,0,1,10,10,-2,0
1475,-4,-1,-4,-6,-4,-14,-8,-3,0
1480,6,-4,0,-5,-9,-6,2,8,0
1485,6,1,1,2,2,3,-5,-27,0
1490,-2,0,-3,0,9,3,0,11,0
1495,-1,-1,4,-2,-8,3,-1,-49,0
1500,-16,-14,-5,-4,-3,1,-1,-11,0
1505,-7,-1,4,-3,1,-5,-4,-7,0
1510,0,0,1,3,7,-7,-4,-24,0
1515,3,-4,-7,-4,-10,-1,0,6,0
1520,2,4,2,-1,13,5,0,10,0
1525,-4,-2,-5,-4,-14,-2,3,26,0
1530,0,-1,2,-1,-3,3,-1,-29,0
1535,3,-3,-5,1,0,-1,2,-21,0
1540,-7,0,0,3,6,0,-3,-4,0
1545,2,3,3,-4,-2,0,-4,12,0
1550,-1,4,-2,-1,-3,-3,-3,6,0
1555,13,-5,-2,5,4,-1,6,23,0
1560,-5,0,1,-2,3,3,-4,9,0
1565,0,-1,-10,-6,-2,-1,-5,-20,0
1570,-3,2,6,-1,-15,-5,-1,15,0
1575,-8,0,-3,-3,-2,-2,-2,11,0
1580,29,-3,-3,-1,-3,-3,0,-7,0
1585,-3,1,2,4,9,5,3,10,0
1590,-1,-1,-5,-3,-10,-5,-2,3,0
1595,-2,0,0,-2,-4,-5,-7,-6,0
1600,-10,-8,-5,-1,-3,-2,-4,-9,0
1605,-6,1,1,-1,2,1,2,-27,0
1610,2,-3,-4,0,3,1,-2,4,0
1615,-4,0,0,-1,0,-2,1,9,0
1620,-17,-4,-4,2,1,1,0,-13,0
1625,37,7,4,-2,6,3,2,15,0
1630,6,-2,-4,-4,-10,-9,-8,-21,0
1635,9,-4,-7,-6,-16,-7,5,40,0
1640,-7,7,10,3,14,4,3,29,0
1645,-13,-5,2,3,-11,2,3,-1,0
1650,-1,0,0,-3,7,4,1,-6,0
1655,8,2,-2,3,0,-1,-4,-11,0
1660,-4,-8,-7,-6,-9,-6,-9,-24,0
1665,-13,-1,1,1,2,-3,-5,14,0
1670,3,-1,1,-1,2,1,1,-5,0
1675,-4,1,3,2,4,2,0,-3,0
1680,-4,2,0,1,2,0,-2,-16,0
1685,-3,-4,-5,-3,-6,-1,1,7,0
1690,-14,-6,-3,-2,0,0,2,1,0
1695,-1,-1,-2,-1,1,0,-5,-18,0
1700,4,-2,-2,-2,-3,-1,7,48,0
1705,10,3,2,-3,-5,2,-1,13,0
1710,-2,0,0,-1,1,4,6,9,0
1715,-9,-1,-1,1,-1,-2,0,-2,0
1720,1,-5,-11,-5,-1,-3,-2,-2,0
1725,-32,1,3,-2,-11,-6,-4,-23,0
1730,22,0,0,4,4,0,-2,9,0
1735,9,4,9,3,8,5,1,15,0
1740,3,0,-9,-1,-7,-1,-1,6,0
1745,-8,7,49,2,3,-1,-4,-58,0
1750,5,-12,-70,-7,-8,-1,-6,-22,0
1755,2,2,6,-2,1,-1,8,53,0
1760,4,2,1,1,-3,1,-2,1,0
1765,5,-9,-10,-2,2,-3,-2,-3,0
1770,-3,9,22,-1,-1,-1,-1,10,0
1775,-6,1,-4,1,-2,-1,-2,-23,0
1780,3,-6,-4,2,6,3,2,-4,0
1785,0,0,-8,2,-4,-6,1,25,0
1790,-11,-3,11,-2,-8,-3,2,-4,0
1795,16,-3,-12,-5,-3,-4,-12,-32,0
1800,0,4,11,2,-2,1,5,26,0
1805,-9,-5,-13,-3,2,-2,-1,1,0
1810,0,0,3,5,6,2,1,26,0
1815,-6,4,11,1,3,3,3,6,0
1820,-4,-3,-3,-5,-1,-2,-3,-19,0
1825,5,-4,-11,-4,-8,-4,2,15,0
1830,-10,-1,6,-5,-14,-6,-4,2,0
1835,0,0,-4,1,7,3,2,5,0
1840,-5,-4,-2,0,-5,-1,-4,-15,0
1845,-10,-1,-9,-4,-5,-7,0,-25,0
1850,3,2,9,3,7,2,-2,-10,0
1855,-8,-8,-2,-2,-6,-4,-1,-3,0
1860,9,3,0,-1,3,3,-1,-14,0
1865,4,0,-4,0,4,1,-5,18,0
1870,-2,-2,0,-2,-8,-2,-5,-28,0
1875,1,2,0,1,0,-10,-6,15,0
1880,-15,1,0,-1,-5,2,6,-21,0
1885,9,-2,-3,3,3,5,0,11,0
1890,18,3,5,1,11,-7,-2,0,0
1895,-5,-4,-5,-11,-19,0,-2,4,0
1900,-2,-1,2,-1,-2,-7,-4,-11,0
1905,1,-2,-7,-1,3,2,-2,-1,0
1910,-5,1,2,1,0,-2,0,-2,0
1915,-4,-6,0,1,9,0,1,11,0
1920,-8,1,0,0,-2,-2,-3,-6,0
1925,18,0,-3,-8,-10,-1,3,8,0
1930,-6,-3,-3,1,6,2,3,29,0
1935,1,4,-2,-2,-5,-7,-4,-11,0
1940,2,-3,0,2,0,0,-1,11,0
1945,4,-7,-15,-1,7,0,-3,1,0
1950,-12,-1,5,-7,-11,-3,-5,-32,0
1955,8,4,3,-2,0,2,-2,-2,0
1960,1,4,-2,-3,0,-2,1,4,0
1965,-4,2,1,-1,-10,-5,-3,-3,0
1970,6,-3,-2,-3,3,1,1,7,0
1975,-22,-4,-4,2,6,2,-2,-11,0
1980,0,-9,-4,-4,-6,-3,-6,-16,0
1985,-5,3,0,-1,-2,-3,2,14,0
1990,0,1,2,-2,-5,2,-4,-16,0
1995,1,-2,-3,1,1,-5,-3,-11,0
2000,-2,5,0,-5,1,-1,-2,3,0
2005,-5,-4,0,-2,5,-4,-4,-8,0
2010,11,-1,-1,2,-9,3,9,66,0
2015,-1,2,1,0,3,-3,-2,-25,0
2020,2,-2,0,1,6,4,0,-2,0
2025,-15,2,3,1,-6,1,2,8,0
2030,-1,-1,-4,-3,4,-2,1,12,0
2035,10,-2,-2,-2,-14,1,3,35,0
2040,-3,-2,-3,-1,1,-4,-4,1,0
2045,-4,-2,0,2,1,0,-1,-20,0
2050,-9,-8,-5,0,5,-3,-1,-7,0
2055,4,1,-1,-5,-10,-3,-1,5,0
2060,-6,-3,-2,0,0,-1,-4,-31,0
2065,4,4,3,1,1,3,9,62,0
2070,-7,-2,0,1,2,1,-10,-19,0
2075,-2,-2,-1,-3,-2,-3,0,-1,0
2080,-1,0,-1,3,3,2,2,-9,0
2085,3,-1,1,-4,-4,0,1,-18,0
2090,-3,-1,-2,-3,3,-4,-5,-7,0
2095,2,-1,-1,1,-5,1,-3,-2,0
2100,-17,-6,-7,-7,-7,-10,-6,-3,0
2105,24,2,0,2,0,1,4,11,0
2110,-5,6,4,4,9,5,-2,-9,0
2115,-3,-5,-3,-4,0,-6,2,-5,0
2120,6,1,1,-4,-11,-7,-5,16,0
2125,-14,-8,-3,-3,1,-3,0,-26,0
2130,2,0,-2,-4,-6,-2,-1,-7,0
2135,5,1,-1,3,9,2,-6,-3,0
2140,-12,-6,-2,2,5,9,8,13,0
2145,-4,8,-6,-2,-3,-7,-3,0,0
2150,2,0,10,6,1,-4,1,-9,0
2155,-7,-1,4,-1,2,9,5,-5,0
2160,8,1,-1,-9,-14,-7,-4,-3,0
2165,-6,0,-5,2,2,-4,-3,0,0
2170,-6,-4,-3,-3,-11,-5,-2,-4,0
2175,7,0,-4,-1,3,-3,-2,2,0
2180,6,0,12,4,4,3,3,2,0
2185,-12,-5,-20,-4,-1,3,-3,-10,0
2190,-9,-3,-3,-4,-4,-3,-6,-23,0
2195,-7,-5,-7,-2,-1,0,-4,-38,0
2200,7,4,6,0,-6,-2,1,10,0
2205,-1,1,6,2,1,-2,0,8,0
2210,-6,-7,-5,0,6,-1,0,-1,0
2215,4,1,1,2,-1,3,2,5,0
2220,-1,-1,-9,-11,-1,-6,-1,-7,0
2225,-6,-4,3,-5,-13,-12,-10,-17,0
2230,2,1,-4,0,-4,1,1,4,0
2235,-3,1,2,0,0,1,-3,4,0
2240,-3,-1,-7,3,5,-2,-2,3,0
2245,-1,-2,6,-4,1,3,-3,5,0
2250,-5,-5,0,-4,-1,2,13,-1,0
2255,14,7,-1,4,3,0,5,15,0
2260,3,0,-2,3,5,2,-2,8,0
2265,0,-4,0,-3,3,1,-4,-12,0
2270,1,-3,-4,-3,-15,-10,-6,-4,0
2275,0,-1,0,-3,3,-2,1,26,0
2280,-4,-2,-4,-8,-4,-2,1,-8,0
2285,9,0,1,-2,-5,-3,5,38,0
2290,-10,-2,1,3,9,6,-5,-34,0
2295,-1,1,1,-1,-1,-2,-9,-10,0
2300,1,0,1,2,-4,-3,-2,-4,0
2305,-1,-2,-1,1,4,5,6,0,0
2310,-2,1,-2,-4,-4,-6,2,13,0
2315,-8,-6,-5,-6,-10,-15,-2,-7,0
2320,2,1,2,5,7,16,-1,-5,0
2325,0,0,0,-1,-3,-4,-5,-15,0
2330,6,-4,-2,-2,-1,0,1,14,0
2335,-6,-1,0,-1,3,0,-2,-11,0
2340,2,2,-3,-1,3,-6,0,22,0
2345,-5,-4,1,2,-10,-1,-10,-3,0
2350,3,1,-4,-5,-3,-3,-5,-4,0
2355,-3,-2,-1,-2,0,1,-4,-4,0
2360,-12,3,-2,1,-7,-7,0,-21,0
2365,0,-3,0,-4,9,3,-4,-17,0
2370,8,0,1,-1,-4,-3,1,7,0
2375,-3,-2,-2,-2,-11,-1,-3,-10,0
2380,-6,-4,0,1,4,0,-3,-5,0
2385,-2,1,0,-1,1,-3,9,-7,0
2390,-10,-2,-3,-2,-5,-1,-7,-3,0
2395,-13,-3,-1,1,4,1,4,-1,0
2400,35,3,2,3,6,0,0,18,0
2405,-7,-3,-2,-1,-11,-4,-6,-13,0
2410,1,-1,0,-2,3,0,-3,-5,0
2415,-7,-5,-1,-1,2,4,19,17,0
2420,-6,-1,-1,0,3,4,4,0,0
2425,2,2,-1,2,12,1,-5,-3,0
2430,3,2,-2,-7,-23,-10,-6,-6,0
2435,-5,-4,-1,-4,-1,-5,-5,-4,0
2440,-6,-2,-1,0,-2,-2,-3,-7,0
2445,4,-2,0,-1,0,-1,-1,-3,0
2450,-6,-1,1,7,12,7,8,14,0
2455,3,0,2,0,2,-3,-4,-1,0
2460,1,-1,-2,-6,-5,-6,1,4,0
2465,-6,-2,0,0,-9,-2,-3,-5,0
2470,3,0,0,-2,4,3,0,4,0
2475,3,0,1,3,-3,-1,1,-2,0
2480,-1,0,-2,2,15,10,8,0,0
2485,-3,-1,-2,-6,-15,-7,-8,1,0
2490,-2,-2,-2,-5,-6,-1,1,-2,0
2495,1,-1,-1,3,3,9,20,-3,0
2500,-7,-2,0,-2,-4,-13,-49,-6,0
2505,3,0,-2,0,2,3,-4,0,0
2510,2,-2,-2,-5,-9,-4,-3,5,0
2515,-2,-1,-1,-1,3,-3,-9,-4,0
2520,-5,-4,-2,-1,-7,2,12,-6,0
2525,0,0,-1,2,11,6,10,4,0
2530,2,0,1,4,9,5,-5,-1,0
2535,-7,-2,-4,-4,-4,-1,10,2,0
2540,-38,-6,-3,-5,-8,-7,-19,-6,0
2545,42,3,-1,2,-7,-2,10,-14,0
2550,6,3,0,0,6,4,13,20,0
2555,1,0,-2,0,-1,-4,-13,0,0
2560,-4,-1,-2,0,2,-1,-2,-6,0
2565,-17,-4,-1,-2,-13,-7,-1,0,0
2570,-5,0,-2,-5,1,-1,-1,-9,0
2575,6,-1,0,0,6,6,3,-4,0
2580,9,1,-2,-5,-8,-2,4,1,0
2585,-9,-3,-3,0,1,-4,1,2,0
2590,4,-2,-3,-3,-3,-8,-3,-6,0
2595,-5,-1,-2,-6,-15,-7,-11,-2,0
2600,9,1,1,4,5,6,10,-3,0
2605,-4,-1,2,1,10,9,4,11,0
2610,-3,0,-1,2,-1,-4,2,5,0
2615,-1,1,0,0,11,4,-15,-6,0
2620,3,-2,-3,-3,-18,-6,-5,-3,0
2625,-5,0,-2,-2,2,-6,6,0,0
2630,-4,-3,-2,-1,2,-4,-5,-7,0
2635,1,0,0,2,3,23,-2,-1,0
2640,9,3,1,1,-1,-23,1,5,0
2645,-7,-3,-3,-5,-9,-8,-8,-6,0
2650,-3,-3,0,-1,-10,-7,-4,-2,0
2655,1,-2,-3,-8,-3,-3,-6,12,0
2660,-3,-2,-1,-1,-3,5,4,-11,0
2665,-8,-1,-1,0,8,0,-1,1,0
2670,-8,-1,-1,4,1,5,-1,-5,0
2675,11,0,0,0,-2,-6,6,3,0
2680,0,-1,0,0,15,13,4,4,0
2685,-4,0,0,-4,-19,-9,-4,-3,0
2690,-2,-2,0,-3,5,5,0,-4,0
2695,-10,-2,-4,-9,-12,-10,-5,-7,0
2700,18,2,0,4,6,0,5,4,0
2705,1,0,0,-3,6,4,-2,5,0
2710,-4,0,-2,-1,-6,2,-1,-4,0
2715,-4,-1,-1,3,-4,-12,-4,-4,0
2720,-3,-3,0,-3,-4,-2,-9,5,0
2725,-4,-1,2,3,6,7,30,6,0
2730,3,-1,-1,-2,-2,-1,-9,-2,0
2735,2,0,-1,1,-1,-3,2,12,0
2740,-1,-2,-1,-1,2,5,14,-4,0
2745,1,-1,-3,0,3,1,-36,4,0
2750,-10,-7,0,-3,-7,-2,-22,-10,0
2755,17,9,-1,-4,-9,-1,21,2,0
2760,-6,-3,-3,-5,-6,-2,7,4,0
2765,2,-1,-2,2,-2,-6,-3,-5,0
2770,2,0,2,1,22,3,23,-5,0
2775,-5,-1,-1,1,-14,1,-36,0,0
2780,-2,-4,-3,-2,-1,-2,10,-7,0
2785,-4,-2,-2,-3,-4,-5,1,-8,0
2790,0,3,-1,-2,-10,-11,-4,2,0
2795,1,3,0,-2,3,11,28,-5,0
2800,0,-2,-1,-4,-2,-2,-8,-15,0
2805,-7,-2,-1,-1,3,-5,8,9,0
2810,-5,-2,-1,-4,-10,-4,-20,-20,0
2815,4,-1,-2,0,1,4,3,12,0
2820,0,0,1,1,0,0,12,9,0
2825,-5,-6,-2,-4,1,-4,14,-2,0
2830,-1,-1,1,3,1,1,-16,-24,0
2835,-4,-4,1,-6,0,5,39,26,0
2840,13,6,-2,3,12,6,2,24,0
2845,-6,-7,-2,-2,-12,-6,-2,9,0
2850,-1,2,2,1,3,5,-18,-12,0
2855,4,0,1,4,21,6,19,33,0
2860,-2,-6,-4,-7,-11,-8,27,-13,0
2865,10,6,0,-1,-2,13,-71,24,0
2870,-4,-1,2,8,6,-1,9,-3,0
2875,3,-2,-1,-5,-1,-3,-22,14,0
2880,-4,-4,-2,-9,-15,-4,-7,-35,0
2885,-5,-5,-2,-1,3,-4,13,0,0
2890,3,1,-2,-3,-7,-1,2,-8,0
2895,-1,1,2,5,15,4,-9,-19,0
2900,-12,-1,-2,0,-13,-8,-3,22,0
2905,0,-3,-1,-3,-1,-2,12,7,0
2910,8,0,1,6,11,8,-3,26,0
2915,1,-2,-1,-1,-2,-3,9,-21,0
2920,4,2,0,-4,-6,-2,3,20,0
2925,-5,1,0,1,-3,-8,-39,-24,0
2930,-8,-4,-2,-5,-4,1,8,3,0
2935,-9,-1,-6,-9,-11,-1,-15,-25,0
2940,-13,-3,1,10,18,3,10,6,0
2945,-1,-9,-10,-5,-3,0,15,-2,0
2950,21,4,0,-7,-13,-6,4,-3,0
2955,-3,3,5,3,3,-2,-19,-7,0
2960,12,8,1,3,5,2,17,20,0
2965,-3,-1,1,6,4,-3,-11,-12,0
2970,-16,-10,-6,-6,-10,-6,-8,-2,0
2975,-5,-7,-3,-3,-2,-5,-11,-28,0
2980,5,-3,-3,-1,0,0,-7,4,0
2985,-4,1,2,2,10,3,6,1,0
2990,-1,-2,-3,-3,-4,-3,4,9,0
2995,-5,-2,-1,2,-3,1,14,-2,0
3000,-10,0,-1,4,10,3,-22,4,0
3005,5,-7,-4,-9,-19,-11,8,-19,0
3010,20,4,1,-4,6,-1,-7,-1,0
3015,2,0,-1,0,-16,-6,1,-3,0
3020,-6,-4,0,-5,2,11,4,-5,0
3025,-7,3,4,11,14,-2,0,5,0
3030,5,-1,-6,1,-4,-1,-2,6,0
3035,4,-8,-5,-5,-1,-6,-1,0,0
3040,-4,5,7,-3,0,3,0,1,0
3045,4,5,3,-1,-9,9,4,5,0
3050,-7,-1,-2,1,-3,-5,-3,-1,0
3055,3,-3,-5,3,17,5,-6,-6,0
3060,-17,-7,-3,-5,-4,-2,-8,-14,0
3065,14,-1,-1,-4,-6,-7,3,0,0
3070,10,2,-1,-4,-6,-4,0,-7,0
3075,-14,-2,1,-2,-8,-2,4,5,0
3080,6,-2,-4,4,10,4,0,-16,0
3085,17,4,3,0,6,11,-2,3,0
3090,-13,0,0,0,0,-12,6,-2,0
3095,-10,-3,-2,-4,-14,-16,-11,-7,0
3100,8,2,0,2,15,7,-1,16,0
3105,-10,-3,-4,-5,-23,-21,3,-14,0
3110,-9,-3,-1,-3,-1,7,-10,-9,0
3115,-1,2,1,3,7,1,-7,-3,0
3120,11,-1,-1,3,4,-1,3,-11,0
3125,2,3,-1,-2,1,1,1,5,0
3130,-7,-5,-1,-7,-8,-2,6,4,0
3135,-1,-1,0,1,-1,2,-7,1,0
3140,1,1,1,-2,-8,-2,11,6,0
3145,-5,-2,-4,-8,-3,-2,-12,-6,0
3150,-28,-5,-3,0,0,-1,-6,-20,0
3155,26,2,2,-2,1,6,8,18,0
3160,-1,2,0,1,2,0,-2,14,0
3165,-9,-4,-2,0,6,4,3,-3,0
3170,-13,-2,1,5,8,-2,-5,-10,0
3175,9,-1,-4,3,-2,3,1,3,0
3180,-7,-6,-2,-9,-14,-6,0,7,0
3185,1,-1,-1,-5,-2,-1,-4,-8,0
3190,-19,-5,-7,-1,-6,-3,-1,-10,0
3195,32,13,9,5,13,3,3,11,0
3200,3,0,-2,2,-5,-3,-6,13,0
3205,-10,-3,-1,-4,-1,0,3,-13,0
3210,7,-1,0,-4,-10,0,-2,2,0
3215,-15,-2,-3,-2,1,1,1,2,0
3220,2,1,-2,-3,-3,-3,-5,-4,0
3225,0,-2,-1,2,0,-3,-1,-12,0
3230,6,2,1,0,2,4,4,9,0
3235,-8,-7,0,3,8,1,7,5,0
3240,7,-1,-1,-5,0,-1,-16,-9,0
3245,-11,1,1,-1,-8,1,5,12,0
3250,7,2,0,-2,-8,-4,3,3,0
3255,6,-2,-4,-5,-10,-6,-7,-16,0
3260,3,0,2,2,3,-1,3,0,0
3265,-3,0,2,4,9,3,3,3,0
3270,0,0,-2,-4,0,1,-12,-9,0
3275,-12,-2,-1,0,-8,-2,-1,-2,0
3280,3,-1,-3,-6,-10,-9,0,-1,0
3285,3,0,-1,3,15,2,0,-3,0
3290,1,0,0,-1,-7,0,3,5,0
3295,-9,-3,-2,3,16,4,-7,-20,0
3300,-4,0,-1,-7,-27,-4,1,-8,0
3305,-2,-2,-1,-1,5,2,-4,13,0
3310,8,-3,-1,1,7,7,4,7,0
3315,-10,-1,-2,-8,-26,-20,4,-9,0
3320,1,-3,-2,-2,4,-1,-12,1,0
3325,-1,0,1,5,3,1,-3,4,0
3330,5,0,-1,4,11,7,-6,-18,0
3335,-3,2,-2,-2,-2,-1,3,21,0
3340,7,-4,0,-2,-8,-1,8,16,0
3345,-1,-3,-4,3,6,3,2,-5,0
3350,-3,1,2,3,-5,-4,-4,-2,0
3355,-8,-1,0,-6,5,0,-7,-12,0
3360,-2,-1,-4,-3,-8,-7,-1,-2,0
3365,9,1,0,-1,1,1,1,9,0
3370,-3,-3,0,-3,-1,-3,1,5,0
3375,-2,-5,-3,0,2,7,-3,17,0
3380,-7,-2,0,-1,-3,-10,-1,-17,0
3385,-1,-4,-2,-2,-6,-1,4,18,0
3390,-17,2,0,1,3,-2,-2,2,0
3395,2,-4,-3,-2,3,2,-3,-23,0
3400,14,7,3,4,9,7,5,30,0
3405,7,2,-1,-1,-14,-3,-1,2,0
3410,-1,0,-2,-4,-1,-6,-5,1,0
3415,-8,-1,-3,-1,-4,2,6,-5,0
3420,-6,-4,-2,-2,6,1,0,5,0
3425,1,1,2,1,12,-1,0,-15,0
3430,2,-2,-2,-7,-20,-2,1,8,0
3435,-2,-1,0,-5,-9,-10,-3,-1,0
3440,3,1,0,3,10,2,3,-2,0
3445,7,0,3,5,11,2,-2,-6,0
3450,-9,0,-1,-5,-26,-4,-3,17,0
3455,-7,-2,-4,-6,3,-5,-4,-27,0
3460,4,-3,-3,1,-5,-7,5,42,0
3465,2,4,4,4,7,7,4,-7,0
3470,-5,0,0,3,14,6,-3,-2,0
3475,-3,-1,-4,-1,9,-5,-2,-6,0
3480,4,-4,-1,-7,-29,-8,-3,-8,0
3485,-1,-3,-6,-8,-14,-6,-2,12,0
3490,-5,0,3,8,14,5,1,-1,0
3495,-4,-1,-2,-2,-1,1,-3,-6,0
3500,8,5,0,4,22,0,0,16,0
3505,-3,-4,0,-1,-14,-4,-4,13,0
3510,0,-2,-1,-4,0,0,0,-25,0
3515,-1,-2,-2,-3,-8,-3,-4,7,0
3520,0,0,-1,0,0,-2,-5,-24,0
3525,-2,0,-2,-4,-10,-3,4,27,0
3530,1,0,-2,0,5,-1,-1,5,0
3535,4,0,0,2,1,1,0,-4,0
3540,-5,-3,-1,1,7,5,-2,-15,0
3545,-5,1,-1,-2,5,0,-1,4,0
3550,-2,0,4,-7,-19,-12,-7,-25,0
3555,-11,-9,-17,-7,-10,-2,3,-2,0
3560,4,1,5,6,15,2,1,13,0
3565,0,2,3,4,-3,4,0,-14,0
3570,1,1,0,-3,-1,-1,2,14,0
3575,-4,1,5,-2,-14,-4,-5,-15,0
3580,-1,-4,-7,-4,-3,-3,-4,-2,0
3585,-2,-2,-2,2,9,0,-1,-9,0
3590,2,1,3,3,9,5,4,-1,0
3595,2,0,-1,0,-2,2,4,12,0
3600,-4,-2,-2,0,4,-5,-9,-26,0
3605,-3,-2,-3,-7,-17,-6,-4,15,0
3610,-8,-3,-7,1,-3,-1,0,-40,0
3615,-1,0,5,0,4,3,-1,-2,0
3620,1,-1,1,2,7,-3,1,-3,0
3625,1,0,1,0,-12,-2,1,-2,0
3630,-2,-1,-2,-7,-7,-8,-3,-4,0
3635,-1,-1,-2,-2,-2,-6,-3,-3,0
3640,-2,1,1,-2,-1,4,1,-23,0
3645,-2,-2,-3,-1,11,6,-2,-15,0
3650,1,-3,-2,-1,-3,-11,-4,6,0
3655,-3,3,2,4,6,1,0,2,0
3660,0,-1,-1,-3,-7,-1,1,11,0
3665,0,-1,-2,1,11,6,-1,-12,0
3670,0,-2,-2,-1,-11,-6,-1,-15,0
3675,2,-1,0,-7,-2,-1,-5,5,0
3680,-10,-2,-2,-3,-14,-8,-1,-18,0
3685,2,1,-1,0,3,-4,-3,2,0
3690,-1,1,0,5,11,8,3,6,0
3695,-1,-2,1,1,1,1,-2,-4,0
3700,4,0,0,0,5,3,3,3,0
3705,-2,-1,10,-2,-6,1,-2,-10,0
3710,4,0,-12,-1,6,1,0,30,0
3715,1,-1,3,-1,-14,-7,-1,25,0
3720,-2,-1,-2,-3,1,-2,-2,-29,0
3725,0,-1,-2,-4,-13,-9,-4,7,0
3730,0,-2,0,1,15,9,-3,-14,0
3735,0,0,1,3,-2,1,4,2,0
3740,2,-1,-1,-1,1,-5,-1,25,0
3745,-1,-2,-2,-4,-7,-10,-4,0,0
3750,-4,-4,-2,-9,-22,-9,-8,-13,0
3755,-3,-1,-1,-1,6,2,-2,-1,0
3760,2,1,1,3,-1,7,4,0,0
3765,0,0,-2,1,12,2,0,-7,0
3770,1,-1,1,1,7,2,1,10,0
3775,-12,-2,-2,4,-1,-1,-3,-14,0
3780,-4,-5,-7,-10,-12,-5,-5,-6,0
3785,19,0,-2,-7,-9,-3,-2,3,0
3790,18,5,3,4,4,5,3,11,0
3795,-1,-1,-1,1,-3,-8,-3,-15,0
3800,-8,-1,3,5,9,5,-1,-14,0
3805,-19,-5,-3,1,4,2,0,-3,0
3810,-4,-3,1,-8,-7,-4,-3,-3,0
3815,3,-1,-3,-2,2,1,2,-3,0
3820,-6,-3,0,-3,-6,-3,-4,-10,0
3825,2,0,-2,2,3,-1,4,18,0
3830,-5,-1,2,6,9,4,-1,-23,0
3835,5,0,-2,-2,4,1,2,29,0
3840,-2,-3,-4,-9,-27,-9,-3,15,0
3845,-1,-2,-1,-6,4,-2,-6,-46,0
3850,0,-1,0,2,-5,-7,1,19,0
3855,-5,0,0,1,6,5,1,-13,0
3860,2,1,-1,9,16,4,-2,-10,0
3865,0,0,-2,-3,3,5,3,18,0
3870,-10,-3,-5,-12,-20,-7,-6,1,0
3875,3,-2,-2,1,-4,-7,-2,-9,0
3880,-4,-3,-1,-5,-7,-1,-4,-4,0
3885,4,0,-1,2,4,-1,3,29,0
3890,-3,-1,-1,7,24,17,3,1,0
3895,1,1,1,-6,-24,-10,-1,-11,0
3900,4,0,-2,-3,-7,-8,-2,1,0
3905,-4,-2,-1,1,6,3,-4,-9,0
3910,-2,-1,-1,-2,-3,-8,-4,-22,0
3915,2,-2,-2,1,6,4,3,13,0
3920,-3,-2,-1,-2,1,1,-1,-3,0
3925,-2,-2,-2,-3,-15,-8,-3,-2,0
3930,-4,-1,-2,-3,-2,1,-1,5,0
3935,0,-3,-3,-4,-5,-2,-2,11,0
3940,4,1,1,4,2,2,5,4,0
3945,-3,-1,3,3,7,1,-6,-3,0
3950,6,1,2,1,-1,-1,5,26,0
3955,-3,-7,-6,-4,-2,1,-1,2,0
3960,1,-2,-1,0,2,-3,0,9,0
3965,1,-1,-3,0,-6,-3,-1,3,0
3970,-5,-3,-1,-1,-2,-2,-1,-3,0
3975,0,-1,-1,-2,-5,-4,0,-12,0
3980,-1,0,0,-1,0,2,-5,1,0
3985,-4,-1,0,6,13,5,10,8,0
3990,-3,-3,-3,-5,-12,-8,-2,-8,0
3995,0,1,-1,-8,-6,-2,1,-2,0
4000,-2,-3,0,3,2,1,-4,6,0
4005,-2,-1,-1,-1,-3,2,3,3,0
4010,-1,0,-3,-1,9,2,-2,-4,0
4015,-3,1,4,8,11,7,-1,-4,0
4020,-1,-2,-2,-5,0,0,1,10,0
4025,-3,0,-1,-5,-20,-14,-5,-17,0
4030,4,-2,-3,-3,-7,0,1,32,0
4035,-1,1,0,-1,16,-1,-2,-6,0
4040,-2,-2,-1,2,-7,-1,2,0,0
4045,0,-1,-4,-5,-1,0,-1,-14,0
4050,-2,-4,-2,-2,-8,0,-2,-15,0
4055,0,1,0,2,-1,-4,-6,-1,0
4060,0,-2,-2,-1,10,0,-7,-15,0
4065,2,-1,0,3,0,4,10,3,0
4070,-2,0,3,2,0,-1,-3,-16,0
4075,-2,-2,-2,-3,4,2,-2,-4,0
4080,1,1,2,-1,-1,3,2,9,0
4085,-3,-3,-1,-5,-16,-12,-12,-4,0
4090,-2,0,2,3,21,0,1,-16,0
4095,-1,-2,-4,-6,-13,-4,-3,6,0
4100,-5,-3,-4,-8,-13,-3,3,-5,0
4105,1,1,0,0,3,9,-2,15,0
4110,-1,-1,0,2,3,-11,5,12,0
4115,3,0,0,0,-3,0,-1,7,0
4120,-3,1,-1,0,3,0,-1,-12,0
4125,-4,-1,-2,-3,3,3,-1,-8,0
4130,-6,0,-3,-5,-5,-1,-3,-7,0
4135,14,2,1,2,-2,1,1,13,0
4140,2,0,0,0,-2,0,2,6,0
4145,-10,-2,0,4,15,4,1,-11,0
4150,10,-1,-2,-2,-9,4,0,8,0
4155,-3,-4,-1,-6,-10,-8,-5,-14,0
4160,-3,2,1,-3,-2,-1,3,1,0
4165,5,0,0,-6,-10,-7,-2,7,0
4170,-8,-3,-3,1,2,1,0,11,0
4175,0,0,2,2,10,3,-3,-10,0
4180,-12,-3,-2,0,-4,-4,-1,-12,0
4185,10,2,1,1,0,-5,-1,16,0
4190,5,0,-1,-7,-12,-2,-1,-12,0
4195,-16,-2,0,3,6,2,0,-3,0
4200,0,1,1,-1,5,3,-2,11,0
4205,-5,-3,-1,0,2,-6,-2,-2,0
4210,-6,-2,1,-2,-5,-4,-3,-1,0
4215,-3,-5,-2,-2,-8,-3,-5,-9,0
4220,3,-1,-3,-6,-3,2,1,-1,0
4225,11,1,-2,1,7,3,6,13,0
4230,7,3,2,6,3,3,-2,-12,0
4235,-9,-3,-3,-17,-15,-6,-2,-7,0
4240,-15,-6,-3,-2,-5,-9,-3,6,0
4245,2,0,-3,-2,-7,-3,-3,-14,0
4250,-1,-2,1,2,-3,-2,1,-17,0
4255,2,0,0,2,7,3,-2,5,0
4260,0,-4,-1,3,8,2,-1,-7,0
4265,-12,-6,-4,-4,-7,-1,-1,-25,0
4270,-9,0,-2,-5,-7,-4,-5,-5,0
4275,14,3,-3,-1,-3,-6,4,31,0
4280,2,-3,-2,-3,-5,-3,-4,-22,0
4285,-5,-3,-1,11,20,10,-4,14,0
4290,-3,-2,-2,-3,-4,-5,0,6,0
4295,-11,-2,-5,-8,-11,2,4,-14,0
4300,-3,-4,-3,-4,-10,-10,-8,-2,0
4305,6,-1,1,-1,-2,4,0,3,0
4310,-15,1,2,4,11,0,2,-5,0
4315,8,2,2,9,28,6,1,6,0
4320,-2,0,1,-3,-21,-5,1,-7,0
4325,-1,-3,-3,-12,-14,-7,-3,10,0
4330,-1,-4,-2,-1,-8,-8,-5,-7,0
4335,-4,0,-1,2,11,10,-4,-17,0
4340,4,2,0,4,5,-27,-1,23,0
4345,-7,-1,-1,-4,-5,9,2,-3,0
4350,3,1,0,-2,2,-2,-4,2,0
4355,-6,-3,-1,3,-11,-13,-7,-9,0
4360,6,0,-2,-3,4,20,4,-20,0
4365,3,2,0,-5,-8,-5,-2,9,0
4370,-2,-1,-3,-4,1,8,2,-9,0
4375,2,1,2,5,5,1,-2,-4,0
4380,1,0,-1,2,5,4,-1,9,0
4385,-5,-3,-1,-3,-8,-6,1,-15,0
4390,2,-2,-3,-6,-5,-5,-2,3,0
4395,-3,-2,-2,-4,-2,-5,-2,3,0
4400,0,-3,-3,-3,-4,4,-2,-2,0
4405,-3,0,2,5,9,-7,-3,-14,0
4410,1,-2,0,4,10,0,-2,7,0
4415,-1,0,-1,-1,-16,0,9,-3,0
4420,1,-1,2,2,20,36,-1,7,0
4425,-1,1,-4,-6,-17,-36,-6,-5,0
4430,1,-1,-2,-1,-5,-4,-5,5,0
4435,0,-2,-1,0,7,12,8,4,0
4440,2,2,2,2,-1,-12,-3,-1,0
4445,-2,0,0,5,26,23,16,6,0
4450,0,-2,-3,-6,-29,-6,-3,9,0
4455,-2,-1,-2,-6,-2,-5,-4,-11,0
4460,0,-2,-1,-6,-12,-1,0,9,0
4465,-1,0,-1,3,8,-9,-16,-5,0
4470,-3,-3,-2,1,6,8,10,-1,0
4475,-1,0,0,1,-5,1,1,13,0
4480,-3,0,0,1,6,-7,-7,-8,0
4485,-3,-1,-3,-3,-11,-2,4,-4,0
4490,0,-1,0,3,10,27,-4,-4,0
4495,0,-2,-2,-2,-3,-41,-9,2,0
4500,2,1,-1,-1,-12,15,6,15,0
4505,-1,-3,-4,-7,-12,-7,-4,-8,0
4510,2,1,-2,-2,2,-25,-5,10,0
4515,-4,-4,2,-2,-12,5,-6,-14,0
4520,0,1,-1,0,1,-21,-7,-6,0
4525,2,0,1,1,14,22,4,16,0
4530,1,-1,-2,3,-3,2,6,4,0
4535,-3,-2,-4,-7,-5,-6,-3,-9,0
4540,-3,-1,-2,-4,-3,-5,-6,11,0
4545,-1,-1,2,-3,-16,3,4,-15,0
4550,-2,0,1,3,12,2,1,-20,0
4555,0,1,1,7,18,7,3,-3,0
4560,1,0,0,-2,1,2,1,6,0
4565,-1,-1,-1,-4,-14,-3,-3,3,0
4570,-8,-3,-1,-2,-3,3,-4,-6,0
4575,6,1,-1,1,2,-2,-2,-24,0
4580,-5,-2,-2,1,-5,-13,3,18,0
4585,8,-1,-1,1,1,4,-3,-3,0
4590,-1,0,1,-4,-1,-9,-2,5,0
4595,-1,-2,-3,3,9,8,1,8,0
4600,-4,-2,0,-2,-7,6,0,-5,0
4605,-3,-2,-2,-5,-7,-9,-4,-12,0
4610,3,-1,-3,-1,-2,-8,1,2,0
4615,-3,1,1,-1,-3,-3,1,12,0
4620,2,0,1,4,9,6,4,-6,0
4625,-6,-4,-2,-2,-1,2,-6,-14,0
4630,-2,-2,-3,-1,0,-1,-2,-12,0
4635,-7,0,0,-7,-17,-5,-4,31,0
4640,2,-2,-3,-9,4,12,3,-16,0
4645,-2,3,1,8,8,-10,-1,-6,0
4650,0,-3,-2,3,2,-1,1,9,0
4655,-1,-3,-4,0,-5,-7,-7,-10,0
4660,-8,-2,-3,0,-3,-2,-2,13,0
4665,7,-2,-1,-6,0,5,3,11,0
4670,-4,-1,0,-3,-4,2,1,2,0
4675,-1,0,1,5,16,-4,-2,-6,0
4680,-3,0,0,-1,-7,4,0,-23,0
4685,1,0,-4,-4,-8,-13,-2,16,0
4690,0,-2,-1,-2,-3,-4,-1,-23,0
4695,0,-2,0,-2,-5,7,-1,-7,0
4700,1,1,0,8,25,-2,0,3,0
4705,-2,0,-3,-4,-11,3,1,-4,0
4710,0,-1,-1,-4,-8,-2,-2,6,0
4715,-2,-1,-1,-4,6,4,-1,-1,0
4720,1,-1,-1,1,-9,-5,-4,-9,0
4725,-5,-2,-3,-2,5,-2,-1,4,0
4730,1,0,0,0,1,-1,-4,2,0
4735,0,-2,-1,-3,-10,-3,2,-3,0
4740,-1,-2,1,1,5,-2,1,3,0
4745,-3,-1,-1,5,-5,5,-1,-5,0
4750,-2,0,-3,-6,-2,-10,-4,-11,0
4755,-1,0,-3,-4,7,6,2,1,0
4760,-1,-1,0,-6,-23,-6,0,10,0
4765,-2,-1,1,1,7,1,0,-16,0
4770,-2,-1,-3,0,2,4,-1,5,0
4775,0,-1,1,-1,-5,-5,-4,-12,0
4780,0,-1,-2,-1,5,-1,3,-4,0
4785,-4,0,-1,-1,12,4,-2,1,0
4790,0,-1,-1,0,-12,-2,4,18,0
4795,0,-1,-1,-4,-9,-2,0,-5,0
4800,-1,-2,-2,-3,-2,-2,-4,4,0
4805,-3,-3,1,1,8,-3,-5,-6,0
4810,0,-1,-1,1,3,9,3,0,0
4815,-2,-1,0,5,1,1,-2,4,0
4820,-1,-2,-3,-13,-14,-13,-5,-8,0
4825,0,0,-2,-3,-6,-2,3,6,0
4830,-3,-2,0,3,9,6,1,-2,0
4835,1,-1,-2,-3,-2,-6,-4,-2,0
4840,-1,-1,-2,-1,-2,0,-2,2,0
4845,-3,-1,-3,-5,-10,-11,-2,-5,0
4850,-1,-1,-1,0,1,-1,-3,4,0
4855,-3,-1,0,0,-13,0,2,4,0
4860,1,1,0,4,22,5,-3,-5,0
4865,3,-1,0,-2,-6,2,2,3,0
4870,-2,-1,3,3,7,-1,-2,-8,0
4875,-2,0,-1,-2,-10,-3,4,2,0
4880,-1,-2,-1,-7,-13,-4,-4,-15,0
4885,-1,-2,-2,2,9,2,1,8,0
4890,2,1,-1,0,4,2,1,-3,0
4895,-4,-1,-2,-4,-14,-7,-7,-10,0
4900,5,1,0,2,-3,0,1,0,0
4905,0,-1,0,2,11,9,3,-3,0
4910,-6,-1,-3,-5,-15,-8,-4,0,0
4915,5,-2,-3,-2,3,-2,-1,-6,0
4920,-3,0,1,1,6,7,-1,2,0
4925,0,-1,1,7,-1,-6,-4,-13,0
4930,2,-2,0,-7,0,-3,1,5,0
4935,-4,-3,-1,-1,10,7,1,-2,0
4940,-1,0,-2,-4,-16,5,0,2,0
4945,-3,0,0,2,7,-16,-4,1,0
4950,0,1,1,-4,-16,0,-2,-1,0
4955,-1,-2,-4,-4,1,-2,-2,-2,0
4960,-4,-2,-3,3,13,3,3,5,0
4965,3,-1,-2,1,-7,1,0,3,0
4970,-10,0,0,0,6,3,1,-5,0
4975,10,3,0,3,2,-1,2,10,0
4980,-7,-2,-2,-9,-5,-2,-3,-1,0
4985,-6,-4,-4,-7,-10,-5,-8,-9,0
4990,7,-1,-2,-1,-1,-4,5,27,0
4995,-3,-1,0,7,22,8,1,-7,0
5000,-2,-3,-1,-6,-13,-13,-1,-6,0
5005,2,0,1,7,15,6,2,-2,0
5010,-9,-2,0,10,25,6,4,6,0
5015,11,1,-4,-19,-39,-2,-5,-6,0
5020,-1,-2,-6,-5,1,-6,-6,-8,0
5025,-10,-4,-1,-2,0,-5,-2,-1,0
5030,5,2,4,15,11,4,2,0,0
5035,2,5,8,7,21,13,5,4,0
5040,-4,-3,-7,-20,-31,-10,-8,-7,0
5045,-3,-4,-6,-14,-28,-18,-4,0,0
5050,-3,-4,-1,5,9,-7,-3,-3,0
5055,0,0,1,3,6,12,5,1,0
5060,5,2,2,7,14,5,2,-1,0
5065,-5,-1,-1,-3,-6,-4,-5,-1,0
5070,1,-1,-5,-3,-2,-3,-1,-3,0
5075,-2,0,-2,6,5,-1,1,2,0
5080,-6,-2,2,5,14,8,2,-4,0
5085,1,0,-3,-3,3,8,1,1,0
5090,1,-1,3,3,5,-7,-3,-2,0
5095,-3,-2,-2,-9,-31,-6,-1,0,0
5100,2,-1,-2,1,11,0,-3,-2,0
5105,-2,1,-1,1,-7,1,0,0,0
5110,9,-1,-6,-15,-14,-9,-4,-1,0
5115,-5,-4,-5,1,-9,-5,-3,-4,0
5120,1,0,3,5,14,9,1,0,0
5125,2,0,4,2,-3,-7,0,1,0
5130,-5,-2,0,0,12,3,-3,-4,0
5135,-3,-2,-3,-4,0,3,0,-4,0
5140,1,0,-1,-2,-11,-3,0,-2,0
5145,-3,1,-1,4,15,10,3,1,0
5150,0,0,-1,-1,-7,-1,1,0,0
5155,0,-1,2,2,-1,-8,-1,2,0
5160,-1,-1,-2,-5,-4,6,0,-4,0
5165,-1,-3,0,-3,7,-3,-3,1,0
5170,-3,0,0,-4,-18,-5,0,1,0
5175,-8,-1,0,2,16,8,0,-2,0
5180,4,1,-1,4,5,-6,-2,0,0
5185,-2,-3,-1,-5,-11,-2,-3,-6,0
5190,-1,-1,-1,-3,-3,-4,1,2,0
5195,17,3,0,1,7,6,1,2,0
5200,-5,-4,-1,2,0,0,-2,-3,0
5205,-3,1,1,6,18,3,1,-1,0
5210,-3,-2,-2,-4,-18,2,-4,-1,0
5215,-5,-1,-4,-9,0,-10,1,-3,0
5220,-2,-1,-1,2,-14,-4,-4,0,0
5225,1,-3,-5,-10,-15,-9,0,-2,0
5230,-1,-2,-1,2,11,6,0,-1,0
5235,-2,0,0,4,18,-1,0,0,0
5240,1,1,-1,3,-3,1,-2,-3,0
5245,-3,-2,0,1,-5,-5,1,3,0
5250,2,0,0,-4,-3,1,-2,-2,0
5255,-4,-1,-1,2,5,-2,-1,0,0
5260,-2,-1,-2,0,6,4,1,0,0
5265,5,2,2,0,1,2,-2,0,0
5270,-3,-3,-8,-10,-24,-16,0,-1,0
5275,-4,-5,-1,-9,-13,2,-2,-1,0
5280,-1,-2,-3,1,-4,-5,1,0,0
5285,-1,0,-1,1,4,3,-4,-1,0
5290,0,-2,1,1,1,-10,-2,0,0
5295,0,1,0,5,4,1,-1,0,0
5300,0,-2,-3,-6,-5,-1,1,-1,0
5305,-1,1,-1,-2,-1,1,-1,1,0
5310,-1,0,2,4,15,6,0,-1,0
5315,-1,-2,0,6,6,-1,0,-1,0
5320,-2,-3,-2,-5,-4,-2,-1,1,0
5325,1,-2,-4,-5,-19,-4,-2,-3,0
5330,0,-1,-1,1,-3,-7,-5,-3,0
5335,-3,-1,-2,-5,2,3,0,1,0
5340,1,0,0,1,1,-1,-1,-1,0
5345,-1,-1,-1,1,1,-3,0,0,0
5350,-2,0,-1,-2,-1,4,-2,-2,0
5355,-1,-1,0,3,2,2,0,-3,0
5360,-2,-1,1,3,10,6,2,-1,0
5365,-2,-1,-2,-5,-8,3,0,-2,0
5370,-2,-1,-5,-6,-10,-11,-6,-2,0
5375,1,-1,-1,-2,-4,-4,-6,-2,0
5380,-2,-1,0,1,9,0,-3,-3,0
5385,1,-1,-1,1,-7,-4,1,2,0
5390,0,-2,1,-5,-2,7,2,1,0
5395,-2,-1,-3,-1,9,-4,-3,-2,0
5400,-1,-3,-1,-7,-19,-11,-5,-3,0
5405,-3,-2,1,3,4,3,0,-2,0
5410,-1,-1,1,6,10,9,2,-2,0
5415,-1,0,0,-2,-3,-5,-3,1,0
5420,-2,-1,-3,-4,-3,-5,-8,-3,0
5425,0,-1,1,-1,-1,4,-1,0,0
5430,-6,-2,-3,-3,-9,-4,2,-1,0
5435,9,0,0,2,5,2,1,0,0
5440,0,-1,0,4,3,3,1,-1,0
5445,-3,-1,-1,-6,1,-2,-3,-1,0
5450,-1,-2,-2,-4,-12,-5,0,-1,0
5455,-6,-1,-3,-3,-5,-1,-5,-3,0
5460,-2,-1,0,1,3,5,4,0,0
5465,0,0,-1,1,-2,-4,0,1,0
5470,2,1,1,-1,13,9,3,2,0
5475,-2,-1,-2,1,-12,-14,-5,-1,0
5480,-2,-1,-1,-2,-1,-2,-4,-6,0
5485,1,-2,0,4,4,3,1,5,0
5490,0,0,2,4,19,7,-4,-2,0
5495,0,-1,-4,-9,-28,-3,0,-1,0
5500,-2,-1,-2,-2,1,-5,0,-1,0
5505,1,1,-1,0,0,3,1,6,0
5510,-1,0,-2,-3,-3,-9,-2,-1,0
5515,-1,-1,-1,0,3,2,-1,-2,0
5520,-2,-1,1,0,-5,-3,-4,-2,0
5525,-1,0,0,-1,7,8,-3,-6,0
5530,-1,-1,-3,0,-6,-6,-3,-1,0
5535,-5,-3,-3,-7,-17,-10,-4,-5,0
5540,-1,0,-2,2,11,5,-2,-3,0
5545,-2,-3,3,2,0,6,4,0,0
5550,-1,0,-1,0,3,4,-1,-3,0
5555,-2,-3,-2,1,12,3,-1,0,0
5560,-2,-2,-4,-3,-20,0,-2,-4,0
5565,-2,-2,-2,-4,-8,-15,-7,-2,0
5570,0,0,-1,-2,-1,-7,-1,0,0
5575,-3,1,-1,-5,-4,-1,-1,-2,0
5580,-1,-3,-1,-1,2,-2,0,-1,0
5585,-2,-1,-2,-5,-7,-4,-3,-3,0
5590,-3,0,0,-2,-6,-4,-1,-4,0
5595,-2,-2,-1,4,12,2,-3,5,0
5600,1,-1,-3,-14,-28,-12,-4,-2,0
5605,-6,-2,0,0,11,8,2,-1,0
5610,8,0,-1,1,-1,3,0,-2,0
5615,-3,-2,-2,1,11,-4,-2,-3,0
5620,-1,-1,2,1,-14,-1,-2,-2,0
5625,2,-1,-1,-6,-11,-6,-1,3,0
5630,-2,0,-1,1,11,-2,-2,3,0
5635,0,1,0,1,-3,9,2,-4,0
5640,0,-2,-2,-2,6,2,1,-3,0
5645,2,-1,0,1,-4,-9,-3,1,0
5650,-2,-2,1,0,-6,-3,-2,-3,0
5655,1,0,1,4,11,3,-1,0,0
5660,-3,0,0,-7,-8,-2,1,0,0
5665,-3,0,-3,-4,-4,0,-1,-2,0
5670,-2,-2,-1,2,3,-2,0,-1,0
5675,0,-2,-1,1,10,2,1,0,0
5680,-2,2,-1,0,-18,-9,-4,0,0
5685,-2,-2,-1,0,3,0,-4,-2,0
5690,-3,-1,-1,-4,-1,-2,0,-1,0
5695,-1,0,-1,-7,-7,-3,-3,-4,0
5700,-2,0,-2,2,5,-1,-1,-4,0
5705,3,-1,0,3,8,3,2,3,0
5710,-3,-1,-1,-1,-4,-5,-2,-2,0
5715,-5,-2,-1,1,0,9,-2,-2,0
5720,2,-3,-5,-5,-8,-14,0,0,0
5725,-2,1,0,0,-2,-2,0,-6,0
5730,0,-1,-1,1,0,1,2,4,0
5735,0,-1,-1,2,-4,-7,-4,-1,0
5740,-1,0,0,-8,-3,3,-1,0,0
5745,-3,0,-3,-1,4,-4,-6,-3,0
5750,0,-1,-3,0,-6,4,7,1,0
5755,0,-1,-2,-5,-5,-8,-1,-2,0
5760,-4,-2,1,10,21,10,-1,-1,0
5765,0,-1,2,0,-1,-4,-1,-2,0
5770,-2,-2,-3,-7,-13,-6,-4,-2,0
5775,0,-1,-5,-9,-13,-8,-3,-2,0
5780,-4,-4,-6,-4,-2,-3,-2,1,0
5785,0,0,0,3,4,3,2,-1,0
5790,0,0,0,9,11,7,0,1,0
5795,-1,-1,-1,-6,-14,-4,-2,0,0
5800,-2,0,-2,-3,1,-1,-1,-4,0
5805,-1,-1,-1,-1,1,2,-1,0,0
5810,-2,0,0,0,1,-2,-3,-2,0
5815,-2,-1,-2,-2,-3,-7,-3,-1,0
5820,1,-1,1,3,7,4,-1,-1,0
5825,0,-1,-1,-1,2,-2,1,1,0
5830,1,-2,-1,-2,-6,-6,-2,1,0
5835,-2,0,2,1,10,6,1,-2,0
5840,-2,-1,-3,-6,-3,-7,1,-1,0
5845,-2,0,2,5,8,6,1,-2,0
5850,-1,-2,-1,0,-11,2,3,-1,0
5855,0,-1,-1,1,6,-5,-5,2,0
5860,-1,-2,-2,-3,-4,1,-2,-1,0
5865,1,-2,-3,-6,3,-4,0,-2,0
5870,-2,-1,0,-1,-1,-6,-5,-1,0
5875,1,2,5,5,1,12,4,2,0
5880,-1,0,0,2,6,2,0,-1,0
5885,-2,-2,-2,-3,-10,-5,-1,-1,0
5890,-3,-2,-3,-4,-2,-3,-4,-2,0
5895,-1,-2,-2,-4,-9,-2,1,-2,0
5900,0,1,1,-4,-3,-1,-2,0,0
5905,1,2,0,-2,5,3,0,1,0
5910,0,0,1,4,5,0,0,0,0
5915,-4,-2,-2,0,-1,-2,-2,-2,0
5920,0,-1,1,1,3,5,2,-1,0
5925,-1,1,1,2,3,4,-3,0,0
5930,0,-1,-3,-6,-10,-9,-2,-1,0
5935,-2,-1,-5,-1,8,-3,-5,-3,0
5940,-2,0,-1,-5,-24,-7,0,-2,0
5945,0,0,-1,-5,8,3,3,0,0
5950,-1,-2,1,0,-5,-1,0,-1,0
5955,-1,-1,-4,-2,4,-6,-6,-1,0
5960,-1,0,-2,7,2,1,3,0,0
5965,-1,-1,-1,-1,-2,1,2,0,0
5970,0,0,1,-8,-13,-1,-3,1,0
5975,1,-1,-3,1,11,2,2,0,0
5980,0,0,2,0,-9,-2,-4,-1,0
5985,-1,-2,-2,2,-11,-10,-2,-1,0
5990,-2,0,1,-1,1,1,-1,-7,0
5995,-2,-2,-1,-2,-5,-1,0,-4,0
6000,2,0,1,6,17,4,0,3,0
6005,-1,-2,-2,-2,-3,-1,2,-1,0
6010,-1,-3,-3,-3,1,-1,-2,-1,0
6015,-1,-1,-1,-4,-9,-3,-3,-1,0
6020,-3,-3,-1,-1,2,-3,-1,-2,0
6025,-1,-1,1,2,3,1,-4,-1,0
6030,-2,0,-2,0,4,5,3,1,0
6035,-1,-1,1,-7,-6,4,0,-1,0
6040,0,-1,0,4,11,-3,0,0,0
6045,0,-2,-5,-6,-23,-1,-1,-1,0
6050,-2,0,-2,-4,0,-2,-2,-1,0
6055,-1,-1,-2,1,4,-1,-3,-3,0
6060,-3,0,0,-1,-1,5,-3,-7,0
6065,1,-1,0,1,-1,-5,2,6,0
6070,-2,-1,-1,-3,8,-2,-2,-1,0
6075,0,-1,-2,-6,-32,-10,-2,-1,0
6080,0,-1,-5,-3,2,1,-4,-1,0
6085,1,-2,-1,0,7,-3,2,-1,0
6090,0,-1,1,-3,-14,-2,1,1,0
6095,-2,-1,-2,-2,12,5,1,-1,0
6100,-1,-1,-2,-4,-5,-3,-2,-1,0
6105,-1,0,0,-2,1,3,1,0,0
6110,-2,-1,-4,2,0,-7,-3,0,0
6115,1,2,3,4,7,-2,-1,-2,0
6120,-1,0,-1,-1,-3,-1,-3,-4,0
6125,-4,-3,-3,-6,-10,-3,0,0,0
6130,0,0,2,1,-1,0,-2,1,0
6135,-1,-1,-2,1,9,1,-2,-1,0
6140,-2,-2,-1,-4,-6,-6,-1,-1,0
6145,-1,0,-1,-4,-4,-1,-2,0,0
6150,0,-1,0,3,-4,6,2,1,0
6155,0,-1,-1,-2,1,-4,-1,-2,0
6160,0,0,-2,-2,0,-2,-3,-2,0
6165,2,0,0,-2,-13,-2,-1,0,0
6170,-3,-2,-2,-5,-1,-5,-3,0,0
6175,0,-2,0,5,15,5,2,-1,0
6180,0,-1,-1,-1,-9,2,-1,-1,0
6185,-2,-1,-3,2,2,-1,-4,-3,0
6190,-1,0,-3,-8,-2,-3,-1,0,0
6195,-1,-3,-1,-6,-14,1,1,-1,0
6200,0,-2,-2,1,6,0,-1,-1,0
6205,0,-2,0,1,1,1,2,1,0
6210,-1,-1,1,7,7,-1,-1,-1,0
6215,-2,-1,-1,-7,-13,-6,-4,-3,0
6220,0,-1,0,-3,-7,-3,1,-2,0
6225,-2,-3,-1,-4,-7,-2,-4,-2,0
6230,1,0,-4,1,7,3,1,-1,0
6235,-1,-3,0,2,-2,-1,-2,-1,0
6240,-1,-1,1,0,11,0,-2,1,0
6245,-3,1,1,-1,-7,0,0,-3,0
6250,0,-1,-1,0,2,1,1,2,0
6255,0,-2,-1,-4,0,1,-3,-1,0
6260,-3,-1,-1,-2,-9,-11,-4,-3,0
6265,-2,-3,-1,-1,7,-3,-4,0,0
6270,-1,-1,0,-4,-17,-1,-2,-1,0
6275,-1,0,-3,4,8,2,0,0,0
6280,1,-2,0,0,6,8,0,-2,0
6285,-1,-2,-2,-2,6,2,1,-1,0
6290,-2,-2,-3,-5,-19,-13,-7,-5,0
6295,0,-1,0,2,0,-3,1,0,0
6300,-2,-1,-1,-3,-10,-1,-1,-1,0
6305,-2,-1,-1,-2,3,1,-2,-2,0
6310,2,-2,0,1,6,6,1,-3,0
6315,1,-1,0,-1,1,1,-1,1,0
6320,-1,0,-1,3,10,5,1,0,0
6325,-1,0,0,1,-4,3,-1,-2,0
6330,-1,-2,-1,-8,-9,-9,-1,-2,0
6335,-1,-1,-2,-4,-5,-3,-3,-1,0
6340,3,1,-2,5,28,9,1,2,0
6345,-1,-3,-2,-3,-23,-8,-2,-3,0
6350,-2,-2,0,-7,-14,-5,-3,1,0
6355,1,-2,-1,-3,-1,-4,-1,-3,0
6360,-2,0,-1,1,-3,-2,-2,-2,0
6365,2,0,-2,0,8,2,2,1,0
6370,-2,-3,-5,0,4,1,-1,-2,0
6375,-2,1,3,-5,-16,-11,-2,-1,0
6380,-10,-2,0,7,8,5,-1,0,0
6385,0,0,2,2,9,5,0,-1,0
6390,0,-2,-3,0,-2,-1,-3,-3,0
6395,1,-3,-6,-9,-14,-5,-3,0,0
6400,0,-2,-5,-8,-10,-3,-4,-3,0
6405,-1,-3,-7,1,-1,-4,-1,-1,0
6410,0,2,4,2,2,0,0,-1,0
6415,-1,1,4,6,11,4,1,4,0
6420,3,1,0,0,-7,0,1,-1,0
6425,-1,1,0,-3,5,1,0,0,0
6430,-5,-12,-13,-6,-3,-7,-5,-5,0
6435,17,6,-16,-9,-11,-6,-1,6,0
6440,-2,-1,2,-8,-9,-1,-2,-6,0
6445,0,2,0,6,12,4,2,-4,0
6450,-9,2,11,5,14,6,-1,-3,0
6455,0,-3,0,-4,-18,-5,-2,-3,0
6460,4,-2,-9,-4,4,-4,-1,1,0
6465,-8,-1,3,-5,-15,-7,-1,-5,0
6470,5,2,3,2,6,2,2,5,0
6475,-10,-3,-3,5,10,3,-1,-1,0
6480,2,2,6,6,6,1,1,5,0
6485,-6,-2,-1,2,3,5,-1,-6,0
6490,-3,-8,-8,-4,0,-5,0,5,0
6495,-5,-3,3,-2,-17,-4,-5,-2,0
6500,4,-1,-2,-3,-7,-1,0,3,0
6505,13,5,3,4,16,2,0,6,0
6510,5,3,-6,-3,-15,-4,-1,-1,0
6515,-4,-4,3,4,21,5,1,1,0
6520,-4,-6,-1,-3,-10,0,-2,-3,0
6525,0,-4,-8,-6,-7,-5,-6,-5,0
6530,-6,-1,5,-1,-4,-3,1,1,0
6535,-1,-1,0,0,6,2,-1,-7,0
6540,-4,1,0,7,16,8,0,6,0
6545,-1,-2,-3,-6,-19,-11,-2,-13,0
6550,-2,-1,0,-7,-9,-2,-1,-3,0
6555,1,2,2,5,3,3,1,-2,0
6560,0,-2,4,2,2,1,1,-5,0
6565,-3,0,-8,-2,-5,-2,-3,5,0
6570,1,-9,-5,-7,-9,-7,-4,-3,0
6575,1,12,2,1,3,0,-1,-4,0
6580,4,-3,-1,2,10,4,0,-1,0
6585,1,-3,5,5,13,8,0,3,0
6590,-1,4,10,0,-12,-2,-2,-4,0
6595,-12,-10,-30,-7,-7,-6,-3,-2,0
6600,10,-3,-3,-7,-13,-7,-2,1,0
6605,-10,2,5,-1,0,-1,-1,-4,0
6610,2,0,-6,7,8,7,1,-3,0
6615,-3,1,15,-4,10,2,-1,0,0
6620,-3,3,-4,0,-17,-6,-1,-6,0
6625,1,-7,-12,-6,-6,-1,-1,3,0
6630,-5,0,-3,2,15,3,-1,-3,0
6635,3,0,1,-2,-12,-1,-1,2,0
6640,-4,-2,-5,-2,0,-8,-4,-2,0
6645,0,-3,1,-3,-16,-3,-2,-2,0
6650,-2,-1,-6,-4,2,-4,-3,0,0
6655,-3,0,4,1,-1,0,1,1,0
6660,1,1,-5,3,12,2,-1,-1,0
6665,1,-3,-2,-2,-9,-4,0,0,0
6670,-9,0,3,-3,3,1,-1,0,0
6675,-1,-1,2,1,-10,-1,0,0,0
6680,-11,-3,-3,-1,6,-1,-2,-5,0
6685,11,1,0,-3,0,-3,-1,-1,0
6690,-10,1,2,3,8,0,-1,0,0
6695,0,1,0,1,-10,0,-2,0,0
6700,3,-1,-7,-3,12,3,0,0,0
6705,-14,-2,3,3,-8,1,0,-3,0
6710,2,0,-3,-7,-6,-5,-1,-2,0
6715,2,-1,-2,5,12,-1,1,4,0
6720,-1,0,0,1,-11,4,0,-1,0
6725,-2,-2,-2,-5,2,-1,0,-2,0
6730,-2,2,-2,3,14,2,-1,-1,0
6735,-2,-3,-1,0,-8,-4,-3,-2,0
6740,-5,-4,-5,-8,-24,-9,-4,-1,0
6745,9,1,2,-4,2,-4,0,1,0
6750,6,-2,1,4,-4,0,0,-2,0
6755,-10,-2,0,3,10,3,2,2,0
6760,2,1,3,2,4,4,1,1,0
6765,-4,-3,-1,1,-2,-2,-4,-4,0
6770,-6,-3,-4,-2,2,-2,-3,-1,0
6775,11,8,5,-4,-10,-4,-1,-1,0
6780,-3,-4,-3,-1,-4,0,-1,-4,0
6785,-2,-3,-4,-1,3,0,-1,-1,0
6790,1,1,0,4,2,0,0,-3,0
6795,-4,-6,-3,-1,-2,0,-2,-3,0
6800,5,3,0,-10,-10,-3,-3,2,0
6805,-5,-1,-1,3,7,2,-3,-1,0
6810,-2,-4,-3,-4,-5,-2,-1,-1,0
6815,0,0,0,-7,-4,-3,-1,-3,0
6820,2,1,1,4,6,1,0,1,0
6825,-3,-3,-1,1,5,2,0,0,0
6830,0,-1,4,5,-2,2,1,0,0
6835,-6,-2,-5,-10,-4,-1,-3,-2,0
6840,13,1,0,0,4,0,-1,3,0
6845,-7,-1,-2,-4,-22,-7,-3,-1,0
6850,1,-6,-7,-2,1,-3,-1,-1,0
6855,-1,1,5,2,10,4,-2,-1,0
6860,-6,-2,1,1,-2,3,1,-4,0
6865,8,1,0,-4,-1,-1,-2,-1,0
6870,-9,-1,4,1,-4,1,-1,0,0
6875,-11,-5,-8,-6,3,-2,-3,-3,0
6880,13,6,21,5,17,1,-1,1,0
6885,6,0,-31,1,-13,-2,0,2,0
6890,-1,-7,6,-8,-14,-5,-3,-3,0
6895,3,-1,0,0,10,1,-1,-1,0
6900,-14,-1,-5,-1,-15,-7,0,-2,0
6905,3,2,13,3,15,3,1,0,0
6910,2,1,0,-6,-2,3,0,-3,0
6915,3,-2,-6,0,5,2,1,7,0
6920,0,-1,4,4,6,-1,-1,-2,0
6925,-4,-4,0,-9,-19,-4,-2,-3,0
6930,-1,-1,-8,-3,1,-4,-2,-1,0
6935,1,-2,3,-1,2,-2,-3,-4,0
6940,3,-3,-11,-5,-10,-2,0,1,0
6945,-6,-1,3,4,6,2,0,0,0
6950,10,2,1,4,1,3,0,-1,0
6955,1,1,2,6,0,-4,-1,0,0
6960,-3,-1,-5,-4,0,-7,-4,-1,0
6965,-1,-4,-5,-8,-15,-4,-1,-3,0
6970,-1,2,4,0,10,0,-1,0,0
6975,-1,0,-3,-2,-16,-3,0,-3,0
6980,-1,-3,-5,3,11,2,-1,-1,0
6985,-2,-2,6,0,1,-1,1,-1,0
6990,-7,-2,-1,-2,-4,-2,0,1,0
6995,2,-2,-3,1,-1,-3,-1,-1,0
7000,-2,-1,-6,-5,-4,2,-2,-2,0
7005,1,0,2,2,6,-4,-2,-1,0
7010,-2,-3,-3,-1,-2,-1,-1,0,0
7015,0,-1,-4,-5,-7,-1,0,-2,0
7020,-3,-3,0,0,0,1,1,0,0
7025,3,2,2,2,13,4,0,2,0
7030,0,1,-5,1,-7,0,0,1,0
7035,-1,-3,-2,-5,0,-2,-2,-1,0
7040,1,-2,-1,2,-6,-2,-1,-1,0
7045,-3,-1,3,-3,-1,0,-1,-1,0
7050,-5,2,-2,-6,-8,-3,-2,0,0
7055,0,-2,0,-1,3,0,-1,-2,0
7060,-3,0,-1,-1,-5,-1,-4,-2,0
7065,-2,-1,1,0,1,-1,-2,-2,0
7070,-1,-2,-1,0,-1,-1,-2,0,0
7075,2,-1,0,1,-1,1,-2,-1,0
7080,-1,-5,-5,-4,-5,-4,-1,1,0
7085,0,-2,2,-1,1,2,-2,1,0
7090,3,-3,-5,-3,-5,0,0,0,0
7095,-4,2,6,6,11,3,1,-1,0
7100,-4,-3,0,4,8,-1,-2,-1,0
7105,4,1,0,-4,-13,-2,0,-2,0
7110,-4,-2,-3,-3,-2,-1,-2,-2,0
7115,2,-2,-3,0,-1,-6,0,-1,0
7120,-2,1,3,-2,7,3,1,0,0
7125,1,-1,-2,0,0,3,-1,0,0
7130,-2,-3,0,2,7,2,1,-2,0
7135,-2,-1,-5,-4,-18,-6,-2,-2,0
7140,-2,-3,-1,-2,7,2,-1,-1,0
7145,0,-2,-2,-2,-1,-1,-2,0,0
7150,-3,1,-2,-8,-11,-5,-4,-1,0
7155,0,0,-1,-5,-5,-5,-2,-1,0
7160,-11,-3,2,7,19,4,1,-2,0
7165,5,0,2,2,-10,2,0,2,0
7170,-1,-2,-1,-4,1,-1,-2,-1,0
7175,-7,-2,-5,-3,-8,-3,-2,-1,0
7180,2,2,2,-2,0,-2,0,-1,0
7185,-11,-5,0,2,8,-1,0,-2,0
7190,8,2,0,-2,-4,-2,0,1,0
7195,-2,0,0,-2,-1,-1,-2,-1,0
7200,-1,-2,-3,4,3,0,0,0,0
7205,-1,0,-2,-2,-4,-2,-2,-2,0
7210,-4,-3,-3,-5,-8,-2,-1,-2,0
7215,0,-1,-1,4,5,-3,0,-3,0
7220,-6,-2,0,5,-3,0,-2,-1,0
7225,3,-1,2,-6,6,4,1,-1,0
7230,-5,-3,-3,-12,-26,-5,-3,-3,0
7235,-1,-2,-3,-7,-2,-4,-2,-1,0
7240,-2,-1,-2,-2,-7,-3,-1,-1,0
7245,-1,-1,-3,5,11,0,-2,-2,0
7250,0,3,2,4,11,4,1,1,0
7255,-3,-3,1,-1,-3,4,0,-2,0
7260,2,1,0,-2,3,1,-1,0,0
7265,-2,-1,-2,-1,3,4,0,-1,0
7270,1,-1,-3,-3,-10,-13,-3,0,0
7275,-2,-3,0,-5,2,-2,-2,-2,0
7280,0,-2,-3,0,-9,0,1,0,0
7285,2,0,-3,-3,0,-3,-1,0,0
7290,-6,0,1,2,-4,2,2,0,0
7295,2,0,1,-2,7,0,-2,-1,0
7300,-1,-3,-1,5,10,3,0,0,0
7305,0,0,0,4,3,3,2,0,0
7310,0,-1,-1,1,5,3,-1,-3,0
7315,-1,-1,-3,-5,-15,-10,-4,-3,0
7320,-2,0,-1,-3,1,-1,-2,-3,0
7325,2,-1,-4,6,4,-1,-2,-1,0
7330,-10,-3,5,-1,1,0,1,0,0
7335,0,4,-1,-7,-7,-4,-1,0,0
7340,2,-1,0,3,6,2,0,-1,0
7345,-4,-1,1,0,0,0,-2,-2,0
7350,9,-1,-3,4,8,2,1,2,0
7355,-2,-3,1,-5,-18,-4,-1,-1,0
7360,-5,1,-2,-5,3,-3,0,-2,0
7365,0,-1,-1,-1,-5,-2,-2,-1,0
7370,-3,-2,-2,-4,1,1,0,-3,0
7375,2,0,0,-3,0,0,0,1,0
7380,0,-3,-3,0,1,1,0,-1,0
7385,-1,0,0,0,7,1,0,-1,0
7390,-2,0,-1,4,-10,-2,-2,1,0
7395,0,-2,-5,-5,-6,-5,-3,-3,0
7400,-2,-2,-3,-6,5,2,-2,0,0
7405,0,-2,0,0,-1,2,-1,0,0
7410,-8,-3,-4,-3,-16,-10,-2,-4,0
7415,3,-1,3,4,12,5,0,-2,0
7420,1,1,3,1,-4,-2,-2,-1,0
7425,1,-1,-1,-5,-7,-3,-1,-1,0
7430,-1,-1,-3,-3,-1,-1,-1,-1,0
7435,4,1,2,-2,3,-2,0,-1,0
7440,2,-1,0,-1,-4,-1,0,-2,0
7445,-2,-2,-5,-4,-2,-1,-1,-1,0
7450,3,0,1,-2,7,2,-2,-1,0
7455,-2,-2,-1,0,-7,-7,-2,-1,0
7460,-1,-1,0,0,-2,0,-3,0,0
7465,-8,-4,-2,1,-5,-1,-1,0,0
7470,-3,0,0,-5,6,1,-1,-2,0
7475,0,2,1,5,4,3,0,-2,0
7480,-1,0,-4,-7,-11,-5,-1,1,0
7485,-1,0,-1,3,7,-1,-2,-2,0
7490,-3,-2,-2,-1,-8,0,-1,-1,0
7495,-1,-1,-2,-1,-1,4,1,0,0
7500,1,-1,0,4,6,1,0,0,0
7505,-3,-2,-2,-2,-3,-4,-4,0,0
7510,1,-1,-1,-10,-19,-7,2,-1,0
7515,1,-3,0,-1,5,-1,-3,-1,0
7520,-2,0,2,2,-1,-1,-1,-1,0
7525,1,-2,-1,0,1,4,-1,-2,0
7530,1,0,0,0,6,0,-1,0,0
7535,-1,-3,0,1,0,-1,-2,0,0
7540,-4,0,0,3,3,4,1,0,0
7545,2,1,-1,-4,2,-1,-1,1,0
7550,3,-1,-3,-1,-11,-3,-2,-1,0
7555,-4,-3,-2,-6,-5,-5,-1,0,0
7560,9,-2,-3,1,8,-2,-1,0,0
7565,1,0,0,-1,-17,-1,-1,0,0
7570,-2,-2,-2,-2,13,0,-2,-1,0
7575,2,-1,-1,-4,-3,1,0,-2,0
7580,-3,-1,-1,-3,-10,0,0,-2,0
7585,-1,-2,3,6,15,5,-1,0,0
7590,2,0,-1,-5,-3,-5,-2,0,0
7595,-3,-3,-3,-5,-5,-5,-4,-1,0
7600,-3,-1,2,-1,-5,-8,-1,0,0
7605,-4,-1,-3,3,-2,-1,1,-1,0
7610,-1,0,2,0,3,3,-2,0,0
7615,-1,-1,-1,3,8,1,-1,-1,0
7620,-2,-1,-3,-6,-14,-3,-2,-2,0
7625,0,-1,-2,-1,-2,-4,-1,-1,0
7630,0,-3,-2,0,1,0,0,-2,0
7635,-2,1,-1,0,7,3,0,0,0
7640,0,0,-1,2,14,1,-1,-1,0
7645,0,-1,-1,-8,-29,-8,-2,-2,0
7650,-1,-2,-3,-3,4,-4,-1,-2,0
7655,-1,-1,1,1,-2,2,0,-1,0
7660,-3,-1,-1,1,6,4,-1,0,0
7665,-4,-1,-1,-1,3,-2,-2,-3,0
7670,0,-1,-2,-4,-12,-4,-3,-2,0
7675,0,-1,1,0,2,0,0,-1,0
7680,-1,-2,-1,-1,-5,-1,-1,0,0
7685,-2,-1,0,-1,0,-2,-1,-1,0
7690,-3,-1,-1,3,4,0,1,-1,0
7695,0,-1,0,0,-2,-1,-3,0,0
7700,-1,-2,-1,-3,-5,0,0,-1,0
7705,-6,-1,-2,-1,0,0,0,1,0
7710,0,0,-1,1,2,-2,-2,0,0
7715,1,1,-2,1,5,2,-1,-1,0
7720,1,0,-1,-2,-12,-1,-1,-1,0
7725,-1,0,-1,-1,-1,-3,-1,1,0
7730,-7,-6,1,0,-1,-1,0,-2,0
7735,12,8,1,-1,-3,-4,0,2,0
7740,-2,-2,0,0,3,0,-1,-1,0
7745,3,-1,-1,-1,3,0,2,-1,0
7750,-5,-1,-1,-2,-3,0,-1,-1,0
7755,3,-4,-3,-1,-1,1,0,-1,0
7760,-1,0,-1,-1,1,-1,-1,1,0
7765,0,-1,0,-2,-3,0,-2,1,0
7770,-1,-1,0,2,4,0,-1,-3,0
7775,-5,-2,-2,-2,-4,-2,0,-1,0
7780,-4,0,-4,-2,-2,-1,-3,-2,0
7785,6,-2,-1,0,-2,1,-1,-2,0
7790,-1,3,2,1,0,2,-1,2,0
7795,-3,-2,-2,-3,2,-3,-1,-1,0
7800,-4,-1,0,-2,-6,-2,-2,-3,0
7805,6,1,-2,-3,0,0,0,-3,0
7810,1,0,-1,1,3,-1,-1,0,0
7815,-5,-2,0,0,0,2,0,-1,0
7820,0,0,1,4,-4,-3,-1,-1,0
7825,-2,-1,0,2,1,-5,-2,0,0
7830,2,0,-1,-7,-1,2,-1,1,0
7835,-4,-3,-2,-2,-11,-4,-2,-3,0
7840,4,-3,-2,-3,5,-5,-3,-1,0
7845,-7,-2,1,-1,-4,2,1,-2,0
7850,-6,-3,-2,2,-1,-6,-2,-5,0
7855,-8,-2,1,1,5,1,0,-1,0
7860,10,4,3,2,6,3,2,5,0
7865,2,0,-4,-4,-7,-2,-3,1,0
7870,-3,-1,-2,-2,-5,0,0,0,0
7875,-6,-2,-1,-2,-3,-3,-3,-4,0
7880,-6,-2,-4,-2,-4,0,-1,-3,0
7885,-1,0,3,-1,3,2,1,-1,0
7890,-2,-5,2,7,1,1,0,0,0
7895,3,-2,1,2,-2,-1,0,0,0
7900,0,-2,0,2,1,0,1,-1,0
7905,-4,-2,-6,-10,0,-1,-2,-3,0
7910,2,-1,-6,-3,-5,-2,-1,-1,0
7915,11,3,4,3,1,1,-2,2,0
7920,2,-1,-1,0,-2,-2,-2,-2,0
7925,-5,-2,2,3,1,2,-1,0,0
7930,2,3,2,1,-1,0,-1,-2,0
7935,-4,-5,-6,-4,-5,-2,0,-1,0
7940,-3,-1,-4,-2,8,2,-1,-1,0
7945,0,0,-1,-1,-8,-3,0,0,0
7950,1,-1,-1,-6,-4,-3,-2,-1,0
7955,-4,-2,-3,-3,-4,0,0,-2,0
7960,-8,-4,-1,-6,-4,-4,-2,-2,0
7965,0,-1,1,5,7,2,0,-1,0
7970,0,0,0,-2,3,-2,1,1,0
7975,5,3,-1,-2,1,-2,-2,-1,0
7980,-3,2,-1,-2,-2,-1,-1,0,0
7985,-1,-5,-3,-2,-6,-3,-3,-2,0
7990,-2,-2,-3,-4,-1,0,0,-3,0
7995,1,1,-1,-2,-1,-5,-1,-2,0
8000,2,-1,1,0,2,2,1,1,0
8005,1,1,-1,4,2,-1,-2,1,0
8010,-7,2,-1,-4,0,1,-1,-3,0
8015,-1,-4,-3,0,1,2,-1,-1,0
8020,-3,-2,-4,-3,2,-2,-3,-3,0
8025,5,-1,-1,-4,-16,-8,-3,-1,0
8030,-1,-1,-2,0,1,-1,0,1,0
8035,7,7,2,2,7,0,-3,-1,0
8040,-6,-5,3,5,-4,0,-1,-2,0
8045,-14,-7,-11,-5,7,1,0,-4,0
8050,12,3,16,7,5,2,1,2,0
8055,-5,-1,-18,-11,-9,-1,0,1,0
8060,1,-1,-2,-14,-8,-4,-3,-3,0
8065,1,2,0,0,-3,-4,-2,-3,0
8070,-5,-3,-7,0,-3,-1,-1,0,0
8075,-6,-1,9,5,5,1,0,-2,0
8080,2,4,0,4,0,-2,0,1,0
8085,-5,-4,-2,-3,3,2,0,-1,0
8090,-5,-1,-5,-4,0,-1,-3,-1,0
8095,-2,-1,4,1,3,1,-2,-1,0
8100,-2,-3,-3,-2,-10,0,-1,0,0
8105,3,-2,1,1,-1,-2,0,1,0
8110,-3,-1,0,3,-3,0,-4,-3,0
8115,-1,-4,-7,-4,3,1,0,-1,0
8120,-6,-1,0,3,-9,-3,-2,-2,0
8125,4,1,-2,-6,3,0,0,2,0
8130,1,-5,0,-3,-4,-2,0,-1,0
8135,-4,-1,1,6,7,2,0,-1,0
8140,1,0,-2,-7,5,3,1,-3,0
8145,-3,0,-1,-4,-11,-4,-3,-3,0
8150,2,1,-3,1,-2,-4,-2,0,0
8155,-2,-5,2,-5,-5,-1,-2,-3,0
8160,-6,-3,-2,2,2,-2,0,0,0
8165,9,6,11,5,5,1,-1,1,0
8170,1,-2,-11,-4,-3,1,0,-3,0
8175,4,-2,-2,2,-5,-2,-1,2,0
8180,-1,-2,-2,1,1,-2,0,1,0
8185,-4,-1,-4,-6,-2,-2,-1,-1,0
8190,-1,1,2,1,-1,0,-2,-4,0
8195,0,-1,0,4,-1,-2,-2,-1,0
8200,-1,-4,-4,-9,-6,-7,-3,-1,0
8205,-6,-2,-4,2,4,-2,1,-1,0
8210,13,1,4,-4,-2,0,-1,3,0
8215,-4,-2,1,1,-6,-1,-1,-1,0
8220,-6,1,1,-1,2,0,-2,-2,0
8225,2,-1,-2,4,0,0,-3,-2,0
8230,-7,-4,-7,-4,0,-1,-1,2,0
8235,6,2,-1,-3,-2,-1,0,1,0
8240,-2,1,1,1,-3,-1,-1,-2,0
8245,-6,-5,-8,-3,-2,-3,-4,-5,0
8250,-10,-1,2,-1,0,-1,-1,-1,0
8255,13,2,2,-2,0,-2,0,-1,0
8260,0,-1,-1,2,1,0,-1,1,0
8265,-2,1,1,0,0,0,0,-1,0
8270,-3,-4,-4,-2,-1,0,-1,-3,0
8275,-11,-2,-2,-5,-6,-5,-2,-3,0
8280,5,-2,-3,-2,1,-1,-2,0,0
8285,10,1,3,0,2,2,2,1,0
8290,-4,-1,2,-2,-6,-3,0,-3,0
8295,0,-1,-4,-3,0,1,3,0,0
8300,2,0,-1,0,0,0,-2,-1,0
8305,-12,2,1,0,-1,-4,-2,-1,0
8310,11,-3,-3,-4,-6,-7,-3,0,0
8315,-8,-4,-1,-1,-1,0,-1,-1,0
8320,0,0,-1,1,1,-1,1,0,0
8325,-2,-2,1,-1,-2,1,-1,0,0
8330,-3,2,-1,2,4,1,-2,-2,0
8335,0,-2,-2,-3,-1,1,0,3,0
8340,-1,-1,-1,-1,-1,0,1,-1,0
8345,0,0,1,-2,-1,2,2,3,0
8350,6,3,-2,-1,-2,-3,0,-1,0
8355,-8,-8,1,-2,-1,-3,-4,-4,0
8360,-19,-3,-4,-2,-3,0,-3,-3,0
8365,26,5,-2,-1,-2,-2,0,3,0
8370,-4,-1,-1,1,0,0,-2,-2,0
8375,1,2,-1,0,-1,1,-1,0,0
8380,-2,-1,1,-1,-3,-2,-1,-4,0
8385,-9,-6,-2,0,-4,1,-2,-2,0
8390,-1,0,-2,0,1,1,0,1,0
8395,-4,-1,-1,-1,-1,-2,-1,-2,0
8400,1,-2,-1,-2,-4,-4,-3,-2,0
8405,-5,-2,-3,-2,-2,-1,-2,-3,0
8410,-1,-3,-2,0,2,2,1,0,0
8415,-11,-8,-3,0,-2,-1,-1,-3,0
8420,23,11,-1,-1,1,2,1,2,0
8425,-5,0,0,1,1,0,1,-3,0
8430,-4,-3,-2,0,-6,-4,-1,1,0
8435,1,0,-1,-4,-3,-5,-2,-1,0
8440,-16,-4,-5,-2,0,1,-1,-1,0
8445,12,-6,2,0,-1,1,-2,-1,0
8450,-18,0,-5,-3,5,1,2,0,0
8455,4,5,11,-1,4,2,-1,-2,0
8460,6,2,16,5,-2,-2,0,-1,0
8465,-7,-2,-21,-7,-13,-3,0,0,0
8470,-1,-8,-4,-1,-5,-5,-2,-1,0
8475,-6,-11,-6,1,-3,-1,-3,0,0
8480,6,2,-1,0,11,0,0,0,0
8485,-5,0,8,2,-4,2,0,-1,0
8490,2,1,-1,-1,9,1,0,-5,0
8495,1,3,-10,-7,-10,-4,0,1,0
8500,-2,-6,-6,-8,-14,-3,-2,0,0
8505,-7,3,6,-1,10,0,-1,1,0
8510,1,-5,-1,2,-1,2,0,-2,0
8515,-3,2,-2,3,7,-3,-2,-4,0
8520,-5,-1,3,2,-3,-1,-2,0,0
8525,0,1,-5,-3,-4,-1,0,0,0
8530,-1,0,3,-2,1,2,3,-1,0
8535,2,-3,-2,-1,1,0,-1,-1,0
8540,-5,-1,-2,-2,-4,-2,-1,-2,0
8545,5,-1,-2,-2,3,-3,-3,-2,0
8550,-3,0,6,1,-4,-1,-1,-3,0
8555,8,0,-5,0,-3,1,3,1,0
8560,-7,-1,0,-3,0,-1,0,-3,0
8565,-7,-1,1,0,1,-1,-3,-3,0
8570,0,0,-5,-1,1,-2,-3,-2,0
8575,-3,-1,4,1,1,-1,0,-2,0
8580,0,1,-2,-1,-1,3,0,3,0
8585,-7,5,3,-4,-3,-4,-4,-2,0
8590,0,-6,-1,1,2,-1,-3,-2,0
8595,-9,0,-2,-4,-3,0,-3,-1,0
8600,-4,1,2,3,0,-1,1,-1,0
8605,1,-2,0,2,0,-1,0,-2,0
8610,-6,2,-1,-8,-4,-2,-1,-1,0
8615,2,-1,3,8,-1,-4,-2,-1,0
8620,-1,-1,-8,-16,-3,0,-2,-1,0
8625,-5,-1,15,-1,0,-2,-2,-2,0
8630,-5,-5,-19,6,-2,-3,-2,-2,0
8635,-4,-6,-7,-23,-4,-2,-2,-4,0
8640,-6,-1,6,2,-1,-1,1,-1,0
8645,-1,1,-6,-4,-4,-1,0,0,0
8650,3,3,1,-6,-2,-2,-2,-1,0
8655,-9,-7,-4,3,-1,0,-3,-3,0
8660,11,2,6,0,2,1,3,0,0
8665,1,0,-8,0,-1,-1,-1,-1,0
8670,-6,-1,7,2,-3,-3,-3,-2,0
8675,5,0,0,2,2,2,1,2,0
8680,1,-3,-9,-12,-3,-3,-2,-3,0
8685,-8,-4,0,5,-1,-2,-3,-2,0
8690,5,-2,3,3,-2,-1,-1,1,0
8695,3,2,-5,-5,-1,-1,-2,0,0
8700,5,-2,2,2,-1,-1,0,0,0
8705,-1,2,6,9,4,0,0,-3,0
8710,-6,-4,3,-7,-1,0,-2,-2,0
8715,-11,-7,-16,-16,-3,0,-1,-2,0
8720,2,3,7,7,0,0,-2,-1,0
8725,6,0,-4,1,-4,-2,-1,-2,0
8730,2,2,-1,-1,-1,-2,-2,-3,0
8735,-3,-4,4,1,-1,-1,2,-1,0
8740,-2,1,0,0,2,-1,-2,-1,0
8745,3,-8,-5,-1,-3,-2,0,2,0
8750,3,6,-2,0,-1,-1,-2,-1,0
8755,0,-2,0,-3,-2,-1,-1,-3,0
8760,-1,0,5,3,1,0,1,-2,0
8765,-1,2,-3,-2,-2,-2,0,2,0
8770,-6,-4,-5,-7,-1,-1,-3,-2,0
8775,5,0,0,1,1,0,0,0,0
8780,-6,-2,1,3,0,1,1,-2,0
8785,-1,-2,0,-2,-2,-2,-2,-1,0
8790,-4,-1,0,0,0,0,-2,0,0
8795,-2,1,0,2,-2,-1,0,-1,0
8800,-1,-2,-5,-4,-1,-2,-3,-1,0
8805,2,-1,-4,-2,0,1,2,1,0
8810,-5,-3,1,2,-1,-2,1,-1,0
8815,1,0,-3,2,-2,-2,-3,-2,0
8820,-4,-2,-1,-3,-1,-2,-2,-1,0
8825,1,0,1,0,-1,-2,-1,3,0
8830,-7,-3,-1,0,1,1,0,-5,0
8835,2,0,-2,-3,1,2,0,6,0
8840,-2,-2,-2,-2,-3,-2,-1,-2,0
8845,0,1,1,0,-1,-1,-1,-1,0
8850,-1,-1,-2,0,0,0,0,-6,0
8855,1,-1,0,0,1,-1,-2,2,0
8860,-3,-1,-1,0,-1,-1,0,-2,0
8865,-5,-2,-4,-3,0,1,1,1,0
8870,1,-3,-4,-2,0,-3,-4,-3,0
8875,2,1,4,-1,-1,-1,0,0,0
8880,2,-1,0,-4,-1,-1,-1,2,0
8885,-3,-2,-1,0,-1,-1,-2,-4,0
8890,-4,-1,-2,-1,0,0,0,0,0
8895,2,0,-2,0,0,0,-2,1,0
8900,0,-1,-2,-3,-2,-1,0,-1,0
8905,-4,-2,-1,1,1,0,0,-4,0
8910,-1,-3,-4,-2,-3,1,-1,0,0
8915,-1,1,5,-2,-3,-3,-1,-3,0
8920,-2,0,0,0,-2,1,-2,-1,0
8925,2,-1,-3,-1,-3,0,-1,-1,0
8930,-1,-2,-1,0,-1,-1,-1,4,0
8935,-3,-1,-4,-3,-4,-2,1,-5,0
8940,-1,0,-1,-1,0,-2,-1,5,0
8945,0,0,-2,-1,-1,-3,-1,-3,0
8950,-1,-1,0,0,-1,-1,-1,-3,0
8955,-1,-2,-4,0,-2,-2,-1,-2,0
8960,-1,-1,1,-1,-1,0,-1,-1,0
8965,2,0,-2,-1,-2,-1,1,0,0
8970,-1,0,1,0,-2,-2,-1,-1,0
8975,-2,-2,-2,-1,-2,-2,-2,-2,0
8980,0,-2,0,0,-1,0,0,-2,0
8985,1,-2,-1,0,-1,-1,-2,-2,0
8990,1,0,1,-1,0,-2,0,2,0
8995,1,-1,0,-1,0,-1,-1,-3,0
9000,-2,-3,-2,-1,-1,-2,0,-1,0
9005,4,1,1,0,1,0,-2,-2,0
9010,-10,-6,-2,-1,-2,-1,1,-1,0
9015,10,5,-6,-1,-2,-2,-2,0,0
9020,0,1,2,-1,-2,0,0,-1,0
9025,-2,-1,-1,-1,-2,-1,-3,-4,0
9030,0,-1,-1,0,-1,-2,-1,-1,0
9035,-10,-3,-3,-2,-1,0,-2,-1,0
9040,7,0,-1,-1,-1,-2,0,-2,0
9045,0,-2,-1,-2,-3,-2,-1,1,0
9050,0,0,1,-1,-1,0,-1,-1,0
9055,-6,-4,-2,0,0,-1,0,-2,0
9060,-3,0,-2,1,-1,-1,-2,-3,0
9065,-4,-2,0,-1,0,0,-3,-1,0
9070,3,0,-4,-2,-2,-1,-1,0,0
9075,0,-3,1,-1,-2,-1,-1,-1,0
9080,-7,-1,1,-1,0,0,-1,-2,0
9085,7,1,1,3,0,-1,-1,-1,0
9090,-3,-2,-5,0,-2,-2,-1,-2,0
9095,-2,0,3,-2,1,-2,-1,-3,0
9100,0,-2,0,0,0,0,0,1,0
9105,-4,-2,-1,0,-2,-1,-1,-2,0
9110,1,0,0,-1,-1,-1,-2,0,0
9115,-1,-3,-3,-2,-2,-1,-1,-4,0
9120,-1,-2,-4,-2,-2,-1,0,-2,0
9125,-2,-2,-2,-2,0,0,-1,1,0
9130,-1,-1,0,-1,-1,0,-1,-1,0
9135,-1,0,-1,-1,-1,-1,-1,-1,0
9140,-3,0,0,0,-2,-1,-1,0,0
9145,-2,-2,-3,-1,-1,0,1,1,0
9150,1,1,2,-1,-1,0,-1,-3,0
9155,-3,-1,1,-2,-1,0,-1,-2,0
9160,0,0,-3,-3,-1,-2,-2,1,0
9165,-3,-1,0,-2,-1,-1,0,-4,0
9170,-2,-1,-1,0,0,-1,0,1,0
9175,0,0,0,-2,0,0,0,0,0
9180,-2,-1,-2,0,-1,-3,-3,-1,0
9185,-3,-1,-3,-1,-1,0,-1,-2,0
9190,1,0,-1,-1,-1,-1,-3,0,0
9195,0,-2,-2,1,-1,-2,-2,-1,0
9200,-2,-2,0,0,-1,-1,-2,-3,0
9205,-1,-1,2,0,0,-3,-1,0,0
9210,-1,-1,0,-1,0,-1,0,-2,0
9215,-2,0,-1,0,0,0,0,0,0
9220,-3,0,-1,0,-1,-1,0,1,0
9225,-1,0,-1,-1,-2,-2,-1,-1,0
9230,-1,-1,0,-1,-2,-1,1,-2,0
9235,-2,-2,-3,0,-3,-2,-2,1,0
9240,-2,-2,-2,-2,0,-2,0,-3,0
9245,-1,-2,-2,-1,-1,0,1,-1,0
9250,0,-1,-2,0,0,-1,-2,-1,0
9255,-2,0,-2,-2,-1,-2,0,-2,0
9260,1,-1,-3,-2,-4,-2,-2,-3,0
9265,-1,-2,0,-1,-2,-3,0,3,0
9270,-2,-1,-1,-1,0,-1,1,0,0
9275,-1,-1,-1,-1,-2,-1,-1,0,0
9280,-2,-2,1,-1,0,2,-1,0,0
9285,0,0,-1,-1,-1,-2,0,-2,0
9290,-1,-2,-1,-2,-1,-2,-2,-1,0
9295,0,-2,0,1,-1,0,-1,-1,0
9300,-1,-1,0,-2,0,-2,-2,0,0
9305,-1,1,-2,-1,-1,0,-1,-1,0
9310,-1,-1,-2,-1,0,0,-1,1,0
9315,2,-1,2,1,-2,-1,-1,-2,0
9320,-3,-2,-1,-2,-1,0,-3,-2,0
9325,-2,-3,-2,-1,-1,1,1,0,0
9330,0,-1,-3,-3,-1,-1,-1,-1,0
9335,-1,-2,-2,-1,0,-2,-2,-1,0
9340,-1,0,-2,-1,-3,-2,0,-2,0
9345,-1,-2,-1,1,-1,-1,-2,0,0
9350,0,-1,-2,0,-2,-1,-1,-2,0
9355,-1,-1,-2,-1,0,-1,-1,-1,0
9360,-2,0,1,2,-1,-1,0,-2,0
9365,-2,-1,-1,-2,-1,-2,-2,-1,0
9370,-1,0,-1,0,-3,-1,0,0,0
9375,0,-1,0,-2,-1,-1,-2,-1,0
9380,0,0,0,-1,0,0,-1,-3,0
9385,-1,1,0,-1,-1,-1,-3,-3,0
9390,-3,-1,1,0,1,-2,-1,-3,0
9395,-1,-2,-1,-2,-2,-3,1,-1,0
9400,1,-2,-2,-1,-2,0,0,1,0
9405,-3,-1,-1,-1,-1,-1,-3,0,0
9410,-2,1,-2,-1,-1,-1,0,-1,0
9415,-1,-2,-5,0,2,1,-2,-3,0
9420,-2,1,3,-1,0,-1,-1,-3,0
9425,1,0,-1,0,0,-2,0,-3,0
9430,0,-2,-2,-1,-2,-1,-2,0,0
9435,-2,-1,-3,-1,-2,1,0,-1,0
9440,-2,-1,-3,-1,-1,0,-2,1,0
9445,0,-2,-3,-2,0,-2,-1,-1,0
9450,-2,0,0,-2,-2,-1,0,-2,0
9455,-2,-1,0,-1,-2,0,0,-1,0
9460,0,-2,-2,0,0,-1,-1,0,0
9465,-1,0,1,-1,-1,0,0,-1,0
9470,-1,-3,-2,-2,0,-1,0,-1,0
9475,1,-1,-1,0,-1,-2,-1,0,0
9480,-1,-1,-2,-2,-2,-1,1,-1,0
9485,0,-2,-2,-2,-1,0,0,-2,0
9490,-1,-2,-1,-1,1,-2,-2,-2,0
9495,1,-2,-1,-1,-1,-1,-1,3,0
9500,0,2,-1,1,-1,-1,-1,-1,0
9505,-2,-2,0,-2,-1,-1,0,0,0
9510,-1,-1,-1,-1,-2,-1,-2,-2,0
9515,-2,1,0,0,-2,-1,-1,-2,0
9520,0,0,0,-3,-1,0,-1,1,0
9525,-1,0,-1,-1,-3,-1,-2,-1,0
9530,-2,-1,-1,-1,-1,0,-1,-2,0
9535,-2,-2,-1,-3,-1,0,-1,-1,0
9540,-2,0,0,-1,-1,0,-2,0,0
9545,-2,-1,1,-1,-1,0,0,-2,0
9550,-1,-1,-2,-2,-1,-1,-3,0,0
9555,-3,1,-1,-1,-1,-3,-2,-4,0
9560,-1,0,-1,0,0,0,-2,-3,0
9565,0,0,-2,-2,1,-2,-4,-1,0
9570,1,-3,-2,0,1,-2,-2,1,0
9575,0,-1,-1,0,-2,-1,-1,1,0
9580,-1,-1,1,-2,0,1,-1,0,0
9585,-1,1,-1,0,0,-1,0,-1,0
9590,-1,-2,-2,-1,-1,-1,0,1,0
9595,0,0,0,1,-1,1,-2,-2,0
9600,-9,-2,-1,0,-1,-1,-2,-3,0
9605,2,-1,-2,-1,-1,1,0,-1,0
9610,0,-2,-2,-1,-1,-1,-3,-1,0
9615,-1,-2,-2,-2,-1,-2,-1,-1,0
9620,0,-2,0,-2,-1,-2,-1,-2,0
9625,0,-2,1,-3,0,0,-1,-2,0
9630,-1,1,1,0,-1,0,0,-1,0
9635,0,-1,-2,-1,-1,0,-1,-1,0
9640,2,-1,-1,-3,-3,1,0,0,0
9645,-1,-2,-1,-1,-1,-1,-2,-1,0
9650,-1,0,-1,0,0,-2,0,-2,0
9655,-1,-1,-1,0,-1,1,-1,3,0
9660,0,-1,0,0,0,-2,0,-1,0
9665,0,-1,-1,0,-1,-2,0,0,0
9670,0,1,-2,-3,-1,-1,-2,-1,0
9675,-3,-4,0,-2,0,-2,-1,-2,0
9680,-1,-1,-1,-1,-1,-1,-3,0,0
9685,0,-2,-1,-1,-2,0,-2,-1,0
9690,1,0,-2,-1,-1,-1,-1,-1,0
9695,0,-1,-2,-1,-3,-2,-1,-1,0
9700,1,1,-2,0,-2,-2,-1,1,0
9705,-1,0,-1,-1,-1,0,-2,-1,0
9710,-8,-2,-1,-1,-2,0,-1,0,0
9715,1,2,0,-1,2,-1,-2,-3,0
9720,-2,-2,-2,-1,1,-1,0,-1,0
9725,-1,-1,-2,-3,-1,-2,-1,1,0
9730,-1,-1,-1,-3,-1,-1,-1,-1,0
9735,-3,-2,-1,-2,-1,1,0,-1,0
9740,0,-2,1,-1,-1,-1,0,0,0
9745,-2,-1,-3,0,-2,0,-1,-2,0
9750,0,-2,-1,0,0,0,-1,-2,0
9755,0,0,-2,1,-2,0,-1,-1,0
9760,0,-1,-3,-2,-1,-1,0,-3,0
9765,-1,-1,0,-2,-2,-1,-2,0,0
9770,0,0,-1,-2,-2,0,0,-1,0
9775,-4,-1,-1,-2,0,-1,-1,1,0
9780,0,-4,-2,-1,0,-1,-3,0,0
9785,-3,-1,-2,-1,0,-2,0,-3,0
9790,0,-1,0,-1,-1,-1,0,-1,0
9795,-2,-1,-1,-2,0,-1,0,-1,0
9800,0,-1,-1,0,0,-1,0,0,0
9805,-2,-1,0,-1,-2,-3,-2,-2,0
9810,1,-3,-2,-1,-2,-2,-2,-1,0
9815,2,-1,-2,1,-4,-1,0,0,0
9820,-1,-1,-2,-1,-2,0,-1,-2,0
9825,-2,-1,0,1,-1,0,1,0,0
9830,0,1,-1,1,0,-2,-1,-1,0
9835,1,-2,-3,-1,-2,-2,-1,-1,0
9840,-1,-1,-1,-1,-1,0,-1,2,0
9845,1,0,-2,0,-2,-1,0,0,0
9850,-1,-2,-1,-1,-1,-2,0,0,0
9855,0,-3,-2,-1,-2,-2,-2,-1,0
9860,-2,-3,-2,0,-1,-1,-3,-2,0
9865,-1,1,1,0,0,0,0,1,0
9870,1,0,-2,-3,-2,1,0,0,0
9875,-1,0,-1,-2,-1,0,-3,-2,0
9880,1,-1,-1,-1,-1,-3,0,-3,0
9885,-4,-2,-1,-1,-1,0,-2,-3,0
9890,0,-1,-1,-2,0,-1,-2,0,0
9895,0,-2,-2,-1,0,-2,-2,-1,0
9900,-4,-1,-1,0,-2,-1,-1,-3,0
9905,0,-2,0,1,-1,-1,-1,1,0
9910,-1,0,-2,-1,-1,-2,0,-1,0
9915,1,1,0,-1,0,-1,0,0,0
9920,-1,1,-1,-2,0,-2,-1,-1,0
9925,0,-1,0,-2,-1,0,-1,-2,0
9930,-2,-1,-1,-2,0,-1,-2,-1,0
9935,5,0,0,-1,-1,0,1,-2,0
9940,1,-1,1,-2,0,1,0,-2,0
9945,1,-1,0,-3,-2,-1,-2,-2,0
9950,-3,-2,-2,0,-1,-2,-1,0,0
9955,-4,0,0,0,-1,1,2,1,0
9960,-1,-1,-2,0,0,-1,-1,0,0
9965,1,-1,-2,-2,-1,0,0,-1,0
9970,-1,-2,0,0,-2,0,-3,-1,0
9975,-2,-1,-1,-2,-1,-1,-2,-1,0
9980,1,0,0,-2,-2,-2,0,-1,0
9985,-1,-2,-2,-1,1,-1,-3,-1,0
9990,-1,0,-1,-2,-2,-1,-1,-3,0
9995,-1,1,-1,1,-1,-1,-1,2,0
10000,-3,-1,0,-1,-1,0,0,-1,0
10005,0,-2,-1,-1,-3,-2,-1,0,0
10010,0,0,-1,-1,2,0,0,0,0
10015,-2,-3,-1,-2,-1,-1,-2,-3,0
10020,-2,-1,-2,-1,0,-3,-1,0,0
10025,1,0,-1,-1,-1,0,-1,1,0
10030,5,1,1,0,-1,-1,-4,0,0
10035,-1,-2,-1,-2,0,-1,-1,-2,0
10040,1,-1,0,-1,-1,0,0,-1,0
10045,-2,-3,-2,-2,-1,0,0,-1,0
10050,-2,-2,-1,-2,-2,-2,0,-3,0
10055,-2,0,-1,-2,-3,-1,1,-1,0
10060,-3,-2,0,-1,1,-1,0,-3,0
10065,1,0,-1,-2,-2,-2,0,0,0
10070,-2,-1,0,-1,-2,0,-2,-2,0
10075,-1,0,-1,0,0,-2,0,-1,0
10080,-2,-1,-1,0,-4,-1,-2,-3,0
10085,0,-1,-1,-1,-1,-2,0,-1,0
10090,0,-3,-1,1,0,-1,2,-1,0
10095,-4,-2,0,-1,0,-1,-2,-3,0
10100,0,0,-2,-1,1,-1,-1,1,0
10105,-7,-1,-1,0,0,-3,0,0,0
10110,-1,-2,-1,-2,-2,-1,-1,0,0
10115,-3,0,-1,0,-1,-1,0,-4,0
10120,2,-1,0,-1,-2,-2,-2,0,0
10125,-2,-1,-1,-2,-1,0,-1,-3,0
10130,-4,0,-2,-3,0,-2,-1,0,0
10135,-1,-1,-1,-2,1,-2,-2,-1,0
10140,-2,-1,1,-2,-2,-2,-1,0,0
10145,-1,-2,0,0,-1,-2,-1,-2,0
10150,-1,-1,-1,0,-1,-1,-3,-1,0
10155,-1,-2,1,-1,-1,-1,-1,-1,0
10160,1,0,-2,0,-1,-1,0,0,0
10165,1,-2,0,-1,-1,-1,-1,-1,0
10170,-1,0,-2,-1,-1,-1,-1,0,0
10175,0,0,-3,-2,-3,-1,-1,0,0
10180,-1,-1,-2,-1,0,-2,-2,-2,0
10185,-2,0,0,-1,-1,-2,-1,-1,0
10190,-2,-2,-2,1,-1,1,1,-1,0
10195,-1,0,-2,0,-1,-1,-1,-1,0
10200,0,-1,-1,-1,-1,-1,0,0,0
10205,0,-1,1,-2,-2,0,-2,1,0
10210,0,0,0,-2,-4,0,-1,3,0
10215,0,-1,0,-2,1,-1,-2,0,0
10220,-4,0,-2,-1,-2,-3,-1,-2,0
10225,-1,-3,0,-1,-1,0,-2,-3,0
10230,-2,-1,-1,0,-1,0,0,-1,0
10235,0,-1,-1,-1,1,-2,-1,-2,0
10240,-11,-2,-2,-2,1,0,-1,-3,0
10245,4,-1,-2,0,0,-1,-1,-1,0
10250,-1,-2,-1,0,-1,0,-1,-2,0
10255,-1,0,-2,-1,-1,-1,1,0,0
10260,-2,-1,-2,-1,-1,0,-1,-3,0
10265,-2,0,-1,-1,0,-2,2,1,0
10270,2,-1,0,-1,0,-2,0,0,0
10275,-2,-4,0,0,0,-2,0,0,0
10280,0,-2,-1,0,-1,-1,-1,-1,0
10285,-2,0,1,-2,0,0,-3,-1,0
10290,2,-2,-2,0,-1,-1,-1,0,0
10295,-1,-2,0,-1,0,0,-1,-2,0
10300,-3,0,0,1,-2,-1,-1,-2,0
10305,-1,-2,0,-1,-1,-1,2,0,0
10310,1,-2,0,-3,-1,0,-1,-2,0
10315,-1,0,-1,-1,0,-1,0,-1,0
10320,-2,-3,0,-1,-3,-3,-2,-1,0
10325,-2,0,-1,0,-1,-1,1,-2,0
10330,3,-3,-2,-2,-1,0,0,2,0
10335,-2,1,-2,0,0,0,-2,0,0
10340,-1,-2,-1,-2,-1,-1,0,0,0
10345,1,-2,-3,0,-1,-3,-1,-1,0
10350,-2,-1,-2,0,0,0,0,-1,0
10355,0,0,-1,-1,0,-1,-1,-3,0
10360,-3,0,-1,0,-1,0,0,-1,0
10365,-2,-3,-1,-2,-1,-3,-3,-3,0
10370,0,1,-1,0,0,-1,-2,0,0
10375,-1,-1,-2,-1,-1,-1,-2,1,0
10380,-2,0,-1,0,1,-1,-2,-2,0
10385,-1,-2,-2,-2,-2,0,0,1,0
10390,-1,-3,0,0,-1,-1,0,-2,0
10395,-2,0,-1,-2,0,-3,0,0,0
10400,-1,-1,-1,-1,-1,-2,-1,-2,0
10405,-1,-1,-2,-1,0,1,-2,-1,0
10410,-1,0,0,-2,-2,0,0,0,0
10415,-2,0,0,0,0,1,-2,-2,0
10420,0,0,-1,-2,0,-1,-2,0,0
10425,1,-2,0,0,-1,-1,-2,2,0
10430,-2,-1,-2,-2,-2,-2,-2,-1,0
10435,-1,-3,0,1,-1,-1,-1,-1,0
10440,3,-2,0,-1,-1,0,0,-1,0
10445,-5,-1,-1,-2,-2,0,-2,-2,0
10450,-3,0,0,1,-2,0,-2,1,0
10455,0,1,-1,-2,-3,-2,-3,-1,0
10460,1,0,-1,0,0,-1,-1,-3,0
10465,-1,-2,1,-2,-1,0,0,-1,0
10470,-2,-3,-1,-3,0,-1,-2,-2,0
10475,-1,-2,-2,-1,-2,-3,0,-1,0
10480,-3,-1,-1,0,0,0,-2,0,0
10485,3,-1,-1,0,-1,-1,0,0,0
10490,-1,0,0,-2,-1,0,-1,-1,0
10495,0,-2,0,0,0,2,0,-3,0
10500,-3,-1,-2,0,0,2,0,-1,0
10505,-1,0,-1,-1,-1,0,-1,-3,0
10510,1,0,-1,1,-2,-3,1,-1,0
10515,0,0,-1,-1,-2,-1,1,2,0
10520,-2,-1,-1,-2,-3,-1,-1,-2,0
10525,1,-1,-2,-2,0,0,0,-1,0
10530,-1,-2,0,-2,-1,-2,0,-2,0
10535,-1,-1,0,-1,-1,-1,-2,-1,0
10540,0,-2,0,-1,-1,-3,-1,2,0
10545,-8,-1,-1,-1,-2,-3,-1,-2,0
10550,0,0,-1,-1,-1,-1,-2,-1,0
10555,-3,-1,-1,-3,-1,-2,0,-2,0
10560,0,0,-2,-3,-1,-1,-1,-1,0
10565,-2,0,-1,0,-2,-1,0,-2,0
10570,-2,-1,-3,-1,-1,-2,-3,-3,0
10575,-1,-2,-2,-2,-1,-1,-1,-1,0
10580,-2,-2,-2,0,-1,-1,-3,-1,0
10585,0,0,-2,-1,1,1,-2,0,0
10590,1,-1,1,-3,-1,0,-1,2,0
10595,-3,0,0,-1,-2,0,-3,1,0
10600,-1,0,-1,-2,-1,-2,0,-3,0
10605,0,-2,-1,-2,-2,0,0,-1,0
10610,0,0,-1,0,-2,-2,-2,-2,0
10615,0,-1,-1,-3,-1,0,0,-1,0
10620,0,-1,0,-1,0,0,-1,0,0
10625,1,-2,0,0,-1,-1,-2,0,0
10630,-3,-1,-2,0,-1,-4,-1,-1,0
10635,-6,-1,-1,-1,-1,0,-2,0,0
10640,0,-2,-2,-1,-1,-1,-1,-4,0
10645,0,0,-1,-1,-1,0,-1,-2,0
10650,-1,-1,-1,-1,-1,0,-2,-1,0
10655,-1,1,0,0,-1,-3,-1,-1,0
10660,-3,-1,1,-1,-1,1,-2,-1,0
10665,-1,-1,0,-1,-1,-3,-3,-1,0
10670,-2,0,0,-1,-1,0,0,-2,0
10675,1,-2,0,0,-1,-1,-1,-2,0
10680,-1,0,-1,-2,-1,-2,-1,-1,0
10685,1,-1,-2,-1,0,-1,1,0,0
10690,-3,-1,-1,-2,-4,-1,-2,-1,0
10695,2,-2,-1,-1,-2,0,-1,1,0
10700,1,-1,0,-1,-1,-1,-2,-3,0
10705,-2,-1,-2,0,-1,-2,-1,-2,0
10710,-3,0,-2,0,1,-1,-1,-1,0
10715,0,-1,-3,-1,0,0,0,-2,0
10720,-3,-2,-2,-1,0,-1,0,-1,0
10725,3,-1,-2,-1,-3,0,0,0,0
10730,-3,0,-2,-2,1,-1,0,-3,0
10735,0,0,-1,0,-1,-3,-1,-4,0
10740,0,-1,-3,-3,-1,0,-2,0,0
10745,-2,0,0,-1,-1,-2,1,1,0
10750,2,-1,-2,0,-1,-1,0,-1,0
10755,-2,-2,-2,-1,-1,-1,-3,0,0
10760,-2,-3,-1,0,-2,0,0,-1,0
10765,0,-1,-1,-2,-1,0,-2,-2,0
10770,-3,-1,-1,-1,-2,-2,1,1,0
10775,-2,-3,-2,-1,0,-1,-2,-2,0
10780,1,0,-1,1,-1,0,-1,-2,0
10785,-1,-2,0,0,0,-3,0,-1,0
10790,3,0,-2,1,-1,0,0,1,0
10795,-4,-2,0,0,-2,-1,-1,0,0
10800,0,-2,-1,1,-2,-2,-2,0,0
10805,-3,-1,-1,1,-2,0,-1,-2,0
10810,-2,-3,-1,-1,-1,0,-1,-2,0
10815,0,-2,0,0,-1,-1,0,-2,0
10820,1,-2,-1,-1,-1,-1,-2,-1,0
10825,-1,-1,-3,-1,-2,1,-1,0,0
10830,-7,-2,-1,-1,-2,-2,-3,-3,0
10835,4,0,-2,-1,-1,-1,1,3,0
10840,-3,0,-2,-2,-2,-3,-1,0,0
10845,-1,0,-1,0,0,-1,-1,-1,0
10850,0,-1,-1,-1,-1,-1,-1,-1,0
10855,-3,-2,-1,-2,-1,0,0,-2,0
10860,-2,-2,-1,-3,-2,-2,-2,-2,0
10865,0,-3,-1,-1,-1,-1,0,0,0
10870,0,0,-2,-2,-1,-2,0,-3,0
10875,-1,-1,0,-1,0,0,-1,0,0
10880,-1,-1,-1,1,-1,-1,-1,-1,0
10885,-3,-1,-2,-1,-1,0,-1,0,0
10890,-1,0,-3,-1,-1,0,-1,0,0
10895,2,0,0,-2,-2,-1,-3,-4,0
10900,-2,-2,-1,-2,-1,-1,0,2,0
10905,-9,0,0,-2,-1,0,-2,-1,0
10910,4,-1,0,-2,-3,-3,0,-1,0
10915,-3,0,-2,0,-1,-2,-1,-1,0
10920,-1,-3,-3,-2,-1,-1,-2,0,0
10925,0,-1,0,-1,-1,-3,-4,-2,0
10930,-1,-1,0,0,1,-1,-1,1,0
10935,0,-1,-3,0,-2,-2,-3,-3,0
10940,-1,0,-1,-1,-1,1,0,-1,0
10945,2,0,-1,1,0,-1,0,-2,0
10950,-2,0,-1,-1,0,-1,0,-2,0
10955,2,-1,-2,0,-2,-2,-2,-1,0
10960,-1,-1,-2,-1,-1,0,-2,-1,0
10965,1,0,-1,-2,0,0,-1,-1,0
10970,-2,-1,0,-1,-2,0,-2,1,0
10975,-1,-2,-1,-3,0,0,-1,0,0
10980,-5,0,-1,-2,-1,-2,-2,-2,0
10985,6,0,-3,0,-1,-2,-1,2,0
10990,0,-1,-2,0,-1,-1,0,-1,0
10995,-1,0,-1,-1,0,0,-1,-2,0
11000,-1,0,-1,-1,1,0,-1,-3,0
11005,-1,-2,-1,-2,-2,0,0,-1,0
11010,0,-1,-2,-2,-2,1,-1,-2,0
11015,-2,-2,0,-1,-2,0,-1,-1,0
11020,2,1,-1,1,0,0,-1,-1,0
11025,0,-2,-2,-2,-1,-3,-1,3,0
11030,0,0,-1,-1,-1,-1,-2,-2,0
11035,-1,1,0,-1,-1,-2,0,2,0
11040,0,-2,-1,-1,-1,0,0,-4,0
11045,-7,0,1,0,-1,0,0,0,0
11050,-5,-1,-1,-2,-2,-2,-3,-1,0
11055,-1,-1,-1,-1,0,-1,-2,-2,0
11060,3,0,-1,-1,0,-2,0,1,0
11065,-2,-2,-4,-2,-1,0,-1,-3,0
11070,2,0,-2,-1,1,1,-2,0,0
11075,-2,-1,-2,0,-1,0,-1,0,0
11080,-1,0,0,-2,0,0,0,1,0
11085,0,-2,0,-1,-1,0,-2,-1,0
11090,0,0,-1,-1,0,-1,-1,1,0
11095,-1,0,-2,0,-2,1,-1,-1,0
11100,-1,-1,-1,-1,-2,-3,-2,-2,0
11105,0,0,-1,-1,-1,-2,0,-2,0
11110,4,-1,0,-2,-1,-2,0,-4,0
11115,1,-1,1,-1,-1,-1,0,0,0
11120,-2,-2,-1,-1,-1,-1,-2,-1,0
11125,1,-1,-1,-1,-1,0,-2,-1,0
11130,0,0,-1,-1,-1,-1,0,2,0
11135,-2,-1,-2,-1,0,-2,1,-1,0
11140,-2,0,0,-1,-2,0,-2,-1,0
11145,-1,-2,0,-3,0,-1,-1,-3,0
11150,-2,0,0,1,1,0,0,3,0
11155,0,-3,-2,-2,-1,-2,0,-1,0
11160,0,0,0,-1,-1,-1,-1,0,0
11165,-3,0,-2,0,-3,-2,-3,-3,0
11170,2,-2,-1,0,-1,-1,-2,-4,0
11175,0,0,-1,0,-1,-2,0,-1,0
11180,-3,-4,-2,0,-2,0,-2,-1,0
11185,3,0,1,-3,-1,0,-2,-1,0
11190,-3,-1,-1,-1,0,-1,0,-3,0
11195,-1,-1,0,-1,0,-1,-1,-3,0
11200,-1,-1,-1,-1,-2,-1,1,-3,0
11205,-2,-2,-1,0,-1,-1,-1,-1,0
11210,-2,-1,0,-1,0,0,-2,0,0
11215,-4,0,-2,-1,-1,-1,-2,-1,0
11220,0,0,-2,-2,-1,1,-1,-1,0
11225,0,-1,-3,-1,-3,-2,-1,-2,0
11230,-2,-3,0,-2,-2,-2,1,-3,0
11235,0,-1,-1,-2,-1,0,-3,-3,0
11240,0,0,-1,-2,0,0,-1,1,0
11245,1,-1,-1,-1,-2,0,-3,0,0
11250,-2,-2,0,-2,-1,-2,-2,-1,0
11255,-1,0,-1,0,0,-2,-2,1,0
11260,-2,-1,-1,0,-1,-2,-1,-2,0
11265,-1,0,0,0,1,-1,-1,0,0
11270,-2,-1,0,-2,-1,0,0,0,0
11275,-1,-1,0,-2,0,-1,-2,0,0
11280,-2,-1,0,-3,-1,-2,-1,-1,0
11285,-2,0,-2,-1,-1,-1,0,0,0
11290,-1,-2,-1,0,-1,-1,-1,-1,0
11295,-2,-3,-1,-3,-1,-2,0,-3,0
11300,0,0,0,-1,-1,-1,0,0,0
11305,0,0,0,-1,0,-2,-2,-2,0
11310,1,1,-1,-2,-2,-1,-1,-1,0
11315,-2,-3,-2,-1,0,-1,-1,-2,0
11320,-5,-3,-1,-1,-2,-1,-1,-1,0
11325,10,-1,-2,-1,-2,0,0,0,0
11330,-2,-1,0,-1,0,-1,-2,-2,0
11335,-1,-1,0,-1,-2,-1,-2,-1,0
11340,-1,0,-3,-2,-2,-2,-1,-3,0
11345,-3,-2,0,-2,-1,-1,-2,-1,0
11350,-1,-1,-2,-1,-2,0,1,0,0
11355,1,-2,-1,0,0,-1,0,-2,0
11360,0,0,0,-2,0,-2,0,0,0
11365,-2,0,0,-1,-3,0,0,1,0
11370,0,-1,0,-2,-1,-2,0,-1,0
11375,-4,-2,-1,-1,0,0,-1,-1,0
11380,2,-2,1,1,-1,1,0,3,0
11385,-3,-2,-1,-1,-1,0,2,-2,0
11390,-3,0,-3,-1,-2,0,0,-1,0
11395,1,1,-3,-2,-3,-1,-1,1,0
11400,-2,-2,-1,-1,-1,-3,-1,-2,0
11405,-12,-2,-1,-1,-1,-1,-1,-2,0
11410,0,0,-1,-2,1,-1,-1,0,0
11415,-1,0,1,0,-1,-1,0,0,0
11420,1,-1,-1,1,-1,0,-1,-2,0
11425,-2,-3,-1,0,0,-2,0,-3,0
11430,-2,-4,-1,0,-3,-1,-3,-2,0
11435,0,-1,-1,1,-2,-1,-2,-1,0
11440,0,1,1,-2,-1,-1,-2,0,0
11445,-1,0,0,-1,1,-2,-2,0,0
11450,0,-1,-2,-1,0,0,-1,0,0
11455,-1,-2,-1,-1,-1,-2,0,-3,0
11460,2,0,-1,0,-2,-1,-2,1,0
11465,2,-1,-2,-1,-1,0,0,-2,0
11470,0,0,-1,-3,0,-1,-2,0,0
11475,-2,-1,-1,0,1,2,0,0,0
11480,-1,-1,-2,-4,0,1,-1,-2,0
11485,-10,-2,0,0,-1,0,-1,-1,0
11490,-2,-2,1,-1,-1,-1,-1,0,0
11495,4,-1,-1,-2,-1,-1,-1,-1,0
11500,-2,-2,-1,-3,0,0,-1,-3,0
11505,4,0,0,-1,-1,-2,-1,-1,0
11510,-3,-1,-1,-1,-2,0,1,-1,0
11515,-6,1,-1,-1,-2,-1,1,0,0
11520,0,-1,-2,-2,-1,-2,-2,-2,0
11525,2,-1,-2,-2,-1,-1,0,1,0
11530,1,0,-3,-1,-3,-3,-1,-2,0
11535,4,-1,-2,-2,-2,-2,-1,-3,0
11540,5,1,2,0,0,-1,0,1,0
11545,-2,-4,0,-1,-1,-1,-2,0,0
11550,-4,-2,0,-2,-1,0,0,-3,0
11555,1,-2,-3,-1,-2,-1,-2,0,0
11560,9,-1,0,0,-1,-2,-1,0,0
11565,0,1,1,-1,-1,-2,0,0,0
11570,-13,-2,-2,-1,-2,-1,-1,-3,0
11575,-4,-3,-1,-1,0,-2,-3,-6,0
11580,0,0,-2,-1,-1,-1,-1,1,0
11585,9,0,0,2,-1,1,1,8,0
11590,-1,-2,-2,1,-1,-2,-1,-2,0
11595,-8,-1,0,-1,0,-1,-1,-3,0
11600,-7,-2,-2,-3,-2,-1,-2,-4,0
11605,1,-1,-3,-2,-3,-1,-3,-5,0
11610,3,0,0,-1,-2,-2,-1,-2,0
11615,-1,0,-1,-1,-1,-1,-1,2,0
11620,-5,-3,1,0,-1,-2,0,-3,0
11625,3,-2,-2,-2,-2,-1,-2,-4,0
11630,-17,-1,0,-2,-1,0,-1,0,0
11635,15,1,1,-2,1,-1,-1,0,0
11640,-6,0,-2,0,-1,0,1,-1,0
11645,-4,0,-3,-2,-2,0,-1,-1,0
11650,2,-2,-2,-1,-1,-3,-3,-2,0
11655,-3,0,-2,-3,-2,1,-1,1,0
11660,-1,-1,-3,-1,0,0,-1,-4,0
11665,0,0,-2,-1,0,-2,-1,-4,0
11670,-2,-2,-1,-1,0,-1,-1,-3,0
11675,0,-2,0,-1,1,0,1,4,0
11680,2,-3,-3,-1,-1,-1,-2,-1,0
11685,-7,-2,0,0,-2,0,-1,-3,0
11690,4,-1,-1,1,-2,-2,-1,0,0
11695,-4,-2,0,-2,-1,0,1,-2,0
11700,5,0,0,-1,2,0,2,2,0
11705,-2,-2,-1,0,-1,0,-1,-1,0
11710,0,-2,0,-1,-1,-1,0,-1,0
11715,-5,-2,0,2,-3,-3,-4,-2,0
11720,4,-1,-1,-2,0,-1,1,-1,0
11725,2,-1,-1,-1,-2,-1,-1,-3,0
11730,-5,1,-1,0,-3,0,0,2,0
11735,-4,-2,-1,-3,-2,-1,-1,-2,0
11740,4,-2,0,0,-1,-2,-1,0,0
11745,-5,-1,0,-2,-1,-3,0,-3,0
11750,-9,-4,0,-3,-2,0,0,-2,0
11755,6,1,-2,1,0,-1,-1,-3,0
11760,12,2,-1,-1,-3,1,-3,1,0
11765,-2,-1,-1,0,-2,-2,0,0,0
11770,2,-1,0,-2,-2,-3,-2,-1,0
11775,-7,-3,-2,-1,-3,-3,0,-1,0
11780,-6,-3,0,-2,0,-1,1,-1,0
11785,9,0,0,-1,-1,-2,0,3,0
11790,0,-1,-1,-2,1,0,-2,-3,0
11795,-1,0,0,0,-2,1,0,-1,0
11800,3,0,-1,-1,-2,-2,-3,-2,0
11805,-4,-2,-2,-2,-1,-1,1,1,0
11810,-6,-2,-3,0,-1,-2,0,-3,0
11815,2,-1,0,-2,-1,1,0,-2,0
11820,-1,1,-1,-1,-2,-1,-2,-2,0
11825,-6,-1,-2,-1,-2,0,0,0,0
11830,0,-2,-2,-4,0,-1,-1,-1,0
11835,-1,-2,-1,-1,-1,-1,-1,-3,0
11840,0,-3,-1,-1,-1,-1,-1,2,0
11845,-5,-2,0,-3,-1,-1,1,-2,0
11850,4,1,-2,-2,-1,-2,-1,0,0
11855,-2,-1,0,-1,-2,1,-1,-3,0
11860,-3,-1,0,0,-2,1,1,4,0
11865,0,0,-2,-2,0,-1,-3,-2,0
11870,-2,-1,-2,0,-1,-2,-1,-2,0
11875,1,0,-1,-2,-1,0,-2,1,0
11880,-7,-1,-1,-2,0,0,-1,-4,0
11885,-2,-3,-1,-1,-2,-3,-1,-3,0
11890,-4,-1,-1,-2,-1,0,2,7,0
11895,5,2,-1,0,0,-3,-1,-4,0
11900,-1,-1,0,1,-1,0,0,2,0
11905,-2,-1,-2,0,0,-3,-1,0,0
11910,-3,-2,0,-1,-2,-3,-2,-6,0
11915,-1,0,0,-1,-1,-2,-4,-5,0
11920,2,-1,-1,-1,0,1,-1,0,0
11925,-5,-1,-3,-3,1,0,-2,-2,0
11930,2,0,-2,-2,-1,-2,0,-2,0
11935,-1,0,0,-1,-1,-2,-2,-1,0
11940,1,-1,-1,-1,-2,0,-2,-5,0
11945,-3,-1,0,-1,-2,-1,0,-2,0
11950,-2,-2,0,0,2,-1,-2,-4,0
11955,-2,-3,-2,-1,-2,-2,-2,-2,0
11960,0,-2,1,-2,-2,-1,-1,-1,0
11965,-3,-3,-1,-3,-1,-1,-2,-2,0
11970,-1,1,0,-1,0,-2,-1,1,0
11975,-2,-2,-2,-1,-1,0,-2,2,0
11980,-1,0,-1,0,-1,-1,0,-1,0
11985,-2,-1,0,-2,-2,1,0,1,0
11990,0,-1,-1,-2,0,1,0,-2,0
11995,-4,-1,-2,-1,-1,-3,-1,-2,0
12000,2,-1,-3,-1,-1,-1,-2,0,0
12005,-4,-1,-1,0,-1,-3,-2,-2,0
12010,1,1,0,-2,-1,-1,-1,1,0
12015,-2,-1,-1,-2,0,1,0,0,0
12020,-2,0,-2,-3,-2,-4,-2,0,0
12025,2,1,-2,-2,0,-2,-2,0,0
12030,-5,-3,-3,-1,0,1,-1,-3,0
12035,-1,-1,-2,-1,-3,-1,-2,-2,0
12040,-1,-1,0,1,-2,-3,0,0,0
12045,-1,-1,-1,0,0,-1,0,-1,0
12050,0,-1,-1,-2,0,-3,-1,-6,0
12055,-3,0,0,-1,-1,0,-1,-1,0
12060,-2,-1,-2,-1,0,-1,0,0,0
12065,0,-1,0,-1,-2,-1,-3,-1,0
12070,-3,-2,-2,-2,-2,-1,-1,-1,0
12075,1,-1,-2,0,0,-1,-1,0,0
12080,-4,0,0,-1,-1,-1,-3,-4,0
12085,1,-3,0,0,-1,1,1,-3,0
12090,1,-1,0,-3,0,0,-2,2,0
12095,-4,-1,0,-2,0,-1,-2,-3,0
12100,0,-2,-1,0,0,1,-2,0,0
12105,-4,-1,-3,-1,-1,0,1,2,0
12110,3,0,-2,-1,-1,-1,-1,-2,0
12115,8,-2,-2,-2,0,-2,-2,2,0
12120,-9,-1,0,0,0,-3,-4,-5,0
12125,13,0,-1,-1,-1,-1,4,8,0
12130,-7,-4,-2,0,-1,4,1,-4,0
12135,4,1,0,0,-1,-1,-3,-2,0
12140,2,1,-2,-4,-1,-2,-2,3,0
12145,-6,-4,0,1,-2,-9,-12,-5,0
12150,3,2,-3,-3,-1,2,15,7,0
12155,-5,-2,0,1,2,8,12,-8,0
12160,2,0,-1,-3,-1,-2,-6,-1,0
12165,-7,-3,0,-2,-1,0,-1,0,0
12170,1,-3,-1,-1,-4,-5,-13,-3,0
12175,-3,-1,-1,-1,-2,-5,-1,-2,0
12180,1,0,-1,-3,-2,2,-3,0,0
12185,-6,0,1,0,1,0,10,-2,0
12190,7,-5,0,0,1,6,10,2,0
12195,-5,5,-4,-3,-1,-2,-4,0,0
12200,-5,-5,-4,-3,-2,-8,-13,0,0
12205,-3,17,15,4,1,5,5,-1,0
12210,-6,-15,-10,8,3,2,-11,-2,0
12215,4,8,11,-7,1,-6,-1,0,0
12220,0,6,7,5,-7,-7,-16,-5,0
12225,-2,-9,-18,-8,-7,-2,18,-2,0
12230,-2,10,21,-2,6,9,6,-1,0
12235,-4,-7,-8,-3,-11,-2,-1,1,0
12240,-5,-5,-13,-13,-10,-5,-1,-4,0
12245,19,4,11,0,8,-2,-10,4,0
12250,-5,4,-3,5,-13,-4,2,-2,0
12255,-1,-3,-5,3,11,5,-8,0,0
12260,-2,1,16,13,12,7,28,4,0
12265,-2,-4,-4,7,6,5,-4,0,0
12270,-3,-5,-7,-11,-11,-5,-14,-2,0
12275,2,2,-5,-6,-6,-5,1,-2,0
12280,1,-4,-1,0,0,1,-2,2,0
12285,-3,-1,-3,-1,4,0,-3,-3,0
12290,0,-1,-4,2,2,-2,-1,-2,0
12295,-5,-4,4,3,-1,0,-12,-4,0
12300,-1,-1,-6,-9,-13,0,14,-4,0
12305,-2,-6,-7,-15,-15,-8,7,2,0
12310,2,8,7,5,11,7,-18,2,0
12315,-2,-4,2,17,38,2,27,-3,0
12320,3,-4,-2,3,-11,-5,-48,-3,0
12325,-3,-4,-4,-13,-17,-1,27,7,0
12330,-5,-2,-5,-19,-29,-19,-5,-6,0
12335,3,-1,-2,-4,-15,-5,-16,-4,0
12340,-1,-1,-4,-3,13,0,33,-1,0
12345,-8,-2,3,3,-2,-1,-18,1,0
12350,-6,-2,-2,11,14,6,-4,-3,0
12355,5,-1,6,11,31,15,3,1,0
12360,9,4,-6,0,-11,-1,3,-3,0
12365,0,-2,-4,-9,-5,-2,-10,4,0
12370,1,-3,-6,-10,-5,-9,4,-2,0
12375,0,-1,-4,-2,-15,-5,-5,2,0
12380,-5,0,4,11,19,12,3,-2,0
12385,-2,2,3,21,41,9,-16,-8,0
12390,-2,-5,-6,-12,-16,-4,-4,-7,0
12395,-4,-4,-8,-31,-58,-24,2,0,0
12400,-5,-5,-6,-21,-28,-15,-18,-3,0
12405,-11,-2,-2,3,8,-2,9,-6,0
12410,-1,0,4,25,38,14,0,-1,0
12415,14,4,2,12,28,13,9,1,0
12420,15,0,-1,-11,-15,-1,6,8,0
12425,0,-3,-5,-11,-34,-17,-15,-8,0
12430,0,0,1,1,-1,0,6,-1,0
12435,-8,-2,0,0,2,6,0,2,0
12440,-15,0,4,14,36,21,-2,-10,0
12445,-1,-2,3,13,34,2,2,-2,0
12450,3,-6,-8,-20,-54,-17,1,2,0
12455,-2,-1,-2,-17,-20,-8,-7,8,0
12460,19,3,1,9,9,-1,-2,7,0
12465,-3,-1,-3,-7,0,17,-6,-10,0
12470,-11,-1,0,-5,-6,-31,4,4,0
12475,-5,-8,-5,4,-15,-11,-7,-10,0
12480,3,1,3,4,19,20,14,1,0
12485,3,0,-2,15,18,3,-6,-4,0
12490,-7,-1,-2,-17,-30,11,2,2,0
12495,-5,-6,-7,-20,7,-16,-11,-8,0
12500,1,-3,-1,1,-29,22,2,3,0
12505,4,-2,-2,-3,-5,-21,-5,0,0
12510,-1,-1,-1,11,23,8,8,8,0
12515,-4,-2,-1,9,-7,-12,-10,-14,0
12520,-5,-1,0,-15,3,-1,1,-1,0
12525,-3,1,1,8,10,20,0,-3,0
12530,14,6,5,26,59,12,11,9,0
12535,-6,-1,-4,-12,-45,-5,-5,-4,0
12540,-9,-5,-10,-25,-28,-29,-11,-6,0
12545,0,-4,-5,-27,-76,-23,-5,2,0
12550,-4,1,0,1,20,-7,-4,-9,0
12555,6,1,3,26,52,23,6,6,0
12560,-5,0,3,14,15,-1,4,-1,0
12565,4,0,0,12,41,4,0,7,0
12570,-1,-1,-5,-24,-64,0,-3,1,0
12575,-10,-2,-1,-13,-19,-2,0,-4,0
12580,3,-1,-2,3,3,-15,2,5,0
12585,-8,-3,1,-1,3,11,1,4,0
12590,-6,0,0,4,19,1,-5,-8,0
12595,31,2,1,-4,-15,-1,1,11,0
12600,-8,-2,0,2,6,-6,-1,4,0
12605,4,1,1,8,21,4,1,3,0
12610,-2,-3,-2,-5,-26,-1,-2,-14,0
12615,-26,-3,-1,-8,6,-3,1,-9,0
12620,-2,-1,-1,-3,-14,-9,-8,-9,0
12625,3,1,0,-4,-11,-5,1,-4,0
12630,17,-1,-2,-6,-2,1,-4,7,0
12635,-2,0,2,7,15,1,4,-13,0
12640,2,-1,-1,6,16,5,6,10,0
12645,-19,-4,-3,-9,-21,-3,-5,-10,0
12650,-17,-3,-1,-2,5,-2,-3,-7,0
12655,29,5,1,9,12,5,-4,6,0
12660,-3,-2,0,1,2,-1,-2,-16,0
12665,-2,-3,-4,-13,-22,-11,-10,-16,0
12670,3,1,1,1,-2,3,6,1,0
12675,-12,-2,-2,0,5,-1,-3,10,0
12680,-5,-1,1,-2,-11,-4,-2,-11,0
12685,-7,-8,-2,1,4,0,-3,-2,0
12690,7,5,1,4,17,4,-4,6,0
12695,-4,0,0,0,-14,-3,1,0,0
12700,7,1,-4,-3,0,-2,-8,-3,0
12705,-12,2,6,10,13,6,20,9,0
12710,1,-9,-12,-8,-7,-2,-2,-9,0
12715,-4,-2,-3,-8,-10,-2,0,7,0
12720,-8,-4,-3,3,8,-3,-1,-6,0
12725,5,3,2,1,-7,0,-5,1,0
12730,-4,-7,-3,2,5,-3,-4,8,0
12735,-7,6,7,4,5,1,7,-4,0
12740,-3,-2,-5,-11,5,1,-10,7,0
12745,4,-3,-1,-13,-38,-10,-4,-10,0
12750,-1,6,1,1,15,-3,3,-11,0
12755,1,-4,-3,6,9,6,-3,28,0
12760,2,2,6,4,3,1,1,-5,0
12765,0,-4,-3,-1,7,0,3,16,0
12770,-2,-2,0,-2,-12,0,-6,-2,0
12775,-4,-4,-4,-10,-8,-4,-12,-14,0
12780,-2,-4,-2,2,2,-3,15,5,0
12785,1,0,-4,1,1,3,-7,-1,0
12790,-4,-2,0,1,5,-4,-7,-6,0
12795,6,8,5,5,5,3,3,20,0
12800,-6,-4,-6,-21,-26,-6,2,0,0
12805,0,-1,-4,2,1,-2,1,-6,0
12810,1,0,4,6,29,7,19,13,0
12815,-3,-2,-1,-2,-24,-8,-28,-23,0
12820,-5,-3,-5,-4,-13,-7,9,7,0
12825,6,2,-3,-5,0,-3,2,-6,0
12830,0,0,2,1,-1,2,10,13,0
12835,-2,-3,-1,6,22,3,12,1,0
12840,-2,1,3,7,6,4,-18,-9,0
12845,8,-2,-2,-6,-8,-5,-3,-8,0
12850,-20,0,1,-7,-8,-1,5,8,0
12855,11,-4,-1,2,-1,1,13,-6,0
12860,13,6,-2,-3,4,4,12,0,0
12865,0,1,-4,-4,-2,-2,-4,12,0
12870,7,0,1,5,14,5,-5,-12,0
12875,-8,-3,-3,-5,-19,-2,-4,0,0
12880,0,0,0,-1,-6,-4,-6,5,0
12885,1,-1,-2,-2,-3,-6,3,-18,0
12890,-1,1,-1,-2,-2,-2,-14,-8,0
12895,-9,0,0,2,8,5,2,-2,0
12900,-2,-3,2,5,4,-1,4,1,0
12905,0,2,-5,0,10,4,1,2,0
12910,-3,-1,-1,-5,-22,-7,-12,-11,0
12915,0,-3,-4,-1,2,-7,9,5,0
12920,-7,-5,-1,5,10,14,-29,0,0
12925,-3,6,0,-4,-13,-6,-8,2,0
12930,3,-3,0,4,12,2,11,-5,0
12935,-2,-3,-5,-8,-9,-2,-41,3,0
12940,-7,-1,0,-2,-10,-3,36,-7,0
12945,4,2,3,4,6,3,-10,9,0
12950,2,-2,-2,0,-3,-1,-2,-15,0
12955,-4,-5,1,2,14,4,10,8,0
12960,-2,0,0,-2,-11,-7,-6,-2,0
12965,-2,-3,-1,-3,6,10,-1,6,0
12970,4,0,-5,-6,-21,-13,3,2,0
12975,-3,-1,0,0,13,1,3,-4,0
12980,-3,-4,-1,4,-3,-2,-11,-9,0
12985,-1,-1,-2,-2,-10,-4,4,7,0
12990,0,-2,0,-4,0,-6,-3,7,0
12995,-2,1,-2,1,-1,1,7,-19,0
13000,3,0,-3,-6,-2,2,-2,23,0
13005,-4,-5,-2,-1,-4,-7,-2,-19,0
13010,-2,-1,-1,2,6,4,3,7,0
13015,3,2,0,-2,-4,4,5,3,0
13020,-6,-2,-3,-1,2,-6,-2,-16,0
13025,-15,-9,-1,-3,-9,-10,1,-13,0
13030,8,4,1,0,1,1,-18,-5,0
13035,-2,-3,-1,-2,1,-1,6,9,0
13040,10,5,0,2,-3,2,8,2,0
13045,-2,0,2,-1,5,0,-1,6,0
13050,-5,-9,-6,-5,-4,-4,-5,-8,0
13055,-4,-1,0,-6,-17,-7,5,14,0
13060,2,4,-2,6,14,3,-3,0,0
13065,1,1,2,5,13,6,5,0,0
13070,-2,-2,-2,-3,-12,-3,2,0,0
13075,3,-1,-4,-4,-6,-3,-4,-4,0
13080,-12,-7,-4,-4,-7,-5,-18,-2,0
13085,-1,1,-2,-1,2,-3,19,2,0
13090,1,0,1,-4,-2,0,9,1,0
13095,-2,-1,1,4,-2,-2,-5,-4,0
13100,-6,-4,1,1,1,-2,-1,-3,0
13105,9,1,1,5,16,8,-5,8,0
13110,-2,-1,-3,-4,-16,-3,-3,-6,0
13115,-2,-1,0,-1,7,-2,6,7,0
13120,-1,-1,0,-1,0,-3,-4,-22,0
13125,1,-2,-3,-8,-14,-3,-1,7,0
13130,-3,1,0,4,3,0,-12,-12,0
13135,-1,-2,-2,-7,-14,-7,-19,-29,0
13140,-2,0,0,2,3,3,24,7,0
13145,1,-1,2,7,18,7,-4,-4,0
13150,1,0,-1,-4,-6,-6,3,4,0
13155,-9,-2,-5,-7,-13,-4,-12,-11,0
13160,-3,0,-1,-5,-11,-9,-2,5,0
13165,3,0,0,0,-3,1,-3,-3,0
13170,-1,3,5,7,26,6,0,0,0
13175,-24,-4,-2,3,-6,-1,1,-22,0
13180,3,-4,0,-2,3,1,-15,-3,0
13185,43,8,-2,-5,-26,-7,6,3,0
13190,7,1,0,3,9,4,1,22,0
13195,-2,0,-1,-1,5,4,6,-13,0
13200,2,3,-1,-3,-4,0,1,24,0
13205,-24,-6,0,2,3,-3,-14,-25,0
13210,-5,0,1,6,11,4,-11,-15,0
13215,20,1,-3,-8,-12,-1,19,34,0
13220,-8,-4,-1,-4,-17,-9,-5,-11,0
13225,-8,-4,0,0,6,0,-2,0,0
13230,1,0,1,0,-3,3,1,7,0
13235,-5,-1,-2,2,12,4,-4,1,0
13240,6,-2,-2,-2,-7,-7,-4,-2,0
13245,-6,0,-1,-3,6,9,2,3,0
13250,2,-2,-1,-2,7,-3,-1,2,0
13255,-5,-2,0,5,9,4,-4,1,0
13260,-6,5,31,-5,-10,-2,1,-5,0
13265,2,-7,-49,1,5,-4,-2,-10,0
13270,11,3,1,-3,1,7,2,26,0
13275,-12,-2,0,-5,-15,-8,-3,-3,0
13280,0,-3,-6,-1,5,1,-1,-4,0
13285,2,2,15,2,1,-1,1,6,0
13290,-6,-3,-1,4,6,0,-11,-18,0
13295,-3,-3,-9,-2,-1,-2,7,9,0
13300,6,0,-2,-5,-8,-2,1,14,0
13305,-5,0,7,1,1,-3,-2,-7,0
13310,-7,-2,-6,3,3,3,-2,-2,0
13315,-3,-1,6,-3,-5,-6,-4,-13,0
13320,-5,-5,-10,-3,-9,-4,-1,-5,0
13325,-2,-3,7,2,8,6,3,13,0
13330,12,5,0,-2,-1,2,-1,-15,0
13335,-4,-2,-2,-2,-4,-4,2,23,0
13340,-4,-1,-8,-1,6,-4,-1,-3,0
13345,-1,0,2,-1,-4,2,-2,-9,0
13350,-4,-3,0,-7,-6,-2,1,-3,0
13355,-1,-2,-3,-5,-13,-10,-7,-10,0
13360,2,-2,-6,0,4,1,0,1,0
13365,-2,1,7,3,10,3,0,6,0
13370,0,-1,2,1,-5,1,-2,-2,0
13375,1,0,-5,-4,1,4,3,4,0
13380,-1,-3,-5,-5,-10,-6,-3,-1,0
13385,-5,-2,2,-3,-2,-5,-7,-15,0
13390,-1,-3,-1,2,11,4,8,26,0
13395,1,-1,-1,2,-9,1,0,13,0
13400,0,0,-3,-4,-7,-4,-4,-17,0
13405,2,-1,3,6,9,8,3,-1,0
13410,-3,2,19,-5,-12,-8,-3,-15,0
13415,-3,-9,-22,-11,-5,-7,-5,-2,0
13420,5,0,0,4,-3,0,1,11,0
13425,3,0,-3,0,4,-1,-3,0,0
13430,-4,-1,5,7,10,5,-3,0,0
13435,3,2,6,1,2,2,11,-1,0
13440,-10,-9,-7,-7,-17,-7,-4,-9,0
13445,-1,1,0,-2,0,-1,-2,-8,0
13450,0,-3,-9,-1,-1,1,3,12,0
13455,-2,1,3,1,6,2,-7,-12,0
13460,-5,-2,-3,2,7,3,1,2,0
13465,3,-2,-2,-8,-9,-4,1,5,0
13470,-8,-3,-4,-2,-6,-6,-6,-10,0
13475,6,3,1,4,4,0,-4,0,0
13480,-5,1,2,3,9,3,-2,-9,0
13485,1,0,0,-2,-13,-5,1,14,0
13490,-7,-2,-7,-10,-3,-1,3,-18,0
13495,-5,-3,0,1,-1,-3,-14,-14,0
13500,-1,-4,-3,-3,4,-6,-15,4,0
13505,-19,-3,1,1,2,8,44,-11,0
13510,36,4,-1,4,1,11,7,21,0
13515,1,0,3,-3,-4,-8,5,0,0
13520,-7,-3,-6,-3,-5,-1,0,6,0
13525,-5,-3,-3,0,8,-8,-37,-30,0
13530,-14,-4,-4,-6,-13,-8,21,0,0
13535,-6,1,2,1,0,2,-9,-21,0
13540,7,-1,0,3,12,4,10,22,0
13545,7,0,0,-1,-16,-3,-2,19,0
13550,-6,-3,-4,-2,5,2,-7,-15,0
13555,2,0,1,0,6,0,-6,25,0
13560,-6,-1,0,1,-7,0,7,-3,0
13565,6,1,4,-5,5,1,-4,2,0
13570,-8,-3,-6,1,4,-8,-5,-13,0
13575,-4,-5,-4,-5,-15,-2,4,-3,0
13580,29,9,2,-1,3,1,3,21,0
13585,5,0,2,2,-6,-1,3,6,0
13590,-12,-3,-2,-2,-5,-8,-20,-14,0
13595,-2,-2,0,1,11,4,-7,4,0
13600,-4,0,0,3,-3,6,43,-11,0
13605,-2,1,-3,-5,-9,-2,-45,11,0
13610,4,-1,-7,-1,2,-7,16,-4,0
13615,-2,0,6,6,8,6,-1,9,0
13620,-1,0,2,1,-3,2,-8,-9,0
13625,-5,-6,-3,-11,-7,-9,10,-11,0
13630,-9,-1,0,3,-5,0,-5,27,0
13635,4,0,-2,-2,-4,-5,-6,-3,0
13640,-1,-2,-3,-3,-1,-4,-4,6,0
13645,-3,0,1,3,9,4,7,-16,0
13650,4,-1,-2,1,7,5,-8,-7,0
13655,-6,2,-2,-3,-7,-3,5,-3,0
13660,-6,0,2,1,-6,1,-2,-6,0
13665,3,0,-1,-1,6,-1,3,8,0
13670,2,1,2,-6,-8,-4,-12,-4,0
13675,1,-1,0,5,7,-1,0,-7,0
13680,-3,-1,-4,-4,-5,-4,-23,-7,0
13685,1,-1,-3,-6,-11,0,22,-3,0
13690,0,0,0,5,13,2,-2,24,0
13695,-1,-2,-1,-5,-8,-1,-6,-4,0
13700,-7,-2,0,-2,-7,-5,-13,-10,0
13705,3,1,0,5,10,0,-1,0,0
13710,-5,-2,0,-4,-7,-2,14,-12,0
13715,-1,-2,-6,-3,1,-2,-9,0,0
13720,-4,-2,0,5,13,2,-18,-7,0
13725,5,2,-1,-5,-15,-3,-8,-1,0
13730,0,-1,-1,-3,-4,-1,14,12,0
13735,-6,-3,-1,0,-2,-5,-14,-26,0
13740,-4,0,0,-2,9,-1,-2,12,0
13745,1,0,1,-1,4,3,5,17,0
13750,-2,-2,-2,-4,-23,-12,-6,-9,0
13755,2,-1,0,-5,10,-1,5,-8,0
13760,-5,-3,1,0,-18,3,10,-13,0
13765,4,1,0,4,13,-1,3,33,0
13770,-2,0,-1,0,10,8,-7,-10,0
13775,0,0,-2,-1,-14,-4,12,2,0
13780,0,-2,-3,-7,2,-2,-1,-8,0
13785,-5,-1,-1,-1,0,2,-12,-10,0
13790,2,-1,-2,0,-2,-3,-2,1,0
13795,-1,0,1,4,11,3,-2,-1,0
13800,1,-1,-1,0,5,4,9,8,0
13805,-2,-3,-3,-7,-14,-8,0,-11,0
13810,0,-2,-1,-6,-13,-9,-28,5,0
13815,-3,-2,-3,-4,-5,-1,15,-2,0
13820,2,-1,-2,0,-2,-4,-9,0,0
13825,-2,0,2,5,10,5,12,-2,0
13830,-3,1,-1,4,23,5,-6,-10,0
13835,-2,-1,0,-2,-29,-5,-3,-15,0
13840,0,-1,-6,-7,1,-9,-6,20,0
13845,3,0,-2,-1,-5,2,14,3,0
13850,-1,-1,2,0,-2,1,13,-2,0
13855,1,-1,0,1,4,2,0,11,0
13860,-6,-1,0,-1,-4,-3,2,-14,0
13865,-4,-3,-2,2,0,-3,2,-8,0
13870,2,-2,1,7,14,3,1,10,0
13875,-1,0,-3,-9,-7,-1,2,-2,0
13880,-1,-1,-4,-5,-21,-11,-11,-9,0
13885,-2,-2,-2,1,0,-1,-8,-2,0
13890,1,0,-1,0,3,-2,-1,-8,0
13895,0,-2,0,4,7,5,-8,6,0
13900,1,0,-2,-2,0,6,9,2,0
13905,-1,-1,-3,-3,-4,-10,-8,-10,0
13910,-4,0,-2,-2,-14,-1,2,-6,0
13915,-3,-1,-2,-4,7,-6,8,-5,0
13920,7,3,2,1,-1,5,-28,21,0
13925,0,-2,1,3,5,-5,-11,-11,0
13930,-3,-2,-4,-2,-5,-3,5,-5,0
13935,0,1,1,0,-2,0,5,9,0
13940,-4,-3,0,2,8,8,16,-11,0
13945,0,0,-4,0,11,-4,-21,10,0
13950,-3,-2,0,-2,-18,-2,-3,-16,0
13955,-3,-3,-1,-6,2,-3,-1,-6,0
13960,-4,-4,-2,-8,-18,-7,4,-5,0
13965,-3,0,-1,-3,4,6,7,2,0
13970,-1,-1,0,-4,-3,1,-1,-1,0
13975,1,-1,1,6,13,5,20,7,0
13980,1,-2,1,2,2,-1,-6,-12,0
13985,-4,-3,-2,-1,-6,-2,-1,0,0
13990,-1,-1,-1,2,13,0,-16,-7,0
13995,3,1,-1,-2,-12,4,-14,16,0
14000,0,-1,-2,-3,6,-7,11,4,0
14005,1,-1,0,7,6,-3,19,-17,0
14010,-3,-2,-1,-6,-24,-1,-2,6,0
14015,0,-2,-3,-6,2,-2,0,1,0
14020,1,2,1,1,6,-4,2,-16,0
14025,-1,0,-1,-6,-12,4,5,10,0
14030,0,-2,-1,-2,6,1,-3,12,0
14035,-1,-2,-2,2,-2,-1,-3,-4,0
14040,2,-2,-2,-4,-1,1,2,13,0
14045,0,-1,0,3,1,-5,-8,3,0
14050,0,-1,-1,-2,5,-1,0,14,0
14055,-4,-2,-2,-3,-13,3,-3,-33,0
14060,-5,-1,-1,5,5,-4,-4,-6,0
14065,0,-2,-1,-3,1,5,-4,15,0
14070,-5,-3,-3,0,6,2,-4,-14,0
14075,-4,-2,1,5,4,-3,-7,16,0
14080,-4,-2,-2,-5,-10,3,2,-69,0
14085,13,4,-2,-3,4,2,-3,56,0
14090,-9,-2,-2,0,-6,1,-5,-13,0
14095,-5,-3,-2,2,8,-4,-1,-1,0
14100,2,-3,-1,-3,-14,-2,5,12,0
14105,3,-4,-2,-7,-5,-4,3,-10,0
14110,-13,2,4,4,9,9,12,-19,0
14115,5,0,-1,5,-2,-1,-15,2,0
14120,3,2,0,-3,5,-6,-20,12,0
14125,8,-1,-1,3,-10,-2,-1,-14,0
14130,0,-4,-1,-2,2,1,10,8,0
14135,-4,-2,0,-2,3,2,16,-1,0
14140,-5,0,-4,-5,-2,-2,-15,-3,0
14145,-20,-3,-3,0,-8,-5,-2,4,0
14150,8,-3,-4,-2,-5,-10,-5,-11,0
14155,4,0,-1,-1,-4,0,10,1,0
14160,6,1,1,10,24,8,-24,13,0
14165,-7,-2,-3,-2,-7,-2,16,-12,0
14170,-12,-3,-2,-3,2,-2,-4,4,0
14175,2,-4,-4,-10,-21,-11,0,-7,0
14180,6,1,-1,-5,-9,-5,-4,6,0
14185,-3,0,2,2,8,0,-11,-12,0
14190,4,0,2,5,14,1,5,4,0
14195,-8,-2,-2,-2,-9,1,-6,-2,0
14200,-5,-5,-1,1,0,1,16,1,0
14205,11,3,-2,-8,-9,-2,-2,-4,0
14210,10,1,0,-3,-5,5,-5,0,0
14215,-7,0,-2,0,1,-9,-14,1,0
14220,-1,1,10,-3,-3,-5,4,-2,0
14225,2,-2,-8,1,-2,8,4,-1,0
14230,-16,-2,3,-4,-11,5,8,-4,0
14235,17,3,-2,-6,-2,-1,2,5,0
14240,-3,1,4,4,11,10,-26,-11,0
14245,-6,-3,-4,2,8,2,-18,2,0
14250,-1,0,1,0,-3,2,25,1,0
14255,-5,-2,-4,-4,-10,-7,-16,-7,0
14260,-18,-2,18,0,-2,-6,22,-6,0
14265,15,-6,-25,1,5,6,-7,0,0
14270,10,3,5,-2,14,8,-7,6,0
14275,3,-1,-5,-2,-18,-8,2,6,0
14280,8,0,5,-1,-7,-7,-15,-4,0
14285,-1,3,3,-8,-5,-3,0,-2,0
14290,-5,-3,1,5,10,3,-1,-3,0
14295,2,0,-3,-3,-7,-4,9,-1,0
14300,-4,-5,-8,-4,-11,-3,-3,1,0
14305,-8,0,3,3,1,-5,-5,-2,0
14310,1,-1,-5,-2,4,8,13,0,0
14315,0,1,4,4,4,1,-20,-3,0
14320,1,2,3,2,9,2,20,5,0
14325,1,-1,-4,1,-7,2,-7,4,0
14330,-4,-2,5,-2,7,-4,-28,-9,0
14335,1,1,1,3,0,5,25,6,0
14340,2,1,-8,-2,0,-16,-11,-2,0
14345,-3,-3,8,-4,-18,-2,11,-1,0
14350,-2,-3,-3,-2,8,-16,-9,-5,0
14355,0,0,-3,0,-5,12,-3,2,0
14360,3,-1,-2,-3,2,10,20,-3,0
14365,-4,0,1,-4,0,1,-6,1,0
14370,-2,0,-3,4,2,-1,-26,-3,0
14375,-1,-2,1,-5,-1,-7,10,-4,0
14380,0,-1,-7,-4,-11,0,-14,0,0
14385,-5,-2,0,0,6,-3,11,-7,0
14390,3,3,0,1,-4,11,19,7,0
14395,2,1,3,3,12,-4,1,2,0
14400,-2,-1,-1,0,0,9,-16,-1,0
14405,-1,-2,-2,-2,-4,-5,25,1,0
14410,0,-2,1,-2,-10,-10,1,-1,0
14415,-2,-1,3,2,4,4,10,-4,0
14420,-4,-4,-6,-4,-10,-8,-55,-7,0
14425,-7,-5,-5,-7,-4,-16,27,-19,0
14430,12,8,8,5,8,21,-9,47,0
14435,5,2,-2,1,-4,18,2,14,0
14440,-1,-2,-4,1,9,-3,-15,-3,0
14445,-13,-7,-4,-4,-6,-16,16,-49,0
14450,-3,-6,-6,-1,-1,1,-26,28,0
14455,10,9,13,9,0,13,89,17,0
14460,-5,-5,-11,-7,3,-13,-3,-18,0
14465,13,4,3,11,18,40,50,50,0
14470,-6,0,-7,-8,-6,-13,100,-35,0
14475,-14,-10,-15,-19,-26,-43,-119,-46,0
14480,16,10,18,17,19,52,92,46,0
14485,5,2,-4,-7,-5,4,25,34,0
14490,-2,-6,-14,2,6,15,-37,-3,0
14495,0,-3,0,-6,-10,-10,17,1,0
14500,-10,-6,-2,-4,-17,-22,-39,-35,0
14505,-4,-4,-3,1,6,-4,-65,-9,0
14510,1,2,5,-4,-11,-1,3,5,0
14515,-7,-4,-4,-2,2,-19,-43,-13,0
14520,1,-4,-7,0,7,5,12,0,0
14525,-5,1,8,4,6,18,3,5,0
14530,-7,-3,1,-2,-5,-24,34,-6,0
14535,11,4,1,0,3,5,-74,-12,0
14540,-2,3,4,0,6,25,82,37,0
14545,3,4,12,2,3,-12,-28,3,0
14550,-8,-6,-26,-5,-10,-7,3,-28,0
14555,-3,-4,-1,-1,-4,-1,8,10,0
14560,-1,2,6,1,3,-8,-16,4,0
14565,-2,-5,-5,-3,-4,-5,-13,-16,0
14570,-4,-1,3,-2,-4,0,-6,-7,0
14575,-1,0,1,3,1,2,8,19,0
14580,-4,-3,-8,0,1,-2,-11,-36,0
14585,1,0,-2,-2,-5,-8,-6,29,0
14590,5,1,8,1,0,0,-32,-5,0
14595,-7,-4,-4,0,3,0,15,0,0
14600,-5,-1,0,-7,-6,-4,-22,-18,0
14605,1,0,-1,-2,-1,-2,-1,-13,0
14610,4,3,5,4,2,-4,1,23,0
14615,-9,-4,-6,-6,-6,-15,2,-40,0
14620,-3,-2,-4,-2,-2,-7,-33,-6,0
14625,9,4,9,4,-2,1,-8,-9,0
14630,7,-4,-9,-3,7,3,-17,-2,0
14635,-16,0,4,5,2,0,17,7,0
14640,-1,-2,-5,-8,-8,-15,-15,7,0
14645,-7,-2,-4,2,5,-1,-5,-5,0
14650,15,-1,1,-6,-12,-5,-5,-15,0
14655,-29,-4,-4,-2,-4,4,6,-2,0
14660,-13,0,3,6,12,25,16,10,0
14665,27,3,-2,-3,-6,-25,-3,7,0
14670,8,0,2,1,2,-8,-10,-7,0
14675,16,-2,-4,-7,0,18,19,15,0
14680,-2,-1,1,-2,-2,-5,-21,2,0
14685,-16,-6,-4,-4,0,6,33,-6,0
14690,-6,-2,2,1,6,-12,-36,-3,0
14695,13,1,-2,-2,-8,4,-5,2,0
14700,-3,-4,-1,0,-4,-3,27,-1,0
14705,0,-2,-2,-1,-3,7,-51,-9,0
14710,-7,-1,0,-2,-9,2,18,-7,0
14715,-1,2,5,2,11,-1,2,6,0
14720,6,-1,-4,-2,2,7,5,5,0
14725,-8,-2,-3,-1,1,-11,-1,-2,0
14730,-5,-1,-1,-3,-9,-3,1,-1,0
14735,11,0,1,-2,3,-1,-7,-1,0
14740,2,0,0,0,0,-8,6,0,0
14745,-1,0,-2,-1,-3,-4,-16,-3,0
14750,-11,-2,2,3,5,8,0,-1,0
14755,8,-2,-2,-1,3,5,18,-1,0
14760,-6,-3,0,-3,-8,-7,-11,1,0
14765,5,0,-3,-5,0,0,-1,-5,0
14770,4,0,5,4,7,1,5,0,0
14775,-7,-2,-1,-3,-8,-1,-14,-4,0
14780,1,0,1,1,5,0,37,-9,0
14785,3,-4,-6,-4,-6,-6,-33,13,0
14790,-3,-1,-1,0,6,7,19,4,0
14795,6,0,-1,1,0,-7,18,-8,0
14800,1,-2,-3,-3,-10,5,-1,6,0
14805,-7,-4,0,-9,-1,-2,-1,-8,0
14810,3,-1,-2,0,-5,7,-14,5,0
14815,-8,-4,-4,-2,-4,-3,50,3,0
14820,2,4,2,5,8,9,-59,-6,0
14825,0,1,1,5,1,-1,12,-8,0
14830,2,-1,-4,-3,0,-4,-6,-1,0
14835,-1,-2,-1,-2,1,2,17,-1,0
14840,-10,-4,-3,-6,-10,-6,10,-15,0
14845,2,-1,1,1,6,6,5,19,0
14850,2,1,1,0,-1,-2,9,0,0
14855,-12,-2,-6,-3,-4,-2,-20,-2,0
14860,2,-3,0,3,5,2,3,1,0
14865,-3,0,-3,-6,-5,-12,-8,-4,0
14870,0,-1,-2,0,-4,-6,4,-4,0
14875,1,1,2,1,1,10,-17,3,0
14880,-9,-4,-6,-4,4,-9,-13,-10,0
14885,1,0,2,4,0,13,51,-1,0
14890,-1,-2,-4,0,-3,-18,-33,-5,0
14895,5,2,0,0,3,19,55,14,0
14900,0,1,-1,0,2,-8,-42,1,0
14905,0,-2,-2,-1,-3,10,29,-6,0
14910,-29,-2,0,-2,2,1,-24,-7,0
14915,10,-1,1,0,-2,-5,-22,3,0
14920,2,-1,1,0,-2,4,86,8,0
14925,4,1,-2,0,2,-7,-60,-1,0
14930,-4,-2,-1,-2,-4,-8,7,-2,0
14935,-3,-1,0,-1,2,4,-22,-3,0
14940,-4,2,5,-1,1,2,4,7,0
14945,-9,-3,-6,-4,-7,-11,27,-5,0
14950,9,0,-3,1,1,4,1,-1,0
14955,-4,-3,-1,-1,-4,-8,-31,2,0
14960,0,-2,0,-4,-4,-8,-6,-6,0
14965,-2,0,2,2,0,-1,3,-7,0
14970,5,-1,-3,-4,-1,3,-3,7,0
14975,0,1,1,0,2,-3,-4,2,0
14980,-8,-3,-3,-2,-3,1,-21,-25,0
14985,2,1,-1,-1,1,4,-1,13,0
14990,6,0,-2,-1,-2,-2,0,0,0
14995,-7,-3,-3,-2,-2,-9,-9,-13,0
15000,-1,-2,-2,-4,-3,0,11,13,0
15005,-6,-3,-1,-3,-8,-11,-24,-1,0
15010,8,1,2,2,4,5,16,-7,0
15015,-6,0,-2,-2,-2,-3,10,0,0
15020,-2,1,-2,0,2,6,-26,-1,0
15025,2,-1,-2,-1,2,-4,-1,2,0
15030,-1,-1,0,-1,-3,0,-10,1,0
15035,2,-1,-2,-2,-3,-3,25,-5,0
15040,1,2,-2,-2,-2,-3,-27,-2,0
15045,-3,-2,-1,2,1,7,18,-5,0
15050,-3,-3,-4,-2,-5,-6,-12,5,0
15055,-3,-1,0,0,1,-10,-5,-20,0
15060,3,-1,1,-1,-3,7,17,40,0
15065,-2,-4,-2,0,-2,-13,-17,-32,0
15070,-8,-1,0,-4,-4,-8,-22,-1,0
15075,11,2,1,1,5,14,23,-33,0
15080,3,1,-2,-2,-2,-6,8,-12,0
15085,6,1,0,1,-1,-2,2,8,0
15090,6,-1,0,-1,-3,-5,7,11,0
15095,-7,-5,-4,-2,-2,0,-16,12,0
15100,0,-2,-4,0,0,-2,-4,-7,0
15105,-8,1,0,-2,-1,1,-16,-5,0
15110,6,1,1,-1,1,-5,8,-7,0
15115,-5,0,-1,-3,-5,-11,-17,7,0
15120,1,-2,-2,-3,-4,2,16,-1,0
15125,-5,-1,-5,-2,-1,4,-8,5,0
15130,-3,-1,-2,-1,-4,-6,-4,-12,0
15135,-4,-2,1,0,-1,-1,-2,4,0
15140,2,-3,0,0,2,-5,0,2,0
15145,-3,-1,1,1,14,9,14,5,0
15150,-5,-3,-4,-7,-28,7,-2,-22,0
15155,4,-2,0,1,2,4,8,42,0
15160,-13,-1,-1,-3,-3,1,1,-13,0
15165,8,1,0,-1,-4,-12,-12,1,0
15170,5,0,-1,2,11,13,19,10,0
15175,-3,-2,1,-1,-2,-1,-8,-3,0
15180,-7,-2,-4,-2,-3,-3,-1,-8,0
15185,2,-3,0,0,-4,-5,-2,4,0
15190,-17,-2,-1,0,4,-6,-2,-4,0
15195,6,0,-1,-3,-2,-2,-6,-7,0
15200,-2,-1,0,-2,1,-5,-14,-1,0
15205,4,1,1,0,-2,1,31,-4,0
15210,6,0,-1,-1,2,8,-30,-15,0
15215,-5,-2,0,1,4,17,36,2,0
15220,3,-2,-2,0,-9,-15,-1,-7,0
15225,2,-3,-2,-2,-3,-1,-3,15,0
15230,-2,3,-1,1,3,-5,0,2,0
15235,2,-6,-2,-2,-2,-4,-11,4,0
15240,-2,1,2,1,5,7,3,-35,0
15245,-1,-1,-1,-4,-3,-2,-7,0,0
15250,-1,-2,-1,-1,1,-3,16,-10,0
15255,1,3,-1,-2,-2,-3,-15,-4,0
15260,0,-1,0,-1,-3,0,1,6,0
15265,-1,0,1,-1,0,0,-11,-25,0
15270,5,0,0,1,4,1,2,7,0
15275,-12,-3,-2,-1,-7,0,-2,4,0
15280,8,1,-1,2,4,-4,-1,7,0
15285,-8,0,-3,-1,-1,0,-1,-5,0
15290,6,-2,-1,-3,-2,-5,2,5,0
15295,1,0,-1,-1,-1,-1,-10,-2,0
15300,-3,-3,-1,-4,-2,-4,11,12,0
15305,-3,4,4,1,1,2,-14,-11,0
15310,-6,-6,-3,-3,-2,2,8,22,0
15315,7,0,-2,-2,-2,-6,6,5,0
15320,-5,-1,-3,-5,-5,0,-3,4,0
15325,-2,1,1,3,1,-11,-31,-9,0
15330,2,0,-2,-2,1,7,14,19,0
15335,-9,-3,-1,-4,-5,-4,-11,10,0
15340,5,-2,-2,0,0,-1,10,-1,0
15345,0,0,-3,-2,-3,-9,4,-7,0
15350,-9,-2,-2,2,2,6,2,-21,0
15355,5,-3,-4,-2,4,4,-11,-15,0
15360,14,6,0,-1,-2,-6,0,35,0
15365,-1,0,0,-1,-1,-3,5,6,0
15370,-4,-2,-1,-4,-8,-15,-21,-6,0
15375,-6,-2,0,0,1,14,18,3,0
15380,-1,-1,1,2,2,0,-5,-11,0
15385,-7,-4,-6,-4,-5,-4,-3,-5,0
15390,1,0,0,-3,-4,-7,-17,-2,0
15395,1,2,0,4,3,9,15,0,0
15400,-10,-7,-2,-3,-6,-3,28,-2,0
15405,-2,1,1,2,6,10,-59,-5,0
15410,0,-2,-1,-3,-6,-11,-19,-2,0
15415,-2,-2,-1,0,-3,-5,12,20,0
15420,-3,0,-1,1,1,6,-8,-18,0
15425,0,-4,-2,-3,-2,0,22,6,0
15430,-1,-2,-1,0,2,4,-2,-8,0
15435,3,2,2,0,1,0,13,7,0
15440,-5,-2,-2,-2,-1,-3,-9,-6,0
15445,2,-6,-1,2,0,0,14,1,0
15450,-5,0,2,0,1,0,-5,-2,0
15455,3,-2,-3,0,1,-5,-11,6,0
15460,-3,-1,3,-3,-1,-5,-14,-14,0
15465,7,2,-2,-8,-6,3,24,5,0
15470,-7,-5,-2,2,6,-2,-2,-24,0
15475,-1,-2,0,-1,-10,-4,1,32,0
15480,1,-2,0,0,1,-8,-46,-10,0
15485,1,3,1,0,0,2,52,5,0
15490,1,-1,-3,-3,-3,0,18,5,0
15495,-3,-1,-3,-2,1,2,3,-21,0
15500,-1,-2,0,3,-2,-4,-10,-2,0
15505,-1,-2,0,-4,-2,-3,-43,38,0
15510,3,3,1,6,9,8,14,-1,0
15515,-3,-2,-2,-6,-15,-14,-4,-6,0
15520,-2,-2,-3,-2,1,14,29,-2,0
15525,-2,-1,-2,-1,-2,-12,3,-19,0
15530,3,-1,0,-3,-1,-5,15,12,0
15535,-1,1,1,2,2,6,-24,-11,0
15540,-5,-2,-3,-2,-4,-2,6,1,0
15545,-1,-2,-3,1,-3,0,-4,-4,0
15550,1,0,-1,-1,-5,4,-6,4,0
15555,-2,-1,-3,-2,1,-7,4,-5,0
15560,0,0,-1,3,8,-3,-11,4,0
15565,-2,-1,-3,0,-3,-4,13,-13,0
15570,3,1,-2,-2,-1,15,-30,-5,0
15575,-4,-4,-3,-2,-10,-23,-12,-8,0
15580,1,-1,-3,-7,-2,5,0,13,0
15585,-4,-2,0,-2,-3,-8,-6,-5,0
15590,-3,-3,-1,-2,-4,-10,3,-4,0
15595,0,0,0,0,4,11,50,1,0
15600,-1,2,0,1,3,0,-36,-12,0
15605,2,0,1,1,4,2,8,11,0
15610,-5,0,-2,-5,-4,-2,23,19,0
15615,-1,-4,0,0,-2,0,-39,-16,0
15620,-2,-1,-1,-1,-8,-10,31,-1,0
15625,-5,-1,0,-2,3,3,-22,-13,0
15630,4,-1,0,-2,-2,3,14,29,0
15635,-2,1,0,1,5,-3,-5,1,0
15640,0,-2,-2,-3,-6,0,11,5,0
15645,2,0,0,-2,-2,2,-29,-6,0
15650,-4,-6,-2,2,-1,-2,23,-1,0
15655,-2,1,0,-4,-2,-2,9,21,0
15660,-9,-3,2,3,4,5,-29,-32,0
15665,-1,-2,-3,0,-3,-1,9,-5,0
15670,-2,2,-1,1,1,-1,-29,-50,0
15675,-8,-4,-3,-3,-4,-3,8,37,0
15680,0,-1,-2,-2,-4,-5,7,5,0
15685,0,-1,-2,2,1,-1,8,9,0
15690,3,0,0,0,0,4,-13,-17,0
15695,-4,1,1,0,-1,-4,-11,-20,0
15700,6,0,-1,-2,1,2,2,6,0
15705,-5,-3,-1,-4,-5,-3,-2,-13,0
15710,-2,-2,-3,-4,-6,-3,-23,18,0
15715,-1,0,1,2,0,-3,25,-5,0
15720,-3,-3,-3,-3,-3,-3,6,27,0
15725,1,-1,-1,-3,1,0,0,-37,0
15730,0,-3,-1,-1,-1,-5,42,15,0
15735,5,0,0,2,4,11,-37,-50,0
15740,-3,-1,0,-1,-2,-13,-24,3,0
15745,0,-1,-2,-1,2,6,8,5,0
15750,4,2,0,0,-2,-7,-31,-1,0
15755,-6,-3,-5,-3,-2,-3,10,12,0
15760,-1,-4,-2,-2,1,-1,10,-13,0
15765,-2,-2,0,2,2,2,-24,-10,0
15770,1,0,-1,-1,-2,3,25,-2,0
15775,-3,0,0,2,1,0,30,12,0
15780,2,-1,0,1,-4,-5,-34,-7,0
15785,-5,-4,-2,-4,-6,-7,14,-5,0
15790,-7,0,-3,-2,-4,-8,-12,-4,0
15795,4,-2,-2,0,2,7,-31,17,0
15800,1,0,2,-3,-1,1,1,-24,0
15805,-1,-2,-3,-3,-2,-3,23,30,0
15810,-13,0,0,-2,-1,4,3,-38,0
15815,-7,1,1,-1,-4,-7,17,35,0
15820,9,0,-2,-1,-3,-2,8,15,0
15825,2,0,-3,-4,-8,-10,-18,-14,0
15830,1,-1,-2,-1,-1,0,-10,12,0
15835,-5,-4,-1,-3,0,-5,-4,-22,0
15840,-5,0,7,1,0,3,-5,-2,0
15845,-3,-1,-5,-2,0,3,4,-5,0
15850,2,-1,-10,2,-1,-2,31,0,0
15855,1,-2,4,-1,-2,1,-14,6,0
15860,5,2,3,1,1,-1,-26,7,0
15865,-2,-3,-5,-4,-5,-7,41,-12,0
15870,4,1,-3,3,0,9,-7,25,0
15875,-2,2,6,-1,1,5,-6,33,0
15880,-4,-2,-4,-2,2,-1,-9,-10,0
15885,10,2,2,0,-1,-1,3,-13,0
15890,2,-2,-4,-1,1,2,-3,-3,0
15895,0,0,-1,3,1,0,31,-3,0
15900,2,-1,9,5,0,-2,-45,12,0
15905,-16,-5,14,4,1,-7,-13,-12,0
15910,10,1,-33,-18,-3,5,43,5,0
15915,0,-4,4,5,-1,-6,-36,-1,0
15920,2,-4,-20,-9,-2,-1,20,-4,0
15925,-6,-2,8,4,-3,-6,-26,-4,0
15930,-3,-5,30,10,-2,-7,-55,-19,0
15935,1,-3,-21,-21,-4,3,61,5,0
15940,-8,-3,23,8,-4,-6,-8,-1,0
15945,6,-2,-28,-10,1,15,51,5,0
15950,20,5,1,-3,-1,0,8,24,0
15955,5,-2,6,2,-3,-9,-44,-23,0
15960,3,8,-2,3,4,10,51,22,0
15965,3,-4,5,2,-2,-3,-35,-28,0
15970,-15,-4,-7,-3,-2,0,-21,7,0
15975,3,5,3,3,-2,-8,2,21,0
15980,-11,-13,-9,-6,-2,-4,-42,-18,0
15985,0,1,-5,0,0,-4,6,1,0
15990,-2,-4,-7,-2,0,3,1,-20,0
15995,-1,-2,-4,-7,-8,3,19,-15,0
16000,-17,1,10,4,3,2,-9,22,0
16005,12,-2,1,2,0,-2,4,-6,0
16010,-8,2,0,-3,-6,-12,-23,-5,0
16015,-4,-4,-2,-3,-3,-6,17,-9,0
16020,1,2,-4,-3,-1,-1,-16,16,0
16025,0,2,3,4,4,6,-47,1,0
16030,-4,0,8,-2,-3,-7,2,-9,0
16035,0,-2,-4,0,1,2,-8,11,0
16040,-1,3,-6,-4,3,8,15,-2,0
16045,0,1,-1,2,2,1,64,-2,0
16050,3,3,12,5,0,7,-17,-9,0
16055,-20,-3,-14,-9,2,4,16,32,0
16060,0,-2,-6,0,2,8,55,-54,0
16065,4,4,5,3,0,1,-12,3,0
16070,8,1,-2,-1,0,-1,-6,-3,0
16075,4,-2,-8,-9,-3,-6,24,-10,0
16080,-11,-4,4,4,-2,-9,-19,3,0
16085,11,-1,-8,-9,-6,-5,-9,-5,0
16090,2,-2,-7,-4,2,6,17,22,0
16095,-5,-5,-3,0,-5,3,5,-21,0
16100,1,3,5,7,10,-14,-25,4,0
16105,-2,-1,1,-4,-14,-15,-18,4,0
16110,1,-4,-6,-3,-2,2,25,8,0
16115,-3,-1,2,-1,0,2,-15,33,0
16120,-4,-1,7,5,0,-1,-31,-59,0
16125,-2,0,-6,1,2,9,6,-9,0
16130,0,-2,0,-1,4,-1,16,9,0
16135,2,-1,2,4,0,-6,-39,7,0
16140,-1,0,-1,-1,-5,0,39,-20,0
16145,-3,-3,-1,-3,-2,-4,-23,-1,0
16150,5,3,-24,-15,-1,0,-7,-4,0
16155,-2,-2,7,-9,-2,5,33,2,0
16160,-13,-7,-11,-3,-8,-8,-11,-7,0
16165,7,1,11,5,2,6,30,11,0
16170,9,3,3,5,4,2,-22,34,0
16175,3,2,-2,6,7,0,-13,0,0
16180,2,-2,-2,-6,-4,2,2,4,0
16185,-9,-3,-3,-4,-5,-9,-1,-25,0
16190,0,-3,-1,-2,-8,7,46,23,0
16195,-8,-2,-3,-1,1,-18,-31,-3,0
16200,1,-2,5,6,-2,-6,-11,5,0
16205,4,4,0,-3,7,8,23,-1,0
16210,-4,-4,-1,0,-5,4,6,11,0
16215,-2,1,-11,-5,-1,5,19,-37,0
16220,16,1,-2,-4,-3,-6,14,9,0
16225,-1,-2,0,5,-2,4,4,26,0
16230,-9,-1,3,-2,-4,-12,-7,-33,0
16235,4,0,26,37,0,-3,-39,24,0
16240,-1,2,-36,-51,-1,2,36,20,0
16245,21,-2,-8,1,-1,0,-18,-6,0
16250,17,2,18,18,-7,-8,-3,26,0
16255,-3,-2,18,4,-3,0,-11,-2,0
16260,6,-1,-13,-2,3,2,16,0,0
16265,6,-6,-24,-12,-4,-11,-17,-16,0
16270,1,0,12,11,-6,-12,-27,-3,0
16275,3,1,10,6,-4,5,3,-6,0
16280,-2,-6,-14,-20,-2,1,13,32,0
16285,-13,-5,-13,1,0,-8,-38,2,0
16290,0,-1,4,-4,-2,3,3,-4,0
16295,3,2,-4,-3,-4,-7,-12,-3,0
16300,0,-2,3,9,1,-3,20,19,0
16305,-8,0,9,6,9,-6,-31,-10,0
16310,-2,-1,-10,-6,-7,-22,6,3,0
16315,5,2,0,-10,1,-2,-26,12,0
16320,0,1,6,10,0,38,25,-28,0
16325,-5,-2,-6,-4,1,7,20,-1,0
16330,0,2,2,1,0,-8,-2,-9,0
16335,2,0,-1,-2,17,23,-2,-5,0
16340,-5,-3,-2,1,-18,-40,-11,-20,0
16345,-1,1,0,3,-1,-20,-7,-1,0
16350,-1,-1,-5,5,9,18,-12,-16,0
16355,-4,-2,-3,-3,-2,-2,45,-6,0
16360,6,-2,1,2,2,-10,-39,45,0
16365,-8,-3,-1,4,1,16,19,-98,0
16370,-1,-4,-13,-6,-1,-6,2,31,0
16375,-6,-1,1,-1,-7,-7,-16,-9,0
16380,3,0,0,2,9,9,-15,6,0
16385,-1,-2,5,0,-5,-8,21,15,0
16390,0,-1,-6,0,1,-13,-45,-27,0
16395,0,-3,-10,13,5,13,-7,7,0
16400,-8,2,4,-16,-6,-4,-10,-20,0
16405,4,0,-5,-1,-2,-8,19,20,0
16410,-2,-5,4,1,-4,-7,-26,-34,0
16415,3,3,3,-4,3,22,70,16,0
16420,-4,-3,-17,2,3,4,26,2,0
16425,7,1,5,1,3,1,-46,20,0
16430,-7,0,-9,-14,1,-3,22,10,0
16435,1,3,2,-1,-2,-1,9,-5,0
16440,3,-1,-10,-2,3,-1,-3,10,0
16445,1,2,13,-5,-6,3,-6,46,0
16450,-2,0,22,17,5,2,-12,-58,0
16455,-15,-7,-28,-12,-7,-15,5,19,0
16460,9,0,15,6,4,22,18,6,0
16465,-6,-1,-8,-3,-6,-7,20,15,0
16470,-1,8,-6,1,6,7,0,-17,0
16475,-6,-6,16,3,-3,-6,-10,-9,0
16480,-21,-3,6,2,3,-2,23,-16,0
16485,10,-3,-5,-8,-10,-7,-18,-20,0
16490,19,-1,-2,-1,-2,-6,-23,10,0
16495,3,3,9,-3,-2,-1,11,5,0
16500,3,-2,1,0,-4,-5,-48,14,0
16505,-14,-1,-7,-10,2,14,63,-30,0
16510,-6,-3,-13,11,1,-4,-14,12,0
16515,6,1,5,-4,-3,-9,7,8,0
16520,0,-8,12,7,-5,-6,-60,-5,0
16525,3,8,3,-6,0,-5,15,-17,0
16530,-4,-7,-2,4,1,-4,3,2,0
16535,2,0,-10,-2,-2,5,32,12,0
16540,-1,0,-29,-17,-8,-9,0,-46,0
16545,-10,-1,21,5,0,-3,-45,5,0
16550,-14,-6,-3,0,4,4,6,22,0
16555,14,1,2,0,1,6,-2,-12,0
16560,-9,0,-16,-3,-8,-13,-2,8,0
16565,-4,-5,-6,-3,-2,6,38,-34,0
16570,-2,-2,9,2,6,5,3,12,0
16575,2,2,3,-4,-14,-11,-6,6,0
16580,5,0,-10,-8,-1,3,8,30,0
16585,0,-5,-11,7,1,-6,-36,-50,0
16590,1,2,19,-13,-4,-3,-1,16,0
16595,-17,-3,-27,2,6,3,-19,-33,0
16600,6,4,12,-1,2,3,21,-21,0
16605,-3,-2,2,1,-3,-6,-27,15,0
16610,0,-4,2,2,-2,-2,4,-6,0
16615,2,-2,-10,-3,-1,4,-12,1,0
16620,-10,-2,-10,-2,0,1,-6,2,0
16625,-3,-3,11,2,2,1,-20,6,0
16630,5,1,-5,-3,4,9,24,-18,0
16635,-8,-1,3,0,-8,-20,-1,5,0
16640,-1,-2,-2,5,8,15,4,-1,0
16645,2,1,7,-2,-2,-5,-19,-7,0
16650,-1,-4,-9,-6,-12,-20,1,2,0
16655,-3,-2,2,4,7,5,9,7,0
16660,-1,-1,-3,-3,-8,0,23,15,0
16665,2,1,-3,-2,-2,5,-12,6,0
16670,-5,-3,-6,-1,1,-9,-53,-20,0
16675,-2,-3,4,3,4,12,30,10,0
16680,2,0,-2,1,5,-10,-8,1,0
16685,0,-4,-3,-8,-16,-13,15,6,0
16690,-1,1,7,8,4,-2,-46,-21,0
16695,-2,-2,-8,-3,-1,0,-6,-3,0
16700,2,-4,-10,-7,-4,-2,-16,12,0
16705,-3,-2,-14,0,6,6,54,1,0
16710,-3,2,4,-2,-1,-2,-5,9,0
16715,2,0,-1,-4,-5,2,-3,2,0
16720,-1,0,1,3,4,-1,-4,-4,0
16725,2,-3,5,1,-5,-7,-23,-2,0
16730,1,-4,-5,-1,-3,6,18,-8,0
16735,-15,0,-1,-2,2,-7,5,-6,0
16740,6,-2,-5,-1,-5,3,-4,9,0
16745,0,-1,7,-2,-3,-3,-16,1,0
16750,-3,-1,-4,-4,-2,0,28,3,0
16755,1,0,3,0,1,6,-4,-2,0
16760,-1,0,2,2,4,2,-11,3,0
16765,-2,1,5,2,-1,-24,-34,-3,0
16770,-1,0,-3,-6,-5,16,-11,8,0
16775,6,1,1,-1,2,-1,-6,5,0
16780,1,2,6,3,2,2,15,-5,0
16785,-6,-3,-7,-2,6,9,14,-4,0
16790,2,-3,-7,-2,-1,-13,20,-7,0
16795,2,0,1,-5,-8,4,-2,14,0
16800,-3,-1,-8,8,0,-2,6,-4,0
16805,3,1,14,-5,4,10,-18,-3,0
16810,0,-1,2,0,-2,-4,8,1,0
16815,1,-1,-7,-3,-1,-6,-8,-11,0
16820,-5,-1,-1,0,1,-3,-19,4,0
16825,4,1,1,2,-3,0,49,-2,0
16830,-2,-1,2,-1,0,7,-21,-1,0
16835,8,-1,-7,2,0,-3,7,-6,0
16840,-16,-1,3,-1,-3,-5,-25,2,0
16845,-14,-4,-10,-6,-3,0,26,-8,0
16850,12,1,3,-1,0,11,-4,13,0
16855,-10,-2,2,5,6,-6,-10,-20,0
16860,2,-3,-4,-4,-4,-4,3,-2,0
16865,0,1,1,0,-7,-9,-21,-5,0
16870,-5,-2,-6,-3,-2,-29,-3,-4,0
16875,4,-1,0,-2,-4,25,35,3,0
16880,2,-1,-4,1,3,4,-12,5,0
16885,-7,-2,2,1,-1,-7,-1,0,0
16890,4,-2,-5,1,-1,-14,-13,-16,0
16895,-5,0,3,-2,2,6,55,14,0
16900,3,1,11,-2,-2,-8,-48,-5,0
16905,5,-2,-10,0,9,12,15,10,0
16910,0,-3,-4,7,-4,-10,-60,-7,0
16915,-8,1,3,-8,-5,1,88,7,0
16920,-5,-3,-8,-8,-4,3,10,-3,0
16925,1,-1,-1,3,-1,-10,-45,-4,0
16930,-2,0,-4,-5,-4,12,30,1,0
16935,5,-3,8,9,2,-4,-42,7,0
16940,-2,0,-3,-5,-8,-9,10,-18,0
16945,6,3,1,-2,1,14,19,6,0
16950,-8,-3,2,3,0,1,2,-6,0
16955,3,-1,-1,-2,-5,-5,10,9,0
16960,-5,-2,-2,0,1,-14,-31,-11,0
16965,0,-4,-7,-2,-1,0,-38,-7,0
16970,1,5,4,0,-2,7,46,4,0
16975,-4,-2,2,-2,3,-8,-32,1,0
16980,0,-2,-4,0,2,9,24,0,0
16985,18,2,5,3,4,-19,-28,-4,0
16990,-9,-1,-1,1,-3,18,3,4,0
16995,-2,-2,-3,0,-1,-5,-32,-8,0
17000,1,-3,-5,-3,-6,0,27,8,0
17005,-5,-4,-2,-1,-1,0,-14,-9,0
17010,0,0,1,-2,-2,-3,35,11,0
17015,3,2,-3,0,2,0,-43,0,0
17020,-1,-1,2,1,1,-2,0,2,0
17025,-4,0,0,-4,-6,1,12,6,0
17030,0,-1,-4,-2,3,1,-11,-8,0
17035,-7,-2,-1,-4,-4,-3,-16,-6,0
17040,2,0,0,-1,2,-2,17,-3,0
17045,-2,-2,-1,0,0,0,-31,8,0
17050,-1,-2,1,0,-1,0,10,2,0
17055,-2,-1,-2,0,1,-3,-10,-4,0
17060,0,1,0,-2,-1,1,12,-8,0
17065,-2,-2,-10,-2,-3,1,8,-10,0
17070,2,1,12,3,0,-6,-16,13,0
17075,4,-3,-14,-6,-3,-3,5,2,0
17080,3,0,3,-1,-3,-3,-14,5,0
17085,-11,-3,-2,1,-1,4,33,-15,0
17090,-9,0,-7,-4,4,2,18,12,0
17095,1,0,1,0,-2,-5,-36,-4,0
17100,2,1,-4,-1,1,6,2,-2,0
17105,0,-1,7,2,-1,-1,6,4,0
17110,-4,-4,-13,-5,1,0,-15,6,0
17115,8,1,14,3,-4,-3,26,-1,0
17120,-13,-9,0,-4,-2,0,-7,-6,0
17125,6,6,-3,-4,-1,0,3,7,0
17130,0,-1,0,2,-2,-2,1,-13,0
17135,-5,-3,-4,-2,-1,-1,-9,-2,0
17140,4,2,1,6,3,0,15,10,0
17145,-4,-1,2,-6,0,3,-1,4,0
17150,-1,-3,-2,-4,-5,-7,-24,-18,0
17155,0,-2,-2,3,2,4,-14,-12,0
17160,6,3,-1,0,0,6,49,32,0
17165,-7,-4,-2,-1,1,-2,-15,-2,0
17170,0,2,2,-1,-7,-1,9,-21,0
17175,-5,-3,-3,1,-2,-4,-15,3,0
17180,2,2,-1,-2,-4,-2,18,8,0
17185,-8,-6,-4,-2,0,1,-1,0,0
17190,5,0,9,3,4,-1,-6,-1,0
17195,-1,0,0,-1,1,-1,-1,-2,0
17200,-6,-2,-1,0,1,1,1,-16,0
17205,2,1,-1,0,-5,9,0,-1,0
17210,-2,-1,-6,-1,0,-13,-11,0,0
17215,-5,-2,-6,-3,-4,-5,8,-1,0
17220,2,-2,5,5,4,-5,-23,1,0
17225,9,1,-7,-7,-2,9,12,-8,0
17230,-2,0,-1,-2,2,14,-15,2,0
17235,-3,-1,0,-4,-5,-13,4,2,0
17240,-9,-1,-2,0,0,-4,-31,-14,0
17245,2,-3,2,2,-2,2,4,27,0
17250,-1,-1,-3,-2,-3,-1,-1,-24,0
17255,-4,0,0,-1,0,1,21,4,0
17260,19,4,-7,-4,-3,2,-1,13,0
17265,-9,-3,2,2,-1,-7,-18,-7,0
17270,0,-2,3,1,-1,-3,5,1,0
17275,2,-2,-10,-4,-1,4,-21,11,0
17280,-5,-2,11,8,0,2,-11,-12,0
17285,5,4,-16,-15,-4,-12,-27,-1,0
17290,1,0,2,0,0,0,17,-2,0
17295,-4,-1,-1,1,-3,-3,-1,-3,0
17300,-3,-1,-1,-4,0,-7,0,-4,0
17305,0,0,3,4,-4,-4,-4,0,0
17310,-5,-3,-5,-2,-3,0,-9,-3,0
17315,1,0,0,-2,2,4,2,-9,0
17320,-4,-3,-5,-3,-6,-3,7,-17,0
17325,1,0,4,3,4,1,6,-7,0
17330,-8,-2,-4,-5,-8,-8,6,-1,0
17335,8,-1,3,1,1,2,-17,2,0
17340,-9,0,-7,-3,2,11,10,-10,0
17345,-1,-1,5,4,-4,-21,7,-10,0
17350,1,-1,-3,-3,0,1,-10,14,0
17355,4,-4,3,7,3,3,1,-15,0
17360,1,0,-9,-15,-4,-1,-5,19,0
17365,-7,-1,5,3,0,6,8,-6,0
17370,-3,0,-5,-2,2,-1,-1,4,0
17375,4,2,2,-1,-1,1,10,8,0
17380,-3,-2,-5,-2,-4,0,-1,-3,0
17385,-1,-3,6,1,1,4,15,14,0
17390,6,1,7,3,-2,-8,-9,-14,0
17395,-8,-1,-6,-5,0,8,-17,-1,0
17400,-3,-2,5,1,0,-3,6,-4,0
17405,7,3,2,1,-1,2,-14,11,0
17410,0,-3,-6,-2,-4,-3,-11,21,0
17415,10,1,2,8,-2,-4,6,7,0
17420,-9,-2,-2,-7,1,2,20,-12,0
17425,-9,-4,-4,0,5,10,-15,-9,0
17430,5,3,6,1,-3,-6,3,-1,0
17435,-7,-4,-7,-4,-3,-8,2,2,0
17440,5,-1,-2,1,-5,-12,2,7,0
17445,-1,1,4,1,-4,1,0,9,0
17450,-4,0,-8,-5,4,-1,-38,-15,0
17455,-6,-1,1,0,-1,1,21,15,0
17460,-1,-4,-2,4,-2,-10,-28,-21,0
17465,-3,-5,-4,-5,-4,-6,7,7,0
17470,-1,-2,0,4,-1,-1,13,-5,0
17475,-2,-1,-9,-9,1,-4,-5,5,0
17480,10,-1,14,2,3,9,2,10,0
17485,-11,-3,-2,1,5,-2,5,-21,0
17490,-3,-2,-9,-3,-16,-13,1,2,0
17495,-1,-3,3,-4,-1,-2,-15,-22,0
17500,7,1,-2,-2,-2,-2,10,19,0
17505,6,0,-7,-4,-1,-1,6,-8,0
17510,1,1,6,6,4,9,19,10,0
17515,-12,-2,-13,-14,0,-6,-26,-15,0
17520,-3,0,-4,-1,-4,2,-11,-1,0
17525,-2,1,2,-2,0,-1,16,-16,0
17530,3,-1,-1,2,6,7,-18,8,0
17535,2,1,3,3,-3,-5,-20,-11,0
17540,-1,0,-2,-2,-2,-8,-19,8,0
17545,-6,-9,-8,-5,-5,3,2,-1,0
17550,0,1,3,-2,1,-5,3,-7,0
17555,1,2,1,-1,-1,7,30,-4,0
17560,-7,0,-3,2,1,7,4,15,0
17565,1,2,-1,0,-8,-6,10,-3,0
17570,2,-1,-2,-3,-1,-1,-16,1,0
17575,-2,-2,-1,-2,0,-1,2,9,0
17580,-2,0,-2,-1,2,-2,-8,-7,0
17585,1,2,0,1,-1,-4,-4,-15,0
17590,-2,-2,-1,-2,2,-2,7,22,0
17595,-3,-1,4,2,0,3,11,-31,0
17600,-6,-4,-3,-1,-1,-5,17,6,0
17605,-4,-2,-2,-2,-3,-3,-19,-21,0
17610,10,0,-3,-3,0,0,10,-15,0
17615,-2,-3,3,1,1,1,5,19,0
17620,-1,0,-3,-1,-1,2,-9,-13,0
17625,-8,-4,-1,-2,1,-13,16,5,0
17630,-3,0,-4,-2,-3,2,7,-7,0
17635,-1,-2,0,6,4,5,18,13,0
17640,-1,0,0,-3,3,2,-23,-5,0
17645,0,-1,-2,0,-12,-13,-24,2,0
17650,-5,0,-5,-6,0,1,-16,-6,0
17655,3,0,8,4,-4,-8,-19,-5,0
17660,4,-5,-13,-12,-3,-3,59,-3,0
17665,7,1,-8,7,3,3,-19,23,0
17670,-7,3,9,-6,-2,-6,-19,-13,0
17675,-13,-5,-1,0,3,1,-17,-4,0
17680,-4,-4,-3,0,-7,-9,-12,-5,0
17685,16,2,1,-5,0,15,-10,0,0
17690,2,-5,-12,0,-3,-16,59,-6,0
17695,2,4,13,1,2,8,-45,7,0
17700,-1,1,2,2,1,-5,82,8,0
17705,-4,-8,-8,-2,10,1,-46,-11,0
17710,-11,0,3,1,-6,4,39,12,0
17715,-2,-3,-7,-4,-4,-3,9,-10,0
17720,0,0,-2,1,-4,-4,-44,-6,0
17725,-1,1,6,-1,0,-2,45,5,0
17730,-1,-5,-2,0,7,7,-37,-1,0
17735,5,0,-10,-7,-7,-8,19,2,0
17740,-3,0,5,1,0,-1,-42,-14,0
17745,-8,0,-5,0,3,-1,-1,6,0
17750,0,-3,2,-4,-6,-6,4,0,0
17755,6,2,-7,10,1,13,34,11,0
17760,10,3,8,-1,1,0,-26,-3,0
17765,-5,-1,3,-3,-3,-3,-3,-3,0
17770,-2,0,5,0,1,-2,20,1,0
17775,7,1,-5,-5,-1,-3,-24,1,0
17780,-7,-4,-8,2,-1,0,-3,-5,0
17785,4,0,5,0,-7,-12,0,2,0
17790,-4,-2,-3,0,-2,1,-4,-7,0
17795,-4,-2,-12,-12,-2,7,1,-8,0
17800,5,3,9,3,0,-6,28,7,0
17805,0,0,-9,-1,1,-1,-15,-2,0
17810,-4,0,11,2,3,8,-3,0,0
17815,-4,-5,3,-1,-5,-18,1,-8,0
17820,0,-1,-2,-2,0,5,-29,0,0
17825,-6,-1,3,0,0,7,5,-7,0
17830,0,-1,-10,-4,1,-10,2,5,0
17835,8,-2,5,-1,-3,9,16,0,0
17840,-6,3,-4,1,1,-8,-38,6,0
17845,0,2,8,0,1,8,23,-7,0
17850,-11,-8,-9,12,-2,1,-11,-6,0
17855,-6,-2,-4,-21,-1,-5,68,7,0
17860,5,0,-7,1,3,0,-18,11,0
17865,-3,1,2,-3,1,5,10,9,0
17870,6,-2,-4,1,2,0,-46,-15,0
17875,-14,1,6,1,-3,-8,-20,-4,0
17880,1,-4,-3,-3,-2,6,24,-9,0
17885,0,-1,0,-2,-2,-12,-3,-4,0
17890,-1,-2,-4,-1,3,9,6,9,0
17895,2,-4,-4,5,0,-10,-70,-9,0
17900,0,-5,3,-6,-5,11,85,1,0
17905,2,0,1,3,2,3,-7,5,0
17910,-1,3,-1,-5,-4,-6,-29,-5,0
17915,8,3,-2,2,4,-1,7,12,0
17920,-6,0,-5,0,-1,-7,-42,-7,0
17925,-14,-2,12,3,-2,5,16,-6,0
17930,-2,-3,-16,-13,0,3,5,0,0
17935,0,0,3,3,-2,-2,-20,-2,0
17940,4,0,-2,-2,4,12,31,6,0
17945,2,-2,4,2,-2,-20,-47,-11,0
17950,-1,-3,-1,-4,-2,4,0,2,0
17955,-3,0,-7,-7,1,-12,-10,-10,0
17960,9,0,1,0,-6,-4,50,8,0
17965,-10,-1,-9,-2,-4,0,-53,-4,0
17970,5,1,13,1,-1,-1,-15,8,0
17975,-1,-3,-16,0,-1,-4,14,1,0
17980,-2,2,13,7,9,11,-24,-1,0
17985,-5,2,7,-1,2,-6,13,1,0
17990,9,-4,-12,-6,-7,-14,2,-1,0
17995,4,3,9,5,0,4,18,-1,0
18000,-14,-8,-3,5,-4,-9,-8,-9,0
18005,7,-4,-13,-14,-1,9,-10,4,0
18010,-5,1,-4,-1,-2,8,23,2,0
18015,8,2,15,6,4,10,-73,4,0
18020,-2,-2,-5,-7,-4,-20,-53,-12,0
18025,2,2,5,-2,1,-7,4,7,0
18030,-5,-2,-4,-3,-1,4,39,3,0
18035,-9,-4,-4,-4,-4,20,49,-7,0
18040,4,0,1,3,-2,-4,-35,-1,0
18045,5,1,-5,3,5,5,9,3,0
18050,-3,-1,2,-2,2,-7,-17,-9,0
18055,-7,-3,-1,2,-7,-15,-31,3,0
18060,-4,-2,-3,-7,-3,6,49,-10,0
18065,0,-3,-6,-2,-2,-2,17,-1,0
18070,-1,-3,-1,3,3,4,43,-5,0
18075,16,8,9,2,-1,-9,-58,2,0
18080,-16,-4,-6,-4,-2,11,75,8,0
18085,-6,-5,-5,-6,-4,-10,-63,-8,0
18090,11,8,14,11,4,1,-39,8,0
18095,-10,-5,-9,-5,-5,-8,54,-13,0
18100,0,2,-1,-4,3,5,-38,-3,0
18105,3,-2,16,14,2,6,11,1,0
18110,-5,-6,-6,-4,-5,13,88,3,0
18115,3,3,-8,-14,1,-15,-14,6,0
18120,-6,0,-14,5,5,-16,-88,-5,0
18125,-1,0,-2,-10,-5,5,5,-8,0
18130,-4,-3,12,3,-4,-8,-8,-11,0
18135,-4,-6,-15,-3,-4,9,35,1,0
18140,8,2,15,1,3,10,99,11,0
18145,-12,3,4,5,3,-11,-102,-10,0
18150,10,-6,-14,-3,-2,-6,7,-3,0
18155,-12,0,7,4,0,7,-2,-3,0
18160,-6,-7,-13,-9,-7,-7,-15,-16,0
18165,3,0,-2,-3,-8,1,81,18,0
18170,8,1,6,-1,1,2,11,8,0
18175,0,0,0,4,3,-1,-20,-6,0
18180,-9,1,10,2,-1,-10,31,-9,0
18185,7,-4,-14,-6,0,9,-45,9,0
18190,-21,-3,-7,-7,-3,-2,11,-21,0
18195,11,-2,-10,15,0,-5,-8,15,0
18200,9,4,13,-9,-6,-3,-15,-6,0
18205,-2,-3,-19,-9,10,-8,-60,-2,0
18210,-11,-5,8,-5,-8,8,37,-14,0
18215,4,-1,-3,-3,4,6,-77,5,0
18220,-4,2,11,8,-1,-11,-72,12,0
18225,2,-7,-16,-5,-10,7,127,-11,0
18230,8,6,19,10,-3,-28,-128,-3,0
18235,-20,-9,-17,-8,-4,10,93,-8,0
18240,17,2,-15,-17,10,29,6,25,0
18245,6,3,8,3,-9,-7,29,6,0
18250,-8,3,-6,-2,3,4,-37,4,0
18255,5,2,13,2,-6,-33,-13,-14,0
18260,-2,-10,-18,-7,-8,-5,-12,-13,0
18265,-6,0,1,5,6,3,-35,2,0
18270,10,-2,-2,-3,-8,0,19,8,0
18275,-12,0,4,-3,0,2,-47,-13,0
18280,-1,-1,10,11,3,7,54,9,0
18285,4,0,6,-6,-2,1,64,-11,0
18290,2,3,-5,3,3,2,-58,4,0
18295,4,-1,4,-1,7,1,-68,9,0
18300,-4,-4,9,3,-6,-14,38,0,0
18305,-3,-4,2,10,-2,-5,-5,-15,0
18310,5,5,-6,-6,4,10,-40,7,0
18315,-13,-3,-3,-14,-4,2,82,-8,0
18320,-5,-5,-8,0,-3,-5,-106,-17,0
18325,-1,0,9,9,-1,-13,-12,9,0
18330,-4,-2,-17,-18,1,12,45,-4,0
18335,16,5,12,8,1,-6,54,16,0
18340,14,3,-16,-1,2,8,-69,-1,0
18345,-22,-5,19,2,-8,-6,50,-11,0
18350,0,0,-8,2,-3,-15,-66,-12,0
18355,-5,-3,6,4,-4,4,81,12,0
18360,10,-5,-12,0,-5,-10,-4,-6,0
18365,-3,3,-8,-12,4,8,-18,9,0
18370,-5,-3,7,7,0,0,5,-4,0
18375,3,1,2,-8,0,-6,33,-2,0
18380,-13,1,0,8,-1,0,18,-8,0
18385,5,-3,-3,-1,-2,-9,-27,-8,0
18390,-2,-2,8,2,0,5,24,12,0
18395,18,1,-2,8,0,-2,-19,1,0
18400,-5,-3,3,-7,-2,9,43,-3,0
18405,5,4,-13,-2,4,7,-75,18,0
18410,-11,1,9,3,-7,-14,11,-20,0
18415,-10,-12,-9,0,-2,0,-48,-6,0
18420,0,4,-3,-8,4,9,51,9,0
18425,-2,0,7,-1,0,1,-28,-1,0
18430,1,0,-1,-7,0,-1,36,-2,0
18435,0,0,0,-1,4,-9,-96,-1,0
18440,-11,-4,-9,-12,-5,-9,19,-6,0
18445,-13,-1,7,-1,-5,-8,-1,-9,0
18450,1,-2,-6,2,3,22,53,-1,0
18455,1,1,-1,-1,-1,7,57,15,0
18460,0,2,-3,12,6,-2,-59,-1,0
18465,15,-1,4,-7,-1,-11,15,3,0
18470,-15,-9,-18,-10,-7,2,21,-7,0
18475,-6,-2,-1,3,-2,-12,-27,-8,0
18480,2,4,17,-2,-1,14,72,12,0
18485,1,-3,-14,1,1,12,37,-5,0
18490,10,3,11,9,5,-17,-77,4,0
18495,-11,-4,-8,-10,-6,-1,-44,-18,0
18500,4,-1,-17,0,-4,-14,32,-4,0
18505,0,-2,7,3,3,14,77,3,0
18510,0,-1,6,-3,-3,-15,-26,3,0
18515,5,2,11,6,-2,7,0,-13,0
18520,-5,-3,1,0,-5,-11,-16,-3,0
18525,-4,-5,-23,-6,-5,10,42,0,0
18530,2,2,12,6,3,7,-2,-1,0
18535,-4,-2,-3,1,-2,-16,-21,-10,0
18540,9,0,0,-8,4,-2,-55,-11,0
18545,-8,-2,-6,1,-5,-5,54,4,0
18550,2,-4,-4,-6,-4,1,-26,-8,0
18555,7,2,-7,-10,-4,6,48,7,0
18560,-8,-6,6,4,-6,-2,-53,-19,0
18565,10,6,-13,2,10,-7,-92,24,0
18570,-4,3,6,1,0,-3,29,-6,0
18575,-3,-6,13,-4,-3,13,14,4,0
18580,-9,-3,-20,-6,-1,-6,-20,-10,0
18585,12,0,18,6,-8,-1,50,19,0
18590,2,-6,-17,-3,-2,-18,-68,-5,0
18595,-5,4,4,3,2,-4,11,3,0
18600,-10,-4,1,-7,-5,9,20,-6,0
18605,-12,-3,-3,-2,-2,-2,-4,-9,0
18610,0,0,-6,-7,1,9,76,14,0
18615,-5,-2,-9,-2,-1,3,-12,-16,0
18620,12,2,3,5,4,-8,11,26,0
18625,-1,-2,2,-3,0,-1,-49,-27,0
18630,-5,-2,-2,0,-4,10,64,11,0
18635,-1,-2,-9,-5,-2,0,-26,0,0
18640,-5,1,15,2,2,-7,-18,7,0
18645,2,-3,-12,-15,-7,11,4,-17,0
18650,4,0,3,2,0,-18,11,-5,0
18655,-10,-4,3,6,-2,-4,36,-1,0
18660,-4,-2,-7,-6,-2,6,-95,1,0
18665,1,4,9,6,8,-5,30,-8,0
18670,12,4,5,3,1,2,-1,33,0
18675,-9,2,-4,-2,0,7,-12,-15,0
18680,-7,-12,-9,-7,-5,-1,100,-3,0
18685,-3,1,-2,6,2,-23,-109,-13,0
18690,3,1,7,-3,-2,2,2,4,0
18695,5,-2,-13,-3,-4,-18,-76,-4,0
18700,5,4,11,-2,5,25,0,15,0
18705,-14,-4,4,-4,0,8,19,-12,0
18710,-6,-5,-5,2,0,-9,1,-9,0
18715,7,3,-3,3,-1,5,-18,8,0
18720,4,-1,-15,-2,-6,-1,59,0,0
18725,-20,-9,-1,4,-1,-5,-28,6,0
18730,-7,-2,-13,-29,-7,-8,-68,-18,0
18735,-3,-2,8,-2,-2,-5,88,6,0
18740,9,2,-7,7,6,7,-4,8,0
18745,-6,3,11,3,1,1,-23,-1,0
18750,7,-3,-6,8,1,12,17,10,0
18755,-1,-4,1,-5,-6,-7,-13,-18,0
18760,6,4,11,5,4,-7,-45,17,0
18765,9,0,2,1,-1,2,1,-3,0
18770,-7,-2,-10,4,3,-11,21,-6,0
18775,-6,-2,0,-4,0,13,4,2,0
18780,2,5,9,5,-6,-15,46,-14,0
18785,-3,-6,-10,-13,-9,4,-11,-8,0
18790,-7,-1,3,11,6,13,-101,-2,0
18795,12,2,-1,-3,4,-2,13,7,0
18800,1,3,8,6,2,4,-45,7,0
18805,-6,-3,2,-11,-8,-15,56,-14,0
18810,-15,-5,-5,8,0,-3,-44,0,0
18815,-3,-2,-6,-11,-1,-7,-61,-4,0
18820,3,-3,17,3,-1,21,-9,-14,0
18825,24,6,-22,-1,9,4,-7,22,0
18830,0,-3,14,3,-6,7,36,-9,0
18835,-6,-5,-16,-5,-1,-9,-9,6,0
18840,-10,-12,-15,-12,-10,-21,40,-17,0
18845,4,3,0,10,4,8,-7,18,0
18850,-1,2,6,-2,-3,-1,-11,-10,0
18855,4,-1,3,-3,0,2,32,4,0
18860,-3,-1,8,2,-3,-8,-9,-13,0
18865,-1,-3,-4,-4,-7,-13,-14,-6,0
18870,3,4,-20,0,7,15,24,36,0
18875,-6,-2,34,8,-7,-8,57,-5,0
18880,-4,-1,-10,3,5,-2,-44,-6,0
18885,6,5,2,-6,0,1,-3,1,0
18890,-8,-10,-3,-5,-8,-13,-12,-27,0
18895,-6,0,-7,5,9,22,51,9,0
18900,2,-1,-2,1,0,2,31,10,0
18905,4,1,6,-1,-2,6,-17,13,0
18910,-5,0,2,-8,-3,-17,-43,-23,0
18915,1,-5,-14,0,-1,10,51,3,0
18920,-14,-4,4,-9,-6,-8,-36,-8,0
18925,3,-2,7,0,2,-17,-66,7,0
18930,2,0,0,-3,-3,-2,14,1,0
18935,-8,-1,2,7,2,16,32,5,0
18940,5,2,-8,0,0,0,-41,-3,0
18945,-13,-6,-3,-7,-13,-3,79,-16,0
18950,12,4,3,-1,8,6,18,26,0
18955,-4,-3,-12,-15,-9,-16,-78,-21,0
18960,-16,-4,-1,3,2,-4,47,2,0
18965,20,4,20,19,-1,19,-20,2,0
18970,-3,-6,-22,-20,-4,-19,-74,-16,0
18975,4,4,9,3,2,8,63,5,0
18980,-15,-4,-3,-1,-2,3,42,6,0
18985,-3,-1,-2,7,6,6,-9,17,0
18990,-1,0,6,5,1,0,-25,-18,0
18995,10,4,0,-1,0,-9,-33,5,0
19000,-10,-6,-12,-11,-8,-3,31,-10,0
19005,-10,-2,2,0,-3,-3,-15,-11,0
19010,7,-1,-11,-1,3,7,28,8,0
19015,-4,-5,-1,2,1,-6,-35,-8,0
19020,3,3,9,-1,-3,-14,-37,-9,0
19025,3,2,-6,-8,-3,8,20,8,0
19030,-9,-3,1,1,-3,-4,49,-6,0
19035,1,0,0,3,1,-5,-35,1,0
19040,2,-1,7,2,3,11,7,-8,0
19045,6,1,-9,-2,3,-6,-2,4,0
19050,3,1,0,5,-1,6,27,-1,0
19055,-5,0,12,5,-3,-4,21,1,0
19060,0,2,-12,-11,-6,0,17,-10,0
19065,-7,-4,2,-3,1,-2,-68,-3,0
19070,1,-2,-12,1,6,8,40,2,0
19075,3,2,6,0,-1,-7,-50,3,0
19080,4,-2,-13,-11,-3,6,0,7,0
19085,-7,-4,-5,-2,-5,-7,26,-17,0
19090,-2,1,-1,-3,-5,-1,-13,6,0
19095,-2,1,6,2,1,5,69,3,0
19100,4,-1,7,-4,-1,-21,-86,-1,0
19105,1,-2,-12,3,4,6,7,4,0
19110,-8,1,5,-1,-4,-7,13,2,0
19115,-6,-9,-19,-8,-9,2,-39,-14,0
19120,16,8,13,8,2,2,64,9,0
19125,-10,-2,-3,-6,-3,-5,3,-9,0
19130,4,-2,5,4,4,6,20,13,0
19135,-3,0,2,6,6,-3,-3,4,0
19140,-4,-4,-12,-7,-12,-12,-36,-2,0
19145,-1,-4,-10,-7,-4,8,44,-15,0
19150,5,1,17,4,-6,-12,-35,13,0
19155,6,0,-8,-4,3,-4,-17,4,0
19160,2,-1,6,6,5,-9,-37,-1,0
19165,-6,-6,-7,-2,-3,-5,-12,-13,0
19170,-2,0,8,6,-1,13,74,5,0
19175,-14,-8,-20,-19,-7,-4,39,-17,0
19180,7,2,5,1,1,1,-45,13,0
19185,10,5,8,-1,4,3,66,7,0
19190,2,-7,-28,-8,-13,-11,-17,-23,0
19195,5,6,18,10,12,11,-41,24,0
19200,-23,-1,-4,5,0,1,4,-5,0
19205,7,1,0,1,4,3,-1,13,0
19210,-5,-1,10,0,-4,-1,-17,-9,0
19215,3,0,-13,-7,-4,-2,55,2,0
19220,-5,-6,-7,-5,-6,9,21,-11,0
19225,-3,-3,2,4,5,-7,-30,-6,0
19230,4,4,7,2,4,9,85,11,0
19235,-2,-1,2,7,-2,1,-6,0,0
19240,2,-2,2,-7,1,-2,-14,-8,0
19245,9,2,-3,-2,-2,8,-4,17,0
19250,-6,-3,11,1,-6,-17,-3,-8,0
19255,-6,-3,-1,-5,-2,0,-60,-7,0
19260,14,7,9,13,6,11,90,18,0
19265,-9,-7,0,-1,1,-1,8,-12,0
19270,-4,-3,-30,-21,-6,-8,-40,-4,0
19275,-4,-4,10,-5,-12,3,-22,-15,0
19280,-1,0,3,5,3,-13,-72,-9,0
19285,-2,2,3,3,2,6,35,13,0
19290,6,1,-8,-4,-1,-6,21,-9,0
19295,1,-1,-5,-3,1,4,-7,9,0
19300,2,-3,-3,-8,-6,-14,-20,-10,0
19305,-6,1,10,11,0,16,71,-14,0
19310,0,-6,-14,-7,5,-8,-21,9,0
19315,13,0,-4,-5,-3,0,-10,-4,0
19320,-26,-6,-3,8,5,-2,-52,-6,0
19325,6,0,-15,-20,-12,-9,16,-5,0
19330,1,5,8,-4,-2,12,-59,7,0
19335,-5,-4,-3,5,-1,-15,-45,-23,0
19340,-1,-3,0,-4,2,11,98,6,0
19345,-2,0,-9,-8,-7,-16,-78,-5,0
19350,2,0,5,4,1,3,27,-1,0
19355,-2,-2,4,6,-3,-1,9,1,0
19360,3,1,-6,-5,-3,-3,-29,2,0
19365,-7,-4,5,-4,0,-1,12,1,0
19370,-1,1,4,4,-3,0,-18,-1,0
19375,2,-3,-5,1,2,-8,-3,-6,0
19380,-2,-1,3,-5,-4,-7,41,-4,0
19385,1,-1,-3,1,2,0,-30,5,0
19390,-17,0,11,7,-4,-2,-48,-11,0
19395,6,-2,-7,-1,-1,23,63,1,0
19400,2,-4,-11,-11,-1,-4,-25,6,0
19405,1,0,-3,0,1,-9,41,2,0
19410,0,-1,3,6,1,-1,2,-1,0
19415,-6,5,7,-1,1,6,-34,6,0
19420,-13,-5,-14,-10,-7,-9,-6,-4,0
19425,-5,-4,1,3,-6,1,11,-3,0
19430,-5,-1,-4,2,3,-1,-7,-10,0
19435,5,0,0,-3,2,-1,12,-4,0
19440,3,-1,0,0,-6,-1,14,7,0
19445,-5,1,8,3,0,-7,-37,-7,0
19450,-3,-5,-10,-6,-1,6,-4,-2,0
19455,-6,-2,-1,1,3,-6,56,0,0
19460,6,6,6,8,8,10,-31,-8,0
19465,-1,0,-4,-2,5,-5,30,3,0
19470,0,2,11,-2,-17,2,-42,-11,0
19475,-11,-10,-31,-19,-6,-10,15,5,0
19480,11,-2,9,2,4,6,-62,-9,0
19485,-3,3,-8,4,3,4,22,13,0
19490,-1,-2,10,13,10,-7,-50,-10,0
19495,7,2,-12,-17,-10,-9,75,4,0
19500,-17,-4,-5,-2,-3,6,-21,-16,0
19505,0,-2,-7,-3,-1,-12,-103,8,0
19510,5,-1,-7,0,-2,3,44,5,0
19515,-2,5,25,0,0,-7,-85,-9,0
19520,3,-4,-7,-1,-4,-3,65,-7,0
19525,-1,-7,4,9,-1,15,57,0,0
19530,-7,-1,11,-4,-7,-21,56,-1,0
19535,3,-5,-41,-27,2,5,-70,4,0
19540,1,5,24,9,-3,-1,34,5,0
19545,-1,-2,-11,-1,-6,-7,-41,-6,0
19550,2,-12,-22,-8,3,1,-7,2,0
19555,-4,1,31,21,3,0,-16,-3,0
19560,-3,-3,-33,-16,0,9,-10,-3,0
19565,7,-1,28,5,-13,-28,-1,-8,0
19570,-4,5,0,-2,2,6,113,15,0
19575,-11,-4,0,8,2,11,-22,-13,0
19580,6,3,7,-6,0,-3,-59,13,0
19585,-7,-4,-13,7,0,-1,22,-8,0
19590,10,4,0,-8,-1,3,-94,-4,0
19595,-4,1,-1,0,-6,-4,86,8,0
19600,4,2,10,23,14,3,-36,-8,0
19605,0,2,7,-17,3,5,7,-4,0
19610,-5,-8,-17,-1,-1,-8,-24,-1,0
19615,2,3,-12,-5,-9,5,21,9,0
19620,-1,-6,-14,-12,-6,0,11,2,0
19625,-5,-1,13,2,-5,-5,36,-8,0
19630,-1,6,31,-2,11,-1,-35,-1,0
19635,8,-1,-26,7,5,0,-49,9,0
19640,0,-1,6,2,-7,6,69,7,0
19645,-4,-6,-22,-15,-1,0,-11,-7,0
19650,7,3,4,-2,-6,4,37,15,0
19655,-7,-2,15,10,5,-9,-43,-17,0
19660,2,2,-9,-7,7,1,-11,16,0
19665,-16,-8,0,-1,-10,-11,-17,-14,0
19670,4,-3,-3,-4,-4,2,46,-5,0
19675,1,-2,4,-6,-5,1,43,3,0
19680,2,4,13,13,3,1,19,0,0
19685,-4,-9,-12,-3,-3,9,53,-10,0
19690,-4,5,8,8,11,0,-66,5,0
19695,1,-7,-12,5,-2,-12,-72,2,0
19700,-1,1,-13,-6,2,3,26,16,0
19705,4,5,-4,-1,0,8,57,4,0
19710,-8,-5,-11,-9,-6,-6,-5,-14,0
19715,1,0,10,8,5,-6,42,-6,0
19720,-10,-7,1,-5,-9,7,75,-9,0
19725,14,10,6,13,10,0,-121,23,0
19730,-7,-3,-15,-19,-7,-2,7,-14,0
19735,-1,3,11,2,1,-16,6,0,0
19740,-2,-5,-4,-6,-6,9,-13,0,0
19745,2,2,7,-2,-1,5,27,8,0
19750,11,-2,-5,3,2,-1,-23,-6,0
19755,-10,8,21,-2,2,-10,-45,-7,0
19760,-7,-11,-18,8,-5,2,49,-3,0
19765,3,5,3,-17,-1,9,18,1,0
19770,-1,-1,-8,0,0,-9,-70,-10,0
19775,-6,0,6,-16,-3,13,41,0,0
19780,2,2,17,8,-2,-22,-37,-7,0
19785,3,-5,-8,0,-5,0,-3,1,0
19790,-1,-3,-8,-1,-3,9,56,6,0
19795,4,1,0,4,-4,-6,-19,-5,0
19800,0,0,5,7,8,-3,-17,2,0
19805,-7,-3,-6,-11,-4,-7,-30,-9,0
19810,1,0,0,5,1,-3,-27,9,0
19815,-4,-4,1,6,-10,1,17,-6,0
19820,1,-1,-12,-15,-1,-6,-49,2,0
19825,7,4,-11,8,4,-2,-65,3,0
19830,5,-3,2,-7,-4,-16,4,-2,0
19835,-16,-2,0,0,4,22,44,3,0
19840,1,3,1,-3,-1,-1,-3,-9,0
19845,-9,-4,6,4,-1,-8,-18,4,0
19850,-4,-5,5,4,1,4,14,-9,0
19855,26,6,-9,1,3,-3,-5,8,0
19860,-5,-4,-2,-10,-5,-11,-11,-6,0
19865,-6,-6,-12,-8,-4,-11,-15,-16,0
19870,-6,2,5,7,4,30,55,10,0
19875,12,-2,1,1,1,-4,-6,-1,0
19880,6,4,3,5,0,6,0,6,0
19885,1,-1,4,-5,-4,-11,-7,-8,0
19890,-13,-9,14,11,-4,-6,-2,-8,0
19895,-3,-5,-25,-10,0,7,22,26,0
19900,0,13,2,0,0,-12,-39,-3,0
19905,2,5,-3,4,0,8,33,-7,0
19910,2,5,1,-3,1,3,14,7,0
19915,-10,-16,1,-1,-3,-4,-25,-11,0
19920,2,3,-6,-2,-1,-3,-10,-3,0
19925,2,3,9,8,4,2,-1,13,0
19930,-6,-4,-14,-6,-2,-1,4,-1,0
19935,0,4,7,3,0,1,29,1,0
19940,-8,-10,-8,-4,-4,-6,16,1,0
19945,4,4,4,-2,0,1,20,0,0
19950,0,-2,-3,-4,0,4,-18,1,0
19955,-1,-1,10,0,-1,-6,-15,-6,0
19960,5,2,6,8,0,4,15,-8,0
19965,-4,-4,-15,-3,0,-5,-29,2,0
19970,-4,-5,-9,-9,-3,-5,-2,-2,0
19975,-5,3,5,-2,0,5,1,2,0
19980,0,-1,6,0,-4,-6,-30,-5,0
19985,-2,-5,-4,-5,0,1,-9,0,0
19990,3,4,-2,3,-2,-10,24,1,0
19995,3,2,-1,1,1,1,-17,-8,0
20000,-3,-3,4,1,-1,-5,4,2,0
20005,-1,-1,0,-4,-4,5,-3,-6,0
20010,2,0,0,3,-8,-4,-3,2,0
20015,-5,-6,-8,-5,-2,-2,18,0,0
20020,1,-1,-3,-3,2,-1,-9,-7,0
20025,-4,-3,1,2,0,-2,-10,-9,0
20030,0,2,0,1,3,11,15,2,0
20035,0,1,-2,-1,-2,-5,-8,2,0
20040,-3,-4,-4,-3,0,-9,-19,-12,0
20045,2,-1,1,0,1,5,17,24,0
20050,-1,-2,0,1,0,-10,-1,-6,0
20055,-3,-4,-5,-6,-5,2,7,-1,0
20060,2,0,2,1,5,15,9,10,0
20065,-7,-3,2,-1,-2,-2,1,-14,0
20070,3,-1,-4,-2,-1,-3,2,22,0
20075,2,1,0,1,-2,-6,-19,-9,0
20080,-5,-6,-13,-9,-6,-5,-32,5,0
20085,-2,0,2,2,0,-2,39,9,0
20090,2,-1,1,1,1,-1,-20,-7,0
20095,-5,-2,-7,-5,1,0,-15,-3,0
20100,2,-4,-5,-1,-2,3,24,-12,0
20105,-11,-5,0,-4,-2,6,42,-10,0
20110,-4,-2,3,3,-4,-12,-36,-1,0
20115,-4,0,5,5,1,-19,-104,-16,0
20120,-1,-3,4,-4,-5,2,63,1,0
20125,5,4,-7,4,2,6,-5,7,0
20130,6,-5,-5,-10,-2,-1,-1,-4,0
20135,-11,0,17,3,-4,-6,-31,-11,0
20140,-3,-2,-21,1,1,-3,-9,4,0
20145,-3,0,5,0,-3,0,-10,0,0
20150,7,-1,-9,-1,-5,-3,63,-10,0
20155,1,1,12,-7,5,12,21,4,0
20160,0,-4,-4,3,-6,-12,-55,54,0
20165,-15,9,-5,6,6,9,45,-25,0
20170,-22,-4,-9,-6,-1,-7,-1,15,0
20175,3,2,-9,-4,-4,-4,-3,-36,0
20180,0,-11,3,1,-1,12,59,28,0
20185,0,-7,13,-5,-5,-4,2,-17,0
20190,-5,2,6,11,2,-8,-104,-15,0
20195,18,4,-15,-6,1,4,72,20,0
20200,-5,5,7,1,1,-3,4,-8,0
20205,8,1,-12,-4,-4,-3,84,4,0
20210,-3,12,40,15,1,10,4,-8,0
20215,-2,-32,-79,-40,-11,-4,-79,6,0
20220,-8,6,6,6,6,-8,-46,-25,0
20225,7,3,3,-1,3,0,-45,-4,0
20230,-7,-2,9,1,-4,-8,3,8,0
20235,-1,4,22,14,-1,4,39,-10,0
20240,-6,-1,-4,-9,-6,-5,-1,-9,0
20245,-3,-4,3,-5,1,3,-17,34,0
20250,0,-3,0,2,2,2,-5,-14,0
20255,13,2,-18,2,4,1,-7,18,0
20260,-3,-1,10,-1,-4,-1,9,-8,0
20265,-11,-19,-1,-2,0,-9,-28,-45,0
20270,24,23,53,8,-2,7,19,12,0
20275,-26,-7,-48,-19,-5,-4,40,-7,0
20280,-3,-2,-9,3,2,8,43,-9,0
20285,10,-6,-9,1,0,-12,-70,20,0
20290,-9,-3,15,-6,-4,1,71,-21,0
20295,-8,-10,7,15,2,1,-35,-1,0
20300,18,10,-16,-2,2,-10,-68,14,0
20305,0,-1,1,-5,-7,8,-7,-27,0
20310,-5,-12,-22,-4,0,4,0,3,0
20315,4,12,37,11,-1,-7,32,-7,0
20320,-11,-2,-3,-11,-9,-3,48,-7,0
20325,-5,5,20,2,2,-3,-6,17,0
20330,11,-16,-56,-5,5,6,-3,-5,0
20335,-6,-1,13,-14,-2,5,11,9,0
20340,-2,-6,-6,-3,0,-3,-8,-9,0
20345,-11,7,17,-2,-4,-7,-16,2,0
20350,3,3,-8,-1,-2,2,27,10,0
20355,10,0,5,9,2,-3,12,5,0
20360,4,5,18,4,5,9,11,3,0
20365,4,1,-9,2,3,-5,-35,-4,0
20370,-15,-8,-19,-13,-15,-3,33,-8,0
20375,11,2,7,7,-1,-8,10,12,0
20380,8,5,17,2,2,-2,-49,18,0
20385,-4,-3,-12,1,2,4,24,-1,0
20390,-20,-7,-12,-6,-2,-9,-37,-4,0
20395,29,5,19,3,0,18,72,24,0
20400,-7,-2,-18,-2,-4,5,-16,-17,0
20405,4,2,4,3,4,-16,-55,27,0
20410,-5,0,-1,-4,1,-1,12,-29,0
20415,-6,3,4,6,2,-1,-45,6,0
20420,-4,-2,-3,-2,-3,6,26,-2,0
20425,3,-5,-10,-2,-6,-2,12,4,0
20430,1,2,10,-6,4,2,8,2,0
20435,-12,-3,-13,-5,-5,2,-5,-11,0
20440,-8,-10,-4,-4,-2,-5,-2,-11,0
20445,-7,-6,-11,-6,-4,-2,14,-6,0
20450,8,5,7,3,0,7,-25,-4,0
20455,2,-1,0,2,-5,-21,-7,6,0
20460,-8,1,3,-2,1,12,18,-9,0
20465,2,0,5,-1,-3,-4,-30,1,0
20470,10,0,-17,-5,3,7,12,10,0
20475,-26,-5,1,0,-2,-5,-4,2,0
20480,11,0,2,0,-2,1,10,15,0
20485,3,1,-1,-2,-4,-8,-6,-25,0
20490,6,2,-2,0,4,4,15,7,0
20495,-5,4,18,2,2,5,24,-1,0
20500,-9,-4,-1,2,-9,-16,-45,-6,0
20505,2,1,-8,-8,0,8,22,-13,0
20510,4,0,-3,0,2,-3,-28,14,0
20515,-7,1,4,-2,-6,0,10,-28,0
20520,4,0,5,0,2,7,7,5,0
20525,3,1,-12,-1,0,-2,41,9,0
20530,-11,-3,35,6,-3,-6,-42,2,0
20535,6,-1,-25,-7,2,1,-18,3,0
20540,-2,-2,-13,-9,1,0,4,-11,0
20545,0,-3,-23,-2,0,4,1,4,0
20550,6,-1,9,5,-4,-9,15,-6,0
20555,-6,-2,6,-7,0,8,-10,1,0
20560,0,5,34,-3,-3,-11,-19,1,0
20565,-11,-8,13,-1,-2,-2,52,-6,0
20570,1,8,-57,1,1,1,-9,0,0
20575,13,-4,0,5,2,0,-5,20,0
20580,-19,1,-1,-1,0,-4,14,-43,0
20585,6,5,15,-2,-5,3,-15,31,0
20590,-8,-5,5,-2,1,2,-1,-3,0
20595,-1,1,6,1,1,2,-3,1,0
20600,6,-4,-9,-1,1,-13,4,-30,0
20605,-1,2,8,4,5,16,-8,28,0
20610,0,-2,-5,-3,-3,-13,-9,-7,0
