Timestamp, Angle x, Angle y, Angle z, Marker
40,-1.03139,-0.151774,0.000351702,0
60,-1.03105,-0.152842,0.00290726,0
80,-1.03073,-0.15402,0.00552358,0
100,-1.02984,-0.154428,0.00821756,0
120,-1.02883,-0.154289,0.0111409,0
140,-1.02794,-0.154126,0.0143563,0
160,-1.02814,-0.153942,0.016939,0
180,-1.02898,-0.153835,0.0201753,0
200,-1.02773,-0.153697,0.0240786,0
200,-1.0245,-0.153448,0.0275975,0
200,-1.01954,-0.155235,0.0291622,0
250,-1.01415,-0.159726,0.0268544,0
270,-1.00986,-0.164608,0.0210685,0
290,-1.00678,-0.167756,0.0141391,0
310,-1.00796,-0.169206,0.00777722,0
330,-1.01087,-0.171068,0.00135324,0
350,-1.01052,-0.172483,-0.00503229,0
370,-1.00623,-0.172199,-0.00947611,0
390,-0.99887,-0.170164,-0.0110546,0
410,-0.992804,-0.167192,-0.0105177,0
430,-0.988464,-0.165051,-0.00798502,0
470,-0.986244,-0.16444,0.0027775,0
490,-0.980934,-0.166151,0.0126841,0
510,-0.972857,-0.169532,0.0245904,0
530,-0.965464,-0.174281,0.0367673,0
550,-0.96142,-0.179177,0.0470883,0
570,-0.964243,-0.18282,0.0556435,0
590,-0.970297,-0.185601,0.0624709,0
610,-0.973238,-0.186831,0.0655199,0
630,-0.971063,-0.185779,0.0666598,0
650,-0.963015,-0.183272,0.0672271,0
670,-0.95615,-0.179428,0.0688793,0
690,-0.953777,-0.178357,0.0682099,0
710,-0.953112,-0.177188,0.0667054,0
730,-0.947695,-0.173361,0.0665013,0
750,-0.940029,-0.169826,0.0667875,0
770,-0.931583,-0.166922,0.068302,0
790,-0.926849,-0.165066,0.0686656,0
810,-0.928023,-0.163927,0.069034,0
830,-0.930905,-0.162786,0.0686081,0
850,-0.930291,-0.161096,0.0681153,0
870,-0.926561,-0.159585,0.0672602,0
890,-0.923297,-0.158534,0.0654651,0
910,-0.921849,-0.156433,0.0633236,0
930,-0.922405,-0.152951,0.06178,0
950,-0.923186,-0.149421,0.0609067,0
970,-0.923206,-0.147116,0.0597573,0
980,-0.922911,-0.144763,0.0581475,0
1000,-0.92165,-0.142503,0.057728,0
1020,-0.920543,-0.141659,0.0583082,0
1040,-0.9212,-0.141313,0.0581902,0
1060,-0.923031,-0.140658,0.057607,0
1080,-0.923237,-0.138397,0.0552676,0
1100,-0.921963,-0.135402,0.052173,0
1120,-0.920181,-0.131926,0.0475696,0
1140,-0.918714,-0.129416,0.0426641,0
1160,-0.918357,-0.127699,0.037009,0
1180,-0.918168,-0.125635,0.0303868,0
1200,-0.917409,-0.121831,0.0239562,0
1220,-0.917717,-0.117593,0.0181907,0
1240,-0.917806,-0.113736,0.0132924,0
1260,-0.917605,-0.110271,0.00979917,0
1280,-0.917651,-0.108015,0.00718875,0
1300,-0.918162,-0.107125,0.00459625,0
1320,-0.918127,-0.105695,0.00169995,0
1340,-0.917264,-0.102297,-2.29785e-05,0
1360,-0.915513,-0.099068,-0.00047444,0
1380,-0.914084,-0.0961177,-0.000911524,0
1400,-0.912587,-0.0937546,-0.00200062,0
1420,-0.912059,-0.091229,-0.00381152,0
1440,-0.910811,-0.0875498,-0.00553032,0
1460,-0.909171,-0.0837042,-0.00748001,0
1480,-0.906485,-0.0804551,-0.00930905,0
1520,-0.906673,-0.0725297,-0.0203609,0
1540,-0.910187,-0.0711021,-0.0255755,0
1560,-0.912352,-0.0703848,-0.0303536,0
1580,-0.912916,-0.0700373,-0.0345923,0
1600,-0.912829,-0.0695732,-0.0386373,0
1620,-0.914074,-0.0690797,-0.0427949,0
1640,-0.916985,-0.0687389,-0.0476683,0
1660,-0.919455,-0.068454,-0.0523868,0
1680,-0.921155,-0.0678881,-0.0568641,0
1700,-0.921748,-0.0677881,-0.0607204,0
1720,-0.921955,-0.0680075,-0.0641574,0
1740,-0.922599,-0.0680795,-0.06698,0
1760,-0.923367,-0.0684311,-0.0692492,0
1780,-0.924288,-0.0692825,-0.0711355,0
1800,-0.925059,-0.0700206,-0.0728035,0
1820,-0.92572,-0.0699358,-0.0739271,0
1840,-0.926539,-0.069748,-0.0745552,0
1860,-0.927751,-0.0696846,-0.0751118,0
1880,-0.929124,-0.0691357,-0.075501,0
1900,-0.930773,-0.0685421,-0.0754979,0
1920,-0.932738,-0.0674659,-0.0747797,0
1940,-0.933998,-0.0670152,-0.0734808,0
1960,-0.93455,-0.0673558,-0.0719284,0
1980,-0.934828,-0.0678502,-0.0704399,0
2000,-0.935415,-0.0682465,-0.0690024,0
2020,-0.935852,-0.0684722,-0.067512,0
2040,-0.93586,-0.0688471,-0.0660874,0
2060,-0.935871,-0.0692758,-0.0644984,0
2080,-0.936434,-0.0694485,-0.062891,0
2100,-0.937033,-0.0692938,-0.0611799,0
2120,-0.936532,-0.0688338,-0.0597806,0
2140,-0.935053,-0.0681825,-0.0586304,0
2160,-0.933573,-0.0673148,-0.0575889,0
2180,-0.932095,-0.0664488,-0.0565464,0
2200,-0.930495,-0.0650358,-0.0557828,0
2220,-0.928896,-0.0634058,-0.0551261,0
2240,-0.928782,-0.0618722,-0.0548014,0
2260,-0.929728,-0.0603672,-0.0547129,0
2280,-0.930429,-0.0585311,-0.0556233,0
2300,-0.930739,-0.0564667,-0.0566582,0
2320,-0.929615,-0.0547436,-0.0582145,0
2340,-0.92949,-0.0543621,-0.0604638,0
2360,-0.928904,-0.0541861,-0.0639764,0
2380,-0.928022,-0.0536169,-0.0683665,0
2400,-0.927306,-0.0529409,-0.0728098,0
2420,-0.92716,-0.0519571,-0.0784976,0
2440,-0.927419,-0.0514821,-0.0846129,0
2460,-0.928553,-0.049792,-0.091199,0
2480,-0.929411,-0.0480423,-0.0976789,0
2500,-0.930467,-0.0460895,-0.104546,0
2520,-0.931488,-0.0427236,-0.112677,0
2540,-0.932987,-0.0383594,-0.121179,0
2560,-0.932755,-0.0350956,-0.130221,0
2580,-0.929241,-0.0322621,-0.140074,0
2600,-0.925599,-0.0306946,-0.150642,0
2620,-0.922509,-0.0300615,-0.161975,0
2640,-0.920599,-0.0288951,-0.17427,0
2660,-0.918875,-0.027887,-0.187169,0
2680,-0.916843,-0.0267647,-0.200523,0
2700,-0.912861,-0.026885,-0.215233,0
2720,-0.91061,-0.0288362,-0.232258,0
2740,-0.909713,-0.031954,-0.250574,0
2760,-0.909211,-0.0355605,-0.269784,0
2780,-0.910272,-0.0394963,-0.290052,0
2800,-0.912446,-0.044143,-0.312414,0
2810,-0.913899,-0.0485701,-0.335326,0
2830,-0.914613,-0.0536255,-0.357837,0
2850,-0.915856,-0.0589632,-0.379174,0
2860,-0.917903,-0.0633335,-0.400711,0
2880,-0.921054,-0.0679081,-0.422298,0
2900,-0.92547,-0.0733542,-0.443517,0
2920,-0.926865,-0.0783345,-0.462828,0
2940,-0.925231,-0.082406,-0.479761,0
2960,-0.924391,-0.085263,-0.494692,0
2980,-0.922939,-0.0887872,-0.50744,0
3000,-0.922957,-0.0926912,-0.51873,0
3020,-0.921307,-0.096424,-0.528424,0
3040,-0.918207,-0.0988837,-0.535923,0
3060,-0.914535,-0.101589,-0.540715,0
3080,-0.911298,-0.104231,-0.544009,0
3100,-0.908424,-0.106684,-0.546146,0
3120,-0.905548,-0.109522,-0.547687,0
3140,-0.903167,-0.111703,-0.548157,0
3160,-0.89962,-0.113666,-0.54751,0
3180,-0.896873,-0.115951,-0.546806,0
3200,-0.895596,-0.118095,-0.546555,0
3220,-0.895498,-0.11971,-0.546795,0
3240,-0.896348,-0.121437,-0.547173,0
3260,-0.897134,-0.122569,-0.546412,0
3280,-0.897541,-0.122964,-0.545548,0
3300,-0.899117,-0.123442,-0.545035,0
3320,-0.9014,-0.123745,-0.544479,0
3340,-0.902293,-0.122798,-0.541993,0
3360,-0.900671,-0.121245,-0.537642,0
3380,-0.897755,-0.120092,-0.532583,0
3400,-0.895835,-0.119058,-0.527969,0
3420,-0.894785,-0.117753,-0.524547,0
3450,-0.896029,-0.114413,-0.520952,0
3470,-0.89716,-0.112268,-0.519369,0
3490,-0.897584,-0.110299,-0.517058,0
3510,-0.896758,-0.108832,-0.514305,0
3530,-0.89532,-0.10751,-0.511841,0
3550,-0.894985,-0.10623,-0.510595,0
3570,-0.894996,-0.104775,-0.510137,0
3590,-0.89582,-0.103738,-0.510131,0
3600,-0.896339,-0.102912,-0.510698,0
3620,-0.896519,-0.102836,-0.510758,0
3640,-0.896864,-0.101859,-0.51053,0
3660,-0.897918,-0.100945,-0.510338,0
3680,-0.897774,-0.0995495,-0.509578,0
3700,-0.897132,-0.0990484,-0.508915,0
3720,-0.896473,-0.0988123,-0.508564,0
3740,-0.896319,-0.0987293,-0.508435,0
3760,-0.896512,-0.0980467,-0.508909,0
3780,-0.897082,-0.0975168,-0.509201,0
3800,-0.896967,-0.0974783,-0.50922,0
3820,-0.896649,-0.0970606,-0.509387,0
3840,-0.896637,-0.0967111,-0.509841,0
3860,-0.896976,-0.0960064,-0.5102,0
3880,-0.897913,-0.0946138,-0.510786,0
3900,-0.898611,-0.0930389,-0.511167,0
3920,-0.897703,-0.0921266,-0.511241,0
3940,-0.897128,-0.0916925,-0.511541,0
3960,-0.896927,-0.091638,-0.512396,0
3980,-0.896863,-0.0917352,-0.513749,0
4000,-0.897935,-0.0913379,-0.515429,0
4020,-0.898669,-0.0910767,-0.516741,0
4040,-0.899107,-0.0903283,-0.517852,0
4060,-0.899404,-0.0905202,-0.518631,0
4080,-0.899558,-0.0907345,-0.519525,0
4100,-0.900587,-0.0897663,-0.520629,0
4120,-0.902328,-0.0892575,-0.52117,0
4140,-0.904328,-0.0885373,-0.520844,0
4160,-0.905772,-0.0880328,-0.520059,0
4180,-0.90695,-0.0869319,-0.51913,0
4200,-0.908102,-0.0859889,-0.51827,0
4220,-0.908856,-0.0853981,-0.5172,0
4240,-0.90904,-0.0848161,-0.515947,0
4260,-0.908381,-0.0846904,-0.514401,0
4280,-0.908066,-0.0850548,-0.513354,0
4300,-0.908122,-0.0857496,-0.51274,0
4320,-0.907811,-0.0869674,-0.512554,0
4340,-0.906603,-0.0884725,-0.512848,0
4360,-0.90533,-0.0905163,-0.51374,0
4380,-0.905438,-0.0925776,-0.51588,0
4400,-0.90689,-0.0947141,-0.519089,0
4420,-0.909451,-0.0963768,-0.522603,0
4440,-0.91175,-0.0974526,-0.525975,0
4460,-0.913733,-0.0974416,-0.529269,0
4480,-0.915491,-0.0966378,-0.532508,0
4500,-0.915623,-0.0967167,-0.539029,0
4530,-0.912955,-0.0967101,-0.544471,0
4550,-0.909758,-0.0966012,-0.546252,0
4570,-0.907102,-0.0970228,-0.548349,0
4590,-0.906682,-0.0987318,-0.551767,0
4610,-0.907384,-0.100309,-0.556207,0
4630,-0.908219,-0.101363,-0.560626,0
4650,-0.909417,-0.102477,-0.564618,0
4670,-0.91091,-0.10401,-0.568168,0
4690,-0.912048,-0.105035,-0.570939,0
4710,-0.913108,-0.10549,-0.573094,0
4750,-0.91602,-0.106102,-0.576937,0
4770,-0.917476,-0.105577,-0.578623,0
4790,-0.918821,-0.104732,-0.579735,0
4810,-0.919814,-0.104006,-0.580472,0
4830,-0.919541,-0.103422,-0.580575,0
4850,-0.918779,-0.10348,-0.580325,0
4870,-0.918234,-0.103763,-0.579856,0
4890,-0.918177,-0.104253,-0.579184,0
4910,-0.918233,-0.104881,-0.578463,0
4930,-0.917983,-0.105483,-0.577575,0
4950,-0.9176,-0.106063,-0.576955,0
4970,-0.918061,-0.10688,-0.576604,0
4990,-0.918469,-0.108068,-0.576517,0
5020,-0.918052,-0.111563,-0.577794,0
5040,-0.919195,-0.113123,-0.579295,0
5060,-0.922437,-0.114279,-0.581784,0
5080,-0.926026,-0.115803,-0.584684,0
5100,-0.929487,-0.118053,-0.588236,0
5120,-0.934043,-0.120748,-0.592669,0
5140,-0.940149,-0.12337,-0.597603,0
5160,-0.946656,-0.125797,-0.602703,0
5180,-0.95266,-0.127772,-0.607391,0
5200,-0.95828,-0.130077,-0.61162,0
5220,-0.962654,-0.132799,-0.614919,0
5240,-0.965672,-0.135602,-0.617906,0
5260,-0.966568,-0.138685,-0.619785,0
5280,-0.966609,-0.141365,-0.620488,0
5300,-0.966552,-0.143673,-0.620362,0
5320,-0.965436,-0.145078,-0.619369,0
5340,-0.964003,-0.146241,-0.618504,0
5360,-0.962377,-0.146375,-0.617389,0
5380,-0.960499,-0.146398,-0.61604,0
5400,-0.959155,-0.146086,-0.614759,0
5420,-0.957678,-0.145168,-0.613467,0
5440,-0.956481,-0.14326,-0.612254,0
5460,-0.956047,-0.140705,-0.610726,0
5480,-0.95566,-0.138011,-0.609411,0
5500,-0.954855,-0.135647,-0.607882,0
5520,-0.953515,-0.133719,-0.606259,0
5530,-0.951398,-0.132081,-0.603942,0
5540,-0.949268,-0.130579,-0.601446,0
5550,-0.946333,-0.127916,-0.596389,0
5570,-0.944185,-0.126103,-0.594337,0
5570,-0.942972,-0.121201,-0.591724,0
5590,-0.941666,-0.119577,-0.590218,0
5610,-0.93949,-0.118523,-0.588515,0
5630,-0.937513,-0.117555,-0.587653,0
5650,-0.937871,-0.116122,-0.587374,0
5670,-0.939867,-0.114613,-0.5873,0
5690,-0.940881,-0.113833,-0.586761,0
5710,-0.940137,-0.11363,-0.58579,0
5730,-0.938726,-0.114095,-0.584551,0
5750,-0.937724,-0.114171,-0.583403,0
5770,-0.937553,-0.114024,-0.582466,0
5790,-0.937385,-0.113635,-0.581462,0
5810,-0.936905,-0.113459,-0.580356,0
5840,-0.935022,-0.112965,-0.578702,0
5860,-0.934857,-0.112331,-0.578137,0
5880,-0.934686,-0.111642,-0.577448,0
5900,-0.934131,-0.110831,-0.576792,0
5920,-0.933292,-0.109967,-0.576396,0
5940,-0.932851,-0.109484,-0.576312,0
5960,-0.932903,-0.10881,-0.576367,0
5980,-0.93284,-0.108394,-0.576127,0
6000,-0.932009,-0.108131,-0.575609,0
6020,-0.930859,-0.108464,-0.575048,0
6040,-0.929581,-0.10923,-0.57454,0
6050,-0.928265,-0.110195,-0.57395,0
6070,-0.927313,-0.11042,-0.573609,0
6080,-0.927148,-0.110372,-0.573325,0
6100,-0.926903,-0.110176,-0.573116,0
6120,-0.925858,-0.110331,-0.573226,0
6140,-0.924375,-0.110588,-0.573533,0
6160,-0.923689,-0.110679,-0.574144,0
6180,-0.923695,-0.110521,-0.57523,0
6200,-0.923804,-0.109996,-0.576361,0
6220,-0.923381,-0.109712,-0.577176,0
6240,-0.922698,-0.109404,-0.578127,0
6260,-0.921593,-0.109024,-0.578931,0
6280,-0.921007,-0.108692,-0.579461,0
6300,-0.920723,-0.108333,-0.580034,0
6320,-0.920552,-0.108113,-0.58056,0
6340,-0.920334,-0.10789,-0.58078,0
6350,-0.920191,-0.107909,-0.580897,0
6370,-0.920546,-0.108059,-0.580435,0
6390,-0.920723,-0.108333,-0.580034,0
6410,-0.92141,-0.108881,-0.57983,0
6430,-0.921637,-0.109462,-0.579422,0
6450,-0.921624,-0.110298,-0.578589,0
6470,-0.921412,-0.110794,-0.577756,0
6490,-0.922547,-0.111295,-0.577478,0
6510,-0.924507,-0.111755,-0.57803,0
6530,-0.927001,-0.111826,-0.5788,0
6550,-0.929779,-0.111993,-0.579838,0
6570,-0.931791,-0.11158,-0.580223,0
6590,-0.933504,-0.110871,-0.579446,0
6610,-0.934637,-0.109999,-0.578389,0
6630,-0.93542,-0.10871,-0.576802,0
6640,-0.936577,-0.107037,-0.57528,0
6660,-0.937981,-0.105519,-0.573445,0
6680,-0.939532,-0.104278,-0.571185,0
6700,-0.940323,-0.103259,-0.567865,0
6720,-0.940575,-0.102668,-0.564169,0
6740,-0.940994,-0.102561,-0.560942,0
6760,-0.942089,-0.102813,-0.558046,0
6780,-0.943622,-0.103185,-0.555425,0
6800,-0.944702,-0.103645,-0.552721,0
6820,-0.945931,-0.103497,-0.550307,0
6840,-0.946881,-0.103598,-0.54834,0
6860,-0.948139,-0.103572,-0.546449,0
6880,-0.948789,-0.103699,-0.544437,0
6900,-0.949692,-0.103827,-0.542018,0
6920,-0.95025,-0.103978,-0.539253,0
6940,-0.951488,-0.104104,-0.537432,0
6960,-0.953031,-0.103915,-0.536246,0
6980,-0.953654,-0.102988,-0.534592,0
7000,-0.953529,-0.1022,-0.532408,0
7020,-0.952952,-0.102039,-0.530287,0
7040,-0.952664,-0.102023,-0.528552,0
7060,-0.952875,-0.102392,-0.527228,0
7080,-0.952275,-0.102643,-0.525906,0
7120,-0.944107,-0.0950322,-0.502867,0
7140,-0.94269,-0.0931517,-0.499687,0
7160,-0.941068,-0.0919763,-0.495593,0
7180,-0.939399,-0.0913046,-0.49081,0
7200,-0.938264,-0.090706,-0.485621,0
7220,-0.9378,-0.0897809,-0.480795,0
7240,-0.937349,-0.0883157,-0.47652,0
7260,-0.9365,-0.0861297,-0.472162,0
7280,-0.934655,-0.0838243,-0.467503,0
7310,-0.930744,-0.0794324,-0.459493,0
7330,-0.92866,-0.0715976,-0.448995,0
7350,-0.928594,-0.0683094,-0.444979,0
7370,-0.928419,-0.0647629,-0.440538,0
7390,-0.927594,-0.060787,-0.435567,0
7410,-0.926332,-0.0565713,-0.430249,0
7430,-0.925218,-0.052388,-0.424946,0
7450,-0.923256,-0.0449438,-0.414909,0
7470,-0.921111,-0.0422152,-0.40978,0
7490,-0.919326,-0.0402094,-0.40492,0
7510,-0.918131,-0.038745,-0.400524,0
7530,-0.917908,-0.0372108,-0.396099,0
7550,-0.917993,-0.0357758,-0.391811,0
7570,-0.917843,-0.0345872,-0.387234,0
7590,-0.917981,-0.0332827,-0.382331,0
7610,-0.918198,-0.0322841,-0.377692,0
7630,-0.91916,-0.0315754,-0.373957,0
7650,-0.920851,-0.0309476,-0.37093,0
7670,-0.922596,-0.0307736,-0.367957,0
7690,-0.923507,-0.0304996,-0.364827,0
7710,-0.924123,-0.0302272,-0.361532,0
7730,-0.924837,-0.0291209,-0.357146,0
7750,-0.925565,-0.0270255,-0.351025,0
7770,-0.925222,-0.0240136,-0.343209,0
7790,-0.923795,-0.0197276,-0.335117,0
7810,-0.921469,-0.0136947,-0.327704,0
7830,-0.918785,-0.00569497,-0.320825,0
7850,-0.916102,0.00419096,-0.312529,0
7870,-0.911991,0.0155312,-0.302507,0
7890,-0.90676,0.0276273,-0.291386,0
7910,-0.900671,0.0389126,-0.27883,0
7930,-0.892655,0.0501275,-0.264977,0
7950,-0.884575,0.0619984,-0.251691,0
7970,-0.878925,0.0745185,-0.240549,0
7990,-0.87541,0.0879378,-0.230015,0
8010,-0.872665,0.101458,-0.218375,0
8030,-0.868679,0.114674,-0.206048,0
8050,-0.863753,0.128894,-0.194744,0
8070,-0.859521,0.14438,-0.185419,0
8090,-0.857106,0.160868,-0.177139,0
8110,-0.855487,0.178386,-0.170076,0
8130,-0.854006,0.196739,-0.162864,0
8150,-0.852268,0.215501,-0.155644,0
8170,-0.851005,0.235218,-0.148365,0
8190,-0.84831,0.256341,-0.141334,0
8210,-0.843908,0.277721,-0.13461,0
8230,-0.837433,0.298231,-0.127848,0
8250,-0.829079,0.317689,-0.119858,0
8270,-0.821108,0.335967,-0.110867,0
8290,-0.815918,0.354491,-0.101856,0
8310,-0.814633,0.374794,-0.092697,0
8330,-0.818012,0.392196,-0.085387,0
8350,-0.825882,0.399031,-0.0826824,0
8370,-0.835582,0.395606,-0.08626,0
8390,-0.840203,0.388181,-0.0908428,0
8410,-0.839863,0.383099,-0.0924039,0
8430,-0.837526,0.383653,-0.0918762,0
8450,-0.836337,0.387605,-0.0896071,0
8470,-0.835563,0.390372,-0.0856783,0
8490,-0.83741,0.391884,-0.0818449,0
8510,-0.836498,0.392478,-0.078519,0
8530,-0.831294,0.390055,-0.0765892,0
8550,-0.823931,0.384194,-0.0754152,0
8570,-0.818726,0.377665,-0.0735997,0
8580,-0.816546,0.372248,-0.0701144,0
8610,-0.81679,0.366834,-0.0609052,0
8640,-0.81861,0.3615,-0.0511025,0
8650,-0.81985,0.360291,-0.0462121,0
8660,-0.822815,0.359056,-0.0419195,0
8680,-0.826612,0.356366,-0.0383371,0
8700,-0.828974,0.353689,-0.0348754,0
8720,-0.829593,0.352455,-0.0309409,0
8740,-0.828794,0.352431,-0.0259161,0
8760,-0.82738,0.35338,-0.0198367,0
8780,-0.82694,0.355871,-0.0134269,0
8800,-0.827509,0.360762,-0.00672179,0
8820,-0.830557,0.368068,-0.000206023,0
8840,-0.837568,0.378169,0.00528973,0
8860,-0.849311,0.392768,0.00995078,0
8880,-0.865676,0.411831,0.0133348,0
8900,-0.883122,0.43293,0.0144183,0
8920,-0.900151,0.446072,0.0155187,0
8940,-0.914184,0.445795,0.0161278,0
8960,-0.919187,0.44694,0.0186358,0
8980,-0.919464,0.449584,0.0199431,0
9000,-0.920464,0.45133,0.018154,0
9020,-0.921148,0.453308,0.015494,0
9040,-0.92091,0.455198,0.0117867,0
9060,-0.920147,0.455331,0.00855965,0
9080,-0.917702,0.453864,0.00563285,0
9100,-0.915608,0.451815,0.00224523,0
9120,-0.915877,0.44881,-0.00164468,0
9140,-0.917434,0.446319,-0.0053617,0
9160,-0.920991,0.445137,-0.00937002,0
9180,-0.926785,0.444741,-0.0134084,0
9200,-0.931899,0.444637,-0.0169252,0
9220,-0.936744,0.444465,-0.020492,0
9240,-0.940045,0.444608,-0.0236896,0
9260,-0.940629,0.445194,-0.0259654,0
9280,-0.940113,0.445867,-0.0275899,0
9300,-0.93937,0.446767,-0.0287186,0
9320,-0.939147,0.447571,-0.0296133,0
9340,-0.939111,0.448108,-0.0304653,0
9360,-0.939743,0.448618,-0.0309945,0
9380,-0.941057,0.448586,-0.0313036,0
9400,-0.942785,0.448739,-0.0313565,0
9420,-0.944613,0.448997,-0.0312154,0
9440,-0.945789,0.448968,-0.0309339,0
9460,-0.946973,0.448863,-0.0311302,0
9480,-0.946938,0.448835,-0.0311422,0
9510,-0.947452,0.449063,-0.0319236,0
9530,-0.948427,0.44915,-0.0330462,0
9550,-0.94947,0.448836,-0.0341283,0
9570,-0.9509,0.448602,-0.0354443,0
9590,-0.951515,0.448307,-0.0364186,0
9610,-0.951909,0.447943,-0.037186,0
9630,-0.95182,0.447541,-0.0376678,0
9650,-0.952255,0.447442,-0.0382521,0
9670,-0.952914,0.447193,-0.0388528,0
9690,-0.953403,0.446841,-0.0393518,0
9710,-0.953633,0.446613,-0.0398457,0
9730,-0.953968,0.446886,-0.0404833,0
9750,-0.954347,0.447206,-0.0407487,0
9770,-0.954809,0.447689,-0.040704,0
9790,-0.954883,0.447835,-0.0407549,0
9810,-0.954575,0.447829,-0.0401362,0
9830,-0.95473,0.447829,-0.0396128,0
9850,-0.954989,0.447546,-0.0391091,0
9870,-0.955295,0.447618,-0.038497,0
9890,-0.955261,0.44743,-0.038,0
9910,-0.955261,0.44743,-0.038,0
9930,-0.9553,0.447548,-0.0380623,0
9950,-0.955713,0.447587,-0.0380523,0
9970,-0.956363,0.447635,-0.0383656,0
9990,-0.957206,0.447962,-0.0387266,0
10010,-0.957245,0.448079,-0.038789,0
10030,-0.957245,0.448079,-0.038789,0
10040,-0.956941,0.447846,-0.0388923,0
10060,-0.956902,0.447728,-0.0388299,0
10080,-0.956936,0.447756,-0.0388183,0
10100,-0.956936,0.447756,-0.0388183,0
10120,-0.956936,0.447756,-0.0388183,0
10140,-0.956953,0.447696,-0.0389348,0
10160,-0.956936,0.447756,-0.0388183,0
10180,-0.956936,0.447756,-0.0388183,0
10200,-0.956811,0.447702,-0.0383441,0
10220,-0.956503,0.447697,-0.0377257,0
10240,-0.956503,0.447697,-0.0377257,0
10270,-0.956355,0.447773,-0.0375697,0
10290,-0.956355,0.447773,-0.0375697,0
10310,-0.956355,0.447773,-0.0375697,0
10330,-0.956355,0.447773,-0.0375697,0
10350,-0.956355,0.447773,-0.0375697,0
10370,-0.956355,0.447773,-0.0375697,0
10390,-0.956355,0.447773,-0.0375697,0
10410,-0.956355,0.447773,-0.0375697,0
10430,-0.956189,0.447761,-0.0375419,0
10450,-0.956189,0.447761,-0.0375419,0
10470,-0.957009,0.447911,-0.037957,0
10490,-0.957009,0.447911,-0.037957,0
10510,-0.957009,0.447911,-0.037957,0
10530,-0.956217,0.447551,-0.0377011,0
10550,-0.955545,0.447325,-0.0374422,0
10560,-0.955378,0.447314,-0.0374144,0
10590,-0.955016,0.446934,-0.0372656,0
10600,-0.954704,0.446521,-0.0372219,0
10620,-0.954259,0.445668,-0.0371202,0
10640,-0.954123,0.444661,-0.0371285,0
10660,-0.953675,0.443719,-0.0369541,0
10680,-0.953228,0.442777,-0.0367802,0
10700,-0.95186,0.441969,-0.0361754,0
10720,-0.950498,0.44125,-0.0356453,0
10740,-0.948951,0.440798,-0.0351623,0
10760,-0.94747,0.440422,-0.0344972,0
10770,-0.944912,0.440402,-0.0332029,0
10790,-0.943461,0.440438,-0.0323115,0
10810,-0.940793,0.439972,-0.0307621,0
10830,-0.939548,0.440225,-0.0300315,0
10850,-0.938278,0.440065,-0.0295297,0
10870,-0.936863,0.43998,-0.0288725,0
10890,-0.935979,0.439501,-0.0282709,0
10910,-0.934851,0.438939,-0.0280273,0
10930,-0.933925,0.438507,-0.0278718,0
10950,-0.933128,0.437969,-0.0276834,0
10970,-0.932607,0.437341,-0.0276895,0
10990,-0.932282,0.436517,-0.027885,0
11010,-0.931936,0.435516,-0.0281375,0
11030,-0.931704,0.434559,-0.0283116,0
11050,-0.931659,0.433881,-0.0285272,0
11070,-0.931797,0.433391,-0.0287127,0
11090,-0.931885,0.432932,-0.0287926,0
11110,-0.931885,0.432932,-0.0287926,0
11130,-0.93192,0.432959,-0.0287813,0
11150,-0.93192,0.432959,-0.0287813,0
11170,-0.93192,0.432959,-0.0287813,0
11190,-0.931425,0.432743,-0.0285586,0
11210,-0.931425,0.432743,-0.0285586,0
11230,-0.931261,0.432732,-0.028532,0
11250,-0.931766,0.432563,-0.0289736,0
11270,-0.932292,0.432571,-0.0293584,0
11290,-0.932292,0.432571,-0.0293584,0
11310,-0.932272,0.432394,-0.029415,0
11330,-0.932107,0.432383,-0.0293884,0
11350,-0.931573,0.43245,-0.0294364,0
11370,-0.931609,0.432568,-0.0294966,0
11390,-0.931609,0.432568,-0.0294966,0
11410,-0.931445,0.432557,-0.0294699,0
11430,-0.931171,0.432102,-0.0291916,0
11450,-0.930656,0.43162,-0.0289548,0
11470,-0.930656,0.43162,-0.0289548,0
11490,-0.93062,0.431502,-0.0288948,0
11510,-0.93062,0.431502,-0.0288948,0
11530,-0.930456,0.431491,-0.0288682,0
11550,-0.929997,0.431302,-0.028635,0
11570,-0.92921,0.431091,-0.0283488,0
11590,-0.92824,0.430601,-0.0280224,0
11610,-0.927434,0.430213,-0.027794,0
11630,-0.927137,0.429892,-0.027833,0
11650,-0.926641,0.429442,-0.027786,0
11670,-0.925997,0.428832,-0.0277589,0
11680,-0.9251,0.428669,-0.0276247,0
11700,-0.924297,0.428282,-0.0273979,0
11720,-0.923677,0.428081,-0.0271404,0
11740,-0.923186,0.427865,-0.0269204,0
11760,-0.922746,0.427709,-0.0268769,0
11780,-0.921871,0.427721,-0.026686,0
11800,-0.921104,0.427543,-0.0265902,0
11820,-0.920179,0.427495,-0.0262232,0
11840,-0.919724,0.427397,-0.0260631,0
11860,-0.919595,0.427412,-0.0260257,0
11880,-0.919595,0.427412,-0.0260257,0
11900,-0.919432,0.427401,-0.0259995,0
11910,-0.919304,0.427416,-0.0259622,0
11930,-0.919288,0.427474,-0.0258451,0
11950,-0.919018,0.427531,-0.0265179,0
11970,-0.918284,0.427659,-0.0275329,0
11990,-0.917128,0.427575,-0.028622,0
12010,-0.915545,0.427168,-0.0291664,0
12030,-0.913842,0.426558,-0.0294872,0
12050,-0.912453,0.426261,-0.0295691,0
12070,-0.911484,0.425944,-0.0297518,0
12090,-0.910636,0.425498,-0.0293532,0
12110,-0.910012,0.424952,-0.0286559,0
12130,-0.909699,0.424991,-0.0279266,0
12150,-0.910037,0.425257,-0.0274408,0
12170,-0.9107,0.425545,-0.0270074,0
12190,-0.910503,0.425325,-0.0268531,0
12210,-0.909976,0.424527,-0.0269287,0
12230,-0.908224,0.422795,-0.027329,0
12250,-0.909899,0.420065,-0.0301049,0
12270,-0.909213,0.416167,-0.0297011,0
12290,-0.898936,0.410458,-0.0281574,0
12310,-0.888238,0.404051,-0.0254344,0
12330,-0.882096,0.400176,-0.0205305,0
12350,-0.882636,0.395655,-0.01532,0
12370,-0.887882,0.386998,-0.00952444,0
12390,-0.896645,0.370586,-0.00224743,0
12410,-0.910724,0.348448,0.00441405,0
12430,-0.929748,0.322965,0.00983597,0
12450,-0.951443,0.293307,0.017302,0
12470,-0.973365,0.259087,0.0259466,0
12490,-0.989646,0.22161,0.0359883,0
12510,-1.00021,0.18171,0.04783,0
12530,-1.00682,0.137877,0.0624326,0
12550,-1.01398,0.0891807,0.0785352,0
12570,-1.02356,0.0374107,0.0949911,0
12590,-1.03509,-0.0172883,0.111869,0
12610,-1.04591,-0.0744134,0.129494,0
12630,-1.05435,-0.131416,0.147452,0
12650,-1.06006,-0.187245,0.16584,0
12670,-1.06467,-0.240412,0.184204,0
12690,-1.07153,-0.288982,0.202067,0
12710,-1.08004,-0.331221,0.218818,0
12730,-1.0898,-0.366534,0.234564,0
12750,-1.09954,-0.394926,0.247313,0
12770,-1.10831,-0.416286,0.255978,0
12790,-1.11354,-0.431628,0.261316,0
12810,-1.11633,-0.443165,0.264294,0
12830,-1.11915,-0.45036,0.265247,0
12850,-1.1218,-0.453641,0.264847,0
12870,-1.12516,-0.455206,0.264848,0
12890,-1.12885,-0.454972,0.265088,0
12910,-1.13086,-0.453376,0.264977,0
12930,-1.13012,-0.452488,0.264722,0
12950,-1.12873,-0.452717,0.264305,0
12970,-1.12855,-0.453186,0.264269,0
12990,-1.13026,-0.455009,0.264352,0
13010,-1.13232,-0.455981,0.264031,0
13030,-1.13275,-0.456238,0.26333,0
13050,-1.13146,-0.457163,0.263074,0
13070,-1.12951,-0.45814,0.262483,0
13090,-1.12785,-0.458906,0.262639,0
13110,-1.1283,-0.459953,0.263173,0
13130,-1.12947,-0.461486,0.263208,0
13150,-1.12991,-0.463527,0.261887,0
13170,-1.13042,-0.465874,0.260061,0
13190,-1.13064,-0.469661,0.257895,0
13210,-1.12989,-0.4742,0.256207,0
13230,-1.12786,-0.479881,0.254107,0
13250,-1.12653,-0.486049,0.251962,0
13260,-1.12418,-0.491365,0.249653,0
13280,-1.11972,-0.495971,0.247366,0
13300,-1.11241,-0.499691,0.244772,0
13320,-1.10192,-0.503776,0.241897,0
13340,-1.08919,-0.507532,0.238624,0
13360,-1.0757,-0.510241,0.235644,0
13380,-1.06283,-0.511299,0.233998,0
13400,-1.04986,-0.51134,0.233125,0
13420,-1.03728,-0.511687,0.233598,0
13440,-1.02584,-0.511476,0.234393,0
13460,-1.01548,-0.510461,0.236317,0
13480,-1.00639,-0.50906,0.240738,0
13500,-0.99954,-0.507865,0.246965,0
13520,-0.993542,-0.507697,0.252759,0
13540,-0.98917,-0.508765,0.256329,0
13560,-0.988376,-0.510296,0.259629,0
13580,-0.988761,-0.513605,0.262909,0
13600,-0.991288,-0.518437,0.266184,0
13620,-0.996027,-0.523145,0.268877,0
13640,-1.00102,-0.525682,0.272695,0
13660,-1.00592,-0.529519,0.275985,0
13680,-1.00898,-0.534646,0.279868,0
13700,-1.0116,-0.541169,0.282846,0
13720,-1.01424,-0.548401,0.283967,0
13740,-1.0187,-0.555052,0.284562,0
13760,-1.02404,-0.560285,0.285093,0
13780,-1.02865,-0.566231,0.284922,0
13800,-1.03312,-0.573155,0.284326,0
13820,-1.03648,-0.580078,0.284244,0
13840,-1.03951,-0.586321,0.284448,0
13860,-1.04159,-0.590897,0.28395,0
13880,-1.04163,-0.594243,0.282042,0
13900,-1.03808,-0.59694,0.279307,0
13920,-1.03027,-0.600483,0.27452,0
13930,-1.02336,-0.604397,0.269186,0
13950,-1.01912,-0.607505,0.263895,0
13970,-1.01629,-0.609599,0.258555,0
13990,-1.01136,-0.610439,0.252163,0
14010,-1.00584,-0.610403,0.246292,0
14030,-0.999851,-0.609931,0.241073,0
14050,-0.994006,-0.609317,0.235063,0
14070,-0.987734,-0.609105,0.228731,0
14090,-0.979048,-0.608059,0.218385,0
14110,-0.9755,-0.605449,0.212905,0
14130,-0.971492,-0.602422,0.207238,0
14150,-0.968013,-0.597947,0.201948,0
14170,-0.964945,-0.59216,0.198706,0
14190,-0.960673,-0.586304,0.19691,0
14210,-0.95573,-0.580922,0.195109,0
14220,-0.930103,-0.521093,0.201661,0
14230,-0.926278,-0.501956,0.20898,0
14260,-0.927933,-0.474094,0.224707,0
14280,-0.928761,-0.465321,0.230713,0
14300,-0.928043,-0.456937,0.236857,0
14320,-0.926119,-0.449392,0.24252,0
14340,-0.924386,-0.442198,0.246791,0
14360,-0.92388,-0.435316,0.251114,0
14380,-0.92567,-0.428856,0.257984,0
14400,-0.930474,-0.422885,0.266343,0
14420,-0.936703,-0.416576,0.275751,0
14440,-0.942781,-0.407551,0.285039,0
14460,-0.947074,-0.397039,0.294409,0
14480,-0.950239,-0.386159,0.30574,0
14500,-0.953942,-0.374635,0.320484,0
14520,-0.959666,-0.362049,0.337815,0
14540,-0.964739,-0.348678,0.349065,0
14560,-0.968056,-0.336552,0.354215,0
14580,-0.97169,-0.32771,0.356744,0
14600,-0.97308,-0.320547,0.358626,0
14620,-0.972215,-0.31458,0.361994,0
14640,-0.972153,-0.309486,0.367006,0
14660,-0.975566,-0.304867,0.373315,0
14680,-0.98148,-0.300806,0.378295,0
14700,-0.985756,-0.297129,0.381954,0
14720,-0.987739,-0.294351,0.383843,0
14740,-0.986943,-0.291137,0.384097,0
14760,-0.984088,-0.289342,0.383668,0
14770,-0.981536,-0.289289,0.383565,0
14790,-0.980245,-0.289415,0.382758,0
14810,-0.980896,-0.28876,0.380458,0
14830,-0.982381,-0.287137,0.378515,0
14850,-0.983464,-0.287455,0.377968,0
14870,-0.983141,-0.289029,0.376097,0
14890,-0.982115,-0.291398,0.372815,0
14910,-0.981929,-0.294177,0.370806,0
14930,-0.986368,-0.296098,0.369019,0
14950,-0.993692,-0.29869,0.368065,0
14970,-0.998367,-0.30195,0.368107,0
14990,-1.00063,-0.306625,0.367649,0
15010,-1.00339,-0.31164,0.365001,0
15030,-1.00928,-0.316593,0.360138,0
15050,-1.01638,-0.321761,0.35603,0
15070,-1.02192,-0.326965,0.35355,0
15090,-1.02541,-0.332788,0.351186,0
15110,-1.02865,-0.338311,0.347592,0
15130,-1.03388,-0.34339,0.344008,0
15150,-1.0413,-0.348134,0.340997,0
15170,-1.04864,-0.353147,0.338821,0
15190,-1.05055,-0.357726,0.33668,0
15210,-1.05128,-0.362221,0.333859,0
15230,-1.05324,-0.367549,0.330007,0
15250,-1.05665,-0.373532,0.326687,0
15270,-1.05894,-0.379187,0.324313,0
15290,-1.05987,-0.383695,0.322295,0
15320,-1.05493,-0.39214,0.318541,0
15340,-1.05168,-0.396653,0.316875,0
15360,-1.05083,-0.400787,0.31455,0
15380,-1.05141,-0.404428,0.310163,0
15400,-1.05269,-0.407429,0.303897,0
15420,-1.05434,-0.409806,0.2985,0
15440,-1.0559,-0.411436,0.295501,0
15460,-1.05657,-0.41214,0.292665,0
15480,-1.05801,-0.412517,0.288456,0
15500,-1.06182,-0.412698,0.283044,0
15520,-1.06556,-0.412952,0.278813,0
15540,-1.06986,-0.412984,0.276776,0
15560,-1.07204,-0.411859,0.275842,0
15580,-1.07132,-0.410571,0.274992,0
15600,-1.06934,-0.410079,0.273556,0
15620,-1.06664,-0.409972,0.270705,0
15640,-1.06393,-0.410048,0.266696,0
15660,-1.06154,-0.411386,0.26208,0
15670,-1.05723,-0.413384,0.257791,0
15690,-1.0534,-0.41568,0.25536,0
15720,-1.04909,-0.420576,0.254061,0
15740,-1.0481,-0.421981,0.253912,0
15760,-1.04677,-0.422895,0.253915,0
15780,-1.04532,-0.423918,0.254979,0
15800,-1.04537,-0.424507,0.256613,0
15820,-1.04449,-0.423721,0.258777,0
15840,-1.04324,-0.42296,0.261526,0
15870,-1.03896,-0.422828,0.266647,0
15890,-1.03575,-0.422677,0.269085,0
15910,-1.03137,-0.423184,0.271253,0
15930,-1.02714,-0.424274,0.272371,0
15950,-1.02359,-0.424742,0.273482,0
15960,-1.02214,-0.424431,0.275168,0
15980,-1.02311,-0.42342,0.276998,0
16000,-1.02435,-0.421943,0.278618,0
16020,-1.02454,-0.420378,0.28017,0
16040,-1.02506,-0.4191,0.281142,0
16060,-1.02581,-0.417811,0.280475,0
16070,-1.02715,-0.4172,0.280209,0
16100,-1.0344,-0.418266,0.281209,0
16120,-1.03929,-0.421368,0.281027,0
16140,-1.04683,-0.42311,0.279807,0
16160,-1.05644,-0.4239,0.278642,0
16180,-1.06539,-0.424952,0.277877,0
16200,-1.07242,-0.426427,0.277981,0
16220,-1.07632,-0.429299,0.276845,0
16240,-1.08188,-0.43095,0.274171,0
16250,-1.08825,-0.431747,0.27148,0
16270,-1.09543,-0.431876,0.269193,0
16280,-1.09857,-0.432566,0.267973,0
16300,-1.09893,-0.434551,0.266419,0
16320,-1.09835,-0.436735,0.263995,0
16340,-1.09847,-0.437416,0.261841,0
16350,-1.09799,-0.437582,0.26005,0
16370,-1.09722,-0.437342,0.25866,0
16390,-1.09526,-0.436892,0.257365,0
16410,-1.09401,-0.436361,0.256501,0
16440,-1.09505,-0.436814,0.255216,0
16460,-1.09454,-0.436185,0.254516,0
16480,-1.0936,-0.43528,0.255548,0
16500,-1.09208,-0.436053,0.256198,0
16520,-1.09117,-0.438249,0.255545,0
16540,-1.09162,-0.440574,0.25411,0
16560,-1.09312,-0.441984,0.252525,0
16580,-1.09411,-0.44338,0.251216,0
16600,-1.09447,-0.445001,0.250012,0
16620,-1.09617,-0.446472,0.248091,0
16640,-1.09774,-0.447651,0.246579,0
16660,-1.09877,-0.448987,0.246406,0
16680,-1.09887,-0.450105,0.24628,0
16700,-1.09864,-0.450589,0.246499,0
16720,-1.09707,-0.450753,0.247443,0
16740,-1.09511,-0.450818,0.24907,0
16760,-1.0933,-0.451196,0.250939,0
16780,-1.09242,-0.451256,0.252322,0
16800,-1.09266,-0.450933,0.252904,0
16820,-1.0933,-0.451177,0.253813,0
16840,-1.09353,-0.451953,0.253968,0
16860,-1.09386,-0.453428,0.254272,0
16880,-1.09467,-0.455653,0.254419,0
16900,-1.09629,-0.457504,0.254352,0
16920,-1.09923,-0.45816,0.254348,0
16940,-1.10283,-0.458333,0.254122,0
16960,-1.10516,-0.459529,0.253977,0
16980,-1.10714,-0.462653,0.254383,0
17000,-1.11047,-0.467054,0.254724,0
17020,-1.11487,-0.472086,0.255088,0
17040,-1.12011,-0.478017,0.256314,0
17060,-1.12562,-0.485225,0.258031,0
17080,-1.13166,-0.49292,0.260478,0
17100,-1.13869,-0.501484,0.263967,0
17120,-1.14828,-0.510342,0.268084,0
17140,-1.15948,-0.520202,0.27214,0
17160,-1.17131,-0.528946,0.275651,0
17180,-1.18317,-0.536725,0.27899,0
17200,-1.19437,-0.544239,0.28166,0
17220,-1.20451,-0.550695,0.283019,0
17240,-1.21429,-0.555825,0.28315,0
17260,-1.22222,-0.560726,0.282521,0
17280,-1.2291,-0.564895,0.282493,0
17300,-1.23476,-0.56865,0.282781,0
17320,-1.2396,-0.57232,0.283348,0
17340,-1.24437,-0.576403,0.284516,0
17360,-1.2475,-0.579687,0.284878,0
17380,-1.24885,-0.580427,0.284148,0
17400,-1.24967,-0.580343,0.283181,0
17420,-1.24865,-0.579379,0.280232,0
17440,-1.24636,-0.575889,0.276589,0
17460,-1.24425,-0.571484,0.274978,0
17480,-1.2426,-0.568301,0.275123,0
17500,-1.24075,-0.566319,0.275241,0
17520,-1.23946,-0.564867,0.275542,0
17540,-1.23946,-0.564121,0.276188,0
17560,-1.23946,-0.564121,0.276188,0
17580,-1.23812,-0.56327,0.27585,0
17600,-1.23728,-0.56161,0.2763,0
17620,-1.23724,-0.560082,0.27713,0
17640,-1.23821,-0.558871,0.277548,0
17660,-1.24057,-0.55718,0.277186,0
17680,-1.24433,-0.554969,0.276519,0
17700,-1.24738,-0.552378,0.275886,0
17720,-1.24889,-0.549089,0.274665,0
17740,-1.24838,-0.545761,0.272912,0
17760,-1.2471,-0.541831,0.270038,0
17780,-1.24584,-0.537655,0.266923,0
17800,-1.24446,-0.533581,0.263789,0
17820,-1.24248,-0.530781,0.261167,0
17840,-1.24121,-0.528447,0.258397,0
17860,-1.24025,-0.527,0.256503,0
17880,-1.24071,-0.525848,0.255398,0
17900,-1.24259,-0.525562,0.254426,0
17920,-1.24335,-0.524674,0.253908,0
17940,-1.24362,-0.523838,0.253725,0
17960,-1.24423,-0.5236,0.253904,0
17980,-1.24489,-0.523549,0.254071,0
18000,-1.24594,-0.522984,0.254958,0
18020,-1.24741,-0.522121,0.254704,0
18040,-1.24778,-0.521878,0.25464,0
18060,-1.24939,-0.523215,0.255417,0
18080,-1.25184,-0.524222,0.255806,0
18100,-1.25339,-0.524403,0.255251,0
18120,-1.25447,-0.524377,0.254888,0
18140,-1.25508,-0.525991,0.254744,0
18160,-1.25626,-0.52749,0.254116,0
18180,-1.25592,-0.527525,0.25357,0
18200,-1.25676,-0.5283,0.253497,0
18220,-1.25737,-0.528814,0.253039,0
18240,-1.25743,-0.529002,0.253028,0
18260,-1.25723,-0.529703,0.252707,0
18280,-1.25694,-0.530378,0.251724,0
18300,-1.25763,-0.531382,0.251042,0
18320,-1.2575,-0.532196,0.250814,0
18340,-1.25556,-0.532891,0.250782,0
18360,-1.25285,-0.533685,0.249812,0
18380,-1.25163,-0.534102,0.248625,0
18400,-1.2515,-0.533983,0.248789,0
18420,-1.25116,-0.534265,0.248844,0
18440,-1.2503,-0.534005,0.248849,0
18460,-1.24937,-0.533449,0.248865,0
18480,-1.24889,-0.532688,0.249017,0
18500,-1.2482,-0.531881,0.24914,0
18520,-1.2477,-0.531638,0.249224,0
18540,-1.24763,-0.531525,0.249132,0
18560,-1.24763,-0.531525,0.249132,0
18580,-1.24733,-0.531323,0.249363,0
18600,-1.24661,-0.530933,0.248952,0
18620,-1.24617,-0.530263,0.248281,0
18640,-1.24589,-0.529927,0.247798,0
18660,-1.2446,-0.530296,0.246878,0
18680,-1.24285,-0.530325,0.245322,0
18700,-1.24163,-0.530264,0.243647,0
18720,-1.24025,-0.529851,0.242713,0
18740,-1.23915,-0.529234,0.241416,0
18760,-1.23802,-0.528475,0.239664,0
18780,-1.23723,-0.528648,0.238162,0
18800,-1.23666,-0.528679,0.236909,0
18820,-1.23572,-0.528021,0.236125,0
18840,-1.23444,-0.527086,0.235476,0
18860,-1.23367,-0.525109,0.234551,0
18880,-1.23307,-0.522917,0.23378,0
18900,-1.23219,-0.521121,0.232808,0
18920,-1.23101,-0.51938,0.23221,0
18940,-1.22962,-0.518024,0.232423,0
18960,-1.22816,-0.51685,0.23279,0
18980,-1.2274,-0.515966,0.233093,0
18990,-1.2274,-0.515966,0.233093,0
19010,-1.22804,-0.515882,0.233263,0
19030,-1.22827,-0.515592,0.233724,0
19050,-1.22839,-0.515408,0.234238,0
19070,-1.22822,-0.515206,0.23523,0
19090,-1.22775,-0.515176,0.236131,0
19110,-1.22641,-0.515521,0.236401,0
19130,-1.22434,-0.516249,0.235873,0
19150,-1.22108,-0.51711,0.235416,0
19170,-1.21766,-0.518927,0.234495,0
19190,-1.21203,-0.520472,0.233058,0
19210,-1.20505,-0.522517,0.231665,0
19230,-1.1986,-0.52544,0.231086,0
19250,-1.19283,-0.528324,0.230659,0
19270,-1.18784,-0.530934,0.2288,0
19290,-1.18273,-0.532682,0.226496,0
19310,-1.17753,-0.534622,0.224939,0
19330,-1.17158,-0.536835,0.223709,0
19350,-1.16626,-0.539146,0.222418,0
19370,-1.16203,-0.541407,0.220379,0
19390,-1.15829,-0.543529,0.218106,0
19410,-1.15457,-0.546417,0.215326,0
19430,-1.15102,-0.549199,0.21269,0
19450,-1.14853,-0.551555,0.210859,0
19470,-1.14615,-0.553535,0.208849,0
19490,-1.14391,-0.554586,0.206666,0
19510,-1.13973,-0.555391,0.203831,0
19530,-1.13775,-0.555676,0.202133,0
19550,-1.13444,-0.555897,0.200098,0
19570,-1.12955,-0.556411,0.197591,0
19590,-1.12488,-0.558504,0.195287,0
19610,-1.12179,-0.560916,0.192947,0
19630,-1.12014,-0.562133,0.190211,0
19650,-1.11893,-0.561791,0.187343,0
19670,-1.11614,-0.560527,0.183695,0
19690,-1.11367,-0.560081,0.180597,0
19710,-1.11047,-0.560561,0.177309,0
19730,-1.10802,-0.561919,0.174686,0
19750,-1.10737,-0.563319,0.173005,0
19770,-1.10789,-0.563814,0.170718,0
19790,-1.10787,-0.563784,0.16801,0
19810,-1.10741,-0.56283,0.165205,0
19830,-1.10636,-0.562535,0.162749,0
19850,-1.10552,-0.562833,0.16087,0
19870,-1.10466,-0.563525,0.15956,0
19890,-1.10398,-0.563895,0.159378,0
19910,-1.1033,-0.564503,0.159526,0
19930,-1.10064,-0.565656,0.159948,0
19950,-1.09732,-0.566828,0.161494,0
19970,-1.09554,-0.568923,0.162509,0
19990,-1.09542,-0.570903,0.163254,0
20010,-1.09624,-0.571406,0.163557,0
20030,-1.09774,-0.572461,0.164582,0
20050,-1.09941,-0.572979,0.166997,0
20070,-1.10277,-0.572248,0.170041,0
20090,-1.10802,-0.570997,0.17202,0
20110,-1.11308,-0.568058,0.174398,0
20130,-1.1162,-0.564827,0.177415,0
20150,-1.11879,-0.561234,0.180437,0
20170,-1.11906,-0.558116,0.182825,0
20190,-1.11767,-0.55676,0.184124,0
20210,-1.11938,-0.555912,0.1855,0
20230,-1.12109,-0.553224,0.1866,0
20250,-1.12133,-0.550167,0.188397,0
20270,-1.11814,-0.548867,0.190889,0
20290,-1.11618,-0.546769,0.191553,0
20310,-1.11541,-0.546396,0.192277,0
20330,-1.1171,-0.547452,0.193797,0
20350,-1.11774,-0.54708,0.195993,0
20370,-1.11855,-0.546913,0.199399,0
20390,-1.11977,-0.546594,0.201551,0
20410,-1.12082,-0.54454,0.204093,0
20430,-1.12398,-0.542984,0.207262,0
20450,-1.12788,-0.540894,0.209609,0
20470,-1.13166,-0.537171,0.211113,0
20490,-1.13587,-0.534423,0.213543,0
20510,-1.14083,-0.532519,0.216172,0
20530,-1.14528,-0.53073,0.217259,0
20550,-1.14857,-0.529534,0.218301,0
20570,-1.15471,-0.528444,0.21846,0
20590,-1.1633,-0.527597,0.218531,0
20610,-1.17329,-0.527108,0.217966,0
20630,-1.18607,-0.527074,0.218485,0
20650,-1.19762,-0.528133,0.22056,0
20670,-1.20632,-0.528663,0.224311,0
20690,-1.21138,-0.529538,0.227757,0
20710,-1.21574,-0.530563,0.230723,0
20730,-1.22376,-0.531811,0.233489,0
20750,-1.23418,-0.533096,0.235581,0
20770,-1.24193,-0.533341,0.237435,0
20790,-1.24744,-0.53273,0.240105,0
20810,-1.24935,-0.531918,0.242354,0
20830,-1.25159,-0.531478,0.24344,0
20850,-1.25504,-0.53133,0.243787,0
20870,-1.2579,-0.530991,0.243451,0
20890,-1.26081,-0.530714,0.24368,0
20900,-1.26323,-0.530308,0.243877,2000
20930,-1.26501,-0.529782,0.244576,0
20950,-1.26666,-0.529512,0.24512,0
20970,-1.26866,-0.52908,0.245495,0
20980,-1.271,-0.529051,0.246458,0
21000,-1.27302,-0.528527,0.247399,0
21020,-1.27476,-0.52826,0.249063,0
21040,-1.27518,-0.527698,0.249876,0
21060,-1.27423,-0.527121,0.250345,0
21080,-1.27373,-0.52624,0.250598,0
21100,-1.27373,-0.52624,0.250598,0
21120,-1.27386,-0.526161,0.250996,0
21140,-1.27292,-0.525331,0.251325,0
21160,-1.27183,-0.524712,0.251855,0
21180,-1.27137,-0.523795,0.252206,0
21200,-1.27179,-0.522996,0.252415,0
21220,-1.27197,-0.523004,0.252453,0
21240,-1.27213,-0.522972,0.252498,0
21260,-1.27207,-0.522799,0.252047,0
21280,-1.27224,-0.522883,0.251981,0
21300,-1.27261,-0.523564,0.251993,0
21320,-1.27328,-0.524776,0.251932,0
21340,-1.27378,-0.52564,0.25214,0
21360,-1.27334,-0.526386,0.252401,0
21380,-1.273,-0.526966,0.252248,0
21400,-1.27281,-0.527669,0.251933,0
21420,-1.27342,-0.528253,0.251841,0
21440,-1.27342,-0.528253,0.251841,0
21460,-1.27247,-0.527707,0.251387,0
21480,-1.27186,-0.526945,0.251234,0
21500,-1.27181,-0.526873,0.251133,0
21520,-1.27235,-0.526526,0.251217,0
21540,-1.27216,-0.526125,0.251956,0
21560,-1.27076,-0.525013,0.252464,0
21580,-1.27106,-0.52383,0.253038,0
21600,-1.27176,-0.522833,0.252879,0
21620,-1.27199,-0.521931,0.252583,0
21640,-1.27195,-0.521165,0.252298,0
21660,-1.27307,-0.52062,0.252461,0
21680,-1.27389,-0.520163,0.252986,0
21700,-1.27456,-0.519398,0.252513,0
21720,-1.27471,-0.519018,0.251951,0
21740,-1.27388,-0.518719,0.252055,0
21760,-1.27314,-0.518832,0.252042,0
21780,-1.27206,-0.519162,0.251731,0
21800,-1.27131,-0.51929,0.251257,0
21820,-1.27034,-0.519324,0.251105,0
21840,-1.26925,-0.519147,0.251682,0
21860,-1.26814,-0.519123,0.25205,0
21880,-1.26723,-0.519332,0.252349,0
21900,-1.26697,-0.519997,0.253212,0
21920,-1.26747,-0.520834,0.254337,0
21940,-1.26809,-0.52149,0.255512,0
21960,-1.269,-0.521871,0.256425,0
21980,-1.27025,-0.522604,0.257106,0
22000,-1.27097,-0.522613,0.257836,0
22020,-1.27129,-0.522714,0.258634,0
22040,-1.27152,-0.523336,0.259168,0
22060,-1.27182,-0.523967,0.259444,0
22080,-1.27142,-0.523866,0.259729,0
22100,-1.27142,-0.523866,0.259729,0
22120,-1.27197,-0.523997,0.259848,0
22140,-1.27236,-0.524044,0.260033,0
22160,-1.27272,-0.524244,0.26001,0
22180,-1.27245,-0.524456,0.259916,0
22200,-1.27274,-0.524723,0.260046,0
22220,-1.27352,-0.524769,0.259597,0
22240,-1.27538,-0.525655,0.259686,0
22260,-1.27621,-0.525588,0.259438,0
22280,-1.27735,-0.525264,0.259495,0
22300,-1.27737,-0.525126,0.259241,0
22320,-1.27827,-0.525156,0.259549,0
22340,-1.2782,-0.525044,0.259454,0
22360,-1.27826,-0.525232,0.259445,0
22380,-1.27969,-0.525826,0.259003,0
22400,-1.28082,-0.526169,0.257969,0
22420,-1.2817,-0.52665,0.256946,0
22440,-1.28211,-0.528031,0.255981,0
22460,-1.28112,-0.529554,0.254464,0
22480,-1.28056,-0.530513,0.253756,0
22500,-1.28093,-0.53129,0.253208,0
22520,-1.28133,-0.532134,0.251846,0
22540,-1.28216,-0.53293,0.25041,0
22560,-1.28304,-0.533401,0.249853,0
22580,-1.28378,-0.53419,0.249503,0
22600,-1.28426,-0.535328,0.248484,0
22620,-1.28482,-0.536324,0.247418,0
22640,-1.28489,-0.536719,0.246851,0
22660,-1.2845,-0.537052,0.246349,0
22680,-1.2833,-0.537501,0.245618,0
22700,-1.28207,-0.537545,0.244745,0
22720,-1.28135,-0.537458,0.244111,0
22740,-1.28031,-0.536255,0.243158,0
22760,-1.27998,-0.534854,0.242587,0
22780,-1.27896,-0.533655,0.242554,0
22800,-1.27742,-0.532725,0.242541,0
22820,-1.27737,-0.532095,0.242507,0
22840,-1.27737,-0.532095,0.242507,0
22860,-1.2779,-0.533225,0.241689,0
22880,-1.27851,-0.533893,0.241496,0
22900,-1.27844,-0.534339,0.241333,0
22920,-1.27783,-0.535148,0.24062,0
22940,-1.27685,-0.535575,0.239681,0
22960,-1.27586,-0.535696,0.238952,0
22980,-1.275,-0.535323,0.237774,0
23000,-1.27436,-0.534822,0.236382,0
23020,-1.27459,-0.533921,0.236089,0
23040,-1.27393,-0.533081,0.235833,0
23060,-1.27387,-0.532892,0.235844,0
23080,-1.27441,-0.532566,0.23547,0
23100,-1.27539,-0.532001,0.23524,0
23120,-1.27587,-0.531106,0.235192,0
23140,-1.27564,-0.531024,0.235051,0
23160,-1.27466,-0.531049,0.234892,0
23180,-1.27457,-0.531614,0.235442,0
23200,-1.27447,-0.53218,0.235992,0
23220,-1.27412,-0.532438,0.236509,0
23240,-1.27342,-0.532777,0.237297,0
23260,-1.27241,-0.533101,0.238096,0
23280,-1.27205,-0.533405,0.239433,0
23300,-1.27241,-0.533274,0.240548,0
23320,-1.2738,-0.532303,0.241839,0
23340,-1.2749,-0.531063,0.242998,0
23360,-1.27613,-0.529564,0.244308,0
23380,-1.27651,-0.52866,0.24534,0
23400,-1.27648,-0.527876,0.245514,0
23420,-1.27582,-0.526423,0.244971,0
23440,-1.27475,-0.525295,0.245098,0
23460,-1.27345,-0.524452,0.245235,0
23480,-1.27279,-0.524057,0.245026,0
23500,-1.27204,-0.523627,0.244619,0
23520,-1.27118,-0.523478,0.244513,0
23540,-1.27069,-0.523138,0.245161,0
23560,-1.27052,-0.523215,0.245933,0
23580,-1.27099,-0.523461,0.247021,0
23600,-1.27164,-0.523346,0.248118,0
23620,-1.27246,-0.523238,0.249253,0
23640,-1.2736,-0.523321,0.250621,0
23660,-1.27432,-0.5233,0.252274,0
23680,-1.27428,-0.522728,0.253974,0
23700,-1.27471,-0.521683,0.256125,0
23720,-1.2748,-0.520649,0.258653,0
23740,-1.27491,-0.51967,0.260711,0
23760,-1.27502,-0.518529,0.262061,0
23780,-1.27439,-0.518061,0.263333,0
23800,-1.27385,-0.518509,0.26489,0
23820,-1.27291,-0.519118,0.265589,0
23840,-1.27171,-0.519762,0.265948,0
23860,-1.27046,-0.520948,0.266611,0
23880,-1.26873,-0.523562,0.267155,0
23900,-1.26699,-0.526387,0.266669,0
23920,-1.26491,-0.528952,0.265843,0
23940,-1.26366,-0.531357,0.265331,0
23960,-1.26172,-0.533891,0.264541,0
23980,-1.25942,-0.536239,0.263303,0
24000,-1.25772,-0.537906,0.262199,0
24020,-1.2562,-0.53927,0.261462,0
24040,-1.25486,-0.540566,0.260867,0
24060,-1.253,-0.54164,0.259421,0
24080,-1.2513,-0.541986,0.257372,0
24100,-1.24937,-0.542683,0.255686,0
24120,-1.24713,-0.543561,0.25379,0
24140,-1.24417,-0.544045,0.251124,0
24160,-1.24158,-0.544398,0.248283,0
24180,-1.23916,-0.545313,0.245054,0
24200,-1.23468,-0.547055,0.239961,0
24220,-1.22892,-0.548622,0.234458,0
24240,-1.2226,-0.55067,0.228628,0
24260,-1.2164,-0.553191,0.222282,0
24280,-1.21034,-0.556333,0.215405,0
24300,-1.20392,-0.559182,0.207702,0
24320,-1.19685,-0.561597,0.19977,0
24340,-1.18904,-0.563903,0.191543,0
24360,-1.18155,-0.565969,0.182681,0
24380,-1.17383,-0.567687,0.173314,0
24400,-1.16497,-0.569248,0.16337,0
24410,-1.15678,-0.570809,0.15348,0
24430,-1.14887,-0.57208,0.143241,0
24450,-1.14256,-0.572385,0.133531,0
24470,-1.13699,-0.572757,0.123747,0
24490,-1.13138,-0.572537,0.114149,0
24510,-1.12632,-0.571961,0.104486,0
24530,-1.12062,-0.572124,0.0941298,0
24550,-1.1157,-0.573088,0.0836117,0
24570,-1.11177,-0.574435,0.0726375,0
24590,-1.10828,-0.576157,0.0608612,0
24610,-1.10399,-0.578352,0.0485461,0
24630,-1.10048,-0.580787,0.0370108,0
24650,-1.09703,-0.583461,0.0255189,0
24670,-1.09384,-0.585758,0.0141827,0
24690,-1.09054,-0.58846,0.00212319,0
24710,-1.0876,-0.591034,-0.0106485,0
24730,-1.08483,-0.593733,-0.0238671,0
24750,-1.08266,-0.596344,-0.0367448,0
24770,-1.07909,-0.598659,-0.0504119,0
24790,-1.07557,-0.601169,-0.0643879,0
24800,-1.07214,-0.603687,-0.0784148,0
24820,-1.06889,-0.605813,-0.0917594,0
24840,-1.06532,-0.608115,-0.104821,0
24860,-1.06182,-0.610414,-0.118149,0
24880,-1.05853,-0.613055,-0.132,0
24900,-1.05441,-0.615623,-0.146131,0
24920,-1.05005,-0.618194,-0.160671,0
24940,-1.04541,-0.620806,-0.175723,0
24960,-1.04109,-0.623445,-0.190253,0
24980,-1.03599,-0.626744,-0.205106,0
25000,-1.03148,-0.63012,-0.22013,0
25020,-1.02693,-0.633726,-0.235146,0
25040,-1.02142,-0.63703,-0.250963,0
25060,-1.01552,-0.640042,-0.267083,0
25080,-1.00946,-0.642602,-0.283611,0
25100,-0.995216,-0.648827,-0.316896,0
25120,-0.987684,-0.652054,-0.332823,0
25140,-0.980564,-0.654796,-0.348312,0
25160,-0.972741,-0.657557,-0.364152,0
25180,-0.965332,-0.660576,-0.380081,0
25200,-0.958892,-0.663425,-0.394466,0
25220,-0.953043,-0.665941,-0.407244,0
25240,-0.94846,-0.668525,-0.418634,0
25260,-0.943268,-0.670446,-0.429804,0
25280,-0.939854,-0.671892,-0.439773,0
25300,-0.938375,-0.67231,-0.448107,0
25320,-0.937754,-0.671925,-0.455483,0
25340,-0.936349,-0.671487,-0.461238,0
25360,-0.935167,-0.671269,-0.465467,0
25380,-0.934859,-0.670939,-0.469399,0
25400,-0.935145,-0.670379,-0.473023,0
25420,-0.93671,-0.668963,-0.475487,0
25440,-0.937494,-0.666954,-0.477448,0
25460,-0.93743,-0.664593,-0.479129,0
25480,-0.937188,-0.660922,-0.480634,0
25500,-0.93695,-0.656215,-0.481814,0
25520,-0.938264,-0.650981,-0.481987,0
25540,-0.938724,-0.645551,-0.482386,0
25560,-0.938172,-0.639712,-0.483549,0
25580,-0.938249,-0.633701,-0.484225,0
25600,-0.937988,-0.62829,-0.48466,0
25620,-0.936329,-0.623268,-0.485269,0
25640,-0.933036,-0.618897,-0.486624,0
25660,-0.929982,-0.614895,-0.488204,0
25680,-0.927565,-0.612327,-0.488633,0
25700,-0.924899,-0.610207,-0.488205,0
25720,-0.922604,-0.608761,-0.487487,0
25740,-0.919188,-0.607209,-0.487582,0
25760,-0.91671,-0.605106,-0.487319,0
25780,-0.914862,-0.602805,-0.486237,0
25800,-0.913483,-0.600732,-0.484198,0
25820,-0.911743,-0.598618,-0.481823,0
25840,-0.910661,-0.596166,-0.479104,0
25860,-0.910107,-0.593512,-0.476452,0
25880,-0.910567,-0.590383,-0.472934,0
25900,-0.911623,-0.586871,-0.468331,0
25920,-0.912706,-0.58271,-0.463325,0
25940,-0.914515,-0.578699,-0.458081,0
25960,-0.917067,-0.574806,-0.452834,0
25980,-0.919585,-0.570121,-0.447207,0
26000,-0.921347,-0.565641,-0.441153,0
26020,-0.922814,-0.56044,-0.435557,0
26040,-0.92409,-0.554641,-0.43028,0
26060,-0.924836,-0.548262,-0.424797,0
26080,-0.925362,-0.541822,-0.418819,0
26100,-0.925214,-0.535855,-0.413099,0
26120,-0.924987,-0.529986,-0.407293,0
26140,-0.924891,-0.523469,-0.401261,0
26160,-0.925587,-0.516244,-0.393912,0
26180,-0.92672,-0.508929,-0.385894,0
26200,-0.9277,-0.501519,-0.377505,0
26220,-0.929215,-0.494176,-0.369191,0
26240,-0.931126,-0.48761,-0.360822,0
26260,-0.933625,-0.481245,-0.351987,0
26280,-0.936038,-0.475178,-0.343532,0
26300,-0.938273,-0.469753,-0.33483,0
26320,-0.939986,-0.464706,-0.326346,0
26340,-0.941936,-0.460742,-0.318456,0
26350,-0.944385,-0.45706,-0.311137,0
26370,-0.945696,-0.455088,-0.304213,0
26390,-0.946709,-0.455465,-0.296596,0
26410,-0.947355,-0.457468,-0.289604,0
26430,-0.947167,-0.459308,-0.283214,0
26450,-0.948837,-0.461409,-0.27643,0
26470,-0.951713,-0.464287,-0.269492,0
26490,-0.955621,-0.46647,-0.26235,0
26510,-0.958957,-0.468204,-0.255725,0
26530,-0.963686,-0.4703,-0.248639,0
26550,-0.967927,-0.471757,-0.241924,0
26570,-0.970721,-0.472142,-0.235981,0
26590,-0.974133,-0.474203,-0.230282,0
26610,-0.9763,-0.475428,-0.224899,0
26630,-0.977205,-0.47607,-0.220035,0
26650,-0.978391,-0.47606,-0.215154,0
26670,-0.979536,-0.476393,-0.211429,0
26690,-0.981682,-0.475817,-0.207694,0
26710,-0.984039,-0.475067,-0.203568,0
26730,-0.984569,-0.474808,-0.198538,0
26750,-0.983615,-0.474563,-0.193625,0
26770,-0.982489,-0.474369,-0.18886,0
26790,-0.981721,-0.475517,-0.184066,0
26810,-0.980077,-0.476906,-0.178759,0
26830,-0.978524,-0.477981,-0.172307,0
26850,-0.977001,-0.478537,-0.166419,0
26870,-0.975622,-0.48009,-0.159953,0
26890,-0.974132,-0.481883,-0.154462,0
26910,-0.971523,-0.481867,-0.149684,0
26930,-0.969826,-0.48204,-0.143855,0
26950,-0.97092,-0.482583,-0.138179,0
26970,-0.972232,-0.481883,-0.13326,0
26990,-0.974049,-0.4818,-0.128014,0
27010,-0.976671,-0.481618,-0.123092,0
27030,-0.97802,-0.480264,-0.117773,0
27050,-0.980901,-0.479434,-0.112125,0
27070,-0.985559,-0.479209,-0.106495,0
27090,-0.989869,-0.478308,-0.102125,0
27110,-0.994488,-0.477909,-0.0972969,0
27130,-0.999549,-0.477237,-0.0923773,0
27150,-1.00391,-0.47626,-0.0871763,0
27170,-1.00706,-0.475548,-0.0818333,0
27190,-1.00968,-0.474991,-0.0761965,0
27210,-1.01224,-0.474575,-0.0698154,0
27230,-1.01468,-0.474184,-0.0632834,0
27250,-1.01674,-0.473924,-0.055858,0
27270,-1.02047,-0.474376,-0.0474279,0
27290,-1.02464,-0.475571,-0.0387206,0
27310,-1.02875,-0.476739,-0.0302845,0
27330,-1.0351,-0.477181,-0.0220314,0
27350,-1.04088,-0.477019,-0.0129347,0
27370,-1.04473,-0.477326,-0.00370032,0
27390,-1.04799,-0.477208,0.00558779,0
27410,-1.052,-0.477296,0.0141671,0
27430,-1.0558,-0.478115,0.0213997,0
27450,-1.05974,-0.479084,0.0288915,0
27470,-1.06501,-0.480589,0.0372162,0
27490,-1.06957,-0.482305,0.0459734,0
27510,-1.0736,-0.48445,0.0556053,0
27530,-1.07896,-0.487773,0.0652628,0
27550,-1.08466,-0.49096,0.0746215,0
27570,-1.09126,-0.493506,0.0835141,0
27590,-1.09811,-0.495485,0.0920777,0
27610,-1.10466,-0.497631,0.101266,0
27630,-1.11077,-0.500887,0.110482,0
27650,-1.11584,-0.50468,0.11908,0
27670,-1.12099,-0.508628,0.127489,0
27690,-1.1261,-0.512992,0.135387,0
27710,-1.12992,-0.516975,0.142973,0
27730,-1.13375,-0.521231,0.150154,0
27750,-1.13642,-0.525878,0.156996,0
27770,-1.13931,-0.530687,0.164152,0
27790,-1.14227,-0.536009,0.17098,0
27810,-1.14586,-0.541402,0.178072,0
27830,-1.15079,-0.546331,0.184895,0
27850,-1.15491,-0.551566,0.191114,0
27870,-1.15857,-0.557142,0.197269,0
27890,-1.16273,-0.562931,0.204118,0
27910,-1.16701,-0.568643,0.21114,0
27930,-1.1707,-0.574603,0.216977,0
27950,-1.17411,-0.580298,0.22327,0
27970,-1.17796,-0.585707,0.230056,0
27990,-1.18101,-0.591554,0.235364,0
28010,-1.18431,-0.597296,0.240887,0
28030,-1.18833,-0.603743,0.24672,0
28050,-1.1912,-0.610177,0.251427,0
28070,-1.19387,-0.616374,0.255298,0
28090,-1.19616,-0.62202,0.258237,0
28110,-1.19834,-0.627257,0.26112,0
28130,-1.19992,-0.632108,0.26427,0
28150,-1.2018,-0.637771,0.267033,0
28170,-1.20336,-0.644298,0.268934,0
28190,-1.20547,-0.650748,0.270019,0
28210,-1.20795,-0.656734,0.27005,0
28230,-1.20911,-0.662227,0.269574,0
28250,-1.21002,-0.668342,0.268651,0
28270,-1.20996,-0.674521,0.267226,0
28290,-1.21081,-0.680821,0.265595,0
28310,-1.21206,-0.687008,0.262912,0
28330,-1.21231,-0.692811,0.258225,0
28350,-1.21248,-0.697621,0.252788,0
28370,-1.21168,-0.701996,0.246597,0
28390,-1.21099,-0.706527,0.239862,0
28410,-1.21038,-0.711836,0.233021,0
28430,-1.20998,-0.717004,0.225011,0
28450,-1.20881,-0.722167,0.215303,0
28470,-1.20669,-0.726753,0.204674,0
28490,-1.20373,-0.731884,0.193797,0
28510,-1.20141,-0.737842,0.182323,0
28530,-1.19938,-0.743074,0.169997,0
28550,-1.19542,-0.747226,0.155971,0
28570,-1.19075,-0.75148,0.141584,0
28590,-1.18644,-0.756263,0.126922,0
28610,-1.18111,-0.760931,0.111483,0
28630,-1.17499,-0.765367,0.0953859,0
28650,-1.16747,-0.770749,0.0791192,0
28670,-1.16064,-0.777329,0.0621122,0
28690,-1.15372,-0.783972,0.0445777,0
28710,-1.14666,-0.790278,0.0270781,0
28730,-1.13957,-0.796122,0.00943542,0
28750,-1.13185,-0.801404,-0.00775653,0
28770,-1.12521,-0.806696,-0.0241768,0
28790,-1.11935,-0.81136,-0.0405921,0
28810,-1.11231,-0.815484,-0.0583037,0
28830,-1.10555,-0.819147,-0.076248,0
28850,-1.09959,-0.822323,-0.0936114,0
28870,-1.09298,-0.825446,-0.110093,0
28890,-1.08586,-0.829011,-0.126648,0
28910,-1.07873,-0.832981,-0.142994,0
28930,-1.07256,-0.83689,-0.158844,0
28950,-1.06641,-0.840709,-0.174888,0
28970,-1.06026,-0.844462,-0.189898,0
28990,-1.05488,-0.848263,-0.202419,0
29010,-1.04892,-0.85297,-0.213116,0
29030,-1.04412,-0.857907,-0.22382,0
29050,-1.04023,-0.862483,-0.235176,0
29070,-1.03766,-0.866507,-0.24611,0
29090,-1.03629,-0.871246,-0.255981,0
29110,-1.03327,-0.875796,-0.266103,0
29130,-1.02875,-0.880369,-0.277002,0
29150,-1.02442,-0.885251,-0.288823,0
29170,-1.01966,-0.889447,-0.301344,0
29190,-1.01493,-0.893212,-0.313686,0
29210,-1.01011,-0.896065,-0.32587,0
29230,-1.00537,-0.898201,-0.338108,0
29250,-1.00059,-0.898298,-0.349768,0
29270,-0.997213,-0.897145,-0.359653,0
29290,-0.992762,-0.895021,-0.368694,0
29310,-0.987266,-0.892247,-0.377416,0
29330,-0.982046,-0.888798,-0.386329,0
29350,-0.977982,-0.885266,-0.395541,0
29370,-0.975714,-0.880056,-0.402379,0
29390,-0.97399,-0.873086,-0.407348,0
29410,-0.971168,-0.866415,-0.411114,0
29430,-0.967679,-0.860345,-0.413371,0
29450,-0.964879,-0.854211,-0.415256,0
29470,-0.964581,-0.84661,-0.41681,0
29490,-0.966211,-0.83779,-0.416135,0
29510,-0.969185,-0.828414,-0.412558,0
29530,-0.970645,-0.819981,-0.407437,0
29550,-0.97074,-0.812565,-0.400735,0
29570,-0.971354,-0.806485,-0.394696,0
29590,-0.973625,-0.801378,-0.389915,0
29610,-0.978274,-0.795945,-0.384457,0
29630,-0.984226,-0.788986,-0.377317,0
29650,-0.989188,-0.782036,-0.368192,0
29670,-0.990915,-0.778179,-0.358552,0
29690,-0.991115,-0.775523,-0.351192,0
29710,-0.992333,-0.772428,-0.347149,0
29730,-0.997231,-0.768222,-0.341594,0
29750,-1.00403,-0.761576,-0.334234,0
29770,-1.00736,-0.755095,-0.325441,0
29780,-1.00628,-0.750555,-0.31822,0
29800,-1.00363,-0.745972,-0.313831,0
29820,-1.00354,-0.741138,-0.310158,0
29840,-1.00641,-0.736104,-0.305601,0
29860,-1.00981,-0.73038,-0.301065,0
29880,-1.01183,-0.724453,-0.296284,0
29900,-1.01342,-0.718571,-0.291346,0
29920,-1.01546,-0.713397,-0.286123,0
29940,-1.01828,-0.708256,-0.281263,0
29960,-1.02229,-0.702405,-0.276278,0
29980,-1.02753,-0.695646,-0.270112,0
30000,-1.03152,-0.688465,-0.262763,0
30020,-1.03528,-0.681911,-0.253451,0
30040,-1.0394,-0.676991,-0.244283,0
30060,-1.04382,-0.672231,-0.236007,0
30080,-1.05022,-0.666551,-0.22696,0
30100,-1.05806,-0.661457,-0.216805,0
30120,-1.06393,-0.657537,-0.206278,0
30140,-1.06806,-0.654709,-0.196283,0
30160,-1.07249,-0.653096,-0.186737,0
30180,-1.0777,-0.650929,-0.177421,0
30200,-1.08347,-0.648384,-0.167539,0
30220,-1.08789,-0.646013,-0.157663,0
30240,-1.09204,-0.643567,-0.147601,0
30260,-1.0957,-0.641008,-0.137621,0
30280,-1.09939,-0.638195,-0.127975,0
30300,-1.10324,-0.635528,-0.11878,0
30320,-1.10763,-0.632625,-0.109751,0
30340,-1.11144,-0.629584,-0.100548,0
30360,-1.11516,-0.626913,-0.0913014,0
30380,-1.11848,-0.624772,-0.0826121,0
30400,-1.1231,-0.623742,-0.0733254,0
30420,-1.12805,-0.622682,-0.0639242,0
30440,-1.13269,-0.621686,-0.0552421,0
30460,-1.13686,-0.620542,-0.0468158,0
30480,-1.14098,-0.619875,-0.0384597,0
30500,-1.14455,-0.618927,-0.0298826,0
30520,-1.14782,-0.618393,-0.0216003,0
30540,-1.15177,-0.617651,-0.0128301,0
30560,-1.15613,-0.616456,-0.00417166,0
30580,-1.16018,-0.613922,0.00496249,0
30600,-1.16491,-0.611793,0.0159697,0
30620,-1.16954,-0.611258,0.0282334,0
30640,-1.17395,-0.610003,0.0402984,0
30660,-1.17844,-0.608962,0.0529134,0
30680,-1.18316,-0.608482,0.0651859,0
30700,-1.18892,-0.609069,0.0772768,0
30720,-1.19881,-0.612864,0.101585,0
30740,-1.20195,-0.615459,0.113404,0
30760,-1.20628,-0.618618,0.125673,0
30780,-1.21155,-0.622089,0.137606,0
30800,-1.21683,-0.625274,0.149513,0
30820,-1.22187,-0.628471,0.160896,0
30840,-1.22646,-0.631874,0.172327,0
30860,-1.2317,-0.636249,0.184401,0
30880,-1.2375,-0.642244,0.196312,0
30900,-1.2441,-0.647867,0.207825,0
30920,-1.25197,-0.653026,0.219516,0
30940,-1.26114,-0.658248,0.231663,0
30960,-1.27083,-0.664218,0.244454,0
30980,-1.27943,-0.670429,0.256283,0
31000,-1.28795,-0.677913,0.266833,0
31020,-1.29652,-0.685307,0.276856,0
31040,-1.30388,-0.693228,0.285837,0
31060,-1.31047,-0.702005,0.294493,0
31080,-1.31697,-0.710736,0.302367,0
31100,-1.32276,-0.719257,0.309331,0
31120,-1.32821,-0.727375,0.316376,0
31140,-1.33347,-0.736779,0.322966,0
31160,-1.33839,-0.746142,0.328674,0
31180,-1.3447,-0.755977,0.333914,0
31200,-1.35124,-0.765329,0.338585,0
31220,-1.3574,-0.773792,0.342488,0
31240,-1.36273,-0.781864,0.345932,0
31260,-1.36698,-0.790064,0.348343,0
31280,-1.37066,-0.797164,0.350285,0
31300,-1.3749,-0.804719,0.351545,0
31320,-1.37847,-0.81246,0.351309,0
31340,-1.38087,-0.818999,0.349977,0
31360,-1.38273,-0.825006,0.348741,0
31380,-1.38365,-0.832308,0.346674,0
31400,-1.38257,-0.840763,0.342943,0
31420,-1.38188,-0.849397,0.337625,0
31440,-1.38335,-0.857651,0.33151,0
31460,-1.38331,-0.86482,0.324863,0
31480,-1.38082,-0.871911,0.317228,0
31500,-1.37633,-0.879172,0.308877,0
31520,-1.37146,-0.887317,0.299684,0
31540,-1.36752,-0.895976,0.28936,0
31560,-1.36509,-0.903817,0.278351,0
31580,-1.36277,-0.910936,0.26735,0
31600,-1.35958,-0.917833,0.25622,0
31620,-1.35491,-0.926509,0.244824,0
31640,-1.35112,-0.936409,0.233362,0
31660,-1.34867,-0.946071,0.221865,0
31680,-1.34667,-0.955783,0.210006,0
31700,-1.34369,-0.965372,0.198078,0
31720,-1.33906,-0.975849,0.184402,0
31740,-1.3326,-0.986433,0.168766,0
31750,-1.32633,-0.996469,0.152275,0
31770,-1.31926,-1.00493,0.134397,0
31790,-1.31036,-1.01258,0.11587,0
31810,-1.2988,-1.01931,0.0954584,0
31830,-1.28708,-1.02612,0.0735278,0
31850,-1.27325,-1.03194,0.0493518,0
31870,-1.25847,-1.0367,0.0250121,0
31890,-1.24254,-1.04096,-6.40415e-05,0
31910,-1.2259,-1.04445,-0.0243192,0
31930,-1.20961,-1.04813,-0.047946,0
31950,-1.19314,-1.0514,-0.071209,0
31970,-1.17761,-1.05414,-0.0940983,0
31990,-1.16264,-1.05605,-0.116437,0
32010,-1.14848,-1.05742,-0.138124,0
32030,-1.13525,-1.05662,-0.158399,0
32050,-1.12167,-1.0541,-0.178123,0
32070,-1.1084,-1.05117,-0.196121,0
32090,-1.09541,-1.04886,-0.213743,0
32110,-1.08424,-1.0462,-0.229933,0
32130,-1.07567,-1.04421,-0.24469,0
32150,-1.06892,-1.04273,-0.257264,0
32170,-1.06335,-1.04142,-0.267799,0
32190,-1.05782,-1.03946,-0.277327,0
32210,-1.05266,-1.03796,-0.286298,0
32230,-1.04777,-1.03642,-0.295086,0
32250,-1.04354,-1.03413,-0.30366,0
32270,-1.04006,-1.0304,-0.31191,0
32290,-1.03732,-1.02515,-0.319148,0
32310,-1.03342,-1.01844,-0.325392,0
32330,-1.02903,-1.01098,-0.331246,0
32350,-1.02517,-1.00418,-0.337256,0
32370,-1.02268,-0.996791,-0.342761,0
32390,-1.02048,-0.988819,-0.348076,0
32410,-1.01816,-0.981121,-0.352655,0
32430,-1.01499,-0.974644,-0.356833,0
32450,-1.01242,-0.968835,-0.360652,0
32470,-1.01069,-0.962825,-0.364246,0
32490,-1.0104,-0.956752,-0.366674,0
32510,-1.0099,-0.950633,-0.369902,0
32530,-1.00946,-0.944458,-0.372247,0
32550,-1.00899,-0.938434,-0.374348,0
32570,-1.00965,-0.931463,-0.375546,0
32590,-1.01105,-0.923625,-0.376012,0
32610,-1.01288,-0.916449,-0.375773,0
32630,-1.01328,-0.909278,-0.376054,0
32650,-1.01415,-0.901874,-0.375622,0
32670,-1.01582,-0.894544,-0.375466,0
32690,-1.01752,-0.887392,-0.374352,0
32710,-1.01873,-0.879541,-0.37341,0
32730,-1.01925,-0.871772,-0.373077,0
32750,-1.02044,-0.863662,-0.371959,0
32770,-1.02146,-0.855604,-0.370535,0
32790,-1.02341,-0.847427,-0.368782,0
32810,-1.02518,-0.838221,-0.366421,0
32830,-1.02702,-0.828913,-0.363618,0
32850,-1.029,-0.820615,-0.360188,0
32870,-1.03158,-0.81205,-0.356649,0
32890,-1.03477,-0.802957,-0.35307,0
32910,-1.0384,-0.794792,-0.349067,0
32930,-1.04107,-0.786693,-0.345532,0
32950,-1.04328,-0.778818,-0.342685,0
32970,-1.04526,-0.771307,-0.340094,0
32990,-1.0479,-0.764145,-0.336213,0
33010,-1.05044,-0.757161,-0.332482,0
33030,-1.05161,-0.75072,-0.329517,0
33050,-1.05319,-0.744842,-0.325992,0
33070,-1.05615,-0.739733,-0.322197,0
33090,-1.05957,-0.733985,-0.318062,0
33110,-1.06318,-0.727917,-0.313555,0
33130,-1.06651,-0.721323,-0.308889,0
33150,-1.0701,-0.714663,-0.303754,0
33170,-1.07361,-0.708062,-0.298793,0
33190,-1.07705,-0.701082,-0.293299,0
33210,-1.08117,-0.6944,-0.287699,0
33230,-1.08515,-0.688388,-0.282108,0
33250,-1.08811,-0.682949,-0.276133,0
33270,-1.09118,-0.678174,-0.270007,0
33290,-1.0954,-0.674602,-0.263573,0
33310,-1.09968,-0.670967,-0.257025,0
33330,-1.10419,-0.668158,-0.249618,0
33350,-1.10924,-0.666497,-0.24098,0
33370,-1.11472,-0.666178,-0.231945,0
33390,-1.12052,-0.665733,-0.222841,0
33410,-1.12742,-0.666555,-0.213358,0
33430,-1.13499,-0.667608,-0.203277,0
33450,-1.14269,-0.668243,-0.192798,0
33470,-1.14974,-0.66859,-0.182268,0
33490,-1.15594,-0.669972,-0.172155,0
33510,-1.16379,-0.671517,-0.162036,0
33530,-1.17259,-0.672373,-0.151669,0
33550,-1.1797,-0.673191,-0.141844,0
33570,-1.18555,-0.674461,-0.132837,0
33590,-1.192,-0.675492,-0.123487,0
33610,-1.20052,-0.6755,-0.114072,0
33630,-1.20889,-0.675219,-0.104596,0
33650,-1.21607,-0.674689,-0.0957819,0
33670,-1.22242,-0.674465,-0.0869073,0
33690,-1.22901,-0.674888,-0.0782431,0
33710,-1.23607,-0.675105,-0.070472,0
33730,-1.24339,-0.674902,-0.0622845,0
33750,-1.25084,-0.674781,-0.0537806,0
33770,-1.2585,-0.674642,-0.045667,0
33790,-1.26647,-0.675094,-0.0376468,0
33810,-1.27488,-0.675472,-0.0298462,0
33830,-1.28242,-0.675753,-0.0227124,0
33850,-1.28882,-0.676005,-0.0155758,0
33870,-1.29489,-0.676788,-0.00844152,0
33890,-1.30182,-0.678105,-0.00129646,0
33910,-1.30923,-0.679496,0.00610461,0
33930,-1.31751,-0.680665,0.0142614,0
33950,-1.32566,-0.682315,0.0223692,0
33970,-1.33307,-0.683695,0.0294601,0
33990,-1.34055,-0.68503,0.0361976,0
34010,-1.34823,-0.686718,0.0435654,0
34030,-1.35518,-0.688606,0.0512728,0
34050,-1.36135,-0.690704,0.0592699,0
34070,-1.36769,-0.693142,0.066872,0
34090,-1.37501,-0.695347,0.074462,0
34110,-1.38389,-0.69697,0.083437,0
34130,-1.39155,-0.698712,0.0924572,0
34150,-1.39766,-0.70097,0.101173,0
34170,-1.40404,-0.703747,0.109971,0
34190,-1.41202,-0.706875,0.118856,0
34210,-1.42076,-0.709562,0.127404,0
34230,-1.42891,-0.711521,0.136225,0
34250,-1.43593,-0.713943,0.145374,0
34270,-1.44266,-0.717109,0.154992,0
34290,-1.4489,-0.721253,0.163575,0
34310,-1.45521,-0.725443,0.170916,0
34330,-1.46138,-0.729736,0.178092,0
34350,-1.46787,-0.73384,0.18521,0
34370,-1.47397,-0.737264,0.19235,0
34390,-1.47831,-0.740873,0.20023,0
34410,-1.48264,-0.745835,0.208486,0
34430,-1.48811,-0.751404,0.216221,0
34450,-1.4959,-0.756154,0.224343,0
34470,-1.50483,-0.760394,0.232966,0
34490,-1.51308,-0.764363,0.241677,0
34510,-1.52065,-0.768475,0.250462,0
34530,-1.53009,-0.772394,0.259828,0
34550,-1.54076,-0.775675,0.268602,0
34570,-1.55219,-0.778574,0.276973,0
34590,-1.56492,-0.781147,0.285246,0
34610,-1.57559,-0.781407,0.292408,0
34630,-1.58441,-0.781257,0.300453,0
34650,-1.59164,-0.783132,0.309425,0
34670,-1.59897,-0.787042,0.318003,0
34690,-1.60857,-0.791106,0.325555,0
34710,-1.61935,-0.794817,0.332748,0
34730,-1.62917,-0.799111,0.339847,0
34750,-1.63645,-0.804189,0.346848,0
34770,-1.64219,-0.809944,0.35386,0
34790,-1.64879,-0.816013,0.361318,0
34810,-1.65593,-0.82184,0.368787,0
34830,-1.6625,-0.826456,0.375446,0
34850,-1.66724,-0.830817,0.38162,0
34870,-1.67225,-0.835737,0.388847,0
34890,-1.67736,-0.840548,0.39625,0
34910,-1.68298,-0.845297,0.402885,0
34930,-1.68899,-0.849525,0.409797,0
34950,-1.6943,-0.854217,0.416672,0
34970,-1.70098,-0.859407,0.424145,0
34990,-1.70928,-0.865009,0.431087,0
35010,-1.71921,-0.869593,0.437588,0
35030,-1.73076,-0.872339,0.445018,0
35050,-1.73839,-0.87441,0.45037,0
35070,-1.74357,-0.876796,0.455324,0
35090,-1.74947,-0.880161,0.462215,0
35110,-1.75405,-0.883788,0.467453,0
35130,-1.75775,-0.887748,0.470891,0
35150,-1.76102,-0.891379,0.473784,0
35160,-1.76522,-0.895116,0.477147,0
35180,-1.76878,-0.898551,0.480208,0
35200,-1.77088,-0.901773,0.482356,0
35220,-1.77303,-0.905681,0.485194,0
35240,-1.77514,-0.909868,0.487612,0
35260,-1.77808,-0.914405,0.490104,0
35280,-1.78051,-0.918342,0.491125,0
35300,-1.78083,-0.922507,0.492054,0
35320,-1.78092,-0.92782,0.493044,0
35340,-1.78162,-0.933469,0.493223,0
35360,-1.78315,-0.938052,0.493496,0
35380,-1.78303,-0.941815,0.492669,0
35400,-1.78117,-0.944906,0.49191,0
35420,-1.77919,-0.948572,0.49165,0
35440,-1.77949,-0.953083,0.491417,0
35460,-1.78085,-0.9568,0.490863,0
35480,-1.78152,-0.959385,0.490195,0
35500,-1.78077,-0.96251,0.489607,0
35520,-1.7807,-0.966827,0.490788,0
35540,-1.78171,-0.972337,0.491868,0
35560,-1.78391,-0.97836,0.492259,0
35580,-1.78651,-0.984204,0.492714,0
35600,-1.7891,-0.989332,0.493973,0
35620,-1.79048,-0.993611,0.4952,0
35640,-1.79237,-0.997927,0.497849,2001
35660,-1.79363,-1.00295,0.499832,0
35680,-1.79443,-1.00713,0.500705,0
35700,-1.79778,-1.01048,0.502496,0
35720,-1.80084,-1.01286,0.504036,0
35740,-1.80328,-1.01389,0.506067,0
35760,-1.80495,-1.01431,0.508064,0
35780,-1.80636,-1.01494,0.509675,0
35800,-1.80785,-1.01567,0.511572,0
35820,-1.81029,-1.01681,0.513584,0
35840,-1.8118,-1.01803,0.513536,0
35860,-1.81253,-1.01876,0.512864,0
35880,-1.81316,-1.01864,0.51279,0
35900,-1.81273,-1.01827,0.512708,0
35920,-1.81064,-1.01837,0.511562,0
35940,-1.80649,-1.01978,0.511411,0
35960,-1.80335,-1.02028,0.508732,0
35980,-1.80271,-1.02135,0.506269,0
36000,-1.79895,-1.02147,0.503207,0
36020,-1.79309,-1.02131,0.499697,0
36040,-1.78811,-1.02193,0.498029,0
36060,-1.78306,-1.02345,0.495728,0
36080,-1.77779,-1.02574,0.491473,0
36100,-1.7748,-1.02905,0.486644,0
36120,-1.77021,-1.03245,0.481531,0
36140,-1.76535,-1.03445,0.476511,0
36160,-1.76208,-1.03612,0.472364,0
36180,-1.75888,-1.0376,0.468644,0
36200,-1.75676,-1.03879,0.466627,0
36220,-1.75422,-1.03986,0.463865,0
36240,-1.75025,-1.04002,0.458193,0
36260,-1.74206,-1.03956,0.447229,0
36280,-1.73139,-1.03713,0.432776,0
36300,-1.72334,-1.03387,0.423728,0
36320,-1.71185,-1.0297,0.413166,0
36340,-1.69723,-1.02512,0.398756,0
36360,-1.68479,-1.0202,0.385781,0
36380,-1.67529,-1.01377,0.377394,0
36400,-1.66442,-1.00553,0.368512,0
36420,-1.65189,-0.996465,0.357693,0
36440,-1.64108,-0.987475,0.349558,0
36460,-1.63182,-0.978165,0.344312,0
36480,-1.61852,-0.968674,0.335002,0
36500,-1.6006,-0.957327,0.323065,0
36520,-1.58514,-0.947127,0.315763,0
36540,-1.5674,-0.939032,0.30783,0
36560,-1.54489,-0.930094,0.295151,0
36580,-1.5222,-0.921371,0.282204,0
36600,-1.5031,-0.912451,0.270965,0
36620,-1.48216,-0.903082,0.261341,0
36640,-1.45992,-0.894142,0.250534,0
36660,-1.43757,-0.884425,0.241502,0
36680,-1.41672,-0.876035,0.233036,0
36700,-1.39552,-0.867357,0.221703,0
36720,-1.37243,-0.856425,0.209728,0
36740,-1.35308,-0.844766,0.200929,0
36760,-1.33552,-0.833568,0.194658,0
36780,-1.31859,-0.821466,0.190153,0
36800,-1.30328,-0.810316,0.187011,0
36820,-1.28994,-0.800612,0.183285,0
36840,-1.2802,-0.791729,0.18138,0
36860,-1.27218,-0.783428,0.182127,0
36880,-1.2641,-0.776715,0.182974,0
36900,-1.25685,-0.771639,0.183203,0
36920,-1.25209,-0.766752,0.183741,0
36940,-1.24937,-0.762006,0.185864,0
36960,-1.24696,-0.757505,0.187036,0
36980,-1.24553,-0.752141,0.188589,0
37000,-1.24554,-0.747274,0.190813,0
37020,-1.24649,-0.742956,0.192955,0
37040,-1.24751,-0.738951,0.195368,0
37060,-1.24922,-0.733898,0.198051,0
37080,-1.25062,-0.728355,0.201538,0
37100,-1.25099,-0.722817,0.20521,0
37120,-1.25033,-0.718988,0.20722,0
37140,-1.25054,-0.715331,0.208215,0
37150,-1.25101,-0.711367,0.209719,0
37170,-1.25111,-0.707656,0.211248,0
37190,-1.24955,-0.704017,0.21322,0
37210,-1.24837,-0.701988,0.21439,0
37230,-1.24817,-0.700126,0.215114,0
37250,-1.24799,-0.698161,0.216705,0
37270,-1.24832,-0.696312,0.218261,0
37290,-1.24856,-0.69467,0.219891,0
37310,-1.24855,-0.693293,0.220972,0
37330,-1.24814,-0.691727,0.222833,0
37350,-1.24807,-0.690444,0.224458,0
37370,-1.24862,-0.688094,0.226256,0
37390,-1.25068,-0.684021,0.228289,0
37410,-1.25217,-0.677787,0.230124,0
37430,-1.25298,-0.670769,0.233209,0
37450,-1.25285,-0.663398,0.236588,0
37470,-1.25119,-0.655785,0.23838,0
37490,-1.24749,-0.64826,0.23885,0
37510,-1.24378,-0.641118,0.239695,0
37530,-1.24123,-0.63333,0.240813,0
37550,-1.24015,-0.62607,0.24208,0
37570,-1.23742,-0.620283,0.243667,0
37590,-1.23368,-0.615262,0.245161,0
37610,-1.23341,-0.61203,0.246059,0
37630,-1.23316,-0.609472,0.247625,0
37650,-1.23136,-0.60651,0.250275,0
37670,-1.22924,-0.605031,0.254431,0
37690,-1.22643,-0.604245,0.258086,0
37710,-1.22513,-0.603891,0.260555,0
37730,-1.22692,-0.603782,0.26286,0
37750,-1.22912,-0.603489,0.26522,0
37770,-1.23036,-0.602342,0.267038,0
37790,-1.23176,-0.600606,0.268597,0
37810,-1.23411,-0.597945,0.27064,0
37830,-1.23713,-0.594883,0.272832,0
37850,-1.239,-0.592135,0.27492,0
37870,-1.23889,-0.590766,0.277381,0
37890,-1.23894,-0.588691,0.278961,0
37910,-1.24014,-0.586946,0.280448,0
37930,-1.24258,-0.585671,0.282313,0
37950,-1.24561,-0.583924,0.283745,0
37970,-1.24723,-0.581544,0.285694,0
37990,-1.24519,-0.579274,0.288009,0
38010,-1.24101,-0.577027,0.289917,0
38030,-1.23775,-0.574647,0.29156,0
38050,-1.23827,-0.572866,0.292106,0
38070,-1.2399,-0.571953,0.292385,0
38090,-1.24047,-0.570541,0.293551,0
38110,-1.23873,-0.56917,0.294648,0
38130,-1.23473,-0.568676,0.295023,0
38150,-1.23068,-0.569226,0.294327,0
38170,-1.22865,-0.570027,0.293487,0
38190,-1.22737,-0.5702,0.293586,0
38210,-1.22549,-0.569771,0.294257,0
38230,-1.22414,-0.569916,0.295361,0
38250,-1.22334,-0.570551,0.29627,0
38270,-1.22293,-0.571194,0.297002,0
38290,-1.22366,-0.571872,0.297481,0
38310,-1.2235,-0.573255,0.297815,0
38330,-1.22284,-0.574296,0.29834,0
38350,-1.22286,-0.575686,0.298718,0
38370,-1.22321,-0.576773,0.299045,0
38390,-1.22417,-0.577377,0.299416,0
38410,-1.22415,-0.577678,0.29946,0
38430,-1.22423,-0.577795,0.299558,0
38450,-1.22538,-0.578058,0.298343,2000
38470,-1.22724,-0.57806,0.297274,0
38490,-1.22943,-0.577066,0.296323,0
38510,-1.22956,-0.575675,0.294773,0
38530,-1.2288,-0.573833,0.294061,0
38550,-1.22893,-0.5723,0.292993,0
38570,-1.2282,-0.571362,0.291515,0
38590,-1.2272,-0.569475,0.291037,0
38610,-1.22611,-0.567975,0.291496,0
38630,-1.22588,-0.56804,0.290873,0
38650,-1.22513,-0.567686,0.288021,0
38670,-1.22531,-0.567122,0.287405,0
38690,-1.22534,-0.567166,0.287398,0
38710,-1.22397,-0.566473,0.286849,0
38730,-1.22198,-0.567336,0.28564,0
38750,-1.22056,-0.567469,0.285798,0
38770,-1.22015,-0.568218,0.287262,0
38790,-1.21831,-0.569131,0.287198,0
38810,-1.21739,-0.569891,0.285734,0
38830,-1.21839,-0.569711,0.284909,0
38850,-1.21935,-0.568794,0.285853,0
38870,-1.21924,-0.567907,0.287154,0
38890,-1.21772,-0.567707,0.28733,0
38910,-1.21772,-0.567923,0.286745,0
38930,-1.2189,-0.567709,0.286441,0
38950,-1.2201,-0.566686,0.2869,0
38970,-1.21999,-0.566869,0.286846,0
38990,-1.21863,-0.567076,0.287108,0
39010,-1.21776,-0.56704,0.287617,0
39030,-1.21675,-0.566546,0.287785,0
39050,-1.21668,-0.566357,0.287796,0
39070,-1.21639,-0.565354,0.288321,0
39090,-1.21466,-0.564154,0.289236,0
39110,-1.2137,-0.563748,0.290243,0
39130,-1.21333,-0.563901,0.291151,0
39150,-1.21415,-0.563547,0.292443,0
39170,-1.21489,-0.562571,0.294447,0
39190,-1.21475,-0.562146,0.296048,0
39210,-1.21441,-0.56198,0.297279,0
39230,-1.2152,-0.561136,0.298539,0
39250,-1.21576,-0.559194,0.300531,0
39270,-1.21566,-0.557779,0.303115,0
39290,-1.21501,-0.556542,0.305354,0
39310,-1.2145,-0.554936,0.307018,0
39330,-1.21329,-0.553374,0.309248,0
39350,-1.21148,-0.552458,0.311701,0
39370,-1.21008,-0.551991,0.314011,0
39390,-1.20793,-0.551425,0.316425,0
39410,-1.20581,-0.551716,0.318544,0
39430,-1.20327,-0.552843,0.319602,0
39450,-1.20082,-0.55441,0.320055,0
39470,-1.19848,-0.555166,0.320745,0
39490,-1.1971,-0.556083,0.322219,0
39510,-1.19432,-0.558002,0.32384,0
39530,-1.19175,-0.559243,0.326648,0
39550,-1.19118,-0.560321,0.329241,0
39570,-1.1913,-0.559739,0.330854,0
39590,-1.19254,-0.558483,0.332852,0
39610,-1.19265,-0.558049,0.33547,0
39630,-1.19105,-0.558154,0.338227,0
39650,-1.18931,-0.558717,0.340231,0
39670,-1.18884,-0.560249,0.341854,0
39690,-1.18886,-0.563008,0.343616,0
39710,-1.18835,-0.564803,0.34529,0
39730,-1.18634,-0.565592,0.346719,0
39750,-1.1838,-0.566685,0.347687,0
39770,-1.18203,-0.568029,0.348815,0
39790,-1.1805,-0.569456,0.348582,0
39810,-1.17874,-0.569711,0.348086,0
39830,-1.17775,-0.570424,0.347631,0
39850,-1.17632,-0.571269,0.347036,0
39870,-1.17492,-0.572958,0.346886,0
39890,-1.17196,-0.575634,0.345326,0
39910,-1.1689,-0.579529,0.343167,0
39930,-1.16728,-0.583143,0.340387,0
39950,-1.16643,-0.587173,0.338024,0
39970,-1.16551,-0.591655,0.33623,0
39990,-1.16364,-0.596195,0.334255,0
40010,-1.16203,-0.60091,0.331271,0
40030,-1.16069,-0.604618,0.327286,0
40050,-1.15983,-0.60737,0.323863,0
40070,-1.15784,-0.610761,0.321147,0
40090,-1.15453,-0.614594,0.317787,0
40110,-1.1514,-0.618287,0.313156,0
40130,-1.14941,-0.621392,0.308182,0
40150,-1.14747,-0.623761,0.302859,0
40170,-1.14462,-0.62653,0.296813,0
40190,-1.14089,-0.62893,0.28998,0
40210,-1.13621,-0.630566,0.282615,0
40230,-1.13153,-0.632427,0.275382,0
40250,-1.12601,-0.634546,0.266986,0
40270,-1.11988,-0.6364,0.257949,0
40290,-1.1133,-0.637916,0.247689,0
40310,-1.10587,-0.639641,0.236912,0
40330,-1.09765,-0.642074,0.225446,0
40350,-1.08897,-0.64496,0.212747,0
40370,-1.07903,-0.647607,0.198149,0
40390,-1.06757,-0.650568,0.181503,0
40410,-1.05572,-0.653658,0.164824,0
40430,-1.04252,-0.656468,0.147798,0
40450,-1.02972,-0.658354,0.130009,0
40470,-1.0169,-0.659736,0.11151,0
40490,-1.0047,-0.660077,0.0947856,0
40510,-0.992646,-0.661183,0.0786259,0
40530,-0.981133,-0.662423,0.0629435,0
40550,-0.970978,-0.664149,0.0476912,0
40570,-0.962398,-0.665352,0.0331066,0
40580,-0.953296,-0.66672,0.0193016,0
40600,-0.943447,-0.668923,0.00605379,0
40620,-0.934307,-0.671587,-0.00643957,0
40640,-0.92628,-0.674833,-0.0194998,0
40660,-0.917873,-0.678303,-0.033318,0
40680,-0.910053,-0.681085,-0.0466269,0
40700,-0.90359,-0.683858,-0.0582783,0
40720,-0.897257,-0.68709,-0.069206,0
40740,-0.891309,-0.690887,-0.0800575,0
40760,-0.885449,-0.694414,-0.0913066,0
40780,-0.879741,-0.697184,-0.102533,0
40800,-0.874984,-0.700004,-0.113185,0
40820,-0.869897,-0.70294,-0.124325,0
40840,-0.864057,-0.706308,-0.135306,0
40860,-0.857173,-0.709808,-0.147186,0
40880,-0.85062,-0.713179,-0.159101,0
40900,-0.844767,-0.716269,-0.170715,0
40920,-0.838403,-0.719128,-0.182503,0
40940,-0.830402,-0.72183,-0.194119,0
40960,-0.822282,-0.725458,-0.204587,0
40980,-0.814349,-0.729652,-0.214497,0
41000,-0.80567,-0.734019,-0.225657,0
41020,-0.797424,-0.737893,-0.23748,0
41040,-0.789433,-0.74153,-0.250032,0
41060,-0.78152,-0.74476,-0.262373,0
41080,-0.773122,-0.747606,-0.274324,0
41100,-0.765287,-0.749906,-0.285193,0
41120,-0.758683,-0.751359,-0.295608,0
41140,-0.752758,-0.751789,-0.305253,0
41160,-0.747386,-0.752262,-0.314077,0
41180,-0.74284,-0.752863,-0.32234,0
41200,-0.740593,-0.753393,-0.329824,0
41220,-0.739467,-0.753286,-0.336055,0
41240,-0.737383,-0.752375,-0.342378,0
41260,-0.734047,-0.752084,-0.348226,0
41280,-0.730769,-0.752269,-0.354153,0
41300,-0.727435,-0.752319,-0.360501,0
41320,-0.723821,-0.752797,-0.36707,0
41340,-0.718464,-0.753183,-0.373228,0
41360,-0.712737,-0.7538,-0.378943,0
41380,-0.706498,-0.755342,-0.384681,0
41400,-0.69874,-0.756846,-0.390927,0
41420,-0.69059,-0.75736,-0.398478,0
41440,-0.685025,-0.757411,-0.405902,0
41460,-0.681344,-0.756039,-0.411463,0
41480,-0.67912,-0.754943,-0.415523,0
41500,-0.676817,-0.754244,-0.41803,0
41520,-0.674961,-0.753203,-0.419996,0
41540,-0.675904,-0.751423,-0.420586,0
41560,-0.679542,-0.749839,-0.420109,0
41580,-0.683685,-0.747506,-0.418428,0
41600,-0.686869,-0.744922,-0.416316,0
41620,-0.689492,-0.74295,-0.414137,0
41640,-0.6931,-0.740341,-0.411648,0
41660,-0.696356,-0.736859,-0.409987,0
41680,-0.699645,-0.733088,-0.408278,0
41700,-0.703134,-0.728505,-0.405807,0
41720,-0.705659,-0.722597,-0.402652,0
41740,-0.707557,-0.716461,-0.398811,0
41760,-0.708541,-0.710984,-0.394952,0
41780,-0.709237,-0.706352,-0.39201,0
41800,-0.709617,-0.702525,-0.390812,0
41820,-0.71035,-0.697843,-0.39026,0
41840,-0.711918,-0.693012,-0.389995,0
41860,-0.712867,-0.688218,-0.388697,0
41880,-0.71299,-0.684129,-0.386765,0
41900,-0.712602,-0.680945,-0.384432,0
41920,-0.712562,-0.677319,-0.382407,0
41940,-0.714521,-0.672701,-0.380116,0
41960,-0.717997,-0.667735,-0.376885,0
41980,-0.722062,-0.662576,-0.372787,0
42000,-0.725341,-0.657447,-0.367768,0
42020,-0.728359,-0.651705,-0.362799,0
42040,-0.732642,-0.645813,-0.357264,0
42060,-0.737483,-0.639549,-0.351163,0
42080,-0.742801,-0.6326,-0.344172,0
42100,-0.74816,-0.626106,-0.336999,0
42120,-0.753281,-0.619981,-0.329957,0
42140,-0.757704,-0.613734,-0.323157,0
42160,-0.761739,-0.607393,-0.31613,0
42180,-0.765023,-0.601687,-0.309515,0
42200,-0.768022,-0.595795,-0.303926,0
42220,-0.771299,-0.589764,-0.298193,0
42240,-0.773603,-0.584117,-0.291778,0
42260,-0.774197,-0.578718,-0.285107,0
42280,-0.774637,-0.574473,-0.279866,0
42300,-0.775725,-0.569994,-0.275597,0
42320,-0.779049,-0.565437,-0.271419,0
42340,-0.784198,-0.56126,-0.266171,0
42360,-0.788433,-0.557168,-0.259844,0
42380,-0.791147,-0.55336,-0.253201,0
42400,-0.793703,-0.550209,-0.247222,0
42420,-0.797828,-0.546548,-0.241455,0
42440,-0.804475,-0.543096,-0.234866,0
42460,-0.810973,-0.539333,-0.227789,0
42480,-0.816595,-0.535905,-0.220451,0
42500,-0.821878,-0.532785,-0.213747,0
42520,-0.82644,-0.529125,-0.20776,0
42540,-0.831159,-0.525286,-0.202259,0
42550,-0.835557,-0.521903,-0.196769,0
42570,-0.839428,-0.519222,-0.191294,0
42590,-0.841874,-0.516438,-0.186292,0
42610,-0.844126,-0.513192,-0.181575,0
42630,-0.846911,-0.510202,-0.176906,0
42650,-0.850512,-0.50732,-0.171569,0
42670,-0.854844,-0.503842,-0.165554,0
42690,-0.859427,-0.500489,-0.158308,0
42710,-0.864005,-0.496884,-0.150894,0
42730,-0.8691,-0.493072,-0.142913,0
42750,-0.874302,-0.488975,-0.134372,0
42770,-0.879448,-0.48456,-0.125857,0
42790,-0.88386,-0.480868,-0.116904,0
42810,-0.887408,-0.477459,-0.107477,0
42830,-0.891547,-0.473831,-0.0977497,0
42850,-0.897087,-0.470623,-0.0873739,0
42870,-0.904099,-0.468798,-0.0766127,0
42890,-0.910531,-0.466996,-0.0664989,0
42910,-0.916266,-0.465092,-0.0564748,0
42930,-0.921321,-0.464295,-0.0467345,0
42950,-0.925239,-0.464129,-0.0380679,0
42970,-0.929381,-0.463845,-0.0291379,0
42990,-0.933732,-0.463919,-0.0200952,0
43010,-0.938006,-0.463711,-0.0111567,0
43030,-0.941914,-0.462977,-0.00242777,0
43050,-0.945198,-0.462648,0.00562474,0
43070,-0.946147,-0.463156,0.0128587,0
43090,-0.945397,-0.46416,0.0198286,0
43110,-0.944614,-0.465585,0.0268397,0
43130,-0.945738,-0.46724,0.0344041,0
43150,-0.947277,-0.468357,0.0416903,0
43170,-0.949131,-0.468991,0.0493989,0
43190,-0.950639,-0.470485,0.0567529,0
43210,-0.951986,-0.472944,0.0638641,0
43230,-0.954089,-0.475039,0.0712704,0
43250,-0.95621,-0.476193,0.078599,0
43270,-0.957316,-0.477157,0.0860488,0
43290,-0.957757,-0.478183,0.0944448,0
43310,-0.959404,-0.479255,0.10461,0
43330,-0.962104,-0.480373,0.115383,0
43350,-0.965629,-0.482626,0.127133,0
43370,-0.969753,-0.485418,0.13897,0
43390,-0.974141,-0.489439,0.150991,0
43410,-0.978199,-0.494846,0.163041,0
43430,-0.981981,-0.500593,0.174972,0
43450,-0.986325,-0.506758,0.187051,0
43470,-0.991634,-0.513302,0.199303,0
43490,-0.996895,-0.51945,0.211235,0
43510,-1.00142,-0.525287,0.222562,0
43530,-1.00509,-0.53091,0.23369,0
43550,-1.00997,-0.536947,0.244766,0
43570,-1.01573,-0.542839,0.255291,0
43590,-1.02172,-0.547699,0.264945,0
43610,-1.02688,-0.553023,0.27404,0
43630,-1.03027,-0.557847,0.281997,0
43650,-1.0338,-0.562806,0.289228,0
43670,-1.03904,-0.567151,0.296781,0
43690,-1.04619,-0.571319,0.304421,0
43710,-1.0519,-0.575025,0.311828,0
43730,-1.05598,-0.577956,0.318252,0
43750,-1.06029,-0.58081,0.324386,0
43770,-1.0648,-0.583432,0.33083,0
43790,-1.06961,-0.586396,0.336154,0
43810,-1.07338,-0.589803,0.340938,0
43830,-1.07636,-0.593517,0.345569,0
43850,-1.07797,-0.597337,0.349256,0
43870,-1.07949,-0.602778,0.352994,0
43890,-1.08284,-0.60949,0.357194,0
43910,-1.08677,-0.616868,0.360988,0
43930,-1.08977,-0.624218,0.364572,0
43950,-1.09182,-0.631941,0.367951,0
43970,-1.09395,-0.64039,0.371057,0
43990,-1.0959,-0.649061,0.373823,0
44010,-1.09844,-0.657167,0.37593,0
44030,-1.10221,-0.664732,0.377185,0
44050,-1.10553,-0.671921,0.378018,0
44070,-1.1087,-0.678874,0.378688,0
44090,-1.11089,-0.686024,0.378263,0
44110,-1.11278,-0.693284,0.377064,0
44130,-1.11455,-0.7003,0.374524,0
44150,-1.11514,-0.706747,0.370232,0
44170,-1.11457,-0.712459,0.365094,0
44190,-1.11523,-0.71757,0.360848,0
44210,-1.1156,-0.722947,0.358032,0
44230,-1.11541,-0.728344,0.354333,0
44250,-1.11588,-0.7336,0.349604,0
44270,-1.11661,-0.738405,0.344262,0
44290,-1.11641,-0.743883,0.339266,0
44310,-1.11526,-0.749746,0.333558,0
44330,-1.11254,-0.754778,0.326225,0
44350,-1.11014,-0.759112,0.318914,0
44370,-1.10843,-0.764219,0.311507,0
44390,-1.10722,-0.769787,0.304481,0
44410,-1.10617,-0.775114,0.296754,0
44430,-1.10434,-0.780385,0.288134,0
44450,-1.10104,-0.786005,0.279359,0
44470,-1.09963,-0.792122,0.272543,0
44490,-1.0989,-0.797844,0.266283,0
44510,-1.09793,-0.803065,0.259295,0
44530,-1.09826,-0.807986,0.25337,0
44550,-1.10148,-0.812721,0.250435,0
44570,-1.10468,-0.817347,0.248098,0
44590,-1.10717,-0.822453,0.245226,0
44610,-1.10953,-0.827985,0.241719,0
44630,-1.11076,-0.833607,0.237453,0
44650,-1.11053,-0.838908,0.231726,0
44670,-1.10997,-0.844969,0.225417,0
44690,-1.10822,-0.851237,0.217261,0
44710,-1.10392,-0.85728,0.207009,0
44730,-1.10014,-0.863091,0.196172,0
44750,-1.09574,-0.869804,0.184415,0
44770,-1.09056,-0.876704,0.172649,0
44790,-1.08497,-0.883062,0.160223,0
44810,-1.07883,-0.887989,0.147473,0
44830,-1.07346,-0.891708,0.13618,0
44850,-1.06848,-0.896035,0.125881,0
44870,-1.06435,-0.900519,0.116923,0
44890,-1.06073,-0.903832,0.10735,0
44910,-1.05949,-0.905938,0.0992454,0
44930,-1.05877,-0.908359,0.0929481,0
44950,-1.05654,-0.911276,0.0863525,0
44970,-1.05398,-0.915096,0.0788548,0
44990,-1.05165,-0.918093,0.0705805,0
45010,-1.04919,-0.91979,0.0619624,0
45030,-1.04404,-0.921836,0.0523912,0
45050,-1.03795,-0.924813,0.0417241,0
45070,-1.03305,-0.92855,0.030785,0
45090,-1.02864,-0.932174,0.0196727,0
45110,-1.02441,-0.935832,0.00799322,0
45130,-1.02089,-0.939655,-0.00334423,0
45150,-1.01722,-0.943025,-0.014149,0
45170,-1.01356,-0.946626,-0.0246675,0
45190,-1.01034,-0.94957,-0.034442,0
45210,-1.00688,-0.951483,-0.0450577,0
45230,-1.0033,-0.952367,-0.0560838,0
45250,-0.999247,-0.952984,-0.067833,0
45270,-0.992877,-0.954054,-0.0813987,0
45290,-0.986684,-0.955199,-0.0950404,0
45310,-0.981651,-0.956644,-0.108072,0
45330,-0.975525,-0.958349,-0.121758,0
45350,-0.96916,-0.960014,-0.135297,0
45370,-0.963347,-0.962247,-0.149297,0
45390,-0.95759,-0.96424,-0.163723,0
45410,-0.950821,-0.965033,-0.177497,0
45430,-0.942252,-0.965747,-0.191778,0
45450,-0.931868,-0.967148,-0.206709,0
45470,-0.92029,-0.968031,-0.222797,0
45490,-0.909082,-0.967784,-0.238827,0
45510,-0.89829,-0.967201,-0.254146,0
45530,-0.886797,-0.965581,-0.269004,0
45560,-0.866036,-0.959447,-0.296147,0
45580,-0.856879,-0.956178,-0.308721,0
45600,-0.848334,-0.95232,-0.320058,0
45620,-0.841812,-0.948841,-0.329856,0
45640,-0.837006,-0.945757,-0.338287,0
45660,-0.832779,-0.942872,-0.345549,0
45680,-0.828246,-0.940163,-0.352543,0
45700,-0.825068,-0.937642,-0.358619,0
45720,-0.823491,-0.935132,-0.364311,0
45740,-0.822361,-0.932847,-0.368722,0
45760,-0.820388,-0.930849,-0.371482,0
45780,-0.816088,-0.927953,-0.373945,0
45800,-0.812669,-0.923786,-0.376097,0
45820,-0.812261,-0.919282,-0.377549,0
45840,-0.812615,-0.913794,-0.377048,0
45860,-0.812468,-0.907834,-0.375075,0
45880,-0.81163,-0.90213,-0.373855,0
45900,-0.81324,-0.896515,-0.371528,0
45920,-0.818354,-0.889986,-0.367299,0
45940,-0.824742,-0.882773,-0.361706,0
45960,-0.831746,-0.875619,-0.354917,0
45970,-0.837224,-0.86891,-0.348799,0
45990,-0.841917,-0.862473,-0.342684,0
46010,-0.846719,-0.85646,-0.337073,0
46030,-0.851412,-0.85009,-0.332007,0
46050,-0.855425,-0.844106,-0.327371,0
46070,-0.858555,-0.838,-0.322568,0
46090,-0.860826,-0.831962,-0.318489,0
46110,-0.863215,-0.825978,-0.313061,0
46130,-0.865285,-0.820377,-0.306915,0
46150,-0.865564,-0.814836,-0.302395,0
46170,-0.866553,-0.809185,-0.298814,0
46190,-0.868503,-0.802939,-0.294899,0
46210,-0.871052,-0.796348,-0.289603,0
46230,-0.871751,-0.789633,-0.285003,0
46250,-0.871843,-0.783693,-0.281442,0
46270,-0.872811,-0.777516,-0.27826,0
46290,-0.874439,-0.77127,-0.275109,0
46310,-0.876714,-0.765161,-0.271235,0
46330,-0.879163,-0.758747,-0.266675,0
46350,-0.882107,-0.75256,-0.262286,0
46370,-0.885017,-0.746541,-0.258529,0
46390,-0.887874,-0.740119,-0.254614,0
46410,-0.890338,-0.733923,-0.250256,0
46430,-0.891427,-0.728047,-0.246793,0
46450,-0.89265,-0.722576,-0.24432,0
46470,-0.894841,-0.717466,-0.241712,0
46490,-0.897655,-0.711777,-0.238459,0
46510,-0.89911,-0.705309,-0.235329,0
46530,-0.900204,-0.699093,-0.232598,0
46550,-0.902272,-0.69311,-0.230059,0
46570,-0.904804,-0.687677,-0.226969,0
46590,-0.906543,-0.681663,-0.224015,0
46610,-0.907722,-0.675802,-0.220847,0
46630,-0.910068,-0.67124,-0.217092,0
46650,-0.912306,-0.66668,-0.21452,0
46670,-0.914473,-0.661422,-0.21202,0
46690,-0.918275,-0.656194,-0.20847,0
46710,-0.922331,-0.652278,-0.204874,0
46730,-0.926288,-0.648986,-0.200116,0
46750,-0.930322,-0.646063,-0.194158,0
46770,-0.934784,-0.642639,-0.187615,0
46790,-0.940987,-0.639315,-0.180489,0
46810,-0.947599,-0.636323,-0.172524,0
46830,-0.954667,-0.633877,-0.162766,0
46850,-0.961171,-0.631443,-0.152623,0
46870,-0.968861,-0.62953,-0.142211,0
46890,-0.978066,-0.628305,-0.131459,0
46910,-0.986587,-0.62773,-0.120458,0
46960,-1.00901,-0.627074,-0.086188,0
46980,-1.0172,-0.627526,-0.0750151,0
47000,-1.02529,-0.627095,-0.0634589,0
47020,-1.03325,-0.626184,-0.0515142,0
47040,-1.04158,-0.625358,-0.0391622,0
47060,-1.04854,-0.625315,-0.02798,0
47080,-1.05335,-0.62474,-0.017507,0
47100,-1.05923,-0.623944,-0.00658235,0
47120,-1.06734,-0.623387,0.00507943,0
47140,-1.07497,-0.62248,0.0158079,0
47160,-1.08248,-0.620475,0.0262587,0
47180,-1.09031,-0.619058,0.0374174,0
47200,-1.09748,-0.618291,0.0487315,0
47220,-1.10539,-0.617799,0.0606718,0
47240,-1.11413,-0.617229,0.0721786,0
47260,-1.12162,-0.616483,0.0837253,0
47280,-1.13089,-0.616705,0.0965234,0
47300,-1.14141,-0.617284,0.10991,0
47320,-1.15211,-0.618295,0.12326,0
47340,-1.16201,-0.620416,0.136258,0
47360,-1.17288,-0.622996,0.149932,0
47380,-1.18429,-0.626211,0.16354,0
47400,-1.19403,-0.63068,0.176542,0
47420,-1.20172,-0.635944,0.189584,0
47440,-1.20989,-0.641638,0.203524,0
47460,-1.21941,-0.647652,0.217461,0
47480,-1.22839,-0.653677,0.230363,0
47500,-1.23657,-0.658807,0.243212,0
47520,-1.24535,-0.664736,0.257164,0
47540,-1.25517,-0.671116,0.270928,0
47560,-1.26611,-0.676666,0.284676,0
47580,-1.27662,-0.681756,0.298914,0
47600,-1.28693,-0.687869,0.313435,0
47620,-1.29875,-0.694468,0.327986,0
47640,-1.3111,-0.700044,0.342425,0
47660,-1.32205,-0.7052,0.356911,0
47680,-1.33169,-0.7117,0.371343,0
47700,-1.34049,-0.718105,0.385399,0
47720,-1.34922,-0.724438,0.399626,0
47740,-1.35599,-0.731741,0.412848,0
47760,-1.36201,-0.739137,0.425429,0
47780,-1.36877,-0.746717,0.437997,0
47800,-1.37677,-0.754713,0.45036,0
47820,-1.38455,-0.761969,0.461803,0
47840,-1.39216,-0.769081,0.4728,0
47860,-1.39975,-0.776773,0.482931,0
47880,-1.40729,-0.784676,0.491985,0
47900,-1.41397,-0.792318,0.500115,0
47920,-1.42026,-0.799448,0.506786,0
47940,-1.42664,-0.806386,0.51279,0
47950,-1.43196,-0.813067,0.518809,0
47970,-1.43502,-0.819114,0.524603,0
47990,-1.4374,-0.82639,0.529626,0
48010,-1.44217,-0.835374,0.53412,0
48030,-1.44766,-0.845197,0.535809,0
48050,-1.4528,-0.855844,0.534768,0
48070,-1.4559,-0.867086,0.532459,0
48090,-1.45814,-0.879677,0.529571,0
48110,-1.45885,-0.894155,0.523972,0
48130,-1.4593,-0.908888,0.516437,0
48150,-1.45879,-0.922742,0.507182,0
48170,-1.45685,-0.936538,0.497094,0
48190,-1.45222,-0.950452,0.483944,0
48210,-1.44459,-0.964663,0.468005,0
48230,-1.43666,-0.980053,0.452505,0
48250,-1.42707,-0.995182,0.434262,0
48270,-1.41605,-1.00996,0.413607,0
48290,-1.40472,-1.02472,0.391883,0
48310,-1.39062,-1.03895,0.368198,0
48330,-1.37508,-1.05181,0.345076,0
48350,-1.35756,-1.06422,0.320852,0
48370,-1.33746,-1.07664,0.293709,0
48390,-1.31612,-1.08831,0.263505,0
48410,-1.29379,-1.09901,0.232058,0
48430,-1.26919,-1.10748,0.198665,0
48450,-1.2429,-1.11474,0.164023,0
48470,-1.21554,-1.12132,0.129819,0
48490,-1.18702,-1.12704,0.0939896,0
48510,-1.15627,-1.13129,0.0565294,0
48530,-1.12453,-1.13466,0.0184978,0
48550,-1.0933,-1.13692,-0.0198888,0
48570,-1.06217,-1.1376,-0.058425,0
48590,-1.03502,-1.13614,-0.0929241,0
48610,-1.00917,-1.13211,-0.12536,0
48630,-0.98285,-1.12668,-0.156037,0
48650,-0.959004,-1.12,-0.183031,0
48670,-0.937275,-1.11251,-0.208318,0
48690,-0.917046,-1.1035,-0.231555,0
48710,-0.899725,-1.09269,-0.25146,0
48730,-0.886429,-1.08218,-0.268492,0
48750,-0.874659,-1.07181,-0.282578,0
48770,-0.864426,-1.06038,-0.294604,0
48790,-0.856091,-1.04866,-0.305715,0
48810,-0.850179,-1.03713,-0.316105,0
48830,-0.847788,-1.02534,-0.324,0
48850,-0.846771,-1.01227,-0.328662,0
48870,-0.845441,-1.00019,-0.331614,0
48890,-0.843632,-0.98983,-0.334202,0
48910,-0.843937,-0.98036,-0.336813,0
48930,-0.84809,-0.969981,-0.337295,0
48950,-0.853931,-0.959924,-0.334557,0
48970,-0.859081,-0.951678,-0.330449,0
48990,-0.863082,-0.944532,-0.326502,0
49010,-0.868643,-0.937655,-0.321411,0
49030,-0.878187,-0.930954,-0.313813,0
49050,-0.889012,-0.924094,-0.304273,0
49070,-0.897793,-0.917219,-0.294658,0
49090,-0.906612,-0.910947,-0.284314,0
49110,-0.916685,-0.904689,-0.273824,0
49130,-0.927665,-0.897975,-0.262561,0
49150,-0.93866,-0.890979,-0.250725,0
49170,-0.948825,-0.883693,-0.23959,0
49190,-0.959529,-0.876177,-0.227894,0
49210,-0.970725,-0.868191,-0.215215,0
49230,-0.982273,-0.860105,-0.201101,0
49250,-0.991387,-0.85328,-0.187658,0
49270,-1.00019,-0.847119,-0.174176,0
49290,-1.00933,-0.84172,-0.161984,0
49310,-1.01924,-0.83618,-0.148778,0
49330,-1.02941,-0.831308,-0.134431,0
49350,-1.03913,-0.82719,-0.120739,0
49370,-1.04808,-0.822891,-0.107079,0
49390,-1.05748,-0.81854,-0.0937812,0
49410,-1.06667,-0.814444,-0.0811518,0
49430,-1.0766,-0.809753,-0.0686022,0
49450,-1.08643,-0.805455,-0.0559507,0
49470,-1.09641,-0.80116,-0.0433643,0
49490,-1.10681,-0.796755,-0.0303509,0
49510,-1.1168,-0.79306,-0.018339,0
49530,-1.12672,-0.78912,-0.00663932,0
49550,-1.13576,-0.785034,0.00454253,0
49570,-1.14435,-0.781738,0.0159258,0
49590,-1.15257,-0.778835,0.0270937,0
49610,-1.16198,-0.776197,0.0382303,0
49630,-1.17157,-0.773264,0.0492657,0
49650,-1.18019,-0.770301,0.0598597,0
49670,-1.18846,-0.767855,0.0703762,0
49690,-1.19643,-0.765709,0.0814423,0
49710,-1.20494,-0.764221,0.0928422,0
49730,-1.21379,-0.762439,0.103732,0
49750,-1.22257,-0.760927,0.114279,0
49770,-1.23183,-0.759738,0.125182,0
49790,-1.24094,-0.758076,0.1361,0
49810,-1.24998,-0.756254,0.147625,0
49830,-1.25892,-0.754956,0.159468,0
49850,-1.26791,-0.753909,0.170832,0
49870,-1.27792,-0.752605,0.181771,0
49890,-1.28696,-0.751627,0.19196,0
49910,-1.29529,-0.751,0.2023,0
49930,-1.30274,-0.75087,0.212352,0
49950,-1.31014,-0.750495,0.22241,0
49970,-1.31713,-0.750733,0.231702,0
49990,-1.32391,-0.75096,0.240441,0
50010,-1.33143,-0.751809,0.249085,0
50030,-1.33814,-0.752528,0.257777,0
50050,-1.34542,-0.753471,0.267032,0
50070,-1.35233,-0.75481,0.275392,0
50090,-1.35847,-0.75589,0.283669,0
50110,-1.36591,-0.75706,0.292755,0
50130,-1.37367,-0.758559,0.301754,0
50150,-1.38151,-0.760226,0.310319,0
50170,-1.38907,-0.761523,0.319208,0
50190,-1.39725,-0.762877,0.328825,0
50210,-1.4054,-0.764837,0.338348,0
50230,-1.41271,-0.767034,0.347181,0
50250,-1.42015,-0.76957,0.355821,0
50270,-1.42788,-0.772478,0.364517,0
50290,-1.43645,-0.775198,0.37393,0
50310,-1.44414,-0.777995,0.383046,0
50330,-1.45124,-0.781745,0.392478,0
50350,-1.45922,-0.786029,0.401879,0
50370,-1.46825,-0.790109,0.411426,0
50390,-1.47728,-0.793943,0.421036,0
50410,-1.48513,-0.797794,0.43014,0
50430,-1.49214,-0.80218,0.439175,0
50450,-1.49925,-0.807095,0.448623,0
50470,-1.50652,-0.812095,0.458095,0
50490,-1.51341,-0.817297,0.466834,0
50510,-1.52012,-0.822204,0.475719,0
50530,-1.52771,-0.827125,0.486136,0
50550,-1.53602,-0.832159,0.496857,0
50570,-1.54481,-0.837964,0.507445,0
50590,-1.55403,-0.844076,0.518962,0
50610,-1.56308,-0.850296,0.530501,0
50630,-1.57262,-0.856782,0.541656,0
50650,-1.58376,-0.864008,0.553323,0
50670,-1.59468,-0.870826,0.564715,0
50690,-1.60538,-0.876878,0.575816,0
50710,-1.61406,-0.882542,0.586717,0
50730,-1.62315,-0.888781,0.597922,0
50750,-1.63302,-0.895718,0.608339,0
50770,-1.64264,-0.90177,0.61766,0
50790,-1.65081,-0.907122,0.626445,0
50810,-1.65788,-0.91227,0.634819,0
50830,-1.66471,-0.91735,0.642825,0
50850,-1.67072,-0.9226,0.649625,0
50870,-1.67578,-0.927129,0.655113,0
50890,-1.68023,-0.931244,0.661062,0
50910,-1.68454,-0.935781,0.667864,0
50930,-1.68927,-0.940918,0.674769,0
50950,-1.69309,-0.946023,0.680561,0
50970,-1.69752,-0.951526,0.685854,0
50990,-1.70323,-0.957085,0.691422,0
51010,-1.70895,-0.961973,0.696959,0
51030,-1.71312,-0.966422,0.701163,0
51050,-1.71548,-0.970298,0.704409,0
51070,-1.71737,-0.973893,0.707337,0
51090,-1.71986,-0.978014,0.710528,0
51110,-1.72191,-0.981957,0.711897,0
51130,-1.72232,-0.984801,0.711644,0
51150,-1.72021,-0.987785,0.710631,0
51170,-1.71943,-0.992292,0.710813,2001
51190,-1.7189,-0.996949,0.709803,0
51210,-1.71955,-1.00052,0.708989,0
51230,-1.71936,-1.00366,0.707867,0
51250,-1.71835,-1.00727,0.706611,0
51270,-1.71931,-1.01115,0.70694,0
51290,-1.71962,-1.01403,0.707313,0
51310,-1.72177,-1.01669,0.707724,0
51330,-1.72476,-1.01866,0.708892,0
51350,-1.72755,-1.01912,0.709813,0
51360,-1.72997,-1.01908,0.71129,0
51380,-1.73171,-1.01919,0.713436,0
51400,-1.73351,-1.02008,0.7156,0
51420,-1.73674,-1.02129,0.716129,0
51440,-1.73798,-1.02158,0.713126,0
51460,-1.73664,-1.02076,0.709373,0
51480,-1.73339,-1.02059,0.705895,0
51500,-1.72819,-1.02234,0.701075,0
51520,-1.72076,-1.02323,0.694092,0
51540,-1.71373,-1.0237,0.686536,0
51560,-1.70689,-1.02433,0.67709,0
51580,-1.70044,-1.02429,0.667747,0
51600,-1.69158,-1.02308,0.656227,0
51620,-1.68287,-1.0221,0.644069,0
51640,-1.67211,-1.02137,0.629885,0
51660,-1.65923,-1.02015,0.613074,0
51680,-1.64716,-1.01806,0.595873,0
51700,-1.63485,-1.01644,0.579505,0
51720,-1.61792,-1.0137,0.56035,0
51740,-1.59598,-1.01003,0.535987,0
51760,-1.57152,-1.00685,0.509739,0
51780,-1.54554,-1.00284,0.482623,0
51800,-1.5175,-0.995702,0.452701,0
51820,-1.48957,-0.987032,0.421264,0
51840,-1.4567,-0.976523,0.385855,0
51860,-1.42262,-0.965101,0.352232,0
51880,-1.3918,-0.952819,0.325799,0
51900,-1.36471,-0.938437,0.303311,0
51920,-1.33682,-0.921526,0.280604,0
51940,-1.31052,-0.90697,0.261542,0
51960,-1.28173,-0.894184,0.242314,0
51980,-1.25098,-0.879628,0.222578,0
52000,-1.22582,-0.864837,0.208959,0
52020,-1.20885,-0.849825,0.203365,0
52040,-1.1938,-0.834378,0.200027,0
52060,-1.17682,-0.816998,0.194636,0
52080,-1.16095,-0.799363,0.190705,0
52100,-1.15,-0.781373,0.192326,0
52120,-1.14394,-0.763966,0.196816,0
52140,-1.13773,-0.744484,0.198941,0
52160,-1.13195,-0.723615,0.199734,0
52180,-1.13006,-0.704907,0.203706,0
52200,-1.12828,-0.688558,0.208566,0
52220,-1.12573,-0.672665,0.211878,0
52240,-1.1242,-0.655993,0.213713,0
52260,-1.12577,-0.640141,0.215831,0
52280,-1.12934,-0.624884,0.218333,0
52300,-1.13282,-0.61047,0.220219,0
52320,-1.13525,-0.597224,0.221076,0
52340,-1.13696,-0.584935,0.221534,0
52360,-1.13823,-0.572798,0.222208,0
52380,-1.13838,-0.561621,0.222214,0
52400,-1.13743,-0.552582,0.221441,0
52420,-1.13634,-0.546046,0.221463,0
52440,-1.13388,-0.540912,0.222006,0
52460,-1.13023,-0.537279,0.222526,0
52480,-1.12675,-0.535846,0.222214,0
52500,-1.12441,-0.535239,0.221467,0
52520,-1.12391,-0.534128,0.221744,0
52540,-1.12393,-0.532773,0.22295,0
52560,-1.12415,-0.531357,0.224305,0
52580,-1.12409,-0.528867,0.225811,0
52600,-1.12498,-0.525781,0.227472,0
52620,-1.12623,-0.523052,0.229523,0
52640,-1.12706,-0.520568,0.231417,0
52660,-1.12731,-0.517845,0.233125,0
52680,-1.12772,-0.515413,0.234627,0
52700,-1.1289,-0.513567,0.235732,0
52720,-1.12985,-0.511901,0.236004,0
52740,-1.13025,-0.509555,0.236093,0
52760,-1.12952,-0.506859,0.23617,0
52780,-1.12841,-0.505055,0.23654,0
52800,-1.12684,-0.504005,0.236656,0
52820,-1.12488,-0.502846,0.236153,0
52840,-1.12357,-0.501542,0.235458,0
52860,-1.1228,-0.500766,0.235624,0
52880,-1.12287,-0.500667,0.23584,0
52900,-1.12288,-0.5006,0.23595,0
52920,-1.12137,-0.500641,0.235778,0
52940,-1.12032,-0.500645,0.236186,0
52960,-1.11962,-0.501086,0.236402,0
52980,-1.11872,-0.501445,0.236493,0
53000,-1.11811,-0.501457,0.236909,0
53020,-1.11787,-0.501717,0.237726,0
53040,-1.11797,-0.501606,0.23768,0
53060,-1.11789,-0.501639,0.23691,0
53080,-1.11801,-0.500336,0.23655,0
53100,-1.11873,-0.500063,0.236772,0
53120,-1.11855,-0.500536,0.236729,0
53140,-1.11901,-0.500861,0.23649,0
53160,-1.11839,-0.500826,0.235984,0
53180,-1.1171,-0.501056,0.235822,0
53200,-1.11549,-0.501834,0.235667,0
53220,-1.11489,-0.502446,0.235592,0
53240,-1.11637,-0.502562,0.236004,0
53260,-1.11761,-0.502706,0.235611,0
53280,-1.11683,-0.503371,0.234462,0
53300,-1.11415,-0.504288,0.23449,0
53320,-1.11266,-0.505601,0.236011,0
53340,-1.11251,-0.505845,0.237133,0
53360,-1.11381,-0.50593,0.23705,0
53370,-1.1156,-0.505393,0.237574,0
53390,-1.11619,-0.503979,0.239201,0
53410,-1.11557,-0.503368,0.240943,0
53430,-1.11379,-0.50295,0.241734,0
53450,-1.11242,-0.502846,0.242087,0
53470,-1.11139,-0.502792,0.242607,0
53490,-1.11134,-0.502703,0.242985,0
53510,-1.11095,-0.502285,0.243443,0
53530,-1.1111,-0.501376,0.24422,0
53550,-1.11112,-0.500235,0.244831,0
53570,-1.11116,-0.498816,0.245685,0
53590,-1.11008,-0.497366,0.246758,0
53610,-1.10866,-0.49718,0.247495,0
53630,-1.10826,-0.497072,0.248171,0
53650,-1.10926,-0.496092,0.248874,0
53670,-1.10892,-0.495307,0.249889,0
53690,-1.10829,-0.495593,0.252196,0
53710,-1.10776,-0.496859,0.254884,0
53730,-1.10845,-0.498528,0.25693,0
53750,-1.1104,-0.499697,0.25918,0
53770,-1.11253,-0.500285,0.261589,0
53790,-1.11495,-0.500805,0.265383,0
53810,-1.11578,-0.502556,0.269408,0
53830,-1.11487,-0.505307,0.272194,0
53850,-1.11502,-0.50874,0.273598,0
53870,-1.11745,-0.511796,0.275048,0
53890,-1.11931,-0.514997,0.27644,0
53910,-1.11904,-0.518882,0.27786,0
53930,-1.11593,-0.524078,0.278351,0
53950,-1.11147,-0.530676,0.278418,0
53970,-1.10952,-0.538596,0.279001,0
53990,-1.11044,-0.544906,0.28033,0
54010,-1.11146,-0.549605,0.282383,0
54030,-1.10956,-0.55387,0.284452,0
54050,-1.10658,-0.558631,0.286711,0
54070,-1.10526,-0.563473,0.289753,0
54090,-1.10443,-0.567406,0.291688,0
54110,-1.10354,-0.570253,0.292032,0
54130,-1.10124,-0.573813,0.292236,0
54150,-1.09826,-0.579113,0.293523,0
54170,-1.09697,-0.585183,0.296136,0
54190,-1.09638,-0.590513,0.298146,0
54210,-1.09745,-0.594896,0.298708,0
54230,-1.09978,-0.598632,0.299661,0
54250,-1.1036,-0.60271,0.300685,0
54270,-1.1066,-0.605478,0.299942,0
54290,-1.10929,-0.605201,0.298753,0
54310,-1.11023,-0.603626,0.297227,0
54330,-1.10945,-0.602077,0.294265,0
54350,-1.10643,-0.599502,0.289084,0
54370,-1.10425,-0.596525,0.281764,0
54390,-1.10345,-0.595136,0.275852,0
54410,-1.1015,-0.593594,0.272779,0
54430,-1.09934,-0.593234,0.268943,0
54450,-1.09982,-0.593613,0.265215,0
54470,-1.1024,-0.593692,0.26185,0
54490,-1.10572,-0.593228,0.258518,0
54510,-1.10811,-0.5922,0.255516,0
54530,-1.1096,-0.591635,0.252456,0
54550,-1.11156,-0.590963,0.249925,0
54570,-1.11446,-0.59007,0.247326,0
54590,-1.11892,-0.589539,0.244619,0
54610,-1.12454,-0.589717,0.242861,0
54630,-1.1311,-0.589518,0.241911,0
54650,-1.13735,-0.589853,0.24162,0
54670,-1.14373,-0.588296,0.241624,0
54690,-1.14806,-0.585535,0.242295,0
54710,-1.15103,-0.582483,0.244782,0
54730,-1.15485,-0.580353,0.247614,0
54750,-1.15757,-0.578777,0.24864,0
54770,-1.15986,-0.576703,0.249243,0
54790,-1.1626,-0.574367,0.24974,0
54810,-1.1641,-0.572981,0.250104,0
54830,-1.16445,-0.571788,0.250029,0
54850,-1.16393,-0.570816,0.249028,0
54870,-1.16242,-0.570402,0.247292,0
54890,-1.16159,-0.570266,0.245498,0
54910,-1.16162,-0.570267,0.243186,0
54930,-1.16196,-0.568981,0.239391,0
54950,-1.16023,-0.566115,0.235795,0
54970,-1.15637,-0.562787,0.233676,0
54990,-1.15373,-0.559537,0.231873,0
55010,-1.15175,-0.556948,0.229308,0
55030,-1.15045,-0.553752,0.22704,0
55050,-1.14884,-0.548999,0.225068,0
55070,-1.14669,-0.543159,0.223268,0
55090,-1.14484,-0.538588,0.221233,0
55110,-1.14349,-0.535838,0.22002,0
55130,-1.14281,-0.53434,0.22013,0
55150,-1.1423,-0.533339,0.219448,0
55170,-1.14201,-0.532835,0.216779,0
55190,-1.14272,-0.533123,0.214678,0
55210,-1.14255,-0.533116,0.214639,0
55230,-1.14139,-0.533326,0.215419,0
55250,-1.13885,-0.533486,0.214849,0
55270,-1.13763,-0.534577,0.214235,0
55290,-1.13894,-0.535927,0.213469,0
55310,-1.14031,-0.53679,0.21245,0
55330,-1.14089,-0.536641,0.212998,0
55350,-1.14097,-0.536874,0.214366,0
55370,-1.14037,-0.537575,0.213702,0
55390,-1.14038,-0.538509,0.213905,0
55410,-1.14061,-0.538493,0.215449,0
55430,-1.14201,-0.538109,0.215971,0
55450,-1.14323,-0.537797,0.215407,0
55470,-1.14321,-0.537757,0.215415,0
55480,-1.14202,-0.537323,0.215749,0
55500,-1.14016,-0.53661,0.216162,0
55520,-1.13949,-0.536092,0.216732,0
55540,-1.14049,-0.536081,0.216614,0
55560,-1.14092,-0.535971,0.216288,0
55580,-1.14079,-0.53573,0.216945,0
55600,-1.14015,-0.53588,0.217594,0
55620,-1.13931,-0.536755,0.217861,0
55640,-1.1394,-0.537323,0.218154,0
55660,-1.14038,-0.53795,0.218277,0
55680,-1.14041,-0.538511,0.218366,0
55700,-1.14022,-0.538941,0.219161,0
55720,-1.14031,-0.53909,0.220176,0
55740,-1.14094,-0.539017,0.220819,0
55760,-1.14122,-0.539117,0.220218,0
55780,-1.14111,-0.539226,0.220265,0
55800,-1.14105,-0.538822,0.220418,0
55820,-1.14096,-0.537857,0.220481,0
55840,-1.14131,-0.537692,0.220787,0
55860,-1.14079,-0.537165,0.221039,0
55880,-1.14037,-0.536422,0.221253,0
55900,-1.14036,-0.535612,0.221503,0
55920,-1.14071,-0.534358,0.221361,0
55940,-1.14057,-0.533122,0.221096,0
55960,-1.14052,-0.532936,0.221121,0
55980,-1.14052,-0.532936,0.221121,0
56000,-1.1415,-0.532597,0.221247,0
56020,-1.14217,-0.532788,0.220816,0
56040,-1.14223,-0.532624,0.220312,0
56060,-1.14256,-0.532211,0.219817,0
56080,-1.14251,-0.532025,0.219842,0
56100,-1.14187,-0.530886,0.220636,0
56120,-1.14013,-0.529373,0.22114,0
56140,-1.13795,-0.528764,0.221368,0
56160,-1.13716,-0.528733,0.222102,0
56180,-1.13667,-0.529051,0.223034,0
56200,-1.13567,-0.528649,0.224813,0
56220,-1.13403,-0.527583,0.22786,0
56240,-1.13272,-0.527305,0.231677,0
56260,-1.13171,-0.527934,0.235579,0
56280,-1.13131,-0.529243,0.239412,0
56300,-1.13168,-0.531393,0.243464,0
56320,-1.13083,-0.532905,0.248265,0
56340,-1.12824,-0.535058,0.252615,0
56360,-1.12558,-0.537466,0.25653,0
56380,-1.12276,-0.540833,0.25994,0
56400,-1.12139,-0.544387,0.26312,0
56420,-1.1212,-0.54737,0.265865,0
56440,-1.1205,-0.551063,0.268629,0
56460,-1.11917,-0.555209,0.27246,0
56480,-1.11736,-0.559318,0.275332,0
56500,-1.11731,-0.563459,0.277716,0
56520,-1.11995,-0.56797,0.281022,0
56540,-1.12294,-0.571336,0.28541,0
56560,-1.12384,-0.5745,0.289384,0
56580,-1.12224,-0.578822,0.291643,0
56600,-1.12199,-0.584321,0.293668,0
56620,-1.12243,-0.5893,0.295128,0
56640,-1.12196,-0.593053,0.296107,0
56660,-1.11886,-0.596392,0.294447,0
56680,-1.11328,-0.600593,0.291729,0
56700,-1.10775,-0.60508,0.28895,0
56720,-1.10282,-0.609928,0.284336,0
56740,-1.09978,-0.613949,0.278498,0
56760,-1.09767,-0.617933,0.27282,0
56770,-1.09444,-0.622504,0.267259,0
56790,-1.09217,-0.626975,0.261976,0
56810,-1.08877,-0.630893,0.256166,0
56830,-1.08661,-0.634343,0.252047,0
56850,-1.08732,-0.638175,0.248508,0
56870,-1.0884,-0.641922,0.24377,0
56890,-1.09017,-0.645343,0.237313,0
56910,-1.09536,-0.647734,0.229473,0
56930,-1.09824,-0.649865,0.223084,0
56950,-1.09825,-0.652398,0.219614,0
56970,-1.09614,-0.658303,0.217156,0
56990,-1.0969,-0.666772,0.212897,0
57010,-1.10292,-0.676412,0.206686,0
57030,-1.11361,-0.684985,0.200224,0
57050,-1.12597,-0.692446,0.195989,0
57070,-1.13781,-0.700413,0.195413,0
57090,-1.14787,-0.709141,0.196674,0
57110,-1.1589,-0.71708,0.198398,0
57130,-1.17192,-0.721944,0.200634,0
57150,-1.18383,-0.723195,0.205095,0
57170,-1.19585,-0.721358,0.213228,0
57190,-1.205,-0.718416,0.220277,0
57210,-1.20902,-0.715484,0.222339,0
57230,-1.21415,-0.712549,0.223717,0
57250,-1.22108,-0.709623,0.225988,0
57270,-1.22556,-0.706256,0.228026,0
57290,-1.22928,-0.704262,0.230337,0
57310,-1.23391,-0.702769,0.233687,0
57330,-1.24088,-0.700468,0.23761,0
57350,-1.24792,-0.697086,0.239825,0
57370,-1.25399,-0.693293,0.242262,0
57390,-1.25732,-0.689102,0.245583,0
57410,-1.25854,-0.684223,0.248649,0
57430,-1.26082,-0.679443,0.250027,0
57450,-1.26377,-0.674936,0.250581,0
57470,-1.26793,-0.671003,0.251668,0
57490,-1.2728,-0.666174,0.252571,0
57510,-1.27521,-0.662085,0.2522,0
57530,-1.27464,-0.659348,0.252869,0
57550,-1.27388,-0.657207,0.25294,2000
57570,-1.27405,-0.65573,0.252419,0
57590,-1.27466,-0.654446,0.250872,0
57610,-1.27548,-0.653217,0.249022,0
57630,-1.27496,-0.651312,0.247188,0
57650,-1.27373,-0.650055,0.246107,0
57670,-1.27358,-0.649485,0.245076,0
57690,-1.27262,-0.648692,0.243457,0
57710,-1.27299,-0.64757,0.242301,0
57730,-1.27326,-0.647063,0.241887,0
57750,-1.27321,-0.646402,0.241193,0
57770,-1.27459,-0.646476,0.241076,0
57790,-1.2758,-0.646687,0.241515,0
57810,-1.27674,-0.64654,0.241647,0
57830,-1.27621,-0.645944,0.240523,0
57850,-1.27502,-0.645639,0.239806,0
57870,-1.27586,-0.645951,0.240026,0
57890,-1.27655,-0.645831,0.239146,0
57910,-1.27596,-0.644811,0.237874,0
57930,-1.27491,-0.644381,0.237586,0
57950,-1.27422,-0.644217,0.237936,0
57970,-1.27422,-0.644217,0.237936,0
57990,-1.27446,-0.643875,0.237306,0
58010,-1.27543,-0.643427,0.23739,0
58030,-1.27587,-0.642373,0.237817,0
58050,-1.27567,-0.641348,0.23825,0
58070,-1.27522,-0.641207,0.238392,0
58090,-1.27512,-0.641311,0.238446,0
58110,-1.27632,-0.641645,0.23842,0
58130,-1.27839,-0.641958,0.237455,0
58150,-1.27946,-0.641731,0.236405,0
58170,-1.28171,-0.641807,0.235734,0
58190,-1.28416,-0.642313,0.235519,0
58210,-1.28665,-0.642973,0.233723,0
58230,-1.28958,-0.642865,0.232545,0
58250,-1.29226,-0.641802,0.232275,0
58270,-1.29381,-0.640431,0.231899,0
58290,-1.29468,-0.639551,0.231696,0
58310,-1.29541,-0.63889,0.231349,0
58330,-1.29538,-0.638712,0.231819,0
58350,-1.29309,-0.637864,0.232765,0
58370,-1.29079,-0.637663,0.233077,0
58390,-1.29002,-0.638782,0.232537,0
58410,-1.28905,-0.638326,0.232086,0
58430,-1.28837,-0.637849,0.232386,0
58450,-1.28719,-0.637342,0.232625,0
58470,-1.28556,-0.637074,0.23197,0
58490,-1.28371,-0.637037,0.231279,0
58510,-1.28149,-0.636018,0.231346,0
58530,-1.28044,-0.636201,0.230901,0
58550,-1.27983,-0.636864,0.229626,0
58570,-1.28036,-0.635974,0.228215,0
58590,-1.28098,-0.634877,0.22798,0
58610,-1.2813,-0.633196,0.227879,0
58630,-1.28102,-0.632123,0.227719,0
58650,-1.28136,-0.631303,0.22774,0
58670,-1.28294,-0.630259,0.227876,0
58690,-1.28407,-0.629256,0.228067,0
58710,-1.28446,-0.627788,0.228341,0
58730,-1.28365,-0.626986,0.22817,0
58750,-1.28285,-0.62644,0.227422,0
58760,-1.28199,-0.625082,0.226845,0
58780,-1.28146,-0.623729,0.225899,0
58800,-1.28008,-0.621969,0.225112,0
58820,-1.27875,-0.619748,0.224499,0
58840,-1.27706,-0.617579,0.22403,0
58860,-1.27569,-0.615547,0.224312,0
58880,-1.27465,-0.614331,0.224686,0
58900,-1.2742,-0.612859,0.224813,0
58920,-1.2736,-0.611399,0.225359,0
58940,-1.27199,-0.61016,0.226322,0
58960,-1.27007,-0.609969,0.227162,0
58980,-1.26757,-0.610557,0.227811,0
59000,-1.26544,-0.61164,0.228637,0
59020,-1.26427,-0.612899,0.229701,0
59040,-1.26264,-0.613834,0.230669,0
59060,-1.26031,-0.614629,0.232382,0
59080,-1.25858,-0.614984,0.234797,0
59100,-1.25787,-0.616074,0.2364,0
59120,-1.25643,-0.616258,0.237718,0
59140,-1.25552,-0.615665,0.23983,0
59160,-1.2538,-0.615304,0.241683,0
59180,-1.25069,-0.61524,0.242901,0
59200,-1.24725,-0.615331,0.243898,0
59220,-1.2458,-0.61522,0.246173,0
59240,-1.24386,-0.61495,0.24814,0
59260,-1.2404,-0.614739,0.249753,0
59280,-1.23691,-0.614896,0.250922,0
59300,-1.23366,-0.615098,0.252259,0
59320,-1.2316,-0.615431,0.253373,0
59340,-1.22975,-0.616231,0.254573,0
59360,-1.22749,-0.617016,0.255944,0
59380,-1.22427,-0.617929,0.256735,0
59400,-1.22094,-0.618705,0.257308,0
59420,-1.21719,-0.620752,0.257315,0
59440,-1.21349,-0.623154,0.257081,0
59460,-1.21036,-0.625158,0.256319,0
59480,-1.20884,-0.626629,0.255091,0
59500,-1.20784,-0.627547,0.253343,0
59520,-1.20519,-0.628865,0.250945,0
59540,-1.20044,-0.630502,0.249176,0
59560,-1.19657,-0.632099,0.247657,0
59580,-1.19298,-0.634041,0.245412,0
59600,-1.18992,-0.636286,0.242719,0
59620,-1.18786,-0.638188,0.240947,0
59640,-1.18548,-0.639881,0.238917,0
59660,-1.18274,-0.641954,0.236792,0
59680,-1.18021,-0.644362,0.234595,0
59700,-1.17867,-0.646092,0.232694,0
59720,-1.17751,-0.647257,0.230722,0
59740,-1.17534,-0.648858,0.22781,0
59760,-1.17257,-0.650609,0.225132,0
59780,-1.16975,-0.652383,0.222343,0
59800,-1.16761,-0.654868,0.219552,0
59820,-1.16567,-0.656833,0.216895,0
59840,-1.16403,-0.659259,0.214259,0
59860,-1.16281,-0.661171,0.211547,0
59880,-1.16055,-0.663053,0.207856,0
59900,-1.15779,-0.665415,0.203608,0
59920,-1.15523,-0.667655,0.199265,0
59940,-1.15182,-0.670158,0.194102,0
59960,-1.14747,-0.672442,0.188277,0
59980,-1.1426,-0.675136,0.181624,0
60000,-1.13637,-0.678269,0.173445,0
60020,-1.13051,-0.681425,0.164698,0
60040,-1.12476,-0.683896,0.15524,0
60060,-1.11809,-0.685654,0.14511,0
60080,-1.11021,-0.68821,0.134001,0
60100,-1.10209,-0.690967,0.121659,0
60120,-1.09338,-0.693356,0.107752,0
60140,-1.08379,-0.695482,0.0923836,0
60160,-1.07386,-0.696744,0.0763193,0
60180,-1.06218,-0.697932,0.0586374,0
60200,-1.04913,-0.699341,0.0401575,0
60220,-1.03651,-0.701438,0.0218822,0
60240,-1.02403,-0.703935,0.00241309,0
60260,-1.01088,-0.705893,-0.0182767,0
60280,-0.998075,-0.708468,-0.0389274,0
60300,-0.985173,-0.711368,-0.0597287,0
60320,-0.972132,-0.714441,-0.0815252,0
60340,-0.960322,-0.717124,-0.103498,0
60360,-0.948626,-0.719777,-0.125979,0
60380,-0.93723,-0.722782,-0.148429,0
60400,-0.926413,-0.726511,-0.170351,0
60420,-0.915278,-0.730295,-0.192603,0
60440,-0.904845,-0.734668,-0.215621,0
60460,-0.895223,-0.739067,-0.239337,0
60480,-0.885442,-0.743103,-0.263276,0
60500,-0.876482,-0.746289,-0.286964,0
60520,-0.867445,-0.749434,-0.310004,0
60540,-0.858396,-0.752929,-0.333123,0
60560,-0.849131,-0.756681,-0.356,0
60580,-0.84043,-0.760282,-0.377851,0
60600,-0.832262,-0.763434,-0.399746,0
60620,-0.824376,-0.765747,-0.42107,0
60640,-0.817634,-0.767812,-0.44035,0
60660,-0.81096,-0.769855,-0.457966,0
60680,-0.803737,-0.771823,-0.475147,0
60700,-0.7983,-0.773575,-0.490861,0
60720,-0.794003,-0.77481,-0.505258,0
60740,-0.789103,-0.775875,-0.518445,0
60760,-0.784605,-0.777052,-0.530457,0
60780,-0.780239,-0.778128,-0.542215,0
60800,-0.777238,-0.77775,-0.553046,0
60820,-0.774446,-0.775872,-0.562423,0
60840,-0.769929,-0.773669,-0.570981,0
60860,-0.76572,-0.771659,-0.577731,0
60880,-0.761738,-0.76993,-0.584586,0
60900,-0.758331,-0.767747,-0.591161,0
60920,-0.756018,-0.764986,-0.597345,0
60940,-0.754552,-0.761824,-0.601968,0
60960,-0.753052,-0.758623,-0.604542,0
60980,-0.752276,-0.754916,-0.606584,0
61000,-0.753919,-0.749596,-0.607168,0
61020,-0.757319,-0.742413,-0.607259,0
61040,-0.760441,-0.734597,-0.605736,0
61060,-0.762739,-0.726922,-0.602378,0
61080,-0.764111,-0.720797,-0.600427,0
61100,-0.767448,-0.714835,-0.598792,0
61120,-0.77398,-0.706622,-0.595451,0
61140,-0.780683,-0.697476,-0.590375,0
61160,-0.784281,-0.690032,-0.585317,0
61180,-0.785287,-0.682947,-0.581744,0
61200,-0.788344,-0.675052,-0.579077,0
61220,-0.793486,-0.66567,-0.575519,0
61240,-0.799424,-0.656108,-0.569623,0
61260,-0.803818,-0.647158,-0.562045,0
61280,-0.806568,-0.639092,-0.55513,0
61300,-0.810652,-0.630523,-0.548674,0
61320,-0.816164,-0.622317,-0.541798,0
61340,-0.822083,-0.615124,-0.533331,0
61360,-0.827247,-0.608514,-0.524503,0
61380,-0.832515,-0.602516,-0.515745,0
61400,-0.837481,-0.596601,-0.506611,0
61420,-0.841785,-0.591613,-0.497961,0
61440,-0.845003,-0.587237,-0.489414,0
61460,-0.849258,-0.582653,-0.481139,0
61480,-0.853887,-0.577927,-0.473194,0
61500,-0.858522,-0.572283,-0.464577,0
61520,-0.862752,-0.56664,-0.455484,0
61540,-0.866858,-0.561468,-0.44694,0
61560,-0.872268,-0.555592,-0.437522,0
61580,-0.877877,-0.549218,-0.427911,0
61600,-0.88318,-0.543381,-0.417729,0
61620,-0.887508,-0.538668,-0.407477,0
61640,-0.892413,-0.534631,-0.397409,0
61660,-0.898498,-0.530105,-0.386854,0
61680,-0.90405,-0.524925,-0.376516,0
61700,-0.908928,-0.520857,-0.365619,0
61720,-0.913251,-0.517273,-0.354177,0
61740,-0.918403,-0.513673,-0.342554,0
61760,-0.92337,-0.509968,-0.330691,0
61780,-0.929141,-0.506361,-0.318923,0
61800,-0.935283,-0.503553,-0.308037,0
61820,-0.94143,-0.500139,-0.297172,0
61840,-0.947102,-0.496617,-0.285402,0
61860,-0.951844,-0.49316,-0.274329,0
61880,-0.95657,-0.490218,-0.263498,0
61900,-0.962654,-0.487735,-0.252712,0
61920,-0.968226,-0.485687,-0.24151,0
61940,-0.973161,-0.484155,-0.230594,0
61960,-0.978023,-0.482659,-0.220111,0
61980,-0.983087,-0.481185,-0.210166,0
62000,-0.987788,-0.480728,-0.200239,0
62020,-0.991233,-0.480655,-0.19055,0
62040,-0.994873,-0.480937,-0.180955,0
62060,-1.00013,-0.481282,-0.170887,0
62080,-1.00617,-0.482364,-0.160632,0
62100,-1.01254,-0.483115,-0.150501,0
62120,-1.01815,-0.482304,-0.139996,0
62140,-1.02364,-0.480099,-0.127673,0
62160,-1.03001,-0.47834,-0.113438,0
62180,-1.03907,-0.476021,-0.0989725,0
62190,-1.05102,-0.47285,-0.0828502,0
62210,-1.06384,-0.470048,-0.0656876,0
62230,-1.07536,-0.468874,-0.0482726,0
62250,-1.08488,-0.46949,-0.0319451,0
62270,-1.09388,-0.471095,-0.0156334,0
62290,-1.10398,-0.473645,0.000961815,0
62310,-1.11391,-0.476498,0.0168387,0
62330,-1.12238,-0.480469,0.0321302,0
62350,-1.12958,-0.485084,0.0465321,0
62370,-1.13623,-0.490467,0.0600355,0
62390,-1.14368,-0.496304,0.0734162,0
62410,-1.15069,-0.501976,0.0859676,0
62430,-1.15677,-0.507724,0.0977604,0
62450,-1.16297,-0.513559,0.109431,0
62470,-1.16938,-0.520113,0.121243,0
62490,-1.17513,-0.527581,0.132697,0
62510,-1.18158,-0.535453,0.144149,0
62530,-1.18795,-0.54337,0.154827,0
62550,-1.1949,-0.552006,0.165585,0
62570,-1.20234,-0.560415,0.177189,0
62590,-1.21041,-0.568936,0.189032,0
62610,-1.218,-0.57771,0.199589,0
62630,-1.22366,-0.584761,0.21051,0
62650,-1.22968,-0.591029,0.223109,0
62670,-1.23554,-0.59922,0.236018,0
62690,-1.24167,-0.609172,0.2472,0
62710,-1.24986,-0.618783,0.25758,0
62730,-1.25891,-0.627523,0.268798,0
62750,-1.26622,-0.63707,0.280271,0
62770,-1.27097,-0.64827,0.289663,0
62790,-1.27422,-0.660029,0.297218,0
62810,-1.27926,-0.671937,0.303351,0
62830,-1.28671,-0.683595,0.309858,0
62850,-1.29455,-0.695514,0.315958,0
62870,-1.29969,-0.70671,0.319964,0
62890,-1.30199,-0.718108,0.321622,0
62910,-1.3057,-0.731074,0.322004,0
62930,-1.31174,-0.744584,0.321281,0
62950,-1.31693,-0.755746,0.318207,0
62970,-1.3193,-0.765717,0.312732,0
62990,-1.31907,-0.777112,0.3053,0
63010,-1.3188,-0.790434,0.296737,0
63030,-1.31965,-0.803144,0.285883,0
63050,-1.32074,-0.813643,0.273403,0
63070,-1.31862,-0.823887,0.257468,0
63090,-1.31378,-0.835978,0.240131,0
63120,-1.30087,-0.858058,0.200111,0
63140,-1.29232,-0.869088,0.174971,0
63160,-1.2812,-0.881179,0.14858,0
63180,-1.26862,-0.893809,0.121366,0
63200,-1.25398,-0.907442,0.0925332,0
63220,-1.23955,-0.920425,0.0620061,0
63240,-1.22635,-0.932236,0.031768,0
63260,-1.21047,-0.94405,0.000848234,0
63280,-1.19354,-0.955833,-0.0308877,0
63300,-1.17714,-0.966387,-0.0623785,0
63320,-1.15974,-0.975672,-0.0943553,0
63340,-1.1399,-0.984494,-0.128379,0
63360,-1.11858,-0.992846,-0.163305,0
63380,-1.09722,-1.00035,-0.198856,0
63400,-1.07611,-1.00714,-0.233312,0
63420,-1.05449,-1.01355,-0.267193,0
63440,-1.03075,-1.01913,-0.302122,0
63460,-1.00563,-1.02463,-0.337399,0
63480,-0.980613,-1.02871,-0.371523,0
63500,-0.957784,-1.03056,-0.402658,0
63520,-0.936821,-1.02973,-0.431403,0
63540,-0.917985,-1.02625,-0.456114,0
63560,-0.901039,-1.02089,-0.476586,0
63580,-0.88601,-1.01422,-0.492864,0
63600,-0.875542,-1.00621,-0.505923,0
63620,-0.869622,-0.996029,-0.514468,0
63640,-0.865726,-0.984263,-0.52005,0
63660,-0.862183,-0.972254,-0.523012,0
63680,-0.858936,-0.961003,-0.524372,0
63700,-0.855726,-0.949553,-0.526363,0
63720,-0.854695,-0.935432,-0.527695,0
63740,-0.858068,-0.919741,-0.524809,0
63760,-0.858499,-0.904127,-0.519739,0
63780,-0.855428,-0.889859,-0.516751,0
63800,-0.852679,-0.875744,-0.515515,0
63820,-0.856424,-0.859853,-0.511724,0
63840,-0.866037,-0.842426,-0.502455,0
63860,-0.87254,-0.825094,-0.489887,0
63880,-0.875497,-0.810027,-0.479771,0
63900,-0.878003,-0.796229,-0.47416,0
63920,-0.888689,-0.780286,-0.464956,0
63940,-0.903837,-0.762316,-0.45053,0
63960,-0.913389,-0.745596,-0.432839,0
63980,-0.916983,-0.733488,-0.419047,0
64000,-0.922492,-0.722081,-0.407822,0
64020,-0.934914,-0.709397,-0.394118,0
64040,-0.948738,-0.69733,-0.376284,0
64060,-0.95844,-0.687928,-0.357256,0
64080,-0.964865,-0.681171,-0.340324,0
64100,-0.973669,-0.674799,-0.322783,0
64120,-0.985723,-0.668413,-0.303047,0
64140,-0.997092,-0.662906,-0.283046,0
64150,-1.00607,-0.659234,-0.263555,0
64170,-1.01568,-0.656726,-0.244199,0
64190,-1.02687,-0.654287,-0.224877,0
64210,-1.0381,-0.651946,-0.205467,0
64230,-1.04754,-0.650925,-0.185948,0
64250,-1.05571,-0.650458,-0.166661,0
64270,-1.06466,-0.649779,-0.147323,0
64290,-1.07462,-0.649451,-0.128293,0
64310,-1.0848,-0.649074,-0.109774,0
64330,-1.09471,-0.64832,-0.0904863,0
64350,-1.10661,-0.648242,-0.0700172,0
64370,-1.11903,-0.648052,-0.0501377,0
64390,-1.13031,-0.647763,-0.0307601,0
64410,-1.14136,-0.647037,-0.0116967,0
64430,-1.15364,-0.645155,0.00884219,0
64450,-1.16717,-0.643994,0.0305163,0
64470,-1.18136,-0.64375,0.0512146,0
64490,-1.196,-0.643351,0.0707803,0
64510,-1.20957,-0.643072,0.0907683,0
64530,-1.22228,-0.643945,0.111382,0
64550,-1.23448,-0.648022,0.131705,0
64570,-1.24654,-0.65372,0.151384,0
64590,-1.25985,-0.659955,0.170302,0
64610,-1.27381,-0.668212,0.189099,0
64630,-1.28836,-0.677915,0.208053,0
64650,-1.30366,-0.68862,0.227274,0
64670,-1.31792,-0.699699,0.246077,0
64690,-1.33372,-0.711655,0.264405,0
64710,-1.35131,-0.72449,0.282664,0
64730,-1.36725,-0.737348,0.300482,0
64750,-1.38183,-0.750623,0.316847,0
64770,-1.39596,-0.76509,0.333244,0
64790,-1.41068,-0.77996,0.349158,0
64810,-1.42477,-0.794701,0.363502,0
64830,-1.43737,-0.809253,0.376292,0
64850,-1.45084,-0.823946,0.388653,0
64870,-1.46427,-0.839992,0.398734,0
64890,-1.47447,-0.855473,0.407878,0
64910,-1.48408,-0.871712,0.415623,0
64930,-1.49313,-0.889593,0.421854,0
64950,-1.50267,-0.907521,0.426987,0
64970,-1.51032,-0.924768,0.429646,0
64990,-1.51753,-0.942397,0.430924,0
65010,-1.52142,-0.960949,0.430234,0
65030,-1.52322,-0.981664,0.426968,0
65050,-1.52368,-1.00342,0.419756,0
65070,-1.5232,-1.02499,0.409161,0
65090,-1.51917,-1.04568,0.394459,0
65110,-1.51177,-1.06575,0.37718,0
65130,-1.50102,-1.08605,0.356298,0
65150,-1.48516,-1.10551,0.329678,0
65170,-1.46618,-1.12395,0.299965,0
65190,-1.4435,-1.14123,0.265354,0
65210,-1.41466,-1.15758,0.22481,0
65230,-1.37984,-1.17312,0.179786,0
65250,-1.34237,-1.18807,0.130923,0
65270,-1.30166,-1.19987,0.077677,0
65290,-1.25955,-1.20899,0.0234187,0
65310,-1.21458,-1.21562,-0.0324921,0
65330,-1.16877,-1.22031,-0.0879262,0
65350,-1.12437,-1.22259,-0.141395,0
65370,-1.07787,-1.22238,-0.197276,0
65390,-1.0324,-1.21969,-0.252395,0
65410,-0.992703,-1.21394,-0.300695,0
65430,-0.961112,-1.20439,-0.341342,0
65450,-0.935109,-1.19309,-0.372042,0
65470,-0.909876,-1.18197,-0.399808,0
65490,-0.883789,-1.1703,-0.42936,0
65510,-0.861365,-1.15658,-0.457706,0
65530,-0.845978,-1.14154,-0.478718,0
65550,-0.829084,-1.12646,-0.497704,0
65570,-0.810105,-1.11126,-0.51642,0
65590,-0.791961,-1.09625,-0.535288,0
65610,-0.778267,-1.08053,-0.550506,0
65630,-0.768457,-1.06495,-0.560734,0
65650,-0.761252,-1.05091,-0.567186,0
65670,-0.754509,-1.0373,-0.57482,0
65690,-0.752449,-1.02231,-0.58075,0
