Timestamp, Angle x, Angle y, Angle z, Marker
40,-1.32229,0.691779,2.6246,0
60,-1.32368,0.692281,2.62426,0
80,-1.32482,0.692979,2.6239,0
100,-1.32608,0.693389,2.62344,0
120,-1.32615,0.693631,2.62329,0
130,-1.32554,0.693804,2.62278,0
130,-1.32369,0.693331,2.62193,0
180,-1.32042,0.692216,2.62073,0
200,-1.31596,0.690918,2.61954,0
220,-1.31067,0.689492,2.61868,0
240,-1.30541,0.687834,2.61767,0
260,-1.3,0.686445,2.6168,0
280,-1.29482,0.685333,2.61578,0
300,-1.29039,0.683951,2.61486,0
320,-1.28637,0.682422,2.6147,0
340,-1.28262,0.680841,2.61476,0
360,-1.27866,0.677935,2.6144,0
380,-1.27523,0.675013,2.6138,0
400,-1.27334,0.671451,2.61249,0
420,-1.27335,0.665241,2.60921,0
440,-1.2713,0.656507,2.6048,0
460,-1.26834,0.647601,2.59928,0
480,-1.26507,0.639187,2.59408,0
500,-1.26198,0.632226,2.59074,0
520,-1.2595,0.627188,2.58865,0
540,-1.2609,0.622192,2.58558,0
560,-1.26418,0.617207,2.58243,0
580,-1.26974,0.612182,2.57973,0
600,-1.27534,0.607089,2.57877,0
620,-1.28107,0.602633,2.5785,0
640,-1.28546,0.598505,2.57908,0
660,-1.28737,0.594723,2.58094,0
680,-1.2877,0.591172,2.58349,0
700,-1.28673,0.588496,2.58663,0
720,-1.28613,0.585397,2.58993,0
740,-1.2857,0.5818,2.59404,0
760,-1.28443,0.578466,2.59992,0
780,-1.28256,0.575422,2.60713,0
800,-1.28129,0.572937,2.61465,0
820,-1.27987,0.570682,2.62244,0
840,-1.27814,0.568632,2.63123,0
860,-1.27542,0.566827,2.64075,0
880,-1.27304,0.565935,2.65063,0
900,-1.27052,0.565235,2.66172,0
920,-1.26733,0.564361,2.67328,0
940,-1.26366,0.563343,2.6841,0
960,-1.26054,0.5622,2.69405,0
980,-1.25736,0.56052,2.70297,0
1000,-1.25489,0.558899,2.71078,0
1020,-1.25179,0.55713,2.71716,0
1040,-1.24797,0.554968,2.72271,0
1060,-1.24347,0.552707,2.72834,0
1080,-1.23911,0.551008,2.7336,0
1100,-1.23481,0.549953,2.73786,0
1120,-1.23093,0.54982,2.74079,0
1130,-1.22874,0.551004,2.74204,0
1150,-1.22715,0.553056,2.74241,0
1170,-1.22542,0.555411,2.74098,0
1180,-1.22374,0.558083,2.73831,0
1200,-1.22022,0.561315,2.73598,0
1220,-1.21585,0.565178,2.73332,0
1240,-1.21249,0.569684,2.72962,0
1260,-1.21108,0.574169,2.72539,0
1280,-1.21051,0.578679,2.72091,0
1300,-1.21031,0.583766,2.71628,0
1320,-1.20985,0.589491,2.71081,0
1340,-1.2096,0.595858,2.70425,0
1360,-1.20979,0.601342,2.6965,0
1380,-1.20968,0.605051,2.68909,0
1400,-1.2089,0.605136,2.68354,0
1420,-1.2068,0.601272,2.68011,0
1440,-1.20268,0.595381,2.67862,0
1460,-1.19712,0.589945,2.67875,0
1480,-1.19342,0.586574,2.67852,0
1500,-1.19214,0.585925,2.67769,0
1520,-1.19352,0.586989,2.67655,0
1540,-1.19737,0.588039,2.67501,0
1560,-1.20165,0.588272,2.67353,0
1580,-1.20445,0.58698,2.67245,0
1600,-1.2056,0.584548,2.67182,0
1620,-1.20607,0.581472,2.67203,0
1640,-1.20596,0.578344,2.67236,0
1660,-1.20609,0.575658,2.67261,0
1680,-1.20649,0.572933,2.67279,0
1700,-1.2076,0.570347,2.67299,0
1720,-1.20895,0.568137,2.67404,0
1740,-1.21142,0.566813,2.67548,0
1760,-1.21469,0.564949,2.67664,0
1780,-1.21808,0.562225,2.67777,0
1800,-1.22059,0.559405,2.67869,0
1820,-1.22255,0.556808,2.67866,0
1840,-1.22416,0.554514,2.67808,0
1860,-1.22527,0.552307,2.67682,0
1880,-1.22633,0.549896,2.67553,0
1900,-1.22699,0.547692,2.67403,0
1920,-1.22745,0.545563,2.67262,0
1940,-1.228,0.543922,2.67122,0
1960,-1.22856,0.542254,2.67,0
1980,-1.22953,0.541173,2.66921,0
2000,-1.23065,0.540502,2.66879,0
2020,-1.23173,0.54004,2.66868,0
2040,-1.23271,0.539766,2.66859,0
2060,-1.23405,0.538993,2.66828,0
2080,-1.23397,0.53802,2.66857,0
2100,-1.23368,0.536616,2.66895,0
2120,-1.23359,0.53553,2.66958,0
2140,-1.23353,0.535507,2.67003,0
2160,-1.23433,0.535986,2.6693,0
2180,-1.2347,0.535487,2.66835,0
2200,-1.23417,0.534469,2.66756,0
2220,-1.23379,0.53351,2.66708,0
2240,-1.23356,0.533036,2.66688,0
2260,-1.23313,0.532707,2.66686,0
2280,-1.23301,0.532503,2.66653,0
2300,-1.23307,0.531923,2.66617,0
2320,-1.23306,0.531159,2.66577,0
2340,-1.23306,0.531159,2.66577,0
2360,-1.23277,0.531339,2.6653,0
2380,-1.23224,0.531154,2.66446,0
2400,-1.23206,0.530657,2.66372,0
2420,-1.23141,0.529971,2.66315,0
2440,-1.23069,0.529406,2.66249,0
2460,-1.22942,0.528959,2.66224,0
2480,-1.22774,0.528643,2.66186,0
2500,-1.22677,0.528392,2.6614,0
2520,-1.22598,0.527991,2.6615,0
2540,-1.22573,0.527473,2.6612,0
2560,-1.22479,0.527009,2.66117,0
2580,-1.2236,0.527315,2.66178,0
2600,-1.2234,0.527684,2.66254,0
2620,-1.22379,0.527887,2.66364,0
2640,-1.22448,0.527983,2.66458,0
2660,-1.22431,0.528332,2.66535,0
2680,-1.22336,0.529224,2.66636,0
2700,-1.22286,0.530042,2.66753,0
2720,-1.2237,0.530733,2.66914,0
2740,-1.2251,0.530755,2.67054,0
2760,-1.22642,0.530741,2.67137,0
2780,-1.22644,0.531017,2.67205,0
2800,-1.22658,0.531377,2.67232,0
2820,-1.22711,0.531979,2.67277,0
2840,-1.22817,0.531891,2.67272,0
2860,-1.22881,0.531286,2.67235,0
2880,-1.22881,0.531286,2.67235,0
2900,-1.22882,0.530988,2.67166,0
2920,-1.22834,0.530824,2.67165,0
2940,-1.22775,0.5305,2.67161,0
2960,-1.22827,0.530111,2.67107,0
2980,-1.22827,0.530111,2.67107,0
3000,-1.22843,0.530519,2.67143,0
3020,-1.22929,0.530994,2.67172,0
3040,-1.22982,0.531178,2.67202,0
3060,-1.23063,0.531216,2.67241,0
3080,-1.23032,0.530972,2.67251,0
3100,-1.22956,0.530468,2.67269,0
3120,-1.22832,0.529985,2.67261,0
3140,-1.22729,0.529216,2.67289,0
3160,-1.22615,0.528362,2.67304,0
3180,-1.225,0.52739,2.67299,0
3200,-1.22269,0.526349,2.67349,0
3220,-1.2205,0.525852,2.67456,0
3240,-1.21851,0.525506,2.67613,0
3260,-1.21659,0.525079,2.67808,0
3280,-1.2158,0.524629,2.68036,0
3300,-1.21546,0.524556,2.68222,0
3320,-1.21436,0.523938,2.68343,0
3340,-1.21182,0.522703,2.68513,0
3360,-1.20896,0.521785,2.68602,0
3380,-1.20674,0.52121,2.68724,0
3400,-1.20535,0.520642,2.68904,0
3420,-1.20498,0.520475,2.69051,0
3440,-1.20531,0.52004,2.69113,0
3460,-1.20496,0.5197,2.69157,0
3480,-1.20481,0.518867,2.6923,0
3500,-1.20458,0.518377,2.69355,0
3520,-1.2047,0.518036,2.69479,0
3540,-1.20502,0.518477,2.69547,0
3560,-1.20572,0.519464,2.69577,0
3580,-1.20676,0.520675,2.69595,0
3600,-1.20846,0.521865,2.69587,0
3620,-1.20988,0.522857,2.69598,0
3640,-1.21136,0.523801,2.69627,0
3660,-1.21312,0.525359,2.69673,0
3680,-1.21592,0.527027,2.69744,0
3700,-1.2189,0.528811,2.69856,0
3720,-1.22161,0.530101,2.69991,0
3740,-1.22502,0.53124,2.70079,0
3760,-1.22867,0.532749,2.70075,0
3780,-1.23294,0.53477,2.69904,0
3790,-1.23557,0.535867,2.69563,0
3810,-1.2378,0.53595,2.69217,0
3830,-1.23972,0.536207,2.68972,0
3850,-1.24162,0.536349,2.6878,0
3870,-1.24305,0.536667,2.68612,0
3890,-1.24368,0.53662,2.68537,0
3910,-1.24435,0.53648,2.68471,0
3930,-1.24574,0.536175,2.68338,0
3950,-1.24741,0.535947,2.68165,0
3970,-1.24879,0.535822,2.68008,0
3990,-1.25007,0.536074,2.67882,0
4010,-1.25061,0.536325,2.67774,0
4030,-1.25151,0.536614,2.67699,0
4050,-1.25269,0.536759,2.67654,0
4070,-1.25432,0.536747,2.67566,0
4090,-1.25566,0.536228,2.67449,0
4110,-1.25636,0.536241,2.67358,0
4130,-1.25654,0.536109,2.67267,0
4150,-1.25646,0.535686,2.67204,0
4170,-1.25619,0.53541,2.67141,0
4190,-1.2561,0.535297,2.67147,0
4210,-1.25634,0.535357,2.67133,0
4230,-1.2565,0.535535,2.6711,0
4250,-1.25682,0.535659,2.6708,0
4270,-1.25685,0.536358,2.67109,0
4290,-1.25694,0.537193,2.67132,0
4310,-1.25711,0.537911,2.67164,0
4330,-1.25735,0.538693,2.67179,0
4350,-1.25817,0.539408,2.67165,0
4370,-1.25907,0.539886,2.6712,0
4390,-1.25956,0.539816,2.67061,0
4410,-1.25997,0.539632,2.66991,0
4430,-1.26015,0.539196,2.66904,0
4450,-1.26018,0.538814,2.66825,0
4470,-1.26069,0.53825,2.66723,0
4490,-1.26114,0.537852,2.66622,0
4510,-1.26135,0.537575,2.66511,0
4530,-1.26098,0.537369,2.66429,0
4550,-1.26077,0.537411,2.66335,0
4570,-1.26127,0.537282,2.66175,0
4590,-1.26113,0.536667,2.66035,0
4610,-1.26155,0.536355,2.65871,0
4630,-1.26223,0.536031,2.65684,0
4650,-1.26185,0.536153,2.65579,0
4670,-1.26113,0.536524,2.65528,0
4690,-1.26119,0.53624,2.65488,0
4710,-1.26119,0.53624,2.65488,0
4730,-1.26141,0.53637,2.65484,0
4750,-1.26202,0.536575,2.65468,0
4770,-1.26177,0.536889,2.65487,0
4790,-1.26157,0.537156,2.65525,0
4810,-1.26174,0.537269,2.65565,0
4830,-1.26164,0.537394,2.6563,0
4850,-1.2618,0.537818,2.65721,0
4870,-1.26209,0.53802,2.65774,0
4890,-1.26256,0.538447,2.65814,0
4910,-1.26284,0.538904,2.65834,0
4930,-1.26287,0.539182,2.65847,0
4950,-1.26306,0.539646,2.65893,0
4970,-1.26342,0.540033,2.6595,0
4990,-1.26394,0.540487,2.66019,0
5010,-1.26415,0.540627,2.66088,0
5030,-1.2636,0.54025,2.6625,0
5050,-1.26327,0.540123,2.66446,0
5070,-1.26312,0.540112,2.66665,0
5090,-1.26336,0.539749,2.66783,0
5110,-1.2638,0.539299,2.66819,0
5130,-1.26381,0.539228,2.66809,0
5150,-1.26411,0.538158,2.66706,0
5170,-1.2628,0.537207,2.66563,0
5190,-1.2611,0.536736,2.66412,0
5210,-1.25894,0.536381,2.66275,0
5230,-1.25674,0.535452,2.66148,0
5250,-1.2548,0.534222,2.66056,0
5270,-1.25362,0.533313,2.65989,0
5290,-1.25258,0.532959,2.65978,0
5310,-1.25224,0.533226,2.6594,0
5330,-1.2521,0.533581,2.65943,0
5350,-1.25214,0.533906,2.65967,0
5370,-1.25276,0.534276,2.65999,0
5390,-1.25407,0.534548,2.65976,0
5410,-1.25482,0.534464,2.65894,0
5430,-1.25464,0.533887,2.6581,0
5450,-1.25454,0.533303,2.65699,0
5470,-1.25481,0.532684,2.65612,0
5490,-1.25513,0.532088,2.65553,0
5510,-1.25581,0.532059,2.65507,0
5530,-1.25666,0.53195,2.65472,0
5550,-1.25668,0.531879,2.65462,0
5570,-1.25711,0.531672,2.65411,0
5590,-1.25748,0.531511,2.65341,0
5610,-1.25748,0.531511,2.65341,0
5630,-1.25747,0.531883,2.65346,0
5650,-1.25695,0.532044,2.6534,0
5670,-1.25569,0.531866,2.65329,0
5690,-1.25451,0.531499,2.65316,0
5710,-1.25261,0.531329,2.65349,0
5730,-1.25161,0.530958,2.65339,0
5740,-1.25028,0.531202,2.65314,0
5760,-1.24905,0.531068,2.65257,0
5780,-1.24793,0.53133,2.65263,0
5800,-1.24714,0.531392,2.65317,0
5820,-1.24622,0.531663,2.65372,0
5840,-1.24576,0.53201,2.65443,0
5860,-1.24574,0.532311,2.65512,0
5880,-1.24588,0.53298,2.65588,0
5900,-1.24595,0.533578,2.65625,0
5920,-1.24621,0.534403,2.6565,0
5940,-1.24615,0.535169,2.65661,0
5960,-1.2459,0.535784,2.65676,0
5980,-1.2458,0.536647,2.65678,0
6000,-1.24571,0.53751,2.65681,0
6020,-1.24532,0.538526,2.65727,0
6040,-1.24484,0.539428,2.6578,0
6060,-1.24489,0.540237,2.65775,0
6080,-1.24447,0.540583,2.657,0
6100,-1.24364,0.540342,2.65584,0
6120,-1.24246,0.54,2.65498,0
6140,-1.24151,0.540138,2.65487,0
6160,-1.24106,0.540183,2.65491,0
6180,-1.24055,0.540324,2.65559,0
6200,-1.2406,0.540386,2.65616,0
6220,-1.24114,0.540503,2.6569,0
6240,-1.24126,0.540447,2.65755,0
6260,-1.24122,0.540819,2.65834,0
6280,-1.24104,0.541547,2.65916,0
6300,-1.24116,0.541984,2.66007,0
6320,-1.24141,0.541994,2.66158,0
6340,-1.24268,0.542126,2.66334,0
6360,-1.24414,0.54237,2.66478,0
6380,-1.2451,0.542055,2.66514,0
6400,-1.24555,0.541477,2.66456,0
6420,-1.24577,0.540674,2.6629,0
6440,-1.24605,0.539356,2.66026,0
6460,-1.24555,0.538748,2.65835,0
6480,-1.24401,0.539234,2.65747,0
6500,-1.2426,0.539598,2.65715,0
6520,-1.24206,0.539042,2.65754,0
6540,-1.24182,0.53854,2.65825,0
6560,-1.24195,0.538744,2.65858,0
6580,-1.24152,0.539597,2.65929,0
6600,-1.24188,0.540045,2.65923,0
6620,-1.24248,0.539975,2.6582,0
6640,-1.24245,0.539259,2.65615,0
6660,-1.24173,0.538181,2.6535,0
6680,-1.24059,0.537918,2.65128,0
6700,-1.23913,0.537463,2.65,0
6720,-1.23822,0.536935,2.64915,0
6740,-1.23768,0.53664,2.64867,0
6760,-1.23758,0.536368,2.64824,0
6780,-1.23792,0.535865,2.64803,0
6800,-1.23823,0.535501,2.64802,0
6820,-1.23823,0.535501,2.64802,0
6840,-1.23823,0.535501,2.64802,0
6860,-1.23788,0.534685,2.64803,0
6880,-1.23736,0.533716,2.64754,0
6900,-1.23677,0.532986,2.64716,0
6920,-1.23586,0.532318,2.64684,0
6940,-1.23495,0.531349,2.64656,0
6960,-1.23388,0.530504,2.64646,0
6980,-1.23306,0.529719,2.64623,0
7000,-1.23235,0.529319,2.64606,0
7020,-1.23105,0.528759,2.64634,0
7040,-1.23025,0.528365,2.64644,0
7060,-1.22995,0.528055,2.64644,0
7080,-1.22891,0.527974,2.64673,0
7100,-1.2283,0.527726,2.64679,0
7120,-1.22773,0.527799,2.64709,0
7140,-1.22725,0.528511,2.64786,0
7160,-1.22686,0.529219,2.64837,0
7180,-1.22688,0.529267,2.64847,0
7200,-1.22681,0.529085,2.64844,0
7220,-1.22643,0.52912,2.64894,0
7240,-1.22648,0.529595,2.64966,0
7260,-1.22674,0.530267,2.65044,0
7280,-1.22734,0.530437,2.65101,0
7300,-1.22803,0.530077,2.65078,0
7320,-1.22858,0.529919,2.6501,0
7340,-1.22928,0.529938,2.6492,0
7360,-1.22977,0.530132,2.64829,0
7380,-1.22958,0.530207,2.64837,0
7400,-1.22958,0.530207,2.64837,0
7420,-1.23008,0.530109,2.64851,0
7440,-1.23024,0.53021,2.64892,0
7460,-1.23061,0.5304,2.649,0
7480,-1.23063,0.530331,2.6489,0
7500,-1.23075,0.530189,2.64844,0
7520,-1.23096,0.530159,2.64791,0
7540,-1.23133,0.530193,2.64751,0
7560,-1.23133,0.530193,2.64751,0
7580,-1.23167,0.530178,2.64701,0
7600,-1.23179,0.530337,2.64651,0
7620,-1.23192,0.530312,2.64625,0
7640,-1.23192,0.530312,2.64625,0
7660,-1.23244,0.530447,2.64625,0
7680,-1.23279,0.530588,2.64623,0
7700,-1.23357,0.530829,2.64619,0
7720,-1.23415,0.531098,2.64613,0
7740,-1.23485,0.531039,2.64586,0
7760,-1.23475,0.530926,2.64592,0
7780,-1.2349,0.53087,2.64584,0
7800,-1.23491,0.530801,2.64574,0
7820,-1.23491,0.530801,2.64574,0
7840,-1.23479,0.531129,2.64596,0
7860,-1.23496,0.531122,2.64598,0
7880,-1.23496,0.531122,2.64598,0
7900,-1.23548,0.531257,2.64598,0
7920,-1.2359,0.531466,2.64635,0
7940,-1.23612,0.531633,2.64659,0
7960,-1.23612,0.531633,2.64659,0
7980,-1.23612,0.531633,2.64659,0
8000,-1.23612,0.531633,2.64659,0
8020,-1.23612,0.531633,2.64659,0
8040,-1.23631,0.531557,2.64651,0
8060,-1.23586,0.531605,2.64655,0
8080,-1.23534,0.531352,2.64634,0
8100,-1.23484,0.531265,2.64644,0
8120,-1.23432,0.53113,2.64644,0
8140,-1.2338,0.530996,2.64644,0
8160,-1.23336,0.531043,2.64647,0
8180,-1.23272,0.531052,2.64693,0
8200,-1.23243,0.531201,2.64737,0
8220,-1.23205,0.531539,2.64782,0
8240,-1.23147,0.531837,2.6487,0
8260,-1.23185,0.532371,2.64957,0
8280,-1.23172,0.532622,2.65042,0
8300,-1.23158,0.533019,2.65073,0
8320,-1.23151,0.533257,2.65085,0
8340,-1.2308,0.533196,2.65093,0
8360,-1.23022,0.533298,2.65104,0
8380,-1.22959,0.533421,2.65116,0
8400,-1.22959,0.533421,2.65116,0
8420,-1.22923,0.533504,2.65176,0
8440,-1.22891,0.533489,2.65245,0
8460,-1.22883,0.533306,2.65241,0
8480,-1.22868,0.532717,2.65229,0
8500,-1.22804,0.532078,2.65201,0
8520,-1.22819,0.531613,2.65159,0
8540,-1.22761,0.530885,2.65121,0
8560,-1.22661,0.52995,2.65046,0
8580,-1.22541,0.529123,2.64961,0
8600,-1.22386,0.528497,2.64902,0
8620,-1.2224,0.527753,2.64851,0
8640,-1.22143,0.527212,2.6481,0
8660,-1.22084,0.52686,2.64778,0
8680,-1.22039,0.526151,2.64742,0
8700,-1.21967,0.526126,2.64731,0
8720,-1.21911,0.526279,2.64698,0
8740,-1.21855,0.526014,2.6465,0
8760,-1.21831,0.525501,2.6462,0
8780,-1.21811,0.525086,2.64555,0
8800,-1.21774,0.524864,2.64519,0
8820,-1.21739,0.524573,2.64473,0
8840,-1.21696,0.524101,2.64423,0
8860,-1.21639,0.523536,2.64378,0
8880,-1.21597,0.523367,2.64324,0
8900,-1.21548,0.522949,2.64255,0
8920,-1.21521,0.522658,2.64183,0
8940,-1.21491,0.5222,2.64135,0
8960,-1.21443,0.521935,2.64115,0
8980,-1.2141,0.521613,2.64087,0
9000,-1.21398,0.521081,2.64031,0
9020,-1.21326,0.520307,2.63981,0
9040,-1.21299,0.519716,2.63913,0
9060,-1.21234,0.519008,2.63847,0
9080,-1.21174,0.518214,2.63771,0
9100,-1.21052,0.517616,2.63716,0
9120,-1.21002,0.517272,2.63658,0
9140,-1.21016,0.517974,2.63589,0
9150,-1.20823,0.518664,2.63645,0
9170,-1.20926,0.519518,2.63737,0
9190,-1.209,0.520069,2.63997,0
9210,-1.21113,0.52046,2.64107,0
9230,-1.21196,0.521616,2.64165,0
9250,-1.21251,0.523187,2.64235,0
9270,-1.21413,0.524215,2.64229,0
9290,-1.21567,0.524909,2.64226,0
9310,-1.21659,0.525124,2.64242,0
9330,-1.21766,0.525402,2.64271,0
9350,-1.21834,0.525863,2.64297,0
9370,-1.21861,0.526307,2.64317,0
9390,-1.2192,0.526621,2.64322,0
9410,-1.21975,0.526954,2.64326,0
9430,-1.22057,0.527208,2.64296,0
9450,-1.22057,0.527208,2.64296,0
9470,-1.2208,0.527451,2.64312,0
9490,-1.22083,0.527653,2.64316,0
9510,-1.22102,0.527916,2.64332,0
9530,-1.22123,0.52811,2.64338,0
9550,-1.22185,0.528287,2.64322,0
9570,-1.22253,0.528598,2.643,0
9590,-1.22306,0.528847,2.64266,0
9610,-1.22354,0.529265,2.64233,0
9630,-1.22354,0.529265,2.64233,0
9650,-1.22412,0.529648,2.64248,0
9670,-1.22501,0.530153,2.64232,0
9690,-1.22501,0.530153,2.64232,0
9710,-1.22501,0.530153,2.64232,0
9730,-1.22501,0.530153,2.64232,0
9750,-1.22518,0.530146,2.64234,0
9770,-1.22507,0.529915,2.6422,0
9790,-1.22499,0.530221,2.64242,0
9810,-1.22509,0.530335,2.64235,0
9830,-1.22501,0.530153,2.64232,0
9850,-1.22501,0.530153,2.64232,0
9870,-1.22477,0.530398,2.64241,0
9890,-1.22397,0.530716,2.64281,0
9910,-1.22328,0.530777,2.64308,0
9930,-1.22264,0.530785,2.64354,0
9950,-1.22264,0.530785,2.64354,0
9970,-1.22254,0.531381,2.6439,0
9990,-1.22302,0.532479,2.64459,0
10010,-1.22343,0.533697,2.64521,0
10030,-1.22365,0.53435,2.64571,0
10050,-1.22347,0.534697,2.64647,0
10070,-1.22385,0.534923,2.64684,0
10090,-1.22403,0.534847,2.64676,0
10110,-1.22403,0.534847,2.64676,0
10130,-1.22376,0.535075,2.64657,0
10150,-1.22389,0.535088,2.64659,0
10170,-1.22355,0.534879,2.64651,0
10190,-1.22292,0.534361,2.64644,0
10210,-1.2222,0.534033,2.64637,0
10230,-1.22136,0.533844,2.64623,0
10250,-1.22106,0.533499,2.64595,0
10270,-1.22051,0.533164,2.64591,0
10290,-1.21975,0.532856,2.64584,0
10310,-1.21826,0.532861,2.64646,0
10330,-1.21713,0.533309,2.64757,0
10350,-1.21616,0.533784,2.64843,0
10370,-1.21588,0.533931,2.64887,0
10390,-1.21545,0.534436,2.64935,0
10410,-1.21516,0.534699,2.65,0
10430,-1.21465,0.534753,2.65076,0
10450,-1.21424,0.535038,2.65167,0
10470,-1.2133,0.535258,2.65268,0
10490,-1.21232,0.535275,2.65364,0
10510,-1.21126,0.535296,2.65433,0
10530,-1.21052,0.535254,2.65495,0
10550,-1.20979,0.535145,2.65548,0
10570,-1.20935,0.535228,2.6558,0
10590,-1.20897,0.535527,2.65598,0
10610,-1.20815,0.535758,2.656,0
10630,-1.20729,0.535483,2.65602,0
10650,-1.20637,0.53511,2.65638,0
10670,-1.20595,0.534787,2.65636,0
10690,-1.20535,0.534842,2.65638,0
10710,-1.20488,0.535026,2.65662,0
10730,-1.20504,0.53502,2.65664,0
10750,-1.20495,0.534905,2.6567,0
10770,-1.20497,0.534837,2.6566,0
10790,-1.20487,0.534723,2.65666,0
10810,-1.20475,0.535048,2.65688,0
10830,-1.20486,0.535245,2.65721,0
10850,-1.20469,0.535283,2.65802,0
10870,-1.20468,0.535501,2.6586,0
10890,-1.20458,0.535387,2.65866,0
10910,-1.20475,0.53538,2.65868,0
10930,-1.20484,0.535495,2.65862,0
10950,-1.20482,0.535446,2.65852,0
10970,-1.20482,0.535446,2.65852,0
10990,-1.20482,0.535446,2.65852,0
11010,-1.20482,0.535446,2.65852,0
11030,-1.20491,0.535257,2.6585,0
11050,-1.20491,0.535257,2.6585,0
11070,-1.20532,0.535007,2.65842,0
11090,-1.20532,0.535007,2.65842,0
11110,-1.20599,0.535019,2.65824,0
11120,-1.20634,0.535276,2.65842,0
11140,-1.20636,0.535208,2.65832,0
11160,-1.20636,0.535208,2.65832,0
11180,-1.20636,0.535208,2.65832,0
11200,-1.20627,0.535094,2.65838,0
11220,-1.20627,0.535094,2.65838,0
11240,-1.20627,0.535094,2.65838,0
11260,-1.20627,0.535094,2.65838,0
11280,-1.20644,0.535087,2.6584,0
11300,-1.20645,0.535019,2.6583,0
11320,-1.20645,0.535019,2.6583,0
11340,-1.20645,0.535019,2.6583,0
11360,-1.20645,0.535019,2.6583,0
11380,-1.20643,0.534971,2.6582,0
11400,-1.20634,0.534856,2.65826,0
11420,-1.2065,0.53485,2.65828,0
11440,-1.20617,0.534338,2.65824,0
11460,-1.20583,0.533894,2.65829,0
11480,-1.20546,0.533705,2.65821,0
11500,-1.20546,0.533705,2.65821,0
11520,-1.20538,0.533523,2.65817,0
11540,-1.20538,0.533523,2.65817,0
11560,-1.20538,0.533523,2.65817,0
11580,-1.20529,0.533408,2.65823,0
11600,-1.20546,0.533402,2.65825,0
11620,-1.20548,0.533334,2.65815,0
11640,-1.20548,0.533334,2.65815,0
11660,-1.20505,0.533011,2.65813,0
11680,-1.20473,0.532499,2.65808,0
11700,-1.20473,0.532499,2.65808,0
11720,-1.20416,0.532115,2.65794,0
11740,-1.20432,0.532109,2.65796,0
11760,-1.2043,0.532546,2.65913,0
11780,-1.20526,0.533237,2.66003,0
11800,-1.20583,0.533202,2.66001,0
11820,-1.20609,0.53331,2.65997,0
11840,-1.20609,0.53331,2.65997,0
11860,-1.20616,0.533073,2.65985,0
11880,-1.20566,0.533174,2.65971,0
11900,-1.20505,0.533228,2.65972,0
11920,-1.20499,0.533162,2.65989,0
11940,-1.205,0.533094,2.65978,0
11960,-1.20491,0.532979,2.65984,0
11980,-1.20491,0.532979,2.65984,0
12000,-1.20484,0.532797,2.6598,0
12020,-1.20486,0.532845,2.6599,0
12040,-1.20486,0.532845,2.6599,0
12060,-1.20477,0.532731,2.65996,0
12080,-1.20491,0.532676,2.65988,0
12100,-1.20493,0.532608,2.65978,0
12120,-1.20493,0.532608,2.65978,0
12140,-1.20493,0.532608,2.65978,0
12160,-1.205,0.532488,2.65986,0
12180,-1.20502,0.53242,2.65976,0
12200,-1.20502,0.53242,2.65976,0
12220,-1.20515,0.532549,2.65998,0
12240,-1.20556,0.532637,2.66015,0
12260,-1.20607,0.532772,2.66015,0
12280,-1.20624,0.532766,2.66017,0
12300,-1.20621,0.532718,2.66007,0
12320,-1.20621,0.532718,2.66007,0
12340,-1.20635,0.53315,2.66025,0
12360,-1.2063,0.533658,2.66052,0
12380,-1.20579,0.533977,2.66096,0
12400,-1.2048,0.53406,2.66149,0
12420,-1.20428,0.534564,2.66224,0
12440,-1.20442,0.534728,2.66275,0
12460,-1.2051,0.535196,2.66301,0
12480,-1.20562,0.53609,2.66342,0
12500,-1.20611,0.537239,2.6637,0
12520,-1.20658,0.53849,2.66389,0
12540,-1.20626,0.539193,2.66416,0
12560,-1.20573,0.539125,2.66426,0
12580,-1.20514,0.538467,2.66397,0
12600,-1.20446,0.53724,2.66329,0
12620,-1.20423,0.535864,2.66219,0
12640,-1.2041,0.534117,2.66076,0
12660,-1.20349,0.532592,2.65885,0
12680,-1.20267,0.531025,2.6569,0
12700,-1.20146,0.529562,2.65501,0
12720,-1.19983,0.528115,2.65389,0
12740,-1.19811,0.526705,2.65331,0
12760,-1.19667,0.525552,2.65318,0
12780,-1.19584,0.524307,2.65321,0
12800,-1.1949,0.523319,2.65336,0
12820,-1.19353,0.522078,2.65359,0
12840,-1.19209,0.521263,2.65369,0
12860,-1.19056,0.520302,2.65358,0
12880,-1.18822,0.519162,2.65332,0
12900,-1.18567,0.518012,2.65329,0
12920,-1.18289,0.516995,2.65316,0
12940,-1.17939,0.516351,2.65382,0
12960,-1.17625,0.515504,2.65467,0
12980,-1.173,0.515202,2.65615,0
13000,-1.16982,0.514426,2.65765,0
13020,-1.1671,0.51388,2.65907,0
13040,-1.16507,0.513539,2.66035,0
13060,-1.16393,0.513792,2.66169,0
13080,-1.16307,0.513823,2.66267,0
13100,-1.16263,0.514078,2.6633,0
13120,-1.16213,0.514391,2.66375,0
13140,-1.16167,0.514836,2.66414,0
13160,-1.1612,0.5159,2.66529,0
13180,-1.16071,0.517168,2.66702,0
13200,-1.15976,0.518342,2.66933,0
13220,-1.15975,0.519378,2.67154,0
13240,-1.15961,0.519751,2.6737,0
13260,-1.1593,0.519868,2.6757,0
13280,-1.15861,0.519459,2.67707,0
13300,-1.15731,0.518855,2.67777,0
13320,-1.156,0.518176,2.6781,0
13340,-1.15444,0.518152,2.67869,0
13360,-1.15312,0.517776,2.67898,0
13380,-1.15204,0.517949,2.67969,0
13400,-1.15101,0.518521,2.6805,0
13420,-1.15068,0.519087,2.68113,0
13440,-1.1506,0.519524,2.68184,0
13460,-1.15108,0.519859,2.68244,0
13480,-1.15116,0.519335,2.68317,0
13500,-1.15183,0.519146,2.6824,0
13520,-1.15295,0.52098,2.68184,0
13540,-1.15472,0.523589,2.68099,0
13560,-1.15617,0.526074,2.68098,0
13580,-1.15777,0.527775,2.68128,0
13600,-1.16,0.529179,2.68114,0
13620,-1.16228,0.530454,2.68079,0
13640,-1.16461,0.532139,2.68007,0
13660,-1.16671,0.533459,2.67951,0
13680,-1.16864,0.534281,2.67892,0
13700,-1.17018,0.534439,2.67852,0
13720,-1.17157,0.534383,2.67804,0
13740,-1.17205,0.534014,2.67803,0
13760,-1.17266,0.534084,2.67766,0
13780,-1.1737,0.534076,2.67697,0
13800,-1.17494,0.533815,2.67589,0
13820,-1.1768,0.533555,2.67434,0
13840,-1.17907,0.533653,2.67263,0
13860,-1.18171,0.533755,2.67071,0
13880,-1.18431,0.534292,2.66895,0
13900,-1.18687,0.53484,2.66774,0
13920,-1.18907,0.53523,2.66674,0
13940,-1.1905,0.535674,2.66628,0
13960,-1.19159,0.535674,2.66587,0
13980,-1.19174,0.535619,2.66579,0
14000,-1.19166,0.535437,2.66575,0
14020,-1.19207,0.535612,2.66528,0
14040,-1.19304,0.535902,2.66482,0
14060,-1.19385,0.536164,2.66452,0
14080,-1.19476,0.536689,2.66465,0
14100,-1.1958,0.537344,2.665,0
14120,-1.19643,0.538012,2.66557,0
14140,-1.19698,0.538919,2.66627,0
14160,-1.19711,0.539724,2.66699,0
14180,-1.19752,0.540687,2.66777,0
14200,-1.19795,0.541616,2.66874,0
14220,-1.19803,0.541984,2.66956,0
14240,-1.1982,0.542129,2.67007,0
14260,-1.19828,0.542009,2.67014,0
14280,-1.19631,0.541156,2.66992,0
14300,-1.19539,0.540144,2.66803,0
14320,-1.19423,0.539383,2.66572,0
14340,-1.19321,0.539241,2.66436,0
14360,-1.19193,0.539135,2.66408,0
14380,-1.19049,0.538875,2.66485,0
14400,-1.18938,0.538334,2.66543,0
14420,-1.18886,0.537775,2.66581,0
14440,-1.18857,0.537161,2.66584,0
14460,-1.18836,0.537033,2.66588,0
14480,-1.18772,0.536887,2.66586,0
14500,-1.18698,0.536692,2.666,0
14510,-1.1863,0.536443,2.66632,0
14530,-1.18557,0.536328,2.66685,0
14550,-1.18487,0.536146,2.66727,0
14570,-1.1841,0.535781,2.66765,0
14590,-1.18355,0.535051,2.66826,0
14610,-1.18311,0.53437,2.66871,0
14630,-1.18272,0.533823,2.66911,0
14650,-1.18255,0.533404,2.66946,0
14670,-1.18255,0.533404,2.66946,0
14690,-1.18188,0.532972,2.66948,0
14710,-1.18118,0.53234,2.66945,0
14730,-1.18081,0.531581,2.66925,0
14750,-1.18077,0.530694,2.66889,0
14770,-1.1812,0.530167,2.66811,0
14790,-1.18123,0.529471,2.66725,0
14810,-1.18056,0.528743,2.66683,0
14830,-1.17949,0.527782,2.66622,0
14850,-1.17838,0.526991,2.66564,0
14870,-1.17728,0.525739,2.66562,0
14890,-1.17658,0.524268,2.66579,0
14910,-1.17599,0.52242,2.66617,0
14930,-1.17576,0.520616,2.66615,0
14950,-1.17571,0.519052,2.66548,0
14970,-1.17505,0.518038,2.66455,0
14990,-1.17409,0.517323,2.66355,0
15010,-1.17313,0.516902,2.66306,0
15030,-1.17215,0.516576,2.66295,0
15050,-1.17133,0.516271,2.66314,0
15070,-1.17045,0.515898,2.66349,0
15090,-1.16991,0.5159,2.66369,0
15110,-1.1697,0.515774,2.66372,0
15130,-1.16973,0.515945,2.66348,0
15150,-1.16993,0.516261,2.66321,0
15170,-1.17032,0.516616,2.66306,0
15190,-1.17059,0.51681,2.66287,0
15210,-1.17088,0.517116,2.66287,0
15230,-1.17104,0.517979,2.66297,0
15250,-1.17159,0.518782,2.66275,0
15270,-1.17216,0.519396,2.66276,0
15290,-1.1727,0.519394,2.66256,0
15310,-1.17316,0.519212,2.66232,0
15330,-1.17399,0.519214,2.66216,0
15350,-1.17455,0.519412,2.66201,0
15370,-1.17508,0.519713,2.66177,0
15390,-1.17492,0.51972,2.66176,0
15410,-1.1751,0.519647,2.66167,0
15430,-1.17478,0.519027,2.66142,0
15450,-1.17463,0.5184,2.66119,0
15470,-1.17479,0.518393,2.66121,0
15490,-1.17545,0.518402,2.66103,0
15510,-1.17603,0.51841,2.66111,0
15530,-1.17666,0.518249,2.66117,0
15550,-1.17729,0.518505,2.6614,0
15570,-1.17803,0.518516,2.66096,0
15590,-1.1782,0.518508,2.66098,0
15610,-1.17813,0.518327,2.66094,0
15630,-1.17813,0.518327,2.66094,0
15650,-1.17759,0.518329,2.66114,0
15670,-1.17688,0.518186,2.66137,0
15690,-1.17572,0.517773,2.66186,0
15710,-1.17472,0.517531,2.66267,0
15730,-1.17383,0.517205,2.66413,0
15750,-1.17291,0.516585,2.66616,0
15770,-1.17235,0.516037,2.66807,0
15790,-1.17146,0.515586,2.66986,0
15810,-1.17049,0.514878,2.67123,0
15830,-1.16916,0.514249,2.67265,0
15850,-1.16868,0.513833,2.6735,0
15870,-1.16809,0.513461,2.67389,0
15890,-1.16769,0.513142,2.67386,0
15910,-1.16721,0.512944,2.67375,0
15930,-1.16689,0.512626,2.67346,0
15950,-1.16672,0.512634,2.67344,0
15970,-1.16675,0.51268,2.67354,0
15990,-1.16636,0.512183,2.67321,0
16010,-1.16608,0.511846,2.67291,0
16030,-1.16564,0.511104,2.67243,0
16050,-1.16521,0.510445,2.67187,0
16070,-1.16425,0.509638,2.67148,0
16090,-1.16356,0.50905,2.67126,0
16110,-1.16296,0.508429,2.67096,0
16130,-1.16208,0.507679,2.67095,0
16150,-1.16104,0.507173,2.67079,0
16170,-1.15992,0.50679,2.67056,0
16190,-1.15887,0.506461,2.6707,0
16210,-1.15761,0.506034,2.67116,0
16230,-1.15658,0.505667,2.67148,0
16250,-1.15527,0.505297,2.67176,0
16270,-1.15383,0.504915,2.67202,0
16290,-1.15252,0.504519,2.67202,0
16310,-1.15085,0.503594,2.67186,0
16330,-1.14905,0.50307,2.67185,0
16350,-1.14755,0.502639,2.67173,0
16370,-1.1467,0.502367,2.67145,0
16390,-1.14638,0.502731,2.67148,0
16410,-1.14709,0.503222,2.67133,0
16430,-1.14761,0.503896,2.67145,0
16450,-1.14756,0.504764,2.67208,0
16470,-1.14659,0.505142,2.67257,0
16480,-1.14507,0.505623,2.67318,0
16500,-1.14298,0.505687,2.67353,0
16520,-1.14109,0.506026,2.67388,0
16540,-1.13915,0.506014,2.67387,0
16560,-1.13691,0.506173,2.67413,0
16580,-1.13471,0.506228,2.67447,0
16600,-1.13297,0.506516,2.67474,0
16620,-1.13109,0.506708,2.67507,0
16640,-1.12979,0.507251,2.67556,0
16660,-1.12881,0.508232,2.676,0
16680,-1.12733,0.508847,2.67658,0
16700,-1.12578,0.509694,2.67728,0
16720,-1.12395,0.51067,2.67762,0
16740,-1.1223,0.511575,2.67787,0
16760,-1.12067,0.512549,2.67769,0
16780,-1.1187,0.513212,2.67776,0
16800,-1.11665,0.514129,2.67824,0
16820,-1.11454,0.515234,2.67904,0
16840,-1.1128,0.516153,2.67986,0
16860,-1.11131,0.516939,2.68075,0
16880,-1.10974,0.517562,2.68189,0
16900,-1.10858,0.518045,2.68314,0
16920,-1.10732,0.518472,2.68454,0
16940,-1.10604,0.518657,2.68607,0
16960,-1.10486,0.518787,2.68724,0
16980,-1.10405,0.519322,2.68808,0
17000,-1.10262,0.519261,2.68862,0
17020,-1.10064,0.519439,2.68896,0
17040,-1.09852,0.519063,2.68915,0
17060,-1.09648,0.51844,2.68891,0
17080,-1.09499,0.517577,2.68887,0
17100,-1.09361,0.516651,2.68929,0
17120,-1.09282,0.516102,2.6896,0
17140,-1.09214,0.515608,2.68975,0
17160,-1.09214,0.515608,2.68975,0
17180,-1.09205,0.515491,2.68981,0
17200,-1.09277,0.515531,2.68971,0
17220,-1.09266,0.515476,2.68987,0
17240,-1.09248,0.515545,2.68996,0
17260,-1.0925,0.515591,2.69006,0
17280,-1.09156,0.514928,2.68987,0
17300,-1.09104,0.514197,2.68935,0
17320,-1.09064,0.513946,2.68941,0
17340,-1.09066,0.513884,2.68931,0
17360,-1.09095,0.513703,2.68985,0
17380,-1.09211,0.513945,2.69015,0
17400,-1.09351,0.514068,2.68972,0
17420,-1.09428,0.514145,2.68884,0
17440,-1.09453,0.514265,2.68798,0
17460,-1.09438,0.514393,2.68735,0
17480,-1.09389,0.514449,2.68684,0
17500,-1.09298,0.514209,2.6863,0
17520,-1.09197,0.513659,2.68575,0
17540,-1.09121,0.513171,2.68535,0
17560,-1.09096,0.512746,2.68484,0
17580,-1.09098,0.512321,2.68437,0
17600,-1.09091,0.512142,2.68432,0
17620,-1.09108,0.512134,2.68434,0
17640,-1.09108,0.512134,2.68434,0
17660,-1.0911,0.512072,2.68423,0
17680,-1.09116,0.512144,2.68408,0
17700,-1.09152,0.512396,2.68374,0
17720,-1.09152,0.512396,2.68374,0
17740,-1.09152,0.512396,2.68374,0
17750,-1.09119,0.512702,2.6834,0
17770,-1.09094,0.512763,2.68265,0
17790,-1.0901,0.512295,2.68197,0
17810,-1.08916,0.511367,2.68244,0
17830,-1.08849,0.510956,2.68078,0
17850,-1.08668,0.509153,2.67844,0
17870,-1.08427,0.50772,2.67722,0
17890,-1.08229,0.5072,2.67655,0
17910,-1.08113,0.506673,2.676,0
17920,-1.08038,0.506196,2.67559,0
17940,-1.08102,0.50619,2.67512,0
17960,-1.08175,0.506251,2.67478,0
17980,-1.08253,0.50655,2.67459,0
18000,-1.08314,0.507219,2.67476,0
18020,-1.08354,0.508312,2.67481,0
18040,-1.08314,0.510037,2.67418,0
18060,-1.08075,0.512603,2.67334,0
18080,-1.07761,0.515947,2.67351,0
18100,-1.07475,0.519156,2.67462,0
18120,-1.07338,0.521717,2.67621,0
18140,-1.0742,0.524029,2.67738,0
18160,-1.07652,0.526683,2.67826,0
18180,-1.07839,0.529001,2.679,0
18200,-1.0789,0.530225,2.67957,0
18220,-1.0776,0.531524,2.67975,0
18240,-1.07379,0.533412,2.6798,0
18260,-1.06765,0.535781,2.67955,0
18280,-1.0621,0.538044,2.67889,0
18300,-1.05824,0.539672,2.67817,0
18320,-1.05623,0.541949,2.67803,0
18340,-1.05582,0.544533,2.6787,0
18360,-1.05677,0.546845,2.67964,0
18380,-1.05828,0.548842,2.68063,0
18400,-1.06045,0.550337,2.68165,0
18420,-1.06248,0.551144,2.68283,0
18440,-1.06379,0.551416,2.6835,0
18460,-1.0632,0.551598,2.68405,0
18480,-1.06203,0.551485,2.68427,0
18500,-1.061,0.551123,2.68434,0
18520,-1.06035,0.550762,2.68446,0
18540,-1.0603,0.550886,2.6841,0
18560,-1.05952,0.550721,2.68398,0
18580,-1.05861,0.550216,2.68468,0
18600,-1.05808,0.549379,2.68568,0
18620,-1.05771,0.547509,2.68623,0
18640,-1.05732,0.546256,2.68676,0
18660,-1.05819,0.545569,2.68676,0
18680,-1.06,0.545126,2.68618,0
18700,-1.06127,0.544744,2.68592,0
18720,-1.06215,0.544305,2.68581,0
18740,-1.06186,0.543922,2.68622,0
18760,-1.06112,0.543857,2.68658,0
18780,-1.06004,0.543616,2.68686,0
18800,-1.05958,0.543187,2.68688,0
18820,-1.05927,0.54259,2.68631,0
18840,-1.05908,0.542248,2.68508,0
18860,-1.05908,0.542118,2.6831,0
18880,-1.05759,0.542656,2.68041,0
18900,-1.05486,0.544077,2.67626,0
18920,-1.05084,0.544378,2.67184,0
18940,-1.04594,0.543498,2.66766,0
18960,-1.04154,0.542006,2.66382,0
18980,-1.03843,0.540479,2.66038,0
19000,-1.03618,0.539406,2.65764,0
19020,-1.03523,0.538924,2.65565,0
19040,-1.03526,0.538322,2.65419,0
19060,-1.03491,0.537674,2.65379,0
19080,-1.03364,0.537539,2.65389,0
19100,-1.0324,0.538816,2.65402,0
19120,-1.03202,0.540627,2.65413,0
19140,-1.03157,0.542718,2.65477,0
19160,-1.03081,0.544734,2.65581,0
19180,-1.02906,0.547058,2.65667,0
19200,-1.02693,0.54898,2.65729,0
19220,-1.02444,0.55011,2.65783,0
19240,-1.02231,0.550663,2.65853,0
19260,-1.02103,0.550984,2.65923,0
19280,-1.01968,0.55129,2.65929,0
19300,-1.01886,0.551305,2.65856,0
19320,-1.01716,0.550861,2.65799,0
19340,-1.01507,0.550221,2.65787,0
19360,-1.01187,0.549749,2.65789,0
19380,-1.00878,0.54924,2.65753,0
19400,-1.00594,0.548592,2.65724,0
19420,-1.00325,0.547558,2.65713,0
19440,-1.00037,0.546534,2.657,0
19460,-0.996663,0.54498,2.65718,0
19480,-0.992949,0.543312,2.65807,0
19500,-0.989945,0.541859,2.65889,0
19520,-0.987822,0.540665,2.65979,0
19540,-0.986138,0.539698,2.66061,0
19560,-0.984813,0.538989,2.66109,0
19580,-0.98343,0.538668,2.66141,0
19600,-0.982535,0.538648,2.6615,0
19620,-0.982377,0.53866,2.66149,0
19640,-0.982381,0.538762,2.6617,0
19660,-0.982307,0.538895,2.66164,0
19680,-0.981608,0.538962,2.66132,0
19700,-0.980816,0.538621,2.66077,0
19720,-0.980152,0.538038,2.66006,0
19740,-0.979791,0.537742,2.65936,0
19760,-0.979634,0.537438,2.6587,0
19780,-0.979603,0.53739,2.6586,0
19800,-0.979788,0.537324,2.6585,0
19820,-0.979788,0.537324,2.6585,0
19840,-0.979703,0.537202,2.65855,0
19850,-0.979733,0.53725,2.65865,0
19870,-0.979733,0.53725,2.65865,0
19890,-0.979124,0.537059,2.65844,0
19910,-0.978858,0.53679,2.65815,0
19930,-0.978425,0.536381,2.65816,0
19950,-0.977992,0.535971,2.65817,0
19970,-0.977275,0.535816,2.65833,0
19990,-0.976616,0.535654,2.65848,0
20010,-0.976157,0.535299,2.6586,0
20030,-0.976072,0.535177,2.65865,0
20050,-0.976072,0.535177,2.65865,0
20070,-0.976072,0.535177,2.65865,0
20090,-0.976072,0.535177,2.65865,0
20110,-0.975914,0.535189,2.65864,0
20130,-0.975828,0.535068,2.65869,0
20150,-0.975859,0.535115,2.65879,0
20170,-0.975859,0.535115,2.65879,0
20190,-0.976044,0.535049,2.65869,0
20210,-0.9758,0.534939,2.65873,0
20230,-0.9758,0.534939,2.65873,0
20250,-0.9758,0.534939,2.65873,0
20270,-0.975745,0.534865,2.65888,0
20290,-0.975587,0.534877,2.65887,0
20310,-0.975587,0.534877,2.65887,0
20330,-0.975502,0.534755,2.65892,0
20350,-0.975502,0.534755,2.65892,0
20370,-0.976151,0.534582,2.65902,0
20390,-0.976604,0.534402,2.65938,0
20410,-0.977406,0.53443,2.65993,0
20430,-0.978102,0.534494,2.66085,0
20450,-0.978985,0.534676,2.66173,0
20470,-0.979505,0.534961,2.66243,0
20490,-0.980403,0.535266,2.66261,0
20510,-0.981094,0.535478,2.66256,0
20530,-0.981617,0.53563,2.66267,0
20550,-0.982427,0.536195,2.66274,0
20570,-0.983588,0.536486,2.66295,0
20590,-0.984764,0.536469,2.66316,0
20610,-0.985948,0.536739,2.66364,0
20630,-0.987185,0.536901,2.66391,0
20650,-0.989119,0.537276,2.66412,0
20670,-0.991149,0.5375,2.66467,0
20690,-0.993848,0.537893,2.66507,0
20710,-0.996992,0.538704,2.66545,0
20730,-1.00086,0.540129,2.66627,0
20750,-1.005,0.541818,2.66703,0
20770,-1.01025,0.543894,2.66781,0
20790,-1.01542,0.546399,2.66908,0
20810,-1.02041,0.548551,2.6705,0
20830,-1.0258,0.549938,2.67107,0
20850,-1.03051,0.550805,2.67169,0
20870,-1.03468,0.551789,2.67304,0
20890,-1.03825,0.552418,2.67479,0
20910,-1.04121,0.55219,2.67688,0
20930,-1.04382,0.550656,2.6779,0
20950,-1.04559,0.547952,2.67601,0
20970,-1.04536,0.544617,2.67263,0
20990,-1.04331,0.541063,2.66855,0
21010,-1.04,0.538546,2.66471,0
21030,-1.03677,0.536358,2.66117,0
21050,-1.03561,0.535062,2.65819,0
21070,-1.03533,0.53359,2.65591,0
21090,-1.0357,0.531813,2.65408,0
21110,-1.03548,0.530156,2.65295,0
21130,-1.03478,0.527999,2.65227,0
21150,-1.03391,0.525606,2.6517,0
21170,-1.03253,0.523719,2.6523,0
21190,-1.03069,0.522305,2.65371,0
21210,-1.02989,0.520714,2.65527,0
21230,-1.03041,0.518587,2.65666,0
21250,-1.03217,0.519047,2.65818,0
21270,-1.03404,0.519573,2.65955,0
21290,-1.03586,0.519515,2.66067,0
21310,-1.03727,0.519835,2.66184,0
21330,-1.03859,0.520489,2.66273,0
21350,-1.04097,0.521429,2.66317,0
21370,-1.04366,0.52199,2.66264,0
21390,-1.04637,0.522552,2.66183,0
21410,-1.04832,0.522965,2.66089,0
21430,-1.04963,0.523345,2.6595,0
21450,-1.04937,0.522554,2.65797,0
21470,-1.04764,0.520949,2.65669,0
21490,-1.04613,0.517709,2.65619,0
21510,-1.04378,0.512981,2.65655,0
21530,-1.04061,0.507052,2.65738,0
21550,-1.03701,0.500181,2.65806,0
21570,-1.03289,0.493011,2.65831,0
21590,-1.02793,0.486324,2.65836,0
21610,-1.0222,0.480669,2.65838,0
21630,-1.01776,0.476393,2.65775,0
21650,-1.01466,0.474103,2.65705,0
21670,-1.01522,0.472907,2.65635,0
21690,-1.0181,0.47304,2.65607,0
21710,-1.02215,0.474005,2.65618,0
21730,-1.02652,0.475382,2.65655,0
21750,-1.03095,0.477243,2.65695,0
21770,-1.03506,0.479049,2.65774,0
21790,-1.03925,0.480736,2.6586,0
21810,-1.04342,0.482154,2.65893,0
21820,-1.04679,0.483256,2.65878,0
21840,-1.04874,0.483896,2.65805,0
21860,-1.04947,0.48409,2.65711,0
21880,-1.04944,0.483997,2.65636,0
21900,-1.04937,0.483974,2.65544,0
21920,-1.04948,0.484221,2.65534,0
21940,-1.05043,0.485466,2.65525,0
21960,-1.05193,0.486777,2.65481,0
21980,-1.05363,0.487821,2.65477,0
22000,-1.0558,0.488985,2.65564,0
22020,-1.0576,0.489859,2.65674,0
22040,-1.05898,0.490404,2.65743,0
22060,-1.05974,0.49085,2.65811,0
22080,-1.06052,0.491292,2.6585,0
22100,-1.06157,0.491515,2.65825,0
22120,-1.06253,0.492168,2.65792,0
22140,-1.06335,0.492774,2.65746,0
22160,-1.06435,0.493065,2.65704,0
22180,-1.06541,0.493179,2.65631,0
22200,-1.06597,0.492891,2.65559,0
22220,-1.06607,0.492704,2.65556,0
22240,-1.06607,0.492704,2.65556,0
22260,-1.06627,0.49247,2.65517,0
22280,-1.06635,0.492342,2.65523,0
22300,-1.06635,0.492342,2.65523,0
22320,-1.06676,0.492627,2.65527,0
22340,-1.06828,0.492961,2.65502,0
22360,-1.07016,0.493455,2.65513,0
22380,-1.07188,0.493771,2.65517,0
22400,-1.07283,0.493798,2.6554,0
22420,-1.07301,0.493431,2.65561,0
22440,-1.07275,0.492996,2.65592,0
22460,-1.07273,0.492457,2.65578,0
22480,-1.07297,0.491964,2.65551,0
22500,-1.07323,0.491498,2.65499,0
22520,-1.07368,0.491065,2.65458,0
22540,-1.0736,0.490949,2.65463,0
22560,-1.07332,0.490765,2.65454,0
22580,-1.07335,0.490187,2.65378,0
22600,-1.07352,0.489606,2.65276,0
22620,-1.07356,0.488778,2.65184,0
22640,-1.07251,0.487871,2.65255,0
22660,-1.07135,0.48713,2.65438,0
22680,-1.07157,0.486365,2.65503,0
22700,-1.07163,0.48559,2.65449,0
22720,-1.07149,0.485026,2.65315,0
22740,-1.07093,0.48418,2.65179,0
22760,-1.06998,0.483259,2.65079,0
22780,-1.06824,0.482413,2.65061,0
22800,-1.06672,0.481649,2.65092,0
22820,-1.06541,0.481033,2.65095,0
22840,-1.06467,0.48104,2.65138,0
22860,-1.06452,0.48175,2.6518,0
22880,-1.06447,0.48222,2.65236,0
22900,-1.06456,0.482493,2.65316,0
22920,-1.06473,0.48264,2.65403,0
22940,-1.06486,0.482796,2.65463,0
22960,-1.06487,0.482846,2.65501,0
22980,-1.06502,0.483084,2.65518,0
23000,-1.06502,0.483084,2.65518,0
23020,-1.06531,0.483017,2.65512,0
23040,-1.06594,0.483251,2.65454,0
23060,-1.06665,0.483767,2.65504,0
23080,-1.06836,0.48503,2.65568,0
23100,-1.07123,0.486389,2.65444,0
23120,-1.07333,0.486809,2.65277,0
23140,-1.07482,0.487151,2.65225,0
23160,-1.07676,0.487414,2.65169,0
23180,-1.07807,0.48722,2.65075,0
23200,-1.07829,0.487064,2.64993,0
23220,-1.07857,0.487187,2.64937,0
23240,-1.0793,0.487023,2.64835,0
23260,-1.08013,0.487018,2.64739,0
23280,-1.08092,0.487081,2.64625,0
23300,-1.0816,0.487364,2.64462,0
23320,-1.08237,0.487511,2.64278,0
23340,-1.08193,0.487228,2.6422,0
23360,-1.08103,0.48725,2.64262,0
23380,-1.08074,0.487318,2.64268,0
23400,-1.08031,0.487227,2.64215,0
23420,-1.07999,0.487495,2.64144,0
23440,-1.07896,0.487601,2.64114,0
23460,-1.07794,0.487481,2.64187,0
23480,-1.0767,0.487307,2.643,0
23500,-1.07641,0.487288,2.64376,0
23520,-1.07635,0.487112,2.64371,0
23540,-1.07635,0.487112,2.64371,0
23560,-1.07644,0.487036,2.64416,0
23580,-1.0761,0.486841,2.64487,0
23600,-1.07553,0.486482,2.64552,0
23620,-1.07492,0.485941,2.64584,0
23640,-1.07385,0.485237,2.64634,0
23660,-1.0732,0.484565,2.64671,0
23680,-1.07243,0.483793,2.64713,0
23700,-1.07201,0.483018,2.64707,0
23720,-1.0716,0.482243,2.647,0
23740,-1.07089,0.481646,2.64747,0
23760,-1.07071,0.481437,2.6482,0
23780,-1.07047,0.481546,2.64892,0
23800,-1.07073,0.481648,2.64943,0
23820,-1.07115,0.481738,2.64996,0
23840,-1.07169,0.482075,2.65039,0
23860,-1.07196,0.482228,2.65129,0
23880,-1.07262,0.48218,2.65191,0
23900,-1.07253,0.482175,2.65244,0
23920,-1.07243,0.482333,2.65327,0
23940,-1.07213,0.482372,2.65413,0
23960,-1.07209,0.481675,2.6554,0
23980,-1.07229,0.48247,2.65887,0
24000,-1.07439,0.484364,2.659,0
24020,-1.07698,0.485325,2.65699,0
24040,-1.07699,0.485594,2.65607,0
24060,-1.07665,0.485754,2.65516,0
24080,-1.07644,0.485581,2.65481,0
24100,-1.07577,0.486144,2.65485,0
24120,-1.07514,0.48754,2.65528,0
24140,-1.07547,0.488558,2.65576,0
24160,-1.07693,0.489178,2.65602,0
24180,-1.07922,0.489806,2.6556,0
24200,-1.08149,0.490138,2.65491,0
24220,-1.08297,0.490186,2.65414,0
24240,-1.08416,0.49029,2.65316,0
24260,-1.08459,0.490054,2.65253,0
24280,-1.08457,0.489757,2.65228,0
24300,-1.08457,0.489757,2.65228,0
24320,-1.08527,0.489134,2.65214,0
24340,-1.08649,0.489053,2.65221,0
24360,-1.08835,0.489318,2.65218,0
24380,-1.09031,0.489396,2.65211,0
24400,-1.09188,0.489729,2.65215,0
24420,-1.09334,0.490058,2.65216,0
24440,-1.09336,0.489997,2.65206,0
24460,-1.09293,0.489761,2.65185,0
24480,-1.09212,0.489476,2.65176,0
24500,-1.09134,0.488944,2.65207,0
24520,-1.09043,0.488584,2.65293,0
24540,-1.08978,0.488761,2.65369,0
24560,-1.08933,0.488944,2.65394,0
24580,-1.08825,0.489274,2.65432,0
24600,-1.08729,0.48982,2.65512,0
24620,-1.08661,0.49036,2.65596,0
24640,-1.0859,0.490855,2.6567,0
24660,-1.08519,0.491234,2.65697,0
24680,-1.08471,0.491422,2.65694,0
24700,-1.08421,0.491555,2.65654,0
24720,-1.0836,0.491528,2.65609,0
24740,-1.08346,0.491529,2.65579,0
24760,-1.08369,0.491287,2.65568,0
24780,-1.08471,0.491138,2.6556,0
24800,-1.08604,0.491714,2.65575,0
24820,-1.0875,0.492538,2.65579,0
24840,-1.08935,0.493247,2.65541,0
24860,-1.09087,0.493648,2.65527,0
24880,-1.09132,0.49393,2.65558,0
24900,-1.09146,0.493739,2.65582,0
24920,-1.09181,0.493248,2.65557,0
24940,-1.09188,0.493122,2.65564,0
24960,-1.09188,0.493122,2.65564,0
24980,-1.09182,0.492945,2.6556,0
25000,-1.09182,0.492945,2.6556,0
25020,-1.09208,0.492456,2.65588,0
25040,-1.09267,0.492188,2.65608,0
25060,-1.09359,0.492364,2.65571,0
25080,-1.09425,0.492786,2.65518,0
25100,-1.09395,0.493155,2.65522,0
25120,-1.0933,0.493352,2.65518,0
25140,-1.09278,0.493661,2.65536,0
25160,-1.09204,0.493501,2.65549,0
25180,-1.09159,0.493324,2.65538,0
25200,-1.09037,0.493099,2.65534,0
25210,-1.0888,0.492763,2.6553,0
25230,-1.08654,0.492148,2.6552,0
25250,-1.08415,0.49159,2.65518,0
25270,-1.08236,0.491092,2.65509,0
25290,-1.08101,0.490683,2.65525,0
25310,-1.08,0.490339,2.65529,0
25330,-1.07852,0.490186,2.65586,0
25350,-1.07701,0.490257,2.65684,0
25370,-1.07579,0.49026,2.65775,0
25390,-1.07444,0.490318,2.65875,0
25410,-1.07304,0.490391,2.65975,0
25430,-1.07212,0.49057,2.66048,0
25450,-1.07112,0.490632,2.66126,0
25470,-1.06966,0.490527,2.66221,0
25490,-1.06853,0.490643,2.66307,0
25510,-1.06806,0.49064,2.66355,0
25530,-1.06746,0.490337,2.66375,0
25550,-1.06628,0.490113,2.66426,0
25570,-1.06524,0.489937,2.66488,0
25590,-1.06462,0.490047,2.66554,0
25610,-1.06436,0.490105,2.66589,0
25630,-1.06453,0.490285,2.66596,0
25650,-1.06562,0.49094,2.66536,0
25670,-1.06664,0.491802,2.66428,0
25690,-1.06723,0.492437,2.66326,0
25710,-1.06721,0.492932,2.66274,0
25730,-1.06735,0.493504,2.66209,0
25750,-1.0677,0.494544,2.66149,0
25760,-1.06787,0.495655,2.66098,0
25780,-1.06789,0.496742,2.66098,0
25800,-1.06779,0.497423,2.66106,0
25820,-1.06795,0.497413,2.66107,0
25840,-1.06864,0.497639,2.66132,0
25860,-1.06942,0.497844,2.66183,0
25880,-1.0699,0.498115,2.66242,0
25900,-1.06996,0.49835,2.66313,0
25920,-1.06999,0.498559,2.66409,0
25940,-1.07046,0.498838,2.66495,0
25960,-1.0707,0.499413,2.66576,0
25980,-1.07105,0.500019,2.66578,0
26000,-1.07105,0.500019,2.66578,0
26020,-1.0712,0.500095,2.66509,0
26040,-1.07132,0.500232,2.66451,0
26060,-1.07089,0.500683,2.66384,0
26080,-1.07044,0.501195,2.66327,0
26100,-1.06984,0.501414,2.6627,0
26120,-1.06909,0.501254,2.66229,0
26140,-1.06839,0.500782,2.66216,0
26160,-1.06815,0.500676,2.6622,0
26180,-1.06744,0.50056,2.66244,0
26200,-1.06687,0.500388,2.66259,0
26220,-1.06629,0.500381,2.66305,0
26240,-1.0656,0.500316,2.66367,0
26260,-1.0652,0.500184,2.66422,0
26280,-1.06488,0.500065,2.66451,0
26300,-1.06458,0.499991,2.6649,0
26320,-1.06414,0.500118,2.66533,0
26340,-1.06371,0.50035,2.66597,0
26360,-1.06317,0.500768,2.66664,0
26380,-1.06264,0.501186,2.66732,0
26400,-1.06256,0.501069,2.66737,0
26420,-1.06256,0.501069,2.66737,0
26440,-1.06256,0.501069,2.66737,0
26460,-1.06235,0.500897,2.66702,0
26480,-1.06185,0.500546,2.66686,0
26500,-1.06141,0.499964,2.66657,0
26520,-1.06109,0.499544,2.66632,0
26540,-1.06109,0.499544,2.66632,0
26560,-1.0608,0.499011,2.66615,0
26580,-1.06031,0.498358,2.666,0
26600,-1.06031,0.498358,2.666,0
26620,-1.06023,0.498241,2.66606,0
26640,-1.06028,0.498226,2.66605,0
26660,-1.0602,0.498109,2.6661,0
26680,-1.0602,0.498109,2.6661,0
26700,-1.0602,0.498109,2.6661,0
26720,-1.0602,0.498109,2.6661,0
26740,-1.06027,0.497982,2.66617,0
26760,-1.0603,0.497922,2.66607,0
26780,-1.0603,0.497922,2.66607,0
26800,-1.06027,0.497878,2.66597,0
26820,-1.06027,0.497878,2.66597,0
26840,-1.0603,0.497922,2.66607,0
26860,-1.0603,0.497922,2.66607,0
26880,-1.0603,0.497922,2.66607,0
26900,-1.06021,0.497805,2.66612,0
26920,-1.06021,0.497805,2.66612,0
26940,-1.06021,0.497805,2.66612,0
26960,-1.06039,0.497736,2.66603,0
26980,-1.06039,0.497736,2.66603,0
27000,-1.06039,0.497736,2.66603,0
27020,-1.06031,0.497619,2.66608,0
27040,-1.06031,0.497619,2.66608,0
27060,-1.06033,0.497559,2.66598,0
27080,-1.06041,0.497432,2.66605,0
27100,-1.06038,0.497387,2.66595,0
27120,-1.06038,0.497387,2.66595,0
27140,-1.06038,0.497387,2.66595,0
27160,-1.06054,0.497377,2.66596,0
27180,-1.06048,0.497201,2.66591,0
27190,-1.06048,0.497201,2.66591,0
27210,-1.06048,0.497201,2.66591,0
27230,-1.06048,0.497201,2.66591,0
27250,-1.0604,0.497084,2.66596,0
27270,-1.0604,0.497084,2.66596,0
27290,-1.0604,0.497084,2.66596,0
27310,-1.06058,0.497014,2.66587,0
27330,-1.06058,0.497014,2.66587,0
27350,-1.06058,0.497014,2.66587,0
27370,-1.06058,0.497014,2.66587,0
27390,-1.06066,0.496886,2.66594,0
27410,-1.06033,0.496717,2.66585,0
27430,-1.05976,0.496545,2.66601,0
27450,-1.05976,0.496545,2.66601,0
27470,-1.05976,0.496545,2.66601,0
27490,-1.05976,0.496545,2.66601,0
27510,-1.05992,0.496534,2.66602,0
27530,-1.05992,0.496534,2.66602,0
27550,-1.05984,0.496417,2.66607,0
27570,-1.05984,0.496417,2.66607,0
27590,-1.05986,0.496358,2.66597,0
27610,-1.05986,0.496358,2.66597,0
27630,-1.05986,0.496358,2.66597,0
27650,-1.05977,0.496241,2.66602,0
27670,-1.0598,0.496286,2.66612,0
27690,-1.06036,0.49611,2.66589,0
27710,-1.06086,0.496105,2.66568,0
27730,-1.06159,0.496267,2.66554,0
27750,-1.06195,0.496377,2.66553,0
27770,-1.06186,0.49626,2.66558,0
27790,-1.06202,0.49625,2.66559,0
27810,-1.06202,0.49625,2.66559,0
27830,-1.06205,0.49619,2.66549,0
27850,-1.06196,0.496074,2.66554,0
27870,-1.06196,0.496074,2.66554,0
27890,-1.06188,0.495957,2.6656,0
27910,-1.0619,0.495898,2.66549,0
27930,-1.06206,0.495887,2.66551,0
27950,-1.06206,0.495887,2.66551,0
27970,-1.06198,0.49577,2.66556,0
27990,-1.062,0.495711,2.66546,0
28010,-1.06213,0.495656,2.66537,0
28030,-1.06216,0.4957,2.66547,0
28050,-1.06208,0.495583,2.66552,0
28070,-1.06208,0.495583,2.66552,0
28090,-1.06208,0.495583,2.66552,0
28110,-1.06202,0.495407,2.66547,0
28130,-1.06202,0.495407,2.66547,0
28150,-1.06202,0.495407,2.66547,0
28170,-1.06218,0.495397,2.66549,0
28190,-1.06215,0.495352,2.66539,0
28210,-1.06215,0.495352,2.66539,0
28220,-1.0622,0.495337,2.66538,0
28240,-1.06212,0.495221,2.66544,0
28260,-1.06225,0.495165,2.66535,0
28280,-1.06219,0.495093,2.6655,0
28300,-1.06219,0.494989,2.6653,0
28320,-1.06219,0.494989,2.6653,0
28340,-1.06219,0.494989,2.6653,0
28360,-1.06226,0.494862,2.66537,0
28380,-1.06226,0.494862,2.66537,0
28400,-1.06226,0.494862,2.66537,0
28420,-1.06228,0.494803,2.66526,0
28440,-1.06223,0.494731,2.66542,0
28460,-1.06223,0.494731,2.66542,0
28480,-1.06239,0.49472,2.66543,0
28500,-1.06233,0.494544,2.66538,0
28520,-1.0623,0.494499,2.66528,0
28540,-1.0623,0.494499,2.66528,0
28560,-1.06246,0.494489,2.6653,0
28580,-1.0624,0.494313,2.66525,0
28600,-1.0624,0.494313,2.66525,0
28620,-1.06256,0.494302,2.66526,0
28640,-1.06256,0.494302,2.66526,0
28660,-1.06256,0.494302,2.66526,0
28680,-1.0625,0.494126,2.66521,0
28700,-1.0625,0.494126,2.66521,0
28720,-1.0625,0.494126,2.66521,0
28740,-1.06266,0.494115,2.66522,0
28760,-1.06266,0.494115,2.66522,0
28780,-1.06266,0.494115,2.66522,0
28800,-1.06258,0.493999,2.66528,0
28820,-1.06258,0.493999,2.66528,0
28840,-1.0626,0.493939,2.66517,0
28860,-1.06276,0.493929,2.66519,0
28880,-1.06268,0.493812,2.66524,0
28900,-1.06268,0.493812,2.66524,0
28920,-1.06268,0.493812,2.66524,0
28940,-1.06295,0.493806,2.66528,0
28960,-1.06295,0.493806,2.66528,0
28980,-1.06295,0.493806,2.66528,0
29000,-1.06295,0.493806,2.66528,0
29020,-1.06313,0.493736,2.66519,0
29050,-1.06388,0.493784,2.66512,0
29070,-1.06547,0.493755,2.66507,0
29090,-1.06712,0.494257,2.66542,0
29110,-1.06917,0.495247,2.66559,0
29130,-1.07057,0.496297,2.66604,0
29150,-1.07112,0.49738,2.66639,0
29170,-1.07206,0.498456,2.66652,0
29190,-1.07371,0.499511,2.66673,0
29210,-1.07521,0.500413,2.66663,0
29230,-1.07652,0.501245,2.66637,0
29250,-1.07719,0.501727,2.66622,0
29270,-1.07775,0.501846,2.66568,0
29290,-1.07756,0.501505,2.66503,0
29310,-1.07687,0.500612,2.66444,0
29330,-1.07609,0.499168,2.66397,0
29350,-1.07583,0.497913,2.66336,0
29370,-1.07598,0.496946,2.66278,0
29390,-1.07671,0.496508,2.6624,0
29410,-1.07772,0.49675,2.66215,0
29430,-1.07881,0.497275,2.66216,0
29450,-1.07964,0.498102,2.66238,0
29470,-1.08033,0.498742,2.66281,0
29490,-1.08099,0.499338,2.66314,0
29510,-1.08162,0.499201,2.66328,0
29530,-1.08198,0.498766,2.66341,0
29550,-1.08205,0.498039,2.66324,0
29570,-1.08198,0.497124,2.66328,0
29590,-1.08205,0.496397,2.66311,0
29610,-1.08307,0.495788,2.66247,0
29630,-1.08384,0.495586,2.66225,0
29650,-1.08468,0.49529,2.66158,0
29670,-1.08557,0.495336,2.66126,0
29690,-1.08675,0.495316,2.66087,0
29710,-1.08807,0.495242,2.66041,0
29730,-1.08926,0.495222,2.66002,0
29750,-1.09012,0.495222,2.6596,0
29770,-1.0911,0.494975,2.65905,0
29790,-1.09211,0.494773,2.6586,0
29810,-1.093,0.494712,2.65808,0
29830,-1.0941,0.494575,2.65775,0
29850,-1.09546,0.494737,2.65743,0
29870,-1.09687,0.495137,2.65727,0
29890,-1.09831,0.495427,2.65718,0
29910,-1.09952,0.49596,2.65721,0
29930,-1.10062,0.496487,2.65721,0
29950,-1.10163,0.4969,2.65727,0
29970,-1.10246,0.497129,2.65726,0
29990,-1.10314,0.497369,2.65723,0
30010,-1.1039,0.497724,2.65714,0
30030,-1.10458,0.498205,2.65699,0
30050,-1.1052,0.498509,2.65679,0
30070,-1.10576,0.498743,2.65674,0
30090,-1.1064,0.498986,2.65643,0
30110,-1.1072,0.499218,2.65614,0
30130,-1.10781,0.499569,2.65576,0
30150,-1.10823,0.499751,2.65559,0
30170,-1.10866,0.500041,2.65562,0
30190,-1.10916,0.500353,2.65567,0
30210,-1.10942,0.500774,2.65617,0
30230,-1.11008,0.501184,2.65644,0
30250,-1.11076,0.501548,2.65689,0
30270,-1.11108,0.501528,2.65693,0
30290,-1.11098,0.501352,2.6566,0
30310,-1.10973,0.501484,2.658,0
30330,-1.10569,0.501758,2.66141,0
30350,-1.09772,0.500605,2.66448,0
30370,-1.09028,0.498032,2.66655,0
30390,-1.08553,0.493676,2.66919,0
30410,-1.0791,0.487016,2.66882,0
30430,-1.07532,0.477088,2.66548,0
30450,-1.07402,0.464584,2.66153,0
30470,-1.07511,0.449815,2.65507,0
30490,-1.07877,0.432909,2.64675,0
30510,-1.08529,0.412802,2.63769,0
30530,-1.0948,0.387295,2.62807,0
30540,-1.1079,0.357701,2.6168,0
30560,-1.1189,0.323642,2.60555,0
30580,-1.12348,0.285843,2.59481,0
30600,-1.12245,0.243486,2.58511,0
30620,-1.12141,0.199055,2.57679,0
30640,-1.12249,0.153748,2.56855,0
30660,-1.1241,0.107845,2.56086,0
30680,-1.12538,0.0620365,2.55382,0
30700,-1.12465,0.0171599,2.54782,0
30720,-1.12326,-0.0279837,2.54204,0
30740,-1.12004,-0.0735673,2.53414,0
30760,-1.11498,-0.118257,2.52562,0
30780,-1.10961,-0.160971,2.5171,0
30800,-1.1039,-0.200983,2.50774,0
30820,-1.0959,-0.237364,2.49858,0
30840,-1.08671,-0.271293,2.4892,0
30860,-1.07625,-0.302644,2.47936,0
30880,-1.06283,-0.329345,2.46967,0
30900,-1.04674,-0.351974,2.46001,0
30920,-1.02931,-0.372262,2.44956,0
30940,-1.01229,-0.389859,2.43932,0
30960,-0.997862,-0.404221,2.4288,0
30980,-0.98664,-0.415571,2.41751,0
31000,-0.977103,-0.424811,2.40666,0
31020,-0.969966,-0.431034,2.39785,0
31040,-0.962416,-0.435379,2.39085,0
31060,-0.950248,-0.438825,2.3855,0
31080,-0.933926,-0.442437,2.37897,0
31100,-0.919687,-0.445275,2.37359,0
31120,-0.909541,-0.448218,2.36968,0
31140,-0.901349,-0.449829,2.36566,0
31160,-0.893169,-0.451367,2.36244,0
31180,-0.885944,-0.453539,2.36299,0
31200,-0.878542,-0.456512,2.36604,0
31220,-0.875513,-0.462004,2.37164,0
31240,-0.87912,-0.465488,2.38042,0
31260,-0.883946,-0.464974,2.38624,0
31280,-0.883245,-0.462625,2.38649,0
31300,-0.877495,-0.462376,2.38548,0
31320,-0.870934,-0.463451,2.38525,0
31340,-0.864821,-0.464682,2.3854,0
31360,-0.862376,-0.467439,2.38709,0
31380,-0.862735,-0.470783,2.38914,0
31400,-0.861508,-0.472782,2.38931,0
31420,-0.858349,-0.476476,2.38812,0
31440,-0.853521,-0.481458,2.38714,0
31460,-0.847787,-0.485027,2.38672,0
31480,-0.838799,-0.485242,2.38579,0
31500,-0.831129,-0.485188,2.38468,0
31520,-0.830508,-0.486359,2.38684,0
31540,-0.834545,-0.487578,2.38989,0
31560,-0.83806,-0.488585,2.3929,0
31580,-0.837144,-0.487795,2.39434,0
31600,-0.834874,-0.487131,2.39627,0
31620,-0.83468,-0.488061,2.39921,0
31640,-0.836217,-0.489742,2.40146,0
31660,-0.837446,-0.490996,2.40376,0
31680,-0.83729,-0.492803,2.40638,0
31700,-0.836791,-0.495372,2.40937,0
31720,-0.837803,-0.497158,2.41258,0
31740,-0.839852,-0.498609,2.41555,0
31760,-0.842048,-0.49998,2.41867,0
31780,-0.843333,-0.501258,2.42166,0
31800,-0.842719,-0.502448,2.42345,0
31820,-0.841566,-0.503125,2.42442,0
31840,-0.84031,-0.503246,2.42487,0
31860,-0.840208,-0.503412,2.42561,0
31880,-0.839908,-0.503617,2.42652,0
31900,-0.838863,-0.503809,2.42717,0
31920,-0.837252,-0.503517,2.42734,0
31940,-0.836046,-0.5035,2.4274,0
31960,-0.835992,-0.503939,2.42791,0
31980,-0.835872,-0.504633,2.42886,0
32000,-0.835307,-0.505354,2.4297,0
32020,-0.83442,-0.50647,2.43001,0
32040,-0.833673,-0.50774,2.43068,0
32060,-0.833856,-0.509031,2.43156,0
32080,-0.833629,-0.51019,2.43217,0
32100,-0.833258,-0.511339,2.43314,0
32120,-0.833372,-0.512536,2.43423,0
32140,-0.834262,-0.513647,2.43532,0
32160,-0.835142,-0.514327,2.43647,0
32180,-0.835933,-0.515281,2.43753,0
32200,-0.836746,-0.516124,2.43855,0
32220,-0.83736,-0.516513,2.43988,0
32240,-0.837394,-0.51695,2.44103,0
32260,-0.836847,-0.517124,2.44211,0
32280,-0.835913,-0.516994,2.44294,0
32300,-0.834545,-0.51709,2.44341,0
32320,-0.833531,-0.517174,2.44423,0
32340,-0.832362,-0.517154,2.44483,0
32360,-0.830796,-0.517117,2.44551,0
32380,-0.829116,-0.517217,2.44618,0
32400,-0.827817,-0.517221,2.44671,0
32420,-0.82691,-0.51699,2.44749,0
32440,-0.825813,-0.516802,2.44846,0
32460,-0.825679,-0.516702,2.44966,0
32480,-0.825954,-0.516029,2.45066,0
32500,-0.826327,-0.515019,2.45183,0
32510,-0.826406,-0.514465,2.45269,0
32530,-0.82711,-0.513884,2.45362,0
32550,-0.827992,-0.513308,2.4545,0
32570,-0.828714,-0.512614,2.45538,0
32590,-0.828703,-0.512334,2.45616,0
32610,-0.828597,-0.511849,2.45676,0
32630,-0.828773,-0.511513,2.45758,0
32650,-0.829416,-0.511042,2.45823,0
32670,-0.830662,-0.510432,2.45857,0
32690,-0.831392,-0.509464,2.4589,0
32710,-0.831929,-0.508299,2.45951,0
32730,-0.832123,-0.507086,2.45987,0
32750,-0.832169,-0.505708,2.46009,0
32770,-0.83217,-0.504076,2.46032,0
32790,-0.831734,-0.501958,2.45992,0
32810,-0.830807,-0.500148,2.45966,0
32830,-0.830118,-0.498697,2.45993,0
32850,-0.829293,-0.497254,2.46034,0
32870,-0.828773,-0.495859,2.4607,0
32890,-0.82804,-0.494695,2.46098,0
32910,-0.827967,-0.49398,2.46171,0
32930,-0.827918,-0.493622,2.46278,0
32950,-0.827506,-0.492861,2.46326,0
32970,-0.827825,-0.492469,2.46379,0
32990,-0.828141,-0.491843,2.46413,0
33010,-0.828769,-0.491436,2.46469,0
33030,-0.82911,-0.49071,2.46476,0
33050,-0.829584,-0.490198,2.4651,0
33070,-0.829982,-0.48991,2.46521,0
33090,-0.83042,-0.489399,2.46523,0
33110,-0.830878,-0.488777,2.4652,0
33130,-0.831275,-0.488255,2.46512,0
33150,-0.831733,-0.487633,2.46509,0
33170,-0.831706,-0.486558,2.46479,0
33190,-0.831591,-0.485522,2.4642,0
33210,-0.831236,-0.484341,2.46372,0
33230,-0.830072,-0.48276,2.46331,0
33250,-0.828912,-0.480864,2.46332,0
33270,-0.827535,-0.47935,2.46397,0
33290,-0.82668,-0.478303,2.465,0
33310,-0.825839,-0.477206,2.46589,0
33330,-0.825855,-0.475678,2.46695,0
33350,-0.826444,-0.473481,2.4688,0
33370,-0.827449,-0.471199,2.47029,0
33390,-0.827389,-0.468712,2.47078,0
33410,-0.826992,-0.465697,2.47116,0
33430,-0.826609,-0.461918,2.47137,0
33450,-0.826128,-0.457276,2.47151,0
33470,-0.825253,-0.45196,2.47184,0
33490,-0.823789,-0.446968,2.47279,0
33510,-0.821908,-0.442374,2.47392,0
33530,-0.820236,-0.437506,2.47469,0
33550,-0.819044,-0.432452,2.47538,0
33570,-0.818682,-0.427903,2.47667,0
33590,-0.818284,-0.424002,2.47798,0
33610,-0.818118,-0.420586,2.47973,0
33630,-0.818298,-0.417584,2.48151,0
33650,-0.818514,-0.41467,2.483,0
33670,-0.818813,-0.412193,2.48462,0
33690,-0.819137,-0.410198,2.4864,0
33710,-0.819217,-0.408655,2.48797,0
33730,-0.819072,-0.407226,2.48934,0
33750,-0.81909,-0.406266,2.49071,0
33770,-0.819125,-0.405424,2.49223,0
33790,-0.81923,-0.40473,2.49346,0
33810,-0.819291,-0.404087,2.4945,0
33830,-0.819394,-0.403929,2.49549,0
33850,-0.819616,-0.403811,2.49645,0
33870,-0.819918,-0.403538,2.49733,0
33890,-0.820113,-0.403587,2.49826,0
33910,-0.82008,-0.403806,2.49889,0
33930,-0.819738,-0.404159,2.49933,0
33950,-0.8194,-0.404456,2.49986,0
33970,-0.819041,-0.404863,2.50044,0
33990,-0.818774,-0.405478,2.50095,0
34010,-0.818627,-0.406134,2.50145,0
34030,-0.818551,-0.407108,2.50193,0
34050,-0.818493,-0.408029,2.50227,0
34070,-0.818578,-0.40905,2.50283,0
34090,-0.818641,-0.410183,2.50343,0
34110,-0.81822,-0.411286,2.50363,0
34130,-0.81828,-0.412305,2.50387,0
34150,-0.818636,-0.41336,2.50404,0
34170,-0.818975,-0.414297,2.50406,0
34190,-0.818953,-0.414407,2.50411,0
34210,-0.818953,-0.414407,2.50411,0
34230,-0.818948,-0.414465,2.50402,0
34250,-0.818927,-0.414575,2.50406,0
34270,-0.818768,-0.414527,2.50399,0
34290,-0.818768,-0.414527,2.50399,0
34310,-0.818648,-0.414487,2.50401,0
34330,-0.818447,-0.41483,2.5043,0
34350,-0.818198,-0.415333,2.50499,0
34370,-0.817847,-0.415915,2.50585,0
34390,-0.817681,-0.416206,2.50654,0
34410,-0.817461,-0.416542,2.50728,0
34430,-0.817799,-0.416809,2.50824,0
34450,-0.81812,-0.416958,2.50907,0
34470,-0.818217,-0.417218,2.50968,0
34490,-0.818132,-0.417125,2.51011,0
34510,-0.818289,-0.417283,2.51077,0
34530,-0.818289,-0.417283,2.51077,0
34550,-0.818268,-0.417394,2.51082,0
34570,-0.818268,-0.417394,2.51082,0
34590,-0.818619,-0.417264,2.5111,0
34610,-0.818948,-0.417245,2.51142,0
34630,-0.818909,-0.417237,2.51133,0
34650,-0.818888,-0.417347,2.51138,0
34670,-0.818883,-0.417405,2.51129,0
34690,-0.819118,-0.417178,2.51168,0
34710,-0.819192,-0.417132,2.51217,0
34730,-0.819373,-0.416951,2.5126,0
34750,-0.820011,-0.417022,2.5133,0
34770,-0.82037,-0.417006,2.51395,0
34790,-0.82067,-0.417092,2.51455,0
34810,-0.821034,-0.417019,2.51528,0
34830,-0.821173,-0.417177,2.5154,0
34850,-0.821173,-0.417177,2.5154,0
34870,-0.821249,-0.416902,2.51571,0
34890,-0.821251,-0.41631,2.51604,0
34910,-0.821013,-0.415639,2.5164,0
34930,-0.820707,-0.414593,2.51687,0
34950,-0.820081,-0.413683,2.51737,0
34970,-0.819518,-0.413087,2.51809,0
34990,-0.818186,-0.412836,2.51872,0
35010,-0.816545,-0.413083,2.51965,0
35030,-0.815201,-0.414239,2.52102,0
35050,-0.814105,-0.416353,2.5229,0
35070,-0.814566,-0.41877,2.52486,0
35090,-0.81592,-0.421395,2.52718,0
35110,-0.817778,-0.423984,2.53023,0
35130,-0.820183,-0.427665,2.534,0
35150,-0.823313,-0.432084,2.53766,0
35170,-0.826564,-0.437047,2.54177,0
35190,-0.830897,-0.442268,2.54817,0
35210,-0.838856,-0.448549,2.55577,0
35230,-0.849292,-0.45511,2.5641,0
35250,-0.862374,-0.462077,2.57487,0
35270,-0.878133,-0.470064,2.58712,0
35290,-0.89514,-0.480959,2.59717,0
35310,-0.912364,-0.495064,2.60578,0
35330,-0.930672,-0.51187,2.61399,0
35350,-0.949976,-0.530018,2.62329,0
35370,-0.96867,-0.550064,2.63166,0
35390,-0.98795,-0.573574,2.64052,0
35410,-1.00734,-0.600527,2.64885,0
35430,-1.02805,-0.628747,2.65756,0
35450,-1.04814,-0.659066,2.66648,0
35470,-1.06964,-0.691089,2.67713,0
35490,-1.09075,-0.726064,2.69133,0
35510,-1.11366,-0.76274,2.70819,0
35530,-1.13695,-0.799868,2.72413,0
35550,-1.16129,-0.83819,2.74255,0
35570,-1.18858,-0.874723,2.7653,0
35590,-1.21993,-0.909723,2.79372,0
35610,-1.2548,-0.94312,2.82636,0
35630,-1.29215,-0.972977,2.86276,0
35650,-1.3313,-0.999041,2.9016,0
35670,-1.37194,-1.02219,2.94037,0
35690,-1.41544,-1.04256,2.98327,0
35710,-1.4586,-1.05914,3.02806,0
35730,-1.50081,-1.07206,3.07334,0
35750,-1.54052,-1.08298,3.11574,0
35770,-1.57866,-1.09144,-3.12554,0
35790,-1.61369,-1.09687,-3.08769,0
35810,-1.64615,-1.10043,-3.05256,0
35830,-1.67848,-1.10216,-3.01667,0
35850,-1.70891,-1.10241,-2.98223,0
35870,-1.73696,-1.10299,-2.95116,0
35890,-1.76441,-1.10283,-2.92105,0
35900,-1.79123,-1.10116,-2.89152,0
35920,-1.81444,-1.0979,-2.86506,0
35940,-1.83366,-1.09512,-2.84266,0
35960,-1.85067,-1.09276,-2.8246,0
35980,-1.86431,-1.09018,-2.80989,0
36000,-1.87622,-1.08728,-2.79606,0
36020,-1.88486,-1.08499,-2.78568,0
36040,-1.89175,-1.08349,-2.77807,0
36060,-1.89653,-1.08289,-2.7741,0
36080,-1.89937,-1.0826,-2.77169,0
36100,-1.90181,-1.08134,-2.7678,0
36120,-1.90392,-1.07953,-2.76396,0
36140,-1.90437,-1.07817,-2.7626,0
36160,-1.90517,-1.07722,-2.76012,0
36180,-1.90642,-1.07633,-2.75739,0
36200,-1.90739,-1.07597,-2.75564,0
36220,-1.90692,-1.07558,-2.7547,0
36240,-1.90683,-1.07553,-2.75475,0
36280,-1.9011,-1.07127,-2.75708,0
36300,-1.89868,-1.0706,-2.75951,0
36330,-1.89298,-1.06915,-2.76436,0
36350,-1.89238,-1.06821,-2.76316,0
36370,-1.89231,-1.06674,-2.76124,0
36390,-1.89251,-1.06516,-2.76026,0
36410,-1.89232,-1.06458,-2.75955,0
36430,-1.8924,-1.0643,-2.75883,0
36450,-1.89276,-1.0638,-2.75746,0
36470,-1.89274,-1.06399,-2.75655,0
36490,-1.89209,-1.06387,-2.75587,0
36510,-1.89237,-1.06408,-2.75516,0
36530,-1.89252,-1.06389,-2.75388,0
36550,-1.89305,-1.06388,-2.752,0
36590,-1.89767,-1.06382,-2.74059,0
36610,-1.8989,-1.06274,-2.73711,0
36630,-1.89735,-1.06086,-2.73698,0
36650,-1.89618,-1.05926,-2.73695,0
36670,-1.8964,-1.05781,-2.73495,0
36690,-1.89761,-1.05704,-2.7313,0
36710,-1.90015,-1.05739,-2.72662,0
36730,-1.90365,-1.05858,-2.72165,0
36750,-1.90541,-1.06021,-2.71926,0
36770,-1.90697,-1.06242,-2.71725,0
36790,-1.90817,-1.06376,-2.71554,0
36810,-1.90778,-1.06378,-2.71609,0
36830,-1.90766,-1.06322,-2.71727,0
36850,-1.90738,-1.06205,-2.7188,0
36870,-1.90795,-1.06039,-2.71976,0
36890,-1.90869,-1.05906,-2.72059,0
36910,-1.90967,-1.0579,-2.72076,0
36930,-1.91053,-1.05688,-2.72097,0
36950,-1.91193,-1.05653,-2.72097,0
36970,-1.91275,-1.05666,-2.72172,0
36990,-1.91336,-1.05718,-2.72236,0
37010,-1.91422,-1.05728,-2.72276,0
37030,-1.91489,-1.05739,-2.72343,0
37050,-1.9151,-1.05769,-2.72518,0
37070,-1.91482,-1.05784,-2.72688,0
37090,-1.91542,-1.05784,-2.72778,0
37110,-1.91663,-1.05725,-2.72776,0
37140,-1.91996,-1.05523,-2.7258,0
37160,-1.92191,-1.05393,-2.72394,0
37180,-1.9231,-1.05233,-2.72218,0
37200,-1.92383,-1.05187,-2.72152,0
37220,-1.92459,-1.05217,-2.72142,0
37240,-1.92417,-1.05264,-2.72226,0
37260,-1.92166,-1.05402,-2.7258,0
37280,-1.91758,-1.05663,-2.73174,0
37300,-1.91063,-1.05969,-2.74093,0
37320,-1.90006,-1.0625,-2.75358,0
37340,-1.88725,-1.06555,-2.76872,0
37360,-1.87158,-1.06866,-2.78677,0
37380,-1.85245,-1.071,-2.8086,0
37400,-1.8306,-1.07241,-2.83427,0
37420,-1.80538,-1.07241,-2.86321,0
37440,-1.77692,-1.07156,-2.89618,0
37460,-1.74623,-1.06911,-2.93205,0
37480,-1.71492,-1.06451,-2.96907,0
37500,-1.68242,-1.05908,-3.00834,0
37520,-1.64821,-1.05327,-3.04948,0
37540,-1.61452,-1.04584,-3.0901,0
37560,-1.5827,-1.03623,-3.12957,0
37580,-1.55306,-1.02632,3.11554,0
37600,-1.52411,-1.01604,3.07888,0
37620,-1.49771,-1.00465,3.04533,0
37640,-1.47323,-0.991479,3.01357,0
37660,-1.4498,-0.978154,2.98314,0
37680,-1.42809,-0.964801,2.95507,0
37700,-1.40937,-0.950997,2.93029,0
37720,-1.39252,-0.936028,2.90752,0
37740,-1.37642,-0.920983,2.88562,0
37760,-1.36044,-0.907404,2.86482,0
37780,-1.34555,-0.893623,2.84626,0
37800,-1.33263,-0.878288,2.82932,0
37810,-1.32007,-0.863102,2.81269,0
37830,-1.30854,-0.849358,2.79764,0
37850,-1.29851,-0.835865,2.78448,0
37870,-1.29105,-0.820748,2.77373,0
37890,-1.28373,-0.805949,2.76327,0
37910,-1.27504,-0.793349,2.75271,0
37930,-1.26786,-0.78165,2.74481,0
37950,-1.26449,-0.76932,2.73977,0
37970,-1.26243,-0.757667,2.73488,0
37990,-1.2597,-0.747833,2.72969,0
38010,-1.25814,-0.7391,2.72612,0
38030,-1.25796,-0.73125,2.72419,0
38050,-1.25881,-0.724043,2.72329,0
38070,-1.26003,-0.718289,2.7226,0
38090,-1.2611,-0.713084,2.72188,0
38110,-1.26244,-0.708206,2.72214,0
38130,-1.26404,-0.703457,2.72358,0
38150,-1.26619,-0.699729,2.7255,0
38170,-1.26813,-0.696424,2.72729,0
38190,-1.27073,-0.693272,2.72967,0
38210,-1.2741,-0.689778,2.73264,0
38230,-1.27757,-0.686918,2.73574,0
38250,-1.28038,-0.684383,2.73821,0
38270,-1.28257,-0.682251,2.74084,0
38290,-1.28505,-0.679917,2.74423,0
38310,-1.28852,-0.677865,2.74804,0
38330,-1.2916,-0.675398,2.75109,0
38350,-1.29407,-0.673283,2.75357,0
38370,-1.29693,-0.671707,2.75601,0
38390,-1.29987,-0.66965,2.75827,0
38410,-1.30395,-0.666326,2.76069,0
38430,-1.30923,-0.663478,2.76268,0
38450,-1.31502,-0.660524,2.76395,0
38470,-1.32045,-0.657393,2.7643,0
38490,-1.3258,-0.652567,2.76315,0
38510,-1.32979,-0.645838,2.76007,0
38530,-1.33243,-0.638279,2.75553,0
38550,-1.33339,-0.631956,2.75055,0
38570,-1.33321,-0.624483,2.74517,0
38590,-1.3322,-0.617768,2.74026,0
38610,-1.33039,-0.611741,2.73521,0
38630,-1.32875,-0.60559,2.73098,0
38670,-1.32635,-0.594581,2.72456,0
38690,-1.32568,-0.590195,2.72188,0
38710,-1.32529,-0.58579,2.72004,0
38730,-1.32452,-0.582303,2.71871,0
38750,-1.32349,-0.579732,2.71801,0
38770,-1.32296,-0.578424,2.71801,0
38790,-1.32203,-0.577586,2.71777,0
38810,-1.32135,-0.576819,2.71796,0
38830,-1.32105,-0.576416,2.71832,0
38850,-1.32076,-0.576205,2.71881,0
38870,-1.31996,-0.576276,2.71927,0
38890,-1.31921,-0.576567,2.71993,0
38910,-1.3182,-0.576682,2.72021,0
38930,-1.31717,-0.576324,2.72047,0
38950,-1.31693,-0.575399,2.72117,0
38970,-1.31732,-0.573544,2.72188,0
38990,-1.31737,-0.571253,2.72243,0
39010,-1.31726,-0.568112,2.72333,0
39030,-1.31797,-0.563692,2.72514,0
39050,-1.31979,-0.557666,2.72777,0
39070,-1.32234,-0.550314,2.7296,0
39090,-1.32534,-0.54016,2.73108,0
39110,-1.32899,-0.526771,2.732,0
39130,-1.33174,-0.510714,2.73221,0
39150,-1.33397,-0.493334,2.73124,0
39170,-1.33686,-0.47491,2.72997,0
39190,-1.33917,-0.456946,2.72819,0
39210,-1.34113,-0.438956,2.72628,0
39230,-1.34272,-0.421938,2.72434,0
39250,-1.34384,-0.406369,2.72172,0
39270,-1.34419,-0.39261,2.71946,0
39290,-1.34333,-0.381031,2.71763,0
39310,-1.34154,-0.371987,2.7156,0
39330,-1.339,-0.36506,2.71354,0
39350,-1.33674,-0.359036,2.71182,0
39370,-1.3355,-0.353526,2.71072,0
39390,-1.3363,-0.347707,2.70971,0
39410,-1.33834,-0.341408,2.70867,0
39430,-1.34295,-0.334497,2.70693,0
39450,-1.35126,-0.326073,2.70493,0
39470,-1.3628,-0.31616,2.70256,0
39490,-1.379,-0.30488,2.69926,0
39510,-1.39691,-0.292956,2.69691,0
39530,-1.41137,-0.282752,2.69516,0
39550,-1.4234,-0.273265,2.69215,0
39570,-1.43153,-0.263984,2.68912,0
39590,-1.43924,-0.257521,2.6838,0
39610,-1.44666,-0.251822,2.67788,0
39630,-1.45324,-0.246428,2.67225,0
39650,-1.46029,-0.242177,2.66621,0
39670,-1.4649,-0.239276,2.66091,0
39690,-1.46881,-0.237413,2.65623,0
39710,-1.47258,-0.235709,2.65133,0
39730,-1.47714,-0.233524,2.64646,0
39750,-1.4819,-0.231298,2.64201,0
39770,-1.48497,-0.229142,2.63843,0
39790,-1.48653,-0.226639,2.63608,0
39810,-1.48591,-0.224552,2.63396,0
39830,-1.48368,-0.22243,2.63194,0
39850,-1.48054,-0.220346,2.63006,0
39870,-1.47612,-0.218103,2.629,0
39890,-1.46806,-0.21621,2.62848,0
39910,-1.45605,-0.215827,2.62848,0
39930,-1.44098,-0.217721,2.62824,0
39950,-1.42447,-0.222114,2.62713,0
39970,-1.40987,-0.227079,2.62585,0
39990,-1.39792,-0.231667,2.62484,0
40010,-1.38615,-0.236646,2.62359,0
40030,-1.37416,-0.24253,2.62165,0
40050,-1.362,-0.247293,2.61856,0
40070,-1.35038,-0.250848,2.61569,0
40090,-1.3387,-0.253552,2.61183,0
40110,-1.32772,-0.255097,2.60649,0
40130,-1.3181,-0.255079,2.60067,0
40150,-1.30876,-0.253869,2.59468,0
40170,-1.29886,-0.252275,2.58838,0
40190,-1.28728,-0.249895,2.58145,0
40210,-1.27523,-0.24627,2.57416,0
40230,-1.26309,-0.241531,2.56642,0
40250,-1.25141,-0.236044,2.5581,0
40270,-1.23898,-0.229401,2.54985,0
40290,-1.22611,-0.220765,2.54105,0
40310,-1.21376,-0.210898,2.53203,0
40330,-1.2009,-0.199379,2.52322,0
40350,-1.18838,-0.185474,2.51516,0
40370,-1.17521,-0.168745,2.50678,0
40390,-1.16086,-0.150461,2.49793,0
40410,-1.1454,-0.135045,2.49021,0
40430,-1.12988,-0.120506,2.48249,0
40450,-1.11419,-0.102747,2.47508,0
40470,-1.09832,-0.0844114,2.46777,0
40490,-1.08108,-0.0688,2.46072,0
40510,-1.06513,-0.055117,2.45543,0
40530,-1.05189,-0.0416272,2.45096,0
40550,-1.0391,-0.0288205,2.44795,0
40570,-1.02558,-0.0182678,2.44517,0
40590,-1.01303,-0.00886884,2.44286,0
40610,-1.00259,0.000166416,2.44104,0
40630,-0.992392,0.0074646,2.44026,0
40650,-0.981239,0.0127265,2.44087,0
40670,-0.972544,0.0174299,2.44159,0
40690,-0.966045,0.0233293,2.44161,0
40710,-0.961484,0.0287523,2.44012,0
40730,-0.957078,0.0325637,2.43931,0
40750,-0.953209,0.0356392,2.43977,0
40770,-0.950405,0.0394384,2.44034,0
40790,-0.948116,0.0448762,2.4402,0
40810,-0.94499,0.0498869,2.44034,0
40830,-0.943587,0.0536111,2.44064,0
40850,-0.943233,0.0577664,2.44021,0
40870,-0.943209,0.0626644,2.43884,0
40890,-0.942532,0.0669302,2.43808,0
40910,-0.94236,0.0700113,2.43823,0
40930,-0.942783,0.0726413,2.43819,0
40950,-0.943506,0.075025,2.43791,0
40970,-0.94452,0.0766482,2.43688,0
40990,-0.947158,0.0775361,2.43696,0
41010,-0.950063,0.0776802,2.43779,0
41030,-0.952108,0.0775499,2.43805,0
41050,-0.953548,0.0782008,2.43802,0
41070,-0.956319,0.0788672,2.43716,0
41090,-0.959364,0.0790439,2.43758,0
41110,-0.962477,0.0785524,2.43846,0
41130,-0.964892,0.0772435,2.43897,0
41150,-0.967753,0.0768598,2.43933,0
41170,-0.970956,0.0757192,2.43982,0
41190,-0.976174,0.0730929,2.44086,0
41210,-0.980222,0.0697208,2.4425,0
41220,-0.984871,0.0677456,2.44378,0
41240,-0.989765,0.0666833,2.44552,0
41260,-0.995585,0.065107,2.44919,0
41280,-1.00156,0.0625847,2.45496,0
41300,-1.0086,0.0611867,2.4612,0
41320,-1.01657,0.0608396,2.46626,0
41340,-1.02466,0.0595617,2.47158,0
41360,-1.03146,0.0578533,2.47787,0
41380,-1.04115,0.0580102,2.48514,0
41400,-1.05284,0.0601844,2.49061,0
41420,-1.06464,0.0616629,2.4958,0
41440,-1.07525,0.0633046,2.50074,0
41460,-1.0845,0.0671765,2.50655,0
41480,-1.09466,0.0728865,2.512,0
41500,-1.10861,0.0774217,2.5164,0
41520,-1.12315,0.0818468,2.51979,0
41540,-1.13704,0.0863195,2.52347,0
41560,-1.14715,0.089585,2.52624,0
41580,-1.1523,0.0912959,2.52787,0
41600,-1.15456,0.0921044,2.52967,0
41620,-1.15626,0.0926289,2.5315,0
41640,-1.15984,0.0916133,2.53345,0
41660,-1.1625,0.0896443,2.5335,0
41680,-1.16119,0.088482,2.53231,0
41700,-1.1603,0.0884972,2.53097,0
41720,-1.1612,0.0886754,2.52877,0
41740,-1.16207,0.0877304,2.52655,0
41760,-1.16022,0.0865721,2.52439,0
41780,-1.15772,0.0847857,2.52289,0
41800,-1.15751,0.0829219,2.52109,0
41820,-1.15777,0.08081,2.51888,0
41840,-1.15602,0.0775066,2.51658,0
41860,-1.15393,0.074067,2.51454,0
41880,-1.15325,0.0720132,2.51201,0
41900,-1.15487,0.0690578,2.50866,0
41920,-1.1577,0.0651499,2.50397,0
41940,-1.1591,0.0625146,2.49965,0
41960,-1.16061,0.0626102,2.4955,0
41980,-1.16314,0.0644422,2.49168,0
42000,-1.16615,0.067095,2.4884,0
42020,-1.17008,0.0699579,2.4842,0
42040,-1.1741,0.0730214,2.47894,0
42060,-1.17963,0.0756799,2.47331,0
42080,-1.18612,0.0771139,2.4685,0
42100,-1.19092,0.0778728,2.46563,0
42120,-1.19287,0.0779935,2.46366,0
42140,-1.19489,0.076597,2.46072,0
42160,-1.19808,0.0748909,2.45694,0
42180,-1.20399,0.0731802,2.45243,0
42200,-1.21131,0.0726753,2.44856,0
42220,-1.21998,0.0731886,2.44522,0
42240,-1.22902,0.0740319,2.44117,0
42260,-1.23853,0.0746849,2.43596,0
42280,-1.24863,0.0763074,2.43045,0
42300,-1.25797,0.0798244,2.42582,0
42320,-1.26698,0.0839685,2.4212,0
42340,-1.27735,0.0868227,2.41548,0
42360,-1.28804,0.0881653,2.40853,0
42380,-1.29768,0.0896191,2.40126,0
42400,-1.3059,0.0919596,2.39481,0
42420,-1.3132,0.0936332,2.38698,0
42440,-1.3198,0.0952305,2.37861,0
42460,-1.3253,0.0972288,2.36934,0
42480,-1.33008,0.0987579,2.35887,0
42500,-1.33371,0.100024,2.34802,0
42520,-1.33895,0.0989787,2.33627,0
42540,-1.34347,0.0966813,2.32314,0
42560,-1.34638,0.0952462,2.30916,0
42580,-1.34606,0.0952508,2.29597,0
42600,-1.34817,0.0932214,2.28327,0
42620,-1.35067,0.090345,2.27041,0
42640,-1.35252,0.0875099,2.25678,0
42660,-1.35557,0.0845375,2.24145,0
42680,-1.35739,0.0832416,2.22641,0
42700,-1.357,0.0834916,2.21181,0
42720,-1.35621,0.0833823,2.19659,0
42740,-1.35638,0.0812693,2.18055,0
42760,-1.35727,0.0789536,2.16511,0
42780,-1.35777,0.0776831,2.15111,0
42800,-1.35971,0.0782859,2.13772,0
42820,-1.36216,0.0798553,2.12304,0
42820,-1.36471,0.0811394,2.10729,0
42840,-1.36864,0.0820785,2.09166,0
42860,-1.37411,0.0841017,2.077,0
42880,-1.379,0.086996,2.06278,0
42900,-1.38212,0.0888434,2.04847,0
42920,-1.38492,0.0897058,2.03388,0
42940,-1.38852,0.0913181,2.01959,0
42960,-1.39228,0.0947803,2.00641,0
42980,-1.39735,0.100027,1.99402,0
43000,-1.40024,0.105894,1.98246,0
43020,-1.40335,0.110796,1.97033,0
43040,-1.40536,0.114331,1.95893,0
43060,-1.40621,0.116559,1.94931,0
43080,-1.4064,0.117849,1.94046,0
43100,-1.40607,0.118423,1.93074,0
43120,-1.40524,0.118584,1.91961,0
43140,-1.40245,0.119461,1.90888,0
43160,-1.39822,0.119016,1.89899,0
43170,-1.39355,0.116534,1.88863,0
43190,-1.38696,0.114574,1.87751,0
43210,-1.37909,0.113025,1.86546,0
43230,-1.3707,0.110393,1.85271,0
43250,-1.36226,0.107762,1.83984,0
43270,-1.35415,0.106098,1.82876,0
43290,-1.34698,0.105139,1.81829,0
43310,-1.34141,0.104994,1.80843,0
43330,-1.33893,0.105005,1.79959,0
43350,-1.33931,0.105365,1.79224,0
43370,-1.33941,0.10672,1.78846,0
43390,-1.33767,0.109193,1.78801,0
43410,-1.33196,0.111316,1.78762,0
43430,-1.32661,0.113332,1.78745,0
43450,-1.32209,0.116468,1.78846,0
43470,-1.32324,0.118547,1.79028,0
43490,-1.32611,0.119289,1.79175,0
43510,-1.3258,0.119533,1.79311,0
43530,-1.32203,0.11852,1.79468,0
43550,-1.31621,0.118732,1.79709,0
43570,-1.31096,0.120523,1.79874,0
43590,-1.30725,0.121423,1.79879,0
43610,-1.3044,0.122542,1.79786,0
43630,-1.30133,0.124896,1.79587,0
43650,-1.29942,0.127561,1.79245,0
43670,-1.29819,0.130396,1.78837,0
43690,-1.29561,0.133702,1.78392,0
43710,-1.29301,0.136634,1.7801,0
43730,-1.29208,0.139056,1.7762,0
43750,-1.29269,0.141803,1.77325,0
43770,-1.29287,0.144641,1.77166,0
43790,-1.29345,0.146365,1.77123,0
43810,-1.29176,0.147569,1.77136,0
43830,-1.28908,0.148429,1.77099,0
43850,-1.28847,0.150156,1.77072,0
43870,-1.29079,0.152192,1.77007,0
43890,-1.29326,0.153154,1.7701,0
43910,-1.29411,0.153398,1.77158,0
43930,-1.29308,0.15223,1.7732,0
43950,-1.2923,0.150123,1.774,0
43980,-1.28736,0.145953,1.77713,0
44000,-1.2852,0.145571,1.77935,0
44020,-1.28606,0.14599,1.78143,0
44040,-1.28821,0.147423,1.78439,0
44060,-1.28981,0.148597,1.78881,0
44080,-1.28983,0.149254,1.79378,0
44100,-1.28847,0.148809,1.7979,0
44120,-1.28721,0.146411,1.80085,0
44140,-1.28564,0.144012,1.80263,0
44160,-1.2827,0.143833,1.80346,0
44180,-1.27993,0.146028,1.80217,0
44200,-1.28004,0.148813,1.79878,0
44220,-1.28179,0.152171,1.7965,0
44240,-1.28077,0.156498,1.79599,0
44260,-1.27949,0.15835,1.79525,0
44280,-1.2804,0.157228,1.79405,0
44300,-1.28359,0.156638,1.79295,0
44320,-1.28538,0.16059,1.79413,0
44340,-1.2844,0.166605,1.79682,0
44360,-1.28457,0.169727,1.79879,0
44380,-1.28919,0.169792,1.79954,0
44400,-1.29569,0.169788,1.80188,0
44420,-1.29684,0.171031,1.80481,0
44440,-1.29354,0.170859,1.80534,0
44460,-1.29162,0.169814,1.80558,0
44480,-1.29368,0.168292,1.80649,0
44500,-1.2995,0.166711,1.80615,0
44520,-1.30079,0.165673,1.80613,0
44540,-1.29782,0.163572,1.80694,0
44560,-1.29438,0.162305,1.80807,0
44580,-1.29287,0.161809,1.80917,0
44600,-1.29563,0.160074,1.81,0
44620,-1.29802,0.158882,1.81108,0
44640,-1.29784,0.158694,1.8129,0
44660,-1.29718,0.158841,1.81408,0
44680,-1.29603,0.15826,1.81521,0
44700,-1.29558,0.156832,1.81667,0
44720,-1.29476,0.156266,1.81842,0
44740,-1.29346,0.157726,1.81854,0
44760,-1.29371,0.158455,1.81697,0
44780,-1.29596,0.157586,1.81507,0
44800,-1.29583,0.157748,1.81514,0
44820,-1.29132,0.159454,1.81585,0
44840,-1.28848,0.160836,1.81482,0
44860,-1.28948,0.161739,1.81114,0
44880,-1.29272,0.162265,1.80793,0
44900,-1.29566,0.162501,1.80709,0
44920,-1.29593,0.164238,1.80841,0
44940,-1.29363,0.167785,1.81084,0
44960,-1.29179,0.171371,1.81387,0
44980,-1.2919,0.173731,1.81835,0
45000,-1.29625,0.173933,1.82456,0
45020,-1.30118,0.172242,1.83118,0
45040,-1.30047,0.169882,1.83844,0
45060,-1.29581,0.167668,1.84738,0
45070,-1.29194,0.166785,1.85866,0
45090,-1.29189,0.166304,1.87068,0
45110,-1.29471,0.165462,1.88296,0
45130,-1.29466,0.163523,1.8963,0
45150,-1.29218,0.159268,1.91001,0
45170,-1.28921,0.15399,1.9239,0
45190,-1.28599,0.148954,1.93865,0
45210,-1.28436,0.142779,1.95429,0
45230,-1.28451,0.136358,1.97078,0
45250,-1.28391,0.129278,1.98777,0
45270,-1.28061,0.121753,2.00551,0
45290,-1.27669,0.114718,2.0242,0
45310,-1.27495,0.109388,2.04458,0
45330,-1.2753,0.104312,2.06567,0
45350,-1.27657,0.0979061,2.08742,0
45370,-1.27719,0.0905872,2.11,0
45390,-1.27572,0.0821555,2.13354,0
45410,-1.27324,0.0720095,2.15832,0
45430,-1.26867,0.0594255,2.1834,0
45450,-1.26415,0.0455257,2.20934,0
45470,-1.26113,0.0312891,2.23682,0
45500,-1.2586,0.000259012,2.29589,0
45520,-1.25891,-0.0159018,2.32651,0
45540,-1.26055,-0.0314215,2.35813,0
45560,-1.26314,-0.0463795,2.38982,0
45580,-1.26649,-0.0607137,2.42085,0
45600,-1.27109,-0.0749279,2.45143,0
45620,-1.27654,-0.0885562,2.48094,0
45640,-1.28223,-0.100904,2.50982,0
45660,-1.28737,-0.112886,2.53782,0
45680,-1.29146,-0.124768,2.56471,0
45700,-1.29547,-0.135439,2.59083,0
45720,-1.29948,-0.144709,2.61653,0
45740,-1.30425,-0.152258,2.64143,0
45760,-1.30932,-0.158475,2.66554,0
45780,-1.31396,-0.163531,2.68858,0
45800,-1.31836,-0.167593,2.71043,0
45820,-1.32281,-0.171004,2.73042,0
45840,-1.32605,-0.173355,2.74742,0
45860,-1.32782,-0.173853,2.76087,0
45880,-1.32861,-0.17266,2.77096,0
45900,-1.32912,-0.170141,2.77827,0
45920,-1.32905,-0.16653,2.78359,0
45940,-1.32853,-0.162529,2.78694,0
45960,-1.32692,-0.158774,2.78924,0
45980,-1.32469,-0.155283,2.79084,0
46000,-1.32231,-0.15168,2.79233,0
46020,-1.32177,-0.147183,2.79412,0
46040,-1.32355,-0.141709,2.79647,0
46060,-1.32634,-0.136016,2.79857,0
46080,-1.32956,-0.131075,2.79938,0
46100,-1.33325,-0.126843,2.79962,0
46120,-1.33722,-0.122633,2.80052,0
46140,-1.34037,-0.119362,2.80235,0
46160,-1.34211,-0.116952,2.80446,0
46180,-1.34282,-0.11508,2.80661,0
46200,-1.34413,-0.113552,2.80846,0
46220,-1.34572,-0.112875,2.80975,0
46240,-1.34694,-0.112649,2.81073,0
46260,-1.34705,-0.112569,2.81143,0
46280,-1.3475,-0.112594,2.81193,0
46300,-1.34776,-0.112551,2.81284,0
46320,-1.3474,-0.112313,2.81363,0
46340,-1.34736,-0.111817,2.81482,0
46360,-1.34816,-0.111177,2.81604,0
46380,-1.34912,-0.111482,2.81746,0
46400,-1.3507,-0.11199,2.8192,0
46420,-1.3519,-0.112731,2.82112,0
46440,-1.3528,-0.113791,2.82239,0
46460,-1.35371,-0.115393,2.823,0
46480,-1.35476,-0.117402,2.82292,0
46500,-1.35472,-0.119234,2.8228,0
46520,-1.35383,-0.121839,2.82185,0
46540,-1.35305,-0.1242,2.8203,0
46550,-1.35176,-0.126053,2.81961,0
46570,-1.35046,-0.126881,2.81843,1000
46590,-1.35043,-0.127985,2.81727,0
46610,-1.35129,-0.128971,2.81684,0
46630,-1.35195,-0.128653,2.81701,0
46650,-1.352,-0.128152,2.81726,0
46670,-1.352,-0.128152,2.81726,0
46690,-1.3532,-0.12826,2.81823,0
46710,-1.35425,-0.12812,2.81966,0
46730,-1.35448,-0.12803,2.82098,0
46750,-1.35515,-0.128375,2.82273,0
46770,-1.35609,-0.128733,2.82485,0
46790,-1.35718,-0.129049,2.82727,0
46810,-1.35841,-0.129349,2.83035,0
46830,-1.35941,-0.130001,2.83368,0
46850,-1.36053,-0.131188,2.83697,0
46870,-1.36164,-0.13256,2.84042,0
46890,-1.36237,-0.134115,2.8445,0
46910,-1.36283,-0.13524,2.84926,0
46930,-1.36341,-0.136591,2.85434,0
46950,-1.36434,-0.137893,2.85936,0
46970,-1.3664,-0.139332,2.86429,0
46990,-1.3685,-0.140734,2.86887,0
47010,-1.36997,-0.142045,2.8734,0
47030,-1.37093,-0.144227,2.87772,0
47050,-1.37143,-0.146412,2.88171,0
47070,-1.37225,-0.149057,2.88562,0
47090,-1.37357,-0.151683,2.88966,0
47110,-1.37458,-0.154175,2.89358,0
47130,-1.37552,-0.156237,2.89689,0
47150,-1.37577,-0.158773,2.90039,0
47170,-1.37622,-0.161246,2.90404,0
47190,-1.3775,-0.163331,2.90716,0
47210,-1.37944,-0.165644,2.91016,0
47230,-1.3812,-0.168613,2.91289,0
47250,-1.38331,-0.1717,2.91462,0
47270,-1.38561,-0.174307,2.91562,0
47290,-1.38779,-0.176268,2.91641,0
47310,-1.38997,-0.178639,2.91693,0
47330,-1.39148,-0.181404,2.91661,0
47350,-1.39348,-0.18441,2.91539,0
47370,-1.395,-0.187258,2.91385,0
47390,-1.39538,-0.190554,2.91173,0
47410,-1.39557,-0.194113,2.90982,0
47430,-1.39677,-0.197254,2.9079,0
47450,-1.39848,-0.199549,2.90558,0
47470,-1.40083,-0.202355,2.9032,0
47490,-1.40351,-0.205405,2.9012,0
47510,-1.40588,-0.207785,2.89878,0
47530,-1.40761,-0.209698,2.89564,0
47550,-1.40919,-0.211703,2.89276,0
47570,-1.41043,-0.213707,2.89033,0
47590,-1.41068,-0.215789,2.88815,0
47610,-1.41011,-0.217699,2.88613,0
47630,-1.40909,-0.219035,2.88432,0
47650,-1.40806,-0.219674,2.88253,0
47670,-1.40772,-0.220246,2.88123,0
47690,-1.40772,-0.220478,2.88076,0
47710,-1.40741,-0.219891,2.88043,0
47730,-1.40662,-0.219065,2.88007,0
47750,-1.40535,-0.218025,2.88001,0
47770,-1.40438,-0.217631,2.87986,0
47790,-1.40341,-0.21727,2.8789,0
47810,-1.40264,-0.216464,2.87758,0
47830,-1.40168,-0.215612,2.87586,0
47850,-1.40026,-0.214645,2.87341,0
47870,-1.39869,-0.213661,2.86982,0
47890,-1.39696,-0.213203,2.86536,0
47910,-1.39538,-0.213004,2.86063,0
47930,-1.39394,-0.213161,2.85566,0
47950,-1.39282,-0.214282,2.85023,0
47970,-1.392,-0.215934,2.84424,0
47990,-1.39145,-0.218677,2.83816,0
48010,-1.39135,-0.222155,2.83152,0
48030,-1.39123,-0.22631,2.82446,0
48050,-1.39021,-0.231433,2.81651,0
48070,-1.38899,-0.23755,2.80811,0
48090,-1.38759,-0.24353,2.79918,0
48110,-1.38652,-0.249777,2.78949,0
48130,-1.38546,-0.256219,2.7786,0
48150,-1.38457,-0.262822,2.76679,0
48170,-1.38357,-0.26858,2.75417,0
48190,-1.38296,-0.274291,2.74104,0
48210,-1.38169,-0.279973,2.72768,0
48230,-1.38011,-0.285504,2.71393,0
48250,-1.37848,-0.290355,2.69945,0
48270,-1.37705,-0.295083,2.68498,0
48290,-1.37495,-0.299938,2.67021,0
48310,-1.37201,-0.304964,2.6554,0
48330,-1.36922,-0.310292,2.64069,0
48350,-1.36658,-0.315679,2.62606,0
48370,-1.36367,-0.321578,2.61179,0
48390,-1.36016,-0.328142,2.59733,0
48400,-1.35671,-0.335284,2.58289,0
48420,-1.35286,-0.342683,2.56827,0
48440,-1.34894,-0.350355,2.5538,0
48460,-1.34492,-0.358464,2.53904,0
48480,-1.34073,-0.367209,2.52446,0
48500,-1.33597,-0.375895,2.50974,0
48510,-1.33155,-0.384584,2.49499,0
48530,-1.3268,-0.393757,2.47989,0
48550,-1.32193,-0.403286,2.46433,0
48570,-1.31702,-0.412981,2.44854,0
48590,-1.31163,-0.422676,2.43287,0
48610,-1.30592,-0.431981,2.41699,0
48630,-1.30026,-0.44144,2.40123,0
48650,-1.29505,-0.450745,2.38601,0
48670,-1.28981,-0.459789,2.37105,0
48690,-1.28475,-0.468377,2.35645,0
48710,-1.27966,-0.475842,2.34278,0
48730,-1.27498,-0.481864,2.33035,0
48750,-1.2704,-0.487867,2.31832,0
48770,-1.26619,-0.492862,2.30725,0
48790,-1.26191,-0.497077,2.29681,0
48810,-1.25856,-0.500136,2.28836,0
48830,-1.25538,-0.502215,2.28081,0
48850,-1.25262,-0.503632,2.27328,0
48870,-1.24944,-0.503791,2.26563,0
48890,-1.24694,-0.50343,2.25931,0
48910,-1.24572,-0.502181,2.25397,0
48930,-1.24487,-0.500029,2.24853,0
48950,-1.24336,-0.497074,2.24296,0
48970,-1.24089,-0.493245,2.23716,0
48990,-1.23828,-0.487869,2.23143,0
49010,-1.2354,-0.480552,2.2256,0
49030,-1.23089,-0.473869,2.22017,0
49050,-1.22675,-0.467759,2.21648,0
49070,-1.22371,-0.461825,2.21332,0
49090,-1.22086,-0.455374,2.21054,0
49110,-1.2164,-0.448961,2.20744,0
49130,-1.21346,-0.442023,2.20605,0
49150,-1.21143,-0.43529,2.20577,0
49170,-1.20857,-0.429547,2.20651,0
49190,-1.20394,-0.423278,2.2069,0
49210,-1.19934,-0.41686,2.20777,0
49230,-1.1958,-0.411404,2.20904,0
49250,-1.1929,-0.406925,2.21107,0
49270,-1.18888,-0.402473,2.21322,0
49290,-1.18284,-0.398207,2.21543,0
49310,-1.17576,-0.39416,2.21825,0
49330,-1.16765,-0.390005,2.22157,0
49350,-1.15987,-0.386546,2.22488,0
49370,-1.15374,-0.38345,2.22923,0
49390,-1.14839,-0.379595,2.23454,0
49410,-1.14364,-0.375078,2.23998,0
49430,-1.14017,-0.371159,2.24612,0
49450,-1.13778,-0.368279,2.2533,0
49470,-1.13403,-0.363946,2.26035,0
49490,-1.1303,-0.357833,2.26739,0
49510,-1.12797,-0.352169,2.27455,0
49530,-1.12611,-0.346356,2.28203,0
49550,-1.12405,-0.339991,2.29025,0
49570,-1.12025,-0.333555,2.29797,0
49590,-1.11626,-0.328056,2.30604,0
49610,-1.11234,-0.323558,2.31452,0
49630,-1.10882,-0.319466,2.323,0
49650,-1.10511,-0.31555,2.33164,0
49670,-1.1025,-0.311491,2.34086,0
49690,-1.1006,-0.308483,2.35008,0
49710,-1.09802,-0.306618,2.35915,0
49730,-1.09498,-0.305097,2.36849,0
49750,-1.0921,-0.302987,2.37818,0
49770,-1.09024,-0.300961,2.38789,0
49790,-1.08905,-0.299856,2.39783,0
49810,-1.08735,-0.298288,2.40815,0
49830,-1.08613,-0.295591,2.41923,0
49850,-1.086,-0.292899,2.43057,0
49870,-1.08612,-0.290458,2.4422,0
49890,-1.0866,-0.287835,2.45411,0
49910,-1.08727,-0.285116,2.46608,0
49930,-1.08744,-0.283188,2.47784,0
49950,-1.08752,-0.282106,2.49056,0
49970,-1.08745,-0.281052,2.50412,0
49990,-1.08718,-0.280233,2.5173,0
50010,-1.08783,-0.280455,2.53067,0
50030,-1.08902,-0.281033,2.54489,0
50050,-1.09098,-0.281079,2.56016,0
50070,-1.09408,-0.281023,2.57521,0
50090,-1.09809,-0.281527,2.59083,0
50110,-1.10278,-0.281786,2.6073,0
50130,-1.10847,-0.281045,2.62437,0
50150,-1.11545,-0.280481,2.64125,0
50170,-1.12306,-0.279951,2.65843,0
50190,-1.1306,-0.279303,2.67554,0
50210,-1.13834,-0.277995,2.69248,0
50230,-1.14706,-0.277674,2.70974,0
50250,-1.15551,-0.278642,2.72733,0
50270,-1.16302,-0.279653,2.7443,0
50290,-1.16983,-0.280759,2.76042,0
50310,-1.17626,-0.283559,2.77615,0
50330,-1.1829,-0.287262,2.79118,0
50350,-1.18983,-0.290388,2.80571,0
50370,-1.19671,-0.293548,2.81944,0
50390,-1.20394,-0.297897,2.83297,0
50410,-1.21063,-0.303329,2.84636,0
50430,-1.21616,-0.308575,2.85827,0
50450,-1.22046,-0.313903,2.86851,0
50470,-1.2255,-0.320317,2.87683,0
50490,-1.23061,-0.328071,2.88476,0
50510,-1.23513,-0.335762,2.89173,0
50530,-1.23917,-0.343735,2.8975,0
50550,-1.24358,-0.353232,2.90256,0
50570,-1.24821,-0.363661,2.90727,0
50590,-1.25312,-0.373031,2.91083,0
50610,-1.25841,-0.382353,2.91258,0
50630,-1.26394,-0.392745,2.91281,0
50650,-1.26916,-0.403843,2.91244,0
50670,-1.27419,-0.414811,2.91104,0
50690,-1.28038,-0.425313,2.90852,0
50710,-1.28733,-0.436166,2.90525,0
50730,-1.29324,-0.447899,2.90059,0
50750,-1.29768,-0.459361,2.89341,0
50770,-1.30126,-0.470726,2.88469,0
50790,-1.30385,-0.483685,2.87403,0
50810,-1.30444,-0.497183,2.86091,0
50830,-1.30403,-0.510652,2.84584,0
50850,-1.30354,-0.523547,2.82968,0
50870,-1.30201,-0.536493,2.81241,0
50890,-1.29902,-0.549481,2.79272,0
50910,-1.29509,-0.561775,2.77083,0
50930,-1.29091,-0.574294,2.74779,0
50950,-1.28584,-0.587164,2.72391,0
50970,-1.27898,-0.599457,2.69788,0
50990,-1.27028,-0.611865,2.66959,0
51010,-1.26025,-0.625238,2.63916,0
51030,-1.24775,-0.63922,2.60641,0
51050,-1.23286,-0.653147,2.57195,0
51070,-1.21467,-0.666546,2.53486,0
51090,-1.19376,-0.679393,2.49557,0
51110,-1.17162,-0.691724,2.45567,0
51130,-1.14896,-0.702077,2.41535,0
51150,-1.1258,-0.710974,2.37555,0
51170,-1.10308,-0.719072,2.33712,0
51190,-1.08182,-0.725502,2.30053,0
51210,-1.0614,-0.729072,2.26401,0
51230,-1.04255,-0.727597,2.22821,0
51250,-1.02428,-0.724921,2.19393,0
51270,-1.00869,-0.72299,2.16518,0
51290,-0.994387,-0.721543,2.14033,0
51310,-0.981144,-0.717908,2.11644,0
51330,-0.967218,-0.712623,2.09227,0
51350,-0.955212,-0.70683,2.07092,0
51370,-0.945168,-0.700591,2.05328,0
51390,-0.936766,-0.692956,2.03801,0
51410,-0.928199,-0.683444,2.02267,0
51430,-0.918001,-0.672541,2.00973,0
51450,-0.90956,-0.659966,2.00106,0
51470,-0.901971,-0.646799,1.9947,0
51490,-0.895238,-0.632771,1.99024,0
51510,-0.889418,-0.617963,1.98768,0
51530,-0.885783,-0.603205,1.98877,0
51550,-0.884129,-0.5868,1.99352,0
51570,-0.885324,-0.57117,1.99906,0
51590,-0.890432,-0.558121,2.00537,0
51610,-0.900387,-0.543155,2.01461,0
51630,-0.915194,-0.522697,2.02545,0
51650,-0.933746,-0.501253,2.03822,0
51670,-0.953148,-0.481379,2.05171,0
51690,-0.97111,-0.463527,2.06711,0
51710,-0.985515,-0.448153,2.08393,0
51730,-0.996745,-0.434604,2.10113,0
51750,-1.00509,-0.422517,2.11622,0
51770,-1.01417,-0.409896,2.12982,0
51790,-1.02748,-0.397294,2.14451,0
51810,-1.04195,-0.385701,2.15908,0
51830,-1.05434,-0.374952,2.17342,0
51850,-1.06154,-0.364263,2.18905,0
51870,-1.06574,-0.354304,2.20563,0
51890,-1.06916,-0.34691,2.22204,0
51900,-1.07442,-0.340979,2.23862,0
51920,-1.08138,-0.33491,2.25654,0
51940,-1.08964,-0.329218,2.27568,0
51960,-1.09914,-0.324732,2.29535,0
51980,-1.10996,-0.32085,2.31606,0
52000,-1.12231,-0.316044,2.33896,0
52020,-1.13611,-0.311339,2.36273,0
52040,-1.15066,-0.307529,2.38615,0
52060,-1.16753,-0.304393,2.41053,0
52080,-1.18733,-0.300523,2.43716,0
52100,-1.20759,-0.297427,2.46392,0
52130,-1.29309,-0.298968,2.58333,0
52150,-1.31314,-0.304304,2.61355,0
52170,-1.33052,-0.310852,2.64386,0
52190,-1.34613,-0.318836,2.67474,0
52210,-1.36036,-0.329228,2.70529,0
52230,-1.372,-0.341937,2.7341,0
52250,-1.38151,-0.356238,2.76218,0
52270,-1.39117,-0.37136,2.78991,0
52290,-1.40133,-0.386544,2.81719,0
52310,-1.41316,-0.400663,2.84346,0
52330,-1.42602,-0.415192,2.8685,0
52350,-1.44037,-0.427358,2.89332,0
52370,-1.45627,-0.438624,2.9173,0
52390,-1.47095,-0.449857,2.93879,0
52410,-1.48414,-0.461887,2.95755,0
52430,-1.49748,-0.474153,2.97481,0
52450,-1.51076,-0.486025,2.9903,0
52470,-1.52326,-0.49759,3.00427,0
52490,-1.53291,-0.511795,3.01642,0
52510,-1.54158,-0.527783,3.02706,0
52530,-1.54963,-0.544922,3.03679,0
52550,-1.556,-0.56316,3.04429,0
52570,-1.56194,-0.582668,3.05016,0
52590,-1.56862,-0.603732,3.05383,0
52610,-1.57384,-0.624731,3.05364,0
52650,-1.58462,-0.668427,3.0517,0
52660,-1.58957,-0.692122,3.04876,0
52680,-1.59309,-0.715934,3.04333,0
52700,-1.5963,-0.741834,3.03697,0
52720,-1.59838,-0.768004,3.028,0
52740,-1.59751,-0.793943,3.01548,0
52760,-1.59463,-0.819755,3.0001,0
52780,-1.58969,-0.845505,2.98145,0
52800,-1.58312,-0.871007,2.9591,0
52820,-1.57273,-0.895242,2.93283,0
52840,-1.55816,-0.918913,2.90293,0
52860,-1.54059,-0.940974,2.86966,0
52880,-1.51966,-0.960289,2.83171,0
52900,-1.49379,-0.976783,2.7892,0
52920,-1.46331,-0.991353,2.74201,0
52940,-1.42872,-1.0033,2.69051,0
52960,-1.39147,-1.01315,2.63696,0
52980,-1.35202,-1.02007,2.58188,0
53000,-1.31077,-1.02316,2.52624,0
53020,-1.26904,-1.02285,2.47034,0
53040,-1.22506,-1.01847,2.41257,0
53060,-1.17912,-1.0114,2.35506,0
53080,-1.13421,-1.0013,2.30021,0
53100,-1.09101,-0.986947,2.24917,0
53120,-1.05312,-0.969468,2.20447,0
53140,-1.01888,-0.951855,2.1655,0
53160,-0.988644,-0.935536,2.13287,0
53180,-0.962746,-0.919274,2.10526,0
53200,-0.938267,-0.901262,2.08051,0
53220,-0.918666,-0.880512,2.05975,0
53240,-0.903917,-0.85917,2.04444,0
53260,-0.893439,-0.838215,2.03597,0
53280,-0.887938,-0.817653,2.03376,0
53300,-0.883334,-0.797481,2.03406,0
53320,-0.879679,-0.777092,2.03676,0
53340,-0.88151,-0.755813,2.04362,0
53360,-0.889141,-0.735349,2.05354,0
53380,-0.896392,-0.715528,2.06258,0
53400,-0.903714,-0.695538,2.07385,0
53420,-0.913245,-0.675972,2.08805,0
53440,-0.923731,-0.65739,2.1027,0
53460,-0.933916,-0.640735,2.11715,0
53480,-0.944812,-0.625016,2.13458,0
53500,-0.95757,-0.61115,2.15395,0
53520,-0.970334,-0.600248,2.17278,0
53540,-0.984468,-0.590381,2.19326,0
53560,-1.00034,-0.581113,2.21563,0
53580,-1.01718,-0.573213,2.23834,0
53600,-1.03307,-0.567418,2.2608,0
53620,-1.04873,-0.562571,2.28463,0
53640,-1.0643,-0.558357,2.30964,0
53660,-1.07952,-0.555096,2.33383,0
53680,-1.09579,-0.552135,2.35707,0
53700,-1.11343,-0.549297,2.38075,0
53720,-1.1318,-0.546273,2.40517,0
53740,-1.14974,-0.543483,2.42882,0
53760,-1.16764,-0.540857,2.45254,0
53780,-1.18662,-0.538472,2.47778,0
53790,-1.20617,-0.536476,2.50346,0
53810,-1.22545,-0.535003,2.52817,0
53830,-1.24536,-0.533897,2.55331,0
53850,-1.26634,-0.53261,2.57937,0
53870,-1.28849,-0.532036,2.60596,0
53890,-1.31167,-0.533187,2.63279,0
53910,-1.33499,-0.535474,2.66068,0
53930,-1.35851,-0.538409,2.6902,0
53950,-1.38142,-0.542559,2.71962,0
53970,-1.40391,-0.547933,2.74814,0
53990,-1.42647,-0.554295,2.77627,0
54010,-1.44869,-0.5613,2.80366,0
54030,-1.47023,-0.569003,2.83014,0
54050,-1.48949,-0.57797,2.85449,0
54070,-1.50602,-0.588731,2.87687,0
54090,-1.52165,-0.600387,2.89821,0
54110,-1.53564,-0.612364,2.91904,0
54130,-1.54725,-0.626016,2.93896,0
54150,-1.55843,-0.642235,2.95885,0
54170,-1.5707,-0.659686,2.9788,0
54190,-1.58259,-0.677701,2.998,0
54210,-1.59433,-0.695479,3.01368,0
54230,-1.60561,-0.71341,3.02744,0
54250,-1.61721,-0.731978,3.04078,0
54270,-1.62778,-0.750449,3.05276,0
54290,-1.63733,-0.768713,3.06226,0
54310,-1.64369,-0.787611,3.06963,0
54330,-1.64756,-0.806878,3.07575,0
54350,-1.64947,-0.826593,3.08054,0
54370,-1.64829,-0.846576,3.08215,0
54390,-1.64361,-0.867065,3.07967,0
54410,-1.63641,-0.887961,3.07441,0
54430,-1.6307,-0.910694,3.07027,0
54450,-1.62579,-0.934805,3.06611,0
54470,-1.61978,-0.957383,3.06051,0
54490,-1.61288,-0.978815,3.05336,1001
54510,-1.60762,-0.998771,3.0477,0
54530,-1.60649,-1.01659,3.04533,0
54550,-1.60785,-1.03006,3.04451,0
54570,-1.6104,-1.03869,3.04457,0
54590,-1.61394,-1.04331,3.04511,0
54610,-1.61825,-1.04417,3.04518,0
54630,-1.62221,-1.04178,3.04531,0
54650,-1.62645,-1.03672,3.04607,0
54670,-1.62909,-1.03015,3.04575,0
54690,-1.63164,-1.02262,3.04349,0
54710,-1.63033,-1.01578,3.03699,0
54730,-1.62652,-1.00955,3.02888,0
54750,-1.62187,-1.0032,3.02192,0
54770,-1.6168,-0.997292,3.01639,0
54790,-1.60854,-0.993602,3.00818,0
54810,-1.59846,-0.992105,2.99681,0
54830,-1.5883,-0.990437,2.98439,0
54850,-1.58053,-0.986544,2.97295,0
54870,-1.57367,-0.981912,2.9626,0
54890,-1.56512,-0.977542,2.9512,0
54910,-1.55642,-0.971806,2.93866,0
54930,-1.54807,-0.96468,2.92552,0
54950,-1.54321,-0.95538,2.91396,0
54970,-1.53726,-0.943992,2.90119,0
54990,-1.52841,-0.930785,2.88511,0
55010,-1.51474,-0.915692,2.86382,0
55030,-1.49984,-0.900028,2.84028,0
55050,-1.48304,-0.883309,2.81359,0
55070,-1.46356,-0.864639,2.7848,0
55090,-1.44269,-0.844588,2.75712,0
55110,-1.42412,-0.823959,2.73168,0
55130,-1.40547,-0.804586,2.70693,0
55150,-1.38313,-0.787054,2.68258,0
55170,-1.36102,-0.770438,2.6623,0
55190,-1.34221,-0.754517,2.64772,0
55210,-1.32504,-0.738135,2.63792,0
55230,-1.30639,-0.720667,2.63018,0
55250,-1.28926,-0.702103,2.62545,0
55270,-1.27673,-0.68264,2.62456,0
55290,-1.26674,-0.662578,2.62821,0
55310,-1.25904,-0.641645,2.63677,0
55330,-1.25437,-0.61982,2.65043,0
55350,-1.25161,-0.59665,2.66878,0
55370,-1.25111,-0.571472,2.69021,0
55390,-1.25342,-0.540214,2.71282,0
55410,-1.25895,-0.507235,2.73595,0
55430,-1.26619,-0.475672,2.75978,0
55450,-1.27373,-0.446598,2.78345,0
55470,-1.28169,-0.421611,2.80643,0
55490,-1.28723,-0.399288,2.82669,0
55510,-1.28861,-0.379513,2.84364,0
55530,-1.28824,-0.361115,2.85775,0
55550,-1.28842,-0.343853,2.87178,0
55570,-1.28862,-0.32922,2.88463,0
55590,-1.28907,-0.316432,2.89512,0
55610,-1.28845,-0.303834,2.90404,0
55630,-1.28737,-0.292362,2.91135,0
55650,-1.28545,-0.282268,2.91726,0
55670,-1.28427,-0.271883,2.92296,0
55690,-1.28389,-0.261665,2.92853,0
55710,-1.28122,-0.252736,2.93315,0
55730,-1.27853,-0.245474,2.93685,0
55750,-1.27755,-0.238473,2.94067,0
55770,-1.27705,-0.231696,2.94511,0
55790,-1.27621,-0.22554,2.94906,0
55810,-1.2756,-0.220262,2.9515,0
55830,-1.27592,-0.214438,2.95326,1000
55850,-1.27622,-0.207897,2.95494,0
55870,-1.27684,-0.200506,2.95599,0
55890,-1.27839,-0.19348,2.95596,0
55920,-1.27935,-0.182253,2.95323,0
55940,-1.27872,-0.176804,2.95243,0
55960,-1.27635,-0.172498,2.95075,0
56000,-1.27106,-0.168205,2.94722,0
56020,-1.2688,-0.16646,2.94683,0
56040,-1.26551,-0.16464,2.94716,0
56060,-1.26391,-0.162716,2.9482,0
56090,-1.26323,-0.167016,2.95621,0
56110,-1.26574,-0.170468,2.964,0
56130,-1.26832,-0.172876,2.97256,0
56150,-1.27188,-0.174875,2.98103,0
56170,-1.27628,-0.176662,2.99032,0
56190,-1.28082,-0.178346,3.00097,0
56210,-1.28605,-0.179654,3.01277,0
56230,-1.29159,-0.18023,3.02595,0
56250,-1.29662,-0.180034,3.04056,0
56270,-1.30086,-0.179837,3.05579,0
56290,-1.3055,-0.180211,3.07105,0
56310,-1.31,-0.181525,3.0866,0
56330,-1.31556,-0.182347,3.10284,0
56350,-1.32119,-0.182767,3.11851,0
56370,-1.32622,-0.183345,3.13323,0
56390,-1.33138,-0.185494,-3.13612,0
56410,-1.33618,-0.187653,-3.12397,0
56430,-1.34118,-0.188614,-3.11409,0
56450,-1.34617,-0.190976,-3.10603,0
56470,-1.35046,-0.194881,-3.10056,0
56490,-1.35446,-0.199358,-3.09839,0
56510,-1.35718,-0.204129,-3.0994,0
56530,-1.35879,-0.209425,-3.10232,0
56550,-1.35998,-0.215775,-3.10715,0
56570,-1.36055,-0.22435,-3.11496,0
56590,-1.36089,-0.233652,-3.12506,0
56610,-1.36114,-0.244206,-3.1369,0
56630,-1.36044,-0.254837,3.13345,0
56650,-1.35914,-0.265932,3.11799,0
56670,-1.35663,-0.27692,3.09832,0
56690,-1.35387,-0.288785,3.07606,0
56710,-1.35054,-0.300743,3.0531,0
56730,-1.34559,-0.312805,3.03012,0
56750,-1.339,-0.326279,3.00479,0
56770,-1.33214,-0.340662,2.97698,0
56790,-1.32461,-0.355754,2.94741,0
56820,-1.30633,-0.386411,2.88448,0
56850,-1.28423,-0.418931,2.81608,0
56880,-1.26057,-0.452083,2.74614,0
56900,-1.24828,-0.468023,2.70998,0
56920,-1.23575,-0.483016,2.67437,0
56940,-1.2237,-0.497534,2.64055,0
56960,-1.21131,-0.511353,2.60803,0
56970,-1.19852,-0.524242,2.5766,0
56990,-1.1851,-0.536234,2.5466,0
57010,-1.16957,-0.547938,2.51586,0
57030,-1.15078,-0.555834,2.484,0
57050,-1.13055,-0.560903,2.45309,0
57060,-1.10952,-0.564282,2.42596,0
57080,-1.08622,-0.566641,2.39986,0
57100,-1.06167,-0.565903,2.37247,0
57120,-1.03765,-0.564158,2.34656,0
57130,-1.01391,-0.560204,2.32401,0
57150,-0.990007,-0.556601,2.30625,0
57170,-0.963319,-0.554372,2.28848,0
57190,-0.937594,-0.549641,2.27046,0
57210,-0.915353,-0.543698,2.25671,0
57230,-0.895644,-0.538458,2.24775,0
57250,-0.879125,-0.531389,2.24224,0
57270,-0.863832,-0.522223,2.23951,0
57290,-0.849409,-0.511224,2.23973,0
57310,-0.838146,-0.499347,2.24401,0
57330,-0.829437,-0.486798,2.25125,0
57350,-0.8234,-0.472841,2.2618,0
57370,-0.82144,-0.458391,2.27502,0
57390,-0.821309,-0.445646,2.28844,0
57410,-0.822326,-0.433807,2.30248,0
57430,-0.825649,-0.421063,2.31875,0
57450,-0.830102,-0.406531,2.33768,0
57470,-0.835611,-0.391345,2.35632,0
57490,-0.841348,-0.376773,2.37428,0
57510,-0.848146,-0.362315,2.39306,0
57530,-0.857063,-0.348151,2.41415,0
57550,-0.868617,-0.335881,2.43575,0
57570,-0.878715,-0.325256,2.45583,0
57590,-0.889191,-0.314055,2.47773,0
57610,-0.902632,-0.303304,2.50207,0
57630,-0.917717,-0.295026,2.52599,0
57650,-0.933567,-0.288033,2.54955,0
57670,-0.950759,-0.280926,2.57581,0
57690,-0.969228,-0.274932,2.60413,0
57710,-0.987105,-0.270938,2.63087,0
57730,-1.00536,-0.267514,2.65751,0
57750,-1.02577,-0.263802,2.68712,0
57770,-1.04833,-0.261196,2.71801,0
57790,-1.07274,-0.260354,2.7483,0
57810,-1.09902,-0.25977,2.78032,0
57830,-1.12616,-0.259065,2.81502,0
57850,-1.15286,-0.259355,2.8502,0
57870,-1.17853,-0.260825,2.88396,0
57890,-1.20369,-0.262746,2.91819,0
57910,-1.22529,-0.265536,2.95295,0
57930,-1.24404,-0.269534,2.98527,0
57950,-1.26021,-0.274877,3.01415,0
57970,-1.2727,-0.28225,3.04049,0
57990,-1.28186,-0.292853,3.06528,0
58010,-1.28782,-0.305459,3.08937,0
58030,-1.2916,-0.319201,3.11093,0
58050,-1.29339,-0.335699,3.12815,0
58070,-1.29401,-0.353149,3.14049,0
58090,-1.29588,-0.370188,-3.13443,0
58110,-1.29665,-0.38704,-3.12996,0
58130,-1.2978,-0.404337,-3.12842,0
58150,-1.29866,-0.422311,-3.13025,0
58170,-1.29649,-0.441169,-3.1382,0
58190,-1.2918,-0.460017,3.1308,0
58210,-1.28784,-0.481313,3.11443,0
58230,-1.28576,-0.502943,3.09615,0
58250,-1.28575,-0.523979,3.07361,0
58270,-1.28373,-0.545943,3.04669,0
58290,-1.27905,-0.569374,3.01661,0
58310,-1.27199,-0.593091,2.98356,0
58330,-1.2621,-0.615146,2.94593,0
58350,-1.24917,-0.637044,2.90535,0
58370,-1.23346,-0.660109,2.86317,0
58390,-1.21554,-0.683223,2.8193,0
58410,-1.19402,-0.705486,2.77171,0
58430,-1.16953,-0.726373,2.72235,0
58450,-1.14206,-0.745818,2.67204,0
58470,-1.11211,-0.76333,2.62207,0
58490,-1.08149,-0.778168,2.57302,0
58510,-1.05043,-0.790852,2.5253,0
58530,-1.01961,-0.800115,2.47932,0
58550,-0.990729,-0.80588,2.43692,0
58570,-0.963065,-0.808634,2.39857,0
58590,-0.935209,-0.81,2.36378,0
58610,-0.910015,-0.810828,2.33333,0
58630,-0.887443,-0.810317,2.30593,0
58650,-0.867202,-0.806778,2.28228,0
58670,-0.847992,-0.801331,2.26361,0
58690,-0.830417,-0.796085,2.24965,0
58710,-0.814106,-0.787117,2.23763,0
58730,-0.797731,-0.775987,2.2286,0
58750,-0.780386,-0.764098,2.22288,0
58770,-0.769136,-0.748482,2.22199,0
58790,-0.763408,-0.731437,2.226,0
58810,-0.757961,-0.713893,2.23269,0
58830,-0.758601,-0.695057,2.24411,0
58850,-0.764878,-0.674924,2.26022,0
58870,-0.771866,-0.653432,2.2758,0
58890,-0.780858,-0.633266,2.29349,0
58910,-0.792859,-0.614208,2.31353,0
58930,-0.805041,-0.595777,2.3348,0
58950,-0.815027,-0.578405,2.35577,0
58970,-0.825693,-0.562137,2.37683,0
58990,-0.838259,-0.548052,2.39919,0
59010,-0.851776,-0.53494,2.42131,0
59030,-0.866484,-0.522359,2.443,0
59050,-0.883264,-0.510862,2.46609,0
59070,-0.899195,-0.499633,2.49029,0
59090,-0.912891,-0.488538,2.51367,0
59100,-0.926353,-0.478513,2.53601,0
59120,-0.942352,-0.468835,2.55908,0
59140,-0.961245,-0.458253,2.58267,0
59160,-0.981368,-0.447282,2.60651,0
59180,-1.00125,-0.436598,2.63041,0
59200,-1.02136,-0.426794,2.65533,0
59220,-1.04295,-0.418064,2.68177,0
59240,-1.0669,-0.409664,2.70921,0
59260,-1.09322,-0.402111,2.73753,0
59280,-1.12307,-0.396468,2.76772,0
59300,-1.15513,-0.392493,2.79817,0
59320,-1.18697,-0.389756,2.82774,0
59340,-1.21826,-0.388803,2.85673,0
59360,-1.24761,-0.389625,2.88604,0
59380,-1.27412,-0.39302,2.91451,0
59400,-1.29637,-0.398628,2.94237,0
59420,-1.31467,-0.406798,2.96876,0
59440,-1.32952,-0.417108,2.99368,0
59460,-1.34246,-0.429265,3.0171,0
59480,-1.35501,-0.443412,3.03965,0
59500,-1.36687,-0.461196,3.06166,0
59520,-1.3771,-0.481867,3.08235,0
59540,-1.38535,-0.504094,3.09962,0
59560,-1.39309,-0.52588,3.11356,0
59580,-1.39981,-0.548285,3.12591,0
59600,-1.40752,-0.572692,3.13723,0
59620,-1.4168,-0.597309,-3.13725,0
59640,-1.42691,-0.62121,-3.13085,0
59660,-1.43417,-0.645723,-3.12789,0
59680,-1.43818,-0.672049,-3.12622,0
59700,-1.44135,-0.699655,-3.12664,0
59720,-1.44293,-0.728462,-3.12957,0
59740,-1.44333,-0.758734,-3.13621,0
59760,-1.44297,-0.788782,3.13602,0
59780,-1.43989,-0.818787,3.1214,0
59800,-1.43368,-0.848488,3.10398,0
59820,-1.42545,-0.878098,3.08444,0
59840,-1.41256,-0.907383,3.06023,0
59860,-1.39228,-0.935419,3.02749,0
59880,-1.36542,-0.959302,2.98731,0
59900,-1.33508,-0.980687,2.94346,0
59920,-1.29887,-1.00127,2.8948,0
59940,-1.25795,-1.02023,2.84321,0
59960,-1.21204,-1.03685,2.78742,0
59980,-1.16121,-1.05121,2.72712,0
60000,-1.10657,-1.06192,2.66326,0
60020,-1.05025,-1.06905,2.59812,0
60040,-0.996284,-1.07292,2.53444,0
60060,-0.940884,-1.07475,2.4704,0
60080,-0.88588,-1.07257,2.40939,0
60100,-0.834121,-1.06336,2.34981,0
60120,-0.786156,-1.04866,2.29477,0
60140,-0.739734,-1.02777,2.24449,0
60160,-0.701992,-1.00432,2.20672,0
60180,-0.671841,-0.979254,2.17875,0
60200,-0.649366,-0.950957,2.15937,0
60220,-0.635781,-0.921486,2.14879,0
60240,-0.627545,-0.89203,2.14362,0
60260,-0.628383,-0.86337,2.14657,0
60280,-0.638587,-0.836171,2.15823,0
60300,-0.652914,-0.809534,2.17406,0
60320,-0.674917,-0.783664,2.19335,0
60340,-0.70406,-0.7601,2.21645,0
60360,-0.735133,-0.739133,2.24133,0
60380,-0.764284,-0.719502,2.26692,0
60400,-0.790182,-0.702446,2.29301,0
60420,-0.812434,-0.688405,2.31869,0
60440,-0.833075,-0.675654,2.34381,0
60460,-0.853191,-0.664059,2.36784,0
60480,-0.874465,-0.654452,2.39102,0
60500,-0.896454,-0.646285,2.41365,0
60520,-0.916379,-0.638659,2.43587,0
60540,-0.934252,-0.631566,2.45852,0
60560,-0.950127,-0.62592,2.4805,0
60580,-0.966631,-0.621722,2.50273,0
60600,-0.98442,-0.618018,2.52569,0
60620,-1.00249,-0.614497,2.54912,0
60640,-1.02134,-0.611959,2.57317,0
60660,-1.04139,-0.61055,2.59845,0
60680,-1.06311,-0.609781,2.62501,0
60700,-1.08568,-0.610359,2.65149,0
60720,-1.10754,-0.611084,2.67663,0
60740,-1.13117,-0.611339,2.70246,0
60760,-1.15778,-0.611983,2.73009,0
60780,-1.18413,-0.612729,2.75683,0
60800,-1.2106,-0.613665,2.78269,0
60820,-1.23826,-0.614686,2.80882,0
60840,-1.2655,-0.615593,2.83543,0
60860,-1.29214,-0.61699,2.86142,0
60880,-1.31782,-0.620172,2.88655,0
60900,-1.34428,-0.624742,2.91301,0
60920,-1.37254,-0.630173,2.94063,0
60940,-1.39899,-0.637126,2.96638,0
60960,-1.42267,-0.645901,2.99089,0
60980,-1.44539,-0.65635,3.01634,0
61000,-1.46724,-0.668424,3.04256,0
61020,-1.48687,-0.682022,3.06733,0
61040,-1.50515,-0.697471,3.09136,0
61060,-1.52285,-0.714619,3.11523,0
61080,-1.53943,-0.73264,3.13855,0
61100,-1.5559,-0.751325,-3.1223,0
61120,-1.57226,-0.77047,-3.10164,0
61140,-1.58816,-0.789382,-3.083,0
61160,-1.6023,-0.80737,-3.0666,0
61180,-1.61414,-0.824754,-3.05226,0
61200,-1.62191,-0.841759,-3.04005,0
61220,-1.62755,-0.858661,-3.02872,0
61240,-1.62955,-0.875341,-3.0198,0
61260,-1.62936,-0.892307,-3.01305,0
61280,-1.62996,-0.909066,-3.00621,0
61300,-1.63147,-0.922754,-3.00054,0
61320,-1.63278,-0.934028,-2.99478,0
61340,-1.63179,-0.944564,-2.98845,0
61360,-1.63317,-0.95445,-2.98058,0
61380,-1.63517,-0.962613,-2.97208,0
61400,-1.63794,-0.968096,-2.96525,0
61420,-1.64304,-0.970831,-2.95887,0
61440,-1.64749,-0.970977,-2.95414,0
61460,-1.64991,-0.968709,-2.95355,1001
61480,-1.64863,-0.963841,-2.95772,0
61500,-1.6427,-0.958661,-2.96495,0
61520,-1.63405,-0.95317,-2.97405,0
61540,-1.62386,-0.947582,-2.98627,0
61560,-1.61287,-0.941314,-3.0009,0
61580,-1.60153,-0.934439,-3.01663,0
61600,-1.58802,-0.926554,-3.03441,0
61620,-1.57384,-0.917918,-3.05265,0
61640,-1.55832,-0.907592,-3.07145,0
61660,-1.54235,-0.895333,-3.09245,0
61680,-1.52673,-0.881351,-3.11385,0
61700,-1.51154,-0.86574,-3.13582,0
61720,-1.4977,-0.84664,3.12631,0
61740,-1.48715,-0.82723,3.10648,0
61760,-1.47562,-0.808004,3.08615,0
61780,-1.46514,-0.788031,3.06705,0
61800,-1.45695,-0.766635,3.05028,0
61820,-1.45103,-0.744163,3.03411,0
61840,-1.44507,-0.722508,3.01592,0
61860,-1.43642,-0.703628,2.99562,0
61880,-1.42701,-0.688669,2.97299,0
61900,-1.41697,-0.678736,2.94924,0
61920,-1.40171,-0.675332,2.92234,0
61940,-1.38197,-0.682898,2.89428,0
61960,-1.35601,-0.700389,2.86454,0
61980,-1.32892,-0.724325,2.83346,0
62000,-1.30372,-0.751503,2.80067,0
62020,-1.28085,-0.779405,2.76827,0
62040,-1.26402,-0.804289,2.74188,0
62060,-1.25926,-0.8194,2.73089,0
62080,-1.2653,-0.825401,2.72944,0
62100,-1.28075,-0.824248,2.73352,0
62120,-1.30534,-0.815609,2.74204,0
62140,-1.34288,-0.79788,2.75798,0
62160,-1.38765,-0.771184,2.77908,0
62180,-1.4343,-0.738001,2.80317,0
62200,-1.47499,-0.700356,2.825,0
62220,-1.50766,-0.65556,2.8436,0
62240,-1.53313,-0.604572,2.86036,0
62260,-1.55364,-0.553975,2.87418,0
62280,-1.56587,-0.509099,2.88299,0
62300,-1.56961,-0.471021,2.88863,0
62320,-1.56418,-0.43938,2.8938,0
62340,-1.55099,-0.412829,2.89919,0
62360,-1.53288,-0.390858,2.90459,0
62380,-1.51265,-0.374215,2.90883,0
62400,-1.49173,-0.360771,2.9102,0
62420,-1.47084,-0.35045,2.90993,0
62440,-1.45038,-0.343462,2.90922,0
62460,-1.43161,-0.337594,2.90936,0
62480,-1.41447,-0.330792,2.91138,0
62500,-1.39914,-0.324183,2.91536,0
62510,-1.38297,-0.320337,2.91846,0
62530,-1.3687,-0.317925,2.92089,0
62550,-1.35935,-0.315447,2.92488,0
62570,-1.35308,-0.312145,2.93084,0
62590,-1.34662,-0.308281,2.93617,0
62610,-1.33929,-0.304131,2.93813,0
62630,-1.33266,-0.300474,2.93815,0
62650,-1.32678,-0.297675,2.93891,0
62670,-1.31948,-0.295395,2.93981,0
62690,-1.31084,-0.292422,2.93944,0
62710,-1.30295,-0.289968,2.93767,0
62730,-1.29629,-0.288426,2.93464,0
62750,-1.29141,-0.286685,2.93253,0
62770,-1.28787,-0.284546,2.93134,0
62790,-1.285,-0.282128,2.93031,0
62810,-1.28192,-0.280354,2.92895,0
62830,-1.27969,-0.278344,2.92796,1000
62850,-1.27874,-0.275795,2.92743,0
62870,-1.27803,-0.27263,2.92614,0
62890,-1.27815,-0.26934,2.92467,0
62910,-1.27889,-0.26641,2.92349,0
62930,-1.27935,-0.263637,2.92302,0
62950,-1.27817,-0.261745,2.9236,0
62970,-1.27512,-0.260835,2.92481,0
62990,-1.2718,-0.260363,2.92677,0
63010,-1.27021,-0.259138,2.9292,0
63030,-1.27116,-0.257443,2.93176,0
63050,-1.27271,-0.255731,2.93447,0
63070,-1.27269,-0.25393,2.93687,0
63090,-1.27315,-0.252575,2.93962,0
63110,-1.27507,-0.251307,2.94345,0
63130,-1.27643,-0.249405,2.94819,0
63150,-1.27752,-0.247616,2.95392,0
63170,-1.27925,-0.246596,2.95978,0
63190,-1.28162,-0.245475,2.96592,0
63210,-1.2829,-0.245065,2.97206,0
63230,-1.28358,-0.245984,2.9779,0
63250,-1.28412,-0.246968,2.98364,0
63270,-1.285,-0.247846,2.98978,0
63290,-1.28638,-0.248242,2.99608,0
63310,-1.28858,-0.249151,3.00266,0
63330,-1.29068,-0.250834,3.0092,0
63350,-1.29287,-0.252813,3.01474,0
63370,-1.295,-0.254951,3.01885,0
63390,-1.2982,-0.256999,3.02269,0
63410,-1.30072,-0.259748,3.02545,0
63430,-1.30237,-0.262217,3.027,0
63450,-1.30432,-0.264348,3.02864,0
63470,-1.30678,-0.26678,3.0304,0
63490,-1.30827,-0.270123,3.03137,0
63510,-1.31006,-0.274096,3.03161,0
63530,-1.31368,-0.277642,3.03138,0
63550,-1.31782,-0.281569,3.02979,0
63570,-1.32182,-0.285667,3.02659,0
63590,-1.32548,-0.289653,3.02169,0
63610,-1.3289,-0.294041,3.01549,0
63630,-1.33074,-0.299478,3.0074,0
63650,-1.33077,-0.305763,2.99787,0
63670,-1.32907,-0.312857,2.98687,0
63690,-1.32612,-0.320497,2.97423,0
63710,-1.32212,-0.328593,2.95925,0
63730,-1.31644,-0.338865,2.9427,0
63750,-1.30891,-0.350793,2.92509,0
63770,-1.29916,-0.363963,2.90648,0
63790,-1.28842,-0.377201,2.88676,0
63810,-1.27693,-0.391058,2.86532,0
63930,-1.04875,-0.549783,2.45735,0
63950,-1.02847,-0.561914,2.42545,0
63970,-0.983497,-0.589735,2.3656,0
64000,-0.940386,-0.614373,2.31107,0
64020,-0.921841,-0.622722,2.28709,0
64040,-0.905075,-0.628502,2.26698,0
64060,-0.888509,-0.632912,2.24858,0
64080,-0.871634,-0.636053,2.23215,0
64100,-0.85611,-0.637643,2.2172,0
64120,-0.84281,-0.636356,2.20382,0
64140,-0.831012,-0.632106,2.19317,0
64160,-0.820522,-0.624044,2.18523,0
64180,-0.809002,-0.615819,2.17906,0
64200,-0.797529,-0.608913,2.1742,0
64220,-0.788519,-0.60195,2.17019,0
64240,-0.781011,-0.593283,2.16702,0
64260,-0.7753,-0.583104,2.16749,0
64280,-0.76926,-0.573366,2.17124,0
64290,-0.764416,-0.56513,2.17692,0
64310,-0.761594,-0.557906,2.18469,0
64330,-0.759616,-0.550476,2.19518,0
64350,-0.758071,-0.541834,2.20742,0
64370,-0.758903,-0.532746,2.22138,0
64390,-0.762956,-0.524658,2.23739,0
64410,-0.767557,-0.516712,2.25429,0
64430,-0.77248,-0.509151,2.2727,0
64450,-0.778018,-0.50072,2.29254,0
64470,-0.784002,-0.492026,2.31247,0
64490,-0.78882,-0.482874,2.33115,0
64510,-0.794357,-0.473294,2.35085,0
64530,-0.799756,-0.463969,2.37027,0
64550,-0.804247,-0.45515,2.38871,0
64570,-0.808534,-0.445833,2.4069,0
64590,-0.813517,-0.436613,2.42586,0
64610,-0.818295,-0.4282,2.44439,0
64630,-0.822875,-0.421599,2.46284,0
64650,-0.827783,-0.414807,2.4819,0
64670,-0.834235,-0.407784,2.50207,0
64690,-0.841655,-0.401161,2.52224,0
64710,-0.850812,-0.395229,2.54329,0
64730,-0.861485,-0.389463,2.56481,0
64750,-0.873168,-0.384729,2.58625,0
64770,-0.885711,-0.381039,2.6081,0
64790,-0.899797,-0.377327,2.63017,0
64810,-0.916035,-0.37306,2.65257,0
64830,-0.933514,-0.369111,2.67503,0
64850,-0.952137,-0.365461,2.69771,0
64870,-0.970951,-0.361506,2.7208,0
64890,-0.98918,-0.358568,2.74308,0
64910,-1.0065,-0.357213,2.76467,0
64930,-1.02329,-0.355861,2.78614,0
64950,-1.04107,-0.354452,2.80761,0
64970,-1.05925,-0.354561,2.8283,0
64990,-1.07652,-0.357219,2.84816,0
65010,-1.09224,-0.360732,2.86763,0
65030,-1.10806,-0.364591,2.88737,0
65050,-1.12304,-0.36913,2.90541,0
65070,-1.13713,-0.374562,2.9217,0
65090,-1.1501,-0.380487,2.93683,0
65110,-1.16286,-0.386163,2.95121,0
65130,-1.17476,-0.393508,2.96401,0
65150,-1.18505,-0.402431,2.9752,0
65170,-1.1944,-0.412319,2.98553,0
65190,-1.20371,-0.422034,2.99436,0
65210,-1.2144,-0.431083,3.00157,0
65230,-1.22506,-0.440228,3.00759,0
65250,-1.23534,-0.450334,3.01264,0
65270,-1.24495,-0.460652,3.01659,0
65290,-1.25338,-0.471056,3.01782,0
65310,-1.26129,-0.481993,3.01721,0
65330,-1.26847,-0.494569,3.01487,0
65350,-1.2749,-0.508567,3.01054,0
65370,-1.28027,-0.523144,3.00374,0
65390,-1.28389,-0.53723,2.99422,0
65410,-1.28577,-0.551467,2.98255,0
65430,-1.28519,-0.566017,2.9687,0
65450,-1.28229,-0.581882,2.952,0
65470,-1.27794,-0.597127,2.93352,0
65490,-1.27263,-0.611825,2.91302,0
65510,-1.26459,-0.626633,2.88923,0
65530,-1.25502,-0.641562,2.86239,0
65550,-1.24392,-0.655728,2.83231,0
65570,-1.23082,-0.669302,2.79966,0
65590,-1.21587,-0.684342,2.76532,0
65610,-1.19911,-0.699415,2.72956,0
65630,-1.1808,-0.715381,2.69265,0
65650,-1.16177,-0.731024,2.65509,0
65670,-1.14066,-0.74673,2.61641,0
65690,-1.11818,-0.761636,2.57594,0
65710,-1.09437,-0.775716,2.53396,0
65730,-1.07009,-0.789207,2.49191,0
65750,-1.04446,-0.801624,2.44954,0
65770,-1.01701,-0.813429,2.40601,0
65790,-0.987258,-0.824896,2.36237,0
65810,-0.955899,-0.83596,2.3196,0
65830,-0.921081,-0.84533,2.27642,0
65850,-0.886035,-0.853106,2.23454,0
65870,-0.853276,-0.858161,2.19577,0
65890,-0.822344,-0.85997,2.16128,0
65910,-0.792811,-0.858616,2.13131,0
65930,-0.764954,-0.854744,2.10518,0
65950,-0.74232,-0.848379,2.08432,0
65970,-0.723288,-0.840131,2.06767,0
65990,-0.706905,-0.830423,2.05699,0
66010,-0.693128,-0.819668,2.05087,0
66030,-0.680961,-0.808352,2.04726,0
66050,-0.672237,-0.794874,2.04732,0
66070,-0.667804,-0.779988,2.05317,0
66090,-0.666857,-0.765303,2.06386,0
66110,-0.668009,-0.751618,2.07651,0
66130,-0.671827,-0.739959,2.09037,0
66150,-0.676402,-0.728225,2.10633,0
66170,-0.682332,-0.715468,2.12585,0
66190,-0.690137,-0.702605,2.1465,0
66210,-0.698302,-0.690561,2.16535,0
66230,-0.709113,-0.678565,2.18556,0
66250,-0.720256,-0.666151,2.20763,0
66270,-0.730711,-0.654098,2.2296,0
66290,-0.740314,-0.643245,2.25056,0
66310,-0.750805,-0.632887,2.27185,0
66330,-0.760457,-0.623001,2.29359,0
66350,-0.770754,-0.612641,2.31459,0
66370,-0.782002,-0.603452,2.33542,0
66390,-0.792195,-0.594996,2.3565,0
66410,-0.801902,-0.586023,2.37762,0
66430,-0.81199,-0.577522,2.3982,0
66450,-0.823718,-0.570231,2.41942,0
66470,-0.836382,-0.56304,2.44113,0
66490,-0.849998,-0.556224,2.46346,0
66510,-0.864088,-0.55013,2.48617,0
66530,-0.878991,-0.545407,2.50975,0
66550,-0.89472,-0.540771,2.53373,0
66570,-0.912127,-0.536497,2.55838,0
66590,-0.930762,-0.533015,2.58319,0
66610,-0.950973,-0.530281,2.60831,0
66630,-0.972579,-0.527256,2.63357,0
66650,-0.996634,-0.52445,2.65941,0
66670,-1.02132,-0.522552,2.68485,0
66690,-1.04472,-0.521382,2.70884,0
66710,-1.06623,-0.520655,2.73159,0
66730,-1.08584,-0.521546,2.75395,0
66750,-1.1053,-0.525077,2.77755,0
66770,-1.12344,-0.530794,2.80093,0
66790,-1.14034,-0.537533,2.82328,0
66810,-1.15622,-0.546566,2.84451,0
66830,-1.17212,-0.557901,2.86615,0
66850,-1.18653,-0.571162,2.88673,0
66870,-1.2008,-0.585794,2.90715,0
66890,-1.21588,-0.601924,2.92838,0
66910,-1.23147,-0.618045,2.94895,0
66930,-1.24688,-0.634093,2.96745,0
66950,-1.26219,-0.649906,2.98524,0
66970,-1.27849,-0.665955,3.00363,0
66990,-1.29429,-0.682344,3.02126,0
67010,-1.30959,-0.698193,3.0368,0
67030,-1.32417,-0.713617,3.05086,0
67050,-1.33977,-0.730436,3.06379,0
67070,-1.3552,-0.748225,3.07503,0
67090,-1.37029,-0.765289,3.08319,0
67110,-1.38132,-0.781619,3.08705,0
67130,-1.39005,-0.799012,3.08967,0
67150,-1.39798,-0.819573,3.09045,0
67170,-1.40448,-0.840551,3.08687,0
67190,-1.40736,-0.86195,3.07945,0
67210,-1.40822,-0.883815,3.0714,0
67230,-1.40898,-0.908085,3.06249,0
67250,-1.40702,-0.93335,3.04996,0
67270,-1.40012,-0.959098,3.03223,0
67290,-1.3894,-0.983281,3.00993,0
67310,-1.37491,-1.00644,2.98342,0
67330,-1.35527,-1.02924,2.95241,0
67350,-1.32971,-1.0515,2.91702,0
67370,-1.30003,-1.0723,2.87761,0
67390,-1.26542,-1.09071,2.83225,0
67410,-1.22619,-1.10686,2.78143,0
67430,-1.18412,-1.12086,2.72785,0
67450,-1.14043,-1.13171,2.67245,0
67470,-1.09365,-1.13993,2.61347,0
67490,-1.04065,-1.14523,2.54974,0
67510,-0.98757,-1.14817,2.48711,0
67530,-0.935945,-1.14826,2.42561,0
67550,-0.885615,-1.14523,2.36466,0
67570,-0.83838,-1.13905,2.30697,0
67590,-0.79655,-1.12878,2.25443,0
67610,-0.760391,-1.11418,2.20834,0
67630,-0.726646,-1.09773,2.16679,0
67650,-0.696777,-1.07881,2.13201,0
67670,-0.674605,-1.05776,2.10556,0
67690,-0.658975,-1.03451,2.08446,0
67700,-0.647012,-1.00988,2.06758,0
67720,-0.641591,-0.984285,2.05891,0
67740,-0.640933,-0.959647,2.05561,0
67760,-0.643198,-0.93601,2.05519,0
67780,-0.648498,-0.912469,2.05765,0
67800,-0.659017,-0.889005,2.06575,0
67820,-0.67387,-0.866898,2.07811,0
67840,-0.690821,-0.847361,2.09265,0
67860,-0.708031,-0.829416,2.10963,0
67880,-0.726879,-0.81196,2.12955,0
67900,-0.746753,-0.795273,2.15012,0
67920,-0.767889,-0.780329,2.17169,0
67940,-0.789629,-0.766144,2.19458,0
67960,-0.811426,-0.753228,2.21895,0
67980,-0.834429,-0.742065,2.24502,0
68000,-0.857448,-0.732595,2.27173,0
68020,-0.879689,-0.725257,2.29788,0
68040,-0.902629,-0.71901,2.32477,0
68060,-0.926048,-0.713527,2.35285,0
68080,-0.948672,-0.708458,2.38016,0
68100,-0.971779,-0.703623,2.40627,0
68120,-0.996327,-0.697894,2.4322,0
68140,-1.02255,-0.69183,2.45939,0
68160,-1.04771,-0.685711,2.48632,0
68180,-1.07086,-0.679843,2.51239,0
68200,-1.09339,-0.673708,2.53853,0
68220,-1.11683,-0.667236,2.56465,0
68240,-1.14105,-0.660865,2.58987,0
68260,-1.16525,-0.653669,2.61457,0
68280,-1.18938,-0.646513,2.63935,0
68300,-1.21305,-0.640355,2.66318,0
68320,-1.23595,-0.636056,2.6867,0
68340,-1.25718,-0.633278,2.71028,0
68360,-1.27731,-0.631979,2.73447,0
68380,-1.29733,-0.632595,2.75949,0
68400,-1.31662,-0.634907,2.78428,0
68420,-1.33555,-0.639364,2.80901,0
68440,-1.35417,-0.645141,2.83382,0
68460,-1.37214,-0.652297,2.85909,0
68480,-1.38848,-0.662001,2.884,0
68500,-1.40339,-0.673767,2.90841,0
68520,-1.41869,-0.686412,2.93307,0
68540,-1.43481,-0.699981,2.95727,0
68560,-1.45283,-0.714477,2.98147,0
68580,-1.47311,-0.72932,3.00639,0
68600,-1.49387,-0.744353,3.03042,0
68620,-1.51392,-0.759266,3.05365,0
68640,-1.534,-0.77336,3.07545,0
68660,-1.55345,-0.787393,3.09607,0
68680,-1.57128,-0.802135,3.1162,0
68700,-1.58751,-0.817427,3.13476,0
68720,-1.60126,-0.832063,-3.13418,0
68740,-1.61157,-0.84512,-3.12397,0
68760,-1.61841,-0.858185,-3.11571,0
68780,-1.62463,-0.872172,-3.10826,0
68800,-1.63041,-0.886502,-3.10025,0
68820,-1.63469,-0.901856,-3.09297,0
68840,-1.63712,-0.91709,-3.08779,0
68860,-1.63973,-0.931459,-3.08329,0
68880,-1.64281,-0.945769,-3.07858,0
68900,-1.64762,-0.96013,-3.07293,0
68920,-1.65408,-0.974,-3.0664,0
68940,-1.66231,-0.986491,-3.05851,0
68960,-1.67027,-0.996856,-3.05132,0
68980,-1.67644,-1.00571,-3.04553,0
69000,-1.68385,-1.01387,-3.03778,1001
69020,-1.69325,-1.02079,-3.02934,0
69040,-1.70256,-1.02581,-3.0219,0
69060,-1.7092,-1.0284,-3.01795,0
69080,-1.71291,-1.02972,-3.01639,0
69100,-1.71261,-1.0304,-3.01631,0
69120,-1.70996,-1.02982,-3.01896,0
69140,-1.70525,-1.02864,-3.02603,0
69160,-1.69825,-1.02727,-3.03641,0
69180,-1.69258,-1.02529,-3.045,0
69200,-1.68654,-1.02183,-3.05302,0
69220,-1.67996,-1.01716,-3.06178,0
69240,-1.67249,-1.01193,-3.07235,0
69260,-1.66368,-1.00602,-3.08474,0
69280,-1.6534,-0.998423,-3.09969,0
69300,-1.64193,-0.989768,-3.11688,0
69320,-1.62805,-0.980796,-3.13587,0
69340,-1.61321,-0.972034,3.1285,0
69360,-1.59831,-0.962959,3.11026,0
69380,-1.58482,-0.951619,3.09111,0
69400,-1.56975,-0.940097,3.06863,0
69420,-1.55171,-0.927252,3.04432,0
69440,-1.53622,-0.914625,3.02252,0
69460,-1.51877,-0.901622,2.99903,0
69480,-1.49911,-0.886313,2.97277,0
69500,-1.4765,-0.872142,2.94575,0
69520,-1.4532,-0.859078,2.92046,0
69540,-1.43043,-0.845713,2.89648,0
69560,-1.40822,-0.829678,2.87256,0
69580,-1.38719,-0.811196,2.84923,0
69600,-1.36453,-0.791905,2.82778,0
69620,-1.34139,-0.77053,2.809,0
69640,-1.32072,-0.746264,2.79346,0
69660,-1.30523,-0.718729,2.7809,0
69670,-1.29073,-0.688946,2.77131,0
69690,-1.27471,-0.657279,2.76447,0
69710,-1.26291,-0.625137,2.76213,0
69730,-1.25486,-0.592964,2.76278,0
69750,-1.24744,-0.561208,2.76587,0
69770,-1.23959,-0.529886,2.77341,0
69790,-1.23169,-0.501808,2.78436,0
69810,-1.2235,-0.47893,2.79193,0
69830,-1.21513,-0.460209,2.7967,0
69850,-1.20657,-0.443507,2.80485,0
69870,-1.19899,-0.428803,2.81724,0
69890,-1.19209,-0.416492,2.83279,0
69910,-1.1847,-0.4077,2.84843,0
69930,-1.17573,-0.401726,2.8618,0
69950,-1.16731,-0.396794,2.87424,0
69970,-1.16195,-0.393117,2.88733,0
69990,-1.15775,-0.390505,2.89978,0
70010,-1.15438,-0.388332,2.9109,0
70030,-1.15208,-0.385226,2.92076,1000
70050,-1.15077,-0.382969,2.92975,0
70070,-1.14897,-0.381338,2.93738,0
