Timestamp, Rotation x, Rotation y, Rotation z, Marker
40,-14.0625,6.375,9.9375,0
60,-13.1875,6.4375,7.75,0
80,-13.25,5.3125,7.5625,0
100,-9.5625,5.4375,7.875,0
120,-10.3125,6.375,6.625,0
130,-8.5625,5,2.25,0
130,-3.0625,3.6875,-1.0625,0
180,2.875,2.875,-4.75,0
200,3.9375,1.1875,-6.5625,0
220,3.4375,-1.0625,-6.6875,0
240,-0.375,-0.5625,-5.875,0
260,-1.125,0.3125,-4.3125,0
280,-1.625,0.3125,-4.875,0
300,-2.1875,-0.6875,-3.875,0
310,-0.6875,-0.3125,-0.5,0
330,-3.75,-0.625,2.25,0
350,-0.5625,-2.0625,3.1875,0
370,-0.125,-2.75,1.4375,0
390,2.6875,-2.9375,2.25,0
410,4.4375,-3.25,1.0625,0
430,6.4375,-3.0625,0,0
450,8.5625,-2.5625,0.25,0
470,9.625,-1.75,-0.25,0
490,10.1875,-1.125,-1,0
510,6,-0.9375,-0.875,0
530,4.5,-1.3125,0.1875,0
550,3.5,-3.125,-0.0625,0
570,3.0625,-4.3125,1.125,0
590,2.875,-2.5,1.125,0
610,2.625,-1.9375,0.3125,0
630,5.4375,-1.6875,1.1875,0
650,6.3125,-1.4375,0.25,0
670,7.875,-1.6875,-2.125,0
690,7.3125,-3.5625,-4.25,0
710,7.375,-2.1875,-3.875,0
730,7.375,-2.5625,-5.4375,0
750,7.3125,-3.5,-6.375,0
770,6.3125,-5.25,-6.3125,0
790,7.8125,-4.5,-5.1875,0
810,5.25,-4.3125,-4.875,0
830,4.1875,-4.5625,-4.5625,0
850,4.5625,-4.5625,-3.8125,0
870,3.875,-3.3125,-2.4375,0
890,3,-1.8125,-1.4375,0
910,2.5625,-1.5,-0.1875,0
930,1.625,-0.625,1.5,0
950,-0.75,-0.25,3.25,0
970,0.3125,-1,2.6875,0
990,3.25,-1.0625,1.875,0
1010,1.8125,-2.3125,0.75,0
1030,0.625,-4.125,0.5,0
1050,1.625,-5.6875,-0.625,0
1070,7.6875,-5.25,-3.125,0
1090,13,-4.5,-4.875,0
1110,13.875,-3.125,-4.875,0
1130,15.3125,-1.75,-3.875,0
1150,5.5625,-2.1875,-0.5625,0
1170,4.3125,-2.3125,1.5625,0
1190,2.375,-1.8125,-2.1875,0
1210,11.625,0.6875,-9.3125,0
1230,14.3125,3.6875,-13.0625,0
1250,21.8125,5,-15.125,0
1270,27.0625,3.3125,-17.625,0
1290,31.625,1.0625,-19.75,0
1310,28.0625,0.8125,-18.75,0
1330,13.9375,-0.625,-17.5,0
1350,9.625,-0.5,-10.4375,0
1370,8.3125,-1.5625,-7.375,0
1390,12.625,-1.9375,-9.125,0
1410,14.8125,-1.75,-12.5625,0
1430,17.6875,-2.4375,-14.75,0
1450,15.1875,0.9375,-10.375,0
1470,18.6875,1,-9.9375,0
1490,14.1875,1.3125,-8.5625,0
1510,9.0625,0.875,-10,0
1530,10.625,-0.6875,-14.625,0
1550,12.5625,-0.5625,-17.875,0
1570,11.875,1.9375,-17.1875,0
1590,14.6875,4.125,-16.9375,0
1610,16.25,5.0625,-13.5625,0
1630,13.625,6.5,-11.625,0
1650,11.0625,5.75,-11.625,0
1670,6.625,4.8125,-8.5625,0
1690,3.625,4,-4.375,0
1710,1.875,2.4375,-2.8125,0
1730,-2.0625,0.25,0.375,0
1750,-5.4375,-2.375,1.5625,0
1770,-5.5,-2.6875,1.5,0
1790,-4.25,-2,1.0625,0
1810,-2.25,-0.5,0.375,0
1830,-1.25,0.25,0.3125,0
1850,0.625,0.5625,-1.0625,0
1870,-0.4375,0.8125,-1.1875,0
1890,0.875,2.625,-1.75,0
1910,3.5,2.9375,-2,0
1930,5.25,2,-1.8125,0
1950,3.875,2.5625,-2.625,0
1970,4.1875,3.75,-4,0
1990,5.9375,3.6875,-5.5,0
2010,6.3125,3,-5.75,0
2030,6.25,2.5625,-5.5625,0
2050,6.875,1.6875,-5.125,0
2070,8.75,1.6875,-6.625,0
2090,16.3125,2.9375,-10,0
2110,22.1875,3.625,-12.8125,0
2130,20.875,3,-13.0625,0
2150,19,2.75,-13.875,0
2170,16.375,3.5625,-12.6875,0
2190,15.3125,3.6875,-9.4375,0
2210,13.125,2.4375,-6.625,0
2230,9.875,2.5625,-4.3125,0
2250,8.1875,2.625,-2.5625,0
2270,6,1.5625,-1.625,0
2290,4.375,1.375,-1.875,0
2310,1.1875,1,-0.5,0
2330,-1.5,0.4375,1.4375,0
2350,-2.125,-1.125,1.1875,0
2370,-1.9375,-2.8125,0.6875,0
2390,-3.3125,-2,1.1875,0
2410,-3.6875,-1.3125,2.3125,0
2430,-4.8125,-1.4375,3.625,0
2450,-5.5625,-3.125,3.0625,0
2470,-6.25,-2.5,2.75,0
2490,-6.1875,-1.875,2.875,0
2510,-4.8125,-1.0625,2.1875,0
2530,-2.125,-0.5625,0.375,0
2550,-1.75,-0.0625,1.1875,0
2570,0.0625,0.0625,0.8125,0
2590,-0.5625,-0.3125,0.4375,0
2610,1,-0.6875,-0.9375,0
2630,-0.8125,-0.875,-0.9375,0
2650,-0.625,-0.9375,-0.4375,0
2670,-3.0625,-0.875,-0.125,0
2690,-1.8125,-1.4375,-0.0625,0
2710,-1.0625,-1.3125,-0.25,0
2730,-0.375,-1.8125,-0.0625,0
2750,-0.0625,-2.1875,-0.6875,0
2770,-1.5,-1.625,-0.125,0
2790,-0.375,-1.125,0.3125,0
2810,-1.5625,-1.0625,0.3125,0
2830,-1.375,-1.75,0.0625,0
2850,-2,-1.875,0.3125,0
2870,-2.4375,0.125,1.4375,0
2890,-1.5625,0.6875,2.0625,0
2910,-2.5625,0.375,2.25,0
2930,-0.375,0.5625,0.875,0
2950,0.5,1.0625,-0.6875,0
2970,1.9375,0.9375,-1.875,0
2990,2.3125,0.25,-2.4375,0
3010,3.1875,0.125,-2.3125,0
3020,3.5,-1.125,-2.125,0
3040,1.375,-2.9375,-1.4375,0
3060,-0.5625,-2.125,-0.4375,0
3080,-1.4375,-2.125,0.5,0
3100,-2.6875,-2.4375,1.125,0
3120,-2,-1.625,0.75,0
3140,-1.4375,-1.8125,-0.0625,0
3160,-0.75,-1.3125,0.25,0
3180,-2.3125,-0.5625,0.125,0
3200,-1.6875,0.25,0.3125,0
3220,-0.9375,0.3125,0,0
3240,1,1.3125,-0.125,0
3260,2.5,0.1875,-0.375,0
3280,0.875,-0.4375,-1.4375,0
3300,2.625,-0.5625,-0.9375,0
3320,3.1875,-0.25,0.4375,0
3340,1.875,0.8125,1.1875,0
3360,0.5,0.375,1.5,0
3380,-0.0625,0.6875,0.625,0
3400,1.6875,0.9375,-0.3125,0
3420,1.875,0.1875,-0.375,0
3440,3.3125,0.125,-0.3125,0
3460,2.1875,-0.3125,-0.6875,0
3480,3.3125,-1.875,-1,0
3500,2.25,-1.875,-0.4375,0
3520,2.3125,-0.9375,0.125,0
3540,2.0625,-0.8125,0.3125,0
3560,0.625,-1.1875,0.8125,0
3580,-2.9375,0.0625,1.0625,0
3600,-1.8125,1.875,0.6875,0
3620,1.125,1,0.125,0
3640,2.4375,0.9375,-0.375,0
3660,3.5,1.0625,1.5,0
3680,6.875,-0.0625,1.8125,0
3700,5.1875,-2.375,0.9375,0
3720,8.5625,-2.9375,-0.1875,0
3740,10.1875,-2.4375,0.125,0
3760,8.625,0,0.625,0
3780,1.375,3.1875,2.4375,0
3800,-4.3125,7,3.875,0
3820,-9.1875,9,4.5625,0
3840,-8.8125,10.3125,2,0
3860,-7.6875,9.75,-0.4375,0
3880,-7.9375,8.4375,-1,0
3900,-7.875,7.6875,-1.625,0
3920,1.125,4.875,-1.8125,0
3940,6.125,-0.125,-2.625,0
3960,7.3125,-2.0625,-1.9375,0
3980,8.0625,-3.3125,1,0
4000,12.1875,-9.125,-0.75,0
4020,11.6875,-8.5625,-1.1875,0
4040,12.4375,-7.875,-1.9375,0
4060,6.625,-6.3125,-1.9375,0
4080,4.3125,-6.8125,-0.75,0
4100,1.25,-6,-0.75,0
4120,-0.75,-4.3125,0.3125,0
4140,-3.75,-1.875,1.375,0
4160,-5.9375,-2,0.8125,0
4180,-4.6875,-3,0.125,0
4200,-3.125,-0.9375,0.8125,0
4220,-0.25,2.0625,0.6875,0
4240,-0.125,2.375,0.5,0
4260,0.4375,1.75,-1.0625,0
4280,-1.1875,2.5625,-1.25,0
4300,1.6875,3.1875,-1.75,0
4320,6.0625,1.3125,-1.8125,0
4340,6.0625,-2.125,-1.125,0
4360,3.375,-4.25,0.3125,0
4380,-2,-4.5625,1.1875,0
4400,-3.5,-3.625,2.4375,0
4420,-9.5,-1.9375,4.4375,0
4440,-10.1875,-0.625,2.625,0
4460,-9.625,0.625,-0.5,0
4480,-1.5625,2.125,-3.1875,0
4500,-1.5625,1.3125,-1.375,0
4520,-1.5,1.6875,-0.1875,0
4540,-0.125,1.1875,-1.125,0
4560,1.6875,0.5625,-1.875,0
4580,2.3125,0.8125,-2.125,0
4600,1.875,-0.3125,-1.8125,0
4620,1,-0.25,-1.3125,0
4640,-0.875,-0.6875,-1.875,0
4660,-1.3125,-0.4375,-2.4375,0
4680,-2.625,0.1875,-1.125,0
4700,-0.875,0.6875,-1.375,0
4720,2,-0.75,-2.875,0
4740,4.125,-1,-2.625,0
4760,5.0625,-0.9375,-1.75,0
4780,3.4375,-0.8125,-0.4375,0
4800,2.0625,-0.75,0,0
4820,0.3125,-0.5625,0,0
4840,-1.75,-0.375,0.625,0
4860,-1.5,-0.6875,0.6875,0
4880,-1.75,-0.25,0.6875,0
4900,-2.375,0,0.1875,0
4920,-2.125,-0.1875,0.6875,0
4940,-6.6875,-0.75,0.625,0
4960,-2.8125,0.25,-1.25,0
4980,-0.3125,-0.5625,-1.4375,0
4990,0.25,-0.4375,-1.0625,0
5010,1.5625,-0.0625,-0.75,0
5030,3.125,-0.25,-0.875,0
5050,0.75,-0.5625,-0.6875,0
5070,-0.5,0.875,0.25,0
5090,0.5,1.5,1.25,0
5110,1.75,0.875,-0.5625,0
5130,1.375,1.5,-1.1875,0
5150,0,2.6875,0.625,0
5170,-1.25,0.875,2.625,0
5190,0.625,-0.3125,0.8125,0
5210,2.8125,-0.75,-1.1875,0
5230,3.3125,0.75,-2.1875,0
5250,1.75,1.875,-2.0625,0
5270,3.0625,1.6875,-2.125,0
5290,3.75,2.75,-3,0
5310,6.4375,2.9375,-2.25,0
5330,6.4375,0.4375,-2,0
5350,4.3125,-1.8125,-0.0625,0
5370,3.8125,-3.875,1.6875,0
5390,-0.4375,-5.875,2.25,0
5410,-0.8125,-4.125,2.6875,0
5430,-1.375,-4.5,2.3125,0
5450,0.1875,-5.375,2.9375,0
5470,1.25,-6.125,3.3125,0
5490,2.125,-7.75,2.0625,0
5510,2.125,-7.75,0.8125,0
5530,2.9375,-6.125,-0.3125,0
5550,2.125,-4.3125,-0.4375,0
5570,1.5625,-2.8125,-0.25,0
5590,0.75,-2.0625,0.625,0
5610,0.5,-1.6875,1.25,0
5630,-0.125,-1.5625,0.0625,0
5650,-1.1875,-0.125,-0.75,0
5670,1.25,-0.4375,-1.3125,0
5690,-6.6875,-1.8125,-0.75,0
5710,-2.375,-2.8125,-4.3125,0
5730,-1.1875,-3.9375,-3.3125,0
5750,-2.125,-2.375,-3.3125,0
5770,-5.4375,1.25,-4.5625,0
5790,-6.5625,2.75,-4.6875,0
5810,-7.75,2.875,-4.1875,0
5830,-10.125,2,-2.75,0
5850,-10.4375,1.8125,0.0625,0
5870,-12.125,2.5625,2.125,0
5890,-11.875,1.5625,3.0625,0
5910,-10.625,-0.25,4.1875,0
5930,-9.5,-1.5625,4.5,0
5950,-9.0625,-2.125,4.8125,0
5970,-9.3125,-2.375,4.625,0
5990,-15.75,-4.375,2.9375,0
6010,-14.5625,-3.75,5.1875,0
6030,-11.625,-5.1875,6.75,0
6050,-9.25,-4.4375,5.5,0
6070,-6.8125,-4.125,4.375,0
6090,-3.75,-4.625,4.25,0
6110,-2.5625,-5.4375,5.25,0
6130,-2.625,-9.0625,5.875,0
6150,-5.875,-10.5625,2,0
6170,-12.75,-12.3125,-3,0
6190,-21.1875,-16.125,-4.5,0
6210,-30.125,-17.9375,-4.5625,0
6230,-54.5,-11,-7,0
6250,-81.9375,-8.5625,-14.6875,0
6270,-106.562,-9.0625,-26.4375,0
6290,-128.938,-21.1875,-35.625,0
6310,-105.062,-38.375,-39.5625,0
6330,-60.5,-46,-45.6875,0
6350,-35.6875,-45.5,-52.75,0
6370,-24.9375,-48.5,-60.5625,0
6390,-42.375,-56.375,-66.625,0
6410,-65.625,-61.0625,-72,0
6430,-74.0625,-62,-73.0625,0
6450,-80.1875,-66.625,-71.75,0
6470,-88.1875,-71.25,-69.1875,0
6490,-88.375,-74.1875,-67.9375,0
6510,-76.6875,-75.5,-65.625,0
6530,-77.4375,-74.3125,-66.0625,0
6550,-83.9375,-69,-72,0
6570,-84.3125,-66.0625,-76.3125,0
6590,-78.375,-64.5625,-75.8125,0
6610,-74.125,-63,-73.875,0
6630,-62.4375,-59.25,-75.75,0
6650,-58.375,-56.875,-75.0625,0
6670,-57.0625,-52.8125,-73.0625,0
6690,-51.4375,-47.75,-71.9375,0
6710,-48.75,-42.125,-69.3125,0
6730,-46.375,-37.9375,-66.0625,0
6750,-42,-36.6875,-64.6875,0
6770,-37.75,-35.3125,-61.875,0
6790,-33.6875,-34.25,-55.4375,0
6810,-30.8125,-32.5625,-53.0625,0
6830,-28.375,-30.4375,-50.375,0
6850,-25.1875,-29.625,-45.1875,0
6870,-22.625,-26.6875,-41.125,0
6890,-25.8125,-23.125,-38.1875,0
6910,-29.3125,-19.125,-34.625,0
6930,-26.8125,-14.9375,-28.0625,0
6950,-25.9375,-12.625,-22.1875,0
6970,-22.6875,-8.125,-16.4375,0
6990,-23.125,-3.375,-15.1875,0
7010,-24.3125,-2.75,-11.4375,0
7030,-20.6875,-1.25,-5.5625,0
7050,-22.8125,-1.4375,-0.8125,0
7070,-29.6875,0.625,4.875,0
7090,-32.125,5.4375,5.25,0
7110,-29.6875,8.1875,0.6875,0
7130,-31.75,8.0625,-1,0
7150,-32.4375,7.0625,1.4375,0
7170,-34.8125,11.1875,1.125,0
7190,-40.75,17.625,0.125,0
7210,-42.5,21.5625,3.0625,0
7230,-48.875,25,11.375,0
7250,-49.5625,30.75,15.9375,0
7270,-45.125,32,26.25,0
7290,-57.875,28,45.5625,0
7310,-71.8125,31.875,58.9375,0
7330,-56.8125,47.8125,62.8125,0
7350,-55.125,52.75,61.1875,0
7370,-62.375,53.25,66.625,0
7390,-76.75,61.125,64.1875,0
7410,-87.0625,66.125,61.8125,0
7430,-100.562,65.3125,63.125,0
7450,-105.938,61.5,63.5625,0
7470,-109.25,55.5625,58.4375,0
7490,-105.75,44.0625,46.3125,0
7510,-89.3125,30.875,31.625,0
7530,-62.25,16.5,21.25,0
7550,-30.5625,1.875,13.125,0
7570,-12.1875,-8,5.5,0
7590,2.9375,-11.1875,-0.125,0
7610,4.75,-11.75,-4.75,0
7630,4.5625,-8.625,-7.625,0
7650,13.3125,-3.375,-7.1875,0
7670,21.875,-1.375,-6.75,0
7690,20.1875,-0.375,-4.875,0
7710,16,0.875,-1.75,0
7730,9.375,-0.6875,-1.3125,0
7750,3.9375,-2.25,0.125,0
7770,3.6875,-4.8125,0.5625,0
7790,5,-5.4375,-0.9375,0
7810,3.25,-6.6875,-1.8125,0
7830,-1.5,-9,0.5625,0
7850,-5.5,-10.625,0.125,0
7870,-5.5,-13.9375,-1.5625,0
7890,-8.5625,-14.625,0,0
7910,-11.1875,-16.375,2.125,0
7930,-9,-18.1875,1.375,0
7950,-1.625,-19.0625,0.375,0
7970,-0.375,-20.4375,0.1875,0
7990,-2.3125,-21.375,-0.4375,0
8010,-1.375,-20.4375,-1.6875,0
8030,-2.5,-20.625,-2,0
8050,-2.8125,-21.25,-2.1875,0
8070,1,-21.4375,-2,0
8090,3.375,-21.8125,-1,0
8110,0.5,-22.9375,-1.0625,0
8130,-2.9375,-23.25,-1.125,0
8150,-2.1875,-23.625,0.125,0
8170,-1.5,-22.4375,-0.625,0
8190,1,-20.6875,-0.8125,0
8210,-0.5,-20.5,0,0
8230,-3,-19.9375,0.125,0
8250,-4.375,-18.875,-0.6875,0
8270,-3.875,-17.375,-0.8125,0
8290,-2.9375,-15.625,-0.25,0
8310,-2.875,-12.3125,-0.5625,0
8330,-2.625,-9.6875,-1.75,0
8350,-1.625,-7.5,-2.875,0
8370,4.875,-4.3125,-3.3125,0
8390,9.5,-0.1875,-3.375,0
8400,7.125,1.25,-3.4375,0
8420,4.875,2.9375,-3,0
8440,5.5625,4.125,-2.625,0
8460,3.9375,5.375,-1.8125,0
8480,3.1875,6.5625,-1,0
8500,3.6875,8,-1,0
8520,6.125,7,-0.5,0
8540,1,6.5625,1.0625,0
8560,-1.5625,6.0625,2.0625,0
8580,-2.625,6.375,3.25,0
8600,-3.5625,6.5,2.6875,0
8620,-4.375,5.4375,1,0
8640,-2.6875,4.9375,0.3125,0
8660,0.625,3.625,-0.3125,0
8680,0.75,2.4375,-0.5,0
8700,1.125,2.8125,-0.5625,0
8720,0.1875,2.5625,-0.625,0
8740,-1.5,2.75,-1.375,0
8760,-1.875,1.1875,-1.125,0
8780,-2.875,0.375,-1.125,0
8800,-2.5625,0.0625,-2.0625,0
8820,-5.4375,-0.5,-1.0625,0
8840,-9.4375,-1.125,-0.6875,0
8860,-11.25,-0.5,-1.3125,0
8880,-10.5625,-0.875,-2,0
8900,-8.75,-0.875,-2.0625,0
8920,-7.5,-1.25,-2,0
8940,-6.875,-1.625,-2.1875,0
8960,-4,-0.5,-3.375,0
8980,-3.25,-0.4375,-2.375,0
9000,-3.8125,-0.5,-1.625,0
9020,-4,-1.75,-1.6875,0
9040,-1.75,-1.875,-1.9375,0
9060,-0.6875,-1.5625,-2.3125,0
9080,-1.3125,-1.9375,-2,0
9100,-1.5,-2.0625,-1.4375,0
9120,-0.5,-2,-1.5625,0
9140,1.125,-3.375,-0.9375,0
9160,0.0625,-3.8125,0.25,0
9180,-0.25,-3.1875,0.5,0
9200,0.5,-2.9375,0.75,0
9220,0.8125,-2.875,0.5625,0
9240,1.5,-2.625,0.4375,0
9260,3.375,-2.25,0.75,0
9280,3.75,-2.375,1.3125,0
9300,3.125,-2.4375,1.1875,0
9320,8.25,-1.5,0.375,0
9340,15.75,0.5,1.4375,0
9360,25,3.625,5.1875,0
9380,40.4375,11.8125,2.5625,0
9400,60.75,15.5,-0.25,0
9420,82.875,11.0625,-3.875,0
9440,88.4375,-0.875,-3.0625,0
9460,84.625,-14.4375,5.5,0
9480,96.1875,-22.875,3.1875,0
9500,120.562,-32.75,-8.5,0
9520,111.188,-42.1875,-13.5625,0
9540,102.625,-43.4375,-18.0625,0
9560,110.625,-42.875,-12.4375,0
9580,89.4375,-49.375,-10.9375,0
9600,97.6875,-47.875,-24.4375,0
9620,112.125,-42.125,-27.75,0
9640,120.25,-49.875,-18.8125,0
9660,103.5,-49.25,-25.125,0
9680,102.938,-42.0625,-25.9375,0
9700,109.062,-44.25,-22.4375,0
9720,105.5,-46.75,-27,0
9740,103.75,-37.9375,-30.9375,0
9760,95.625,-33.3125,-27.125,0
9780,95.375,-32,-26.5,0
9800,81.5,-35.9375,-27.3125,0
9820,68.25,-30.5625,-25.4375,0
9840,62.4375,-28.9375,-19.9375,0
9860,56.8125,-31.125,-18.5,0
9880,47.25,-28.0625,-20.0625,0
9900,37.875,-21.9375,-17.5,0
9920,32.0625,-19.3125,-9.9375,0
9940,27.125,-16.5,-9.1875,0
9960,21.8125,-15.125,-9.875,0
9980,15.6875,-15.375,-10.3125,0
10000,7.0625,-13.0625,-4.9375,0
10020,8.375,-10.5625,-3.4375,0
10040,3.0625,-8.0625,-1.5,0
10060,-2,-5.4375,0.0625,0
10080,-1.125,-0.4375,1,0
10100,-0.6875,4.875,0.4375,0
10120,-1.125,8.75,2.4375,0
10140,-0.75,14.1875,4.6875,0
10160,1.3125,18.9375,4.25,0
10180,2.75,21.5625,3.625,0
10200,0.4375,26.75,7.4375,0
10220,9.25,25.75,7.375,0
10240,10.5,25.625,6.9375,0
10260,6.8125,25.1875,3.75,0
10280,2.1875,23.9375,7.25,0
10300,6.625,20.9375,7.1875,0
10320,6.75,22.5625,4.5625,0
10340,1.75,21.8125,6,0
10360,-5.5,22.375,5.375,0
10370,-11.875,28.25,5.625,0
10390,-9.5625,34.8125,6.5,0
10410,-9.375,46.0625,10.8125,0
10430,-18.5,58.1875,11.625,0
10450,-22,58,8.0625,0
10470,-18.1875,48.875,12.0625,0
10490,-4.4375,42.5,12,0
10510,4.6875,37.4375,8.125,0
10530,3.6875,32.375,7,0
10550,-5.75,29.125,6.375,0
10570,-7.125,24.0625,5.625,0
10590,-0.75,19.1875,6.125,0
10610,5.6875,14.375,6.1875,0
10630,8.5,11.4375,4.9375,0
10650,6.125,10.125,5.375,0
10670,2.0625,8.375,6.6875,0
10690,2.3125,6.25,9.125,0
10710,4.125,5.1875,9,0
10730,3.625,3.6875,8.8125,0
10750,2.125,3.1875,9.875,0
10770,-1.5,2.4375,8.6875,0
10790,-1.0625,0.4375,8.3125,0
10810,1.125,-1.1875,8.5625,0
10830,1.6875,-1.625,7.6875,0
10850,1.6875,-2.0625,6.0625,0
10870,-0.5625,-3.1875,6.1875,0
10890,-3.125,-4.25,7.4375,0
10910,-1.25,-3.6875,7.5625,0
10930,-0.8125,-4.3125,6.875,0
10950,-0.0625,-4.3125,5.875,0
10970,-3.1875,-3.4375,6.5625,0
10990,-3.3125,-3.9375,5.4375,0
11010,-3.0625,-4.125,5.1875,0
11030,-1.375,-5.4375,4.125,0
11050,-0.625,-6,3.375,0
11070,-0.6875,-5.625,3.1875,0
11090,-0.75,-6,2.9375,0
11110,-4.0625,-5.9375,3.25,0
11130,-4.375,-5.125,2.6875,0
11150,-2.625,-4.6875,3.125,0
11170,-1.25,-4.75,2.875,0
11190,-2.375,-4.5625,3.625,0
11210,-3.1875,-4,3,0
11230,-3.4375,-2.5,3.25,0
11250,0.5,-2.9375,3.3125,0
11270,1.375,-3.25,3.25,0
11290,2.3125,-3.6875,3.5625,0
11310,2.9375,-3.75,4.0625,0
11330,4.1875,-2.5,3.25,0
11350,3.875,-1.9375,2,0
11370,3.875,-2.4375,2.875,0
11390,6.0625,-2.0625,2.3125,0
11410,8.6875,-0.3125,3.1875,0
11430,11,1.8125,3.75,0
11450,10.875,3.5625,3.3125,0
11470,13.8125,4.0625,2,0
11490,20.875,3.5625,5.9375,0
11510,32.875,5.125,16.125,0
11530,45.375,13.1875,26.125,0
11550,47.75,30.3125,32.875,0
11570,42,52.25,33.125,0
11590,29.5625,71.3125,38.3125,0
11610,24.0625,84.5625,47.5625,0
11630,15.4375,95.375,54.8125,0
11650,13.375,103.312,63.1875,0
11670,16.75,110.25,64.75,0
11690,16.5,110.5,67.75,0
11710,12.0625,105.938,76.75,0
11730,10.6875,101.688,82.5,0
11750,15.8125,101.5,76.125,0
11770,23.75,97.5,69.6875,0
11790,26.9375,95.8125,68.5625,0
11810,22.75,94.9375,69.0625,0
11830,16,96.1875,61.125,0
11850,7.1875,98,49.25,0
11870,4.8125,91.125,43.4375,0
11890,10,84.25,40.6875,0
11910,9.375,78.625,40.125,0
11930,47.375,20.8125,21.0625,0
11950,55.5,-4.25,-23.375,0
11970,23,0.0625,-23.4375,0
11990,10,4.1875,-12.8125,0
12010,-24.0625,-0.25,-4.75,0
12030,-32.75,0.125,8,0
12050,-17.8125,6.1875,17.1875,0
12070,-13.75,15.75,20.5,0
12090,-3.5,19.5,31.0625,0
12110,5.5625,17.5,30.5625,0
12130,-9.0625,13.6875,16.0625,0
12150,-7.5625,8.6875,0.125,0
12170,-0.625,3.5,-11.5625,0
12190,4.8125,-1.6875,-17.3125,0
12210,11.3125,-3.375,-12.5,0
12230,8.4375,0.125,-4.375,0
12250,5.3125,3.9375,0.5625,0
12270,0.5,3.125,0.625,0
12290,-4.3125,-0.375,-1.1875,0
12310,-6.25,-1.875,-2.6875,0
12330,-9.0625,-1.375,-6.25,0
12350,-5.8125,-1.25,-8.5625,0
12370,-5.6875,-1.5,-7.25,0
12390,-2.5625,1.125,-5.125,0
12410,0.9375,5.625,-5.5625,0
12430,6.125,7.375,-8.1875,0
12450,11.6875,6.5,-10.9375,0
12470,16.4375,4.6875,-13.25,0
12490,17.625,3.25,-14.6875,0
12510,22.0625,3.375,-13.4375,0
12530,26.9375,7.8125,-12.9375,0
12550,33.125,11.9375,-13.0625,0
12570,36.375,12.5625,-13.4375,0
12590,38.375,11.3125,-14.1875,0
12610,40.25,8.6875,-17.3125,0
12630,42,6.6875,-20.25,0
12650,42.25,4.4375,-18.0625,0
12670,30.3125,4,-15.125,0
12690,21.875,3,-13.6875,0
12710,13,2.875,-10.875,0
12730,6.25,7.375,-9.125,0
12750,5,6.9375,-9.0625,0
12770,6.5,6.5,-8.4375,0
12790,12.75,9.4375,-7.9375,0
12810,14.0625,10.3125,-8.9375,0
12830,12.5,8.5,-10.8125,0
12850,7.1875,7.9375,-11.75,0
12870,3.4375,10.5625,-11.5,0
12890,7.625,13,-13.5625,0
12910,13.3125,13.1875,-15.0625,0
12930,17,14.5,-16.25,0
12950,19.375,16.375,-17.4375,0
12970,19.375,20.5625,-16.5625,0
12990,20.5625,22.1875,-16.4375,0
13010,18.8125,21.6875,-15.6875,0
13030,14.1875,20.75,-14.1875,0
13050,11.8125,18.5625,-11.9375,0
13070,10.0625,16.0625,-9.9375,0
13090,9.6875,13.8125,-8.6875,0
13110,8.1875,12.4375,-8.125,0
13120,8.0625,11.125,-7.5625,0
13140,7.375,9.25,-7.1875,0
13160,5.75,7.4375,-6.0625,0
13180,3.5625,5,-3.9375,0
13200,2.4375,1.4375,-2.9375,0
13220,2.0625,-1.4375,-1.75,0
13240,1.6875,-2.125,-1.125,0
13260,1.4375,-2.125,-0.125,0
13280,-0.9375,-1.9375,-0.0625,0
13300,-5.4375,-1.625,0.4375,0
13320,-8.6875,-2.4375,1.3125,0
13340,-8.9375,-4.375,1.1875,0
13360,-8.625,-5.25,1.375,0
13380,-9,-5.25,1.625,0
13400,-8.5625,-6,1.3125,0
13420,-8.125,-7.125,1.125,0
13440,-6,-7.9375,0.3125,0
13460,-3.8125,-7.5625,-0.25,0
13480,-2.25,-6.625,-0.25,0
13500,0.6875,-4.5625,-0.625,0
13520,2.9375,-3.5625,-0.8125,0
13540,2.25,-4.4375,-1.3125,0
13560,0.75,-4.0625,-1.8125,0
13580,-0.1875,-2.6875,-2.3125,0
13600,-0.25,-2.875,-2.625,0
13620,1.4375,-3,-2.8125,0
13640,6,-3.75,-2.75,0
13660,9.875,-3.6875,-2.6875,0
13680,9.75,-3.75,-3,0
13700,8.5,-3.8125,-2.9375,0
13720,5,-4.5,-1.8125,0
13740,2.5,-4,-0.625,0
13760,0.9375,-3.3125,0.0625,0
13780,-0.25,-2.75,0.3125,0
13790,-1.375,-1.9375,1.25,0
13810,-2.75,-1.4375,1.875,0
13830,-4.25,-1.0625,2.25,0
13850,-4.375,-0.5,2.125,0
13870,-4.3125,-0.125,2.3125,0
13890,-3.375,0.0625,1.8125,0
13910,-1.6875,0.1875,1.125,0
13930,-0.5,0.4375,0.25,0
13950,0.9375,-0.0625,-0.375,0
13970,3.0625,-0.375,-0.875,0
13990,4.25,-0.4375,-1.5625,0
14010,2.625,-0.25,-1.625,0
14030,1.25,-0.4375,-1.25,0
14050,-0.0625,-0.75,-1.5,0
14070,-1,-0.5625,-2.0625,0
14090,-1.9375,-1.3125,-2.25,0
14110,-0.6875,-1.8125,-2.625,0
14130,1.9375,-2.1875,-2.6875,0
14150,4.6875,-2.3125,-3,0
14170,5.4375,-1.9375,-3.4375,0
14190,4.0625,-1.8125,-3.25,0
14210,2.5625,-1.5,-2.8125,0
14230,2,-1.25,-2,0
14250,2.0625,-0.9375,-1.125,0
14270,2.1875,-0.625,0,0
14290,0.4375,-0.5,1.1875,0
14310,-1.75,-0.25,1.6875,0
14330,-2.9375,-0.625,1.75,0
14350,-2.625,-0.5625,1.125,0
14370,-2.4375,-0.3125,0.8125,0
14390,-0.8125,-0.5625,0.5625,0
14410,1.375,-0.875,0.3125,0
14430,2.625,-1,-0.25,0
14450,2.4375,-0.9375,-1.125,0
14470,1.75,-0.5,-1.6875,0
14490,2.25,-0.375,-1.6875,0
14510,2.75,-0.625,-1.375,0
14530,2.25,-0.5,-1.3125,0
14550,2.3125,-0.25,-1.0625,0
14570,1.8125,-0.1875,-0.75,0
14590,-0.5625,-0.375,-0.1875,0
14610,-2.625,-0.3125,-0.0625,0
14630,-3.375,-0.375,-0.125,0
14650,-2.4375,-0.375,-0.375,0
14670,-1.5,-0.3125,-0.4375,0
14690,-1.4375,-0.1875,-0.625,0
14710,-1.1875,-0.0625,-0.4375,0
14730,-1.25,0.0625,-0.4375,0
14750,-2.125,0.125,-0.375,0
14770,-2.9375,0,-0.375,0
14790,-2.1875,0,-0.5625,0
14810,-0.75,-0.25,-0.75,0
14830,0.25,-0.25,-0.875,0
14850,0.5625,-0.375,-0.875,0
14870,0.75,-0.625,-1,0
14890,0.6875,-0.4375,-1.0625,0
14910,-0.0625,-0.1875,-0.375,0
14930,-0.5,-0.1875,0,0
14950,-0.375,-0.3125,0.3125,0
14970,-0.1875,-0.625,0.25,0
14990,-0.625,-1,0.5,0
15010,-1,-1.125,0.625,0
15030,-1.5625,-1.0625,0.6875,0
15050,-1.625,-1.1875,0.625,0
15070,-2.875,-0.875,0.4375,0
15090,-3.9375,-0.4375,0,0
15110,-1.125,-0.125,0.25,0
15130,-0.6875,-0.5625,0.3125,0
15150,0.3125,-0.3125,0.4375,0
15170,-1.1875,0.25,0.4375,0
15190,-2.8125,0.5625,0.4375,0
15210,-3.25,0.375,0.625,0
15220,-3.0625,-0.125,0.5,0
15240,-2.375,-0.1875,0.5,0
15260,-1.125,-0.5,0.375,0
15280,-0.25,-0.5,0.1875,0
15300,0,-0.5625,-0.625,0
15320,0.1875,-0.375,-0.75,0
15340,0.4375,-0.375,-0.5625,0
15360,0.125,-0.125,-0.4375,0
15380,-0.3125,0.125,-0.375,0
15400,-0.3125,0.375,-0.125,0
15420,-0.9375,0.375,0.1875,0
15440,-3.375,0.4375,1.3125,0
15460,-8.25,0.9375,2.1875,0
15480,-12.375,2.3125,2.5625,0
15500,-13,2.5625,2.5625,0
15520,-10.4375,1.875,2.4375,0
15540,-7.5,1.5,1.8125,0
15560,-6.75,1.5625,1.75,0
15580,-5.1875,0.8125,1.0625,0
15600,-2.5,-0.125,-0.5,0
15620,0.875,-1.125,-1.8125,0
15640,3.4375,-1.875,-2.6875,0
15660,5.25,-2,-3.375,0
15680,6.5,-1.375,-3.5,0
15700,6.5625,-1.375,-3.6875,0
15720,6.125,-0.9375,-3.125,0
15740,4.0625,-0.5625,-2.5625,0
15750,2.125,0.0625,-1.25,0
15770,0.1875,0.5,0.3125,0
15790,-1.1875,0.875,1.6875,0
15810,-2.1875,1,2.0625,0
15830,-2.875,0.9375,1.8125,0
15850,-3.125,0.75,1.625,0
15870,-3,0.5,1.3125,0
15890,-2.125,0.375,1.375,0
15910,-0.8125,0,0.75,0
15930,0.25,-0.0625,0.5,0
15950,0.75,-0.375,0.3125,0
15970,1.25,-0.4375,-0.0625,0
15990,1.5625,-0.1875,-0.1875,0
16010,1.8125,-0.1875,-0.1875,0
16030,2.0625,-0.125,-0.3125,0
16050,2,0.1875,-0.25,0
16070,2.4375,0.3125,0.4375,0
16090,3,0.375,0.5625,0
16110,3.0625,0.375,0.3125,0
16130,1.625,0.4375,0.1875,0
16150,0.9375,0.625,0.5625,0
16170,1.9375,0.875,0.3125,0
16190,2.25,1.0625,0.0625,0
16210,1.875,1.4375,-0.125,0
16230,0.625,1.5,-0.125,0
16250,0.25,1.75,-0.0625,0
16270,0.875,1.4375,-0.0625,0
16290,1.375,1.4375,0.0625,0
16310,1,1.125,0.0625,0
16330,-0.1875,0.8125,0.25,0
16350,-1.4375,0.25,0.25,0
16370,-1.8125,-0.125,0.3125,0
16390,-1.9375,-0.0625,0.4375,0
16410,-1.375,0.5625,1,0
16430,-0.8125,1.125,1.375,0
16450,-1.1875,1.25,1.625,0
16470,-2.9375,1,1.9375,0
16490,-7.25,0.6875,2.5625,0
16510,-8.8125,0.8125,2.9375,0
16530,-9.8125,0.9375,3.0625,0
16550,-13.375,0.625,2.9375,0
16570,-10.375,-0.875,2.6875,0
16590,-4.5,-0.6875,1.3125,0
16610,-1.75,1.3125,1.3125,0
16630,1.375,0.125,0.75,0
16650,1.9375,-0.1875,-0.625,0
16670,3.375,0.1875,-1.25,0
16690,4.3125,0.625,-1.1875,0
16710,4.3125,1.4375,-0.0625,0
16730,3.875,1,-0.0625,0
16750,2.0625,0.5625,-0.1875,0
16770,-0.375,0.25,0.5625,0
16790,-0.6875,-0.4375,1.25,0
16810,0.625,-1.125,1.1875,0
16830,1.625,-1.5625,0.8125,0
16850,1,-1.6875,0.4375,0
16870,-0.625,-1.5,0,0
16890,-3.125,-1,0.5,0
16910,-5.3125,-1.4375,1.8125,0
16930,-5.5,-1.0625,2.4375,0
16950,-5,-1,3.3125,0
16970,-7.375,-0.875,4.3125,0
16990,-9.625,-1.3125,4.875,0
17010,-10.4375,-1.25,4.6875,0
17030,-9.875,-1,4,0
17050,-7.8125,-0.4375,3.5,0
17070,-6,-0.3125,2.4375,0
17090,-3.5625,0.3125,1.4375,0
17110,-1.5,0.5,0.5,0
17130,0.1875,0.8125,-0.5625,0
17150,1.0625,0.8125,-1.25,0
17170,1.875,0.3125,-1.6875,0
17190,2.125,0.125,-1.6875,0
17210,1.75,-0.125,-1.9375,0
17230,1.875,-1.125,-1.875,0
17250,2.5,-1.9375,-1.875,0
17270,2.1875,-2.0625,-2.0625,0
17290,2,-1.5625,-2.25,0
17310,1.5625,-0.8125,-1.875,0
17330,1.0625,-0.5625,-1.75,0
17350,0.5625,-0.3125,-1.5625,0
17370,0.1875,0,-0.9375,0
17390,-0.6875,0,-0.1875,0
17410,-3.3125,-1.0625,0.4375,0
17430,-6.9375,-1.3125,1.25,0
17450,-8.0625,-1.3125,1.375,0
17470,-6.6875,-0.625,0.5,0
17490,-3.3125,-0.5,0.75,0
17510,-2.3125,-1.0625,0.5,0
17530,-2.6875,-0.6875,0.25,0
17550,-3.8125,0,-0.3125,0
17570,-4.375,-0.125,-0.375,0
17590,-3.0625,0.125,0.0625,0
17610,-2.4375,0.75,-0.25,0
17630,-1.0625,0.625,-0.0625,0
17650,-1,0.1875,-0.1875,0
17670,-0.75,-0.625,-0.4375,0
17690,-0.9375,-0.8125,-0.875,0
17710,-1.3125,-0.875,-0.875,0
17730,-0.4375,-1,-0.875,0
17750,-0.3125,-1,-0.9375,0
17770,0.5,-0.75,-0.9375,0
17790,0.5625,-0.625,-1.0625,0
17810,0.3125,-0.5,-1,0
17830,0.0625,0.125,-0.875,0
17850,-0.3125,0.4375,-0.5,0
17870,-1.3125,0.0625,-0.25,0
17890,-1.375,0.0625,-0.3125,0
17910,-1.5,0.25,-0.5,0
17930,-0.25,-0.1875,-0.4375,0
17950,0.9375,-0.25,-0.375,0
17970,1.625,-0.1875,-0.4375,0
17990,1.5,-0.8125,-0.9375,0
18010,0.4375,-1.125,-1.25,0
18030,0.4375,-1.25,-1.6875,0
18050,1.1875,-0.5,-1.9375,0
18070,2.6875,-0.125,-1.6875,0
18090,3.1875,-0.1875,-1.375,0
18110,3.25,-0.0625,-1.375,0
18130,1.8125,-0.3125,-1.125,0
18150,1.4375,-0.3125,-0.875,0
18170,0.8125,-0.0625,-0.625,0
18190,0.6875,-0.125,-0.3125,0
18210,0.25,-0.25,-0.25,0
18230,0.1875,-0.5625,-0.25,0
18250,0.8125,-0.375,-0.4375,0
18270,0.8125,-0.6875,-0.25,0
18290,0.875,-0.5,-0.5,0
18310,1.875,-0.5625,-0.9375,0
18330,2,-0.875,-0.625,0
18350,1.9375,-0.4375,-0.5625,0
18370,1.3125,-0.6875,-0.4375,0
18390,1,-0.6875,-0.5625,0
18410,0.8125,-0.6875,-0.3125,0
18430,0.8125,-0.5,-0.4375,0
18450,0.875,0,-0.5,0
18470,0.375,-0.25,0,0
18490,0.6875,-0.375,-0.3125,0
18510,0.3125,-0.3125,-0.375,0
18530,-0.375,-0.5625,0.125,0
18550,-1.0625,-0.8125,-0.625,0
18570,-3,-0.6875,-0.5,0
18590,-3.3125,-0.5,0.125,0
18610,-2,-0.5625,-0.25,0
18630,-2.8125,-0.25,-2.0625,0
18650,-8.875,1.9375,-1.3125,0
18670,-7.75,0.0625,-1,0
18690,-6.9375,-1.75,0.5625,0
18710,-7.1875,-1.875,1.5625,0
18730,-5.875,-1.5,1.5,0
18750,-3.75,-1.6875,1,0
18770,-3.0625,-1.5625,0.5625,0
18790,-1.3125,-1,-0.1875,0
18810,0.75,-0.25,-0.3125,0
18830,1.375,-0.375,0.0625,0
18850,1.75,0.25,-0.25,0
18870,0.125,0.5,-0.1875,0
18890,-0.0625,0.375,-0.4375,0
18910,-1.4375,0.6875,-0.5,0
18930,-1.0625,1,-0.5625,0
18950,-0.9375,0.625,-0.4375,0
18970,-3.1875,-0.75,0.4375,0
18990,-4.6875,-1.25,0.8125,0
19010,-3.25,-1.1875,0.25,0
19030,-2.875,-0.6875,0.125,0
19050,-2.25,-0.3125,0.0625,0
19070,-0.5,-0.25,-0.3125,0
19090,0.875,-0.125,-0.1875,0
19110,0.75,-0.4375,0.3125,0
19130,0.25,-0.5625,0.1875,0
19150,-1.5,-0.3125,0,0
19160,0.25,0.125,0.125,0
19180,0.3125,0.0625,0.0625,0
19200,0.4375,0.4375,-0.1875,0
19220,-0.6875,0.375,0.125,0
19240,0,0.375,0.25,0
19260,-0.125,-0.0625,-0.1875,0
19280,-0.4375,-0.6875,-0.0625,0
19300,-0.125,0.0625,0.0625,0
19320,0.1875,-0.125,0,0
19340,1,-0.3125,-0.1875,0
19360,0.6875,0,-0.0625,0
19380,0.5,-0.1875,0,0
19400,-0.1875,-0.5625,0,0
19420,-0.125,0.125,0.125,0
19440,0.5,0.3125,0,0
19460,-1.1875,-0.125,0,0
19480,-0.25,-0.125,-0.0625,0
19500,-0.625,0.0625,0.3125,0
19520,-0.5625,-0.375,0.1875,0
19540,-0.0625,0.0625,0.1875,0
19560,-0.1875,-0.0625,-0.4375,0
19580,0.3125,-0.625,-0.3125,0
19600,0.125,-0.3125,-0.0625,0
19620,-0.5,-0.125,0,0
19640,-0.125,0.4375,0,0
19660,-0.25,0.5625,-0.125,0
19680,-0.5,-0.0625,-0.375,0
19700,-1.1875,0.1875,-0.0625,0
19720,-0.25,0.25,-0.25,0
19740,-0.0625,-0.125,0.25,0
19760,-0.6875,-0.1875,0.3125,0
19780,-0.9375,-0.75,0.125,0
19800,-0.4375,-0.8125,-0.0625,0
19820,-0.25,-0.0625,-0.4375,0
19840,-0.3125,0.125,-0.4375,0
19860,0,0.0625,-0.25,0
19880,0.75,0.0625,-0.0625,0
19900,-0.4375,0.0625,0.3125,0
19920,-0.4375,0.0625,0,0
19940,-0.5,-0.0625,-0.1875,0
19960,-0.625,0.1875,0.1875,0
19980,-0.6875,0.0625,0.0625,0
20000,-0.125,-0.0625,0.25,0
20020,-0.5,0.5,0.125,0
20040,-0.5,0.1875,0,0
20060,-0.25,0.25,0.125,0
20080,-1.125,-0.25,0.1875,0
20100,-0.875,-0.3125,0.25,0
20120,-0.8125,0.1875,0.1875,0
20140,-1.125,0.1875,0.125,0
20160,-1.4375,-0.0625,0.25,0
20180,-1.0625,0.1875,0.125,0
20200,-0.625,0.375,0.125,0
20220,-0.75,0.1875,0.4375,0
20240,-0.8125,0.125,0.4375,0
20260,-1.0625,0.3125,0.75,0
20280,-0.9375,0.5625,0.75,0
20300,-0.9375,0.25,0.75,0
20320,-1.0625,0.1875,0.9375,0
20340,-0.6875,0.625,1.0625,0
20360,-0.9375,0.125,0.6875,0
20380,-0.4375,0.8125,0.5,0
20400,-0.25,1.375,0.125,0
20420,-0.1875,1.375,0.1875,0
20440,0.25,1.6875,0.125,0
20460,0.5,1.4375,-0.125,0
20480,0.8125,1.1875,-0.4375,0
20500,0.4375,0.75,-0.25,0
20520,0.4375,0.5625,0.4375,0
20540,-0.5625,0.1875,0.625,0
20560,-0.875,0.3125,0.625,0
20580,-1.3125,0.125,0.6875,0
20600,-0.8125,0.3125,0.5625,0
20620,-0.5625,0.4375,0.75,0
20640,-0.4375,0.4375,0.5,0
20660,-0.375,0.4375,0.3125,0
20680,0.1875,0.8125,0.4375,0
20700,0.3125,0.6875,0.1875,0
20720,0,0.4375,0.1875,0
20740,-0.0625,0.6875,0.25,0
20760,-0.1875,0.6875,0.1875,0
20780,0.3125,0.5625,0.1875,0
20800,0.6875,0.6875,-0.3125,0
20820,1.0625,0.75,0.125,0
20840,-1.625,0,0.25,0
20860,-1.3125,0.0625,0.375,0
20880,-0.75,0.1875,0.75,0
20900,-0.3125,0,0.25,0
20920,-0.375,-0.125,0.3125,0
20940,-0.5,-0.25,0.25,0
20960,-0.5,0,-0.1875,0
20980,0.6875,0,-0.1875,0
21000,0.625,-0.125,-0.3125,0
21020,0.6875,0.0625,-0.3125,0
21040,0.4375,-0.0625,-0.1875,0
21060,1.25,-0.875,0.625,0
21080,1.3125,-1.1875,0.6875,0
21090,1.4375,-1.125,0.125,0
21110,3.125,-0.9375,-0.375,0
21130,3.6875,-0.75,-0.4375,0
21150,3.125,-0.625,0.0625,0
21170,2.75,-0.3125,-0.0625,0
21190,0.5625,-0.125,0.125,0
21210,0.8125,-0.25,-0.1875,0
21230,0.5,-0.1875,-0.375,0
21250,0.125,-0.125,-0.125,0
21260,1.125,-0.1875,-0.1875,0
21280,1.0625,-0.25,-0.3125,0
21300,2.5,-0.4375,-0.5,0
21320,3.0625,-0.25,-0.375,0
21340,2.9375,-0.5625,-0.3125,0
21360,2.5,-0.4375,-0.875,0
21380,1.0625,-0.6875,-0.4375,0
21400,1,-0.625,-0.3125,0
21420,0.8125,-0.375,-0.1875,0
21440,0.9375,0.125,-0.1875,0
21460,1.0625,0.3125,-0.3125,0
21480,0.875,0.0625,-0.4375,0
21500,0.75,-0.0625,-0.4375,0
21520,0.625,0,-0.375,0
21540,0.875,0.0625,-0.3125,0
21560,0.875,0.0625,-0.3125,0
21580,0.75,-0.0625,-0.4375,0
21600,-0.0625,-0.375,-0.4375,0
21620,0.1875,-0.4375,-0.25,0
21640,0.125,0,-0.125,0
21660,0.125,0,-0.375,0
21680,-0.625,-0.125,-0.125,0
21700,-0.75,-0.0625,-0.0625,0
21720,-0.5,0.1875,-0.125,0
21740,-0.375,0.0625,-0.125,0
21760,-0.5625,-0.0625,-0.125,0
21780,-0.3125,0.125,-0.1875,0
21800,-1,-0.125,-0.125,0
21820,-0.25,-0.25,0.0625,0
21840,0.0625,-0.125,0.1875,0
21860,0.4375,0.1875,0.25,0
21880,-0.9375,0.625,0.3125,0
21900,-2.8125,0.5,0.5625,0
21920,-2.875,0.6875,0.625,0
21940,-2.75,0.8125,0.5,0
21960,-2.75,1.5,1.375,0
21980,-2.75,1.4375,2.0625,0
22000,-3.0625,1.3125,2.3125,0
22020,-3.375,1.25,2.3125,0
22040,-3.1875,1,2.625,0
22060,-1.6875,0.5625,2.9375,0
22080,-0.5,0.875,2.3125,0
22100,0.5625,0.8125,1.5625,0
22120,0.5625,0.4375,0.6875,0
22140,2.1875,0.0625,0.1875,0
22160,2.0625,-0.375,-0.625,0
22180,2.5,-1.0625,-0.75,0
22200,1.9375,-1.8125,-1.5625,0
22220,2.375,-1.9375,-2.375,0
22240,4.5,-1.8125,-2.4375,0
22260,5.25,-0.9375,-2,0
22280,4.9375,-0.375,-1.3125,0
22300,3.4375,-0.0625,-1.125,0
22320,1.5625,0.3125,-1,0
22340,-0.75,0.5,-0.4375,0
22360,-2.4375,-0.125,0.3125,0
22380,-3.1875,-0.375,0.3125,0
22400,-2.6875,-0.625,0.3125,0
22420,-1.875,-0.5625,0.3125,0
22440,0.125,-0.4375,0.0625,0
22460,0.9375,-0.3125,0.0625,0
22480,1.6875,-0.25,-0.1875,0
22500,1.125,-0.625,-0.6875,0
22520,0.625,-0.625,-0.6875,0
22540,0,-0.5625,-1.125,0
22560,-0.1875,-0.5,-0.8125,0
22580,-0.25,-0.625,-0.375,0
22600,0.25,-0.5,-0.4375,0
22620,0.75,-0.375,-0.4375,0
22640,1.125,-0.5625,-0.5,0
22660,1.3125,-0.4375,-0.6875,0
22680,1.6875,-0.5,-1,0
22700,2.6875,-0.75,-1.0625,0
22720,2.875,-0.8125,-1.3125,0
22740,2.875,-0.75,-1.1875,0
22760,2.0625,-0.625,-1.25,0
22780,2.25,-0.875,-1.125,0
22800,2.375,-1.1875,-1,0
22820,1.6875,-1.25,-0.6875,0
22830,1.3125,-1.125,-0.5,0
22850,0.8125,-0.5625,-0.4375,0
22870,0.75,-0.75,-0.25,0
22890,0.1875,-0.5,-0.4375,0
22900,1,-0.625,-0.4375,0
22920,1.4375,-0.5,-0.1875,0
22940,1.4375,-0.25,-0.1875,0
22960,0.375,-0.1875,-0.375,0
22980,-0.25,-0.125,-0.375,0
23000,0.1875,-0.375,-0.3125,0
23020,0.5,-0.625,-0.25,0
23040,0.4375,-0.625,-0.375,0
23060,1,-0.5625,-0.4375,0
23080,0.8125,-0.6875,-0.5625,0
23100,0.3125,-0.25,-0.75,0
23120,0.375,-0.25,-0.9375,0
23140,0.8125,-0.25,-0.8125,0
23160,1.0625,-0.5625,-0.8125,0
23180,0.4375,-0.5625,-0.5,0
23200,0.5,-0.5,-0.375,0
23220,0.875,-0.5,-0.0625,0
23240,0.375,-0.375,0.0625,0
23260,-0.5625,-0.1875,0.0625,0
23280,-0.875,-0.1875,0,0
23300,-0.4375,-0.1875,0.0625,0
23320,-0.6875,-0.125,-0.0625,0
23340,-1.25,0.125,0.125,0
23360,-1.8125,-0.125,0.5625,0
23380,-1.8125,-0.25,0.3125,0
23400,-0.75,-0.0625,-0.0625,0
23420,0.5625,0.0625,-0.4375,0
23440,2,-0.25,-0.3125,0
23460,2.4375,-0.5625,-0.8125,0
23480,1.8125,-0.3125,-1.375,0
23500,1.4375,-0.0625,-1.4375,0
23520,0.5,0,-0.75,0
23540,-1.125,-0.125,-0.8125,0
23560,-0.875,-0.5,-0.5625,0
23580,0.625,-1.0625,-0.375,0
23600,1.1875,-1.125,-0.1875,0
23620,0.3125,-1,-0.0625,0
23640,-1.4375,-0.625,-0.0625,0
23660,-2.0625,-0.5,-0.4375,0
23680,-1.9375,-0.3125,-0.625,0
23710,-3.75,0.125,0,0
23730,-4.25,0.1875,0.1875,0
23750,-3.75,0.125,0.25,0
23770,-2,-0.1875,0.3125,0
23790,-0.5,-1,-0.125,0
23810,0.875,-1.4375,-0.3125,0
23830,1.75,-1.875,-0.25,0
23850,1.1875,-1.875,-0.5625,0
23870,0.5625,-1.6875,-0.0625,0
23890,0.625,-1.375,-0.375,0
23910,0.5625,-0.8125,0.3125,0
23930,-0.9375,-0.9375,0.125,0
23950,-1.3125,-0.375,0.75,0
23970,-2.0625,0.125,0.8125,0
23990,-2.5625,0.125,0.75,0
24010,-2.5625,0,0.75,0
24030,-2.0625,-0.3125,0.4375,0
24050,-1.25,-0.5625,0.0625,0
24070,-0.125,-0.6875,-0.4375,0
24090,0.125,-0.8125,-0.6875,0
24110,0.5625,-0.75,-0.8125,0
24130,-0.375,-0.5625,-0.6875,0
24150,-1.25,-0.6875,-0.25,0
24170,-2.125,-0.5,0,0
24190,-2.5625,-0.0625,0.4375,0
24210,-2.5625,0.25,0.5625,0
24230,-3.4375,0.75,1.1875,0
24250,-4.3125,1.4375,2,0
24270,-5.625,1.5625,2.125,0
24290,-5.3125,1.75,2.5625,0
24310,-4,1.5625,1.8125,0
24330,-3,1.125,1.8125,0
24350,-2.75,0.6875,1.875,0
24370,-3.75,0.375,2.0625,0
24390,-6.8125,-0.1875,2.375,0
24410,-9.625,0,2.0625,0
24430,-10.5,-0.0625,1.25,0
24450,-8.5625,-1,1.125,0
24460,-7.125,-1.9375,0.6875,0
24480,-6.125,-2.3125,0.5625,0
24500,-4.5,-2,0.4375,0
24520,-2.8125,-2.125,0,0
24540,-1.9375,-1.75,-0.25,0
24560,-3.1875,-0.6875,0.1875,0
24580,-3.8125,0.125,0.25,0
24600,-3.0625,0.9375,0.3125,0
24620,-1.125,1.375,0.1875,0
24640,-0.6875,0.75,-0.0625,0
24660,-0.875,0.5625,-0.125,0
24680,-0.375,0.1875,-0.25,0
24700,-0.5,-0.0625,0,0
24720,-1,-0.125,0.0625,0
24740,-0.6875,-0.0625,-0.25,0
24760,-1,-0.1875,-0.375,0
24780,-0.5,-0.0625,-0.5,0
24800,0.4375,0.125,-0.5,0
24820,1.4375,0.5625,-0.875,0
24840,2.125,0.4375,-1.0625,0
24860,1.875,-0.0625,-1.0625,0
24880,1.8125,-0.1875,-1.125,0
24900,2.4375,-0.3125,-0.875,0
24920,2.1875,-0.4375,-0.5625,0
24940,1.625,-0.5,-0.0625,0
24960,1.0625,-0.5625,0.0625,0
24980,0.4375,-0.25,0.1875,0
25000,0.5,-0.1875,0.3125,0
25020,0.1875,-0.3125,0,0
25040,1.125,-0.625,-0.25,0
25060,1.625,-0.9375,-0.3125,0
25080,1.5,-0.8125,-0.1875,0
25100,1,-0.9375,-0.25,0
25120,0.25,-1.375,-0.1875,0
25140,-0.0625,-3.3125,-0.625,0
25160,0.25,-4,-0.0625,0
25180,0.875,-4.625,0.25,0
25200,-0.25,-5.5625,0.4375,0
25220,-1.6875,-5.5,1.25,0
25240,-3.125,-5.75,2,0
25260,-4.0625,-5.3125,2.5625,0
25280,-5.125,-4.875,3.25,0
25300,-5.0625,-4.5625,3.75,0
25320,-4.375,-3.9375,3.625,0
25340,-3.875,-4.625,3.3125,0
25360,-2.1875,-4.0625,2.8125,0
25380,-0.625,-3.5625,2.3125,0
25400,-0.1875,-2.75,1.4375,0
25420,-0.625,-2.625,1.3125,0
25440,0.1875,-1.875,0.4375,0
25460,0.875,-1.5625,0,0
25480,0.375,-0.8125,-0.3125,0
25500,0.6875,-0.75,-0.9375,0
25520,0.5625,-0.4375,-0.6875,0
25540,0.3125,-0.1875,-0.4375,0
25560,-0.125,-0.3125,-0.625,0
25580,-0.375,-0.625,-0.375,0
25600,-1.0625,-0.6875,0.25,0
25620,-1.75,-0.6875,0.4375,0
25640,-1.625,-1.0625,0.625,0
25660,-1.9375,-1.1875,0.875,0
25680,-1.625,-1.25,1.125,0
25700,-1.75,-1.3125,1.375,0
25720,-1.6875,-1.5,1.3125,0
25740,-1.4375,-1.25,1.125,0
25760,-1.5625,-1.0625,1.1875,0
25780,-1.8125,-1,1.0625,0
25800,-1.9375,-1.1875,0.875,0
25820,-1.75,-0.625,1,0
25840,-1.875,-0.375,0.8125,0
25860,-2.125,-0.1875,0.5625,0
25880,-2.3125,-0.5625,0.4375,0
25900,-1.75,-0.8125,0.5,0
25920,-1.75,-0.9375,0.5625,0
25940,-1.5625,-0.875,0.3125,0
25960,-2.0625,-1.1875,0.375,0
25980,-2.3125,-1.375,0.625,0
26000,-2.625,-1.1875,0.5,0
26020,-2.4375,-0.75,0.375,0
26040,-2.5,-0.6875,0.8125,0
26060,-1.75,-0.9375,1.0625,0
26080,-2.0625,-0.625,1.125,0
26100,-1.5,-0.5625,0.8125,0
26120,-1.4375,-0.4375,0.8125,0
26140,-1.625,-0.75,0.75,0
26160,-1.75,-0.3125,0.6875,0
26180,-1.875,0.375,0.375,0
26200,-1.25,0.25,0.25,0
26220,-0.9375,-0.0625,0.3125,0
26240,-1.3125,-0.0625,0.0625,0
26260,-1.5,-0.4375,0.3125,0
26280,-1.6875,-0.5625,0.3125,0
26300,-1.6875,-0.375,0.5,0
26320,-1.5,-0.6875,0.4375,0
26340,-2.25,-0.5625,0.5625,0
26360,-2.5625,-0.3125,0.5,0
26380,-2.375,-0.25,0.4375,0
26400,-1.6875,-0.1875,0.375,0
26420,-0.9375,-0.0625,0.4375,0
26440,-1.625,-0.1875,0.625,0
26450,-1.3125,0.1875,0.25,0
26470,-0.9375,0.1875,0.1875,0
26490,-0.1875,-0.0625,-0.25,0
26510,0,-0.5625,-0.0625,0
26530,-1.125,-0.75,0.125,0
26550,-1.6875,-0.875,0.1875,0
26570,-2.1875,-0.125,-0.0625,0
26590,-0.6875,-0.1875,-0.0625,0
26610,-0.625,-0.5625,0.1875,0
26630,-1.3125,-0.1875,0.3125,0
26650,-2.4375,0,0.3125,0
26670,-1.5,-0.5,0.3125,0
26690,-1.1875,-0.875,0.25,0
26710,-1,-0.4375,0.0625,0
26730,-0.625,-0.1875,-0.0625,0
26750,-1.125,-0.375,-0.0625,0
26770,-0.75,-0.375,-0.1875,0
26790,0.0625,0.125,-0.4375,0
26810,-0.5625,-0.0625,0.1875,0
26830,-0.3125,0,0.1875,0
26850,-0.625,0,0.1875,0
26870,-1.1875,-0.125,0.125,0
26890,-0.9375,0.125,-0.0625,0
26910,-0.8125,0.4375,-0.1875,0
26930,-0.6875,0.8125,0.3125,0
26950,-2,0.5625,-0.0625,0
26970,-1.875,0.5,-0.25,0
26990,-1.875,0.3125,-0.375,0
27010,-1.375,-0.375,-0.0625,0
27030,-1.8125,-0.375,-0.1875,0
27050,-1.25,0,-0.4375,0
27070,-0.4375,0,-0.375,0
27090,0.0625,-0.3125,-0.0625,0
27110,-0.75,0.3125,-0.3125,0
27130,-0.875,0.0625,-0.3125,0
27150,-0.875,-0.125,-0.1875,0
27170,-1.375,0.125,0.125,0
27190,-1.5625,0,0.125,0
27210,-2.125,-0.1875,-0.125,0
27220,-2.9375,-0.5625,0,0
27240,-1.875,-0.875,0.3125,0
27260,-1.75,-0.875,-0.375,0
27280,-1.4375,-0.4375,-0.25,0
27300,-0.375,0.125,-0.1875,0
27320,-0.9375,0.0625,0.0625,0
27340,-1.125,-0.1875,-0.0625,0
27360,-0.9375,0.0625,-0.25,0
27380,-1.1875,0.25,-0.125,0
27400,-1.9375,0.125,0.3125,0
27420,-2.0625,0.125,0.3125,0
27440,-2.3125,0,0.4375,0
27460,-1.5625,-0.3125,0.5625,0
27480,-1.375,-0.4375,0.25,0
27500,-0.875,-0.0625,0.4375,0
27520,-0.6875,-0.0625,0.875,0
27540,-0.5,0.375,0.75,0
27560,0.25,0.875,0.625,0
27580,1.3125,1.1875,0.5625,0
27600,1.25,1.125,0.875,0
27620,1.3125,0.875,0.9375,0
27640,-0.75,0.125,0.75,0
27660,-0.9375,0,0.875,0
27680,-1.0625,0.6875,0.625,0
27700,-0.125,0.5625,0.875,0
27720,-0.75,0.25,0.8125,0
27740,-1.8125,-0.0625,0.5,0
27760,-1.9375,-0.5625,0.5625,0
27780,-2.6875,-1.875,0.8125,0
27800,-3.75,-1.4375,0,0
27820,-5.8125,-0.25,0.3125,0
27840,-2.375,-1.625,2.1875,0
27860,-3.4375,-0.9375,0.9375,0
27880,-1.4375,-0.8125,1.625,0
27900,-1.9375,-0.875,1.25,0
27920,-3.0625,-0.8125,1.1875,0
27940,-3.625,-0.625,1.0625,0
27960,-2.3125,-0.1875,0.9375,0
27980,-0.4375,0.5625,0.3125,0
28000,-0.375,0.6875,0.1875,0
28020,0.9375,-0.625,-0.375,0
28040,-0.125,-0.3125,-1.0625,0
28060,2.6875,-0.1875,-1.25,0
28100,1.25,0.125,-1.625,0
28120,1,-0.1875,-1.25,0
28140,1.0625,0.1875,-1.1875,0
28160,1.1875,0.8125,-1.0625,0
28180,0.3125,1.0625,-0.4375,0
28200,0.5625,1,-0.4375,0
28220,0,1.0625,-0.4375,0
28240,1.0625,0.875,-0.3125,0
28260,1.1875,0.5625,-0.6875,0
28280,0.6875,0.5625,-1,0
28300,1.5625,0.5,-0.8125,0
28320,1.875,0.0625,-1.125,0
28340,2.3125,0,-0.875,0
28360,3,0,-0.3125,0
28380,2.3125,0.375,-0.125,0
28400,2.4375,-0.1875,-0.125,0
28420,0.5,-0.125,0.125,0
28440,1.6875,-0.125,-0.375,0
28460,2,-0.1875,-0.625,0
28480,1.875,0.0625,-0.3125,0
28500,1.125,-0.0625,-0.5,0
28520,0.5,0.375,-0.3125,0
28540,1.1875,0.6875,-0.375,0
28560,0.625,0.125,-0.6875,0
28580,-0.25,-0.6875,-0.4375,0
28600,0.3125,-0.4375,-0.3125,0
28620,0.9375,0.1875,-0.5,0
28640,0.75,-0.0625,0.125,0
28660,0.0625,0.1875,0.25,0
28680,-0.6875,0,0.3125,0
28700,-0.1875,-0.0625,-0.25,0
28720,-0.3125,-0.3125,-0.125,0
28740,-1.25,-0.5,0.1875,0
28760,-2.1875,-0.5625,0.375,0
28780,-1.8125,-0.5625,0.3125,0
28800,-1.5625,-0.3125,-0.75,0
28820,2.1875,-1.125,-0.8125,0
28840,1.375,0.1875,-1,0
28850,0.4375,1.375,-0.875,0
28870,0.875,1.8125,-1.3125,0
28890,0,1.5625,-2.3125,0
28910,1.4375,0.4375,-2.3125,0
28930,-0.5625,-0.375,-1.8125,0
28950,0.75,-1.25,-0.75,0
28970,-0.25,-0.625,-0.625,0
28990,0.4375,-0.125,-0.5625,0
29010,0.5,-0.5,-0.125,0
29030,0.6875,0.3125,-0.375,0
29050,0.625,0.4375,-0.4375,0
29070,1.5625,-0.1875,0.0625,0
29090,0.875,-0.0625,-0.25,0
29110,1.125,0.3125,-0.6875,0
29130,0.0625,0.125,0,0
29150,-0.1875,0.25,0.4375,0
29170,-0.875,0.375,0.5625,0
29190,-2.3125,0.625,0.9375,0
29210,-1.5,-0.25,1.4375,0
29230,-1.125,-2.875,4.5,0
29250,-0.25,0.125,4.75,0
29270,-1.1875,1.5,3.8125,0
29290,-1.6875,0.625,3.875,0
29310,-1.3125,0.625,6.5,0
29330,-1,1.125,5.625,0
29350,-3.0625,1.125,4.625,0
29370,-5.4375,0.75,4.5,0
29390,-3.75,2.0625,4.3125,0
29410,0.5625,2.0625,4.5625,0
29430,2.375,3.0625,4.5,0
29450,0.6875,3,3.125,0
29470,-1.5,2.5,0.8125,0
29490,-4.3125,1.4375,0.4375,0
29510,-3.6875,0.625,1.5625,0
29530,-5.5,0.75,1,0
29550,-8.0625,1.25,1.5,0
29570,-4.6875,0.5625,1.125,0
29590,-4.25,-2.5625,1.75,0
29610,-3.625,-1.0625,1.8125,0
29630,-1.0625,1.375,0.5,0
29650,-3.75,0.75,-0.875,0
29670,-4.25,-1.1875,1.125,0
29690,-5.6875,-0.1875,1.6875,0
29710,-3.5625,0.0625,-0.0625,0
29730,-1,-1,-0.375,0
29750,-0.1875,-0.5625,-0.375,0
29770,1.4375,0.5625,-0.6875,0
29790,2.1875,1.1875,-1.5625,0
29810,0.75,0.0625,-0.75,0
29830,0.4375,0.1875,-0.625,0
29840,-0.4375,0.6875,-1.0625,0
29860,-0.375,0.8125,-1.25,0
29880,0,0.6875,-1.6875,0
29900,-0.875,0.5625,-1.875,0
29920,-1.1875,0.1875,-0.9375,0
29940,-1.125,1.125,-0.125,0
29960,-1.75,1.25,0.3125,0
29980,-1.8125,1.3125,0.0625,0
30000,-1,0.375,-0.625,0
30020,0.375,-0.3125,-0.5625,0
30040,-0.125,0.125,-0.5,0
30060,-0.4375,0,-0.3125,0
30080,0,0.5,0,0
30100,0.625,0.375,-0.625,0
30120,0.3125,0.25,-1.125,0
30140,-0.6875,-0.0625,-0.5,0
30160,-1.25,0.8125,-0.1875,0
30180,-1.1875,0.125,-0.6875,0
30200,-1.625,-0.5,0,0
30220,-1.3125,-0.5,-0.375,0
30240,-1,0.0625,-0.5625,0
30260,0.4375,0.25,-0.1875,0
30280,0.4375,-0.3125,-0.3125,0
30300,-3.625,-2,-0.1875,0
30320,-2.4375,-2.125,0.875,0
30340,-1.8125,-0.6875,0.9375,0
30360,1.25,-0.875,-0.125,0
30380,1.6875,-0.4375,0.4375,0
30400,2.375,0.9375,-0.25,0
30420,2.0625,0.6875,0.0625,0
30440,1.6875,0.125,-0.0625,0
30460,0.9375,0,-0.8125,0
30480,0.25,-0.1875,0,0
30500,0.375,0.0625,0.1875,0
30520,-0.375,-0.0625,-0.4375,0
30540,-2.5625,-0.6875,-0.375,0
30560,-1.125,-1.25,-0.125,0
30580,-0.1875,-0.5,-0.125,0
30600,-0.125,-0.375,-0.5625,0
30620,0.375,-0.6875,-0.375,0
30640,0,-0.4375,0.3125,0
30660,2.0625,-0.6875,0.375,0
30680,-0.0625,-1.375,0.25,0
30700,0.75,-0.75,0.4375,0
30720,-0.8125,0.25,0.375,0
30720,2.5625,1.3125,1.1875,0
30740,1.0625,0.625,0.1875,0
30760,0.375,-0.4375,0.25,0
30780,0.125,-0.5,-0.5,0
30800,1.4375,-0.75,0.1875,0
30820,1.3125,-1.25,1.125,0
30840,0.6875,-0.25,1.0625,0
30860,0.9375,-0.4375,0.8125,0
30880,0.375,-0.375,1.1875,0
30900,-0.4375,0.3125,1,0
30920,-0.4375,0,0.1875,0
30940,-0.4375,-0.3125,0.8125,0
30960,0.25,-0.875,0.6875,0
30980,-1.625,-0.3125,0.6875,0
31000,-3.25,-0.3125,0.625,0
31020,-1.875,-1.375,0.3125,0
31040,-1,-1.25,0.625,0
31060,-1.125,-1,0.75,0
31080,-1.9375,0.25,0.3125,0
31100,0.125,-0.5,-0.1875,0
31120,0.25,-0.625,0.1875,0
31140,0.75,-0.125,0,0
31160,-1.5625,-1.125,0.3125,0
31180,-0.8125,-0.4375,0.5,0
31200,-1,-0.125,0.6875,0
31220,-0.25,0.625,0.3125,0
31240,-0.5625,0.8125,0.0625,0
31260,-0.9375,1.6875,-0.9375,0
31280,-0.1875,1.3125,-1.0625,0
31300,0.5,0.75,-1.0625,0
31320,0.625,0.25,-1.125,0
31340,-1,-0.5625,-1.0625,0
31360,-0.6875,-0.5625,0,0
31380,-0.6875,-0.5,0.375,0
31400,-1.875,0.375,0.5625,0
31420,-2.25,0.875,0.375,0
31440,-2.625,1.0625,0.25,0
31460,-1.875,0.9375,-0.0625,0
31480,-1.75,0.375,-0.6875,0
31500,-1,0.4375,-0.5,0
31520,-0.9375,0.5,-0.8125,0
31540,-1.5,0.0625,-0.5,0
31560,-1.5625,0.125,0,0
31580,-1.1875,0.1875,-0.3125,0
31600,-0.625,-0.6875,-0.25,0
31620,-0.25,-0.625,-0.9375,0
31640,-1.0625,-0.0625,-0.875,0
31660,-1.25,-0.125,-0.6875,0
31680,-1.9375,-0.4375,-0.6875,0
31700,-1.375,-0.625,-0.8125,0
31720,-1.5625,-0.375,-0.8125,0
31740,0.0625,-0.0625,-0.75,0
31760,-1.6875,-0.5625,-0.875,0
31780,-0.9375,-4.3125,1.875,0
31790,1.0625,-1.3125,1.3125,0
31810,2,-0.8125,0,0
31830,1.6875,-1.6875,0,0
31850,0.375,-1.125,-0.625,0
31870,2.6875,-1.875,-0.375,0
31890,3.0625,-1,0.1875,0
31910,3.25,0.4375,1.1875,0
31930,2.1875,0.6875,0.5625,0
31950,-0.1875,0.5,0.4375,0
31970,0.0625,-0.875,0.3125,0
31990,0.5625,-1.125,0.3125,0
32010,-0.375,-0.375,0.3125,0
32030,0.625,0.125,0.5625,0
32050,-1.75,-0.875,-0.0625,0
32070,-3.875,-1.875,0.75,0
32090,-2.25,-2,-0.1875,0
32110,-1.75,-1.8125,0,0
32130,-2.0625,-1.5,0.875,0
32150,-3.0625,-1.875,0.3125,0
32170,-0.5625,-2.125,-0.1875,0
32190,0.125,-1.25,-0.9375,0
32210,-0.3125,-1.4375,0.0625,0
32230,-1.625,-1.9375,0.9375,0
32250,-3.9375,-1.6875,0.8125,0
32270,-6.0625,-0.8125,0.875,0
32290,-3.125,-0.375,-0.0625,0
32310,-2.1875,-1.1875,-1.1875,0
32330,-0.75,-1.625,-0.5,0
32350,2,-1.5,-0.875,0
32370,1.9375,-1.5625,0,0
32390,-0.0625,-2.875,0.75,0
32410,-2.5,-2.4375,0.1875,0
32430,-2.25,-2.25,-0.125,0
32450,-1.25,-2.3125,1,0
32470,0.4375,-1.875,1.25,0
32490,2.25,-0.9375,1.0625,0
32510,3.0625,-1.375,1.625,0
32530,2,-0.4375,2.875,0
32550,2.4375,-0.75,2.4375,0
32570,1.625,-0.5625,2.9375,0
32590,1.6875,0.25,3.5625,0
32610,-1.25,-0.125,4.5,0
32630,-4.25,0.125,6.125,0
32650,-2.75,-2.875,4.5625,0
32670,2,-3.75,4.625,0
32690,2.625,-5.25,5.75,0
32710,-0.1875,-7.75,5.0625,0
32730,-0.625,-7.375,3.0625,0
32750,-6.125,-7.375,6.75,0
32770,-8.8125,-12.3125,5.9375,0
32790,-8.625,-15.6875,3.1875,0
32810,-12,-22,0.0625,0
32830,-14.6875,-30.8125,-0.3125,0
32850,-20.75,-43.75,-8.8125,0
32870,-20.4375,-61.875,-17.75,0
32890,5.25,-86.9375,-22.25,0
32910,4.4375,-99.875,-37.3125,0
32930,-12.5,-106.938,-41.9375,0
32950,-22.25,-117.688,-47.3125,0
32970,-27.75,-122.062,-48.625,0
32990,-26.6875,-121.812,-50,0
33010,-28.3125,-119.75,-49.375,0
33030,-32.875,-115.938,-44.25,0
33050,-39.5625,-111.188,-40.3125,0
33070,-41,-104.438,-37.25,0
33090,-37.9375,-95.375,-33.0625,0
33110,-38.3125,-86.25,-29.375,0
33130,-38.75,-74.5,-27.3125,0
33150,-38.0625,-63.5,-24.875,0
33170,-34.125,-53.875,-24.5625,0
33190,-29.1875,-47.4375,-21.125,0
33210,-22.0625,-40.9375,-21.6875,0
33230,-18,-35.5625,-23.0625,0
33250,-17.875,-30.75,-21.5625,0
33270,-15.0625,-25.5625,-21.75,0
33290,-12.25,-21.1875,-21.3125,0
33310,-9.5,-17.5,-20.0625,0
33330,-7,-13.5625,-17.1875,0
33350,-7.6875,-11.3125,-13.375,0
33370,-6.6875,-7.8125,-10.1875,0
33390,-6,-4.5625,-7.1875,0
33410,-4.9375,-2.375,-4.125,0
33430,-5,0.625,-3,0
33450,-5.6875,1.8125,-0.1875,0
33470,-5.25,1.875,2.3125,0
33490,-4.1875,2.5625,4.4375,0
33510,-3.3125,3.125,6.875,0
33530,-3.3125,3.9375,9.375,0
33550,-3.375,4.0625,11.9375,0
33570,-4.625,4.75,14.375,0
33590,-4.1875,3.8125,15.75,0
33610,-3.5625,2.5,15.3125,0
33630,-3.875,2.9375,15.3125,0
33650,-4.5625,1,15.875,0
33670,-2.25,-0.3125,15,0
33690,-0.4375,1.3125,13,0
33710,-0.375,0.0625,12.5625,0
33730,-3.25,-1.8125,10.625,0
33750,-4.25,-2.8125,10.0625,0
33770,-3.25,-5.0625,11.1875,0
33790,-1.75,-5.8125,8.3125,0
33810,-0.9375,-4.1875,7.375,0
33830,-1.625,-3.75,9.125,0
33850,-2.9375,-4.0625,7.375,0
33870,-1.5,-2.5625,6.625,0
33890,-1.0625,-2,7.75,0
33910,-0.6875,-2.375,8.75,0
33930,0.875,0.5,7.125,0
33950,1.125,1,7.0625,0
33970,-0.375,0.1875,8.5,0
33990,-2.1875,0.6875,4.6875,0
34010,-1.5,0.75,2.625,0
34030,1.625,0.9375,1.6875,0
34050,1.625,-0.875,-0.75,0
34070,3.4375,-0.9375,0.3125,0
34090,2.0625,-0.4375,-1.1875,0
34110,-1.6875,-0.125,-3.5,0
34140,0.375,-2.3125,-2.625,0
34160,0.0625,-2.0625,-2.3125,0
34180,-3.9375,-2.6875,-0.3125,0
34200,-5.4375,-2.125,-0.9375,0
34220,-2.8125,-0.5625,-0.8125,0
34240,0.875,-0.25,0.4375,0
34260,-0.5,-0.3125,-0.6875,0
34280,-2.1875,-0.0625,-1.5,0
34300,-2.0625,0,-0.0625,0
34320,-1.375,0.25,1,0
34340,-0.125,1.9375,0.1875,0
34360,1.1875,1.8125,-0.4375,0
34380,0.125,2.1875,0.25,0
34400,-3.0625,0.9375,0.875,0
34420,-3.625,0,2.125,0
34440,-2,-0.5625,0,0
34460,-1.5625,0.25,-2.875,0
34480,-0.6875,1.1875,-2.25,0
34500,-3.1875,0,0,0
34520,-3.4375,-0.3125,0.5,0
34540,-0.125,-0.25,-0.125,0
34560,0.875,-0.75,-2.3125,0
34580,-2.9375,0.375,-4.125,0
34600,-3.8125,-0.1875,-1.75,0
34620,-1.875,-1.25,0.4375,0
34640,2.6875,-1.3125,1.125,0
34660,0.4375,-0.5,-0.4375,0
34680,-1.9375,-0.5625,0.875,0
34700,1.25,-1.75,2.75,0
34720,1.0625,-1.875,1.125,0
34740,1,-1.125,-1.1875,0
34760,-0.1875,-0.375,-0.6875,0
34780,0.4375,-2.1875,-0.875,0
34800,0.375,-2.375,0.25,0
34820,1.3125,0.0625,0,0
34840,-1.125,0.1875,-1.8125,0
34860,-1.875,0.875,-2.5625,0
34880,-0.0625,0.625,-0.25,0
34900,0.25,0.25,-0.375,0
34920,-1.25,0.875,-2.3125,0
34940,0.125,1,-2.25,0
34960,-0.6875,0.375,-1.4375,0
34980,-0.1875,-0.6875,-2.125,0
35000,1.5,-0.1875,-0.9375,0
35020,0.375,0.6875,-0.9375,0
35040,-0.625,1,-1.8125,0
35060,-1.6875,1.8125,-1.3125,0
35080,0,1.625,0.9375,0
35100,-0.9375,-0.5625,1.3125,0
35120,2.9375,-0.25,-0.1875,0
35140,0.75,1,-1.875,0
35160,-1.5,0.4375,-1.1875,0
35180,-2,-0.0625,-0.625,0
35190,0.8125,0,0.75,0
35210,0.3125,-2.25,0.5,0
35230,-0.4375,-0.25,0.5,0
35250,-3.8125,0.8125,0.375,0
35270,-3.25,-0.75,1.5,0
35290,0.0625,-2.125,0.9375,0
35310,1.25,-1.5,1.1875,0
35340,-3.5,0.6875,1.8125,0
35360,-3.125,0.75,1.4375,0
35380,0.5,-2.625,1.6875,0
35400,3.1875,-1.9375,1.8125,0
35420,2,0.5,0.1875,0
35440,-2.8125,-0.625,0,0
35460,-1.5625,-2.125,1.875,0
35480,2.0625,-2.5,1,0
35500,3,-3.375,0.75,0
35520,3.0625,-1.1875,0.25,0
35540,0.5,-2.3125,-0.25,0
35560,-0.5625,-3.0625,1.875,0
35580,-1.4375,-3.375,2.625,0
35600,-0.25,-4.875,3.25,0
35620,1.75,-2.5625,1.4375,0
35640,-0.25,-4.5,0.5625,2000
35660,1.4375,-5.5625,3.3125,0
35680,1.4375,-4.5625,0.875,0
35700,0.25,-4.5625,1.25,0
35720,0,-2.9375,0.625,0
35740,-5.625,-4.6875,0.8125,0
35760,-3.625,-3.9375,1.5,0
35780,-0.75,-2.75,0.25,0
35800,1.75,-1.9375,-0.9375,0
35820,3.5625,-0.9375,-0.125,0
35840,-2.4375,-2.0625,3.375,0
35860,-0.125,-0.6875,5.0625,0
35880,-6.125,0.8125,2.125,0
35900,-5.875,0.1875,1,0
35920,-2.5,-1.375,1.25,0
35940,-0.375,-2.1875,2.8125,0
35960,-2.0625,-1.875,1.875,0
35980,-3.6875,-1.5,0.75,0
36000,-5.6875,-0.875,0,0
36020,-1.6875,-1.5625,-0.5625,0
36040,3.875,-2.8125,-0.5,0
36060,6.3125,-3.125,-0.1875,0
36080,4.125,-2.5625,-0.375,0
36100,-0.8125,-2,0.625,0
36120,-0.4375,-1.6875,1.5,0
36140,0.5,-2.3125,1.25,0
36160,0.875,-3.75,0.4375,0
36180,-0.75,-5.125,2.5,0
36200,-2,-5.625,3.875,0
36220,-1.8125,-4.8125,1.625,0
36240,-0.9375,-4.6875,-0.3125,0
36260,-1.3125,-7.25,1.75,0
36280,1.3125,-8.25,5.5,0
36300,0.6875,-7.5,2.625,0
36320,3.1875,-6.625,-0.375,0
36340,3.9375,-7.625,1.125,0
36360,1,-9.625,0.625,0
36380,2.25,-9.0625,1.75,0
36400,0.4375,-7.6875,0.5,0
36420,-2.3125,-9.125,0.5625,0
36440,0.375,-8.5625,0.75,0
36460,2.1875,-9.0625,-0.5,0
36480,2.5,-9.6875,0.625,0
36500,0.5,-10.4375,2.5,0
36520,-1,-10,1.875,0
36540,-1.75,-9.0625,0.5625,0
36560,-0.6875,-9,1,0
36580,1.1875,-9.5,1.9375,0
36600,1.625,-8.9375,0.8125,0
36610,1.125,-7.0625,-0.375,0
36630,0.8125,-7.1875,-1,0
36650,1.4375,-8.0625,-1.5,0
36670,3.5625,-7.3125,-3.5,0
36690,5.3125,-6.8125,-5.9375,0
36710,5,-8.3125,-5.4375,0
36730,5.625,-7.9375,-5.4375,0
36750,3.125,-6.0625,-8.3125,0
36770,-0.0625,-4.8125,-8.3125,0
36790,2.8125,-5.1875,-8.5,0
36810,2.5,-5.125,-9.8125,0
36830,1.875,-4.125,-9.125,0
36850,2.25,-2.8125,-10.8125,0
36870,0.5,-3.0625,-11.3125,0
36890,1.875,-3.25,-11.9375,0
36910,2,-3.6875,-12.5,0
36930,0.625,-4,-12.3125,0
36950,2.25,-4.4375,-13.0625,0
36970,2.25,-5.5,-12.9375,0
36990,2.6875,-4.75,-12.5,0
37010,1.125,-5.1875,-10.9375,0
37030,1.375,-4.625,-11.6875,0
37050,1.8125,-4.0625,-11.1875,0
37070,1.3125,-2.6875,-10.5625,0
37090,1.8125,-1.625,-10.375,0
37110,0.375,-2.5,-8.625,0
37130,-2.125,-1.9375,-7.1875,0
37140,-0.25,-1.1875,-6.1875,0
37160,-0.1875,-2.5,-7.1875,0
37180,0.4375,-2.875,-8.5,0
37200,0.6875,-1.5,-9.9375,0
37220,-0.25,-1.6875,-9.8125,0
37240,0.625,-2.8125,-12,0
37260,1.5625,-2.9375,-12.125,0
37280,2.3125,-1.6875,-11.4375,0
37300,0.25,-2.75,-12.4375,0
37320,-1.625,-3.0625,-13.5625,0
37340,-1.0625,-1.0625,-16.0625,0
37360,0.6875,0.5,-18.125,0
37380,0.375,2.125,-15.4375,0
37400,1.25,5,-13.5625,0
37420,-4.125,7.125,-12.625,0
37440,-6.0625,9.375,-14.1875,0
37460,-6.5,10.375,-14.625,0
37480,-5.75,11,-13,0
37500,-3.9375,10.625,-14.0625,0
37520,-4.0625,9.8125,-15.3125,0
37540,-4.1875,8.4375,-15.0625,0
37560,-2.5625,7.8125,-13.5625,0
37580,-2.5625,8.8125,-13.9375,0
37600,-4.1875,9.0625,-12.1875,0
37620,-3.3125,10.875,-11.375,0
37640,-3.0625,10.75,-12.5625,0
37660,-2.5,10.9375,-13.0625,0
37680,-1.25,11.6875,-12.5625,0
37700,-1.5,12.625,-13.875,0
37720,-2.6875,12.25,-14.875,0
37740,-2.25,12.75,-15.375,0
37760,-2.3125,12.625,-14.4375,0
37780,-1.6875,12.9375,-15.3125,0
37800,-2.625,12.5,-17.4375,0
37820,-4.8125,11.5625,-17.125,0
37840,-3.875,11.3125,-17,0
37860,-4,10.5625,-17.375,0
37880,-3.6875,9.5,-15.875,0
37900,-3.75,10.4375,-16,0
37920,-5.5625,11.125,-16.0625,0
37940,-5.4375,11.125,-15.625,0
37960,-3.875,9.6875,-14.3125,0
37980,-1.5,8.8125,-15.3125,0
38000,-3.125,8.9375,-16.3125,0
38020,-4.6875,10.4375,-16.75,0
38040,-4.375,9.4375,-16.875,0
38060,-1.8125,8.3125,-17.6875,0
38080,-1.0625,9.625,-18.5625,0
38100,-2.9375,10.25,-20.375,0
38120,-5.4375,10.375,-21.5625,0
38140,-4.6875,13.125,-21.375,0
38160,-5.25,15.125,-21.5,0
38180,-5.5625,15.5,-22.25,0
38200,-7.125,18,-21.3125,0
38220,-7.75,20.5,-23.375,0
38240,-6.75,19.875,-24.1875,0
38260,-4.5,19.3125,-23.5,0
38280,-3.4375,19.625,-22.625,0
38300,-5.0625,18.25,-22.25,0
38320,-6.0625,15.5625,-20.5,0
38340,-6.3125,15.0625,-20.6875,0
38360,-3.6875,14.5625,-20.4375,0
38380,-4.3125,12.375,-20.9375,0
38400,-5.6875,12.9375,-20.5,0
38420,-6.3125,14.0625,-23.4375,0
38440,-5.125,11.375,-26.0625,0
38460,-2.75,9.5625,-24.625,0
38480,2.0625,10.1875,-24.5,0
38500,1.6875,10.8125,-25.6875,0
38520,-1.6875,12.125,-25.25,0
38540,-4.5625,13.125,-24,0
38560,-2.3125,10.1875,-24.25,0
38580,-2.9375,6.1875,-20.875,0
38600,-0.125,5.1875,-16.375,0
38620,0.5,6.3125,-14.3125,0
38640,-3.4375,6.8125,-12.25,0
38660,-6.3125,7.3125,-9.6875,0
38680,-4.3125,6.6875,-7.625,0
38700,-2.4375,6.875,-6.875,0
38720,-2.8125,7.9375,-5.1875,0
38740,0.875,6.5625,-6.1875,0
38760,0,4,-5.5625,0
38780,-1.125,5.1875,-6.375,0
38800,-0.0625,6.75,-7.25,0
38820,-1.875,6.25,-7.25,0
38840,-4.3125,8.75,-6.5625,0
38860,-2.1875,10.9375,-3.4375,0
38880,-4.6875,11.1875,-1.375,0
38900,-8.5,12.4375,-1.0625,0
38920,-4.875,12.875,-0.1875,0
38940,-1.9375,11.1875,-2.0625,0
38960,-7.5,7,-2.625,0
38980,-4.5625,5.5,-2.1875,0
39000,-4.4375,3.5,-3.6875,0
39020,-3.5,-0.125,-0.875,0
39040,0.75,-0.6875,0.625,0
39060,-1.0625,2.125,2.375,0
39080,-5.4375,5.1875,5.0625,0
39100,-6.3125,3.8125,7.3125,0
39120,-5.1875,3.0625,10.1875,0
39140,-1.375,3.3125,10.6875,0
39160,-1.625,4.5,9,0
39180,-6.8125,4.9375,9,0
39200,-5.75,5.375,9.5625,0
39220,-3.4375,4.6875,8.1875,0
39240,-1.375,5.4375,8,0
39260,0.6875,6,6.625,0
39280,1.75,4.0625,3.9375,0
39300,0.25,3.75,2.8125,0
39320,0.5,1.75,5.1875,0
39340,2.3125,-0.625,3.875,0
39360,2.4375,-1.8125,3.5,0
39380,2.6875,-4.3125,5.875,0
39400,0.3125,-5.5,5.1875,0
39420,0.5,-4.875,7.4375,0
39440,0.5,-4.5625,11.125,0
39460,0.6875,-4.0625,11.25,0
39480,1.25,-3.125,12.25,0
39500,2.3125,-2.0625,14.0625,0
39520,2.5625,-1.125,13.25,0
39540,0.4375,-2.1875,14.4375,0
39560,4.25,-2.375,16.4375,0
39580,4.25,-3.25,14.9375,0
39600,2,-3.75,13.375,0
39620,1.375,-5.625,14.6875,0
39640,0.25,-5.4375,13.875,0
39660,-2.9375,-5.3125,13,0
39680,-0.9375,-6.25,14.1875,0
39700,-2.9375,-6.5625,14.5,0
39720,-6.875,-4.3125,13.4375,0
39740,-0.9375,-2.9375,13.6875,0
39760,-1.625,-1.375,13.1875,0
39780,-1.25,0.0625,10.1875,0
39800,2.0625,-3.5,11.1875,0
39820,3.75,-6.4375,12.1875,0
39840,-0.1875,-5.5625,10.1875,0
39860,1.125,-4.5,8.8125,0
39880,-0.75,-6.375,12.625,0
39900,-1.1875,-4.9375,12.9375,0
39920,0.4375,-3.9375,11.375,0
39940,0.625,-6.5625,13.4375,0
39960,0.75,-7.0625,11.6875,0
39980,0.5,-7.875,10.25,0
40000,0.75,-9.3125,11.0625,0
40020,-0.5,-9.6875,10.8125,0
40040,0,-9.4375,10.1875,0
40060,0.5,-10.5625,11.625,0
40080,1.125,-11.5625,12.375,0
40100,1.8125,-10.4375,12,0
40120,2.75,-8.875,12.9375,0
40140,0.9375,-7.5625,12.6875,0
40160,-0.4375,-7.25,14.125,0
40180,1.625,-6.75,14.8125,0
40200,-1.25,-6.8125,15,0
40220,-0.6875,-6.125,13.6875,0
40240,3.1875,-7.6875,13.3125,0
40260,5.5625,-9.875,13.5625,0
40280,5.0625,-10.4375,14.5625,0
40300,2.875,-9.1875,13.3125,0
40320,2.125,-9.6875,11.5,0
40340,1.5625,-11.8125,12.8125,0
40360,2.0625,-14,15.5,0
40380,2.0625,-13.4375,15.5625,0
40400,2.1875,-12.875,15.3125,0
40420,-0.25,-14.9375,17.4375,0
40440,-2.875,-14,16.5625,0
40460,-2.375,-12.9375,16.125,0
40480,1,-13.8125,17.3125,0
40500,1.625,-13.9375,17.125,0
40520,2.75,-13.5,18.0625,0
40540,0.75,-14,17.125,0
40550,-0.25,-15.4375,16.375,0
40570,1.25,-16,16.0625,0
40590,0,-17.375,16.9375,0
40610,0.0625,-16.375,15.4375,0
40630,0.9375,-17,14.875,0
40650,0.1875,-18.6875,17,0
40670,-1.8125,-19.4375,15.4375,0
40690,-0.75,-18.5,14.25,0
40710,1,-18.8125,15,0
40730,0.8125,-19.75,14.6875,0
40750,-0.625,-18.875,12.625,0
40760,-0.375,-18.1875,14.0625,0
40780,0.375,-17.125,11.75,0
40820,-0.6875,-16.0625,11.8125,0
40840,-0.75,-15.4375,12.4375,0
40860,0.5,-14.6875,11.9375,0
40900,0.9375,-13.5625,13.375,0
40920,-2.6875,-14.5,14.375,0
40940,0.4375,-14.125,13.75,0
40960,0.3125,-14.8125,13.125,0
40980,-2.875,-16.625,13.125,0
41000,-2.9375,-18.625,14,0
41020,-0.1875,-19.25,13.9375,0
41040,-0.4375,-20.25,12.9375,0
41060,-3.0625,-20.8125,11.1875,0
41080,-3.375,-21,10.75,0
41100,-1.625,-22.3125,10.8125,0
41120,0.25,-25.25,9.1875,0
41140,4,-27.5,5.875,0
41160,7.9375,-29.3125,4.4375,0
41180,9.75,-28.375,0.25,0
41200,4.4375,-29.25,-2,0
41220,3.875,-28.625,-2.3125,0
41240,5.8125,-30.5,-0.9375,0
41260,7,-34,-5.1875,0
41280,9,-34.5,-7.0625,0
41300,4.5625,-30.125,-4.875,0
41320,2.0625,-27.8125,-4.25,0
41340,1.25,-25.625,-4.9375,0
41360,0.75,-22.8125,-3.375,0
41380,0.3125,-22.5625,-1.25,0
41400,-0.5625,-21.5625,-1.5,0
41420,0,-19.25,-2.3125,0
41440,-0.875,-19,-0.875,0
41460,-0.5625,-19.5,-1.5625,0
41480,2.125,-19.8125,-2,0
41500,2.5625,-20,-0.25,0
41520,4.625,-19.5625,-0.25,0
41540,3.625,-18.125,-2,0
41560,0.8125,-16.1875,-1.3125,0
41580,-0.75,-16.75,0.875,0
41600,0.9375,-18.75,-1,0
41620,2.875,-18.375,-1.5625,0
41640,1.375,-15.75,-1.5625,0
41660,0.125,-15.25,-4.4375,0
41680,0.375,-16.6875,-5.4375,0
41700,4.0625,-16.4375,-4.3125,0
41720,8.9375,-15.4375,-7.3125,0
41740,5.375,-13.5625,-9.875,0
41760,2.25,-9.9375,-11.5625,0
41780,0.5,-9.25,-11.4375,0
41800,-1.0625,-10.4375,-12,0
41820,-0.6875,-9.5625,-13.4375,0
41840,2.0625,-7.75,-14.625,0
41860,2.6875,-6.3125,-14,0
41880,2.375,-4.3125,-14.75,0
41900,2,-2.1875,-18.0625,0
41920,-0.125,-2.8125,-20.4375,0
41940,-0.0625,-4.375,-20.5625,0
41960,5,-4.4375,-24.875,0
41980,7.5625,-2.5625,-24.6875,0
42000,4.375,-1.875,-22.0625,0
42020,-1.125,-2.375,-18.1875,0
42040,-5.9375,-0.625,-13.9375,0
42060,-4.125,-0.3125,-11.625,0
42080,-5.1875,-0.125,-12.3125,0
42100,-5.75,-0.0625,-12.75,0
42120,-4.3125,-1.5625,-10.8125,0
42140,-6.8125,-1.875,-10.6875,0
42160,-8.4375,-1.5625,-11.3125,0
42180,-6.8125,-0.4375,-11.5,0
42200,-5.8125,0.25,-11.625,0
42220,-7.625,0.9375,-11.875,0
42240,-7.875,3.4375,-12.9375,0
42260,-7.0625,4.25,-12.3125,0
42280,-8.5,3.9375,-12.75,0
42320,-5.6875,5.625,-18.125,0
42340,-7.5,7,-20.0625,0
42360,-8.75,7.5625,-22.4375,0
42380,-9.375,10.4375,-27.8125,0
42400,-10.25,13.125,-29.5625,0
42420,-8.375,11.25,-31.3125,0
42440,-6.625,8.8125,-34.25,0
42460,-7.5625,11.875,-34.6875,0
42480,-10.5,15.3125,-35.125,0
42500,-12.0625,16.0625,-34.25,0
42510,-7.9375,16.4375,-32.875,0
42530,-4.3125,17.125,-33.5,0
42550,-3.8125,18.0625,-34.6875,0
42570,-5.0625,18.5625,-33.3125,0
42590,-5.8125,20.5,-34.6875,0
42610,-7.5,23.125,-36.5,0
42620,-8.3125,24.875,-33.3125,0
42640,-5.375,25,-30.6875,0
42660,-5.1875,26.1875,-28.8125,0
42680,-6.5625,27.375,-27.75,0
42700,-6.4375,28.9375,-25.4375,0
42720,-8.3125,29.5,-25.75,0
42740,-6.25,28.375,-25.5,0
42760,-5.1875,27.5625,-23.9375,0
42780,-5.125,28.9375,-24.3125,0
42800,-5.8125,28.375,-24.625,0
42820,-7.6875,25.5625,-23.875,0
42840,-6.0625,21.75,-22.75,0
42860,-2.625,19.6875,-21.9375,0
42880,-4.875,18,-20.5625,0
42900,-8.125,18.8125,-18.125,0
42920,-9.875,17.375,-18.75,0
42940,-7.375,12,-17.5625,0
42960,-5.875,9,-16,0
42980,-4.3125,9.8125,-15.125,0
43000,-8,11.125,-14.5625,0
43020,-13.0625,12.4375,-15.4375,0
43040,-12.375,11.4375,-14.125,0
43060,-9.75,8.8125,-11.6875,0
43080,-8.875,9.6875,-10.375,0
43100,-7.125,12.875,-8.5,0
43120,-11,15.3125,-6.875,0
43140,-14.5625,15.3125,-6.3125,0
43160,-11.1875,14.375,-6,0
43180,-7.0625,13.75,-5.6875,0
43200,-6.6875,13.1875,-4.875,0
43220,-8.375,15,-3.25,0
43240,-11.625,16.1875,-4.1875,0
43260,-10.8125,13.125,-3.5625,0
43280,-6.1875,10,-2.9375,0
43300,-4,11,-3.875,0
43320,-5.375,13.9375,-4.125,0
43340,-9.25,14.8125,-2.6875,0
43360,-8.75,12.9375,-4.25,0
43380,-0.1875,8.5625,-4.5,0
43400,5.1875,8.4375,-5.25,0
43420,3.8125,10.375,-5.8125,0
43440,-1.875,11.75,-4.0625,0
43460,-3,11.875,-3.25,0
43480,-2.0625,12,-4.125,0
43500,-3.8125,12.3125,-2.1875,0
43520,-0.875,13,2.625,0
43540,-3.5,14.4375,3.8125,0
43560,-1.3125,15.5,2.625,0
43580,-0.0625,14.6875,5.6875,0
43600,-1.6875,15.9375,7.125,0
43620,-5.4375,16.4375,7.3125,0
43640,-5.875,13.5,6.625,0
43660,-0.5,7.3125,8.125,0
43680,2.75,5,7.375,0
43700,0.875,7.625,7.9375,0
43720,-4.0625,8.9375,8.9375,0
43740,-5.0625,7.25,11.3125,0
43760,-4.375,7.9375,11.8125,0
43780,-4.9375,8.875,11.625,0
43800,-6.4375,7.8125,13.3125,0
43820,-2.3125,7.875,15.25,0
43840,1.3125,8.1875,14.375,0
43860,-0.875,7.8125,13.25,0
43880,-5.9375,8,13.875,0
43900,-5.125,8.0625,13.3125,0
43920,-3.8125,6.75,13,0
43940,-2.0625,5.3125,13.1875,0
43960,-0.375,4.625,13.3125,0
43980,0.125,3.125,15.25,0
44000,-3.125,4,12.6875,0
44020,-0.8125,2.8125,14.4375,0
44040,-0.875,1.4375,15.125,0
44060,-3.375,0.75,13.4375,0
44080,-2.375,-1,14.5625,0
44100,-3.125,-0.5625,16.4375,0
44120,-2.6875,1.8125,12.5625,0
44140,-4.9375,3.125,12.5,0
44160,-3.75,1.8125,16.5,0
44180,-4.3125,2.1875,15.9375,0
44200,-2.4375,3,14.8125,0
44220,-0.5625,4,13.625,0
44240,-2.9375,2.75,12.75,0
44260,1.1875,2.5,12.3125,0
44280,4.875,2.625,9.125,0
44300,5.8125,2,8.375,0
44320,7.5625,0.5625,10.25,0
44340,5.5625,1.5625,9.5,0
44360,4.0625,2.3125,9.4375,0
44380,3.875,0.75,10.8125,0
44400,2.0625,-0.0625,12.625,0
44420,-1,-0.875,12.4375,0
44440,-1.25,-0.6875,13,0
44460,-0.3125,-3.8125,16.125,0
44480,-2.8125,-4.3125,14.75,0
44500,-2.8125,-3.5625,10.625,0
44520,-3,-6.9375,11.5625,0
44540,-4.875,-8.9375,13,0
44560,-5.625,-6.625,10.6875,0
44580,-1.9375,-5.5,12.0625,0
44600,-4.625,-5.125,13.0625,0
44620,-5.125,-3.875,11.25,0
44640,-1.125,-4.1875,10.375,0
44660,0.875,-4.9375,10,0
44680,-1.625,-5.4375,9.625,0
44700,-0.6875,-5.625,9.875,0
44720,3.5625,-6.1875,9.125,0
44740,0.6875,-8.6875,10.125,0
44760,0.5,-8.3125,10.75,0
44780,0.625,-9.0625,11,0
44800,2,-9.75,10.5625,0
44820,3.3125,-11,12.4375,0
44840,0.5625,-12.125,14.3125,0
44860,-2.6875,-9.8125,14.75,0
44880,-3.3125,-8.5625,16,0
44900,-4.3125,-11.1875,18.25,0
44920,-6.875,-11.125,19.25,0
44940,-3,-10.25,19.9375,0
44960,-3.375,-12.875,20.8125,0
44980,-9.875,-15.8125,19.6875,0
45000,-10.25,-15.125,18.375,0
45020,-6.4375,-17.4375,20.5625,0
45040,-7.25,-18,18.875,0
45060,-5.3125,-16.6875,18.1875,0
45080,-3.5,-17.9375,20.1875,0
45100,-6.9375,-18.25,16.25,0
45120,-4.5625,-17.375,15.875,0
45140,-1.4375,-18.9375,17.25,0
45160,-4.0625,-21.6875,16.5,0
45180,-7.1875,-21.5,18.0625,0
45200,-4.5,-20.6875,18.8125,0
45220,-7.5625,-23.9375,19.125,0
45240,-13.3125,-25.5625,21.5625,0
45260,-9.75,-23.8125,21.5625,0
45280,-8.75,-27.5625,21.875,0
45300,-8.875,-29.375,20.25,0
45320,-6.3125,-30.5,20.3125,0
45340,-3.1875,-30.5,17.5,0
45360,-5,-31.5625,16.25,0
45380,-3.4375,-31.5625,14.875,0
45400,3.375,-32.3125,12.5625,0
45420,-0.4375,-34.75,13.125,0
45440,2.375,-34.3125,12.625,0
45460,3.625,-33.125,9.25,0
45480,3.1875,-33.3125,9.8125,0
45500,0.625,-32.25,9.5,0
45520,2.25,-30.5625,5.4375,0
45540,7.375,-30.8125,0.9375,0
45560,10,-34.4375,0.9375,0
45580,12.5,-35.125,-2.8125,0
45600,12.3125,-31.75,-9.125,0
45620,10.0625,-31.0625,-13.8125,0
45640,6.125,-33.375,-16.0625,0
45660,8.625,-35.75,-15.0625,0
45680,13.125,-38.0625,-11.5625,0
45700,14.0625,-37,-11.5,0
45720,9.5625,-34.1875,-11.75,0
45740,3.6875,-32.8125,-8.25,0
45760,1.5,-30.5,-8.25,0
45780,4.1875,-30.0625,-7.875,0
45800,4.3125,-31.375,-3.0625,0
45820,3.375,-29.9375,-4.9375,0
45840,2.625,-29.0625,-6.0625,0
45860,2.75,-30.8125,-4.1875,0
45880,0.4375,-34.0625,-5.125,0
45890,1.125,-33.125,-6.5,0
45910,0.25,-28.3125,-8.25,0
45930,-3.625,-28.3125,-8.3125,0
45950,-6.0625,-29.4375,-8.375,0
45970,-0.5,-26.6875,-10.375,0
45990,2.125,-24.25,-12.3125,0
46010,0.5,-21.625,-14.5,0
46030,-1.75,-18.3125,-14.875,0
46050,-2.3125,-15.75,-13.875,0
46070,-2,-13.5,-14.5,0
46090,0.4375,-12.1875,-17.75,0
46110,2.75,-11.9375,-17.8125,0
46130,0.625,-13.1875,-16,0
46150,0.6875,-11.125,-16.375,0
46170,-2.5625,-6.4375,-17.125,0
46190,-5.6875,-4.25,-18.75,0
46210,-6.5625,-5.4375,-19.9375,0
46230,-4.3125,-3.8125,-24.125,0
46250,-2.1875,0.5,-25.125,0
46270,-1.6875,2.875,-25.9375,0
46290,-3.9375,4.0625,-26.375,0
46310,-3.0625,5.375,-24.8125,0
46330,-2,3.8125,-25.5,0
46350,-3.9375,5.6875,-22.75,0
46370,-4.4375,7,-22.25,0
46390,-5.6875,4.3125,-19.125,0
46410,-5.125,1.8125,-22.5625,0
46430,-4.9375,0.3125,-20.3125,0
46450,-7.5,1.4375,-18.9375,0
46470,-9.4375,1.625,-20.25,0
46490,-9.5625,1.875,-19.1875,0
46510,-6.875,1.625,-19.5625,0
46530,-6.8125,3.25,-20.9375,0
46550,-9.5625,6.6875,-20.875,0
46570,-10.25,8.75,-21.3125,0
46590,-9.125,8.5625,-21.125,0
46610,-9.0625,10.875,-21.0625,0
46630,-9.875,12.5,-22.625,0
46650,-10.5,11.3125,-24,0
46670,-13.125,12.5,-25.875,0
46690,-13.3125,15.4375,-28.375,0
46710,-11.875,16.5,-31.375,0
46730,-9.9375,17.1875,-34.3125,0
46750,-7.6875,15.5,-36.125,0
46770,-9.8125,16.625,-34.375,0
46790,-13.5,18.8125,-33.5625,0
46810,-14,15.6875,-35.0625,0
46830,-12.125,11.5,-35.4375,0
46850,-13,12.8125,-36.5625,0
46870,-14.75,14.25,-36.8125,0
46890,-18,15.8125,-36.3125,0
46910,-17.75,16.9375,-35.5,0
46930,-12.625,16.5625,-36.1875,0
46950,-12.375,17.1875,-34.75,0
46970,-13.125,20.125,-33.5625,0
46990,-15.1875,19.125,-30.875,0
47010,-16.125,17.1875,-28.0625,0
47030,-14.9375,16.5625,-25.625,0
47050,-12.9375,19.125,-23.6875,0
47070,-16.625,21.5625,-18.625,0
47090,-16.25,22.8125,-15.75,0
47110,-12.75,24,-11.3125,0
47130,-12.25,25.3125,-5.625,0
47150,-15.25,26.5625,-2.625,0
47170,-15.375,26.5,1.3125,0
47190,-12.3125,25.5,5.1875,0
47210,-10.75,23.25,6.5,0
47230,-8,24.4375,6.25,0
47250,-9.375,27.625,6.8125,0
47270,-12.875,28.375,6,0
47290,-9.5625,25.3125,7.5,0
47310,-5.125,23.75,8.6875,0
47330,-5.75,24,6.0625,0
47350,-6.125,24.6875,5.6875,0
47370,-8.0625,23.375,6.125,0
47390,-4.6875,16.25,4.6875,0
47410,-0.9375,13.9375,5.125,0
47430,-2.4375,14.4375,6.75,0
47450,-5.9375,16.375,6.625,0
47470,-11.125,16.4375,10.6875,0
47490,-7.75,10.0625,14.5,0
47510,-2.4375,3.3125,14.6875,0
47530,-2.5625,2.8125,12.8125,0
47550,-2.0625,3.625,12.6875,0
47570,-6,0.375,15.25,0
47590,-10.25,-2.25,16.625,0
47610,-10.0625,4.0625,13.3125,0
47630,-6.25,1.3125,14.6875,0
47650,-2.1875,-2.75,17.125,0
47670,-2.625,3.25,14.375,0
47690,-5.4375,10.3125,11.375,0
47710,-9,11.8125,11.375,0
47730,-7.1875,7.6875,13.0625,0
47750,-2.8125,7.5625,14,0
47770,3.1875,9.375,13.25,0
47790,2.9375,10.875,11.625,0
47810,-2.375,12.5,10.75,0
47830,-3.1875,10.8125,11.8125,0
47850,1.0625,5.9375,12.6875,0
47870,4.1875,4.1875,11.375,0
47880,4,5.8125,11.25,0
47900,2.625,7.9375,11.625,0
47920,-2.125,8.9375,10.8125,0
47940,-6.4375,2.375,13.3125,0
47960,-3.5625,-5.125,12.8125,0
47980,8.5,-9.125,13.1875,0
48000,5.75,-8.5625,9.875,0
48020,0.3125,-6,10.75,0
48040,-5.3125,-5.6875,14.1875,0
48060,-2.125,-6.75,14.5625,0
48080,1.25,-7.8125,14.6875,0
48100,3.5625,-7.6875,15.125,0
48120,1.875,-9.375,13.3125,0
48140,1.5,-11.4375,14.25,0
48160,6,-11.5,13.125,0
48180,4.3125,-11.625,12.6875,0
48200,4.9375,-9.875,14.75,0
48220,5.375,-5,12.875,0
48240,1.4375,-2.0625,12.4375,0
48260,-2.125,-4.5625,17.9375,0
48280,3.625,-5.375,18.75,0
48300,6.9375,-3.1875,15.5625,0
48320,7.3125,-1.9375,14.625,0
48340,3.0625,-4.625,15.625,0
48360,1.9375,-5.9375,14.8125,0
48380,1.5625,-4,13.0625,0
48400,-1.1875,-3,13.25,0
48420,-1.625,-2.375,13.25,0
48440,0.0625,-1.875,13.3125,0
48460,5.6875,-2.875,14.125,0
48480,3.75,-1.3125,12.75,0
48500,2.9375,0.8125,11.5625,0
48520,1.625,-0.6875,13.3125,0
48540,2.5,-2.4375,14.75,0
48560,4.3125,-2.5,13.625,0
48580,3.3125,0,12.5625,0
48600,4.5625,-0.875,13.4375,0
48620,3.6875,-2.5,14.75,0
48640,4.1875,-2.1875,14.3125,0
48660,3.5625,-1.5,14.125,0
48680,1.875,-2.5625,14.6875,0
48700,0.6875,-2.4375,14,0
48720,-0.1875,-1.875,14.75,0
48740,0.25,-2.25,15.75,0
48760,0.125,-1.875,15.8125,0
48780,-0.625,-1.9375,15.125,0
48800,-0.25,-2.3125,15.6875,0
48820,-3.1875,-2.125,14.0625,0
48840,-2.4375,-1.9375,13.0625,0
48860,-1.0625,-3.3125,13.3125,0
48880,-0.8125,-3.6875,11.4375,0
48900,-0.875,-4.875,11.125,0
48920,1.3125,-7.0625,9.9375,0
48940,3.5,-10.0625,6.0625,0
48960,4.1875,-12.375,5.4375,0
48980,8.375,-15.3125,7.25,0
49000,8.875,-18.0625,4.5625,0
49020,8.875,-21,3.8125,0
49040,7.6875,-22.4375,4.6875,0
49060,4.625,-22.125,4.6875,0
49080,2.25,-24.125,5.625,0
49100,4.625,-26.125,6.8125,0
49120,6.625,-26.9375,4.75,0
49140,7.9375,-28.9375,3.5625,0
49160,5.625,-32.5,5.75,0
49180,5.1875,-33.25,5.8125,0
49200,6.75,-34.25,4.125,0
49220,4.5625,-39.125,6.875,0
49240,4.625,-41.1875,10.125,0
49260,3.375,-40.5,8.4375,0
49280,1.5,-40.625,9.375,0
49300,-1.75,-39.3125,6.9375,0
49320,-3.5625,-40.375,6.8125,0
49340,-3.3125,-38.5625,8.125,0
49360,-3.0625,-34.5,7.0625,0
49380,1.25,-33.25,7.375,0
49400,3.25,-33.375,7.9375,0
49420,2.8125,-28.0625,5.1875,0
49440,0.5625,-24.1875,6.25,0
49460,-0.5,-23.8125,5.6875,0
49480,-2.0625,-23.75,3.5,0
49500,1.8125,-22.625,3.25,0
49520,5.25,-22.5625,2.5,0
49540,3.125,-23.4375,-0.75,0
49560,-0.375,-23.5625,-3.1875,0
49580,-0.1875,-24.5625,-3.6875,0
49600,2.4375,-26.6875,-4.3125,0
49620,5.4375,-27.4375,-5.75,0
49640,5.1875,-27.4375,-8.25,0
49660,3.625,-26.1875,-8.875,0
49680,1.8125,-25.1875,-8,0
49700,2.5,-23.5625,-7.875,0
49720,4.3125,-23.125,-11.75,0
49740,5.625,-24,-10.25,0
49760,1.8125,-22.25,-12.3125,0
49780,0.3125,-20.0625,-12.6875,0
49800,-2.3125,-17.875,-9.8125,0
49820,-1.5625,-17.125,-10.1875,0
49840,1.0625,-17.3125,-8.1875,0
49860,-0.5,-15.875,-7.5625,0
49880,0.625,-14.25,-9.75,0
49900,-2.375,-11.5625,-7.4375,0
49920,-3.5,-12.6875,-7.1875,0
49940,-2,-13.8125,-9,0
49960,-1.8125,-12.3125,-11.25,0
49980,-4.875,-14.25,-12.0625,0
50000,-6.5,-14.1875,-12.1875,0
50020,-6.625,-12.4375,-10.1875,0
50040,-3.25,-12.875,-15.0625,0
50060,-5.1875,-13.125,-15.625,0
50080,-4,-10.625,-14.1875,0
50100,-4.25,-7.3125,-14.8125,0
50120,-6.6875,-0.0625,-7.375,2001
50140,-3.625,-1.875,-6.6875,0
50160,0.8125,-6.5,-8.9375,0
50180,-3.3125,-5,-11.5,0
50200,-7.9375,-0.625,-13.4375,0
50220,-9.125,3,-8.8125,0
50240,-9.8125,1.4375,-1.0625,0
50260,0.8125,-0.25,-1.375,0
50280,1.3125,2.625,-3.375,0
50300,-4.4375,5.375,-6.5,0
50320,-9.1875,6.375,-7.1875,0
50340,-12.625,8.5,-6.625,0
50360,-5.75,12.875,-2.4375,0
50380,5.875,20.9375,8.5,0
50400,9.375,31.5625,7.375,0
50420,7.8125,40.8125,10.8125,0
50440,2.125,54,17.625,0
50460,4.625,63.125,20.625,0
50480,8.875,65.4375,28.4375,0
50500,4.75,71.6875,24.125,0
50520,-0.75,80.625,22.125,0
50540,-6.0625,85.6875,31.125,0
50560,2.875,88.1875,35.25,0
50580,4.75,89.25,35.9375,0
50600,8.25,94.5,40.1875,0
50620,0.5625,99.4375,47.25,0
50640,6.1875,93.625,50.375,0
50660,6.5,85.3125,50,0
50680,8.375,76.3125,54.25,0
50700,8.9375,66.8125,57.1875,0
50720,5.75,55.1875,55.9375,0
50740,1.3125,47.25,49.375,0
50760,-2.0625,40.375,39.5,0
50780,-0.0625,29.8125,36.9375,0
50800,8.5,15.8125,39.4375,0
50820,7.0625,7.125,34.9375,0
50840,7.625,5.3125,31.5625,0
50860,-0.9375,8.4375,30.5,0
50880,-6,7,29.5,0
50900,-5,4.4375,30,0
50920,-5.375,7.6875,27.8125,0
50940,-7.375,8.125,27.5625,0
50960,-7.3125,7.8125,23.125,0
50980,-2.75,4.5,19.625,0
51000,2.5625,3.75,19.5,0
51020,-2.875,7.625,12.625,0
51040,-3.3125,7.6875,7.3125,0
51060,0.3125,5.6875,10.6875,0
51080,2.75,5.0625,7.4375,0
51100,5.5625,5.4375,2.75,0
51120,7,3.375,0.9375,0
51140,6,4.3125,-2.4375,0
51160,3.4375,2.9375,-0.5625,0
51180,2.875,1.3125,-1.3125,0
51200,3.875,-1.4375,-1.75,0
51220,8.375,-1.8125,1.375,0
51240,5.1875,0,2.9375,0
51260,1.875,1.1875,1.6875,0
51280,0.125,2.5625,4.5625,2000
51290,0,2.875,5.375,0
51310,6.875,0.3125,3.9375,0
51330,5.8125,0.125,4.375,0
51350,0.9375,1.6875,6.6875,0
51370,-2.1875,-1.125,7.125,0
51390,-0.75,0.625,4.75,0
51410,0.6875,3.1875,3.3125,0
51430,2.5,1.875,6.0625,0
51450,0.0625,-0.0625,7.875,0
51470,1.9375,-0.25,6.3125,0
51490,1.1875,-3.125,3.875,0
51510,2.8125,-4.6875,4.75,0
51530,1.75,-5.9375,4.75,0
51550,0.3125,-7.0625,3.75,0
51570,0.5,-9.1875,2.875,0
51590,3.1875,-13.125,5.1875,0
51610,3.375,-16.25,4.25,0
51630,6,-16.75,1.875,0
51650,3.5625,-17.5,0.125,0
51670,2.0625,-18.5,-0.3125,0
51690,3.4375,-20.25,1.4375,0
51710,4.0625,-21,-0.6875,0
51730,6.5625,-20.6875,-2.3125,0
51750,5.5625,-20.4375,-1.125,0
51770,5.625,-20.5,0.3125,0
51790,5.1875,-19.6875,0.3125,0
51810,4.0625,-18.3125,-0.125,0
51830,3.5625,-18.5,0.4375,0
51850,8.375,-19.1875,0.5625,0
51870,7.4375,-17.5625,0.3125,0
51890,3.5,-15.75,-0.0625,0
51910,3.4375,-16.625,-0.4375,0
51930,6.0625,-16.0625,0.1875,0
51950,8.4375,-14.8125,-0.9375,0
51970,6.6875,-14.625,-3.625,0
51990,5.375,-15.75,-5.5625,0
52010,9.3125,-15.75,-7.4375,0
52030,11.5625,-13.6875,-8.8125,0
52050,11.875,-13.5,-9.875,0
52070,10.875,-16.1875,-8.4375,0
52090,13.25,-17,-10.75,0
52110,13.1875,-15.375,-12.125,0
52130,11.5,-14.5625,-11,0
52150,9.125,-16.25,-12.4375,0
52170,14.3125,-18.375,-12.8125,0
52190,15.5,-17.9375,-11.8125,0
52210,10.5625,-15.8125,-11.1875,0
52230,4.75,-14.8125,-8.6875,0
52250,5.6875,-13.6875,-10.25,0
52270,7.9375,-13.125,-9.25,0
52290,7.625,-13.25,-5,0
52310,6.9375,-13.5,-7.5625,0
52330,7.4375,-14.3125,-8.0625,0
52350,4.75,-11.75,-8.4375,0
52370,2.3125,-9.625,-9,0
52390,-0.5625,-11.625,-7.5625,0
52410,1.6875,-10,-9.125,0
52430,4.1875,-6.75,-10.0625,0
52450,5.25,-7.8125,-7.0625,0
52470,3,-8.375,-8.4375,0
52490,1.875,-5.9375,-13.1875,0
52510,0.4375,-3.875,-15.875,0
52530,2.9375,-3.125,-14.1875,0
52550,1.5,-3.375,-16.1875,0
52570,1.1875,-0.5625,-20.375,0
52590,-0.25,2.3125,-21.5625,0
52610,0.75,4.0625,-19.3125,0
52630,2.875,3.3125,-22.25,0
52650,5.3125,2.6875,-23.375,0
52670,2.1875,4.4375,-21.5625,0
52690,0.1875,5.4375,-20.9375,0
52710,-3.5,4.125,-21.9375,0
52730,-1.875,4.0625,-21.1875,0
52750,0,8.0625,-20.5625,0
52770,-2.1875,10.9375,-21.375,0
52790,-5.125,11.0625,-23.125,0
52810,-4.25,12.4375,-20.875,0
52830,-1.4375,12.625,-20.3125,0
52850,-4.5,12.6875,-21.4375,0
52870,-7.3125,15,-23.4375,0
52890,-7.875,14.5625,-23.5,0
52910,-6.25,11.5625,-24.75,0
52930,-5.9375,12.1875,-24.3125,0
52950,-7.3125,13.8125,-25.3125,0
52970,-8.8125,11.875,-24.4375,0
52990,-6.6875,11,-21.75,0
53010,-6.1875,11,-20.3125,0
53030,-8.25,10.875,-21.75,0
53050,-9.8125,11,-20.0625,0
53070,-9,11.1875,-19.375,0
53090,-7.875,11,-18.9375,0
53110,-7.9375,12.3125,-19.75,0
53130,-9.5625,13.875,-17.875,0
53150,-9.6875,15.0625,-20.375,0
53170,-9.8125,15.75,-23.0625,0
53190,-9.4375,16.9375,-23.4375,0
53210,-8.875,17.125,-21.5,0
53230,-9.0625,15.8125,-21.75,0
53250,-10.625,16.8125,-23.3125,0
53270,-9.375,17.5,-22.75,0
53280,-9.6875,18.25,-22.8125,0
53300,-9.3125,18.875,-24.0625,0
53320,-8.5,20.375,-23.5,0
53340,-9.3125,21.75,-25.1875,0
53360,-8.875,20.625,-25,0
53380,-10.5,21.625,-26.1875,0
53400,-10.6875,22.75,-25.8125,0
53420,-10.875,22.8125,-25.8125,0
53440,-12.5,23.375,-25.875,0
53460,-11.875,23.9375,-25.8125,0
53480,-10.3125,20.125,-25.875,0
53500,-8.75,17.375,-25.125,0
53520,-8.8125,20.3125,-24.9375,0
53540,-8.875,21.0625,-22.3125,0
53560,-11.375,20.1875,-19.625,0
53580,-10.9375,21.25,-20.4375,0
53600,-9.125,18.375,-22.25,0
53620,-3,10.875,-22.1875,0
53640,2,7.1875,-22.1875,0
53660,2.0625,7.5625,-24.125,0
53680,-1.3125,3.1875,-22.3125,0
53700,-2.9375,-0.9375,-20.125,0
53720,-3,0.75,-20.1875,0
53740,-3,0.8125,-18.5,0
53760,-3.4375,-2.5,-17.5,0
53780,-1.0625,-4.8125,-16.3125,0
53800,1.8125,-3.625,-16.75,0
53820,-1.8125,-1.5,-15.1875,0
53840,-3.9375,0,-10.75,0
53860,-3.75,-0.25,-7.5625,0
53880,-2.8125,1.25,-5.375,0
53900,-2.4375,4.875,-1.1875,0
53920,-6,8.4375,2,0
53940,-9.3125,7.25,1.5,0
53960,-7.4375,5.875,1.875,0
53980,-4.125,6.25,3.5,0
54000,-4.8125,6,5.5625,0
54020,-7.4375,7.0625,5,0
54040,-7.625,5.6875,5.625,0
54060,-4.4375,3.75,8.5,0
54080,-5.125,4.5625,6.5625,0
54100,-5.25,5.75,4.5,0
54120,-3.3125,6.0625,7.3125,0
54140,-2,6.5625,9.75,0
54160,-4.125,8.25,10.3125,0
54180,-4.75,10.625,10.375,0
54200,-5.375,8.8125,11.75,0
54220,-4.125,6.5625,13.875,0
54240,-2.4375,5.75,12.6875,0
54260,-3.875,5.9375,13.125,0
54280,-5.6875,7.875,13.5625,0
54300,-7.75,7.75,11.625,0
54320,-5,6.25,12.6875,0
54340,-1.4375,7,13.25,0
54360,1.625,7.5625,13.25,0
54380,0.5,9.875,12.0625,0
54400,-2.25,11,12.125,0
54420,-3.375,9.375,13.875,0
54440,2.8125,8.25,14.6875,0
54460,0.8125,10.0625,13.875,0
54480,-0.4375,10.8125,13.3125,0
54500,-2.375,9.3125,14.0625,0
54520,-1.5625,6.625,15.5625,0
54540,1.625,3.875,14.5,0
54560,1.4375,3.0625,14.0625,0
54580,1.25,3.3125,14.8125,0
54600,-2.125,3.375,13.1875,0
54620,-0.5,3.4375,13.8125,0
54640,-3.6875,3.875,14.625,0
54660,0.875,2.9375,13.875,0
54680,2.0625,1.5625,13.75,0
54700,0.3125,2.1875,11.5625,0
54720,1.3125,1.75,12.75,0
54740,2.5625,0.75,10.875,0
54760,0.8125,0.375,8.125,0
54780,0.875,-0.125,9.75,0
54800,1.125,-0.875,11.6875,0
54820,1.8125,-0.9375,12.0625,0
54840,1.0625,-0.125,11.1875,0
54860,0.375,-3.25,13,0
54880,-1.1875,-6.1875,13.875,0
54900,0.25,-5.9375,12.125,0
54920,-0.0625,-6.9375,11.25,0
54940,-1.75,-10.75,13.0625,0
54960,0.5,-11.75,14,0
54980,2.375,-10.1875,14.6875,0
55000,-1.5625,-9.75,15.0625,0
55020,-2.8125,-11.9375,15.5625,0
55040,2.25,-15,16.1875,0
55060,0.125,-15.375,14.3125,0
55080,2.5625,-14.9375,12.6875,0
55100,2,-17.4375,14.75,0
55120,-0.625,-18.25,15.75,0
55140,-3.125,-16.75,15.25,0
55160,-0.75,-14,14.875,0
55180,3.875,-14.6875,16.25,0
55200,1.75,-15.3125,17.375,0
55220,-0.1875,-12.875,16.875,0
55240,2.125,-10.1875,17.0625,0
55260,1.9375,-11.375,18.125,0
55280,1.625,-12.25,17.5,0
55300,3.5,-9.875,17.375,0
55320,0.875,-10.375,18.3125,0
55340,-1.4375,-10.9375,16.9375,0
55360,-0.3125,-10.5625,18,0
55380,1.125,-12.1875,18.125,0
55400,2.5625,-11.5,17,0
55420,2.625,-12.5,18.3125,0
55440,1.4375,-13.625,17.9375,0
55460,-0.5625,-13.9375,15.9375,0
55480,1.0625,-13.375,16.75,0
55500,2,-14.625,16.8125,0
55520,1,-15.1875,14.375,0
55540,0.3125,-15.125,15.1875,0
55560,0.75,-17.0625,16.625,0
55580,0.75,-19.3125,15.875,0
55600,0.0625,-19.375,16.9375,0
55620,1.0625,-20.8125,17.875,0
55640,-2.5,-23.25,17.875,0
55660,-2.8125,-22.6875,16.3125,0
55680,-0.125,-23,18.4375,0
55700,1.125,-26.4375,17.4375,0
55720,-0.4375,-27.8125,14.5,0
55740,-0.8125,-30.125,15,0
55760,-3.375,-31.9375,15.3125,0
55780,-2.8125,-32.625,14.625,0
55800,-1.75,-31.1875,13.8125,0
55820,-2.8125,-32.8125,14.375,0
55840,-1,-35.125,15.5625,0
55860,6.125,-33.9375,13.9375,0
55880,2.375,-31.5,10.875,0
55900,-3.4375,-33.375,11.4375,0
55920,-0.875,-33.75,9.5625,0
55940,4.5,-34.3125,8,0
55960,6,-34.9375,5.375,0
55980,6.6875,-35.5,2.625,0
56000,3.5625,-33.5,-0.25,0
56020,5.8125,-33.3125,-2.1875,0
56040,8.25,-35.3125,-0.875,0
56060,6.125,-35,-1.8125,0
56080,5.3125,-34,-3.0625,0
56100,3.3125,-34.3125,-3.125,0
56120,5.5625,-35.75,-2.3125,0
56140,7.0625,-35.375,-2.4375,0
56160,6.25,-33.5,-3.625,0
56180,4.75,-31.5,-1.75,0
56200,3.375,-31.0625,-1.3125,0
56220,4.1875,-32.125,-0.5,0
56240,7.6875,-31.1875,-2.5,0
56260,8.625,-28.625,-3.0625,0
56280,5.1875,-25.3125,1.125,0
56300,3.5625,-23.5,0.875,0
56320,7.25,-22.9375,1,0
56340,7.125,-20.75,0.9375,0
56360,3.9375,-20.625,1.75,0
56380,4.3125,-20.3125,-1.25,0
56400,3.0625,-18.125,-4.1875,0
56420,3,-17.8125,-2.9375,0
56440,-0.125,-18,-2.125,0
56460,0.625,-15.4375,-6.125,0
56480,-0.75,-14.125,-10.4375,0
56500,-0.875,-16.8125,-10.25,0
56520,-2.375,-18.625,-14.125,0
56540,-4.125,-17.125,-17.5,0
56560,-5.4375,-15.75,-15.5625,0
56580,-6.9375,-15.8125,-14.0625,0
56600,-6.8125,-13.3125,-15.5625,0
56620,-9.5,-8.625,-13.6875,0
56640,-10.375,-7.875,-15.625,0
56660,-7.8125,-10.1875,-15.3125,0
56680,-8.5625,-9.625,-17.3125,0
56690,-10,-4.6875,-18.625,0
56710,-12.1875,-2.4375,-15.5625,0
56730,-10.5,-3.875,-15.8125,0
56750,-8.6875,-4.125,-17.3125,0
56770,-11.625,-0.9375,-17.0625,0
56790,-14.1875,2.0625,-16.0625,0
56810,-15.6875,6.5,-16.9375,0
56830,-16.0625,10.375,-18.5625,0
56850,-10.5,6.9375,-18.75,0
56870,-7.5,4.375,-19.75,0
56890,-10.8125,7.5625,-23.1875,0
56910,-15.875,11.125,-20.5,0
56930,-15.5,8.75,-19.1875,0
56950,-12.9375,6.75,-20.1875,0
56970,-14.5,9.25,-21.1875,0
56990,-13.9375,9.1875,-21.0625,0
57010,-13.1875,9.125,-20.4375,0
57030,-15.8125,10.875,-17.9375,0
57050,-15.75,13,-19.375,0
57070,-18.8125,14.25,-21.875,0
57090,-17.1875,16.3125,-22.5625,0
57110,-14.3125,17,-22.1875,0
57130,-15.1875,20.1875,-22.25,0
57150,-14.75,24.8125,-20.1875,0
57170,-14.875,27.4375,-23.1875,0
57190,-17.1875,27.4375,-26.5625,0
57210,-12.5625,26.6875,-26.3125,0
57230,-8.125,26.5625,-26.375,0
57250,-12.125,27.25,-26.5,0
57270,-15.375,29.375,-25.8125,0
57290,-14.875,30.3125,-26,0
57310,-14.1875,30.3125,-25.5625,0
57330,-15.5,33.5,-24.1875,0
57350,-13.6875,33.875,-24.8125,0
57370,-12.125,30.75,-25.4375,0
57390,-12,29.875,-27.5,0
57410,-12.625,31.5,-28.1875,0
57430,-14.1875,31.0625,-27.75,0
57450,-12.25,26.125,-27.875,0
57470,-8.4375,22.125,-28.375,0
57490,-7,19.25,-27.1875,0
57510,-8.875,19.0625,-26.5,0
57530,-13.3125,21.625,-23.6875,0
57550,-17.125,22.6875,-21.3125,0
57570,-18.5625,20.3125,-18.5,0
57590,-15.1875,19.625,-14.0625,0
57610,-11.3125,17.25,-16.25,0
57630,-9.8125,14.5,-17.125,0
57650,-11,14.5625,-15.375,0
57670,-11.625,12.75,-13.6875,0
57690,-9.625,9,-12.375,0
57710,-6.25,5.25,-11.5625,0
57730,-5.5,2.5625,-9.3125,0
57750,-11.5625,3.5,-7.1875,0
57770,-14.1875,9,-2.375,0
57790,-17.1875,11.3125,3.25,0
57810,-15.375,8.75,3.25,0
57830,-10.1875,5.0625,2.5,0
57850,-3.25,4.0625,1.4375,0
57870,-3.875,6.1875,1.875,0
57890,-4.5625,9.6875,3.25,0
57910,-12,10.5625,3.8125,0
57930,-13.4375,13.0625,-0.125,0
57950,-5.625,13.6875,-0.3125,0
57970,-3.125,11.25,0.4375,0
57990,-3.1875,10.875,-0.375,0
58010,-1.3125,11.375,1.625,0
58030,-1.875,11.5,2.6875,0
58050,-4.8125,13.25,3.6875,0
58070,-3.875,13.4375,3.625,0
58090,-4.25,10,4.875,0
58110,-4.6875,10.6875,7.625,0
58130,-2.5625,10.75,7.9375,0
58150,-3.875,8.6875,5.1875,0
58170,-0.8125,9.75,5.0625,0
58190,-0.375,9.125,6.3125,0
58210,-2.3125,9.5,7.375,0
58230,-5.3125,12.3125,8.5,0
58250,-4.4375,14.75,9.875,0
58270,-2.6875,12.1875,10.375,0
58290,-0.625,12.9375,9,0
58310,0.5,15.4375,7.25,0
58330,-2.375,14.9375,3.5625,0
58350,-3.5,15.4375,1.5625,0
58370,-3,16,2.3125,0
58390,0.9375,14.1875,2.875,0
58410,0.0625,13.875,2.375,0
58430,-4.4375,13.5,3.875,0
58450,-4.8125,12.3125,6.5625,0
58470,-2.1875,12.5,5.4375,0
58490,-1.375,12.3125,1.75,0
58510,-3.25,10,2.375,0
58530,-4.5625,5.625,4.8125,0
58550,-2.375,4.4375,5.625,0
58570,-0.5625,3.875,5.875,0
58590,-4.25,4.25,6.6875,0
58610,-6.1875,4.25,7.25,0
58630,-2.5,2,7.6875,0
58650,-2.3125,2.5,8,0
58660,-0.4375,3.625,8.4375,0
58680,-1.5625,3.375,8.8125,0
58700,-1.1875,2,11,0
58720,-1.125,0.75,11.6875,0
58740,-3.75,0.3125,9.4375,0
58760,-2.9375,-0.25,7.5625,0
58780,-0.375,-4.3125,9.75,0
58800,-0.4375,-5.125,8.5625,0
58820,-0.9375,-3.0625,9.125,0
58840,-1.6875,-3.1875,11.75,0
58860,-1.125,-4.4375,12.4375,0
58880,0.375,-5,11.6875,0
58900,0.6875,-2.8125,11.6875,0
58920,-1.3125,-1.25,11.125,0
58940,-1.8125,-2.4375,12.1875,0
58960,1.1875,-1.8125,10.875,0
58980,2.25,-1.0625,11.9375,0
59000,-1.25,-1.5625,13.5,0
59020,-4.1875,0.25,11.75,0
59040,-3.25,1.875,12.9375,0
59060,0.0625,0.75,14.625,0
59080,-1.25,0.75,13.375,0
59100,-3.5,1.625,11.875,0
59120,-3.75,2.5,12.125,0
59140,-1.625,1.75,10.5,0
59160,-0.25,0.5625,9.25,0
59180,0.4375,1.4375,8.4375,0
59200,0.6875,0.875,8.1875,0
59220,1.8125,-1.375,9.875,0
59240,2.9375,-3.25,10.375,0
59260,3.25,-4.0625,9.375,0
59280,0.1875,-2.5625,7.875,0
59300,-2.9375,-4,9.4375,0
59320,-0.125,-7.625,10.4375,0
59340,3.6875,-6.4375,7.8125,0
59360,2.25,-7.125,9.4375,0
59380,-1.4375,-6.5,8.8125,0
59400,-3.0625,-5.5,9.3125,0
59420,-2.625,-6.75,11.375,0
59440,-2.875,-6.5,10.25,0
59460,-1.5,-5.1875,9.3125,0
59480,-2,-4.5,9.6875,0
59500,-0.3125,-6.5,8.6875,0
59520,1.6875,-6.6875,6.8125,0
59540,2.1875,-6.1875,6.3125,0
59560,3.5,-7.0625,6.875,0
59580,0.9375,-8.0625,9.0625,0
59600,0.8125,-8.4375,10.3125,0
59620,0.5625,-7.3125,10.0625,0
59640,-2.5625,-6.5625,10.375,0
59660,1.125,-9.6875,11.3125,0
59680,4.6875,-9.5625,9.0625,0
59700,4.4375,-8.3125,7.875,0
59720,1.375,-8.625,8.25,0
59740,0.1875,-10.125,7.875,0
59760,4.625,-12.4375,8.375,0
59780,4.8125,-12.1875,7.625,0
59800,1.5,-10.875,7.875,0
59820,0.5625,-13,10.25,0
59840,2,-12.6875,10.0625,0
59860,2.9375,-13.625,10.8125,0
59880,0.5,-14.5,10.6875,0
59900,-0.625,-15.375,10.1875,0
59920,1.4375,-17.375,10.6875,0
59940,2.625,-18.1875,9.8125,0
59960,-0.875,-19.0625,11.4375,0
59980,2.1875,-19.0625,13.0625,0
60000,2.25,-18.5,13.3125,0
60020,1.75,-20,14.5,0
60040,1.375,-20.5625,14.6875,0
60060,0.8125,-20.9375,15.125,0
60080,2,-20.875,14.5,0
60100,0.25,-22.25,15.375,0
60120,0.5625,-23.6875,17.9375,0
60140,1.5,-24.8125,18.8125,0
60160,0.25,-24.625,17.125,0
60180,-3.375,-25.3125,18.1875,0
60200,-5.5,-26.4375,18.3125,0
60220,-3.5625,-26.9375,15.8125,0
60240,-2.75,-24.4375,11.625,0
60260,-1.1875,-26.125,12.375,0
60280,0,-28,10.75,0
60300,2.5625,-25.75,9.9375,0
60320,3.125,-23.125,9.6875,0
60340,1,-24.125,5.875,0
60360,0.4375,-24.4375,3.8125,0
60380,-1.0625,-24.5625,4.6875,0
60400,0.4375,-26,4.4375,0
60420,4.0625,-27.5,4,0
60440,5,-27.3125,3.375,0
60460,1.75,-26.4375,1.375,0
60480,-0.4375,-26.625,0.1875,0
60500,1.125,-27.8125,-1.1875,0
60520,3.375,-28.5,-2.875,0
60540,3.4375,-28.75,-3.6875,0
60560,4.5625,-29.25,-4.9375,0
60580,5.625,-29.4375,-4.75,0
60600,1.5,-29.125,-6.0625,0
60620,0.9375,-29.125,-9.25,0
60640,-1.0625,-29.4375,-8.4375,0
60660,0.5,-28.625,-8,0
60680,2.4375,-28.5,-8.4375,0
60700,0.125,-27.375,-9.5,0
60720,-1.75,-26.3125,-9.75,0
60740,0.375,-27.625,-11.4375,0
60760,3.5,-29.5625,-16.4375,0
60780,3.4375,-28.0625,-20.3125,0
60800,3.9375,-23.6875,-20.875,0
60820,-3,-21.5,-18.125,0
60840,-10.25,-20.125,-16.625,0
60860,-9.8125,-18,-17.1875,0
60880,-6.625,-16.4375,-13.4375,0
60900,-2.9375,-15.1875,-10.25,0
60920,-1.75,-11.9375,-9.25,0
60940,-6,-8.6875,-10.4375,0
60960,-8.9375,-7.4375,-11.6875,0
60980,-7.875,-10.375,-12.8125,0
61000,-7.625,-9.0625,-15.25,0
61020,-8.125,-7.625,-15.625,0
61040,-6.5625,-10.25,-20.0625,0
61060,-5.25,-12.8125,-21.6875,0
61080,-8.125,-10.6875,-22.1875,0
61100,-10.4375,-9.375,-21.875,0
61120,-10.1875,-8.0625,-22.125,0
61140,-6.875,-7.875,-20.0625,0
61160,-6.4375,-8,-18.8125,0
61180,-4.625,-6.375,-16.25,0
61200,-2.125,-8.5625,-15.4375,0
61220,-3.8125,-9.4375,-16.5,0
61240,-7.9375,-5.875,-15.9375,0
61260,-12.9375,-2.5,-14.5625,0
61280,-14.6875,-2.6875,-12.25,0
61300,-12.1875,-1.75,-14.5625,0
61320,-8.875,0.5,-16.9375,0
61340,-9.3125,0.9375,-15.8125,0
61360,-11.1875,0.75,-15.75,0
61380,-12.25,2.0625,-18.4375,0
61400,-12.625,2.125,-19.125,0
61420,-9.3125,1.4375,-18.8125,0
61440,-8.5,0.625,-21.0625,0
61460,-11,1.25,-21.375,0
61480,-14.625,3.75,-21.3125,0
61500,-14.4375,5.75,-20.1875,0
61520,-11.9375,6.25,-20.3125,0
61540,-9.5,4.625,-19.3125,0
61560,-10.3125,3.6875,-15.875,0
61580,-14.6875,7.625,-14.625,0
61600,-15.75,12.5625,-16.875,0
61620,-16.375,9.5625,-20.625,0
61640,-11.375,7.5,-23.25,0
61660,-11.375,9.6875,-23.4375,0
61680,-17.3125,10.875,-22,0
61700,-18.875,11.75,-20.1875,0
61720,-15.375,12.0625,-14.1875,0
61740,-15.75,14.6875,-11.625,0
61760,-16.3125,16.1875,-12.375,0
61780,-18.4375,17.5625,-11.75,0
61800,-16.875,18.8125,-12,0
61820,-12.375,16.5,-13.9375,0
61840,-10.625,16,-15.75,0
61860,-11.9375,19.25,-16.4375,0
61880,-13.0625,21.75,-16.625,0
61900,-14.9375,21.4375,-16.875,0
61920,-12.8125,21.625,-15.375,0
61940,-11.8125,24.75,-13.6875,0
61960,-14.6875,28.6875,-14.625,0
61980,-17.25,32,-13.125,0
62000,-16.9375,34.75,-6.625,0
62020,-12.6875,35.5625,-2.0625,0
62040,-5.6875,34.0625,-5.4375,0
62060,-7.375,33.375,-5.375,0
62070,-9.5,36.4375,-5.5,0
62090,-13.3125,36.75,-6.0625,0
62110,-13.5625,35.625,-3.6875,0
62130,-11.6875,35.4375,0.4375,0
62150,-9.625,33.625,-1.1875,0
62170,-7.4375,31.5625,-2.9375,0
62190,-9.9375,30.8125,-1.0625,0
62210,-13.4375,29.25,-1.9375,0
62230,-13.6875,28.75,-0.1875,0
62250,-12.0625,28.5625,2.4375,0
62270,-12.8125,27.375,4.0625,0
62290,-10.0625,24.8125,-0.625,0
62310,-6.8125,22.3125,-1.5625,0
62330,-8.5,21.5625,-2.4375,0
62350,-9.4375,21.625,-3.6875,0
62370,-9.125,21.75,-1.4375,0
62390,-4.4375,18.3125,2.25,0
62410,-1.625,17.1875,2,0
62430,-1.125,19.625,0.0625,0
62450,-2.625,20.25,0.875,0
62470,-7.25,21.0625,3.0625,0
62490,-6.375,19.5625,3,0
62510,-1.1875,16.5,4.4375,0
62530,6.875,12.0625,2.375,0
62550,5.5625,8.0625,2.125,0
62570,1.0625,6.5625,1.6875,0
62590,-3.75,8.4375,0.5,0
62610,-7.5,7.875,2.625,0
62630,-4.875,2,5.8125,0
62650,-3.375,-0.25,6.875,0
62670,0.0625,3.375,5.625,0
62690,-1.1875,3.125,6.4375,0
62710,0.875,4.75,6.8125,0
62730,1.0625,5,7.5625,0
62750,-0.0625,5.625,6.3125,0
62770,1.25,4,6.9375,0
62790,5.125,3.5625,7.0625,0
62810,4.0625,3.5625,7.25,0
62830,0.375,5.9375,8.8125,0
62850,-0.375,8.9375,6.875,0
62870,1.5625,6.9375,8,0
62890,3.375,5.3125,7.625,0
62910,3.9375,6.625,6.5,0
62930,5,7.375,7.5,0
62950,-1.375,7.6875,8.8125,0
62970,-3.375,9.125,9.8125,0
62990,0,10.8125,9.875,0
63010,5.125,11.75,8.4375,0
63030,4.625,9.125,12.1875,0
63050,1.9375,8.6875,13.125,0
63070,5.0625,7.125,12.8125,0
63090,1.1875,7,13.4375,0
63110,-1.5625,7.4375,12.3125,0
63130,-4.125,7.5625,12.125,0
63150,-2.75,4.625,13.1875,0
63170,0.1875,4.375,13.1875,0
63190,-0.625,6.1875,11.5625,0
63210,-2.75,7.5,10.5625,0
63230,-1.5625,6.9375,12.375,0
63250,-0.375,7.1875,11.9375,0
63270,2.625,7.5,10.875,0
63290,1.5625,6.5625,10.875,0
63310,-1.3125,6.625,11.375,0
63330,0.9375,6,11.8125,0
63350,1.9375,6.5625,11.6875,0
63370,0.1875,6.375,10.25,0
63390,-1.75,4.875,10.75,0
63410,-1.875,2.625,10.6875,0
63430,-0.375,1.5625,9.9375,0
63450,2.5625,-0.75,10.6875,0
63470,2.3125,-1,10.6875,0
63490,-3,-0.75,9.0625,0
63510,-5.375,-2.25,10.1875,0
63530,-1.4375,-4.875,10.6875,0
63550,1.3125,-5.4375,10.1875,0
63570,1.3125,-5.1875,9.125,0
63590,-0.4375,-5.5,8.6875,0
63610,-2,-5.4375,8.375,0
63630,-0.5625,-7.25,10.1875,0
63650,0.1875,-7.6875,9.875,0
63670,-4.125,-7.9375,8.8125,0
63690,-3.375,-7.5,8.875,0
63710,-2.0625,-8.8125,9.375,0
63730,-3.4375,-8.0625,8.125,0
63750,-2.5,-6.25,8,0
63770,1.25,-6.4375,7.9375,0
63790,4.375,-5.6875,6.625,0
63810,4.625,-5.75,7,0
63830,3.125,-4.3125,6.3125,0
63850,-0.0625,-3.875,7.1875,0
63870,0.1875,-5.25,10.6875,0
63890,-0.0625,-5,11.5,0
63910,-0.75,-4.625,12.75,0
63930,-3.6875,-3.75,14.3125,0
63950,-5.5625,-3.1875,15.1875,0
63970,-5.8125,-3.3125,16.3125,0
63990,-4.125,-3.5,15.625,0
64010,0.9375,-4.9375,14.75,0
64030,3.25,-5.1875,12.5,0
64050,-0.125,-5.6875,12.125,0
64060,-2.3125,-6.375,11.0625,0
64080,0.375,-7.875,9.875,0
64100,2.9375,-8.375,9.8125,0
64120,5.875,-8.5625,9.6875,0
64140,8.3125,-7.625,8.125,0
64160,6.375,-8.875,7.375,0
64180,5.25,-9.875,6.875,0
64200,4.25,-10.625,5.75,0
64220,3.5,-12.1875,5.8125,0
64240,0.875,-14.125,6.8125,0
64260,1.875,-14.9375,7.75,0
64280,2.875,-15.875,9,0
64300,2.1875,-15.75,7.4375,0
64320,-0.5,-17.375,8.1875,0
64340,-0.25,-18.625,9.0625,0
64360,-0.5,-18.3125,9.25,0
64380,-1.1875,-17.5,8.25,0
64400,-1.875,-18.0625,9.3125,0
64420,-0.4375,-21.25,12,0
64440,1.4375,-21.4375,11.875,0
64460,5,-19.875,11.0625,0
64480,-0.25,-21.75,10.6875,0
64500,-4.0625,-23.4375,12.4375,0
64520,0.1875,-22.25,9.8125,0
64540,2.625,-23.6875,9.0625,0
64560,0.4375,-25.3125,9.8125,0
64580,0.6875,-25.3125,9.0625,0
64600,-0.4375,-24.3125,6.875,0
64620,0.25,-24.8125,4.4375,0
64640,0.125,-26.875,4.6875,0
64660,0.4375,-27.125,3.6875,0
64680,2.4375,-27.0625,2.375,0
64700,5.625,-28.125,1.5625,0
64720,2.1875,-30,1,0
64740,-0.5625,-30.5,-1.5,0
64760,2.625,-30.75,-4.375,0
64780,6.625,-32.8125,-6.4375,0
64800,1.6875,-34.3125,-5.3125,0
64820,1.625,-34.125,-5.75,0
64840,0.75,-33.3125,-6.75,0
64860,1.4375,-34.8125,-8.1875,0
64880,6.9375,-35.125,-8.5625,0
64900,5.25,-32.0625,-9.625,0
64920,3,-31.6875,-9.5625,0
64940,-2.8125,-31.625,-9.75,0
64960,-2.375,-30.25,-10.125,0
64980,2,-31.1875,-11.3125,0
65000,3.375,-32.1875,-9.125,0
65020,2.3125,-30.25,-9.4375,0
65040,-2.4375,-27.125,-8.1875,0
65060,-7.8125,-27.3125,-9.5,0
65080,-7.9375,-28.0625,-8.9375,0
65100,-4.625,-27.9375,-8.625,0
65120,-3.0625,-25.375,-7.625,0
65140,-5.375,-25.0625,-8.9375,0
65160,-4.875,-25.1875,-10.4375,0
65180,-2.8125,-24,-11.6875,0
65200,-2.125,-23.25,-10.4375,0
65220,1.0625,-20.9375,-12.25,0
65240,-0.4375,-18.25,-10.9375,0
65260,-0.6875,-18.1875,-14.625,0
65280,1.6875,-20,-15.9375,0
65300,2,-17.375,-14.875,0
65320,1.5625,-17.25,-14.375,0
65340,-2.3125,-17.125,-8.5,0
65360,-2.5,-16.875,-9.625,0
65380,-0.75,-20.5,-13.9375,2001
65400,-0.4375,-20.875,-13.625,0
65420,-0.25,-16.9375,-14.125,0
65440,-3.1875,-12.6875,-11.25,0
65460,-2.6875,-10.4375,-10.8125,0
65480,-1.375,-12.3125,-11.25,0
65500,2.4375,-13.25,-13.5,0
65520,3.625,-11.0625,-13.875,0
65540,-2.875,-10.875,-10.0625,0
65560,-4.25,-6.9375,-9.4375,0
65580,-4.3125,-5.9375,-9,0
65600,-1.25,-2.5625,-5.5,0
65620,-4,3.625,-5,0
65640,-6.8125,9.9375,-4.4375,0
65660,-2,14.375,2.6875,0
65680,-0.0625,19,3.0625,0
65700,1.25,22.5,4.25,0
65720,3.4375,25,14.25,0
65740,5.8125,29.625,12.1875,0
65760,5.75,37.625,8.3125,0
65780,-1.1875,43.6875,13.5,0
65800,-0.875,44,18.75,0
65820,6.875,49.25,21,0
65840,9.9375,53.125,23.5625,0
65860,8.8125,56,29.5625,0
65880,2.9375,62.0625,37.9375,0
65900,9.1875,68.875,38.4375,0
65920,12.0625,74.3125,38.5,0
65940,10.5,74.8125,43.0625,0
65960,13.6875,77.75,51.0625,0
65980,19.8125,83.125,52,0
66000,28.5,87.9375,51.25,0
66020,33.875,86.3125,52.75,0
66040,31.4375,82.625,55.5,0
66060,29.625,78.625,57.8125,0
66080,25.9375,72.75,58.8125,0
66100,29.1875,64.1875,61.4375,0
66120,20.25,55.375,63.5,0
66140,22.875,49.875,65.125,0
66160,15.625,45.75,63.1875,0
66180,7.8125,38.1875,60.0625,0
66200,8.4375,32.75,57.5,0
66220,10.4375,30.375,54.9375,0
66240,8.5,29.375,44.875,0
66260,5.5625,23.5625,39.25,0
66280,7.5,22.9375,34.25,0
66300,14,20.25,23.8125,0
66320,20.9375,13.1875,18.375,0
66340,19.75,11.6875,14.375,0
66360,12.3125,7.9375,13.125,0
66380,11.125,5.375,9.875,0
66400,13.5,2.5625,6.0625,0
66420,16.5,0.375,4.875,0
66440,14.6875,-1,4.375,0
66460,10.125,-0.8125,0.9375,0
66480,7,-1.3125,1.0625,0
66500,7.5625,-2.25,0.375,0
66520,8.875,-4.6875,-1.125,0
66540,9.5,-5.4375,-1.25,0
66560,7.1875,-4.4375,-1.9375,0
66580,5.5625,-6,-0.4375,0
66600,1.4375,-6.25,-1.625,0
66620,3.6875,-5.875,0.3125,0
66640,6.6875,-6.0625,0.4375,0
66660,7.125,-5.3125,-0.125,0
66680,2.375,-3.5,1.1875,0
66700,2.5,-5.25,4.1875,2000
66720,3.5625,-7.625,4.0625,0
66740,0.875,-6.5,2.8125,0
66760,0.625,-4.0625,1,0
66780,2.4375,-3.5625,1.75,0
66800,-0.8125,-5.6875,1.8125,0
66820,0.0625,-5.125,2.875,0
66840,-3.6875,-7.0625,1.5,0
66860,-1.25,-7.75,2.3125,0
66880,-1.3125,-9.0625,2.625,0
66900,-1.875,-10.5,0.6875,0
66920,-6.125,-10.625,1.3125,0
66940,-6.1875,-10.375,2.3125,0
66960,-3.5,-13.0625,0.5625,0
66980,-2.125,-14.4375,-2.1875,0
67000,0.5625,-16.5625,-1.1875,0
67020,1.625,-17.6875,0.5625,0
67040,2.875,-19.5625,1.25,0
67060,2,-17.8125,0.5625,0
67080,-0.375,-17.125,-0.1875,0
67100,-0.1875,-18.875,1,0
67120,0.9375,-19.4375,0.625,0
67140,1.75,-19,1.8125,0
67160,2.0625,-18.6875,1.3125,0
67180,2.0625,-17.4375,0.0625,0
67200,4,-17.875,2.625,0
67220,6,-18.75,2.1875,0
67240,3.5625,-18.125,1.0625,0
67260,4.9375,-18.6875,-0.1875,0
67280,3.625,-19.625,-0.1875,0
67300,5.4375,-19.5625,-0.6875,0
67320,10.3125,-21.125,-0.75,0
67340,7.625,-20.75,-1.5625,0
67360,2.3125,-19.875,-2.0625,0
67380,2.75,-20.0625,-1.4375,0
67400,3.625,-20.25,-0.75,0
67420,4.5,-20.75,-1.3125,0
67440,3.9375,-20.4375,-0.625,0
67460,3.875,-20.125,-1.125,0
67470,2.25,-20.5,-0.5,0
67490,2.375,-19.5,-1.5625,0
67510,4.125,-17.625,-3.5625,0
67530,3.125,-18.25,-2.125,0
67550,3.625,-20.8125,-2.3125,0
67570,5.6875,-20.125,-3.8125,0
67590,3.0625,-17.3125,-5.875,0
67610,1.9375,-15.6875,-7.5,0
67630,3.25,-16.75,-6.5625,0
67650,4.375,-16.125,-10.5,0
67670,3.8125,-13.625,-12.875,0
67690,0,-11.8125,-12.3125,0
67710,0.0625,-12.0625,-11.9375,0
67730,1.4375,-11.5625,-15.5625,0
67750,1.8125,-9.25,-16.9375,0
67770,-2,-6.125,-17.75,0
67790,-4.8125,-4.5,-16.9375,0
67810,-4.6875,-3.125,-17.125,0
67830,-2.8125,-2,-20.625,0
67850,-3.125,1.5625,-22.5625,0
67870,-4.25,4.0625,-20,0
67890,-5.1875,3.6875,-17.875,0
67910,-1.9375,5.0625,-20.875,0
67930,-4.875,7.1875,-20.8125,0
67950,-10.5625,9.4375,-18.875,0
67970,-11.125,9.4375,-17.8125,0
67990,-10.4375,9.75,-18,0
68010,-9.1875,10.625,-18.75,0
68030,-8.5,9.8125,-20.6875,0
68050,-7,9.75,-22,0
68070,-8.625,9.6875,-23.1875,0
68090,-6.9375,10.9375,-23.1875,0
68110,-5.1875,11.8125,-20.125,0
68130,-6.875,9.625,-21.625,0
68150,-6.625,8.5,-23.9375,0
68170,-9.375,8.875,-22.875,0
68190,-11.25,10.4375,-21.0625,0
68210,-12.1875,8.4375,-19.375,0
68230,-10.75,7.125,-21.0625,0
68250,-10.6875,8.75,-23.875,0
68270,-13.25,11.5625,-23.25,0
68290,-10.75,10.4375,-19.4375,0
68310,-12.0625,8.875,-21.4375,0
68330,-10.75,10.125,-23.5,0
68350,-9.375,12.1875,-22.125,0
68370,-12.0625,12.75,-22.0625,0
68390,-9.75,13.8125,-23.3125,0
68410,-9.75,16.0625,-22.5625,0
68430,-11.25,19.3125,-21.25,0
68450,-13.125,20.3125,-23,0
68470,-12.9375,20,-23.8125,0
68490,-11.875,19.0625,-24.5625,0
68510,-8,16.0625,-24,0
68530,-9.9375,15.6875,-25.625,0
68550,-12.0625,17.4375,-26.875,0
68570,-12.75,16.875,-26,0
68590,-11.375,13.8125,-24.5,0
68610,-7.625,13.6875,-25.375,0
68630,-8.25,14.125,-24.5,0
68650,-9.8125,14.25,-24,0
68670,-10.4375,12.9375,-24.3125,0
68690,-9.4375,14,-22.6875,0
68710,-10.0625,15,-22.375,0
68730,-9.5625,13.625,-23.1875,0
68750,-8.8125,11.125,-23.125,0
68770,-8.125,11.9375,-23.8125,0
68790,-7.75,13.0625,-24.3125,0
68810,-9.25,13.3125,-23.6875,0
68830,-9.5,13.0625,-22.125,0
68850,-9.125,12.5625,-22.625,0
68870,-8.5,13.3125,-21.5625,0
68890,-10.8125,10.5625,-16.1875,0
68910,-11.625,7.25,-17.4375,0
68930,-9.75,4.4375,-17.625,0
68950,-11.6875,4.625,-15.6875,0
68970,-13.375,6.75,-13.6875,0
68990,-15.625,8.25,-13.5625,0
69010,-14.1875,9.9375,-12.75,0
69030,-12.5625,10.1875,-10.75,0
69050,-10.6875,13.3125,-7.5,0
69070,-13.125,16.375,-5.125,0
69090,-11.875,18,-4.3125,0
69110,-10.1875,17.625,-5.25,0
69130,-6.25,18.625,-5.3125,0
69150,-6.75,20,-4.6875,0
69170,-6.5625,19.625,-4.3125,0
69190,-7.4375,17.875,-2.9375,0
69210,-8.5,16.6875,-1.5,0
69230,-5,14.75,-2.0625,0
69250,-5,14.6875,-4.9375,0
69270,-6.0625,14.8125,-5,0
69290,-5.1875,15.75,-3.625,0
69310,-5.5,14,-2.75,0
69330,-2.5625,12.0625,-2.3125,0
69350,-1.3125,12.1875,-0.25,0
69360,-3.5,10.625,-0.9375,0
69390,-3.875,11.1875,-1.8125,0
69410,-1.9375,9.5625,1.875,0
69430,-3.4375,6.5,3.4375,0
69450,-2.375,3.8125,3.5,0
69460,-1.8125,5.0625,4.4375,0
69480,-1.5,6.1875,5.5,0
69500,-4.5,6.4375,5.3125,0
69520,-5,6.8125,8.0625,0
69540,-2.3125,7.5625,8.5625,0
69560,0.875,5.3125,8.4375,0
69580,-2.5,5.25,8.9375,0
69600,-2.5625,6.0625,8.3125,0
69620,-4.4375,6.4375,7.4375,0
69640,-7.4375,6.625,5.875,0
69660,-4.5,5,6.5625,0
69680,0.0625,4.5625,6.125,0
69700,-1.625,5.1875,5.5,0
69720,-2.625,3.25,6.6875,0
69740,-4.0625,2.1875,6.5625,0
69760,-4,2.1875,5.1875,0
69780,-4.1875,0,8.4375,0
69800,-3.1875,-1.6875,11.125,0
69820,-4.9375,-0.375,9.75,0
69840,-7.625,2.125,10.6875,0
69860,-9,3,11.1875,0
69880,-5.5,3.625,6.25,0
69900,-4.5625,7.1875,2.0625,0
69920,-4.9375,7.625,5.0625,0
69940,-6.5625,8.6875,7.3125,0
69960,-5.25,9.1875,5.75,0
69980,0.375,7.3125,8.4375,0
70000,-4.3125,6.3125,9,0
70020,-2.5625,4.25,8.0625,0
70040,-1.75,4,10,0
70060,-1.6875,3.1875,12.5625,0
70080,-7.25,3.5,13.0625,0
70100,-10.8125,3.125,13.125,0
70120,-3.75,-0.1875,14.25,0
70140,-1.5,-3,12.75,0
70160,0.625,-3.1875,10.625,0
70180,-2,-0.75,9.3125,0
70200,-4.4375,-1.5,9.375,0
70220,-0.1875,-1.4375,8.9375,0
70240,5.625,0.4375,7.375,0
70260,6.5,0.75,8.375,0
70280,1.5625,1.625,6.9375,0
70300,2.25,4.125,5.875,0
70320,4.4375,4,9.375,0
70340,-1.25,3.875,10.9375,0
70360,1.625,5.1875,9.0625,0
70380,0.9375,5.8125,10.125,0
70400,-4,4.25,14.375,0
70420,-9.0625,2.5,17.4375,0
70440,-4.625,2.1875,19.1875,0
70460,-2.3125,1.6875,21.0625,0
70480,-7.875,2.4375,19.375,0
70500,-9.625,1.0625,18.625,0
70520,-5.125,-0.75,19.1875,0
70540,-0.3125,-0.1875,15.0625,0
70560,0.4375,-0.75,13.375,0
70580,3.5625,-2.125,12.125,0
70600,3.875,-2.1875,7.4375,0
70620,2.9375,-2.875,7.125,0
70640,2.875,-4.4375,9.4375,0
70660,1.75,-4.625,8.625,0
70680,2.9375,-4.5,6.8125,0
70700,2.5,-4.875,5.75,0
70720,-1.375,-7.25,7,0
70740,0.875,-6.4375,6.5625,0
70760,1.875,-6.4375,6.5625,0
70780,0.25,-7.125,5.125,0
70800,-0.1875,-9.5,7.8125,0
70820,2.1875,-8.5625,7.5,0
70840,1.5625,-6.625,4.6875,0
70860,-0.375,-7,5.5,0
70880,-1.6875,-8.5625,8.1875,0
70900,0.9375,-8.1875,7.25,0
70920,1.25,-7.125,7.6875,0
70940,-1.625,-6.5625,10.25,0
70960,-5.0625,-7.0625,11.125,0
70980,-3.3125,-7.25,10.3125,0
71000,-0.4375,-6.875,10.1875,0
71020,-0.0625,-8.0625,11.1875,0
71040,-3.375,-9.125,11.125,0
71060,-1.9375,-10.0625,10.625,0
71080,0.9375,-9.875,10.375,0
71100,-0.625,-10.6875,10.875,0
71120,-0.1875,-10.3125,9.5625,0
71140,2.8125,-9.9375,8.0625,0
71160,4,-11.1875,9,0
71180,1.4375,-10.4375,6.375,0
71200,5.875,-9.625,7.25,0
71220,5.4375,-10.6875,10.875,0
71240,-0.0625,-11.5,11.5625,0
71260,-0.4375,-11.1875,10.75,0
71280,0.0625,-12.125,10.625,0
71300,-0.125,-14.0625,10.25,0
71320,1.5625,-14.5,9.3125,0
71340,3.0625,-14.25,8.625,0
71360,1.375,-14.8125,8.9375,0
71380,-0.25,-15,8.4375,0
71400,2.5,-15.25,9.4375,0
71420,4.625,-16.6875,10.1875,0
71440,2.75,-16.8125,8.5625,0
71460,1.5,-15.625,9.3125,0
71480,1.8125,-17.625,10.3125,0
71500,3.5625,-19.625,10,0
71520,2.4375,-19,10.6875,0
71540,0.5625,-19.0625,11.4375,0
71560,-2.6875,-20.0625,12.3125,0
71580,-0.5,-20.0625,11.9375,0
71600,1.875,-19.875,11.625,0
71620,1.5,-19.4375,10.1875,0
71640,-0.0625,-18.375,8.75,0
71660,2.0625,-17.625,8.0625,0
71680,3.75,-18.375,7.5625,0
71700,3,-17.9375,6.625,0
71720,5.625,-16.5,5.3125,0
71740,5.9375,-17.5,3.25,0
71760,3.3125,-14.1875,3.25,0
71780,0.5,-12.3125,5.125,0
71800,0.5625,-12.375,4.9375,0
71820,3.5,-13.5625,5.0625,0
71840,2.0625,-14.6875,4.75,0
71860,3.3125,-14.5625,4.5625,0
71890,1.0625,-16.875,6.5,0
71910,0.125,-18.5625,6.75,0
71930,4.625,-20.25,3.75,0
71950,5.125,-20.875,2.6875,0
71970,0.1875,-22.1875,3.0625,0
71990,-0.6875,-22.5,2.25,0
72010,2.1875,-24.9375,2.375,0
72030,3.8125,-25.4375,3.3125,0
72050,1,-25.4375,3.3125,0
72070,-2.75,-25.6875,3.9375,0
72090,-0.625,-26.5625,3.5,0
72110,1.5625,-27.75,3,0
72130,1.3125,-27.75,1.875,0
72150,0.3125,-26.625,2.5625,0
72170,0.5,-26.6875,2.6875,0
72190,-1.0625,-27.1875,1.5625,0
72210,-1.375,-27.375,1.3125,0
72230,0,-27.5625,1.125,0
72250,1.4375,-28.25,-0.0625,0
72270,0.8125,-28.1875,-1.25,0
72290,-1.25,-27.25,-2.6875,0
72310,-0.8125,-27.5,-3.25,0
72330,1.0625,-27.8125,-4.9375,0
72350,2.0625,-25.6875,-5.1875,0
72370,-1.625,-24.375,-5.875,0
72390,-3.75,-24.6875,-6.8125,0
72410,-1.6875,-23.0625,-8.5625,0
72430,-1.5625,-20.625,-9.8125,0
72450,-3,-21.375,-10.6875,0
72470,-0.25,-20.6875,-11.75,0
72490,-1.9375,-17.25,-12.75,0
72510,-3.5,-14.875,-11.875,0
72530,-3.25,-14.3125,-12.625,0
72550,-1.8125,-13.125,-16,0
72570,-4.375,-11.6875,-15.1875,0
72590,-4.0625,-9.5,-15.3125,0
72610,-5.5625,-7.75,-15,0
72630,-6.375,-5.75,-15.9375,0
72650,-4.125,-6.4375,-15,0
72670,-6.5,-6.375,-12.75,0
72690,-6.5625,-5.25,-13.125,0
72710,-6.375,-4.8125,-13.3125,0
72730,-7.375,-5,-13.3125,0
72750,-8.125,-4.6875,-13.875,0
72770,-10,-2.5625,-13.625,0
72790,-8.5,0.9375,-13.5,0
72810,-7.875,2.625,-14.4375,0
72830,-7.625,2.875,-15.375,0
72850,-6.6875,4.625,-15,0
72860,-9.1875,6.3125,-15.3125,0
72880,-8.25,5.75,-15.5625,0
72900,-6.375,4.1875,-16,0
72920,-5.3125,3.0625,-17.0625,0
72940,-6.25,3.375,-15.4375,0
72960,-6.875,2.625,-16.9375,0
72980,-4.875,1.375,-17.375,0
73000,-6.9375,3.8125,-17.625,0
73020,-8.0625,4.6875,-15.5625,0
73040,-5.5,3.6875,-14.9375,0
73060,-1.625,2.125,-15.9375,0
73080,-3.5,1.125,-16.8125,0
73100,-5.8125,0.625,-16.5,0
73120,-6.375,1.5625,-14.875,0
73140,-6,0.5,-17.1875,0
73160,-3.9375,-1.5,-18.5625,0
73180,-5.75,0,-19.5625,0
73200,-5.875,2.125,-20.3125,0
73220,-5.8125,2.375,-18.75,0
73240,-5.75,0.6875,-18.0625,0
73260,-6.375,-0.25,-18.8125,0
73280,-6.9375,1.125,-18.4375,0
73300,-7.875,2.4375,-16.6875,0
73320,-8.125,1.5625,-15.6875,0
73340,-6.6875,1.5,-17.375,0
73360,-8.8125,4.625,-18.25,0
73380,-9.1875,7.625,-15.9375,0
73400,-10.125,7.875,-18.5,0
73420,-6.875,5.3125,-19.1875,0
73440,-9.375,8.3125,-21.125,0
73460,-12.1875,8.6875,-20.875,0
73480,-10.3125,7.6875,-21.125,0
73500,-8.125,6.6875,-22.5,0
73520,-8.75,8.4375,-23.8125,0
73540,-12.875,11.125,-23.125,0
73560,-13.875,12.625,-22.0625,0
73580,-11.8125,13.0625,-22,0
73600,-9.9375,14.75,-22.1875,0
73620,-10,15.75,-21.375,0
73640,-14.1875,15.875,-19.9375,0
73660,-11.25,16.6875,-18.5625,0
73680,-11.125,18.625,-16.8125,0
73700,-10.6875,19.375,-15.75,0
73720,-9.625,18.125,-15.75,0
73740,-8.375,17.75,-17.125,0
73760,-7.375,17.8125,-16.75,0
73780,-4.875,20.1875,-13.125,0
73800,-4.1875,20,-12.75,0
73820,1.125,16.3125,-12.75,0
73840,-0.625,15.75,-11.5625,0
73860,-2.875,16.6875,-9.1875,0
73880,-5.6875,16.5625,-9.625,0
73900,-5.75,15.625,-8.125,0
73920,-5.3125,13.375,-10.1875,0
73940,-2.875,10.875,-11.75,0
73960,-1.3125,11.125,-10.9375,0
73980,-1,12.3125,-9.1875,0
74000,-1.625,10.9375,-7.625,0
74020,-3.8125,8,-8.1875,0
74040,-2.6875,7.3125,-6.4375,0
74060,-1.3125,7.125,-7.5625,0
74080,-3.4375,6.1875,-10.3125,0
74100,-3.9375,4.1875,-9.5,0
74120,-2,3.6875,-9.5625,0
74140,-0.5625,3.5,-11.875,0
74160,-1.125,2.125,-9,0
74180,-3.8125,2.75,-6.625,0
74200,-5.0625,5.375,-2.875,0
74220,-5.5,8.5,-0.1875,0
74240,-0.375,7.25,1.25,0
74260,0.625,5.8125,2.625,0
74280,-3.0625,6.5,2.5,0
74300,-4.5625,8.5625,2.875,0
74320,-7.375,7.8125,1.375,0
74340,-6.5,8.1875,0.875,0
74360,-1.8125,8.5625,2.6875,0
74380,-2.0625,8.8125,4.625,0
74400,-0.5625,8.1875,1.5,0
74420,-2.25,7.625,3.375,0
74440,-6.9375,7.5,6.4375,0
74460,-1.75,6.875,6.5,0
74480,-2.5,6.75,5.8125,0
74500,-5.1875,7.5625,8.125,0
74520,-5.0625,8.625,9.0625,0
74540,-1.0625,8.6875,8,0
74560,0.25,10.5625,7.5625,0
74580,-1.5625,11.125,9.625,0
74600,-1.125,12.9375,8.6875,0
74620,-1.3125,14,6.5,0
74640,-1.8125,16.125,7.5,0
74660,-2.5625,16.375,8.25,0
74680,1.4375,17.6875,7.25,0
74700,-0.125,19.875,8.9375,0
74720,-1.625,21.6875,12.5,0
74740,-1.5625,21.125,13.875,0
74760,-0.125,19.1875,11.4375,0
74780,-0.0625,19.375,13.125,0
74800,-1.125,19.125,13.4375,0
74810,-1.625,19.1875,11.5,0
74830,-2.75,18.875,14.125,0
74850,-0.375,16,14.5,0
74870,1.375,14.9375,11.9375,0
74890,0,17.25,11.1875,0
74910,-0.75,16.125,12.125,0
74930,3.1875,12.5625,10.3125,0
74950,7.3125,8.5625,8.0625,0
74970,6.4375,8.875,10.125,0
74990,6.3125,5.1875,10.6875,0
75010,5.1875,2.875,10.3125,0
75030,-1.25,5.375,9.75,0
75050,-4.25,6.1875,12,0
75070,-3.5,3.75,16.75,0
75090,1.375,0.625,14.75,0
75110,4.5,-0.625,14.1875,0
75130,2.875,-0.6875,14,0
75150,1.375,-1.0625,11.75,0
75170,-1.5625,-2.375,10.5625,0
75190,-2.0625,-3.125,12.9375,0
75210,-1.8125,-1.1875,12.3125,0
75230,2.8125,-0.3125,12.0625,0
75250,1.1875,-2,12.875,0
75270,-1.5,-2.3125,11.75,0
75290,1.3125,-0.25,10.6875,0
75310,-0.5,-1.1875,9.875,0
75330,3.125,-4.4375,8.5625,0
75350,4.5,-7.25,8.625,0
75370,4.6875,-5.6875,9.4375,0
75390,5.5625,-4.25,9.6875,0
75410,0.9375,-3.5625,9.1875,0
75430,-2.3125,-5.875,11.5625,0
75450,-4.4375,-7.1875,15.1875,0
75470,-2.5625,-5.875,14.9375,0
75490,-3.9375,-3.6875,13.4375,0
75510,-5.5,-1.75,14.75,0
75530,-6.25,-1.375,17.625,0
75550,0.5,-1.75,15.625,0
75570,2.125,0,13.625,0
75590,2.875,-0.5625,15.375,0
75610,2.625,-2.75,15.4375,0
75630,2.5625,-4.8125,13.125,0
75650,-0.0625,-4.875,15.375,0
75670,-1.3125,-7.375,17.3125,0
75690,1.6875,-9.125,14.9375,0
75710,-1.3125,-10.25,12.4375,0
75730,-2.375,-12.625,12.1875,0
75750,-1.375,-16.5,12.4375,0
75770,2.3125,-17.4375,10.875,0
75790,1.625,-18.3125,11,0
75810,-2.25,-18.125,11.75,0
75830,-3.8125,-18.1875,13.3125,0
75850,1.0625,-19.1875,13.625,0
75870,-0.125,-18.75,12.1875,0
75890,-0.625,-20.3125,13.875,0
75910,0.6875,-20,16.625,0
75930,3.125,-19.8125,16.25,0
75950,-0.3125,-17.375,13.125,0
75970,-2.0625,-17.9375,14.875,0
75990,1.5625,-17.6875,17.3125,0
76010,8.0625,-18.875,15.5625,0
76030,7.0625,-20,13.4375,0
76050,2.1875,-19.625,13.125,0
76070,0.125,-21.3125,14.4375,0
76090,1.375,-22.8125,13.5625,0
76110,4.5625,-21.8125,10.6875,0
76130,1.625,-23.5625,10.75,0
76150,-0.375,-26.5625,13,0
76170,0.5,-25.6875,13.375,0
76190,3.8125,-24.625,12,0
76210,4.0625,-24.8125,11.9375,0
76230,0.75,-26.5625,12.6875,0
76250,1.25,-26.9375,11.5625,0
76270,5.8125,-26.8125,8.625,0
76290,5.625,-25.6875,5.0625,0
76310,4.5625,-27.375,2.0625,0
76330,3.125,-29.9375,0.5625,0
76350,7.0625,-30.3125,-1.375,0
76370,8,-28.875,-2.1875,0
76390,7.75,-28.75,-1.5,0
76410,6.125,-29.1875,-2.3125,0
76430,4.125,-28.9375,-3.4375,0
76450,6,-30.1875,-3.4375,0
76470,5.5625,-31.4375,-4.9375,0
76490,6.1875,-30,-5.5625,0
76510,3.375,-29.5625,-5.1875,0
76530,5.0625,-32.6875,-3.5625,0
76550,4.25,-32.6875,-4.5,0
76570,4.1875,-29.9375,-5.3125,0
76590,4.5,-28.1875,-4.3125,0
76610,1,-29.125,-2.125,0
76630,0.9375,-29.5625,-3.3125,0
76650,3.6875,-28.4375,-4.125,0
76670,1.5625,-25.875,-4.75,0
76690,0.375,-24.375,-6.125,0
76710,1,-22.125,-8.25,0
76730,-0.875,-17.5,-10.1875,0
76750,-2.375,-15.3125,-8.3125,0
76770,-5.875,-13.1875,-5.9375,0
76790,-6.625,-11.5625,-4.3125,0
76810,-2.625,-10.8125,-4.9375,0
76830,-1.5625,-11.5,-4.625,0
76850,-2.6875,-12.25,-2.5625,0
76870,-5.5625,-8.5,-2.25,0
76890,-9.375,-6.75,-2.8125,0
76910,-8,-9.4375,-1.3125,0
76930,-6.0625,-11.5,-1.5625,0
76950,-5.75,-9.125,-3.25,0
76970,-6.375,-9.0625,-4.3125,0
76990,-5.875,-10.3125,-5.5,0
77010,-5.4375,-11.4375,-6.3125,0
77030,-6.5,-11.6875,-6.9375,0
77050,-5.9375,-10.375,-6.0625,0
77070,-3.6875,-11.25,-6.5,0
77090,-4.875,-14.9375,-7.9375,0
77110,-5.375,-12.875,-10.5625,0
77130,-7.3125,-10.3125,-9.6875,0
77150,-9.3125,-11.8125,-10,0
77170,-5,-14.5625,-11.5,0
77190,-4.9375,-13.0625,-12.0625,0
77210,-6.125,-9.9375,-11.625,0
77230,-11.5625,-9.4375,-12.0625,0
77250,-11.1875,-9.4375,-11.875,0
77270,-7.9375,-8.8125,-12.75,0
77290,-7.3125,-8.0625,-14.5,0
77310,-10.4375,-4.875,-14.875,0
77330,-11.9375,-2.875,-15.9375,0
77350,-10.9375,-2.3125,-17.0625,0
77370,-12.9375,-1.3125,-17.6875,0
77390,-10.9375,-0.0625,-18.75,0
77410,-12.6875,1.9375,-18.25,0
77430,-13.125,3.875,-17.25,0
77450,-13.125,6.3125,-16.1875,0
77470,-10.375,6.625,-16.4375,0
77490,-8.375,4.625,-18.75,0
77510,-12.5,4.625,-20.5,0
77530,-16.1875,6.6875,-19.3125,0
77550,-16.375,6.4375,-16.25,0
77570,-13.625,5.25,-19.25,0
77590,-11.6875,6.375,-20,0
77610,-13.9375,8,-17.0625,0
77630,-14.8125,8,-18.5,0
77650,-13.125,7.4375,-22.375,0
77670,-14.3125,6.8125,-22.5625,0
77690,-16,8,-24.1875,0
77710,-17.625,8.875,-25.125,0
77730,-16,9.3125,-22.6875,0
77750,-15.75,9.5625,-22.8125,0
77770,-16.25,10.125,-23.0625,0
77790,-18.3125,11.9375,-21.4375,0
77810,-20.125,12.5625,-21.375,0
77830,-17.875,12.25,-20.125,0
77850,-16.3125,13.4375,-19.3125,0
77870,-16.5,13.9375,-17.625,0
77890,-17.375,13.75,-17.75,0
77910,-16,13.3125,-19.1875,0
77930,-14.9375,12.4375,-19.75,0
77950,-14.625,12,-19.3125,0
77970,-15.125,12.4375,-19.9375,0
77990,-13.0625,12.75,-20.75,0
78010,-12.9375,14.5625,-20.125,0
78030,-13.875,15.625,-19,0
78050,-13.8125,17,-19.0625,0
78070,-12.5,19,-17.3125,0
78090,-11.6875,21.0625,-16.625,0
78110,-12,23.9375,-16.5,0
78130,-11.25,28.3125,-12.4375,0
78150,-10.5625,31.25,-10.9375,0
78170,-9.125,31.375,-13.375,0
78190,-8.0625,32.1875,-11.625,0
78210,-6.5625,32.625,-10.4375,0
78220,-4.9375,30.625,-11.375,0
78240,-5.1875,28.375,-9.1875,0
78260,-6.375,27.3125,-7.4375,0
78280,-5.3125,25.4375,-8.5,0
78300,-5.25,22,-7.4375,0
78320,-11.875,19.5,-4.8125,0
78340,-17.6875,22.5625,-5.4375,0
78360,-15.5625,23.75,-3.875,0
78380,-14.75,23.1875,-0.375,0
78400,-10.5,22.6875,-2.4375,0
78420,-6.9375,22.375,-2.125,0
78440,-5.75,23.4375,-0.625,0
78460,-6.875,25.125,2.9375,0
78480,-9.1875,26.1875,6.6875,0
78500,-6.25,25.4375,7.8125,0
78520,0.8125,24.375,6.625,0
78540,5.6875,23.1875,5.4375,0
78560,6.25,24.5,2.875,0
78580,-3.0625,25.1875,2.625,0
78600,-7.25,23.9375,7.4375,0
78620,-3.5,19.8125,11.5625,0
78640,4.3125,14.5,11.1875,0
78660,4.375,10.4375,11.1875,0
78680,0.1875,10.5625,7.125,0
78700,-3.125,9.75,5.6875,0
78720,-3.375,6.0625,5.625,0
78740,-3.625,4.6875,3.875,0
78760,0.8125,6.875,2.25,0
78780,0,6.5625,4.5625,0
78800,-3.75,6.9375,4.8125,0
78820,-4.6875,5.4375,5.25,0
78840,-1.8125,5.125,7.1875,0
78860,2.75,4.875,7.8125,0
78880,-0.625,6.625,9.6875,0
78900,-6.5625,10.0625,12.125,0
78920,-5.75,12.125,14,0
78940,-4.4375,12.6875,13.1875,0
78960,-7.0625,14.1875,12.625,0
78980,-7.6875,15.375,15.8125,0
79000,-13,16.125,18.875,0
79020,-14.25,19.375,18.5625,0
79040,-10.125,22.125,19.125,0
79060,-14.75,22,20.125,0
79080,-16.625,21.625,18.75,0
79100,-12.375,21.375,19.625,0
79120,-11.9375,21.125,18.9375,0
79140,-12.9375,17.5,16.4375,0
79160,-12.25,17.4375,15.875,0
79180,-10.9375,16.625,16.9375,0
79200,-11.5,15,16.3125,0
79220,-16.4375,14.0625,17.25,0
79240,-15.875,15.4375,16.3125,0
79260,-12.5625,14.75,16.125,0
79280,-13.875,10.4375,17.5625,0
79300,-15.625,9.4375,16.875,0
79320,-10.8125,10.875,16.4375,0
79340,-8.5625,8.3125,17.3125,0
79360,-14.875,6.8125,17.6875,0
79380,-12.0625,5.6875,17.5,0
79400,-0.875,3.875,15.5625,0
79420,-0.25,0.4375,14.1875,0
79440,-9.3125,0.1875,14.0625,0
79460,-10.8125,0.625,12.4375,0
79480,-7.375,0.375,12.5625,0
79500,-6.375,-3.9375,16.125,0
79520,-7.75,-4.0625,16.3125,0
79540,-4.5625,-1.3125,13.6875,0
79560,-4.375,-3.1875,14.375,0
79580,-5.375,-7.0625,13.875,0
79600,-4.8125,-7.1875,12.5,0
79620,-4.3125,-6.5625,10.4375,0
79640,-4.375,-9,11.5,0
79660,-7.375,-10.3125,11.8125,0
79680,-6.5,-9.375,12.125,0
79700,-0.125,-9.3125,13.0625,0
79720,-4.875,-10.625,12.5,0
79740,-9.4375,-8.25,11.4375,0
79760,-8.0625,-6.5625,13.25,0
79780,-5.1875,-7.75,15.1875,0
79800,-9.5625,-7.1875,15.0625,0
79820,-6.375,-4.1875,14.5625,0
79840,2.0625,-3.375,13,0
79860,-2.3125,-5.0625,13.1875,0
79880,-3.5625,-4.0625,13.75,0
79900,-2.4375,-1.75,12.125,0
79920,-2.6875,-1.875,10.9375,0
79940,-3.8125,-4,13.25,0
79960,-7,-5.25,13.5625,0
79980,-3.0625,-4.5,11.125,0
80000,-3,-5.1875,10.4375,0
80020,-7.9375,-8.0625,11.1875,0
80040,-10.25,-10.3125,11.1875,0
80060,-9,-10.9375,9.8125,0
80080,-2.5625,-12.25,8.375,0
80100,-7.5,-15.3125,9.4375,0
80120,-10.5,-16.125,9.3125,0
80140,-6.125,-16.1875,8.5,0
80160,-6.75,-17.0625,8,0
80180,-6.625,-20,8.4375,0
80200,-3.25,-21.625,5.625,0
80210,-2.6875,-23.875,4.4375,0
80230,-6.75,-24.875,3.125,0
80250,-5.75,-26.5625,3.0625,0
80270,-3.5625,-26.4375,2.375,0
80290,-4,-27,3.5,0
80310,-4.75,-26.25,2.75,0
80330,-4.125,-25.625,3.25,0
80350,-4.1875,-27.25,3.1875,0
80370,-1.6875,-27.5625,2.6875,0
80390,-2.8125,-25.5,2.8125,0
80410,1.75,-24.6875,3.6875,0
80430,1.875,-26.0625,4.5,0
80450,-0.625,-25.375,4.1875,0
80470,-0.875,-23.375,3,0
80490,-1.125,-22.875,2.4375,0
80510,-3.0625,-22.6875,1.5,0
80530,-2.5,-23.3125,2.0625,0
80550,1.25,-22.8125,2.5625,0
80570,3.75,-20.3125,0.25,0
80590,1.6875,-19.4375,1.4375,0
80610,-1.6875,-20,2,0
80630,-2.6875,-19.8125,1.6875,0
80650,-0.875,-18.9375,-0.1875,0
80670,-1.3125,-20.125,-1.3125,0
80690,-4.3125,-22.1875,-1.1875,0
80710,-2.9375,-21.375,-0.875,0
80730,1.3125,-21.5,-2,0
80750,0.4375,-22.25,-3.3125,0
80770,-1.5625,-24.25,-3.875,0
80790,0.5,-26,-5.8125,0
80810,1.75,-29.5,-7.875,0
80830,0.25,-30.375,-8.9375,0
80850,1.125,-30.625,-10,0
80870,0.0625,-32.3125,-11.5625,0
80890,-0.1875,-32.9375,-12.5625,0
80910,-0.8125,-32.0625,-12.75,0
80930,-1.375,-31.6875,-12.375,0
80950,-3.4375,-32,-10.75,0
80970,-1.1875,-31.8125,-10.1875,0
80990,0.25,-32.3125,-9.75,0
81010,1.4375,-33.75,-10.125,0
81030,1.5625,-33.6875,-12.3125,0
81050,-3.625,-30.8125,-12.8125,0
81070,-5.125,-30.375,-13.1875,0
81090,-4,-29.25,-14.875,0
81110,0.625,-27.375,-14.75,0
81130,0.75,-25.4375,-16.8125,0
81150,-1.25,-23,-18.875,0
81170,0.25,-21.6875,-16.1875,0
81190,-0.375,-20.125,-16.9375,0
81210,-4.4375,-17.5625,-15.6875,0
81230,-5.6875,-16.25,-12.1875,0
81250,-0.25,-15.1875,-13,0
81270,0.9375,-13.1875,-15.125,0
81290,-1.9375,-12.25,-14.4375,0
81310,-1.5,-10.125,-14.4375,0
81330,3.375,-8.125,-14.25,0
81350,6.75,-9.1875,-18,0
81370,7.9375,-8.625,-22.125,0
81390,5.75,-6.3125,-25,0
81410,6.1875,-7.125,-28,2001
81430,4.875,-7.125,-28.25,0
81450,6.0625,-5.875,-28.25,0
81470,7.375,-6.5625,-28.6875,0
81490,2.25,-3.9375,-27.1875,0
81510,-1.4375,-1.75,-22.1875,0
81530,2.125,-1,-22.4375,0
81550,3,-0.8125,-22,0
81570,2.0625,0.375,-20.0625,0
81590,0.75,2.0625,-15.1875,0
81610,2.9375,-1.75,-15.75,0
81630,4.375,-2.375,-16.25,0
81650,3.875,3.5,-15.375,0
81670,2.8125,3.9375,-14.0625,0
81690,0.9375,5.75,-12.6875,0
81710,-1.8125,11.25,-10.625,0
81730,-1.6875,18,-7.8125,0
81750,-2.8125,22.8125,-2.5,0
81770,-6.6875,28.5625,3.375,0
81790,-0.125,30.1875,6,0
81810,0.875,37.4375,9.1875,0
81830,3.875,44.4375,15.75,0
81850,4.875,47.3125,28,0
81870,13.1875,48.5625,32.1875,0
81890,12.25,57.375,34.0625,0
81910,14.9375,64.8125,43.375,0
81930,13.3125,61.9375,47.875,0
81950,16.5,64.4375,43.4375,0
81970,20.875,68.8125,45.8125,0
81990,21.1875,69.9375,48.0625,0
82010,33.9375,64.3125,42,0
82030,38.5625,63.9375,40.3125,0
82050,40.375,67.375,41.9375,0
82070,38.25,67.4375,43.0625,0
82090,41.0625,62.25,45.875,0
82110,45.5625,58.0625,46.5625,0
82130,50.625,60.8125,48.5625,0
82150,48.875,55.4375,54.9375,0
82170,41.5,49.25,59.5,0
82190,35.625,46.4375,58.25,0
82210,37.125,48,56.6875,0
82230,33.0625,46,51.375,0
82250,22.0625,36.9375,42.3125,0
82270,18.5,28.375,39.25,0
82290,14.5,22.5,37.0625,0
82310,14.125,23.3125,29.5625,0
82330,8.3125,18.8125,24.5625,0
82350,6.1875,12.625,24.4375,0
82370,7.75,9.875,21.75,0
82390,9.5,4.1875,21.5625,0
82410,14.3125,4.8125,16.6875,0
82430,14.875,-0.375,14.375,0
82450,14.0625,-3.375,15.875,0
82470,13.375,-1.8125,14.4375,0
82490,8,1.5,8.25,0
82510,8.3125,0.3125,8.5,0
82530,10.8125,0,10.25,0
82550,11.3125,1.1875,10.1875,0
82570,10.75,0.9375,7.1875,0
82590,7.4375,3,6.125,0
82610,9.4375,3.4375,7.4375,0
82630,10.3125,2.1875,8.125,0
82650,7.875,1.75,7.6875,0
82670,6.875,4.5,6.125,0
82690,4.375,6.75,5.1875,0
82710,2.9375,4.625,4.625,0
82730,3.5625,1.1875,6.9375,0
82750,6.5,0.1875,7.375,0
82770,8.5,-1,5.125,0
82790,9.125,-2.1875,4.8125,0
82810,4.9375,-4,7.4375,0
82830,3.625,-5.0625,8.9375,0
82850,9.875,-5.9375,11.3125,0
82870,4.4375,-6.3125,10.1875,0
82890,-2.125,-8.3125,10,0
82910,0.5,-9.6875,11.375,0
82930,2.4375,-8.1875,9.9375,0
82950,3.625,-8.6875,6.9375,0
82970,0.5625,-10.5,8.4375,0
82990,-0.8125,-9.875,10.0625,0
83010,0.25,-10.875,8.5625,0
83030,5.6875,-9.3125,4.6875,0
83050,0.5625,-11,3.5625,0
83070,0.9375,-12.9375,5.4375,0
83090,0.6875,-13.5,1.625,0
83110,1.1875,-14.625,0,0
83130,4.375,-16.5,-1.8125,0
83150,6.8125,-14.25,-4.4375,0
83170,5.0625,-14.1875,-4.1875,0
83190,3.5625,-15.75,-4.125,0
83210,3.0625,-15.625,-3.5625,0
83230,0.875,-19,-0.5625,0
83250,1,-21.125,2.4375,0
83270,2.875,-20.4375,2.3125,0
83290,3.9375,-22.4375,-0.75,0
83310,8.3125,-26.9375,1.625,0
83330,9.4375,-26.625,0.125,0
83350,9.8125,-28.3125,-2,0
83370,11.4375,-30.9375,-1.0625,0
83390,10.625,-30.3125,-0.9375,0
83410,8.375,-28.1875,-3.1875,0
83430,7.3125,-30,-2.625,0
83450,9.0625,-33.625,-2.3125,0
83470,9.5,-33.125,-1.875,0
83490,8.75,-29.3125,-3.125,0
83510,4.125,-28.8125,-6.1875,0
83530,2.125,-29.0625,-5.9375,0
83550,4.25,-26.625,-7.25,0
83570,3.125,-24.875,-9,0
83590,2.9375,-22.875,-10.625,0
83610,1.5,-20.4375,-12.75,0
83620,-0.625,-16.875,-13.75,0
83640,0.4375,-15.25,-15.625,0
83660,2,-12.625,-18.1875,0
83680,1.125,-9.5625,-21.75,0
83700,0,-3.9375,-23.9375,0
83720,-1.875,-2.0625,-20.625,0
83740,-9.375,-0.375,-19.5625,0
83760,-7.25,1.25,-22.25,0
83780,-7.875,1.125,-23.125,0
83800,-8.8125,1.9375,-22.625,0
83820,-8.125,2.3125,-18.5625,0
83840,-10.375,3.1875,-16.75,0
83860,-8.9375,5.4375,-16.75,0
83880,-8.875,6.625,-16.8125,0
83900,-7.9375,9.9375,-14,0
83920,-7.25,11.1875,-13.0625,0
83940,-4.1875,9.6875,-13.9375,0
83960,-0.5625,10.1875,-16.1875,0
83980,-0.8125,9.8125,-16.25,0
84000,-2.875,10.6875,-17,0
84020,-2.25,11.5625,-15.9375,0
84040,-3.375,12.9375,-12.0625,0
