Timestamp, Angle x, Angle y, Angle z, Marker
40,-0.612957,0.429578,-0.217215,0
60,-0.617739,0.433972,-0.216511,0
80,-0.622236,0.437951,-0.215483,0
100,-0.625282,0.44192,-0.214346,0
120,-0.628429,0.44588,-0.213645,0
130,-0.631853,0.449472,-0.214206,0
130,-0.634092,0.451642,-0.215675,0
180,-0.634737,0.452457,-0.218113,0
200,-0.634424,0.452305,-0.220467,0
220,-0.633586,0.451169,-0.222085,0
240,-0.634124,0.450253,-0.223743,0
260,-0.63506,0.449786,-0.225143,0
280,-0.636577,0.449228,-0.226792,0
300,-0.637884,0.448405,-0.22791,0
310,-0.637884,0.448405,-0.22791,0
330,-0.638537,0.449104,-0.226879,0
350,-0.638275,0.449555,-0.225512,0
370,-0.638032,0.449056,-0.224491,0
390,-0.63648,0.448993,-0.223139,0
410,-0.634731,0.448693,-0.222175,0
430,-0.632665,0.448125,-0.221693,0
450,-0.629709,0.447967,-0.221141,0
470,-0.626327,0.447651,-0.220924,0
490,-0.622697,0.447109,-0.220969,0
510,-0.62021,0.446833,-0.220764,0
530,-0.618467,0.446989,-0.220491,0
550,-0.616928,0.446608,-0.219818,0
570,-0.615028,0.446161,-0.218389,0
590,-0.614016,0.446056,-0.217562,0
610,-0.612909,0.445812,-0.217073,0
630,-0.611001,0.446077,-0.216524,0
650,-0.608526,0.446161,-0.216049,0
670,-0.60565,0.445919,-0.216278,0
690,-0.603651,0.444745,-0.216938,0
710,-0.601318,0.443712,-0.217686,0
730,-0.598765,0.442715,-0.218668,0
750,-0.596657,0.440872,-0.21987,0
770,-0.594559,0.438208,-0.220679,0
790,-0.592078,0.435758,-0.22133,0
810,-0.590133,0.433744,-0.221745,0
830,-0.588461,0.43185,-0.222144,0
850,-0.58674,0.430029,-0.222297,0
870,-0.585256,0.428266,-0.222264,0
890,-0.583681,0.427723,-0.222089,0
910,-0.582647,0.427414,-0.22187,0
930,-0.582016,0.427477,-0.221336,0
950,-0.581742,0.428364,-0.220118,0
970,-0.581183,0.428907,-0.219119,0
990,-0.580021,0.429183,-0.21839,0
1010,-0.579016,0.42891,-0.217659,0
1030,-0.578204,0.428154,-0.216577,0
1050,-0.577234,0.426924,-0.215545,0
1070,-0.575455,0.4252,-0.21586,0
1090,-0.571814,0.423131,-0.216784,0
1110,-0.567845,0.421146,-0.217925,0
1130,-0.563328,0.419767,-0.21899,0
1150,-0.5601,0.418662,-0.218257,0
1170,-0.556906,0.418733,-0.216717,0
1190,-0.555773,0.418049,-0.216892,0
1210,-0.554528,0.416712,-0.22072,0
1230,-0.55268,0.415644,-0.22617,0
1250,-0.548214,0.414833,-0.232355,0
1270,-0.541283,0.413098,-0.238706,0
1290,-0.53269,0.410429,-0.245287,0
1310,-0.524474,0.407141,-0.251275,0
1330,-0.519637,0.404093,-0.256082,0
1350,-0.515988,0.402542,-0.25877,0
1370,-0.513091,0.401297,-0.260564,0
1390,-0.50988,0.399202,-0.263334,0
1410,-0.506517,0.396863,-0.267291,0
1430,-0.502651,0.393762,-0.271952,0
1450,-0.49876,0.391944,-0.275561,0
1470,-0.493483,0.390483,-0.278949,0
1490,-0.488548,0.389709,-0.281581,0
1510,-0.48562,0.388884,-0.284666,0
1530,-0.48357,0.38662,-0.28936,0
1550,-0.481454,0.383852,-0.295317,0
1570,-0.479241,0.381464,-0.301232,0
1590,-0.476373,0.379767,-0.307571,0
1610,-0.472985,0.378962,-0.313135,0
1630,-0.469439,0.379002,-0.317861,0
1650,-0.466501,0.379072,-0.322347,0
1670,-0.464222,0.379458,-0.325526,0
1690,-0.462672,0.380454,-0.327362,0
1710,-0.461149,0.3815,-0.328188,0
1730,-0.460566,0.382354,-0.327638,0
1750,-0.461429,0.382343,-0.32642,0
1770,-0.462629,0.381919,-0.3253,0
1790,-0.464083,0.381476,-0.324746,0
1810,-0.465075,0.381503,-0.324595,0
1830,-0.465482,0.381731,-0.324493,0
1850,-0.465679,0.381975,-0.325118,0
1870,-0.465946,0.382105,-0.325599,0
1890,-0.466315,0.382619,-0.326722,0
1910,-0.465372,0.383673,-0.327814,0
1930,-0.4634,0.384421,-0.328585,0
1950,-0.461918,0.384782,-0.329622,0
1970,-0.461086,0.385362,-0.331639,0
1990,-0.459709,0.386006,-0.333932,0
2010,-0.458287,0.386324,-0.336384,0
2030,-0.456854,0.386823,-0.338623,0
2050,-0.455176,0.386901,-0.340694,0
2070,-0.45365,0.386416,-0.343424,0
2090,-0.449805,0.38576,-0.347367,0
2110,-0.443825,0.385459,-0.352318,0
2130,-0.437524,0.384646,-0.356934,0
2150,-0.432386,0.383396,-0.361972,0
2170,-0.428136,0.382489,-0.366664,0
2190,-0.4237,0.382477,-0.370253,0
2210,-0.419239,0.382428,-0.37267,0
2230,-0.415895,0.382925,-0.374332,0
2250,-0.412904,0.383455,-0.375307,0
2270,-0.410336,0.384002,-0.37587,0
2290,-0.408229,0.384373,-0.37637,0
2310,-0.407078,0.384943,-0.37637,0
2330,-0.406473,0.385936,-0.375569,0
2350,-0.406133,0.386005,-0.374606,0
2370,-0.406101,0.385505,-0.373839,0
2390,-0.406787,0.384906,-0.372957,0
2410,-0.40743,0.384842,-0.371934,0
2430,-0.408104,0.385042,-0.370216,0
2450,-0.409174,0.384648,-0.368574,0
2470,-0.410676,0.384132,-0.367257,0
2490,-0.412503,0.383803,-0.366059,0
2510,-0.41375,0.384044,-0.365124,0
2530,-0.414635,0.384109,-0.364965,0
2550,-0.415091,0.384368,-0.36449,0
2570,-0.414998,0.384511,-0.364504,0
2590,-0.414998,0.384511,-0.364504,0
2610,-0.41441,0.384586,-0.364644,0
2630,-0.414384,0.384608,-0.364514,0
2650,-0.414252,0.384625,-0.364487,0
2670,-0.414972,0.384533,-0.364374,0
2690,-0.415209,0.384294,-0.363984,0
2710,-0.415348,0.383933,-0.363802,0
2730,-0.415183,0.383483,-0.363525,0
2750,-0.414965,0.38276,-0.363296,0
2770,-0.415158,0.382131,-0.36306,0
2790,-0.415422,0.381871,-0.3628,0
2810,-0.415575,0.381657,-0.362529,0
2830,-0.415642,0.381312,-0.362072,0
2850,-0.41643,0.380491,-0.361799,0
2870,-0.41696,0.380513,-0.361286,0
2890,-0.417085,0.381246,-0.360593,0
2910,-0.417521,0.381727,-0.359787,0
2930,-0.417561,0.381852,-0.359828,0
2950,-0.417354,0.382333,-0.360153,0
2970,-0.416837,0.382683,-0.360891,0
2990,-0.416096,0.382653,-0.36161,0
3010,-0.415118,0.382637,-0.362404,0
3020,-0.41346,0.382323,-0.362718,0
3040,-0.412524,0.381152,-0.362599,0
3060,-0.412434,0.380462,-0.362286,0
3080,-0.412324,0.380058,-0.361649,0
3100,-0.412914,0.379467,-0.360873,0
3120,-0.413604,0.378908,-0.360509,0
3140,-0.414227,0.37847,-0.360289,0
3160,-0.41417,0.378024,-0.359911,0
3180,-0.414983,0.377791,-0.359782,0
3200,-0.415373,0.377856,-0.359757,0
3220,-0.415505,0.377839,-0.359783,0
3240,-0.415198,0.378513,-0.360009,0
3260,-0.414497,0.3787,-0.360148,0
3280,-0.413976,0.378337,-0.360454,0
3300,-0.413401,0.378241,-0.360815,0
3320,-0.412161,0.37806,-0.360616,0
3340,-0.411019,0.378541,-0.360214,0
3360,-0.410326,0.379016,-0.35953,0
3380,-0.410326,0.379016,-0.35953,0
3400,-0.409835,0.379437,-0.359776,0
3420,-0.408797,0.379832,-0.359891,0
3440,-0.407643,0.379852,-0.359886,0
3460,-0.406415,0.380043,-0.359911,0
3480,-0.404982,0.379462,-0.359826,0
3500,-0.40415,0.378571,-0.359813,0
3520,-0.403362,0.378069,-0.359644,0
3540,-0.402074,0.377931,-0.359189,0
3560,-0.401353,0.37762,-0.358569,0
3580,-0.402113,0.377427,-0.358179,0
3600,-0.403252,0.378291,-0.35839,0
3620,-0.403057,0.37892,-0.358622,0
3640,-0.402264,0.379253,-0.358774,0
3660,-0.401302,0.380213,-0.358659,0
3680,-0.398296,0.380776,-0.357851,0
3700,-0.395726,0.38038,-0.357047,0
3720,-0.392781,0.379556,-0.356699,0
3740,-0.389533,0.378381,-0.356462,0
3760,-0.386144,0.377882,-0.356094,0
3780,-0.385109,0.378363,-0.355586,0
3800,-0.386039,0.380253,-0.355076,0
3820,-0.388929,0.383409,-0.354666,0
3840,-0.392286,0.386835,-0.35546,0
3860,-0.395347,0.390432,-0.357007,0
3880,-0.398186,0.393815,-0.358334,0
3900,-0.401714,0.396943,-0.360036,0
3920,-0.402219,0.399369,-0.361506,0
3940,-0.400211,0.399762,-0.362404,0
3960,-0.398122,0.399068,-0.362897,0
3980,-0.395202,0.398836,-0.36215,0
4000,-0.390636,0.396145,-0.361081,0
4020,-0.386153,0.393019,-0.360202,0
4040,-0.38082,0.390406,-0.359521,0
4060,-0.376795,0.38816,-0.358599,0
4080,-0.373883,0.385878,-0.357547,0
4100,-0.372696,0.383576,-0.356764,0
4120,-0.372127,0.381861,-0.355873,0
4140,-0.372672,0.381172,-0.354954,0
4160,-0.374361,0.38076,-0.354348,0
4180,-0.376301,0.379484,-0.353985,0
4200,-0.378404,0.378548,-0.353995,0
4220,-0.379237,0.379011,-0.354414,0
4240,-0.379698,0.379818,-0.35457,0
4260,-0.379861,0.380454,-0.355259,0
4280,-0.380455,0.381162,-0.356067,0
4300,-0.38041,0.382286,-0.357074,0
4320,-0.378122,0.383434,-0.35771,0
4340,-0.375169,0.383506,-0.357569,0
4360,-0.372938,0.382034,-0.356477,0
4380,-0.372471,0.38063,-0.355167,0
4400,-0.372995,0.379238,-0.353702,0
4420,-0.374727,0.378813,-0.351571,0
4440,-0.377743,0.378525,-0.350517,0
4460,-0.382304,0.378187,-0.351214,0
4480,-0.384059,0.378696,-0.35287,0
4500,-0.384682,0.379154,-0.353498,0
4520,-0.385265,0.379798,-0.353775,0
4540,-0.385795,0.380399,-0.354416,0
4560,-0.385691,0.380806,-0.355254,0
4580,-0.385024,0.381158,-0.355947,0
4600,-0.384337,0.380922,-0.356507,0
4620,-0.383853,0.380808,-0.356752,0
4640,-0.383732,0.380398,-0.357147,0
4660,-0.384245,0.379676,-0.357864,0
4680,-0.385292,0.379339,-0.358281,0
4700,-0.38571,0.379563,-0.358806,0
4720,-0.385581,0.379189,-0.359717,0
4740,-0.384773,0.378613,-0.360678,0
4760,-0.383079,0.378042,-0.361064,0
4780,-0.381562,0.377611,-0.361006,0
4800,-0.380425,0.377291,-0.360806,0
4820,-0.380425,0.377291,-0.360806,0
4840,-0.38072,0.377198,-0.360473,0
4860,-0.380971,0.377098,-0.359994,0
4880,-0.381379,0.376959,-0.35967,0
4900,-0.382171,0.377113,-0.359628,0
4920,-0.38261,0.377217,-0.359234,0
4940,-0.384403,0.377038,-0.358833,0
4960,-0.385994,0.377218,-0.359486,0
4980,-0.386579,0.377057,-0.359965,0
4990,-0.386488,0.37689,-0.36029,0
5010,-0.385966,0.376651,-0.360498,0
5030,-0.385113,0.376503,-0.36079,0
5050,-0.385113,0.376503,-0.36079,0
5070,-0.385075,0.376378,-0.360752,0
5090,-0.384894,0.376927,-0.360576,0
5110,-0.384786,0.377155,-0.360991,0
5130,-0.384694,0.377708,-0.361738,0
5150,-0.38458,0.378855,-0.361842,0
5170,-0.38429,0.379726,-0.360828,0
5190,-0.38429,0.379726,-0.360828,0
5210,-0.383407,0.379405,-0.361194,0
5230,-0.382361,0.379159,-0.36192,0
5250,-0.382235,0.379278,-0.362942,0
5270,-0.381473,0.379518,-0.36385,0
5290,-0.380895,0.38,-0.36536,0
5310,-0.378844,0.381178,-0.366442,0
5330,-0.376117,0.381632,-0.366947,0
5350,-0.37408,0.381474,-0.366577,0
5370,-0.371554,0.380799,-0.365092,0
5390,-0.370371,0.379032,-0.36328,0
5410,-0.370411,0.378209,-0.361961,0
5430,-0.370351,0.377155,-0.360437,0
5450,-0.370132,0.375878,-0.358961,0
5470,-0.3687,0.374454,-0.356792,0
5490,-0.36665,0.372229,-0.354837,0
5510,-0.365106,0.369453,-0.353387,0
5530,-0.363807,0.367029,-0.352706,0
5550,-0.36284,0.365312,-0.352256,0
5570,-0.362114,0.364023,-0.351946,0
5590,-0.361754,0.363382,-0.351478,0
5610,-0.361415,0.363027,-0.350823,0
5630,-0.361359,0.362429,-0.350555,0
5650,-0.361722,0.362205,-0.350707,0
5670,-0.361337,0.362327,-0.351162,0
5690,-0.362182,0.362027,-0.350642,0
5710,-0.362837,0.361136,-0.351609,0
5730,-0.363191,0.359335,-0.352061,0
5750,-0.364133,0.357523,-0.352891,0
5770,-0.366677,0.356884,-0.354697,0
5790,-0.369377,0.356957,-0.356557,0
5810,-0.372883,0.357204,-0.358382,0
5830,-0.376902,0.357428,-0.35967,0
5850,-0.380476,0.357918,-0.359781,0
5870,-0.384369,0.359215,-0.359377,0
5890,-0.388005,0.360372,-0.35851,0
5910,-0.390892,0.361148,-0.356891,0
5930,-0.393503,0.361449,-0.355098,0
5950,-0.395682,0.361243,-0.35297,0
5970,-0.397951,0.360709,-0.351035,0
5990,-0.401837,0.359993,-0.349028,0
6010,-0.406179,0.359285,-0.346738,0
6030,-0.410024,0.358584,-0.34395,0
6050,-0.412529,0.357923,-0.341394,0
6070,-0.414732,0.357453,-0.339587,0
6090,-0.416229,0.356799,-0.337705,0
6110,-0.416869,0.356243,-0.335281,0
6130,-0.416923,0.354896,-0.332032,0
6150,-0.417708,0.352526,-0.329587,0
6170,-0.421325,0.349392,-0.328573,0
6190,-0.428997,0.345704,-0.327883,0
6210,-0.440119,0.339157,-0.326913,0
6230,-0.459266,0.334672,-0.327419,0
6250,-0.489308,0.329999,-0.330961,0
6270,-0.528706,0.322729,-0.337812,0
6290,-0.576305,0.309805,-0.344958,0
6310,-0.61553,0.290615,-0.349449,0
6330,-0.644817,0.265237,-0.354987,0
6350,-0.663557,0.239299,-0.36135,0
6370,-0.675155,0.211851,-0.367921,0
6390,-0.690637,0.181144,-0.373666,0
6410,-0.714359,0.147087,-0.379102,0
6430,-0.742236,0.112306,-0.383911,0
6450,-0.772948,0.0770063,-0.386366,0
6470,-0.805644,0.0416339,-0.385851,0
6490,-0.836447,0.0058873,-0.383087,0
6510,-0.863244,-0.029943,-0.378365,0
6530,-0.890551,-0.0661407,-0.373216,0
6550,-0.918705,-0.102298,-0.369875,0
6570,-0.946184,-0.138321,-0.367559,0
6590,-0.972643,-0.17384,-0.364511,0
6610,-0.998555,-0.208742,-0.360411,0
6630,-1.01999,-0.242963,-0.357127,0
6650,-1.0398,-0.276779,-0.353858,0
6670,-1.05858,-0.30971,-0.35114,0
6690,-1.07574,-0.341274,-0.34898,0
6710,-1.09196,-0.370243,-0.347689,0
6730,-1.10743,-0.397266,-0.346662,0
6750,-1.12165,-0.423045,-0.345503,0
6770,-1.13403,-0.447211,-0.344151,0
6790,-1.14641,-0.46912,-0.341331,0
6810,-1.15776,-0.489943,-0.338461,0
6830,-1.16838,-0.509445,-0.33581,0
6850,-1.1788,-0.527663,-0.332046,0
6870,-1.189,-0.544529,-0.327972,0
6890,-1.20018,-0.560187,-0.324593,0
6910,-1.21166,-0.57429,-0.322348,0
6930,-1.22211,-0.585108,-0.320553,0
6950,-1.23288,-0.594153,-0.318399,0
6970,-1.2423,-0.600687,-0.31672,0
6990,-1.25016,-0.605897,-0.317357,0
7010,-1.25827,-0.609631,-0.317875,0
7030,-1.26514,-0.611291,-0.318286,0
7050,-1.27369,-0.611872,-0.317664,0
7070,-1.28581,-0.611133,-0.316364,0
7090,-1.29822,-0.609097,-0.316684,0
7110,-1.3084,-0.608527,-0.318966,0
7130,-1.31858,-0.608701,-0.321739,0
7150,-1.32944,-0.608497,-0.323865,0
7170,-1.34134,-0.609642,-0.327152,0
7190,-1.3534,-0.61057,-0.333259,0
7210,-1.36524,-0.610322,-0.340896,0
7230,-1.37836,-0.607175,-0.34948,0
7250,-1.38924,-0.602075,-0.360944,0
7270,-1.40004,-0.593174,-0.371506,0
7290,-1.41698,-0.580442,-0.379236,0
7310,-1.43523,-0.562788,-0.389657,0
7330,-1.44311,-0.542633,-0.407641,0
7350,-1.44842,-0.520945,-0.428141,0
7370,-1.45823,-0.498169,-0.447652,0
7390,-1.47296,-0.475676,-0.469956,0
7410,-1.49135,-0.452117,-0.494209,0
7430,-1.51641,-0.428312,-0.51771,0
7450,-1.54467,-0.404826,-0.540125,0
7470,-1.57532,-0.383308,-0.560658,0
7490,-1.60664,-0.366525,-0.577333,0
7510,-1.63596,-0.350995,-0.588561,0
7530,-1.65706,-0.339,-0.594756,0
7550,-1.66933,-0.329819,-0.595304,0
7570,-1.67696,-0.324366,-0.591765,0
7590,-1.67892,-0.321669,-0.587184,0
7610,-1.67955,-0.321013,-0.582294,0
7630,-1.67978,-0.322065,-0.578718,0
7650,-1.67575,-0.322685,-0.577087,0
7670,-1.66883,-0.323236,-0.576275,0
7690,-1.66299,-0.323671,-0.575607,0
7710,-1.65821,-0.323146,-0.575559,0
7730,-1.65601,-0.322243,-0.574975,0
7750,-1.65638,-0.320681,-0.573762,0
7770,-1.65704,-0.31896,-0.571524,0
7790,-1.65699,-0.31782,-0.569151,0
7810,-1.65703,-0.317139,-0.566495,0
7830,-1.65941,-0.315891,-0.56306,0
7850,-1.66291,-0.314644,-0.558988,0
7870,-1.6666,-0.31371,-0.553781,0
7890,-1.67146,-0.312889,-0.548448,0
7910,-1.67711,-0.311408,-0.542565,0
7930,-1.68233,-0.309539,-0.53601,0
7950,-1.68559,-0.308122,-0.528833,0
7970,-1.68805,-0.306442,-0.52143,0
7990,-1.69175,-0.305747,-0.513513,0
8010,-1.69473,-0.305061,-0.505841,0
8030,-1.69829,-0.304767,-0.498232,0
8050,-1.70168,-0.304404,-0.490435,0
8070,-1.70404,-0.30409,-0.482442,0
8090,-1.70546,-0.303348,-0.4744,0
8110,-1.70847,-0.302671,-0.46588,0
8130,-1.71249,-0.301932,-0.457142,0
8150,-1.71615,-0.301001,-0.448592,0
8170,-1.71907,-0.30054,-0.440387,0
8190,-1.72127,-0.299961,-0.432858,0
8210,-1.72434,-0.298952,-0.425288,0
8230,-1.72804,-0.298169,-0.41793,0
8250,-1.73202,-0.297566,-0.410958,0
8270,-1.73546,-0.296973,-0.404509,0
8290,-1.73856,-0.296725,-0.398843,0
8310,-1.74137,-0.29661,-0.394184,0
8330,-1.74368,-0.296768,-0.390548,0
8350,-1.74523,-0.297643,-0.387598,0
8370,-1.74423,-0.298912,-0.3858,0
8390,-1.74136,-0.300329,-0.385458,0
8400,-1.73912,-0.30175,-0.385596,0
8420,-1.73774,-0.30306,-0.386351,0
8440,-1.73582,-0.304312,-0.387498,0
8460,-1.73449,-0.30555,-0.389178,0
8480,-1.73306,-0.306305,-0.391367,0
8500,-1.73126,-0.306861,-0.394199,0
8520,-1.72845,-0.307162,-0.396606,0
8540,-1.72742,-0.307466,-0.399001,0
8560,-1.72742,-0.307266,-0.401252,0
8580,-1.72785,-0.306742,-0.403713,0
8600,-1.72848,-0.306348,-0.406277,0
8620,-1.72929,-0.306126,-0.408194,0
8640,-1.72987,-0.306007,-0.410003,0
8660,-1.72916,-0.305997,-0.411395,0
8680,-1.72862,-0.306419,-0.412265,0
8700,-1.72772,-0.306874,-0.413218,0
8720,-1.72736,-0.307701,-0.414261,0
8740,-1.72743,-0.308447,-0.4152,0
8760,-1.72807,-0.308722,-0.415525,0
8780,-1.72926,-0.308983,-0.415554,0
8800,-1.73005,-0.309502,-0.41541,0
8820,-1.73186,-0.309894,-0.415314,0
8840,-1.73527,-0.310343,-0.414884,0
8860,-1.73911,-0.31064,-0.414696,0
8880,-1.7427,-0.311296,-0.414276,0
8900,-1.74591,-0.311776,-0.413805,0
8920,-1.74854,-0.312042,-0.413305,0
8940,-1.75092,-0.312581,-0.412694,0
8960,-1.7519,-0.313669,-0.412494,0
8980,-1.75268,-0.314439,-0.41225,0
9000,-1.75391,-0.31487,-0.412029,0
9020,-1.75545,-0.315389,-0.411372,0
9040,-1.75621,-0.315813,-0.410488,0
9060,-1.75654,-0.31662,-0.409962,0
9080,-1.75707,-0.31699,-0.409159,0
9100,-1.75784,-0.317336,-0.40837,0
9120,-1.75795,-0.317621,-0.40764,0
9140,-1.75803,-0.317734,-0.406272,0
9160,-1.75852,-0.317673,-0.404956,0
9180,-1.75887,-0.317435,-0.403797,0
9200,-1.75896,-0.317237,-0.402842,0
9220,-1.75907,-0.317045,-0.401859,0
9240,-1.75879,-0.316777,-0.400921,0
9260,-1.75772,-0.316455,-0.400169,0
9280,-1.75662,-0.315946,-0.399476,0
9300,-1.75574,-0.315309,-0.398732,0
9320,-1.75324,-0.314963,-0.3981,0
9340,-1.74814,-0.314145,-0.398258,0
9360,-1.73932,-0.312877,-0.399857,0
9380,-1.72531,-0.312266,-0.403835,0
9400,-1.70469,-0.311784,-0.408672,0
9420,-1.67693,-0.310866,-0.411823,0
9440,-1.648,-0.308746,-0.410826,0
9460,-1.62092,-0.30419,-0.405444,0
9480,-1.58823,-0.30029,-0.397581,0
9500,-1.54924,-0.302625,-0.385716,0
9520,-1.51478,-0.307813,-0.370684,0
9540,-1.48308,-0.314824,-0.355445,0
9560,-1.44861,-0.320453,-0.34042,0
9580,-1.42077,-0.32737,-0.323673,0
9600,-1.38933,-0.337635,-0.308557,0
9620,-1.3536,-0.349647,-0.295639,0
9640,-1.31702,-0.360591,-0.279299,0
9660,-1.28591,-0.374476,-0.264262,0
9680,-1.25396,-0.387814,-0.252216,0
9700,-1.22039,-0.400807,-0.239415,0
9720,-1.18887,-0.416468,-0.226413,0
9740,-1.15614,-0.432463,-0.217632,0
9760,-1.12668,-0.448788,-0.210089,0
9780,-1.10002,-0.465761,-0.201737,0
9800,-1.07947,-0.483642,-0.192158,0
9820,-1.05998,-0.499044,-0.185615,0
9840,-1.04323,-0.511767,-0.178517,0
9860,-1.03131,-0.525038,-0.169321,0
9880,-1.02018,-0.537949,-0.162561,0
9900,-1.00888,-0.547902,-0.158676,0
9920,-1.00117,-0.555447,-0.153599,0
9940,-0.996412,-0.562649,-0.148445,0
9960,-0.992865,-0.570044,-0.144132,0
9980,-0.990379,-0.57729,-0.140383,0
10000,-0.990339,-0.582122,-0.136688,0
10020,-0.9904,-0.586369,-0.132935,0
10040,-0.992103,-0.590011,-0.129719,0
10060,-0.994422,-0.592633,-0.127539,0
10080,-0.995432,-0.593463,-0.12681,0
10100,-0.994123,-0.593139,-0.128827,0
10120,-0.991757,-0.591538,-0.132094,0
10140,-0.987999,-0.588122,-0.137084,0
10160,-0.982628,-0.583912,-0.143649,0
10180,-0.976915,-0.57882,-0.150853,0
10200,-0.971011,-0.572311,-0.159216,0
10220,-0.963285,-0.565872,-0.166659,0
10240,-0.954855,-0.559487,-0.17427,0
10260,-0.94753,-0.553997,-0.182297,0
10280,-0.942538,-0.547659,-0.18906,0
10300,-0.937792,-0.542578,-0.194094,0
10320,-0.932116,-0.537771,-0.20034,0
10340,-0.928794,-0.533146,-0.205891,0
10360,-0.928558,-0.52912,-0.211455,0
10370,-0.930076,-0.524402,-0.218627,0
10390,-0.930538,-0.518696,-0.227319,0
10410,-0.930747,-0.50922,-0.237985,0
10430,-0.931012,-0.494717,-0.253111,0
10450,-0.930923,-0.478423,-0.269694,0
10470,-0.932305,-0.463198,-0.28197,0
10490,-0.929227,-0.449914,-0.292366,0
10510,-0.922172,-0.438838,-0.30257,0
10530,-0.915853,-0.429655,-0.311558,0
10550,-0.912993,-0.421737,-0.31966,0
10570,-0.911679,-0.414741,-0.326084,0
10590,-0.909164,-0.408402,-0.33091,0
10610,-0.904628,-0.403546,-0.334279,0
10630,-0.899258,-0.399888,-0.337197,0
10650,-0.894989,-0.396562,-0.339395,0
10670,-0.892974,-0.392679,-0.340654,0
10690,-0.891869,-0.388874,-0.340513,0
10710,-0.890252,-0.385212,-0.340112,0
10730,-0.888285,-0.381932,-0.339516,0
10750,-0.887417,-0.378722,-0.338224,0
10770,-0.888093,-0.375547,-0.337026,0
10790,-0.888499,-0.372887,-0.335352,0
10810,-0.888314,-0.370684,-0.333223,0
10830,-0.888122,-0.36888,-0.331083,0
10850,-0.887915,-0.367306,-0.329149,0
10870,-0.888653,-0.366102,-0.326905,0
10890,-0.890471,-0.365126,-0.324059,0
10910,-0.89156,-0.363632,-0.321345,0
10930,-0.892358,-0.362488,-0.318669,0
10950,-0.892978,-0.362054,-0.316145,0
10970,-0.894404,-0.361121,-0.313855,0
10990,-0.896277,-0.360257,-0.311508,0
11010,-0.897702,-0.359319,-0.309226,0
11030,-0.89872,-0.359055,-0.306869,0
11050,-0.899708,-0.359115,-0.304343,0
11070,-0.900325,-0.359224,-0.302062,0
11090,-0.901595,-0.359667,-0.299638,0
11110,-0.903644,-0.360041,-0.297233,0
11130,-0.906002,-0.360471,-0.295099,0
11150,-0.907633,-0.360333,-0.292977,0
11170,-0.908854,-0.360533,-0.29092,0
11190,-0.910207,-0.360575,-0.288752,0
11210,-0.912116,-0.360872,-0.286853,0
11230,-0.913545,-0.360484,-0.285437,0
11250,-0.913921,-0.360178,-0.283877,0
11270,-0.913984,-0.359873,-0.28217,0
11290,-0.913903,-0.359992,-0.280278,0
11310,-0.913134,-0.360074,-0.278352,0
11330,-0.911756,-0.359747,-0.27697,0
11350,-0.910761,-0.359425,-0.275968,0
11370,-0.910084,-0.35908,-0.274499,0
11390,-0.908404,-0.35901,-0.273486,0
11410,-0.905408,-0.358082,-0.272688,0
11430,-0.901441,-0.356082,-0.27237,0
11450,-0.89722,-0.353286,-0.27278,0
11470,-0.891244,-0.349744,-0.273815,0
11490,-0.883439,-0.34399,-0.273653,0
11510,-0.871452,-0.335011,-0.271732,0
11530,-0.856038,-0.322951,-0.269231,0
11550,-0.839463,-0.307279,-0.269656,0
11570,-0.823768,-0.287159,-0.275362,0
11590,-0.811471,-0.259802,-0.284571,0
11610,-0.802186,-0.225272,-0.294341,0
11630,-0.796806,-0.187084,-0.304636,0
11650,-0.790661,-0.145949,-0.314906,0
11670,-0.78335,-0.102413,-0.3264,0
11690,-0.776468,-0.0573617,-0.336663,0
11710,-0.77196,-0.0113564,-0.343418,0
11730,-0.768034,0.0342348,-0.347466,0
11750,-0.762236,0.0779535,-0.352793,0
11770,-0.752429,0.119095,-0.358301,0
11790,-0.742305,0.158338,-0.363378,0
11810,-0.734609,0.195931,-0.367793,0
11830,-0.730045,0.231919,-0.374491,0
11850,-0.729178,0.266394,-0.3846,0
11870,-0.729827,0.298752,-0.394668,0
11890,-0.728991,0.328739,-0.404066,0
11910,-0.730212,0.358141,-0.413011,0
11930,-0.71032,0.366796,-0.411151,0
11950,-0.696938,0.355046,-0.418208,0
11970,-0.690816,0.345063,-0.424842,0
11990,-0.687921,0.344239,-0.429117,0
12010,-0.697635,0.344232,-0.430737,0
12030,-0.708221,0.347472,-0.428425,0
12050,-0.71454,0.354588,-0.425571,0
12070,-0.717992,0.365538,-0.423445,0
12090,-0.715352,0.38037,-0.418522,0
12110,-0.708944,0.394248,-0.413087,0
12130,-0.707683,0.402491,-0.410342,0
12150,-0.710723,0.405189,-0.412278,0
12170,-0.713844,0.404579,-0.416914,0
12190,-0.715169,0.401912,-0.421939,0
12210,-0.712852,0.400277,-0.424904,0
12230,-0.710111,0.401628,-0.426164,0
12250,-0.707556,0.405471,-0.426482,0
12270,-0.70669,0.408695,-0.426746,0
12290,-0.707331,0.409745,-0.426557,0
12310,-0.709838,0.409135,-0.427012,0
12330,-0.714032,0.407684,-0.428679,0
12350,-0.717153,0.406088,-0.430912,0
12370,-0.720308,0.404556,-0.432785,0
12390,-0.722947,0.403596,-0.435005,0
12410,-0.724436,0.40379,-0.438197,0
12430,-0.724452,0.404516,-0.442662,0
12450,-0.722512,0.404714,-0.447428,0
12470,-0.718563,0.404233,-0.452403,0
12490,-0.713678,0.403141,-0.457129,0
12510,-0.707545,0.402498,-0.461682,0
12530,-0.701058,0.402892,-0.467626,0
12550,-0.693174,0.404576,-0.474755,0
12570,-0.683546,0.406209,-0.481878,0
12590,-0.672623,0.407335,-0.48867,0
12610,-0.661708,0.407128,-0.495998,0
12630,-0.649934,0.405596,-0.503633,0
12650,-0.636872,0.404282,-0.509792,0
12670,-0.62633,0.40341,-0.514449,0
12690,-0.618509,0.402393,-0.518504,0
12710,-0.614297,0.401491,-0.522033,0
12730,-0.612651,0.401981,-0.526,0
12750,-0.612103,0.402402,-0.530123,0
12770,-0.611181,0.40225,-0.534063,0
12790,-0.609578,0.403198,-0.539008,0
12810,-0.606517,0.40532,-0.543963,0
12830,-0.603645,0.40741,-0.54909,0
12850,-0.602803,0.408753,-0.554264,0
12870,-0.603763,0.41094,-0.560007,0
12890,-0.603895,0.4134,-0.567083,0
12910,-0.602452,0.415396,-0.574733,0
12930,-0.599851,0.416984,-0.582961,0
12950,-0.596634,0.418731,-0.592002,0
12970,-0.593761,0.421661,-0.601576,0
12990,-0.590113,0.425109,-0.611376,0
13010,-0.587055,0.428546,-0.620814,0
13030,-0.585018,0.43209,-0.629398,0
13050,-0.583564,0.435493,-0.636908,0
13070,-0.581724,0.438639,-0.642994,0
13090,-0.579679,0.441536,-0.648255,0
13110,-0.578393,0.444146,-0.653246,0
13120,-0.576422,0.446576,-0.657551,0
13140,-0.574483,0.44851,-0.661273,0
13160,-0.572905,0.450519,-0.664328,0
13180,-0.571767,0.452137,-0.666309,0
13200,-0.570742,0.453237,-0.667188,0
13220,-0.569231,0.45324,-0.667102,0
13240,-0.567593,0.453276,-0.666586,0
13260,-0.566041,0.453025,-0.665857,0
13280,-0.565366,0.452977,-0.665084,0
13300,-0.566074,0.45279,-0.664162,0
13320,-0.567367,0.452901,-0.662596,0
13340,-0.569367,0.452415,-0.661045,0
13360,-0.571516,0.45201,-0.659434,0
13380,-0.573719,0.451521,-0.657676,0
13400,-0.575555,0.450832,-0.655857,0
13420,-0.577337,0.449787,-0.653892,0
13440,-0.5784,0.448197,-0.652032,0
13460,-0.578992,0.446578,-0.650418,0
13480,-0.57923,0.445133,-0.649159,0
13500,-0.57876,0.443865,-0.648409,0
13520,-0.57774,0.442955,-0.648021,0
13540,-0.576845,0.441736,-0.64756,0
13560,-0.576346,0.440421,-0.647195,0
13580,-0.576113,0.439491,-0.647186,0
13600,-0.576182,0.438748,-0.647481,0
13620,-0.575515,0.437592,-0.647655,0
13640,-0.573245,0.436255,-0.64767,0
13660,-0.569708,0.435145,-0.647644,0
13680,-0.566281,0.433794,-0.647838,0
13700,-0.563257,0.432523,-0.647925,0
13720,-0.561232,0.431052,-0.647581,0
13740,-0.559907,0.429912,-0.646907,0
13760,-0.559199,0.428708,-0.646125,0
13780,-0.559032,0.42776,-0.645469,0
13790,-0.559057,0.427139,-0.644591,0
13810,-0.559479,0.427219,-0.643675,0
13830,-0.560342,0.427462,-0.64268,0
13850,-0.561443,0.428219,-0.641813,0
13870,-0.562327,0.429128,-0.640926,0
13890,-0.562901,0.429843,-0.640148,0
13910,-0.563079,0.430583,-0.639795,0
13930,-0.562983,0.430764,-0.639694,0
13950,-0.56292,0.430918,-0.63973,0
13970,-0.561855,0.43089,-0.639792,0
13990,-0.560384,0.430951,-0.640168,0
14010,-0.559348,0.430725,-0.640574,0
14030,-0.558302,0.43046,-0.640563,0
14050,-0.558066,0.430049,-0.640746,0
14070,-0.558306,0.43005,-0.641088,0
14090,-0.559002,0.4298,-0.641486,0
14110,-0.55941,0.429403,-0.642005,0
14130,-0.558828,0.428651,-0.642367,0
14150,-0.557102,0.427642,-0.642827,0
14170,-0.554776,0.426533,-0.643204,0
14190,-0.553163,0.425458,-0.643675,0
14210,-0.552639,0.42421,-0.644425,0
14230,-0.552699,0.423199,-0.645027,0
14250,-0.552692,0.422854,-0.645444,0
14270,-0.552231,0.422658,-0.645499,0
14290,-0.552049,0.42284,-0.645112,0
14310,-0.551882,0.423029,-0.644318,0
14330,-0.552275,0.423407,-0.643362,0
14350,-0.552501,0.423774,-0.642757,0
14370,-0.55324,0.424189,-0.642455,0
14390,-0.553145,0.424369,-0.642354,0
14410,-0.552482,0.424594,-0.642095,0
14430,-0.551381,0.424658,-0.641917,0
14450,-0.550274,0.424274,-0.641849,0
14470,-0.549275,0.423924,-0.642093,0
14490,-0.548505,0.42364,-0.642569,0
14510,-0.547529,0.423329,-0.642841,0
14530,-0.546726,0.422794,-0.643082,0
14550,-0.545894,0.422561,-0.643286,0
14570,-0.544726,0.422333,-0.643257,0
14590,-0.544726,0.422333,-0.643257,0
14610,-0.545088,0.422432,-0.642999,0
14630,-0.545885,0.422518,-0.642867,0
14650,-0.546488,0.422791,-0.642741,0
14670,-0.546828,0.422958,-0.642765,0
14690,-0.547393,0.422913,-0.642921,0
14710,-0.547794,0.422753,-0.64312,0
14730,-0.548293,0.422586,-0.643212,0
14750,-0.548958,0.422533,-0.643261,0
14770,-0.549928,0.4225,-0.643407,0
14790,-0.55103,0.422711,-0.643683,0
14810,-0.551097,0.422833,-0.643747,0
14830,-0.551097,0.422833,-0.643747,0
14850,-0.551132,0.42298,-0.643675,0
14870,-0.551132,0.42298,-0.643675,0
14890,-0.550963,0.422693,-0.643926,0
14910,-0.550963,0.422693,-0.643926,0
14930,-0.550963,0.422693,-0.643926,0
14950,-0.550963,0.422693,-0.643926,0
14970,-0.550963,0.422693,-0.643926,0
14990,-0.550833,0.422725,-0.643897,0
15010,-0.551098,0.422729,-0.643439,0
15030,-0.551349,0.422622,-0.643079,0
15050,-0.551634,0.422386,-0.642548,0
15070,-0.552596,0.422312,-0.642277,0
15090,-0.553959,0.422079,-0.642205,0
15110,-0.554462,0.422085,-0.642089,0
15130,-0.554332,0.422118,-0.642059,0
15150,-0.554354,0.422155,-0.642085,0
15170,-0.554225,0.422084,-0.641748,0
15190,-0.554721,0.422429,-0.641621,0
15210,-0.555591,0.422813,-0.641349,0
15220,-0.556732,0.42307,-0.641247,0
15240,-0.557437,0.423339,-0.641019,0
15260,-0.55741,0.423538,-0.640675,0
15280,-0.557378,0.423564,-0.640538,0
15300,-0.557378,0.423564,-0.640538,0
15320,-0.557378,0.423564,-0.640538,0
15340,-0.557378,0.423564,-0.640538,0
15360,-0.557378,0.423564,-0.640538,0
15380,-0.557378,0.423564,-0.640538,0
15400,-0.557378,0.423564,-0.640538,0
15420,-0.55741,0.423538,-0.640675,0
15440,-0.558511,0.423885,-0.640328,0
15460,-0.561116,0.424421,-0.639838,0
15480,-0.565074,0.424972,-0.63936,0
15500,-0.569317,0.425852,-0.638957,0
15520,-0.572648,0.426436,-0.638578,0
15540,-0.57482,0.427172,-0.638164,0
15560,-0.576531,0.428499,-0.637692,0
15580,-0.578175,0.429806,-0.637465,0
15600,-0.578941,0.430719,-0.637496,0
15620,-0.578923,0.431057,-0.637882,0
15640,-0.57802,0.430724,-0.638419,0
15660,-0.576818,0.429783,-0.639187,0
15680,-0.575096,0.428731,-0.640153,0
15700,-0.573625,0.427507,-0.641277,0
15720,-0.572165,0.426121,-0.642207,0
15740,-0.57174,0.424893,-0.64325,0
15750,-0.57146,0.424158,-0.643706,0
15770,-0.571424,0.42401,-0.643776,0
15790,-0.571587,0.424364,-0.64342,0
15810,-0.571831,0.42485,-0.642726,0
15830,-0.572238,0.425278,-0.642198,0
15850,-0.572483,0.425765,-0.641505,0
15870,-0.573251,0.426225,-0.64124,0
15890,-0.573704,0.426738,-0.640754,0
15910,-0.573704,0.426738,-0.640754,0
15930,-0.57374,0.426887,-0.640684,0
15950,-0.573609,0.426919,-0.640654,0
15970,-0.572975,0.427116,-0.640529,0
15990,-0.572327,0.427203,-0.6405,0
16010,-0.571251,0.427237,-0.64045,0
16030,-0.570545,0.427138,-0.640465,0
16050,-0.569709,0.42707,-0.64045,0
16070,-0.569008,0.427247,-0.640568,0
16090,-0.568144,0.427483,-0.640519,0
16110,-0.56704,0.42782,-0.640436,0
16130,-0.566417,0.427954,-0.640422,0
16150,-0.566417,0.427954,-0.640422,0
16170,-0.565915,0.428222,-0.640635,0
16190,-0.565259,0.428484,-0.640793,0
16210,-0.564431,0.428971,-0.640982,0
16230,-0.563879,0.429504,-0.641135,0
16250,-0.563766,0.430025,-0.641418,0
16270,-0.563553,0.430553,-0.641808,0
16290,-0.562825,0.431034,-0.641891,0
16310,-0.562338,0.431414,-0.642008,0
16330,-0.562338,0.431414,-0.642008,0
16350,-0.562567,0.431375,-0.641932,0
16370,-0.563109,0.431531,-0.64175,0
16390,-0.563849,0.431776,-0.641664,0
16410,-0.564366,0.432511,-0.641549,0
16430,-0.564754,0.433279,-0.641405,0
16450,-0.565006,0.433802,-0.641128,0
16470,-0.565754,0.434397,-0.640631,0
16490,-0.568031,0.434947,-0.639927,0
16510,-0.570868,0.43587,-0.63926,0
16530,-0.573617,0.437153,-0.638295,0
16550,-0.577442,0.438476,-0.637285,0
16570,-0.58025,0.439406,-0.636086,0
16590,-0.581522,0.439334,-0.635518,0
16610,-0.581745,0.439889,-0.635115,0
16630,-0.580888,0.439606,-0.634876,0
16650,-0.580496,0.438833,-0.635009,0
16670,-0.579774,0.438201,-0.635629,0
16690,-0.578925,0.437877,-0.636324,0
16710,-0.576561,0.43798,-0.637228,0
16730,-0.575063,0.438787,-0.637457,0
16750,-0.574351,0.439652,-0.637545,0
16770,-0.574287,0.439807,-0.637581,0
16790,-0.574471,0.440728,-0.637032,0
16810,-0.573942,0.441271,-0.636387,0
16830,-0.572702,0.441086,-0.635663,0
16850,-0.571835,0.440768,-0.635008,0
16870,-0.571439,0.440135,-0.634521,0
16890,-0.572405,0.439796,-0.634163,0
16910,-0.573973,0.439706,-0.633278,0
16930,-0.575779,0.439859,-0.632423,0
16950,-0.577217,0.440322,-0.631297,0
16970,-0.579297,0.440672,-0.629793,0
16990,-0.582026,0.441187,-0.628015,0
17010,-0.584888,0.441403,-0.626171,0
17030,-0.58754,0.441522,-0.624633,0
17050,-0.589295,0.441655,-0.623218,0
17070,-0.590786,0.442047,-0.622355,0
17090,-0.591362,0.442336,-0.621702,0
17110,-0.591649,0.442841,-0.621575,0
17130,-0.591539,0.44291,-0.621568,0
17150,-0.591153,0.443307,-0.621995,0
17170,-0.590488,0.443654,-0.62245,0
17190,-0.589989,0.443943,-0.623072,0
17210,-0.589665,0.44401,-0.623666,0
17230,-0.589222,0.443595,-0.624043,0
17250,-0.58862,0.442889,-0.624268,0
17270,-0.588189,0.441784,-0.624666,0
17290,-0.587556,0.440587,-0.624967,0
17310,-0.587097,0.439786,-0.625336,0
17330,-0.586771,0.438954,-0.625736,0
17350,-0.586872,0.43853,-0.626149,0
17370,-0.586872,0.43853,-0.626149,0
17390,-0.586969,0.438349,-0.626248,0
17410,-0.58791,0.43805,-0.62576,0
17430,-0.58956,0.438104,-0.624954,0
17450,-0.592264,0.43799,-0.624283,0
17470,-0.59484,0.437762,-0.624202,0
17490,-0.595857,0.437865,-0.623888,0
17510,-0.596092,0.43764,-0.623203,0
17530,-0.596662,0.437573,-0.622955,0
17550,-0.597675,0.437499,-0.622844,0
17570,-0.598931,0.437326,-0.622771,0
17590,-0.600135,0.437514,-0.62295,0
17610,-0.60144,0.437796,-0.623332,0
17630,-0.602103,0.438268,-0.623584,0
17650,-0.602172,0.43839,-0.623652,0
17670,-0.602007,0.438449,-0.623486,0
17690,-0.602076,0.438571,-0.623554,0
17710,-0.602516,0.438289,-0.623587,0
17730,-0.602516,0.438289,-0.623587,0
17750,-0.602516,0.438289,-0.623587,0
17770,-0.602681,0.438231,-0.623753,0
17790,-0.602704,0.437748,-0.623983,0
17810,-0.602768,0.437595,-0.623946,0
17830,-0.602768,0.437595,-0.623946,0
17850,-0.6028,0.437567,-0.624081,0
17870,-0.602965,0.437412,-0.62394,0
17890,-0.60341,0.437405,-0.624078,0
17910,-0.604033,0.437451,-0.624291,0
17930,-0.604166,0.437421,-0.624322,0
17950,-0.604033,0.437451,-0.624291,0
17970,-0.603761,0.437332,-0.624429,0
17990,-0.603096,0.436956,-0.624483,0
18010,-0.602807,0.43645,-0.624608,0
18030,-0.602591,0.435725,-0.624805,0
18050,-0.602507,0.435065,-0.62534,0
18070,-0.601826,0.43468,-0.625788,0
18090,-0.600954,0.43413,-0.626253,0
18110,-0.600306,0.433717,-0.626837,0
18130,-0.599651,0.433276,-0.627005,0
18150,-0.599398,0.433018,-0.62737,0
18170,-0.599398,0.433018,-0.62737,0
18190,-0.599507,0.432949,-0.627377,0
18210,-0.599507,0.432949,-0.627377,0
18230,-0.599507,0.432949,-0.627377,0
18250,-0.599375,0.43298,-0.627346,0
18270,-0.599375,0.43298,-0.627346,0
18290,-0.599375,0.43298,-0.627346,0
18310,-0.598647,0.432758,-0.627441,0
18330,-0.597784,0.432293,-0.627402,0
18350,-0.597299,0.431972,-0.627536,0
18370,-0.596582,0.431588,-0.627436,0
18390,-0.596131,0.431144,-0.627399,0
18410,-0.596131,0.431144,-0.627399,0
18430,-0.596131,0.431144,-0.627399,0
18450,-0.596131,0.431144,-0.627399,0
18470,-0.596154,0.431182,-0.627424,0
18490,-0.596154,0.431182,-0.627424,0
18510,-0.596154,0.431182,-0.627424,0
18530,-0.596022,0.431212,-0.627393,0
18550,-0.596083,0.430785,-0.627252,0
18570,-0.596792,0.43062,-0.627143,0
18590,-0.597735,0.430421,-0.62696,0
18610,-0.598363,0.430022,-0.626875,0
18630,-0.599673,0.429092,-0.627474,0
18650,-0.602614,0.429273,-0.628053,0
18670,-0.605258,0.429263,-0.62834,0
18690,-0.607124,0.429079,-0.627641,0
18710,-0.609061,0.428925,-0.626707,0
18730,-0.610656,0.428874,-0.62584,0
18750,-0.611947,0.428829,-0.625284,0
18770,-0.613095,0.428361,-0.624792,0
18790,-0.613802,0.42802,-0.624885,0
18810,-0.613802,0.42802,-0.624885,0
18830,-0.613118,0.427785,-0.624715,0
18850,-0.612566,0.427613,-0.624882,0
18870,-0.612522,0.427529,-0.624838,0
18890,-0.612522,0.427529,-0.624838,0
18910,-0.613106,0.427424,-0.625115,0
18930,-0.613694,0.427593,-0.625497,0
18950,-0.613694,0.427593,-0.625497,0
18970,-0.614235,0.427559,-0.625115,0
18990,-0.615319,0.427492,-0.624352,0
19010,-0.61648,0.427233,-0.624076,0
19030,-0.617296,0.427073,-0.623866,0
19050,-0.618143,0.426883,-0.623789,0
19070,-0.618143,0.426883,-0.623789,0
19090,-0.618277,0.426853,-0.62382,0
19110,-0.618174,0.426854,-0.623923,0
19130,-0.618308,0.426823,-0.623954,0
19150,-0.618622,0.426754,-0.623755,0
19160,-0.618622,0.426754,-0.623755,0
19180,-0.618622,0.426754,-0.623755,0
19200,-0.618553,0.426633,-0.623686,0
19220,-0.618553,0.426633,-0.623686,0
19240,-0.618444,0.426701,-0.62368,0
19260,-0.618512,0.426823,-0.623748,0
19280,-0.618444,0.426701,-0.62368,0
19300,-0.618444,0.426701,-0.62368,0
19320,-0.618444,0.426701,-0.62368,0
19340,-0.618304,0.42655,-0.623848,0
19360,-0.618304,0.42655,-0.623848,0
19380,-0.61814,0.42661,-0.623683,0
19400,-0.61814,0.42661,-0.623683,0
19420,-0.618071,0.426489,-0.623615,0
19440,-0.618095,0.426527,-0.623639,0
19460,-0.618198,0.426526,-0.623536,0
19480,-0.618198,0.426526,-0.623536,0
19500,-0.618064,0.426556,-0.623506,0
19520,-0.618064,0.426556,-0.623506,0
19540,-0.618064,0.426556,-0.623506,0
19560,-0.618064,0.426556,-0.623506,0
19580,-0.618064,0.426556,-0.623506,0
19600,-0.618064,0.426556,-0.623506,0
19620,-0.617862,0.426465,-0.623406,0
19640,-0.617862,0.426465,-0.623406,0
19660,-0.617862,0.426465,-0.623406,0
19680,-0.617862,0.426465,-0.623406,0
19700,-0.61844,0.426428,-0.623574,0
19720,-0.61844,0.426428,-0.623574,0
19740,-0.61844,0.426428,-0.623574,0
19760,-0.618307,0.426458,-0.623543,0
19780,-0.618331,0.426496,-0.623567,0
19800,-0.6183,0.426526,-0.623434,0
19820,-0.6183,0.426526,-0.623434,0
19840,-0.6183,0.426526,-0.623434,0
19860,-0.618331,0.426496,-0.623567,0
19880,-0.618307,0.426458,-0.623543,0
19900,-0.618331,0.426496,-0.623567,0
19920,-0.618331,0.426496,-0.623567,0
19940,-0.618331,0.426496,-0.623567,0
19960,-0.618331,0.426496,-0.623567,0
19980,-0.618331,0.426496,-0.623567,0
20000,-0.618262,0.426375,-0.623499,0
20020,-0.618262,0.426375,-0.623499,0
20040,-0.618331,0.426496,-0.623567,0
20060,-0.618331,0.426496,-0.623567,0
20080,-0.61858,0.426579,-0.623406,0
20100,-0.61858,0.426579,-0.623406,0
20120,-0.61858,0.426579,-0.623406,0
20140,-0.618898,0.426783,-0.623312,0
20160,-0.619171,0.426904,-0.623175,0
20180,-0.619585,0.426927,-0.623178,0
20200,-0.619585,0.426927,-0.623178,0
20220,-0.619585,0.426927,-0.623178,0
20240,-0.619585,0.426927,-0.623178,0
20260,-0.619965,0.427321,-0.623044,0
20280,-0.619965,0.427321,-0.623044,0
20300,-0.619965,0.427321,-0.623044,0
20320,-0.620208,0.427471,-0.622774,0
20340,-0.620296,0.427887,-0.622554,0
20360,-0.620296,0.427887,-0.622554,0
20380,-0.620252,0.427804,-0.62251,0
20400,-0.619924,0.428288,-0.622592,0
20420,-0.619736,0.428675,-0.622814,0
20440,-0.619853,0.429153,-0.623034,0
20460,-0.619968,0.429723,-0.623558,0
20480,-0.620289,0.430044,-0.624186,0
20500,-0.620423,0.430014,-0.624217,0
20520,-0.62046,0.430165,-0.624152,0
20540,-0.620436,0.430127,-0.624128,0
20560,-0.620436,0.430127,-0.624128,0
20580,-0.620683,0.430551,-0.623964,0
20600,-0.620683,0.430551,-0.623964,0
20620,-0.620683,0.430551,-0.623964,0
20640,-0.620683,0.430551,-0.623964,0
20660,-0.620683,0.430551,-0.623964,0
20680,-0.620683,0.430551,-0.623964,0
20700,-0.620683,0.430551,-0.623964,0
20720,-0.620683,0.430551,-0.623964,0
20740,-0.620587,0.430732,-0.623868,0
20760,-0.620587,0.430732,-0.623868,0
20780,-0.620587,0.430732,-0.623868,0
20800,-0.620656,0.430854,-0.623937,0
20820,-0.62036,0.431309,-0.624153,0
20840,-0.620781,0.431514,-0.623959,0
20860,-0.621341,0.431961,-0.623903,0
20880,-0.621341,0.431961,-0.623903,0
20900,-0.621207,0.431991,-0.623872,0
20920,-0.621207,0.431991,-0.623872,0
20940,-0.621276,0.432113,-0.623941,0
20960,-0.621142,0.432143,-0.623909,0
20980,-0.621111,0.432173,-0.623776,0
21000,-0.621111,0.432173,-0.623776,0
21020,-0.62118,0.432294,-0.623845,0
21040,-0.62118,0.432294,-0.623845,0
21060,-0.620875,0.432452,-0.623539,0
21080,-0.620322,0.432435,-0.623088,0
21090,-0.619628,0.432266,-0.622805,0
21110,-0.618495,0.432129,-0.6228,0
21130,-0.61716,0.431899,-0.622694,0
21150,-0.61564,0.431685,-0.622405,0
21170,-0.614679,0.431669,-0.622367,0
21190,-0.614546,0.431699,-0.622336,0
21210,-0.614546,0.431699,-0.622336,0
21230,-0.614546,0.431699,-0.622336,0
21250,-0.614615,0.431821,-0.622404,0
21260,-0.614283,0.432033,-0.62238,0
21280,-0.613736,0.43204,-0.622345,0
21300,-0.61294,0.431965,-0.622472,0
21320,-0.611878,0.431951,-0.622538,0
21340,-0.61068,0.431693,-0.622467,0
21360,-0.609683,0.431527,-0.622497,0
21380,-0.608823,0.431238,-0.622252,0
21400,-0.608341,0.431094,-0.622182,0
21420,-0.608341,0.431094,-0.622182,0
21440,-0.608341,0.431094,-0.622182,0
21460,-0.608005,0.431126,-0.622357,0
21480,-0.608005,0.431126,-0.622357,0
21500,-0.607871,0.431156,-0.622326,0
21520,-0.607871,0.431156,-0.622326,0
21540,-0.60794,0.431278,-0.622394,0
21560,-0.607807,0.431308,-0.622363,0
21580,-0.60783,0.431346,-0.622388,0
21600,-0.607799,0.431375,-0.622253,0
21620,-0.607666,0.431406,-0.622222,0
21640,-0.607666,0.431406,-0.622222,0
21660,-0.607666,0.431406,-0.622222,0
21680,-0.607533,0.431436,-0.622191,0
21700,-0.607533,0.431436,-0.622191,0
21720,-0.607533,0.431436,-0.622191,0
21740,-0.607533,0.431436,-0.622191,0
21760,-0.6074,0.431466,-0.62216,0
21780,-0.6074,0.431466,-0.62216,0
21800,-0.6074,0.431466,-0.62216,0
21820,-0.6074,0.431466,-0.62216,0
21840,-0.6074,0.431466,-0.62216,0
21860,-0.607423,0.431504,-0.622185,0
21880,-0.607222,0.431412,-0.622086,0
21900,-0.60781,0.431735,-0.621853,0
21920,-0.608843,0.432052,-0.621757,0
21940,-0.609775,0.43237,-0.621765,0
21960,-0.610336,0.432997,-0.621504,0
21980,-0.611114,0.433828,-0.621254,0
22000,-0.612297,0.434751,-0.620899,0
22020,-0.613349,0.435705,-0.620514,0
22040,-0.614228,0.436787,-0.619856,0
22060,-0.614288,0.437662,-0.618994,0
22080,-0.614066,0.438578,-0.618464,0
22100,-0.613327,0.439469,-0.61803,0
22120,-0.613161,0.439529,-0.617865,0
22140,-0.612281,0.439746,-0.617802,0
22160,-0.611635,0.440027,-0.617973,0
22180,-0.610673,0.44001,-0.617931,0
22200,-0.609937,0.439507,-0.617913,0
22220,-0.609099,0.438483,-0.618202,0
22240,-0.607458,0.437452,-0.618508,0
22260,-0.605597,0.436566,-0.618799,0
22280,-0.603734,0.436023,-0.619088,0
22300,-0.60243,0.435587,-0.619322,0
22320,-0.602089,0.43544,-0.619698,0
22340,-0.601956,0.43547,-0.619667,0
22360,-0.602773,0.435582,-0.619562,0
22380,-0.604068,0.435564,-0.619424,0
22400,-0.604951,0.435524,-0.619284,0
22420,-0.6057,0.435515,-0.619112,0
22440,-0.605677,0.435476,-0.619088,0
22460,-0.605745,0.435599,-0.619156,0
22480,-0.604956,0.435704,-0.619083,0
22500,-0.60414,0.435497,-0.618881,0
22520,-0.60414,0.435497,-0.618881,0
22540,-0.604122,0.435205,-0.619173,0
22560,-0.604122,0.435205,-0.619173,0
22580,-0.604098,0.435166,-0.619148,0
22600,-0.604231,0.435136,-0.61918,0
22620,-0.604098,0.435166,-0.619148,0
22640,-0.60375,0.434992,-0.619109,0
22660,-0.603236,0.43497,-0.619209,0
22680,-0.602717,0.434769,-0.619511,0
22700,-0.601654,0.434482,-0.619473,0
22720,-0.600522,0.434167,-0.619675,0
22740,-0.599633,0.433755,-0.619914,0
22760,-0.598845,0.433341,-0.620051,0
22780,-0.598014,0.432844,-0.620146,0
22800,-0.596983,0.432255,-0.620143,0
22820,-0.596387,0.431726,-0.620167,0
22830,-0.595729,0.431254,-0.619922,0
22850,-0.595627,0.431256,-0.620026,0
22870,-0.595627,0.431256,-0.620026,0
22890,-0.59576,0.431226,-0.620057,0
22900,-0.595281,0.431082,-0.619989,0
22920,-0.594493,0.430915,-0.619818,0
22940,-0.593713,0.430681,-0.619757,0
22960,-0.593572,0.430777,-0.619616,0
22980,-0.593572,0.430777,-0.619616,0
23000,-0.593572,0.430777,-0.619616,0
23020,-0.593572,0.430777,-0.619616,0
23040,-0.593572,0.430777,-0.619616,0
23060,-0.593125,0.430606,-0.619684,0
23080,-0.593125,0.430606,-0.619684,0
23100,-0.592925,0.430514,-0.619586,0
23120,-0.592925,0.430514,-0.619586,0
23140,-0.592925,0.430514,-0.619586,0
23160,-0.592544,0.43019,-0.619618,0
23180,-0.592411,0.43022,-0.619587,0
23200,-0.592411,0.43022,-0.619587,0
23220,-0.592279,0.43025,-0.619556,0
23240,-0.592235,0.430166,-0.619514,0
23260,-0.592235,0.430166,-0.619514,0
23280,-0.592235,0.430166,-0.619514,0
23300,-0.592167,0.430044,-0.619447,0
23320,-0.592199,0.430016,-0.619582,0
23340,-0.592469,0.430133,-0.619441,0
23360,-0.593017,0.430303,-0.619269,0
23380,-0.593418,0.430116,-0.619057,0
23400,-0.593418,0.430116,-0.619057,0
23420,-0.593285,0.430147,-0.619026,0
23440,-0.592331,0.430133,-0.618995,0
23460,-0.591406,0.429818,-0.618997,0
23480,-0.590522,0.429409,-0.619244,0
23500,-0.589903,0.42894,-0.619553,0
23520,-0.58977,0.42897,-0.619522,0
23540,-0.590308,0.428783,-0.619754,0
23560,-0.590308,0.428783,-0.619754,0
23580,-0.590271,0.428358,-0.61972,0
23600,-0.589683,0.428009,-0.619546,0
23620,-0.589519,0.428067,-0.619381,0
23640,-0.589509,0.427858,-0.619169,0
23660,-0.590183,0.427545,-0.619127,0
23680,-0.590919,0.427175,-0.619354,0
23710,-0.592977,0.426386,-0.619159,0
23730,-0.59443,0.426306,-0.619176,0
23750,-0.595654,0.426438,-0.619064,0
23770,-0.596579,0.426754,-0.619062,0
23790,-0.596646,0.426876,-0.619129,0
23810,-0.596432,0.426397,-0.619021,0
23830,-0.595612,0.425984,-0.618615,0
23850,-0.595052,0.425058,-0.618369,0
23870,-0.594632,0.424554,-0.618056,0
23890,-0.594441,0.423839,-0.617872,0
23910,-0.594375,0.423718,-0.617805,0
23930,-0.594242,0.423748,-0.617775,0
23950,-0.594239,0.423718,-0.617361,0
23970,-0.59438,0.423771,-0.616885,0
23990,-0.59512,0.424099,-0.616699,0
24010,-0.595365,0.424425,-0.616222,0
24030,-0.596058,0.424679,-0.615988,0
24050,-0.596195,0.424554,-0.615714,0
24070,-0.596262,0.424676,-0.61578,0
24090,-0.596285,0.424713,-0.615805,0
24110,-0.596086,0.424621,-0.615708,0
24130,-0.596086,0.424621,-0.615708,0
24150,-0.596416,0.424136,-0.615631,0
24170,-0.597225,0.423795,-0.615619,0
24190,-0.597971,0.423512,-0.615339,0
24210,-0.598919,0.423594,-0.615259,0
24230,-0.599945,0.423638,-0.615051,0
24250,-0.601116,0.424285,-0.614575,0
24270,-0.602797,0.425049,-0.614301,0
24290,-0.604685,0.426086,-0.613927,0
24310,-0.605933,0.426792,-0.613633,0
24330,-0.606862,0.427633,-0.61343,0
24350,-0.60746,0.428319,-0.612796,0
24370,-0.608052,0.429073,-0.612053,0
24390,-0.609193,0.429457,-0.610936,0
24410,-0.611563,0.430079,-0.610025,0
24430,-0.61479,0.430546,-0.609458,0
24450,-0.6173,0.430625,-0.60879,0
24460,-0.619586,0.430387,-0.608204,0
24480,-0.621677,0.429718,-0.607524,0
24500,-0.623418,0.429237,-0.60721,0
24520,-0.624462,0.4284,-0.606813,0
24540,-0.625344,0.427646,-0.606664,0
24560,-0.626165,0.427225,-0.606355,0
24580,-0.627337,0.427255,-0.606192,0
24600,-0.628682,0.427429,-0.606409,0
24620,-0.629241,0.427903,-0.606766,0
24640,-0.629376,0.427875,-0.606798,0
24660,-0.629241,0.427903,-0.606766,0
24680,-0.629241,0.427903,-0.606766,0
24700,-0.629241,0.427903,-0.606766,0
24720,-0.629241,0.427903,-0.606766,0
24740,-0.629241,0.427903,-0.606766,0
24760,-0.629241,0.427903,-0.606766,0
24780,-0.629376,0.427875,-0.606798,0
24800,-0.629376,0.427875,-0.606798,0
24820,-0.628998,0.42802,-0.60714,0
24840,-0.62848,0.428011,-0.607648,0
24860,-0.628022,0.427921,-0.60801,0
24880,-0.627704,0.427462,-0.608407,0
24900,-0.626908,0.427036,-0.608533,0
24920,-0.626381,0.426553,-0.608722,0
24940,-0.625818,0.426169,-0.60867,0
24960,-0.625304,0.42605,-0.608464,0
24980,-0.625304,0.42605,-0.608464,0
25000,-0.62517,0.426079,-0.608433,0
25020,-0.62517,0.426079,-0.608433,0
25040,-0.624822,0.425902,-0.608392,0
25060,-0.624259,0.425518,-0.60834,0
25080,-0.623532,0.425193,-0.608125,0
25100,-0.623117,0.424894,-0.608016,0
25120,-0.622774,0.424626,-0.607673,0
25140,-0.622722,0.423794,-0.607206,0
25160,-0.622057,0.423091,-0.60633,0
25180,-0.621118,0.421971,-0.605077,0
25200,-0.620353,0.420428,-0.603585,0
25220,-0.619903,0.419162,-0.601893,0
25240,-0.619838,0.417479,-0.599758,0
25260,-0.620256,0.416219,-0.597798,0
25280,-0.621232,0.415145,-0.595675,0
25300,-0.621992,0.414398,-0.593338,0
25320,-0.623042,0.413926,-0.591598,0
25340,-0.623865,0.413395,-0.589632,0
25360,-0.624231,0.412771,-0.58803,0
25380,-0.623877,0.412289,-0.586535,0
25400,-0.623424,0.411941,-0.585461,0
25420,-0.623236,0.411603,-0.58434,0
25440,-0.623067,0.411073,-0.583956,0
25460,-0.622604,0.410562,-0.583488,0
25480,-0.622604,0.410562,-0.583488,0
25500,-0.622633,0.410531,-0.58362,0
25520,-0.622633,0.410531,-0.58362,0
25540,-0.622569,0.41041,-0.583555,0
25560,-0.622594,0.410446,-0.583578,0
25580,-0.622594,0.410446,-0.583578,0
25600,-0.622475,0.410116,-0.583148,0
25620,-0.623193,0.410042,-0.582934,0
25640,-0.623449,0.409661,-0.582463,0
25660,-0.623874,0.409404,-0.581957,0
25680,-0.624162,0.409242,-0.581311,0
25700,-0.624554,0.409084,-0.580565,0
25720,-0.625012,0.408594,-0.579981,0
25740,-0.625275,0.408397,-0.579314,0
25760,-0.625493,0.408385,-0.578705,0
25780,-0.625577,0.408401,-0.578065,0
25800,-0.626111,0.40815,-0.577459,0
25820,-0.626533,0.408165,-0.577054,0
25840,-0.626955,0.408181,-0.57665,0
25860,-0.62758,0.408224,-0.57645,0
25880,-0.628475,0.408212,-0.57631,0
25900,-0.628943,0.408044,-0.575848,0
25920,-0.629466,0.407881,-0.57554,0
25940,-0.629719,0.407773,-0.575171,0
25960,-0.630312,0.407462,-0.574828,0
25980,-0.630713,0.407242,-0.574193,0
26000,-0.631349,0.406816,-0.573684,0
26020,-0.632181,0.406686,-0.573479,0
26040,-0.632875,0.40665,-0.573136,0
26060,-0.633316,0.406517,-0.572545,0
26080,-0.633982,0.406514,-0.572071,0
26100,-0.634571,0.406475,-0.57183,0
26120,-0.634864,0.406454,-0.571505,0
26140,-0.635289,0.406474,-0.571103,0
26160,-0.635714,0.406494,-0.570701,0
26180,-0.636609,0.406689,-0.570773,0
26200,-0.637088,0.406847,-0.570841,0
26220,-0.637088,0.406847,-0.570841,0
26240,-0.637301,0.406857,-0.570641,0
26260,-0.637823,0.406899,-0.570543,0
26280,-0.638416,0.406794,-0.570411,0
26300,-0.638871,0.406783,-0.57014,0
26320,-0.638991,0.406705,-0.569743,0
26340,-0.639624,0.406553,-0.569336,0
26360,-0.640362,0.406539,-0.569147,0
26380,-0.641262,0.406534,-0.569011,0
26400,-0.642002,0.406521,-0.568823,0
26420,-0.642166,0.406462,-0.568984,0
26440,-0.642522,0.406633,-0.568619,0
26450,-0.642802,0.406697,-0.568592,0
26470,-0.642938,0.40667,-0.568623,0
26490,-0.642938,0.40667,-0.568623,0
26510,-0.642938,0.40667,-0.568623,0
26530,-0.642913,0.406503,-0.568283,0
26550,-0.643198,0.406367,-0.568047,0
26570,-0.644238,0.406269,-0.56805,0
26590,-0.644238,0.406269,-0.56805,0
26610,-0.644212,0.406233,-0.568027,0
26630,-0.644861,0.406133,-0.568049,0
26650,-0.645601,0.406121,-0.567861,0
26670,-0.646151,0.406202,-0.567788,0
26690,-0.646382,0.406063,-0.5674,0
26710,-0.646382,0.406063,-0.5674,0
26730,-0.646382,0.406063,-0.5674,0
26750,-0.646589,0.40589,-0.567394,0
26770,-0.646724,0.405863,-0.567424,0
26790,-0.646724,0.405863,-0.567424,0
26810,-0.646724,0.405863,-0.567424,0
26830,-0.646724,0.405863,-0.567424,0
26850,-0.64666,0.405742,-0.567358,0
26870,-0.647077,0.405781,-0.567363,0
26890,-0.647213,0.405754,-0.567393,0
26910,-0.647213,0.405754,-0.567393,0
26930,-0.647213,0.405754,-0.567393,0
26950,-0.647904,0.406126,-0.567474,0
26970,-0.64855,0.406226,-0.567706,0
26990,-0.649277,0.406297,-0.567816,0
27010,-0.64963,0.406214,-0.567755,0
27030,-0.650325,0.405932,-0.567718,0
27050,-0.651082,0.40597,-0.567958,0
27070,-0.651082,0.40597,-0.567958,0
27090,-0.651218,0.405944,-0.567989,0
27110,-0.651182,0.40579,-0.568052,0
27130,-0.651218,0.405944,-0.567989,0
27150,-0.651218,0.405944,-0.567989,0
27170,-0.65157,0.405862,-0.567927,0
27190,-0.651988,0.4059,-0.567933,0
27210,-0.652849,0.406014,-0.567966,0
27220,-0.653598,0.405736,-0.567677,0
27240,-0.654467,0.405582,-0.567608,0
27260,-0.655099,0.405181,-0.567505,0
27280,-0.655753,0.405013,-0.567634,0
27300,-0.655889,0.404987,-0.567665,0
27320,-0.655889,0.404987,-0.567665,0
27340,-0.656171,0.405053,-0.56764,0
27360,-0.656307,0.405026,-0.567671,0
27380,-0.656863,0.40497,-0.567815,0
27400,-0.657389,0.405016,-0.567721,0
27420,-0.658223,0.405164,-0.567625,0
27440,-0.659097,0.405397,-0.567575,0
27460,-0.659631,0.405631,-0.567289,0
27480,-0.660147,0.405559,-0.567281,0
27500,-0.660121,0.405523,-0.567259,0
27520,-0.660082,0.405439,-0.567214,0
27540,-0.660056,0.405403,-0.567192,0
27560,-0.660192,0.405377,-0.567222,0
27580,-0.65987,0.40581,-0.567431,0
27600,-0.659628,0.406283,-0.567411,0
27620,-0.658993,0.406754,-0.567406,0
27640,-0.658993,0.406754,-0.567406,0
27660,-0.658993,0.406754,-0.567406,0
27680,-0.659348,0.407127,-0.567256,0
27700,-0.659348,0.407127,-0.567256,0
27720,-0.659212,0.407154,-0.567226,0
27740,-0.659875,0.407174,-0.567164,0
27760,-0.660591,0.4072,-0.566851,0
27780,-0.660822,0.407006,-0.566037,0
27800,-0.66219,0.406481,-0.565836,0
27820,-0.66413,0.406929,-0.56552,0
27840,-0.664858,0.407018,-0.564698,0
27860,-0.666054,0.406892,-0.564334,0
27880,-0.666293,0.407017,-0.563649,0
27900,-0.666906,0.406912,-0.563118,0
27920,-0.667565,0.407079,-0.562441,0
27940,-0.668702,0.407221,-0.562032,0
27960,-0.66966,0.407501,-0.561759,0
27980,-0.669797,0.407475,-0.561789,0
28000,-0.66966,0.407501,-0.561759,0
28020,-0.669862,0.407596,-0.561857,0
28040,-0.669853,0.407407,-0.562048,0
28060,-0.669208,0.40716,-0.562428,0
28100,-0.667985,0.406718,-0.563365,0
28120,-0.667897,0.406487,-0.563784,0
28140,-0.667772,0.406102,-0.564266,0
28160,-0.667586,0.405982,-0.564701,0
28180,-0.667565,0.406327,-0.565101,0
28200,-0.667617,0.406457,-0.565572,0
28220,-0.667853,0.406832,-0.565928,0
28240,-0.667423,0.407256,-0.566236,0
28260,-0.667064,0.407533,-0.566508,0
28280,-0.667064,0.407533,-0.566508,0
28300,-0.66663,0.407572,-0.566796,0
28320,-0.66592,0.407207,-0.56711,0
28340,-0.665211,0.406843,-0.567425,0
28360,-0.664155,0.406818,-0.567501,0
28380,-0.663454,0.406642,-0.567625,0
28400,-0.662927,0.406595,-0.567717,0
28420,-0.662856,0.406742,-0.567753,0
28440,-0.662504,0.406753,-0.567921,0
28460,-0.662042,0.406827,-0.568081,0
28480,-0.660997,0.406921,-0.568073,0
28500,-0.660541,0.406727,-0.568129,0
28520,-0.660541,0.406727,-0.568129,0
28540,-0.660183,0.407006,-0.568401,0
28560,-0.660183,0.407006,-0.568401,0
28580,-0.660183,0.407006,-0.568401,0
28600,-0.660183,0.407006,-0.568401,0
28620,-0.660183,0.407006,-0.568401,0
28640,-0.660183,0.407006,-0.568401,0
28660,-0.660047,0.407033,-0.56837,0
28680,-0.660047,0.407033,-0.56837,0
28700,-0.660074,0.407069,-0.568392,0
28720,-0.660074,0.407069,-0.568392,0
28740,-0.660224,0.406963,-0.568126,0
28760,-0.660793,0.406896,-0.567867,0
28780,-0.661499,0.406803,-0.567639,0
28800,-0.662156,0.406567,-0.567878,0
28820,-0.66146,0.406194,-0.56779,0
28840,-0.6612,0.405838,-0.568244,0
28850,-0.660971,0.405903,-0.568739,0
28870,-0.660913,0.406225,-0.569521,0
28890,-0.661091,0.40634,-0.570427,0
28910,-0.660948,0.406306,-0.571313,0
28930,-0.660777,0.406109,-0.571452,0
28950,-0.66039,0.405839,-0.571364,0
28970,-0.660354,0.405685,-0.571427,0
28990,-0.660354,0.405685,-0.571427,0
29010,-0.660419,0.405806,-0.571494,0
29030,-0.660354,0.405685,-0.571427,0
29050,-0.66039,0.405839,-0.571364,0
29070,-0.6597,0.405853,-0.571297,0
29090,-0.659836,0.405827,-0.571327,0
29110,-0.659513,0.405806,-0.571626,0
29130,-0.659513,0.405806,-0.571626,0
29150,-0.659513,0.405806,-0.571626,0
29170,-0.659513,0.405806,-0.571626,0
29190,-0.659937,0.406101,-0.571332,0
29210,-0.660307,0.406394,-0.570886,0
29230,-0.660369,0.406202,-0.56908,0
29250,-0.659617,0.407273,-0.567529,0
29270,-0.659271,0.408978,-0.566618,0
29290,-0.659408,0.41026,-0.565552,0
29310,-0.659401,0.41171,-0.563836,0
29330,-0.65893,0.413234,-0.562279,0
29350,-0.659346,0.414656,-0.561083,0
29370,-0.660409,0.415727,-0.559812,0
29390,-0.661829,0.416847,-0.559207,0
29410,-0.661641,0.418111,-0.55844,0
29430,-0.660259,0.420214,-0.557641,0
29450,-0.659229,0.421979,-0.557083,0
29470,-0.659642,0.422943,-0.557322,0
29490,-0.660864,0.42364,-0.557434,0
29510,-0.661479,0.424377,-0.556839,0
29530,-0.663178,0.424467,-0.55659,0
29550,-0.665713,0.424982,-0.556364,0
29570,-0.667161,0.425429,-0.556182,0
29590,-0.668216,0.424827,-0.555055,0
29610,-0.669505,0.424414,-0.55448,0
29630,-0.670302,0.424881,-0.554777,0
29650,-0.671635,0.425329,-0.555099,0
29670,-0.672679,0.425462,-0.554398,0
29690,-0.674671,0.426159,-0.553947,0
29710,-0.675907,0.426593,-0.553967,0
29730,-0.67577,0.426618,-0.553935,0
29750,-0.675974,0.426714,-0.554035,0
29770,-0.675643,0.426953,-0.554433,0
29790,-0.675125,0.427138,-0.555156,0
29810,-0.674958,0.427198,-0.554994,0
29830,-0.674987,0.427163,-0.555124,0
29840,-0.675396,0.426826,-0.555518,0
29860,-0.675836,0.426383,-0.55615,0
29880,-0.676234,0.426051,-0.556948,0
29900,-0.676883,0.425436,-0.557575,0
29920,-0.677262,0.425133,-0.557839,0
29940,-0.677851,0.425312,-0.558229,0
29960,-0.678552,0.425959,-0.558439,0
29980,-0.679254,0.426606,-0.55865,0
30000,-0.679321,0.426728,-0.558719,0
30020,-0.679321,0.426728,-0.558719,0
30040,-0.679361,0.426811,-0.558767,0
30060,-0.679361,0.426811,-0.558767,0
30080,-0.679361,0.426811,-0.558767,0
30100,-0.679361,0.426811,-0.558767,0
30120,-0.679449,0.426707,-0.559156,0
30140,-0.679449,0.426707,-0.559156,0
30160,-0.68001,0.426921,-0.559418,0
30180,-0.680255,0.427101,-0.559567,0
30200,-0.68061,0.427095,-0.559405,0
30220,-0.681139,0.42669,-0.559405,0
30240,-0.681139,0.42669,-0.559405,0
30260,-0.681139,0.42669,-0.559405,0
30280,-0.681139,0.42669,-0.559405,0
30300,-0.681514,0.426072,-0.558732,0
30320,-0.682101,0.425815,-0.557864,0
30340,-0.682886,0.425586,-0.55761,0
30360,-0.682532,0.425396,-0.557557,0
30380,-0.682012,0.425266,-0.557343,0
30400,-0.681643,0.425347,-0.557802,0
30420,-0.681035,0.425708,-0.558028,0
30440,-0.680152,0.425923,-0.557976,0
30460,-0.680123,0.425958,-0.557847,0
30480,-0.680123,0.425958,-0.557847,0
30500,-0.680123,0.425958,-0.557847,0
30520,-0.679985,0.425983,-0.557815,0
30540,-0.680451,0.425915,-0.557663,0
30560,-0.680744,0.42552,-0.557324,0
30580,-0.680882,0.425495,-0.557356,0
30600,-0.680911,0.425461,-0.557486,0
30620,-0.680911,0.425461,-0.557486,0
30640,-0.681049,0.425436,-0.557518,0
30660,-0.68028,0.425393,-0.557261,0
30680,-0.679733,0.425102,-0.556704,0
30700,-0.679733,0.425102,-0.556704,0
30720,-0.679666,0.424981,-0.556635,0
30720,-0.679132,0.425653,-0.556741,0
30740,-0.678465,0.426083,-0.556709,0
30760,-0.678465,0.426083,-0.556709,0
30780,-0.678465,0.426083,-0.556709,0
30800,-0.677696,0.42604,-0.556453,0
30820,-0.676693,0.425811,-0.555644,0
30840,-0.676282,0.42569,-0.555334,0
30860,-0.676282,0.42569,-0.555334,0
30880,-0.675702,0.4257,-0.554754,0
30900,-0.675498,0.426134,-0.554461,0
30920,-0.675498,0.426134,-0.554461,0
30940,-0.675498,0.426134,-0.554461,0
30960,-0.675431,0.426012,-0.554392,0
30980,-0.675794,0.426197,-0.55404,0
31000,-0.676376,0.42633,-0.553601,0
31020,-0.676744,0.426247,-0.553142,0
31040,-0.676861,0.425794,-0.552725,0
31060,-0.677129,0.425893,-0.552175,0
31080,-0.677767,0.426153,-0.552209,0
31100,-0.677767,0.426153,-0.552209,0
31120,-0.677701,0.426031,-0.55214,0
31140,-0.677701,0.426031,-0.55214,0
31160,-0.677784,0.425881,-0.5517,0
31180,-0.677784,0.425881,-0.5517,0
31200,-0.677784,0.425881,-0.5517,0
31220,-0.677855,0.425735,-0.551663,0
31240,-0.677717,0.425759,-0.551631,0
31260,-0.67847,0.426076,-0.552396,0
31280,-0.678836,0.426504,-0.553087,0
31300,-0.678643,0.426717,-0.553517,0
31320,-0.678632,0.426722,-0.553921,0
31340,-0.678871,0.426516,-0.554045,0
31360,-0.678871,0.426516,-0.554045,0
31380,-0.678805,0.426395,-0.553976,0
31400,-0.679375,0.426605,-0.553833,0
31420,-0.680152,0.42684,-0.553901,0
31440,-0.681276,0.427075,-0.55421,0
31460,-0.681945,0.4273,-0.554375,0
31480,-0.682755,0.427427,-0.554681,0
31500,-0.682755,0.427427,-0.554681,0
31520,-0.682822,0.427549,-0.554751,0
31540,-0.68321,0.427437,-0.554826,0
31560,-0.683662,0.427519,-0.554863,0
31580,-0.684089,0.427491,-0.554987,0
31600,-0.684089,0.427491,-0.554987,0
31620,-0.684089,0.427491,-0.554987,0
31640,-0.684439,0.427223,-0.555122,0
31660,-0.684883,0.427114,-0.555348,0
31680,-0.685275,0.426735,-0.555316,0
31700,-0.685801,0.426598,-0.555424,0
31720,-0.68626,0.426341,-0.555461,0
31740,-0.68626,0.426341,-0.555461,0
31760,-0.686786,0.426204,-0.555569,0
31780,-0.686862,0.425359,-0.554166,0
31790,-0.686147,0.425129,-0.553446,0
31810,-0.684989,0.425196,-0.553114,0
31830,-0.684084,0.424981,-0.55261,0
31850,-0.684007,0.424741,-0.552622,0
31870,-0.68324,0.423971,-0.552342,0
31890,-0.682115,0.423277,-0.552117,0
31910,-0.68071,0.42343,-0.551744,0
31930,-0.679622,0.423545,-0.551591,0
31950,-0.67955,0.423691,-0.551628,0
31970,-0.67955,0.423691,-0.551628,0
31990,-0.679239,0.423461,-0.551302,0
32010,-0.679311,0.423315,-0.551265,0
32030,-0.679311,0.423315,-0.551265,0
32050,-0.679295,0.423274,-0.550841,0
32070,-0.679887,0.423019,-0.549976,0
32090,-0.680608,0.422672,-0.549653,0
32110,-0.681115,0.42211,-0.549311,0
32130,-0.6815,0.421955,-0.548559,0
32150,-0.682089,0.421439,-0.547992,0
32170,-0.68256,0.420723,-0.54771,0
32190,-0.682731,0.420011,-0.547741,0
32210,-0.682503,0.419754,-0.547298,0
32230,-0.682677,0.419385,-0.546528,0
32250,-0.683867,0.41905,-0.545947,0
32270,-0.685492,0.418882,-0.545299,0
32290,-0.686971,0.419119,-0.545442,0
32310,-0.687718,0.418936,-0.545463,0
32330,-0.687769,0.41856,-0.545191,0
32350,-0.687305,0.417971,-0.545212,0
32370,-0.686229,0.417621,-0.544741,0
32390,-0.685323,0.417171,-0.543608,0
32410,-0.685609,0.416357,-0.542826,0
32430,-0.686472,0.415607,-0.542511,0
32450,-0.686622,0.415277,-0.541614,0
32470,-0.686691,0.414899,-0.540943,0
32490,-0.686071,0.414561,-0.540618,0
32510,-0.684932,0.414618,-0.539891,0
32530,-0.683977,0.414927,-0.539055,0
32550,-0.68292,0.415415,-0.538126,0
32570,-0.681872,0.415637,-0.537093,0
32590,-0.680915,0.416402,-0.536171,0
32610,-0.680617,0.41762,-0.534689,0
32630,-0.68094,0.419525,-0.532734,0
32650,-0.681861,0.419735,-0.531079,0
32670,-0.680608,0.420345,-0.528929,0
32690,-0.678333,0.421136,-0.525872,0
32710,-0.677256,0.419987,-0.522665,0
32730,-0.676571,0.418397,-0.519944,0
32750,-0.67653,0.418217,-0.515968,0
32770,-0.678056,0.416395,-0.5114,0
32790,-0.678675,0.412861,-0.506551,0
32810,-0.679611,0.405696,-0.500749,0
32830,-0.681294,0.396282,-0.493334,0
32850,-0.685437,0.380806,-0.485398,0
32870,-0.689206,0.356622,-0.475878,0
32890,-0.681401,0.322741,-0.461424,0
32910,-0.676613,0.281254,-0.449315,0
32930,-0.677632,0.241587,-0.436791,0
32950,-0.68243,0.198071,-0.423496,0
32970,-0.690037,0.153003,-0.409492,0
32990,-0.697896,0.108109,-0.395675,0
33010,-0.706717,0.064379,-0.381797,0
33030,-0.717903,0.0232054,-0.366976,0
33050,-0.73178,-0.015504,-0.351803,0
33070,-0.746702,-0.0513989,-0.336883,0
33090,-0.761695,-0.0837747,-0.322426,0
33110,-0.776619,-0.112623,-0.308762,0
33130,-0.791397,-0.136861,-0.29706,0
33150,-0.805905,-0.156825,-0.287158,0
33170,-0.81916,-0.173656,-0.279254,0
33190,-0.830972,-0.188218,-0.271996,0
33210,-0.840177,-0.201479,-0.266172,0
33230,-0.847078,-0.213733,-0.262279,0
33250,-0.853583,-0.224837,-0.25924,0
33270,-0.859319,-0.235252,-0.257295,0
33290,-0.863892,-0.24483,-0.256591,0
33310,-0.866977,-0.253378,-0.256524,0
33330,-0.869218,-0.260599,-0.256843,0
33350,-0.872116,-0.266632,-0.256655,0
33370,-0.874851,-0.271312,-0.256829,0
33390,-0.877109,-0.274597,-0.257101,0
33410,-0.878874,-0.276987,-0.257401,0
33430,-0.880206,-0.278482,-0.258254,0
33450,-0.882238,-0.278738,-0.258817,0
33470,-0.884624,-0.278429,-0.258626,0
33490,-0.886677,-0.277245,-0.258175,0
33510,-0.888673,-0.275555,-0.257283,0
33530,-0.890692,-0.273308,-0.256067,0
33550,-0.892848,-0.270416,-0.254359,0
33570,-0.895033,-0.266464,-0.252416,0
33590,-0.897513,-0.262657,-0.249828,0
33610,-0.899899,-0.259396,-0.247053,0
33630,-0.902093,-0.255881,-0.244379,0
33650,-0.904451,-0.25266,-0.241156,0
33670,-0.906245,-0.250033,-0.237709,0
33690,-0.907267,-0.247258,-0.235064,0
33710,-0.908436,-0.245001,-0.232332,0
33730,-0.910642,-0.243353,-0.229345,0
33750,-0.913043,-0.24156,-0.226312,0
33770,-0.915754,-0.239951,-0.222182,0
33790,-0.917406,-0.239164,-0.218699,0
33810,-0.918492,-0.237763,-0.215829,0
33830,-0.920181,-0.235927,-0.212724,0
33850,-0.921976,-0.234654,-0.209907,0
33870,-0.922603,-0.232874,-0.20781,0
33890,-0.923515,-0.230789,-0.20556,0
33910,-0.924787,-0.228686,-0.202919,0
33930,-0.924841,-0.226023,-0.20143,0
33950,-0.924491,-0.222772,-0.200261,0
33970,-0.92518,-0.220067,-0.19852,0
33990,-0.925729,-0.21785,-0.197764,0
34010,-0.926505,-0.216267,-0.197379,0
34030,-0.926557,-0.215331,-0.19714,0
34050,-0.925725,-0.215193,-0.197113,0
34070,-0.925058,-0.215289,-0.196693,0
34090,-0.924735,-0.216084,-0.196733,0
34110,-0.925622,-0.217504,-0.197382,0
34140,-0.926834,-0.220606,-0.197715,0
34160,-0.927069,-0.221844,-0.197652,0
34180,-0.929035,-0.22308,-0.196797,0
34200,-0.931198,-0.224722,-0.196396,0
34220,-0.932559,-0.225406,-0.196243,0
34240,-0.93268,-0.225693,-0.196228,0
34260,-0.932834,-0.225877,-0.196282,0
34280,-0.933468,-0.22677,-0.196487,0
34300,-0.93411,-0.227438,-0.196516,0
34320,-0.935234,-0.227768,-0.196286,0
34340,-0.935498,-0.227637,-0.196758,0
34360,-0.935321,-0.228015,-0.197285,0
34380,-0.935831,-0.228292,-0.197665,0
34400,-0.936786,-0.228389,-0.19783,0
34420,-0.938079,-0.228345,-0.197355,0
34440,-0.939168,-0.229222,-0.197123,0
34460,-0.939629,-0.230606,-0.197798,0
34480,-0.939685,-0.231455,-0.198628,0
34500,-0.941174,-0.232209,-0.198559,0
34520,-0.942866,-0.232596,-0.198263,0
34540,-0.942833,-0.232698,-0.198192,0
34560,-0.942911,-0.234312,-0.198363,0
34580,-0.943766,-0.236187,-0.199331,0
34600,-0.945124,-0.236829,-0.199619,0
34620,-0.945983,-0.237017,-0.199186,0
34640,-0.946174,-0.237404,-0.198283,0
34660,-0.946138,-0.237564,-0.198327,0
34680,-0.946712,-0.237891,-0.197986,0
34700,-0.946946,-0.237783,-0.196918,0
34720,-0.946822,-0.238412,-0.196037,0
34740,-0.94667,-0.239279,-0.195897,0
34760,-0.946668,-0.239447,-0.195958,0
34780,-0.9471,-0.240415,-0.195302,0
34800,-0.947411,-0.241205,-0.194609,0
34820,-0.947382,-0.241695,-0.194491,0
34840,-0.947614,-0.242502,-0.194913,0
34860,-0.948238,-0.243243,-0.195615,0
34880,-0.9482,-0.243293,-0.195712,0
34900,-0.948361,-0.243421,-0.19565,0
34920,-0.948292,-0.243987,-0.196496,0
34940,-0.947911,-0.24446,-0.197244,0
34960,-0.948301,-0.245285,-0.197659,0
34980,-0.948225,-0.246219,-0.197875,0
35000,-0.947909,-0.246739,-0.197905,0
35020,-0.948066,-0.246925,-0.197958,0
35040,-0.948256,-0.247673,-0.198532,0
35060,-0.948345,-0.247981,-0.199364,0
35080,-0.948615,-0.247459,-0.199599,0
35100,-0.94879,-0.247413,-0.199193,0
35120,-0.947661,-0.247688,-0.199281,0
35140,-0.947445,-0.24823,-0.199853,0
35160,-0.947957,-0.248957,-0.200297,0
35180,-0.948361,-0.249332,-0.200359,0
35190,-0.948485,-0.249342,-0.200334,0
35210,-0.948521,-0.250047,-0.199558,0
35230,-0.948516,-0.250105,-0.199673,0
35250,-0.949764,-0.249788,-0.199727,0
35270,-0.951233,-0.249873,-0.199177,0
35290,-0.951711,-0.250067,-0.198344,0
35310,-0.951016,-0.250477,-0.197752,0
35340,-0.953339,-0.249751,-0.196965,0
35360,-0.954501,-0.249095,-0.196942,0
35380,-0.954143,-0.249307,-0.195874,0
35400,-0.953659,-0.249677,-0.194892,0
35420,-0.953381,-0.249869,-0.194818,0
35440,-0.954074,-0.249934,-0.194724,0
35460,-0.954556,-0.249958,-0.193831,0
35480,-0.954198,-0.250339,-0.192824,0
35500,-0.953443,-0.251013,-0.191714,0
35520,-0.952626,-0.251584,-0.191208,0
35540,-0.952754,-0.252516,-0.190563,0
35560,-0.953131,-0.252634,-0.189358,0
35580,-0.954122,-0.25236,-0.187751,0
35600,-0.954674,-0.253021,-0.185682,0
35620,-0.954328,-0.253514,-0.184621,0
35640,-0.954286,-0.254306,-0.183248,2000
35660,-0.954611,-0.254775,-0.180887,0
35680,-0.954585,-0.25545,-0.179285,0
35700,-0.954811,-0.25631,-0.177691,0
35720,-0.955162,-0.257092,-0.176709,0
35740,-0.9574,-0.257865,-0.175162,0
35760,-0.959322,-0.258433,-0.173573,0
35780,-0.960107,-0.259093,-0.172767,0
35800,-0.959548,-0.259577,-0.172264,0
35820,-0.959039,-0.259749,-0.171959,0
35840,-0.960121,-0.259641,-0.170651,0
35860,-0.960653,-0.258596,-0.169303,0
35880,-0.962654,-0.257719,-0.16917,0
35900,-0.964503,-0.257273,-0.169111,0
35920,-0.965541,-0.256788,-0.168423,0
35940,-0.966079,-0.256357,-0.167201,0
35960,-0.966887,-0.256127,-0.166286,0
35980,-0.968046,-0.255876,-0.165746,0
36000,-0.96987,-0.25536,-0.165561,0
36020,-0.970771,-0.254984,-0.165129,0
36040,-0.969138,-0.254993,-0.164564,0
36060,-0.966958,-0.255057,-0.163731,0
36080,-0.965334,-0.255179,-0.163111,0
36100,-0.965659,-0.254958,-0.162339,0
36120,-0.965877,-0.254351,-0.16166,0
36140,-0.96641,-0.253978,-0.160554,0
36160,-0.966525,-0.254174,-0.15933,0
36180,-0.967092,-0.254324,-0.157367,0
36200,-0.968289,-0.25429,-0.154896,0
36220,-0.969138,-0.254917,-0.153241,0
36240,-0.969526,-0.255513,-0.151912,0
36260,-0.970304,-0.256164,-0.149548,0
36280,-0.970602,-0.256789,-0.145955,0
36300,-0.971006,-0.258282,-0.143189,0
36320,-0.970349,-0.259834,-0.14133,0
36340,-0.970145,-0.261059,-0.138731,0
36360,-0.970735,-0.263,-0.135713,0
36380,-0.970766,-0.264673,-0.132597,0
36400,-0.971288,-0.266342,-0.130125,0
36420,-0.972676,-0.268386,-0.127357,0
36440,-0.97341,-0.270169,-0.124532,0
36460,-0.973721,-0.27188,-0.121937,0
36480,-0.973647,-0.273711,-0.118883,0
36500,-0.974326,-0.275454,-0.115216,0
36520,-0.975565,-0.276919,-0.111937,0
36540,-0.977053,-0.278187,-0.109013,0
36560,-0.977523,-0.27939,-0.106215,0
36580,-0.978034,-0.280524,-0.103021,0
36600,-0.97856,-0.282059,-0.10005,0
36610,-0.978694,-0.283385,-0.098079,0
36630,-0.978377,-0.284744,-0.0962726,0
36650,-0.978424,-0.286671,-0.0941406,0
36670,-0.977684,-0.288955,-0.092595,0
36690,-0.976181,-0.291669,-0.091766,0
36710,-0.974613,-0.294807,-0.0904438,0
36730,-0.973383,-0.298357,-0.0890263,0
36750,-0.9727,-0.302015,-0.088733,0
36770,-0.972649,-0.305608,-0.0889525,0
36790,-0.971648,-0.309117,-0.0892332,0
36810,-0.971357,-0.313095,-0.0894434,0
36830,-0.971012,-0.3168,-0.0899407,0
36850,-0.969987,-0.320712,-0.0912575,0
36870,-0.969841,-0.324631,-0.0926287,0
36890,-0.968792,-0.328703,-0.0939997,0
36910,-0.967813,-0.333249,-0.0954517,0
36930,-0.967093,-0.337797,-0.0968487,0
36950,-0.965491,-0.34213,-0.0983406,0
36970,-0.964117,-0.346758,-0.0995414,0
36990,-0.963022,-0.3515,-0.10063,0
37010,-0.962261,-0.356253,-0.101388,0
37030,-0.961005,-0.360776,-0.102639,0
37050,-0.960174,-0.365084,-0.103637,0
37070,-0.959429,-0.369191,-0.105025,0
37090,-0.958494,-0.372962,-0.106624,0
37110,-0.95838,-0.376387,-0.107592,0
37130,-0.958774,-0.379158,-0.108501,0
37140,-0.958576,-0.381454,-0.109472,0
37160,-0.958301,-0.384633,-0.110288,0
37180,-0.95777,-0.388529,-0.111215,0
37200,-0.956911,-0.392178,-0.112843,0
37220,-0.956418,-0.395885,-0.114457,0
37240,-0.955443,-0.400159,-0.116247,0
37260,-0.954379,-0.404937,-0.117961,0
37280,-0.953284,-0.409157,-0.119691,0
37300,-0.952835,-0.414331,-0.121431,0
37320,-0.952719,-0.419848,-0.12346,0
37340,-0.952006,-0.425803,-0.126517,0
37360,-0.950547,-0.431749,-0.130603,0
37380,-0.949027,-0.436781,-0.134584,0
37400,-0.947434,-0.440925,-0.138773,0
37420,-0.947245,-0.444132,-0.143618,0
37440,-0.946922,-0.447029,-0.149787,0
37460,-0.946664,-0.449587,-0.156088,0
37480,-0.946377,-0.451136,-0.162338,0
37500,-0.94478,-0.452706,-0.168855,0
37520,-0.942684,-0.454622,-0.17571,0
37540,-0.941156,-0.457023,-0.181953,0
37560,-0.939607,-0.45907,-0.18754,0
37580,-0.937793,-0.461139,-0.193562,0
37600,-0.936466,-0.462748,-0.199317,0
37620,-0.935069,-0.46344,-0.205225,0
37640,-0.933358,-0.464403,-0.21153,0
37660,-0.930993,-0.465794,-0.21815,0
37680,-0.928509,-0.466934,-0.22463,0
37700,-0.925766,-0.468297,-0.23195,0
37720,-0.923265,-0.470004,-0.239315,0
37740,-0.92059,-0.471919,-0.246922,0
37760,-0.918265,-0.473467,-0.254224,0
37780,-0.915428,-0.475343,-0.26189,0
37800,-0.912312,-0.477505,-0.270005,0
37820,-0.910472,-0.480078,-0.277797,0
37840,-0.908332,-0.482583,-0.285348,0
37860,-0.905889,-0.485044,-0.292993,0
37880,-0.903561,-0.487508,-0.300076,0
37900,-0.901326,-0.489631,-0.307272,0
37920,-0.899491,-0.491487,-0.314848,0
37940,-0.897678,-0.492923,-0.32214,0
37960,-0.895588,-0.494323,-0.329012,0
37980,-0.892562,-0.49645,-0.335655,0
38000,-0.889702,-0.499009,-0.342807,0
38020,-0.88739,-0.500987,-0.350456,0
38040,-0.88513,-0.503371,-0.357817,0
38060,-0.882383,-0.506085,-0.364738,0
38080,-0.878967,-0.509117,-0.372472,0
38100,-0.87581,-0.512429,-0.380911,0
38120,-0.872977,-0.515922,-0.389823,0
38140,-0.870025,-0.518993,-0.39937,0
38160,-0.866848,-0.521676,-0.409426,0
38180,-0.863272,-0.524409,-0.420167,0
38200,-0.860124,-0.526242,-0.431367,0
38220,-0.856457,-0.528216,-0.443789,0
38240,-0.852327,-0.530258,-0.456464,0
38260,-0.847368,-0.532074,-0.468767,0
38280,-0.842381,-0.533328,-0.480897,0
38300,-0.837834,-0.534749,-0.492535,0
38320,-0.834719,-0.536656,-0.502834,0
38340,-0.831167,-0.538842,-0.51317,0
38360,-0.826825,-0.540947,-0.523492,0
38380,-0.822879,-0.543587,-0.53322,0
38400,-0.819356,-0.546152,-0.543083,0
38420,-0.815267,-0.548818,-0.554182,0
38440,-0.811446,-0.552317,-0.564892,0
38460,-0.80694,-0.55571,-0.574833,0
38480,-0.801062,-0.559368,-0.584864,0
38500,-0.794671,-0.563224,-0.595511,0
38520,-0.788888,-0.566471,-0.606795,0
38540,-0.784409,-0.568918,-0.617601,0
38560,-0.780433,-0.571739,-0.627477,0
38580,-0.77683,-0.574372,-0.635456,0
38600,-0.773026,-0.577097,-0.642189,0
38620,-0.769409,-0.57919,-0.648316,0
38640,-0.767321,-0.580656,-0.654071,0
38660,-0.765788,-0.581382,-0.659563,0
38680,-0.764678,-0.581672,-0.66407,0
38700,-0.762881,-0.581668,-0.668281,0
38720,-0.761156,-0.580951,-0.672441,0
38740,-0.758262,-0.580882,-0.676465,0
38760,-0.756533,-0.581533,-0.679417,0
38780,-0.754457,-0.58251,-0.683099,0
38800,-0.75172,-0.583282,-0.6876,0
38820,-0.750098,-0.584044,-0.691586,0
38840,-0.748602,-0.583814,-0.6963,0
38860,-0.747252,-0.582392,-0.70048,0
38880,-0.747373,-0.580281,-0.70378,0
38900,-0.748093,-0.577468,-0.707694,0
38920,-0.7474,-0.573859,-0.71165,0
38940,-0.745638,-0.570731,-0.715571,0
38960,-0.745985,-0.569251,-0.718836,0
38980,-0.746113,-0.567492,-0.721162,0
39000,-0.745965,-0.566068,-0.723556,0
39020,-0.746359,-0.565541,-0.72414,0
39040,-0.746359,-0.565541,-0.72414,0
39060,-0.746355,-0.564372,-0.724338,0
39080,-0.747217,-0.561605,-0.72472,0
39100,-0.749248,-0.557881,-0.723979,0
39120,-0.752039,-0.553974,-0.721894,0
39140,-0.753146,-0.550336,-0.719917,0
39160,-0.753982,-0.546927,-0.718739,0
39180,-0.755912,-0.542998,-0.717982,0
39200,-0.757993,-0.538755,-0.717056,0
39220,-0.759636,-0.534972,-0.716045,0
39240,-0.760211,-0.53082,-0.715213,0
39260,-0.759268,-0.527129,-0.715454,0
39280,-0.758028,-0.523884,-0.71572,0
39300,-0.757205,-0.520547,-0.716223,0
39320,-0.757336,-0.517223,-0.715269,0
39340,-0.756908,-0.514983,-0.714237,0
39360,-0.756215,-0.513197,-0.712925,0
39380,-0.756302,-0.511795,-0.710158,0
39400,-0.756839,-0.51098,-0.707652,0
39420,-0.757766,-0.509017,-0.704398,0
39440,-0.759143,-0.506231,-0.700115,0
39460,-0.760425,-0.503475,-0.696104,0
39480,-0.761373,-0.499946,-0.692165,0
39500,-0.762289,-0.495621,-0.687766,0
39520,-0.762777,-0.490804,-0.683849,0
39540,-0.764447,-0.486449,-0.679275,0
39560,-0.765271,-0.482659,-0.674024,0
39580,-0.766176,-0.479086,-0.668872,0
39600,-0.767285,-0.47601,-0.664249,0
39620,-0.7701,-0.473967,-0.658283,0
39640,-0.772763,-0.472053,-0.652675,0
39660,-0.775747,-0.469999,-0.647759,0
39680,-0.77865,-0.467851,-0.642135,0
39700,-0.78285,-0.465983,-0.635988,0
39720,-0.786873,-0.463404,-0.631429,0
39740,-0.789285,-0.460793,-0.626775,0
39760,-0.792448,-0.457405,-0.622513,0
39780,-0.793716,-0.453743,-0.619866,0
39800,-0.794229,-0.450499,-0.6161,0
39820,-0.795748,-0.448796,-0.610693,0
39840,-0.798021,-0.447147,-0.606211,0
39860,-0.799152,-0.445573,-0.602542,0
39880,-0.801907,-0.443997,-0.597259,0
39900,-0.804759,-0.442031,-0.592317,0
39920,-0.806523,-0.439751,-0.588146,0
39940,-0.808848,-0.437562,-0.582597,0
39960,-0.810908,-0.435767,-0.577542,0
39980,-0.8124,-0.434161,-0.572706,0
40000,-0.81439,-0.433508,-0.567229,0
40020,-0.816874,-0.433279,-0.561681,0
40040,-0.819194,-0.432414,-0.556422,0
40060,-0.821939,-0.431881,-0.55007,0
40080,-0.824573,-0.431305,-0.543456,0
40100,-0.826355,-0.430557,-0.537487,0
40120,-0.828027,-0.429369,-0.531514,0
40140,-0.830293,-0.428046,-0.526017,0
40160,-0.832577,-0.425791,-0.520291,0
40180,-0.834598,-0.423231,-0.514402,0
40200,-0.838029,-0.42108,-0.508396,0
40220,-0.840338,-0.418361,-0.503208,0
40240,-0.841247,-0.415982,-0.497679,0
40260,-0.842033,-0.414146,-0.491418,0
40280,-0.843545,-0.412655,-0.484521,0
40300,-0.84462,-0.411354,-0.478588,0
40320,-0.846154,-0.409935,-0.472997,0
40340,-0.848497,-0.408516,-0.466303,0
40360,-0.851924,-0.407489,-0.458023,0
40380,-0.854696,-0.405846,-0.450088,0
40400,-0.856843,-0.404233,-0.442652,0
40420,-0.860494,-0.402977,-0.433895,0
40440,-0.865018,-0.401494,-0.425614,0
40460,-0.868769,-0.399662,-0.417972,0
40480,-0.871437,-0.397756,-0.40977,0
40500,-0.874409,-0.395728,-0.401454,0
40520,-0.877263,-0.393836,-0.392988,0
40540,-0.880591,-0.39276,-0.384541,0
40550,-0.883896,-0.391658,-0.376084,0
40570,-0.886943,-0.390486,-0.367398,0
40590,-0.891048,-0.389821,-0.35812,0
40610,-0.893772,-0.389136,-0.34987,0
40630,-0.896656,-0.388342,-0.341339,0
40650,-0.901274,-0.387967,-0.33145,0
40670,-0.905907,-0.388578,-0.321922,0
40690,-0.909339,-0.388986,-0.31319,0
40710,-0.912716,-0.389524,-0.303985,0
40730,-0.916447,-0.390369,-0.29446,0
40750,-0.920355,-0.391006,-0.285827,0
40760,-0.924329,-0.391904,-0.276925,0
40780,-0.927592,-0.393197,-0.268873,0
40820,-0.934471,-0.394076,-0.253727,0
40840,-0.938088,-0.393976,-0.246167,0
40860,-0.940514,-0.393556,-0.239062,0
40900,-0.946736,-0.391542,-0.224526,0
40920,-0.951126,-0.390266,-0.216691,0
40940,-0.953891,-0.38858,-0.209295,0
40960,-0.957273,-0.387382,-0.201567,0
40980,-0.961904,-0.386563,-0.193352,0
41000,-0.966464,-0.385616,-0.184461,0
41020,-0.970238,-0.384684,-0.175423,0
41040,-0.974471,-0.384531,-0.166167,0
41060,-0.979143,-0.384956,-0.157109,0
41080,-0.983939,-0.385195,-0.148247,0
41100,-0.988742,-0.385431,-0.138669,0
41120,-0.992983,-0.386689,-0.128626,0
41140,-0.995578,-0.389185,-0.118567,0
41160,-0.997123,-0.393068,-0.108271,0
41180,-0.996983,-0.398665,-0.0992724,0
41200,-0.998831,-0.405054,-0.0903519,0
41220,-1.00177,-0.410722,-0.0813419,0
41240,-1.00516,-0.41633,-0.0710857,0
41260,-1.00736,-0.424101,-0.060965,0
41280,-1.00871,-0.432579,-0.0510333,0
41300,-1.01199,-0.440072,-0.0416276,0
41320,-1.01577,-0.44706,-0.0329517,0
41340,-1.01924,-0.453662,-0.0252069,0
41360,-1.02256,-0.45961,-0.0181103,0
41380,-1.02609,-0.464963,-0.0106742,0
41400,-1.02916,-0.470618,-0.00387606,0
41420,-1.03212,-0.476099,0.00221738,0
41440,-1.03553,-0.481023,0.00861284,0
41460,-1.03877,-0.486392,0.0149551,0
41480,-1.04068,-0.491367,0.0211858,0
41500,-1.0433,-0.495809,0.0280254,0
41520,-1.04506,-0.500341,0.0347485,0
41540,-1.0467,-0.505196,0.0406325,0
41560,-1.04952,-0.509186,0.0463014,0
41580,-1.05313,-0.512647,0.052526,0
41600,-1.05593,-0.516837,0.0588304,0
41620,-1.05856,-0.521265,0.0652275,0
41640,-1.06138,-0.525265,0.0708747,0
41660,-1.0638,-0.530116,0.0754835,0
41680,-1.06617,-0.534854,0.0803034,0
41700,-1.06737,-0.539197,0.0853027,0
41720,-1.06669,-0.544563,0.0896665,0
41740,-1.06657,-0.550677,0.0926816,0
41760,-1.06627,-0.556488,0.0938747,0
41780,-1.06691,-0.561819,0.0950766,0
41800,-1.06852,-0.56744,0.0967657,0
41820,-1.06915,-0.573216,0.0974968,0
41840,-1.06789,-0.579378,0.0971425,0
41860,-1.06728,-0.585452,0.0968772,0
41880,-1.06561,-0.591295,0.0954383,0
41900,-1.06332,-0.597689,0.0926369,0
41920,-1.06201,-0.604626,0.0896783,0
41940,-1.06068,-0.611708,0.087161,0
41960,-1.05642,-0.620086,0.0832777,0
41980,-1.05236,-0.628397,0.0797304,0
42000,-1.04994,-0.636339,0.0764681,0
42020,-1.04928,-0.643203,0.0739459,0
42040,-1.04949,-0.648559,0.0711486,0
42060,-1.05043,-0.653606,0.0692007,0
42080,-1.05123,-0.658054,0.0669083,0
42100,-1.05096,-0.663047,0.063851,0
42120,-1.05216,-0.667669,0.0624854,0
42140,-1.05441,-0.672048,0.0615018,0
42160,-1.05658,-0.676925,0.0597551,0
42180,-1.05711,-0.681239,0.0573559,0
42200,-1.05826,-0.685246,0.0550106,0
42220,-1.05943,-0.689366,0.0524029,0
42240,-1.05936,-0.693416,0.0480157,0
42260,-1.05954,-0.696843,0.0439844,0
42280,-1.06003,-0.700433,0.0398102,0
42320,-1.05713,-0.709662,0.0288853,0
42340,-1.05536,-0.715168,0.0216522,0
42360,-1.05381,-0.721712,0.014005,0
42380,-1.05066,-0.729052,0.00380878,0
42400,-1.04606,-0.736301,-0.00840939,0
42420,-1.04114,-0.743861,-0.0203384,0
42440,-1.03587,-0.752818,-0.0318104,0
42460,-1.02964,-0.761422,-0.0450193,0
42480,-1.02237,-0.769448,-0.0604394,0
42500,-1.01537,-0.776842,-0.0761379,0
42510,-1.00808,-0.783641,-0.0910503,0
42530,-0.998477,-0.790383,-0.106925,0
42550,-0.986984,-0.797368,-0.124422,0
42570,-0.97627,-0.804058,-0.141541,0
42590,-0.965384,-0.810587,-0.159762,0
42610,-0.953089,-0.816275,-0.180229,0
42620,-0.928886,-0.825316,-0.221144,0
42640,-0.917203,-0.828738,-0.240133,0
42660,-0.904801,-0.831468,-0.259625,0
42680,-0.891809,-0.833691,-0.279949,0
42700,-0.879249,-0.835023,-0.299943,0
42720,-0.866819,-0.836006,-0.320551,0
42740,-0.85419,-0.83685,-0.340472,0
42760,-0.841685,-0.837462,-0.359574,0
42780,-0.828457,-0.837925,-0.379458,0
42800,-0.815681,-0.838377,-0.399257,0
42820,-0.80467,-0.839095,-0.417651,0
42840,-0.794534,-0.840057,-0.434065,0
42860,-0.783992,-0.841382,-0.449422,0
42880,-0.775541,-0.843149,-0.463292,0
42900,-0.768329,-0.843818,-0.476927,0
42920,-0.761269,-0.844326,-0.49079,0
42940,-0.755585,-0.845547,-0.50185,0
42960,-0.750171,-0.847451,-0.511524,0
42980,-0.744693,-0.849337,-0.520693,0
43000,-0.740644,-0.851109,-0.530182,0
43020,-0.736766,-0.851576,-0.540957,0
43040,-0.733646,-0.85191,-0.550819,0
43060,-0.731551,-0.851957,-0.558322,0
43080,-0.72861,-0.851963,-0.566227,0
43100,-0.724642,-0.850739,-0.574303,0
43120,-0.721936,-0.848435,-0.582838,0
43140,-0.71948,-0.845234,-0.591941,0
43160,-0.716867,-0.841402,-0.599904,0
43180,-0.714071,-0.838595,-0.606958,0
43200,-0.711149,-0.836303,-0.613744,0
43220,-0.709082,-0.833382,-0.620197,0
43240,-0.707456,-0.829935,-0.627801,0
43260,-0.706072,-0.82628,-0.634149,0
43280,-0.704404,-0.823928,-0.639091,0
43300,-0.701212,-0.822085,-0.644787,0
43320,-0.697511,-0.819686,-0.651616,0
43340,-0.695399,-0.815309,-0.658421,0
43360,-0.692099,-0.811071,-0.665793,0
43380,-0.688267,-0.808186,-0.670638,0
43400,-0.683277,-0.806994,-0.67517,0
43420,-0.677664,-0.805358,-0.6809,0
43440,-0.673212,-0.802996,-0.68727,0
43460,-0.670362,-0.8001,-0.692407,0
43480,-0.667194,-0.796902,-0.697846,0
43500,-0.664965,-0.793378,-0.702546,0
43520,-0.663893,-0.789269,-0.705139,0
43540,-0.663109,-0.783549,-0.7079,0
43560,-0.66035,-0.777758,-0.711983,0
43580,-0.658508,-0.771947,-0.714449,0
43600,-0.658181,-0.766375,-0.71618,0
43620,-0.657802,-0.759149,-0.718597,0
43640,-0.658039,-0.752355,-0.720743,0
43660,-0.658761,-0.747481,-0.719819,0
43680,-0.658498,-0.744151,-0.71868,0
43700,-0.657877,-0.740211,-0.718432,0
43720,-0.658738,-0.735664,-0.718344,0
43740,-0.661269,-0.731085,-0.716756,0
43760,-0.664219,-0.726001,-0.714548,0
43780,-0.666692,-0.720347,-0.713147,0
43800,-0.669901,-0.714167,-0.711053,0
43820,-0.672674,-0.707596,-0.707959,0
43840,-0.673738,-0.701554,-0.705308,0
43860,-0.675069,-0.696014,-0.703191,0
43880,-0.677977,-0.690103,-0.701062,0
43900,-0.681382,-0.683795,-0.69848,0
43920,-0.684582,-0.678317,-0.695782,0
43940,-0.687032,-0.673048,-0.692801,0
43960,-0.688656,-0.667964,-0.689843,0
43980,-0.69119,-0.663004,-0.685678,0
44000,-0.693379,-0.657544,-0.682808,0
44020,-0.695995,-0.652384,-0.679052,0
44040,-0.699635,-0.6481,-0.67404,0
44060,-0.702517,-0.643768,-0.670275,0
44080,-0.70633,-0.639919,-0.66517,0
44100,-0.710899,-0.636554,-0.659524,0
44120,-0.713681,-0.632694,-0.656006,0
44140,-0.716815,-0.628283,-0.653113,0
44160,-0.721561,-0.62405,-0.647893,0
44180,-0.725933,-0.620073,-0.643301,0
44200,-0.728822,-0.615095,-0.639447,0
44220,-0.730571,-0.609979,-0.636401,0
44240,-0.732285,-0.605775,-0.633838,0
44260,-0.733248,-0.602026,-0.630884,0
44280,-0.732737,-0.598442,-0.628684,0
44300,-0.731388,-0.595237,-0.626912,0
44320,-0.730217,-0.592817,-0.623955,0
44340,-0.730416,-0.590327,-0.621098,0
44360,-0.730541,-0.587026,-0.618632,0
44380,-0.730923,-0.583809,-0.615517,0
44400,-0.733122,-0.580763,-0.611126,0
44420,-0.736809,-0.577051,-0.606339,0
44440,-0.739408,-0.57303,-0.602187,0
44460,-0.743249,-0.569916,-0.59596,0
44480,-0.747434,-0.567432,-0.590218,0
44500,-0.750131,-0.564763,-0.586291,0
44520,-0.754227,-0.563263,-0.580742,0
44540,-0.76058,-0.562782,-0.573711,0
44560,-0.765322,-0.561244,-0.568493,0
44580,-0.769072,-0.559426,-0.563254,0
44600,-0.774057,-0.557874,-0.557614,0
44620,-0.777657,-0.555642,-0.55343,0
44640,-0.780006,-0.553084,-0.549342,0
44660,-0.782042,-0.551504,-0.544935,0
44680,-0.784589,-0.549651,-0.540762,0
44700,-0.787169,-0.547436,-0.536364,0
44720,-0.787902,-0.545636,-0.531999,0
44740,-0.789944,-0.543995,-0.526973,0
44760,-0.792362,-0.542847,-0.52151,0
44780,-0.795246,-0.542227,-0.515688,0
44800,-0.797267,-0.541088,-0.510023,0
44820,-0.799591,-0.540064,-0.503225,0
44840,-0.803779,-0.539891,-0.495416,0
44860,-0.808606,-0.538321,-0.48828,0
44880,-0.813507,-0.535921,-0.481127,0
44900,-0.820271,-0.533969,-0.472205,0
44920,-0.827308,-0.530764,-0.463461,0
44940,-0.832852,-0.527495,-0.454897,0
44960,-0.839226,-0.525686,-0.445129,0
44980,-0.84742,-0.523713,-0.435329,0
45000,-0.854797,-0.520949,-0.426268,0
45020,-0.862792,-0.519551,-0.415223,0
45040,-0.870395,-0.518636,-0.405014,0
45060,-0.876629,-0.51631,-0.39543,0
45080,-0.883863,-0.51541,-0.38431,0
45100,-0.891493,-0.515267,-0.374297,0
45120,-0.89792,-0.514001,-0.36481,0
45140,-0.904053,-0.513286,-0.354227,0
45160,-0.911356,-0.513014,-0.343155,0
45180,-0.919144,-0.511378,-0.33198,0
45200,-0.926535,-0.510015,-0.320618,0
45220,-0.935856,-0.509351,-0.308097,0
45240,-0.947007,-0.507073,-0.294687,0
45260,-0.95675,-0.504568,-0.281795,0
45280,-0.967193,-0.503758,-0.26748,0
45300,-0.977571,-0.502788,-0.253131,0
45320,-0.987168,-0.501976,-0.238363,0
45340,-0.995578,-0.502598,-0.224086,0
45360,-1.0043,-0.503283,-0.209939,0
45380,-1.01179,-0.503723,-0.196278,0
45400,-1.01831,-0.504939,-0.18225,0
45420,-1.02726,-0.506828,-0.166798,0
45440,-1.03377,-0.508753,-0.152245,0
45460,-1.03928,-0.510907,-0.138797,0
45480,-1.04578,-0.513611,-0.124762,0
45500,-1.05318,-0.516406,-0.111145,0
45520,-1.05869,-0.519589,-0.0991587,0
45540,-1.0623,-0.523446,-0.0877767,0
45560,-1.0661,-0.528671,-0.0749554,0
45580,-1.06832,-0.535786,-0.0626469,0
45600,-1.06958,-0.544508,-0.0527874,0
45620,-1.07113,-0.554402,-0.0440238,0
45640,-1.07449,-0.564361,-0.0347225,0
45660,-1.07782,-0.573676,-0.0240781,0
45680,-1.08113,-0.58314,-0.0116596,0
45700,-1.08349,-0.593659,0.00026985,0
45720,-1.08596,-0.603941,0.0106979,0
45740,-1.09087,-0.612823,0.0215337,0
45760,-1.09631,-0.621062,0.0316449,0
45780,-1.10166,-0.628924,0.0421543,0
45800,-1.1084,-0.63604,0.0545634,0
45820,-1.11379,-0.643086,0.065433,0
45840,-1.11916,-0.650149,0.0756437,0
45860,-1.12634,-0.6564,0.0878578,0
45880,-1.13484,-0.663862,0.101052,0
45890,-1.14195,-0.671568,0.11319,0
45910,-1.14872,-0.679257,0.123594,0
45930,-1.15769,-0.68687,0.134548,0
45950,-1.16657,-0.694189,0.145174,0
45970,-1.17337,-0.701715,0.155013,0
45990,-1.179,-0.709965,0.163729,0
46010,-1.1836,-0.71838,0.170719,0
46030,-1.18769,-0.726642,0.175971,0
46050,-1.19234,-0.7338,0.181107,0
46070,-1.19677,-0.740588,0.185518,0
46090,-1.19868,-0.748013,0.188147,0
46110,-1.20016,-0.755586,0.190993,0
46130,-1.20372,-0.763118,0.195249,0
46150,-1.20647,-0.7709,0.198441,0
46170,-1.208,-0.778349,0.198842,0
46190,-1.20951,-0.786148,0.197828,0
46210,-1.21211,-0.793751,0.197622,0
46230,-1.21241,-0.802869,0.195581,0
46250,-1.21015,-0.812062,0.191134,0
46270,-1.20779,-0.821311,0.186093,0
46290,-1.20469,-0.830011,0.179763,0
46310,-1.20117,-0.838057,0.173057,0
46330,-1.1977,-0.846737,0.167049,0
46350,-1.19515,-0.854187,0.16097,0
46370,-1.19141,-0.861228,0.153514,0
46390,-1.18897,-0.867138,0.147673,0
46410,-1.18712,-0.874785,0.142673,0
46430,-1.18626,-0.88217,0.138942,0
46450,-1.18632,-0.889567,0.135099,0
46470,-1.18539,-0.897218,0.129734,0
46490,-1.18482,-0.904129,0.1248,0
46510,-1.18413,-0.911191,0.120412,0
46530,-1.18217,-0.918553,0.114699,0
46550,-1.17913,-0.925539,0.106564,0
46570,-1.17503,-0.932223,0.0970524,0
46590,-1.172,-0.938352,0.0888181,0
46610,-1.16759,-0.944041,0.0788637,0
46630,-1.16111,-0.95014,0.0666639,0
46650,-1.15518,-0.956885,0.054865,0
46670,-1.14986,-0.964216,0.0423698,0
46690,-1.14194,-0.971583,0.0268768,0
46710,-1.13205,-0.97938,0.00974132,0
46730,-1.12004,-0.987593,-0.00895729,0
46750,-1.10754,-0.996565,-0.0273241,0
46770,-1.09542,-1.00529,-0.0461659,0
46790,-1.08226,-1.01242,-0.0672782,0
46810,-1.06904,-1.02044,-0.0881392,0
46830,-1.05783,-1.02908,-0.106372,0
46850,-1.04527,-1.03857,-0.126374,0
46870,-1.03224,-1.04807,-0.147516,0
46890,-1.01889,-1.05652,-0.170155,0
46910,-1.00443,-1.06383,-0.193786,0
46930,-0.987733,-1.07152,-0.218074,0
46950,-0.970186,-1.07889,-0.242635,0
46970,-0.95184,-1.08535,-0.268756,0
46990,-0.935195,-1.09086,-0.293698,0
47010,-0.920225,-1.09531,-0.316904,0
47030,-0.90475,-1.0993,-0.339951,0
47050,-0.889447,-1.10261,-0.36246,0
47070,-0.875376,-1.10403,-0.384459,0
47090,-0.859944,-1.10383,-0.407593,0
47110,-0.845001,-1.10215,-0.428942,0
47130,-0.834721,-1.09896,-0.445641,0
47150,-0.82449,-1.09411,-0.462717,0
47170,-0.815574,-1.088,-0.47856,0
47190,-0.809842,-1.08124,-0.489649,0
47210,-0.80431,-1.0748,-0.500023,0
47230,-0.796559,-1.06788,-0.511485,0
47250,-0.789775,-1.06024,-0.522704,0
47270,-0.782769,-1.05147,-0.535364,0
47290,-0.776865,-1.04326,-0.545579,0
47310,-0.772674,-1.03573,-0.552459,0
47330,-0.766308,-1.02864,-0.561866,0
47350,-0.759738,-1.02061,-0.571643,0
47370,-0.754731,-1.01286,-0.580536,0
47390,-0.750961,-1.00675,-0.586371,0
47410,-0.747756,-1.0015,-0.590518,0
47430,-0.74485,-0.996839,-0.594675,0
47450,-0.742362,-0.991079,-0.599701,0
47470,-0.743838,-0.983277,-0.602426,0
47490,-0.74721,-0.975854,-0.601009,0
47510,-0.75223,-0.969973,-0.595704,0
47530,-0.756542,-0.965512,-0.591562,0
47550,-0.759272,-0.960893,-0.588579,0
47570,-0.765049,-0.956997,-0.583367,0
47590,-0.774563,-0.952649,-0.575877,0
47610,-0.780946,-0.946887,-0.572175,0
47630,-0.786247,-0.941875,-0.567581,0
47650,-0.793423,-0.938324,-0.559442,0
47670,-0.798374,-0.934469,-0.55467,0
47690,-0.800322,-0.929029,-0.55448,0
47710,-0.802871,-0.922412,-0.55509,0
47730,-0.807488,-0.915738,-0.552699,0
47750,-0.810985,-0.908545,-0.549774,0
47770,-0.810113,-0.902419,-0.549103,0
47790,-0.808153,-0.896682,-0.549811,0
47810,-0.807905,-0.890202,-0.550885,0
47830,-0.809886,-0.883848,-0.550276,0
47850,-0.811728,-0.877687,-0.547408,0
47870,-0.812157,-0.872271,-0.544995,0
47880,-0.812286,-0.868273,-0.543061,0
47900,-0.811131,-0.863739,-0.542533,0
47920,-0.812125,-0.858052,-0.54238,0
47940,-0.817207,-0.851732,-0.538328,0
47960,-0.822354,-0.847365,-0.532535,0
47980,-0.825511,-0.845562,-0.524325,0
48000,-0.827715,-0.845445,-0.51822,0
48020,-0.830713,-0.843502,-0.513161,0
48040,-0.837439,-0.840327,-0.506265,0
48060,-0.843813,-0.837492,-0.498753,0
48080,-0.848747,-0.833972,-0.49117,0
48100,-0.853051,-0.830997,-0.483261,0
48120,-0.857676,-0.829172,-0.475675,0
48140,-0.863306,-0.826964,-0.466894,0
48160,-0.8675,-0.824859,-0.458139,0
48180,-0.87163,-0.823451,-0.449963,0
48200,-0.87651,-0.82221,-0.44103,0
48220,-0.879326,-0.820594,-0.434862,0
48240,-0.882568,-0.816689,-0.429752,0
48260,-0.890102,-0.81251,-0.421257,0
48280,-0.895422,-0.808637,-0.412641,0
48300,-0.897377,-0.804443,-0.406449,0
48320,-0.899371,-0.800607,-0.400633,0
48340,-0.903822,-0.79727,-0.393465,0
48360,-0.908617,-0.793996,-0.386216,0
48380,-0.913066,-0.791065,-0.379872,0
48400,-0.918122,-0.78814,-0.373946,0
48420,-0.922022,-0.78407,-0.369133,0
48440,-0.925354,-0.780321,-0.364529,0
48460,-0.928261,-0.777272,-0.358368,0
48480,-0.929878,-0.773758,-0.354074,0
48500,-0.930882,-0.769571,-0.351064,0
48520,-0.933652,-0.766199,-0.346802,0
48540,-0.936058,-0.762204,-0.341671,0
48560,-0.938424,-0.757835,-0.336429,0
48580,-0.940356,-0.754011,-0.332461,0
48600,-0.941511,-0.750265,-0.328362,0
48620,-0.943783,-0.746175,-0.323199,0
48640,-0.946814,-0.742346,-0.317527,0
48660,-0.949548,-0.738705,-0.3124,0
48680,-0.952145,-0.734674,-0.307455,0
48700,-0.955589,-0.731045,-0.302475,0
48720,-0.960013,-0.727029,-0.297014,0
48740,-0.964534,-0.722444,-0.291039,0
48760,-0.968184,-0.717652,-0.285766,0
48780,-0.971934,-0.713316,-0.280762,0
48800,-0.975957,-0.709294,-0.27542,0
48820,-0.980313,-0.705072,-0.270845,0
48840,-0.984288,-0.700889,-0.266338,0
48860,-0.98809,-0.697103,-0.261386,0
48880,-0.991006,-0.693866,-0.257152,0
48900,-0.994456,-0.690526,-0.252466,0
48920,-0.997552,-0.688041,-0.247212,0
48940,-0.999413,-0.686261,-0.242104,0
48960,-1.00154,-0.685063,-0.236111,0
48980,-1.00408,-0.685069,-0.228219,0
49000,-1.00646,-0.685809,-0.219926,0
49020,-1.00962,-0.687426,-0.210494,0
49040,-1.01333,-0.689717,-0.200704,0
49060,-1.01756,-0.691805,-0.191321,0
49080,-1.02338,-0.693897,-0.180698,0
49100,-1.02921,-0.695912,-0.168961,0
49120,-1.03368,-0.698272,-0.157785,0
49140,-1.03803,-0.702052,-0.146074,0
49160,-1.0451,-0.706076,-0.132024,0
49180,-1.05314,-0.709737,-0.117213,0
49200,-1.06004,-0.714099,-0.102674,0
49220,-1.06998,-0.718411,-0.0852522,0
49240,-1.08173,-0.722334,-0.0655388,0
49260,-1.09373,-0.72672,-0.0463783,0
49280,-1.10656,-0.731276,-0.0270205,0
49300,-1.11964,-0.735945,-0.00886254,0
49320,-1.13381,-0.740417,0.0101245,0
49340,-1.14819,-0.743935,0.0290214,0
49360,-1.16108,-0.747008,0.0457905,0
49380,-1.17222,-0.749426,0.0622761,0
49400,-1.18285,-0.752048,0.0789168,0
49420,-1.19168,-0.754727,0.092811,0
49440,-1.20039,-0.756669,0.10514,0
49460,-1.20922,-0.758155,0.117297,0
49480,-1.21847,-0.759622,0.129126,0
49500,-1.22637,-0.761002,0.140625,0
49520,-1.2326,-0.763378,0.151752,0
49540,-1.23902,-0.76656,0.162483,0
49560,-1.24661,-0.769944,0.173022,0
49580,-1.25424,-0.773644,0.183847,0
49600,-1.26196,-0.778047,0.19583,0
49620,-1.26957,-0.782563,0.208579,0
49640,-1.27657,-0.788015,0.220636,0
49660,-1.28314,-0.794085,0.231696,0
49680,-1.29035,-0.799459,0.242766,0
49700,-1.29717,-0.803958,0.253256,0
49720,-1.30241,-0.809835,0.262722,0
49740,-1.30859,-0.815955,0.273591,0
49760,-1.31563,-0.822544,0.283629,0
49780,-1.32319,-0.82861,0.292985,0
49800,-1.33178,-0.832865,0.302332,0
49820,-1.33823,-0.83737,0.310045,0
49840,-1.34465,-0.841705,0.318614,0
49860,-1.35181,-0.8456,0.327001,0
49880,-1.35665,-0.849996,0.333569,0
49900,-1.36201,-0.853357,0.339258,0
49920,-1.36814,-0.856961,0.345459,0
49940,-1.37434,-0.861225,0.352231,0
49960,-1.37995,-0.866985,0.358255,0
49980,-1.38734,-0.873325,0.365253,0
50000,-1.39559,-0.879775,0.372567,0
50020,-1.4036,-0.885091,0.379291,0
50040,-1.40916,-0.892141,0.384891,0
50060,-1.41496,-0.899583,0.390392,0
50080,-1.42103,-0.906231,0.395861,0
50100,-1.42584,-0.913412,0.399495,0
50120,-1.42823,-0.916495,0.399357,2001
50140,-1.42973,-0.919452,0.399809,0
50160,-1.43241,-0.923368,0.403192,0
50180,-1.43603,-0.928749,0.405838,0
50200,-1.43914,-0.934832,0.405889,0
50220,-1.44231,-0.938914,0.405153,0
50240,-1.44606,-0.939581,0.405056,0
50260,-1.44627,-0.940954,0.405422,0
50280,-1.44582,-0.943443,0.404795,0
50300,-1.44477,-0.946548,0.401521,0
50320,-1.44353,-0.948803,0.396371,0
50340,-1.44126,-0.949332,0.389045,0
50360,-1.43219,-0.947379,0.377486,0
50380,-1.41792,-0.941269,0.363528,0
50400,-1.39926,-0.935742,0.34507,0
50420,-1.37738,-0.927909,0.321688,0
50440,-1.35222,-0.917233,0.291767,0
50460,-1.32505,-0.904144,0.259579,0
50480,-1.3015,-0.888274,0.231309,0
50500,-1.27658,-0.872326,0.199646,0
50520,-1.2488,-0.855731,0.162327,0
50540,-1.22342,-0.835855,0.125405,0
50560,-1.19722,-0.814274,0.0903301,0
50580,-1.17074,-0.792871,0.0557798,0
50600,-1.1431,-0.768659,0.0208278,0
50620,-1.12028,-0.74189,-0.0124409,0
50640,-1.09914,-0.715172,-0.0409734,0
50660,-1.08104,-0.69076,-0.0652184,0
50680,-1.06609,-0.666857,-0.0839683,0
50700,-1.05498,-0.6437,-0.0971571,0
50720,-1.04835,-0.623131,-0.105641,0
50740,-1.04423,-0.605146,-0.112352,0
50760,-1.04041,-0.589444,-0.119223,0
50780,-1.03761,-0.57421,-0.122891,0
50800,-1.03675,-0.560176,-0.119825,0
50820,-1.03724,-0.549769,-0.114715,0
50840,-1.03773,-0.540884,-0.109714,0
50860,-1.03986,-0.530796,-0.106295,0
50880,-1.04294,-0.520462,-0.103132,0
50900,-1.04671,-0.509719,-0.0988049,0
50920,-1.04994,-0.498805,-0.0958959,0
50940,-1.05248,-0.487077,-0.0938209,0
50960,-1.05377,-0.475895,-0.093077,0
50980,-1.05436,-0.465899,-0.0913729,0
51000,-1.05494,-0.456795,-0.0887317,0
51020,-1.05567,-0.449275,-0.0889704,0
51040,-1.055,-0.442305,-0.0907978,0
51060,-1.0543,-0.434568,-0.0908348,0
51080,-1.05337,-0.428673,-0.091106,0
51100,-1.05085,-0.424136,-0.0924356,0
51120,-1.0474,-0.420362,-0.0936161,0
51140,-1.04408,-0.417679,-0.0956311,0
51160,-1.04317,-0.415011,-0.0964724,0
51180,-1.04185,-0.412893,-0.0971595,0
51200,-1.04014,-0.411508,-0.0972388,0
51220,-1.03808,-0.409987,-0.0961868,0
51240,-1.03665,-0.40879,-0.095515,0
51260,-1.03533,-0.407331,-0.0958435,0
51280,-1.03557,-0.403988,-0.0956707,0
51290,-1.03646,-0.401064,-0.0952968,2000
51310,-1.03377,-0.39864,-0.0948187,0
51330,-1.03168,-0.3959,-0.0941126,0
51350,-1.03116,-0.392946,-0.093573,0
51370,-1.03228,-0.39018,-0.0919167,0
51390,-1.03297,-0.38799,-0.091142,0
51410,-1.03279,-0.385889,-0.0915019,0
51430,-1.03211,-0.383193,-0.0909588,0
51450,-1.03261,-0.379954,-0.0893968,0
51470,-1.03245,-0.376462,-0.0880689,0
51490,-1.03241,-0.3738,-0.086413,0
51510,-1.03212,-0.371806,-0.0840008,0
51530,-1.03275,-0.369998,-0.0811792,0
51550,-1.03324,-0.368286,-0.0783182,0
51570,-1.03385,-0.367066,-0.0750406,0
51590,-1.03436,-0.366335,-0.0699149,0
51610,-1.03468,-0.36734,-0.0641332,0
51630,-1.03419,-0.369046,-0.0585236,0
51650,-1.03458,-0.37141,-0.0531008,0
51670,-1.03567,-0.374049,-0.0472505,0
51690,-1.03747,-0.376821,-0.0402144,0
51710,-1.0384,-0.380297,-0.0336146,0
51730,-1.03837,-0.384272,-0.0273397,0
51750,-1.03892,-0.387804,-0.0209076,0
51770,-1.03924,-0.39121,-0.0142963,0
51790,-1.03988,-0.394425,-0.00775876,0
51810,-1.04129,-0.397379,-0.00161792,0
51830,-1.04215,-0.400506,0.00436957,0
51850,-1.04143,-0.403996,0.0106744,0
51870,-1.04161,-0.407057,0.016651,0
51890,-1.04298,-0.409897,0.0220121,0
51910,-1.04395,-0.412685,0.0273994,0
51930,-1.04335,-0.415014,0.0325149,0
51950,-1.04243,-0.417459,0.0371568,0
51970,-1.04181,-0.42059,0.0414117,0
51990,-1.04127,-0.424483,0.0453864,0
52010,-1.03964,-0.429111,0.0491299,0
52030,-1.03696,-0.434372,0.0521084,0
52050,-1.03418,-0.439371,0.0547649,0
52070,-1.03215,-0.444468,0.0584595,0
52090,-1.02871,-0.450147,0.0618794,0
52110,-1.02534,-0.456283,0.0645306,0
52130,-1.02317,-0.46212,0.0674282,0
52150,-1.02092,-0.468477,0.0701636,0
52170,-1.01692,-0.475526,0.0734159,0
52190,-1.01347,-0.48224,0.0771504,0
52210,-1.01144,-0.489484,0.0802206,0
52230,-1.01173,-0.495615,0.0836121,0
52250,-1.01089,-0.501517,0.0859524,0
52270,-1.00977,-0.506885,0.0886609,0
52290,-1.00987,-0.511317,0.0925773,0
52310,-1.00883,-0.517228,0.0956384,0
52330,-1.00746,-0.523557,0.098485,0
52350,-1.00669,-0.52944,0.100676,0
52370,-1.00679,-0.534386,0.102048,0
52390,-1.00853,-0.539269,0.10463,0
52410,-1.0085,-0.544068,0.106018,0
52430,-1.00661,-0.548379,0.105824,0
52450,-1.00612,-0.552582,0.10744,0
52470,-1.00604,-0.557914,0.108672,0
52490,-1.0048,-0.563662,0.107787,0
52510,-1.00257,-0.569409,0.105105,0
52530,-1.00076,-0.574678,0.103126,0
52550,-0.999461,-0.580655,0.100994,0
52570,-0.996685,-0.587179,0.0966682,0
52590,-0.993449,-0.593801,0.0909228,0
52610,-0.990302,-0.599341,0.0852854,0
52630,-0.985725,-0.605503,0.0789121,0
52650,-0.979973,-0.612186,0.0722736,0
52670,-0.975667,-0.618058,0.0657936,0
52690,-0.972249,-0.623526,0.0591852,0
52710,-0.969375,-0.629482,0.0522878,0
52730,-0.965861,-0.635065,0.0455641,0
52750,-0.961388,-0.639872,0.0377719,0
52770,-0.957364,-0.644397,0.0289254,0
52790,-0.953216,-0.649383,0.0190857,0
52810,-0.948834,-0.653069,0.00935528,0
52830,-0.943906,-0.656415,4.6085e-06,0
52850,-0.93986,-0.660524,-0.00972654,0
52870,-0.935398,-0.664257,-0.0212312,0
52890,-0.93069,-0.667682,-0.0328566,0
52910,-0.926275,-0.672122,-0.0436089,0
52930,-0.921872,-0.676342,-0.0542473,0
52950,-0.916553,-0.680184,-0.066352,0
52970,-0.912107,-0.684395,-0.0777488,0
52990,-0.90833,-0.68834,-0.0875122,0
53010,-0.904708,-0.691938,-0.0969014,0
53030,-0.900339,-0.696208,-0.107441,0
53050,-0.897474,-0.699601,-0.117023,0
53070,-0.894637,-0.702692,-0.126546,0
53090,-0.890773,-0.705706,-0.13622,0
53110,-0.886204,-0.708804,-0.146732,0
53130,-0.88287,-0.711188,-0.156936,0
53150,-0.878597,-0.713794,-0.168452,0
53170,-0.873829,-0.71717,-0.180938,0
53190,-0.868692,-0.720176,-0.193838,0
53210,-0.863697,-0.722748,-0.206154,0
53230,-0.859112,-0.725419,-0.218206,0
53250,-0.853229,-0.727879,-0.231813,0
53270,-0.84775,-0.730231,-0.245058,0
53280,-0.842425,-0.732871,-0.258308,0
53300,-0.836019,-0.735483,-0.272544,0
53320,-0.828937,-0.73766,-0.28731,0
53340,-0.822201,-0.739709,-0.302568,0
53360,-0.815755,-0.741677,-0.317304,0
53380,-0.8084,-0.743753,-0.333302,0
53400,-0.801117,-0.745615,-0.349529,0
53420,-0.794424,-0.747499,-0.365507,0
53440,-0.787726,-0.748748,-0.382044,0
53460,-0.779821,-0.74906,-0.399109,0
53480,-0.77247,-0.750333,-0.414979,0
53500,-0.765505,-0.751948,-0.429344,0
53520,-0.757635,-0.752852,-0.445105,0
53540,-0.749754,-0.753173,-0.460381,0
53560,-0.743954,-0.752597,-0.474281,0
53580,-0.737105,-0.75106,-0.488874,0
53600,-0.729342,-0.749993,-0.503867,0
53620,-0.721791,-0.750704,-0.515725,0
53640,-0.713435,-0.753151,-0.52643,0
53660,-0.703787,-0.755791,-0.538512,0
53680,-0.697354,-0.759098,-0.548111,0
53700,-0.693178,-0.762802,-0.555393,0
53720,-0.688698,-0.766306,-0.563159,0
53740,-0.684563,-0.769341,-0.570545,0
53760,-0.680225,-0.772566,-0.577337,0
53780,-0.676968,-0.776525,-0.58231,0
53800,-0.672523,-0.780993,-0.587688,0
53820,-0.668503,-0.784278,-0.593471,0
53840,-0.666755,-0.786626,-0.597843,0
53860,-0.666146,-0.788367,-0.600713,0
53880,-0.665014,-0.789086,-0.603378,0
53900,-0.663846,-0.788587,-0.605872,0
53920,-0.664871,-0.786818,-0.607473,0
53940,-0.666449,-0.78475,-0.60942,0
53960,-0.666919,-0.781946,-0.61143,0
53980,-0.668171,-0.779505,-0.61195,0
54000,-0.670307,-0.777082,-0.611343,0
54020,-0.671226,-0.773905,-0.612707,0
54040,-0.67275,-0.770432,-0.61314,0
54060,-0.675906,-0.76787,-0.610951,0
54080,-0.67784,-0.765122,-0.610454,0
54100,-0.677702,-0.761844,-0.611669,0
54120,-0.678771,-0.758345,-0.611259,0
54140,-0.680728,-0.754787,-0.609577,0
54160,-0.6819,-0.749991,-0.608975,0
54180,-0.683167,-0.744126,-0.609012,0
54200,-0.685798,-0.738534,-0.607408,0
54220,-0.689308,-0.733348,-0.604364,0
54240,-0.691093,-0.72864,-0.602158,0
54260,-0.693768,-0.723749,-0.599641,0
54280,-0.697195,-0.718313,-0.597361,0
54300,-0.699893,-0.712576,-0.596325,0
54320,-0.702502,-0.706997,-0.594192,0
54340,-0.70441,-0.70143,-0.591823,0
54360,-0.704635,-0.696161,-0.589823,0
54380,-0.704846,-0.690541,-0.588895,0
54400,-0.706085,-0.684032,-0.58811,0
54420,-0.707803,-0.677594,-0.586419,0
54440,-0.708299,-0.67152,-0.583898,0
54460,-0.709248,-0.665526,-0.582057,0
54480,-0.710094,-0.658944,-0.58081,0
54500,-0.711718,-0.652289,-0.579013,0
54520,-0.713751,-0.645708,-0.576109,0
54540,-0.715225,-0.640266,-0.572544,0
54560,-0.717419,-0.635705,-0.568472,0
54580,-0.719846,-0.631449,-0.564256,0
54600,-0.72166,-0.627147,-0.561392,0
54620,-0.724259,-0.621981,-0.557787,0
54640,-0.727753,-0.616556,-0.554045,0
54660,-0.729183,-0.611709,-0.550654,0
54680,-0.730606,-0.607033,-0.546703,0
54700,-0.732458,-0.602601,-0.543559,0
54720,-0.734151,-0.598617,-0.540027,0
54740,-0.735386,-0.595613,-0.536632,0
54760,-0.736547,-0.592573,-0.534116,0
54780,-0.738234,-0.588898,-0.530981,0
54800,-0.740093,-0.585867,-0.527002,0
54820,-0.742019,-0.582866,-0.52275,0
54840,-0.743246,-0.578958,-0.519476,0
54860,-0.74544,-0.575552,-0.514731,0
54880,-0.749026,-0.573456,-0.50877,0
54900,-0.751707,-0.571052,-0.503453,0
54920,-0.755199,-0.568914,-0.497833,0
54940,-0.75963,-0.567688,-0.490779,0
54960,-0.763702,-0.566152,-0.483105,0
54980,-0.767081,-0.564847,-0.475601,0
55000,-0.770995,-0.563113,-0.468587,0
55020,-0.774986,-0.561394,-0.461311,0
55040,-0.779242,-0.560612,-0.452059,0
55060,-0.784493,-0.560834,-0.443132,0
55080,-0.787265,-0.560219,-0.435415,0
55100,-0.791647,-0.560095,-0.425883,0
55120,-0.797847,-0.560889,-0.415655,0
55140,-0.803514,-0.560604,-0.406514,0
55160,-0.807757,-0.559082,-0.3984,0
55180,-0.811341,-0.557773,-0.389199,0
55200,-0.81613,-0.55701,-0.379541,0
55220,-0.820483,-0.55529,-0.371118,0
55240,-0.824318,-0.55298,-0.362987,0
55260,-0.829029,-0.550918,-0.35402,0
55280,-0.833277,-0.548718,-0.34541,0
55300,-0.836691,-0.545889,-0.337185,0
55320,-0.840943,-0.543931,-0.328891,0
55340,-0.84542,-0.541764,-0.320945,0
55360,-0.85027,-0.538827,-0.312682,0
55380,-0.85465,-0.536848,-0.303885,0
55400,-0.857787,-0.534585,-0.295814,0
55420,-0.861572,-0.532836,-0.287072,0
55440,-0.866109,-0.531715,-0.277852,0
55460,-0.870956,-0.529989,-0.269269,0
55480,-0.875589,-0.527864,-0.26034,0
55500,-0.879648,-0.52736,-0.251399,0
55520,-0.883139,-0.526601,-0.243114,0
55540,-0.887562,-0.524436,-0.234387,0
55560,-0.893015,-0.522638,-0.224301,0
55580,-0.898229,-0.521911,-0.214054,0
55600,-0.903129,-0.520369,-0.203797,0
55620,-0.908749,-0.519547,-0.192513,0
55640,-0.916178,-0.519067,-0.18039,0
55660,-0.922984,-0.518355,-0.169033,0
55680,-0.92955,-0.517379,-0.156836,0
55700,-0.93613,-0.517753,-0.14383,0
55720,-0.942871,-0.518551,-0.131142,0
55740,-0.95099,-0.519732,-0.117173,0
55760,-0.959903,-0.521587,-0.10274,0
55780,-0.96862,-0.523452,-0.0882818,0
55800,-0.976702,-0.525182,-0.0744492,0
55820,-0.985491,-0.526928,-0.0597664,0
55840,-0.993911,-0.529114,-0.0443067,0
55860,-0.999964,-0.531824,-0.0293054,0
55880,-1.00678,-0.534917,-0.0156637,0
55900,-1.01556,-0.537845,-0.00151553,0
55920,-1.023,-0.541435,0.0122787,0
55940,-1.02936,-0.545207,0.0264072,0
55960,-1.03488,-0.550676,0.0401417,0
55980,-1.04025,-0.557177,0.053589,0
56000,-1.04593,-0.563665,0.0658024,0
56020,-1.0499,-0.570241,0.0771924,0
56040,-1.05475,-0.576842,0.0903567,0
56060,-1.06027,-0.583759,0.103136,0
56080,-1.06504,-0.590633,0.11503,0
56100,-1.07075,-0.597442,0.127068,0
56120,-1.07694,-0.604314,0.140422,0
56140,-1.08225,-0.611131,0.153419,0
56160,-1.08679,-0.618184,0.165356,0
56180,-1.09197,-0.624137,0.177028,0
56200,-1.09803,-0.629808,0.188883,0
56220,-1.10339,-0.635045,0.200978,0
56240,-1.10782,-0.641156,0.212637,0
56260,-1.11193,-0.647103,0.223727,0
56280,-1.11684,-0.651293,0.234229,0
56300,-1.12117,-0.65491,0.24355,0
56320,-1.12386,-0.658184,0.25264,0
56340,-1.12793,-0.661024,0.26197,0
56360,-1.1331,-0.663903,0.271296,0
56380,-1.13683,-0.668185,0.279467,0
56400,-1.14004,-0.673001,0.286168,0
56420,-1.14503,-0.677469,0.29401,0
56440,-1.15096,-0.681783,0.301941,0
56460,-1.15457,-0.686946,0.307473,0
56480,-1.15732,-0.692838,0.311403,0
56500,-1.16193,-0.699227,0.317252,0
56520,-1.16714,-0.707027,0.323053,0
56540,-1.17208,-0.715902,0.327793,0
56560,-1.17771,-0.723691,0.332526,0
56580,-1.18446,-0.731167,0.337756,0
56600,-1.19014,-0.738878,0.34169,0
56620,-1.19571,-0.745159,0.343985,0
56640,-1.19966,-0.751989,0.344577,0
56660,-1.20366,-0.758768,0.34651,0
56680,-1.20813,-0.766399,0.348281,0
56690,-1.21153,-0.773874,0.347646,0
56710,-1.21555,-0.779521,0.346723,0
56730,-1.21923,-0.78564,0.346213,0
56750,-1.2228,-0.792826,0.346048,0
56770,-1.2259,-0.799383,0.344264,0
56790,-1.22855,-0.805457,0.34081,0
56810,-1.22995,-0.811098,0.335025,0
56830,-1.22888,-0.815736,0.326286,0
56850,-1.22777,-0.820821,0.319797,0
56870,-1.22783,-0.826857,0.315388,0
56890,-1.22737,-0.834667,0.308781,0
56910,-1.22652,-0.840782,0.299918,0
56930,-1.22738,-0.846467,0.293194,0
56950,-1.22916,-0.852661,0.28808,0
56970,-1.22868,-0.859533,0.280252,0
56990,-1.22775,-0.866321,0.272277,0
57010,-1.22748,-0.872652,0.265057,0
57030,-1.22708,-0.878828,0.256853,0
57050,-1.22544,-0.884802,0.247142,0
57070,-1.22385,-0.890847,0.236322,0
57090,-1.22015,-0.897191,0.223769,0
57110,-1.21637,-0.903534,0.211691,0
57130,-1.21065,-0.909602,0.197186,0
57150,-1.20334,-0.914581,0.180945,0
57170,-1.19435,-0.919187,0.162456,0
57190,-1.18425,-0.924203,0.142183,0
57210,-1.17245,-0.929401,0.121949,0
57230,-1.1608,-0.934733,0.103122,0
57250,-1.14936,-0.940159,0.0831793,0
57270,-1.13676,-0.944858,0.0609765,0
57290,-1.12357,-0.949089,0.0382032,0
57310,-1.11056,-0.953256,0.0158242,0
57330,-1.0961,-0.95592,-0.00879322,0
57350,-1.08001,-0.958608,-0.0341483,0
57370,-1.06464,-0.961554,-0.0580273,0
57390,-1.04909,-0.965365,-0.0820103,0
57410,-1.03355,-0.968947,-0.106673,0
57430,-1.01793,-0.971781,-0.131802,0
57450,-1.00299,-0.97397,-0.154752,0
57470,-0.988262,-0.977338,-0.176092,0
57490,-0.974905,-0.981513,-0.195284,0
57510,-0.962424,-0.985935,-0.214117,0
57530,-0.95111,-0.989124,-0.233427,0
57550,-0.94216,-0.990902,-0.251965,0
57570,-0.934239,-0.991527,-0.269237,0
57590,-0.926507,-0.990439,-0.284733,0
57610,-0.91644,-0.991131,-0.300865,0
57630,-0.907109,-0.992764,-0.315825,0
57650,-0.898956,-0.993686,-0.329832,0
57670,-0.892365,-0.994298,-0.342193,0
57690,-0.887161,-0.995239,-0.352222,0
57710,-0.882864,-0.997119,-0.359772,0
57730,-0.881178,-0.999571,-0.364454,0
57750,-0.879717,-1.00093,-0.370277,0
57770,-0.879006,-0.999985,-0.376738,0
57790,-0.881342,-0.996641,-0.381052,0
57810,-0.882456,-0.992505,-0.3854,0
57830,-0.882466,-0.989205,-0.388858,0
57850,-0.882241,-0.9871,-0.390356,0
57870,-0.879917,-0.985682,-0.394181,0
57890,-0.877372,-0.983558,-0.398543,0
57910,-0.878805,-0.980641,-0.402085,0
57930,-0.87709,-0.977028,-0.409274,0
57950,-0.873583,-0.973244,-0.415934,0
57970,-0.871031,-0.970317,-0.420704,0
57990,-0.865968,-0.967756,-0.427343,0
58010,-0.861383,-0.965008,-0.433005,0
58030,-0.858959,-0.962256,-0.436928,0
58050,-0.856298,-0.958126,-0.442031,0
58070,-0.853437,-0.954054,-0.447122,0
58090,-0.8512,-0.949746,-0.450745,0
58110,-0.850169,-0.944869,-0.453673,0
58130,-0.849596,-0.939914,-0.455271,0
58150,-0.848198,-0.935499,-0.458253,0
58170,-0.845411,-0.930944,-0.461553,0
58190,-0.8448,-0.927379,-0.46275,0
58210,-0.844461,-0.923451,-0.464133,0
58230,-0.843664,-0.91749,-0.466978,0
58250,-0.843565,-0.910922,-0.469196,0
58270,-0.843947,-0.904923,-0.470177,0
58290,-0.841782,-0.898323,-0.472622,0
58310,-0.839398,-0.892543,-0.475956,0
58330,-0.836825,-0.887455,-0.480452,0
58350,-0.833769,-0.882157,-0.486035,0
58370,-0.831959,-0.876772,-0.490429,0
58390,-0.829165,-0.87185,-0.494325,0
58410,-0.824778,-0.866602,-0.499734,0
58430,-0.822613,-0.861485,-0.504097,0
58450,-0.821913,-0.856197,-0.506924,0
58470,-0.819741,-0.850815,-0.51023,0
58490,-0.816346,-0.846422,-0.51508,0
58510,-0.815494,-0.842203,-0.517862,0
58530,-0.816773,-0.838236,-0.518257,0
58550,-0.817791,-0.834328,-0.517875,0
58570,-0.818112,-0.831588,-0.517575,0
58590,-0.819646,-0.82824,-0.517303,0
58610,-0.821233,-0.824581,-0.517202,0
58630,-0.823287,-0.821532,-0.515417,0
58650,-0.825606,-0.818381,-0.513508,0
58660,-0.827319,-0.815089,-0.511559,0
58680,-0.828901,-0.811331,-0.509913,0
58700,-0.831027,-0.807303,-0.507324,0
58720,-0.834074,-0.803905,-0.503559,0
58740,-0.837441,-0.800958,-0.500684,0
58760,-0.839632,-0.797345,-0.498578,0
58780,-0.843617,-0.79543,-0.4934,0
58800,-0.846678,-0.794515,-0.488981,0
58820,-0.849434,-0.792526,-0.485216,0
58840,-0.853526,-0.789813,-0.480124,0
58860,-0.8576,-0.787459,-0.474687,0
58880,-0.860566,-0.785304,-0.4697,0
58900,-0.863439,-0.782732,-0.465095,0
58920,-0.867716,-0.77997,-0.460416,0
58940,-0.871535,-0.777299,-0.455754,0
58960,-0.873264,-0.773683,-0.452249,0
58980,-0.875527,-0.770235,-0.447859,0
59000,-0.880296,-0.767533,-0.442493,0
59020,-0.884385,-0.763986,-0.43874,0
59040,-0.887305,-0.759075,-0.435714,0
59060,-0.891031,-0.754718,-0.431032,0
59080,-0.894188,-0.751161,-0.427214,0
59100,-0.896806,-0.746796,-0.42468,0
59120,-0.900498,-0.742365,-0.421528,0
59140,-0.903074,-0.738531,-0.418971,0
59160,-0.904661,-0.735104,-0.416554,0
59180,-0.905946,-0.731741,-0.414464,0
59200,-0.907854,-0.728687,-0.411997,0
59220,-0.909684,-0.725253,-0.408351,0
59240,-0.911251,-0.722398,-0.404413,0
59260,-0.912792,-0.720579,-0.400294,0
59280,-0.914796,-0.718723,-0.397096,0
59300,-0.918648,-0.716579,-0.392924,0
59320,-0.923076,-0.714307,-0.386864,0
59340,-0.925235,-0.712515,-0.381903,0
59360,-0.928568,-0.711644,-0.376308,0
59380,-0.932477,-0.710532,-0.371211,0
59400,-0.936909,-0.70846,-0.366395,0
59420,-0.94219,-0.706798,-0.360261,0
59440,-0.946731,-0.705232,-0.355067,0
59460,-0.950521,-0.702603,-0.350279,0
59480,-0.954015,-0.700225,-0.346159,0
59500,-0.956614,-0.699211,-0.341708,0
59520,-0.958149,-0.698005,-0.337848,0
59540,-0.959836,-0.696223,-0.333899,0
59560,-0.9623,-0.694963,-0.328881,0
59580,-0.96553,-0.694066,-0.323554,0
59600,-0.968223,-0.693076,-0.318142,0
59620,-0.971714,-0.691183,-0.31272,0
59640,-0.976963,-0.688765,-0.306886,0
59660,-0.980989,-0.687415,-0.300143,0
59680,-0.982315,-0.686079,-0.294762,0
59700,-0.984016,-0.684782,-0.289749,0
59720,-0.98764,-0.68376,-0.283877,0
59740,-0.990987,-0.682804,-0.278302,0
59760,-0.993509,-0.682239,-0.271626,0
59780,-0.996192,-0.682047,-0.265022,0
59800,-0.999841,-0.681687,-0.258623,0
59820,-1.0044,-0.681027,-0.251237,0
59840,-1.00839,-0.679319,-0.243902,0
59860,-1.01302,-0.678257,-0.235619,0
59880,-1.0181,-0.677257,-0.227509,0
59900,-1.0225,-0.675697,-0.219838,0
59920,-1.02786,-0.674252,-0.210676,0
59940,-1.03302,-0.67339,-0.201177,0
59960,-1.03957,-0.672373,-0.191278,0
59980,-1.04508,-0.671048,-0.180966,0
60000,-1.05086,-0.670231,-0.170691,0
60020,-1.05717,-0.669444,-0.159793,0
60040,-1.06365,-0.668187,-0.148608,0
60060,-1.07079,-0.666282,-0.1369,0
60080,-1.0772,-0.665069,-0.125518,0
60100,-1.08448,-0.663274,-0.11362,0
60120,-1.09237,-0.66101,-0.10058,0
60140,-1.10106,-0.658788,-0.086455,0
60160,-1.10989,-0.657231,-0.0727699,0
60180,-1.12008,-0.655543,-0.058732,0
60200,-1.13121,-0.654019,-0.0445018,0
60220,-1.14106,-0.652881,-0.0306041,0
60240,-1.14924,-0.652575,-0.0187127,0
60260,-1.15696,-0.652621,-0.00621935,0
60280,-1.16462,-0.6534,0.00671303,0
60300,-1.17223,-0.654057,0.0194848,0
60320,-1.17902,-0.655138,0.0312617,0
60340,-1.18493,-0.657574,0.0418846,0
60360,-1.19147,-0.659214,0.0526509,0
60380,-1.19928,-0.66038,0.0640088,0
60400,-1.20643,-0.661979,0.0756347,0
60420,-1.2128,-0.664258,0.0878349,0
60440,-1.21953,-0.666908,0.100489,0
60460,-1.22642,-0.669981,0.11211,0
60480,-1.23394,-0.67322,0.123398,0
60500,-1.24113,-0.676422,0.135286,0
60520,-1.24847,-0.68003,0.147765,0
60540,-1.25544,-0.683968,0.159914,0
60560,-1.2619,-0.688708,0.172201,0
60580,-1.26889,-0.693514,0.184996,0
60600,-1.27641,-0.698913,0.197123,0
60620,-1.28346,-0.704655,0.208656,0
60640,-1.29209,-0.709976,0.220954,0
60660,-1.30036,-0.715262,0.233205,0
60680,-1.30768,-0.720885,0.245258,0
60700,-1.31538,-0.726638,0.256631,0
60720,-1.32321,-0.732299,0.267415,0
60740,-1.33075,-0.739009,0.27872,0
60760,-1.33803,-0.747155,0.290891,0
60780,-1.34504,-0.756261,0.30228,0
60800,-1.35171,-0.765755,0.312567,0
60820,-1.36084,-0.774308,0.322439,0
60840,-1.3715,-0.781464,0.331481,0
60860,-1.3802,-0.78794,0.338713,0
60880,-1.3883,-0.793037,0.346199,0
60900,-1.39545,-0.797878,0.353839,0
60920,-1.40089,-0.802289,0.359784,0
60940,-1.40607,-0.80774,0.363602,0
60960,-1.41124,-0.812835,0.366435,0
60980,-1.41767,-0.818651,0.371076,0
61000,-1.42362,-0.824753,0.375093,0
61020,-1.42893,-0.831209,0.378124,0
61040,-1.43458,-0.839716,0.38235,0
61060,-1.44109,-0.848957,0.38812,0
61080,-1.44803,-0.858614,0.393139,0
61100,-1.4555,-0.867896,0.397503,0
61120,-1.46151,-0.876656,0.400659,0
61140,-1.46689,-0.884326,0.40419,0
61160,-1.47298,-0.892042,0.408481,0
61180,-1.47797,-0.897878,0.412121,0
61200,-1.48273,-0.903587,0.416786,0
61220,-1.48828,-0.910615,0.421943,0
61240,-1.4939,-0.917391,0.425126,0
61260,-1.49945,-0.92364,0.426196,0
61280,-1.50562,-0.928558,0.427543,0
61300,-1.51051,-0.93411,0.428124,0
61320,-1.51356,-0.940748,0.427769,0
61340,-1.51639,-0.946804,0.427023,0
61360,-1.51971,-0.952903,0.426384,0
61380,-1.5226,-0.959974,0.424685,0
61400,-1.52516,-0.967027,0.422452,0
61420,-1.52791,-0.973786,0.421595,0
61440,-1.53096,-0.981364,0.421407,0
61460,-1.53454,-0.989499,0.420822,0
61480,-1.53823,-0.997389,0.418782,0
61500,-1.54086,-1.00437,0.415551,0
61520,-1.54185,-1.0115,0.411556,0
61540,-1.54279,-1.01827,0.408625,0
61560,-1.54628,-1.02394,0.407837,0
61580,-1.54771,-1.02966,0.403239,0
61600,-1.54561,-1.03599,0.394425,0
61620,-1.54566,-1.04359,0.38778,0
61640,-1.54464,-1.05206,0.381896,0
61660,-1.54309,-1.06053,0.37545,0
61680,-1.5433,-1.06878,0.368413,0
61700,-1.54216,-1.07638,0.359562,0
61720,-1.53995,-1.08191,0.350726,0
61740,-1.53553,-1.08669,0.339466,0
61760,-1.53073,-1.09188,0.327537,0
61780,-1.52536,-1.09597,0.314223,0
61800,-1.51802,-1.10015,0.299367,0
61820,-1.51046,-1.10492,0.285993,0
61840,-1.5027,-1.11058,0.273085,0
61860,-1.49362,-1.11681,0.258035,0
61880,-1.48364,-1.12277,0.241423,0
61900,-1.4724,-1.1286,0.223161,0
61920,-1.45995,-1.13368,0.204396,0
61940,-1.44597,-1.13818,0.184216,0
61960,-1.4293,-1.14275,0.160015,0
61980,-1.41028,-1.1468,0.132232,0
62000,-1.39057,-1.14699,0.103953,0
62020,-1.36831,-1.14506,0.0746822,0
62040,-1.34317,-1.14498,0.0449159,0
62060,-1.32073,-1.14489,0.0172905,0
62070,-1.29644,-1.14419,-0.0129839,0
62090,-1.272,-1.14319,-0.0448847,0
62110,-1.24958,-1.141,-0.074606,0
62130,-1.23042,-1.13702,-0.100779,0
62150,-1.20953,-1.13357,-0.127566,0
62170,-1.18852,-1.13035,-0.153273,0
62190,-1.17089,-1.12668,-0.176578,0
62210,-1.15462,-1.1231,-0.199631,0
62230,-1.13973,-1.11897,-0.221441,0
62250,-1.12699,-1.11354,-0.240355,0
62270,-1.11503,-1.10716,-0.258503,0
62290,-1.10029,-1.10248,-0.278573,0
62310,-1.08825,-1.0983,-0.29454,0
62330,-1.07759,-1.0951,-0.310052,0
62350,-1.06515,-1.09179,-0.32728,0
62370,-1.05365,-1.08767,-0.343585,0
62390,-1.04522,-1.08315,-0.354777,0
62410,-1.03578,-1.07882,-0.365816,0
62430,-1.02326,-1.07478,-0.379984,0
62450,-1.01336,-1.07106,-0.392173,0
62470,-1.00538,-1.06524,-0.403983,0
62490,-0.998394,-1.0594,-0.414716,0
62510,-0.992295,-1.05323,-0.422256,0
62530,-0.983436,-1.04915,-0.429423,0
62550,-0.977411,-1.04643,-0.433792,0
62570,-0.973768,-1.04482,-0.437323,0
62590,-0.97002,-1.04268,-0.443077,0
62610,-0.969049,-1.03975,-0.44703,0
62630,-0.97102,-1.03683,-0.446407,0
62650,-0.972092,-1.03367,-0.445859,0
62670,-0.971765,-1.03073,-0.446043,0
62690,-0.97229,-1.02882,-0.445748,0
62710,-0.968874,-1.02568,-0.448315,0
62730,-0.967889,-1.02235,-0.448878,0
62750,-0.967325,-1.01888,-0.449627,0
62770,-0.966163,-1.01507,-0.450034,0
62790,-0.965096,-1.01226,-0.449262,0
62810,-0.965391,-1.00962,-0.447428,0
62830,-0.964414,-1.00524,-0.448225,0
62850,-0.961713,-1.00088,-0.451416,0
62870,-0.96065,-0.996579,-0.451881,0
62890,-0.959347,-0.992109,-0.452016,0
62910,-0.957174,-0.988164,-0.452946,0
62930,-0.954388,-0.984554,-0.454161,0
62950,-0.953075,-0.980093,-0.456042,0
62970,-0.953103,-0.97464,-0.457179,0
62990,-0.951038,-0.968913,-0.459521,0
63010,-0.945246,-0.962375,-0.463684,0
63030,-0.94468,-0.955906,-0.462795,0
63050,-0.944129,-0.949742,-0.462662,0
63070,-0.942193,-0.943416,-0.462308,0
63090,-0.943466,-0.937683,-0.460421,0
63110,-0.945421,-0.932507,-0.459203,0
63130,-0.946853,-0.926371,-0.459015,0
63150,-0.948713,-0.921006,-0.457283,0
63170,-0.950789,-0.91614,-0.455,0
63190,-0.95119,-0.910679,-0.454485,0
63210,-0.95206,-0.905347,-0.454308,0
63230,-0.954162,-0.900137,-0.452905,0
63250,-0.954851,-0.89438,-0.45216,0
63270,-0.953879,-0.888609,-0.452136,0
63290,-0.954382,-0.88378,-0.451089,0
63310,-0.955395,-0.878805,-0.450399,0
63330,-0.955638,-0.873703,-0.449576,0
63350,-0.955078,-0.868353,-0.449179,0
63370,-0.955064,-0.863178,-0.448893,0
63390,-0.957053,-0.85862,-0.447419,0
63410,-0.959943,-0.853777,-0.444801,0
63430,-0.962069,-0.849228,-0.442242,0
63450,-0.963534,-0.845991,-0.438927,0
63470,-0.965416,-0.842754,-0.435308,0
63490,-0.96866,-0.839783,-0.432391,0
63510,-0.974078,-0.836421,-0.42801,0
63530,-0.978402,-0.833816,-0.422735,0
63550,-0.981605,-0.831357,-0.417562,0
63570,-0.984449,-0.829369,-0.412958,0
63590,-0.98866,-0.828038,-0.407768,0
63610,-0.992805,-0.825952,-0.403108,0
63630,-0.998039,-0.823603,-0.396539,0
63650,-1.00321,-0.822525,-0.389967,0
63670,-1.00885,-0.820752,-0.384153,0
63690,-1.01432,-0.818775,-0.378406,0
63710,-1.02011,-0.817675,-0.371733,0
63730,-1.02496,-0.816254,-0.36642,0
63750,-1.0292,-0.814042,-0.361695,0
63770,-1.03242,-0.812122,-0.356706,0
63790,-1.03392,-0.810743,-0.352523,0
63810,-1.03523,-0.80913,-0.348339,0
63830,-1.03706,-0.807486,-0.344486,0
63850,-1.04044,-0.805605,-0.340478,0
63870,-1.04468,-0.802823,-0.334951,0
63890,-1.04888,-0.799727,-0.329464,0
63910,-1.05349,-0.79674,-0.323935,0
63930,-1.05823,-0.79295,-0.31872,0
63950,-1.06331,-0.788759,-0.314146,0
63970,-1.06906,-0.784155,-0.308775,0
63990,-1.07419,-0.77908,-0.303558,0
64010,-1.07781,-0.775229,-0.29792,0
64030,-1.07987,-0.772175,-0.293063,0
64050,-1.08357,-0.769253,-0.287944,0
64060,-1.08824,-0.766342,-0.282531,0
64080,-1.09235,-0.763931,-0.276621,0
64100,-1.09504,-0.761662,-0.271074,0
64120,-1.09703,-0.759517,-0.265198,0
64140,-1.09817,-0.758162,-0.259876,0
64160,-1.0997,-0.757302,-0.254401,0
64180,-1.10239,-0.756134,-0.248281,0
64200,-1.10571,-0.755585,-0.241854,0
64220,-1.10979,-0.755213,-0.234841,0
64240,-1.11477,-0.75425,-0.227153,0
64260,-1.11951,-0.753046,-0.21927,0
64280,-1.12457,-0.752073,-0.210448,0
64300,-1.12934,-0.751435,-0.202103,0
64320,-1.13569,-0.750715,-0.193084,0
64340,-1.14303,-0.749747,-0.182791,0
64360,-1.14996,-0.748883,-0.172934,0
64380,-1.15675,-0.748349,-0.163709,0
64400,-1.16389,-0.747187,-0.154124,0
64420,-1.17232,-0.745131,-0.142227,0
64440,-1.18024,-0.743634,-0.130353,0
64460,-1.1856,-0.742916,-0.119761,0
64480,-1.19307,-0.742532,-0.10852,0
64500,-1.20301,-0.740982,-0.0959382,0
64520,-1.21131,-0.740109,-0.0840341,0
64540,-1.2193,-0.739571,-0.0714858,0
64560,-1.22841,-0.739117,-0.0582357,0
64580,-1.23734,-0.738548,-0.0452082,0
64600,-1.24605,-0.738854,-0.0329391,0
64620,-1.25421,-0.740093,-0.0209083,0
64640,-1.26341,-0.741042,-0.00771064,0
64660,-1.27272,-0.741852,0.00563313,0
64680,-1.28122,-0.743092,0.018885,0
64700,-1.28886,-0.745727,0.0323333,0
64720,-1.29749,-0.748603,0.0462017,0
64740,-1.30757,-0.751646,0.0603447,0
64760,-1.3167,-0.755319,0.0745771,0
64780,-1.32522,-0.760045,0.0896188,0
64800,-1.33571,-0.764751,0.105391,0
64820,-1.34618,-0.769458,0.121088,0
64840,-1.35756,-0.77414,0.136918,0
64860,-1.3685,-0.779879,0.152981,0
64880,-1.37795,-0.785401,0.169494,0
64900,-1.38741,-0.79134,0.184861,0
64920,-1.3978,-0.797715,0.200287,0
64940,-1.40986,-0.803235,0.215331,0
64960,-1.42197,-0.808088,0.230327,0
