Timestamp, Rotation x, Rotation y, Rotation z, Marker
30,0.125,-0.1875,-0.125,0
50,-0.0625,-0.1875,0,0
70,0.0625,-0.3125,-0.1875,0
90,0.875,-0.4375,-0.1875,0
110,1.125,-0.375,-0.1875,0
130,0.875,-0.375,-0.0625,0
140,0.75,-0.1875,0.0625,0
140,0.6875,-0.3125,0,0
190,0.6875,-0.375,0,0
210,0.8125,-0.3125,-0.0625,0
230,0.5625,-0.125,-0.1875,0
250,0.625,-0.1875,-0.4375,0
270,0.6875,-0.125,-0.5625,0
280,0.75,-0.25,-0.625,0
300,0.6875,-0.1875,-0.625,0
320,0.4375,-0.25,-0.375,0
340,0.1875,-0.1875,-0.1875,0
360,-0.125,-0.125,0.0625,0
380,-0.125,-0.25,0.25,0
400,0.125,-0.4375,0,0
420,0.125,-0.4375,-0.1875,0
440,0.4375,-0.3125,0,0
460,0.375,-0.125,0,0
480,0.3125,-0.25,-0.125,0
500,0.25,-0.1875,-0.125,0
520,0.625,-0.25,-0.3125,0
540,0.6875,-0.25,-0.375,0
560,0.75,-0.375,-0.4375,0
580,0.8125,-0.1875,-0.5625,0
600,1.1875,-0.1875,-0.875,0
620,1.25,-0.3125,-0.875,0
640,1,-0.3125,-0.375,0
660,1,-0.375,-0.3125,0
680,0.75,-0.125,-0.375,0
700,0.625,-0.0625,-0.3125,0
720,0.5,-0.125,-0.5,0
740,1,-0.4375,-0.75,0
760,0.9375,-0.4375,-0.4375,0
780,0.1875,-0.25,-0.125,0
800,-1.25,-0.1875,0.6875,0
820,-1.25,-0.1875,0.625,0
840,-0.875,-0.1875,0.375,0
860,-0.3125,0,0.125,0
880,-0.3125,0.125,0,0
900,-0.375,0.125,0.125,0
920,-0.625,0.1875,0.0625,0
940,-0.375,0.125,0,0
960,0.0625,0.1875,0,0
980,0,0.3125,0.125,0
1000,-0.5625,0.25,0.125,0
1020,-0.625,0.1875,0.4375,0
1040,-0.8125,0,0.375,0
1060,-0.75,-0.0625,0.5,0
1080,-0.8125,-0.0625,0.625,0
1100,-0.875,0.1875,0.4375,0
1120,-0.75,0.125,0.3125,0
1140,-0.5,0.0625,0.125,0
1160,-0.6875,0.0625,-0.0625,0
1180,-0.625,0.25,0.125,0
1200,-0.75,0.1875,0.375,0
1220,-0.8125,0.1875,0.5625,0
1240,-0.9375,0.25,0.5625,0
1260,-1.125,0.125,0.5,0
1280,-0.9375,-0.0625,0.4375,0
1300,-0.75,0,0.1875,0
1320,-0.5,0.125,0.25,0
1340,-0.5625,0.125,0.125,0
1360,-0.5625,0.1875,0.125,0
1380,-0.625,-0.0625,0.25,0
1400,-0.8125,-0.0625,0.3125,0
1420,-0.625,0.1875,0.375,0
1440,-0.6875,0.0625,0.3125,0
1460,-0.625,0,0.1875,0
1480,-1.0625,0,0.25,0
1500,-0.6875,-0.0625,0.25,0
1520,-0.6875,-0.0625,0.3125,0
1540,-0.5625,-0.125,0.4375,0
1560,-0.5,-0.125,0.3125,0
1580,-0.375,0.1875,0.3125,0
1600,-0.4375,0.125,-0.125,0
1620,0,0.125,-0.4375,0
1640,0.4375,-0.0625,-0.6875,0
1660,0.1875,-0.125,-0.3125,0
1680,-0.75,0,0.5,0
1700,-1.5,-0.125,0.625,0
1720,-1.375,-0.125,0.4375,0
1740,-0.4375,-0.1875,0.25,0
1760,0,-0.3125,0.0625,0
1780,-0.0625,0.0625,-0.1875,0
1800,-0.125,0.1875,-0.125,0
1820,-0.3125,0.25,0.0625,0
1840,-0.5,0,0.375,0
1860,-0.125,0,0.25,0
1880,-0.3125,0.0625,0.375,0
1900,-0.4375,0.125,0.25,0
1920,-0.3125,0.1875,0.3125,0
1940,-0.25,0.0625,0.1875,0
1960,-0.25,-0.0625,0.1875,0
1980,-0.3125,-0.0625,0.3125,0
2000,-0.6875,0.0625,0.5,0
2020,-0.6875,0.25,0.4375,0
2040,-0.5,0.1875,0.25,0
2060,-0.375,0.125,0,0
2080,-0.375,0.125,0.125,0
2100,-0.3125,0.0625,0.1875,0
2120,-0.5,0.125,0.5,0
2140,-0.8125,0.125,0.75,0
2160,-1.0625,0,0.75,0
2180,-1.125,-0.0625,0.5625,0
2200,-0.8125,-0.0625,0.375,0
2220,-0.375,-0.0625,0.3125,0
2240,-0.5,-0.0625,0.1875,0
2260,-0.8125,-0.0625,0.3125,0
2280,-1.125,0.125,0.625,0
2300,-1.5,0,1,0
2320,-1.625,-0.0625,1.1875,0
2340,-1.625,-0.125,1.1875,0
2360,-1.75,0.125,0.9375,0
2380,-1.75,0.25,1,0
2400,-1.625,0.125,0.8125,0
2420,-1.8125,-0.0625,0.75,0
2440,-1.5,0.0625,0.8125,0
2460,-1.5625,0,0.75,0
2480,-1.1875,0.1875,0.875,0
2500,-1,0.3125,0.625,0
2520,-1,0.125,0.4375,0
2540,-0.8125,0.125,0.25,0
2560,-0.875,0.125,0.5,0
2580,-0.6875,0.0625,0.6875,0
2600,-1.5625,-0.125,1.125,0
2620,-3,-0.0625,1.5625,0
2640,-4.125,0.1875,2.5,0
2660,-4.5,0.1875,3.3125,0
2680,-4.0625,0.25,3.25,0
2700,-3.25,-0.375,1.6875,0
2720,-2.5625,-0.375,1.25,0
2740,-2.1875,0.125,1.0625,0
2760,-1.4375,0.125,0.5,0
2780,-0.4375,-0.125,-0.4375,0
2800,0.5625,-0.375,-0.8125,0
2820,0.75,-0.875,-0.5,0
2840,-2.8125,-2.3125,3,0
2860,-12.3125,-5.8125,11.875,0
2880,-17.5,-6.6875,16.9375,0
2900,-8.0625,-4.625,7.75,0
2920,5.0625,-7.5,-2,0
2940,14.1875,-17.875,-18.4375,0
2960,4.375,-29.9375,-35.6875,0
2970,-14.3125,-38.125,-50.6875,0
2990,-32.5,-46.9375,-70.5625,0
3010,-30.1875,-59,-89.9375,0
3030,-8.125,-74.125,-100.812,0
3050,13.625,-84.5625,-109.188,0
3070,17.625,-89.875,-116.312,0
3090,4.3125,-90.875,-115.125,0
3110,-9.25,-89.875,-108,0
3130,-15.5,-83.375,-98.4375,0
3150,-14,-73.25,-88.3125,0
3170,-8.8125,-59.125,-75.375,0
3190,-5,-43.6875,-59.75,0
3210,-1.75,-28.4375,-43.1875,0
3230,-0.9375,-11.3125,-24.875,0
3250,1.375,8.3125,-5.8125,0
3270,8.8125,28.9375,10.125,0
3290,17.1875,49.125,27.3125,0
3310,21.9375,68.5625,47.1875,0
3330,25.3125,85.8125,64.1875,0
3350,23.125,102.438,78.375,0
3370,15.0625,121.188,96,0
3390,3.3125,140.938,121.688,0
3410,-11.75,161.562,150.5,0
3430,-31.0625,176.562,179.25,0
3450,-50.3125,178.062,202.625,0
3470,-63.25,159.938,203.438,0
3490,-72.8125,75.5,46.1875,0
3510,6.125,-60.875,-109.562,0
3530,22.125,-89.4375,-80.0625,0
3550,54.8125,-55.375,-26.1875,0
3570,82.375,-55.625,-52.3125,0
3590,41.875,-67.4375,-87.4375,0
3610,-12.625,-84.75,-74.625,0
3630,-46.1875,-91.25,-72.75,0
3650,-36.8125,-87.5,-88.875,0
3670,-20.3125,-83,-94.625,0
3690,-9.125,-76.4375,-87.875,0
3710,-3.1875,-70,-76.25,0
3730,0.6875,-61.375,-67.125,0
3750,3.625,-49.0625,-53.875,0
3770,2.6875,-34.5,-37.9375,0
3790,1.1875,-16.8125,-23.1875,0
3810,-2.625,1.6875,-6.5625,0
3830,-6.25,21.375,13.625,0
3850,-6.0625,42.625,36.25,0
3870,-2.1875,62.875,60.8125,0
3890,6.5625,83.75,82.5,0
3910,12.25,102.312,102.438,0
3930,11.8125,117.875,123,0
3950,-1.625,135.812,149.375,0
3970,-24.375,154.312,187.125,0
3990,-75,152.312,222.5,0
4010,-112.125,110.188,140.375,0
4030,-74.1875,-12.8125,-52.3125,0
4050,-39.75,-92.75,-117.125,0
4070,4.875,-69,-38.375,0
4090,91.4375,-44.5,-21.4375,0
4110,129.625,-19.9375,-65.1875,0
4130,82.5,-6.9375,-81.375,0
4150,9.625,-11.1875,-64.4375,0
4170,-43.6875,-12.4375,-62.5625,0
4190,-41.375,-4.8125,-64.6875,0
4210,-7.375,7.8125,-71.25,0
4230,29,16.4375,-74.875,0
4250,49.75,20.75,-66.75,0
4270,51.375,23.5,-54.5,0
4290,41.125,27.9375,-41.0625,0
4310,26.6875,34.5,-25.4375,0
4330,16.0625,39.4375,-7.75,0
4350,8,42.5625,14.3125,0
4370,-0.625,47.9375,40,0
4390,-7.8125,55,67.75,0
4410,-20.9375,62.6875,97.625,0
4430,-38,70.25,127.5,0
4450,-62.875,70.25,156.625,0
4470,-87.75,83.4375,113.312,0
4490,-93.75,46.125,20.8125,0
4510,-100,-15.4375,-46,0
4530,-7.4375,-48.8125,-65.4375,0
4550,75.6875,-45.75,-38.6875,0
4570,131.688,-18.25,-6.4375,0
4590,112,3.625,13.75,0
4610,35.8125,15.6875,14.625,0
4630,-46,15.1875,12.8125,0
4650,-86.4375,7.8125,9.9375,0
4670,-82.375,3.375,3.25,0
4690,-47.875,5.1875,0.3125,0
4710,0,4.5,2.6875,0
4730,36.625,-2,2,0
4750,52.625,-8.8125,-7.125,0
4770,45.4375,-14.3125,-13.25,0
4790,28.375,-18.375,-11.6875,0
4810,12.6875,-23.375,-9.75,0
4830,0.375,-30.75,-7.1875,0
4850,0,-41.125,-12.5,0
4870,8.6875,-53.6875,-25.75,0
4890,19.25,-67.8125,-31.5,0
4910,22.3125,-81.6875,-31.1875,0
4930,24.0625,-92.0625,-28.1875,0
4950,16.9375,-98.5625,-22.625,0
4970,7.875,-100.875,-15.1875,0
4980,0.375,-100.5,-4.875,0
5000,-5,-94.375,3.9375,0
5020,-11.3125,-81.75,14,0
5040,-11,-75,23.4375,0
5060,-1.6875,-75.25,30,0
5080,14.5625,-73.9375,37.625,0
5100,17.875,-60.6875,42.9375,0
5120,13.75,-43.25,44.0625,0
5140,7.625,-34.5,49.0625,0
5160,3.4375,-30.8125,57.1875,0
5180,3.3125,-25.6875,64.625,0
5200,5.3125,-16.0625,70.5,0
5220,3.1875,-1.375,82.875,0
5240,-7.4375,12.8125,97.6875,0
5260,-1.1875,17.25,101.438,0
5280,-9.625,16.75,61.1875,0
5300,-23.4375,-10.3125,15.875,0
5320,-56.5625,-25,16.0625,0
5340,-49.5625,-14.6875,12.6875,0
5360,-11.5,-6.5625,12.375,0
5380,6,0.9375,8.0625,0
5400,-11.5,8.5625,-0.4375,0
5420,-31.1875,15.1875,1.375,0
5440,-30.5625,10.5625,5.375,0
5460,-15.375,5.3125,-2.6875,0
5480,0.5625,2.4375,-17.0625,0
5500,10.625,5.1875,-26.875,0
5520,11.375,10.6875,-33.125,0
5540,17.25,17.75,-43.25,0
5560,21.0625,23.75,-52.4375,0
5580,18.8125,29.3125,-55.6875,0
5600,18.5625,37.875,-56,0
5620,20.3125,45.9375,-55.75,0
5640,20.9375,49.25,-49.25,0
5660,18.0625,52.3125,-37,0
5680,6.625,58.1875,-21.5625,0
5700,-11.125,67,-1.3125,0
5720,-23.375,74.4375,21.875,0
5740,-36.0625,84.0625,41.75,0
5760,-43.875,98.125,61.3125,0
5780,-56.5625,93.8125,46.625,0
5800,-84.5,24.4375,-15.3125,0
5820,-26.3125,-42.5,-26.875,0
5840,-2.4375,-28.375,-2.8125,0
5860,31.25,-5.375,8.25,0
5880,39.375,-1.125,6,0
5900,1.4375,-0.9375,16.3125,0
5920,-21.0625,-3.3125,18,0
5940,-25.75,-7.5,5.1875,0
5960,-13.1875,-8.625,0.4375,0
5980,-2,-3.3125,0.25,0
6000,6.875,1.5,-0.4375,0
6020,11.375,1.75,-2.5625,0
6040,8.5,-0.25,-2.9375,0
6060,3.4375,-2.5625,-1.3125,0
6080,0.625,-1.6875,0.3125,0
6100,-2.5625,-0.25,0.5625,0
6120,-3.125,-0.25,-0.875,0
6140,-0.8125,-0.5,-3.125,0
6160,2.875,0.125,-4.8125,0
6180,6.9375,0.5625,-7.375,0
6200,5.6875,2.4375,-9.8125,0
6220,2.6875,4.75,-8.625,0
6240,-0.375,5,-6.8125,0
6260,-0.1875,4.25,-6.1875,0
6280,1.1875,3.625,-5.5625,0
6300,2.625,3.8125,-4.6875,0
6320,2,3.9375,-3.5,0
6340,1.375,2.5,-2,0
6360,1,0.8125,-0.3125,0
6380,1,-0.375,0.8125,0
6400,0.5,-1,1.0625,0
6420,1.0625,-1.1875,1,0
6440,1.75,-1.25,0.6875,0
6460,2.25,-0.6875,0.3125,0
6480,2.875,0.1875,-0.5625,0
6500,2.9375,0.875,-1.5625,0
6520,2.625,1.0625,-1.75,0
6540,1.8125,0.875,-1.3125,0
6560,0.875,0.9375,-0.8125,0
6580,-0.0625,0.8125,-0.125,0
6600,-1.25,0.375,0.3125,0
6620,-1.8125,-0.1875,0.5625,0
6640,-1.875,-0.1875,0.875,0
6660,-1.6875,-0.0625,1.1875,0
6680,-0.625,-0.125,1,0
6700,0.375,-0.1875,0.9375,0
6720,0.8125,-0.25,1.125,0
6740,1.0625,-0.5,1.375,0
6760,0.5,-0.5,1,0
6780,0.375,-0.25,0.875,0
6800,0.875,-0.1875,0.625,0
6820,1.25,0.0625,0.3125,0
6840,1.4375,0.3125,0.0625,0
6860,0.9375,0.4375,-0.25,0
6880,0.6875,0.375,0.1875,0
6900,-0.125,0.6875,-0.375,0
6920,-0.0625,0.9375,-0.25,0
6940,0.25,0.5625,-0.0625,0
6960,0.6875,0.125,-0.1875,0
6980,0.9375,0.125,-0.125,0
7000,0.5,-0.0625,-0.125,0
7020,0.0625,0,0.25,0
7040,0.6875,-0.125,0.5,0
7060,1.1875,0,0.375,0
7080,1.25,-0.125,0.125,0
7100,1.75,0.125,0,0
7120,2.4375,0.125,-0.5625,0
7140,2.25,0.3125,-0.75,0
7160,1.8125,0.1875,-0.5,0
7180,1.8125,0.25,-0.6875,0
7200,1.5,0.3125,-0.9375,0
7220,1.4375,0.5,-0.5,0
7240,1,0.4375,-0.375,0
7260,1,0,-0.375,0
7280,0.6875,0.0625,-0.5625,0
7300,0.625,-0.0625,-0.25,0
7320,0.6875,0.125,-0.375,0
7340,0.9375,0.125,-0.6875,0
7360,1.375,0.1875,-0.75,0
7380,1.5,0.1875,-0.875,0
7400,1.625,0.1875,-0.9375,0
7420,1.3125,0,-0.6875,0
7440,1.375,0,-0.3125,0
7460,0.75,-0.125,-0.3125,0
7480,0.6875,-0.125,0,0
7500,0.3125,-0.125,-0.0625,0
7520,0.1875,-0.125,-0.0625,0
7540,-0.0625,-0.1875,-0.1875,0
7560,0.1875,0,-0.25,0
7580,0.1875,0.125,-0.3125,0
7600,-0.0625,0.1875,-0.3125,0
7620,-0.125,0.1875,-0.1875,0
7640,-0.1875,0.125,-0.3125,0
7660,-0.125,0,-0.3125,0
7680,0.125,-0.125,-0.25,0
7700,0.0625,-0.0625,0.125,0
7720,-0.4375,-0.1875,0.25,0
7740,-0.625,0.1875,0.0625,0
7760,-0.875,0.375,-0.1875,0
7780,-0.4375,0.25,0,0
7800,-0.125,-0.1875,-0.125,0
7820,0.1875,-0.3125,-0.5,0
7840,-0.125,-0.25,-0.125,0
7860,-0.8125,-0.1875,0.25,0
7880,-1.1875,-0.125,0.3125,0
7900,-1.125,0,0.125,0
7920,-0.75,0.0625,0.25,0
7940,-0.5625,0,0,0
7960,-0.25,-0.0625,-0.125,0
7980,-0.5625,0.1875,-0.125,0
8000,-0.75,0.25,0,0
8020,-0.625,0.1875,0,0
8040,-0.5,0.25,0.0625,0
8060,-0.5625,0.125,0.375,0
8080,-0.8125,0,0.5,0
8100,-0.6875,0,0.375,0
8120,-0.4375,-0.0625,0.4375,0
8140,-0.375,-0.125,0.375,0
8160,-0.4375,0.0625,0.25,0
8180,-0.6875,0.1875,0.0625,0
8200,-0.4375,0.1875,0.1875,0
8220,-0.625,0.0625,0.125,0
8240,-0.125,0,0,0
8260,-0.3125,0.125,-0.0625,0
8280,0,0,-0.125,0
8300,0.125,0.25,-0.125,0
8320,-0.125,0.1875,0.0625,0
8340,-0.375,-0.0625,0.1875,0
8360,-0.3125,-0.0625,0.1875,0
8380,-0.375,-0.0625,0.375,0
8390,-0.3125,0,0.375,0
8410,-0.375,0,0.25,0
8430,-0.125,0,0.0625,0
8450,-0.3125,0.0625,0.125,0
8470,-0.375,0.0625,0.0625,0
8490,-0.375,0.0625,0.1875,0
8510,-0.0625,0,0.0625,0
8530,-0.25,0.0625,0,0
8550,-0.25,0.0625,0.125,0
8570,-0.375,0,0.3125,0
8590,-0.6875,-0.125,0.5,0
8610,-0.5625,-0.0625,0.5,0
8630,-0.4375,0.1875,0.125,0
8650,-0.125,0.1875,-0.1875,0
8670,-0.125,0.1875,-0.25,0
8690,0.25,0,-0.375,0
8710,0.3125,-0.125,-0.3125,0
8730,-0.4375,-0.25,-0.0625,0
8750,-1,-0.25,0.25,0
8770,-1,-0.125,0.375,0
8790,-0.6875,-0.0625,0.1875,0
8810,-0.5625,-0.125,0.125,0
8830,-0.1875,-0.125,0.125,0
8850,-0.125,-0.25,0.125,0
8870,-0.625,0.125,-0.0625,0
8890,-0.5625,0.25,0.3125,0
8910,-0.125,0.125,0.125,0
8930,0,0.1875,-0.125,0
8950,-0.0625,0,-0.0625,0
8970,-0.375,0.125,0.0625,0
8990,-0.125,0.125,0,0
9010,-0.125,-0.0625,0.1875,0
9030,-0.3125,-0.125,0.25,0
9050,-0.3125,0,0.3125,0
9070,-0.375,0.0625,0.25,0
9090,-0.25,0.125,-0.0625,0
9110,-0.125,0.125,0,0
9130,-0.25,0.125,-0.0625,0
9150,-0.3125,0.125,0.0625,0
9170,-0.375,0.125,0.25,0
9190,-0.375,0.0625,0.1875,0
9210,-0.25,0.0625,0.1875,0
9230,-0.1875,0.125,0.125,0
9250,0.125,-0.125,0.25,0
9270,-0.1875,0.0625,0.0625,0
9290,-0.5625,-0.0625,0.3125,0
9310,-0.6875,0,0.3125,0
9330,-0.5,0.0625,0,0
9350,-0.3125,-0.125,-0.1875,0
9370,-0.125,-0.125,-0.25,0
9390,0.0625,0,-0.25,0
9410,-0.125,0.25,-0.0625,0
9430,-0.4375,0.1875,0,0
9450,-0.25,0.125,0,0
9470,-0.25,-0.0625,0.0625,0
9490,0.0625,-0.0625,0.1875,0
9510,-0.375,0.0625,0.125,0
9530,-0.6875,0.1875,0.4375,0
9550,-0.6875,0.0625,0.3125,0
9570,-0.9375,0,0.3125,0
9590,-1.1875,0,0.375,0
9610,-1.25,-0.125,0.625,0
9630,-1.75,-0.0625,0.5625,0
9650,-1.4375,-0.1875,0.5625,0
9670,-1.25,0.125,0.25,0
9690,-1.3125,0.3125,0.25,0
9710,-1.375,0.1875,0.375,0
9730,-1.375,-0.125,0.25,0
9750,-1.375,-0.125,0.3125,0
9770,-2.0625,0.0625,0.8125,0
9790,-2.5625,0.25,1.125,0
9810,-2.4375,0.0625,1,0
9830,-1.8125,0,0.8125,0
9850,-1.3125,-0.125,0.625,0
9870,-1.4375,0.1875,0.6875,0
9890,-1.125,0.125,0.625,0
9910,-0.875,0.25,0.3125,0
9930,-0.5625,0.3125,0.1875,0
9950,0,0.125,0.1875,0
9970,0.375,0.125,-0.3125,0
9990,0.8125,-0.0625,-0.5,0
10010,1.375,-0.3125,-0.5,0
10030,2.3125,-0.0625,-1,0
10050,3.3125,0.125,-1.3125,0
10070,3.1875,-0.375,-1.5625,0
10090,4.625,-0.625,-1.875,0
10110,3.5625,-0.5625,-1.625,0
10130,2.5625,-0.125,-0.375,0
10150,1.375,-0.1875,-0.3125,0
10170,-0.25,0.0625,0,0
10190,-1.6875,0.3125,0.625,0
10210,-2.8125,0.4375,1.75,0
10230,-3.1875,0.5625,1.8125,0
10250,-2.6875,0.375,1.3125,0
10270,-1.75,0.0625,1,0
10290,-1.0625,-0.1875,0.8125,0
10310,-0.5,-0.3125,0.5625,0
10330,-0.25,-0.1875,-0.125,0
10350,0.125,-0.4375,-0.1875,0
10370,0.5,-0.5,-0.125,0
10380,0.625,-0.5625,-0.25,0
10400,0.0625,-1,0.625,0
10420,-2.625,-2.625,4.875,0
10440,-6.3125,-5.1875,11.5625,0
10460,-3.75,-7.4375,12.625,0
10480,1.0625,-8.0625,4.125,0
10500,-2.5625,-10.25,-0.375,0
10520,-6.25,-15.625,-8.25,0
10540,-3.875,-17.9375,-19.8125,0
10560,-3.3125,-21.3125,-21.3125,0
10580,-2.3125,-17.125,-16.75,0
10600,-3.75,-11.5625,-26.75,0
10620,-4.25,-12.1875,-42.875,0
10640,-4.375,-17.625,-51.1875,0
10660,-1.3125,-24.5625,-54.6875,0
10680,8.5,-29.625,-59.4375,0
10700,8,-29.8125,-67.8125,0
10720,10.8125,-31.8125,-70.625,0
10740,6.4375,-36.6875,-69.875,0
10760,-2.375,-41.4375,-67.125,0
10780,-10.1875,-39.9375,-63.5,0
10800,-16.1875,-36.1875,-60.6875,0
10820,-14.125,-34.25,-59.375,0
10840,-8.5,-33.5625,-58.9375,0
10860,-5.5625,-32.375,-56.75,0
10880,-5.625,-28.8125,-52.3125,0
10900,-6.9375,-23.875,-49.6875,0
10920,-7.75,-19.8125,-49.25,0
10940,-7.375,-18.75,-48.375,0
10960,-5.0625,-18.75,-44.875,0
10980,-1.1875,-17.75,-40.9375,0
11000,0.625,-14.25,-38.9375,0
11020,1,-11.375,-38.1875,0
11040,1.8125,-10.1875,-35.9375,0
11060,1.9375,-10.1875,-32.1875,0
11080,3.8125,-9.875,-29.6875,0
11100,5.625,-9.6875,-28.0625,0
11120,6.625,-10.125,-25.625,0
11140,7.5625,-10.1875,-22.9375,0
11160,6.625,-10.3125,-20.75,0
11180,6.1875,-11.5625,-18.25,0
11200,4,-12,-15.375,0
11220,3.5,-12.1875,-12,0
11240,3.0625,-11.3125,-9.9375,0
11260,2.875,-11.375,-7.9375,0
11280,3.0625,-12.875,-5.8125,0
11300,4.125,-14.625,-4.5625,0
11320,4.5,-14.8125,-3.4375,0
11340,4.375,-15.1875,-1.5625,0
11360,3.625,-15.375,-1.25,0
11380,4.125,-16.875,0.25,0
11400,6.75,-12.875,5.9375,0
11420,9.4375,-7.875,7.3125,0
11440,8.5625,-4.5,8.125,0
11460,6.625,-2.125,10.25,0
11480,5.4375,-2.25,11.3125,0
11500,9.125,-5.375,13.125,0
11520,13.0625,-7.9375,16.25,0
11540,12.375,-7.25,15.625,0
11560,11.5,-7.0625,13.3125,0
11580,10.9375,-9.625,14.1875,0
11600,12.75,-11.75,18.1875,0
11620,13.6875,-12.875,17.6875,0
11640,13.4375,-14.5625,14.8125,0
11660,10.6875,-13.4375,15.875,0
11680,10.625,-9.75,19.875,0
11700,11.25,-8.9375,19.9375,0
11720,15.625,-16.5625,21.625,0
11740,18.5,-17.9375,25.625,0
11760,15.9375,-12.75,24.5625,0
11780,11.5,-12.25,22.375,0
11800,9.875,-16.9375,18.25,0
11820,20.75,-23.6875,12.8125,0
11840,32.3125,-16.5,5.0625,0
11860,31.8125,6.875,-1.5625,0
11880,22.1875,18.9375,-3.0625,0
11900,13.1875,12.0625,-4.3125,0
11920,3.8125,3.3125,-9.6875,0
11940,-1.3125,2.8125,-9.1875,0
11960,6.3125,5.8125,-8.9375,0
11980,4.375,7.8125,-16.75,0
12000,-1.5625,7.8125,-17.6875,0
12020,-10.375,13.4375,0.8125,0
12040,-19.5,31.9375,-1.0625,0
12060,-9,6.4375,-19.6875,0
12080,-7.125,0.125,-11.875,0
12100,-9.6875,-3,1.5,0
12120,-8.625,-1.875,-8.1875,0
12140,-7.6875,1.5625,-12.8125,0
12160,-4.0625,1.4375,-10.6875,0
12180,-9.5625,-0.3125,-9.4375,0
12200,-10.375,1.75,-11.8125,0
12220,-6.5625,2.25,-15.3125,0
12240,-4.25,2.375,-14.3125,0
12260,-7.625,2.5625,-11.625,0
12280,-9.6875,2,-7.8125,0
12300,-10.375,2.125,-5.4375,0
12320,-11.75,1.5625,-5.5,0
12340,-12.375,-2.375,-2.625,0
12360,-8.125,-5,0.8125,0
12380,-5.25,-3.75,0.6875,0
12400,-5,0,1.25,0
12420,-5.1875,1.75,0.75,0
12440,-2.875,-0.25,0.375,0
12460,0.125,-2.6875,0.8125,0
12480,3.125,-3.4375,-0.3125,0
12500,1.25,-0.5,-3.875,0
12520,0.0625,2,-5.8125,0
12540,-2.5,3.875,-7.5,0
12560,-3.5625,3.3125,-8.375,0
12580,-4.75,1.3125,-9,0
12600,-7.4375,-1.4375,-9.8125,0
12620,-8.8125,-1.375,-10.375,0
12640,-9.3125,3.0625,-10.4375,0
12660,-6.9375,6.8125,-7.375,0
12680,-7.0625,6.75,-2.375,0
12700,-10.8125,10.1875,-4.5,0
12720,-9.5625,5.875,-4,0
12740,-5.75,-2.875,5.9375,0
12760,-7.5,-3.5625,12.3125,0
12780,-9.3125,4.125,14.25,0
12800,-7.125,12.9375,13.125,0
12820,-4.4375,20.125,10.125,0
12840,-3.125,24.5625,5.625,0
12860,-1.25,24,4.6875,0
12880,1.5,25.4375,6.25,0
12900,3.4375,29.3125,8.375,0
12920,1.4375,33.9375,8.8125,0
12940,-0.1875,33.0625,8.3125,0
12960,0.4375,31.25,9.0625,0
12980,2,31.3125,11.625,0
13000,2.6875,32.125,17,0
13020,2.875,33.0625,13.375,0
13040,4,31.25,3.625,0
13060,6.0625,28.6875,1.6875,0
13080,7.25,24.8125,4.375,0
13100,4.9375,23.6875,5.375,0
13120,4.75,23.25,4.3125,0
13140,7.875,20.1875,5.4375,0
13160,8.1875,15.5625,8.75,0
13180,7.5625,15.125,13.4375,0
13200,5.4375,17.8125,17.8125,0
13220,0.9375,17.125,27.25,0
13240,-3.9375,20.8125,37.75,0
13260,-10.5625,30.4375,39.125,0
13280,-10.6875,33.75,41.9375,0
13300,-9.3125,35.0625,49.5,0
13320,0.6875,44.125,50.375,0
13340,9.125,54.125,45.25,0
13360,15.5625,54.125,44.25,0
13380,10.3125,51,31.625,0
13400,9.8125,48.5,22.9375,0
13420,5.6875,41.9375,18.5,0
13440,5,34.1875,7,0
13460,7.8125,27.5625,0.25,0
13480,5.625,25.75,-3.375,0
13500,3.75,22.875,-6.5625,0
13520,2.375,16.375,-9.8125,0
13540,-0.8125,9.1875,-9.75,0
13560,-6.5,4.3125,-8.8125,0
13580,-10.875,4,-9.9375,0
13600,-11.75,7.3125,-11.0625,0
13620,-5.0625,9.0625,-15.6875,0
13640,4.5625,11.3125,-22.8125,0
13660,12.6875,9.375,-18.75,0
13680,8.6875,8.125,-6.25,0
13700,-0.375,6,-6.625,0
13720,-0.4375,2.9375,-6.4375,0
13740,4.5625,0.625,-5.5625,0
13760,3.75,-0.5,-8.4375,0
13780,3.5,-1.125,-9.4375,0
13800,-0.3125,-0.5625,-10.25,0
13810,-5.1875,-2,-6.875,0
13830,-6.875,-3.875,-4.4375,0
13850,-8.5,-1,-1.375,0
13870,-8.5625,-3.0625,-0.0625,0
13890,-12.375,3,-6.25,0
13910,-3.75,3.375,-9.875,0
13930,-7.3125,-2.5625,-7.5,0
13950,-7.8125,-6.0625,-1.3125,0
13970,-3,-7.375,-3.9375,0
13990,2,-4.75,-11.8125,0
14010,6.4375,-4.25,-10.5625,0
14030,4.875,-6.625,-5.5,0
14050,6.6875,-10.3125,-6.9375,0
14070,4.0625,-10.25,-9.375,0
14090,1.125,-10,-11.625,0
14110,1.8125,-11.8125,-17.5,0
14130,5.5,-13.5,-19.9375,0
14150,6.625,-11.4375,-24.1875,0
14170,9.3125,-9.5,-25.0625,0
14190,8.5625,-8,-26.0625,0
14210,10.75,-1.9375,-27.0625,0
14230,16.375,-1.125,-24.5,0
14250,11.8125,-2.3125,-16.3125,0
14270,15,-0.3125,-6,0
14290,5.9375,-12.1875,1.4375,0
14310,3,-16.375,16.5,0
14330,0.5625,-12.6875,21.875,0
14350,4.5625,-1.25,24.1875,0
14370,13.75,12.9375,15.6875,0
14390,11,21.1875,-1.625,0
14410,22.9375,26.9375,-14.5625,0
14430,23,40.75,-19.375,0
14450,14.375,61.0625,-4.5,0
14470,16,68,12.75,0
14490,1.5,63.9375,12.375,0
14510,-7.8125,55.4375,18.25,0
14530,-7.75,43.5,18.375,0
14550,-5.8125,31.5625,12,0
14570,-1.9375,25.6875,5.8125,0
14590,1.375,18.625,-4.3125,0
14610,8.125,13.375,-9.875,0
14630,7.375,9.5,-5.1875,0
14650,0.375,6.4375,-4.25,0
14670,-14.125,2.0625,-7.1875,0
14690,-38.8125,0.875,-4.75,0
14710,-35.875,-5.875,-3,0
14730,-25.0625,-13.375,-8.5,0
14750,-11.8125,-17.625,-19.125,0
14770,-4.125,-15.9375,-17.5,0
14790,-5.3125,-7.5,-2.6875,0
14810,-10.875,1.5,11.3125,0
14830,-12.75,0,5.875,0
14850,-15.0625,-8.3125,-16.375,0
14870,-25.3125,-18.75,-30.625,0
14890,-31.3125,-12.875,-21,0
14910,-28.8125,-2.625,-9.3125,0
14930,-22.0625,-3.4375,-8.125,0
14950,-10.75,0.125,-5.25,0
14970,-3.4375,-2.625,2.3125,0
14990,-21.0625,-6.3125,-9,0
15010,-33.5625,4.0625,-34.75,0
15030,-14.5,5.6875,-20.3125,0
15050,4.875,-6.8125,12.25,0
15070,6.6875,-11.125,13,0
15090,-7.25,-1.8125,2.375,0
15110,-12.5,-2.125,4.75,0
15130,-7.125,-11.75,0.4375,0
15150,-0.75,-17.5625,2.625,0
15170,5.375,-18,3.25,0
15190,1.625,-12.5,-1.875,0
15210,0.5,-10.75,-2.625,0
15230,0.25,-10.625,-2.5625,0
15250,0.1875,-11.25,-3.4375,0
15270,-0.375,-8.625,-1.3125,0
15290,-1.125,-4.8125,-1.375,0
15310,3.5,-4.9375,-1.6875,0
15330,3.25,-5.3125,-1.375,0
15350,3.1875,-7.3125,0.625,0
15370,3.5625,-11.5,2.625,0
15390,5.4375,-16.3125,0.4375,0
15410,7.4375,-24,-1.5625,0
15430,4.375,-31.6875,-2.25,0
15450,2,-34.125,1.4375,0
15470,-2,-30.625,3.25,0
15490,-2.4375,-30,3.6875,0
15510,-1.5625,-34.75,3.9375,0
15530,-2,-35.5,5.1875,0
15550,-2.6875,-33.1875,3.9375,0
15570,-2.125,-35.625,2.9375,0
15590,-6.0625,-32.625,6.9375,0
15610,-8.3125,-29.75,10.9375,0
15630,-9.0625,-30.375,11.375,0
15650,-9.1875,-31.4375,9.375,0
15670,-10.6875,-32.4375,9.75,0
15690,-11.4375,-32.5,11.5,0
15710,-10.9375,-33.1875,10.9375,0
15730,-9.9375,-33.8125,9.3125,0
15750,-11.1875,-34.375,8.75,0
15770,-11.625,-34.125,9.0625,0
15790,-13.9375,-30.8125,9,0
15800,-15.5,-26.375,7.375,0
15820,-13.5625,-25.1875,5.0625,0
15840,-9.0625,-26.75,3.8125,0
15860,-9.1875,-25.5625,4.8125,0
15880,-11.6875,-21.125,8.875,0
15900,-9.9375,-16.5,10.0625,0
15920,-7.125,-14.1875,7.75,0
15940,-4.4375,-13.5,3.8125,0
15960,-3.625,-13.0625,2.75,0
15980,-3.875,-12.1875,5,0
16000,-2,-8.75,8.25,0
16020,-1.0625,-4.375,7.8125,0
16040,0.5,-2.4375,4.75,0
16060,2.875,-2.8125,2.8125,0
16080,4.75,-2.6875,2.4375,0
16100,2.5,-2.5,2.75,0
16120,2.875,-3.625,3.5,0
16140,3.0625,-4.6875,2.6875,0
16160,1.4375,-4.75,1.9375,0
16180,0.875,-3.5625,1.6875,0
16200,-0.75,-3.25,1.6875,0
16220,-0.0625,-3.75,1.5625,0
16240,0.75,-4.125,1.0625,0
16260,-1.8125,-3.25,-0.1875,0
16280,0.6875,-2.3125,-2,0
16300,3.3125,-2.125,-2.375,0
16320,5.75,-3.0625,-2.875,0
16340,5.625,-1.875,-3.6875,0
16360,2.25,-1.5625,-3.0625,0
16380,0.8125,-1.375,-2.75,0
16400,0.0625,-2,-1.8125,0
16420,-0.125,-1.9375,-0.5,0
16440,0.125,-1.3125,-0.0625,0
16460,0.375,-1.25,0.4375,0
16480,0.8125,-1.0625,0.8125,0
16500,1.3125,-0.5625,1.5,0
16520,0.6875,0.4375,1.8125,0
16540,-1.375,1.1875,2.0625,0
16560,-1.9375,1.3125,2.8125,0
16580,-1.3125,1.1875,2.4375,0
16600,-0.5,1.375,0.875,0
16620,0.0625,1.125,0.5625,0
16640,0.4375,1.25,0.3125,0
16660,2,1.25,-1.875,0
16680,4.6875,-0.0625,-3.125,0
16700,4.75,-1.25,-2.6875,0
16720,2.875,-0.8125,-2,0
16740,1.625,-0.4375,-2.3125,0
16760,-0.625,0.0625,-2,0
16780,-1.75,0.0625,-1.625,0
16800,-1.3125,0,-0.6875,0
16820,-0.3125,1.25,-0.5625,0
16840,-0.375,2.5,-0.3125,0
16860,0.5,2.1875,-0.0625,0
16880,0.5,1.875,0.0625,0
16900,0.625,2.25,0,0
16920,1.8125,1.6875,-1.0625,0
16940,3.3125,0.8125,-2.3125,0
16960,3.3125,0.1875,-2.75,0
16980,3.875,-0.5,-2.125,0
17000,4.125,-0.75,-2.8125,0
17020,3.625,-1,-2.625,0
17040,2.5625,-1,-1.4375,0
17060,1.9375,-0.5625,-1.125,0
17080,1.125,-1,-0.3125,0
17100,0.8125,-1.3125,0.625,0
17120,0.9375,-0.9375,0.375,0
17140,1.25,-0.5,-0.625,0
17160,1.5625,-0.75,-0.375,0
17180,0.5625,-0.75,0.25,0
17200,0.6875,-0.6875,0.5,0
17220,0.5625,-0.8125,0.1875,0
17240,0.1875,-0.6875,0.4375,0
17260,-0.125,-0.5625,0.8125,0
17280,-0.9375,0.0625,0.75,0
17300,-0.9375,0.5625,0.6875,0
17320,-0.3125,0.625,0.375,0
17340,0.75,0.5,-0.0625,0
17360,1.0625,0.3125,-0.0625,0
17380,1.375,0.3125,-0.1875,0
17400,1.1875,0.3125,-0.375,0
17420,0.875,0.5625,-0.875,0
17440,0.6875,0.5625,-1.75,0
17460,1.4375,0.8125,-2.3125,0
17480,1.25,1.0625,-2.0625,0
17500,0.9375,0.9375,-1.3125,0
17520,0.0625,1,-1.25,0
17540,-0.375,1.6875,-1.1875,0
17560,-0.9375,1.3125,-1.0625,0
17580,-0.75,0.3125,-1.0625,0
17600,-1.4375,0.0625,-0.0625,0
17620,-1.875,0,0.5,0
17640,-2.4375,-0.9375,0.25,0
17660,-2.625,-1.625,0.75,0
17680,-1.9375,-1.0625,0.9375,0
17700,-1.5,-0.6875,0,0
17720,-2,-1.3125,0,0
17740,-4.375,-2,1.0625,0
17760,-2.9375,-2.625,3.25,0
17780,-3.5625,-2,3.125,2000
17800,-3.0625,-1.375,3.25,0
17820,-1.25,-1.5625,3.625,0
17840,-0.125,-0.625,1.5,0
17860,0.5625,0.625,-1.5625,0
17880,-0.375,0.25,-2.1875,0
17900,-0.0625,-1.125,-1.3125,0
17920,-0.875,-2.25,-0.8125,0
17940,-1.625,-2.8125,-0.375,0
17960,-2.5,-3,-0.125,0
17980,-2.8125,-3.5625,0.4375,0
18000,-2.5,-3.8125,0.6875,0
18020,-2.8125,-4.25,1,0
18040,-1.9375,-5.0625,-0.0625,0
18060,-0.8125,-6.1875,-1.1875,0
18080,-0.125,-7.4375,-1.9375,0
18100,-0.5,-9.1875,-2.8125,0
18120,-0.3125,-11.5,-3.875,0
18140,-2.3125,-13.625,-3.875,0
18160,-4.6875,-14,-3.625,0
18180,-6.0625,-14.375,-3.8125,0
18200,-3.4375,-16.875,-4.6875,0
18220,-2.6875,-19.25,-5.0625,0
18240,-5.1875,-18.3125,-5.25,0
18260,-6.5,-19.3125,-7.1875,0
18280,-7.3125,-20.8125,-8.125,0
18300,-6.875,-21.625,-8.25,0
18320,-8.3125,-20.75,-9.1875,0
18340,-10.3125,-21.4375,-11.6875,0
18360,-10.8125,-23.875,-14.0625,0
18380,-11.6875,-24.5,-12.4375,0
18400,-12.1875,-21.125,-13.9375,0
18420,-10.8125,-17.4375,-17.4375,0
18440,-9.75,-16.125,-20.5625,0
18460,-9.5,-17.1875,-25.4375,0
18480,-9.6875,-17.9375,-29.75,0
18500,-9.375,-14.75,-29.6875,0
18520,-9.3125,-9.375,-31.0625,0
18540,-8.75,-7.5625,-34.5625,0
18560,-8,-5.375,-36.5625,0
18580,-6.5,1.3125,-38.8125,0
18600,-6.6875,9.0625,-41.75,0
18620,-6.25,13.1875,-44.1875,0
18640,-5.9375,16.6875,-46,0
18690,-17.8125,52.4375,-53.875,0
18710,-17.625,53.75,-54.8125,0
18730,-17.125,56.8125,-55.4375,0
18750,-15.9375,60.375,-54.5625,0
18770,-14.75,61.5,-49,0
18790,-13,60.375,-44.4375,0
18800,-12,59.0625,-43.0625,0
18820,-11.125,57.5625,-42.125,0
18830,-10.9375,54.1875,-40.8125,0
18850,-10.75,50.75,-38.6875,0
18870,-10.875,46.6875,-34.25,0
18890,-9.75,39.875,-26.75,0
18910,-7.1875,35.25,-21.875,0
18930,-8.4375,38.4375,-21.6875,0
18950,-13.5,43,-20.0625,0
18970,-20.5625,45.625,-16,0
18990,-26.8125,43.5625,-6.0625,0
19010,-22.5,34.3125,-2.0625,0
19030,-17.625,30.75,1.6875,0
19050,-18.6875,31.5625,4.6875,0
19070,-16.25,31.125,6.25,0
19090,-23.125,25.875,16.0625,0
19100,-19.875,18.875,24.625,0
19120,-17.375,15.75,26.4375,0
19140,-17.375,17.625,23.1875,0
19160,-23.0625,15.3125,29.6875,0
19180,-20.1875,3.25,40.625,0
19200,-14.9375,-3.8125,42.375,0
19220,-18.1875,-3.9375,33.875,0
19240,-26.9375,-3.25,32.5625,0
19260,-26.875,-10,40,0
19280,-23.5625,-15.4375,44.8125,0
19300,-25.4375,-17.875,34.75,0
19320,-20.6875,-22.0625,30.875,0
19340,-15.1875,-25,33.9375,0
19360,-14.125,-25.5,29.3125,0
19380,-14.9375,-26.75,25.0625,0
19400,-12.375,-29.625,24.1875,0
19420,-10.375,-32.0625,21.8125,0
19440,-6.9375,-32.4375,19,0
19460,-3.1875,-32.5625,18.4375,0
19480,-0.125,-34,16.5,0
19500,1.625,-34,12.5,0
19520,0.5,-33.625,10.75,0
19540,1.4375,-33.5625,10.8125,0
19560,1.4375,-34.5625,11.9375,0
19580,-0.875,-36.125,12.6875,0
19600,0.4375,-36.5,16.3125,0
19620,0.9375,-36.9375,18.5625,0
19640,3.1875,-38.75,19.375,0
19660,2.5,-41.9375,20.0625,0
19680,0.1875,-45.0625,19,0
19700,1.5,-47.0625,18,0
19720,0.4375,-49.25,16.1875,0
19740,-0.75,-53.5,17.25,0
19760,-2.5625,-57.8125,18.4375,0
19780,0,-59.3125,16.9375,0
19800,-1.4375,-61.5625,18.125,0
19820,-2.875,-63.4375,21.25,0
19840,-6.75,-65.6875,22.8125,0
19860,-9.9375,-67.3125,22.4375,0
19880,-9.25,-67.1875,22.75,0
19900,-9.625,-67.8125,22.6875,0
19920,-11.3125,-66.625,20.625,0
19940,-11.3125,-65.5,16.5625,0
19960,-8.6875,-63.8125,12.25,0
19980,-6.3125,-61.8125,7.5625,0
20000,-4.375,-59.9375,3.875,0
20020,-3.125,-58.1875,-0.5625,0
20040,2,-55.625,-7.125,0
20060,7.3125,-52.5625,-15.1875,0
20080,4.4375,-49.0625,-21.375,0
20100,7.875,-43.8125,-25.4375,0
20120,9.375,-39.1875,-30.4375,0
20140,7.0625,-36.3125,-34.6875,0
20160,8.5,-33.875,-37.6875,0
20180,9.5625,-32.4375,-41.4375,0
20200,9,-28.5625,-42.8125,0
20220,10.5,-25.0625,-44.625,0
20240,6.3125,-23.4375,-46.8125,0
20260,6.75,-20.75,-48.6875,0
20280,3.625,-15.4375,-48.6875,0
20300,2.6875,-11.0625,-50.875,0
20320,1.75,-4.4375,-51,0
20340,2.8125,3.5,-52.5625,0
20360,1.25,9.5,-49.8125,0
20380,-0.625,11.5625,-51.9375,0
20400,-0.3125,12.625,-55.4375,0
20420,-3.4375,15,-61.875,0
20440,-3.3125,22.0625,-62.9375,0
20460,-3.75,27.125,-64.875,0
20480,-3.4375,30,-68.8125,0
20500,-5.5625,32.4375,-71.5625,0
20520,-7.875,36.75,-73.25,0
20540,-10.3125,39.625,-72.875,0
20560,-12.75,40.125,-70.25,0
20570,-14.375,41.8125,-66.75,0
20580,-15.375,44,-61.5625,0
20600,-17.625,45.875,-53.9375,0
20620,-18.6875,50.5,-47.75,0
20640,-17.1875,54.75,-44.75,0
20660,-17.5625,54.75,-37.9375,0
20680,-21.4375,53.5625,-25.3125,0
20700,-22.9375,56.625,-13.5,0
20720,-21.6875,60.5625,-9.0625,0
20740,-19.8125,61.5,-4.875,0
20760,-19,59.3125,2.5,0
20780,-17.6875,55.8125,9.5,0
20800,-17.3125,57.625,12.875,0
20820,-12.3125,58.8125,15.5,0
20840,-14.1875,55.625,17,0
20860,-18,48.125,24.5625,0
20880,-17.125,41.125,36.75,0
20900,-19.9375,37.25,39.125,0
20920,-23.75,38.625,32.6875,0
20940,-23.375,37.75,36.8125,0
20960,-25.6875,23,58.3125,0
20980,-22.6875,11.25,79.625,0
21000,-31.3125,15,68.25,0
21020,-43.125,21.875,53.125,0
21040,-43.8125,11.25,60.0625,0
21060,-44.9375,-2.875,85.5,0
21070,-46.75,-6.125,79.0625,0
21090,-45.75,-5.875,55.875,0
21110,-35,-10.375,53.375,0
21130,-24.625,-22,61.1875,0
21150,-20.375,-26.375,60.8125,0
21170,-22.4375,-25.6875,45.5,0
21190,-15.75,-27.125,38.25,0
21210,-7.375,-34.25,39.3125,0
21230,-5.625,-41.8125,35.8125,0
21250,-5.6875,-45.4375,26.625,0
21270,-3.1875,-45.625,23.1875,0
21290,0,-49.1875,20.8125,0
21310,3.1875,-55.3125,17.6875,0
21330,0.25,-58.9375,14,0
21350,-3.375,-60.0625,11.3125,0
21370,-3.4375,-61.625,7,0
21390,-0.875,-67.4375,4.4375,0
21410,-1.5625,-73.0625,3.9375,0
21430,-5.375,-74.125,0.5,0
21450,-5,-72.3125,-4.3125,0
21470,-0.625,-73.4375,-7.875,0
21490,0.125,-76.25,-10.375,0
21510,-3.1875,-75.6875,-17.375,0
21530,-2.3125,-73.8125,-21.3125,0
21550,2.6875,-71.0625,-25.375,0
21570,5.5,-69.25,-30.0625,0
21590,13.6875,-64.625,-34.8125,0
21610,20.0625,-57.9375,-40.125,0
21630,21.875,-52.1875,-50.375,0
21650,27.125,-49.25,-61.375,0
21670,33.0625,-41.25,-71.4375,0
21690,32.625,-32.6875,-73.9375,0
21710,35.1875,-22.6875,-78.5,0
21730,30.25,-19.3125,-84.8125,0
21750,25.5625,-13.4375,-85.625,0
21770,25.375,-7.4375,-84.5,0
21790,19.75,-2.1875,-82.625,0
21810,15.875,-4.5625,-89.5625,0
21830,3.8125,-2.9375,-89.6875,0
21850,-7.25,-0.0625,-87.0625,0
21870,-14.8125,1.5625,-90.8125,0
21890,-21.6875,2.875,-91.0625,0
21910,-17.4375,5.3125,-90.625,0
21930,-21.625,9.25,-93.125,0
21950,-26.8125,17.4375,-88.75,0
21970,-29.5625,25.5,-81.9375,0
21990,-22.9375,31,-77.75,0
22010,-20,38.375,-72.125,0
22030,-18.25,48.5625,-65.4375,0
22050,-17.1875,57.625,-57.4375,0
22070,-17.5625,65.375,-51.0625,0
22090,-17.375,71.3125,-45.375,0
22110,-14.9375,78.4375,-36.25,0
22130,-17.1875,84.25,-22.8125,0
22150,-17.8125,83.25,-6.25,0
22170,-13.75,77.875,8.4375,0
22190,-7.6875,79.625,14.0625,0
22210,-6.8125,77.25,21.375,0
22230,-9.5,67.3125,35.4375,0
22250,-13.75,64.75,57.1875,0
22270,-16.4375,63.875,61.6875,0
22290,-21.3125,64.125,57.25,0
22310,-30.5625,61.4375,62.0625,0
22330,-48.625,55.3125,72.5625,0
22350,-54.5625,44.625,89.1875,0
22370,-56.6875,42.125,100.438,0
22390,-87.75,37.5625,81.25,0
22410,-99.0625,32.75,71.4375,0
22430,-81.0625,20.9375,75,0
22450,-79.5625,9,85.9375,0
22470,-91.9375,6.5625,74.5,0
22490,-99.6875,4.3125,64.75,0
22510,-81.75,0.375,56.25,0
22530,-67.75,-16.6875,51,0
22550,-56.4375,-35.5625,48.9375,0
22570,-56.25,-41.5625,41.3125,0
22590,-42.3125,-41.625,33.4375,0
22610,-22.625,-51.5625,27.5,0
22630,-9.875,-62.3125,24.375,0
22650,-6.5625,-70,18.5625,0
22670,-1.3125,-79.0625,12,0
22690,-1.8125,-90.5,13.75,0
22710,-15,-96.9375,13.625,0
22730,-29.3125,-96.125,9.6875,0
22750,-34.25,-96.4375,5.1875,0
22770,-29.5,-101.062,3,0
22790,-29.5625,-101.562,-0.4375,0
22810,-30.25,-92.5,-12.125,0
22830,-16.125,-86.8125,-26.25,0
22850,0.375,-89.25,-31.0625,0
22870,3.3125,-89.0625,-34.4375,0
22890,3.875,-80.1875,-42.1875,0
22910,14.0625,-68.875,-55.0625,0
22930,28.875,-60.8125,-60.875,0
22950,40.5625,-56.1875,-67,0
22970,35.875,-49.5625,-74.1875,0
22990,30.5625,-39.875,-72.5,0
23010,29.1875,-33,-72.375,0
23030,25.5625,-31,-68.625,0
23050,20,-25.9375,-58.0625,0
23070,19.5,-16.625,-52.25,2001
23090,20.4375,-12.75,-55,0
23110,15.25,-9.1875,-47,0
23130,9.4375,-1.6875,-34.75,0
23150,-2.25,4.0625,-25.8125,0
23170,-3.0625,5,-18.6875,0
23190,-2.25,7.25,-17.5625,0
23210,-0.125,8.1875,-8.8125,0
23230,-5.5,8,9.75,0
23250,-9.75,9.9375,21.1875,0
23270,-14.9375,12.0625,22.4375,0
23290,-20.4375,10.375,23.5625,0
23310,-19.8125,8.6875,24.8125,0
23330,-12.6875,5.75,22.375,0
23350,-4.4375,4.25,16.0625,0
23370,0.5625,3.3125,9.1875,0
23390,3.25,0.4375,7.6875,0
23410,6.3125,-1.5,7.5,0
23430,3.125,-3.625,7.125,0
23450,-2.625,-8.3125,14.125,0
23470,-3.75,-7.1875,21.5,0
23490,0.6875,0,14.25,0
23510,4.375,7.1875,14.25,0
23530,5.1875,14.375,15.125,0
23550,9.0625,16.6875,18.75,0
23570,1.3125,11.375,30.8125,0
23590,-1.75,10.875,36.8125,0
23610,0,15.25,35.0625,0
23630,10.3125,17.9375,30.5625,0
23650,15.375,15.375,29.0625,0
23670,19.5625,10.375,31.0625,0
23690,21.75,11.625,32.9375,0
23710,22.6875,18.875,35.5,0
23730,28.1875,23.375,39.25,0
23750,34.25,21.75,42.125,0
23770,34.25,22.875,45.8125,0
23790,30.9375,27.5625,52.8125,0
23810,34.3125,28.6875,54.5,0
23830,45.625,27.4375,51.125,0
23850,53.375,28.4375,49.9375,0
23870,52.75,27.4375,56.375,0
23890,48.6875,27.125,70.1875,0
23910,43.375,28.625,71.1875,0
23930,48.4375,36.8125,62.6875,0
23950,50.25,43.25,61.8125,0
23970,41.9375,42.9375,73.125,0
23990,39.625,39.375,78.75,0
24010,40.75,37.8125,73.1875,0
24030,40.3125,41.75,65.4375,0
24050,34.75,40.125,63.9375,0
24070,31.875,35.375,61.9375,0
24090,26.75,31.0625,59.9375,0
24110,16.25,28.9375,53.0625,0
24130,11,23.875,43.3125,0
24150,9,15.1875,33.4375,0
24170,7.0625,8.4375,26.75,0
24190,4.8125,6.3125,23.3125,0
24210,1.4375,6,19,0
24230,0.6875,3.9375,11.4375,0
24250,2.25,1.0625,3.4375,0
24270,2.25,-0.4375,-0.75,0
24290,0.9375,-1.125,-2.3125,0
24310,0.625,-1.3125,-4.875,0
24330,-1.125,-0.5625,-8.0625,0
24350,-1.5,0.0625,-9.25,0
24370,-1.875,-0.0625,-8.0625,0
24390,-2.3125,-1.125,-6.25,0
24410,-4.75,0,-5.375,0
24430,-7.625,1.625,-5.875,0
24450,-6.75,1.625,-7.3125,0
24470,-6.4375,1.3125,-5.75,0
24490,-5.4375,1.125,-4.5625,0
24510,-2.9375,1.875,-6.3125,0
24520,-1.5,3.125,-7.125,0
24540,0.6875,1.625,-5.6875,0
24560,1.125,0.375,-2.0625,0
24580,1.125,0.625,-0.75,0
24600,0.875,3.9375,-1.1875,0
24620,0.9375,5.3125,-1.9375,0
24640,0.625,3.0625,-1.5625,0
24660,-1.6875,-0.75,0.8125,0
24680,-2,-2.375,2.75,0
24700,-1.9375,-1.75,2.75,0
24720,-1.875,-0.5,1.5,0
24740,-0.0625,-0.1875,0.625,0
24760,-1.5,0.25,-0.5625,2000
24780,-1.6875,-0.8125,-2,0
24800,-1.25,-1.25,-2.5625,0
24820,-0.8125,-0.8125,-5.875,0
24840,-1.125,-1.4375,-7.125,0
24860,0.25,-4,-6.125,0
24880,0.375,-4.9375,-4.875,0
24900,-1.375,-3.9375,-3.9375,0
24920,-1.375,-2.3125,-2.125,0
24940,-0.4375,-0.5625,-1.875,0
24960,0.4375,0.25,-2.25,0
24980,1.5625,-1.4375,-3.5625,0
25000,2.4375,-4.8125,-2.5625,0
25020,4,-7.375,-2.8125,0
25040,4.6875,-7,-4.9375,0
25060,4.9375,-7.25,-7.1875,0
25080,5.3125,-10.5,-8.0625,0
25100,4.3125,-13.0625,-8.875,0
25120,4.5,-13.375,-12.375,0
25140,4.25,-12.75,-14.625,0
25160,2.6875,-13.375,-15.5,0
25180,2.75,-15.4375,-17.75,0
25200,-1.5625,-18.1875,-22.8125,0
25220,-5.4375,-24.875,-26.75,0
25240,-7.625,-29.9375,-25.8125,0
25260,-9.5625,-28.75,-24.125,0
25280,-13.6875,-29.4375,-31.1875,0
25300,-12.625,-33.375,-37.1875,0
25320,-13.0625,-35.3125,-34.4375,0
25340,-12.875,-30.8125,-33.4375,0
25360,-14.25,-27.1875,-33.25,0
25380,-16.0625,-25.0625,-33.4375,0
25400,-16.375,-18.8125,-32.3125,0
25420,-15.4375,-9.375,-31,0
25440,-13.625,-1.8125,-34.625,0
25460,-12,2.3125,-37.3125,0
25480,-9.25,7.0625,-37.6875,0
25500,-6.6875,14.4375,-40.375,0
25520,-4.6875,22.875,-45.3125,0
25540,-4.4375,31.9375,-47.9375,0
25560,-3.8125,40.25,-48.625,0
25580,-2.8125,49.75,-52.3125,0
25600,-3.375,62.5,-55.6875,0
25620,-2.0625,72.5625,-56.4375,0
25650,-3.375,85.75,-61.0625,0
25680,-5.3125,92.875,-59.9375,0
25700,-3.5625,100.688,-56.3125,0
25720,-7.625,100.062,-56.5625,0
25740,-7.5,85.625,-57.375,0
25760,-7.9375,73.25,-54.875,0
25780,-7.4375,67.625,-52.5625,0
25800,-8.75,63.1875,-48.875,0
25820,-12.0625,57.4375,-43.3125,0
25840,-13.25,51.3125,-37.6875,0
25860,-14.6875,46.25,-33.1875,0
25880,-14.5625,43.6875,-26.6875,0
25900,-12.0625,42.6875,-21.0625,0
25920,-11.1875,42.9375,-19.0625,0
25940,-11.4375,40.25,-16.25,0
25960,-12.6875,33.0625,-9.75,0
25980,-7.125,31.6875,-7.9375,0
26000,-6.25,35.8125,-8.1875,0
26020,-9.5625,39.5625,-6.5625,0
26040,-11.875,40.375,-2.1875,0
26060,-10.875,34.625,3.75,0
26080,-11.1875,29.25,8.25,0
26100,-11.3125,27.25,9.1875,0
26120,-14.9375,26.8125,9.1875,0
26140,-12,22.5625,12.5625,0
26160,-11.75,16.4375,20.0625,0
26180,-14.8125,12.5,29.125,0
26200,-16.375,10.4375,35.9375,0
26220,-20.0625,9.5,41.125,0
26240,-21.25,5.875,42.875,0
26260,-26.875,1.4375,46.6875,0
26280,-33.1875,0.25,46,0
26300,-37.6875,2.5625,44.125,0
26320,-37.375,-0.125,45,0
26340,-36.375,-5.125,45.375,0
26360,-33.875,-7.25,43.625,0
26380,-30.1875,-7.5625,40.375,0
26400,-25.375,-10.4375,37.0625,0
26420,-24.8125,-13.8125,34.375,0
26440,-25.0625,-16.3125,34.0625,0
26460,-23.5625,-21.25,32.25,0
26470,-19.8125,-25.5625,32.9375,0
26490,-17.1875,-26.9375,29.125,0
26510,-14.75,-29.0625,26,0
26530,-12.6875,-31.75,26.75,0
26550,-13,-34.0625,26.125,0
26570,-11.8125,-35.5625,22.5625,0
26590,-8.3125,-35.9375,21.5625,0
26610,-4.8125,-36.125,22.9375,0
26630,-2.3125,-37.0625,23.1875,0
26650,-0.5,-38,22.5,0
26670,-3.5,-38.6875,23.9375,0
26690,-5.625,-38.5625,23.5625,0
26710,-10.0625,-40.3125,24.0625,0
26730,-11.0625,-43.9375,26.625,0
26750,-11.875,-45.6875,25.25,0
26770,-11.8125,-47,22.8125,0
26790,-12.3125,-51.25,24.3125,0
26810,-13.75,-54,24.25,0
26830,-12.3125,-54.0625,19.875,0
26850,-12.375,-55.5625,18.9375,0
26870,-12.625,-57.375,21.375,0
26890,-15.375,-59.6875,21.625,0
26910,-14.625,-60.25,18.4375,0
26930,-12.125,-60,14.875,0
26950,-11.1875,-60.75,15.25,0
26970,-13.6875,-63.6875,14.0625,0
26990,-10.5,-63.125,9.25,0
27010,-4.3125,-61.375,4.4375,0
27030,-1.0625,-61.8125,3.8125,0
27050,-0.4375,-62.75,-0.375,0
27070,5.9375,-60.5625,-6.75,0
27090,10.625,-57.375,-12.75,0
27110,13.1875,-53.8125,-15.8125,0
27130,18.5625,-49.6875,-20.25,0
27150,16.875,-46.3125,-26.125,0
27170,17.875,-44.9375,-28.5625,0
27190,21.4375,-42.875,-30.5,0
27210,18,-39.3125,-33.0625,0
27230,14.1875,-35.125,-33.0625,0
27250,15.9375,-34.75,-33.5,0
27270,10.9375,-32.6875,-37.6875,0
27290,11.4375,-29.9375,-41.3125,0
27310,13,-25.1875,-44.125,0
27330,11.1875,-20.0625,-47.125,0
27350,10.125,-12.8125,-47.875,0
27370,4.875,-5.625,-45.25,0
27390,4.875,2.0625,-40.9375,0
27410,10.875,2.8125,-46.5625,0
27430,11.8125,1.3125,-50,0
27450,8.5625,2.875,-52.375,0
27470,-1.3125,7.625,-51.875,0
27490,-6,7.625,-51.5625,0
27510,-8.3125,3.875,-54,0
27530,-12.3125,6.875,-56.1875,0
27550,-14.8125,14.5625,-54.0625,0
27570,-18.125,15.9375,-49.5,0
27590,-20.9375,14.4375,-47.8125,0
27610,-21.1875,17,-46.1875,0
27630,-20.625,25.9375,-47.375,0
27650,-23.5,33.125,-49.375,0
27670,-25.6875,35.25,-50.625,0
27690,-26,37.625,-50.375,0
27710,-24.6875,44.1875,-50.625,0
27730,-21.625,51.1875,-50.9375,0
27750,-20.125,53.875,-50.0625,0
27770,-17.5,56.1875,-48.5625,0
27790,-15.9375,57.1875,-48.8125,0
27810,-13.5,54.5625,-46.9375,0
27830,-11.6875,51.75,-43.8125,0
27850,-8.3125,53.25,-42,0
27870,-8.1875,54.5625,-39.875,0
27890,-7.625,55.5,-34.5625,0
27910,-7.25,56.75,-28.25,0
27930,-7.125,58.875,-26.25,0
27950,-4.625,61.5625,-22,0
27970,-4.125,58.4375,-15.75,0
27990,-7.3125,53.6875,-10.125,0
28010,-9.3125,50.5,-6.25,0
28030,-7.875,52.5625,-3.625,0
28050,-9.25,49.4375,4.0625,0
28070,-8.25,41.5625,11.8125,0
28090,-7.6875,40.1875,14.9375,0
28110,-4.0625,40.9375,12.4375,0
28130,-1.3125,35.75,15.1875,0
28150,-2.375,28.1875,20.875,0
28170,-3.625,24.5,23.25,0
28190,-6.4375,19.0625,22.5625,0
28210,-8.6875,14.0625,21,0
28230,-10.875,11.9375,25.6875,0
28250,-12.625,10.4375,32.4375,0
28270,-16.6875,12.375,30.8125,0
28290,-22.1875,16.875,29.25,0
28310,-26.3125,16.75,37.1875,0
28330,-26.75,11,44.6875,0
28350,-28.4375,7,45.3125,0
28370,-29.125,8.125,42,0
28390,-29.4375,9.875,38.4375,0
28410,-30.25,9.8125,40.375,0
28430,-32.75,6.125,41.625,0
28450,-35,5.5,40.125,0
28470,-40.4375,7.9375,37,0
28490,-38.5625,5.5,36.75,0
28510,-32.0625,-0.9375,37.5,0
28530,-28.8125,-5.625,36.625,0
28550,-28.25,-6.4375,33.3125,0
28570,-24.1875,-7.125,31.625,0
28590,-20.0625,-10.125,29.25,0
28610,-19.25,-15.125,29.5,0
28630,-20.5625,-15.875,28.1875,0
28650,-18.3125,-13.9375,24.875,0
28670,-13.5,-15.6875,24.5,0
28690,-9.5,-20.5,25.75,0
28710,-8.75,-22.9375,24.25,0
28730,-8.125,-21.9375,22.875,0
28750,-4.5,-22.3125,20.8125,0
28770,-0.9375,-23.6875,18.3125,0
28790,-0.6875,-25.5625,19.625,0
28810,-0.5,-27.25,19.5625,0
28830,-0.375,-28.4375,18.375,0
28850,-1.25,-31.5,19.625,0
28870,-1.875,-35,21.5625,0
28890,-5.375,-37.1875,21.125,0
28910,-8.5625,-39.25,19.625,0
28930,-9.6875,-42.0625,19.9375,0
28950,-11.625,-45.9375,21.625,0
28970,-12.375,-47.5,19.9375,0
28990,-10.8125,-49,18.375,0
29010,-12.4375,-50.0625,20.1875,0
29030,-15.0625,-50.0625,18.75,0
29050,-14.9375,-50.125,15,0
29070,-9.375,-52.375,12,0
29090,-5,-54,10.75,0
29110,-3.125,-52.6875,7.125,0
29130,-0.1875,-51.75,3.3125,0
29150,3.75,-49.3125,-0.5,0
29170,6.375,-48.125,-4,0
29190,5.5,-49,-6.6875,0
29210,4.5625,-49.25,-8.375,0
29230,3.3125,-47.0625,-12,0
29250,6.375,-44.875,-15.5,0
29270,7.25,-45.625,-16.375,0
29290,7.5,-47.1875,-18.3125,0
29310,6.8125,-45.125,-22.4375,0
29330,9.625,-41.9375,-23.4375,0
29350,11.4375,-40.0625,-26.75,0
29370,13.625,-40.3125,-30.0625,0
29390,16.0625,-39.25,-31.6875,0
29410,14.5625,-37.5,-32.5625,0
29430,14.75,-37.75,-34.25,0
29450,14.1875,-36.75,-37.5,0
29470,10,-34.875,-38.875,0
29490,6.5625,-33.875,-39.9375,0
29510,5.3125,-32.375,-42.125,0
29530,8.1875,-30.1875,-43,0
29550,10.4375,-29.9375,-45,0
29570,9.75,-30.375,-47.125,0
29590,9.6875,-29.625,-50.875,0
29610,11.875,-28.3125,-54.8125,0
29630,12,-26.0625,-54.4375,0
29650,-3.9375,-23.0625,-53.25,0
29670,-1.0625,-21.75,-55.75,0
29690,10.25,-21.375,-61.625,0
29710,9.9375,-18.5,-66.1875,0
29730,3.5,-14.8125,-61.3125,0
29750,-0.375,-14.5,-60.4375,0
29770,1.875,-12.625,-67.1875,0
29790,-0.4375,-8.4375,-71.125,0
29810,-2.8125,-1.8125,-68.1875,0
29830,-6.5625,6.4375,-64.625,0
29850,-10.375,11.8125,-62.9375,0
29870,-9.6875,16.4375,-61.8125,0
29890,-10.0625,23.125,-59.625,0
29900,-11.1875,29.3125,-58.25,0
29920,-14.625,35,-54.1875,0
29940,-17.5,41.6875,-48.125,0
29960,-15.75,45.6875,-44.0625,0
29980,-15.1875,48.125,-42.3125,0
30000,-13.1875,52.5,-41.0625,0
30020,-12.0625,56.6875,-40.25,0
30040,-13.6875,60.4375,-33.75,0
30060,-15.8125,62.8125,-27.25,0
30080,-12.5625,64.5,-23.25,0
30100,-10.4375,66.6875,-21.875,0
30120,-11.5625,71.375,-19.4375,0
30140,-14.125,76.125,-13.3125,0
30160,-21.6875,76.1875,-4.1875,0
30180,-18.375,71.625,1.5,0
30200,-10,67.375,0.4375,0
30220,-8,67.3125,1,0
30240,-11,67.6875,8.25,0
30260,-17.9375,64.5625,18.75,0
30280,-16.25,61.75,24.25,0
30300,-13.6875,63.6875,21.4375,0
30320,-14.75,66.375,23.75,0
30340,-23,59,29.875,0
30360,-29.0625,51.125,38.1875,0
30380,-35.6875,47.5625,37.125,0
30400,-34.25,44.3125,37,0
30420,-36.3125,39.1875,42.625,0
30440,-41,33.3125,49.875,0
30460,-45.6875,26.875,48.3125,0
30480,-47.6875,21.5625,45.3125,0
30500,-39.75,19.1875,42.8125,0
30520,-34.9375,14,44.875,0
30540,-34.5,6.6875,48.4375,0
30560,-41.8125,1.125,48.125,0
30580,-51.5625,-1.375,49.4375,0
30600,-54,-3.5,49.8125,0
30620,-49.375,-7.625,47.0625,0
30640,-42.375,-12.6875,44.4375,0
30660,-39,-17,41.875,0
30680,-35.75,-18.5,38.6875,0
30700,-33.0625,-20.9375,34.1875,0
30720,-28.5625,-22.875,30.8125,0
30740,-25.0625,-25,29.625,0
30760,-23,-26.875,28.1875,0
30780,-22.5625,-28.8125,27.375,0
30800,-22.6875,-29.875,26.8125,0
30820,-22.5625,-30.875,25.0625,0
30840,-18.5,-33.75,24.5625,0
30860,-17.625,-36.0625,25.3125,0
30880,-17.0625,-35.0625,22.8125,0
30900,-15.25,-36.125,21.0625,0
30920,-13.125,-36.5,20.1875,0
30940,-12.5,-38.25,18.5,0
30960,-14.9375,-39.25,18.75,0
30980,-18.9375,-39.25,19.0625,0
31000,-20.125,-39.625,18.6875,0
31020,-20.1875,-42.1875,20.625,0
31040,-24,-42.8125,22.375,0
31060,-23.9375,-41.5625,20.4375,0
31080,-16.9375,-43,16.25,0
31100,-8.75,-46.375,14.375,0
31120,-6.3125,-47.0625,9.625,0
31140,-1.6875,-46.5,3.9375,0
31160,6.25,-48.3125,-1.25,0
31180,10.6875,-51.1875,-4.375,0
31200,10.25,-51.1875,-8.0625,0
31220,9.375,-50.4375,-13.125,0
31240,11.3125,-50.375,-16.25,0
31260,13.75,-51.875,-19.4375,0
31280,14.125,-52.5625,-22.875,0
31300,14.6875,-51.75,-24.75,0
31320,13.3125,-49.25,-26.6875,0
31340,16.9375,-48.875,-29.5625,0
31360,15.5625,-51.6875,-32.8125,0
31380,16.5625,-51.625,-34.875,0
31400,18.25,-51.625,-37,0
31420,19.8125,-51.125,-38.4375,0
31440,18.1875,-51.0625,-39.5625,0
31460,15.5,-50.0625,-40.5,0
31480,10.1875,-49.25,-44.1875,0
31500,9.75,-47.3125,-47.125,0
31520,13.5625,-43.8125,-47.4375,0
31540,20.0625,-43.75,-48.3125,0
31560,13.4375,-46.0625,-50.8125,0
31580,7.8125,-41.8125,-53.875,0
31600,4.4375,-37.0625,-53.5,0
31620,5.9375,-33.3125,-50.75,0
31640,7.25,-32.5,-50.5625,0
31660,7.625,-29.1875,-50.25,0
31680,5.5,-25.4375,-47.25,2001
31700,2.875,-20.8125,-40.9375,0
31720,4.9375,-17.375,-34.3125,0
31740,3.3125,-11.9375,-31.5625,0
31760,1.25,-9.625,-26.25,0
31780,-4,-8,-18,0
31800,-9.625,-4.6875,-9.875,0
31820,-9.9375,-2.25,-2.9375,0
31840,-8.75,-0.1875,0.8125,0
31860,-11.5,-0.625,4.9375,0
31880,-11.125,-1.3125,13.625,0
31890,-12.8125,2.6875,17.25,0
31910,-9.75,4.25,15.4375,0
31930,-9.8125,1.4375,16.5,0
31950,-11.75,0.75,18.3125,0
31970,-7.4375,7.0625,17.4375,0
31990,-0.0625,14.9375,13,0
32010,7.5,20.3125,20.25,0
32030,10.5625,23.0625,28.4375,0
32050,15.625,28,32.875,0
32070,7.875,30.8125,42.3125,0
32090,-0.625,31.9375,53.8125,0
32110,0.625,32,61.0625,0
32130,9.5625,33.5,61.0625,0
32150,15.875,37.125,60.875,0
32170,22,37.6875,68.625,0
32190,18.625,36.5625,79.5625,0
32210,21.1875,40.3125,87.75,0
32230,20.75,50.25,88.375,0
32250,19.3125,60.3125,91.5,0
32270,22.875,60.5625,99.875,0
32290,23.8125,56.3125,102.812,0
32310,34.125,51.75,94.8125,0
32330,34.75,51.6875,87.5625,0
32350,36.9375,50.8125,88.5625,0
32370,38.6875,47.5,86.5,0
32390,33.125,45.5,82.5,0
32410,27.3125,42.75,79.625,0
32430,25.75,40.125,72.3125,0
32450,27.8125,34.6875,65.3125,0
32470,27.1875,29.1875,59.4375,0
32490,21.5625,23.625,51.4375,0
32510,15.5625,19.0625,46.875,0
32530,11.125,14.875,45.1875,0
32550,9.75,12.375,38.9375,0
32570,9.3125,9.5625,29.1875,0
32590,8.1875,6.0625,23.375,0
32610,7.1875,2.375,19.4375,0
32630,5.5,0.625,14.4375,0
32650,5.4375,-0.875,9.6875,0
32670,5.4375,-1.8125,7.125,0
32690,2.375,-3.0625,5.125,0
32710,-0.125,-4.1875,4.5625,0
32730,1.0625,-4.9375,4,0
32750,1.25,-5.625,3.8125,0
32770,0.375,-6.8125,5.75,0
32790,1.375,-6.125,6.4375,0
32810,0.3125,-3.875,3.125,0
32830,-1.5625,-2.125,0.875,0
32850,-0.875,-1.9375,0.4375,0
32870,2,-1.375,0.9375,0
32890,2.5,-0.25,0.375,0
32910,2.625,0.5625,0.6875,0
32930,3.0625,0.875,0.0625,0
32950,2.1875,2.125,-1.5,0
32970,0.6875,3.8125,-0.125,0
32990,-0.0625,4.1875,1.5,0
33010,-0.5625,4.5,1.75,0
33030,-0.75,3.9375,1.5,0
33050,-1.875,3,1.5625,0
33070,-3.5,3.0625,1.75,0
33090,-4.6875,3.5625,0.5625,0
33110,-4.75,4.25,2.375,2000
33130,-3.0625,4.8125,3.9375,0
33150,-2.75,4.4375,5.25,0
33170,-1.75,4.4375,6,0
33190,0,5.5625,4.125,0
33210,3.4375,5.0625,0.4375,0
33230,6.75,3.375,0,0
33250,7.75,1,-0.3125,0
33270,3.875,-1.6875,-0.4375,0
33290,2.25,-3.4375,-0.0625,0
33310,2.6875,-4.5625,-0.8125,0
33330,3.625,-5.9375,-2.5,0
33350,3.625,-6.3125,-4.375,0
33370,5.0625,-5.5,-5.8125,0
33390,9.0625,-9.3125,-5.875,0
33410,7,-14,-5.0625,0
33430,-1.0625,-15.3125,-1.4375,0
33450,-6.4375,-15.1875,-1.3125,0
33470,-8.25,-16.625,-2.6875,0
33490,-7.0625,-19.875,-2.9375,0
33510,-5.875,-22.75,-4.6875,0
33530,-5.9375,-22.9375,-7.25,0
33550,-6.4375,-22.4375,-9.1875,0
33570,-4.875,-23.0625,-7.8125,0
33590,-3.1875,-24.3125,-6.25,0
33610,-0.625,-24.5,-7.625,0
33630,-1.375,-24.125,-9.9375,0
33650,-2.375,-21.9375,-10.375,0
33670,-4.125,-20.8125,-9.6875,0
33690,-5,-20.25,-10.625,0
33710,-6.5625,-18.25,-12.75,0
33730,-3.0625,-16.125,-14.875,0
33750,-1.8125,-12.5,-14.6875,0
33770,-1.4375,-10.4375,-15.5625,0
33790,-2.75,-9.5625,-17.5625,0
33810,-1.0625,-9.9375,-20.5,0
33830,-0.25,-10.625,-22.25,0
33850,-2.125,-8.8125,-22,0
33870,-4.6875,-6.125,-21.25,0
33890,-6.125,-2.4375,-19.875,0
33910,-4.0625,-1.8125,-20,0
33930,-1.875,1.25,-20.1875,0
33950,-5.6875,4.4375,-20.25,0
33970,-6.625,7.75,-22.25,0
33990,-4.5,10.9375,-25.375,0
34010,-4.8125,10.0625,-29.0625,0
34030,-4.3125,13.4375,-31.375,0
34050,-4.375,18.875,-31.4375,0
34070,-3.625,22.625,-32.75,0
34090,-3,24.5,-34.5,0
34110,-1.3125,25.875,-39.9375,0
34130,-0.25,27.3125,-41.1875,0
34150,-0.75,30.625,-43.3125,0
34170,-0.3125,33.4375,-47.125,0
34190,5.9375,54.4375,-54.1875,0
34190,7.0625,56.5625,-51.625,0
34210,8.0625,59.5,-51.0625,0
34230,5.9375,61.625,-49,0
34250,-1.5625,58.9375,-39.0625,0
34270,-4.375,58,-36.75,0
34280,-6.4375,55.75,-34.625,0
34300,-8.75,53.25,-32.8125,0
34320,-11,50.875,-30.1875,0
34340,-11.6875,48.5,-25.5,0
34360,-9.625,47.4375,-21.9375,0
34380,-5.5,45.3125,-22.25,0
34400,-3.4375,42.1875,-21.125,0
34420,-5.5,40.1875,-16.9375,0
34440,-9.0625,38.4375,-13.8125,0
34460,-5.4375,36.75,-13.8125,0
34480,-4.3125,35.25,-14,0
34500,-5.875,34.125,-13.375,0
34520,-6.25,32.5625,-12.8125,0
34540,-7.25,33,-14.5625,0
34560,-5.5625,34.25,-17.0625,0
34580,-5.875,33.6875,-15.4375,0
34600,-5.3125,30.6875,-10.75,0
34620,-6,27.125,-5.4375,0
34640,-6,28.4375,-4.375,0
34660,-6.375,29.125,-5.5,0
34680,-4.375,28.75,-5,0
34700,-3.375,26.3125,-2.1875,0
34720,-8.625,23.5,4.4375,0
34740,-4.4375,23.625,9.3125,0
34760,-9.5,23.5625,11.8125,0
34780,-6.75,23.3125,11.0625,0
34800,-7.625,19,14.1875,0
34820,-8.3125,15.125,19.1875,0
34840,-8.4375,13.0625,21.1875,0
34860,-7.1875,11.9375,17.5625,0
34880,-9.0625,7.5,19.875,0
34900,-9.5,4.625,24.1875,0
34920,-12.75,5.9375,21.5625,0
34940,-12.8125,7.5625,18.5625,0
34960,-10.5,5.5,19.8125,0
34980,-10.1875,1.625,22.5625,0
35000,-11.5625,1.25,22.5625,0
35020,-17.5,1.6875,22.5625,0
35040,-21.4375,2.1875,24.875,0
35060,-18.875,1.125,24.125,0
35080,-18.875,-0.5625,22.875,0
35100,-19.75,-2.125,23.3125,0
35120,-19.25,-3.5,23.375,0
35130,-17.25,-3.5,21.1875,0
35150,-15.9375,-3.5,20.125,0
35170,-12.8125,-4.875,19.625,0
35190,-9.75,-7.5625,17.75,0
35210,-7.5625,-8.875,15.375,0
35230,-7.5,-9.875,13.3125,0
35250,-6.4375,-11,12.6875,0
35270,-3.625,-12.6875,12.0625,0
35290,-1.5625,-13.5,11.75,0
35310,-1,-14.875,11.0625,0
35330,-1.25,-15.5,10.6875,0
35350,-1.125,-16.375,10.3125,0
35370,0,-18.125,10.6875,0
35390,-0.6875,-20.1875,12.25,0
35410,-1.1875,-21,14.1875,0
35430,-1.375,-21.75,13.5,0
35450,-0.75,-23.125,12.5625,0
35470,-1.6875,-24.4375,13.0625,0
35490,-1.5625,-25.5,13.4375,0
35510,-1.3125,-26.0625,12.0625,0
35530,0.75,-26.625,12.1875,0
35550,2.6875,-27.6875,12.375,0
35570,4.5625,-28.75,12.9375,0
35590,5.9375,-29.125,12.375,0
35610,5.75,-28,11.9375,0
35630,4.9375,-27.3125,12.9375,0
35650,4.625,-27.9375,13.9375,0
35670,3.9375,-28.0625,15.3125,0
35690,2.25,-27.375,16.25,0
35710,1.25,-27.875,16.625,0
35730,1.1875,-28.625,16.8125,0
35750,0,-29.4375,17.6875,0
35770,-0.25,-30.9375,17.375,0
35790,1.4375,-32.9375,16.6875,0
35810,2.5,-33.5,15.625,0
35830,3.1875,-34.4375,14.9375,0
35850,1.75,-36,14.9375,0
35870,0.875,-36.8125,14,0
35890,2.6875,-36.75,13.0625,0
35910,4.75,-37.1875,12.75,0
35930,4.125,-38.375,14,0
35950,2.0625,-38.75,14.0625,0
35970,0.3125,-39.1875,12.6875,0
35990,-0.6875,-39.8125,13.25,0
36010,-2.125,-41.125,14.125,0
36030,-3.5,-43.125,12.9375,0
36050,-5.75,-44.625,12.125,0
36070,-7.375,-46.3125,13.0625,0
36090,-10.25,-47.125,11.9375,0
36110,-11.4375,-47.5,10.8125,0
36130,-12.9375,-48.375,11.8125,0
36150,-11.875,-50,12.1875,0
36170,-8.875,-50.8125,9.5,0
36190,-5.9375,-49.9375,6.8125,0
36210,-5.5625,-48.8125,4.4375,0
36230,-4,-49.625,3.625,0
36250,-2.5,-50.6875,2.125,0
36270,0.1875,-49.5625,0,0
36290,2.125,-48.9375,-1.125,0
36310,4.3125,-48,-4.8125,0
36330,3.375,-45.25,-9.5625,0
36350,4.8125,-44,-12.6875,0
36370,9.9375,-43.5,-13.25,0
36390,8.1875,-42.875,-17.375,0
36410,7.3125,-41.25,-22.375,0
36430,7.0625,-39.25,-24.625,0
36450,8.25,-36.3125,-27.3125,0
36470,9.5,-34.375,-31.0625,0
36490,10.1875,-32.5625,-33.3125,0
36510,10.9375,-29.25,-36.1875,0
36530,10.4375,-21.3125,-38.5,0
36550,11.3125,-12.375,-37.1875,0
36570,10,-12.3125,-37.5625,0
36590,10.5625,-8,-37.5,0
36610,5,-1.5,-35.8125,0
36630,9.5,4.625,-41.8125,0
36650,6.9375,9.6875,-44.4375,0
36670,-4.75,13.3125,-41.4375,0
36690,-1.6875,18,-42.3125,0
36710,-0.1875,14.8125,-46.125,0
36730,-5.5,18.9375,-44.8125,0
36750,-6.625,19.0625,-48.5625,0
36770,-4.8125,16.1875,-52.3125,0
36790,-8.8125,17.125,-51.8125,0
36810,-11.1875,18.5625,-53.3125,0
36830,-14.5625,20.6875,-53.375,0
36850,-16.125,21.75,-55.75,0
36870,-18.75,22.1875,-56.25,0
36890,-20.125,23.75,-57.6875,0
36910,-19.9375,24.875,-57.6875,0
36930,-20.9375,24.9375,-58,0
36950,-19.375,25.625,-58.375,0
36970,-20.1875,27.375,-57.125,0
36990,-20.6875,29.75,-57.0625,0
37010,-19.5,31.125,-58.5,0
37030,-18.0625,31.4375,-56.9375,0
37050,-16.1875,32.4375,-54.5625,0
37070,-15.1875,34.5625,-52.3125,0
37090,-14.375,36.5,-50.6875,0
37110,-14.5625,38.125,-48.9375,0
37120,-14.5625,38.75,-43.25,0
37140,-14.9375,41.375,-36.4375,0
37160,-14.375,44.25,-32.3125,0
37180,-13.9375,46.625,-26.1875,0
37200,-13.375,47.6875,-20.75,0
37220,-10.1875,45.875,-15.1875,0
37240,-8.4375,43.75,-11.6875,0
37260,-7.4375,42.8125,-7,0
37280,-9.375,45.5,1.25,0
37300,-11.5,45.125,6.5625,0
37320,-12.3125,42.6875,13.375,0
37340,-12.1875,39.4375,15.25,0
37360,-12.625,39.125,15.625,0
37380,-15.5,36.75,20.1875,0
37400,-18,31.5,27.3125,0
37420,-17.4375,26.75,33.625,0
37440,-15.0625,24.6875,34.5,0
37460,-16.125,24.75,34.9375,0
37480,-18.75,21.1875,37,0
37500,-16.375,14.8125,40.125,0
37520,-17.4375,10.75,40.125,0
37540,-16.5625,10,37.875,0
37560,-15.1875,10.9375,37.125,0
37580,-15.4375,8.1875,39,0
37600,-16.75,5.125,38.25,0
37620,-17.8125,6.6875,34.5625,0
37640,-17.5,6.875,34.1875,0
37660,-16.125,4.375,37.25,0
37680,-14.0625,1.6875,38.6875,0
37700,-10.4375,1.6875,33.6875,0
37720,-13.0625,1.375,32.3125,0
37740,-15.625,0.3125,34.375,0
37760,-19.875,-1.375,34.5,0
37780,-20.6875,-1.4375,35,0
37800,-18.9375,-3.125,35.125,0
37820,-16,-4.3125,35.125,0
37840,-15.375,-6.75,34.6875,0
37860,-16.6875,-7.625,33.6875,0
37880,-17.6875,-8.4375,32.125,0
37900,-14.1875,-9,32,0
37920,-12.4375,-9.75,32.5,0
37940,-11.875,-11.6875,33,0
37960,-14.5,-13.4375,29.875,0
37980,-15.25,-13.625,26.875,0
38000,-11.875,-14.625,27.1875,0
38020,-12.375,-18.25,30.125,0
38040,-16.0625,-19.9375,30.9375,0
38060,-20.9375,-19.75,28.125,0
38080,-20.1875,-20.8125,27.3125,0
38100,-20.625,-23.625,30.125,0
38120,-23.375,-25.875,28.1875,0
38140,-24.375,-24.75,24.3125,0
38160,-21.5625,-25.1875,21.875,0
38180,-17.3125,-28,21.375,0
38200,-16.4375,-31.0625,19.1875,0
38220,-13.8125,-31.875,14.375,0
38240,-9,-33.25,11.875,0
38260,-7.5625,-35.75,11.4375,0
38280,-8.125,-37.5,10.125,0
38300,-10.75,-37.8125,7.6875,0
38320,-7.625,-38.3125,6.875,0
38340,-7.1875,-41.3125,7.8125,0
38360,-10.875,-43.4375,9.875,0
38380,-16.625,-44,9.1875,0
38400,-14.9375,-44.1875,8.4375,0
38420,-10.9375,-47.4375,7.375,0
38440,-9.3125,-47.5625,5.6875,0
38460,-11.4375,-43.25,1,0
38480,-12.1875,-42.5625,-1.25,0
38500,-12.625,-44.6875,-0.0625,0
38520,-13.375,-45.75,-2.625,0
38540,-9.875,-46.375,-6.375,0
38560,-7.4375,-47.75,-7.8125,0
38580,-2.6875,-46.4375,-10.1875,0
38600,1.75,-45.125,-15.625,0
38620,5.8125,-46.625,-15.25,0
38640,5.375,-48.3125,-14.875,0
38660,5.8125,-47.25,-18.125,0
38680,10.375,-44.1875,-23.75,0
38700,9.75,-41.1875,-25.75,0
38720,9.6875,-35.9375,-27.625,0
38740,11.75,-32.6875,-29.5625,0
38760,16.625,-32.75,-30.875,0
38780,15.375,-31.5,-32.0625,0
38800,16.6875,-27.5625,-36.25,0
38820,9.625,-24.125,-38.375,0
38840,7.5,-20.8125,-35.375,0
38860,4.0625,-21.6875,-35.4375,0
38880,5.3125,-19.75,-41.125,0
38900,2.3125,-18.1875,-42.75,0
38920,0,-17.375,-38.125,0
38940,-6.125,-15.9375,-37.4375,0
38960,-4.625,-13.9375,-43.125,0
38980,-5.6875,-11.1875,-45.8125,0
39000,-9.1875,-9.5,-44.625,0
39020,-8.625,-7.0625,-45.25,0
39040,-7.9375,-3.75,-46.375,0
39060,-5.125,-0.625,-48.125,0
39080,-4.4375,2.5625,-48.875,0
39100,-5.1875,4.75,-48.3125,0
39120,-5.375,8.875,-48.375,0
39140,-7.75,14.1875,-48.1875,0
39160,-10.6875,17.125,-46.1875,0
39180,-12.25,19.6875,-42.5625,0
39200,-10.9375,22.9375,-41.5625,0
39220,-10.375,28.3125,-42.25,0
39240,-12.4375,34.3125,-41.875,0
39260,-15.0625,39.75,-40.3125,0
39280,-17.1875,43.75,-38.25,0
39300,-14.9375,47.375,-36.875,0
39320,-13.3125,51.3125,-35.75,0
39340,-14.1875,56,-35.375,0
39360,-13.5,59,-35.25,0
39380,-17,60.75,-33.375,0
39400,-20.0625,63.3125,-28.9375,0
39420,-18.8125,63.125,-26.3125,0
39440,-19.4375,59.4375,-26.3125,0
39460,-16.8125,55.8125,-24.3125,0
39480,-13.375,55.9375,-23.625,0
39500,-12.8125,58.6875,-23.9375,0
39520,-17.25,58.8125,-20,0
39540,-17.0625,57.1875,-13.9375,0
39560,-12.1875,55.4375,-15.0625,0
39580,-8.4375,54.5625,-18.6875,0
39600,-6.75,51.6875,-15.4375,0
39620,-5.9375,50.0625,-8.8125,0
39640,-6.5625,51,-7.25,0
39660,-4.0625,49.875,-10.25,0
39680,-1.4375,46.5625,-7.8125,0
39700,1.3125,42.125,-0.0625,0
39720,0.4375,38.625,5.75,0
39740,-0.875,37.25,7.0625,0
39760,-1.125,35.8125,9.625,0
39780,-6,34.625,15.125,0
39800,-7.875,32,22.875,0
39820,-9.25,30.0625,27.4375,0
39840,-12.5,30,27.875,0
39860,-16.4375,27.875,28.5,0
39880,-19.5,23.75,32.375,0
39900,-22.875,21.125,36.9375,0
39920,-26.4375,21.125,39.125,0
39940,-30.875,20.875,42.5625,0
39960,-36.9375,17,47.875,0
39980,-38.125,14.5,47.125,0
40000,-39.25,14.1875,43.25,0
40020,-35,14.375,43.4375,0
40040,-32.5,9,45.1875,0
40060,-29.25,7.0625,41.125,0
40080,-28.8125,8.625,35.1875,0
40100,-26.375,11.5625,36.25,0
40120,-24.1875,15.625,37.25,0
40140,-27.75,15.25,33.9375,0
40160,-34.625,10.5625,29.8125,0
40180,-36.8125,10.6875,30.8125,0
40200,-37.9375,10.0625,31.8125,0
40220,-36.5625,7.5,31.0625,0
40240,-38.375,4.4375,28,0
40260,-38.1875,1.5,27.0625,0
40280,-40.5,-3.375,27.875,0
40300,-42,-7.125,27.375,0
40320,-41.25,-11.5,25.6875,0
40340,-37.25,-15.75,24.375,0
40360,-39.375,-22,25.8125,0
40380,-46.875,-26,30.5,0
40400,-55.5625,-29.1875,30.0625,0
40420,-56.625,-32.6875,28.8125,0
40440,-51.25,-34.5625,27.0625,0
40460,-41.25,-40.8125,23.6875,0
40480,-32.625,-46.5,20.8125,0
40500,-25.5625,-51.375,16.5625,0
40520,-19.5625,-54.375,11,0
40540,-12.8125,-58.5625,9.8125,0
40550,-5.5625,-61.1875,10.375,0
40570,-3.375,-64.125,8.0625,0
40590,-4.3125,-66.75,5.5625,0
40610,-6.875,-67.625,4.125,0
40630,-11.3125,-66.625,4.0625,0
40650,-11.375,-65.3125,3,0
40670,-3.375,-63.5625,-1.875,0
40690,7.9375,-61,-8.25,0
40710,19.625,-59.9375,-14.9375,0
40730,28.1875,-58.25,-18.125,0
40750,33.3125,-56.3125,-22.125,0
40770,36.25,-54.625,-27.0625,0
40790,37.625,-52.6875,-28.375,0
40810,35.5625,-50.25,-31.8125,0
40830,33.3125,-48.3125,-34.25,0
40850,31.4375,-45.125,-31.8125,0
40870,31.625,-41.5,-32.3125,0
40890,29.625,-39.375,-37.1875,0
40910,24.5,-36.4375,-35.5625,0
40930,18,-33.6875,-31.625,0
40950,12.9375,-31.0625,-29.6875,0
40970,9.5625,-29,-29.375,0
40990,9.5625,-28.1875,-29.9375,0
41010,6.875,-28.1875,-28.125,0
41030,3.625,-27.1875,-25.875,0
41050,2.1875,-24.9375,-28.0625,0
41070,7.4375,-23.625,-30.3125,0
41090,10.875,-23.625,-30,0
41110,9.9375,-24.375,-29.5,0
41130,8.1875,-21.875,-30.0625,0
41150,5.4375,-19.875,-31.3125,0
41170,3.625,-20.4375,-30.0625,0
41190,5.8125,-20.8125,-30.125,0
41210,5.125,-22,-27.875,0
41230,6.875,-22.25,-25.75,0
41250,2.625,-22.625,-26.125,0
41270,2.875,-21.875,-25.25,0
41290,1.625,-20.6875,-22.8125,0
41310,0.8125,-21.4375,-23.875,0
41330,5.9375,-23.8125,-23.25,0
41350,2.75,-21.3125,-20.5,0
41370,2.5,-16.1875,-22.5,0
41390,3.4375,-13.4375,-25.125,0
41410,8.75,-14.3125,-26.875,0
41430,6.875,-15.25,-28.125,0
41450,8.0625,-15.4375,-27.875,0
41470,14.4375,-16.3125,-30.125,0
41490,13.375,-19.0625,-31.1875,0
41510,5.6875,-18.8125,-29.6875,0
41530,5.125,-18.3125,-25.8125,2001
41550,8.8125,-14.125,-24.625,0
41570,8.4375,-12.5625,-22.1875,0
41590,4.0625,-12.5,-17.75,0
41610,3.3125,-12.5625,-13.5,0
41630,3.3125,-11.0625,-13.6875,0
41650,4.25,-8.875,-12,0
41670,-1.1875,-8.625,-6.375,0
41690,-4.125,-8.5625,0.0625,0
41710,-2.4375,-5.5625,2.0625,0
41730,-0.9375,-1.625,4.4375,0
41750,-4.3125,1.375,8,0
41770,-6.75,3.3125,11,0
41790,-6.0625,4.3125,11.0625,0
41810,-3.625,2,11.6875,0
41830,-4.1875,0.875,13.5625,0
41850,-4.6875,5.75,14.1875,0
41870,-5.8125,13.8125,15,0
41890,-7,19.0625,22.875,0
41910,-8,26.125,29.6875,0
41930,-1.875,28.1875,34,0
41950,-2.3125,24.4375,36.8125,0
41970,-7.125,23.8125,41.4375,0
41990,-4.5,27.3125,47.8125,0
42010,-1.6875,33.5,53.1875,0
42030,2.1875,39.3125,58.5,0
42050,-2.5625,44.5625,67.1875,0
42070,-6.9375,43.875,75.5,0
42090,-10.8125,42.25,73.8125,0
42110,-9,41.125,75,0
42130,-2.4375,38.8125,82.75,0
42150,17.5,36.9375,83.8125,0
42170,33.25,38.0625,80.75,0
42190,34.8125,40.8125,78,0
42210,19.4375,42.3125,79.625,0
42230,8.5625,42.9375,83.625,0
42250,13.0625,43.1875,83.375,0
42270,26.8125,42.375,73.9375,0
42290,32.8125,35.375,64.8125,0
42310,35.75,28.9375,64.875,0
42330,28.6875,26.375,68.3125,0
42350,18.875,25.0625,63.0625,0
42370,17.5625,20.5,53.625,0
42390,19.875,14.1875,49.8125,0
42410,23.875,10.625,48,0
42430,22.375,9,42.875,0
42450,14.1875,7,37.25,0
42470,13.9375,5.625,32.375,0
42490,13.5,5.4375,26.9375,0
42510,12.4375,5.3125,24.25,0
42520,8.875,3.375,22.375,0
42540,8.625,2.25,19.1875,0
42560,9.625,3,16.1875,0
42580,8,5.1875,15,0
42600,4.375,6.375,14.875,0
42620,0.5625,6.0625,13.9375,0
42640,1.5,5.5,11.8125,0
42660,2.1875,5.625,7.5,0
42680,2.625,6.375,3.75,0
42700,1.5,7.6875,1.5,0
42720,1.1875,6.875,0.4375,0
42740,-0.125,5.125,-1.1875,0
42760,-0.8125,5.1875,-1.5625,0
42780,-3,5.5,-2.625,0
42800,-4,3.8125,-1.8125,0
42820,-4.5,1.9375,-0.625,0
42840,-4.3125,1.0625,-1.625,0
42860,-5,1.0625,-2.0625,0
42880,-4.875,1.625,-1.3125,2000
42900,-2.875,-0.6875,-1.75,0
42920,0.75,-2.125,0.5,0
42940,-2.625,-1.3125,-1.75,0
42960,-1.6875,-2.6875,-3.6875,0
42980,1.0625,-2.3125,-4.0625,0
43000,1.75,-4.9375,-0.3125,0
43020,0.375,-7.5625,2.25,0
43040,-1.25,-6.875,0.4375,0
43060,-1.5625,-6.5625,-0.3125,0
43080,0.5625,-7.5625,2,0
43100,-1,-5.875,3.5625,0
43120,-0.1875,-3.25,2.5,0
43140,1.6875,-2.375,-0.5625,0
43160,3.3125,-3.25,-1.75,0
43180,2.3125,-4.75,0.25,0
43200,2.5625,-4.75,0.625,0
43220,1.1875,-4.4375,-2.5,0
43240,-1.75,-4.9375,-3.8125,0
43260,-0.75,-6.75,-1.4375,0
43280,2.0625,-8.5,-0.5,0
43300,1.125,-10.375,-2.5,0
43320,-0.1875,-11.625,-1.75,0
43340,-2.1875,-12.3125,-0.125,0
43360,-0.75,-14.375,-1,0
43380,-0.8125,-17.0625,-2.9375,0
43400,-3.0625,-18.0625,-3.375,0
43420,-3.4375,-18.5625,-3.75,0
43440,-2.625,-19.1875,-5.875,0
43460,-3.0625,-19.0625,-7.4375,0
43480,-3.6875,-19,-7.1875,0
43500,-4.5,-18.125,-6,0
43520,-3.75,-17.625,-6.3125,0
43540,-0.5625,-16,-9.9375,0
43560,-0.5,-13.8125,-13.0625,0
43580,0.6875,-12.375,-14.75,0
43600,-0.8125,-10.75,-15,0
43620,-0.6875,-7.5,-17.5625,0
43640,0.3125,-6.0625,-19.25,0
43660,0.8125,-4.4375,-20.875,0
43680,2.1875,-0.9375,-21.75,0
43700,0.0625,1.25,-22.125,0
43720,-0.1875,2.1875,-23.1875,0
43740,0.1875,3.0625,-24,0
43760,-2.1875,4.4375,-26.5,0
43780,-5.8125,6.375,-26.4375,0
43800,-7.1875,7.75,-26.1875,0
43820,-6.0625,9.0625,-26.8125,0
43840,-8.0625,8.4375,-28.75,0
43860,-10.625,8.1875,-28.875,0
43880,-9.625,5.625,-31.4375,0
43900,-14.25,6.25,-30.5625,0
43920,-15.5625,7.5625,-31.125,0
43940,-14.875,9.8125,-31.875,0
43960,-14.75,10.625,-31.25,0
43980,-15.5,11.5625,-33.0625,0
44000,-15.75,14.1875,-36.1875,0
44020,-14.9375,16.5625,-38.3125,0
44040,-14,20.375,-40.5,0
44060,-14.4375,24.75,-44.375,0
44080,-13.4375,28.9375,-46,0
44100,-12.125,32.6875,-48.8125,0
44120,-10,37.375,-51.5,0
44140,-9.6875,43.0625,-54,0
44160,-10.1875,48.9375,-54.5625,0
44180,-10.25,53.375,-54.4375,0
44200,-7.6875,58.6875,-53.3125,0
44220,-6.5625,62.125,-52.1875,0
44240,-7.6875,65.625,-50.625,0
44260,-8.125,68.375,-50.3125,0
44280,-6.9375,71.1875,-50.5,0
44300,-6.875,71.875,-47.4375,0
44320,-6.25,69.625,-41.375,0
44340,-6.4375,66.875,-35.5,0
44360,-7.8125,64.5,-31.125,0
44380,-8.5625,63.25,-29.25,0
44400,-8.75,63.375,-26.5625,0
44420,-7.9375,61.625,-21.875,0
44440,-6,58.5625,-16.625,0
44460,-5.4375,57,-13,0
44480,-6.5,56.9375,-10.5,0
44500,-7.1875,54.5625,-7.5625,0
44520,-6.25,50.0625,-4.625,0
44540,-4.6875,45.4375,-3.4375,0
44560,-4.5,43.9375,-2.25,0
44580,-6.125,42.625,-1.125,0
44600,-6.9375,38.3125,2.375,0
44620,-4.4375,33.6875,3.9375,0
44640,0.3125,29.75,4.3125,0
44660,0.6875,27.25,3.1875,0
44680,-1.25,25.8125,3.625,0
44700,-3.5,26.375,7.875,0
44720,-4.1875,24.875,12.375,0
44740,-1.0625,20,14.0625,0
44760,0.125,16.375,15.375,0
44780,4.125,16.8125,14.125,0
44800,2.8125,18.125,15.3125,0
44820,0.3125,15.5,17.875,0
44840,-2,13.375,18.875,0
44860,0.1875,17.75,15.0625,0
44880,-2.3125,20.5,12.1875,0
44900,-4.8125,15.9375,14.625,0
44920,-6.25,8.8125,18.3125,0
44940,-2.6875,4.125,18.75,0
44960,-3,4.25,17.25,0
44980,0.3125,3.0625,19.875,0
45000,2.375,1.25,22.8125,0
45020,-0.3125,0.4375,20.5,0
45040,-6.8125,2,18.6875,0
45060,-9.375,1.3125,24.1875,0
45080,-10.1875,0.875,28.8125,0
45100,-7.6875,1.75,27.5,0
45120,-6.75,2.1875,26.3125,0
45140,-8.5625,2.1875,27.375,0
45160,-11.6875,0.875,29.75,0
45180,-15.875,-0.75,27.9375,0
45200,-17.25,-0.8125,25.9375,0
45220,-14.6875,-1.5,25.375,0
45240,-10.1875,-2.6875,23.875,0
45260,-8.5625,-5.875,22.625,0
45280,-7.5,-8.375,21.5625,0
45300,-8.1875,-10,20.0625,0
45320,-6.125,-11.25,17.0625,0
45340,-2.75,-12.25,15.625,0
45360,1.25,-14.25,14.8125,0
45380,2.375,-16.6875,14.6875,0
45400,0.5,-17.75,15.8125,0
45420,-0.4375,-19.75,17.8125,0
45440,0.75,-21.3125,17,0
45460,0.875,-22.9375,16.375,0
45480,0.4375,-25.4375,17.625,0
45500,0.5,-25.0625,17.6875,0
45520,0.6875,-24.375,17.625,0
45540,1.625,-25.5,16.9375,0
45560,1.75,-25.75,14.25,0
45580,1.875,-25.4375,12.375,0
45600,1.375,-25.3125,13.125,0
45620,1.9375,-24.375,13,0
45640,3.875,-24.625,11.625,0
45660,6.3125,-25.75,10.75,0
45680,6.1875,-26.375,10.125,0
45700,5.0625,-25.375,10.625,0
45720,4.3125,-26.1875,10.75,0
45740,3.8125,-27,10.125,0
45760,4.0625,-26.5625,9.5625,0
45780,3.25,-26.3125,8.875,0
45800,2.0625,-26.6875,8.8125,0
45820,3.1875,-26.5625,8.9375,0
45840,2.25,-26.4375,9.375,0
45860,3.5625,-26.75,9.1875,0
45880,6.25,-27,8.125,0
45900,7.9375,-26.125,8.6875,0
45920,5.75,-27.3125,9.75,0
45940,2.625,-28.9375,10.4375,0
45960,0.6875,-28.375,12,0
45980,0.375,-29.1875,12.375,0
45990,1.75,-30.5,9.6875,0
46010,2.9375,-31.75,8.4375,0
46030,3.1875,-33.0625,10.25,0
46050,2.875,-32.8125,11.0625,0
46070,2.3125,-34.5,9.25,0
46090,2.3125,-37.0625,7,0
46110,-0.1875,-38.125,7.75,0
46130,0.1875,-38.1875,8.1875,0
46150,-0.625,-39.3125,6.625,0
46170,-0.8125,-41.0625,7.3125,0
46190,-3,-42.375,7,0
46210,-2.5,-42.375,5.75,0
46230,-3,-42.8125,6.4375,0
46250,-3.9375,-43.5625,7.1875,0
46270,-4.3125,-43.9375,5.125,0
46290,-5.5,-43.625,4.6875,0
46310,-6.3125,-43.4375,4.875,0
46330,-2,-43,2.875,0
46350,1.5625,-40.875,-1.0625,0
46370,3.3125,-39.4375,-3.75,0
46390,4.375,-39.5,-5.625,0
46410,5,-39.5625,-8.125,0
46430,4.375,-38.3125,-10.0625,0
46450,3.5625,-36.625,-11.5,0
46470,5.3125,-36.1875,-12.625,0
46490,8,-34.3125,-14.3125,0
46510,7.1875,-32.75,-15.9375,0
46530,8.125,-31.6875,-18.75,0
46550,10.625,-29.5625,-20.5625,0
46570,14.5625,-27.5625,-22.4375,0
46590,14.5625,-23.75,-22.5625,0
46610,15.5,-20.4375,-24.3125,0
46630,14.25,-21.125,-25.3125,0
46650,11.25,-23.6875,-25.0625,0
46670,13.5,-23.25,-25.75,0
46690,13,-20.75,-27.8125,0
46710,10.0625,-17.9375,-29.1875,0
46730,8.5,-17.1875,-28.625,0
46750,10.625,-16.6875,-29.5,0
46770,15.3125,-12.625,-34.4375,0
46790,12.75,-7.125,-37.8125,0
46810,8.75,1.1875,-35.4375,0
46830,14.875,0.0625,-40,0
46850,17.6875,2.25,-44.6875,0
46870,11.625,6.0625,-46.25,0
46890,2.9375,9,-41.5,0
46910,2.9375,8.1875,-42.3125,0
46930,3.125,10.875,-46.1875,0
46950,0.5,14.4375,-49.5625,0
46970,-3.3125,15.625,-48.875,0
46990,-5.5,16.75,-46.5625,0
47010,-6.6875,16.0625,-47.5,0
47030,-6.4375,17.3125,-49.9375,0
47050,-9.5,19.125,-48.4375,0
47070,-14.3125,17.5625,-46.6875,0
47090,-17,17.375,-44.875,0
47110,-17.3125,21.3125,-44,0
47130,-18.75,25.4375,-42.4375,0
47150,-18.8125,30,-39.75,0
47170,-18.75,33.5625,-40.1875,0
47190,-17.75,36.1875,-42.1875,0
47210,-15.9375,37.375,-43.625,0
47230,-13.8125,38.75,-43.25,0
47250,-12.9375,39.5,-41.0625,0
47270,-10.875,40.5625,-39.75,0
47290,-10.0625,42,-39.375,0
47310,-8.75,42.0625,-39.5625,0
47330,-7.5,41.625,-40.0625,0
47350,-6.6875,43.125,-40.25,0
47370,-6.5625,43.6875,-40.0625,0
47390,-7,44.6875,-37.0625,0
47410,-8.5,45.4375,-33.9375,0
47430,-9,47.9375,-31.5,0
47450,-9.5,49.9375,-27.6875,0
47470,-9.6875,51.125,-22.5625,0
47490,-8.375,51.4375,-14.625,0
47510,-7.1875,49.8125,-9.875,0
47530,-6.9375,49.875,-5.875,0
47550,-9.5625,46.8125,-1.1875,0
47570,-13.4375,44.875,4.5625,0
47590,-16.375,48.3125,9.25,0
47610,-18.125,48.8125,9.1875,0
47630,-17.875,43.25,11.75,0
47650,-16.75,32.5625,18.6875,0
47670,-14.4375,27.8125,24.125,0
47690,-18.4375,29.8125,24.1875,0
47710,-18.875,27.3125,22.375,0
47730,-21.375,21.8125,23.4375,0
47750,-23.75,16.6875,28.25,0
47770,-23,13.3125,29.8125,0
47790,-20.625,11.625,26.3125,0
47810,-20.9375,9.8125,25.25,0
47830,-20.875,8.0625,31.875,0
47850,-26.375,5,38.4375,0
47870,-29.5625,3.875,37.1875,0
47890,-34.625,5.5,33,0
47910,-33.3125,5.875,33.4375,0
47930,-31.25,3.625,38.9375,0
47950,-28.5625,2.4375,41.6875,0
47960,-28.25,3.125,36.875,0
47980,-26.9375,1.875,33,0
48000,-23.5625,-1.75,33.625,0
48020,-24.5,-4.3125,33.25,0
48040,-26.375,-5.8125,30.875,0
48060,-26.5,-7.25,30.6875,0
48080,-23.3125,-8.375,30.8125,0
48100,-21.1875,-11,29.6875,0
48120,-18.8125,-12.75,28.1875,0
48140,-19.0625,-13.5,27.25,0
48160,-16.9375,-13.8125,27,0
48180,-14.1875,-14.9375,26.625,0
48200,-13.25,-16.8125,25.8125,0
48220,-11.3125,-17.8125,26.75,0
48240,-12.4375,-19.25,28,0
48260,-12.375,-19.3125,29.25,0
48280,-10.6875,-17.625,28.5,0
48300,-7.0625,-16.9375,26.25,0
48320,-7.875,-19.9375,27.0625,0
48340,-10.625,-21.6875,27.875,0
48360,-12.3125,-21.75,24.625,0
48380,-11.875,-22.1875,22.3125,0
48400,-12.1875,-24.6875,22.6875,0
48420,-14.75,-27.0625,23.125,0
48440,-17.0625,-28.1875,23.5625,0
48460,-16.9375,-30.1875,22.6875,0
48480,-16.5,-31.4375,21.4375,0
48500,-15.25,-32.3125,20.6875,0
48520,-15.1875,-34.25,19.6875,0
48540,-13.1875,-36.5,16.25,0
48560,-11.0625,-38.125,13.4375,0
48580,-9.6875,-38.75,13.25,0
48600,-8.5,-39.5,11.75,0
48620,-6.1875,-39.4375,8.4375,0
48640,-5.5625,-38.9375,6.1875,0
48660,-4.4375,-39.0625,6,0
48680,-4.6875,-39.75,5.75,0
48700,-5.125,-39.625,4.4375,0
48720,-6.1875,-38.5625,3.625,0
48740,-7.5625,-38.625,4.4375,0
48760,-8.3125,-38.6875,3.25,0
48780,-5.8125,-38.3125,1,0
48800,-3.9375,-39.6875,0.4375,0
48820,-3.3125,-39.75,-1.9375,0
48840,-3.5625,-38.625,-4.4375,0
48860,-1.5625,-39.625,-5.125,0
48880,0.375,-41.5625,-8,0
48900,4.5,-41.75,-10.5,0
48920,8.9375,-42.5,-13.625,0
48940,10.9375,-45.0625,-16.0625,0
48960,11.3125,-47.3125,-16.625,0
48980,8.9375,-48,-17.625,0
49000,8.375,-47.125,-17.875,0
49020,6.0625,-47.5,-17.1875,0
49040,4.5,-48.5,-18,0
49060,8.1875,-49.1875,-20.9375,0
49080,11.75,-49.625,-24,0
49100,9.9375,-48.9375,-24.25,0
49120,5.6875,-50.3125,-23.75,0
49140,5.625,-48.125,-26.125,0
49160,5.375,-41.625,-26.8125,0
49180,9.25,-34.6875,-27.4375,0
49200,8.6875,-31.125,-26.0625,0
49220,6.9375,-29.75,-26.5625,0
49240,7.5625,-24.375,-28,0
49260,9.6875,-16.75,-26,0
49280,11.125,-14.4375,-29.375,0
49300,6.8125,-11.75,-33.625,0
49320,4.0625,-10.8125,-36,0
49340,4.5625,-9.625,-39.8125,0
49370,3.875,-6.25,-48.0625,0
49390,0.0625,-7.0625,-49.8125,0
49410,-4.4375,-8.4375,-49.1875,0
49430,-3.8125,-8.125,-48.25,0
49450,0.25,-5.8125,-50.8125,0
49470,-2.25,-3.9375,-55.25,0
49490,-8.125,-1.9375,-55.5,0
49510,-13.625,1.1875,-53.5,0
49530,-17.25,4.875,-50.625,0
49550,-15.6875,7.875,-50.5625,0
49570,-14.5625,11.25,-52.125,0
49590,-13.1875,14.875,-55.875,0
49610,-16,19.9375,-56.3125,0
49630,-16.875,23.4375,-54.6875,0
49650,-16.125,25.8125,-53.875,0
49670,-13.5625,28.75,-53.1875,0
49690,-12.5625,29.75,-50.6875,0
49710,-13.9375,30.5625,-46.375,0
49730,-12.8125,34.4375,-43.8125,0
49750,-12.3125,39.8125,-43.1875,0
49770,-12.5,43.5,-41,0
49790,-13.6875,43.3125,-35.4375,0
49810,-14.625,42.25,-30.5,0
49830,-14.25,44.625,-27.75,0
49850,-13.75,48.3125,-29,0
49870,-15.4375,48.1875,-25.9375,0
49890,-14.375,44.1875,-21.3125,0
49910,-12.75,41.5625,-20.3125,0
49930,-11.25,44.25,-22.5625,0
49950,-11.25,49.0625,-23,0
49970,-10.625,42.25,-17.5625,0
49990,-6,36.75,-14.625,0
50010,-3,36.1875,-17.25,0
50030,-3.9375,36.3125,-18.1875,0
50050,-4.1875,36.5625,-16.5,0
50070,-4.75,35.125,-13.25,0
50090,-5.125,34.125,-12.625,0
50110,-4.8125,36.5625,-12.9375,0
50130,-7.0625,37,-12.625,0
50150,-7.5,39.25,-9.5625,0
50170,-9.4375,36.125,-5.3125,0
50190,-4.25,32,-1.1875,0
50210,-3.4375,31.5,2.6875,0
50230,-4.8125,32.25,9.75,0
50250,-6.75,30.5625,15.75,0
50270,-9.5625,28.1875,18.5,0
50290,-8.1875,29.0625,21.3125,0
50310,-8.9375,28,24.9375,0
50330,-11.8125,27.4375,32.3125,0
50350,-15.3125,26.1875,35.375,0
50370,-15.125,25.75,34.9375,0
50390,-16.125,27.375,37.625,0
50410,-16.0625,27.625,39.4375,0
50430,-24.0625,27.5,46.75,0
50450,-35.6875,29.4375,50.4375,0
50470,-43.375,32.8125,49.4375,0
50490,-46.875,34.5625,52.6875,0
50510,-48.4375,30.5,55,0
50530,-52.5625,26.375,58.1875,0
50550,-56.6875,28.875,62.625,0
50570,-55.6875,28.6875,64.1875,0
50590,-57.0625,24.625,63.1875,0
50610,-54.625,22.625,58.875,0
50630,-51.375,21.3125,52.1875,0
50650,-50.8125,19.125,51.625,0
50670,-52.6875,17.3125,52.375,0
50690,-52.0625,16.875,45.5,0
50710,-48.8125,14.375,39,0
50730,-45.9375,10.75,37.5625,0
50750,-47.875,6.0625,37.1875,0
50770,-50,2.5,35.375,0
50790,-45.8125,-0.25,31.875,0
50810,-38.1875,-5.5,29.9375,0
50830,-33.1875,-12.6875,29.6875,0
50850,-33.8125,-17.5625,28.8125,0
50870,-34.5625,-21.5625,24.5,0
50890,-32.375,-29.375,22.25,0
50910,-29.6875,-35.875,25,0
50930,-27.5625,-41.1875,23.5625,0
50950,-23.125,-47.625,20,0
50970,-22.75,-51.3125,18.125,0
50990,-24.3125,-53.625,16.5625,0
51010,-26.4375,-56.5,15.3125,0
51030,-28.5,-59.4375,14.5625,0
51050,-25.6875,-63,11.1875,0
51070,-22.9375,-66.625,7.25,0
51090,-19.6875,-69.0625,4.9375,0
51110,-13.9375,-67.1875,1,0
51130,-7.375,-67.5625,-4.3125,0
51150,-5.3125,-69.625,-6.3125,0
51170,-6.1875,-68.625,-6.25,0
51190,-6.8125,-66.375,-9.375,0
51210,-5.3125,-64.5,-12.25,0
51230,-2.75,-63.5625,-14.875,0
51250,-1.5625,-62.875,-17.0625,0
51270,-1.875,-61.25,-17.875,0
51290,-0.5625,-59.3125,-19.125,0
51310,1.9375,-57.625,-22.3125,0
51330,8.375,-53.4375,-25.9375,0
51350,12.25,-51.875,-26.5,0
51370,14.375,-48.875,-28.625,0
51380,15.75,-46.5,-32.5625,0
51400,21.4375,-45.5,-36.875,0
51420,22.1875,-45.0625,-38.25,0
51440,18.5625,-40.5,-37.875,0
51460,16.25,-35.25,-40.25,0
51480,19,-35.0625,-41.875,0
51500,20.9375,-34.6875,-45.375,0
51520,27.4375,-32.5625,-47.5625,0
51540,25.25,-31,-47.875,0
51560,21.5625,-27.375,-50.125,0
51580,23.5,-26.625,-49.75,0
51600,28.0625,-30.1875,-48,0
51620,22.875,-32.1875,-51.1875,0
51640,16.4375,-26.5625,-53.5,0
51660,12.4375,-21.3125,-49.8125,0
51680,11.5625,-22.5625,-46.375,0
51700,7.375,-21.5625,-46.125,0
51720,4.8125,-19.75,-48.4375,0
51740,10.6875,-18.625,-47.5,0
51760,10.1875,-20.5625,-39.1875,0
51780,5.0625,-16.25,-34.1875,0
51800,5.0625,-9.875,-36.25,0
51820,1.875,-9.125,-34.125,2001
51840,2.3125,-10,-26.625,0
51860,-2.4375,-8.75,-25.375,0
51880,-1.9375,-5.375,-25.6875,0
51900,-4.0625,-3.5,-22.4375,0
51920,-8.5625,-0.9375,-16.9375,0
51940,-12.125,-1.75,-12.1875,0
51960,-10.25,-2.875,-5.375,0
51980,-7,-1.3125,-4.0625,0
52000,-7.375,1.1875,-1.5625,0
52020,-8.9375,0.4375,5.25,0
52040,-6.3125,-0.75,9.9375,0
52060,-6.9375,-1.3125,11.9375,0
52080,-12.3125,-3.125,13.375,0
52100,-12.3125,-4.25,18.375,0
52120,-7.875,0.6875,19.4375,0
52140,-1.125,7.9375,19.0625,0
52160,2.125,8.8125,26.6875,0
52180,7.5625,16.4375,35.4375,0
52200,14.625,23.8125,39.8125,0
52220,10.4375,25.625,46.6875,0
52240,10.625,25.75,58.0625,0
52260,16.125,30,64.5,0
52280,26.375,34.6875,63.3125,0
52300,34.1875,36.4375,65.9375,0
52320,33.25,36.75,74.625,0
52340,38.8125,40.375,85.3125,0
52360,47.5,45.75,90.25,0
52380,50.1875,51.25,83.5625,0
52400,42.4375,58,84.9375,0
52420,35.125,61.0625,99.9375,0
52440,34.625,59.9375,102.875,0
52460,39.3125,59,95.0625,0
52480,36.6875,55.75,87.75,0
52500,40.6875,50.375,86.9375,0
52520,33.375,43.1875,87.875,0
52540,30.375,34.6875,82.9375,0
52560,30.125,26.5,74.1875,0
52580,22.375,22,66.9375,0
52600,16.9375,15.625,65.3125,0
52620,13.3125,9.5,60,0
52640,14.5,4.125,48.5,0
52660,14.125,1.6875,36.6875,0
52680,14.25,0.0625,30.6875,0
52700,11.6875,-2.3125,28.25,0
52720,7.8125,-4.9375,24.125,0
52740,6.4375,-7,19.4375,0
52760,9.875,-4.6875,12.875,0
52780,8.4375,-3.5,9.3125,0
52800,6.125,-4.8125,11.3125,0
52820,2,-7.6875,11.0625,0
52840,0.75,-8.625,7.625,0
52860,-1.25,-7.4375,5.4375,0
52880,-0.6875,-7.25,5.8125,0
52900,-0.6875,-7.5,7.6875,0
52920,-3.125,-6.0625,5.875,0
52940,-5.3125,-4.5,3.3125,0
52960,-2.75,-3.6875,0.5625,0
52980,0.3125,-2,-1.6875,0
53000,-1.625,-0.0625,-2.4375,0
53020,-4.0625,-0.3125,-0.8125,0
53040,-1.5,0.9375,-0.8125,0
53060,-0.625,4.375,-1.75,0
53080,-0.4375,5.9375,-3.25,0
53100,-2.1875,6.5625,-4.5,0
53120,-5.375,5.3125,-1.5,0
53140,-3.875,5.625,2,2000
53160,-4.0625,6.0625,0.625,0
53180,-0.9375,7,-1,0
53200,0.3125,5.6875,-1.8125,0
53220,6.8125,4.9375,0.6875,0
53240,7.125,2.875,-0.25,0
53260,1.0625,-0.125,-1.8125,0
53280,-1.875,-2.5625,1.4375,0
53300,2.4375,-4.875,2.875,0
53320,6.25,-7.5,1.625,0
53340,3.6875,-9.1875,-0.6875,0
53360,-1.0625,-10,-2.5,0
53380,-4.5,-11.4375,-4.3125,0
53390,-2.0625,-14.625,-5.25,0
53410,-1.375,-16.5,-6.125,0
53430,-1.1875,-16.875,-10,0
53450,-3.5625,-15.8125,-13.5625,0
53470,-4.5,-15.8125,-14.3125,0
53490,-5.875,-16.0625,-16.1875,0
53510,-6,-15.875,-20,0
53530,-6.875,-16,-22.8125,0
53550,-9.6875,-17.5625,-23.0625,0
53570,-11.5625,-21.4375,-22,0
53590,-11.5625,-21,-21.9375,0
53610,-14.5625,-18,-22.4375,0
53630,-16.375,-16.3125,-21.3125,0
53650,-17.5625,-13.75,-18.8125,0
53670,-16.5625,-13.9375,-17.5,0
53690,-16.125,-14.5625,-18.75,0
53710,-17.4375,-14.9375,-17.0625,0
53730,-18.6875,-16.4375,-14.75,0
53750,-16.375,-15.5,-12.375,0
53770,-15.125,-15.0625,-12.125,0
53790,-15.75,-13.125,-12.1875,0
53810,-14.75,-11.1875,-11.75,0
53820,-15.875,-7.5625,-10.3125,0
53840,-14.0625,-4.0625,-7.4375,0
53870,-10.6875,3.125,-11.625,0
53890,-11.6875,10.6875,-12.0625,0
53910,-13.125,14.75,-11.6875,0
53930,-11.6875,18.375,-13.875,0
53950,-9.5,22.8125,-17.125,0
53970,-9.9375,28.4375,-19.25,0
53990,-11.8125,33.75,-20.75,0
54010,-12.75,37.0625,-22.375,0
54030,-12.1875,39.9375,-23.8125,0
54050,-10.4375,44.25,-26,0
54070,-8.3125,48,-26.25,0
54090,-7.125,51.625,-25.6875,0
54110,-6.75,54.8125,-25.6875,0
54130,-8.625,57.625,-24.8125,0
54150,-7.9375,60.4375,-27.8125,0
54170,-7.8125,63.25,-31.25,0
54190,-6.3125,66.125,-34.625,0
54210,-6.8125,68.5625,-38.125,0
54230,-6.9375,70.125,-41,0
54250,-6.9375,70.4375,-42.8125,0
54270,-6,69.25,-44.8125,0
54290,-4.6875,67.625,-47,0
54310,-2.9375,66.125,-50.1875,0
54330,-3.3125,65.5625,-52.75,0
54350,-4.1875,64.4375,-53.875,0
54370,-3.8125,62.4375,-52.625,0
54390,-1.875,60.8125,-49.5625,0
54410,-1.625,59.1875,-46.8125,0
54430,-1.125,58.375,-43.375,0
54450,-0.3125,58.375,-38.9375,0
54470,-1.5,57.6875,-33.875,0
54490,0.6875,56.25,-29.875,0
54510,4.6875,53.625,-27.125,0
54530,6,48.375,-25.4375,0
54550,7.625,45.1875,-20.9375,0
54570,7.5625,43.3125,-16.6875,0
54590,6.6875,39.4375,-11.125,0
54610,5.9375,33.875,-4.5625,0
54630,5.5625,31.3125,3.3125,0
54650,3.375,28.0625,8.625,0
54670,0.375,24.9375,14.8125,0
54690,1.75,22.625,19.0625,0
54710,2.75,19.125,21.4375,0
54730,4.75,18.25,24.5625,0
54750,3,19.0625,26.9375,0
54770,2.875,16.625,28.5,0
54790,1.6875,12.25,28.3125,0
54810,-1.3125,10.375,28.9375,0
54830,-6.5625,12.75,31.5625,0
54850,-7.125,10.5625,34.5,0
54870,-1.4375,5.375,35.375,0
54890,-2.9375,1.1875,34.3125,0
54910,-8.75,3.25,33.0625,0
54930,-14.125,4.4375,34,0
54950,-14.0625,1.3125,36.125,0
54970,-11.5,-1.375,35.75,0
54980,-12.375,-1.8125,33.5625,0
55000,-14.3125,-1.4375,31.875,0
55020,-18.6875,-1.8125,31.6875,0
55040,-19.1875,-3.4375,32.375,0
55060,-16.625,-5.75,33.125,0
55080,-14.8125,-8.125,31.6875,0
55100,-16.375,-9,28.1875,0
55120,-16.875,-10.125,27.75,0
55140,-17.4375,-13.125,28.4375,0
55160,-16,-15.625,27.5625,0
55180,-14.4375,-16.875,24.375,0
55200,-12.875,-17.6875,20,0
55220,-12.875,-18.6875,20.125,0
55240,-12.625,-20.8125,20.625,0
55260,-8.9375,-22.75,18.5,0
55280,-9.0625,-23.0625,16,0
55300,-7.25,-23.125,14.6875,0
55320,-6.1875,-24.125,13.5625,0
55340,-4.5625,-24.4375,13,0
55360,-4.125,-24.625,13.25,0
55380,-7.5,-25.9375,14.875,0
55400,-9.6875,-26.5625,17.625,0
55420,-10.125,-26.3125,17.625,0
55440,-10.3125,-25.9375,17.25,0
55460,-10.3125,-27.5,18,0
55480,-10.3125,-28.5,17.1875,0
55500,-6.5625,-30.1875,16.875,0
55520,-3.3125,-31.1875,14.1875,0
55530,-1.375,-30.4375,12.625,0
55550,-2.5625,-31.25,12.75,0
55570,-2.0625,-33.5625,11.125,0
55590,0.5625,-34.125,8.9375,0
55610,1,-33.625,8.75,0
55630,1.6875,-34.6875,8.25,0
55650,2.0625,-36.375,7.6875,0
55670,2.25,-37.5625,7.9375,0
55690,0.5625,-39.3125,8.3125,0
55710,-2.1875,-40.375,8.3125,0
55730,-1.4375,-40.8125,6.375,0
55750,-3.75,-42.125,6.75,0
55770,-6.5625,-44.0625,8.9375,0
55790,-7.375,-46.375,8.8125,0
55810,-9.375,-47.9375,8.6875,0
55830,-12.8125,-48.8125,9.6875,0
55850,-15.6875,-49.625,8.625,0
55870,-14.8125,-50.6875,7.5,0
55890,-12.9375,-52.1875,6.5625,0
55910,-11.0625,-53.1875,5.125,0
55930,-9.3125,-52.6875,2.5625,0
55950,-4.25,-51.25,-0.75,0
55970,-2.5625,-50,-4.8125,0
55990,-4.25,-50.1875,-4.5625,0
56010,-3.625,-51.25,-4.875,0
56030,0.0625,-51.0625,-7.4375,0
56050,3.125,-49.0625,-11.8125,0
56070,0,-46.625,-13.5625,0
56090,-5.375,-45.5,-12.375,0
56110,-5.25,-45.625,-11.8125,0
56130,-1.375,-44.625,-15.125,0
56150,-1,-41,-20.1875,0
56170,3.5,-37.875,-21.4375,0
56190,8.5,-36.4375,-25.125,0
56210,6.125,-34.625,-28.6875,0
56230,9.3125,-31.3125,-29.625,0
56250,12.125,-26.8125,-33.5625,0
56270,12.4375,-22.25,-38.125,0
56290,11.6875,-18.4375,-40.75,0
56310,8.625,-17.125,-40.25,0
56330,11.8125,-14.8125,-42.8125,0
56350,15,-8.0625,-47.875,0
56370,13.75,-3.5625,-50.5625,0
56390,3.4375,-2.5625,-46.625,0
56410,-0.125,-0.6875,-44.125,0
56430,4,3.875,-48.4375,0
56450,5,7.5,-52,0
56470,0.75,13.8125,-51.75,0
56490,-6,17.375,-48.375,0
56510,-5.3125,19.1875,-45.0625,0
56530,-1.0625,22.5625,-49.9375,0
56550,0.125,32.75,-57.8125,0
56570,-2.875,37.4375,-59.3125,0
56590,-9.875,39.375,-57.9375,0
56610,-12.0625,42.4375,-59,0
56630,-12.8125,45.1875,-61.5625,0
56650,-10.875,49.75,-63.5625,0
56670,-14.9375,47.1875,-64.125,0
56690,-17.9375,46.9375,-62.25,0
56710,-17.6875,48.9375,-64,0
56730,-18.6875,51.75,-64.9375,0
56750,-18.8125,52.5,-61.9375,0
56760,-17.625,52.4375,-57.3125,0
56780,-15.25,53.5625,-53.3125,0
56800,-12.625,55.8125,-49.9375,0
56820,-12.4375,57.75,-45.125,0
56840,-14.625,57.875,-37.4375,0
56860,-13.75,58.8125,-29.8125,0
56880,-9.375,59.75,-24.9375,0
56900,-6.9375,61,-20.6875,0
56920,-6.375,61.75,-15.625,0
56940,-7.6875,63.8125,-7.5625,0
56960,-10.0625,66.125,2.125,0
56980,-7.4375,65.0625,9.625,0
57000,-5.5625,62.625,15.875,0
57020,-4.0625,57.5625,22.9375,0
57040,-1.125,54,26.625,0
57060,-3.5,49.5,26.4375,0
57080,-9.9375,43.6875,30.9375,0
57100,-13.25,36.125,39.0625,0
57120,-14,28.9375,43.1875,0
57140,-19.8125,25.0625,45,0
57160,-25.4375,23.625,45.75,0
57180,-31.5625,19.5625,49.125,0
57200,-30.375,11.3125,53.375,0
57220,-33.1875,2.125,54.8125,0
57240,-33.0625,-1,50.25,0
57260,-34.5,-0.875,45.5,0
57280,-33.5,-3.0625,45.25,0
57300,-29.25,-8,48.4375,0
57320,-24.375,-9.4375,43,0
57340,-22.1875,-4.5625,34.25,0
57360,-19.5625,-4.3125,31.875,0
57380,-18.5,-6.75,34.375,0
57400,-21.0625,-10.875,33.625,0
57420,-23,-14.4375,32,0
57440,-23.375,-16.6875,31.8125,0
57460,-18.875,-18.125,32,0
57480,-14.9375,-18.5,30.625,0
57500,-16.6875,-21.1875,29.375,0
57520,-20.8125,-24.3125,29.9375,0
57540,-23.375,-25.4375,29.125,0
57560,-23.125,-26,29.0625,0
57580,-19.0625,-26.375,27.375,0
57600,-12.4375,-26.5,23.9375,0
57620,-7.5,-28.375,21.1875,0
57640,-4.5,-31.0625,20.5625,0
57660,-4.875,-33.25,19.75,0
57680,-7.0625,-34.75,18,0
57700,-6.9375,-36.1875,16.625,0
57720,-8.125,-37.125,16.1875,0
57740,-12.0625,-41.125,16.25,0
57760,-16.0625,-43.5,18.6875,0
57780,-19.625,-44.875,19.3125,0
57800,-17.125,-47.25,16.8125,0
57820,-15.3125,-50.0625,14.5625,0
57840,-16.6875,-52.25,14.25,0
57860,-18.25,-54.1875,11.8125,0
57880,-15.6875,-54.5625,8.1875,0
57900,-10.6875,-56.125,5.0625,0
57920,-7.125,-58.25,0.75,0
57940,-5.375,-58.125,-5.5,0
57960,-0.3125,-57.25,-9.0625,0
57980,3.125,-57,-15,0
58000,7.25,-56.75,-22,0
58020,11.3125,-56.5625,-24.9375,0
58040,16.9375,-54.375,-28.875,0
58060,16.5,-53.4375,-31.9375,0
58080,20.1875,-50.875,-33.5,0
58100,26.5,-48.75,-38.6875,0
58120,23,-49.1875,-42.8125,0
58140,16.125,-49.1875,-43.25,0
58160,7.5625,-47.8125,-45.5625,0
58180,12.625,-44.4375,-50.4375,0
58200,14.875,-41.875,-54.875,0
58220,8.0625,-38.625,-56.6875,0
58240,3.25,-38.5625,-57.1875,0
58260,3.4375,-37.8125,-61.75,0
58280,3.25,-34.5625,-69.5625,0
58300,2.5,-31.0625,-75.0625,0
58320,-3.75,-26.625,-78.875,0
58340,-6.5,-20.3125,-81.875,0
58360,-3.4375,-14.625,-83.375,0
58380,0,-11.8125,-86.1875,0
58400,-0.375,-7.5625,-87.4375,0
58420,-0.3125,-0.4375,-86.375,0
58440,1,6.0625,-86.625,0
58460,-1.625,12.4375,-87.3125,0
58480,-4.8125,21.3125,-83.5,0
58500,-7.9375,31.1875,-79.375,0
58520,-9.375,40.6875,-74.5625,0
58540,-9.8125,49.375,-69.0625,0
58560,-10.6875,55.375,-62.1875,0
58580,-12.9375,60.3125,-54.3125,0
58600,-11.0625,65.375,-49.4375,0
58620,-10.125,70.9375,-46.75,0
58640,-9.6875,74.625,-41.25,0
58660,-10.25,75.0625,-33.75,0
58680,-10.625,74.9375,-27.5,0
58700,-9.3125,75.0625,-22.125,0
58720,-12.375,76.5625,-15.9375,0
58740,-11.6875,76.875,-9.0625,0
58760,-10.625,74.625,-4.125,0
58770,-6.3125,70.375,-0.9375,0
58790,-4.1875,62.875,1.3125,0
58810,0.75,53.6875,9.25,0
58830,0.8125,50.3125,11.9375,0
58850,0.6875,53.3125,11.6875,0
58870,-5.8125,56.125,19.75,0
58890,-11.4375,51.25,34.5,0
58910,-14.5,50.625,42.3125,0
58930,-16.75,58.0625,36.6875,0
58950,-24.6875,62.625,41.1875,0
58970,-26.125,58.75,55.1875,0
58990,-26,51.6875,57.25,0
59010,-32.875,46.3125,49.5625,0
59030,-35.75,45.8125,49.625,0
59050,-38.9375,40.9375,53.6875,0
59070,-39.125,32.5,57.25,0
59090,-41.6875,26.5625,54.625,0
59110,-45.0625,23.4375,49.8125,0
59130,-43.125,17.6875,50.0625,0
59150,-41.0625,8.1875,51.1875,0
59170,-38.0625,0.3125,49.9375,0
59190,-42.9375,-5.9375,45.625,0
59210,-45.25,-8.1875,43.5,0
59230,-48.375,-13.9375,43.25,0
59250,-46.5625,-21.6875,40.25,0
59270,-50.5,-28.0625,37.4375,0
59290,-52.625,-31.75,36.625,0
59310,-54.625,-35.625,36.4375,0
59330,-51.3125,-39.9375,31.9375,0
59350,-46.5625,-41.8125,25.8125,0
59370,-44.375,-47.8125,25.25,0
59390,-47.4375,-50.375,29.125,0
59410,-48,-51.5,26.0625,0
59430,-42.25,-51.3125,17.8125,0
59450,-40.125,-56.0625,18.6875,0
59470,-47.3125,-61.9375,25.125,0
59490,-62.375,-66.5625,30.6875,0
59510,-71.4375,-66.75,28.4375,0
59530,-65.5,-66.125,21.0625,0
59550,-47.25,-67.4375,17.125,0
59570,-33.1875,-69.5625,12.75,0
59590,-25.75,-65.6875,6.6875,0
59610,-21.5625,-62.75,2.125,0
59630,-14.0625,-58.8125,-3.5,0
59650,-1.25,-54.9375,-8.625,0
59670,11.5,-53,-15,0
59690,21.25,-51.8125,-20.1875,0
59710,20.4375,-50.0625,-22,0
59730,18.875,-44.9375,-25.125,0
59750,18.4375,-42.875,-28.9375,0
59770,19.875,-41.25,-31.6875,0
59790,18.9375,-39.4375,-33.625,0
59810,22.9375,-36.9375,-35.4375,0
59830,24.625,-35.5,-36.6875,0
59850,24.4375,-34.6875,-37.0625,0
59870,26,-30.8125,-39.875,0
59890,30.3125,-29.4375,-41.9375,0
59910,37.375,-28.125,-41.6875,0
59930,33.75,-25.8125,-41.0625,0
59950,31.625,-25.25,-38.875,0
59970,35.125,-27.0625,-42.3125,0
59990,41.125,-29,-46.25,0
60010,34.4375,-27.75,-48.875,0
60030,31.625,-24.125,-43.5,0
60050,24.6875,-22.25,-40.375,0
60070,19.5,-23.0625,-39.3125,0
60090,13.1875,-24.625,-41.75,0
60110,14.4375,-23.9375,-42.1875,0
60130,12.6875,-21.9375,-39.75,0
60150,13.0625,-21.375,-35.375,0
60170,6.1875,-21.625,-33.4375,0
60190,-2.8125,-21.5,-27.375,0
60210,-0.875,-20.5,-17.125,0
60230,10.625,-19.6875,-17.4375,0
60250,9.25,-18.125,-21.5,0
60270,-0.9375,-16.875,-16,2001
60290,-3.4375,-17.8125,-7.5625,0
60310,-1.75,-16.1875,-5.75,0
60330,-5.5,-13.9375,-4.4375,0
60350,-5.8125,-13.1875,-1.625,0
60370,-5.5,-10.1875,2.5,0
60390,-6.4375,-6.25,5.1875,0
60410,-8.6875,-3.9375,4.625,0
60430,-7.6875,-3.6875,1.75,0
60450,-7.625,-2.5625,0.5,0
60470,-7.875,-0.875,1.5625,0
60490,-10.375,-3.5,4.625,0
60510,-11.4375,-6.25,11.125,0
60530,-11.75,-3.25,15.8125,0
60550,-6.8125,8.4375,17.625,0
60570,1.375,14.4375,19.5625,0
60590,4.25,13.25,37.375,0
60610,3.875,18,49.375,0
60630,6.3125,26.375,48.9375,0
60650,8.0625,30.9375,57.3125,0
60670,7.5625,33.0625,69.3125,0
60690,17.1875,35.3125,78.75,0
60710,21,36.4375,85.1875,0
60730,20.6875,41.4375,94.9375,0
60750,22.3125,47.5625,112.875,0
60770,42.375,50.1875,118.812,0
60790,51.0625,54.1875,109.688,0
60810,38.5625,59.75,115.062,0
60830,25.6875,59.3125,130.688,0
60850,26.5625,57.4375,127.062,0
60870,34.9375,52.625,111.562,0
60890,35,49.0625,102.312,0
60910,28.5625,44.125,101.688,0
60930,27.75,36.5625,89.875,0
60950,31.3125,31.0625,72.5,0
60970,31.125,26.6875,58.875,0
60990,28.5625,22.5625,48.625,0
61010,25.625,15.0625,41.3125,0
61030,23.875,9.5,34.5,0
61050,18,6.5,29.1875,0
61070,12,5.8125,23.1875,0
61090,9.9375,4.625,20.875,0
61110,11.125,1.5,18.5625,0
61130,8.25,-0.8125,15.8125,0
61150,2.6875,-2.3125,12.1875,0
61170,0.375,-0.4375,9.3125,0
61190,1,0.875,5.625,0
61210,0.5625,0.25,3.25,0
61230,4.3125,0.6875,1.1875,0
61250,6.125,2.9375,-1.3125,0
61270,7.5,4.375,-1.375,0
61290,5.3125,4.1875,-1.4375,0
61310,7.6875,4.4375,-4.75,0
61330,6.75,5.5625,-5.9375,0
61350,5.5625,5.4375,-3.75,0
61370,3.9375,5.1875,-5.8125,0
61390,3.625,5.875,-7.1875,0
61410,1.25,5.5,-5.6875,0
61430,2.0625,3.9375,-3,0
61450,1.3125,1.9375,-1.875,0
61470,0.875,1.25,-0.8125,0
61490,0.0625,1.1875,0.5625,0
61510,-0.125,0.875,3.25,0
61530,0.3125,0.1875,3.625,2000
61550,1.8125,-0.125,3.875,0
61570,0.8125,-1,2.8125,0
61590,0.1875,-2.3125,1.625,0
61610,1,-2.8125,3.5625,0
61630,1.625,-2.0625,2.5,0
61650,1.3125,-2,1.375,0
61670,0.625,-2.625,2.9375,0
61690,-0.125,-2.25,2.4375,0
61710,0.375,-2.625,0.25,0
61730,-0.4375,-2.25,-1.6875,0
61750,-0.75,-2.6875,-3.375,0
61770,0.0625,-4.9375,-2.875,0
61790,0.125,-6.25,-2.0625,0
61810,-1,-5.1875,-3.5,0
61830,0.4375,-5.5625,-4.8125,0
61850,1.8125,-6.9375,-3.125,0
61870,1.75,-7.25,-3.625,0
61890,1.4375,-6.875,-4.625,0
61910,2.4375,-8.3125,-4.125,0
61930,3.6875,-10.5,-1.875,0
61950,1.75,-13.4375,0.25,0
61970,-0.1875,-15.875,2.0625,0
61990,-3,-17.3125,1.625,0
62010,-3,-18.1875,1.25,0
62030,-0.5,-19.625,0.8125,0
62050,2.5,-20.375,-0.875,0
62070,2.625,-20.75,-2.625,0
62090,3.75,-19.125,-6.25,0
62110,4.5625,-18.6875,-9.5625,0
62130,10,-18.75,-12.6875,0
62150,11.125,-18.5625,-14.75,0
62170,6.5625,-16.625,-13.8125,0
62190,5.0625,-15.9375,-15.625,0
62200,7.1875,-15.3125,-19.75,0
62220,5.3125,-12.25,-21,0
62240,1.125,-7.625,-21.3125,0
62260,1.375,-1.8125,-23.375,0
62280,1.5625,1.0625,-25.3125,0
62300,7.875,-0.375,-30.3125,0
62320,10.375,0.1875,-31.6875,0
62340,6.5625,-3.1875,-30.625,0
62360,3.125,-4.375,-30.5625,0
62380,0.6875,-7.8125,-33.25,0
62400,0.3125,-9.4375,-34.5625,0
62420,1.5,-8,-36.0625,0
62440,-1.8125,-4.3125,-35.4375,0
62460,-3.375,1.5625,-36.125,0
62480,-1.75,6.125,-37.4375,0
62500,-2.6875,12.5625,-37.4375,0
62520,-0.0625,16.5,-38.25,0
62540,-0.875,24.25,-39.9375,0
62560,-3.125,32.8125,-38.625,0
62580,0.6875,40.9375,-40.1875,0
62600,5.3125,44.6875,-41.8125,0
62620,9.75,45.875,-45,0
62640,10.5625,48.0625,-47.75,0
62660,9.4375,52.5625,-52.5625,0
62680,9.5625,57.3125,-53.375,0
62700,10.1875,60.1875,-51.875,0
62720,7.8125,59.6875,-52.5625,0
62740,5.375,60.375,-54.4375,0
62760,1.875,60.5,-55.5,0
62780,0.3125,60.875,-55.4375,0
62800,-1.1875,60.75,-53.6875,0
62820,-2.375,63.0625,-51,0
62840,-0.9375,64,-46.8125,0
62860,1.1875,62.875,-41.75,0
62900,-2.125,63.75,-38.4375,0
62920,-3.875,62.8125,-35.375,0
62940,-3.9375,60.1875,-31.5,0
62960,-5.25,58.0625,-26.375,0
62980,-6.375,56.375,-21.0625,0
63000,-7.1875,56.25,-16.4375,0
63020,-5.5625,56.0625,-16.625,0
63040,-5.625,51.5,-13.3125,0
63060,0.1875,46.875,-6.5625,0
63080,1.375,44.25,-4.8125,0
63100,3.375,41.4375,-6.4375,0
63120,2,39.0625,-3.6875,0
63140,0.3125,36.1875,2.125,0
63160,1.0625,34.0625,5.1875,0
63180,1.4375,33.125,2.6875,0
63200,6.25,33.8125,-0.625,0
63220,4.5,29.625,5.8125,0
63240,-2.25,27.125,16.9375,0
63260,-0.5625,23.1875,18.0625,0
63280,3,21.375,13.125,0
63300,4.6875,20.8125,8.6875,0
63320,-2,20.375,16,0
63340,-3.625,17.9375,24.125,0
63360,-6.5,15.25,25.75,0
63380,-13.8125,12.9375,23.4375,0
63400,-13.875,13.3125,24.5625,0
63420,-17.0625,11.8125,28.5,0
63440,-19.6875,7.8125,30,0
63460,-17.75,4.25,28.1875,0
63480,-19.3125,2.1875,25.9375,0
63500,-20.3125,-1,26.6875,0
63520,-20.125,-3.0625,27.625,0
63540,-20.625,-4.1875,23.125,0
63560,-20.3125,-6.625,20.0625,0
63580,-19.125,-11,21.875,0
63600,-17.875,-13.4375,21.6875,0
63620,-19,-13.8125,17.875,0
63640,-21.4375,-15.0625,15.3125,0
63660,-19.5,-18.625,16.875,0
63680,-17.75,-21.25,17.1875,0
63700,-18.625,-22.375,14.8125,0
63720,-16.25,-23.1875,14.5,0
63740,-16.625,-24.1875,14.875,0
63760,-14,-23.75,13.375,0
63780,-10.4375,-24.375,11.125,0
63800,-4.9375,-26,11.75,0
63820,-3.6875,-27,10.75,0
63840,-0.625,-27.0625,8.6875,0
63860,2,-28,9.3125,0
63880,2.375,-29.875,11.375,0
63900,1.125,-30.375,11.8125,0
63920,1.5625,-29.5625,10.75,0
63940,4.0625,-28.9375,11.875,0
63960,1.9375,-29.5625,16.875,0
63980,-1,-30.3125,20.75,0
64000,-5.125,-29.5625,20,0
64020,-3.375,-26.5625,19.4375,0
64040,-4.125,-27.1875,23,0
64060,-6,-30.5,26.375,0
64080,-12.625,-30.0625,26.25,0
64100,-16,-28.875,24.375,0
64120,-16.5,-31.5625,24.625,0
64140,-17.5,-34.75,26.9375,0
64160,-20.625,-36.625,28.375,0
64180,-19,-35.375,29.25,0
64190,-19,-34.9375,26.75,0
64210,-17.375,-36.25,22.4375,0
64230,-14.9375,-38.0625,20.125,0
64250,-13.125,-39.5625,18.8125,0
64270,-11.375,-39.375,16.625,0
64290,-11.5,-38.1875,13.5625,0
64310,-10.375,-38.625,11.25,0
64330,-9.6875,-40.4375,10.25,0
64350,-10.75,-42.1875,9.875,0
64370,-10.75,-41.5625,6.5,0
64390,-7.25,-41.625,4.25,0
64410,-6.25,-44.9375,4.4375,0
64430,-4.5625,-46.75,4.375,0
64450,-3.6875,-46.75,0.0625,0
64470,-1.375,-47.0625,-4,0
64490,-1,-49.25,-4.9375,0
64510,-0.25,-51.0625,-6.9375,0
64530,-1.1875,-51.4375,-9.875,0
64550,0.1875,-50.5,-9.1875,0
64570,3.5,-49.4375,-10.75,0
64590,2.6875,-49,-15.0625,0
64610,2.75,-49,-16.0625,0
64630,6.5,-48.625,-16.375,0
64650,8.125,-47.625,-20.1875,0
64670,10.3125,-46,-24.5625,0
64690,11.8125,-44.4375,-28.8125,0
64710,8.875,-41.5625,-31.75,0
64730,8.375,-36.9375,-33.3125,0
64750,9.25,-31.0625,-34.125,0
64770,16.4375,-25.5,-38.875,0
64790,15,-19.25,-41.5625,0
64810,11.625,-15.5625,-44.6875,0
64830,17.9375,-18.6875,-51.6875,0
64850,16.3125,-19.25,-53.4375,0
64870,14.4375,-16.3125,-53.0625,0
64890,12.875,-14.1875,-54.5625,0
64910,10.75,-7.3125,-52.625,0
64930,12.0625,-6.8125,-55.4375,0
64950,6.75,-1.75,-56,0
64970,-2.375,3.8125,-51.1875,0
64990,-4.25,4.75,-50.8125,0
65010,3.3125,5.6875,-55.75,0
65030,0.1875,10.375,-57,0
65050,-4.9375,16.9375,-56.625,0
65070,-11.1875,21.5,-56.875,0
65090,-12.6875,24.875,-57.4375,0
65110,-13.4375,29.1875,-58.375,0
65130,-14.6875,35,-57.6875,0
65150,-17.6875,39.6875,-57.625,0
65170,-18.25,43.4375,-58.0625,0
65190,-19.1875,45,-57.8125,0
65210,-17.5,46.3125,-55.5625,0
65230,-17.125,50,-53.4375,0
65250,-15.625,54.125,-54.5,0
65270,-14.5,57.5,-55.0625,0
65290,-16.1875,58.3125,-52,0
65310,-17.9375,58.375,-45.875,0
65330,-18.625,58.375,-40.25,0
65350,-20.3125,59,-33.875,0
65370,-22.375,59.5625,-25.8125,0
65390,-20.4375,58.25,-20.1875,0
65410,-18.8125,57.0625,-16.125,0
65430,-19.3125,58.75,-10.5,0
65450,-19.6875,59.0625,-3,0
65470,-16.1875,55.125,-0.375,0
65490,-14.875,50.8125,-3.125,0
65510,-10.4375,48.375,-4.375,0
65530,-12.5625,42.3125,1.75,0
65550,-16.625,36.375,15.25,0
65570,-14.4375,31.75,24,0
65590,-11,31.375,19.8125,0
65610,-16.75,30.6875,16.6875,0
65630,-15,26.375,26.8125,0
65650,-10.9375,20.3125,35.125,0
65670,-11.8125,18.6875,33.6875,0
65690,-11.6875,18.8125,28.5625,0
65710,-15.625,14.9375,33.875,0
65730,-16.75,10.6875,43.5,0
65750,-23.75,10.6875,41.5,0
65770,-23.875,11.625,33.875,0
65790,-20.3125,9.875,36.6875,0
65810,-16.5625,5.8125,43.9375,0
65830,-17.625,1.5,42.6875,0
65850,-22.375,0.6875,38.5625,0
65870,-29.3125,0.8125,38.3125,0
65890,-26.25,-1.75,38.25,0
65910,-26.5,-6.4375,37.375,0
65930,-24.75,-10.25,36.8125,0
65950,-26.75,-11.375,34.1875,0
65970,-27.75,-11.75,33.1875,0
65990,-27.375,-14.3125,35.6875,0
66010,-26.0625,-17.5625,36.3125,0
66030,-26.5625,-19,31.6875,0
66050,-25.75,-18.5625,29.125,0
66070,-26,-20.6875,28.9375,0
66090,-25.25,-24,29.125,0
66110,-23.5625,-25.875,27.5,0
66130,-22.8125,-27.75,24.5,0
66150,-20.0625,-28.0625,21.5625,0
66170,-17.875,-28.6875,21,0
66190,-15.875,-32.25,23,0
66210,-16.9375,-33.1875,22.1875,0
66230,-19.5,-32.9375,21,0
66250,-17.5,-32.5,20.8125,0
66270,-16.3125,-34.4375,22.0625,0
66290,-12.3125,-37.3125,22.875,0
66310,-13.6875,-39.8125,20.125,0
66330,-13.25,-40.1875,18.25,0
66350,-12.375,-41.1875,18.875,0
66370,-12.625,-44.375,19.125,0
66390,-13.375,-46.375,18.625,0
66410,-13.1875,-46.125,16.375,0
66430,-12.75,-46.4375,14.125,0
66450,-10.6875,-48.1875,12.25,0
66470,-10.8125,-50.1875,8.9375,0
66490,-7.8125,-51.8125,6.25,0
66510,-2.0625,-52.8125,3.8125,0
66530,3.75,-51.0625,-2.125,0
66550,6.875,-46.8125,-6.875,0
66570,2.0625,-45.5,-7.5,0
66590,-2.25,-46.8125,-9,0
66610,0.0625,-46.75,-12.375,0
66630,7.4375,-43.5,-17,0
66650,15.125,-41.375,-22,0
66670,12.75,-41,-23.9375,0
66690,13.0625,-40.125,-24.8125,0
66710,12.5,-38.8125,-30.5,0
66730,13.4375,-38.375,-34.1875,0
66750,11.125,-39.0625,-33.4375,0
66770,7.4375,-40.25,-34.9375,0
66790,5.3125,-39.25,-38.375,0
66810,3.1875,-37,-40.8125,0
66830,2.9375,-34.125,-43.125,0
66850,2.625,-33.75,-43.625,0
66870,10.75,-29.875,-48.3125,0
66890,11,-25.375,-57.5,0
66910,9.375,-22.375,-63.8125,0
66930,12.8125,-22.375,-65.75,0
66950,17.75,-23.125,-72.0625,0
66970,13.625,-22.9375,-77.3125,0
66990,8.5,-22.25,-76.375,0
67010,7.8125,-20.375,-76.9375,0
67030,7,-17.75,-78.4375,0
67050,5.25,-14.125,-78.6875,0
67070,-0.3125,-10.6875,-75,0
67090,-1.125,-6.5625,-68.625,0
67110,-2.6875,-1.375,-65.5,0
67130,-0.8125,5.5,-63.375,0
67150,-5.375,12.3125,-58.6875,0
67170,-6.75,19.0625,-53.4375,0
67190,-11.5625,27.125,-50.1875,0
67210,-12,35.625,-47.0625,0
67230,-11.9375,43.3125,-44.5625,0
67250,-9.6875,48.875,-41.75,0
67270,-8.9375,51.625,-37.3125,0
67290,-7.9375,54.25,-33.6875,0
67310,-4.5,56.5,-32.875,0
67330,-5.9375,58.5,-31.5,0
67350,-11,61.1875,-27.0625,0
67370,-10.8125,62,-20.625,0
67390,-10.3125,61.4375,-19.9375,0
67410,-4.4375,61.625,-21.625,0
67430,-2.75,59.125,-19.8125,0
67450,-4.5625,55.875,-11,0
67470,-2.625,59.3125,-4.75,0
67490,0.0625,60.8125,-5.0625,0
67510,7.8125,59.875,-4.9375,0
67530,7.75,56.875,1.0625,0
67550,6.9375,55.4375,9.625,0
67570,2.25,55.875,15.625,0
67590,-2.875,59.1875,15.3125,0
67600,-7.125,59.5625,18.875,0
67620,-16,56.5625,27.6875,0
67640,-25.5625,52.1875,38.625,0
67660,-37.8125,50.9375,41.75,0
67680,-44.125,46.6875,43.125,0
67700,-41.6875,38.75,44.625,0
67720,-39.375,30.0625,46.9375,0
67740,-38.5625,22.0625,50.125,0
67760,-40.875,17.0625,49.3125,0
67780,-42.625,14.0625,47.1875,0
67800,-40.375,7.9375,46.8125,0
67820,-34.9375,1.6875,43.75,0
67840,-29.625,-2.625,39.6875,0
67860,-27.125,-7.5,36.3125,0
67880,-25.3125,-10.625,34.3125,0
67900,-22.5625,-11.8125,32.3125,0
67920,-13.75,-13.375,30.1875,0
67940,-8.875,-19,29.625,0
67960,-8.875,-20.4375,29.4375,0
67980,-12.75,-19.1875,26.1875,0
68000,-15.75,-19.5625,25.125,0
68020,-14.4375,-17.75,25.125,0
68040,-14.3125,-19.6875,25.5625,0
68060,-18.5625,-22.8125,27.5625,0
68080,-25.8125,-21.9375,28.125,0
68100,-27.5625,-19.4375,25.6875,0
68120,-23,-22.125,24.8125,0
68140,-26.125,-28.8125,29.9375,0
68160,-37.875,-28.75,31.375,0
68180,-43.875,-24.6875,28.4375,0
68200,-39.25,-25.4375,28.1875,0
68220,-35.0625,-26.625,27.9375,0
68240,-36.5,-27.125,25.9375,0
68260,-42.0625,-25.8125,23.875,0
68280,-41.625,-21.625,21.8125,0
68300,-32.375,-23.4375,19.1875,0
68320,-26.9375,-28.875,15.125,0
68340,-24.3125,-31.375,10.625,0
68360,-22.5625,-33.875,6.3125,0
68380,-14.125,-36,1.1875,0
68400,0.125,-38.75,-6,0
68420,11.6875,-45.0625,-12.5,0
68440,7,-51.75,-12.625,0
68460,-5.4375,-51.8125,-10.25,0
68480,-9.4375,-51.0625,-10.3125,0
68500,-2.5625,-54.1875,-17.1875,0
68520,3.25,-61.25,-19.625,0
68540,-2.4375,-63.5625,-18.8125,0
68560,-9.6875,-58.6875,-20.5,0
68580,-4.1875,-54.75,-28.5,0
68600,11.375,-57.0625,-33.125,0
68620,16.3125,-59.125,-32.375,0
68640,13.8125,-58.25,-31.4375,0
68660,12.75,-54.0625,-36.125,0
68680,19.75,-52.25,-37.75,0
68700,22.25,-53.375,-36.0625,0
68720,21.6875,-53.125,-37,0
68740,23.5,-51.75,-44.3125,0
68760,22.5625,-51.75,-45.6875,0
68780,19.75,-50.5625,-42.6875,0
68800,14.5625,-45.5625,-47.1875,0
68820,14.875,-42.375,-50.0625,0
68840,13.9375,-42.3125,-46.0625,0
68860,13.75,-39,-46.875,0
68880,12.1875,-34.0625,-48.3125,0
68900,10,-33.8125,-44.875,0
68920,11.5,-34.0625,-42.3125,0
68940,11.0625,-31.8125,-42.3125,0
68960,11.125,-25.6875,-38.875,2001
68980,7.0625,-24.125,-32,0
69000,1.5625,-24.375,-24.875,0
69020,5.6875,-19.8125,-22.3125,0
69040,5.4375,-13.5,-20.75,0
69060,2.6875,-7.6875,-12.375,0
69080,-1.25,-6.9375,-2.5,0
69100,-0.875,-8.3125,3.3125,0
69120,0.625,-7.5,4.625,0
69140,-2.875,-3.6875,5.5625,0
69160,-7.0625,2.75,8.25,0
69180,-7.875,8.0625,11.4375,0
69200,-7.4375,7.25,13.25,0
69220,-3.1875,2.5,15.875,0
69240,-4.5625,-2.0625,14.0625,0
69260,-2.5,-1.3125,8.75,0
69280,2.875,5.9375,3.5625,0
69300,1.875,3.5625,8.5625,0
69320,1.9375,0.1875,22.125,0
69340,4.0625,12.1875,27.4375,0
69360,8.75,20.6875,26.6875,0
69380,12.4375,19.5,33.375,0
69400,6.625,12.8125,41.5,0
69420,10.5,11.8125,51.8125,0
69440,19.75,17.5625,57.0625,0
69460,33.4375,25.25,56.25,0
69480,36.1875,26.75,59.3125,0
69500,25.0625,25,70.25,0
69520,28.125,33.3125,86.75,0
69540,32.9375,40.75,93.6875,0
69560,40.0625,44.625,86.75,0
69580,38.1875,46.25,81.3125,0
69590,36.0625,49.6875,83.8125,0
69610,38.6875,50.8125,86.4375,0
69630,37.1875,50.1875,84.375,0
69650,39.875,50.75,80.75,0
69670,33.25,55.1875,79.3125,0
69690,26.75,59,82,0
69710,22.25,56.6875,79.5,0
69730,23.3125,52.375,70.375,0
69750,22.4375,48.0625,57.0625,0
69770,18.875,45.0625,54.625,0
69790,14.25,41.1875,55.875,0
69810,13.5,36.5,53.6875,0
69830,10.625,31.125,44.4375,0
69850,8.8125,28.9375,34.625,0
69870,7.75,26.5,27.6875,0
69890,7,20.6875,29.1875,0
69910,6,15.3125,32.3125,0
69930,6.375,12,28.3125,0
69950,6.375,11.4375,18.0625,0
69970,6.125,12.75,8.9375,0
69990,6.5,10.4375,5.6875,0
70010,7.5625,7.0625,3.8125,0
70030,4.8125,4.1875,2.8125,0
70050,5,3.625,2.5625,0
70070,3.375,4.75,2.5625,0
70090,-0.375,4.5625,0.0625,0
70110,1,3.1875,-1.5,0
70130,2.75,2.3125,-4.5625,0
70150,2.6875,1.3125,-3.9375,0
70170,2,0.125,-0.75,0
70190,-1.125,1.125,-0.25,0
70210,-4.8125,3.625,0.3125,0
70230,-1.375,4.375,1.1875,0
70250,1.625,3.5,-1.25,0
70270,3.125,1.8125,-0.6875,0
70290,0.8125,0.25,2.1875,0
70310,-3,0.0625,3.1875,2000
70330,-2.875,0.4375,2.6875,0
70350,-1.5,2.1875,-0.5625,0
70370,1.5,4.125,-3.3125,0
70390,4.3125,-1.4375,-0.875,0
70410,4.5,-7.75,1.375,0
70430,2.875,-10.25,-4.3125,0
70450,1.75,-11.5,-7.25,0
70470,2.4375,-15.0625,-3.8125,0
70490,1.5,-17.875,-2,0
70510,0.4375,-18.6875,-1.3125,0
70530,-4.9375,-19.75,-1.375,0
70550,-7.5,-21.625,-1.5,0
70570,-9.25,-23.5,-1.9375,0
70590,-9.375,-23.9375,-2.4375,0
70610,-7.0625,-25,-4.375,0
70630,-7,-25.3125,-5.1875,0
70650,-6.125,-24.25,-6.75,0
70670,-7.125,-22.875,-8,0
70690,-7.125,-21.1875,-8.4375,0
70710,-7.3125,-20.875,-8.8125,0
70730,-6.0625,-21.1875,-9.8125,0
70750,-3.75,-20.8125,-11,0
70770,-2.8125,-18.1875,-12.25,0
70790,-2.9375,-15.125,-14.0625,0
70810,-4.875,-13,-16.3125,0
70830,-8,-10.75,-18.625,0
70850,-10.5625,-9.8125,-19.5625,0
70870,-6.75,-7.6875,-22.125,0
70890,-4.125,-2.3125,-25.375,0
70910,-1.25,5.75,-28.8125,0
70930,1.25,12.6875,-34,0
70950,3.25,17.5,-36.1875,0
70970,4.0625,21.0625,-31.9375,0
70990,6.6875,23.8125,-31.4375,0
71010,7,27.6875,-34.125,0
71030,5.4375,33.375,-37.3125,0
71050,4.5625,34.1875,-38.5,0
71070,6.3125,31.1875,-38.5625,0
71090,6.25,28.75,-37.9375,0
71110,7.5,28,-38.5625,0
71130,2.5625,30.4375,-37.875,0
71150,-3.5625,33.375,-36.6875,0
71170,-5.0625,33.3125,-36.5625,0
71190,0.125,31.125,-39.4375,0
71210,1.9375,31.4375,-41.1875,0
71230,2.6875,35.6875,-40.6875,0
71250,4.625,39.875,-40,0
71260,7.5625,41.9375,-40.1875,0
71270,10,42.4375,-41.625,0
71290,9.8125,43,-42.875,0
71310,8.6875,45,-45.8125,0
71330,8.8125,45.8125,-46.4375,0
71350,7.9375,47.1875,-45.8125,0
71370,8.25,49.1875,-47.4375,0
71390,8.9375,49.1875,-47.4375,0
71410,8.125,49.5,-45.8125,0
71430,8.5625,49.75,-46.0625,0
71450,6.8125,49.5625,-45.1875,0
71470,4,48.8125,-41.375,0
71490,2.125,48.5,-38.4375,0
71510,1.375,50.375,-34.3125,0
71530,-1.1875,51.25,-31.125,0
71550,-4.0625,49.9375,-27.6875,0
71570,-5.6875,48.1875,-25.3125,0
71590,-6.875,47.0625,-22.625,0
71610,-4.9375,46.0625,-18.9375,0
71630,-1.5625,45.1875,-15.4375,0
71650,0.4375,43.75,-11.6875,0
71670,-0.9375,42.3125,-10,0
71690,-0.4375,41.125,-10.5625,0
71710,-2.3125,38.75,-7.0625,0
71730,-2.6875,37.125,0.875,0
71750,-0.1875,34.375,5.5625,0
71770,-1,32.0625,7.6875,0
71790,-2.125,29.375,8.6875,0
71810,2.3125,26.0625,11.375,0
71830,-0.375,25,15.75,0
71850,-1.5,25.1875,16.625,0
71870,-2.6875,21.625,17.375,0
71890,-3.25,16.125,21.75,0
71910,-5.75,13.4375,24.5,0
71930,-8.3125,13.375,23.5625,0
71950,-8.6875,8.4375,23.4375,0
71970,-11.5625,6.0625,29.125,0
71990,-13.75,4.6875,30.4375,0
72010,-12.3125,2.3125,27.125,0
72020,-13.0625,2,25.125,0
72040,-17.375,2.25,29.125,0
72060,-17.4375,0.8125,30.75,0
72080,-16.5,0.5625,26.125,0
72100,-15.0625,0.75,22.0625,0
72120,-13.8125,1.4375,21.4375,0
72140,-18.5,1.5625,23,0
72160,-21.5,0.9375,23.3125,0
72180,-22.625,-1.1875,21.125,0
72200,-19,-4,18.875,0
72220,-19.1875,-4.75,19,0
72240,-22.9375,-4.9375,22.0625,0
72260,-24.5625,-7.3125,25.1875,0
72280,-28.375,-10.0625,26.6875,0
72300,-27.5,-12.25,24.125,0
72320,-22.375,-13.375,22.6875,0
72340,-20.4375,-15.8125,23.5625,0
72360,-20,-19.125,25.8125,0
72380,-18.5,-20.875,23.25,0
72400,-19.625,-23.125,20.3125,0
72420,-14.25,-24.9375,19.5625,0
72440,-11.375,-27.75,19.0625,0
72460,-8,-29.4375,18.625,0
72480,-8.8125,-30.8125,17.9375,0
72500,-9.6875,-32.375,18.8125,0
72520,-9.4375,-33.9375,19.5,0
72540,-5.875,-35.5625,17.875,0
72560,-1.875,-36.3125,15.875,0
72580,-1.875,-37.8125,16.0625,0
72600,-3.375,-39.125,17.8125,0
72620,-4.625,-39.0625,17.25,0
72640,-5.875,-39.3125,17.8125,0
72660,-9.375,-41.3125,18.625,0
72680,-10.625,-41.5625,18.875,0
72700,-10.625,-39.0625,15.6875,0
72720,-9.125,-39.3125,15.875,0
72740,-6.5,-42.125,17.0625,0
72760,-6.75,-41.4375,14.3125,0
72780,-6.125,-39.6875,12.625,0
72800,-3,-38.625,11.9375,0
72820,-0.0625,-38.5625,10,0
72840,0.9375,-39.3125,8.5,0
72860,2.0625,-41.0625,8.25,0
72880,2.875,-42,6.5625,0
72900,1.3125,-39.3125,4.5625,0
72920,0.125,-40,4.375,0
72940,-0.3125,-43.375,4.4375,0
72960,-1.875,-44.375,2.9375,0
72980,-0.25,-44.5625,-0.0625,0
73000,0.25,-46.4375,-2.125,0
73010,-0.8125,-47.6875,-2.9375,0
73030,-1.375,-47.125,-4.125,0
73050,1.625,-47,-5.625,0
73070,2.4375,-48.3125,-6.8125,0
73090,7.4375,-48.875,-10.75,0
73110,10.3125,-49.9375,-13.875,0
73130,11.5625,-49.0625,-16.5625,0
73150,7.25,-48.4375,-17.875,0
73170,7.375,-48.8125,-19.875,0
73190,7.625,-48.875,-23.0625,0
73210,12.9375,-46.6875,-23.875,0
73230,13.8125,-46,-24.125,0
73250,8.5625,-43.6875,-27.1875,0
73270,4.6875,-39.6875,-28.6875,0
73290,-2.125,-35.9375,-27.8125,0
73310,-6.4375,-29.4375,-25.1875,0
73330,-9.5,-20.75,-19.5625,0
73350,-7,-14.8125,-24.6875,0
73370,-6.125,-10.9375,-36.5,0
73390,-9.0625,-7.25,-39.75,0
73410,-7.375,-3.5,-40.0625,0
73430,-3.3125,1.375,-46.125,0
73450,0.4375,5.5625,-50.75,0
73470,0.875,11.125,-54.0625,0
73490,-4.125,15.875,-58.625,0
73510,-4.75,19.4375,-66.75,0
73530,-7.6875,21.0625,-69.6875,0
73550,-7.875,24.75,-68.5625,0
73570,-9.6875,27.875,-66.6875,0
73590,-9.6875,30.6875,-64.0625,0
73610,-15.125,34.6875,-55.9375,0
73630,-12.25,39.4375,-53,0
73650,-9.75,43.875,-52.5,0
73670,-8.6875,49.1875,-49.8125,0
73690,-13.6875,53.375,-44.3125,0
73710,-14.375,54.875,-41.125,0
73730,-10.25,53.5,-39.25,0
73750,-6.875,53.25,-36.875,0
73770,-5.5,52.5,-34.9375,0
73790,-5.1875,52.3125,-33.9375,0
73810,-5.6875,53.9375,-32.875,0
73830,-5.25,57.875,-31.6875,0
73850,-3.125,58.8125,-25.3125,0
73870,-3.0625,54.75,-21.4375,0
73890,1.5625,51.5625,-16.1875,0
73910,-0.5625,53.5625,-12.0625,0
73930,0.5,52.375,-4.3125,0
73950,-1.4375,47.3125,5.25,0
73970,-2.4375,39.875,13.0625,0
73990,-2.0625,32.9375,18.3125,0
74010,-3.625,28.25,21.8125,0
74030,-6.5625,26.6875,25.75,0
74050,-9.875,27.625,32.0625,0
74070,-8.4375,23.8125,36.75,0
74090,-7.1875,20.0625,43.125,0
74110,-10.75,20.75,42.375,0
74130,-21.375,28.6875,36.4375,0
74150,-26.8125,26.25,42.3125,0
74170,-32.4375,10.125,62.4375,0
74190,-30.4375,1.4375,76.25,0
74210,-39.6875,7.875,56.6875,0
74230,-38.5,11.5625,41.25,0
74250,-40.125,2.4375,50.375,0
74270,-36.75,-6.625,61.75,0
74290,-36.8125,-6.5,51.125,0
74310,-36.5,-2.1875,35.125,0
74330,-33.125,-6.125,34.5,0
74350,-35.4375,-14.875,43.375,0
74370,-36.8125,-14.3125,44.5625,0
74390,-38.9375,-6.5,35.1875,0
74410,-39.5625,-9.5,31.0625,0
74430,-36.625,-17.125,32.25,0
74450,-37.6875,-21.375,31.375,0
74470,-39.75,-22.6875,28.75,0
74490,-34.4375,-20.8125,24.6875,0
74510,-33.5625,-21.9375,23.5,0
74530,-32.75,-23.125,27.6875,0
74550,-36.0625,-25.1875,26.4375,0
74570,-39.5,-26.5,18.4375,0
74590,-30.5,-23.125,13.125,0
74600,-20.875,-23.125,13.875,0
74630,-8.6875,-29.4375,17.5,0
74650,-11.3125,-31.8125,16.25,0
74670,-20,-28.8125,10.3125,0
74690,-14.25,-24.6875,6.875,0
74710,-7.125,-23.125,7.625,0
74730,-3.6875,-26.4375,9.0625,0
74750,-10,-29.875,10.125,0
74770,-17.6875,-28.8125,6.75,0
74790,-10.9375,-24.9375,2.25,0
74810,-3.25,-26.6875,2.3125,0
74830,1.5625,-31.25,4.125,0
74850,-7.1875,-34.5625,1.6875,0
74870,-13.375,-36.25,-2.625,0
74890,-5.75,-38.6875,-5.125,0
74910,6.8125,-44.75,-9.1875,0
74930,13.5,-51.3125,-12.75,0
74950,14.1875,-52.75,-17.75,0
74970,11,-52.125,-21.5,0
74990,12.9375,-52.25,-22.5,0
75000,16.6875,-52.1875,-25.5,0
75020,18.9375,-51.4375,-28.625,0
75040,21.4375,-51.875,-29.0625,0
75060,29.4375,-53.5625,-30.0625,0
75080,30.4375,-55.3125,-31.9375,0
75100,27.625,-51.8125,-33.9375,0
75120,15.875,-49.4375,-32.625,0
75140,3.875,-45.875,-31.625,0
75160,6.4375,-44.3125,-33.375,0
75180,3.5,-42.25,-36.6875,0
75200,4.625,-42.125,-41.4375,0
75220,8.875,-43.875,-43.5625,0
75240,8.25,-39.8125,-46.8125,0
75260,4.625,-29.1875,-51.4375,0
75280,2.875,-19.5625,-53.875,0
75300,2.625,-14.6875,-52.4375,0
75320,2.25,-10.1875,-53.0625,0
75340,1.4375,-5,-56.625,0
75360,4.5625,-0.25,-58.8125,0
75380,8.0625,2.5,-60.25,0
75400,0,6,-60.0625,0
75420,-3.9375,11.0625,-60.5,0
75440,-5.5625,17.375,-62,0
75460,-5.5,23.4375,-60.25,0
75480,-5.0625,28.4375,-55.8125,0
75500,-5.125,31.0625,-53,0
75520,-3.25,33.3125,-53.875,0
75540,-2.8125,37.1875,-52.9375,0
75560,-3.5,41.5625,-49.125,0
75580,-4.625,44.4375,-46.875,0
75600,-1.125,47.8125,-47.875,0
75620,0.75,49.25,-48.875,0
75640,-1.625,48.875,-45.6875,0
75660,-4.75,48.625,-42.9375,0
75680,-4.5,51.375,-42.75,0
75700,-3.125,51,-40.9375,0
75720,-2.875,48.0625,-35,0
75740,-3.25,47.375,-28.75,0
75760,-5.9375,48.3125,-29.4375,0
75780,-4.4375,51.5,-32.3125,0
75800,-4.375,53.375,-28.0625,0
75820,-5.5625,49.4375,-13.375,0
75840,-3.25,47.0625,3.25,0
75860,-0.4375,51.9375,2.125,0
75880,-0.3125,51,-1.125,0
75900,0.6875,49.4375,4,0
75920,1.3125,48.375,11.3125,0
75940,-1.4375,50.8125,13.9375,0
75960,-1.25,50.1875,11.625,0
75980,-2,47.9375,12.125,0
76000,-2.0625,45,11.625,0
76020,-3.8125,42.875,13.9375,0
76040,-8.5625,41.625,17.625,0
76060,-13.5625,42.9375,22.4375,0
76080,-18.4375,41.4375,25,0
76100,-21.1875,40.0625,29.6875,0
76120,-30.9375,37.9375,35.875,0
76140,-38.6875,40.6875,41.25,0
76160,-49.5,40.0625,42.9375,0
76180,-53.8125,37.5,41.1875,0
76200,-51.375,35.125,46.125,0
76220,-56.375,29.1875,52.9375,0
76240,-58.9375,21.125,52.625,0
76260,-61.8125,18.5,42.8125,0
76280,-54.875,15.625,35.6875,0
76300,-46.8125,13.125,36.0625,0
76320,-41.5,7.5,36.5,0
76340,-45.375,1.875,34.5,0
76360,-53.8125,-0.875,29.4375,0
76380,-49.8125,0,26.125,0
76400,-39.6875,-1.0625,21.9375,0
76420,-35.0625,-8.1875,23.25,0
76440,-42.6875,-13,23.9375,0
76460,-51.4375,-16,23.625,0
76480,-52.875,-16,20.6875,0
76500,-41.6875,-17.375,18.9375,0
76520,-35.875,-24.5,21.625,0
76540,-38.9375,-33,23.1875,0
76560,-47.0625,-33.0625,19.8125,0
76580,-44,-33.6875,15.875,0
76600,-28.875,-35.75,13,0
76620,-22.9375,-43.25,12.3125,0
76640,-24,-49.1875,13.375,0
76660,-31.75,-51.6875,12.5625,0
76680,-36.25,-53.8125,12.875,0
76700,-30.6875,-53.1875,15,0
76720,-23.3125,-58.25,12.6875,0
76740,-20.625,-64.8125,9.125,0
76760,-26.75,-65,7.75,0
76780,-28.0625,-62,5.875,0
76800,-18.4375,-61.625,-0.375,0
76820,-9.375,-63.875,-3.5625,0
76840,-9.625,-63.625,-7.125,0
76860,-10.6875,-59.875,-10.9375,0
76880,-9.5625,-59.875,-14.125,0
76900,-6.875,-60.5,-16.4375,0
76920,-8.625,-59.625,-19.875,0
76940,-5.9375,-57.6875,-23.875,0
76960,-3.625,-53.1875,-27.5625,0
76980,0.0625,-48.0625,-28.8125,0
77000,2.9375,-48.1875,-29.75,0
77020,9.5625,-47.875,-34.6875,0
77040,12.1875,-45,-38.25,0
77060,17.8125,-39.6875,-39.5625,0
77080,23,-38.5,-41.625,0
77100,21.5,-38.5625,-39,0
77120,15.0625,-35.0625,-38.1875,0
77140,8,-32.25,-38.25,0
77160,15,-31.4375,-38.0625,0
77180,23.6875,-32.375,-37.5,0
77200,18.9375,-30.0625,-35.75,0
77220,16.3125,-23.25,-34.75,0
77240,13.6875,-19.9375,-33.625,0
77260,12.8125,-19.3125,-31.1875,0
77280,11.375,-16.375,-28.375,0
77300,5.9375,-13.9375,-27.6875,0
77320,10.3125,-12.4375,-27.4375,0
77340,12.25,-11.625,-28.3125,0
77360,11.9375,-10.125,-28.25,0
77380,11,-10.5,-27.4375,0
77400,9.6875,-11.5625,-22.75,0
77420,10.5,-8.375,-22.6875,0
77440,9.125,-3.9375,-24.1875,0
77460,8.5625,-4.1875,-17.1875,0
77480,3.3125,-4.1875,-11.6875,0
77500,-0.8125,-0.0625,-12.75,0
77520,-0.375,2.875,-15.5625,0
77540,-2.3125,2.4375,-12.75,0
77560,-3.25,-1.5,-6.9375,0
77580,-2.4375,-5.125,1.5625,0
77600,-0.625,-4.25,3.9375,0
77620,-1.125,-3.875,1.0625,0
77640,-1.5625,-7.1875,2.5625,0
77660,-0.4375,-9.875,7.625,0
77680,-1.75,-6.9375,4.5625,0
77700,0.4375,-4.1875,-1.5625,0
77720,0.9375,-5.1875,-1,0
77740,0.25,-8.1875,7,0
77760,1.1875,-8.3125,9.6875,2001
77780,-0.4375,-6.3125,3.0625,0
77800,-1.875,-5,0.3125,0
77820,-1.875,-4.1875,2.625,0
77840,-2.6875,-4.5,5.875,0
77860,-0.9375,-6.25,10.5625,0
77880,-1,-4.875,7.9375,0
77900,-1,-1.25,-1.375,0
77920,-1.625,-1.4375,-5,0
77940,-1.3125,-1.1875,-1.1875,0
77960,-1.625,2.125,-3.375,0
77980,0.75,4,-8.1875,0
78000,-2.0625,1.5625,-6.125,0
78020,-6.3125,-3.0625,1.75,0
78040,-12.25,-6.25,7.6875,0
78060,-14.25,-6.875,10.1875,0
78080,-12.0625,-4.25,12.125,0
78100,-3.4375,-3,12.3125,0
78120,1.5625,-0.0625,18.4375,0
78140,7.75,2.125,22.0625,0
78160,12.4375,6.0625,23.9375,0
78180,12.75,5.1875,27.8125,0
78200,12.375,8.5625,32.875,0
78220,16.6875,11.4375,37.6875,0
78240,18.5,12,45.125,0
78260,12.5625,12.9375,58.0625,0
78280,22.3125,16.5,64.6875,0
78300,34.625,21.75,63.125,0
78320,41.6875,29,63.6875,0
78340,39.0625,35.25,71.6875,0
78360,24,39,84.9375,0
78380,34,36.5625,89.5,0
78400,48.5625,38.5625,79.3125,0
78410,52.5625,43.0625,75,0
78430,50.125,43.6875,78.6875,0
78450,45.125,43.8125,78.75,0
78470,51.625,45.625,70.1875,0
78490,57.25,48.25,64.8125,0
78510,55.5625,47.625,66.6875,0
78530,48.4375,44.875,67.8125,0
78550,42.75,43.3125,62.4375,0
78570,40.125,42.3125,55.75,0
78590,44.5625,39.5,51.375,0
78610,48.5,33.1875,49.1875,0
78630,39.125,25,47.5625,0
78650,31.25,21.1875,45.75,0
78670,24.875,20.6875,37.25,0
78690,25.4375,19.875,29.0625,0
78710,22.8125,15,25.375,0
78730,18.8125,8.625,23.3125,0
78750,14.4375,4.875,18.75,0
78770,9.875,4.5625,13.1875,0
78790,9.75,3.4375,8.125,0
78810,11.6875,1.0625,4.6875,0
78830,9.8125,-0.5,2.6875,0
78850,5.6875,-1.1875,3.25,0
78870,1.6875,-0.0625,3.375,0
78890,-1.8125,1.5,2.625,0
78910,-2.6875,2.4375,1.5,0
78930,-4.5,1.625,4,0
78950,-6.875,1.5,4.1875,0
78970,-5.4375,2.375,-0.1875,0
78990,-2.9375,2.0625,-3.75,0
79010,-0.4375,1.8125,-3.625,0
79030,-0.875,1.875,-3.9375,0
79050,-0.6875,2.5625,-7.25,0
79070,-0.125,2.6875,-8,0
79090,0.6875,2.0625,-6.4375,0
79110,0.3125,1.75,-6.9375,0
79130,-0.4375,2,-7.9375,0
79150,0.1875,2,-8.3125,0
79170,0.9375,1.5625,-8.5625,0
79190,0.5625,-0.3125,-7.3125,2000
79210,-0.1875,-2.125,-5.8125,0
79230,-0.1875,-2.125,-5.375,0
79250,0.4375,-1.625,-5.25,0
79270,1.125,-0.4375,-3.75,0
79290,1.4375,0.375,-3.0625,0
79310,-0.25,0.3125,-3.5,0
79330,-2.6875,-0.5,-2.5,0
79350,-3.125,-1.5,-1.0625,0
79370,-2.1875,-2.4375,0.5625,0
79390,-1.6875,-2.75,1.5625,0
79410,-2.4375,-2.9375,3.25,0
79430,-1.75,-3.3125,3.625,0
79450,-1.875,-2.3125,0.75,0
79470,0.875,-0.125,1.3125,0
79490,1.5625,0.9375,3.375,0
79510,3,0.3125,2.375,0
79530,4.75,-1,0.75,0
79550,4.3125,-3.3125,-1.8125,0
79570,3.25,-5.9375,-4,0
79590,2.4375,-8.4375,-2.375,0
79610,2.1875,-10.75,-1.0625,0
79630,1.8125,-12.75,-2.125,0
79650,0.4375,-14.6875,-4.0625,0
79670,-1.0625,-16.625,-4.6875,0
79690,-1.625,-19.375,-3.4375,0
79710,-1.375,-20.1875,-1.875,0
79730,-1.4375,-18.875,-5.0625,0
79750,-0.9375,-16.875,-12.625,0
79770,2.0625,-17.5,-18.0625,0
79790,4.9375,-19.75,-22.125,0
79810,5.1875,-17.9375,-25.375,0
79830,3.8125,-13.375,-26.4375,0
79850,5.5625,-11.4375,-27.9375,0
79870,6.6875,-12.0625,-30.375,0
79890,4.25,-11.5625,-31.6875,0
79910,2.25,-10.5625,-30,0
79930,-1.1875,-8.375,-30.625,0
79950,-7.875,-8.0625,-31.8125,0
79970,-7.0625,-6.5625,-34.4375,0
79990,-2.25,-3.375,-33.9375,0
80010,0.0625,2.0625,-31.625,0
80030,-4.5,5.875,-30.25,0
80050,-1.625,6.875,-31.1875,0
80070,1.75,6.4375,-32.25,0
80090,2.25,6.0625,-30.8125,0
80110,2.25,6.4375,-32.9375,0
80130,1.1875,8.875,-37.1875,0
80150,-0.4375,11,-41.375,0
80170,-1.1875,13.875,-43.5625,0
80190,-0.9375,12.875,-42.75,0
80210,0.75,14.1875,-45.375,0
80230,2.3125,17.8125,-48.25,0
80250,0.8125,20.625,-49.8125,0
80270,0.4375,22.8125,-51.375,0
80290,2.875,26.125,-54,0
80310,2.8125,30.8125,-55.5,0
80330,1.25,36.5625,-58.375,0
80350,1.0625,41.9375,-59.1875,0
80390,-1,48.625,-57.5,0
80400,-0.75,52.5,-57.125,0
80420,-2.125,56.6875,-56,0
80440,-3.0625,59.75,-53.4375,0
80460,-3.875,60.125,-49.8125,0
80480,-5.625,60.1875,-46.8125,0
80500,-5.75,58.6875,-44.5625,0
80520,-6,58.5625,-41.1875,0
80540,-7.5,59.4375,-35.9375,0
80560,-11.8125,61.6875,-32.875,0
80580,-13.75,64.3125,-31.0625,0
80600,-13.625,63.5625,-25.75,0
80620,-14.1875,60.9375,-16.125,0
80640,-11.5,58.6875,-8.4375,0
80660,-9.8125,59.25,-6.1875,0
80680,-10.5625,58.3125,-0.8125,0
80700,-6.1875,54.8125,4.3125,0
80720,-5.8125,49.4375,12.375,0
80740,-4.625,48.0625,16.5,0
80760,-0.75,44.625,14.9375,0
80780,2.8125,38.4375,15.9375,0
80800,4.5625,33.1875,19,0
80820,2.9375,24.25,23.875,0
80840,-1.25,20.9375,28.4375,0
80860,-2.1875,24.375,24.1875,0
80880,-10,27.25,23.375,0
80900,-11.125,23,29.8125,0
80920,-12.3125,14.5,38.625,0
80940,-10.0625,12.1875,35.0625,0
80960,-16.8125,13.9375,27.3125,0
80980,-20.125,12.3125,27.625,0
81000,-24.0625,11.5,32,0
81020,-26.4375,8.875,31,0
81040,-25.0625,5,29.4375,0
81060,-24.8125,0.3125,27.625,0
81080,-22.75,-3.375,26.5,0
81100,-25.625,-3.5,24.5625,0
81120,-27.625,-3.125,20.5,0
81140,-25.6875,-5.125,22.9375,0
81160,-21.125,-10.5,29.125,0
81180,-20.3125,-13.9375,36.75,0
81200,-21.5625,-11.125,34.75,0
81220,-26,-9.4375,27.5,0
81240,-29.3125,-11,25,0
81260,-25.1875,-12.8125,28.1875,0
81280,-22,-13,29.25,0
81300,-18.3125,-14.9375,27.375,0
81320,-17.5,-18.375,23.75,0
81340,-15.9375,-22.0625,22,0
81360,-9.6875,-21.6875,21.5625,0
81380,-3.125,-18.5,20,0
81400,-1.5,-19.25,21.0625,0
81420,-3.125,-20.75,22.6875,0
81440,-7.0625,-21.3125,19.75,0
81460,-5.75,-23.75,16.375,0
81480,-2.625,-25.375,18.1875,0
81500,-1.125,-28.5,22.125,0
81520,-6.8125,-30.1875,26,0
81540,-14.75,-29.75,23.0625,0
81560,-17.375,-32.4375,19.875,0
