Timestamp, Electrode 1, Electrode 2, Electrode 3, Electrode 4, Electrode 5, Electrode 6, Electrode 7, Electrode 8, Marker
0,12,5,4,7,11,10,37,70,0
5,-6,-6,-1,-12,-28,-12,-6,-7,0
10,-3,1,-7,5,4,-4,-7,0,0
15,6,41,93,48,38,0,-16,3,0
20,-4,-45,-93,-46,-15,-4,-7,-1,0
25,-14,-6,-1,-7,1,7,13,1,0
30,-2,-10,-16,-22,-20,-9,-2,-8,0
35,-1,-2,-7,-6,-19,-21,-33,17,0
40,23,7,28,22,8,2,-5,-18,0
45,-72,10,17,11,15,19,0,-13,0
50,-1,5,2,8,3,1,19,16,0
55,-10,-13,-18,-2,-7,-16,-13,-60,0
60,14,8,15,3,9,-5,23,12,0
65,16,-9,-18,-1,-1,0,7,57,0
70,-1,5,16,5,7,13,17,7,0
75,22,-5,-14,-10,-3,19,7,-34,0
80,-13,-5,3,-2,-9,-23,-20,-6,0
85,36,-1,5,-2,-1,14,28,-11,0
90,-18,23,18,16,17,-15,-11,4,0
95,-20,8,-13,-7,-7,-2,-10,19,0
100,-21,-2,4,5,-11,0,-26,-97,0
105,16,-10,-23,-19,2,-6,-21,-20,0
110,-5,-11,-5,-8,-9,3,-20,-15,0
115,-8,-15,-15,-7,-3,9,25,27,0
120,-3,23,25,16,12,1,18,24,0
125,9,7,12,8,1,8,2,0,0
130,-11,-19,-14,-11,-11,-8,-24,-42,0
135,-11,-7,-11,-10,-4,-9,7,3,0
140,-2,3,-4,-4,9,0,-7,2,0
145,3,1,4,-6,-34,-10,15,3,0
150,0,-3,-2,-4,2,1,5,-5,0
155,-2,4,6,11,4,-3,-1,-13,0
160,5,3,6,5,1,1,27,5,0
165,-17,-20,-22,-11,-9,-16,-55,-50,0
170,1,-4,13,10,0,3,-10,-25,0
175,19,5,9,-11,-2,-6,-18,-1,0
180,-28,-14,-24,0,11,7,0,5,0
185,7,-23,-7,1,8,7,11,-1,0
190,-1,-15,-24,-19,-17,-21,-49,-22,0
195,12,20,13,3,-2,19,58,54,0
200,1,0,7,-2,-8,-7,-3,2,0
205,-13,-3,4,2,5,25,35,-15,0
210,4,5,2,9,10,-11,-4,31,0
215,-2,-2,-5,2,2,-10,-16,7,0
220,2,-7,1,-2,-6,-12,-25,5,0
225,0,5,-2,-3,-7,56,56,18,0
230,6,6,7,5,17,-16,-9,13,0
235,-3,-2,-9,-8,-7,-2,-8,2,0
240,0,-2,3,-7,-16,-26,-11,15,0
245,-8,-1,1,-1,-5,22,-3,-75,0
250,-1,5,0,0,6,-20,-9,23,0
255,-11,-16,-13,-8,-6,-17,-63,-66,0
260,0,-2,-2,4,10,-19,-91,-46,0
265,-6,5,4,-8,-20,10,38,54,0
270,10,11,1,-2,-1,35,71,10,0
275,-7,-7,-2,5,-2,1,11,9,0
280,3,-1,-4,-4,-6,6,-6,-5,0
285,-2,3,-1,3,9,-49,2,12,0
290,-6,-1,-2,-2,4,13,-44,-13,0
295,2,9,18,11,3,1,-17,-4,0
300,7,9,8,7,10,42,87,12,0
305,8,6,15,16,9,-20,-26,21,0
310,-10,-21,-41,-33,-21,-4,10,-10,0
315,-1,1,-3,7,13,-8,16,-25,0
320,0,2,1,-8,-19,3,3,-25,0
325,3,7,9,3,7,-21,-57,22,0
330,0,1,9,6,-2,27,46,-4,0
335,3,1,-3,-2,8,17,14,0,0
340,-2,0,0,6,8,8,30,7,0
345,11,4,-1,0,5,-6,11,11,0
350,0,8,19,5,-14,-7,-3,20,0
355,-10,-14,-25,-8,-9,-19,-9,18,0
360,3,0,-8,-2,5,19,27,12,0
365,1,3,-4,-5,6,5,-11,0,0
370,0,-6,-4,4,24,10,27,11,0
375,-1,4,11,-6,-32,-15,-16,12,0
380,1,1,8,1,-12,-14,-3,28,0
385,2,6,5,9,0,-9,-23,-7,0
390,-4,-5,0,-5,10,40,24,-10,0
395,-5,-10,-15,-6,8,10,-9,1,0
400,-2,-1,-4,-2,-5,-13,-7,-20,0
405,6,2,1,1,7,0,7,22,0
410,-2,-1,2,3,-13,-21,-34,-8,0
415,0,0,2,-2,1,1,2,-1,0
420,-3,-2,-1,-6,-2,-6,8,-18,0
425,3,0,-4,-2,3,-4,-19,10,0
430,8,15,7,10,1,1,-4,27,0
435,-7,-5,-11,-9,-8,-8,-14,-30,0
440,-10,-11,-1,1,3,-1,-27,-14,0
445,-3,-7,-7,-4,4,-3,-6,-3,0
450,-3,-13,-8,1,6,4,38,15,0
455,12,31,21,0,-6,3,-14,6,0
460,3,-3,-8,-10,-13,5,34,11,0
465,1,5,2,-1,-11,-29,-5,-5,0
470,-6,10,11,3,6,11,-61,-17,0
475,-8,-13,-2,4,15,-21,36,-2,0
480,2,14,9,6,18,16,-75,-3,0
485,-1,-7,-11,-16,-12,-4,-12,3,0
490,-5,10,-1,-2,-8,-25,3,-33,0
495,0,-10,-2,7,-3,-18,-58,7,0
500,-3,0,4,10,4,-33,18,2,0
505,18,26,10,6,11,40,89,29,0
510,-6,-20,-9,8,51,74,56,22,0
515,-3,-11,-20,-27,-57,-65,-30,19,0
520,6,0,10,26,46,3,8,-2,0
525,1,7,-1,-13,-23,23,12,4,0
530,-10,0,4,10,27,-14,-78,-29,0
535,-3,-27,-11,-9,-21,34,58,32,0
540,-4,-7,-12,-12,-12,38,26,18,0
545,-19,-27,-11,-2,2,-53,-87,-38,0
550,6,7,6,-3,-16,-5,53,5,0
555,-13,-1,-4,-2,13,10,-46,-52,0
560,12,2,8,3,-1,-10,-27,8,0
565,-11,-17,-8,-4,-1,3,15,-10,0
570,2,-20,-20,-6,-17,-9,3,16,0
575,6,27,30,27,65,22,-2,18,0
580,12,6,-4,-20,-83,-6,78,27,0
585,8,5,5,6,7,-1,-11,13,0
590,1,5,2,0,-6,-25,-70,-20,0
595,0,-2,-8,-3,7,20,38,-5,0
600,-13,-11,-10,-7,3,-31,-98,-19,0
605,0,3,7,6,17,25,95,8,0
610,-3,-3,-7,-5,-10,-8,-36,-30,0
615,-3,2,10,-3,-21,3,48,7,0
620,-6,-21,-17,-7,8,-1,-5,-16,0
625,3,6,4,5,-6,6,-16,-25,0
630,-41,-9,-9,-12,-21,-29,12,-1,0
635,29,-2,1,6,17,10,1,10,0
640,6,20,0,-3,3,14,70,14,0
645,-24,-46,-9,1,6,-2,-12,3,0
650,43,-2,5,4,-8,-18,-51,-1,0
655,-31,3,-7,-10,-7,6,43,2,0
660,0,7,4,2,4,15,23,2,0
665,-18,-1,5,7,7,-16,-57,-21,0
670,2,-10,-20,-19,-19,-2,31,12,0
675,-23,-9,13,8,-1,-5,-26,-14,0
680,-7,1,-14,0,10,4,-17,-11,0
685,2,13,-2,-5,-3,1,8,-5,0
690,-11,2,2,-4,-7,-3,6,2,0
695,12,2,-1,0,6,8,-2,-1,0
700,-5,-7,7,10,8,1,-14,-3,0
705,-22,5,2,5,0,-4,-23,-1,0
710,28,15,2,-5,-8,-2,6,-2,0
715,12,-10,-6,-3,-9,-7,-36,-14,0
720,20,-1,-1,-6,-8,-6,45,-1,0
725,-12,10,-2,-3,2,2,-56,-54,0
730,-7,-5,12,5,5,3,55,1,0
735,37,8,-9,-3,2,21,-7,5,0
740,-26,-8,6,2,3,-9,-27,-4,0
745,23,3,-3,-6,-8,-3,11,25,0
750,-12,-9,-6,-4,-7,-12,-47,-61,0
755,5,4,4,4,5,13,15,-4,0
760,-8,-1,3,0,-2,10,-6,0,0
765,1,-2,-4,-8,-12,-16,-16,14,0
770,8,14,15,10,2,-9,-12,9,0
775,-11,-11,-7,-5,-4,-1,23,-7,0
780,-5,14,2,-2,6,20,-40,-8,0
785,9,-12,2,-2,4,-1,17,6,0
790,-7,28,3,6,-7,-6,11,16,0
795,-8,0,-2,-3,0,6,-4,-7,0
800,15,0,-1,-3,0,-4,3,3,0
805,8,1,-4,1,9,53,21,2,0
810,-15,-7,0,-1,0,-37,9,9,0
815,11,14,5,2,-4,-4,5,13,0
820,-18,-8,-2,-3,-4,4,-49,-34,0
825,-2,3,-3,0,-9,-36,-5,-11,0
830,6,-2,3,1,5,11,12,8,0
835,-12,0,0,1,-1,7,27,-4,0
840,4,-3,-1,-4,-3,-38,-24,7,0
845,6,4,0,-3,-1,-5,31,16,0
850,-2,-9,-2,-1,-11,-2,-1,-12,0
855,-7,-3,-4,-3,-1,-3,-13,-12,0
860,4,4,3,4,-2,8,7,0,0
865,2,-4,-3,-4,-1,5,-5,0,0
870,-8,-2,4,1,-2,0,3,14,0
875,1,-4,-4,-3,3,6,-1,10,0
880,2,0,0,-1,0,-4,4,8,0
885,1,0,5,1,0,-6,3,4,0
890,8,-4,-5,-5,-1,14,10,8,0
895,-11,-6,-1,-1,-3,-16,-22,-6,0
900,14,7,0,-3,2,3,14,-1,0
905,0,-6,-4,-2,11,11,17,7,0
910,7,6,-1,-3,4,13,-1,0,0
915,-9,-5,-6,0,-2,-11,-13,0,0
920,13,-4,2,1,-3,-1,15,9,0
925,-8,0,-1,0,-1,12,2,-14,0
930,1,10,6,2,-2,-20,-26,1,0
935,-4,-18,-10,-4,2,19,42,4,0
940,0,-5,-3,-1,0,3,19,-2,0
945,0,-4,1,1,-2,-11,-47,-9,0
950,-13,-4,2,3,5,15,2,-36,0
955,18,3,0,1,-2,-23,-49,-13,0
960,-8,-1,-14,-11,-9,8,53,-5,0
965,0,-1,-1,-1,-4,-13,-53,1,0
970,9,6,6,0,3,12,100,52,0
975,-3,5,2,-1,-1,-3,-8,0,0
980,-11,-19,-9,-3,-2,-7,-29,-6,0
985,4,13,3,2,0,-12,-11,-2,0
990,-9,-15,-6,-4,1,4,-33,-24,0
995,1,7,6,3,0,-13,5,26,0
1000,7,1,2,2,2,6,-17,21,0
1005,-1,6,4,0,1,11,38,12,0
1010,1,-5,-4,-3,-3,-3,-20,-10,0
1015,-5,2,-3,-6,-6,-11,-27,-16,0
1020,4,1,0,0,4,-1,42,37,0
1025,4,-4,5,5,6,15,70,5,0
1030,2,9,-2,0,-1,8,0,-6,0
1035,-5,-3,0,1,5,6,-11,5,0
1040,8,8,7,7,8,1,22,28,0
1045,1,9,1,0,-1,-3,-47,-10,0
1050,16,5,4,-1,-1,-4,16,6,0
1055,-11,-12,-7,-2,-5,18,39,6,0
1060,-16,-7,-1,0,-1,-11,-34,3,0
1065,19,16,3,0,-1,6,24,-3,0
1070,-8,-8,-5,-6,-4,5,-6,-11,0
1075,-8,-7,2,6,4,-9,-21,11,0
1080,-44,-14,-13,-12,-8,-14,-27,-54,0
1085,30,26,10,9,7,12,11,40,0
1090,-18,-26,-22,-11,-11,-18,-30,-11,0
1095,13,22,29,13,17,23,3,-27,0
1100,5,5,7,2,-3,-5,-8,-4,0
1105,-51,-45,-22,-21,-25,-20,-10,-15,0
1110,-31,12,0,4,1,7,13,-9,0
1115,27,2,-14,-5,-3,-11,42,2,0
1120,10,16,12,7,15,25,-14,35,0
1125,1,-3,2,-2,-10,-11,16,13,0
1130,12,-19,-1,4,4,5,-4,12,0
1135,-46,10,-15,-20,-5,-7,-46,-20,0
1140,11,0,-2,-1,-5,-7,-14,-5,0
1145,-7,-15,-8,-1,1,-6,-17,11,0
1150,6,16,9,5,7,4,12,-6,0
1155,11,3,10,12,1,5,10,14,0
1160,-55,-13,-3,-5,-6,-10,2,-33,0
1165,52,20,2,5,6,3,-18,-3,0
1170,4,4,1,1,1,0,-9,9,0
1175,-21,-18,-14,-8,-11,-18,-32,-28,0
1180,10,10,5,5,10,29,19,6,0
1185,-3,-8,-2,-1,-2,-6,-4,-18,0
1190,0,3,2,1,-1,-3,-26,3,0
1195,10,-5,-3,-4,-8,-5,14,13,0
1200,26,9,5,1,-13,-39,-15,-14,0
1205,-30,0,-7,-3,7,20,-14,-10,0
1210,30,-6,-12,-6,-10,-19,-1,24,0
1215,-2,20,18,5,13,48,35,14,0
1220,-5,2,6,4,-1,-17,-31,-15,0
1225,-12,-7,-4,-8,-11,-10,6,-12,0
1230,-26,-2,-5,-3,-9,-14,-23,-14,0
1235,9,-8,-9,-5,1,6,32,5,0
1240,7,-3,-3,0,1,0,14,5,0
1245,-6,1,1,2,10,4,11,0,0
1250,4,-3,2,-1,-3,3,1,4,0
1255,-2,-2,0,2,-14,-33,-43,-15,0
1260,2,-2,-3,-7,4,18,34,22,0
1265,-9,-8,-1,3,11,15,27,6,0
1270,15,9,-2,-2,4,7,14,4,0
1275,1,2,0,-1,1,4,14,5,0
1280,-3,0,-4,-4,-8,-10,-28,-13,0
1285,-3,-1,0,0,-7,-16,-18,-14,0
1290,-5,-3,1,0,4,14,16,1,0
1295,3,1,-1,0,-2,-14,0,18,0
1300,-2,-9,-6,-5,-7,-14,-35,-11,0
1305,1,0,-1,1,-1,6,19,0,0
1310,-9,-3,2,0,1,1,-19,-4,0
1315,1,-1,-5,-2,-5,-12,-3,6,0
1320,7,0,2,3,3,15,34,5,0
1325,-13,5,-4,-6,0,5,-2,-8,0
1330,-3,-3,1,4,-3,-4,-6,-3,0
1335,-1,-7,6,1,3,5,3,30,0
1340,6,14,-1,-4,0,3,25,5,0
1345,0,0,2,4,4,-14,-45,-6,0
1350,-6,-1,-3,-2,-2,-3,4,-4,0
1355,3,-6,-1,4,2,5,-5,6,0
1360,-5,-6,-4,-4,-1,0,-5,-14,0
1365,2,-3,-3,-6,-3,1,10,13,0
1370,-5,2,9,0,0,-8,-11,-13,0
1375,14,-4,0,2,2,8,9,19,0
1380,1,0,-2,1,0,-6,-17,-1,0
1385,1,1,-3,2,-1,-1,14,2,0
1390,-1,3,-1,1,1,4,-15,-29,0
1395,-2,1,5,2,-4,-2,1,-17,0
1400,0,-3,1,0,-2,-5,-5,-11,0
1405,2,-3,-3,3,5,-9,-34,5,0
1410,3,1,-3,-8,-6,-19,-21,15,0
1415,-6,4,-3,-3,1,7,17,19,0
1420,0,-3,-4,-3,-4,2,13,-8,0
1425,-10,-7,-6,-9,-11,5,25,-20,0
1430,-1,-1,0,2,7,-20,-56,5,0
1435,-2,0,-4,-5,-7,-18,-14,-12,0
1440,-3,4,-6,-2,2,9,8,5,0
1445,1,3,5,4,6,12,-2,27,0
1450,1,-5,-6,-3,-3,11,36,-2,0
1455,-10,0,-4,0,4,-6,-46,-26,0
1460,6,-5,1,1,-6,8,-9,14,0
1465,0,1,3,1,-2,-5,-16,-13,0
1470,-5,-8,2,-1,-1,3,9,-1,0
1475,-2,-5,-1,-1,5,-21,-31,-27,0
1480,-15,-14,-5,-2,-3,6,5,-29,0
1485,16,10,3,0,-4,-25,-46,-14,0
1490,19,22,20,21,12,-7,19,-7,0
1495,16,-18,-32,-30,-9,9,10,-14,0
1500,4,-12,-8,-2,0,7,-15,35,0
1505,9,15,4,-3,-2,-2,22,-1,0
1510,-25,-16,-5,-3,-7,16,-3,-58,0
1515,-2,5,11,10,-2,-2,14,15,0
1520,14,11,9,4,4,-13,-39,-10,0
1525,6,-11,-9,-6,-1,19,67,16,0
1530,-10,9,3,0,1,5,-4,21,0
1535,-8,-1,0,0,2,-2,-7,-9,0
1540,-5,-4,-1,-2,-1,-10,-5,0,0
1545,-12,2,6,5,2,4,32,18,0
1550,-17,-25,-10,-8,-6,-9,-4,-18,0
1555,48,44,5,3,4,14,72,34,0
1560,-1,8,5,1,1,-3,3,-3,0
1565,-8,-9,-10,-7,0,-6,-15,-3,0
1570,3,0,-6,-5,0,4,3,15,0
1575,-18,-13,2,-3,-8,2,27,-7,0
1580,2,9,11,8,2,4,2,3,0
1585,2,-2,-8,-1,0,-6,-12,-8,0
1590,-3,1,3,-1,1,7,12,25,0
1595,-14,-8,2,1,-1,-7,-17,-7,0
1600,4,1,-3,-3,1,-5,-14,29,0
1605,-10,-7,2,-2,-2,-3,-24,-3,0
1610,6,2,-5,0,-1,4,26,23,0
1615,-9,-3,2,5,1,3,-8,-9,0
1620,-8,-5,-2,-3,-1,-9,-18,-28,0
1625,0,-6,-6,0,-3,3,-7,-1,0
1630,-2,7,2,1,-7,-7,0,17,0
1635,2,-8,-4,-5,-5,9,2,-14,0
1640,-11,-7,-3,-2,0,-15,-5,1,0
1645,-47,9,19,10,1,-8,-20,-8,0
1650,27,-5,2,11,8,13,4,9,0
1655,-22,19,-28,-19,3,-2,-22,-10,0
1660,-25,5,25,2,-1,12,35,16,0
1665,-17,-35,-22,-5,-7,-5,-11,-10,0
1670,-8,-11,4,-24,-8,-7,-3,-5,0
1675,65,-11,-4,9,2,8,17,18,0
1680,20,7,-12,0,4,2,-13,-11,0
1685,31,45,8,9,3,2,47,15,0
1690,-42,-29,-2,-1,-1,-8,-42,-40,0
1695,30,11,32,11,3,5,2,15,0
1700,11,13,8,4,0,0,-21,0,0
1705,14,2,5,5,14,12,30,8,0
1710,3,2,-13,0,1,4,26,0,0
1715,-33,-12,-4,-8,-19,-23,-27,-21,0
1720,-19,2,-3,3,9,9,-22,-25,0
1725,-22,-13,-9,-14,-20,-9,-8,5,0
1730,31,11,-3,6,20,11,-35,11,0
1735,-15,-6,-4,-1,-5,-16,42,20,0
1740,-14,-12,-8,-4,-8,8,5,-9,0
1745,29,7,0,-2,-4,-11,2,4,0
1750,39,10,14,11,4,0,5,-11,0
1755,-10,-4,-8,-5,4,1,-26,-15,0
1760,43,2,-18,1,9,13,66,54,0
1765,45,21,51,22,0,-7,-6,10,0
1770,-110,-46,-61,-38,-15,-12,-6,1,0
1775,0,10,0,-6,2,13,7,-38,0
1780,-9,-26,-27,-15,-1,-7,-10,-2,0
1785,-5,6,1,4,1,-1,-29,-36,0
1790,33,23,36,23,0,6,-9,35,0
1795,-13,2,4,3,-4,-8,-9,5,0
1800,-14,1,4,3,-1,2,7,-19,0
1805,-17,-29,-26,-14,-6,-9,7,2,0
1810,10,3,-2,-5,1,-2,-42,-28,0
1815,-15,-2,7,0,-2,-7,0,-1,0
1820,20,2,11,6,-6,-1,-19,-3,0
1825,-8,-3,-14,-3,1,-4,-26,2,0
1830,19,4,12,0,4,10,53,21,0
1835,-4,0,2,5,7,-8,-86,-46,0
1840,-3,4,0,1,-8,7,100,10,0
1845,-13,-19,-18,-3,8,2,1,-13,0
1850,3,-1,5,-8,-14,-3,5,18,0
1855,2,-7,0,4,2,-7,2,70,0
1860,10,-16,-30,-6,-1,8,-13,0,0
1865,13,35,-16,-11,0,0,-6,-40,0
1870,30,27,55,11,1,2,31,51,0
1875,-22,3,24,13,10,13,36,2,0
1880,-16,-9,-2,-9,-7,-18,-39,-9,0
1885,-27,-22,-10,4,-1,11,28,39,0
1890,-12,6,-32,-12,1,5,28,-16,0
1895,-15,-13,-9,-5,1,1,-2,-23,0
1900,1,0,9,3,2,-10,-19,-5,0
1905,-8,3,16,6,-6,0,-2,5,0
1910,4,-2,-6,-2,-5,-9,-33,-27,0
1915,-18,-25,-13,-4,-5,-2,9,21,0
1920,27,13,-5,-3,1,-9,-7,10,0
1925,20,12,27,5,16,22,-37,-1,0
1930,-6,-6,-11,-8,-22,-15,10,15,0
1935,8,-2,-13,-5,-6,2,-8,-16,0
1940,-8,9,14,-3,-8,-13,-6,-5,0
1945,2,-11,4,-2,-6,-3,-11,-9,0
1950,0,1,-8,6,13,5,15,-1,0
1955,-1,22,5,3,1,9,-2,4,0
1960,20,-33,11,6,0,-6,-34,-28,0
1965,42,28,-18,-19,-2,-5,15,-5,0
1970,-21,-21,-37,-2,-2,-4,-13,-26,0
1975,6,32,40,11,3,2,2,21,0
1980,-22,-3,3,12,8,6,1,8,0
1985,-32,16,24,-10,-16,-12,-4,-17,0
1990,0,6,-5,-7,2,0,-8,-1,0
1995,1,-17,-17,-5,1,0,-8,-16,0
2000,0,2,-3,2,0,-2,-5,-47,0
2005,13,-7,-2,4,-3,-3,-11,17,0
2010,-7,7,8,6,5,-1,-1,1,0
2015,-38,-25,-16,-9,-10,-8,-13,-9,0
2020,-15,11,3,-5,-5,-1,12,5,0
2025,0,-18,-9,0,-3,-4,0,0,0
2030,0,12,3,-2,1,2,-2,-3,0
2035,20,-1,0,3,2,1,12,-4,0
2040,7,8,1,-7,-8,-24,-25,3,0
2045,0,-18,-15,1,7,29,24,14,0
2050,14,8,7,-3,1,0,4,-5,0
2055,1,19,13,-5,-6,-5,-60,-19,0
2060,-43,3,-7,-2,5,4,15,20,0
2065,24,-7,8,7,3,-10,-3,-3,0
2070,-50,-7,-13,3,-1,0,-10,-13,0
2075,0,-5,-14,-1,1,4,23,11,0
2080,-8,-9,1,-8,-3,16,2,-2,0
2085,-6,0,1,-2,-1,-50,-12,-5,0
2090,-12,-19,8,8,-1,81,38,6,0
2095,15,-1,-22,-3,0,-9,13,12,0
2100,-21,-35,-38,-8,2,0,-5,2,0
2105,1,48,57,-1,-5,-18,0,0,0
2110,13,15,30,13,0,0,-4,-7,0
2115,-24,-12,2,0,1,17,6,-11,0
2120,13,-2,0,0,-4,-34,-3,4,0
2125,-14,-18,-23,-4,4,13,-11,-1,0
2130,-2,-16,-21,-8,-6,-19,-8,-5,0
2135,11,-2,-2,0,-1,-2,-1,-4,0
2140,6,9,10,-4,-3,0,9,5,0
2145,-7,-10,-7,0,-3,3,3,0,0
2150,18,14,8,7,9,-3,-23,2,0
2155,7,-21,-13,-2,-1,-6,-4,-3,0
2160,15,11,0,-3,-7,-1,13,20,0
2165,-15,-6,-3,-2,-3,6,-45,-18,0
2170,5,-6,-5,-2,8,-4,27,16,0
2175,0,-4,-7,-11,-19,-22,-15,18,0
2180,4,4,2,5,4,9,-21,-21,0
2185,-1,1,0,1,2,19,31,1,0
2190,-1,-7,-5,-4,-3,-28,-10,-5,0
2195,9,13,10,2,5,6,14,-6,0
2200,6,16,15,8,9,2,-30,-6,0
2205,1,-3,-14,-5,-7,3,12,10,0
2210,-3,-18,-13,-10,-7,-13,4,-8,0
2215,0,6,3,-1,4,11,11,-3,0
2220,-5,-16,-5,-1,-6,-3,-19,0,0
2225,-5,-1,-1,6,10,6,14,-5,0
2230,6,24,14,4,0,-11,-31,-10,0
2235,6,-2,-2,3,3,8,22,16,0
2240,-4,-13,-10,-10,-5,15,16,-17,0
2245,1,5,2,4,3,-2,-35,1,0
2250,-2,-15,-10,-10,-8,-12,47,9,0
2255,-7,4,-2,0,-2,2,-29,-23,0
2260,15,13,12,11,24,16,74,37,0
2265,2,4,4,4,0,-9,28,17,0
2270,1,6,-3,-6,-1,10,-22,7,0
2275,2,0,-3,-16,-45,-28,-3,-9,0
2280,-6,-3,5,1,-2,4,53,-5,0
2285,-12,-22,-15,-6,7,4,-18,-16,0
2290,12,14,11,6,-8,-9,8,22,0
2295,0,5,5,4,11,-3,-27,-4,0
2300,-1,3,11,5,-2,6,-49,-12,0
2305,-2,1,-5,2,9,2,2,10,0
2310,1,4,1,7,13,15,12,-20,0
2315,0,-1,5,1,-1,4,26,11,0
2320,5,5,-4,-7,-19,-37,-28,-1,0
2325,-4,-2,3,3,4,-2,-27,-4,0
2330,2,-3,-3,-3,5,8,31,17,0
2335,3,-6,-7,-2,8,-4,-17,9,0
2340,3,9,3,1,10,17,11,8,0
2345,-11,-22,-12,-8,-14,-5,18,1,0
2350,-5,-3,-4,-3,-5,-7,-12,-15,0
2355,2,-1,5,8,8,-9,-23,4,0
2360,4,-5,-8,-9,-8,-5,33,7,0
2365,1,3,-2,0,8,6,-12,-6,0
2370,1,7,8,-2,-19,-11,-7,1,0
2375,-8,-12,-3,3,5,12,1,-6,0
2380,-1,6,4,4,-1,-7,-17,-3,0
2385,8,1,3,8,10,5,35,33,0
2390,-2,-2,-5,-4,1,-9,-30,-25,0
2395,2,5,1,0,1,3,0,-4,0
2400,-6,-1,-2,-1,4,2,-32,-11,0
2405,0,-2,-5,-5,-9,3,-3,-2,0
2410,-3,-6,3,6,6,-3,5,-10,0
2415,-3,-4,-3,-3,3,35,31,-4,0
2420,13,20,16,8,-1,-14,21,13,0
2425,-6,-18,-17,-16,-22,-9,1,-3,0
2430,-1,1,4,9,19,6,-18,4,0
2435,-1,0,-7,-9,-33,-37,-11,-10,0
2440,-4,-1,3,-3,4,14,-12,-3,0
2445,-4,2,3,0,-8,-2,-28,-23,0
2450,3,11,8,7,5,4,-8,8,0
2455,-10,-16,-12,-6,13,5,2,-3,0
2460,-2,-6,-4,1,5,-2,-9,12,0
2465,6,5,5,-3,-15,-1,30,14,0
2470,-6,-6,-9,-6,-2,1,-32,-9,0
2475,7,12,13,11,10,-3,2,12,0
2480,-2,5,-3,-8,-14,-6,-22,-25,0
2485,-3,-9,-9,-1,5,1,-14,-9,0
2490,0,0,4,2,0,-2,-4,8,0
2495,1,4,2,5,6,-4,-20,-5,0
2500,1,-4,3,5,8,11,-25,7,0
2505,0,-3,-5,-9,-7,-4,-10,1,0
2510,-1,-12,-5,-11,-9,-4,0,-1,0
2515,-26,3,-5,1,-1,-9,3,-4,0
2520,32,5,6,7,6,11,30,8,0
2525,-35,2,-12,-6,5,2,33,-23,0
2530,-2,-4,1,-1,-6,-7,23,2,0
2535,-2,-14,-14,-2,4,2,23,0,0
2540,-7,5,4,1,2,7,28,-2,0
2545,4,3,9,4,1,-1,-11,-9,0
2550,10,1,-4,-2,-2,3,44,20,0
2555,5,5,3,1,1,4,36,12,0
2560,-13,-11,-8,-4,-9,-8,-27,-6,0
2565,10,2,4,1,-3,-5,-18,-5,0
2570,-27,-6,-5,-3,-4,1,-30,-22,0
2575,31,8,6,4,6,8,113,23,0
2580,16,7,-6,-4,-1,5,104,20,0
2585,-7,-4,4,3,2,-7,34,1,0
2590,-99,-12,-1,2,-2,-2,-5,-25,0
2595,40,20,1,5,-1,2,-44,-5,0
2600,-17,-20,7,-7,-3,-6,-50,-10,0
2605,0,18,-10,-2,2,-4,-12,3,0
2610,-25,11,8,5,4,7,-12,18,0
2615,-7,-14,-7,-12,5,16,-16,5,0
2620,2,-2,-6,2,-2,-10,-24,-2,0
2625,-35,-4,5,1,0,4,-23,3,0
2630,49,-5,1,0,1,9,-2,11,0
2635,-8,-1,8,1,3,1,-35,-4,0
2640,7,3,-8,-1,-5,-8,-20,-4,0
2645,8,-1,3,-1,2,0,-22,14,0
2650,24,5,-5,2,2,-7,2,2,0
2655,-4,-2,0,-3,-2,1,-12,-4,0
2660,-18,-10,-9,-7,-5,-10,-21,10,0
2665,-15,0,7,6,5,32,9,6,0
2670,44,7,-4,-5,-5,-16,-7,-8,0
2675,-5,-1,2,3,5,10,22,6,0
2680,-43,-25,-9,-4,-4,5,39,-22,0
2685,41,-2,-4,2,-2,-12,-23,-12,0
2690,-9,4,-5,-6,-12,-23,-42,-29,0
2695,6,4,4,3,4,4,10,11,0
2700,-5,-8,-10,-8,-6,6,10,-7,0
2705,6,-9,1,2,3,1,-7,5,0
2710,-13,-4,-9,-9,-4,-10,-33,-6,0
2715,-4,-8,4,2,-3,-11,-25,-17,0
2720,10,10,1,1,2,3,-39,14,0
2725,1,-3,-4,-1,-1,-10,-40,-5,0
2730,19,9,1,0,3,9,24,12,0
2735,-11,2,1,-3,-7,-16,-13,-4,0
2740,2,1,-3,-2,2,-1,24,-1,0
2745,-9,-7,-2,3,0,-1,61,-8,0
2750,15,18,13,8,5,0,26,12,0
2755,-13,-3,-4,-5,1,15,27,-11,0
2760,6,12,1,-10,-16,-16,-33,-11,0
2765,15,-4,-1,-2,-3,-9,58,51,0
2770,-6,-5,1,2,-1,24,32,14,0
2775,-11,9,9,7,11,-8,-50,1,0
2780,-2,-5,-3,-1,1,12,10,6,0
2785,2,-4,-5,-12,-7,-8,-60,-18,0
2790,3,-3,-6,-6,-9,-2,18,11,0
2795,0,-6,-3,-3,-2,-21,-34,-6,0
2800,1,3,0,5,5,4,11,-12,0
2805,-1,14,7,5,5,4,3,0,0
2810,0,-19,-9,-4,-6,7,5,-5,0
2815,5,10,-4,-4,-4,-20,-59,-16,0
2820,4,3,4,5,6,2,-7,6,0
2825,-17,-23,-9,1,-2,5,3,-21,0
2830,-17,9,13,4,7,2,-7,0,0
2835,-12,4,-15,-6,3,5,4,2,0
2840,14,-27,-17,-11,-16,-10,8,-1,0
2845,-25,11,12,13,-3,12,32,-6,0
2850,-48,-47,-34,-30,-7,-34,-40,-31,0
2855,-25,-5,7,5,2,18,38,12,0
2860,34,21,10,7,21,-8,-32,18,0
2865,-10,2,5,4,-1,-7,-20,-7,0
2870,58,33,20,7,-5,10,31,21,0
2875,-11,-22,-11,-5,0,1,5,-7,0
2880,-15,10,6,2,-7,-13,-45,2,0
2885,17,-3,2,0,6,9,-10,11,0
2890,0,0,4,4,10,1,-42,-21,0
2895,29,9,3,2,-7,-5,67,53,0
2900,-21,4,4,2,-1,1,-8,-14,0
2905,15,22,14,7,15,10,19,15,0
2910,5,-16,-12,-8,-4,9,-30,1,0
2915,-10,-9,-4,-7,-12,-18,-29,-8,0
2920,-15,-7,-4,-1,-5,-23,-50,-21,0
2925,19,15,1,-6,7,22,21,37,0
2930,-2,4,-1,3,15,14,20,0,0
2935,9,4,-13,-10,-29,-20,3,-13,0
2940,-2,-8,8,7,5,0,-4,-4,0
2945,-10,5,6,2,21,-18,-63,-32,0
2950,7,4,9,9,-3,22,34,8,0
2955,9,17,11,-2,-2,-5,-5,5,0
2960,-1,6,0,2,-2,7,17,-6,0
2965,-15,-46,-18,-10,-20,-3,0,-23,0
2970,3,0,-10,-5,7,-12,-11,24,0
2975,6,-10,12,15,7,3,-24,-24,0
2980,-13,14,-2,-9,-12,6,37,2,0
2985,10,-20,-5,-1,6,8,30,-1,0
2990,-5,-6,-8,-7,-11,-12,13,0,0
2995,-6,-20,-8,-4,-6,-25,-96,-21,0
3000,-2,-7,-1,4,18,33,75,15,0
3005,11,22,8,-3,-9,-5,24,34,0
3010,-3,-3,-1,5,-8,-11,10,-8,0
3015,-2,5,-3,-3,1,6,2,0,0
3020,-8,1,8,9,7,-17,-52,-37,0
3025,10,12,-1,-4,-6,13,74,-3,0
3030,10,3,-4,-3,-3,-4,32,6,0
3035,0,-6,-2,-4,-9,2,48,23,0
3040,4,-1,-3,-4,3,18,23,6,0
3045,9,4,-4,-2,-13,-13,-23,-11,0
3050,-2,-23,-1,9,14,-2,-34,-10,0
3055,-34,12,4,-2,3,8,8,-10,0
3060,10,3,7,4,1,1,14,23,0
3065,-3,-4,-6,-5,-3,-5,-7,3,0
3070,0,-6,6,5,-3,8,8,-3,0
3075,-14,4,5,0,1,-3,-12,-9,0
3080,-4,2,-15,-10,-9,-3,-23,-5,0
3085,-6,11,7,8,4,-1,-9,4,0
3090,5,5,2,3,-4,0,8,-1,0
3095,9,-5,12,15,1,3,15,-1,0
3100,-46,-28,-20,-25,-1,2,0,6,0
3105,-2,-10,-7,-4,-7,-4,-9,-15,0
3110,-42,5,-5,-1,-1,2,-10,8,0
3115,15,1,-5,-2,1,0,-11,-70,0
3120,-5,5,7,7,-2,-6,6,41,0
3125,-22,-12,-5,-2,-1,-8,-34,-10,0
3130,10,8,1,-4,-10,-22,-49,4,0
3135,3,10,11,10,18,47,106,-34,0
3140,10,-8,-4,-2,-10,-33,-70,-45,0
3145,-8,8,2,1,9,33,71,-33,0
3150,16,-1,-2,-1,-4,-6,-48,6,0
3155,-1,-4,-7,-4,-6,-5,5,16,0
3160,16,5,-2,1,1,3,0,29,0
3165,5,-3,-1,-1,-4,-20,-45,-11,0
3170,0,1,4,-1,-2,-1,24,-32,0
3175,6,-1,-5,-2,4,13,14,-5,0
3180,1,-5,2,1,0,9,10,-5,0
3185,3,5,2,2,-9,-23,-19,21,0
3190,2,1,2,1,3,5,44,19,0
3195,-1,1,-6,-7,-2,18,26,18,0
3200,2,4,1,5,4,4,-3,-21,0
3205,-2,1,-3,-2,-5,-12,-35,8,0
3210,-1,4,2,0,-1,-19,-29,-18,0
3215,9,-1,-1,2,2,-4,24,47,0
3220,12,7,7,4,8,35,58,43,0
3225,-4,-2,-1,0,5,-11,-8,-22,0
3230,-13,-8,-5,-5,-10,-13,-57,4,0
3235,-1,-6,-4,-4,-6,-6,-17,39,0
3240,4,3,1,3,6,9,-12,-23,0
3245,-9,-4,-2,-2,10,4,-44,10,0
3250,7,3,2,3,14,8,44,13,0
3255,0,-3,-1,-6,-1,-12,-22,-14,0
3260,1,-1,-2,-7,-27,-21,23,-2,0
3265,8,5,5,5,16,1,24,47,0
3270,-4,-2,-2,-3,-11,12,15,-10,0
3275,-4,-5,-4,3,-1,-20,-50,-6,0
3280,3,-4,0,6,16,19,-5,3,0
3285,-1,-5,-6,-15,-36,-20,-17,-11,0
3290,3,1,2,0,5,-4,19,3,0
3295,-1,0,-2,-2,0,-6,-28,-9,0
3300,-5,-10,-3,3,2,-15,-25,-5,0
3305,15,18,0,3,8,27,32,-10,0
3310,-2,-3,-5,-4,-1,9,0,-5,0
3315,-2,-1,1,0,1,-8,-19,1,0
3320,0,-6,-1,-3,-1,6,27,-13,0
3325,-1,-5,-1,-2,-6,-2,-9,-10,0
3330,0,-2,1,-1,-1,-1,0,-9,0
3335,1,0,-1,2,4,6,2,7,0
3340,1,-7,-5,-10,-11,-11,10,0,0
3345,-2,2,-2,-3,-8,-4,-2,-12,0
3350,2,1,1,3,3,4,-1,2,0
3355,-2,-3,0,2,-1,-2,-2,-2,0
3360,0,2,-1,0,0,-8,-20,-3,0
3365,-10,-7,-1,2,4,1,-8,-45,0
3370,0,-4,-5,-2,-3,-2,0,-6,0
3375,1,-1,-3,-2,-3,-1,8,30,0
3380,-1,1,0,1,2,4,0,-6,0
3385,0,-7,-6,-6,-11,-16,-14,25,0
3390,-1,4,0,2,5,13,14,2,0
3395,-2,-1,0,0,4,-9,-15,-14,0
3400,-4,-3,-3,-3,-3,-4,-8,-6,0
3405,0,1,-2,-6,-8,4,5,5,0
3410,-2,2,5,2,0,0,-10,-9,0
3415,1,-1,1,2,5,18,35,2,0
3420,0,2,1,-2,-7,-6,-3,-1,0
3425,-1,-9,-11,-9,-12,-14,-5,3,0
3430,4,4,9,4,0,-3,-12,1,0
3435,0,1,3,6,8,2,-16,-5,0
3440,1,0,-18,-8,5,2,0,0,0
3445,4,14,17,10,0,0,5,4,0
3450,0,-13,5,-4,0,1,0,0,0
3455,-2,-10,-1,-4,-5,-8,-6,-5,0
3460,5,11,8,3,10,3,5,1,0
3465,-2,-23,-40,-11,4,-4,-10,-3,0
3470,-2,6,-3,10,-1,7,3,-1,0
3475,2,-7,-26,-22,-22,-14,-13,-3,0
3480,-5,1,9,-8,-10,1,1,-2,0
3485,2,8,17,11,18,3,3,0,0
3490,-2,4,10,18,39,15,-4,2,0
3495,-2,-1,-2,5,-24,-2,1,-2,0
3500,-2,3,6,4,13,-17,-2,0,0
3505,-3,0,5,5,-9,-3,19,-1,0
3510,-5,-14,-18,-33,-28,-18,-8,-5,0
3515,-3,6,3,9,23,-1,-12,-2,0
3520,-5,-3,2,-16,-39,-14,-23,-7,0
3525,-1,3,35,8,6,8,9,2,0
3530,2,-2,-23,7,-3,-14,-15,-2,0
3535,1,2,5,7,18,29,21,-1,0
3540,-6,-10,-28,-19,-14,-26,-23,-4,0
3545,8,5,-3,2,18,61,8,27,0
3550,2,2,-9,0,-8,-18,-17,14,0
3555,-16,-5,11,3,10,11,37,5,0
3560,9,6,8,18,13,-22,-21,-5,0
3565,24,-4,3,-6,-18,-38,11,-14,0
3570,-56,39,48,14,15,37,57,23,0
3575,0,-8,28,-4,-13,-27,-46,-2,0
3580,34,-16,-62,-27,0,40,72,40,0
3585,-4,-5,13,-12,-6,-32,-37,40,0
3590,23,-19,-31,-11,-9,-20,25,28,0
3595,0,45,117,20,-6,-44,-56,-35,0
3600,0,-5,-36,11,-4,3,19,-3,0
3605,0,-39,-83,-27,-14,-12,1,-14,0
3610,-15,25,17,-7,15,52,11,-6,0
3615,8,30,38,8,6,48,14,1,0
3620,4,-12,28,12,-16,-46,-11,11,0
3625,-26,-21,7,-3,16,29,56,2,0
3630,19,17,-72,-17,-3,-18,-11,-55,0
3635,-16,-56,-89,-29,-9,-66,-37,15,0
3640,4,-19,17,7,7,56,0,-16,0
3645,-19,41,54,25,9,28,2,-30,0
3650,-6,-22,14,-9,-11,1,7,-16,0
3655,15,47,-13,6,-5,-36,-7,-18,0
3660,-5,-3,-10,-1,2,8,38,11,0
3665,-1,3,-8,2,8,-8,-55,4,0
3670,9,-1,20,1,-11,-17,-16,-6,0
3675,2,-3,-9,-12,-8,27,41,-1,0
3680,-20,8,3,-3,-11,-2,-15,-8,0
3685,9,35,80,23,-2,-2,21,0,0
3690,-3,-68,-102,-36,-1,-2,-10,-7,0
3695,-4,-20,-18,-5,-1,7,-15,4,0
3700,-5,8,56,8,13,26,36,-2,0
3705,2,1,-26,-8,-8,-25,-51,-14,0
3710,13,16,51,26,4,-6,-19,10,0
3715,-3,-11,-14,0,12,36,26,13,0
3720,5,23,-16,-9,-2,-2,1,1,0
3725,-13,-32,-62,-19,-22,-23,-27,-35,0
3730,15,-24,-28,0,-3,11,25,24,0
3735,-8,-18,-12,-6,9,47,11,-12,0
3740,-9,-15,21,2,-5,-35,-30,6,0
3745,2,25,10,12,6,13,8,14,0
3750,12,41,35,12,-3,-7,21,9,0
3755,-6,-15,-18,-18,-19,-9,13,18,0
3760,3,-9,5,3,-3,8,-2,-6,0
3765,-8,17,30,1,-6,-7,-61,-32,0
3770,27,33,42,24,4,-53,-47,33,0
3775,5,-6,5,0,10,10,29,1,0
3780,-11,-10,-33,-16,3,-4,-16,-25,0
3785,-5,-41,-98,-22,11,32,89,28,0
3790,-15,-9,36,-4,-19,-42,-84,-30,0
3795,15,-4,13,7,-1,-27,-50,-5,0
3800,-18,-20,-2,8,8,-11,-21,5,0
3805,13,9,19,-7,-8,4,10,51,0
3810,7,-10,-6,-6,3,31,31,46,0
3815,-11,-16,-22,-1,-8,-18,20,-14,0
3820,5,4,14,4,10,-1,-48,-1,0
3825,-13,-49,-3,-7,-18,-20,-40,-71,0
3830,-25,9,13,2,10,13,17,5,0
3835,23,58,2,14,13,29,72,7,0
3840,-6,28,21,6,-6,-26,-62,-47,0
3845,2,15,42,3,-2,11,67,11,0
3850,-13,-48,-18,-10,-7,18,-7,-18,0
3855,-14,-21,-23,0,-4,-4,-7,-16,0
3860,-4,-5,-18,-11,-7,1,13,3,0
3865,3,9,11,1,-2,-9,-13,6,0
3870,-2,-1,14,-2,-2,2,-2,-11,0
3875,-6,1,7,4,4,9,16,-9,0
3880,5,11,13,-3,5,22,55,9,0
3885,-2,3,14,4,-12,-42,-96,-36,0
3890,3,-2,-4,16,23,33,34,-14,0
3895,2,10,-3,-1,-12,-18,-41,-8,0
3900,-1,-11,-11,-12,-8,-7,16,8,0
3905,3,-9,-10,0,-1,7,29,-6,0
3910,-12,-42,2,-2,-6,-25,-9,-25,0
3915,13,41,1,-1,1,11,-3,17,0
3920,3,26,23,14,10,8,-1,0,0
3925,8,15,-3,13,16,13,23,31,0
3930,0,-1,0,4,-11,-1,-14,-8,0
3935,-2,-24,12,-12,9,4,-2,15,0
3940,0,3,0,3,0,5,-1,6,0
3945,-2,-8,-16,-2,8,-30,6,-2,0
3950,0,2,6,22,11,18,16,4,0
3955,-4,-11,-1,-10,-19,5,2,-1,0
3960,-5,5,-10,-19,-14,-7,-21,-9,0
3965,4,-2,3,19,21,36,39,17,0
3970,3,16,-2,-8,-8,19,3,-7,0
3975,-2,5,13,3,18,-21,-16,7,0
3980,-1,-16,-15,5,-1,-5,43,5,0
3985,-4,-1,-2,-1,5,21,-10,2,0
3990,1,9,-2,-19,-34,-34,-27,-1,0
3995,2,-12,-8,-10,-1,3,-11,-2,0
4000,-9,-6,5,18,15,14,-11,-5,0
4005,-5,1,-8,-22,-31,-10,14,-3,0
4010,2,10,0,8,10,-31,-2,0,0
4015,-5,-11,-3,-2,-18,17,-14,-1,0
4020,2,4,7,9,25,-21,-11,-3,0
4025,3,6,1,-10,-27,-27,-21,-1,0
4030,1,-1,-5,1,16,0,37,23,0
4035,-2,-11,-1,-2,-5,6,-25,-4,0
4040,2,9,5,11,9,22,12,5,0
4045,-4,-2,0,5,11,5,-26,-30,0
4050,-1,-1,-5,-8,-8,-5,-9,-2,0
4055,0,1,4,5,-3,-10,-16,3,0
4060,2,2,-1,1,4,10,28,13,0
4065,-2,-7,-6,-7,-3,-15,-5,-9,0
4070,2,1,-3,-4,3,10,-8,-5,0
4075,-2,7,10,15,12,-6,-10,-12,0
4080,-4,-5,-4,-10,-16,-7,-30,-45,0
4085,0,-2,-2,1,-3,-8,-16,15,0
4090,-4,-1,0,-2,-1,3,-8,-15,0
4095,-1,1,0,1,4,-1,11,0,0
4100,1,7,9,3,0,-10,-10,-2,0
4105,1,-7,-15,-18,-12,5,14,5,0
4110,0,-3,-4,-4,-1,7,4,-5,0
4115,-2,0,-1,-3,-5,-13,1,6,0
4120,1,2,6,4,-1,-9,-1,9,0
4125,0,21,40,20,21,23,7,7,0
4130,2,-3,3,5,0,3,-1,8,0
4135,-2,-13,-61,-23,-15,-41,4,3,0
4140,1,0,33,7,-5,19,-2,5,0
4145,-7,-13,-32,-18,-5,-7,0,-1,0
4150,4,15,28,8,6,-1,-8,-10,0
4155,-12,-6,0,13,27,24,29,7,0
4160,9,27,-12,-15,-36,-22,-12,3,0
4165,-12,-37,-31,-17,-8,-5,0,1,0
4170,-2,-11,23,-5,-9,-1,0,-3,0
4175,-3,-3,5,8,2,-10,-8,0,0
4180,1,2,-9,-3,7,7,8,7,0
4185,8,19,17,16,11,23,11,3,0
4190,-13,-2,-4,2,-1,-26,-11,2,0
4195,-2,18,75,23,9,18,18,-9,0
4200,-10,-28,-78,-25,-2,24,8,-2,0
4205,-12,23,10,9,-2,-8,8,-3,0
4210,-19,-36,-30,-18,10,17,-1,0,0
4215,48,18,13,-5,-10,-5,-1,12,0
4220,0,3,17,8,3,4,4,-2,0
4225,-31,-10,-8,2,-3,-34,-6,14,0
4230,21,18,17,9,0,19,-3,-11,0
4235,-19,9,-13,-7,-3,10,-2,13,0
4240,-51,-15,9,-4,-6,5,7,-19,0
4245,102,15,4,8,17,18,28,13,0
4250,-11,6,9,0,4,-3,-12,-6,0
4255,-10,-16,-17,-4,-7,-22,-19,13,0
4260,8,-1,-9,-3,-3,-25,-19,7,0
4265,-34,5,17,3,-17,-39,-4,-8,0
4270,9,1,-20,-6,18,21,-23,21,0
4275,-3,-14,-12,-6,-3,47,44,-20,0
4280,5,6,11,8,13,-34,-39,8,0
4285,-8,-6,-6,-2,-5,-20,-18,0,0
4290,-4,2,25,5,-11,-9,22,2,0
4295,-8,-9,-47,-1,8,12,6,-7,0
4300,12,-21,-6,-12,-18,5,24,13,0
4305,13,14,-5,-3,0,-14,-29,-32,0
4310,5,-2,-7,-5,-9,-9,-18,16,0
4315,-2,3,17,3,-3,-23,22,4,0
4320,7,3,0,6,8,36,17,-1,0
4325,7,3,32,17,7,-1,-5,0,0
4330,-1,-4,-46,-10,13,-1,13,-4,0
4335,-2,0,-1,-9,-23,-9,-19,-9,0
4340,8,-1,-2,-6,-8,-39,-22,2,0
4345,-14,-9,6,-4,-1,32,14,-2,0
4350,-2,11,12,13,12,5,-5,-8,0
4355,-2,-6,7,8,4,-8,-5,3,0
4360,3,-1,2,-5,-3,-2,9,-2,0
4365,-6,-2,-7,0,11,8,-11,4,0
4370,-2,-2,-11,-12,-13,-6,10,-8,0
4375,6,1,-3,1,-2,-12,-19,-5,0
4380,-4,1,12,25,15,13,7,0,0
4385,-3,-3,-9,-18,-10,11,7,4,0
4390,3,2,-5,-2,-9,-12,-4,-1,0
4395,-6,-3,8,-11,-10,-7,-11,-3,0
4400,-4,-3,-11,-1,4,4,-5,-2,0
4405,-5,-4,-6,4,2,8,7,3,0
4410,-3,3,0,3,-5,-5,5,-5,0
4415,-1,2,6,6,12,5,-7,-2,0
4420,0,-2,1,-4,-7,-4,5,0,0
4425,0,-4,-8,-2,0,2,1,0,0
4430,-4,-3,1,-1,-7,2,4,-4,0
4435,1,0,-2,0,2,-2,-5,4,0
4440,2,1,-1,-1,2,-6,-10,0,0
4445,-4,-3,0,-1,1,8,4,-2,0
4450,-1,5,4,2,1,6,1,-3,0
4455,-4,-7,-1,-7,-5,-5,-7,-5,0
4460,1,2,12,-3,-1,-5,-3,-2,0
4465,-1,-7,-20,1,3,6,0,7,0
4470,-4,3,-4,-1,-5,-6,2,-4,0
4475,12,7,-5,-5,-2,-4,-5,-1,0
4480,-2,1,3,-2,-1,2,-1,-2,0
4485,-1,0,5,4,6,5,0,-3,0
4490,1,-2,-5,-3,3,-3,2,2,0
4495,-2,-2,4,8,2,3,2,-1,0
4500,2,-7,-10,-13,-4,-2,4,1,0
4505,-3,0,-3,-9,-9,1,4,1,0
4510,-2,-3,-5,-5,-4,-3,3,-2,0
4515,-3,1,4,2,4,4,0,1,0
4520,1,4,0,9,4,-1,0,-1,0
4525,-2,-3,-1,3,3,4,8,-1,0
4530,0,-1,2,0,-1,-3,-1,-2,0
4535,-3,-4,-4,5,2,-9,-10,-3,0
4540,-3,-4,-7,-7,1,7,13,-2,0
4545,0,-1,-4,-2,0,-2,-2,2,0
4550,2,4,9,31,36,5,1,0,0
4555,-3,-9,-18,-40,-39,-15,-2,3,0
4560,-5,-7,-19,-10,-11,-17,-8,-3,0
4565,-2,-3,-7,-23,-21,-4,-1,-1,0
4570,-1,3,-3,-8,-10,-2,3,0,0
4575,-3,1,7,22,17,0,-6,-4,0
4580,1,10,32,28,13,1,-1,2,0
4585,3,1,2,50,66,33,15,4,0
4590,-5,-14,-22,-41,-26,-8,-5,-5,0
4595,0,0,-7,-2,-25,9,10,-2,0
4600,-2,-6,-6,-41,-25,-11,-6,-7,0
4605,-2,2,3,-4,-12,-5,-8,-8,0
4610,3,8,27,34,34,18,7,2,0
4615,1,2,22,16,27,-2,2,0,0
4620,0,-3,-8,-9,-25,7,7,4,0
4625,-1,1,3,12,13,6,-5,-1,0
4630,-1,-7,-20,-45,-33,-20,-15,0,0
4635,-1,1,11,5,-1,1,-2,0,0
4640,6,18,38,54,25,5,-3,3,0
4645,-1,-10,-27,-49,-54,-10,2,3,0
4650,-8,-7,-12,-22,-38,5,-2,-5,0
4655,0,1,1,-5,-5,15,7,3,0
4660,2,0,4,34,30,2,-3,1,0
4665,5,10,27,49,25,19,7,2,0
4670,3,10,16,13,25,-33,-11,0,0
4675,-1,-1,20,1,6,-2,-6,-3,0
4680,-6,-11,-15,-17,-2,-2,-2,1,0
4685,6,9,-13,-11,-8,-19,-7,1,0
4690,-2,-1,7,19,21,9,-3,1,0
4695,1,4,6,10,9,4,24,3,0
4700,-3,-6,-12,-22,-18,-16,2,-2,0
4705,-6,-4,0,-29,-18,-8,22,-3,0
4710,0,1,1,-2,3,20,26,-2,0
4715,-2,-4,-13,-22,-12,2,8,-2,0
4720,-1,0,-2,-4,6,6,-4,-5,0
4725,-1,-1,10,17,22,-11,-14,1,0
4730,-3,-5,-10,-9,-8,-8,-20,-1,0
4735,-4,-8,-14,-11,-21,-21,-28,-4,0
4740,-2,-4,-10,-24,-15,-18,-27,-3,0
4745,-3,-7,-14,-21,-21,-11,-13,-4,0
4750,3,1,7,21,20,-1,-2,-3,0
4755,1,4,-3,13,29,9,5,1,0
4760,1,1,-2,-3,-4,-13,-14,-1,0
4765,2,5,23,52,69,13,2,0,0
4770,1,-4,-16,-41,-55,0,7,3,0
4775,-6,-9,-16,-20,-37,-21,-14,-7,0
4780,2,1,5,22,5,13,8,-2,0
4785,-1,-1,-2,-15,-14,-11,-10,0,0
4790,2,2,-3,18,7,6,3,1,0
4795,3,7,15,38,45,11,-5,1,0
4800,-1,-1,-5,-30,-15,8,9,3,0
4805,-3,-8,-10,-10,-18,-3,-9,-6,0
4810,3,6,11,57,32,6,4,6,0
4815,-5,-11,-40,-70,-85,-19,-8,-4,0
4820,-2,4,11,2,-18,-1,3,-1,0
4825,1,3,7,22,8,11,7,1,0
4830,0,-4,6,4,71,5,2,-3,0
4835,-1,-4,-9,5,-54,-1,8,4,0
4840,-4,-8,-24,-89,-65,-16,2,-4,0
4845,1,4,17,21,-27,-5,1,1,0
4850,-6,-4,-3,-5,14,0,-8,-6,0
4855,4,6,21,61,127,37,24,3,0
4860,-1,-4,-12,-6,-30,6,11,2,0
4865,0,1,4,29,85,0,-6,1,0
4870,0,-4,-15,-51,-112,-10,-1,1,0
4875,-9,-11,-23,-49,-77,-31,-17,-7,0
4880,0,3,13,57,94,14,-5,-5,0
4885,-1,4,15,3,34,18,10,-1,0
4890,0,3,0,5,-2,10,2,1,0
4895,12,18,47,90,116,31,15,16,0
4900,1,-4,-26,-78,-85,1,-3,0,0
4905,-14,-23,-63,-101,-128,-64,-20,-15,0
4910,-11,-17,-26,-32,-42,-29,-21,-16,0
4915,-4,0,13,11,30,7,1,-3,0
4920,5,7,18,78,81,26,10,5,0
4925,6,5,17,29,24,12,5,10,0
4930,4,3,30,68,57,18,11,4,0
4935,0,12,23,3,-35,-12,-12,-2,0
4940,-9,-18,-79,-69,-65,-28,-13,-5,0
4945,-9,-23,-49,-63,-90,-31,-19,-6,0
4950,0,0,3,14,5,2,2,-1,0
4955,0,14,46,42,34,18,2,4,0
4960,-13,-17,3,8,23,1,-6,-2,0
4965,-5,21,28,-5,-8,-3,-3,-6,0
4970,11,-2,10,18,10,1,-1,-1,0
4975,-20,-10,-21,-22,-24,-5,1,0,0
4980,3,32,66,26,28,-4,2,-3,0
4985,-12,-62,-87,-51,7,3,3,0,0
4990,-4,7,27,4,-29,-8,2,3,0
4995,1,-18,-32,-51,-30,-15,-8,-2,0
5000,-26,11,32,37,22,-3,4,8,0
5005,16,5,-19,-11,-8,5,-3,-7,0
5010,-27,7,-3,-13,-5,0,1,2,0
5015,32,-8,-19,-22,3,6,3,1,0
5020,-13,15,58,101,87,29,13,4,0
5025,38,2,9,-60,-75,-17,-3,7,0
5030,-14,-11,-33,-37,-47,-17,-5,-6,0
5035,-5,16,-11,-24,-26,-15,-11,-7,0
5040,15,-8,3,25,28,16,12,3,0
5045,-4,36,48,55,57,27,10,0,0
5050,7,-4,-12,-18,-3,-3,-3,-3,0
5055,-3,1,6,12,13,8,2,-1,0
5060,18,-5,-6,12,19,-1,-1,-2,0
5065,-12,-14,-11,-26,-43,-8,-6,-1,0
5070,0,-3,-3,-16,-8,0,13,3,0
5075,-1,-1,-12,-2,-5,5,7,-1,0
5080,3,-5,-11,-13,-14,-7,-3,-6,0
5085,-5,11,19,31,34,15,18,-12,0
5090,5,5,6,16,20,7,-5,3,0
5095,-2,-4,2,-6,-3,-12,-7,-6,0
5100,5,-4,-23,-26,-27,-10,-8,7,0
5105,-9,5,17,28,26,-3,-20,-14,0
5110,6,-4,-3,-7,3,5,5,-6,0
5115,-6,-8,-10,-4,0,5,1,-6,0
5120,-2,-3,-8,-17,-17,-9,-11,-2,0
5125,-1,3,10,23,23,7,0,7,0
5130,5,-1,1,2,24,6,1,5,0
5135,-2,3,-2,-9,-24,-14,2,-3,0
5140,1,-1,-10,-17,-25,3,1,-6,0
5145,-1,-1,10,12,9,-2,-5,3,0
5150,0,-1,-7,-6,-9,-5,-5,-4,0
5155,-2,0,0,4,3,-2,9,-14,0
5160,4,-3,-4,-9,-6,8,1,11,0
5165,0,-3,5,10,13,-2,-1,6,0
5170,1,2,3,3,1,-2,0,0,0
5175,-2,0,-2,0,-1,-3,-7,3,0
5180,-6,-4,-6,-7,-14,-21,-34,-30,0
5185,-2,2,2,5,7,20,21,6,0
5190,0,2,3,3,1,-3,-3,1,0
5195,0,-1,5,6,10,2,-4,4,0
5200,2,-1,-8,-3,-4,-2,2,3,0
5205,-2,-2,-4,-1,9,4,-2,4,0
5210,1,0,3,-4,-18,-1,-12,-6,0
5215,-3,-8,-15,-14,-18,-19,-18,4,0
5220,1,-2,-4,-8,-9,-5,8,2,0
5225,0,3,7,8,1,-3,-2,1,0
5230,-1,-1,-4,-8,-1,-3,9,6,0
5235,2,7,15,24,6,11,-3,2,0
5240,1,3,7,27,43,4,-5,1,0
5245,-5,-8,-21,-39,-42,-12,-4,-1,0
5250,-1,-3,-2,-6,-15,-8,-1,-1,0
5255,-3,0,3,3,10,8,-6,0,0
5260,-2,0,-2,-9,-17,-8,0,-3,0
5265,4,7,24,38,40,14,10,5,0
5270,-1,-1,-6,-13,0,5,-2,-3,0
5275,-2,-10,-23,-28,-15,-8,1,4,0
5280,0,0,-1,4,9,1,6,3,0
5285,0,3,11,14,-6,10,8,-3,0
5290,-2,0,4,6,6,2,0,1,0
5295,-4,-6,-11,-21,-31,-17,-7,-4,0
5300,-1,-8,-12,-18,-37,-17,-9,-2,0
5305,2,2,3,0,-4,-1,3,3,0
5310,-1,1,1,2,2,-3,3,2,0
5315,-4,-10,-22,-43,-51,-25,-7,-4,0
5320,-2,-2,-1,11,28,-5,0,-2,0
5325,2,3,13,17,10,9,6,0,0
5330,3,0,-3,-2,-2,4,5,4,0
5335,-4,-3,-2,-5,1,-3,-8,-7,0
5340,-1,-3,-5,-3,-13,-13,-1,1,0
5345,-1,-1,2,-1,13,2,-1,-1,0
5350,-2,-2,-3,-2,-9,0,-4,-2,0
5355,0,2,8,4,2,3,1,2,0
5360,2,5,7,31,30,16,-2,-2,0
5365,-3,-4,-6,-29,-28,-18,-4,-3,0
5370,-2,-3,-4,-5,-22,-5,1,2,0
5375,-4,-3,-9,-14,-9,-7,-10,-2,0
5380,0,5,11,15,9,2,0,2,0
5385,2,0,5,21,44,15,2,2,0
5390,-1,-4,-17,-33,-27,-6,-5,-3,0
5395,-4,-3,-5,-14,-41,-16,-4,-2,0
5400,-1,-1,-3,-5,3,6,2,0,0
5405,-3,1,3,13,12,3,-3,-1,0
5410,2,3,11,8,28,7,-4,1,0
5415,3,4,5,15,7,9,2,1,0
5420,-4,-8,-11,-22,-21,-13,-8,-2,0
5425,-1,4,21,0,-15,-5,-4,-3,0
5430,-1,-8,-25,8,21,2,-2,0,0
5435,3,3,5,-11,-1,-1,0,2,0
5440,-1,2,-6,0,-2,-1,-2,0,0
5445,3,2,7,25,33,0,1,2,0
5450,-1,3,6,-16,-18,6,7,1,0
5455,-3,-3,-1,0,-5,-10,-6,-5,0
5460,-1,-3,-8,-10,-3,10,9,2,0
5465,-4,-4,-2,-4,-14,1,-2,-4,0
5470,4,8,20,20,17,9,11,3,0
5475,-1,-5,-15,-9,3,3,4,2,0
5480,-5,-4,-5,-18,-26,-15,-3,-4,0
5485,1,0,-7,-21,2,-2,13,7,0
5490,-4,-4,-3,15,-14,6,7,-5,0
5495,-1,3,9,15,5,-9,4,-3,0
5500,-1,1,6,-1,2,-1,-4,-1,0
5505,0,-4,-12,-6,12,5,-2,-2,0
5510,-2,-2,4,3,-22,-12,-16,0,0
5515,2,3,9,15,37,17,5,2,0
5520,3,4,13,31,7,1,-1,3,0
5525,-4,-5,-10,-2,-21,-2,-3,-3,0
5530,-1,-5,-8,-22,-5,-4,-5,-3,0
5535,0,-2,-4,-8,-16,-3,3,2,0
5540,4,6,17,33,34,8,6,1,0
5545,-1,-5,-11,-24,-31,-3,0,-1,0
5550,-2,0,7,12,8,-5,2,0,0
5555,-2,0,-17,-10,-4,5,-2,-1,0
5560,1,1,-1,-3,10,9,1,-1,0
5565,2,2,2,10,4,3,-1,2,0
5570,0,1,0,2,3,-2,-1,-1,0
5575,-1,1,9,5,8,6,3,-2,0
5580,0,5,32,23,7,0,-1,2,0
5585,-1,-3,-36,-16,13,-3,-4,-2,0
5590,-3,-9,-28,-31,-41,-18,-7,-1,0
5595,-3,-2,1,-6,-11,-10,-9,-3,0
5600,-2,-4,-2,-13,-8,-3,-6,-3,0
5605,0,5,20,13,5,4,0,-2,0
5610,1,2,20,15,19,2,-2,0,0
5615,-2,-7,-22,-14,-12,-5,-3,2,0
5620,-2,-4,-8,-10,-9,-7,-3,-2,0
5625,0,2,-2,7,-1,-6,-5,-1,0
5630,-1,3,2,13,20,9,3,1,0
5635,2,-1,5,12,9,1,3,-1,0
5640,-2,-3,-9,-31,-26,-9,-6,-3,0
5645,-3,-4,0,3,-4,-4,-1,-2,0
5650,0,-3,-8,-12,-13,-4,-6,0,0
5655,-2,-3,4,2,4,3,0,-2,0
5660,-1,1,-2,14,35,7,-2,1,0
5665,0,1,-10,-17,-33,0,2,-1,0
5670,-2,-1,2,5,5,-7,-6,-2,0
5675,0,1,1,11,8,6,-1,1,0
5680,-2,-6,-11,-21,-21,-6,-3,-1,0
5685,-2,4,13,6,8,4,-2,-2,0
5690,0,2,17,13,10,1,2,1,0
5695,2,3,-4,20,19,7,-1,0,0
5700,0,3,-3,-7,-3,0,-1,0,0
5705,1,-9,-10,-31,-29,-17,-9,-1,0
5710,1,9,3,8,13,11,11,-5,0
5715,-4,-9,-2,-14,8,0,3,-1,0
5720,4,10,-3,19,18,-1,-3,0,0
5725,1,-2,8,0,-12,-3,-3,0,0
5730,-1,-1,-3,-13,-28,-10,-1,0,0
5735,-1,-3,3,0,-10,-4,-2,-2,0
5740,-2,-11,-12,-15,12,3,2,0,0
5745,8,18,-14,10,12,-1,1,1,0
5750,7,-10,10,4,4,4,-3,0,0
5755,-9,10,5,14,12,5,9,-1,0
5760,-6,-6,-14,-26,-31,-5,-2,-4,0
5765,-3,-4,-5,-3,4,-2,0,-1,0
5770,-2,-1,1,13,18,0,-5,-1,0
5775,6,0,-1,-7,-25,-3,1,0,0
5780,-2,-6,-2,-23,-14,-2,7,-4,0
5785,-9,-9,-1,9,26,6,0,-5,0
5790,-1,7,-4,2,-18,-3,1,1,0
5795,2,-6,-2,-6,-8,-6,-7,-2,0
5800,0,2,4,14,10,2,0,-2,0
5805,0,-1,13,26,19,12,4,6,0
5810,-4,-6,-16,-33,-17,-9,-10,-2,0
5815,-1,2,0,-4,-1,-3,0,-2,0
5820,0,-3,-4,4,-2,7,4,1,0
5825,-1,3,6,5,1,-2,-1,-2,0
5830,0,2,6,18,10,-1,-2,-2,0
5835,-3,-4,-6,-7,-6,-2,10,1,0
5840,2,7,23,37,31,-4,-25,-5,0
5845,1,-9,-19,-38,-24,10,42,7,0
5850,-4,-6,-23,-31,-33,-14,-9,-3,0
5855,0,1,8,14,37,5,-1,-2,0
5860,-2,-3,5,2,-28,-2,0,1,0
5865,-1,1,1,15,9,-7,-12,-2,0
5870,-2,0,-6,-5,10,3,-3,-1,0
5875,0,-1,-4,-4,-9,1,3,-4,0
5880,0,0,5,5,11,-3,-4,0,0
5885,-2,-2,0,-11,-27,2,11,-1,0
5890,-3,-3,-9,-13,-11,-2,5,-2,0
5895,0,1,4,2,1,-4,-11,0,0
5900,-1,-2,-6,-6,-1,-2,1,0,0
5905,-3,-4,3,6,-4,-5,-10,-1,0
5910,0,2,9,15,14,10,2,-1,0
5915,4,3,5,-12,9,8,5,3,0
5920,1,-3,-10,0,-7,1,13,-2,0
5925,-3,-3,-1,-2,-6,-11,-14,-5,0
5930,-1,1,2,3,9,3,0,1,0
5935,-1,1,2,-15,-19,2,-1,-1,0
5940,-1,0,-8,-3,-6,-11,-6,0,0
5945,0,0,4,3,6,-4,-11,-2,0
5950,1,1,10,19,18,2,-3,0,0
5955,0,-4,-6,-14,-12,-10,-9,-1,0
5960,-1,-1,-9,-10,-6,-7,-8,-1,0
5965,-1,-1,1,-5,3,6,-3,-3,0
5970,3,1,7,15,7,-5,-7,2,0
5975,3,4,7,27,26,38,13,3,0
5980,-1,-3,-6,-26,-10,-19,11,2,0
5985,-1,-2,-5,-11,-16,-26,-20,-2,0
5990,-1,-3,-5,-11,-15,-4,2,-1,0
5995,-1,-1,-2,2,-8,-14,-11,-2,0
6000,2,1,5,14,13,13,1,-1,0
6005,2,2,7,6,10,10,2,1,0
6010,0,2,3,1,14,2,9,0,0
6015,-5,-6,-11,-14,-26,-6,-1,-4,0
6020,-1,-2,-4,-6,-22,-13,-7,-3,0
6025,-1,1,1,-10,-2,-3,2,-2,0
6030,-1,-1,-1,4,2,3,-1,-1,0
6035,0,1,4,4,12,-2,-5,0,0
6040,-1,-1,2,3,5,13,4,1,0
6045,-1,-3,-3,8,15,-5,-6,-1,0
6050,-3,0,0,-6,-18,3,2,-3,0
6055,-1,0,-1,1,0,-10,-4,-1,0
6060,-1,-1,-2,-6,-4,4,2,1,0
6065,1,2,7,12,12,4,2,0,0
6070,-1,-3,-6,-8,0,3,4,-1,0
6075,-2,-4,-5,-12,-9,-9,0,-1,0
6080,0,0,-2,3,-2,2,3,-1,0
6085,0,2,1,-1,6,9,10,1,0
6090,1,0,0,2,-3,-2,1,1,0
6095,-2,0,2,6,4,1,-2,-3,0
6100,0,0,0,-8,-1,-3,-4,0,0
6105,-2,-4,-2,-1,-12,-2,0,-2,0
6110,0,-1,4,21,28,4,-1,1,0
6115,-2,-4,-7,-24,-31,-9,-4,-3,0
6120,-3,-2,-7,-14,-13,-1,-1,-2,0
6125,1,0,1,3,0,0,1,1,0
6130,-1,1,1,7,4,3,2,0,0
6135,1,1,3,11,18,5,-2,-1,0
6140,-1,-2,4,16,15,7,2,-2,0
6145,0,-4,-9,-23,-16,-3,-1,-2,0
6150,-1,0,-3,-7,-11,-2,-2,0,0
6155,0,1,1,6,6,-5,-2,0,0
6160,-1,1,1,-1,-8,2,3,-2,0
6165,-1,0,2,13,7,0,-1,0,0
6170,0,-3,-4,-5,5,-1,-2,-1,0
6175,-1,-3,0,-12,-5,-1,2,-1,0
6180,0,0,0,22,7,0,-3,-2,0
6185,-3,-4,-10,-23,-2,-4,-5,-2,0
6190,-2,-5,-7,-24,-37,-8,-5,-4,0
6195,-3,-1,-1,-1,-6,-8,-5,-2,0
6200,1,2,4,11,15,5,-1,2,0
6205,0,4,9,26,19,6,0,1,0
6210,-2,-1,-3,-6,5,0,-1,-2,0
6215,-2,0,-2,-4,-11,-7,-7,-1,0
6220,-2,-1,-3,-8,-9,-4,-1,-1,0
6225,-1,2,1,8,-2,-3,0,1,0
6230,-1,0,5,9,20,1,0,0,0
6235,1,0,1,3,2,4,2,0,0
6240,0,-5,-11,-20,-14,-8,-2,0,0
6245,-2,-4,-4,-15,-18,-1,-3,-4,0
6250,-1,-3,-3,2,-1,0,3,0,0
6255,-1,2,1,-8,0,1,2,1,0
6260,-2,1,3,14,10,1,0,0,0
6265,0,1,4,9,4,-1,0,0,0
6270,-1,-1,2,9,29,5,0,-2,0
6275,0,-3,-7,-6,-17,-4,-2,-2,0
6280,-2,0,-1,-9,-15,-2,-3,-3,0
6285,-1,-1,-1,-3,-4,-8,-7,-1,0
6290,0,-1,-2,-5,-1,7,12,1,0
6295,-1,0,2,11,10,-1,0,1,0
6300,0,-2,-2,-2,11,5,1,1,0
6305,0,-2,-7,-14,-15,-7,-4,-1,0
6310,0,3,2,0,-14,-4,-4,-2,0
6315,1,-2,0,13,15,0,-1,-1,0
6320,-2,-1,0,-8,-9,1,1,-1,0
6325,-3,-1,-4,-18,-6,-2,1,0,0
6330,-3,-4,-8,-4,-20,-8,-6,-3,0
6335,0,1,6,15,14,14,8,2,0
6340,1,1,4,8,5,4,-1,-1,0
6345,-1,-2,-2,-6,-7,-5,0,-1,0
6350,-1,0,0,-10,-9,-7,-5,-2,0
6355,-1,-2,-5,6,-2,-3,-3,-1,0
6360,-1,-2,-3,-12,6,5,5,0,0
6365,0,1,1,7,7,-4,-10,-1,0
6370,-1,-1,-4,-11,-23,-2,7,0,0
6375,-1,0,2,2,6,1,3,0,0
6380,0,1,7,13,4,1,-1,0,0
6385,1,0,4,18,21,7,2,0,0
6390,-3,-2,-4,-12,1,0,-4,-2,0
6395,0,0,-1,3,-2,-2,-4,-2,0
6400,0,-1,-4,-7,-9,-8,-4,0,0
6405,-2,-1,1,-1,-9,-3,-2,-2,0
6410,0,-2,1,8,10,6,2,1,0
6415,-1,-1,-3,-13,-6,-4,-4,-1,0
6420,1,1,4,17,8,-2,-1,-1,0
6425,1,-2,-2,4,10,6,2,-1,0
6430,-2,-4,-6,-12,-9,-6,-3,-1,0
6435,-1,-1,-2,-10,-11,-5,-2,-1,0
6440,-1,0,-1,2,4,-4,1,-1,0
6445,2,2,1,9,16,5,4,3,0
6450,2,4,10,19,10,7,1,3,0
6455,-4,-8,-21,-30,-27,-13,-5,-4,0
6460,-2,-5,-7,-15,-16,-8,-3,0,0
6465,-3,-1,-1,-18,-13,6,5,-1,0
6470,1,2,5,16,9,0,-1,0,0
6475,2,3,10,13,10,-3,-4,1,0
6480,-2,-2,-1,-3,2,4,6,-1,0
6485,-3,-1,-6,0,-4,-1,0,0,0
6490,-1,1,-2,-4,2,-1,-3,0,0
6495,0,1,3,6,5,-2,-2,-1,0
6500,-1,-2,-2,-5,8,13,2,-1,0
6505,-1,2,7,15,-2,12,7,-2,0
6510,0,-1,-1,1,-4,-22,-10,1,0
6515,0,1,3,6,13,1,-4,-1,0
6520,-4,-5,-10,-12,-2,-15,-9,-5,0
6525,-5,-2,-5,-8,-20,3,0,-1,0
6530,-3,-3,-9,-25,-11,0,0,-2,0
6535,-2,-1,1,4,-8,0,0,-1,0
6540,1,2,7,8,4,-2,0,-1,0
6545,1,-1,2,4,11,0,-2,0,0
6550,-1,0,0,6,5,10,8,-1,0
6555,1,1,-1,-2,5,0,2,1,0
6560,-1,1,2,9,8,2,1,1,0
6565,0,-3,-6,-15,-9,-8,-3,-1,0
6570,0,0,2,7,-3,-1,-3,-1,0
6575,0,-3,1,-2,-1,0,2,-1,0
6580,1,-2,-5,-6,-11,-5,0,1,0
6585,1,1,1,1,8,-4,-5,-1,0
6590,0,-2,-1,-5,-5,1,1,-2,0
6595,1,-2,-1,-2,-2,-2,0,0,0
6600,-1,0,-1,-6,-3,5,2,-1,0
6605,0,1,2,1,-2,-2,-4,0,0
6610,-2,0,-2,5,3,7,4,-1,0
6615,0,0,-1,-3,1,-11,-10,1,0
6620,-1,-1,-2,4,-2,-3,-4,-2,0
6625,-2,0,0,0,-3,-2,-1,-1,0
6630,0,-1,-3,-4,-5,-13,-13,-1,0
6635,-1,2,1,1,2,22,23,4,0
6640,-1,1,3,6,2,0,-5,-2,0
6645,-3,0,-2,-1,0,-7,0,-2,0
6650,0,-1,2,4,1,1,0,0,0
6655,-1,-1,-1,-1,0,-6,-9,-1,0
6660,0,-1,-1,-5,-1,-5,-2,0,0
6665,0,-2,2,3,7,10,6,-1,0
6670,-2,-3,1,0,5,1,0,1,0
6675,-1,0,0,-8,-17,-3,-3,0,0
6680,-2,-2,-6,1,12,-5,-1,-2,0
6685,1,0,3,1,-19,-5,-3,-1,0
6690,-1,-2,-1,-3,8,0,-2,-2,0
6695,-4,-4,-6,-9,-3,-9,-7,-4,0
6700,0,-2,-5,-11,-12,5,4,0,0
6705,-2,-1,-2,-2,11,-3,0,1,0
6710,1,2,4,17,1,2,0,0,0
6715,-1,0,2,8,8,4,4,-2,0
6720,1,2,0,-17,-8,-4,-5,0,0
6725,-3,-1,-4,2,-2,-1,-1,-1,0
6730,0,0,-2,-8,-9,-1,1,0,0
6735,2,-1,-2,-1,4,-2,-3,-2,0
6740,0,1,3,4,-1,4,3,-1,0
6745,4,0,0,6,11,-2,-3,1,0
6750,-1,3,3,-1,-13,2,5,1,0
6755,0,-4,-4,-9,-8,-4,0,-1,0
6760,-14,-1,0,3,3,-4,-5,-2,0
6765,23,-1,-4,-10,-9,-1,-2,1,0
6770,-2,-3,-3,-2,2,-2,0,-2,0
6775,-1,4,7,14,10,5,1,1,0
6780,2,0,-2,-17,-11,2,2,2,0
6785,-10,-6,-11,-6,-8,-12,-8,-2,0
6790,0,-2,-1,-6,-8,-5,-5,-2,0
6795,2,-3,-7,-8,-4,0,-1,-1,0
6800,1,3,6,11,8,0,0,0,0
6805,-3,3,6,13,13,7,1,-1,0
6810,1,-1,-1,-3,2,6,4,0,0
6815,-4,-1,-4,4,16,-7,-7,-2,0
6820,1,-4,-4,-1,-25,-5,0,1,0
6825,-5,-3,-2,-17,-8,-2,-3,-3,0
6830,0,0,0,5,6,5,0,-1,0
6835,-1,3,3,3,6,5,12,1,0
6840,1,0,2,4,12,1,3,-2,0
6845,-3,0,5,12,6,2,2,2,0
6850,-2,-2,0,-5,3,-8,-9,-3,0
6855,-2,-3,-5,-11,-11,3,2,-1,0
6860,0,-2,-4,-7,-12,-3,-1,-1,0
6865,-3,0,1,3,-2,0,2,-3,0
6870,-1,-1,0,6,8,-2,-7,-2,0
6875,1,-1,-2,-4,0,0,-1,-1,0
6880,1,0,1,17,8,6,2,2,0
6885,-3,-2,-6,-9,-2,-5,-4,-1,0
6890,-2,-1,-4,-7,1,-1,1,0,0
6895,-1,0,2,12,-4,-2,-6,-1,0
6900,-2,0,1,-15,-1,3,3,2,0
6905,-1,2,4,14,6,5,3,0,0
6910,-2,-4,-8,-14,-9,-6,-4,-3,0
6915,-3,-1,0,-3,-3,-6,-8,-2,0
6920,0,2,5,26,10,3,-1,-1,0
6925,-2,-3,-5,-17,-14,-6,0,0,0
6930,-1,-1,-2,-15,-22,-5,3,-1,0
6935,-3,-3,-2,-1,5,7,1,-1,0
6940,0,0,3,10,10,-3,-6,-3,0
6945,1,1,2,-3,-2,10,10,2,0
6950,0,0,2,17,6,-7,-5,0,0
6955,-3,-2,-6,-16,-16,-4,2,-2,0
6960,-1,-2,-5,-9,0,-1,-3,-3,0
6965,-2,-2,1,8,5,-3,-5,-5,0
6970,1,0,2,-4,7,-1,-8,2,0
6975,2,1,3,3,0,25,30,5,0
6980,0,1,-2,2,3,5,7,-1,0
6985,-1,-1,-3,-6,-3,-7,-10,-2,0
6990,-1,-2,1,-1,-3,1,10,3,0
6995,1,-1,0,6,16,-18,-20,-5,0
7000,-5,-5,-2,-13,-20,-6,-7,-2,0
7005,1,-1,2,1,4,28,25,4,0
7010,-5,-2,-2,0,7,1,1,1,0
7015,1,2,4,7,3,-12,-12,-4,0
7020,-1,-3,2,-7,1,8,10,3,0
7025,-4,0,0,16,2,-11,-18,-6,0
7030,1,-3,-3,-12,-9,-3,-1,0,0
7035,-5,-6,-10,-3,-9,-4,0,-2,0
7040,-2,-1,-6,-20,-10,-4,-5,-3,0
7045,-1,0,-1,7,-1,-6,-8,-2,0
7050,3,2,7,10,10,10,9,2,0
7055,-1,-4,5,16,21,-20,-22,0,0
7060,2,9,-7,-3,-14,5,0,-7,0
7065,3,-1,-2,-17,1,-20,-6,1,0
7070,-2,-2,-9,3,-11,29,19,-4,0
7075,0,2,6,-5,0,-14,-4,2,0
7080,-1,-2,8,6,4,-16,-11,0,0
7085,-3,-6,-7,-3,7,11,-2,2,0
7090,-2,0,-2,-5,-9,-25,-27,-13,0
7095,1,-1,2,-4,-9,30,22,2,0
7100,2,1,-4,-6,2,5,3,1,0
7105,-4,0,1,-2,-11,-22,-11,-2,0
7110,-1,-2,-3,1,7,-5,-4,2,0
7115,-1,-2,-10,0,3,10,3,3,0
7120,1,0,17,21,29,-28,-13,0,0
7125,0,-10,-21,-23,-28,29,11,-1,0
7130,2,6,6,9,9,-7,-1,1,0
7135,-1,0,6,0,-4,13,9,-2,0
7140,-3,-5,-8,-10,-5,22,7,-3,0
7145,1,-4,0,-3,-8,-69,-18,2,0
7150,4,11,-1,-2,8,33,-1,1,0
7155,0,-2,-1,2,-2,10,12,0,0
7160,-10,5,7,8,2,6,-3,-2,0
7165,9,0,2,-5,3,-23,-5,5,0
7170,9,-3,-1,2,1,6,-3,4,0
7175,-11,-2,1,-4,-4,4,0,-3,0
7180,-5,-7,-8,-7,-3,-3,4,0,0
7185,-5,3,6,10,-2,-1,9,-2,0
7190,-4,-3,-2,2,3,-2,0,0,0
7195,3,3,1,-1,-3,-9,-4,0,0
7200,6,-4,-2,1,1,-5,-2,1,0
7205,-2,4,15,7,17,8,-7,-4,0
7210,0,-5,-14,-5,-20,-15,-1,1,0
7215,-4,-3,-8,-17,-18,2,-8,-5,0
7220,0,-2,-1,-4,-5,-13,-7,0,0
7225,-1,0,-5,-14,-6,26,21,0,0
7230,-10,-5,1,4,7,-3,-3,-2,0
7235,4,3,2,0,-2,-13,-7,-2,0
7240,4,0,0,5,4,6,12,5,0
7245,0,1,4,17,16,30,5,-2,0
7250,0,-2,0,-9,-2,3,7,2,0
7255,0,-2,-4,-3,-7,-11,-11,-2,0
7260,3,-2,-2,0,3,6,9,3,0
7265,-1,-1,-4,-5,-6,-14,-9,-2,0
7270,-1,-1,0,1,-3,-3,7,-4,0
7275,0,1,0,-2,-1,-17,-19,-2,0
7280,-1,3,2,7,8,18,10,1,0
7285,0,1,5,24,35,12,-1,-2,0
7290,-2,-4,-5,-18,-33,7,6,0,0
7295,-1,-8,-8,-16,-15,-20,-20,-4,0
7300,3,5,-1,-2,-1,4,31,6,0
7305,-5,-2,-4,-11,-11,12,-5,-6,0
7310,0,-4,-6,-22,-19,-7,-20,-3,0
7315,-2,-3,-3,0,1,3,9,3,0
7320,-3,-1,3,2,0,-21,-20,-4,0
7325,-12,-2,0,1,5,15,21,3,0
7330,-2,-5,-2,1,-4,-42,-50,-10,0
7335,1,8,4,2,1,51,36,4,0
7340,-10,-12,-12,-9,-7,-23,-26,-4,0
7345,-1,1,-2,7,10,16,24,4,0
7350,-5,-3,-4,-4,5,-23,-21,-3,0
7355,0,-2,3,-10,-27,-11,-12,-1,0
7360,-5,0,1,-6,-1,-15,-8,-5,0
7365,5,4,3,12,8,15,14,2,0
7370,-4,-4,-3,2,0,-10,-7,-2,0
7375,4,-1,-2,-2,-2,-21,-10,1,0
7380,-3,3,1,-2,-3,12,2,-3,0
7385,1,-5,0,-5,-7,-12,-18,1,0
7390,-2,-6,-1,4,3,7,7,-2,0
7395,1,5,-6,0,5,17,23,1,0
7400,3,-1,3,10,2,-37,-33,-5,0
7405,1,3,9,-1,8,28,24,5,0
7410,-6,-2,-4,-8,-19,-6,-9,-3,0
7415,-4,-10,-9,-9,11,-11,-7,-2,0
7420,2,-1,0,-8,-20,13,15,2,0
7425,-17,-6,-6,-3,-5,-18,-12,-3,0
7430,18,7,7,12,6,3,4,3,0
7435,-1,1,6,0,9,-6,-13,-1,0
7440,1,1,-4,7,8,-9,-7,1,0
7445,-8,-5,-8,-15,-17,-8,-17,-6,0
7450,-6,0,-3,-3,-9,-3,4,1,0
7455,-3,1,0,5,2,20,7,-7,0
7460,-1,-1,5,3,4,-3,0,1,0
7465,8,3,3,1,5,0,1,2,0
7470,1,4,-3,-1,0,-2,-8,0,0
7475,0,-2,-2,0,-9,-9,-16,-1,0
7480,-4,-1,0,2,5,0,3,0,0
7485,3,2,-2,-5,-6,-1,0,-1,0
7490,-3,-4,-2,-2,2,-4,-3,3,0
7495,-1,7,2,9,2,-18,-24,-1,0
7500,-1,0,-2,-8,-6,4,8,3,0
7505,1,-2,-4,0,2,7,10,0,0
7510,-2,-2,-2,-2,0,5,5,-2,0
7515,-5,-4,-2,-4,-10,-5,2,-4,0
7520,1,1,0,8,16,-2,-17,-2,0
7525,4,0,-1,-3,-10,-4,-11,-1,0
7530,-3,-1,1,0,4,18,21,-2,0
7535,-1,0,1,3,-4,-12,-13,-5,0
7540,1,0,-1,-5,-4,6,19,-4,0
7545,1,-1,-1,-6,4,-3,1,0,0
7550,-4,-5,-10,-13,-13,-4,-15,-9,0
7555,-2,-5,-5,-10,-7,-13,2,0,0
7560,-1,0,1,6,2,17,5,-1,0
7565,1,3,5,12,7,0,8,-3,0
7570,0,1,2,0,5,7,7,0,0
7575,0,-2,-4,1,0,-7,-17,-4,0
7580,0,-1,0,-2,-4,5,11,-1,0
7585,0,-2,-3,-1,-1,-3,-18,-1,0
7590,1,-3,-1,5,2,2,-3,2,0
7595,0,4,0,-2,2,11,30,10,0
7600,-9,-1,-1,-5,-5,-4,-10,-5,0
7605,23,-10,-5,-4,-2,0,9,4,0
7610,-27,20,3,4,1,2,2,-2,0
7615,1,-3,2,-3,-2,2,-6,-3,0
7620,-2,-4,-2,-3,1,0,-3,-2,0
7625,-4,2,1,1,2,-5,-5,0,0
7630,-1,-9,0,1,1,7,6,-1,0
7635,-3,-2,0,-3,-2,-1,1,-8,0
7640,4,3,-1,0,1,-7,-8,-4,0
7645,-12,-1,-1,-1,0,7,16,0,0
7650,6,0,2,1,1,2,4,-1,0
7655,-2,0,-2,-1,-3,1,5,1,0
7660,6,-4,-2,-1,-2,-5,-7,1,0
7665,-5,0,-1,-1,-3,-7,-15,-2,0
7670,1,-4,1,1,-1,6,13,2,0
7675,5,0,-2,-2,-2,-4,0,0,0
7680,-5,-1,0,-1,0,-1,-5,-3,0
7685,-3,0,-1,-1,-1,-3,3,-7,0
7690,4,-2,0,1,1,-3,-3,-8,0
7695,-1,0,1,-1,0,0,-3,-4,0
7700,-1,0,-2,-1,1,-1,3,-1,0
7705,-4,2,0,0,3,0,-2,-2,0
7710,6,-3,0,0,1,1,-1,2,0
7715,0,-1,0,-1,-3,-2,1,2,0
7720,-2,-2,0,-1,3,3,-9,-1,0
7725,-1,0,0,0,-2,0,11,4,0
7730,0,-2,-1,-1,-3,-1,-10,1,0
7735,-2,-3,0,-1,1,3,-4,6,0
7740,1,0,-2,1,0,1,4,2,0
7745,-4,-2,-2,-3,0,-2,-15,-4,0
7750,-1,-1,-2,-2,0,3,15,3,0
7755,1,0,1,1,2,4,-7,3,0
7760,1,-2,0,0,-1,-1,8,3,0
7765,0,0,-2,-1,-1,-1,-7,0,0
7770,0,-2,-2,0,1,-2,-1,0,0
7775,0,-2,-3,-2,-3,-3,0,0,0
7780,-2,0,0,0,-1,0,-1,-2,0
7785,1,-1,-2,0,-3,-4,-1,1,0
7790,0,0,-1,-1,-1,-2,-5,-2,0
7795,-1,-1,-4,-2,-1,-1,3,-1,0
7800,1,-2,-2,-2,-2,-3,-4,-2,0
7805,0,1,1,0,-2,0,13,6,0
7810,-2,-2,0,1,0,1,-11,-3,0
7815,2,-1,-2,1,-2,-3,-7,0,0
7820,-3,-4,-1,1,-1,-1,5,2,0
7825,1,7,0,1,1,5,6,-1,0
7830,-1,-2,0,0,0,3,12,2,0
7835,-1,1,0,0,-1,-3,-2,-2,0
7840,-2,-1,-1,-1,-2,0,0,-2,0
7845,1,-2,0,-2,-3,-1,-2,-2,0
7850,0,-2,-3,0,-1,-3,-10,-3,0
7855,-1,-2,2,-1,-1,6,14,-1,0
7860,0,0,-2,0,1,-1,-1,-1,0
7865,-2,-2,1,-1,0,-1,-3,-2,0
7870,-1,-1,0,0,-2,-2,-2,1,0
7875,-8,-4,-1,-2,-1,-3,-2,-3,0
7880,20,6,1,1,1,0,-4,3,0
7885,-4,-3,-1,-2,1,-1,-6,-2,0
7890,0,2,0,-3,-3,-3,-3,-1,0
7895,1,0,-2,-1,-1,-2,-7,-3,0
7900,-5,1,0,1,-1,3,13,3,0
7905,0,-4,1,0,-1,-2,-4,-1,0
7910,1,-1,0,0,1,-2,0,1,0
7915,-6,-1,-1,-1,0,-2,-6,-3,0
7920,-2,-1,-2,-2,-2,2,16,1,0
7925,3,1,-1,0,1,0,0,-1,0
7930,-2,-2,0,-2,-4,-1,-1,-3,0
7935,3,-3,-2,-2,1,2,2,2,0
7940,1,-4,-2,-2,-2,-2,-11,-4,0
7945,-3,17,2,3,1,3,7,7,0
7950,-4,2,2,1,0,-2,0,0,0
7955,-5,-2,-3,-1,0,1,11,1,0
7960,-29,-1,0,-1,1,-6,-23,-7,0
7965,12,-9,-2,-1,0,-2,-1,2,0
7970,5,-2,-2,-2,0,-2,-2,0,0
7975,-5,3,0,0,-3,-3,6,0,0
7980,12,-3,1,-1,2,-1,4,0,0
7985,-19,-3,0,-1,-2,-2,-4,-4,0
7990,-4,-2,0,0,-1,3,4,0,0
7995,5,-2,0,-2,-2,-3,-2,-1,0
8000,-2,-3,-1,-1,0,-1,-2,-1,0
8005,2,-3,-1,0,-1,-1,-6,-3,0
8010,7,0,-1,-1,-1,-1,5,2,0
8015,-11,-1,-1,0,0,-2,-4,0,0
8020,5,1,-1,1,0,1,0,1,0
8025,3,-1,-1,-2,-2,-1,-4,-4,0
8030,-11,-4,-1,-1,-1,1,-5,-5,0
8035,9,2,1,1,1,3,16,4,0
8040,-1,-1,-1,-2,-2,0,-2,-1,0
8045,0,-3,-2,-1,-1,0,2,-1,0
8050,0,1,-1,-1,2,-2,-4,-2,0
8055,3,1,1,0,-1,-2,-7,-1,0
8060,0,-3,-2,0,-1,-2,-6,-2,0
8065,-6,-1,-1,-1,-2,-1,3,-1,0
8070,0,-1,-1,-1,0,-2,-1,0,0
8075,0,1,0,-3,-2,-4,-3,-3,0
8080,-6,-2,0,-1,-1,-1,4,3,0
8085,3,0,-1,0,0,-2,-2,-1,0
8090,0,-1,-2,-2,-1,-2,-2,-2,0
8095,1,0,-1,-2,-2,0,-4,0,0
8100,0,-1,0,0,-1,-1,-1,-3,0
8105,-2,-3,-2,-2,-1,-1,-2,-1,0
8110,-1,-1,1,0,1,1,0,-1,0
8115,-3,-2,0,-2,-1,-1,-2,-2,0
8120,0,1,-1,-1,-1,-3,-2,0,0
8125,1,0,-1,1,-1,-1,-3,-1,0
8130,-4,-1,-2,-1,-1,0,-3,-2,0
8135,3,0,-1,0,0,0,-7,0,0
8140,-4,-2,-1,-2,0,3,7,-1,0
8145,-1,-1,0,-2,-1,-3,1,-1,0
8150,0,-1,0,0,-1,0,-2,0,0
8155,4,1,-1,0,-1,-1,-7,0,0
8160,-12,-1,0,-2,-2,0,6,-5,0
8165,5,2,-1,1,1,0,4,11,0
8170,-2,1,-2,1,1,1,1,1,0
8175,-1,-2,-1,-1,0,-1,-2,-3,0
8180,-3,-2,0,-1,-2,-4,-7,-1,0
8185,-1,0,0,-3,-2,0,-3,-3,0
8190,1,-1,-1,1,-2,0,0,-2,0
8195,-2,-2,-1,-1,-1,-1,-1,-1,0
8200,5,0,-1,0,0,-2,-4,0,0
8205,-4,-1,-2,0,0,0,4,-2,0
8210,2,0,-1,-1,-1,-1,-3,-2,0
8215,-5,-3,0,0,-2,-1,-4,-1,0
8220,5,1,-1,-1,0,1,1,2,0
8225,-5,-2,-2,-2,-2,-1,-5,-2,0
8230,-3,0,0,-2,0,0,0,-2,0
8235,-1,1,-1,-2,-1,0,-2,-3,0
8240,0,0,-2,-1,0,-3,-3,-1,0
8245,-1,-2,0,-1,0,0,-2,-1,0
8250,0,0,-2,-1,-3,-1,-9,-4,0
8255,-1,1,0,0,-2,-1,4,3,0
8260,1,-1,1,0,1,-1,-4,0,0
8265,-2,-2,0,0,-1,-1,1,-4,0
8270,-2,-2,1,-1,-2,-2,-4,-3,0
8275,3,-1,1,-2,1,-1,-6,-1,0
8280,-1,1,2,0,1,-1,-10,-5,0
8285,0,1,2,0,0,3,10,1,0
8290,0,0,0,2,1,-1,2,1,0
8295,1,-1,-1,1,1,-1,11,1,0
8300,1,-1,1,-1,-2,-3,-2,0,0
8305,0,0,-1,-1,0,-2,-4,-2,0
8310,1,0,-2,0,-1,-1,1,-1,0
8315,-1,1,-1,-1,0,1,-3,-2,0
8320,2,0,-2,0,0,1,4,0,0
8325,-3,-1,-2,0,-2,-3,-8,1,0
8330,-2,0,-2,-4,-1,1,22,-1,0
8335,1,0,-1,-1,-1,-3,-19,2,0
8340,-1,-4,-2,-2,-2,-1,2,3,0
8345,1,-2,-2,0,1,1,-2,-1,0
8350,-2,-2,-2,-1,-1,-1,-4,-1,0
8355,-1,-2,-1,-1,0,-2,5,-2,0
8360,1,0,0,-1,-2,1,5,4,0
8365,0,-1,-2,-1,-2,-2,-1,-1,0
8370,-1,-1,0,-1,-2,-2,-6,1,0
8375,-1,0,0,0,-1,2,4,0,0
8380,0,0,0,0,-2,-1,-3,0,0
8385,-4,0,-1,-2,-2,-1,1,-3,0
8390,-3,-2,0,0,1,-1,-5,1,0
8395,1,-2,-2,0,1,-1,-6,2,0
8400,-2,-1,-2,0,-1,1,0,-1,0
8405,1,-1,0,-2,-1,0,-4,1,0
8410,1,0,-2,-1,0,1,5,2,0
8415,0,0,-1,-1,1,0,4,-1,0
8420,-3,-1,1,-1,1,0,-3,-4,0
8425,-2,0,-1,1,0,0,-3,1,0
8430,2,0,0,0,-1,-2,0,-1,0
8435,-2,-1,-2,-1,-3,-1,5,-2,0
8440,2,0,-2,-2,0,0,-13,-4,0
8445,-1,-2,-2,1,-1,2,6,1,0
8450,-1,0,-1,0,-2,-2,-10,-3,0
8455,-3,-1,-1,0,-2,-3,-7,-3,0
8460,1,0,-1,-2,1,1,6,-1,0
8465,1,-2,0,-1,-1,-2,4,1,0
8470,-1,-1,0,-1,-2,-1,-12,-2,0
8475,2,0,0,1,-1,0,0,1,0
8480,0,1,0,-1,0,-1,-4,0,0
8485,-1,-2,-3,-1,-1,-1,3,-2,0
8490,2,4,-1,1,1,-2,3,-2,0
8495,-1,-1,-2,-2,-1,-1,-2,-1,0
8500,-1,0,-2,-1,-2,0,9,0,0
8505,-3,-2,0,-1,-3,-1,-8,-7,0
8510,1,-2,0,-1,-2,2,7,4,0
8515,-2,-1,1,-1,-1,0,0,-6,0
8520,0,-1,-1,1,-1,0,10,4,0
8525,-1,2,-1,0,1,-2,-19,-8,0
8530,-1,-3,-2,1,-1,-1,-5,0,0
8535,-7,-2,0,-2,-1,-2,-3,-4,0
8540,1,0,0,1,-1,-2,2,-1,0
8545,1,-1,0,0,1,-2,4,3,0
8550,1,-1,-1,-2,0,1,0,2,0
8555,-3,-3,-1,0,-2,0,2,1,0
8560,-2,-2,-1,-1,-1,-1,-5,-2,0
8565,-1,0,0,-2,-1,1,0,-1,0
8570,0,7,1,0,0,0,8,0,0
8575,-9,-16,-4,-2,-1,-2,4,1,0
8580,-6,-8,-1,-1,0,1,-6,-10,0
8585,15,12,1,-1,-3,-2,6,9,0
8590,-11,-9,-2,0,0,-3,-4,-8,0
8595,16,8,3,0,0,-4,-7,-3,0
8600,-60,6,6,-1,-1,-2,-1,0,0
8605,30,-11,0,-1,1,0,1,0,0
8610,-4,6,-12,-4,-4,-5,-10,-4,0
8615,27,-9,-8,3,2,5,17,-1,0
8620,17,12,4,0,0,1,-7,4,0
8625,-22,-24,-9,-3,-1,0,-7,1,0
8630,41,15,9,1,0,-1,16,8,0
8635,-15,1,-5,-2,1,0,-5,-5,0
8640,-29,-24,0,0,0,0,5,6,0
8645,64,32,3,-1,0,1,0,-6,0
8650,-7,-3,3,0,-1,1,0,-3,0
8655,1,-6,-6,-1,-4,-3,3,8,0
8660,-32,1,1,-1,0,-2,-9,-5,0
8665,-45,-2,1,-2,-1,1,5,-14,0
8670,-23,-13,-1,0,1,-1,-3,-9,0
8675,39,69,26,3,0,3,0,8,0
8680,7,-50,-34,-3,1,-2,-5,1,0
8685,-28,-10,5,1,-1,-2,-3,-9,0
8690,20,-3,-13,-5,-5,-3,-5,0,0
8695,-41,-14,13,4,5,6,-2,7,0
8700,60,31,-3,-2,-1,-3,-10,-1,0
8705,2,-32,-17,-4,-2,-1,4,-4,0
8710,1,9,-3,-2,0,-5,1,-11,0
8715,-48,45,27,1,-1,-4,-35,4,0
8720,-50,-57,-28,-4,-1,-2,-11,-10,0
8725,36,-26,-9,-3,-3,-2,16,0,0
8730,-7,4,8,-1,-3,2,18,10,0
8735,-24,1,-7,2,-2,0,26,-7,0
8740,25,55,21,-1,-6,-5,-15,-3,0
8745,-7,-15,-4,4,4,9,50,32,0
8750,-13,-18,-10,-2,1,-2,-21,-14,0
8755,13,-51,-23,-4,0,-11,-38,-11,0
8760,-13,33,8,-3,-1,0,16,-15,0
8765,2,3,16,4,1,-4,-40,-11,0
8770,-3,14,13,4,6,10,25,7,0
8775,8,-35,-15,-4,-2,0,5,14,0
8780,27,-5,2,0,0,0,16,15,0
8785,-32,25,3,-3,-4,-6,-42,-12,0
8790,25,-26,-2,-1,1,1,14,2,0
8795,-17,-8,-8,-3,0,3,11,-2,0
8800,5,3,5,1,0,-2,-6,-1,0
8805,4,12,4,0,0,4,17,10,0
8810,-15,-8,-6,0,-1,-2,-13,5,0
8815,14,8,3,-3,-2,0,16,-4,0
8820,11,1,2,-1,0,4,14,8,0
8825,-6,2,-2,-1,1,-3,-12,-6,0
8830,-3,2,2,-1,-3,-1,-2,6,0
8835,-2,0,-2,-2,-2,-2,-1,-8,0
8840,2,-8,1,2,0,-1,-6,-4,0
8845,-9,2,-4,0,-2,0,-4,1,0
8850,-10,3,2,-1,-1,-1,-11,-5,0
8855,10,0,-2,-2,-1,0,7,1,0
8860,-4,-1,1,1,1,0,-7,-4,0
8865,1,-1,-2,0,-1,-2,-1,-3,0
8870,-1,1,0,0,-1,-2,-1,-3,0
8875,-1,2,1,-2,0,0,1,1,0
8880,-5,-2,-5,-2,-2,-4,-17,-2,0
8885,4,2,-3,-3,-2,1,6,0,0
8890,2,-1,1,0,0,1,3,0,0
8895,-2,-2,-2,-1,1,0,-1,-1,0
8900,-3,1,0,-1,-2,-3,-5,0,0
8905,-2,-1,-2,0,-2,0,0,-1,0
8910,-1,-2,0,-1,0,1,3,1,0
8915,-1,0,-2,-1,2,-3,-9,-2,0
8920,-2,0,0,1,1,0,11,5,0
8925,2,-1,-2,-1,1,0,-2,0,0
8930,0,-3,-3,-2,-1,-3,-13,-4,0
8935,-2,1,-2,-2,0,1,16,-1,0
8940,-1,2,0,-1,1,4,-3,-3,0
8945,0,-2,0,-1,0,-1,2,0,0
8950,1,-2,1,0,-1,-3,-3,2,0
8955,-2,0,0,-1,1,-2,-5,-1,0
8960,0,-1,0,1,0,-1,0,-2,0
8965,0,0,0,-2,-1,2,6,-1,0
8970,-2,1,1,0,-1,-3,-10,-3,0
8975,-1,0,1,1,-2,-2,-4,0,0
8980,-2,-2,0,-1,-1,-1,-3,-2,0
8985,0,-1,2,0,-2,0,3,3,0
8990,0,0,-1,0,-1,1,10,0,0
8995,-3,-1,0,-2,-1,-1,-2,-2,0
9000,-1,0,0,-1,-1,-3,-6,1,0
9005,0,-2,-2,-1,0,0,-5,-5,0
9010,-2,0,0,-1,-1,0,4,-2,0
9015,-1,1,0,-1,0,-1,-2,-1,0
9020,0,-1,-1,-2,-3,-1,-1,-2,0
9025,0,-1,0,0,0,-1,4,-1,0
9030,1,0,-1,-1,0,0,-1,0,0
9035,-1,1,-1,0,-1,1,8,2,0
9040,-1,0,0,1,-1,0,-2,-2,0
9045,-1,-1,-1,0,-1,-1,3,-4,0
9050,2,-1,1,-1,-1,1,-5,1,0
9055,0,0,-1,0,-1,-2,0,5,0
9060,-1,0,0,-2,1,0,5,-3,0
9065,2,1,0,2,0,0,-2,-1,0
9070,-1,-2,-2,1,-1,1,4,-2,0
9075,-2,-1,-1,-1,-4,-1,-2,-2,0
9080,-2,-2,0,0,0,-2,-3,-1,0
9085,-1,0,-1,0,0,-3,-6,-1,0
9090,-1,2,-1,-1,1,-2,2,0,0
9095,-2,0,0,-1,-1,-2,-2,-1,0
9100,-2,-1,0,0,-1,-2,1,3,0
9105,-2,0,0,-2,-1,-3,-1,0,0
9110,0,0,-1,1,-1,1,1,-2,0
9115,-1,-3,0,0,-2,0,-4,0,0
9120,1,1,2,-1,-1,0,1,0,0
9125,-2,-1,0,0,-1,-1,-3,1,0
9130,-1,-2,-1,-2,-1,-2,-3,0,0
9135,-1,-1,-1,-1,0,0,-7,-2,0
9140,-1,-2,0,-1,-1,-1,-5,-8,0
9145,2,-1,-2,0,2,1,1,4,0
9150,1,1,-3,1,-1,0,1,1,0
9155,1,0,-1,0,2,0,0,0,0
9160,-1,0,0,-2,0,2,9,0,0
9165,0,-2,1,0,-2,-1,-5,-5,0
9170,-3,-1,0,0,-1,0,4,-2,0
9175,-1,-2,-1,-2,-1,-1,-10,0,0
9180,-2,1,-1,0,-1,-1,-4,1,0
9185,-1,0,-2,0,0,0,7,-2,0
9190,0,-1,0,0,-1,-1,-1,0,0
9195,0,-1,-2,-1,-1,0,13,1,0
9200,-1,-2,0,0,0,-2,-5,1,0
9205,-2,-1,-3,-2,-1,-2,-5,-3,0
9210,1,0,-2,-1,0,-1,-6,-2,0
9215,-1,-3,0,0,-2,-1,0,-2,0
9220,0,0,-2,1,-1,0,-8,-2,0
9225,1,0,-1,1,-1,1,9,5,0
9230,-1,-2,0,-1,-1,-2,-3,-3,0
9235,-1,0,-3,0,-1,0,-2,1,0
9240,-1,-2,0,-1,0,-2,-2,0,0
9245,-1,-2,-1,-1,-1,0,2,-3,0
9250,-2,-1,-2,-1,0,-1,-12,-2,0
9255,0,1,1,0,0,0,-3,0,0
9260,-2,-2,0,0,2,0,4,-1,0
9265,-1,1,-1,0,-1,0,3,1,0
9270,-1,0,0,-1,-1,-2,2,1,0
9275,-2,-1,-2,-2,1,-1,1,1,0
9280,-1,-1,-1,-1,0,1,14,3,0
9285,-2,-2,0,-1,0,-2,-9,-3,0
9290,-1,-1,-3,-2,0,1,3,1,0
9295,-2,0,0,-2,-2,-2,-9,-2,0
9300,0,-1,0,-1,-1,0,3,0,0
9305,-1,0,0,-1,-2,-2,-2,-3,0
9310,0,-1,0,-1,-2,-4,-9,2,0
9315,-1,1,-1,0,1,0,3,0,0
9320,0,-1,-1,0,-2,-1,-4,0,0
9325,-1,0,0,1,-1,-2,-7,0,0
9330,-1,-1,-2,0,0,0,-2,-1,0
9335,0,0,-1,0,-1,0,3,-1,0
9340,0,0,-1,-1,0,-1,2,2,0
9345,1,0,0,0,0,-1,-8,1,0
9350,0,1,0,-1,-1,0,6,0,0
9355,-1,-2,0,0,-2,-3,-3,-1,0
9360,-1,0,-2,-1,-1,-1,-2,0,0
9365,-2,-3,1,-2,-2,0,-2,-2,0
9370,0,-1,0,-1,1,1,5,2,0
9375,-2,0,2,-1,0,-2,-3,0,0
9380,0,-1,0,0,-2,2,-1,-1,0
9385,-1,-1,-1,-1,-1,1,0,-3,0
9390,-3,0,-2,0,-1,-1,-6,-2,0
9395,-1,0,1,0,0,-1,-1,-2,0
9400,0,-2,-1,0,-1,0,-3,1,0
9405,-2,0,-2,-1,-1,2,8,0,0
9410,-1,-1,-2,1,0,0,-2,-2,0
9415,0,0,-1,-2,-2,1,-1,0,0
9420,-3,1,0,-2,1,-1,-1,0,0
9425,0,-2,-3,-1,-2,-2,-3,-1,0
9430,-1,0,0,0,1,-1,0,-2,0
9435,0,-2,0,0,0,0,1,-1,0
9440,-2,-1,-1,0,1,-1,-1,-2,0
9445,0,-1,-1,0,-1,0,-2,-2,0
9450,-1,-1,0,-2,1,0,1,-1,0
9455,-1,-2,-3,0,-2,-2,-2,0,0
9460,-1,-1,-2,-1,-2,0,-2,-1,0
9465,-1,0,-1,-3,-2,0,-3,0,0
9470,1,0,-1,-2,-1,1,1,-2,0
9475,-2,-1,2,0,-1,0,0,-1,0
9480,0,-1,0,1,-1,0,-3,0,0
9485,-1,0,0,0,-1,-1,0,-1,0
9490,-1,-1,-1,0,-2,-1,1,0,0
9495,-1,0,-2,-1,0,0,1,-2,0
9500,0,2,-3,-2,-1,0,-2,-1,0
9505,0,-1,-2,0,0,-2,-1,0,0
9510,-1,0,-1,-1,0,-2,3,-2,0
9515,0,-2,0,-3,-2,-1,-3,-3,0
9520,-1,0,0,0,0,-2,-8,-2,0
9525,-2,1,0,0,0,1,6,-1,0
9530,0,1,0,-1,1,1,-8,-4,0
9535,1,-2,-1,0,-1,-1,8,4,0
9540,0,0,-1,-1,-1,-4,-7,-3,0
9545,0,-1,0,-2,0,-4,-5,-4,0
9550,-1,-2,0,-2,-1,-3,2,0,0
9555,0,2,-1,-1,0,-1,-10,-4,0
9560,0,0,1,-3,-2,0,-3,1,0
9565,-1,-3,-2,-1,0,1,5,0,0
9570,0,-2,-2,-2,-1,0,2,-1,0
9575,-2,0,-1,-1,-1,-2,-5,-2,0
9580,-1,-2,2,-1,-1,-2,4,2,0
9585,0,-1,-1,1,1,0,1,-4,0
9590,-1,0,-2,0,0,-1,1,3,0
9595,-1,-2,-2,0,0,0,-2,1,0
9600,-3,0,0,1,-1,0,10,0,0
9605,-3,0,0,-2,-1,-2,-3,0,0
9610,-2,-2,1,-2,-1,-2,-10,-3,0
9615,-1,-2,-2,-2,1,-2,-1,-1,0
9620,-2,-2,-1,-2,-1,-2,0,-2,0
9625,-2,1,1,-2,-2,-2,-6,-2,0
9630,-1,0,-3,-1,-3,-1,4,-1,0
9635,-1,-2,-1,-1,-1,0,0,-1,0
9640,1,-1,-4,1,-1,-1,-2,-1,0
9645,0,-1,-2,-1,-1,0,0,0,0
9650,0,1,1,-2,-1,-2,1,0,0
9655,-1,-1,0,-1,-1,0,-1,-2,0
9660,0,-1,0,0,-2,-1,0,0,0
9665,-1,-1,-2,-1,1,-1,-9,-3,0
9670,0,-2,-2,-2,-1,1,6,0,0
9675,-3,-1,2,0,-1,-1,4,-4,0
9680,0,-1,-1,0,1,1,-1,-3,0
9685,1,-2,-2,0,-1,-2,-3,-1,0
9690,-1,0,-1,0,0,0,-3,0,0
9695,-2,0,-2,-2,2,0,2,1,0
9700,-2,-1,0,0,0,0,-2,0,0
9705,-2,-1,-1,0,0,1,2,0,0
9710,-2,0,-1,-1,-1,1,1,0,0
9715,1,-1,-1,-1,-1,0,0,0,0
9720,-3,1,-2,-1,0,0,-1,-1,0
9725,0,0,-3,0,-1,1,3,1,0
9730,-1,-2,-1,0,0,0,-2,0,0
9735,-1,-1,0,0,-1,-1,-4,-2,0
9740,0,-1,-2,0,-1,0,0,-2,0
9745,-2,-2,-1,-1,1,0,3,0,0
9750,-2,1,-2,1,0,1,-5,-4,0
9755,-1,0,-1,-2,-1,0,-1,-2,0
9760,0,-1,-2,-3,-1,-1,-6,0,0
9765,-1,-1,1,0,-2,-1,-1,0,0
9770,-1,-1,0,0,1,1,1,0,0
9775,-1,-1,-1,0,-1,0,2,0,0
9780,-1,0,-1,-1,0,0,-1,0,0
9785,-1,0,1,1,0,-1,-1,1,0
9790,-1,-2,0,0,-2,-4,-7,-4,0
9795,1,-1,0,-1,0,1,11,6,0
9800,-1,-1,-1,-1,1,-2,-7,-2,0
9805,-1,-1,0,-2,0,0,8,0,0
9810,-1,1,-2,-3,0,-3,-6,-3,0
9815,-2,-2,-1,0,1,-1,-2,1,0
9820,0,-1,-1,-1,0,1,-3,-2,0
9825,2,-2,-2,-2,0,-1,-2,0,0
9830,-1,-1,1,-2,-1,1,-1,-1,0
9835,-1,-1,0,-2,-2,0,2,0,0
9840,-3,-2,-1,-2,0,-2,-2,-3,0
9845,-1,0,0,0,-1,-3,-4,-2,0
9850,-2,-1,-1,-2,0,-1,-4,-1,0
9855,-2,0,-1,0,-1,1,-4,-4,0
9860,1,-1,0,-1,0,1,11,3,0
9865,-2,-1,-2,1,-1,1,2,0,0
9870,-2,1,-2,0,-1,-2,-1,1,0
9875,-1,-3,-3,-1,-1,-1,-3,-2,0
9880,0,0,-1,-3,-1,0,0,-3,0
9885,-1,-1,-1,-1,0,0,-3,-1,0
9890,-1,0,-1,-1,-1,0,16,3,0
9895,-1,-1,0,-1,1,-2,-12,-4,0
9900,-1,1,1,0,-1,-1,-2,0,0
9905,0,0,0,0,-1,-1,-2,0,0
9910,0,-1,0,-1,-2,0,4,0,0
9915,0,1,-2,-1,-1,-3,-8,-2,0
9920,-1,-1,-2,1,0,2,14,1,0
9925,-1,1,-1,0,1,-1,-5,-2,0
9930,-1,-1,-1,-2,0,0,-2,-1,0
9935,-1,-1,-1,-1,-2,0,-1,0,0
9940,0,-1,-3,1,0,0,-4,0,0
9945,-1,-1,0,-1,-1,-1,0,-2,0
9950,2,-2,0,1,0,-1,-1,1,0
9955,0,1,-1,0,-1,0,0,1,0
9960,-2,-2,1,-2,-1,-2,-3,-2,0
9965,1,-1,0,-1,-2,-2,-3,-1,0
9970,2,0,-2,-1,2,1,1,-4,0
9975,0,-2,0,-1,-1,-1,1,-2,0
9980,1,-1,-1,1,-1,-3,-1,0,0
9985,0,0,0,-3,-1,-2,0,-4,0
9990,2,-1,-1,-1,-2,-2,-4,-1,0
9995,-1,0,-1,-2,-2,-1,-2,-1,0
10000,1,0,-1,-1,-2,0,-3,0,0
10005,0,-1,-2,0,-1,2,-1,-2,0
10010,-1,-1,0,0,0,0,-2,1,0
10015,0,0,-1,-1,1,-2,3,2,0
10020,0,-1,-1,1,-1,-2,-5,-2,0
10025,2,-1,0,2,1,0,2,1,0
10030,0,-1,-2,-1,0,-1,-2,-1,0
10035,0,-1,-1,-1,-1,-1,2,-1,0
10040,-2,-1,0,-2,-2,-3,1,-1,0
10045,-1,-3,-1,3,-2,-1,0,2,0
10050,-3,-2,-1,-6,-2,-1,0,-2,0
10055,-2,-2,3,0,1,0,-2,-2,0
10060,-1,-1,-1,1,1,-1,-1,-1,0
10065,-1,0,-1,-3,-1,-1,0,0,0
10070,-1,-1,0,3,-1,-2,-1,0,0
10075,0,-1,-2,5,7,1,2,0,0
10080,0,-2,-3,-8,-9,1,-3,1,0
10085,-1,-1,-1,3,9,-1,0,-2,0
10090,0,-1,-2,-7,-13,-2,-8,-4,0
10095,-2,-1,-4,-7,-10,-5,-11,-1,0
10100,-3,-1,1,2,2,1,14,0,0
10105,-2,-1,-2,-2,-3,-1,-1,2,0
10110,-1,-2,0,3,9,0,-3,1,0
10115,0,0,0,4,3,0,3,-1,0
10120,-1,0,-2,-1,-1,-2,-7,-2,0
10125,-1,1,-1,-1,-1,-1,-2,1,0
10130,-2,0,0,0,0,0,1,-1,0
10135,-2,1,-2,-1,-2,1,4,0,0
10140,-1,1,-1,0,2,0,1,-1,0
10145,0,-1,1,-2,0,1,1,-1,0
10150,0,-1,-1,2,1,1,-3,-2,0
10155,0,0,-2,0,-1,0,3,2,0
10160,-1,-1,0,-1,2,-2,-2,-1,0
10165,-1,-2,-1,-2,-2,-2,-6,-2,0
10170,-1,0,0,-4,-3,-1,3,0,0
10175,-2,-1,-1,-3,-1,-3,-6,-1,0
10180,-1,0,-1,3,3,1,9,0,0
10185,1,0,-2,-3,-1,-1,-5,-5,0
10190,0,-1,-2,-1,1,-2,5,3,0
10195,-1,0,0,1,-1,0,1,-1,0
10200,-2,-1,-2,0,-2,-2,-6,-1,0
10205,0,-2,2,-1,-2,1,-1,-2,0
10210,0,0,0,-1,2,-1,-1,-1,0
10215,1,0,-1,-1,-1,-1,-7,-1,0
10220,-1,-1,-2,0,-1,1,4,0,0
10225,-1,0,-2,2,-1,-2,2,-1,0
10230,-1,0,0,-2,0,-1,-1,0,0
10235,0,0,1,-2,0,-3,0,0,0
10240,0,0,-1,-1,-1,-1,-5,0,0
10245,-2,1,-2,0,-2,-1,1,0,0
10250,1,-1,0,1,1,0,-3,-2,0
10255,1,-3,-1,1,-2,2,10,-3,0
10260,0,0,-1,-1,1,-2,-12,-1,0
10265,0,-1,-2,0,-1,-2,-1,-1,0
10270,-1,0,-1,-3,-2,-1,0,-1,0
10275,-1,-1,-1,1,1,-1,-5,-1,0
10280,-1,-2,0,0,0,0,-3,-1,0
10285,-3,0,0,-1,-2,-2,0,0,0
10290,0,0,0,3,2,-1,0,-1,0
10295,-1,-2,-2,-3,-3,-1,4,1,0
10300,-1,-2,-4,-7,-4,-3,-5,-2,0
10305,0,0,0,-6,0,-1,3,-1,0
10310,-1,-2,-2,-1,1,0,-3,0,0
10315,0,-1,-1,9,23,-2,-8,-2,0
10320,-3,0,-4,-1,-7,-1,-4,-3,0
10325,-2,-1,-1,-3,-2,-1,0,0,0
10330,0,-1,-1,1,10,0,-5,-1,0
10335,-1,-1,1,7,2,0,-6,-1,0
10340,0,0,2,2,1,2,6,0,0
10345,0,0,2,7,6,1,4,1,0
10350,-1,0,0,-8,-7,0,1,-1,0
10355,-1,-2,-1,2,-2,-2,-1,-1,0
10360,0,-2,-1,-3,1,-3,-1,0,0
10365,-2,0,-2,-1,-5,-2,0,-1,0
10370,-3,-1,0,4,10,0,-1,0,0
10375,1,-1,0,-1,-9,1,3,-3,0
10380,-1,0,-2,-4,-6,-1,-1,-3,0
10385,1,-1,0,-1,-5,0,1,1,0
10390,0,-2,1,-3,2,-1,-7,-5,0
10395,-3,0,-2,6,7,0,1,1,0
10400,-2,0,-1,0,0,0,-1,0,0
10405,0,0,0,-8,-8,-2,-6,0,0
10410,-1,0,-3,5,5,0,8,-3,0
10415,0,-1,0,-6,0,1,9,3,0
10420,-1,0,-2,-2,-3,-1,-3,-1,0
10425,-1,0,-1,-2,-4,-1,0,-3,0
10430,-1,0,-2,1,2,-1,-3,-1,0
10435,-2,-1,1,1,2,-2,-5,-2,0
10440,-1,-2,-1,0,-2,-1,4,0,0
10445,-1,1,-3,-4,0,0,-4,-2,0
10450,-1,-1,-1,7,2,-2,-2,0,0
10455,-1,0,1,2,-2,-1,-1,0,0
10460,2,-1,0,-10,-4,-2,-1,0,0
10465,-3,-3,0,2,-3,-2,-1,-2,0
10470,1,-1,0,-5,-6,-3,1,0,0
10475,-1,-1,0,2,4,0,-3,-1,0
10480,-1,-1,3,5,4,-1,0,-3,0
10485,-2,0,-1,-3,-2,0,-2,-1,0
10490,-1,-2,0,2,2,1,6,-1,0
10495,-2,1,-1,-3,-3,1,0,-1,0
10500,0,0,-1,0,1,-1,-3,-4,0
10505,0,-1,0,-4,-2,0,-1,-1,0
10510,-1,0,-1,-3,-1,-2,-5,1,0
10515,0,0,0,-2,1,0,0,-1,0
10520,-1,-1,-2,2,-3,-2,-3,-2,0
10525,-1,-1,-2,-2,1,-2,-2,2,0
10530,0,0,-1,0,-1,0,-5,-3,0
10535,0,-4,-2,1,0,-2,-2,0,0
10540,1,0,-1,-1,-3,-2,-4,0,0
10545,-1,1,0,5,-1,1,-7,-2,0
10550,-2,-2,-1,-6,-12,-2,-2,0,0
10555,-2,-1,-5,-2,-1,-2,2,-2,0
10560,0,-1,-1,-4,-1,0,0,0,0
10565,0,0,-4,0,0,-1,3,0,0
10570,-3,-1,1,3,2,-2,-2,-2,0
10575,1,0,4,-3,-2,0,-3,-1,0
10580,1,-2,0,5,25,2,11,6,0
10585,0,2,-1,-3,-19,2,1,-1,0
10590,-1,0,0,1,8,-2,-6,-2,0
10595,-1,-1,-2,-6,-4,-1,-2,-1,0
10600,-1,-3,-3,-3,-9,-2,-4,-3,0
10605,0,-2,0,0,6,1,0,-3,0
10610,1,0,-1,-3,-1,0,1,0,0
10615,-1,0,0,6,3,1,-1,-2,0
10620,-1,2,2,6,6,2,-3,0,0
10625,0,-3,0,-4,-9,-1,0,0,0
10630,-3,-1,-4,0,5,0,-3,-3,0
10635,-1,-1,-2,-2,0,1,0,-1,0
10640,0,-2,-2,-18,-18,-2,-2,-2,0
10645,0,-1,-3,1,4,-3,-6,-2,0
10650,-2,0,-1,4,2,1,10,1,0
10655,0,-2,1,5,6,0,2,-1,0
10660,0,-1,1,1,-3,1,1,0,0
10665,0,0,1,-1,4,-2,-1,1,0
10670,1,0,-2,3,1,-1,-4,0,0
10675,-2,0,-1,-1,2,-1,-2,-1,0
10680,0,-1,1,-1,5,-1,-3,0,0
10685,-1,-2,-3,-1,-15,-2,1,1,0
10690,0,-1,-3,-4,1,-4,-5,-2,0
10695,-3,0,-1,-4,-5,-1,5,4,0
10700,-3,0,-1,2,1,-1,-8,-2,0
10705,0,0,-1,4,10,1,0,-1,0
10710,2,-1,0,0,-5,-2,0,2,0
10715,1,-1,-1,-3,-2,0,6,-1,0
10720,0,-3,-3,-3,-2,-3,-1,-2,0
10725,-2,-2,-1,-1,1,-2,-1,-1,0
10730,1,-1,0,3,-2,1,-1,-2,0
10735,0,0,1,-5,-2,-1,-1,-2,0
10740,0,0,0,5,-1,2,2,-1,0
10745,-1,-2,0,-1,-2,-2,2,1,0
10750,-3,-1,-2,0,2,-2,1,0,0
10755,0,-2,-1,1,-2,-2,-5,0,0
10760,-2,0,-2,-7,-8,0,1,-1,0
10765,1,1,0,-1,5,0,-4,-3,0
10770,0,0,1,4,0,1,1,2,0
10775,-2,0,0,-2,-2,-3,-5,-5,0
10780,-3,-1,0,3,15,1,-3,0,0
10785,-1,-2,0,-1,-13,0,-1,-1,0
10790,0,-1,-2,-5,-1,-3,0,-1,0
10795,-1,-2,-2,-1,-6,-1,-2,-2,0
10800,0,0,-3,-2,-2,-2,-7,-1,0
10805,-2,0,0,4,4,-1,1,1,0
10810,-2,0,0,-6,2,1,-3,-1,0
10815,-1,0,0,3,-7,-2,-2,0,0
10820,-1,-1,-4,-5,-2,-3,0,-2,0
10825,-1,-1,1,-3,-4,-1,-2,-2,0
10830,0,-1,-1,-3,-3,0,1,-1,0
10835,-2,2,-1,5,14,0,-4,0,0
10840,1,0,1,1,-5,1,4,0,0
10845,-1,0,-5,-6,-9,-3,-7,-2,0
10850,-3,-4,-2,-2,-5,-3,2,-1,0
10855,0,-1,-1,-15,-7,2,13,4,0
10860,0,-1,-1,6,3,-1,-2,-2,0
10865,-2,-1,0,4,9,0,-1,-1,0
10870,-1,-1,-1,-7,-8,0,-4,-5,0
10875,0,-2,0,8,5,1,-1,0,0
10880,-2,1,1,-4,-5,-1,1,0,0
10885,1,0,-1,4,5,-1,-8,-2,0
10890,0,0,0,1,-3,-1,3,1,0
10895,1,-2,-3,-6,-3,-3,5,-1,0
10900,0,-1,0,1,-3,-3,-1,1,0
10905,0,0,0,-1,5,0,-3,-1,0
10910,-1,0,-1,3,-1,0,0,1,0
10915,0,0,-1,1,-2,1,-5,-3,0
10920,-1,-1,-1,-1,-6,-1,-2,-1,0
10925,-1,-2,-1,-6,0,-1,4,-2,0
10930,-2,-1,0,2,2,0,-4,-1,0
10935,2,-1,1,6,14,2,3,3,0
10940,2,-1,0,0,-14,-2,-5,-3,0
10945,-2,0,-2,-6,-1,-1,4,1,0
10950,-1,0,1,5,7,1,-1,-1,0
10955,-2,-2,-2,-6,-6,-3,-8,-4,0
10960,-1,-3,-2,0,4,-2,1,0,0
10965,1,-1,1,1,-1,-1,-2,-1,0
10970,-1,0,-1,0,-3,-1,2,-1,0
10975,-2,-2,-1,2,0,-1,-5,3,0
10980,0,1,-3,2,1,0,3,0,0
10985,-2,-1,-2,-2,-3,0,4,-1,0
10990,1,-1,0,0,1,-2,-8,-4,0
10995,0,0,1,-2,-5,-2,-13,-5,0
11000,-1,-1,0,1,0,2,9,0,0
11005,-2,-2,-1,-3,-1,-3,0,3,0
11010,-1,-2,0,0,1,-1,1,-1,0
11015,0,1,1,2,1,0,-3,1,0
11020,-2,-1,0,-10,-5,-1,-5,-1,0
11025,-1,-1,0,2,4,1,2,-1,0
11030,0,-3,-1,-1,-2,0,-1,-1,0
11035,0,-1,-1,-1,-3,-2,0,-2,0
11040,-1,0,2,2,4,0,-2,-2,0
11045,-1,2,-1,3,-2,1,-3,-1,0
11050,0,0,0,-10,-3,-2,-9,-4,0
11055,0,-1,-3,-1,-2,0,2,1,0
11060,0,-1,1,-1,0,-1,-1,-1,0
11065,-1,-1,0,-2,0,-3,-4,-1,0
11070,-1,-1,-1,3,0,1,7,1,0
11075,-1,0,0,-1,0,-1,2,-2,0
11080,0,0,-1,-1,1,0,0,-2,0
11085,-2,0,-1,-2,0,1,0,-1,0
11090,1,2,0,-3,0,0,2,3,0
11095,0,-1,0,4,-1,-2,0,1,0
11100,-1,-2,-3,-4,-1,-3,2,1,0
11105,1,1,-1,-2,2,0,-3,-3,0
11110,0,-1,-2,-6,-8,-2,0,0,0
11115,0,-2,-2,0,0,0,0,-2,0
11120,-2,0,0,10,2,-2,-11,-2,0
11125,1,0,0,-5,-1,3,20,7,0
11130,-1,-1,0,-2,-1,-2,-8,-3,0
11135,-2,-1,-2,-1,-1,-2,1,1,0
11140,-1,-1,-4,-6,-2,-2,-4,-2,0
11145,-2,-1,-2,-2,-2,-1,-4,-2,0
11150,-1,-1,1,0,6,4,3,1,0
11155,-1,0,1,-4,-19,-2,-4,0,0
11160,-3,0,1,2,1,-2,1,-1,0
11165,-2,-3,0,5,0,-3,1,1,0
11170,0,-1,1,-5,-1,4,2,-1,0
11175,-1,0,-2,-5,0,-5,-4,-1,0
11180,1,0,-2,-2,-3,-1,-2,-2,0
11185,-1,1,0,2,1,-1,-2,-2,0
11190,-1,1,1,6,7,-2,-9,-5,0
11195,-1,-1,-2,0,3,2,10,2,0
11200,0,1,-2,-5,-6,-1,0,0,0
11205,-1,-2,-1,-1,-1,-1,-3,-1,0
11210,-1,-1,-2,2,-2,-2,0,-1,0
11215,-1,-1,0,0,1,3,-2,-3,0
11220,-1,-1,-1,-4,1,0,0,1,0
11225,-1,-1,1,5,17,0,-4,-2,0
11230,-1,-1,-2,-3,-19,-1,-1,1,0
11235,-1,1,-1,-6,-1,-2,-4,-3,0
11240,-2,-2,0,1,3,1,2,-1,0
11245,1,-1,-3,-1,-3,-1,-10,-2,0
11250,-1,0,-3,1,2,-2,4,2,0
11255,1,-1,0,1,2,2,1,0,0
11260,0,-1,1,0,-2,-1,-5,-3,0
11265,1,-1,-1,-4,-5,0,1,2,0
11270,0,-1,0,0,4,-2,0,0,0
11275,1,-1,0,0,-1,-1,-1,-2,0
11280,0,0,1,-1,-1,1,1,1,0
11285,0,0,-2,-3,-7,0,-1,1,0
11290,0,1,-1,0,-1,-2,0,0,0
11295,-1,0,1,-1,0,-2,-9,-6,0
11300,-1,-1,-1,0,0,0,12,3,0
11305,0,-2,0,-1,-3,-2,-3,-1,0
11310,-2,0,-2,-1,-1,0,0,1,0
11315,-3,0,1,1,1,1,-2,-2,0
11320,0,-1,-2,-1,0,-1,-3,-1,0
11325,-2,0,-1,-2,-4,0,-3,-3,0
11330,-2,-1,-1,0,1,-1,1,-1,0
11335,-1,-1,-2,-1,0,-1,3,1,0
11340,0,-1,-1,-1,1,-2,-4,-2,0
11345,-1,0,0,-1,0,0,2,0,0
11350,-1,-1,-2,2,-1,-1,0,0,0
11355,-2,-1,-2,0,1,1,-4,-1,0
11360,-2,-1,1,0,-2,0,0,0,0
11365,-2,-1,1,0,-1,-2,-6,-2,0
11370,-1,-1,0,0,0,1,10,-1,0
11375,0,1,-1,0,-1,-3,-6,-2,0
11380,0,0,-1,0,-1,0,5,-1,0
11385,0,-1,-2,0,-2,0,1,-2,0
11390,-4,-1,1,-2,0,-1,-8,-3,0
11395,0,-1,1,1,0,1,4,1,0
11400,-2,0,-1,-4,0,-1,-5,-1,0
11405,0,0,-1,-1,-1,-1,1,1,0
11410,0,-2,-1,0,0,-1,-3,-2,0
11415,0,0,1,0,0,0,0,-2,0
11420,-1,0,0,-1,0,-1,-3,-1,0
11425,-2,-2,-1,-2,-1,0,-1,-1,0
11430,-1,-1,-1,1,1,0,0,-2,0
11435,0,-1,0,-3,-1,-1,-1,1,0
11440,-1,-2,-1,0,-1,0,1,-1,0
11445,0,-1,0,-1,-2,0,0,-2,0
11450,0,0,-2,0,-2,0,0,0,0
11455,-1,-1,-1,-1,-1,0,-1,-3,0
11460,-1,0,0,-1,1,0,-1,-1,0
11465,-1,-1,-2,-2,0,0,-1,-1,0
11470,-2,-1,1,-1,-1,0,0,-1,0
11475,1,-1,-1,-2,-2,-1,-2,-1,0
11480,0,-2,-2,0,-1,-3,-5,-2,0
11485,-1,-2,-2,-2,-1,-1,2,-1,0
11490,0,0,-2,-2,0,-2,-1,-1,0
11495,-1,-2,-1,-1,0,0,4,1,0
11500,0,-1,0,1,-2,1,-4,-1,0
11505,0,1,-1,1,-2,1,-1,-2,0
11510,0,-1,-1,1,0,1,-2,-1,0
11515,-2,0,-2,0,-1,0,-3,-2,0
11520,1,1,2,-1,0,0,1,-1,0
11525,0,-1,1,-1,-3,-1,3,0,0
11530,-2,0,1,-1,1,-2,-3,-1,0
11535,-2,-1,-2,0,0,-1,-2,-1,0
11540,1,-3,-2,-1,1,-2,-3,-2,0
11545,0,0,-2,0,0,2,10,1,0
11550,0,0,0,-1,-1,-3,-1,1,0
11555,-2,1,-1,-1,-1,-1,1,0,0
11560,-1,0,0,0,0,-1,0,-1,0
11565,-2,-1,-1,2,0,-2,-3,-1,0
11570,-1,-3,-1,-1,-1,-1,-3,0,0
11575,-1,-3,0,-2,-2,-1,5,1,0
11580,-1,-1,-1,-1,-1,-2,-1,-1,0
11585,1,1,0,-1,-1,-1,-2,-3,0
11590,0,-1,-1,-1,0,1,-1,-1,0
11595,-2,0,-1,-1,0,-2,3,0,0
11600,0,0,0,0,-1,-1,-2,0,0
11605,0,1,0,-2,-1,-1,-1,0,0
11610,0,0,-1,-1,-2,-1,-1,-2,0
11615,1,-1,-1,-1,0,-2,-1,-2,0
11620,-1,-1,0,2,-2,0,0,-1,0
11625,-2,-1,-1,-1,-1,0,-2,-3,0
11630,1,0,1,0,-1,0,0,-2,0
11635,-2,0,-2,-1,2,1,-2,-2,0
11640,-1,-1,-2,-2,-1,-1,-2,-2,0
11645,-3,-2,-1,-2,0,1,3,-2,0
11650,-3,-2,-3,0,-1,-3,-3,-3,0
11655,-2,1,0,-2,-2,-1,1,1,0
11660,1,1,-1,0,-3,-1,-1,0,0
11665,-1,0,-1,-1,-2,-1,-3,0,0
11670,0,-1,-2,-1,0,1,-5,-1,0
11675,-1,0,-1,-2,0,0,-3,-1,0
11680,-3,1,0,-1,-1,0,-5,-2,0
11685,0,-1,0,-1,1,-1,-2,1,0
11690,0,-2,1,0,-2,-1,1,0,0
11695,0,0,-1,0,-2,-1,-4,0,0
11700,-2,-1,-2,-2,0,0,-1,-1,0
11705,-1,-1,-2,-1,0,-2,-2,1,0
11710,1,1,2,-2,-1,-1,1,1,0
11715,-1,-1,-2,-2,-1,0,-7,0,0
11720,-1,0,-2,-1,2,1,5,0,0
11725,0,-1,-1,-1,0,0,-4,-4,0
11730,0,-2,-3,-2,-2,0,1,0,0
11735,0,-1,0,-1,0,0,-1,-1,0
11740,-1,-1,0,2,-2,-2,1,0,0
11745,1,-1,0,1,1,-2,-1,-1,0
11750,0,0,0,1,-1,-1,-5,-1,0
11755,-1,-1,-2,-2,0,0,2,-2,0
11760,0,-1,-1,-1,-1,-2,0,1,0
11765,-1,-2,-1,-1,-1,0,-2,-1,0
11770,-2,-1,1,-3,1,-2,3,1,0
11775,-2,-1,-2,-1,-1,-1,0,0,0
11780,0,-1,-2,-1,-1,0,0,-1,0
11785,0,-2,-2,-2,0,-1,-2,0,0
11790,-1,0,-1,-1,-1,0,0,-1,0
11795,0,1,0,1,-2,0,-7,-1,0
11800,1,-1,-1,-1,0,4,14,0,0
11805,-2,-1,-2,-1,-1,-1,-5,-2,0
11810,1,-1,-2,0,-1,-2,-1,-1,0
11815,0,0,1,0,0,0,2,-1,0
11820,-2,0,1,-2,1,-1,-5,-3,0
11825,-1,0,0,-1,0,-1,0,-1,0
11830,0,0,0,-1,0,0,0,-1,0
11835,1,-1,-2,-1,-1,1,-1,0,0
11840,-1,0,-2,0,-2,0,1,1,0
11845,-1,0,-2,0,-2,0,0,-1,0
11850,-1,1,-1,-2,-1,0,-3,0,0
11855,0,-2,-1,-1,-2,-1,-1,1,0
11860,1,0,-1,-2,0,-2,-2,-1,0
11865,0,-1,0,-2,-1,-2,-4,0,0
11870,0,-1,-1,0,0,-2,-1,-1,0
11875,-1,-2,-1,-1,0,-2,0,0,0
11880,0,-1,-2,0,-1,0,-3,-1,0
11885,-1,0,0,1,-2,-2,-8,-4,0
11890,1,-1,0,0,-1,1,14,6,0
11895,-1,1,0,-1,1,-2,0,0,0
11900,-1,0,0,1,0,-3,-4,-4,0
11905,0,-1,-1,0,-1,0,1,-1,0
11910,-1,-1,-2,-1,-1,1,-7,1,0
11915,-2,-2,0,-1,0,0,-1,-1,0
11920,-1,-2,2,-1,1,-1,1,0,0
11925,-3,-1,-2,-1,-2,0,-2,-1,0
11930,-2,0,-1,0,0,-2,-2,-3,0
11935,1,0,-1,0,0,-1,-4,-1,0
11940,0,-2,0,0,-1,0,0,-1,0
11945,0,-1,0,1,1,0,3,0,0
11950,0,1,-1,-1,-1,-2,-4,-1,0
11955,-1,0,1,0,-2,0,1,1,0
11960,0,-1,-1,-1,-1,-1,-3,-2,0
11965,0,-1,-1,-2,-2,0,1,1,0
11970,-1,-1,-1,0,-1,-2,0,1,0
11975,-1,-1,-2,0,-2,0,-1,-1,0
11980,-4,-3,-1,-2,-1,1,-2,1,0
11985,-2,-1,-2,0,0,0,2,0,0
11990,-1,-1,-1,-1,0,-1,-9,-5,0
11995,0,0,-1,0,-1,0,4,0,0
12000,-1,1,-1,-1,-2,-1,0,1,0
12005,1,0,-2,-1,-1,-2,3,0,0
12010,-3,-1,1,-2,0,-1,-4,-8,0
12015,-2,-1,0,1,1,1,1,1,0
12020,-2,0,-1,-2,0,1,0,0,0
12025,-1,-1,0,0,-3,0,2,1,0
12030,1,1,-1,-2,-1,-3,1,0,0
12035,1,-1,-1,-1,-1,-5,-8,-4,0
12040,0,-1,-1,1,0,-8,-14,-2,0
12045,-1,0,1,-6,1,5,13,-1,0
12050,-1,0,-1,3,-4,-19,-1,0,0
12055,-5,0,1,6,11,33,8,1,0
12060,-2,-4,-2,-2,-4,2,-11,-2,0
12065,-3,0,-1,-4,-2,2,8,1,0
12070,-1,0,-1,-5,-3,8,7,-2,0
12075,2,0,-1,2,2,-11,-3,-1,0
12080,-2,1,0,3,-3,-10,-1,-2,0
12085,-3,-3,1,-5,5,44,11,1,0
12090,-2,0,-3,-3,-5,-13,-10,-2,0
12095,0,0,-1,-6,-15,-18,-3,0,0
12100,3,-1,-3,-3,1,13,4,1,0
12105,1,1,2,6,8,3,-7,-4,0
12110,-3,1,6,17,13,4,-2,-1,0
12115,-1,-1,-3,-7,-4,-16,-8,-3,0
12120,2,1,-1,-20,-13,-12,-27,-1,0
12125,1,2,-1,2,2,12,23,2,0
12130,-1,-5,-5,-2,6,-17,-28,1,0
12135,2,2,-2,4,-10,0,40,7,0
12140,2,-1,-2,-10,-18,51,26,4,0
12145,1,4,7,9,8,58,-4,1,0
12150,-1,1,6,18,16,12,18,4,0
12155,2,2,2,16,19,-12,-14,0,0
12160,-6,-4,-8,-10,-16,0,25,-3,0
12165,1,-4,-4,-12,-7,-68,-4,5,0
12170,-3,-1,-2,0,-11,10,-10,-5,0
12175,0,-2,3,9,15,92,23,1,0
12180,2,2,2,4,1,-46,-56,-4,0
12185,3,0,0,1,15,32,17,5,0
12190,-9,-12,-4,-7,-8,-86,13,-2,0
12195,23,18,4,8,3,-66,-27,4,0
12200,2,1,2,-3,3,-5,-9,-2,0
12205,-2,4,3,6,-2,-21,-30,-3,0
12210,0,-2,-8,-11,-15,-2,15,-1,0
12215,-6,-11,-6,-13,-21,-5,-13,-4,0
12220,-2,0,-6,-4,-11,-36,9,0,0
12225,1,-1,0,-1,15,5,-5,-2,0
12230,-4,1,5,10,2,-61,-21,-8,0
12235,-6,-1,-2,-6,-2,57,19,-2,0
12240,-1,-2,-1,-3,-6,-30,-16,-5,0
12245,-6,-5,0,1,5,72,38,-2,0
12250,16,2,0,4,8,53,27,4,0
12255,-7,-6,-3,-1,-11,-61,-21,11,0
12260,4,5,2,1,1,-2,-3,-9,0
12265,-8,-4,-2,-6,-14,-9,2,-4,0
12270,5,2,-1,-2,7,101,43,3,0
12275,-1,-3,0,3,2,33,13,3,0
12280,-7,-10,-4,-5,-1,6,14,-1,0
12285,8,-5,-6,-3,-14,-58,-48,-9,0
12290,-16,-9,-1,5,13,25,20,5,0
12295,-18,-4,-3,-4,-16,-17,-5,-1,0
12300,-3,-3,5,8,17,27,25,-7,0
12305,3,1,-6,-9,-7,-4,-24,-11,0
12310,3,2,2,4,7,1,32,8,0
12315,8,8,0,0,0,0,-5,7,0
12320,-1,0,0,1,5,-4,-5,4,0
12325,-3,-3,-2,0,0,-39,-28,-4,0
12330,0,4,-2,-4,-14,-47,-31,-13,0
12335,-3,-11,1,4,6,-5,-30,4,0
12340,9,6,2,-1,-1,76,58,7,0
12345,-12,-6,-2,-5,-16,-70,-57,11,0
12350,-3,1,-2,-1,-4,-22,1,6,0
12355,-2,-10,-2,-2,5,49,29,-11,0
12360,-5,-6,-1,0,-5,-14,17,41,0
12365,-31,-2,-6,-8,3,32,-2,-28,0
12370,-2,2,4,4,-1,-40,9,4,0
12375,8,7,5,3,7,26,24,5,0
12380,12,5,5,6,13,6,33,14,0
12385,-4,2,3,4,6,61,27,-5,0
12390,3,-11,-3,-2,-9,5,-45,-6,0
12395,-10,3,-2,1,3,-33,10,-15,0
12400,-32,-17,-6,-4,2,-3,-2,-18,0
12405,-11,4,-3,-1,-9,-79,-1,-15,0
12410,-32,-17,-6,-4,2,-3,-2,-18,0
12415,-11,4,-3,-1,-9,-79,-1,-15,0
12420,8,-1,0,-2,3,32,-10,27,0
12425,2,0,-1,1,-7,-17,1,-1,0
12430,-2,0,-6,-4,-11,-36,9,0,0
12435,1,-1,0,-1,15,5,-5,-2,0
12440,-4,1,5,10,2,-61,-21,-8,0
12445,-6,-1,-2,-6,-2,57,19,-2,0
12450,18,3,-1,-1,-2,9,-54,-7,0
12455,3,-10,-4,-2,-3,26,44,-2,0
12460,8,6,3,2,8,-2,-71,0,0
12465,-18,-9,-6,-7,-3,32,31,0,0
12470,-3,5,1,-4,-4,11,-35,-14,0
12475,24,-2,1,7,2,-15,29,25,0
12480,3,22,0,1,-2,7,27,3,0
12485,-1,10,-1,-6,-18,-128,-113,-20,0
12490,14,-2,1,4,17,29,70,16,0
12495,-5,7,4,-7,-2,-19,-29,3,0
12500,-9,-5,-2,-1,7,26,28,7,0
12505,38,5,2,4,2,4,15,13,0
12510,-14,-2,0,1,-3,32,37,-1,0
12515,-35,-9,0,0,0,2,4,-6,0
12520,21,-5,-2,-5,-3,24,-81,-15,0
12525,0,3,-2,-2,9,25,95,6,0
12530,15,-8,-1,2,3,-41,-76,-4,0
12535,0,-2,0,1,-1,22,30,-1,0
12540,-22,-2,7,7,10,15,23,-10,0
12545,-11,-6,-4,-11,-6,-7,-26,-14,0
12550,10,1,-6,6,3,40,22,2,0
12555,-18,-9,1,-4,-15,-88,-110,-16,0
12560,-2,4,1,1,4,-6,12,6,0
12565,-2,-5,-2,-6,-12,-52,-32,1,0
12570,5,1,-1,2,8,70,78,8,0
12575,-12,0,-1,4,12,25,3,-3,0
12580,14,17,0,-1,-13,-34,-14,-16,0
12585,-29,-12,-5,-6,-8,-28,-42,-6,0
12590,-15,-7,-2,-6,-8,-51,-9,-4,0
12595,21,8,5,7,10,50,0,-1,0
12600,1,-13,-5,-6,-5,10,1,-12,0
12605,12,-2,2,6,1,7,10,17,0
12610,-18,0,-4,-6,-13,-102,-90,-16,0
12615,18,4,0,-2,1,80,30,-7,0
12620,-15,-11,-5,-4,-7,-39,-34,-25,0
12625,9,2,0,4,-2,44,9,5,0
12630,-10,-5,-1,-1,-5,-5,-37,-14,0
12635,4,0,-2,-3,5,-3,45,4,0
12640,-5,-6,-3,-3,-1,-56,-26,-5,0
12645,7,3,0,4,8,-54,16,11,0
12650,5,2,0,1,1,34,-8,-2,0
12655,7,10,1,-5,3,32,32,7,0
12660,-3,0,-1,4,-2,37,46,1,0
12665,-8,-2,3,4,2,-27,-31,-8,0
12670,20,1,-3,-3,1,-23,7,7,0
12675,4,-4,-2,-2,-8,-42,-24,1,0
12680,-6,-6,-2,-4,-6,-36,-9,8,0
12685,2,-3,1,-2,7,88,70,8,0
12690,3,2,-1,3,-13,-29,-38,-2,0
12695,2,1,-2,4,12,44,16,3,0
12700,5,-1,1,0,6,57,41,11,0
12705,-9,-4,-5,-2,-10,-28,-46,-20,0
12710,11,9,3,-4,3,37,91,27,0
12715,-1,-6,-8,-8,-13,-50,-11,4,0
12720,-6,-4,-1,2,2,-4,3,10,0
12725,-1,-3,0,0,6,84,-22,-3,0
12730,-6,-1,0,-4,3,-2,9,-13,0
12735,6,2,1,7,-2,17,50,14,0
12740,-3,-6,-1,-2,-5,-33,-8,-10,0
12745,10,-4,-3,-4,-6,18,3,8,0
12750,-8,6,-1,-7,-9,-8,-29,-10,0
12755,6,-3,0,0,4,-35,-28,2,0
12760,-3,-3,-2,-2,1,12,1,0,0
12765,11,9,1,5,8,-14,11,2,0
12770,-12,-4,-1,-1,-2,-2,-12,-5,0
12775,9,1,-1,3,7,-6,5,1,0
12780,0,5,3,2,5,62,22,2,0
12785,-11,0,1,3,3,5,2,-7,0
12790,1,-4,1,-6,-6,-36,-23,-1,0
12795,-2,8,-2,-4,-2,18,-14,0,0
12800,17,1,-3,0,-3,-6,0,1,0
12805,1,-1,0,-4,-8,-42,0,-4,0
12810,-18,0,-1,5,8,19,18,-7,0
12815,12,-11,-1,0,-2,-13,-7,12,0
12820,-5,6,1,-2,5,3,47,5,0
12825,-2,-2,-1,5,-2,-10,-24,-5,0
12830,2,0,0,0,5,-37,-10,2,0
12835,-7,1,0,0,-8,-8,-14,-6,0
12840,-2,-4,-4,-7,-7,-24,-13,-5,0
12845,1,1,-1,-4,3,19,39,3,0
12850,-9,-3,-2,1,-3,-20,-22,0,0
12855,6,2,1,5,2,10,13,2,0
12860,-19,-2,1,-3,-7,-11,-22,-21,0
12865,-9,-1,-4,-5,-1,14,-30,-10,0
12870,17,-2,-4,-3,-4,-7,-2,3,0
12875,-6,4,1,0,-1,10,18,1,0
12880,-8,0,-1,0,-8,-12,14,2,0
12885,3,-1,-3,-4,3,-7,-3,-3,0
12890,-3,0,3,5,1,-22,13,-1,0
12895,-7,-6,-3,2,-2,-22,-25,-9,0
12900,5,-2,-4,-3,-1,-6,-15,2,0
12905,0,0,-1,1,3,-11,25,-3,0
12910,0,3,0,-1,-3,0,-32,-8,0
12915,1,0,-1,-9,-1,-21,-20,-3,0
12920,4,-1,2,9,3,0,9,14,0
12925,-1,-3,-1,1,-4,-9,-38,-5,0
12930,-2,-1,-1,-3,0,-17,-6,-2,0
12935,-3,-4,-4,-1,-2,26,-12,-5,0
12940,2,4,-2,-6,-2,4,19,-6,0
12945,-4,-1,-1,-4,-3,34,-34,-4,0
12950,-1,-5,-1,3,-1,3,7,0,0
12955,3,8,1,-2,4,35,39,5,0
12960,5,-5,-2,-1,-7,-25,-24,-1,0
12965,2,-3,-2,-2,-2,8,9,-2,0
12970,-9,-4,-2,-1,3,23,-2,2,0
12975,-4,-5,-3,-6,-2,16,48,-1,0
12980,-1,1,1,-2,0,26,14,-3,0
12985,-6,1,0,5,-5,-47,-9,0,0
12990,2,1,-1,-2,4,52,3,-3,0
12995,-1,-1,0,-1,-2,-11,-6,2,0
13000,2,2,2,2,7,25,14,2,0
13005,-5,-6,-1,0,-4,-23,18,0,0
13010,5,5,2,0,0,1,-9,-1,0
13015,5,1,-1,0,-4,14,0,-4,0
13020,-6,-1,1,-1,8,13,4,6,0
13025,4,-5,-3,-1,-1,16,-6,-5,0
13030,2,12,3,0,-3,-61,-26,-4,0
13035,-4,0,2,2,8,14,36,2,0
13040,18,0,-2,-1,-4,-18,-28,-1,0
13045,-1,-1,-5,-5,-1,16,9,-2,0
13050,-7,-3,0,-2,-4,0,8,-4,0
13055,2,-3,1,1,1,-23,-24,8,0
13060,-4,1,3,0,0,-35,-19,-5,0
13065,-5,-2,-1,-3,2,0,1,5,0
13070,4,-4,-4,-2,-1,3,13,5,0
13075,-2,-1,-3,-2,-7,-30,-41,-4,0
13080,-6,-1,-2,-3,-3,-7,-21,-14,0
13085,4,4,5,6,10,16,-6,18,0
13090,-5,-8,-2,-1,2,20,18,5,0
13095,-2,-2,-2,-2,-2,-28,-8,-1,0
13100,-2,-6,-2,-1,0,-12,-40,-7,0
13105,-7,9,3,-7,-5,9,7,-12,0
13110,7,-2,0,8,7,11,26,15,0
13115,-2,0,1,4,4,5,-8,-5,0
13120,-5,-6,-2,-4,-7,1,-9,0,0
13125,3,-1,-3,-4,-6,-50,-42,-4,0
13130,-3,-1,2,3,5,30,16,5,0
13135,3,1,-2,0,-1,-1,12,0,0
13140,-3,-1,-2,-2,-1,18,10,3,0
13145,0,-2,-1,0,-5,-5,-3,-5,0
13150,4,-2,-2,-3,-8,-40,-37,-18,0
13155,-2,2,1,1,7,73,34,21,0
13160,-3,0,1,4,3,-4,8,-2,0
13165,-1,1,-1,-1,4,34,15,3,0
13170,-1,1,-2,-2,-9,-42,-48,-15,0
13175,-1,-3,1,1,1,-40,5,3,0
13180,-8,-6,-1,-1,5,48,29,4,0
13185,3,0,-3,-12,-4,5,5,3,0
13190,-12,-2,0,8,0,21,6,-1,0
13195,11,-3,-4,-4,-9,-29,-50,-16,0
13200,-9,0,3,6,9,-8,41,19,0
13205,1,1,1,2,4,18,19,1,0
13210,-5,-4,-1,-6,-2,16,20,2,0
13215,-3,-3,-3,-4,-5,-29,-29,-6,0
13220,2,5,-4,-4,-7,20,-13,-9,0
13225,6,-2,2,9,-1,-4,41,5,0
13230,-5,0,-4,-8,5,46,-14,2,0
13235,-1,-2,-2,0,-5,7,11,5,0
13240,4,2,0,-5,-6,-19,-8,-3,0
13245,-4,-5,-1,1,3,-12,2,1,0
13250,-3,0,-3,-1,-4,-13,-14,-10,0
13255,8,1,0,0,8,22,44,12,0
13260,-4,-2,0,-4,0,17,29,4,0
13265,-5,2,-1,2,0,1,-9,-3,0
13270,4,0,3,2,1,-9,-1,1,0
13275,-5,-2,-2,-10,-1,20,1,-10,0
13280,3,-2,-2,6,-4,-43,-37,-7,0
13285,5,-4,-1,4,1,1,0,-2,0
13290,-3,10,2,-6,0,9,23,1,0
13295,-5,-3,1,-2,0,0,-2,-2,0
13300,0,0,-1,-1,3,8,14,2,0
13305,1,-2,-2,0,2,-15,-14,1,0
13310,2,-4,1,5,1,-5,4,-2,0
13315,-3,0,-1,-2,-6,-19,-3,1,0
13320,-3,-3,-3,-7,-9,-6,-11,-4,0
13325,-4,0,0,-2,-6,26,9,0,0
13330,1,-2,1,1,4,-26,2,3,0
13335,-9,1,1,0,2,28,-16,-9,0
13340,8,-1,-2,4,4,-20,-10,1,0
13345,-4,0,-2,0,-1,-2,14,6,0
13350,2,-5,-4,-3,-7,23,5,-1,0
13355,3,-2,3,3,1,-32,-14,0,0
13360,-10,-2,-3,-4,-3,-9,-10,5,0
13365,4,1,1,-2,-5,-37,-22,-2,0
13370,-3,1,-3,-3,0,29,-8,-2,0
13375,10,2,-2,-9,-2,-3,2,3,0
13380,1,2,1,12,6,-6,-1,-1,0
13385,-2,-3,-3,-1,-4,-5,-2,-3,0
13390,-3,-3,-1,-3,-3,-26,-9,0,0
13395,-4,-5,-3,0,-3,6,1,-5,0
13400,-2,2,1,-1,-3,-10,-13,-7,0
13405,-1,1,4,-1,14,50,2,-1,0
13410,1,-3,-1,3,-4,-12,-1,0,0
13415,-4,-2,-2,3,5,-2,4,0,0
13420,2,-3,-2,-5,-7,-8,-3,-3,0
13425,-2,-1,-2,-4,-1,7,-4,-1,0
13430,2,1,4,6,8,-24,-6,1,0
13435,1,3,4,-3,8,22,-4,0,0
13440,2,-1,1,9,-4,1,21,2,0
13445,-4,-3,-8,-6,-9,-26,-14,-5,0
13450,-4,-6,-10,-25,-35,2,5,-2,0
13455,-1,-2,-2,2,-4,-16,-4,-3,0
13460,2,1,2,-7,9,5,-21,-3,0
13465,5,3,5,16,11,-6,-5,6,0
13470,3,-1,1,10,12,15,8,2,0
13475,-3,-1,0,0,-3,0,-2,-2,0
13480,-4,-2,-3,-5,-3,-5,-12,-4,0
13485,-2,0,1,2,1,-4,-15,-2,0
13490,0,2,3,1,9,7,-5,1,0
13495,-3,-3,1,1,-14,-7,-8,-2,0
13500,2,0,1,9,19,21,45,5,0
13505,-3,-3,-7,-18,-16,-17,0,-2,0
13510,-1,-2,-4,-7,-5,-9,2,-1,0
13515,-3,-2,-4,-8,-6,15,2,-3,0
13520,-2,-4,-3,-1,-15,-17,-18,-4,0
13525,-4,1,2,2,9,11,9,-2,0
13530,1,2,0,-4,3,15,4,2,0
13535,3,2,-2,11,-1,-16,1,1,0
13540,0,-2,0,-4,-6,-12,-7,-1,0
13545,-1,-3,0,0,-2,3,1,-2,0
13550,-2,0,-2,-1,3,-1,-4,0,0
13555,-2,0,1,3,7,-3,-5,1,0
13560,0,-2,-2,0,-1,-7,-3,0,0
13565,1,-1,-2,-4,-2,3,-9,0,0
13570,3,-1,0,1,1,-7,4,2,0
13575,-2,-1,0,-1,3,8,4,0,0
13580,-2,-2,1,0,0,7,3,1,0
13585,-3,-1,0,1,-5,-20,-25,-7,0
13590,-1,-3,-1,0,2,-25,10,1,0
13595,2,5,1,5,6,44,4,1,0
13600,-1,0,-3,-8,-3,3,-1,-2,0
13605,4,0,0,1,1,-4,-2,-2,0
13610,-4,-5,-3,3,3,2,4,2,0
13615,-7,3,2,-3,-3,-12,0,-4,0
13620,-1,-1,1,3,2,1,-3,0,0
13625,-2,0,-3,2,0,13,7,-3,0
13630,1,-3,-5,-6,0,3,-7,0,0
13635,-1,-3,0,-1,-11,-11,-8,-2,0
13640,2,-1,1,6,4,10,-2,1,0
13645,-9,-3,-4,-12,-10,-10,1,-3,0
13650,2,1,3,-2,-3,10,1,-1,0
13655,-2,-3,-5,-5,5,-10,-5,-1,0
13660,7,-1,6,11,17,3,1,-1,0
13665,2,1,5,9,-7,6,11,4,0
13670,-2,1,-3,-14,-2,0,-2,0,0
13675,2,-4,-7,-2,-11,-6,-10,-2,0
13680,-2,-2,-1,-5,-3,2,14,1,0
13685,0,0,0,9,10,0,4,2,0
13690,2,1,4,-10,-4,6,-4,-2,0
13695,-1,-2,4,21,13,-3,0,0,0
13700,-4,-1,-5,-15,-15,1,-3,-1,0
13705,0,2,-9,-21,-11,-11,-5,-3,0
13710,1,1,0,9,-2,6,12,1,0
13715,-1,0,1,-1,7,-1,1,1,0
13720,-5,-2,-3,-1,8,-1,-4,0,0
13725,1,-4,-3,-7,-6,4,8,3,0
13730,-2,-2,1,14,-4,-6,-8,-4,0
13735,0,2,5,15,31,-1,2,0,0
13740,1,3,1,-2,-22,6,4,2,0
13745,-3,-2,-3,-6,-22,-14,-4,-2,0
13750,-3,-3,-2,-5,-4,-3,-2,-2,0
13755,-3,-2,-3,-6,-11,-6,-3,0,0
13760,-2,-1,-1,-5,14,1,-5,-3,0
13765,2,2,3,13,14,5,2,1,0
13770,-2,0,2,13,7,0,-3,0,0
13775,0,-3,-4,-24,-22,-11,6,0,0
13780,-3,-5,-6,9,4,1,-6,-4,0
13785,0,-3,-1,-11,-5,0,3,-2,0
13790,0,1,-3,-5,7,-4,-7,-3,0
13795,0,-1,1,7,-5,-16,7,-3,0
13800,0,0,-1,1,-2,-4,-12,-1,0
13805,-1,-3,-3,-6,1,13,19,0,0
13810,-2,1,3,10,7,-3,-4,0,0
13815,-1,-1,-1,-1,-2,11,2,-1,0
13820,-2,-2,-11,-18,-8,-12,-2,-2,0
13825,1,3,1,-1,-8,-4,-9,-4,0
13830,1,-1,-1,-3,7,3,0,1,0
13835,1,1,4,20,13,0,7,1,0
13840,-1,4,13,9,9,32,8,1,0
13845,-2,-9,-19,-28,-25,-11,-5,0,0
13850,-2,-2,-10,-5,-17,5,1,-2,0
13855,-1,-3,4,17,24,-5,-11,-2,0
13860,0,4,33,1,5,-12,0,2,0
13865,1,0,-24,5,4,6,1,4,0
13870,-3,-2,-6,-9,-20,-2,-6,-3,0
13875,2,-2,-13,-10,-12,1,-2,-1,0
13880,-1,0,1,-3,13,2,3,0,0
13885,3,3,21,22,19,5,1,0,0
13890,0,2,9,14,18,-3,-1,1,0
13895,0,-2,-7,-7,-1,11,-6,1,0
13900,-4,-5,-14,-21,-35,-10,-6,-6,0
13905,0,-1,3,-1,2,2,4,0,0
13910,-2,-3,-6,2,0,-5,-4,0,0
13915,2,2,5,-4,-1,-7,-5,0,0
13920,0,-1,-9,4,-1,-1,2,-3,0
13925,-2,2,3,8,9,8,5,0,0
13930,0,1,7,0,5,5,1,0,0
13935,0,1,4,-1,3,16,9,-4,0
13940,-1,-1,-11,0,-9,-17,-6,0,0
13945,-2,-2,2,-1,4,-19,-19,-1,0
13950,-1,-2,0,-6,-14,-20,-26,-10,0
13955,-1,0,-2,-11,-12,23,12,-3,0
13960,-5,-6,-2,10,13,-10,11,14,0
13965,25,19,13,10,13,-4,5,4,0
13970,-32,-5,4,-3,-3,11,18,-9,0
13975,-14,-11,-5,-4,-4,-13,-6,-2,0
13980,-40,-17,-10,-5,-4,1,27,11,0
13985,81,37,10,2,-8,-26,-21,-4,0
13990,6,3,1,4,-1,10,32,12,0
13995,7,3,1,-5,1,6,-7,34,0
14000,8,2,-4,-5,-6,-10,-15,-27,0
14005,-32,-15,-5,-1,4,34,43,1,0
14010,14,2,0,-1,0,-13,11,21,0
14015,5,1,1,-4,-12,-37,-36,-13,0
14020,21,9,4,5,8,58,65,18,0
14025,-19,-10,2,2,2,-1,-11,-11,0
14030,-6,-5,-6,-7,-4,-8,-14,-39,0
14035,-12,-7,-6,-6,-7,-4,3,-4,0
14040,8,11,-1,3,2,-22,-20,4,0
14045,-15,-14,1,4,4,0,-20,-15,0
14050,-8,2,0,0,6,39,37,0,0
14055,-53,-2,0,-2,-3,0,15,20,0
14060,69,-3,-6,-1,-5,-8,-52,12,0
14065,7,0,2,3,4,27,71,59,0
14070,6,-3,-5,-7,-5,-34,-29,-14,0
14075,-3,3,1,2,6,-1,-16,4,0
14080,-9,-2,1,2,-3,8,12,-3,0
14085,-21,-5,-3,-1,-1,-4,-23,-1,0
14090,17,2,0,2,10,-23,-5,9,0
14095,7,0,-1,-3,-6,9,-20,-26,0
14100,-15,-4,1,-2,-5,-6,15,13,0
14105,3,-3,-2,1,6,13,32,-2,0
14110,-18,-9,-1,1,-11,42,18,-4,0
14115,24,8,-1,0,-3,-52,-24,0,0
14120,-2,4,0,-6,-4,34,41,9,0
14125,-14,-3,-4,-5,2,30,36,-3,0
14130,23,7,3,2,-7,29,73,83,0
14135,8,1,0,2,1,16,64,-17,0
14140,-8,-4,-5,0,-6,-41,-29,-2,0
14145,3,-1,-6,-3,6,-3,-4,1,0
14150,2,3,1,3,16,-17,1,2,0
14155,7,2,2,2,16,65,24,-31,0
14160,-23,0,-4,-8,-28,-67,19,-7,0
14165,-2,1,3,-1,-4,27,69,-21,0
14170,-9,-6,-5,-8,-12,-22,-23,-26,0
14175,-4,2,5,11,24,-19,-44,-10,0
14180,-5,-2,3,23,57,37,-63,-27,0
14185,-3,-6,-12,-21,3,41,-34,-4,0
14190,-3,-7,-14,-40,-99,-106,-46,-26,0
14195,2,-7,-8,-17,-13,70,52,32,0
14200,-1,2,3,6,5,-1,46,0,0
14205,-2,1,9,19,26,-40,-64,0,0
14210,-2,-1,-1,12,43,34,-18,3,0
14215,1,-11,-10,-5,-4,-26,-9,0,0
14220,-6,4,-9,8,5,1,-23,1,0
14225,2,-17,-4,-2,-5,-7,6,-12,0
14230,-33,9,-6,-12,-2,-5,-45,-62,0
14235,31,39,42,22,-2,-10,-4,41,0
14240,-22,-3,-9,4,15,21,7,6,0
14245,13,-17,-16,-13,-4,-2,-5,4,0
14250,-5,-6,-1,-6,7,-16,-61,-22,0
14255,11,4,4,7,2,52,74,65,0
14260,9,-4,6,14,30,32,35,37,0
14265,-18,-4,-10,-11,-6,-27,-18,-15,0
14270,-1,-5,-2,-11,-56,-15,10,5,0
14275,-14,1,-8,-8,-19,-76,-41,-13,0
14280,11,3,2,-7,0,17,-33,-4,0
14285,-4,-1,-4,3,11,-27,-6,-7,0
14290,-5,-9,-5,-24,-64,-1,21,1,0
14295,-6,3,6,7,14,-23,-42,-9,0
14300,8,3,3,5,8,10,2,-5,0
14305,-2,-4,0,9,5,-4,-6,-13,0
14310,-10,1,6,8,23,6,-7,-1,0
14315,-10,4,0,-1,-6,8,-23,-12,0
14320,10,-1,5,8,14,-38,-34,1,0
14325,1,0,-5,-2,-16,52,53,14,0
14330,2,1,3,5,18,-27,-27,1,0
14335,-4,2,-5,-14,-17,-4,-13,-11,0
14340,5,-2,-3,4,2,-24,-5,0,0
14345,-12,-2,1,2,-6,-4,-55,-29,0
14350,6,3,-2,-2,14,-3,6,1,0
14355,-2,1,-4,-4,-29,-84,-49,-12,0
14360,-1,-3,2,3,26,74,49,9,0
14365,-1,1,-3,-8,-22,-37,14,5,0
14370,-6,-9,-8,-8,11,-8,5,-2,0
14375,-11,-2,-6,3,1,3,-27,-16,0
14380,5,5,6,7,-31,-25,-13,-6,0
14385,6,12,11,-3,7,7,28,9,0
14390,1,-3,1,0,14,6,20,3,0
14395,-1,-5,-5,-7,-17,-13,-34,2,0
14400,-3,-3,-3,5,6,21,-24,-10,0
14405,-2,-10,-1,2,10,0,-25,-4,0
14410,4,3,-5,0,10,56,64,12,0
14415,-1,0,-3,0,30,16,29,9,0
14420,3,-3,3,-7,-27,-21,-22,5,0
14425,-7,-7,-12,-14,-17,-5,-15,2,0
14430,-3,-2,-1,3,4,-4,-25,-8,0
14435,-2,1,1,-2,5,28,16,-3,0
14440,3,4,5,6,15,62,32,9,0
14445,-6,-16,-14,-2,6,-28,10,-2,0
14450,3,17,12,4,2,3,-16,1,0
14455,5,4,16,16,-13,-11,28,9,0
14460,0,-8,-2,-5,-20,-9,0,2,0
14465,0,17,0,-10,-15,16,7,0,0
14470,-7,-32,-14,-4,17,23,-16,-8,0
14475,-9,-40,-20,-14,-38,-44,-6,-7,0
14480,-2,23,11,23,52,20,1,-8,0
14485,14,23,11,-3,-36,-23,12,12,0
14490,5,40,9,-11,-22,-14,-16,-2,0
14495,10,23,24,4,-4,8,16,7,0
14500,3,5,0,-5,-7,-54,-6,17,0
14505,-8,-37,-11,12,36,58,2,-15,0
14510,-2,9,-4,-7,-18,-22,-18,-9,0
14515,1,-17,-3,5,24,6,15,4,0
14520,-1,-7,-6,1,1,-1,9,1,0
14525,-4,-4,-3,10,14,-27,-20,-10,0
14530,-4,-11,1,4,-1,26,12,-2,0
14535,2,-10,6,-18,1,-16,-15,-5,0
14540,-6,-26,-33,-4,-16,15,8,-7,0
14545,-3,55,10,11,13,-7,1,-5,0
14550,2,-21,-12,-15,6,14,-8,3,0
14555,1,25,4,-1,-24,-36,13,2,0
14560,-3,-28,-1,-19,-20,-46,-4,0,0
14565,-5,-44,-22,-10,-11,10,-16,-9,0
14570,-4,0,7,19,13,-2,6,9,0
14575,3,25,-2,7,12,9,-15,7,0
14580,12,43,23,11,9,8,-3,-7,0
14585,1,15,8,9,8,8,-20,21,0
14590,5,-76,-20,-6,-5,-27,7,-6,0
14595,-19,0,-32,-6,0,9,16,12,0
14600,-1,-5,6,1,2,2,-22,-22,0
14605,22,40,12,-12,-6,-24,8,-24,0
14610,-3,-8,2,-3,-12,-45,-17,28,0
14615,16,-20,-13,5,18,74,14,10,0
14620,-35,-57,1,-11,-4,-57,12,5,0
14625,-2,11,-13,2,2,28,25,6,0
14630,16,57,17,5,-5,10,-18,-17,0
14635,-22,-20,-2,-1,-1,-64,-22,-24,0
14640,-6,14,0,-1,-1,-11,6,8,0
14645,-36,-54,-6,-3,-4,-6,-10,-9,0
14650,-24,-18,-10,-9,-8,-1,4,-7,0
14655,16,24,3,-3,2,-31,0,1,0
14660,3,-5,-1,-6,-10,16,3,0,0
14665,10,-11,-1,4,11,12,-2,6,0
14670,-4,2,3,10,4,13,21,-2,0
14675,-18,17,38,4,10,35,13,-2,0
14680,15,0,-37,0,-2,-24,-17,-5,0
14685,-33,-75,-32,-19,-14,-5,-29,-15,0
14690,16,101,11,-2,-4,-9,10,1,0
14695,-11,-8,26,-1,2,43,31,3,0
14700,30,125,44,10,12,12,5,2,0
14705,22,13,22,20,8,-27,-8,8,0
14710,-18,-45,-24,-15,-7,37,5,-4,0
14715,5,-45,-27,-21,-16,-1,-14,-7,0
14720,-12,-20,-6,1,6,1,-3,3,0
14725,5,16,4,0,-5,-25,30,4,0
14730,-4,-21,8,5,6,-6,-16,-4,0
14735,12,7,-3,25,26,46,15,5,0
14740,0,-7,-5,-13,-18,-3,-5,-3,0
14745,3,7,3,-9,0,5,2,1,0
14750,-9,-4,5,14,-3,-29,-9,-4,0
14755,3,10,-2,0,10,15,-10,0,0
14760,6,-13,-5,-6,0,30,10,0,0
14765,-7,1,6,10,10,-1,1,2,0
14770,1,1,-7,-25,-29,-66,-9,-3,0
14775,0,3,-13,-7,-15,-25,-36,-11,0
14780,-3,-19,-3,16,19,65,22,5,0
14785,3,7,1,6,4,43,14,5,0
14790,9,-15,12,19,16,4,-6,-1,0
14795,-1,16,13,7,4,10,0,-3,0
14800,-4,9,-45,-35,-11,-20,-3,-5,0
14805,-7,-32,-10,-10,-9,-16,-5,-1,0
14810,15,54,7,28,28,40,8,8,0
14815,12,-5,32,-14,-8,-5,4,0,0
14820,2,-9,9,-14,-27,-3,-6,0,0
14825,-1,3,-15,-17,-4,6,4,-1,0
14830,-8,-34,-12,0,-2,-8,-17,-5,0
14835,-1,1,-8,3,5,-59,14,1,0
14840,-7,-8,15,23,15,-9,-16,-7,0
14845,12,4,4,11,3,35,20,9,0
14850,-4,-5,7,-14,-14,9,12,4,0
14855,-6,5,-18,-19,-15,-29,-21,-8,0
14860,1,-19,-7,-4,-6,12,2,0,0
14865,0,14,14,12,3,13,-9,-2,0
14870,1,12,5,40,50,6,-4,-1,0
14875,-4,3,-7,-36,-33,63,22,1,0
14880,2,-2,5,-7,-21,-35,-14,-1,0
14885,6,3,8,-3,-15,-44,-20,-7,0
14890,8,18,29,8,-3,13,17,7,0
14895,-24,-59,-62,13,18,-14,-21,-12,0
14900,-8,2,9,-1,9,15,8,-3,0
14905,-1,25,18,-12,-9,-16,-12,-11,0
14910,-9,-18,-30,-22,-17,-6,-4,2,0
14915,0,33,6,13,8,18,12,10,0
14920,-13,-4,7,17,21,1,2,-2,0
14925,-3,-11,-4,-3,-2,-18,-5,1,0
14930,7,1,23,3,-20,10,18,-4,0
14935,3,-4,-9,13,-3,-28,-4,1,0
14940,-2,-9,-10,-12,0,12,21,2,0
14945,-1,6,2,-3,13,-9,-18,-8,0
14950,-3,-9,-2,-3,1,23,18,7,0
14955,-2,4,37,17,-15,-47,-28,-5,0
14960,5,-8,-58,-19,-6,20,-8,1,0
14965,10,0,-30,-15,-10,-78,12,7,0
14970,-4,-5,-12,-3,12,75,2,1,0
14975,0,9,29,21,29,17,-1,-2,0
14980,12,0,38,14,-5,-38,2,-1,0
14985,3,5,2,-4,-6,15,-7,4,0
14990,-47,-16,-2,-15,-9,-6,-19,-16,0
14995,89,18,-16,-8,8,55,22,14,0
15000,-7,-4,5,1,-8,34,-15,-4,0
15005,7,-5,-2,1,16,18,54,12,0
15010,-40,10,93,72,17,-26,-16,-4,0
15015,50,5,-46,-34,-21,-4,13,21,0
15020,-18,-7,-65,-26,-5,0,0,-8,0
15025,-45,-16,8,-3,-25,-53,-61,-31,0
15030,-2,2,-30,-18,18,32,47,-2,0
15035,-31,-18,26,13,6,18,-39,-19,0
15040,43,7,-1,13,3,-32,50,6,0
15045,46,-15,5,1,9,63,-97,-14,0
15050,-34,-4,-10,-7,2,-13,57,27,0
15055,10,18,-2,5,4,-32,-29,-19,0
15060,42,-9,31,0,2,-58,-3,31,0
15065,-23,3,-17,-9,2,58,32,-45,0
15070,72,-20,-38,-16,-27,-73,-65,18,0
15075,-12,-1,1,1,7,46,53,3,0
15080,6,25,58,19,15,-30,-64,8,0
15085,-40,-33,-37,-4,-3,45,65,15,0
15090,-14,-29,-51,-28,-9,1,10,-5,0
15095,-37,21,8,-23,-8,-40,-64,-39,0
15100,46,-1,3,31,26,52,43,36,0
15105,-11,9,38,22,-3,-26,-29,12,0
15110,-45,3,-6,-26,-10,-19,-20,-13,0
15115,-6,-8,-21,-26,-27,-2,10,5,0
15120,-41,-11,9,-1,-23,-16,-32,-34,0
15125,-7,8,2,24,21,9,15,3,0
15130,36,10,20,19,26,-2,-13,-2,0
15135,-15,-5,1,-5,-19,-19,25,7,0
15140,-28,-2,-18,-18,-11,22,-14,-1,0
15145,-3,0,-9,-32,-42,-48,18,3,0
15150,29,14,-3,-3,-7,-34,-10,-2,0
15155,0,1,21,23,29,56,-32,4,0
15160,-33,-6,-2,-1,6,18,-6,-25,0
15165,20,7,-1,15,24,17,23,23,0
15170,5,11,13,3,-4,-23,-70,-22,0
15175,-14,-6,1,11,15,5,72,19,0
15180,-4,-4,-4,0,-3,13,2,-4,0
15185,5,8,4,-6,3,-3,-3,6,0
15190,2,-2,-12,-13,-14,1,-12,-6,0
15195,-14,-11,-5,-4,-9,-22,-5,1,0
15200,0,6,6,9,9,1,4,-6,0
15205,11,8,8,8,17,2,5,4,0
15210,0,-3,-6,2,17,19,14,1,0
15215,0,-8,-13,-12,-28,-31,-16,-1,0
15220,-9,-4,-11,-37,-39,-11,15,-3,0
15225,-1,11,28,-1,-10,-14,-17,-5,0
15230,5,17,27,63,33,22,12,-1,0
15235,-2,-13,-40,-6,34,9,6,4,0
15240,8,-1,0,-11,-10,-18,-24,-7,0
15245,-16,-9,-11,-29,-51,-18,-1,1,0
15250,-5,1,-7,-16,-16,1,8,-6,0
15255,-2,2,34,27,18,-4,-3,0,0
15260,-17,-12,-9,10,10,-7,-12,-2,0
15265,22,0,-9,11,21,21,15,-6,0
15270,1,16,22,-2,-6,-2,-8,9,0
15275,-13,-5,-2,5,0,0,-9,0,0
15280,-5,2,-1,-3,6,-43,-14,1,0
15285,-4,0,2,5,12,71,11,1,0
15290,-4,-11,-17,-18,-6,-45,-14,-9,0
15295,-1,-2,-1,-6,-13,9,12,1,0
15300,0,7,10,4,-5,10,8,0,0
15305,-3,-6,-20,-20,-19,-83,-43,-7,0
15310,5,-27,-26,-1,-1,61,51,7,0
15315,-5,8,9,-14,1,-33,-8,-3,0
15320,-2,-26,-9,-8,-9,8,-18,-5,0
15325,-7,41,15,15,10,-14,5,7,0
15330,15,17,7,-6,-8,-11,-9,-2,0
15335,-24,5,27,18,2,-3,-4,-1,0
15340,-40,-36,-22,2,8,11,13,-3,0
15345,-8,19,-7,-9,-3,34,5,1,0
15350,36,43,11,-9,-17,-76,-23,-7,0
15355,28,-15,4,18,18,99,45,17,0
15360,-9,14,13,3,10,-5,11,-3,0
15365,-1,-38,-9,2,11,8,-8,8,0
15370,-12,-2,-3,-5,-8,-26,-6,-9,0
15375,-3,-1,-3,-1,-3,15,-12,-5,0
15380,-10,-4,-3,-2,-2,-21,7,2,0
15385,57,5,-1,3,-2,2,23,10,0
15390,-11,-5,5,-5,6,38,5,-7,0
15395,21,-2,-11,-14,-23,-67,-14,-12,0
15400,31,16,22,28,34,96,43,31,0
15405,-45,15,3,23,18,-76,-23,-32,0
15410,-33,-34,7,-41,-31,-37,-30,2,0
15415,-37,-19,-38,-26,-42,-12,28,-6,0
15420,1,16,4,-2,5,-48,-4,19,0
15425,-62,-6,-15,-5,-3,26,-15,-16,0
15430,-23,-28,-39,-9,-8,0,2,-25,0
15435,-31,-21,14,15,24,46,-9,-10,0
15440,-39,-6,-8,-1,-15,-37,-19,-36,0
15445,22,6,7,-1,12,0,9,45,0
15450,54,101,52,24,11,80,33,36,0
15455,30,24,20,-3,-3,-41,-10,20,0
15460,-4,0,1,5,0,16,-4,-3,0
15465,6,-39,-3,-1,0,10,-4,-18,0
15470,-6,-42,-25,-9,-3,47,10,-5,0
15475,-14,-2,-8,4,-15,-97,-25,-37,0
15480,4,-9,-5,-14,7,18,-1,1,0
15485,20,2,6,4,-4,-21,11,4,0
15490,-9,-20,-8,0,20,23,11,16,0
15495,-14,-16,-18,-8,-22,-30,-9,-1,0
15500,10,20,-6,-7,-13,-15,-2,-19,0
15505,3,-38,14,-7,-8,7,-5,8,0
15510,-22,12,-18,12,8,-10,8,1,0
15515,21,57,51,13,17,22,6,29,0
15520,-1,-28,-17,-9,-5,8,-14,-7,0
15525,2,17,-4,-4,-3,3,15,16,0
15530,2,-18,15,9,-2,-17,-11,-2,0
15535,-12,-29,-20,-5,4,14,-9,-30,0
15540,15,25,14,9,14,-6,1,2,0
15545,-8,-38,-23,-19,-34,-22,-7,17,0
15550,3,23,2,-11,-7,-17,-5,-65,0
15555,5,-2,-8,-3,5,17,17,35,0
15560,-9,-7,12,3,4,2,4,-2,0
15565,-14,-6,-11,-1,4,5,-16,-24,0
15570,15,32,4,-6,-6,-14,-5,-16,0
15575,22,68,29,13,11,14,11,26,0
15580,7,-10,-7,-1,-5,2,4,25,0
15585,6,1,9,3,4,-5,8,0,0
15590,-9,-36,-9,6,-2,-9,-8,-5,0
15595,-14,-37,-6,-4,13,4,-11,-28,0
15600,13,18,36,39,10,1,6,9,0
15605,-21,-11,-63,-48,-35,-7,-1,-30,0
15610,-1,-14,-25,-21,-15,-14,-11,-26,0
15615,-5,10,-9,-4,-4,3,0,29,0
15620,2,-5,5,3,3,-1,7,-4,0
15625,16,-3,54,24,16,3,-2,5,0
15630,-14,8,-25,6,5,-1,-3,1,0
15635,-4,-18,10,8,4,0,-1,-1,0
15640,-3,4,-32,-8,-3,-1,-2,-5,0
15645,1,16,13,5,6,-2,-4,-8,0
15650,-2,-32,-12,-7,-1,-3,5,21,0
15655,6,-4,-3,2,0,3,-2,2,0
15660,4,13,3,-4,-5,0,1,1,0
15665,1,-12,11,4,-1,-3,-5,7,0
15670,1,-39,-27,-5,0,-4,-5,10,0
15675,9,33,6,-6,3,6,5,10,0
15680,-19,17,2,-15,-9,-4,-4,-15,0
15685,-2,10,-16,10,9,9,11,14,0
15690,17,26,61,42,34,3,1,24,0
15695,-23,-34,-18,-13,-31,-5,-5,-31,0
15700,11,-3,-20,-38,-23,-18,-13,-2,0
15705,-1,0,-3,-9,-14,2,1,-12,0
15710,-3,0,-3,-6,-5,-8,-3,18,0
15715,3,-14,-17,4,12,3,-4,-22,0
15720,1,6,19,15,10,-1,4,-7,0
15725,7,17,6,7,13,6,-5,0,0
15730,3,-5,11,-1,-3,6,3,17,0
15735,-1,1,-3,-2,-11,-14,5,-9,0
15740,-2,-12,-5,-3,-5,0,1,-1,0
15745,5,9,4,3,15,1,-4,5,0
15750,-13,-7,-6,-8,-3,-1,-1,-3,0
15755,-3,-4,-2,0,6,5,1,7,0
15760,1,-1,-7,2,1,1,-5,9,0
15765,-1,1,0,0,-1,-3,-2,-15,0
15770,0,2,0,-5,-3,-2,-3,3,0
15775,-5,-5,-2,0,0,0,-7,-15,0
15780,7,-4,-4,1,-1,1,-1,4,0
15785,2,8,4,1,-1,-2,-1,5,0
15790,-2,6,9,-1,-9,-3,-1,1,0
15795,3,1,3,1,4,-3,-5,9,0
15800,-1,-7,-3,-1,-1,1,-2,1,0
15805,-3,-2,0,-4,1,3,5,-7,0
15810,-9,0,2,6,2,-2,1,1,0
15815,3,-1,1,0,0,3,8,-7,0
15820,-6,3,5,5,1,-4,-4,-4,0
15825,1,0,-4,-10,-10,-7,-2,2,0
15830,-2,-7,-21,-18,-8,-4,-2,-4,0
15835,1,0,3,-1,5,-1,-6,6,0
15840,0,-3,-13,3,3,4,1,-5,0
15845,-6,-8,9,6,2,-2,-1,5,0
15850,2,4,11,4,1,0,-1,2,0
15855,3,14,-1,-2,3,2,0,2,0
15860,-5,0,3,-1,-3,2,4,-1,0
15865,18,3,-1,6,4,0,2,17,0
15870,-1,-19,-14,-5,-4,-2,-1,-3,0
15875,0,13,2,-2,-1,0,-1,-1,0
15880,-6,-3,2,-3,-2,-2,-3,-2,0
15885,-2,5,-5,-2,-2,-4,2,1,0
15890,5,0,2,0,-2,5,1,4,0
15895,6,-3,-1,3,8,-1,2,7,0
15900,-12,-4,-4,-9,-2,-1,-7,-24,0
15905,1,-3,-4,3,4,0,-1,12,0
15910,9,5,2,-5,-4,1,3,-5,0
15915,-27,-14,-1,11,5,-2,-9,-22,0
15920,-2,7,1,-4,2,6,7,6,0
15925,-4,2,13,-5,-9,-2,-5,-7,0
15930,2,-3,-20,-6,-9,-5,4,6,0
15935,2,0,3,-7,-7,-2,-2,-5,0
15940,1,-8,-14,-4,2,-2,-5,-7,0
15945,-10,0,1,4,6,-3,-5,-7,0
15950,1,6,10,9,6,4,5,11,0
15955,13,5,36,30,9,3,4,20,0
15960,3,-14,-35,-19,-5,-4,2,13,0
15965,5,10,7,-6,-6,0,-1,-11,0
15970,-6,12,19,12,-8,0,0,-13,0
15975,-7,-28,-105,-46,6,-6,-17,-5,0
15980,4,4,26,11,-2,-4,-4,7,0
15985,-3,-4,-23,-16,-6,5,8,0,0
15990,-1,3,38,20,8,6,15,1,0
15995,4,9,28,4,-2,-1,-2,2,0
16000,6,1,1,2,-2,1,-1,1,0
16005,-9,-8,-9,0,-15,-12,-17,-9,0
16010,-4,-8,-8,-11,-4,-7,-9,-6,0
16015,6,13,26,26,11,11,10,1,0
16020,1,2,-8,8,19,3,-1,1,0
16025,0,-2,4,-10,-11,-7,-2,-5,0
16030,-3,-6,-17,-14,-15,-10,-12,0,0
16035,1,-5,-20,-8,-7,-6,-3,-1,0
16040,-1,6,31,10,-2,4,5,2,0
16045,3,11,36,38,36,10,2,2,0
16050,-2,1,9,-6,8,5,4,-5,0
16055,-6,-17,-43,-50,-39,-15,-6,-6,0
16060,2,4,5,6,-6,3,7,4,0
16065,-4,-22,-76,-42,1,1,0,-6,0
16070,-3,7,12,10,-9,-4,-4,-4,0
16075,1,5,32,16,2,-1,-2,-2,0
16080,2,-2,3,6,3,1,-4,-4,0
16085,-3,6,17,15,0,-8,-8,-2,0
16090,-1,-10,-16,-1,12,8,9,0,0
16095,0,1,11,9,3,3,7,0,0
16100,-6,-3,-11,-9,-9,-8,-9,-11,0
16105,4,2,12,3,0,-2,2,6,0
16110,-1,-2,-7,-5,1,-6,-13,2,0
16115,-1,1,5,-2,2,-2,-3,2,0
16120,-2,-5,-3,-3,-3,-1,-1,-2,0
16125,-1,-2,-2,0,-5,-5,-7,-6,0
16130,1,1,-5,-1,-1,-2,-9,-5,0
16135,5,1,-1,-3,1,3,15,6,0
16140,0,2,4,12,8,6,10,2,0
16145,1,3,5,7,-2,-7,-14,-1,0
16150,-2,-5,-13,-18,6,-2,0,1,0
16155,0,1,3,-11,-24,3,6,-6,0
16160,-2,-2,-7,-20,-17,-8,-3,2,0
16165,2,0,14,12,-1,7,8,0,0
16170,0,1,2,20,12,6,5,0,0
16175,-2,-6,-23,-13,11,-7,-16,-3,0
16180,2,-4,-12,-16,-3,3,15,-3,0
16185,-8,0,-6,-2,-12,4,13,7,0
16190,-2,0,6,-3,2,-4,-4,-4,0
16195,-2,5,20,16,7,-4,-13,-3,0
16200,2,2,0,20,11,-1,-12,-1,0
16205,0,-1,0,-11,2,-1,6,-2,0
16210,0,-1,-7,-16,-17,3,9,3,0
16215,-1,-3,9,2,-9,-7,-15,-7,0
16220,1,0,-6,-4,-4,1,4,4,0
16225,3,-2,-17,0,4,6,17,2,0
16230,1,1,2,15,27,3,-6,1,0
16235,0,3,3,7,-10,8,13,5,0
16240,-6,0,5,-9,-2,-9,-11,-5,0
16245,-4,1,7,7,-3,0,-2,-6,0
16250,0,6,43,2,-11,-6,-15,-3,0
16255,-7,-13,-56,8,23,7,16,5,0
16260,-5,-4,-7,-22,-3,-1,-3,-4,0
16265,-4,0,-1,-10,-14,-3,-4,-3,0
16270,-7,-6,-29,-10,-1,-3,7,-4,0
16275,13,8,34,15,1,-6,-6,13,0
16280,0,1,-1,18,6,-1,-10,-2,0
16285,-4,-4,-5,-13,-10,-14,-29,-9,0
16290,3,3,9,0,-2,8,22,1,0
16295,-1,1,9,-1,4,31,0,-4,0
16300,0,-4,-15,-6,-7,-6,12,3,0
16305,5,3,11,10,10,14,-14,-4,0
16310,-2,-3,-12,1,-4,-16,-4,-2,0
16315,-3,-7,-7,-4,3,-1,3,1,0
16320,0,4,11,-10,-4,3,-4,-1,0
16325,2,4,-1,20,8,-1,8,1,0
16330,3,-2,7,-9,-4,-6,-4,4,0
16335,-12,-4,-3,-20,-9,6,1,-10,0
16340,-1,-6,-8,2,9,7,-5,0,0
16345,1,-6,-19,-13,-2,0,5,3,0
16350,-6,-3,20,23,-5,-11,-9,-3,0
16355,-1,-5,-17,-24,0,-22,-28,-8,0
16360,1,3,-3,2,-11,9,38,3,0
16365,-1,3,5,2,-3,13,15,6,0
16370,6,-10,-38,-24,-12,-2,-5,5,0
16375,-2,4,25,10,-6,-11,-9,-2,0
16380,-4,-2,-1,10,5,-4,-3,-4,0
16385,-2,-5,6,1,5,19,-1,-4,0
16390,-11,2,21,10,0,-4,-7,-5,0
16395,-12,5,2,8,7,-3,2,-4,0
16400,32,0,-31,-20,-8,-7,-2,10,0
16405,2,-5,15,-2,-3,-10,2,-8,0
16410,14,7,-22,-3,13,6,-6,4,0
16415,5,-2,33,32,-18,3,1,-9,0
16420,-28,8,-21,-37,-8,-3,-6,-2,0
16425,7,6,11,2,3,-9,-10,10,0
16430,-15,-13,-37,-36,-20,3,1,-11,0
16435,0,-2,17,10,15,-2,5,2,0
16440,-1,-1,17,19,5,5,-5,-2,0
16445,0,-4,-17,-14,-4,-6,3,0,0
16450,-3,6,16,19,15,9,2,1,0
16455,6,1,-16,5,4,2,11,5,0
16460,-9,-3,18,4,-7,-9,-14,-2,0
16465,3,1,-36,-20,11,-2,1,1,0
16470,2,1,21,8,-21,4,3,0,0
16475,-5,-3,-23,-17,-5,-5,-6,-2,0
16480,5,-1,38,34,26,4,3,6,0
16485,0,-8,-11,-16,-9,-3,2,0,0
16490,0,1,-21,-8,-15,-7,-8,4,0
16495,-1,-4,1,-20,-9,-10,-11,-6,0
16500,-1,3,-3,0,3,9,8,-5,0
16505,1,0,23,16,11,-4,-1,2,0
16510,-2,-11,-33,-4,6,4,11,-3,0
16515,7,10,21,7,4,2,11,5,0
16520,5,-7,-4,2,-2,-6,-11,-5,0
16525,-13,-5,-6,4,0,0,-5,-3,0
16530,3,5,4,-12,-10,-5,-9,-3,0
16535,-5,-3,1,4,4,0,4,-2,0
16540,1,1,7,9,12,2,1,0,0
16545,-1,2,3,-11,-18,-5,-3,-2,0
16550,0,1,11,-3,10,0,-3,2,0
16555,3,0,-14,9,15,6,4,2,0
16560,-3,-2,7,3,-17,-5,-7,-4,0
16565,3,4,16,19,10,1,5,-1,0
16570,0,-4,-21,-10,-3,2,8,3,0
16575,2,-1,-10,-14,-9,-1,1,-1,0
16580,0,-4,-9,-12,1,-4,-6,-1,0
16585,-3,0,7,9,-2,-1,-2,0,0
16590,-4,4,13,17,14,6,6,0,0
16595,-1,1,-1,3,2,3,2,3,0
16600,6,-8,-11,-4,-7,-6,1,-4,0
16605,-21,-4,5,0,-9,-4,-17,-10,0
16610,8,9,15,5,5,1,1,6,0
16615,-8,1,-27,-8,-4,0,1,1,0
16620,-8,-2,0,-5,6,0,-1,3,0
16625,8,-1,-8,-5,-6,-1,0,2,0
16630,-13,-10,3,1,-2,-4,2,-3,0
16635,-2,-4,-4,-5,-7,-2,-8,-3,0
16640,3,8,10,6,1,2,0,-1,0
16645,-1,-2,-7,0,5,2,4,0,0
16650,2,-3,-15,-1,11,-2,-15,-5,0
16655,5,-1,19,-2,-16,-6,4,3,0
16660,-1,-7,-18,-13,-13,-3,0,0,0
16665,1,3,0,-6,-3,-1,-3,-3,0
16670,1,0,16,18,6,2,-5,-5,0
16675,5,-3,-15,1,12,6,6,3,0
16680,-3,2,10,9,6,1,-3,-2,0
16685,1,-3,-14,-14,0,-3,1,0,0
16690,2,0,-1,-11,-26,-5,-1,-4,0
16695,-3,-5,4,-3,2,-3,-11,-3,0
16700,0,0,4,5,-9,1,3,3,0
16705,1,0,-4,5,3,-2,-8,-1,0
16710,2,-2,0,10,41,8,17,3,0
16715,0,7,2,1,-17,3,-4,-1,0
16720,1,4,16,5,6,0,0,5,0
16725,0,-9,-16,-11,-7,-4,-3,-2,0
16730,-3,-2,-3,-12,-8,-5,-6,-4,0
16735,-1,-5,-14,-2,3,-2,-4,1,0
16740,-2,2,10,1,1,2,-1,-3,0
16745,1,0,-10,8,6,-2,7,2,0
16750,3,1,9,0,-9,-4,-6,-3,0
16755,1,-2,-14,-10,-5,-2,-1,-5,0
16760,0,2,11,2,-7,2,3,-1,0
16765,3,7,15,19,9,5,7,2,0
16770,1,3,-6,19,6,7,1,0,0
16775,0,-7,8,-10,9,1,0,-3,0
16780,0,1,-37,-26,-17,-7,-4,-4,0
16785,-6,-5,16,3,-12,-3,-1,-3,0
16790,4,13,-20,-16,-6,-2,0,3,0
16795,-9,-6,-5,12,5,-1,-1,-1,0
16800,26,5,17,7,15,5,-2,4,0
16805,-10,1,29,10,-2,-2,-1,-1,0
16810,-1,-10,-51,-6,-2,4,4,1,0
16815,-5,4,3,-9,-9,-2,2,0,0
16820,-7,-1,3,9,8,2,12,1,0
16825,4,3,3,6,-5,4,-6,-3,0
16830,-1,-2,16,-11,-2,-10,-16,1,0
16835,3,-3,-15,-6,-7,-3,9,0,0
16840,-10,-3,-14,1,3,-8,-13,-6,0
16845,5,10,17,6,10,8,2,4,0
16850,-7,-4,29,10,-20,9,11,0,0
16855,7,0,-55,-40,0,-14,-23,-2,0
16860,-10,-7,11,-7,-12,-8,-1,-2,0
16865,-1,0,-30,-6,9,0,-7,-2,0
16870,-1,8,23,7,-1,1,11,2,0
16875,2,8,37,30,2,8,4,3,0
16880,-8,-10,10,3,7,2,-4,-3,0
16885,-1,-4,11,-8,1,2,3,-1,0
16890,2,-4,-24,-15,-16,-15,-12,1,0
16895,-6,0,-9,-1,4,6,9,-4,0
16900,2,-4,-17,4,-8,-2,-10,0,0
16905,-16,-1,44,8,5,5,19,-2,0
16910,15,1,-17,5,5,1,-3,2,0
16915,-3,3,30,1,15,1,-5,-1,0
16920,3,4,-10,5,-16,3,4,-1,0
16925,-5,1,8,-4,-2,-8,-7,-1,0
16930,-5,-10,-37,-20,3,-8,-3,-5,0
16935,0,-1,14,4,-3,14,4,0,0
16940,0,0,-2,-1,1,-2,1,-3,0
16945,4,0,-4,-4,-4,-6,-6,0,0
16950,-7,-8,4,2,16,1,-9,0,0
16955,3,2,10,1,-12,-6,5,-4,0
16960,-6,-4,-6,5,7,-3,7,0,0
16965,2,-5,-14,-6,-6,0,-1,4,0
16970,-2,0,5,-3,-3,-2,-4,0,0
16975,-5,3,27,20,-4,-3,-6,-2,0
16980,1,8,1,-19,5,3,-1,2,0
16985,0,1,-10,15,17,1,5,0,0
16990,-3,-7,-14,-3,0,1,4,-3,0
16995,1,2,-4,-8,-22,-6,-3,2,0
17000,-4,-1,6,-15,-16,-12,-9,-6,0
17005,5,1,-11,-6,0,1,-5,-1,0
17010,-1,5,38,23,14,6,4,0,0
17015,1,-6,-20,-4,6,-5,-3,2,0
17020,1,5,15,27,16,5,-11,-1,0
17025,-1,-5,-47,-46,-24,-3,14,0,0
17030,-2,-18,-27,-12,-18,-17,-28,-11,0
17035,-3,6,23,12,3,7,32,9,0
17040,0,-6,-10,-9,5,9,-2,0,0
17045,11,2,26,23,5,-9,-10,-1,0
17050,-5,3,19,5,1,4,6,-1,0
17055,-4,-10,-25,-10,1,-5,-13,-6,0
17060,0,4,16,3,-6,-3,3,4,0
17065,-6,-13,-29,-1,11,13,1,1,0
17070,7,-2,-3,-13,0,-2,4,0,0
17075,-13,-5,9,4,-3,-12,-21,-8,0
17080,5,10,-10,-11,-5,7,31,1,0
17085,-3,-5,-8,-9,-6,-14,-17,-5,0
17090,0,8,7,4,-3,2,13,3,0
17095,5,0,8,0,-1,-2,-2,1,0
17100,-1,-4,-5,9,3,4,-6,-1,0
17105,4,0,-9,0,-2,-3,3,-2,0
17110,-4,5,1,-1,-2,-1,0,-3,0
17115,0,-1,8,6,1,4,-1,-1,0
17120,2,1,2,-2,5,-7,-7,1,0
17125,-2,9,-23,-5,-7,-17,-2,1,0
17130,3,1,35,31,48,40,13,5,0
17135,-2,-4,-35,-29,-39,-11,-8,-1,0
17140,-6,-14,-45,-32,-4,-4,-5,-4,0
17145,-3,3,25,8,-8,-12,-8,-2,0
17150,-2,0,2,8,0,-13,-8,-1,0
17155,6,5,13,19,23,23,12,4,0
17160,-3,7,43,33,7,6,6,-3,0
17165,7,12,6,-7,0,4,6,3,0
17170,1,-13,-41,-43,-27,-21,-3,-3,0
17175,1,1,13,8,6,-3,-4,-1,0
17180,-7,-5,-14,-6,-10,-8,-23,-5,0
17185,1,7,28,20,8,8,7,-2,0
17190,-1,4,11,-2,-1,-7,-6,-4,0
17195,5,-2,-28,-19,-16,13,34,5,0
17200,-5,0,12,11,5,-6,-6,1,0
17205,-5,-4,-7,-5,10,4,-4,-2,0
17210,2,3,0,12,-7,-7,-9,7,0
17215,1,-5,-10,-18,-8,-7,-19,-7,0
17220,-15,-6,-10,-13,-18,-5,4,-15,0
17225,6,-4,5,9,2,-5,-17,3,0
17230,-3,2,-2,-2,12,23,27,8,0
17235,3,-1,0,4,-11,-22,-34,-3,0
17240,9,4,-3,-2,5,8,21,2,0
17245,-11,-7,-17,-19,-8,0,-17,6,0
17250,2,14,22,17,0,4,14,-7,0
17255,-8,-1,5,9,16,-25,-40,-1,0
17260,9,-2,-4,4,14,40,71,4,0
17265,-3,-8,1,-6,-7,13,22,-6,0
17270,9,13,-2,-7,-10,-20,-22,-4,0
17275,-24,-8,2,1,5,20,12,5,0
17280,1,2,-6,-9,-18,-11,-61,-8,0
17285,-5,1,21,15,22,0,24,11,0
17290,14,-10,-22,-1,-14,26,22,1,0
17295,1,3,-23,-27,-5,-14,-2,-14,0
17300,14,6,-1,-4,-3,-9,-15,-5,0
17305,-38,-15,-4,3,11,-8,-18,-40,0
17310,-13,-8,8,5,-12,-10,-20,-74,0
17315,18,9,18,13,13,11,31,49,0
17320,-1,-9,-10,-10,-6,-6,-8,-13,0
17325,19,-8,-15,-9,-10,-4,5,7,0
17330,-22,-48,-9,1,6,-7,-27,-46,0
17335,-2,66,8,7,7,17,7,15,0
17340,10,12,29,6,3,-15,-15,18,0
17345,-3,16,-3,15,2,10,-3,-1,0
17350,-7,-24,-7,-23,-7,-10,-12,12,0
17355,8,-41,-34,-23,-34,-10,3,-32,0
17360,-40,7,-14,-9,-5,-14,-1,-59,0
17365,34,34,31,13,2,2,-9,27,0
17370,10,13,18,20,18,24,29,75,0
17375,-9,-76,-2,12,23,5,-14,-7,0
17380,14,-3,-53,-8,-14,-3,7,-10,0
17385,-45,15,51,1,-29,-8,-10,-54,0
17390,38,36,-20,-33,-13,-17,1,43,0
17395,-15,4,19,7,10,2,-14,0,0
17400,7,-32,-8,12,24,14,24,26,0
17405,1,-49,-29,-1,-5,10,16,-5,0
17410,0,-25,-16,0,-4,-9,-20,28,0
17415,-1,44,8,-15,-11,-7,23,-30,0
17420,5,19,28,5,17,-11,-6,23,0
17425,10,-15,-19,-20,-27,8,-8,-1,0
17430,-18,3,5,17,18,-8,-6,-26,0
17435,6,4,11,15,21,12,0,1,0
17440,-2,50,39,0,-27,3,18,4,0
17445,18,7,-6,-9,2,-2,-22,14,0
17450,-6,-11,-6,-4,-4,-18,14,-18,0
17455,-10,-33,-26,-4,-6,-3,-5,0,0
17460,3,-19,-19,1,10,-4,-26,22,0
17465,0,25,25,1,3,2,39,-1,0
17470,-9,-1,1,0,-2,14,-8,-4,0
17475,9,13,10,6,8,-14,-10,-10,0
17480,-2,-6,15,13,29,17,-5,-6,0
17485,-4,-38,-41,-8,-13,-2,15,6,0
17490,-32,-54,-52,-34,-38,-23,-15,-17,0
17495,26,98,62,0,-9,4,3,-5,0
17500,-4,-41,-12,1,-2,1,10,15,0
17505,4,26,3,14,21,-2,-14,7,0
17510,3,23,30,16,17,13,4,5,0
17515,-10,-34,-33,2,17,-5,-7,-8,0
17520,-8,-7,-1,-13,-39,-14,8,2,0
17525,18,8,5,1,13,4,39,21,0
17530,-8,-11,-4,-6,-20,-15,3,-6,0
17535,-11,-22,-20,-8,-13,-10,-4,-24,0
17540,3,13,6,5,12,3,-15,-8,0
17545,-26,-42,-7,-2,1,0,3,-4,0
17550,44,56,29,4,13,17,13,38,0
17555,2,-11,0,23,16,10,12,13,0
17560,-4,4,-9,-18,-29,-15,-19,-12,0
17565,-12,-11,-34,-23,-12,-8,-22,-35,0
17570,8,-1,-1,7,11,5,8,40,0
17575,0,-1,11,9,-1,-1,-1,4,0
17580,-1,-24,-9,-1,5,10,8,-1,0
17585,16,55,3,-1,0,-6,-14,2,0
17590,-3,36,29,13,9,15,-7,-19,0
17595,-5,-31,-9,1,-15,-20,5,9,0
17600,-6,-12,1,6,8,10,26,7,0
17605,-2,-26,-23,-18,-4,-5,4,-5,0
17610,-7,-25,-14,-9,-1,6,-26,-10,0
17615,-2,30,1,3,7,1,1,-5,0
17620,0,1,13,2,10,22,-6,5,0
17625,5,6,8,6,5,-9,0,8,0
17630,-8,-6,0,4,-9,-11,13,-6,0
17635,-7,-33,-13,-6,-4,-5,-10,0,0
17640,1,32,3,3,6,-11,-10,-8,0
17645,-5,-10,-4,4,10,21,-8,4,0
17650,0,3,12,-7,-9,1,8,-2,0
17655,7,-4,-11,-11,-4,-1,-7,3,0
17660,-10,-23,-15,-2,0,-6,0,-8,0
17665,0,13,-16,-6,-14,-13,-16,-23,0
17670,-10,25,30,8,6,1,-6,-9,0
17675,3,-16,3,3,-1,5,13,22,0
17680,5,1,-14,4,5,-6,-4,18,0
17685,4,4,-3,-3,-2,-5,0,7,0
17690,4,17,-8,-1,6,10,9,-16,0
17695,2,2,18,6,-2,-1,-7,-5,0
17700,2,-13,-30,-18,-9,-7,-4,-1,0
17705,-8,-17,0,3,-4,-11,-23,-6,0
17710,0,0,-3,-5,0,-6,2,-1,0
17715,-3,6,6,7,6,18,25,0,0
17720,0,-2,12,10,3,-13,-9,-9,0
17725,2,5,3,-8,-5,12,8,15,0
17730,2,-8,-3,-7,-9,-19,-18,-3,0
17735,-8,-1,-5,-1,-3,24,29,-10,0
17740,2,0,3,1,1,-22,-26,-4,0
17745,1,12,14,10,12,8,16,4,0
17750,-7,-10,-7,-2,3,12,1,-25,0
17755,-3,-4,-9,-11,-10,-12,-14,12,0
17760,-2,4,2,-4,0,13,-4,4,0
17765,5,8,8,15,4,-9,-10,1,0
17770,-3,-10,1,8,6,11,12,0,0
17775,2,6,-3,-10,-8,-14,-24,-5,0
17780,-5,-6,-12,-6,1,5,10,-8,0
17785,-3,-10,0,-5,-16,0,8,6,0
17790,0,3,4,2,-3,-15,-14,-6,0
17795,3,12,11,16,15,1,-4,1,0
17800,0,-7,-21,-23,-18,1,9,2,0
17805,-2,-8,-6,-14,-1,7,5,-1,0
17810,0,-2,-5,-2,-3,-2,0,2,0
17815,-2,1,7,-4,-10,-11,-12,-3,0
17820,4,18,21,13,9,2,15,0,0
17825,1,-16,-1,21,18,11,2,2,0
17830,0,1,-1,0,-5,1,0,4,0
17835,-3,-7,-11,-17,-17,-30,-27,-4,0
17840,-3,6,12,-1,-14,-12,-15,-5,0
17845,-2,-2,-3,-7,-8,17,2,-4,0
17850,1,3,5,18,30,0,-2,6,0
17855,0,-2,12,12,-1,25,18,5,0
17860,1,-1,-21,-10,2,-26,-28,-5,0
17865,2,6,18,-8,-17,-51,-6,9,0
17870,-12,-23,-34,-20,-4,32,-52,-24,0
17875,4,7,-7,-10,-1,2,49,-3,0
17880,-5,1,23,15,-3,30,-4,-12,0
17885,-2,2,13,38,77,57,-29,17,0
17890,8,3,-5,-14,-38,-67,35,13,0
17895,-8,-8,-13,-30,-22,-41,-35,-19,0
17900,2,-6,-8,-20,-53,-29,12,1,0
17905,2,0,-10,-5,-17,-7,-6,-47,0
17910,-49,-12,13,15,5,6,-37,-5,0
17915,35,-2,-5,9,23,45,23,-7,0
17920,49,5,6,11,28,36,44,2,0
17925,1,-8,-8,-13,-11,-42,-38,30,0
17930,-5,18,11,5,10,35,81,19,0
17935,-16,-4,-10,2,9,-6,-1,9,0
17940,37,19,12,16,22,11,1,-1,0
17945,2,-11,-10,-15,-13,13,25,1,0
17950,19,2,-4,-12,-18,-14,-6,-2,0
17955,-25,-5,-8,-3,-7,-18,-50,-11,0
17960,-13,-3,6,20,18,12,-1,6,0
17965,-23,10,7,-2,8,-7,11,9,0
17970,37,10,-2,7,0,-8,33,8,0
17975,-28,0,-14,-25,-18,2,-28,-10,0
17980,-22,-12,-2,-23,-40,-66,-80,-14,0
17985,9,10,11,5,-1,20,57,10,0
17990,-20,-15,10,15,17,54,47,-7,0
17995,1,12,-4,5,10,-8,11,20,0
18000,-20,-19,-20,-2,-5,-39,-115,-47,0
18005,12,36,16,0,-1,-12,68,28,0
18010,9,-17,-18,-4,-7,-28,-41,-18,0
18015,36,7,16,14,8,-2,-45,11,0
18020,-32,2,2,1,6,17,56,14,0
18025,-17,-11,-4,8,-2,-5,-59,-27,0
18030,10,7,1,-8,5,15,38,35,0
18035,-17,-8,-1,-9,-14,-15,-16,-9,0
18040,8,-1,0,6,8,21,43,19,0
18045,11,2,11,23,2,4,-4,-8,0
18050,5,-5,-11,-12,6,-7,-22,-1,0
18055,-17,-10,-12,-14,-14,-11,-1,-4,0
18060,1,-8,0,-3,-6,21,22,8,0
18065,10,3,2,8,6,27,29,9,0
18070,-2,22,9,-8,-5,-32,-44,-13,0
18075,-6,-13,6,11,10,-6,-50,-9,0
18080,0,-8,-30,-33,-24,-14,4,-6,0
18085,-4,-8,19,4,-5,-10,1,6,0
18090,5,13,12,15,-3,-1,14,1,0
18095,20,12,-15,3,19,30,45,3,0
18100,-44,0,15,1,4,-15,-28,-3,0
18105,-22,-23,-15,-15,-16,-28,-69,-29,0
18110,40,-1,5,3,-8,-10,-33,-1,0
18115,-5,-10,14,17,1,12,32,4,0
18120,26,23,5,1,5,7,11,13,0
18125,-25,-24,-19,-18,-13,-4,-3,-7,0
18130,7,-5,-3,4,4,16,6,0,0
18135,-22,-6,2,-2,-3,-15,-14,-7,0
18140,13,-1,4,13,23,13,15,20,0
18145,16,34,1,-17,-13,6,38,14,0
18150,6,-24,-28,-12,-13,4,-6,-9,0
18155,9,2,4,30,19,3,1,2,0
18160,-14,5,5,-6,10,0,-11,-10,0
18165,17,2,-8,-17,-20,-9,-14,-2,0
18170,-28,-11,-4,-24,-26,-12,-5,-3,0
18175,-67,18,-2,-7,-1,15,22,-7,0
18180,48,-7,7,14,5,9,21,4,0
18185,-33,-18,-19,9,11,-5,-18,-10,0
18190,-27,2,12,6,8,-1,-1,-3,0
18195,8,-10,-1,1,-1,5,-10,1,0
18200,-23,-6,3,3,3,3,33,17,0
18205,21,-6,-10,-8,-6,-4,-10,0,0
18210,-20,-4,-3,0,0,-4,-20,6,0
18215,-8,-3,6,1,5,3,18,11,0
18220,0,4,-5,-12,-11,-7,-1,-6,0
18225,7,-4,-6,-7,-7,-3,-16,-24,0
18230,-1,2,-1,1,1,4,-9,-5,0
18235,35,2,-5,-5,-3,3,4,-4,0
18240,-20,-21,-4,-3,-8,-2,35,21,0
18245,18,-4,-6,2,4,-3,-20,-11,0
18250,-50,17,13,12,5,-6,-9,-21,0
18255,40,3,-6,-9,-9,-3,27,0,0
18260,29,5,4,7,12,18,-24,-15,0
18265,6,9,6,1,7,6,-9,24,0
18270,11,-17,-3,1,8,11,1,11,0
18275,6,-7,-2,-6,-6,-2,27,4,0
18280,-77,-87,-24,-3,-11,-21,-76,-65,0
18285,78,69,8,4,3,4,2,17,0
18290,-15,32,12,-5,-1,4,38,10,0
18295,4,-47,-18,-17,-3,3,-33,4,0
18300,7,76,6,11,13,22,78,70,0
18305,9,-31,20,10,19,24,32,50,0
18310,-42,-83,-63,-21,-23,-40,-71,-74,0
18315,60,127,23,9,5,19,64,78,0
18320,14,-16,59,11,8,7,-33,16,0
18325,-30,16,9,-1,-10,-15,16,-24,0
18330,28,-29,-36,-2,9,6,-43,-13,0
18335,-20,71,7,-3,-3,3,-2,-22,0
18340,28,-72,-11,0,5,-11,26,-6,0
18345,17,119,21,12,5,10,87,49,0
18350,3,23,87,27,28,10,-24,17,0
18355,2,-116,-42,-27,-44,-36,-9,-91,0
18360,10,-24,-19,-16,-9,11,24,29,0
18365,-50,-67,-31,-10,-15,-24,-47,-24,0
18370,6,-51,-36,-15,-11,9,40,-4,0
18375,-43,8,8,-5,2,-8,-22,2,0
18380,0,25,-5,4,2,12,38,27,0
18385,-3,-46,-12,5,46,15,-27,0,0
18390,-4,6,-11,-12,-49,-15,31,30,0
18395,28,73,61,10,3,3,15,-5,0
18400,2,-9,-1,-4,-32,-33,-51,23,0
18405,5,14,0,0,4,3,5,-42,0
18410,11,-7,4,6,24,14,-7,80,0
18415,-18,-41,-12,9,-1,4,-19,-24,0
18420,4,28,-12,-12,2,8,20,-7,0
18425,-9,-19,-2,4,-8,-8,-50,-43,0
18430,5,16,4,1,10,7,38,5,0
18435,-27,-47,-23,-7,2,-34,-17,-23,0
18440,-6,45,-6,1,4,17,-82,-49,0
18445,-10,-14,19,1,1,6,67,-2,0
18450,-31,-37,-14,-12,-10,17,-23,-103,0
18455,28,32,-9,10,30,0,-14,56,0
18460,-11,28,14,-15,-48,-7,6,-27,0
18465,-24,-76,-27,-13,-18,-16,-68,-5,0
18470,29,79,3,1,-2,-4,53,16,0
18475,-7,0,22,14,21,22,-6,-18,0
18480,-14,-22,-12,7,34,-1,-1,-29,0
18485,-1,5,-12,-19,-44,-7,7,-19,0
18490,-19,-6,1,0,-2,-10,-21,-4,0
18495,12,-21,-15,-4,-9,5,-2,20,0
18500,-26,6,5,5,5,-9,63,-5,0
18505,-27,1,-2,-3,0,-7,4,-8,0
18510,4,-28,2,6,4,-3,-10,1,0
18515,7,22,6,1,4,-2,-8,16,0
18520,-13,12,1,4,15,2,-32,-21,0
18525,-5,5,4,-7,-23,-13,-10,-4,0
18530,20,0,4,3,3,10,-17,-16,0
18535,2,-23,-15,-8,-12,10,-14,42,0
18540,13,-1,0,-1,13,19,2,6,0
18545,9,6,5,8,9,2,9,16,0
18550,2,16,5,7,-10,-41,0,31,0
18555,-12,-7,15,-6,-20,-14,-3,-26,0
18560,-17,-57,-39,-19,-24,-26,-51,-46,0
18565,18,42,12,-4,13,23,22,53,0
18570,11,4,16,6,11,0,-6,-43,0
18575,11,6,-2,4,20,13,7,38,0
18580,21,14,13,12,8,-1,30,84,0
18585,-7,-15,8,4,5,3,-63,15,0
18590,26,55,13,7,19,21,88,92,0
18595,-24,-49,-18,-4,-16,-23,-47,-5,0
18600,23,8,10,0,-4,20,27,24,0
18605,-9,-6,-32,-8,-3,-2,9,-34,0
18610,-3,46,28,4,9,-2,0,-1,0
18615,12,-8,3,1,0,6,51,20,0
18620,-16,5,-2,-2,-5,-2,57,-44,0
18625,-9,-22,-10,-5,-17,18,-13,-38,0
18630,11,-34,-17,-13,-13,-12,-27,13,0
18635,-15,18,13,10,18,1,-14,-24,0
18640,-31,-21,-4,-2,6,-14,-22,-20,0
18645,26,15,-3,-6,-6,-9,16,21,0
18650,4,-3,0,4,15,9,-57,38,0
18655,-3,-46,-23,-6,-22,16,-17,-47,0
18660,15,40,14,5,-1,-9,12,38,0
18665,-18,-7,8,3,4,4,-13,-23,0
18670,-32,-9,-2,-1,-6,5,-45,-34,0
18675,35,26,12,7,30,6,-6,8,0
18680,15,-16,-15,-10,-30,-5,-20,6,0
18685,-19,-49,-7,0,0,-9,-5,-19,0
18690,1,15,-3,-1,4,-4,9,5,0
18695,-2,25,-2,1,3,-1,-15,-32,0
18700,-29,-22,-14,4,7,1,7,-25,0
18705,15,16,42,7,8,-11,3,26,0
18710,-11,-25,-12,-1,-13,-7,19,-18,0
18715,12,41,8,-9,-8,1,18,6,0
18720,-9,-6,7,4,4,-4,-34,-28,0
18725,4,17,7,8,17,6,61,30,0
18730,-7,-39,-22,-5,-2,-13,-6,-13,0
18735,-2,-3,-6,-8,-22,3,19,25,0
18740,15,0,-4,-1,1,-8,-5,0,0
18745,3,8,0,3,16,12,-3,-4,0
18750,-11,23,39,5,-17,-10,7,-9,0
18755,-6,-15,-7,-2,12,0,-16,-13,0
18760,-7,7,4,5,12,-2,4,12,0
18765,-5,-65,-27,-6,-22,-10,-4,-1,0
18770,7,6,-1,-2,-11,-27,-33,-39,0
18775,-7,0,-4,2,17,17,-37,16,0
18780,0,-25,-17,-9,-6,13,3,-15,0
18785,-2,-23,-6,1,-3,-3,9,-6,0
18790,1,-20,-6,-1,12,1,-17,-8,0
18795,-3,12,-13,-5,-4,-16,-5,-20,0
18800,4,-2,6,3,-4,10,3,-4,0
18805,-7,-1,-21,-7,1,4,2,1,0
18810,-17,-9,1,-3,1,-4,-7,-10,0
18815,3,9,12,2,0,-5,12,20,0
18820,-24,-22,8,-1,-1,3,-9,22,0
18825,12,28,18,2,6,-12,13,14,0
18830,13,0,-7,-1,-2,15,23,25,0
18835,-1,15,-1,-10,-12,-12,-21,-38,0
18840,-15,-37,-20,2,11,2,24,-7,0
18845,11,6,23,-1,-18,-8,-7,-7,0
18850,-11,-14,-18,-8,-6,3,8,-6,0
18855,32,72,38,15,28,11,-5,51,0
18860,12,8,9,-5,-22,7,-2,-25,0
18865,-28,-39,-25,-3,7,-6,6,-29,0
18870,31,46,17,2,-7,27,52,50,0
18875,6,-15,-9,2,1,-1,2,-12,0
18880,9,13,-6,3,16,12,9,13,0
18885,-7,-12,8,3,0,7,-9,-1,0
18890,-5,-4,-2,-1,-1,-18,-9,2,0
18895,-14,-41,-22,-4,-4,0,-9,-6,0
18900,38,64,23,1,5,1,10,13,0
18905,14,8,-17,-7,-8,0,11,18,0
18910,-16,-12,6,1,7,2,-20,-7,0
18915,6,11,-2,-1,-6,-4,4,-9,0
18920,-22,-27,-16,-3,-3,-10,-35,-6,0
18925,9,3,13,3,9,2,9,-1,0
18930,-6,28,1,-6,-15,-7,-4,-29,0
18935,-2,-20,-9,-11,-26,14,54,25,0
18940,16,9,-7,0,7,-5,-3,-7,0
18945,-10,-24,-6,-6,9,-12,-10,7,0
18950,10,21,5,7,3,15,9,-8,0
18955,-2,-43,-27,-1,-14,-25,-30,-13,0
18960,1,31,13,-7,-6,0,11,-2,0
18965,-1,50,-7,-1,-8,-6,-13,12,0
18970,-21,-18,5,-4,8,6,-13,3,0
18975,-10,17,0,3,4,-11,-26,-30,0
18980,-6,-43,-14,1,0,10,-22,8,0
18985,-7,7,9,6,11,-5,-12,-5,0
18990,-4,-56,-17,-6,-15,10,2,4,0
18995,28,57,5,4,5,14,28,18,0
19000,-12,11,8,4,7,-12,3,8,0
19005,-1,-22,-7,0,2,9,1,-13,0
19010,13,18,6,6,13,-5,15,-1,0
19015,-22,-38,-8,-14,-28,-6,-5,-17,0
19020,3,9,9,0,-5,-3,6,3,0
19025,-3,-15,-5,-2,-15,-4,7,8,0
19030,9,-18,-17,-2,13,-8,-14,3,0
19035,3,39,15,-2,-2,-7,-4,5,0
19040,8,1,-9,0,-4,7,4,-12,0
19045,-3,-6,3,-2,-8,0,3,3,0
19050,2,-3,2,2,-4,-7,-12,5,0
19055,-13,-12,-21,5,14,11,3,-22,0
19060,-4,-25,-15,-7,-1,-2,-28,-5,0
19065,10,41,15,-1,-2,-4,16,5,0
19070,3,15,9,2,6,7,27,13,0
19075,-30,-50,-16,-5,6,6,-13,-1,0
19080,23,23,32,5,-10,-23,1,9,0
19085,4,-10,-29,-7,-6,11,-51,-25,0
19090,5,35,16,7,5,-10,-9,9,0
19095,-9,-32,-2,0,2,3,-1,0,0
19100,-9,-7,-9,0,-3,3,13,-1,0
19105,-10,-13,19,0,-4,3,5,-10,0
19110,4,-20,-32,-15,-4,4,-18,5,0
19115,14,35,20,3,4,-13,-10,-15,0
19120,-7,-10,-18,2,9,2,-7,5,0
19125,2,7,21,9,-9,0,15,-3,0
19130,-12,-1,-4,1,-5,-9,-17,9,0
19135,9,9,-19,-12,-6,-17,-1,-6,0
19140,25,23,5,-3,3,11,10,3,0
19145,-21,-9,-5,5,10,-4,7,-4,0
19150,2,5,14,2,-6,19,0,2,0
19155,-11,-18,-1,-5,-12,-1,-5,-5,0
19160,-8,-9,-12,1,3,-13,-3,-4,0
19165,3,13,9,3,-1,20,13,15,0
19170,2,5,9,0,13,-6,-12,-17,0
19175,7,0,3,3,5,3,-9,22,0
19180,-17,-19,-7,0,5,8,10,-3,0
19185,-1,3,-5,-3,-3,-28,1,9,0
19190,-10,21,35,3,-15,14,6,-19,0
19195,11,1,-27,-2,2,15,25,8,0
19200,0,-26,-9,-8,18,42,-2,-20,0
19205,3,22,-4,12,9,29,-5,-27,0
19210,-9,-47,-13,-12,-23,-11,3,24,0
19215,-13,50,23,0,-1,-19,-23,-36,0
19220,-3,-28,-11,-9,-21,-28,-77,-50,0
19225,-24,-18,-1,5,36,-10,-9,-30,0
19230,-13,-1,5,3,-15,-18,11,-6,0
19235,13,7,-2,1,9,9,2,9,0
19240,-9,-3,9,-3,-7,-35,12,6,0
19245,4,-47,-41,-13,-16,-21,-27,23,0
19250,22,58,14,2,6,-16,-10,-15,0
19255,-17,-7,19,6,3,0,8,-12,0
19260,-3,2,-15,-2,4,12,7,-5,0
19265,14,24,6,1,-1,-12,4,18,0
19270,-2,-23,-17,-11,-9,23,7,6,0
19275,19,10,15,10,18,21,76,29,0
19280,-17,-27,5,2,-10,-2,31,-4,0
19285,4,-6,0,-1,-6,-29,-29,37,0
19290,18,34,-10,-2,23,23,10,-9,0
19295,-10,7,10,-11,-40,-7,-31,-23,0
19300,1,-8,-4,0,-3,-12,5,3,0
19305,10,-46,-21,-8,3,11,30,31,0
19310,-11,45,13,-2,-3,-32,-52,-59,0
19315,6,-10,4,4,10,2,-9,19,0
19320,13,44,8,10,15,14,45,36,0
19325,3,-8,2,-4,-5,10,-10,25,0
19330,12,-3,-19,2,4,-2,3,4,0
19335,-10,-15,-9,6,38,-7,-25,-15,0
19340,12,36,22,-15,-71,-29,8,-53,0
19345,-2,22,6,-3,-12,7,6,-2,0
19350,-20,-57,-17,-3,-6,-12,-5,-1,0
19355,8,-18,-11,4,31,4,-12,2,0
19360,6,9,3,-7,-24,0,14,21,0
19365,-16,-19,-10,-5,-10,-15,-23,-46,0
19370,6,-7,0,2,0,-3,36,18,0
19375,-2,27,6,8,25,22,-8,-6,0
19380,-4,-9,5,10,39,-3,-15,25,0
19385,-5,1,-6,-31,-70,14,27,-26,0
19390,24,21,5,-2,-8,-26,-32,4,2000
19395,-4,-37,-8,4,-1,17,19,21,0
19400,-23,-20,7,12,38,26,-19,-13,0
19405,-18,-37,-27,2,10,-31,8,-41,0
19410,40,78,26,-7,-22,45,9,54,0
19415,16,12,4,-2,-16,-15,-6,-17,0
19420,1,-24,-20,1,20,-22,-59,-21,0
19425,-16,-11,1,10,44,26,-6,-27,0
19430,-17,-33,-10,-4,-16,35,34,1,0
19435,-2,-2,-10,-17,-42,-36,11,0,0
19440,0,46,15,7,24,21,-20,-1,0
19445,-9,-19,1,7,24,3,4,23,0
19450,-16,-7,5,10,4,-29,34,-18,0
19455,-5,-13,-6,-9,-30,-20,-20,-1,0
19460,13,27,2,-4,-31,-44,3,45,0
19465,2,-32,-11,-8,2,26,-9,2,0
19470,-26,-30,-22,-9,36,30,-17,-51,0
19475,2,-3,4,-8,-24,9,25,33,0
19480,-17,1,2,8,-21,-25,-21,-12,0
19485,15,51,48,20,4,32,10,6,0
19490,8,-16,-16,5,40,-32,-34,-10,0
19495,5,-1,-29,0,-9,-6,1,18,0
19500,-18,-21,-13,-24,17,34,36,3,0
19505,21,29,-4,-2,-42,18,-4,23,0
19510,-8,-19,17,7,18,4,-4,-2,0
19515,1,11,10,1,5,-24,-16,-14,0
19520,5,2,-20,-3,13,21,-22,-17,0
19525,-2,3,2,-13,-15,-8,60,46,0
19530,1,12,7,8,22,30,-16,-4,0
19535,-6,-2,11,8,3,11,-63,22,0
19540,2,-14,1,5,26,-18,-44,19,0
19545,7,9,-7,11,36,-30,1,-1,0
19550,-10,-4,-4,-11,-62,78,26,8,0
19555,6,4,-4,-18,-20,-43,-1,14,0
19560,-7,-7,5,-5,-16,-8,12,-16,0
19565,12,4,9,7,21,-20,-30,-4,0
19570,-9,-21,-13,13,39,-3,-25,3,0
19575,1,4,16,17,30,26,25,-18,0
19580,10,-5,0,0,-21,23,38,0,0
19585,-15,21,3,-4,-31,-58,-7,-14,0
19590,4,-20,-37,-40,-50,-44,-6,9,0
19595,-26,-45,-17,-20,12,42,-8,-32,0
19600,15,2,0,17,34,6,-8,23,0
19605,-10,6,8,-6,-16,-1,-4,-17,0
19610,-22,-7,16,13,0,-11,-9,4,0
19615,11,32,7,-8,-20,-24,15,4,0
19620,-9,-11,6,10,14,4,-42,-27,0
19625,8,-2,11,29,73,-1,-4,25,0
19630,8,5,-8,-28,-98,-3,23,4,0
19635,1,9,0,16,60,1,-41,-6,0
19640,5,11,11,-17,-81,-23,48,3,0
19645,-3,0,-4,2,6,3,1,11,0
19650,0,5,4,10,34,1,27,-9,0
19655,-11,-11,-13,1,8,-6,-27,0,0
19660,-2,3,-7,-13,-23,-4,2,-6,0
19665,8,3,-3,-2,-3,41,13,-4,0
19670,-1,0,3,13,35,-51,-27,-9,0
19675,-1,-5,0,-15,-51,68,28,8,0
19680,-1,-6,1,-9,-5,-24,11,-2,0
19685,-23,-11,-4,-7,1,21,-18,-35,0
19690,-4,1,11,13,12,-25,-6,13,0
19695,-1,-1,4,15,-7,5,33,12,0
19700,6,8,-16,-15,-1,-25,-6,4,0
19705,11,-5,-9,-13,-11,45,12,4,0
19710,6,16,12,10,34,-16,-44,-14,0
19715,-13,-24,-5,-14,-38,-23,-1,-36,0
19720,5,6,7,28,39,35,22,24,0
19725,-1,-10,-3,-16,-49,1,4,-16,0
19730,4,-7,-9,-9,-14,-57,15,44,0
19735,5,11,16,25,12,-27,-3,1,0
19740,2,-10,-19,-20,-12,-30,-6,4,0
19745,-12,-6,7,7,66,24,-16,-9,0
19750,15,2,-2,-25,-96,-3,1,30,0
19755,-10,2,-5,-13,-13,-23,-11,-23,0
19760,5,-2,3,12,24,16,-1,0,0
19765,-3,2,-13,12,1,13,9,16,0
19770,1,8,10,19,19,-41,7,-17,0
19775,10,27,15,-14,13,14,1,4,0
19780,-11,-15,-15,-21,-35,17,-3,-15,0
19785,-5,-9,22,0,-18,-19,-10,-6,0
19790,-3,22,-7,6,27,34,17,-10,0
19795,0,-13,-17,7,13,-17,-3,6,0
19800,-11,-6,-14,-4,17,23,-4,-21,0
19805,9,-7,8,5,-3,-5,2,20,0
19810,-1,-12,-32,-12,8,5,0,-4,0
19815,-6,0,3,-5,3,-3,10,-17,0
19820,12,8,20,19,43,36,9,18,0
19825,1,-9,-22,-9,-37,-52,18,28,0
19830,-3,6,27,5,4,20,-31,-13,0
19835,11,-9,-2,-10,-35,-20,18,23,0
19840,-19,-9,-1,8,4,2,18,-16,0
19845,6,12,-8,11,37,-6,-14,-4,0
19850,-12,-11,2,-19,-26,41,-6,-19,0
19855,14,4,-3,8,15,-35,3,10,0
19860,4,13,17,9,-8,-18,-8,-10,0
19865,-7,-2,-13,-25,-39,6,-24,0,0
19870,3,1,6,26,69,32,37,28,0
19875,-12,-11,-12,-37,-34,-31,7,-7,0
19880,13,-2,-3,6,24,53,16,7,0
19885,-18,-7,-5,-3,-18,-29,22,-22,0
19890,-2,-6,4,13,31,31,-51,-53,0
19895,18,15,17,19,12,29,39,68,0
19900,-12,13,0,-7,-5,-18,-3,-7,0
19905,-2,-4,1,-3,3,0,-49,-58,0
19910,8,0,-1,-8,-19,-24,-25,18,0
19915,-12,-15,-13,8,22,29,-17,-18,0
19920,0,-4,5,-8,-28,-27,-9,15,0
19925,3,13,7,-4,-19,-4,9,9,0
19930,5,-5,-4,0,-11,-37,35,-12,0
19935,1,5,-4,-2,-12,-5,-12,-2,0
19940,-1,0,4,13,40,44,55,-44,0
19945,-2,2,4,3,10,7,-7,-1,0
19950,6,-8,-11,-22,-66,-84,56,29,0
19955,-12,-5,-5,-1,21,37,-55,-21,0
19960,-1,-12,-9,-5,-12,-25,5,1,0
19965,14,9,5,5,6,0,-13,42,0
19970,-9,10,13,6,23,17,-35,-15,0
19975,-2,-3,-4,4,2,-3,25,-9,0
19980,-3,-10,-8,-4,0,42,-43,0,0
19985,4,11,11,-2,-10,-54,3,-21,0
19990,2,5,-4,-3,-5,11,-12,0,0
19995,-7,1,4,2,4,-3,14,-40,0
20000,13,-5,0,3,6,3,-14,52,0
20005,-6,-8,-5,1,14,34,40,-1,0
20010,7,-3,1,4,16,19,7,1,0
20015,0,1,-1,0,-10,-8,-9,2,0
20020,-4,-3,-6,-7,-17,-26,-41,-12,0
20025,7,4,-3,-4,9,15,44,7,0
20030,-23,-10,-7,-1,-3,-2,26,2,0
20035,-4,-6,-5,7,15,7,1,16,0
20040,-6,7,14,-6,-16,-10,10,-22,0
20045,13,-1,-7,-1,-1,4,-2,17,0
20050,-8,-3,-2,-3,6,18,15,16,0
20055,-3,-23,-7,0,4,0,-46,-18,0
20060,-15,6,4,-5,2,-19,-15,43,0
20065,-1,6,12,15,23,27,-6,-21,0
20070,-1,-6,-11,-17,-25,-2,-23,-1,0
20075,8,-9,-7,2,8,2,-3,-11,0
20080,6,1,16,-3,-20,-11,2,-5,0
20085,-13,3,-1,-12,-6,-17,-69,-56,0
20090,-1,-1,-3,2,13,18,-18,-46,0
20095,-7,-24,-3,1,9,36,11,-5,0
20100,-1,21,17,21,12,-11,6,3,0
