Timestamp, Rotation x, Rotation y, Rotation z, Marker
40,6.0625,7,9.3125,0
60,-11.625,12.25,3.5625,0
80,-11.375,22.6875,-25,0
100,0.6875,5.5625,-34.125,0
120,11.5625,-15.625,-39.125,0
140,0.4375,-19.375,-43.75,0
140,-14.625,-11.6875,-45.5625,0
150,-7.4375,-19.8125,-38,0
190,-19.875,-50.375,-20.75,0
210,-44.5,-69.8125,3.1875,0
230,-45.4375,-62.75,18.625,0
250,-35.5,-47.125,21.0625,0
270,-44.75,-45,22.9375,0
290,-38.8125,-57.1875,18.625,0
310,-29.125,-51.1875,33.25,0
330,-13.4375,-21.75,34.625,0
350,-11.5625,-13.4375,29,0
370,-4.8125,-11,24.75,0
390,-7.375,7.3125,9.6875,0
410,-13.5625,19.4375,5.625,0
430,-11.9375,25.75,-5.0625,0
450,-15.8125,11.0625,-2.9375,0
470,-11.75,0.875,14.8125,0
490,-9.0625,-5.125,24.6875,0
510,-8.4375,-7.4375,25.6875,0
530,-4.8125,-15.8125,24.75,0
550,-14.8125,-25.0625,23.1875,0
570,-24.625,-57.9375,28.625,0
590,-27.25,-65.125,32.375,0
610,-31.0625,-67.25,43.5,0
630,-19,-51.625,39.75,0
650,-30.0625,-52.9375,22.5,0
670,-36.5625,-51.1875,34.125,0
690,-29.3125,-55.625,54.5625,0
710,-12,-48.4375,49.5625,0
730,-10.3125,-22.875,25.5625,0
750,-11.625,-5.6875,8.0625,0
770,-16.375,14.1875,-0.375,0
790,-11.1875,22.4375,-0.625,0
810,-5.375,26.25,5.875,0
830,-3,39,7.25,0
850,2.875,60.625,1,0
870,6.8125,66.1875,-11.3125,0
890,13.875,60.3125,-23.0625,0
910,20.3125,50,-39.1875,0
930,14.875,45.875,-45.5,0
950,11.75,33.9375,-40.8125,0
970,10.5625,11.0625,-39.125,0
990,18.125,2.125,-40.1875,0
1010,19.1875,0.25,-35.125,0
1030,16.6875,3.5625,-36.375,0
1050,11,-12.0625,-36.5625,0
1070,4.8125,-18.5,-28.5,0
1090,3.8125,-16,-19.125,0
1110,4.375,-10.625,-18.6875,0
1130,-1.5,-1.0625,-23.5,0
1150,-10.4375,-1.875,-23.75,0
1170,-17.25,-5.125,-19.3125,0
1190,-17.25,-6.375,-11.375,0
1210,-13.4375,-4.4375,-3.5,0
1230,-7.6875,-4.1875,8.375,0
1250,0.75,7.5,19.875,0
1270,12.375,26.375,26.875,0
1290,24.5625,56.875,35.125,0
1310,34.375,88.5,32.5625,0
1330,23.0625,91.5,8.625,0
1350,2.5,61.8125,-13.75,0
1370,-0.3125,25.1875,-16.125,0
1390,2.6875,19.5,-10.875,0
1410,4.0625,28.625,-6.75,0
1430,0.875,21.75,-5.0625,0
1450,-10.375,-0.4375,-2,0
1470,-8.6875,-37.4375,8.8125,0
1490,-5,-52.875,8.8125,0
1510,-8.6875,-52.25,7.125,0
1530,-5.5,-26.8125,0.6875,0
1550,-6.8125,-4.8125,-11.5,0
1570,-9.4375,-0.0625,-11.0625,0
1590,-4.25,3.5625,-6.5625,0
1610,-3.3125,4.25,-2.375,0
1630,1.25,6.75,6.1875,0
1650,1.9375,6.4375,11,0
1670,-1.9375,0.4375,6.75,0
1690,-5.625,8.5625,-6.5,0
1710,-19.375,23.1875,-15.875,0
1730,-13.5625,14.75,-7.8125,0
1750,-7,1.3125,5.5625,0
1770,-8.625,-6.6875,14.0625,0
1790,-7.6875,-16.25,4.75,0
1810,-16.25,-16.0625,-14.1875,0
1830,-17.125,-28.75,-15,0
1850,-14.6875,-35.3125,-7.6875,0
1870,-13.5,-32.0625,0.0625,0
1890,-5.375,-33.625,9.5,0
1910,-4.375,-20.25,7.125,0
1930,-11.3125,-4.875,0.5,0
1950,-11,0.8125,3.8125,0
1970,-9.5625,-1.6875,6.75,0
1990,-6,-5.875,8.1875,0
2010,-8.3125,-4.375,1.5,0
2030,-9.875,1,-2.75,0
2050,-7.8125,3.9375,-5.9375,0
2070,-5,4.75,-3.0625,0
2090,-1.3125,0.625,3,0
2110,1.75,-10.6875,11.6875,0
2130,1.875,-23.875,21.4375,0
2150,7.1875,-23.375,22,0
2170,7.75,-17.1875,14.9375,0
2190,6.4375,-8.1875,13.625,0
2210,8,-10.3125,12.25,0
2230,4.8125,-4.375,15.375,0
2250,0.875,3.1875,11.5625,0
2270,-1.1875,15.5625,1.6875,0
2290,-1.75,23.0625,-2.8125,0
2310,2.625,29.375,-3.125,0
2330,-2.5625,19,-5.1875,0
2340,-3.8125,-2.3125,-7.75,0
2360,-6.1875,-17.9375,-4.5,0
2380,1.1875,-15.875,4.875,0
2400,3.5,-14.4375,-6,0
2420,0.9375,-6.1875,-9.875,0
2440,-3.9375,-2.5,-11.9375,0
2460,1.5625,-10,-2.75,0
2480,5.0625,-18.25,8.9375,0
2500,10.625,-26.5625,19.8125,0
2520,16.125,-13.75,12.4375,0
2540,13.3125,-13.9375,-4.6875,0
2560,7.1875,-6.6875,-12.875,0
2580,4.875,-7.25,-9.625,0
2600,12.6875,-17.625,-4.1875,0
2620,21.125,-23.75,0.625,0
2640,18.5625,-8.3125,-2.9375,0
2660,17,17.75,-9.875,0
2680,15.125,40.0625,-22.4375,0
2700,13.3125,39.875,-28.5,0
2720,14.875,25.375,-36.875,0
2740,12.0625,7.5,-35.25,0
2760,12.375,-1.25,-21.5625,0
2780,10.4375,0.5,-15.75,0
2800,6.4375,-15.8125,-5.1875,0
2820,8,-11.3125,-3.5,0
2840,-0.0625,-11.3125,-21.25,0
2860,-16.125,-0.5625,-23.0625,0
2880,-16.5,-15.875,-16.5,0
2900,-15.8125,-19.4375,-18.25,0
2920,-12,-21.125,-17.5,0
2940,-6.6875,-19.875,-14.875,0
2960,-1.9375,-24.375,-11.375,0
2980,3.8125,-25.5,-7.3125,0
3000,5.875,-25.8125,-8.75,0
3020,3.875,-17.3125,-14.875,0
3040,5.875,-13.5625,-9.625,0
3060,9.0625,-15.125,3.0625,0
3080,13.5,-25.1875,17.625,0
3100,18.4375,-23.9375,32.5,0
3120,14.8125,-17.875,18.9375,0
3140,7.6875,-5.125,10.3125,0
3160,-0.5625,10.0625,2.875,0
3180,3.0625,37.9375,6.375,0
3200,25.1875,64.5625,9.9375,0
3220,51.375,97.625,11.25,0
3240,61.875,123.375,10.9375,0
3260,55.4375,128.188,3.5,0
3280,52.9375,132.938,-2.3125,0
3300,58.0625,151.75,-5.3125,0
3320,59.4375,174.75,2.3125,0
3340,61.9375,189.812,23.25,0
3360,51.9375,178.438,42.6875,0
3380,39.5625,167.125,54.75,0
3420,45.375,184.125,106.188,0
3440,49.125,175.5,120.938,0
3460,46.125,168.375,128.938,0
3480,43.875,161.062,119.312,0
3500,37.5,142.062,104.875,0
3520,45.3125,106.188,100.188,0
3540,57.6875,66.4375,97.8125,0
3560,66.5625,20.375,94.3125,0
3580,65.875,-18.5,82.9375,0
3600,56.875,-57,56.875,0
3620,51.75,-71.125,25.5625,0
3640,35.125,-71.3125,-3.4375,0
3660,29.0625,-72.4375,-14.75,0
3680,43.9375,-74.375,11,0
3700,64.25,-52.0625,49.375,0
3720,65.75,-19.8125,63.5625,0
3740,75.1875,-3,57,0
3760,73.125,19.875,46.875,0
3780,40.75,35.125,6.75,0
3800,15.9375,21,-1.625,0
3820,14.375,21.3125,8.4375,0
3840,5.875,24.375,29.125,0
3860,-11.625,14.3125,40.4375,0
3880,-9.625,15.5,29.875,0
3900,-21.9375,13.5625,17.5,0
3920,-28.0625,8.3125,10.1875,0
3940,-32.4375,1.9375,14.4375,0
3960,-29.875,1.75,19.1875,0
3980,-22.0625,6.9375,22.4375,0
4000,-18.8125,9.375,24.0625,0
4020,-19.375,9,24.8125,0
4040,-17.8125,4.9375,25.75,0
4060,-14.375,4.375,26.6875,0
4080,-9.9375,8.1875,20.0625,0
4100,-1.75,5.3125,5.4375,0
4120,3.5625,-1.6875,-3.3125,0
4140,7.0625,-3.3125,-2.625,0
4160,6.875,-3.5,1.3125,0
4180,5.75,-7.0625,6.1875,0
4200,10.0625,-9.4375,6.125,0
4220,12.25,-7.3125,-3.25,0
4240,12.875,0.5625,-18.4375,0
4260,16.4375,8.3125,-30.6875,0
4280,26.75,15.625,-34.9375,0
4300,38.3125,26.25,-36.3125,0
4320,53.6875,40,-45.25,0
4340,63,45.8125,-64.8125,0
4360,74.5625,54.75,-78.625,0
4380,88.5,76.125,-84.875,0
4400,106.125,101.312,-82.625,0
4420,124,135.75,-81.3125,0
4440,144.438,172.5,-76.8125,0
4460,156.688,205.375,-54.3125,0
4480,151.625,217.125,-0.25,0
4500,145,219.875,65.75,0
4520,148.062,259.812,91.1875,0
4540,135.812,327,103.438,0
4560,105.875,394.875,102.188,0
4580,95,476.562,112.312,0
4600,98.4375,506.688,93.9375,0
4620,29.5625,505.062,87,0
4640,-98.0625,384.062,117.938,0
4660,-294.25,246.5,166.938,0
4680,-435.125,120,212.312,0
4700,-377.312,32.3125,228.25,0
4720,-177.438,39.25,162.875,0
4740,-5.125,55.625,115.188,0
4760,87.5625,55.1875,44.5,0
4780,68.9375,49.1875,-14.875,0
4800,-25.875,25.9375,-25.6875,0
4820,-114.188,10.5625,-37.875,0
4840,-148.75,2.6875,-54.625,0
4860,-160,-3,-65.625,0
4880,-182.812,-13.625,-75.875,0
4900,-243.375,-29.25,-83.75,0
4920,-323.75,-37.25,-102,0
4940,-343,-7.25,-131,0
4960,-329,18.75,-152.5,0
4980,-319.438,26.3125,-152.625,0
5000,-306.938,31.5,-140.438,0
5020,-280.625,44,-130.625,0
5040,-224,16.5625,-114.75,0
5060,-185.125,-31,-111.875,0
5080,-149,-74.8125,-101.25,0
5100,-94.25,-128.438,-80.8125,0
5120,-62.6875,-168,-70.3125,0
5140,-18,-173,-53.9375,0
5160,18.1875,-184.625,-30.9375,0
5180,40.1875,-182.562,-24.8125,0
5200,69.625,-158.438,-29.3125,0
5220,112.188,-131.625,-34.6875,0
5240,136.312,-103.688,-34.1875,0
5260,155.312,-75.25,-31.8125,0
5280,178.25,-53.5625,-46.6875,0
5300,202,-21.1875,-70.1875,0
5310,226.25,76.25,-110.25,0
5330,225.875,125,-109.375,0
5350,311,152,-127.188,0
5370,325,149.562,-134.188,0
5390,285.75,166.875,-120.5,0
5410,271.75,193.75,-111.5,0
5430,289.312,196.438,-78.75,0
5450,260.875,153.75,-25.5625,0
5470,196.938,118.312,55.625,0
5490,145.062,118.812,88.1875,0
5500,-27.0625,83.6875,44.625,0
5520,-285.75,48,21.8125,0
5540,-363.062,11.875,0.125,0
5560,-332.25,-6.75,11.875,0
5580,-237.312,3.3125,36.6875,0
5600,-151.188,8.6875,29.0625,0
5620,-160.75,22.875,29.5625,0
5640,-193.812,54.3125,30.875,0
5660,-172.5,88.5,13.9375,0
5680,-109.312,113.125,-6.9375,0
5700,-39.4375,132.75,-27.8125,0
5720,27.9375,139.938,-50.8125,0
5740,85.375,130.25,-70.9375,0
5760,124,108.25,-82.875,0
5780,140.812,81.1875,-82.5,0
5800,157.625,63.875,-74.4375,0
5820,167.75,31.0625,-45.5625,0
5840,156.625,-9.4375,2,0
5860,130.812,-28.6875,52.625,0
5880,112.375,-36.625,97.9375,0
5900,75.0625,-52.875,130.812,0
5920,37.4375,-68.125,143.625,0
5940,9,-73.4375,152.688,0
5960,-1.8125,-77.75,162.5,0
5980,-10.9375,-84,157.75,0
6000,-12.5,-91.8125,147.375,0
6020,-4.4375,-107.688,136.812,0
6040,-24.1875,-127.125,133.625,0
6060,-70,-141,116.875,0
6080,-125.688,-145,86.9375,0
6100,-145.188,-132.688,57.6875,0
6120,-142.812,-118.188,42.125,0
6140,-96.6875,-93.375,27.125,0
6160,-49.5,-70.375,11.0625,0
6180,-37,-50.875,7.5625,0
6200,-40.375,-39.375,1.0625,0
6220,-28.9375,-35.5,-14.5,0
6240,-16.4375,-31.1875,-18.9375,0
6260,-11.625,-23.375,-17.625,0
6280,-12,-14.5,-17.3125,0
6300,-14.625,-6.9375,-17.375,0
6320,-20.0625,6.3125,-22.25,0
6340,-27.8125,27.5,-29.625,0
6360,-23.9375,45.375,-34.125,0
6380,-1.4375,51.8125,-44.6875,0
6400,40.125,40.4375,-56.8125,0
6420,58.625,26.625,-53.5,0
6440,51.5,18.6875,-47.1875,0
6460,27.6875,14.375,-39.375,0
6480,23.875,16.375,-31.25,0
6500,32,7.625,-20.6875,0
6520,23.4375,-5.75,-9.1875,0
6540,14.5625,-14.75,1.25,0
6560,23.3125,-19.6875,-2.5,0
6580,19.5,-23.8125,-3.4375,0
6600,10.0625,-18.75,1.25,0
6620,18.5625,-6.375,6.0625,0
6640,20.4375,6.25,12.9375,0
6660,9.125,16.3125,14.4375,0
6680,1,25.625,12.125,0
6700,-3.9375,32.9375,17.1875,0
6720,6.125,36.25,24.3125,0
6740,16.5625,31.625,31.5,0
6760,11.3125,28.375,35.4375,0
6780,-2.5625,27.0625,32.6875,0
6800,-16.75,20.5,22.125,0
6820,-20.6875,13.25,22.0625,0
6840,-21,4.9375,26.5,0
6860,-13.4375,1.4375,21.8125,0
6880,-16.8125,2.9375,19.8125,0
6900,-13.4375,1.625,15.4375,0
6920,-10.4375,2.8125,8.0625,0
6940,-4.875,9.375,4.125,0
6960,12.875,14.875,-3,0
6980,24.75,15.5625,-5.5,0
7000,31.375,21,-6.9375,0
7020,44.8125,23.5,-10.0625,0
7040,45.6875,25.125,-12.5,0
7060,41.1875,29.8125,-15.25,0
7080,34.625,36.625,-17.625,0
7100,46.375,37.125,-14.5625,0
7120,54.9375,32.4375,-10.6875,0
7140,59.4375,30.875,-9.125,0
7160,48.1875,25.875,-10.875,0
7180,28.4375,21.9375,-8.125,0
7200,23,20.9375,2.25,0
7220,23.4375,19.625,10.375,0
7240,23.625,16,13.25,0
7260,9,17.4375,18.75,0
7280,-12.875,24.4375,29.25,0
7300,-20.125,36.9375,38.125,0
7330,-24.75,28.125,36.5,0
7350,-29.1875,26.0625,28.9375,0
7370,-35.125,26.3125,22.125,0
7390,-38.4375,28.875,21.8125,0
7410,-26.8125,36.375,19.75,0
7430,-22.0625,41.0625,22.6875,0
7450,-19.1875,44,23.75,0
7470,-17.0625,43.375,20.8125,0
7490,-9.0625,41,18.75,0
7510,-6.375,40.375,23.6875,0
7530,3.3125,41.375,26.8125,0
7550,15.25,43.125,28.5,0
7570,29,51.6875,30.5,0
7590,60.5,61.125,29,0
7610,101.625,62.125,21.375,0
7630,80.8125,48.6875,41.875,0
7650,48.9375,31,30.875,0
7670,53.375,7.6875,-5.3125,0
7690,68.8125,4.6875,-15.25,0
7710,58.4375,2.9375,-7.0625,0
7730,22.4375,-4.8125,10.6875,0
7750,-19,6.125,13.8125,0
7770,-37.9375,17.1875,-0.5,0
7790,-35.875,19.625,-5.125,0
7810,-26.875,20.875,0.25,0
7830,-21.0625,24.125,9.25,0
7850,-18.0625,25.0625,14.25,0
7870,-11.3125,22.3125,17.375,0
7890,-6.875,17.375,15.5,0
7910,-7.4375,8.0625,7.8125,0
7930,-2.4375,-2.125,1.5625,0
7950,1.375,-5.3125,-0.8125,0
7970,-5,-4.75,-2.125,0
7990,-15.3125,-5.5625,-1.8125,0
8010,-24.0625,-6.625,0.4375,0
8030,-23.25,-10.125,0.625,0
8050,-15.1875,-15.8125,-1.8125,0
8070,-5.0625,-20.1875,-4.375,0
8090,3.125,-17.0625,-4.9375,0
8110,12.25,-5.8125,-4.1875,0
8130,13.3125,13.125,3.25,0
8150,8.3125,35.0625,1.4375,0
8170,7.375,47.8125,-1.8125,0
8190,7.125,46.8125,-8.625,0
8210,-3.25,28.1875,-20,0
8230,-14.375,-7.25,-16.5,0
8250,-12.8125,-30.6875,-7.8125,0
8270,-1.875,-22.6875,11.6875,0
8290,18.25,0.375,21.5,0
8310,28.125,20.5,16,0
8330,15.125,23.0625,1.9375,0
8350,-3.3125,9.6875,-8.1875,0
8370,-10.5,-2.1875,-9.25,0
8390,-2.625,-2.3125,-7.0625,0
8410,6.5625,-0.125,-5.5,0
8430,16.4375,0.375,-4.25,0
8450,18.25,1.0625,-2.75,0
8470,9.4375,2.625,-0.6875,0
8480,-1.625,3.1875,1.625,0
8500,-7.625,0.25,1.4375,0
8520,-8.375,-3.6875,-0.375,0
8540,-5.5625,-5.125,-0.5,0
8560,-0.4375,-3.5625,0.0625,0
8580,1.5,-2,2.8125,0
8600,0.0625,-1.625,5.25,0
8620,-2.75,-4.5,4.625,0
8640,-3.375,-10.75,0,0
8660,-2.625,-17.125,-6.4375,0
8680,-4.4375,-20.5625,-8.3125,0
8700,-6.0625,-24.8125,-9.3125,0
8720,-3.0625,-30.8125,-14.875,0
8740,-4.25,-39.6875,-19.6875,0
8760,-9.1875,-41.5,-16.25,0
8780,-16.5,-40.375,-9.8125,0
8800,-17.0625,-42.0625,-10.0625,0
8820,-19.6875,-36.0625,-4.25,0
8840,-26.5625,-25.625,2.5,0
8860,-24.8125,-15.4375,9.9375,0
8870,-1.875,5.9375,26.9375,0
8890,20.375,18.5,32.5625,0
8910,41.75,34.3125,35.875,0
8930,53.5625,43.5,29.375,0
8950,45.75,41.3125,8.5,0
8970,30.5625,30.875,-12.125,0
8990,18.75,18.5,-18,0
9010,9.8125,11.875,-15.0625,0
9030,4.5625,7.6875,-7.375,0
9050,-4,4.75,-1.5,0
9070,-8.9375,1.75,0.4375,0
9090,-5,2.0625,-0.375,0
9120,3.125,3.3125,-0.25,0
9140,3.8125,3.0625,-2.0625,0
9160,4.375,2.1875,-2.9375,0
9180,4.6875,1.0625,-2.4375,0
9200,4.9375,0.5,-1.625,0
9220,4.6875,0,-1.375,0
9240,4.3125,-0.25,-1.125,0
9260,3.625,-0.125,-1.25,0
9280,3.3125,-0.125,-0.9375,0
9300,2.1875,-0.4375,-0.0625,0
9320,1.25,-0.5625,0.5625,0
9340,0.6875,-0.75,0.8125,0
9360,1.3125,-0.625,0.875,0
9380,1.6875,-0.5,0.9375,0
9400,2.5625,-0.5,0.5625,0
9420,3.1875,-0.5625,-0.3125,0
9440,4,-0.375,-0.9375,0
9460,4.75,0.125,-0.875,0
9480,5.1875,0.875,-1.0625,0
9500,6.4375,1.375,-1.375,0
9520,7.4375,2.25,-1.5,0
9540,7.4375,2.5,-1.25,0
9560,5.4375,2.375,-1.25,0
9580,3.5,1.625,-0.9375,0
9600,1.9375,1,-0.625,0
9620,0.4375,0.5625,-0.375,0
9640,0.375,0.3125,0.25,0
9660,2.25,0.1875,0.625,0
9680,2.25,-0.25,0.3125,0
9700,1.1875,0,0.125,0
9720,0.375,0.5,-0.375,0
9740,-1.125,0.8125,-0.9375,0
9760,-1.6875,1.1875,-0.75,0
9780,-0.6875,0.9375,-0.5625,0
9800,0.875,0.5625,-0.375,0
9820,1.6875,0.6875,-0.5,0
9840,1.75,0.4375,-1,0
9860,1.75,0,-0.875,0
9880,1.8125,0,-0.375,0
9900,1.625,-0.375,-0.125,0
9920,0.75,-0.375,0,0
9940,0.375,-0.1875,0.1875,0
9960,-0.0625,-0.0625,0.5,0
9980,-0.375,-0.125,0.3125,0
10000,-0.3125,-0.125,0,0
10020,0,-0.0625,-0.375,0
10040,0.6875,-0.0625,-0.5625,0
10060,1,-0.375,-0.9375,0
10080,0.5,-0.875,-1,0
10100,-0.4375,-1.0625,-0.625,0
10120,-1.3125,-1.25,0.875,0
10140,-1.5625,-1.625,0.875,0
10160,-1.5625,-1.75,0.6875,0
10180,-2.0625,-0.875,1,0
10200,-2.1875,-0.1875,0.8125,0
10220,-1.625,0.0625,0.125,0
10240,-1.8125,0.1875,-0.375,0
10260,-0.5625,0.5,-0.75,0
10280,1.125,0.0625,-1.0625,0
10300,0.0625,0,-0.8125,0
10330,-7.3125,0,0.3125,0
10350,-9.9375,-0.1875,0.4375,0
10370,-9.3125,-0.125,0.6875,0
10390,-7.8125,0.4375,1.25,0
10410,-5.6875,0.9375,2.25,0
10430,-3.75,0.4375,1.3125,0
10450,-2.5,-0.375,-0.0625,0
10470,-0.5,-0.4375,-2.125,0
10490,2.5625,0,-3.625,0
10500,5.5,0.5625,-4.125,0
10520,6,0.1875,-3.4375,0
10540,4.625,-0.3125,-2.1875,0
10560,0.6875,-0.0625,-0.875,0
10580,-2.5,-0.3125,-0.625,0
10600,-4.5,0.0625,-0.375,0
10620,-4.9375,-0.875,-0.25,0
10640,-3.875,-1.375,-1.125,0
10660,-2.875,-0.9375,-1.0625,0
10680,-0.875,-0.25,-2,0
10700,-0.3125,-0.125,-2.6875,0
10720,0.75,0.1875,-2.125,0
10740,2.1875,-0.5625,-1.75,0
10760,7.8125,-1.0625,-1.1875,0
10780,8.875,-1.0625,0.6875,0
10800,5.875,-3.125,1.625,0
10820,4.375,-4,1.6875,0
10840,2.6875,-4.9375,2.3125,0
10860,2.0625,-5.4375,2,0
10880,4.8125,-5.9375,2.0625,0
10900,6.6875,-7,0.8125,0
10920,5.375,-5.75,0.875,0
10940,3.9375,-3.75,1.3125,0
10960,1.6875,-2.75,1.8125,0
10980,0.0625,-1.875,2.0625,0
11000,-1.9375,-1.0625,2.25,0
11020,-3.5,-1,1.625,0
11040,-3.9375,0.5,0.0625,0
11060,-2.375,2,-1.25,0
11080,-1.0625,2.5625,-2.5,0
11100,-1.125,3.125,-3,0
11120,-2.5,3.875,-2.75,0
11140,-3.875,4.1875,-1.9375,0
11160,-6.625,3.5,-0.875,0
11180,-8.5,2.625,-0.125,0
11200,-8.1875,2.0625,0.875,0
11220,-7.8125,1.375,1,0
11240,-7.8125,2.125,1,0
11260,-7.25,2.5,0.625,0
11280,-7.625,2.375,0.4375,0
11300,-6.8125,2.1875,0.1875,0
11320,-5.8125,2.375,-0.3125,0
11340,-4.75,2.6875,-0.5,0
11360,-4.3125,3.5625,-0.4375,0
11380,-3.75,3.6875,-0.375,0
11400,-1.875,3.5,-0.125,0
11420,1,3.1875,0,0
11440,3.25,2.75,0.3125,0
11460,4.25,2.4375,0.4375,0
11480,3.375,1.875,0.5625,0
11500,2.75,1.625,0.625,0
11520,3.3125,1.0625,0.8125,0
11540,3.9375,0.5,0.375,0
11560,4.4375,0.3125,-0.0625,0
11580,4.5,0.4375,-0.375,0
11590,4.125,0.0625,-0.625,0
11610,2.4375,0.375,-0.4375,0
11630,1.25,0.8125,-0.375,0
11650,1.3125,0.6875,-0.75,0
11670,2.0625,0.5,-0.6875,0
11690,1.4375,0.9375,-0.75,0
11710,0.25,1.25,-0.8125,0
11730,-0.5,0.9375,-0.9375,0
11750,-0.4375,0.875,-0.4375,0
11770,-0.125,1,0.1875,0
11790,-0.5,1.25,0.875,0
11810,-1.6875,1.3125,1.4375,0
11830,-2.625,0.8125,1.75,0
11850,-2.9375,0.6875,1.625,0
11870,-2.25,0.5,1.3125,0
11890,-0.75,0.4375,0.875,0
11910,0.5,0.3125,0.375,0
11930,0.8125,0.3125,0.1875,0
11950,0.4375,0.375,0.1875,0
11970,-0.625,0.5625,0.625,0
11990,-1.375,0.75,0.875,0
12010,-1.6875,0.875,0.625,0
12030,-1.5,1.0625,0.3125,0
12050,-1.375,0.25,0.5,0
12070,-3.625,-3,2.0625,0
12090,-6.375,-6.1875,6.75,0
12110,-10.8125,-7.875,5.8125,0
12130,-30.0625,-12.5,6.6875,0
12140,-43.75,-23.5,2,0
12160,-34.5625,-33.25,-22.5625,0
12180,-36.9375,-49.75,-40.8125,0
12200,-43.625,-46.625,-74.6875,0
12220,-47.3125,-48.25,-101.5,0
12240,-37.6875,-50.125,-131.125,0
12260,-24.1875,-51.125,-145.062,0
12280,-2.125,-52.25,-159,0
12300,12.9375,-63.875,-160.875,0
12320,32.9375,-80.1875,-162.312,0
12340,48.5625,-85,-163.562,0
12360,44.4375,-87.625,-158.5,0
12380,55.25,-91.25,-145.625,0
12400,70.3125,-93.3125,-124.812,0
12450,-37.6875,-50.125,-131.125,0
12450,65.125,-88.6875,-110.812,0
12470,40.625,-79.75,-86.0625,0
12490,16.1875,-76.875,-67.1875,0
12510,-4.3125,-71,-52.25,0
12530,-2.125,-64.125,-39.1875,0
12550,0.3125,-57.8125,-29.8125,0
12570,2.125,-54.75,-20.9375,0
12590,-9.5625,-48.125,-12.3125,0
12610,-22,-41.75,-7.6875,0
12630,-15.6875,-39.625,-4.9375,0
12650,-4.125,-34.5625,-6.625,0
12670,5.0625,-27.375,-3.375,0
12690,10.25,-21.125,0.3125,0
12710,4.5,-15.625,0.5625,0
12730,4.125,-13.6875,3.1875,0
12750,5.125,-13.0625,9.3125,0
12770,4.3125,-9.375,9.4375,0
12790,-4.5,-4.9375,8.6875,0
12810,-11.75,-1.5,10.375,0
12830,-11,-1,12.125,0
12850,-8.0625,-1,12.125,0
12870,-1.125,0,11.1875,0
12890,2.5625,0,7.6875,0
12910,2.875,0.1875,4.1875,0
12930,1.0625,0.9375,0.4375,0
12950,-0.4375,-0.375,-0.4375,0
12970,2.375,-0.8125,-1.4375,0
12990,1.625,-1.1875,-3,0
13010,2.5625,-2.0625,-2.0625,0
13030,1.625,-1.875,-1.4375,0
13050,0.75,-2.25,-2,0
13070,-0.75,-2.3125,-1,0
13090,-1.25,-1.75,-0.5625,0
13110,0.0625,-1.875,-0.6875,0
13130,-0.4375,-2.0625,0.75,0
13150,-0.8125,-1.125,2.0625,0
13170,-4.25,0.5,1.6875,0
13190,-2.25,1.125,1.5,0
13210,-0.0625,1.25,1.8125,0
13230,0.4375,1.25,2.8125,0
13250,-0.0625,2,1.375,0
13270,-0.6875,2.3125,0.375,0
13290,-2,1.75,0,0
13310,-2.1875,1.8125,-0.375,0
13330,-1.5,0.25,-0.0625,0
13350,0.6875,-0.6875,0.4375,0
13370,2.75,-1.375,-0.0625,0
13390,-0.1875,-2.6875,-0.8125,0
13410,0.0625,-3.1875,0,0
13430,0.8125,-3.625,1.3125,0
13450,3.8125,-5,2,0
13470,6.875,-5,4.4375,0
13490,15.5625,-7.625,2.125,0
13510,24,-6.6875,3.3125,0
13530,4.6875,-1.5,2.625,0
13550,5.625,1.75,0.75,0
13570,8.6875,8.9375,-5.9375,0
13590,13.125,20.5625,-10.5,0
13610,0.5625,39.625,-7.8125,0
13630,-13.6875,59.75,4.6875,0
13650,-13.9375,78.25,12.25,0
13670,-0.9375,96.9375,13.4375,0
13690,3.625,114.625,23.5625,0
13710,-4.75,124.375,49.5,0
13730,-8,125.875,73.375,0
13750,-0.5,122.938,85.25,0
13770,-10.9375,116.625,96.25,0
13790,-21.5,114.5,96.125,0
13810,-26.5625,107.75,94.625,0
13830,-25.3125,92.625,93.125,0
13850,-24.5625,65,79.375,0
13870,-23.25,30.625,60.8125,0
13890,-15.8125,-12.125,45,0
13910,1.625,-53.6875,28.625,0
13930,22.375,-94,8.5625,0
13950,19.25,-133.688,0.0625,0
13970,-10.125,-165.938,8.6875,0
13990,-45.1875,-191,1.6875,0
14010,-39.8125,-217.438,-17.125,0
14030,-50,-231.875,-15.8125,0
14050,-29.1875,-216.625,-6.5,0
14070,11.875,-182.812,-9.875,0
14090,32.3125,-151.438,-6.25,0
14110,4.625,-120.812,-7.8125,0
14130,7,-96.5625,5.1875,0
14150,27.875,-95.3125,19.625,0
14170,37.125,-34.3125,49.5,0
14190,12.625,49.6875,37.0625,0
14210,-11.375,21.5625,-17.125,0
14230,16.25,-40.875,2.625,0
14240,4.8125,-76.6875,36.125,0
14260,17.625,-43.3125,11.25,0
14280,45.125,-24.5,-5.5,0
14300,58.375,-40,0.0625,0
14320,98.875,-11.125,12.75,0
14340,74.4375,-0.875,4.375,0
14360,10.375,-14.125,1.3125,0
14380,-32.375,-26.75,6.5,0
14400,-0.5625,-31.0625,6.5,0
14420,35.6875,-31.4375,0.875,0
14440,75.3125,-39.1875,0.0625,0
14460,63.75,-40.8125,-5.625,0
14480,35.25,-43.9375,-19.75,0
14500,41.8125,-49.25,-36.875,0
14520,67.3125,-48,-50.6875,0
14540,49,-29.0625,-46.5,0
14560,10.0625,-29.3125,-64.875,0
14580,-0.375,-34.25,-102.625,0
14590,19,-20.75,-99,0
14610,20.8125,-10.9375,-97.75,0
14630,5.8125,-4.25,-122.062,0
14650,-33.9375,9.5625,-125.875,0
14670,-56.75,19.625,-112,0
14690,-64.375,22.8125,-91.5625,0
14710,-61,27.875,-60.5,0
14730,-67.6875,45.25,-17.1875,0
14750,-75.25,59.125,17.4375,0
14770,-65.1875,78.9375,38.0625,0
14790,-52.625,87.375,58.25,0
14810,-42.8125,90.5625,86.3125,0
14830,-34.8125,93.5,99.0625,0
14850,-12.8125,111.812,80.625,0
14870,52.625,132.75,69.4375,0
14890,85.3125,136.062,71.0625,0
14910,94.75,120.625,61.375,0
14930,131.062,114.375,34.3125,0
14950,156.25,119.062,13.875,0
14970,148.875,109.312,12.125,0
14990,111.312,90.125,14.6875,0
15010,82.0625,71.8125,22.75,0
15030,47,52.5,24.3125,0
15050,20.3125,39.125,26.9375,0
15070,-23.625,28.6875,35.6875,0
15090,-28.6875,20.125,31.3125,0
15110,-54.625,17.875,33.4375,0
15130,-57.1875,9.375,56.0625,0
15150,-67.5,-2.6875,68.5,0
15170,-75.75,-14.625,76,0
15190,-49.25,-25.1875,57,0
15210,-5.5,-30.625,42.0625,0
15230,30.375,-31.1875,33.0625,0
15250,33.125,-23.375,24.3125,0
15270,13.75,-14.625,19.5,0
15290,-4.875,-4.375,-0.75,0
15310,-4.5,7.75,-14.4375,0
15330,0.1875,13.375,-19.1875,0
15350,5.4375,6.875,-33.0625,0
15370,21.1875,10.625,-38.1875,0
15390,17.5625,42.375,-39.4375,0
15410,-2.6875,59,-55.5625,0
15430,-14.4375,70.0625,-32.625,0
15450,2.0625,75.25,-11.875,0
15470,-17.125,75.875,-34.375,0
15490,-10,71.375,-30.25,0
15510,-8.5,61.625,-22.875,0
15530,7.9375,60.0625,-14.5625,0
15550,19.125,68,-1,0
15570,28.5,74.1875,6.0625,0
15590,30.125,100.438,8.75,0
15610,13.75,103.188,35.9375,0
15630,-24.8125,110.312,30.3125,0
15650,-21.5625,106.5,58.375,0
15670,-25.125,103.875,72.6875,0
15690,-11.4375,109.375,79.5625,0
15710,8.25,109.5,68.25,0
15730,30.4375,96.6875,55.8125,0
15750,67.5,41.5,-3.875,0
15770,39.9375,17.25,-33.9375,0
15790,-49.25,-12.5,-33.125,0
15810,-70.5,-26.75,-28.5625,0
15830,-67.8125,-25.6875,-31.1875,0
15850,-38.75,-10.6875,-6.9375,0
15870,-0.4375,3.625,4,0
15890,27.9375,8.5,9.5,0
15910,28.4375,18.375,13.9375,0
15930,4.8125,23.5,13.3125,0
15950,-9.625,18.625,6.3125,0
15970,-5.0625,11.25,-2.125,0
15990,-7.0625,3.5,-5.625,0
16010,-8.25,0.375,-5.3125,0
16030,-8.375,-11.4375,-5.875,0
16050,-15.0625,-28.25,-1.625,0
16070,-6.3125,-46.1875,8.1875,0
16090,-0.25,-43.375,13.375,0
16110,5.4375,-43.6875,15.6875,0
16130,6.75,-59.4375,11.3125,0
16150,8.875,-69.3125,-1.25,0
16170,11.3125,-74.25,-12,0
16190,15.4375,-81,-16.1875,0
16210,9.4375,-81.8125,-18,0
16230,5.9375,-70.5625,-32.5,0
16250,1.625,-69,-37.8125,0
16270,12.375,-59.5,-43.0625,0
16290,21.75,-54.9375,-44.8125,0
16310,32.5,-46.875,-48.625,0
16330,21.5625,-38.75,-39.5625,0
16350,12.625,-33.4375,-39.6875,0
16370,-1.25,-27,-38.625,0
16390,3.3125,-27,-34.875,0
16410,12.4375,-20.75,-42.8125,0
16430,14.8125,-13,-41.6875,0
16450,18.5625,-4.4375,-42.375,0
16470,17.125,1.8125,-40.5,0
16490,17.0625,6.0625,-28.625,0
16510,14.625,10.625,-16.125,0
16530,11.1875,11.875,-9.375,0
16550,12,11.1875,-10.5625,0
16570,11.125,8.0625,-9.0625,0
16590,6.875,4.5625,-6,0
16610,5,2.625,-4.875,0
16630,8.0625,0.4375,-7.5625,0
16650,9.75,-2,-5.1875,0
16670,2.0625,-0.75,1.375,0
16690,-1.1875,2.0625,4.4375,0
16710,-0.375,4.5625,2.3125,0
16730,5.875,3.875,0.3125,0
16750,3.625,3.6875,-1.75,0
16770,0.6875,2.4375,-3.5625,0
16790,0.875,1.25,-6.75,0
16810,1.5625,1.875,-7.8125,0
16830,2.5625,0.875,-10,0
16850,-2.75,-0.625,-8.4375,0
16870,-7.1875,-2.5,-5.5,0
16890,-10.125,-4.3125,-5.1875,0
16910,-10.1875,-5.3125,-5,0
16930,-11.8125,-6.3125,-1.4375,0
16950,-9.3125,-7.875,-1.75,0
16970,-8.25,-9.6875,-2.625,0
16990,-11.1875,-11.9375,-2.3125,0
17010,-13.1875,-11.8125,-4.625,0
17030,-11.875,-9.0625,-4.375,0
17050,-11,-6.125,-4.0625,0
17070,-9.4375,-5.75,-5.5625,0
17090,-6.5,-5.4375,-7.4375,0
17110,-7.6875,-6.4375,-6.9375,0
17130,-6.0625,-9.9375,-7.0625,0
17150,-9,-11.4375,-4.5625,0
17170,-12.8125,-11.1875,-4.4375,0
17190,-17.6875,-14,-3.75,0
17210,-20.9375,-18.625,-5.5,0
17230,-25.4375,-24.1875,-9,0
17250,-29.25,-34,-13.625,0
17270,-45.75,-38.3125,-15.375,0
17290,-66.375,-44.1875,-11.8125,0
17310,-61.0625,-51.5,-11.5,0
17330,-58.5,-51.75,-13.0625,0
17350,-55.6875,-56.0625,-23.0625,0
17370,-60.0625,-59.4375,-30.625,0
17390,-45.4375,-65.8125,-30.6875,0
17410,-39.5625,-61.5,-25.125,0
17430,-44.6875,-48.9375,-31.75,0
17450,-50,-48.3125,-37.3125,0
17470,-42.5625,-53.9375,-41.375,0
17490,-22.8125,-56.0625,-39.25,0
17510,-15.0625,-60.75,-32.1875,0
17530,-20.0625,-62.9375,-30.875,0
17550,-28.125,-59.125,-24.0625,0
17570,-20.5625,-56.125,-26.8125,0
17590,-10.8125,-47.8125,-29.875,0
17610,-11.9375,-40.6875,-30.125,0
17630,-16.125,-34.8125,-30.25,0
17650,-11.0625,-32.75,-22.75,0
17670,-5.3125,-30.375,-17.3125,0
17690,2.9375,-28.8125,-13.375,0
17710,2.8125,-25.3125,-9.9375,0
17730,-6.125,-16.5625,-10.5625,0
17750,-15.4375,-10.75,-9.8125,0
17770,-17.3125,-5.3125,-7.4375,0
17780,-11,-5.625,-3.6875,0
17800,-11,-5.4375,-1.5625,0
17820,-7.5,-2.125,-0.75,0
17840,-3.125,2.5625,-5.25,0
17860,-1.75,7.9375,-3.6875,0
17880,8.875,4.625,10.1875,0
17900,16.625,10.4375,31.8125,0
17920,1.125,27.125,43.6875,0
17940,-11.375,39.6875,18.875,0
17960,-39.0625,32.8125,-2,0
17980,-40.5625,24.75,-4.0625,0
18000,-28.375,21.75,-1.625,0
18020,39.6875,21.375,14.125,0
18040,13.4375,24.4375,8.0625,0
18060,-16.6875,12,16.0625,0
18080,-25.5,-4.4375,5.6875,0
18100,-32.0625,-4.4375,5.8125,0
18120,-13.6875,-5.1875,18.5625,0
18140,-7.75,-11.4375,-0.0625,0
18160,-6,-18.5625,-17.75,0
18180,-0.5625,-24.5625,-19.625,0
18200,2.375,-31.6875,-24.125,0
18220,-3.125,-36.4375,-24.125,0
18240,-2.5,-41.3125,-7.1875,0
18260,-2.3125,-39.375,3.375,0
18280,-20,-36.375,13.5,0
18300,-54.625,-43.25,38.25,0
18320,-79,-53.4375,61.5625,0
18340,-88.25,-46.375,81.6875,0
18360,-79.25,-32.375,95.1875,0
18380,-89.375,-2.875,97.5625,0
18400,-41.5625,13.8125,100.312,0
18420,-10,17.6875,100.25,0
18440,-56.125,8.8125,108.438,0
18460,-103.25,-25.25,96,0
18480,-105.5,-42.75,51,0
18500,-59.125,-35.3125,8.5,0
18520,34.1875,-20.3125,-9.5625,0
18540,93.375,-17.125,-13.125,0
18560,95.5625,-15.9375,-10,0
18580,52.6875,-18.625,-2.1875,0
18600,0,-22.125,4.25,0
18620,-25.1875,-22.0625,-0.625,0
18640,-24.5,-13.6875,-6.5,0
18660,-2.8125,-10.9375,6.1875,0
18680,8.5,-13.5625,14.8125,0
18700,8.375,-14.75,11.6875,0
18720,-1.1875,-10.8125,4.1875,0
18740,-11.375,-1.875,-2.6875,0
18760,-8.625,1.625,-7.125,0
18770,0.8125,4.9375,-3.1875,0
18790,13.8125,4.5,4.8125,0
18810,12.125,2.75,3.375,0
18830,0.125,6.125,1.0625,0
18850,-6.625,9.4375,-1.375,0
18870,-3.5,9,-6.625,0
18890,3.25,6.3125,-5.625,0
18910,5.5625,3.375,-1.4375,0
18930,6.1875,1.875,-0.25,0
18950,0,2.375,-2.875,0
18970,-0.875,4.3125,-5.8125,0
18990,2.9375,2.4375,-4.4375,0
19010,6.4375,-0.6875,-1.875,0
19030,4.375,0,-2.3125,0
19050,5.5,0.0625,-0.375,0
19070,3.5625,1.125,4.375,0
19090,2.5625,1.25,4.75,0
19110,-2,0.375,1.0625,0
19130,-1.3125,-0.25,1.625,0
19150,1.6875,-0.9375,5.375,0
19170,2.9375,0.3125,6.125,0
19190,1.125,2.5625,5.4375,0
19210,0,3.5,6.75,0
19230,-3,-2.25,5.625,0
19250,-2.1875,-11.1875,-0.375,0
19270,-4.5,-12.875,-3.3125,0
19290,-5.25,-8.9375,0.5,0
19310,-2.3125,-7.875,-0.4375,0
19330,0.3125,-9.1875,-3,0
19350,2.9375,-10.3125,-0.25,0
19370,1.125,-9.625,3.3125,0
19390,-3,-2.4375,8.75,0
19410,-4,1.5625,10.625,2000
19430,4.375,6.5625,4.875,0
19450,6,11.6875,-0.75,0
19470,14.9375,3.8125,-8.125,0
19490,13.6875,-1.75,-10.4375,0
19510,13.9375,-15.25,-10.125,0
19530,14,-21.3125,-19.4375,0
19550,21.5,-34.875,-25.1875,0
19570,17.875,-48.8125,-24.0625,0
19590,32.375,-60.9375,-24.375,0
19610,31.875,-62.25,-29.875,0
19630,38.125,-56.6875,-40.875,0
19650,30.1875,-52.3125,-50.8125,0
19670,19.6875,-46.125,-49.6875,0
19690,14.5,-37.375,-44.625,0
19710,20.6875,-21.625,-46,0
19730,15.875,-1.25,-51.5625,0
19750,8.625,-4.5,-55.125,0
19770,-8.6875,-3.6875,-56.0625,0
19790,-14.625,-1.75,-58.375,0
19810,-23.6875,8,-63.1875,0
19830,-16,26.5,-71.625,0
19850,-14.3125,38.5,-73.125,0
19870,-20.6875,42.4375,-59.4375,0
19890,-18.9375,46.5625,-46.375,0
19910,-24.4375,44.9375,-38.5,0
19930,-20.0625,44.375,-41.8125,0
19950,-19.75,51.625,-47.125,0
19970,-27.3125,62.375,-44.125,0
19990,-22.625,71.8125,-39.6875,0
20010,-14.9375,84.75,-39.0625,0
20030,-13.25,91.0625,-42.25,0
20050,-10.0625,93.875,-37.8125,0
20070,5.3125,80.5625,-38.625,0
20090,9.3125,62.375,-40.125,0
20110,10.75,58.3125,-31.875,0
20130,8.6875,61.375,-22.5,0
20150,10.375,49.0625,-24.8125,0
20170,11.5,42.125,-17.25,0
20190,9.1875,38.375,5.375,0
20210,7.9375,31,26.9375,0
20230,19.9375,27.1875,33.9375,0
20250,21.4375,23.9375,48.125,0
20270,-5.0625,13.375,60.9375,0
20290,-36.25,9.6875,74.25,0
20310,-47.5625,0,89.4375,0
20330,-54,-19,84.5625,0
20350,-63.25,-38.8125,78.5625,0
20370,-72.75,-62.6875,79.4375,0
20390,-62.375,-78.6875,75.8125,0
20410,-54.625,-105.938,65.9375,0
20440,-33.75,-144.812,19.0625,0
20460,-13.5,-153.938,3.0625,0
20480,18.0625,-155,-16.5,0
20500,36.375,-151.625,-34.5,0
20520,39.4375,-146.125,-51.4375,0
20540,19,-130.812,-66.125,0
20560,11.125,-109.125,-76.25,0
20580,2.6875,-83.375,-84.5625,0
20600,-4.6875,-57.875,-100.375,0
20620,-11.9375,-15.4375,-122.75,0
20640,-27.6875,24.25,-121.125,0
20660,-26.1875,40.875,-100.625,0
20680,-29.5,59.75,-111.5,0
20700,-20.125,89,-129.062,0
20720,-34.6875,116.438,-126.75,0
20740,-30.625,141.625,-103.125,0
20760,-3.1875,139.188,-91.75,0
20780,-7,113.562,-89.3125,0
20790,-7.9375,104.312,-60.875,0
20810,-10.8125,99.875,-9.125,0
20830,-11.375,93.9375,32.25,0
20850,-18.75,93.625,48,0
20870,-18.375,79.625,56.125,0
20890,-1.375,68.375,80.75,0
20910,21.5625,45.3125,98.125,0
20930,-0.1875,19.5,105.562,0
20950,-39.375,-10.875,105.375,0
20970,-60.25,-35.875,110.562,0
20990,-50.75,-54.9375,111.438,0
21010,-41.4375,-63.8125,107.938,0
21030,-40.5,-69.625,95.6875,0
21050,-46.0625,-82.875,68.3125,0
21070,-38.4375,-99.25,44.625,0
21090,-19.625,-119,41.4375,0
21110,-13.6875,-131.75,37.3125,0
21130,-18.625,-139.625,16.4375,0
21150,-25.6875,-146.75,-10.5,0
21170,-20.625,-153.312,-26.5,0
21190,8.625,-146.125,-43.9375,0
21210,27.125,-137.125,-69.4375,0
21230,14.5,-124.312,-94.3125,0
21250,-10.0625,-104.188,-115.438,0
21260,-21.375,-75.375,-127.062,0
21280,-17.625,-48.0625,-133.938,0
21300,-8.4375,-17.75,-144.812,0
21320,-0.6875,10.5,-152.938,0
21340,-5.9375,44.625,-149.375,0
21360,-31.625,74.1875,-126.875,0
21380,-25.4375,101.938,-97.875,0
21400,5.3125,129.438,-94.5625,0
21420,-7.4375,145.75,-118.562,0
21440,-28.6875,150.125,-111.312,0
21460,-27.25,148.812,-69.9375,0
21480,-11.9375,147.938,-37.25,0
21500,-0.5,151.75,-12.375,0
21520,-5.0625,151.625,30.0625,0
21540,2,134.562,82.5,0
21560,-16,132.812,118.5,0
21580,-43.5,138.188,149.125,0
21600,-61.0625,116,178.5,0
21620,-111,79.8125,168.938,0
21640,-173.938,34.6875,136.312,0
21660,-196.188,-22.375,119.75,0
21680,-164.438,-77.625,88.3125,0
21700,-103.5,-115.375,59.6875,0
21720,-63.3125,-135.312,40.3125,0
21740,-59.1875,-145,28.8125,0
21760,-63.1875,-148.688,14.4375,0
21780,-47.875,-149.188,2.1875,0
21800,-30.375,-144.875,1.75,0
21820,-37.125,-136.625,2.9375,0
21840,-47.5625,-126.75,-10.3125,0
21860,-45.6875,-114.875,-22.375,0
21880,-16.125,-97.5625,-26.75,0
21900,24.5,-78.75,-40.8125,0
21920,38.5625,-61.75,-51.25,0
21940,34.8125,-47.75,-52.875,0
21960,17,-35.625,-51.3125,0
21980,23.9375,-21.5,-45.5625,0
22000,38.4375,-14.0625,-47.375,0
22020,47.6875,-14.625,-47.25,0
22040,35.375,-24.75,-39.125,0
22060,12.125,-15.0625,-37.9375,0
22080,12.5625,-0.9375,-36.875,0
22100,14.5,-1.3125,-23.75,0
22120,19.4375,1.625,-18.125,0
22140,-2.9375,4.9375,-23.25,2001
22160,-16.1875,5.5,-16.6875,0
22180,-19.8125,9.5,-8.375,0
22200,-13.3125,10,-6.0625,0
22220,-4,20.3125,-19.75,0
22240,0.4375,24.5625,-35.6875,0
22260,5.5625,23.8125,-20.9375,0
22280,-12.125,16.25,-3.9375,0
22300,-27.3125,12.9375,3.5625,0
22320,-25.8125,21.875,26.375,0
22340,-4.8125,35.1875,34.5,0
22360,7.625,45.9375,27.375,0
22380,14.625,39.875,40.9375,0
22400,6.875,26.3125,70.5,0
22420,17.5,27.8125,96.9375,0
22440,46.5625,37.1875,106.438,0
22460,54,48.25,105.562,0
22480,33.4375,47.4375,103.812,0
22500,0.75,35.5625,110.562,0
22520,-9.5,27.1875,109,0
22540,7.5625,28.5,89.75,0
22560,25.9375,25.75,90.5625,0
22580,36.375,18,90.75,0
22600,41.0625,20.6875,68.5,0
22620,32.5,23.1875,55.25,0
22640,18.125,15.4375,57.25,0
22660,13.75,5,48.75,0
22680,17.375,-0.875,36.8125,0
22700,18.875,-4.9375,26,0
22720,14.3125,-7.25,15.5625,0
22740,9.625,-14.5625,10.4375,0
22760,8.375,-18.125,13.75,0
22780,12.1875,-21.8125,13.5625,0
22800,10.9375,-19.125,5.4375,0
22820,4.1875,-17.9375,3.4375,0
22840,6.3125,-19.75,0.125,0
22860,5.0625,-21.6875,-0.375,0
22880,1.5,-22.8125,6.125,0
22900,-8.6875,-24.5,11.375,2000
22920,-7.5,-24.375,7.375,0
22940,3.75,-23.25,4.625,0
22960,10.875,-12.6875,2.5,0
22980,18.9375,-11.5625,-0.4375,0
23000,13.8125,-17.5,-14.6875,0
23020,15.8125,-16.1875,-29.3125,0
23040,20.375,-7.5,-25.75,0
23060,43.9375,-4.4375,-18.75,0
23080,65.125,-3.5,-32.75,0
23100,54.9375,-0.6875,-32.875,0
23120,60.6875,8.5,-28.875,0
23140,57,12.75,-11.25,0
23160,23.6875,35,8.375,0
23180,34.625,50.4375,-9.5625,0
23200,59.75,62.5625,-78.875,0
23230,25.1875,104.688,-96,0
23250,15.6875,90.3125,-105.312,0
23260,2.625,89.625,-82.4375,0
23280,-3.1875,90.25,-80,0
23300,2.3125,85.5625,-83.1875,0
23320,-0.9375,84.8125,-76.125,0
23340,4.6875,88.625,-61.875,0
23360,3.6875,83,-58.8125,0
23380,4.1875,68.3125,-40.8125,0
23400,6.75,51.3125,-23.875,0
23420,-2.6875,28.375,-21.5625,0
23440,-7.875,16.3125,-37.9375,0
23460,-5.1875,5.25,-37.1875,0
23480,8.25,1.1875,-26.25,0
23500,1.6875,-9,-6.5,0
23520,-13.3125,-16.125,1.1875,0
23540,-23.625,-18.4375,6.3125,0
23560,-12.625,-16.0625,15,0
23580,0.75,-20.625,56.6875,0
23600,-26.5625,-23.5,83.6875,0
23620,-75.5625,-31.9375,64.625,0
23640,-87.25,-48.0625,36.0625,0
23660,-64.5,-76,50.8125,0
23680,-39.0625,-80.875,101.5,0
23700,-28.75,-76.75,123.875,0
23720,-65.75,-79.375,84.5625,0
23740,-122.938,-87.9375,49.375,0
23760,-114.812,-111.688,64.1875,0
23780,-78.125,-118.875,99.125,0
23800,-35.4375,-117,92.9375,0
23820,-34.875,-126.938,52.125,0
23840,-47.4375,-133.375,4.3125,0
23860,-36.8125,-135.375,-19.3125,0
23880,7.8125,-133.875,-26.125,0
23900,47.1875,-132.125,-39.1875,0
23920,63.5625,-121.812,-57.4375,0
23930,52.25,-107.25,-69.6875,0
23950,20.5625,-85.125,-75.5625,0
23970,0.9375,-62.375,-76.9375,0
23990,8.6875,-37.375,-79.0625,0
24010,22.25,-17.6875,-76.875,0
24030,21.4375,-13.1875,-78.6875,0
24050,5.9375,5.75,-86.9375,0
24070,4.4375,33,-108.125,0
24090,-8.875,51,-101.875,0
24110,-39.625,74.75,-84.8125,0
24130,-31.375,115.438,-86.375,0
24150,-24.5625,151.812,-90.75,0
24170,-26.8125,164.125,-96.625,0
24190,-31,158.438,-89.125,0
24210,-18.3125,149.562,-75.75,0
24230,10.6875,120.562,-73.9375,0
24250,22.6875,91.75,-70.375,0
24270,24.1875,77.125,-41.375,0
24290,2.6875,75.0625,-12.125,0
24310,-5.1875,65,4.3125,0
24330,11.75,50.6875,12.6875,0
24350,12.375,39.875,42.5,0
24370,19.9375,31.0625,75.125,0
24390,20.5625,22,80.75,0
24410,10.3125,16,78.6875,0
24430,-2.5625,10.3125,68.5625,0
24450,-11.4375,-0.0625,73.625,0
24470,-9.1875,-9.1875,97.125,0
24490,11.5,-11.0625,102.75,0
24510,0.3125,-16.375,80.75,0
24530,-28.6875,-23.5,79.25,0
24550,-48.0625,-41.1875,87.1875,0
24570,-39.6875,-54.875,89.0625,0
24590,-16.1875,-61.3125,75.5,0
24610,-17.6875,-70.75,63.5625,0
24630,-43.8125,-86.4375,61.1875,0
24650,-51.125,-102.938,61.875,0
24660,-45.9375,-119.875,57.1875,0
24680,-32.375,-129.25,37.75,0
24700,-27.375,-133.5,19.375,0
24720,-35.875,-134.062,3.0625,0
24740,-27.4375,-132.062,-24.5625,0
24760,-2.375,-123.125,-61.1875,0
24780,15.25,-116.188,-84.3125,0
24800,16.6875,-103.188,-80.6875,0
24820,25.1875,-80.25,-85,0
24840,8.4375,-61.8125,-107.438,0
24860,-23.875,-41.1875,-114.875,0
24880,-48.5,-16,-104.312,0
24900,-36.625,9.9375,-108.688,0
24920,-21.5625,29.4375,-123.25,0
24940,-45.25,47.375,-127.25,0
24960,-65.25,62.3125,-109.875,0
24980,-61.5625,81.4375,-94.625,0
25000,-36.625,103.25,-86.3125,0
25020,-10.6875,113,-90.75,0
25040,-18.875,119.688,-93.6875,0
25060,-18.5,128.625,-77.5625,0
25080,-12.375,134.062,-56.625,0
25100,0.25,137.25,-32.375,0
25120,6.9375,136.125,-2.5625,0
25140,18.4375,131.875,21.875,0
25160,27.5,120.125,37.3125,0
25180,17.125,117.25,47.0625,0
25200,-4.75,111.25,62.0625,0
25220,3.6875,90,73.875,0
25240,6.625,76,65.125,0
25260,-16.5,58.9375,60.625,0
25280,-35.125,43.375,71.625,0
25300,-36.625,23.25,70.625,0
25320,-21.6875,1.375,61.3125,0
25340,-14.875,-11.3125,64.5625,0
25360,-23.75,-20.8125,70.75,0
25380,-36.9375,-35.5625,68.4375,0
25400,-38.0625,-56.1875,65.0625,0
25420,-29.875,-69.75,65.6875,0
25440,-29.5,-79.5,68.125,0
25460,-41.5,-89.25,62.875,0
25480,-51.0625,-102,56.1875,0
25500,-45.6875,-115.062,45.3125,0
25520,-28.0625,-121.188,33.1875,0
25540,-24.625,-120.812,23.9375,0
25560,-23.6875,-117.688,12,0
25580,-23.875,-113.875,2.1875,0
25600,-17.3125,-106.938,-5.5625,0
25620,-12.625,-99.125,-14.75,0
25640,-5.125,-93.1875,-23.1875,0
25660,-0.0625,-86.8125,-29.8125,0
25680,-1.25,-76.625,-37.75,0
25700,3.8125,-65.4375,-44,0
25720,9.4375,-57.75,-51.6875,0
25740,8.0625,-51.4375,-57.8125,0
25760,4.0625,-43.75,-61.75,0
25780,7.3125,-37,-61.0625,0
25800,9.0625,-31.4375,-58.5625,0
25820,4.6875,-27.375,-53.9375,0
25840,-7.0625,-21.3125,-48.3125,0
25860,-14.25,-20.9375,-35.5,0
25880,-14.5625,-19,-24.375,0
25900,-12.6875,-14.25,-21.9375,0
25920,-11.625,-12,-22.375,0
25940,-23.9375,-11.25,-18.4375,0
25960,-26.375,-9.875,-9.3125,0
25980,-21.6875,-9.5625,-9.9375,0
26000,-11,-12.875,-11.5,2001
26020,-2.375,-10.625,-11.25,0
26040,-4.3125,-9.75,-9.125,0
26060,-14.9375,-8.5625,-4.75,0
26080,-21.4375,-5.9375,-2.8125,0
26100,-19.5625,-2.5625,-2.9375,0
26120,-15.0625,0.1875,-8.0625,0
26140,-12.375,1,-11.3125,0
26160,-13.5625,5,-10.4375,0
26180,-10.1875,11.25,-7.6875,0
26200,0.0625,21.75,-6.25,0
26220,12.375,30.8125,-15.625,0
26240,15.125,36.125,-16.625,0
26260,2.9375,33.375,4.5625,0
26280,-27.6875,31,26.625,0
26300,-41.5625,43.0625,45.375,0
26320,-33.1875,70.1875,80.5,0
26340,17.5,99,116.5,0
26360,41.4375,117.938,139.062,0
26380,32.1875,131.625,156.188,0
26400,33.8125,138.812,159.375,0
26420,51.875,145.312,150.25,0
26440,72,146.75,144.188,0
26460,71.625,134.438,138.375,0
26480,45.375,122.812,138.625,0
26500,28.5,107.812,120.625,0
26520,34.25,85.875,103.75,0
26540,45.6875,66.875,89,0
26560,33.8125,46.8125,75.25,0
26580,20.8125,28.75,62.5625,0
26600,15.9375,11.25,53.875,0
26620,11.8125,-0.8125,43.25,0
26640,0,-7.75,28.3125,0
26660,-3.5,-17,16.3125,0
26680,-7.875,-27.375,21,0
26700,2.25,-35.625,17.5,0
26720,9.1875,-42.5,12.25,0
26740,3.5,-45.375,13.625,0
26760,-6.3125,-45.875,7.8125,0
26780,-12.0625,-46.375,1.625,0
26800,-14.25,-43.375,0.875,0
26820,-13.5,-41.125,3.4375,0
26840,-3.625,-39.6875,3.5625,0
26860,3.375,-32.625,2.125,0
26880,5.9375,-24.8125,-0.5625,0
26900,6,-21.5625,-4.875,2000
26920,6.1875,-20.6875,-5.8125,0
26930,8.5625,-14.8125,2.5625,0
26950,6.5625,-12.875,7.1875,0
26970,8.625,-19.4375,-1.875,0
26990,10.125,-28.4375,-10.4375,0
27010,9.625,-33.25,-11.0625,0
27030,16.5,-36.0625,-15.4375,0
27050,17.8125,-39.75,-17.625,0
27070,2.5,-39.1875,-9.5,0
27090,0.875,-31.9375,-4.375,0
27110,15.4375,-26.375,-22.1875,0
27130,22.8125,-18.5,-43.5625,0
27150,12.5,-5.3125,-39.5,0
27170,-3.6875,10.9375,-34.875,0
27190,2.4375,34.8125,-39.8125,0
27210,20.3125,56.75,-72.5625,0
27230,14.875,72.625,-83.5625,0
27250,3.5625,78.25,-81,0
27270,-15.6875,82.125,-82.625,0
27290,-17.1875,93.3125,-92.9375,0
27310,-7.9375,105.688,-102.062,0
27330,-8.5625,108.75,-104.375,0
27350,-14.25,107.5,-99.625,0
27370,-16.375,103.625,-92.5,0
27390,-17.8125,90.6875,-95.625,0
27410,-8.4375,72.25,-95.5625,0
27430,-3.875,47.75,-92.6875,0
27450,9.3125,27.75,-68.0625,0
27470,15.25,21.375,-54.1875,0
27490,9.4375,31.0625,-41.75,0
27510,-10.5,34.75,-28.4375,0
27530,-22.625,35.75,-24.375,0
27550,3.6875,34.25,-13.125,0
27570,38.375,32.6875,22.0625,0
27590,57.0625,31.5625,46.75,0
27610,39.0625,39.125,29.75,0
27630,8.6875,39.25,1.125,0
27650,-15.9375,21.125,39.3125,0
27670,-12.5,3.5625,79.5,0
27690,15.1875,-6.4375,73.5,0
27710,21.3125,-12.75,63.375,0
27730,-0.75,-23.0625,71.4375,0
27750,-29.125,-39.375,82.6875,0
27770,-39.6875,-53.9375,74.3125,0
27790,-21.5,-57.5625,59.5625,0
27810,-10.0625,-59.6875,54.875,0
27830,-5,-56.375,50.125,0
27850,-2.5625,-55.3125,37.875,0
27870,-8.4375,-52.375,20.0625,0
27890,-2.875,-47.75,14.125,0
27910,-2.625,-48.6875,19.0625,0
27930,-9,-46.6875,21.6875,0
27950,-11.375,-46.3125,20.75,0
27970,-25.8125,-46.0625,24.8125,0
27990,-37.6875,-47.625,31.875,0
28010,-45.25,-53.75,33.3125,0
28030,-42.5,-58.8125,32.9375,0
28050,-33.8125,-60.1875,34.4375,0
28070,-36.5,-61,35.9375,0
28090,-34.5625,-63,35.375,0
28110,-38.0625,-65.375,30.125,0
28130,-36.9375,-66.125,22.5,0
28150,-30.1875,-65.9375,23.375,0
28170,-26.0625,-63.8125,25.4375,0
28190,-15.0625,-64.125,22.9375,0
28210,-17.4375,-61.0625,17.375,0
28230,-22.75,-60.3125,14.4375,0
28250,-15.875,-57,10.3125,0
28270,-11.0625,-56.4375,5.0625,0
28290,-9.625,-50.6875,-2.6875,0
28310,-4.1875,-42.25,-17.375,0
28330,0.0625,-26.9375,-28.375,0
28350,11.4375,-25.5,-40.875,0
28370,4.25,-20.375,-56.0625,0
28390,11.0625,-12.9375,-71.1875,0
28410,11.625,-3.75,-84.4375,0
28430,-0.1875,-3.0625,-90.3125,0
28450,-9.125,13.6875,-88.0625,0
28470,-17.75,23.25,-98.1875,0
28490,-27.875,34.5,-110.5,0
28510,-40.75,43.4375,-101.188,0
28530,-32.125,58.625,-95.5,0
28550,-22.125,72.1875,-107.938,0
28570,-27.75,83.625,-108,0
28590,-38.875,87.375,-92.875,0
28610,-42.375,90.6875,-83.8125,0
28630,-35.5,92.125,-75.875,0
28650,-32.0625,90,-61.8125,0
28670,-32.875,81.25,-44,0
28690,-28.75,69.0625,-31.75,0
28710,-26.4375,61,-26.8125,0
28730,-21.25,56.75,-26.3125,0
28750,-22.3125,52.25,-21.625,0
28770,-25,49.375,-11.125,0
28790,-20.875,47.375,-8.5,0
28810,-15.3125,50.625,3.4375,0
28830,-6.375,50.5,11.875,0
28850,3.75,48,12.25,0
28870,9.875,41.5,15.5625,0
28890,6.0625,34,23.5,0
28910,9.625,29.3125,37.875,0
28930,16.875,23.5,44.5,0
28950,15.6875,21.1875,37.8125,0
28970,12.5,15,38,0
28990,7,7.1875,43.875,0
29010,1.4375,-2.625,52.375,0
29030,2.875,-12.875,54.0625,0
29050,9.875,-19.5,52.0625,0
29070,8.6875,-22.5,49.3125,0
29090,7.75,-23.1875,47.5625,0
29110,-2.0625,-30.0625,51.4375,0
29130,-7.1875,-35.5625,53,0
29150,-5.875,-39.8125,49.75,0
29170,-7.6875,-42.5,49.625,0
29190,-10.25,-45.375,51.8125,0
29210,-12.625,-49.1875,51.625,0
29230,-9.375,-54.375,51.9375,0
29250,-13.75,-55.1875,50.5625,0
29270,-13.5,-58,47.375,0
29290,-10.8125,-59.3125,45.125,0
29310,-11.9375,-59.25,43.125,0
29330,-22.3125,-62.75,40.5625,0
29350,-32.8125,-65.0625,31.875,0
29370,-30.375,-69.375,24,0
29390,-20.6875,-74.75,16.5,0
29410,-13.9375,-82.0625,9.5625,0
29430,-19.5625,-89.4375,1.5,0
29450,-21.4375,-90,-7.5625,0
29470,-21.375,-87.75,-18.4375,0
29490,-12.75,-85.25,-28.3125,0
29510,2.625,-85.8125,-41.6875,0
29520,0.625,-83.625,-56.625,0
29540,-5.6875,-80.4375,-60.375,0
29560,-3.5,-69.1875,-59.3125,0
29580,-3.375,-56.75,-74.375,0
29600,-11.875,-38.625,-87.125,0
29620,-24.1875,-25.625,-92.1875,0
29640,-36.625,-12.6875,-80.5625,0
29660,-26.5,-1.125,-86.4375,0
29680,-20.4375,16,-111.375,0
29700,-22.375,28.5625,-116,0
29720,-33,39.8125,-106.062,0
29740,-34.5625,50.9375,-98.75,0
29760,-40.0625,64.5,-96.875,0
29780,-58.875,77.5625,-82.6875,0
29800,-62.1875,94.8125,-63.625,0
29820,-45.375,102.062,-50.25,0
29840,-32.3125,103.812,-45.625,0
29860,-27.6875,109.188,-35.9375,0
29880,-29.5625,114.125,-16.75,0
29900,-19.75,116.688,3.5625,0
29920,-7.9375,113.625,21.6875,0
29940,-3.75,108.188,36.5,0
29960,-5.5625,104.188,48.875,0
29980,-9.1875,103.812,57.9375,0
30000,-9.8125,96.0625,66.0625,0
30020,-13.6875,75.875,75.3125,0
30040,-8.5,62.25,72.1875,0
30060,-14.4375,60.5,67.125,0
30080,-25.8125,52.8125,62.25,0
30100,-39.5,40.3125,67.625,0
30110,-42.125,29.375,66.9375,0
30130,-32.125,12.6875,58.375,0
30150,-20.375,3.5625,56.125,0
30170,-18.875,-6.6875,57.375,0
30190,-37,-20.4375,55.6875,0
30210,-48.5625,-33,48.6875,0
30230,-36.9375,-45.5,41.6875,0
30250,-24.6875,-55.3125,43.125,0
30270,-22.3125,-67.4375,41.5,0
30290,-24.5625,-75,34.8125,0
30310,-26.9375,-86.5625,27.9375,0
30330,-35.3125,-95.1875,26.6875,0
30350,-53.1875,-103.438,28.1875,0
30370,-62.375,-110.562,22.8125,0
30390,-53,-117.125,11.25,0
30410,-43.5625,-119.938,8.1875,0
30430,-37.9375,-119.75,3.4375,0
30450,-35.3125,-116.125,-6.0625,0
30470,-33.75,-107.312,-14,0
30490,-25.75,-100,-19.75,0
30510,-8.3125,-92.875,-26.5625,0
30530,10.75,-89.1875,-36,0
30550,9.5625,-82.1875,-44.125,0
30570,7.5625,-70.875,-56.0625,0
30590,4.25,-60.8125,-68.8125,0
30610,12.3125,-54.375,-68.9375,0
30630,21.875,-50.1875,-68.3125,0
30650,28.5625,-48,-74.8125,0
30670,18,-41.1875,-87.875,0
30690,9.3125,-33.5,-82.6875,0
30710,1.1875,-29.9375,-68.375,0
30730,-10.9375,-26.3125,-57.375,0
30750,-20.1875,-27.25,-46.25,0
30770,-10.375,-23.8125,-36.3125,0
30790,2.4375,-22,-22.625,0
30810,9.5,-16.25,-15.625,0
30830,5.5625,-10.5,-11.375,0
30850,-8.25,-6.625,-8.625,0
30870,-9,-3.125,-10.3125,0
30890,-6.6875,3.0625,-13.25,2001
30910,-3.3125,7.8125,-13,0
30930,2.875,6.8125,-6.6875,0
30950,0.4375,8.375,-1.0625,0
30970,-1.125,11.8125,1.4375,0
30990,-4.375,15.125,7.0625,0
31010,-4.4375,18.5,7.5625,0
31030,-11.5,19.25,3.5625,0
31050,-14.8125,17.5625,1.5625,0
31070,-3.875,18.1875,4.5625,0
31090,0.875,17.9375,3.375,0
31110,2.5,20.125,1.0625,0
31130,6.25,26.6875,-2.8125,0
31150,17.5625,29.25,-10.3125,0
31170,21,26.125,-7,0
31190,10.8125,21.3125,11.8125,0
31210,5.25,21.8125,26.1875,0
31230,10.4375,29.8125,30,0
31250,13.125,41.375,37.6875,0
31270,17.0625,52.375,66,0
31290,30.25,70.0625,91.5,0
31310,39.4375,97.0625,105,0
31330,53.875,112.812,117,0
31350,50.9375,109.125,123.312,0
31370,57.625,114.5,129.75,0
31390,73.9375,122.625,126.938,0
31410,77.3125,125.75,129.75,0
31430,56.6875,119.562,133,0
31450,30.8125,96.6875,123.938,0
31470,13.875,74.4375,113.875,0
31490,8.25,52.6875,105.625,0
31510,2.8125,26.125,84.375,0
31530,5.625,11,59.125,0
31550,12.1875,0.25,45.125,0
31570,6.5625,-9.125,44.125,0
31590,0.1875,-15.125,39.625,0
31610,-3.125,-17.6875,26.8125,0
31630,1.75,-17.25,16.125,0
31640,14.6875,-17.625,13.9375,0
31660,19.875,-14.875,16.125,0
31690,-3.1875,-11.75,12.1875,0
31700,-10.4375,-15.875,11.6875,0
31720,-2,-17.875,9.8125,0
31740,15.8125,-18.375,10.5,0
31760,19.25,-21.375,12.8125,2000
31780,8.375,-26.625,13.9375,0
31800,2.6875,-28.0625,1.8125,0
31820,10.25,-29.25,-3.5,0
31840,20.125,-31.75,0.875,0
31860,18.25,-35.0625,3.125,0
31880,16.9375,-39.8125,-1.3125,0
31900,13.4375,-42.75,-9.6875,0
31920,15.5625,-44.75,-19.9375,0
31940,26.875,-41.1875,-25.0625,0
31960,32.4375,-38.3125,-26.6875,0
31980,21.5,-37.75,-22.9375,0
32000,7.1875,-34.125,-22.6875,0
32020,8.625,-24.375,-24.5,0
32030,4.0625,-15.25,-32.125,0
32050,-5.375,3.875,-42.6875,0
32070,-7.75,9.25,-46.3125,0
32090,-4.375,19.125,-40.3125,0
32130,-10.1875,54,-57.375,0
32140,-17.8125,66.3125,-62.875,0
32160,-18.125,71.0625,-74,0
32180,-15.1875,79.4375,-81.75,0
32200,-19.5,97.6875,-76.375,0
32220,-12.6875,116.375,-77.3125,0
32240,-11.375,119.5,-83.25,0
32260,-17.625,115.75,-93.125,0
32280,-25.9375,105.438,-95,0
32300,-25.875,97.3125,-91.9375,0
32320,-17.4375,85.5,-87.3125,0
32340,-13.1875,70.25,-77.5,0
32360,-8.4375,53.0625,-67.25,0
32380,-6.8125,42.25,-67.625,0
32400,0.6875,44.75,-65.875,0
32420,-18.875,67.875,-32.75,0
32440,1.5,79.625,-3.875,0
32460,17.5625,79.25,3.125,0
32480,3.1875,75.8125,-0.125,0
32500,0.1875,68.3125,6.1875,0
32520,18.8125,61.6875,22.8125,0
32540,22.75,50.5,47.375,0
32560,15.0625,36.5625,46.8125,0
32580,18.1875,27.375,35.25,0
32600,15.8125,13.75,47.625,0
32620,11.6875,1.5625,66.8125,0
32640,19.8125,-7.0625,74.6875,0
32660,15.9375,-18.25,72.0625,0
32680,4.75,-27.875,70.9375,0
32700,-6.25,-34.4375,74.0625,0
32720,-9.8125,-42.5,76.875,0
32740,-8.375,-48.125,73.1875,0
32760,-7.9375,-55.1875,66.4375,0
32780,-10.5,-61.5625,60.625,0
32800,-8.625,-67.3125,54,0
32820,-6.9375,-72.125,47.5625,0
32840,-6.8125,-78.5,46.3125,0
32860,-18.125,-87.625,55.1875,0
32880,-30.125,-92.3125,51.25,0
32900,-29.4375,-94.125,42.9375,0
32920,-33.625,-94.25,40.875,0
32940,-34.4375,-93.125,39.8125,0
32960,-42.6875,-96.3125,34.25,0
32980,-44.25,-95.5,22.375,0
33000,-32.9375,-91.75,10.125,0
33020,-21.75,-91.4375,3.4375,0
33030,-30.8125,-91.8125,3.0625,0
33050,-32.4375,-86.1875,-2.8125,0
33070,-25.375,-80.875,-22.375,0
33090,-8.0625,-72.5,-45.5625,0
33110,3.6875,-66,-53.375,0
33130,-10.6875,-60,-54.1875,0
33150,-20.4375,-49.5,-66.0625,0
33170,-27.75,-27,-82.6875,0
33190,-26.5625,-5.4375,-98.0625,0
33210,-30.1875,8.3125,-104.938,0
33230,-50.4375,24.8125,-102,0
33250,-35.8125,38.875,-106.5,0
33270,-31.1875,49.8125,-124.938,0
33290,-34,63,-129.875,0
33310,-54,72.4375,-118.438,0
33330,-67.3125,82.9375,-103.188,0
33350,-56,94.9375,-94.875,0
33370,-43.875,102.375,-88.75,0
33390,-37.1875,101.688,-75.9375,0
33410,-28.1875,91.375,-57.5,0
33430,-20.25,75.5,-40.4375,0
33450,-10.4375,59.875,-26.3125,0
33470,-7.5,52.375,-18.25,0
33490,-13.1875,47.625,-12.5,0
33510,-12.0625,39.1875,-7.25,0
33530,-3.625,38.625,6.5625,0
33550,10.1875,45.0625,24.375,0
33570,29.25,45.6875,31.25,0
33590,27.5,39.4375,25.375,0
33610,12.25,32.5,30.4375,0
33630,4.625,27.875,48.8125,0
33650,24.5,21.8125,59.6875,0
33670,42.75,17.4375,62.0625,0
33690,25.375,11.4375,66.125,0
33710,0.125,4.125,69.0625,0
33730,-11.3125,-5.25,71.1875,0
33750,-7.125,-13.875,80.6875,0
33780,-16.5625,-27.9375,70.5625,0
33800,-15.75,-31.125,70.9375,0
33820,-13.5,-36.1875,68.4375,0
33840,-8.3125,-40.375,60.8125,0
33860,-3.625,-47.125,50.4375,0
33880,-2.3125,-56.5625,46.125,0
33900,-1.1875,-69.4375,42.9375,0
33920,-6.875,-84.0625,39.3125,0
33940,-14.9375,-94.9375,34.125,0
33960,-19.25,-103.5,24.125,0
33980,-22.125,-109.75,13.5625,0
34000,-24.25,-113.688,4.0625,0
34020,-24.9375,-115.812,-6.3125,0
34060,-26.125,-112.25,-29.75,0
34080,-24,-105.062,-40.8125,0
34100,-24.75,-97.3125,-48.9375,0
34120,-22.4375,-91.875,-61.3125,0
34140,-29.625,-83.8125,-72.6875,0
34160,-42.8125,-68.0625,-78.5625,0
34180,-34.5625,-49.25,-83.625,0
34200,-31.0625,-31.625,-92.125,0
34220,-37.8125,-14.0625,-100.625,0
34240,-45.6875,1.5,-101.438,0
34260,-57.875,21.4375,-97.375,0
34280,-56,43.25,-88,0
34300,-47.5625,60.5,-79.375,0
34320,-41.3125,78.125,-75.375,0
34340,-36.125,91.125,-77.3125,0
34360,-36.875,98.8125,-75.9375,0
34380,-27.125,105.688,-71,0
34400,-13.8125,107.375,-64.4375,0
34420,-5.6875,109.875,-50.5625,0
34440,-4,108.438,-33.75,0
34460,-6.125,107.812,-19,0
34480,-0.3125,105.75,0.1875,0
34500,5.5,100,20.9375,0
34520,9,93.3125,37.25,0
34540,1.3125,89.1875,52.25,0
34560,-2.1875,87.5,64.6875,0
34580,-6.75,81.5625,69.6875,0
34600,-13.375,70.375,81.6875,0
34620,-24.75,53.4375,83.6875,0
34640,-30.25,38.875,79.1875,0
34660,-31.25,23.1875,81.25,0
34680,-40.5625,5.375,89.125,0
34700,-47.125,-21.125,75.125,0
34720,-45.125,-37.125,69.1875,0
34740,-38.1875,-51.8125,59.125,0
34760,-20,-58.3125,53.8125,0
34780,-2.4375,-61.4375,49.0625,0
34800,-3.0625,-60.4375,45.875,0
34820,-15.875,-63.25,45,0
34840,-21.625,-70,39.9375,0
34860,-19.0625,-73.3125,33.0625,0
34880,-13,-74.25,28.4375,0
34900,-9.75,-74.875,24,0
34920,-11.5625,-78.375,23.4375,0
34940,-23.0625,-83.25,14.625,0
34960,-23.0625,-85.9375,2,0
34980,-10.5,-84.3125,-10.75,0
35000,10.8125,-83.625,-24.625,0
35020,16.875,-82.875,-34.3125,0
35040,12.4375,-84.125,-41.125,0
35060,12.3125,-81.0625,-49.875,0
35080,21.5,-76.4375,-56.625,0
35100,25.125,-75.9375,-52.5625,0
35120,23.8125,-73.9375,-48.25,0
35140,12.4375,-77.1875,-52.3125,0
35160,-10.125,-79.6875,-42,0
35180,-11.1875,-71.3125,-31.0625,0
35200,-15.5625,-62.6875,-31.0625,0
35220,-20.5625,-51.25,-36.9375,0
35240,-23.4375,-47.9375,-44.25,0
35260,-20.1875,-44.9375,-50.5625,0
35280,-12.0625,-37.375,-46.375,0
35300,-2.0625,-29.1875,-47.875,0
35320,4.375,-17.8125,-47.5625,0
35340,3.625,-9.9375,-44.3125,2001
35360,-7.3125,-0.6875,-37.3125,0
35380,-11,5.3125,-30.5,0
35400,-15.375,11.9375,-29.875,0
35420,-12.1875,13.3125,-23.25,0
35440,-10,12.75,-9.9375,0
35460,-16.3125,9.375,-4.5625,0
35480,-24.75,7.75,-3.8125,0
35500,-19.625,12.1875,3.1875,0
35520,-12.375,19.125,1.625,0
35540,2.75,24.125,-5.625,0
35560,19.125,32.5625,2.25,0
35580,27.25,33.125,5.9375,0
35600,20.1875,33.1875,2.8125,0
35620,9.75,39.875,13.6875,0
35640,11.625,56.875,28,0
35660,36.8125,71.25,49.75,0
35680,50.4375,75.3125,85.625,0
35700,37.4375,83.875,112.25,0
35720,47.0625,111.562,127.938,0
35740,67.6875,122.312,154.062,0
35760,63.5625,124.812,178.375,0
35780,61.25,137.625,178,0
35800,56,140.938,169.562,0
35820,53.5625,132.625,157.688,0
35840,48.875,111.5,146.188,0
35860,20.75,86.3125,139.625,0
35880,4.4375,67.125,115.562,0
35900,6.5625,46.4375,79.125,0
35920,17.1875,23.9375,64.4375,0
35940,25.6875,10.6875,61.125,0
35970,-6.8125,0.875,26.8125,0
35990,-8.75,-10.6875,36.375,0
36010,-12.1875,-18.6875,32.25,0
36030,-17.5,-22.4375,15.3125,0
36050,-8.0625,-23.5,-1.25,0
36070,3.25,-25,-1.75,0
36090,5.875,-24.8125,-0.25,0
36100,2.25,-22.375,-5.75,0
36120,0.75,-21.625,-11.1875,0
36140,3.25,-20.625,-13.0625,0
36160,5.75,-19.5625,-8.5625,0
36180,10.6875,-17.9375,-4.25,0
36200,6.4375,-15.3125,-3.4375,2000
36220,-2.0625,-15.875,-2.4375,0
36240,-12.6875,-16.3125,-3.375,0
36260,-10.375,-19.8125,-0.875,0
36280,-1.75,-20.0625,2.75,0
36300,0.875,-18.75,7.8125,0
36320,-4.875,-20.3125,4.25,0
36340,-17,-26.1875,-3.5,0
36360,-7,-34.3125,-8.375,0
36380,10.4375,-40.8125,-8.5,0
36400,24,-46.8125,-13,0
36420,29,-51.25,-26.6875,0
36440,31.125,-50.4375,-41.1875,0
36460,30.6875,-43.3125,-48.8125,0
36480,17.1875,-25.75,-38.375,0
36500,42.125,-10.75,-39.0625,0
36520,43.625,-0.3125,-64.25,0
36540,36.6875,12.1875,-78.75,0
36550,7.9375,36.875,-84.375,0
36550,-4.8125,47.1875,-84.5625,0
36570,-14.5,67.5625,-84.6875,0
36590,-12.0625,92.75,-85.8125,0
36610,-1.1875,117.25,-95.625,0
36630,-2.9375,130.188,-106.312,0
36650,-17.75,134.188,-104.25,0
36670,-21.8125,131.812,-91.3125,0
36690,-16.5,119.625,-84.875,0
36710,-2.8125,86.6875,-72.9375,0
36730,12.75,57.375,-53.25,0
36750,-1.0625,63.5625,-31.6875,0
36770,-12.3125,68.1875,-10.0625,0
36790,0.75,60.6875,-3,0
36810,-21.1875,48.4375,4,0
36830,-36.875,47.5625,20.4375,0
36850,-16.1875,31.25,35.0625,0
36870,-8.5,13.5,52.25,0
36890,-12.1875,-5.375,57.8125,0
36910,-26.8125,-17.5625,57.75,0
36930,-29.5625,-20.75,66.1875,0
36950,-29.375,-22.3125,80.5,0
36970,-47.3125,-36.1875,78.125,0
36990,-63.9375,-50.125,59.5625,0
37010,-46,-62.3125,49.5625,0
37030,-36,-71,57.9375,0
37050,-27.4375,-77.3125,62.25,0
37070,-36.9375,-87.75,44.125,0
37090,-49.8125,-101.5,28.25,0
37110,-38.1875,-114.125,25.875,0
37130,-17.0625,-120.5,24.4375,0
37150,-6.875,-126.375,24.0625,0
37170,-10.1875,-133.25,7.75,0
37190,-15.9375,-137.688,-14.625,0
37210,-7.3125,-139.312,-23.125,0
37230,-7.0625,-138.688,-22.875,0
37250,-7.8125,-136.438,-23.4375,0
37270,-17.8125,-122.438,-32.5,0
37290,-10.625,-105.5,-42.625,0
37310,-3.1875,-88.625,-48.8125,0
37330,-6.25,-68.8125,-42.625,0
37350,-36.125,-41,-29.25,0
37370,-27.4375,-6.6875,-26.0625,0
37390,-8.4375,23.9375,-34.4375,0
37410,-9.6875,41.5625,-35.625,0
37430,-44.0625,59.5,-26.1875,0
37450,-49.75,74.625,-25.9375,0
37470,-35.3125,85.0625,-59.75,0
37490,-41.6875,100.188,-69.5,0
37510,-41.375,121,-56.3125,0
37530,-32.75,131.75,-68.125,0
37550,-29.9375,128.25,-83.125,0
37570,-23.0625,123.25,-90.8125,0
37590,-1.125,117.75,-98.125,0
37610,16.375,97.4375,-104.5,0
37630,15.375,82.5625,-94.875,0
37650,15.875,86.9375,-79.75,0
37670,9.3125,93.8125,-82.1875,0
37690,3.75,98.8125,-84.8125,0
37710,7.875,96.75,-63.625,0
37730,29.8125,92.25,-14.1875,0
37750,43,85.6875,23.375,0
37770,39.75,74.125,21.6875,0
37790,27.4375,57.0625,20.25,0
37810,26.125,44.6875,40,0
37830,14.875,34.0625,65.25,0
37850,16.25,23.1875,72.375,0
37870,-0.4375,13.0625,73.0625,0
37890,-13.9375,-8.8125,69.75,0
37920,-23.9375,-68.125,80.0625,0
37940,-22.5625,-73.25,74.3125,0
37960,-24.875,-78.3125,65.9375,0
37980,-24,-82.125,60.25,0
38000,-13.6875,-81.5625,56.25,0
38020,-8.375,-78.375,47.625,0
38050,-13.625,-101.688,0.25,0
38070,-25.3125,-101.688,-11.1875,0
38110,-50.75,-73.1875,-67.1875,0
38130,-47.875,-55.0625,-78.125,0
38150,-35.875,-35,-95.3125,0
38170,-29.625,-18.5,-107.438,0
38190,-32.6875,-5.5625,-102.688,0
38210,-34.625,9.375,-103.312,0
38230,-35.625,28.5,-114.625,0
38250,-28.5,46.6875,-118.375,0
38270,-20.875,62.4375,-104.375,0
38290,-34.375,76.0625,-88.875,0
38310,-39.3125,89.75,-82.6875,0
38330,-35.5625,104.25,-85.3125,0
38350,-25.1875,113.562,-80.875,0
38370,-9.4375,121.75,-59.375,0
38390,-2.8125,127.062,-47.25,0
38410,0.875,131.562,-49.625,0
38430,4.125,133.25,-48.0625,0
38450,20.6875,126.062,-35.6875,0
38470,33,123.688,-2.875,0
38490,28.6875,121.625,20.125,0
38510,13.25,111.188,41.125,0
38530,-0.0625,91.1875,61.875,0
38550,-3.75,80.9375,73.75,0
38570,-9.3125,67.375,94,0
38590,-31.5625,56.0625,111.375,0
38610,-54.8125,45,107.062,0
38630,-70.5,27.3125,104.25,0
38650,-62.9375,13.5,100.812,0
38670,-56.375,1.9375,92.25,0
38690,-64.625,-7.125,87.6875,0
38710,-68.0625,-22.9375,71.3125,0
38730,-53.4375,-48.3125,52.9375,0
38750,-39.375,-69.125,50.8125,0
38770,-33.1875,-83.8125,49.9375,0
38780,-39.9375,-97.25,37.6875,0
38800,-43.5625,-110.938,30.5,0
38820,-37,-120.125,20.875,0
38840,-32.1875,-126.812,14.125,0
38860,-35.5,-126.938,7.4375,0
38880,-41,-126.062,2.6875,0
38900,-38.5625,-123.688,-1.875,0
38920,-37,-120.062,-10,0
38940,-33.125,-115,-13.0625,0
38960,-30.5625,-110.188,-21.6875,0
38980,-20.75,-104.438,-34.0625,0
39000,-1.3125,-93.25,-43.125,0
39020,15.8125,-82.375,-58.0625,0
39040,29.3125,-72.0625,-72.6875,0
39060,28,-65.375,-77.1875,0
39080,29,-57.375,-84.875,0
39100,33.9375,-50.375,-83.75,0
39120,37.625,-48.1875,-74.4375,0
39140,29.75,-41.75,-66.5625,0
39160,19.875,-33.875,-59.625,0
39180,10.4375,-30.25,-49.8125,0
39200,7.9375,-20.5625,-38.3125,0
39220,6.8125,-12.25,-32.375,0
39240,4,-5.4375,-25.1875,0
39260,-3.875,-2.3125,-15.625,2001
39280,-2.5,1.5625,-15.25,0
39300,-7.125,8.75,-8.1875,0
39320,-2.25,9.1875,-12.1875,0
39340,-10.4375,9.75,-14.75,0
39360,-14.375,9.9375,-8.8125,0
39380,-15.1875,10.875,0.4375,0
39400,-9.9375,13.9375,2.25,0
39420,-1.0625,18.625,-6.9375,0
39440,4.8125,23.375,-12.3125,0
39460,3.1875,22.875,0.8125,0
39480,-13.1875,26.125,14.4375,0
39500,-16.8125,39.125,31.375,0
39520,-2.625,55.5,57.4375,0
39540,18.75,70.6875,80.8125,0
39560,24.6875,74.875,101.062,0
39580,19.5,82.0625,121.125,0
39600,19.5625,99.75,135.25,0
39620,41,119.562,151.562,0
39640,56.75,130.312,153.375,0
39660,49.6875,132.688,151.062,0
39680,40.875,128.188,154.562,0
39700,26.4375,111.812,153.375,0
39720,27.3125,95.125,144.188,0
39740,26.5625,78,119.25,0
39760,19.8125,69.6875,94.3125,0
39780,10.3125,47.5,83.9375,0
39800,-3.4375,23.25,73.75,0
39820,-1.75,6.75,52.3125,0
39840,10.375,-6.5,31.625,0
39860,17.6875,-15.5625,23.8125,0
39880,19.1875,-20.625,20.5,0
39920,-4.3125,-27.375,7.75,0
39940,-10.625,-28.4375,2.625,0
39960,-2.625,-30.25,4.0625,0
39980,2.25,-30.3125,14.8125,0
40000,-7.125,-29.9375,23,0
40020,-14.0625,-26.8125,17,2000
40040,-9.3125,-21.3125,17.25,0
40060,-0.125,-12.6875,25.1875,0
40080,0.8125,-10.5,26,0
40100,-1.0625,-17.1875,12.4375,0
40120,1.25,-23.3125,-3.25,0
40140,8.8125,-27.375,-3.625,0
40160,14.6875,-28.75,0.875,0
40180,2.6875,-35.125,3.3125,0
40200,2.5625,-41.9375,-11.0625,0
40220,1.9375,-46,-16.6875,0
40240,11.75,-45,-15.75,0
40260,23.75,-44.0625,-24.75,0
40280,14.375,-46.3125,-26.4375,0
40300,5.875,-42.375,-32.6875,0
40310,9.4375,-32.25,-49.9375,0
40350,3.5625,34,-55.125,0
40370,12.25,53,-69.9375,0
40390,4.4375,70.3125,-76.9375,0
40410,-17.9375,87.1875,-69.625,0
40420,-16.875,103.938,-71.0625,0
40440,-2.6875,113,-83.375,0
40460,-2.625,121.25,-99.4375,0
40480,-14.375,129.688,-94.125,0
40500,-18.5,132.875,-80.6875,0
40520,-14.75,123.75,-82.3125,0
40540,-12.4375,103.75,-92.8125,0
40560,-3.75,85.625,-83.25,0
40580,10.5625,70.6875,-55.5,0
40600,21.9375,62.1875,-38.1875,0
40620,10.5625,63.125,-20.1875,0
40640,-15.75,67.0625,-9.75,0
40660,-24.375,59.8125,-12.1875,0
40680,-0.875,53.9375,4.125,0
40700,11.625,47.1875,46.25,0
40720,27.0625,46,48.9375,0
40740,8.125,34.5625,21.1875,0
40760,-2.875,21.125,11,0
40780,-4.5,1.625,46.75,0
40800,26.75,-10.8125,55.4375,0
40820,46.4375,-14.8125,36.75,0
40840,46.625,-19.9375,28.625,0
40860,35.8125,-30.0625,38.8125,0
40880,34.25,-36.875,57.375,0
40900,34.75,-45.375,66.8125,0
40920,19.9375,-47,66,0
40940,10.8125,-52.1875,69.1875,0
40960,-1.5625,-57.125,78.1875,0
40980,-10.5625,-67.75,78.125,0
41000,-19.9375,-75.75,72.625,0
41020,-28.0625,-80.5,66.9375,0
41040,-36.5,-87.6875,57.25,0
41060,-35.1875,-93.5,51.4375,0
41080,-35.3125,-97.1875,46.0625,0
41100,-29.1875,-98.3125,38.5,0
41120,-29.6875,-97.3125,26.0625,0
41140,-33.25,-96.625,12.5,0
41160,-34.375,-98.1875,0.875,0
41180,-39.5,-101.5,0.375,0
41200,-22.3125,-97.375,-5.3125,0
41220,-6.9375,-89.75,-25.375,0
41240,5.0625,-75.3125,-41.875,0
41260,14.375,-58.5,-60.875,0
41280,4.625,-57.25,-68.4375,0
41300,-39.4375,-54.5625,-65.5625,0
41320,-39.25,-33.1875,-69.3125,0
41340,-31,-5.1875,-88.4375,0
41360,-11.9375,12.0625,-108.5,0
41380,-37.3125,23.375,-113.688,0
41400,-67.25,37.4375,-111.25,0
41420,-60.125,59.9375,-117.062,0
41440,-45.4375,86.5,-120.312,0
41460,-45.3125,109.938,-112.938,0
41480,-49.1875,126.062,-99.1875,0
41500,-31.5625,142.625,-98.4375,0
41510,-14.4375,146.625,-93.75,0
41530,-16.25,135.562,-74.1875,0
41550,2.4375,113.125,-51,0
41570,15.3125,86.75,-44.3125,0
41590,19.4375,80.3125,-36.1875,0
41610,21.375,67.25,-21.25,0
41630,17.4375,53.1875,7.4375,0
41650,15.5,42.875,39.5625,0
41670,10.3125,35.375,58.625,0
41690,22.625,28.0625,55.875,0
41710,22.375,21.1875,62.8125,0
41730,13.4375,5.8125,81.375,0
41750,5.625,-6.75,91.8125,0
41770,8.875,-12.9375,91.9375,0
41790,4,-21.125,89.5,0
41810,-12.125,-33.25,87.4375,0
41830,-20.625,-41.5625,97.3125,0
41850,-18.4375,-48.875,94.25,0
41870,-14.1875,-50.5625,77.5,0
41890,-14.25,-58.6875,73,0
41900,-25.4375,-65.1875,75.3125,0
41920,-41.3125,-80.9375,74.5625,0
41940,-56.125,-97.8125,63.9375,0
41960,-59.875,-107,59.6875,0
41980,-54.5,-112.125,53.4375,0
42000,-43.5625,-117.188,43.125,0
42020,-36.375,-123.812,24.6875,0
42040,-25.1875,-130.562,-1.625,0
42060,-22.9375,-132,-23.6875,0
42080,-21.4375,-127.75,-39,0
42100,-8,-113.688,-59.0625,0
42110,9,-79.0625,-119.438,0
42130,-25.6875,-42.3125,-117.188,0
42150,-23.625,-18.8125,-132.25,0
42170,-32.875,-0.3125,-133,0
42190,-51.375,17.75,-121.062,0
42210,-54.0625,39.5625,-119.25,0
42230,-52.625,58.375,-118.625,0
42250,-50.1875,76.3125,-103.438,0
42270,-54.125,95.5,-94.4375,0
42290,-46.5,107.125,-90.1875,0
42310,-48.5,112.25,-81.0625,0
42330,-38.3125,118.75,-58.25,0
42350,-14.125,121.75,-34.75,0
42370,-4.0625,127.812,-24.5,0
42390,-1,124.625,-11,0
42410,1.5625,116.625,4.9375,0
42430,3,105.25,15.125,0
42450,7.8125,98.1875,35.6875,0
42470,4.75,92.9375,62.625,0
42490,-5.375,81.75,73.875,0
42510,-20.1875,69.75,74.6875,0
42530,-20.9375,55,91.625,0
42550,-22.25,49.3125,108.125,0
42570,-27.8125,40.625,105.562,0
42590,-44.8125,23.875,89.8125,0
42610,-57.25,1.5625,83.1875,0
42630,-47.25,-16,83.75,0
42650,-38.625,-28.1875,77.125,0
42670,-48.0625,-38.8125,65.8125,0
42690,-54.3125,-55.6875,57.6875,0
42710,-37.5,-70.6875,51.5625,0
42730,-10.5,-84.3125,42.125,0
42750,-2.6875,-95.1875,34.5,0
42770,-28.9375,-103.688,31.9375,0
42790,-50.75,-108.312,30.75,0
42810,-45.6875,-110.188,22.8125,0
42830,-23.5625,-107.125,14,0
42850,-4.4375,-103.438,8.6875,0
42870,2.5625,-94.625,-2.8125,0
42890,5.8125,-89.9375,-18.875,0
42910,9.1875,-88.0625,-32.375,0
42930,24.5625,-83.3125,-42.875,0
42950,36.625,-80.5625,-53.875,0
42970,30.875,-83.875,-64.9375,0
42990,7.75,-88.0625,-70,0
43010,-7.625,-89.375,-69.25,0
43030,-6.5,-83.125,-69.0625,0
43050,0,-72.125,-64.3125,0
43070,8.0625,-60.125,-59.0625,0
43090,2.625,-49.3125,-59.0625,0
43110,-7.0625,-37.625,-61.6875,0
43130,-11.4375,-24.9375,-53.4375,0
43150,-5.0625,-11.8125,-45.0625,2001
43170,0.625,-1.625,-40.8125,0
43190,-0.8125,3.8125,-32.75,0
43210,-2.3125,7.125,-26.3125,0
43230,-9.6875,3.625,-26,0
43250,-16.5625,1.4375,-26,0
43270,-19.6875,-1.125,-23,0
43290,-10.625,-1,-18.4375,0
43310,-16.1875,1.75,-7.5,0
43330,-18.6875,3.0625,3.875,0
43350,-29.9375,7.8125,2.9375,0
43370,-26.9375,9.375,1.125,0
43390,-18.625,11.9375,-0.5,0
43410,-5.1875,14.5625,5.8125,0
43430,1.875,23.5625,6.1875,0
43450,-0.5,32.75,8.8125,0
43470,-10.375,39.875,23.125,0
43490,-12,50.9375,43.5625,0
43510,-9.625,54.4375,65.0625,0
43530,-9.6875,59.1875,86.6875,0
43550,-3.3125,73.75,101.375,0
43570,0,90.25,121,0
43590,2,93.625,154,0
43610,14.8125,110.5,170.562,0
43630,31.375,125.125,158.438,0
43650,30.875,122.75,157.5,0
43670,24.8125,111.562,148.5,0
43690,37.625,92.9375,128,0
43710,42.3125,77.75,123.688,0
43730,21.75,60.375,118.5,0
43750,8.125,44.4375,94,0
43770,15.9375,24,65.0625,0
43790,25.1875,6.4375,60.625,0
43810,30.4375,-7.375,57.5,0
43830,23.5,-18.125,44.5,0
43850,9.75,-25.1875,31.5,0
43870,-0.5,-29.5625,30.5,0
43890,-6.1875,-30.5,28.6875,0
43910,1.3125,-31.9375,22.3125,0
43930,3.6875,-27.375,19.125,0
43940,9.0625,-21.875,14.3125,0
43960,4.375,-22.5625,11.5,2000
43980,6.6875,-20.6875,10.8125,0
44000,1.0625,-18.9375,10.9375,0
44020,-3.5,-23.875,7.0625,0
44040,-2.125,-29.625,-1.1875,0
44060,14.875,-31.875,-8.6875,0
44080,25.4375,-34.125,-12.4375,0
44100,17.6875,-35.25,-8.875,0
44120,9.375,-35.9375,-6.8125,0
44140,4.1875,-34.875,-5.9375,0
44160,8.0625,-31.5,-3,0
44180,18.125,-28.9375,-2.9375,0
44200,23.625,-31.3125,-2.5,0
44220,16.375,-32,0.3125,0
44240,17,-28.875,-16,0
44260,18.625,-21.6875,-28.9375,0
44280,12.5625,-11.75,-24.625,0
44300,9,-3.9375,-24,0
44360,0.125,44.4375,-64.875,0
44360,-6.6875,59.1875,-63.1875,0
44380,-12.4375,70.5,-63.8125,0
44400,-15.75,74.0625,-75.375,0
44420,-12.5625,89.1875,-89.5625,0
44440,-5.9375,107,-96.8125,0
44460,-8.9375,124.812,-95.9375,0
44480,-12.5,133.125,-91.5,0
44500,-7.125,127.562,-98.5,0
44520,-4.125,111.688,-114.188,0
44540,8.375,90.875,-108.188,0
44560,20.5625,77.875,-74.3125,0
44580,12.75,76.875,-35.4375,0
44600,4.625,77.5625,-31.4375,0
44620,2.4375,80.3125,-39.25,0
44640,-14.1875,76,-12.5625,0
44660,-8.4375,73.75,16.5,0
44680,13,71.625,30.0625,0
44700,10.8125,60.1875,35.6875,0
44720,1.125,46.9375,32.0625,0
44740,-6.375,28.5625,38.3125,0
44760,-5.1875,12.5,53.5,0
44770,-3.375,1.6875,64.5625,0
44790,-4.625,-11.9375,70,0
44810,-16,-29.375,67.0625,0
44830,-18.3125,-46.1875,71,0
44850,-15.8125,-51.5,79.25,0
44870,-20.875,-62.1875,81.8125,0
44890,-27.5,-74.1875,73.625,0
44910,-32.6875,-84.0625,66.125,0
44930,-33,-92.6875,63.4375,0
44950,-27.625,-101.875,58.375,0
44970,-23.625,-106.25,51.75,0
44990,-26.3125,-112.25,49.125,0
45010,-29.5625,-119.062,42.625,0
45030,-24.3125,-119.688,32.1875,0
45050,-20.3125,-120.688,25.125,0
45070,-12.6875,-117.312,11.0625,0
45090,-10.125,-116.25,-4.375,0
45110,-14.3125,-114.25,-13.8125,0
45130,-6.375,-109.5,-29.875,0
45150,6.75,-99.5625,-50.75,0
45170,24.25,-81.5,-64.8125,0
45190,38.875,-62.4375,-83,0
45210,18.3125,-48.6875,-92.0625,0
45230,-8.9375,-31.375,-88.75,0
45250,-20.3125,-15.25,-101.75,0
45270,-25.9375,-5,-129.812,0
45290,-33.75,1.6875,-140.812,0
45310,-59.5,8.625,-135.562,0
45330,-74.9375,26.25,-131.188,0
45350,-68.375,51.125,-134.625,0
45370,-62.625,79.25,-135.438,0
45390,-58.5,100.312,-129.125,0
45410,-51.75,122.875,-115.562,0
45430,-29.3125,132.25,-104.938,0
45450,-8.25,127.875,-83.3125,0
45470,-2.75,108.562,-57.625,0
45490,5.1875,84.125,-33.1875,0
45510,14.875,63.1875,-11,0
45530,19.6875,59.5625,13.625,0
45550,10.375,64.4375,34.6875,0
45570,11.6875,54.0625,49.1875,0
45590,16.9375,42.125,64.0625,0
45610,17.75,33,81.5625,0
45630,16.4375,23.875,96,0
45650,11.25,12.5,105.312,0
45670,2.8125,-0.375,97.75,0
45690,-4.625,-9.5625,97,0
45710,-3,-14.6875,104.75,0
45730,2.0625,-18.25,99.125,0
45750,-5.625,-27.375,80.125,0
45770,-11.1875,-35.4375,72.0625,0
45800,-7,-48.6875,71.9375,0
45820,-16.5625,-58,66.75,0
45840,-25.9375,-67.375,68.0625,0
45860,-30.5,-76.25,69.5,0
45880,-28.4375,-84.375,65.9375,0
45900,-37,-93.125,65.4375,0
45920,-56.8125,-100.188,61.5625,0
45940,-58.0625,-104.5,50.3125,0
45960,-45.8125,-110.188,37.375,0
45980,-40.5,-116.5,24.8125,0
46000,-29.1875,-117.938,9.4375,0
46020,-15.9375,-112.875,-36.625,0
46040,-13.5,-105.625,-58.8125,0
46060,-15.5625,-42.8125,-107.062,0
46090,-37.375,-6.8125,-121.438,0
46110,-37.875,10.75,-125.812,0
46130,-33.375,29.5625,-121.25,0
46150,-34.25,46.5,-110.5,0
46170,-34.625,61.0625,-102.438,0
46190,-32.6875,74.75,-101.812,0
46210,-34.625,94.3125,-101.75,0
46230,-35.5625,104,-98.4375,0
46250,-30.9375,107.5,-84.75,0
46270,-22.25,111.188,-61,0
46290,-6.625,114.875,-50.4375,0
46310,-11.9375,118.438,-42.9375,0
46330,-18.625,119.75,-21.375,0
46350,-4.9375,113,4.1875,0
46370,16.5625,110.938,20.9375,0
46390,21.625,107.25,36.4375,0
46410,11.125,107.312,50.8125,0
46430,-10.375,100.562,55.25,0
46450,-8,82.875,65.375,0
46470,8.1875,61.75,73.375,0
46490,3.25,55.1875,79.6875,0
46510,-10.25,44.125,91.1875,0
46530,-20.1875,22.6875,90.0625,0
46550,-16.125,3,88.5,0
46570,-10.5625,-7.375,96.75,0
46590,-23.5,-18.5625,94.75,0
46610,-42.8125,-29.6875,95.125,0
46630,-49.0625,-44.3125,90.1875,0
46650,-37.4375,-52.3125,79.1875,0
46670,-23.0625,-55.3125,73.0625,0
46690,-26.5625,-60.125,69.125,0
46710,-35,-70.75,55.9375,0
46730,-31.875,-80.9375,39.5625,0
46750,-16.5625,-91.75,25.375,0
46770,-2.5,-95.75,17.0625,0
46790,7.3125,-95.5,5.125,0
46810,11.25,-96,-7.6875,0
46830,3.875,-100.125,-16.25,0
46850,-5.0625,-101.062,-23.375,0
46870,-14.9375,-100.375,-30.25,0
46890,-24.125,-96.8125,-36.5,0
46910,-23.8125,-90.25,-37.6875,0
46930,-9.5625,-84.625,-37.8125,0
46950,-0.5,-75.625,-41.9375,0
46970,3.5,-68.375,-48.25,0
46990,-7,-61.5,-52.875,0
47010,-18.4375,-51.9375,-56.25,0
47030,-13.875,-42.9375,-60.8125,0
47050,-11.5625,-33.75,-59.5,0
47070,-7.6875,-26.25,-55.9375,0
47090,-6.3125,-18.9375,-50.25,0
47110,-6.5625,-8.1875,-44.5,0
47130,-16.1875,0,-30.3125,2001
47150,-27.4375,5.0625,-22,0
47170,-31.0625,7.25,-20.125,0
47190,-25,7.0625,-16.6875,0
47210,-14.6875,6.875,-10.3125,0
47230,-11.625,6.375,-11.125,0
47250,-13.5,11.875,-10.4375,0
47270,-28.625,13.75,-12.1875,0
47290,-34.5,8.625,-7.3125,0
47310,-23.9375,4.875,-0.125,0
47330,-13.8125,7.4375,-1,0
47350,6.9375,14.75,-3.6875,0
47370,9.25,14.3125,3.4375,0
47390,-5.6875,14.3125,8.625,0
47410,-18.75,15.25,32.75,0
47430,-30.125,27.625,54.375,0
47450,-18.3125,37.5,74.5625,0
47470,-3.5,46.875,101.125,0
47490,2.75,59.75,122,0
47510,4.5625,75.875,136.062,0
47530,7.8125,90.4375,151.938,0
47550,26.0625,107.312,167.25,0
47570,40.4375,121.125,184.188,0
47590,46.0625,130.75,182.312,0
47610,49.625,119.25,154.438,0
47630,41.8125,107.062,150.625,0
47650,38.5,87.9375,141.312,0
47670,36.375,67.6875,104.062,0
47690,41,52.1875,72.0625,0
47710,43.4375,30.5,63.375,0
47730,43.5,11.5,48.6875,0
47750,39.5625,-3.25,32.875,0
47770,27,-11.125,25,0
47790,18.875,-21.125,18.625,0
47800,4.5625,-26.3125,17.75,0
47820,1.375,-31.25,18.4375,0
47830,-1.875,-34.75,19.375,0
47850,-4.375,-35.4375,18.0625,0
47870,-5.8125,-34.8125,14.375,0
47890,-5.375,-34.5625,12.5,0
47910,-2,-31.5,9.25,0
47930,-1.125,-24.625,4.1875,0
47950,-2.375,-21.75,4.3125,0
47970,4.6875,-22.1875,6.75,0
47990,8.75,-18.5,5.875,0
48010,5.75,-15.125,4.3125,0
48030,8.6875,-17.3125,0.3125,0
48050,11.1875,-22.8125,-1.6875,0
48070,18.1875,-27.5,0.5625,0
48090,26.8125,-31,-2.4375,0
48110,17.8125,-34.1875,-3.8125,0
48130,10.4375,-39.1875,-6,0
48150,9.6875,-40.9375,-10.5625,0
48170,18.25,-40.1875,-14.75,0
48190,23.75,-36.9375,-20.5,0
48210,21.0625,-35.75,-25,0
48230,7.125,-30.8125,-27.0625,0
48250,-2,-18.25,-34.875,0
48270,-0.875,-1.25,-42.25,0
48290,-4.9375,17.5625,-49.4375,0
48320,-3.5625,76.1875,-96.875,0
48340,-8,83.375,-104.25,0
48360,-23.5,94.6875,-103.875,0
48380,-24.5,109.625,-107.25,0
48400,-11.5,118.875,-111.438,0
48420,-14.1875,124.812,-109.562,0
48440,-16.125,126.062,-107.25,0
48460,-14.25,113.812,-98.6875,0
48480,-0.6875,92.625,-77.25,0
48500,7.9375,70.3125,-53.6875,0
48520,7.6875,63.8125,-41.3125,0
48540,6.625,62.8125,-40.6875,0
48560,-0.125,55.4375,-34.8125,0
48580,-6,54.0625,-7.875,0
48600,6.375,48.125,12.3125,0
48620,24.75,37.4375,16.4375,0
48640,20.5625,26.25,26.375,0
48660,15.6875,21.75,46.5625,0
48680,14.5625,17.75,57.5625,0
48700,21.4375,12.1875,48.0625,0
48720,8.6875,9.1875,40.9375,0
48740,16.75,4.0625,41.4375,0
48760,8.375,-5.5,42.4375,0
48780,-1.875,-12.5625,47.75,0
48800,-5.75,-18.5,45.875,0
48820,-16.625,-24.5,36.0625,0
48840,-31.8125,-34.5,35.375,0
48860,-44.6875,-44.5625,42.0625,0
48880,-49.4375,-54.0625,45.5625,0
48900,-46.5,-57.0625,46.1875,0
48920,-36.75,-60.625,51.75,0
48940,-31.6875,-62.4375,76.1875,0
48960,-30.0625,-56.8125,85.9375,0
48980,-27.9375,-53.9375,87.4375,0
49000,-20.5625,-56.6875,91.25,0
49020,-20.75,-55.875,85.625,0
49040,-15.5,-52.625,70.25,0
49050,-10.9375,-49.875,60.9375,0
49060,0.875,-43.4375,59.375,0
49060,1.8125,-36.875,43.4375,0
49080,0.0625,-34.9375,23.9375,0
49100,8.6875,-32.3125,0.75,0
49120,11.25,-31.625,1.0625,0
49140,0.4375,-29.8125,5.875,0
49160,-11.6875,-29.875,8.5625,0
49180,-20.6875,-30.875,7.5,0
49200,-19.375,-30.625,6.625,0
49220,-10.8125,-24.5,11.4375,0
49240,-5.4375,-14.125,19.5,0
49260,-14.5625,-10.5625,20.125,0
49280,-19.5625,-12.3125,6.3125,0
49300,-9.375,-13.125,-5.125,0
49320,5.625,-11.75,2.125,0
49340,14,-9.875,5.75,2000
49360,1.75,-11.125,-6.25,0
49380,-1.4375,-15,-15.875,0
49400,1.25,-16.3125,-10.4375,0
49420,7.125,-15.9375,1,0
49440,1.3125,-15.625,5.8125,0
49460,-3.75,-20.75,0.875,0
49480,1.25,-25.5625,-6.375,0
49500,4.375,-32.3125,-8,0
49520,8.9375,-35.125,-5.375,0
49540,9.3125,-36.625,-4.5625,0
49560,8.5,-40.125,-4.3125,0
49580,9.25,-43.75,-8.25,0
49600,10.125,-46.875,-9.125,0
49620,7.875,-45,-5.5,0
49640,4.6875,-40.625,-2,0
49660,6,-34.8125,0.25,0
49680,1.5625,-31.6875,-0.875,0
49700,-5.375,-25.5625,-1.875,0
49720,-10.25,-13.6875,-3.875,0
49740,4.6875,-6.25,-4.8125,0
49760,4.9375,-5.75,-8.1875,0
49780,0.125,-1.8125,-15.8125,0
49820,-6.25,7.0625,-25.3125,0
49840,-8.625,14,-28,0
49860,-5.8125,35.1875,-45,0
49900,0.8125,85.3125,-78.0625,0
49940,-0.125,133,-96.0625,0
49960,-3.25,147.125,-103.75,0
49980,-0.5,152.062,-112.75,0
50000,2.0625,148.375,-123.625,0
50020,-2.1875,133,-126.375,0
50040,-5.3125,109.75,-122.562,0
50060,-12.25,85.9375,-108.5,0
50080,-6.3125,72.5,-88.125,0
50100,-2.5,55.4375,-72.0625,0
50120,-10.9375,48,-63.5625,0
50140,-16.625,41.375,-45.9375,0
50160,-16,31.625,-22.1875,0
50180,-15,26.1875,-4.5625,0
50200,-1,22.6875,-0.5625,0
50220,4.6875,16.5,6.0625,0
50240,6.125,10.125,32.0625,0
50260,-3.25,0.4375,49.25,0
50280,-8.125,-7.375,51.1875,0
50300,-7.625,-11.5,57.125,0
50330,-6.75,-23.625,69.9375,0
50350,-15.625,-31.25,71.375,0
50370,-20.75,-35.5,72.5,0
50390,-18.4375,-43.5625,73.1875,0
50410,-8.0625,-47.5625,68.125,0
50430,-8.5,-52.75,62,0
50450,-13.8125,-60.875,58.5,0
50470,-11.8125,-67.125,53.625,0
50490,-10.9375,-73.5,47.0625,0
50510,-7.375,-79.1875,43.25,0
50530,-5.6875,-83,42.9375,0
50550,-12,-88.625,37.1875,0
50570,-22.0625,-95.0625,29.75,0
50590,-20.5625,-99.6875,23.25,0
50610,-21,-105.938,16.625,0
50630,-16.9375,-111.438,12.1875,0
50650,-13.5625,-112.5,5.75,0
50670,-16.1875,-109.188,-0.1875,0
50690,-21.0625,-104.375,-13.625,0
50700,-14.5625,-97.5625,-27.625,0
50720,-12.6875,-93.5,-32.1875,0
50740,-14.5,-83.625,-31.25,0
50760,-9.3125,-67,-38.875,0
50780,-1.625,-46.9375,-55.6875,0
50800,-3.6875,-30.0625,-63.25,0
50820,-22.875,-23.375,-59.5,0
50840,-47.25,-16.875,-47.875,0
50860,-41.8125,-4.8125,-63.75,0
50880,-32.8125,10.9375,-88.5625,0
50900,-41.375,30.125,-92.3125,0
50920,-51.3125,47.875,-99.8125,0
50940,-47.9375,68.0625,-113.938,0
50960,-46.9375,87.0625,-123.25,0
50980,-49.125,107.312,-126.062,0
51000,-43.0625,118.188,-122.688,0
51020,-36.25,124.062,-113.5,0
51040,-31.75,124.25,-96.6875,0
51060,-21.9375,117.062,-71.0625,0
51080,-12.625,99.625,-45.0625,0
51100,-2.5625,76.5625,-27.25,0
51120,7,57.5625,-10,0
51130,14.0625,47.9375,4.5,0
51150,18.9375,45.5,16.4375,0
51170,13.1875,46.125,34.3125,0
51190,9.8125,45.8125,52.125,0
51210,8.125,40.875,58.5,0
51230,20.5625,32.125,59.9375,0
51250,25.9375,28.375,71.75,0
51270,18.9375,26.25,87.875,0
51290,7.5,25.625,83.125,0
51310,8.5625,17.125,71.5,0
51330,6.8125,1.5625,71.375,0
51350,0.0625,-11.9375,76.25,0
51370,-3.125,-18.25,75.625,0
51390,-2.25,-21.5,68.6875,0
51410,-15,-32.0625,60.625,0
51420,-30.9375,-42.75,64.625,0
51440,-32.1875,-48.8125,68.5,0
51460,-17.25,-53.4375,59.1875,0
51480,-2.5,-58.625,43.625,0
51500,0.4375,-64.375,40.125,0
51520,-12,-72.3125,40.125,0
51540,-18.0625,-83.5625,26.8125,0
51560,-17.25,-92.5625,14.1875,0
51570,-13.75,-99,7.625,0
51600,-21.875,-109.812,-8.0625,0
51620,-28.375,-111.812,-17.625,0
51640,-35.5625,-109.812,-25.1875,0
51660,-29.375,-104,-37.875,0
51690,-13.125,-74.1875,-74.9375,0
51710,-23.75,-67.9375,-78.4375,0
51730,-23.5625,-52.75,-77.75,0
51750,-25.375,-42.6875,-83.25,0
51770,-27.4375,-31.3125,-90.5625,0
51790,-25.25,-18.75,-94.125,0
51810,-26.6875,-5.625,-90.875,0
51830,-25.0625,7.5,-83.25,0
51850,-33.0625,15.125,-90.625,0
51870,-46.625,27.875,-93.0625,0
51910,-34.9375,49.25,-87.875,0
51930,-31.75,58.0625,-77.3125,0
51950,-25.9375,65.25,-71.875,0
51970,-29.75,73.125,-70.9375,0
51990,-31,78.375,-62.6875,0
52010,-25.6875,83.625,-48.5,0
52030,-13,87.1875,-34.0625,0
52050,-5,87.375,-26.1875,0
52070,2.75,84.625,-24.0625,0
52090,5.6875,83.375,-16.125,0
52110,3.5625,80.5,-0.9375,0
52130,6.6875,77.1875,11.875,0
52150,8.1875,74.5,20.75,0
52170,8.6875,74.6875,40.75,0
52190,15,72.6875,53.75,0
52210,6.8125,65.75,56.125,0
52230,2.25,58.125,64.875,0
52250,0.875,53.4375,74.125,0
52270,-2.625,46.5625,79.5,0
52290,-3.75,41.375,76.625,0
52310,-6.8125,33,70.125,0
52330,-10.9375,25.125,70.75,0
52350,-6.625,18.875,75.3125,0
52370,-0.25,13.5625,69.5625,0
52390,-0.8125,8.1875,66.25,0
52410,-18.9375,2.4375,61.8125,0
52430,-31.875,1.9375,60.3125,0
52450,-28.1875,-1.875,61.8125,0
52470,-4.6875,-8.8125,63.1875,0
52490,12.625,-15.375,56.0625,0
52510,-0.875,-26.5,51.875,0
52530,-26.4375,-35.3125,48.5,0
52550,-36.4375,-41.3125,47.0625,0
52570,-24.625,-46.0625,45.8125,0
52590,-15.1875,-53.4375,37.3125,0
52610,-15.25,-60.5625,28.75,0
52630,-28.0625,-69.3125,24.75,0
52650,-30.75,-76.0625,21,0
52670,-33.875,-81.5625,16.9375,0
52690,-29.1875,-83.875,13.4375,0
52710,-31.875,-86.4375,11.25,0
52730,-39.5,-88.8125,7.0625,0
52750,-39.3125,-90.5,1.3125,0
52770,-27.5,-90.0625,-7.875,0
52790,-20.8125,-88.5,-12.5,0
52810,-18.9375,-84.1875,-13.9375,0
52830,-21.875,-81.0625,-22.4375,0
52850,-16.4375,-76.9375,-33,0
52870,-5.5625,-71.75,-41.375,0
52890,1.1875,-63.5,-49.8125,0
52910,7.5,-58.375,-57.125,0
52930,8.875,-53.9375,-63.9375,0
52950,8,-49.625,-66.375,0
52970,10.3125,-40.9375,-62.8125,0
52990,15.625,-33.5625,-56.6875,0
53010,10.0625,-28.3125,-49.375,0
53030,6.875,-23.875,-47.125,0
53050,2.8125,-19.25,-44,0
53070,3.625,-16,-34.75,0
53090,8.9375,-15.8125,-28.625,2001
53110,5.125,-12.4375,-28.0625,0
53130,-3.9375,-6.625,-25.125,0
53150,-14.25,-1.375,-15.8125,0
53170,-13.0625,1.5625,-6.375,0
53190,-6.1875,4.6875,0.875,0
53210,-2,6.125,0.6875,0
53230,-3,8.25,-1.4375,0
53250,-8.0625,10.0625,6.125,0
53270,-3.75,8.5,12.9375,0
53290,4.5625,5.125,10.875,0
53310,2.625,8.5,-1.0625,0
53330,-0.375,10.3125,-4.375,0
53350,-4.25,12.8125,-1.0625,0
53370,2.875,12.6875,9.5625,0
53390,14.9375,13.375,12.1875,0
53410,17,4.9375,10.1875,0
53430,2.875,0.3125,20.4375,0
53450,-11.25,1.8125,29.5,0
53470,-15.8125,14.875,31.75,0
53490,-3.125,29.375,42.875,0
53510,10,40.5,62.125,0
53530,7.375,45.375,86.6875,0
53540,4.625,69.8125,123.25,0
53560,30.625,92.0625,124.375,0
53580,58.375,104.5,131.438,0
53600,63.25,110.938,147.625,0
53620,65.6875,117.5,147.5,0
53640,63,114.312,144.438,0
53660,50.6875,102.562,131.75,0
53680,40.8125,83.8125,106.812,0
53700,18.1875,71.4375,88.75,0
53720,16.375,56.0625,70,0
53740,12.5625,40.875,59.125,0
53760,25.6875,25.6875,48.8125,0
53770,21.875,14.8125,34.875,0
53790,10.25,6.375,25.8125,0
53810,-1.875,1.625,19.25,0
53830,-0.5625,-4.4375,19.6875,0
53850,7.75,-8.25,24.4375,0
53870,10.75,-10.5625,22.125,0
53890,1,-19.5,12.625,0
53910,-10,-26.8125,10.9375,0
53930,-6.8125,-30.5625,14.0625,2000
53950,1.75,-35.875,16.3125,0
53970,10.375,-39.0625,9,0
53990,5.6875,-40.25,1.375,0
54010,4.75,-45,-3.0625,0
54030,0.75,-45.5625,-0.5,0
54050,7.5,-41.375,0.9375,0
54070,6.3125,-40.5,0.375,0
54090,11.3125,-40.625,-6.875,0
54110,12.0625,-39.3125,-15.375,0
54130,12.5,-34.125,-19.6875,0
54150,10.625,-29.8125,-19,0
54170,8.5,-24.3125,-20.3125,0
54190,12.3125,-19.1875,-30.4375,0
54210,9.0625,-14.9375,-34.6875,0
54230,3,-11.125,-30.375,0
54250,-2.8125,-2.1875,-28.5,0
54270,-2,2.5,-32.625,0
54290,-5.875,6.625,-39.6875,0
54310,-13.75,12.5,-38.875,0
54330,-12.9375,21.75,-45.6875,0
54370,-12,40.6875,-63.75,0
54390,-11.3125,57.625,-71.3125,0
54410,-13,81.6875,-77.875,0
54430,-12.125,103.312,-84,0
54450,-17.5625,123.375,-91.875,0
54470,-18.8125,132.375,-91.0625,0
54490,-15.125,144.812,-89.8125,0
54520,-12.75,137.75,-95.6875,0
54540,-9.5,123,-84,0
54560,-11.25,102.25,-58.375,0
54580,-10,81.5,-39.375,0
54600,1.3125,59.625,-43.5625,0
54620,1.6875,47.125,-39.375,0
54640,-6.125,41.125,-23.6875,0
54660,0.375,38.6875,-10.8125,0
54680,22.5625,33.6875,4.625,0
54700,23.6875,25.875,19.4375,0
54720,9.1875,18.6875,19.6875,0
54740,10.875,11.75,21.0625,0
54760,20.625,13,38.9375,0
54780,27.3125,9.5,61.0625,0
54800,24.6875,-0.5,56.6875,0
54820,2.6875,-10.75,54.6875,0
54840,-6.5,-22.5,65,0
54860,-2,-22.9375,71.0625,0
54880,6.375,-24.875,72.1875,0
54900,7.8125,-30.875,64.5625,0
54920,-0.75,-39.4375,62.0625,0
54940,-6.0625,-46.625,64.625,0
54960,-6.9375,-52.5,63.1875,0
54980,-3.25,-58.0625,56,0
55000,-2.4375,-62.75,44.875,0
55020,-1.9375,-65.8125,37.875,0
55040,-7.125,-71.8125,35,0
55060,-10.75,-78.25,33.75,0
55080,-8.8125,-82.6875,27.875,0
55100,-9,-86.875,22.0625,0
55120,-23.4375,-90.125,20.125,0
55140,-28.9375,-95.625,18.125,0
55160,-32.5625,-99.6875,14.8125,0
55180,-25.75,-101,11.625,0
55220,-29.75,-93.0625,-0.3125,0
55240,-27.625,-86.75,-13.75,0
55260,-16.875,-77.1875,-27.5625,0
55280,-6.5625,-71.75,-36.0625,0
55300,-10.1875,-70.3125,-40.9375,0
55320,-17.5625,-60.5,-49.8125,0
55340,-35.375,-44.125,-54.0625,0
55360,-29.25,-30.8125,-54.375,0
55380,-22.75,-22.5625,-85.25,0
55400,-21.4375,-10.1875,-101.25,0
55420,-20.5,2.6875,-104.125,0
55440,-22.875,17,-105.25,0
55460,-27.125,34.375,-110,0
55480,-30.3125,52.9375,-115.688,0
55500,-27.0625,70,-118.188,0
55530,-29.75,107.688,-107.688,0
55550,-29.75,115.875,-96,0
55570,-23.4375,122,-80.9375,0
55590,-18.3125,118.5,-60.375,0
55610,-9.25,101.625,-42.6875,0
55630,3.125,80.4375,-34.375,0
55650,10.625,57.875,-29.6875,0
55670,11.9375,49.5625,-13.875,0
55690,8.75,55.875,10.0625,0
55710,20.9375,55.4375,21.75,0
55730,27.25,53.0625,22.375,0
55750,30.125,50.3125,26,0
55770,30.75,47.875,42.1875,0
55790,39.8125,37.3125,61.6875,0
55810,44.6875,33.5,66.0625,0
55830,36.625,29,64.0625,0
55850,33.8125,25.3125,70.25,0
55870,20.875,17.5,79.1875,0
55890,18.3125,8.4375,86.375,0
55910,13.375,-0.1875,92.875,0
55930,11.5625,-7.3125,89.5625,0
55950,0.4375,-10.625,89.875,0
55970,-16.125,-20.625,89.875,0
55990,-29.375,-38.125,84.6875,0
56010,-23.6875,-55.8125,79.0625,0
56030,-14.4375,-64.875,70,0
56050,-18.375,-75.8125,64.875,0
56070,-29.9375,-84.25,57.9375,0
56090,-29.1875,-90.4375,50.375,0
56110,-27.25,-94.4375,44.4375,0
56130,-21.375,-96.1875,38.5,0
56150,-30.5,-99.375,34.875,0
56170,-44.25,-104.625,25.8125,0
56190,-54.375,-109.75,17.8125,0
56210,-54,-112.375,12.125,0
56230,-54.9375,-112.75,3.5625,0
56260,-47.125,-107.375,-23.25,0
56280,-43.375,-101.812,-35.25,0
56300,-42.0625,-92.6875,-48.6875,0
56320,-39.125,-82,-63.375,0
56330,-40.375,-71.0625,-76,0
56350,-36.75,-58.75,-83.5,0
56370,-39.625,-45.4375,-95.375,0
56390,-35.8125,-27.3125,-104.375,0
56410,-29.625,-8.25,-111.75,0
56430,-34.5,4.5625,-116.312,0
56450,-38.25,17.5625,-116.625,0
56470,-41.9375,30.75,-116.188,0
56490,-42.4375,47.0625,-117.812,0
56510,-43.5625,62.75,-116.812,0
56530,-40.5625,73.0625,-105.188,0
56550,-34.3125,85.8125,-100.312,0
56570,-32.125,99.5625,-102.375,0
56590,-34.3125,108.875,-89.0625,0
56610,-31.375,111.062,-67,0
56630,-22.6875,105.438,-45.125,0
56650,-18.0625,102.125,-28,0
56670,-17.625,99.5,-2.875,0
56690,-9.875,97.0625,28.875,0
56710,3.25,94.4375,54.4375,0
56730,5.6875,101.188,65.1875,0
56740,-4.625,104.438,68,0
56760,-11.875,94.8125,77.6875,0
56780,-11.8125,80.75,98.75,0
56800,-1,76.75,105.75,0
56820,3.4375,73.625,99.25,0
56840,-10.125,61,86.5,0
56860,-21.8125,42.375,92.25,0
56880,-35.4375,22,106.312,0
56900,-25.5625,8.1875,96.75,0
56920,-29.3125,-7.9375,89.3125,0
56940,-50.375,-22.9375,93.9375,0
56960,-69.9375,-37.5,88,0
56980,-72.8125,-51.0625,80.75,0
57000,-64.6875,-64.75,76.9375,0
57020,-49.8125,-72.5625,68.3125,0
57040,-40.0625,-81.0625,58.1875,0
57060,-33.8125,-91.3125,47,0
57080,-36.0625,-102.438,36.5625,0
57100,-35.125,-109.875,28.0625,0
57120,-29.8125,-112.5,20,0
57140,-20.1875,-116,12.3125,0
57160,-15.125,-115.688,-0.0625,0
57180,-6.9375,-114.562,-12.875,0
57200,-4.75,-108.688,-25.625,0
57220,1,-99.8125,-31.8125,0
57240,10.9375,-89.875,-36.1875,0
57260,10.5,-83.625,-46.6875,0
57280,5.5,-73.9375,-57.5625,0
57300,7.625,-63.1875,-60.625,0
57320,16.4375,-48.75,-59.5625,0
57340,28.0625,-40.25,-63.0625,0
57360,23.375,-33.75,-60.5625,0
57380,21.1875,-30.0625,-56,0
57400,25.625,-23.25,-62.4375,0
57420,16.5625,-14.5,-63.9375,0
57440,-0.875,-8.3125,-55,0
57460,-8.4375,-4.8125,-49.75,0
57480,-1.3125,-3.25,-47.4375,0
57500,7.625,-1.5,-36.8125,0
57520,4.375,1.25,-27.8125,0
57540,-9.1875,3.1875,-17.8125,0
57560,-18.6875,4.625,-8.125,0
57580,-14.9375,3,-6.625,0
57600,-10.9375,1.1875,-2.8125,2001
57620,-6.1875,-1.1875,-2.5625,0
57640,-8.4375,0.5,-0.75,0
57660,-15.125,7.1875,-4.9375,0
57680,-20.5,12.375,-7,0
57700,-18.0625,12.6875,-7.25,0
57720,-16.6875,5.6875,0.375,0
57740,-9.5625,5.375,18.625,0
57760,-9.8125,14.75,13.5,0
57780,0.4375,17.25,3.5,0
57800,-0.3125,19,20.4375,0
57820,-4.1875,27.125,37.625,0
57840,4.25,40,39.1875,0
57860,10.75,43.1875,43.9375,0
57880,0.5625,38.9375,66.25,0
57900,-6.375,47.25,86.9375,0
57920,7.6875,71.5625,85.1875,0
57940,27.5625,85.8125,86.375,0
57960,25,81,108.312,0
57980,-0.0625,72.9375,130.438,0
58000,16.375,76.75,118.312,0
58020,32.375,84.6875,115.5,0
58040,51.875,92.6875,131.625,0
58060,49.1875,79.5625,132.688,0
58080,30.25,71,115.688,0
58100,30.1875,62.3125,99.0625,0
58120,32,44.375,86.3125,0
58140,28.875,31.9375,75.125,0
58160,29.5,18.8125,60.4375,0
58180,22.75,3.25,46.25,0
58200,21.875,-8.875,32.9375,0
58210,18.375,-17.4375,25.9375,0
58230,11.1875,-22.75,23.125,0
58250,1.5625,-25.3125,21,0
58270,-6.25,-25.75,16.3125,0
58290,0.6875,-25.0625,14.75,0
58310,1.375,-12.9375,18.8125,0
58330,-2.4375,-2.125,24.8125,0
58350,2.3125,2.5625,18.5625,2000
58370,10.0625,3.9375,11.25,0
58390,14,4.375,6.6875,0
58410,18.75,-4.125,1.625,0
58430,18.1875,-15.125,-7,0
58450,24.875,-23.5625,-4.1875,0
58470,14.5625,-30.8125,1.4375,0
58490,-0.9375,-35.375,6.75,0
58510,-8.0625,-35.1875,3.9375,0
58530,-6.0625,-37.375,-6.3125,0
58550,-7.25,-43.875,-4.6875,0
58570,0.4375,-46.0625,-6.25,0
58590,6.25,-41.8125,-25.5625,0
58610,15.75,-35.5625,-39.625,0
58630,10.875,-26.1875,-39.0625,0
58650,-0.375,-15.4375,-40.9375,0
58670,-14.9375,-7.5,-44.8125,0
58690,-14.5625,5.625,-50,0
58710,-13.0625,22.6875,-48.6875,0
58730,0.4375,40.4375,-58,0
58750,4.1875,58.3125,-73.625,0
58770,-0.625,73.5625,-82,0
58790,-10.75,91,-84.9375,0
58810,-8.375,108.312,-93.125,0
58830,-5.5625,122.562,-107.188,0
58850,-4.8125,136,-112.562,0
58870,-5.125,141.75,-112.188,0
58890,-6.5625,137.062,-105.625,0
58910,-5.1875,128.438,-103.875,0
58930,-2.6875,115.438,-98.125,0
58950,3.8125,100.062,-75,0
58970,2.8125,80.5,-42.625,0
58990,15.1875,56.8125,-17.625,0
59010,19.8125,34.625,-3,0
59030,22.1875,29.375,4.625,0
59050,20.3125,27.8125,14.375,0
59070,17.6875,20.625,32.1875,0
59090,0.25,12.5625,45.5625,0
59110,-4.875,10.0625,44.75,0
59130,-10.9375,2.5625,42.75,0
59150,0.375,-7.5,49.9375,0
59170,6,-21.125,72.4375,0
59190,2.8125,-33.875,85.125,0
59210,-12.1875,-37.8125,74.3125,0
59230,-29.1875,-38.5625,64.6875,0
59250,-46.6875,-43.75,80.125,0
59270,-46.0625,-51.625,89.1875,0
59290,-37.5625,-52.375,78.5,0
59310,-32.6875,-49.25,63.125,0
59330,-36.625,-52.625,58.4375,0
59350,-36.8125,-55.75,57.5625,0
59370,-40.0625,-62.25,52.5,0
59390,-43.5,-72.8125,47.6875,0
59410,-43.875,-79.8125,33.625,0
59430,-25.3125,-88.5,22.6875,0
59450,-11,-91.375,18.625,0
59470,-7.875,-98.6875,16.1875,0
59490,-14.1875,-109.375,8.9375,0
59530,-4.4375,-113.375,-11.8125,0
59550,10.9375,-107.438,-21.4375,0
59570,20.8125,-97.5625,-33.6875,0
59590,15.625,-89.75,-45,0
59610,8.5625,-80.625,-50.9375,0
59630,5.0625,-61.3125,-59.4375,0
59650,4.4375,-40.875,-68.3125,0
59670,7.8125,-16.5625,-79.75,0
59690,6.8125,0.75,-82.5625,0
59710,-17.5625,13.6875,-87.625,0
59730,-21.625,16.0625,-103.812,0
59750,-18.375,18.8125,-128.062,0
59770,-28.8125,36.5625,-136.312,0
59790,-38.5625,61.5,-135.75,0
59810,-45.625,89.375,-133.375,0
59830,-50,115.312,-133.688,0
59850,-50.9375,126,-121.562,0
59870,-44.9375,133.812,-100,0
59890,-39.75,141.875,-84.125,0
59910,-25.0625,131.125,-65.9375,0
59920,-21.3125,112.438,-53.3125,0
59940,-11,87.3125,-33.125,0
59960,-0.6875,62.875,-9.5625,0
59980,10.75,44.75,1.9375,0
60000,16.1875,41.4375,7.9375,0
60020,11.6875,37.1875,20,0
60040,19.1875,30.4375,27.9375,0
60060,26.25,18.5,23.75,0
60080,23.875,6.5625,33.6875,0
60100,19.625,-1.5625,46.1875,0
60120,18.4375,-5.875,58.3125,0
60140,31.375,-10.3125,65,0
60160,34.375,-15.8125,70.25,0
60180,17.6875,-17.5625,67.8125,0
60200,-1.0625,-22.375,63.375,0
60220,-10.75,-29.0625,68.125,0
60240,-1.5,-32.5625,76.5,0
60260,8.9375,-38.375,76.5,0
60280,3.0625,-42,67.0625,0
60300,-6.4375,-46,60.1875,0
60320,-27.0625,-50.5625,57.125,0
60340,-34.1875,-58,57.25,0
60360,-33.5,-61.125,57,0
60380,-25.9375,-67.8125,47.75,0
60400,-17.375,-73,38.125,0
60420,-25,-81.5,41.5625,0
60440,-46.125,-95.25,43.8125,0
60460,-57.375,-107.812,29.8125,0
60480,-48.9375,-115.625,10.375,0
60500,-15.3125,-102.375,-63,0
60520,-12.5,-90.1875,-82.375,0
60540,-3.8125,-77.9375,-97.5625,0
60560,-0.375,-62.75,-99.875,0
60580,5.0625,-46.875,-96.8125,0
60600,7.9375,-32.125,-101.25,0
60600,3.875,-21.8125,-118.688,0
60630,-27.4375,-10.125,-107.938,0
60650,-35.5,5.5625,-106.875,0
60670,-41.875,31.125,-111.438,0
60690,-50,53.0625,-105.438,0
60710,-59.3125,73.625,-90.75,0
60730,-52.0625,93.75,-81.875,0
60750,-40.625,111.25,-75.9375,0
60770,-40.625,118.938,-67.5625,0
60790,-37.25,119.25,-51.75,0
60810,-31.625,109.062,-26.375,0
60830,-21.9375,95.1875,0.125,0
60850,-5.3125,77.75,18.0625,0
60870,2.0625,61.5625,25.8125,0
60890,1.25,56,32.4375,0
60910,0.9375,56.25,45.625,0
60930,-2.5625,64.875,65.5,0
60950,-1.1875,68.25,71.5,0
60970,-1.8125,65.5625,64.3125,0
60990,13.1875,55.875,53.875,0
61010,18.6875,50.1875,60.375,0
61030,31,49.75,73.625,0
61050,21.0625,42.125,67.25,0
61070,-0.5,30.9375,53.375,0
61090,-10.1875,21.375,56.25,0
61110,-2.25,11,62.5625,0
61130,5.375,4.875,69.8125,0
61170,-32.75,-14.125,64.125,0
61190,-46,-22.1875,66.5,0
61210,-33.25,-29.6875,64.3125,0
61230,-14.875,-37.1875,56.125,0
61250,-9.6875,-43.875,50.625,0
61270,-10.8125,-48.25,41.625,0
61290,-16,-55.875,31.1875,0
61310,-14.5625,-62.4375,22.5,0
61330,-4.25,-67.1875,14.875,0
61350,0.875,-71.0625,8.9375,0
61370,-5.75,-76.0625,8.8125,0
61390,-21.3125,-82.0625,7.25,0
61410,-25.625,-88.625,3.5625,0
61430,-18.25,-91.6875,0.75,0
61450,-12.125,-92.4375,-4.4375,0
61470,-10.9375,-95.75,-10.6875,0
61490,-13.8125,-100.812,-20.75,0
61510,-17.625,-101.875,-27.875,0
61530,-15.625,-99.1875,-33.1875,0
61550,-13.5,-94.75,-38.8125,0
61570,-12,-88.4375,-39.375,0
61590,-13.5625,-83.375,-38.5,0
61610,-16.1875,-73.6875,-39.9375,0
61630,-16.125,-60.8125,-37.625,0
61650,0.875,-48.1875,-38.0625,0
61670,15.1875,-36.8125,-38.75,0
61690,12.1875,-29.375,-36.4375,0
61710,3,-20.625,-28.5,0
61730,0.5,-12.4375,-22.375,0
61750,4.625,-2.1875,-27.6875,0
61770,15.4375,9.25,-35.125,0
61790,7.75,14.9375,-33.1875,0
61810,-0.5,18.5,-31,0
61830,-9,22.25,-24.5625,2001
61850,-10.4375,27.625,-22.3125,0
61870,-11.625,28.5625,-16.3125,0
61890,-14.5,24.6875,-8.9375,0
61910,-12.5,22.5,-0.1875,0
61930,-14.5,21,2.75,0
61950,-18.3125,20.3125,-0.25,0
61970,-22.5,17.25,0.6875,0
61990,-18.25,12.625,3.625,0
62010,-13.0625,7.3125,1.6875,0
62030,-5.3125,-2.125,2.4375,0
62050,1.9375,1.6875,-2.5625,0
62070,6.0625,8.5,-7,0
62090,10.9375,14,-0.3125,0
62110,14.4375,14.4375,8.25,0
62130,9.8125,17.3125,12.375,0
62150,7.25,19.6875,17.9375,0
62170,0,23.5,32.125,0
62190,-3.5625,25.625,55.375,0
62210,-0.5625,30.625,74,0
62230,15.1875,46.5,81.75,0
62250,19.75,63.25,89.6875,0
62270,13.25,79.6875,99.625,0
62290,23,97.3125,109.438,0
62310,31.5625,108.812,119.5,0
62330,29.4375,114.625,124.938,0
62350,32,120.125,116.938,0
62370,39.4375,125.312,102.562,0
62390,54.1875,123.125,104.438,0
62410,51.375,107.562,112.938,0
62430,33.0625,90.9375,113.75,0
62450,14.6875,73,96.0625,0
62470,20,55.5,71.1875,0
62490,30.8125,38.3125,66,0
62520,16.8125,16.8125,54.9375,0
62530,1.25,7.0625,36.4375,0
62550,-2.375,-1.8125,25.75,0
62590,15.375,-10.6875,19.0625,0
62630,25.3125,-6.875,-9.8125,0
62650,25.1875,-1,-10.5625,0
62670,29.8125,5.5625,-12.625,0
62690,35.75,12.75,-14.75,0
62710,39.3125,16.1875,-12.3125,0
62730,31.875,21.125,-8.9375,0
62760,40.0625,32.5625,-13.5625,0
62770,33.3125,40.8125,-9.1875,0
62790,22.0625,43.9375,-7.75,0
62810,12.1875,47.9375,-6.75,0
62830,11.875,50.1875,-6.4375,0
62850,15.25,50.4375,-5.375,0
62870,15.6875,50.1875,-4.25,0
62890,18.0625,51.875,-6.5625,0
62910,17.625,54,-9,0
62930,18.3125,56.75,-10.6875,0
62950,13.6875,59.5,-8.5,0
62970,7.3125,66.375,-8.25,0
62990,17.6875,67.875,-13.5625,0
63010,24.0625,62.5,-18.3125,0
63030,21,56.875,-18.5625,0
63050,23.1875,56.875,-16.9375,0
63070,25.8125,49.6875,-19.6875,0
63090,29.0625,38.0625,-20.875,0
63110,31.25,26.4375,-21.625,0
63130,30.1875,19.25,-23.1875,0
63150,26.6875,13.4375,-22.4375,0
63170,22.6875,8.6875,-19,0
63190,18.875,5.9375,-15.1875,0
63210,18.0625,4.3125,-12.5,0
63230,14.1875,2.8125,-10.5,0
63250,12.5,2.1875,-9.875,0
63270,11.375,0.625,-8.625,0
63290,7.625,0.3125,-5.875,0
63310,5.625,1.3125,-3.375,0
63330,2.3125,4.25,-1.9375,0
63350,1.5,5.8125,-1.5,0
63370,7.125,6.4375,-1.6875,0
63390,12.875,6.1875,-3.625,0
63410,15.25,8.1875,-1.875,0
63430,18.3125,9.5,-0.6875,0
63450,19.125,9.75,0.3125,0
63470,17.125,9,0.375,0
63490,14.6875,7.9375,-1.375,0
63510,11.625,6.625,-0.9375,0
63530,8.6875,5.625,0.625,0
63550,4.0625,6.5,1.25,0
63570,2.9375,6.9375,1.4375,0
63590,2.375,6.875,0.5,0
63610,2.8125,8.25,1.1875,0
63630,10.3125,7.9375,-0.1875,0
63650,7.9375,4.8125,0.625,0
63670,5,4.375,2.75,0
63690,3.4375,3.9375,2.4375,0
63710,2.9375,3.125,1.5625,0
63730,2.9375,2.8125,-1.375,0
63750,4.5625,2.3125,-2.625,0
63770,5.5625,1.8125,-3.4375,0
63790,4.625,0.875,-2.875,0
63810,3.3125,-0.125,-1.5625,0
63830,0.9375,-0.25,-2.4375,0
63850,-2.125,0.6875,-3.0625,0
63870,-2.25,2.0625,-3.625,0
63890,-1.875,3.75,-3.5,0
63910,-0.5,5.6875,-2.625,0
63930,-0.5,6.1875,-1.375,0
63950,-1.4375,5.4375,0.6875,0
63970,-1.75,4.75,1.3125,0
63990,-1,2.875,1.4375,0
64010,-2,2.125,2.8125,0
64030,-1.0625,1.25,1.75,0
64050,-1.5625,-0.0625,0.8125,0
64070,-0.5625,-0.5,-0.1875,0
64090,-1.5,-1.6875,-0.8125,0
64110,-2,-2.4375,-1.4375,0
64130,-2.9375,-1.9375,-2.6875,0
64150,-0.25,-1.0625,-4.4375,0
64170,0.375,-0.25,-4.6875,0
64190,1.625,0.4375,-3.75,0
64210,1.3125,2.1875,-3.625,0
64230,0.8125,3.9375,-3.375,0
64250,-1,5.625,-3.0625,0
64270,-3.125,6.375,-1.8125,0
64290,-2.8125,7.3125,-1.875,0
64310,1.1875,6.3125,-1,0
64330,5.125,5.5,1.6875,0
64350,6.125,4.9375,3.125,0
64370,5.8125,3.5625,1.9375,0
64390,4.0625,2.1875,-0.6875,0
64410,2.625,2.875,-2.25,0
64430,-1.6875,2.875,-3,0
64450,-3.3125,3.125,-4.3125,0
64470,-0.9375,3.875,-4.0625,0
64490,2.5625,3.75,-5.125,0
64510,3.8125,3,-5.5,0
64530,0.1875,3.125,-5.6875,0
64550,-2.9375,3.8125,-6.0625,0
64570,-5.75,4.5,-5.6875,0
64590,-3.8125,4.9375,-4.5,0
64610,-1.8125,3.6875,-2.3125,0
64630,-0.625,3.5,-0.6875,0
64650,-1.8125,1.3125,1.5625,0
64670,-1,0.25,1,0
64690,-7.1875,0,2.5625,0
64710,-5,-1.8125,2.5625,0
64730,0.6875,-1.25,2.25,0
64750,-0.8125,-0.125,3.125,0
64770,-2.125,-1.375,4.3125,0
64790,-3.375,-1.5,3.9375,0
64810,-2,-1.8125,2.875,0
64830,-0.75,-0.875,1.125,0
64850,-1.375,-1.9375,-0.0625,0
64870,-2.5625,-4.125,-1.125,0
64890,1.5,-3.5625,-4.125,0
64910,0.375,-4.4375,-6.0625,0
64930,-3.5,-4.0625,-5.5,0
64950,-1,-4.0625,-3.3125,0
64970,4.3125,-3.375,-2.5,0
64990,7.9375,-1.4375,-3.0625,0
65010,8.4375,-1,-1,0
65030,4,0.125,-1.5625,0
65050,-2.375,1.75,-1.9375,0
65070,-3.1875,-0.0625,-0.625,0
65090,3.625,-0.25,0.125,0
65110,4.6875,-0.5,0.5625,0
65130,5.375,-1.6875,0.5,0
65150,2.5625,-2.125,-1.75,0
65170,-2.8125,-1.75,-3.0625,0
65190,-3.25,-1.75,-5.5625,0
65210,0.875,-2.75,-5.375,0
65230,2.25,-2.4375,-3.75,0
65250,1.5625,-2.375,-3.8125,0
65270,3.25,-3.5,-2.0625,0
65290,6.1875,-4.375,-1.0625,0
65310,6.5,-3.5,-1.3125,0
65330,5.1875,-2.25,-2.6875,0
65350,0.125,-1.1875,-1.0625,0
65370,-1.4375,-0.5,-0.5,0
65390,0.0625,-0.875,-0.4375,0
65410,0.75,-0.625,-0.9375,0
65430,0.0625,-0.4375,-2.125,0
65450,-1.8125,-0.1875,-1.625,0
65470,-1.4375,-0.1875,-0.6875,0
65490,0.375,-0.125,-0.125,0
65510,0.25,0.875,-0.3125,0
65530,-1,1.25,0.125,0
65550,-0.875,1.3125,-0.1875,0
65570,-1.8125,1.125,-0.1875,0
65590,-0.0625,0.625,-0.0625,0
65610,0.3125,0.8125,0.375,0
65630,0.875,0.5625,-0.0625,0
65650,0.5625,0.375,0.25,0
65670,0.625,0.4375,0.5,0
65690,0,0.375,0.3125,0
65710,0.4375,0.5625,0,0
65730,0.625,0.875,-0.1875,0
65750,0.875,1,-0.1875,0
65770,0.25,0.9375,-0.5,0
65790,0.5,0.5625,-0.75,0
65810,1.3125,0.4375,-1.9375,0
65830,0.5625,0.4375,-2.0625,0
65850,-0.6875,1.0625,-1.8125,0
65870,-0.375,1.125,-1.875,0
65890,-0.125,0.625,-1.25,0
65910,1.0625,0.375,-1.0625,0
65930,1,0.125,-1.3125,0
65940,0.75,0.4375,-1.75,0
65960,-0.5,0.375,-1.5,0
65980,0.875,0.125,-1.3125,0
66000,0.875,-0.125,-1.1875,0
66020,1.625,-0.25,-0.9375,0
66040,1.375,0.375,-0.375,0
66060,1.3125,0.125,-0.5,0
66080,0.4375,0.6875,-0.6875,0
66100,0.25,0.5625,-0.8125,0
66120,0.625,0.3125,-0.9375,0
66140,0.9375,0.0625,-1.0625,0
66160,1.375,-0.1875,-1.4375,0
66180,0.8125,-0.1875,-1.6875,0
66200,-1.5625,-0.875,-1.875,0
66220,0,-2.1875,-0.6875,0
66240,0.75,-3,-1.875,0
66260,0.375,-2.1875,-2.4375,0
66280,-0.5625,-0.6875,-2.125,0
66300,-0.25,0.125,-2.3125,0
66320,-1.4375,0.25,-1.625,0
66340,-1.125,-0.25,-1.625,0
66360,-0.75,-0.75,-2,0
66380,-0.5,-0.4375,-1.8125,0
66400,-0.6875,-0.6875,-1.5,0
66420,-0.4375,-1.0625,-1.25,0
66440,-1.375,-0.5625,-0.9375,0
66460,-2.25,-0.0625,-0.375,0
66480,-2.625,-0.125,0.0625,0
66500,-0.8125,-0.25,0.5,0
66520,-0.1875,-0.25,0.375,0
66540,-0.9375,-0.1875,0.5,0
66560,-1.5,0,0.6875,0
66580,-1.375,-0.125,0.625,0
66600,-0.625,-0.25,0.8125,0
66620,-0.625,-0.375,1.0625,0
66640,-0.4375,0,0.875,0
66660,-0.0625,-0.3125,0.8125,0
66680,-0.5,0.125,0.125,0
66700,-0.6875,-0.0625,0.25,0
66720,-0.875,-0.0625,0.3125,0
66740,0.4375,-0.25,0.125,0
66760,0.4375,0.125,-0.25,0
66780,-0.6875,0.1875,-0.4375,0
66800,-0.375,-0.0625,-0.8125,0
66820,-0.125,-0.1875,-0.75,0
66840,-0.5,-0.25,-0.9375,0
66860,-0.5,-0.625,-0.8125,0
66880,-0.5,-0.625,-1,0
66900,0.25,-0.5,-0.25,0
66920,0.25,-0.5,-0.125,0
66940,-0.0625,-0.5625,-0.0625,0
66960,0.4375,-0.0625,-0.0625,0
66980,-0.4375,0.25,0.625,0
67000,0.25,0.5,1.5,0
67020,2.0625,-0.1875,1.1875,0
67040,1.375,0.0625,0.5,0
67060,-0.875,0.8125,0.875,0
67080,-0.8125,0.5,1.125,0
67100,-0.125,0.4375,1.125,0
67120,1.0625,0.25,0.875,0
67140,0.8125,0.1875,0.25,0
67160,-0.4375,0.125,-0.5,0
67180,-0.5625,-0.0625,-0.6875,0
67200,1.0625,-0.5,-0.8125,0
67220,-0.5,-1.0625,-0.625,0
67240,0.0625,-0.75,-0.5625,0
67260,0,-0.375,-1.25,0
67280,-0.375,0.125,-0.75,0
67300,0,0.6875,-0.5,0
67320,-0.4375,0.75,-1,0
67340,-2.25,0.375,-1.375,0
67360,-1.6875,0.1875,-1.4375,0
67380,0.1875,-0.375,-1.3125,0
67400,1.3125,-0.9375,-1.5,0
67420,1.0625,-1.0625,-1.75,0
67440,-0.375,-0.6875,-2.0625,0
67460,-0.5625,-0.8125,-2.5625,0
67480,-0.25,-0.625,-2.0625,0
67500,-0.1875,-0.5,-1.125,0
67520,-0.375,-0.3125,-0.0625,0
67540,-0.375,-0.625,-0.8125,0
67560,4.75,-2,-1.1875,0
67580,-3.375,-4,-1.5625,0
67600,-13.8125,-6.1875,-1.5,0
67620,-25,-19.4375,3.75,0
67640,-22.0625,-37.25,3.3125,0
67660,-23.4375,-56.3125,7.875,0
67680,-32.75,-76.9375,17.125,0
67700,-49.8125,-95.75,22.3125,0
67720,-58.375,-110.5,20.8125,0
67740,-64.4375,-124.562,16.3125,0
67760,-74.1875,-134.75,18.6875,0
67780,-75.0625,-145.75,17.5625,0
67800,-69.375,-154.188,11.25,0
67820,-63.625,-159.188,-1.0625,0
67840,-61.9375,-156.125,-2.375,0
67860,-63,-145.188,-5.0625,0
67880,-50.9375,-126.312,-12.1875,0
67900,-52.1875,-104.125,-19.5,0
67920,-40.0625,-78.25,-24.25,0
67940,-31.75,-52.8125,-23.75,0
67960,-31.875,-31.25,-9.875,0
67980,-30.5625,-5.125,-7.625,0
68000,-24.8125,10.9375,-15.75,0
68020,-36.625,11.75,-14.75,0
68040,-60.5,17.9375,-8.25,0
68060,-59.125,27.0625,-11.625,0
68080,-32.25,28.3125,-15.8125,0
68100,-13.8125,20.8125,-6.875,0
68120,6.125,17.75,2.8125,0
68140,7.3125,12.5625,1.25,0
68160,-15.875,7.125,-7.875,0
68180,-23.125,4.3125,-11.5,0
68200,-25.8125,-7.75,-1.875,1000
68220,-27.75,-14.8125,-1.0625,0
68240,-10.6875,-11.5625,-0.75,0
68260,-7.9375,-14.3125,-0.8125,0
68280,-7.5,-16.5625,-3.125,0
68300,-10.8125,-16.3125,-5.4375,0
68320,0.8125,-10.6875,-9.125,0
68340,18.3125,-10.5625,-4.5625,0
68360,16.375,-19.5625,1.1875,0
68380,0.4375,-30.1875,2.0625,0
68400,-9.125,-42.0625,1.5,0
68420,-15.9375,-59.1875,4.1875,0
68440,-22.625,-75,6.625,0
68460,-40.4375,-89.0625,1.5625,0
68480,-36.625,-94.1875,-3.625,0
68500,-20.0625,-95.5,-7.6875,0
68520,-10.8125,-91.875,-11.0625,0
68540,-5.75,-91.8125,-16.875,0
68560,-20.875,-102.25,-12.625,0
68580,-39.5625,-103.5,5.0625,0
68600,-47.375,-89.5625,17.9375,0
68620,-25.25,-72.875,24.1875,0
68640,-5.6875,-57.9375,33.1875,0
68660,-7.4375,-39.0625,48.6875,0
68680,-8.5,-13.75,74.5625,0
68700,-1.4375,5.1875,92.625,0
68720,-5.3125,21.625,99.875,0
68740,-0.125,46.6875,110.875,0
68760,0.4375,69.0625,128.062,0
68780,-5.4375,85.75,132.438,0
68800,-21.625,96.125,132.375,0
68820,-34.875,101.625,137.312,0
68840,-56.6875,111.125,128.375,0
68860,-61.3125,114.188,103.938,0
68880,-61.6875,114.438,68.875,0
68900,-78.75,126.5,58.6875,0
68920,-91.625,138,60.3125,0
68940,-86.75,142.25,26.1875,0
68950,-37.4375,140,-38.8125,0
68970,13.625,132.5,-74.8125,0
68990,23.9375,134.312,-70.5,0
69010,43.875,121,-87.1875,0
69030,54,90.875,-134.375,0
69050,90.0625,67.3125,-148.25,0
69070,130.375,40.9375,-134.125,0
69090,124.438,12.25,-126.5,0
69110,96.6875,-14.4375,-121.312,0
69130,68.4375,-37.6875,-113.688,0
69150,55.0625,-50.875,-106.375,0
69170,48.5,-63.0625,-89.3125,0
69190,36.5,-74.25,-74.125,0
69210,21.25,-87.625,-68.375,0
69230,-11.4375,-100.875,-61.5,0
69250,-35,-102.812,-52,0
69270,-54.4375,-100.75,-37.9375,0
69290,-55.5625,-95.5,-17.25,0
69310,-48.9375,-91.5,-0.6875,0
69330,-37.5625,-94.9375,9.6875,0
69350,-45.9375,-91.75,22,0
69370,-39.9375,-75.0625,41.25,0
69390,2.4375,-46.125,64,0
69410,28.125,-26.0625,85.5625,0
69430,26.0625,-6.5625,113.25,0
69450,34.6875,26.25,127.812,0
69470,33.5,49.5625,129.312,0
69490,50.5,71.375,136.875,0
69510,36.6875,85.625,167.062,0
69530,15.125,97.0625,184.188,0
69550,20.5,103.875,164.875,0
69570,13.625,100,133,0
69580,-50.8125,103.875,125.062,0
69590,-70.25,109.438,101.125,0
69610,-80.625,111.875,85.3125,0
69630,-60.0625,104.75,62.75,0
69650,-47.9375,94.5625,23.0625,0
69670,-26.25,100.875,-6.875,0
69690,-16.6875,97.4375,-34.375,0
69710,-12.4375,85.5625,-82.6875,0
69730,-3.6875,71.875,-107.625,0
69750,23.5625,64.4375,-108.125,0
69770,60.8125,57.625,-120.875,0
69790,72.6875,52.5,-123.375,0
69810,72.6875,44.9375,-130.938,0
69830,75.125,32.4375,-134.5,0
69850,75.8125,15.625,-130.812,0
69870,84.1875,-1,-121.25,0
69890,84,-25.0625,-107,0
69910,72.875,-43,-96.5625,0
69930,56.0625,-61.4375,-87.625,0
69950,30.6875,-78.375,-77.25,0
69970,2.125,-87.5,-66.125,0
69990,-17.4375,-92.25,-58.625,0
70010,-28.625,-96.5625,-51.25,0
70030,-22.6875,-99.4375,-41.125,0
70050,-14.1875,-95.75,-32.4375,0
70070,-11,-86.9375,-24.3125,0
70090,-7.8125,-79.3125,-14.75,0
70110,-19.3125,-68.3125,0.1875,0
70130,-8.0625,-54.0625,21,0
70150,17.8125,-29.9375,36.8125,0
70170,57.0625,-11.875,38.0625,0
70190,43.8125,3.25,36.1875,0
70210,14.5625,32.6875,56.5,0
70230,29.8125,80.875,96.5625,0
70250,82.6875,100.062,117.25,0
70270,80.75,96.25,129.25,0
70290,55.3125,103.688,146.688,0
70310,48.3125,111.688,141.75,0
70330,56.5,109.562,136.312,0
70350,55.8125,115.688,142.188,0
70370,23.625,110.375,135.25,0
70390,-22.8125,101.188,97.3125,0
70410,-43,84.0625,62.3125,0
70430,-40.75,77.3125,43,0
70450,-27.0625,78.8125,30.4375,0
70470,-18.5,73.125,15.5,0
70480,-37.25,52.4375,-41.75,0
70500,-28.1875,53.625,-57.4375,0
70520,-12.6875,55.5625,-70.375,0
70540,-7.0625,57.875,-85.875,0
70560,-4.9375,58.0625,-104.562,0
70580,19.375,57.5,-126.5,0
70600,45.875,53.375,-128.062,0
70620,56.6875,40.4375,-117.125,0
70640,78.375,13.125,-107.875,0
70660,100.25,-16.5625,-103.312,0
70680,118.125,-37.625,-97.5,0
70700,95.8125,-56.4375,-87.8125,0
70720,51.75,-74.5625,-76.4375,0
70740,23.6875,-93.0625,-71.1875,0
70760,18.6875,-105,-65.125,0
70780,22.9375,-110.438,-53.0625,0
70800,8.0625,-112.25,-37.875,0
70820,-12.9375,-108.312,-35.0625,0
70840,-13.625,-97.5,-50.0625,0
70860,5.5,-89.75,-54.75,0
70880,43.125,-82.8125,-45.9375,0
70900,69.375,-75.4375,-30.6875,0
70930,63.5,-46.25,-39,0
70950,50.0625,-40.375,-30.1875,0
70970,18.6875,-24.1875,-8.0625,0
70990,28,5.8125,18.1875,0
71010,52.5,13.375,10.125,0
71030,45.75,14,-12.6875,0
71050,34.3125,25.25,3.6875,0
71070,24.9375,26.1875,12,0
71090,12.875,26.5625,0.8125,0
71110,5.625,30.375,13.25,0
71130,6.1875,26.3125,13.4375,0
71150,7.75,22.375,1.75,1001
71170,7,15.9375,-0.9375,0
71190,-0.9375,8.625,5.5625,0
71210,-0.5,8,4.8125,0
71230,-9.5625,5.1875,1.9375,0
71250,-10.375,0.25,0.875,0
71270,-5.3125,-7.375,-5.25,0
71290,4.1875,-10.875,-9.5625,0
71310,12.625,-11.875,-3.5625,0
71330,8.25,-8.6875,2.5625,0
71350,-2.375,-5.625,4.125,0
71370,-16.75,-4.6875,3.3125,0
71390,-16.3125,-12.5,-0.25,0
71410,-11.6875,-16.8125,2.375,0
71430,-8.8125,-21.125,11.875,0
71450,-9.9375,-30.125,21.5,0
71470,4.125,-34.5625,13.9375,0
71490,9.75,-43.25,17.125,0
71510,9.5625,-52.5,34.4375,0
71530,-1.25,-57.5625,40.1875,0
71550,-14.75,-58.375,44.0625,0
71570,-10.5625,-60.0625,56.625,0
71590,2.875,-47.5625,66.25,0
71610,22.8125,-33.4375,83.75,0
71630,8,-32.4375,95.9375,0
71650,-21.125,-38.9375,90.3125,0
71670,-55.4375,-45.75,75.4375,0
71690,-48.4375,-46.625,49.8125,0
71710,-16.625,-38.8125,18.4375,0
71730,31,-33,1.3125,0
71750,47.875,-29.25,8.25,0
71770,43.5625,-22.4375,1.1875,0
71790,3.5625,-10.5,-15.375,0
71810,-26.375,-1.625,-24.5,0
71830,-14.125,1.4375,-24.375,0
71850,7.5625,-4.75,-15.3125,0
71870,28.125,3.0625,-0.375,0
71890,21.6875,2.875,2.5,0
71910,6.75,5,-6.875,1000
71930,-15.25,2.6875,-1.625,0
71950,-21.6875,7.0625,9.625,0
71970,-14.6875,9.25,8.5,0
71990,1.125,-1.75,-10.6875,0
72010,3.0625,-24.125,-5.5625,0
72030,-8.625,-40.375,8.0625,0
72040,-24.0625,-47.4375,6.625,0
72060,-14.3125,-54.3125,-2.875,0
72080,-3.125,-63.1875,-12.5,0
72100,8.5,-72.9375,-16.125,0
72120,3.125,-71.75,-25.875,0
72140,13.0625,-73.25,-31.0625,0
72160,8.4375,-74.6875,-18.625,0
72180,18.9375,-71.6875,-10.875,0
72200,20.3125,-64.5625,-12.8125,0
72220,27.5625,-64.875,-13.75,0
72240,3.0625,-71.375,-6.1875,0
72260,-16.0625,-66.8125,2.5,0
72280,-8.9375,-54.9375,8.5625,0
72300,14.4375,-39.5625,20.5625,0
72320,26.125,-33.6875,25.125,0
72340,13.3125,-24.25,34.9375,0
72360,-4.5625,-13.1875,58.125,0
72380,0.3125,1.125,71.0625,0
72400,20.3125,8.25,86.1875,0
72420,33.1875,24.125,106.375,0
72440,31.25,42,125.188,0
72460,35.5,63.375,125.938,0
72480,26.6875,80.5625,125.312,0
72500,12.875,90.4375,129.562,0
72520,6.4375,90.375,129.688,0
72540,5.5625,85.8125,117.062,0
72560,-9.375,93.0625,85.8125,0
72580,-25.25,95.375,68.25,0
72600,-25.375,91.5,53.8125,0
72620,-22.3125,93.8125,37.0625,0
72640,-28.8125,96.8125,31.25,0
72660,-37.625,92.9375,16.8125,0
72680,-48.5,88.625,-10.75,0
72700,-56.5625,84.8125,-10.4375,0
72720,-34.875,89.75,-5.4375,0
72740,-5.375,80.5,-32.875,0
72760,12.9375,70.5625,-66.1875,0
72780,8.6875,62.9375,-84,0
72800,-0.875,60.25,-94.875,0
72820,11.375,46.3125,-102.5,0
72840,40.5,34.9375,-112.812,0
72860,67.0625,29,-117.125,0
72880,77.25,21.25,-124.562,0
72900,80.5,11.125,-127.688,0
72920,63,-0.9375,-117.625,0
72940,43.3125,-16.25,-102.75,0
72960,30.9375,-31.125,-94.625,0
72980,23.4375,-46.125,-85.6875,0
73000,6.0625,-60.1875,-75.1875,0
73020,-16.0625,-67.5625,-65.375,0
73040,-28.5,-73.75,-54.25,0
73060,-34.25,-82.4375,-44.8125,0
73080,-38.5,-90.8125,-37.3125,0
73100,-48.125,-95.625,-23.625,0
73120,-49.25,-92.875,-8.5625,0
73140,-43.625,-86.125,6,0
73160,-26.875,-77.5,23.6875,0
73180,-9.75,-70.4375,42.3125,0
73200,9.5,-51.1875,56.625,0
73220,19.75,-25.5625,75.1875,0
73240,35.375,1.1875,99.875,0
73260,51.8125,23.75,120.75,0
73280,67,41.375,127.75,0
73300,63.125,56.625,134.75,0
73320,72.8125,73,145.812,0
73340,54.9375,94.0625,139.688,0
73360,39.6875,98.375,143.75,0
73380,37.9375,98.125,121,0
73390,21.125,101,80.75,0
73410,-4.0625,97.75,46,0
73430,-45.8125,100.25,39.5625,0
73450,-50.9375,104.5,34.625,0
73470,-21.375,93.625,12.9375,0
73490,-4.9375,80.875,-22.25,0
73510,-8.3125,75.3125,-36.1875,0
73530,-22.0625,78.25,-43.5,0
73550,-24.9375,73.375,-51.1875,0
73570,-12.8125,55.4375,-71.9375,0
73590,6,50.4375,-87.25,0
73610,14.3125,48.875,-94.1875,0
73630,24.375,39.8125,-105.938,0
73650,49.3125,28,-116.938,0
73670,80.1875,18.5,-116.5,0
73690,88.3125,14.75,-119.75,0
73710,74.0625,-3.5625,-119,0
73730,52.375,-20.5625,-107.688,0
73750,41.625,-35.3125,-95.625,0
73770,43.5,-48.3125,-88,0
73790,29.0625,-60.875,-79.375,0
73810,-1.5625,-75.125,-71.25,0
73830,-24.6875,-85.875,-67.875,0
73850,-29.0625,-93,-66.9375,0
73870,-22.8125,-97.75,-59.375,0
73890,-21.625,-100.75,-47.6875,0
73910,-20.75,-99.4375,-37.625,0
73930,-24.3125,-97.5625,-38.625,0
73950,-14.875,-93.6875,-38.375,0
73970,-14.125,-93.0625,-21.1875,0
73990,-2.5625,-81.0625,11.5,0
74010,31.8125,-53.8125,20.9375,0
74030,65.75,-28.1875,5,0
74050,66.5,-8.375,17.3125,0
74070,50.3125,2,59.9375,0
74090,61.625,31.4375,66.25,0
74110,100.5,64.3125,53.9375,0
74130,120.5,88.25,64,0
74150,90.625,102.938,94,0
74170,74.25,129,99.125,0
74190,79.4375,145.438,91.75,0
74210,66.3125,154.5,86.6875,0
74230,30.1875,143.125,88.6875,0
74250,4.125,122.688,84.1875,0
74270,-17.1875,107.188,72.8125,0
74290,-33.0625,87,68.3125,0
74310,-38.8125,73.8125,56.125,0
74330,-39.5625,63.4375,31.125,0
74350,-61.9375,59.8125,16.25,0
74370,-76.5,58.6875,9.125,0
74390,-54,59,1,0
74410,-51,61.75,11.0625,0
74430,-47.1875,70.125,-5.4375,0
74450,-60.875,69.3125,-36.625,0
74470,-48.875,68.125,-41.125,0
74490,-22.125,68.75,-38.3125,0
74510,11.375,62.3125,-51,0
74530,15.4375,47.625,-71.75,0
74550,4,39.4375,-82.4375,0
74570,19.125,19.9375,-81.6875,0
74590,51.9375,-2.1875,-87.3125,0
74610,65.6875,-13.1875,-83.5625,0
74630,54.125,-21.125,-90,0
74650,40.125,-35.3125,-94.1875,0
74710,-8.5625,-100.75,-65.4375,0
74730,-0.25,-99,-59.875,0
74750,9.3125,-90.0625,-53.3125,0
74770,12.375,-83.875,-47.375,0
74790,2.125,-78.25,-40.8125,0
74830,21.6875,-56.625,-35.625,0
74850,32.125,-43.375,-23.5,0
74870,27.8125,-29.875,-3.875,0
74890,25.25,-16.8125,0.8125,0
74900,39.125,0.5,-10.6875,0
74930,46.625,5.0625,-14.9375,0
74940,45.5,9.9375,-12.125,0
74960,28.6875,15.5,-14.5625,1001
74980,17.3125,17.625,-15.5625,0
75000,15.0625,15.375,-12.8125,0
75020,32.5,10.8125,-10.9375,0
75040,27.375,16.75,-14.4375,0
75060,19.6875,21.5625,-12.5,0
75080,-3.75,23,-9.5625,0
75100,-11.625,21.6875,-6.8125,0
75120,-9.8125,20.3125,-0.25,0
75140,-4.3125,14.875,2.75,0
75160,-7.5625,12.125,1.75,0
75180,-13.125,8.125,-1.875,0
75200,-19,5.6875,-0.1875,0
75220,-12.375,-0.75,3.6875,0
75240,3,-8.25,9.125,0
75260,3.6875,-21.5,17.375,0
75280,14.125,-37.625,32.4375,0
75300,16.625,-45.125,34.875,0
75320,24.125,-49.6875,38.75,0
75340,31,-50.75,56.6875,0
75360,31.375,-50.25,72.1875,0
75380,29.5,-43.875,88.75,0
75400,15.5625,-46.125,102.375,0
75420,7.1875,-48.3125,102.5,0
75440,-8.875,-53.3125,97.375,0
75460,-20.6875,-58,91.5625,0
75480,-28.0625,-54.3125,86.0625,0
75500,-40.5625,-51.5625,80.75,0
75520,-44.5625,-49,71.375,0
75540,-44.8125,-44.375,58.5,0
75560,-54.125,-35.375,46.125,0
75580,-50.8125,-24.5,30.9375,0
75600,-44.5,-21.125,19.6875,0
75620,-32.0625,-21.5,11,0
75640,-22.4375,-14.375,2.375,0
75660,-14.25,-2.6875,-12.25,0
75680,-23.375,1.3125,-18.875,0
75700,-29.9375,-4.625,-15.75,0
75720,-28.625,-9.5,-16.25,0
75740,-16.375,-11,-12.125,0
75760,-23.6875,-9.9375,3.375,0
75780,-38.5625,-1.5,24.3125,0
75800,-28.125,5.25,16.0625,0
75820,-31.1875,4.9375,1.3125,0
75840,-31,1,4.375,0
75860,-25.875,-2.75,-2.125,0
75880,-26.5625,-9.6875,-7.75,0
75900,-16.9375,-18.8125,-2.4375,0
75920,-0.3125,-24.125,-6.6875,0
75940,16.3125,-31.25,-10.5625,0
75960,24.375,-42.0625,-8.625,0
75980,18.3125,-56.375,-22.9375,0
76000,8.9375,-65.5625,-40.75,0
76020,2.875,-75.6875,-43.625,0
76040,13.8125,-86.875,-27.4375,0
76060,8,-86.125,-28.75,0
76080,-2.3125,-88.625,-17.0625,0
76100,-13.6875,-87.6875,1.75,0
76120,-16.625,-83.5,17.625,0
76140,-10.3125,-76.625,30.125,0
76160,-1.9375,-68.0625,37.25,0
76180,16.0625,-55.1875,41.3125,0
76200,35.4375,-43.8125,52,0
76220,31.5,-41.4375,69.8125,0
76240,37.5625,-28.75,88.5,0
76260,46.0625,-10.25,98.5,0
76280,45.4375,2.9375,103.312,0
76300,56.375,22.5,106.875,0
76310,60.3125,47.5,107.75,0
76330,52.3125,72.8125,99.125,0
76350,44.75,87.8125,95.25,0
76360,32.25,94.6875,95.75,0
76380,34.4375,94.375,92.125,0
76400,19.3125,84.4375,74.8125,0
76410,1.875,73.25,51.6875,0
76430,-5.1875,64.1875,10.5625,0
76450,-11.75,55.5,-23.125,0
76460,-12.5625,44.6875,-38.875,0
76480,-5.8125,32.75,-61.9375,0
76500,4.5,26.8125,-93.5,0
76520,16.875,14.0625,-119,0
76540,14,-1.25,-123.062,0
76560,13,1.375,-123.562,0
76580,18.5,11.125,-120.938,0
76600,28.625,17.4375,-108.125,0
76620,43.375,16.6875,-89.875,0
76640,26.375,19.3125,-57.4375,0
76660,26.625,27.8125,-39.625,0
76680,2.5,20.75,-36.5625,0
76700,-11.9375,17.875,-31.625,0
76720,-13.875,13.4375,-23.6875,0
76740,-4.75,13.8125,-10.25,0
76760,7.5625,6.1875,2.5625,0
76780,13.4375,6.875,-0.125,0
76800,15.75,5.875,-3.75,0
76820,-6.0625,-1.25,-0.1875,1000
76840,-45.25,-7.1875,1.75,0
76860,-41.4375,-4.1875,-12.1875,0
76880,-14.625,1.375,-19.6875,0
76900,27.1875,-1.1875,-3,0
76920,35.875,-4.5625,12.0625,0
76940,12.4375,-8.375,10.375,0
76960,-26.5625,-16.625,3.75,0
76980,-37.75,-24.1875,6.5,0
77000,-18.9375,-36.25,3.3125,0
77020,-6.75,-45.5,-10.5,0
77040,-4.5625,-54.6875,-13.1875,0
77060,-5,-63,-4.6875,0
77070,-4.875,-68.25,-3.5,0
77090,-1.9375,-62.9375,-3.75,0
77110,4.125,-65.3125,-5.75,0
77130,5.625,-76.25,-1.9375,0
77150,14.1875,-69.3125,3.4375,0
77170,21,-50.625,6.5,0
77190,28.125,-47.25,4.1875,0
77210,9.875,-48.125,2.6875,0
77230,-5.75,-41.875,12.8125,0
77250,-2.5,-32.8125,24.6875,0
77270,18.3125,-22.8125,32.5,0
77290,10.625,-15.1875,43,0
77310,6.875,-12.8125,58.9375,0
77330,12.9375,-2.625,66.75,0
77350,29.9375,15.125,66.6875,0
77370,35.5,26.125,70.5,0
77390,26.375,35.125,87.125,0
77410,33.75,48.5625,100.812,0
77430,37.5625,60.0625,104.562,0
77450,25.375,64.875,102.188,0
77470,12.5,66.25,102.438,0
77490,4.875,64.3125,106.375,0
77510,2.75,57.6875,107.25,0
77530,-2.1875,52.9375,103.125,0
77550,-9.0625,53.9375,91.375,0
77570,-26.1875,50.5625,80.6875,0
77580,-42.375,50.0625,65.875,0
77600,-43.8125,53.875,40.6875,0
77620,-45.375,59.75,21,0
77630,-37.6875,63.5,7.875,0
77650,-24.6875,71.625,-10.125,0
77670,-24,77.5625,-27.8125,0
77690,-27.0625,81.25,-39.8125,0
77710,-43.4375,79.1875,-50.5625,0
77730,-38.5625,86,-60.5,0
77750,-18.75,84.6875,-65.875,0
77770,-11,84.125,-67.25,0
77790,11.125,84.875,-73.6875,0
77810,13.75,77.5625,-86.4375,0
77830,15.1875,75.375,-95.0625,0
77850,8.875,63.375,-95.9375,0
77870,10.8125,48.6875,-100.562,0
77890,25.5625,37.1875,-103.688,0
77910,45.5,22.3125,-106.625,0
77930,54.375,3.375,-107.188,0
77950,54.1875,-13.875,-102.5,0
77970,45.375,-30.5,-95.9375,0
77990,32.875,-44,-87.6875,0
78010,15.5,-54.9375,-82.625,0
78030,4.375,-63.8125,-77.875,0
78040,-3.75,-70.8125,-70.4375,0
78060,-11.0625,-73.3125,-64.25,0
78080,-11.1875,-75.75,-56.0625,0
78100,-1.1875,-76.1875,-45.1875,0
78120,7.1875,-75.9375,-35.5,0
78140,4.625,-79.5,-28.5625,0
78160,-15.6875,-78.0625,-17.4375,0
78180,-23.5625,-67.3125,1.625,0
78200,-2.375,-47.6875,25,0
78220,38.375,-31.3125,38.375,0
78240,54.5,-23.4375,39.0625,0
78260,50.9375,-14.3125,59.5625,0
78280,48.125,-8.5625,82.8125,0
78300,62.9375,6.5625,84.375,0
78320,85.8125,18.625,93.75,0
78340,75.8125,30.5,111.5,0
78360,76.6875,48.9375,121,0
78380,97.125,75.875,123.438,0
78400,85.375,93.75,123,0
78420,50.125,105.75,135.188,0
78420,38.375,103.188,128.375,0
78440,15.0625,85.6875,100.875,0
78450,-18.75,64.8125,73.9375,0
78470,-39.625,49.3125,53.25,0
78480,-48.25,51.6875,31.25,0
78480,-63.625,52.5625,-8.75,0
78500,-61.4375,63.4375,-10.25,0
78520,-46.5625,65.25,-32.5,0
78540,-37.625,72.25,-55.6875,0
78560,-57.1875,72.75,-51.0625,0
78580,-60.9375,71,-49,0
78600,-27.625,58.8125,-67.4375,0
78620,13.4375,54.375,-84.5,0
78640,39.4375,59,-87.3125,0
78660,16.375,56.8125,-82.875,0
78680,-20.8125,42,-86.75,0
78700,2.25,29.6875,-93,0
78720,70.625,14,-101.188,0
78740,108.312,-1.4375,-102.188,0
78760,101.812,-18.5,-97.5,0
78780,66.4375,-40.1875,-95.375,0
78800,48.125,-58.6875,-92.125,0
78820,49.75,-73,-87.8125,0
78840,51.3125,-86.25,-87.5,0
78860,37.625,-96,-82,0
78880,16.1875,-98.75,-71.3125,0
78900,5.5,-98.25,-67.5,0
78920,-9.875,-99.25,-66.375,0
78940,-6.5,-95.1875,-60.625,0
78960,2.375,-86.625,-50.6875,0
78980,15,-77.8125,-44.5,0
79000,6.875,-64.6875,-30.8125,0
79020,4.75,-47.1875,-8.75,0
79040,15.9375,-24.375,3.8125,0
79060,42.25,-23.125,19.0625,0
79080,46.625,-8.8125,45.5,0
79100,43.5,8,67.25,0
79120,62.9375,36.5,84.8125,0
79140,74.0625,68.9375,100.375,0
79160,68.0625,91.8125,112.5,0
79180,62.1875,112.938,121.875,0
79200,61.6875,123.625,113.625,0
79220,54.1875,129.438,110.312,0
79240,36.4375,130.5,113.375,0
79260,28.1875,131.125,110.438,0
79280,22.1875,122.938,97.4375,0
79300,2,108.062,84.1875,0
79320,-18.5625,85.3125,68.0625,0
79340,-43.1875,56.6875,45.125,0
79360,-55.125,38.8125,28.125,0
79380,-64.875,30,28.25,0
79400,-49.1875,30.125,28.4375,0
79420,-51.3125,34.0625,19.75,0
79440,-79.75,37.75,11.125,0
79460,-82.75,38.25,-3.5,0
79480,-60.375,38.75,-17.5625,0
79500,-28.375,43.6875,-17.8125,0
79520,-53.5,54.5,-10.625,0
79540,-82.375,59.1875,-29.8125,0
79560,-85.6875,50.3125,-59.375,0
79580,-37.3125,38.75,-69.3125,0
79600,24.75,42.5625,-72.8125,0
79620,50.8125,50.375,-86.4375,0
79640,38.25,51.4375,-102.062,0
79660,19.625,36.5625,-109.875,0
79680,41.6875,12.375,-102.5,0
79700,90.4375,-7.5625,-99.875,0
79720,110.125,-16.0625,-97,0
79740,79.5,-26.8125,-91.125,0
79810,22.375,-78.375,-65.1875,0
79830,-8.0625,-75,-58.9375,0
79850,-7.25,-69.75,-60.3125,0
79870,0.5625,-64.1875,-55.8125,0
79890,13.1875,-53.75,-43.625,0
79910,24.625,-42.3125,-39.3125,0
79930,45.1875,-30.1875,-48.5,0
79950,62.25,-23.6875,-47.25,0
79970,20.25,-13.0625,-35.875,0
79990,17.9375,10.8125,-27.625,0
80010,36.75,21.625,-23.8125,0
80030,44.5,19.1875,-24,0
80050,48.9375,17.3125,-8.1875,1001
80070,40.375,21.8125,-5.5,0
80090,36,26.125,-9.875,0
80110,26.6875,27.625,-0.3125,0
80130,20.3125,35.8125,1.125,0
80150,15.125,38.9375,-3.1875,0
80170,8,38.625,3.4375,0
80190,0.75,32.8125,12.9375,0
80210,-2.0625,24.5625,10.1875,0
80230,-7.1875,16.4375,7,0
80250,-10.0625,12.5,15.6875,0
80270,-5.8125,7.4375,23.1875,0
80290,2.0625,5.9375,16.8125,0
80310,13.4375,-4.4375,21.875,0
80330,15.75,-13.125,36.75,0
80350,25.4375,-18.9375,48.6875,0
80370,35.875,-23.875,57.375,0
80390,37.3125,-30.375,66.8125,0
80410,29,-36.5625,76.1875,0
80430,29.375,-37.4375,91.375,0
80450,32.75,-34.75,100.062,0
80470,18.625,-39,114.5,0
80490,4.625,-45.25,126.5,0
80510,-15.625,-48.4375,113.875,0
80530,-28.8125,-57.5625,84,0
80550,-16.125,-67.4375,60.8125,0
80570,2.3125,-70.625,44,0
80590,26.6875,-64.3125,30.0625,0
80610,33.3125,-55.375,9.6875,0
80630,23.4375,-43.5,-9.75,0
80650,3.875,-31.3125,-16.875,0
80670,-16.9375,-18.125,-15.4375,0
80690,-17.875,-15.6875,-13.9375,0
80710,10.625,-5.1875,-13,0
80730,47.75,-3.125,-14.6875,0
80750,40.1875,-6.1875,-18.0625,0
80770,-4.1875,-1.9375,-23.75,0
80790,-17.9375,-7.75,-23.8125,0
80810,-13.625,-13.25,-16.375,0
80830,3.5625,-8.8125,-5.3125,0
