Timestamp, Rotation x, Rotation y, Rotation z, Marker
40,60.0625,-13.5625,39.9375,0
60,47.9375,-42.875,63.25,0
80,90.9375,-43.25,117.438,0
100,74.5625,-26.6875,107.125,0
120,21.0625,-12,99.0625,0
130,-23.625,-12.0625,77.5,0
130,-38.875,-10.6875,44.6875,0
180,-7,-2.6875,16.6875,0
200,17.125,0.25,-18.625,0
220,22.0625,-15.875,-51.25,0
240,4.875,-41.75,-48.6875,0
260,9.125,-50.75,-28.9375,0
280,20.9375,-41.625,-25.5,0
300,25.125,-39.75,-17.0625,0
320,23.875,-39.375,4.875,0
340,29.6875,-32.75,36.1875,0
360,27.9375,-34.875,43.625,0
380,0.9375,-23.9375,32.75,0
400,-21.375,-18.6875,26.1875,0
420,-46.5,-22.125,28.875,0
440,-52.125,-24.5,42.1875,0
460,-52.25,-25.9375,52.1875,0
480,-58.1875,-25.5,62.1875,0
500,-60.0625,-23.5625,61.6875,0
520,-60.8125,-27.3125,55.3125,0
540,-69.9375,-33,52,0
560,-61.0625,-34.1875,44,0
580,-37.8125,-33.3125,31.25,0
600,-13.0625,-34.25,19.4375,0
620,-4.4375,-32.8125,10.9375,0
630,-2.4375,-24.75,3.875,0
650,3.625,-15.3125,-6.1875,0
670,12.3125,-6.8125,-12.4375,0
690,18.6875,4.5,-14.4375,0
710,16.1875,10.4375,-16.5625,0
730,10.375,7.5,-12.5,0
750,4.9375,1.3125,-8.25,0
770,5.6875,5.625,-10.0625,0
790,-3.3125,6.375,-16,0
810,0.9375,3.875,-27.6875,0
830,-1.6875,-2.5,-33.5,0
850,1.0625,-1.5625,-41.0625,0
870,7.25,4,-51.875,0
890,21.5625,3.6875,-64.0625,0
910,32.625,-1,-70.9375,0
930,50.25,-5.3125,-75.75,0
950,60.8125,-6.3125,-89.9375,0
970,70.3125,-12.375,-100.5,0
990,71.625,-17.4375,-100.5,0
1010,57.8125,-18.3125,-96.5625,0
1030,16.25,-27.25,-83.0625,0
1050,1.375,-32.5625,-86.125,0
1070,-0.875,-34.75,-98.25,0
1090,4.5,-39.8125,-94.625,0
1110,0.875,-36.5,-98.1875,0
1130,5.1875,-29.5625,-107.875,0
1150,22.6875,-10.75,-115.062,0
1170,11.0625,4.1875,-122.062,0
1190,-15.5,1.9375,-131,0
1210,-14,0.9375,-136.875,0
1230,-9,1.625,-135.562,0
1250,9.625,-1.5,-135.312,0
1270,36.8125,-1.3125,-126.5,0
1290,36.8125,-3.125,-108.375,0
1310,36.8125,-4.1875,-105.125,0
1330,22.6875,6.9375,-103.562,0
1350,-0.6875,17.5,-92.4375,0
1370,-3.9375,24.75,-87.375,0
1390,-1.8125,45.5625,-82.875,0
1410,-3.875,48.5625,-67.0625,0
1430,-14.125,53.8125,-55.125,0
1450,-29.0625,59.125,-53.0625,0
1470,-34,65.8125,-53.6875,0
1490,-33.8125,71.5625,-48.25,0
1510,-18.75,74.1875,-49,0
1530,8.1875,71.875,-53.3125,0
1550,42,69.4375,-58.125,0
1570,58.8125,71.9375,-61.3125,0
1590,59.5,74.3125,-59.5625,0
1610,50.3125,72.75,-50.875,0
1630,40.5625,69.125,-38.0625,0
1650,37.4375,67,-30.8125,0
1670,31.0625,64.75,-25.75,0
1690,23,62.875,-16.25,0
1710,8.8125,60.625,-9.4375,0
1730,-2.6875,66.375,-10.625,0
1750,-7.375,71.625,-9.1875,0
1770,-5.5,74.125,-3.125,0
1790,-8.1875,69.9375,10.0625,0
1810,-19.3125,65.1875,18.625,0
1830,-22.8125,66.5,12.6875,0
1850,-11.25,66.625,2.5625,0
1870,2.6875,66.3125,-3.4375,0
1890,13.25,66.5625,-5.6875,0
1910,13.3125,66.875,-7,0
1930,10.8125,64.75,-3.9375,0
1950,8.75,64.0625,-1.0625,0
1970,2,62.5625,5.375,0
1990,-8.4375,60.125,21.625,0
2010,-39.0625,57.1875,43.75,0
2030,-59.6875,56.25,59.3125,0
2050,-64.5,51.1875,66.375,0
2070,-56.375,42.875,73.75,0
2090,-51.4375,31.5625,77.75,0
2110,-39.5,30.625,66.9375,0
2130,-29.375,25.5625,62.6875,0
2150,-18.0625,15.4375,66.75,0
2170,0.125,9,62.6875,0
2190,26.9375,13.4375,40.9375,0
2210,58.4375,17.4375,28.8125,0
2230,79.8125,19.6875,25.5,0
2250,87.625,21.6875,20.6875,0
2270,91.125,22.4375,18.6875,0
2290,82.9375,31.5,14.375,0
2310,74.4375,42.5,7.8125,0
2330,71.6875,48.3125,5.1875,0
2350,81.25,57.75,-3.625,0
2370,93.8125,63.25,-8.75,0
2390,99.1875,61,-1.75,0
2410,90,54.3125,1.9375,0
2430,71.8125,42.5,4.25,0
2450,59.1875,25.625,9.5,0
2470,-40.375,-77.5,93,0
2490,-57.5625,-20.375,19.9375,0
2510,-51.5625,4,-23.4375,0
2530,20.25,13.875,-51.125,0
2550,64.25,-21.8125,-18.3125,0
2570,71.875,-21.5,-30.3125,0
2590,40.125,-25.3125,-26.4375,0
2610,10.75,-22.4375,-20.25,0
2630,-4.375,-20.75,-15.3125,0
2650,-8.0625,-19.0625,-13.25,0
2670,-4.8125,-18.0625,-11.5,0
2690,9,-18.4375,-12.75,0
2710,20.0625,-17.75,-12.5,0
2730,16.5625,-17.3125,-8.0625,0
2750,3.6875,-15.75,-2.8125,0
2770,-2.3125,-14.5625,1.9375,0
2790,2.5,-10,3,0
2810,8.125,-5.0625,4.9375,0
2830,6.4375,-0.5,7.625,0
2850,3.9375,5.4375,7.5,0
2870,10.875,11.0625,4.75,0
2890,21.4375,16.375,2.8125,0
2910,26.5625,21,1.9375,0
2930,24.5625,24.125,2.125,0
2950,24.75,27.25,-0.375,0
2970,35.4375,31.75,-5.875,0
2990,42.1875,33.4375,-8.0625,0
3010,38.5625,34.75,-9.8125,0
3030,34.875,36.625,-12.625,0
3050,34.5625,37.8125,-15,0
3070,30.75,38.125,-15.5625,0
3090,22.9375,37.8125,-15.875,0
3110,24.375,37.5625,-18.0625,0
3130,38.25,36.0625,-20.5,0
3150,45.625,33.6875,-19.625,0
3170,28.6875,29.0625,-15,0
3190,4.5,25,-9.875,0
3210,-11.3125,21.75,-4.375,0
3230,-12.1875,20.4375,-2.6875,0
3250,-22.5,21.125,-2.3125,0
3270,-27.8125,21.125,-3.125,0
3290,-21.25,18.9375,-2.3125,0
3310,-9.4375,15.3125,-3.9375,0
3330,-7.3125,13.125,-3.4375,0
3340,-11.0625,9.1875,-0.3125,0
3360,-5.125,4.5,0,0
3380,10.8125,1,-3.375,0
3400,22.0625,-5.875,-2.4375,0
3420,19,-11.5625,-2.0625,0
3440,15.875,-16.8125,0.625,0
3460,16.5625,-19.625,3.3125,0
3480,15.25,-20.4375,6,0
3500,7.875,-20.1875,8.75,0
3520,-0.5,-18.875,9.875,0
3540,-3.75,-18.6875,11.1875,0
3560,-1.75,-19.5,12.6875,0
3580,3.8125,-19.3125,13.9375,0
3600,11.125,-17.9375,12.625,0
3620,15.1875,-15.1875,12.3125,0
3640,6.5625,-14.8125,14,0
3660,-6.9375,-13.6875,15.5625,0
3680,-11.1875,-12.0625,17.0625,0
3700,-12.75,-10,13.125,0
3720,-10.5,-8.875,8.75,0
3740,-8.1875,-8.6875,5,0
3760,-4.4375,-5.5625,1.4375,0
3780,-3.625,-1.5625,-1.5625,0
3800,-6.75,2.25,-5.8125,0
3820,-7.125,2,-7.8125,0
3840,-5.5,2.4375,-9.875,0
3860,-2,6.4375,-8.9375,0
3880,2.125,10,-9.75,0
3900,9.0625,11.1875,-12.375,0
3920,11.875,8.25,-13.0625,0
3940,10.0625,7.75,-12.0625,0
3960,7.0625,10.4375,-8.4375,0
3980,1.75,13.0625,-6.9375,0
4000,1.9375,14.3125,-4.6875,0
4020,-2.4375,18.3125,-1.3125,0
4040,-3.1875,22.3125,-4.125,0
4060,18.8125,19.1875,-3.1875,0
4080,21.75,18.125,-6.6875,0
4100,23.75,17.3125,-6.125,0
4120,23.375,12.75,-8.6875,0
4140,20.3125,9.875,-7.5625,0
4160,16,8.875,-3.9375,0
4180,9.1875,9.1875,-4.75,0
4200,0.875,7.125,-6.4375,0
4220,-3,4.5625,-6.9375,0
4240,-4.125,2.875,-7.1875,0
4260,-6.125,1.125,-6.875,0
4280,-8,0.9375,-6.3125,0
4300,-6.6875,0.75,-8.125,0
4320,-3.5625,-1.6875,-9.6875,0
4340,6.5625,-6.125,-12.5,0
4360,16.625,-11.0625,-14.1875,0
4380,19.25,-18.25,-15.1875,0
4400,13.5625,-25.625,-13.5625,0
4420,12.6875,-30.4375,-12.875,0
4440,22.6875,-33.875,-13.625,0
4460,27,-37.8125,-14.375,0
4480,21.1875,-37.6875,-13.8125,0
4500,12.0625,-35.625,-12.75,0
4520,6.25,-31.5,-12.375,0
4540,-1.5,-27.5625,-13.75,0
4560,8.5625,-24.875,-12.75,0
4580,-11.9375,-21.3125,-9.5625,0
4600,-22.3125,-13.625,-16.625,0
4620,-14.8125,-14.6875,-10.875,0
4640,-8.3125,-9.625,-13.125,0
4660,4.625,-2.5,-10.9375,0
4680,3.5,0.9375,-8.875,0
4700,-3.6875,4.1875,-5.625,0
4720,-11.1875,7.5,-1.625,0
4740,-7.4375,12.125,1.125,0
4760,2.25,15.4375,6,0
4780,11.625,22.4375,11.0625,0
4800,11.125,30.4375,14.5,0
4820,4.9375,34.6875,18.6875,0
4840,-1.625,39.5,20.875,0
4860,-2.5625,43,20.375,0
4880,-3.1875,43.8125,20.8125,0
4900,-6.125,43.375,21.625,0
4920,-7.9375,41.9375,21.75,0
4940,-4.4375,39.625,20.125,0
4960,4.375,36.125,16.625,0
4980,13.4375,30.0625,13.0625,0
5000,19.3125,22.8125,11.3125,0
5020,22.375,17,8.6875,0
5040,24.0625,10.0625,6.875,0
5060,23.5,3.3125,5.9375,0
5080,19.8125,-3.4375,5,0
5100,25.3125,-12.9375,6,0
5120,37.375,-14,7.4375,0
5140,18.0625,-12.5625,4.875,0
5160,7.375,-12.75,5.1875,0
5180,22.625,-16.9375,6.0625,0
5200,29.25,-13.25,3.5625,0
5220,36.75,-13.3125,5.0625,0
5240,36.75,-13.1875,5.9375,0
5260,30.9375,-11.75,8.6875,0
5280,15.3125,-11.3125,10.25,0
5300,2.625,-10.3125,11.6875,0
5320,-5,-9.125,11.625,0
5330,-3.8125,-7.0625,8.6875,0
5350,2.5625,-4.5,8.75,0
5370,3.625,-1.9375,8.625,0
5390,-2.125,0.3125,9.1875,0
5410,-11.9375,2.875,9.0625,0
5430,-14.5,5.125,8.0625,0
5450,-3.1875,6.5625,6.6875,0
5470,-4.8125,5,1.875,0
5490,-2.125,7.0625,4.875,0
5510,-5.125,5.5,1.8125,0
5530,-5.3125,4.5,2.625,0
5550,-4.75,4.5,1.875,0
5570,-1.75,3.625,0.0625,0
5590,4.875,4.5,-1.0625,0
5610,10.1875,4.875,-0.75,0
5630,9.875,6.5,-2,0
5650,4.6875,7.0625,-3,0
5670,-2.875,8.75,-2.9375,0
5690,-9.6875,8.5625,-1.75,0
5710,-11.375,9.9375,-3.375,0
5730,-9.875,9.75,-3.5,0
5750,-7.25,10.3125,-4.0625,0
5770,-2.9375,9.9375,-5.25,0
5790,3.125,7.3125,-6.5625,0
5810,10.0625,5,-7.5,0
5830,12.5,2,-5.625,0
5850,8.625,0.375,-3.625,0
5870,1.9375,-1.125,-2.1875,0
5890,1.75,-2.8125,-1.8125,0
5910,8,-5.5,-2.375,0
5930,12.9375,-6.5625,-2.6875,0
5950,15.6875,-8.1875,-2.625,0
5970,9.25,-7.5,2.4375,0
5990,-7.8125,-3.25,1.3125,0
6010,-23.1875,-0.25,4.75,0
6030,-38.75,4.875,8.9375,0
6050,-52.0625,11.5,9.9375,0
6070,-54.3125,16,7.9375,0
6090,-47.6875,18.6875,6.5,0
6110,-43.625,21.8125,3.8125,0
6130,-48.125,22.125,1.5625,0
6150,-52.3125,23.8125,-0.5,0
6170,-49.75,21.125,3.0625,0
6190,-58.3125,22.25,7.0625,0
6210,-81.75,19.75,7.0625,0
6230,-93.375,20.6875,5.8125,0
6250,-85.25,16.4375,0.8125,0
6270,-60.25,10.6875,-5.25,0
6290,-30.25,3.8125,-13.25,0
6310,1.6875,-7.6875,-23.1875,0
6330,36.25,-23.0625,-35.4375,0
6350,60.5625,-39.1875,-38.625,0
6370,65.375,-55.75,-30.0625,0
6390,55.3125,-64.8125,-23.125,0
6410,38.8125,-71.0625,-16.1875,0
6430,23.125,-71.1875,-7.0625,0
6450,13.6875,-66.5,-0.1875,0
6470,11.875,-59.625,0.125,0
6490,16.5,-53.4375,0.3125,0
6510,14.5,-39.875,-2.75,0
6530,16.4375,-26.1875,-1,0
6550,29.875,-15.4375,0.25,0
6570,33.5625,-0.3125,-2,0
6590,27.75,10.5,5.625,0
6610,6.625,17.625,20.4375,0
6630,-20.5625,27.8125,25.875,0
6650,-37.75,34.9375,24.875,0
6670,-41.25,38.1875,24.5625,0
6690,-32.125,37.375,22.1875,0
6710,-24.1875,38.5,16.375,0
6730,-22.5,37.9375,11.125,0
6750,-20.625,37.25,5,0
6770,-13.6875,36,-1.4375,0
6790,0.9375,32.5,0.5625,0
6810,7.5,27.4375,2.875,0
6830,4.1875,24.3125,-0.75,0
6850,-4.4375,20.375,-0.625,0
6870,-7.125,16,-0.25,0
6890,-7.125,13.625,-2.125,0
6910,-9.125,13,-3.0625,0
6930,-9.125,14.5,-2.625,0
6950,-6.5,14.5625,-0.3125,0
6970,-7.1875,15.625,2.5625,0
6990,-13.1875,16.4375,4.75,0
7010,-14.3125,11.9375,10.75,0
7030,-19.75,15.9375,8.125,0
7050,-35.25,19.3125,5.6875,0
7070,-22.5625,10.1875,13.375,0
7090,-29,9.5,10,0
7110,-13.25,1.9375,9.4375,0
7130,-11.5625,-5.9375,4.4375,0
7150,5.6875,-14.6875,6.875,0
7170,10,-20.5625,2.4375,0
7190,3.125,-23.5625,-1.1875,0
7210,-7.3125,-28.5,0.625,0
7230,-15.6875,-30.9375,0.125,0
7250,-22.6875,-30.5625,-4.1875,0
7270,-27.4375,-31.375,-3.5625,0
7290,-17.5625,-33.375,-1.6875,0
7310,-2.8125,-35.0625,-3.25,0
7330,15.5,-35,-4.4375,0
7350,26.9375,-33,-5.375,0
7370,27.625,-27.9375,-3.9375,0
7390,15.4375,-24.875,-0.1875,0
7410,3.375,-20.4375,2.875,0
7430,-2.8125,-15.625,3.3125,0
7450,0.375,-13.9375,5.3125,0
7470,5.875,-12.5625,5.5,0
7490,9.3125,-11,4.0625,0
7510,6,-11,0.125,0
7530,9.3125,-12.1875,-1.25,0
7550,14.9375,-12.9375,-2.625,0
7570,17.9375,-10.9375,-1.5625,0
7590,8.8125,-9.0625,0.4375,0
7610,-10.3125,-5.375,2.8125,0
7630,-25.5625,1.125,6.375,0
7650,-32.75,9.3125,7.9375,0
7670,-31.125,16.4375,9.3125,0
7690,-28.5625,23.25,9.9375,0
7710,-26.5625,27.875,8,0
7730,-21.8125,29.9375,5.8125,0
7750,-18.875,30.125,7.25,0
7770,-18.25,28.9375,9.0625,0
7790,-21.125,26.8125,9.875,0
7810,-30,25.8125,9.75,0
7830,-40.5625,25.3125,10.5625,0
7850,-47.1875,22.1875,13.5,0
7870,-49.5625,21.4375,13,0
7890,-42.75,19,13,0
7910,-31.25,20,8.0625,0
7930,-19.75,18.6875,3.9375,0
7950,-12.5625,16.1875,4.625,0
7970,-18.5,16.6875,5.125,0
7990,-27.25,14.5625,6.1875,0
8010,-36.3125,12.75,8.9375,0
8030,-44,12.8125,9.9375,0
8050,-51.625,10.9375,11.4375,0
8070,-52.875,10.6875,14.4375,0
8090,-49.125,12.25,14.75,0
8110,-33.3125,13.9375,14.0625,0
8130,-18.625,13.9375,13.625,0
8150,-19.0625,15.9375,12.625,0
8170,-30.875,15.9375,12.375,0
8190,-96.125,-14.9375,20.875,0
8210,-138.312,-0.1875,14.4375,0
8230,-141.75,6.5625,18.6875,0
8250,-98.9375,0.5,23.625,0
8270,-48.25,0.75,28.4375,0
8290,-25.625,4.6875,10.25,0
8310,3.875,11.4375,-2.25,0
8330,97.125,-1.3125,-6.8125,0
8350,67.125,-1.3125,-24.625,0
8370,13.4375,0.8125,-5.8125,0
8390,-45.8125,-5.25,-2.75,0
8410,-60.25,-8.125,-3.875,0
8430,-38,-16.875,-7.375,0
8450,-7.8125,-24.3125,-12.6875,0
8470,7.25,-31.625,-15.25,0
8490,3,-36.0625,-14.4375,0
8510,-11.625,-39,-12.3125,0
8530,-20.9375,-40.6875,-11,0
8550,-24.75,-40.25,-12.75,0
8570,-18.625,-40,-12.25,0
8590,-10.125,-39.8125,-13.1875,0
8610,-5.75,-36.5625,-13.875,0
8630,-4.6875,-32.25,-13.5,0
8650,3.25,-29.375,-15.0625,0
8670,3.75,-23.9375,-15.1875,0
8690,4.125,-21.75,-8.75,0
8710,-0.1875,-17.0625,-6.0625,0
8730,-4.8125,-11.875,-3.4375,0
8750,-6.125,-9.9375,1.9375,0
8770,-7.1875,-4.25,3.6875,0
8780,-7.875,1.6875,4.8125,0
8800,-5.25,5.1875,6.3125,0
8820,-0.6875,9.5,6.875,0
8840,4.625,13.625,7.125,0
8860,9.5625,17.25,14.3125,0
8880,-10.125,29.5,16.8125,0
8900,1.5,26.5,7.625,0
8920,16.1875,27.0625,18.875,0
8940,1.625,39.6875,10.75,0
8960,6.3125,36.9375,18.3125,0
8980,3.5,33.5625,17.4375,0
9000,2.1875,34.5625,15.6875,0
9020,-0.3125,37.1875,16.4375,0
9040,-0.875,37.25,16.125,0
9060,0.875,37.25,16.5,0
9080,-2.4375,39,13.8125,0
9100,-1.625,37.375,10.75,0
9120,3.25,34.8125,10.6875,0
9140,4.6875,31.1875,8.8125,0
9160,5,28.125,8.375,0
9180,2.625,24.5,6.4375,0
9200,1.25,21.875,5,0
9220,-2.5625,19.3125,5.625,0
9240,-5.1875,17.8125,8.125,0
9260,-6.8125,15.5625,8.875,0
9280,-8.25,12.875,10.5625,0
9300,-13.125,10.25,14.1875,0
9320,-19.375,7.5,16.5625,0
9340,-21,5.5625,17,0
9360,-21.5,4.5625,17.6875,0
9380,-14.75,2.8125,19.375,0
9400,-10.75,1,20.125,0
9420,-9.5625,-0.625,24.5,0
9440,-6.6875,0.125,26.625,0
9460,-6.1875,0.9375,28.875,0
9480,-6.875,-2.875,32.125,0
9500,-12.4375,-8.875,37.125,0
9520,-17.4375,-9.75,41.9375,0
9540,-20.5625,-6.25,41.1875,0
9560,-17.875,-4.75,36.3125,0
9580,-8.6875,-5.0625,33.0625,0
9600,-3.6875,-4.625,30.3125,0
9620,2,2.5,23.3125,0
9640,5.875,3.6875,24.1875,0
9660,13.9375,9.0625,20.375,0
9680,15.3125,12.75,16.75,0
9700,17.5,15.125,16.25,0
9720,9.5625,16.5625,15.3125,0
9730,1.125,18,16.9375,0
9750,-5.0625,20.75,13.0625,0
9770,-6.3125,19.5625,9.9375,0
9790,-3.6875,19.375,8.3125,0
9810,0.5,19.6875,6,0
9830,4.375,20,3.8125,0
9850,1.1875,20.0625,0,0
9870,-1.1875,17.75,-1.375,0
9890,-2.25,16.4375,-4.375,0
9910,-0.5,12.75,-5.4375,0
9930,-1.5625,10.875,-6.75,0
9950,-4.1875,9.6875,-8.25,0
9970,-5.0625,6.0625,-9,0
9990,-3.75,4.0625,-11.375,0
10010,0.9375,3.5625,-15.5625,0
10040,10.25,0.3125,-22.5,0
10060,13.6875,0.3125,-23.6875,0
10080,16.25,-1.25,-20.125,0
10100,5.625,-6.4375,-5.125,0
10120,-9.8125,1.375,-18.4375,0
10140,4.375,-7.3125,-16.5,0
10160,12.25,-5.625,-22.0625,0
10180,6.625,-4.25,-18.1875,0
10200,11.625,-13,-15.25,0
10220,2.625,-14.9375,-16.9375,0
10240,-4.125,-15.3125,-13.6875,0
10260,-2.6875,-14.0625,-16.9375,0
10280,4,-16.8125,-18.3125,0
10300,9.4375,-19.375,-17.1875,0
10320,7.6875,-19.4375,-17.375,0
10340,0.3125,-19.375,-18.5,0
10360,-2.6875,-20.9375,-18.625,0
10380,-0.5,-22.375,-20.375,0
10400,-1.6875,-21.0625,-21.1875,0
10420,-5.875,-19.75,-21.625,0
10440,-5.375,-18.3125,-23.1875,0
10460,-2.25,-18.125,-25.0625,0
10480,4.125,-18.3125,-24.875,0
10500,7.625,-19.625,-24.4375,0
10520,9.25,-18.625,-24.375,0
10540,5.1875,-20.0625,-21.75,0
10560,4.5,-22.9375,-23.375,0
10580,11.3125,-27.3125,-20.625,0
10600,13.3125,-29.5,-21,0
10620,15.1875,-29.625,-21.6875,0
10640,12.25,-28.5625,-24.625,0
10660,9.9375,-26.0625,-27.25,0
10680,15.5,-24.75,-31,0
10700,24.5625,-24.4375,-36.875,0
10720,32.5625,-25.5,-39.25,0
10740,35.875,-26.75,-39.25,0
10750,34,-25.5625,-40.5625,0
10770,25.0625,-24.0625,-37.8125,0
10790,17.5,-22.25,-33.875,0
10810,15,-18.3125,-30.75,0
10830,11.6875,-14.1875,-29.25,0
10850,8.25,-9.1875,-26.25,0
10870,2.875,-4.5,-23.1875,0
10890,4.5625,-2.4375,-16.3125,0
10910,3.1875,1.125,-11.125,0
10930,-4.5,4.6875,-5.125,0
10950,-18.8125,8.3125,0.875,0
10970,-29.6875,12.5625,2.625,0
10990,-31.125,16.8125,0.375,0
11010,-25.375,21.125,-1.5625,0
11030,-16,24.25,-4.9375,0
11050,-1.5,25.25,-10.4375,0
11070,17.8125,22.75,-16.6875,0
11090,39.875,17.1875,-23.25,0
11110,53.3125,9.5,-29.4375,0
11130,58.5625,0.4375,-31.8125,0
11150,59.3125,-11.1875,-32,0
11170,60.3125,-24.9375,-30.875,0
11190,59,-37.3125,-29.875,0
11210,60.0625,-47.0625,-28.25,0
11230,55.5,-51.125,-25.8125,0
11250,47.6875,-51,-20.75,0
11270,45.25,-45.9375,-14.5625,0
11290,49.0625,-37.125,-9.5,0
11310,54.375,-24.625,-2.625,0
11330,53.4375,-11.0625,5,0
11350,39.875,2.0625,13.5625,0
11370,17.8125,18.8125,19.6875,0
11390,-4.1875,32.75,24.3125,0
11410,-13.1875,40.625,28.25,0
11430,-12.75,45.875,26.75,0
11450,-12.25,50.9375,21.125,0
11470,-10.0625,49.25,17.9375,0
11490,-4.0625,44.25,16.6875,0
11510,2.1875,36.75,12.9375,0
11530,12.375,26.8125,8.3125,0
11550,22.625,15.125,3.125,0
11570,29.6875,2.75,-2.6875,0
11590,37,-8.6875,-6.375,0
11610,41.9375,-17,-9.625,0
11630,44.8125,-23.125,-11.5,0
11650,44,-27.375,-12.375,0
11670,39.5625,-29.1875,-13.1875,0
11690,33.75,-28.8125,-13.3125,0
11710,28.9375,-26.9375,-12.625,0
11730,22.5,-24.5,-11.3125,0
11750,12.25,-21.6875,-8.9375,0
11770,2.0625,-18.6875,-5.75,0
11790,-3.0625,-16.3125,-3.5,0
11810,-3.6875,-13.5,-2.4375,0
11830,-7.0625,-10,-2.125,0
11850,-12.5625,-7.6875,-0.5,0
11870,-15.9375,-5.3125,1.875,0
11890,-17.1875,-3.25,1.625,0
11910,-10.9375,-3.125,1.75,0
11930,-5.8125,-4.0625,1.5625,0
11950,-4,-4.3125,1.9375,0
11970,-8.125,-4.0625,2.75,0
11990,-12.75,-3.875,3.1875,0
12010,-11.0625,-3.1875,4.875,0
12030,-7.3125,-2.4375,3.375,0
12050,-4.0625,-2.1875,1.4375,0
12070,-1.6875,0.125,3.1875,0
12090,-7.3125,3.1875,3.4375,0
12110,-14.8125,7.5,5.4375,0
12130,-20.5625,10.8125,7.875,0
12150,-22.9375,14.75,9.1875,0
12170,-21.25,18.5,8.4375,0
12190,-15.625,20.4375,6.1875,0
12210,-6.5625,20.125,4.0625,0
12230,-0.125,18.125,0.4375,0
12250,4.875,16.1875,-0.5,0
12270,37.625,20.3125,3.8125,0
12290,14.8125,6.375,-14.6875,0
12310,26.9375,-1.9375,-5.375,0
12330,11.3125,-1.0625,4.0625,0
12350,-16.75,5.5,-1.0625,0
12370,-9.375,4.375,6.6875,0
12390,3.0625,0.9375,3.5,0
12410,16.5625,1.6875,1.875,0
12430,15.75,1.5625,0.6875,0
12450,5.5,2.6875,2.9375,0
12470,-4.5625,3.375,5.125,0
12490,-8.6875,4.0625,7.1875,0
12510,-7.25,2.9375,7.5,0
12530,-3.5625,0.3125,5.875,0
12550,1.4375,-3.125,4,0
12570,4.5,-5.5,3.0625,0
12590,4.25,-7.125,3.9375,0
12610,-0.6875,-7.6875,5.5625,0
12630,-6.625,-8.25,7.5,0
12650,-8.9375,-8.25,9.3125,0
12670,-6.875,-7.5,9.8125,0
12690,-4,-6.5,10.0625,0
12710,-3,-5.625,11.8125,0
12730,-1.6875,-8.3125,13.875,0
12750,-3.8125,-14,23.75,0
12770,-2.5,-11.9375,17.25,0
12790,-0.8125,-10.9375,7.0625,0
12810,5.6875,-9.125,-0.25,0
12830,10.6875,-7.375,-4,0
12850,7.75,-4.5625,-5.3125,0
12870,2.875,-1.875,-5.5625,0
12890,-0.625,1.625,-5.0625,0
12910,-4.5625,4.1875,-4.6875,0
12930,-8.125,5.9375,-4.625,0
12950,-9.625,8.4375,-5.875,0
12970,-7.75,10.25,-6.125,0
12990,-4.125,9.75,-4.375,0
13010,-2.875,9,-2.625,0
13030,-4.125,9,-1.5625,0
13050,-5.3125,8.0625,-2.25,0
13070,0.3125,5.75,-3.1875,0
13090,13.8125,7.625,-0.4375,0
13110,21.6875,10.875,1.1875,0
13130,11.8125,14.75,-0.875,0
13150,-14,21.875,1,0
13170,-46.375,18.875,1.6875,0
13190,-59.6875,23.9375,-2.1875,0
13210,-41.8125,25,-22.8125,0
13230,17.8125,10.5,-39.25,0
13250,40.5,-20.8125,-51.625,0
13270,18.4375,-47.8125,-62,0
13290,10,-81.4375,-70.5625,0
13310,18.8125,-113.5,-79.375,0
13330,24.6875,-143,-78.5,0
13350,19,-162.125,-78.1875,0
13370,8.8125,-166.688,-89.625,0
13390,4.8125,-168.5,-99.5,0
13410,4.4375,-171.062,-103.188,0
13430,7.5,-170.562,-106.875,0
13450,15.125,-171,-110.25,0
13470,22.8125,-168.688,-112.812,0
13490,28.75,-164.812,-111.688,0
13510,25.4375,-162.938,-103.5,0
13530,35.5625,-177.688,-91.875,0
13550,50.0625,-207.312,-78.3125,0
13570,70,-227.75,-68.0625,0
13590,70.375,-241.688,-61.875,0
13610,57.625,-245.812,-51.1875,0
13630,51.625,-250.312,-32.25,0
13650,41,-257.5,-7.75,0
13670,24.5,-264.375,25.9375,0
13690,9.125,-263.75,58.1875,0
13710,-3.6875,-253.625,82.5625,0
13730,-16.9375,-238,103.062,0
13750,-29.25,-216.438,120.5,0
13770,-43.375,-189.562,132.25,0
13790,-68.0625,-166.438,139.75,0
13810,-85.125,-143.25,148.062,0
13830,-95.5625,-116.75,145,0
13850,-76.625,-99.75,131.938,0
13870,-22.6875,-78.125,163.938,0
13890,3.5625,-44.5,194.25,0
13910,-6.8125,-0.9375,178.688,0
13930,-15.3125,46.8125,142.75,0
13950,5.125,83.4375,125.25,0
13970,47.1875,107.688,118.312,0
13990,83.9375,124.812,104.5,0
14010,98.1875,143.438,90.6875,0
14030,83.375,160.312,80.125,0
14050,73.6875,173.438,62,0
14070,71.875,178.125,45.5,0
14090,80.625,183.375,37.0625,0
14110,103.688,181.812,15.4375,0
14130,103.062,163.188,-9.125,0
14150,114.562,162.438,-23.5625,0
14170,137.812,164.188,-45.3125,0
14190,165.5,159.5,-67.875,0
14200,159.75,155.5,-68.625,0
14220,145.625,164.062,-71.3125,0
14240,131.938,173.25,-81.3125,0
14260,117.875,176.625,-81.1875,0
14280,106,182.5,-78.3125,0
14300,105.812,181.688,-69.125,0
14320,90.9375,182.125,-52.75,0
14340,70.5625,182.875,-41.125,0
14360,51.875,183.688,-27.25,0
14380,46.0625,182.188,-8.25,0
14400,33.3125,185.938,6.625,0
14420,22.6875,188.125,13.9375,0
14440,17.9375,180.938,23.125,0
14460,15.25,173.75,35.0625,0
14480,15.5625,173.812,40.875,0
14500,13.5,172.625,41.9375,0
14520,20.875,167.375,37.25,0
14540,23.9375,160.188,29.875,0
14560,26.1875,144.938,30.9375,0
14580,35.75,124.438,29.5625,0
14600,52.1875,98.9375,26.1875,0
14620,65.875,76.125,22.6875,0
14640,64.75,52.875,20.6875,0
14660,48.9375,27.875,23.1875,0
14680,28.75,8,24.4375,0
14700,13.8125,-5.6875,22.8125,0
14720,1.1875,-17.1875,19.625,0
14740,-12.3125,-27.25,17.5625,0
14760,-22.0625,-37.875,12.0625,0
14780,-24.125,-46.25,2.4375,0
14800,-20.6875,-54.0625,-5.1875,0
14820,-20.9375,-60.8125,-9.3125,0
14840,-23.4375,-66.625,-12.375,0
14860,-23.375,-69.5,-13.25,0
14880,-24.3125,-69.9375,-12,0
14900,-29.625,-68.375,-11.625,0
14920,-34.9375,-66.875,-10.625,0
14940,-38.375,-65.9375,-7.75,0
14960,-35.9375,-63.1875,-5.6875,0
14980,-30.6875,-60.5,-4.0625,0
15000,-31.375,-57.125,-1.5,0
15020,-36.1875,-52.8125,2.0625,0
15040,-41.625,-48.25,7.125,0
15060,-46.8125,-42.9375,11.875,0
15080,-52.625,-36.0625,16.125,0
15100,-57,-28.625,19,0
15120,-55.875,-22.0625,21.625,0
15140,-46.25,-16.3125,24.4375,0
15160,-34.75,-11.0625,27.1875,0
15180,-26.875,-6.25,27.4375,0
15200,-26.5,-1.8125,28.0625,0
15220,-27.125,3.1875,30.25,0
15240,-25.75,7.5,33.3125,0
15260,-22.4375,11.5,33.375,0
15280,-21,16.25,29.5625,0
15300,-20,21,26.3125,0
15320,4,22.875,7,0
15340,26.6875,21.125,5.8125,0
15360,37.3125,25.9375,4.8125,0
15380,35.875,33.4375,-2.375,0
15400,14.875,36.3125,1.25,0
15420,-3.25,36.1875,-1.875,0
15440,-2.1875,34.125,-2.875,0
15460,8,31.0625,-9.3125,0
15480,-2.875,28.875,-14.0625,0
15500,-8.125,27.1875,-13.125,0
15520,2.5625,23.125,-14.375,0
15540,21.625,20.9375,-15.625,0
15560,33.1875,17.5625,-13.25,0
15580,25.6875,17.875,-11.75,0
15600,8.0625,17.875,-7.875,0
15620,-5.9375,17.375,-2.5,0
15640,-10.5,16.25,1.4375,0
15660,-5.3125,14.375,4.3125,0
15680,-2.25,13,4.25,0
15700,-6.875,11,4.75,0
15720,-14.6875,9.3125,7.625,0
15740,-20.125,8.4375,8.625,0
15760,-20.25,7.4375,10.1875,0
15780,-20.625,6.125,11.1875,0
15800,-24.6875,4.875,12.25,0
15820,-28.3125,2.9375,14.25,0
15840,-27.25,0.8125,13.875,0
15860,-23.8125,-2.0625,13.125,0
15880,-22.9375,-3.9375,12.625,0
15900,-25.3125,-4.4375,13.0625,0
15920,-30.3125,-5.5,15,0
15940,-39,-5.625,14.6875,0
15960,-40.375,-5.3125,13.375,0
15980,-35.75,-5.6875,15.8125,0
16000,-31.25,-5.125,17.4375,0
16020,-31.875,-2.9375,15.1875,0
16040,-30.8125,-1,14.5625,0
16060,-35.75,-1.0625,14.4375,0
16080,-35.8125,0.6875,13.0625,0
16100,-33.1875,0.6875,8.8125,0
16120,-27.75,0.5625,4.75,0
16140,-26.8125,-0.625,3.125,0
16160,-25.125,-2.9375,2.1875,0
16180,-20.9375,-6.3125,-0.0625,0
16190,-18.25,-8.9375,-3.0625,0
16210,-19.75,-11.1875,-5,0
16230,-24.5,-12,-4.5625,0
16250,-34,-8.0625,-4.125,0
16270,-31.4375,-13.0625,-3.8125,0
16290,-25.3125,-15.25,-5.875,0
16310,-22.6875,-16.5625,-4,0
16330,-20.0625,-18.5625,-4.9375,0
16350,-22.25,-22.6875,-4.75,0
16370,-23.0625,-24.1875,-5.375,0
16390,-27.75,-25.75,-4.1875,0
16410,-30.5,-27.625,-3.9375,0
16430,-29.875,-29.3125,-4.9375,0
16450,-24.25,-30.625,-5.6875,0
16470,-20.625,-29.25,-4.0625,0
16490,-18.375,-26.8125,-2.5,0
16510,-15.125,-25.1875,0,0
16530,-14.1875,-21.25,1,0
16550,-16,-15.625,2.3125,0
16570,-16.9375,-9.875,4.4375,0
16590,-15.1875,-6.1875,6.5,0
16610,-12.1875,-1.5625,5.5625,0
16630,-8.125,3,4.0625,0
16650,-4.5,7.3125,3.1875,0
16670,-3.375,12.125,5.0625,0
16690,-0.5,14.4375,8.375,0
16710,1.0625,17.4375,6.5625,0
16730,2.0625,21.125,3.3125,0
16750,-0.375,22.9375,3.125,0
16770,-4.6875,23.5625,3.5625,0
16790,-2.75,22.4375,2.25,0
16810,4.1875,19.9375,-0.5,0
16830,9.25,18.75,-2.8125,0
16850,9.5625,19.625,-5.4375,0
16870,10.25,18.8125,-5.25,0
16890,12.125,17.1875,-4.875,0
16910,15.1875,17.9375,-6.6875,0
16930,13.0625,18.5625,-5.375,0
16950,6,18.8125,-3.625,0
16970,-0.75,19.5625,-2.6875,0
16990,-3.8125,20.8125,-2.75,0
17010,-4.5625,22.5625,-3.625,0
17030,-3.25,22.625,-5.375,0
17050,-0.4375,22.625,-7.8125,0
17070,5.5,19.625,-6.75,0
17090,9.4375,15.9375,-7.6875,0
17110,11.0625,12.5,-10.875,0
17130,11.1875,6.1875,-11.3125,0
17150,11.125,0.8125,-13.75,0
17170,12.9375,-2.625,-14.875,0
17190,14.6875,-5.875,-12.25,0
17210,16.625,-9.8125,-12.625,0
17230,13.375,-12.625,-15.125,0
17250,5.125,-14.5,-14.5625,0
17270,-5.375,-12.5,-11.9375,0
17290,-9.9375,-8.625,-8.8125,0
17310,-13.75,-4.9375,-0.5,0
17330,-12.25,-2.5,3.4375,0
17350,-10.125,-1.5,5,0
17370,-1.6875,-2.5,10.375,0
17390,3.875,-2,11.8125,0
17410,6,-0.75,13.75,0
17430,11.875,0.4375,14.125,0
17450,14.5625,2.5625,8,0
17470,17.125,2.5,4.9375,0
17490,23,0.125,3.875,0
17510,31.375,0.5,1.0625,0
17530,37.25,1.8125,-0.6875,0
17550,37.3125,1.75,1.25,0
17570,30.75,1.4375,1.625,0
17590,24.125,3.25,3.75,0
17610,18.5,4.875,6.6875,0
17630,6.6875,7.6875,8.6875,0
17650,4.8125,9.375,10.5,0
17670,6.25,11.6875,10.875,0
17690,12.9375,14,7.9375,0
17710,20.5625,14.3125,8.1875,0
17730,27,15.625,8.9375,0
17750,26.5,18.1875,10.125,0
17770,25.125,16.375,11.0625,0
17790,26.5,10.6875,11.75,0
17810,26.75,4.25,10,0
17830,23.5625,-1.9375,9.25,0
17850,15.9375,-10.875,10.9375,0
17870,6.5,-18.9375,4.875,0
17890,13.75,-31.375,3.875,0
17910,17.125,-39.125,-5.6875,0
17930,20.4375,-45.25,-12.9375,0
17950,24.5,-52.1875,-17.625,0
17970,24.5,-55.75,-21.75,0
17990,21.0625,-55.875,-20.9375,0
18010,12.25,-52.875,-19.125,0
18030,-1.8125,-46.6875,-14.875,0
18050,-11.9375,-39.75,-9.5625,0
18070,-53.5,-22.25,-9.625,0
18090,-65.6875,-17.6875,-3.25,0
18110,-62.9375,-18.6875,-0.25,0
18130,-46.9375,-18.75,-0.8125,0
18150,-23.5,-14.375,-1.75,0
18170,-8.875,-7.3125,-0.25,0
18190,-5.3125,-0.9375,-0.375,0
18210,-2.9375,4.75,1.5625,0
18230,7.75,9.375,-2.8125,0
18250,24,11.5625,0.125,0
18270,33.3125,12.4375,5.5,0
18290,36.5,12.0625,10.0625,0
18310,34.6875,17.8125,6.125,0
18330,16.5625,24.25,5.75,0
18350,4.3125,27.875,7.9375,0
18370,7.5,29.5,9.5,0
18390,14,28.5625,8.375,0
18410,15.75,26.5625,6.4375,0
18430,15.8125,25.375,3.9375,0
18450,14.9375,23.125,1.4375,0
18470,13.25,20.3125,-0.75,0
18490,13.25,17.875,-3.4375,0
18510,12.5625,15.9375,-5.5,0
18530,13,14.625,-6.875,0
18550,13.625,13.0625,-7.1875,0
18570,13.875,11.6875,-8,0
18590,11.4375,9.625,-8.125,0
18610,8.5,6.8125,-8.1875,0
18630,8.5625,3.3125,-7.5625,0
18650,8.875,0.1875,-6.875,0
18670,8.0625,-2.875,-6.0625,0
18690,5.75,-5.9375,-4.75,0
18710,0.625,-7.9375,-3.0625,0
18730,-3.6875,-9.4375,-1.75,0
18750,-4.125,-11.25,0.0625,0
18770,-6.4375,-11.75,3.0625,0
18790,-16.75,-12,7.0625,0
18810,-25.875,-10.9375,10.6875,0
18830,-14.875,-4.625,13.375,0
18850,-34.125,-4.9375,17.3125,0
18870,-18.4375,-13.375,9.125,0
18890,-46.875,-9.1875,10.0625,0
18910,-35.375,-10.4375,8.375,0
18930,-25.9375,-8.8125,0.8125,0
18950,-12.9375,-10.25,-4.125,0
18970,0.6875,-14.3125,-9.0625,0
18990,7.9375,-13.75,-15.375,0
19010,8.625,-11,-17.125,0
19030,6.8125,-9.5,-17.4375,0
19050,4.875,-9.125,-15.875,0
19070,3.375,-7.6875,-14.875,0
19090,5,-6.375,-14.625,0
19110,9.1875,-4.125,-13.375,0
19130,16.3125,-2.25,-11.8125,0
19150,19.4375,-0.3125,-9.625,0
19170,16.25,2.875,-6.5,0
19190,9.875,5.5,-2.125,0
19210,2.5625,6.6875,2.625,0
19230,-2.625,9.25,7.5625,0
19250,-6.5625,11.625,11.0625,0
19270,-7.625,13,13,0
19290,-8.125,14.6875,13.875,0
19310,-5.125,17.5,12.8125,0
19330,-0.3125,17.3125,12.5625,0
19350,-2.5625,18.1875,11.875,0
19370,-7,17.1875,9.6875,0
19390,-6.8125,14.5,9.75,0
19410,-4.3125,13.875,7,0
19430,-1.5,11,5.8125,0
19450,-1,8.5625,3.1875,0
19470,-0.25,6.5625,0.1875,0
19490,0.625,5.5,-3.1875,0
19510,-0.1875,4.3125,-5,0
19530,-1.75,2.3125,-5.0625,0
19550,-2.4375,0.8125,-4.9375,0
19570,-0.4375,-0.4375,-5.375,0
19590,1.3125,-3,-5.375,0
19610,0.625,-3.6875,-4.3125,0
19630,-1.375,-4.75,-2.5625,0
19640,-1.4375,-5.8125,-1.875,0
19660,2.0625,-7.375,-1.375,0
19680,4.8125,-8.9375,-0.125,0
19700,4.375,-9.375,1.5625,0
19720,0.625,-9.5,1.6875,0
19740,0.9375,-10.125,2.4375,0
19760,3.375,-10.875,2.8125,0
19780,5,-10.6875,2.4375,0
19800,4.5625,-11.125,2.875,0
19820,3.5625,-10.625,3.25,0
19840,-0.625,-9.75,3.6875,0
19860,-8.8125,-6.3125,0.8125,0
19880,-3.8125,-5.3125,0.75,0
19900,-5,-4,1.75,0
19920,-6.75,-1.1875,2.3125,0
19940,-6.5625,1.3125,1.125,0
19960,-1.5,2.875,-0.375,0
19980,3.3125,2.5,-1.125,0
20000,4.4375,3.5625,-3.75,0
20020,2,5.5625,-4.625,0
20040,3,6.375,-4.5625,0
20060,5.375,5.6875,-3.1875,0
20080,0.8125,6.875,-2.8125,0
20100,-3,7.5625,-1.1875,0
20120,-3.375,7.625,-1.9375,0
20140,-0.4375,6.5,-0.125,0
20160,-0.625,7.9375,-0.6875,0
20180,-0.8125,8.375,-1.3125,0
20200,0.9375,7.8125,-1.25,0
20220,4.0625,7.75,-3.125,0
20240,7.4375,5.9375,-3.375,0
20260,7,5,-3.1875,0
20280,3.3125,3.8125,-4.3125,0
20300,2.125,1.9375,-3.25,0
20320,1.3125,1.1875,-3.25,0
20340,0.4375,0.375,-2.125,0
20360,-1.75,0.3125,-1.0625,0
20380,-4.25,0.625,-1.0625,0
20400,-5.0625,-0.1875,-0.375,0
20420,-7.625,-0.9375,1.4375,0
20440,-10.3125,-1.5625,1.8125,0
20460,-12,-3.5,5.1875,0
20480,-16.25,-1.625,-0.125,0
20500,-7.3125,-6.125,0.9375,0
20520,-3.6875,-8.8125,-0.5,0
20540,-6.25,-9.0625,-4.0625,0
20560,-2.8125,-11.875,-4.25,0
20580,-3.625,-14,-5.5,0
20600,-0.5,-15,-6.5,0
20620,4.9375,-15.8125,-7.25,0
20640,8.5625,-16.125,-8.3125,0
20660,8.375,-15.375,-8.3125,0
20680,7.5625,-13.375,-6.5,0
20700,6.25,-10.75,-4.4375,0
20720,5.625,-7.8125,-2.1875,0
20740,2.4375,-4.75,-0.875,0
20760,-0.6875,-1.375,-0.0625,0
20780,-4.3125,0.5,0.5625,0
20800,-7.125,1.3125,1.5625,0
20820,-10.25,5,2.0625,0
20840,-12.5625,10.1875,2.8125,0
20860,-14.75,15.625,5.125,0
20880,-18.875,21.375,6.3125,0
20900,-22.1875,24.9375,7.8125,0
20920,-25.25,28.8125,9.875,0
20940,-31.4375,31.375,12.25,0
20960,-40.625,35,13.75,0
20980,-45.25,36.5625,16.3125,0
21000,-43.25,36.625,17.0625,0
21020,-39.0625,35.1875,16.1875,0
21040,-31.625,31.5625,13.75,0
21060,-22.375,28.5,10.25,0
21080,-16,24,7.4375,0
21100,-14.375,18.0625,6.8125,0
21120,-16.0625,11.625,4.6875,0
21140,-14.875,5.3125,3.4375,0
21160,-15.375,-1.9375,4.25,0
21180,-16.1875,-7.625,5.5625,0
21200,-28.625,-15.875,11.5625,0
21220,-32.25,-21.5625,11.8125,0
21240,-52.5,-21.3125,0.625,0
21260,-39.875,-28.625,5.875,0
21280,-17.75,-32.3125,5.5,0
21300,-26.6875,-35.4375,1.9375,0
21320,-32.6875,-37.9375,6.5625,0
21340,-36.0625,-40.75,4.625,0
21360,-31.625,-39.5625,1.5,0
21380,-25.375,-38.9375,1.8125,0
21400,-15.625,-40.8125,2.5,0
21420,-12.4375,-39.8125,2.6875,0
21440,-15.25,-38.0625,2.5625,0
21460,-16.25,-35.5625,3.9375,0
21480,-18.0625,-36.25,1.6875,0
21500,-13.5,-34.125,-1.3125,0
21520,-11.875,-30.0625,1,0
21540,-14.6875,-24.9375,3.75,0
21560,-15.5,-23.375,1.6875,0
21580,-12.3125,-22.4375,-1.25,0
21600,-11.75,-22.6875,-5.9375,0
21620,-6.8125,-20.5,-8.9375,0
21630,-0.5625,-17.125,-12.625,0
21650,6.25,-10.625,-15.5,0
21670,13.8125,-4,-15.8125,0
21690,17.625,3.9375,-16.3125,0
21710,13.875,16.0625,-17,0
21730,5.1875,26.5625,-15.4375,0
21750,1.5625,31.5625,-12.3125,0
21770,3.3125,34.75,-7.4375,0
21790,9.875,39.375,-7.3125,0
21810,12.625,44.0625,-5.4375,0
21830,15.9375,47.5625,-1.8125,0
21850,10.5625,49.375,-2.625,0
21870,9,50.25,-3.375,0
21890,9.5625,48.3125,-3.1875,0
21910,11,44.875,-5.125,0
21930,17.75,44.625,-7.0625,0
21950,23,42.25,-11.8125,0
21970,24.3125,40.6875,-15.8125,0
21990,26,35.9375,-14.5625,0
22010,28.6875,30.1875,-15.5,0
22030,25.1875,26.0625,-17.625,0
22050,23.75,21.375,-17,0
22070,20.6875,15.25,-16.5625,0
22090,18.9375,10.0625,-16.25,0
22110,15.375,4.25,-15.8125,0
22130,10.125,-0.4375,-15.4375,0
22150,5.4375,-5.75,-14.125,0
22170,3.375,-11,-11.0625,0
22190,4.0625,-14.3125,-13.8125,0
22210,5.375,-15.375,-13.625,0
22230,7.6875,-19.3125,-11.875,0
22250,4.875,-20.375,-11.75,0
22270,5.5625,-22.125,-11.625,0
22290,9.75,-23.8125,-11.6875,0
22310,15.9375,-25.625,-13.5,0
22330,17.0625,-26.8125,-16.3125,0
22350,15.125,-27.5625,-19.5625,0
22370,11.5,-27.4375,-21.6875,0
22390,12.75,-26.125,-22.8125,0
22410,14.125,-23.375,-24.875,0
22430,17.4375,-22.375,-26,0
22450,13.4375,-20.5625,-27.4375,0
22470,11.1875,-20,-28.5625,0
22490,15.4375,-18.4375,-31.375,0
22510,21.9375,-15.625,-33.8125,0
22530,25.6875,-13.875,-33.625,0
22550,21.0625,-12.5,-33,0
22570,17.4375,-9.875,-30.75,0
22590,16.75,-7.4375,-30.0625,0
22610,20.5,-5.6875,-29.125,0
22630,24.5625,-4.5,-27.6875,0
22650,29.125,-3.0625,-24.75,0
22670,29.25,-1.75,-21.3125,0
22690,25.4375,0.75,-17.25,0
22710,43.375,10.0625,-14.125,0
22730,14,8,-3.5625,0
22750,29.4375,9.9375,-1.625,0
22770,-0.8125,17.6875,0.375,0
22790,1.125,20.9375,10.375,0
22810,4.5625,23.6875,12.8125,0
22830,1.6875,30.0625,15.4375,0
22850,4.4375,29.875,19.375,0
22870,6.3125,31.0625,18.0625,0
22890,10.1875,34.625,18.0625,0
22910,15.0625,36.75,18.625,0
22930,22.75,36.4375,17.75,0
22950,21.5625,33.375,20.3125,0
22970,14,31.1875,21.1875,0
22990,2.5,26.125,24.8125,0
23010,-1.8125,22.75,26.3125,0
23030,-2.5,19.375,25.3125,0
23050,-1.1875,15.8125,26.25,0
23070,0.0625,11.875,27.625,0
23090,-3.4375,9.5,25.875,0
23110,-3.8125,8.375,23.625,0
23130,-1.4375,3.4375,22.5625,0
23150,2.5625,-1.4375,18.5625,0
23170,6.375,-5.4375,14.1875,0
23190,7.9375,-9.5625,8.4375,0
23210,10,-11.625,1.5625,0
23230,15.3125,-11.8125,-5.25,0
23250,21.1875,-13.75,-4.125,0
23270,13.8125,-14.5625,-2.9375,0
23290,-0.0625,-12.1875,-9.875,0
23310,-2.6875,-10.25,-9.875,0
23330,-1.4375,-10.75,-8.25,0
23350,-0.5,-12.75,-9,0
23370,-1.625,-15.125,-8.25,0
23390,-5.625,-19.125,-9.5625,0
23410,-5.9375,-22.875,-12.875,0
23430,-8.5625,-32.8125,-15,0
23450,9.875,-43.25,-19,0
23470,23.3125,-55.1875,-21.8125,0
23490,19,-66.25,-22.5625,0
23510,2.9375,-79.3125,-19.5625,0
23530,0.1875,-86.875,-28.5625,0
23550,11.25,-101,-28.5625,0
23570,8.1875,-112.438,-24.9375,0
23590,-3,-112.812,-27.4375,0
23610,-11.25,-113.125,-29.5625,0
23630,-13,-117.625,-30.8125,0
23650,-7.5,-124.312,-33.75,0
23670,3.75,-133.75,-33.6875,0
23690,0,-140.5,-34.5625,0
23710,-12.9375,-149.75,-39.8125,0
23730,-10.875,-165.375,-47.5625,0
23750,2.125,-181.312,-47.0625,0
23770,1.5,-191,-52.6875,0
23790,-7.6875,-199.25,-60.0625,0
23810,-6.6875,-216.688,-61.625,0
23830,9,-236.375,-60.5625,0
23850,23.75,-268.625,-58.25,0
23870,-12.5625,-252.125,-63.1875,0
23890,-3.6875,-280.375,-70.6875,0
23910,12.0625,-297.562,-61.25,0
23930,2.1875,-291.188,-66.1875,0
23950,-7.3125,-309.938,-80.9375,0
23970,-2.75,-319.125,-75.3125,0
23990,-4.0625,-310.812,-69.1875,0
24010,-12.75,-298.5,-76.4375,0
24030,-27.625,-286.312,-71.5625,0
24050,-22.0625,-280.125,-59.9375,0
24070,-19.6875,-260.5,-50.625,0
24090,-35,-230.562,-44.75,0
24110,-40.9375,-208.062,-38.8125,0
24130,-30.125,-191.062,-24,0
24150,-16.375,-165.812,-16.25,0
24180,-7.4375,-124.75,-8.5,0
24200,-5.3125,-94.125,-11.8125,0
24220,-12.25,-76,-9.4375,0
24240,-2.5625,-64.125,-9.9375,0
24260,5.0625,-53.375,-6.75,0
24280,6.375,-42.5,-5.4375,0
24300,5.0625,-33.5,-4.5625,0
24320,6.8125,-25.0625,-3.9375,0
24340,11.875,-21.875,-4.5,0
24360,17.0625,-17.3125,1.3125,0
24380,30.75,-14.875,9.6875,0
24390,32.0625,-9.125,3.6875,0
24410,22.25,-3.125,3.1875,0
24430,19.625,-1.25,6.6875,0
24450,17.25,-2.3125,10.25,0
24470,13.3125,-4.6875,8.625,0
24490,9.1875,-9.125,8.3125,0
24510,7.9375,-13.75,8.3125,0
24530,4.5625,-16.4375,4,0
24550,1.9375,-15.8125,-1.5,0
24570,4.9375,-20.125,-4.625,0
24590,2.4375,-21.625,-6.25,0
24610,-0.125,-24.125,-10.0625,0
24630,-1.75,-26.6875,-8.6875,0
24650,0.625,-26.3125,-6.125,0
24670,-1.0625,-23.9375,-2.8125,0
24690,0.75,-20.8125,3.4375,0
24710,8.6875,-14.0625,5.875,0
24730,-0.875,-4.375,0.0625,0
24750,-1,-7.9375,7.5,0
24770,3.375,-11.8125,4.875,0
24790,-3.1875,-11.75,-1.625,0
24810,-6.25,-4.8125,-3.3125,0
24830,-12.4375,3.125,-0.75,0
24850,-9.4375,6.375,2.5,0
24870,-7.5625,9.375,6.4375,0
24890,-8.625,11.75,5.875,0
24910,-8.6875,18.4375,2.1875,0
24930,-11.8125,23.4375,-1.8125,0
24950,-12.25,20.5,-3.6875,0
24970,-7.75,10.875,-5.125,0
24980,-8.4375,6.8125,-7.9375,0
25000,-6.375,7.875,-10.5,0
25020,-6.8125,6.4375,-12.1875,0
25040,-5.5625,5.25,-9.375,0
25060,0.8125,-4.625,-6.5625,0
25080,7.75,-16.9375,-5.125,0
25100,7.5625,-21.25,-6.6875,0
25120,3.5,-16.375,-9.9375,0
25140,-2.375,-13.625,-15.5,0
25160,-4.375,-9.75,-15.4375,0
25180,-6.1875,-10.6875,-13.625,0
25200,-8.125,-15.25,-10.75,0
25220,-4.125,-14,-3.1875,0
25240,-2.1875,-9.625,1.125,0
25260,-0.1875,-8.5,3.5625,0
25280,1.3125,-5.75,5.9375,0
25300,-1.3125,-4.75,3,0
25320,-4.5,-6.0625,-0.25,0
25340,-5.0625,-3.875,-0.875,0
25360,-5.625,0.0625,-1,0
25380,-7.25,6.25,-0.0625,0
25400,-7.5,5.5625,0.125,0
25420,-2.6875,5.4375,0.3125,0
25440,0,4.375,3,0
25460,3.375,-0.125,6.625,0
25480,4.25,-5.3125,4.75,0
25500,2.8125,-6.5625,2.0625,0
25520,2.6875,-4.625,3.125,0
25520,8.1875,0.0625,5.8125,0
25540,7.125,4.75,6.8125,0
25560,4.3125,5.4375,4.375,0
25580,2.75,5.75,2.875,0
25610,1.125,7.625,1.1875,0
25630,0,3.25,1.4375,0
25650,-1.3125,-1.125,0.875,0
25670,0.5,-0.9375,2.4375,0
25700,0.375,5.875,4.4375,0
25710,1.8125,3.5,4.1875,0
25730,5.625,1.5,4.6875,0
25740,8,2.75,6.4375,0
25760,5.5,3.8125,3.8125,0
25780,3.625,1.625,0.5625,0
25800,2.9375,-0.0625,-0.0625,0
25820,2.8125,1.875,-0.0625,0
25840,1.8125,2.5625,-1.8125,0
25860,3.3125,1.8125,-2.3125,0
25880,3.125,5.3125,-1.6875,0
25900,2.3125,13,-0.5,0
25920,0.6875,14.75,-1.6875,0
25940,-1.625,13.5625,-5.625,0
25960,-3.3125,13.5625,-7.75,0
25980,-4.5,12.625,-6.5625,0
26000,-5.125,9.9375,-5.6875,0
26020,-4.4375,6.625,-3.75,0
26040,-4.8125,4.75,-2.375,0
26060,-3.5,3.8125,0,0
26080,-2.625,-2.1875,1.3125,0
26100,-1.3125,-9,1.8125,0
26120,0.9375,-10,1.875,0
26140,-0.5,-8.1875,1.375,0
26160,-1.625,-10.6875,-0.0625,0
26180,0.625,-7.1875,0.5,0
26200,0.9375,-1.875,1.75,0
26220,1.8125,-7,1.9375,0
26240,-0.375,-18.3125,-2.6875,0
26260,0.125,-8.25,-5.8125,0
26280,-4.9375,4.875,-8.5,0
26300,-3.9375,8.5625,-5.5625,0
26320,-0.1875,9.9375,-2.1875,0
26340,1.8125,8.8125,0.375,0
26360,2.5,7,1.75,0
26380,2.9375,3.125,0.5,0
26400,2.5,1.0625,-1.375,0
26420,4.4375,5.4375,-1.3125,0
26440,4.8125,11.5,0.875,0
26460,3.5,8.5,-0.0625,0
26480,4.5,3.75,-2.5625,0
26500,0.625,4.875,-5.375,0
26520,-2.9375,8.125,-6.125,0
26540,-0.9375,7.3125,-4,0
26560,0.4375,5.375,-2.6875,0
26580,0.875,2.5625,-0.875,0
26600,1.6875,-0.3125,0.8125,0
26620,1.875,0.625,2,0
26640,0.1875,2.875,1.5,0
26660,-1.75,2.5,-0.3125,0
26680,-3.5625,0.875,-1.25,0
26700,-4.1875,-0.0625,-1.625,0
26720,-4.25,-0.25,-1.0625,0
26740,-3.0625,-0.1875,0.1875,0
26760,-1.4375,-0.5,1,0
26780,-0.5625,-0.0625,1.5625,0
26800,0.1875,-0.0625,1.4375,0
26820,1.375,-0.625,1.125,0
26840,1.125,-2.375,0.375,0
26860,1.875,-4.5,1,0
26880,3.125,-3.125,1.875,0
26900,3.125,1.1875,2.0625,0
26910,1.25,3.0625,2.625,0
26930,1.8125,1.75,4.25,0
26950,2.75,1.375,6.6875,0
26970,1.5625,1.6875,7.875,0
26990,0.4375,4.4375,8.4375,0
27010,4.4375,8.125,9.375,0
27030,6.5625,11.3125,10.4375,0
27050,6,13.3125,8.8125,0
27070,5.25,8.625,4.4375,0
27090,11.4375,0.8125,5.3125,0
27110,13.1875,-1.4375,0.6875,0
27130,10.5625,-9.6875,-4.8125,0
27150,8.4375,-13.9375,-9.0625,0
27170,7.25,-4.8125,-9.4375,0
27190,5.375,3.125,-7.6875,0
27210,6.8125,3.3125,-4.3125,0
27230,4.625,1.8125,-1.8125,0
27250,1.875,0.8125,-1.8125,0
27270,0.0625,0,-2.875,0
27290,-0.6875,0.3125,-4.375,0
27310,-1.75,0.4375,-3.75,0
27330,-2.4375,0.8125,-2.1875,0
27350,-4.125,0.875,-1.6875,0
27370,-6.8125,0.5625,-2.625,0
27390,-8.375,0.8125,-3.3125,0
27410,-8.6875,-1.3125,-2,0
27430,-6.0625,-3.125,0.5,0
27450,-5.8125,-5.9375,0.75,0
27470,-3.4375,-8.75,0,0
27490,-1.125,-10.4375,0.5,0
27510,-2.125,-8.75,-1.25,0
27530,-3.9375,-4.9375,-4.5625,0
27550,-5,-0.5,-5.625,0
27570,-3.0625,2.25,-3.6875,0
27590,-1.625,12.4375,0.0625,0
27610,4.4375,18.25,7.875,0
27630,4.125,14.3125,8.5,0
27650,6.5625,2.75,6.9375,0
27670,11.375,-1.3125,5.5625,0
27690,6.4375,4.875,0.5625,0
27710,2.8125,8.5,-2.375,0
27730,2.8125,7.8125,-3.9375,0
27750,1.625,3.8125,-4.8125,0
27770,3.375,0.75,-3.5625,0
27790,3.6875,1,-3.0625,0
27810,4.1875,0.875,-3.25,0
27830,4.0625,-0.5625,-2.625,0
27850,2.75,-1,-2.75,0
27870,0.3125,-1.625,-3.5625,0
27890,-1.25,-2.3125,-2,0
27910,-2.6875,-1.9375,0.375,0
27930,-4.3125,0.4375,1.9375,0
27950,-5.375,2.25,2.375,0
27970,-7.0625,1.75,2.5,0
27990,-7.5625,2.625,2.25,0
28010,-8.5625,4.3125,1.5625,0
28030,-7.75,3.5,1.125,0
28050,-5.5625,1.1875,0.4375,0
28070,-3.875,1.4375,0,0
28090,-4.3125,2.75,-0.4375,0
28110,-4.125,4.3125,-1,0
28130,-3.9375,7.125,-2.0625,0
28150,-4.1875,8.6875,-4.0625,0
28170,-3.125,10.1875,-3.8125,0
28190,-4.125,12.0625,-3.875,0
28210,-4.0625,14.5625,-2.9375,0
28230,-2.6875,17.5625,-3,0
28250,-4.9375,23.8125,-6.25,0
28270,-5.4375,29.9375,-7.75,0
28290,0.25,36.875,-4.5625,0
28310,5.125,42.375,-0.375,0
28330,7.25,44.1875,-2.6875,0
28350,8.625,43.875,-4.25,0
28370,14.5625,44.5625,0.3125,0
28390,18.4375,45.0625,3.375,0
28410,15.625,44.5625,3.9375,0
28430,11.25,46,2.875,0
28450,8.8125,43.6875,2.1875,0
28470,8.1875,36.625,2.3125,0
28490,5.4375,24.75,1.0625,0
28510,2.75,14.5625,-1.5625,0
28530,1.5625,7.125,-3.6875,0
28550,-1.3125,2.375,-5.5625,0
28570,-2.0625,0.3125,-5.9375,0
28590,0.9375,0.0625,-5.1875,0
28610,2.75,1.5,-4.375,0
28630,4.5625,5.5,-3.9375,0
28650,8.3125,11.6875,-2,0
28670,13.5625,18.875,2.3125,0
28690,17.0625,25.875,6.3125,0
28710,20.875,34.5,8.625,0
28730,24.625,44.125,10.8125,0
28750,26.875,55,15.4375,0
28760,32.625,68.25,22.4375,0
28770,42.5,85.125,27.4375,0
28790,56.1875,102.438,34.125,0
28810,68,121.062,43.9375,0
28830,82.75,143.75,55.625,0
28850,95.375,165.5,67.75,0
28870,103.812,189.625,84.9375,0
28890,112.375,216.812,93.875,0
28910,110.25,237.625,108.688,0
28930,116,243.938,96.5,0
28950,73.9375,235.375,116.312,0
28970,85.875,193.75,91.625,0
28990,82.75,167.5,93.375,0
29010,87.75,145.812,86.625,0
29030,70.75,127.438,76.9375,0
29050,69.75,109.562,67.3125,0
29070,52.1875,91.4375,64.8125,0
29090,41.25,82.9375,61.0625,0
29110,38.25,70.5,41.9375,0
29130,25.25,56.8125,39.875,0
29150,23.3125,41.3125,25.75,0
29170,18,29.0625,26.75,0
29190,27.5625,26.625,25.9375,0
29210,25.25,31.9375,20.8125,0
29230,24.5,36.3125,19.25,0
29250,17.875,41.625,21.625,0
29270,14.875,43.25,23.4375,0
29290,22.875,44.5625,21.25,0
29310,20.625,47.25,19.6875,0
29330,16.125,47.25,24.8125,0
29350,15.125,54.5625,29.8125,0
29370,-12.9375,67.6875,22.6875,0
29390,7.4375,63.1875,40.6875,0
29410,12.6875,66.0625,48.375,0
29420,28.4375,61.625,49.9375,0
29440,38.25,57.75,58.375,0
29460,48.4375,51.25,48.875,0
29480,34.375,41.1875,23.125,0
29490,13.875,31.75,-0.625,0
29510,6.5625,20.6875,-31.875,0
29530,30.625,12.125,-30.625,0
29550,19.75,10.25,-26.5625,0
29570,-7.5625,10.9375,-22.4375,0
29590,-11.125,9.9375,-23.25,0
29610,5.3125,7.1875,-18,0
29630,17.6875,5.9375,-17.875,0
29650,19.625,4.75,-17.8125,0
29670,19.5625,3.9375,-17.375,0
29690,16.9375,2.375,-17.3125,0
29710,10.375,2.8125,-15.125,0
29730,-0.6875,-2.1875,-15.625,0
29750,-7.9375,-2.625,-11.625,0
29770,-12.25,0.3125,-8.75,0
29790,-12.75,0.3125,-4.1875,0
29810,-13,-1.25,-1.625,0
29830,-11.0625,-1.375,-1.625,0
29850,-18.625,1.3125,-2.25,0
29870,-24.4375,-1.1875,-7.0625,0
29890,-23.1875,-0.1875,-15.3125,0
29910,-35.5,-7.875,-22.75,0
29930,-42,-14.8125,-20.25,0
29950,-61,-29.3125,-19.9375,0
29970,-78,-46,-34.1875,0
29990,-83.9375,-76.4375,-53.0625,0
30010,-96.625,-100,-65.6875,0
30030,-112.062,-134.875,-91.9375,0
30050,-114,-164.625,-109.688,0
30070,-130.062,-193.25,-129.312,0
30090,-133.812,-224.375,-147.125,0
30110,-121.625,-250.5,-162.188,0
30130,-118.938,-265.938,-169.938,0
30150,-123.688,-278.562,-173.125,0
30170,-134.25,-272.25,-164.25,0
30190,-133.938,-268.938,-161,0
30210,-121.188,-257.75,-153.812,0
30230,-103.375,-246.312,-136.688,0
30250,-88.125,-229.812,-116.312,0
30260,-79.3125,-214.188,-96.1875,0
30280,-65.1875,-192.562,-71.625,0
30300,-45,-169.062,-45.5625,0
30320,-28.9375,-145.938,-26.125,0
30340,-21.9375,-119.25,-9.3125,0
30360,-13.3125,-95.5625,-1.5625,0
30380,-11.3125,-78.3125,4.9375,0
30400,-7.3125,-63.125,11.75,0
30420,-2.5,-44.75,13.1875,0
30440,-2.875,-26.1875,4.125,0
30460,-0.625,-8.5,-7.4375,0
30480,-2.4375,-2.125,-9.9375,0
30500,-1.5625,-9.1875,-6.1875,0
30520,-0.1875,-16.0625,-8.375,0
30540,-0.5,-21.5,-10.4375,0
30560,-0.25,-21.6875,-9.6875,0
30580,-0.625,-17.9375,-7.1875,0
30600,-3.0625,-11.875,-6.0625,0
30620,-6.0625,-10.25,-8.625,0
30640,-6.625,-10.8125,-9.5,0
30660,-6.25,-11.8125,-14.1875,0
30680,-12.75,-10.75,-13.5,0
30700,-10.0625,-9.1875,-8.375,0
30720,-9.125,-6.9375,-2.8125,0
30740,-6.125,-7.5,1.1875,0
30760,-1.0625,-10.8125,3.6875,0
30780,1.1875,-11,4.5,0
30800,1,-13.125,4.375,0
30820,-0.25,-12.8125,2.6875,0
30840,-0.0625,-10.625,0.6875,0
30860,-2.875,-5.6875,0.875,0
30880,0.0625,-3.4375,-3.25,0
30900,4.0625,-6.125,-6.1875,0
30920,4,-6.8125,-5.0625,0
30940,-3.4375,0.3125,0.5,0
30960,0.5,3.9375,3.625,0
30980,0.8125,6.1875,4.1875,0
31000,-7.25,5.5,3.6875,0
31020,-13.875,-5,-0.1875,0
31040,-6.4375,-2,9.1875,0
31060,-6.875,8.125,3.125,0
31080,-15.375,18.25,-0.8125,0
31100,-25,21.9375,-1.5625,0
31120,-43,18.0625,-6.375,0
31140,-54.4375,4.125,-11.625,0
31160,-64.3125,-12.9375,-17.375,0
31180,-74.25,-27.8125,-19.1875,0
31200,-86.3125,-37.6875,-21.375,0
31220,-96.125,-46.875,-24.125,0
31240,-92.1875,-62.875,-29.125,0
31260,-102.688,-80.5,-24,0
31280,-101.312,-97.9375,-20.75,0
31300,-103.625,-101.375,-18.4375,0
31320,-100.188,-94.4375,-17.8125,0
31340,-93.125,-82.5,-12.75,0
31360,-73.875,-56.25,3.125,0
31380,-75.5625,-34.6875,12,0
31400,-60,-26.5,20,0
31420,-47.25,-26.5,15.5625,0
31440,-53.9375,-22.75,10.0625,0
31460,-52.3125,-3.75,3.3125,0
31480,-44.875,14.375,-2.375,0
31500,-34.875,32.1875,-12.625,0
31520,-33.0625,46.0625,-19.5625,0
31540,-21.75,58.0625,-11.5625,0
31560,-9.6875,60.0625,-3.3125,0
31580,-7.25,59.75,-2.1875,0
31600,-5.875,62.8125,1.6875,0
31620,0.1875,64.125,15.3125,0
31640,7.9375,70.625,35.5,0
31660,8.4375,87.3125,54.5,0
31680,-2.375,109.062,75.0625,0
31700,-17.4375,116.688,98.25,0
31720,-24.8125,117.812,112.062,0
31740,-32.75,123.5,120.562,0
31760,-49,121.812,120.125,0
31780,-68.5625,112.125,121,0
31800,-67.5,98.875,124.688,0
31820,-54.8125,82.75,124.562,0
31840,-60.0625,76.9375,136.375,0
31860,-49.625,78.875,158.375,0
31880,-36.875,69.1875,169.5,0
31900,-17.4375,54.25,148.875,0
31920,26.6875,35.0625,114.875,0
31940,58.375,40.0625,75.75,0
31960,93.875,48.3125,23.5,0
31980,135.688,20.875,-10.0625,0
32000,146.375,4.25,-13.125,0
32020,153.625,0.8125,-49.9375,0
32040,144.375,-14.5,-92.125,0
32060,157.5,-30.6875,-113.688,0
32080,191.375,-48.3125,-126.812,0
32100,213.062,-59.875,-142.562,0
32120,188.562,-61.5625,-136.688,0
32140,164.5,-53.25,-112.312,0
32160,162.5,-34.5,-103.312,0
32180,144.312,-20.4375,-101,0
32200,119.188,-10.6875,-74.9375,0
32220,111.25,8.4375,-37.5625,0
32240,99.4375,-1,-11.375,0
32260,66.875,-5.625,-4,0
32270,26.125,10.5625,17.9375,0
32290,-8.125,25.6875,31.6875,0
32310,-37.125,25.8125,46.0625,0
32330,-60.375,24.75,49.3125,0
32350,-82.375,22.9375,45.25,0
32370,-101,25.125,45.875,0
32390,-110.688,30.1875,39.1875,0
32410,-111.875,38.5,26.8125,0
32430,-116.188,44,15.4375,0
32450,-109.812,50.875,12.5,0
32470,-109.875,53.75,11.5625,0
32490,-97.125,59.25,21.9375,0
32510,-82.8125,58.0625,36,0
32530,-61.75,51.25,41.0625,0
32550,-43.125,39.375,43.25,0
32570,-23.5,36.125,47,0
32590,-7.5,32.8125,49.375,0
32610,8.875,35.1875,56.4375,0
32630,21.5625,37.6875,54,0
32650,37.875,33.4375,36.25,0
32670,60.3125,26.6875,22,0
32690,66.6875,29,22.875,0
32710,61.9375,33.875,26.25,0
32730,57.5,32.125,20.9375,0
32750,57.4375,25.75,16.1875,0
32770,55.9375,17.5,18.0625,0
32790,55.9375,16.4375,18.0625,0
32810,54.4375,17.8125,14.5,0
32830,43.75,11.8125,18.75,0
32850,34.625,5.1875,14.75,0
32870,26.875,-3.3125,1.875,0
32890,16.5,-10.4375,-0.375,0
32910,5.4375,-15.625,-1.875,0
32930,2.5625,-26.375,-1.4375,0
32950,-2.8125,-42.6875,0.875,0
32970,0.875,-48.9375,-1.8125,0
32990,4.625,-51.25,-2.125,0
33010,-2.125,-49.1875,-4,0
33030,-9.6875,-45.5,-0.8125,0
33050,-3.75,-46.375,-1.5625,0
33070,1.125,-58.5625,-5.625,0
33090,10.9375,-72.0625,-10.6875,0
33110,14.5,-78.1875,-7.125,0
33130,6.6875,-83.9375,-5.625,0
33150,2.25,-87.625,-7.3125,0
33170,5.125,-94.0625,-4.4375,0
33190,5.6875,-101.188,-5.8125,0
33210,13.6875,-104.062,-7.5625,0
33230,12,-105.188,-3.375,0
33250,2.9375,-96.0625,-0.3125,0
33270,-1.375,-88.375,5.8125,0
33290,5.0625,-70.4375,6.5625,0
33310,22.0625,-47.5,2.375,0
33330,1.375,-36.1875,-2.8125,0
33350,-5.625,-42.375,-6.5,0
33370,-1.625,-48.75,-8.4375,0
33390,-11.125,-49.1875,-7.9375,0
33410,-13.5625,-49.625,-1.0625,0
33430,-3,-56.75,5.875,0
33450,0.9375,-54,7.875,0
33470,4.6875,-49.4375,6.5625,0
33490,0.5,-41.125,-4.375,0
33510,-6,-36.0625,-4,0
33530,-13.125,-26.5,-1,0
33550,-8.5,-28.375,1.625,0
33570,-7.9375,-37.375,3.5,0
33590,-5.875,-43,3.25,0
33610,-8.375,-41.25,0.375,0
33630,-10.0625,-36.1875,-1.3125,0
33650,-10.6875,-30.75,-3,0
33670,-12.25,-28.625,-4.5,0
33690,-11.5,-28.1875,-4.8125,0
33710,-9.5625,-24.8125,-4.75,0
33730,-5.125,-23.3125,-3.9375,0
33750,-6.625,-17.625,-2.25,0
33770,-6.25,-10.1875,-1.125,0
33790,-3.75,-5.375,0.375,0
33810,-2,-6.0625,3.875,0
33830,0.1875,-7.5,7.625,0
33870,5.3125,-3,6.75,0
33890,6.5625,-1.1875,4.625,0
33910,6.3125,5.1875,3.8125,0
33930,8.6875,14.25,0.625,0
33950,15.0625,23.875,-1.5,0
33970,21.4375,31.1875,-0.0625,0
33990,29.9375,35.3125,3.125,0
34010,36.9375,40.9375,6.0625,0
34030,41.0625,53.0625,3.9375,0
34050,45.1875,68.5625,0.3125,0
34070,50.6875,86.3125,-0.875,0
34090,57.4375,93.0625,0.125,0
34110,63.4375,104.562,1.0625,0
34130,68.6875,121.438,3.875,0
34150,74.375,138.75,9.8125,0
34170,82.0625,142.75,17.625,0
34190,79.875,146.75,19.1875,0
34210,74.625,152,25.75,0
34230,73.0625,154.5,36.625,0
34250,73.25,156.562,48.9375,0
34270,69.8125,159.25,59.75,0
34290,62.5,157.562,56.75,0
34310,50.875,154.938,67.375,0
34330,40.1875,156.562,73.9375,0
34350,26.1875,143.875,88.125,0
34370,21.3125,134.062,67.75,0
34390,12.375,122.25,63.5,0
34410,-3,133.125,69.4375,0
34430,-9.75,120.25,76.75,0
34450,-6.75,102.688,53.75,0
34470,-21,80.5,39.1875,0
34490,-14.5625,62.125,49.5,0
34510,5,49.9375,39.125,0
34530,9.9375,44.3125,23.1875,0
34550,-2.5625,41,30.9375,0
34570,-13.625,28.8125,37,0
34590,-9.1875,17.5,30.8125,0
34610,-4.3125,2.9375,30.875,0
34630,-0.6875,-13.6875,24.5625,0
34650,1.8125,-24,14.875,0
34670,-3.375,-28.25,3.9375,0
34690,-3.3125,-36.1875,-2.8125,0
34710,5.5,-49,-8.5,0
34730,15,-57.5625,-14.8125,0
34750,8.1875,-67.0625,-14.625,0
34770,1.875,-72.875,-5.375,0
34790,-17.6875,-72.625,-2.75,0
34810,-10.25,-85.125,-6.375,0
34830,5.25,-94.5,-7.8125,0
34850,4.5625,-91.875,-10.375,0
34870,10.125,-85.8125,-7.25,0
34890,15.5625,-79.5625,-5.5625,0
34910,23.0625,-75.25,-0.125,0
34930,29.25,-64.625,11.3125,0
34950,22.75,-49.1875,16.8125,0
34970,20.25,-33.3125,13.5625,0
34990,7.875,-22.9375,8.0625,0
35010,18.3125,-24.5625,6.375,0
35030,32.3125,-23.125,12.625,0
35050,19.1875,-10.875,8.375,0
35070,18.0625,-6.9375,-2.9375,0
35090,45.8125,-18,-13.875,0
35110,51.625,-24.0625,-32.125,0
35130,52.9375,-11.125,-41.3125,0
35150,44.75,1.5625,-36.6875,0
35170,21.125,-3.125,-33.9375,0
35190,-6.125,2.25,-24.9375,0
35210,-19.4375,6.1875,-15.3125,0
35230,-18.6875,-3.5625,-18.6875,0
35250,-0.8125,-8.4375,-21.1875,0
35270,-4.375,-8.9375,-15.5625,0
35290,-17.9375,2.5,-17.75,0
35310,-21.3125,2.125,-23.5625,0
35330,-18.5625,4.0625,-22.25,0
35350,-16.6875,7.25,-22.1875,0
35370,-17.8125,10.625,-30.625,0
35390,-23,12,-28.75,0
35410,-18.5625,13.125,-28,0
35430,-25.125,15.75,-34.375,0
35450,-24.3125,17.6875,-40.375,0
35470,-21.25,20.25,-44.4375,0
35490,-8.5625,15.125,-38.0625,0
35510,-1,14.375,-32.8125,0
35530,-5.5625,15.9375,-29.8125,0
35550,-10.1875,15.1875,-28.8125,0
35570,-5.1875,13.625,-32.375,0
35590,-0.125,13.125,-30.75,0
35610,6.625,11.5,-31.3125,0
35630,4.625,24.4375,-39.5625,0
35650,0.1875,26.75,-32.3125,0
35670,22.375,8.5,-20.875,0
35680,31.4375,1.1875,-23.9375,0
35700,19.375,8.9375,-23.0625,0
35720,8.5,10.6875,-11,0
35740,18.0625,9.375,-7.875,0
35760,25.5625,1.8125,-10.8125,0
35780,25.5,-6.1875,-1.125,0
35800,25,-11.5625,3.9375,0
35820,19.8125,-7.6875,-0.25,0
35840,17.1875,-6.4375,-1.9375,0
35860,14.8125,-11,-1.1875,0
35880,14,-12.75,0.625,0
35900,7.8125,-10.4375,2.9375,0
35920,3.3125,-10,2.0625,0
35940,-2.0625,-10.75,-1.75,0
35960,3.5,-10.4375,-3.25,0
35980,-0.0625,-6.75,-6.4375,0
36000,-1.0625,-1.625,-8.25,0
36020,-1.8125,-3.9375,-6.125,0
36040,-2.375,-1.3125,-4.6875,0
36060,-0.5625,-1.5625,-6,0
36080,-0.6875,1.0625,-7.8125,0
36100,-1.25,1.375,-7.75,0
36120,-0.3125,3.0625,-9.625,0
36140,4,-1.875,-12.6875,0
36160,3.375,-4.5,-13.25,0
36180,1.0625,-7.875,-11.9375,0
36200,-4.9375,-4.5,-12.25,0
36220,-6.6875,-11.25,-10.625,0
36240,-8.125,-6.375,-8.125,0
36260,-10.375,-2.8125,-9.1875,0
36280,-10.25,1.9375,-7.3125,0
36300,-10.25,-0.625,-7.0625,0
36320,-6.8125,-1.4375,-9.625,0
36340,-7.75,-0.875,-9.875,0
36360,-6.125,-5.75,-10.5625,0
36380,-3.25,-2.8125,-9.0625,0
36400,-3.875,-6.3125,-4.1875,0
36420,-4.1875,-11.5625,0,0
36440,1.5,-13.5,-2.1875,0
36460,2,-9.0625,-3.0625,0
36480,-1.1875,-3.8125,-3.6875,0
36500,-3.875,-1.4375,-6.1875,0
36520,-6.8125,-4.5,-7.8125,0
36540,-7.4375,-8.75,-9.125,0
36560,-7.3125,-9.3125,-9.1875,0
36580,-7.4375,-8.625,-6.6875,0
36600,-8.25,-10.25,-3.75,0
36620,-5.5,-10.75,-2.8125,0
36640,-4.4375,-10.9375,-4.6875,0
36660,-6.125,-9,-5.375,0
36680,-6.375,-8.4375,-7.5,0
36700,-8.375,-7.8125,-8,0
36720,-6.6875,-9.875,-7.1875,0
36740,-4.5625,-8.25,-6.9375,0
36760,-6,-3.0625,-6,0
36780,-6,-0.875,-3.0625,0
36800,-3.8125,3.5,-1.1875,0
36820,0.75,7.125,-0.3125,0
36840,5.125,5.25,-0.625,0
36860,7.8125,2.5,2.3125,0
36880,10.375,3.8125,3.8125,0
36900,12.5,2.25,1.4375,0
36920,12.5625,1.25,0.5,0
36940,12.9375,3.5625,3.375,0
36960,12.6875,5.875,4.0625,0
36980,13.25,7.125,1.8125,0
37000,13.6875,8.5625,1,0
37020,14,10.75,0.0625,0
37040,13.375,12.25,1.75,0
37060,11.1875,14.75,0.6875,0
37080,10.375,18.125,0.1875,0
37100,9.8125,17.5625,2.125,0
37120,7.875,9.6875,4,0
37140,10.1875,3.75,5.125,0
37160,9.0625,4.9375,4.5625,0
37180,5.4375,5,3.9375,0
37200,5.25,1.8125,3.125,0
37220,4.75,-2.0625,4.625,0
37240,4.1875,-3.8125,5.1875,0
37260,3.375,-1.8125,5.125,0
37280,2.5,0.5625,4.6875,0
37300,2,0.625,3.1875,0
37320,2.1875,-0.875,1.4375,0
37340,1.6875,-0.1875,0.0625,0
37360,1.3125,2.625,-0.5625,0
37380,3.6875,0.5,-0.1875,0
37400,3.625,-0.25,-0.875,0
37420,3,0.25,-0.125,0
37440,2.0625,1.3125,0.875,0
37460,1.9375,1.75,0.25,0
37480,1.625,5.5,0.3125,0
37500,2.125,7.6875,0.3125,0
37520,1.125,4.3125,-1.3125,0
37540,-2.25,0.875,-3.375,0
37560,-4.1875,0.3125,-5.0625,0
37580,-6.9375,-0.9375,-7.4375,0
37600,-8.8125,-3.625,-7.25,0
37620,-7.25,-4.875,-8,0
37640,-6.875,-6.8125,-8.625,0
37660,-8.0625,-6.0625,-7.5,0
37670,-5.375,-4.9375,-5.625,0
37690,-5.5,-1.75,-4.9375,0
37710,-4.8125,1,-2.25,0
37730,-2.625,1.875,-0.375,0
37750,0.125,-2.25,-0.5,0
37770,0.6875,-3.1875,-0.6875,0
37790,0.8125,-1.25,0.3125,0
37810,1.3125,-2.75,2.6875,0
37830,4.25,-2.875,4.6875,0
37850,5.9375,-5.75,5,0
37870,4.125,-3.875,5,0
37890,4.3125,-4.5,2.4375,0
37910,2,-7,-3.125,0
37930,-1.8125,-6.4375,-2.375,0
37950,-2.625,-5.1875,-2.8125,0
37970,-2.0625,-8.5625,-3.125,0
37990,0.4375,-11.0625,2.1875,0
38010,2.6875,-5.375,2.9375,0
38030,0.5,-7.625,0.375,0
38050,1.625,-9.3125,-1.375,0
38070,0.4375,-12.0625,-6.5,0
38090,-5,-12.4375,-8.6875,0
38110,-8.5625,-19.3125,-2.8125,0
38130,-1.75,-16.75,-0.625,0
38150,2.875,-16.4375,1.3125,0
38170,4.3125,-7.5625,9.0625,0
38190,2.625,-4,1.75,0
38210,-1.25,-6.1875,-3.6875,0
38230,-0.25,-7.0625,5.9375,0
38250,6.8125,1.875,11.5625,0
38270,2.4375,7.25,9.8125,0
38290,5.0625,-0.25,5.3125,0
38310,6.1875,-8.3125,7.4375,0
38330,9.625,-5.875,12.9375,0
38350,6.9375,1.1875,13.125,0
38370,7.125,2.75,7.1875,0
38390,4,5.125,0.875,0
38410,-0.5625,11.25,-2.75,0
38430,-4.375,9.6875,-2.5625,0
38450,-5.6875,8.25,-2.25,0
38470,-7.125,9.1875,-0.375,0
38490,-8.4375,13.125,3.6875,0
38510,-7.75,9.625,-1.375,0
38530,-3.6875,4.6875,-3.6875,0
38550,-3.375,7.5,-1.125,0
38570,-1.75,13.375,4.8125,0
38590,-2.4375,20.375,9.125,0
38610,-3.3125,31.1875,10.75,0
38630,-10.875,41.8125,14.25,0
38650,-9.1875,54.125,27.375,0
38670,-8,70.75,40.375,0
38690,-7.9375,83.6875,44.0625,0
38710,-22.375,94.3125,41,0
38730,-35.75,61.5,21.5,0
38750,-15.6875,26.3125,-1.25,0
38770,-1.875,4.8125,-1.625,0
38790,14.6875,-0.125,11.75,0
38810,-1.1875,-1.625,15.4375,0
38830,-4.5625,-0.5625,22.625,0
38850,-4.8125,-0.1875,28.25,0
38870,-14.25,-0.375,24.3125,0
38890,-19.25,8.6875,33,0
38910,-24,5.75,49.3125,0
38930,-4.6875,4.6875,55.5,0
38950,2.6875,0.875,41.125,0
38970,3.5625,-3,28.8125,0
38990,1.875,-8.3125,23.125,0
39010,13,-19,6.3125,0
39030,11.9375,-20.6875,-10.9375,0
39050,3.8125,-20.25,-10.25,0
39070,4.0625,-20.875,-7.5,0
39090,7.5625,-16,-15.5625,0
39110,9.8125,-11,-21.375,0
39130,4.6875,-10.125,-16.875,0
39150,3.5,-8.8125,-9.5625,0
39170,6.5,-6.375,-12.6875,0
39190,8.875,1.625,-15.6875,0
39210,4.1875,6,-19.1875,0
39230,6.25,6.125,-13.8125,0
39250,14.625,1.875,-18.4375,0
39270,14.25,10.125,-21.375,0
39290,12.375,15.5625,-14.3125,0
39310,5.3125,15.5,-12.1875,0
39330,6,15.1875,-13.1875,0
39350,7.5625,11.0625,-12.5625,0
39370,0.875,9.6875,-13.375,0
39390,0.125,8.6875,-13.75,0
39410,3.875,6.6875,-12.5,0
39430,4.0625,2.5625,-12.5,0
39450,2.375,1.75,-12.1875,0
39470,6.375,-0.125,-14.6875,0
39490,7.25,-0.375,-17.875,0
39510,5.3125,-1.125,-10.8125,0
39530,2.6875,0.3125,-5.375,0
39550,3.0625,3.0625,-3.8125,0
39570,2.75,0.6875,-1.75,0
39590,-3.75,5.25,1.5,0
39610,-3.25,6.9375,6.9375,0
39630,-3,7.125,5,0
39650,-3,5.25,5.0625,0
39670,0.25,4.0625,6.5,0
39690,-1.1875,3.125,3.5,0
39710,-0.5625,-0.3125,2.75,0
39730,-4.375,0.5,4.5,0
39750,-9.25,3.375,1.5,0
39770,-11.3125,1.9375,1.1875,0
39790,-6.6875,0.75,2.8125,0
39810,-2.5625,-1.625,0.9375,0
39830,-0.875,-5.125,1.1875,0
39850,2.8125,-11.4375,7.6875,0
39870,3.1875,-13.8125,6.8125,0
39890,4.125,-10.8125,11.75,0
39910,2,-3.3125,14.375,0
39930,-0.625,-0.1875,10.5625,0
39950,-0.4375,-0.3125,7.625,0
39970,-0.9375,-4.5,1,0
39990,2.5625,-9.6875,0.625,0
40010,6,-11.4375,-1.5625,0
40030,6,-10.3125,-4.125,0
40050,-0.25,-10.6875,-4.1875,0
40070,1.6875,-16.375,0.4375,0
40090,5.25,-18.5,8.5625,0
40110,3.375,-10.5625,9.125,0
40130,3.3125,-9.3125,9.0625,0
40150,0.5,-14.125,14.875,0
40170,4.875,-11.75,16.125,0
40190,4.625,-9.125,12.25,0
40210,2,-6.3125,16.0625,0
40230,3,-4.4375,14.9375,0
40250,3.375,-3.8125,13.625,0
40270,1.6875,-1.0625,9.625,0
40290,-0.1875,-2.4375,6.125,0
40310,-1.125,-5.625,5.9375,0
40330,0.75,-6.875,3.1875,0
40350,-2,-11.0625,-4,0
40370,1.375,-9.8125,-4.6875,0
40390,-4.4375,-8.5,-7.5,0
40410,-4.9375,-5.0625,-10.375,0
40430,-5.25,3.625,-14.6875,0
40450,-9.75,10.75,-18.625,0
40470,-10.75,23.5,-21.625,0
40490,-8.5625,36.375,-27.1875,0
40510,-11.25,44.4375,-28.125,0
40530,-16.875,41.6875,-26.25,0
40550,-18.125,32.0625,-25,0
40570,-16.25,24.4375,-22.5,0
40590,-8.9375,21.8125,-17.0625,0
40610,-8.3125,20.4375,-13.1875,0
40630,-7.3125,16.625,-12.375,0
40650,-6.9375,11.0625,-9,0
40670,-4.0625,8.6875,-5.3125,0
40690,-0.3125,6.625,-1.1875,0
40710,1.875,3.3125,2.4375,0
40730,4.125,0.8125,5.9375,0
40750,9.4375,-3.5,4.6875,0
40770,8.4375,-5.125,2.5,0
40790,7.5625,-4.5625,4.8125,0
40810,4.625,-2.125,3.75,0
40830,3.75,2.3125,4.4375,0
40850,0.4375,7.5,2.0625,0
40870,-0.0625,11.0625,0,0
40890,-5.9375,16.4375,-2.3125,0
40910,-6.6875,18.125,-2.3125,0
40930,-4.5,20.625,-2.625,0
40950,-5.625,17.625,-2.1875,0
40970,-11.1875,15.5,-2.0625,0
40990,-5.3125,13.6875,-5.1875,0
41010,-6,13.5625,-3,0
41030,-6.0625,11.75,-3.625,0
41050,-5.6875,12.25,-6,0
41070,-8,13.375,-6,0
41090,-3,7.625,0.125,0
41110,-1.625,2.3125,-0.1875,0
41120,3,-4.4375,0.5,0
41140,5.6875,-10.25,0.1875,0
41160,4.3125,-12.4375,2.6875,0
41180,4.875,-13.125,4.375,0
41200,7.375,-10.0625,4.25,0
41220,6.3125,-7.0625,2.625,0
41240,4.125,-9.1875,0.9375,0
41260,-0.0625,-6.6875,-1.6875,0
41280,0.3125,-4.4375,-1.5,0
41300,1.1875,-8.625,2.125,0
41320,0.8125,-6.625,-1.375,0
41340,-3.875,-3.5,-1.125,0
41360,-0.8125,-5.1875,1.8125,0
41380,-0.375,-3,2.3125,0
41400,0.1875,-2.5625,3.5625,0
41420,2.1875,-2.6875,4.5,0
41440,2.3125,-0.25,3.5625,0
41460,3.4375,0.4375,3.75,0
41480,1.625,1.5,2.5,0
41500,0.875,1.0625,1.6875,0
41520,-0.4375,0.6875,0.5625,0
41540,-0.6875,-0.1875,-1.1875,0
41560,-2.625,-1.125,-2.625,0
41580,-4.25,0.75,-0.3125,0
41600,-3.125,2.1875,0.0625,0
41620,-3.25,1.3125,-1.625,0
41640,-3.375,-3.5625,-4,0
41660,-1.4375,-4.75,-3.375,0
41680,-3.625,-0.6875,-5.4375,0
41700,-2,-0.625,-2.25,0
41720,-3.8125,0.125,-3.3125,0
41740,-3.375,0.9375,-3.75,0
41760,-1.875,-0.0625,-1.875,0
41780,-1.5,0.0625,-1.5,0
41800,-1.0625,0.25,-2.3125,0
41820,-2.75,1.125,-1.75,0
41840,-0.5,0.0625,2,0
41860,1.1875,0.8125,0.375,0
41880,1.875,-1,-0.625,0
41900,1.6875,-0.5625,0.6875,0
41920,2.1875,0.5,1.125,0
41940,3.3125,-0.5,2.3125,0
41960,4.25,-0.25,2.9375,0
41980,4.125,-0.4375,3.4375,0
42000,4.25,-0.1875,5.9375,0
42020,5,0.125,6.0625,0
42040,4.9375,0.4375,5,0
42060,6,0.3125,6.375,0
42080,4.9375,-1.9375,6.25,0
42100,3.5625,-5.5,6.8125,0
42120,3.25,-6.125,6.8125,0
42140,3.3125,-4.6875,6,0
42160,1.125,-3.0625,5.0625,0
42180,-1.25,-0.625,3.625,0
42200,-6.3125,0.5,0.4375,0
42220,-11.5625,1.0625,-4.125,0
42240,-17.75,-0.8125,-8.375,0
42260,-24.3125,-0.75,-13.6875,0
42280,-26.875,-2.375,-20.5,0
42300,-31.0625,-6.625,-24.5625,0
42320,-34.875,-9.75,-28.3125,0
42340,-37.6875,-8.125,-32,0
42360,-42.875,-9.5,-37.1875,0
42380,-40,-12.625,-41.75,0
42400,-40.1875,-14.25,-47.25,0
42420,-46.0625,-14.625,-50.75,0
42440,-44.8125,-15.125,-50.5,0
42460,-42.6875,-20.8125,-55.875,0
42480,-37.4375,-20.125,-61.75,0
42500,-43.0625,-13.625,-61.5625,0
42520,-44.5625,-7.0625,-57.4375,0
42540,-39.5625,-11,-55.5,0
42560,-33.375,-9.5,-55.1875,0
42580,-37.375,-5.5625,-53.25,0
42600,-37.25,-7.9375,-49.625,0
42620,-29.0625,-11.4375,-45.4375,0
42640,-21.8125,-11,-41.6875,0
42660,-22.75,-11.75,-41.5625,0
42680,-19.4375,-8.0625,-39.4375,0
42700,-24,-9.375,-28.1875,0
42720,-22.3125,-11.4375,-21.25,0
42740,-19.5625,-11.0625,-23.125,0
42760,-15.125,-10.6875,-19.3125,0
42780,-14.8125,-8.9375,-13.5625,0
42800,-15.1875,-8.5,-11.6875,0
42820,-13.625,-10.0625,-10.625,0
42840,-10.875,-8.4375,-8,0
42860,-10,-7.4375,-6.1875,0
42880,-12.1875,-10.6875,-1.375,0
42900,-12.875,-10.3125,1.6875,0
42920,-14.0625,-7.4375,3.9375,0
42940,-16.75,-4.5,6.6875,0
42960,-18.0625,-5.375,5,0
42980,-17.8125,-6,3,0
43000,-16.5625,-4.9375,4.4375,0
43020,-11.875,-6.5,6.125,0
43040,-12.125,-12.3125,7.25,0
43060,-11.3125,-17.9375,11.8125,0
43080,-8.625,-18,13.25,0
43100,-8.375,-17.9375,11.1875,0
43110,-9.8125,-18,7.0625,0
43130,-10.0625,-20.5625,8,0
43150,-9.75,-21.625,7.875,0
43170,-6.875,-17.375,5.8125,0
43190,-7.375,-15.5,5.1875,0
43210,-7.875,-17.9375,10.1875,0
43230,-6.6875,-19,9.125,0
43250,-9.0625,-15.375,3.9375,0
43270,-13.625,-11.125,0.8125,0
43290,-6.9375,-14.5,6.875,0
43310,-2.9375,-14.375,9.6875,0
43330,-3.125,-10.875,5.5625,0
43350,-3.6875,-11,4.75,0
43370,-3.125,-12,9.375,0
43390,3.3125,-12.5,16.25,0
43410,5.9375,-12.75,20.375,0
43430,3.9375,-11.8125,17.625,0
43450,3.0625,-12.375,12.25,0
43470,6.625,-9,10.3125,0
43490,6.8125,-8.6875,10.8125,0
43510,5.6875,-7.125,15.125,0
43530,6.625,0.125,19.125,0
43550,9.3125,6.125,19.9375,0
43570,10.9375,8.125,23.4375,0
43590,6.75,10.1875,19.75,0
43610,9.1875,9.5625,21.3125,0
43630,12.1875,12.3125,26.875,0
43650,12.625,14,31.875,0
43670,15.1875,12.5,27.5,0
43690,11.875,11.5,18.5,0
43710,12.5,10.75,13,0
43730,16.25,10.6875,16.125,0
43750,17.4375,10.3125,18.8125,0
43770,16.8125,9.9375,22.0625,0
43790,17.75,8.4375,26.75,0
43810,18.0625,6,27.1875,0
43830,13.625,1.75,21.6875,0
43850,13.75,-1.375,20.1875,0
43870,15.125,-3.25,24.25,0
43890,15.5625,-2.375,31.4375,0
43910,17.3125,-2.5625,30.1875,0
43930,16.25,1,27,0
43950,7.75,1.25,28.4375,0
43970,3.5625,-1.1875,25.875,0
43990,12.125,-2.75,21.875,0
44010,13.5625,-1.5625,16.9375,0
44030,10,-0.9375,12.375,0
44050,2.5625,-0.0625,8.25,0
44070,4.3125,0.125,4.8125,0
44090,3.9375,0.3125,-0.5,0
44110,4.125,3.5625,-2.8125,0
44130,1.0625,8.8125,-3,0
44150,1.9375,13.5625,-4.5,0
44170,3.5,16.6875,-0.5625,0
44190,-3.3125,20.625,-0.75,0
44210,-10.6875,25.625,-1.75,0
44230,-19.25,28.4375,-2.8125,0
44250,-21.625,31,-7.0625,0
44270,-15.75,35.875,-3.0625,0
44290,-17.625,43.375,9.9375,0
44310,-22,47.1875,7.375,0
44330,-24.25,41.375,3.9375,0
44350,-18.1875,36,12,0
44370,-14.3125,32.8125,9.75,0
44390,-11.9375,33.1875,6.3125,0
44410,-10.75,34.8125,4.875,0
44430,-7.1875,33.5625,7.125,0
44450,-0.625,31.0625,8,0
44470,7.0625,25,6.25,0
44490,10,19.3125,1.5,0
44510,20,12.8125,-5.8125,0
44530,26.3125,2.75,-5.8125,0
44550,31.0625,-6.8125,-10.25,0
44570,43.625,-11.875,-22.875,0
44590,52.375,-16.9375,-34.75,0
44610,51.3125,-27.375,-38.3125,0
44630,56.625,-31.1875,-36,0
44650,59.75,-28.1875,-35.875,0
44670,59.875,-24.6875,-40.125,0
44690,53.1875,-13.8125,-39.75,0
44710,25.9375,-18,-30.5,0
44730,21.625,-12.375,-16.9375,0
44750,13.8125,-10.125,-12.3125,0
44770,10.25,-4.5625,-11.5,0
44790,11,0.125,-13.3125,0
44810,4.3125,4.75,-8.875,0
44830,-1.3125,13.3125,-10.6875,0
44850,-1.4375,17.75,-14.5625,0
44870,3.625,20.8125,-6.5625,0
44890,3.75,31.125,-4.9375,0
44910,-4,44.375,-4.9375,0
44930,-4.4375,56.0625,1.25,0
44950,3,70.1875,4.5625,0
44970,8,89.9375,2.875,0
44990,14.0625,106.375,14.0625,0
45010,11.0625,119.812,28.9375,0
45030,16.875,125.688,37.8125,0
45050,26,134.438,45.375,0
45070,25.5,147,55.125,0
45090,19.3125,158.875,64,0
45110,12.75,159.562,78.6875,0
45130,19.9375,152.062,95.1875,0
45150,30.5,143,94.375,0
45170,20.9375,155.562,114.938,0
45190,46.4375,148,121,0
45210,4.875,147.688,125.312,0
45230,20.1875,147.625,122.062,0
45250,17.875,141.875,125.625,0
45270,24.25,128.875,118.125,0
45290,60.4375,121.688,107.312,0
45310,103.875,102,109.188,0
45330,107.438,77.8125,94.1875,0
45350,42.875,37.75,31.0625,0
45370,28.125,-43.6875,-13.125,0
45390,-28.3125,-49.0625,-24.1875,0
45410,-42.3125,-22.5625,9.8125,0
45430,-13.875,-16.6875,12.0625,0
45450,4.375,-1,20.9375,0
45470,1.875,23.625,32.1875,0
45490,-0.6875,43.5625,37.375,0
45510,-4.8125,43.5625,27.4375,0
45530,-10.8125,15.375,11,0
45550,-3.5,-11.4375,2.25,0
45570,-10.75,-14.0625,-4.6875,0
45590,-10.8125,-12.1875,-4.625,0
45610,8.375,-10.75,-7.3125,0
45630,13.125,-3.125,-5.3125,0
45650,10.625,4.3125,1.375,0
45670,8,5.0625,1.125,0
45700,-0.5,-5.8125,-1.75,0
45720,-6.625,-4.875,0.5,0
45740,-8.4375,-2.125,3.375,0
45760,-2.9375,-1.4375,3.3125,0
45780,-0.5,-0.1875,3.875,0
45800,-1.375,0.625,4.3125,0
45820,-0.4375,-0.125,3.625,0
45840,-1.3125,-0.4375,3.3125,0
45860,-0.75,-0.8125,1.8125,0
45880,-0.6875,-1,0.375,0
45900,-0.25,-0.5,-0.25,0
45920,-0.6875,0.75,0.125,0
45940,-2.625,2.0625,1,0
45960,-3.3125,3.6875,2.5,0
45980,-5.625,4.4375,3.3125,0
46000,-7,3.5625,2.5625,0
46020,-7.375,3.75,2.125,0
46040,-6.8125,4.375,1.8125,0
46060,-6.3125,3.875,0.9375,0
46080,-5.0625,2.75,0,0
46100,-4.4375,2.625,-0.5625,0
46120,-4.6875,3,-0.4375,0
46140,-6.1875,3.5,-0.875,0
46160,-5.625,3.5,-0.1875,0
46180,-4.125,3.125,0,0
46200,-3.6875,2.5625,-0.6875,0
46220,-4.125,1.75,-1,0
46240,-3.0625,1.8125,-0.5625,0
46260,-0.5,0.875,-0.3125,0
46280,-0.5,0.1875,-0.8125,0
46300,0.5625,-0.875,-0.625,0
46320,0.75,-1.25,0.25,0
46340,2.875,-1.4375,0.375,0
46360,2.4375,-1.25,0.9375,0
46380,1.0625,-0.6875,0.875,0
46400,0.375,-0.4375,1.0625,0
46420,-0.75,0.25,0.8125,0
46440,-3.625,0.875,1.25,0
46460,-1,-0.3125,1.375,0
46480,0.8125,-0.25,1.75,0
46500,1.3125,-0.6875,2.4375,0
46520,4.25,-2.75,3.125,0
46540,8.125,-3.1875,4.75,0
46550,-2.4375,1.1875,8.25,0
46570,0.625,1.1875,8.125,0
46590,-6.8125,3.1875,6.9375,0
46610,-10.4375,6.125,7.625,0
46630,-12.125,8.875,10.5625,0
46630,-10.875,9.6875,11.8125,0
46640,-19,10.6875,13.625,0
46660,-23.9375,11.3125,15.0625,0
46680,-29.125,13.125,10.0625,0
46700,-27.4375,13.5625,7.375,0
46720,-28.4375,14.25,6.1875,0
46740,-31.1875,17,-1.5,0
46760,-39.25,20.75,-3.25,0
46780,-44.375,20.1875,-3.3125,0
46800,-37.9375,18.5,-2.25,0
46820,-28,15.9375,-3.8125,0
46860,-12.6875,-2.8125,3.4375,0
46880,-2.1875,-3.25,-0.0625,0
46890,3.1875,-6.875,-3.4375,0
46910,16.5,-8.4375,-2.25,0
46930,22.8125,-7.625,-5.625,0
46940,8.1875,-2.4375,3.3125,0
46960,2.5,5.6875,7.1875,0
46980,-9.3125,-1.5625,9.3125,0
46990,-5.0625,-2.9375,7.5,0
47020,-11.5625,-0.4375,6.4375,0
47040,-11.1875,0,4.5625,0
47060,-11.625,3.25,1.9375,0
47080,-8.3125,3.625,-2.8125,0
47100,-8.3125,4.8125,-7.9375,0
47120,-5.8125,4.875,-8.375,0
47140,-5.0625,3.1875,-10.0625,0
47160,-1.625,1.5625,-10.75,0
47180,0.8125,0.1875,-11.125,0
47200,0.8125,1,-10.9375,0
47220,-0.5,0.75,-10.4375,0
47240,-1.75,1.125,-10.6875,0
47260,-0.625,1,-12.1875,0
47280,0.375,1.75,-12.75,0
47300,-0.125,1.375,-11.9375,0
47320,-2.5625,1.625,-10.1875,0
47340,-0.3125,1,-8.75,0
47360,-0.8125,0.5625,-7.625,0
47380,-0.125,-0.125,-4.6875,0
47400,0.0625,-2,-3.9375,0
47420,-0.9375,-2.9375,-3.125,0
47440,-1.3125,-3.25,-0.625,0
47460,-0.625,-5.5,3.375,0
47480,-0.125,-9.125,7.75,0
47500,2,-11.625,9.25,0
47520,4.75,-12.0625,11.9375,0
47540,0.9375,-14.5,12.875,0
47560,-9.75,-13.375,13.875,0
47580,-24.125,-5.6875,12.8125,0
47600,-38.5625,-5.875,19,0
47620,-76.5,-0.6875,20.4375,0
47640,-110.938,7.0625,27.3125,0
47660,-127.5,5.875,39.6875,0
47680,-103.375,-2.5,40.8125,0
47700,-92.1875,-8.3125,38.875,0
47720,-71.5,-12.875,35.625,0
47740,-69,-7.25,35.0625,0
47750,-74.75,-2.75,38.5625,0
47770,-89.5,-1.75,30.3125,0
47790,-86.0625,4.625,20.4375,0
47810,-84.5625,13.75,11.9375,0
47830,-87.75,21.1875,0.5,0
47850,-86.6875,19.8125,-6,0
47870,-70.5,8.5625,-9.125,0
47890,-48.6875,-5.375,-12.5,0
47910,-23.5,-15.75,-18.6875,0
47930,-11.5,-24.4375,-21.5625,0
47950,-4.1875,-30.875,-26.9375,0
47970,10.375,-34.25,-32.25,0
47990,31.875,-36.625,-37.8125,0
48010,58.3125,-40.4375,-43.1875,0
48030,67.0625,-44.4375,-43.125,0
48050,69,-39.75,-41.5,0
48070,75.5625,-33.375,-39.125,0
48090,81.5,-28.875,-34.5,0
48110,71.25,-24,-23.5,0
48130,69.5625,-18,-13.8125,0
48150,69.8125,-11.375,-2.1875,0
48170,59.75,1.25,10.25,0
48190,48.125,14.375,20.25,0
48210,29.5625,22.8125,32.4375,0
48230,20.625,31.8125,41.0625,0
48250,30.5625,34.4375,41.875,0
48270,31.9375,36.5,42.5,0
48290,41.125,33.4375,45.375,0
48310,58.125,20.0625,28.5,0
48330,51.625,3.1875,24.9375,0
48350,66.125,-19,-25.25,0
48370,37.75,-18.5625,-57.5,0
48390,2.625,-8.5,-42.5,0
48400,-9.6875,-7.8125,-18.875,0
48420,18.5,-9.375,-30.25,0
48440,47.6875,7,-16.1875,0
48460,61.125,15.5625,-15.0625,0
48480,55.6875,17.375,-10.75,0
48500,44.3125,9.875,-5.75,0
48520,30.0625,4.5625,-12,0
48540,13.625,5.5,-12.5,0
48560,-0.0625,3.1875,-8.25,0
48580,0.8125,2.8125,-2.3125,0
48600,5.375,5.6875,6.375,0
48620,7.375,8.125,13.5625,0
48640,-0.8125,11.8125,18.3125,0
48660,-5.4375,8.0625,17.5625,0
48680,-11.9375,8.6875,18.25,0
48700,-21.25,8.1875,18.9375,0
48720,-19.0625,3.6875,14.5625,0
48740,-15.375,2.6875,11.9375,0
48760,-10,1.8125,4.8125,0
48780,-5.0625,2.1875,-3,0
48800,-2.5625,3.4375,-1.75,0
48820,-3,3.0625,-2.25,0
48840,-1.375,2.25,-4.5625,0
48860,2.75,0.0625,-9.3125,0
48880,4.1875,0.6875,-10.9375,0
48900,3.8125,1.25,-12.875,0
48920,6.8125,-0.1875,-13.5625,0
48940,7.5625,-0.3125,-11.9375,0
48960,3.875,0.25,-8,0
48980,-1.6875,2.875,-2.5625,0
49000,-4.625,3.625,3.4375,0
49020,-5.4375,4.125,6.0625,0
49040,-6.4375,4.3125,6.6875,0
49060,-6.875,3.9375,6.4375,0
49080,-8.3125,3.625,6.625,0
49100,-5.875,4.125,5.625,0
49120,-7.0625,3.875,5.5,0
49140,-5.875,3.5,5.375,0
49150,-6.125,3.375,3.8125,0
49170,-4.4375,2.9375,2.625,0
49190,-3.5,1.4375,-0.1875,0
49210,-2.4375,1.1875,-2.3125,0
49230,-0.875,1.0625,-3.75,0
49250,-0.375,2.125,-3.25,0
49270,-0.25,2.875,-2.25,0
49290,-1.1875,3.5,-0.4375,0
49310,-2.4375,3.375,0.6875,0
49330,-3.5625,3.1875,1.875,0
49350,-3.375,2.125,2.75,0
49370,-2.9375,1.1875,3,0
49390,-2.5,1.0625,3.0625,0
49410,-2,0.875,3.3125,0
49430,-3.5625,1.125,3.75,0
49450,-4.5625,0.8125,3.625,0
49470,-4.6875,1.6875,3.5,0
49490,-4.25,2.125,3.4375,0
49510,-4.1875,2.0625,2.8125,0
49530,-2.5,1.25,2.25,0
49550,-1.625,1.375,1.1875,0
49570,0.0625,1.625,0.875,0
49590,0.125,1.4375,0.375,0
49610,-0.1875,1.0625,-0.125,0
49630,0.125,1.375,-0.0625,0
49650,1.0625,1.125,0.25,0
49670,0.3125,0.5625,0.125,0
49690,0,0.3125,-0.125,0
49710,-0.9375,0.4375,0.25,0
49730,-1.25,0.9375,0.5625,0
49750,-1.125,1.3125,1.5625,0
49770,-0.25,1.5625,1.75,0
49790,-0.9375,0.875,1.3125,0
49810,-1.1875,0.625,1,0
49830,-0.125,1.1875,0.875,0
49850,0.5,0.9375,0.6875,0
49870,-0.875,1.4375,-0.25,0
49890,0.4375,0.8125,-0.25,0
49910,0,0.4375,-1.1875,0
49930,0.375,-0.0625,-1.9375,0
49950,0.5625,0,-1.25,0
49970,-0.25,-0.6875,-1.875,0
49990,-0.25,-0.9375,-2.0625,0
50010,0.125,-0.1875,-1.5,0
50030,0.625,-0.5,-1.3125,0
50050,0.125,-0.625,-1.4375,0
50070,0.6875,-0.8125,-1.3125,0
50090,0.6875,-0.4375,-1.25,0
50110,0.6875,-0.3125,-1.125,0
50130,0,-0.375,-1.4375,0
50150,-0.5,0.1875,-1.1875,0
50170,-1.0625,0.3125,-1,0
50190,-2.5625,1,-1,0
50210,-2.1875,0.9375,-0.75,0
50230,-2.0625,0.9375,-1.375,0
50250,-2.5,1.375,-1.5625,0
50270,-3.4375,1.5,-1.5625,0
50290,-3.5,1.6875,-0.6875,0
50310,-3.875,1.4375,-0.25,0
50330,-3.4375,0.6875,-0.25,0
50350,-1.8125,-0.1875,-0.6875,0
50370,1.125,-0.875,-1.125,0
50390,3.125,-1.75,-2.1875,0
50410,3.875,-2.3125,-3.1875,0
50430,3.3125,-2.3125,-3.4375,0
50450,3.3125,-1.9375,-2.5,0
50470,1.5,-0.9375,-1.375,0
50490,-0.8125,-0.6875,-0.375,0
50510,-1.5,-0.25,-0.1875,0
50530,-0.875,0.1875,-0.375,0
50550,0.6875,-0.1875,-1.1875,0
50570,1.0625,-0.3125,-2.1875,0
50590,0.875,-0.4375,-2.3125,0
50610,1.0625,-0.375,-2.3125,0
50630,1.0625,-0.4375,-2.25,0
50650,0.8125,-0.1875,-1.6875,0
50670,0.8125,-0.0625,-1.375,0
50690,-0.125,0.1875,-1,0
50710,-0.25,0.1875,-0.5625,0
50730,-1.4375,0.875,-0.1875,0
50750,-1.375,0.75,0.5,0
50770,-1.8125,0.875,0.125,0
50790,-1.4375,0.75,0.125,0
50810,-1.25,0.9375,0.0625,0
50830,-1.125,1.25,-0.1875,0
50850,-1.125,0.9375,-0.25,0
50870,-1.6875,0.625,-0.75,0
50890,-0.1875,0.375,-0.6875,0
50910,0.125,0.8125,-0.8125,0
50930,0,0.4375,-0.5,0
50950,-0.4375,0.375,-0.4375,0
50970,0.3125,0.3125,-0.1875,0
50990,-0.125,0.1875,-0.125,0
51010,-1.0625,0.1875,-0.25,0
51030,-0.25,0.1875,-0.1875,0
51050,0.0625,0.4375,-0.25,0
51070,0.3125,0.3125,-0.5,0
51090,0.125,0.0625,-0.9375,0
51110,0.3125,0.0625,-1.3125,0
51130,1.125,0.5,-0.625,0
51150,0.75,0.3125,-0.6875,0
51170,0.1875,0.375,-1.1875,0
51190,0.5625,0.3125,-1.125,0
51210,-0.0625,0.375,-1.0625,0
51230,-0.0625,0.1875,-0.875,0
51250,-0.6875,0.3125,-0.1875,0
51270,-1,0.1875,0.1875,0
51290,-0.5,0.1875,0.125,0
51310,-0.4375,0.3125,-0.1875,0
51330,-0.25,0.375,-0.9375,0
51350,0,0,-1.1875,0
51370,-0.0625,0.375,-1.1875,0
51390,-0.375,0.3125,-1.0625,0
51410,-0.375,0.4375,-0.6875,0
51430,0.0625,0.5,-0.25,0
51450,-0.3125,0.375,-0.4375,0
51470,-1.1875,-0.125,-0.6875,0
51490,-0.5,0.125,-0.625,0
51510,-0.1875,0.3125,-0.75,0
51530,-0.375,0.3125,-0.6875,0
51550,-0.3125,0.3125,-0.625,0
51570,-0.1875,0.3125,-0.5625,0
51590,-0.3125,0.375,-0.25,0
51610,-0.625,0.5,-0.75,0
51630,-0.875,0.9375,-0.375,0
51650,-0.625,0.6875,-0.25,0
51670,-0.625,0.1875,-0.6875,0
51690,-0.4375,0.3125,-0.375,0
51710,-0.125,0.4375,-0.1875,0
51730,-0.1875,0.375,-0.25,0
51750,-0.25,0.375,-0.1875,0
51770,0.375,0.625,-0.125,0
51790,-0.0625,0.3125,-0.1875,0
51810,-0.3125,0.4375,-0.4375,0
51820,0.0625,0.3125,-0.25,0
51840,0.4375,0.3125,-0.375,0
51860,-0.3125,0.125,-0.375,0
51880,0,0.3125,-0.1875,0
51900,0.1875,0.25,-0.1875,0
51920,0,0.3125,-0.375,0
51940,-0.0625,0.1875,-0.3125,0
51960,-0.375,0.4375,-0.25,0
51980,0.3125,0.5625,0,0
52000,-0.0625,0.125,-0.1875,0
52020,0.1875,0.3125,-0.375,0
52040,0.75,0,-0.375,0
52060,-0.3125,0.6875,-0.625,0
52080,-0.5,0.625,-0.5,0
52100,-1,0.75,-0.5,0
52120,-1,0.8125,0,0
52140,-2.375,0.9375,0.625,0
52160,-3.0625,1.625,1.125,0
52180,-4.3125,2.25,1.5625,0
52200,-4.625,2.3125,0.75,0
52220,-3.0625,1.9375,-0.125,0
52240,-1.75,1.625,-0.5625,0
52260,-2.125,1.75,-0.4375,0
52280,-2.875,1.25,0.1875,0
52300,-2.5,1.625,0.6875,0
52320,-1.9375,1.25,1.25,0
52340,-1.4375,1.0625,-0.0625,0
52360,0,0.6875,-0.125,0
52380,0.375,0.8125,-1.125,0
52400,0.625,0.125,-1.75,0
52420,0.5,0.125,-1.875,0
52440,0.25,0.125,-1.4375,0
52460,-0.5,0.0625,-0.875,0
52480,-1.375,0.625,0.0625,0
52500,-1.75,1.5,0.1875,0
52520,-1.0625,0.9375,-0.0625,0
52540,0.125,0.5625,-0.0625,0
52560,0.6875,0.3125,-0.1875,0
52580,0.5625,0.25,-0.5625,0
52600,1.1875,0.1875,-0.5,0
52620,1.5,0,-0.8125,0
52640,2.4375,-0.375,-0.6875,0
52660,1.6875,-0.6875,-0.8125,0
52680,0.9375,-0.625,-1.25,0
52700,0.75,0,-1.1875,0
52720,0.75,-0.25,-1.1875,0
52740,0.75,-0.375,-1.4375,0
52760,0.5625,-0.3125,-1.25,0
52780,0,0.125,-0.6875,0
52800,-0.9375,0.0625,-0.25,0
52820,-0.5625,0.1875,-0.1875,0
52840,-0.1875,0.25,-0.125,0
52860,-0.0625,0.3125,-0.0625,0
52880,-0.125,0.5,0,0
52900,-0.9375,0.75,0,0
52920,-0.875,0.75,0.25,0
52940,-1.125,1.375,0.4375,0
52960,-0.1875,0.5625,0.4375,0
52980,0.0625,0.375,-0.5625,0
53000,1.0625,-0.4375,-0.9375,0
53020,1,0.25,-1.0625,0
53040,0.6875,0.1875,-0.8125,0
53060,-0.1875,0.3125,-0.4375,0
53080,-0.0625,0.375,-0.125,0
53100,0,0.3125,0.375,0
53120,-0.75,0.75,1.125,0
53140,-0.75,1.25,1.25,0
53160,-0.625,1.1875,1.25,0
53180,-0.4375,1.0625,1.5625,0
53200,-0.5,1.125,1.3125,0
53220,-0.0625,0.875,0.9375,0
53240,0.5625,1.1875,0.5,0
53260,1.625,0.8125,0.125,0
53280,2.5,0.5625,-0.0625,0
53300,2.25,0.5625,-0.125,0
53320,1.5625,0.5625,-0.0625,0
53340,0.3125,0.5,0.375,0
53360,0.125,0.6875,0.625,0
53380,0.6875,0.75,0.75,0
53400,1.125,0.3125,0.625,0
53420,1.5625,-0.125,0.0625,0
53440,1.75,-0.375,-0.1875,0
53460,1.4375,0.0625,-0.375,0
53480,1.4375,-0.125,-0.1875,0
53500,0.8125,0.0625,-0.25,0
53520,0.5625,-0.0625,-0.1875,0
53540,0.3125,0.0625,-0.1875,0
53560,0.5625,0.3125,0.0625,0
53580,0.5,0.1875,-0.1875,0
53600,0.625,-0.625,-0.875,0
53620,0.8125,-0.75,-1.125,0
53640,0.8125,-0.4375,-1.0625,0
53660,1,-0.25,-0.75,0
53680,0.8125,-0.375,-1,0
53700,0.6875,-0.5,-1.25,0
53720,0.8125,-0.5625,-1.3125,0
53740,0.75,-0.1875,-1.0625,0
53760,0.5,-0.1875,-0.6875,0
53780,-0.3125,-0.125,-0.9375,0
53800,-0.125,-0.25,-0.75,0
53820,0.5,-0.125,-0.5625,0
53830,0.25,-0.0625,-0.625,0
53850,0.25,-0.3125,-1,0
53870,0.5,-0.1875,-0.4375,0
53890,1.0625,-0.8125,-0.4375,0
53910,0.0625,-1.5625,-1.375,0
53930,-0.0625,-2.1875,-1.0625,0
53950,-0.25,-3.375,-0.4375,0
53970,1.0625,-2.0625,-1.8125,0
53990,0.4375,-1.1875,-1.4375,0
54010,1,-0.4375,-1.25,0
54030,-0.5625,0.3125,-0.4375,0
54050,-3.0625,-0.4375,0.625,0
54070,-1.8125,-0.25,-0.0625,0
54090,-2.375,-0.5625,-0.6875,0
54110,-1.1875,-0.75,-0.875,0
54130,-0.1875,0.0625,-0.8125,0
54150,-1.4375,0,0.75,0
54170,-3.25,-1.4375,1.875,0
54190,-3.8125,-2.3125,0,0
54210,-9.8125,-3.75,0.8125,0
54230,-9.5625,-10.5,-0.4375,0
54250,-2.75,-8.625,-9.8125,0
54270,-2.8125,-9.5625,-10,0
54290,-8.1875,-15.125,-14.625,0
54310,-6.4375,-19.375,-19.6875,0
54330,-1.1875,-24.75,-23.1875,0
54350,0.3125,-30.375,-36.5,0
54370,-3.1875,-39.5625,-53.75,0
54390,-3.1875,-54.0625,-60.0625,0
54410,0.8125,-71.0625,-85.6875,0
54430,15.5,-76.8125,-76.25,0
54450,-0.4375,-86.4375,-80.5,0
54470,-14.0625,-96.125,-85.5625,0
54490,-19.125,-101.938,-81.375,0
54510,-14.5,-107.625,-83.125,0
54530,-8.6875,-107.125,-79.875,0
54550,-10.1875,-102.875,-74.75,0
54570,-13.9375,-99.375,-69.625,0
54590,-15.4375,-95.25,-61.9375,0
54610,-14.125,-88.8125,-54.25,0
54630,-10.4375,-80.875,-48.25,0
54650,-7.25,-71.1875,-36.6875,0
54670,-6.0625,-63.9375,-29.5,0
54690,-8.5,-54.9375,-25.1875,0
54710,-10.5,-45,-19.1875,0
54730,-12.3125,-34.625,-13.6875,0
54750,-10.6875,-29,-14.1875,0
54770,-6.125,-23.375,-14.4375,0
54790,-4.25,-18.375,-14,0
54810,-4.5,-14.0625,-14.0625,0
54830,-2.375,-12.125,-15,0
54850,0.1875,-9.1875,-14.8125,0
54870,0.9375,-6.4375,-12.75,0
54890,0.8125,-3.75,-9.4375,0
54910,-1.75,-4.875,-8.875,0
54930,-3.25,-8.375,-9.5625,0
54950,-3.5625,-10.3125,-8.25,0
54970,-5.4375,-11.25,-5.5625,0
54990,-4.625,-12.4375,-3.375,0
55010,-5.1875,-13.5,-3.1875,0
55030,-6.5,-13.3125,-2.25,0
55050,-8.5625,-11.1875,-2,0
55070,-7.8125,-9.0625,-0.875,0
55090,-6.5625,-8.875,-0.9375,0
55110,-6.4375,-9.1875,0.4375,0
55130,-6.125,-8.5625,-1.125,0
55150,-7.4375,-7.75,-0.625,0
55170,-8.1875,-4.5625,-1.9375,0
55190,-7,-3.1875,-2.8125,0
55210,-5.4375,-1.5625,-3.5625,0
55230,-5.125,-1.5,-2.375,0
55250,-2.3125,-1.625,-2.4375,0
55270,-2.75,-1.5,-1.1875,0
55290,-1.875,-1,-0.4375,0
55310,-3.625,1.125,1.125,0
55330,-5.0625,1.3125,3.25,0
55350,-4.125,2.5625,3.25,0
55370,-5.5625,-0.0625,5.625,0
55390,-6.625,3.0625,5.375,0
55410,-8.75,2.75,6.5,0
55430,-6.3125,2.1875,5.3125,0
55450,-7.375,-0.25,3.625,0
55470,-7.375,-2.75,2.5625,0
55490,-5.4375,-4.375,0.6875,0
55510,-4.0625,-4.5,-2.25,0
55530,-5.25,-3.75,-2.6875,0
55550,-5.625,-4.625,-1.1875,0
55570,-3.5,-4.375,-0.5625,0
55590,-4.5,-3.5625,1.375,0
55610,-5.125,-2.3125,1.9375,0
55630,-5.3125,-4.0625,1.5,0
55650,-2.8125,-3.5,0.5,0
55670,-4.875,-2.1875,0.9375,0
55690,-7.8125,-0.8125,2.1875,0
55710,-5.4375,-0.5,2.125,0
55730,-4,-1.9375,1.375,0
55750,-3.625,-1.5,1.4375,0
55770,-2.875,0,0.5625,0
55790,-3.0625,0.8125,2.625,0
55810,-5.875,1.125,2.9375,0
55830,-5.625,2.0625,2.75,0
55850,-2.875,2.9375,4.375,0
55870,-4.125,3.3125,4.5625,0
55890,-3.0625,3.75,3.75,0
55910,-2.5,4.875,3.625,0
55930,-3.25,4.0625,3,0
55950,-0.6875,3.875,1.5,0
55970,-3.25,3,1.375,0
55990,-3.4375,2.875,0.875,0
56010,-4.6875,2.125,-0.9375,0
56030,-4.6875,0.9375,1.875,0
56050,-4.6875,1.625,1.625,0
56070,-3.625,3.5,0.8125,0
56090,-5.125,3.5625,2.5,0
56110,-7.25,4.125,2.875,0
56130,-7.5,4.3125,2,0
56150,-4.0625,1.75,2.75,0
56170,-3.5625,0.25,1.6875,0
56190,-1.625,-1,-0.3125,0
56210,0.5,-2.8125,-0.3125,0
56230,1.8125,-3.5625,-2.6875,0
56250,1.9375,-3.0625,-2.625,0
56270,-0.25,-1.9375,-1.75,0
56290,-1.25,-0.3125,-2.8125,0
56310,-1.8125,-0.5,-2.0625,0
56330,-0.75,-0.4375,-2,0
56350,1.6875,-0.875,-2.875,0
56370,2.4375,-1.25,-1.1875,0
56390,-1.4375,-0.6875,0.0625,0
56410,-2.375,-0.5,0.875,0
56430,-0.875,0.5,0.875,0
56450,-3.1875,0.0625,3.0625,0
56470,-0.5,-0.875,2.1875,0
56490,0.125,-1,0.625,0
56510,-0.875,-0.6875,1.5625,0
56530,0.125,-1.8125,0.4375,0
56550,1,-2.25,-1.5,0
56570,0.9375,-1.5625,-2.3125,0
56590,0.1875,-1,-2.6875,0
56610,1.9375,-1.6875,-3.125,0
56630,5.125,-3.125,-3.8125,0
56650,8.4375,-5.125,-5.3125,0
56670,11.0625,-1.625,-7.3125,0
56690,9.5,-0.0625,-4.375,0
56710,6.0625,-1.9375,1.5,0
56730,5.4375,-4.3125,-0.375,0
56750,2.1875,-3.3125,0.9375,0
56770,0.0625,-1.375,4.125,0
56790,-2.9375,1.5,4.3125,0
56810,1.625,3.5,4.125,0
56830,2.8125,3.5,3.8125,0
56850,-2.375,1.1875,2.625,0
56870,-8.25,-0.625,5.3125,0
56890,-7.625,-2.3125,5.6875,0
56910,-3.8125,-1.4375,0.4375,0
56930,-2.6875,-0.0625,1.125,0
56950,-6.8125,1.375,1.8125,0
56970,-1.6875,1.9375,0.75,0
56990,-0.75,-0.9375,1.5625,0
57010,-3.5625,-3.75,0.25,0
57030,-4.9375,-5.9375,1.75,0
57050,-5.1875,-3.625,2.75,0
57070,-4.6875,-3.75,-0.25,0
57090,-4.375,-5.1875,-2.9375,0
57110,-3.5,-4.8125,-4.1875,0
57130,3.25,-1.75,-6.25,0
57150,0.9375,-1.9375,-2.875,0
57170,-4.875,-2.875,2.625,0
57190,-5.3125,-0.8125,2.8125,0
57210,-2.5625,1.875,3.0625,0
57230,-3.625,2.3125,3,0
57240,-6.5625,1.3125,-1.1875,0
57260,-2,0.6875,-5.75,0
57280,6,1.75,-7.6875,0
57300,5.5625,1.375,-3.0625,0
57320,-1.8125,-0.6875,3.75,0
57340,-2,-0.875,4.5,0
57360,0.5,3.9375,4.1875,0
57380,-1.75,4.3125,8,0
57400,-3.1875,4.5,7.5625,0
57420,-5.125,5,1.0625,0
57440,4.6875,4.3125,-3.5625,0
57460,4.75,4.0625,-4.1875,0
57480,-3.875,1.8125,-1.5625,0
57500,-5.75,-1,-0.875,0
57520,-2.6875,-1.6875,1.4375,0
57540,-1.1875,-2.6875,2.375,0
57560,-4.9375,-4.375,2.5,0
57580,-9.125,-4.6875,1.5625,0
57600,-3.0625,-2.125,-2.1875,0
57620,1.9375,0.75,-2.8125,0
57640,0.875,4.0625,-1.625,0
57660,-3.4375,1.875,1.6875,0
57680,1.3125,0.4375,-0.5,0
57700,3.0625,-0.0625,-1.9375,0
57720,1.5625,-0.4375,2.8125,0
57740,1.1875,-1.3125,2.3125,0
57760,-1,-1.4375,0.25,0
57780,3.1875,0.9375,-0.4375,0
57800,3.375,4.3125,0.75,0
57820,-0.875,6.0625,1.75,0
57840,0.625,7.1875,2.625,0
57860,2.6875,5.5,4.6875,0
57880,2.9375,3.9375,1.875,0
57900,-1.875,0.0625,3.625,0
57920,0.3125,-2.4375,2.5,0
57940,1.8125,-4.1875,-1.4375,0
57960,-1.375,-4.5625,-0.8125,0
57980,-2.8125,-3,-2.6875,0
58000,2.0625,-0.25,-5.25,0
58020,1.875,1.8125,-3.5625,0
58040,2.375,4.5,-1.625,0
58060,1.3125,5.3125,1.25,0
58080,0.125,3.5,2.875,0
58100,-2.4375,1.5625,1.625,0
58120,-1.1875,0.3125,2.625,0
58140,-0.75,-0.3125,2,0
58160,-4.1875,-2.3125,0.0625,0
58180,-4.25,-2.9375,-3.625,0
58200,0.25,-1.5,-6.4375,0
58220,1,1.3125,-6.6875,0
58240,-2.4375,2.375,-4.3125,0
58260,-0.8125,3.75,-0.8125,0
58280,1.1875,2.6875,-0.75,0
58300,-1.5,-0.0625,1.3125,0
58320,-3.1875,-2.8125,5,0
58340,-0.8125,-2.5625,4.5625,0
58360,-0.8125,-1.375,5.5,0
58380,-4.375,0.5625,6.0625,0
58400,-2.625,2,1.625,0
58420,2.625,3.9375,-3,0
58440,3.5,4.6875,-3.8125,0
58460,1.625,6.75,-3.6875,0
58480,5.25,7.0625,-3.25,0
58500,6.4375,5.3125,-1.4375,0
58520,4.1875,1,-0.9375,0
58540,0,-2,2,0
58560,-2,-3,5.3125,0
58580,-5,-2.375,7.3125,0
58600,-7.9375,-1.625,7.125,0
58620,-7.75,-1.6875,4.6875,0
58640,-1.5,-0.125,-1.25,0
58660,1.25,0.6875,-6.5,0
58680,1,4.8125,-7.5625,0
58700,1.9375,8.75,-5.3125,0
58720,4.125,6.6875,-2.375,0
58740,6.1875,1.5625,-2.4375,0
58760,2.8125,-2,-0.375,0
58780,0.125,-1.625,3.875,0
58800,-1.9375,-1.375,7.625,0
58820,-4.0625,-0.625,7.4375,0
58840,-4.4375,0.125,6.5625,0
58860,-5.1875,2,5.3125,0
58880,-2.75,3.5,1.625,0
58900,0.375,4.25,-3.9375,0
58920,1.5625,6.125,-6.75,0
58940,4.5625,8.625,-6.75,0
58960,6.0625,5.6875,-2.5,0
58980,6.25,1,-1.6875,0
59000,0.6875,-0.375,-0.5,0
59020,1.9375,-1.9375,3.4375,0
59040,-1.8125,-2.25,6.9375,0
59060,-6.0625,0.625,7.0625,0
59080,-6.375,0.25,7.0625,0
59100,-4.875,0.5625,4.4375,0
59120,-3.375,2.25,0,0
59140,-3.875,1.9375,-3.375,0
59160,-3.1875,3.125,-7.375,0
59180,1.8125,3.3125,-8.0625,0
59200,5,3.25,-5.625,0
59220,4.375,-0.625,-2.25,0
59230,0.1875,-4.9375,0.5,0
59250,0.8125,-6.375,3.25,0
59270,-0.25,-4.75,5.5625,0
59290,-4.1875,-2.9375,7.1875,0
59310,-5,-2.1875,5,0
59330,-1.5625,-0.0625,1.0625,0
59350,-1,2.0625,-1.375,0
59370,-0.8125,3.5625,-4.5625,0
59390,-0.6875,6.25,-5.6875,0
59410,4.3125,7.875,-5.4375,0
59430,4.5,4,-4.3125,0
59450,3.375,-0.5,-2.5,0
59470,0.625,-5.4375,1.8125,0
59490,1.25,-5.3125,3.5,0
59510,-1.75,-4.125,5.5,0
59530,-2.875,-2.5,3.4375,0
59550,-1.8125,-1.0625,-0.375,0
59570,-4.6875,-0.375,-2.4375,0
59590,-1.4375,0.375,-1.625,0
59610,6.8125,0.0625,-1.875,0
59630,4.25,2.25,-2.4375,0
59650,-3.8125,2.5,1.6875,0
59670,-9.875,3.25,6.4375,0
59690,-1.375,4.5,3.1875,0
59710,7.5625,1.3125,-1.9375,0
59730,7.875,-1.375,-5.6875,0
59750,4.8125,-3.875,-6.8125,0
59770,5.125,-4.3125,-8.125,0
59790,5.5,-2.5,-7.3125,0
59810,4.6875,-1.75,-2.9375,0
59830,3.8125,-1,-0.6875,0
59850,0.1875,-0.625,-0.1875,0
59870,-0.1875,1.375,5,0
59890,-0.625,1.6875,7,0
59910,-0.5,1.875,5.1875,0
59930,-3.0625,2.4375,7.3125,0
59950,-0.875,2,6.5625,0
59970,1.1875,1.9375,1.9375,0
59990,1.875,2,-1.3125,0
60010,1.875,3.0625,-1.1875,0
60030,3,2.875,-1.5,0
60050,2.3125,-0.625,-2.8125,0
60070,0.125,-1.9375,-2.8125,0
60090,0.625,-3.5,-2.8125,0
60110,-1.25,-3.5625,-1.625,0
60130,-3.375,-0.5625,-0.75,0
60150,-3.625,0.5625,-1.3125,0
60170,-1.75,0.4375,-2.6875,0
60190,-0.5,2.3125,-4.5,0
60210,1.25,4.5625,-3.1875,0
60230,-0.625,5.5625,1,0
60250,-1.5,5.0625,1.5625,0
60270,1.4375,3.125,1.8125,0
60290,1.8125,1.375,3.4375,0
60310,0.6875,-0.625,2.8125,0
60330,-4.4375,-1.8125,3,0
60350,-5.8125,-1.5,0.1875,0
60370,-0.8125,-1.4375,-1.9375,0
60390,1.25,-0.3125,-5.3125,0
60410,1.875,1.1875,-6.875,0
60430,4.3125,2.9375,-5.625,0
60450,6.5,5.875,-1.5,0
60470,3.6875,4.625,0.1875,0
60490,-2.5,1.8125,4.6875,0
60510,-1.75,-2.5625,7.0625,0
60530,-0.1875,-3.1875,5.25,0
60550,-4.25,-3.625,4.1875,0
60570,-5.625,-4.375,1.5,0
60590,-1.125,-2.3125,-4.6875,0
60610,2.875,0.0625,-5.1875,0
60630,-0.625,3.6875,-2.8125,0
60650,-1.9375,5.875,-3.375,0
60670,6.125,7.875,-1.375,0
60690,6.8125,5.875,-0.75,0
60710,4,1.8125,0.125,0
60730,-0.1875,-1.6875,4.5625,0
60750,1.5625,-3,5.1875,0
60770,-1,-2.6875,5.5625,0
60790,-6.625,-2.3125,6.5,0
60810,-5.125,-3.25,1.8125,0
60830,1.0625,-3,-6.0625,0
60850,2,-0.625,-7.9375,0
60870,-2.9375,4.3125,-7,0
60890,-0.75,6.3125,-8.0625,0
60910,6.25,5.3125,-8.3125,0
60930,5.75,0.6875,-6.1875,0
60950,1.8125,-2.5,-2.25,0
60970,-1.1875,-3.4375,2.375,0
60990,-2.3125,-3.625,4.1875,0
61010,-7.75,-1.25,6.625,0
61030,-11.625,-0.625,6.375,0
61050,-6.25,0.6875,0.4375,0
61070,-3.9375,0.8125,-1.9375,0
61090,-3.875,0.3125,-3.25,0
61110,-1.3125,1.25,-5.1875,0
61130,1.3125,1.375,-4.1875,0
61150,-0.0625,0.25,-5.3125,0
61170,-3.1875,0.75,-3.5,0
61190,-1.375,1.4375,0.5,0
61210,6.1875,0.9375,-2.8125,0
61230,8.375,-2.8125,-6.5,0
61250,7.625,-3.875,-5.625,0
61270,7.8125,-2.75,-4.625,0
61290,5.9375,-1.75,-4.9375,0
61310,5.3125,-2.125,-3.8125,0
61330,6.5625,-2.5,-5.9375,0
61350,6.6875,-2.3125,-7.375,0
61370,3.875,-3.1875,-6.9375,0
61390,1.5625,-3.375,-5.875,0
61410,2.0625,-3.25,-5.4375,0
61430,3.3125,-1.625,-3.0625,0
61450,0.8125,-1.4375,-1.0625,0
61470,-2.0625,-2.125,1.375,0
61490,-1.125,-4.3125,4.5,0
61510,-1.75,-4.4375,4.125,0
61530,-0.375,-4.6875,4.125,0
61550,-0.6875,-3.125,3.625,0
61570,-1.25,-0.9375,4.1875,0
61590,-0.1875,0.9375,2.6875,0
61610,2.6875,1.9375,1.375,0
61630,2.9375,3.625,-0.75,0
61650,0.8125,5.75,-1.25,0
61670,2.5,5.8125,0.5,0
61690,4.5,4.75,1.625,0
61710,0.75,3.375,3,0
61730,-0.625,1.5625,3.5625,0
61750,0.9375,-1,2.75,0
61770,-1.375,-1.6875,2,0
61790,-4.5,-2.4375,2.4375,0
61810,-3.25,-3.3125,-0.25,0
61830,-0.0625,-3.4375,-2.75,0
61850,1.0625,-2.1875,-3.6875,0
61870,0.375,-0.75,-3.6875,0
61890,2.5,3.3125,-2.125,0
61910,4,3.6875,-1.0625,0
61930,1.0625,1.4375,-0.5625,0
61950,-0.75,-1.0625,1.1875,0
61970,-0.5,-0.9375,3.125,0
61990,-4.0625,-0.75,4.625,0
62010,-5.75,-1.625,4.1875,0
62030,-4.4375,-1.6875,2,0
62050,0.125,0.0625,-1.375,0
62070,-2.6875,2.125,-1.9375,0
62090,-5.9375,4.5,-1.5625,0
62110,-2.0625,5.4375,-2.1875,0
62130,6.6875,4.25,-4.5,0
62150,6.75,1.125,-2.9375,0
62170,2.6875,-2.75,0.0625,0
62190,0.1875,-3.5,3.5625,0
62210,-1.0625,-2.8125,6.6875,0
62230,-3.25,-1.8125,8.6875,0
62250,-5.75,-2.0625,7.25,0
62270,-4.4375,-2.25,3.125,0
62290,1.0625,-0.5,-2.0625,0
62310,4.1875,1.6875,-6.875,0
62330,2.4375,4.3125,-7.375,0
62350,3.375,5.875,-5.875,0
62370,6,6.4375,-2.1875,0
62390,4.25,5.25,0.625,0
62410,-1.375,2.5625,3.5625,0
62430,-0.1875,0,6.0625,0
62450,1.125,-1.1875,6.8125,0
62470,-3.0625,-1.3125,7.75,0
62490,-5.75,-1.9375,5.8125,0
62510,-3.9375,-3.1875,0.875,0
62530,-0.0625,-3.5625,-4.5,0
62550,2,-2.6875,-7.1875,0
62570,2,-0.375,-8.6875,0
62590,4.8125,1.4375,-7.1875,0
62610,5.0625,2,-3.3125,0
62630,2.875,0.125,0.3125,0
62650,-0.75,-2.8125,4.6875,0
62670,-2.5625,-3.125,7.8125,0
62680,-2.9375,-2.875,7.875,0
62700,-5.1875,-1.8125,7.625,0
62720,-5.875,-0.8125,3,0
62740,-0.875,0.9375,-3.3125,0
62760,-0.125,2.375,-7.75,0
62780,0.4375,4.75,-8.6875,0
62800,0.875,5.4375,-9.5625,0
62820,3.625,4.5,-10.0625,0
62840,7.5625,5.4375,-6.5,0
62860,4.8125,4.0625,-1.9375,0
62880,1.125,1,1.625,0
62900,-3.5625,-2.6875,5.3125,0
62920,-5.375,-3.625,9,0
62940,-6.625,-2.1875,7.5625,0
62960,-6.125,-2.625,3.9375,0
62980,-2,-3.25,-1.375,0
63000,-1.25,-3.125,-7.1875,0
63020,0.0625,-2.9375,-7.3125,0
63040,3.0625,-1.8125,-5.6875,0
63060,3.4375,1.5625,-4.0625,0
63080,-0.1875,2.5625,-1.875,0
63100,-2.875,2.875,3.125,0
63120,-0.25,4.75,3.375,0
63140,2.5,5.125,0.625,0
63160,3.5,2.3125,0.125,0
63180,5.6875,2.0625,-1.125,0
63200,5.75,1.875,-1.8125,0
63220,3.5,1.125,-0.6875,0
63240,2.125,-0.375,-1.8125,0
63260,1.75,-0.1875,-3,0
63280,1.75,0.375,-3.9375,0
63300,0.5625,1.625,-2.6875,0
63320,-0.9375,1.625,-1.625,0
63340,-0.8125,-0.375,-2.0625,0
63360,-0.5625,-0.75,-0.5625,0
63380,-0.375,-1.1875,3.25,0
63400,0.375,-3.375,4.25,0
63420,-4,-5.6875,3.1875,0
63440,-4.875,-6.75,4.4375,0
63460,-2.875,-6.375,2.625,0
63480,-1.375,-4.6875,-0.1875,0
63500,-0.875,-4.25,-0.3125,0
63520,1.8125,-2.625,-0.875,0
63540,3.625,0.3125,-2.8125,0
63560,0.75,3.3125,-2.3125,0
63580,-1.6875,6.3125,0.25,0
63600,2.4375,7.25,2.5625,0
63620,6.75,4.125,2.8125,0
63640,4.625,1.5625,2.625,0
63660,-1.625,-1.625,5.3125,0
63680,-1,-2.3125,4.375,0
63700,-1.5625,-1.0625,4.375,0
63720,-3.0625,-2.5625,3.5625,0
63740,-1.375,-4.9375,0.125,0
63760,0.5625,-5.375,-2.625,0
63780,-1.5625,-2.8125,-2.4375,0
63800,-4.5,1.3125,-1.375,0
63820,-1.8125,5.125,-1,0
63840,4.3125,5.75,-2.0625,0
63860,6,3.5625,-1.4375,0
63880,3.875,-0.5,-0.6875,0
63900,0.5,-1.25,-1.625,0
63920,0.375,-1,1.9375,0
63940,-1.4375,1.5625,3.5625,0
63960,-3.375,2.25,1.875,0
63980,-2.0625,1.4375,-0.75,0
64000,1.5,1.875,-4.625,0
64020,0.625,3.8125,-3.625,0
64040,-4.5,7.1875,-3.0625,0
64060,-3.125,8.5,-2.5,0
64080,2,6.5625,-3.4375,0
64100,3.6875,3.8125,-3.25,0
64120,3.0625,-2.125,-1.875,0
64140,1,-6.25,-2.125,0
64160,-0.1875,-6.5625,0.5,0
64180,-3,-5.5625,4.5625,0
64200,-4.0625,-4.0625,4.5,0
64220,-3.9375,-4.4375,3.4375,0
64240,-1.0625,-3.3125,1.3125,0
64260,0.4375,-1.875,-0.6875,0
64280,-0.6875,1.5,-1.3125,0
64300,-1.25,4.5625,-0.75,0
64320,1.875,4.4375,-0.0625,0
64340,4.875,2.0625,0.25,0
64360,3.4375,0.375,0.6875,0
64380,2.6875,-1.6875,2.125,0
64400,1.9375,-3.3125,3.375,0
64420,-1.5,-2.125,3.3125,0
64440,-2.0625,-0.8125,3.9375,0
64460,-2,0.4375,1.6875,0
64480,-1.375,0.1875,-2.375,0
64500,-0.0625,0.8125,-4.4375,0
64520,-2.375,4.375,-4.8125,0
64540,-0.6875,7,-3.125,0
64560,0.9375,6.0625,-0.5625,0
64580,2.5,2.875,0.5625,0
64600,0.0625,-1.5625,2.4375,0
64620,-1.1875,-4.8125,3.75,0
64640,-2.125,-5.25,3.375,0
64660,-2.75,-3.4375,3.3125,0
64670,-0.875,-3,-0.8125,0
64690,-0.625,-2.3125,-4.3125,0
64710,0.375,-2.625,-4.1875,0
64730,2.25,-0.875,-6.1875,0
64750,3.3125,1.375,-4.0625,0
64770,0.75,2.1875,-3,0
64790,-0.1875,3.75,-2,0
64810,-1.3125,6.875,1.875,0
64830,3.875,7.875,0.625,0
64850,9.1875,4.6875,-3.8125,0
64870,9.625,0.6875,-4.5625,0
64890,7.25,-2.625,-5.5625,0
64910,4.5,-2.6875,-5.625,0
64930,3.1875,-2.6875,-5.125,0
64950,3.875,-2.1875,-5.5625,0
64970,3.625,-1.75,-1.5625,0
64990,-2.125,-1.125,2.625,0
65010,-5.4375,-0.75,3.4375,0
65030,-4.875,-0.8125,7.8125,0
65050,-4,0,5.9375,0
65070,-4.9375,-1.125,4.125,0
65090,-6.5,-2,4.5,0
65110,-4.375,-3.625,2.1875,0
65130,2.8125,-2.75,-2.5,2000
65150,7.0625,0.9375,-3.5625,0
65170,-0.25,1.625,0.3125,0
65190,-5.125,2.75,2.25,0
65210,-1.25,4.375,4.1875,0
65230,0.5625,4.375,2.5,0
65250,-1.5,1.5,0.625,0
65270,-3,0.125,0.9375,0
65290,0.5,0.125,-3,0
65310,4.625,1.3125,-7.4375,0
65330,6,1.5625,-5.375,0
65350,2.6875,2.6875,-1.25,0
65370,-0.6875,0.5,1.6875,0
65390,-2.0625,-1.4375,2.75,0
65410,-2,-2.6875,6.5,0
65430,-2.3125,-3.5625,6.3125,0
65450,-6.3125,-6.125,3.875,0
65470,-6.375,-6.6875,1.1875,0
65490,-3,-5.9375,-3,0
65510,0.875,-4.5,-6.75,0
65530,2.125,-2,-8.25,0
65550,1.5,0.5,-2.8125,0
65570,-2.25,2.5625,1.75,0
65590,-3.9375,1.9375,4.3125,0
65610,-2.0625,1.75,8.625,0
65630,0.375,0.8125,8.5,0
65650,-2.25,0.125,8.4375,0
65670,-5.125,-0.5625,7.8125,0
65690,-4.5,-0.4375,3.8125,0
65710,1.1875,0.875,-1.6875,0
65730,2.75,1,-5.4375,0
65750,5.3125,2.9375,-5,0
65770,4.4375,3.375,-2,0
65790,0.5,2.625,0.6875,0
65810,-0.9375,1.625,4,0
65830,2.3125,-1.375,6.8125,0
65850,1.25,-2.0625,6.875,0
65870,-3.5625,-2.8125,9.3125,0
65890,-3.625,-2.375,5.25,0
65910,0.5625,-2.1875,-0.5,0
65930,3.0625,-1.875,-2.9375,0
65950,3.625,-2.0625,-5.5,0
65970,3.0625,-0.25,-6.75,0
65990,4.625,3,-4.8125,0
66010,5.5,3.4375,-1.125,0
66030,2.875,0.3125,1.9375,0
66050,1.5625,-3.5,3.6875,0
66070,3,-3.75,4.4375,0
66090,2.125,-2.6875,5.625,0
66110,1.3125,-1.625,5.125,0
66130,1.0625,0.3125,2.6875,0
66150,-2.6875,0.75,-0.3125,0
66170,-4.5,3.25,-0.3125,0
66190,2.6875,1.125,-2.8125,0
66210,2.9375,1.6875,-5,0
66230,-4.4375,1.9375,-4.9375,0
66250,-8.25,4.9375,-0.25,0
66270,-3.125,7.1875,1.3125,0
66290,2.9375,8,-4.0625,0
66310,4.8125,5.625,-7.25,0
66330,7.75,2.8125,-7.25,0
66350,12.6875,-0.9375,-9.3125,0
66370,3.0625,-4.375,-10.4375,0
66390,-4.9375,-5.875,-5.25,0
66410,-5.6875,-6.375,-3.375,0
66430,-4.1875,-4.875,-5.6875,0
66450,-4.5625,-5.125,-4.9375,0
66470,-4.25,-5.1875,-5.25,0
66490,-0.125,-5,-6.375,0
66510,-2.25,-3.0625,-2.9375,0
66530,-7.9375,-1.875,3.8125,0
66550,-10.4375,-0.5,5.375,0
66570,-3.75,0.5625,4.5625,0
66590,-0.5,-0.3125,4,0
66610,-3.125,0.1875,3.375,0
66630,0.5,0.6875,0.4375,0
66650,6.75,2.5,-2.1875,0
66670,3.6875,4.5,-2.125,0
66690,1.25,6.3125,1.6875,0
66710,0.625,7.75,3.5625,0
66730,2.0625,6.25,3.375,0
66750,3.25,3.25,4.5,0
66770,3.9375,0.9375,5.3125,0
66790,1.375,-1.6875,3.625,0
66810,-1.25,-2.3125,2.1875,0
66830,0.4375,-2.5625,-0.5625,0
66850,4.625,-3.25,-4.4375,0
66870,5,-2.375,-6.5,0
66890,5,0.1875,-6.125,0
66910,2.25,2.625,-2.5,0
66930,-3.3125,3.8125,0.9375,0
66950,-3.9375,3.3125,3.375,0
66970,-1.4375,2.5625,3.3125,0
66990,-2.25,0.4375,4.25,0
67010,-7,0.25,3.8125,0
67030,-5.6875,-0.25,-0.1875,0
67050,-0.5,-0.6875,-5.1875,0
67070,1.0625,-0.6875,-6.8125,0
67090,0.0625,2.5625,-7.9375,0
67110,1.5625,4.25,-6.5,0
67130,2.625,6.3125,-3.375,0
67150,1.125,4.75,0.0625,0
67170,-1,2.0625,3.0625,0
67190,-0.5625,-1.125,6.4375,0
67210,-1.3125,-2.625,6.4375,0
67230,-4.75,-2.5625,7.25,0
67250,-2.875,-2.6875,4.25,0
67270,3.25,-2.6875,-2.1875,0
67290,3.5,-0.75,-3.5625,0
67310,2.875,2.6875,-2.8125,0
67330,2,5,-0.3125,0
67350,0.9375,4.625,1.4375,0
67370,0.9375,2.0625,3.125,0
67390,1.75,0.625,5.5,0
67410,-0.125,-0.3125,4.5625,0
67430,0.625,-2.0625,2.1875,0
67450,3.5,-1.8125,-0.5,0
67470,-0.3125,-2.1875,-3,0
67490,-4.4375,-2.0625,-4.125,0
67510,1.875,-1.625,-3.1875,0
67530,6.8125,-0.875,-6.375,0
67550,1.0625,-0.5625,-7.375,0
67570,-4.1875,1.1875,-0.0625,0
67590,-1.9375,5.5625,0.9375,0
67610,4.875,7.8125,-3.6875,0
67630,6.0625,6.8125,-0.875,0
67650,9.75,3.1875,-1.25,0
67670,10.5,-0.25,-4.875,0
67690,-0.125,-1.6875,-4.3125,0
67710,-4.375,-1,-0.125,0
67730,-4.375,-0.125,0.5,0
67750,-2.5625,-0.5625,-2.5,0
67770,-2.5625,-1.625,-1.625,0
67790,-4.5,-0.125,-0.8125,0
67810,-2.9375,1.5625,-0.375,0
67830,-1.375,3.25,1.3125,0
67850,-1.625,5.375,5.25,0
67870,-3.75,5.6875,8.5625,0
67890,-3.6875,2.625,8.375,0
67910,-1.1875,-0.875,6.25,0
67930,0.25,-3.875,4.125,0
67950,-1.625,-4.8125,2.625,0
67970,-0.9375,-4.3125,-0.5,0
67990,2.125,-3.75,-3.5625,0
68010,6.1875,-2.3125,-6.375,0
68030,4.1875,0.125,-6.875,0
68050,3,3.9375,-2.3125,0
68070,4.125,6.125,0.4375,0
68090,0.75,4.875,2.375,0
68110,-2.75,2.1875,4.6875,0
68120,-0.625,0.25,5.5625,0
68140,2.4375,0,5.1875,0
68160,-0.375,0.375,3.875,0
68180,-1.1875,0.375,0.75,0
68200,2.875,-1.0625,-2.75,0
68220,4.5,-3.1875,-8.1875,0
68240,4.75,-0.625,-9.5,0
68260,2.375,1.6875,-7.3125,0
68280,0.75,4.3125,-5.375,0
68300,1.625,5.0625,-1,0
68320,5.125,4.0625,3.4375,0
68340,0.625,0.5,2.75,0
68360,-3.6875,-4.625,5.0625,0
68380,-0.0625,-6.5,2.125,0
68400,3.125,-6.0625,0.375,0
68420,0.8125,-5.8125,0.875,0
68440,-2.0625,-5.6875,1.75,0
68460,-1.8125,-5.5625,1.0625,0
68480,-1.6875,-2.25,0.1875,0
68500,-2.875,2.0625,0.9375,0
68520,-3.125,5.3125,0.5,0
68540,-3.1875,5.3125,-2.375,0
68560,-5,6.25,-3.875,0
68580,-6.875,8.25,-2,0
68600,-4.75,6.6875,2.625,0
68620,-1.875,3.125,-0.5,0
68640,-4.5625,-0.6875,1,0
68660,-3.6875,-2.1875,3.9375,0
68680,-2.0625,-2.375,0.75,0
68700,-5,-3.5,-1.75,0
68720,-5.1875,-3.0625,-1.25,0
68740,-3,-4.125,-4.5,0
68760,-2.4375,-4.5625,-7.1875,0
68780,-3.6875,-4.125,-6.4375,0
68800,-3.9375,-2,-3.875,0
68820,-3.1875,-0.125,-0.1875,0
68840,-3.3125,-2.6875,3.5,0
68860,-3.8125,-4.5625,4.5,0
68880,-1.0625,-5.75,5.875,0
68900,0.75,-7.3125,4.5,0
68920,-0.625,-7,1.25,0
68940,-0.1875,-6.1875,-0.1875,0
68960,1.625,-3.0625,-3.9375,0
68980,4.5625,0.1875,-6.1875,0
69000,0.3125,2.1875,-8,0
69020,-2.8125,4.375,-7.5,0
69040,-2.4375,7.4375,-3.75,0
69060,-2.5625,8.3125,0.1875,0
69080,-1.25,4.5,-1.125,0
69100,-1.0625,-1.5625,-0.1875,0
69120,2.1875,-3,-0.3125,0
69140,2.5,-4.1875,-1.6875,0
69160,2.875,-5.25,-2,0
69180,5.9375,-4.5625,-2.5,0
69200,6.25,-2.3125,-3.1875,0
69220,2.375,2.625,-1.75,0
69240,1.6875,7.75,1,0
69260,2.875,8.9375,2.1875,0
69280,0.625,7.0625,3.4375,0
69300,0.0625,-0.6875,4.1875,0
69320,0,-4.8125,2.25,0
69340,1.125,-5.6875,3.25,0
69360,-1.3125,-5.625,4.875,0
69380,-2.3125,-5.3125,3.75,0
69400,0,-4.25,0.25,0
69420,-0.1875,-2.8125,-0.9375,0
69440,-3.5,1.4375,-0.9375,0
69460,-4.375,6.0625,-1.1875,0
69480,-2.0625,6.3125,-1.1875,0
69500,-1.6875,5.0625,-0.625,0
69520,-1.375,2.4375,-0.8125,0
69540,-1.4375,2.875,-1.8125,0
69560,-0.75,3,-0.1875,0
69580,0.0625,3.625,0.5,0
69600,-0.875,1.3125,-1.375,0
69620,-4.5,0.875,-3.625,0
69640,-2.125,0.75,-2.5625,0
69660,2.875,0.875,-3.75,0
69680,0.5,1.8125,-5.6875,0
69700,-4.125,0.625,-3.0625,0
69720,-2.9375,2.0625,-0.5,0
69740,2.0625,4.25,-2.8125,0
69760,4.6875,3.4375,-4.3125,0
69780,5.5,1.0625,-4.125,0
69800,7.0625,0,-5.25,0
69820,12.3125,-4.1875,-3.625,0
69840,3.5,-7.375,-1.1875,0
69860,-6.8125,-6.25,2.5,0
69880,-7.0625,-2.9375,8.625,0
69900,-1.3125,0.375,7.5625,0
69920,-1.3125,1.375,5.75,0
69940,-0.875,1.3125,7.125,0
69960,-1.0625,2.375,3.5625,0
69980,0.375,4.125,0.5,0
70000,2.625,6.3125,-0.375,0
70020,1.125,6.6875,-1.25,0
70040,2.8125,5.5,-1.625,0
70060,6.0625,0.6875,-0.9375,0
70080,5.5,-3.375,-3.8125,0
70090,1.375,-5.5,0.75,0
70110,0.4375,-3.4375,6.1875,0
70130,-0.375,-3.9375,6.0625,0
70150,-3.5625,-3.9375,6,0
70170,-7.6875,-2.125,6.625,0
70190,-4.6875,0.9375,3.5,0
70210,-2.6875,1.875,0.3125,0
70230,-6.0625,-0.125,2.625,0
70250,-7.0625,-1.125,1.625,0
70270,-5.5,-0.875,-0.1875,0
70290,-1.625,-1.5625,-2.3125,0
70310,0.625,-2.625,-3.1875,0
70330,4.3125,-2.375,-5.375,0
70350,5.125,0.0625,-6.1875,0
70370,2.625,4.9375,-5.8125,0
70390,0.1875,7.375,-3.375,0
70410,0.875,6.375,-2.375,0
70430,2.9375,4.375,-1.3125,0
70450,-0.875,2.0625,-0.1875,0
70470,-3.9375,1.3125,1.9375,0
70490,0.5,0.8125,3,0
70510,0.9375,0.8125,1.5625,0
70530,0.875,-0.3125,1.125,0
70550,0.625,-0.25,-0.25,0
70570,0.5625,1.25,-1.9375,0
70590,-0.875,3.625,-0.8125,0
70610,0.25,4.625,-0.1875,0
70630,0.1875,4.5625,0.0625,0
70650,-1.3125,3,1.5,0
70670,0.375,-1.125,1.875,0
70690,0.5,-2.75,0.75,0
70710,-0.9375,-3.3125,2.0625,0
70730,0.375,-2.6875,2,0
70750,3.375,-1.4375,-0.3125,0
70770,1.4375,-1.4375,0.5,0
70790,-2.5,2,1.625,0
70810,-1.5625,5.75,0.4375,0
70830,1.8125,5.9375,-1.0625,0
70850,2.5,4.125,-0.875,0
70870,1.1875,1.625,0.4375,0
70890,1.1875,-0.5625,-0.0625,0
70910,2.125,-2.3125,-0.1875,0
70930,2.8125,-3.8125,-1.25,0
70950,2.8125,-2.375,-0.75,0
70970,-0.375,-0.3125,-0.25,0
70990,-2.9375,-0.25,-3.25,0
71010,-2.0625,-0.375,-5.25,0
71030,-0.5625,0.875,-4.6875,0
71050,-2.25,2.375,-4.8125,0
71070,-3.75,2.3125,-4.25,0
71090,-3.25,1.25,-3.9375,0
71110,-0.875,2.5,-4.0625,0
71130,2.8125,3.25,-3.6875,0
71150,3.9375,2.6875,-5.1875,0
71170,5.25,1.0625,-6.0625,0
71190,7.1875,-0.5625,-5.4375,0
71210,7.75,-2.9375,-5.375,0
71230,6.375,-5,-2.6875,0
71250,1.875,-7.125,-1.3125,0
71270,1.4375,-7.75,1.4375,0
71290,1.9375,-6.9375,6.1875,0
71310,-2.1875,-5,5.8125,0
71330,-5,-4.3125,6.9375,0
71350,-2.0625,-3.6875,8.5,0
71370,0.0625,-2.8125,4.625,0
71390,0.4375,-3.5,0.4375,0
71410,1.4375,-4.5625,-0.25,0
71430,3.75,-4,-0.6875,0
71450,5.1875,-3.0625,-3.3125,0
71470,6,-2.625,-6,0
71490,4.75,-0.6875,-3.875,0
71510,4.8125,2.9375,0,0
71530,8.375,5.8125,3.125,0
71550,5.875,3.9375,4.4375,0
71570,2.125,1.0625,5.3125,0
71590,2.75,2.125,6.875,0
71610,2.375,3.875,5.3125,0
71630,0.8125,3.5625,3.125,0
71650,-1.875,2.0625,1,0
71670,-1.4375,0.9375,-4.0625,0
71690,-2,1.6875,-7.6875,0
71710,-3.8125,4.6875,-7.4375,0
71730,-2.375,7.125,-7.25,0
71750,1.4375,8.6875,-6.375,0
71770,2.875,6.625,-3.25,0
71790,-0.5625,4.1875,-0.9375,0
71810,0.0625,1.8125,0.25,0
71830,1.875,1.25,0.25,0
71850,1.375,1.375,0.0625,0
71870,-0.9375,2.4375,-0.6875,0
71890,-3.75,2.25,-2.3125,0
71910,-6.75,2,-3.5,0
71930,-7.6875,3.375,-5.0625,0
71950,-6.5625,5.0625,-4.3125,0
71970,-6.625,7.375,-3.3125,0
71990,-6.5625,9.6875,-1.1875,0
72010,-4.75,10.8125,0.9375,0
72030,-0.625,10.125,0.8125,0
72050,4.75,7.6875,0.1875,0
72070,9.75,3.3125,-1.3125,0
72090,8.9375,0.9375,-1.25,0
72110,5.4375,-0.625,0.0625,0
72130,2.6875,-2,1.375,0
72150,-0.875,-3.0625,1.6875,0
72170,-2,-2.8125,1,0
72190,-1.375,-2.1875,0.4375,0
72210,-0.875,-1.25,-0.3125,0
72230,0.1875,-1.625,-1.6875,0
72250,3.625,-1.875,-1.875,0
72270,3.5625,-2.3125,-1.75,0
72290,1.9375,-2.75,0.3125,0
72310,2.25,-3.0625,1.125,0
72330,1.3125,-3.125,2,0
72350,-0.875,-1.75,3.5625,0
72370,-0.3125,-2.3125,1.9375,0
72390,-1,-3.25,0.0625,0
72410,-4.0625,-4.25,-0.25,0
72430,-5.375,-5.5625,-5.0625,0
72450,-2.125,-4.5,-5.0625,0
72470,0.0625,-3.1875,-3.9375,0
72490,-0.875,-1.75,-6.6875,0
72510,0.5,2.6875,-4.625,0
72530,5.25,1.9375,0.125,0
72550,3.3125,-4.375,-3.4375,0
72570,0.3125,-7.875,-2.8125,0
72590,-1.6875,-9.4375,5.0625,0
72610,-2.5,-7.1875,3.75,0
72630,-0.9375,-6.0625,-0.0625,0
72650,-1.375,-4.5625,-0.5625,0
72670,-1.75,-3.125,-3.4375,0
72690,2.8125,-0.6875,-5.75,0
72710,5.5625,-0.0625,-7.125,0
72730,6.75,-0.9375,-8.9375,0
72750,2.3125,0.0625,-5.0625,0
72770,-2.75,2,-0.125,0
72790,-3.6875,4.1875,1.3125,0
72810,2.4375,6.375,3.1875,0
72830,8.0625,4.75,4.375,0
72850,6.6875,1.1875,2.1875,0
72870,2.1875,-1.3125,2.125,0
72890,2,-1,5.3125,0
72910,2.5,0.125,5.1875,0
72930,1.875,-0.875,2.4375,0
72950,1.625,-3.9375,0.125,0
72970,2,-3.3125,-3.5625,0
72990,2.875,-2.3125,-5,0
73010,1.875,-1.1875,-4.375,0
73030,0.5625,0.8125,-2.875,0
73050,2.125,1.625,-2.375,0
73070,6,2.1875,-3.1875,0
73090,8.0625,-0.5625,-2.1875,0
73110,4.875,-3.8125,-0.875,0
73130,2.8125,-6.3125,0,0
73150,1.5,-5.8125,1.75,0
73170,1.375,-5.5,1.8125,0
73190,2.0625,-2.75,-0.1875,0
73210,2.1875,-2.3125,-0.0625,0
73230,2,-1.75,-2.75,0
73250,-0.8125,1.375,-1.25,0
73270,-1.9375,2.4375,1.5625,0
73290,-1.375,0.9375,2.4375,0
73310,-3.8125,-0.4375,2.6875,0
73330,-4.0625,-0.4375,0.4375,0
73350,-4.9375,0.625,-0.25,0
73370,-3.5,0.125,0.3125,0
73390,-3,-2,-2.75,0
73410,-3.5,-4.625,-5.6875,0
73430,-4.5,-5.0625,-6.4375,0
73450,-5.25,-6.4375,-5.5625,0
73470,-6.3125,-6.1875,-5.125,0
73490,-8.5625,-5.625,-2.875,0
73510,-8.4375,-5.1875,-1,0
73530,-7.9375,-2.125,-1,0
73540,-6.625,1.75,1.6875,0
73560,-3.0625,3.4375,2.25,0
73580,-0.9375,3.5625,1.3125,0
73600,1.25,4.875,1.9375,0
73620,4,4.6875,2.9375,0
73640,7,2.875,0.625,0
73660,9.0625,0.75,-1,0
73680,7.5,1.5625,-1.25,0
73700,4.8125,3.1875,0,0
73720,5,3.25,-0.0625,0
73740,6.6875,3.375,-1.375,0
73760,4.75,3.875,-1.4375,0
73780,4.25,2.875,-2.6875,0
73800,4.5625,1.9375,-2.4375,0
73820,3.125,1.1875,-3.875,0
73840,0.6875,0.3125,-3.5,0
73860,-1.1875,-1.625,-1.375,0
73880,-1.875,-2.375,-1.8125,0
73900,-2.3125,-2.875,-0.3125,0
73920,-2.75,-4.0625,0.75,0
73940,-3.6875,-3.6875,1.1875,0
73960,-3.4375,-3.5,1.3125,0
73980,-2.1875,-1.875,0.9375,0
74000,-2.125,-0.3125,-0.0625,0
74020,-3.0625,0.6875,-0.8125,0
74040,-1.5,1.5,-1.625,0
74060,0.9375,2.3125,-1.6875,0
74080,-0.625,3.1875,-1,0
74100,-0.4375,2.9375,-0.5625,0
74120,0.6875,2.5,0.5625,0
74140,-0.6875,3.125,1.25,0
74160,-0.75,2,1.4375,0
74180,-0.5625,1.25,2.3125,0
74200,-0.375,1.75,2.375,0
74220,0.0625,1.1875,0.8125,0
74240,-0.5,-0.4375,0.4375,0
74260,-0.5625,-2.0625,-0.125,0
74280,-0.5,-1.1875,-0.4375,0
74300,-0.75,-0.5,0.5625,0
74320,-0.875,0.1875,0.5,0
74340,-0.625,-0.5,-0.375,0
74360,-0.8125,0.3125,-0.0625,0
74380,-1.375,1.9375,0.0625,0
74400,-1.25,2.875,0.375,0
74420,-0.9375,3.5,0.125,0
74440,-1.1875,4.1875,0.25,0
74460,-1.125,4.375,0.25,0
74480,-0.375,3,-1.4375,0
74500,0.75,3.4375,-1.3125,0
74520,0.6875,3.5,-0.625,0
74540,-0.5625,3.3125,-1.3125,0
74560,-1,2.8125,-0.75,0
74580,-0.6875,2.625,0.3125,0
74600,-0.5,2.875,0.0625,0
74620,-0.9375,1.4375,-0.625,0
74640,-1.375,0.5,-0.625,0
74660,-1.5,0.125,0,0
74680,-1.8125,-0.8125,-0.625,0
74700,-2.0625,-0.625,-0.3125,0
74720,-1.8125,0.125,0.5625,0
74740,-1.3125,0.9375,0.375,0
74760,-2.3125,0.75,0.0625,0
74780,-3.0625,1.5625,2,0
74800,-2.125,0.25,1.4375,0
74820,-1,-1,-0.0625,0
74840,-0.75,-1.625,1.8125,0
74860,-2.375,-2,1.1875,0
74880,-3.5625,-0.9375,2.0625,0
74900,-0.125,-2.25,2.875,0
74920,-0.5,-3.75,-0.375,0
74940,-6.5,-4.5625,0.875,0
74960,-8.3125,-2.3125,3.4375,0
74980,-5.875,-0.875,2.4375,0
75000,-4.125,-2.3125,0.9375,0
75020,-6.125,-3,1.5,0
75040,-7.5625,-2,1.0625,0
75060,-6.8125,-2.5625,-1.875,0
75080,-7.8125,-1.625,-2.0625,0
75100,-5.1875,-0.75,-2.9375,0
75120,-2.75,-0.75,-3.6875,0
75140,-4.4375,0.5625,-4.25,0
75160,-2.75,1.6875,-2.8125,0
75180,-0.375,2.9375,-2.8125,0
75200,2.3125,4.3125,-3.5,0
75220,2.5625,3.6875,-1.0625,0
75240,2.5,2,0.5,0
75260,3.4375,0.375,1.125,0
75280,4.375,0.625,1.125,0
75300,3.375,1.6875,2.3125,0
75320,2.8125,0.625,2.6875,0
75340,5.5625,0.875,3.9375,0
75360,5.3125,1.875,3.3125,0
75380,3.375,2.6875,3,0
75400,1.5625,1.125,3.8125,0
75420,0.6875,0.3125,2.4375,0
75440,1.0625,0.375,2.1875,0
75460,0.8125,0.6875,0.3125,0
75480,-1.4375,0.8125,-1.25,0
75490,-1.625,0.25,-0.875,0
75520,-0.5,-0.25,-2.75,0
75540,-0.375,0.5625,-3.375,0
75550,-2.125,2.0625,-3,0
75570,-0.25,1,-1.625,0
75590,-0.9375,1.8125,-1.0625,0
75610,-4,2.3125,0.125,0
75630,-3.75,1.6875,0.375,0
75650,-2,0.9375,-1.25,0
75670,-0.875,-1.0625,-1.625,0
75690,-2.0625,-2.0625,-1.75,0
75710,-2.125,-3.625,-2.1875,0
75730,-1.8125,-2.25,-3.3125,0
75750,-1,-3.1875,-2.5625,0
75770,1.5,-2.4375,-1.1875,0
75790,4.25,0.0625,-2.8125,0
75810,3.875,3,-3.25,0
75830,2.75,3.6875,-3.0625,0
75850,2.625,1.75,-0.1875,0
75870,3.1875,1.5,0.875,0
75890,2.5,4.5,0.4375,0
75910,0.5625,5.25,0.875,0
75930,0.3125,4.25,0.25,0
75950,1,2.3125,0.0625,0
75970,1.125,1.625,-0.1875,0
75990,0,0.8125,-2,0
76010,-1.5625,0.0625,-1.625,0
76030,-1.6875,-0.25,0.1875,0
76050,-1,-1.8125,1.0625,0
76070,-0.9375,-2,0.5,0
76090,-1.875,-1.5625,0.125,0
76110,-1.5,-0.3125,0.1875,0
76130,-1,-1,-0.625,0
76150,0.5,-2.3125,-1,0
76170,-1.25,-3,0.4375,0
76190,-2.6875,-0.8125,0.625,0
76210,-0.6875,0,0.25,0
76230,1.9375,-1,-0.1875,0
76250,-1.0625,-1.25,-0.75,0
76270,-0.875,0.3125,1.4375,0
76290,1.375,-0.4375,2.375,0
76310,-0.1875,-2.375,-0.1875,0
76330,-2.875,-3,2.0625,0
76350,-2.3125,-1.75,5.6875,0
76370,-0.375,-1.625,5.0625,0
76390,-0.4375,-1.625,4.8125,0
76410,-0.625,0.8125,7.25,0
76430,-0.75,2.0625,6.8125,0
76450,1.3125,2.5,2.875,0
76470,1.625,2.875,-0.4375,0
76490,2.1875,3.5625,-0.5625,0
76510,1.9375,1.375,-1,0
76530,-1.125,1.3125,-1.375,0
76550,-5.4375,2.4375,-0.1875,0
76570,-2.5625,3.3125,0.6875,0
76590,0.3125,0.6875,-0.1875,0
76610,-0.625,-3.4375,-0.1875,0
76630,-3.1875,-4.5625,-0.5,0
76650,-3.1875,-2.4375,-1.625,0
76670,-0.375,-1.4375,-1.625,0
76690,0.5,-2.3125,-1.6875,0
76710,-1.0625,-3.1875,-0.9375,0
76730,-0.625,-1.6875,-0.8125,0
76750,-0.1875,0.8125,-0.1875,0
76770,0.3125,1.0625,0.25,0
76790,0.8125,0.1875,-0.25,0
76810,1.1875,1.5625,0.6875,0
76830,1,3.75,1.1875,0
76850,0.625,4.125,1.4375,0
76870,0.8125,3.75,1.0625,0
76890,2.375,4.3125,1.375,0
76910,2,4.625,1.9375,0
76930,1.75,4.3125,1.1875,0
76950,0.25,3.375,1.1875,0
76970,0.4375,3.75,0.4375,0
76990,0.375,3.9375,-0.375,0
77010,0.0625,2.5625,-0.75,0
77030,-1.375,0.5625,-0.3125,0
77050,-3.0625,0.25,-0.6875,0
77070,-2.9375,0.625,-1.25,0
77090,-3,-0.5,-1.125,0
77110,-3.75,-1.25,-1.3125,0
77130,-2.8125,-2,-2,0
77150,-2.3125,-1.75,-1.5,0
77170,-2.375,-0.1875,-1.3125,0
77190,-2.8125,-0.0625,-1.5625,0
77210,-2.3125,-0.125,-2.4375,0
77230,-0.75,-0.25,-2.5,0
77250,0.8125,-0.0625,-0.75,0
77270,2.875,-0.5625,-0.4375,0
77290,2.125,-0.625,-1.375,0
77310,1.625,-0.625,-0.75,0
77330,1.25,-0.125,-0.3125,0
77350,1.125,0.125,0.875,0
77370,0.75,-0.875,2.25,0
77390,-0.5,-1.125,1.75,0
77410,-0.1875,-1.25,0.1875,0
77430,0.8125,-1.1875,-1.4375,0
77450,0.5,0.0625,-1.5,0
77470,0.5625,-1.6875,-1,0
77490,-0.8125,-2.125,-0.6875,0
77510,-1.3125,-2.0625,0.75,0
77530,-0.6875,-1.6875,1.25,0
77550,-1,-1.625,1.25,0
77570,0.0625,-2.0625,0.3125,0
77590,0.9375,-2.0625,-0.1875,0
77610,1.1875,-1.375,-0.8125,0
77630,0.8125,-0.625,-1.125,0
77650,0.9375,0.0625,-0.4375,0
77670,3,0.1875,-1.0625,0
77690,2.25,-1.625,0.0625,0
77710,0.0625,-2.75,0.25,0
77730,-0.1875,-3.875,0.3125,0
77750,0.0625,-5.0625,0.25,0
77770,0.3125,-5.1875,-0.125,0
77790,0.5625,-5.125,-0.8125,0
77810,0.3125,-4.9375,-1.125,0
77830,0.5625,-4.0625,-0.5,0
77850,-0.8125,-2.8125,-0.4375,0
77870,0,-3.25,0.0625,0
77890,0.875,-4.625,-0.5,0
77910,4.0625,-4.875,-1.6875,0
77930,5.875,-5.625,-0.5625,0
77950,5.875,-9.5,-0.1875,0
77970,4.25,-14.0625,-0.9375,0
77990,3.75,-12.8125,1.375,0
78010,4.4375,-12.5625,3.0625,0
78030,3.5625,-13.875,4.3125,0
78050,3.875,-15,3.625,0
78070,3.625,-14.8125,5.125,0
78090,4.3125,-16.125,6.0625,0
78110,4.8125,-18.75,2,0
78130,6.1875,-18.5625,2,0
78150,6.0625,-19.625,2.125,0
78170,6.0625,-19.1875,-0.8125,0
78190,7.8125,-19.1875,-5.0625,0
78210,5.0625,-17.3125,-7.4375,0
78230,6.6875,-18.4375,-9.1875,0
78250,3.75,-22.125,-8.8125,0
78270,1.75,-21.75,-10,0
78290,4.5625,-21.6875,-9.6875,0
78310,10.4375,-23.9375,-13.9375,0
78330,9.125,-24.25,-15.9375,0
78350,4.375,-23.8125,-14.6875,0
78370,2.5625,-24.375,-20.6875,0
78390,-2.25,-20.3125,-20.375,0
78410,2.125,-18.625,-18.1875,0
78430,5.5,-25.25,-18.125,0
78450,3.6875,-28.5625,-19.75,0
78470,2.3125,-29.5,-20.125,0
78500,-1.5,-31.4375,-17.1875,0
78520,-5.0625,-28.9375,-17,0
78540,-8.3125,-28.9375,-21.8125,0
78560,-3.0625,-28.375,-25.9375,0
78580,3.125,-34.125,-23.125,0
78600,0.125,-39.4375,-24.875,0
78620,-3.6875,-35.4375,-24.375,0
78640,-2.9375,-33.1875,-21.8125,0
78660,-2.5,-30.875,-21.8125,0
78680,-4.5,-29.8125,-22.6875,0
78700,-7,-28.875,-22.6875,0
78720,-7.6875,-24.3125,-25.3125,0
78740,-6.9375,-21.375,-27.4375,0
78760,-4.875,-21.5,-27.6875,0
78780,-5.875,-23.6875,-28,0
78800,-9.6875,-25.8125,-28.1875,0
78820,-10.8125,-24.8125,-29.3125,0
78840,-10.75,-20.3125,-31,0
78860,-15.0625,-17.1875,-31.8125,0
78880,-17.5,-15.375,-33.8125,0
78900,-18.1875,-12.9375,-37,0
78920,-18.8125,-10.75,-41.75,0
78940,-16.9375,-11.0625,-44.8125,0
78950,-14.6875,-15.25,-46.625,0
78970,-19.4375,-16.5,-47.875,0
78990,-22,-15.125,-47.5,0
79010,-23.6875,-13.125,-47.5,0
79030,-26.9375,-9.625,-48.125,0
79050,-31.0625,-5.8125,-48.875,0
79070,-35.875,-4,-50.1875,0
79090,-36.5,-0.8125,-52.9375,0
79110,-37.625,3.375,-54.75,0
79130,-36.25,7.25,-57.125,0
79150,-33,8,-56.9375,0
79170,-34.6875,5.875,-54.0625,0
79190,-37.5,5.5625,-51.1875,0
79210,-35.8125,11.5,-48.25,0
79230,-34.25,17.375,-45.625,0
79250,-34.4375,21.625,-42.125,0
79270,-33.625,24.0625,-41.5625,0
79290,-30.0625,25.8125,-43.6875,0
79310,-26.625,26.125,-44,0
79330,-24.25,26.9375,-42.3125,0
79350,-22,29.625,-39.8125,0
79370,-19.375,33.3125,-37.625,0
79390,-16.5,39.6875,-35.0625,0
79410,-14.875,44.875,-31.1875,0
79430,-12.625,46.6875,-27.6875,0
79450,-13.125,48.875,-24,0
79470,-11.375,50.3125,-20.625,0
79490,-10.4375,54.375,-15.5625,0
79510,-11.625,58.5625,-11.6875,0
79530,-11.25,59.625,-9.9375,0
79550,-7,56.5,-7.5625,0
79570,-7.625,57.125,-6.8125,0
79590,-8.625,58.75,-3.75,0
79610,-10.625,56.6875,1.875,0
79630,-10.0625,53.875,6.125,0
79650,-5.6875,49.6875,7.25,0
79670,-3.875,48.4375,12.1875,0
79690,-1.3125,47.4375,17.0625,0
79710,-4.125,49.6875,22.75,0
79730,-7.25,51.4375,27.625,0
79750,-7,50.5625,30.25,0
79770,-3.5,48.375,30.5625,0
79790,-2.75,49,27.5625,0
79810,-5.3125,45.75,23.625,0
79830,-6.5,40.875,26.6875,0
79850,-4.25,36.0625,28.4375,0
79870,6.625,34.375,30.875,0
79890,-1.3125,34.5625,26.375,0
79910,-5.5625,37.875,28.9375,0
79930,-2.1875,31.25,35.875,0
79950,9.0625,24.9375,30.1875,0
79970,12.5,25.125,22.6875,0
79990,10.3125,25.875,29.0625,0
80010,12,18.375,34.375,0
80030,8.0625,12.375,32.0625,0
80050,1.125,11.4375,34.0625,0
80070,-2,9.5,37.4375,0
80090,-3.125,9.1875,36.375,0
80110,-8.0625,11.0625,35.125,0
80130,-3.4375,6.4375,37.625,0
80150,6.625,5.375,26.25,0
80170,9.125,2,25.375,0
80190,5.5625,2.75,21.4375,0
80210,-1.5,2.875,22.3125,0
80230,0.625,1,25.5,0
80250,1.0625,0,24.25,0
80270,1.375,-5.125,23.6875,0
80290,2.4375,-4.25,36.125,0
80310,1.75,-2.3125,35.5,0
80330,-3.5,-2.75,39.0625,0
80350,-7.6875,-5.25,40.375,0
80370,-5.9375,-7.3125,36.9375,0
80390,-1,-9.875,38.875,0
80410,-1.3125,-9.9375,36.375,0
80430,-4.25,-10.6875,36.125,0
80450,-3.25,-15.5,38.1875,0
80470,0.4375,-19.5625,38.5625,0
80490,2.75,-22.75,38.625,0
80510,4.9375,-24.1875,37,0
80530,2.25,-27.25,38.9375,0
80550,6.0625,-31.375,37.0625,0
80570,13.1875,-35.375,31.0625,0
80590,12.9375,-34.9375,30.625,0
80610,3.9375,-33.6875,35.1875,0
80630,-2.4375,-31.3125,34.4375,0
80650,0.75,-33.25,34.1875,0
80670,4.8125,-34.375,31.375,0
80690,9.3125,-36.625,27.6875,0
80710,8.0625,-38.75,27,0
80730,5.25,-38.8125,26.25,0
80750,6.6875,-37.8125,25.8125,0
80770,3.9375,-36.75,25.6875,0
80790,0.0625,-37.1875,28.6875,0
80810,3.5625,-41.375,27.375,0
80830,9,-43.875,21.8125,0
80850,7.3125,-43.125,19.9375,0
80870,1.375,-43.3125,25,0
80890,4.75,-44.125,24.6875,0
80910,8.375,-46.125,20.4375,0
80930,8.375,-44.5,17,0
80940,2.25,-39.3125,21.875,0
80960,1.9375,-39,20.125,0
80980,-0.4375,-42.125,15,0
81000,1.8125,-46.6875,11.1875,0
81020,-0.625,-46.375,8.5,0
81040,0.5625,-43.125,4.125,0
81060,3.5625,-43.6875,0.0625,0
81080,8.0625,-46.9375,-4.875,0
81100,11.375,-48.875,-3.5,0
81120,7.8125,-47.625,-5.375,0
81140,8.5,-42.9375,-10,0
81160,10.3125,-41,-9.75,0
81180,5.9375,-48.3125,-10.3125,0
81200,2.0625,-49.1875,-14,0
81220,1.875,-44.3125,-12.375,0
81240,0.375,-45.8125,-15.75,0
81260,-3.375,-48.6875,-21,0
81280,-7.125,-47.9375,-25.5625,0
81300,-14.125,-40.125,-27.1875,0
81320,-18.8125,-42.8125,-31.75,0
81340,-20.0625,-46.375,-36.625,0
81360,-20.75,-41.3125,-39.0625,0
81380,-23.3125,-39.25,-43.75,0
81400,-26.6875,-38.5625,-46.625,0
81420,-28.5,-34.75,-47.125,0
81440,-27.375,-30.8125,-50.125,0
81460,-28,-29.8125,-53.5,0
81480,-29.3125,-28.4375,-54.125,0
81500,-29.375,-20.625,-54.1875,0
81520,-31.1875,-16.5,-55.5,0
81540,-28.3125,-15.5625,-58.125,0
81560,-26.75,-12.875,-57.5625,0
81580,-26.8125,-6.5625,-58.625,0
81600,-26.9375,-0.9375,-59.625,0
81620,-27.75,1.6875,-59.6875,0
81640,-27.1875,5.3125,-59.1875,0
81660,-27.8125,9.25,-58.9375,0
81680,-26.9375,12.4375,-58.0625,0
81700,-27.625,16.125,-55.8125,0
81720,-29.875,22.3125,-54.0625,0
81740,-29.6875,26.5,-53.125,0
81760,-28.875,29,-54.3125,0
81780,-30.4375,33.3125,-54.1875,0
81800,-31.0625,36,-52.875,0
81820,-30.0625,40.4375,-52.1875,0
81840,-28.875,44.25,-49,0
81860,-30.5625,47.625,-46,0
81880,-29.25,51.4375,-41.9375,0
81900,-24.5625,54.8125,-36.5625,0
81920,-24.0625,55.4375,-31.9375,0
81940,-25.0625,55,-28.9375,0
81960,-22.125,55.5625,-25.8125,0
81980,-20.5625,59.1875,-23.4375,0
82000,-19.375,63.125,-19.1875,0
82020,-19,63.8125,-11.1875,0
82040,-18.4375,61.9375,-6.625,0
82060,-12.1875,63.5625,-5.0625,0
82080,-14.9375,65.375,-1.375,0
82100,-20,63.5625,7.6875,0
82120,-18.6875,54.5,14.0625,0
82140,-12.5625,52.375,16.125,0
82160,-11.1875,52.375,22.4375,0
82180,-13.5625,49.25,23.4375,0
82200,-20.0625,51,25.0625,0
82220,-24.625,45.0625,34.25,0
82240,-14.1875,37.375,33.375,0
82260,-8.4375,32.125,25.1875,0
82280,-11.125,26.9375,26.9375,0
82300,-12.9375,23.125,32.9375,0
82320,-14.5625,24.1875,36.5625,0
82340,-16.375,18.0625,37.6875,0
82360,-15.0625,15.9375,38.5,0
82380,-19.5,23.625,39.6875,0
82400,-26.9375,21.375,48.3125,0
82420,-24.1875,18.25,42.6875,0
82440,-21,13.1875,42.6875,0
82460,-14,7.75,40.25,0
82480,-17.4375,9.9375,42.75,0
82500,-14.6875,8.0625,48.125,0
82520,-12,5.6875,45.0625,0
82540,-9.8125,5,42.8125,0
82560,-12.5,4.625,46.3125,0
82580,-14.875,0,45.1875,0
82600,-8.0625,-3.8125,41.375,0
82620,-6.375,-8.4375,38.875,0
82640,-3.9375,-8.875,42.25,0
82660,-4.4375,-10.125,43,0
82680,-7.8125,-12.8125,42.5625,0
82700,-7.875,-18.6875,44.75,0
82720,-1.75,-23.5625,41.125,0
82740,5.875,-26.5625,37,0
82760,5.6875,-27.875,36.0625,0
82780,3.875,-29.1875,35,0
82800,9.875,-32.1875,36.25,0
82820,15.25,-33.5625,34.75,0
82840,12.625,-35.25,34.5,0
82860,9.125,-37,34.4375,0
82880,9.875,-35.5625,31.0625,0
82900,13.625,-34.875,28.625,0
82920,8.8125,-31.25,27.6875,0
82940,2.25,-26.25,27.875,0
82960,1.125,-25.6875,25.5625,0
82980,11.0625,-34.375,22.375,0
83000,18.75,-37.125,16,0
83020,16.9375,-33.5,15.1875,0
83040,8,-36.4375,17.125,0
83060,3.1875,-41.8125,17.625,0
83080,6.75,-40.25,13.5,0
83100,10.75,-38.9375,14.875,0
83120,4,-36.625,12.75,0
83140,1.25,-35.4375,10,0
83160,6.4375,-40.75,7.9375,0
83180,13.5625,-44.125,2.9375,0
83200,15.375,-40.4375,-2.6875,0
83220,9.5,-40.3125,-0.75,0
83240,4.9375,-38.8125,0.9375,0
83260,6.4375,-39.6875,-0.4375,0
83280,7.5,-38.3125,1.25,0
83300,5.5625,-36.1875,2.75,0
83320,2,-34.5,2.875,0
83340,0.5,-35.625,3.0625,0
83360,-5.3125,-36.625,3.875,0
83380,-5.5,-34.5,1.9375,0
83400,-2.75,-33.125,-3,0
83420,1.5,-34.5625,-8.4375,0
83440,5.4375,-34,-13.75,0
83460,8.375,-34.25,-17.25,0
83480,7.8125,-32.9375,-21.5,0
83500,3.0625,-32.75,-24.625,0
83520,-1.4375,-34.25,-24.4375,0
83540,-0.3125,-38.625,-28.6875,0
83560,1.8125,-39.3125,-37.0625,0
83580,0.375,-35.625,-37.25,0
83600,-7.5,-30.0625,-38.125,0
83620,-9,-25.6875,-38,0
83640,-8.9375,-27,-39.4375,0
83660,-11.3125,-27,-44.9375,0
83680,-12.9375,-22.125,-44.4375,0
83700,-14.1875,-16,-43.5,0
83720,-15.1875,-12.8125,-44.9375,0
83740,-16.3125,-10.1875,-45,0
83760,-15.1875,-6.8125,-46.5,0
83780,-17.75,-4.25,-47.25,0
