Timestamp, Angle x, Angle y, Angle z, Marker
40,-0.91093,1.10047,2.39709,0
60,-0.872529,1.09737,2.42772,0
80,-0.768425,1.11487,2.50989,0
100,-0.674488,1.13161,2.586,0
120,-0.611578,1.14804,2.64925,0
130,-0.582056,1.15551,2.69371,0
130,-0.583309,1.15353,2.7111,0
180,-0.597122,1.14681,2.70295,0
200,-0.614621,1.13738,2.67923,0
220,-0.633403,1.12469,2.65032,0
240,-0.639422,1.10874,2.64121,0
260,-0.627921,1.09318,2.64987,0
280,-0.609687,1.08187,2.66021,0
300,-0.582348,1.07363,2.67781,0
320,-0.541901,1.06836,2.71007,0
340,-0.495044,1.06867,2.75005,0
360,-0.456953,1.06616,2.78404,0
380,-0.443183,1.06317,2.80269,0
400,-0.443403,1.05962,2.81422,0
420,-0.449275,1.0552,2.82942,0
440,-0.445701,1.05358,2.85678,0
460,-0.428574,1.05324,2.89754,0
480,-0.400009,1.05315,2.95157,0
500,-0.368997,1.05324,3.00818,0
520,-0.343817,1.05046,3.05909,0
540,-0.326423,1.04385,3.10575,0
560,-0.312927,1.03532,-3.13824,0
580,-0.299972,1.02578,-3.1086,0
600,-0.284298,1.01561,-3.08615,0
620,-0.269849,1.0056,-3.06893,0
630,-0.261775,0.997424,-3.05954,0
650,-0.259564,0.992651,-3.05909,0
670,-0.260314,0.989812,-3.06537,0
690,-0.261118,0.990273,-3.0744,0
710,-0.264116,0.993406,-3.08523,0
730,-0.267705,0.994322,-3.09387,0
750,-0.271052,0.992169,-3.09978,0
770,-0.272726,0.974194,-3.10496,0
790,-0.291559,0.989764,-3.12299,0
810,-0.328011,1.01223,3.1241,0
830,-0.348746,1.00978,3.10132,0
850,-0.349976,0.986506,3.09276,0
870,-0.33935,0.952526,3.08948,0
890,-0.3356,0.930921,3.07378,0
910,-0.348673,0.923501,3.04031,0
930,-0.358985,0.911953,3.00344,0
950,-0.372166,0.897459,2.95877,0
970,-0.385977,0.880375,2.9094,0
990,-0.397239,0.86104,2.86226,0
1010,-0.415098,0.840951,2.81503,0
1030,-0.442841,0.816101,2.77526,0
1050,-0.48581,0.807483,2.72861,0
1070,-0.496985,0.755794,2.70368,0
1090,-0.51353,0.711299,2.67501,0
1110,-0.544727,0.692809,2.63697,0
1130,-0.566542,0.664496,2.60143,0
1150,-0.582088,0.63434,2.5621,0
1170,-0.606643,0.614701,2.51618,0
1190,-0.638618,0.586285,2.47023,0
1210,-0.668792,0.555164,2.42448,0
1230,-0.696856,0.528964,2.37992,0
1250,-0.71295,0.493394,2.33919,0
1270,-0.718937,0.465623,2.30137,0
1290,-0.720816,0.442394,2.26993,0
1310,-0.719068,0.413082,2.2411,0
1330,-0.725497,0.395235,2.2091,0
1350,-0.738238,0.375099,2.17841,0
1370,-0.753946,0.356385,2.14684,0
1390,-0.769561,0.346697,2.11168,0
1410,-0.785934,0.347986,2.07983,0
1430,-0.804063,0.353129,2.04987,0
1450,-0.826642,0.358133,2.01958,0
1470,-0.851626,0.363362,1.98737,0
1490,-0.876656,0.371109,1.95467,0
1510,-0.898016,0.37927,1.92042,0
1530,-0.909332,0.386296,1.88614,0
1550,-0.909359,0.392753,1.85146,0
1570,-0.904033,0.399336,1.81506,0
1590,-0.899629,0.408018,1.77807,0
1610,-0.898345,0.419089,1.74334,0
1630,-0.898972,0.432482,1.71241,0
1650,-0.901181,0.44651,1.68322,0
1670,-0.905512,0.460577,1.65571,0
1690,-0.910698,0.475865,1.6311,0
1710,-0.918774,0.49082,1.60933,0
1730,-0.930834,0.505153,1.58579,0
1750,-0.944799,0.521086,1.56101,0
1770,-0.958203,0.538919,1.53641,0
1790,-0.971434,0.559667,1.51565,0
1810,-0.98573,0.579437,1.49857,0
1830,-1.00235,0.595448,1.47956,0
1850,-1.01789,0.60809,1.4573,0
1870,-1.02911,0.617528,1.43353,0
1890,-1.03666,0.626962,1.40962,0
1910,-1.04329,0.636692,1.3856,0
1930,-1.04991,0.647208,1.36308,0
1950,-1.05877,0.658865,1.34038,0
1970,-1.06982,0.67266,1.31879,0
1990,-1.08454,0.691126,1.29982,0
2010,-1.10637,0.715923,1.2861,0
2030,-1.13416,0.745137,1.27519,0
2050,-1.16234,0.774445,1.26634,0
2070,-1.18506,0.803841,1.26121,0
2090,-1.20147,0.832462,1.26224,0
2110,-1.21258,0.85765,1.26327,0
2130,-1.21796,0.882111,1.26629,0
2150,-1.21476,0.90561,1.27558,0
2170,-1.20355,0.92303,1.28764,0
2190,-1.18529,0.930554,1.29506,0
2210,-1.15899,0.935119,1.29886,0
2230,-1.12686,0.938454,1.30059,0
2250,-1.09323,0.940874,1.30091,0
2270,-1.05933,0.94192,1.30047,0
2290,-1.03089,0.94186,1.29594,0
2310,-1.01124,0.94391,1.28418,0
2330,-0.995646,0.947677,1.26902,0
2350,-0.985503,0.950587,1.24387,0
2370,-0.978076,0.954454,1.21139,0
2390,-0.971007,0.962139,1.17875,0
2410,-0.966126,0.972216,1.14817,0
2430,-0.965622,0.983504,1.12144,0
2450,-0.968002,0.993989,1.09919,0
2470,-0.947842,1.01399,1.14983,0
2490,-0.972038,1.02168,1.15152,0
2510,-1.00726,1.01414,1.13395,0
2530,-1.02503,0.995146,1.10563,0
2550,-0.999597,0.984047,1.11007,0
2570,-0.967169,0.972307,1.11632,0
2590,-0.943747,0.962133,1.12489,0
2610,-0.932932,0.953551,1.1319,0
2630,-0.929078,0.947147,1.13791,0
2650,-0.929057,0.94207,1.14185,0
2670,-0.928148,0.937905,1.1452,0
2690,-0.923738,0.933618,1.1477,0
2710,-0.915318,0.930284,1.15027,0
2730,-0.90547,0.929133,1.15545,0
2750,-0.898938,0.929458,1.16175,0
2770,-0.89497,0.929782,1.16815,0
2790,-0.891119,0.930052,1.17268,0
2810,-0.885186,0.931439,1.17652,0
2830,-0.8796,0.934419,1.18034,0
2850,-0.877829,0.938075,1.18082,0
2870,-0.877262,0.941797,1.17718,0
2890,-0.876067,0.94615,1.16955,0
2910,-0.875192,0.951992,1.15988,0
2930,-0.875822,0.958979,1.14867,0
2950,-0.87941,0.965854,1.13476,0
2970,-0.884081,0.971033,1.11509,0
2990,-0.887468,0.9763,1.09382,0
3010,-0.892123,0.982291,1.0724,0
3030,-0.899843,0.987117,1.04877,0
3050,-0.909465,0.990883,1.02304,0
3070,-0.91957,0.995125,0.998323,0
3090,-0.931253,0.999011,0.974102,0
3110,-0.944074,1.00184,0.948379,0
3130,-0.953063,1.00321,0.921618,0
3150,-0.957342,1.00587,0.897252,0
3170,-0.96158,1.01006,0.879204,0
3190,-0.971782,1.01493,0.864462,0
3210,-0.983976,1.0192,0.853617,0
3230,-0.997125,1.02231,0.842719,0
3250,-1.01362,1.02562,0.831931,0
3270,-1.03213,1.02879,0.820539,0
3290,-1.0477,1.03113,0.810834,0
3310,-1.05856,1.03253,0.801452,0
3330,-1.06643,1.0351,0.794632,0
3340,-1.07343,1.03837,0.79036,0
3360,-1.07775,1.03927,0.787173,0
3380,-1.07654,1.03875,0.784613,0
3400,-1.06672,1.03899,0.787311,0
3420,-1.05408,1.03864,0.79404,0
3440,-1.03971,1.03758,0.8043,0
3460,-1.0236,1.03595,0.816486,0
3480,-1.0063,1.03492,0.830365,0
3500,-0.989219,1.03443,0.846419,0
3520,-0.974842,1.03408,0.862809,0
3540,-0.961162,1.0333,0.879551,0
3560,-0.945461,1.03233,0.897762,0
3580,-0.927515,1.03171,0.916171,0
3600,-0.909899,1.0315,0.93193,0
3620,-0.893458,1.03231,0.94505,0
3640,-0.879252,1.0347,0.958785,0
3660,-0.86951,1.0377,0.972781,0
3680,-0.864439,1.04034,0.98404,0
3700,-0.86372,1.04162,0.991528,0
3720,-0.86392,1.04204,0.996783,0
3740,-0.863753,1.04129,1.00107,0
3760,-0.865048,1.0398,1.00231,0
3780,-0.868989,1.03872,1.00005,0
3800,-0.87711,1.03752,0.993796,0
3820,-0.884214,1.03604,0.9888,0
3840,-0.889691,1.03446,0.984193,0
3860,-0.895626,1.03407,0.97769,0
3880,-0.903827,1.03447,0.967683,0
3900,-0.912705,1.03417,0.954381,0
3920,-0.91684,1.03382,0.944818,0
3940,-0.919722,1.03396,0.936968,0
3960,-0.923406,1.0346,0.928945,0
3980,-0.931036,1.03566,0.919283,0
4000,-0.934587,1.03746,0.913299,0
4020,-0.944679,1.04047,0.902522,0
4040,-0.958609,1.04281,0.887818,0
4060,-0.9627,1.04496,0.875685,0
4080,-0.966951,1.04692,0.861918,0
4100,-0.968912,1.04962,0.84992,0
4120,-0.970384,1.05003,0.838871,0
4140,-0.969465,1.05057,0.831433,0
4160,-0.968319,1.05171,0.825954,0
4180,-0.969797,1.05224,0.820211,0
4200,-0.973629,1.05151,0.814791,0
4220,-0.97827,1.05025,0.810407,0
4240,-0.981662,1.04825,0.807356,0
4260,-0.984559,1.04596,0.805999,0
4280,-0.98682,1.04342,0.805784,0
4300,-0.989028,1.0398,0.804898,0
4320,-0.990598,1.03556,0.803973,0
4340,-0.988866,1.03016,0.803086,0
4360,-0.982644,1.02463,0.803498,0
4380,-0.972771,1.01863,0.807632,0
4400,-0.961048,1.0118,0.816079,0
4420,-0.948073,1.00336,0.826529,0
4440,-0.931397,0.992874,0.837466,0
4460,-0.91042,0.982136,0.851207,0
4480,-0.890846,0.971447,0.86541,0
4500,-0.876231,0.960813,0.877669,0
4520,-0.865939,0.950792,0.887723,0
4540,-0.860996,0.941232,0.894449,0
4560,-0.856238,0.932508,0.898056,0
4580,-0.857793,0.925886,0.902191,0
4600,-0.869473,0.919912,0.8989,0
4620,-0.87418,0.915189,0.900184,0
4640,-0.881486,0.910567,0.896398,0
4660,-0.883369,0.907876,0.892652,0
4680,-0.883907,0.906819,0.889998,0
4700,-0.886653,0.907106,0.887183,0
4720,-0.892962,0.909016,0.88393,0
4740,-0.899763,0.911661,0.878693,0
4760,-0.901527,0.916644,0.874931,0
4780,-0.901403,0.925125,0.869574,0
4800,-0.903371,0.936019,0.861606,0
4820,-0.908416,0.949043,0.852819,0
4840,-0.917866,0.96331,0.841953,0
4860,-0.930256,0.977587,0.828035,0
4880,-0.942839,0.992659,0.814068,0
4900,-0.956203,1.00803,0.800319,0
4920,-0.970106,1.02279,0.786739,0
4940,-0.984081,1.03589,0.772407,0
4960,-0.994864,1.04656,0.757805,0
4980,-1.00045,1.05573,0.745959,0
5000,-1.00193,1.06361,0.736667,0
5020,-1.0005,1.0689,0.729268,0
5040,-0.995,1.07296,0.725815,0
5060,-0.98535,1.07557,0.727199,0
5080,-0.973536,1.07687,0.732551,0
5100,-0.958236,1.07808,0.740507,0
5120,-0.934099,1.07674,0.752774,0
5140,-0.919879,1.07547,0.762,0
5160,-0.906982,1.07305,0.773406,0
5180,-0.888066,1.06903,0.785828,0
5200,-0.869472,1.06618,0.795121,0
5220,-0.846579,1.06491,0.806224,0
5240,-0.823598,1.0646,0.817393,0
5260,-0.801146,1.06504,0.830122,0
5280,-0.782392,1.06567,0.844234,0
5300,-0.769718,1.06659,0.857286,0
5320,-0.761779,1.06699,0.868147,0
5330,-0.756536,1.06726,0.875799,0
5350,-0.750758,1.06841,0.881756,0
5370,-0.744249,1.07006,0.887543,0
5390,-0.740121,1.0725,0.892889,0
5410,-0.741105,1.07531,0.896488,0
5430,-0.745052,1.07748,0.897901,0
5450,-0.747406,1.0798,0.897023,0
5470,-0.750591,1.08212,0.895201,0
5490,-0.752452,1.08555,0.894106,0
5510,-0.757703,1.08785,0.89061,0
5530,-0.761062,1.09018,0.889146,0
5550,-0.764447,1.09157,0.887086,0
5570,-0.766168,1.09262,0.885782,0
5590,-0.767593,1.09337,0.882277,0
5610,-0.767302,1.09443,0.878919,0
5630,-0.767019,1.09564,0.875241,0
5650,-0.768596,1.09707,0.871244,0
5670,-0.774189,1.09895,0.865783,0
5690,-0.782594,1.10094,0.860099,0
5710,-0.792782,1.10228,0.853024,0
5730,-0.80259,1.10325,0.845812,0
5750,-0.811888,1.10412,0.83802,0
5770,-0.819015,1.10511,0.830984,0
5790,-0.824097,1.10548,0.824097,0
5810,-0.825963,1.10497,0.817736,0
5830,-0.824693,1.10469,0.814229,0
5850,-0.822143,1.10432,0.813556,0
5870,-0.820287,1.1035,0.814323,0
5890,-0.818367,1.10227,0.815765,0
5910,-0.813259,1.10068,0.818076,0
5930,-0.806588,1.09928,0.820261,0
5950,-0.797684,1.09795,0.824211,0
5970,-0.787708,1.09804,0.831198,0
5990,-0.786527,1.09808,0.835183,0
6010,-0.789151,1.09955,0.840547,0
6030,-0.798036,1.1026,0.845288,0
6050,-0.814716,1.1065,0.846229,0
6070,-0.836915,1.11029,0.842587,0
6090,-0.860497,1.1141,0.83496,0
6110,-0.885489,1.11845,0.823913,0
6130,-0.912,1.12329,0.812374,0
6150,-0.944657,1.12823,0.796701,0
6170,-0.973796,1.13278,0.783648,0
6190,-1.00465,1.13933,0.771917,0
6210,-1.04078,1.14476,0.763135,0
6230,-1.08298,1.14806,0.751936,0
6250,-1.12253,1.1478,0.741244,0
6270,-1.15142,1.1437,0.732109,0
6290,-1.16866,1.13655,0.724608,0
6310,-1.17371,1.12629,0.719666,0
6330,-1.16273,1.11135,0.719071,0
6350,-1.13461,1.09652,0.72842,0
6370,-1.09307,1.08416,0.751174,0
6390,-1.04697,1.07177,0.781915,0
6410,-1.00066,1.06029,0.819599,0
6430,-0.957825,1.04891,0.859081,0
6450,-0.919312,1.03752,0.897691,0
6470,-0.884814,1.0244,0.932165,0
6490,-0.851588,1.01111,0.963199,0
6510,-0.826322,0.998523,0.985487,0
6530,-0.806439,0.989654,1.00075,0
6550,-0.789351,0.983496,1.00837,0
6570,-0.778528,0.981627,1.00761,0
6590,-0.770201,0.986825,1.0058,0
6610,-0.76589,0.999151,1.00772,0
6630,-0.774996,1.01491,1.00608,0
6650,-0.796438,1.03082,0.997721,0
6670,-0.821968,1.04627,0.986251,0
6690,-0.845028,1.06012,0.973601,0
6710,-0.868651,1.07217,0.957509,0
6730,-0.89288,1.08217,0.939263,0
6750,-0.919109,1.0904,0.918021,0
6770,-0.946002,1.09654,0.893451,0
6790,-0.966604,1.10342,0.870779,0
6810,-0.981362,1.11056,0.85185,0
6830,-0.996968,1.11569,0.833414,0
6850,-1.01259,1.12009,0.818005,0
6870,-1.02564,1.12293,0.806376,0
6890,-1.03524,1.12434,0.797998,0
6910,-1.04426,1.125,0.790982,0
6930,-1.05199,1.12535,0.784708,0
6950,-1.05694,1.12654,0.780234,0
6970,-1.06218,1.13006,0.776183,0
6990,-1.07146,1.1338,0.770134,0
7010,-1.07185,1.14005,0.773576,0
7030,-1.08898,1.14534,0.762566,0
7050,-1.11137,1.14889,0.751305,0
7070,-1.12334,1.1543,0.747169,0
7090,-1.13507,1.15852,0.745253,0
7110,-1.13806,1.16163,0.746967,0
7130,-1.13751,1.16114,0.751943,0
7150,-1.12433,1.15995,0.764457,0
7170,-1.10925,1.1569,0.778134,0
7190,-1.09124,1.15361,0.796449,0
7210,-1.07267,1.14932,0.819087,0
7230,-1.05768,1.14401,0.841671,0
7250,-1.04673,1.13729,0.862249,0
7270,-1.03587,1.13092,0.884621,0
7290,-1.02219,1.12386,0.906439,0
7310,-1.00477,1.11569,0.927466,0
7330,-0.98065,1.10687,0.948363,0
7350,-0.953825,1.0989,0.967852,0
7370,-0.927493,1.09324,0.985877,0
7390,-0.905971,1.08909,1.00299,0
7410,-0.892127,1.08572,1.01726,0
7430,-0.884059,1.08262,1.02773,0
7450,-0.875831,1.0798,1.03689,0
7470,-0.867246,1.07768,1.04499,0
7490,-0.85833,1.07582,1.05171,0
7510,-0.852265,1.07374,1.05649,0
7530,-0.846977,1.07145,1.06006,0
7550,-0.841249,1.06827,1.06145,0
7570,-0.834596,1.06688,1.06323,0
7590,-0.828725,1.06628,1.06653,0
7610,-0.828313,1.06677,1.0712,0
7630,-0.834306,1.06787,1.07424,0
7650,-0.844931,1.07051,1.07485,0
7670,-0.85663,1.07458,1.07316,0
7690,-0.87109,1.08072,1.0674,0
7710,-0.890099,1.0883,1.05607,0
7730,-0.911493,1.09631,1.04048,0
7750,-0.932881,1.10568,1.02428,0
7770,-0.953799,1.11535,1.00846,0
7790,-0.974994,1.12424,0.993314,0
7810,-0.998596,1.13262,0.979139,0
7830,-1.02451,1.14075,0.966264,0
7850,-1.05024,1.14849,0.955912,0
7870,-1.07662,1.15546,0.945949,0
7890,-1.09907,1.16117,0.937198,0
7910,-1.12026,1.16504,0.925903,0
7930,-1.13758,1.16748,0.914386,0
7950,-1.15027,1.1698,0.904781,0
7970,-1.16586,1.17372,0.89462,0
7990,-1.18316,1.17783,0.885857,0
8010,-1.20175,1.18239,0.879235,0
8030,-1.22189,1.18686,0.873526,0
8050,-1.24146,1.19165,0.871682,0
8070,-1.25894,1.19634,0.871686,0
8090,-1.2772,1.20029,0.869458,0
8110,-1.29168,1.20361,0.865902,0
8130,-1.30286,1.20723,0.859936,0
8150,-1.31584,1.21193,0.852832,0
8170,-1.3334,1.2167,0.844962,0
8190,-1.35727,1.22438,0.856361,0
8210,-1.40303,1.22961,0.859168,0
8230,-1.45602,1.23589,0.855363,0
8250,-1.488,1.23959,0.858165,0
8270,-1.49965,1.24433,0.862697,0
8290,-1.50848,1.24501,0.862589,0
8310,-1.51431,1.22764,0.854188,0
8330,-1.4831,1.22089,0.852092,0
8350,-1.46004,1.21697,0.851679,0
8370,-1.45363,1.21929,0.852874,0
8390,-1.46595,1.22107,0.856792,0
8410,-1.48302,1.21818,0.861448,0
8430,-1.48528,1.21194,0.873729,0
8450,-1.47025,1.20509,0.893228,0
8470,-1.44304,1.19952,0.920059,0
8490,-1.4141,1.19459,0.950402,0
8510,-1.38635,1.18936,0.984324,0
8530,-1.36,1.18373,1.02041,0
8550,-1.33758,1.17671,1.05403,0
8570,-1.31418,1.16995,1.08654,0
8590,-1.29005,1.1631,1.11675,0
8610,-1.26786,1.15662,1.1431,0
8630,-1.24949,1.1507,1.16546,0
8650,-1.23335,1.14393,1.18242,0
8670,-1.22168,1.13785,1.19436,0
8690,-1.20922,1.13432,1.20683,0
8710,-1.20157,1.13204,1.21585,0
8730,-1.1989,1.131,1.22106,0
8750,-1.19701,1.13222,1.22637,0
8770,-1.19843,1.13458,1.22794,0
8780,-1.20356,1.13849,1.22569,0
8800,-1.21077,1.14337,1.22054,0
8820,-1.21891,1.1486,1.21232,0
8840,-1.22786,1.15433,1.20114,0
8860,-1.23425,1.16351,1.19072,0
8880,-1.26114,1.17348,1.16621,0
8900,-1.27807,1.17819,1.14702,0
8920,-1.2912,1.18601,1.12671,0
8940,-1.32618,1.19275,1.08908,0
8960,-1.35137,1.20191,1.05946,0
8980,-1.37816,1.21026,1.02996,0
9000,-1.40761,1.21712,0.99752,0
9020,-1.44032,1.22391,0.962513,0
9040,-1.47406,1.23074,0.92706,0
9060,-1.50975,1.23691,0.888779,0
9080,-1.54856,1.24172,0.848727,0
9100,-1.58514,1.2444,0.810147,0
9120,-1.61752,1.24672,0.774913,0
9140,-1.64661,1.24824,0.741934,0
9160,-1.67277,1.24958,0.712614,0
9180,-1.69573,1.25035,0.68733,0
9200,-1.71507,1.25083,0.665569,0
9220,-1.73241,1.25259,0.64831,0
9240,-1.74891,1.25428,0.631738,0
9260,-1.76384,1.25627,0.618562,0
9280,-1.77785,1.25848,0.60598,0
9300,-1.79213,1.26263,0.595102,0
9320,-1.80713,1.2685,0.58628,0
9340,-1.82165,1.27415,0.57868,0
9360,-1.83672,1.28012,0.570566,0
9380,-1.84814,1.28693,0.563423,0
9400,-1.85921,1.29465,0.556155,0
9420,-1.86947,1.30356,0.548706,0
9440,-1.8808,1.31264,0.539527,0
9460,-1.89716,1.32167,0.524523,0
9480,-1.91177,1.33266,0.512082,0
9500,-1.92598,1.34581,0.501675,0
9520,-1.94773,1.3606,0.486269,0
9540,-1.97708,1.37383,0.463521,0
9560,-2.00741,1.38579,0.439285,0
9580,-2.03421,1.39699,0.415549,0
9600,-2.06026,1.40703,0.390163,0
9620,-2.09583,1.41362,0.353812,0
9640,-2.13434,1.41938,0.312797,0
9660,-2.17716,1.4217,0.264617,0
9680,-2.2215,1.42228,0.214309,0
9700,-2.27403,1.42249,0.155628,0
9720,-2.32912,1.42112,0.0962624,0
9730,-2.39154,1.42064,0.0330646,0
9750,-2.45179,1.41834,-0.0258721,0
9770,-2.50043,1.4146,-0.0732234,0
9790,-2.53975,1.4112,-0.11142,0
9810,-2.57203,1.40618,-0.144395,0
9830,-2.59793,1.40064,-0.17227,0
9850,-2.61756,1.39399,-0.192888,0
9870,-2.63326,1.38826,-0.208452,0
9890,-2.64107,1.3824,-0.215544,0
9910,-2.64449,1.37716,-0.21885,0
9930,-2.64431,1.37203,-0.218066,0
9950,-2.64288,1.36714,-0.21506,0
9970,-2.63988,1.36361,-0.210092,0
9990,-2.63143,1.36021,-0.199935,0
10010,-2.61531,1.35622,-0.183667,0
10040,-2.56209,1.34805,-0.134761,0
10060,-2.53153,1.34371,-0.108098,0
10080,-2.50549,1.34136,-0.0866887,0
10100,-2.50698,1.34319,-0.0895082,0
10120,-2.4907,1.33818,-0.0692675,0
10140,-2.46042,1.33791,-0.0398615,0
10160,-2.42969,1.3323,-0.0125258,0
10180,-2.40869,1.33032,0.00680532,0
10200,-2.38048,1.33052,0.0320903,0
10220,-2.35466,1.33004,0.0580454,0
10240,-2.33074,1.3302,0.0843144,0
10260,-2.3031,1.32935,0.11404,0
10280,-2.26929,1.32816,0.147468,0
10300,-2.23578,1.3285,0.178849,0
10320,-2.20322,1.32882,0.210198,0
10340,-2.17047,1.32725,0.2442,0
10360,-2.13378,1.32534,0.282864,0
10380,-2.09226,1.32313,0.326008,0
10400,-2.05249,1.32034,0.367283,0
10420,-2.01553,1.31788,0.407486,0
10440,-1.97891,1.31488,0.447564,0
10460,-1.93971,1.3088,0.487819,0
10480,-1.89816,1.30307,0.529235,0
10500,-1.8553,1.29738,0.570501,0
10520,-1.81449,1.2911,0.608897,0
10540,-1.77608,1.2855,0.646468,0
10560,-1.74037,1.27865,0.681991,0
10580,-1.70109,1.272,0.718293,0
10600,-1.66246,1.26534,0.754602,0
10620,-1.6244,1.2575,0.788674,0
10640,-1.58977,1.24839,0.82068,0
10660,-1.55958,1.23885,0.849146,0
10680,-1.52995,1.22693,0.874768,0
10700,-1.5024,1.21246,0.894899,0
10720,-1.47589,1.19794,0.912049,0
10740,-1.44806,1.18421,0.929411,0
10750,-1.42357,1.16894,0.943085,0
10770,-1.40441,1.15458,0.955287,0
10790,-1.3869,1.14127,0.967809,0
10810,-1.37274,1.12927,0.978078,0
10830,-1.36252,1.11795,0.984618,0
10850,-1.35711,1.10857,0.987765,0
10870,-1.35474,1.10004,0.988539,0
10890,-1.35288,1.09363,0.988592,0
10910,-1.35233,1.08882,0.987596,0
10930,-1.35452,1.08682,0.98619,0
10950,-1.36095,1.08692,0.984751,0
10970,-1.372,1.08726,0.982361,0
10990,-1.38537,1.08674,0.977378,0
11010,-1.39917,1.08611,0.969664,0
11030,-1.41216,1.0846,0.958991,0
11050,-1.42244,1.0813,0.945893,0
11070,-1.42811,1.07576,0.931639,0
11090,-1.4262,1.06809,0.917552,0
11110,-1.41767,1.05893,0.906599,0
11130,-1.40318,1.04978,0.90036,0
11150,-1.38187,1.04038,0.901795,0
11170,-1.35539,1.03046,0.909652,0
11190,-1.32335,1.01958,0.924524,0
11210,-1.28528,1.00839,0.94619,0
11230,-1.24473,0.996802,0.971559,0
11250,-1.20505,0.986155,0.998934,0
11270,-1.16661,0.975665,1.02489,0
11290,-1.12957,0.965773,1.04727,0
11310,-1.09428,0.958301,1.06479,0
11330,-1.06467,0.953997,1.07605,0
11350,-1.04346,0.954373,1.08302,0
11370,-1.03547,0.959607,1.08337,0
11390,-1.03988,0.968651,1.07772,0
11410,-1.05164,0.981022,1.06767,0
11430,-1.06877,0.995047,1.05174,0
11450,-1.09153,1.01013,1.02975,0
11470,-1.11626,1.02481,1.00513,0
11490,-1.14012,1.03829,0.979874,0
11510,-1.16092,1.04944,0.956311,0
11530,-1.17506,1.05753,0.936467,0
11550,-1.18041,1.0621,0.922791,0
11570,-1.17665,1.06312,0.916457,0
11590,-1.16336,1.06108,0.917612,0
11610,-1.14297,1.05651,0.924678,0
11630,-1.11669,1.05023,0.936697,0
11650,-1.08794,1.04266,0.951244,0
11670,-1.06064,1.03407,0.966537,0
11690,-1.03628,1.02492,0.980556,0
11710,-1.01471,1.01611,0.993275,0
11730,-0.996362,1.00851,1.00476,0
11750,-0.982599,1.00244,1.01554,0
11770,-0.973694,0.997417,1.02467,0
11790,-0.967705,0.993329,1.03259,0
11810,-0.963403,0.990345,1.03913,0
11830,-0.961463,0.988274,1.04443,0
11850,-0.961277,0.987773,1.04929,0
11870,-0.963757,0.988236,1.05275,0
11890,-0.968157,0.98894,1.05484,0
11910,-0.971129,0.989787,1.05613,0
11930,-0.972627,0.990885,1.05748,0
11950,-0.972613,0.992214,1.05948,0
11970,-0.974119,0.993728,1.06151,0
11990,-0.976876,0.995311,1.06389,0
12010,-0.979624,0.996634,1.06591,0
12030,-0.982053,0.997267,1.0669,0
12050,-0.982845,0.997924,1.06779,0
12070,-0.983426,0.999659,1.06801,0
12090,-0.986797,1.00202,1.06711,0
12110,-0.993469,1.00551,1.06528,0
12130,-1.00221,1.00969,1.06301,0
12150,-1.01303,1.01476,1.05926,0
12170,-1.02613,1.01954,1.05245,0
12190,-1.03929,1.02425,1.04312,0
12210,-1.05099,1.02835,1.03231,0
12230,-1.06117,1.03253,1.02092,0
12250,-1.0717,1.0369,1.0079,0
12270,-1.08206,1.03601,0.98468,0
12290,-1.08605,1.03397,0.974703,0
12310,-1.07144,1.0347,0.978853,0
12330,-1.06529,1.0374,0.981089,0
12350,-1.07291,1.03908,0.978585,0
12370,-1.07489,1.04085,0.979599,0
12390,-1.07281,1.03979,0.980676,0
12410,-1.06539,1.03978,0.982152,0
12430,-1.05731,1.0408,0.98414,0
12450,-1.05274,1.0428,0.986247,0
12470,-1.05222,1.04547,0.988062,0
12490,-1.05404,1.04844,0.988848,0
12510,-1.05544,1.05141,0.990232,0
12530,-1.05559,1.05358,0.991453,0
12550,-1.0534,1.05485,0.993859,0
12570,-1.04917,1.0554,0.997007,0
12590,-1.04336,1.05631,1.0023,0
12610,-1.03731,1.05747,1.00943,0
12630,-1.03159,1.05874,1.0183,0
12650,-1.02629,1.05995,1.02766,0
12670,-1.02055,1.06081,1.03663,0
12690,-1.01365,1.06249,1.04591,0
12710,-1.00613,1.06482,1.05509,0
12730,-0.997124,1.06657,1.06598,0
12750,-0.984825,1.07116,1.08192,0
12770,-0.975813,1.07409,1.09386,0
12790,-0.970631,1.07426,1.10102,0
12810,-0.966546,1.07246,1.10385,0
12830,-0.961198,1.06998,1.10587,0
12850,-0.957933,1.06788,1.10684,0
12870,-0.957558,1.06583,1.10589,0
12890,-0.959725,1.06451,1.10322,0
12910,-0.96437,1.06422,1.09981,0
12930,-0.971054,1.06399,1.09506,0
12950,-0.980705,1.06366,1.08776,0
12970,-0.990292,1.06378,1.07979,0
12990,-0.997758,1.06496,1.07262,0
13010,-1.00321,1.06636,1.06721,0
13030,-1.00991,1.06842,1.06131,0
13050,-1.01683,1.07029,1.05551,0
13070,-1.02258,1.07114,1.04911,0
13090,-1.0253,1.07238,1.0414,0
13110,-1.02426,1.07382,1.03409,0
13130,-1.02723,1.07448,1.02583,0
13150,-1.03941,1.07548,1.01617,0
13170,-1.06244,1.07508,1.00755,0
13190,-1.10078,1.07252,0.988727,0
13210,-1.13845,1.0609,0.963035,0
13230,-1.14569,1.04425,0.946703,0
13250,-1.13234,1.02461,0.945504,0
13270,-1.1148,0.999207,0.957892,0
13290,-1.0885,0.963782,0.984772,0
13310,-1.0522,0.920124,1.02142,0
13330,-1.00724,0.870712,1.06765,0
13350,-0.963158,0.816245,1.11679,0
13370,-0.929513,0.756204,1.15902,0
13390,-0.903971,0.69198,1.19391,0
13410,-0.882322,0.625549,1.2251,0
13430,-0.863747,0.557635,1.25203,0
13450,-0.845823,0.488724,1.27547,0
13470,-0.82816,0.419458,1.29521,0
13490,-0.810683,0.351448,1.31232,0
13510,-0.795923,0.286371,1.32921,0
13530,-0.777289,0.221363,1.35138,0
13550,-0.752601,0.152264,1.38256,0
13570,-0.721661,0.0792464,1.4188,0
13590,-0.693727,0.00302649,1.45728,0
13610,-0.672961,-0.0725839,1.49753,0
13630,-0.657721,-0.145373,1.54264,0
13650,-0.651481,-0.215287,1.59567,0
13670,-0.658561,-0.280574,1.66101,0
13690,-0.678818,-0.338546,1.73751,0
13710,-0.710759,-0.386896,1.82208,0
13730,-0.752689,-0.423535,1.91188,0
13750,-0.802413,-0.446894,2.00363,0
13770,-0.857341,-0.456671,2.09292,0
13790,-0.919461,-0.454751,2.17795,0
13810,-0.984748,-0.440661,2.25705,0
13830,-1.04806,-0.418022,2.32523,0
13850,-1.09933,-0.392689,2.38314,0
13870,-1.12892,-0.351614,2.43735,0
13890,-1.14429,-0.295186,2.48293,0
13910,-1.15605,-0.238056,2.51039,0
13930,-1.16391,-0.185786,2.51562,0
13950,-1.16134,-0.133641,2.50633,0
13970,-1.14395,-0.0799666,2.48874,0
13990,-1.11451,-0.0278621,2.46494,0
14010,-1.08068,0.0233877,2.43478,0
14030,-1.05352,0.0757047,2.39922,0
14050,-1.03188,0.126193,2.35769,0
14070,-1.01333,0.173682,2.31234,0
14090,-0.993742,0.220269,2.26464,0
14110,-0.969696,0.261535,2.21346,0
14130,-0.947596,0.292602,2.16298,0
14150,-0.923214,0.319883,2.11022,0
14170,-0.893162,0.34298,2.05243,0
14190,-0.857001,0.360819,1.99072,0
14200,-0.823749,0.37848,1.9299,0
14220,-0.797247,0.398466,1.86639,0
14240,-0.778621,0.419695,1.79794,0
14260,-0.766974,0.443021,1.72809,0
14280,-0.761188,0.469164,1.657,0
14300,-0.756377,0.497816,1.58803,0
14320,-0.756694,0.530432,1.5227,0
14340,-0.764584,0.566013,1.45943,0
14360,-0.779742,0.604469,1.398,0
14380,-0.796698,0.646154,1.3404,0
14400,-0.819571,0.691534,1.28347,0
14420,-0.849198,0.738303,1.22475,0
14440,-0.881637,0.784739,1.16701,0
14460,-0.915411,0.831145,1.11107,0
14480,-0.953636,0.877782,1.05178,0
14500,-0.998661,0.922942,0.987001,0
14520,-1.04849,0.964144,0.915476,0
14540,-1.10427,0.999874,0.83742,0
14560,-1.16013,1.03203,0.760542,0
14580,-1.20953,1.05876,0.688583,0
14600,-1.2475,1.08177,0.62539,0
14620,-1.27387,1.0994,0.570958,0
14640,-1.28742,1.11426,0.531551,0
14660,-1.28819,1.12699,0.512705,0
14680,-1.27829,1.13558,0.512184,0
14700,-1.26112,1.14042,0.525154,0
14720,-1.23701,1.14237,0.550169,0
14740,-1.21126,1.14171,0.582034,0
14760,-1.18541,1.13752,0.618095,0
14780,-1.15964,1.12981,0.65558,0
14800,-1.13143,1.11896,0.694467,0
14820,-1.10215,1.10637,0.735154,0
14840,-1.07236,1.09161,0.777396,0
14860,-1.04316,1.07585,0.819306,0
14880,-1.01629,1.06019,0.859251,0
14900,-0.993405,1.04463,0.897127,0
14920,-0.973978,1.0299,0.932943,0
14940,-0.957432,1.01645,0.96784,0
14960,-0.943015,1.0039,0.999494,0
14980,-0.929046,0.992749,1.02902,0
15000,-0.916493,0.983604,1.05709,0
15020,-0.906773,0.976868,1.08426,0
15040,-0.900164,0.971654,1.10994,0
15060,-0.896423,0.968028,1.13427,0
15080,-0.896231,0.96664,1.15722,0
15100,-0.898137,0.967165,1.17895,0
15120,-0.900933,0.969745,1.19884,0
15140,-0.903913,0.973941,1.21516,0
15160,-0.904596,0.980001,1.22949,0
15180,-0.90436,0.988386,1.242,0
15200,-0.904353,0.998005,1.25293,0
15220,-0.907684,1.00924,1.26145,0
15240,-0.912279,1.02149,1.2677,0
15260,-0.917481,1.03381,1.27202,0
15280,-0.924855,1.04557,1.27271,0
15300,-0.934363,1.05669,1.27036,0
15320,-0.9525,1.05895,1.25091,0
15340,-0.959689,1.0627,1.23423,0
15360,-0.962393,1.06768,1.21695,0
15380,-0.970868,1.07381,1.19414,0
15400,-0.98467,1.08259,1.1724,0
15420,-1.00562,1.08782,1.14973,0
15440,-1.02744,1.09301,1.12597,0
15460,-1.04616,1.09515,1.10186,0
15480,-1.06547,1.09688,1.08054,0
15500,-1.08506,1.09675,1.0608,0
15520,-1.10364,1.09449,1.03925,0
15540,-1.11362,1.09191,1.01932,0
15560,-1.11596,1.09082,1.00371,0
15580,-1.11755,1.09112,0.990648,0
15600,-1.12358,1.09313,0.980113,0
15620,-1.1323,1.09561,0.971129,0
15640,-1.1415,1.09855,0.963765,0
15660,-1.1489,1.10193,0.957252,0
15680,-1.1544,1.10504,0.951338,0
15700,-1.15958,1.10887,0.947667,0
15720,-1.16543,1.11311,0.946244,0
15740,-1.17222,1.11708,0.945724,0
15760,-1.17822,1.12112,0.946212,0
15780,-1.18411,1.12573,0.947441,0
15800,-1.18956,1.13023,0.950046,0
15820,-1.19539,1.13512,0.953997,0
15840,-1.20033,1.13938,0.959089,0
15860,-1.20284,1.14265,0.965049,0
15880,-1.20422,1.14577,0.97206,0
15900,-1.20516,1.14917,0.98074,0
15920,-1.20583,1.15316,0.99096,0
15940,-1.20944,1.15717,1.00186,0
15960,-1.21367,1.1601,1.0123,0
15980,-1.21707,1.1631,1.0219,0
16000,-1.21704,1.16746,1.03368,0
16020,-1.21989,1.17052,1.04207,0
16040,-1.22273,1.17391,1.05052,0
16060,-1.22775,1.17723,1.05806,0
16080,-1.23494,1.1802,1.06355,0
16100,-1.24259,1.182,1.06722,0
16120,-1.25115,1.18319,1.06853,0
16140,-1.25874,1.18381,1.07042,0
16160,-1.2662,1.18393,1.07191,0
16180,-1.2707,1.18284,1.07515,0
16190,-1.27353,1.18067,1.07951,0
16210,-1.27407,1.17827,1.08708,0
16230,-1.27373,1.17542,1.09645,0
16250,-1.27732,1.17331,1.10489,0
16270,-1.27721,1.17035,1.11647,0
16290,-1.27641,1.16729,1.12728,0
16310,-1.27372,1.16461,1.13882,0
16330,-1.27138,1.16217,1.14962,0
16350,-1.26794,1.15914,1.1632,0
16370,-1.26255,1.15554,1.17794,0
16390,-1.25674,1.15271,1.1956,0
16410,-1.25099,1.14978,1.21423,0
16430,-1.24431,1.146,1.23326,0
16450,-1.23527,1.1415,1.2531,0
16470,-1.22478,1.13732,1.27295,0
16490,-1.21439,1.13419,1.29211,0
16510,-1.20411,1.13154,1.30953,0
16530,-1.1953,1.12948,1.32476,0
16550,-1.18964,1.12869,1.33773,0
16570,-1.1873,1.12899,1.34625,0
16590,-1.18802,1.13079,1.35191,0
16610,-1.1909,1.13257,1.35383,0
16630,-1.19568,1.13415,1.35165,0
16650,-1.20178,1.13606,1.34642,0
16670,-1.21084,1.13948,1.33799,0
16690,-1.22008,1.14378,1.32809,0
16710,-1.23165,1.14743,1.31509,0
16730,-1.24733,1.15118,1.29748,0
16750,-1.26623,1.15545,1.27754,0
16770,-1.2876,1.15909,1.25636,0
16790,-1.3078,1.16167,1.23599,0
16810,-1.32532,1.16325,1.21613,0
16830,-1.33983,1.16334,1.19678,0
16850,-1.35386,1.16291,1.17805,0
16870,-1.36629,1.16211,1.16044,0
16890,-1.37774,1.16064,1.14365,0
16910,-1.38749,1.15814,1.12723,0
16930,-1.39729,1.15649,1.11136,0
16950,-1.40848,1.15549,1.09656,0
16970,-1.42207,1.15463,1.0816,0
16990,-1.43668,1.15365,1.06656,0
17010,-1.45168,1.15277,1.05093,0
17030,-1.46718,1.15151,1.03464,0
17050,-1.48198,1.14928,1.01775,0
17070,-1.4934,1.14786,1.00293,0
17090,-1.50285,1.14561,0.988772,0
17110,-1.50877,1.14236,0.978038,0
17130,-1.5108,1.1394,0.971632,0
17150,-1.51004,1.1356,0.968578,0
17170,-1.50564,1.13129,0.968708,0
17190,-1.49904,1.12784,0.970761,0
17210,-1.49065,1.12488,0.974449,0
17230,-1.48157,1.12137,0.980306,0
17250,-1.47273,1.11807,0.988532,0
17270,-1.46645,1.11564,0.997362,0
17290,-1.46429,1.1147,1.00367,0
17310,-1.4628,1.1159,1.00997,0
17330,-1.46264,1.11752,1.01458,0
17350,-1.46343,1.11884,1.01711,0
17370,-1.4605,1.12191,1.02053,0
17390,-1.45641,1.12641,1.02382,0
17410,-1.45245,1.13177,1.02601,0
17430,-1.44777,1.13679,1.02662,0
17450,-1.4446,1.13989,1.02447,0
17470,-1.44051,1.14186,1.02272,0
17490,-1.43202,1.14225,1.02282,0
17510,-1.4212,1.14107,1.0226,0
17530,-1.40836,1.14005,1.02228,0
17550,-1.39574,1.13939,1.02181,0
17570,-1.38302,1.13845,1.02334,0
17590,-1.37173,1.13886,1.02567,0
17610,-1.36347,1.14033,1.02697,0
17630,-1.35994,1.14228,1.02728,0
17650,-1.35624,1.14472,1.02781,0
17670,-1.35313,1.1474,1.0271,0
17690,-1.35108,1.14978,1.02329,0
17710,-1.34638,1.15205,1.01942,0
17730,-1.34099,1.15445,1.01384,0
17750,-1.3374,1.15679,1.00615,0
17770,-1.33362,1.16042,0.999976,0
17790,-1.3286,1.16415,0.994927,0
17810,-1.32211,1.16714,0.992089,0
17830,-1.31231,1.16959,0.994441,0
17850,-1.29643,1.17214,1.0056,0
17870,-1.28049,1.17221,1.02085,0
17890,-1.25396,1.17028,1.04486,0
17910,-1.22416,1.16408,1.07192,0
17930,-1.19111,1.15438,1.10092,0
17950,-1.15391,1.1418,1.13282,0
17970,-1.11676,1.1273,1.16502,0
17990,-1.08005,1.11272,1.19755,0
18010,-1.04767,1.09824,1.22788,0
18030,-1.02318,1.08582,1.25587,0
18050,-1.00567,1.07505,1.27952,0
18070,-1.01894,1.06804,1.28655,0
18090,-1.03237,1.06463,1.29716,0
18110,-1.04482,1.06198,1.30796,0
18130,-1.0532,1.05976,1.31763,0
18150,-1.05589,1.05793,1.32452,0
18170,-1.05635,1.05869,1.32807,0
18190,-1.05789,1.06018,1.32835,0
18210,-1.06224,1.06295,1.32481,0
18230,-1.0665,1.06392,1.31705,0
18250,-1.06566,1.06608,1.30889,0
18270,-1.05948,1.07021,1.30289,0
18290,-1.05058,1.0755,1.29838,0
18310,-1.04606,1.0826,1.2895,0
18330,-1.05041,1.09058,1.27771,0
18350,-1.06289,1.09806,1.26187,0
18370,-1.07551,1.10545,1.24491,0
18390,-1.0868,1.11229,1.22706,0
18410,-1.09735,1.11824,1.20937,0
18430,-1.1074,1.12313,1.1922,0
18450,-1.11703,1.12711,1.17588,0
18470,-1.12605,1.12992,1.16079,0
18490,-1.13398,1.13116,1.14665,0
18510,-1.14118,1.13154,1.13405,0
18530,-1.14682,1.13088,1.12229,0
18550,-1.15106,1.13028,1.11196,0
18570,-1.1543,1.1291,1.10269,0
18590,-1.1561,1.12742,1.09524,0
18610,-1.1574,1.12579,1.09012,0
18630,-1.15735,1.12389,1.08644,0
18650,-1.15541,1.12181,1.08482,0
18670,-1.15165,1.12009,1.08598,0
18690,-1.14617,1.11833,1.0896,0
18710,-1.14083,1.11722,1.09515,0
18730,-1.13476,1.11582,1.1026,0
18750,-1.12786,1.11464,1.11183,0
18770,-1.1212,1.11352,1.12158,0
18790,-1.11575,1.11431,1.13406,0
18810,-1.11356,1.11688,1.14617,0
18830,-1.11456,1.11738,1.15181,0
18850,-1.11306,1.12395,1.16564,0
18870,-1.1089,1.12466,1.17721,0
18890,-1.11472,1.12627,1.18875,0
18910,-1.11832,1.12596,1.19893,0
18930,-1.12415,1.12457,1.20259,0
18950,-1.1241,1.12266,1.20803,0
18970,-1.1192,1.118,1.21381,0
18990,-1.11522,1.11147,1.21571,0
19010,-1.11268,1.10498,1.2159,0
19030,-1.11025,1.09872,1.21583,0
19050,-1.10754,1.09261,1.21658,0
19070,-1.10551,1.0866,1.2172,0
19090,-1.10304,1.08086,1.21805,0
19110,-1.10029,1.07579,1.21731,0
19130,-1.09688,1.07178,1.21441,0
19150,-1.09338,1.06953,1.21106,0
19170,-1.09144,1.06926,1.20665,0
19190,-1.09202,1.07103,1.20236,0
19210,-1.09396,1.07411,1.19932,0
19230,-1.09676,1.07824,1.19663,0
19250,-1.10036,1.08374,1.19453,0
19270,-1.10495,1.09,1.19197,0
19290,-1.11179,1.09633,1.18744,0
19310,-1.11998,1.10256,1.17989,0
19330,-1.12692,1.1093,1.17221,0
19350,-1.13613,1.11681,1.16298,0
19370,-1.14632,1.12252,1.15409,0
19390,-1.15635,1.12752,1.14615,0
19410,-1.16526,1.13066,1.13759,0
19430,-1.17168,1.13334,1.13111,0
19450,-1.17753,1.13485,1.12525,0
19470,-1.18245,1.13486,1.11977,0
19490,-1.18643,1.13373,1.11516,0
19510,-1.18958,1.13242,1.11178,0
19530,-1.19127,1.13099,1.11017,0
19550,-1.19281,1.12917,1.10885,0
19570,-1.19333,1.127,1.10863,0
19590,-1.19161,1.12441,1.1093,0
19610,-1.18906,1.12289,1.11169,0
19630,-1.18535,1.12209,1.11628,0
19640,-1.18128,1.12075,1.12093,0
19660,-1.17608,1.11949,1.12592,0
19680,-1.16802,1.11867,1.13298,0
19700,-1.15875,1.11866,1.14143,0
19720,-1.15128,1.11858,1.14936,0
19740,-1.14336,1.11858,1.15761,0
19760,-1.13449,1.11822,1.16641,0
19780,-1.12553,1.11737,1.1743,0
19800,-1.11602,1.11702,1.18318,0
19820,-1.1069,1.11626,1.1916,0
19840,-1.10146,1.11586,1.19869,0
19860,-1.10126,1.11428,1.20238,0
19880,-1.09959,1.1133,1.20583,0
19900,-1.09842,1.11343,1.20925,0
19920,-1.09889,1.11372,1.21131,0
19940,-1.10185,1.11433,1.21025,0
19960,-1.10487,1.11488,1.20765,0
19980,-1.10599,1.11519,1.20538,0
20000,-1.10857,1.11434,1.20055,0
20020,-1.11393,1.11381,1.19435,0
20040,-1.11892,1.11355,1.18785,0
20060,-1.12164,1.11377,1.1826,0
20080,-1.12664,1.1142,1.17661,0
20100,-1.13178,1.11521,1.17191,0
20120,-1.13792,1.11562,1.16622,0
20140,-1.14151,1.11642,1.1622,0
20160,-1.14587,1.11734,1.15738,0
20180,-1.15062,1.11838,1.15216,0
20200,-1.15458,1.11897,1.14688,0
20220,-1.1589,1.11882,1.14041,0
20240,-1.16075,1.11838,1.13535,0
20260,-1.16228,1.11846,1.13111,0
20280,-1.16469,1.11775,1.12703,0
20300,-1.16502,1.11708,1.12549,0
20320,-1.16574,1.1161,1.12399,0
20340,-1.16605,1.11564,1.12359,0
20360,-1.16561,1.11511,1.12395,0
20380,-1.16653,1.11477,1.12453,0
20400,-1.16723,1.1143,1.12565,0
20420,-1.168,1.11458,1.12755,0
20440,-1.16842,1.11479,1.13061,0
20460,-1.16788,1.11662,1.13568,0
20480,-1.17321,1.11611,1.13646,0
20500,-1.17047,1.11535,1.14179,0
20520,-1.167,1.11363,1.14719,0
20540,-1.16476,1.11141,1.15225,0
20560,-1.15932,1.1088,1.1597,0
20580,-1.1535,1.10495,1.16734,0
20600,-1.14626,1.10076,1.17591,0
20620,-1.13711,1.09588,1.18408,0
20640,-1.12763,1.09087,1.19191,0
20660,-1.11809,1.08613,1.19939,0
20680,-1.10916,1.08254,1.20632,0
20700,-1.10219,1.07979,1.21163,0
20720,-1.09744,1.07825,1.21506,0
20740,-1.09509,1.07705,1.21702,0
20760,-1.09498,1.07637,1.21746,0
20780,-1.09717,1.07621,1.21711,0
20800,-1.10158,1.07633,1.2152,0
20820,-1.10906,1.07691,1.21115,0
20840,-1.11758,1.07889,1.20622,0
20860,-1.12901,1.08181,1.19856,0
20880,-1.14627,1.08513,1.18648,0
20900,-1.16532,1.08914,1.17328,0
20920,-1.1874,1.09483,1.15812,0
20940,-1.21265,1.10132,1.141,0
20960,-1.24316,1.10892,1.12204,0
20980,-1.27662,1.11743,1.10166,0
21000,-1.31093,1.12556,1.0798,0
21020,-1.34379,1.13318,1.05769,0
21040,-1.37187,1.13977,1.03812,0
21060,-1.39653,1.14487,1.01897,0
21080,-1.41659,1.14935,1.00262,0
21100,-1.43294,1.15386,0.989722,0
21120,-1.44521,1.15639,0.982027,0
21140,-1.45229,1.15777,0.979881,0
21160,-1.454,1.15932,0.983873,0
21180,-1.45158,1.16084,0.99224,0
21200,-1.443,1.16651,1.01152,0
21220,-1.43834,1.17122,1.02946,0
21240,-1.44209,1.16841,1.04574,0
21260,-1.42915,1.16804,1.07443,0
21280,-1.40851,1.16738,1.10374,0
21300,-1.38859,1.16667,1.13503,0
21320,-1.36515,1.16776,1.17258,0
21340,-1.34155,1.16601,1.21138,0
21360,-1.32169,1.16242,1.24506,0
21380,-1.29961,1.15944,1.27847,0
21400,-1.27372,1.15737,1.31323,0
21420,-1.24681,1.15485,1.34715,0
21440,-1.22275,1.15263,1.37887,0
21460,-1.2038,1.15155,1.40652,0
21480,-1.18756,1.14895,1.43182,0
21500,-1.17288,1.14609,1.45395,0
21520,-1.16013,1.14483,1.47338,0
21540,-1.15193,1.14492,1.48888,0
21560,-1.14627,1.14421,1.50244,0
21580,-1.14276,1.14158,1.51211,0
21600,-1.14042,1.13754,1.52063,0
21620,-1.13783,1.13244,1.52765,0
21630,-1.13492,1.12607,1.53195,0
21650,-1.1341,1.11923,1.53077,0
21670,-1.13447,1.11407,1.52614,0
21690,-1.13782,1.1097,1.51581,0
21710,-1.14954,1.10691,1.49749,0
21730,-1.17006,1.10611,1.47262,0
21750,-1.19362,1.1068,1.44611,0
21770,-1.21654,1.10817,1.41903,0
21790,-1.24057,1.10925,1.38789,0
21810,-1.26698,1.11197,1.35355,0
21830,-1.2937,1.1157,1.31742,0
21850,-1.3245,1.11938,1.27939,0
21870,-1.35617,1.12189,1.24014,0
21890,-1.3869,1.12459,1.20257,0
21910,-1.41534,1.12558,1.16648,0
21930,-1.44108,1.12519,1.13093,0
21950,-1.46268,1.12249,1.09764,0
21970,-1.48276,1.11877,1.0653,0
21990,-1.49729,1.11593,1.0386,0
22010,-1.50714,1.1118,1.0158,0
22030,-1.51544,1.10689,0.996508,0
22050,-1.51966,1.10185,0.981489,0
22070,-1.52128,1.09735,0.971143,0
22090,-1.52003,1.09297,0.964858,0
22110,-1.51663,1.08873,0.962194,0
22130,-1.51138,1.08452,0.963583,0
22150,-1.50328,1.08031,0.969695,0
22170,-1.4919,1.07689,0.980282,0
22190,-1.4803,1.07185,0.991682,0
22210,-1.46762,1.06666,1.00365,0
22230,-1.45074,1.0618,1.0189,0
22250,-1.43547,1.05672,1.03382,0
22270,-1.41968,1.05063,1.04937,0
22290,-1.40288,1.04399,1.06484,0
22310,-1.38495,1.03631,1.07947,0
22330,-1.36684,1.02779,1.09406,0
22350,-1.34979,1.01847,1.10833,0
22370,-1.33474,1.00828,1.12166,0
22390,-1.32106,0.997618,1.13299,0
22410,-1.30879,0.986499,1.14228,0
22430,-1.29631,0.975125,1.1506,0
22450,-1.2864,0.963142,1.15705,0
22470,-1.2782,0.951029,1.16295,0
22490,-1.27033,0.937547,1.1666,0
22510,-1.26161,0.923889,1.16843,0
22530,-1.2522,0.911612,1.16951,0
22550,-1.24468,0.900301,1.16963,0
22570,-1.23855,0.890241,1.16974,0
22590,-1.2335,0.880315,1.16846,0
22610,-1.22903,0.870426,1.16537,0
22630,-1.22349,0.861784,1.16207,0
22650,-1.21525,0.85425,1.15912,0
22670,-1.2066,0.848114,1.15654,0
22690,-1.19915,0.844061,1.15398,0
22710,-1.19201,0.839658,1.14468,0
22730,-1.18461,0.841341,1.14444,0
22750,-1.17821,0.844272,1.13909,0
22770,-1.18205,0.84747,1.13276,0
22790,-1.18438,0.854339,1.12701,0
22810,-1.18742,0.861761,1.11952,0
22830,-1.19289,0.871843,1.11019,0
22850,-1.19634,0.882542,1.10165,0
22870,-1.20101,0.892437,1.09149,0
22890,-1.20617,0.902772,1.07892,0
22910,-1.21147,0.913803,1.06445,0
22930,-1.21606,0.924434,1.04871,0
22950,-1.2204,0.936286,1.03421,0
22970,-1.22624,0.948818,1.02081,0
22990,-1.23391,0.962043,1.01086,0
23010,-1.24131,0.974208,1.00257,0
23030,-1.24791,0.984915,0.995887,0
23050,-1.25125,0.995616,0.99222,0
23070,-1.25202,1.00591,0.990823,0
23090,-1.25322,1.01493,0.990767,0
23110,-1.25377,1.02267,0.991207,0
23130,-1.25178,1.02922,0.993896,0
23150,-1.24814,1.03357,0.99734,0
23170,-1.24327,1.036,1.00161,0
23190,-1.23643,1.03602,1.00728,0
23210,-1.2271,1.03147,1.01415,0
23230,-1.21853,1.0265,1.01844,0
23250,-1.20538,1.0227,1.02558,0
23270,-1.1933,1.02041,1.03399,0
23290,-1.1882,1.01497,1.03989,0
23310,-1.18479,1.00968,1.04438,0
23330,-1.18017,1.00525,1.05016,0
23350,-1.17474,1.0006,1.05652,0
23370,-1.16895,0.996083,1.06384,0
23390,-1.16336,0.99083,1.07277,0
23410,-1.15733,0.984755,1.08261,0
23430,-1.15019,0.97639,1.09566,0
23450,-1.13161,0.965604,1.11423,0
23470,-1.10219,0.952649,1.13993,0
23490,-1.07005,0.935666,1.17016,0
23510,-1.03951,0.916878,1.20631,0
23530,-1.01294,0.89058,1.24007,0
23550,-0.979415,0.862486,1.27796,0
23570,-0.945448,0.83248,1.31936,0
23590,-0.918055,0.800845,1.35784,0
23610,-0.896386,0.767611,1.39347,0
23630,-0.877402,0.732791,1.42784,0
23650,-0.85772,0.695333,1.46164,0
23670,-0.834339,0.655564,1.49656,0
23690,-0.813538,0.613298,1.5313,0
23710,-0.799166,0.567187,1.56515,0
23730,-0.784789,0.515196,1.59965,0
23750,-0.766357,0.458986,1.63675,0
23770,-0.750662,0.398317,1.6726,0
23790,-0.740769,0.333094,1.70667,0
23810,-0.731745,0.26332,1.74329,0
23830,-0.719287,0.188372,1.78337,0
23850,-0.704297,0.102431,1.82974,0
23870,-0.70587,0.020417,1.87002,0
23890,-0.707722,-0.0698111,1.91467,0
23910,-0.709696,-0.162941,1.96631,0
23930,-0.72004,-0.255842,2.01671,0
23950,-0.73893,-0.355436,2.07024,0
23970,-0.764596,-0.455096,2.1322,0
23990,-0.799492,-0.549642,2.20023,0
24010,-0.844131,-0.640779,2.27079,0
24030,-0.903117,-0.723908,2.3489,0
24050,-0.975159,-0.798746,2.4414,0
24070,-1.05815,-0.862234,2.54333,0
24090,-1.15043,-0.912689,2.64628,0
24110,-1.24976,-0.951673,2.75195,0
24130,-1.35056,-0.977234,2.86139,0
24150,-1.44135,-0.992768,2.9633,0
24180,-1.59299,-1.00563,3.13408,0
24200,-1.65219,-1.00828,-3.08315,0
24220,-1.70181,-1.0091,-3.03042,0
24240,-1.74097,-1.00899,-2.98618,0
24260,-1.77201,-1.00753,-2.94824,0
24280,-1.79826,-1.00593,-2.91623,0
24300,-1.82007,-1.00436,-2.89009,0
24320,-1.83612,-1.00317,-2.86974,0
24340,-1.84872,-1.00284,-2.8514,0
24360,-1.85727,-1.00039,-2.83614,0
24380,-1.86553,-0.99074,-2.80801,0
24390,-1.86469,-0.987558,-2.79786,0
24410,-1.86415,-0.984657,-2.79133,0
24430,-1.86305,-0.98083,-2.78667,0
24450,-1.86271,-0.976366,-2.78229,0
24470,-1.86484,-0.971903,-2.77616,0
24490,-1.8695,-0.967587,-2.76835,0
24510,-1.87761,-0.963782,-2.75735,0
24530,-1.888,-0.961378,-2.74474,0
24550,-1.89997,-0.96104,-2.73117,0
24570,-1.91278,-0.960694,-2.71509,0
24590,-1.9279,-0.960486,-2.69762,0
24610,-1.94482,-0.960821,-2.67859,0
24630,-1.96302,-0.959929,-2.65871,0
24650,-1.98093,-0.957401,-2.63827,0
24670,-1.9975,-0.953607,-2.62064,0
24690,-2.01039,-0.949302,-2.6063,0
24710,-2.01666,-0.944234,-2.59663,0
24730,-2.02406,-0.940479,-2.58706,0
24750,-2.02687,-0.935983,-2.58421,0
24770,-2.03108,-0.932714,-2.57843,0
24790,-2.03925,-0.930919,-2.57021,0
24810,-2.04649,-0.929993,-2.56501,0
24830,-2.05167,-0.929808,-2.56493,0
24850,-2.05361,-0.928765,-2.56742,0
24870,-2.05374,-0.927372,-2.57179,0
24890,-2.05342,-0.927125,-2.57723,0
24910,-2.05204,-0.929029,-2.58427,0
24930,-2.05087,-0.932978,-2.59279,0
24950,-2.05089,-0.937984,-2.59967,0
24970,-2.05449,-0.941882,-2.60018,0
24980,-2.06221,-0.946022,-2.59686,0
25000,-2.06982,-0.95046,-2.59296,0
25020,-2.07701,-0.955047,-2.58899,0
25040,-2.08174,-0.958567,-2.58664,0
25060,-2.08693,-0.960225,-2.58072,0
25080,-2.09433,-0.9596,-2.56915,0
25100,-2.10429,-0.958166,-2.5545,0
25120,-2.114,-0.957673,-2.54164,0
25140,-2.12441,-0.958458,-2.52981,0
25160,-2.13305,-0.960331,-2.52062,0
25180,-2.14188,-0.96132,-2.51189,0
25200,-2.15331,-0.960264,-2.50112,0
25220,-2.16171,-0.957654,-2.49272,0
25240,-2.16731,-0.955548,-2.48733,0
25260,-2.1708,-0.952826,-2.48346,0
25280,-2.17301,-0.94994,-2.48089,0
25300,-2.17659,-0.947983,-2.47803,0
25320,-2.18295,-0.945821,-2.47313,0
25340,-2.18969,-0.944107,-2.46837,0
25360,-2.19602,-0.94281,-2.46478,0
25380,-2.19965,-0.942555,-2.46495,0
25400,-2.20289,-0.943396,-2.46521,0
25420,-2.20479,-0.944368,-2.46548,0
25440,-2.20578,-0.944249,-2.46584,0
25460,-2.20589,-0.942031,-2.46559,0
25480,-2.20761,-0.940173,-2.46265,0
25500,-2.21062,-0.938982,-2.45872,0
25520,-2.21153,-0.937175,-2.45676,0
25520,-2.20812,-0.934598,-2.45795,0
25540,-2.20335,-0.932908,-2.4614,0
25560,-2.19959,-0.932204,-2.46459,0
25580,-2.19706,-0.932415,-2.46716,0
25610,-2.19417,-0.934235,-2.4714,0
25630,-2.19439,-0.934532,-2.472,0
25650,-2.19634,-0.93458,-2.47069,0
25670,-2.19787,-0.933031,-2.46936,0
25700,-2.1937,-0.932277,-2.47511,0
25710,-2.19065,-0.932086,-2.47809,0
25730,-2.18786,-0.931455,-2.4795,0
25740,-2.18091,-0.928581,-2.48287,0
25760,-2.17766,-0.928431,-2.48507,0
25780,-2.17628,-0.928461,-2.48561,0
25800,-2.17582,-0.927845,-2.48492,0
25820,-2.17451,-0.927727,-2.4855,0
25840,-2.17323,-0.928115,-2.48632,0
25860,-2.17256,-0.928764,-2.48593,0
25880,-2.17076,-0.929549,-2.48727,0
25900,-2.16594,-0.931412,-2.49278,0
25920,-2.16117,-0.934422,-2.49875,0
25940,-2.15835,-0.93804,-2.50317,0
25960,-2.15683,-0.942336,-2.5066,0
25980,-2.1561,-0.946663,-2.50992,0
26000,-2.1565,-0.950839,-2.51205,0
26020,-2.15795,-0.953658,-2.51304,0
26040,-2.15952,-0.95564,-2.5135,0
26060,-2.15961,-0.956464,-2.51514,0
26080,-2.16119,-0.955551,-2.51442,0
26100,-2.16453,-0.953028,-2.51064,0
26120,-2.16828,-0.949656,-2.50594,0
26140,-2.17132,-0.947176,-2.50231,0
26160,-2.17675,-0.944777,-2.49654,0
26180,-2.17917,-0.942473,-2.4933,0
26200,-2.17946,-0.940513,-2.49263,0
26220,-2.18012,-0.938481,-2.49066,0
26240,-2.18813,-0.93582,-2.48088,0
26260,-2.1944,-0.934662,-2.47377,0
26280,-2.19865,-0.936458,-2.47151,0
26300,-2.19892,-0.938069,-2.47328,0
26320,-2.19615,-0.939549,-2.47701,0
26340,-2.19243,-0.940593,-2.48082,0
26360,-2.18973,-0.941494,-2.48383,0
26380,-2.18858,-0.942361,-2.48452,0
26400,-2.18935,-0.94381,-2.48314,0
26420,-2.18762,-0.944913,-2.48395,0
26440,-2.18171,-0.94688,-2.48944,0
26460,-2.17631,-0.94973,-2.4943,0
26480,-2.17321,-0.95143,-2.49577,0
26500,-2.1724,-0.953838,-2.49647,0
26520,-2.1717,-0.95713,-2.4986,0
26540,-2.16984,-0.959681,-2.50124,0
26560,-2.16761,-0.961529,-2.50351,0
26580,-2.16621,-0.962234,-2.5046,0
26600,-2.16557,-0.961891,-2.50468,0
26620,-2.16472,-0.961242,-2.50518,0
26640,-2.1638,-0.96126,-2.50677,0
26660,-2.16423,-0.961516,-2.50714,0
26680,-2.16624,-0.961696,-2.50638,0
26700,-2.16911,-0.96201,-2.50504,0
26720,-2.17219,-0.96214,-2.50353,0
26740,-2.1744,-0.961999,-2.5027,0
26760,-2.17551,-0.96174,-2.5022,0
26780,-2.17577,-0.961347,-2.50227,0
26800,-2.17558,-0.960802,-2.50243,0
26820,-2.17591,-0.960501,-2.50194,0
26840,-2.17663,-0.960229,-2.50055,0
26860,-2.17754,-0.959175,-2.49881,0
26880,-2.17754,-0.957846,-2.49757,0
26900,-2.17505,-0.957136,-2.49909,0
26910,-2.17302,-0.957066,-2.50133,0
26930,-2.17098,-0.956098,-2.50314,0
26950,-2.1682,-0.95442,-2.50576,0
26970,-2.16578,-0.952687,-2.50824,0
26990,-2.1633,-0.95113,-2.51204,0
27010,-2.15822,-0.949662,-2.51717,0
27030,-2.15119,-0.947941,-2.52424,0
27050,-2.14253,-0.947387,-2.53278,0
27070,-2.13725,-0.94855,-2.53764,0
27090,-2.13306,-0.947802,-2.53849,0
27110,-2.12937,-0.94838,-2.53753,0
27130,-2.13098,-0.949128,-2.53096,0
27150,-2.13567,-0.949074,-2.52147,0
27170,-2.13591,-0.949614,-2.51744,0
27190,-2.13223,-0.951298,-2.51857,0
27210,-2.1269,-0.95209,-2.52116,0
27230,-2.12232,-0.951904,-2.52368,0
27250,-2.12011,-0.951501,-2.52478,0
27270,-2.11977,-0.951994,-2.5249,0
27290,-2.11994,-0.952794,-2.5243,0
27310,-2.1205,-0.953916,-2.52408,0
27330,-2.1214,-0.954486,-2.52394,0
27350,-2.12269,-0.954508,-2.52405,0
27370,-2.12583,-0.954576,-2.52337,0
27390,-2.12965,-0.954888,-2.52245,0
27410,-2.13485,-0.954565,-2.52003,0
27430,-2.13945,-0.953691,-2.51766,0
27450,-2.14479,-0.953137,-2.51399,0
27470,-2.15061,-0.951913,-2.50876,0
27490,-2.15579,-0.949808,-2.50303,0
27510,-2.16086,-0.949051,-2.49812,0
27530,-2.16494,-0.949582,-2.49431,0
27550,-2.16789,-0.950998,-2.49277,0
27570,-2.16894,-0.951854,-2.49278,0
27590,-2.165,-0.954506,-2.50039,0
27610,-2.14878,-0.956904,-2.51907,0
27630,-2.14058,-0.95802,-2.52811,0
27650,-2.13733,-0.95828,-2.52984,0
27670,-2.1357,-0.957135,-2.5285,0
27690,-2.13323,-0.957747,-2.52942,0
27710,-2.12988,-0.959613,-2.53256,0
27730,-2.12554,-0.961645,-2.53623,0
27750,-2.12307,-0.963373,-2.5379,0
27770,-2.1215,-0.964251,-2.53803,0
27790,-2.11971,-0.965451,-2.53829,0
27810,-2.11753,-0.966646,-2.53872,0
27830,-2.11615,-0.967186,-2.53826,0
27850,-2.11543,-0.967334,-2.53767,0
27870,-2.11624,-0.967734,-2.53631,0
27890,-2.11735,-0.967374,-2.53514,0
27910,-2.11838,-0.966271,-2.53482,0
27930,-2.11829,-0.965129,-2.53634,0
27950,-2.11826,-0.964371,-2.53851,0
27970,-2.11913,-0.963842,-2.5404,0
27990,-2.12005,-0.963244,-2.54246,0
28010,-2.12148,-0.96347,-2.54482,0
28030,-2.12294,-0.963939,-2.54639,0
28050,-2.1252,-0.964284,-2.54631,0
28070,-2.12728,-0.964655,-2.54615,0
28090,-2.12879,-0.965565,-2.5465,0
28110,-2.12941,-0.966655,-2.54784,0
28130,-2.12823,-0.968596,-2.55096,0
28150,-2.12666,-0.971193,-2.55449,0
28170,-2.12441,-0.973764,-2.55853,0
28190,-2.12141,-0.976794,-2.56376,0
28210,-2.11673,-0.979792,-2.57099,0
28230,-2.11036,-0.982919,-2.57963,0
28250,-2.10251,-0.987896,-2.59092,0
28270,-2.09226,-0.994244,-2.60518,0
28290,-2.0759,-1.00083,-2.62459,0
28310,-2.05369,-1.00725,-2.64862,0
28330,-2.02911,-1.01497,-2.67464,0
28350,-2.00319,-1.02306,-2.70103,0
28370,-1.97447,-1.02981,-2.72873,0
28390,-1.94431,-1.03522,-2.75669,0
28410,-1.91479,-1.04017,-2.78494,0
28430,-1.88567,-1.0453,-2.81457,0
28450,-1.85722,-1.0497,-2.84407,0
28470,-1.83356,-1.05211,-2.86817,0
28490,-1.81774,-1.054,-2.88451,0
28510,-1.80844,-1.05613,-2.89415,0
28530,-1.80439,-1.058,-2.89826,0
28550,-1.80376,-1.06021,-2.89929,0
28570,-1.80445,-1.06184,-2.89923,0
28590,-1.80444,-1.06279,-2.89853,0
28610,-1.8037,-1.06396,-2.89877,0
28630,-1.79902,-1.06509,-2.90203,0
28650,-1.78897,-1.06631,-2.91019,0
28670,-1.77199,-1.06607,-2.92394,0
28690,-1.74838,-1.06556,-2.94408,0
28710,-1.71752,-1.06463,-2.97057,0
28730,-1.67891,-1.06261,-3.00454,0
28750,-1.6327,-1.05827,-3.04626,0
28760,-1.57649,-1.04974,-3.09712,0
28770,-1.50827,-1.03851,3.12523,0
28790,-1.4309,-1.02273,3.05803,0
28810,-1.34519,-0.99946,2.98508,0
28830,-1.25168,-0.967293,2.90728,0
28850,-1.15525,-0.924554,2.8296,0
28870,-1.06102,-0.869033,2.75554,0
28890,-0.969596,-0.802195,2.68537,0
28910,-0.888973,-0.721667,2.6247,0
28930,-0.814183,-0.639905,2.57065,0
28950,-0.768134,-0.552802,2.53461,0
28970,-0.725823,-0.480741,2.50893,0
28990,-0.690644,-0.414848,2.49428,0
29010,-0.657032,-0.356189,2.4857,0
29030,-0.630613,-0.304583,2.48015,0
29050,-0.605438,-0.259384,2.47706,0
29070,-0.589594,-0.2214,2.47835,0
29090,-0.577609,-0.18656,2.48067,0
29110,-0.565727,-0.158591,2.48,0
29130,-0.558139,-0.135,2.48123,0
29150,-0.55046,-0.116697,2.48141,0
29170,-0.543324,-0.10191,2.48398,0
29190,-0.534096,-0.0895163,2.48704,0
29210,-0.525304,-0.0765296,2.4877,0
29230,-0.515533,-0.0621103,2.48718,0
29250,-0.507311,-0.0448147,2.48652,0
29270,-0.501448,-0.0264806,2.48635,0
29290,-0.492797,-0.00740508,2.48544,0
29310,-0.484117,0.0127005,2.48385,0
29330,-0.476142,0.0338824,2.48387,0
29350,-0.468475,0.0579149,2.48465,0
29370,-0.471708,0.0845081,2.48108,0
29390,-0.468237,0.112823,2.48387,0
29410,-0.463165,0.144197,2.48858,0
29420,-0.451503,0.173016,2.49496,0
29440,-0.435961,0.200525,2.50496,0
29460,-0.418189,0.224496,2.51304,0
29480,-0.40917,0.241225,2.51392,0
29490,-0.411737,0.251917,2.50766,0
29510,-0.418004,0.256156,2.49278,0
29530,-0.407898,0.256669,2.48161,0
29550,-0.39823,0.257813,2.47273,0
29570,-0.399855,0.261344,2.46448,0
29590,-0.405566,0.265315,2.45555,0
29610,-0.40464,0.268609,2.44884,0
29630,-0.399167,0.270793,2.44229,0
29650,-0.392992,0.272351,2.43599,0
29670,-0.387282,0.273411,2.42979,0
29690,-0.382213,0.273239,2.42383,0
29710,-0.379205,0.273003,2.41857,0
29730,-0.379624,0.271267,2.41399,0
29750,-0.382982,0.269564,2.4105,0
29770,-0.388634,0.269774,2.40733,0
29790,-0.393965,0.27158,2.40585,0
29810,-0.397947,0.273094,2.40563,0
29830,-0.400706,0.274257,2.40552,0
29850,-0.407654,0.276378,2.40459,0
29870,-0.417156,0.276546,2.40234,0
29890,-0.426502,0.276458,2.39739,0
29910,-0.442279,0.273115,2.39066,0
29930,-0.461441,0.266486,2.38546,0
29950,-0.485803,0.253553,2.38316,0
29970,-0.517019,0.23107,2.37964,0
29990,-0.548799,0.195393,2.37675,0
30010,-0.584745,0.148224,2.3758,0
30030,-0.624011,0.0898363,2.37609,0
30050,-0.663894,0.0199508,2.3799,0
30070,-0.70934,-0.0616523,2.38775,0
30090,-0.756993,-0.154953,2.40196,0
30110,-0.803827,-0.257126,2.42372,0
30130,-0.853723,-0.363588,2.45321,0
30150,-0.912167,-0.471883,2.4929,0
30170,-0.98336,-0.573686,2.54296,0
30190,-1.06551,-0.670284,2.6049,0
30210,-1.1558,-0.757824,2.67924,0
30230,-1.25497,-0.832447,2.7684,0
30250,-1.36274,-0.891839,2.87035,0
30260,-1.47812,-0.935874,2.98192,0
30280,-1.59172,-0.963259,3.09424,0
30300,-1.69341,-0.974681,-3.08413,0
30320,-1.77869,-0.975339,-2.99283,0
30340,-1.84575,-0.968649,-2.9206,0
30360,-1.89468,-0.959169,-2.86602,0
30380,-1.93261,-0.946911,-2.82356,0
30400,-1.96085,-0.934586,-2.7917,0
30420,-1.97914,-0.924187,-2.77013,0
30440,-1.99184,-0.920228,-2.75624,0
30460,-1.99681,-0.921569,-2.75009,0
30480,-2.00158,-0.923955,-2.74579,0
30500,-2.00738,-0.924344,-2.73929,0
30520,-2.01745,-0.924467,-2.72746,0
30540,-2.03147,-0.924545,-2.71147,0
30560,-2.0456,-0.924525,-2.69519,0
30580,-2.0583,-0.923862,-2.68118,0
30600,-2.06851,-0.923163,-2.6712,0
30620,-2.0785,-0.922601,-2.6619,0
30640,-2.08869,-0.922961,-2.65282,0
30660,-2.09893,-0.923941,-2.64275,0
30680,-2.11185,-0.9254,-2.63261,0
30700,-2.12293,-0.925192,-2.62391,0
30720,-2.13211,-0.9246,-2.61753,0
30740,-2.14019,-0.923291,-2.6117,0
30760,-2.14616,-0.921118,-2.60577,0
30780,-2.15202,-0.918383,-2.59913,0
30800,-2.15862,-0.915354,-2.59202,0
30820,-2.16595,-0.912807,-2.58416,0
30840,-2.17193,-0.91141,-2.5778,0
30860,-2.17723,-0.910183,-2.57343,0
30880,-2.18291,-0.910147,-2.56793,0
30900,-2.19086,-0.908948,-2.5587,0
30920,-2.1994,-0.907204,-2.54907,0
30940,-2.20461,-0.906531,-2.54612,0
30960,-2.20511,-0.905586,-2.5465,0
30980,-2.2039,-0.905044,-2.549,0
31000,-2.2036,-0.904887,-2.55265,0
31020,-2.20836,-0.90416,-2.55191,0
31040,-2.20637,-0.901913,-2.55602,0
31060,-2.20164,-0.902751,-2.56329,0
31080,-2.19706,-0.905012,-2.57432,0
31100,-2.19288,-0.907698,-2.58795,0
31120,-2.19647,-0.911423,-2.59953,0
31140,-2.21035,-0.91342,-2.60255,0
31160,-2.23812,-0.914903,-2.59414,0
31180,-2.27549,-0.913764,-2.57785,0
31200,-2.32196,-0.910877,-2.55582,0
31220,-2.37456,-0.905579,-2.52991,0
31240,-2.4337,-0.896493,-2.49502,0
31260,-2.49909,-0.880144,-2.45676,0
31280,-2.56463,-0.857483,-2.41743,0
31300,-2.62767,-0.83166,-2.38139,0
31320,-2.68544,-0.806222,-2.35047,0
31340,-2.73732,-0.785,-2.32547,0
31360,-2.77384,-0.766784,-2.31338,0
31380,-2.80535,-0.754951,-2.30964,0
31400,-2.82569,-0.743348,-2.3127,0
31420,-2.84344,-0.730609,-2.31363,0
31440,-2.86481,-0.721558,-2.31293,0
31460,-2.88368,-0.715857,-2.31304,0
31480,-2.90025,-0.71686,-2.31288,0
31500,-2.91576,-0.726213,-2.30922,0
31520,-2.93348,-0.738717,-2.30279,0
31540,-2.94495,-0.754638,-2.30019,0
31560,-2.9504,-0.771923,-2.30094,0
31580,-2.95455,-0.791814,-2.30211,0
31600,-2.95625,-0.813222,-2.30553,0
31620,-2.94824,-0.83381,-2.31771,0
31640,-2.92784,-0.855422,-2.34235,0
31660,-2.89408,-0.88171,-2.38223,0
31680,-2.84965,-0.911374,-2.4397,0
31700,-2.79342,-0.939404,-2.5168,0
31720,-2.72669,-0.962959,-2.60805,0
31740,-2.65178,-0.983396,-2.71142,0
31760,-2.57806,-0.99829,-2.81892,0
31780,-2.51113,-1.00649,-2.9261,0
31800,-2.44554,-1.00655,-3.03104,0
31820,-2.38326,-0.999663,-3.12761,0
31840,-2.32378,-0.98553,3.05955,0
31860,-2.25715,-0.963238,2.95798,0
31880,-2.19419,-0.932137,2.86424,0
31900,-2.14294,-0.901783,2.7914,0
31920,-2.09592,-0.875983,2.74239,0
31940,-2.05175,-0.870415,2.70806,0
31960,-2.00509,-0.882933,2.68536,0
31980,-1.95252,-0.891433,2.67799,0
32000,-1.9026,-0.898838,2.67904,0
32020,-1.85685,-0.918051,2.68831,0
32040,-1.825,-0.949322,2.71128,0
32060,-1.79623,-0.986763,2.74406,0
32080,-1.76688,-1.02682,2.78935,0
32100,-1.74232,-1.07133,2.84738,0
32120,-1.73033,-1.11434,2.90841,0
32140,-1.7206,-1.14972,2.96184,0
32160,-1.69972,-1.18228,3.00147,0
32180,-1.67488,-1.2138,3.02954,0
32200,-1.64669,-1.23704,3.0439,0
32220,-1.59874,-1.24605,3.03458,0
32240,-1.56534,-1.23204,3.03599,0
32260,-1.54924,-1.21875,3.04329,0
32270,-1.53524,-1.19837,3.0377,0
32290,-1.51949,-1.17494,3.01735,0
32310,-1.51463,-1.14976,2.99773,0
32330,-1.5178,-1.12668,2.97833,0
32350,-1.52591,-1.10683,2.95661,0
32370,-1.54345,-1.09003,2.93701,0
32390,-1.56104,-1.07568,2.91366,0
32410,-1.57369,-1.06633,2.88407,0
32430,-1.5846,-1.06154,2.8507,0
32450,-1.59003,-1.05785,2.81337,0
32470,-1.59454,-1.05499,2.7746,0
32490,-1.58989,-1.05284,2.73085,0
32510,-1.58116,-1.04805,2.68805,0
32530,-1.56713,-1.04395,2.64816,0
32550,-1.55515,-1.04047,2.61796,0
32570,-1.53986,-1.03599,2.59154,0
32590,-1.52014,-1.02904,2.5669,0
32610,-1.49446,-1.01643,2.54189,0
32630,-1.46528,-1.0001,2.51749,0
32650,-1.43175,-0.987457,2.49501,0
32670,-1.39455,-0.978055,2.47718,0
32690,-1.35915,-0.967552,2.4624,0
32710,-1.32742,-0.953129,2.44872,0
32730,-1.29459,-0.939717,2.43312,0
32750,-1.2616,-0.92714,2.41865,0
32770,-1.23674,-0.914586,2.41204,0
32790,-1.21061,-0.901202,2.40488,0
32810,-1.18078,-0.889135,2.39393,0
32830,-1.1599,-0.875937,2.38883,0
32850,-1.14787,-0.86474,2.38919,0
32870,-1.1402,-0.859412,2.39136,0
32890,-1.13876,-0.857677,2.39673,0
32910,-1.1424,-0.857451,2.404,0
32930,-1.15176,-0.858709,2.41711,0
32950,-1.16795,-0.862977,2.43763,0
32970,-1.18469,-0.870112,2.46069,0
32990,-1.20244,-0.878122,2.48603,0
33010,-1.22009,-0.886477,2.50906,0
33030,-1.23828,-0.892829,2.52979,0
33050,-1.25688,-0.897897,2.55287,0
33070,-1.27808,-0.905474,2.58146,0
33090,-1.30163,-0.916825,2.61725,0
33110,-1.32993,-0.927507,2.65951,0
33130,-1.36433,-0.93718,2.70574,0
33150,-1.40139,-0.946056,2.75369,0
33170,-1.44354,-0.952926,2.80821,0
33190,-1.49058,-0.958529,2.86829,0
33210,-1.53791,-0.96322,2.9317,0
33230,-1.58741,-0.964688,2.99672,0
33250,-1.63686,-0.963144,3.05738,0
33270,-1.68108,-0.95831,3.11075,0
33290,-1.71692,-0.952717,-3.12766,0
33310,-1.73697,-0.947429,-3.09577,0
33330,-1.75706,-0.945503,-3.07174,0
33350,-1.78079,-0.944569,-3.04539,0
33370,-1.80826,-0.942153,-3.01354,0
33390,-1.83882,-0.940661,-2.98169,0
33410,-1.86909,-0.936942,-2.9511,0
33430,-1.89785,-0.929173,-2.91803,0
33450,-1.92386,-0.920671,-2.88676,0
33470,-1.94633,-0.912125,-2.85834,0
33490,-1.96527,-0.908168,-2.83492,0
33510,-1.98357,-0.905006,-2.81464,0
33530,-1.9999,-0.901676,-2.80011,0
33550,-2.01316,-0.896757,-2.78646,0
33570,-2.02851,-0.891171,-2.76965,0
33590,-2.04484,-0.88417,-2.75056,0
33610,-2.06229,-0.877801,-2.73128,0
33630,-2.07829,-0.872012,-2.71441,0
33650,-2.09279,-0.867664,-2.69993,0
33670,-2.10719,-0.863744,-2.68608,0
33690,-2.1214,-0.860067,-2.67227,0
33710,-2.13402,-0.856707,-2.65968,0
33730,-2.14501,-0.8529,-2.64783,0
33750,-2.15516,-0.849385,-2.63824,0
33770,-2.16205,-0.847241,-2.63266,0
33790,-2.16704,-0.844667,-2.62883,0
33810,-2.17245,-0.840891,-2.62484,0
33830,-2.177,-0.836258,-2.62078,0
33870,-2.18453,-0.827122,-2.61328,0
33890,-2.18475,-0.825828,-2.61182,0
33910,-2.18279,-0.82562,-2.61316,0
33930,-2.17748,-0.828412,-2.61782,0
33950,-2.16626,-0.833462,-2.62644,0
33970,-2.1498,-0.839677,-2.63942,0
33990,-2.12679,-0.845682,-2.65594,0
34010,-2.09826,-0.85149,-2.67665,0
34030,-2.06399,-0.859443,-2.70262,0
34050,-2.02315,-0.869548,-2.73549,0
34070,-1.9691,-0.882696,-2.78098,0
34090,-1.91603,-0.8955,-2.82579,0
34110,-1.84977,-0.905753,-2.88195,0
34130,-1.77003,-0.914231,-2.95143,0
34150,-1.67877,-0.918866,-3.03276,0
34170,-1.58207,-0.916562,-3.1171,0
34190,-1.48584,-0.909493,3.08079,0
34210,-1.39595,-0.895398,2.99884,0
34230,-1.31048,-0.871872,2.92082,0
34250,-1.23201,-0.840024,2.84998,0
34270,-1.16111,-0.800218,2.78596,0
34290,-1.09924,-0.759012,2.72842,0
34310,-1.04967,-0.713149,2.68019,0
34330,-1.0095,-0.663807,2.63773,0
34350,-0.983639,-0.612972,2.60723,0
34370,-0.961608,-0.567097,2.57808,0
34390,-0.943705,-0.527095,2.55236,0
34410,-0.931508,-0.480537,2.52568,0
34430,-0.9259,-0.433559,2.50596,0
34450,-0.919481,-0.39602,2.48661,0
34470,-0.916917,-0.364523,2.46992,0
34490,-0.919427,-0.335194,2.46273,0
34510,-0.915547,-0.311824,2.45681,0
34530,-0.907254,-0.294103,2.44848,0
34550,-0.90538,-0.275038,2.44318,0
34570,-0.90991,-0.257274,2.44317,0
34590,-0.912176,-0.243866,2.4447,0
34610,-0.912983,-0.233546,2.45009,0
34630,-0.913983,-0.228981,2.45906,0
34650,-0.91476,-0.230844,2.46889,0
34670,-0.916625,-0.236485,2.47747,0
34690,-0.918315,-0.246017,2.48686,0
34710,-0.917559,-0.26088,2.4985,0
34730,-0.915208,-0.279792,2.5116,0
34750,-0.916685,-0.299833,2.52768,0
34770,-0.923637,-0.319241,2.54818,0
34790,-0.935752,-0.338178,2.56884,0
34810,-0.946675,-0.359575,2.5926,0
34830,-0.955985,-0.381871,2.6202,0
34850,-0.965216,-0.403809,2.6467,0
34870,-0.972791,-0.423869,2.67252,0
34890,-0.977431,-0.439502,2.69657,0
34910,-0.979426,-0.452286,2.72058,0
34930,-0.980367,-0.460286,2.74421,0
34950,-0.980702,-0.462826,2.76365,0
34970,-0.98087,-0.463626,2.77787,0
34990,-0.979836,-0.462403,2.78595,0
35010,-0.973583,-0.46195,2.79353,0
35030,-0.967464,-0.459127,2.80401,0
35050,-0.965851,-0.455169,2.81062,0
35070,-0.95834,-0.452369,2.81135,0
35090,-0.941769,-0.453909,2.81313,0
35110,-0.927701,-0.462686,2.81501,0
35130,-0.908545,-0.472459,2.80955,0
35150,-0.886911,-0.478526,2.79935,0
35170,-0.874937,-0.48581,2.79134,0
35190,-0.875483,-0.48979,2.78507,0
35210,-0.881464,-0.490088,2.78031,0
35230,-0.885595,-0.493605,2.77628,0
35250,-0.885544,-0.499738,2.77404,0
35270,-0.888348,-0.505425,2.77383,0
35290,-0.894334,-0.50992,2.76972,0
35310,-0.899972,-0.515139,2.76382,0
35330,-0.903821,-0.519089,2.75742,0
35350,-0.90679,-0.523599,2.75011,0
35370,-0.907957,-0.528296,2.73931,0
35390,-0.910279,-0.532822,2.7283,0
35410,-0.910502,-0.53633,2.71683,0
35430,-0.911627,-0.54147,2.7029,0
35450,-0.912001,-0.546859,2.68714,0
35470,-0.910055,-0.55374,2.66942,0
35490,-0.903642,-0.560662,2.65402,0
35510,-0.89478,-0.567219,2.63969,0
35530,-0.887806,-0.573379,2.62578,0
35550,-0.881548,-0.578763,2.61156,0
35570,-0.875187,-0.585362,2.59805,0
35590,-0.865997,-0.591903,2.58427,0
35610,-0.856439,-0.598758,2.5718,0
35630,-0.844957,-0.604236,2.55336,0
35650,-0.832677,-0.607367,2.53449,0
35670,-0.816786,-0.611843,2.52415,0
35680,-0.800915,-0.621173,2.5163,0
35700,-0.787474,-0.627994,2.50603,0
35720,-0.778902,-0.630381,2.49839,0
35740,-0.770867,-0.631506,2.49389,0
35760,-0.760273,-0.634728,2.49039,0
35780,-0.751163,-0.639071,2.4913,0
35800,-0.745038,-0.643595,2.49588,0
35820,-0.740419,-0.64737,2.49861,0
35840,-0.735983,-0.650796,2.50045,0
35860,-0.733157,-0.655125,2.50358,0
35880,-0.731793,-0.659598,2.50827,0
35900,-0.731515,-0.662284,2.51224,0
35920,-0.733104,-0.664304,2.51624,0
35940,-0.734844,-0.667298,2.51852,0
35960,-0.735747,-0.67143,2.52109,0
35980,-0.736003,-0.675493,2.52116,0
36000,-0.734878,-0.67848,2.51886,0
36020,-0.734294,-0.680815,2.5176,0
36040,-0.734596,-0.681843,2.51656,0
36060,-0.733254,-0.683154,2.51461,0
36080,-0.731288,-0.684742,2.51154,0
36100,-0.729051,-0.686116,2.50796,0
36120,-0.722727,-0.686284,2.50148,0
36140,-0.716832,-0.688691,2.49636,0
36160,-0.712833,-0.689671,2.49264,0
36180,-0.716406,-0.705207,2.49424,0
36200,-0.712145,-0.700442,2.48866,0
36220,-0.718522,-0.715595,2.49115,0
36240,-0.718362,-0.710488,2.48865,0
36260,-0.723368,-0.720784,2.48828,0
36280,-0.724598,-0.719623,2.48491,0
36300,-0.724707,-0.718303,2.48131,0
36320,-0.728869,-0.728474,2.48094,0
36340,-0.725399,-0.720639,2.47511,0
36360,-0.729024,-0.732787,2.47503,0
36380,-0.726873,-0.730664,2.47161,0
36400,-0.727226,-0.733558,2.47119,0
36420,-0.734966,-0.738092,2.47741,0
36440,-0.737715,-0.742239,2.48155,0
36460,-0.738007,-0.746249,2.48322,0
36480,-0.738739,-0.749182,2.48343,0
36500,-0.739069,-0.751558,2.4818,0
36520,-0.740595,-0.7546,2.48049,0
36540,-0.743146,-0.758873,2.48028,0
36560,-0.745299,-0.763355,2.47988,0
36580,-0.748583,-0.767143,2.48062,0
36600,-0.752165,-0.770572,2.48223,0
36620,-0.755262,-0.774067,2.48435,0
36640,-0.758432,-0.778367,2.4865,0
36660,-0.761353,-0.782333,2.48772,0
36680,-0.763872,-0.786387,2.48799,0
36700,-0.766535,-0.79065,2.48774,0
36720,-0.769495,-0.795286,2.48855,0
36740,-0.771916,-0.799267,2.4894,0
36760,-0.77343,-0.800857,2.4885,0
36780,-0.775276,-0.801353,2.48795,0
36800,-0.775754,-0.799751,2.4865,0
36820,-0.773647,-0.797371,2.48393,0
36840,-0.769436,-0.795586,2.48116,0
36860,-0.765807,-0.794306,2.48054,0
36880,-0.761488,-0.792598,2.48005,0
36900,-0.756868,-0.792152,2.47973,0
36920,-0.752086,-0.791434,2.47935,0
36940,-0.747847,-0.789856,2.47959,0
36960,-0.743134,-0.787973,2.47912,0
36980,-0.737219,-0.786418,2.47743,0
37000,-0.7309,-0.784457,2.47509,0
37020,-0.724135,-0.782046,2.472,0
37040,-0.718152,-0.778873,2.46939,0
37060,-0.711825,-0.775502,2.46539,0
37080,-0.704515,-0.771429,2.45997,0
37100,-0.697774,-0.766724,2.45527,0
37120,-0.692743,-0.763669,2.45283,0
37140,-0.6895,-0.762159,2.45352,0
37160,-0.686672,-0.760341,2.45377,0
37180,-0.684708,-0.758654,2.45368,0
37200,-0.683837,-0.757583,2.45472,0
37220,-0.683678,-0.756967,2.457,0
37240,-0.684446,-0.757048,2.46016,0
37260,-0.68495,-0.756373,2.46257,0
37280,-0.685233,-0.755154,2.46424,0
37300,-0.685516,-0.754005,2.46545,0
37320,-0.684744,-0.754034,2.46594,0
37340,-0.684114,-0.754031,2.46591,0
37360,-0.682707,-0.753146,2.46475,0
37380,-0.680879,-0.75311,2.46426,0
37400,-0.679339,-0.753331,2.46399,0
37420,-0.67783,-0.753526,2.46367,0
37440,-0.67749,-0.753166,2.46381,0
37460,-0.677279,-0.752969,2.46401,0
37480,-0.676303,-0.751799,2.46289,0
37500,-0.673655,-0.749968,2.4604,0
37520,-0.672163,-0.749089,2.45875,0
37540,-0.671869,-0.749771,2.45722,0
37560,-0.672361,-0.751118,2.45557,0
37580,-0.672825,-0.753151,2.45286,0
37600,-0.674712,-0.755558,2.4511,0
37620,-0.676221,-0.7579,2.44963,0
37640,-0.677731,-0.761366,2.44839,0
37660,-0.679334,-0.764221,2.447,0
37670,-0.681215,-0.766478,2.44672,0
37690,-0.682845,-0.767866,2.44583,0
37710,-0.683928,-0.767962,2.44484,0
37730,-0.684282,-0.767656,2.44414,0
37750,-0.683772,-0.76847,2.44406,0
37770,-0.684332,-0.769975,2.44503,0
37790,-0.68417,-0.770425,2.44538,0
37810,-0.68499,-0.770509,2.4472,0
37830,-0.685505,-0.770542,2.45004,0
37850,-0.686041,-0.771449,2.45367,0
37870,-0.686304,-0.771776,2.45645,0
37890,-0.686402,-0.772964,2.45876,0
37910,-0.686517,-0.775357,2.45984,0
37930,-0.688797,-0.777301,2.46157,0
37950,-0.691007,-0.779059,2.46284,0
37970,-0.691948,-0.781628,2.46367,0
37990,-0.694978,-0.784042,2.46813,0
38010,-0.696169,-0.784909,2.47107,0
38030,-0.697518,-0.786411,2.47342,0
38050,-0.698841,-0.789031,2.47596,0
38070,-0.700013,-0.79342,2.47761,0
38090,-0.702111,-0.797938,2.4782,0
38110,-0.708266,-0.803232,2.483,0
38130,-0.714003,-0.80725,2.48918,0
38150,-0.716963,-0.811593,2.49492,0
38170,-0.719387,-0.812565,2.50061,0
38190,-0.720266,-0.814484,2.50285,0
38210,-0.721561,-0.817112,2.50391,0
38230,-0.725871,-0.81839,2.50909,0
38250,-0.727664,-0.816163,2.51388,0
38270,-0.726137,-0.813351,2.51407,0
38290,-0.725347,-0.813006,2.5158,0
38310,-0.726605,-0.814517,2.52088,0
38330,-0.728828,-0.813434,2.52819,0
38350,-0.730217,-0.810232,2.53322,0
38370,-0.730018,-0.807469,2.53568,0
38390,-0.729693,-0.805603,2.53571,0
38410,-0.727712,-0.802596,2.53194,0
38430,-0.726556,-0.800083,2.52798,0
38450,-0.726718,-0.79807,2.52499,0
38470,-0.727626,-0.796025,2.52227,0
38490,-0.728693,-0.790886,2.51947,0
38510,-0.727013,-0.788187,2.51452,0
38530,-0.725532,-0.787187,2.51116,0
38550,-0.724639,-0.78538,2.50822,0
38570,-0.723631,-0.780861,2.50582,0
38590,-0.72256,-0.774054,2.50279,0
38610,-0.720745,-0.763995,2.49763,0
38630,-0.719117,-0.75049,2.4897,0
38650,-0.718371,-0.731526,2.48308,0
38670,-0.718944,-0.706708,2.47746,0
38690,-0.717201,-0.677161,2.4686,0
38710,-0.715679,-0.642539,2.45437,0
38730,-0.718954,-0.616611,2.44208,0
38750,-0.718309,-0.606992,2.43339,0
38770,-0.716,-0.605612,2.43045,0
38790,-0.710761,-0.604799,2.43298,0
38810,-0.711864,-0.603408,2.43704,0
38830,-0.716652,-0.600201,2.44383,0
38850,-0.724563,-0.594977,2.45348,0
38870,-0.735227,-0.589981,2.46206,0
38890,-0.746994,-0.581447,2.47023,0
38910,-0.760114,-0.569641,2.48215,0
38930,-0.767877,-0.55622,2.49629,0
38950,-0.771374,-0.546941,2.50721,0
38970,-0.774736,-0.542001,2.51637,0
38990,-0.778589,-0.538717,2.52539,0
39010,-0.77732,-0.539929,2.53244,0
39030,-0.774357,-0.546349,2.5351,0
39050,-0.775362,-0.551162,2.53831,0
39070,-0.776999,-0.555422,2.54267,0
39090,-0.775574,-0.560037,2.54332,0
39110,-0.772411,-0.564433,2.54125,0
39130,-0.77115,-0.567454,2.53996,0
39150,-0.770959,-0.568717,2.54033,0
39170,-0.769322,-0.571031,2.53939,0
39190,-0.765234,-0.572842,2.53521,0
39210,-0.760624,-0.573977,2.52817,0
39230,-0.755802,-0.574477,2.52255,0
39250,-0.74871,-0.578033,2.51716,0
39270,-0.739826,-0.580141,2.50845,0
39290,-0.731225,-0.57986,2.49999,0
39310,-0.725551,-0.579025,2.49228,0
39330,-0.719234,-0.578141,2.48405,0
39350,-0.714154,-0.5786,2.47791,0
39370,-0.711093,-0.57864,2.47156,0
39390,-0.707405,-0.578525,2.46489,0
39410,-0.702803,-0.579152,2.45906,0
39430,-0.698397,-0.580758,2.45423,0
39450,-0.693943,-0.582271,2.44915,0
39470,-0.688585,-0.585026,2.44414,0
39490,-0.683575,-0.589003,2.43886,0
39510,-0.680212,-0.591632,2.43579,0
39530,-0.678413,-0.592686,2.43407,0
39550,-0.67598,-0.593951,2.43179,0
39570,-0.674424,-0.595848,2.43097,0
39590,-0.674127,-0.596475,2.42953,0
39610,-0.675127,-0.595758,2.42973,0
39630,-0.675109,-0.59537,2.42904,0
39650,-0.674498,-0.5954,2.42829,0
39670,-0.674331,-0.594921,2.42898,0
39690,-0.674488,-0.594349,2.4291,0
39710,-0.674912,-0.59444,2.42993,0
39730,-0.677434,-0.593317,2.43133,0
39750,-0.68017,-0.591744,2.43081,0
39770,-0.683262,-0.590115,2.43029,0
39790,-0.685437,-0.58843,2.43067,0
39810,-0.686712,-0.587564,2.43143,0
39830,-0.687455,-0.587952,2.43285,0
39850,-0.689927,-0.587591,2.43861,0
39870,-0.692342,-0.58869,2.44466,0
39890,-0.694963,-0.588751,2.45158,0
39910,-0.697799,-0.585831,2.45741,0
39930,-0.70041,-0.582821,2.46109,0
39950,-0.702243,-0.580482,2.4638,0
39970,-0.703393,-0.581109,2.46534,0
39990,-0.702739,-0.583375,2.46735,0
40010,-0.701649,-0.587042,2.46976,0
40030,-0.70118,-0.590419,2.47168,0
40050,-0.702923,-0.594002,2.47372,0
40070,-0.703955,-0.598412,2.47778,0
40090,-0.706281,-0.602444,2.4855,0
40110,-0.708612,-0.603808,2.49143,0
40130,-0.710544,-0.604478,2.49687,0
40150,-0.714974,-0.604874,2.50536,0
40170,-0.718438,-0.605145,2.51407,0
40190,-0.720679,-0.606374,2.52068,0
40210,-0.724306,-0.60561,2.52769,0
40230,-0.726917,-0.604005,2.53387,0
40250,-0.728476,-0.603071,2.53915,0
40270,-0.729853,-0.601639,2.54251,0
40290,-0.731519,-0.601148,2.5451,0
40310,-0.733407,-0.600831,2.54834,0
40330,-0.735033,-0.600981,2.55149,0
40350,-0.737716,-0.603612,2.55392,0
40370,-0.739313,-0.605267,2.55596,0
40390,-0.741999,-0.606656,2.5567,0
40410,-0.745442,-0.607907,2.55646,0
40430,-0.745753,-0.608441,2.5518,0
40450,-0.745591,-0.608555,2.54373,0
40470,-0.743565,-0.607019,2.53134,0
40490,-0.736962,-0.604348,2.5131,0
40510,-0.729598,-0.599839,2.49218,0
40530,-0.724328,-0.595029,2.47224,0
40550,-0.721094,-0.592161,2.45533,0
40570,-0.717786,-0.59145,2.44075,0
40590,-0.713426,-0.590284,2.42873,0
40610,-0.709693,-0.588555,2.41827,0
40630,-0.70607,-0.587702,2.40892,0
40650,-0.703977,-0.58805,2.40244,0
40670,-0.702498,-0.587977,2.39805,0
40690,-0.700752,-0.587234,2.39543,0
40710,-0.698694,-0.586056,2.39466,0
40730,-0.69682,-0.584124,2.39563,0
40750,-0.694363,-0.583797,2.3977,0
40770,-0.692486,-0.584314,2.3999,0
40790,-0.691664,-0.584086,2.40284,0
40810,-0.69137,-0.583611,2.40478,0
40830,-0.691147,-0.581977,2.40601,0
40850,-0.691457,-0.579403,2.40524,0
40870,-0.691,-0.576487,2.40288,0
40890,-0.690184,-0.573432,2.39779,0
40910,-0.690095,-0.56932,2.39256,0
40930,-0.688516,-0.564409,2.38641,0
40950,-0.686915,-0.559914,2.38077,0
40970,-0.688443,-0.556207,2.37613,0
40990,-0.687729,-0.552785,2.37098,0
41010,-0.687047,-0.549936,2.36632,0
41030,-0.686737,-0.547102,2.36203,0
41050,-0.686691,-0.54524,2.35721,0
41070,-0.686369,-0.542139,2.35171,0
41090,-0.685758,-0.538378,2.34937,0
41110,-0.684763,-0.53635,2.34815,0
41120,-0.683185,-0.536744,2.34887,0
41140,-0.682409,-0.539283,2.35148,0
41160,-0.682912,-0.541581,2.35549,0
41180,-0.68433,-0.544168,2.3607,0
41200,-0.684303,-0.546882,2.36479,0
41220,-0.682939,-0.548887,2.36722,0
41240,-0.683208,-0.550826,2.37009,0
41260,-0.685221,-0.553037,2.37204,0
41280,-0.686022,-0.554657,2.37292,0
41300,-0.686777,-0.556457,2.37565,0
41320,-0.687883,-0.558567,2.37738,0
41340,-0.689285,-0.559091,2.37772,0
41360,-0.691175,-0.559928,2.38,0
41380,-0.692179,-0.56043,2.38155,0
41400,-0.693012,-0.560557,2.38335,0
41420,-0.693387,-0.560453,2.38555,0
41440,-0.693237,-0.56009,2.38681,0
41460,-0.692667,-0.559448,2.38787,0
41480,-0.692025,-0.558652,2.38802,0
41500,-0.692308,-0.558011,2.38854,0
41520,-0.692321,-0.557954,2.38862,0
41540,-0.692742,-0.557982,2.38841,0
41560,-0.693888,-0.558651,2.38821,0
41580,-0.695637,-0.558359,2.38822,0
41600,-0.696708,-0.557567,2.38771,0
41620,-0.696911,-0.557327,2.38659,0
41640,-0.697573,-0.559004,2.38615,0
41660,-0.6989,-0.5613,2.3867,0
41680,-0.699626,-0.562815,2.38542,0
41700,-0.700155,-0.563323,2.38489,0
41720,-0.701299,-0.563559,2.384,0
41740,-0.701535,-0.563525,2.38249,0
41760,-0.70197,-0.563875,2.38194,0
41780,-0.70204,-0.563903,2.38138,0
41800,-0.702301,-0.564251,2.38087,0
41820,-0.702574,-0.564293,2.37981,0
41840,-0.703117,-0.563869,2.38044,0
41860,-0.702186,-0.563711,2.38007,0
41880,-0.701405,-0.564294,2.38011,0
41900,-0.701297,-0.56444,2.38062,0
41920,-0.700835,-0.564206,2.38101,0
41940,-0.699882,-0.563662,2.38175,0
41960,-0.698955,-0.562631,2.38266,0
41980,-0.698697,-0.561786,2.38425,0
42000,-0.69831,-0.560585,2.38621,0
42020,-0.69782,-0.559658,2.38826,0
42040,-0.696812,-0.558668,2.38966,0
42060,-0.695957,-0.557055,2.39173,0
42080,-0.695457,-0.555825,2.39414,0
42100,-0.69613,-0.555899,2.39775,0
42120,-0.697187,-0.556859,2.40164,0
42140,-0.697646,-0.556915,2.40476,0
42160,-0.699021,-0.557295,2.40752,0
42180,-0.700657,-0.557077,2.40902,0
42200,-0.703707,-0.557172,2.40948,0
42220,-0.708192,-0.5579,2.40855,0
42240,-0.71509,-0.559565,2.40721,0
42260,-0.723139,-0.562604,2.40406,0
42280,-0.731521,-0.567621,2.39953,0
42300,-0.741823,-0.57427,2.39519,0
42320,-0.752685,-0.582701,2.39046,0
42340,-0.763662,-0.591825,2.38412,0
42360,-0.77498,-0.602457,2.37619,0
42380,-0.785107,-0.614735,2.36807,0
42400,-0.794232,-0.629433,2.35866,0
42420,-0.803596,-0.645426,2.34765,0
42440,-0.812914,-0.661293,2.33717,0
42460,-0.820798,-0.679714,2.32652,0
42480,-0.825929,-0.699971,2.31417,0
42500,-0.830691,-0.719119,2.2991,0
42520,-0.834601,-0.7356,2.28259,0
42540,-0.83745,-0.751989,2.26775,0
42560,-0.838784,-0.768234,2.25315,0
42580,-0.839398,-0.782489,2.23666,0
42600,-0.839731,-0.796256,2.22094,0
42620,-0.841923,-0.811421,2.20997,0
42640,-0.841491,-0.82464,2.19941,0
42660,-0.841218,-0.838552,2.18891,0
42680,-0.840104,-0.850543,2.17827,0
42700,-0.841572,-0.860603,2.17034,0
42720,-0.846259,-0.869121,2.16684,0
42740,-0.849118,-0.877719,2.16217,0
42760,-0.850979,-0.88562,2.15851,0
42780,-0.854213,-0.892136,2.15651,0
42800,-0.85941,-0.897735,2.15617,0
42820,-0.864825,-0.903555,2.15685,0
42840,-0.869847,-0.908141,2.15809,0
42860,-0.875589,-0.911795,2.16025,0
42880,-0.884194,-0.914953,2.16522,0
42900,-0.895039,-0.917484,2.17222,0
42920,-0.905797,-0.918739,2.17868,0
42940,-0.917605,-0.918464,2.185,0
42960,-0.927607,-0.918452,2.18951,0
42980,-0.937423,-0.919077,2.19376,0
43000,-0.946659,-0.91897,2.19796,0
43020,-0.955202,-0.91843,2.20335,0
43040,-0.965139,-0.918919,2.21083,0
43060,-0.977794,-0.920164,2.22238,0
43080,-0.9905,-0.920674,2.23485,0
43100,-1.00258,-0.92131,2.24657,0
43110,-1.01397,-0.922744,2.25692,0
43130,-1.02761,-0.923938,2.26952,0
43150,-1.04234,-0.925586,2.2833,0
43170,-1.05405,-0.926338,2.29459,0
43190,-1.06431,-0.927047,2.3041,0
43210,-1.07582,-0.926672,2.31541,0
43230,-1.0882,-0.926803,2.32786,0
43250,-1.09985,-0.927575,2.33785,0
43270,-1.10913,-0.928552,2.34366,0
43290,-1.11796,-0.927828,2.35213,0
43310,-1.12606,-0.92665,2.36141,0
43330,-1.13241,-0.926318,2.36825,0
43350,-1.13941,-0.926053,2.37529,0
43370,-1.14627,-0.924723,2.38307,0
43390,-1.15317,-0.921341,2.39324,0
43410,-1.15975,-0.917005,2.40434,0
43430,-1.16692,-0.913298,2.41494,0
43450,-1.17234,-0.911312,2.42347,0
43470,-1.17608,-0.908922,2.43088,0
43490,-1.18086,-0.906773,2.43917,0
43510,-1.18477,-0.903369,2.44643,0
43530,-1.18644,-0.898001,2.45109,0
43550,-1.1858,-0.891238,2.45356,0
43570,-1.18465,-0.882863,2.45594,0
43590,-1.18258,-0.875887,2.45573,0
43610,-1.18065,-0.868248,2.45653,0
43630,-1.17697,-0.858296,2.45667,0
43650,-1.17217,-0.847419,2.45628,0
43670,-1.16749,-0.838624,2.45652,0
43690,-1.16364,-0.832142,2.45597,0
43710,-1.15813,-0.826932,2.45407,0
43730,-1.15197,-0.820944,2.45295,0
43750,-1.14507,-0.813799,2.45197,0
43770,-1.13912,-0.805825,2.45196,0
43790,-1.13432,-0.796403,2.45378,0
43810,-1.13043,-0.787062,2.45698,0
43830,-1.12811,-0.779686,2.46061,0
43850,-1.12628,-0.772762,2.46519,0
43870,-1.12532,-0.765019,2.47157,0
43890,-1.1255,-0.755471,2.4794,0
43910,-1.12486,-0.746596,2.48704,0
43930,-1.12297,-0.738252,2.49228,0
43950,-1.1243,-0.728661,2.49795,0
43970,-1.12718,-0.719423,2.5038,0
43990,-1.12755,-0.711276,2.50998,0
44010,-1.12659,-0.704721,2.51475,0
44030,-1.12597,-0.699356,2.51825,0
44050,-1.12716,-0.695129,2.52052,0
44070,-1.12781,-0.691857,2.52246,0
44090,-1.1277,-0.690584,2.52311,0
44110,-1.12577,-0.689843,2.52165,0
44130,-1.12329,-0.689303,2.51784,0
44150,-1.11843,-0.688766,2.51134,0
44170,-1.11338,-0.687131,2.50478,0
44190,-1.10905,-0.685323,2.49627,0
44210,-1.10626,-0.683232,2.48569,0
44230,-1.10519,-0.681107,2.4736,0
44250,-1.10426,-0.67842,2.45986,0
44270,-1.10096,-0.673744,2.44531,0
44290,-1.0988,-0.664608,2.43075,0
44310,-1.09686,-0.654548,2.41422,0
44330,-1.09629,-0.645262,2.3991,0
44350,-1.09687,-0.633911,2.3882,0
44370,-1.09618,-0.624705,2.37785,0
44390,-1.09435,-0.617296,2.36685,0
44410,-1.09133,-0.61005,2.35477,0
44430,-1.08716,-0.601727,2.34338,0
44450,-1.08104,-0.593965,2.33297,0
44470,-1.07344,-0.587944,2.32457,0
44490,-1.06481,-0.584386,2.31703,0
44510,-1.05243,-0.583585,2.30999,0
44530,-1.03983,-0.58512,2.30656,0
44550,-1.0262,-0.589816,2.30521,0
44570,-1.00883,-0.598446,2.30343,0
44590,-0.988852,-0.610391,2.30113,0
44610,-0.970285,-0.625854,2.30122,0
44630,-0.951306,-0.641225,2.30311,0
44650,-0.932362,-0.654228,2.30465,0
44670,-0.913964,-0.668198,2.30498,0
44690,-0.896135,-0.679566,2.3017,0
44710,-0.886239,-0.687754,2.29978,0
44730,-0.880679,-0.69129,2.30064,0
44750,-0.879883,-0.693143,2.30323,0
44770,-0.878749,-0.694356,2.30376,0
44790,-0.873377,-0.695832,2.30053,0
44810,-0.869546,-0.696661,2.29652,0
44830,-0.865074,-0.696556,2.28881,0
44850,-0.856841,-0.695979,2.27704,0
44870,-0.847372,-0.693655,2.26648,0
44890,-0.838321,-0.689433,2.25436,0
44910,-0.828948,-0.681609,2.23786,0
44930,-0.817449,-0.668612,2.21871,0
44950,-0.802746,-0.651927,2.19722,0
44970,-0.783561,-0.631447,2.16998,0
44990,-0.762527,-0.601859,2.14242,0
45010,-0.743879,-0.564728,2.1166,0
45030,-0.725519,-0.523647,2.09337,0
45050,-0.705579,-0.478272,2.07166,0
45070,-0.687349,-0.427067,2.05124,0
45090,-0.672551,-0.370423,2.03211,0
45110,-0.662588,-0.310241,2.01803,0
45130,-0.653178,-0.248339,2.01138,0
45150,-0.641173,-0.188931,2.00748,0
45170,-0.633338,-0.121749,2.00732,0
45190,-0.616862,-0.0556543,2.01119,0
45210,-0.615321,0.0117077,2.01724,0
45230,-0.60803,0.0784331,2.02239,0
45250,-0.600878,0.144895,2.03049,0
45270,-0.591604,0.206046,2.03923,0
45290,-0.569058,0.263041,2.04742,0
45310,-0.528967,0.314562,2.06189,0
45330,-0.485338,0.354579,2.07858,0
45350,-0.469433,0.373538,2.08228,0
45370,-0.457925,0.358032,2.08539,0
45390,-0.475903,0.334532,2.08284,0
45410,-0.490706,0.327415,2.08908,0
45430,-0.494826,0.324345,2.09542,0
45450,-0.490274,0.328767,2.10274,0
45470,-0.485554,0.341755,2.10984,0
45490,-0.481402,0.362277,2.11551,0
45510,-0.47911,0.384521,2.11829,0
45530,-0.479273,0.396682,2.12062,0
45550,-0.476869,0.396323,2.12426,0
45570,-0.478592,0.393827,2.12584,0
45590,-0.481806,0.391932,2.12651,0
45610,-0.479717,0.389173,2.12583,0
45630,-0.475177,0.388357,2.12462,0
45650,-0.471175,0.390468,2.12461,0
45670,-0.468425,0.39333,2.1241,0
45700,-0.466948,0.39235,2.12435,0
45720,-0.468683,0.391293,2.12548,0
45740,-0.471247,0.392082,2.12687,0
45760,-0.471981,0.393059,2.12809,0
45780,-0.471488,0.394724,2.12959,0
45800,-0.471351,0.396898,2.13079,0
45820,-0.470411,0.398824,2.13244,0
45840,-0.469403,0.40043,2.13395,0
45860,-0.468609,0.40159,2.13502,0
45880,-0.468431,0.401829,2.13507,0
45900,-0.4684,0.401999,2.13506,0
45920,-0.468483,0.402112,2.13505,0
45940,-0.469448,0.403285,2.13512,0
45960,-0.469744,0.405283,2.13554,0
45980,-0.470884,0.408096,2.13622,0
46000,-0.472688,0.410504,2.1366,0
46020,-0.474845,0.41306,2.13685,0
46040,-0.476849,0.415806,2.13691,0
46060,-0.478864,0.418358,2.13664,0
46080,-0.480677,0.420242,2.13622,0
46100,-0.482109,0.421696,2.13571,0
46120,-0.483777,0.423194,2.13513,0
46140,-0.486105,0.424751,2.13427,0
46160,-0.488186,0.426472,2.13363,0
46180,-0.489802,0.428155,2.13309,0
46200,-0.491009,0.429461,2.13269,0
46220,-0.492471,0.430601,2.13206,0
46240,-0.493848,0.431626,2.13145,0
46260,-0.493871,0.431926,2.13149,0
46280,-0.493958,0.432041,2.13148,0
46300,-0.494045,0.432156,2.13147,0
46320,-0.49425,0.432319,2.13142,0
46340,-0.493413,0.432502,2.13174,0
46360,-0.492,0.43269,2.13236,0
46380,-0.491242,0.433186,2.13302,0
46400,-0.490712,0.433791,2.1334,0
46420,-0.49061,0.433886,2.13356,0
46440,-0.491699,0.435175,2.13381,0
46460,-0.492475,0.435887,2.13407,0
46480,-0.492312,0.436626,2.1345,0
46500,-0.491395,0.43739,2.13557,0
46520,-0.489794,0.437168,2.13691,0
46540,-0.486656,0.43657,2.13872,0
46550,-0.486117,0.437499,2.14143,0
46570,-0.484154,0.438269,2.14431,0
46590,-0.485405,0.439414,2.14633,0
46610,-0.487951,0.442102,2.1479,0
46630,-0.491061,0.446284,2.15005,0
46630,-0.493382,0.451521,2.15253,0
46640,-0.497984,0.45768,2.1556,0
46660,-0.503644,0.464791,2.1592,0
46680,-0.511514,0.471678,2.161,0
46700,-0.519782,0.479165,2.16152,0
46720,-0.528207,0.485964,2.1617,0
46740,-0.538967,0.491661,2.15861,0
46760,-0.554885,0.499058,2.15343,0
46780,-0.574697,0.506028,2.1472,0
46800,-0.59259,0.511948,2.14115,0
46820,-0.606573,0.51756,2.13549,0
46860,-0.624134,0.524211,2.13289,0
46880,-0.624653,0.523613,2.13357,0
46890,-0.623819,0.520099,2.1339,0
46910,-0.617277,0.515419,2.13512,0
46930,-0.607589,0.508789,2.136,0
46940,-0.588801,0.497092,2.13884,0
46960,-0.58662,0.498565,2.14032,0
46980,-0.591807,0.504486,2.14483,0
46990,-0.59259,0.505574,2.14779,0
47020,-0.594285,0.512063,2.15577,0
47040,-0.595663,0.513879,2.15824,0
47060,-0.598519,0.516385,2.15878,0
47080,-0.601821,0.518022,2.15734,0
47100,-0.606274,0.51885,2.15362,0
47120,-0.610825,0.519732,2.14953,0
47140,-0.615959,0.519252,2.14482,0
47160,-0.620292,0.518015,2.13996,0
47180,-0.62298,0.515919,2.13571,0
47200,-0.624554,0.513933,2.13179,0
47220,-0.626392,0.511946,2.12845,0
47240,-0.627726,0.51002,2.12517,0
47260,-0.628861,0.507952,2.12147,0
47280,-0.630093,0.505775,2.11744,0
47300,-0.632072,0.503963,2.11317,0
47320,-0.63538,0.502371,2.10931,0
47340,-0.637843,0.500948,2.10591,0
47360,-0.640553,0.49925,2.10275,0
47380,-0.642515,0.49819,2.10076,0
47400,-0.64398,0.496825,2.09935,0
47420,-0.645561,0.495034,2.09848,0
47440,-0.647749,0.493857,2.09818,0
47460,-0.649457,0.493165,2.09921,0
47480,-0.649868,0.492213,2.10269,0
47500,-0.647896,0.49054,2.10766,0
47520,-0.643586,0.48953,2.11402,0
47540,-0.640911,0.488303,2.12105,0
47560,-0.640873,0.486218,2.12865,0
47580,-0.64615,0.486818,2.13422,0
47600,-0.656608,0.489428,2.14141,0
47620,-0.681037,0.493397,2.14757,0
47640,-0.716839,0.501438,2.15386,0
47660,-0.756742,0.511984,2.16397,0
47680,-0.787393,0.52084,2.17602,0
47700,-0.815508,0.525612,2.188,0
47720,-0.836431,0.528481,2.20018,0
47740,-0.854145,0.532458,2.21197,0
47750,-0.873707,0.538674,2.22352,0
47770,-0.899846,0.543359,2.23238,0
47790,-0.927358,0.547278,2.23618,0
47810,-0.957404,0.551058,2.23464,0
47830,-0.989472,0.554931,2.22869,0
47850,-1.0208,0.559034,2.2222,0
47870,-1.04581,0.560637,2.21841,0
47890,-1.05964,0.558622,2.21975,0
47910,-1.06223,0.553751,2.22417,0
47930,-1.05932,0.546129,2.23093,0
47950,-1.05339,0.535028,2.23873,0
47970,-1.04131,0.521526,2.24695,0
47990,-1.02221,0.506155,2.25468,0
48010,-0.996427,0.488419,2.26058,0
48030,-0.96832,0.468998,2.26683,0
48050,-0.939732,0.45075,2.27142,0
48070,-0.911102,0.435083,2.27351,0
48090,-0.883199,0.421866,2.27359,0
48110,-0.859132,0.412438,2.27433,0
48130,-0.835766,0.407311,2.27529,0
48150,-0.813658,0.406208,2.27664,0
48170,-0.79555,0.410618,2.27757,0
48190,-0.78211,0.421385,2.27744,0
48210,-0.774406,0.436841,2.2786,0
48230,-0.769267,0.456205,2.28005,0
48250,-0.760228,0.476321,2.28117,0
48270,-0.751541,0.498504,2.28183,0
48290,-0.737333,0.520999,2.28512,0
48310,-0.720167,0.534448,2.28592,0
48330,-0.70208,0.537585,2.29091,0
48350,-0.680946,0.520492,2.28791,0
48370,-0.674507,0.495818,2.27427,0
48390,-0.675037,0.482771,2.26505,0
48400,-0.68164,0.475671,2.26065,0
48420,-0.682154,0.462659,2.25191,0
48440,-0.670751,0.458418,2.24432,0
48460,-0.653413,0.457255,2.23589,0
48480,-0.635744,0.456802,2.22905,0
48500,-0.619459,0.454506,2.22609,0
48520,-0.609178,0.4492,2.2221,0
48540,-0.606025,0.445321,2.21722,0
48560,-0.607855,0.442747,2.21384,0
48580,-0.609378,0.441625,2.21178,0
48600,-0.608251,0.443433,2.21218,0
48620,-0.60546,0.448014,2.21433,0
48640,-0.604122,0.456319,2.21776,0
48660,-0.603685,0.462926,2.22172,0
48680,-0.604925,0.470921,2.2263,0
48700,-0.609255,0.47932,2.23111,0
48720,-0.614359,0.485062,2.2348,0
48740,-0.618503,0.489749,2.23795,0
48760,-0.621996,0.492119,2.2388,0
48780,-0.624803,0.493195,2.23713,0
48800,-0.62586,0.495108,2.23598,0
48820,-0.626084,0.496563,2.23531,0
48840,-0.626268,0.496927,2.23382,0
48860,-0.626021,0.494823,2.23125,0
48880,-0.62628,0.492091,2.22751,0
48900,-0.627317,0.489441,2.2229,0
48920,-0.627553,0.48561,2.21832,0
48940,-0.627244,0.481973,2.2143,0
48960,-0.627425,0.479347,2.21164,0
48980,-0.628721,0.47907,2.21011,0
49000,-0.629968,0.480313,2.21055,0
49020,-0.63093,0.482618,2.21177,0
49040,-0.632326,0.485186,2.21295,0
49060,-0.633933,0.487686,2.21422,0
49080,-0.63594,0.490474,2.21552,0
49100,-0.637259,0.493081,2.21663,0
49120,-0.639427,0.495669,2.21726,0
49140,-0.640914,0.498332,2.21828,0
49150,-0.642406,0.500642,2.21897,0
49170,-0.643588,0.502526,2.21931,0
49190,-0.644706,0.503052,2.21899,0
49210,-0.645615,0.502815,2.21822,0
49230,-0.64626,0.502267,2.21695,0
49250,-0.647154,0.501979,2.21532,0
49270,-0.648098,0.502048,2.21388,0
49290,-0.648651,0.502689,2.21298,0
49310,-0.649905,0.503878,2.21232,0
49330,-0.651176,0.504998,2.21214,0
49350,-0.652377,0.506072,2.21235,0
49370,-0.652993,0.507245,2.21321,0
49390,-0.653368,0.50818,2.21394,0
49410,-0.653405,0.508996,2.21492,0
49430,-0.653876,0.510293,2.21601,0
49450,-0.654795,0.511161,2.2169,0
49470,-0.656007,0.512391,2.21774,0
49490,-0.657155,0.513572,2.21827,0
49510,-0.658867,0.514947,2.21854,0
49530,-0.659495,0.515671,2.21889,0
49550,-0.660156,0.516346,2.21895,0
49570,-0.66009,0.517108,2.21875,0
49590,-0.659945,0.5178,2.21873,0
49610,-0.659971,0.518204,2.21851,0
49630,-0.659913,0.518631,2.2182,0
49650,-0.659388,0.518985,2.21815,0
49670,-0.659263,0.519032,2.21814,0
49690,-0.659184,0.518962,2.21832,0
49710,-0.659223,0.518938,2.21824,0
49730,-0.659874,0.519227,2.21803,0
49750,-0.660208,0.519925,2.21824,0
49770,-0.660319,0.52055,2.21847,0
49790,-0.660509,0.521245,2.21851,0
49810,-0.660646,0.521704,2.21876,0
49830,-0.660587,0.522374,2.21882,0
49850,-0.660482,0.522471,2.21898,0
49870,-0.660813,0.52302,2.21857,0
49890,-0.660813,0.52302,2.21857,0
49910,-0.661052,0.523112,2.21807,0
49930,-0.66116,0.522652,2.21758,0
49950,-0.660871,0.522408,2.2173,0
49970,-0.660899,0.521997,2.21696,0
49990,-0.661057,0.521204,2.21651,0
50010,-0.661472,0.520796,2.2161,0
50030,-0.661217,0.520167,2.2157,0
50050,-0.661388,0.51976,2.21553,0
50070,-0.661276,0.519135,2.21531,0
50090,-0.661119,0.518628,2.2149,0
50110,-0.660862,0.518125,2.21491,0
50130,-0.660929,0.51769,2.21449,0
50150,-0.661139,0.517378,2.21421,0
50170,-0.661383,0.517376,2.21397,0
50190,-0.66254,0.517711,2.21344,0
50210,-0.663705,0.517829,2.21276,0
50230,-0.66487,0.517827,2.21212,0
50250,-0.666115,0.517895,2.2113,0
50270,-0.667675,0.517795,2.21042,0
50290,-0.669027,0.518008,2.20981,0
50310,-0.670359,0.518296,2.20944,0
50330,-0.671203,0.518589,2.20955,0
50350,-0.671593,0.518709,2.20944,0
50370,-0.671083,0.5183,2.20943,0
50390,-0.670183,0.517526,2.20916,0
50410,-0.66894,0.516274,2.20882,0
50430,-0.668256,0.514853,2.20817,0
50450,-0.667922,0.513578,2.20749,0
50470,-0.667688,0.512666,2.20717,0
50490,-0.667688,0.512666,2.20717,0
50510,-0.668285,0.512715,2.20715,0
50530,-0.668206,0.512646,2.20733,0
50550,-0.667628,0.512522,2.20711,0
50570,-0.667194,0.512158,2.2067,0
50590,-0.66689,0.511531,2.20616,0
50610,-0.666775,0.510665,2.20558,0
50630,-0.66643,0.509945,2.20515,0
50650,-0.666008,0.509273,2.20485,0
50670,-0.665913,0.508577,2.2044,0
50690,-0.665933,0.508626,2.20457,0
50710,-0.665952,0.508552,2.20433,0
50730,-0.666686,0.508695,2.20424,0
50750,-0.667238,0.50886,2.20404,0
50770,-0.667784,0.509241,2.20398,0
50790,-0.66827,0.509479,2.20386,0
50810,-0.668935,0.509905,2.20355,0
50830,-0.669442,0.510069,2.2032,0
50850,-0.670048,0.510351,2.20283,0
50870,-0.670599,0.510397,2.20267,0
50890,-0.670599,0.510397,2.20267,0
50910,-0.670599,0.510397,2.20267,0
50930,-0.6705,0.510278,2.20268,0
50950,-0.670539,0.510253,2.20261,0
50970,-0.670539,0.510253,2.20261,0
50990,-0.670539,0.510253,2.20261,0
51010,-0.670991,0.51018,2.20246,0
51030,-0.670991,0.51018,2.20246,0
51050,-0.671115,0.510133,2.20247,0
51070,-0.670991,0.51018,2.20246,0
51090,-0.670952,0.510205,2.20253,0
51110,-0.671194,0.509959,2.20193,0
51130,-0.670839,0.509909,2.20171,0
51150,-0.670839,0.509909,2.20171,0
51170,-0.670877,0.509641,2.20128,0
51190,-0.670647,0.509543,2.20106,0
51210,-0.670646,0.5093,2.2007,0
51230,-0.670646,0.5093,2.2007,0
51250,-0.67077,0.509253,2.20071,0
51270,-0.67077,0.509253,2.20071,0
51290,-0.67077,0.509253,2.20071,0
51310,-0.67075,0.509203,2.20054,0
51330,-0.67075,0.509203,2.20054,0
51350,-0.670793,0.508843,2.20037,0
51370,-0.67091,0.508645,2.19976,0
51390,-0.671316,0.50857,2.19947,0
51410,-0.671316,0.50857,2.19947,0
51430,-0.671316,0.50857,2.19947,0
51450,-0.671192,0.508617,2.19946,0
51470,-0.671668,0.508377,2.19933,0
51490,-0.671668,0.508377,2.19933,0
51510,-0.671668,0.508377,2.19933,0
51530,-0.671668,0.508377,2.19933,0
51550,-0.671668,0.508377,2.19933,0
51570,-0.671668,0.508377,2.19933,0
51590,-0.671608,0.508233,2.19928,0
51610,-0.671732,0.508186,2.19929,0
51630,-0.671732,0.508186,2.19929,0
51650,-0.671732,0.508186,2.19929,0
51670,-0.671732,0.508186,2.19929,0
51690,-0.671732,0.508186,2.19929,0
51710,-0.671856,0.508138,2.1993,0
51730,-0.671856,0.508138,2.1993,0
51750,-0.671856,0.508138,2.1993,0
51770,-0.671856,0.508138,2.1993,0
51790,-0.67198,0.50809,2.19931,0
51810,-0.672019,0.508066,2.19924,0
51820,-0.672019,0.508066,2.19924,0
51840,-0.671999,0.508016,2.19908,0
51860,-0.671999,0.508016,2.19908,0
51880,-0.6719,0.507897,2.19909,0
51900,-0.6719,0.507897,2.19909,0
51920,-0.671919,0.507947,2.19925,0
51940,-0.672024,0.507849,2.1991,0
51960,-0.672024,0.507849,2.1991,0
51980,-0.672024,0.507849,2.1991,0
52000,-0.672024,0.507849,2.1991,0
52020,-0.672024,0.507849,2.1991,0
52040,-0.672148,0.507802,2.19911,0
52060,-0.671925,0.50773,2.19911,0
52080,-0.672088,0.507658,2.19906,0
52100,-0.672088,0.507658,2.19906,0
52120,-0.672211,0.50761,2.19907,0
52140,-0.672968,0.50792,2.1991,0
52160,-0.674113,0.508348,2.19902,0
52180,-0.675725,0.509298,2.19877,0
52200,-0.677403,0.510057,2.19847,0
52220,-0.678749,0.51048,2.19801,0
52240,-0.679687,0.510734,2.19749,0
52260,-0.68087,0.510985,2.19673,0
52280,-0.68204,0.511338,2.19642,0
52300,-0.683331,0.511861,2.19626,0
52320,-0.684112,0.512433,2.19616,0
52340,-0.684498,0.512978,2.19589,0
52360,-0.684498,0.512978,2.19589,0
52380,-0.684611,0.512993,2.19542,0
52400,-0.684791,0.512599,2.19477,0
52420,-0.684933,0.511894,2.19409,0
52440,-0.685217,0.511529,2.19368,0
52460,-0.685217,0.511529,2.19368,0
52480,-0.685631,0.511479,2.19361,0
52500,-0.686511,0.511924,2.19313,0
52520,-0.687208,0.512181,2.19284,0
52540,-0.687309,0.5123,2.19283,0
52560,-0.687309,0.5123,2.19283,0
52580,-0.687309,0.5123,2.19283,0
52600,-0.687077,0.5122,2.19261,0
52620,-0.68666,0.512004,2.19233,0
52640,-0.685812,0.511717,2.19222,0
52660,-0.685173,0.511359,2.1922,0
52680,-0.684702,0.510711,2.19198,0
52700,-0.684532,0.510421,2.19172,0
52720,-0.684653,0.510128,2.19138,0
52740,-0.684526,0.509596,2.19091,0
52760,-0.684546,0.509184,2.19058,0
52780,-0.684585,0.509159,2.19051,0
52800,-0.684585,0.509159,2.19051,0
52820,-0.684504,0.509091,2.19069,0
52840,-0.684504,0.509091,2.19069,0
52860,-0.684628,0.509043,2.1907,0
52880,-0.684608,0.508993,2.19054,0
52900,-0.684608,0.508993,2.19054,0
52920,-0.684608,0.508993,2.19054,0
52940,-0.685382,0.509534,2.19021,0
52960,-0.685343,0.509559,2.19028,0
52980,-0.685343,0.509559,2.19028,0
53000,-0.684969,0.509248,2.19019,0
53020,-0.68478,0.508908,2.18977,0
53040,-0.68478,0.508908,2.18977,0
53060,-0.684803,0.508741,2.18979,0
53080,-0.684803,0.508741,2.18979,0
53100,-0.684842,0.508716,2.18972,0
53120,-0.68505,0.508981,2.18991,0
53140,-0.685418,0.5096,2.18988,0
53160,-0.685785,0.510219,2.18985,0
53180,-0.685909,0.510843,2.19005,0
53200,-0.686254,0.511628,2.19,0
53220,-0.68613,0.511676,2.18998,0
53240,-0.685921,0.512083,2.18999,0
53260,-0.685357,0.512438,2.18977,0
53280,-0.684754,0.512484,2.18952,0
53300,-0.684087,0.512602,2.18935,0
53320,-0.683569,0.512625,2.18918,0
53340,-0.683468,0.512506,2.1892,0
53360,-0.683569,0.512625,2.18918,0
53380,-0.683569,0.512625,2.18918,0
53400,-0.683031,0.513059,2.18934,0
53420,-0.682493,0.513158,2.18941,0
53440,-0.681711,0.512925,2.18962,0
53460,-0.681256,0.512756,2.18941,0
53480,-0.680781,0.512663,2.18943,0
53500,-0.680885,0.512565,2.18927,0
53520,-0.680761,0.512613,2.18926,0
53540,-0.680862,0.512731,2.18925,0
53560,-0.680781,0.512663,2.18943,0
53580,-0.680862,0.512731,2.18925,0
53600,-0.680862,0.512731,2.18925,0
53620,-0.680472,0.51228,2.18925,0
53640,-0.680164,0.511896,2.18908,0
53660,-0.679956,0.511632,2.18889,0
53680,-0.679833,0.51168,2.18888,0
53700,-0.679586,0.511105,2.18866,0
53720,-0.679402,0.510674,2.1885,0
53740,-0.679357,0.510338,2.18825,0
53760,-0.679357,0.510338,2.18825,0
53780,-0.679357,0.510338,2.18825,0
53800,-0.679357,0.510338,2.18825,0
53820,-0.679257,0.510219,2.18826,0
53830,-0.679257,0.510219,2.18826,0
53850,-0.679133,0.510267,2.18825,0
53870,-0.679257,0.510219,2.18826,0
53890,-0.678805,0.509959,2.18831,0
53910,-0.67871,0.509078,2.18839,0
53930,-0.678718,0.508434,2.18842,0
53950,-0.678714,0.507347,2.1891,0
53970,-0.678112,0.506181,2.18913,0
53990,-0.678072,0.505418,2.18904,0
54010,-0.677504,0.504656,2.18884,0
54030,-0.677504,0.504656,2.18884,0
54050,-0.678437,0.504489,2.1892,0
54070,-0.67873,0.504394,2.18937,0
54090,-0.679289,0.504129,2.18933,0
54110,-0.679583,0.5037,2.18941,0
54130,-0.679622,0.503675,2.18934,0
54150,-0.6801,0.503677,2.18958,0
54170,-0.68106,0.503923,2.19042,0
54190,-0.682212,0.503045,2.19089,0
54210,-0.68648,0.502353,2.19134,0
54230,-0.691111,0.499188,2.19267,0
54250,-0.693497,0.493433,2.19148,0
54270,-0.695621,0.48764,2.1904,0
54290,-0.699159,0.478786,2.18967,0
54310,-0.701852,0.466285,2.18864,0
54330,-0.70509,0.450675,2.18683,0
54350,-0.707446,0.430766,2.18322,0
54370,-0.709425,0.404696,2.1781,0
54390,-0.713042,0.372818,2.17382,0
54410,-0.716314,0.329936,2.16664,0
54430,-0.711222,0.291135,2.16409,0
54450,-0.710448,0.249219,2.16284,0
54470,-0.714318,0.202615,2.16239,0
54490,-0.720428,0.157019,2.16448,0
54510,-0.724756,0.109668,2.16761,0
54530,-0.72723,0.0634447,2.17156,0
54550,-0.730263,0.0195116,2.17607,0
54570,-0.733079,-0.0208415,2.18121,0
54590,-0.737284,-0.0577558,2.18741,0
54610,-0.741646,-0.0910951,2.19421,0
54630,-0.744985,-0.121159,2.20085,0
54650,-0.747164,-0.146224,2.20824,0
54670,-0.748836,-0.167433,2.21562,0
54690,-0.751974,-0.185311,2.22223,0
54710,-0.755783,-0.19951,2.22806,0
54730,-0.760274,-0.210255,2.23281,0
54750,-0.764169,-0.219603,2.23614,0
54770,-0.766945,-0.227707,2.23829,0
54790,-0.770009,-0.235517,2.23957,0
54810,-0.772046,-0.242458,2.23964,0
54830,-0.773575,-0.249018,2.23904,0
54850,-0.774192,-0.255647,2.23784,0
54870,-0.773508,-0.261482,2.23623,0
54890,-0.773614,-0.265896,2.23491,0
54910,-0.774729,-0.270373,2.23398,0
54930,-0.77632,-0.27608,2.23374,0
54950,-0.778201,-0.282058,2.2345,0
54970,-0.780988,-0.287566,2.23599,0
54990,-0.783663,-0.292774,2.23845,0
55010,-0.786987,-0.297758,2.24137,0
55030,-0.79063,-0.302438,2.24438,0
55050,-0.794717,-0.30657,2.24691,0
55070,-0.798357,-0.309632,2.24901,0
55090,-0.801154,-0.312535,2.2511,0
55110,-0.80382,-0.315048,2.25357,0
55130,-0.806744,-0.317794,2.25556,0
55150,-0.809645,-0.320541,2.25745,0
55170,-0.812857,-0.322437,2.25827,0
55190,-0.815076,-0.323724,2.25828,0
55210,-0.816312,-0.324876,2.25753,0
55230,-0.817887,-0.325655,2.25742,0
55250,-0.818837,-0.326669,2.25721,0
55270,-0.819856,-0.327568,2.25737,0
55290,-0.820588,-0.327973,2.25759,0
55310,-0.822376,-0.327438,2.2577,0
55330,-0.824171,-0.327158,2.25813,0
55350,-0.825866,-0.326773,2.25837,0
55370,-0.828274,-0.326337,2.2597,0
55390,-0.830976,-0.325409,2.2604,0
55410,-0.834139,-0.32435,2.26117,0
55430,-0.836728,-0.323305,2.26198,0
55450,-0.840058,-0.323348,2.26304,0
55470,-0.843057,-0.32452,2.26437,0
55490,-0.845376,-0.32633,2.26581,0
55510,-0.847282,-0.328834,2.26657,0
55530,-0.849328,-0.331262,2.26694,0
55550,-0.852283,-0.333485,2.26821,0
55570,-0.854097,-0.335434,2.26939,0
55590,-0.856445,-0.336343,2.2708,0
55610,-0.858668,-0.33694,2.27194,0
55630,-0.861105,-0.337739,2.27345,0
55650,-0.86274,-0.338562,2.2746,0
55670,-0.864908,-0.338895,2.27559,0
55690,-0.867615,-0.338641,2.27625,0
55710,-0.869912,-0.337942,2.27686,0
55730,-0.871409,-0.337557,2.27766,0
55750,-0.872853,-0.337751,2.27844,0
55770,-0.873605,-0.337424,2.27842,0
55790,-0.875055,-0.336471,2.27891,0
55810,-0.877471,-0.335832,2.27949,0
55830,-0.879571,-0.334893,2.2795,0
55850,-0.881046,-0.333096,2.27996,0
55870,-0.882995,-0.331718,2.2801,0
55890,-0.884022,-0.330309,2.27991,0
55910,-0.884831,-0.328797,2.2795,0
55930,-0.885677,-0.327453,2.27897,0
55950,-0.886063,-0.326095,2.27829,0
55970,-0.88758,-0.325945,2.27791,0
55990,-0.888861,-0.325999,2.27747,0
56010,-0.890597,-0.325675,2.27677,0
56030,-0.893215,-0.325324,2.27725,0
56050,-0.895189,-0.325021,2.27724,0
56070,-0.896674,-0.324163,2.27647,0
56090,-0.898383,-0.323083,2.27607,0
56110,-0.900813,-0.321841,2.27562,0
56130,-0.903196,-0.320311,2.27479,0
56150,-0.904521,-0.319329,2.27491,0
56170,-0.905698,-0.319068,2.27516,0
56190,-0.906117,-0.319184,2.27536,0
56210,-0.906236,-0.320297,2.27608,0
56230,-0.905757,-0.322289,2.27658,0
56250,-0.905333,-0.324088,2.2769,0
56270,-0.905867,-0.325849,2.2771,0
56290,-0.906219,-0.327018,2.27663,0
56310,-0.906775,-0.327606,2.27632,0
56330,-0.907095,-0.328069,2.27607,0
56350,-0.906459,-0.328955,2.27573,0
56370,-0.905921,-0.329436,2.2759,0
56390,-0.906692,-0.329893,2.2761,0
56410,-0.907466,-0.329811,2.27642,0
56430,-0.907502,-0.329805,2.27653,0
56450,-0.908633,-0.329198,2.27709,0
56470,-0.909189,-0.328902,2.27793,0
56490,-0.909189,-0.328902,2.27793,0
56510,-0.909551,-0.329095,2.27845,0
56530,-0.909933,-0.329971,2.27905,0
56550,-0.910007,-0.330945,2.27949,0
56570,-0.909509,-0.332193,2.27939,0
56590,-0.909538,-0.33338,2.27912,0
56610,-0.909378,-0.33533,2.2791,0
56630,-0.908501,-0.338798,2.27945,0
56650,-0.906111,-0.342373,2.27994,0
56670,-0.901439,-0.343625,2.27851,0
56690,-0.8976,-0.343885,2.27753,0
56710,-0.897235,-0.345136,2.27898,0
56730,-0.896903,-0.346593,2.28054,0
56750,-0.897354,-0.346785,2.2819,0
56770,-0.897777,-0.346446,2.28328,0
56790,-0.897956,-0.344695,2.28342,0
56810,-0.89771,-0.342445,2.28355,0
56830,-0.897752,-0.341959,2.28371,0
56850,-0.899457,-0.342385,2.28432,0
56870,-0.903004,-0.341529,2.28578,0
56890,-0.906682,-0.340681,2.2879,0
56910,-0.907424,-0.340813,2.28813,0
56930,-0.907164,-0.339852,2.28803,0
56950,-0.908243,-0.337885,2.28755,0
56970,-0.908916,-0.336197,2.28728,0
56990,-0.910533,-0.336376,2.28823,0
57010,-0.911965,-0.337798,2.28939,0
57030,-0.913814,-0.338443,2.29128,0
57050,-0.915965,-0.338383,2.2929,0
57070,-0.916953,-0.339812,2.29361,0
57090,-0.917946,-0.3413,2.29426,0
57110,-0.918724,-0.342441,2.29444,0
57130,-0.918178,-0.344365,2.29387,0
57150,-0.919183,-0.346724,2.29429,0
57170,-0.921983,-0.347864,2.2959,0
57190,-0.924061,-0.34769,2.29684,0
57210,-0.92482,-0.34688,2.29687,0
57230,-0.925591,-0.345829,2.29667,0
57240,-0.927184,-0.345032,2.29588,0
57260,-0.92729,-0.344905,2.29432,0
57280,-0.925057,-0.346067,2.29225,0
57300,-0.92404,-0.346748,2.29165,0
57320,-0.926139,-0.346487,2.29306,0
57340,-0.927603,-0.345767,2.2944,0
57360,-0.927655,-0.344401,2.29428,0
57380,-0.928361,-0.342436,2.29477,0
57400,-0.929873,-0.340046,2.2952,0
57420,-0.930863,-0.338522,2.2939,0
57440,-0.928843,-0.338317,2.29187,0
57460,-0.927359,-0.339548,2.2901,0
57480,-0.928668,-0.340869,2.28925,0
57500,-0.930263,-0.341228,2.28929,0
57520,-0.931706,-0.340601,2.29016,0
57540,-0.93288,-0.341028,2.29152,0
57560,-0.935036,-0.341741,2.29328,0
57580,-0.937778,-0.341777,2.29467,0
57600,-0.93818,-0.342017,2.29464,0
57620,-0.93694,-0.34251,2.29366,0
57640,-0.936801,-0.342302,2.29238,0
57660,-0.938252,-0.341761,2.29229,0
57680,-0.937821,-0.34213,2.29204,0
57700,-0.936514,-0.342727,2.2916,0
57720,-0.936631,-0.342701,2.29254,0
57740,-0.93726,-0.342528,2.29368,0
57760,-0.937599,-0.342452,2.29417,0
57780,-0.936299,-0.341725,2.29371,0
57800,-0.934835,-0.340735,2.29255,0
57820,-0.934434,-0.339143,2.29113,0
57840,-0.933974,-0.336394,2.28955,0
57860,-0.933692,-0.333909,2.28931,0
57880,-0.932816,-0.332906,2.28865,0
57900,-0.933784,-0.331939,2.28947,0
57920,-0.934193,-0.332326,2.29074,0
57940,-0.93369,-0.33391,2.29164,0
57960,-0.93438,-0.335223,2.29281,0
57980,-0.935516,-0.336376,2.29313,0
58000,-0.934442,-0.337311,2.29205,0
58020,-0.933258,-0.338149,2.29078,0
58040,-0.931909,-0.337372,2.28907,0
58060,-0.931669,-0.335234,2.28791,0
58080,-0.932642,-0.333966,2.28796,0
58100,-0.933889,-0.333625,2.2879,0
58120,-0.934587,-0.332927,2.28847,0
58140,-0.935512,-0.332868,2.28916,0
58160,-0.937151,-0.333488,2.28987,0
58180,-0.937672,-0.3346,2.28965,0
58200,-0.93644,-0.335959,2.28845,0
58220,-0.934927,-0.337321,2.28644,0
58240,-0.934665,-0.337532,2.28454,0
58260,-0.935138,-0.336499,2.28342,0
58280,-0.93502,-0.336405,2.28262,0
58300,-0.936273,-0.336488,2.2832,0
58320,-0.938807,-0.336128,2.28541,0
58340,-0.939797,-0.33608,2.28715,0
58360,-0.94079,-0.335763,2.28894,0
58380,-0.942481,-0.334029,2.28989,0
58400,-0.94252,-0.332702,2.28937,0
58420,-0.940543,-0.332014,2.28749,0
58440,-0.938271,-0.331721,2.28512,0
58460,-0.936404,-0.330918,2.28221,0
58480,-0.934412,-0.32954,2.27965,0
58500,-0.932438,-0.328813,2.27807,0
58520,-0.932148,-0.329595,2.278,0
58540,-0.933772,-0.33037,2.27938,0
58560,-0.935957,-0.330509,2.28173,0
58580,-0.938952,-0.329839,2.28422,0
58600,-0.941557,-0.328412,2.28595,0
58620,-0.943322,-0.326997,2.287,0
58640,-0.942797,-0.326429,2.2865,0
58660,-0.940695,-0.327654,2.28442,0
58680,-0.938444,-0.32793,2.28106,0
58700,-0.936884,-0.326467,2.27749,0
58720,-0.936155,-0.325502,2.2754,0
58740,-0.934926,-0.32631,2.27492,0
58760,-0.935361,-0.327794,2.27577,0
58780,-0.936729,-0.328474,2.27742,0
58800,-0.93897,-0.327612,2.27975,0
58820,-0.941121,-0.326681,2.28159,0
58840,-0.942243,-0.32517,2.28266,0
58860,-0.942753,-0.322696,2.2829,0
58880,-0.941832,-0.320429,2.28163,0
58900,-0.93942,-0.319304,2.27897,0
58920,-0.936608,-0.318302,2.27524,0
58940,-0.933917,-0.316734,2.27136,0
58960,-0.932554,-0.315698,2.26953,0
58980,-0.932495,-0.316217,2.26959,0
59000,-0.932795,-0.316598,2.26969,0
59020,-0.933463,-0.317398,2.27126,0
59040,-0.935705,-0.316898,2.27377,0
59060,-0.938786,-0.316072,2.27526,0
59080,-0.94088,-0.31525,2.27652,0
59100,-0.942031,-0.313892,2.27718,0
59120,-0.94181,-0.313088,2.27605,0
59140,-0.941285,-0.313158,2.2744,0
59160,-0.939416,-0.31255,2.27111,0
59180,-0.937364,-0.311885,2.26823,0
59200,-0.936062,-0.311972,2.26633,0
59220,-0.936134,-0.312906,2.26656,0
59230,-0.937745,-0.31442,2.26853,0
59250,-0.939065,-0.315719,2.27141,0
59270,-0.940508,-0.315979,2.27417,0
59290,-0.943262,-0.315657,2.27674,0
59310,-0.945671,-0.315654,2.27846,0
59330,-0.945788,-0.315329,2.27863,0
59350,-0.944795,-0.31523,2.27732,0
59370,-0.943311,-0.315517,2.27495,0
59390,-0.94113,-0.31486,2.27142,0
59410,-0.938975,-0.31345,2.268,0
59430,-0.937593,-0.313315,2.26616,0
59450,-0.937759,-0.314052,2.26631,0
59470,-0.939202,-0.315152,2.26861,0
59490,-0.940036,-0.31608,2.27112,0
59510,-0.941815,-0.316329,2.27368,0
59530,-0.943666,-0.31657,2.27525,0
59550,-0.944354,-0.317224,2.27554,0
59570,-0.944471,-0.316583,2.27461,0
59590,-0.943944,-0.314082,2.27386,0
59610,-0.942719,-0.313302,2.27394,0
59630,-0.940874,-0.314871,2.27276,0
59650,-0.941149,-0.315595,2.27204,0
59670,-0.943296,-0.31332,2.27201,0
59690,-0.942273,-0.31102,2.27102,0
59710,-0.938711,-0.310928,2.26988,0
59730,-0.93613,-0.31318,2.26924,0
59750,-0.935342,-0.316712,2.26929,0
59770,-0.934352,-0.321156,2.26906,0
59790,-0.932904,-0.324602,2.26844,0
59810,-0.932673,-0.326679,2.26868,0
59830,-0.932552,-0.328524,2.26925,0
59850,-0.932471,-0.32863,2.26917,0
59870,-0.932755,-0.326625,2.26989,0
59890,-0.933044,-0.323752,2.27085,0
59910,-0.933318,-0.320915,2.27141,0
59930,-0.934223,-0.316573,2.27218,0
59950,-0.935109,-0.312534,2.2731,0
59970,-0.934564,-0.311195,2.2729,0
59990,-0.932928,-0.31108,2.27178,0
60010,-0.932011,-0.310897,2.27078,0
60030,-0.931086,-0.310984,2.26971,0
60050,-0.931082,-0.312681,2.26962,0
60070,-0.931597,-0.315248,2.26967,0
60090,-0.931743,-0.317268,2.27022,0
60110,-0.932189,-0.3183,2.27082,0
60130,-0.933551,-0.318127,2.27088,0
60150,-0.934957,-0.31747,2.27049,0
60170,-0.936155,-0.317336,2.27001,0
60190,-0.935763,-0.318148,2.26839,0
60210,-0.934113,-0.318398,2.26616,0
60230,-0.933119,-0.316894,2.2645,0
60250,-0.932907,-0.315313,2.26317,0
60270,-0.93264,-0.31448,2.26283,0
60290,-0.932661,-0.313906,2.26333,0
60310,-0.93336,-0.313602,2.26431,0
60330,-0.935136,-0.31283,2.26548,0
60350,-0.936614,-0.312277,2.26577,0
60370,-0.935966,-0.311941,2.26547,0
60390,-0.934926,-0.313181,2.26439,0
60410,-0.932949,-0.314985,2.26219,0
60430,-0.930639,-0.315635,2.26017,0
60450,-0.928104,-0.314842,2.25809,0
60470,-0.927329,-0.314921,2.25717,0
60490,-0.929614,-0.314231,2.25795,0
60510,-0.931494,-0.313402,2.26044,0
60530,-0.932776,-0.312965,2.26275,0
60550,-0.934637,-0.312704,2.26474,0
60570,-0.936501,-0.312446,2.26612,0
60590,-0.936073,-0.313255,2.26562,0
60610,-0.933936,-0.314552,2.26421,0
60630,-0.932528,-0.314479,2.26218,0
60650,-0.931301,-0.313333,2.25933,0
60670,-0.928497,-0.311354,2.25673,0
60690,-0.926153,-0.310488,2.255,0
60710,-0.92568,-0.310617,2.25492,0
60730,-0.927691,-0.310274,2.2569,0
60750,-0.928974,-0.310522,2.25927,0
60770,-0.930133,-0.310412,2.26141,0
60790,-0.932577,-0.309466,2.26331,0
60810,-0.93418,-0.309058,2.26442,0
60830,-0.932927,-0.310813,2.26386,0
60850,-0.930843,-0.312843,2.26195,0
60870,-0.930767,-0.313209,2.25909,0
60890,-0.929938,-0.312847,2.2555,0
60910,-0.927381,-0.313105,2.25227,0
60930,-0.926052,-0.314694,2.25109,0
60950,-0.927092,-0.316138,2.2518,0
60970,-0.929688,-0.317251,2.25397,0
60990,-0.931616,-0.318322,2.25599,0
61010,-0.934605,-0.317329,2.25775,0
61030,-0.938915,-0.315825,2.25927,0
61050,-0.940648,-0.315144,2.25896,0
61070,-0.940936,-0.314621,2.25806,0
61090,-0.941093,-0.313683,2.25699,0
61110,-0.940758,-0.313241,2.25532,0
61130,-0.94029,-0.314215,2.25418,0
61150,-0.939779,-0.316566,2.25298,0
61170,-0.939113,-0.31803,2.25154,0
61190,-0.938355,-0.317302,2.25079,0
61210,-0.936018,-0.318142,2.24997,0
61230,-0.932947,-0.321804,2.24944,0
61250,-0.93053,-0.325421,2.24941,0
61270,-0.928235,-0.327884,2.24938,0
61290,-0.926186,-0.330153,2.24881,0
61310,-0.924216,-0.331869,2.24858,0
61330,-0.922162,-0.33429,2.2481,0
61350,-0.919793,-0.337136,2.24734,0
61370,-0.918415,-0.339778,2.2468,0
61390,-0.917684,-0.34193,2.24639,0
61410,-0.916929,-0.34343,2.24615,0
61430,-0.915603,-0.344031,2.24593,0
61450,-0.916159,-0.344515,2.24637,0
61470,-0.917912,-0.345141,2.2475,0
61490,-0.920071,-0.345291,2.25012,0
61510,-0.921569,-0.345577,2.2524,0
61530,-0.921959,-0.345791,2.25445,0
61550,-0.922429,-0.345572,2.25611,0
61570,-0.922932,-0.343759,2.25721,0
61590,-0.923239,-0.341779,2.25766,0
61610,-0.922454,-0.340148,2.25741,0
61630,-0.921427,-0.339379,2.25625,0
61650,-0.921036,-0.338656,2.25451,0
61670,-0.919618,-0.33731,2.25291,0
61690,-0.917572,-0.335916,2.25188,0
61710,-0.917741,-0.334777,2.25172,0
61730,-0.918748,-0.334537,2.25233,0
61750,-0.918754,-0.335102,2.25314,0
61770,-0.918677,-0.334819,2.25387,0
61790,-0.920007,-0.333614,2.25486,0
61810,-0.9212,-0.333363,2.25574,0
61830,-0.92138,-0.3344,2.25616,0
61850,-0.920393,-0.33616,2.25577,0
61870,-0.919328,-0.33737,2.25496,0
61890,-0.917822,-0.337387,2.25346,0
61910,-0.916346,-0.337276,2.25219,0
61930,-0.91674,-0.337911,2.25196,0
61950,-0.918111,-0.338312,2.25284,0
61970,-0.919445,-0.337883,2.25406,0
61990,-0.921906,-0.33677,2.2556,0
62010,-0.924344,-0.33524,2.25701,0
62030,-0.925888,-0.333957,2.25783,0
62050,-0.92571,-0.334086,2.25744,0
62070,-0.92566,-0.33446,2.25622,0
62090,-0.926154,-0.333202,2.25419,0
62110,-0.925275,-0.331813,2.25183,0
62130,-0.921911,-0.33192,2.24945,0
62150,-0.919877,-0.333147,2.24874,0
62170,-0.920421,-0.334672,2.24994,0
62190,-0.922314,-0.335946,2.25217,0
62210,-0.924298,-0.336123,2.25485,0
62230,-0.92661,-0.335063,2.25737,0
62250,-0.928528,-0.333487,2.25938,0
62270,-0.929034,-0.332123,2.26022,0
62290,-0.927778,-0.331016,2.2597,0
62310,-0.926009,-0.331426,2.25782,0
62330,-0.924452,-0.332149,2.25496,0
62350,-0.922356,-0.331521,2.2519,0
62370,-0.92007,-0.330152,2.2498,0
62390,-0.918878,-0.329001,2.24859,0
62410,-0.920056,-0.328013,2.24885,0
62430,-0.921369,-0.32723,2.25047,0
62450,-0.921925,-0.326721,2.2525,0
62470,-0.923687,-0.32593,2.25457,0
62490,-0.925364,-0.325067,2.25617,0
62510,-0.925958,-0.324999,2.25683,0
62530,-0.924737,-0.326089,2.25661,0
62550,-0.923024,-0.32812,2.25553,0
62570,-0.921052,-0.330267,2.25352,0
62590,-0.918876,-0.33123,2.2515,0
62610,-0.917493,-0.331638,2.25045,0
62630,-0.917654,-0.331932,2.25086,0
62650,-0.91981,-0.332106,2.25318,0
62670,-0.922581,-0.33179,2.25615,0
62680,-0.924712,-0.330858,2.25889,0
62700,-0.92706,-0.329311,2.26095,0
62720,-0.928839,-0.328365,2.26174,0
62740,-0.928563,-0.328131,2.26062,0
62760,-0.927067,-0.329054,2.25799,0
62780,-0.92568,-0.329629,2.25461,0
62800,-0.923887,-0.330047,2.25082,0
62820,-0.921103,-0.331171,2.24707,0
62840,-0.918296,-0.331188,2.24434,0
62860,-0.917663,-0.331023,2.24324,0
62880,-0.918826,-0.331916,2.2438,0
62900,-0.921366,-0.332672,2.24595,0
62920,-0.924093,-0.33213,2.24909,0
62940,-0.92603,-0.331365,2.25103,0
62960,-0.927716,-0.33095,2.25239,0
62980,-0.928524,-0.331913,2.25297,0
63000,-0.92802,-0.333336,2.25207,0
63020,-0.927236,-0.333413,2.25113,0
63040,-0.926624,-0.333512,2.25069,0
63060,-0.925825,-0.334398,2.24958,0
63080,-0.925399,-0.335328,2.24834,0
63100,-0.925585,-0.334158,2.24797,0
63120,-0.925035,-0.332128,2.24708,0
63140,-0.923644,-0.331077,2.24575,0
63160,-0.92205,-0.331226,2.245,0
63180,-0.919729,-0.331582,2.24422,0
63200,-0.917525,-0.332391,2.24322,0
63220,-0.916622,-0.333559,2.24295,0
63240,-0.916597,-0.335144,2.24299,0
63260,-0.915577,-0.336873,2.24227,0
63280,-0.914236,-0.338399,2.24114,0
63300,-0.913942,-0.33852,2.2401,0
63320,-0.914939,-0.338438,2.23958,0
63340,-0.915263,-0.33897,2.23928,0
63360,-0.915109,-0.338912,2.23919,0
63380,-0.916437,-0.338253,2.24069,0
63400,-0.918276,-0.338412,2.243,0
63420,-0.920359,-0.339534,2.2454,0
63440,-0.922885,-0.339903,2.24826,0
63460,-0.924448,-0.339961,2.25073,0
63480,-0.924787,-0.339677,2.2518,0
63500,-0.925373,-0.339253,2.25287,0
63520,-0.925365,-0.339071,2.25368,0
63540,-0.924541,-0.339694,2.25314,0
63560,-0.923671,-0.339759,2.25167,0
63580,-0.922785,-0.337978,2.2495,0
63600,-0.921072,-0.335021,2.24783,0
63620,-0.918675,-0.333546,2.24734,0
63640,-0.917874,-0.333919,2.24778,0
63660,-0.91925,-0.334557,2.24959,0
63680,-0.919867,-0.334634,2.25104,0
63700,-0.920585,-0.333468,2.25226,0
63720,-0.921768,-0.332264,2.25372,0
63740,-0.922905,-0.332321,2.25524,0
63760,-0.923419,-0.334062,2.25636,0
63780,-0.923874,-0.335608,2.25664,0
63800,-0.924385,-0.335415,2.25571,0
63820,-0.923951,-0.334019,2.25379,0
63840,-0.921379,-0.332858,2.2515,0
63860,-0.919835,-0.332197,2.25043,0
63880,-0.920006,-0.333174,2.2509,0
63900,-0.920639,-0.335101,2.25125,0
63920,-0.920938,-0.335425,2.25203,0
63940,-0.921568,-0.333801,2.25237,0
63960,-0.922648,-0.332057,2.2521,0
63980,-0.923121,-0.330977,2.25157,0
64000,-0.921832,-0.33125,2.24977,0
64020,-0.921025,-0.331721,2.24795,0
64040,-0.92095,-0.330825,2.24492,0
64060,-0.92007,-0.328994,2.24154,0
64080,-0.918122,-0.328031,2.23867,0
64100,-0.916559,-0.328262,2.23698,0
64120,-0.916858,-0.330461,2.23755,0
64140,-0.917789,-0.33405,2.23918,0
64160,-0.919203,-0.336827,2.24145,0
64180,-0.921144,-0.337856,2.24416,0
64200,-0.923048,-0.337878,2.24621,0
64220,-0.924612,-0.337669,2.24814,0
64240,-0.925059,-0.337542,2.24932,0
64260,-0.924906,-0.33787,2.24965,0
64280,-0.92411,-0.337262,2.24865,0
64300,-0.923474,-0.335609,2.24704,0
64320,-0.922005,-0.333558,2.24554,0
64340,-0.920438,-0.332358,2.24507,0
64360,-0.920349,-0.331779,2.24554,0
64380,-0.92094,-0.331653,2.24688,0
64400,-0.922022,-0.332138,2.2489,0
64420,-0.923244,-0.33194,2.25041,0
64440,-0.924023,-0.330642,2.25138,0
64460,-0.924993,-0.329845,2.25168,0
64480,-0.925289,-0.330443,2.2512,0
64500,-0.924783,-0.331478,2.24987,0
64520,-0.923599,-0.331734,2.2472,0
64540,-0.922217,-0.330631,2.24413,0
64560,-0.921418,-0.329046,2.24221,0
64580,-0.921079,-0.328373,2.24173,0
64600,-0.922468,-0.329097,2.24319,0
64620,-0.924304,-0.329932,2.24555,0
64640,-0.925879,-0.330311,2.24799,0
64660,-0.92754,-0.329811,2.24968,0
64670,-0.928625,-0.330179,2.25065,0
64690,-0.928235,-0.330829,2.25017,0
64710,-0.927983,-0.330345,2.25003,0
64730,-0.926945,-0.329878,2.24902,0
64750,-0.926019,-0.330015,2.24788,0
64770,-0.925223,-0.331348,2.24652,0
64790,-0.923148,-0.331841,2.2445,0
64810,-0.921334,-0.329986,2.24228,0
64830,-0.918586,-0.32823,2.23983,0
64850,-0.914713,-0.329105,2.23763,0
64870,-0.911391,-0.331827,2.23658,0
64890,-0.909145,-0.335376,2.23624,0
64910,-0.908213,-0.338812,2.23606,0
64930,-0.907762,-0.342183,2.2359,0
64950,-0.907137,-0.345233,2.23561,0
64970,-0.907749,-0.34783,2.23629,0
64990,-0.909855,-0.349111,2.23768,0
65010,-0.911609,-0.349027,2.23853,0
65030,-0.913539,-0.346693,2.24032,0
65050,-0.914921,-0.343992,2.24155,0
65070,-0.916517,-0.341218,2.24262,0
65090,-0.918706,-0.337934,2.24398,0
65110,-0.921117,-0.335647,2.24566,0
65130,-0.921221,-0.336131,2.24627,2000
65150,-0.919178,-0.337684,2.24541,0
65170,-0.918843,-0.338917,2.24495,0
65190,-0.919939,-0.338308,2.24449,0
65210,-0.920604,-0.336056,2.24421,0
65230,-0.919794,-0.334583,2.24334,0
65250,-0.919426,-0.333646,2.24281,0
65270,-0.920089,-0.332111,2.24282,0
65290,-0.919703,-0.331984,2.24211,0
65310,-0.917175,-0.333813,2.24005,0
65330,-0.914558,-0.335059,2.23846,0
65350,-0.913555,-0.334905,2.23743,0
65370,-0.913815,-0.335121,2.23765,0
65390,-0.914778,-0.335223,2.23861,0
65410,-0.91656,-0.334411,2.24108,0
65430,-0.918828,-0.334211,2.24363,0
65450,-0.922102,-0.334757,2.24643,0
65470,-0.924518,-0.335089,2.24841,0
65490,-0.925389,-0.335921,2.24936,0
65510,-0.925012,-0.33803,2.24917,0
65530,-0.923869,-0.341017,2.24799,0
65550,-0.923995,-0.341981,2.24744,0
65570,-0.924875,-0.341444,2.24715,0
65590,-0.926463,-0.339833,2.24761,0
65610,-0.928441,-0.337508,2.24924,0
65630,-0.929467,-0.335404,2.25105,0
65650,-0.931544,-0.333887,2.25315,0
65670,-0.934083,-0.331945,2.25505,0
65690,-0.9352,-0.330694,2.25576,0
65710,-0.933706,-0.330234,2.25491,0
65730,-0.931281,-0.331017,2.253,0
65750,-0.929182,-0.331492,2.25126,0
65770,-0.927595,-0.331169,2.24993,0
65790,-0.927156,-0.330131,2.24933,0
65810,-0.928225,-0.32815,2.24992,0
65830,-0.928716,-0.326931,2.25204,0
65850,-0.929191,-0.326132,2.25418,0
65870,-0.931616,-0.32519,2.25721,0
65890,-0.933111,-0.324716,2.25897,0
65910,-0.931534,-0.325014,2.25901,0
65930,-0.929342,-0.325743,2.25846,0
65950,-0.927404,-0.327942,2.2577,0
65970,-0.925213,-0.329719,2.25612,0
65990,-0.922315,-0.329794,2.25398,0
66010,-0.920857,-0.328818,2.25297,0
66030,-0.920573,-0.327952,2.25352,0
66050,-0.921138,-0.327293,2.25546,0
66070,-0.921015,-0.32645,2.25769,0
66090,-0.920722,-0.325197,2.25963,0
66110,-0.921706,-0.324092,2.26159,0
66130,-0.922434,-0.32328,2.2624,0
66150,-0.92331,-0.322737,2.26209,0
66170,-0.923379,-0.320016,2.26064,0
66190,-0.923344,-0.318686,2.26012,0
66210,-0.923042,-0.319677,2.25884,0
66230,-0.923527,-0.321933,2.25709,0
66250,-0.924084,-0.321796,2.25499,0
66270,-0.923412,-0.319566,2.25275,0
66290,-0.920783,-0.318877,2.24931,0
66310,-0.917657,-0.320513,2.24594,0
66330,-0.915418,-0.323205,2.24394,0
66350,-0.913082,-0.328234,2.24295,0
66370,-0.913232,-0.335233,2.24242,0
66390,-0.91621,-0.340652,2.24331,0
66410,-0.918903,-0.343955,2.24448,0
66430,-0.919997,-0.346005,2.24455,0
66450,-0.921541,-0.347215,2.24492,0
66470,-0.923605,-0.34835,2.24543,0
66490,-0.925192,-0.350661,2.24602,0
66510,-0.92672,-0.352715,2.24645,0
66530,-0.930189,-0.352272,2.24801,0
66550,-0.933843,-0.350172,2.24922,0
66570,-0.934835,-0.348079,2.24973,0
66590,-0.93491,-0.346139,2.2506,0
66610,-0.935886,-0.344407,2.2512,0
66630,-0.935973,-0.34415,2.25118,0
66650,-0.934059,-0.343919,2.2503,0
66670,-0.931711,-0.344503,2.24831,0
66690,-0.930757,-0.343182,2.24686,0
66710,-0.929458,-0.340798,2.24512,0
66730,-0.926968,-0.338982,2.2436,0
66750,-0.92539,-0.33733,2.24337,0
66770,-0.924464,-0.335571,2.24433,0
66790,-0.923924,-0.334719,2.2456,0
66810,-0.923916,-0.333373,2.24637,0
66830,-0.923585,-0.332603,2.24696,0
66850,-0.922191,-0.333275,2.24706,0
66870,-0.920677,-0.335496,2.24635,0
66890,-0.918727,-0.337688,2.24496,0
66910,-0.918055,-0.338365,2.2439,0
66930,-0.919561,-0.337972,2.24319,0
66950,-0.921984,-0.337092,2.24342,0
66970,-0.923044,-0.33643,2.24351,0
66990,-0.923799,-0.335259,2.24424,0
67010,-0.926675,-0.333986,2.24512,0
67030,-0.928392,-0.333342,2.24504,0
67050,-0.927882,-0.333931,2.24398,0
67070,-0.927031,-0.335514,2.24275,0
67090,-0.925912,-0.337101,2.24011,0
67110,-0.92415,-0.33801,2.2373,0
67130,-0.922115,-0.337507,2.23453,0
67150,-0.921712,-0.33679,2.23331,0
67170,-0.923385,-0.336249,2.23389,0
67190,-0.924683,-0.335442,2.23578,0
67210,-0.925795,-0.334636,2.23803,0
67230,-0.92795,-0.332967,2.24026,0
67250,-0.92931,-0.332024,2.2419,0
67270,-0.927817,-0.332887,2.24208,0
67290,-0.925696,-0.334272,2.24121,0
67310,-0.924121,-0.334895,2.23993,0
67330,-0.922943,-0.334097,2.23829,0
67350,-0.922182,-0.333124,2.23722,0
67370,-0.922022,-0.331934,2.23733,0
67390,-0.922291,-0.329877,2.23862,0
67410,-0.923184,-0.32835,2.23991,0
67430,-0.923855,-0.327284,2.24116,0
67450,-0.923625,-0.327622,2.24186,0
67470,-0.923288,-0.328466,2.2416,0
67490,-0.92329,-0.327846,2.24087,0
67510,-0.922985,-0.326717,2.24077,0
67530,-0.921491,-0.329253,2.24003,0
67550,-0.919472,-0.332853,2.23818,0
67570,-0.919505,-0.332613,2.23737,0
67590,-0.918167,-0.330717,2.2354,0
67610,-0.914097,-0.330141,2.23197,0
67630,-0.911381,-0.329406,2.22979,0
67650,-0.909275,-0.330239,2.22903,0
67670,-0.907749,-0.33393,2.22891,0
67690,-0.908182,-0.337864,2.22864,0
67710,-0.909911,-0.338952,2.22887,0
67730,-0.911878,-0.338416,2.22913,0
67750,-0.912206,-0.338115,2.22868,0
67770,-0.913498,-0.337742,2.22881,0
67790,-0.915386,-0.336687,2.22887,0
67810,-0.916898,-0.335799,2.22848,0
67830,-0.917436,-0.334626,2.22793,0
67850,-0.917901,-0.332098,2.22763,0
67870,-0.919248,-0.328921,2.22777,0
67890,-0.921307,-0.327232,2.22914,0
67910,-0.921857,-0.326726,2.23055,0
67930,-0.921849,-0.327187,2.2324,0
67950,-0.922644,-0.327609,2.2343,0
67970,-0.923452,-0.328154,2.23546,0
67990,-0.923087,-0.329353,2.23589,0
68010,-0.92116,-0.331256,2.23527,0
68030,-0.919033,-0.333235,2.23363,0
68050,-0.917594,-0.3332,2.23204,0
68070,-0.915847,-0.331915,2.23048,0
68090,-0.914935,-0.330761,2.22945,0
68110,-0.916106,-0.329132,2.22987,0
68120,-0.916705,-0.327164,2.23113,0
68140,-0.915882,-0.325092,2.23215,0
68160,-0.915827,-0.322813,2.23272,0
68180,-0.916409,-0.321481,2.2328,0
68200,-0.915337,-0.321783,2.23251,0
68220,-0.913008,-0.324474,2.2315,0
68240,-0.9108,-0.326995,2.22951,0
68260,-0.909018,-0.32857,2.22727,0
68280,-0.907106,-0.328683,2.22461,0
68300,-0.906035,-0.327411,2.2229,0
68320,-0.90553,-0.325609,2.22299,0
68340,-0.906653,-0.325805,2.22374,0
68360,-0.908773,-0.326305,2.22629,0
68380,-0.909314,-0.327676,2.2287,0
68400,-0.908328,-0.328194,2.23026,0
68420,-0.908955,-0.329345,2.23227,0
68440,-0.910243,-0.330126,2.23431,0
68460,-0.910836,-0.330987,2.23595,0
68480,-0.91022,-0.330962,2.23625,0
68500,-0.909947,-0.32947,2.23547,0
68520,-0.910208,-0.327191,2.23393,0
68540,-0.911596,-0.326147,2.23213,0
68560,-0.912827,-0.325587,2.22952,0
68580,-0.914819,-0.323729,2.22687,0
68600,-0.917055,-0.32096,2.22581,0
68620,-0.91777,-0.320948,2.22493,0
68640,-0.918722,-0.321713,2.22505,0
68660,-0.920513,-0.32168,2.2266,0
68680,-0.922081,-0.323,2.22761,0
68700,-0.924253,-0.32572,2.22838,0
68720,-0.926813,-0.327831,2.22925,0
68740,-0.928325,-0.330272,2.22956,0
68760,-0.929385,-0.33394,2.22939,0
68780,-0.930479,-0.33704,2.22912,0
68800,-0.932354,-0.338709,2.22904,0
68820,-0.934298,-0.339019,2.22936,0
68840,-0.936534,-0.338354,2.23115,0
68860,-0.938733,-0.337686,2.23344,0
68880,-0.940812,-0.33711,2.23674,0
68900,-0.942636,-0.337771,2.24013,0
68920,-0.943742,-0.339365,2.24261,0
68940,-0.94367,-0.340848,2.24411,0
68960,-0.942511,-0.341705,2.24409,0
68980,-0.941103,-0.342989,2.2428,0
69000,-0.940728,-0.345458,2.24071,0
