Timestamp, Angle x, Angle y, Angle z, Marker
40,-0.831561,-0.231629,0.870093,0
60,-0.831388,-0.231775,0.870689,0
80,-0.831133,-0.231743,0.871314,0
90,-0.830392,-0.231355,0.872341,0
110,-0.830189,-0.230905,0.873799,0
130,-0.830387,-0.230115,0.874782,0
150,-0.830595,-0.229742,0.874665,0
170,-0.830501,-0.229061,0.873151,0
170,-0.830483,-0.228168,0.870833,0
170,-0.830425,-0.227356,0.86825,0
220,-0.83008,-0.227055,0.866696,0
240,-0.829381,-0.227165,0.865666,0
280,-0.829111,-0.227603,0.863623,0
300,-0.829072,-0.227652,0.862482,0
320,-0.828794,-0.227747,0.861431,0
340,-0.828435,-0.227662,0.860411,0
360,-0.828523,-0.227596,0.859398,0
380,-0.828684,-0.227563,0.858566,0
400,-0.828659,-0.227427,0.857771,0
420,-0.828368,-0.227222,0.857152,0
440,-0.828028,-0.227023,0.856372,0
460,-0.827813,-0.226923,0.855829,0
480,-0.827621,-0.226864,0.855306,0
500,-0.827479,-0.226798,0.854944,0
520,-0.827102,-0.226634,0.854457,0
540,-0.827102,-0.226634,0.854457,0
560,-0.827129,-0.226667,0.854485,0
580,-0.827205,-0.226773,0.854561,0
600,-0.827205,-0.226773,0.854561,0
620,-0.827075,-0.226815,0.854539,0
640,-0.827075,-0.226815,0.854539,0
660,-0.827075,-0.226815,0.854539,0
680,-0.826944,-0.226857,0.854518,0
700,-0.826867,-0.226751,0.854442,0
720,-0.826867,-0.226751,0.854442,0
740,-0.826894,-0.226784,0.85447,0
760,-0.826894,-0.226784,0.85447,0
780,-0.826763,-0.226826,0.854449,0
800,-0.826687,-0.226719,0.854373,0
820,-0.826268,-0.226143,0.854402,0
840,-0.825953,-0.225492,0.854425,0
870,-0.82603,-0.22501,0.854508,0
890,-0.825899,-0.225052,0.854487,0
910,-0.825899,-0.225052,0.854487,0
930,-0.825899,-0.225052,0.854487,0
940,-0.825823,-0.224946,0.854411,0
960,-0.825823,-0.224946,0.854411,0
980,-0.825823,-0.224946,0.854411,0
1000,-0.825692,-0.224988,0.85439,0
1020,-0.825496,-0.224952,0.854747,0
1040,-0.825372,-0.224655,0.855289,0
1060,-0.825155,-0.224071,0.855521,0
1080,-0.824878,-0.223385,0.855252,0
1100,-0.824291,-0.222709,0.854895,0
1120,-0.823961,-0.222171,0.854681,0
1140,-0.82339,-0.221794,0.853894,0
1160,-0.823043,-0.221662,0.853438,0
1180,-0.822486,-0.221018,0.85311,0
1200,-0.821753,-0.219952,0.851947,0
1220,-0.821247,-0.217864,0.849363,0
1240,-0.821355,-0.215369,0.845621,0
1260,-0.821198,-0.212917,0.841828,0
1280,-0.82047,-0.210259,0.838347,0
1300,-0.819457,-0.206994,0.834355,0
1320,-0.819472,-0.201744,0.829166,0
1340,-0.82056,-0.194498,0.822348,0
1360,-0.821401,-0.186129,0.814224,0
1380,-0.82216,-0.176642,0.804711,0
1400,-0.823173,-0.165168,0.794213,0
1420,-0.822252,-0.15354,0.781892,0
1440,-0.820879,-0.141962,0.767973,0
1460,-0.818781,-0.131833,0.752208,0
1480,-0.815378,-0.123163,0.735179,0
1500,-0.811471,-0.114629,0.716382,0
1520,-0.808144,-0.107322,0.694855,0
1540,-0.807968,-0.0995862,0.672355,0
1560,-0.810326,-0.0906591,0.651422,0
1580,-0.812451,-0.0816553,0.633216,0
1600,-0.81475,-0.0728675,0.617378,0
1620,-0.817252,-0.0650474,0.602271,0
1640,-0.821014,-0.0580194,0.587998,0
1660,-0.826762,-0.0511117,0.572947,0
1680,-0.832641,-0.0443786,0.557399,0
1700,-0.836171,-0.0386311,0.541901,0
1720,-0.839416,-0.034575,0.525616,0
1740,-0.842227,-0.0313979,0.507721,0
1760,-0.844174,-0.0292878,0.488684,0
1760,-0.844916,-0.0275163,0.468171,0
1780,-0.844993,-0.0244855,0.446912,0
1800,-0.844846,-0.0214127,0.424956,0
1820,-0.844445,-0.0173764,0.404248,0
1840,-0.846424,-0.0153365,0.382918,0
1880,-0.841812,-0.0102436,0.35912,0
1900,-0.844359,-0.0142438,0.337379,0
1920,-0.847021,-0.0122706,0.314188,0
1940,-0.848648,-0.00785429,0.290375,0
1960,-0.850104,-0.00694692,0.265582,0
1980,-0.850852,-0.0100637,0.240571,0
2000,-0.846335,-0.00670471,0.215076,0
2020,-0.84182,0.00853797,0.187453,0
2040,-0.840385,0.00458388,0.160307,0
2060,-0.833579,0.0151115,0.135474,0
2080,-0.83152,0.0174147,0.111679,0
2100,-0.826199,0.0362529,0.0902609,0
2120,-0.818821,0.0339116,0.0716806,0
2140,-0.814845,0.0436073,0.0532672,0
2160,-0.811905,0.0640121,0.0348307,0
2180,-0.805395,0.0743227,0.0165221,0
2200,-0.79772,0.0734928,-0.00262016,0
2220,-0.791168,0.0669689,-0.0253268,0
2240,-0.783063,0.0573239,-0.0499628,0
2260,-0.776999,0.0449833,-0.0771304,0
2280,-0.774088,0.0307581,-0.107757,0
2300,-0.774599,0.0189894,-0.141796,0
2320,-0.780259,0.00468821,-0.178887,0
2340,-0.790524,-0.01315,-0.217852,0
2360,-0.800904,-0.0394528,-0.258201,0
2380,-0.809754,-0.0696288,-0.298896,0
2400,-0.82094,-0.099201,-0.339178,0
2420,-0.832147,-0.136645,-0.37909,0
2440,-0.845523,-0.172914,-0.419319,0
2460,-0.864152,-0.213709,-0.45535,0
2460,-0.881354,-0.25587,-0.489435,0
2480,-0.902971,-0.299933,-0.520932,0
2500,-0.925886,-0.34506,-0.551251,0
2520,-0.949749,-0.392012,-0.578505,0
2520,-0.974282,-0.438818,-0.604048,0
2570,-0.996984,-0.48619,-0.627786,0
2600,-1.01832,-0.533063,-0.650201,0
2620,-1.03922,-0.578168,-0.671172,0
2640,-1.05774,-0.621268,-0.692024,0
2660,-1.07532,-0.662021,-0.712467,0
2680,-1.09073,-0.700021,-0.733767,0
2700,-1.1014,-0.734591,-0.756165,0
2720,-1.10751,-0.765489,-0.780296,0
2740,-1.11161,-0.791694,-0.804276,0
2760,-1.11325,-0.813665,-0.829014,0
2780,-1.11084,-0.832286,-0.855211,0
2800,-1.10562,-0.847314,-0.881517,0
2820,-1.09849,-0.859826,-0.906495,0
2840,-1.08962,-0.870877,-0.931614,0
2860,-1.08151,-0.880382,-0.95492,0
2880,-1.07414,-0.887789,-0.975133,0
2900,-1.06637,-0.893463,-0.99387,0
2920,-1.05933,-0.896746,-1.0113,0
2940,-1.05479,-0.898265,-1.0255,0
2960,-1.04859,-0.899622,-1.03758,0
2980,-1.04292,-0.900585,-1.04817,0
3000,-1.04056,-0.900122,-1.0555,0
3020,-1.0401,-0.899705,-1.06002,0
3040,-1.03924,-0.899819,-1.06362,0
3060,-1.03906,-0.899502,-1.06553,0
3080,-1.03737,-0.900071,-1.06727,0
3100,-1.03607,-0.901436,-1.06839,0
3120,-1.03392,-0.902902,-1.06947,0
3140,-1.0316,-0.904885,-1.07042,0
3160,-1.02827,-0.907029,-1.07198,0
3180,-1.02428,-0.909625,-1.07534,0
3200,-1.02051,-0.911458,-1.07891,0
3220,-1.01747,-0.912886,-1.08187,0
3240,-1.01521,-0.913684,-1.08424,0
3260,-1.01255,-0.914422,-1.08755,0
3280,-1.0094,-0.914157,-1.09187,0
3300,-1.00697,-0.913208,-1.09548,0
3320,-1.00321,-0.911316,-1.10027,0
3340,-0.999754,-0.909571,-1.10376,0
3360,-0.996527,-0.908052,-1.10695,0
3380,-0.994064,-0.906399,-1.11005,0
3400,-0.992813,-0.90498,-1.11332,0
3420,-0.990904,-0.903865,-1.11703,0
3440,-0.988441,-0.902848,-1.12098,0
3450,-0.9868,-0.902371,-1.12451,0
3470,-0.985492,-0.902089,-1.12738,0
3490,-0.984637,-0.902307,-1.13027,0
3510,-0.984479,-0.903145,-1.13318,0
3530,-0.984771,-0.903855,-1.13575,0
3550,-0.984075,-0.90456,-1.13918,0
3570,-0.982886,-0.905793,-1.14278,0
3590,-0.980962,-0.907149,-1.14674,0
3610,-0.977471,-0.908471,-1.15158,0
3630,-0.973703,-0.910019,-1.15674,0
3650,-0.970183,-0.911174,-1.16128,0
3670,-0.96648,-0.9113,-1.1654,0
3690,-0.962518,-0.911792,-1.16908,0
3710,-0.958263,-0.912125,-1.17351,0
3730,-0.954489,-0.911914,-1.17799,0
3750,-0.950213,-0.910055,-1.18222,0
3770,-0.944395,-0.908209,-1.18591,0
3790,-0.937844,-0.905794,-1.1889,0
3810,-0.931221,-0.90142,-1.19157,0
3830,-0.924465,-0.896227,-1.19364,0
3850,-0.91604,-0.891175,-1.19559,0
3870,-0.907925,-0.884023,-1.19862,0
3890,-0.900696,-0.876758,-1.19925,0
3910,-0.892719,-0.869808,-1.20085,0
3930,-0.885198,-0.863453,-1.20428,0
3950,-0.879855,-0.857278,-1.20706,0
3970,-0.875708,-0.852831,-1.20791,0
3990,-0.870408,-0.84902,-1.20984,0
4010,-0.864408,-0.846066,-1.21143,0
4030,-0.858817,-0.844559,-1.21302,0
4050,-0.854288,-0.843286,-1.21455,0
4070,-0.851439,-0.842289,-1.2164,0
4090,-0.850755,-0.841402,-1.21726,0
4110,-0.850999,-0.84025,-1.21766,0
4130,-0.851002,-0.838704,-1.21791,0
4150,-0.851582,-0.837261,-1.21781,0
4170,-0.852354,-0.83632,-1.21787,0
4190,-0.852382,-0.835607,-1.21857,0
4210,-0.852218,-0.834961,-1.22001,0
4230,-0.851481,-0.834412,-1.22145,0
4250,-0.849836,-0.834249,-1.22338,0
4270,-0.847702,-0.834224,-1.22515,0
4290,-0.845204,-0.833922,-1.22764,0
4310,-0.843449,-0.833778,-1.2302,0
4330,-0.841537,-0.83363,-1.23306,0
4350,-0.839205,-0.833003,-1.23556,0
4370,-0.836595,-0.83237,-1.23749,0
4390,-0.833958,-0.832122,-1.2396,0
4410,-0.830885,-0.832157,-1.24192,0
4430,-0.828234,-0.831877,-1.24424,0
4450,-0.826442,-0.830877,-1.2463,0
4470,-0.825169,-0.829587,-1.24726,0
4490,-0.823332,-0.828725,-1.24855,0
4510,-0.820093,-0.827722,-1.25015,0
4530,-0.817937,-0.826681,-1.25127,0
4550,-0.815966,-0.825832,-1.25202,0
4570,-0.814113,-0.825585,-1.25295,0
4590,-0.812616,-0.824854,-1.25369,0
4610,-0.810802,-0.824471,-1.25482,0
4630,-0.808886,-0.824052,-1.25557,0
4650,-0.806574,-0.8239,-1.25679,0
4670,-0.804583,-0.823803,-1.25813,0
4690,-0.803751,-0.823659,-1.25868,0
4710,-0.803257,-0.823602,-1.25915,0
4730,-0.802326,-0.823749,-1.2605,0
4750,-0.801937,-0.824293,-1.26114,0
4770,-0.802225,-0.825209,-1.26099,0
4790,-0.801791,-0.825768,-1.26139,0
4810,-0.801573,-0.826348,-1.26154,0
4830,-0.801943,-0.827113,-1.26185,0
4850,-0.801847,-0.82776,-1.26217,0
4870,-0.801251,-0.828193,-1.26282,0
4890,-0.800885,-0.828323,-1.2635,0
4910,-0.800885,-0.828323,-1.2635,0
4930,-0.800251,-0.827935,-1.26453,0
4950,-0.799379,-0.827358,-1.26508,0
4970,-0.79843,-0.827069,-1.26612,0
4990,-0.79743,-0.826674,-1.26688,0
5010,-0.797026,-0.826585,-1.26784,0
5030,-0.796764,-0.826224,-1.26833,0
5050,-0.7961,-0.826128,-1.26929,0
5070,-0.794936,-0.826206,-1.2702,0
5090,-0.793729,-0.826277,-1.27168,0
5110,-0.793085,-0.826211,-1.27243,0
5130,-0.792284,-0.826003,-1.27253,0
5150,-0.790388,-0.826051,-1.27283,0
5180,-0.784402,-0.824771,-1.27218,0
5200,-0.781052,-0.823061,-1.27063,0
5220,-0.777513,-0.819967,-1.26635,0
5240,-0.774104,-0.814527,-1.25861,0
5260,-0.772633,-0.805965,-1.24467,0
5280,-0.776695,-0.794746,-1.22201,0
5300,-0.782836,-0.780642,-1.19708,0
5320,-0.789584,-0.761899,-1.17024,0
5340,-0.798147,-0.737149,-1.13706,0
5360,-0.809849,-0.708996,-1.09641,0
5380,-0.817703,-0.677607,-1.05268,0
5400,-0.823135,-0.643777,-1.00699,0
5420,-0.826043,-0.608098,-0.96019,0
5440,-0.825955,-0.571181,-0.91189,0
5460,-0.824494,-0.533137,-0.858788,0
5480,-0.81839,-0.494636,-0.803905,0
5500,-0.810967,-0.454634,-0.745431,0
5520,-0.804089,-0.414093,-0.683378,0
5540,-0.796242,-0.374684,-0.618788,0
5560,-0.784488,-0.337698,-0.553037,0
5580,-0.770993,-0.304116,-0.49152,0
5600,-0.760218,-0.275028,-0.435988,0
5610,-0.751166,-0.250146,-0.383212,0
5630,-0.742493,-0.227856,-0.331998,0
5630,-0.734986,-0.208683,-0.281306,0
5650,-0.728497,-0.1929,-0.228956,0
5670,-0.725101,-0.179103,-0.175002,0
5690,-0.724355,-0.165719,-0.12064,0
5690,-0.726775,-0.153196,-0.0679406,0
5710,-0.730736,-0.141359,-0.0163231,0
5730,-0.735033,-0.128344,0.0359734,0
5750,-0.740156,-0.114636,0.0898869,0
5770,-0.744211,-0.102599,0.144806,0
5790,-0.749812,-0.0928862,0.199436,0
5810,-0.756284,-0.0856179,0.251352,0
5870,-0.765281,-0.0786851,0.345292,0
5890,-0.767707,-0.0781039,0.387672,0
5910,-0.769639,-0.0790634,0.427057,0
5920,-0.770617,-0.0820887,0.464663,0
5940,-0.771171,-0.0869205,0.501632,0
5940,-0.7717,-0.0927238,0.537951,0
5960,-0.772314,-0.0986797,0.573411,0
6000,-0.773943,-0.104855,0.608366,0
6020,-0.776595,-0.110978,0.641208,0
6020,-0.778544,-0.117753,0.669944,0
6040,-0.778769,-0.125857,0.694866,0
6060,-0.77708,-0.13345,0.716749,0
6060,-0.77409,-0.14018,0.736469,0
6080,-0.770768,-0.145928,0.755712,0
6100,-0.766977,-0.150406,0.774605,0
6140,-0.758567,-0.15634,0.82955,0
6150,-0.7526,-0.15653,0.860743,0
6170,-0.749119,-0.155116,0.873259,0
6180,-0.743787,-0.15309,0.893678,0
6200,-0.73652,-0.155964,0.912548,0
6220,-0.733038,-0.158431,0.920727,0
6240,-0.730643,-0.160948,0.927923,0
6260,-0.728524,-0.163342,0.934707,0
6280,-0.72612,-0.165519,0.941326,0
6300,-0.723391,-0.167236,0.947078,0
6320,-0.721223,-0.168694,0.952165,0
6340,-0.719589,-0.169834,0.956105,0
6360,-0.718279,-0.170594,0.958808,0
6380,-0.716563,-0.170863,0.960472,0
6400,-0.714274,-0.170226,0.961321,0
6420,-0.710769,-0.16876,0.961497,0
6440,-0.70383,-0.166773,0.961268,0
6460,-0.695337,-0.163359,0.958631,0
6480,-0.687569,-0.156691,0.952075,0
6500,-0.683276,-0.147187,0.942661,0
6520,-0.681721,-0.134707,0.930276,0
6540,-0.679514,-0.119162,0.919084,0
6560,-0.67327,-0.101478,0.910885,0
6580,-0.665084,-0.0815191,0.904533,0
6600,-0.658049,-0.0616363,0.899969,0
6620,-0.652266,-0.0455297,0.896656,0
6640,-0.645714,-0.0335324,0.895031,0
6660,-0.638647,-0.0271162,0.895181,0
6680,-0.631128,-0.0258416,0.8956,0
6700,-0.62652,-0.0277213,0.89573,0
6720,-0.623821,-0.0322181,0.895471,0
6740,-0.621692,-0.0390711,0.895102,0
6760,-0.620146,-0.0479546,0.893232,0
6780,-0.620669,-0.0573726,0.889654,0
6800,-0.624141,-0.065948,0.885237,0
6820,-0.629279,-0.0731915,0.882715,0
6840,-0.633403,-0.0796573,0.882055,0
6860,-0.636685,-0.0858837,0.882025,0
6900,-0.645684,-0.0977164,0.882179,0
6920,-0.65059,-0.103986,0.881618,0
6940,-0.653073,-0.111219,0.882069,0
6960,-0.65486,-0.119081,0.883747,0
6980,-0.656802,-0.125736,0.885476,0
7000,-0.658879,-0.131069,0.886207,0
7020,-0.65995,-0.135361,0.886618,0
7040,-0.66013,-0.138563,0.886709,0
7060,-0.660389,-0.138728,0.886841,0
7080,-0.661742,-0.137137,0.88628,0
7100,-0.663801,-0.136673,0.883892,0
7120,-0.664379,-0.136839,0.880529,0
7140,-0.664549,-0.137528,0.877299,0
7160,-0.665737,-0.13851,0.874831,0
7180,-0.668061,-0.138121,0.87224,0
7200,-0.670377,-0.137628,0.869192,0
7200,-0.673511,-0.136862,0.865952,0
7220,-0.676147,-0.135632,0.862132,0
7240,-0.677915,-0.134682,0.857642,0
7260,-0.680144,-0.13585,0.853802,0
7280,-0.681066,-0.139929,0.849365,0
7310,-0.679932,-0.136415,0.842285,0
7340,-0.678382,-0.138793,0.836089,0
7360,-0.679121,-0.147235,0.829507,0
7380,-0.679146,-0.158164,0.820523,0
7400,-0.676997,-0.168325,0.809382,0
7420,-0.674345,-0.171013,0.797534,0
7440,-0.673585,-0.168825,0.786256,0
7460,-0.675123,-0.179915,0.776684,0
7480,-0.672454,-0.186791,0.765421,0
7500,-0.674557,-0.185355,0.753209,0
7520,-0.673682,-0.192851,0.739893,0
7540,-0.677463,-0.194515,0.726972,0
7560,-0.67664,-0.191873,0.712328,0
7580,-0.675687,-0.203763,0.698064,0
7600,-0.679715,-0.20714,0.684718,0
7620,-0.684653,-0.199767,0.671941,0
7640,-0.687556,-0.191539,0.658913,0
7660,-0.688538,-0.186351,0.64705,0
7680,-0.687745,-0.183817,0.635323,0
7700,-0.685892,-0.180833,0.625535,0
7720,-0.684356,-0.175059,0.617203,0
7740,-0.684865,-0.166267,0.610449,0
7760,-0.68789,-0.160671,0.60445,0
7780,-0.689134,-0.166311,0.600231,0
7800,-0.688942,-0.163588,0.596992,0
7820,-0.688162,-0.164888,0.596262,0
7840,-0.686971,-0.165386,0.594866,0
7860,-0.685951,-0.165865,0.594317,0
7880,-0.685009,-0.166229,0.594408,0
7900,-0.683791,-0.166959,0.595257,0
7920,-0.68254,-0.16732,0.596506,0
7940,-0.681442,-0.167117,0.598114,0
7960,-0.680351,-0.167044,0.599624,0
7980,-0.679515,-0.166852,0.601272,0
8010,-0.679217,-0.167154,0.604035,0
8030,-0.678727,-0.167075,0.605125,0
8050,-0.678267,-0.16674,0.606125,0
8070,-0.677343,-0.166393,0.606212,0
8090,-0.676685,-0.165984,0.606334,0
8110,-0.676171,-0.165601,0.606372,0
8130,-0.674937,-0.165357,0.606039,0
8150,-0.673377,-0.16503,0.605487,0
8170,-0.672207,-0.164954,0.605107,0
8190,-0.67147,-0.164689,0.605268,0
8210,-0.670135,-0.163283,0.605706,0
8230,-0.668865,-0.162267,0.605767,0
8250,-0.668193,-0.161179,0.606314,0
8270,-0.667019,-0.159524,0.607366,0
8290,-0.665468,-0.158114,0.608844,0
8310,-0.663665,-0.156828,0.61019,0
8330,-0.661956,-0.155458,0.611402,0
8350,-0.660769,-0.154031,0.612686,0
8370,-0.659389,-0.152966,0.613786,0
8380,-0.657316,-0.151937,0.614652,0
8400,-0.655369,-0.151226,0.615651,0
8420,-0.653636,-0.15034,0.616635,0
8440,-0.652092,-0.149662,0.617586,0
8460,-0.650602,-0.148792,0.619159,0
8480,-0.649177,-0.147815,0.620571,0
8500,-0.648148,-0.147403,0.622387,0
8520,-0.646992,-0.147708,0.624312,0
8540,-0.645905,-0.148352,0.626764,0
8560,-0.644776,-0.149075,0.629512,0
8580,-0.643435,-0.150071,0.63205,0
8600,-0.64229,-0.151275,0.634552,0
8620,-0.641708,-0.152215,0.63693,0
8640,-0.641001,-0.152841,0.639182,0
8660,-0.640336,-0.153202,0.640791,0
8680,-0.640129,-0.153494,0.641948,0
8700,-0.640061,-0.153249,0.642789,0
8720,-0.639865,-0.152903,0.643163,0
8740,-0.639665,-0.152296,0.643191,0
8760,-0.63911,-0.151311,0.642865,0
8780,-0.638583,-0.150346,0.642568,0
8800,-0.637557,-0.149347,0.641885,0
8820,-0.636617,-0.148393,0.641516,0
8840,-0.635531,-0.147506,0.641002,0
8860,-0.634577,-0.146585,0.640506,0
8880,-0.633703,-0.145518,0.639977,0
8900,-0.632551,-0.144339,0.639627,0
8920,-0.631563,-0.142781,0.639444,0
8940,-0.630767,-0.140864,0.639454,0
8960,-0.630119,-0.138601,0.639502,0
8980,-0.629471,-0.135849,0.639781,0
9000,-0.628902,-0.132461,0.64026,0
9020,-0.62826,-0.128381,0.640903,0
9040,-0.627472,-0.123393,0.64187,0
9060,-0.626665,-0.117072,0.642952,0
9080,-0.625827,-0.108763,0.644145,0
9100,-0.625477,-0.0982893,0.645397,0
9120,-0.625818,-0.0840282,0.64575,0
9140,-0.62661,-0.0663412,0.645879,0
9160,-0.629894,-0.044746,0.643867,0
9180,-0.636291,-0.0205577,0.640399,0
9200,-0.647836,0.0064752,0.634855,0
9220,-0.66252,0.0366473,0.626575,0
9240,-0.681834,0.0685477,0.62061,0
9260,-0.69867,0.101384,0.615081,0
9280,-0.710702,0.134499,0.610176,0
9300,-0.717007,0.167444,0.608105,0
9320,-0.717504,0.201676,0.608792,0
9340,-0.718037,0.233928,0.610186,0
9360,-0.720055,0.263291,0.612422,0
9380,-0.722281,0.291361,0.616247,0
9400,-0.723162,0.318682,0.620886,0
9410,-0.723992,0.343649,0.626363,0
9430,-0.719569,0.367264,0.632325,0
9450,-0.713329,0.387514,0.641037,0
9450,-0.71158,0.402776,0.64989,0
9500,-0.718577,0.412206,0.656916,0
9520,-0.725291,0.412785,0.659815,0
9540,-0.719838,0.409887,0.659861,0
9560,-0.708454,0.408139,0.657991,0
9580,-0.699412,0.407662,0.655884,0
9600,-0.695839,0.408244,0.653549,0
9620,-0.696284,0.40952,0.650963,0
9640,-0.697107,0.411009,0.648898,0
9660,-0.69696,0.412846,0.64821,0
9680,-0.696061,0.415073,0.648175,0
9700,-0.694748,0.417611,0.648987,0
9720,-0.693578,0.420062,0.65011,0
9740,-0.693351,0.422227,0.650923,0
9760,-0.69317,0.424165,0.651793,0
9780,-0.69264,0.42541,0.652338,0
9800,-0.691748,0.42643,0.65269,0
9820,-0.690192,0.427316,0.652702,0
9840,-0.687931,0.428284,0.652648,0
9860,-0.68603,0.429072,0.652483,0
9880,-0.684806,0.429907,0.652036,0
9900,-0.683737,0.431385,0.65173,0
9900,-0.683608,0.433221,0.651394,0
9920,-0.68374,0.435373,0.651151,0
9940,-0.684264,0.437812,0.651291,0
9960,-0.68533,0.440184,0.651329,0
9980,-0.687228,0.44227,0.651556,0
10000,-0.690034,0.44369,0.651574,0
10020,-0.693052,0.444882,0.651483,0
10040,-0.696095,0.445972,0.651089,0
10060,-0.69825,0.446842,0.650783,0
10080,-0.699385,0.447505,0.650596,0
10100,-0.699896,0.448453,0.650422,0
10120,-0.700028,0.449456,0.650352,0
10140,-0.700172,0.451047,0.650758,0
10160,-0.70088,0.453107,0.651384,0
10180,-0.701408,0.455035,0.652488,0
10200,-0.702871,0.456994,0.654365,0
10220,-0.703505,0.458782,0.657219,0
10240,-0.701966,0.460333,0.661027,0
10260,-0.699877,0.461729,0.665942,0
10280,-0.697546,0.461859,0.671969,0
10300,-0.694985,0.458159,0.677985,0
10320,-0.693059,0.451654,0.683303,0
10330,-0.690423,0.442126,0.688325,0
10350,-0.688296,0.397369,0.708565,0
10370,-0.686706,0.385706,0.712518,0
10390,-0.685126,0.374077,0.715622,0
10410,-0.683024,0.362483,0.717974,0
10430,-0.679733,0.351254,0.720129,0
10450,-0.675208,0.340474,0.722327,0
10470,-0.671279,0.330739,0.724466,0
10490,-0.667736,0.322131,0.726957,0
10510,-0.665665,0.313058,0.729801,0
10530,-0.663928,0.30429,0.733371,0
10550,-0.661091,0.295231,0.737507,0
10570,-0.656818,0.285972,0.742421,0
10590,-0.652052,0.276229,0.746989,0
10610,-0.647451,0.269407,0.752234,0
10630,-0.64942,0.262726,0.753746,0
10650,-0.658802,0.25713,0.75185,0
10670,-0.673019,0.254279,0.744431,0
10690,-0.68919,0.254577,0.732378,0
10710,-0.702953,0.256821,0.716521,0
10730,-0.710223,0.256435,0.698919,0
10750,-0.713452,0.261239,0.683403,0
10770,-0.723241,0.26456,0.66002,0
10790,-0.725894,0.270836,0.633721,0
10810,-0.725698,0.281776,0.609838,0
10830,-0.735378,0.292978,0.582666,0
10840,-0.744849,0.307906,0.551389,0
10860,-0.753978,0.324109,0.516841,0
10880,-0.759406,0.338412,0.476937,0
10900,-0.767762,0.351981,0.427419,0
10920,-0.779253,0.365975,0.374335,0
10940,-0.789657,0.378617,0.31679,0
10960,-0.79917,0.391739,0.253059,0
10980,-0.809556,0.407595,0.188748,0
11000,-0.818659,0.429205,0.127967,0
11020,-0.832935,0.453838,0.0699792,0
11040,-0.85229,0.478013,0.0136102,0
11060,-0.872304,0.50202,-0.0403166,0
11080,-0.894112,0.525604,-0.0906281,0
11100,-0.915266,0.549989,-0.135872,0
11120,-0.935649,0.571581,-0.174283,0
11140,-0.951062,0.591393,-0.205963,0
11160,-0.964162,0.609119,-0.233552,0
11180,-0.975744,0.626238,-0.25741,0
11200,-0.982558,0.643975,-0.275789,0
11220,-0.985117,0.660212,-0.287684,0
11240,-0.987846,0.675674,-0.296059,0
11260,-0.991879,0.691299,-0.302184,0
11280,-0.996522,0.707419,-0.305562,0
11300,-1.00143,0.721785,-0.306711,0
11320,-1.00621,0.734075,-0.306725,0
11340,-1.00801,0.745793,-0.305709,0
11360,-1.00455,0.756639,-0.303431,0
11380,-0.996701,0.764069,-0.299134,0
11400,-0.986796,0.768793,-0.292875,0
11420,-0.977275,0.77299,-0.286931,0
11440,-0.968406,0.7757,-0.280647,0
11460,-0.959911,0.777018,-0.272419,0
11480,-0.950709,0.777359,-0.263365,0
11500,-0.940859,0.77642,-0.252201,0
11520,-0.93231,0.775503,-0.239905,0
11540,-0.92253,0.775584,-0.224745,0
11560,-0.91209,0.774213,-0.206749,0
11580,-0.90351,0.772597,-0.18763,0
11600,-0.898292,0.770699,-0.170499,0
11620,-0.894976,0.768768,-0.154233,0
11640,-0.890408,0.766744,-0.136251,0
11660,-0.886287,0.76344,-0.117397,0
11680,-0.883309,0.758638,-0.0983501,0
11700,-0.880517,0.752146,-0.0799351,0
11720,-0.876063,0.744922,-0.0608274,0
11740,-0.870728,0.736396,-0.0402621,0
11760,-0.867067,0.726421,-0.0182969,0
11780,-0.865456,0.715353,0.00352189,0
11800,-0.865573,0.703486,0.0239553,0
11820,-0.867371,0.6945,0.0412503,0
11840,-0.867585,0.688256,0.0536466,0
11860,-0.868175,0.682295,0.0607098,0
11880,-0.869611,0.678926,0.064084,0
11900,-0.876679,0.677331,0.0617069,0
11920,-0.888814,0.677295,0.0573024,0
11940,-0.889775,0.67773,0.0580899,0
11960,-0.888054,0.677625,0.0588669,0
11980,-0.886324,0.675202,0.0595738,0
12000,-0.884454,0.671301,0.0584355,0
12020,-0.884306,0.66756,0.0560513,0
12040,-0.883959,0.664508,0.0554514,0
12060,-0.884343,0.661822,0.0547928,0
12080,-0.885838,0.659164,0.0531082,0
12100,-0.884329,0.658291,0.0530401,0
12120,-0.885134,0.657522,0.053234,0
12140,-0.889829,0.656894,0.0527293,0
12160,-0.894278,0.654922,0.0510485,0
12180,-0.895285,0.65122,0.0477341,0
12200,-0.893299,0.648162,0.0459812,0
12220,-0.88482,0.645996,0.0530024,0
12240,-0.879443,0.642516,0.0608064,0
12260,-0.885428,0.638906,0.0621603,0
12280,-0.888124,0.640156,0.0631313,0
12300,-0.884696,0.641406,0.0653248,0
12320,-0.880707,0.641121,0.0639055,0
12340,-0.871723,0.644132,0.0636659,0
12360,-0.862268,0.650552,0.0645279,0
12380,-0.859372,0.656975,0.0631295,0
12400,-0.859398,0.66548,0.0607364,0
12420,-0.85516,0.674189,0.0614015,0
12440,-0.847783,0.679207,0.0661099,0
12460,-0.845697,0.680339,0.0725579,0
12480,-0.845015,0.680176,0.0804522,0
12500,-0.841037,0.678607,0.0922271,0
12520,-0.832711,0.675746,0.10632,0
12540,-0.818773,0.671001,0.12047,0
12560,-0.805997,0.664065,0.132766,0
12580,-0.798508,0.656709,0.145191,0
12600,-0.786859,0.648828,0.159151,0
12620,-0.774573,0.639509,0.175664,0
12640,-0.764162,0.631168,0.193017,0
12660,-0.754603,0.620922,0.210712,0
12680,-0.749432,0.609284,0.227045,0
12700,-0.746373,0.598221,0.247714,0
12720,-0.740639,0.584542,0.2695,0
12740,-0.731169,0.568342,0.284659,0
12760,-0.726281,0.552521,0.286943,0
12780,-0.72807,0.543242,0.279447,0
12800,-0.73477,0.539673,0.25917,0
12820,-0.730838,0.538567,0.238415,0
12840,-0.713016,0.536974,0.220397,0
12860,-0.688228,0.534948,0.200996,0
12880,-0.667992,0.540193,0.180085,0
12900,-0.659549,0.549844,0.161343,0
12920,-0.655003,0.557925,0.146662,0
12940,-0.665123,0.563797,0.12901,0
12960,-0.685534,0.574427,0.112307,0
12980,-0.694798,0.588951,0.10535,0
13000,-0.689421,0.597541,0.103921,0
13020,-0.677309,0.603029,0.104347,0
13040,-0.672662,0.611284,0.107897,0
13060,-0.68128,0.620785,0.113711,0
13080,-0.692667,0.629507,0.124074,0
13100,-0.692609,0.638096,0.141013,0
13120,-0.680742,0.647575,0.169566,0
13140,-0.674384,0.656164,0.196771,0
13160,-0.675233,0.661114,0.213939,0
13180,-0.680277,0.66547,0.225397,0
13200,-0.684675,0.667951,0.235721,0
13220,-0.691779,0.665463,0.239944,0
13240,-0.694145,0.663866,0.237597,0
13260,-0.690593,0.666708,0.235929,0
13280,-0.69153,0.672154,0.236706,0
13300,-0.702587,0.680175,0.23771,0
13320,-0.730384,0.692089,0.233583,0
13340,-0.767725,0.704502,0.221744,0
13360,-0.805808,0.712991,0.206372,0
13380,-0.829818,0.714265,0.196355,0
13390,-0.827194,0.711643,0.195818,0
13410,-0.814418,0.709624,0.206412,0
13430,-0.808867,0.712542,0.22014,0
13450,-0.817748,0.72012,0.234884,0
13470,-0.835237,0.735143,0.249566,0
13490,-0.857125,0.756892,0.26242,0
13510,-0.875739,0.780963,0.275594,0
13530,-0.876577,0.80067,0.293858,0
13550,-0.856078,0.817204,0.320445,0
13570,-0.823175,0.830725,0.349269,0
13590,-0.798452,0.836546,0.372198,0
13610,-0.792799,0.837547,0.38519,0
13630,-0.798552,0.835495,0.388598,0
13650,-0.801765,0.829546,0.38479,0
13670,-0.799336,0.823767,0.377726,0
13690,-0.793775,0.821191,0.370694,0
13710,-0.789736,0.822444,0.361853,0
13730,-0.794158,0.828725,0.351303,0
13750,-0.80602,0.839051,0.340504,0
13770,-0.819238,0.849035,0.333873,0
13790,-0.830731,0.856441,0.331035,0
13810,-0.84228,0.859513,0.331773,0
13830,-0.85274,0.85515,0.335325,0
13850,-0.865128,0.840101,0.334644,0
13870,-0.873238,0.81513,0.329801,0
13890,-0.87539,0.782309,0.320171,0
13910,-0.870575,0.743264,0.309558,0
13930,-0.863334,0.697755,0.300622,0
13950,-0.857632,0.647497,0.295445,0
13970,-0.858395,0.598736,0.290908,0
13990,-0.859373,0.550989,0.286368,0
14010,-0.849429,0.506531,0.284265,0
14030,-0.83152,0.46865,0.290154,0
14050,-0.815287,0.43242,0.301639,0
14070,-0.803368,0.397049,0.318383,0
14090,-0.792885,0.363921,0.34204,0
14110,-0.781545,0.335564,0.372072,0
14130,-0.774387,0.309606,0.400972,0
14150,-0.76547,0.287416,0.432982,0
14170,-0.7472,0.269968,0.468612,0
14190,-0.720997,0.257932,0.512713,0
14210,-0.688938,0.252897,0.56353,0
14230,-0.67067,0.253839,0.612404,0
14250,-0.66655,0.259501,0.657489,0
14270,-0.680781,0.270767,0.69918,0
14280,-0.701624,0.286505,0.734197,0
14290,-0.721309,0.307938,0.763571,0
14330,-0.733065,0.332811,0.791241,0
14350,-0.730724,0.359765,0.816281,0
14370,-0.715999,0.387074,0.841091,0
14390,-0.692601,0.415167,0.864596,0
14410,-0.663355,0.441775,0.88598,0
14430,-0.638292,0.466709,0.905562,0
14450,-0.623821,0.487385,0.920726,0
14470,-0.622404,0.502805,0.930926,0
14490,-0.632124,0.515477,0.938292,0
14510,-0.642246,0.524309,0.946057,0
14530,-0.644308,0.530724,0.951592,0
14550,-0.640082,0.535696,0.951192,0
14570,-0.637268,0.540853,0.946255,0
14590,-0.629151,0.546255,0.941594,0
14610,-0.624431,0.548591,0.936275,0
14630,-0.622099,0.548608,0.930914,0
14650,-0.618043,0.5475,0.926192,0
14670,-0.614285,0.546937,0.922277,0
14690,-0.612868,0.547668,0.918567,0
14710,-0.614105,0.54942,0.915108,0
14730,-0.618379,0.551367,0.911859,0
14750,-0.623104,0.554278,0.90929,0
14770,-0.626556,0.556856,0.906944,0
14790,-0.628282,0.559698,0.903816,0
14810,-0.629946,0.560697,0.898888,0
14830,-0.630455,0.559691,0.892853,0
14850,-0.628925,0.557134,0.887668,0
14870,-0.626844,0.554724,0.883773,0
14890,-0.626476,0.553403,0.879887,0
14910,-0.627498,0.554358,0.876654,0
14930,-0.62792,0.557415,0.875075,0
14950,-0.626523,0.560177,0.875018,0
14970,-0.623205,0.562396,0.877065,0
14990,-0.620131,0.564256,0.879652,0
15010,-0.61887,0.564507,0.882065,0
15030,-0.619304,0.563701,0.88321,0
15050,-0.619393,0.562056,0.882903,0
15070,-0.617721,0.560572,0.881593,0
15090,-0.612881,0.558358,0.880536,0
15110,-0.605763,0.554677,0.880583,0
15140,-0.592562,0.544514,0.879267,0
15160,-0.588919,0.540153,0.877521,0
15180,-0.586862,0.537271,0.875608,0
15200,-0.586625,0.535752,0.873926,0
15220,-0.58888,0.536547,0.871972,0
15240,-0.590914,0.538696,0.870835,0
15270,-0.590534,0.542115,0.870421,0
15290,-0.589801,0.541461,0.867755,0
15310,-0.587901,0.539006,0.861187,0
15330,-0.586815,0.537595,0.86082,0
15350,-0.587982,0.535408,0.862866,0
15370,-0.591976,0.532702,0.865852,0
15390,-0.598292,0.530064,0.869779,0
15410,-0.608987,0.525732,0.874039,0
15430,-0.619005,0.519056,0.880265,0
15450,-0.621211,0.509179,0.889373,0
15470,-0.63026,0.490294,0.894502,0
15490,-0.644757,0.452548,0.892735,0
15510,-0.65872,0.397352,0.881194,0
15530,-0.672491,0.330951,0.869819,0
15550,-0.678505,0.253523,0.861679,0
15570,-0.681891,0.160167,0.854266,0
15590,-0.693,0.0592498,0.84909,0
15610,-0.712417,-0.0466191,0.850221,0
15630,-0.738996,-0.15767,0.86175,0
15650,-0.773961,-0.26698,0.881075,0
15670,-0.820546,-0.371221,0.907259,0
15690,-0.87565,-0.467251,0.942661,0
15710,-0.936875,-0.551464,0.987904,0
15730,-1.00427,-0.623685,1.04181,0
15750,-1.07684,-0.682832,1.10275,0
15770,-1.15641,-0.728933,1.17022,0
15790,-1.24121,-0.764718,1.24064,0
15810,-1.3209,-0.790519,1.3097,0
15830,-1.39364,-0.807398,1.37457,0
15850,-1.4574,-0.81745,1.43048,0
15870,-1.51216,-0.824128,1.47749,0
15880,-1.55672,-0.826309,1.51576,0
15900,-1.59197,-0.826706,1.54601,0
15920,-1.62012,-0.825556,1.56896,0
15940,-1.64135,-0.821944,1.58681,0
15960,-1.6585,-0.817547,1.60197,0
15980,-1.67423,-0.816154,1.61749,0
16000,-1.69026,-0.815922,1.63444,0
16020,-1.70405,-0.816684,1.64927,0
16040,-1.71491,-0.820513,1.65934,0
16060,-1.72678,-0.83141,1.66604,0
16080,-1.73914,-0.841627,1.67307,0
16100,-1.75099,-0.851181,1.68153,0
16120,-1.76576,-0.863424,1.69131,0
16140,-1.7821,-0.874876,1.70045,0
16160,-1.79924,-0.88567,1.71069,0
16180,-1.81545,-0.894656,1.72007,0
16200,-1.83045,-0.902855,1.72725,0
16220,-1.84294,-0.910571,1.73239,0
16240,-1.85358,-0.916234,1.7362,0
16260,-1.86338,-0.920099,1.73768,0
16280,-1.87032,-0.92364,1.7353,0
16300,-1.87348,-0.926851,1.73333,0
16320,-1.8763,-0.927387,1.73506,0
16340,-1.88095,-0.926421,1.73878,0
16360,-1.88898,-0.923496,1.74903,0
16380,-1.89187,-0.92105,1.75368,0
16400,-1.89121,-0.919515,1.75354,0
16420,-1.88878,-0.918648,1.75208,0
16440,-1.88567,-0.917688,1.75206,0
16460,-1.8816,-0.916928,1.75127,0
16480,-1.8775,-0.917715,1.74919,0
16500,-1.87301,-0.918543,1.74737,0
16520,-1.86801,-0.917823,1.74491,0
16540,-1.86275,-0.91671,1.74181,0
16560,-1.85703,-0.915355,1.73872,0
16580,-1.8518,-0.914499,1.73657,0
16600,-1.85067,-0.914957,1.73911,0
16620,-1.85102,-0.915623,1.74431,0
16640,-1.85329,-0.916367,1.75006,0
16660,-1.85512,-0.916791,1.7529,0
16680,-1.85542,-0.91714,1.75595,0
16700,-1.85519,-0.91687,1.75909,0
16720,-1.85488,-0.916891,1.76124,0
16740,-1.85615,-0.917714,1.76489,0
16760,-1.85748,-0.916709,1.76904,0
16780,-1.85645,-0.913657,1.77161,0
16800,-1.85535,-0.910943,1.77467,0
16820,-1.85585,-0.908606,1.7798,0
16840,-1.85706,-0.907428,1.78557,0
16860,-1.85943,-0.906813,1.79222,0
16880,-1.86221,-0.906374,1.79801,0
16900,-1.86565,-0.907726,1.80238,0
16920,-1.86891,-0.910127,1.80567,0
16940,-1.87255,-0.912834,1.80915,0
16960,-1.87855,-0.915383,1.81435,0
16980,-1.88511,-0.917258,1.82084,0
17000,-1.89256,-0.918721,1.82676,0
17020,-1.89898,-0.920583,1.83047,0
17040,-1.9029,-0.922133,1.83121,0
17060,-1.90672,-0.924121,1.8315,0
17080,-1.91098,-0.925249,1.8326,0
17100,-1.9154,-0.926548,1.83512,0
17120,-1.91975,-0.928147,1.83822,0
17140,-1.92424,-0.93013,1.84173,0
17160,-1.9279,-0.930947,1.8455,0
17180,-1.93215,-0.932352,1.84985,0
17200,-1.93564,-0.932814,1.85381,0
17220,-1.94063,-0.93311,1.85971,0
17240,-1.94301,-0.931331,1.86616,0
17280,-1.94588,-0.933277,1.88116,0
17300,-1.94883,-0.936143,1.88895,0
17320,-1.95217,-0.940246,1.89723,0
17340,-1.95575,-0.947047,1.90514,0
17360,-1.95754,-0.953531,1.91215,0
17380,-1.95769,-0.957036,1.91929,0
17410,-1.95106,-0.965392,1.9176,0
17430,-1.9441,-0.966982,1.91408,0
17450,-1.93772,-0.966497,1.91213,0
17470,-1.93352,-0.967122,1.91128,0
17510,-1.93392,-0.970313,1.91612,0
17530,-1.93607,-0.974927,1.92018,0
17560,-1.93495,-0.978366,1.91988,0
17580,-1.93286,-0.980542,1.91915,0
17600,-1.93193,-0.98284,1.91913,0
17620,-1.93258,-0.98428,1.92059,0
17640,-1.93374,-0.984782,1.92265,0
17660,-1.93541,-0.984676,1.92486,0
17670,-1.93824,-0.984313,1.92832,0
17700,-1.95281,-0.983977,1.94694,0
17720,-1.95673,-0.98391,1.95069,0
17740,-1.96303,-0.984517,1.9568,0
17760,-1.97081,-0.985358,1.9654,0
17770,-1.97877,-0.98568,1.97381,0
17790,-1.98337,-0.984932,1.97949,0
17810,-1.98825,-0.984887,1.985,0
17830,-1.99451,-0.984438,1.99154,0
17850,-2.00076,-0.982522,1.99841,0
17880,-2.03521,-0.973203,2.04343,0
17900,-2.04807,-0.969554,2.05901,0
17920,-2.0593,-0.96779,2.07114,0
17930,-2.06778,-0.96716,2.07809,0
17950,-2.07326,-0.968357,2.08004,0
17970,-2.0753,-0.9706,2.07801,0
17990,-2.07396,-0.973272,2.07243,0
18010,-2.07165,-0.975978,2.06515,0
18030,-2.0671,-0.979467,2.05573,0
18050,-2.06103,-0.983092,2.04525,0
18070,-2.05359,-0.98695,2.03439,0
18100,-2.03699,-0.993619,2.01295,0
18130,-2.02253,-0.998576,1.99761,0
18160,-2.01264,-1.00027,1.98619,0
18170,-2.00537,-0.998176,1.97846,0
18180,-2.0044,-0.996617,1.9774,0
18200,-2.00424,-0.994731,1.97741,0
18220,-2.00457,-0.993281,1.9772,0
18240,-2.00591,-0.991464,1.97844,0
18260,-2.00871,-0.990201,1.98169,0
18280,-2.01363,-0.989532,1.98768,0
18290,-2.02885,-0.988406,2.00561,0
18310,-2.0364,-0.988149,2.01532,0
18310,-2.04211,-0.987279,2.0239,0
18330,-2.04563,-0.986461,2.02977,0
18350,-2.04618,-0.982592,2.03112,0
18380,-2.0451,-0.976059,2.03066,0
18410,-2.04773,-0.972888,2.03301,0
18430,-2.04867,-0.973013,2.03394,0
18440,-2.05402,-0.973872,2.04155,0
18460,-2.05808,-0.972853,2.04634,0
18460,-2.06267,-0.972118,2.05174,0
18480,-2.06776,-0.970668,2.05774,0
18500,-2.08797,-0.963755,2.08299,0
18520,-2.0964,-0.9613,2.09332,0
18540,-2.10547,-0.957826,2.10439,0
18560,-2.11336,-0.954395,2.11463,0
18560,-2.128,-0.948581,2.13307,0
18560,-2.1336,-0.946,2.14004,0
18570,-2.14125,-0.941601,2.14897,0
18590,-2.14684,-0.940123,2.15338,0
18590,-2.15132,-0.937563,2.15604,0
18610,-2.15217,-0.937145,2.15572,0
18620,-2.15149,-0.937757,2.15367,0
18640,-2.15085,-0.938708,2.15085,0
18680,-2.15082,-0.940187,2.14556,0
18710,-2.12275,-0.977426,2.08348,0
18710,-2.08434,-0.996733,2.03547,0
18730,-2.06167,-1.00809,2.00892,0
18750,-2.04006,-1.01751,1.98415,0
18770,-2.02038,-1.02305,1.96218,0
18790,-1.98051,-1.02225,1.92464,0
18810,-1.96083,-1.01906,1.90511,0
18830,-1.94069,-1.0152,1.88593,0
18850,-1.92717,-1.01116,1.87526,0
18880,-1.9096,-1.00537,1.86411,0
18900,-1.90445,-1.00356,1.86237,0
18920,-1.90045,-1.00134,1.86331,0
18940,-1.89115,-0.994983,1.86657,0
18960,-1.87946,-0.988913,1.86766,0
18980,-1.87433,-0.986622,1.8683,0
19000,-1.87096,-0.984778,1.87042,0
19040,-1.86187,-0.981028,1.87288,0
19080,-1.86186,-0.975351,1.882,0
19090,-1.86293,-0.974757,1.88343,0
19110,-1.86496,-0.974122,1.88573,0
19130,-1.86725,-0.97359,1.88839,0
19150,-1.86902,-0.973355,1.89033,0
19170,-1.87526,-0.975,1.89513,0
19190,-1.87815,-0.975643,1.8972,0
19210,-1.88143,-0.976995,1.89948,0
19230,-1.88479,-0.978228,1.90175,0
19250,-1.90909,-0.983029,1.9191,0
19270,-1.91323,-0.983606,1.92197,0
19270,-1.92712,-0.984418,1.93424,0
19290,-1.93012,-0.984412,1.93634,0
19310,-1.93559,-0.984221,1.94046,0
19330,-1.93974,-0.983892,1.94262,0
19350,-1.94323,-0.982328,1.94323,0
19370,-1.94409,-0.982123,1.94238,0
19390,-1.94547,-0.981727,1.94214,0
19430,-1.95054,-0.980354,1.94513,0
19480,-1.94797,-0.97954,1.93741,0
19500,-1.94697,-0.979889,1.93723,0
19540,-1.95407,-0.980056,1.9511,0
19560,-1.95839,-0.980025,1.95379,0
19580,-1.96394,-0.981452,1.95438,0
19590,-1.97038,-0.983166,1.95504,0
19600,-2.03957,-1.01055,2.00014,0
19610,-2.05504,-1.02208,2.01441,0
19630,-2.06767,-1.03356,2.02559,0
19650,-2.07075,-1.0447,2.02703,0
19670,-2.0623,-1.05749,2.01785,0
19690,-2.0422,-1.07035,1.99684,0
19710,-2.01018,-1.08117,1.96169,0
19730,-1.9677,-1.08786,1.91676,0
19750,-1.91554,-1.09132,1.86346,0
19770,-1.85354,-1.09389,1.80121,0
19790,-1.78224,-1.09487,1.72992,0
19810,-1.69965,-1.0913,1.64855,0
19830,-1.60783,-1.0829,1.56077,0
19850,-1.50308,-1.06597,1.46528,0
19870,-1.38849,-1.03861,1.3646,0
19890,-1.26566,-0.997422,1.25936,0
19910,-1.14422,-0.942043,1.16146,0
19930,-1.03164,-0.874279,1.07444,0
19950,-0.932234,-0.794362,0.99939,0
19960,-0.847541,-0.706167,0.937879,0
19980,-0.774163,-0.614162,0.890316,0
20000,-0.708821,-0.520796,0.857884,0
20020,-0.651563,-0.42684,0.839488,0
20040,-0.602322,-0.336952,0.830762,0
20060,-0.558978,-0.257613,0.824117,0
20080,-0.525716,-0.187371,0.817589,0
20100,-0.505847,-0.121744,0.817993,0
20120,-0.496805,-0.06539,0.825164,0
20140,-0.501082,-0.0193781,0.834624,0
20160,-0.509415,0.0217487,0.845835,0
20180,-0.513953,0.0543689,0.860502,0
20200,-0.507695,0.0784367,0.874542,0
20220,-0.500889,0.0995003,0.88684,0
20240,-0.503238,0.120483,0.900031,0
20260,-0.515706,0.139194,0.910364,0
20280,-0.528698,0.165883,0.92404,0
20300,-0.532511,0.184109,0.938296,0
20320,-0.532124,0.194709,0.941808,0
20340,-0.533422,0.217911,0.947814,0
20360,-0.531639,0.245402,0.948666,0
20380,-0.530954,0.268352,0.938031,0
20400,-0.537059,0.287588,0.922652,0
20420,-0.539833,0.300549,0.908407,0
20440,-0.536501,0.315832,0.898227,0
20460,-0.527568,0.331015,0.890153,0
20480,-0.515326,0.351227,0.889484,0
20500,-0.50951,0.373285,0.888831,0
20520,-0.512894,0.395961,0.884617,0
20540,-0.524806,0.415078,0.877439,0
20560,-0.533542,0.425469,0.8719,0
20580,-0.530865,0.42462,0.871421,0
20600,-0.522904,0.418739,0.869783,0
20620,-0.518722,0.415302,0.867244,0
20640,-0.514608,0.413766,0.865281,0
20660,-0.509146,0.416649,0.863495,0
20680,-0.501875,0.421855,0.862345,0
20700,-0.495263,0.4251,0.861344,0
20720,-0.494348,0.426504,0.859861,0
20740,-0.498959,0.427178,0.859151,0
20760,-0.504139,0.427688,0.859124,0
20780,-0.506828,0.429015,0.859101,0
20800,-0.505443,0.431289,0.858836,0
20820,-0.502386,0.433942,0.858149,0
20840,-0.500158,0.435807,0.856774,0
20860,-0.499251,0.436753,0.854828,0
20880,-0.498332,0.436727,0.852922,0
20900,-0.496798,0.436664,0.851369,0
20920,-0.494463,0.436533,0.850304,0
20940,-0.492058,0.436642,0.849725,0
20960,-0.490071,0.436594,0.849194,0
20980,-0.488602,0.43677,0.848593,0
21000,-0.487104,0.436944,0.848452,0
21020,-0.485728,0.437565,0.848234,0
21040,-0.485636,0.437832,0.848382,0
21060,-0.48552,0.438046,0.848328,0
21080,-0.485392,0.438301,0.848438,0
21100,-0.484616,0.439146,0.848397,0
21120,-0.484525,0.439413,0.848547,0
21140,-0.484346,0.439468,0.848548,0
21160,-0.483967,0.44009,0.848513,0
21180,-0.483105,0.440722,0.848327,0
21200,-0.482078,0.441149,0.848245,0
21220,-0.48119,0.441636,0.848154,0
21240,-0.480542,0.442228,0.848008,0
21260,-0.480566,0.442934,0.847583,0
21300,-0.4813,0.444556,0.846821,0
21320,-0.481248,0.444711,0.846978,0
21340,-0.481132,0.444925,0.846925,0
21360,-0.480525,0.445404,0.846788,0
21380,-0.479916,0.445656,0.846417,0
21400,-0.479191,0.446123,0.845994,0
21420,-0.478308,0.446484,0.845876,0
21440,-0.478268,0.446598,0.84587,0
21460,-0.478176,0.446867,0.846022,0
21480,-0.477998,0.446922,0.846025,0
21500,-0.477882,0.447136,0.845973,0
21520,-0.476913,0.447065,0.845972,0
21540,-0.475895,0.447375,0.846364,0
21560,-0.474615,0.448542,0.846753,0
21580,-0.473378,0.449601,0.84765,0
21600,-0.472892,0.450546,0.848276,0
21620,-0.473292,0.451564,0.848655,0
21640,-0.474353,0.452511,0.848678,0
21660,-0.475251,0.452899,0.848533,0
21680,-0.475121,0.452927,0.848412,0
21700,-0.475081,0.453042,0.848406,0
21720,-0.47485,0.453251,0.848569,0
21740,-0.474506,0.45332,0.848412,0
21760,-0.474259,0.453337,0.848005,0
21780,-0.474083,0.453601,0.847412,0
21790,-0.47344,0.453842,0.847007,0
21810,-0.473021,0.454356,0.846744,0
21830,-0.472794,0.454438,0.846873,0
21850,-0.472754,0.454552,0.846868,0
21870,-0.472714,0.454666,0.846863,0
21890,-0.472622,0.454936,0.847017,0
21910,-0.472483,0.454876,0.847027,0
21930,-0.472368,0.45509,0.846977,0
21950,-0.472328,0.455205,0.846972,0
21970,-0.472315,0.455245,0.847137,0
21990,-0.471431,0.455609,0.847029,0
22010,-0.470534,0.455787,0.84685,0
22030,-0.469637,0.455966,0.846671,0
22040,-0.468477,0.455986,0.846348,0
22060,-0.467593,0.456125,0.846006,0
22080,-0.466661,0.45629,0.84579,0
22100,-0.466648,0.456331,0.845955,0
22120,-0.466608,0.456445,0.84595,0
22140,-0.46643,0.456501,0.845955,0
22160,-0.466377,0.456655,0.846116,0
22180,-0.466199,0.45671,0.846121,0
22200,-0.466159,0.456825,0.846116,0
22220,-0.466123,0.45681,0.846077,0
22240,-0.46612,0.457165,0.846348,0
22260,-0.46612,0.457165,0.846348,0
22280,-0.465981,0.457105,0.846358,0
22300,-0.465928,0.45726,0.846519,0
22320,-0.465789,0.457201,0.846529,0
22340,-0.465571,0.45737,0.846529,0
22360,-0.465568,0.45795,0.847039,0
22380,-0.465297,0.458499,0.847438,0
22400,-0.465257,0.458614,0.847433,0
22420,-0.465168,0.458754,0.847555,0
22440,-0.465168,0.458754,0.847555,0
22460,-0.464424,0.459178,0.847443,0
22480,-0.463858,0.459548,0.847326,0
22500,-0.463091,0.459699,0.847273,0
22550,-0.462873,0.459869,0.847274,0
22570,-0.462819,0.460024,0.847436,0
22590,-0.462535,0.460608,0.847502,0
22610,-0.462741,0.461495,0.84782,0
22630,-0.462952,0.462253,0.848103,0
22650,-0.463162,0.463012,0.848386,0
22670,-0.46365,0.46389,0.848649,0
22690,-0.463669,0.464519,0.848866,0
22710,-0.463491,0.464574,0.848873,0
22730,-0.463477,0.464615,0.849038,0
22750,-0.463298,0.46467,0.849045,0
22770,-0.463298,0.46467,0.849045,0
22790,-0.462885,0.465059,0.848755,0
22810,-0.462732,0.465039,0.848931,0
22830,-0.462692,0.465154,0.848927,0
22850,-0.462514,0.465209,0.848934,0
22890,-0.462321,0.465305,0.849106,0
22910,-0.462281,0.46542,0.849102,0
22930,-0.462142,0.46536,0.849113,0
22950,-0.462066,0.465459,0.84907,0
22970,-0.462013,0.465615,0.849232,0
22990,-0.461973,0.46573,0.849228,0
23010,-0.461834,0.46567,0.849239,0
23030,-0.461794,0.465785,0.849235,0
23050,-0.461602,0.46588,0.849408,0
23070,-0.461602,0.46588,0.849408,0
23090,-0.461423,0.465935,0.849414,0
23110,-0.460914,0.465801,0.849365,0
23130,-0.460379,0.465742,0.849147,0
23150,-0.460379,0.465742,0.849147,0
23170,-0.460339,0.465857,0.849143,0
23190,-0.460339,0.465857,0.849143,0
23210,-0.46016,0.465912,0.84915,0
23230,-0.46016,0.465912,0.84915,0
23250,-0.460146,0.465952,0.849316,0
23270,-0.460106,0.466067,0.849313,0
23290,-0.459967,0.466007,0.849323,0
23310,-0.459927,0.466122,0.84932,0
23330,-0.459927,0.466122,0.84932,0
23350,-0.459789,0.466062,0.84933,0
23370,-0.459699,0.466202,0.849453,0
23390,-0.45952,0.466257,0.84946,0
23410,-0.459556,0.466273,0.849499,0
23430,-0.459417,0.466213,0.84951,0
23450,-0.459364,0.466368,0.849672,0
23470,-0.459225,0.466308,0.849683,0
23490,-0.459225,0.466308,0.849683,0
23510,-0.459046,0.466363,0.84969,0
23530,-0.458853,0.466458,0.849863,0
23550,-0.458853,0.466458,0.849863,0
23590,-0.458675,0.466514,0.84987,0
23610,-0.458675,0.466514,0.84987,0
23630,-0.458482,0.466609,0.850043,0
23650,-0.458482,0.466609,0.850043,0
23670,-0.458482,0.466609,0.850043,0
23690,-0.458267,0.466648,0.85001,0
23710,-0.458267,0.466648,0.85001,0
23730,-0.458227,0.466763,0.850007,0
23750,-0.458111,0.466759,0.850223,0
23770,-0.457972,0.466699,0.850233,0
23790,-0.458172,0.467143,0.85041,0
23810,-0.458309,0.467427,0.850639,0
23830,-0.45865,0.467706,0.850565,0
23850,-0.458511,0.467646,0.850576,0
23870,-0.458457,0.467802,0.850739,0
23890,-0.458318,0.467742,0.850749,0
23910,-0.458318,0.467742,0.850749,0
23930,-0.458139,0.467797,0.850756,0
23950,-0.458139,0.467797,0.850756,0
23970,-0.458139,0.467797,0.850756,0
23990,-0.458125,0.467837,0.850923,0
24010,-0.457946,0.467892,0.85093,0
24050,-0.457808,0.467832,0.85094,0
24070,-0.457808,0.467832,0.85094,0
24090,-0.457768,0.467947,0.850937,0
24110,-0.457629,0.467887,0.850948,0
24130,-0.457615,0.467927,0.851114,0
24150,-0.457575,0.468042,0.851111,0
24170,-0.457436,0.467982,0.851121,0
24190,-0.457436,0.467982,0.851121,0
24210,-0.457396,0.468097,0.851118,0
24230,-0.457257,0.468037,0.851129,0
24250,-0.457243,0.468077,0.851295,0
24310,-0.457064,0.468132,0.851302,0
24330,-0.456886,0.468187,0.85131,0
24350,-0.456886,0.468187,0.85131,0
24370,-0.456769,0.468183,0.851526,0
24390,-0.45663,0.468123,0.851536,0
24410,-0.45659,0.468238,0.851533,0
24430,-0.456451,0.468178,0.851544,0
24450,-0.456451,0.468178,0.851544,0
24470,-0.456397,0.468333,0.851707,0
24490,-0.456397,0.468333,0.851707,0
24510,-0.456218,0.468388,0.851714,0
24530,-0.45608,0.468328,0.851725,0
24540,-0.45608,0.468328,0.851725,0
24560,-0.455887,0.468423,0.851899,0
24580,-0.455887,0.468423,0.851899,0
24600,-0.455748,0.468363,0.851909,0
24620,-0.455748,0.468363,0.851909,0
24640,-0.455569,0.468418,0.851917,0
24660,-0.455555,0.468459,0.852083,0
24680,-0.455416,0.468398,0.852093,0
24700,-0.455416,0.468398,0.852093,0
24720,-0.455238,0.468453,0.852101,0
24740,-0.455238,0.468453,0.852101,0
24760,-0.455085,0.468433,0.852278,0
24780,-0.455045,0.468549,0.852275,0
24800,-0.454906,0.468488,0.852285,0
24820,-0.454866,0.468603,0.852283,0
24840,-0.454727,0.468543,0.852293,0
24860,-0.454575,0.468523,0.85247,0
24880,-0.454575,0.468523,0.85247,0
24900,-0.454396,0.468578,0.852477,0
24920,-0.454432,0.468594,0.852517,0
24940,-0.454293,0.468534,0.852527,0
24960,-0.454293,0.468534,0.852527,0
24970,-0.45414,0.468514,0.852704,0
24990,-0.454002,0.468454,0.852714,0
25010,-0.452313,0.468165,0.853116,0
25030,-0.452134,0.46822,0.853124,0
25040,-0.452134,0.46822,0.853124,0
25060,-0.452134,0.46822,0.853124,0
25080,-0.451995,0.46816,0.853135,0
25100,-0.451955,0.468275,0.853132,0
25120,-0.451803,0.468255,0.853309,0
25140,-0.4517,0.46821,0.853359,0
25160,-0.45166,0.468325,0.853357,0
25180,-0.451521,0.468265,0.853367,0
25200,-0.451507,0.468305,0.853533,0
25220,-0.451328,0.46836,0.853541,0
25240,-0.450439,0.468285,0.853805,0
25250,-0.45026,0.46834,0.853813,0
25270,-0.45026,0.46834,0.853813,0
25290,-0.450108,0.46832,0.85399,0
25310,-0.450067,0.468435,0.853988,0
25330,-0.449929,0.468375,0.853998,0
25350,-0.449889,0.46849,0.853996,0
25370,-0.44975,0.46843,0.854006,0
25390,-0.449736,0.46847,0.854173,0
25410,-0.449557,0.468525,0.854181,0
25430,-0.449419,0.468464,0.854191,0
25450,-0.449379,0.46858,0.854189,0
25470,-0.449226,0.468559,0.854366,0
25490,-0.448621,0.46825,0.854331,0
25530,-0.446311,0.467155,0.854513,0
25550,-0.445088,0.466578,0.854608,0
25570,-0.44384,0.466077,0.854536,0
25590,-0.442514,0.465585,0.854219,0
25610,-0.440934,0.465248,0.85387,0
25630,-0.439358,0.464784,0.853984,0
25650,-0.438368,0.464223,0.854648,0
25670,-0.438654,0.463953,0.855513,0
25690,-0.440798,0.464326,0.857617,0
25710,-0.445722,0.465579,0.860282,0
25730,-0.455242,0.467051,0.864922,0
25740,-0.468771,0.468832,0.871647,0
25760,-0.488529,0.473564,0.878128,0
25780,-0.519026,0.47991,0.885783,0
25800,-0.555071,0.485168,0.896622,0
25820,-0.591196,0.492166,0.908008,0
25840,-0.623728,0.498368,0.918272,0
25860,-0.655892,0.506029,0.926594,0
25880,-0.681359,0.514621,0.936609,0
25900,-0.698891,0.521894,0.947934,0
25920,-0.712541,0.527759,0.958495,0
25940,-0.724402,0.531144,0.966709,0
25960,-0.735306,0.533816,0.971169,0
25980,-0.744472,0.535771,0.97161,0
26000,-0.752984,0.535696,0.969746,0
26020,-0.757764,0.536361,0.967453,0
26040,-0.755707,0.537128,0.963958,0
26060,-0.748699,0.534801,0.959857,0
26080,-0.742141,0.530607,0.957584,0
26100,-0.734914,0.527518,0.95762,0
26120,-0.730687,0.525397,0.95716,0
26140,-0.732993,0.523876,0.956906,0
26160,-0.743169,0.520403,0.955324,0
26180,-0.757774,0.516294,0.954519,0
26200,-0.77446,0.514136,0.954328,0
26220,-0.79146,0.510664,0.954682,0
26240,-0.81154,0.50493,0.954886,0
26260,-0.831743,0.495783,0.954724,0
26280,-0.846933,0.484248,0.955521,0
26300,-0.856307,0.472365,0.957382,0
26320,-0.859951,0.459834,0.959019,0
26340,-0.859139,0.446348,0.956332,0
26360,-0.856726,0.431901,0.952338,0
26380,-0.853056,0.416695,0.947707,0
26400,-0.847009,0.400563,0.939407,0
26420,-0.841331,0.383735,0.927166,0
26440,-0.833649,0.365513,0.913161,0
26460,-0.822529,0.345411,0.898346,0
26480,-0.809204,0.323202,0.882072,0
26500,-0.794633,0.299706,0.865025,0
26520,-0.780111,0.274785,0.849768,0
26540,-0.768287,0.248266,0.833234,0
26560,-0.755519,0.224233,0.816713,0
26580,-0.742863,0.201898,0.80103,0
26600,-0.730374,0.181698,0.787024,0
26620,-0.718826,0.166505,0.772826,0
26640,-0.70704,0.15577,0.758574,0
26660,-0.694935,0.150254,0.744317,0
26660,-0.682957,0.14877,0.731635,0
26680,-0.672757,0.149168,0.720916,0
26700,-0.663949,0.149793,0.711465,0
26720,-0.656774,0.149854,0.702835,0
26740,-0.650455,0.149517,0.696242,0
26760,-0.640401,0.145554,0.692158,0
26780,-0.63308,0.139936,0.692963,0
26810,-0.625805,0.136558,0.697924,0
26840,-0.620906,0.134152,0.709859,0
26860,-0.673412,0.138533,0.789975,0
26880,-0.723953,0.157061,0.826468,0
26900,-0.75897,0.17058,0.860428,0
26920,-0.789239,0.179485,0.895688,0
26930,-0.822424,0.190924,0.936129,0
26950,-0.864896,0.202249,0.981442,0
26970,-0.917133,0.217533,1.02912,0
26990,-0.974186,0.236047,1.07534,0
27010,-1.03428,0.254635,1.12139,0
27030,-1.09588,0.273512,1.1642,0
27050,-1.15422,0.294905,1.19988,0
27070,-1.21033,0.316627,1.23077,0
27090,-1.2674,0.339099,1.25589,0
27110,-1.32216,0.362957,1.27199,0
27140,-1.41329,0.399008,1.2805,0
27160,-1.45011,0.409675,1.27473,0
27180,-1.47487,0.420855,1.26449,0
27200,-1.49585,0.428431,1.25097,0
27220,-1.51221,0.432974,1.23476,0
27240,-1.52214,0.435284,1.21435,0
27260,-1.52583,0.437129,1.19218,0
27280,-1.52411,0.437787,1.1684,0
27300,-1.51465,0.437439,1.14335,0
27320,-1.49554,0.435587,1.11678,0
27340,-1.46998,0.432232,1.08439,0
27360,-1.43154,0.425951,1.04722,0
27380,-1.38514,0.417568,1.00413,0
27400,-1.33396,0.40858,0.952068,0
27400,-1.28125,0.400109,0.89259,0
27420,-1.23184,0.394864,0.825695,0
27440,-1.18819,0.393562,0.753506,0
27460,-1.14691,0.393939,0.681158,0
27500,-1.00507,0.421927,0.478103,0
27510,-0.931536,0.433202,0.456572,0
27530,-0.912473,0.434307,0.464607,0
27550,-0.895828,0.447756,0.472829,0
27570,-0.856392,0.464481,0.524972,0
27590,-0.844407,0.465991,0.569989,0
27610,-0.83876,0.48287,0.614799,0
27630,-0.83054,0.503882,0.661101,0
27650,-0.819983,0.520557,0.711973,0
27670,-0.814937,0.530521,0.765261,0
27690,-0.826907,0.545581,0.815995,0
27710,-0.851231,0.560769,0.859616,0
27730,-0.888075,0.568473,0.896699,0
27750,-0.928699,0.563513,0.923513,0
27770,-0.959542,0.546197,0.939995,0
27790,-0.961487,0.523295,0.95838,0
27810,-0.948132,0.499912,0.975201,0
27830,-0.929887,0.478827,0.988409,0
27850,-0.912999,0.459887,0.99716,0
27870,-0.900116,0.445737,1.00277,0
27890,-0.891965,0.439413,1.00588,0
27910,-0.886115,0.432698,1.00328,0
27930,-0.87947,0.426331,1.00005,0
27950,-0.870074,0.422996,0.995597,0
27970,-0.854794,0.423709,0.989156,0
27990,-0.834959,0.425757,0.982473,0
28010,-0.812145,0.42985,0.976484,0
28030,-0.786225,0.436314,0.968815,0
28050,-0.758049,0.44576,0.958757,0
28070,-0.731201,0.45879,0.946184,0
28090,-0.706693,0.474557,0.930122,0
28110,-0.684913,0.49444,0.910544,0
28130,-0.669856,0.513801,0.885452,0
28150,-0.66165,0.519075,0.856964,0
28170,-0.65664,0.508228,0.830639,0
28190,-0.653408,0.494549,0.809688,0
28210,-0.657176,0.480303,0.794925,0
28230,-0.660124,0.468791,0.784847,0
28250,-0.657685,0.464239,0.781783,0
28270,-0.650461,0.467112,0.786234,0
28290,-0.642056,0.470482,0.794259,0
28310,-0.636784,0.472048,0.802449,0
28330,-0.639202,0.471866,0.808491,0
28350,-0.647446,0.470312,0.812379,0
28370,-0.655268,0.468616,0.815011,0
28390,-0.657358,0.467707,0.816983,0
28410,-0.653077,0.468642,0.819273,0
28430,-0.646029,0.470509,0.821758,0
28450,-0.6405,0.471662,0.823033,0
28470,-0.63776,0.47172,0.823455,0
28490,-0.637169,0.470992,0.823085,0
28510,-0.636423,0.469819,0.822824,0
28530,-0.634962,0.468968,0.822889,0
28550,-0.632975,0.468213,0.823104,0
28570,-0.630947,0.46762,0.823466,0
28590,-0.629775,0.467078,0.823532,0
28610,-0.629129,0.466441,0.823447,0
28630,-0.628829,0.466147,0.823101,0
28650,-0.62853,0.465852,0.822755,0
28670,-0.628784,0.466046,0.822214,0
28690,-0.628776,0.466566,0.821792,0
28740,-0.629692,0.467764,0.820248,0
28760,-0.629874,0.467798,0.819773,0
28780,-0.629798,0.467723,0.819355,0
28800,-0.629649,0.467664,0.819362,0
28820,-0.62953,0.467666,0.819574,0
28840,-0.629174,0.467635,0.819875,0
28860,-0.629024,0.467576,0.819883,0
28880,-0.628915,0.467528,0.819931,0
28900,-0.628906,0.467577,0.820095,0
28920,-0.628757,0.467518,0.820102,0
28940,-0.628573,0.467571,0.820092,0
28960,-0.628138,0.467814,0.820522,0
28980,-0.627916,0.468327,0.821043,0
29000,-0.627987,0.468835,0.821525,0
29020,-0.628366,0.469413,0.821829,0
29040,-0.62859,0.469808,0.822117,0
29060,-0.628855,0.470215,0.822446,0
29080,-0.629269,0.470681,0.822767,0
29100,-0.631169,0.471292,0.823603,0
29120,-0.633812,0.471498,0.826278,0
29140,-0.637011,0.471501,0.830473,0
29160,-0.642777,0.471563,0.835254,0
29180,-0.650765,0.470919,0.840984,0
29200,-0.655854,0.464998,0.84301,0
29220,-0.655504,0.448577,0.830266,0
29240,-0.642078,0.423816,0.804209,0
29260,-0.607107,0.400274,0.777472,0
29280,-0.567528,0.375998,0.751778,0
29300,-0.520747,0.348489,0.720545,0
29320,-0.480875,0.32223,0.678337,0
29340,-0.462515,0.297206,0.628772,0
29360,-0.456409,0.275522,0.576231,0
29370,-0.456403,0.249892,0.533524,0
29390,-0.450805,0.211246,0.505735,0
29410,-0.433944,0.162681,0.485953,0
29430,-0.401934,0.10687,0.472593,0
29450,-0.374189,0.0427591,0.460304,0
29470,-0.364793,-0.0271417,0.452024,0
29490,-0.367688,-0.102871,0.447338,0
29510,-0.371497,-0.185098,0.446225,0
29530,-0.369836,-0.272657,0.447865,0
29550,-0.360342,-0.365682,0.447951,0
29570,-0.347141,-0.462168,0.447276,0
29590,-0.337176,-0.5578,0.449662,0
29610,-0.332513,-0.650498,0.458017,0
29630,-0.332918,-0.737929,0.470828,0
29650,-0.339985,-0.819476,0.491183,0
29670,-0.35782,-0.893433,0.520721,0
29690,-0.38607,-0.960143,0.561231,0
29710,-0.424105,-1.01923,0.609705,0
29730,-0.472546,-1.06995,0.666252,0
29750,-0.526586,-1.11363,0.727986,0
29770,-0.583586,-1.15071,0.792154,0
29790,-0.646441,-1.17922,0.856686,0
29810,-0.709712,-1.20537,0.919693,0
29830,-0.767855,-1.22706,0.977866,0
29850,-0.817852,-1.24383,1.02828,0
29870,-0.854425,-1.25483,1.0664,0
29890,-0.872791,-1.26227,1.08852,0
29910,-0.874682,-1.26606,1.09529,0
29930,-0.862785,-1.26549,1.08717,0
29950,-0.835653,-1.26066,1.06337,0
29970,-0.796097,-1.25116,1.02779,0
29990,-0.745004,-1.23543,0.981902,0
30010,-0.687626,-1.21399,0.9301,0
30030,-0.625382,-1.18266,0.872485,0
30050,-0.563942,-1.14444,0.813982,0
30070,-0.505252,-1.09831,0.756102,0
30090,-0.454883,-1.04348,0.705791,0
30110,-0.415401,-0.9786,0.666306,0
30130,-0.387939,-0.905829,0.639079,0
30150,-0.375061,-0.827817,0.621826,0
30170,-0.371683,-0.74155,0.608848,0
30190,-0.376839,-0.648259,0.602186,0
30210,-0.3901,-0.549593,0.602311,0
30230,-0.399964,-0.445323,0.61048,0
30250,-0.40117,-0.340197,0.623819,0
30270,-0.392177,-0.234889,0.632759,0
30290,-0.378426,-0.118685,0.638754,0
30310,-0.365979,-0.00413058,0.64745,0
30330,-0.373661,0.0889141,0.653992,0
30350,-0.404343,0.162059,0.658557,0
30370,-0.431682,0.224591,0.663419,0
30390,-0.437613,0.272867,0.668498,0
30410,-0.425588,0.312592,0.672214,0
30430,-0.410306,0.34582,0.677144,0
30450,-0.402298,0.375734,0.683526,0
30470,-0.405191,0.406607,0.688268,0
30490,-0.430334,0.433007,0.689671,0
30510,-0.446389,0.427,0.698559,0
30530,-0.46708,0.400054,0.697712,0
30550,-0.482079,0.38493,0.704041,0
30570,-0.490993,0.368565,0.711671,0
30590,-0.500243,0.358695,0.7198,0
30610,-0.509168,0.360374,0.730975,0
30630,-0.516553,0.373727,0.746394,0
30650,-0.523198,0.393349,0.762213,0
30670,-0.552191,0.426482,0.787076,0
30690,-0.567492,0.424585,0.790173,0
30710,-0.576734,0.413935,0.786472,0
30730,-0.576577,0.405668,0.781049,0
30750,-0.56961,0.399908,0.776016,0
30770,-0.559625,0.397311,0.7708,0
30790,-0.550132,0.397237,0.766939,0
30810,-0.542519,0.397801,0.765067,0
30830,-0.535761,0.398773,0.765227,0
30850,-0.531523,0.399453,0.766767,0
30870,-0.531449,0.400371,0.768745,0
30890,-0.533114,0.401903,0.771002,0
30910,-0.535063,0.40362,0.77263,0
30930,-0.53568,0.405642,0.773297,0
30950,-0.534876,0.407892,0.773377,0
30990,-0.531102,0.410579,0.773108,0
31010,-0.529887,0.411207,0.772961,0
31030,-0.529557,0.411878,0.772598,0
31050,-0.529192,0.412539,0.772197,0
31070,-0.528796,0.413708,0.77218,0
31090,-0.528144,0.414956,0.772238,0
31110,-0.527542,0.41657,0.772578,0
31130,-0.527322,0.416785,0.772717,0
31150,-0.527101,0.417001,0.772857,0
31170,-0.526881,0.417216,0.772996,0
31180,-0.5266,0.417492,0.772927,0
31200,-0.525564,0.418458,0.773193,0
31220,-0.524654,0.419383,0.773099,0
31240,-0.523988,0.420019,0.773036,0
31260,-0.523278,0.420812,0.773118,0
31280,-0.522451,0.421478,0.773381,0
31300,-0.52238,0.42158,0.773329,0
31320,-0.522345,0.421694,0.773317,0
31340,-0.522124,0.42191,0.773458,0
31360,-0.522044,0.42218,0.773591,0
31380,-0.521798,0.422342,0.773536,0
31400,-0.521717,0.422612,0.77367,0
31420,-0.521648,0.422841,0.773645,0
31440,-0.521391,0.423044,0.773748,0
31460,-0.52131,0.423315,0.773881,0
31480,-0.5211,0.423489,0.773866,0
31500,-0.520843,0.423692,0.773969,0
31520,-0.520809,0.423807,0.773957,0
31540,-0.520588,0.424023,0.774099,0
31560,-0.520553,0.424137,0.774087,0
31580,-0.520133,0.424754,0.774431,0
31600,-0.520006,0.425439,0.7746,0
31620,-0.520054,0.426064,0.774772,0
31640,-0.519844,0.426623,0.774673,0
31660,-0.51987,0.427448,0.774703,0
31680,-0.520046,0.42816,0.774538,0
31700,-0.520398,0.428811,0.774376,0
31720,-0.520785,0.429348,0.774225,0
31740,-0.521022,0.429999,0.77427,0
31760,-0.520976,0.430413,0.774305,0
31780,-0.520965,0.430841,0.77438,0
31800,-0.520932,0.431341,0.774285,0
31820,-0.52118,0.431951,0.774171,0
31840,-0.521146,0.432066,0.774159,0
31860,-0.52097,0.432126,0.774156,0
31880,-0.520888,0.432269,0.774264,0
31890,-0.520712,0.432329,0.774262,0
31910,-0.520678,0.432444,0.77425,0
31930,-0.520774,0.433041,0.774304,0
31950,-0.520823,0.433667,0.774478,0
31970,-0.52093,0.434094,0.774346,0
31990,-0.520884,0.434251,0.774493,0
32010,-0.520849,0.434366,0.774482,0
32030,-0.520768,0.434895,0.774507,0
32050,-0.520865,0.435493,0.774561,0
32070,-0.520831,0.435608,0.77455,0
32090,-0.52076,0.435709,0.774499,0
32110,-0.520714,0.435866,0.774647,0
32130,-0.52068,0.435981,0.774635,0
32150,-0.520645,0.436096,0.774624,0
32170,-0.520458,0.436197,0.774781,0
32190,-0.520387,0.436299,0.77473,0
32210,-0.520353,0.436414,0.774719,0
32230,-0.520318,0.436529,0.774707,0
32250,-0.520272,0.436685,0.774855,0
32270,-0.520096,0.436745,0.774853,0
32290,-0.520062,0.43686,0.774842,0
32310,-0.519979,0.437004,0.77495,0
32330,-0.52004,0.437588,0.774967,0
32350,-0.520372,0.438325,0.775123,0
32370,-0.520609,0.43885,0.775141,0
32390,-0.520538,0.438951,0.77509,0
32410,-0.520492,0.439108,0.775238,0
32430,-0.520492,0.439108,0.775238,0
32450,-0.520316,0.439168,0.775236,0
32470,-0.520281,0.439283,0.775225,0
32490,-0.520235,0.43944,0.775373,0
32510,-0.520235,0.43944,0.775373,0
32530,-0.520059,0.4395,0.775372,0
32550,-0.519988,0.439601,0.775321,0
32570,-0.519942,0.439758,0.775469,0
32590,-0.519908,0.439873,0.775458,0
32610,-0.519732,0.439933,0.775457,0
32630,-0.519686,0.44009,0.775605,0
32650,-0.51951,0.44015,0.775604,0
32670,-0.519475,0.440265,0.775593,0
32690,-0.519393,0.440408,0.775702,0
32710,-0.519393,0.440408,0.775702,0
32730,-0.519217,0.440468,0.7757,0
32750,-0.519182,0.440583,0.775689,0
32770,-0.519136,0.44074,0.775838,0
32790,-0.519136,0.44074,0.775838,0
32810,-0.51896,0.4408,0.775836,0
32830,-0.518926,0.440915,0.775825,0
32850,-0.518843,0.441058,0.775934,0
32870,-0.518809,0.441173,0.775923,0
32890,-0.518633,0.441233,0.775922,0
32910,-0.518633,0.441233,0.775922,0
32930,-0.518716,0.441745,0.77611,0
32950,-0.518953,0.442271,0.776129,0
32970,-0.5194,0.442621,0.776159,0
32990,-0.519354,0.442779,0.776308,0
33010,-0.519354,0.442779,0.776308,0
33030,-0.519178,0.442838,0.776307,0
33050,-0.519143,0.442953,0.776296,0
33070,-0.519143,0.442953,0.776296,0
33090,-0.519097,0.443111,0.776445,0
33110,-0.518955,0.443055,0.776455,0
33130,-0.518921,0.44317,0.776444,0
33150,-0.518743,0.443101,0.776414,0
33170,-0.518696,0.443258,0.776563,0
33190,-0.518662,0.443374,0.776552,0
33210,-0.518662,0.443374,0.776552,0
33230,-0.518486,0.443433,0.776551,0
33250,-0.518452,0.443548,0.776541,0
33270,-0.51844,0.44359,0.7767,0
33290,-0.518263,0.44365,0.776699,0
33310,-0.518229,0.443765,0.776689,0
33330,-0.518229,0.443765,0.776689,0
33350,-0.518183,0.443922,0.776838,0
33370,-0.518007,0.443982,0.776837,0
33390,-0.51797,0.443968,0.776797,0
33410,-0.517936,0.444083,0.776787,0
33430,-0.517782,0.44407,0.776956,0
33450,-0.517748,0.444185,0.776946,0
33470,-0.517713,0.4443,0.776935,0
33490,-0.517713,0.4443,0.776935,0
33510,-0.517679,0.444416,0.776924,0
33530,-0.517491,0.444517,0.777083,0
33550,-0.517491,0.444517,0.777083,0
33570,-0.517478,0.444817,0.777133,0
33590,-0.517737,0.44527,0.777323,0
33610,-0.517855,0.445668,0.777522,0
33650,-0.517644,0.445843,0.777511,0
33680,-0.517598,0.446,0.777661,0
33700,-0.517598,0.446,0.777661,0
33720,-0.517421,0.44606,0.77766,0
33740,-0.517421,0.44606,0.77766,0
33760,-0.517245,0.446119,0.77766,0
33780,-0.517233,0.446162,0.777819,0
33800,-0.517199,0.446277,0.777809,0
33820,-0.517199,0.446277,0.777809,0
33840,-0.517022,0.446336,0.777809,0
33860,-0.517022,0.446336,0.777809,0
33880,-0.516976,0.446494,0.777958,0
33900,-0.516976,0.446494,0.777958,0
33920,-0.5168,0.446553,0.777958,0
33940,-0.5168,0.446553,0.777958,0
33960,-0.516765,0.446669,0.777947,0
33980,-0.516575,0.446641,0.778078,0
34000,-0.51654,0.446756,0.778067,0
34020,-0.51654,0.446756,0.778067,0
34040,-0.516364,0.446816,0.778067,0
34060,-0.516364,0.446816,0.778067,0
34080,-0.516317,0.446974,0.778217,0
34100,-0.516317,0.446974,0.778217,0
34120,-0.516283,0.447089,0.778206,0
34140,-0.516141,0.447033,0.778216,0
34160,-0.516107,0.447148,0.778206,0
34180,-0.515918,0.44725,0.778366,0
34200,-0.515918,0.44725,0.778366,0
34220,-0.515894,0.447592,0.778576,0
34240,-0.516341,0.447944,0.778607,0
34260,-0.516634,0.448282,0.778807,0
34280,-0.516634,0.448282,0.778807,0
34300,-0.516458,0.448342,0.778807,0
34320,-0.516458,0.448342,0.778807,0
34340,-0.516423,0.448457,0.778797,0
34360,-0.516423,0.448457,0.778797,0
34380,-0.516411,0.448499,0.778957,0
34400,-0.516235,0.448559,0.778957,0
34410,-0.516235,0.448559,0.778957,0
34430,-0.5162,0.448674,0.778947,0
34460,-0.516012,0.448776,0.779107,0
34480,-0.516012,0.448776,0.779107,0
34500,-0.515977,0.448891,0.779097,0
34520,-0.515836,0.448835,0.779107,0
34540,-0.515801,0.44895,0.779097,0
34560,-0.515647,0.448937,0.779267,0
34580,-0.515576,0.449038,0.779217,0
34600,-0.515541,0.449153,0.779207,0
34620,-0.515399,0.449098,0.779217,0
34640,-0.515399,0.449098,0.779217,0
34660,-0.515353,0.449255,0.779367,0
34680,-0.515211,0.4492,0.779377,0
34700,-0.515176,0.449315,0.779367,0
34720,-0.515176,0.449315,0.779367,0
34740,-0.514988,0.449417,0.779528,0
34760,-0.514953,0.449532,0.779518,0
34780,-0.514953,0.449532,0.779518,0
34800,-0.514777,0.449592,0.779518,0
34820,-0.51473,0.449749,0.779668,0
34840,-0.514588,0.449693,0.779678,0
34860,-0.514554,0.449809,0.779668,0
34880,-0.514412,0.449753,0.779678,0
34900,-0.514494,0.450266,0.77987,0
34920,-0.51461,0.450664,0.780071,0
34950,-0.5144,0.450839,0.780061,0
34970,-0.514387,0.450881,0.780222,0
34990,-0.514211,0.450941,0.780222,0
35010,-0.514211,0.450941,0.780222,0
35030,-0.514211,0.450941,0.780222,0
35050,-0.514211,0.450941,0.780222,0
35070,-0.514176,0.451056,0.780212,0
35090,-0.514034,0.451,0.780222,0
35110,-0.514269,0.45114,0.780323,0
35130,-0.51408,0.451241,0.780483,0
35150,-0.514104,0.451556,0.780575,0
35170,-0.513962,0.4515,0.780585,0
35190,-0.513928,0.451615,0.780575,0
35210,-0.513566,0.451507,0.780354,0
35230,-0.512935,0.451376,0.780024,0
35250,-0.512432,0.451213,0.779813,0
35270,-0.512432,0.451213,0.779813,0
35290,-0.512397,0.451328,0.779804,0
35310,-0.512397,0.451328,0.779804,0
35330,-0.512397,0.451328,0.779804,0
35350,-0.512363,0.451443,0.779794,0
35370,-0.512221,0.451388,0.779804,0
35390,-0.512174,0.451545,0.779955,0
35410,-0.512174,0.451545,0.779955,0
35430,-0.51214,0.451661,0.779945,0
35450,-0.511998,0.451605,0.779955,0
35470,-0.511998,0.451605,0.779955,0
35490,-0.511727,0.451194,0.779924,0
35510,-0.511585,0.451138,0.779935,0
35530,-0.511409,0.451198,0.779935,0
35550,-0.511785,0.451393,0.780025,0
35570,-0.512174,0.451545,0.779955,0
35590,-0.512563,0.451698,0.779884,0
35610,-0.512563,0.451698,0.779884,0
35630,-0.512563,0.451698,0.779884,0
35650,-0.512421,0.451642,0.779895,0
35670,-0.512421,0.451642,0.779895,0
35690,-0.512245,0.451702,0.779895,0
35710,-0.512245,0.451702,0.779895,0
35730,-0.512198,0.45186,0.780046,0
35750,-0.512198,0.45186,0.780046,0
35770,-0.512056,0.451804,0.780056,0
35800,-0.512327,0.452215,0.780087,0
35820,-0.513408,0.452429,0.780066,0
35840,-0.514363,0.452676,0.779924,0
35860,-0.514849,0.452643,0.779582,0
35880,-0.514605,0.452534,0.779151,0
35900,-0.51459,0.452468,0.778629,0
35920,-0.514148,0.452235,0.778138,0
35940,-0.513975,0.452026,0.777757,0
35960,-0.514306,0.451979,0.777586,0
35980,-0.515787,0.452572,0.777715,0
36000,-0.518709,0.453648,0.777743,0
36020,-0.521223,0.455047,0.778082,0
36040,-0.522812,0.456614,0.778844,0
36060,-0.524628,0.458224,0.780664,0
36080,-0.525852,0.459269,0.783919,0
36100,-0.526516,0.459406,0.787252,0
36120,-0.528461,0.458235,0.790269,0
36140,-0.530144,0.457438,0.794255,0
36160,-0.529793,0.456407,0.797965,0
36180,-0.531014,0.451123,0.801493,0
36200,-0.527948,0.440234,0.805847,0
36220,-0.53173,0.42404,0.808521,0
36240,-0.540036,0.402482,0.807532,0
36260,-0.541916,0.374542,0.80356,0
36280,-0.54002,0.337274,0.796057,0
36300,-0.536329,0.294361,0.785448,0
36320,-0.526584,0.246064,0.775937,0
36340,-0.520225,0.197087,0.762706,0
36350,-0.517095,0.145298,0.749272,0
36370,-0.512979,0.093363,0.738559,0
36390,-0.510723,0.0489428,0.735753,0
36410,-0.514193,0.00236164,0.739909,0
36430,-0.524999,-0.0406176,0.747435,0
36450,-0.543926,-0.0703674,0.757898,0
36470,-0.568122,-0.08866,0.773112,0
36490,-0.590147,-0.0951474,0.793121,0
36510,-0.611888,-0.0891049,0.814599,0
36530,-0.630899,-0.0717271,0.828019,0
36550,-0.64964,-0.0489218,0.830338,0
36570,-0.669002,-0.027062,0.83034,0
36590,-0.680652,-0.0112371,0.830585,0
36610,-0.681099,-0.00195569,0.827939,0
36630,-0.674022,0.00383572,0.824229,0
36650,-0.662022,0.00626328,0.819904,0
36670,-0.650808,0.0070489,0.817604,0
36690,-0.643214,0.00988219,0.823299,0
36710,-0.643601,0.018072,0.830501,0
36730,-0.652148,0.0303444,0.835497,0
36750,-0.665959,0.0398061,0.838459,0
36770,-0.678819,0.0477822,0.844004,0
36790,-0.687562,0.0556808,0.85117,0
36820,-0.703693,0.0814044,0.856672,0
36840,-0.712078,0.0880055,0.857276,0
36860,-0.720316,0.0920879,0.856722,0
36870,-0.726595,0.0934135,0.858346,0
36880,-0.740057,0.0901696,0.867856,0
36900,-0.747883,0.0886551,0.876343,0
36920,-0.760667,0.087494,0.887125,0
36940,-0.774838,0.0858762,0.897986,0
36960,-0.787947,0.084586,0.91037,0
36980,-0.798957,0.0842776,0.92545,0
37000,-0.806858,0.0833288,0.940696,0
37020,-0.812364,0.0816851,0.955787,0
37040,-0.815307,0.078555,0.971877,0
37060,-0.815453,0.0745177,0.986957,0
37070,-0.817058,0.0625088,1.0062,0
37090,-0.815428,0.0563108,1.01227,0
37110,-0.812443,0.0490303,1.01331,0
37130,-0.808958,0.0408703,1.01047,0
37150,-0.802638,0.0314372,1.00529,0
37170,-0.796334,0.0193299,0.999085,0
37190,-0.791328,0.00586012,0.992573,0
37210,-0.788686,-0.00775005,0.98563,0
37230,-0.787438,-0.0202951,0.977578,0
37250,-0.785694,-0.0338814,0.969032,0
37270,-0.783138,-0.047921,0.96129,0
37290,-0.779397,-0.0599931,0.953078,0
37310,-0.776846,-0.072092,0.943155,0
37330,-0.77401,-0.0861095,0.930662,0
37350,-0.769728,-0.101785,0.917452,0
37370,-0.768396,-0.11859,0.905405,0
37390,-0.769437,-0.137623,0.894174,0
37410,-0.770872,-0.15806,0.8844,0
37430,-0.773399,-0.180502,0.876962,0
37450,-0.776786,-0.204402,0.870753,0
37470,-0.781127,-0.229964,0.866085,0
37490,-0.786312,-0.257239,0.861861,0
37510,-0.79415,-0.283893,0.857923,0
37530,-0.802797,-0.310004,0.853345,0
37550,-0.810673,-0.335637,0.848895,0
37570,-0.817213,-0.360232,0.844189,0
37590,-0.823934,-0.382371,0.840289,0
37610,-0.82998,-0.402021,0.837949,0
37630,-0.835889,-0.419389,0.837845,0
37650,-0.841616,-0.434247,0.838954,0
37670,-0.84717,-0.447857,0.840032,0
37690,-0.853373,-0.459856,0.840776,0
37710,-0.859508,-0.469236,0.842187,0
37730,-0.864963,-0.477318,0.843844,0
37750,-0.870858,-0.484412,0.846054,0
37760,-0.876801,-0.490448,0.848217,0
37780,-0.882741,-0.496233,0.851293,0
37800,-0.889451,-0.50167,0.855143,0
37820,-0.897808,-0.507647,0.858954,0
37840,-0.906486,-0.51454,0.862612,0
37860,-0.914214,-0.520828,0.866331,0
37880,-0.929456,-0.533527,0.874489,0
37900,-0.938534,-0.539885,0.879399,0
37920,-0.94776,-0.546722,0.883886,0
37940,-0.957182,-0.554219,0.888201,0
37960,-0.966742,-0.562072,0.892783,0
37980,-0.976761,-0.570533,0.898048,0
38000,-0.987178,-0.579624,0.904243,0
38020,-0.998995,-0.588091,0.911057,0
38040,-1.01132,-0.596271,0.918976,0
38060,-1.02364,-0.603149,0.927754,0
38080,-1.03577,-0.607758,0.936973,0
38100,-1.04816,-0.610231,0.946313,0
38120,-1.06137,-0.611074,0.955649,0
38140,-1.07357,-0.611251,0.964541,0
38160,-1.08454,-0.611282,0.973459,0
38180,-1.0937,-0.611423,0.981163,0
38200,-1.10177,-0.612008,0.987208,0
38220,-1.10923,-0.613008,0.992458,0
38240,-1.11585,-0.614729,0.996398,0
38260,-1.12089,-0.618182,0.999411,0
38280,-1.12497,-0.622484,1.00168,0
38300,-1.12763,-0.627408,1.00264,0
38320,-1.13065,-0.632772,1.00312,0
38340,-1.13419,-0.637946,1.00344,0
38360,-1.13735,-0.64197,1.00364,0
38380,-1.14008,-0.645763,1.00389,0
38400,-1.14222,-0.648964,1.00381,0
38420,-1.1433,-0.65177,1.00297,0
38440,-1.14475,-0.654293,1.00199,0
38460,-1.14732,-0.657699,1.00159,0
38480,-1.14978,-0.660346,1.00087,0
38500,-1.15096,-0.663216,0.999076,0
38520,-1.15166,-0.667329,0.9955,0
38540,-1.15032,-0.671712,0.989523,0
38560,-1.14627,-0.676459,0.98153,0
38580,-1.14024,-0.681442,0.972143,0
38600,-1.13267,-0.68751,0.96108,0
38620,-1.1239,-0.694665,0.947625,0
38640,-1.11331,-0.702162,0.932276,0
38660,-1.10056,-0.709856,0.915933,0
38680,-1.08451,-0.717519,0.899355,0
38700,-1.06832,-0.724112,0.886678,0
38720,-1.05793,-0.729384,0.878878,0
38740,-1.05189,-0.731155,0.872998,0
38760,-1.04742,-0.729916,0.87057,0
38780,-1.04194,-0.72489,0.86936,0
38800,-1.03544,-0.717218,0.868452,0
38820,-1.02249,-0.704984,0.867818,0
38840,-1.00622,-0.688919,0.870391,0
38860,-0.988414,-0.668829,0.874416,0
38880,-0.965067,-0.644827,0.883137,0
38900,-0.938067,-0.620359,0.894381,0
38920,-0.913293,-0.59965,0.908315,0
38940,-0.892057,-0.581178,0.926583,0
38960,-0.871711,-0.568212,0.943971,0
38980,-0.85591,-0.560718,0.962084,0
39000,-0.844401,-0.554376,0.982342,0
39020,-0.833228,-0.547318,1.00441,0
39040,-0.821873,-0.541312,1.0299,0
39060,-0.816123,-0.536357,1.05262,0
39080,-0.81664,-0.529547,1.06794,0
39100,-0.824421,-0.518895,1.07921,0
39120,-0.832139,-0.50608,1.08819,0
39140,-0.836618,-0.49608,1.09384,0
39160,-0.840365,-0.49079,1.09617,0
39180,-0.844978,-0.488315,1.09448,0
39200,-0.85035,-0.487164,1.09192,0
39220,-0.852419,-0.483488,1.08542,0
39240,-0.850872,-0.479644,1.07225,0
39260,-0.848975,-0.47434,1.0577,0
39280,-0.84771,-0.467376,1.04425,0
39300,-0.847869,-0.462021,1.03239,0
39320,-0.848212,-0.460209,1.02142,0
39330,-0.847569,-0.459194,1.01267,0
39350,-0.847204,-0.457736,1.00473,0
39370,-0.847454,-0.455503,0.998152,0
39390,-0.849393,-0.452561,0.992979,0
39410,-0.850002,-0.450291,0.988895,0
39420,-0.851205,-0.447369,0.984598,0
39440,-0.851905,-0.444521,0.978772,0
39460,-0.852982,-0.441259,0.972607,0
39480,-0.854416,-0.4365,0.966228,0
39500,-0.855473,-0.431455,0.958945,0
39520,-0.856777,-0.425881,0.952519,0
39540,-0.857167,-0.419535,0.944557,0
39560,-0.854168,-0.414316,0.936237,0
39580,-0.849263,-0.410814,0.928224,0
39600,-0.842744,-0.408156,0.920328,0
39620,-0.833428,-0.407513,0.911543,0
39640,-0.823324,-0.407523,0.903406,0
39660,-0.816654,-0.407027,0.896439,0
39680,-0.810777,-0.406303,0.889854,0
39700,-0.804076,-0.406735,0.882833,0
39720,-0.797781,-0.40727,0.875904,0
39740,-0.793087,-0.407464,0.86831,0
39760,-0.790773,-0.407968,0.861229,0
39780,-0.788202,-0.409605,0.853765,0
39800,-0.786769,-0.414419,0.846454,0
39820,-0.783501,-0.421255,0.838013,0
39840,-0.78077,-0.429431,0.82888,0
39860,-0.780463,-0.438011,0.819334,0
39880,-0.780819,-0.447375,0.809172,0
39900,-0.78013,-0.457969,0.798529,0
39920,-0.778068,-0.467346,0.787899,0
39940,-0.775886,-0.47506,0.779527,0
39960,-0.775249,-0.481608,0.775854,0
39980,-0.776362,-0.48742,0.775758,0
40000,-0.777563,-0.493938,0.776759,0
40020,-0.779458,-0.50085,0.778254,0
40040,-0.781222,-0.507378,0.780521,0
40060,-0.783996,-0.512994,0.783896,0
40080,-0.786149,-0.517222,0.790442,0
40100,-0.788881,-0.521052,0.798057,0
40120,-0.792965,-0.524987,0.803626,0
40140,-0.797781,-0.527773,0.807537,0
40160,-0.802585,-0.530205,0.810145,0
40180,-0.807198,-0.531871,0.811573,0
40200,-0.811958,-0.533259,0.812654,0
40210,-0.816079,-0.533928,0.8128,0
40220,-0.819336,-0.533487,0.811286,0
40240,-0.821098,-0.533185,0.807183,0
40250,-0.821972,-0.532414,0.801591,0
40270,-0.822807,-0.532369,0.795366,0
40290,-0.821905,-0.532693,0.788303,0
40310,-0.819035,-0.532443,0.78195,0
40330,-0.816977,-0.532574,0.776016,0
40350,-0.815724,-0.53362,0.771197,0
40370,-0.814517,-0.535068,0.76802,0
40390,-0.813599,-0.537899,0.763566,0
40410,-0.812821,-0.541455,0.756985,0
40430,-0.811641,-0.545027,0.749123,0
40450,-0.811234,-0.548145,0.740651,0
40470,-0.810869,-0.551778,0.731057,0
40490,-0.810063,-0.554369,0.721309,0
40510,-0.810181,-0.555943,0.711878,0
40530,-0.810146,-0.556848,0.701186,0
40550,-0.808245,-0.557728,0.688731,0
40570,-0.805551,-0.55797,0.676355,0
40590,-0.802603,-0.558153,0.665397,0
40610,-0.799762,-0.55855,0.655749,0
40630,-0.797712,-0.55961,0.647613,0
40650,-0.79562,-0.560693,0.640025,0
40670,-0.793321,-0.561545,0.633515,0
40690,-0.7912,-0.562289,0.627556,0
40710,-0.788825,-0.562579,0.620054,0
40730,-0.785533,-0.562118,0.608631,0
40750,-0.782771,-0.560304,0.594292,0
40770,-0.778187,-0.55846,0.577307,0
40790,-0.771247,-0.556191,0.55694,0
40810,-0.764464,-0.55239,0.532721,0
40830,-0.756643,-0.547028,0.503704,0
40850,-0.744226,-0.540719,0.469122,0
40870,-0.728934,-0.532845,0.429801,0
40890,-0.710491,-0.523255,0.385817,0
40910,-0.69208,-0.512173,0.34077,0
40930,-0.672215,-0.500659,0.296046,0
40950,-0.650854,-0.490874,0.255618,0
40970,-0.629407,-0.485322,0.225678,0
40990,-0.610743,-0.483578,0.20578,0
41010,-0.594456,-0.479277,0.201834,0
41030,-0.589152,-0.47039,0.211242,0
41050,-0.582708,-0.465936,0.226244,0
41070,-0.569734,-0.458308,0.24748,0
41090,-0.563257,-0.449695,0.279398,0
41110,-0.562229,-0.447652,0.316055,0
41130,-0.567552,-0.45195,0.364441,0
41150,-0.584234,-0.460612,0.430827,0
41170,-0.621207,-0.465009,0.519131,0
41190,-0.662481,-0.458427,0.622333,0
41210,-0.685405,-0.444331,0.722055,0
41230,-0.690232,-0.435645,0.798481,0
41250,-0.699256,-0.431277,0.860475,0
41270,-0.724467,-0.407091,0.919628,0
41290,-0.731361,-0.378859,0.958173,0
41300,-0.734367,-0.34501,0.982449,0
41320,-0.733981,-0.335116,0.995219,0
41340,-0.74222,-0.30929,1.01411,0
41360,-0.739479,-0.317263,1.0096,0
41380,-0.730923,-0.331598,0.998906,0
41390,-0.723914,-0.350624,0.984242,0
41390,-0.722704,-0.369835,0.973609,0
41410,-0.725023,-0.388748,0.966873,0
41450,-0.724096,-0.407931,0.959414,0
41470,-0.719732,-0.426535,0.947524,0
41490,-0.70825,-0.456909,0.916981,0
41510,-0.703569,-0.468475,0.902784,0
41530,-0.701213,-0.476876,0.888648,0
41540,-0.702959,-0.482062,0.873996,0
41560,-0.707403,-0.485483,0.85965,0
41590,-0.709074,-0.490855,0.840193,0
41610,-0.707307,-0.493597,0.819482,0
41630,-0.708944,-0.492432,0.806952,0
41650,-0.709493,-0.491301,0.798371,0
41670,-0.710039,-0.488341,0.795267,0
41690,-0.710687,-0.487528,0.792909,0
41700,-0.7091,-0.490469,0.788734,0
41720,-0.707138,-0.494159,0.785876,0
41740,-0.707004,-0.497479,0.784961,0
41760,-0.708349,-0.500852,0.783115,0
41780,-0.710028,-0.504056,0.78091,0
41800,-0.711911,-0.506906,0.779326,0
41820,-0.712901,-0.509806,0.777556,0
41840,-0.713795,-0.512716,0.775895,0
41860,-0.715744,-0.514946,0.774904,0
41880,-0.718386,-0.517368,0.774008,0
41900,-0.720685,-0.519877,0.772875,0
41920,-0.723063,-0.522743,0.771118,0
41940,-0.725698,-0.525756,0.769529,0
41960,-0.728469,-0.528077,0.768388,0
41980,-0.731273,-0.530357,0.768082,0
42000,-0.733956,-0.532448,0.768355,0
42020,-0.737308,-0.533948,0.769605,0
42040,-0.741345,-0.535177,0.771445,0
42060,-0.744736,-0.535789,0.773142,0
42080,-0.747186,-0.535436,0.775397,0
42100,-0.750269,-0.534678,0.778983,0
42120,-0.75324,-0.534033,0.783152,0
42140,-0.756353,-0.534007,0.78726,0
42160,-0.758833,-0.533842,0.790337,0
42180,-0.761376,-0.53319,0.792786,0
42200,-0.763916,-0.532519,0.794238,0
42220,-0.76687,-0.532276,0.795504,0
42220,-0.769486,-0.532047,0.797625,0
42240,-0.770861,-0.532425,0.7984,0
42270,-0.775265,-0.532342,0.79853,0
42290,-0.776002,-0.532456,0.798471,0
42310,-0.776665,-0.532638,0.798138,0
42330,-0.777426,-0.533322,0.797105,0
42350,-0.778027,-0.533589,0.796215,0
42370,-0.778765,-0.533195,0.795762,0
42370,-0.779922,-0.533132,0.795527,0
42390,-0.780574,-0.532778,0.795484,0
42390,-0.781497,-0.532474,0.795714,0
42410,-0.781977,-0.532314,0.795698,0
42420,-0.783652,-0.531409,0.795387,0
42450,-0.784946,-0.53144,0.796382,0
42470,-0.78614,-0.531085,0.797279,0
42470,-0.787715,-0.530696,0.799452,0
42490,-0.788733,-0.530031,0.801965,0
42530,-0.789822,-0.530295,0.805838,0
42550,-0.791183,-0.530479,0.807795,0
42570,-0.792299,-0.530544,0.810303,0
42590,-0.792258,-0.530797,0.812251,0
42610,-0.792422,-0.531448,0.813803,0
42630,-0.792684,-0.531958,0.815454,0
42650,-0.792256,-0.5338,0.818492,0
42680,-0.791137,-0.535272,0.821038,0
42700,-0.790589,-0.535865,0.821677,0
42720,-0.789885,-0.536196,0.821963,0
42740,-0.789516,-0.536136,0.822192,0
42760,-0.789643,-0.535472,0.822622,0
42780,-0.789981,-0.534839,0.823165,0
42800,-0.790255,-0.534051,0.823743,0
42820,-0.790875,-0.533621,0.824071,0
42840,-0.791567,-0.533376,0.823671,0
42840,-0.792543,-0.533108,0.823257,0
42860,-0.794255,-0.533284,0.82308,0
42870,-0.795575,-0.533958,0.823003,0
42890,-0.796631,-0.534831,0.823058,0
42910,-0.797087,-0.536063,0.822611,0
42930,-0.798275,-0.536546,0.82181,0
42950,-0.801336,-0.536111,0.82249,0
42970,-0.804775,-0.534182,0.823854,0
42990,-0.807743,-0.53219,0.82554,0
43010,-0.809506,-0.530672,0.826813,0
43030,-0.811169,-0.529155,0.828185,0
43050,-0.812927,-0.527147,0.829754,0
43070,-0.815299,-0.52495,0.831937,0
43090,-0.817472,-0.523225,0.834417,0
43110,-0.818883,-0.521827,0.836733,0
43130,-0.819842,-0.520665,0.838696,0
43150,-0.820974,-0.519551,0.841032,0
43170,-0.821682,-0.518395,0.842745,0
43190,-0.822122,-0.516966,0.844491,0
43210,-0.822416,-0.515316,0.846194,0
43230,-0.823114,-0.513673,0.848204,0
43250,-0.823718,-0.511824,0.850222,0
43270,-0.824531,-0.510005,0.85235,0
43290,-0.825359,-0.507995,0.854095,0
43310,-0.825609,-0.506037,0.855764,0
43330,-0.82577,-0.504449,0.857143,0
43350,-0.825719,-0.502384,0.857913,0
43370,-0.825929,-0.500797,0.85874,0
43390,-0.825891,-0.499445,0.859017,0
43410,-0.825753,-0.498323,0.85909,0
43430,-0.825948,-0.497278,0.859195,0
43450,-0.826245,-0.496696,0.859298,0
43470,-0.826178,-0.496543,0.859333,0
43490,-0.826178,-0.496543,0.859333,0
43510,-0.826178,-0.496543,0.859333,0
43530,-0.826045,-0.496581,0.859299,0
43550,-0.826192,-0.497269,0.85944,0
43570,-0.826438,-0.497955,0.859477,0
43590,-0.826111,-0.499039,0.85934,0
43610,-0.826281,-0.500005,0.8592,0
43630,-0.826514,-0.500657,0.858925,0
43650,-0.827037,-0.501178,0.859142,0
43670,-0.827663,-0.501817,0.859461,0
43690,-0.827802,-0.502594,0.859494,0
43710,-0.827802,-0.502594,0.859494,0
43730,-0.828185,-0.503588,0.859466,0
43750,-0.828468,-0.504813,0.859236,0
43770,-0.828889,-0.50612,0.859245,0
43790,-0.828966,-0.507438,0.85911,0
43810,-0.829006,-0.509243,0.859234,0
43830,-0.828594,-0.511151,0.859204,0
43850,-0.828632,-0.513167,0.859424,0
43870,-0.828745,-0.51513,0.859519,0
43890,-0.829267,-0.517099,0.859925,0
43910,-0.829428,-0.519149,0.860366,0
43930,-0.830083,-0.521062,0.861104,0
43950,-0.831217,-0.522803,0.861823,0
43970,-0.832718,-0.524778,0.863109,0
43990,-0.834639,-0.526875,0.864812,0
44010,-0.836732,-0.528775,0.86649,0
44020,-0.839048,-0.530928,0.867991,0
44040,-0.841508,-0.533795,0.869931,0
44060,-0.84456,-0.537003,0.872361,0
44080,-0.848655,-0.54065,0.874939,0
44100,-0.852414,-0.544213,0.876889,0
44120,-0.855944,-0.548207,0.878708,0
44140,-0.859497,-0.5518,0.880063,0
44160,-0.86428,-0.555083,0.882259,0
44180,-0.868458,-0.558039,0.884152,0
44200,-0.87099,-0.560392,0.885095,0
44220,-0.873917,-0.560828,0.886147,0
44240,-0.876293,-0.558855,0.886457,0
44260,-0.876672,-0.554397,0.885564,0
44280,-0.875588,-0.54806,0.883506,0
44300,-0.874774,-0.540698,0.880428,0
44320,-0.873945,-0.53278,0.877325,0
44340,-0.873099,-0.524461,0.874892,0
44360,-0.871183,-0.516877,0.87298,0
44380,-0.869111,-0.51037,0.871912,0
44400,-0.868103,-0.505456,0.871209,0
44420,-0.866485,-0.501376,0.870698,0
44440,-0.864661,-0.498364,0.870987,0
44460,-0.862656,-0.496492,0.871095,0
44480,-0.861264,-0.494857,0.871617,0
44500,-0.860509,-0.49407,0.873176,0
44520,-0.860241,-0.493469,0.875325,0
44540,-0.860386,-0.492568,0.877083,0
44560,-0.860269,-0.492087,0.878075,0
44580,-0.86021,-0.491732,0.878722,0
44600,-0.861945,-0.49003,0.879863,0
44620,-0.863679,-0.487998,0.880097,0
44640,-0.864776,-0.485337,0.879997,0
44660,-0.865882,-0.480808,0.879307,0
44680,-0.866802,-0.474631,0.878938,0
44700,-0.868062,-0.468599,0.877484,0
44720,-0.869854,-0.461911,0.875336,0
44740,-0.87232,-0.454998,0.873337,0
44760,-0.874287,-0.4484,0.871738,0
44780,-0.875799,-0.442845,0.869773,0
44800,-0.875673,-0.437691,0.867489,0
44820,-0.874389,-0.43277,0.864861,0
44840,-0.873702,-0.42826,0.862415,0
44860,-0.873061,-0.4231,0.859802,0
44880,-0.871312,-0.418629,0.857108,0
44900,-0.869118,-0.415445,0.854796,0
44920,-0.867565,-0.412419,0.853126,0
44940,-0.865786,-0.409688,0.851541,0
44960,-0.864447,-0.407585,0.850605,0
44980,-0.864063,-0.40589,0.85042,0
45000,-0.862914,-0.404655,0.85061,0
45020,-0.861528,-0.404068,0.851186,0
45040,-0.860368,-0.403729,0.85199,0
45060,-0.859522,-0.403781,0.85342,0
45080,-0.859526,-0.403511,0.854871,0
45100,-0.860217,-0.40335,0.856493,0
45120,-0.859746,-0.403243,0.857988,0
45140,-0.858546,-0.403305,0.859994,0
45160,-0.858246,-0.402956,0.861867,0
45180,-0.859659,-0.403552,0.8639,2000
45200,-0.860796,-0.403866,0.865244,0
45220,-0.862251,-0.403752,0.866492,0
45240,-0.86286,-0.403707,0.867722,0
45260,-0.86289,-0.40327,0.868373,0
45280,-0.863739,-0.402601,0.868499,0
45300,-0.864556,-0.402313,0.868385,0
45320,-0.865738,-0.40189,0.868636,0
45340,-0.866552,-0.40103,0.868933,0
45360,-0.866567,-0.400235,0.868948,0
45380,-0.866495,-0.399559,0.868567,0
45400,-0.866615,-0.398764,0.868479,0
45420,-0.867625,-0.398274,0.868765,0
45440,-0.868371,-0.397606,0.868993,0
45460,-0.868371,-0.397606,0.868993,0
45480,-0.868913,-0.396854,0.869535,0
45500,-0.869848,-0.395926,0.870574,0
45520,-0.869836,-0.395382,0.871288,0
45540,-0.870069,-0.394546,0.872248,0
45560,-0.871108,-0.394085,0.874013,0
45580,-0.872072,-0.393583,0.876016,0
45600,-0.871993,-0.393641,0.877908,0
45620,-0.872612,-0.394525,0.880808,0
45640,-0.873305,-0.395818,0.883676,0
45660,-0.873387,-0.397598,0.88655,0
45680,-0.873726,-0.399428,0.889574,0
45700,-0.873767,-0.401319,0.892504,0
45720,-0.873487,-0.403599,0.895519,0
45740,-0.872914,-0.405889,0.898858,0
45760,-0.873021,-0.408263,0.902663,0
45780,-0.871949,-0.410501,0.906213,0
45800,-0.871549,-0.412569,0.910227,0
45820,-0.871758,-0.414977,0.914114,0
45840,-0.871944,-0.417597,0.917663,0
45860,-0.872423,-0.420277,0.921086,0
45880,-0.87312,-0.423182,0.92472,0
45900,-0.874052,-0.426222,0.927962,0
45920,-0.874585,-0.429618,0.93049,0
45940,-0.874964,-0.432755,0.932965,0
45960,-0.875042,-0.43585,0.935137,0
45980,-0.874018,-0.438903,0.936816,0
46000,-0.873338,-0.44182,0.938428,0
46020,-0.873082,-0.444987,0.940354,0
46040,-0.872428,-0.44803,0.942187,0
46060,-0.871746,-0.451202,0.94378,0
46080,-0.872102,-0.453915,0.945296,0
46100,-0.872652,-0.456704,0.946495,0
46120,-0.872686,-0.459444,0.947888,0
46140,-0.873004,-0.462131,0.949669,0
46160,-0.872442,-0.465263,0.951163,0
46180,-0.871389,-0.468711,0.952459,0
46200,-0.870677,-0.47183,0.953289,0
46220,-0.869921,-0.474854,0.95418,0
46240,-0.869032,-0.477994,0.955232,0
46260,-0.868505,-0.481736,0.956628,0
46280,-0.867921,-0.485556,0.957758,0
46300,-0.867989,-0.488448,0.958959,0
46320,-0.867762,-0.491556,0.959856,0
46340,-0.867268,-0.495416,0.960763,0
46360,-0.866966,-0.499042,0.961769,0
46380,-0.865913,-0.502797,0.962214,0
46400,-0.864872,-0.506771,0.962767,0
46420,-0.864386,-0.511192,0.963554,0
46440,-0.863798,-0.51603,0.963928,0
46460,-0.862732,-0.521328,0.963905,0
46480,-0.862555,-0.526341,0.964281,0
46500,-0.862448,-0.531319,0.964229,0
46520,-0.861856,-0.536553,0.962787,0
46540,-0.861985,-0.541511,0.961384,0
46560,-0.862632,-0.546238,0.959518,0
46580,-0.863543,-0.550888,0.957731,0
46590,-0.863792,-0.555268,0.954897,0
46610,-0.864263,-0.559606,0.952,0
46630,-0.864207,-0.564213,0.94828,0
46650,-0.864052,-0.568928,0.943978,0
46670,-0.864078,-0.573708,0.93967,0
46690,-0.864018,-0.578279,0.935194,0
46710,-0.863364,-0.582931,0.930626,0
46730,-0.863088,-0.587701,0.926446,0
46750,-0.86222,-0.592163,0.921978,0
46770,-0.861379,-0.596531,0.917453,0
46790,-0.861333,-0.600641,0.913636,0
46810,-0.861591,-0.604646,0.910038,0
46830,-0.861417,-0.608423,0.906407,0
46850,-0.862128,-0.611804,0.903575,0
46870,-0.863048,-0.615612,0.901247,0
46890,-0.863311,-0.619623,0.898557,0
46910,-0.863727,-0.623505,0.896028,0
46930,-0.864737,-0.627568,0.893903,0
46950,-0.865653,-0.631879,0.891593,0
46960,-0.866486,-0.636032,0.889885,0
46980,-0.866911,-0.64031,0.888062,0
47020,-0.868355,-0.648632,0.885125,0
47040,-0.869175,-0.652449,0.8841,0
47060,-0.869043,-0.65584,0.882512,0
47080,-0.86922,-0.659292,0.881236,0
47100,-0.869956,-0.661961,0.880236,0
47120,-0.870144,-0.664325,0.878497,0
47140,-0.870516,-0.666209,0.877329,0
47160,-0.87079,-0.667554,0.876642,0
47180,-0.870879,-0.668434,0.876154,0
47200,-0.870605,-0.669221,0.875592,0
47220,-0.870422,-0.669295,0.875408,0
47230,-0.86995,-0.66938,0.874936,0
47240,-0.869386,-0.669639,0.874468,0
47270,-0.867603,-0.66875,0.872014,0
47290,-0.865933,-0.668084,0.870153,0
47310,-0.864244,-0.667349,0.868273,0
47330,-0.862851,-0.666373,0.866401,0
47350,-0.861201,-0.665483,0.863697,0
47370,-0.859573,-0.664727,0.860821,0
47390,-0.857917,-0.663777,0.857533,0
47410,-0.85622,-0.6628,0.853915,0
47430,-0.854776,-0.66232,0.850261,0
47450,-0.853171,-0.661746,0.84635,0
47470,-0.85203,-0.661632,0.842519,0
47490,-0.851407,-0.661717,0.83863,0
47510,-0.851195,-0.661865,0.834959,0
47510,-0.851265,-0.662374,0.831669,0
47530,-0.85155,-0.663262,0.828118,0
47550,-0.85206,-0.664351,0.824793,0
47570,-0.852161,-0.665858,0.821065,0
47590,-0.852745,-0.667373,0.817438,0
47610,-0.85353,-0.668904,0.813631,0
47630,-0.854195,-0.670315,0.809708,0
47650,-0.854052,-0.671716,0.805075,0
47670,-0.854156,-0.673099,0.800401,0
47690,-0.853833,-0.674239,0.795112,0
47710,-0.853353,-0.675235,0.789379,0
47730,-0.852641,-0.676439,0.783604,0
47750,-0.851481,-0.67733,0.777195,0
47770,-0.850191,-0.678202,0.770559,0
47790,-0.848787,-0.679179,0.763906,0
47810,-0.846912,-0.67986,0.756874,0
47830,-0.845047,-0.680545,0.749854,0
47850,-0.843599,-0.681138,0.743156,0
47870,-0.841818,-0.682064,0.736323,0
47890,-0.839989,-0.68309,0.729545,0
47910,-0.838267,-0.683986,0.722865,0
47930,-0.836332,-0.68474,0.716163,0
47950,-0.834018,-0.68563,0.709093,0
47970,-0.831949,-0.686564,0.702177,0
47990,-0.829445,-0.687753,0.695017,0
48010,-0.826653,-0.689264,0.68778,0
48030,-0.82393,-0.690951,0.680521,0
48050,-0.820967,-0.692593,0.673115,0
48070,-0.817547,-0.694307,0.665552,0
48090,-0.814652,-0.696192,0.658614,0
48110,-0.811519,-0.698421,0.651738,0
48130,-0.808137,-0.700872,0.644721,0
48150,-0.804475,-0.703478,0.637541,0
48170,-0.80102,-0.705962,0.630362,0
48190,-0.797443,-0.708305,0.623061,0
48210,-0.793635,-0.710486,0.615722,0
48230,-0.789516,-0.712431,0.608255,0
48250,-0.7859,-0.714145,0.600891,0
48270,-0.782311,-0.715354,0.593448,0
48290,-0.778755,-0.716791,0.586146,0
48310,-0.774696,-0.718167,0.578721,0
48330,-0.77082,-0.719752,0.571488,0
48350,-0.76714,-0.721391,0.564633,0
48370,-0.76351,-0.723374,0.557857,0
48390,-0.759751,-0.725108,0.551329,0
48410,-0.756094,-0.726858,0.544709,0
48430,-0.752667,-0.728541,0.538041,0
48450,-0.74973,-0.730404,0.531671,0
48470,-0.746674,-0.732243,0.525374,0
48490,-0.743398,-0.733912,0.51905,0
48510,-0.7397,-0.735639,0.512385,0
48530,-0.735581,-0.737127,0.50531,0
48550,-0.731383,-0.738529,0.49814,0
48570,-0.726838,-0.739835,0.4909,0
48590,-0.722924,-0.740901,0.484009,0
48610,-0.71906,-0.741919,0.477255,0
48630,-0.714969,-0.742641,0.470542,0
48650,-0.710879,-0.743354,0.463827,0
48670,-0.707025,-0.7439,0.457445,0
48690,-0.703773,-0.744666,0.45128,0
48710,-0.700788,-0.745032,0.445098,0
48730,-0.69791,-0.745067,0.438783,0
48750,-0.694439,-0.744445,0.431967,0
48770,-0.69065,-0.74372,0.425106,0
48790,-0.687369,-0.742614,0.418699,0
48810,-0.684246,-0.741427,0.412361,0
48830,-0.681287,-0.740356,0.406574,0
48850,-0.678185,-0.739292,0.400743,0
48870,-0.675092,-0.738116,0.395294,0
48890,-0.672402,-0.736999,0.390056,0
48910,-0.669525,-0.735582,0.384896,0
48930,-0.6671,-0.734189,0.380089,0
48950,-0.664666,-0.732909,0.375462,0
48970,-0.662962,-0.731466,0.37166,0
48990,-0.661632,-0.730626,0.368264,0
49010,-0.660163,-0.72957,0.365016,0
49030,-0.658939,-0.728664,0.362214,0
49050,-0.657755,-0.727943,0.359355,0
49070,-0.656538,-0.727648,0.357062,0
49090,-0.655736,-0.727272,0.35547,0
49100,-0.655455,-0.726761,0.353893,0
49120,-0.655599,-0.726437,0.351912,0
49140,-0.655438,-0.726203,0.350118,0
49160,-0.655786,-0.726147,0.348737,0
49180,-0.65566,-0.725802,0.346784,0
49200,-0.655518,-0.726278,0.344827,0
49220,-0.656492,-0.72668,0.34364,0
49240,-0.658775,-0.726983,0.34269,0
49260,-0.660814,-0.726947,0.341073,0
49280,-0.662907,-0.726705,0.339434,0
49300,-0.665086,-0.72637,0.33801,0
49320,-0.666171,-0.72638,0.33575,0
49340,-0.666521,-0.726322,0.33341,0
49360,-0.666334,-0.725657,0.330858,0
49380,-0.666861,-0.724125,0.328987,0
49400,-0.667266,-0.722246,0.327036,0
49420,-0.667961,-0.720109,0.324969,0
49440,-0.668833,-0.718115,0.323856,0
49460,-0.669799,-0.716338,0.323121,0
49480,-0.670652,-0.714776,0.322334,0
49500,-0.671712,-0.713463,0.32184,0
49520,-0.672553,-0.712007,0.320918,0
49540,-0.673156,-0.71029,0.31993,0
49560,-0.672988,-0.708723,0.31896,0
49580,-0.671583,-0.707313,0.317547,0
49600,-0.670704,-0.705716,0.315854,0
49620,-0.671122,-0.703992,0.315044,0
49640,-0.671828,-0.702261,0.313979,0
49660,-0.671472,-0.700622,0.312895,0
49680,-0.671263,-0.699051,0.312457,0
49700,-0.671387,-0.697852,0.312587,0
49720,-0.67227,-0.696733,0.312494,0
49740,-0.673364,-0.695342,0.312137,0
49760,-0.67512,-0.694128,0.312885,0
49780,-0.676024,-0.693167,0.313444,0
49800,-0.67598,-0.693083,0.313374,0
49820,-0.67539,-0.692522,0.313331,0
49840,-0.675867,-0.691625,0.313438,0
49860,-0.676374,-0.690912,0.313481,0
49880,-0.676768,-0.690351,0.313834,0
49900,-0.677834,-0.68945,0.314739,0
49920,-0.678767,-0.688423,0.315365,0
49940,-0.678681,-0.687087,0.31507,0
49960,-0.678688,-0.685733,0.315344,0
49980,-0.679128,-0.683715,0.315811,0
50000,-0.679406,-0.681516,0.315996,0
50020,-0.679248,-0.679167,0.316224,0
50040,-0.680049,-0.676291,0.317165,0
50060,-0.680689,-0.673298,0.318118,0
50080,-0.68059,-0.67057,0.318747,0
50100,-0.68095,-0.667804,0.320243,0
50120,-0.681904,-0.664998,0.321519,0
50140,-0.682916,-0.662615,0.322307,0
50160,-0.684222,-0.660198,0.323903,0
50180,-0.685193,-0.657952,0.325553,0
50200,-0.685204,-0.656706,0.326824,0
50220,-0.685669,-0.656008,0.32779,0
50240,-0.686134,-0.655372,0.328397,0
50260,-0.68737,-0.654557,0.329382,0
50280,-0.68768,-0.653677,0.329419,0
50300,-0.686818,-0.653007,0.329067,0
50320,-0.686314,-0.652534,0.328818,0
50340,-0.685345,-0.651642,0.327678,0
50360,-0.684228,-0.650475,0.327043,0
50380,-0.684164,-0.648909,0.326239,0
50400,-0.683234,-0.647236,0.323985,0
50420,-0.681643,-0.645409,0.322246,0
50440,-0.681141,-0.644041,0.321887,0
50460,-0.680085,-0.642896,0.321044,0
50480,-0.67771,-0.641963,0.319772,0
50500,-0.677909,-0.641917,0.319956,0
50520,-0.678866,-0.64105,0.32026,0
50540,-0.67874,-0.641109,0.320216,0
50560,-0.678734,-0.640371,0.32074,0
50580,-0.679175,-0.639283,0.321961,0
50600,-0.680159,-0.638409,0.323749,0
50620,-0.681522,-0.636985,0.32587,0
50640,-0.683532,-0.635069,0.32899,0
50660,-0.686795,-0.633039,0.333328,0
50680,-0.689133,-0.631439,0.337108,0
50700,-0.691425,-0.629876,0.340748,0
50720,-0.695161,-0.628577,0.344751,0
50740,-0.698976,-0.627128,0.348722,0
50760,-0.701407,-0.625701,0.351908,0
50780,-0.703124,-0.624321,0.354987,0
50800,-0.70516,-0.622646,0.358058,0
50820,-0.706949,-0.621151,0.360687,0
50840,-0.707882,-0.619408,0.362358,0
50860,-0.708658,-0.617334,0.364232,0
50880,-0.709466,-0.615436,0.366047,0
50900,-0.710358,-0.613335,0.36754,0
50920,-0.711273,-0.611686,0.369076,0
50940,-0.712157,-0.610112,0.370535,0
50960,-0.713188,-0.60862,0.371916,0
50980,-0.713591,-0.607257,0.372985,0
51000,-0.714186,-0.606153,0.374391,0
51020,-0.714885,-0.605233,0.375879,0
51040,-0.715427,-0.604322,0.377319,0
51060,-0.715592,-0.603452,0.378114,0
51080,-0.715908,-0.602234,0.379206,0
51100,-0.717035,-0.60102,0.381006,0
51120,-0.71704,-0.599822,0.382004,0
51140,-0.717308,-0.598892,0.383478,0
51160,-0.718655,-0.597986,0.38562,0
51180,-0.720123,-0.597018,0.387795,0
51200,-0.721196,-0.596275,0.390198,0
51220,-0.722305,-0.59549,0.392729,0
51240,-0.723677,-0.594999,0.395327,0
51260,-0.724668,-0.595009,0.397614,0
51280,-0.725347,-0.594519,0.399832,0
51300,-0.726844,-0.594149,0.402692,0
51320,-0.728579,-0.594635,0.40547,0
51340,-0.7293,-0.594501,0.407863,0
51360,-0.729746,-0.594227,0.410361,0
51380,-0.730855,-0.594386,0.413153,0
51400,-0.731701,-0.594466,0.415693,0
51420,-0.732198,-0.594489,0.418077,0
51440,-0.733352,-0.59433,0.420894,0
51460,-0.734237,-0.593942,0.423934,0
51480,-0.735202,-0.593622,0.426758,0
51500,-0.736037,-0.593243,0.429613,0
51520,-0.737153,-0.592421,0.432553,0
51540,-0.739284,-0.591866,0.436131,0
51560,-0.741261,-0.591564,0.439068,0
51580,-0.742059,-0.590822,0.441089,0
51600,-0.743395,-0.58956,0.44392,0
51620,-0.744927,-0.588733,0.44686,0
51640,-0.745763,-0.588161,0.448827,0
51660,-0.74663,-0.587272,0.450808,0
51670,-0.747765,-0.586154,0.45334,0
51690,-0.749606,-0.585353,0.456006,0
51710,-0.751404,-0.584377,0.458718,0
51730,-0.752509,-0.583482,0.461349,0
51750,-0.754086,-0.582939,0.464169,0
51770,-0.755656,-0.582055,0.466572,0
51790,-0.75798,-0.580853,0.469787,0
51810,-0.759771,-0.579931,0.472786,0
51830,-0.760812,-0.578737,0.475518,0
51850,-0.76249,-0.577695,0.478715,0
51870,-0.764945,-0.576967,0.482191,0
51890,-0.766421,-0.57663,0.485624,0
51910,-0.76736,-0.575654,0.48897,0
51930,-0.768714,-0.575079,0.492664,0
51950,-0.770846,-0.574512,0.496932,0
51970,-0.773745,-0.573173,0.501414,0
51990,-0.77673,-0.571867,0.506091,0
52010,-0.779711,-0.570554,0.510764,0
52030,-0.782586,-0.568924,0.515106,0
52050,-0.785831,-0.567077,0.519902,0
52070,-0.788093,-0.565422,0.524835,0
52090,-0.790105,-0.564188,0.530125,0
52110,-0.792302,-0.562737,0.535397,0
52130,-0.795119,-0.561233,0.540893,0
52150,-0.798081,-0.559704,0.546429,0
52170,-0.801274,-0.558408,0.55232,0
52190,-0.803947,-0.557341,0.557713,0
52210,-0.806541,-0.556073,0.563092,0
52230,-0.809847,-0.555241,0.568429,0
52250,-0.812992,-0.554296,0.573114,0
52270,-0.815242,-0.553433,0.577204,0
52290,-0.817789,-0.552901,0.581694,0
52310,-0.820148,-0.552365,0.58571,0
52330,-0.822347,-0.551877,0.589267,0
52350,-0.824631,-0.551355,0.59272,0
52370,-0.827495,-0.551216,0.596171,0
52390,-0.830154,-0.551019,0.599508,0
52410,-0.832673,-0.551061,0.60293,0
52430,-0.834823,-0.551101,0.605781,0
52450,-0.836789,-0.551297,0.608353,0
52470,-0.839211,-0.551234,0.611273,0
52490,-0.841278,-0.551139,0.614036,0
52510,-0.843319,-0.550925,0.616854,0
52530,-0.845927,-0.55047,0.619929,0
52550,-0.849424,-0.549842,0.623293,0
52570,-0.85258,-0.548696,0.626366,0
52590,-0.855456,-0.547084,0.629931,0
52610,-0.858274,-0.545206,0.633633,0
52630,-0.86126,-0.542941,0.637476,0
52650,-0.864824,-0.540734,0.641295,0
52670,-0.868326,-0.53826,0.645246,0
52690,-0.871198,-0.53506,0.648807,0
52710,-0.873701,-0.532063,0.652625,0
52730,-0.876435,-0.529796,0.656913,0
52750,-0.878408,-0.527214,0.66073,0
52770,-0.88064,-0.525003,0.665122,0
52790,-0.883396,-0.523474,0.669689,0
52810,-0.88524,-0.522074,0.673961,0
52830,-0.887353,-0.521043,0.678817,0
52850,-0.890112,-0.520548,0.683948,0
52870,-0.892942,-0.519796,0.688836,0
52890,-0.895161,-0.519031,0.69362,0
52910,-0.898166,-0.518777,0.699017,0
52930,-0.900954,-0.51832,0.704093,0
52950,-0.903215,-0.517843,0.708627,0
52970,-0.905573,-0.517648,0.713384,0
52990,-0.907457,-0.517775,0.717987,0
53010,-0.910117,-0.517514,0.722833,0
53030,-0.912173,-0.517502,0.727297,0
53050,-0.914602,-0.518173,0.732171,0
53050,-0.916714,-0.5181,0.736478,0
53070,-0.919195,-0.517936,0.741055,0
53090,-0.921576,-0.518005,0.745447,0
53110,-0.922858,-0.517473,0.749309,0
53130,-0.924491,-0.517052,0.753524,0
53150,-0.926344,-0.517021,0.757779,0
53170,-0.928075,-0.51655,0.761592,0
53190,-0.929604,-0.515482,0.765281,0
53210,-0.931627,-0.514492,0.769361,0
53230,-0.934118,-0.513523,0.773811,0
53250,-0.936025,-0.512252,0.77796,0
53270,-0.938162,-0.511175,0.782359,0
53290,-0.940752,-0.509962,0.7873,0
53310,-0.943104,-0.508553,0.791902,0
53330,-0.945657,-0.507026,0.797098,0
53350,-0.948618,-0.506062,0.80253,0
53370,-0.950914,-0.505205,0.807997,0
53390,-0.953356,-0.504774,0.813541,0
53410,-0.956928,-0.504639,0.819618,0
53430,-0.960304,-0.504707,0.825004,0
53450,-0.963282,-0.505326,0.83042,0
53470,-0.966292,-0.506508,0.836487,0
53490,-0.968867,-0.508027,0.842128,0
53510,-0.970596,-0.509583,0.847125,0
53530,-0.973295,-0.511149,0.852585,0
53550,-0.976723,-0.512981,0.85768,0
53570,-0.979147,-0.514431,0.86226,0
53590,-0.980581,-0.516077,0.866748,0
53610,-0.982111,-0.517571,0.870929,0
53630,-0.984691,-0.51912,0.875358,0
53650,-0.987155,-0.520137,0.879251,0
53670,-0.988829,-0.521019,0.883152,0
53690,-0.990995,-0.522001,0.887344,0
53710,-0.99312,-0.523175,0.891499,0
53730,-0.994425,-0.524209,0.89503,0
53750,-0.995366,-0.524957,0.898485,0
53770,-0.996873,-0.525704,0.902408,0
53790,-0.998559,-0.526368,0.906505,0
53810,-0.999412,-0.527212,0.910771,0
53830,-0.999931,-0.52789,0.91549,0
53850,-1.00111,-0.529385,0.920792,0
53870,-1.00234,-0.530941,0.926135,0
53890,-1.00366,-0.532047,0.931562,0
53910,-1.00526,-0.533731,0.937367,0
53930,-1.0074,-0.535916,0.94363,0
53950,-1.00909,-0.538007,0.94963,0
53970,-1.01062,-0.540404,0.956352,0
53990,-1.01211,-0.54326,0.963049,0
54010,-1.01372,-0.546374,0.969848,0
54030,-1.01596,-0.55008,0.976785,0
54050,-1.01791,-0.554214,0.983428,0
54070,-1.01939,-0.558252,0.990964,0
54090,-1.0202,-0.562202,0.99811,0
54110,-1.02072,-0.566076,1.00447,0
54130,-1.02168,-0.569903,1.01047,0
54150,-1.0234,-0.573381,1.01691,0
54170,-1.02532,-0.576559,1.02345,0
54190,-1.02716,-0.579518,1.03,0
54210,-1.02893,-0.582695,1.03648,0
54220,-1.02965,-0.586066,1.04209,0
54240,-1.03044,-0.589687,1.04747,0
54260,-1.0324,-0.592726,1.05313,0
54280,-1.03437,-0.595985,1.0586,0
54300,-1.0354,-0.599651,1.06341,0
54320,-1.03605,-0.603123,1.06833,0
54340,-1.03669,-0.607117,1.07312,0
54360,-1.0373,-0.611364,1.07778,0
54380,-1.03858,-0.615513,1.08281,0
54400,-1.03977,-0.61946,1.08764,0
54420,-1.04051,-0.623573,1.09231,0
54440,-1.04114,-0.627758,1.09744,0
54460,-1.04178,-0.6322,1.10247,0
54480,-1.04254,-0.636003,1.10733,0
54500,-1.04385,-0.640019,1.11293,0
54520,-1.04512,-0.644625,1.11837,0
54540,-1.04612,-0.649045,1.12381,0
54560,-1.04759,-0.652905,1.12965,0
54580,-1.04876,-0.656412,1.13536,0
54600,-1.04961,-0.660444,1.14113,0
54620,-1.05107,-0.664557,1.14731,0
54640,-1.05245,-0.668149,1.1534,0
54660,-1.05404,-0.671937,1.15932,0
54680,-1.05563,-0.675395,1.16503,0
54700,-1.05755,-0.678532,1.17109,0
54720,-1.05939,-0.681929,1.17715,0
54740,-1.06078,-0.685489,1.18255,0
54760,-1.06162,-0.689227,1.18739,0
54780,-1.06267,-0.693574,1.19205,0
54800,-1.06474,-0.697786,1.19694,0
54820,-1.06722,-0.701705,1.20159,0
54840,-1.06846,-0.705254,1.20539,0
54860,-1.06947,-0.709237,1.20904,0
54880,-1.07125,-0.713925,1.21275,0
54900,-1.07347,-0.71849,1.21635,0
54920,-1.07558,-0.72348,1.21972,0
54940,-1.07773,-0.728534,1.22275,0
54960,-1.07966,-0.73382,1.22565,0
54980,-1.08205,-0.739599,1.22871,0
55000,-1.08409,-0.744838,1.23133,0
55020,-1.08566,-0.750009,1.23349,0
55040,-1.08756,-0.755462,1.23616,0
55060,-1.08983,-0.760523,1.23855,0
55080,-1.09209,-0.765095,1.24057,0
55100,-1.0947,-0.769534,1.24295,0
55120,-1.0963,-0.773842,1.24497,0
55140,-1.09739,-0.778299,1.24639,0
55160,-1.09868,-0.782604,1.24774,0
55180,-1.0999,-0.786542,1.24856,0
55200,-1.10071,-0.790262,1.24887,0
55220,-1.10184,-0.793945,1.24942,0
55240,-1.10277,-0.797608,1.25005,0
55260,-1.10363,-0.801495,1.25108,0
55280,-1.10471,-0.805898,1.25222,0
55300,-1.10652,-0.810008,1.25381,0
55320,-1.10866,-0.814109,1.25565,0
55340,-1.11116,-0.81863,1.25829,0
55360,-1.11385,-0.823583,1.26093,0
55380,-1.1174,-0.828342,1.26397,0
55400,-1.12177,-0.833381,1.26746,0
55420,-1.12588,-0.838601,1.27068,0
55440,-1.1307,-0.843691,1.27415,0
55460,-1.13533,-0.848829,1.27698,0
55480,-1.1397,-0.853443,1.27919,0
55500,-1.14341,-0.858182,1.28047,0
55520,-1.14616,-0.862525,1.2809,0
55540,-1.14852,-0.86716,1.28139,0
55560,-1.15049,-0.871636,1.2815,0
55580,-1.15183,-0.876329,1.2808,0
55600,-1.1536,-0.881168,1.27988,0
55620,-1.15521,-0.885503,1.27846,0
55640,-1.15648,-0.890176,1.2766,0
55660,-1.15755,-0.894838,1.27454,0
55680,-1.15885,-0.899723,1.27235,0
55700,-1.15971,-0.904625,1.26937,0
55720,-1.16007,-0.90983,1.26561,0
55740,-1.16057,-0.914942,1.26136,0
55760,-1.16021,-0.920289,1.2558,0
55780,-1.15983,-0.925946,1.25014,0
55800,-1.15901,-0.932006,1.24386,0
55820,-1.15744,-0.93848,1.23657,0
55840,-1.15587,-0.944905,1.229,0
55860,-1.15478,-0.95138,1.22122,0
55880,-1.15315,-0.958041,1.21273,0
55900,-1.1516,-0.96503,1.20406,0
55920,-1.14975,-0.971878,1.19456,0
55940,-1.14797,-0.978495,1.18506,0
55960,-1.14568,-0.985484,1.17525,0
55980,-1.14247,-0.992385,1.16436,0
56000,-1.13886,-0.99885,1.15281,0
56020,-1.13464,-1.00555,1.14021,0
56040,-1.13039,-1.01198,1.12778,0
56060,-1.12507,-1.01869,1.11448,0
56080,-1.11993,-1.02526,1.10119,0
56100,-1.11443,-1.03175,1.0873,0
56120,-1.1089,-1.03788,1.07329,0
56140,-1.10285,-1.04407,1.05886,0
56160,-1.09651,-1.04991,1.04433,0
56180,-1.08976,-1.05565,1.02941,0
56200,-1.08284,-1.06078,1.01468,0
56200,-1.07569,-1.06561,0.999632,0
56220,-1.06748,-1.06998,0.983978,0
56240,-1.05826,-1.07429,0.967761,0
56260,-1.04846,-1.07832,0.951053,0
56280,-1.03773,-1.0818,0.933418,0
56300,-1.02743,-1.08444,0.916563,0
56320,-1.01663,-1.08693,0.899298,0
56340,-1.00449,-1.08886,0.880679,0
56360,-0.991624,-1.08978,0.861688,0
56380,-0.979226,-1.09023,0.842962,0
56400,-0.965474,-1.09037,0.822807,0
56420,-0.951059,-1.09044,0.802341,0
56440,-0.938702,-1.09006,0.784001,0
56460,-0.925896,-1.08901,0.764768,0
56480,-0.911411,-1.08816,0.744722,0
56500,-0.89839,-1.08727,0.726955,0
56520,-0.885702,-1.08649,0.709621,0
56540,-0.874673,-1.08591,0.69402,0
56560,-0.863284,-1.0845,0.677409,0
56580,-0.85201,-1.08307,0.661272,0
56600,-0.843321,-1.08142,0.648002,0
56620,-0.834755,-1.07982,0.635094,0
56640,-0.826062,-1.07831,0.622249,0
56660,-0.817549,-1.07665,0.609933,0
56680,-0.810152,-1.07448,0.598454,0
56700,-0.803086,-1.07184,0.58755,0
56720,-0.796861,-1.06798,0.577181,0
56740,-0.791102,-1.06319,0.566727,0
56760,-0.785453,-1.05785,0.556078,0
56780,-0.779993,-1.05316,0.545801,0
56790,-0.775323,-1.04839,0.536277,0
56810,-0.77157,-1.04297,0.527778,0
56830,-0.766298,-1.03775,0.518343,0
56850,-0.759184,-1.03308,0.507295,0
56870,-0.754303,-1.02845,0.498471,0
56890,-0.74986,-1.02409,0.489147,0
56910,-0.743979,-1.0194,0.478107,0
56930,-0.737945,-1.01463,0.467657,0
56950,-0.73242,-1.00997,0.457861,0
56970,-0.726567,-1.00501,0.447365,0
56990,-0.719049,-1.00037,0.435931,0
57010,-0.712353,-0.995969,0.425794,0
57030,-0.708217,-0.992133,0.418018,0
57050,-0.70546,-0.987894,0.411526,0
57070,-0.700246,-0.984332,0.403791,0
57090,-0.697069,-0.981359,0.398348,0
57110,-0.694844,-0.978063,0.393449,0
57130,-0.69164,-0.974901,0.387734,0
57150,-0.689872,-0.971946,0.383338,0
57170,-0.689895,-0.968496,0.379829,0
57190,-0.688857,-0.965718,0.376532,0
57210,-0.688306,-0.96324,0.374381,0
57230,-0.68759,-0.96036,0.372179,0
57250,-0.685529,-0.957933,0.368317,0
57270,-0.685148,-0.955372,0.36571,0
57290,-0.684699,-0.952212,0.363092,0
57310,-0.684024,-0.948848,0.360692,0
57330,-0.682684,-0.945949,0.358071,0
57350,-0.681021,-0.94305,0.355877,0
57370,-0.680735,-0.939653,0.354144,0
57390,-0.680705,-0.935712,0.352425,0
57410,-0.679521,-0.931664,0.350474,0
57430,-0.678616,-0.928229,0.348885,0
57450,-0.677018,-0.925302,0.347788,0
57470,-0.676429,-0.922242,0.34731,0
57490,-0.675749,-0.919366,0.346277,0
57510,-0.675115,-0.916614,0.345774,0
57530,-0.674241,-0.914543,0.34545,0
57550,-0.673805,-0.913321,0.345667,0
57570,-0.674303,-0.911495,0.346414,0
57590,-0.675498,-0.908725,0.34748,0
57610,-0.676071,-0.905849,0.348238,0
57630,-0.677767,-0.903252,0.350138,0
57650,-0.678856,-0.901202,0.35243,0
57670,-0.679687,-0.899199,0.355279,0
57690,-0.68122,-0.89811,0.358606,0
57710,-0.682934,-0.89702,0.36201,0
57730,-0.684898,-0.895885,0.365651,0
57750,-0.687804,-0.894387,0.370245,0
57770,-0.69011,-0.893029,0.374424,0
57790,-0.69145,-0.892072,0.37839,0
57810,-0.693129,-0.891648,0.382378,0
57830,-0.695886,-0.890739,0.387117,0
57850,-0.698617,-0.889827,0.391276,0
57870,-0.701111,-0.889337,0.395504,0
57890,-0.703151,-0.888649,0.399279,0
57910,-0.704895,-0.887383,0.402361,0
57930,-0.707076,-0.886023,0.405002,0
57950,-0.707785,-0.883624,0.405859,0
57970,-0.708357,-0.881068,0.406839,0
57990,-0.709039,-0.878175,0.407187,0
58010,-0.709683,-0.874667,0.407085,0
58030,-0.709116,-0.871004,0.40613,0
58050,-0.709281,-0.86621,0.405456,0
58070,-0.708961,-0.860295,0.404346,0
58090,-0.706775,-0.854343,0.401802,0
58110,-0.706352,-0.849208,0.400163,0
58130,-0.706144,-0.844326,0.398745,0
58150,-0.705565,-0.839472,0.397104,0
58170,-0.70481,-0.834434,0.395784,0
58190,-0.704232,-0.830372,0.394952,0
58210,-0.703506,-0.826205,0.393884,0
58230,-0.700979,-0.822101,0.391945,0
58250,-0.699266,-0.818424,0.391339,0
58270,-0.698862,-0.814912,0.391272,0
58290,-0.698424,-0.810849,0.39152,0
58310,-0.697462,-0.807174,0.391857,0
58330,-0.696593,-0.804931,0.392799,0
58350,-0.695098,-0.802678,0.393618,0
58370,-0.693183,-0.800724,0.394507,0
58390,-0.692453,-0.799135,0.395866,0
58410,-0.692937,-0.797625,0.397956,0
58430,-0.693602,-0.795874,0.400308,0
58450,-0.694345,-0.794523,0.403413,0
58470,-0.695198,-0.793208,0.406435,0
58490,-0.696605,-0.791756,0.40956,0
58510,-0.698726,-0.790591,0.413384,0
58530,-0.701384,-0.789404,0.417482,0
58550,-0.703994,-0.788136,0.421252,0
58570,-0.704849,-0.786711,0.424388,0
58590,-0.705674,-0.785289,0.427755,0
58610,-0.706688,-0.784571,0.430996,0
58630,-0.707833,-0.783533,0.434173,0
58650,-0.708715,-0.781958,0.437498,0
58670,-0.710164,-0.781031,0.441523,0
58690,-0.71101,-0.779988,0.445253,0
58710,-0.711718,-0.778561,0.448995,0
58730,-0.714078,-0.776862,0.454364,0
58750,-0.718085,-0.775727,0.460115,0
58770,-0.722245,-0.774694,0.466104,0
58790,-0.727317,-0.773676,0.47281,0
58810,-0.732307,-0.772724,0.478988,0
58830,-0.737453,-0.771638,0.48559,0
58850,-0.742648,-0.770499,0.492328,0
58870,-0.747724,-0.769669,0.499143,0
58890,-0.752042,-0.769195,0.505237,0
58910,-0.755204,-0.767772,0.510312,0
58930,-0.758657,-0.766244,0.515492,0
58950,-0.762838,-0.765833,0.521527,0
58970,-0.766521,-0.764593,0.527225,0
58990,-0.769549,-0.763004,0.532164,0
59010,-0.772812,-0.761184,0.536932,0
59030,-0.776308,-0.759179,0.541467,0
59050,-0.780663,-0.756586,0.546545,0
59070,-0.7842,-0.754252,0.551187,0
59090,-0.787434,-0.752183,0.555839,0
59110,-0.791197,-0.749797,0.561286,0
59130,-0.794727,-0.747181,0.566191,0
59150,-0.798215,-0.745115,0.571098,0
59170,-0.801785,-0.742721,0.575886,0
59190,-0.804556,-0.739819,0.580401,0
59210,-0.808025,-0.736853,0.585531,0
59230,-0.811886,-0.73493,0.591103,0
59250,-0.815635,-0.73231,0.596521,0
59270,-0.818166,-0.728976,0.601558,0
59290,-0.82137,-0.726077,0.60729,0
59310,-0.825757,-0.723488,0.613157,0
59330,-0.830067,-0.72009,0.61874,0
59350,-0.833762,-0.716465,0.624745,0
59360,-0.837937,-0.713404,0.631818,0
59380,-0.841848,-0.710717,0.638564,0
59400,-0.845631,-0.70862,0.645675,0
59420,-0.84931,-0.706541,0.652804,0
59440,-0.853511,-0.705006,0.660472,0
59460,-0.858108,-0.703984,0.668452,0
59480,-0.861713,-0.702913,0.676134,0
59500,-0.866155,-0.702443,0.684366,0
59520,-0.871524,-0.701942,0.692683,0
59540,-0.876616,-0.701425,0.700719,0
59560,-0.881378,-0.700951,0.708898,0
59580,-0.886046,-0.701259,0.717203,0
59600,-0.891051,-0.701654,0.725468,0
59620,-0.89594,-0.701782,0.733421,0
59640,-0.900664,-0.701917,0.741015,0
59660,-0.905909,-0.702113,0.748943,0
59680,-0.91071,-0.702225,0.756898,0
59700,-0.915241,-0.701739,0.76437,0
59720,-0.919846,-0.701299,0.771631,0
59740,-0.924377,-0.700622,0.778711,0
59760,-0.928667,-0.699242,0.785727,0
59780,-0.933787,-0.697978,0.793379,0
59800,-0.93861,-0.696758,0.800932,0
59820,-0.942905,-0.694872,0.807934,0
59840,-0.947145,-0.692806,0.815262,0
59860,-0.952329,-0.690775,0.822876,0
59880,-0.957919,-0.68896,0.830798,0
59900,-0.96272,-0.687038,0.838983,0
59920,-0.966879,-0.685012,0.847106,0
59940,-0.971179,-0.682947,0.855274,0
59960,-0.976405,-0.680968,0.863414,0
59980,-0.980208,-0.678722,0.870603,0
60000,-0.984146,-0.676645,0.878128,0
60020,-0.988457,-0.674687,0.88613,0
60040,-0.99202,-0.673118,0.893685,0
60060,-0.994653,-0.671789,0.900697,0
60080,-0.998313,-0.670892,0.908176,0
60100,-1.00276,-0.670258,0.915686,0
60120,-1.00722,-0.669937,0.92263,0
60140,-1.01135,-0.669971,0.929542,0
60160,-1.01596,-0.670674,0.936853,0
60180,-1.02015,-0.671889,0.943563,0
60200,-1.02342,-0.673448,0.949834,0
60220,-1.02735,-0.675665,0.956198,0
60240,-1.03158,-0.678191,0.962385,0
60260,-1.03471,-0.680854,0.967564,0
60280,-1.03673,-0.684192,0.972699,0
60300,-1.03953,-0.687826,0.978226,0
60320,-1.04123,-0.691796,0.982467,0
60340,-1.04251,-0.695919,0.985619,0
60360,-1.04401,-0.699731,0.9884,0
60380,-1.04616,-0.702786,0.991067,0
60400,-1.0477,-0.705725,0.993402,0
60420,-1.04871,-0.708443,0.995493,0
60440,-1.04991,-0.711156,0.998244,0
60460,-1.05043,-0.713976,1.00071,0
60480,-1.05208,-0.716379,1.00371,0
60500,-1.05375,-0.71857,1.0072,0
60520,-1.05453,-0.721068,1.01057,0
60540,-1.05518,-0.723809,1.01427,0
60560,-1.05706,-0.726007,1.01901,0
60580,-1.0588,-0.727989,1.02351,0
60600,-1.06056,-0.730352,1.0286,0
60620,-1.06346,-0.732453,1.03492,0
60640,-1.06684,-0.735283,1.04172,0
60660,-1.06991,-0.738402,1.04811,0
60680,-1.07299,-0.741563,1.05442,0
60700,-1.07624,-0.745025,1.06116,0
60720,-1.07926,-0.748272,1.06787,0
60740,-1.08223,-0.751648,1.07461,0
60760,-1.08561,-0.755074,1.08185,0
60780,-1.08947,-0.75816,1.08938,0
60800,-1.09235,-0.76154,1.0962,0
60820,-1.09633,-0.7654,1.10374,0
60840,-1.10098,-0.768697,1.11138,0
60860,-1.10492,-0.772287,1.11804,0
60880,-1.10834,-0.776005,1.12435,0
60900,-1.11308,-0.780671,1.13159,0
60920,-1.11767,-0.786122,1.13925,0
60940,-1.12176,-0.791969,1.14649,0
60960,-1.12562,-0.797961,1.15302,0
60980,-1.12905,-0.804234,1.15902,0
61000,-1.13284,-0.810413,1.16482,0
61020,-1.13668,-0.816303,1.17057,0
61040,-1.14046,-0.821951,1.17672,0
61060,-1.14346,-0.827476,1.18256,0
61080,-1.14721,-0.832788,1.18868,0
61100,-1.1518,-0.837822,1.19535,0
61120,-1.15555,-0.842883,1.2022,0
61140,-1.15929,-0.848442,1.20866,0
61160,-1.16317,-0.853999,1.21461,0
61180,-1.1672,-0.859866,1.22033,0
61200,-1.17102,-0.86521,1.22548,0
61220,-1.17359,-0.871388,1.22973,0
61240,-1.17554,-0.878182,1.23327,0
61260,-1.17739,-0.884875,1.23579,0
61280,-1.17889,-0.890621,1.23731,0
61300,-1.17989,-0.896552,1.23807,0
61320,-1.1805,-0.902685,1.23862,0
61340,-1.17989,-0.909296,1.23867,0
61360,-1.17913,-0.915934,1.2383,0
61380,-1.17956,-0.922652,1.23803,0
61400,-1.18002,-0.92921,1.23815,0
61420,-1.18074,-0.936267,1.23835,0
61440,-1.18195,-0.943144,1.23913,0
61460,-1.18345,-0.950491,1.24029,0
61480,-1.18482,-0.95807,1.24069,0
61500,-1.18743,-0.965424,1.2416,0
61520,-1.19006,-0.972139,1.24165,0
61540,-1.1911,-0.978813,1.24002,0
61560,-1.19231,-0.985736,1.23865,0
61580,-1.19327,-0.992329,1.23659,0
61600,-1.1924,-0.998541,1.23235,0
61620,-1.19035,-1.00471,1.22703,0
61640,-1.18846,-1.01032,1.22142,0
61660,-1.18641,-1.01677,1.21558,0
61680,-1.18351,-1.02368,1.20933,0
61700,-1.18151,-1.03084,1.2039,0
61720,-1.17921,-1.0379,1.19791,0
61740,-1.17627,-1.04488,1.19093,0
61760,-1.17388,-1.05231,1.18424,0
61780,-1.17221,-1.05941,1.17783,0
61800,-1.17036,-1.06568,1.17063,0
61820,-1.16712,-1.07213,1.16258,0
61840,-1.16392,-1.07829,1.15449,0
61860,-1.16125,-1.0843,1.14604,0
61880,-1.15712,-1.09009,1.13562,0
61900,-1.1519,-1.09609,1.12446,0
61920,-1.14626,-1.10138,1.11253,0
61930,-1.13936,-1.10671,1.09989,0
61950,-1.13285,-1.11248,1.08773,0
61970,-1.12594,-1.11871,1.07509,0
61990,-1.11786,-1.12435,1.06076,0
62010,-1.11,-1.13026,1.04595,0
62030,-1.10135,-1.13533,1.03026,0
62050,-1.09214,-1.14012,1.01402,0
62070,-1.08141,-1.14464,0.996155,0
62090,-1.06985,-1.14944,0.977664,0
62110,-1.05978,-1.1542,0.96005,0
62130,-1.0511,-1.15792,0.942394,0
62150,-1.04374,-1.15979,0.925345,0
62170,-1.03303,-1.1609,0.906072,0
62190,-1.02147,-1.16202,0.887119,0
62210,-1.00942,-1.16313,0.867747,0
62230,-0.995367,-1.16396,0.84567,0
62250,-0.981852,-1.16381,0.824188,0
62270,-0.968633,-1.16363,0.804079,0
62290,-0.953137,-1.16428,0.783032,0
62310,-0.939284,-1.16567,0.764044,0
62330,-0.927664,-1.16623,0.746889,0
62350,-0.917774,-1.16693,0.731246,0
62370,-0.907429,-1.1684,0.715886,0
62390,-0.898974,-1.17019,0.70259,0
62410,-0.892158,-1.17198,0.690225,0
62430,-0.884763,-1.17336,0.677924,0
62450,-0.877081,-1.17529,0.665869,0
62470,-0.870313,-1.17792,0.654615,0
62490,-0.863585,-1.17968,0.64334,0
62510,-0.856384,-1.18101,0.631577,0
62530,-0.849689,-1.18267,0.620305,0
62550,-0.843083,-1.18419,0.60947,0
62570,-0.836017,-1.1849,0.598356,0
62590,-0.829341,-1.18487,0.587757,0
62610,-0.822413,-1.18438,0.576467,0
62630,-0.814135,-1.18307,0.564399,0
62650,-0.808019,-1.18134,0.553788,0
62670,-0.801141,-1.1795,0.542774,0
62690,-0.793028,-1.17721,0.530898,0
62710,-0.785749,-1.17532,0.519847,0
62730,-0.781456,-1.17334,0.512169,0
62750,-0.77615,-1.17073,0.503797,0
62770,-0.768644,-1.16845,0.493823,0
62790,-0.761772,-1.16649,0.484668,0
62810,-0.757154,-1.16354,0.477181,0
62830,-0.753215,-1.15978,0.470225,0
62850,-0.747703,-1.15646,0.462021,0
62870,-0.741821,-1.15363,0.453989,0
62890,-0.738161,-1.15035,0.448032,0
62910,-0.73484,-1.14792,0.441824,0
62930,-0.731098,-1.14534,0.435644,0
62950,-0.728459,-1.14284,0.430391,0
62970,-0.725516,-1.14077,0.425681,0
62990,-0.721772,-1.13831,0.420888,0
63010,-0.717846,-1.13669,0.41574,0
63030,-0.715479,-1.135,0.412029,0
63050,-0.713083,-1.13298,0.407537,0
63070,-0.710311,-1.13081,0.40305,0
63090,-0.707837,-1.12878,0.39953,0
63110,-0.706627,-1.12688,0.396462,0
63130,-0.705044,-1.12428,0.392576,0
63150,-0.704004,-1.12135,0.389019,0
63170,-0.701723,-1.11924,0.385324,0
63190,-0.698143,-1.11728,0.380275,0
63210,-0.694872,-1.11543,0.37534,0
63230,-0.692297,-1.1138,0.370845,0
63250,-0.689255,-1.11205,0.366173,0
63270,-0.686871,-1.10971,0.362811,0
63290,-0.685127,-1.10745,0.359689,0
63310,-0.682391,-1.1045,0.355643,0
63330,-0.681856,-1.10165,0.353086,0
63350,-0.680211,-1.09852,0.349421,0
63370,-0.678067,-1.096,0.346205,0
63390,-0.676588,-1.09363,0.343916,0
63410,-0.67488,-1.09181,0.340942,0
63430,-0.674578,-1.08935,0.339361,0
63450,-0.673297,-1.08585,0.337299,0
63470,-0.673104,-1.08241,0.336668,0
63490,-0.672493,-1.0786,0.335575,0
63510,-0.670417,-1.07462,0.332957,0
63530,-0.669873,-1.07021,0.331591,0
63550,-0.671356,-1.06519,0.331683,0
63570,-0.672756,-1.05972,0.330958,0
63590,-0.6728,-1.0531,0.329413,0
63610,-0.673395,-1.04643,0.329241,0
63630,-0.673005,-1.0403,0.32858,0
63650,-0.674268,-1.03508,0.329371,0
63670,-0.675476,-1.02958,0.329515,0
63690,-0.676337,-1.02376,0.329274,0
63710,-0.678073,-1.01842,0.329958,0
63730,-0.679923,-1.01391,0.331091,0
63750,-0.680786,-1.00921,0.332145,0
63770,-0.682114,-1.00437,0.333342,0
63790,-0.684044,-1.00027,0.334887,0
63810,-0.685897,-0.99581,0.336523,0
63830,-0.688454,-0.991468,0.338812,0
63850,-0.690442,-0.986943,0.34075,0
63870,-0.692142,-0.982068,0.342671,0
63890,-0.693091,-0.977403,0.343925,0
63910,-0.694804,-0.973199,0.345478,0
63930,-0.698655,-0.968572,0.348273,0
63950,-0.701247,-0.963652,0.349569,0
63970,-0.701085,-0.95891,0.348952,0
63990,-0.700152,-0.95474,0.349916,0
64010,-0.699289,-0.951465,0.350697,0
64030,-0.69895,-0.948118,0.351175,0
64050,-0.697687,-0.944453,0.350452,0
64070,-0.696887,-0.94039,0.350549,0
64090,-0.697018,-0.937163,0.350754,0
64110,-0.697841,-0.933501,0.351194,0
64130,-0.698566,-0.929772,0.351756,0
64150,-0.698296,-0.92608,0.352053,0
64170,-0.69498,-0.923197,0.349635,0
64190,-0.689211,-0.920429,0.347334,0
64210,-0.686615,-0.918583,0.34923,0
64230,-0.686781,-0.918533,0.352467,0
64250,-0.688169,-0.918412,0.354581,0
64270,-0.691406,-0.916413,0.356313,0
64290,-0.695952,-0.914333,0.359739,0
64310,-0.700381,-0.91194,0.364477,0
64330,-0.703866,-0.909791,0.369701,0
64350,-0.708611,-0.907287,0.375131,0
64370,-0.712458,-0.904578,0.377993,0
64390,-0.717327,-0.901803,0.381751,0
64410,-0.722537,-0.898391,0.38553,0
64430,-0.725527,-0.894826,0.389285,0
64450,-0.728183,-0.891977,0.393539,0
64470,-0.730249,-0.890038,0.396878,0
64490,-0.734448,-0.887637,0.400807,0
64500,-0.738629,-0.884609,0.404354,0
64520,-0.743086,-0.882143,0.408573,0
64540,-0.747281,-0.88009,0.413091,0
64560,-0.751078,-0.877406,0.417859,0
64580,-0.75516,-0.874622,0.422985,0
64600,-0.759375,-0.873047,0.427495,0
64620,-0.76376,-0.87156,0.431738,0
64640,-0.767675,-0.868485,0.436259,0
64660,-0.772171,-0.86634,0.442826,0
64680,-0.776674,-0.864603,0.449102,0
64700,-0.780121,-0.862701,0.453259,0
64720,-0.784428,-0.859628,0.458317,0
64740,-0.789444,-0.856637,0.465477,0
64760,-0.79398,-0.85453,0.472138,0
64780,-0.79866,-0.85283,0.478492,0
64800,-0.803816,-0.850369,0.484454,0
64820,-0.809467,-0.848552,0.491391,0
64840,-0.815165,-0.847199,0.498857,0
64860,-0.820418,-0.845529,0.50599,0
64880,-0.824809,-0.844349,0.513006,0
64900,-0.830913,-0.843451,0.5211,0
64920,-0.836459,-0.8422,0.528937,0
64940,-0.842104,-0.841522,0.536223,0
64960,-0.847821,-0.840901,0.54385,0
64980,-0.853642,-0.839501,0.552025,0
65000,-0.859549,-0.838727,0.560604,0
65020,-0.865858,-0.83858,0.568849,0
65040,-0.873058,-0.836695,0.577257,0
65060,-0.878807,-0.833696,0.584519,0
65080,-0.883157,-0.832009,0.590736,0
65100,-0.888648,-0.830347,0.596887,0
65120,-0.893852,-0.827739,0.602038,0
65140,-0.898063,-0.826092,0.607728,0
65160,-0.900032,-0.824546,0.611593,0
65180,-0.901496,-0.822814,0.615012,0
65200,-0.903905,-0.821715,0.617728,0
65220,-0.906432,-0.819937,0.620725,0
65240,-0.908895,-0.818047,0.625046,0
65260,-0.909852,-0.816906,0.627812,0
65280,-0.910458,-0.816094,0.630161,0
65300,-0.913974,-0.814153,0.634048,0
65320,-0.918279,-0.81234,0.637961,0
65340,-0.921066,-0.810705,0.641868,0
65360,-0.922916,-0.808744,0.645954,0
65380,-0.926595,-0.807058,0.651234,0
65400,-0.931733,-0.805374,0.656759,0
65420,-0.936945,-0.803105,0.662209,0
65440,-0.940873,-0.80084,0.667425,0
65460,-0.945324,-0.799105,0.673368,0
65480,-0.949757,-0.796498,0.679545,0
65500,-0.954866,-0.79384,0.685926,0
65520,-0.959417,-0.792584,0.692098,0
65540,-0.963717,-0.790623,0.697976,0
65560,-0.969051,-0.788747,0.704806,0
65580,-0.974986,-0.787218,0.712075,0
65600,-0.979941,-0.785227,0.717776,0
65620,-0.9837,-0.783276,0.722654,0
65640,-0.98835,-0.780726,0.728665,0
65660,-0.992115,-0.778454,0.734105,0
65680,-0.994969,-0.77582,0.739085,0
65700,-0.99901,-0.773645,0.743939,0
65720,-1.00382,-0.770288,0.749146,0
65740,-1.00856,-0.767394,0.755146,0
65760,-1.01269,-0.764501,0.760821,0
65780,-1.01699,-0.7619,0.766489,0
65800,-1.02254,-0.759252,0.772853,0
65820,-1.02838,-0.756898,0.779694,0
65840,-1.03376,-0.754871,0.786661,0
65860,-1.03776,-0.753366,0.793242,0
65880,-1.0422,-0.752471,0.800008,0
65900,-1.04802,-0.751264,0.80709,0
65920,-1.05387,-0.750328,0.813932,0
65940,-1.05936,-0.749939,0.821386,0
65960,-1.06562,-0.750385,0.828992,0
65980,-1.07128,-0.750243,0.835797,0
66000,-1.07749,-0.750565,0.842874,0
66020,-1.08369,-0.751688,0.849987,0
66040,-1.08934,-0.753192,0.856844,0
66060,-1.09442,-0.754789,0.863523,0
66080,-1.09927,-0.757011,0.869904,0
66100,-1.10464,-0.759827,0.876644,0
66120,-1.11008,-0.762536,0.883913,0
66140,-1.1156,-0.765396,0.892213,0
66160,-1.12156,-0.769121,0.901002,0
66180,-1.12752,-0.772749,0.90929,0
66200,-1.13381,-0.775898,0.917521,0
66220,-1.14196,-0.778804,0.927403,0
66240,-1.15077,-0.781912,0.937563,0
66260,-1.15855,-0.784549,0.94688,0
66280,-1.16555,-0.787058,0.955771,0
66300,-1.17283,-0.790135,0.965155,0
66320,-1.18056,-0.793336,0.974524,0
66340,-1.18701,-0.796488,0.983071,0
66360,-1.19232,-0.799555,0.991407,0
66380,-1.19797,-0.802806,0.999908,0
66400,-1.20273,-0.805517,1.00824,0
66420,-1.20677,-0.808419,1.0165,0
66440,-1.21173,-0.811289,1.02512,0
66460,-1.21687,-0.813912,1.03325,0
66480,-1.22182,-0.816029,1.04098,0
66500,-1.22599,-0.817986,1.04811,0
66520,-1.23123,-0.819853,1.05621,0
66540,-1.23628,-0.821361,1.06355,0
66560,-1.24052,-0.822467,1.07024,0
66580,-1.24572,-0.823576,1.07799,0
66600,-1.25129,-0.824677,1.08601,0
66620,-1.25667,-0.826329,1.09359,0
