Timestamp, Rotation x, Rotation y, Rotation z, Marker
50,1.25,0.25,-1.5,0
60,0.3125,0.375,-0.6875,0
80,-0.8125,0.6875,0.125,0
100,-1.5,1,0.625,0
120,-2.0625,1.125,0.9375,0
140,-2.3125,1.25,1,0
160,-2.5,1.25,0.9375,0
170,-2.375,1.0625,0.8125,0
170,-2.375,1.125,0.5625,0
210,-1.8125,0.875,0,0
230,-1.8125,1.0625,0.125,0
250,-1.5625,0.8125,0.375,0
270,-0.6875,0.4375,0.375,0
290,0.125,0.0625,-0.0625,0
310,0.5,0.1875,-0.6875,0
330,0.25,0.375,-0.6875,0
350,-0.3125,0.5625,-0.4375,0
370,-0.8125,0.4375,-0.0625,0
390,-0.75,0.375,-0.125,0
410,-0.375,0.0625,-0.25,0
430,0.1875,0,-0.1875,0
450,0.5625,-0.125,-0.25,0
470,0.4375,-0.25,-0.0625,0
490,0.0625,-0.1875,0.0625,0
510,0.125,-0.375,0.25,0
530,0.5,-0.375,0.375,0
550,0.5625,-0.25,0.5625,0
570,0.5,-0.25,0.6875,0
590,0.125,-0.1875,0.625,0
610,0.1875,-0.125,0.4375,0
630,0.25,-0.1875,0.25,0
650,0.75,-0.4375,-0.0625,0
670,1,-0.5,-0.3125,0
690,1.0625,-0.4375,-0.375,0
710,1.0625,-0.3125,-0.5,0
730,0.75,-0.375,-0.375,0
750,0.6875,-0.25,-0.3125,0
770,0.5,-0.375,-0.125,0
790,0.375,-0.25,-0.0625,0
810,0.4375,-0.25,0,0
830,0.5625,-0.25,0.0625,0
850,0.375,-0.1875,0.25,0
870,0,0,0.375,0
890,0,-0.0625,0.375,0
910,-0.0625,0,0.4375,0
920,-0.25,0.125,0.3125,0
940,-0.0625,0.125,-0.0625,0
960,0.0625,0.0625,-0.0625,0
980,0.25,-0.125,0.1875,0
1000,0.625,-0.1875,0.0625,0
1020,0.5625,-0.25,-0.3125,0
1040,0.1875,0.1875,-0.4375,0
1060,-0.5,0.25,-0.25,0
1080,-1.1875,0.3125,0.125,0
1100,-1.5625,0.375,0.25,0
1120,-1.3125,0.125,0.0625,0
1140,-0.625,0.0625,-0.125,0
1160,0.0625,-0.125,-0.3125,0
1180,0.0625,-0.0625,-0.375,0
1200,-0.3125,0,-0.375,0
1220,-0.375,-0.0625,-0.25,0
1240,-0.1875,-0.125,-0.125,0
1260,0.125,0.0625,-0.1875,0
1280,0.125,0.0625,0.1875,0
1300,-0.125,0.0625,0.0625,0
1320,-0.0625,0.0625,0.125,0
1340,-0.1875,0.0625,0.0625,0
1360,0.125,-0.125,0,0
1380,0.3125,-0.125,0,0
1400,0.5,-0.1875,-0.125,0
1420,0.5,-0.1875,-0.125,0
1440,0.375,-0.125,0.125,0
1460,0.125,-0.1875,0.125,0
1480,0.0625,-0.125,0,0
1500,0.25,-0.125,-0.0625,0
1520,0.3125,-0.125,0.0625,0
1540,0.4375,-0.25,0,0
1560,0.5625,-0.3125,-0.0625,0
1580,0.4375,-0.125,0.125,0
1600,0.25,-0.1875,0.125,0
1620,0.125,-0.125,0.1875,0
1640,0.125,-0.1875,0.25,0
1660,0.0625,-0.125,0.0625,0
1680,0.125,-0.125,-0.125,0
1700,0.1875,0,0,0
1720,0.25,-0.125,0.1875,0
1740,0.5625,-0.3125,0.125,0
1760,0.6875,-0.375,-0.3125,0
1780,0.3125,0.1875,-0.375,0
1800,-0.375,0.3125,-0.125,0
1820,-1.25,0.4375,0.1875,0
1840,-1.5,0.3125,0.375,0
1860,-1.0625,0.0625,0.125,0
1880,-0.4375,0,-0.0625,0
1900,0.0625,-0.1875,-0.125,0
1920,0,-0.0625,-0.25,0
1940,-0.375,0.0625,-0.3125,0
1960,-0.6875,0.0625,-0.1875,0
1980,-0.4375,0,-0.0625,0
2000,-0.25,0.1875,-0.125,0
2020,-0.25,0.25,0.25,0
2040,-0.4375,0.25,0.125,0
2060,-0.6875,0.4375,0.125,0
2080,-0.625,0.25,0.0625,0
2100,-0.375,0.25,0,0
2120,-0.0625,0,0.0625,0
2140,-0.3125,0.125,-0.1875,0
2160,-0.0625,0.125,-0.25,0
2180,-0.25,0.125,-0.1875,0
2200,-0.5,0.0625,0.0625,0
2220,-0.375,0.0625,0,0
2240,-0.375,0,0,0
2260,-0.25,0.0625,-0.0625,0
2280,-0.0625,-0.0625,-0.125,0
2300,0.125,0.0625,0.0625,0
2320,-0.125,0.0625,0.1875,0
2340,-0.3125,0.0625,0.125,0
2360,-0.3125,0.0625,0.1875,0
2380,-0.1875,0.0625,0.25,0
2400,-0.0625,0.0625,0,0
2440,0.25,-0.125,0.0625,0
2460,0.5,-0.1875,0.125,0
2480,0.5,-0.375,-0.1875,0
2500,0.25,0,-0.5,0
2520,-0.3125,0.1875,-0.25,0
2540,-0.8125,0.125,0.125,0
2560,-1.125,0.0625,0.375,0
2580,-0.75,-0.125,0.1875,0
2600,-0.1875,-0.1875,0.0625,0
2620,0.375,-0.3125,-0.125,0
2640,0.4375,-0.1875,-0.25,0
2660,-0.0625,-0.125,-0.25,0
2680,-0.125,-0.125,-0.125,0
2700,-0.0625,-0.1875,-0.125,0
2720,0.125,0.0625,0,0
2740,0.1875,0.125,0.25,0
2760,-0.0625,0.1875,0.125,0
2780,-0.4375,0.25,0.125,0
2800,-0.375,0.125,0,0
2820,-0.125,0.0625,0.0625,0
2840,0.0625,-0.0625,-0.125,0
2850,0.25,-0.0625,-0.25,0
2870,0.0625,0,-0.25,0
2890,-0.1875,0,-0.125,0
2910,-0.25,0.0625,-0.0625,0
2930,-0.3125,-0.0625,-0.0625,0
2950,-0.3125,0,0,0
2970,-0.1875,0.0625,0,0
2990,-0.1875,0.0625,-0.0625,0
3010,-0.0625,0.0625,0.0625,0
3030,-0.3125,0.0625,0.125,0
3050,-0.5,0.0625,0.1875,0
3070,-0.5,0.0625,0.3125,0
3090,-0.5,0.125,-0.0625,0
3110,-0.125,0.125,-0.0625,0
3130,-0.1875,0.1875,0.0625,0
3150,0.125,0,0.25,0
3170,0.25,-0.25,0,0
3190,0.25,-0.0625,-0.375,0
3210,-0.1875,0.25,-0.3125,0
3230,-0.75,0.3125,0,0
3250,-1.375,0.375,0.25,0
3270,-1.125,0.125,0.375,0
3290,-0.75,-0.0625,0.0625,0
3310,0.0625,-0.125,-0.0625,0
3330,0.375,-0.25,-0.125,0
3350,-0.0625,-0.125,-0.25,0
3370,-0.1875,-0.125,-0.125,0
3390,-0.25,-0.125,0,0
3410,-0.0625,0,-0.0625,0
3430,0.1875,0.0625,0.125,0
3450,0.125,0.125,0.1875,0
3470,-0.1875,0.1875,0.0625,0
3490,-0.4375,0.125,0.125,0
3510,-0.0625,-0.0625,-0.0625,0
3530,0.375,-0.3125,-0.1875,0
3550,0.375,-0.25,-0.1875,0
3570,0.5,-0.125,-0.4375,0
3590,0.25,-0.125,-0.375,0
3610,0.0625,-0.0625,-0.1875,0
3630,0,-0.125,-0.1875,0
3650,-0.125,-0.1875,-0.0625,0
3670,-0.0625,-0.125,-0.0625,0
3690,0.125,-0.0625,-0.1875,0
3710,0,-0.0625,-0.0625,0
3730,-0.125,0,0,0
3750,-0.1875,-0.0625,0.0625,0
3770,-0.1875,-0.0625,0.1875,0
3790,0.125,-0.125,0.1875,0
3810,0.1875,0,-0.125,0
3830,0.75,0,-0.125,0
3850,0.6875,-0.125,0.125,0
3870,0.8125,-0.25,0.25,0
3890,0.75,-0.25,0,0
3910,0.375,0,-0.3125,0
3930,0,0.25,-0.1875,0
3950,-0.375,0.1875,0.0625,0
3970,-0.6875,0.25,0.1875,0
3990,-0.375,-0.25,0.1875,0
4010,-0.125,-0.3125,0,0
4030,0.625,-0.4375,-0.1875,0
4050,0.5625,-0.375,-0.3125,0
4070,-0.0625,-0.25,-0.3125,0
4090,-0.1875,-0.125,-0.1875,0
4110,-0.1875,-0.25,-0.0625,0
4130,0.0625,-0.0625,-0.25,0
4150,0,0.0625,0,0
4170,-0.125,0.125,0.0625,0
4190,-0.5625,0.3125,0.125,0
4210,-0.5625,0.25,0,0
4230,-0.4375,0.125,0,0
4250,-0.1875,0,-0.125,0
4270,0.3125,-0.125,-0.1875,0
4290,0.375,-0.1875,-0.375,0
4310,0.4375,-0.1875,-0.375,0
4330,0,-0.0625,-0.3125,0
4350,-0.25,0,-0.25,0
4370,-0.375,-0.0625,-0.0625,0
4390,-0.1875,-0.0625,-0.0625,0
4410,-0.1875,0.0625,0,0
4430,-0.0625,0,-0.0625,0
4450,-0.125,0,0.0625,0
4470,-0.1875,0.0625,0.1875,0
4490,-0.3125,0.0625,0.125,0
4510,-0.25,0.0625,0.0625,0
4530,-0.25,0.0625,0.0625,0
4550,-0.1875,0.1875,-0.1875,0
4570,0,0.1875,-0.0625,0
4590,0.125,-0.0625,0.125,0
4610,0.4375,-0.25,0.0625,0
4630,0.5,-0.25,-0.3125,0
4650,0.0625,0.1875,-0.5625,0
4670,-0.25,0.25,-0.1875,0
4690,-0.875,0.375,0.125,0
4710,-1.0625,0.125,0.4375,0
4730,-0.75,0,0.25,0
4750,-0.1875,-0.1875,0,0
4770,0.4375,-0.3125,0,0
4790,0.4375,-0.3125,-0.1875,0
4810,0,-0.1875,-0.25,0
4830,0.0625,-0.25,-0.125,0
4850,0,-0.1875,-0.0625,0
4870,0.3125,-0.0625,-0.0625,0
4890,0.5,-0.0625,0.125,0
4910,0.25,0,0.125,0
4930,-0.0625,0.0625,0.0625,0
4950,-0.125,0.0625,-0.0625,0
4970,0.0625,-0.1875,-0.1875,0
4990,0.375,-0.25,-0.3125,0
5010,0.4375,-0.3125,-0.3125,0
5030,0.375,-0.3125,-0.3125,0
5050,0.25,-0.1875,-0.1875,0
5070,0.125,-0.25,-0.0625,0
5090,0.0625,-0.1875,-0.125,0
5110,0,-0.25,-0.0625,0
5130,0.1875,-0.125,-0.0625,0
5150,0.3125,-0.0625,0,0
5170,0.1875,-0.125,0.0625,0
5190,-0.0625,0,0.125,0
5210,-0.0625,-0.0625,0.1875,0
5230,-0.0625,0,0.1875,0
5250,0.0625,0,0,0
5270,0.125,-0.0625,0,0
5290,0.0625,-0.125,-0.3125,0
5310,0.125,0.125,-0.1875,0
5330,-0.1875,0.125,-0.0625,0
5350,-0.5625,0.1875,-0.0625,0
5370,-0.5,0.0625,-0.5625,0
5390,-0.8125,0.4375,-1,0
5410,-2,0.625,-0.625,0
5430,-2.9375,0.5,-0.5,0
5450,-2.0625,-0.125,-0.4375,0
5470,-0.125,-0.6875,-0.625,0
5490,1.5625,-1.3125,-0.9375,0
5510,3.8125,-2.3125,-1.3125,0
5530,5,-2.625,-1.1875,0
5550,4.375,-2.25,-1.0625,0
5570,3.5625,-2,-0.6875,0
5590,3.375,-2.0625,0.3125,0
5610,3.1875,-1.8125,1.0625,0
5630,3.4375,-1.625,1.9375,0
5650,3.0625,-1.1875,2.1875,0
5670,2.4375,-0.9375,2.0625,0
5690,1.5,-0.6875,1.9375,0
5710,0.5625,-0.4375,1.5625,0
5730,0.3125,-0.3125,1.25,0
5750,0.1875,-0.125,0.9375,0
5770,0.1875,-0.4375,0.5625,0
5790,0.5,-0.5625,0,0
5810,0.75,-0.75,-0.6875,0
5830,0.5625,-0.5625,-1.25,0
5850,0.5625,-0.625,-1.8125,0
5870,-0.375,-0.125,-1.625,0
5890,-1.5,0.375,-1.5625,0
5910,-2.75,1,-1.3125,0
5930,-3.875,1.3125,-1,0
5950,-5.125,1.9375,-0.8125,0
5970,-6.8125,2.4375,-0.75,0
5990,-8.0625,3.3125,-0.8125,0
6010,-9.0625,3.9375,-0.8125,0
6030,-10.625,4.4375,-0.8125,0
6050,-11.6875,4.8125,-1.0625,0
6070,-10,4.625,-1.3125,0
6090,-7.875,4.0625,-1.5,0
6110,-5.125,3,-2.25,0
6130,-3.875,2.5,-2.9375,0
6150,-3.375,2.125,-3.0625,0
6170,-1.625,1.1875,-3.125,0
6190,1.125,-0.375,-2.5,0
6210,1.6875,-0.875,-1.4375,0
6230,0.1875,-0.1875,-1,0
6250,-2.75,1.75,-0.5,0
6270,-5.25,2.875,0.25,0
6290,-5.5625,3.0625,1.125,0
6300,-4.4375,2.5625,1.5,0
6320,-2.4375,1.9375,1.375,0
6340,-0.375,1.3125,0.625,0
6360,0.6875,0.75,0.375,0
6380,1.125,0,0,0
6400,1.25,-0.3125,-0.5625,0
6420,1.8125,-0.6875,-0.875,0
6440,2.375,-0.8125,-0.75,0
6460,2.1875,-0.6875,-0.25,0
6480,1.5625,-0.4375,0.0625,0
6500,1.125,-0.5,0.125,0
6520,1.375,-0.6875,0,0
6540,1.75,-0.9375,-0.1875,0
6560,2.25,-1.125,-0.0625,0
6580,2.5,-1,0.125,0
6600,2.625,-1.125,0.375,0
6620,2.6875,-1.3125,0.4375,0
6640,2.875,-1.6875,0.4375,0
6660,3.1875,-2.125,0.3125,0
6680,3.5625,-2.25,0,0
6700,3.9375,-2.4375,-0.25,0
6720,3.5,-2.375,-0.5,0
6740,2.5625,-2.375,-0.6875,0
6760,-0.25,-1.4375,-0.875,0
6780,-4.625,0.8125,-0.5625,0
6800,-9.4375,3.5,-0.3125,0
6820,-13,5.25,0.1875,0
6840,-14.125,5.6875,0.5,0
6860,-12.875,5.125,0.1875,0
6880,-10.4375,3.3125,0,0
6900,-6.4375,2,-1.125,0
6920,-0.9375,0.3125,-2.5,0
6940,3.3125,-1.0625,-3.75,0
6960,5.0625,-1.125,-5.3125,0
6980,3,-0.75,-6.4375,0
7000,-0.75,1.25,-7.0625,0
7020,-3.875,4.1875,-10.9375,0
7040,-9.75,3.625,-3.3125,0
7060,1.625,1.25,-4.4375,0
7080,-1.5,0.5,-2.125,0
7100,-0.375,0.375,-2.3125,0
7120,2.4375,-0.875,-0.75,0
7140,3.1875,-0.4375,-0.5,0
7160,1.625,0.4375,-0.25,0
7180,0.9375,0.625,-0.1875,0
7200,0.0625,0.75,0.1875,0
7220,-1.3125,0.875,0.625,0
7240,-1.5,0.875,0.9375,0
7260,-0.6875,0.5625,1.125,0
7280,0.8125,0,1.0625,0
7300,3,-1,0.875,0
7320,4.75,-1.6875,0.25,0
7340,5.6875,-2.25,-0.3125,0
7360,5.75,-2.3125,-0.5625,0
7380,4.25,-1.5625,-0.125,0
7400,1.875,-0.5625,0.1875,0
7420,-2,0.9375,1.125,0
7440,-5.3125,2.0625,2.0625,0
7460,-7.6875,2.75,2.4375,0
7480,-9.5,3.375,2.3125,0
7500,-9.375,3.5,1.75,0
7520,-9,3.5,0.9375,0
7540,-9,4.125,-0.1875,0
7560,-10.4375,5.625,-1.4375,0
7580,-14.6875,7.75,-2,0
7600,-19.375,10.9375,-3.9375,0
7620,-20.375,11,-4,0
7640,-22,12.25,-5.5625,0
7660,-22.8125,11.9375,-5,0
7680,-21.6875,12.5625,-4.1875,0
7700,-17.3125,11,-6.25,0
7720,-15.3125,9.3125,-5.1875,0
7740,-11.4375,8.4375,-6.0625,0
7760,-10.375,7.125,-6.0625,0
7780,-9.125,6.5,-6.25,0
7800,-8.875,5.8125,-6.5,0
7820,-9.5625,7,-6.875,0
7840,-13.125,7.625,-7.875,0
7860,-16.4375,7,-6.25,0
7880,-14.625,8.3125,-6.625,0
7900,-17.625,10.5,-4.8125,0
7920,-19.4375,10.9375,-4.3125,0
7940,-21.6875,10.3125,-3.6875,0
7960,-22.0625,9.4375,-1.5,0
7980,-19.8125,7.625,-1,0
8000,-18.4375,7.4375,-0.625,0
8020,-17.0625,7.4375,-0.5625,0
8040,-13.5,7.6875,-0.875,0
8060,-9.75,6.8125,-1.3125,0
8080,-7.625,6.3125,-0.5,0
8100,-7.25,6.4375,-0.0625,0
8120,-7.875,6.25,0.4375,0
8140,-9.375,7,1.9375,0
8160,-9.8125,8.0625,3.75,0
8180,-8.6875,7.125,4.0625,0
8200,-8.125,6.375,4.6875,0
8220,-9,5.5,3.5,0
8230,-9.375,5.625,3,0
8250,-9.75,5.25,1.6875,0
8270,-8.3125,5.1875,0.25,0
8290,-6.5,5.4375,-1.375,0
8310,-4.375,5.5,-2.5625,0
8330,-2.75,5.4375,-4.0625,0
8350,-3.0625,5.8125,-3.9375,0
8370,-3.25,5.1875,-3.3125,0
8390,-3,5.5625,-3.75,0
8410,-4.5,5.375,-2.875,0
8430,-6,4.75,-1.6875,0
8450,-7.1875,3.875,-1.1875,0
8470,-7.375,3.3125,-1,0
8490,-6.5625,2.9375,-0.75,0
8510,-5.3125,2.6875,-0.5625,0
8530,-3.8125,2.4375,-0.5,0
8550,-3.25,2.6875,-0.6875,0
8570,-2.3125,1.9375,-0.8125,0
8590,-1.8125,0.6875,-0.75,0
8610,-1.125,-0.25,-0.6875,0
8630,0.3125,-0.625,-0.625,0
8650,0.75,-0.8125,-0.5,0
8670,0.5625,-0.875,-0.1875,0
8690,-0.3125,-0.875,0,0
8710,-1.25,-0.5,0.375,0
8730,-0.25,-0.9375,0.4375,0
8750,1,-1.375,0,0
8770,1.9375,-1.25,-0.25,0
8790,2.8125,-1.0625,-0.5,0
8810,2.6875,-1,-0.5625,0
8830,3.0625,-0.9375,-0.875,0
8850,2.6875,-0.6875,-0.75,0
8870,2.5,-0.375,-0.8125,0
8890,1.875,-0.0625,-0.75,0
8910,0.9375,0.3125,-0.75,0
8930,0.375,0.625,-0.875,0
8950,0.0625,0.625,-0.8125,0
8970,0.375,0.375,-0.8125,0
8990,1.5,-0.125,-1,0
9010,3.3125,-0.75,-1.3125,0
9030,4.6875,-1.1875,-1.75,0
9050,5.3125,-1.3125,-2.25,0
9070,5.9375,-1.3125,-2.75,0
9090,6.9375,-1.375,-2.5625,0
9110,6.8125,-1.75,-1.875,0
9130,6.4375,-2.0625,-0.75,0
9150,5.5,-1.875,-0.125,0
9170,4.25,-1.9375,-0.1875,0
9190,3.875,-2.1875,0.0625,0
9210,3.4375,-2.1875,0.5625,0
9230,3.0625,-2.3125,0.75,0
9250,3.3125,-2.5,0.875,0
9270,3.5625,-2.6875,0.8125,0
9290,3.875,-2.6875,0.9375,0
9310,3.9375,-2.5625,1.125,0
9330,4.0625,-2.9375,1.375,0
9350,4.9375,-3.3125,1.5,0
9370,6.6875,-4,1.5625,0
9390,9.4375,-5.3125,1.5625,0
9410,12.375,-6.5625,0.8125,0
9430,15.1875,-7.6875,0.5,0
9450,17.3125,-8.5625,0.4375,0
9470,18.0625,-9,0.75,0
9490,18.6875,-9.375,1,0
9510,19.3125,-9.8125,0.5,0
9530,20.5,-10.4375,0.375,0
9550,22.9375,-10.6875,1.1875,0
9570,22.5625,-10.6875,1.4375,0
9590,19.875,-9.25,2.25,0
9610,16.3125,-8.375,3.25,0
9630,12.375,-7.4375,4.625,0
9650,8.1875,-6.25,5.1875,0
9670,4.75,-5.1875,5.4375,0
9690,2.875,-4.8125,5.8125,0
9710,0.8125,-5.25,5.4375,0
9730,-0.375,-5.4375,5.0625,0
9750,-2.125,-4.8125,4.875,0
9770,-1.75,-4.25,4.5625,0
9790,-1.375,-5.5625,4,0
9810,-1,-6.3125,3.5,0
9830,3.0625,-6.3125,3.4375,0
9850,8.375,-7.0625,2.375,0
9870,13.375,-7.5,0.9375,0
9890,15.625,-7.375,0.1875,0
9910,14.1875,-6.1875,-0.6875,0
9930,11.1875,-5.3125,-1.0625,0
9950,7.5625,-3.875,-1.125,0
9970,4.8125,-2.75,-0.6875,0
9990,1.25,-1.125,0,0
10010,-1.375,-0.375,0.0625,0
10030,-2.1875,0.25,-0.0625,0
10050,-0.75,0.375,-0.375,0
10070,0.6875,0.375,-1.25,0
10090,1.625,0.125,-1.625,0
10110,1.9375,0,-2,0
10130,2.125,-0.3125,-2.3125,0
10150,2.5,-0.25,-2.25,0
10170,2.9375,-0.3125,-2.0625,0
10190,2.875,-0.3125,-1.8125,0
10210,2,0.0625,-1.4375,0
10230,0.9375,0.0625,-0.9375,0
10250,0.125,0.3125,-0.125,0
10270,-0.25,0,0.3125,0
10290,-0.375,-0.25,0.625,0
10310,-0.4375,-0.3125,0.8125,0
10330,0.0625,-0.1875,0.75,0
10350,0.3125,-0.3125,0.75,0
10370,-0.1875,-0.8125,0.75,0
10390,0,-0.8125,1.0625,0
10410,0.5,-0.6875,0.6875,0
10430,1,-1.0625,0.1875,0
10450,1.5,-1,0.3125,0
10470,1.5625,-1.5,0.375,0
10490,2.0625,-2,0.4375,0
10510,2.8125,-2.8125,0.1875,0
10530,3.0625,-3.375,0.3125,0
10550,3.25,-3.5,0,0
10570,4.5625,-4.125,-0.5,0
10590,4.875,-4.5,-0.75,0
10610,5.625,-4.5625,-1.625,0
10630,5.75,-4.3125,-1.75,0
10650,4.8125,-3.375,-3.0625,0
10670,1.875,-1.3125,-3.5625,0
10690,-1.8125,0.3125,-3.8125,0
10710,-4.8125,1.4375,-3.625,0
10730,-7.0625,2.25,-2.625,0
10750,-8.8125,3.1875,-1.3125,0
10770,-10.5,4.0625,-0.5,0
10790,-11.6875,4.5,0.625,0
10810,-11.5625,4.75,1.1875,0
10830,-11.0625,4.5,1.75,0
10850,-10.0625,4.3125,2.0625,0
10870,-9.8125,4.125,2.0625,0
10890,-10.4375,5,2.1875,0
10910,-12.6875,6.0625,2.0625,0
10930,-14.5,6.9375,1.5625,0
10950,-15.375,6.9375,1.125,0
10970,-14.5625,6.75,0.625,0
10990,-12.6875,6.6875,0.1875,0
11010,-11.3125,6.3125,0.1875,0
11030,-9.9375,6.375,0.25,0
11050,-8.9375,6,0.1875,0
11070,-8.3125,5.375,0.1875,0
11090,-8.1875,5.3125,0.125,0
11110,-7.375,5.4375,-0.1875,0
11130,-6.1875,5.1875,0.0625,0
11150,-5.8125,5.125,0.6875,0
11170,-5.6875,5.25,1.4375,0
11190,-5.9375,5.0625,1.5625,0
11210,-6.625,4.9375,1.375,0
11230,-6.875,5.1875,1.25,0
11250,-6.5625,5.5,0.875,0
11270,-5.5625,5.375,0.3125,0
11290,-4.1875,4.5,0.5625,0
11310,-3.9375,3.9375,0.75,0
11330,-4.4375,3.6875,1,0
11350,-4.625,4,1.3125,0
11370,-5.1875,4.3125,1.8125,0
11390,-5.6875,4.25,1.75,0
11410,-5.875,3.625,1.5625,0
11430,-5.3125,3.125,1.3125,0
11450,-4.1875,2.4375,1,0
11470,-2.625,1.9375,0.5625,0
11490,-1.375,1.1875,0.0625,0
11510,-0.4375,1.0625,-0.4375,0
11530,-0.1875,1.1875,-0.4375,0
11550,-0.375,1.4375,-0.25,0
11570,-0.875,1.5625,0,0
11590,-1,1.4375,-0.25,0
11610,-0.875,1,-0.3125,0
11630,-0.5,0.625,-0.1875,0
11650,-0.6875,0.5625,0.0625,0
11670,-0.5,0.625,0.125,0
11680,-0.3125,0.25,0.125,0
11700,-0.1875,0.125,0.1875,0
11720,-0.375,-0.0625,0.25,0
11740,0.3125,-0.25,0.1875,0
11760,0.9375,-0.75,0.0625,0
11780,1.9375,-0.875,-0.4375,0
11800,2.625,-0.6875,-0.5625,0
11820,2.25,-0.4375,-0.125,0
11840,1.3125,-0.5,0.0625,0
11860,0.875,-0.625,0.25,0
11880,0.8125,-0.75,0.1875,0
11900,1.1875,-0.8125,0,0
11920,1.5625,-0.75,0.1875,0
11940,1.6875,-0.6875,0.0625,0
11960,1.25,-0.625,0.0625,0
11980,1.125,-0.75,0.125,0
12000,0.75,-0.6875,0.1875,0
12020,1,-0.625,0.0625,0
12040,1.6875,-0.5625,0.125,0
12060,1.875,-0.4375,-0.125,0
12080,1.4375,-0.5,-0.125,0
12100,0.875,-0.375,-0.0625,0
12120,0.8125,-0.4375,-0.0625,0
12140,1.125,-0.375,-0.125,0
12160,1.25,-0.5,-0.125,0
12180,1.1875,-0.5,-0.1875,0
12200,1.0625,-0.4375,-0.0625,0
12220,0.8125,-0.375,-0.125,0
12240,0.625,-0.5,-0.125,0
12260,0.25,-0.1875,-0.125,0
12280,-0.3125,0.125,0.0625,0
12300,-0.875,0.25,0.0625,0
12320,-0.6875,0.1875,0.125,0
12340,-0.3125,0.0625,-0.125,0
12360,-0.1875,0.0625,-0.3125,0
12380,0,0.0625,-0.1875,0
12400,0.125,0.125,0,0
12420,-0.125,0.375,-0.25,0
12440,0.0625,0.25,-0.125,0
12460,0.25,0,0.0625,0
12480,0.4375,-0.125,0.25,0
12500,0.125,-0.1875,0.25,0
12520,0.5625,0.125,0,0
12540,0.6875,0.25,0.0625,0
12560,0.6875,-0.0625,0.25,0
12580,0.625,-0.1875,0.3125,0
12600,1.1875,-0.75,0.4375,0
12620,2.5625,-1.5,0.25,0
12640,5.4375,-2.6875,-0.375,0
12660,8.5625,-3.625,-0.875,0
12680,11.4375,-3.75,-1.375,0
12700,12.875,-3.5625,-1.75,0
12720,13.5625,-3.25,-1.25,0
12740,12.1875,-2.8125,-0.3125,0
12760,9.375,-2.0625,0.875,0
12780,6.1875,-1.625,2.4375,0
12800,2.125,-1.375,4.3125,0
12820,-2.3125,-0.375,5.625,0
12840,-7.5,1.25,6.75,0
12860,-11.8125,2.5,7.25,0
12880,-14.5625,3.0625,6.8125,0
12900,-15.375,3.5,5.9375,0
12920,-14.875,3.375,4.6875,0
12940,-12.25,2.9375,2.9375,0
12960,-6.625,1.9375,0.9375,0
12980,-0.5,0.9375,-1.8125,0
13000,5.125,0.1875,-4.0625,0
13020,8.8125,-0.4375,-5.6875,0
13040,11.125,-0.875,-6.4375,0
13060,11.375,-1,-6.25,0
13080,9.625,-0.875,-5.375,0
13100,6.3125,-0.625,-3.8125,0
13140,-1.125,0.25,-0.6875,0
13160,-3.3125,0.625,0.6875,0
13180,-4.5625,0.9375,2.0625,0
13200,-5.125,1.25,2.875,0
13220,-5.0625,1.3125,3.25,0
13240,-4.3125,0.875,3.375,0
13260,-3.75,0.4375,3.1875,0
13280,-2.9375,0,2.75,0
13300,-1.9375,-0.3125,2.125,0
13320,0.0625,-0.375,1.5,0
13340,2,-0.375,0.875,0
13350,2.625,-0.375,0.375,0
13380,2.3125,-0.4375,-0.0625,0
13420,2.125,-0.875,-0.4375,0
13440,2.6875,-0.875,-0.75,0
13460,3.0625,-0.9375,-1.0625,0
13480,3.125,-0.75,-1.125,0
13500,2.3125,-0.5,-1.125,0
13520,1.75,-0.3125,-0.8125,0
13540,0.625,-0.125,-0.5,0
13560,0.125,0,-0.125,0
13580,-0.1875,0.0625,0.4375,0
13600,-0.6875,0.1875,0.4375,0
13620,-0.625,0.0625,0.4375,0
13640,-0.25,0,0.375,0
13650,0.3125,-0.3125,0.375,0
13670,0.5,-0.25,0.3125,0
13690,0.75,-0.4375,0.125,0
13710,0.9375,-0.5625,-0.0625,0
13730,0.8125,-0.6875,0,0
13750,1,-0.5625,-0.0625,0
13770,0.8125,-0.375,-0.125,0
13790,0.625,-0.25,0,0
13810,0.5,-0.3125,0,0
13830,0.75,-0.5,-0.0625,0
13850,1.1875,-0.4375,-0.25,0
13870,1.25,-0.4375,-0.3125,0
13890,1,-0.375,-0.3125,0
13910,0.75,-0.375,-0.25,0
13930,0.8125,-0.3125,-0.25,0
13950,0.875,-0.25,-0.25,0
13970,1,-0.3125,-0.0625,0
13990,0.75,-0.5625,0.0625,0
14010,0.3125,-0.25,0.0625,0
14030,0.5,-0.125,0.375,0
14050,1.0625,-0.75,0.5625,0
14070,1.5,-0.9375,0.3125,0
14090,2.125,-0.875,0,0
14110,2.125,-0.6875,0.0625,0
14130,1.625,-0.8125,0.375,0
14150,1.125,-0.9375,0.75,0
14170,1.0625,-1.0625,0.875,0
14190,1.3125,-1.3125,0.8125,0
14210,2.25,-1.5625,0.875,0
14230,3.3125,-1.75,1,0
14250,3.875,-1.875,0.9375,0
14270,3.9375,-1.5,1.0625,0
14290,3.25,-1.25,1.3125,0
14310,2.5625,-1.0625,2.0625,0
14330,1.5625,-1.125,2.25,0
14350,0.625,-0.9375,2.6875,0
14370,-0.25,-0.6875,2.9375,0
14390,-1.1875,-0.5,3.0625,0
14410,-1.4375,-0.4375,3.0625,0
14430,-0.8125,-0.9375,2.625,0
14450,0.8125,-1.4375,2.375,0
14470,2.8125,-1.6875,2.1875,0
14490,3.6875,-1.6875,1.6875,0
14510,4.3125,-1.9375,0.9375,0
14530,4.4375,-2.1875,0.5,0
14550,4.5,-2.4375,0,0
14570,5.125,-2.25,-0.3125,0
14590,6.0625,-2.1875,-0.875,0
14610,7.5625,-2.375,-0.875,0
14630,7.4375,-2.5,-0.625,0
14650,5.625,-2.6875,-0.625,0
14670,3.5,-2.875,-0.875,0
14690,1.6875,-3.0625,-1.4375,0
14710,2.1875,-3.125,-1.1875,0
14730,3.875,-3.4375,-1.25,0
14750,6.0625,-4.3125,-1.25,0
14770,7.375,-5,-1.8125,0
14790,8.6875,-5.25,-2.4375,0
14810,10.4375,-5.5625,-2.5625,0
14830,11.0625,-6,-2.875,0
14850,12,-6.5,-2.3125,0
14870,12.3125,-7.1875,-2.3125,0
14890,12.4375,-7.6875,-2,0
14910,12.1875,-7.4375,-1.9375,0
14930,11.5625,-7.125,-1.375,0
14950,10.25,-7.125,-0.5,0
14970,9,-7.125,0.25,0
14990,8.4375,-7.625,0.4375,0
15010,8.1875,-7.5625,0.8125,0
15030,7.125,-7.6875,0.875,0
15050,6.625,-7.5625,1.0625,0
15070,5.875,-7,1.25,0
15090,4.8125,-6.5,1.625,0
15110,4.75,-5.9375,1.75,0
15130,4.125,-5.75,1.5625,0
15150,3.1875,-5.25,1.625,0
15170,1.875,-4.8125,1.625,0
15190,1.25,-4.1875,1.875,0
15210,0.875,-3.625,2.0625,0
15230,0.25,-3.3125,1.875,0
15250,0.3125,-2.8125,1.5625,0
15270,0.0625,-2.9375,1.875,0
15290,-0.75,-2.875,1.5,0
15310,1.0625,-3.25,1,0
15330,3.75,-4.25,0.25,0
15350,6.9375,-5.0625,-0.5625,0
15370,8.25,-5.4375,-1.4375,0
15390,8.75,-5.25,-1.75,0
15410,7.9375,-4.1875,-2,0
15430,4.8125,-2.625,-1.5625,0
15450,0.375,-0.4375,-0.8125,0
15470,-4.3125,1.5,0,0
15490,-8.25,2.625,0.875,0
15510,-11.0625,3.6875,0.9375,0
15530,-11.6875,4.1875,0.6875,0
15550,-10.4375,3.75,0,0
15570,-8.125,3.125,-0.75,0
15590,-5.3125,2.75,-1.75,0
15610,-3.3125,2.4375,-2.5,0
15630,-2.375,2.5,-3.125,0
15650,-2.625,2.6875,-3.5,0
15670,-4.0625,3.25,-3.5625,0
15690,-6.0625,4.0625,-3.25,0
15710,-7.25,4.25,-2.4375,0
15730,-7.125,3.9375,-1.625,0
15750,-5.8125,3.375,-1.0625,0
15770,-4.0625,2.4375,-1.125,0
15790,-1.8125,1.625,-1.125,0
15810,0.5,0.625,-0.875,0
15830,2.625,-0.0625,-0.625,0
15850,3.9375,-0.5,-0.5,0
15860,5,-0.9375,-0.4375,0
15880,5.3125,-1.6875,-0.1875,0
15900,5.875,-2.25,0.0625,0
15920,6,-2.875,0.4375,0
15940,6.5,-3.3125,0.6875,0
15960,6.25,-3.8125,0.5625,0
15980,6.4375,-4.1875,0.5625,0
16000,6.75,-4.5625,0.5,0
16020,7.125,-4.9375,0.5,0
16040,7.75,-5.3125,0.25,0
16060,8,-5.5,0.5,0
16080,8.125,-5.5625,0.8125,0
16100,6.8125,-6,1.125,0
16120,7.125,-6.1875,1.5,0
16140,6.0625,-6.75,1.6875,0
16160,5.5,-7.1875,2.0625,0
16180,4.375,-7.6875,2.125,0
16200,3.3125,-8.5,2.125,0
16220,2.9375,-8.875,1.6875,0
16240,2.125,-8.8125,1.75,0
16260,2,-8.125,2.1875,0
16280,0.4375,-7.5625,3,0
16300,0.4375,-7.0625,3.8125,0
16320,0.25,-8.125,4.75,0
16340,-0.9375,-8.625,5.4375,0
16360,-3.125,-8.5,6.1875,0
16370,-6.5625,-9.25,7.1875,0
16390,-7.9375,-9.875,7.3125,0
16410,-10.125,-11.1875,6.8125,0
16430,-9.9375,-11.8125,6.6875,0
16450,-12.0625,-12.625,5.5,0
16470,-12.75,-12.4375,5.25,0
16490,-12.4375,-12.4375,3.875,0
16510,-10.8125,-13.9375,1.8125,0
16540,-5.125,-16.0625,-0.125,0
16560,-3.3125,-17,-2.375,0
16580,-2.4375,-18.9375,-5.375,0
16600,0.625,-18.3125,-6.25,0
16620,0.25,-17.25,-6.0625,0
16640,0.9375,-16.1875,-6.75,0
16660,2.5,-13.5,-7.1875,0
16680,1.8125,-9.25,-5.8125,0
16700,0.875,-4.0625,-4.0625,0
16720,-0.25,0.6875,-1.4375,0
16740,-1.6875,3.875,1.625,0
16760,-4.375,4.875,3.75,0
16780,-7,4.625,4.875,0
16800,-8.5,3.8125,4.25,0
16820,-5.3125,3.125,3.6875,0
16840,-0.75,2.5625,3.375,0
16860,2.25,2.625,2.0625,0
16870,3.125,2.5625,1.625,0
16880,2.25,3,1.5,0
16900,2.6875,3.75,1.25,0
16920,2.625,4.875,0.8125,0
16940,1,6,0.875,0
16960,-0.3125,6.625,1.0625,0
16970,-1.625,6.75,1.4375,0
16990,-1.6875,7,1.4375,0
17010,-2.3125,6.75,0.5,0
17030,-2.3125,6.0625,-0.8125,0
17050,-1.0625,5.75,-1.1875,0
17070,0.25,5.6875,-2.8125,0
17090,1.6875,5.6875,-4,0
17110,2.9375,5.8125,-4.9375,0
17130,3.875,5.6875,-4.0625,0
17150,4.25,5.25,-3.25,0
17170,4.9375,4.6875,-2.4375,0
17190,5.3125,4.6875,-1.875,0
17210,5.75,4.75,-1.6875,0
17230,5.9375,4.375,-1.8125,0
17250,5.5,4.125,-1.8125,0
17270,5.375,3.5625,-1.4375,0
17290,4.5625,3.3125,-0.9375,0
17310,4.25,3.4375,-0.875,0
17330,4.0625,4.0625,-1.1875,0
17340,3.125,4.75,-1.25,0
17360,1.875,5.1875,-1.3125,0
17380,1.3125,5.75,-1.3125,0
17400,1.125,5.9375,-0.8125,0
17420,1.125,5.8125,-0.9375,0
17440,1.5,5.4375,-1.1875,0
17460,2.5,5.5625,-1.625,0
17480,3.8125,5,-1.8125,0
17500,4,4.0625,-2.0625,0
17520,4.1875,3.0625,-1.8125,0
17540,5.625,1.5625,-0.625,0
17560,6.25,0.5,-0.1875,0
17580,5.4375,0.5,0.1875,0
17600,5.25,1.25,0.1875,0
17620,5.0625,1.1875,-0.25,0
17640,4.8125,0.9375,-0.5625,0
17660,5.125,0.6875,-0.5,0
17680,5.0625,0.125,-0.1875,0
17700,3.5,-0.25,0.875,0
17720,1.8125,0,1.375,0
17740,0.9375,0.875,1.6875,0
17760,0.0625,1.4375,2.125,0
17780,-0.4375,1.1875,2,0
17800,-1,1,1.625,0
17820,-1.1875,0.4375,1.5625,0
17840,-1.25,0.1875,1.375,0
17860,-1.25,0,1.0625,0
17880,-1.5,0.1875,0.875,0
17900,-1.8125,0.5625,0.375,0
17920,-1.25,0.4375,-0.25,0
17940,-0.875,0.125,-0.875,0
17960,-0.75,0.4375,-1.5,0
17980,-0.625,0.75,-1.875,0
18000,-0.6875,1.0625,-2.25,0
18020,-0.3125,1,-2.3125,0
18040,0.25,0.9375,-2.25,0
18060,0.375,0.8125,-2.0625,0
18080,0.0625,0.75,-1.875,0
18100,-0.5,0.5,-1.8125,0
18120,-0.625,0.5625,-1.5625,0
18140,-0.25,0.3125,-1.1875,0
18160,-0.1875,0.25,-0.75,0
18180,-0.25,0.0625,-0.375,0
18200,-0.5625,0.0625,-0.125,0
18220,-0.875,0.125,0.125,0
18240,-0.75,0,0.3125,0
18260,-0.625,-0.1875,0.5,0
18280,-0.8125,-0.0625,0.5625,0
18300,-0.4375,-0.3125,0.3125,0
18320,-0.1875,-0.5,0.4375,0
18340,0.25,-0.8125,0.3125,0
18360,0.5625,-0.8125,-0.1875,0
18380,1,-0.625,-0.5625,0
18400,0.9375,-0.5625,-0.75,0
18420,0.625,-0.4375,-0.6875,0
18440,0,-0.3125,-0.5625,0
18460,-0.3125,-0.1875,-0.5625,0
18480,-0.1875,-0.25,-0.6875,0
18500,0.1875,-0.3125,-0.75,0
18520,0.5625,-0.5,-0.875,0
18540,0.75,-0.4375,-1.0625,0
18560,0.9375,-0.375,-1,0
18580,0.8125,-0.5,-0.9375,0
18600,0.8125,-0.3125,-0.875,0
18620,0.9375,-0.125,-0.5625,0
18640,0.75,-0.1875,-0.3125,0
18660,0.3125,-0.1875,0,0
18680,0,-0.125,0.4375,0
18700,-0.0625,-0.1875,0.5625,0
18720,0,-0.25,0.5625,0
18740,0.3125,-0.4375,0.375,0
18760,0.625,-0.375,0.0625,0
18780,0.5625,-0.375,-0.0625,0
18800,0.4375,-0.25,-0.125,0
18820,0.375,-0.125,-0.25,0
18840,0.5,-0.125,-0.25,0
18860,0.4375,-0.125,-0.1875,0
18880,0.0625,0,-0.3125,0
18900,0,0.0625,-0.3125,0
18920,-0.1875,0.1875,-0.1875,0
18940,0.25,-0.125,0.0625,0
18950,0.4375,-0.3125,0,0
18970,0.375,-0.1875,-0.25,0
18990,0.1875,0.0625,-0.5,0
19010,0.0625,0.1875,-0.3125,0
19030,-0.625,0.1875,0.0625,0
19050,-0.6875,0.125,0.25,0
19070,-0.5,-0.0625,0.25,0
19090,-0.1875,-0.0625,0.125,0
19110,-0.0625,0,0.0625,0
19130,0.0625,-0.0625,0.0625,0
19150,-0.125,0.125,0.0625,0
19170,0.0625,0.0625,-0.125,0
19190,0.25,0,-0.125,0
19210,0.5,-0.0625,-0.0625,0
19230,0.4375,-0.0625,0.1875,0
19250,0,0.125,0.25,0
19270,-0.3125,0.1875,0.3125,0
19290,-0.375,0.125,0.375,0
19310,0,0,0.1875,0
19330,0.3125,-0.0625,0,0
19350,0.375,-0.125,-0.1875,0
19370,0.375,-0.125,-0.3125,0
19390,0.5,-0.125,-0.1875,0
19410,0.3125,0,-0.25,0
19430,0.0625,0.0625,-0.1875,0
19450,-0.0625,0,-0.125,0
19470,-0.125,-0.0625,-0.1875,0
19490,0.125,0.0625,-0.125,0
19510,0.25,0,0,0
19530,0.6875,-0.25,0.375,0
19550,0.8125,-0.6875,0.1875,0
19560,0.625,-0.4375,-0.125,0
19580,0.5625,-0.125,-0.1875,0
19600,0,-0.125,0,0
19620,-0.5625,0.0625,0.3125,0
19640,-0.5,-0.125,0.375,0
19660,-0.25,-0.125,0.3125,0
19680,0,-0.3125,0.1875,0
19700,0.4375,-0.4375,0.125,0
19720,0.4375,-0.5,-0.125,0
19740,0.3125,-0.0625,-0.25,0
19760,0.375,-0.1875,-0.3125,0
19780,0.625,-0.1875,-0.3125,0
19800,0.5,-0.1875,-0.0625,0
19820,0.4375,-0.0625,0.0625,0
19840,0.0625,-0.0625,0.25,0
19860,-0.1875,0.0625,0.375,0
19880,-0.25,0.0625,0.1875,0
19900,0.1875,-0.125,0.0625,0
19920,0.5625,-0.25,-0.125,0
19940,0.625,-0.25,-0.1875,0
19960,0.4375,-0.125,-0.0625,0
19980,0.0625,0,0,0
20000,-0.125,0.0625,0.0625,0
20020,-0.3125,0.125,0.125,0
20040,-0.375,0.0625,0.0625,0
20060,-0.4375,0,0.0625,0
20080,-0.0625,0.125,-0.0625,0
20100,0.1875,0,-0.125,0
20120,0.3125,0.0625,0.3125,0
20140,0.375,-0.375,0.375,0
20160,0.3125,-0.375,-0.0625,0
20180,0.1875,0.0625,-0.25,0
20200,-0.125,0.1875,-0.125,0
20220,-0.6875,0.1875,0.25,0
20240,-0.8125,0.1875,0.4375,0
20260,-0.75,0.0625,0.3125,0
20280,-0.5625,0,0.25,0
20300,-0.125,-0.0625,0.0625,0
20320,0.125,-0.1875,-0.0625,0
20340,-0.125,-0.0625,-0.25,0
20360,-0.125,0,-0.3125,0
20380,0,0.0625,-0.25,0
20400,0.375,0.1875,-0.1875,0
20420,0.1875,0,0.125,0
20440,-0.0625,0.125,0.375,0
20460,-0.1875,0.125,0.25,0
20480,-0.25,0.125,0.375,0
20500,0,-0.0625,0.3125,0
20520,0.3125,-0.125,0.125,0
20540,0.3125,-0.0625,-0.0625,0
20560,0.3125,-0.125,-0.0625,0
20580,0.0625,0,-0.0625,0
20600,-0.0625,0,0,0
20620,-0.0625,0,0.0625,0
20640,-0.0625,0.0625,0,0
20660,-0.0625,-0.0625,0,0
20680,0,-0.0625,0.0625,0
20700,0.25,-0.125,0.0625,0
20720,0.3125,-0.125,0,0
20740,0.1875,-0.25,0.125,0
20760,0.25,-0.0625,0.0625,0
20780,0.0625,0.125,0.125,0
20800,0.25,0,0.4375,0
20820,0.5,-0.375,0.375,0
20840,0.1875,-0.25,-0.125,0
20860,-0.5625,0.3125,-0.4375,0
20880,-2.3125,0.875,-0.375,0
20900,-4.6875,1.8125,-0.0625,0
20920,-6.5625,2.6875,-0.125,0
20940,-8.5,3.625,-0.25,0
20960,-10.4375,4.5625,0,0
20980,-12.1875,5.25,0.0625,0
21000,-13.25,5.8125,-0.1875,0
21020,-14.3125,6.3125,-1.1875,0
21040,-14.125,7.0625,-2.0625,0
21060,-13.625,7.3125,-2.5625,0
21080,-12.375,7.1875,-3.0625,0
21100,-10.875,6.9375,-3.375,0
21120,-9.9375,6.3125,-4.1875,0
21140,-9.3125,6.375,-4.6875,0
21160,-8.5625,6.5625,-5.4375,0
21180,-6.75,6.3125,-5.6875,0
21200,-4.625,5.375,-5.75,0
21220,-2.25,4.0625,-5.5625,0
21240,-0.625,2.875,-4.6875,0
21260,-0.5,2.0625,-4.0625,0
21280,-1.0625,1.875,-3.4375,0
21300,-0.4375,1.1875,-2.9375,0
21320,1.375,0.375,-2.5625,0
21340,1.6875,0.125,-2,0
21360,1.0625,0.25,-1.1875,0
21380,-0.0625,0.375,-0.6875,0
21400,-1.6875,0.4375,0.125,0
21420,-3,0.625,1.3125,0
21440,-5.1875,1.4375,1.9375,0
21460,-6.8125,1.875,2.375,0
21480,-7.5625,1.8125,2.1875,0
21500,-6.875,1.625,1.625,0
21520,-5.0625,1.375,0.625,0
21540,-2.5625,1,-0.25,0
21560,-0.0625,0.1875,-1,0
21580,1.6875,-0.4375,-2.25,0
21600,3.125,-0.5625,-3.25,0
21620,3.6875,-0.375,-3.125,0
21640,3.25,-0.1875,-2.625,0
21660,2.4375,-0.125,-2.1875,0
21680,2.1875,-0.125,-1.6875,0
21700,1.5625,-0.125,-1.1875,0
21720,0.8125,-0.0625,-0.5,0
21740,0.1875,-0.125,0.25,0
21760,-0.375,0.0625,0.6875,0
21780,0.125,0,0.875,0
21800,0.1875,0,0.8125,0
21820,0.125,0.3125,1,0
21840,-0.9375,0.8125,1.1875,0
21860,-2.6875,1.375,1.4375,0
21880,-4.4375,1.75,1.75,0
21900,-5.6875,1.9375,2.125,0
21920,-6.1875,1.8125,2,0
21940,-6.5,1.8125,1.5625,0
21960,-7.125,2.25,1.4375,0
21980,-7.9375,1.625,1.1875,0
22000,-9.0625,1.0625,1.5625,0
22020,-9.125,0,1.9375,0
22040,-10,-2.6875,1.125,0
22060,-8.0625,-8.25,-0.875,0
22080,-8.8125,-12.6875,-0.6875,0
22100,-16,-16.9375,-3.9375,0
22120,-16.8125,-22.875,-4.8125,0
22140,-16.75,-25.3125,-2.25,0
22160,-20.1875,-25.75,3.375,0
22180,-22.25,-28.5625,6.4375,0
22200,-33.3125,-31.75,6.9375,0
22220,-38.375,-31.3125,4.0625,0
22240,-34.625,-37.5,-3.6875,0
22260,-21.1875,-43.1875,-11.9375,0
22280,-9.5,-48.375,-20.375,0
22300,-7,-53.125,-28,0
22320,-10.75,-55.875,-31.75,0
22330,-12,-60.875,-33,0
22350,-16.125,-65.6875,-33.5625,0
22370,-20.1875,-68.8125,-30.0625,0
22390,-23.1875,-74.0625,-24.5,0
22410,-29.625,-75.75,-17.75,0
22430,-32.5625,-76.875,-9.75,0
22450,-35.0625,-76.125,-2.5625,0
22470,-37.375,-74.5625,4.25,0
22490,-38.4375,-73.5,11.375,0
22510,-34.8125,-74.375,19.25,0
22530,-30.6875,-74.5,25.3125,0
22550,-26.625,-72.4375,29.25,0
22570,-24.1875,-68.125,31.5,0
22590,-16.75,-64.0625,35.1875,0
22610,-7.625,-59.5,38.5,0
22630,-1.125,-56,38.75,0
22650,7.3125,-53.875,38.125,0
22670,12.9375,-47.9375,39.125,0
22690,13.625,-40.3125,38,0
22710,18.75,-37.3125,34.4375,0
22730,21.5,-31.8125,29.1875,0
22750,17.25,-20.875,24.625,0
22770,10.8125,-13.9375,23.0625,0
22790,10.5625,-12.4375,20.5625,0
22810,9.0625,-7.5,18.0625,0
22830,8.375,-4.625,13.9375,0
22850,5.875,-3.5625,13,0
22870,0.9375,-2.4375,10.625,0
22890,-1.5,-2.3125,9.125,0
22910,-2.5625,-2.25,7.375,0
22930,-4.0625,-0.375,5.625,0
22950,-2.6875,-0.25,4.1875,0
22970,-1.375,-0.5,2,0
22990,-0.6875,0.5625,0,0
23010,0.5,1.125,-1.4375,0
23030,0.0625,2.375,-2.625,0
23050,0.9375,2.375,-2.75,0
23070,1.5625,2.9375,-4.125,0
23090,2.0625,3.3125,-4.5,0
23110,1.5625,3.5625,-4.9375,0
23130,2,2.875,-5.25,0
23150,1.8125,2.625,-5.625,0
23170,1.375,2.125,-5.5625,0
23190,1.4375,1,-5.5625,0
23210,1.1875,0.375,-5.8125,0
23230,0.875,-0.4375,-5.25,0
23250,1.0625,-1.3125,-4.5625,0
23270,-0.1875,-1.8125,-3.875,0
23290,-1.5,-2.125,-3.375,0
23310,-2.625,-1.9375,-0.9375,0
23330,-3.5625,-2.5,0.5,0
23350,-6.875,-5.8125,-1,0
23370,-10.875,-10.75,-4.1875,0
23390,-15.6875,-16.125,-5.25,0
23430,-24.0625,-24.5,-1.875,0
23450,-21.25,-26.3125,1.125,0
23470,-23.5625,-24.1875,3.625,0
23490,-23.0625,-21.25,2.25,0
23510,-21.8125,-19.75,-1.5,0
23530,-18.6875,-21,-3.3125,0
23550,-19.5625,-19.0625,-5.0625,0
23550,-20.5625,-16.75,-6.9375,0
23570,-18.5625,-18.1875,-10.5,0
23590,-17.25,-17.9375,-11.625,0
23610,-16.8125,-16.9375,-13.25,0
23630,-12.3125,-15.75,-15.25,0
23650,-12,-15.1875,-15,0
23670,-10.25,-15.875,-12.375,0
23690,-6,-16.75,-8.6875,0
23710,-2.625,-16.75,-7.6875,0
23730,-2.3125,-14.875,-7.9375,0
23750,0.75,-14.375,-6.75,0
23770,3.5,-13.25,-4.1875,0
23790,2.3125,-9.6875,-6.8125,0
23810,5.1875,-8.75,-6.0625,0
23830,7.8125,-8.9375,-0.375,0
23850,3.75,-7.5625,2.8125,0
23870,1.6875,-6.0625,-0.1875,0
23890,3.5,-2.9375,-5.5,0
23910,7.5625,-0.75,-9.6875,0
23930,1.875,4.25,-15.625,0
23950,-4.4375,7.75,-18.875,0
23970,-4.9375,9.0625,-21.125,0
23990,-3.875,9.1875,-21.1875,0
24010,-3.75,8.4375,-20.9375,0
24030,-2.9375,3.5,-21.4375,0
24050,-7.1875,-0.8125,-22.25,0
24070,-9.6875,-4.0625,-20.0625,0
24090,-9.6875,-5.4375,-12.75,0
24110,-5.6875,-6.0625,-9.5,0
24130,-6.5625,-4.1875,-7.4375,0
24150,-8.75,-3.75,-7.6875,0
24170,-9.8125,-4.375,-10.9375,0
24190,-6.25,-4.5625,-13.625,0
24210,-3.375,-4.3125,-23.25,0
24230,1.625,-2,-27.25,0
24250,1.5625,0.875,-29.5,0
24270,1,6.8125,-30.9375,0
24280,2.625,12.125,-30.5625,0
24300,8.125,15.6875,-28.125,0
24320,1.5,18.8125,-24.625,0
24340,-8.125,19.8125,-21.25,0
24360,-7.4375,20.125,-19.1875,0
24380,-2.25,21.5625,-20.3125,0
24390,5.1875,22.4375,-28.5625,0
24410,6.8125,23.75,-37.25,0
24420,2.5625,23.3125,-40.4375,0
24440,-0.9375,19.5,-42.25,0
24460,-3.0625,18.4375,-45.5625,0
24480,1.875,19.625,-47.5625,0
24500,2.1875,21.8125,-46.1875,0
24520,-3.3125,25.3125,-47.375,0
24540,-4.5,25.9375,-47.25,0
24560,-2.9375,24.5,-46.4375,0
24580,0.9375,26.6875,-47.25,0
24600,0.0625,29.0625,-48.75,0
24620,-0.8125,31.25,-43.625,0
24640,3.625,29.9375,-36.5,0
24660,6.375,28.375,-28.9375,0
24680,4.8125,20.8125,-20.5,0
24700,11.5625,14.75,-2.375,0
24720,17.4375,8.0625,7.125,0
24740,21.75,2.9375,12.375,0
24760,19.875,3.375,11.8125,0
24790,17.8125,1.3125,10.0625,0
24810,17,-1.1875,8.0625,0
24830,10.625,-0.3125,4.375,0
24850,4.875,-0.4375,3.75,0
24870,4.4375,-0.4375,2.375,0
24890,5.1875,0.625,-0.6875,0
24910,4.5,-0.6875,-0.4375,0
24930,2.6875,-1.0625,0.75,0
24950,-0.6875,-2.9375,-0.4375,0
24970,-3.25,-6.25,-1,0
24990,-6.375,-11.6875,1.1875,0
25010,-5.8125,-21.75,2.8125,0
25030,-5.9375,-31.5,5.1875,0
25050,-8.8125,-29.0625,13.25,0
25070,-14.375,-8.375,12.0625,0
25090,-8.5625,5.75,-2.6875,0
25110,-10.5625,6,-6.625,0
25130,-8.1875,-0.625,0.625,0
25150,-5.4375,-2,10.875,0
25170,-6.1875,4.75,14.125,0
25190,-7.1875,9.8125,9.1875,0
25210,-1.25,5.8125,6.6875,0
25230,3.4375,8.6875,7.8125,0
25250,-1.75,17.25,2.875,0
25270,-1.875,19.4375,-11.1875,0
25290,3.625,16.1875,-15.3125,0
25310,-1.75,12.9375,-16.0625,0
25330,-9.125,11.0625,-11.8125,0
25350,-12.25,11.25,-4.3125,0
25370,-13.875,8.375,0.4375,0
25390,-13.8125,4.5625,4.4375,0
25410,-14.6875,-2.8125,9.6875,0
25430,-13.875,-10.625,15.875,0
25450,-11.4375,-19.875,21.3125,0
25470,-11.3125,-29.625,25.1875,0
25490,-15.3125,-37.875,25.0625,0
25510,-18.8125,-44,21,0
25530,-21.25,-49.75,15.1875,0
25550,-23.0625,-52.8125,9.5625,0
25570,-22.625,-53.4375,6.375,0
25590,-21.9375,-54.8125,3.375,0
25610,-22.875,-54.5625,1.9375,0
25630,-25.625,-52.3125,2,0
25650,-27.5,-45.3125,1.4375,0
25670,-24.375,-37.125,0.375,0
25680,-22.6875,-28.25,1.8125,0
25700,-19.1875,-21,4.6875,0
25720,-16.5625,-13.0625,8.625,0
25740,-15.9375,-7.3125,13,0
25760,-15.0625,-3.8125,13.4375,0
25780,-12.8125,-0.9375,13.6875,0
25800,-9.375,0.5,15.5,0
25820,-3.75,0.6875,17.125,0
25840,-1.125,0.6875,16.375,0
25860,-0.875,2.125,13.375,0
25880,0.5,2.3125,12,0
25900,3.5625,0.9375,8.1875,0
25920,5.75,0.3125,5.125,0
25940,6.5625,0.125,2.625,0
25960,6.875,-1.25,-0.625,0
25980,6.375,-2.125,-1.6875,0
26000,5.75,-2.875,-0.6875,0
26020,4.9375,-3.25,0.8125,0
26040,2.5625,-2.9375,1.5,0
26060,0.3125,-0.9375,2,0
26080,-0.5,1.1875,1.375,0
26100,-2.375,2.6875,1.6875,0
26120,-3.4375,3,2.1875,0
26140,-4.625,2.75,2.125,0
26160,-4.6875,1.5,1.75,0
26180,-3.625,0.5,0.75,0
26200,-1.3125,-0.8125,0.5,0
26220,-1.875,-0.6875,0.125,0
26240,-4.125,-0.5625,0.1875,2000
26260,-6.375,-3.4375,3.1875,0
26280,-7.6875,-2.5625,5.9375,0
26300,-9.0625,-0.0625,6.125,0
26320,-7.375,0.3125,4.25,0
26340,-4.5625,0.0625,2.3125,0
26360,-5,0.3125,2.75,0
26380,-6.1875,0.5,3.6875,0
26400,-4.4375,0.25,3.75,0
26420,-2.75,-0.375,3.6875,0
26440,-0.6875,-1.6875,4,0
26460,-0.625,-3.3125,3.5625,0
26480,0.8125,-6.3125,4,0
26500,2.25,-7.5625,4.75,0
26520,2.8125,-9.9375,3.6875,0
26540,1.3125,-13.5,2.0625,0
26560,0.1875,-16,0.6875,0
26580,0.4375,-18.3125,0.5,0
26600,0.375,-20.5625,-1,0
26620,-0.625,-22.1875,0.125,0
26640,-0.875,-22.6875,0.4375,0
26660,-1.4375,-23.4375,1.5,0
26680,-4.375,-23.625,3.625,0
26700,-5.375,-24.5,2.6875,0
26720,-5.1875,-25.625,2.125,0
26740,-8.75,-26.375,2.1875,0
26760,-7.0625,-27.0625,2.25,0
26780,-5.9375,-27.75,2.9375,0
26800,-7.25,-28.5625,6.3125,0
26820,-8.125,-27.5,6.875,0
26840,-8.1875,-25.9375,5.1875,0
26860,-8.125,-24.5625,5.4375,0
26880,-6,-22.875,3,0
26900,-6.125,-22.375,1.5625,0
26920,-7,-20.5625,2.125,0
26940,-7.8125,-19.6875,2.5625,0
26960,-7.5,-19.75,1.1875,0
26980,-8.6875,-19.4375,-1,0
27000,-9.5,-19.5,-2.5625,0
27020,-9.5,-20.3125,-5,0
27040,-11.5625,-21,-7.125,0
27060,-12.8125,-20,-8.1875,0
27080,-12.6875,-20.375,-10.5625,0
27100,-13.5,-20.1875,-12.875,0
27120,-12.5,-20.0625,-14.0625,0
27140,-13.8125,-20.5625,-15.6875,0
27160,-16.0625,-20.8125,-17,0
27180,-16.6875,-19.0625,-17.3125,0
27200,-17.375,-17.4375,-17.5,0
27220,-16.625,-16.5,-17.875,0
27240,-17.875,-16.875,-16.75,0
27260,-21.125,-14.25,-16.375,0
27280,-21.5625,-10.125,-16.125,0
27300,-22.0625,-10.8125,-15.0625,0
27320,-23.5625,-10.3125,-14.625,0
27340,-24.625,-9.6875,-14.3125,0
27360,-25.1875,-7.25,-15.25,0
27380,-24.875,-5.75,-16.375,0
27390,-25.0625,-4.9375,-16.375,0
27410,-27.375,-3.5625,-15.8125,0
27430,-28.125,0.9375,-16,0
27450,-27.1875,2.875,-15.9375,0
27470,-27,5.75,-15.6875,0
27490,-27.375,8.75,-16.0625,0
27510,-27.0625,11.875,-17,0
27530,-27,13.3125,-17.1875,0
27550,-26.1875,12.25,-18.0625,0
27570,-25.25,12.75,-19.375,0
27590,-23.75,13.375,-21.5625,0
27610,-25.125,12.125,-23,0
27630,-27.5,9.6875,-24.0625,0
27640,-27.6875,9,-23.6875,0
27660,-26,8,-24.0625,0
27690,-26.6875,6.75,-24.8125,0
27710,-27.125,6,-25.375,0
27730,-26.5,6,-24.25,0
27750,-24.875,5.8125,-23.8125,0
27780,-24.0625,5.6875,-22.5625,0
27800,-24.1875,7.0625,-22,0
27820,-22.5,7.8125,-21.625,0
27840,-21.25,8.3125,-20.8125,0
27860,-20.875,9.5625,-20,0
27880,-21.125,11.1875,-19.625,0
27900,-19.75,11.875,-19.0625,0
27920,-18.5625,12.875,-18.5625,0
27940,-17.9375,15.125,-18.3125,0
27960,-16.5625,17.5625,-17.9375,0
27980,-15.1875,19.125,-17.125,0
27990,-14.875,20.25,-16.8125,0
28010,-14.1875,21.125,-17,0
28030,-13,22.0625,-16.375,0
28040,-11.75,23.3125,-16.125,0
28060,-9.6875,23.6875,-16.3125,0
28080,-8.4375,23.6875,-16.375,0
28100,-7.9375,23.25,-17.0625,0
28120,-8.125,23.75,-17.3125,0
28140,-7,23.5,-17.1875,0
28160,-6.3125,23.625,-17,0
28180,-6,24.4375,-15.9375,0
28200,-5.625,25.75,-15.0625,0
28220,-5.3125,26.3125,-13.4375,0
28240,-6.375,27.875,-12.25,0
28260,-6.625,29,-10.875,0
28280,-4.75,29.0625,-10.5,0
28300,-4.9375,28.9375,-10.6875,0
28320,-5.6875,29.5,-10.9375,0
28340,-4.625,29,-12.375,0
28360,-3.0625,28.375,-14.3125,0
28380,-2.75,29.375,-16,0
28400,-2.25,30,-16.6875,0
28420,-2.5625,31.1875,-16.5625,0
28440,-0.875,30.875,-15.5,0
28460,1.125,31.5625,-14.0625,0
28480,0,33.3125,-12.1875,0
28500,-3.375,36.1875,-9.5625,0
28520,-4.4375,35.125,-6.5625,0
28540,-3,35.875,-5.125,0
28560,0.9375,35.1875,-3.8125,0
28580,0.375,36.6875,-3.25,0
28600,-1.1875,38.0625,-3.0625,0
28620,-1.125,36.75,-4.1875,0
28640,-0.1875,34.375,-3.625,0
28660,-1.0625,33.75,-2.5,0
28680,-5.0625,32.25,-0.125,0
28700,-7,30,2,0
28720,-7.5,27.6875,1.9375,0
28740,-7.4375,26.625,-0.6875,0
28760,-6,24.8125,-0.8125,0
28780,-3.5625,23.75,0.0625,0
28800,-1.9375,21.625,2.6875,0
28820,-1.125,21.25,3.625,0
28840,-1.5625,19.625,3.8125,0
28860,0.375,17.8125,4.125,0
28880,1.0625,15.8125,4.25,0
28900,3.5,14.4375,3.625,0
28920,5.25,13.1875,3.9375,0
28940,6.0625,11.75,5.4375,0
28960,6.6875,10.375,6.375,0
28980,7.625,8.6875,7.5625,0
29000,6.3125,6.625,7.5625,0
29020,5.9375,4.5,8.3125,0
29040,5.9375,2.1875,7.4375,0
29060,6.0625,0.3125,8.5625,0
29080,8.5625,-1.0625,9.3125,0
29100,9.0625,-2.8125,8.5625,0
29120,9.9375,-4.4375,9.5625,0
29140,10.5,-5.5,10.375,0
29160,11.25,-7,11,0
29180,11.0625,-7.9375,11.5,0
29200,10,-8.3125,13.375,0
29220,9,-8.4375,16.375,0
29240,9.8125,-9.6875,17.625,0
29260,10.3125,-10.1875,17.375,0
29280,8.6875,-8.5,18.5625,0
29300,6.5625,-7.4375,21.5625,0
29320,7.1875,-7.5,22.4375,0
29340,8.8125,-7.3125,21.75,0
29360,11.8125,-8.0625,19.5625,0
29380,11.8125,-10.25,17.8125,0
29400,9,-11.0625,18.0625,0
29420,8.8125,-11.6875,18.0625,0
29440,10,-12.1875,19.4375,0
29460,11.1875,-12.75,19.3125,0
29480,11.875,-13.375,20.5,0
29500,9.5,-12.5,22.25,0
29520,10.0625,-12.75,22.75,0
29540,10.6875,-13.375,23.5625,0
29560,10.5,-13.0625,25.1875,0
29570,10,-11.75,25.3125,0
29590,11.875,-11.6875,26.0625,0
29610,11.0625,-11.6875,26.0625,0
29630,9.5,-12.5625,27.4375,0
29650,6.4375,-12.75,27.5625,0
29670,6.125,-13.625,27.9375,0
29690,6.8125,-14.5625,27.875,0
29710,8.1875,-14.9375,27.0625,0
29730,6.6875,-16.625,27.1875,0
29750,6.375,-17.9375,25.9375,0
29770,7.9375,-18.75,24.625,0
29790,8.0625,-20.8125,23.375,0
29810,9.1875,-22.8125,20.75,0
29830,10.6875,-23.625,19.25,0
29850,11.125,-25.5,18.625,0
29870,9.4375,-26.5625,17.9375,0
29890,10.3125,-27.25,16.9375,0
29910,8.8125,-28.125,15.8125,0
29930,6.0625,-28.75,15.6875,0
29950,5.0625,-29.9375,15.5,0
29970,4.8125,-30.125,14.875,0
29990,4.4375,-29.375,14.1875,0
30010,3.8125,-29.5625,13.9375,0
30030,4.25,-29.75,13.75,0
30050,3.3125,-29.25,13.4375,0
30070,1.25,-29.0625,14.0625,0
30090,1.6875,-28.625,15.5625,0
30110,2.8125,-28.4375,15.5,0
30130,1.0625,-28.9375,14.8125,0
30150,0.75,-28.6875,15.4375,0
30170,0.9375,-28.5625,15.9375,0
30190,0.8125,-29,15.25,0
30210,1.1875,-29.5625,15.375,0
30230,-0.375,-30.125,15.25,0
30250,0.3125,-30,14.5625,0
30270,1.3125,-30,14.375,0
30290,2.75,-31,12.625,0
30310,1.3125,-32.0625,11.1875,0
30330,0.1875,-30.9375,11.125,0
30350,-0.4375,-31.25,12.6875,0
30370,0.3125,-31.5,11.25,0
30390,1,-31.0625,11.125,0
30410,1.5,-31.375,9.625,0
30430,1,-31.8125,8.25,0
30450,0.5,-31.0625,8.125,0
30470,1.0625,-31,6.625,0
30490,0.3125,-32,5.5,0
30510,-1.25,-32.0625,4.3125,0
30530,-1.6875,-30.9375,3.25,0
30550,-1.5,-30.5625,2.25,0
30570,-1.75,-31.5,0.9375,0
30590,-1.625,-30.5625,-0.4375,0
30610,-3,-28.875,-0.3125,0
30630,-2,-29.8125,-1.8125,0
30650,-3.9375,-29.9375,-4.375,0
30670,-5.8125,-28.9375,-4.1875,0
30690,-7.0625,-27.75,-5.375,0
30710,-5.875,-27.875,-7.5,0
30730,-6,-28.125,-9.375,0
30750,-7.8125,-27,-9.1875,0
30770,-9.9375,-26.5,-8.75,0
30790,-9.5625,-25.0625,-10.75,0
30810,-9,-24.25,-11.625,0
30830,-9.25,-23.9375,-12.4375,0
30850,-12,-24.0625,-12.375,0
30870,-13,-23.125,-12.3125,0
30890,-14.3125,-22.125,-13.3125,0
30910,-15.375,-21.0625,-13.25,0
30930,-16.125,-19.75,-14.75,0
30950,-16.6875,-17.75,-16,0
30970,-17.5625,-16.625,-16.625,0
30990,-18.25,-16.375,-17.5625,0
31010,-19.4375,-15.5,-19.4375,0
31030,-20.8125,-12.75,-21.1875,0
31050,-22.75,-11.625,-22.375,0
31070,-23.875,-11.3125,-23.625,0
31090,-23.5,-10.8125,-24.75,0
31110,-22.25,-10.625,-26.1875,0
31130,-23.125,-8.125,-27.25,0
31150,-25.5,-5.875,-26.625,0
31170,-29.1875,-4.1875,-26,0
31190,-30.125,-2.75,-24.5625,0
31210,-28.6875,-1.125,-23.6875,0
31230,-28.3125,1.1875,-22.875,0
31250,-29.8125,4.1875,-21.5625,0
31270,-30.0625,7.4375,-20.625,0
31290,-30.125,8.75,-20.4375,0
31310,-30.75,9.3125,-20.3125,0
31330,-31.25,10.0625,-20.625,0
31350,-29.6875,10.25,-21.8125,0
31370,-29,10.3125,-23.25,0
31390,-30.0625,9.8125,-24.3125,0
31410,-30.1875,9.5,-25.3125,0
31430,-29.0625,8.75,-25.875,0
31450,-28,8.5,-26.4375,0
31470,-27.25,9.3125,-27,0
31490,-26.4375,9.5625,-26.5,0
31510,-25.5625,9.875,-26.1875,0
31530,-25.25,11.1875,-25.75,0
31550,-25,13.0625,-25.1875,0
31570,-24.4375,14.5,-24.3125,0
31590,-22.3125,16.8125,-22.9375,0
31610,-20.25,19.5,-21.1875,0
31630,-17.9375,21.6875,-20.4375,0
31650,-15.0625,23.625,-19.6875,0
31670,-14.4375,24.625,-19,0
31700,-16.375,24.5625,-15.6875,0
31720,-15.0625,25.375,-14.5,0
31730,-13.25,26.5,-14.5,0
31750,-11.3125,27.9375,-15,0
31770,-11.1875,29.125,-15.125,0
31800,-11.25,32.5625,-14.6875,0
31820,-10.5625,33.125,-13.625,0
31840,-8.25,35,-12.5625,0
31860,-5.4375,36.75,-12,0
31880,-4.75,38.0625,-11.5,0
31900,-6,38.375,-10.625,0
31920,-6,38.8125,-8.6875,0
31940,-5,39.875,-8.375,0
31960,-2.8125,40.375,-8.3125,0
31980,-2.5625,39.1875,-7.75,0
32000,-1.4375,38.8125,-7.75,0
32020,0,38.375,-7.3125,0
32040,-0.4375,36.875,-5.8125,0
32060,-1.25,37.5625,-4.5625,0
32080,-0.6875,38.625,-4.625,0
32100,1.4375,37.5625,-4.125,0
32120,3.5625,35.6875,-4.0625,0
32140,4.625,34.1875,-5.375,0
32160,2.5,32.5625,-5.375,0
32180,0.5,31.4375,-3.5,0
32200,0.8125,30.0625,-3.25,0
32220,2.0625,28.1875,-2.6875,0
32240,0.75,26.6875,-0.1875,0
32260,0.125,27.125,1.8125,0
32280,1.0625,26.4375,1.375,0
32300,1.875,26.75,1.125,0
32320,1.5,26.625,2,0
32340,2.0625,27.25,3.1875,0
32360,1.8125,25.25,4.375,0
32380,3.875,23.5625,5.875,0
32400,4.6875,22.1875,6.625,0
32420,6.1875,20.375,5.8125,0
32440,4,20.125,5.5625,0
32460,2.375,18.5,7.875,0
32480,3.75,17.3125,7.3125,0
32500,6.25,14.875,7.3125,0
32520,7.25,11.8125,10.0625,0
32540,6.9375,10.6875,13.3125,0
32560,5.375,10.6875,16.125,0
32580,5.75,9.25,19,0
32600,7.375,6.3125,21.0625,0
32620,7.4375,5.1875,22.5625,0
32640,8.25,4.3125,21.8125,0
32660,8.375,3.75,19.375,0
32680,9.0625,1.75,19.5,0
32700,7.625,-0.3125,19.75,0
32720,9.1875,-1,19.0625,0
32740,10.5625,-2.9375,17.875,0
32760,12.875,-4.0625,16.0625,0
32780,12.8125,-5.5,15.25,0
32800,10.875,-4.75,16.9375,0
32820,9.625,-4.625,16.6875,0
32840,11.1875,-6,15.25,0
32860,10.875,-6.8125,16.1875,0
32880,11.6875,-5.5625,16.6875,0
32900,11.3125,-4.9375,17.4375,0
32920,10.5,-6.5,18.5,0
32940,12.125,-6.9375,17.9375,0
32950,13.625,-6.6875,18.75,0
32970,11.8125,-7.125,20.25,0
32990,10.1875,-7.5,21.8125,0
33010,11.3125,-7.625,22.25,0
33030,12.3125,-9.375,22.8125,0
33050,9.25,-9.4375,23,0
33070,8.75,-9,23.625,0
33090,9.625,-9.875,23.6875,0
33110,11.625,-8.25,20.4375,0
33130,12.5,-7.8125,20.0625,0
33150,11.875,-9.25,20.75,0
33170,10.6875,-10.5,21.3125,0
33190,9.4375,-10.125,22.8125,0
33210,8.375,-8.9375,22.3125,0
33230,10.5625,-9.25,19.75,0
33250,10.4375,-11.3125,20.375,0
33270,7.5,-12.625,20.5,0
33290,8.125,-13.5,19.1875,0
33310,8.25,-14.9375,17.875,0
33330,6.8125,-17.125,16.4375,0
33350,5.8125,-18.0625,16.5625,0
33370,6.3125,-18.25,16.6875,0
33390,6.25,-19.5625,16.25,0
33410,5,-20.1875,16.4375,0
33430,4.4375,-19.375,17.8125,0
33450,2.375,-19.6875,19.125,0
33470,2.5625,-18.75,18.875,0
33490,5.5,-16.8125,18.5625,0
33510,3.8125,-17.1875,19.75,0
33530,3.25,-18.375,20.5625,0
33550,3.6875,-18.9375,19.625,0
33570,4.0625,-19.1875,19,0
33590,3.6875,-19.125,18.625,0
33610,5.375,-19.3125,17.375,0
33630,5.1875,-20.5625,15.875,0
33650,4,-21.3125,15.3125,0
33670,4.3125,-21.4375,14.625,0
33690,4.1875,-22.625,13.0625,0
33710,3.0625,-24.375,11.8125,0
33730,3.5625,-25.625,10.0625,0
33750,2.8125,-26.75,8.5625,0
33770,0.75,-28.5625,8,0
33790,0.375,-29.375,6.125,0
33810,0.75,-30,2.8125,0
33830,3.6875,-30.125,0.5625,0
33850,4.0625,-31.4375,0.8125,0
33870,1.4375,-32.25,2.875,0
33890,0.9375,-31.6875,4.6875,0
33910,-1.1875,-32.5,3.8125,0
33930,-1.8125,-33,3.3125,0
33950,-2.125,-32.625,2.6875,0
33970,-1.125,-33.25,1.5625,0
33990,-0.6875,-33.5625,-0.5625,0
34010,-0.0625,-34.75,-1.625,0
34030,1.5,-36.0625,-3,0
34050,-1.375,-35.125,-2.6875,0
34070,-5.0625,-34.3125,0.1875,0
34090,-5.6875,-33.3125,0.0625,0
34110,-4.4375,-34.625,-2.5,0
34130,-3.25,-34.625,-4.8125,0
34150,-3.125,-33.375,-5.6875,0
34170,-2.25,-33.5625,-5.625,0
34190,-5.125,-34.4375,-7.0625,0
34210,-9.3125,-32.125,-6.1875,0
34230,-8.9375,-33.1875,-7.25,0
34250,-8.125,-32.6875,-9.5,0
34270,-8.875,-32.1875,-10.0625,0
34290,-11.4375,-32,-10.8125,0
34310,-15.125,-29.4375,-11.25,0
34330,-16.5625,-27.9375,-11.5,0
34350,-17.875,-27.375,-11.625,0
34370,-19.5625,-25.9375,-11.0625,0
34390,-20.0625,-24.75,-11.6875,0
34410,-18,-22.625,-14.5625,0
34430,-18.1875,-20.9375,-17.25,0
34450,-21.1875,-19.1875,-15.375,0
34470,-20.9375,-15.625,-15.4375,0
34490,-20.1875,-11.75,-17.4375,0
34510,-18.75,-11.125,-18.1875,0
34530,-18.75,-8.9375,-18.8125,0
34550,-18.4375,-7.1875,-19.6875,0
34570,-19.1875,-7.125,-20.0625,0
34590,-20.8125,-6.1875,-19.625,0
34610,-22.9375,-3.8125,-18.5,0
34630,-22.625,-2.375,-18.8125,0
34650,-20.4375,-1.75,-21.125,0
34670,-21.625,-0.3125,-22.125,0
34690,-24.3125,1.25,-21.8125,0
34710,-24.625,3.1875,-20.75,0
34730,-22.25,4.625,-21,0
34750,-21.75,4.9375,-22.5625,0
34770,-24,5.4375,-22.75,0
34790,-25.5625,7.625,-22.625,0
34810,-24.9375,9,-23.1875,0
34830,-24.4375,9.5625,-23,0
34850,-24.375,10.125,-22.75,0
34860,-25,11.25,-22.5625,0
34890,-24.375,11.8125,-23,0
34910,-25.4375,11.75,-22.5,0
34920,-26.5625,12.4375,-22,0
34940,-24.9375,13.75,-22,0
34960,-23.125,14.0625,-22.1875,0
34980,-22.9375,13.6875,-22.125,0
35000,-23,14,-21.1875,0
35020,-22.5,14.3125,-20.25,0
35040,-21.375,14.6875,-20.25,0
35060,-20.5,14.5625,-19.9375,0
35080,-20,14.6875,-19.4375,0
35100,-18.625,15,-18.4375,0
35120,-17.25,14.9375,-17.875,0
35140,-17,15.5625,-18.5,0
35160,-16.8125,16.1875,-18.625,0
35180,-16.5625,16.4375,-17.625,0
35200,-14.625,16.5625,-15.6875,0
35220,-13.6875,16.75,-15.25,0
35240,-13,18.125,-16,0
35260,-12,19.6875,-16.25,0
35280,-11,20.875,-13.9375,0
35300,-10.9375,21.875,-10.5,0
35320,-9.25,25.125,-9,0
35340,-5.4375,27.4375,-10.125,0
35360,-4.4375,27.8125,-10.25,0
35380,-4,28.1875,-8.5625,0
35400,-3.625,28.625,-7.4375,0
35420,-4.125,29.3125,-6.625,0
35440,-5,30.3125,-5.8125,0
35460,-4.5,30,-5.625,0
35480,-2.9375,28.875,-5.875,0
35500,-2.75,28.8125,-4.9375,0
35520,-3.6875,29.5,-4.0625,0
35540,-2.9375,29.4375,-3.5,0
35560,-2.125,27.625,-2.4375,0
35580,-1.5,25.8125,-2.5625,0
35600,0,24.75,-4.75,0
35620,0.4375,24.1875,-6.5625,0
35640,0.1875,23.125,-5.6875,0
35660,1.3125,21,-5,0
35680,1.4375,19.4375,-5.25,0
35700,1.6875,18.75,-4.625,0
35720,1.3125,18.25,-3.4375,0
35740,1.3125,16.625,-3.1875,0
35760,1.625,14.3125,-1.25,0
35780,-1.5625,14.4375,0.875,0
35800,-4.625,16.6875,4.25,0
35820,-5.3125,16.6875,5.25,0
35840,-4.125,16,5.9375,0
35860,-2.9375,16.5625,6.1875,0
35880,-1.625,17.0625,5.8125,0
35910,0.4375,17.0625,3.5625,0
35930,-0.25,17.375,3,0
35950,-1.0625,17.5625,4.0625,0
35970,-1.6875,17.8125,5.0625,0
35990,-2.125,15.8125,4.5625,0
36010,-8.0625,16.3125,3.6875,0
36030,-13.5,18.1875,6,0
36050,-13.3125,18,7.75,0
36070,-9.875,16.8125,9.25,0
36090,-6.25,15.5625,10,0
36110,-4.9375,14.25,10.1875,0
36130,-2.1875,13.5,8.1875,0
36150,-3.0625,12.8125,7.6875,0
36170,-6.6875,12.375,9.5625,0
36190,-7.0625,12.0625,11.375,0
36210,-3.625,11.625,10.8125,0
36230,-0.6875,11.0625,10.1875,0
36250,-3.125,13,10.1875,0
36270,-8.5,15.5625,12.8125,0
36290,-8.75,16.4375,14.75,0
36310,-6.1875,17.125,14.9375,0
36330,-2.75,16.0625,15,0
36350,-3.6875,14.75,14.25,0
36370,-5.375,14.4375,14,0
36390,-5.625,14.0625,13.1875,0
36410,-5.9375,11.5625,13.375,0
36430,-3.875,9.75,11.8125,0
36450,-2.6875,6.75,11.0625,0
36470,-1,5.375,10.3125,0
36490,-0.25,3.25,9.75,0
36510,-0.125,0.9375,10.5,0
36530,-1.6875,1.625,12.0625,0
36550,-4.5625,4.4375,15.75,0
36570,-5.6875,6.75,19.875,0
36590,-3.6875,6.8125,20.75,0
36610,-0.875,5.625,21.875,0
36630,1,5.5625,21.625,0
36650,-1.75,5.25,20.4375,0
36670,-7.1875,4.1875,21.3125,0
36690,-7.1875,2.9375,22.25,0
36710,-2.875,0.875,20.6875,0
36730,1.5625,-0.3125,19.5625,0
36750,-1.125,-2.5625,20,0
36770,-4.125,-3.5,20.4375,0
36790,-3.5,-3.1875,20.3125,0
36810,-1.625,-4.8125,20.9375,0
36830,0.375,-5.625,21.3125,0
36850,-0.625,-4.125,22.25,0
36870,0.125,-4.1875,22.6875,0
36890,3.875,-4.875,21.8125,0
36910,4.5,-6,22.3125,0
36930,4.375,-6.25,22.5625,0
36950,2.0625,-6.875,21.9375,0
36970,1.875,-7.75,22.8125,0
36990,1.875,-9.5625,23.6875,0
37010,4.5,-8.6875,24.0625,0
37030,6.625,-8.625,23.9375,0
37050,5.625,-7.8125,23.8125,0
37070,3.3125,-6.875,24.5,0
37090,5,-6.4375,24.375,0
37110,7.125,-7.125,23.125,0
37130,4.4375,-7.875,22.75,0
37150,1.9375,-8.3125,21.9375,0
37170,4.3125,-8.8125,22.375,0
37190,3.875,-9.5,21.9375,0
37210,8.5,-9.0625,20.6875,0
37230,7.1875,-11.5625,20.125,0
37250,7.1875,-12.75,19,0
37270,6.75,-13.25,18.75,0
37290,5.5625,-14.5625,18.5625,0
37310,6.875,-16.0625,19.0625,0
37330,6.0625,-17.1875,18.9375,0
37350,4.375,-16.875,18.1875,0
37370,4.6875,-17.75,18.1875,0
37390,4.4375,-19.5,18.5,0
37410,3.125,-20.4375,18.25,0
37430,3.1875,-19.625,16.6875,0
37450,2.5,-20.9375,15.4375,0
37470,1.625,-22.125,14.5,0
37490,2.6875,-22.4375,12.0625,0
37510,5.0625,-23.1875,9.125,0
37530,2.9375,-23.5625,6.375,0
37550,2.4375,-24.5625,2.25,0
37570,4.125,-28.125,-0.125,0
37590,0.375,-30.75,-1,0
37610,-1.875,-31.375,-1.3125,0
37630,-0.4375,-32.25,-3.9375,0
37650,0.9375,-33.875,-4.8125,0
37670,0,-35.1875,-4.875,0
37690,1,-35.0625,-4.8125,0
37710,-0.75,-35.75,-4.0625,0
37730,-3.75,-36.5,-3,0
37750,-4.3125,-36.3125,-2.875,0
37770,-4.625,-37.25,-2.625,0
37790,-4.75,-37.875,-3.9375,0
37810,-3.5,-38.3125,-3.5,0
37830,-3.75,-38.5,-3.75,0
37850,-5.9375,-38.5,-2,0
37870,-6.625,-37.625,-2.3125,0
37890,-5.4375,-37.6875,-3.125,0
37910,-4.25,-37.3125,-4.1875,0
37930,-2.8125,-36.375,-4.75,0
37950,-3.25,-35.3125,-4.8125,0
37970,-3.125,-34,-5.4375,0
37990,-2.3125,-34.6875,-5.75,0
38010,-3.0625,-34.4375,-7.9375,0
38030,-2.6875,-33.875,-10,0
38050,-1.375,-33.375,-13.0625,0
38070,-0.4375,-33.5625,-14,0
38090,-1.5,-34.6875,-13.75,0
38110,-5,-35.625,-14.625,0
38130,-5.3125,-35.25,-16.25,0
38150,-6.25,-34.625,-16.8125,0
38170,-7.125,-34.75,-17.875,0
38190,-6.8125,-34.25,-18.3125,0
38210,-6.625,-32.75,-18.5625,0
38230,-7.25,-31.9375,-18.25,0
38250,-9.5625,-31.0625,-18.25,0
38270,-9.9375,-28.25,-18.6875,0
38290,-8,-26.75,-17.9375,0
38310,-9.1875,-25.9375,-17.625,0
38330,-8.375,-22.875,-18.1875,0
38340,-8.0625,-21.9375,-18.5625,0
38360,-8.9375,-20.875,-18.6875,0
38380,-11,-17.3125,-17.1875,0
38420,-8.5625,-10.3125,-15.8125,0
38440,-9.375,-9.3125,-15.75,0
38460,-11.0625,-5,-14.25,0
38480,-10.3125,-2.0625,-14.875,0
38500,-8.5625,2.625,-15.9375,0
38520,-9.375,5.4375,-14.0625,0
38540,-9.3125,10.0625,-12.1875,0
38560,-8.25,13.6875,-10.25,2001
38580,-7.3125,17.875,-7.8125,0
38600,-5.75,20.75,-4.4375,0
38620,-4.875,22.3125,-0.375,0
38640,-3.125,22.5625,1.1875,0
38660,-2.9375,22.5,0.5625,0
38680,-2.9375,22.25,0.9375,0
38700,-1.6875,20.8125,1.1875,0
38720,-0.25,17.1875,1.375,0
38740,-0.1875,13.3125,3.5625,0
38760,0.1875,11.5,4,0
38780,2.6875,10.625,3.0625,0
38800,3.6875,8.125,2.125,0
38820,3.6875,5.625,1.6875,0
38840,3.8125,3.5625,0.375,0
38860,3.5,2.3125,0.0625,0
38880,2.5,1.1875,-1.3125,0
38900,-0.125,0.75,-3.625,0
38920,-1.4375,0.9375,-6.5625,0
38940,-6,3.5625,-9.3125,0
38960,-4.4375,4.8125,-6,0
38980,-0.6875,5.75,-2.75,0
39000,4.375,8.4375,-0.5,0
39020,5.9375,11.375,4.1875,0
39040,3.9375,15.5625,8.6875,0
39060,0.625,19.6875,10.8125,0
39080,1.4375,25.125,11.9375,0
39100,8.875,25.3125,17.8125,0
39120,11.5625,26.8125,26.1875,0
39140,11.0625,31,38.3125,0
39160,10.25,37.8125,45.6875,0
39180,11.8125,46.875,47.8125,0
39200,12.375,54.0625,48.125,0
39220,9.75,60.4375,52.625,0
39240,10.1875,66.1875,57.375,0
39260,18.1875,73.75,61.1875,0
39280,20.1875,73.9375,65.5,0
39300,27.0625,76.5625,63.5,0
39320,33.5625,80.125,66.375,0
39340,34.375,81.5625,71.9375,0
39360,35,82.4375,68.8125,0
39380,44.125,85.9375,65.375,0
39400,46.9375,83.0625,69.0625,0
39420,43.5,75.5625,68.625,0
39440,44.375,67.8125,67.125,0
39460,45.75,58.9375,68.125,0
39480,40.5,45.875,66.4375,0
39500,35.25,36.25,58.0625,0
39520,36.25,29.1875,55.8125,0
39540,31.375,19.5,60.0625,0
39560,19.5,12.375,55.4375,0
39580,17.125,4,50.6875,0
39600,13.875,0.3125,49.5,0
39620,8,-3.75,49.5,0
39640,2.125,-6.875,49.625,0
39660,7.875,-9.4375,45.9375,0
39680,10.8125,-11.6875,42.0625,0
39700,9.75,-12.1875,36.9375,0
39720,8.875,-8.875,30.3125,0
39740,10.125,-4.875,22.6875,0
39760,10.875,-4.75,14.375,0
39780,7.5,-0.875,10.8125,0
39800,7.9375,2.375,8.125,0
39820,6.1875,2.5,5.5625,0
39840,1.4375,1.875,3.1875,0
39860,2.25,2.4375,1,0
39880,-0.5625,2.0625,-0.125,0
39900,0.875,4.1875,0.375,0
39920,1.625,5.25,1.125,0
39940,2.625,5.4375,1.6875,0
39960,-0.75,4.8125,2.1875,0
39980,-0.1875,5.25,3.1875,2000
40000,0.75,5.6875,3.875,0
40020,-0.0625,4.5625,4.875,0
40040,1.375,3.5,5.1875,0
40060,2.125,2.25,2.75,0
40080,2.75,1.0625,3,0
40100,2.25,-0.125,3.375,0
40120,0.375,-1.875,2.4375,0
40140,-0.1875,-3,3.1875,0
40160,3.25,-3.4375,2.875,0
40180,8.375,-3.75,1.625,0
40200,5.375,-3.5,2.125,0
40220,1.0625,-5.5625,0.875,0
40240,-1.125,-9.375,-0.0625,0
40260,1.875,-14.25,2.25,0
40280,4.1875,-18.125,3.3125,0
40300,3.1875,-18.6875,4.4375,0
40320,-0.375,-20.5625,4.9375,0
40330,-3.6875,-24.6875,4.0625,0
40350,-2.0625,-27.1875,2.75,0
40370,0.25,-28.5625,1.375,0
40390,3.25,-29.625,-0.1875,0
40410,4.4375,-29.625,-1.875,0
40430,1.25,-29.25,-1,0
40450,-0.6875,-29.125,0.0625,0
40470,-2.375,-29.1875,-4.1875,0
40490,-3.25,-29,-6.25,0
40510,-4.0625,-28.6875,-6.3125,0
40530,-1.125,-28.9375,-6.4375,0
40550,2.875,-28.4375,-7.4375,0
40570,0.375,-28.125,-7.25,0
40590,-4.1875,-28,-6.75,0
40610,-7.0625,-28.25,-8.25,0
40630,-6.25,-27.3125,-12.8125,0
40650,-4.9375,-25.5625,-14.375,0
40670,-1.6875,-22.8125,-15,0
40690,-1,-20.375,-16.3125,0
40710,-2.375,-18.4375,-15.875,0
40730,-4.375,-16,-16.1875,0
40750,-7.1875,-12.875,-17,0
40770,-6.3125,-10.9375,-17.25,0
40790,-5.3125,-8.5625,-19.1875,0
40810,-6.5625,-6.8125,-20.75,0
40830,-6.875,-4.8125,-20.5625,0
40850,-6.5625,-2.8125,-19.9375,0
40870,-6.75,-0.4375,-22.0625,0
40890,-6.875,0.5,-23.3125,0
40910,-7.0625,0.3125,-24,0
40930,-8.125,0.875,-24.4375,0
40950,-8.875,3,-25.25,0
40970,-9.75,4.0625,-24.875,0
40990,-11.5,3.6875,-25.5,0
41010,-12.8125,5.125,-26.75,0
41030,-15.75,6,-26.25,0
41050,-16.625,6.9375,-25.875,0
41070,-16.8125,8.9375,-25.5625,0
41090,-17.5,11.5625,-25.5,0
41110,-20.75,11.1875,-24.4375,0
41140,-23.125,12.9375,-24.4375,0
41170,-21.8125,12.8125,-23.6875,0
41190,-22.875,12.3125,-23.125,0
41210,-23.4375,12.9375,-23.0625,0
41220,-22.5,13.375,-23.375,0
41240,-20.75,12.25,-24.0625,0
41260,-19.9375,12.8125,-23.625,0
41280,-20.375,13.875,-22.75,0
41300,-20.0625,13.1875,-22.375,0
41320,-19.25,11.4375,-21.875,0
41330,-19,10.0625,-21.3125,0
41340,-19.625,9.4375,-21.375,0
41360,-18.375,9.6875,-21.3125,0
41380,-17.375,9.875,-20.6875,0
41400,-16.875,11.375,-19.8125,0
41420,-16.625,13,-18.9375,0
41440,-15.875,14.9375,-17.9375,0
41460,-14.25,17.375,-16.875,0
41480,-13,19.9375,-16.1875,0
41500,-11.5625,22.3125,-15.9375,0
41520,-10.4375,24.1875,-16.25,0
41540,-10.375,25.6875,-16.6875,0
41560,-10.25,26.375,-16.5,0
41580,-9.3125,27.1875,-16.25,0
41600,-7.9375,28.625,-16,0
41620,-7.1875,29.875,-15.6875,0
41640,-6.75,29.5625,-15.8125,0
41660,-5.875,28.0625,-15.125,0
41680,-4.9375,26.125,-14,0
41700,-4.9375,25.875,-12.5,0
41720,-4.5,26.625,-11.9375,0
41740,-2.3125,26.875,-13.1875,0
41760,-1.1875,26.5625,-13.375,0
41780,-3.25,26.0625,-13.4375,0
41800,-4.625,24.6875,-13.375,0
41820,-4.0625,24.4375,-13.25,0
41840,-3.625,27.25,-13.8125,0
41860,-3.6875,29.6875,-14.25,0
41880,-5.8125,29.875,-14.1875,0
41900,-6.875,29.625,-12.5625,0
41920,-4.75,31.4375,-12.5,0
41940,-3.25,32.8125,-12.5,0
41960,-2.9375,33.8125,-13.875,0
41980,-2,35.125,-14.25,0
42000,-0.6875,35.25,-12.4375,0
42020,-0.9375,35.0625,-11.5625,0
42040,-0.75,35.375,-11.75,0
42060,-0.6875,34.875,-10.8125,0
42080,-0.1875,33.0625,-9.1875,0
42100,-0.125,32.9375,-8.6875,0
42120,-0.125,31.125,-8.1875,0
42140,0.125,28.4375,-6.75,0
42160,0.0625,26.6875,-3.6875,0
42180,-0.75,23.75,-3.3125,0
42200,-1.9375,20.6875,-3.0625,0
42220,-1.3125,19.8125,-3.1875,0
42240,3,18.375,-3.625,0
42260,3.5,16.3125,-2.875,0
42280,1.3125,15.1875,1.25,0
42300,3.0625,15.1875,2.5625,0
42320,2.375,13.4375,2.4375,0
42340,1.25,11.25,2.625,0
42360,2.125,8.375,2.625,0
42380,4.1875,7.75,4.5,0
42400,4.25,6.625,5.625,0
42420,4.3125,6.625,3.75,0
42440,5,6.3125,2.5,0
42460,6.75,5.1875,5.5,0
42480,8.5,3.1875,6.6875,0
42500,7.25,0.875,6.0625,0
42520,4.6875,1,5.6875,0
42540,3,1,7.375,0
42560,4.8125,0.9375,6.6875,0
42580,7.5625,-1.875,4.3125,0
42600,3.375,-4.125,2.9375,0
42620,-0.75,-0.25,4.1875,0
42640,1.4375,2.1875,5.4375,0
42660,7,2,3.625,0
42680,9.3125,2.25,4.0625,0
42700,12.4375,2.25,5.75,0
42720,14.4375,0.5625,5.375,0
42740,13,0.0625,6.125,0
42760,8.875,-0.875,9.0625,0
42780,7.5,-0.1875,9.75,0
42800,9.8125,-0.125,9.5,0
42820,11.125,-0.6875,8.75,0
42840,11.1875,-1.6875,10.9375,0
42860,9.125,-1.75,13.75,0
42880,9.875,-1.875,13.625,0
42900,10.3125,-2.3125,11.75,0
42920,9.1875,-1.625,13.9375,0
42940,5.4375,-0.75,16.9375,0
42960,7.625,-1.75,16.5,0
42980,9.4375,-3.3125,15.3125,0
43000,10,-3.9375,14.9375,0
43020,14.0625,-5.5,14.5625,0
43040,12.0625,-6.3125,15.5,0
43060,10.1875,-7.0625,18.6875,0
43080,5.4375,-9.125,19.3125,0
43100,1.125,-9.25,19.3125,0
43120,1.5,-8.125,19.5625,0
43140,6.625,-8.75,18,0
43160,9,-9.25,18.4375,0
43180,7.5625,-7,20.0625,0
43200,7.5,-4.6875,20,0
43220,8.4375,-4.875,19.1875,0
43240,9.1875,-4.8125,18.6875,0
43260,10.875,-4,19.25,0
43280,10.125,-4.4375,19.75,0
43300,9.625,-4.3125,19.375,0
43320,8,-5.875,19.5,0
43340,8.4375,-7.3125,17.25,0
43360,9.3125,-7.6875,16.125,0
43380,10.1875,-9.25,16,0
43400,10.375,-11.5,15.4375,0
43420,8.8125,-12.1875,14.4375,0
43440,8.625,-13.5625,15,0
43460,7.1875,-15,15.8125,0
43480,4.625,-15.3125,15.0625,0
43500,5.625,-15.6875,14.5625,0
43520,8.3125,-17,15.6875,0
43540,6.1875,-18.3125,16.0625,0
43560,2.5,-19.0625,16.5625,0
43580,3.625,-19.25,15.6875,0
43600,5.125,-19.75,16.6875,0
43620,2.5625,-20.9375,18.75,0
43640,3,-22.0625,22.1875,0
43650,-4.3125,-21.3125,30.25,0
43670,-7.5,-19.1875,35.6875,0
43690,-7.1875,-19.375,34.5625,0
43710,-4.5625,-20.5,33.1875,0
43730,-4.4375,-21.625,35.6875,0
43750,-4.625,-23.125,36.25,0
43770,-4.25,-25.6875,33.875,0
43790,-5.1875,-28.875,31.875,0
43810,-5.6875,-30.6875,31.0625,0
43830,-3.375,-31.25,28.625,0
43850,-0.25,-32.625,25.125,0
43870,1.3125,-35,23.0625,0
43890,0.6875,-36.1875,22.0625,0
43910,-0.375,-36.4375,20,0
43930,1.125,-36.4375,15.8125,0
43950,2.3125,-37.625,12.875,0
43970,1.5,-39.0625,12.4375,0
43990,1.9375,-38.75,10.5,0
44010,2.625,-37.4375,7.9375,0
44030,4.1875,-36,6.6875,0
44050,3.4375,-36.3125,4.8125,0
44070,2.3125,-35.9375,4.375,0
44090,0.1875,-33.5,4.9375,0
44110,-0.4375,-31.5,5.625,0
44130,0.0625,-30.9375,4.9375,0
44150,-0.5625,-30.0625,3.875,0
44170,-0.5625,-28.375,4.1875,0
44190,-2.5,-26.5625,4.0625,0
44210,-3.5625,-25.5625,3.25,0
44230,-1.75,-24.4375,3.0625,0
44250,-2.8125,-22.75,4.0625,0
44270,-1.875,-19.6875,4.9375,0
44290,-0.8125,-20.875,3.1875,0
44310,-3.5,-18.875,1.3125,0
44330,-3.375,-16.1875,2.25,0
44350,-0.75,-16.5,0.8125,0
44370,-0.875,-15.125,-1,0
44390,0.4375,-14.5,-2.125,0
44410,2,-15.3125,-3.8125,0
44430,1.4375,-14.6875,-5.8125,0
44450,-0.25,-14.125,-5.9375,0
44470,0.3125,-15.3125,-6.75,0
44490,0.125,-16.375,-7.4375,0
44510,-2.5,-17,-7.375,0
44530,-2.4375,-17.4375,-5.875,0
44550,-2.9375,-19.4375,-6.4375,0
44570,-4.3125,-20.0625,-7.5,0
44590,-5.75,-20.75,-8.25,0
44610,-5.625,-21.8125,-7.75,0
44630,-7,-23.875,-8.3125,0
44650,-7.625,-23.8125,-8.5625,0
44670,-9.5,-22.75,-7.25,0
44690,-8,-23.3125,-8.4375,0
44710,-7.0625,-23,-10.9375,0
44730,-7.8125,-22.625,-10.1875,0
44750,-7.1875,-21.0625,-10.8125,0
44770,-5.125,-20.8125,-13.375,0
44790,-5.375,-20.6875,-13,0
44810,-7.6875,-20.5,-13.125,0
44830,-8.5,-19.1875,-14.1875,0
44850,-6.625,-18.125,-18.0625,0
44870,-5.375,-17.9375,-20.25,0
44890,-6.8125,-18.25,-19.8125,0
44910,-8.875,-18,-19.0625,0
44930,-8.9375,-16.5625,-18.625,0
44950,-8.25,-15,-18.5625,0
44970,-9.3125,-14.5,-18.125,0
44990,-11.5625,-12.1875,-18.875,0
45010,-12.875,-9.6875,-18.9375,0
45030,-12.8125,-8,-19.9375,0
45050,-13.9375,-7.125,-19.375,0
45070,-16,-4.9375,-17.625,0
45090,-15.625,-4.5,-17.1875,0
45110,-16.0625,-4,-18.6875,0
45130,-17,-2.5625,-19.9375,0
45150,-18.875,-2.8125,-18.3125,0
45170,-19.1875,-2.3125,-19.3125,0
45190,-18.4375,-2,-20.875,0
45210,-18.4375,-1.375,-20.5,0
45230,-18.6875,-1,-19.8125,0
45250,-17.375,-0.125,-19.9375,0
45270,-15.9375,1.25,-21.1875,0
45290,-16.875,3.4375,-21.625,0
45310,-17.75,4.1875,-21,0
45330,-16.3125,5.0625,-20.6875,0
45350,-14.4375,5.75,-21.125,0
45370,-14.3125,5.9375,-20.125,0
45390,-15.5625,6.8125,-19.5,0
45410,-15.25,7.9375,-20.25,0
45430,-14.5625,8.25,-20.625,0
45450,-15.3125,8.25,-20.8125,0
45470,-16.25,9.1875,-20.375,0
45490,-16.3125,10.125,-20.5625,0
45510,-16.625,10.625,-21.125,0
45530,-16.3125,11.875,-21.25,0
45550,-15.625,13.375,-21.3125,0
45570,-15.5625,14.4375,-21.0625,0
45590,-16.4375,15.125,-21.3125,0
45610,-17.0625,16.625,-21.625,0
45630,-16.4375,17.75,-21.9375,0
45640,-15.5625,19.375,-21.6875,0
45660,-15.125,21.4375,-21.6875,0
45680,-15.375,23.875,-22.5625,0
45700,-13.3125,26.25,-23.8125,0
45720,-10.5,27.875,-24.0625,0
45740,-9.5,28.75,-23.75,0
45760,-10.4375,29.125,-23.3125,0
45780,-11,29.8125,-23.0625,0
45800,-10.5625,29.6875,-22.8125,0
45820,-9.625,29.8125,-22.8125,0
45840,-9.875,29.875,-22.0625,0
45860,-10.4375,28.875,-21.25,0
45880,-10.0625,25.25,-23,0
45900,-13.5,26.5,-25.9375,0
45920,-16.5625,29.3125,-25.8125,0
45940,-16.375,31.5625,-23.75,0
45960,-12.4375,32.1875,-20.875,0
45980,-8.4375,31.625,-18.0625,0
46000,-6.125,32.1875,-17.875,0
46020,-8.5,33.9375,-18.75,0
46040,-11.5625,34.6875,-17.5,0
46060,-10.4375,35.125,-14.0625,0
46080,-7.3125,35,-10.3125,0
46100,-5.75,34,-7.9375,0
46120,-4.9375,33.8125,-8.0625,0
46140,-5.5,34.25,-6.8125,0
46160,-7.5,33.8125,-3.5625,0
46180,-7.0625,32.4375,-1.5,0
46200,-5.3125,32.3125,-1.1875,0
46220,-3.5,30.9375,-3.25,0
46240,-3.4375,31.5,-4.75,0
46260,-4.4375,32.1875,-1.6875,0
46280,-4.0625,31.125,0.25,0
46300,-1.9375,30.4375,0.4375,0
46320,-3.1875,31.4375,2.1875,0
46340,-3.1875,31.6875,4.25,0
46360,-2.4375,30.3125,5.375,0
46380,-3.6875,29.3125,6.125,0
46400,-7.25,29.6875,8.75,0
46420,-5.75,29.125,10.0625,0
46440,-3.75,28.5,10.0625,0
46460,1,27.5,8.1875,0
46480,0.875,26.625,8.8125,0
46500,2.125,25,9.1875,0
46520,0.125,22.5625,9,0
46540,0.4375,19.8125,8.6875,0
46560,1.375,18.3125,8.4375,0
46580,3.375,17.1875,7.4375,0
46600,6.125,15.875,8.5,0
46620,10.4375,12.125,7.75,0
46640,9.9375,6.875,6,0
46660,14.3125,6.5,5.625,0
46680,14.5,5.75,9.25,0
46700,9.875,4.4375,12,0
46720,6.875,4.125,11.25,0
46740,6.5625,4,10.5625,0
46760,7.5625,4.75,10.8125,0
46780,6.75,4.5625,12.625,0
46800,5,5.5,14.125,0
46820,5.875,5.25,14.5,0
46840,7.875,5.6875,15.875,0
46860,7.125,5.5625,16.4375,0
46880,7.25,5.5,14.5625,0
46900,7.3125,4.8125,14.625,0
46920,8,4.375,15.125,0
46940,5.0625,1.875,15.0625,0
46960,6,1.6875,14.6875,0
46980,7,0.8125,14,0
47000,8.0625,-1.625,12.8125,0
47020,7.875,-3.4375,12.1875,0
47040,6.8125,-4.3125,13.8125,0
47060,6.75,-4.3125,13.875,0
47080,8.75,-4.5625,12.4375,0
47100,8.0625,-5.625,13,0
47120,7.6875,-5.625,14.5625,0
47140,7.875,-5.375,14.5625,0
47160,9.125,-5.125,13.875,0
47180,6.9375,-5.9375,15.3125,0
47200,6.375,-5.1875,16.3125,0
47220,5.3125,-5.9375,17.3125,0
47240,5.125,-6.125,17.4375,0
47260,5.0625,-5.9375,18.6875,0
47280,4.4375,-6.5625,20.125,0
47300,5,-6.9375,19.125,0
47320,5.125,-6.1875,18.5625,0
47340,3.5625,-6.5625,20.4375,0
47360,0.625,-8.375,22.75,0
47380,-3.25,-8.1875,24.125,0
47400,-2.375,-7.0625,23.875,0
47420,-1,-8.125,23.375,0
47440,0.0625,-9.125,22.6875,0
47460,0,-8.4375,22,0
47480,-0.375,-9.4375,21.6875,0
47500,-0.6875,-10.375,21.375,0
47520,0.4375,-11.75,21.0625,0
47540,2.25,-11.1875,20.875,0
47560,6.125,-11.1875,18.9375,0
47580,6.4375,-12.8125,18.3125,0
47600,4.625,-13.3125,19.3125,0
47620,3.9375,-11.5625,19.8125,0
47640,5.5,-10.9375,19.9375,0
47660,4.9375,-12.75,20.4375,0
47680,3.5625,-13.5625,21.125,0
47700,4.8125,-13.5625,20.875,0
47720,3.1875,-14.25,20.9375,0
47740,2.375,-15.625,21.125,0
47760,4.6875,-15.8125,20,0
47780,5.75,-17.75,19.4375,0
47800,4.1875,-18.875,19.4375,0
47820,3.5,-19.1875,17.25,0
47840,4.6875,-19.875,13.75,0
47860,6.875,-20.375,11.3125,0
47880,7.5625,-20.75,11.6875,0
47900,7.125,-21.0625,12.625,0
47920,3.5625,-21.0625,12.8125,0
47940,2.3125,-19.8125,12.75,0
47960,2.5,-19.5,13.0625,0
47980,2.8125,-20,13.875,0
48000,1.5625,-20.375,15.4375,0
48020,0.5625,-19.875,15.8125,0
48040,-0.9375,-19.6875,14.5,0
48060,-0.4375,-20.5,14,0
48080,0.4375,-21.4375,13.125,0
48100,1.125,-21.1875,12.3125,0
48120,1.5625,-20.75,11.1875,0
48140,3.125,-20.75,9.875,0
48160,4.875,-21.4375,10.0625,0
48180,4.375,-21.8125,9.25,0
48200,3.0625,-22.5625,8.375,0
48220,1.75,-22.1875,7.5,0
48240,3.5625,-24.5625,7,0
48260,4.5625,-27.0625,4.9375,0
48280,4.125,-28.9375,3.5625,0
48300,2.3125,-28.25,2.625,0
48320,4,-29.5625,1.125,0
48340,2.25,-33.3125,0.625,0
48360,1.5,-33.125,0.9375,0
48380,1.875,-33,0,0
48400,0,-35.8125,-1.6875,0
48420,-2.5,-36.6875,-2.3125,0
48440,-0.75,-35.625,-0.5,0
48460,0.375,-36.1875,-1.25,0
48480,-3.5625,-38.5625,0,0
48500,-3.6875,-39,-0.625,0
48520,-3.4375,-37.5625,-2,0
48540,-3.375,-36.125,-2.625,0
48560,-2.625,-35.75,-5.125,0
48580,-1.625,-35.25,-5.875,0
48600,-2.3125,-34.25,-4.6875,0
48620,-3.3125,-31.4375,-4.6875,0
48640,-2.6875,-29.4375,-6.25,0
48660,-3.1875,-29.5,-7,0
48680,-4,-28.75,-8.9375,0
48700,-3.9375,-26.5625,-10.25,0
48720,-3.9375,-24.375,-12.75,0
48740,-5.125,-23.9375,-14.5625,0
48760,-7.25,-21.4375,-13.875,0
48780,-5.4375,-20,-15.1875,0
48800,-6.75,-20.375,-18.0625,0
48820,-8.375,-18.875,-17.6875,0
48840,-8.75,-15.875,-16.8125,0
48860,-7.1875,-15.6875,-18.6875,0
48880,-9.25,-15.3125,-18.3125,0
48900,-12.4375,-13.3125,-15.75,0
48920,-11.625,-12.8125,-14.9375,0
48940,-10.125,-11.6875,-16.4375,0
48960,-11.1875,-11.5,-17.875,0
48980,-13.875,-10.6875,-17.0625,0
49000,-13,-10,-16.875,0
49020,-12.125,-9,-16.875,0
49040,-13.3125,-7.9375,-17.0625,0
49050,-14.5625,-7.0625,-17.25,0
49070,-15.625,-5.3125,-17.25,0
49090,-13.8125,-4.125,-18,0
49110,-11.9375,-3.0625,-19.5,0
49130,-12.8125,-1.125,-20.3125,0
49150,-13.875,0.4375,-18.9375,0
49170,-13.75,0.25,-20,0
49190,-14.4375,1.125,-20.375,0
49210,-14.5625,2,-20.25,0
49230,-13.5625,2.125,-20.875,0
49250,-13.3125,1.8125,-20.9375,0
49270,-14.75,2.6875,-20.1875,0
49290,-15.4375,3.25,-20.25,0
49310,-14.6875,4.3125,-21.1875,0
49330,-15.5,4.875,-20.625,0
49350,-15.8125,5,-20.1875,0
49370,-15,6.375,-20.0625,0
49390,-14.8125,7,-20.4375,0
49410,-15.5625,6.875,-20.875,0
49430,-15.8125,7.25,-21.6875,0
49450,-15.9375,7.9375,-21.875,0
49470,-15.75,7.8125,-22.375,0
49490,-16.4375,8.0625,-23.5,0
49510,-16.1875,9.1875,-24.125,0
49530,-15.625,10.5625,-24.25,0
49550,-14.9375,11.6875,-24.25,0
49570,-15.3125,12.875,-23.75,0
49590,-16.375,14.375,-23.125,0
49610,-16.375,15.25,-23.6875,0
49630,-14.875,16.25,-23.3125,0
49650,-15.125,17.3125,-21.5625,0
49670,-15.5,18.4375,-21.875,0
49690,-15.125,19.3125,-22.625,0
49710,-15.4375,19.5,-22.0625,0
49730,-16.1875,19.5625,-21.5,0
49750,-14.8125,20.6875,-21.5625,0
49770,-13.4375,21.0625,-21.625,0
49790,-13.9375,20.1875,-21.0625,0
49810,-15.875,20.125,-19.8125,0
49830,-16.4375,21.9375,-19.4375,0
49850,-12.6875,23.4375,-18.625,0
49870,-10.75,23.1875,-17.25,0
49890,-10,22.5,-15.5,0
49910,-10.375,21.625,-15,0
49930,-10.0625,21.5625,-15.5625,0
49950,-9.125,21.875,-14.875,0
49970,-8.875,21.3125,-13.375,0
49990,-9.125,21.1875,-11.125,0
50010,-8.1875,21.5625,-8.0625,0
50030,-7,22.0625,-6.0625,0
50050,-6.5,22.625,-3.75,0
50070,-6.75,23.125,-2,0
50090,-7.5625,23.9375,0.1875,0
50110,-6.625,24,1.375,0
50130,-5.75,24.3125,2.1875,0
50150,-5.5,25,3.3125,0
50170,-5.1875,24.5,3.4375,0
50190,-4.25,24.3125,3.6875,0
50210,-4.5,24.25,4.9375,0
50230,-4.5,24.875,4.4375,0
50250,-3.5,25.1875,3.625,0
50270,-3.625,26.125,3.3125,0
50290,-2.6875,27.1875,4.5,0
50310,-2.5,27.3125,5.9375,0
50330,-2.625,26.375,5.4375,0
50350,-3.25,25.3125,4.75,0
50370,-5.125,24.1875,3.75,0
50390,-3.9375,22.8125,3.125,0
50410,-1,22.3125,1.5625,0
50430,-3.3125,20.75,2.125,0
50450,-6.4375,19.4375,3.3125,0
50470,-2.3125,18.5,3.1875,0
50490,-1.6875,17.0625,3.5625,0
50510,-4.0625,15.625,4.8125,0
50530,-5.125,14.375,5.6875,0
50550,-7.0625,15.875,5.875,0
50570,-5.3125,16.1875,7.4375,0
50590,-5.0625,15.375,9.625,0
50610,-6.875,15.8125,10.75,0
50630,-8.625,16.875,10.625,0
50650,-6.1875,17.4375,12.0625,0
50670,-2.375,18.25,11.9375,0
50690,-1.25,17.25,10.0625,0
50710,-4.125,17.625,11.5,0
50730,-7.625,17.6875,14.0625,0
50750,-5.9375,17.5,14.6875,0
50770,-6,16.4375,15.5625,0
50790,-7.5625,14.625,16.1875,0
50810,-6,13.25,15.625,0
50830,-3.6875,10.8125,16,0
50850,-3.6875,8.125,15.875,0
50870,-2.0625,6.5,15.5625,0
50890,-1.0625,4.6875,14.5,0
50900,3.0625,3.25,14,0
50930,3.4375,1.125,15.375,0
50950,0.125,-1.875,14.75,0
50970,1.5,-1.9375,13.25,0
50990,0.5625,-2.375,13.8125,0
51000,-0.1875,-4.5625,14.8125,0
51020,-0.6875,-4.9375,15.75,0
51040,1.5625,-3.0625,15.875,0
51060,2.1875,-3,15.8125,0
51080,0.1875,-4.0625,16.4375,0
51100,0.9375,-3.4375,17.4375,0
51120,2.125,-3.75,18.4375,0
51140,0.5625,-4.375,18,0
51160,0.4375,-2.875,18.375,0
51180,1.375,-3.0625,19.25,0
51200,1,-3.625,19.5,0
51220,1.625,-2.625,20,0
51240,0.5,-2.375,20.5625,0
51260,2.1875,-1.5,20.3125,0
51280,2,-1.0625,20.3125,0
51300,1.5,-0.625,20,0
51320,-0.5,-0.3125,20.125,0
51340,-0.625,-0.5,20.4375,0
51360,0.0625,-1.5,20.3125,0
51380,0.6875,-1.25,20.1875,0
51400,1.25,-3.25,22.875,0
51420,1.375,-2.625,19.1875,0
51440,0.4375,-3.1875,19.6875,0
51460,-0.3125,-4.3125,20.1875,0
51480,1.125,-5.375,19.5625,0
51500,1.125,-6.875,18.75,0
51520,-1.0625,-9.1875,19.125,0
51540,0.875,-9.625,18.5625,0
51560,1.5625,-12.25,18.3125,0
51580,0.875,-15.875,18.125,0
51600,0.1875,-15.75,17.5625,0
51620,1.0625,-16.1875,17.375,0
51640,1.5625,-18.1875,16.5625,0
51660,2.875,-18.8125,15.8125,0
51680,2.6875,-18.8125,16.5,0
51700,0.9375,-18.875,16.1875,0
51720,4.4375,-19.1875,14.875,0
51740,7.1875,-19.375,14.8125,0
51760,6.5,-19.25,17,0
51780,3.9375,-19.5625,17.5,0
51800,2.75,-21.1875,17.5625,0
51820,-1.875,-22.3125,18.5625,0
51840,-1.75,-23.9375,18,0
51860,-1.5625,-23.125,16.5625,0
51880,-0.1875,-24.3125,17.125,0
51900,2.5,-25.75,16.25,0
51920,3.1875,-25.75,14.4375,0
51940,2.9375,-25.375,12.875,0
51960,-0.0625,-26.5625,13.4375,0
51980,-1.75,-26.1875,13.8125,0
52000,-1.75,-24.25,12.375,0
52020,0.875,-24.3125,10.6875,0
52040,0.0625,-25.375,9.875,0
52060,-2.3125,-25.6875,10,0
52080,-1.6875,-24.6875,8.3125,0
52100,-0.9375,-24.875,6.0625,0
52120,0.5,-26.25,4.8125,0
52140,-1.375,-27.5625,4.8125,0
52160,-1.125,-26.25,3.3125,0
52180,0.4375,-25.875,1.5,0
52200,-0.5,-26.875,0.375,0
52220,-1.75,-27.8125,-0.125,0
52240,-1.5,-27.8125,-2,0
52260,-0.8125,-27.125,-3.375,0
52280,1.125,-28.75,-4.6875,0
52300,0.625,-31.3125,-6,0
52320,0,-30.8125,-6.8125,0
52340,-0.25,-30.5,-7.25,0
52360,0.0625,-31.875,-8.0625,0
52380,0.5,-35.0625,-7.625,0
52400,-1.3125,-35.8125,-6.875,0
52420,-4,-34.4375,-7.3125,0
52440,-4.0625,-34.4375,-6.5625,0
52460,-2.3125,-36.5,-6.6875,0
52480,-3.8125,-37.25,-6.25,0
52500,-7.6875,-35.9375,-4.875,0
52520,-10.5625,-34.625,-4.3125,0
52540,-9.4375,-33.5625,-4.125,0
52560,-7.5,-33.375,-8,0
52580,-4.4375,-32.875,-12.375,0
52600,-4.4375,-31.5,-13.4375,0
52620,-4.5625,-30.6875,-14,0
52640,-4.625,-29.5625,-16.375,0
52660,-3.6875,-28.4375,-18.9375,0
52680,-4.9375,-26.6875,-19.75,0
52700,-7.125,-24.625,-20.25,0
52720,-5.5,-22.75,-20.9375,0
52740,-5.25,-21.25,-22.4375,0
52760,-3.5625,-19,-22.875,0
52780,-5,-17.9375,-22.9375,0
52800,-3.75,-15.6875,-22.1875,0
52820,-5.8125,-14.3125,-20.1875,0
52840,-6.3125,-13.5,-18.375,0
52860,-4.375,-12.75,-19.875,2001
52880,-4.75,-11.75,-18.8125,0
52900,-4.4375,-11.3125,-17.5625,0
52910,-4.875,-12,-16.9375,0
52930,-7.0625,-10.625,-14.3125,0
52950,-7.0625,-8.1875,-10.8125,0
52970,-4.5625,-6.5625,-9.5,0
52990,-4.125,-4.375,-7.3125,0
53010,-3.75,-2,-4.4375,0
53030,-7.375,1.1875,-1.3125,0
53050,-6.75,5.25,2.1875,0
53070,-2.375,6.75,3.1875,0
53090,1.5,7.75,5.0625,0
53110,3.3125,8.5625,6.3125,0
53130,3.8125,8.6875,4.5,0
53150,2.9375,8.5,1.0625,0
53170,2.8125,10.0625,-1.5625,0
53190,1.5,12.6875,-3.6875,0
53210,3.125,17.0625,-3,0
53230,2,20.75,3.4375,0
53250,4.75,27.6875,11.8125,0
53270,9.875,33.25,19.4375,0
53290,6.3125,36.0625,25.625,0
53310,2.6875,40.3125,29.625,0
53330,10.3125,50.4375,32.875,0
53350,18,60.4375,39.4375,0
53370,27.625,66.1875,40.125,0
53390,32.1875,68.5625,36.5625,0
53410,35.5625,77.8125,41.0625,0
53430,41.9375,84.75,50.9375,0
53450,46.1875,85.25,57.125,0
53470,53.75,87,59.8125,0
53490,56,90.75,61.6875,0
53510,60.4375,93.4375,59.125,0
53530,67.625,90.5625,59.25,0
53550,65.4375,81.25,67.1875,0
53570,67,73.75,68.4375,0
53590,65.625,66.8125,65.5625,0
53610,58.6875,58.4375,70.8125,0
53630,55.25,46.125,72.0625,0
53650,49.5625,35.9375,64.5625,0
53670,46,31.5,56.1875,0
53690,38.6875,28.5625,47.5625,0
53710,36.5,19,43.0625,0
53730,36.3125,14.6875,35.3125,0
53750,34.1875,10.9375,29.9375,0
53770,28.25,7.75,29.625,0
53790,23.375,5.6875,24.875,0
53810,23.5625,4.8125,15.5625,0
53830,18.375,2.8125,8.6875,0
53850,15.125,2.1875,3.875,0
53870,11.9375,2.0625,0.125,0
53890,9.75,1.75,-1.4375,0
53910,8.5625,2.875,-3.875,0
53930,4.6875,4.125,-2.4375,0
53950,1.5,3.6875,-2.3125,0
53970,-1.0625,4.875,-2.9375,0
53990,-4.25,7.0625,-3.1875,0
54010,-7.1875,8.875,0.875,2000
54030,-8.5625,9.5,3,0
54050,-10.8125,7.4375,4.1875,0
54070,-7.75,6.125,6.8125,0
54090,-5.8125,4.625,8.25,0
54110,-0.8125,3,7.8125,0
54130,1.4375,1.5,7.375,0
54150,0.625,0.5625,8.625,0
54170,-0.9375,1.125,8.5625,0
54190,0.375,1.5625,5.4375,0
54210,2.5,1,4.3125,0
54230,5.5,1.6875,4.5,0
54250,5.625,0.75,4.375,0
54270,3.6875,-0.125,5.125,0
54290,2.875,-2.25,6.1875,0
54310,3.625,-4,5.75,0
54330,3.875,-4.5625,5.125,0
54350,2.9375,-6.0625,3.5625,0
54370,1.9375,-7.8125,1.625,0
54390,3.8125,-8.4375,1.375,0
54410,6.8125,-10.4375,0.5,0
54420,6.5625,-13.4375,-0.1875,0
54440,7.375,-13.625,1.875,0
54460,9.375,-15.5625,2.6875,0
54480,4.0625,-19.25,3.625,0
54500,-1,-23.8125,5.625,0
54520,2.5625,-26.4375,6.5,0
54540,4,-27.75,4.3125,0
54560,1.0625,-27.5625,4.0625,0
54580,-1.0625,-27.0625,2.5625,0
54600,0.5625,-28.125,1.8125,0
54620,1.875,-28.375,2.5,0
54640,-0.625,-26.5,3.1875,0
54660,-3.75,-26.0625,2.4375,0
54680,-5.625,-26.125,1.375,0
54700,-6.25,-24.1875,1.375,0
54720,-5.75,-22.875,0.9375,0
54740,-5.1875,-21.8125,0,0
54760,-6.5625,-20.9375,-0.9375,0
54780,-6.4375,-21.5625,-2.9375,0
54800,-6.625,-21.8125,-2.875,0
54820,-6.0625,-21.0625,-2.25,0
54840,-8.125,-21.1875,-3.6875,0
54860,-10.5,-22.4375,-4.9375,0
54880,-12.8125,-21.875,-6.1875,0
54900,-13.1875,-19.75,-6.8125,0
54920,-13.0625,-17.6875,-7.125,0
54940,-14.8125,-15.9375,-6.75,0
54960,-13.1875,-13,-6.875,0
54980,-12.0625,-11.6875,-9.6875,0
55000,-14.375,-10.875,-11.625,0
55020,-15.5625,-9.4375,-13.6875,0
55040,-15.0625,-9.8125,-13.9375,0
55060,-16.1875,-9.8125,-15,0
55080,-19.5,-8.9375,-15.8125,0
55100,-21.875,-8.0625,-16.5,0
55120,-21.5,-4.5625,-19.1875,0
55140,-21.8125,-1.75,-20.5625,0
55160,-21.8125,0.9375,-18.8125,0
55180,-21.0625,3,-18.375,0
55200,-24.125,4.1875,-18.0625,0
55220,-27,5.75,-18.25,0
55240,-27.375,7.625,-18.625,0
55260,-28.0625,10.75,-18.625,0
55280,-31,14.1875,-17.875,0
55300,-33,15.375,-17.5,0
55320,-32.6875,19.1875,-15.125,0
55340,-30,23.8125,-22.625,0
55360,-29.1875,24.3125,-23.6875,0
55380,-27.4375,24.5,-24.625,0
55400,-26.4375,25,-25.5625,0
55420,-26.6875,23.625,-26.4375,0
55440,-26.8125,23.4375,-26.1875,0
55460,-26,23.75,-26.375,0
55480,-25.4375,24.5,-26.1875,0
55500,-24,25.5,-25.9375,0
55520,-22.0625,26.8125,-25.3125,0
55540,-21.3125,28.25,-24.8125,0
55580,-20.5625,28.9375,-22.125,0
55600,-19.5,29.1875,-21.4375,0
55620,-18.5,28.9375,-21.25,0
55650,-18.25,29.9375,-21.9375,0
55670,-16.0625,30,-22.5,0
55690,-13.375,29.8125,-23.5625,0
55710,-11.6875,30.75,-23.875,0
55730,-11.0625,31.25,-23.9375,0
55750,-9.9375,31.5625,-23.8125,0
55770,-8.1875,31.875,-22.6875,0
55790,-6.6875,33.0625,-20.9375,0
55810,-7,34.9375,-20.25,0
55830,-7.25,35.6875,-19.25,0
55850,-8,36.6875,-17.9375,0
55870,-8,36.25,-17.0625,0
55890,-8.125,36.1875,-18.875,0
55910,-8.375,36.375,-19.625,0
55930,-6.6875,37.9375,-16.875,0
55950,-4.8125,38.5625,-13.4375,0
55970,-5.75,38.9375,-11.8125,0
55990,-5.6875,39.1875,-12.4375,0
56010,-6.4375,39.375,-9.9375,0
56030,-6.375,37.3125,-6.1875,0
56050,-5.0625,35.25,-3.6875,0
56070,-4.8125,33.9375,-0.125,0
56090,-5,32.0625,0.8125,0
56110,-4.875,29.5,1.125,0
56130,-3.5625,28.0625,2.25,0
56150,-4.5,26.3125,4.0625,0
56170,-3.6875,22.5,3.75,0
56190,-2.9375,19.5,1.875,0
56210,-2.5625,17,0.125,0
56230,-3.5,15,-0.875,0
56250,-4,13.875,0.3125,0
56270,-0.6875,11.9375,0.6875,0
56290,1.9375,12,-1.375,0
56300,0.75,12.25,-1.625,0
56320,-1.1875,12.5,-0.0625,0
56340,1.5,11.0625,0.6875,0
56360,4.25,9.4375,1.8125,0
56380,3.6875,9.375,2.25,0
56400,1.1875,10.0625,4.6875,0
56420,1.5,9.0625,5.375,0
56440,3,8.875,4.1875,0
56460,2.375,7.125,4.6875,0
56480,2.3125,5.625,6.625,0
56500,6.3125,4.25,7.5625,0
56520,8.875,2.6875,6.5,0
56540,5.375,0.8125,7.1875,0
56560,3.25,-1,11.875,0
56580,-0.0625,-2.9375,16.75,0
56600,-1.875,-3.6875,16.9375,0
56620,-0.8125,-5.1875,13.875,0
56640,1.3125,-8.125,13.5625,0
56660,2.125,-9.375,14.875,0
56680,0.875,-8.9375,14.5625,0
56700,1.625,-9,12.875,0
56720,3.3125,-9.5625,11.5,0
56740,4.625,-8.75,10.125,0
56760,8.9375,-6.9375,11.5,0
56780,8.875,-6.8125,12.6875,0
56800,12.0625,-7.375,12.8125,0
56820,13.9375,-6.6875,10.75,0
56840,10.9375,-7.0625,10,0
56860,10.625,-6.5625,11.0625,0
56880,15.0625,-6.6875,10.5625,0
56900,15,-8.5,11.5,0
56920,9.75,-9.4375,13.125,0
56940,6,-8.625,14.5625,0
56960,7.4375,-7.5,15.1875,0
56980,8.3125,-7.9375,16.375,0
57000,9.25,-8.9375,16.5,0
57020,9.6875,-6.875,15.375,0
57040,9.6875,-4.1875,15.4375,0
57060,7.375,-4.5625,17.1875,0
57080,10.6875,-4.75,17.8125,0
57100,9.625,-4.3125,18.1875,0
57120,10.375,-4.5,17.6875,0
57140,9.875,-6.0625,16.5,0
57160,9.0625,-6.4375,18.5625,0
57180,6.25,-5.625,20.875,0
57200,6.3125,-5,19.375,0
57220,10.6875,-6.25,18.375,0
57240,6.125,-7.625,21.375,0
57260,2.25,-6.5625,22.3125,0
57280,5.5,-7.25,20.6875,0
57300,5.75,-8.375,19.5,0
57320,6.1875,-9.0625,18.3125,0
57340,4.9375,-10.125,17.0625,0
57360,6.125,-10.875,17.5625,0
57380,4.125,-12.3125,16.4375,0
57400,2.5,-14,14.0625,0
57420,2.125,-13.75,13.125,0
57440,1.625,-13.8125,12.9375,0
57460,2.125,-14.875,13.4375,0
57480,1.6875,-17,15.125,0
57500,1.625,-17.5,15.75,0
57520,1.4375,-16.75,15.3125,0
57540,0.0625,-18.875,14.5,0
57560,1.875,-20.3125,13.5625,0
57580,4.1875,-21.375,13.25,0
57600,3.3125,-23.8125,12.75,0
57620,2.125,-25.1875,12.875,0
57630,2.3125,-25.0625,14.375,0
57650,-0.25,-26.0625,15.875,0
57670,1.75,-26.0625,16.125,0
57690,1.25,-26,17.8125,0
57710,-1.0625,-26.3125,20.5,0
57730,-3.375,-26.4375,22.9375,0
57750,-6.625,-25.75,27.375,0
57770,-7.125,-25.6875,28.8125,0
57790,-3.6875,-26.5,27.1875,0
57810,-4,-28.5,27,0
57830,-6,-31.3125,26.5625,0
57850,-2.25,-33.6875,24.3125,0
57870,-1.8125,-35.6875,22.5625,0
57890,-1.9375,-37.25,20.3125,0
57910,-1.5,-38.5625,17.75,0
57930,2.9375,-41.0625,16.625,0
57950,0.4375,-43.4375,17.1875,0
57970,-2.5,-43.6875,14.8125,0
57990,-1.0625,-44.0625,11.75,0
58010,-1.4375,-45.75,11.5625,0
58030,-2.875,-44.875,12.25,0
58050,-2.1875,-43.8125,10.125,0
58070,-0.5,-43,6.6875,0
58090,-0.125,-42.625,5.0625,0
58110,-5.1875,-43.625,6.625,0
58130,-5.5625,-41.5625,6.375,0
58150,-2.4375,-41.3125,2.75,0
58170,-3.0625,-41.125,-0.0625,0
58190,-5.8125,-39.4375,0.8125,0
58210,-4.0625,-38,-0.6875,0
58230,-3.25,-37.4375,-2.375,0
58250,-3.3125,-36.4375,-2.5,0
58270,-6,-34.75,-3.4375,0
58290,-4.875,-33.625,-2.625,0
58310,-3.5625,-32.4375,-2.5,0
58330,-4.125,-32.5,-4.875,0
58350,-7.0625,-31.5625,-5.3125,0
58370,-7.8125,-29.375,-5.625,0
58390,-4.375,-28.5,-6.8125,0
58410,-5.875,-28.375,-7.3125,0
58430,-6.875,-27.375,-5.75,0
58450,-6,-26.8125,-6.5,0
58470,-6.25,-27.0625,-8.1875,0
58490,-8.375,-26.8125,-8.625,0
58510,-8.8125,-24.5625,-8.5,0
58530,-7.6875,-24.1875,-9.1875,0
58550,-8.25,-23.3125,-10,0
58570,-10.1875,-21.25,-8.6875,0
58590,-9.5625,-18.9375,-10.125,0
58610,-9.9375,-18.0625,-11.625,0
58630,-10.5625,-16.8125,-12.9375,0
58650,-12.1875,-16.1875,-14.625,0
58670,-14.625,-13.4375,-16.625,0
58690,-15.375,-11.75,-19,0
58710,-16.1875,-10.25,-20.625,0
58730,-19.125,-8.75,-21.25,0
58750,-19.5,-4.75,-21.75,0
58770,-18.625,0,-23.125,0
58790,-19.6875,1.25,-22.875,0
58810,-21.75,4.75,-22.375,0
58830,-20.875,8.375,-23.625,0
58850,-20.6875,12.4375,-25.75,0
58870,-22.6875,16.875,-26.125,0
58890,-27.9375,18.8125,-24.5625,0
58910,-29.5,20.1875,-24,0
58930,-28.25,19.8125,-23.3125,0
58950,-27.25,19.6875,-22.6875,0
58970,-27.5,19.625,-22.8125,0
58990,-27.9375,21.0625,-23.75,0
59010,-27.1875,21,-24.6875,0
59030,-26.5,19.75,-24.3125,0
59050,-25.5625,19.375,-23.5,0
59070,-25.5,19.5625,-23.0625,0
59090,-25.6875,18.5625,-23.0625,0
59110,-24.9375,18.4375,-22.6875,0
59130,-22.125,19.1875,-22.5,0
59150,-20.5,19.75,-22.625,0
59170,-20.375,19.625,-22.8125,0
59190,-20.6875,19.375,-23.125,0
59210,-19.25,20.4375,-22.875,0
59230,-17.8125,21.0625,-21.875,0
59250,-17.1875,21.9375,-22.4375,0
59280,-15.3125,24.875,-24.375,0
59300,-14.375,26.875,-24.25,0
59320,-13.9375,27.9375,-23.9375,0
59340,-11.75,29.125,-23.1875,0
59360,-9.25,31.125,-23.5625,0
59380,-8.9375,32,-24.6875,0
59400,-8.5625,32.25,-23.8125,0
59420,-7.25,32.5,-21.625,0
59440,-4.4375,32.3125,-20.9375,0
59460,-3.1875,33.1875,-21.0625,0
59480,-3.6875,34.5625,-20.8125,0
59500,-5.3125,34.75,-18.4375,0
59520,-5.75,35.0625,-14.75,0
59540,-5.375,36.0625,-12.3125,0
59560,-3.25,35.75,-11.625,0
59580,-2.125,35.125,-10.25,0
59600,-1.625,32.625,-7.9375,0
59610,-2.4375,29.6875,-5.9375,0
59630,-3.1875,30.8125,-5.5,0
59650,-2.125,31.6875,-5.125,0
59670,-1.25,30.5625,-5.25,0
59690,-2.4375,29.8125,-4.0625,0
59710,-2.0625,30.375,-2.25,0
59730,-0.375,30.75,-1.8125,0
59750,-1.8125,30.0625,-2.8125,0
59770,-3,29.4375,-4.1875,0
59790,-0.8125,29.9375,-3.25,0
59810,2.875,29.4375,-4.1875,0
59830,5.5625,27.3125,-5.0625,0
59850,1.75,24.5,-4.4375,0
59870,-0.125,23.0625,-4.5625,0
59890,0.9375,21.5625,-4.9375,0
59910,2.125,18.125,-5.9375,0
59930,4.125,16.625,-6.125,0
59950,4.0625,16.1875,-6.25,0
59970,0.9375,15.6875,-2.125,0
59990,-1.8125,16.5625,3.375,0
60010,-2.3125,16.6875,6,0
60030,0.625,15.1875,3.625,0
60050,2.75,14.75,3.9375,0
60070,2.6875,15.6875,5.5,0
60090,1.75,15.4375,7.25,0
60110,1.5625,14.625,8.25,0
60130,2.4375,14,9.625,0
60150,1.625,13.8125,10,0
60170,1.9375,14.375,8.75,0
60190,4.4375,13.5,7.25,0
60210,4.6875,13.6875,8.5,0
60230,3.5625,14.9375,12.375,0
60250,5,13.625,12.25,0
60270,3.9375,11.4375,10.125,0
60290,5.125,9.5625,9.875,0
60310,6.125,7.0625,9.375,0
60330,4.0625,5.5,7.8125,0
60350,4.9375,5.125,7.4375,0
60370,5.5,4.5625,8,0
60390,4.0625,3.25,7.625,0
60410,7,2.5,6.375,0
60430,6.6875,-0.1875,5.3125,0
60450,5.75,-0.125,6.9375,0
60470,6.8125,-0.625,9.0625,0
60490,5.9375,-0.75,8.875,0
60510,5.875,-1.1875,10.5625,0
60530,6.75,-1.375,10.75,0
60550,9.4375,-1.9375,10.375,0
60570,6.125,-3.625,11.6875,0
60590,4.75,-3.5625,13.3125,0
60610,5.1875,-4.625,13.0625,0
60630,8.125,-6.75,11.1875,0
60650,7.75,-7,12.375,0
60670,6.8125,-7.0625,12.75,0
60690,8.4375,-6.8125,12.1875,0
60710,8.1875,-7.1875,12.375,0
60730,6.375,-7.3125,12.125,0
60750,3.5625,-7.125,13.3125,0
60770,1.9375,-5.5,15,0
60790,1.5,-4.8125,16.8125,0
60810,1.6875,-3.75,17.125,0
60830,4.3125,-2.3125,17,0
60850,2.25,-2.3125,18,0
60870,0.0625,-1.75,20.0625,0
60890,1.9375,-2,19.25,0
60910,3.9375,-2.8125,17.1875,0
60930,3.125,-3.9375,18,0
60950,3.6875,-4.875,18.0625,0
60970,6.1875,-5.3125,17,0
60990,4.3125,-7.625,16.9375,0
61010,5.0625,-8.625,16.4375,0
61030,5.9375,-9.5625,16.6875,0
61050,3.1875,-11.125,17.125,0
61070,3.375,-11.8125,17.75,0
61090,3,-14.8125,17.6875,0
61110,0.625,-15.125,16.6875,0
61130,0.0625,-14,18.9375,0
61150,-3.5,-16.375,21,0
61170,-4.6875,-17.3125,19.125,0
61190,-2.6875,-16.3125,18.9375,0
61210,-2.125,-17.8125,19.3125,0
61230,-1.25,-19.3125,18.5625,0
61250,0.1875,-18.4375,18.5625,0
61270,0.75,-18.125,19.75,0
61290,-1.1875,-21.1875,19.75,0
61310,-1.8125,-21.875,18.6875,0
61330,-1.375,-21.0625,20.0625,0
61350,-0.875,-22.625,19.8125,0
61370,2.375,-25.3125,18.0625,0
61390,0.8125,-25.875,19.625,0
61410,-1.5625,-26.5,21.25,0
61430,-6.4375,-27.5,20.5,0
61450,-9.3125,-27.1875,19.3125,0
61470,-2.125,-28.1875,17.375,0
61490,2.375,-33.25,16,0
61510,2.125,-38.875,15.125,0
61530,0.6875,-40.9375,14.625,0
61550,0.4375,-41.375,14.125,0
61570,0.5625,-42.8125,13.875,0
61590,2.0625,-43.5,12.3125,0
61600,5.4375,-43.625,10.25,0
61620,8.625,-44,9.5625,0
61640,8.1875,-44.1875,9.75,0
61660,3.5625,-44.625,11.75,0
61680,1.5625,-42.6875,10.3125,0
61700,4.0625,-41.5625,8.1875,0
61720,4.1875,-42.3125,5.375,0
61740,1.5625,-41.6875,4.9375,0
61760,0.875,-40,4.8125,0
61780,-0.25,-38.625,2.6875,0
61800,0.3125,-37.125,-0.125,0
61820,-1.8125,-35.9375,-2.25,0
61840,-1,-34.6875,-4,0
61860,-2.375,-32.0625,-5.0625,0
61880,-0.625,-31.0625,-6.625,0
61900,-1.1875,-29.75,-9.5,0
61920,-4.75,-29.1875,-10.5,0
61940,-5.0625,-28.625,-11.125,0
61960,-2.25,-28.4375,-13.75,0
61980,-3.0625,-27.375,-16.625,0
62000,-8.8125,-27.875,-16,0
62020,-7.9375,-27.3125,-17.8125,0
62040,-7.6875,-26.5625,-20.75,0
62060,-8.5,-26.1875,-18.875,0
62080,-9.25,-25.9375,-19.9375,0
62100,-9.4375,-25.125,-21.8125,0
62120,-10.875,-23,-22,0
62140,-9.0625,-22.75,-22.625,0
62160,-8.5625,-23.125,-24.6875,0
62180,-12,-21.9375,-24.875,0
62200,-12.375,-20.0625,-24.875,0
62220,-11.6875,-20.125,-26.1875,0
62240,-14.1875,-19.6875,-25.875,0
62260,-14.9375,-18.8125,-27.375,0
62280,-16.25,-17.375,-28.8125,0
62300,-17.0625,-15.9375,-29.125,0
62320,-18.3125,-14.375,-27.8125,0
62340,-19.1875,-11.0625,-27.25,0
62360,-19.0625,-8.3125,-26,0
62380,-18,-6.0625,-24.5625,0
62400,-18.75,-3.5625,-24.8125,0
62420,-20.125,0.5,-25.1875,0
62440,-19.5625,3.8125,-25.25,0
62460,-16.125,6.125,-27.375,0
62480,-17.125,8.5,-28.125,0
62500,-20.1875,12.6875,-25.75,0
62520,-20,16.0625,-24.9375,0
62540,-17.8125,18.125,-25.625,0
62560,-18,19.4375,-26.25,0
62580,-19.3125,20.5625,-25.5625,0
62600,-18.6875,21.9375,-25.8125,0
62620,-18.625,22.5,-26.5625,0
62640,-19.9375,22.3125,-26.4375,0
62660,-21.1875,22.375,-26.0625,0
62680,-20.5625,22.375,-25.9375,0
62700,-20.4375,21.5625,-26.1875,0
62720,-21.375,21.8125,-25.9375,0
62740,-19.5625,22.8125,-26.4375,0
62760,-17.125,21.8125,-27,0
62780,-19.0625,20.5625,-25.0625,0
62800,-21.5625,19.75,-21.375,0
62820,-20.0625,18.8125,-19.5,0
62840,-17.0625,17.0625,-18.6875,0
62860,-16.625,16.75,-18.375,0
62880,-16.6875,17.9375,-19,0
62900,-16.25,17.9375,-17.875,0
62920,-14.25,18.125,-15.25,0
62940,-13.3125,17.75,-14.125,0
62960,-12.8125,18.8125,-14.4375,0
62980,-13,19.625,-13.5,0
63000,-12.6875,20.1875,-12.625,0
63020,-10.875,17.4375,-14.4375,0
63040,-12.9375,18.4375,-16.6875,0
63060,-14.5625,20.875,-13.125,0
63080,-11.5625,23.0625,-8.5,0
63100,-6.1875,22.6875,-6.25,0
63120,-2.5,22.9375,-6.5,0
63140,-2.5,23.625,-6.5,0
63160,-3.125,24.1875,-7.1875,0
63180,-3.3125,25.25,-6.9375,0
63200,-2.0625,25.625,-4.3125,0
63220,0.4375,24.9375,-3.875,0
63240,1.375,25.0625,-4.75,0
63260,1.625,25.375,-4.9375,0
63280,1.0625,26.4375,-3.5625,0
63300,1.0625,26.1875,-0.875,0
63320,2.6875,25.125,1.0625,0
63340,1.125,24.25,1.9375,0
63360,-3,24.375,2.25,0
63380,-5.125,24.75,2.3125,0
63400,-8.5,24.75,7.125,0
63420,-11.875,26.5,16.8125,0
63440,-9.3125,27.875,22.25,0
63460,-4.375,27.375,18.1875,0
63480,-3.1875,26.75,13.875,0
63500,-4.625,27.75,12.8125,0
63520,-5.5,28,13.125,0
63540,-5.0625,27.6875,13.9375,0
63560,-0.75,26.625,12.625,0
63580,2.5625,24.875,8.3125,0
63600,-0.8125,23.375,6.375,0
63620,-2.4375,24.1875,9.4375,0
63640,1.4375,23.4375,11.5625,0
63660,2.3125,21.375,11.6875,0
63680,2.5,19.25,12.125,0
63700,2.0625,19.1875,12,0
63720,1.6875,20.375,12.5625,0
63740,5.625,19,12.75,0
63760,6.4375,16.4375,14.5,0
63780,3.9375,13.5625,17.5625,0
63800,0.8125,13.3125,18.5,0
63820,0.5625,11.25,18.25,0
63840,3.0625,10.0625,16.75,0
63860,2.4375,6.6875,15.4375,0
63880,-0.3125,3.5,14.0625,0
63900,1.75,2.1875,13.8125,0
63920,4.375,1.5,11.8125,0
63940,5.0625,-1.5625,11.125,0
63960,2.9375,-3.9375,12.3125,0
63980,4.5625,-3.25,14.5625,0
64000,6,-3.4375,16.25,0
64020,4.875,-5.25,16.75,0
64040,6.1875,-6,17.125,0
64060,6.5625,-6,18.9375,0
64080,4.125,-5.5625,20.75,0
64100,4.125,-6.25,21.1875,0
64120,4,-5.75,22,0
64140,2.3125,-6.125,22.1875,0
64160,6.125,-5.1875,20.8125,0
64180,5.9375,-6.1875,20.9375,0
64200,2.75,-6.625,20.875,0
64220,4.5625,-5.75,20.4375,0
64240,6.25,-6.125,19.5625,0
64260,5.875,-7,18.4375,0
64280,6.3125,-6.4375,18.6875,0
64300,5.0625,-6,20.125,0
64320,3.625,-5.75,20.5,0
64340,2.5,-5.5625,20.5,0
64360,3.125,-5.4375,20.25,0
64380,5.6875,-6.875,19.8125,0
64400,6.25,-8.0625,19.5625,0
64420,2.6875,-9.25,20.4375,0
64440,3.3125,-9.1875,19.5625,0
64460,4.125,-11.625,19.5625,0
64480,2.1875,-14,19.125,0
64500,2.5625,-14.4375,19.125,0
64520,1.6875,-14.8125,20.625,0
64540,-0.875,-16.375,21.25,0
64560,-2.875,-17.375,21.375,0
64580,-3.875,-17.125,22.125,0
64600,-4.25,-17.25,22.5,0
64620,-2.125,-18.5625,20.4375,0
64640,-3.1875,-22.0625,19.9375,0
64660,-5.0625,-22.9375,20.0625,0
64680,-3.9375,-23.625,19.0625,0
64700,-2.9375,-25.625,16.1875,0
64720,-1.875,-27.5625,14.25,0
64740,2.625,-28.375,12.4375,0
64760,1.875,-30.375,11.375,0
64780,-2.625,-31.75,11.3125,0
64800,-1.5,-31.9375,8.9375,0
64820,0.9375,-32.5625,6.625,0
64840,2.1875,-34.375,5.875,0
64860,1,-36.4375,5.4375,0
64880,-1.25,-36.4375,4.5,0
64900,-0.9375,-36.875,3.5625,0
64920,-1.0625,-38.1875,2,0
64940,-2.1875,-40.125,2.375,0
64960,-2.3125,-40.625,3.1875,0
64980,-2.3125,-41.25,2.1875,0
65000,-3.75,-41.9375,2,0
65010,-6.8125,-42.3125,0.875,0
65030,-5,-42.625,-0.5625,0
65050,-5.9375,-43.0625,-0.5,0
65070,-5.125,-42.3125,-1.4375,0
65090,-2.4375,-40.625,-4.6875,0
65110,-4.6875,-41.0625,-5.3125,0
65130,-7.4375,-40.75,-3.875,0
65150,-6.3125,-38.3125,-5.125,0
65170,-6.3125,-37.3125,-7.1875,0
65190,-5.75,-36.75,-9.1875,0
65210,-4.4375,-34.75,-10.125,0
65230,-4.6875,-33.5625,-10.5,0
65250,-6.5625,-32.125,-10.8125,0
65270,-8.0625,-30.1875,-9.5625,0
65290,-7.1875,-29.3125,-10,0
65310,-8.0625,-27.9375,-11.5,0
65330,-9.8125,-25.4375,-11.875,0
65350,-8.75,-24.375,-12.375,0
65370,-8.4375,-22.75,-12.3125,0
65390,-8.625,-21.25,-13.1875,0
65410,-8.6875,-19.3125,-14.6875,0
65430,-8.4375,-17.625,-15.9375,0
65450,-7.125,-14,-18,0
65470,-4.5,-13.1875,-20.875,0
65490,-8.875,-11.5,-20.5,0
65510,-9.8125,-9.3125,-18.625,0
65530,-6.9375,-7.1875,-19,0
65550,-6.25,-4.875,-20,0
65570,-6.4375,-2.5,-19.5625,0
65590,-7.375,-0.5,-18.625,0
65610,-6.75,1.9375,-17.125,0
65630,-5.9375,3.3125,-16.8125,2001
65650,-5,4.1875,-16.25,0
65670,-4.625,5,-14.875,0
65690,-6,6.0625,-12.0625,0
65710,-5.5,7.4375,-9.1875,0
65730,-4.3125,7.3125,-7.3125,0
65750,-2.75,6.4375,-6.0625,0
65770,-3.8125,6.375,-3,0
65790,-2.875,5.9375,-1.4375,0
65810,-1.4375,4.875,-0.75,0
65830,-1.125,4.0625,0.625,0
65850,0.1875,3.75,1.3125,0
65870,1.25,3.8125,0.875,0
65890,1.5625,3.9375,1.6875,0
65910,2,3.125,2,0
65930,2.3125,1.625,-0.1875,0
65950,-0.6875,1.8125,0.1875,0
65970,-4.25,5.8125,1.5,0
65990,-7.4375,8.6875,-0.6875,0
66010,-7.1875,13.875,-6.8125,0
66030,-5.5,21.375,-9.1875,0
66050,1.1875,26.125,-0.875,0
66070,8.875,34.125,11.875,0
66090,18.5,41.3125,24.625,0
66110,24.8125,47.0625,29.375,0
66130,29.625,46.5,24.125,0
66150,32.0625,52.8125,20.875,0
66170,31.75,58.625,30.4375,0
66190,28.4375,58.75,40.3125,0
66210,32.6875,59.5,41.6875,0
66230,45.3125,64.25,45.5,0
66250,39.625,63.375,57.0625,0
66270,29.125,63.625,63.6875,0
66290,37.8125,65.9375,53.5,0
66310,52.625,64.4375,41.3125,0
66330,44.625,51.75,41.9375,0
66350,36.6875,46.5,45.875,0
66370,42.4375,51.6875,50.25,0
66390,45.125,53,50.0625,0
66410,46.4375,48.5625,42.3125,0
66430,48,46.5,42.5625,0
66450,46.625,47.75,52.5,0
66470,38.1875,44.125,56,0
66490,32,40.125,53.375,0
66510,29.0625,36.6875,48.6875,0
66530,23.5,31.0625,46.5,0
66550,21.9375,26.25,43.25,0
66570,19.75,19.875,41.375,0
66590,12.9375,13.125,38.125,0
66610,9.125,10.75,31.75,0
66630,4.8125,12.6875,25.5,0
66650,1.5625,18.1875,24.875,0
66670,-0.125,20.375,23.375,0
66690,3.3125,19.625,24.875,0
66710,7.125,18.75,26.375,0
66730,8,17.6875,20.5,0
66750,10.0625,16.875,14,0
66770,5.9375,16.375,10.9375,0
66790,0.125,15.8125,9.8125,0
66810,2.75,14.9375,6.625,0
66830,4.75,14.875,3,0
66850,5.5625,12.625,3.9375,0
66870,5.1875,12.25,4.0625,0
66890,4.5625,12.625,1.875,0
66910,6.0625,13.875,1.9375,0
66930,11.0625,13,2.5,0
66950,10.125,11.75,2.5625,0
66970,4.3125,13.6875,5.9375,2000
66990,-2.1875,15.6875,7.9375,0
67000,-4.875,15.5625,7.3125,0
67020,0.4375,14.75,4.625,0
67040,6.5625,12.0625,1.8125,0
67060,7.625,6.0625,0.875,0
67080,5.625,3.1875,2.25,0
67100,5.1875,2.25,5.375,0
67120,4.4375,1.8125,7.0625,0
67140,6.4375,-0.6875,5,0
67160,4.8125,-3.1875,2.375,0
67180,1.1875,-9.0625,0.5625,0
67200,0.125,-17.0625,1.25,0
67220,5.25,-25.25,5.25,0
67240,4.6875,-29.5,7.6875,0
67260,0.1875,-31.1875,7.0625,0
67280,-6,-34.8125,3.625,0
67300,-6.1875,-38.25,0.125,0
67320,-2.375,-39.875,-1.3125,0
67340,-2.5,-41.1875,-0.8125,0
67360,-3.5,-41.375,0.8125,0
67380,-6.0625,-39.9375,-0.625,0
67400,-3.9375,-38.6875,-1.375,0
67420,-0.125,-37.3125,-1.9375,0
67440,-1.8125,-36.9375,-3.625,0
67460,-6.4375,-34.75,-0.375,0
67480,-6.5625,-32.375,1.8125,0
67500,-5.1875,-32.125,-1.375,0
67520,-7,-31,-0.875,0
67540,-6.3125,-30.75,1,0
67560,-5.4375,-29.4375,-2,0
67580,-6.1875,-27.875,-1.625,0
67600,-7.125,-27.25,-0.375,0
67620,-8.5625,-25.5625,-1.375,0
67640,-7.125,-24.25,-1.6875,0
67660,-5.25,-22.9375,-5.625,0
67680,-5.875,-21.8125,-7.75,0
67700,-8.125,-21.125,-7.4375,0
67720,-8.5625,-20.3125,-7.8125,0
67740,-7.375,-18.5625,-10.375,0
67760,-7.875,-17.9375,-10.875,0
67780,-9.9375,-15.9375,-10.5,0
67800,-10.1875,-14.0625,-10.5,0
67820,-7.5625,-13,-12.875,0
67840,-8.875,-12.375,-14.1875,0
67860,-13.125,-8.8125,-14.25,0
67880,-13.625,-5.375,-13.0625,0
67900,-10.25,-0.875,-15.25,0
67920,-8.875,2.9375,-17.3125,0
67940,-9.8125,6,-18.6875,0
67960,-11.25,7.625,-18.875,0
67980,-11.875,8.6875,-18.875,0
68000,-12.8125,10.375,-19.5625,0
68020,-12.6875,11.4375,-19.5,0
68040,-11.9375,11.75,-21,0
68060,-13.125,12.5,-21.875,0
68080,-15.5,11.75,-22.875,0
68100,-16.25,12.125,-23.5,0
68120,-15.375,11.6875,-23,0
68140,-15.75,12.5625,-22.75,0
68160,-16.4375,11.4375,-22.3125,0
68180,-17,11.875,-23.625,0
68200,-16.75,12.875,-25,0
68220,-17.3125,13.0625,-25.5,0
68240,-19.125,12.5,-24.875,0
68250,-20.75,15.5625,-23.6875,0
68270,-22.375,17,-24.4375,0
68290,-24.0625,21.25,-24.9375,0
68310,-24.0625,24.5625,-24.1875,0
68330,-25.3125,26.6875,-24.4375,0
68350,-25.125,28.5,-25.125,0
68370,-24.0625,31.125,-25.4375,0
68390,-23.125,33,-25.5,0
68410,-23.3125,34.375,-25.75,0
68430,-22.625,35.875,-25.4375,0
68450,-20.9375,36.75,-25.5625,0
68470,-20.1875,37.375,-26.1875,0
68490,-17.875,38.0625,-27.0625,0
68510,-15.625,39.875,-27.125,0
68530,-14.5625,40.9375,-26.25,0
68550,-14.5625,41.0625,-25.4375,0
68570,-12.4375,40.125,-25.25,0
68590,-9.6875,40.875,-24.875,0
68610,-9.0625,40.4375,-23.6875,0
68630,-9.9375,39.25,-22.75,0
68650,-7.3125,38.9375,-22.8125,0
68670,-4.5625,40.3125,-23.6875,0
68690,-4.6875,39.625,-23.625,0
68710,-5.125,40.125,-23.5,0
68730,-2.9375,40.625,-21.25,0
68750,-0.9375,40.625,-20.3125,0
68770,-0.8125,40,-19.125,0
68790,-1.8125,39.5625,-17.875,0
68810,-1.5625,38.25,-16.375,0
68830,-1.5625,37,-14.125,0
68850,-2.4375,35.875,-11.8125,0
68870,-4.3125,34.0625,-8.0625,0
68890,-3.3125,30.0625,-5.5,0
68910,-0.5,28.625,-5,0
68930,-2.875,26.125,-2.25,0
68950,-6.0625,24.4375,0.75,0
68970,-6.1875,23.25,0.5625,0
68990,-2.3125,20.625,0,0
69010,-2.25,18.125,0.875,0
69030,-0.8125,17.9375,2.4375,0
69050,0.8125,16.5625,1.1875,0
69070,2.875,15.5625,-0.8125,0
69090,2.5625,14.9375,-0.875,0
69110,0.8125,14.1875,2.4375,0
69130,2,13.8125,3.25,0
69150,4,12.625,2.1875,0
69170,2.875,11.5625,1.8125,0
69190,1.75,11.3125,2.75,0
69210,1.875,10.375,2.75,0
69230,2.5,8.875,1.4375,0
69250,1.5,7.75,1.375,0
69270,2.4375,7.25,1.4375,0
69290,3.5,4.5625,0.1875,0
69310,3.1875,2.25,-0.75,0
69330,2.375,0.25,-0.25,0
69350,0.6875,-0.1875,0.375,0
69370,2.75,-0.375,-1.1875,0
69390,4.1875,-0.375,-1,0
69410,4.6875,1.0625,2.25,0
69430,6.5,1.6875,4.25,0
69450,10.125,-0.1875,2.375,0
69470,5.25,-2.8125,2.1875,0
69490,-0.75,-1.8125,7.1875,0
69510,1.875,0.8125,9.1875,0
69530,4.5,-1.8125,8.4375,0
69550,7.125,-4.125,8.4375,0
69570,13.5,-4,9.6875,0
69590,15.25,-2.1875,9.5,0
69610,12.875,-1.5,11.4375,0
69630,8.8125,-3.6875,15.125,0
69650,8.9375,-2.3125,17.25,0
69670,9.875,-2,18.125,0
69690,7.125,-2.9375,18,0
69710,6.8125,-3.5625,18.625,0
69730,5.125,-5.5,18.8125,0
69750,6.5,-5.9375,17.1875,0
69770,6.4375,-8,15.0625,0
69790,2.625,-8.9375,15.25,0
69810,0,-8.875,16.875,0
69830,0.5,-9.125,11.8125,0
69850,3.8125,-11.1875,7.4375,0
69870,3.5625,-12.625,9.8125,0
69890,-0.25,-13.8125,12.25,0
69910,1,-10.8125,11.4375,0
69930,4.25,-9.25,9.5625,0
69950,5.75,-10.8125,9.5625,0
69970,8.875,-8.5,10.5625,0
69990,7.0625,-6.1875,13.0625,0
70010,5.5,-5.25,15.5625,0
70030,6.9375,-5.75,15,0
70050,7.1875,-6.5625,14.875,0
70070,7.375,-5.875,17.125,0
70090,5.5625,-7.375,18.1875,0
70110,2.5625,-7.9375,16.3125,0
70130,6.3125,-7.6875,14.75,0
70150,7.625,-10.4375,15.5,0
70170,4.5625,-10.5,16.75,0
70190,6.375,-10.75,13.75,0
70210,12.5625,-12,7.8125,0
70230,14.9375,-14.1875,9.75,0
70250,6.6875,-14.5625,14.4375,0
70270,8.125,-13.6875,13.3125,0
70290,8.9375,-16.4375,10.125,0
70310,5.875,-18.5,13,0
70320,4.25,-18.375,19.625,0
70340,1.25,-18.875,19.8125,0
70360,-2.875,-18.6875,17.875,0
70380,-4.6875,-17.9375,20,0
70400,-3.1875,-17.625,24.375,0
70420,-9,-19.8125,26.1875,0
70440,-10.0625,-17.4375,25.5,0
70460,-8.8125,-14.75,25.1875,0
70480,-6,-15.6875,23.875,0
70500,-4.25,-16.375,23.5625,0
70520,-0.375,-14.8125,22.875,0
70540,-1.5,-16,21.6875,0
70560,0.125,-16.9375,20.125,0
70580,0.5625,-17.75,20.0625,0
70600,0.9375,-17.5625,20.25,0
70620,1.75,-19,20.4375,0
70640,-0.4375,-20.375,20.5,0
70660,-1.375,-20.5,21.8125,0
70680,-1.8125,-20.375,21.875,0
70700,-0.4375,-22.125,21.875,0
70720,-1.75,-23.1875,22.9375,0
70740,-1.75,-22.3125,23.0625,0
70760,-2.125,-23.1875,22.125,0
70780,0,-24.75,20.8125,0
70800,-0.9375,-26.1875,21.1875,0
70820,1.4375,-26.1875,19.75,0
70840,1.125,-27.5625,17.4375,0
70860,0.625,-30.875,16.75,0
70880,-0.4375,-32.9375,16.5,0
70900,-2,-33.1875,16.875,0
70920,-1.3125,-34.4375,16.5,0
70940,0.875,-36.25,13.375,0
70960,1.375,-37.1875,10.75,0
70980,-0.5625,-38,8.75,0
71000,-3.4375,-39.6875,7.6875,0
71020,-4.5625,-39.8125,7.1875,0
71040,-0.25,-40.625,5.4375,0
71060,-1.625,-42.1875,0.4375,0
71080,-3,-42.5625,-0.0625,0
71100,-0.5625,-40.1875,2.125,0
71120,0.375,-40.1875,-0.1875,0
71140,-2.3125,-41.375,-0.5,0
71160,-3.9375,-41.1875,0.5625,0
71180,-2.1875,-41.125,0.4375,0
71200,-2.625,-40.625,-0.9375,0
71220,-4.3125,-41.5625,-2.0625,0
71240,-4.8125,-40.5625,-2.6875,0
71260,-1.625,-39.5625,-3.4375,0
71280,-0.375,-39.375,-6.5,0
71300,-0.9375,-39.9375,-9.625,0
71320,-1.8125,-38.625,-8.75,0
71340,-4.125,-36.9375,-6.875,0
71360,-2.4375,-37.25,-9.6875,0
71380,-4.8125,-37.6875,-10.6875,0
71400,-4.5,-34.75,-11,0
71420,-3.375,-33.375,-11,0
71440,-2.75,-33,-12.6875,0
71460,-6.4375,-31.875,-13.125,0
71480,-8.8125,-30.875,-12.9375,0
71500,-8.875,-29.875,-15.5625,0
71520,-9.875,-30.5625,-16.5625,0
71540,-11.75,-28.1875,-16.875,0
71560,-13.0625,-25.625,-16.5625,0
71580,-15,-25.25,-18,0
71600,-15.8125,-25.125,-20.0625,0
71620,-15.875,-23,-19.375,0
71620,-14.75,-19,-21.375,0
71650,-15.625,-17,-23.8125,0
71670,-17.3125,-14.1875,-23.4375,0
71690,-18.375,-11.75,-23.375,0
71710,-18.1875,-9,-22.8125,0
71730,-18.5625,-6.9375,-22.625,0
71750,-18.8125,-5.0625,-22.8125,0
71770,-19.8125,-3.4375,-22.4375,0
71790,-21.1875,-1.25,-22.5625,0
71810,-20.5,1,-23.625,0
71830,-20.6875,0.9375,-22.625,0
71850,-21.3125,2.1875,-22.375,0
71870,-21.3125,3.9375,-23.1875,0
71890,-22.8125,4.3125,-23.8125,0
71910,-24.3125,5.875,-23.875,0
71930,-25.8125,7.4375,-23.25,0
71950,-25.4375,8.5625,-22.875,0
71970,-25,10.0625,-23,0
71990,-25.375,13.375,-23.875,0
72010,-26.125,16.5,-25.1875,0
72030,-26.5,18.9375,-26.625,0
72050,-25.0625,21.8125,-27.625,0
72070,-22.375,24.0625,-28.625,0
72090,-20.5625,25.9375,-29.1875,0
72110,-21,27.75,-27.75,0
72130,-21.8125,29.4375,-27,0
72150,-21.6875,29.8125,-27.25,0
72170,-20.5,30,-26.4375,0
72190,-19.25,29.8125,-24.8125,0
72210,-18.1875,30,-24,0
72230,-16.9375,29.875,-24.25,0
72250,-16,28.9375,-24.125,0
72270,-16.0625,28.9375,-23.5,0
72280,-16.375,28.0625,-22.125,0
72310,-14.3125,26.3125,-21.6875,0
72330,-12.6875,26.8125,-21.375,0
72350,-12.8125,27.875,-21.125,0
72370,-13.875,28.6875,-21.125,0
72390,-13.6875,28.375,-19.875,0
72410,-9.125,28.625,-17.25,0
72440,-6.875,31.625,-18.5,0
72460,-6.3125,32.8125,-17.6875,0
72480,-5,33.0625,-15.375,0
72500,-4.1875,34.1875,-13.625,0
72520,-3.0625,34.375,-12.6875,0
72540,-1.25,34.25,-11.3125,0
72560,-0.5625,35.5625,-9,0
72580,-0.1875,35.5625,-7,0
72600,0.625,36.1875,-6,0
72620,1.25,36.75,-3.125,0
72640,1.5625,37.0625,1,0
72660,2.5,36.1875,2.8125,0
72680,3.3125,35.25,3.8125,0
72700,2.875,35.375,5.1875,0
72720,2.375,35.3125,6.3125,0
72740,2.6875,35.0625,7.1875,0
72760,1.5625,35.1875,8.625,0
72780,0.5,33.9375,11.1875,0
72800,2.125,33.1875,9.6875,0
72820,1.4375,30.9375,9.25,0
72840,0,29.3125,7.3125,0
72860,-2.5625,28.5625,6.3125,0
72880,-0.8125,27.9375,2.9375,0
72900,1.875,27.8125,2,0
72920,-1.1875,28.0625,5.875,0
72940,-2.25,28.125,6.75,0
72960,-1.625,27.8125,5.875,0
72980,-3.4375,26.5,5.1875,0
73000,-0.8125,24.9375,2.25,0
73020,2.375,24.6875,0.875,0
73040,0.5,23.5625,3.9375,0
73060,-1.125,21.875,5.8125,0
73080,-0.875,19.0625,3.625,0
73100,-1.375,16.5,2.0625,0
73120,-2.25,14.75,2.5625,0
73140,-1,15.6875,5.0625,0
73160,4.25,14.375,6.125,0
73180,4.625,12.6875,4.8125,0
73200,2.375,10.9375,5.8125,0
73220,0.5,9.5625,8,0
73240,1.75,9.4375,7.875,0
73260,2.3125,10,8.75,0
73280,1.5,9.875,13.4375,0
73300,1.25,10,16.625,0
73320,2.25,9.5,14.75,0
73340,3.5625,9.1875,14.375,0
73360,1.125,8.3125,15.0625,0
73380,1.3125,7.25,15.375,0
73400,5.75,6.4375,13.1875,0
73420,5.875,5.3125,12,0
73440,2.625,3.6875,12.1875,0
73460,3.25,3.75,11.125,0
73480,3.375,3,8.875,0
73500,4.3125,3.1875,6.875,0
73520,3.6875,1.6875,10.9375,0
73540,0.8125,0.8125,17.5,0
73560,0.1875,1.875,20.625,0
73580,0,2.625,18.6875,0
73600,1.25,2.9375,16.3125,0
73620,-0.6875,-0.0625,17.75,0
73640,-2.625,-0.5625,18,0
73660,-3.25,0.875,18.5625,0
73680,-4.375,0.3125,17.625,0
73700,-0.9375,-0.75,15.125,0
73720,-0.0625,-1.1875,14.75,0
73740,1.4375,-0.75,15.5625,0
73760,0.625,-1.625,11.875,0
73780,2.75,-1.4375,9.375,0
73800,2.75,-2.9375,10.3125,0
73820,3.375,-4.125,10.8125,0
73840,2.3125,-3.875,12,0
73860,1.5,-2.125,14.0625,0
73880,3.625,-4,14.3125,0
73900,4,-6.6875,14.5625,0
73920,4.3125,-5.6875,17.625,0
73940,2.8125,-7.5,19.4375,0
73960,2.0625,-9.5,20.5,0
73980,1.0625,-11.125,23.6875,0
74000,-1,-12.4375,24.8125,0
74020,-0.3125,-13.5625,24.0625,0
74040,1.375,-15,23.8125,0
74060,5.375,-16.5,22.1875,0
74080,9.375,-18.25,19.625,0
74100,7.5625,-20.6875,20,0
74120,7.3125,-21.9375,19.5625,0
74140,7.4375,-21.5,20.1875,0
74160,4.625,-23.5,21.6875,0
74180,3.25,-23.75,21.25,0
74200,3.8125,-25.0625,19.75,0
74220,1.5625,-27.5625,18.625,0
74240,0.125,-27.75,20.4375,0
74260,0.6875,-28.8125,20.8125,0
74280,1.3125,-29.5,17.3125,0
74300,0.6875,-30,16.6875,0
74320,-1.0625,-31,19.125,0
74340,-0.9375,-29.5,19.4375,0
74360,1.375,-29.75,17.5625,0
74380,-0.25,-31.0625,16.25,0
74400,-0.4375,-31.6875,15.625,0
74420,1.625,-30.375,13.9375,0
74440,2.9375,-29.3125,13.625,0
74460,5.6875,-28.3125,11.1875,0
74480,9.375,-27.6875,10.25,0
74500,8.0625,-27,13.5625,0
74520,8.4375,-25.5,16.0625,0
74540,4.4375,-25.75,14.375,0
74560,0.125,-25.5,13.1875,0
74580,-0.5,-25.375,13.125,0
74600,-0.9375,-27.6875,13.3125,0
74620,0.5625,-29.25,11.375,0
74640,0.4375,-30.5,11.4375,0
74660,-2.375,-31.5,9.5625,0
74680,-2.6875,-33.25,7.4375,0
74700,-0.8125,-35.6875,4.75,0
74720,-0.6875,-37.125,2.8125,0
74740,0.5,-38.0625,-0.0625,0
74760,1.75,-38.1875,-4,0
74780,2.8125,-38.625,-3.125,0
74800,1.1875,-39.375,-2.5,0
74820,0.125,-40.25,-4.875,0
74840,-1.6875,-39.6875,-7.3125,0
74860,-0.8125,-39.4375,-7.125,0
74880,-2.625,-39.375,-6.8125,0
74900,-2.8125,-40.8125,-6.5,0
74920,-3.0625,-40.0625,-6.5625,0
74940,-3.5625,-40.125,-8.75,0
74960,-7.8125,-39.5,-10.0625,0
74980,-7.1875,-39.8125,-8.5,0
75000,-5.125,-39.75,-9.375,0
75020,-5.9375,-39.625,-12,0
75040,-7.1875,-39.375,-15.6875,0
75060,-7.75,-37.75,-17.4375,0
75080,-9.5,-35.875,-16.25,0
75100,-8.0625,-34.6875,-16.5,0
75120,-8.875,-33.6875,-19.0625,0
75140,-11.1875,-31.0625,-20.1875,0
75160,-13,-29.0625,-19.875,0
75180,-15.4375,-27.0625,-19.9375,0
75200,-13.4375,-25.25,-21.625,0
75220,-12,-23.5,-23.9375,0
75240,-14.125,-21.4375,-25.3125,0
75260,-18.25,-18.75,-23.8125,0
75280,-19.8125,-15.3125,-22.625,0
75300,-18.25,-12.3125,-22.5,0
75320,-17.625,-9.9375,-24.0625,0
75340,-19.875,-7.8125,-24.3125,0
75360,-20.8125,-4.625,-23.5625,0
75380,-19.875,-2,-23.875,0
75400,-19.5625,0.625,-23.5,0
75420,-21.8125,3.625,-22.125,0
75440,-21.1875,6.125,-21.5,0
75460,-19.9375,7.25,-22.4375,0
75480,-20.625,8.3125,-22.625,0
75500,-22.25,10.25,-21.5625,0
75520,-21.9375,11.5,-21.8125,0
75540,-21.9375,12.375,-22.75,0
75560,-23.4375,13.75,-22.6875,0
75580,-23.9375,15.25,-22.9375,0
75600,-23.25,15.9375,-22.8125,0
75620,-22,17.4375,-22.8125,0
75640,-21.8125,17.9375,-23.5,0
75650,-23,18.0625,-22.9375,0
75670,-23.1875,18.8125,-21.125,0
75690,-21.0625,19.8125,-20.9375,0
75710,-20.1875,19.6875,-22,0
75730,-20.875,19.5625,-22,0
75750,-21.875,19.5625,-20.0625,0
75770,-20.4375,18.9375,-19.625,0
75790,-18.4375,18,-20.8125,0
75810,-19.0625,17.3125,-19.8125,0
75830,-18.875,17.625,-20.125,0
75850,-18.0625,17.375,-19.4375,0
75870,-17.4375,15.375,-18.625,0
75890,-16.8125,15.0625,-17.3125,0
75910,-16.4375,15.5625,-17.75,0
75930,-15.75,16.4375,-19,0
75950,-15.125,17.0625,-18.0625,0
75970,-13.8125,17.8125,-16.4375,0
75990,-13.5,19.25,-15.8125,0
76010,-14,19.5625,-16.125,0
76030,-14.5,19.5,-15.8125,0
76050,-14,19.8125,-14.25,0
76070,-11.5625,19.625,-14.125,0
76090,-10.625,20.0625,-15.125,0
76110,-11.4375,20.9375,-15.4375,0
76130,-11.8125,22.5625,-14.25,0
76150,-10.25,23.4375,-12.75,0
76170,-8.6875,24.5625,-12.125,0
76190,-6.9375,26.8125,-11.625,0
76210,-6.25,28.9375,-9.4375,0
76230,-6.875,30.25,-6.625,0
76250,-4.875,31.375,-4.9375,0
76270,-2.4375,32,-2.3125,0
76290,-3.4375,32.4375,0.75,0
76310,-4.375,33.25,3.3125,0
76330,-2.875,33.625,5.3125,0
76350,-1.5625,34.1875,7.125,0
76370,-0.3125,34.5,8.8125,0
76390,-0.0625,34.4375,10.75,0
76410,-0.25,34,11.8125,0
76430,1.3125,33.375,11,0
76450,1.8125,32,10.1875,0
76470,-1,31.875,11.375,0
76490,0,31.6875,11.3125,0
76510,0.9375,31,11.25,0
76530,1.625,29.0625,11.5625,0
76550,-0.3125,27.375,10.625,0
76570,-0.75,26.875,10.4375,0
76590,-3.3125,26.125,11.8125,0
76610,-1.5,25.3125,11.4375,0
76630,-1.25,24.125,10.375,0
76650,-1.3125,23.375,9.0625,0
76670,-2.3125,21.6875,9.5625,0
76690,-2.25,20.5,11.6875,0
76710,0.8125,20.25,11.1875,0
76730,2.625,18.375,8.6875,0
76750,2,15.25,7.375,0
76770,1.125,15.25,7.1875,0
76790,5.9375,15.5625,7.25,0
76810,3.625,13.8125,5.875,0
76830,1.9375,12.1875,6,0
76850,3.5,13.125,6.75,0
76870,2.375,12.8125,6.6875,0
76890,4.4375,11.25,4.8125,0
76910,6.875,12.25,5.6875,0
76930,7.375,11.8125,7.5625,0
76950,3.0625,11.6875,7.8125,0
76970,-0.6875,11.1875,7.8125,0
76990,-1.0625,12.75,7,0
77010,2.9375,11.4375,6.875,0
77030,5.75,10.3125,7,0
77050,3.5,8.125,6.25,0
77070,1.75,9.0625,6.375,0
77090,-0.625,7.75,7,0
77110,0.8125,6.3125,5.25,0
77130,1.9375,5.0625,5.75,0
77150,-0.5625,3.0625,7.4375,0
77170,2.8125,3.25,7.4375,0
77190,1.6875,1.375,9.9375,0
77210,-4.1875,1.0625,12.875,0
77230,-4.625,1.1875,13.5,0
77250,-4.3125,0.75,13.875,0
77270,-1.625,1.5,14.6875,0
77290,-1.875,-0.125,14.875,0
77310,-2.75,0.6875,13.6875,0
77330,-2.25,0.875,12.8125,0
77350,4,1.875,11.1875,0
77370,8.125,2.4375,10.875,0
77390,10,2,11.25,0
77410,5.9375,1.75,9.8125,0
77430,7.5,0.3125,9.6875,0
77450,1.5625,-1.5,13.375,0
77470,-0.4375,-0.6875,15.3125,0
77490,2.6875,-2.1875,15.75,0
77510,1.8125,-3.5625,17.5,0
77530,4,-2.625,16.75,0
77550,3.8125,-4.0625,16.5625,0
77570,-0.75,-6.0625,19.5,0
77590,-1,-4.875,19.375,0
77610,2.25,-6.375,18.3125,0
77630,-1.125,-9.5625,19.1875,0
77640,-1.1875,-9.9375,17.3125,0
77660,-2.25,-10.8125,18.5,0
77680,-3.125,-10.625,20.125,0
77700,-4.875,-10.5,20.5625,0
77720,-2.25,-10.375,18.625,0
77740,1.5625,-10.125,17.8125,0
77760,-0.6875,-12.1875,18.875,0
77780,-6.75,-13.6875,20.0625,0
77800,-8.375,-11.4375,19.6875,0
77820,-5.6875,-11.75,19.6875,0
77840,-1.25,-12.75,18.5625,0
77860,-3.1875,-13.875,17.9375,0
77880,-2.375,-11.875,16.375,0
77900,-1.5625,-12,16.4375,0
77920,-0.6875,-12.875,16.3125,0
77940,-1.6875,-12.25,16.375,0
77960,-2.8125,-12.375,15.9375,0
77980,-6.1875,-14.125,16.8125,0
78000,-5.875,-12.0625,16,0
78020,-1.875,-11.9375,15.625,0
78040,-2.1875,-14.1875,15.3125,0
78060,-3.375,-14.4375,13.75,0
78080,0.25,-12.5,12.1875,0
78100,-0.375,-14.875,13.125,0
78120,3.375,-16.375,11.875,0
78140,2.4375,-16.3125,11.25,0
78160,0.125,-16.0625,12.3125,0
78180,0.4375,-17.875,12,0
78200,0.25,-19.25,11.1875,0
78220,0.5625,-18.3125,11.4375,0
78240,0.0625,-18.8125,11.25,0
78260,2.25,-20.375,10.6875,0
78280,-1.375,-21.4375,9.75,0
78300,-0.8125,-20.125,7.8125,0
78320,2.4375,-20.1875,6.8125,0
78340,2.375,-21.3125,7,0
78360,-1.125,-21.5625,7.375,0
78380,-1.375,-20.1875,5.75,0
78400,-0.25,-20.5,2.6875,0
78420,1.625,-21.25,1.375,0
78440,0.75,-22.3125,0,0
78460,1.3125,-22.5625,-0.25,0
78480,-1.3125,-22.6875,-0.5,0
78500,-4.1875,-24.1875,-1.8125,0
78520,-2.875,-25.25,-2.4375,0
78540,-1.75,-25.375,-1.8125,0
78560,-1.1875,-26.5625,-2.5,0
78580,-2.0625,-27.125,-3,0
78600,-2.5625,-27.75,-2,0
78620,-4.25,-28.75,-0.4375,0
78640,-5.3125,-30.1875,-1.5,0
78660,-2.0625,-30.0625,-3.4375,0
78680,-2.25,-31,-3.9375,0
78700,-1.8125,-31.1875,-3.4375,0
78720,-0.125,-32.3125,-4.125,0
78740,-1.6875,-33.125,-4.75,0
78760,-3.875,-32.9375,-6.0625,0
78780,-2.875,-33.5625,-6.6875,0
78800,1.5625,-32.0625,-5.75,0
78820,1.9375,-32.5,-4.0625,0
78840,0.9375,-31.875,-2.4375,0
78860,-3.875,-30.875,-2.875,0
78880,-1.9375,-31.0625,-4.5,0
78900,0.375,-31,-7.5625,0
78920,2.125,-31.5,-7.875,0
78940,0.1875,-31.4375,-7.5,0
78960,-0.125,-30.1875,-8.1875,0
78980,0.375,-28.3125,-10.8125,0
79000,-0.5625,-28.4375,-13.5625,0
79020,-1.3125,-28.875,-14.0625,0
79040,1.25,-27.5625,-14.625,0
79060,0.75,-27.375,-17.625,0
79080,-1.5625,-26.5625,-18.6875,0
79100,-2.75,-24.3125,-18.25,0
79120,-2.625,-23.25,-18.5625,0
79140,-2.4375,-23.5,-20.375,0
79160,-2.9375,-22.875,-22,0
79180,-3.0625,-19.875,-21.1875,0
79200,-3.25,-19,-20.5,0
79220,-2.625,-17.75,-20.875,0
79240,-4,-14.5,-20.375,0
79260,-4.8125,-12.0625,-17.4375,0
79280,-4.8125,-9.9375,-16.3125,2001
79300,-0.9375,-9.125,-18,0
79320,-3.4375,-8.5,-18.375,0
79340,-6.375,-6.4375,-15,0
79360,-5.125,-4.625,-12.9375,0
79380,-4.125,-4.75,-12,0
79400,-4,-3.5,-11.125,0
79420,-4.5,-2.0625,-9.5625,0
79440,-5.125,-1.4375,-8.1875,0
79460,-5.4375,-1.1875,-5.3125,0
79480,-3.5625,0.5625,-3.25,0
79500,-3.75,2.8125,-1.25,0
79520,-2.875,5,-0.4375,0
79540,-1.8125,5.5625,0.5,0
79560,-0.8125,5.1875,1.5,0
79580,0.0625,5,0.3125,0
79600,-0.125,5.625,-2.75,0
79620,0.5625,6.8125,-4.5625,0
79640,2,7.8125,-5.25,0
79670,-0.4375,10.4375,-0.1875,0
79690,-6.4375,15.9375,0.1875,0
79710,-3.4375,20.1875,-3,0
79730,2.8125,24.8125,-7.5,0
79750,8.6875,27.125,-10.8125,0
79770,9.25,30.125,-8.875,0
79790,12.125,37.375,0.75,0
79810,22.3125,41.8125,11.1875,0
79830,26.375,43.625,22.1875,0
79850,26.4375,51.0625,36.25,0
79870,28.0625,58.8125,48.875,0
79890,34.125,67,54.125,0
79910,41.6875,70.8125,55.5,0
79930,46.625,80.375,60.375,0
79950,50.4375,82.625,68.25,0
79970,59.8125,80.25,70.625,0
79990,62.5625,79.5625,81.75,0
80010,53.625,76.875,100.125,0
80030,57.5,72.25,103.5,0
80050,58.8125,71.75,96.1875,0
80070,55.875,68.125,87.625,0
80090,51.25,62.3125,78,0
80110,46.4375,59.3125,71.75,0
80130,40.3125,51.5,65.1875,0
80150,34.4375,45.1875,64,0
80170,33.3125,43.0625,60.1875,0
80190,28.5625,36.9375,52,0
80210,23.8125,29.5625,40.8125,0
80230,14.9375,25.5,35.4375,0
80250,11.5,24,31.625,0
80270,15.5,21.5,22.25,0
80290,19.375,17.125,14.5,0
80310,14.6875,14.125,11.5625,0
80330,8.5625,13.4375,10.625,0
80350,6,12.375,6,0
80370,5.125,10.8125,0.4375,0
80390,4.5,10.625,-1.9375,0
80410,3.3125,10.75,-3.6875,0
80430,2.4375,10.8125,-3.9375,0
80450,-2.625,11.6875,-0.5625,0
80470,-0.5625,12.1875,3.6875,0
80490,-3.6875,11.1875,7.5625,0
80510,-9.9375,8.625,10.5625,0
80530,-12.3125,9.9375,11.625,2000
80550,-10.875,7.5625,11.6875,0
80570,-11.0625,5.1875,12.9375,0
80590,-8.0625,2.625,13.4375,0
80610,-3.125,-1.6875,12.4375,0
80630,3.0625,-5.25,11.1875,0
80650,5.875,-7.5625,10,0
80670,2.125,-9.4375,8.375,0
80690,0.0625,-13.3125,7.8125,0
80710,-2.25,-19.6875,9.5625,0
80730,1.1875,-24.6875,11.4375,0
80750,5.1875,-27.875,7.625,0
80770,3.125,-30.6875,6.5,0
80790,-1.4375,-32.25,6.75,0
80810,-2.8125,-32.5625,8.6875,0
80830,-1.625,-33.1875,8.1875,0
80850,-2.625,-34.375,5.4375,0
80870,-4,-35.3125,4.875,0
80890,0.5,-34.6875,3.875,0
80910,0.375,-34.375,2.0625,0
80930,-1.5625,-36.0625,1.25,0
80950,-3.375,-36.8125,-0.0625,0
80970,-2.875,-36.375,0.0625,0
80990,-4.125,-35.75,2.1875,0
81010,-4.375,-34.6875,1.8125,0
81020,-4.5625,-34.0625,0.125,0
81040,-6.3125,-33.6875,-2.375,0
81060,-7.625,-31.6875,-2.0625,0
81080,-6.8125,-30.9375,0.375,0
81100,-4.9375,-29,-1.5,0
81120,-3.125,-26.25,-4.6875,0
81140,-2.25,-25,-5.75,0
81160,-1.75,-24,-6.8125,0
81180,-2.125,-22.375,-7.125,0
81200,-2.625,-21.4375,-7.8125,0
81220,-2.875,-20.5625,-9.5625,0
81240,-3.4375,-19,-11.1875,0
81260,-3.875,-17.6875,-9.8125,0
81280,-5,-16.0625,-11,0
81300,-5.125,-13.75,-12.4375,0
81320,-5,-12.25,-12.4375,0
81340,-6.4375,-11.25,-13.375,0
81360,-6.75,-10.125,-14.1875,0
81380,-6.875,-7.75,-16.0625,0
81400,-8.3125,-5.4375,-17.1875,0
81420,-8.9375,-3,-17.875,0
81440,-6.1875,0.75,-18.25,0
81460,-3.75,5.1875,-20.375,0
81480,-3.8125,7.75,-21.375,0
81500,-5.0625,10.1875,-21.4375,0
81520,-6.5625,11.375,-22.0625,0
81540,-8.125,12.4375,-22.125,0
81560,-10.5625,14.125,-22.25,0
81580,-10.6875,15.3125,-22.25,0
81600,-10.25,15.3125,-22.5,0
81620,-11.5,16,-23.3125,0
81640,-13.25,15.875,-24.0625,0
81660,-14.125,15.1875,-25,0
81680,-14.5625,14.5625,-25.875,0
81700,-14.625,15.4375,-26.25,0
81720,-13.5625,15.8125,-26.5,0
81740,-13.6875,15.5,-27.0625,0
81760,-14.6875,14.0625,-28.25,0
81780,-14.8125,13.6875,-29.125,0
81800,-15.5625,14.25,-29.375,0
81810,-17.125,15,-28.5,0
81830,-16.6875,14.6875,-28,0
81850,-15.4375,14.375,-28.3125,0
81870,-16.5625,15.1875,-28.6875,0
81890,-17.875,16.375,-28.8125,0
81910,-17.375,17.875,-28.625,0
81930,-16.1875,19.0625,-27.0625,0
81960,-16.5,22.3125,-27.1875,0
81980,-16.125,23.4375,-28.0625,0
82000,-14.4375,24.625,-28.1875,0
82020,-13.8125,26,-27.5,0
82040,-13.875,27.9375,-27.0625,0
82060,-12.9375,28.875,-26.875,0
82080,-12.25,29.25,-26.0625,0
82100,-11.625,30.125,-25.5625,0
82120,-10.125,30.875,-25.75,0
82140,-7.875,31.625,-26,0
82160,-5.875,31.6875,-25.75,0
82180,-4.0625,32.8125,-26.4375,0
82200,-1.5625,34.5,-28,0
82220,1.5,35.3125,-28.1875,0
82240,3.25,35.375,-26.25,0
82260,3.8125,35.875,-24.0625,0
82280,3.5625,36.5625,-21.8125,0
82300,2.5,39,-20.125,0
82320,2.75,39.375,-18.6875,0
82340,3.5,40.5,-19.375,0
82360,3.9375,41.125,-18.5625,0
82380,3.75,41.8125,-16.0625,0
82400,1.75,40.5,-13.375,0
82420,1.0625,40.875,-12.75,0
82440,1.75,41.125,-12.9375,0
82460,5.125,39.5,-11.75,0
82480,4.5,39.1875,-11.0625,0
82500,5.125,39.5625,-11.9375,0
82520,5.375,38.9375,-11.1875,0
82540,4.25,35.9375,-8.9375,0
82560,4.625,32.6875,-8.25,0
82580,5.375,30.875,-8.125,0
82600,5.125,28.9375,-10.0625,0
82620,4.125,25.375,-9.625,0
82640,1.9375,22.6875,-7.25,0
82660,3.125,19.9375,-6.8125,0
82680,3.9375,17.6875,-6.5,0
82700,2.625,14.625,-6.375,0
82720,1.4375,12.0625,-7.8125,0
82740,0.6875,10.1875,-7.9375,0
82760,0.125,8.4375,-6.5625,0
82780,2.6875,5.8125,-7.25,0
82800,3.1875,3.0625,-8.125,0
82820,0.4375,2.25,-6.6875,0
82840,-1.5625,1.875,-4,0
82860,0.875,1.125,-4.9375,0
82880,2.0625,0.1875,-5.5625,0
82900,0.5625,0.1875,-3.4375,0
82920,-2.375,0.3125,-0.0625,0
82940,-0.6875,2.125,0.875,0
82960,0.875,3.5625,-0.1875,0
82980,1.125,3.3125,-1.0625,0
82990,0.0625,2.5,1,0
83010,-0.0625,3.3125,2.75,0
83030,4.6875,4.1875,2.1875,0
83050,6.375,3.625,1.75,0
83070,4.75,3.1875,2.1875,0
83090,3.375,4.3125,2.375,0
83110,0.8125,4.3125,3.875,0
83130,-0.0625,4.1875,5,0
83150,1.75,4,5.3125,0
83170,2.625,4.1875,4.6875,0
83190,3.6875,3.4375,3.1875,0
83210,3.6875,3,3.125,0
83230,3.125,2.5625,4.8125,0
83250,3.875,2.9375,2.875,0
83270,6.9375,2.4375,2,0
83290,7.5625,0.5,4.375,0
83310,5,0.0625,5,0
83330,5.5625,0.125,4.125,0
83350,4.9375,-1.125,5.3125,0
83370,4.5,-2.4375,7.5625,0
83390,5.4375,-2.625,5.8125,0
83410,5.4375,-3,5.625,0
83430,5.1875,-3.25,5.875,0
83450,5.25,-3.4375,5.8125,0
83470,5.25,-3.375,6.3125,0
83490,5.1875,-3,8.8125,0
83510,4.125,-2.3125,8.6875,0
83530,4.1875,-1.75,7.9375,0
83550,6.4375,-0.6875,8.25,0
83570,5.75,-1.4375,10.375,0
83590,2.25,-1.4375,10.875,0
