Timestamp, Rotation x, Rotation y, Rotation z, Marker
40,-62.9375,-29.75,61,0
60,31.375,-38,29.1875,0
80,79.6875,-4.75,0.9375,0
100,114.812,24.625,-40.0625,0
120,126.875,19.125,-33,0
140,131.688,-0.5,-10.4375,0
150,89.9375,-8.6875,-2.125,0
150,27.375,-4.1875,-5,0
190,-23.6875,3.0625,-3.6875,0
210,-47.6875,1.875,7.3125,0
230,-45.875,0,16.0625,0
250,-25.6875,2.3125,14.4375,0
270,3.75,4,6.5,0
290,30.5625,5.4375,-0.6875,0
310,47,5.9375,-4.5,0
330,47.3125,3.9375,-5.0625,0
350,35.75,1,-2.9375,0
370,15.75,-0.375,-1.4375,0
390,-3.3125,-0.5625,-1.375,0
410,-12.75,-0.6875,-0.625,0
430,-9.9375,-1.625,0.3125,0
450,-0.8125,-2.5625,0.5625,0
470,8.0625,-1.9375,1.125,0
490,11.125,-1.4375,2.1875,0
510,7.5,-1.125,2.125,0
530,-0.125,-1.125,2.625,0
550,-7.875,-0.6875,3.1875,0
570,-12.75,0.0625,3.375,0
590,-14.4375,-0.9375,4.3125,0
610,-14.125,-1.75,4,0
630,-12.25,-1.1875,2.1875,0
650,-7.875,-0.6875,1.25,0
670,-4.625,-1.125,1.375,0
690,-0.8125,-0.8125,1.5625,0
710,2,-0.375,1,0
730,3.625,-0.125,0.6875,0
750,3.125,-0.5625,0.4375,0
770,0,-1,1.0625,0
790,-2.5,-1.5,0.75,0
810,-3.25,-0.9375,0.1875,0
830,-2.375,-0.5625,0.75,0
850,-1.625,-0.125,1.1875,0
870,-1.25,0.125,1.625,0
890,-2.375,0.0625,1.9375,0
910,-3.5625,0.25,1.3125,0
930,-4.4375,1.0625,0.9375,0
950,-4.6875,1,0.75,0
970,-3.5625,0.8125,1.0625,0
990,-2.375,0.5625,1,0
1010,-0.6875,0.625,0.9375,0
1030,-0.3125,0.25,1.0625,0
1050,-0.6875,-0.125,0.625,0
1070,-0.9375,-0.5625,0.4375,0
1090,-0.6875,-0.75,0,0
1110,0.3125,-0.875,-0.25,0
1130,0.875,-1.125,0.125,0
1150,0.6875,-1.1875,0.875,0
1170,-0.1875,-1.4375,1.5625,0
1190,-1.5,-1.4375,1.8125,0
1210,-3.0625,-1.0625,1.5,0
1230,-3.625,-0.8125,1.1875,0
1250,-3.625,-0.6875,0.9375,0
1270,-2.375,-0.5,0.5,0
1290,-0.625,-0.4375,0.5,0
1310,0.8125,-0.625,0.9375,0
1330,1.25,-0.8125,1.125,0
1350,0.3125,-1.0625,0.9375,0
1370,-1.125,-1.5,1,0
1390,-2.9375,-1.5,0.75,0
1410,-5.1875,-0.375,0.9375,0
1430,-7,0.5625,2.125,0
1450,-7.9375,0.9375,2.5625,0
1470,-7.375,1.25,2.1875,0
1490,-5.125,1.5625,1.25,0
1510,-2.1875,1.625,0.3125,0
1530,-0.1875,1.625,-0.5,0
1550,0.9375,1.1875,-0.875,0
1570,2,0.875,-1.5,0
1590,3.75,0.625,-1.0625,0
1610,4.9375,-0.125,0.0625,0
1630,5.5625,-0.875,0.125,0
1650,5.0625,-1.625,-0.0625,0
1670,3.75,-1.875,-0.6875,0
1690,2,-1.625,-1.0625,0
1710,1.0625,-1.5625,-0.25,0
1730,0.4375,-1.875,0.5,0
1750,1.125,-1.625,0.875,0
1770,1.3125,-1.5625,1.5,0
1790,0.1875,-1.125,2.25,0
1810,-3.125,-0.4375,2.5,0
1830,-5.75,-0.1875,2.625,0
1850,-6.125,-0.0625,1.875,0
1870,-3.4375,0.125,0.4375,0
1890,1.8125,-0.5,-0.9375,0
1910,7.125,-1.5,-2.4375,0
1930,10.8125,-2.5,-3.5625,0
1950,12.875,-3.3125,-4.1875,0
1970,14.375,-3.6875,-3.875,0
1990,13.9375,-4.25,-2.5,0
2010,11.8125,-4.6875,-1.0625,0
2030,7.5625,-4.5625,-0.125,0
2050,3.1875,-4.0625,0.875,0
2070,-0.375,-3.5,1,0
2090,-2.125,-2.8125,0.6875,0
2110,-1.75,-2.5625,0.8125,0
2120,0.875,-2.75,0.4375,0
2140,2.5625,-3.1875,-0.375,0
2160,3.875,-2.5625,-1.8125,0
2180,4.875,-2.625,-2.1875,0
2200,5.375,-3.6875,-1.1875,0
2220,6.4375,-4.1875,-0.8125,0
2240,7.8125,-4.125,-1.125,0
2260,7.875,-4.25,-0.9375,0
2280,6.8125,-4.375,-1.4375,0
2300,5.75,-5.0625,-1.5,0
2320,5.3125,-5.6875,-1.1875,0
2340,2.1875,-6.5,0,0
2360,-9.6875,-8.4375,2.5,0
2380,-24.75,-9.5,3.625,0
2400,-31.5,-8.8125,4.0625,0
2420,-31.8125,-7.5,2.375,0
2440,-25,-6,2.75,0
2460,-18.0625,-5.3125,4.0625,0
2480,-14.75,-4.8125,4,0
2500,-15.4375,-4.125,3.375,0
2520,-14,-3.125,1.875,0
2540,-9.3125,-1.6875,0.75,0
2560,-4.3125,-0.9375,0.75,0
2580,-3.3125,-1.1875,1.25,0
2600,-5.375,-1.375,1.5625,0
2620,-7.375,-0.625,1.3125,0
2640,-7.25,0.0625,1.0625,0
2660,-5.5,0.25,1.75,0
2680,-4.5,-0.125,2.3125,0
2700,-6.1875,-0.5625,2.3125,0
2720,-8.5625,-0.4375,2.4375,0
2740,-10.375,-0.0625,2.875,0
2760,-11.1875,0.125,3.0625,0
2780,-11.625,0.4375,3.0625,0
2800,-12.5625,0.4375,3.3125,0
2820,-12.875,0.25,3.4375,0
2840,-12.6875,0.5625,3.4375,0
2860,-12.0625,0.4375,3.3125,0
2880,-11.125,0.25,3,0
2900,-9.875,0.3125,2.3125,0
2920,-9.3125,0.375,2,0
2940,-8.25,0.4375,1.125,0
2960,-6.5625,0.1875,0.875,0
2980,-2.9375,-0.0625,1,0
3000,0.875,-0.5,0.625,0
3020,1.9375,-0.875,0.375,0
3040,1,-1,0.375,0
3060,-0.8125,-0.875,0.9375,0
3080,-3,-0.75,1.5625,0
3100,-3.6875,-0.4375,1.875,0
3120,-3.5625,-0.3125,2.3125,0
3140,-2.8125,-0.0625,2.0625,0
3160,-1.75,0.1875,2.8125,0
3180,-1.625,0.375,3.5,0
3200,-3.4375,1.25,3.6875,0
3220,-4.0625,1.375,4.625,0
3240,-3.3125,1,4.0625,0
3260,-1.75,2.0625,3.625,0
3280,-0.5,2.75,5,0
3300,-1.25,2.4375,6.8125,0
3320,-5.5,2.5625,6.25,0
3340,-8.625,3.25,4.625,0
3350,-8.4375,3.375,4.0625,0
3370,-5.75,3.0625,3.4375,0
3390,-3,3.1875,3.125,0
3410,-2.4375,3.5625,3.1875,0
3430,-3.25,4.0625,4.1875,0
3450,-3.5,5.125,4.75,0
3470,-1.9375,6.375,4.5,0
3490,0.875,6.125,5.75,0
3510,0.25,5.9375,6.1875,0
3530,-3.25,5.4375,6.1875,0
3550,-7,4.6875,5,0
3570,-8.0625,3.75,4.875,0
3590,-6.4375,3,3.625,0
3610,-3.25,2.5625,3.8125,0
3630,-1.3125,1.3125,4.375,0
3650,-1.5,1.25,4.1875,0
3670,-3.0625,1.6875,3.1875,0
3690,-4.75,1.9375,2.8125,0
3710,-4.5,1.0625,2.6875,0
3730,-1.9375,0.6875,0.8125,0
3750,2.1875,0.3125,-1.25,0
3770,6.1875,0.6875,-2.5,0
3790,10.375,1.625,-4.125,0
3810,13.625,0.125,-5,0
3830,13.625,-0.75,-6.4375,0
3850,12.875,-0.8125,-5.5625,0
3870,13.625,-2.6875,-3.4375,0
3890,12.875,-2.9375,-3.375,0
3910,12,-0.8125,-5.125,0
3930,12.8125,-1.125,-2.6875,0
3950,13.125,-2.9375,-2.4375,0
3970,10.125,-2.8125,-4.3125,0
3990,6,-1.5625,-6,0
4010,3.0625,-1.625,-4.125,0
4030,4.1875,-3.5,-3.4375,0
4050,5.8125,-3.8125,-4.4375,0
4070,9.1875,-2.9375,-5,0
4090,11.4375,-2.75,-3.875,0
4110,11.1875,-3.8125,-3.1875,0
4130,9.5,-4.125,-3.9375,0
4150,9.3125,-4.0625,-4,0
4170,10.25,-4.125,-3.9375,0
4190,9.3125,-4.25,-2.5,0
4210,6.625,-4.9375,-2.0625,0
4230,3.25,-4.625,-2.5,0
4250,1.8125,-4.8125,-2.6875,0
4270,1.75,-4.4375,-3.4375,0
4290,2.25,-4.25,-3.3125,0
4310,3.9375,-4.25,-2.4375,0
4330,5.5,-3.9375,-2.4375,0
4350,6.5,-3.5,-2.625,0
4370,6.6875,-3.25,-3.4375,0
4390,6.8125,-3.3125,-3.375,0
4410,6.875,-3.375,-2.9375,0
4430,6.25,-3.0625,-2.875,0
4450,4.6875,-2.5625,-2.625,0
4470,3.125,-2.25,-2,0
4490,1.8125,-2.3125,-1.75,0
4510,1.875,-2.0625,-1.625,0
4530,2.4375,-1.8125,-1.375,0
4550,1.4375,-1.6875,-1.3125,0
4570,-0.5,-1.625,-1.125,0
4590,-1.3125,-1.75,-1.25,0
4610,-0.125,-2.125,-1.25,0
4630,1.125,-2.125,-1.0625,0
4650,1.625,-1.625,-0.9375,0
4670,1.1875,-1.3125,-1.0625,0
4690,1.3125,-1.4375,-0.5625,0
4700,1.9375,-1.8125,-1,0
4720,2,-1.5625,-1.1875,0
4740,1.1875,-1.3125,-0.875,0
4760,0.75,-1.25,-1.3125,0
4780,0.25,-1.1875,-1.625,0
4800,0.625,-1.25,-0.6875,0
4820,1.125,-1.1875,-0.4375,0
4840,0.5,-0.6875,-1.5,0
4860,-0.375,-0.3125,-2.125,0
4880,0.125,-0.1875,-2.5,0
4900,1.375,-0.625,-2.75,0
4920,2.75,-0.4375,-2.375,0
4940,4.125,-0.3125,-2,0
4960,4.3125,-0.125,-1.25,0
4980,2.875,-0.4375,-1,0
5000,1,-0.625,-0.25,0
5020,-0.8125,-1,0.125,0
5040,-2,-0.8125,0.125,0
5060,-3.3125,-0.875,0.5,0
5080,-4.25,-1.0625,1.125,0
5100,-4.8125,-1.1875,0.9375,0
5120,-4.4375,-1,1.0625,0
5140,-4.5625,-0.9375,1.8125,0
5160,-4.75,-0.4375,1.5,0
5180,-4.6875,-0.3125,1.125,0
5200,-3.5625,-0.3125,1.25,0
5220,-3.3125,-0.4375,1.1875,0
5240,-3.25,0.625,0.0625,0
5260,-3.0625,1.0625,-0.25,0
5280,-2.5,0.75,-0.625,0
5300,-0.8125,0.625,-0.8125,0
5320,1.5,0.375,0.0625,0
5340,2.5,0.3125,0.5,0
5360,0.625,0.6875,0.0625,0
5380,-2.25,0.25,0.25,0
5400,-4.25,-0.0625,0.75,0
5420,-4,0.125,0.375,0
5440,-3.0625,0.375,0.5,0
5460,-2.8125,0.375,0.25,0
5480,-3,0.6875,-0.3125,0
5500,-2.1875,0.375,0.0625,0
5520,-0.375,0,-0.9375,0
5540,1.5,0.0625,-1.4375,0
5560,3.5625,-0.5,-1.125,0
5580,5.75,-1,-1.75,0
5600,6.625,-1.375,-2.3125,0
5620,6.5625,-1.5,-2.625,0
5640,6.625,-1.75,-2.6875,0
5660,7.75,-2.0625,-2.3125,0
5680,9.1875,-2.9375,-1.375,0
5700,9.4375,-2.6875,-1.1875,0
5720,6.9375,-2.6875,-1.4375,0
5740,3.4375,-3.125,-1.4375,0
5760,0.625,-3.3125,-1.625,0
5780,1.3125,-3.375,-1.9375,0
5800,4.875,-3.25,-1.625,0
5820,8.1875,-3.25,-1.5,0
5840,8.6875,-3.1875,-1.375,0
5860,7.125,-2.375,-1.6875,0
5880,4.25,-2.25,-0.8125,0
5900,1.6875,-2.5,0,0
5920,-0.9375,-2.375,0.1875,0
5940,-3.25,-2.25,0.6875,0
5960,-5.25,-2.1875,1.125,0
5980,-6.0625,-2.5,2,0
6000,-7.125,-2.25,2.75,0
6020,-9.625,-1.25,1.3125,0
6040,-12.8125,-0.25,0.25,0
6060,-13.875,-0.0625,1.9375,0
6080,-12.0625,-0.3125,2.875,0
6100,-8,0.375,1.875,0
6120,-4.0625,1.3125,0.5,0
6140,-2.3125,1.6875,-0.1875,0
6160,-2.75,1.25,0.375,0
6180,-2.5,1.3125,-0.1875,0
6200,-1.25,1.625,-0.9375,0
6220,1.0625,1.25,-0.6875,0
6240,3.1875,1.0625,-0.8125,0
6260,3.5,0.9375,-0.875,0
6280,2.625,0.625,-0.125,0
6300,0.8125,0.125,0.4375,0
6320,-0.25,0.0625,-0.1875,0
6340,0,0.4375,-0.4375,0
6360,0.9375,0,0.125,0
6380,0.8125,-0.75,1.125,0
6400,0.25,-1.4375,1.375,0
6420,-0.0625,-1.5625,0.8125,0
6440,-0.4375,-1.5625,1.0625,0
6460,-1.4375,-1.625,1.125,0
6480,-2.1875,-1.8125,1.25,0
6500,-1.625,-2.1875,1.25,0
6520,-0.1875,-2.3125,0.3125,0
6540,1.3125,-1.75,-0.0625,0
6560,1.6875,-1.6875,0.9375,0
6580,1.3125,-1.875,0.8125,0
6600,1.625,-1.625,-0.6875,0
6620,3.0625,-1.9375,-1.3125,0
6640,4.375,-2.25,-1.1875,0
6660,5.1875,-2.4375,-1.5,0
6680,4.8125,-2.375,-0.9375,0
6700,4.1875,-2.5625,-0.4375,0
6720,3.4375,-2.5,-1,0
6740,3.25,-2.375,-0.625,0
6760,2.6875,-2.5,0,0
6780,1.4375,-2.5,0.0625,0
6800,-0.125,-2.75,0.5625,0
6820,-0.5625,-2.5625,0.375,0
6840,-0.75,-2.1875,0.3125,0
6860,-0.5,-1.875,0.5,0
6880,-0.375,-1.375,0.75,0
6900,-0.0625,-1.25,1.0625,0
6920,1.375,-1.4375,0.5625,0
6940,3.25,-1,-0.125,0
6960,3.4375,-0.875,-0.125,0
6980,2.75,-0.625,-1.25,0
7000,3.0625,-0.8125,-1.125,0
7020,5.125,-1.375,-0.4375,0
7040,5.75,-1.1875,-0.8125,0
7060,4.3125,-1,-1.3125,0
7080,1.4375,-1.375,-0.1875,0
7100,-2.3125,-1.5625,0.4375,0
7120,-3.5,-1.3125,0.75,0
7140,-2.875,-1.0625,1.0625,0
7160,-1.5,-0.6875,2.4375,0
7180,-2.375,-0.75,2.4375,0
7200,-2.1875,0.0625,0.9375,0
7220,-2.25,0.0625,1.0625,0
7240,-2.875,-0.5,2.375,0
7260,-3.9375,-0.5625,1.875,0
7280,-3.75,0,0.6875,0
7290,-3.5,0.0625,1.75,0
7310,-3,0.25,1.9375,0
7330,-3.75,0.125,1.6875,0
7350,-5.1875,0.5625,1.5625,0
7370,-6.375,1.125,0.75,0
7390,-7.5625,0.8125,1.5,0
7410,-7.0625,0.6875,1.5,0
7430,-5.5,1,1.5,0
7450,-4.75,1.0625,2.5,0
7470,-5.375,1.75,2.5,0
7490,-5.0625,1.9375,1.875,0
7510,-3.25,1.75,1.3125,0
7530,-2,1.25,1.5625,0
7550,-2.25,0.75,1.6875,0
7570,-3.125,0.5,1.8125,0
7590,-3.0625,-0.25,1.5625,0
7610,-3.0625,-0.5625,0.4375,0
7630,-1.9375,-0.5,-0.5625,0
7650,-0.0625,-0.75,-0.125,0
7670,2.5625,-1.4375,0.6875,0
7690,3.6875,-1.8125,0.375,0
7710,3.8125,-1.6875,-0.625,0
7730,3.4375,-1.875,-1.0625,0
7750,2.8125,-2.375,-0.6875,0
7770,2.1875,-3.1875,0.25,0
7790,1.6875,-3.25,0,0
7810,0.3125,-2.75,-0.125,0
7830,-0.6875,-2.5,0.75,0
7850,-1,-2.25,1.0625,0
7870,-0.1875,-2.0625,0.4375,0
7890,0.9375,-1.5625,-0.1875,0
7910,1.3125,-0.75,-0.0625,0
7930,1.1875,-0.0625,-0.3125,0
7950,0.6875,0.125,-0.8125,0
7970,1.75,0.25,-1.6875,0
7990,3.75,0.0625,-3.0625,0
8010,5.5,-0.1875,-3.5625,0
8030,5.75,-0.375,-3.5,0
8050,4.4375,-0.5,-2.875,0
8070,3.625,-0.8125,-2.75,0
8090,3.875,-1.1875,-2.8125,0
8110,4.5625,-1.25,-2.3125,0
8130,4.1875,-1.125,-1.375,0
8150,1.75,-1.125,-0.9375,0
8170,-1.25,-0.875,-0.6875,0
8190,-2.8125,-1.1875,-0.25,0
8210,-2.6875,-1.3125,0.1875,0
8230,-0.625,-1.0625,-0.25,0
8250,0.75,-1.0625,-0.6875,0
8270,0.75,-0.9375,-0.5,0
8290,0.1875,-1.25,-0.5,0
8310,0.375,-1.125,-0.625,0
8330,1.5,-1.1875,-0.6875,0
8350,2.9375,-1.25,-0.8125,0
8370,3.375,-1.6875,-0.75,0
8390,2,-1.5625,-1.75,0
8410,0.3125,-0.875,-2.0625,0
8430,-0.75,-1.1875,-0.875,0
8450,-0.25,-1.4375,-0.25,0
8470,0.75,-1.4375,0.5,0
8490,0.125,-0.875,-0.0625,0
8510,-1.75,-0.3125,-0.25,0
8530,-3.25,-0.875,0.3125,0
8550,-3.3125,-1.1875,0.75,0
8570,-1.9375,-0.5,0.1875,0
8590,-0.8125,-0.0625,0.375,0
8610,-1.1875,-0.0625,0.5625,0
8630,-1.25,-0.6875,-0.25,0
8650,-0.9375,-1.375,0.25,0
8670,-0.625,-1.5,-0.25,0
8690,-1.75,-0.75,-0.4375,0
8710,-3.0625,-0.8125,0.5625,0
8730,-3.8125,-1.25,0.625,0
8750,-3.9375,-1,0.875,0
8770,-3.4375,-0.3125,0.5625,0
8790,-2.625,0.3125,-0.25,0
8810,-1.75,0.375,-0.25,0
8830,0.4375,0.375,-0.3125,0
8850,2.1875,0.125,-1.0625,0
8870,3.75,-0.3125,-1.25,0
8890,4.3125,-0.75,-1.4375,0
8910,3.5,-1.25,-0.875,0
8930,2.1875,-1.5,-1.25,0
8950,1.1875,-0.875,-2.125,0
8970,0.625,-1.75,-0.5,0
8990,0,-2.5625,1.125,0
9010,-1.8125,-1.6875,-0.0625,0
9030,-5.3125,0.0625,-0.875,0
9050,-6.375,0.25,-0.0625,0
9070,-4.8125,-1.75,2.5625,0
9090,-1.8125,-1.9375,1.5,0
9110,-0.5625,-0.125,-0.75,0
9130,-1.3125,0.125,-0.5,0
9150,-3.375,-1.75,1.0625,0
9170,-4.0625,-2.4375,1.1875,0
9190,-5.0625,-0.9375,0.6875,0
9210,-5.4375,-0.0625,0.5625,0
9230,-3,-0.8125,0.8125,0
9250,1,-2.375,2.75,0
9270,2.125,-1.4375,2.5,0
9290,-2.9375,0.5625,1.0625,0
9310,-8.0625,0.1875,1.1875,0
9330,-8.25,-1.3125,2.5,0
9350,-3.8125,-1.1875,3.0625,0
9370,-1.0625,0.375,2.1875,0
9390,-2.4375,1,1.5625,0
9410,-2.8125,0.4375,0.5625,0
9430,0.875,-0.625,1,0
9450,5.0625,-0.9375,1.125,0
9470,4.0625,-0.375,0.3125,0
9490,-0.5,-0.25,0.5625,0
9510,-3.5625,-0.8125,0.8125,0
9530,-2.375,-1.125,0.9375,0
9550,-0.625,-1.5,2.1875,0
9570,-1.1875,-0.875,2.25,0
9590,-3.875,-0.1875,1.875,0
9610,-6.5,-0.625,2.3125,0
9630,-5.875,-0.8125,2.0625,0
9650,-3.5,-0.75,1.9375,0
9670,-1,0,1.5625,0
9690,0.5,0,1.3125,0
9710,1,-0.6875,1.125,0
9730,0.9375,-1,0.875,0
9750,0.0625,-0.875,1.0625,0
9770,-1.75,-0.75,1.75,0
9790,-3.875,-0.8125,2.1875,0
9810,-5.875,-0.625,1.875,0
9830,-6.625,-0.6875,2.5,0
9850,-6.3125,-0.9375,2.75,0
9860,-5.0625,-0.75,2.3125,0
9880,-4.125,-0.6875,1.8125,0
9900,-3.0625,-1,1.3125,0
9920,-1.875,-1.125,0,0
9940,-0.4375,-0.6875,-0.75,0
9960,0.4375,-0.875,0.6875,0
9980,1.1875,-1.875,1.875,0
10000,2.125,-2.0625,1.3125,0
10020,2.0625,-1.75,1,0
10040,0.25,-1.0625,1.125,0
10060,-3.0625,-0.4375,1.375,0
10080,-5.25,-0.5625,1.375,0
10100,-4.375,-0.3125,0.9375,0
10120,-1.6875,0.375,0.6875,0
10140,0.6875,0.8125,0.375,0
10160,1.5,0.875,0.0625,0
10180,1.25,0.4375,-0.0625,0
10200,1.3125,0.3125,-1.0625,0
10220,1.3125,0.5625,-1.5625,0
10240,1.25,0.375,-1.375,0
10260,1.625,0.125,-1.25,0
10280,1.75,-0.1875,-0.8125,0
10300,2,-0.5,-0.8125,0
10320,2,-0.375,-0.9375,0
10340,0.9375,-0.4375,-0.625,0
10360,0.0625,-0.4375,-0.375,0
10380,0.0625,-0.4375,-0.75,0
10400,0.5625,-0.5,-0.5625,0
10420,0.75,-0.625,-0.1875,0
10440,0.5,-0.5625,-0.3125,0
10460,0.25,-0.625,-0.3125,0
10480,0.5,-0.75,-0.1875,0
10500,0.6875,-0.875,-0.3125,0
10520,0.875,-0.6875,-0.5,0
10540,1.0625,-0.5,-1.0625,0
10560,1.5,-0.5,-1.1875,0
10580,1.9375,-0.6875,-0.8125,0
10600,2.125,-0.6875,-0.8125,0
10620,2.1875,-0.5,-1,0
10640,2.25,-0.6875,-1.1875,0
10660,2.375,-0.875,-2.0625,0
10680,1.9375,-0.375,-2.1875,0
10700,2.0625,-0.25,-1.75,0
10720,1.8125,-1.125,-0.375,0
10740,2.375,-1.375,-0.875,0
10760,3.4375,-1.875,-1.25,0
10780,5,-2.6875,0.25,0
10800,6.625,-2.4375,1.0625,0
10820,8.75,-1.875,-0.9375,0
10840,7.8125,-1.5625,-1.5,0
10860,3.8125,-1.5,-1.125,0
10880,-0.75,-2,-0.375,0
10900,-2.625,-2.1875,0,0
10920,-3.0625,-2.375,0.1875,0
10940,-2.375,-2.5625,0.3125,0
10960,-1.375,-2.125,0.3125,0
10980,-0.4375,-1.8125,0.0625,0
11000,0.9375,-1.5625,-0.375,0
11020,1.625,-1.5625,-0.5625,0
11040,1.5625,-1.5,-0.5625,0
11060,1.3125,-1.0625,-1.3125,0
11080,0.5,-0.75,-1.625,0
11100,-0.1875,-0.75,-1.6875,0
11120,-0.1875,-0.8125,-1.5625,0
11140,0.75,-0.9375,-1.375,0
11160,2.25,-0.8125,-1.5625,0
11180,3.8125,-0.5625,-1.8125,0
11200,4.75,-0.8125,-1.5,0
11220,4.25,-0.9375,-1.5625,0
11240,3.0625,-0.75,-1.8125,0
11260,2,-0.6875,-1.4375,0
11280,1.5,-0.75,-1.375,0
11300,1,-0.75,-1.125,0
11320,0,-0.875,-0.875,0
11340,-1.125,-1.125,-0.4375,0
11360,-3.4375,-1.0625,-0.375,0
11380,-6.1875,-1.25,0.1875,0
11400,-9.25,-1.4375,-0.0625,0
11420,-10.5,-0.875,-0.5625,0
11440,-9.5625,-0.25,-0.4375,0
11460,-6.8125,-0.125,0,0
11480,-3.5,-0.75,0.0625,0
11500,-0.375,-0.6875,-0.3125,0
11520,2,-0.375,-0.4375,0
11540,1.8125,-0.1875,-0.5,0
11560,0,-0.3125,-0.375,0
11580,-1.8125,-0.625,-0.375,0
11600,-2.125,0,0,0
11620,-3.0625,0.125,1.6875,0
11640,-4.0625,0.5625,0.5,0
11660,-5.125,0.375,-0.5625,0
11680,-3.4375,-0.3125,0.8125,0
11700,-1.3125,0,1.5,0
11720,1.4375,0.8125,0.6875,0
11740,2,1.0625,1.25,0
11760,1.125,0.75,0.8125,0
11780,1.0625,-0.0625,0.8125,0
11800,2.9375,-0.75,0.5625,0
11820,4.3125,-1,1.3125,0
11840,3.6875,-1.125,-0.125,0
11860,-0.25,-1.625,-1.4375,0
11880,-4.3125,-1.75,-0.1875,0
11900,-7.6875,-1.75,0.25,0
11920,-7.8125,-1.625,-0.6875,0
11940,-7.25,-1.625,-0.6875,0
11960,-5.625,-1.5625,-0.0625,0
11980,-5.25,-1.3125,-0.0625,0
12000,-3.8125,-1.0625,-0.375,0
12020,-2,-0.8125,0,0
12040,-0.625,-0.625,0.125,0
12060,-0.25,-0.625,1,0
12080,-0.9375,-0.6875,1.25,0
12100,-0.5625,-0.75,1.4375,0
12120,1,-0.875,1.4375,0
12140,3.375,-0.875,1.0625,0
12160,4.5625,-0.75,0.125,0
12180,3.4375,-0.9375,0.75,0
12200,-1.4375,-1.25,0.8125,0
12220,-5.5,-1.5,1.0625,0
12240,-8.125,-1.6875,0.625,0
12260,-8.125,-1.5625,0.5,0
12280,-7.6875,-1.5,0.5625,0
12300,-7.625,-1,1.25,0
12320,-10.75,-1.6875,1.3125,0
12340,-12.6875,-1.3125,0.4375,0
12360,-12.0625,-0.5625,0.375,0
12380,-9.625,-0.375,0.875,0
12400,-7.3125,-0.5,0.4375,0
12420,-3.6875,-0.875,0.625,0
12440,-0.4375,-0.9375,0.4375,0
12450,1.6875,-0.25,0.625,0
12470,0.8125,-0.0625,1.5625,0
12490,-0.125,-0.625,1.4375,0
12510,-0.4375,-1.0625,0.5,0
12530,2.5625,-1.125,0.5,0
12550,6.9375,-0.9375,0.625,0
12570,9.0625,-0.9375,0.25,0
12590,6.8125,-1.5625,0.125,0
12610,2.4375,-2,-0.25,0
12630,0.25,-2.125,-0.1875,0
12650,0.6875,-2.125,-0.3125,0
12670,3.375,-2.25,-0.3125,0
12690,5.8125,-2.125,-0.25,0
12710,6.5625,-2.625,-0.4375,0
12730,5.75,-2.75,-0.625,0
12750,5.3125,-2.625,-0.875,0
12770,6.75,-2.4375,-1.375,0
12790,8.6875,-2.625,-1.1875,0
12810,9.3125,-3.1875,-0.875,0
12830,8.125,-3.4375,-0.4375,0
12850,6.625,-3.75,-0.625,0
12870,6.25,-3.9375,-1,0
12890,6.75,-3.6875,-1.8125,0
12910,6.875,-3.125,-1.75,0
12930,6.125,-2.8125,-0.875,0
12950,4.6875,-3.1875,-0.75,0
12970,3.75,-3.3125,-1.0625,0
12990,3.8125,-3,-1.125,0
13010,4.375,-2.5625,-0.8125,0
13030,4.0625,-2.3125,-0.625,0
13050,3.125,-2.25,-0.875,0
13070,2.5,-1.6875,-0.9375,0
13090,2.8125,-1.625,-0.75,0
13110,3.375,-1.5,-0.5625,0
13130,3.4375,-1.3125,-0.5625,0
13150,3.25,-1.4375,-0.5625,0
13170,3.0625,-1.25,-1,0
13190,2.125,-0.9375,-0.8125,0
13210,1.1875,-1.0625,-0.3125,0
13230,0.625,-0.875,-0.625,0
13250,0.625,-0.8125,-0.4375,0
13270,1.375,-0.8125,-0.125,0
13290,1.75,-0.875,-0.25,0
13310,1.375,-0.8125,-0.4375,0
13330,0.6875,-1,-0.25,0
13350,0.5,-1.125,-0.125,0
13370,1.0625,-1.1875,0,0
13390,1.5625,-1.0625,-0.0625,0
13410,1.6875,-1.25,-0.0625,0
13430,0.875,-1.625,0.4375,0
13450,-0.125,-1.5625,0.4375,0
13470,-0.8125,-1.0625,0.125,0
13490,-1.3125,-0.625,0.0625,0
13510,-0.9375,-0.375,0.0625,0
13530,-0.8125,-0.3125,0.0625,0
13550,-0.875,-0.0625,0.375,0
13570,-0.8125,0.4375,0.1875,0
13590,-0.5625,0.6875,-0.1875,0
13610,-1.3125,1.0625,-0.625,0
13630,-2.625,1.75,-0.125,0
13650,-4,1.9375,0.5625,0
13670,-3.875,1.375,0.5625,0
13690,-2.8125,1.375,0.25,0
13710,-1.25,1.625,0.4375,0
13730,-1.6875,1.4375,0.875,0
13750,-3.6875,1.25,0.875,0
13770,-4.8125,1.125,0.625,0
13790,-4.125,1,0.875,0
13810,-3,0.6875,1.5625,0
13830,-2.8125,0.75,1.625,0
13850,-3,0.5625,1.9375,0
13870,-3.125,0.0625,2.0625,0
13890,-3.25,0.3125,1.75,0
13910,-3.75,0.1875,2.375,0
13930,-4.4375,-0.0625,2.5,0
13950,-4.8125,-0.125,2.1875,0
13970,-4.375,-0.6875,2.5625,0
13990,-4.875,-1.5625,2.75,0
14010,-6.125,-2.125,0.5625,0
14030,-6.125,-2.125,0.4375,0
14050,-5,-1.9375,1.625,0
14070,-5.1875,-1.625,1.375,0
14090,-6.875,-2.375,1.5625,0
14110,-10.3125,-3.5,2.3125,0
14130,-14.4375,-4.125,2.8125,0
14150,-17.625,-3.8125,2.875,0
14170,-16.125,-3.1875,1.8125,0
14190,-12.5625,-3.3125,-0.125,0
14210,-8.1875,-11.5,-0.1875,0
14230,16.75,-21.375,-11.25,0
14250,41.9375,-19.9375,-36.0625,0
14270,44.25,-11.0625,-65.875,0
14290,61,-1.625,-76.4375,0
14310,68.1875,0.6875,-69.5625,0
14330,56.8125,-18.625,-68.8125,0
14350,21.5,-42.4375,-79.3125,0
14370,-8.4375,-54.8125,-93.875,0
14390,-9.5,-59.8125,-102.375,0
14410,16,-65.9375,-107.5,0
14430,51.1875,-73.875,-110.625,0
14450,66.875,-84.4375,-107.812,0
14470,49,-92.25,-100.688,0
14490,19.0625,-99.25,-95.6875,0
14510,-15.3125,-104.5,-91.3125,0
14530,-43.6875,-109.625,-79.375,0
14550,-74.9375,-114.75,-60.375,0
14570,-102.562,-117.5,-46.4375,0
14590,-112.812,-112.438,-42.8125,0
14610,-113.625,-108.5,-39.0625,0
14630,-124.625,-106.375,-31.5625,0
14650,-120.562,-97.625,-26.625,0
14670,-108.75,-88.0625,-23.375,0
14690,-112.375,-89.75,-16.0625,0
14710,-121.625,-90.3125,-12.5,0
14730,-118.188,-86.875,-13.6875,0
14750,-111.188,-79.8125,-18.0625,0
14770,-89.9375,-75.0625,-15.75,0
14790,-86.25,-75.4375,-7.5625,0
14810,-86.75,-73.4375,-0.75,0
14830,-80.4375,-68.1875,3.875,0
14850,-83.75,-68.5625,11.0625,0
14870,-88.5625,-70.625,23.0625,0
14890,-90.5,-69.6875,33.875,0
14910,-84.1875,-64.5625,40.125,0
14930,-79.625,-58.5,41.875,0
14950,-73.5625,-49.875,39.6875,0
14970,-58.9375,-41.625,39.0625,0
14990,-57.3125,-40.8125,42.25,0
15010,-46.625,-38.9375,42.875,0
15030,-22.4375,-33.6875,47,0
15040,3.875,-27.125,45.5625,0
15060,-2.1875,-19,45.125,0
15080,-9,-10.5625,49.625,0
15100,-0.5,1.3125,45.25,0
15120,5.6875,13.125,19.5625,0
15140,2.0625,-0.875,15,0
15160,12.3125,-5.625,5.4375,0
15180,18.625,6,-10.875,0
15200,33.875,12,-3.125,0
15220,63.5625,13.1875,-1.8125,0
15220,76.875,8.4375,-1.625,0
15240,48.4375,4,4.125,0
15260,36.5625,11.4375,14,0
15280,11.3125,14.125,23.9375,0
15320,25.5,26.5,32.125,0
15340,22.625,43.1875,44.5,0
15360,44.1875,45.6875,53.8125,0
15380,61.125,44.1875,52.9375,0
15400,77.8125,40.125,49.25,0
15420,38.25,30.75,22.625,0
15440,-15.9375,10.4375,5.8125,0
15460,-1,0.4375,13.25,0
15470,11.0625,4.625,10.4375,0
15490,10.6875,-0.0625,2.75,0
15510,12.0625,-2.375,4.0625,0
15520,7.5,-3.125,1.9375,0
15540,-11.25,-6,8.4375,0
15560,-6.1875,-5.625,10.9375,0
15580,1.375,-4.8125,17.0625,0
15600,2.5,-0.5,28.4375,0
15620,2.4375,0.625,43.6875,0
15640,0.3125,1.5,60.5,0
15660,-15.75,0.75,67.5,0
15680,-45.125,-4.5625,60.875,0
15700,-60.5625,-9.4375,51.5,0
15720,-51.25,-6.4375,36.4375,0
15740,-23.8125,0.5,16.8125,0
15760,4.5,4.1875,4.375,0
15780,33.1875,3.75,-1.875,0
15800,46.875,1.3125,-5.25,0
15820,43.125,-3.4375,-4.5625,0
15840,29.1875,-8.375,-0.375,0
15860,7.5,-11,3,0
15880,-17.1875,-10.25,4.125,0
15900,-29,-6.4375,5.5625,0
15920,-30.625,-4.8125,5.75,0
15940,-21.625,-6.5625,4.8125,0
15960,-4.25,-5.3125,3.5625,0
15980,12.375,-2,1.5625,0
16000,21.25,0.25,-0.625,0
16020,19.5625,0,-1.625,0
16040,16,-0.6875,-0.8125,0
16060,7.6875,-0.6875,0.5625,0
16080,0.1875,0.3125,1.375,0
16100,-3.6875,0.6875,0.0625,0
16120,-2.125,0.25,-3.375,0
16140,4.6875,0.6875,-4.75,0
16160,11.4375,1.6875,-5.1875,0
16180,17.625,2.25,-6.1875,0
16200,24.1875,0.5,-12.0625,0
16220,57.875,1.4375,-26.1875,0
16240,108.312,0.9375,-36.875,0
16260,147.812,-17.0625,-49.125,0
16280,189.812,-39.5625,-72.625,0
16300,238.125,-51.3125,-100.875,0
16320,229,-47.75,-116.25,0
16340,186.812,-43.1875,-109,0
16360,131.312,-43.1875,-89.5,0
16380,44.75,-45.5625,-84.25,0
16400,0,-57.3125,-85.625,0
16420,-19.4375,-70.125,-92.875,0
16440,6.25,-77.9375,-99.8125,0
16460,47.9375,-88,-97.9375,0
16480,60.0625,-97.25,-91.0625,0
16500,77.3125,-91.3125,-87.4375,0
16520,50.125,-83.75,-92.8125,0
16540,4.5625,-85.9375,-74.5625,0
16560,-24.0625,-93.6875,-42.6875,0
16580,-21.9375,-88.875,-28.125,0
16600,-9.0625,-76.625,-32.3125,0
16620,-2.25,-72.8125,-33,0
16640,-3.375,-79.5625,-16.6875,0
16640,1.75,-77.0625,3.8125,0
16680,6.875,-62.4375,5.125,0
16700,3.375,-48.5,0.0625,0
16720,-2.625,-49.1875,5.25,0
16740,7.125,-53.5,7.375,0
16760,19.3125,-51.4375,13.6875,0
16780,27.4375,-40.8125,15.375,0
16800,26.1875,-27.9375,5.3125,0
16820,18.6875,-27.8125,5.3125,0
16840,12.1875,-29.0625,15.875,0
16860,13.125,-27.375,14.9375,0
16880,12.375,-17.125,-1.375,0
16900,13.375,-3.0625,-9.4375,0
16920,8.9375,-0.3125,-3.9375,0
16940,9.1875,0.3125,2.1875,0
16940,4.25,2.0625,-0.1875,0
16960,9.4375,8.5625,-6,0
16960,22.1875,16.5625,-6.875,0
16980,18.375,14.25,-3.0625,0
16980,1.1875,14.0625,-0.125,0
17000,-5,19.5625,-1.375,0
17040,-4.1875,20.5,-6.625,0
17100,0.6875,19.4375,-12.1875,0
17120,12.375,17.0625,-16.6875,0
17140,28.4375,15.625,-27.8125,0
17160,32.75,9.1875,-36.0625,0
17180,25.125,2.0625,-39.625,0
17200,15.75,-0.3125,-40.5,0
17220,14.5,-0.25,-45.3125,0
17240,13.625,0.3125,-47.875,0
17260,13.6875,5.0625,-46.125,0
17280,7,6.5,-46.1875,0
17300,4.625,6.5625,-50.5625,0
17320,4.625,12.4375,-49.4375,0
17340,7.875,21,-45.4375,0
17360,14.625,23.75,-35.8125,0
17380,17.4375,18.8125,-27.3125,0
17400,4.5625,19,-20.6875,0
17420,-15.375,20.1875,-13.375,0
17440,-23.0625,18.625,-10.625,0
17460,-12.3125,13.9375,-9.6875,0
17480,3.5625,8.875,-8.1875,0
17500,8.1875,6.4375,-9.625,0
17520,2.75,10.8125,-11.5625,0
17540,-7.1875,10.5,-11.3125,0
17550,-8,2.5625,-6.9375,0
17570,-8.9375,-6.25,-5.5,0
17590,-4.4375,-7.25,-5.75,0
17610,-3.3125,-5.9375,-9.375,0
17620,-3.3125,-9.0625,-9.1875,0
17640,-13.6875,-13.3125,-11.125,0
17660,-15.5,-13.875,-12.1875,0
17690,-9.1875,-9.625,-12.9375,0
17710,-9.25,-8.6875,-13.5625,0
17730,-4.6875,-2.5625,-7.75,0
17750,0.125,2.4375,-5.875,0
17770,5.25,3.1875,-10.3125,0
17790,4.5625,4.25,-13.3125,0
17810,5.75,4.6875,-12.3125,0
17830,7.125,4.0625,-9.6875,0
17850,8.125,1.0625,-7.5,0
17870,4.625,0.6875,-3.5,0
17890,3.5,4.875,-0.125,0
17910,4.5625,8.6875,-5.5625,0
17920,13.125,12.625,-8.625,0
17940,6.875,17.75,-5.8125,0
17960,-2.375,18.125,-5.9375,0
17980,0.375,18.75,-4.9375,0
18000,-1.0625,18.625,-4.3125,0
18020,0.75,22.0625,-1,0
18040,-2.4375,18.1875,-5.1875,0
18060,-2.3125,16.5,-2.4375,0
18080,-2.5625,20.125,4.875,0
18100,6.5625,22.125,10.5625,0
18120,14.4375,16.75,15.375,0
18130,15.125,9.5,14.4375,0
18150,4.8125,3.6875,11.3125,0
18170,-7.6875,3,16.6875,0
18190,-24.1875,7.6875,17.1875,0
18210,-24.375,-1.75,15.8125,0
18230,-13.3125,3.5,13.125,0
18250,-1.5,-11.5625,11.3125,0
18280,14.8125,-4.8125,1.375,0
18300,13.75,2.5625,-4.4375,0
18320,1.9375,8.5,-4.8125,0
18340,-1.5625,1.8125,3.3125,0
18350,-2.125,-2.5,1.375,0
18370,-4.875,0.375,-0.4375,0
18390,-5.375,4.0625,-3.125,0
18410,-1.125,-4.75,-4.8125,0
18430,1,-5.8125,-1.6875,0
18450,-8.625,1.375,-0.5625,0
18470,0.3125,-5.8125,4.0625,0
18500,3.5625,1.25,-0.8125,0
18510,-0.5,5.0625,-4,0
18530,-13.25,5.1875,-3.125,0
18530,-4.6875,-3.25,-2.5,0
18550,-2.6875,-0.5625,0.875,0
18550,-1.0625,-1.3125,1.5,0
18570,-1.875,-0.5625,0.75,0
18570,-3.875,-0.25,0.75,0
18590,-3.4375,-0.625,2.0625,0
18590,-1.4375,-1.125,2.25,0
18610,0.3125,-0.875,1.9375,0
18630,-0.1875,0.125,1.75,0
18630,-1.5,0.875,2.8125,0
18650,0.6875,1.4375,2.6875,0
18690,7.5,3,1.4375,0
18760,5.9375,3.9375,0.0625,0
18780,3,3.3125,0.875,0
18800,3.375,1.5,0.875,0
18820,3.375,1.375,-0.4375,0
18840,3.6875,1.5,-0.125,0
18860,1.9375,0.8125,0.3125,0
18880,2.3125,-0.0625,1.4375,0
18900,3.375,0.625,2.3125,0
18920,5.4375,1.125,1.8125,0
18940,4.1875,1.6875,2.625,0
18960,2.9375,2.1875,5.375,0
18980,2.75,2,5.8125,0
19000,6.1875,0.9375,4.5625,0
19020,9.6875,1,5.3125,0
19040,8.3125,1.875,6.75,0
19060,4.375,2.6875,4.75,0
19080,-0.8125,1.4375,2.1875,0
19100,-2.9375,0.25,2.3125,0
19120,-1.8125,0.4375,2.5625,0
19140,-0.25,1.875,1.875,0
19160,1.6875,3.8125,-0.125,0
19180,2.125,3.75,-2.5,0
19200,1.75,2.25,-3.9375,0
19220,-1.75,1.0625,-3.25,0
19230,0.25,0.6875,-1.5,0
19260,-0.4375,0,1.125,0
19280,1.375,-0.875,2.1875,0
19300,-3.125,-3.0625,0.8125,0
19320,-7.375,-6.4375,0.6875,0
19340,-7.625,-7.4375,1.3125,0
19360,-4.0625,-7.25,1.1875,0
19380,-2.6875,-8.0625,-0.125,0
19400,-0.1875,-8.375,-2.375,0
19420,-0.125,-8.4375,-4.375,0
19440,-2.5,-10,-3,0
19460,-1.1875,-11.3125,3.6875,0
19480,-3.1875,-11.1875,1.625,0
19500,-1.125,-9,-3.4375,0
19520,-5.8125,-6.375,-5.9375,0
19540,-6.0625,-0.875,-4.875,0
19560,-9.1875,-1.625,-0.8125,0
19580,-7.8125,-1.9375,2.75,0
19600,-7.625,-1.0625,2.625,0
19620,-4.75,-1.625,3.3125,0
19640,-0.8125,0.3125,7.25,0
19660,-1.625,4.0625,12,0
19680,-10.3125,10.0625,12.4375,0
19700,-9.3125,7.8125,10,0
19720,-6.25,7.125,7.875,0
19740,-0.375,8.5625,6,0
19760,6.125,7.375,6.1875,0
19780,9.5625,6.6875,5.5625,0
19800,6,6.0625,2.625,0
19820,3.4375,4.75,0.625,0
19840,3.75,3.9375,-0.125,0
19860,7.1875,5,0.8125,0
19880,7.3125,5.8125,0.25,0
19900,8.25,6.4375,-1.5,0
19920,3.375,6.625,-2.8125,0
19940,1.0625,3.25,-1.75,0
19950,2.1875,3.6875,-3.1875,0
19970,-1.4375,5.75,-3.125,0
19970,-1,6.3125,0.3125,0
20020,-0.875,2.75,1.4375,0
20040,-3,2.0625,0.875,0
20060,-7.3125,3.125,-1.5,0
20070,-6,3.1875,-2.4375,0
20090,-2.125,3,0.4375,0
20110,-1.4375,4.75,0.6875,0
20130,-3.4375,5.6875,-2.0625,0
20150,-3.25,7.4375,-2.5,0
20170,-4.75,7.75,-2.625,0
20190,-1,7.75,-2.25,0
20210,0.3125,7.625,-0.5,0
20230,1.3125,6.875,1.125,0
20250,1.5,3.6875,1.375,0
20270,-0.4375,1.0625,1,0
20290,-0.5,1.0625,1.8125,0
20310,3.125,-2.8125,2.5625,0
20330,5.5,-8.375,3.0625,0
20350,10.875,-11.5625,3.1875,0
20370,5,-11.9375,-2,0
20390,4.9375,-11.8125,-5.25,0
20410,0.9375,-11.625,-11.25,0
20430,4.9375,-10.5625,-9.1875,0
20450,1.5625,-7.25,-4.75,0
20470,-2,-2.6875,-3.8125,0
20490,-2.375,-3.75,-6.9375,0
20510,-0.375,-5.5625,-3,0
20530,2.75,-4.9375,1.25,0
20550,0.5625,-5.25,2.5,0
20570,-5.75,-5,0.3125,0
20590,-10.625,-1.8125,0.375,0
20610,-12.0625,-1.9375,-0.6875,0
20630,-5.8125,-6.125,-2.0625,0
20650,-4.3125,-9.5625,-2.0625,0
20650,-2.375,-11.125,-1.9375,0
20670,1.875,-13.0625,-2.5,0
20690,1.8125,-10.5625,-6,0
20710,2.375,-6.4375,-4.5625,0
20710,4.375,-2.5,-2.9375,0
20730,7.0625,-1.0625,-4.3125,0
20750,9.6875,2.25,-4.3125,0
20770,10.375,3.1875,-3.6875,0
20770,7.3125,5.8125,-4.375,0
20830,8,8.125,-3.5,0
20870,15.125,7.5625,-0.4375,0
20890,20.1875,6.375,0.25,0
20910,20.0625,8.0625,5.3125,0
20930,21.5625,11.8125,6.625,0
20950,21.5625,10.0625,2.6875,0
20970,20.9375,6.25,8.3125,0
20990,15.5,1.9375,10.9375,0
21010,6,-3.625,10.5625,0
21030,24.625,-2.0625,10.3125,0
21050,57.25,12.875,-11.25,0
21070,48.875,18.125,-35.0625,0
21090,4.375,25.125,-17.875,0
21110,-11.3125,19.75,-22.6875,0
21130,12,21.1875,-62.8125,0
21150,54.1875,24.5625,-64.6875,0
21170,57.75,12.875,-30.9375,0
21190,2.25,9.6875,-36.375,0
21210,-30.0625,13.375,-49.1875,0
21230,-45.4375,13.25,-54.125,0
21250,-39.4375,3.6875,-40.8125,0
21270,-37.625,-3.6875,-28.0625,0
21290,-52.625,3.625,-27.9375,0
21310,-67.875,24.6875,-37.75,0
21330,-61.375,35.8125,-43.9375,0
21350,-49.9375,33.3125,-40.9375,0
21370,-44.125,25.25,-25.0625,0
21390,-36.3125,12,-14.5,0
21410,-25.75,12.75,-13.625,0
21430,-22.375,19.0625,-22.75,0
21450,-17.1875,18,-20.5,0
21470,-22.1875,9.125,-14,0
21490,-14.8125,5.625,-12.9375,0
21510,-4.8125,15.375,-14.8125,0
21530,2.1875,22.6875,-21.5625,0
21550,12.625,16.6875,-26.8125,0
21570,19.1875,10.875,-19.875,0
21590,20.0625,1.6875,-14.5625,0
21610,19.25,-6.75,-19.0625,0
21630,13.5,-13.5,-11.625,0
21650,-1.25,-13.375,-10.8125,0
21670,-10.25,-18.75,-17.8125,0
21690,-19.75,-20.625,-21.625,0
21710,-16.6875,-24.1875,-15.875,0
21730,-5.875,-27.375,-22.4375,0
21750,-3.75,-32.375,-24.875,0
21770,-3.9375,-26,-18.5,0
21790,-4.625,-26.125,-18.75,0
21810,1.3125,-22.1875,-23.375,0
21830,0.25,-28.5625,-14.625,0
21850,-0.1875,-34.1875,-1.75,0
21870,4.0625,-43.375,4.625,0
21890,3.9375,-46,3.9375,0
21910,17.125,-38.875,-6.25,0
21930,22.125,-24.875,-14.25,0
21950,16.1875,-18.5625,-11.8125,0
21970,9.0625,-19.875,-3.625,0
21990,7.0625,-19.3125,3.9375,0
22010,12.9375,-17.6875,2.6875,0
22030,20.5625,-13,-0.5,0
22050,15.25,-4.5,0.125,0
22070,5.0625,-1.5625,2.625,0
22090,1.5,-7,7.125,0
22110,8.25,-6.625,8.5625,0
22130,14.1875,-7.75,6.1875,0
22150,13.375,-12.125,4.4375,0
22170,13.9375,-10.8125,8.125,0
22190,5.6875,-7.25,7.5,0
22210,-1,-8.125,5.0625,0
22230,4.1875,-13.25,7.125,0
22250,2,-12.1875,3.6875,0
22270,5.6875,-16.1875,2.1875,0
22290,6.75,-16.1875,4.3125,0
22310,-0.5,-15.875,5.5625,0
22330,0.25,-19.5,5.625,0
22350,6.3125,-23.25,9.0625,0
22370,9,-19.125,10.875,0
22390,1.875,-12.5625,11.0625,0
22410,-1.125,-9.375,11.5625,0
22430,-1.125,-4.875,12.875,0
22450,-3,2.1875,14.3125,0
22470,-5.5625,5.75,15.6875,0
22490,-2.5,4.375,16.8125,0
22510,-0.375,9.75,11.4375,0
22530,-6.375,16.9375,7.5,0
22550,-11.5,25.4375,15.375,0
22570,-19.25,38.1875,15.5,0
22590,-21.375,31.9375,15.5,0
22610,-10.1875,31.75,18.3125,0
22630,-10.5,38.75,13.8125,0
22640,-8.625,40.5625,7.8125,0
22660,-3.5625,37.8125,10.375,0
22680,-1.5,41.3125,6.25,0
22700,-3.4375,40.4375,2.0625,0
22720,-1.0625,46.375,4.75,0
22740,7.4375,39.4375,8.4375,0
22760,6.375,37,9.3125,0
22780,0.125,33.75,10,0
22800,1.625,31.875,17.5,0
22820,0.5625,27.3125,27.1875,0
22840,2,27.6875,32.5,0
22860,-5.375,25.75,29.9375,0
22880,-5.5,24.3125,26.5,0
22900,-0.0625,21.875,19.875,0
22910,-4.0625,23.0625,19.375,0
22930,-7.75,22.8125,27.3125,0
22950,-11.25,23.125,25.8125,0
22950,-11.3125,22.1875,18.3125,0
22970,-12.375,21.375,19.375,0
22990,-15.125,20.4375,22.6875,0
23010,-19.0625,12.6875,22.3125,0
23010,-7.75,8.0625,23.375,0
23030,-9.1875,11,9.6875,0
23050,-9.0625,6.4375,-0.1875,0
23070,0.3125,2.375,3.0625,0
23130,0.8125,3.625,0.8125,0
23130,-0.125,6.0625,-4.4375,0
23180,-1.25,5.3125,-6.75,0
23200,2.25,2,-7.875,0
23210,8.375,-3.625,-2.6875,0
23230,4.9375,-8.625,5.3125,0
23250,0.25,-13.25,4.8125,0
23270,5.75,-19.1875,-2.375,0
23270,9.75,-21.1875,-6.125,0
23310,8.25,-19.75,-7.0625,0
23340,6.1875,-22.625,-12.6875,0
23360,3.9375,-26.9375,-13.0625,0
23380,2.1875,-29.375,-11.625,0
23400,4.8125,-32.125,-17.75,0
23420,5.375,-32.5625,-22,0
23440,1.875,-32.8125,-19.75,0
23460,-0.4375,-34.375,-15.125,0
23470,-1.875,-36.5625,-13.375,0
23490,-0.875,-39.1875,-16.125,0
23510,-1.3125,-38.3125,-20.25,0
23510,-3.5,-35.6875,-23.5625,0
23560,-4.8125,-30.25,-22.9375,0
23580,-3.6875,-26.75,-15.5,0
23600,-2.625,-27.5625,-13.75,0
23620,1.9375,-27.375,-16,0
23640,2.875,-27.375,-17.8125,0
23660,6.0625,-27.6875,-12.875,0
23680,7.25,-26.5,-6.625,0
23700,4.875,-22.3125,-6,0
23720,4.5,-16.5,-3.8125,0
23740,5,-14.6875,0.6875,0
23760,5.25,-15.75,5.125,0
23780,6.5625,-18.875,6.375,0
23800,11.75,-18.625,5.8125,0
23820,11.125,-15.6875,5.125,0
23840,12.1875,-14.625,10.1875,0
23860,11.75,-11.625,10.5,0
23880,8.8125,-14.5,8.625,0
23900,8.3125,-9.625,8.125,0
23920,6.6875,-5.0625,10.5625,0
23940,4.875,-4.5625,11,0
23960,6.6875,-3.8125,13.875,0
23980,4.75,3.875,11.25,0
24000,0.8125,7.5625,8.75,0
24020,6,3.6875,8.1875,0
24040,3.1875,4.75,5.4375,0
24060,1.9375,6.4375,10.5,0
24080,1,7.3125,9.1875,0
24100,3.6875,6.8125,3.8125,0
24120,5.8125,8.8125,2.4375,0
24140,7.9375,8,4.875,0
24160,8.5625,4.375,5.25,0
24180,5.25,8.5625,4,0
24200,2.8125,17.375,6.5625,0
24220,-4.3125,18.3125,9.6875,0
24240,-4.875,15.5625,12.5,0
24260,-4.5,14.0625,7.125,0
24280,-5.8125,17.625,8,0
24300,-6.8125,16.625,7.0625,0
24320,-6.0625,17.5625,-0.4375,0
24340,-6.75,19.625,-8.625,0
24360,0.125,20.25,-7.875,0
24380,1.5,21,-5.0625,0
24400,-4.125,13,-1.3125,0
24420,-4.4375,-3.1875,3.0625,0
24440,-5.375,-11.875,3.875,0
24460,-4,-10.5,2.6875,0
24480,-5,-6.875,4.4375,0
24500,-5.8125,-5.125,5.0625,0
24520,-3.75,-6.25,2.4375,0
24540,-1.125,-13.1875,0.875,0
24560,4.9375,-16.0625,-2.25,0
24580,6.6875,-15.9375,-3.5625,0
24600,3.5625,-13.375,-2.25,0
24620,-2.6875,-16.5,0.6875,0
24640,-2.1875,-19.75,3.625,0
24660,-0.5,-16.8125,3.5625,0
24680,-2.625,-10.5,5.4375,0
24700,-2.0625,-8.0625,7.375,0
24720,0.9375,-13.3125,0,0
24740,5.4375,-11.1875,-3.875,0
24760,1.1875,-4.6875,-2.3125,0
24780,-4.0625,-5.6875,-0.1875,0
24800,1.875,-11.875,7.25,0
24820,6.625,-12.625,10.625,0
24840,7.4375,-11.8125,12,0
24860,3.125,-11.6875,11.1875,0
24880,-4.3125,-9.625,7.625,0
24900,-5.75,-10.4375,9.9375,0
24920,2.25,-11.5,11.25,0
24940,4.875,-12.8125,10.625,0
24960,1.75,-10.3125,6.0625,0
24980,2.25,-8.25,-1.625,0
25000,1.0625,-4.75,-7.625,0
25020,1.1875,-6.375,-5.3125,0
25040,2.875,-6.4375,-1.0625,0
25060,1.875,-3.875,-0.125,0
25080,-1.3125,-3.3125,0.4375,0
25100,-0.1875,-2.8125,2.625,0
25120,0.9375,-2.4375,2.4375,0
25140,2.5,-1.5,4,0
25160,1.6875,2,5.4375,0
25180,-2.4375,3.25,8.875,0
25200,-3.0625,4,12.4375,0
25220,3,0.4375,11.8125,0
25240,3.125,3,10.6875,0
25250,0.3125,4.6875,10.125,0
25270,1.0625,5.8125,8.625,0
25290,-1.5625,8.4375,8.125,0
25310,-3.25,11.375,7.6875,0
25330,-1.1875,7.1875,8.1875,0
25350,1.5,4.8125,7.25,0
25370,2.9375,4.25,7.9375,0
25390,1.4375,5.875,3.4375,0
25410,1.9375,6,-0.375,0
25430,-2.4375,8.8125,-2.875,0
25450,-0.8125,7.9375,0.875,0
25470,-3.125,6.375,2.375,0
25490,-3.375,5.0625,2.25,0
25490,-0.375,1.5,2.375,0
25510,-1.375,0.6875,2.1875,0
25530,0.75,-0.5,-3.0625,0
25560,-6.625,5.5,-4.5625,0
25590,-4.4375,5.0625,-4.4375,0
25610,2.125,-6.375,-5.125,0
25630,6.0625,0.5625,-8.75,0
25650,-0.9375,3.1875,-11.125,0
25670,-1.375,2.125,-9.3125,0
25690,-1.0625,-4.375,-6.4375,0
25710,-0.4375,-0.75,-2.9375,0
25730,1.0625,0,-3.0625,0
25750,4.0625,0.6875,-0.9375,0
25770,5.5,0.625,-0.25,0
25790,2.875,1,-1.625,0
25810,4.125,-7.0625,1.75,0
25830,9,-9.5,7,0
25850,6.625,-7,10.0625,0
25870,2.75,-2.6875,5.625,0
25890,-1.5,-3.125,2.3125,0
25910,4.875,-8.0625,3.3125,0
25930,9.125,-7.625,-0.625,0
25950,7.375,-4.125,-4.25,0
25970,5.5,-4.3125,-3.5625,0
25990,5.25,-4.875,-0.8125,0
26010,4.125,2.6875,-5.3125,0
26030,-4,5.5625,-6.8125,0
26050,-2.875,2.375,-0.3125,0
26070,-1.5,3.625,1.25,0
26090,-3.4375,4.3125,-0.1875,0
26110,-6.5625,4.5625,-1.875,0
26130,-6.625,5.6875,-2.1875,0
26150,-6.125,8.0625,-1.3125,0
26170,-5.375,9.0625,-2.625,0
26190,-4.1875,7.9375,-4.3125,0
26210,-2.9375,6.6875,-3.375,0
26230,-3.625,6.6875,-3.375,0
26250,-1.9375,4.6875,-2.1875,0
26270,0.1875,4.875,-1.4375,0
26290,0.4375,4.4375,-1.625,0
26310,0.75,6.375,-1.3125,0
26330,-1.0625,8.875,-1.1875,0
26350,-3.3125,11.6875,-1,0
26370,-4.4375,14.875,-2.4375,0
26370,-3.125,16.9375,-2.0625,0
26390,-3.25,20.1875,-1.4375,0
26410,-5.6875,25.4375,-5.3125,0
26450,-4.75,28.75,-9.5625,0
26470,-3.875,23.3125,-7.875,0
26490,-7.0625,26.875,-3.9375,0
26510,-3.8125,25.75,-4.75,0
26530,-3,26.9375,-4.5,0
26550,-5.875,30.3125,-1.8125,0
26570,-8.875,32.4375,-1.1875,0
26590,-9,31.8125,3.8125,0
26610,-5.0625,34.875,11.375,0
26630,-8.75,43.1875,13.5,0
26650,-6.9375,45,11.875,0
26670,-6.0625,40.9375,19.3125,0
26690,-10.8125,44.75,22.625,0
26710,-14.25,51.875,23.5,0
26730,-9.4375,51.5,21.5,0
26750,-6.125,47,23.1875,0
26770,-9.25,44.1875,25.875,0
26790,-10.375,46.9375,23.25,0
26810,-4.3125,45,14.375,0
26830,-5.0625,41.75,15.875,0
26830,-3.875,39.125,19.5,0
26850,-5.4375,37.5,18.0625,0
26870,-4.8125,36,13.5,0
26890,-12.125,42.4375,13.8125,0
26910,-4.4375,36.8125,6.5,0
26930,4.1875,21.125,11.5625,0
26950,7.8125,30.9375,6.25,0
26990,-3.4375,35.0625,-1.75,0
27010,-9.0625,34.125,-1.5,0
27030,-0.3125,32.1875,-3.5,0
27050,1.875,30.9375,-8.375,0
27070,3.9375,25.75,-8.6875,0
27090,-1.5625,19.5625,-7.625,0
27110,-5.9375,13.875,-2.5,0
27130,-7.1875,13.0625,-0.4375,0
27150,-8,13.1875,-1.4375,0
27170,-11.3125,10.5625,-2.3125,0
27190,-13.3125,5.9375,-3.75,0
27210,-11.6875,1.5,-3.9375,0
27230,-10.6875,-4.125,-9.375,0
27250,-4.8125,-6.625,-17.75,0
27270,-0.375,-11.5,-20.625,0
27290,-4.6875,-19.1875,-24.5625,0
27310,-12.25,-31.375,-33.75,0
27330,-12.25,-40.875,-44.625,0
27350,-10.1875,-52.0625,-50.6875,0
27370,-14.0625,-61.6875,-50.0625,0
27370,-16.75,-68.375,-51.875,0
27390,-18,-72.375,-56.75,0
27390,-16,-73.1875,-59.0625,0
27410,-18.0625,-75.4375,-54,0
27410,-14.5625,-75.1875,-58.4375,0
27430,-15.9375,-74.4375,-64.875,0
27430,-22.375,-72.75,-62.6875,0
27450,-22.125,-72,-64.6875,0
27450,-21.625,-69,-62.9375,0
27540,-22.25,-68.5,-56.3125,0
27600,-20.8125,-67.625,-55.875,0
27620,-28.3125,-64.875,-57.5,0
27640,-37.25,-55.9375,-59,0
27660,-33.0625,-52.375,-54.0625,0
27680,-30.875,-51.25,-46.625,0
27700,-33.5,-43.125,-44.625,0
27720,-35.8125,-30.0625,-38.125,0
27740,-33.5625,-19.25,-26.75,0
27760,-28.625,-9,-10.6875,0
27780,-26.0625,0.8125,2.5,0
27800,-25.4375,9.3125,16.4375,0
27820,-21.0625,13,24.5,0
27830,-23.25,13.9375,30.125,0
27850,-23.9375,12.875,28.1875,0
27870,-24.25,14.9375,21.6875,0
27890,-13.625,15.9375,17.3125,0
27910,-3.1875,16.75,14.375,0
27930,5.1875,15,8.1875,0
27950,4.75,16.625,3.625,0
27970,7.625,16.375,3.25,0
27990,9.125,18.0625,3.9375,0
28010,11.3125,21.6875,4.625,0
28030,10.3125,22.875,10.0625,0
28050,2.9375,27.625,15.1875,0
28070,7,31.625,14.375,0
28090,10.8125,33.8125,12.5,0
28110,8.875,37.5,13.0625,0
28130,9,38.9375,13.1875,0
28150,6.75,31.9375,10.125,0
28170,3.4375,26.9375,9.375,0
28190,6.1875,23.625,9.1875,0
28210,9.4375,21.5,3.125,0
28230,11.9375,19.6875,-1.125,0
28250,6.5625,13.625,-1,0
28270,3.4375,7.75,1.625,0
28290,5.6875,4.875,1.0625,0
28310,8.375,4.3125,-1.3125,0
28330,7,2.75,-1.5625,0
28350,1.25,0.625,-1.9375,0
28370,-1,-1.1875,-0.6875,0
28390,-0.125,-2.8125,1.25,0
28410,3.3125,-2.75,1.125,0
28430,4.3125,-2.625,0.875,0
28450,2.625,-1.875,0.25,0
28470,0.25,-1.25,0.5,0
28490,1.6875,-0.4375,2.1875,0
28510,1.875,0.375,4.5,0
28530,2.8125,1.75,5.1875,0
28550,3.625,3.3125,4.625,0
28570,2.6875,3.75,5,0
28590,2.0625,3.1875,6,0
28610,3.625,2.5625,6.9375,0
28630,6.875,2.25,6.25,0
28650,6.5625,1.375,6.125,0
28670,4.625,1.4375,5.125,0
28690,3.1875,1.625,4.3125,0
28710,3.3125,0.6875,4.0625,0
28730,5.1875,0.1875,2.75,0
28750,4.375,-1.125,1.875,0
28770,2.5625,-1.5625,1.75,0
28790,1.375,-2.3125,1.625,0
28810,1.8125,-2.8125,0.4375,0
28830,1.5,-2.875,-0.8125,0
28850,1.25,-3.5625,-2.375,0
28870,1.1875,-4.125,-1.625,0
28890,1,-3.75,-0.625,0
28910,0.8125,-3.4375,-0.6875,0
28930,0.9375,-3.375,-0.6875,0
28950,0.6875,-3.1875,-1.4375,0
28970,-0.4375,-3.5625,-0.5,0
28990,-0.6875,-3.4375,0.75,0
29010,-0.8125,-2.8125,1.3125,0
29030,-0.1875,-2.25,0.8125,0
29050,-0.3125,-0.5625,1.125,0
29070,0.0625,-0.5,0.9375,0
29090,-0.25,-1.1875,0.125,0
29110,-0.25,-2,1,0
29130,1.125,-2.3125,1.875,0
29150,0.9375,-2,1.3125,0
29170,0.3125,-2.3125,0.9375,0
29190,0.0625,-2.875,2.1875,0
29210,0.9375,-3.4375,3.5,0
29230,0.3125,-3.125,4.375,0
29250,1.375,-6,6.375,0
29270,4.375,-8.875,6.5,0
29290,7.3125,-12.3125,6.125,0
29310,7.625,-12.6875,8.25,0
29330,1,-11.8125,12.3125,0
29350,-1.625,-12.4375,10.4375,0
29370,-5.25,-11.125,8.375,0
29390,-6.8125,-11.9375,10.5625,0
29410,-6.5625,-11.375,13.6875,0
29430,-5.8125,-10.9375,12.5625,0
29450,-9.0625,-10.1875,11.625,0
29470,-12.625,-9.3125,11.5,0
29490,-16.625,-8.625,13.3125,0
29510,-17.9375,-7.0625,16.5,0
29530,-16.6875,-4.75,15.9375,0
29550,-15.5,-3.5625,12.5,0
29570,-18.25,-2.25,12.25,0
29590,-18.0625,-1.375,14.875,0
29610,-14,-0.375,13.1875,0
29630,-15.75,2.25,10.875,0
29650,-15.1875,6.375,10.375,0
29670,-16.5,9.625,11.625,0
29690,-16,12.75,14.6875,0
29710,-9,13.0625,16,0
29730,-2.5,12.6875,17.625,0
29750,-1.6875,11.5,18.3125,0
29770,-2.4375,11.4375,16.6875,0
29790,-4.875,8.875,14.9375,0
29810,-9,4.875,15.375,0
29830,-9.5,2.6875,13.5625,0
29850,-9.3125,2.125,9.5625,0
29860,-3.5625,1.8125,7.875,0
29860,-0.125,-0.0625,7.125,0
29890,2.5,-2.4375,6.625,0
29920,2.875,-8.5,5.4375,0
29940,3.6875,-0.3125,0.625,0
29960,4.1875,-10.0625,1.5,0
29980,-5.625,-0.4375,-0.1875,0
30000,-9.125,-9,5.625,0
30020,-7.375,-12.4375,10.25,0
30040,-3.875,-12.0625,11.3125,0
30060,-3.4375,-10.9375,10.4375,0
30080,-4.875,-11.5,9.9375,0
30100,-7.375,-9.375,11.0625,0
30120,-6.8125,-4.125,6.8125,0
30140,-2,-5.0625,-0.25,0
30160,-4.4375,-8.0625,6.0625,0
30180,-6.875,-7.75,10.625,2000
30200,-12.6875,-9.625,9.625,0
30220,-11.375,-7.5,7.125,0
30240,-11.3125,-6.8125,2.75,0
30260,-6.375,-3.6875,3.6875,0
30290,-3.1875,-1.9375,5.25,0
30310,-0.6875,-1.5,1.875,0
30330,3.25,0.75,-0.4375,0
30350,-3.25,7.625,3.8125,0
30370,-2.3125,1.0625,4.8125,0
30390,-5.25,0.25,4,0
30410,-6.125,0.5,2.6875,0
30420,-1,0.875,1.3125,0
30440,-1.1875,0,0.0625,0
30440,-2.5625,-0.5,1.25,0
30460,-0.3125,-0.6875,-0.125,0
30480,-0.5,-1.25,-2.1875,0
30500,0.4375,-1.75,-2.4375,0
30510,-1.9375,-2.4375,-1.375,0
30520,-2.8125,-3.125,-0.4375,0
30540,-1.1875,-3.125,-1.3125,0
30560,-0.375,-3.6875,-0.4375,0
30570,-0.75,-4.8125,1.0625,0
30580,-1.6875,-5.5625,2.1875,0
30600,-3.5625,-4.875,2.8125,0
30620,-5.3125,-4.0625,1.875,0
30640,-4.1875,-3.25,1.9375,0
30640,-1.5625,-2.5625,2.4375,0
30660,-1.6875,-1.4375,1.5625,0
30680,0.8125,-0.875,3.75,0
30700,1.375,-0.375,0.875,0
30700,-0.75,0.4375,-0.875,0
30720,-1.625,-0.3125,1.9375,0
30740,-0.625,-0.9375,3.125,0
30760,-0.9375,-0.625,0.9375,0
30760,-2.5,-0.125,0.6875,0
30780,-2.625,-0.1875,2.6875,0
30800,-0.8125,-0.1875,3.5,0
30820,-0.5625,0.9375,3.125,0
30820,-1.625,1.5625,1.25,0
30840,-0.375,0.75,1.6875,0
30860,-0.375,-0.0625,3.0625,0
30880,-0.5625,0.125,2.6875,0
30890,0.375,0.3125,0.8125,0
30900,-0.625,-0.375,-0.6875,0
30920,0.75,-2.8125,-4.0625,0
30940,-2.5,-4.375,-7.125,0
30940,-3.125,-6.375,-7.3125,0
30960,-3.625,-8.0625,-9.3125,0
30980,-5.25,-8.75,-12.0625,0
31000,-5.8125,-8.875,-11.5625,0
31000,-7.25,-8.375,-9.1875,0
31020,-7.625,-8.3125,-7.8125,0
31040,-8.1875,-7.6875,-9.0625,0
31060,-7.4375,-7.5,-12.1875,0
31070,-6.5,-7.375,-10.5625,0
31080,-5.6875,-5.75,-8.625,0
31100,-6.25,-3.3125,-10.3125,0
31120,-7,-2.125,-10.125,0
31130,-3.9375,-3.125,-9.125,0
31160,-2.8125,-3.25,-9.25,0
31180,-2.375,-3.375,-8.4375,0
31190,-2.9375,-3.875,-8,0
31200,-5.0625,-3.5625,-9.25,0
31220,-6,-3.875,-10.625,0
31240,-4.5625,-4.9375,-9.3125,0
31260,-1.5625,-6.25,-10.125,0
31260,-1.125,-6.4375,-11.8125,0
31280,-2.4375,-7.25,-10.4375,0
31310,-3.0625,-7.4375,-8.75,0
31360,-3.3125,-6.8125,-8.75,0
31430,-1.625,-8,-8.375,0
31480,-0.8125,-6.5625,-8.3125,0
31540,-1,-6.125,-8.1875,0
31600,-1.8125,-4.8125,-9.25,0
31640,0.125,-5.125,-9.0625,0
31680,1.375,-2.9375,-8.6875,0
31700,0.1875,-0.8125,-8.25,0
31720,-0.75,-0.1875,-9,0
31740,-2.5,0.0625,-9.625,0
31760,-2.75,0.9375,-10.25,0
31780,-2.875,2.375,-11.0625,0
31800,-2.6875,2.3125,-11,0
31820,-2.8125,3,-12.5625,0
31840,-3.75,3.875,-14.75,0
31860,-4.9375,3.625,-13.9375,0
31880,-4.875,3.6875,-13.625,0
31900,-5.8125,3.8125,-15.125,0
31920,-8.0625,3.375,-14.8125,0
31940,-8.4375,3.3125,-13.75,0
31960,-9.3125,3.3125,-13.0625,0
31980,-10,3.625,-12.5625,0
32000,-10,3.5625,-13.625,0
32020,-10.5,2.875,-14.875,0
32040,-10.375,0.8125,-13.5625,0
32060,-10.4375,1.8125,-12,0
32080,-10.8125,3.375,-13.3125,0
32100,-11.0625,4.375,-14,0
32120,-11.375,5.5,-15.0625,0
32140,-10.5,5.3125,-15.25,0
32160,-9,5.3125,-14.0625,0
32180,-9.9375,5.375,-15.5625,0
32200,-9.5625,6.25,-14.125,0
32220,-12.4375,6.0625,-13.875,0
32240,-12.125,6.8125,-15,0
32260,-12.8125,7.6875,-16.125,0
32280,-14.1875,9.4375,-14.5625,0
32300,-12.9375,10.0625,-15.875,0
32320,-12.0625,8.625,-15.0625,0
32340,-11.625,9.125,-14.25,0
32360,-12.375,9.8125,-15.4375,0
32380,-13.125,10.9375,-15.5625,0
32400,-13.125,9.875,-14.875,0
32420,-13.25,9.4375,-13.5,0
32440,-14.3125,12.25,-14.375,0
32460,-13,13.6875,-13.4375,0
32480,-10.625,14.125,-12.75,0
32500,-11.375,14.1875,-12.625,0
32520,-12.75,14.5,-12.25,0
32540,-13.5,15.25,-10.5625,0
32560,-13.6875,16,-8.625,0
32580,-13.125,16.25,-8.9375,0
32600,-12.875,16,-7.875,0
32620,-12.5625,15.375,-6.1875,0
32640,-11.9375,14.8125,-5.875,0
32660,-11.9375,14.75,-5.9375,0
32680,-13.5625,15,-5.8125,0
32710,-11,14.625,-6.375,0
32730,-9.8125,14.0625,-6.3125,0
32740,-12.3125,15.1875,-8,0
32770,-9.4375,14.9375,-9.3125,0
32790,-10.375,14.5625,-7.75,0
32810,-10,15.375,-7.5625,0
32830,-9.0625,16,-8.3125,0
32850,-9.25,14.375,-7.0625,0
32870,-8,13.625,-5.9375,0
32890,-7.5625,13.125,-5.875,0
32910,-8.4375,11.875,-4.5625,0
32920,-7.9375,12.875,-4.9375,0
32940,-9.5625,11.8125,-4.1875,0
32960,-9.3125,11.1875,-2.9375,0
32980,-8.3125,12.8125,-4.9375,0
33000,-9.3125,13.5,-6.25,0
33020,-9.75,13.5625,-6.375,0
33040,-9.9375,13.75,-6.6875,0
33060,-10.625,14.375,-8.625,0
33080,-11.625,15.0625,-8.25,0
33100,-12.75,15.75,-9.5,0
33120,-12.8125,16.3125,-9.3125,0
33140,-12.1875,15.875,-8.8125,0
33160,-11.25,16.25,-8.6875,0
33180,-14,18.4375,-10.1875,0
33200,-13.875,18.9375,-10.3125,0
33220,-12,18.5625,-7.5625,0
33240,-10.9375,18.625,-7.25,0
33260,-11.25,19.25,-6.25,0
33280,-11.3125,20,-4.6875,0
33300,-11.1875,20.5625,-3,0
33320,-10.5,19.8125,-2.125,0
33340,-11.1875,20.75,-0.4375,0
33360,-9.375,21.25,1,0
33380,-6.5625,21.375,0.375,0
33400,-8.25,19.75,3.375,0
33420,-6.8125,18.9375,6,0
33440,-4.5625,19.3125,6.0625,0
33460,-4.9375,19.0625,3.875,0
33480,-4.8125,18.8125,2.25,0
33500,-4.5,17.3125,2.75,0
33520,-5.5625,17.625,4,0
33540,-2.75,17.8125,3,0
33560,-0.625,17.5625,-0.25,0
33580,-1.9375,16.6875,-3.125,0
33600,-1.9375,16.5,-1.875,0
33620,-1.0625,18.1875,-1.0625,0
33640,-1.875,18.875,-0.4375,0
33660,-2.3125,18,2.75,0
33680,-0.375,18.3125,4.125,0
33700,-2.1875,18.1875,1.4375,0
33720,-4.6875,15.5,3.9375,0
33740,-4.5,12.8125,5.8125,0
33760,-4.375,12.4375,4.3125,0
33780,-3.25,12.5625,3.875,0
33800,-1.875,11.375,2.375,0
33820,-1.75,9.75,1.625,0
33840,-2.3125,9.1875,0.625,0
33860,-0.5625,9,-1.125,0
33880,-0.5625,9.4375,-1.5625,0
33900,-2.125,9.75,-0.1875,0
33920,-0.875,9.8125,4.75,0
33940,1.6875,8.875,3.3125,0
33960,0.625,8.6875,2.8125,0
33990,-2.375,6.5625,6.125,0
34020,-0.9375,6.5625,5.375,0
34040,0.5,6.3125,5.1875,0
34060,1.3125,5.8125,5.9375,0
34080,1.1875,5.75,6.75,0
34100,2,5.5,5.3125,0
34120,0.5625,5.4375,4.6875,0
34150,1.625,2.875,6.25,0
34170,1.75,1.8125,4.8125,0
34190,2.8125,0.9375,3.9375,0
34210,5,-0.125,3.5,0
34230,5.1875,0.625,5.1875,0
34250,5.5,0.5,6.625,0
34270,4.5,0.1875,6.375,0
34290,5.1875,2.25,9.0625,0
34310,5.1875,4.0625,12.125,0
34330,5.625,2.625,10.125,0
34350,4.6875,-0.75,6.8125,0
34370,3,-2.3125,7.1875,0
34390,3,-2.8125,6.125,0
34410,3.125,-3.0625,5.3125,0
34430,3.625,-4.25,5.625,0
34450,2.625,-6.25,5,0
34470,1.375,-7.3125,2.5,0
34490,1.6875,-7.0625,4.625,0
34510,1.1875,-7.6875,6.375,0
34530,-0.9375,-8.375,5.9375,0
34550,0.25,-9.8125,5.1875,0
34570,1.5625,-9.8125,6.3125,0
34590,1.875,-8.6875,7.6875,0
34610,2.125,-7.6875,9,0
34630,-0.1875,-7.4375,8.9375,0
34650,-1.4375,-7.1875,7.0625,0
34670,-1.75,-6.3125,6.8125,0
34690,1,-6.0625,8.5625,0
34710,2.6875,-5.8125,7.0625,0
34730,2.75,-5.125,4.6875,0
34750,0.625,-4.625,5.5,0
34770,-4.6875,-4.8125,5.0625,0
34790,-7.0625,-4.625,3.6875,0
34810,-2.4375,-6.1875,3.6875,0
34830,0.5625,-7.1875,3.5625,0
34850,0.25,-8.25,1.8125,0
34870,-2.625,-9.375,2.125,0
34890,-5,-11.0625,3.375,0
34910,-6.25,-12.5,4.0625,0
34930,-3.625,-12.75,5.8125,0
34950,-2.5,-12.8125,8.0625,0
34970,-1.375,-12.875,9.375,0
34990,-3.1875,-13.3125,9,0
35010,-3.4375,-13.8125,9.1875,0
35030,-0.875,-14.1875,8.9375,0
35050,2.25,-14.625,8.25,0
35070,3.5,-14.8125,7,0
35090,2.25,-14.3125,8.75,0
35110,0.6875,-14.125,10.125,0
35130,1,-14,8.4375,0
35150,1.8125,-14.5625,10.0625,0
35170,3.125,-14.25,11.8125,0
35190,2.25,-13.9375,11,0
35210,0.1875,-14.1875,10.3125,0
35230,1.0625,-15.25,10.375,0
35250,3,-15.625,9.5,0
35270,4.4375,-14.5625,9.4375,0
35290,3.6875,-14.1875,10.3125,0
35310,2.4375,-14.6875,9.25,0
35330,3.375,-15.3125,8,0
35350,4.25,-15.375,7.875,0
35370,5.0625,-14.5625,6.6875,0
35390,3.6875,-14.8125,5.875,0
35410,3.25,-15.4375,6.5625,0
35430,3.625,-14.875,4.375,0
35450,3.625,-15.3125,4.3125,0
35470,5.0625,-15.375,6.5,0
35490,6.5,-14.75,5.625,0
35500,7,-14,4.8125,0
35520,5.9375,-13.75,4.5625,0
35540,6.375,-14.5625,4.625,0
35560,6.4375,-15.375,5.25,0
35580,6,-13.5625,4.625,0
35600,2,-12.375,2.75,0
35620,2.3125,-13.125,4.8125,0
35640,4.25,-13.4375,5.3125,0
35660,4.375,-12.75,3.6875,0
35680,3.8125,-13.1875,4.875,0
35700,2.0625,-13.75,4.5,0
35720,2.5,-13.9375,4.5,0
35740,3.4375,-13.6875,5.1875,0
35760,2.1875,-13.25,4.625,0
35780,2.1875,-12.5625,4.375,0
35800,1.9375,-12.4375,5.25,0
35820,2.9375,-13.125,5.25,0
35840,2.9375,-13.75,5.6875,0
35860,2.875,-14.0625,6.1875,0
35900,4.3125,-14.4375,6.1875,0
35920,5.5625,-14.5,6.5625,0
35940,5.375,-14.9375,6.9375,0
35960,2.8125,-15.625,7.6875,0
35980,1.5,-15.9375,7.375,0
35980,2,-16.25,7.875,0
36000,4.1875,-17.125,7.9375,0
36020,4.0625,-17.5625,7.875,0
36040,1.8125,-18.5,8.5625,0
36040,1,-18.375,8.75,0
36060,1.625,-17.75,8.125,0
36080,2.3125,-17.25,7.5,0
36100,2.9375,-16.625,6.25,0
36100,3.625,-16.8125,6.1875,0
36120,5.0625,-16.25,5.625,0
36140,4.25,-15.5625,4.4375,0
36160,2.625,-16.0625,5.75,0
36160,2.5,-15.125,4.875,0
36180,2.875,-14.3125,3.375,0
36200,1.8125,-15.3125,3.5625,0
36220,2.375,-15.6875,2.625,0
36240,2.875,-15,2,0
36240,2.0625,-14.0625,1.5,0
36260,-0.5,-12.9375,1.375,0
36280,-0.0625,-12.5,0.5625,0
36300,1.4375,-12.875,0.9375,0
36300,1,-13.9375,1.375,0
36320,0.875,-15.3125,1.4375,0
36340,0.8125,-15.125,2.0625,0
36360,0.5,-16.25,2.375,0
36360,0.4375,-17,2.625,0
36380,0.125,-17.1875,1.75,0
36400,1.3125,-17.375,2,0
36420,3.375,-17.125,3.5,0
36420,3.625,-15.75,2.3125,0
36440,3.1875,-14.0625,1.75,0
36460,3.125,-14.875,2.25,0
36480,3.3125,-15.375,2.1875,0
36490,2.125,-15.25,-1.25,0
36500,1.5625,-15.4375,-0.9375,0
36520,2.25,-15.8125,-1.1875,0
36540,1.8125,-15.3125,-4,0
36560,1.5,-16.5625,-5.8125,0
36560,2.25,-17.6875,-4.875,0
36580,3.75,-17.25,-4.375,0
36620,3.625,-15.3125,-5.625,0
36670,1.1875,-14.125,-5.25,0
36720,0.375,-14.5625,-5.125,0
36780,1.6875,-14.625,-6.9375,0
36840,1.5,-14.9375,-5.25,0
36880,2.125,-14.625,-3.125,0
36920,1.1875,-13.375,-4.375,0
36940,1.3125,-13.8125,-5.125,0
36960,-0.625,-14.875,-3.5625,0
36980,-0.75,-14.5625,-2.75,0
37000,0.4375,-12.5625,-3.5,0
37020,-2.0625,-12.3125,-2.4375,0
37040,-2.6875,-13.1875,-1.4375,0
37060,-3.1875,-12.375,-3.4375,0
37080,-2.25,-11.75,-0.75,0
37100,-1,-11.75,0.1875,0
37120,-0.5,-10.5625,-3.375,0
37140,-1.1875,-9.9375,-5,0
37160,0.5,-9.875,-3.875,0
37180,1.5625,-10.3125,-6,0
37200,2.6875,-10.0625,-6.8125,0
37220,2.625,-9.0625,-6.0625,0
37240,0.375,-8.5625,-5.5625,0
37260,-1.75,-9.4375,-5.5,0
37280,-2.1875,-9.375,-6.3125,0
37300,-2.0625,-8.125,-5.75,0
37320,-2.1875,-7.375,-3.9375,0
37340,-3.5625,-6.75,-5.125,0
37360,-3.4375,-6,-6.75,0
37380,-2.125,-3.25,-8.1875,0
37400,0.5625,-1.6875,-8.375,0
37410,1.875,-1.5,-10.9375,0
37430,-0.25,-1.4375,-12.5625,0
37450,-0.9375,-1.9375,-12.3125,0
37490,-0.125,-0.875,-14.0625,0
37510,1.125,-1.0625,-12.6875,0
37530,0.3125,0.3125,-14.375,0
37550,-2,-0.0625,-15.6875,0
37570,-1.9375,-0.4375,-12.875,0
37590,-0.625,0.6875,-13.6875,0
37610,-2,1.625,-13.875,0
37620,-6.8125,3.1875,-12.25,0
37640,-6.25,2,-12,0
37660,-4.0625,1.5625,-13.8125,0
37680,-1.125,2.875,-14.875,0
37700,-2.125,4,-13.3125,0
37720,-3.25,3.8125,-12.9375,0
37740,-3.3125,4.625,-14.4375,0
37760,-2.4375,4.0625,-15.4375,0
37780,-3.625,3.875,-13.4375,0
37800,-4.25,5.5,-11.0625,0
37820,-2.25,6.5,-11.6875,0
37840,-1.4375,6.625,-13.8125,0
37860,-2.5625,6.3125,-12.5,0
37880,-3.1875,6.25,-11.75,0
37900,-2.5,6,-12.1875,0
37920,-1.8125,7.3125,-12.1875,0
37940,-3.3125,7.75,-10.875,0
37960,-4.625,6.9375,-9.875,0
37980,-4.8125,6.375,-10,0
37990,-5.5,6.8125,-10.125,0
38010,-7.4375,7.5625,-9.0625,0
38030,-8.875,7.4375,-7.5625,0
38050,-8.375,6.8125,-7.1875,0
38070,-5.25,7.1875,-7.375,0
38090,-5.25,9.5,-7.3125,0
38110,-7.625,9.5625,-6.9375,0
38130,-7.875,8.3125,-6.8125,0
38150,-8.625,8.1875,-7.1875,0
38170,-7.1875,9.25,-6.75,0
38190,-6.875,10.9375,-7.125,0
38210,-8.1875,10.4375,-7.25,0
38230,-9,9.8125,-7.125,0
38250,-7.75,9.6875,-9.25,0
38270,-7.75,9.4375,-10.8125,0
38290,-8.8125,9.875,-9.4375,0
38310,-10.3125,9.5,-10.375,0
38330,-10,10.3125,-11.3125,0
38350,-9.125,9.3125,-11.0625,0
38370,-6.4375,8.375,-11.4375,0
38390,-7.8125,8.875,-12.375,0
38410,-9.1875,8.375,-11.8125,0
38430,-12.3125,8,-10.625,0
38450,-12.25,8.9375,-9.75,0
38470,-11.375,8.5,-10.75,0
38490,-10.4375,8,-11.5,0
38510,-11.125,8.5625,-10,0
38530,-12.6875,10.625,-7.9375,0
38550,-12.875,11.5,-7.5,0
38570,-12.5625,11.25,-7.875,0
38590,-10.875,12.125,-6.25,0
38610,-9.1875,12.3125,-6.625,0
38630,-10.3125,13.625,-6.5625,0
38650,-9.1875,14.3125,-5.25,0
38670,-11.125,14.5,-3.9375,0
38690,-11.8125,16.6875,-2.3125,0
38710,-12.5625,16.9375,-1.875,0
38730,-10.0625,17,-2.0625,0
38750,-9.75,17.3125,-0.6875,0
38770,-10.75,17.625,-1.125,0
38790,-10.875,18.875,-2.125,0
38810,-10.6875,17.8125,-3.5,0
38830,-8.8125,15.875,-5.75,0
38850,-7.375,14.625,-6.3125,0
38870,-6.75,15.0625,-7.4375,0
38890,-8.0625,14.375,-8.875,0
38910,-8.6875,12.875,-10.0625,0
38930,-8.1875,13.1875,-11.1875,0
38950,-6.6875,13.8125,-13.75,0
38970,-7,14.1875,-15.4375,0
38990,-7.625,14.625,-16.3125,0
39010,-9.0625,15.25,-17.1875,0
39030,-7.375,15.3125,-17,0
39050,-5.1875,15.1875,-16.1875,0
39070,-7.1875,16.1875,-15.1875,0
39090,-9.6875,16,-12.3125,0
39110,-9.75,15.375,-10,0
39130,-9.3125,15.3125,-8.8125,0
39150,-10,16.125,-8.6875,0
39170,-9.875,17.5,-6.4375,0
39190,-10.1875,16.625,-5.25,0
39210,-7.4375,17.1875,-4.625,0
39230,-6.3125,16.9375,-4.1875,0
39250,-5.4375,16.9375,-3.5625,0
39270,-5.1875,16.875,-4.1875,0
39290,-4.4375,16.6875,-3.9375,0
39310,-5.125,15.5625,-3.75,0
39330,-5.375,14.25,-3.6875,0
39350,-4.8125,13.9375,-4,0
39370,-5.4375,14.4375,-3.4375,0
39390,-5.4375,12.9375,-3.9375,0
39410,-5.625,12.8125,-3.875,0
39430,-5.8125,12.75,-4.0625,0
39450,-4.875,13.8125,-3.125,0
39470,-4.8125,13.6875,-2.6875,0
39490,-6.125,13.5625,-2.3125,0
39510,-6.1875,13,-3.1875,0
39530,-5.5,12.875,-3.8125,0
39550,-5.3125,12.375,-4,0
39570,-6.25,12.625,-4.1875,0
39590,-6.6875,13.1875,-2.75,0
39610,-5.75,12.75,-2.5,0
39630,-4.5625,12.125,-2.5,0
39650,-4.6875,11.0625,-1.6875,0
39670,-5.25,10.25,-1.9375,0
39690,-4.3125,9.6875,-2.4375,0
39710,-5.5625,10.25,-2.3125,0
39730,-5.25,10.1875,-0.875,0
39750,-5.125,9.3125,-1.1875,0
39770,-4.75,10.125,-2.25,0
39790,-2.6875,10.375,-1.1875,0
39810,-2.6875,10.1875,-0.6875,0
39830,-4.0625,10.75,-0.4375,0
39850,-4.3125,10.75,0.0625,0
39870,-1.375,10.125,0.6875,0
39890,-1.875,10.125,-0.5,0
39910,-3,9.8125,0.0625,0
39930,-2.625,10,2.25,0
39950,-2.25,10.3125,2.25,0
39970,-2.0625,9.1875,1.0625,0
39990,-2.125,8.125,2.1875,0
40010,-3.0625,8.875,2.875,0
40030,-2.375,9.1875,3.3125,0
40050,-1.4375,8.8125,3.5,0
40070,-1.125,8.1875,2.5625,0
40090,-1.5,6.875,2.0625,0
40110,-1.3125,6.4375,1.375,0
40130,-0.8125,7,1.1875,0
40150,0.875,5.6875,0.125,0
40170,-0.0625,5.5625,-0.0625,0
40190,0,5.5625,-0.1875,0
40210,0.125,5.75,0.4375,0
40230,1.375,5.375,1.9375,0
40250,1.625,4.25,0.1875,0
40270,0.8125,3.25,0.0625,0
40290,0.9375,2.375,2.1875,0
40310,0.625,2.125,2.3125,0
40330,-1.375,2.5,0.875,0
40350,-1.25,1.25,1.1875,0
40370,-0.1875,1.375,0.8125,0
40390,-1.3125,2.5625,0.0625,0
40410,-1.75,4.1875,0.4375,0
40430,-0.875,5.125,0,0
40450,-1.8125,5.6875,-1,0
40470,-0.375,6.1875,-0.0625,0
40490,0.625,6.25,-0.4375,0
40510,-1.125,5.6875,-0.0625,0
40530,-2.125,5.625,-0.4375,0
40550,-2.875,5.75,-0.875,0
40570,-2.75,5.5625,-0.0625,0
40590,-2.4375,6.125,0.1875,0
40600,-1.9375,6.125,0.25,0
40620,-1.75,6.125,0.375,0
40640,-0.9375,6.5,-0.3125,0
40660,0.1875,6.0625,-0.5,0
40680,0.25,4.625,-0.625,0
40700,-0.6875,4.5625,-2,0
40720,-0.5,4.625,-1.8125,0
40740,0.6875,3.8125,-1.875,0
40760,1.6875,3.0625,-1.625,0
40780,0.5625,3.1875,-1.4375,0
40800,-0.5,2.3125,-0.6875,0
40820,-1.375,1.375,-0.0625,0
40840,-0.875,1.6875,-1.5,0
40860,1.8125,1.0625,-1.75,0
40880,0.125,0.8125,-1,0
40900,-0.5,0.375,-0.625,0
40920,-0.5625,0.125,-0.25,0
40940,-0.4375,-0.875,-0.375,0
40960,-1,-1.3125,0.875,0
40980,-1.5625,-1.5625,2.5,0
41000,-0.375,-0.75,2.9375,0
41020,1.75,-0.875,2.3125,0
41040,2.4375,-1.5625,2.25,0
41060,1.75,-1.9375,3.125,0
41080,0.9375,-0.75,3.8125,0
41100,1.0625,-0.75,3.1875,0
41120,1.25,-0.9375,2.5,0
41140,2.3125,-1,0.9375,0
41160,3.3125,-1.3125,0.8125,0
41180,1.8125,-1.5625,1.5625,0
41200,-0.125,-1.5,2.125,0
41220,-1.25,-1.5625,1.25,0
41240,-1.9375,-0.625,0.5,0
41260,-2.875,-0.875,1.75,0
41280,-1.375,-1.25,1.8125,0
41300,0.0625,-0.4375,1,0
41320,0.75,-0.75,0.75,0
41340,-0.375,-1.0625,0.4375,0
41360,-1,-0.875,-0.625,0
41380,0.5,-0.4375,-1.4375,0
41400,0.0625,-0.4375,-1.5625,0
41420,-0.0625,-1.5,-1.25,0
41440,-1.5,-1,-1.3125,0
41460,-1.125,0.5625,-0.875,0
41480,-0.3125,0.1875,-0.375,0
41500,-0.8125,0.4375,-0.1875,0
41520,-0.9375,-0.0625,0.5,0
41540,-0.5625,-0.5,0.5,0
41560,-0.4375,0.125,0.4375,0
41580,-1.0625,0.5625,1.125,0
41600,-0.8125,-1,0.9375,0
41620,0,-1.1875,0.25,0
41640,0.625,-0.25,0.125,0
41660,0.1875,-0.875,0.375,0
41680,-0.0625,-1.4375,0.125,0
41700,0.875,-1.125,-0.25,0
41720,1.25,-1,-0.25,0
41740,0,-1.625,1.0625,0
41760,-1.5625,-2,1.4375,0
41780,-1.375,-1.875,1.125,0
41800,0.4375,-1.75,0.9375,0
41820,0,-2.0625,0.875,0
41840,-1.4375,-1.8125,0.8125,0
41860,-0.9375,-1.875,1.25,0
41880,-0.3125,-1.375,1.625,0
41900,0.125,-0.9375,1.5,0
41920,-1.25,-1.0625,1.625,0
41940,-1.875,-0.625,1.4375,0
41960,-0.8125,0.25,1.3125,0
41980,-0.125,0.5,0.75,0
42000,0.6875,0.625,0.625,0
42020,-0.6875,0.25,1,0
42040,-0.8125,0.375,0.3125,0
42060,0,0.75,-0.375,0
42080,0.8125,0.1875,-0.5625,0
42100,0.3125,-0.5,-0.6875,0
42120,-1.0625,-0.4375,-0.375,0
42140,-0.8125,-0.0625,0.0625,0
42160,-0.375,-0.6875,0,0
42180,0.4375,-0.75,0,0
42200,0.3125,-1,-0.4375,0
42220,-0.6875,-1.25,-0.75,0
42240,-1.5625,-1.875,-0.625,0
42260,-0.8125,-1.5,-0.875,0
42280,-0.375,-1.25,-0.375,0
42300,-0.0625,-1.25,1.1875,0
42320,0,-0.875,0.375,0
42340,-0.125,-0.9375,0.25,0
42360,-0.4375,-0.5625,0.875,0
42380,-1.1875,0,0.625,0
42400,0.375,0,-0.125,0
42420,0.0625,0.1875,0,0
42440,-0.25,0.75,1,0
42460,-1.6875,0.375,1.0625,0
42480,-1.8125,0,1.125,0
42500,-1,0.0625,1.125,0
42520,-0.5625,0.125,0.625,0
42540,-0.75,-0.125,0.1875,0
42560,-0.8125,-0.5625,0.4375,0
42580,0.0625,-0.5625,0.125,0
42600,1.125,-0.375,-0.25,0
42620,-0.0625,-0.4375,0.125,0
42640,-0.5625,-0.875,0.8125,0
42660,-0.9375,-1.125,0.9375,0
42680,-1,-0.9375,0.5625,0
42700,-1.0625,-0.3125,0.625,0
42720,-2.0625,-0.6875,1,0
42740,-1,-0.6875,0.625,0
42760,-0.8125,-0.5,-0.4375,0
42780,-0.9375,-0.4375,-0.0625,0
42800,-1.25,-0.5625,0,0
42820,-1.9375,-0.6875,-0.625,0
42840,-2.4375,-0.125,-0.3125,0
42860,-2.375,0.3125,-0.1875,0
42880,-1.5625,0.625,-0.1875,0
42900,-0.875,1.3125,-1,0
42920,-0.875,1.0625,-0.875,0
42940,-0.1875,1,1.1875,0
42960,-1.375,1.75,0.0625,0
42980,-2,2.25,-0.375,0
43000,-3.0625,1.5,3.125,0
43020,-1.1875,0.8125,4.3125,0
43040,-1.375,0.3125,3.25,0
43060,-1,-0.0625,4.25,0
43080,-1.5625,-1.375,5.375,0
43100,-0.875,-2.1875,6.5625,0
43120,-1.8125,-3.0625,5.8125,0
43140,-1.75,-3.125,5.8125,0
43160,-1.375,-2.75,7.625,0
43180,-0.5625,-2.5,8.875,0
43200,0.5625,-1.6875,8.5,0
43210,2.1875,-1.625,9.3125,0
43230,2.75,-0.75,10.0625,0
43250,2.875,-0.3125,9.1875,0
43270,2.8125,-0.4375,8.5625,0
43290,2.125,-0.375,9.1875,0
43310,3.125,-0.5625,9.5,0
43330,2.375,-0.5625,7.8125,0
43350,2.125,-0.375,6.6875,0
43370,1.3125,-0.625,6.75,0
43390,1.5625,-0.375,7.25,0
43410,1.6875,-0.1875,5.375,0
43430,1.625,-0.25,3.6875,0
43450,1.4375,-0.1875,3.8125,0
43470,2.125,0.3125,3.6875,0
43490,1.625,0.125,3.4375,0
43510,1.1875,1.625,2.6875,0
43530,-0.375,2.75,2.25,0
43550,-0.25,2.75,2.625,0
43570,1.1875,2.25,2.875,0
43590,0.75,2.1875,2.4375,0
43610,-2.0625,2,4.3125,0
43630,-6,0.875,7.6875,0
43650,-7.875,-0.25,8.75,0
43670,-6.0625,-2.0625,9.5,0
43690,-3.3125,-3.5,8.6875,0
43710,-1.9375,-3.625,7.6875,0
43730,-2.5,-4.4375,7.6875,0
43750,-2.4375,-5.3125,7.25,0
43770,-0.5,-6.75,6.375,0
43790,1.25,-8.1875,6.3125,0
43810,2.4375,-8.5,6.8125,0
43830,2.0625,-8.4375,6,0
43850,0,-9.25,7.75,0
43870,-1.875,-8.75,7.5,0
43890,-2.25,-8.5,7.1875,0
43910,-0.9375,-8.6875,9.6875,0
43930,1.5625,-8.75,10.125,0
43950,0.5625,-9.125,10.875,0
43970,-1.25,-9.0625,11.25,0
43990,-1.625,-9.0625,11.75,0
44010,-0.8125,-9,10.9375,0
44030,2.0625,-8.9375,10.9375,0
44050,3.8125,-8.625,11.4375,0
44070,3.5,-7.4375,11,0
44090,1.25,-7,10,0
44110,1.8125,-7.125,10.375,0
44130,2.25,-7.3125,10.8125,0
44150,3.4375,-7.5625,12.125,0
44170,1.6875,-6.875,13.8125,0
44190,-0.1875,-5.3125,13.3125,0
44210,0.125,-6.0625,15.375,0
44230,0.25,-5.875,17.5625,0
44250,-0.1875,-5.8125,16.625,0
44270,-1.9375,-6.875,17.0625,0
44290,-2.125,-8.25,17.5,0
44310,-0.4375,-7.5625,16.875,0
44330,1.125,-7.75,14.875,0
44350,0.9375,-9,14.875,0
44370,1.375,-8.875,14.875,0
44390,0.25,-8.875,13.25,0
44410,1.125,-10.4375,11.5625,0
44430,1.3125,-11.125,11.8125,0
44450,0.9375,-11.0625,11.625,0
44470,0.25,-11.625,10.5625,0
44490,-1.5,-13.125,8.75,0
44510,-0.5,-13.8125,7.5,0
44530,-1,-14.1875,7.375,0
44550,-2.625,-13.5625,6.5,0
44570,-2.4375,-13.25,6.8125,0
44590,-2.125,-13.5,7.9375,0
44610,-1.1875,-14.25,6.4375,0
44630,-2.25,-15,6.4375,0
44650,-2.25,-14.8125,6.8125,0
44670,-1.5625,-16,7.1875,0
44690,-0.625,-18.0625,7.625,0
44710,0.9375,-19.3125,7.5,0
44730,2.6875,-18.4375,9.1875,0
44750,2,-17.625,9.875,0
44770,-1,-18.75,10.125,0
44790,-1.125,-19.6875,9.5,0
44810,3.375,-20.5,9.5625,0
44830,6.4375,-20.375,10.8125,0
44850,6.0625,-19.75,8.4375,0
44870,2.875,-20.875,8.125,0
44890,1.1875,-21.5625,9.375,0
44910,2.6875,-21.1875,9.3125,0
44930,4.25,-21.5,9.6875,0
44950,3.6875,-21.0625,10.3125,0
44970,0.125,-20.875,9.4375,0
44990,-0.5625,-18.875,9.5625,0
45010,2.25,-18.3125,10.5,0
45030,2.75,-19.75,9.8125,0
45050,1.9375,-19.5625,9.4375,0
45070,2,-17.8125,9.0625,0
45090,3.25,-16.6875,9.3125,0
45110,4.0625,-17.875,7.875,0
45130,4.9375,-19.1875,7.375,0
45150,5.6875,-18.25,6,0
45170,4.3125,-16.3125,6.625,0
45190,2.375,-17.1875,6.1875,0
45210,2.0625,-19.25,4.875,0
45230,2.8125,-19.3125,4.6875,0
45250,2.5625,-17.3125,4.9375,0
45270,-0.1875,-17.75,4,0
45290,0,-18.6875,3.0625,0
45310,0.8125,-18.9375,1.5625,0
45330,2.875,-19.375,-0.3125,0
45350,4.625,-18.625,-0.375,0
45370,5.75,-19.0625,-2.75,0
45390,4.75,-21.875,-5.4375,0
45410,4.375,-23.5625,-6,0
45430,5.375,-25,-5.875,0
45450,5.9375,-26.625,-5.125,0
45470,4.5,-27.5625,-5.1875,0
45490,0.625,-30.125,-6.9375,0
45510,-2.9375,-31.625,-7.5625,0
45530,-4.4375,-30,-6.0625,0
45550,-1.8125,-27,-4.6875,0
45570,2.6875,-25,-4.75,0
45590,3.125,-24.1875,-7,0
45610,2.375,-24.375,-8.125,0
45630,1,-23.8125,-6.1875,0
45650,2.75,-21.25,-4,0
45670,1.75,-21.0625,-2.5,0
45690,1.125,-20.875,-1.9375,0
45710,1.125,-20.5625,-2.5,0
45730,0.25,-19.875,-2.0625,0
45750,1.125,-18.875,-0.125,0
45770,0.875,-19.125,0.25,0
45790,-1.3125,-21.0625,-0.4375,0
45810,-1,-22.3125,-0.9375,0
45820,0.5625,-21.1875,-0.375,0
45840,2.375,-20.0625,-0.9375,0
45860,1.8125,-19.6875,-2.125,0
45880,1.8125,-20.375,-3.4375,0
45900,3.5,-19.3125,-5.875,0
45920,5.3125,-18.625,-6.1875,0
45940,4.5625,-18.3125,-6.375,0
45960,2.25,-18.5,-7.4375,0
45980,2.9375,-18.375,-8.6875,0
46000,4.1875,-17.0625,-10.25,0
46020,4.5,-16.3125,-11.5,0
46040,4.75,-15.4375,-10.1875,0
46060,3,-13.6875,-10.625,0
46080,0.75,-13.25,-12.4375,0
46100,-0.625,-13.625,-13,0
46120,1.8125,-11.625,-13.3125,0
46140,3.6875,-9.4375,-12.9375,0
46160,0.4375,-9,-12.75,0
46180,-3.6875,-9.4375,-12.625,0
46200,-0.875,-9.3125,-14,0
46220,2.6875,-8.6875,-13.5625,0
46240,1.8125,-8.125,-13.875,0
46260,0.1875,-6.0625,-13.0625,0
46280,1.1875,-6.0625,-12.8125,0
46300,0.5,-6.375,-14,0
46320,-0.0625,-6,-16,0
46340,1.3125,-3.875,-15.0625,0
46360,1.9375,-2.5625,-15.125,0
46380,1.8125,-3.3125,-17.5625,0
46400,-0.4375,-2.1875,-18.25,0
46420,-2.6875,-0.625,-15.8125,0
46440,-1.375,-0.375,-14.75,0
46460,-0.9375,0.8125,-16.3125,0
46480,-1.0625,2.0625,-16.1875,0
46500,-2.3125,2.3125,-15.125,0
46520,-0.8125,3.3125,-15.1875,0
46540,-4,5.125,-14.0625,0
46560,-2.5625,5.8125,-14.0625,0
46580,-2.375,5.125,-14.375,0
46600,-3.4375,6.3125,-14.0625,0
46620,-4.75,7.8125,-14.1875,0
46640,-4,7.375,-14.375,0
46660,-3.4375,5.6875,-14.125,0
46680,-6,7,-14.25,0
46700,-6.4375,8.375,-15,0
46720,-5.1875,9.0625,-14.5,0
46740,-5.1875,9.75,-14.8125,0
46760,-4.0625,8.625,-15.25,0
46780,-4.875,7.8125,-15.5,0
46800,-6,7.75,-16.25,0
46820,-6.625,9.625,-15.1875,0
46840,-8.4375,10.0625,-13.5,0
46860,-10.625,10.75,-13.4375,0
46880,-10.125,12.6875,-14.8125,0
46900,-7.375,12.4375,-16.125,0
46920,-5.6875,11.5,-16.3125,0
46940,-9.4375,12.75,-15.0625,0
46960,-11.5,14.5625,-12.5625,0
46980,-11.3125,12.875,-13.3125,0
47000,-12.6875,11.5,-14.75,0
47020,-11.25,11.5,-14.0625,0
47040,-10.6875,14.5,-11.125,0
47060,-12.375,14.8125,-10.8125,0
47080,-13.6875,14.0625,-11.9375,0
47100,-16.4375,13.5,-11.4375,0
47120,-14.3125,14.3125,-9.875,0
47140,-10.875,15.9375,-10.0625,0
47160,-8.25,15.125,-11.1875,0
47180,-10.9375,14.75,-12.8125,0
47200,-12.1875,14.125,-13.625,0
47220,-10.6875,14.375,-12.25,0
47240,-8.4375,13.875,-11.375,0
47260,-8.9375,13.375,-10.5,0
47280,-12,12.375,-9.0625,0
47300,-12.1875,11.5,-6.8125,0
47320,-11.6875,10.9375,-6.5,0
47340,-9.375,10.875,-7.25,0
47360,-10.25,11.8125,-6.4375,0
47380,-11.0625,11.75,-4.875,0
47400,-8.625,11.3125,-7.375,0
47420,-6.4375,11.5625,-10.0625,0
47440,-5.8125,13.125,-9.5625,0
47460,-7.75,12.6875,-9.25,0
47480,-6.875,13.6875,-12.1875,0
47500,-4.25,12.9375,-13.5625,0
47520,-4,14.125,-13.25,0
47540,-6,14.1875,-13.4375,0
47560,-5.8125,13.5,-14,0
47580,-5.8125,13.0625,-12.5,0
47600,-7,12.875,-10.6875,0
47620,-9.5,13.4375,-10.5,0
47640,-9.125,12.8125,-10.3125,0
47660,-7.875,12.25,-9.375,0
47680,-7.4375,12.875,-9.25,0
47700,-8.75,12.8125,-8.75,0
47720,-7.875,13.25,-7.75,0
47740,-8.3125,11.9375,-7.8125,0
47760,-8.1875,12.9375,-7,0
47780,-8.625,14.5625,-6.75,0
47800,-7.4375,14.875,-6.5,0
47820,-6.5,14.9375,-5.625,0
47840,-6.25,16.4375,-4.9375,0
47860,-5.125,16.625,-4.375,0
47880,-5.5,15.875,-5.0625,0
47900,-7.3125,15.9375,-5.4375,0
47920,-7.1875,15.5625,-4.3125,0
47940,-5.4375,15.4375,-3.875,0
47960,-4.4375,14.375,-5.25,0
47980,-5.1875,14.375,-4.6875,0
48000,-6.4375,13.1875,-4.8125,0
48020,-7,13.0625,-5.6875,0
48040,-7,14.0625,-4.8125,0
48060,-5.875,14.375,-3.625,0
48080,-4.125,13.9375,-3.9375,0
48100,-3.75,13,-5.3125,0
48120,-4.75,13.9375,-5,0
48140,-4.75,15.6875,-3.4375,0
48160,-4.6875,15.6875,-4.1875,0
48180,-5.25,15.25,-4.3125,0
48200,-6.125,14.25,-2.875,0
48220,-4.625,14.625,-2.125,0
48240,-3.8125,14.125,-1.25,0
48260,-2.3125,14.1875,-1.1875,0
48280,-2.1875,13.9375,-1.125,0
48300,-3.75,14.3125,-0.0625,0
48320,-4.8125,15.0625,1,0
48340,-1.75,15.25,2,0
48360,0.625,14.4375,1.4375,0
48380,1.3125,13.5625,1.5,0
48400,-0.5625,14.0625,1.6875,0
48420,-1.9375,15,3.125,0
48430,-1.75,14.875,4.9375,0
48450,0.3125,12.5,3.875,0
48470,0.75,11.8125,3.125,0
48490,1.1875,11.5,4.5625,0
48510,-0.625,11.25,5.875,0
48530,-2.6875,10.0625,5.875,0
48550,-1.25,9.4375,6.125,0
48570,1,8.1875,5.8125,0
48590,2.3125,7.125,6.875,0
48610,0.625,5.5625,8.625,0
48630,-1.6875,4.875,8.5625,0
48650,-2.5625,4.4375,9.0625,0
48670,0.25,2.0625,9.8125,0
48690,1.8125,1.3125,9.8125,0
48710,0.4375,1.375,10.4375,0
48730,0.0625,1.0625,11.0625,0
48750,-0.25,0.0625,11.1875,0
48770,1,-1.125,11.375,0
48790,1.5625,-0.4375,11.75,0
48810,0.0625,-0.5625,13,0
48830,1.375,-0.6875,12.875,0
48850,2.6875,-0.5,11.8125,0
48870,4.4375,0.0625,12.5,0
48890,2.5625,-0.1875,14.0625,0
48910,-0.125,-0.125,14,0
48930,-1.5625,0.6875,14.4375,0
48950,0.125,0.875,14.6875,0
48970,0.3125,0.8125,15.0625,0
48990,-0.9375,0.6875,15.6875,0
49010,-2.9375,1.375,16.0625,0
49030,-1.75,1.0625,16.8125,0
49050,0.4375,0.4375,15.6875,0
49070,1.3125,1.1875,14.4375,0
49090,0.875,0.9375,14.75,0
49110,0.875,0.375,14.1875,0
49130,-0.625,-0.75,13.8125,0
49150,-0.625,-0.375,14.1875,0
49170,0.8125,0.125,14.875,0
49190,0.875,0.25,14.75,0
49210,1,-0.6875,14.6875,0
49230,2,-0.1875,14.8125,0
49250,2.75,-0.1875,14.6875,0
49270,2.8125,-1.4375,14.3125,0
49290,2.0625,-1.1875,13.25,0
49310,1.875,-1.6875,11.8125,0
49330,2.6875,-2.5625,9.5,0
49350,4.5,-3.6875,7.4375,0
49370,4.4375,-4,5.9375,0
49390,2.125,-4.0625,5.0625,0
49410,-0.8125,-3.9375,5.25,0
49430,-1.1875,-4.375,4.4375,0
49450,-0.8125,-4.5625,4.25,0
49470,-0.8125,-3.6875,5,0
49490,-1.875,-3.875,5.9375,0
49510,-5.8125,-4.375,5.5625,0
49530,-5.875,-4.5,4.25,0
49550,-4,-5,4.3125,0
49570,-3.375,-5.625,4.9375,0
49590,-4.5625,-5.8125,6.75,0
49610,-7.25,-5.875,5.875,0
49630,-7.875,-5.9375,5.4375,0
49650,-5.1875,-5.9375,6.5,0
49670,-1.3125,-6.625,6.9375,0
49690,-2.3125,-7.25,8,0
49710,-5.3125,-6.4375,8.25,0
49730,-6.8125,-6.8125,8.5,0
49750,-5.5,-7.875,9.375,0
49770,-2.5625,-8.6875,9.3125,0
49790,-3.5625,-8.8125,10.375,0
49810,-5.875,-9.125,11.4375,0
49830,-7.625,-8.8125,11.4375,0
49850,-8.375,-9.1875,11.375,0
49870,-7.875,-10.3125,11.25,0
49890,-8.1875,-9.625,10.625,0
49910,-9.375,-10,10.6875,0
49920,-6.5,-10.3125,9.9375,0
49940,0.0625,-10.375,7.625,0
49960,1.125,-10.6875,6.125,0
49980,-4.4375,-9.625,8.5625,0
50000,-8.75,-9.125,9.625,0
50020,-10.0625,-11.25,9.3125,0
50040,-8.5625,-12.1875,9.1875,0
50060,-5.8125,-12.0625,7.4375,0
50080,-3.3125,-12.125,6.5625,0
50100,-1.1875,-13.3125,4.75,0
50120,1.9375,-12.5625,3.875,0
50140,4.9375,-11.75,4.375,0
50160,4.875,-12.0625,4.3125,0
50180,4.0625,-12.125,5.6875,0
50200,2.125,-12.0625,7.125,0
50220,0.125,-11.8125,7.9375,0
50240,-0.6875,-11.625,9.1875,0
50260,-3.5,-13.4375,9.625,0
50280,-6.0625,-14.4375,9.125,0
50300,-6,-13.5625,9.125,0
50320,-5.6875,-12.4375,8.875,0
50340,-5.9375,-12.9375,9.0625,0
50360,-6.9375,-13.5625,8.75,0
50380,-5.0625,-12.9375,7.4375,0
50400,-2,-13.0625,6.8125,0
50420,-1.3125,-13.8125,5.3125,0
50440,-1.5625,-13.8125,4.9375,0
50460,-1.4375,-13.5625,4.4375,0
50480,0.25,-13.4375,4.5,0
50500,5.3125,-13.25,3.625,0
50520,8.3125,-14.375,1.25,0
50540,8.3125,-15.625,2.5625,0
50560,4.125,-17.5625,2.625,0
50580,1,-18.25,3.1875,0
50600,1.8125,-18.625,4.8125,0
50620,1.9375,-19.3125,4.9375,0
50640,1.9375,-19.0625,3.5625,0
50660,3.625,-18.875,2.1875,0
50680,4.625,-19.1875,2.25,0
50700,7.4375,-18.5625,1.0625,0
50720,6.9375,-18.875,-0.625,0
50740,5.0625,-19.125,-1.5625,0
50760,5.25,-18.375,-0.75,0
50780,7.25,-17.9375,-1.5,0
50800,9.125,-17.8125,-2.75,0
50820,10.125,-17.5,-1.9375,0
50840,10.8125,-16.6875,-1.75,0
50860,10.625,-15.9375,-1.125,0
50880,11.125,-15.375,-0.75,0
50900,10.375,-17,-2.0625,0
50920,9.125,-17.25,-2,0
50940,4.8125,-15.1875,0.3125,0
50960,1,-14.75,1.8125,0
50980,0.4375,-15.6875,2.3125,0
51000,2.3125,-14.9375,4.25,0
51020,2.0625,-13.25,4.8125,0
51030,2.3125,-13.4375,4.625,0
51050,1.75,-15.25,3.5625,0
51070,2.0625,-14.75,5.1875,0
51090,-0.5625,-13.8125,5,0
51110,-4.5625,-13.875,5.375,0
51130,-5.5625,-14,6.75,0
51150,-4.4375,-13.875,7.3125,0
51170,-3.6875,-13.625,6.6875,0
51190,-3.1875,-12.75,5.6875,0
51210,-2.3125,-12.1875,3.625,0
51230,-2.5625,-12.6875,0.9375,0
51250,-2.9375,-14.1875,-0.9375,0
51270,-0.5625,-13.3125,-0.0625,0
51290,0.75,-13.75,-2.5,0
51310,2.5625,-15.125,-4.6875,0
51330,2.125,-15.4375,-6.3125,0
51350,1.6875,-15.1875,-6.5,0
51370,-0.875,-16.5625,-6.625,0
51390,-2.875,-17.5,-8.9375,0
51410,-2.0625,-17.1875,-9.875,0
51430,-0.8125,-18.3125,-10.0625,0
51450,2.1875,-17.3125,-11.375,0
51470,5.375,-15.8125,-14.25,0
51490,5.8125,-15.25,-15.4375,0
51510,5.5625,-13.5625,-15.0625,0
51530,5.625,-11.375,-14.375,0
51550,6.0625,-8.6875,-12.4375,0
51570,5.1875,-6.9375,-11.4375,0
51590,3.4375,-8.6875,-10.25,0
51610,1.625,-10.25,-7,0
51630,1.125,-9.375,-7.375,0
51650,2.375,-8.9375,-5.75,0
51670,3.25,-7.25,-4.5,0
51690,1.8125,-7.8125,-6.75,0
51710,2.75,-9,-7.625,0
51730,6.0625,-8.6875,-7.125,0
51750,9.1875,-8.5625,-8.5,0
51770,8.3125,-10.4375,-8.75,0
51790,7.1875,-10.5625,-8.4375,0
51810,6.1875,-8.875,-6.875,0
51830,4.875,-10,-6.5,0
51850,5.5,-11.6875,-7.75,0
51870,7.75,-11,-9,0
51890,10.875,-10.5625,-10,0
51910,10,-11.4375,-10.8125,0
51930,7.75,-12,-11.75,0
51950,7.3125,-11.125,-12,0
51970,7.3125,-11.375,-11.3125,0
51990,7.1875,-12,-11.4375,0
52010,5.1875,-11.75,-10.25,0
52030,3.375,-11.625,-8.75,0
52050,3.6875,-10.3125,-8.5625,0
52070,6.3125,-10.875,-9.625,0
52090,5.125,-11,-11.1875,0
52110,4.625,-9.8125,-11.9375,0
52130,5.75,-9.0625,-11.375,0
52150,8.1875,-9.5625,-11.8125,0
52170,7.4375,-8.875,-12.625,0
52190,5.1875,-7.5,-12,0
52210,6,-7.5625,-10.8125,0
52230,4.9375,-7.125,-9.9375,0
52250,5.5625,-5.4375,-8.5625,0
52270,5.1875,-6,-7.6875,0
52290,5,-5.9375,-7.4375,0
52310,6.375,-4.3125,-8.6875,0
52330,7.1875,-3.25,-8.25,0
52350,5.6875,-2.375,-7.5625,0
52370,5.375,-1.4375,-9.3125,0
52390,7,-0.5,-11.0625,0
52410,9.25,0.125,-12,0
52430,11,-0.4375,-11.625,0
52450,11.25,-0.75,-13,0
52470,9.8125,-0.3125,-13.375,0
52490,9.6875,-0.5,-11.3125,0
52510,10.0625,-0.125,-12.0625,0
52530,9.625,-0.6875,-12.9375,0
52550,7.375,-0.5625,-12.9375,0
52570,6.0625,-1.125,-12.25,0
52590,3.6875,-2.625,-11.25,0
52610,3.375,-2.5,-10.4375,0
52630,4.875,-2.3125,-10.9375,0
52650,4.625,-1.5625,-10.0625,0
52670,0.75,-0.25,-7.375,0
52690,-1.1875,0,-7.25,0
52710,1.3125,2.5625,-7.75,0
52730,1.8125,2.625,-8.5,0
52750,0.75,2.1875,-8.75,0
52770,0.625,3.5625,-8.75,0
52790,2.5625,4.875,-10.0625,0
52810,4.625,4.375,-12.125,0
52830,3.8125,4.3125,-10.875,0
52850,2.5,4.9375,-10.75,0
52870,2.9375,4.6875,-10.9375,0
52890,4.5,3.5625,-10.5,0
52910,5.3125,3.5,-10.75,0
52930,5.5,3.5,-9.8125,0
52950,5.125,3,-8.875,0
52970,4.75,2.375,-8.125,0
52990,1.375,2.0625,-7.25,0
53010,0.3125,2.875,-5,0
53030,2.6875,1.125,-4.6875,0
53050,3.125,0.8125,-5.3125,0
53070,1,1.875,-3.75,0
53090,-1.3125,1.8125,-2.75,0
53110,-0.5625,0,-3.6875,0
53130,4.375,0.75,-6.1875,0
53150,7.375,2.0625,-8.1875,0
53170,3.6875,1.875,-6.375,2001
53190,-0.8125,0.875,-4.0625,0
53210,-1.3125,-0.125,-3.75,0
53230,0.75,-0.75,-3.8125,0
53250,0.6875,-0.75,-1.0625,0
53270,-1.6875,-1.25,1.1875,0
53290,0.1875,-3.125,-0.6875,0
53310,0,-3.8125,-1.9375,0
53330,0.5625,-4,-1.9375,0
53350,2.5,-2.5,-3.1875,0
53370,3.4375,-4.125,-2.5,0
53390,1.5,-3.375,-2,0
53410,-1.3125,-3.1875,-1.8125,0
53430,-0.4375,-1.375,-2.375,0
53450,1.75,-1.5,-2.875,0
53470,1.5625,-0.375,-1.5625,0
53490,1.25,0.9375,-0.125,0
53510,0.25,0.75,1.9375,0
53530,-2.4375,-0.625,2.25,0
53550,-4.25,0.625,3.5,0
53570,-5.3125,-0.0625,5.5,0
53590,-5.3125,2.5625,6.4375,0
53610,-2.125,4.75,6,0
53620,1.6875,9.375,4.375,0
53640,2.125,11.375,2.75,0
53660,2.3125,10.875,4.0625,0
53680,2.4375,10.3125,3.1875,0
53700,2.1875,7.5625,3.5,0
53720,-0.8125,9.1875,4.25,0
53740,-4.5625,7.9375,6.8125,0
53760,-5.125,8.75,7.625,0
53780,-3.3125,8.6875,8.6875,0
53800,-6.6875,7.125,9.9375,0
53820,-8.875,6.3125,11.0625,0
53840,-10.0625,4.75,11.625,0
53860,-8.4375,4.875,11,0
53880,-7.0625,4.25,9.5625,0
53900,-8.3125,3.375,9.9375,0
53920,-9.25,4.75,10.5,0
53940,-8.4375,5.625,9.9375,0
53960,-10.9375,6.5625,9.75,0
53980,-11.4375,7.5,10.6875,0
54000,-10.6875,8.875,10.5625,0
54020,-12.375,10.9375,8.5625,0
54040,-11.75,15.1875,5.6875,0
54060,-8.125,16.3125,4.875,0
54080,-8.25,15.375,2.6875,0
54100,-11.5625,16.25,1.5,0
54120,-8.625,17.3125,1.5,0
54140,-10.3125,18.6875,-0.625,0
54160,-10.25,17.125,2.3125,0
54180,-11.8125,13.9375,4.125,0
54200,-7.3125,14.75,-1.4375,0
54220,-3.75,13.4375,-5.3125,0
54240,-9.875,12.1875,-1.875,0
54260,-9.5625,15.4375,0.6875,0
54280,-6.8125,18.9375,4.4375,0
54300,-5.9375,22,13.3125,0
54320,-16.4375,28.1875,17.875,0
54340,-16,30.5,15.5625,0
54360,-7.1875,32.25,18.3125,0
54380,-0.125,34.6875,28.6875,0
54400,-2.8125,31.8125,42.125,0
54420,-10.0625,27.5625,56.5625,0
54440,-9.75,23.25,64.75,0
54460,-5.6875,24.125,70,0
54480,10.4375,19.0625,77.125,0
54500,23.0625,13,72.625,0
54520,17.125,8.0625,63.3125,0
54540,18.3125,-6.25,62.5625,0
54560,26.625,-25.8125,64.3125,0
54580,30.5625,-31.5,57.375,0
54600,41.875,-36.5625,46.0625,0
54620,49.875,-43.1875,44.5625,0
54640,49.8125,-52.4375,48.5625,0
54660,48.25,-57.4375,44.625,0
54680,43.3125,-56.875,36.3125,0
54700,42.1875,-54.5625,31.8125,0
54720,43.3125,-53.375,30.1875,0
54740,41.25,-53.0625,29,0
54760,38.5625,-51.3125,27.8125,0
54780,34.6875,-50.125,27.4375,0
54800,34.25,-46,27.125,0
54820,31.125,-42.8125,25.1875,0
54840,25.375,-36.8125,22.875,0
54860,19.9375,-31.8125,21.875,0
54880,19,-26.5,26.3125,0
54900,14.3125,-24.5625,24.75,0
54920,12.5,-20.8125,20.6875,0
54940,9.625,-17.4375,19,0
54960,9.75,-14.6875,19.375,0
54980,11.5625,-12.0625,20.0625,0
55000,10.3125,-11.75,18.6875,0
55020,10.25,-12.3125,17.9375,0
55040,3.4375,-11.75,19.3125,0
55060,-0.5625,-10.5625,16.5625,0
55080,1.1875,-8.0625,12.6875,0
55100,1.5625,-7.4375,9.6875,0
55120,2.6875,-8.3125,11.5625,0
55140,3.875,-7.125,10.1875,0
55160,6.25,-3.75,6.5625,0
55180,4.6875,-4.25,4.125,0
55200,4.4375,-6.9375,4.8125,0
55220,2.125,-8.3125,5.5,0
55240,2.375,-6.375,5.125,0
55260,2.25,-4.5625,5.5625,0
55280,0.625,-5.25,5.625,0
55300,-1.75,-6.9375,6.6875,0
55310,-2.1875,-7.0625,6.625,0
55310,-2.625,-5.5625,6.0625,0
55330,0.1875,-5.8125,6.5625,0
55350,0.3125,-5.75,6.3125,0
55350,-0.875,-5.4375,4.8125,0
55370,-3.1875,-3.5625,6.125,0
55370,-3.25,-3.75,6.5625,0
55390,-1.6875,-3.5625,5.6875,0
55410,-0.8125,-3.375,4.75,0
55410,-2.4375,-2.375,4.875,0
55430,-2.3125,-2.75,5.25,0
55450,-0.5625,-2.5,5.3125,0
55470,-0.625,-1.375,3.6875,0
55470,-0.0625,-1.75,4,0
55490,-1.1875,-1.625,3.4375,0
55510,-2.75,-0.625,2.25,0
55530,-4.375,-0.75,3.25,0
55540,-3.3125,-1.3125,5.8125,0
55550,-2.8125,-0.625,6,0
55570,-2.5,0.375,5.5625,0
55590,-2.875,0.9375,6.125,0
55610,-3,-1.125,7.9375,0
55610,-2.125,-2.0625,7.5,0
55630,-1.1875,-2.125,6.625,0
55650,-1.5,-2.25,7.8125,0
55670,-1.8125,-1.375,7.75,0
55670,-2.375,-1.8125,7,0
55690,-2.6875,-3.625,6.3125,0
55710,-2.375,-3,7.25,0
55730,-2.0625,-1.25,8.875,0
55730,0.3125,-1.5,6.125,0
55750,1.5625,-0.1875,1.0625,0
55770,0.5625,-0.1875,2.1875,0
55790,0.4375,-0.3125,5.625,0
55790,2.25,1.1875,3.25,0
55810,-0.6875,1.0625,-0.6875,0
55830,1.0625,0.0625,-0.3125,0
55850,2.75,0.0625,-0.125,0
55870,6.5625,0.1875,0.6875,0
55870,5.0625,-0.8125,-2.125,0
55890,-1.9375,-1.8125,-5.125,0
55910,-3.4375,-3.75,-2.0625,0
55910,-2.9375,-2.1875,-4.25,0
55930,-3.5,-1.1875,-5.8125,0
55950,-2.375,-3.9375,-0.4375,0
55970,-1.75,-2.6875,-2,0
55980,-0.75,-1.75,-7.9375,0
55990,-0.625,-1.9375,-5.5,0
56010,2.9375,-1.375,-7.4375,0
56030,3.0625,-2,-9.1875,0
56050,6.6875,-3.6875,-7.75,0
56050,5.6875,-3.125,-10.9375,0
56070,4.125,-4.625,-13,0
56090,0.875,-6.4375,-11.6875,0
56110,1,-6.875,-7.3125,0
56130,2.9375,-6.5625,-8.1875,0
56130,2.6875,-4.6875,-10.625,0
56150,0.5,-5.25,-5.875,0
56170,-0.4375,-7.1875,-0.5,0
56180,-0.75,-6.6875,-2.75,0
56190,-1.9375,-7.125,-3.625,0
56210,-2.9375,-9.125,-1.6875,0
56230,-0.4375,-8.9375,0.3125,0
56250,0.375,-6.9375,-4.125,0
56250,0.3125,-7.25,-5.6875,0
56310,0.0625,-8.875,-4,0
56320,0.9375,-9.875,-4.25,0
56380,1.375,-9.125,-4.6875,0
56420,-0.8125,-8.5,-3.75,0
56470,-4.375,-8.875,-0.875,0
56500,-2.125,-8.9375,-3.6875,0
56590,1.4375,-6.25,0,0
56630,-3.25,-4.8125,-0.5,0
56650,-4.8125,-4.625,-0.3125,0
56670,-2.125,-5.0625,0.1875,0
56690,2,-3.875,0.9375,0
56710,3,-3.4375,0.375,0
56730,1.6875,-3.5,-2.0625,0
56750,-2.875,-5.1875,-1.5,0
56770,-3.4375,-5.125,1.6875,0
56790,-0.625,-4.5625,1.125,0
56810,2.25,-5,-3.125,0
56830,1.4375,-5.9375,-4.25,0
56850,-1.4375,-4.5,-2,0
56870,-1,-3.5,-1.125,0
56890,-0.125,-3.125,-3.375,0
56900,-2.25,-1.6875,-6.4375,0
56920,-3.3125,-0.875,-6.875,0
56940,-1.8125,-1.125,-4.4375,0
56960,1.3125,0.25,-5.125,0
56980,1.375,0.875,-8.3125,0
57000,-1.6875,0.1875,-6.875,0
57020,-1.1875,1.1875,-3.875,0
57040,-2.125,6.1875,-4.4375,0
57060,-0.25,9.3125,-5.1875,0
57080,2.25,9.375,-5.25,0
57100,2.8125,7.5,-3.5,0
57120,4.0625,7.4375,-2.4375,0
57140,1.4375,8.5625,-1.5625,0
57160,-0.8125,8.625,1.5,0
57180,-3.25,9.625,1.375,0
57200,-4.0625,10.75,2.6875,0
57220,0.125,9.375,4.125,0
57240,-1.9375,10.9375,4.125,0
57260,-6.375,14.25,5.1875,0
57280,-6.75,16,6.4375,0
57300,-4.5625,14.875,6.75,0
57320,1.8125,13.3125,7.0625,0
57340,1.0625,12.3125,10.75,0
57360,1.1875,10.625,10.9375,0
57400,-1.0625,11.1875,11.375,0
57420,-4.5,13.4375,12.1875,0
57440,-3.5625,12.125,13.9375,0
57460,0.5625,13.5625,13.8125,0
57480,0.625,16.75,11.9375,0
57480,3.625,18.1875,10,0
57500,4.3125,19.4375,6.3125,0
57520,3.875,19.6875,8.8125,0
57540,1.5625,12.3125,19.6875,0
57560,-2.8125,14.125,14.625,0
57580,0.5,7.4375,6.8125,0
57580,1.1875,10.0625,5.125,0
57600,8,11.875,2.625,0
57620,5.5,11.3125,-0.4375,0
57640,5.5625,11.625,-0.4375,0
57640,-0.125,9.75,3.9375,0
57660,-5.3125,7.6875,9.125,0
57680,-6.125,2.875,9.75,0
57700,-3.6875,0.875,0.625,0
57760,-5.9375,-0.625,-9.4375,0
57780,-1.3125,-1.875,0.5,0
57800,-3.6875,-1.3125,0.4375,0
57800,-8.875,-2.8125,0.0625,0
57820,-9,-2.125,-4.1875,0
57840,-8,-0.625,-2.9375,0
57840,-5.3125,-4.5,3.6875,0
57920,-5.875,-4.5625,1.5,0
57940,-3.8125,-6.75,2.1875,0
57940,-2.625,-8.6875,1.5,0
57960,-4.5625,-10.625,-3.5,0
57980,-2.3125,-8.875,-0.1875,0
58000,8.625,-14.6875,-1.875,0
58020,12.6875,-14.8125,0.875,0
58040,-3.4375,-4.125,-0.75,0
58060,-0.875,-13.8125,5.9375,0
58100,4.125,-11.1875,6,0
58120,11.125,-10.125,2.6875,0
58140,12,-9.125,-0.25,0
58160,-4.8125,-7.5625,0.125,0
58180,-5.375,-9.3125,1.4375,0
58200,-3.6875,-9.5,6.4375,0
58220,-3.5,-6.75,4.6875,0
58240,-4.625,-5.625,3.1875,0
58260,-5.8125,-8.8125,6,0
58280,-4.6875,-8.9375,8.4375,0
58300,-3.125,-4.875,5.3125,0
58320,-1.5,-3.25,3,0
58340,-1.5,-2.3125,5.3125,0
58360,-3.4375,-1.4375,5.3125,0
58380,-2.1875,1.0625,4.375,0
58380,-1.75,2.375,4.3125,0
58400,-6.25,2.0625,3.75,0
58400,-5.75,2.6875,3.5625,0
58420,-3.25,0.6875,3.6875,0
58420,-3.5,0.375,7.25,0
58440,-1.9375,0.25,3.6875,0
58460,-1.1875,-0.5,-0.5625,0
58460,2.875,-1.9375,1.6875,0
58480,2.125,-2.0625,-0.5625,0
58500,6.4375,-1.8125,-3.1875,0
58520,6.9375,-1.5625,-4,0
58520,4.375,-1.8125,-2.25,0
58540,1.25,-1.875,-1.25,0
58560,1.6875,-2.6875,-3.75,0
58580,3.3125,-4.125,-3.5,0
58600,1.8125,-2.5625,-2.75,0
58600,-1.1875,-2.375,-3.125,0
58620,-4.0625,-3.125,0.875,0
58640,-6.75,-4.0625,1.875,0
58650,-3.75,-4.25,0.375,0
58660,-2,-3.8125,0.9375,0
58680,-4.8125,-2.6875,0.25,0
58700,-6.625,-2.6875,1.5625,0
58720,-4.1875,-4.125,2.6875,0
58720,-3.375,-4.625,-0.375,0
58740,-0.3125,-4.875,-1.5,0
58760,-0.625,-3.9375,2.625,0
58780,-3.875,-5.25,3.5,0
58780,-5,-5,5.75,0
58790,-4.4375,-3.375,2.375,0
58810,0.4375,-1.3125,3.625,0
58830,3.3125,-0.4375,3.8125,0
58890,3.0625,0.1875,1.9375,0
58900,4.5625,0.5625,3,0
58920,5,-0.5,2,0
58940,0.5,-0.1875,-1.1875,0
58940,-0.875,-0.9375,-2.625,0
58960,1.5625,-2.375,-0.9375,0
58980,3.25,-3.25,0.8125,0
59000,2.1875,-3.625,-0.6875,0
59010,0.8125,-3.8125,-2.875,0
59020,-1.0625,-3.5625,-2.125,0
59060,-2.9375,-3.5,1.75,0
59120,-4.0625,-3.6875,0.75,0
59170,-4.5,-2.6875,-1,0
59190,-5.0625,-2.3125,-0.625,0
59210,-4,-2.625,-0.0625,0
59230,-3.625,-2.3125,-0.3125,0
59230,-6.625,-1.75,-1.625,0
59270,-6.5,-2.1875,-3.1875,0
59330,-4.6875,-2.125,-1.3125,0
59370,-4.875,-2.75,1.6875,0
59380,0.3125,-0.5,1.5,0
59410,-1.875,0.25,-2.9375,0
59420,-0.8125,-1.1875,-0.1875,0
59440,-1.125,-1.8125,2.3125,0
59460,1,-0.6875,-1.25,0
59460,1.0625,0,-2.4375,0
59480,1.25,-1.125,0.8125,0
59500,1.75,-1.5625,0.1875,0
59520,3.125,-0.9375,0.1875,0
59520,1.6875,-1.6875,2.4375,0
59540,-0.3125,-2.375,5.125,0
59560,0.5,-2.9375,2.9375,0
59580,2.125,-2.625,0.3125,0
59600,0.5625,-4,1.9375,0
59600,0.5,-4.4375,2.4375,0
59620,3.5,-3.8125,-0.8125,0
59640,4.3125,-3.0625,-3.125,0
59660,1.875,-4.125,-2.5,0
59660,-0.5,-6.1875,0.4375,0
59680,2.375,-6.4375,-1.3125,0
59700,4.6875,-5.3125,-5,0
59720,1.8125,-5.875,-6.125,0
59720,-1.125,-7.1875,-3,0
59740,-0.8125,-7.4375,-3.125,0
59760,-1,-7.125,-6.9375,0
59780,-0.5,-7.9375,-7.375,0
59780,-1.9375,-8.625,-4.625,0
59800,-3.0625,-7.875,-3.5625,0
59820,-2.6875,-8.5,-3.6875,0
59840,-1.5,-9.25,-4.25,0
59840,-1.875,-8.4375,-6.375,0
59860,-2.5625,-7.875,-6.75,0
59880,-1.3125,-7,-3.1875,0
59900,0.3125,-5.9375,-5.5625,0
59910,1.25,-5.6875,-8.5,0
59920,-2.6875,-5.5625,-6,0
59940,-2.1875,-5.125,-4.4375,0
59960,-1,-4.6875,-4.25,0
59980,0.1875,-5.125,-6.25,0
59980,-2.125,-4.3125,-5.9375,0
60000,-2.3125,-4,-4.3125,0
60020,-1,-4.875,-4.0625,0
60040,0.8125,-5.4375,-6.375,0
60060,-0.125,-4.6875,-7.125,0
60060,-1.75,-2.75,-5.0625,0
60080,-0.9375,-4.125,-5.4375,0
60100,-0.125,-4.125,-7.75,0
60110,-0.0625,-3.8125,-9.6875,0
60120,-1.0625,-3.5625,-5.75,0
60140,-2.3125,-5,-4.1875,0
60160,-2.5,-3.75,-5.8125,0
60180,-2,-2.375,-8.1875,0
60240,-2.0625,-1.6875,-8.3125,0
60300,-2.125,-4.4375,-3.5625,0
60390,0.3125,-0.5,-4.125,0
60460,-6,5.5625,-2.75,0
60480,-4.875,8.25,-1.5625,0
60500,-0.875,8.125,-4.625,0
60520,-4.25,7.9375,-4.75,0
60540,-8.125,8.0625,1.8125,0
60560,-8.8125,7.125,9.25,0
60580,-9.0625,8.875,15.0625,0
60600,-5.875,9.5,12.625,0
60620,-1.6875,11.8125,9.9375,0
60640,-6.0625,12.5625,12.875,0
60660,-2.6875,9.875,18.9375,0
60670,0.25,8.1875,21.625,0
60670,-0.6875,8.25,17.625,0
60690,-3.375,6.8125,14.9375,0
60720,1.75,-0.8125,17.125,0
60750,9.5625,-2.375,9.75,0
60770,-2,-0.5625,4.8125,0
60790,7.375,6.375,2.125,0
60810,8.0625,10.5,-1.3125,0
60830,4.75,7.3125,-2.1875,0
60830,-0.5,6.3125,-0.5625,0
60850,-1.8125,5.3125,1.8125,0
60850,-2.3125,1.25,2.4375,0
60870,1.3125,-0.0625,3.6875,0
60870,0.6875,-0.75,0.4375,0
60890,-1.5,-2.5,1.875,0
60890,-3.5,-3.625,2.8125,0
60910,-4.0625,-2.9375,2.6875,0
60920,-1.4375,-1.6875,4,0
60930,1,-1.625,3.8125,0
60950,2.75,-2.4375,4.3125,0
60950,2,-3.5625,4.875,0
60970,0.625,-3.5,4.6875,0
60970,-0.125,-4.25,5.25,0
60990,0.625,-4.1875,5.375,0
60990,0.125,-3.875,2.0625,0
61010,-2,-1.5625,0.1875,0
61010,-2.9375,-0.5,1,0
61030,2.5625,0.5,4.5,0
61060,0.6875,3.25,4.4375,0
61090,1.6875,-8.9375,0.0625,0
61110,-3.4375,4.1875,-3,0
61130,2.4375,-7.25,1.1875,0
61150,5.9375,-0.5625,-1.6875,0
61170,7.8125,1.875,-5.875,0
61190,7.3125,3,-6.75,0
61210,3.125,3.125,-7.5,0
61230,2.4375,1,-6.75,0
61250,7.3125,-0.75,-8.5625,0
61270,3.5,-12.75,-5.5,0
61290,-2.75,2.6875,-7.125,0
61310,0.0625,-9.75,-4.3125,0
61310,-4.75,4.0625,-6.8125,0
61330,-1.125,-3.0625,-9.1875,0
61350,-2.375,-4.5,-7.625,0
61350,0.25,2.25,-9.75,0
61370,-1.8125,1.625,-9.9375,0
61370,-3.625,2.3125,-7.75,0
61390,-4.875,2.0625,-5.625,0
61410,-5.125,1.1875,-4.375,0
61410,-6.1875,1.5625,-3.0625,0
61430,-6.125,0.8125,-1.5,0
61450,-6.3125,-0.625,-0.6875,0
61450,-7.25,-1.3125,0.375,0
61470,-4.9375,-1.125,0.5,0
61490,-2.125,-1.125,-0.3125,0
61510,-1.1875,-1.9375,0.75,0
61520,-1.6875,-2.5,1.9375,0
61530,-1.25,-2.875,3.9375,0
61550,0.5625,-3,3.5625,0
61570,2.375,-2.6875,3.25,0
61570,2.625,-2,3.4375,0
61580,0.375,-2.375,3.8125,0
61600,0.8125,-2,3.3125,0
61620,2.875,-1.125,2.25,0
61640,2.1875,-0.125,1.4375,0
61640,2.375,0.1875,2.9375,0
61660,2.1875,0.8125,2.75,0
61680,1.6875,1.3125,1.5,0
61680,0.4375,1.125,1.5,0
61700,-1,1.3125,0.75,0
61720,0.3125,0,1.25,0
61750,0.875,8.5625,0,0
61780,-0.375,11.3125,-0.625,0
61800,-5.5,-6.1875,2.9375,0
61820,4.125,0.6875,-0.375,0
61840,3.5625,3.6875,-6.5,0
61860,1.625,4.375,-7.625,0
61880,-0.8125,4.6875,-10,0
61900,-0.25,2.25,-8.5,0
61920,3.25,-0.8125,-5.8125,0
61950,1.3125,-4.125,-2.4375,0
61960,-6.5625,-3.5,1.3125,0
61980,0.5625,0.125,0.0625,0
62000,0.5625,-4.25,-0.3125,0
62020,2.9375,-5.375,4.5625,0
62040,8.375,2.625,0.25,0
62060,-1,5.625,-4.9375,0
62080,-7.1875,-0.375,1.375,0
62100,-6.5625,-4.6875,8.375,0
62140,-2.1875,-5.3125,8,0
62160,0.4375,-4.5,5.875,0
62180,-1.375,-5,6.8125,0
62200,-3.1875,-3.875,7.875,0
62220,-3,1.375,4.8125,0
62240,7.125,1.4375,-0.25,0
62260,3.25,-4.1875,2,0
62280,2.1875,0.1875,1.0625,0
62300,-0.625,-3.625,4.0625,0
62320,-1.3125,4.375,-0.5,0
62320,0.25,6.625,0,0
62340,0.5625,-3.9375,-1.0625,0
62360,2.125,-3.75,0.3125,0
62380,0.625,-3.625,-1.0625,0
62390,1.1875,-2.375,-2.0625,0
62400,2.5,-1.8125,-3.1875,0
62420,3,-1.5,-3.25,0
62440,1.875,-3.0625,0.125,0
62460,0.9375,-2.5625,-0.3125,0
62460,-1.0625,-2.4375,-1.8125,0
62480,-2.875,-3.5,0.0625,0
62500,-0.3125,-4.1875,1.125,0
62520,1.8125,-4.625,0.75,0
62520,-0.0625,-4.5625,-1,0
62540,-2.125,-5.1875,-1.625,0
62560,-3.3125,-5.25,-0.375,0
62580,-0.8125,-5.1875,-1.5625,0
62580,2.5625,-4.5625,-5.1875,0
62600,2.75,-4.5,-6.3125,0
62620,2.375,-5.75,-5,0
62640,0.8125,-5.375,-4,0
62640,0.625,-5.4375,-5.375,0
62660,1.125,-6.5625,-6.1875,0
62680,-0.25,-6.9375,-4.875,0
62700,0.25,-7.6875,-3.375,0
62710,0.25,-6.4375,-2.875,0
62720,-1.25,-4.875,-4.4375,0
62740,-1.1875,-4.1875,-5.125,0
62760,-0.3125,-5.5625,-4.25,0
62780,2.0625,-6.5,-3.5,0
62780,2.8125,-4.6875,-4.5625,0
62800,1.875,-4.25,-3.9375,0
62820,-0.5625,-3.875,-1.6875,0
62840,-1,-3.5625,-1.6875,0
62840,-1.25,-1.875,0.0625,0
62860,1.0625,-1.5625,0.375,0
62880,-0.1875,-1.25,0.1875,0
62900,0.5625,-1.3125,1.875,0
62900,2.1875,-0.6875,0.1875,0
62920,2.75,0,-2.5625,0
62940,1.1875,1.375,-1.3125,0
62960,0.9375,0.5625,-1.3125,0
62960,1.0625,1.125,-2.3125,0
62980,1.4375,0.5,-2.875,0
63000,0.9375,0.875,-1.8125,0
63020,-1.1875,0.125,-1.6875,0
63020,-1.75,-0.25,-1.875,0
63040,-1,-0.5,-2.0625,0
63060,-1.1875,-0.875,-2.0625,0
63070,-2.25,-1.0625,-1.75,0
63080,-3,-0.375,-0.5625,0
63100,-0.8125,-0.75,-1.75,0
63120,-0.875,-1,-3.875,0
63140,-1.75,-0.6875,-4.6875,0
63140,-1.3125,-0.4375,-3.5,0
63180,1.6875,0.375,-4,0
63210,-0.25,0.4375,-6.5,0
63250,-0.375,-1,-5.5625,0
63300,-0.375,-0.8125,-4.1875,0
63350,1.625,-0.1875,-3.9375,0
63490,-2.25,0.9375,1.1875,0
63570,-0.875,3.25,3.1875,0
63600,-1.6875,3.25,7.0625,0
63650,0.4375,4.25,5.8125,0
63680,3.125,3.9375,8.25,0
63700,2.375,3.875,13.1875,0
63720,-2.625,6.1875,9.625,0
63740,-5.1875,5.5625,6,0
63740,1.8125,3.6875,9.4375,0
63760,2.4375,5.375,9.375,0
63780,0.75,8.9375,5.25,0
63800,0.8125,8.875,8.125,0
63820,-2.1875,0.75,8.25,0
63840,-1.5,15.125,6.125,0
63870,-3.75,6.3125,6.9375,0
63900,6.125,6.5625,7.125,0
63920,11.9375,8.1875,2.8125,0
63920,11.875,8,5.6875,0
63960,3.625,17.0625,1.625,0
63980,3.8125,3.0625,-0.6875,0
64000,0.3125,2.375,1.3125,0
64020,1,-0.1875,1.125,0
64040,1.75,-1.6875,1.5625,0
64060,0.8125,-2.5,3,0
64080,-2.0625,-2.3125,3.4375,0
64100,-0.75,-1.1875,4.25,0
64120,2.3125,1,7.125,0
64140,0.1875,1.625,8.9375,0
64160,-4,-0.625,8.875,0
64180,-2.875,-1.875,8,0
64200,1.8125,-1.625,6.3125,0
64220,4.4375,0.4375,6.5,0
64240,0.875,1.4375,9.375,2000
64260,-5.1875,-0.875,11.5,0
64280,-10.5,-2.3125,11.9375,0
64280,-5.25,-2.375,9.75,0
64300,1.375,-1.5625,7.75,0
64320,4.625,-0.25,7.0625,0
64340,1.25,-8.3125,6.1875,0
64360,-3.6875,-11.6875,8.75,0
64380,-11.5,-6,8.6875,0
64420,3.5625,-5.9375,6.125,0
64430,8.9375,-0.1875,2,0
64450,9.375,1.875,-2.0625,0
64470,4.75,2.3125,-5.75,0
64490,1.1875,0.4375,-7,0
64510,3.4375,-2.625,-4.0625,0
64530,6.25,-8,1.625,0
64550,-0.375,-8.0625,5.875,0
64550,-7.625,-6.4375,1.5625,0
64570,-2.4375,-8,-1.5,0
64570,1.3125,-3.3125,-0.4375,0
64590,2.5,-1.4375,-2.5,0
64590,2.6875,-0.8125,-5,0
64610,0,0,-5.625,0
64610,0.5,-1.5625,-0.5625,0
64630,2.0625,-1.125,2.6875,0
64630,2.8125,-0.75,0.25,0
64650,1.5,-0.1875,-1.5,0
64660,-0.8125,-2.625,0.5625,0
64670,0.5625,-2.9375,1.1875,0
64690,3.1875,-3.625,-0.5625,0
64690,1.25,-2.75,-0.125,0
64710,2.6875,-2.8125,-4.6875,0
64710,0.1875,-0.5,-5,0
64730,2.875,-1.5625,-4.875,0
64730,1.125,-2.25,-6.0625,0
64750,1.1875,-2,-4.6875,0
64750,-1.5625,-2.375,-1.6875,0
64770,-1.8125,-3.0625,-0.25,0
64770,-1.625,-2.25,-1.8125,0
64790,-2.5,-1.375,-2.0625,0
64790,-1.375,-1.3125,-1.5625,0
64810,-1.9375,-1.1875,0.625,0
64830,-1,-0.625,1.3125,0
64830,0.3125,-0.1875,0.5,0
64830,0.3125,-0.1875,0.5,0
64840,0.1875,-0.5,-5,0
64870,1.1875,-2,-4.6875,0
64870,-1.5625,-2.375,-1.6875,0
64890,-1.8125,-3.0625,-0.25,0
64890,-1.625,-2.25,-1.8125,0
64910,-2.5,-1.375,-2.0625,0
64910,-1.375,-1.3125,-1.5625,0
64930,-1.9375,-1.1875,0.625,0
64950,-1,-0.625,1.3125,0
64950,0.3125,-0.1875,0.5,0
64960,-1.75,-2.5,0.125,0
64980,-2.4375,-2.8125,1.125,0
64980,-1.875,-3.0625,2.8125,0
65000,0,-3,3.875,0
65000,-6.3125,-0.125,-0.125,0
65020,-4.25,-1.5625,1.1875,0
65020,-0.5625,-2.6875,3,0
65040,0.875,-1.1875,0.875,0
65040,1.75,-0.375,0.125,0
65060,1.4375,-0.25,0.8125,0
65080,1.6875,0.75,-1.3125,0
65080,5.0625,1.625,-2.5,0
65090,4,1.3125,-3.75,0
65100,-0.0625,0.25,-0.8125,0
65120,-2.5625,0.375,1.125,0
65120,-3,0.9375,-0.125,0
65140,-1.5,-0.4375,-0.1875,0
65140,-0.0625,-1.0625,-1.5,0
65160,1.875,-0.4375,-2.6875,0
65160,1.5625,-0.375,-0.8125,0
65180,0.1875,-0.8125,-0.0625,0
65180,-0.5625,-0.875,-0.8125,0
65200,1.375,-0.8125,-1.6875,0
65200,1.8125,-0.5625,-0.1875,0
65220,3.3125,-1,0,0
65220,8.0625,-1.8125,-2.5,0
65240,13.375,-0.8125,-7.0625,0
65250,7.625,-1.375,-1.625,0
65300,9.375,-7.125,10.125,0
65350,2.4375,-4.6875,0.3125,0
65390,2.625,-0.3125,-8.6875,0
65450,3.1875,1.5,-9.25,0
65490,2.6875,3.75,-13,0
65510,3.5,2.9375,-10.4375,0
65510,3.0625,1.25,-7.125,0
65530,2.5,2,-5.125,0
65550,-0.75,1.3125,-4,0
65570,-3.1875,1.5,-2.6875,0
65570,-3,0.5625,-2.0625,0
65590,-2.9375,0.3125,-1.375,0
65610,-2.625,0.5625,-0.5625,0
65630,-2.0625,1.125,-0.375,0
65630,-0.625,1.9375,0.125,0
65650,-1.1875,2.125,0.3125,0
65670,-3.6875,0.75,1.5625,0
65690,-3.5625,0.25,1.875,0
65700,-2.875,1.3125,1.0625,0
65710,-0.375,1.8125,0.875,0
65730,-0.9375,1.0625,0.5,0
65750,-3.125,-0.125,1.6875,0
65770,0.3125,0.6875,1.3125,0
65790,1.4375,0.9375,1.125,0
65810,0.625,1.0625,2.0625,0
65830,-1.375,0.875,3.0625,0
65830,-1.125,0.3125,2.625,0
65850,-1.0625,0.3125,1.0625,0
65870,-0.375,0.6875,1.0625,0
65890,1.0625,0.25,2.625,0
65950,1.4375,-0.75,1.75,0
66000,-0.5625,-0.9375,2.8125,0
66020,-2.5,-0.4375,3.375,0
66040,-2.1875,-0.75,2.9375,0
66040,-0.3125,-0.5625,2,0
66060,-0.6875,-0.875,1.3125,0
66060,-0.5,-0.9375,1.125,0
66080,-0.5625,-1.375,0.1875,0
66080,-1.125,-1.3125,-1.125,0
66100,0,-1.0625,-1.75,0
66100,1.0625,-1.3125,-2.5,0
66120,0.8125,-1.9375,-2.875,0
66120,-0.5,-2.3125,-2.375,0
66140,-0.3125,-2.125,-0.8125,0
66140,-0.25,-2.1875,0.125,0
66160,0,-2.625,-0.1875,0
66160,-0.9375,-3.125,0.4375,0
66180,-2,-2.3125,1.9375,0
66200,-1.5625,-2.0625,2.375,0
66200,0,-2.0625,2.875,0
66220,-0.75,-2.5,3.375,0
66220,-0.5625,-2.3125,3.625,0
66240,0,-2.0625,2.75,0
66240,-1,-1.5,3.8125,0
66260,0.3125,-1.125,4.6875,0
66260,1.875,-0.75,2.4375,0
66280,3.4375,-0.9375,1.1875,0
66280,2.6875,-2,1.125,0
66300,3.3125,-3.0625,0.125,0
66300,0.75,-4.625,0.6875,0
66320,0.0625,-3.875,2.0625,0
66320,-2.125,-2.0625,1.75,0
66340,-3.25,-2.875,1.6875,0
66360,-3.25,-4.375,2.75,0
66360,-2.9375,-3.375,1.875,0
66380,-0.75,-1.125,-1.5625,0
66380,-0.3125,-1.0625,-3.1875,0
66400,-0.1875,-1.0625,-1.8125,0
66400,-0.375,1.1875,-3.4375,0
66420,0.3125,2,-4.3125,0
66420,1.6875,1.5,-2.5,0
66440,0.1875,2,-0.5,0
66440,1.625,0.6875,0.0625,0
66460,2.125,0.125,0.5625,0
66460,-5.9375,-0.9375,0,0
66480,-6,-1.9375,3.8125,0
66490,-2.5,-3.625,2.9375,0
66500,-0.5,-2.625,0.0625,0
66520,3.6875,-2.375,-0.875,0
66520,5.0625,-4.375,2.5625,0
66540,4.4375,-4.4375,2.0625,0
66540,1.4375,-1.4375,0.25,0
66560,1.125,-3.5625,2.6875,0
66560,-0.8125,-4.125,5.0625,0
66580,-3.6875,-2.1875,2.6875,0
66580,5.875,-0.8125,-0.375,0
66600,2,-1.6875,2.125,0
66600,-1.3125,-2.125,2.8125,0
66620,-1.8125,-1.3125,0.5625,0
66640,-1.6875,-1.1875,0.4375,0
66640,-3,-0.875,1.875,0
66650,-2.5,-1.0625,-0.3125,0
66660,-4.0625,-0.875,-3.0625,0
66680,-3.25,-1.375,-0.5625,0
66680,0,-2.8125,3.4375,0
66700,0,-1.125,0.1875,0
66720,0.25,-1.5625,-1.875,0
66740,-5.1875,3.9375,2,0
66760,-5.0625,-4.625,2.6875,0
66780,4.75,6.8125,-2.375,0
66800,-7.875,-1.9375,0.75,0
66840,-3,-6.5,8.625,0
66860,-0.125,-5.4375,6.3125,0
66860,0.75,-5.25,1.9375,0
66880,7.1875,-4.3125,1.375,0
66900,-5.125,-9.875,0.9375,0
66920,7.875,2.25,-4.875,0
66940,-9.25,-0.1875,-6,0
66960,-7,-7.125,2.5625,0
67000,0.5625,-5.875,1.625,0
67020,5.4375,-2.9375,-3,0
67040,6.3125,-1.625,-5.5,0
67080,6,-1.3125,-6.75,0
67140,7.125,-1.75,-7.0625,0
67200,1.625,5.4375,-4.1875,0
67250,-2.25,-2.9375,-0.875,0
67300,-0.9375,-2.8125,-1.75,0
67350,-0.4375,-3.3125,-1.75,0
67410,-0.9375,-4.125,-0.4375,0
67460,-2.375,-5.25,0.9375,0
67510,0.0625,-5.25,0.625,0
67570,0.875,-4.0625,-2.625,0
67610,-1.0625,-6,-2.375,0
67630,-3.4375,-6.1875,1.4375,0
67670,-0.4375,-5.375,-0.4375,0
67690,-1.5625,-5.125,-2.0625,0
67710,-1.875,-6.1875,-1.125,0
67730,-2.125,-6.1875,-1.3125,0
67750,-1.6875,-6.1875,-2.9375,0
67770,-1.75,-6.625,-2.9375,0
67790,-2.4375,-5.875,-3.625,0
67810,-2.1875,-5.25,-5.1875,0
67830,-3.4375,-5.625,-5.6875,0
67850,-3.75,-5.3125,-5.375,0
67870,-2.3125,-4.6875,-7.125,0
67890,-1.375,-4.5,-9.4375,0
67910,-1.6875,-6,-8.25,0
67930,-2.5,-6.4375,-7.9375,0
67950,-2.5625,-6.875,-8.25,0
67970,-3.75,-5.4375,-8.875,0
67990,-6.0625,-4.875,-10,0
68010,-6,-6,-8.4375,0
68030,-6.0625,-6.3125,-6.5,0
68050,-3.1875,-6.25,-7.1875,0
68070,-2.125,-5.3125,-8.875,0
68090,-3.75,-3.4375,-6.875,0
68110,-3.75,-4.4375,-6.3125,0
68130,-3.75,-3.5625,-7.875,0
68150,-4.6875,-2.6875,-8.5,0
68170,-3.0625,-2.625,-8.4375,0
68190,-4.25,-1.375,-8.1875,0
68210,-3.75,-0.9375,-8.375,0
68230,-3.75,-0.6875,-8.0625,0
68250,-5,-1.0625,-8.0625,0
68270,-6.375,-0.6875,-7.5625,0
68290,-4.75,0.8125,-5.375,0
68310,-3.75,2.1875,-6,0
68330,-5.5,3,-7.75,0
68350,-6.3125,3.875,-6.5625,0
68370,-6.5,3.625,-5.6875,0
68390,-5.25,3.5625,-7.25,0
68410,-4.5625,2.8125,-7.3125,0
68430,-5.125,2.375,-7.1875,0
68450,-4.9375,0.5,-7.9375,0
68450,-4.625,-1.5625,-7.8125,0
68470,-4.1875,-0.9375,-10.625,0
68490,-6.1875,-1.625,-10.9375,0
68510,-6,-2.0625,-9.0625,0
68530,-5.5,-0.125,-10.8125,0
68550,-5.6875,-0.125,-12.5,0
68570,-6.9375,-0.3125,-9.9375,0
68590,-6.0625,0.625,-9.5625,0
68610,-7.8125,2.25,-11.0625,0
68630,-9.875,2,-10.3125,0
68650,-11.375,2.75,-10,0
68670,-11.8125,3.75,-9.1875,0
68690,-11.5625,4.5625,-8.5625,0
68710,-11.6875,5.4375,-9,0
68730,-10.8125,4.9375,-8.0625,0
68750,-9.5625,5.1875,-6.75,0
68770,-10.5,7.3125,-6.9375,0
68790,-11.5,8.5,-7.0625,0
68810,-11.3125,8.375,-5.3125,0
68830,-10.6875,9.9375,-5.5,0
68850,-12.0625,10.9375,-4.125,0
68870,-13.8125,12.25,-3.8125,0
68890,-14.1875,12.625,-1.875,0
68910,-12.375,13.9375,-1.9375,0
68930,-15.0625,14.5,-1.375,0
68950,-15.1875,15.75,-2.25,0
68970,-16.5,16.75,-3.3125,0
68980,-16.0625,18.25,-4.1875,0
69000,-15,17.375,-4,0
69020,-11.25,15.25,-4.875,0
69040,-11.4375,14.9375,-5.75,0
69060,-13.25,16,-7.25,0
69080,-15.125,15,-6.4375,0
69100,-13.75,13.4375,-4.6875,0
69120,-12.25,12.4375,-4.75,0
69140,-13.0625,13.625,-5.625,0
69160,-14.8125,14.5,-8.875,0
69180,-15.625,12.8125,-7.5,0
69200,-12.8125,13,-6.6875,0
69220,-12.1875,16.125,-7.9375,0
69240,-14.375,15.8125,-7.9375,0
69260,-13.75,14.0625,-6.25,0
69280,-11.875,14.875,-5.8125,0
69300,-11.8125,15.8125,-5,0
69320,-13.8125,15.5,-3.3125,0
69340,-14.5625,15.875,-3.6875,0
69360,-13.8125,15.9375,-3.1875,0
69380,-13.75,16,-2.3125,0
69400,-11.875,16.875,-2.5,0
69420,-13,17.1875,-4.3125,0
69440,-13.0625,17.6875,-5.125,0
69460,-11.3125,17.1875,-6.8125,0
69480,-11.6875,16.875,-7.3125,0
69500,-11.0625,17.0625,-8.5,0
69520,-11.25,16.75,-9,0
69540,-11.3125,16.5,-8.6875,0
69560,-11.375,17.4375,-9.875,0
69580,-11.625,16.8125,-8.3125,0
69600,-11.6875,17.25,-8.3125,0
69620,-10,16.5625,-8.9375,0
69640,-10.9375,15.8125,-7.4375,0
69660,-12.0625,16.1875,-7.0625,0
69680,-11.125,16.4375,-5.75,0
69700,-10.6875,16.5625,-5,0
69720,-10.125,16.8125,-5,0
69740,-10.1875,15.5,-3.3125,0
69760,-9.4375,15.625,-3.375,0
69780,-8.9375,16.4375,-4.6875,0
69800,-8.875,14.8125,-4.0625,0
69820,-8.625,13.5625,-4.1875,0
69840,-9,12.625,-4,0
69860,-10.125,12,-4.8125,0
69880,-10,12.875,-2.8125,0
69900,-8.125,14.875,-2.75,0
69920,-7.5625,14.6875,-4.4375,0
69940,-7.1875,13.1875,-3.25,0
69960,-5.875,12.8125,-3.625,0
69980,-7.6875,12.5,-2.0625,0
70000,-8.1875,13.8125,-2.4375,0
70020,-6.9375,14.5,-3.5625,0
70040,-6.375,13.9375,-2.6875,0
70060,-6.5,13.625,-2.5625,0
70080,-5.5,13.9375,-2.3125,0
70100,-5.375,14.25,-2.875,0
70120,-5.8125,14.5,-3.625,0
70140,-5.875,13.9375,-3.5,0
70160,-4.75,13.375,-1.5,0
70180,-2.4375,14.3125,-3.5,0
70200,-4.4375,13.6875,-4,0
70220,-4,13.3125,-2.625,0
70240,-3.9375,13.75,-2.9375,0
70260,-2.5625,13.625,-3.0625,0
70280,-4.1875,13.4375,-2.375,0
70300,-4.875,13.4375,-1.75,0
70320,-3.8125,12.5625,-0.75,0
70340,-2.625,13.375,-2.125,0
70350,-5.75,13.0625,0.25,0
70360,-6.0625,11.6875,1.5,0
70380,-5.375,11.4375,0.625,0
70400,-5.1875,12.1875,0.125,0
70420,-6.125,12.9375,-0.1875,0
70440,-6.1875,12.5,0.3125,0
70460,-6.125,12.1875,0.4375,0
70480,-5.0625,12.8125,-1.0625,0
70500,-5.0625,13.375,-1.875,0
70520,-5.8125,13,-1.375,0
70540,-6.375,13.4375,-0.8125,0
70560,-4.3125,14.375,-1.5625,0
70580,-5.375,14.125,-3.1875,0
70600,-6.3125,13.375,-2.125,0
70620,-5.8125,13.25,0.125,0
70640,-3,13.375,-0.875,0
70660,-3.125,12.125,-1.6875,0
70680,-4.875,11.125,-0.1875,0
70700,-5.25,10.125,1.5625,0
70720,-3.3125,9.6875,0.375,0
70740,-2.8125,9.75,-1.125,0
70760,-4.0625,10.625,-1.1875,0
70780,-3.9375,10.25,0.125,0
70800,-2,10.8125,-0.125,0
70820,-2.625,11.625,-1.25,0
70840,-2.0625,11.125,-1.8125,0
70860,-1.875,10.3125,-2,0
70880,-1.8125,9.6875,-2.6875,0
70900,-2.0625,8.8125,-2.5,0
70920,-1.3125,9.875,-2.5,0
70940,-0.6875,8.875,-3.125,0
70960,-2,8.8125,-3.25,0
70980,-4.125,8.5625,-2.75,0
71000,-4.1875,8.5,-0.9375,0
71020,-2.8125,8.3125,-2.5,0
71040,-2.3125,8.125,-3.5625,0
71060,-3.75,8.25,-3.0625,0
71080,-3.625,7.125,-0.625,0
71100,-3.625,5.75,-0.3125,0
71120,-2.5,6.75,-1.1875,0
71140,-2.5,7.1875,-2.5,0
71160,-3.4375,7.9375,-1.875,0
71180,-2.5625,6.5,-0.625,0
71200,0.3125,6.0625,-0.0625,0
71220,0.125,5.875,-1.5,0
71240,-0.75,6.8125,0.0625,0
71260,-4,9.0625,5.125,0
71280,-0.875,7.8125,6.5625,0
71300,-0.1875,7.125,5.4375,0
71320,-0.3125,5.5,6.0625,0
71340,-1.5625,5.4375,7.0625,0
71360,-1.375,4.375,5.3125,0
71380,-1.4375,3.6875,3.6875,0
71400,-0.8125,2.875,2.625,0
71420,1,3.125,1.5,0
71440,1.25,3.25,0.8125,0
71460,1.375,2.125,0.375,0
71480,1.375,1.0625,-0.0625,0
71500,1.25,0.6875,-0.1875,0
71520,0.1875,0.625,-1.25,0
71540,-0.8125,-0.4375,0.3125,0
71550,-3.5,-2,1.375,0
71570,-4.375,-1.125,1.875,0
71590,-4.5625,-1.5,3.5625,0
71610,-5.125,-1.9375,5.5,0
71630,-4.3125,-3.125,5.25,0
71650,-4.8125,-4.1875,4.0625,0
71670,-5.8125,-4.125,2.625,0
71690,-6.4375,-4.875,0.9375,0
71710,-3.8125,-5,0.375,0
71730,-1.375,-4.5,-0.875,0
71750,-0.9375,-4.0625,-2.5,0
71770,-3,-4,-2.0625,0
71790,-3.4375,-4.0625,-1.5625,0
71810,-4,-4.1875,-1,0
71830,-4,-4.625,0.0625,0
71850,-4.1875,-4.4375,0.5,0
71870,-3.5625,-4.0625,1.0625,0
71890,-3,-3.3125,2.6875,0
71900,-2.875,-2.6875,3.125,0
71920,-1.5625,-2.125,3.375,0
71940,0.125,-2.8125,2.5625,0
71960,-0.3125,-2.9375,2.8125,0
71980,0.4375,-2.9375,3.0625,0
72000,-0.1875,-3.25,3.5625,0
72020,0.1875,-2.9375,4.3125,0
72040,1.1875,-3.5625,4.625,0
72060,1.375,-4.5,4.4375,0
72080,1,-5.3125,3.9375,0
72100,0.4375,-6.125,4.3125,0
72120,-0.6875,-5.6875,4.4375,0
72140,0.625,-5.9375,4.9375,0
72160,0.3125,-7.4375,5.5625,0
72180,-6.75,-11.4375,7.3125,0
72200,-7.125,-12.75,10.1875,0
72220,-7.625,-11,11.1875,0
72240,-5.0625,-9.8125,10,0
72260,-2.125,-10,6,0
72280,0.8125,-9,2.5625,0
72300,4.875,-6.875,0.5625,0
72320,3.625,-6.5625,-0.8125,0
72340,1.25,-6.625,-0.125,0
72360,2.5,-7,1.4375,0
72380,4.25,-7.5625,2.125,0
72400,2.875,-7.4375,1.75,0
72420,-0.3125,-8.375,3.25,0
72440,-1.5,-9.25,4.9375,0
72460,-1.625,-9.375,3.6875,0
72480,-0.25,-10,3.125,0
72500,1.0625,-9.8125,3.5,0
72520,1.375,-10.125,3.6875,0
72540,1.5625,-10.0625,3.625,0
72560,0.875,-9.1875,2.6875,0
72580,1.5625,-7.625,1.9375,0
72600,1.5625,-6.6875,2.125,0
72620,4.375,-6.8125,2.3125,0
72640,5.375,-6.875,0.875,0
72660,4.4375,-6.4375,0.3125,0
72680,2.4375,-6.3125,2,0
72700,2.375,-6.5,2.1875,0
72720,2.5625,-6.375,1.625,0
72740,3.4375,-7.0625,2.4375,0
72760,5.5625,-8.875,1.5625,0
72780,5.1875,-9.125,0.375,0
72800,3,-9.1875,1.75,0
72820,1.6875,-10.25,1.9375,0
72840,3.25,-10.1875,1.625,0
72860,3.25,-10.3125,1.0625,0
72880,4.3125,-10.3125,2.3125,0
72900,3.25,-10.1875,2.3125,0
72920,3.375,-11,1.875,0
72940,3.9375,-11.75,1.4375,0
72960,3.125,-12,2.6875,0
72980,2.8125,-11.8125,2.75,0
73000,2.6875,-11.5625,2.8125,0
73020,3.5,-11.8125,2.8125,0
73040,5.25,-12,2.1875,0
73060,4.75,-11.9375,2.0625,0
73080,4.1875,-12.5,1.9375,0
73100,3.5625,-11.9375,1.25,0
73120,2.5625,-11.1875,1.75,0
73140,0.8125,-11,2.1875,0
73160,2,-10.3125,2.625,0
73180,2.75,-9.875,3.0625,0
73200,3.4375,-9.875,3.5,0
73220,1.25,-9.5625,4.4375,0
73240,-0.3125,-9.1875,5.0625,0
73260,0.5625,-9.25,4,0
73280,1.8125,-9.5,4.1875,0
73300,1.0625,-10,4.9375,0
73320,0.0625,-10,5.1875,0
73340,-0.5,-9.125,4,0
73360,2.4375,-9.8125,2.875,0
73380,5.375,-10.875,2.5,0
73400,4.375,-11.5,2.5,0
73420,3.4375,-11.625,2.25,0
73440,2.5,-11.9375,1.0625,0
73460,3.3125,-11.75,1.8125,0
73480,4.625,-12.25,2.875,0
73500,4.1875,-12.8125,2.6875,0
73520,3.125,-12.1875,4.25,0
73540,2.0625,-12.0625,3.25,0
73560,2.125,-11.9375,3.8125,0
73580,1.8125,-12.875,4.9375,0
73600,2.0625,-12.4375,4.4375,0
73620,2.0625,-11.75,3.75,0
73640,3.375,-11.25,2.8125,0
73660,4.25,-11.1875,1.375,0
73680,5.75,-10.9375,1.1875,0
73700,6.3125,-10.625,0.625,0
73720,5.5625,-10.4375,0.5,0
73740,4.5625,-10.5625,0.9375,0
73760,5.5,-9.875,0.3125,0
73780,5.4375,-10.125,-0.125,0
73800,6.3125,-9.25,-0.125,0
73820,5.125,-8.8125,-0.3125,0
73840,5,-8.625,-0.875,0
73860,5.1875,-8.8125,-1.125,0
73880,4.5,-8.9375,-0.5,0
73900,5.25,-8.9375,-0.375,0
73920,6.6875,-9.1875,0.25,0
73940,4.125,-9.5625,1.25,0
73960,2.875,-10.375,2.625,0
73980,2.3125,-11.125,2.8125,0
74000,3,-11.125,2.375,0
74020,3,-11.625,1.875,0
74040,3.5,-12.1875,2.75,0
74060,2.5,-12.5625,3.5,0
74080,2.8125,-12.5,3.4375,0
74100,4.375,-12.625,3.5625,0
74120,5.0625,-13,2.875,0
74140,5.4375,-13,2.9375,0
74160,6.625,-13.3125,3.3125,0
74170,4.875,-13,2.75,0
74190,3.75,-13.75,3.125,0
74210,4.625,-13.875,3.6875,0
74230,4.1875,-12.25,2.125,0
74250,3.875,-11.8125,0.375,0
74270,3.875,-12.3125,1.25,0
74290,4.75,-11.5625,-0.3125,0
74310,5.6875,-10.25,-1.375,0
74330,3.1875,-10.8125,-1.25,0
74350,3.0625,-11.875,0.3125,0
74370,0.875,-12.875,0.5625,0
74390,1.6875,-11.9375,1.3125,0
74410,0.3125,-11.625,0.25,0
74430,2.9375,-11.8125,0.125,0
74450,4.625,-12.625,1,0
74470,4.5625,-12.8125,0.5,0
74490,1.625,-13.75,0.75,0
74510,1.125,-14.25,2.6875,0
74530,1.375,-14.25,2.5,0
74550,2.1875,-15.1875,2.5,0
74570,2.625,-14.875,2.5625,0
74590,1.75,-13.4375,2.1875,0
74610,0.1875,-14.0625,1.6875,0
74630,1.25,-15,2.125,0
74650,3.3125,-14.5,2.625,0
74670,2.5625,-14.1875,1.5625,0
74690,1.625,-15.25,1.875,0
74710,-0.3125,-15.5,1.6875,0
74730,1.0625,-13.5625,0.9375,0
74750,2.625,-12.8125,0.1875,0
74770,1.8125,-13.4375,-0.125,0
74790,2.0625,-13.0625,-0.3125,0
74810,3.1875,-11.375,0.0625,0
74830,0.75,-12.0625,-0.0625,0
74850,0.8125,-13,0.9375,0
74870,0.6875,-13,1.0625,0
74890,0.5625,-12.3125,0.0625,0
74910,0.0625,-11.625,0.25,0
74930,-0.8125,-12.125,0.25,0
74950,1.1875,-12.75,0.5625,0
74970,1.8125,-12.6875,0.9375,0
74990,1.9375,-12.0625,-0.0625,0
75010,0.5,-12.25,0.625,0
75030,0.4375,-12.8125,0.25,0
75050,1.375,-13.1875,0.0625,0
75070,0.8125,-14.6875,0.8125,0
75090,0.125,-16.3125,1.25,0
75110,-1,-16.5625,0.4375,0
75130,-0.9375,-17.25,1.0625,0
75150,0.625,-18.1875,1.375,0
75170,2.875,-17.625,0.0625,0
75190,1.8125,-16.75,-2,0
75210,3.5,-16.625,-1.5625,0
75230,5.6875,-17.0625,0.0625,0
75250,5.875,-16.9375,-2.125,0
75270,4.5,-16.6875,-2.75,0
75290,1.1875,-17.625,-1.5625,0
75310,0.9375,-17.6875,0.6875,0
75330,-0.0625,-15.5,-0.3125,0
75350,-0.375,-14.875,-1.375,0
75370,1.1875,-14.6875,-1.75,0
75390,0.1875,-14.125,-1.375,0
75410,1.25,-14,-1.4375,0
75430,0.8125,-14.1875,-3.1875,0
75450,1,-13.25,-3.125,0
75470,0.1875,-14,-1.9375,0
75490,1.125,-13.3125,-2.0625,0
75510,-0.5625,-11.9375,-3.5625,0
75530,-0.6875,-11.5625,-2.5,0
75550,-0.4375,-12.0625,-1.6875,0
75570,-0.3125,-11.6875,-2.375,0
75590,1.0625,-10.125,-1.125,0
75610,1.5625,-7.4375,-1.3125,0
75630,2,-6,-3.375,0
75650,-2.625,-6.5625,-3.3125,0
75670,-3,-6,-0.75,0
75690,-0.625,-5.6875,-0.25,0
75710,-0.5625,-5.1875,-3.375,0
75730,-1.8125,-6.3125,-5.1875,0
75750,-0.8125,-6.4375,-4,0
75770,0.375,-5.5,-4.125,0
75790,3.5,-5.8125,-5.125,0
75810,2,-6.3125,-5.125,0
75830,2.3125,-6.0625,-5.5,0
75850,3.625,-6.375,-5.75,0
75870,2.5,-7.5625,-5.8125,0
75890,1.375,-7.5,-5.75,0
75910,1.5,-7,-5.625,0
75930,2.5625,-7.9375,-5.875,0
75950,2.6875,-8.8125,-6.1875,0
75970,1.125,-7.9375,-5.3125,0
75990,4.625,-6.75,-3.75,0
76010,1.8125,-6.9375,-5.5625,0
76030,0.9375,-7,-6.1875,0
76050,-1.625,-6.4375,-5.25,0
76070,-0.0625,-6.625,-4.125,0
76090,1.9375,-6,-5.6875,0
76110,0.625,-5.75,-7.75,0
76130,-1.125,-5.25,-7.625,0
76150,2.625,-4.5,-5.75,0
76170,3.25,-4.5625,-6.75,0
76190,1.8125,-4.375,-6.875,0
76210,-0.9375,-3.5625,-7.0625,0
76230,-1.25,-3.5625,-6.1875,0
76250,-0.8125,-3.75,-6.125,0
76270,1.125,-3.5625,-6,0
76290,1.5,-3.3125,-5.8125,0
76310,2.0625,-1.4375,-5.375,0
76330,0.875,-0.8125,-6.1875,0
76350,-1,-1.5625,-5.25,0
76370,-1.75,-2.875,-3.5625,0
76390,0.6875,-2.6875,-4.1875,0
76410,2.8125,-2.875,-6.0625,0
76430,2,-3.0625,-7.125,0
76450,1.875,-2.5625,-8.1875,0
76470,1.75,-1.375,-8,0
76490,1.875,-1.75,-7.375,0
76510,0.5625,-2.3125,-8.5625,0
76530,0.375,-1.5625,-6.875,0
76550,1,-1.5625,-5.75,0
76570,2.9375,-2,-7,0
76590,1.625,-1.5625,-7.75,0
76610,-1.0625,-0.0625,-6.25,0
76630,-0.4375,-1.5,-5.3125,0
76650,1.6875,-1.75,-6.6875,0
76670,2.375,-1.125,-8.9375,0
76690,0.625,0,-7.875,0
76710,0.4375,-1.3125,-7.5,0
76730,0.4375,-1.3125,-8.125,0
76750,0.75,0.1875,-8.1875,0
76770,0.6875,-0.0625,-7.0625,0
76790,-0.625,-0.875,-6.25,0
76800,-2,0.6875,-6.375,0
76820,-3.3125,1.0625,-5.625,0
76840,-2.75,1.375,-4.6875,0
76860,-0.125,1.5625,-7.1875,0
76880,-0.25,0.75,-8.125,0
76900,-1.8125,0.5625,-6.625,0
76920,-1.375,1.1875,-6,0
76940,-0.8125,2.75,-8.5,0
76960,-4.0625,3.125,-9.0625,0
76980,-4.6875,2.9375,-6.875,0
77000,-3.5,2.75,-4.4375,0
77020,-1.5625,4.1875,-3.625,0
77040,-1.3125,7.6875,-2.875,0
77060,-2.875,8.6875,-2.3125,0
77080,-6.875,7.1875,-0.5,0
77100,-7.375,5.5,0.5,0
77120,-3.25,7.4375,0.3125,0
77140,-3.25,8.3125,-1.6875,0
77160,-4.5625,8.875,-1.5625,0
77180,-6.5,9.75,-2.6875,0
77200,-6.9375,10.5625,-4.1875,0
77220,-4.1875,10.875,-5.4375,0
77240,-5.4375,11.1875,-7.4375,0
77260,-6.9375,11.5,-6.1875,0
77280,-8.875,11.5,-5.0625,0
77300,-8.5625,10.9375,-5.1875,0
77320,-9.1875,10.5,-5.6875,0
77340,-8.125,11.5,-5.25,0
77360,-8.6875,11.75,-4.5,0
77380,-10.0625,10.5,-4.5625,0
77400,-11.25,10.3125,-4.4375,0
77420,-10,11.5625,-5.125,0
77440,-7.4375,12.5,-4.9375,0
77460,-8.3125,12.125,-4.8125,0
77480,-8.3125,11.0625,-4.8125,0
77500,-6.9375,10.1875,-4.5625,0
77520,-6.6875,10.375,-3.75,0
77540,-6.4375,11.125,-4.625,0
77560,-7.6875,10.75,-4.8125,0
77580,-6.9375,10.0625,-4.8125,0
77600,-5.8125,9.1875,-5.0625,0
77620,-5.5625,8.875,-5.125,0
77640,-7.375,9.5625,-5.9375,0
77660,-6.9375,9.0625,-5.6875,0
77680,-5.25,8.0625,-4.3125,0
77700,-4.0625,10,-4.75,0
77720,-4.8125,11.8125,-6.6875,0
77740,-6.9375,11.625,-5.9375,0
77760,-8.125,11.5,-5.125,0
77780,-7.875,11.6875,-4.75,0
77800,-6,11.3125,-4.4375,0
77820,-6.25,12.375,-4.625,0
77840,-8.625,13.1875,-3.3125,0
77860,-8.375,12.8125,-2.6875,0
77880,-8.4375,13.0625,-3.5,0
77900,-6.8125,12.9375,-3.25,0
77920,-5.25,12.4375,-3.1875,0
77940,-6.6875,12,-3,0
77960,-7.0625,10.6875,-2.4375,0
77980,-7,11.4375,-3.4375,0
78000,-6.75,11.6875,-4.4375,0
78020,-6.625,10.8125,-4.4375,0
78040,-6.8125,12,-5.4375,0
78060,-7.6875,11.8125,-4.75,0
78080,-7,9.8125,-3.4375,0
78100,-5.625,8.6875,-6.1875,0
78120,-7,8.75,-9.1875,0
78140,-8.6875,9.3125,-8.4375,0
78160,-9.75,10.3125,-8,0
78180,-9.3125,10.625,-8.875,0
78200,-9.0625,10.1875,-8.6875,0
78220,-7.4375,10.75,-9.8125,0
78240,-9.0625,11.5,-10.9375,0
78260,-10.75,12.125,-10.3125,0
78280,-12.25,11.6875,-9.1875,0
78300,-10.375,11.875,-7.6875,0
78320,-9.1875,12.8125,-7.875,0
78340,-10.25,13.625,-8.125,0
78360,-12.9375,13,-5.5625,0
78380,-11.625,12.9375,-4.375,0
78400,-10.1875,13.875,-5.4375,0
78420,-8.0625,14.5625,-5.625,0
78440,-9.75,14.8125,-4.1875,0
78460,-12.0625,14.375,-3.5625,0
78480,-10.3125,14.9375,-2.75,0
78500,-8.5625,14.6875,-2.25,0
78520,-9.3125,13.6875,-1.625,0
78540,-8.75,13.375,-1.6875,0
78560,-7.9375,13.1875,-2.25,0
78580,-9.0625,12.4375,-2.5,0
78600,-9.0625,12.375,-2.5625,0
78620,-5.75,12.0625,-3.5625,0
78640,-3.3125,11.9375,-5.0625,0
78660,-6,11.9375,-5.0625,0
78680,-7.0625,12.4375,-6.25,0
78700,-5.4375,12.75,-6.6875,0
78720,-2.0625,11.9375,-6.9375,0
78740,-4.5,11.9375,-6.3125,0
78760,-7.5,14.25,-5.25,0
78780,-7.25,14.0625,-3.9375,0
78800,-5.25,12.375,-3.3125,0
78820,-4.25,12.875,-4.125,0
78840,-3.9375,13.25,-4.25,0
78860,-4.875,12.75,-2.75,0
78880,-7.25,11.75,-3.0625,0
78900,-7.9375,11.625,-3.9375,0
78920,-6.4375,11,-3.75,0
78940,-3.75,10.8125,-3.625,0
78960,-5.25,11.25,-4.75,0
78980,-7.3125,11.6875,-5,0
79000,-7,11.75,-5.5625,0
79020,-5.375,11.625,-6.1875,0
79040,-3.25,12.8125,-7,0
79060,-6,13.1875,-7.25,0
79080,-8.0625,13.5625,-6.25,0
79100,-8.375,14.0625,-5.125,0
79120,-6.375,14.3125,-5.625,0
79140,-7,14.5,-6,0
79160,-5.5625,15.25,-5.75,0
79180,-5,16.125,-4.25,0
79200,-5.75,16.875,-4.1875,0
79220,-5.1875,16,-4.625,0
79240,-4.6875,15.875,-3.6875,0
79260,-3.9375,15.625,-3.125,0
79280,-5.3125,16.1875,-1.5,0
79300,-5.625,15,-2.0625,0
79320,-5.4375,13.8125,-1.9375,0
79340,-5.5625,13.25,-1.5,0
79360,-4.75,13.125,-1.8125,0
79380,-3.625,13.625,-1.625,0
79400,-4.125,13.1875,-0.9375,0
79410,-3.5,13.5625,-1.0625,0
79430,-2.5625,13.375,-0.5625,0
79450,-2.25,12.375,-0.75,0
79470,-2.4375,12.25,-0.875,0
79490,-3.625,12.5,-0.1875,0
79510,-2.75,12.8125,1.75,0
79530,-1,10.8125,1.1875,0
79550,-1.3125,10.75,0.6875,0
79570,-3.125,12.8125,2.4375,0
79590,-2.875,13.75,4.6875,0
79610,-1.9375,13.25,5.1875,0
79630,0.0625,13.125,4.5625,0
79650,-0.6875,14.125,5.1875,0
79670,-1.8125,14.6875,6.5,0
79690,-1.9375,12.875,7,0
79710,-2.6875,13.0625,7.5625,0
79730,-1.9375,13.3125,7.625,0
79750,-1.6875,14.3125,7.8125,0
79770,-1.875,12.3125,7.375,0
79790,-2.1875,10.4375,6.9375,0
79810,-1.375,9.75,6.8125,0
79830,-0.8125,10.5625,5.875,0
79850,-2.0625,9.875,5.25,0
79870,-0.9375,9.25,6.75,0
79890,-1.25,7.625,7.25,0
79910,-1.875,7.5625,7.625,0
79930,-1.9375,6.375,9.375,0
79950,-0.9375,4,9.5625,0
79970,-1.875,2.75,9,0
79990,-2.6875,2.625,8.375,0
80010,-1.6875,1.5,8.5625,0
80030,-0.4375,0.5,7.75,0
80050,-0.8125,0.5,6.8125,0
80070,0.8125,0.6875,8.6875,0
80090,1.75,-0.25,9,0
80110,1,-1.5,8.4375,0
80130,0,-2.375,9,0
80150,-1.5,-1.8125,10.25,0
80170,-2.375,-0.9375,10.875,0
80190,-1,-0.6875,11,0
80210,0,-1.3125,10.1875,0
80230,1.375,-1.1875,9.125,0
80250,0.5625,0.125,10.1875,0
80270,-0.1875,-0.4375,10.625,0
80290,-0.1875,-0.9375,10.5,0
80310,0.125,-1.3125,9.875,0
80330,1.5625,-2.125,9.75,0
80350,1.3125,-2.3125,9.5625,0
80370,0.1875,-2.8125,9.25,0
80390,0.25,-3.0625,10.0625,0
80410,1.9375,-4.4375,7.6875,0
80430,3.4375,-4.0625,5.75,0
80450,4.0625,-4.3125,5.9375,0
80470,2.375,-4.75,6.125,0
80490,2.3125,-4.375,6.25,0
80510,3.125,-4.125,7.125,0
80530,3.0625,-4.5625,7.6875,0
80550,2.6875,-5.25,8.25,0
80570,0,-4.625,7.5625,0
80590,0.125,-4.1875,7.6875,0
80610,0.75,-4,8.0625,0
80630,1.9375,-2.5,7.8125,0
80650,2.5625,-2.8125,7.25,0
80670,1.5625,-3.5625,6,0
80690,1.9375,-3.0625,5.5,0
80710,2.125,-3.3125,5.875,0
80730,0.6875,-4.0625,6.3125,0
80750,1.5625,-4.4375,6.25,0
80770,3.0625,-3.875,6.125,0
80790,2.375,-4.625,6.375,0
80810,1.25,-6.5,7.0625,0
80830,-0.875,-7.6875,6.5,0
80850,-0.75,-7.375,6.4375,0
80870,-1.3125,-7.375,6.3125,0
80890,-1.125,-7.9375,6.4375,0
80910,0.6875,-8.5625,5.75,0
80930,0.8125,-9,5.75,0
80950,0,-9.3125,5.875,0
80970,-0.375,-9.9375,6,0
80990,0.375,-10.75,5.1875,0
81010,1.5625,-11.375,4.75,0
81030,0.4375,-10.9375,6.0625,0
81050,-0.75,-10.4375,5.8125,0
81070,-1.1875,-10,5.875,0
81090,-0.8125,-9.875,5.875,0
81110,0.3125,-9.0625,5.875,0
81130,0,-8.0625,6.0625,0
81150,-0.25,-7.75,6.1875,0
81170,0.1875,-8.125,6,0
81190,-0.125,-8.625,5.75,0
81210,0.4375,-9.125,6.3125,0
81230,-0.875,-9.125,6.25,0
81250,-1.75,-9.75,6.25,0
81270,-0.4375,-9.6875,7.4375,0
81290,2.1875,-10.1875,8.1875,0
81310,4.75,-11.5,8.0625,0
81330,5.625,-13,7.125,0
81350,3.5625,-14.5625,6.3125,0
81370,3.1875,-15.375,5.875,0
81390,3,-13.9375,5.9375,0
81410,2.25,-12.4375,7.625,0
81430,1.3125,-11.375,8,0
81450,2.1875,-10.75,7.9375,0
81470,4.9375,-8.9375,8.6875,0
81490,5.625,-8.3125,7.75,0
81510,5.375,-8.5625,6.75,0
81530,4.375,-8.125,5.5625,0
81550,4.4375,-7.6875,5.3125,0
81570,4.875,-6.75,6.5625,0
81590,4.625,-5.375,6.375,0
81610,6.75,-4.9375,5.0625,0
81630,7.375,-4.4375,4,0
81650,7.375,-3.9375,4.375,0
81670,6.3125,-4.25,4.3125,0
81690,4,-4.1875,4.3125,0
81710,3.25,-4.375,3.875,0
81730,2.9375,-5.9375,4.625,0
81750,2,-6.75,4.375,0
81770,1.5625,-6.5625,2.125,0
81790,2.875,-5.375,1.5625,0
81810,3.75,-5.1875,1.75,0
81830,3.875,-6.625,0.625,0
81850,3.5,-7.875,-0.8125,0
81870,2,-8.4375,-1.5625,0
81890,1.125,-9.125,1.25,0
81910,1.5625,-9.375,2.375,0
81930,0.4375,-10.9375,2.25,0
81950,0.125,-12.25,2.8125,0
81970,0.375,-12,3.25,0
81990,0.6875,-13.4375,2.9375,0
82010,0.6875,-14.9375,3.6875,0
82030,1.1875,-15.125,3.3125,0
82040,4,-14.5625,4,0
82060,6.1875,-14.5625,4.5625,0
82080,5.6875,-15.125,4.9375,0
82100,5.6875,-15.0625,4.9375,0
82120,6.25,-14.9375,3.8125,0
82140,5.875,-15.25,4.3125,0
82160,4.5,-14.75,4,0
82180,4.875,-14.375,3.3125,0
82200,6.125,-14.125,2.25,0
82220,5.5,-14.5625,1.9375,0
82240,3.5625,-14.0625,1.25,0
82260,1.8125,-14.5625,1.9375,0
82280,2.75,-15.125,1.5,0
82300,4.1875,-15.875,1.6875,0
82320,3.0625,-16.5,1.9375,0
82340,-0.5625,-16.4375,1.75,0
82360,-1.75,-15.5625,2,0
82380,-0.75,-15.625,2.8125,0
82400,1.5,-15.8125,2.25,0
82420,1.75,-15.375,3.25,0
82440,0.5625,-15.0625,2.6875,0
82460,-0.1875,-15.3125,1.75,0
82480,1.375,-15,1.625,0
82500,2.6875,-14.25,1.5,0
82520,2.125,-14.0625,2.4375,0
82540,1.0625,-13.75,2.5,0
82560,0.75,-13.5625,2.0625,0
82580,1.8125,-13.75,1.6875,0
82600,2.1875,-13.625,2.8125,0
82620,1.5,-13.3125,1.875,0
82640,2,-13.625,1,0
82660,3.0625,-13.75,1.375,0
82680,3.1875,-13.375,0.9375,0
82700,2.375,-13.875,1.5,0
82720,1.1875,-14.4375,1.25,0
82740,0.625,-14.375,0.5,0
82760,0.9375,-14.5,0.5,0
82780,1.0625,-14.8125,0.625,0
82800,2.5625,-14.4375,0.3125,0
82820,2.75,-15.4375,-1.0625,0
82840,2.125,-16.3125,-1.6875,0
82860,1.0625,-16.375,-0.9375,0
82880,-0.0625,-15.1875,-0.125,0
82900,0.125,-15.0625,-1,0
82920,-0.6875,-15.5625,-0.3125,0
82940,-0.375,-14.125,-0.5,0
82960,1.125,-14.5625,-1,0
82980,2.6875,-14.5,-0.1875,0
83000,1,-14.5,-1.375,0
83020,-0.8125,-15.0625,-2.125,0
83040,-0.5625,-15.4375,-2.25,0
83060,1.625,-14.6875,-3.25,0
83080,2.875,-14.8125,-3,0
83100,2.625,-15.0625,-2.0625,0
83120,2.4375,-14.125,-3.25,0
83140,2.125,-14.3125,-3.5625,0
83160,1.8125,-14.3125,-3.75,0
83180,1.375,-14.0625,-4,0
83200,1.5,-13.875,-4.9375,0
83220,1.125,-14.8125,-5.625,0
83240,1.5625,-14.6875,-6.125,0
83260,1.625,-14.125,-6.9375,0
83280,1.5,-14.5625,-7.0625,0
83300,2.5625,-14.6875,-7.375,0
83320,2,-14.3125,-8.625,0
83340,1.5,-14.1875,-8.75,0
83360,2.0625,-14.125,-7.25,0
83380,2,-13.9375,-8.6875,0
83400,2.625,-14.5,-9.625,0
83420,3.5625,-14.375,-9.3125,0
83440,1.6875,-14.4375,-9,0
83460,-0.5625,-14.9375,-8.1875,0
83480,0.375,-15.5625,-8.25,0
83500,0.875,-15.5,-9.4375,0
83520,0.9375,-15.5,-8.1875,0
83540,0.8125,-15.8125,-6.6875,0
83560,0.75,-15.9375,-7.1875,0
83580,1.875,-15.25,-8.4375,0
83600,3.1875,-13.25,-8.875,0
