Timestamp, Angle x, Angle y, Angle z, Marker
40,-1.40416,0.757782,0.12935,0
60,-1.38863,0.756139,0.143343,0
80,-1.36986,0.743707,0.138331,0
100,-1.34299,0.730289,0.121045,0
120,-1.30739,0.721566,0.108311,0
140,-1.26194,0.719913,0.107311,0
150,-1.22538,0.726873,0.112776,0
150,-1.21216,0.731335,0.115704,0
190,-1.21951,0.73624,0.115309,0
210,-1.2353,0.742496,0.115983,0
230,-1.25063,0.749227,0.117779,0
250,-1.2606,0.754322,0.117708,0
270,-1.26232,0.757009,0.115137,0
290,-1.25631,0.758022,0.110397,0
310,-1.24556,0.759628,0.104865,0
330,-1.23342,0.762468,0.100479,0
350,-1.2233,0.766189,0.0983317,0
370,-1.21885,0.770228,0.097578,0
390,-1.22056,0.773267,0.0970518,0
410,-1.22567,0.775663,0.0967091,0
430,-1.22987,0.777397,0.0967351,0
450,-1.23078,0.778621,0.0968993,0
470,-1.22863,0.779961,0.0968867,0
490,-1.22582,0.782257,0.0967229,0
510,-1.22432,0.784855,0.0963694,0
530,-1.22503,0.787764,0.0963199,0
550,-1.22784,0.79039,0.0966669,0
570,-1.23232,0.793505,0.0968806,0
590,-1.23716,0.796696,0.0974652,0
610,-1.24173,0.799854,0.0985291,0
630,-1.24577,0.802336,0.0991307,0
650,-1.249,0.804953,0.098962,0
670,-1.251,0.807668,0.0990622,0
690,-1.25181,0.810058,0.0990667,0
710,-1.25219,0.81227,0.0983711,0
730,-1.25182,0.81443,0.0977499,0
750,-1.25175,0.816428,0.0971994,0
770,-1.25237,0.818459,0.0970152,0
790,-1.25368,0.82025,0.0970528,0
810,-1.25522,0.82155,0.0969675,0
830,-1.25676,0.823019,0.0966636,0
850,-1.25782,0.824659,0.0963872,0
870,-1.25903,0.826509,0.0958809,0
890,-1.26033,0.828425,0.0956374,0
910,-1.26169,0.830129,0.0955153,0
930,-1.2637,0.831776,0.0949882,0
950,-1.26625,0.833601,0.0942072,0
970,-1.26839,0.835283,0.0934369,0
990,-1.27024,0.837007,0.092638,0
1010,-1.27035,0.837262,0.0924971,0
1030,-1.27131,0.839167,0.0919347,0
1050,-1.27167,0.839371,0.091597,0
1070,-1.2718,0.839681,0.0915052,0
1090,-1.27214,0.839987,0.091308,0
1110,-1.27228,0.840298,0.0912159,0
1130,-1.27225,0.84141,0.0911902,0
1150,-1.27257,0.842987,0.0911577,0
1170,-1.27284,0.844321,0.0914854,0
1190,-1.27362,0.845611,0.0917267,0
1210,-1.27472,0.846759,0.091845,0
1230,-1.27648,0.84811,0.0918836,0
1250,-1.27812,0.849442,0.0917414,0
1270,-1.27938,0.850579,0.0915279,0
1290,-1.27953,0.850892,0.0914331,0
1310,-1.27964,0.851148,0.0912867,0
1330,-1.27971,0.8524,0.0911619,0
1350,-1.28017,0.853624,0.0910161,0
1370,-1.28115,0.854635,0.090998,0
1390,-1.28236,0.855533,0.0911411,0
1410,-1.2842,0.856683,0.0912921,0
1430,-1.28676,0.858289,0.0912474,0
1450,-1.28935,0.859627,0.0912749,0
1470,-1.29203,0.860876,0.0911176,0
1490,-1.29434,0.861824,0.0903319,0
1510,-1.29604,0.863014,0.0892887,0
1530,-1.29763,0.86424,0.0876968,0
1550,-1.29896,0.865288,0.0862176,0
1570,-1.30011,0.86613,0.0845612,0
1590,-1.30084,0.866984,0.0827068,0
1610,-1.30082,0.867826,0.0814249,0
1630,-1.29992,0.868465,0.0807608,0
1650,-1.29889,0.86868,0.0804772,0
1670,-1.29804,0.868705,0.0805075,0
1690,-1.29724,0.868909,0.08095,0
1710,-1.29662,0.869154,0.0813701,0
1730,-1.29581,0.869524,0.0822622,0
1750,-1.2949,0.870034,0.0831719,0
1770,-1.29417,0.870647,0.0836943,0
1790,-1.29412,0.871698,0.0842136,0
1810,-1.29482,0.872929,0.084604,0
1830,-1.29687,0.874246,0.0848402,0
1850,-1.2989,0.875002,0.085015,0
1870,-1.30042,0.875636,0.08484,0
1890,-1.30011,0.875906,0.0844886,0
1910,-1.29803,0.876206,0.0844136,0
1930,-1.29474,0.876116,0.0844481,0
1950,-1.29062,0.875675,0.0844516,0
1970,-1.28622,0.875285,0.0844418,0
1990,-1.28156,0.875059,0.0852002,0
2010,-1.27698,0.874735,0.0864493,0
2030,-1.27334,0.874276,0.088152,0
2050,-1.27118,0.874036,0.0898202,0
2070,-1.27012,0.873536,0.0914657,0
2090,-1.26954,0.872972,0.0932095,0
2110,-1.26842,0.872622,0.0950895,0
2120,-1.26662,0.872516,0.0967635,0
2140,-1.26455,0.87251,0.0984787,0
2160,-1.2623,0.872309,0.0995957,0
2180,-1.26018,0.872435,0.100203,0
2200,-1.25797,0.872694,0.10125,0
2220,-1.25522,0.872664,0.102416,0
2240,-1.25216,0.872392,0.10342,0
2260,-1.24861,0.872281,0.104891,0
2280,-1.24549,0.871758,0.106254,0
2300,-1.24255,0.871036,0.107913,0
2320,-1.23926,0.870049,0.110078,0
2340,-1.23713,0.869707,0.112505,0
2360,-1.2381,0.870088,0.116335,0
2380,-1.24264,0.870997,0.121666,0
2400,-1.24993,0.871319,0.126678,0
2420,-1.25817,0.871008,0.1307,0
2440,-1.26394,0.871002,0.134419,0
2460,-1.26719,0.871877,0.138224,0
2480,-1.26936,0.872786,0.141758,0
2500,-1.272,0.873377,0.144823,0
2520,-1.275,0.873444,0.147194,0
2540,-1.27772,0.873207,0.148008,0
2560,-1.27866,0.873188,0.148559,0
2580,-1.27949,0.873991,0.149169,0
2600,-1.28108,0.87494,0.149771,0
2620,-1.28385,0.875641,0.149832,0
2640,-1.28691,0.876189,0.149534,0
2660,-1.28928,0.876671,0.149095,0
2680,-1.29137,0.877636,0.149003,0
2700,-1.29382,0.878318,0.148985,0
2720,-1.29694,0.879129,0.149198,0
2740,-1.30093,0.880067,0.149097,0
2760,-1.30489,0.881068,0.149083,0
2780,-1.30931,0.882085,0.148833,0
2800,-1.31368,0.883388,0.148968,0
2820,-1.31797,0.884571,0.14919,0
2840,-1.32238,0.885901,0.149313,0
2860,-1.32687,0.887079,0.14919,0
2880,-1.33086,0.888014,0.14924,0
2900,-1.33453,0.888858,0.149126,0
2920,-1.33811,0.889726,0.148882,0
2940,-1.34164,0.890446,0.148269,0
2960,-1.34457,0.891231,0.14785,0
2980,-1.34615,0.891739,0.147403,0
3000,-1.34639,0.89163,0.147135,0
3020,-1.34612,0.892393,0.147187,0
3040,-1.34578,0.892591,0.147197,0
3060,-1.34613,0.892786,0.147044,0
3080,-1.34711,0.892815,0.147159,0
3100,-1.348,0.892997,0.147731,0
3120,-1.34924,0.893205,0.147938,0
3140,-1.35012,0.893422,0.148137,0
3160,-1.3512,0.894127,0.147787,0
3180,-1.35194,0.895317,0.147806,0
3200,-1.35353,0.896847,0.14736,0
3220,-1.35554,0.898447,0.146758,0
3240,-1.35739,0.900045,0.146246,0
3260,-1.35872,0.901299,0.145391,0
3280,-1.35952,0.903083,0.144425,0
3300,-1.36092,0.905553,0.143555,0
3320,-1.36367,0.907808,0.142708,0
3340,-1.36748,0.909563,0.141485,0
3350,-1.37223,0.911299,0.139518,0
3370,-1.37567,0.912785,0.137748,0
3390,-1.37829,0.914411,0.135984,0
3410,-1.38092,0.916184,0.133981,0
3430,-1.38323,0.918127,0.132348,0
3450,-1.38647,0.920046,0.129967,0
3470,-1.38918,0.921486,0.127095,0
3490,-1.3915,0.923281,0.123832,0
3510,-1.39403,0.92538,0.120813,0
3530,-1.39773,0.927773,0.117903,0
3550,-1.40298,0.929757,0.11488,0
3570,-1.40853,0.931663,0.112003,0
3590,-1.41371,0.933178,0.109285,0
3610,-1.41746,0.934963,0.106633,0
3630,-1.41994,0.937241,0.104846,0
3650,-1.42206,0.939504,0.103436,0
3670,-1.42451,0.941241,0.102045,0
3690,-1.42688,0.942762,0.10106,0
3710,-1.42881,0.94387,0.10065,0
3730,-1.42989,0.944206,0.100236,0
3750,-1.42959,0.943841,0.09978,0
3770,-1.42771,0.943235,0.0993095,0
3790,-1.42494,0.942298,0.0981326,0
3810,-1.42178,0.941586,0.0968031,0
3830,-1.41815,0.939907,0.0956294,0
3850,-1.41495,0.938884,0.094561,0
3870,-1.41113,0.93783,0.0943982,0
3890,-1.40692,0.936126,0.0945014,0
3910,-1.4027,0.933791,0.0944746,0
3930,-1.39864,0.932459,0.0942952,0
3950,-1.39373,0.93109,0.0951375,0
3970,-1.38974,0.929114,0.0957928,0
3990,-1.38746,0.927246,0.0960473,0
4010,-1.3858,0.926546,0.0967358,0
4030,-1.38384,0.925382,0.0976557,0
4050,-1.38105,0.923779,0.0989106,0
4070,-1.37751,0.921874,0.0995825,0
4090,-1.37314,0.92066,0.100269,0
4110,-1.36853,0.919352,0.10139,0
4130,-1.36441,0.91762,0.102767,0
4150,-1.36048,0.915704,0.10402,0
4170,-1.3562,0.91375,0.105195,0
4190,-1.35195,0.912731,0.106657,0
4210,-1.34866,0.911753,0.108493,0
4230,-1.34599,0.910385,0.110566,0
4250,-1.34392,0.909057,0.112573,0
4270,-1.34187,0.907615,0.114422,0
4290,-1.33955,0.906496,0.116399,0
4310,-1.33626,0.905524,0.118659,0
4330,-1.33258,0.904209,0.120704,0
4350,-1.32905,0.903136,0.12233,0
4370,-1.32546,0.901701,0.123744,0
4390,-1.32189,0.90027,0.125148,0
4410,-1.31883,0.898789,0.126212,0
4430,-1.3161,0.897448,0.127053,0
4450,-1.31408,0.896522,0.127823,0
4470,-1.31271,0.89571,0.128381,0
4490,-1.31146,0.894715,0.129284,0
4510,-1.31036,0.893804,0.129999,0
4530,-1.30886,0.892908,0.130735,0
4550,-1.3082,0.892397,0.131074,0
4570,-1.30781,0.892136,0.131812,0
4590,-1.30807,0.891479,0.132327,0
4610,-1.30785,0.890922,0.132798,0
4630,-1.30736,0.890574,0.133258,0
4650,-1.30663,0.890495,0.133766,0
4670,-1.30604,0.890171,0.134098,0
4690,-1.30545,0.889847,0.134431,0
4700,-1.30419,0.889192,0.135126,0
4720,-1.30321,0.888814,0.135602,0
4740,-1.30262,0.888491,0.135933,0
4760,-1.30205,0.887897,0.136332,0
4780,-1.30203,0.887372,0.136523,0
4800,-1.30157,0.886914,0.136828,0
4820,-1.30103,0.886777,0.137155,0
4840,-1.30083,0.886269,0.137252,0
4860,-1.3008,0.885576,0.137233,0
4880,-1.30112,0.884968,0.136914,0
4900,-1.30104,0.884138,0.136529,0
4920,-1.30045,0.88346,0.13619,0
4940,-1.29947,0.883016,0.135714,0
4960,-1.29874,0.882632,0.135179,0
4980,-1.29824,0.882091,0.134748,0
5000,-1.29846,0.881855,0.134542,0
5020,-1.29869,0.881747,0.134277,0
5040,-1.29965,0.881438,0.134219,0
5060,-1.30093,0.881105,0.134172,0
5080,-1.30231,0.881532,0.134627,0
5100,-1.30373,0.88182,0.135091,0
5120,-1.30506,0.882303,0.135635,0
5140,-1.30596,0.882856,0.136292,0
5160,-1.30738,0.883587,0.136893,0
5180,-1.30861,0.88417,0.13719,0
5200,-1.30971,0.884649,0.137422,0
5220,-1.31107,0.885078,0.137447,0
5240,-1.31232,0.885361,0.137136,0
5260,-1.31371,0.885727,0.136641,0
5280,-1.31504,0.885907,0.136149,0
5300,-1.31506,0.885796,0.135999,0
5320,-1.31516,0.885975,0.135536,0
5340,-1.3149,0.886117,0.135003,0
5360,-1.3148,0.885983,0.135097,0
5380,-1.31654,0.885867,0.134226,0
5400,-1.31863,0.885745,0.133794,0
5420,-1.32082,0.885757,0.133269,0
5440,-1.32246,0.88586,0.132727,0
5460,-1.32384,0.886338,0.132376,0
5480,-1.32488,0.886623,0.132178,0
5500,-1.32589,0.887174,0.131905,0
5520,-1.32587,0.887116,0.131846,0
5540,-1.32591,0.887106,0.131386,0
5560,-1.32564,0.887004,0.130769,0
5580,-1.32452,0.886561,0.130174,0
5600,-1.32283,0.885686,0.129766,0
5620,-1.32075,0.884603,0.129722,0
5640,-1.31866,0.883635,0.129823,0
5660,-1.31599,0.882741,0.130117,0
5680,-1.31286,0.881792,0.13058,0
5700,-1.3091,0.881082,0.131471,0
5720,-1.30581,0.880386,0.132555,0
5740,-1.30369,0.879843,0.133849,0
5760,-1.30218,0.878838,0.135503,0
5780,-1.30071,0.877615,0.136854,0
5800,-1.29815,0.876665,0.138071,0
5820,-1.29477,0.876104,0.139157,0
5840,-1.29075,0.875613,0.140466,0
5860,-1.28774,0.875212,0.141135,0
5880,-1.28615,0.875359,0.141751,0
5900,-1.28504,0.875245,0.142629,0
5920,-1.28466,0.874928,0.143713,0
5940,-1.28526,0.874756,0.144674,0
5960,-1.28646,0.874353,0.145657,0
5980,-1.28805,0.874173,0.146713,0
6000,-1.28954,0.874209,0.148103,0
6020,-1.29209,0.874241,0.149131,0
6040,-1.29544,0.874451,0.149946,0
6060,-1.29952,0.875272,0.15072,0
6080,-1.30286,0.87612,0.151708,0
6100,-1.30515,0.876557,0.151875,0
6120,-1.30693,0.877155,0.151467,0
6140,-1.30841,0.877834,0.150468,0
6160,-1.30998,0.878713,0.149893,0
6180,-1.31181,0.879025,0.148663,0
6200,-1.31372,0.879229,0.147251,0
6220,-1.31456,0.87903,0.145908,0
6240,-1.31489,0.878791,0.144579,0
6260,-1.315,0.87855,0.143365,0
6280,-1.31502,0.878416,0.142331,0
6300,-1.31524,0.878419,0.142217,0
6320,-1.3155,0.878368,0.142012,0
6340,-1.31575,0.878427,0.141956,0
6360,-1.31572,0.878371,0.141897,0
6380,-1.31602,0.87901,0.141705,0
6400,-1.31592,0.879227,0.142033,0
6420,-1.31599,0.87926,0.142249,0
6440,-1.31612,0.879647,0.14267,0
6460,-1.31649,0.879884,0.143196,0
6480,-1.31705,0.880345,0.143904,0
6500,-1.31706,0.880501,0.144728,0
6520,-1.3165,0.880541,0.145719,0
6540,-1.31543,0.880613,0.146602,0
6560,-1.31416,0.881132,0.147529,0
6580,-1.31281,0.881365,0.148769,0
6600,-1.31179,0.881031,0.149326,0
6620,-1.31053,0.880528,0.149787,0
6640,-1.30898,0.880098,0.150296,0
6660,-1.30707,0.879629,0.150733,0
6680,-1.30514,0.879381,0.151469,0
6700,-1.30355,0.879006,0.152065,0
6720,-1.30194,0.878181,0.152727,0
6740,-1.30066,0.877659,0.153391,0
6760,-1.29924,0.877165,0.154385,0
6780,-1.29803,0.876914,0.155356,0
6800,-1.29712,0.876863,0.156639,0
6820,-1.29679,0.876614,0.157786,0
6840,-1.29602,0.876324,0.158893,0
6860,-1.29552,0.876543,0.159882,0
6880,-1.29476,0.876702,0.160926,0
6900,-1.29413,0.876776,0.161579,0
6920,-1.29345,0.876983,0.162224,0
6940,-1.29203,0.876816,0.162574,0
6960,-1.29049,0.877018,0.163043,0
6980,-1.28985,0.876944,0.162868,0
7000,-1.28931,0.877004,0.162604,0
7020,-1.28781,0.876643,0.162525,0
7040,-1.28593,0.876225,0.162582,0
7060,-1.2846,0.875793,0.162535,0
7080,-1.28403,0.875466,0.162848,0
7100,-1.28458,0.875118,0.163381,0
7120,-1.28595,0.874762,0.163666,0
7140,-1.28685,0.874739,0.164001,0
7160,-1.28714,0.875177,0.164412,0
7180,-1.28757,0.875889,0.165105,0
7200,-1.28818,0.876357,0.165161,0
7220,-1.28909,0.877072,0.165166,0
7240,-1.28994,0.878189,0.16551,0
7260,-1.29153,0.878929,0.165595,0
7280,-1.29302,0.879132,0.165461,0
7290,-1.29431,0.880022,0.165476,0
7310,-1.29577,0.88049,0.165277,0
7330,-1.2971,0.880879,0.165259,0
7350,-1.29883,0.881498,0.165314,0
7370,-1.30118,0.881945,0.165018,0
7390,-1.30391,0.882569,0.164733,0
7410,-1.30663,0.883065,0.164506,0
7430,-1.30918,0.883787,0.164024,0
7450,-1.31149,0.884733,0.163317,0
7470,-1.31428,0.885747,0.162433,0
7490,-1.31708,0.886408,0.161304,0
7510,-1.31942,0.887041,0.159974,0
7530,-1.32114,0.887848,0.15899,0
7550,-1.32281,0.888822,0.158245,0
7570,-1.32477,0.889597,0.157509,0
7590,-1.32658,0.890163,0.157018,0
7610,-1.3278,0.890248,0.157078,0
7630,-1.32884,0.89031,0.156795,0
7650,-1.32882,0.890423,0.156947,0
7670,-1.32784,0.89055,0.157226,0
7690,-1.32634,0.890591,0.157896,0
7710,-1.3248,0.890331,0.158418,0
7730,-1.32331,0.889697,0.158856,0
7750,-1.32231,0.889299,0.159332,0
7770,-1.32108,0.889046,0.160322,0
7790,-1.31977,0.888828,0.161617,0
7810,-1.31906,0.888548,0.162712,0
7830,-1.3182,0.888302,0.164142,0
7850,-1.31743,0.888189,0.165479,0
7870,-1.31643,0.887902,0.16672,0
7890,-1.31556,0.887731,0.167406,0
7910,-1.31429,0.88813,0.1682,0
7930,-1.31361,0.888507,0.168424,0
7950,-1.31335,0.888557,0.168633,0
7970,-1.31303,0.8881,0.168227,0
7990,-1.31246,0.887376,0.167415,0
8010,-1.31158,0.886721,0.166655,0
8030,-1.3106,0.885657,0.165621,0
8050,-1.31034,0.884835,0.164511,0
8070,-1.3098,0.883574,0.164045,0
8090,-1.30869,0.881873,0.16375,0
8110,-1.30786,0.880686,0.163332,0
8130,-1.30681,0.879979,0.163212,0
8150,-1.30629,0.879484,0.16329,0
8170,-1.3064,0.879183,0.163692,0
8190,-1.30701,0.879039,0.164234,0
8210,-1.30763,0.878785,0.164626,0
8230,-1.30814,0.878756,0.164733,0
8250,-1.30774,0.878485,0.165029,0
8270,-1.30783,0.878618,0.164938,0
8290,-1.3077,0.87854,0.16512,0
8310,-1.30732,0.878325,0.165475,0
8330,-1.30675,0.877995,0.165794,0
8350,-1.30595,0.8777,0.165859,0
8370,-1.30484,0.877268,0.166128,0
8390,-1.30401,0.876636,0.166407,0
8410,-1.30356,0.876178,0.1667,0
8430,-1.30352,0.87595,0.167065,0
8450,-1.30334,0.875403,0.167519,0
8470,-1.30265,0.87516,0.168226,0
8490,-1.30265,0.87516,0.168226,0
8510,-1.30327,0.874947,0.16825,0
8530,-1.30452,0.875135,0.168445,0
8550,-1.30556,0.875004,0.16876,0
8570,-1.30622,0.87498,0.168786,0
8590,-1.30653,0.875118,0.168583,0
8610,-1.3069,0.875404,0.168748,0
8630,-1.30769,0.875458,0.168592,0
8650,-1.30788,0.875479,0.168937,0
8670,-1.30836,0.875396,0.168986,0
8690,-1.30906,0.875429,0.169072,0
8710,-1.30978,0.875556,0.169466,0
8730,-1.31084,0.875596,0.169993,0
8750,-1.31204,0.875511,0.170496,0
8770,-1.31262,0.875323,0.170981,0
8790,-1.31332,0.875358,0.171067,0
8810,-1.31418,0.875493,0.170762,0
8830,-1.31418,0.875493,0.170762,0
8850,-1.31433,0.875385,0.169912,0
8870,-1.31389,0.875337,0.169253,0
8890,-1.31315,0.875042,0.168648,0
8910,-1.31262,0.874583,0.168356,0
8930,-1.3121,0.874087,0.168432,0
8950,-1.31197,0.873415,0.16828,0
8970,-1.31197,0.873134,0.168556,0
8990,-1.31151,0.872859,0.169517,0
9010,-1.3113,0.872333,0.17043,0
9030,-1.31219,0.872112,0.171139,0
9050,-1.31435,0.872186,0.171102,0
9070,-1.31591,0.872396,0.171774,0
9090,-1.31598,0.872068,0.172576,0
9110,-1.31598,0.872068,0.172576,0
9130,-1.31711,0.872842,0.172094,0
9150,-1.31846,0.873609,0.172324,0
9170,-1.31983,0.873709,0.172958,0
9190,-1.32078,0.873932,0.17376,0
9210,-1.32218,0.873815,0.174094,0
9230,-1.32332,0.873703,0.174384,0
9250,-1.32227,0.873736,0.175627,0
9270,-1.32069,0.873987,0.176602,0
9290,-1.32168,0.874914,0.1766,0
9310,-1.32462,0.875765,0.176462,0
9330,-1.3277,0.876331,0.176728,0
9350,-1.32891,0.876908,0.177197,0
9370,-1.32926,0.877706,0.177381,0
9390,-1.33015,0.878539,0.177095,0
9410,-1.33142,0.878868,0.176799,0
9430,-1.33159,0.879242,0.176767,0
9450,-1.32979,0.879569,0.17691,0
9470,-1.32889,0.880291,0.17665,0
9490,-1.32896,0.880368,0.176497,0
9510,-1.33004,0.880267,0.176815,0
9530,-1.33071,0.880095,0.177273,0
9550,-1.33009,0.880145,0.178296,0
9570,-1.32995,0.880543,0.178869,0
9590,-1.33104,0.88125,0.17936,0
9610,-1.33312,0.882207,0.179819,0
9630,-1.33523,0.882942,0.179974,0
9650,-1.33608,0.883593,0.180516,0
9670,-1.33674,0.88437,0.180277,0
9690,-1.33718,0.885221,0.179843,0
9710,-1.33684,0.885584,0.180071,0
9730,-1.33691,0.885661,0.179917,0
9750,-1.33662,0.885938,0.180427,0
9770,-1.33691,0.886471,0.180921,0
9790,-1.3381,0.886877,0.181386,0
9810,-1.34012,0.887243,0.181538,0
9830,-1.34222,0.887776,0.18206,0
9850,-1.34399,0.888564,0.182657,0
9860,-1.34561,0.889058,0.182976,0
9880,-1.34718,0.889808,0.183225,0
9900,-1.34825,0.890625,0.183425,0
9920,-1.34873,0.890986,0.183802,0
9940,-1.34882,0.891118,0.183709,0
9960,-1.34915,0.891259,0.183499,0
9980,-1.34875,0.891798,0.183969,0
10000,-1.34811,0.891515,0.184391,0
10020,-1.34717,0.891422,0.184798,0
10040,-1.34655,0.891676,0.185676,0
10060,-1.34725,0.892048,0.185936,0
10080,-1.34887,0.892667,0.186406,0
10100,-1.3496,0.893019,0.18704,0
10120,-1.35002,0.893385,0.187264,0
10140,-1.34976,0.89332,0.187319,0
10160,-1.34951,0.893722,0.186927,0
10180,-1.34938,0.894003,0.186511,0
10200,-1.34997,0.894002,0.185563,0
10220,-1.35049,0.893808,0.184619,0
10240,-1.35125,0.893625,0.183557,0
10260,-1.35162,0.893223,0.182865,0
10280,-1.35173,0.892757,0.182228,0
10300,-1.35137,0.892387,0.18198,0
10320,-1.35118,0.891836,0.181618,0
10340,-1.35118,0.891836,0.181618,0
10360,-1.35143,0.891901,0.181564,0
10380,-1.35135,0.891654,0.181504,0
10400,-1.35142,0.89173,0.181347,0
10420,-1.35167,0.891795,0.181293,0
10440,-1.35167,0.891795,0.181293,0
10460,-1.35165,0.89174,0.18123,0
10480,-1.35191,0.891689,0.181023,0
10500,-1.35191,0.891689,0.181023,0
10520,-1.35214,0.891699,0.180905,0
10540,-1.35164,0.891373,0.180992,0
10560,-1.35141,0.890998,0.180873,0
10580,-1.35078,0.89068,0.180831,0
10600,-1.35032,0.890295,0.180829,0
10620,-1.34971,0.889863,0.180635,0
10640,-1.34961,0.88956,0.180333,0
10660,-1.34917,0.888947,0.180025,0
10680,-1.34832,0.888621,0.1801,0
10700,-1.34835,0.888472,0.179486,0
10720,-1.34795,0.88828,0.179478,0
10740,-1.34708,0.887626,0.179777,0
10760,-1.34553,0.886945,0.180425,0
10780,-1.3432,0.886496,0.181379,0
10800,-1.34015,0.885716,0.18253,0
10820,-1.33672,0.884662,0.183143,0
10840,-1.33396,0.884195,0.183488,0
10860,-1.33206,0.884103,0.184009,0
10880,-1.33188,0.884482,0.184801,0
10900,-1.33222,0.884484,0.185646,0
10920,-1.33303,0.884559,0.186322,0
10940,-1.33333,0.88454,0.187384,0
10960,-1.33326,0.884467,0.188371,0
10980,-1.33281,0.884091,0.189194,0
11000,-1.33229,0.883552,0.189644,0
11020,-1.33134,0.882881,0.190172,0
11040,-1.33025,0.882694,0.190968,0
11060,-1.32919,0.882281,0.191457,0
11080,-1.32891,0.882081,0.191572,0
11100,-1.32875,0.881985,0.191967,0
11120,-1.32892,0.881805,0.191852,0
11140,-1.32905,0.881434,0.191735,0
11160,-1.32832,0.880688,0.19162,0
11180,-1.32753,0.879947,0.191348,0
11200,-1.3259,0.879194,0.19132,0
11220,-1.32487,0.878393,0.191099,0
11240,-1.32397,0.877584,0.191005,0
11260,-1.32345,0.876963,0.190926,0
11280,-1.32293,0.876455,0.190998,0
11300,-1.32278,0.875887,0.190994,0
11320,-1.32305,0.875838,0.190789,0
11340,-1.32363,0.875458,0.190815,0
11360,-1.32541,0.875089,0.190613,0
11380,-1.3278,0.874839,0.190623,0
11400,-1.3311,0.87488,0.190915,0
11420,-1.33474,0.874766,0.191011,0
11440,-1.338,0.874908,0.191027,0
11460,-1.33991,0.875269,0.191443,0
11480,-1.34115,0.875515,0.191677,0
11500,-1.34115,0.875515,0.191677,0
11520,-1.34031,0.875301,0.19189,0
11540,-1.33964,0.875432,0.191797,0
11560,-1.33964,0.875432,0.191797,0
11580,-1.34084,0.875451,0.191572,0
11600,-1.34241,0.875522,0.190777,0
11620,-1.34411,0.876389,0.19028,0
11640,-1.34649,0.876651,0.189484,0
11660,-1.34888,0.87664,0.188971,0
11680,-1.35011,0.876725,0.188991,0
11700,-1.35036,0.877266,0.189328,0
11720,-1.35,0.877534,0.189028,0
11740,-1.34949,0.878308,0.188616,0
11760,-1.34941,0.878777,0.1882,0
11780,-1.34905,0.878887,0.188337,0
11800,-1.34804,0.878738,0.188514,0
11820,-1.34663,0.878396,0.18868,0
11840,-1.34575,0.877766,0.188596,0
11860,-1.34618,0.876822,0.188636,0
11880,-1.34798,0.876395,0.188754,0
11900,-1.35134,0.875997,0.188664,0
11920,-1.35479,0.875182,0.18841,0
11940,-1.35722,0.874815,0.188872,0
11960,-1.35852,0.874868,0.189637,0
11980,-1.35986,0.8753,0.190239,0
12000,-1.3602,0.875394,0.191175,0
12020,-1.35991,0.875717,0.192137,0
12040,-1.35976,0.875949,0.192309,0
12060,-1.35853,0.876444,0.193378,0
12080,-1.35803,0.877078,0.194232,0
12100,-1.35752,0.877713,0.195088,0
12120,-1.35661,0.877867,0.195567,0
12140,-1.356,0.87798,0.195445,0
12160,-1.35528,0.877869,0.194891,0
12180,-1.35479,0.878136,0.194461,0
12200,-1.35577,0.878353,0.194374,0
12220,-1.35839,0.878529,0.194361,0
12240,-1.36144,0.878086,0.19457,0
12260,-1.36391,0.87756,0.195191,0
12280,-1.36624,0.877541,0.195698,0
12300,-1.36845,0.877898,0.196311,0
12320,-1.37149,0.878514,0.197388,0
12340,-1.37476,0.878835,0.198578,0
12360,-1.37816,0.87895,0.199225,0
12380,-1.38126,0.879315,0.19954,0
12400,-1.38412,0.879565,0.199444,0
12420,-1.38542,0.879859,0.199679,0
12440,-1.38565,0.879873,0.199565,0
12450,-1.3852,0.880163,0.199563,0
12470,-1.38491,0.88098,0.199477,0
12490,-1.38492,0.881354,0.199709,0
12510,-1.38514,0.881049,0.199825,0
12530,-1.38432,0.881006,0.200038,0
12550,-1.38227,0.880913,0.200075,0
12570,-1.37933,0.880971,0.200189,0
12590,-1.37716,0.881203,0.200266,0
12610,-1.37571,0.881252,0.20113,0
12630,-1.3752,0.881086,0.201826,0
12650,-1.37488,0.880793,0.202477,0
12670,-1.37284,0.880377,0.203514,0
12690,-1.37052,0.880139,0.204132,0
12710,-1.36763,0.879811,0.205158,0
12730,-1.36467,0.879523,0.20649,0
12750,-1.3621,0.879018,0.207532,0
12770,-1.35918,0.878385,0.208404,0
12790,-1.35555,0.877845,0.209394,0
12810,-1.35153,0.877473,0.210609,0
12830,-1.34784,0.877178,0.211928,0
12850,-1.34483,0.876766,0.213341,0
12870,-1.34184,0.875918,0.214814,0
12890,-1.33869,0.874768,0.215997,0
12910,-1.33546,0.873928,0.217202,0
12930,-1.33232,0.873582,0.218564,0
12950,-1.32962,0.873052,0.220066,0
12970,-1.32723,0.87234,0.221577,0
12990,-1.3246,0.871452,0.22298,0
13010,-1.32223,0.870951,0.224119,0
13030,-1.32009,0.870463,0.225145,0
13050,-1.31863,0.870177,0.22605,0
13070,-1.31716,0.869728,0.226738,0
13090,-1.31576,0.869409,0.227339,0
13110,-1.31417,0.868965,0.227895,0
13130,-1.31296,0.868794,0.228169,0
13150,-1.31175,0.868623,0.228443,0
13170,-1.31071,0.868387,0.228752,0
13190,-1.30985,0.868114,0.228887,0
13210,-1.30964,0.868101,0.228998,0
13230,-1.30964,0.868101,0.228998,0
13250,-1.30965,0.86799,0.228843,0
13270,-1.30939,0.867787,0.228946,0
13290,-1.30868,0.867397,0.229055,0
13310,-1.30824,0.867372,0.229277,0
13330,-1.30858,0.867454,0.228988,0
13350,-1.30875,0.867388,0.229024,0
13370,-1.30845,0.867245,0.22922,0
13390,-1.30797,0.86703,0.229433,0
13410,-1.30729,0.866941,0.229705,0
13430,-1.3065,0.866943,0.23037,0
13450,-1.30597,0.866823,0.231139,0
13470,-1.30598,0.866909,0.231662,0
13490,-1.30597,0.866944,0.232124,0
13510,-1.3058,0.86701,0.232088,0
13530,-1.3058,0.86701,0.232088,0
13550,-1.30579,0.867121,0.232244,0
13570,-1.3058,0.86701,0.232088,0
13590,-1.30572,0.866881,0.232173,0
13610,-1.30693,0.866876,0.231493,0
13630,-1.3084,0.867214,0.230658,0
13650,-1.31074,0.867714,0.229532,0
13670,-1.31296,0.867895,0.228482,0
13690,-1.31479,0.867989,0.227561,0
13710,-1.31641,0.868283,0.22639,0
13730,-1.31859,0.868922,0.224915,0
13750,-1.32084,0.869241,0.223805,0
13770,-1.3238,0.869813,0.222638,0
13790,-1.32623,0.87023,0.221779,0
13810,-1.3278,0.870736,0.221308,0
13830,-1.32923,0.87147,0.221015,0
13850,-1.33053,0.871862,0.220529,0
13870,-1.33206,0.872544,0.2203,0
13890,-1.33387,0.873229,0.219928,0
13910,-1.33536,0.874088,0.219941,0
13930,-1.33705,0.87491,0.219777,0
13950,-1.33933,0.875557,0.219483,0
13970,-1.34131,0.876064,0.21939,0
13990,-1.34408,0.876473,0.219146,0
14010,-1.34717,0.876157,0.218827,0
14030,-1.34985,0.876237,0.219045,0
14050,-1.35124,0.877095,0.219691,0
14070,-1.35243,0.877993,0.220513,0
14090,-1.35353,0.878931,0.222043,0
14110,-1.35541,0.879627,0.224264,0
14130,-1.35859,0.8802,0.226796,0
14150,-1.36333,0.879706,0.228729,0
14170,-1.36967,0.877167,0.228885,0
14190,-1.3746,0.873666,0.229332,0
14210,-1.37634,0.870041,0.232628,0
14230,-1.36779,0.861525,0.238941,0
14250,-1.35207,0.842317,0.242485,0
14270,-1.33855,0.813707,0.240152,0
14290,-1.31924,0.783997,0.234673,0
14310,-1.29931,0.762004,0.227227,0
14330,-1.27972,0.740703,0.226688,0
14350,-1.26623,0.712316,0.235135,0
14370,-1.26165,0.675899,0.246408,0
14390,-1.25784,0.635462,0.257777,0
14410,-1.245,0.592585,0.270284,0
14430,-1.21964,0.54785,0.284022,0
14450,-1.18801,0.502749,0.300205,0
14470,-1.16197,0.458849,0.318624,0
14490,-1.14504,0.418799,0.339453,0
14510,-1.14149,0.375504,0.361304,0
14530,-1.14814,0.334954,0.386227,0
14550,-1.16535,0.299586,0.4157,0
14570,-1.19199,0.26902,0.448726,0
14590,-1.22293,0.241293,0.481218,0
14610,-1.25543,0.216272,0.513312,0
14630,-1.29192,0.194684,0.546349,0
14650,-1.32776,0.1767,0.577487,0
14670,-1.36038,0.161718,0.60604,0
14690,-1.39459,0.150326,0.636113,0
14710,-1.43228,0.141081,0.666988,0
14730,-1.46916,0.132425,0.696839,0
14750,-1.50389,0.123467,0.724292,0
14770,-1.53053,0.115994,0.750596,0
14790,-1.55673,0.112187,0.777157,0
14810,-1.58256,0.111215,0.803002,0
14830,-1.60713,0.112704,0.827035,0
14850,-1.63344,0.117642,0.850909,0
14870,-1.6613,0.127065,0.87508,0
14890,-1.68979,0.140128,0.898199,0
14910,-1.71604,0.155369,0.918884,0
14930,-1.74146,0.171113,0.936918,0
14950,-1.76427,0.185632,0.951844,0
14970,-1.78295,0.200039,0.963405,0
14990,-1.8007,0.216136,0.974278,0
15010,-1.81446,0.232532,0.984333,0
15030,-1.82049,0.250225,0.991858,0
15040,-1.82008,0.267073,0.996684,0
15060,-1.82226,0.284237,0.998809,0
15080,-1.82774,0.303054,0.997267,0
15100,-1.83298,0.320674,0.991458,0
15120,-1.83695,0.331198,0.98358,0
15140,-1.83706,0.33897,0.98234,0
15160,-1.83063,0.338362,0.984315,0
15180,-1.82308,0.329877,0.983589,0
15200,-1.8113,0.325436,0.980084,0
15220,-1.79159,0.322365,0.975169,0
15220,-1.77057,0.321381,0.970607,0
15240,-1.7588,0.321488,0.967393,0
15260,-1.74792,0.322639,0.96225,0
15280,-1.74622,0.326449,0.955472,0
15320,-1.74394,0.331632,0.942901,0
15340,-1.74129,0.341987,0.924606,0
15360,-1.73023,0.357226,0.905584,0
15380,-1.71466,0.376094,0.886582,0
15400,-1.69684,0.397518,0.868112,0
15420,-1.69368,0.409386,0.853186,0
15440,-1.70572,0.415349,0.847091,0
15460,-1.70995,0.419901,0.844802,0
15470,-1.71059,0.421781,0.841169,0
15490,-1.7103,0.420844,0.839593,0
15510,-1.70652,0.420522,0.83986,0
15520,-1.70344,0.420229,0.841062,0
15540,-1.70871,0.422164,0.846864,0
15560,-1.70983,0.425847,0.848527,0
15580,-1.70852,0.432286,0.849633,0
15600,-1.70718,0.442231,0.848751,0
15620,-1.70541,0.456795,0.847059,0
15640,-1.70503,0.476444,0.844214,0
15660,-1.70974,0.498419,0.841412,0
15680,-1.72426,0.518,0.840763,0
15700,-1.74392,0.53368,0.841789,0
15720,-1.76257,0.543259,0.841251,0
15740,-1.77513,0.546073,0.837928,0
15760,-1.77898,0.545611,0.833516,0
15780,-1.77238,0.543778,0.829989,0
15800,-1.76033,0.542289,0.827762,0
15820,-1.74756,0.54293,0.827785,0
15840,-1.73695,0.545429,0.83043,0
15860,-1.73184,0.547967,0.8349,0
15880,-1.7349,0.549496,0.839129,0
15900,-1.7424,0.550764,0.842005,0
15920,-1.75099,0.55242,0.844284,0
15940,-1.75673,0.553823,0.846809,0
15960,-1.75675,0.554579,0.848966,0
15980,-1.75275,0.554624,0.849193,0
16000,-1.7475,0.554632,0.848133,0
16020,-1.74214,0.554778,0.847375,0
16040,-1.73749,0.554899,0.847109,0
16060,-1.73492,0.555269,0.847171,0
16080,-1.73464,0.555429,0.84714,0
16100,-1.73569,0.554926,0.847061,0
16120,-1.73536,0.552929,0.847677,0
16140,-1.73199,0.550082,0.848701,0
16160,-1.72714,0.547248,0.84873,0
16180,-1.72118,0.544155,0.848283,0
16200,-1.71285,0.539052,0.84856,0
16220,-1.69285,0.530133,0.849066,0
16240,-1.65491,0.517489,0.849903,0
16260,-1.60116,0.501381,0.857126,0
16280,-1.52938,0.476619,0.871815,0
16300,-1.4397,0.440631,0.887888,0
16320,-1.35524,0.398505,0.898266,0
16340,-1.28727,0.358725,0.904112,0
16360,-1.23991,0.32499,0.909191,0
16380,-1.22006,0.293335,0.915413,0
16400,-1.21338,0.257789,0.925447,0
16420,-1.21215,0.215929,0.938493,0
16440,-1.20482,0.169112,0.952372,0
16460,-1.18656,0.120139,0.968445,0
16480,-1.16364,0.0708836,0.987644,0
16500,-1.13649,0.0221528,1.00418,0
16520,-1.11801,-0.0253688,1.0167,0
16540,-1.11436,-0.0652208,1.03202,0
16560,-1.12289,-0.0962341,1.0549,0
16580,-1.13317,-0.122384,1.07888,0
16600,-1.13912,-0.144974,1.09861,0
16620,-1.14206,-0.164067,1.11705,0
16640,-1.14573,-0.178271,1.13988,0
16640,-1.15044,-0.187991,1.16557,0
16680,-1.15319,-0.195303,1.18681,0
16700,-1.15531,-0.200579,1.20258,0
16720,-1.15966,-0.203634,1.21945,0
16740,-1.16147,-0.205929,1.23812,0
16760,-1.15912,-0.206284,1.25692,0
16780,-1.15489,-0.205652,1.27299,0
16800,-1.15035,-0.206438,1.28334,0
16820,-1.1467,-0.206108,1.29342,0
16840,-1.1451,-0.203205,1.30517,0
16860,-1.14435,-0.201583,1.3166,0
16880,-1.14449,-0.204481,1.32257,0
16900,-1.14341,-0.206849,1.32288,0
16920,-1.14281,-0.206484,1.32298,0
16940,-1.14225,-0.203968,1.32373,0
16940,-1.14325,-0.202901,1.32357,0
16960,-1.14119,-0.2029,1.32028,0
16960,-1.13388,-0.201069,1.31433,0
16980,-1.12791,-0.198463,1.30956,0
16980,-1.12637,-0.196924,1.30489,0
17000,-1.12642,-0.195009,1.29824,0
17040,-1.12593,-0.193713,1.29066,0
17100,-1.12453,-0.194496,1.28248,0
17120,-1.11903,-0.197441,1.27455,0
17140,-1.10724,-0.203603,1.26516,0
17160,-1.09403,-0.212915,1.25648,0
17180,-1.08366,-0.225658,1.24926,0
17200,-1.07739,-0.239133,1.24266,0
17220,-1.07152,-0.252819,1.23514,0
17240,-1.06533,-0.266105,1.22692,0
17260,-1.05922,-0.277831,1.21759,0
17280,-1.05488,-0.290403,1.20754,0
17300,-1.05052,-0.304134,1.1965,0
17320,-1.04527,-0.316855,1.18363,0
17340,-1.03701,-0.327147,1.16826,0
17360,-1.0262,-0.334344,1.1536,0
17380,-1.01623,-0.340037,1.14232,0
17400,-1.01054,-0.343544,1.13203,0
17420,-1.01052,-0.344812,1.12223,0
17440,-1.01432,-0.345563,1.11385,0
17460,-1.01528,-0.347211,1.10716,0
17480,-1.01126,-0.349216,1.10223,0
17500,-1.00536,-0.352277,1.09781,0
17520,-1.00119,-0.35565,1.09163,0
17540,-1.00062,-0.358411,1.08572,0
17550,-1.0012,-0.360557,1.08298,0
17570,-1.00327,-0.363883,1.08339,0
17590,-1.00418,-0.367769,1.08408,0
17610,-1.00424,-0.372828,1.08369,0
17620,-1.00493,-0.377843,1.08435,0
17640,-1.01009,-0.383971,1.08622,0
17660,-1.0164,-0.391374,1.08829,0
17690,-1.02027,-0.397958,1.08909,0
17710,-1.02358,-0.404375,1.08926,0
17730,-1.02656,-0.408381,1.08915,0
17750,-1.02555,-0.410277,1.08718,0
17770,-1.02158,-0.413049,1.08367,0
17790,-1.0183,-0.416823,1.07958,0
17810,-1.0151,-0.420012,1.0758,0
17830,-1.01073,-0.42267,1.07231,0
17850,-1.00672,-0.424738,1.07021,0
17870,-1.00447,-0.42583,1.06928,0
17890,-1.00253,-0.425594,1.06755,0
17910,-0.999465,-0.426286,1.06365,0
17920,-0.992658,-0.42641,1.05786,0
17940,-0.987661,-0.42435,1.05116,0
17960,-0.985196,-0.422263,1.04391,0
17980,-0.982908,-0.420201,1.03723,0
18000,-0.981146,-0.417901,1.03067,0
18020,-0.978558,-0.413587,1.02372,0
18040,-0.975211,-0.410503,1.01629,0
18060,-0.973407,-0.407479,1.01039,0
18080,-0.971505,-0.402744,1.00482,0
18100,-0.966498,-0.395721,0.999789,0
18120,-0.95901,-0.388111,0.997273,0
18130,-0.952597,-0.38249,0.997081,0
18150,-0.949789,-0.37911,0.997766,0
18170,-0.953295,-0.374435,1.00051,0
18190,-0.95958,-0.369556,1.00091,0
18210,-0.966436,-0.366554,1.00372,0
18230,-0.967983,-0.356893,1.00414,0
18250,-0.971295,-0.361978,1.01032,0
18280,-0.972691,-0.373925,1.01417,0
18300,-0.971524,-0.375109,1.01403,0
18320,-0.966583,-0.368393,1.00929,0
18340,-0.967132,-0.366215,1.00945,0
18350,-0.968548,-0.36564,1.01067,0
18370,-0.970175,-0.366011,1.0104,0
18390,-0.971236,-0.366715,1.00842,0
18410,-0.974001,-0.367058,1.00971,0
18430,-0.979125,-0.370749,1.01291,0
18450,-0.976062,-0.364755,1.01033,0
18470,-0.978948,-0.3746,1.01363,0
18500,-0.982506,-0.386673,1.01496,0
18510,-0.985563,-0.388425,1.01395,0
18530,-0.985309,-0.385441,1.01018,0
18530,-0.986222,-0.384547,1.01037,0
18550,-0.986788,-0.383393,1.01053,0
18550,-0.986999,-0.382346,1.01106,0
18570,-0.987362,-0.38158,1.01122,0
18570,-0.988613,-0.380745,1.01144,0
18590,-0.989477,-0.379568,1.0119,0
18590,-0.990265,-0.378548,1.01269,0
18610,-0.990216,-0.377789,1.01328,0
18630,-0.990161,-0.376817,1.01344,0
18630,-0.990596,-0.375326,1.01378,0
18650,-0.990269,-0.373555,1.01378,0
18690,-0.985554,-0.370571,1.01254,0
18760,-0.978972,-0.367665,1.01007,0
18780,-0.97727,-0.365854,1.00912,0
18800,-0.975916,-0.364624,1.00883,0
18820,-0.974092,-0.363652,1.00817,0
18840,-0.97217,-0.362485,1.00752,0
18860,-0.971291,-0.361469,1.00728,0
18880,-0.970315,-0.360475,1.00747,0
18900,-0.968902,-0.359027,1.00765,0
18920,-0.966841,-0.357694,1.00761,0
18940,-0.965358,-0.355701,1.00773,0
18960,-0.964303,-0.352961,1.00808,0
18980,-0.963068,-0.350365,1.00857,0
19000,-0.960905,-0.348436,1.00907,0
19020,-0.957513,-0.346584,1.00983,0
19040,-0.955039,-0.343849,1.01079,0
19060,-0.953253,-0.341618,1.01084,0
19080,-0.95312,-0.340241,1.01073,0
19100,-0.953831,-0.338961,1.01105,0
19120,-0.954444,-0.337489,1.01137,0
19140,-0.954566,-0.336314,1.0112,0
19160,-0.953535,-0.335188,1.01009,0
19180,-0.952115,-0.334645,1.00825,0
19200,-0.951201,-0.334425,1.00682,0
19220,-0.951178,-0.334403,1.00573,0
19230,-0.950598,-0.334105,1.00516,0
19260,-0.950461,-0.333326,1.00525,0
19280,-0.949688,-0.332418,1.00577,0
19300,-0.950245,-0.332487,1.00664,0
19320,-0.952575,-0.333351,1.00832,0
19340,-0.955931,-0.334285,1.01091,0
19360,-0.957785,-0.335207,1.01317,0
19380,-0.959356,-0.336564,1.01556,0
19400,-0.960233,-0.338714,1.01767,0
19420,-0.960702,-0.341308,1.01925,0
19440,-0.962138,-0.343434,1.02159,0
19460,-0.963609,-0.343911,1.02558,0
19480,-0.966085,-0.345408,1.0294,0
19500,-0.967062,-0.347741,1.03138,0
19520,-0.969392,-0.350166,1.03218,0
19540,-0.971781,-0.351486,1.03159,0
19560,-0.974986,-0.351755,1.03184,0
19580,-0.977968,-0.350754,1.03305,0
19600,-0.980687,-0.349916,1.03379,0
19620,-0.982456,-0.34903,1.03483,0
19640,-0.982951,-0.346628,1.03622,0
19660,-0.983844,-0.34208,1.03741,0
19680,-0.986224,-0.336968,1.03649,0
19700,-0.988566,-0.332358,1.03584,0
19720,-0.99066,-0.328042,1.03525,0
19740,-0.990362,-0.323891,1.03385,0
19760,-0.98793,-0.320448,1.03286,0
19780,-0.984349,-0.317125,1.03189,0
19800,-0.982138,-0.314931,1.03067,0
19820,-0.980622,-0.31338,1.0294,0
19840,-0.979487,-0.312279,1.02839,0
19860,-0.977206,-0.310908,1.0272,0
19880,-0.974393,-0.309736,1.02559,0
19900,-0.970524,-0.308397,1.02313,0
19920,-0.967734,-0.307539,1.02036,0
19940,-0.966228,-0.307211,1.01875,0
19950,-0.965337,-0.306897,1.01712,0
19970,-0.96533,-0.305451,1.01489,0
19970,-0.964908,-0.303385,1.0129,0
20020,-0.96413,-0.301623,1.01215,0
20040,-0.964744,-0.30025,1.01161,0
20060,-0.966383,-0.29935,1.01026,0
20070,-0.967565,-0.298707,1.00856,0
20090,-0.967733,-0.298032,1.00777,0
20110,-0.967645,-0.297076,1.00641,0
20130,-0.967946,-0.29662,1.00414,0
20150,-0.968183,-0.295646,1.00138,0
20170,-0.968886,-0.294786,0.998436,0
20190,-0.968684,-0.293513,0.995777,0
20210,-0.967305,-0.291679,0.993232,0
20230,-0.96544,-0.289792,0.991062,0
20250,-0.964045,-0.288616,0.990109,0
20270,-0.964044,-0.288175,0.990005,0
20290,-0.964232,-0.28741,0.990092,0
20310,-0.963368,-0.286917,0.991282,0
20330,-0.961792,-0.287275,0.994335,0
20350,-0.958888,-0.28833,0.998313,0
20370,-0.958099,-0.290872,1.00158,0
20390,-0.956888,-0.294894,1.00385,0
20410,-0.955913,-0.300776,1.0047,0
20430,-0.954283,-0.305398,1.00577,0
20450,-0.955071,-0.308624,1.00736,0
20470,-0.956025,-0.309963,1.00732,0
20490,-0.956746,-0.31161,1.00705,0
20510,-0.956971,-0.313082,1.008,0
20530,-0.956047,-0.313495,1.00952,0
20550,-0.955611,-0.313701,1.01143,0
20570,-0.958076,-0.314446,1.01292,0
20590,-0.962023,-0.314646,1.01366,0
20610,-0.965444,-0.314935,1.01377,0
20630,-0.96724,-0.31651,1.015,0
20650,-0.969254,-0.318596,1.01741,0
20650,-0.970725,-0.321421,1.02032,0
20670,-0.971022,-0.324928,1.02374,0
20690,-0.970902,-0.328783,1.02567,0
20710,-0.970391,-0.331499,1.02659,0
20710,-0.969559,-0.333063,1.027,0
20730,-0.967775,-0.334613,1.02667,0
20750,-0.964274,-0.335227,1.02517,0
20770,-0.960013,-0.33523,1.02345,0
20770,-0.956831,-0.335097,1.02091,0
20830,-0.952875,-0.333969,1.01761,0
20870,-0.946813,-0.331676,1.01532,0
20890,-0.938186,-0.329528,1.01311,0
20910,-0.930932,-0.326692,1.01189,0
20930,-0.923105,-0.323065,1.01002,0
20950,-0.913578,-0.319218,1.00722,0
20970,-0.904381,-0.315239,1.00681,0
20990,-0.89832,-0.312387,1.00834,0
21010,-0.897465,-0.310858,1.01183,0
21030,-0.889873,-0.310533,1.01474,0
21050,-0.869748,-0.313294,1.00903,0
21070,-0.847354,-0.31703,0.995316,0
21090,-0.84099,-0.315441,0.983585,0
21110,-0.843536,-0.314952,0.973221,0
21130,-0.836695,-0.322156,0.95325,0
21150,-0.811787,-0.328365,0.930848,0
21170,-0.78928,-0.328974,0.919903,0
21190,-0.782884,-0.33347,0.907353,0
21210,-0.788337,-0.340263,0.891121,0
21230,-0.79945,-0.349076,0.873965,0
21250,-0.810988,-0.35786,0.863099,0
21270,-0.822709,-0.365551,0.85718,0
21290,-0.838578,-0.371592,0.849347,0
21310,-0.856749,-0.377126,0.833164,0
21330,-0.869649,-0.381219,0.812012,0
21350,-0.879255,-0.38519,0.792325,0
21370,-0.889096,-0.386508,0.778668,0
21390,-0.897982,-0.387747,0.771348,0
21410,-0.902778,-0.388726,0.763791,0
21430,-0.904198,-0.391099,0.751993,0
21450,-0.905272,-0.392917,0.741496,0
21470,-0.909214,-0.394093,0.73488,0
21490,-0.911428,-0.396232,0.729727,0
21510,-0.910632,-0.397628,0.72204,0
21530,-0.90539,-0.397602,0.710235,0
21550,-0.89457,-0.398281,0.698106,0
21570,-0.881543,-0.39873,0.688955,0
21590,-0.870825,-0.400116,0.684154,0
21610,-0.860247,-0.405257,0.680233,0
21630,-0.853151,-0.411587,0.680234,0
21650,-0.852846,-0.419087,0.680869,0
21670,-0.856563,-0.429494,0.681672,0
21690,-0.863662,-0.440298,0.682287,0
21710,-0.86989,-0.450507,0.684912,0
21730,-0.875177,-0.463327,0.688487,0
21750,-0.878498,-0.47683,0.692174,0
21770,-0.881098,-0.487533,0.695282,0
21790,-0.885145,-0.498821,0.699044,0
21810,-0.884474,-0.510887,0.699637,0
21830,-0.885394,-0.521062,0.704013,0
21850,-0.889275,-0.528192,0.713566,0
21870,-0.894241,-0.535729,0.727886,0
21890,-0.899569,-0.5448,0.74288,0
21910,-0.899402,-0.556256,0.753713,0
21930,-0.895299,-0.566831,0.758817,0
21950,-0.890941,-0.574943,0.761563,0
21970,-0.88956,-0.580459,0.766464,0
21990,-0.891198,-0.583681,0.773807,0
22010,-0.890719,-0.586963,0.780495,0
22030,-0.886133,-0.590526,0.784833,0
22050,-0.881707,-0.592546,0.786335,0
22070,-0.880064,-0.592393,0.787327,0
22090,-0.881522,-0.591665,0.791217,0
22110,-0.88118,-0.590231,0.79574,0
22130,-0.878657,-0.589939,0.79987,0
22150,-0.876125,-0.591477,0.804707,0
22170,-0.874158,-0.592349,0.810195,0
22190,-0.875943,-0.592731,0.815313,0
22210,-0.878069,-0.592074,0.818993,0
22230,-0.880529,-0.592394,0.825566,0
22250,-0.883252,-0.594529,0.830864,0
22270,-0.884017,-0.59758,0.836457,0
22290,-0.886544,-0.600057,0.843601,0
22310,-0.889972,-0.601924,0.849882,0
22330,-0.893982,-0.604799,0.857627,0
22350,-0.896964,-0.607331,0.86745,0
22370,-0.899022,-0.60876,0.876627,0
22390,-0.90283,-0.609679,0.883945,0
22410,-0.906992,-0.609468,0.890346,0
22430,-0.91065,-0.607693,0.895553,0
22450,-0.913688,-0.603876,0.898674,0
22470,-0.916339,-0.597796,0.90052,0
22490,-0.918648,-0.59186,0.903293,0
22510,-0.918831,-0.586555,0.903161,0
22530,-0.919207,-0.581333,0.899493,0
22550,-0.921382,-0.572266,0.895328,0
22570,-0.924959,-0.559413,0.887365,0
22590,-0.928248,-0.546804,0.880322,0
22610,-0.929333,-0.534089,0.874772,0
22630,-0.929556,-0.522932,0.866244,0
22640,-0.927024,-0.511522,0.854993,0
22660,-0.922902,-0.500012,0.845104,0
22680,-0.918135,-0.489664,0.833647,0
22700,-0.914146,-0.480622,0.821649,0
22720,-0.908819,-0.468764,0.808581,0
22740,-0.901093,-0.457155,0.798256,0
22760,-0.895127,-0.445791,0.789366,0
22780,-0.891662,-0.4351,0.781545,0
22800,-0.88845,-0.423043,0.776153,0
22820,-0.886771,-0.410007,0.774206,0
22840,-0.884858,-0.394818,0.773491,0
22860,-0.884955,-0.380683,0.772432,0
22880,-0.885516,-0.368031,0.771351,0
22900,-0.885333,-0.357023,0.769891,0
22910,-0.885394,-0.345567,0.767585,0
22930,-0.887031,-0.332952,0.767105,0
22950,-0.890749,-0.32025,0.766434,0
22950,-0.893761,-0.309213,0.764233,0
22970,-0.897638,-0.298563,0.762654,0
22990,-0.902637,-0.287474,0.76191,0
23010,-0.908699,-0.277024,0.762972,0
23010,-0.912149,-0.267376,0.765889,0
23030,-0.915382,-0.261215,0.764955,0
23050,-0.917183,-0.258389,0.762874,0
23070,-0.917155,-0.255763,0.762912,0
23130,-0.916969,-0.254714,0.762007,0
23130,-0.916682,-0.254928,0.759435,0
23180,-0.916981,-0.255662,0.756605,0
23200,-0.915424,-0.257366,0.754281,0
23210,-0.911977,-0.257812,0.754578,0
23230,-0.910695,-0.257299,0.758074,0
23250,-0.910315,-0.259086,0.762495,0
23270,-0.908417,-0.264334,0.767107,0
23270,-0.906248,-0.270438,0.77179,0
23310,-0.904299,-0.27709,0.775818,0
23340,-0.902965,-0.28558,0.77943,0
23360,-0.902346,-0.294825,0.783972,0
23380,-0.903557,-0.303779,0.789865,0
23400,-0.903503,-0.315526,0.795104,0
23420,-0.903462,-0.32854,0.799611,0
23440,-0.904278,-0.340711,0.804577,0
23460,-0.90642,-0.351927,0.811013,0
23470,-0.909787,-0.363248,0.818742,0
23490,-0.91296,-0.375548,0.826585,0
23510,-0.91629,-0.388303,0.833512,0
23510,-0.919879,-0.402198,0.838935,0
23560,-0.92361,-0.414653,0.843097,0
23580,-0.9273,-0.424108,0.847959,0
23600,-0.930163,-0.433288,0.853107,0
23620,-0.931606,-0.443208,0.85796,0
23640,-0.932478,-0.453412,0.862328,0
23660,-0.932245,-0.461715,0.867761,0
23680,-0.932389,-0.469371,0.874342,0
23700,-0.933132,-0.476692,0.879965,0
23720,-0.933528,-0.481558,0.884175,0
23740,-0.934007,-0.4842,0.889031,0
23760,-0.934733,-0.485811,0.895019,0
23780,-0.934803,-0.487681,0.902064,0
23800,-0.934361,-0.489895,0.909496,0
23820,-0.933297,-0.491758,0.91559,0
23840,-0.931763,-0.492331,0.922308,0
23860,-0.930627,-0.491963,0.928514,0
23880,-0.930597,-0.492905,0.935123,0
23900,-0.930451,-0.49326,0.940306,0
23920,-0.930729,-0.491683,0.944713,0
23940,-0.930521,-0.489704,0.948642,0
23960,-0.929989,-0.487389,0.952958,0
23980,-0.929679,-0.48377,0.954691,0
24000,-0.929379,-0.479775,0.954421,0
24020,-0.927389,-0.476418,0.955084,0
24040,-0.926446,-0.473618,0.955075,0
24060,-0.925725,-0.469451,0.955404,0
24080,-0.925141,-0.465455,0.955162,0
24100,-0.922845,-0.462908,0.953802,0
24120,-0.920053,-0.459381,0.951653,0
24140,-0.916396,-0.455907,0.950168,0
24160,-0.913764,-0.453598,0.950307,0
24180,-0.910873,-0.450881,0.948467,0
24200,-0.908971,-0.446245,0.945089,0
24220,-0.90862,-0.439032,0.941549,0
24240,-0.908702,-0.431908,0.93945,0
24260,-0.909808,-0.426423,0.93712,0
24280,-0.909995,-0.420598,0.933449,0
24300,-0.910849,-0.414846,0.930121,0
24320,-0.911137,-0.410815,0.924862,0
24340,-0.910575,-0.409033,0.916977,0
24360,-0.907688,-0.407995,0.909134,0
24380,-0.904602,-0.404584,0.90181,0
24400,-0.903487,-0.40091,0.897379,0
24420,-0.90428,-0.399659,0.89848,0
24440,-0.907181,-0.401499,0.902626,0
24460,-0.909365,-0.403537,0.906158,0
24480,-0.912203,-0.404196,0.909204,0
24500,-0.915248,-0.403945,0.911835,0
24520,-0.917471,-0.404162,0.914368,0
24540,-0.918964,-0.405165,0.918241,0
24560,-0.919138,-0.408388,0.922649,0
24580,-0.918659,-0.412406,0.926807,0
24600,-0.918787,-0.415177,0.930225,0
24620,-0.921486,-0.417761,0.935386,0
24640,-0.924857,-0.420981,0.942136,0
24660,-0.928029,-0.424191,0.948373,0
24680,-0.93097,-0.424983,0.952849,0
24700,-0.933239,-0.425209,0.956966,0
24720,-0.93406,-0.427881,0.960845,0
24740,-0.933766,-0.431726,0.963696,0
24760,-0.934109,-0.433497,0.964739,0
24780,-0.935776,-0.434658,0.966189,0
24800,-0.936913,-0.435045,0.97142,0
24820,-0.936427,-0.434626,0.97739,0
24840,-0.935962,-0.434128,0.983487,0
24860,-0.937486,-0.43361,0.989733,0
24880,-0.940688,-0.433666,0.994265,0
24900,-0.944186,-0.433463,0.999406,0
24920,-0.94594,-0.432829,1.00558,0
24940,-0.946718,-0.432924,1.01189,0
24960,-0.947953,-0.433897,1.01639,0
24980,-0.948473,-0.436251,1.0188,0
25000,-0.948467,-0.439327,1.01883,0
25020,-0.948907,-0.44213,1.01982,0
25040,-0.949117,-0.443809,1.02183,0
25060,-0.949156,-0.444838,1.02307,0
25080,-0.950112,-0.445476,1.02422,0
25100,-0.950865,-0.444792,1.0257,0
25120,-0.951491,-0.444453,1.02715,0
25140,-0.951189,-0.443647,1.0285,0
25160,-0.950884,-0.441507,1.02917,0
25180,-0.951801,-0.438299,1.02996,0
25200,-0.952469,-0.434268,1.03104,0
25220,-0.952027,-0.430856,1.03335,0
25240,-0.951464,-0.427285,1.03473,0
25250,-0.951533,-0.423484,1.03552,0
25270,-0.950947,-0.420014,1.03544,0
25290,-0.951034,-0.416007,1.0346,0
25310,-0.950932,-0.411577,1.03266,0
25330,-0.95009,-0.407516,1.03182,0
25350,-0.94952,-0.404211,1.03186,0
25370,-0.94862,-0.40103,1.03229,0
25390,-0.947819,-0.399279,1.03133,0
25410,-0.947208,-0.398073,1.02972,0
25430,-0.94705,-0.396564,1.02649,0
25450,-0.946904,-0.394295,1.02433,0
25470,-0.9477,-0.391862,1.02311,0
25490,-0.948143,-0.389619,1.02184,0
25490,-0.948463,-0.38811,1.02199,0
25510,-0.948744,-0.387195,1.02219,0
25530,-0.94855,-0.387501,1.02167,0
25560,-0.947648,-0.388574,1.01825,0
25590,-0.945256,-0.386699,1.01455,0
25610,-0.946411,-0.39385,1.01595,0
25630,-0.948206,-0.398885,1.01566,0
25650,-0.950683,-0.398551,1.01358,0
25670,-0.953829,-0.397257,1.0123,0
25690,-0.954968,-0.398832,1.01268,0
25710,-0.954575,-0.400113,1.01206,0
25730,-0.953834,-0.400934,1.0113,0
25750,-0.951691,-0.400846,1.01071,0
25770,-0.9494,-0.400574,1.0104,0
25790,-0.947637,-0.400619,1.00946,0
25810,-0.94623,-0.401329,1.01166,0
25830,-0.944698,-0.401409,1.01614,0
25850,-0.944005,-0.400272,1.02044,0
25870,-0.943478,-0.399175,1.02243,0
25890,-0.944012,-0.398923,1.02359,0
25910,-0.942859,-0.399221,1.02658,0
25930,-0.940705,-0.401089,1.02894,0
25950,-0.938092,-0.403246,1.02916,0
25970,-0.936377,-0.404697,1.02968,0
25990,-0.934718,-0.406048,1.03077,0
26010,-0.932902,-0.40688,1.02903,0
26030,-0.933159,-0.407023,1.02577,0
26050,-0.934218,-0.406251,1.02519,0
26070,-0.934228,-0.404753,1.02432,0
26090,-0.934443,-0.403645,1.0227,0
26110,-0.93532,-0.403202,1.02059,0
26130,-0.936314,-0.402691,1.01818,0
26150,-0.936816,-0.401343,1.0152,0
26170,-0.936977,-0.400009,1.01176,0
26190,-0.936815,-0.399203,1.0082,0
26210,-0.936427,-0.398538,1.00524,0
26230,-0.936146,-0.39807,1.00227,0
26250,-0.93533,-0.397352,1.00012,0
26270,-0.934632,-0.39607,0.998311,0
26290,-0.933734,-0.395379,0.996597,0
26310,-0.932645,-0.394296,0.994285,0
26330,-0.932218,-0.3927,0.991503,0
26350,-0.931835,-0.390441,0.98763,0
26370,-0.931322,-0.387645,0.982489,0
26370,-0.930302,-0.384461,0.977047,0
26390,-0.92898,-0.380951,0.970568,0
26410,-0.928356,-0.377614,0.961955,0
26450,-0.926882,-0.372002,0.951554,0
26470,-0.928191,-0.369052,0.943888,0
26490,-0.927919,-0.36462,0.935151,0
26510,-0.926091,-0.360006,0.926301,0
26530,-0.923712,-0.355032,0.917192,0
26550,-0.922611,-0.348406,0.907855,0
26570,-0.922302,-0.340741,0.897995,0
26590,-0.92202,-0.331587,0.889256,0
26610,-0.920911,-0.32112,0.881424,0
26630,-0.921209,-0.30761,0.8719,0
26650,-0.920081,-0.293202,0.861262,0
26670,-0.919681,-0.278027,0.853602,0
26690,-0.921848,-0.262472,0.845798,0
26710,-0.924385,-0.244824,0.835976,0
26730,-0.925024,-0.226296,0.825805,0
26750,-0.92439,-0.208391,0.817225,0
26770,-0.925813,-0.191963,0.809971,0
26790,-0.927879,-0.175924,0.801671,0
26810,-0.927723,-0.161215,0.791983,0
26830,-0.927117,-0.147007,0.783349,0
26830,-0.926548,-0.132448,0.776341,0
26850,-0.927639,-0.118481,0.769672,0
26870,-0.9294,-0.104309,0.762499,0
26890,-0.930165,-0.0922104,0.753085,0
26910,-0.927416,-0.0780702,0.743866,0
26930,-0.927851,-0.0759871,0.740577,0
26950,-0.929402,-0.0697342,0.733517,0
26990,-0.930798,-0.0497424,0.723474,0
27010,-0.932694,-0.0244253,0.713477,0
27030,-0.933376,-0.0143035,0.703675,0
27050,-0.932252,-0.00944086,0.693309,0
27070,-0.92987,-0.00656085,0.684328,0
27090,-0.929178,-0.00454354,0.677251,0
27110,-0.930689,-0.00290177,0.672782,0
27130,-0.932803,-0.00131035,0.66903,0
27150,-0.935055,0.000204772,0.665044,0
27170,-0.938834,0.000916198,0.661578,0
27190,-0.942691,0.000311241,0.659229,0
27210,-0.946164,-0.00162442,0.657927,0
27230,-0.949981,-0.00633539,0.657257,0
27250,-0.951453,-0.0136832,0.655512,0
27270,-0.951013,-0.022606,0.654546,0
27290,-0.952485,-0.0345058,0.655069,0
27310,-0.956446,-0.0521203,0.657095,0
27330,-0.960405,-0.075008,0.65987,0
27350,-0.963945,-0.101703,0.664616,0
27370,-0.969559,-0.13066,0.672461,0
27370,-0.976473,-0.161805,0.682005,0
27390,-0.984077,-0.193599,0.692057,0
27390,-0.991721,-0.225683,0.702267,0
27410,-1.00045,-0.25612,0.714339,0
27410,-1.00824,-0.287008,0.725927,0
27430,-1.0165,-0.318532,0.736281,0
27430,-1.02778,-0.34918,0.747106,0
27450,-1.0392,-0.379599,0.757783,0
27450,-1.05134,-0.409298,0.768545,0
27540,-1.07872,-0.465659,0.793212,0
27600,-1.09288,-0.493194,0.806908,0
27620,-1.10949,-0.521269,0.819941,0
27640,-1.12673,-0.548236,0.829413,0
27660,-1.14268,-0.572314,0.839001,0
27680,-1.16022,-0.593615,0.850869,0
27700,-1.17738,-0.613186,0.860375,0
27720,-1.19456,-0.628771,0.866854,0
27740,-1.20884,-0.63848,0.87078,0
27760,-1.22057,-0.641495,0.873164,0
27780,-1.23011,-0.639093,0.873368,0
27800,-1.23878,-0.630378,0.87239,0
27820,-1.24549,-0.618377,0.870735,0
27830,-1.25206,-0.604842,0.868733,0
27850,-1.25877,-0.592115,0.866852,0
27870,-1.26378,-0.58167,0.862649,0
27890,-1.26421,-0.57284,0.857493,0
27910,-1.26113,-0.565389,0.851756,0
27930,-1.25592,-0.560861,0.846538,0
27950,-1.25021,-0.557883,0.840082,0
27970,-1.24388,-0.555013,0.833726,0
27990,-1.23745,-0.551703,0.82731,0
28010,-1.23047,-0.548253,0.820219,0
28030,-1.22398,-0.543258,0.813252,0
28050,-1.21886,-0.536686,0.804919,0
28070,-1.21109,-0.529341,0.794749,0
28090,-1.20206,-0.522346,0.783944,0
28110,-1.1933,-0.514604,0.772083,0
28130,-1.18477,-0.505696,0.759982,0
28150,-1.17743,-0.498496,0.749673,0
28170,-1.17114,-0.492384,0.740735,0
28190,-1.1653,-0.48666,0.733406,0
28210,-1.15854,-0.482784,0.726145,0
28230,-1.15082,-0.48066,0.718655,0
28250,-1.1458,-0.47926,0.713546,0
28270,-1.14283,-0.478082,0.710623,0
28290,-1.14005,-0.477573,0.709027,0
28310,-1.13654,-0.47795,0.70752,0
28330,-1.13368,-0.478809,0.70623,0
28350,-1.13291,-0.480156,0.705738,0
28370,-1.13319,-0.481114,0.705938,0
28390,-1.13358,-0.481617,0.706922,0
28410,-1.13257,-0.482257,0.707953,0
28430,-1.13166,-0.483011,0.709095,0
28450,-1.13076,-0.483728,0.709637,0
28470,-1.13066,-0.484017,0.710081,0
28490,-1.13005,-0.483583,0.710543,0
28510,-1.12925,-0.482506,0.710948,0
28530,-1.12811,-0.481026,0.711064,0
28550,-1.12627,-0.479108,0.710425,0
28570,-1.12426,-0.477016,0.709591,0
28590,-1.12285,-0.474511,0.709211,0
28610,-1.12179,-0.472121,0.709491,0
28630,-1.11934,-0.469749,0.709636,0
28650,-1.11724,-0.467727,0.710187,0
28670,-1.11575,-0.465903,0.710524,0
28690,-1.11461,-0.464131,0.710614,0
28710,-1.11355,-0.462444,0.711098,0
28730,-1.11196,-0.461255,0.711534,0
28750,-1.11085,-0.460447,0.712287,0
28770,-1.11007,-0.460022,0.713015,0
28790,-1.11004,-0.459626,0.71407,0
28810,-1.10981,-0.459389,0.715159,0
28830,-1.10954,-0.459625,0.715961,0
28850,-1.10915,-0.4604,0.716593,0
28870,-1.10903,-0.460995,0.717681,0
28890,-1.10895,-0.461349,0.718796,0
28910,-1.10896,-0.461977,0.719807,0
28930,-1.10887,-0.462494,0.720711,0
28950,-1.10914,-0.463439,0.721609,0
28970,-1.1099,-0.463858,0.722843,0
28990,-1.11084,-0.464197,0.724231,0
29010,-1.11143,-0.464442,0.725269,0
29030,-1.1119,-0.464867,0.726192,0
29050,-1.11206,-0.464574,0.72654,0
29070,-1.11206,-0.464574,0.72654,0
29090,-1.11228,-0.464635,0.72697,0
29110,-1.11264,-0.464589,0.727837,0
29130,-1.11267,-0.464313,0.72887,0
29150,-1.11255,-0.464167,0.729769,0
29170,-1.11249,-0.464246,0.730544,0
29190,-1.11272,-0.464193,0.731794,0
29210,-1.1127,-0.463972,0.733301,0
29230,-1.1123,-0.463977,0.734752,0
29250,-1.11209,-0.464191,0.737368,0
29270,-1.11207,-0.465292,0.741398,0
29290,-1.11144,-0.466792,0.746602,0
29310,-1.11171,-0.467509,0.752629,0
29330,-1.11404,-0.466844,0.75879,0
29350,-1.11746,-0.465624,0.764968,0
29370,-1.12175,-0.464207,0.77033,0
29390,-1.12719,-0.461869,0.776549,0
29410,-1.13247,-0.458873,0.782838,0
29430,-1.13701,-0.456212,0.788743,0
29450,-1.14276,-0.454071,0.794357,0
29470,-1.14995,-0.451491,0.799608,0
29490,-1.1585,-0.448351,0.805112,0
29510,-1.16689,-0.443905,0.810105,0
29530,-1.17445,-0.439039,0.814092,0
29550,-1.18142,-0.434583,0.817325,0
29570,-1.18868,-0.430083,0.819881,0
29590,-1.1957,-0.424709,0.822281,0
29610,-1.20118,-0.420021,0.824153,0
29630,-1.20703,-0.41562,0.824841,0
29650,-1.21205,-0.410692,0.82408,0
29670,-1.21708,-0.405012,0.82216,0
29690,-1.22175,-0.397831,0.819542,0
29710,-1.22338,-0.39006,0.81671,0
29730,-1.22275,-0.381956,0.814316,0
29750,-1.22242,-0.374088,0.812556,0
29770,-1.22248,-0.36687,0.810515,0
29790,-1.22314,-0.360428,0.809169,0
29810,-1.22541,-0.35415,0.809031,0
29830,-1.22824,-0.349279,0.809521,0
29850,-1.23122,-0.345677,0.809906,0
29860,-1.2318,-0.342297,0.80988,0
29860,-1.23153,-0.339657,0.810612,0
29890,-1.23121,-0.337642,0.81226,0
29920,-1.23291,-0.335455,0.816445,0
29940,-1.23275,-0.33291,0.816987,0
29960,-1.24026,-0.337563,0.823243,0
29980,-1.23793,-0.328403,0.821816,0
30000,-1.23581,-0.320791,0.823543,0
30020,-1.23605,-0.326572,0.827798,0
30040,-1.2374,-0.342258,0.832843,0
30060,-1.23819,-0.362631,0.837288,0
30080,-1.23704,-0.382503,0.8408,0
30100,-1.23273,-0.390285,0.842206,0
30120,-1.23307,-0.370703,0.843428,0
30140,-1.24229,-0.368262,0.848052,0
30160,-1.24455,-0.372298,0.853316,0
30180,-1.25588,-0.351678,0.860085,2000
30200,-1.2536,-0.353236,0.861782,0
30220,-1.2497,-0.366274,0.86202,0
30240,-1.25462,-0.372429,0.864688,0
30260,-1.26503,-0.368838,0.869261,0
30290,-1.27606,-0.360246,0.873867,0
30310,-1.28559,-0.352624,0.877801,0
30330,-1.28744,-0.357525,0.878524,0
30350,-1.28763,-0.356549,0.876107,0
30370,-1.28908,-0.354023,0.876438,0
30390,-1.2909,-0.3518,0.876754,0
30410,-1.29302,-0.350104,0.876798,0
30420,-1.29328,-0.348741,0.876629,0
30440,-1.29335,-0.347842,0.876471,0
30440,-1.29415,-0.347046,0.876712,0
30460,-1.2942,-0.346855,0.876739,0
30480,-1.29439,-0.347002,0.876949,0
30500,-1.29418,-0.347167,0.877306,0
30510,-1.2947,-0.347319,0.877849,0
30520,-1.29543,-0.346964,0.878741,0
30540,-1.29598,-0.34688,0.879596,0
30560,-1.29628,-0.346609,0.88083,0
30570,-1.29702,-0.346329,0.882603,0
30580,-1.29825,-0.345478,0.884788,0
30600,-1.30002,-0.344298,0.886713,0
30620,-1.30264,-0.343366,0.888432,0
30640,-1.30475,-0.342159,0.889826,0
30640,-1.30583,-0.340728,0.891013,0
30660,-1.3065,-0.339661,0.89164,0
30680,-1.30607,-0.337559,0.892192,0
30700,-1.30555,-0.335949,0.8923,0
30700,-1.30575,-0.335726,0.892356,0
30720,-1.30623,-0.334576,0.892662,0
30740,-1.30619,-0.332937,0.893133,0
30760,-1.30624,-0.332745,0.893159,0
30760,-1.30683,-0.331752,0.893164,0
30780,-1.30758,-0.330074,0.893337,0
30800,-1.30807,-0.328272,0.893781,0
30820,-1.30829,-0.326342,0.89381,0
30820,-1.30867,-0.324851,0.893323,0
30840,-1.30889,-0.323032,0.893264,0
30860,-1.30913,-0.320867,0.893608,0
30880,-1.30936,-0.318765,0.893843,0
30890,-1.30946,-0.318335,0.893875,0
30900,-1.30946,-0.317808,0.893794,0
30920,-1.30934,-0.317066,0.894431,0
30940,-1.31056,-0.318087,0.895377,0
30940,-1.31203,-0.319891,0.896905,0
30960,-1.31398,-0.322668,0.898947,0
30980,-1.31621,-0.326347,0.900756,0
31000,-1.31888,-0.330294,0.902833,0
31000,-1.32212,-0.333964,0.904996,0
31020,-1.32557,-0.337296,0.907328,0
31040,-1.32935,-0.3411,0.909404,0
31060,-1.33213,-0.345643,0.910823,0
31070,-1.33479,-0.349792,0.912489,0
31080,-1.33718,-0.35316,0.91387,0
31100,-1.3394,-0.356677,0.914146,0
31120,-1.34167,-0.359536,0.913942,0
31130,-1.34291,-0.361931,0.914251,0
31160,-1.34389,-0.364921,0.914605,0
31180,-1.3445,-0.367866,0.914909,0
31190,-1.34524,-0.370846,0.915449,0
31200,-1.34705,-0.373989,0.91592,0
31220,-1.3488,-0.37775,0.916191,0
31240,-1.35032,-0.381075,0.917147,0
31260,-1.35139,-0.384793,0.918652,0
31260,-1.35207,-0.389139,0.919876,0
31280,-1.35342,-0.393302,0.921622,0
31310,-1.35525,-0.396894,0.92366,0
31360,-1.35688,-0.400408,0.925375,0
31430,-1.35963,-0.406997,0.928977,0
31480,-1.3606,-0.410165,0.930719,0
31540,-1.36128,-0.413088,0.932233,0
31600,-1.36196,-0.416314,0.933161,0
31640,-1.36193,-0.419019,0.934147,0
31680,-1.36182,-0.421858,0.934646,0
31700,-1.36157,-0.424235,0.934206,0
31720,-1.36162,-0.42643,0.933615,0
31740,-1.36242,-0.428905,0.932976,0
31760,-1.36331,-0.43155,0.93193,0
31780,-1.36369,-0.434422,0.930295,0
31800,-1.36419,-0.437332,0.928592,0
31820,-1.36427,-0.440698,0.926523,0
31840,-1.36438,-0.444738,0.923756,0
31860,-1.36476,-0.448734,0.921251,0
31880,-1.36538,-0.452879,0.91869,0
31900,-1.36653,-0.457612,0.916139,0
31920,-1.36819,-0.462574,0.913711,0
31940,-1.36978,-0.467129,0.911266,0
31960,-1.37216,-0.471679,0.909096,0
31980,-1.37444,-0.476018,0.906596,0
32000,-1.37684,-0.480472,0.904253,0
32020,-1.37898,-0.485179,0.901786,0
32040,-1.38164,-0.48974,0.900338,0
32060,-1.38397,-0.493939,0.898425,0
32080,-1.38602,-0.498524,0.895872,0
32100,-1.38833,-0.50334,0.893003,0
32120,-1.39052,-0.508394,0.889743,0
32140,-1.39218,-0.513241,0.886254,0
32160,-1.3935,-0.517904,0.883009,0
32180,-1.39511,-0.523427,0.879681,0
32200,-1.39694,-0.52824,0.876276,0
32220,-1.39958,-0.533205,0.872986,0
32240,-1.40169,-0.538484,0.869113,0
32260,-1.40391,-0.544043,0.864787,0
32280,-1.40631,-0.548539,0.859976,0
32300,-1.40789,-0.553191,0.854793,0
32320,-1.40894,-0.557545,0.849763,0
32340,-1.41021,-0.561565,0.844991,0
32360,-1.41174,-0.565781,0.839906,0
32380,-1.41318,-0.56973,0.834397,0
32400,-1.41465,-0.573499,0.829093,0
32420,-1.41642,-0.577176,0.824181,0
32440,-1.41681,-0.581058,0.817521,0
32460,-1.41719,-0.58433,0.810742,0
32480,-1.41712,-0.587602,0.803938,0
32500,-1.41733,-0.590991,0.797224,0
32520,-1.41794,-0.594703,0.79035,0
32540,-1.41868,-0.597733,0.783287,0
32560,-1.41938,-0.600285,0.7761,0
32580,-1.41969,-0.602648,0.768702,0
32600,-1.41979,-0.604595,0.761328,0
32620,-1.41998,-0.606145,0.754266,0
32640,-1.42005,-0.607367,0.747553,0
32660,-1.42029,-0.608668,0.740805,0
32680,-1.42051,-0.610146,0.733769,0
32710,-1.42027,-0.612407,0.719787,0
32730,-1.41996,-0.613772,0.713398,0
32740,-1.41998,-0.617273,0.699682,0
32770,-1.41815,-0.620768,0.685245,0
32790,-1.41741,-0.622408,0.678272,0
32810,-1.4161,-0.624053,0.670844,0
32830,-1.41457,-0.62547,0.663249,0
32850,-1.41362,-0.626793,0.656506,0
32870,-1.41277,-0.627481,0.650263,0
32890,-1.41134,-0.62799,0.643939,0
32910,-1.41102,-0.628143,0.638523,0
32920,-1.41013,-0.62843,0.63256,0
32940,-1.4102,-0.628346,0.627171,0
32960,-1.41028,-0.628297,0.622076,0
32980,-1.40941,-0.628562,0.616038,0
33000,-1.40891,-0.629385,0.609838,0
33020,-1.40848,-0.630242,0.603469,0
33040,-1.4077,-0.631133,0.596906,0
33060,-1.40728,-0.632809,0.589987,0
33080,-1.40707,-0.634339,0.582942,0
33100,-1.40716,-0.636216,0.575518,0
33120,-1.40657,-0.637836,0.567605,0
33140,-1.40592,-0.639828,0.559864,0
33160,-1.40533,-0.642006,0.552341,0
33180,-1.40476,-0.644289,0.543491,0
33200,-1.4039,-0.646293,0.534353,0
33220,-1.4029,-0.647443,0.525748,0
33240,-1.40141,-0.648584,0.517094,0
33260,-1.39967,-0.649822,0.508166,0
33280,-1.39747,-0.650278,0.498724,0
33300,-1.39534,-0.649829,0.489308,0
33320,-1.39339,-0.649201,0.480343,0
33340,-1.39114,-0.647963,0.471017,0
33360,-1.38839,-0.645723,0.461557,0
33380,-1.3849,-0.643306,0.45227,0
33400,-1.38239,-0.640669,0.443793,0
33420,-1.37912,-0.637129,0.435499,0
33440,-1.37607,-0.633793,0.427672,0
33460,-1.37266,-0.631076,0.419742,0
33480,-1.36945,-0.628472,0.411706,0
33500,-1.36672,-0.625838,0.404594,0
33520,-1.36403,-0.623117,0.397226,0
33540,-1.36056,-0.620793,0.389806,0
33560,-1.35626,-0.619087,0.382329,0
33580,-1.35267,-0.618396,0.375018,0
33600,-1.34886,-0.617464,0.367758,0
33620,-1.34509,-0.616048,0.360258,0
33640,-1.34141,-0.613891,0.352487,0
33660,-1.338,-0.610552,0.345243,0
33680,-1.33392,-0.606666,0.337961,0
33700,-1.3306,-0.6033,0.330715,0
33720,-1.32854,-0.599472,0.324529,0
33740,-1.3272,-0.595441,0.319799,0
33760,-1.32591,-0.592401,0.314924,0
33780,-1.32399,-0.58939,0.309969,0
33800,-1.32137,-0.586825,0.305179,0
33820,-1.31945,-0.5852,0.301143,0
33840,-1.31734,-0.584078,0.296953,0
33860,-1.31523,-0.583433,0.293087,0
33880,-1.31342,-0.582691,0.28921,0
33900,-1.31205,-0.581554,0.285224,0
33920,-1.31007,-0.578722,0.281596,0
33940,-1.30734,-0.576225,0.278108,0
33960,-1.30497,-0.574102,0.274799,0
33990,-1.30215,-0.568319,0.269497,0
34020,-1.3002,-0.561002,0.265259,0
34040,-1.29897,-0.557801,0.263212,0
34060,-1.29699,-0.554593,0.261261,0
34080,-1.29527,-0.551466,0.259469,0
34100,-1.29354,-0.548555,0.257842,0
34120,-1.29224,-0.545676,0.25605,0
34150,-1.28952,-0.539913,0.254203,0
34170,-1.28845,-0.537871,0.253962,0
34190,-1.28673,-0.5358,0.253656,0
34210,-1.28456,-0.534288,0.253716,0
34230,-1.28209,-0.53251,0.253649,0
34250,-1.27968,-0.530063,0.253854,0
34270,-1.27796,-0.527681,0.254242,0
34290,-1.27676,-0.524366,0.254676,0
34310,-1.27508,-0.519684,0.254624,0
34330,-1.27307,-0.515101,0.254744,0
34350,-1.27207,-0.511603,0.255913,0
34370,-1.27164,-0.508527,0.257449,0
34390,-1.27104,-0.505811,0.259094,0
34410,-1.2704,-0.503504,0.260675,0
34430,-1.26955,-0.501033,0.262684,0
34450,-1.26974,-0.498987,0.265529,0
34470,-1.27052,-0.498245,0.268446,0
34490,-1.27119,-0.497056,0.271486,0
34510,-1.27218,-0.495353,0.275024,0
34530,-1.2738,-0.493631,0.278617,0
34550,-1.2754,-0.49215,0.28281,0
34570,-1.27653,-0.490104,0.287047,0
34590,-1.27752,-0.487953,0.290986,0
34610,-1.27786,-0.485176,0.294576,0
34630,-1.2796,-0.482571,0.298456,0
34650,-1.28201,-0.480386,0.302063,0
34670,-1.28412,-0.477837,0.305185,0
34690,-1.28513,-0.474684,0.308396,0
34710,-1.28533,-0.472255,0.311255,0
34730,-1.28545,-0.470966,0.313701,0
34750,-1.28655,-0.4694,0.316114,0
34770,-1.28935,-0.468286,0.318575,0
34790,-1.29287,-0.467295,0.320716,0
34810,-1.29493,-0.466016,0.323389,0
34830,-1.29568,-0.465113,0.326378,0
34850,-1.29655,-0.465008,0.329406,0
34870,-1.29873,-0.464573,0.33293,0
34890,-1.30236,-0.463713,0.337443,0
34910,-1.3068,-0.462796,0.342495,0
34930,-1.31012,-0.461608,0.347694,0
34950,-1.31258,-0.459646,0.352956,0
34970,-1.31483,-0.457385,0.358379,0
34990,-1.31789,-0.455002,0.363974,0
35010,-1.32134,-0.452449,0.369928,0
35030,-1.32413,-0.450145,0.375992,0
35050,-1.32555,-0.448399,0.381995,0
35070,-1.32707,-0.447114,0.388256,0
35090,-1.3288,-0.445287,0.394326,0
35110,-1.3312,-0.442966,0.400566,0
35130,-1.3335,-0.440899,0.406667,0
35150,-1.3356,-0.438465,0.413027,0
35170,-1.33718,-0.435904,0.419382,0
35190,-1.33889,-0.433409,0.425565,0
35210,-1.34125,-0.430604,0.431714,0
35230,-1.34328,-0.427867,0.43815,0
35250,-1.34456,-0.426068,0.444562,0
35270,-1.34557,-0.424535,0.45081,0
35290,-1.34674,-0.42217,0.45705,0
35310,-1.34842,-0.419995,0.463188,0
35330,-1.35002,-0.418107,0.469666,0
35350,-1.35111,-0.416603,0.476011,0
35370,-1.3519,-0.415385,0.482111,0
35390,-1.35291,-0.414448,0.488053,0
35410,-1.35417,-0.413377,0.494322,0
35430,-1.35532,-0.413158,0.500262,0
35450,-1.35623,-0.412731,0.506159,0
35470,-1.35674,-0.411833,0.51229,0
35490,-1.35648,-0.4113,0.518083,0
35500,-1.35621,-0.410923,0.523688,0
35520,-1.35657,-0.410174,0.529244,0
35540,-1.35651,-0.409325,0.535012,0
35560,-1.35666,-0.409068,0.541066,0
35580,-1.35696,-0.408883,0.546593,0
35600,-1.3583,-0.408388,0.551494,0
35620,-1.35959,-0.407382,0.556777,0
35640,-1.36045,-0.406639,0.562252,0
35660,-1.36074,-0.406136,0.56724,0
35680,-1.36169,-0.404995,0.572574,0
35700,-1.36294,-0.404465,0.577928,0
35720,-1.3642,-0.404151,0.583467,0
35740,-1.36525,-0.403718,0.588979,0
35760,-1.36635,-0.403634,0.594199,0
35780,-1.36753,-0.403262,0.599181,0
35800,-1.36871,-0.402484,0.604173,0
35820,-1.36955,-0.401433,0.609406,0
35840,-1.37061,-0.400264,0.614855,0
35860,-1.37211,-0.399383,0.620675,0
35900,-1.37709,-0.393884,0.648032,0
35920,-1.37725,-0.392783,0.653813,0
35940,-1.37776,-0.391394,0.65996,0
35960,-1.37911,-0.389913,0.666253,0
35980,-1.38122,-0.388448,0.672766,0
35980,-1.38279,-0.386594,0.679202,0
36000,-1.38389,-0.384673,0.686028,0
36020,-1.38531,-0.38277,0.693196,0
36040,-1.38769,-0.381143,0.700711,0
36040,-1.39001,-0.379769,0.708114,0
36060,-1.39216,-0.378668,0.715206,0
36080,-1.39395,-0.377598,0.722152,0
36100,-1.39564,-0.376569,0.728793,0
36100,-1.39699,-0.375792,0.735486,0
36120,-1.39797,-0.375125,0.741934,0
36140,-1.39908,-0.374601,0.74811,0
36160,-1.40073,-0.373966,0.754472,0
36160,-1.40219,-0.373895,0.760537,0
36180,-1.40375,-0.373746,0.76613,0
36200,-1.40566,-0.373528,0.772173,0
36220,-1.40733,-0.373687,0.778274,0
36240,-1.40875,-0.374601,0.784066,0
36240,-1.41002,-0.375341,0.789348,0
36260,-1.41232,-0.375998,0.794417,0
36280,-1.4142,-0.376532,0.799151,0
36300,-1.41566,-0.377042,0.804008,0
36300,-1.4173,-0.377147,0.809282,0
36320,-1.41916,-0.377726,0.815085,0
36340,-1.42128,-0.377797,0.820932,0
36360,-1.42352,-0.377767,0.827098,0
36360,-1.42583,-0.377826,0.833572,0
36380,-1.4284,-0.377915,0.840084,0
36400,-1.43067,-0.378253,0.846784,0
36420,-1.43214,-0.378583,0.853441,0
36420,-1.43327,-0.37918,0.859478,0
36440,-1.43483,-0.379448,0.865107,0
36460,-1.43641,-0.379522,0.870934,0
36480,-1.43815,-0.379869,0.876982,0
36490,-1.43978,-0.381149,0.882764,0
36500,-1.44158,-0.382399,0.888598,0
36520,-1.44336,-0.383783,0.894425,0
36540,-1.44522,-0.385641,0.900206,0
36560,-1.44724,-0.388011,0.906235,0
36560,-1.44901,-0.390335,0.912741,0
36580,-1.45008,-0.393043,0.918938,0
36620,-1.45117,-0.396399,0.924505,0
36670,-1.45331,-0.39942,0.929867,0
36720,-1.45555,-0.402066,0.935146,0
36780,-1.45731,-0.405401,0.940595,0
36840,-1.45914,-0.408486,0.94606,0
36880,-1.46093,-0.41109,0.951605,0
36920,-1.46255,-0.4137,0.956538,0
36940,-1.46383,-0.41607,0.961408,0
36960,-1.46607,-0.418056,0.966857,0
36980,-1.46848,-0.420144,0.97216,0
37000,-1.47054,-0.422321,0.977009,0
37020,-1.47344,-0.424284,0.981713,0
37040,-1.47654,-0.425824,0.986652,0
37060,-1.47986,-0.428006,0.99149,0
37080,-1.48302,-0.429541,0.996163,0
37100,-1.48541,-0.431044,1.00069,0
37120,-1.48708,-0.433594,1.00456,0
37140,-1.48891,-0.436377,1.00819,0
37160,-1.49055,-0.438508,1.01195,0
37180,-1.49135,-0.441256,1.0156,0
37200,-1.49201,-0.444543,1.01928,0
37220,-1.49286,-0.447493,1.02278,0
37240,-1.49441,-0.45012,1.02599,0
37260,-1.49682,-0.452367,1.02968,0
37280,-1.4991,-0.454842,1.03305,0
37300,-1.50155,-0.457035,1.03625,0
37320,-1.50393,-0.458558,1.03916,0
37340,-1.50632,-0.46022,1.04169,0
37360,-1.50871,-0.462403,1.04398,0
37380,-1.51212,-0.468345,1.04691,0
37400,-1.5121,-0.471648,1.04727,0
37410,-1.51166,-0.475622,1.04772,0
37430,-1.51203,-0.479747,1.04805,0
37450,-1.51281,-0.483973,1.04861,0
37490,-1.51315,-0.493912,1.0487,0
37510,-1.51287,-0.4988,1.04891,0
37530,-1.51272,-0.504071,1.04846,0
37550,-1.51298,-0.509786,1.04798,0
37570,-1.51369,-0.514948,1.04796,0
37590,-1.51384,-0.52064,1.04746,0
37610,-1.51443,-0.525946,1.04663,0
37620,-1.51598,-0.530819,1.04506,0
37640,-1.51728,-0.535555,1.04384,0
37660,-1.51817,-0.540566,1.04286,0
37680,-1.51768,-0.545972,1.04128,0
37700,-1.51733,-0.551053,1.03938,0
37720,-1.51697,-0.55647,1.03722,0
37740,-1.51675,-0.562077,1.03481,0
37760,-1.51641,-0.567518,1.03277,0
37780,-1.51648,-0.572406,1.03077,0
37800,-1.51626,-0.576932,1.02802,0
37820,-1.51504,-0.581753,1.02482,0
37840,-1.51368,-0.586876,1.02162,0
37860,-1.51287,-0.5914,1.0187,0
37880,-1.51207,-0.595952,1.01569,0
37900,-1.51069,-0.600553,1.0124,0
37920,-1.50929,-0.605107,1.009,0
37940,-1.50874,-0.609168,1.00557,0
37960,-1.50818,-0.612894,1.0022,0
37980,-1.50762,-0.616824,0.998854,0
37990,-1.50734,-0.620437,0.995444,0
38010,-1.50806,-0.623815,0.992102,0
38030,-1.50846,-0.626464,0.988252,0
38050,-1.50888,-0.62931,0.984752,0
38070,-1.50875,-0.632266,0.981406,0
38090,-1.50843,-0.634607,0.977399,0
38110,-1.50823,-0.636813,0.972895,0
38130,-1.50863,-0.638831,0.968971,0
38150,-1.5092,-0.641238,0.965156,0
38170,-1.50901,-0.643599,0.96079,0
38190,-1.50822,-0.645764,0.955793,0
38210,-1.50771,-0.648164,0.950716,0
38230,-1.50796,-0.650228,0.946043,0
38250,-1.50762,-0.653137,0.941405,0
38270,-1.50711,-0.656897,0.936631,0
38290,-1.5072,-0.660517,0.931929,0
38310,-1.50743,-0.664199,0.926978,0
38330,-1.5075,-0.667864,0.921875,0
38350,-1.50759,-0.671176,0.917246,0
38370,-1.50695,-0.67505,0.91296,0
38390,-1.50643,-0.679413,0.908274,0
38410,-1.50714,-0.683256,0.90424,0
38430,-1.50844,-0.686763,0.900068,0
38450,-1.5096,-0.69,0.895505,0
38470,-1.51047,-0.693293,0.891057,0
38490,-1.51135,-0.696907,0.886974,0
38510,-1.51224,-0.70008,0.882629,0
38530,-1.5131,-0.70286,0.877313,0
38550,-1.51351,-0.705276,0.87158,0
38570,-1.51377,-0.707677,0.865693,0
38590,-1.51359,-0.70949,0.859879,0
38610,-1.51294,-0.711511,0.854028,0
38630,-1.5115,-0.713435,0.84697,0
38650,-1.51007,-0.715293,0.840108,0
38670,-1.5093,-0.716632,0.833213,0
38690,-1.50823,-0.717407,0.82534,0
38710,-1.50707,-0.717629,0.817257,0
38730,-1.50435,-0.717728,0.808614,0
38750,-1.502,-0.717502,0.800278,0
38770,-1.50013,-0.717749,0.791982,0
38790,-1.49752,-0.717813,0.782706,0
38810,-1.49475,-0.718263,0.773731,0
38830,-1.49256,-0.719372,0.765954,0
38850,-1.48997,-0.721193,0.75862,0
38870,-1.48687,-0.723628,0.750955,0
38890,-1.4847,-0.726059,0.743635,0
38910,-1.48297,-0.728824,0.736903,0
38930,-1.4807,-0.73213,0.729824,0
38950,-1.47782,-0.736384,0.722409,0
38970,-1.47503,-0.741057,0.714956,0
38990,-1.47253,-0.745905,0.707313,0
39010,-1.46984,-0.750856,0.698904,0
39030,-1.46646,-0.755813,0.690513,0
39050,-1.46291,-0.760567,0.682607,0
39070,-1.4597,-0.764974,0.6742,0
39090,-1.45713,-0.768455,0.665641,0
39110,-1.45451,-0.771071,0.657377,0
39130,-1.45211,-0.773166,0.649361,0
39150,-1.44912,-0.775004,0.640686,0
39170,-1.44581,-0.77589,0.631327,0
39190,-1.44257,-0.776443,0.622369,0
39210,-1.43788,-0.776805,0.612835,0
39230,-1.43298,-0.777314,0.603538,0
39250,-1.42863,-0.777541,0.594843,0
39270,-1.42338,-0.778218,0.585526,0
39290,-1.41872,-0.778522,0.577006,0
39310,-1.41426,-0.778585,0.568671,0
39330,-1.41062,-0.778724,0.561057,0
39350,-1.40674,-0.779169,0.553557,0
39370,-1.40278,-0.779275,0.545926,0
39390,-1.39969,-0.779259,0.539025,0
39410,-1.39675,-0.779295,0.53229,0
39430,-1.39364,-0.779481,0.52539,0
39450,-1.38985,-0.779194,0.518022,0
39470,-1.3864,-0.778806,0.510999,0
39490,-1.38387,-0.778327,0.504235,0
39510,-1.381,-0.777904,0.497348,0
39530,-1.37818,-0.777931,0.490676,0
39550,-1.37483,-0.777913,0.483912,0
39570,-1.37147,-0.778043,0.476671,0
39590,-1.36918,-0.777622,0.470122,0
39610,-1.36633,-0.776809,0.46347,0
39630,-1.36325,-0.776118,0.457121,0
39650,-1.36077,-0.775594,0.451397,0
39670,-1.35817,-0.775318,0.445737,0
39690,-1.35568,-0.775115,0.44051,0
39710,-1.35379,-0.77502,0.4351,0
39730,-1.35158,-0.774109,0.429819,0
39750,-1.34957,-0.773311,0.42478,0
39770,-1.34666,-0.773074,0.419023,0
39790,-1.34347,-0.772255,0.413547,0
39810,-1.34084,-0.771695,0.408572,0
39830,-1.33813,-0.770546,0.403038,0
39850,-1.33517,-0.769302,0.397405,0
39870,-1.332,-0.767564,0.392394,0
39890,-1.32905,-0.76627,0.387352,0
39910,-1.32627,-0.765004,0.382293,0
39930,-1.32353,-0.762805,0.377498,0
39950,-1.32111,-0.76042,0.372831,0
39970,-1.31839,-0.758163,0.368365,0
39990,-1.31622,-0.755676,0.364524,0
40010,-1.31445,-0.753391,0.360606,0
40030,-1.31217,-0.750688,0.356367,0
40050,-1.30954,-0.748028,0.352285,0
40070,-1.30698,-0.745867,0.348502,0
40090,-1.30513,-0.743928,0.345265,0
40110,-1.30353,-0.742503,0.342371,0
40130,-1.30135,-0.741004,0.338988,0
40150,-1.29877,-0.739808,0.336103,0
40170,-1.29677,-0.7387,0.333361,0
40190,-1.29511,-0.738056,0.330874,0
40210,-1.29258,-0.736847,0.327745,0
40230,-1.29038,-0.735066,0.325457,0
40250,-1.28877,-0.733623,0.323753,0
40270,-1.28737,-0.732516,0.322179,0
40290,-1.28615,-0.730881,0.321103,0
40310,-1.28569,-0.729279,0.320593,0
40330,-1.2852,-0.728005,0.319377,0
40350,-1.28541,-0.726709,0.319002,0
40370,-1.28503,-0.725662,0.318473,0
40390,-1.28453,-0.725195,0.317172,0
40410,-1.28343,-0.724347,0.314961,0
40430,-1.28238,-0.723216,0.312771,0
40450,-1.28126,-0.722357,0.310158,0
40470,-1.27918,-0.721191,0.307128,0
40490,-1.27682,-0.720059,0.304121,0
40510,-1.27567,-0.719284,0.301678,0
40530,-1.27446,-0.718296,0.298971,0
40550,-1.27315,-0.717406,0.295918,0
40570,-1.27205,-0.716309,0.293164,0
40590,-1.27134,-0.715102,0.290653,0
40600,-1.27009,-0.714048,0.28784,0
40620,-1.26828,-0.713004,0.28485,0
40640,-1.26628,-0.712165,0.281574,0
40660,-1.26409,-0.711545,0.278677,0
40680,-1.26203,-0.710884,0.276119,0
40700,-1.26007,-0.710685,0.273367,0
40720,-1.25833,-0.710418,0.270783,0
40740,-1.25635,-0.710314,0.268589,0
40760,-1.25454,-0.71046,0.266877,0
40780,-1.25275,-0.710547,0.264918,0
40800,-1.25127,-0.710375,0.263184,0
40820,-1.25093,-0.710065,0.262344,0
40840,-1.25006,-0.710214,0.26098,0
40860,-1.24858,-0.710293,0.260076,0
40880,-1.24861,-0.71035,0.26006,0
40900,-1.24861,-0.71035,0.26006,0
40920,-1.24851,-0.710224,0.259953,0
40940,-1.24834,-0.710264,0.259882,0
40960,-1.2486,-0.709719,0.260227,0
40980,-1.24926,-0.708672,0.260874,0
41000,-1.24937,-0.707278,0.26125,0
41020,-1.2487,-0.705878,0.261656,0
41040,-1.248,-0.704483,0.262327,0
41060,-1.24812,-0.703264,0.263641,0
41080,-1.24771,-0.701719,0.264065,0
41100,-1.24725,-0.700026,0.26448,0
41120,-1.24721,-0.698695,0.265188,0
41140,-1.24694,-0.698059,0.265827,0
41160,-1.24635,-0.697287,0.266569,0
41180,-1.24663,-0.696741,0.267671,0
41200,-1.24723,-0.695961,0.268635,0
41220,-1.24802,-0.695588,0.269325,0
41240,-1.24895,-0.695022,0.26981,0
41260,-1.25,-0.694088,0.270176,0
41280,-1.25073,-0.693331,0.270693,0
41300,-1.25036,-0.692731,0.270736,0
41320,-1.25028,-0.692662,0.270615,0
41340,-1.25033,-0.69242,0.27095,0
41360,-1.25023,-0.692296,0.270843,0
41380,-1.25006,-0.69265,0.270825,0
41400,-1.24957,-0.692946,0.270535,0
41420,-1.24949,-0.693289,0.27075,0
41440,-1.2498,-0.693289,0.270774,0
41460,-1.24977,-0.693353,0.270263,0
41480,-1.24967,-0.693229,0.270156,0
41500,-1.24967,-0.693229,0.270156,0
41520,-1.24942,-0.693064,0.270093,0
41540,-1.24932,-0.69294,0.269986,0
41560,-1.24934,-0.692995,0.269971,0
41580,-1.24943,-0.692652,0.269756,0
41600,-1.24914,-0.692513,0.269596,0
41620,-1.24937,-0.6926,0.270034,0
41640,-1.24937,-0.6926,0.270034,0
41660,-1.24911,-0.692516,0.269859,0
41680,-1.24907,-0.692519,0.270122,0
41700,-1.24877,-0.692536,0.270498,0
41720,-1.24821,-0.69247,0.2707,0
41740,-1.24859,-0.692206,0.271418,0
41760,-1.24956,-0.691712,0.272284,0
41780,-1.25029,-0.69119,0.272961,0
41800,-1.25006,-0.690787,0.273496,0
41820,-1.25037,-0.690239,0.274329,0
41840,-1.25131,-0.690139,0.275131,0
41860,-1.25208,-0.689454,0.276029,0
41880,-1.25244,-0.688822,0.276708,0
41900,-1.25254,-0.688242,0.277088,0
41920,-1.25306,-0.687784,0.277597,0
41940,-1.25353,-0.687255,0.277722,0
41960,-1.25376,-0.686562,0.277784,0
41980,-1.25376,-0.686562,0.277784,0
42000,-1.25369,-0.686493,0.277663,0
42020,-1.25381,-0.68599,0.277668,0
42040,-1.25354,-0.685907,0.277495,0
42060,-1.25354,-0.685907,0.277495,0
42080,-1.25354,-0.685907,0.277495,0
42100,-1.25347,-0.685839,0.277374,0
42120,-1.25308,-0.685712,0.276982,0
42140,-1.25289,-0.685698,0.27693,0
42160,-1.25282,-0.685629,0.276809,0
42180,-1.25282,-0.685629,0.276809,0
42200,-1.25265,-0.68567,0.276743,0
42220,-1.25272,-0.686052,0.276914,0
42240,-1.25311,-0.686353,0.277218,0
42260,-1.25339,-0.686669,0.277554,0
42280,-1.25363,-0.686442,0.277939,0
42300,-1.25391,-0.686054,0.278547,0
42320,-1.25381,-0.685931,0.278439,0
42340,-1.25383,-0.685985,0.278426,0
42360,-1.25383,-0.685985,0.278426,0
42380,-1.25399,-0.685712,0.27833,0
42400,-1.25392,-0.685643,0.278209,0
42420,-1.25393,-0.685563,0.27832,0
42440,-1.25393,-0.685017,0.278107,0
42460,-1.25405,-0.684417,0.277826,0
42480,-1.25431,-0.683722,0.277624,0
42500,-1.25453,-0.683343,0.277736,0
42520,-1.25446,-0.683274,0.277616,0
42540,-1.25427,-0.68326,0.277564,0
42560,-1.25419,-0.683191,0.277443,0
42580,-1.254,-0.683177,0.277391,0
42600,-1.25344,-0.683014,0.277308,0
42620,-1.25325,-0.683,0.277256,0
42640,-1.25318,-0.682931,0.277136,0
42660,-1.25377,-0.682678,0.277638,0
42680,-1.25358,-0.682664,0.277586,0
42700,-1.25376,-0.682311,0.277601,0
42720,-1.25448,-0.681946,0.277786,0
42740,-1.25452,-0.68192,0.277883,0
42760,-1.25443,-0.681797,0.277776,0
42780,-1.25426,-0.681837,0.27771,0
42800,-1.25452,-0.681688,0.277721,0
42820,-1.25471,-0.681958,0.277575,0
42840,-1.25524,-0.682416,0.277312,0
42860,-1.25549,-0.682737,0.276889,0
42880,-1.25523,-0.682812,0.276233,0
42900,-1.25487,-0.682899,0.275344,0
42920,-1.25411,-0.68335,0.274292,0
42940,-1.25359,-0.683318,0.273822,0
42960,-1.25319,-0.68343,0.272836,0
42980,-1.25303,-0.683474,0.271751,0
43000,-1.25349,-0.682466,0.271158,0
43020,-1.2536,-0.681111,0.271167,0
43040,-1.25356,-0.680337,0.271058,0
43060,-1.25352,-0.679388,0.271038,0
43080,-1.25395,-0.67834,0.271872,0
43100,-1.25445,-0.677105,0.273022,0
43120,-1.25531,-0.675943,0.274572,0
43140,-1.25616,-0.674549,0.275959,0
43160,-1.25728,-0.672672,0.277661,0
43180,-1.25833,-0.669894,0.279632,0
43200,-1.25877,-0.667196,0.281191,0
43210,-1.25895,-0.663952,0.283007,0
43230,-1.25871,-0.66,0.2845,0
43250,-1.25847,-0.656266,0.285763,0
43270,-1.2583,-0.652608,0.287142,0
43290,-1.258,-0.648862,0.288319,0
43310,-1.25797,-0.64495,0.28986,0
43330,-1.25828,-0.641498,0.291468,0
43350,-1.2584,-0.638455,0.29257,0
43370,-1.25861,-0.635581,0.293803,0
43390,-1.25892,-0.632601,0.294978,0
43410,-1.25911,-0.630018,0.295873,0
43430,-1.25925,-0.627771,0.296722,0
43450,-1.2593,-0.625408,0.297467,0
43470,-1.25881,-0.623271,0.297836,0
43490,-1.25863,-0.621363,0.298371,0
43510,-1.2584,-0.619666,0.298201,0
43530,-1.2584,-0.61823,0.297616,0
43550,-1.25808,-0.616874,0.296921,0
43570,-1.25741,-0.615774,0.296284,0
43590,-1.25651,-0.615351,0.295596,0
43610,-1.2566,-0.614867,0.295117,0
43630,-1.25847,-0.613346,0.295374,0
43650,-1.26063,-0.611447,0.295948,0
43670,-1.2625,-0.609318,0.297096,0
43690,-1.26354,-0.607732,0.298781,0
43710,-1.26376,-0.606345,0.300222,0
43730,-1.26495,-0.60517,0.302274,0
43750,-1.26643,-0.603616,0.30464,0
43770,-1.2674,-0.601775,0.307543,0
43790,-1.2686,-0.600084,0.311231,0
43810,-1.26998,-0.59865,0.315501,0
43830,-1.27104,-0.597324,0.319302,0
43850,-1.273,-0.595784,0.323551,0
43870,-1.27582,-0.594006,0.327891,0
43890,-1.27814,-0.592277,0.331695,0
43910,-1.28042,-0.589918,0.336023,0
43930,-1.28203,-0.587728,0.340401,0
43950,-1.28353,-0.585299,0.344777,0
43970,-1.286,-0.58309,0.349392,0
43990,-1.28875,-0.580396,0.354024,0
44010,-1.29091,-0.577541,0.358504,0
44030,-1.29198,-0.57441,0.362886,0
44050,-1.29288,-0.571502,0.367382,0
44070,-1.29391,-0.568409,0.37165,0
44090,-1.2958,-0.565389,0.375665,0
44110,-1.29754,-0.561914,0.379768,0
44130,-1.2989,-0.558264,0.383868,0
44150,-1.3,-0.554874,0.388248,0
44170,-1.30195,-0.550881,0.392604,0
44190,-1.3038,-0.546778,0.396101,0
44210,-1.30548,-0.542279,0.399945,0
44230,-1.30721,-0.536963,0.403948,0
44250,-1.30865,-0.531617,0.407688,0
44270,-1.31165,-0.526259,0.412166,0
44290,-1.31445,-0.521344,0.41692,0
44310,-1.31631,-0.516025,0.421274,0
44330,-1.31698,-0.511345,0.4252,0
44350,-1.31856,-0.506884,0.429964,0
44370,-1.32019,-0.502685,0.434621,0
44390,-1.32217,-0.498534,0.439347,0
44410,-1.32401,-0.494869,0.444366,0
44430,-1.32629,-0.491501,0.44983,0
44450,-1.32879,-0.488632,0.455298,0
44470,-1.33161,-0.485633,0.460933,0
44490,-1.33448,-0.483059,0.466635,0
44510,-1.33756,-0.481371,0.472692,0
44530,-1.34086,-0.480174,0.478765,0
44550,-1.34427,-0.479216,0.484475,0
44570,-1.3474,-0.477688,0.490061,0
44590,-1.35054,-0.475664,0.495758,0
44610,-1.35305,-0.474378,0.501467,0
44630,-1.35621,-0.473554,0.507483,0
44650,-1.35927,-0.47245,0.513479,0
44670,-1.36249,-0.470455,0.520018,0
44690,-1.3656,-0.468842,0.527347,0
44710,-1.36843,-0.467887,0.535145,0
44730,-1.37066,-0.466485,0.542749,0
44750,-1.37286,-0.463866,0.550006,0
44770,-1.37657,-0.46072,0.557967,0
44790,-1.38102,-0.45807,0.566341,0
44810,-1.38357,-0.455639,0.574871,0
44830,-1.38526,-0.45266,0.583415,0
44850,-1.3872,-0.450365,0.591815,0
44870,-1.39031,-0.448127,0.600535,0
44890,-1.39447,-0.445648,0.609664,0
44910,-1.39825,-0.443339,0.618804,0
44930,-1.4011,-0.440801,0.627847,0
44950,-1.40434,-0.438067,0.636884,0
44970,-1.40864,-0.436033,0.645639,0
44990,-1.41273,-0.433881,0.653698,0
45010,-1.41592,-0.430717,0.661588,0
45030,-1.41882,-0.42841,0.669975,0
45050,-1.42165,-0.426627,0.677974,0
45070,-1.42397,-0.425109,0.685315,0
45090,-1.42602,-0.42245,0.692214,0
45110,-1.42746,-0.42026,0.699383,0
45130,-1.42905,-0.419077,0.707171,0
45150,-1.4299,-0.418858,0.714345,0
45170,-1.43161,-0.417502,0.72111,0
45190,-1.43383,-0.415752,0.727969,0
45210,-1.43649,-0.415031,0.735603,0
45230,-1.43872,-0.415247,0.743261,0
45250,-1.44088,-0.41482,0.750147,0
45270,-1.44419,-0.414717,0.757261,0
45290,-1.44722,-0.414497,0.764512,0
45310,-1.45013,-0.414866,0.771872,0
45330,-1.4518,-0.416437,0.779039,0
45350,-1.45322,-0.417552,0.786164,0
45370,-1.45438,-0.418565,0.793433,0
45390,-1.45656,-0.420673,0.801727,0
45410,-1.45931,-0.423104,0.810652,0
45430,-1.46205,-0.425371,0.820166,0
45450,-1.46505,-0.427476,0.830539,0
45470,-1.46884,-0.429218,0.841381,0
45490,-1.47424,-0.431706,0.852903,0
45510,-1.48148,-0.435371,0.865306,0
45530,-1.48835,-0.439394,0.876745,0
45550,-1.4942,-0.44267,0.887416,0
45570,-1.49783,-0.445445,0.897045,0
45590,-1.50079,-0.44872,0.906305,0
45610,-1.50431,-0.4528,0.915602,0
45630,-1.50834,-0.456629,0.924926,0
45650,-1.51138,-0.459877,0.933241,0
45670,-1.51447,-0.462196,0.941418,0
45690,-1.51754,-0.463968,0.949463,0
45710,-1.52037,-0.466118,0.957215,0
45730,-1.52377,-0.468559,0.964954,0
45750,-1.52702,-0.47041,0.972531,0
45770,-1.53053,-0.471268,0.98008,0
45790,-1.5347,-0.472333,0.98833,0
45810,-1.53872,-0.474097,0.996851,0
45820,-1.54225,-0.475834,1.00519,0
45840,-1.54475,-0.477549,1.01289,0
45860,-1.54757,-0.479277,1.0206,0
45880,-1.5511,-0.481412,1.02887,0
45900,-1.55343,-0.484219,1.03635,0
45920,-1.55541,-0.486652,1.04393,0
45940,-1.55773,-0.489047,1.0513,0
45960,-1.56078,-0.491673,1.05881,0
45980,-1.56361,-0.494294,1.0662,0
46000,-1.56566,-0.49758,1.0731,0
46020,-1.5675,-0.501984,1.07973,0
46040,-1.56954,-0.506241,1.08621,0
46060,-1.57177,-0.510117,1.09209,0
46080,-1.57404,-0.514091,1.0973,0
46100,-1.57723,-0.518903,1.10291,0
46120,-1.57951,-0.524375,1.1078,0
46140,-1.58071,-0.529831,1.11201,0
46160,-1.5825,-0.535062,1.11574,0
46180,-1.58561,-0.540381,1.11956,0
46200,-1.58797,-0.546296,1.12342,0
46220,-1.58892,-0.551654,1.12702,0
46240,-1.58993,-0.557083,1.13046,0
46260,-1.59151,-0.562637,1.13316,0
46280,-1.59254,-0.568009,1.13579,0
46300,-1.59406,-0.573471,1.13871,0
46320,-1.5955,-0.579243,1.14128,0
46340,-1.59649,-0.584917,1.14327,0
46360,-1.5969,-0.590571,1.14478,0
46380,-1.59758,-0.596761,1.14662,0
46400,-1.59913,-0.603131,1.14815,0
46420,-1.6004,-0.608651,1.14867,0
46440,-1.60135,-0.613855,1.14915,0
46460,-1.60136,-0.619964,1.14889,0
46480,-1.60167,-0.626158,1.14844,0
46500,-1.60248,-0.631838,1.14783,0
46520,-1.60213,-0.63755,1.14675,0
46540,-1.60224,-0.643422,1.14468,0
46560,-1.60175,-0.649253,1.14229,0
46580,-1.60139,-0.654538,1.14026,0
46600,-1.60146,-0.660195,1.13793,0
46620,-1.60102,-0.666072,1.13462,0
46640,-1.60035,-0.67216,1.13149,0
46660,-1.59981,-0.677628,1.12882,0
46680,-1.59983,-0.683367,1.12586,0
46700,-1.59979,-0.689127,1.12216,0
46720,-1.59912,-0.695034,1.11824,0
46740,-1.59776,-0.700743,1.11371,0
46760,-1.59661,-0.706244,1.10986,0
46780,-1.59568,-0.711984,1.10625,0
46800,-1.59558,-0.718209,1.10286,0
46820,-1.59528,-0.723865,1.09861,0
46840,-1.59504,-0.729236,1.09401,0
46860,-1.59497,-0.734336,1.08886,0
46880,-1.59439,-0.739799,1.08286,0
46900,-1.59263,-0.745772,1.07683,0
46920,-1.59147,-0.751486,1.07184,0
46940,-1.5908,-0.757379,1.06601,0
46960,-1.5895,-0.762692,1.05871,0
46980,-1.58856,-0.767684,1.05212,0
47000,-1.58868,-0.772819,1.04623,0
47020,-1.58869,-0.777908,1.04071,0
47040,-1.58691,-0.782578,1.03327,0
47060,-1.58563,-0.787379,1.02576,0
47080,-1.58534,-0.792086,1.01874,0
47100,-1.58628,-0.796221,1.01201,0
47120,-1.58548,-0.800137,1.00449,0
47140,-1.58254,-0.804683,0.995779,0
47160,-1.57942,-0.809495,0.987902,0
47180,-1.57726,-0.814396,0.980025,0
47200,-1.57556,-0.819094,0.972288,0
47220,-1.57276,-0.823444,0.964108,0
47240,-1.57003,-0.827681,0.956644,0
47260,-1.56776,-0.83145,0.949494,0
47280,-1.56673,-0.83446,0.942715,0
47300,-1.56599,-0.836737,0.936332,0
47320,-1.56509,-0.838976,0.930073,0
47340,-1.56345,-0.84173,0.92382,0
47360,-1.56203,-0.843999,0.917326,0
47380,-1.56032,-0.845497,0.910444,0
47400,-1.5576,-0.848261,0.903611,0
47420,-1.55484,-0.851928,0.897025,0
47440,-1.55128,-0.855428,0.889821,0
47460,-1.54818,-0.858571,0.882546,0
47480,-1.54405,-0.862862,0.874388,0
47500,-1.53967,-0.867558,0.866906,0
47520,-1.53502,-0.871971,0.858934,0
47540,-1.5306,-0.876199,0.850675,0
47560,-1.52621,-0.880707,0.842658,0
47580,-1.52211,-0.884624,0.834868,0
47600,-1.51885,-0.888055,0.827488,0
47620,-1.51567,-0.891652,0.819411,0
47640,-1.51209,-0.89474,0.811256,0
47660,-1.50852,-0.897609,0.803497,0
47680,-1.50457,-0.900773,0.79547,0
47700,-1.5011,-0.903576,0.787366,0
47720,-1.49647,-0.905888,0.778666,0
47740,-1.49319,-0.908373,0.771022,0
47760,-1.48969,-0.910827,0.763148,0
47780,-1.48533,-0.912957,0.754088,0
47800,-1.48041,-0.914752,0.744891,0
47820,-1.47491,-0.915752,0.735451,0
47840,-1.46882,-0.917041,0.725299,0
47860,-1.46198,-0.917619,0.714841,0
47880,-1.45556,-0.918599,0.704827,0
47900,-1.44986,-0.919529,0.694722,0
47920,-1.44422,-0.919852,0.684912,0
47940,-1.43865,-0.920173,0.675659,0
47960,-1.43231,-0.920873,0.666092,0
47980,-1.42618,-0.921607,0.656732,0
48000,-1.42158,-0.92255,0.648423,0
48020,-1.41656,-0.923702,0.639512,0
48040,-1.41172,-0.924623,0.630576,0
48060,-1.40623,-0.924931,0.621479,0
48080,-1.40061,-0.925319,0.612833,0
48100,-1.39494,-0.926094,0.604417,0
48120,-1.38905,-0.926709,0.595275,0
48140,-1.38286,-0.926849,0.585639,0
48160,-1.37631,-0.926911,0.575734,0
48180,-1.36976,-0.92695,0.565748,0
48200,-1.36449,-0.926503,0.55666,0
48220,-1.35875,-0.925834,0.547762,0
48240,-1.35293,-0.924964,0.539131,0
48260,-1.34614,-0.924192,0.53008,0
48280,-1.3396,-0.923466,0.521348,0
48300,-1.33381,-0.922188,0.512759,0
48320,-1.32794,-0.92034,0.503677,0
48340,-1.32184,-0.917868,0.495288,0
48360,-1.31459,-0.915646,0.486817,0
48380,-1.30798,-0.913404,0.479291,0
48400,-1.30196,-0.911243,0.47155,0
48420,-1.29586,-0.908426,0.463187,0
48430,-1.28992,-0.904655,0.455291,0
48450,-1.28443,-0.901629,0.448711,0
48470,-1.27901,-0.898916,0.442412,0
48490,-1.27357,-0.896094,0.43641,0
48510,-1.26908,-0.892727,0.430807,0
48530,-1.26574,-0.889336,0.425757,0
48550,-1.2627,-0.885965,0.421436,0
48570,-1.25929,-0.882603,0.417792,0
48590,-1.2557,-0.879225,0.414607,0
48610,-1.2534,-0.875745,0.412369,0
48630,-1.25219,-0.871954,0.410599,0
48650,-1.25119,-0.868275,0.408805,0
48670,-1.25024,-0.864644,0.408411,0
48690,-1.24948,-0.861231,0.408719,0
48710,-1.24882,-0.857655,0.40878,0
48730,-1.24879,-0.853804,0.409339,0
48750,-1.24898,-0.850294,0.410264,0
48770,-1.24899,-0.84694,0.411575,0
48790,-1.24893,-0.843077,0.412928,0
48810,-1.24982,-0.838785,0.414684,0
48830,-1.24998,-0.834519,0.416235,0
48850,-1.24983,-0.830503,0.417848,0
48870,-1.24898,-0.826241,0.419273,0
48890,-1.2491,-0.821189,0.421166,0
48910,-1.25008,-0.816112,0.42292,0
48930,-1.25191,-0.810695,0.424826,0
48950,-1.25305,-0.805039,0.426543,0
48970,-1.25416,-0.79917,0.428387,0
48990,-1.25594,-0.793493,0.43045,0
49010,-1.25808,-0.787279,0.432198,0
49030,-1.2596,-0.780558,0.433823,0
49050,-1.26057,-0.774739,0.435659,0
49070,-1.26081,-0.769615,0.436967,0
49090,-1.26119,-0.764028,0.438371,0
49110,-1.26188,-0.758379,0.440093,0
49130,-1.26384,-0.753312,0.442514,0
49150,-1.26576,-0.748188,0.444926,0
49170,-1.26695,-0.742577,0.446987,0
49190,-1.26766,-0.736565,0.448802,0
49210,-1.26926,-0.730695,0.451302,0
49230,-1.27045,-0.72487,0.453847,0
49250,-1.27097,-0.719125,0.45596,0
49270,-1.27183,-0.713818,0.458625,0
49290,-1.27242,-0.708685,0.460903,0
49310,-1.27362,-0.703987,0.463354,0
49330,-1.27458,-0.70018,0.466048,0
49350,-1.27504,-0.697595,0.468782,0
49370,-1.27544,-0.69547,0.471564,0
49390,-1.27643,-0.693478,0.474145,0
49410,-1.27835,-0.691362,0.476545,0
49430,-1.28045,-0.689367,0.479194,0
49450,-1.2825,-0.687965,0.48178,0
49470,-1.28442,-0.686438,0.484235,0
49490,-1.28636,-0.684609,0.486416,0
49510,-1.29004,-0.682637,0.489069,0
49530,-1.29379,-0.681208,0.491614,0
49550,-1.29704,-0.679849,0.494372,0
49570,-1.29957,-0.678648,0.49708,0
49590,-1.30232,-0.676854,0.499882,0
49610,-1.30636,-0.67532,0.502794,0
49630,-1.31075,-0.673861,0.505702,0
49650,-1.31423,-0.672011,0.508725,0
49670,-1.31596,-0.669789,0.51177,0
49690,-1.31895,-0.667742,0.515591,0
49710,-1.32266,-0.665575,0.519054,0
49730,-1.32678,-0.662711,0.522467,0
49750,-1.33083,-0.659637,0.526529,0
49770,-1.33389,-0.656678,0.530743,0
49790,-1.33721,-0.653712,0.535122,0
49810,-1.34173,-0.650373,0.539774,0
49830,-1.34703,-0.646931,0.544456,0
49850,-1.35193,-0.64337,0.548806,0
49870,-1.35706,-0.640252,0.553775,0
49890,-1.36225,-0.636906,0.558464,0
49910,-1.3679,-0.63344,0.563177,0
49920,-1.37222,-0.630234,0.56785,0
49940,-1.37362,-0.627488,0.572022,0
49960,-1.37586,-0.625729,0.57682,0
49980,-1.38031,-0.623274,0.5816,0
50000,-1.3861,-0.620091,0.586278,0
50020,-1.39267,-0.616948,0.591743,0
50040,-1.39893,-0.614188,0.597485,0
50060,-1.40358,-0.612142,0.602751,0
50080,-1.40733,-0.610004,0.607937,0
50100,-1.41027,-0.608832,0.613381,0
50120,-1.41248,-0.608091,0.618808,0
50140,-1.41375,-0.607029,0.624052,0
50160,-1.4154,-0.606004,0.629602,0
50180,-1.41744,-0.60485,0.635166,0
50200,-1.41989,-0.603127,0.640733,0
50220,-1.42302,-0.601211,0.646298,0
50240,-1.42678,-0.598579,0.651918,0
50260,-1.43196,-0.595831,0.658411,0
50280,-1.43793,-0.593577,0.664943,0
50300,-1.44306,-0.591183,0.67093,0
50320,-1.44772,-0.588524,0.676379,0
50340,-1.45281,-0.585762,0.682026,0
50360,-1.45834,-0.58345,0.688005,0
50380,-1.46283,-0.581259,0.693497,0
50400,-1.46634,-0.579181,0.699094,0
50420,-1.46982,-0.577845,0.704824,0
50440,-1.47321,-0.576826,0.710542,0
50460,-1.47666,-0.575666,0.71627,0
50480,-1.47929,-0.574163,0.721745,0
50500,-1.48048,-0.572916,0.727421,0
50520,-1.4812,-0.57285,0.733527,0
50540,-1.48301,-0.572236,0.740684,0
50560,-1.48664,-0.571843,0.748664,0
50580,-1.49035,-0.571297,0.756271,0
50600,-1.49303,-0.570246,0.76356,0
50620,-1.49612,-0.568907,0.77143,0
50640,-1.49942,-0.568272,0.779229,0
50660,-1.50189,-0.568351,0.786765,0
50680,-1.5044,-0.568188,0.794699,0
50700,-1.50589,-0.568045,0.802453,0
50720,-1.50829,-0.56879,0.81046,0
50740,-1.51058,-0.569907,0.818193,0
50760,-1.51282,-0.570531,0.825785,0
50780,-1.51451,-0.571012,0.833316,0
50800,-1.51573,-0.572056,0.840886,0
50820,-1.51612,-0.573156,0.848144,0
50840,-1.51543,-0.573992,0.854683,0
50860,-1.51566,-0.574742,0.861491,0
50880,-1.51609,-0.575165,0.868227,0
50900,-1.51675,-0.576507,0.875547,0
50920,-1.51725,-0.57856,0.882617,0
50940,-1.51995,-0.579502,0.889405,0
50960,-1.52361,-0.579769,0.8959,0
50980,-1.52612,-0.58027,0.902005,0
51000,-1.52828,-0.579766,0.908096,0
51020,-1.53006,-0.578924,0.91333,0
51030,-1.53214,-0.577683,0.91891,0
51050,-1.53463,-0.576996,0.925084,0
51070,-1.53759,-0.575503,0.931394,0
51090,-1.54113,-0.574151,0.93739,0
51110,-1.54558,-0.57251,0.943002,0
51130,-1.55078,-0.570063,0.948918,0
51150,-1.55568,-0.56778,0.954871,0
51170,-1.55984,-0.565947,0.960366,0
51190,-1.56355,-0.564524,0.96559,0
51210,-1.56654,-0.563433,0.97035,0
51230,-1.57066,-0.56329,0.975789,0
51250,-1.57477,-0.564225,0.981607,0
51270,-1.57834,-0.564186,0.987429,0
51290,-1.58118,-0.564581,0.993121,0
51310,-1.58418,-0.565746,0.999611,0
51330,-1.58781,-0.567692,1.00653,0
51350,-1.59132,-0.569335,1.0133,0
51370,-1.59649,-0.570964,1.02078,0
51390,-1.60232,-0.573649,1.02868,0
51410,-1.60718,-0.57633,1.03602,0
51430,-1.61213,-0.57914,1.04407,0
51450,-1.61555,-0.582735,1.05154,0
51470,-1.61763,-0.587458,1.05852,0
51490,-1.61983,-0.592995,1.06555,0
51510,-1.62107,-0.598497,1.07136,0
51530,-1.622,-0.60368,1.07651,0
51550,-1.62305,-0.607957,1.08091,0
51570,-1.6232,-0.612457,1.08424,0
51590,-1.62442,-0.61643,1.08824,0
51610,-1.62709,-0.619227,1.09322,0
51630,-1.62924,-0.622584,1.09745,0
51650,-1.63092,-0.625748,1.10148,0
51670,-1.63193,-0.628249,1.10494,0
51690,-1.63317,-0.631422,1.10832,0
51710,-1.63503,-0.63503,1.11267,0
51730,-1.63549,-0.638133,1.11665,0
51750,-1.63447,-0.641013,1.12051,0
51770,-1.63453,-0.644539,1.12542,0
51790,-1.63545,-0.648359,1.13053,0
51810,-1.63604,-0.651114,1.13485,0
51830,-1.63628,-0.653486,1.13886,0
51850,-1.63765,-0.656479,1.14428,0
51870,-1.6381,-0.659976,1.14943,0
51890,-1.63692,-0.663563,1.15402,0
51910,-1.63659,-0.667863,1.15934,0
51930,-1.63742,-0.67233,1.16504,0
51950,-1.63874,-0.676791,1.17071,0
51970,-1.63939,-0.680634,1.17592,0
51990,-1.64031,-0.684653,1.18162,0
52010,-1.64213,-0.688386,1.18727,0
52030,-1.64487,-0.692043,1.19306,0
52050,-1.64629,-0.695668,1.1977,0
52070,-1.64692,-0.699284,1.20262,0
52090,-1.64871,-0.703558,1.20808,0
52110,-1.65028,-0.708201,1.21294,0
52130,-1.65117,-0.712725,1.21751,0
52150,-1.65175,-0.717289,1.22253,0
52170,-1.65236,-0.721848,1.22718,0
52190,-1.65319,-0.726477,1.23126,0
52210,-1.65359,-0.730489,1.23514,0
52230,-1.65482,-0.734138,1.23913,0
52250,-1.6551,-0.73754,1.24213,0
52270,-1.65569,-0.740297,1.24549,0
52290,-1.65624,-0.742824,1.24867,0
52310,-1.65588,-0.745904,1.25129,0
52330,-1.65478,-0.749184,1.25326,0
52350,-1.65369,-0.752581,1.25469,0
52370,-1.65219,-0.756468,1.25544,0
52390,-1.6503,-0.760747,1.25613,0
52410,-1.6471,-0.765262,1.25638,0
52430,-1.6435,-0.7697,1.25687,0
52450,-1.64037,-0.774962,1.2578,0
52470,-1.63755,-0.780192,1.25855,0
52490,-1.63482,-0.784628,1.25931,0
52510,-1.63141,-0.789319,1.2596,0
52530,-1.62858,-0.793921,1.26035,0
52550,-1.62652,-0.798572,1.26101,0
52570,-1.62508,-0.803067,1.26199,0
52590,-1.62509,-0.807311,1.26373,0
52610,-1.62448,-0.811205,1.26482,0
52630,-1.6237,-0.815499,1.26624,0
52650,-1.62244,-0.819178,1.26694,0
52670,-1.62254,-0.822224,1.26735,0
52690,-1.62273,-0.825174,1.26728,0
52710,-1.62117,-0.828418,1.26594,0
52730,-1.61979,-0.831852,1.26499,0
52750,-1.61901,-0.835626,1.2641,0
52770,-1.61721,-0.839565,1.26219,0
52790,-1.61416,-0.844039,1.25954,0
52810,-1.611,-0.848912,1.25755,0
52830,-1.60812,-0.853459,1.25544,0
52850,-1.60537,-0.858146,1.25301,0
52870,-1.60177,-0.862624,1.25008,0
52890,-1.59811,-0.866836,1.24772,0
52910,-1.59513,-0.871029,1.24614,0
52930,-1.59154,-0.875211,1.24421,0
52950,-1.58783,-0.879011,1.24205,0
52970,-1.58514,-0.882118,1.24076,0
52990,-1.58375,-0.884851,1.23963,0
53010,-1.58206,-0.886869,1.23779,0
53030,-1.58004,-0.889011,1.23674,0
53050,-1.5786,-0.891532,1.23629,0
53070,-1.57738,-0.893315,1.23527,0
53090,-1.5765,-0.894456,1.23372,0
53110,-1.57554,-0.896008,1.23285,0
53130,-1.57294,-0.89861,1.2319,0
53150,-1.56926,-0.901954,1.23055,0
53170,-1.56681,-0.904441,1.22917,2001
53190,-1.56622,-0.906195,1.22831,0
53210,-1.56663,-0.907886,1.22836,0
53230,-1.56612,-0.90953,1.22832,0
53250,-1.56528,-0.910298,1.22799,0
53270,-1.5655,-0.910958,1.22797,0
53290,-1.56615,-0.912192,1.22915,0
53310,-1.56716,-0.913481,1.23079,0
53330,-1.56816,-0.914955,1.23261,0
53350,-1.56749,-0.916732,1.23325,0
53370,-1.5682,-0.918483,1.23572,0
53390,-1.56924,-0.919451,1.23765,0
53410,-1.57046,-0.920293,1.23892,0
53430,-1.57041,-0.921188,1.23901,0
53450,-1.57044,-0.92261,1.23986,0
53470,-1.57014,-0.923222,1.24005,0
53490,-1.56896,-0.923625,1.23927,0
53510,-1.56836,-0.922908,1.23881,0
53530,-1.56957,-0.922132,1.23924,0
53550,-1.57019,-0.9208,1.2384,0
53570,-1.57174,-0.919113,1.23819,0
53590,-1.57207,-0.91718,1.23637,0
53610,-1.57035,-0.915165,1.23342,0
53620,-1.56637,-0.913313,1.22869,0
53640,-1.56076,-0.911953,1.22254,0
53660,-1.55498,-0.910057,1.21628,0
53680,-1.54907,-0.908548,1.2101,0
53700,-1.54447,-0.906475,1.20547,0
53720,-1.5405,-0.904221,1.20016,0
53740,-1.53832,-0.901323,1.19549,0
53760,-1.53425,-0.898223,1.1891,0
53780,-1.5312,-0.89488,1.18399,0
53800,-1.53077,-0.891134,1.18044,0
53820,-1.53119,-0.887053,1.17698,0
53840,-1.53287,-0.882959,1.17467,0
53860,-1.5336,-0.879338,1.17199,0
53880,-1.5344,-0.875932,1.16986,0
53900,-1.53565,-0.872359,1.16788,0
53920,-1.53629,-0.868586,1.1649,0
53940,-1.5366,-0.864764,1.16176,0
53960,-1.53827,-0.860879,1.15866,0
53980,-1.53916,-0.856515,1.15474,0
54000,-1.53865,-0.851784,1.14956,0
54020,-1.53919,-0.847587,1.14433,0
54040,-1.53654,-0.844785,1.13572,0
54060,-1.53108,-0.842553,1.12575,0
54080,-1.52724,-0.841047,1.11726,0
54100,-1.52484,-0.839757,1.10872,0
54120,-1.52072,-0.837469,1.09931,0
54140,-1.51735,-0.83558,1.08982,0
54160,-1.51487,-0.833021,1.08135,0
54180,-1.51359,-0.829379,1.07407,0
54200,-1.50986,-0.827625,1.0661,0
54220,-1.50627,-0.826833,1.05921,0
54240,-1.50534,-0.825578,1.05304,0
54260,-1.5007,-0.824018,1.0436,0
54280,-1.49398,-0.821387,1.03244,0
54300,-1.48925,-0.816673,1.0225,0
54320,-1.48446,-0.810543,1.00844,0
54340,-1.47616,-0.804942,0.991444,0
54360,-1.46428,-0.799353,0.97382,0
54380,-1.45056,-0.789885,0.956334,0
54400,-1.44202,-0.776419,0.943113,0
54420,-1.43731,-0.759334,0.932459,0
54440,-1.43249,-0.739057,0.923218,0
54460,-1.42715,-0.718422,0.914684,0
54480,-1.41884,-0.695455,0.909601,0
54500,-1.40732,-0.675025,0.907025,0
54520,-1.39708,-0.658247,0.905114,0
54540,-1.38988,-0.641056,0.909402,0
54560,-1.38759,-0.624019,0.924046,0
54580,-1.38448,-0.609932,0.940202,0
54600,-1.37673,-0.598372,0.956867,0
54620,-1.36821,-0.587362,0.976691,0
54640,-1.36293,-0.575734,1.00117,0
54660,-1.3601,-0.56498,1.02796,0
54680,-1.35865,-0.556752,1.05395,0
54700,-1.35549,-0.549144,1.07785,0
54720,-1.3517,-0.541604,1.10126,0
54740,-1.34942,-0.533748,1.12495,0
54760,-1.34804,-0.525362,1.14787,0
54780,-1.34768,-0.516901,1.17039,0
54800,-1.34681,-0.508521,1.19129,0
54820,-1.34632,-0.500425,1.21075,0
54840,-1.34653,-0.493124,1.22759,0
54860,-1.34698,-0.48622,1.24222,0
54880,-1.34715,-0.477715,1.25507,0
54900,-1.34866,-0.469634,1.26721,0
54920,-1.35044,-0.461811,1.27773,0
54940,-1.35213,-0.45444,1.28658,0
54960,-1.35296,-0.447091,1.2943,0
54980,-1.35286,-0.44015,1.30102,0
55000,-1.35236,-0.433594,1.30728,0
55020,-1.35165,-0.427607,1.31357,0
55040,-1.35309,-0.421199,1.31956,0
55060,-1.35556,-0.416242,1.32486,0
55080,-1.35699,-0.411722,1.32903,0
55100,-1.35791,-0.408235,1.3325,0
55120,-1.35854,-0.404524,1.33662,0
55140,-1.35856,-0.401774,1.34003,0
55160,-1.35703,-0.399575,1.34191,0
55180,-1.35574,-0.397522,1.34372,0
55200,-1.35566,-0.395878,1.34674,0
55220,-1.35662,-0.395025,1.3505,0
55240,-1.35687,-0.394387,1.35314,0
55260,-1.35648,-0.39364,1.35513,0
55280,-1.35682,-0.392735,1.35744,0
55300,-1.35873,-0.391529,1.3606,0
55310,-1.36064,-0.390371,1.36365,0
55310,-1.3626,-0.389115,1.36624,0
55330,-1.36378,-0.387933,1.36898,0
55350,-1.3647,-0.386713,1.37157,0
55350,-1.36594,-0.385373,1.37395,0
55370,-1.36742,-0.38368,1.37565,0
55370,-1.36913,-0.381698,1.37747,0
55390,-1.3705,-0.379814,1.37925,0
55410,-1.37112,-0.377906,1.38072,0
55410,-1.3717,-0.376022,1.38172,0
55430,-1.37278,-0.374505,1.38292,0
55450,-1.37368,-0.373005,1.38445,0
55470,-1.37414,-0.371531,1.38522,0
55470,-1.37414,-0.370209,1.38596,0
55490,-1.37512,-0.369233,1.38694,0
55510,-1.37627,-0.368715,1.38726,0
55530,-1.37813,-0.367583,1.38786,0
55540,-1.37939,-0.366042,1.38861,0
55550,-1.38045,-0.364927,1.38936,0
55570,-1.38155,-0.363586,1.38962,0
55590,-1.38223,-0.361438,1.38957,0
55610,-1.38342,-0.358586,1.39046,0
55610,-1.38472,-0.35659,1.39176,0
55630,-1.38531,-0.354778,1.39288,0
55650,-1.38567,-0.352831,1.39409,0
55670,-1.38657,-0.3509,1.395,0
55670,-1.38736,-0.348782,1.39601,0
55690,-1.38919,-0.346808,1.39794,0
55710,-1.39072,-0.344593,1.39948,0
55730,-1.39148,-0.342033,1.40046,0
55730,-1.39169,-0.339932,1.40141,0
55750,-1.39131,-0.339168,1.40157,0
55770,-1.39093,-0.338216,1.40171,0
55790,-1.39087,-0.336677,1.40209,0
55790,-1.39007,-0.335352,1.40182,0
55810,-1.38986,-0.334432,1.40141,0
55830,-1.38932,-0.333378,1.40119,0
55850,-1.38814,-0.333108,1.40118,0
55870,-1.38578,-0.332193,1.40115,0
55870,-1.38392,-0.331877,1.4012,0
55890,-1.38409,-0.332895,1.40126,0
55910,-1.38578,-0.333922,1.40252,0
55910,-1.38734,-0.336013,1.40312,0
55930,-1.3883,-0.338453,1.40311,0
55950,-1.38929,-0.339245,1.40441,0
55970,-1.3903,-0.341068,1.40531,0
55980,-1.39051,-0.344278,1.4054,0
55990,-1.39092,-0.346577,1.40569,0
56010,-1.38956,-0.348861,1.40568,0
56030,-1.38814,-0.352013,1.40561,0
56050,-1.38586,-0.354736,1.40636,0
56050,-1.38384,-0.358755,1.40663,0
56070,-1.38259,-0.362745,1.40745,0
56090,-1.38183,-0.366417,1.40854,0
56110,-1.3818,-0.369074,1.41047,0
56130,-1.38137,-0.37264,1.41231,0
56130,-1.38052,-0.37685,1.41309,0
56150,-1.38106,-0.379402,1.41474,0
56170,-1.38168,-0.380442,1.41713,0
56180,-1.38273,-0.382264,1.41951,0
56190,-1.38413,-0.384336,1.42171,0
56210,-1.38574,-0.386107,1.42476,0
56230,-1.38716,-0.387643,1.42813,0
56250,-1.3876,-0.390344,1.4303,0
56250,-1.38817,-0.392993,1.43249,0
56310,-1.38913,-0.394958,1.4354,0
56320,-1.38977,-0.397693,1.43869,0
56380,-1.39024,-0.400085,1.44171,0
56420,-1.39184,-0.402259,1.44463,0
56470,-1.39453,-0.403188,1.44781,0
56500,-1.39798,-0.40573,1.45391,0
56590,-1.39953,-0.407522,1.45935,0
56630,-1.40139,-0.40809,1.4611,0
56650,-1.40366,-0.40823,1.46275,0
56670,-1.4046,-0.407946,1.46441,0
56690,-1.40443,-0.408251,1.46599,0
56710,-1.40392,-0.408958,1.46733,0
56730,-1.40385,-0.409666,1.46848,0
56750,-1.40549,-0.410216,1.47022,0
56770,-1.4076,-0.410139,1.47243,0
56790,-1.40837,-0.41029,1.47413,0
56810,-1.40807,-0.411388,1.47567,0
56830,-1.40804,-0.413087,1.47755,0
56850,-1.40899,-0.414798,1.47909,0
56870,-1.40921,-0.41699,1.47998,0
56890,-1.40979,-0.419897,1.48101,0
56900,-1.41076,-0.423148,1.48128,0
56920,-1.41188,-0.42625,1.4812,0
56940,-1.41208,-0.42858,1.48114,0
56960,-1.4112,-0.431342,1.48062,0
56980,-1.4105,-0.434671,1.47994,0
57000,-1.41073,-0.437892,1.47928,0
57020,-1.41051,-0.440596,1.47849,0
57040,-1.40976,-0.443134,1.47565,0
57060,-1.40841,-0.444404,1.47181,0
57080,-1.40626,-0.444829,1.46813,0
57100,-1.40406,-0.444914,1.465,0
57120,-1.40094,-0.445139,1.46188,0
57140,-1.39872,-0.445506,1.45843,0
57160,-1.39742,-0.444641,1.4551,0
57180,-1.39687,-0.443714,1.45141,0
57200,-1.39698,-0.442254,1.44775,0
57220,-1.39527,-0.440095,1.44424,0
57240,-1.39459,-0.437842,1.44052,0
57260,-1.39486,-0.435465,1.43551,0
57280,-1.39507,-0.432821,1.43011,0
57300,-1.3942,-0.429678,1.42477,0
57320,-1.39196,-0.426269,1.4203,0
57340,-1.39003,-0.42146,1.41636,0
57360,-1.38799,-0.416556,1.41302,0
57400,-1.38534,-0.406493,1.40683,0
57420,-1.3851,-0.401302,1.40249,0
57440,-1.38422,-0.395541,1.39864,0
57460,-1.38184,-0.389901,1.39441,0
57480,-1.37986,-0.384508,1.38912,0
57480,-1.376,-0.379403,1.38299,0
57500,-1.37115,-0.375516,1.37605,0
57520,-1.36591,-0.370474,1.36884,0
57540,-1.36615,-0.363883,1.36646,0
57560,-1.36208,-0.357115,1.36113,0
57580,-1.36179,-0.351833,1.35916,0
57580,-1.35986,-0.348288,1.35575,0
57600,-1.35561,-0.345476,1.35171,0
57620,-1.35198,-0.343815,1.34744,0
57640,-1.34778,-0.342313,1.34292,0
57640,-1.34619,-0.340086,1.33953,0
57660,-1.34697,-0.336376,1.33734,0
57680,-1.34884,-0.332763,1.33708,0
57700,-1.35007,-0.332235,1.33682,0
57760,-1.35167,-0.335409,1.33611,0
57780,-1.35357,-0.337991,1.3376,0
57800,-1.35465,-0.338946,1.33794,0
57800,-1.35678,-0.339896,1.33849,0
57820,-1.36033,-0.341869,1.3391,0
57840,-1.36265,-0.343085,1.33889,0
57840,-1.36379,-0.342313,1.34034,0
57920,-1.3666,-0.342911,1.34347,0
57940,-1.36723,-0.342896,1.34559,0
57940,-1.36829,-0.343358,1.34844,0
57960,-1.37002,-0.345415,1.35166,0
57980,-1.37139,-0.34736,1.35473,0
58000,-1.37331,-0.346415,1.36107,0
58020,-1.37794,-0.348323,1.36898,0
58040,-1.37189,-0.341884,1.36777,0
58060,-1.37328,-0.347245,1.37286,0
58100,-1.37892,-0.363455,1.37934,0
58120,-1.38323,-0.380227,1.38573,0
58140,-1.3872,-0.395915,1.39166,0
58160,-1.38867,-0.39884,1.39406,0
58180,-1.39132,-0.397441,1.39734,0
58200,-1.39445,-0.39355,1.40141,0
58220,-1.39679,-0.390456,1.40427,0
58240,-1.3988,-0.387478,1.40639,0
58260,-1.40149,-0.383867,1.40972,0
58280,-1.40444,-0.379807,1.41351,0
58300,-1.40586,-0.377082,1.41546,0
58320,-1.40625,-0.374431,1.41659,0
58340,-1.40694,-0.371232,1.41771,0
58360,-1.40796,-0.368339,1.41842,0
58380,-1.40803,-0.365623,1.41798,0
58380,-1.40809,-0.362959,1.41731,0
58400,-1.40994,-0.360663,1.41676,0
58400,-1.41105,-0.358595,1.41568,0
58420,-1.41145,-0.35648,1.41544,0
58420,-1.41169,-0.353736,1.41527,0
58440,-1.41219,-0.352525,1.41535,0
58460,-1.41202,-0.351947,1.41529,0
58460,-1.41049,-0.350829,1.41586,0
58480,-1.40965,-0.351191,1.41649,0
58500,-1.4073,-0.351884,1.41688,0
58520,-1.40438,-0.351886,1.41691,0
58520,-1.40265,-0.351557,1.41729,0
58540,-1.40188,-0.351359,1.41778,0
58560,-1.40083,-0.352017,1.4183,0
58580,-1.39994,-0.352303,1.41952,0
58600,-1.39873,-0.352691,1.41989,0
58600,-1.39943,-0.352979,1.42069,0
58620,-1.40097,-0.351831,1.42171,0
58640,-1.40396,-0.350379,1.42334,0
58650,-1.40548,-0.349638,1.42486,0
58660,-1.40639,-0.34885,1.4262,0
58680,-1.40771,-0.348413,1.4269,0
58700,-1.40997,-0.347488,1.4279,0
58720,-1.41167,-0.346128,1.42939,0
58720,-1.4131,-0.345569,1.43104,0
58740,-1.4136,-0.345206,1.4326,0
58760,-1.41378,-0.343811,1.43404,0
58780,-1.41527,-0.34233,1.43586,0
58780,-1.41707,-0.340248,1.43779,0
58790,-1.41911,-0.338891,1.4392,0
58810,-1.41904,-0.337006,1.43988,0
58830,-1.41776,-0.335329,1.4401,0
58890,-1.41607,-0.334915,1.4399,0
58900,-1.41425,-0.334011,1.43988,0
58920,-1.4121,-0.333284,1.43997,0
58940,-1.41151,-0.333362,1.4398,0
58940,-1.41183,-0.334205,1.44001,0
58960,-1.41109,-0.334272,1.44065,0
58980,-1.40998,-0.333295,1.44177,0
59000,-1.40965,-0.33312,1.44303,0
59010,-1.40946,-0.333621,1.44411,0
59020,-1.41005,-0.333479,1.44523,0
59060,-1.41116,-0.332563,1.44646,0
59120,-1.41301,-0.331818,1.44789,0
59170,-1.41462,-0.33177,1.44876,0
59190,-1.41619,-0.331636,1.44938,0
59210,-1.41758,-0.331812,1.45012,0
59230,-1.41886,-0.332057,1.45098,0
59230,-1.42131,-0.332819,1.45141,0
59270,-1.4238,-0.333732,1.45209,0
59330,-1.42526,-0.333531,1.4527,0
59370,-1.42668,-0.332531,1.45361,0
59380,-1.42629,-0.332014,1.45364,0
59410,-1.42665,-0.332448,1.45336,0
59420,-1.42651,-0.331958,1.45354,0
59440,-1.42701,-0.331403,1.45427,0
59460,-1.42672,-0.331714,1.4545,0
59460,-1.42577,-0.332024,1.45418,0
59480,-1.42516,-0.331273,1.45454,0
59500,-1.42429,-0.331445,1.45494,0
59520,-1.42338,-0.331178,1.4553,0
59520,-1.42279,-0.33014,1.45599,0
59540,-1.42287,-0.32846,1.45694,0
59560,-1.42305,-0.327557,1.4582,0
59580,-1.42226,-0.326764,1.45902,0
59600,-1.42234,-0.325509,1.4606,0
59600,-1.42237,-0.324934,1.46223,0
59620,-1.42125,-0.325153,1.46344,0
59640,-1.42,-0.325479,1.46442,0
59660,-1.4198,-0.32549,1.46571,0
59660,-1.42051,-0.325171,1.46791,0
59680,-1.41999,-0.325603,1.47004,0
59700,-1.41893,-0.326984,1.47171,0
59720,-1.41886,-0.328845,1.47352,0
59720,-1.41972,-0.329965,1.47585,0
59740,-1.42067,-0.331659,1.47836,0
59760,-1.42154,-0.334185,1.48045,0
59780,-1.42256,-0.336436,1.4829,0
59780,-1.4243,-0.338118,1.48587,0
59800,-1.42601,-0.339899,1.4885,0
59820,-1.42752,-0.341669,1.49123,0
59840,-1.42887,-0.343651,1.49434,0
59840,-1.43035,-0.3461,1.49703,0
59860,-1.43194,-0.348593,1.49951,0
59880,-1.43291,-0.350005,1.50182,0
59900,-1.43346,-0.352136,1.50379,0
59910,-1.43368,-0.354792,1.50542,0
59920,-1.43523,-0.356668,1.50713,0
59940,-1.43634,-0.358838,1.50871,0
59960,-1.43705,-0.360687,1.51021,0
59980,-1.43709,-0.363013,1.51156,0
59980,-1.43808,-0.365294,1.51291,0
60000,-1.43949,-0.367212,1.51427,0
60020,-1.44007,-0.36898,1.51565,0
60040,-1.44011,-0.371566,1.5173,0
60060,-1.44033,-0.374198,1.51848,0
60060,-1.44098,-0.376188,1.51929,0
60080,-1.44133,-0.378246,1.52032,0
60100,-1.44159,-0.381187,1.52144,0
60110,-1.44195,-0.384978,1.52232,0
60120,-1.44238,-0.387653,1.52321,0
60140,-1.44356,-0.390447,1.52483,0
60160,-1.4449,-0.394019,1.52597,0
60180,-1.44585,-0.397997,1.52649,0
60240,-1.44613,-0.401229,1.52648,0
60300,-1.44863,-0.405461,1.52877,0
60390,-1.44851,-0.411182,1.52942,0
60460,-1.45033,-0.416705,1.52615,0
60480,-1.45061,-0.418464,1.52299,0
60500,-1.44929,-0.42096,1.51955,0
60520,-1.44935,-0.422956,1.51628,0
60540,-1.45182,-0.422401,1.51351,0
60560,-1.45429,-0.418832,1.51142,0
60580,-1.45604,-0.41296,1.50853,0
60600,-1.4567,-0.407757,1.50546,0
60620,-1.45523,-0.403003,1.50117,0
60640,-1.45571,-0.397321,1.49707,0
60660,-1.45492,-0.389593,1.49389,0
60670,-1.45399,-0.38079,1.49183,0
60670,-1.45304,-0.372728,1.48941,0
60690,-1.45225,-0.365541,1.48704,0
60720,-1.4544,-0.357561,1.48896,0
60750,-1.45713,-0.352821,1.49218,0
60770,-1.45413,-0.351629,1.49119,0
60790,-1.45792,-0.357287,1.49144,0
60810,-1.45622,-0.349742,1.48836,0
60830,-1.45223,-0.33168,1.4851,0
60830,-1.44632,-0.317925,1.48106,0
60850,-1.44584,-0.315383,1.47912,0
60850,-1.44617,-0.314564,1.4786,0
60870,-1.44532,-0.314219,1.47861,0
60870,-1.44534,-0.314471,1.47863,0
60890,-1.44573,-0.314909,1.47954,0
60890,-1.44708,-0.315091,1.48089,0
60910,-1.44826,-0.315299,1.48175,0
60920,-1.44867,-0.314924,1.48248,0
60930,-1.44797,-0.314248,1.48307,0
60950,-1.4468,-0.313198,1.48394,0
60950,-1.44616,-0.312024,1.48546,0
60970,-1.4463,-0.310556,1.48679,0
60970,-1.44682,-0.308816,1.48862,0
60990,-1.44658,-0.306905,1.49012,0
60990,-1.44657,-0.306305,1.49151,0
61010,-1.44735,-0.306355,1.49208,0
61010,-1.44801,-0.305941,1.49211,0
61030,-1.44717,-0.304316,1.49225,0
61060,-1.4459,-0.304778,1.49108,0
61090,-1.44823,-0.307097,1.49487,0
61110,-1.44075,-0.304033,1.49066,0
61130,-1.44338,-0.313248,1.4943,0
61150,-1.44854,-0.326108,1.49657,0
61170,-1.45205,-0.329742,1.49778,0
61190,-1.45476,-0.324064,1.49814,0
61210,-1.45912,-0.314717,1.49859,0
61230,-1.46581,-0.308979,1.50034,0
61250,-1.46695,-0.311779,1.50133,0
61270,-1.47151,-0.315139,1.50724,0
61290,-1.46423,-0.312383,1.50362,0
61310,-1.46812,-0.321155,1.50782,0
61310,-1.46403,-0.327584,1.50438,0
61330,-1.46287,-0.330671,1.50455,0
61350,-1.46423,-0.333501,1.50598,0
61350,-1.46378,-0.337088,1.50473,0
61370,-1.46365,-0.340323,1.50361,0
61370,-1.46384,-0.34343,1.50227,0
61390,-1.46465,-0.346683,1.50104,0
61410,-1.46579,-0.350091,1.50024,0
61410,-1.46705,-0.3527,1.49936,0
61430,-1.46784,-0.354283,1.49845,0
61450,-1.46943,-0.355521,1.49856,0
61450,-1.47152,-0.356652,1.49885,0
61470,-1.47234,-0.357472,1.49882,0
61490,-1.47211,-0.358452,1.49879,0
61510,-1.47201,-0.358979,1.49932,0
61520,-1.47199,-0.359003,1.49992,0
61530,-1.4722,-0.358502,1.50098,0
61550,-1.47127,-0.357822,1.50174,0
61570,-1.47009,-0.35678,1.50267,0
61570,-1.46893,-0.355347,1.50331,0
61580,-1.46837,-0.353874,1.50404,0
61600,-1.46781,-0.352453,1.50465,0
61620,-1.46665,-0.351267,1.50509,0
61640,-1.46542,-0.350059,1.50503,0
61640,-1.46399,-0.34828,1.50489,0
61660,-1.46244,-0.34685,1.50442,0
61680,-1.46152,-0.345755,1.50393,0
61680,-1.46122,-0.344732,1.50354,0
61700,-1.46097,-0.344442,1.50288,0
61720,-1.46135,-0.343352,1.50317,0
61750,-1.45585,-0.342413,1.49853,0
61780,-1.45235,-0.339465,1.4937,0
61800,-1.45591,-0.343489,1.49635,0
61820,-1.46097,-0.352676,1.49833,0
61840,-1.46355,-0.350684,1.4982,0
61860,-1.46549,-0.338279,1.49732,0
61880,-1.46847,-0.321881,1.49634,0
61900,-1.47395,-0.305838,1.49696,0
61920,-1.48188,-0.301232,1.49967,0
61950,-1.48157,-0.320897,1.50105,0
61960,-1.47309,-0.32633,1.49879,0
61980,-1.47578,-0.323905,1.49971,0
62000,-1.4732,-0.343587,1.50033,0
62020,-1.47409,-0.361554,1.50294,0
62040,-1.47567,-0.368948,1.50362,0
62060,-1.47275,-0.358624,1.50058,0
62080,-1.46838,-0.345473,1.49823,0
62100,-1.46435,-0.342921,1.49793,0
62140,-1.46083,-0.352302,1.49852,0
62160,-1.45607,-0.367861,1.49858,0
62180,-1.44996,-0.383016,1.49808,0
62200,-1.44208,-0.388131,1.49615,0
62220,-1.44012,-0.370354,1.49483,0
62240,-1.44854,-0.356499,1.49815,0
62260,-1.43888,-0.373179,1.49668,0
62280,-1.44799,-0.355424,1.50015,0
62300,-1.43695,-0.364454,1.49744,0
62320,-1.43598,-0.351114,1.49548,0
62320,-1.43345,-0.349071,1.49257,0
62340,-1.43416,-0.349249,1.49412,0
62360,-1.43401,-0.349206,1.49555,0
62380,-1.43439,-0.349976,1.49676,0
62390,-1.43449,-0.350654,1.49769,0
62400,-1.43418,-0.35125,1.49832,0
62420,-1.43324,-0.351803,1.49863,0
62440,-1.43277,-0.351369,1.49974,0
62460,-1.43261,-0.351036,1.50055,0
62460,-1.43346,-0.351052,1.5015,0
62480,-1.43488,-0.350548,1.50282,0
62500,-1.43524,-0.349837,1.50425,0
62520,-1.43511,-0.349627,1.50592,0
62520,-1.4358,-0.350249,1.50764,0
62540,-1.43706,-0.350754,1.50943,0
62560,-1.43885,-0.351522,1.5113,0
62580,-1.43974,-0.352641,1.51311,0
62580,-1.43934,-0.35497,1.51465,0
62600,-1.43893,-0.357471,1.51596,0
62620,-1.43893,-0.359578,1.5179,0
62640,-1.43934,-0.361421,1.51963,0
62640,-1.43995,-0.363673,1.52154,0
62660,-1.44036,-0.365795,1.52368,0
62680,-1.4411,-0.36756,1.52594,0
62700,-1.4418,-0.369346,1.52857,0
62710,-1.44266,-0.370984,1.53085,0
62720,-1.44384,-0.373147,1.53249,0
62740,-1.44481,-0.374981,1.53382,0
62760,-1.44553,-0.376023,1.53565,0
62780,-1.44562,-0.377091,1.5379,0
62780,-1.44558,-0.378748,1.53959,0
62800,-1.44547,-0.380207,1.541,0
62820,-1.44628,-0.380727,1.54241,0
62840,-1.44715,-0.381055,1.54369,0
62840,-1.44774,-0.381038,1.54439,0
62860,-1.44777,-0.380457,1.54506,0
62880,-1.44802,-0.380093,1.54543,0
62900,-1.44766,-0.379625,1.54582,0
62900,-1.44682,-0.379888,1.54611,0
62920,-1.44589,-0.380877,1.54599,0
62940,-1.44539,-0.381288,1.54547,0
62960,-1.44479,-0.381513,1.54518,0
62960,-1.44425,-0.38247,1.54461,0
62980,-1.44367,-0.383645,1.5443,0
63000,-1.44349,-0.384305,1.54399,0
63020,-1.444,-0.384733,1.54387,0
63020,-1.44467,-0.385242,1.54389,0
63040,-1.44474,-0.385733,1.54384,0
63060,-1.4451,-0.386361,1.54397,0
63070,-1.44606,-0.386813,1.54429,0
63080,-1.44663,-0.387451,1.54432,0
63100,-1.44679,-0.388338,1.54445,0
63120,-1.447,-0.390263,1.54449,0
63140,-1.44724,-0.392617,1.54435,0
63140,-1.44715,-0.395175,1.54417,0
63180,-1.44635,-0.397893,1.5438,0
63210,-1.44618,-0.400987,1.54333,0
63250,-1.44624,-0.403361,1.54342,0
63300,-1.44611,-0.405469,1.54332,0
63350,-1.44547,-0.407419,1.54323,0
63490,-1.44452,-0.408173,1.54133,0
63570,-1.44458,-0.405565,1.53961,0
63600,-1.44475,-0.401646,1.53773,0
63650,-1.44362,-0.400053,1.53624,0
63680,-1.44158,-0.396896,1.53492,0
63700,-1.44069,-0.392924,1.53414,0
63720,-1.44137,-0.389515,1.53244,0
63740,-1.44193,-0.386907,1.53058,0
63740,-1.44061,-0.383341,1.52947,0
63760,-1.43921,-0.3805,1.52795,0
63780,-1.43784,-0.377984,1.52488,0
63800,-1.43781,-0.375731,1.52251,0
63820,-1.43934,-0.374511,1.52282,0
63840,-1.43381,-0.366354,1.51605,0
63870,-1.4285,-0.362145,1.51191,0
63900,-1.42732,-0.372628,1.51054,0
63920,-1.4263,-0.389917,1.50914,0
63920,-1.42607,-0.406997,1.50843,0
63960,-1.41721,-0.41115,1.50009,0
63980,-1.41506,-0.409369,1.4986,0
64000,-1.41458,-0.406936,1.49789,0
64020,-1.41391,-0.404609,1.49789,0
64040,-1.41309,-0.402315,1.49838,0
64060,-1.41297,-0.400178,1.49936,0
64080,-1.41394,-0.398344,1.50038,0
64100,-1.41443,-0.396025,1.50105,0
64120,-1.41356,-0.392249,1.50102,0
64140,-1.4134,-0.387739,1.50088,0
64160,-1.41504,-0.383279,1.50171,0
64180,-1.41626,-0.379631,1.50283,0
64200,-1.41575,-0.376498,1.50367,0
64220,-1.4141,-0.373367,1.50389,0
64240,-1.41369,-0.369297,1.50381,2000
64260,-1.41542,-0.364468,1.50464,0
64280,-1.41921,-0.359644,1.50595,0
64280,-1.42108,-0.355348,1.50722,0
64300,-1.42081,-0.351929,1.50821,0
64320,-1.41866,-0.349232,1.50846,0
64340,-1.4219,-0.344969,1.51258,0
64360,-1.43176,-0.341569,1.51979,0
64380,-1.43043,-0.336798,1.52031,0
64420,-1.43618,-0.345371,1.52494,0
64430,-1.43983,-0.349841,1.52729,0
64450,-1.44107,-0.343144,1.52821,0
64470,-1.4426,-0.330549,1.52811,0
64490,-1.44708,-0.317036,1.52938,0
64510,-1.45417,-0.309975,1.53251,0
64530,-1.45857,-0.322854,1.5373,0
64550,-1.44938,-0.337847,1.53722,0
64550,-1.44892,-0.334984,1.53822,0
64570,-1.45091,-0.334066,1.5413,0
64570,-1.4505,-0.33331,1.54229,0
64590,-1.449,-0.333255,1.54249,0
64590,-1.44754,-0.333977,1.54229,0
64610,-1.44726,-0.33483,1.54197,0
64610,-1.44679,-0.334349,1.54237,0
64630,-1.44593,-0.332758,1.54272,0
64630,-1.44441,-0.331653,1.54294,0
64650,-1.44293,-0.330743,1.54245,0
64660,-1.44266,-0.329491,1.54329,0
64670,-1.44205,-0.328365,1.5441,0
64690,-1.4406,-0.327573,1.54523,0
64690,-1.43932,-0.326914,1.54578,0
64710,-1.43851,-0.327894,1.54653,0
64710,-1.4374,-0.328731,1.54613,0
64730,-1.43617,-0.329806,1.54635,0
64730,-1.43541,-0.331492,1.54669,0
64750,-1.4347,-0.332704,1.54711,0
64750,-1.43489,-0.33336,1.54769,0
64770,-1.43532,-0.333849,1.54853,0
64770,-1.43568,-0.334886,1.54916,0
64790,-1.43654,-0.335714,1.54945,0
64790,-1.4365,-0.33609,1.54962,0
64810,-1.43703,-0.336058,1.55004,0
64830,-1.4371,-0.335628,1.55013,0
64830,-1.43696,-0.335501,1.5501,0
64830,-1.43696,-0.335501,1.5501,0
64840,-1.4374,-0.328731,1.54613,0
64870,-1.4347,-0.332704,1.54711,0
64870,-1.43489,-0.33336,1.54769,0
64890,-1.43532,-0.333849,1.54853,0
64890,-1.43568,-0.334886,1.54916,0
64910,-1.43654,-0.335714,1.54945,0
64910,-1.4365,-0.33609,1.54962,0
64930,-1.43703,-0.336058,1.55004,0
64950,-1.4371,-0.335628,1.55013,0
64950,-1.43696,-0.335501,1.5501,0
64960,-1.43927,-0.32935,1.55383,0
64980,-1.43988,-0.32853,1.55469,0
64980,-1.44059,-0.327252,1.55587,0
65000,-1.44042,-0.325641,1.55694,0
65000,-1.44261,-0.325397,1.55701,0
65020,-1.44388,-0.324794,1.55746,0
65020,-1.44399,-0.323553,1.55847,0
65040,-1.44377,-0.323149,1.5589,0
65040,-1.44289,-0.322605,1.55901,0
65060,-1.44205,-0.321616,1.55895,0
65080,-1.44108,-0.321836,1.5585,0
65080,-1.43915,-0.322228,1.55773,0
65090,-1.43726,-0.322755,1.55709,0
65100,-1.43712,-0.322628,1.55707,0
65120,-1.43743,-0.321805,1.55677,0
65120,-1.43775,-0.321333,1.55626,0
65140,-1.43781,-0.321071,1.55612,0
65140,-1.43745,-0.321596,1.55638,0
65160,-1.43648,-0.322327,1.55623,0
65160,-1.4355,-0.322825,1.55618,0
65180,-1.43536,-0.322699,1.55616,0
65180,-1.43526,-0.322826,1.55616,0
65200,-1.43437,-0.323079,1.55622,0
65200,-1.43356,-0.323021,1.55626,0
65220,-1.43219,-0.322809,1.5566,0
65220,-1.42915,-0.323026,1.55696,0
65240,-1.42509,-0.324547,1.55709,0
65250,-1.42182,-0.324141,1.55726,0
65300,-1.41849,-0.320147,1.55999,0
65350,-1.4175,-0.320396,1.56154,0
65390,-1.41672,-0.322794,1.56118,0
65450,-1.41512,-0.325023,1.5601,0
65490,-1.41348,-0.329078,1.55794,0
65510,-1.41174,-0.332678,1.55622,0
65510,-1.41022,-0.33518,1.55542,0
65530,-1.40847,-0.336508,1.55413,0
65550,-1.40857,-0.338018,1.55352,0
65570,-1.40933,-0.339434,1.55272,0
65570,-1.41022,-0.340465,1.55239,0
65590,-1.41081,-0.340941,1.55211,0
65610,-1.41156,-0.341024,1.55169,0
65630,-1.41185,-0.34111,1.55123,0
65630,-1.41155,-0.34074,1.55042,0
65650,-1.4112,-0.340161,1.54947,0
65670,-1.4118,-0.339136,1.54906,0
65690,-1.41233,-0.338306,1.54878,0
65700,-1.41279,-0.338023,1.5483,0
65710,-1.41264,-0.337663,1.54763,0
65730,-1.41252,-0.337321,1.54722,0
65750,-1.41337,-0.336696,1.54724,0
65770,-1.41333,-0.336043,1.54681,0
65790,-1.41253,-0.335818,1.54634,0
65810,-1.4122,-0.335312,1.54614,0
65830,-1.41241,-0.334494,1.54596,0
65830,-1.41237,-0.333537,1.54576,0
65850,-1.41227,-0.333031,1.54558,0
65870,-1.41166,-0.332319,1.54521,0
65890,-1.41094,-0.331199,1.54518,0
65950,-1.40974,-0.329145,1.5459,0
66000,-1.40988,-0.327939,1.5463,0
66020,-1.41124,-0.325417,1.54672,0
66040,-1.41175,-0.324407,1.54717,0
66040,-1.41166,-0.323482,1.54734,0
66060,-1.41177,-0.32319,1.54758,0
66060,-1.41158,-0.323093,1.54792,0
66080,-1.4118,-0.323376,1.54834,0
66080,-1.41214,-0.323833,1.54865,0
66100,-1.41203,-0.324476,1.54895,0
66100,-1.41135,-0.325294,1.54908,0
66120,-1.41096,-0.326084,1.5496,0
66120,-1.41114,-0.326747,1.55017,0
66140,-1.41136,-0.326796,1.55082,0
66140,-1.41149,-0.326855,1.55158,0
66160,-1.41152,-0.326925,1.55246,0
66160,-1.41214,-0.32677,1.55362,0
66180,-1.41292,-0.326341,1.55453,0
66200,-1.41331,-0.325833,1.55527,0
66200,-1.41321,-0.325075,1.55595,0
66220,-1.41374,-0.324297,1.55705,0
66220,-1.41411,-0.323254,1.55812,0
66240,-1.4145,-0.322467,1.55908,0
66240,-1.41466,-0.32126,1.55963,0
66260,-1.41443,-0.319697,1.56022,0
66260,-1.41339,-0.318432,1.56053,0
66280,-1.41199,-0.317208,1.5607,0
66280,-1.41112,-0.315905,1.5614,0
66300,-1.41038,-0.314896,1.56263,0
66300,-1.4104,-0.314086,1.5642,0
66320,-1.41101,-0.31335,1.56581,0
66320,-1.41194,-0.313275,1.56664,0
66340,-1.41329,-0.313479,1.56776,0
66360,-1.41461,-0.313711,1.56939,0
66360,-1.41621,-0.314494,1.57083,0
66380,-1.41659,-0.316227,1.57102,0
66380,-1.41664,-0.317929,1.57128,0
66400,-1.41697,-0.319178,1.57155,0
66400,-1.41664,-0.320991,1.57079,0
66420,-1.41574,-0.322467,1.56971,0
66420,-1.41505,-0.323175,1.56908,0
66440,-1.4143,-0.323043,1.56813,0
66440,-1.41311,-0.322403,1.56773,0
66460,-1.41173,-0.321902,1.56744,0
66460,-1.41342,-0.321339,1.56766,0
66480,-1.41574,-0.319585,1.56859,0
66490,-1.41651,-0.31782,1.56989,0
66500,-1.41672,-0.31745,1.57075,0
66520,-1.41558,-0.317467,1.57153,0
66520,-1.41403,-0.31686,1.57312,0
66540,-1.41313,-0.316648,1.57491,0
66540,-1.41261,-0.316502,1.57536,0
66560,-1.41261,-0.315626,1.5768,0
66560,-1.41339,-0.314262,1.57852,0
66580,-1.41453,-0.314062,1.57935,0
66580,-1.41287,-0.314122,1.57972,0
66600,-1.41183,-0.313318,1.58033,0
66600,-1.4126,-0.312882,1.58124,0
66620,-1.41312,-0.312847,1.58166,0
