Timestamp, Rotation x, Rotation y, Rotation z, Marker
30,3.625,1.1875,-2.3125,0
40,5.1875,1.3125,-2.5625,0
70,7.5625,-0.8125,-4.25,0
90,6.8125,-1.75,-3.6875,0
90,8.5,-0.4375,-1.375,0
110,7,0.125,-1.1875,0
110,1.625,0.25,-2.875,0
110,0.375,0.3125,-3.25,0
150,3.5,1.1875,-3.0625,0
170,7.1875,-2.5625,-0.125,0
210,7.375,-1.625,-2.875,0
240,8.1875,-0.6875,-2.6875,0
250,6.25,-2.9375,-0.1875,0
290,6.5,-0.125,-3.5625,0
320,7.3125,0,-4.375,0
340,7.75,-0.25,-4.5625,0
370,5.5625,-1.9375,-2.9375,0
390,-0.875,-0.25,0.8125,0
410,0.9375,-0.6875,1.3125,0
410,-1.5625,0.4375,1.375,0
430,-1.0625,0.75,-0.25,0
430,0,0.75,-2.1875,0
450,0.875,1.1875,-3.0625,0
460,-1.3125,1.4375,-3.375,0
460,-4.25,3.5,-4.4375,0
460,5.625,-4.4375,2.875,0
480,3.0625,5.5625,-4.0625,0
500,-7.4375,0.75,10.75,0
550,16.5625,-2.9375,-11.6875,0
580,14.375,-0.8125,-4.625,0
600,13.5625,-2,-5.9375,0
620,12.5,-5.5,-11.9375,0
640,3.9375,-8.375,-16.125,0
660,-10.75,-8.9375,-21.75,0
660,-5.5625,-24.25,-75,0
680,7.1875,-29.625,-116.375,0
720,29.125,-41.5625,-156.312,0
740,12.4375,-50.625,-172,0
760,-15.0625,-57.5625,-179.375,0
780,-50.75,-62.9375,-181.562,0
800,-78.625,-65.1875,-191.312,0
820,-83.6875,-71.3125,-201.5,0
840,-79.9375,-77.3125,-199.875,0
860,-78.1875,-81.6875,-185,0
870,-77.625,-81.3125,-167.75,0
890,-78.75,-73.25,-134.25,0
910,-74.8125,-69.6875,-114.125,0
930,-69.1875,-66.5625,-94.25,0
950,-60.6875,-64.375,-79.1875,0
970,-47.0625,-61.6875,-65.4375,0
990,-39.1875,-57.8125,-52.125,0
1010,-30.5,-53.5,-48.375,0
1030,-24.5625,-48.375,-37.5625,0
1050,-10.25,-40.875,-28.1875,0
1070,0.9375,-36.625,-26.1875,0
1090,-0.1875,-32.5625,-23.375,0
1110,4.1875,-21.6875,-1,0
1130,16.8125,-6.1875,19.375,0
1150,25.4375,3.125,25.25,0
1170,19.125,7.5625,20.5,0
1190,9.75,13,7.8125,0
1210,5.25,13.5,-7.1875,0
1230,19.75,14.4375,-13.4375,0
1250,18.8125,5.6875,-18.375,0
1270,20.125,-0.1875,-21.1875,0
1290,16,-6.8125,-8.9375,0
1310,16.1875,-9.3125,-4.6875,0
1330,27.5,-10.375,-13.25,0
1350,25.8125,-11.0625,-17.6875,0
1370,16.5,-11.375,-19.875,0
1390,8.625,-8.625,-18.0625,0
1410,8.4375,-4.75,-17.875,0
1430,11.4375,-2.0625,-24.0625,0
1450,12.625,1.25,-23.875,0
1470,9.6875,1.4375,-19.375,0
1490,5.9375,-1,-15.3125,0
1510,3.6875,-1.4375,-11.1875,0
1530,2,0.5,-10.6875,0
1550,-0.1875,2.75,-10.75,0
1570,1,-1.25,-9.875,0
1590,0.75,-5.125,-8.125,0
1610,0.125,-5.125,-9.625,0
1630,-2.3125,-4.4375,-11.0625,0
1650,-2.75,-2.25,-9.625,0
1670,-2.125,-1.75,-10.1875,0
1690,-1.8125,-2.125,-10.9375,0
1710,-2.1875,-2.4375,-12.3125,0
1730,-3.875,0.0625,-13.5,0
1750,0,1.25,-14.125,0
1770,2.4375,-1.0625,-13.0625,0
1790,-0.625,-2.4375,-15.4375,0
1810,-1.1875,-1.375,-17.375,0
1830,-2.8125,0.625,-18.9375,0
1850,-1.625,-2,-18.6875,0
1870,-3.5625,-4.8125,-18.5,0
1890,-5.5625,-4.1875,-20.125,0
1910,-8.4375,-4.8125,-19.0625,0
1930,-7.75,-8.6875,-17.3125,0
1950,-5.5625,-10,-18.75,0
1970,-7.8125,-9.6875,-20.875,0
1990,-11.3125,-8.8125,-20.75,0
2010,-11.6875,-9.5625,-19.25,0
2030,-7.1875,-10.25,-20.875,0
2050,-4.9375,-11.9375,-23.5625,0
2070,-4.9375,-11.625,-24.5625,0
2090,-6.5625,-11.1875,-25.25,0
2110,-6.75,-11.6875,-24.125,0
2130,-6.625,-9.5625,-23.4375,0
2150,-5,-5.75,-21.0625,0
2170,-4.1875,-3.625,-17.75,0
2190,-4.875,-2.9375,-14.8125,0
2210,-4.625,-1.625,-13,0
2230,-5.375,-0.375,-11.3125,0
2250,-5,0,-9.25,0
2270,-0.625,0.125,-6.5625,0
2290,1.3125,-1.0625,-3.125,0
2310,-0.5,-2.5,-2.1875,0
2330,0.375,-3.125,-3.3125,0
2350,2.1875,-4.4375,-5.0625,0
2370,2.9375,-4.5625,-4.4375,0
2390,2.1875,-3.9375,-4,0
2410,0.625,-1.75,-3.5,0
2430,1.3125,-2.1875,-1.4375,0
2450,2,-2.8125,2.0625,0
2470,3.8125,-2.6875,2.1875,0
2490,6.5,-2.0625,4.375,0
2510,5.5625,-2.6875,4.375,0
2530,5.375,-1.125,4.3125,0
2550,3.875,1.125,3.6875,0
2580,4.5,3.9375,4.9375,0
2590,2.5,4.5,3.4375,0
2610,0.9375,3.5625,3.375,0
2630,0.9375,1.375,4,0
2650,1.625,1.0625,1.9375,0
2670,-0.25,1.25,-1,0
2690,-2,0.9375,-0.6875,0
2710,-0.875,0.8125,-0.6875,0
2730,2.9375,0.4375,-1.1875,0
2750,3.5625,-1.8125,-1.1875,0
2770,3.375,-3.25,-1.6875,0
2790,2.375,-2.9375,-3.9375,0
2800,2.9375,-2.4375,-4.8125,0
2820,2.875,-3.9375,-3.75,0
2840,3.75,-5.3125,-3.5625,0
2860,2,-5.6875,-4.5,0
2880,0.1875,-5.4375,-4.75,0
2900,-3.1875,-5.1875,-4.25,0
2920,-3.625,-5.625,-2.875,0
2940,-3.625,-6.1875,-1.875,0
2960,-2.5,-5.125,-3.8125,0
2980,-3.375,-5.3125,-8.25,0
3000,-3.4375,-6.5,-10.75,0
3020,-0.9375,-5.75,-7.75,0
3040,1.75,-4.6875,-3.375,0
3060,0.5,-3.25,-0.4375,0
3080,-1.6875,-3.25,1.75,0
3120,3.5625,-3.25,0.5625,0
3130,4.25,-2.3125,-0.125,0
3140,4.0625,-0.5,-0.1875,0
3150,5.625,-2.5,0,0
3170,6.375,-4.375,1.25,0
3190,6.875,-3.625,1.9375,0
3210,6.625,-0.625,1.5,0
3230,5.75,0.1875,1.3125,0
3250,5.3125,1.25,0.875,0
3270,4,2.4375,-0.4375,0
3290,4.75,3.3125,-2.3125,0
3290,6.5,4.1875,-2.625,0
3310,5.875,4.1875,-2.9375,0
3330,6.3125,5.5625,-3.625,0
3350,7.6875,5.9375,-3.8125,0
3370,10.5,7.125,-3.375,0
3390,13.5625,6.125,-1.4375,0
3410,13.4375,4.0625,-0.375,0
3430,20.0625,4.9375,-0.75,0
3440,23.9375,4.75,-1.0625,0
3450,20.4375,5.4375,-1.625,0
3470,17.3125,5.4375,0.3125,0
3480,13.625,4.5625,2.1875,0
3500,9.9375,5.3125,3.75,0
3520,5.25,5,6.3125,0
3540,1.8125,3.25,8.75,0
3560,-0.375,0.0625,10.75,0
3580,-2.75,-0.0625,11.0625,0
3610,-9.9375,9.5625,5.25,0
3630,-9.375,8.0625,4.5,0
3650,-8.875,6.75,5.0625,0
3670,-8.3125,6.875,5.3125,0
3690,-8.5,5.875,4.125,0
3710,-9.4375,3.5,3.375,0
3730,-11.4375,1.6875,1.6875,0
3750,-15.6875,0,-0.1875,0
3770,-16.3125,-1.625,-9,0
3800,-16.4375,-4.875,-17.5625,0
3820,-17.0625,-5.125,-19.3125,0
3840,-16.25,-6.75,-20.1875,0
3860,-16.25,-8.875,-22,0
3880,-16.375,-9.625,-23.625,0
3910,-16.125,-8.125,-28,0
3930,-18.75,-9.1875,-29.125,0
3950,-20.4375,-9.1875,-29.5625,0
3970,-26.5625,-9.3125,-32.3125,0
3990,-31,-10.5625,-43.0625,0
4000,-29.9375,-15.125,-50.375,0
4020,-36.25,-14.3125,-53.9375,0
4040,-39.1875,-13.4375,-54.4375,0
4050,-25.375,-15.3125,-45,0
4070,-23.375,-16.25,-44.125,0
4090,-22.9375,-16.1875,-40.8125,0
4110,-20.125,-14.625,-37.25,0
4130,-10.1875,-15.4375,-32.4375,0
4170,-7.6875,-14,-23.125,0
4190,-5.4375,-9.875,-18.5625,0
4230,-3.9375,7.8125,-4.6875,0
4250,-4.875,14.0625,-2.5,0
4270,-3.4375,19.4375,2.125,0
4290,-2.875,28.3125,9.6875,0
4310,-2.5,38.6875,17.3125,0
4330,-1.0625,42.3125,22.875,0
4350,3.125,39.4375,28.9375,0
4370,10.6875,35.6875,36.125,0
4390,12.3125,34.25,39.375,0
4410,5.4375,36.8125,40.0625,0
4440,2.625,68.8125,60.1875,0
4460,-3.125,75.875,76.375,0
4480,-11.9375,83.4375,87.0625,0
4500,-16.9375,95.375,88.6875,0
4520,-26.6875,106.062,91.1875,0
4540,-45.25,114,103.625,0
4560,-60.125,120.438,116.75,0
4580,-57.5625,127.312,130.375,0
4600,-53.75,134.75,147.75,0
4620,-54.4375,139.25,163.875,0
4640,-44.0625,141.438,173.438,0
4660,-25.5,132.875,169.25,0
4680,-26.625,112.875,156.938,0
4700,-53.3125,90.9375,140.438,0
4720,-66.6875,73.6875,121.812,0
4740,-43.3125,86.8125,135.188,0
4760,-36.25,93.875,150.062,0
4780,-46.8125,90,144.75,0
4800,-34.125,94.375,134.188,0
4820,-38.0625,95.375,127.688,0
4840,-51.5625,83,131.25,0
4860,-44.1875,67.6875,133.75,0
4880,-9.0625,53.625,129.375,0
4900,27.8125,53.8125,123.812,0
4920,24.5625,57.75,114.5,0
4940,-1.1875,52.375,107.5,0
4980,-34.625,32,106.188,0
5000,-50.875,42.125,104,0
5040,-11.0625,54.3125,88.25,0
5060,-2.5,53.625,83.375,0
5080,-1.8125,35.6875,65.25,0
5100,-8.5625,0.0625,30.3125,0
5120,10.3125,-26.9375,3.5,0
5140,-11.9375,-19.5,-8.5,0
5160,-6.25,-8.0625,-6.3125,0
5180,17.3125,-0.5,3.0625,0
5190,13,4.375,0.9375,0
5210,-0.8125,4.4375,9.9375,0
5230,-19.4375,3.5,15.375,0
5270,-52.3125,-2.25,19.9375,0
5290,-56.5,0.4375,22.125,0
5320,-36.125,-4.125,12.1875,0
5340,-25.5625,-7.3125,8.25,0
5360,-16.9375,-8.125,9.8125,0
5380,-16.1875,-7.4375,12.9375,0
5400,-28.25,-2.8125,20.3125,0
5420,-35.0625,-1.25,19.625,0
5440,-36.5625,-0.875,16.375,0
5460,-35.875,-1.3125,14,0
5480,-31.4375,-1.0625,12.125,0
5500,-23.4375,-0.125,9.5625,0
5520,-16.875,-0.0625,6.5625,0
5540,-13.375,-1.25,3.375,0
5560,-9.25,-1.8125,3.5,0
5580,-6.6875,-1.375,4.1875,0
5600,-7.5,-0.875,3.25,0
5620,-11.5625,-0.8125,3.0625,0
5640,-15.375,-0.75,2.5,0
5660,-17.75,-0.125,1.9375,0
5680,-16.8125,0.5625,2.125,0
5700,-11.75,0.875,2.25,0
5720,-5.6875,0.6875,0.625,0
5760,-0.625,2.3125,-1.25,0
5800,-1.375,1,0.1875,0
5820,-1.3125,0.4375,0,0
5840,-2.875,0.125,-1,0
5860,-4.5,0.625,-0.875,0
5880,-5.1875,0.75,-0.6875,0
5900,-2.6875,0.3125,-0.5625,0
5920,-0.5,-0.3125,-0.0625,0
5940,0.375,-1,0.1875,0
5960,-0.75,-1.6875,0,0
5980,-2.4375,-1.8125,-0.375,0
6000,-3.4375,-1.8125,-0.8125,0
6020,-3.375,-1.3125,-1.875,0
6040,-2.0625,-1,-2.5,0
6060,0.4375,-1.6875,-3,0
6080,0.5625,-1.375,-2.375,0
6100,-1,-0.5625,-1.625,0
6120,-4.125,-0.5625,-1.375,0
6140,-6.75,-0.25,-2.125,0
6160,-7.1875,0.6875,-1.875,0
6180,-5.625,0.375,0,0
6200,-5.5,-0.5625,1.4375,0
6220,-6.9375,-0.1875,1.4375,0
6230,-8.125,0.8125,0.6875,0
6250,-8.125,1.4375,0.9375,0
6270,-7.1875,0.875,1.125,0
6290,-5.125,0.25,0.875,0
6310,-2.3125,-0.1875,-0.25,0
6330,-0.1875,-0.3125,-1.1875,0
6350,0.125,-0.375,-1.625,0
6370,-1,-0.625,-1.3125,0
6390,-3.5,-0.5625,-0.5625,0
6410,-5.125,-0.0625,-0.5,0
6430,-5.375,0.4375,-0.125,0
6450,-4.1875,0.6875,0.5,0
6470,-2.4375,1.0625,1.0625,0
6490,-0.375,1.3125,0.875,0
6510,1.25,1.75,1.25,0
6530,1.125,2,1.875,0
6550,-1.375,2,2.5,0
6570,-3.875,1.5625,1.5625,0
6590,-4.8125,0.875,0.5,0
6610,-3.3125,0.6875,0.75,0
6640,-0.8125,-0.25,2.125,0
6660,-3.375,0,2,0
6680,-5,0.625,2.5,0
6700,-4.9375,1.25,2.5625,0
6720,-2.9375,1.625,2.75,0
6740,-0.625,2.125,3.875,0
6760,2.1875,3.125,4.6875,0
6780,4.5,4,5.3125,0
6800,3.6875,3.75,5.375,0
6820,1,3.0625,3.75,0
6840,-2.1875,2.0625,2.4375,0
6860,-3.25,0.75,2.3125,0
6880,-2.6875,-0.75,1.25,0
6900,-2.5625,-2.1875,-0.875,0
6920,-3.1875,-2.5,-0.1875,0
6940,-3.4375,-1.8125,2.25,0
6960,-5.6875,-1,3.3125,0
6980,-9.625,-0.3125,3.3125,0
7000,-11.9375,0.125,2.875,0
7020,-10.125,0.4375,1.75,0
7040,-4.625,0.5,0.875,0
7060,1.5625,0.3125,0.6875,0
7080,4.875,-0.5,1.0625,0
7100,3.6875,-0.1875,1.9375,0
7120,-3.375,0.75,2.9375,0
7140,-12.25,1.25,4.3125,0
7160,-16.9375,1,4,0
7180,-15.25,1,1.0625,0
7200,-6.625,1.25,-1.25,0
7220,4.25,1.375,-1.875,0
7240,11.4375,1.0625,-1.6875,0
7260,11.5,1,-1.8125,0
7280,6.1875,1.6875,-2.125,0
7300,2.1875,1.875,-2.3125,0
7320,1.125,1.25,-1.75,0
7340,1.375,0.4375,-0.875,0
7360,2.125,-0.3125,-0.3125,0
7380,0.75,-1.3125,-0.3125,0
7400,-1.8125,-1.75,0,0
7420,-4.375,-1.75,0.3125,0
7430,-4.9375,-1.9375,1.0625,0
7450,-4.5625,-1.625,0.4375,0
7470,-2.5,-1.125,-0.875,0
7490,0,-0.4375,-1.1875,0
7510,3,0.75,-0.5,0
7530,4.125,1.6875,-0.375,0
7550,3.1875,1.0625,-0.0625,0
7570,1.125,0.875,0.1875,0
7590,-1.375,1.6875,0.4375,0
7610,-2.5625,2,0.75,0
7630,-1.5,1,1.5625,0
7650,-1.5,0,2,0
7670,-2.5,-0.0625,1.5,0
7690,-4,0.25,0.75,0
7710,-3.125,0.3125,0.875,0
7730,-1.3125,0.4375,1.3125,0
7750,-0.4375,0.375,2,0
7770,-1.5,0.0625,2.4375,0
7790,-4.875,0.125,2.8125,0
7810,-6.125,0.5625,2.5,0
7830,-4.25,0.875,2.125,0
7850,-1.5,0.75,2.375,0
7870,0.6875,1,2.875,0
7890,0.875,1.6875,3.3125,0
7910,0.375,1.25,3.5,0
7930,-0.9375,0.625,3.1875,0
7950,-2.75,1.5,1.75,0
7970,-1.9375,1.8125,0.875,0
7990,-0.875,0.375,1.125,0
8010,-1.375,-0.625,1.625,0
8030,-2.3125,-1.0625,2.1875,0
8050,-4.6875,-1.4375,2.3125,0
8070,-5.4375,-1.5625,2.5625,0
8090,-4.6875,-1.4375,3.375,0
8110,-3.125,-0.5625,3.625,0
8140,-2.0625,2.125,2.5625,0
8160,-1.875,1.6875,2.25,0
8180,-1.375,1.3125,1.4375,0
8200,0.75,1.125,1.25,0
8220,3.5625,1.0625,0.5625,0
8240,3.5625,1.625,0,0
8260,2.1875,1.375,0.125,0
8280,-0.8125,0.5,0.1875,0
8300,-2.875,-0.625,-0.0625,0
8320,-2.375,-1.8125,-0.625,0
8340,-0.0625,-2.0625,-1.25,0
8360,3,-1.3125,-2.0625,0
8380,4,-1.0625,-1.6875,0
8400,3.0625,-1.25,-1,0
8420,0.75,-2.125,-0.5,0
8440,-1.3125,-3.0625,-0.5,0
8460,-2.5,-3.1875,-0.9375,0
8480,-1.875,-3,-0.9375,0
8500,-0.0625,-3.1875,-0.75,0
8520,-0.1875,-3.6875,-0.8125,0
8540,-0.0625,-4.1875,-0.5625,0
8560,-0.3125,-4.6875,-0.5,0
8580,-1.1875,-4.9375,-0.6875,0
8600,-2.625,-5.75,-0.4375,0
8620,-4.125,-6.0625,-0.5,0
8640,-3.9375,-5.5,-0.8125,0
8660,-3.25,-5.4375,-0.9375,0
8680,-2.1875,-5.75,-0.9375,0
8700,-1.3125,-5.875,-1.1875,0
8720,-0.6875,-5.75,-1.3125,0
8740,-0.375,-6,-1.0625,0
8760,-1.5,-6.4375,-1.6875,0
8780,-3.3125,-6.5625,-2.375,0
8800,-4.75,-6.4375,-2.375,0
8820,-4.875,-6.6875,-1.5625,0
8840,-4.75,-7.1875,-1,0
8860,-4.9375,-6.8125,-0.9375,0
8880,-4.25,-6.375,-1.25,0
8900,-3.875,-6.0625,-1.875,0
8920,-2.4375,-5.5625,-1.5,0
8940,-1.875,-5.9375,-1.5625,0
8960,-1.8125,-5.9375,-2,0
8980,-2.125,-5.875,-1.25,0
9000,-2.1875,-5.875,-0.5625,0
9020,-3.625,-5.9375,-1.0625,0
9040,-4.4375,-6.9375,-0.75,0
9060,-4.9375,-8,-0.75,0
9080,-4.5625,-8.125,-1.25,0
9100,-3.6875,-8,-1.25,0
9120,-3.125,-8.625,-1.25,0
9140,-2.4375,-8.8125,-1.0625,0
9150,-2.375,-8.1875,-0.8125,0
9170,-1.5625,-7.6875,-1.1875,0
9190,-1.625,-7,-1.5,0
9210,-1.25,-5.5,-1.0625,0
9230,0.125,-4.6875,-1.25,0
9250,0.125,-4.25,-1.6875,0
9270,0.25,-3.9375,-1.125,0
9290,-0.3125,-3.6875,-0.875,0
9310,-0.125,-3.4375,-0.75,0
9330,-0.1875,-3.875,-0.5,0
9350,-1.0625,-3.9375,-0.5625,0
9370,-1.5625,-3.9375,-0.5,0
9390,-2.5,-3.875,-0.5625,0
9410,-3.625,-3.875,-0.8125,0
9430,-3.3125,-4.375,-1,0
9450,-1.8125,-5,-1,0
9470,-0.875,-5.375,-0.875,0
9490,-1.125,-5.625,-1,0
9510,-0.4375,-5.4375,-1,0
9530,-1.25,-5.625,-0.75,0
9550,-0.9375,-5.75,-1.125,0
9560,-2,-5.4375,-1.625,0
9580,-2.25,-5.375,-1.75,0
9600,-2.5,-4.4375,-2.375,0
9620,-1.375,-3.0625,-2.6875,0
9640,0.6875,-3.125,-3.0625,0
9660,2.125,-4.5625,-3.875,0
9680,2.125,-5.0625,-2.9375,0
9700,1.3125,-4,-2.375,0
9720,-0.375,-1.8125,-1.5625,0
9740,-2,-1.1875,-1.8125,0
9760,-3.125,-1.875,-2.9375,0
9780,-1.75,-3,-4,0
9800,0.25,-3.3125,-4.1875,0
9820,3.1875,-2.625,-2.8125,0
9840,3.6875,-1.5,-1.5625,0
9860,2.0625,-0.125,-1.3125,0
9880,-0.1875,0.4375,-1.375,0
9900,-1.4375,0.9375,-1.5,0
9920,0.375,2,-1.5,0
9940,3,2.3125,-1.5,0
9960,5.1875,1.5625,-1.375,0
9980,5.25,1.5,-1.375,0
10000,3.625,2.5,-1.5,0
10020,1.1875,3.0625,-1.4375,0
10040,-0.0625,2.875,-1.3125,0
10060,1.125,1.875,-0.5625,0
10080,1.5,1.625,-0.5,0
10100,1.3125,1.75,-0.1875,0
10120,0.875,1.8125,-0.0625,0
10140,-0.25,2.0625,-0.5625,0
10160,0,1.8125,-1.1875,0
10180,1.875,1.4375,-1.4375,0
10200,3.4375,1.25,-1.4375,0
10220,4.75,1.25,-1.5625,0
10240,6.4375,2.0625,-1.0625,0
10260,8.6875,2.9375,-0.875,0
10280,10.0625,2.8125,0,0
10300,9.4375,2.5625,0.9375,0
10320,6.625,3.0625,2.25,0
10340,4.0625,2.5625,3.5625,0
10360,-2.1875,0.9375,4.625,0
10380,-7.3125,2.0625,5,0
10400,-10.5,5.125,3.125,0
10420,-6.875,5.4375,3.5625,0
10440,-3.9375,5.8125,2.75,0
10460,-0.5,7.5,1.9375,0
10480,-0.0625,7.8125,1.9375,0
10500,-0.25,7.1875,2.6875,0
10520,-2.25,5.875,3.25,0
10540,-3.5625,5.375,3.5625,0
10560,-4.3125,4.5625,3.5,0
10580,-5.0625,4.3125,3.8125,0
10600,-5.625,4,3.125,0
10620,-4.6875,3.125,2.6875,0
10640,-3.1875,1.5625,1.6875,0
10660,-0.875,0.6875,0.8125,0
10680,0.5625,0.1875,1.125,0
10700,0.4375,-0.3125,1.6875,0
10720,-1.8125,-0.75,1.75,0
10740,-4.1875,-1.1875,1.0625,0
10760,-2.75,-1,-0.0625,0
10780,1.3125,-0.125,-1.5,0
10800,9.0625,-0.625,-3.1875,0
10820,14.1875,-1.3125,-3.8125,0
10840,18.375,-2.1875,-4.625,0
10860,19.625,-1.375,-6.0625,0
10880,20.3125,1.0625,-7.375,0
10900,17.125,1.1875,-3.1875,0
10920,6.25,0.9375,-0.8125,0
10940,-1.125,1.5,1,0
10960,-8.1875,1.3125,1.375,0
10980,-8.75,1.125,0.75,0
11000,-4,1,0,0
11020,2.625,0.625,-0.125,0
11040,5.9375,0.3125,0,0
11060,3.75,0.25,0,0
11080,0,0.4375,0.6875,0
11100,-3.875,0.125,0.8125,0
11120,-6.125,0.6875,0.8125,0
11130,-5.6875,1.0625,0.75,0
11150,-3,0.875,0.4375,0
11170,-1.0625,1.0625,0.1875,0
11190,0.5,1.25,-0.125,0
11210,3.25,1.1875,-1.0625,0
11230,5.1875,1.375,-2,0
11250,7.6875,1.5625,-2.3125,0
11270,8.9375,1.5,-2.5625,0
11290,6.1875,-0.75,-2.625,0
11310,9.75,-10.8125,-6.875,0
11330,56.375,-19.0625,-20.9375,0
11350,107.875,-12.375,-35.3125,0
11370,121.75,-10.9375,-51.375,0
11390,141.812,-19.5,-57.8125,0
11410,155.5,-23,-75.8125,0
11430,131.375,-13.375,-104,0
11450,101.125,-18.5,-111.75,0
11470,86.375,-53.4375,-95.375,0
11490,60.4375,-79.75,-105.312,0
11510,37.8125,-72.625,-135.438,0
11530,25.625,-58.8125,-153.375,0
11550,43.1875,-72,-140.25,0
11570,60.8125,-99,-113.188,0
11590,54.4375,-109.562,-96.3125,0
11610,35,-96.3125,-85.5625,0
11630,3.6875,-76.375,-74.5625,0
11650,-12.9375,-57.5625,-59.9375,0
11670,-13.375,-44.75,-45.5,0
11690,-11.875,-38.5625,-28.4375,0
11710,-1.5,-32.75,-13.75,0
11730,10.875,-24.375,-9,0
11750,17.5625,-17.875,-7.5,0
11770,19.3125,-16.625,-5.375,0
11790,18.75,-15.4375,-3.75,0
11810,15.0625,-15.8125,-2.75,0
11830,15.75,-17.0625,-3.125,0
11850,19.1875,-20,-1,0
11870,24.125,-23.375,1,0
11890,27.5625,-29.0625,4,0
11910,26.5625,-34.5,4.625,0
11930,29.9375,-37.875,1.4375,0
11950,27.375,-39.9375,-1.125,0
11970,23.6875,-40.875,-0.875,0
11990,19.0625,-44.5625,2.8125,0
12010,19.75,-50.9375,2.375,0
12030,17.0625,-54.75,4.4375,0
12050,14.5625,-57.5625,7.25,0
12070,12.5,-60.625,6.625,0
12080,9.5,-60.875,5.625,0
12100,7.9375,-57.875,4.8125,0
12110,6.4375,-54.5625,4.375,0
12130,5,-50.6875,6.4375,0
12150,5.0625,-47.6875,9.125,0
12170,6.25,-42.6875,10.0625,0
12190,6.5,-36.625,8.6875,0
12210,7.1875,-32.8125,9.625,0
12230,8.4375,-31.375,12.125,0
12250,9.875,-28.9375,12.9375,0
12270,9.5625,-24.5,12.4375,0
12290,4.5,-20.375,13.25,0
12310,0.75,-19.875,12.1875,0
12330,-1.1875,-19.5,11.9375,0
12350,-1.375,-17.5,12.125,0
12370,-0.375,-15.3125,11.4375,0
12390,-1.8125,-12.1875,10.1875,0
12410,-3.125,-8.0625,10,0
12430,-4.1875,-5.9375,10.375,0
12450,-3.8125,-5.4375,10.125,0
12470,-3.125,-4.1875,9.0625,0
12490,-1.3125,-2.1875,8.5,0
12510,-0.375,0.125,7.4375,0
12530,-0.5,1.9375,5.9375,0
12550,0.625,1.6875,4.625,0
12570,2.1875,2.625,3.4375,0
12590,2.875,3.3125,2.9375,0
12610,2.25,3.0625,1.625,0
12630,2.375,2.4375,2.125,0
12650,3.4375,2.375,2.4375,0
12670,5.9375,2.375,0.8125,0
12690,7.875,2.25,-0.4375,0
12710,8.8125,2.0625,-1.1875,0
12730,8.25,2.5625,-1.5625,0
12750,5.5625,2.6875,-0.6875,0
12770,4,2.25,2.25,0
12790,3.8125,2.1875,2.9375,0
12810,4.375,2.3125,2.875,0
12830,3.125,2.4375,2.75,0
12850,2.0625,1.25,2.5625,0
12870,0.75,0.4375,1.5625,0
12890,0.875,1.125,1.75,0
12910,1.375,0.5625,1.9375,0
12930,1.625,-0.5625,0.75,0
12950,0.75,-1.375,0,0
12970,-1,-2.375,0.6875,0
12990,-4,-4.9375,-0.25,0
13010,-5.6875,-8.875,-0.9375,0
13030,-4.8125,-11.3125,1.5625,0
13050,-6.25,-13.4375,2.4375,0
13070,-5.125,-14.9375,-3,0
13080,-11.25,-10.125,7,0
13090,-8.5,-13.6875,-0.0625,0
13110,3.875,-19.8125,-9.1875,0
13130,-2.125,-17.3125,2.5625,0
13150,-6.875,-16.6875,10.3125,0
13170,-15.6875,-19.4375,3.8125,0
13190,-12.75,-11.75,-0.8125,0
13210,-17.5,1.5625,1.875,0
13220,-25.5625,6.4375,5.375,0
13240,-22.0625,3.3125,6.4375,0
13260,-15.3125,1.0625,-1.3125,0
13280,-2.5625,-4.4375,-0.5,0
13300,4.6875,-8,13.25,0
13320,-0.75,-10.8125,15.1875,0
13340,-9.3125,-16.5625,17.0625,0
13360,-14.6875,-19.375,20.4375,0
13380,-15.25,-12.625,13.8125,0
13400,-7.9375,1.125,-2.9375,0
13420,-3.3125,9.25,-8.6875,0
13440,-0.875,14.625,-7.75,0
13460,5.5,19.75,-11,0
13480,5.9375,15.375,-12.5,0
13500,4.5,6.125,-15.125,0
13520,4.5,7.4375,-16.75,0
13540,3.9375,16.875,-15.875,0
13550,4.5625,20.0625,-15.875,0
13570,2.25,17,-18.125,0
13590,-0.5625,17.5625,-21.1875,0
13610,2.5625,20.6875,-28.1875,0
13630,14.4375,16.75,-33.4375,0
13650,20.625,12.75,-34.375,0
13670,17.9375,14.5,-36.0625,0
13690,19.5,16.3125,-34.25,0
13710,16.75,14.875,-30.375,0
13730,4.125,14.875,-31,0
13750,5.6875,15.6875,-32.8125,0
13760,16.5,12.25,-33.75,0
13780,16.3125,6.9375,-31.9375,0
13800,16.75,3.125,-32.8125,0
13820,13.0625,0.1875,-38.6875,0
13840,12.75,-1.8125,-41.3125,0
13860,20.6875,-2.125,-34.1875,0
13880,16.25,0.125,-31.75,0
13900,13.6875,-1.5625,-34.0625,0
13920,18.9375,1.6875,-29.3125,0
13940,8.75,14.5625,-26.25,0
13960,4.0625,17.25,-21,0
13980,12.1875,6.0625,-10.25,0
14000,16,7.5625,-0.5625,0
14020,19.5625,7.9375,-4.125,0
14040,15.1875,5.875,-10.5625,0
14060,8.4375,9.25,-11.6875,0
14080,5.4375,20.25,-9.9375,0
14100,12.375,20.625,-7.5,0
14120,9.875,10.75,-6.875,0
14140,4.75,6.6875,-10.75,0
14160,-5.125,15,-15.5625,0
14180,-17.75,21.25,-18.0625,0
14200,-33.3125,18.625,-17.1875,0
14220,-31.1875,12.875,-14.9375,0
14240,-22.625,10.5,-12.0625,0
14260,-22.5,8.375,-12.125,0
14280,-29.0625,6.625,-12.25,0
14300,-33.4375,6.5,-15.75,0
14320,-25.375,8.5,-12,0
14340,-24.25,11.25,-5,0
14360,-20.1875,19.9375,0.8125,0
14380,-19.8125,26.625,-6.875,0
14400,-22.4375,29.125,-2.75,0
14420,-23.75,22.75,6.1875,0
14430,-6.6875,15.8125,13.875,0
14450,-19.9375,11.6875,10.9375,0
14470,-30.25,11.875,8.5,0
14490,-33.25,22.6875,14,0
14510,-35.625,34.9375,9.125,0
14530,-24.0625,32.8125,2.4375,0
14550,-10.75,24.6875,2.625,0
14570,-19.5625,26.125,13,0
14590,-32,28.6875,33.875,0
14610,-44.3125,28.8125,42.8125,0
14630,-45.3125,34.625,41.625,0
14650,-38,39,32.25,0
14670,-26.3125,45.875,34.375,0
14690,-19.375,45.4375,25.0625,0
14710,-14.3125,44.875,15.625,0
14720,-18.625,49.5,6.875,0
14740,-19.4375,50.375,4.0625,0
14760,-12.3125,45.875,8.8125,0
14780,-7.375,40.9375,8.6875,0
14800,-4.125,41.4375,6.5,0
14820,-2.9375,42.9375,2.4375,0
14840,2.8125,52.4375,4.875,0
14860,11.625,58.3125,2.875,0
14880,18.125,54.875,9.75,0
14900,23.5,40.8125,8.1875,0
14920,19.0625,31.8125,18.3125,0
14940,15.0625,35.875,24.9375,0
14960,14.125,35.3125,15.6875,0
14980,21.125,24.8125,9.625,0
15000,19.0625,18.9375,9,0
15020,19.8125,16.875,11.1875,0
15040,21.375,14.875,11.125,0
15060,12.5625,8.75,10.3125,0
15080,0,6.1875,12.1875,0
15100,1.5625,2.6875,14.3125,0
15120,12.25,-0.625,15.0625,0
15140,30.125,5.1875,18.75,0
15160,30.5625,7.8125,20.3125,0
15180,26.5,-0.9375,20.8125,0
15200,14.4375,-6.625,19.5625,0
15220,1.4375,-7.125,15.625,0
15260,-0.3125,-3.3125,11.3125,0
15280,2.25,-0.5625,8.125,0
15300,-2.25,-0.4375,6.8125,0
15340,-1.125,-6.875,5.375,0
15360,7.125,-2.875,6.8125,0
15380,11,3.875,1.1875,0
15400,6.75,6.25,-2.625,0
15420,3.125,3.75,-1.5,0
15440,0.125,9.375,0.625,0
15460,0.625,13.25,0.25,0
15480,3.1875,7.9375,-3.0625,0
15500,3.6875,2.5625,-7.6875,0
15520,1.9375,2.8125,-9.5625,0
15540,-5.3125,1.4375,-11.5,0
15560,-6.625,-3,-12.5625,0
15580,-5.125,-4.5625,-12.9375,0
15600,1.875,-1,-15.4375,0
15620,3.9375,3.0625,-17.125,0
15640,-3.5,5.125,-16.4375,0
15660,-5.5,3.3125,-15.875,0
15680,-4.125,5.375,-17.9375,0
15700,1.25,10.375,-18.8125,0
15720,0.75,15.5625,-17.3125,0
15740,-0.6875,16.625,-16.25,0
15760,7.75,15.0625,-14.125,0
15780,10.875,17.75,-10.1875,0
15800,11.3125,18.25,-5.875,0
15820,9.5,16.625,-2.9375,0
15840,7.9375,14.6875,-1.3125,0
15860,6.6875,16.8125,2.5625,0
15880,7.6875,18.3125,6.375,0
15900,12.875,15.5625,8.6875,0
15920,16.25,10.75,12.0625,0
15940,5.125,12.4375,15.625,0
15960,-2.9375,12.5625,16,0
15980,-8.5625,13.875,15.0625,0
16000,0,13.375,12.4375,0
16020,8.5625,11.125,10.75,0
16040,5.1875,8.25,7,0
16060,0.5625,4.125,3.0625,0
16080,-6.125,1.4375,1.75,0
16100,-11.25,2.3125,3.5,0
16120,-6.875,2.5625,1.125,0
16140,3.5625,7.125,0.5625,0
16160,8.1875,14.5,2.125,0
16180,-5,18.5,0.625,0
16200,-7,12.75,-2.8125,0
16220,-0.5,5.8125,2.0625,0
16240,12.4375,5.9375,8.25,0
16260,17.6875,9.75,3.3125,0
16280,15,8.0625,2.5,0
16300,8.0625,1.375,3.875,0
16320,7.375,0.3125,5.125,0
16340,9.25,1.1875,5.625,0
16360,8.9375,-1.875,6.5,0
16380,4.75,-4.3125,9.0625,0
16400,4.8125,-4.9375,10.5625,0
16410,-0.375,-7.875,7.6875,0
16430,7.3125,-12.625,5.875,0
16450,11.1875,-12.125,3.625,0
16470,9.4375,-5.4375,2.375,0
16490,10.25,-1.875,2.625,0
16510,9.4375,-4.25,2.8125,0
16530,4.75,-6.8125,-2.375,0
16550,2.5625,-6.6875,-8.1875,0
16570,1.5,-7.5,-6.75,0
16590,3.125,-4.75,-6.4375,0
16610,-0.25,-7.9375,-6.4375,0
16630,-2.4375,-10.125,-5.25,0
16650,-14.125,-9.9375,-11.0625,0
16670,-15.5,-11.125,-17.9375,0
16690,-18.1875,-12.875,-20.5625,0
16710,-25.375,-16.5625,-12.3125,0
16730,-26.625,-11.9375,3.875,0
16750,-25.5,-3.4375,14.1875,0
16770,-34.0625,-4.125,26.375,0
16790,-52.25,2.6875,39.4375,0
16810,-64.25,11.6875,58.5,0
16830,-71.25,25.0625,63.375,0
16850,-71.75,26.25,48.125,0
16870,-57.6875,22.1875,37.5625,0
16890,-26.25,27.3125,34.875,0
16910,-2.625,38.75,30.8125,0
16930,9.125,43.125,23.375,0
16950,9.6875,46.5,10.5,0
16970,1.625,45.1875,-3.1875,0
17000,-11.625,38.25,-22.75,0
17020,-0.75,42.125,-23,0
17040,16.6875,47.8125,-13.0625,0
17060,24.4375,53.25,-3.9375,0
17080,19.875,42.875,6.875,0
17100,12.5,39.5,25.9375,0
17120,10.375,43.5625,29.0625,0
17140,21.5625,39,11.4375,0
17160,39.6875,22.375,12,0
17180,55.8125,6.1875,24.125,0
17200,38.125,-0.9375,8.4375,0
17220,16.6875,-2.1875,-4.375,0
17240,22.9375,-3.0625,1.25,0
17260,16.3125,-12.9375,-4.9375,0
17280,7.1875,-21.3125,5.0625,0
17300,-6.3125,-30.625,18.1875,0
17320,-13,-32.375,6.8125,0
17340,-15,-33.8125,-13.6875,0
17360,-12.5625,-35.8125,-18.875,0
17380,-5.4375,-42.5625,-20.1875,0
17400,-9.9375,-50.4375,-18.375,0
17420,-21.1875,-59.6875,-28.5,0
17440,-24.0625,-69.25,-49.6875,0
17460,-32.125,-72.4375,-58.75,0
17480,-42.0625,-78,-61.3125,0
17500,-55.6875,-90.6875,-61.5625,0
17520,-58.8125,-94.8125,-61.375,0
17540,-62.8125,-85.375,-71.625,0
17560,-65.375,-73.5,-76.3125,0
17580,-65.375,-74.375,-68.5,0
17600,-71.3125,-73.375,-55.5625,0
17620,-74.75,-68.6875,-53.4375,0
17640,-79.8125,-56.9375,-48.25,0
17660,-71.5625,-49.0625,-34,0
17680,-77.125,-38.8125,-35.0625,0
17700,-82.75,-26.6875,-35.375,0
17720,-78.25,-18.625,-27.6875,0
17740,-66.125,-15.5,-28.5,0
17760,-52,-12.75,-33.3125,0
17780,-33.6875,-14.75,-25.25,0
17800,-36.8125,-11.4375,-12.75,0
17820,-42.6875,-8.5,-7.625,0
17840,-47.625,-4.625,-4.75,0
17860,-46.375,-3.1875,-3.25,0
17880,-41,-3.3125,-0.125,0
17900,-29.125,-5.125,8.5625,0
17920,-18.9375,-8.4375,13,0
17940,-19.75,-10.375,14.6875,0
17960,-28.75,-13.0625,14.4375,0
17980,-28.6875,-19.4375,21.625,0
18000,-23.5,-22.875,30.9375,0
18020,-24.9375,-21.5,35.5,0
18040,-31,-20.0625,32.8125,0
18060,-28.3125,-19.1875,28.0625,0
18080,-28.625,-17.5,26.3125,0
18100,-28.0625,-15.125,23.25,0
18120,-32,-15.375,22.0625,0
18140,-33.9375,-18.75,19.4375,0
18160,-38.6875,-15.75,15.0625,0
18180,-32.8125,-9.375,12.4375,0
18200,-32.125,-10.5,12.3125,0
18220,-30.625,-11.9375,14.0625,0
18240,-22.3125,-8.5,12.0625,0
18260,-16.4375,-5.125,7.4375,0
18280,-13.4375,-7.6875,7.875,0
18300,-15.25,-12.1875,13.4375,0
18320,-17.9375,-11.6875,16.1875,0
18340,-10.875,-6.9375,9.875,0
18360,-3.75,-5.875,5.75,0
18380,-1.5625,-6.75,7.75,0
18400,3.375,-10.375,10.3125,0
18420,4,-10.125,15.5625,0
18440,-1.625,-9,19.1875,0
18460,-4.6875,-4.625,14.4375,0
18480,-0.9375,0.6875,10.8125,0
18500,-2,2.4375,12.4375,0
18520,0.6875,4.25,11.9375,0
18540,0.125,-0.5,4.75,0
18560,2.875,-1.5625,2.625,0
18580,6.5,3.5625,1.5625,0
18600,2.5,4.0625,-4.25,0
18620,-2.4375,0.6875,-5.8125,0
18640,1.6875,-0.1875,-4.9375,0
18660,4.5625,0.0625,-2.4375,0
18680,1.8125,-1.1875,1.125,0
18700,-1.4375,-4.0625,4.4375,0
18720,-7.0625,-4.25,5.0625,0
18740,-11.1875,-1.3125,5.875,0
18760,-8.125,-0.75,6.0625,0
18780,-1.3125,-2.375,7.5,0
18800,2,-1.0625,7.25,0
18820,2.5,2.125,4.8125,0
18840,4,4.4375,5.1875,0
18860,0.75,3.3125,4.5,0
18880,-0.1875,0.4375,-1.875,0
18900,4,-0.0625,-5.5625,0
18920,10.25,3.0625,-6.125,0
18940,10.0625,5.375,-12.5625,0
18960,6.125,2.6875,-17.9375,0
18980,2.5,-1.125,-20.125,0
19000,-1.5,-2.5625,-21.875,0
19020,0.3125,-2.8125,-18.625,0
19040,1.375,-2.25,-12.125,0
19060,4.625,-2.125,-8.8125,0
19080,4.875,0,-6.5,0
19100,5.125,3,-6.8125,0
19120,-1.3125,2.25,-10.8125,0
19140,-1.6875,-0.375,-12.0625,0
19160,-3.875,-0.625,-12.0625,0
19180,3.5,1.875,-11.3125,0
19200,7.3125,4.0625,-13.875,0
19220,-0.9375,3.5625,-17.625,0
19240,-6.25,3.6875,-12,0
19260,-4.4375,-1.375,-9.25,0
19280,-5.0625,-5.0625,-9.8125,0
19300,-8.625,-8.3125,-8.75,0
19320,-5.375,-12.75,-7.75,0
19340,0.25,-5.5,-2.75,0
19360,1.875,1.0625,-2.3125,0
19380,-5.4375,2.9375,-5.75,0
19400,1,3.0625,2.6875,0
19420,5.625,3.0625,9.9375,0
19440,4.375,3.5,4.75,0
19460,-2.3125,4.1875,4.6875,0
19480,-3.4375,3.0625,10.9375,0
19500,0.6875,0.25,7.125,0
19520,2.6875,-2,0.8125,0
19540,0.375,-3.6875,1.375,0
19560,-3.625,-2.75,1.875,0
19580,-0.5625,2.25,-2.125,0
19600,1.0625,1.5,-4.625,0
19620,5.1875,-4.3125,-1.25,0
19640,7.0625,-2.4375,8.375,0
19660,-5.875,-1.75,8.375,0
19680,-9.0625,-5.9375,8.375,0
19700,-9.75,-9.5,18,0
19720,-10,-9.375,25.125,0
19740,-3.125,-7.625,26.5,0
19760,-4.125,-3.875,24.1875,0
19780,-6.1875,0.6875,22.9375,0
19790,-2,3.75,22.8125,0
19810,0.875,4.4375,20.8125,0
19830,8.375,5.4375,17.625,0
19850,12.625,6.625,12.0625,0
19870,13.75,7.8125,6.3125,0
19890,8.3125,7.5,1.6875,0
19910,2.5625,5.6875,-1.75,0
19930,2.625,5.375,-3.5,0
19950,7.375,4.3125,-3.3125,0
19970,9.25,2.3125,-3.3125,0
19990,7,2.5,-3.5625,0
20010,2.9375,2.625,-2.9375,0
20030,-2.0625,1,-1.3125,0
20050,-5.5625,-0.0625,-0.3125,0
20070,-5.6875,0.1875,-1.9375,0
20090,-3.1875,0.3125,-3.4375,0
20110,-0.9375,-1,-4.5625,0
20130,-1.125,-1.75,-5.25,0
20150,-1.625,-1.5625,-4.3125,0
20170,-2.6875,-0.9375,-3.375,0
20190,-4.1875,-1.4375,-4.125,0
20210,-3.25,-1.9375,-3.25,0
20230,-2,-2.0625,-0.1875,0
20250,-1.4375,-1.625,0.6875,0
20270,-0.8125,-1,1.5,0
20290,-1.125,-0.125,1.6875,0
20310,-0.125,1.3125,0.6875,0
20330,1.1875,0.625,0.4375,0
20350,2.5,-0.875,1.25,0
20370,6.5625,-1.4375,2.3125,0
20390,6.5625,1.375,2.3125,0
20410,7.3125,0.9375,-0.1875,2000
20430,7.75,-3.375,-1.0625,0
20450,6.5625,-1.875,3.875,0
20470,8.1875,0.3125,1.25,0
20490,2.1875,2.25,-6.3125,0
20510,6.3125,2.1875,-4.9375,0
20530,8.75,0.5,-3.3125,0
20550,8.375,-1.6875,-2.6875,0
20570,4.625,-0.4375,-2.1875,0
20590,-0.3125,0.25,-0.9375,0
20610,-3.5,-1.5,-1.6875,0
20630,-3,-1.8125,-1.125,0
20650,-1.9375,-0.0625,0,0
20670,-1.125,2,-2.0625,0
20690,-2.3125,2.4375,-1,0
20710,-4.125,2.375,-0.75,0
20730,-5.1875,2.25,-2.25,0
20750,-5.3125,4,-2.625,0
20770,-1.1875,5.8125,-6.8125,0
20790,-1.125,5.375,-12.4375,0
20810,-5.9375,3.25,-13.1875,0
20830,-13.75,2.8125,-15.9375,0
20850,-14.3125,2.6875,-16.4375,0
20870,-5.5,2.5,-10.625,0
20890,1.4375,2.875,-8.625,0
20910,-0.8125,3.25,-7.5,0
20930,-5.1875,0.9375,-3.9375,0
20950,-8.6875,-1.875,-2.6875,0
20970,-11,-1.75,-4.8125,0
20990,-9.9375,-0.375,-6.5,0
21010,-5.75,-0.9375,-8.0625,0
21030,-5,-1.625,-9.9375,0
21050,-2.1875,-1.75,-11.625,0
21070,3,-2,-12.875,0
21090,5.6875,-1.9375,-15.75,0
21110,0.625,-4.8125,-17.1875,0
21130,-3.9375,-7.375,-16.25,0
21150,-4.9375,-6.5625,-14.3125,0
21170,-4.1875,-5.3125,-11.5,0
21190,-3.5,-5.5625,-8.5625,0
21210,-2.75,-4.3125,-8.375,0
21230,-3.375,-1.5,-5.6875,0
21250,-5.375,0.375,-4.4375,0
21270,-4.75,5.0625,-5.125,0
21290,-3.25,9.0625,-4.625,0
21310,-3,13.375,-4.125,0
21330,-3.8125,14.3125,-4.75,0
21350,-6.6875,16.5,-5.9375,0
21370,-6.5,19.875,-8.25,0
21390,-8.5625,24.8125,-10.4375,0
21410,-11.8125,32.625,-10.75,0
21430,-17.75,47.5,-14,0
21450,-2.3125,32.6875,-14.3125,0
21470,-3.0625,28.5,-13.125,0
21490,-8.6875,29.375,-16.3125,0
21510,-10.8125,31.625,-15.0625,0
21530,-7.1875,32.6875,-10,0
21550,-4.625,31.875,-10.9375,0
21570,-9.25,31.6875,-12,0
21590,-12.25,32.3125,-9.1875,0
21610,-10.5,34.1875,-10.5625,0
21630,-11.25,37,-7.5625,0
21660,-15.0625,46.9375,-7.375,0
21680,-19.9375,50.25,-8.125,0
21690,-22.0625,52.25,-5.9375,0
21710,-19.75,53.75,-4.9375,0
21730,-19.75,55.6875,-6.3125,0
21750,-22.1875,57.8125,-8.1875,0
21770,-25,59.1875,-9.4375,0
21790,-25.125,59.5,-8.4375,0
21810,-22.0625,58.625,-9.375,0
21830,-21.3125,57.9375,-12.0625,0
21850,-23.3125,55.125,-14.5625,0
21870,-24.375,49.25,-14.625,0
21890,-22.875,44.5,-13.0625,0
21910,-19.25,41.5,-13.6875,0
21930,-19.625,40.875,-14.625,0
21960,-19.1875,34.875,-4.75,0
21970,-13.875,31.8125,2.9375,0
21990,-10.625,28.5625,6.75,0
22010,-7.375,24.8125,9.25,0
22030,-8.5625,21.1875,10.375,0
22050,-12.0625,18.9375,10.3125,0
22070,-10.625,17.5625,12.8125,0
22090,-12.3125,14.5,17.9375,0
22110,-5.9375,8.75,20.5,0
22130,1.125,1.3125,17.8125,0
22150,4.375,-11.625,8.1875,0
22170,-5.5625,-4.875,8.125,0
22190,-4.625,5.1875,18.875,0
22210,3.75,6.9375,18.5625,0
22230,5.25,5.625,10.125,0
22250,2.25,5.125,7.625,0
22270,-2.9375,2.8125,12.4375,0
22290,-3.5625,0.8125,12.9375,0
22310,1.6875,0.125,8.0625,0
22330,6.8125,-0.125,4.4375,0
22350,6.625,-3.3125,6.125,0
22370,4.6875,-7.375,6.75,0
22390,3.0625,-9.875,4.125,0
22410,0.375,-11.375,2.375,0
22430,2,-12,4.25,0
22450,6.3125,-11.5,2.875,0
22470,8,-12.3125,1.6875,0
22490,6.9375,-15.125,1.875,0
22510,5.6875,-20.75,4.1875,0
22530,6.4375,-25.625,6,0
22550,6.125,-29.375,4.875,0
22570,7.25,-32,2.875,0
22590,8.1875,-34.6875,0,0
22610,9.3125,-38.5625,-2.25,0
22630,10.125,-43.3125,-4.4375,0
22650,16,-46.4375,-7.1875,0
22670,17,-47.75,-10.75,0
22690,16.9375,-49.625,-11.125,0
22710,16.375,-52.125,-10.8125,0
22730,16.1875,-52.625,-11.25,0
22750,19,-52.875,-12.75,0
22770,18.75,-53.8125,-12.6875,0
22790,15.9375,-54.375,-11.5,0
22810,11.375,-54.9375,-10.0625,0
22830,12.6875,-56.4375,-9.625,0
22850,12.9375,-58.1875,-10,0
22870,13.75,-57.5,-8.5,0
22890,11.375,-54.25,-8.5,0
22910,10.5625,-51.875,-9.5625,0
22930,11.9375,-49.875,-10.6875,0
22950,10.875,-46.875,-9.5625,0
22970,9.1875,-43.6875,-12.6875,0
22990,6.8125,-42.0625,-16.625,0
23010,5.375,-39.4375,-17.1875,0
23030,8.75,-34.9375,-14.125,0
23050,10.0625,-32.75,-13.75,0
23070,4,-31.75,-18.8125,0
23090,2.875,-29.6875,-20.5625,0
23110,6.5,-26.3125,-19.6875,0
23130,7.125,-25.125,-19.5625,0
23150,4.8125,-26.9375,-19.8125,0
23170,1.625,-29.1875,-19.9375,0
23190,2.4375,-25.6875,-20.875,0
23210,3.6875,-22.5625,-20.375,0
23230,2.5625,-23.4375,-19.625,0
23250,-1.4375,-25.9375,-18.875,0
23270,-3.125,-23.875,-18.0625,0
23290,0.125,-19.8125,-17.625,0
23310,2.5,-19.375,-16.25,0
23330,-0.5,-20.625,-15.125,0
23350,-0.4375,-16.375,-17.8125,0
23370,1.8125,-8.625,-18.1875,0
23390,5.9375,-6.5625,-17.875,0
23410,0.9375,-4,-22.1875,0
23430,-2.8125,5.0625,-23.9375,0
23450,-1.0625,15.875,-18.5,0
23470,-2.25,18.0625,-18.125,0
23490,-11.75,21.75,-24.6875,0
23510,-15.8125,30.6875,-22,0
23530,-10.8125,37.5,-12.9375,0
23550,-15.6875,37.1875,-14.4375,0
23570,-24.1875,38.8125,-18.0625,0
23590,-24.25,44.25,-14.3125,0
23610,-20.25,45.75,-11.25,0
23630,-23.25,44.625,-14.75,0
23650,-27.8125,44.25,-16.5,0
23670,-28.75,42.9375,-15,0
23690,-26.8125,41.75,-15.625,0
23710,-27.25,40.9375,-18,0
23730,-27.4375,41.8125,-17.5,0
23750,-25.875,40.4375,-18.25,0
23770,-28.0625,38.5625,-19.5,0
23790,-25.75,40.1875,-19.8125,0
23810,-27.5,42.25,-18.625,0
23830,-27.3125,42.875,-15.8125,0
23850,-28.125,41,-16.25,0
23870,-27.75,38.4375,-11.75,0
23890,-24.9375,38.125,-7.375,0
23910,-24.75,39.375,-6.6875,0
23930,-24.5,39.375,-4.5,0
23950,-23.25,37.1875,-1.1875,0
23970,-22.3125,35.25,0.6875,0
23990,-22.6875,34.1875,1,0
24010,-21.3125,32.8125,4.3125,0
24030,-21.125,32.5,7.8125,0
24050,-18.375,33.1875,7.4375,0
24070,-17.25,32.75,6.375,0
24090,-16.625,33.1875,9.375,0
24110,-15.125,35.3125,11.6875,0
24130,-12.9375,35.375,11.5,0
24150,-11.9375,34.625,10.625,0
24170,-11.8125,35.0625,9.5,0
24190,-9.375,36.6875,11.125,0
24210,-6.125,38.5625,13,0
24230,-3.75,37.3125,12.875,0
24250,-3.25,34.4375,11.25,0
24270,-2.9375,32.1875,9,0
24290,-3,32.75,8.4375,0
24310,-2.375,33.0625,12.0625,0
24330,0.3125,30.625,14.5,0
24350,-0.125,30.1875,13.25,0
24370,-1.25,29.125,13.75,0
24390,-0.0625,24.8125,17,0
24410,-0.875,21.375,20.8125,0
24430,-3.6875,19.3125,20.6875,0
24450,-4.4375,16,21.5,0
24470,-3.8125,11.875,24.1875,0
24490,-3.1875,8.75,24.625,0
24510,-4.0625,6.875,22.25,0
24530,-3.3125,3.6875,21.375,0
24550,-2.4375,1.25,21.875,0
24570,-0.875,0.3125,19.8125,0
24590,0.0625,0,16.8125,0
24610,4.1875,-2.1875,16.75,0
24630,6.75,-3.75,17.125,0
24650,9.375,-5.6875,14.1875,0
24670,5.875,-6.3125,11.875,0
24690,4.625,-5.875,12.125,0
24710,5.1875,-6.5625,13.875,0
24730,5.75,-8,14.625,0
24750,5.3125,-8.8125,12.25,0
24770,4.375,-10.6875,12.75,0
24790,1.8125,-11.6875,13.25,0
24810,1.875,-12.1875,12.8125,0
24830,1.875,-13.125,12.0625,0
24850,2.875,-14.375,10.0625,0
24870,3.875,-14.75,10,0
24890,3.75,-14.75,9.375,0
24910,2.8125,-14.1875,8.6875,0
24930,2.625,-15,7.9375,0
24950,3.625,-14.5,6.3125,0
24970,3.875,-15.4375,6.25,0
24990,3.625,-17.8125,5.8125,0
25010,3.6875,-19,5.1875,0
25030,2.1875,-19.4375,4.375,0
25050,1.0625,-20.0625,4.125,0
25070,2.375,-21.4375,4.5625,0
25080,1.875,-23.5625,5.4375,0
25100,3.625,-24.1875,4.4375,0
25120,3.1875,-25,3.875,0
25140,2.8125,-26.5,4.4375,0
25160,2.4375,-27.0625,3.3125,0
25180,3.0625,-26.9375,1.625,0
25200,5.75,-27.9375,1.875,0
25220,8.75,-30,1.5,0
25240,8.1875,-30.625,-0.1875,0
25260,6.5,-29.875,-1.375,0
25280,5.375,-30.125,-0.875,0
25300,7.5,-32.875,-0.8125,0
25320,8.5625,-35.1875,-2.5625,0
25340,7.5,-34.5625,-4.5,0
25360,7.0625,-33.6875,-5.0625,0
25380,7.125,-36,-4.0625,0
25400,7,-37.625,-6.0625,0
25420,7.9375,-36.75,-5.9375,0
25440,7.8125,-35.1875,-4.8125,0
25460,9.1875,-34.5625,-4.3125,0
25480,6.4375,-34.0625,-4.125,0
25500,5.0625,-32.75,-4.5625,0
25520,6.3125,-32.75,-4.75,0
25540,5.5625,-33.625,-6.5,0
25560,7.375,-33.3125,-8.4375,0
25580,7.5,-30.9375,-8.875,0
25600,12.3125,-28.6875,-8.125,0
25620,14.75,-29,-10,0
25640,14.875,-30.9375,-11.75,0
25660,13.25,-31,-13.9375,0
25680,15.25,-29.3125,-12.6875,0
25700,17.5,-26.625,-14.9375,0
25720,16.75,-26.625,-19.3125,0
25740,16,-26.8125,-21.4375,0
25760,18.0625,-23.0625,-23.375,0
25780,21.1875,-21,-26.5625,0
25800,17.9375,-22.25,-28.3125,0
25820,15.5625,-21.625,-27.8125,0
25840,14.625,-19.6875,-27.125,0
25860,13.5,-18.8125,-27.875,0
25880,6.6875,-21.625,-26.5625,0
25900,3.875,-20.6875,-21.875,0
25920,10.9375,-16.125,-20.0625,0
25940,11.375,-17.5625,-23.25,0
25960,5.3125,-21.5625,-25.75,0
25980,6.3125,-21.125,-25.875,0
26000,10,-18.0625,-27.125,0
26020,11.1875,-15,-31.125,0
26040,15.125,-12.3125,-31.6875,0
26060,18.9375,-8.4375,-30.875,0
26080,19.875,-5,-31.8125,0
26100,18.25,0.1875,-33,0
26120,19.1875,4.875,-30.8125,0
26140,16.375,6.3125,-29.5625,0
26160,7.0625,8.8125,-32.3125,0
26180,3.6875,15.125,-32.3125,0
26200,8.9375,19.125,-27.9375,0
26220,5.125,18.5625,-28.5625,0
26240,-3.0625,19.5625,-32.625,0
26260,-3.8125,23.375,-30.8125,0
26280,-0.6875,25.75,-30.75,0
26300,-2.0625,25.5,-32.8125,0
26320,-9.1875,23.6875,-32.875,0
26340,-13.75,24.875,-31.9375,0
26360,-9.125,26.75,-34.5625,0
26380,-8.75,27.4375,-35,0
26400,-12.75,27.6875,-32.5625,0
26420,-15.75,29,-31.5,0
26440,-14.4375,30.1875,-29.6875,0
26460,-14.5,32.625,-28.125,0
26480,-17.625,34.25,-27.3125,0
26500,-19.125,34.9375,-25.75,0
26520,-16.3125,33.625,-23.875,0
26540,-15.75,33.5625,-22.875,0
26560,-17.9375,34.625,-19.625,0
26580,-19.6875,34.5625,-16.3125,0
26600,-18.1875,34.125,-16.5,0
26620,-18.125,33.6875,-14.8125,0
26640,-18.8125,34.125,-11.3125,0
26660,-19,34.25,-8.75,0
26680,-16.5,33.6875,-7.9375,0
26700,-14.375,34.6875,-7.3125,0
26720,-15.875,35.6875,-4.375,0
26740,-13.9375,35.1875,-2.5625,0
26760,-12.5,34.375,-2.5,0
26780,-11.25,33.3125,0.0625,0
26800,-12.25,33.1875,4.8125,0
26820,-10.375,33.1875,8.375,0
26840,-8.5625,32.875,10.4375,0
26860,-7.5,32.5,11.3125,0
26880,-7.375,30.375,12.9375,0
26900,-7.75,30.5,16.375,0
26920,-7.1875,30.9375,20,0
26940,-4.5625,29.9375,21.375,0
26960,-1.5625,28,21.6875,0
26980,-1.1875,27.375,21.625,0
27000,-2.125,26.375,22.625,0
27020,-3.3125,23.6875,22.4375,0
27040,-1.5625,21.625,21.5,0
27050,0.5,19.6875,22,0
27070,1.625,16.25,20.75,0
27090,1.5625,14.625,18.1875,0
27110,1.625,11.875,17.6875,0
27130,1.375,8.375,18.1875,0
27150,-0.125,5.4375,16.8125,0
27170,0.875,4.0625,14.8125,0
27190,0.5,2.125,16.5,0
27210,0.6875,-0.1875,16.875,0
27230,2.3125,-1.5,15.5625,0
27250,3.1875,-4.5,17.125,0
27270,1.3125,-6.25,18.3125,0
27290,-2.375,-6.1875,16.875,0
27310,-1.5,-6.4375,17.875,0
27330,-1.625,-9,21,0
27350,-0.6875,-10.5625,20.625,0
27370,0.5625,-10.9375,17.5,0
27390,-0.75,-12,16.6875,0
27410,-0.5,-12.5625,17.1875,0
27430,0.625,-12.25,15.875,0
27450,4.3125,-13.375,14.75,0
27470,6.9375,-14.125,12.75,0
27490,10.375,-14.5,10.4375,0
27510,9.3125,-16,10.625,0
27530,8.625,-17.25,9.625,0
27550,8.3125,-17.5625,6.6875,0
27570,7.25,-20.4375,6.9375,0
27590,5,-22.5625,6.9375,0
27610,6.125,-22,6.125,0
27630,5.3125,-22.125,5.9375,0
27650,1.8125,-23.125,6.5,0
27670,-0.6875,-22.875,6.5625,0
27690,0.4375,-22.9375,7.1875,0
27710,2.1875,-25.0625,7.3125,0
27730,3.0625,-27.125,8.6875,0
27750,1.5625,-27.375,7.6875,0
27770,-0.4375,-28.0625,8.0625,0
27790,-1.125,-29.875,9.0625,0
27810,-0.1875,-30.75,8.625,0
27830,1.3125,-31.25,8.3125,0
27850,0.8125,-32.5625,8.8125,0
27870,0.25,-31.875,7.375,0
27890,0.5625,-30.625,6.6875,0
27910,1.875,-31.125,6.3125,0
27930,2,-32.75,5.8125,0
27950,2.125,-31.125,4.5,0
27970,2.125,-29.6875,1.75,0
27990,3.625,-29.25,0,0
28010,5.5,-30.625,-1.8125,0
28030,5.5,-31.4375,-4.125,0
28050,4.125,-31.3125,-6.125,0
28070,4.1875,-30.3125,-6.625,0
28090,3.125,-30.25,-7.3125,0
28110,2.9375,-31.3125,-8,0
28130,2.5625,-32.75,-8.25,0
28150,0.4375,-33.25,-8.875,0
28170,0.8125,-33,-8.4375,0
28190,1.25,-33.375,-8.75,0
28210,0.25,-33.375,-9.25,0
28230,1,-32.3125,-9.25,0
28250,2.75,-31.5,-9.625,0
28270,2.9375,-31.9375,-11.75,0
28290,3.0625,-31.875,-12.9375,0
28310,4.1875,-30.6875,-12.3125,0
28330,5,-28.75,-13.0625,0
28350,6.25,-27.8125,-15.625,0
28370,6.6875,-26.75,-16.125,0
28390,8.3125,-24.625,-16.4375,0
28410,8.9375,-22.4375,-17.5,0
28430,9.125,-20.25,-17.9375,0
28450,7.25,-18.25,-21.1875,0
28470,7.9375,-17.6875,-21,0
28490,9.375,-17.1875,-19.5,0
28510,8,-15.1875,-20.25,0
28530,6.4375,-14.25,-21.5,0
28550,4,-13.8125,-20.25,0
28570,4.75,-12.1875,-21,0
28590,7.9375,-9.9375,-23.0625,0
28610,9.5,-9.6875,-23.0625,0
28630,7.4375,-10.1875,-22.6875,0
28650,5.1875,-9.6875,-22.875,0
28670,6.125,-8.1875,-23.75,0
28690,6.5,-6.25,-24.3125,0
28710,5.8125,-4.5,-22.5,0
28730,4.0625,-3.25,-20.3125,0
28750,3.4375,-2.3125,-20.8125,0
28770,3.125,-0.125,-21.8125,0
28790,1.375,0.5,-20.875,0
28810,0.3125,0.875,-20.875,0
28830,-0.1875,0.4375,-20.5625,0
28850,-0.8125,0.5625,-20.0625,0
28870,0.1875,1.1875,-19.9375,0
28890,1.125,0.5625,-19,0
28910,-1.375,-0.6875,-18.75,0
28930,-3.0625,-1.25,-17.9375,0
28950,-1,-0.8125,-17.9375,0
28970,1.5,0.1875,-18.25,0
28990,0.5625,0.4375,-16.8125,0
29010,-0.25,0.3125,-15.6875,0
29030,-1.3125,0.375,-14.1875,0
29050,-2.6875,1.6875,-13.25,2001
29070,-1.5625,2.875,-13.0625,0
29090,-0.9375,2.9375,-11.1875,0
29100,-2.625,3.125,-10.875,0
29120,-1.875,5.0625,-9.1875,0
29140,-0.625,6.5625,-8,0
29160,-1.5,5.75,-6.875,0
29180,-3.1875,4.0625,-2.4375,0
29200,-2.1875,5.6875,-0.25,0
29220,-1.0625,8,-0.125,0
29240,-2.125,8.6875,2.875,0
29260,-2.5625,8.3125,5.6875,0
29280,-7.6875,5.375,5.1875,0
29300,-11.875,2.8125,4.5625,0
29320,-13.0625,0.4375,5.5,0
29340,-8,-0.625,7.75,0
29360,-0.3125,1.25,9.375,0
29380,1.4375,3.25,7.75,0
29400,2.0625,5.3125,6.25,0
29420,5.25,7.125,8.8125,0
29440,-0.25,7.1875,13.625,0
29460,-1.4375,6.625,15.6875,0
29480,-1.375,7.3125,15.875,0
29500,1.0625,8.4375,19.4375,0
29520,2.875,9.0625,25.8125,0
29540,1.0625,8.9375,35,0
29560,-4.375,5.5625,42.625,0
29580,-6.4375,3.0625,47,0
29600,-7.4375,-0.375,52.625,0
29620,-11.75,-5.75,61.5,0
29640,-6.9375,-6.6875,68.1875,0
29660,1.375,-3.4375,73,0
29680,1.8125,-2.75,80.5625,0
29700,8.875,-7.1875,94.4375,0
29720,9.625,-11.3125,102.812,0
29740,9.8125,-9.5625,102.688,0
29760,8.75,-6.1875,103,0
29780,17.8125,-3.875,108.562,0
29800,29.5,-5.375,104.438,0
29820,33.3125,-5.6875,93.75,0
29840,19.4375,-10.1875,91.3125,0
29860,8,-9.8125,89.5625,0
29880,18.5625,-7.3125,73.6875,0
29900,20.875,-7.125,54.875,0
29920,15.125,-8.9375,43.125,0
29940,10.75,-10.25,38.125,0
29960,11.875,-9.1875,29.625,0
29980,18,-5.75,18.4375,0
30000,17.9375,-2.1875,10.125,0
30020,10.25,-2.8125,5.75,0
30040,5.0625,-5.0625,4.4375,0
30060,3.3125,-5.6875,3.625,0
30080,4.9375,-6.25,0.75,0
30100,2.1875,-8.25,-0.125,0
30120,-2.625,-9.9375,0.5625,0
30140,-8.875,-10.9375,0,0
30160,-9.3125,-11.25,1.1875,0
30180,-5.625,-11.375,4.0625,0
30200,-6.0625,-10.3125,4.375,0
30220,-5.375,-9.9375,5.9375,0
30240,-5.625,-9.3125,7.8125,0
30260,-7.25,-7.25,7.4375,0
30280,-2.875,-6.3125,6.5,0
30300,-1.4375,-6.25,7.1875,2000
30320,0.0625,-5,7.75,0
30340,1.3125,-3.625,8.25,0
30360,4.1875,-1.375,5.125,0
30380,5.0625,-0.5625,-2.625,0
30400,4.8125,-2.125,-2.4375,0
30420,4.5625,-6.125,2,0
30440,4.125,-8.1875,3.25,0
30450,3.875,-7.5,0.375,0
30470,3.6875,-6.5,-1.625,0
30490,5.4375,-6.4375,-1.5,0
30510,8.9375,-5.9375,-4.75,0
30530,6.3125,-5.625,-9.625,0
30550,4.875,-5.5,-12,0
30570,5.625,-5.5,-15.1875,0
30590,6.25,-5.75,-17.8125,0
30610,6.75,-6.8125,-17.625,0
30630,2.75,-8.625,-17.25,0
30650,-1.1875,-8.0625,-15.6875,0
30670,-1.75,-7.5,-14.6875,0
30690,-0.875,-8.875,-14.125,0
30710,-4.125,-8.5,-13.875,0
30730,-4,-8.3125,-12.875,0
30750,-7,-7.375,-13.0625,0
30770,-6.125,-2.8125,-10.125,0
30790,-3.5,-0.4375,-9.75,0
30810,-1.5,-1.9375,-11.875,0
30830,-4.4375,-1.5625,-12.5625,0
30850,-7.8125,2.0625,-13.375,0
30870,-8.375,3.75,-14.875,0
30890,-9.625,3.9375,-15.375,0
30910,-7.875,7.8125,-16.3125,0
30930,-9.0625,9.625,-17.6875,0
30950,-7.75,12.0625,-17.8125,0
30970,-7.6875,17.8125,-17.9375,0
30990,-8.375,19.625,-18.4375,0
31010,-6.875,20.9375,-18.6875,0
31030,-7.5,24.4375,-19.375,0
31050,-8.5625,26.5,-19.75,0
31070,-7.5625,30.25,-18.625,0
31090,-6.25,34.625,-18.875,0
31100,-7.125,37.1875,-21.875,0
31120,-8.5,36.125,-22.625,0
31140,-8.125,36.4375,-21.8125,0
31160,-7.4375,38.8125,-22.25,0
31180,-7.625,41.125,-23.875,0
31200,-11.125,41.25,-25.125,0
31220,-12.3125,41.4375,-24.6875,0
31240,-11.0625,42.875,-22.9375,0
31260,-10.3125,45.4375,-22.75,0
31280,-12.5,45.9375,-22.4375,0
31300,-13.4375,45.5625,-20.8125,0
31320,-13.25,46.5,-19.5625,0
31340,-11.6875,48,-18.125,0
31360,-10.8125,48.125,-16.6875,0
31380,-12,47.875,-14.6875,0
31400,-11.1875,47.25,-13.5,0
31420,-10.5,46.4375,-12.3125,0
31440,-9.0625,46.625,-10.4375,0
31460,-8.125,46.125,-10.3125,0
31480,-11.625,45.4375,-8.625,0
31500,-12.8125,46.4375,-7.8125,0
31520,-9.4375,45.4375,-6.125,0
31540,-7.4375,43.6875,-5,0
31560,-7.4375,43.875,-5.4375,0
31580,-7.625,45.6875,-6.5,0
31600,-6.5,45.8125,-5.875,0
31620,-7,46,-4.3125,0
31640,-8,44.1875,-4.0625,0
31660,-9,41.5625,-4.875,0
31680,-7.5625,41.75,-2.75,0
31700,-7.1875,41.3125,-0.9375,0
31720,-6.125,40.25,0.1875,0
31740,-6.125,36.875,-0.0625,0
31760,-7.25,32.6875,0.5625,0
31780,-9.8125,31.5,2.5625,0
31800,-10.5625,28.125,2.9375,0
31820,-12.875,26.125,4.9375,0
31840,-12.1875,23.875,8.125,0
31860,-10.8125,21.1875,9.875,0
31880,-10.3125,18.75,7.875,0
31900,-10,15.875,8.3125,0
31920,-8.5,12.75,10.3125,0
31940,-7.5625,10.875,10.9375,0
31960,-6.8125,9.125,10.5625,0
31980,-5.625,5.25,10.375,0
32000,-5.6875,2.625,10.4375,0
32020,-5,2.375,11.5625,0
32040,-5.625,-0.125,13.1875,0
32060,-4.25,-3.875,11.8125,0
32080,-3.875,-4.75,11.5625,0
32100,-2.75,-4.875,12.1875,0
32120,-4,-7.125,12.125,0
32140,-3.3125,-8.3125,9.5625,0
32160,-5.3125,-8.125,5.125,0
32180,-6.5,-7.5,5,0
32200,-5.5,-6.875,7.875,0
32220,-4.125,-7.375,7.1875,0
32240,-5.9375,-8.875,6.25,0
32260,-5.5,-9.8125,8.125,0
32280,-7,-9.9375,6.8125,0
32300,-8.1875,-10.1875,4.875,0
32320,-6.8125,-11.125,7.5,0
32340,-4.125,-12.5625,9.4375,0
32360,-2.375,-13.9375,8.3125,0
32380,-3.4375,-15.0625,5.375,0
32390,-3.625,-15.8125,6.3125,0
32410,-1.75,-16.8125,9.75,0
32430,0.3125,-18.9375,9.25,0
32450,0.25,-19.5625,6.3125,0
32470,2.125,-20.4375,7.3125,0
32490,3,-21.75,9.1875,0
32510,4.25,-21.8125,9.375,0
32530,5.125,-21.375,7.625,0
32550,8.1875,-22.375,7.5,0
32570,7.75,-24.5625,7.125,0
32590,5.9375,-24.375,6.1875,0
32610,7.0625,-24.6875,5.3125,0
32630,8.25,-27.0625,7,0
32650,8.9375,-29.5625,8.0625,0
32670,7.6875,-30,7.5,0
32690,6.375,-31.625,6.0625,0
32710,6.3125,-33.4375,5.3125,0
32730,6.3125,-34.6875,5.875,0
32750,5.9375,-34.3125,5.75,0
32770,7.875,-33.3125,5.5625,0
32790,8.875,-33.375,4.0625,0
32810,6.3125,-33.9375,3.4375,0
32830,4.1875,-34.9375,3.75,0
32850,3.6875,-35.3125,4.1875,0
32870,4.125,-33.8125,2.3125,0
32890,4.9375,-32.6875,0.5,0
32910,5.5625,-32.0625,1.375,0
32930,6.3125,-31.6875,1.5625,0
32950,6.75,-30.1875,-0.625,0
32970,7.1875,-29.125,-1.4375,0
32990,6.25,-30.5,-0.8125,0
33010,4.875,-32,-0.5625,0
33030,5.4375,-33.375,-2.125,0
33050,3.625,-35.5,-2.625,0
33070,3.6875,-37.25,-1.5,0
33090,4.1875,-37.4375,-1.5625,0
33110,6.0625,-37.4375,-3.0625,0
33130,6.3125,-37.625,-5.3125,0
33150,5.1875,-38.875,-4.8125,0
33170,6.875,-40.5,-5.0625,0
33190,8.375,-40.5625,-6.625,0
33210,8.625,-42.3125,-7.25,0
33230,6.3125,-44.5,-8.3125,0
33250,5.875,-44.5625,-9.875,0
33270,9.4375,-44.6875,-10.6875,0
33290,8.375,-46.3125,-11.1875,0
33310,6.0625,-47.875,-13.25,0
33330,5.6875,-46.4375,-14.75,0
33350,9.4375,-43.9375,-14,0
33370,11.5,-42,-13.8125,0
33390,9.75,-41.25,-14.5625,0
33410,6.75,-40.3125,-13.8125,0
33430,5.1875,-37.25,-10.5,0
33450,10.0625,-34.4375,-8.0625,0
33470,10.875,-32.9375,-10.25,0
33490,6.3125,-32.0625,-14.3125,0
33510,6.25,-29.6875,-13.4375,0
33530,8.375,-26.9375,-11,0
33550,7.8125,-27.5625,-12.875,0
33570,3.6875,-28.8125,-17.75,0
33590,3.3125,-26.4375,-19.375,0
33610,4.3125,-23.625,-18.3125,0
33630,3.6875,-25.25,-20.25,0
33650,1.1875,-25.375,-21.5625,0
33670,-0.0625,-21.75,-22.625,0
33690,-1.375,-17.0625,-21.625,0
33710,-0.6875,-16.875,-23.125,0
33730,-4.9375,-15.125,-26.8125,0
33750,-3.625,-5.8125,-24.6875,0
33770,0.5625,2.9375,-20,0
33790,-0.75,3.625,-23.5625,0
33810,-10.1875,4.375,-29.5625,0
33830,-11,11.625,-26.125,0
33850,-10,17.625,-23.25,0
33870,-10.625,18.875,-23.4375,0
33890,-16.6875,21.125,-23.5625,0
33910,-14.8125,26.5,-22.75,0
33930,-16.1875,28.9375,-23.0625,0
33950,-18.625,28.875,-23.875,0
33970,-21.3125,29.6875,-24.75,0
33990,-20.9375,30.9375,-26.0625,0
34010,-19.3125,32.1875,-29.75,0
34030,-22.375,33.625,-32.875,0
34050,-23.25,37.6875,-31.5625,0
34070,-23.4375,42.125,-32.75,0
34090,-21.8125,42.125,-34.25,0
34110,-22.1875,39.0625,-33.375,0
34130,-25.875,39.3125,-30.6875,0
34150,-27.5625,42.875,-30.875,0
34170,-25.75,45.5,-31.4375,0
34190,-27,44.5625,-29.5,0
34210,-27.375,44.875,-25.9375,0
34230,-26,49.1875,-23.4375,0
34250,-21.6875,52.25,-23.5625,0
34270,-23.0625,52.5,-22.25,0
34290,-24.625,55,-20.5,0
34310,-23.125,56.5,-18.875,0
34330,-18.5625,54.3125,-18,0
34350,-17.25,49.9375,-15.8125,0
34370,-17.8125,47.375,-17.3125,0
34390,-19.5625,46.0625,-18.1875,0
34410,-19.9375,44.3125,-15.9375,0
34430,-18,40.1875,-12.1875,0
34450,-14.75,38.375,-7.8125,0
34470,-14.5,39.625,-6.6875,0
34490,-12.5,42.0625,-8,0
34510,-11.9375,40.9375,-7.125,0
34530,-14.1875,39.375,-2.25,0
34550,-8.625,40.0625,2.625,0
34570,-4.0625,39.5,0.625,0
34590,-5.25,37.5625,-0.8125,0
34610,-8.4375,38.1875,4.25,0
34630,-6.3125,36.75,9.5,0
34650,-5.25,34.3125,9.3125,0
34670,-5.5,32.8125,9.375,0
34690,-7.125,31.0625,14.6875,0
34710,-4.875,27.0625,18.75,0
34730,-3.9375,25.9375,22.0625,0
34750,-4.125,25.9375,25.5625,0
34770,-3.6875,25.75,29.125,0
34790,-0.625,21.0625,29.5625,0
34810,-1.5625,16.5625,30.5625,0
34830,-2.6875,13.875,32.5,0
34850,-4.3125,11.125,33.1875,0
34870,-3.5625,9.5625,34.1875,0
34890,-4.9375,5.6875,33.625,0
34910,-7.6875,1.125,33.875,0
34930,-8.8125,0.75,35.375,0
34950,-9.375,0.3125,37.4375,0
34970,-10.3125,-2.625,41.125,0
34990,-9.25,-8.0625,41.1875,0
35010,-11.125,-10.4375,37.5,0
35030,-7.8125,-9.625,34.875,0
35050,-5.125,-9.625,33.75,0
35070,-6.6875,-12.125,31.125,0
35090,-7.1875,-13.75,26.8125,0
35110,-1.875,-14.625,24.875,0
35130,0.5625,-17.0625,24.3125,0
35150,-0.6875,-20.625,20.5,0
35170,-4,-23.5625,18.5625,0
35190,-2.8125,-26.5,21.25,0
35210,0.375,-28.375,21.0625,0
35230,1.125,-30.4375,16.4375,0
35250,0,-32.75,15,0
35270,-0.75,-34.625,16.875,0
35290,1.5,-36.125,16,0
35310,3.0625,-38.25,13.5,0
35330,3.4375,-39.125,11.4375,0
35350,6.3125,-40.25,11.875,0
35370,6.4375,-41.0625,12.125,0
35390,6.25,-41.6875,9.75,0
35410,5.125,-42.1875,6.875,0
35430,5.375,-42.5,5.875,0
35450,7.75,-42.625,5.0625,0
35470,7.25,-43.4375,3.5625,0
35490,6,-46.4375,2.5,0
35510,6.5,-47.4375,-0.5625,0
35530,6.875,-48.625,-2,0
35550,8,-48.625,-2.0625,0
35570,10.75,-46.5,-3.875,0
35590,12.875,-46.0625,-5.25,0
35610,12,-45.4375,-6.6875,0
35630,9.6875,-42.4375,-6.375,0
35650,10.75,-40.1875,-7.75,0
35670,9.375,-40.0625,-9.5,0
35690,6.5625,-40.875,-10.125,0
35710,3.25,-40.375,-9.5,0
35730,5.1875,-38.1875,-6.1875,0
35750,3.1875,-37,-5.3125,0
35770,-1.4375,-38.4375,-5.875,0
35780,-6.3125,-38.625,-8.0625,0
35800,-3.125,-35.125,-7.9375,0
35820,1.1875,-33.4375,-8.8125,0
35840,-2.8125,-35.3125,-14.1875,0
35860,-5.5,-35.375,-15.25,0
35880,-2.625,-32.4375,-13.9375,0
35900,0.625,-31.125,-16.4375,0
35920,-0.1875,-31,-20,0
35940,-2.375,-29.5,-22.125,0
35960,1.1875,-27.25,-23.875,0
35980,1.0625,-26.4375,-26.0625,0
36000,-0.0625,-25.4375,-26,0
36020,0.4375,-23.375,-25.375,0
36040,2.375,-22.9375,-25.125,0
36060,-1.625,-23.625,-28.6875,0
36080,-3.6875,-22.75,-29,0
36100,-0.5,-19.875,-25.9375,0
36120,-0.25,-19.375,-28.375,0
36140,-2.6875,-18.6875,-31.25,0
36160,-2.0625,-14.3125,-32.1875,0
36180,2.3125,-9.5625,-32.3125,0
36200,3.6875,-6.375,-34.4375,0
36220,1.9375,-1.4375,-36.5625,0
36240,2.1875,6.6875,-35.625,0
36260,8.3125,11.9375,-35,0
36280,6.6875,14.5625,-36.9375,0
36300,-1.25,15.75,-35.9375,0
36320,-1.125,19.25,-32.1875,0
36340,0.9375,22.6875,-33.375,0
36360,-2,25.1875,-32.3125,0
36380,-4.25,26.5,-31.4375,0
36400,-8.4375,26.875,-32.625,0
36420,-9.9375,28.5,-30.8125,0
36440,-9.625,31.75,-29.4375,0
36460,-8.375,34.0625,-31,0
36480,-9.375,34.5,-30.6875,0
36500,-13.1875,34.625,-29,0
36520,-11.4375,35.125,-29.5625,0
36540,-11.4375,36.375,-32.125,0
36560,-12.875,37.1875,-33.8125,0
36580,-13.75,38.4375,-34,0
36600,-14,38.875,-34.5625,0
36620,-12.9375,39.4375,-32.75,0
36640,-14.4375,41.3125,-28.9375,0
36660,-11.9375,44.875,-25.8125,0
36680,-8.125,46.375,-26.5625,0
36700,-9.4375,47.125,-26.4375,0
36720,-10.6875,47.8125,-22.8125,0
36740,-11,47.8125,-22.8125,0
36760,-9.1875,45.875,-22.8125,0
36780,-8.875,44.0625,-20.125,0
36800,-9.875,43.4375,-17.1875,0
36820,-10.875,42.8125,-16,0
36840,-11.8125,41.6875,-12.9375,0
36860,-13.875,39.4375,-10.0625,0
36880,-14.9375,39.6875,-6.625,0
36900,-11.9375,42.5,-2.625,0
36920,-9.5,42.8125,-1.9375,0
36940,-10.625,42,0.75,0
36960,-13.0625,40.5625,7.375,0
36980,-12.0625,40.5,11.5,0
37000,-9.3125,41.0625,9.9375,0
37020,-10.25,39.6875,11.0625,0
37040,-9.8125,38.875,16.8125,0
37060,-9.9375,37.5625,22.3125,0
37080,-6.875,36.25,21.8125,0
37100,-8.875,33.9375,20.8125,0
37120,-9.4375,34.1875,21.625,0
37140,-4.25,30.6875,22.25,0
37160,-2.625,27.375,24.4375,0
37180,-2.875,26.25,24.125,0
37200,-3.1875,25.75,22.3125,0
37220,-2.875,23.375,22.0625,0
37240,-1.5625,20.9375,22.9375,0
37260,-2.375,19.4375,24.75,0
37280,-2,20.375,27.5625,0
37300,-3.5625,17.8125,27.0625,0
37320,-4.5,13.125,26.0625,0
37340,-6.5,9.3125,28,0
37360,-9.1875,5.75,29.875,0
37380,-10.4375,1,30.9375,0
37400,-11.25,-5.625,33.5625,0
37420,-10.3125,-11.6875,33.875,0
37440,-10.4375,-15.125,31.125,0
37460,-12.1875,-17.75,29.75,0
37480,-11.375,-19.625,29.1875,0
37500,-9.4375,-22.9375,28.1875,0
37520,-6.8125,-24.875,26.75,0
37540,-5.75,-25.25,26.5,0
37560,-3.9375,-26.125,25.3125,0
37580,-6.9375,-27.8125,25.5,0
37600,-6.9375,-26.9375,25.9375,0
37620,-4.1875,-25.5,25.0625,0
37640,-2.375,-26.1875,24.9375,0
37660,-3.4375,-28.0625,25.625,0
37680,-3.125,-28.5625,23.3125,0
37700,-2.5,-27.5,20.1875,0
37720,-0.875,-26.9375,19.625,0
37740,-0.375,-28.125,19.875,0
37760,-1.625,-29,18.1875,0
37770,-1.875,-29.25,15.6875,0
37790,-1.875,-27.4375,15,0
37810,0.5625,-26.9375,14.625,0
37830,-1.625,-30.125,12.1875,0
37850,-2,-31.1875,10.9375,0
37870,-0.125,-30.625,10.6875,0
37890,0.4375,-31.875,7.0625,0
37910,0.125,-35.4375,3.375,0
37930,-0.6875,-37.5625,3.75,0
37950,0.4375,-38.875,2.5,0
37970,-3,-40.3125,-2.5,0
37990,-5.125,-44.25,-5.125,0
38010,-7.6875,-46.3125,-6.3125,0
38030,-2.9375,-41.5625,-4.375,0
38050,4.3125,-39.6875,-2.0625,0
38070,3.375,-43.1875,-4.875,0
38090,1.125,-43.375,-9.875,0
38110,-0.75,-39.75,-8.6875,0
38130,-1.4375,-40.375,-7.75,0
38150,-2.5625,-42.9375,-11.375,0
38170,-2,-42.0625,-12.5625,0
38190,-0.5,-39.375,-13.25,0
38210,-1.0625,-36.5625,-15.375,0
38230,-3.0625,-36.6875,-18.125,0
38250,-2.1875,-36.5,-20.6875,0
38270,0.75,-32.5,-24.5,0
38290,4.5625,-26.75,-25.625,0
38310,8.9375,-25.3125,-25.5625,0
38330,10.4375,-25.5,-26.625,0
38350,7,-26.4375,-30.0625,0
38370,2.8125,-26.3125,-28.25,0
38380,1.75,-24.9375,-26.8125,0
38400,2.3125,-23.9375,-28.8125,0
38420,-4.5625,-25.6875,-28.9375,0
38440,-3.1875,-26.6875,-25.625,0
38460,3.5,-23.625,-24.875,0
38480,6.0625,-20.3125,-25.625,0
38500,4.5,-21,-26,0
38520,2.75,-20.8125,-25.5625,0
38540,5.4375,-18.0625,-26,0
38560,5.75,-16.1875,-26.875,0
38580,6.5,-15.1875,-27.1875,0
38600,9.6875,-13.25,-29.4375,0
38620,12.8125,-9.75,-31.875,0
38640,13.5,-7,-32.1875,0
38660,15.0625,-4.5625,-32.8125,0
38680,15.4375,-3.75,-35.1875,0
38700,14.5,-2.1875,-36.125,0
38720,14.625,0.125,-34.9375,0
38740,16.5,0.5625,-35,0
38760,12.6875,-1.375,-36.0625,0
38780,5.8125,-3.75,-33.625,0
38800,7.375,-2.0625,-31.1875,0
38820,12.125,0.8125,-30.5625,0
38840,10.9375,1.25,-29.375,0
38860,5.625,1.875,-25.3125,0
38880,1.5625,3.75,-18.8125,0
38900,5.1875,4.9375,-16.625,2001
38920,3.8125,6.5,-18.5,0
38940,-0.625,6.5,-16.25,0
38960,-4.875,6.875,-10.3125,0
38980,-4.0625,8.125,-7.0625,0
39000,-0.6875,8.4375,-7.125,0
39020,-1.0625,7.75,-4.5,0
39040,-5.6875,5.25,-1.8125,0
39060,-8,5.875,-0.8125,0
39080,-5.875,7.9375,2.125,0
39100,-1.875,10.75,5.6875,0
39120,-5.875,8.25,4.6875,0
39140,-14.5,4,-0.125,0
39160,-11.8125,1.5625,0.1875,0
39180,-7.375,1.75,7.0625,0
39200,-3,4.125,11.375,0
39220,-0.9375,8.25,10.5625,0
39240,0.6875,12.75,10.9375,0
39260,-8.6875,14.1875,18.6875,0
39280,-13.625,15.625,29.5625,0
39300,-7.3125,19.25,39.75,0
39320,-5.8125,23.6875,44.25,0
39340,-10.5625,26.6875,49.1875,0
39360,-17.6875,24.6875,58.9375,0
39380,-23.1875,18.3125,67.8125,0
39400,-21.4375,14.0625,71.1875,0
39420,-21.1875,13.3125,70.125,0
39440,-22.625,17.875,75.125,0
39460,-22.9375,22.375,84.75,0
39480,-9.125,21.125,93.875,0
39500,-4.0625,17.3125,98.75,0
39520,-6.75,16.25,99.5625,0
39540,-9.6875,14.0625,101.562,0
39560,0.9375,8.5625,102.562,0
39580,13.5,5.75,98.3125,0
39600,13.625,1.5,99.5625,0
39620,11.375,-5.6875,106.812,0
39640,6.6875,-10.9375,105.938,0
39660,0.9375,-12.75,98.5,0
39680,13.6875,-18,95.1875,0
39700,16.6875,-22.25,88.75,0
39720,10.8125,-24.3125,80.4375,0
39740,3.625,-24.1875,76.3125,0
39760,5.1875,-23.75,70.0625,0
39780,5,-22.625,56.6875,0
39800,8.75,-19.8125,44.5,0
39820,10.125,-16.875,33.75,0
39840,11,-15.1875,24.6875,0
39860,11.6875,-10.5625,15.375,0
39880,12.625,-5.4375,8.1875,0
39900,12.8125,-2.5,2.6875,0
39920,7.3125,-2,-0.75,0
39940,1.125,-3.125,1.125,0
39960,3.625,-4.625,4.5625,0
39980,3.8125,-4.4375,4.4375,0
40000,-1.3125,-3.8125,4.8125,0
40020,-6.5625,-5.5,10.6875,0
40040,-4.375,-6.8125,17.4375,0
40060,-1.9375,-6.1875,16.25,0
40080,-0.1875,-5.375,12.8125,0
40100,-1,-7,13,0
40120,-1.3125,-6.6875,12.3125,0
40150,-0.1875,-3.5,7.6875,0
40170,3.8125,-4.1875,9.75,0
40190,8.0625,-3.3125,7.25,0
40210,8.875,-2.0625,2.5625,2000
40230,7.1875,-2.3125,2.4375,0
40250,8,-3.1875,7.8125,0
40270,8.3125,-2.25,8.5625,0
40290,7.875,3.625,-2.8125,0
40310,3.875,7.6875,-11.4375,0
40330,4.0625,4.875,-7,0
40350,3.3125,-1.1875,0.25,0
40370,2.8125,-2.5,2.4375,0
40390,-0.8125,-0.625,-2.625,0
40410,0.6875,-1.6875,-3.875,0
40430,1.125,-1.4375,-3.1875,0
40450,3.3125,0.1875,-7.3125,0
40470,4.625,0.75,-14.8125,0
40490,9.875,-1.1875,-18.1875,0
40510,9.0625,-3.6875,-17.5,0
40530,7.1875,-5.9375,-16.5,0
40550,7.6875,-8.9375,-20.375,0
40570,7.625,-10.9375,-21.9375,0
40590,8.0625,-12.25,-20.75,0
40610,5.25,-14.1875,-18.375,0
40630,1.75,-14.6875,-16.6875,0
40650,1.125,-15.1875,-17.25,0
40670,0.6875,-14.125,-16.125,0
40680,-0.25,-12.625,-15.3125,0
40700,-0.9375,-13.8125,-12.875,0
40720,3.8125,-13.875,-9.625,0
40740,3.9375,-15,-13.0625,0
40760,-0.75,-14.5,-15.4375,0
40780,-2.6875,-14.3125,-16.5,0
40800,-1.9375,-11.75,-15.375,0
40820,1.4375,-6.75,-16,0
40840,2.9375,-3.5625,-16.75,0
40860,2.25,-1.9375,-17.4375,0
40880,1.125,0.75,-15.5625,0
40900,5.9375,7.4375,-14.375,0
40920,6.875,11.875,-16.5625,0
40940,7.3125,15,-17.75,0
40960,2.5,17.0625,-19.75,0
40980,2.25,22.4375,-19.75,0
41000,6.5,27.0625,-18.9375,0
41020,5.8125,28.0625,-20.25,0
41040,0.5,29.375,-19.5,0
41060,-1,30.375,-19.25,0
41080,-0.9375,32.375,-20.625,0
41100,-2.875,33.1875,-20.6875,0
41120,-8.0625,33.75,-21.3125,0
41140,-10.6875,34.3125,-20.875,0
41150,-10.3125,37,-20,0
41170,-10.375,39.1875,-20.4375,0
41190,-13.0625,39.3125,-22.0625,0
41210,-14,41.9375,-23.3125,0
41230,-16.5625,46.875,-23.875,0
41250,-16,50.4375,-24.3125,0
41270,-16.5,51.8125,-26.0625,0
41290,-18.8125,52.3125,-27.0625,0
41310,-19.375,55.5625,-28.3125,0
41330,-17.8125,60.3125,-30.5,0
41350,-20.625,59.75,-33.875,0
41370,-23.75,57,-34.125,0
41390,-24.75,57,-30.625,0
41410,-22.75,58.75,-26.5625,0
41430,-23.4375,58.8125,-24.25,0
41450,-25.9375,58.1875,-23.6875,0
41470,-27.125,57.8125,-21.1875,0
41490,-24.1875,58.125,-17.5625,0
41510,-21.625,56.1875,-14,0
41530,-20.625,54.6875,-13.3125,0
41550,-20.8125,53.75,-13.75,0
41570,-21.375,51.625,-13,0
41590,-21.0625,48.25,-10.0625,0
41610,-17.4375,46.6875,-6.5625,0
41630,-12.6875,43.625,-5,0
41650,-12.75,40.875,-3.9375,0
41670,-14.0625,40.4375,-2.875,0
41690,-13.9375,38.5,3.0625,0
41710,-9.6875,34.0625,4.8125,0
41730,-9.625,32.375,1.875,0
41750,-10.6875,32.0625,5.5625,0
41770,-10.9375,28.375,13,0
41790,-10.875,23.3125,14.6875,0
41810,-12.625,22.625,17,0
41830,-8.3125,20.25,20.875,0
41850,-7.5,15.625,21.875,0
41870,-10.25,12.375,18.6875,0
41890,-13.125,12.75,19.6875,0
41910,-9.75,11.25,24.5625,0
41930,-6.6875,8.4375,21.6875,0
41940,-8.9375,7.9375,20.25,0
41960,-6.375,4.1875,21.4375,0
42000,-4.5,-2,20.9375,0
42020,-6.1875,-1.9375,18.375,0
42040,-8.375,-4.75,20,0
42060,-12.0625,-8.375,24.5625,0
42080,-10.875,-11.1875,26.5,0
42100,-8,-12.6875,22.1875,0
42120,-5.5625,-15.0625,18.6875,0
42140,-4.0625,-18.6875,22.5625,0
42160,-4.875,-21.875,23.1875,0
42180,-4.375,-23.75,15.25,0
42200,-3.3125,-25.0625,12.25,0
42220,-3.5625,-26.125,16.125,0
42240,-1.6875,-26.6875,16.5,0
42260,1.0625,-27.9375,13.6875,0
42280,1.75,-26.1875,10.25,0
42300,-0.125,-25.1875,7.6875,0
42320,-1,-26.25,6.4375,0
42340,-1.5625,-28.375,6.0625,0
42360,0.125,-27.625,3.5625,0
42380,2.4375,-24.8125,1.5625,0
42400,3.75,-24.8125,1.5,0
42420,1.4375,-27.0625,0.75,0
42440,1.1875,-28.0625,0,0
42460,1.625,-27.75,-0.3125,0
42460,3.875,-27.8125,0.25,0
42480,6.25,-29.5625,-0.5625,0
42500,7.0625,-32.125,-0.375,0
42520,5.375,-34.5625,0.1875,0
42540,4.125,-35.75,0.5,0
42560,4.125,-37.9375,0.25,0
42580,4.875,-39.375,0.3125,0
42600,5.5625,-39.9375,1.4375,0
42620,5.3125,-39.875,0.875,0
42640,5.0625,-39.375,1.375,0
42660,7.25,-39.0625,2.125,0
42680,10.6875,-39.5,1.75,0
42700,9.25,-39.4375,-0.125,0
42720,8.875,-39.3125,0.875,0
42740,8.5625,-39.6875,0.25,0
42760,9.75,-39.125,-1.75,0
42780,9.375,-39.1875,-1.75,0
42800,8.9375,-39.125,-1.75,0
42820,8.9375,-39.9375,-3.0625,0
42840,5.8125,-41.8125,-2.5,0
42860,2.125,-44.0625,-2.625,0
42880,2.625,-45.625,-2.9375,0
42900,2.9375,-46,-5.0625,0
42920,2.8125,-45.25,-8.4375,0
42940,2.0625,-45,-10.5625,0
42960,3.6875,-46,-11.3125,0
42980,3.9375,-46.8125,-11.8125,0
43000,5.5625,-46,-13.9375,0
43020,5.875,-46.0625,-18.75,0
43040,2.5,-47.875,-19.75,0
43060,2,-47.5625,-18.3125,0
43070,6.4375,-46.1875,-20.1875,0
43090,8.375,-45.8125,-21.8125,0
43110,4.375,-48.0625,-21.875,0
43130,2.5625,-46.0625,-22.25,0
43150,5.375,-39.5,-23.4375,0
43170,10.6875,-34.25,-23.4375,0
43190,10.75,-34.625,-23.3125,0
43210,5.9375,-33.75,-26.0625,0
43230,7.25,-26.3125,-26.0625,0
43250,13.5,-20.375,-24.5,0
43270,13.75,-18.5625,-28.6875,0
43290,4.25,-20,-32.3125,0
43310,0.625,-18.4375,-30.6875,0
43330,2.5625,-11.625,-32.75,0
43350,5.875,-3.0625,-31.9375,0
43370,4.8125,1.125,-26.4375,0
43390,1.125,-1.3125,-27.5,0
43410,-4.1875,0.375,-31.8125,0
43430,-5.8125,6.8125,-32.3125,0
43450,-4.125,13.8125,-29.375,0
43470,-5.8125,15.4375,-29.5625,0
43490,-8.3125,15.8125,-30.75,0
43510,-8.375,21.3125,-33.0625,0
43530,-2,31,-32.125,0
43550,-2.75,38.0625,-32.3125,0
43570,-8.25,41.75,-35.375,0
43590,-12.1875,45.3125,-38.6875,0
43610,-10.0625,49.1875,-37.0625,0
43630,-13.8125,51.75,-33.0625,0
43650,-15.5,52.375,-32.4375,0
43670,-17.125,52.6875,-34.0625,0
43690,-19.75,55.25,-33.125,0
43710,-22.25,54.0625,-28.3125,0
43730,-25,49.5,-26.9375,0
43750,-24,46.375,-28.4375,0
43770,-25.75,48.6875,-29.125,0
43790,-28.25,50,-27,0
43810,-27.1875,46.8125,-23.875,0
43830,-28.125,45.6875,-22.5,0
43850,-28.875,48,-23.4375,0
43870,-28.125,51.25,-23.125,0
43890,-28.875,50.75,-24.0625,0
43910,-28.375,50.8125,-24.1875,0
43930,-28.1875,53.0625,-23.8125,0
43950,-24.9375,56.3125,-25.375,0
43970,-27.1875,56.8125,-24.1875,0
43990,-33.125,57.5,-15.75,0
44010,-33.6875,61.125,-0.375,0
44030,-22.3125,60.9375,7.4375,0
44050,-17.1875,59.5625,5.75,0
44070,-19.375,59.1875,7.6875,0
44090,-23.625,58.625,15.125,0
44110,-22.3125,53.8125,20.0625,0
44130,-20.625,46.5625,19,0
44150,-17.6875,40.3125,16.9375,0
44170,-17.4375,33.625,18.1875,0
44190,-20.25,28.5625,23.1875,0
44210,-19.375,24.75,28.0625,0
44230,-16.125,21.6875,29.875,0
44250,-16,17.5,27.1875,0
44270,-17,14.75,27.5,0
44290,-16.4375,11.625,31.25,0
44310,-13.5,7.875,34.875,0
44330,-11.5,7.5,32,0
44350,-11.3125,7.5,32.4375,0
44370,-11.75,3.25,35.5625,0
44390,-12.5,0.375,33.8125,0
44410,-11.625,1,29.625,0
44430,-8.0625,0.75,28.875,0
44450,-8.0625,-2.9375,33,0
44470,-7.1875,-7,34.9375,0
44490,-7.6875,-7.5,32.75,0
44510,-6.9375,-8.3125,29,0
44530,-6.625,-12.6875,30.4375,0
44550,-5.0625,-17.625,30.75,0
44570,-3.125,-20.4375,27.25,0
44590,-1.5625,-21.875,26.1875,0
44610,-1.75,-23.9375,27.25,0
44630,-1.25,-23.9375,24.1875,0
44650,0,-25.1875,21.3125,0
44670,2.5,-27.3125,19.125,0
44690,5.9375,-28.8125,17.6875,0
44710,8.3125,-28.375,15.875,0
44730,8.6875,-27.4375,14.0625,0
44750,7.5,-27.875,10.0625,0
44770,8.375,-29.875,8.9375,0
44790,9.3125,-31.375,9.1875,0
44810,7.3125,-33.6875,7.625,0
44830,6.125,-34.5,8.375,0
44850,7.9375,-34.625,9.0625,0
44870,8.125,-35.5625,6.9375,0
44890,4.875,-38.0625,5.1875,0
44910,3.9375,-39.125,5.5,0
44930,8.8125,-39.5,5.25,0
44950,10.8125,-39.8125,3.1875,0
44970,8.625,-40.1875,0.625,0
44990,8.9375,-39.25,-1.125,0
45010,10.875,-39.0625,-0.4375,0
45030,9.6875,-40.4375,0.5625,0
45050,9.0625,-40.875,-1.3125,0
45070,7.9375,-41.1875,-3.875,0
45090,8.8125,-40.5625,-4.0625,0
45110,9.1875,-40.8125,-3.625,0
45130,7.625,-43.375,-5.0625,0
45150,6.0625,-44.3125,-7.9375,0
45170,6.25,-44.4375,-10.6875,0
45190,7.75,-45.125,-11,0
45210,8.0625,-46.1875,-11.125,0
45230,6.3125,-46,-16.75,0
45250,3.5,-46.375,-20.375,0
45270,0.5625,-46.875,-22.0625,0
45290,1.6875,-47.4375,-26.4375,0
45310,1.75,-48.6875,-30.1875,0
45330,1.625,-47.375,-32.4375,0
45350,4.5625,-42.8125,-34.375,0
45370,8.0625,-39.6875,-33.0625,0
45390,3.5,-42.375,-34.25,0
45410,0.1875,-42.375,-36.6875,0
45430,1.125,-38.6875,-32.875,0
45450,3.875,-35.625,-28.875,0
45470,0.625,-36,-33.6875,0
45490,-4.4375,-33.1875,-35.3125,0
45510,-0.25,-25.9375,-30.5,0
45530,4.6875,-20.1875,-28.6875,0
45550,1.125,-20.25,-33.6875,0
45570,-0.25,-15.6875,-37.9375,0
45590,4.5,-4.9375,-39.4375,0
45610,7.0625,4.0625,-43.0625,0
45630,7.6875,9.875,-49.8125,0
45650,0.6875,14.1875,-51,0
45670,3.0625,21.3125,-46.75,0
45690,6.875,28.8125,-48.0625,0
45710,6.8125,35.375,-50.5,0
45730,-2.0625,38.1875,-48.5,0
45750,-10.125,40.25,-46.375,0
45770,-8.3125,46.1875,-46.875,0
45790,-5.625,51.625,-50.25,0
45810,-9.8125,53.5,-47.5625,0
45830,-14.3125,52.9375,-47.125,0
45850,-20.25,54.8125,-47.5625,0
45870,-16.9375,58.6875,-45.4375,0
45890,-16,59.75,-44.625,0
45910,-18.875,59.4375,-39.1875,0
45930,-22.125,59.3125,-35.3125,0
45950,-19.125,59.4375,-35.5625,0
45970,-19.75,59.8125,-34.5,0
45990,-22.6875,59.375,-28.8125,0
46010,-24.25,55.8125,-22.375,0
46030,-22.375,52.75,-19.3125,0
46050,-21.375,53.5625,-16.6875,0
46070,-19.3125,55.3125,-14.0625,0
46090,-16.3125,54.375,-10.5625,0
46110,-17,50.0625,-4.5,0
46130,-19.8125,46.8125,0.3125,0
46150,-17.75,47.875,6.3125,0
46170,-11.875,50.375,8.875,0
46190,-12.4375,47.8125,11.625,0
46210,-12.75,42.1875,16.25,0
46230,-10.9375,37.625,21,0
46250,-11.25,35.3125,26.4375,0
46270,-11.5,34.75,31,0
46290,-8.5,33.5625,34.1875,0
46310,-8.1875,29.5625,38.375,0
46330,-9.0625,27.8125,41.1875,0
46350,-8.8125,26.4375,43.6875,0
46370,-7.75,24.4375,47.6875,0
46390,-9.75,21.3125,48.5625,0
46410,-10.1875,18,48.4375,0
46430,-8.9375,13.9375,49.0625,0
46450,-7.625,10.1875,49.625,0
46460,-5.9375,6.875,48.5,0
46480,-7.6875,4.1875,48,0
46500,-6.3125,0.625,46.375,0
46520,-7.1875,-2.9375,44.4375,0
46540,-6.3125,-7.8125,42.5625,0
46560,-8.4375,-12.5,39.4375,0
46580,-9.625,-15.25,34.6875,0
46600,-7.25,-17.6875,33.125,0
46620,-5.625,-22.125,32.375,0
46640,-4.5625,-26.4375,29.125,0
46660,-4.6875,-28.375,25.1875,0
46680,-3.0625,-28.8125,22.3125,0
46700,-1.5625,-30.875,21.1875,0
46720,-0.4375,-33.125,20.625,0
46740,-0.875,-33.625,18.8125,0
46760,1.0625,-34.125,18,0
46780,0.125,-36.5,17,0
46800,-1.6875,-38,16.0625,0
46820,-1.5,-39.1875,15.125,0
46840,0.4375,-40.3125,13.0625,0
46860,2.75,-41.9375,9.8125,0
46880,3.5625,-42.9375,6.125,0
46900,1.5625,-44.3125,2.8125,0
46920,1.8125,-46.4375,2.375,0
46940,1.125,-49,3.6875,0
46960,-0.625,-50.4375,0.125,0
46980,-0.625,-49.875,-1.1875,0
47000,0.9375,-50.3125,-0.25,0
47020,1.625,-50.6875,-1.75,0
47040,0.1875,-50.25,-5.6875,0
47060,0.75,-48.375,-5.5625,0
47080,4.25,-45.5625,-6.5,0
47100,8.3125,-43.25,-10.25,0
47120,8.125,-41.8125,-12.3125,0
47140,7.375,-40.125,-13.6875,0
47160,9.8125,-36.8125,-17.0625,0
47180,10.0625,-36.75,-20.25,0
47200,4.75,-38.125,-21.0625,0
47220,4.4375,-36,-19.8125,0
47240,6.125,-33.25,-19.0625,0
47260,5.375,-31.875,-21.75,0
47280,5.5,-29.5,-23.0625,0
47300,8.375,-26.5,-20.9375,0
47320,10.8125,-23.5,-20.4375,0
47340,9.125,-22.125,-25,0
47360,5.75,-22.5,-27.0625,0
47380,6,-22,-26.5625,0
47400,8.5625,-21.25,-26.25,0
47420,8.8125,-21.9375,-26.0625,0
47440,3.125,-23.25,-29.0625,0
47460,0.0625,-23.0625,-30.1875,0
47480,-0.25,-22.5,-28.6875,0
47500,0.5625,-22.25,-28.8125,0
47520,1.6875,-21.375,-30.625,0
47540,4.75,-19.125,-32.875,0
47560,5.5625,-16.5625,-32.25,0
47580,6.0625,-14.375,-31.5625,0
47600,6.3125,-12.5625,-32.625,0
47620,8.9375,-8.8125,-34.6875,0
47640,8.6875,-6.5625,-32.4375,0
47660,4.75,-5,-29.5,0
47680,5.1875,-3.5,-28.5625,0
47700,4.75,-1.9375,-29.1875,0
47720,4.5625,-0.6875,-28.3125,0
47740,3.625,0.0625,-25.3125,0
47760,2.875,0.25,-23.4375,0
47780,0,-0.8125,-23.625,0
47800,0.3125,0.5,-22.625,0
47820,2.1875,2.625,-22.4375,0
47840,2.875,2.75,-21.625,0
47860,2.6875,2.375,-18.875,0
47880,1.4375,1.75,-17.125,0
47900,3.6875,3.0625,-16.8125,2001
47920,2.375,4.1875,-16,0
47940,3.375,5,-12.0625,0
47960,2.25,7.25,-7.625,0
47980,3.3125,8.0625,-6.625,0
48000,2.0625,7.625,-3.8125,0
48020,-1.5,7.1875,1.25,0
48040,0.3125,8.0625,4.375,0
48060,-0.0625,6.6875,5.75,0
48080,-6.6875,3.0625,5.375,0
48100,-16.125,-1.25,4.8125,0
48120,-14.5625,-2.1875,6.1875,0
48140,-11.3125,-1.25,12.5,0
48160,-2.4375,2.0625,20.3125,0
48180,5.25,7.4375,19.5,0
48200,4.9375,11.8125,14.125,0
48220,0.5,14.4375,18.4375,0
48240,-7.375,15.375,26.9375,0
48260,-8.25,18.9375,32.1875,0
48280,-6.1875,25,35.875,0
48300,-7.4375,29.25,43.75,0
48320,-17.1875,30.25,50.75,0
48340,-24.5625,30.375,57.4375,0
48360,-26.375,28.0625,64,0
48380,-22.9375,24.8125,69.8125,0
48400,-23.3125,22.1875,72,0
48420,-23.4375,21.5,73.9375,0
48440,-24.9375,22.875,76.4375,0
48450,-20.125,23.5625,79.5625,0
48470,-8.9375,21.875,82,0
48490,-5.0625,18.75,82.9375,0
48510,-6.4375,15.875,88.5,0
48530,-6.1875,12.0625,93.625,0
48550,-0.8125,10.375,88.6875,0
48570,4.875,7.6875,82.75,0
48590,7.1875,0.75,86.0625,0
48610,6.8125,-5.8125,87.1875,0
48630,1.125,-9.4375,82.625,0
48650,1.5625,-9.5,81,0
48670,3.4375,-11.6875,79.875,0
48690,7.8125,-15.8125,75.375,0
48710,10.375,-18.9375,70,0
48730,13.375,-22.5625,65.4375,0
48750,8.3125,-24.6875,59.5625,0
48770,7.875,-24.125,55.25,0
48790,12.375,-23.9375,49.25,0
48810,18.375,-24.9375,40.875,0
48830,15,-25.375,31.4375,0
48850,14.625,-23.75,26.4375,0
48870,15.625,-22.5,21.5,0
48890,17.5,-18.625,14.375,0
48910,14.1875,-13.875,9.875,0
48930,16.875,-12.25,9.625,0
48950,22.8125,-12.3125,6.125,0
48970,22.125,-9.75,-2,0
48990,14.3125,-7.9375,-2.8125,0
49010,8,-6.75,1.4375,0
49030,8.375,-6.75,-0.3125,0
49050,11.0625,-7.1875,-4.375,0
49070,7,-7.4375,-7.4375,0
49090,4.125,-7.3125,-5.1875,0
49110,2.5,-7.375,-2.25,0
49130,2.25,-7.125,-2.9375,0
49150,0.875,-7.875,-3.5,0
49170,-1.9375,-7.5625,-1,0
49190,0.9375,-5.9375,0.3125,0
49210,2.4375,-4.25,-1.4375,0
49230,-1.25,-5.375,-1.125,0
49250,-2.75,-6.3125,1.8125,0
49270,-2.625,-4.875,3.3125,0
49290,-1.375,-4.125,2.4375,0
49310,-3.9375,-4.125,1.875,0
49330,-2.6875,-3.375,1.375,0
49350,-0.4375,-1.875,-0.25,2000
49360,0.5625,-2.1875,-1.1875,0
49390,1.4375,-4.1875,-0.8125,0
49410,1.625,-1.1875,-1.5,0
49430,1.8125,0.9375,-5.6875,0
49450,1.4375,3.9375,-6.8125,0
49470,0.9375,5.125,-5.5,0
49490,-0.6875,1.375,-3.25,0
49510,-3.375,-2.375,0.6875,0
49530,-3.625,-2.1875,3.125,0
49550,-5.9375,-1.25,2.1875,0
49570,-5.125,-0.5625,5.1875,0
49590,-3.1875,0.4375,5.875,0
49610,-4.4375,-0.5625,1.6875,0
49630,-3.9375,-4.75,4.625,0
49650,-1.375,-5.625,7.9375,0
49670,-1.625,-4.375,3.5625,0
49690,-2.125,-4.625,1.5,0
49710,0,-4.125,4,0
49730,3.375,-2.375,3.1875,0
49750,4,-1.8125,1,0
49770,6.4375,-5.5625,1.75,0
49790,6.375,-6.875,-2.625,0
49810,4.9375,-7.3125,-5.3125,0
49830,4.0625,-8.0625,-5.25,0
49850,2.5625,-8.8125,-4.875,0
49870,2.25,-10.0625,-6.125,0
49890,2.125,-12.8125,-7.125,0
49910,1.8125,-14,-8.3125,0
49930,1.875,-15.1875,-11.9375,0
49940,0.625,-17.4375,-15.625,0
49960,-1.0625,-19.4375,-16.5625,0
49980,-1.125,-19.875,-16.625,0
50000,3.375,-19.25,-15,0
50020,5.625,-21.0625,-15.875,0
50040,1.5625,-22.0625,-18.375,0
50060,-1.125,-20.8125,-18.1875,0
50080,0.375,-19.9375,-18.0625,0
50100,4.875,-18.0625,-17.9375,0
50120,6.375,-17.4375,-17.6875,0
50140,5,-16.125,-20,0
50160,4.125,-13.5625,-21.5,0
50180,8.5,-10.375,-23.0625,0
50200,9.875,-7.1875,-22.25,0
50220,5,-5.6875,-21.4375,0
50240,2.5625,-3.5,-22.5625,0
50260,-0.1875,0.875,-23.125,0
50280,-0.375,4.1875,-21.875,0
50300,-0.125,6.25,-19.625,0
50320,-1.5,5,-21.75,0
50340,-4.1875,5.375,-24.6875,0
50360,-2.0625,11.875,-21.8125,0
50380,-3.5625,17.5,-17.75,0
50400,-2.0625,20.6875,-16.3125,0
50420,-1.8125,23.9375,-18.75,0
50440,-2.0625,28.9375,-19.6875,0
50460,-4.75,32.4375,-19.6875,0
50480,-4.75,35.75,-21.5,0
50500,-4.5,41.5625,-23.6875,0
50520,-6.1875,45.5625,-24.9375,0
50540,-9.3125,47.5625,-26.3125,0
50560,-12.5625,50.25,-27.3125,0
50580,-14.375,50.3125,-27.6875,0
50600,-16,52.375,-28.25,0
50620,-19.625,56.1875,-27.0625,0
50640,-22.6875,58.625,-25.125,0
50650,-23.6875,58.9375,-24.8125,0
50670,-27.25,59.375,-25.75,0
50690,-31.125,61.5625,-26.6875,0
50710,-30.4375,65.125,-25.875,0
50730,-29.9375,67.8125,-24.5625,0
50750,-29.625,70.125,-24.25,0
50770,-34.5,70.9375,-22.9375,0
50790,-34.3125,70.75,-20.1875,0
50810,-31.3125,73.0625,-17.8125,0
50830,-27.625,74.125,-16.875,0
50850,-30,74.4375,-12.5625,0
50870,-29.0625,73.5,-8.375,0
50890,-25.75,72.1875,-6.25,0
50910,-19.75,69.375,-7.3125,0
50920,-15.3125,63.875,3.125,0
50940,-11.9375,62,7.6875,0
50960,-7.0625,58.375,3.0625,0
50980,-11.625,55.5,4.0625,0
51000,-11.125,52.25,12.3125,0
51020,-6.1875,45.9375,13.125,0
51040,-6.1875,42.125,9.9375,0
51060,-9.125,37.1875,11.4375,0
51080,-10.6875,31.625,14.4375,0
51100,-8.1875,27.5,10.375,0
51120,-8.6875,25.3125,7.375,0
51140,-9.625,22,13.4375,0
51160,-7.375,17.3125,17.1875,0
51180,-5.375,13.75,10.3125,0
51200,-8.9375,12.4375,6.5625,0
51230,-6.5,-1.1875,11.8125,0
51250,-8,-0.75,11.6875,0
51260,-7.75,-3,13.0625,0
51280,-8.1875,-7.3125,14,0
51300,-6.5625,-9.25,15.1875,0
51320,-4.9375,-11.875,14.3125,0
51340,-5.25,-14.9375,13,0
51360,-5.75,-18.5,15.625,0
51380,-4.375,-21.875,16.6875,0
51400,-1.9375,-24.0625,13,0
51420,-2.5,-26.25,12.4375,0
51440,-4.625,-28.875,12.9375,0
51460,-4.0625,-31.125,12.25,0
51480,-0.75,-31.4375,10.5625,0
51500,1,-31.625,9.5625,0
51520,2.375,-33.375,9.375,0
51540,1.625,-34.0625,8.375,0
51560,2.5,-34.125,6.6875,0
51580,3.25,-34.5,5.75,0
51600,2.875,-36.125,4.875,0
51620,3.1875,-37.6875,4.75,0
51640,3.0625,-38.6875,4.625,0
51660,4.25,-39.75,3.5,0
51680,4.8125,-40.375,1.8125,0
51700,4,-41.375,2.1875,0
51710,3.125,-42.6875,2.1875,0
51730,4.8125,-43.8125,2.9375,0
51750,4.5,-43.8125,3.875,0
51770,5.1875,-44.0625,3.6875,0
51790,5.5625,-44.8125,2.9375,0
51810,5.6875,-44.875,2.6875,0
51830,5.5,-44.625,3.625,0
51850,7.4375,-46.125,5.5625,0
51870,10,-46.3125,3.625,0
51890,10.625,-44,0.625,0
51910,11.125,-44.25,1.9375,0
51930,11.1875,-45.8125,3.1875,0
51950,12.5625,-45.8125,-0.4375,0
51970,14.0625,-44.3125,-2.1875,0
51990,14.375,-43.125,-1.8125,0
52010,12.625,-43.5625,-2.125,0
52030,9.8125,-44.1875,-2.1875,0
52050,9.625,-42.6875,-3.5,0
52070,12,-40.4375,-4.75,0
52090,12.125,-39.625,-4.375,0
52110,10.625,-40,-4.6875,0
52130,10.6875,-39.375,-6,0
52150,13,-38.6875,-7,0
52170,10.4375,-39.1875,-8.75,0
52190,9.375,-40.25,-8.9375,0
52210,7.75,-39.875,-9.375,0
52230,8.4375,-37.9375,-9.4375,0
52250,10.875,-36.75,-10.3125,0
52270,9.4375,-39.625,-13.375,0
52290,5.5,-40.6875,-15.375,0
52310,3.1875,-38.375,-14.875,0
52330,6.4375,-34.8125,-15.375,0
52350,10.4375,-36.25,-17.8125,0
52370,4.8125,-39.75,-21.8125,0
52390,-3,-39.3125,-21.9375,0
52410,-0.1875,-36,-20.25,0
52430,4.4375,-33.75,-20.375,0
52450,5.625,-33.9375,-23.6875,0
52470,-1.25,-32.375,-25.5625,0
52490,-0.625,-26.6875,-24.5625,0
52510,3.125,-21.6875,-24.9375,0
52530,1.75,-21.0625,-24.9375,0
52550,-1.4375,-20.625,-22.75,0
52570,-2.25,-14.375,-20.9375,0
52590,1,-9.6875,-20.625,0
52610,0.125,-11.375,-23.5,0
52630,-8.5625,-10.5625,-23.4375,0
52650,-11.125,-6.9375,-22.375,0
52670,-7.625,0.4375,-20.875,0
52690,-4.25,4.5625,-22.75,0
52710,-7.0625,3.875,-26,0
52730,-13.5,6.3125,-26.8125,0
52750,-12.6875,14,-25.625,0
52770,-6.125,21.125,-24.9375,0
52790,-8.3125,21.3125,-24.8125,0
52810,-13.75,23.3125,-24.375,0
52830,-13.5,28.5,-24.8125,0
52850,-10.8125,31.6875,-24.5,0
52870,-12.5625,30.3125,-23.9375,0
52890,-20.4375,28.0625,-22,0
52910,-19.8125,29.9375,-19.625,0
52930,-14.875,34.625,-18.5,0
52950,-17.4375,35.875,-18.25,0
52970,-21.5625,34.6875,-18.3125,0
52990,-25.3125,35.1875,-17.25,0
53010,-22.8125,38.875,-18.4375,0
53030,-22.25,41.3125,-18.5,0
53050,-26.25,40.9375,-17.1875,0
53070,-27.0625,42,-14.8125,0
53090,-28,47.75,-15.375,0
53110,-26.0625,51.3125,-19.875,0
53130,-29,51.9375,-21.875,0
53150,-30.625,51.75,-19.0625,0
53170,-27.75,51.75,-17,0
53190,-24.75,53.0625,-18.9375,0
53210,-24.5,54.0625,-22.375,0
53230,-29.5,54.875,-19,0
53250,-25.8125,58.125,-12.375,0
53270,-19.875,59.3125,-12.4375,0
53290,-17.5625,58.25,-14.4375,0
53310,-18.375,55.1875,-12.8125,0
53330,-17.75,54.125,-7.25,0
53350,-15.875,54.1875,-6.0625,0
53370,-15.3125,53.875,-2.625,0
53390,-10.8125,54.0625,-0.3125,0
53410,-7,51.125,1.25,0
53430,-6.5625,48.1875,2.1875,0
53450,-7.8125,48,2.5625,0
53470,-8.625,49.375,2.5,0
53490,-7.9375,46.125,4.375,0
53510,-6.625,42.25,7.1875,0
53530,-6.5625,40.6875,8.5625,0
53550,-4.9375,41.5625,11.1875,0
53570,-5.0625,37.6875,12.3125,0
53590,-9,33.6875,12.375,0
53610,-10.75,33.4375,15.5,0
53630,-7.75,31.625,18.9375,0
53650,-6.3125,27.5625,20,0
53670,-6.8125,23.3125,20.5625,0
53680,-7.375,19.875,22.3125,0
53700,-6.75,16.4375,23.125,0
53720,-6.125,12.375,22.9375,0
53740,-6.625,7.625,25.6875,0
53760,-6.5625,5.125,26.625,0
53780,-3.75,3.3125,25.1875,0
53800,-3.3125,-1,23,0
53820,-7.5625,-3.3125,25.375,0
53840,-7.4375,-5.3125,27.9375,0
53860,-7,-7.6875,26,0
53880,-6.6875,-12.1875,23.5,0
53900,-5.25,-15.625,24.9375,0
53920,-6.75,-15.75,27.125,0
53940,-5.4375,-15.5,25.8125,0
53960,-4.75,-18.1875,23.25,0
53980,-6.1875,-20.375,23.875,0
54000,-7.4375,-21.25,23.375,0
54020,-3.4375,-21.0625,23.1875,0
54040,-1.25,-22.75,24.875,0
54060,-1.6875,-23.3125,22.5,0
54080,0.1875,-23.375,17.875,0
54100,1.125,-24.5,15.1875,0
54120,2.75,-26.5625,16.3125,0
54140,2.625,-27.3125,15.75,0
54160,1.625,-27.6875,12.3125,0
54180,2.375,-29.125,11.6875,0
54200,1.25,-30.8125,13.5625,0
54220,2.8125,-32.0625,12.75,0
54240,5.625,-33.6875,11.9375,0
54260,5.5625,-34.3125,8.75,0
54280,5.9375,-34.1875,7.875,0
54300,6.875,-36,9.0625,0
54320,8.875,-38.5,8.25,0
54340,7.6875,-39.6875,4.9375,0
54360,5.8125,-40.8125,5.3125,0
54380,8.4375,-40.3125,6.6875,0
54400,11.875,-40.625,5.1875,0
54420,8.1875,-42.625,3.5625,0
54440,7.875,-42.625,3.375,0
54460,9,-42.1875,3.375,0
54480,10,-42.1875,2.75,0
54500,9.5,-42.5625,1.1875,0
54520,8.3125,-43.375,1,0
54540,9.375,-42.375,-0.375,0
54560,11.6875,-41.25,-1.875,0
54580,10.8125,-40.1875,-5.125,0
54600,12.8125,-40.125,-7.0625,0
54620,13.3125,-41.625,-9.4375,0
54640,12.4375,-42.1875,-11.9375,0
54660,11.5625,-40.9375,-13.125,0
54680,15.125,-40.6875,-13.625,0
54700,13.375,-43.3125,-17.1875,0
54720,9.125,-45.3125,-19.5625,0
54740,7.4375,-43.75,-18.1875,0
54760,11.875,-41.1875,-16.5,0
54780,13.3125,-41.875,-17.75,0
54800,6.3125,-43.125,-22.5,0
54820,3,-39.8125,-25.3125,0
54840,8.1875,-35.4375,-23.75,0
54860,11.375,-34.875,-24.6875,0
54880,7.875,-34.625,-29.5,0
54900,6.6875,-32.0625,-30.375,0
54920,8.0625,-29.6875,-30.375,0
54940,8.375,-28.875,-32.0625,0
54960,2.6875,-27.8125,-32.6875,0
54980,2.3125,-24.375,-32.1875,0
55000,5.875,-21.25,-32.8125,0
55020,6.4375,-17.9375,-35.9375,0
55040,-0.4375,-15.25,-36.875,0
55060,-1.4375,-10.75,-31.875,0
55080,4.375,-8,-32.3125,0
55100,4.375,-6.9375,-38.1875,0
55120,-3.125,-5.0625,-39.25,0
55140,-4.25,-2.5625,-35.125,0
55160,-0.75,1.625,-36.0625,0
55180,-1.9375,2.6875,-41.0625,0
55200,-6.5,4.625,-41.375,0
55220,-7.875,8.4375,-38.4375,0
55240,-7,10.25,-39.3125,0
55260,-5.75,12.6875,-41.6875,0
55280,-7.4375,16.5,-40.5,0
55300,-8.125,20.9375,-38.5625,0
55320,-11.8125,23.4375,-39.25,0
55340,-12.5625,27.0625,-36.9375,0
55360,-11.9375,30.4375,-37.3125,0
55380,-13.5,31.9375,-38.3125,0
55400,-16.4375,36,-35.75,0
55420,-16.375,41.3125,-35.125,0
55440,-15.8125,43.125,-34.0625,0
55460,-17.5625,43.25,-31.75,0
55480,-21.4375,44.75,-30.125,0
55500,-23.6875,48.125,-26.3125,0
55520,-20.3125,51.25,-25.4375,0
55540,-20.4375,50.6875,-24.1875,0
55560,-24.75,48.5625,-20.6875,0
55580,-25.6875,48.0625,-19,0
55600,-23.375,48.5,-17.75,0
55620,-21.75,48,-17.3125,0
55640,-22.25,47.3125,-14.9375,0
55660,-24.375,45.875,-11.1875,0
55680,-22.375,46.3125,-6.5625,0
55700,-18.75,48.0625,-3.9375,0
55720,-18.5,48.25,-3.5,0
55740,-17.375,47,-1.8125,0
55760,-17.625,44.875,0.875,0
55780,-14.875,48.1875,3.4375,0
55800,-10.5,50.25,5.5,0
55820,-8.1875,48.0625,9,0
55840,-8.0625,45.1875,10.875,0
55860,-7.8125,46.1875,10.9375,0
55880,-7.5625,46.625,14.1875,0
55900,-6.1875,44.375,18,0
55920,-5.875,43.5,21.125,0
55940,-5.8125,42.5,23.3125,0
55960,-7.375,39.625,24.1875,0
55980,-5.9375,36.6875,24.5,0
56000,-6.1875,35.25,27.25,0
56020,-8.5625,33.8125,30.4375,0
56040,-10.625,29.5,31.0625,0
56060,-9.1875,25.3125,30.0625,0
56080,-9.3125,21.8125,31.8125,0
56100,-10.5625,17.9375,33.9375,0
56120,-9.5,14.75,34.375,0
56140,-6.875,10.6875,33.125,0
56160,-7.125,6.125,32.125,0
56180,-7.4375,1.6875,32.0625,0
56200,-8.1875,-1.8125,30.375,0
56220,-7.4375,-4.25,30.1875,0
56240,-8.25,-6.125,31.3125,0
56260,-8.5,-9.6875,31.0625,0
56280,-11.1875,-12.5625,28.8125,0
56300,-11.5,-15.375,28.3125,0
56320,-10.125,-17.75,29.1875,0
56340,-8.9375,-18.8125,28.3125,0
56360,-9.375,-20.5625,26.0625,0
56380,-11.5625,-23,25.3125,0
56400,-13.25,-25.4375,25.75,0
56420,-11.375,-27.6875,23.75,0
56440,-9.75,-28.5,22.4375,0
56460,-9.5,-30.1875,22.125,0
56480,-4.75,-29.8125,20.4375,0
56500,1,-29.625,18.1875,0
56520,4.75,-31.0625,14.9375,0
56540,8.375,-33.875,13.625,0
56560,10.75,-35.75,13,0
56580,12.0625,-37.125,10.375,0
56600,12.0625,-39.1875,9.75,0
56620,10,-41.375,11,0
56640,10.375,-41.6875,11.9375,0
56660,8.75,-41.875,11.5,0
56680,7,-41.8125,10.3125,0
56700,7.5625,-40.3125,8.3125,0
56720,9.0625,-39.9375,5.9375,0
56740,9.6875,-40.625,4.6875,0
56760,9.1875,-41.1875,3.8125,0
56780,9.625,-40,-1.1875,0
56800,9.6875,-40.3125,-5.625,0
56820,8.375,-41.375,-7.1875,0
56840,10,-41.8125,-9.8125,0
56860,11.5,-40.9375,-12.6875,0
56880,12.1875,-41.5625,-12.25,0
56900,8.875,-42.875,-12.125,0
56920,8,-43.3125,-12.5625,0
56940,9.1875,-40.625,-11.4375,0
56960,10.4375,-38.4375,-10.625,0
56980,7.3125,-40.4375,-12,0
57000,3.5625,-42.25,-11.4375,0
57020,6.6875,-39.1875,-11.625,0
57040,10.375,-35.875,-13.5,0
57060,9.9375,-37.375,-15.625,0
57070,5.625,-38,-19.0625,0
57090,4.8125,-36.1875,-21.3125,0
57110,8.0625,-35.5,-22.5,0
57130,9.5625,-33.8125,-24.75,0
57150,8.9375,-33.0625,-27.6875,0
57170,9.3125,-32.3125,-27.625,0
57190,10.375,-31.5,-28.5625,0
57210,9.375,-29.5625,-33.3125,0
57230,10.75,-27.375,-35.25,0
57250,10.125,-27.25,-32.875,0
57270,9.9375,-25.75,-33.75,0
57290,8.5625,-24.8125,-34,0
57310,8.6875,-23,-32.625,0
57330,5.375,-19.5625,-31.9375,0
57350,3.3125,-17.1875,-29.6875,0
57370,1.125,-16.4375,-26.875,0
57390,0.4375,-15.4375,-23.3125,0
57410,-0.9375,-14.3125,-19.125,0
57430,-1.4375,-10.9375,-20.75,0
57450,-4.75,-6.5,-24.125,0
57470,-6.9375,-6.625,-22.3125,0
57490,-7.3125,-7,-17.875,0
57510,-3.625,-3.8125,-16.375,0
57530,-3.9375,-0.625,-15.5625,0
57550,-4.5,2.1875,-11.75,0
57570,-4.25,4.9375,-10,0
57590,-4.125,6,-9.9375,0
57610,-6.6875,7.1875,-9.75,0
57630,-5.125,8.4375,-7.1875,0
57650,-4.5,10.75,-6.75,0
57670,-4.3125,10.125,-5.25,0
57690,-4.5,9.1875,-1.3125,0
57710,-3.125,8.75,-2.375,0
57730,-4.9375,8.625,-5.5,2001
57750,-5.5625,8.125,-5.75,0
57770,-2.75,7.6875,-3.5625,0
57790,-2.25,7.4375,-3.625,0
57810,-1.5,8.4375,-5,0
57830,1.125,9.375,-7.625,0
57850,1.1875,6.8125,-8.3125,0
57870,0.25,3.4375,-5,0
57890,0.375,3.375,-4,0
57910,2.625,6,-3.625,0
57930,-0.4375,5.3125,-2.1875,0
57950,-3.125,1.9375,2.625,0
57970,-6.1875,-4.375,6.125,0
57990,-6.25,-5.75,8.9375,0
58010,-3.1875,-4.3125,9.625,0
58030,-8.1875,-5.75,10.875,0
58050,-10.625,-7.8125,12.25,0
58070,-4.125,-6.5625,11.625,0
58090,3.5,-0.3125,11.0625,0
58110,4.5625,7.125,10.875,0
58130,0.4375,10.875,15.625,0
58150,-3.125,12.375,26.8125,0
58170,-6,14.6875,40.375,0
58190,-8.8125,22,51.625,0
58210,-5.5625,28.125,62,0
58230,-2.3125,31.5,75.875,0
58250,-11.875,32.1875,89.875,0
58270,-16.9375,31.4375,102.875,0
58290,-22,27.875,114.25,0
58310,-18.125,24.75,124.312,0
58330,-6.875,24.5,129.062,0
58350,-2.0625,22.9375,130.688,0
58370,-9.3125,17.4375,133.25,0
58390,-9.875,13.75,132.5,0
58410,3.4375,11.5625,122.625,0
58430,13.75,8.25,108.875,0
58450,15.6875,4.75,103.625,0
58470,24.4375,0.625,104.812,0
58490,24.5625,-4.375,96.3125,0
58510,21.375,-9.625,74.375,0
58530,19.6875,-15.125,63.6875,0
58550,16.625,-20,63.6875,0
58570,12.9375,-23.1875,58.375,0
58590,8,-27.0625,49.0625,0
58610,7.875,-26.6875,38.75,0
58630,6.875,-22.8125,28.875,0
58650,4.9375,-20.8125,22.6875,0
58670,4.125,-21.0625,17.5625,0
58690,7.4375,-18.625,9.375,0
58710,5.25,-16.9375,2.5,0
58730,3.6875,-14.5625,-3.25,0
58750,1.625,-11.4375,-6.5625,0
58770,-0.9375,-9.625,-6.4375,0
58790,-1.5,-7.875,-3.875,0
58810,0.4375,-5.5625,0.4375,0
58830,3.0625,-3.625,2.75,0
58850,0.6875,-2.4375,1.75,0
58870,-1.875,-1.3125,5.9375,0
58890,0.6875,1.625,10.8125,0
58910,3,3.75,11.5,0
58930,7.4375,3.4375,11.375,0
58940,4.9375,1.9375,11.5625,0
58970,3.125,1.875,12.625,0
58990,0.5,0.3125,11.5625,0
59010,-0.8125,-2.5,10.6875,0
59030,-0.375,-4,10.3125,0
59050,0.25,-2.9375,8.6875,0
59070,2.625,-3.1875,7.875,0
59080,3.875,-3.3125,4.5625,0
59100,2.625,-2.625,-1,0
59120,4.875,-1.125,-5.875,0
59140,6.0625,-0.875,-9.0625,0
59160,5.5,-0.9375,-9.4375,2000
59180,5.5,-4.3125,-8.1875,0
59200,2.125,-5.4375,-7.75,0
59220,3,-1.625,-5.75,0
59250,-3.1875,-0.5625,-3.9375,0
59270,-5,0.4375,-3.6875,0
59290,-4.5625,-1.5625,-0.9375,0
59310,-4.3125,-3.8125,5.375,0
59330,-4.375,-1.3125,4.5625,0
59350,-4.3125,1,3.25,0
59380,-2.5,-2.4375,3,0
59390,2.125,-3.25,1.4375,0
59400,1.8125,-1.1875,-2.8125,0
59420,2,-1.5625,-1.5625,0
59440,0.5,-3.625,1.375,0
59460,0.625,-4.4375,0.9375,0
59480,2.4375,-6.375,1.1875,0
59500,4.5,-6.625,0.125,0
59520,3.8125,-9.625,-4.1875,0
59540,3.25,-12.375,-9.6875,0
59560,3.6875,-14,-12.25,0
59580,5.0625,-15.5,-14,0
59600,6.625,-17.625,-18.5,0
59620,6.9375,-19.6875,-21.375,0
59640,4.8125,-19.5625,-26,0
59660,6.5,-17.375,-29.625,0
59680,11.375,-16.4375,-30.8125,0
59700,16.4375,-19.1875,-31.125,0
59720,17.125,-20.4375,-28.3125,0
59730,12.375,-20.75,-23.4375,0
59750,9.4375,-20.0625,-21.3125,0
59770,7.4375,-19,-20.0625,0
59790,4.4375,-18.375,-18.9375,0
59810,4.6875,-17.375,-18.75,0
59830,5,-16.9375,-20.875,0
59850,8.5,-15.625,-24.625,0
59870,7.875,-12.125,-29.4375,0
59890,8.125,-7.8125,-31.5,0
59910,10.5625,-3.75,-33.4375,0
59930,11.3125,1.6875,-34.125,0
59950,12.125,8.625,-32.875,0
59970,12.4375,11.25,-31.0625,0
59990,12.6875,13.4375,-31.4375,0
60010,7.6875,17.0625,-30.625,0
60030,1.4375,16.25,-28.3125,0
60050,-0.8125,16.25,-28.0625,0
60070,-5.3125,20.5,-29.6875,0
60090,-9.3125,23.3125,-29.875,0
60120,-9.4375,24.8125,-27.3125,0
60140,-13.25,27.5,-31.5625,0
60150,-15.9375,28.5,-32.1875,0
60180,-16.1875,35.375,-32.125,0
60200,-17.9375,38.8125,-34.0625,0
60220,-21.375,39,-31.1875,0
60240,-18.5,41.125,-27.4375,0
60260,-19.5625,42.25,-23.875,0
60280,-18.5,44.75,-23.25,0
60300,-23.3125,47.3125,-24.4375,0
60320,-26.8125,50.875,-23.6875,0
60340,-27.25,52.6875,-21.25,0
60360,-25.0625,55.4375,-19.9375,0
60380,-23.6875,59.5,-20.875,0
60400,-26.5625,61.125,-21.3125,0
60420,-28.1875,61.5,-20.0625,0
60440,-25.125,63.75,-20.5625,0
60460,-21.125,64.0625,-20.5,0
60480,-20.375,62.375,-20,0
60500,-20.125,61.6875,-18.875,0
60520,-20.3125,61.125,-18.6875,0
60530,-17.3125,55.375,-16.6875,0
60550,-15.9375,55.4375,-16.3125,0
60560,-11.3125,53.75,-15.375,0
60580,-10.5625,50.5625,-8.6875,0
60600,-10.375,47.8125,-2.6875,0
60620,-10.9375,44.8125,-1.75,0
60640,-11.5625,43,-0.625,0
60660,-12,41.125,3.9375,0
60680,-12.3125,38.25,8.9375,0
60700,-9.4375,36.625,10.25,0
60720,-8.0625,35.4375,8.9375,0
60740,-9.375,34,11.5625,0
60760,-8.625,32,14.8125,0
60780,-7,29.4375,13.8125,0
60800,-6.5625,26.0625,13.75,0
60820,-7.25,22.9375,15.5625,0
60840,-6.8125,21.1875,15.8125,0
60860,-6.9375,16.9375,14.125,0
60880,-6,12.625,13.25,0
60900,-8.3125,9.25,11.75,0
60920,-8.3125,5.375,14.1875,0
60940,-6,1.5,15.375,0
60960,-4.875,-1,13.875,0
60980,-7.125,-11.25,20.5625,0
61000,-9,-14.25,20.5,0
61010,-8.875,-16.1875,20.25,0
61030,-5.8125,-16.9375,22.375,0
61050,-4.4375,-18.25,20.5,0
61070,-4.8125,-20.4375,18.8125,0
61090,-5.8125,-21.9375,19.8125,0
61110,-3.3125,-21.5625,17.5,0
61130,1.0625,-20.375,12.3125,0
61150,1.5,-20.375,11.0625,0
61170,0.75,-20.75,11.5,0
61190,1.625,-21.1875,9.5,0
61210,2.4375,-21.5625,8,0
61230,2,-20.9375,6.9375,0
61250,1.5625,-22.625,6.1875,0
61270,1.0625,-24.875,7.375,0
61290,0.25,-25.1875,8.6875,0
61310,0.375,-25.125,9.3125,0
61330,0.3125,-26.375,9.1875,0
61350,1.0625,-28.1875,8.6875,0
61370,2.25,-29.4375,9.3125,0
61390,2.5,-29,9.4375,0
61410,2.9375,-29.5625,10.375,0
61430,3.75,-31.75,12.0625,0
61450,3.75,-33.5,12.3125,0
61470,3,-33.8125,10.8125,0
61490,3.375,-33.5625,11.5,0
61510,5.375,-33.625,13.375,0
61530,5.875,-34.625,14,0
61550,7.5,-35.4375,12.75,0
61570,8.5,-35.25,10.75,0
61590,8.9375,-35.4375,9,0
61610,6.875,-36.4375,9.0625,0
61630,7.0625,-35.9375,8.8125,0
61650,9.625,-35.375,7.375,0
61670,10.25,-35.8125,6.125,0
61690,6.6875,-34.8125,3.8125,0
61710,5.4375,-34.0625,3.375,0
61730,5.4375,-34.4375,2.0625,0
61750,4.75,-33.875,2.3125,0
61770,5.6875,-31.875,2.9375,0
61790,4.25,-31,1,0
61810,4.1875,-32.875,-0.5,0
61830,3.5,-34.125,0.3125,0
61850,4.8125,-33.875,-0.4375,0
61870,5.25,-35.3125,-2.4375,0
61890,4,-37.25,-2,0
61910,3.125,-38.625,-3.0625,0
61930,3.625,-40.1875,-4.3125,0
61950,6.375,-40.375,-3.375,0
61970,8.75,-41.6875,-4.875,0
61990,7.6875,-44.25,-7.125,0
62010,9.6875,-45.1875,-8.75,0
62030,9.3125,-43.75,-10.25,0
62050,11.3125,-43.1875,-8.6875,0
62070,12.3125,-44.6875,-8.5625,0
62090,10.125,-44.9375,-12.375,0
62110,8.125,-42.875,-13.1875,0
62130,8.5625,-40.6875,-10.6875,0
62150,11.125,-40.625,-8.8125,0
62170,9.4375,-40.1875,-11.4375,0
62190,6.0625,-39.375,-14.375,0
62210,5.375,-35.8125,-13.25,0
62230,6.375,-33.0625,-10.5,0
62240,5.1875,-34.125,-12.125,0
62260,4.375,-35.125,-13.4375,0
62280,0.75,-31.5,-13.8125,0
62300,2,-29.25,-14.3125,0
62320,2.0625,-30.375,-15.375,0
62340,1.9375,-29.875,-17.0625,0
62360,1.625,-26.875,-17.1875,0
62380,3.375,-25.375,-16.3125,0
62400,3.8125,-24.5,-19.1875,0
62420,2.8125,-23,-21.875,0
62440,1.1875,-18.75,-21.6875,0
62460,1.8125,-15.1875,-21.625,0
62480,3.125,-12.6875,-24,0
62500,2.8125,-10.4375,-25.8125,0
62520,1.3125,-5.4375,-25.125,0
62540,1.125,-0.9375,-23.5,0
62560,-1.125,0.4375,-26.0625,0
62580,-3.0625,3.5625,-29.5,0
62600,-7.625,8.375,-28.5,0
62620,-7.25,11.1875,-26.0625,0
62640,-8.75,13.75,-28.125,0
62660,-11.75,15.875,-30.625,0
62680,-13.375,18.5,-31.6875,0
62700,-17.625,20.5625,-32,0
62720,-18.6875,23.4375,-29.25,0
62740,-19.125,23.9375,-28.875,0
62760,-18.1875,26.125,-30.5,0
62780,-20.25,29.125,-32.0625,0
62800,-23.125,30.25,-30.4375,0
62820,-23.3125,30.5625,-29.5625,0
62840,-23.625,31.125,-31.625,0
62860,-22.25,31.9375,-32.4375,0
62880,-22.75,32.8125,-31.625,0
62900,-23.125,32.4375,-29.375,0
62920,-21.75,34.5,-29.5,0
62940,-22.4375,36.25,-29.9375,0
62960,-20.625,35.875,-29.0625,0
62980,-20.1875,35.125,-27.75,0
63000,-20.0625,34.4375,-27.5,0
63020,-20,36.75,-28.5,0
63040,-19.4375,40.9375,-29.75,0
63060,-21.8125,38,-29.0625,0
63080,-18.5625,34.375,-27.5625,0
63100,-18,33.9375,-27.8125,0
63120,-14.3125,35.375,-25.1875,0
63140,-11.125,37.9375,-22.5,0
63160,-10.75,38.6875,-21.3125,0
63180,-10.4375,38.3125,-21.5625,0
63200,-10.4375,40.3125,-23.625,0
63220,-9.75,41.9375,-24.125,0
63240,-8.8125,42.5625,-21.5,0
63260,-6.8125,44.5625,-20.8125,0
63280,-7.0625,47.1875,-21.5,0
63300,-10.9375,52.625,-17.3125,0
63320,-12.6875,53.75,-11.25,0
63340,-12,54,-5.75,0
63360,-9.9375,54.5,-3.9375,0
63380,-9.8125,55.6875,-0.125,0
63400,-11,56.375,5.25,0
63420,-10.5,55.25,6.5,0
63440,-11.8125,50.1875,7.6875,0
63460,-12,48.5,12.9375,0
63480,-7.3125,46.8125,15.625,0
63500,-4.3125,44.75,14.875,0
63520,-3.5,44.875,19.5625,0
63540,-1.5,43.6875,25.9375,0
63560,3.875,43.375,29.5,0
63580,4.9375,40.6875,28.1875,0
63600,2.125,36.3125,26,0
63620,-3.375,36.0625,28.5625,0
63640,-4.125,34.75,31.1875,0
63660,1,30.375,31,0
63680,0.375,24.25,26.1875,0
63700,-5.5,21.25,24.9375,0
63720,-6.75,18.125,25,0
63740,-5.8125,12.875,24.25,0
63760,-2.8125,6.1875,24.75,0
63780,1,0.5625,26.5,0
63800,4.9375,-0.0625,26.75,0
63820,6.0625,-4.125,24.6875,0
63840,4.5625,-11.375,22.5,0
63860,-0.0625,-15.9375,21.375,0
63880,1.375,-20.6875,21,0
63900,4.4375,-22.5625,22.5625,0
63920,6.0625,-23.375,21,0
63940,4.5625,-26,19.75,0
63960,5.5,-29.4375,20.3125,0
63980,8.375,-29.4375,20.6875,0
64000,6.1875,-28.875,19.9375,0
64020,5.4375,-31.1875,22.5,0
64040,5.75,-33.0625,24.9375,0
64060,3.875,-34.3125,24.6875,0
64080,1.0625,-34.3125,24.125,0
64100,1.8125,-33.75,26,0
64120,1.25,-33.9375,26.0625,0
64140,0.25,-35.75,25.25,0
64160,-0.375,-37.75,25.4375,0
64180,2.3125,-38.8125,22.6875,0
64200,3.8125,-41.125,21.4375,0
64210,2.875,-42.875,21.625,0
64230,3.125,-44.375,18.8125,0
64250,6.0625,-46.125,15.375,0
64270,7.5625,-47.125,15.875,0
64290,6.6875,-47.375,15.3125,0
64310,8.9375,-46.5,11.625,0
64330,11.875,-46.625,9.375,0
64350,10.0625,-48.125,7.3125,0
64370,8,-49.3125,6.25,0
64390,11.8125,-50.25,3.8125,0
64410,15.8125,-51.75,-0.875,0
64430,13.5,-52.75,-5.625,0
64450,11.0625,-50.625,-6.875,0
64470,16.9375,-47.3125,-3.9375,0
64490,23,-46.1875,-5.625,0
64510,19.0625,-46.5,-10.875,0
64530,14.1875,-44.5,-11.75,0
64550,14.875,-40.25,-12.8125,0
64570,20.375,-38.625,-15.125,0
64590,18.8125,-40.375,-15.9375,0
64610,16.4375,-37.75,-15.8125,0
64630,15.25,-33.5,-16.9375,0
64650,16.0625,-33.25,-16.3125,0
64670,11.8125,-32.875,-17.375,0
64690,7.625,-32.0625,-18.25,0
64710,7.25,-30.6875,-18.25,0
64730,8.1875,-27.625,-19.875,0
64750,6.1875,-26.0625,-23.8125,0
64770,2.625,-24.6875,-25.4375,0
64790,1.6875,-21.4375,-25.4375,0
64810,7.125,-19.0625,-25.8125,0
64830,8.4375,-19.125,-28.6875,0
64850,2.25,-18,-29.3125,0
64870,0.5625,-13.8125,-27.0625,0
64890,2.8125,-11.75,-27.0625,0
64910,3.5,-12.375,-28.0625,0
64930,-1.6875,-11.5,-28.5,0
64950,-1.375,-9.5625,-28.1875,0
64970,1.1875,-5.25,-27.875,0
64990,-1.25,-3.625,-28.6875,0
65010,-5.1875,-4.1875,-28.1875,0
65030,-3.5,-3.25,-28.6875,0
65050,-3.5,-1.0625,-30.1875,0
65070,-5.1875,1.8125,-30.6875,0
65090,-6.6875,3.1875,-31.75,0
65110,-6.625,2.9375,-33.4375,0
65130,-7.6875,3.9375,-35.5625,0
65150,-8.1875,7.0625,-36.3125,0
65170,-8.6875,9.75,-34.4375,0
65190,-9.0625,11.625,-35.375,0
65210,-8.0625,11.375,-39.1875,0
65230,-11.625,13.1875,-38,0
65250,-13.125,15.5625,-37.75,0
65270,-11.3125,17.125,-39.125,0
65290,-14,17.9375,-39.0625,0
65310,-17.3125,18.8125,-37.75,0
65330,-17.5625,21.875,-39.4375,0
65350,-18.25,22.75,-40.4375,0
65370,-20.125,23.75,-39.125,0
65390,-21.5625,23.8125,-40.1875,0
65410,-21.9375,24.9375,-39.375,0
65430,-22.6875,27.9375,-37.375,0
65450,-22.5,31.5625,-36.4375,0
65470,-23.3125,33.5,-32.0625,0
65490,-20.625,35.8125,-27.4375,0
65510,-20.75,38.125,-27.5625,0
65530,-21.8125,40.4375,-26.5625,0
65550,-23.125,41.5,-24.3125,0
65570,-21.1875,42.125,-23.1875,0
65590,-19.3125,41.25,-22.5625,0
65610,-21.9375,40.4375,-21.75,0
65630,-22.5,40.6875,-18.6875,0
65650,-21.9375,41.8125,-16.5625,0
65670,-20.6875,41.875,-16.5,0
65690,-20.9375,40.75,-14.875,0
65710,-24.0625,40.9375,-10.6875,0
65730,-19.8125,44.625,-6.4375,0
65750,-19.75,47.25,-5.25,0
65770,-19.6875,49.125,-1.875,0
65790,-19.5625,47.0625,2.875,0
65810,-17.9375,44.9375,6.8125,0
65830,-14.5625,45.0625,8.8125,0
65850,-16.875,44.625,10.375,0
65870,-19.0625,41.5625,16,0
65890,-13.6875,40.75,21.25,0
65910,-9.625,38.625,19.9375,0
65930,-13.0625,36.4375,20.75,0
65950,-15.9375,32.8125,24.4375,0
65970,-13.3125,28.6875,25.9375,0
65990,-9.5,28.4375,26.1875,0
66010,-9.875,27.4375,26.125,0
66030,-9.375,22.8125,26.25,0
66050,-6.75,18.625,27,0
66070,-6.875,17.0625,28.1875,0
66090,-6.625,13.5,28.125,0
66110,-8,8.5,27.375,0
66130,-7.875,6.375,29.1875,0
66150,-6.625,2.8125,29.4375,0
66170,-3.3125,-0.8125,31.3125,0
66190,-3.1875,-4.0625,32.25,0
66210,-5.375,-7.375,30,0
66230,-7,-9.5,31.1875,0
66250,-6.9375,-10.1875,33.375,0
66270,-2.25,-11.125,33.5625,0
66290,-0.375,-12,32.4375,0
66310,-3.125,-12.5,29.9375,0
66320,-6.625,-14.125,28.1875,0
66340,-7.8125,-14.1875,29.875,0
66360,-5.8125,-15.375,31.875,0
66380,-10.375,-16.875,31.6875,0
66400,-15,-17.125,29.5625,0
66420,-16.0625,-18.875,30.375,0
66440,-15.375,-21,35,0
66460,-16.75,-22.375,34.375,0
66480,-15.6875,-21.875,32.625,0
66500,-12.5625,-22.9375,31.25,0
66520,-10.0625,-24.4375,28.125,0
66540,-8.625,-25.625,23.875,0
66560,-5.4375,-26.0625,23,0
66580,-1.5,-26.4375,22.375,0
66600,2,-27.75,17.5,0
66620,2.1875,-29.4375,16,0
66640,1.25,-31.9375,18.1875,0
66660,0.375,-33.8125,18.75,0
66680,-2,-34.8125,16.4375,0
66700,-2.75,-35.875,15.4375,0
66720,-2,-37.5,16.875,0
66740,0.5,-37.75,12.75,0
66760,0.75,-38,9.8125,0
66780,1,-37.5625,8.875,0
66800,4.25,-36.6875,6.3125,0
66820,6.5625,-37.625,4.25,0
66840,3.875,-39.3125,2.0625,0
66860,2.125,-39.375,-2.125,0
66880,2.4375,-39.25,-3.6875,0
66900,5.4375,-38.6875,-6.625,0
66920,5.4375,-38.875,-10.375,0
66940,2.25,-40.125,-11.8125,0
66960,1.0625,-39.9375,-10.75,0
66980,3,-37.9375,-9.8125,0
67000,5.4375,-37,-11.0625,0
67020,1.6875,-38.625,-11.5,0
67040,-1.5625,-38.375,-12.75,0
67060,1.5625,-34.875,-13,0
67080,9,-31.0625,-14.375,0
67100,9,-30.25,-17.8125,0
67120,5.5,-31.1875,-18.8125,0
67140,4.8125,-28.1875,-21.5,0
67160,10,-24.5,-22.9375,0
67180,11.1875,-24.875,-23.4375,0
67200,7.9375,-26,-22.8125,0
67220,5.1875,-26.5,-22.6875,0
67240,5.25,-24.875,-21.3125,0
67260,5.6875,-22.3125,-21.875,0
67280,4,-21.25,-24.6875,0
67300,4,-21.25,-22.1875,0
67320,5.625,-20.375,-19.75,0
67340,8.5625,-18.9375,-23.6875,0
67360,6.9375,-18,-26.1875,0
67380,4.375,-17.6875,-24.8125,0
67400,4.625,-14.25,-25.375,0
67420,9.25,-10.5,-27.9375,0
67440,12,-8.4375,-27.625,0
67460,10.6875,-7,-27.875,0
67480,9.75,-6.25,-28.25,0
67500,10.375,-4.375,-25.75,0
67520,9.4375,-3.25,-24.875,0
67540,8.5625,-2.625,-24.375,0
67560,6.9375,-2.5625,-22.5625,0
67580,4.125,-2.1875,-20,0
67590,3.875,-0.875,-19.1875,0
67610,3.6875,0.3125,-18.4375,0
67630,1.625,0.3125,-16.625,0
67650,1.4375,-0.0625,-13.5625,0
67670,0.25,0.5,-12,0
67690,-0.375,0.9375,-10.4375,0
67710,-2,-1.0625,-7.375,0
67730,-3.5625,-1.1875,-7.625,0
67750,-1.3125,-2.25,-7.625,2001
67770,-1.25,-1.125,-5.25,0
67790,-1.0625,-1.1875,-5.125,0
67810,-0.75,-2.875,-2.625,0
67830,-0.625,-2.875,-3.875,0
67850,0.6875,-1.6875,-4.75,0
67870,3.5625,0.0625,-3.1875,0
67890,3.6875,-0.1875,-2.4375,0
67910,3.6875,-0.0625,-2.4375,0
67930,5.9375,1.4375,-5.375,0
67950,8.3125,2.3125,-5.0625,0
67970,-1.4375,0.625,-3.375,0
67990,-8.9375,-2.375,-2.25,0
68010,-11.3125,-3.1875,-0.3125,0
68030,-8.375,-2.4375,3.4375,0
68050,-4.6875,1.75,8.5625,0
68070,-3.625,8.625,12.1875,0
68090,-1.875,17.0625,11.1875,0
68110,-3.9375,21.75,12.5,0
68130,-8.1875,21.3125,19.875,0
68150,-16.0625,22.625,29.6875,0
68170,-19.5625,26.625,39.8125,0
68190,-25,32.0625,51.8125,0
68210,-32.9375,38.625,69.625,0
68230,-32.8125,43.375,87.625,0
68250,-25.125,47.1875,99.1875,0
68270,-25.25,51.875,107.938,0
68290,-29.375,51.75,119.875,0
68310,-30.4375,52.5625,127.562,0
68330,-19.375,53.5,127.562,0
68350,-9,49.375,123,0
68370,-8.3125,43.1875,122.5,0
68390,-7.9375,35,122.5,0
68410,-4.625,27.75,111.688,0
68430,5.5,19.75,93.5,0
68450,11.9375,12.375,82.3125,0
68470,11.6875,4,77.625,0
68490,10.25,-4.375,71.9375,0
68510,11.0625,-10.0625,64.375,0
68530,9.25,-16.1875,60.75,0
68550,9.125,-22.5,58.375,0
68570,6.125,-26.75,54.25,0
68590,7,-26.5,47.3125,0
68610,1.5625,-27.1875,40.8125,0
68630,-2.5625,-28.1875,39.125,0
68650,-0.6875,-30.0625,38.375,0
68670,1.0625,-27.75,34.5625,0
68680,1.375,-23.1875,30.125,0
68700,0.0625,-20.9375,23.4375,0
68720,-1.5625,-17.5625,15.6875,0
68740,-1.3125,-11.6875,11.0625,0
68760,0.8125,-7.25,11.0625,0
68780,3.375,-4.4375,9,0
68800,7.9375,0.8125,2.8125,0
68820,4.125,4.9375,-3.3125,0
68840,0.3125,5.3125,-3.3125,0
68860,0.375,3.1875,0,0
68880,1.5,1.5625,2.1875,0
68900,3.5625,1,1.5625,0
68920,-0.9375,-0.5625,-0.625,0
68940,-5.5,-2.875,0.625,0
68960,-5.6875,-4.625,1.125,0
68980,-3.0625,-6.5625,2.6875,0
69000,-1.9375,-6.9375,4.1875,0
69020,-3.1875,-7.1875,4,0
69040,-5,-5.6875,3.6875,0
69060,-1.625,-3,2.4375,0
69080,0,-2.3125,0.1875,0
69100,0,-2,1.6875,0
69120,-2.375,-0.1875,4.5,0
69140,-1.5,0.375,4.1875,0
69160,-0.4375,1.5625,1.125,0
69180,-2.125,1.875,-0.625,0
69200,-4.8125,0.4375,-0.125,0
69220,-3.5625,0.6875,0.1875,0
69240,-1.6875,0.875,-1,0
69260,-2.75,0.625,-2.625,0
69280,-3.8125,-0.5,-3.1875,0
69300,-4.3125,-1.25,-3.5625,0
69320,-5.1875,-2.5625,-5.625,0
69340,-3.0625,-3.875,-4.125,2000
69360,-0.5625,-4.625,-1.5625,0
69380,-0.3125,-3,-1.3125,0
69400,1.25,0.25,2.4375,0
69420,3.25,3.4375,4.125,0
69440,0.8125,6.0625,-1.5,0
69460,1.375,5.5,-4.5625,0
69480,0.5,0.5,-1.125,0
69500,1.5625,-2.1875,3,0
69520,0.9375,-2.4375,3.4375,0
69540,-1.6875,-1.0625,1.25,0
69560,-2.6875,-1.125,1.3125,0
69580,-0.0625,-2,3.75,0
69590,2.8125,-2.625,2.25,0
69610,3.4375,-2.8125,-0.75,0
69630,2.5625,-2.5625,-1.625,0
69650,1.9375,-1.3125,-1.625,0
69670,2.5625,-1.25,-2.125,0
69690,3.6875,-1.875,-0.25,0
69710,5.6875,-3.3125,0.3125,0
69730,5.375,-5.125,-4.625,0
69750,2.6875,-8.1875,-6.0625,0
69770,2.5,-9.9375,-4.8125,0
69790,4.0625,-11.25,-7.375,0
69810,6.3125,-13.1875,-9,0
69830,6.625,-14.25,-10.6875,0
69850,5.0625,-16.125,-13.1875,0
69870,4.6875,-18.5625,-12.875,0
69890,5.375,-21.3125,-12,0
69910,4.25,-21.375,-11.1875,0
69930,5.4375,-21.5625,-11,0
69950,7.4375,-22.75,-10.625,0
69970,6.0625,-22.8125,-12.0625,0
69990,6.0625,-21,-14.1875,0
70010,4.5625,-20.375,-15.5625,0
70030,7.9375,-18.5,-13,0
70050,10.9375,-17.6875,-12.8125,0
70070,8.8125,-17.3125,-15.5625,0
70090,6.25,-17.5,-15.1875,0
70110,6.5,-15.875,-13.5,0
70130,7.125,-16.625,-13.25,0
70150,5.1875,-19.3125,-12.375,0
70170,3.625,-17.8125,-12.4375,0
70190,3.1875,-13.8125,-15.5,0
70210,2.6875,-12.75,-16.6875,0
70230,2.125,-13,-17.1875,0
70250,0.1875,-11.5,-19.75,0
70270,0.8125,-7.25,-22.6875,0
70290,3.6875,-4,-22.6875,0
70310,2.125,-3.5,-23.3125,0
70330,-1.375,-3,-25.5,0
70350,-3.4375,-1.875,-24.625,0
70370,-1.875,1.1875,-23,0
70390,-3.8125,2.875,-22.9375,0
70410,-6.5625,4.0625,-21.75,0
70430,-9.5625,5.3125,-21,0
70450,-8.625,7.9375,-22.9375,0
70470,-8.3125,11.125,-23.5,0
70490,-9.5,12.625,-21,0
70510,-10,14.1875,-21.625,0
70530,-10.625,16.125,-21.75,0
70550,-8.375,20.3125,-22.125,0
70570,-8.1875,25.0625,-23.875,0
70590,-11.3125,26.6875,-23.9375,0
70610,-11.875,28.6875,-22.5625,0
70630,-10.3125,32.1875,-22.25,0
70650,-9.125,36.375,-23.625,0
70670,-11.9375,38.4375,-23,0
70690,-14.5625,38.6875,-23.75,0
70710,-15.875,39.6875,-22.375,0
70730,-16.3125,42.8125,-21.625,0
70750,-16,45.125,-22.125,0
70770,-19.0625,45.4375,-21.625,0
70790,-20.4375,44,-19.625,0
70810,-19.1875,44.0625,-18.75,0
70830,-18.0625,45.6875,-18.125,0
70850,-19.6875,45.3125,-17.75,0
70870,-19.9375,44.5625,-17.5625,0
70880,-19.75,45.1875,-19,0
70920,-18.4375,46.4375,-16.8125,0
70940,-16.75,45.5625,-14.5,0
70960,-16.6875,45.75,-12.8125,0
70980,-16.5,47.125,-12.875,0
71000,-14.25,50.5,-8.5625,0
71020,-14.8125,52.0625,-6.9375,0
71040,-15.125,52.3125,-5.5625,0
71060,-13.4375,52.6875,-7.0625,0
71080,-13.3125,53.3125,-7.1875,0
71100,-11.9375,52.5,-6.3125,0
71120,-8.875,50.5,-5.25,0
71140,-6.375,49,-6.1875,0
71160,-9.5,47.625,-6.5625,0
71180,-11.25,46.3125,-2.6875,0
71200,-9.5625,44.5625,0.6875,0
71220,-6.125,42.125,0.625,0
71240,-7.125,40.5625,-0.6875,0
71260,-9.25,37.8125,0.3125,0
71280,-7.375,35.375,2.125,0
71300,-5.1875,32.9375,1.9375,0
71320,-6.8125,29.875,1.8125,0
71340,-6.6875,29.875,2.5625,0
71360,-4.75,29.875,1.6875,0
71380,-3.75,25.8125,1.1875,0
71400,-4.5625,23.5,5.5625,0
71420,-5.3125,24.5625,7.9375,0
71440,-4.75,26,6.125,0
71460,-4.75,22.5,5.3125,0
71480,-4.75,18,8.1875,0
71500,-4.3125,17.875,10.8125,0
71520,-1.6875,18.75,11.125,0
71540,-4.4375,14.3125,10.625,0
71560,-5.6875,8.4375,13.4375,0
71580,-5.125,5.5,15.625,0
71620,-6.0625,-3.8125,16.375,0
71640,-5.375,-7.125,18.1875,0
71660,-4.0625,-8.625,18.375,0
71680,-4.375,-10.1875,18.625,0
71700,-1.75,-12.9375,19.375,0
71720,-2.3125,-16.0625,18.625,0
71740,-1.375,-15.9375,18.0625,0
71760,-0.5625,-16.125,15.875,0
71780,0.5625,-17.8125,14.9375,0
71800,1.3125,-20.375,16.625,0
71820,2.375,-21.125,15,0
71840,1.6875,-20.625,13,0
71860,2.6875,-21,13.875,0
71880,1,-22,13.625,0
71900,2,-22.3125,10.9375,0
71920,2.625,-22.1875,11.5,0
71940,3.625,-22.6875,11.1875,0
71960,3.4375,-24.125,9.8125,0
71980,0.875,-26.125,9.25,0
72000,0.625,-27.875,10,0
72020,2.5,-28.5,9.375,0
72040,2.125,-26.9375,8.4375,0
72060,3.75,-27.0625,8.75,0
72080,3.875,-28.4375,9.4375,0
72100,2.9375,-28.5625,9.875,0
72120,3.125,-29.125,9.625,0
72140,4,-29.5625,9.75,0
72160,3.125,-29.5625,9.25,0
72180,2.1875,-30.5625,9.5,0
72200,4.375,-32,10.1875,0
72220,5.4375,-32,8.75,0
72240,4.1875,-31.125,7.8125,0
72260,3.875,-31.5,9.8125,0
72280,6.0625,-32.1875,9.25,0
72300,7.0625,-33.375,6.875,0
72320,5.125,-34.625,7,0
72340,3.5,-35.375,7.5,0
72360,5.5,-34.125,5.9375,0
72380,7,-34,5.1875,0
72400,6.125,-34.125,4.875,0
72420,5.6875,-33.625,4.4375,0
72440,7.9375,-33.125,3.4375,0
72460,8.3125,-32.25,2.625,0
72480,8.75,-32.8125,1.8125,0
72500,7.3125,-33.6875,0.0625,0
72520,6.75,-34.3125,-0.75,0
72540,6,-34.3125,0.4375,0
72560,7.25,-33.875,-0.25,0
72580,8.8125,-34,-3.25,0
72600,8.375,-33.875,-2.6875,0
72620,8.375,-35,-1.125,0
72640,8.1875,-36.25,-2.625,0
72660,7.75,-36.625,-3.9375,0
72680,7.5,-36,-4.0625,0
72700,8.875,-35.9375,-4.5625,0
72720,7.875,-35.9375,-3.4375,0
72740,8.4375,-36.375,-1.875,0
72760,7.6875,-36.3125,-3,0
72780,7.875,-34.8125,-5.625,0
72800,8.375,-32,-6.8125,0
72820,9.625,-30.6875,-6.1875,0
72840,9.625,-30.4375,-5.5625,0
72860,10.6875,-29.625,-7.0625,0
72880,9.625,-28.25,-11.25,0
72900,7.625,-26.625,-13,0
72910,6.6875,-25.625,-10.9375,0
72930,7.25,-25.5625,-10.1875,0
72950,6.4375,-26.9375,-13.75,0
72970,2.875,-28.375,-15.875,0
72990,2.25,-29.0625,-14.3125,0
73010,3.6875,-29.625,-14.25,0
73030,3.6875,-31,-14.6875,0
73050,0.375,-31.4375,-14.75,0
73090,-0.625,-30.1875,-15.25,0
73110,1.125,-29.0625,-15.5625,0
73130,-0.6875,-29.3125,-14.5,0
73150,-1.125,-28.875,-15.25,0
73170,-1.625,-26.4375,-16.625,0
73190,-0.375,-22.375,-19.1875,0
73210,-0.25,-19.9375,-21.25,0
73230,-2,-18.0625,-22.1875,0
73250,-0.625,-15.875,-24.3125,0
73270,0.5,-12.3125,-26.625,0
73290,-0.3125,-8,-26.0625,0
73310,-2.5625,-4,-25.6875,0
73330,-3.9375,-3.9375,-27.125,0
73350,-5.875,-3.875,-28.375,0
73370,-7.1875,-2.1875,-27.375,0
73390,-6.9375,-0.25,-25.8125,0
73410,-9.3125,-0.1875,-25.875,0
73430,-12.375,-1,-26.8125,0
73440,-13.625,0.875,-27.0625,0
73460,-14.25,0.5,-27,0
73480,-16.125,0.125,-25.75,0
73500,-17.5625,1.5,-26.5,0
73520,-16.5625,3.4375,-28.6875,0
73540,-19.375,4.5625,-29.125,0
73560,-19.875,8.25,-27.125,0
73580,-19.375,11.9375,-26.375,0
73600,-17.25,15.1875,-26.5,0
73620,-16.25,17.625,-27.1875,0
73640,-17.75,20.375,-28.9375,0
73660,-19.75,22.6875,-29.1875,0
73680,-19.5,26.125,-28.5,0
73700,-17.25,30.125,-29.5625,0
73720,-17.375,31.6875,-29.6875,0
73740,-19.875,32.5,-26.9375,0
73760,-20.6875,35,-26.125,0
73780,-22.0625,38.3125,-28.625,0
73800,-24.8125,39.75,-27.8125,0
73820,-25.375,39.0625,-26.125,0
73840,-26.5625,40.5,-25.4375,0
73860,-25.75,40.6875,-24.8125,0
73880,-26.25,41.4375,-23.375,0
73900,-27.9375,41.8125,-21.9375,0
73920,-27.5625,41.0625,-18.875,0
73940,-23.9375,40.6875,-17.5,0
73960,-23.25,41.0625,-18.9375,0
73980,-22.9375,41.375,-18.75,0
74000,-21.75,40.8125,-17.75,0
74020,-17.75,39.875,-17.25,0
74040,-16.1875,38.3125,-15.875,0
74060,-16.0625,38.5,-14.3125,0
74080,-15.9375,39.8125,-13.875,0
74100,-14.25,40.5,-12.5625,0
74120,-14.4375,39.0625,-10.5625,0
74140,-13.125,39.5,-8.8125,0
74160,-11,41.125,-8.5,0
74180,-9.875,40.4375,-7.875,0
74200,-11.8125,40.4375,-5.1875,0
74220,-14,42.75,-0.5,0
74240,-10.75,41.8125,2.5625,0
74260,-8.0625,38.9375,1.625,0
74280,-10.5625,39.5,1.625,0
74300,-10.125,42.9375,5.9375,0
74320,-7.375,40.1875,7.0625,0
74340,-5.3125,36.125,5.4375,0
74360,-7.3125,36.8125,7.875,0
74380,-7.5625,39.0625,14.125,0
74400,-5.3125,35.6875,14.8125,0
74420,-3.0625,31.4375,10.375,0
74440,-3.375,29.25,7.5625,0
74460,-5.125,29.8125,12.625,0
74480,-3.0625,27.625,16.5,0
74500,-3.0625,26.5,15.625,0
74520,-4.1875,26.875,13.8125,0
74540,-3.5625,25.625,16.125,0
74560,-1.75,23.6875,17.9375,0
74580,-5.0625,24.75,18.25,0
74600,-5.375,25.125,20.0625,0
74620,-5.0625,21.5,22.5,0
74640,-6.125,18.5,22.5,0
74660,-6.4375,17.3125,22.1875,0
74680,-3.9375,17.75,24.3125,0
74700,-3.6875,15.875,25.25,0
74720,-6.125,12.1875,24.375,0
74740,-8.25,8.8125,23.4375,0
74760,-5.875,7.875,25.0625,0
74780,-6,8.8125,26.1875,0
74800,-8,6,25.625,0
74820,-8.3125,2.1875,25.0625,0
74840,-7.8125,-0.0625,24.1875,0
74860,-10.75,-0.6875,23,0
74870,-12.375,-3.625,23.0625,0
74890,-12.5625,-7.5,23.375,0
74910,-11.5625,-10.0625,23.9375,0
74930,-9.875,-12.9375,25.1875,0
74950,-8.4375,-15.1875,24.875,0
74970,-7.125,-17.6875,23.0625,0
74990,-7.1875,-19.125,21.9375,0
75010,-4.8125,-20.375,21.875,0
75030,-2.1875,-22.3125,21.3125,0
75050,-1.1875,-23.6875,20.375,0
75070,0.75,-23.4375,18.25,0
75090,0.375,-24.3125,16.3125,0
75110,1,-25.5625,16.625,0
75130,2.9375,-26.625,15.75,0
75150,4.75,-28.125,14.8125,0
75170,3.6875,-29.75,13.1875,0
75190,2.0625,-30.5625,11,0
75210,1.9375,-31.625,10.75,0
75230,3.3125,-33,11.5625,0
75250,5.625,-34.3125,12.1875,0
75270,5.25,-35.4375,10.125,0
75290,3.375,-36.625,9.3125,0
75310,2.4375,-37.4375,10.5,0
75330,4.125,-37.4375,10.625,0
75350,5.8125,-37.8125,12.1875,0
75370,7.1875,-38.1875,11.25,0
75390,5.6875,-38.375,10.0625,0
75410,4.125,-37.9375,10.6875,0
75430,4.875,-37.5625,11.8125,0
75450,7.8125,-37.125,11.25,0
75470,9.4375,-36.1875,9.4375,0
75490,8.3125,-37.4375,10.375,0
75510,5.9375,-39.5625,10.125,0
75530,5.375,-38.625,6.5,0
75550,6.0625,-38.25,6.5625,0
75570,7.3125,-38.625,5.125,0
75590,5.0625,-37.875,-0.1875,0
75610,4.9375,-36.9375,-1.9375,0
75630,8.5625,-36,-3.0625,0
75650,9.125,-35.3125,-7.1875,0
75670,8.0625,-36,-9.8125,0
75690,6.9375,-36.875,-10.4375,0
75710,6.75,-36.9375,-12.9375,0
75730,9,-36.5,-16.375,0
75750,8.875,-36.3125,-18.1875,0
75770,6.5,-37.0625,-17,0
75790,6.9375,-37.625,-15,0
75810,8.625,-36.3125,-16.375,0
75830,8.125,-34.9375,-18.75,0
75850,6.3125,-34.5625,-19.625,0
75870,4.5625,-33,-19.5625,0
75890,6.0625,-31,-20.0625,0
75910,10.25,-29,-23.5,0
75930,7.5,-28.625,-26.625,0
75950,7.1875,-27.25,-27.5,0
75970,7.25,-24.3125,-29.75,0
75990,9.125,-22.3125,-30.5625,0
76010,8.5625,-20.625,-31.625,0
76030,7.3125,-18.8125,-33.125,0
76050,5.75,-16.8125,-33.625,0
76070,6.625,-15.125,-33.5625,0
76090,5.5,-15,-33,0
76110,0.375,-14.625,-34.5625,0
76130,-1.375,-10.6875,-36.3125,0
76150,2.25,-6.0625,-35.75,0
76170,-0.3125,-3,-35.625,0
76190,-2.6875,-0.4375,-36.5625,0
76210,-6.125,1.9375,-37.5,0
76230,-3.375,6.875,-36.75,0
76250,-1.625,11.4375,-36.5625,0
76270,-5.5,13.9375,-35.6875,0
76290,-10.6875,15,-33.625,0
76310,-11.9375,18,-33.25,0
76330,-14.0625,22.6875,-32.9375,0
76350,-16.375,27.5,-28.125,0
76370,-14.0625,28.125,-28.1875,0
76390,-12.6875,27.4375,-28.9375,0
76410,-14.25,28.5625,-27.9375,0
76430,-16.5625,29.0625,-27.875,0
76450,-17.75,29.1875,-27.8125,0
76470,-18.0625,27.375,-26.375,0
76490,-18.25,26.3125,-25.75,0
76510,-20.125,25.1875,-24.9375,0
76530,-22.6875,24.3125,-22.0625,0
76550,-24.4375,23.0625,-18.9375,0
76570,-26.25,22.9375,-18.9375,0
76590,-24.125,23.9375,-20.8125,0
76610,-23.8125,24.625,-22.75,0
76630,-24.6875,24.3125,-19.5625,0
76650,-24.4375,24.8125,-16.75,0
76670,-23.125,27.1875,-18.0625,0
76690,-17.125,29.125,-20.5625,0
76710,-17.25,28.75,-21.1875,0
76730,-18.3125,27.1875,-18.625,0
76750,-17.375,27.9375,-18.625,0
76770,-14.4375,29.5,-19.5,0
76790,-14,29.5,-16.8125,0
76810,-14.75,29.5,-13.5,0
76830,-13.0625,31.5,-10.6875,0
76850,-12.5,34.375,-9.0625,0
76870,-16,34.5,-3.4375,0
76890,-16.5,36.4375,-0.8125,0
76910,-11.6875,37.5,-1.875,0
76930,-7.75,36.875,-0.75,0
76950,-8.125,36.25,2.5625,0
76970,-9.875,35.75,3.5625,0
76990,-11.375,37,6.125,0
77010,-8.5,38.5,8.9375,0
77030,-6.625,37.5625,8.4375,0
77050,-8.5625,35.4375,8.375,0
77070,-9.4375,35.6875,11.875,0
77090,-7.1875,36.1875,14.625,0
77110,-6,35.9375,15.5,0
77130,-7.375,34.25,16.4375,0
77150,-6.5,32.25,16.375,0
77170,-5.375,30.5,17.25,0
77190,-4.9375,29.6875,19.375,0
77210,-5,28.875,19.0625,0
77230,-5.375,25.3125,19.625,0
77250,-8.9375,21.25,22.125,0
77270,-10,17.6875,23.125,0
77290,-9.6875,14.5,24,0
77310,-11.5625,11.5,24.1875,0
77330,-12.5,9.3125,25,0
77350,-11.25,8.0625,25.3125,0
77370,-11.5625,5.5625,25.375,0
77390,-8.375,2.6875,25.9375,0
77410,-8.75,0.25,24.875,0
77440,-9.1875,-2.5,23.75,0
77460,-5.5625,-4.4375,24.8125,0
77480,-3,-6.6875,23.375,0
77500,-2.625,-7.6875,21,0
77520,-2.75,-8.9375,21.4375,0
77540,-2.9375,-9.5,23.4375,0
77560,-1.0625,-10.875,24.3125,0
77580,-0.8125,-12.75,24.1875,0
77600,-2.5625,-14.3125,25.0625,0
77620,-2.125,-15.625,25.25,0
77640,-1.8125,-17.1875,26.6875,0
77660,-1.5,-18.3125,27.5625,0
77680,-1.1875,-19.875,25.875,0
77700,0.3125,-21.4375,25.25,0
77720,0.3125,-22.9375,24.25,0
77740,-0.0625,-23.9375,21,0
77760,0.0625,-25.1875,20.25,0
77780,2.6875,-25.5625,19.4375,0
77800,3.75,-24.5625,18,0
77820,3.6875,-24.5625,18.1875,0
77840,2.1875,-26.5,17.375,0
77860,-0.6875,-28,16.0625,0
77880,-1.8125,-28.5,15.5,0
77900,-0.5,-27.8125,18,0
77920,2.6875,-28.8125,16.75,0
77940,2.3125,-30.5625,11.5,0
77960,0.875,-30.125,10.875,0
77980,0.75,-29.25,12.125,0
78000,1.875,-29.25,11.5625,0
78020,2.75,-30.0625,7.5,0
78040,1.4375,-31.1875,4.8125,0
78060,0.5,-30.875,4.8125,0
78080,4.0625,-30.0625,1.9375,0
78100,5.5625,-31.375,1.375,0
78120,3.3125,-34.125,1.1875,0
78140,3.0625,-35.375,-1.8125,0
78160,2.75,-36,-3.125,0
78180,1.375,-38.3125,-2.8125,0
78200,0.6875,-39.9375,-2.5625,0
78220,2.25,-40.75,-2.4375,0
78240,0.5625,-40.625,-3.125,0
78250,-1.75,-41.25,-3.25,0
78270,-0.8125,-41.0625,-3.5,0
78290,4.625,-39.4375,-3.25,0
78310,8.9375,-37.5625,-5.125,0
78330,7.625,-36.625,-8.6875,0
78350,4.25,-37,-10.5625,0
78370,5.1875,-36.1875,-10.875,0
78390,10,-34.3125,-12.6875,0
78410,12.625,-33.375,-14.75,0
78430,11.5,-32.875,-15,0
78450,9.875,-31.6875,-16.875,0
78470,11.0625,-28.625,-17.625,0
78490,12.8125,-26.6875,-17.4375,0
78510,12.375,-25.5625,-17.75,0
78530,9.25,-26.3125,-18.25,0
78550,8.75,-24.6875,-17.75,0
78570,9,-22.9375,-18.625,0
78590,8,-22.625,-20.1875,0
78610,4.0625,-21.5,-21.9375,0
78630,5.5,-19.8125,-21.625,0
78650,7.9375,-18.4375,-22.75,0
78670,7.4375,-17.25,-26.1875,0
78690,5.9375,-15.6875,-27.3125,0
78710,7.4375,-15.375,-27.375,0
78730,7.125,-14.875,-29.25,0
78750,6.625,-14.625,-29.5625,0
78770,4.3125,-14.3125,-28.4375,0
78790,4.6875,-12.8125,-29.1875,0
78810,3.8125,-12.5,-29.4375,0
78830,3.875,-12.3125,-29.5,0
78850,2.25,-11.1875,-29.8125,0
78870,1.0625,-8.6875,-28.1875,0
78890,-1.1875,-6.4375,-26.0625,0
78910,1.0625,-5.125,-25.9375,0
78930,0.125,-3.375,-26.125,0
78950,-3.1875,-0.625,-23.5,0
78970,-3.3125,1.6875,-21.375,0
78990,-2.375,1.0625,-19.125,0
79010,-4.5625,0.8125,-16.1875,0
79030,-5.5,3.5625,-16.375,0
79050,-5.25,4.625,-17.125,0
79070,-6.0625,4.8125,-15,0
79090,-5.25,5.1875,-13.5625,0
79110,-4.75,4.25,-12.75,0
79130,-6.25,3.0625,-10.4375,2001
79150,-9.375,3.8125,-10.8125,0
79170,-4.1875,5.75,-12.8125,0
79190,-4.25,5.375,-13.0625,0
79210,-5.125,4.6875,-10.9375,0
79230,-6.5,4.375,-9.5625,0
79250,-3.5,4.25,-7.1875,0
79270,1.25,5.5,-7.8125,0
79290,-3.0625,4.5625,-9.0625,0
79310,-4.1875,5.3125,-6.9375,0
79330,1.5,7.1875,-5,0
79350,-0.75,6.3125,-2.875,0
79370,-8.5625,2.625,-0.3125,0
79390,-13.125,-1.75,1.3125,0
79410,-11.6875,-3.5,4.3125,0
79430,-8.75,-0.875,10.5625,0
79450,-6.5,6.1875,14.8125,0
79470,-6.875,12.4375,15.6875,0
79490,-9.1875,16.875,16.6875,0
79510,-9.3125,18.6875,21.5625,0
79530,-11.875,20,30.6875,0
79550,-11.6875,23.5,41.0625,0
79570,-12.625,26.25,49.375,0
79590,-14.625,28.875,52.0625,0
79610,-19.75,29.125,55.625,0
79630,-25.1875,27.8125,67.125,0
79650,-26.375,28.8125,80,0
79670,-17.875,31.75,86.25,0
79690,-7.0625,36.125,87.1875,0
79710,-12.5625,38.75,90,0
79730,-17.9375,36.6875,101.938,0
79750,-12.375,30.9375,108.5,0
79770,-0.0625,29.25,105.938,0
79790,7.25,27.875,96.875,0
79810,3.3125,20.625,98.3125,0
79830,1.4375,12.3125,102.562,0
79850,4.25,8.5625,94.125,0
79870,8.9375,4.8125,85.5625,0
79890,13.1875,0.3125,85.25,0
79910,9.3125,-5.4375,86,0
79930,8.6875,-9.6875,81.4375,0
79950,6.625,-10.625,78.4375,0
79970,11.6875,-13.6875,79.0625,0
79990,10.9375,-18.375,76,0
80010,8.125,-19.8125,69.1875,0
80030,3.625,-20.875,62.5,0
80050,2.9375,-20.375,57.3125,0
80070,5.1875,-19.6875,48.75,0
80090,5,-19.8125,39.625,0
80110,6.5625,-20.4375,31.4375,0
80130,8.1875,-18.75,23.8125,0
80150,11.9375,-14.125,17.1875,0
80170,14.625,-11.125,10.5,0
80190,10.25,-11,6.125,0
80210,8.1875,-9.5,5.125,0
80230,10.75,-6.5,4.25,0
80250,10.1875,-4.625,2.5625,0
80260,6.75,-4.125,3.4375,0
80280,4.125,-3.5625,4.875,0
80300,3.8125,-2.75,4.625,0
80330,1.3125,-4.375,5.1875,0
80350,-1,-4.0625,6.125,0
80370,-1.8125,-4.6875,5.5625,0
80390,-1.1875,-4.6875,3.6875,0
80410,-2.5625,-3.0625,2.375,0
80430,-0.3125,-0.6875,3.125,0
80450,0.875,-2.125,3.6875,2000
80470,3,-2.0625,0.75,0
80490,-0.3125,-1.4375,-2.25,0
80500,2.875,-2,-1.875,0
80520,3.8125,-2,-1.375,0
80540,0.75,-0.5625,-0.9375,0
80560,1.3125,0.5,1.0625,0
80580,0.1875,0.875,0.4375,0
80600,-0.125,0.4375,1.375,0
80620,1,-1.375,2.3125,0
80640,-0.6875,-4.625,4.125,0
80660,-1.5625,-6.3125,6.8125,0
80680,-2.375,-3.125,2.6875,0
80700,-3.6875,-1.375,0,0
80720,-2.375,-3.6875,0.6875,0
80740,-0.5625,-5.8125,-0.9375,0
80760,-0.8125,-8.9375,-1.8125,0
80780,-1,-8.8125,-1.5625,0
80800,-1.125,-5.6875,-2.875,0
80820,3.3125,-6.625,-2.25,0
80830,6.375,-10.625,-0.0625,0
80850,5.5,-13.0625,-1.125,0
80870,1.5,-13.375,-6.0625,0
80890,-0.0625,-15.125,-5.875,0
80910,3.9375,-17.5625,-4.375,0
80920,6.0625,-20.3125,-7.6875,0
80940,4.875,-21.9375,-13.6875,0
80960,4.5,-21.125,-17.25,0
80980,4.6875,-21,-19,0
81000,5.875,-22.1875,-17.75,0
81020,8.75,-23.375,-19.1875,0
81040,11.875,-22.125,-22.5,0
81060,7.375,-20.75,-26.0625,0
81080,6.9375,-19.8125,-25.875,0
81100,7.0625,-20.5625,-23.4375,0
81120,10.375,-22.25,-22.0625,0
81140,9.1875,-20.375,-28.5625,0
81160,6.75,-13.625,-33.875,0
81180,4.875,-10.375,-31.6875,0
81200,7,-12.0625,-28.5,0
81220,11.5,-9.75,-28.8125,0
81240,14.125,-7.375,-31.8125,0
81260,9.3125,-3.1875,-32.75,0
81280,4.25,-1.3125,-30.25,0
81300,5.1875,0.6875,-28.625,0
81320,9.1875,5.3125,-29.5,0
81340,10.0625,11.625,-28.1875,0
81360,6,14.75,-26.875,0
81380,7.125,19.4375,-25.9375,0
81400,6.3125,24.5,-26.0625,0
81420,1.75,25.9375,-23.9375,0
81440,1.6875,27.375,-22,0
81460,-0.1875,29.125,-22.8125,0
81480,-2.4375,29.8125,-22,0
81500,-11.1875,43.25,-23.875,0
81520,-13.9375,45.1875,-23.75,0
81540,-15.875,47.3125,-26.0625,0
81560,-15.9375,51,-27.3125,0
81580,-17.8125,54.1875,-29.5625,0
81600,-20.8125,57.1875,-30,0
81620,-21.5,58.1875,-31,0
81640,-23.0625,60.375,-31.75,0
81660,-20.375,63.1875,-33.8125,0
81680,-21.875,64.0625,-35.25,0
81700,-21.4375,65.3125,-32.8125,0
81720,-19.375,67.5,-29.6875,0
81740,-20.5625,68.625,-28.1875,0
81760,-22.5,65.75,-24.875,0
81780,-23.5625,64.5625,-23.875,0
81800,-23.4375,58.875,-9.5,0
81820,-23.875,56.75,-7.9375,0
81830,-23.0625,53.0625,-6.125,0
81890,-13.4375,50.9375,-2.875,0
81900,-15.375,49.3125,-2.4375,0
81920,-14,47.5625,3.3125,0
81940,-11.1875,44.9375,-1.8125,0
81960,-15,40.875,-10,0
81980,-19.25,36.9375,-7.6875,0
82000,-18.125,36.875,-0.25,0
82020,-16.5625,36.3125,2.4375,0
82040,-16,32.5625,-1.8125,0
82060,-16.625,30.5625,-4.875,0
82080,-13.5,33.6875,3.1875,0
82100,-17.5,38.6875,18.8125,0
82120,-14.75,30.4375,22.3125,0
