Timestamp, Angle x, Angle y, Angle z, Marker
30,-1.297,0.41782,3.10745,0
40,-1.2958,0.417025,3.10662,0
70,-1.29133,0.414497,3.10578,0
90,-1.28868,0.413065,3.10603,0
90,-1.27537,0.412107,3.10723,0
110,-1.25765,0.408662,3.10794,0
110,-1.25098,0.406756,3.1076,0
110,-1.25052,0.404527,3.10652,0
150,-1.25416,0.394581,3.09487,0
170,-1.24604,0.393392,3.09609,0
210,-1.24056,0.391855,3.09701,0
240,-1.23103,0.388028,3.096,0
250,-1.21604,0.384758,3.09991,0
290,-1.20555,0.379872,3.09961,0
320,-1.20119,0.377308,3.09834,0
340,-1.19867,0.375776,3.09782,0
370,-1.18414,0.368249,3.09899,0
390,-1.19168,0.363452,3.09896,0
410,-1.19127,0.363224,3.09935,0
410,-1.19086,0.364369,3.09999,0
430,-1.19146,0.365172,3.09976,0
430,-1.19156,0.364941,3.09917,0
450,-1.19145,0.3642,3.09832,0
460,-1.19352,0.360776,3.09517,0
460,-1.1991,0.361132,3.09066,0
460,-1.18325,0.346361,3.07965,0
480,-1.16211,0.345907,3.07373,0
500,-1.16977,0.362452,3.07454,0
550,-1.15805,0.339508,3.07149,0
580,-1.13512,0.336522,3.06625,0
600,-1.13162,0.335687,3.06555,0
620,-1.1284,0.334054,3.06518,0
640,-1.12726,0.330346,3.06526,0
660,-1.13117,0.324267,3.06477,0
660,-1.13843,0.280624,3.05932,0
680,-1.13822,0.238797,3.05128,0
720,-1.12285,0.132795,3.03073,0
740,-1.11999,0.0703913,3.02047,0
760,-1.12569,0.00439711,3.01142,0
780,-1.1432,-0.0632645,3.0045,0
800,-1.16997,-0.134322,2.99849,0
820,-1.19847,-0.208979,2.99494,0
840,-1.22618,-0.283399,2.99565,0
860,-1.25512,-0.353507,3.00183,0
870,-1.28554,-0.417826,3.01219,0
890,-1.35232,-0.527507,3.04065,0
910,-1.38752,-0.571312,3.0589,0
930,-1.42073,-0.606924,3.07845,0
950,-1.45221,-0.636151,3.09947,0
970,-1.48017,-0.66048,3.12172,0
990,-1.50652,-0.680112,-3.139,0
1010,-1.52941,-0.698407,-3.11753,0
1030,-1.54983,-0.713106,-3.09727,0
1050,-1.56433,-0.724992,-3.07944,0
1070,-1.57574,-0.73628,-3.06215,0
1090,-1.58746,-0.746132,-3.04585,0
1110,-1.59383,-0.748495,-3.03486,0
1130,-1.59162,-0.74253,-3.03093,0
1150,-1.58437,-0.735478,-3.03078,0
1170,-1.5769,-0.731668,-3.03329,0
1190,-1.56982,-0.731193,-3.03916,0
1210,-1.56414,-0.734488,-3.04516,0
1230,-1.55288,-0.738662,-3.05194,0
1250,-1.54379,-0.745359,-3.05531,0
1270,-1.53432,-0.754164,-3.05701,0
1290,-1.53102,-0.757535,-3.05379,0
1310,-1.52836,-0.759522,-3.04946,0
1330,-1.52153,-0.765051,-3.04507,0
1350,-1.51683,-0.771685,-3.03948,0
1370,-1.51679,-0.779219,-3.03293,0
1390,-1.51806,-0.786117,-3.02814,0
1410,-1.51751,-0.792205,-3.0255,0
1430,-1.51452,-0.800987,-3.02461,0
1450,-1.50992,-0.809836,-3.0254,0
1470,-1.50646,-0.8171,-3.02608,0
1490,-1.50547,-0.823165,-3.02534,0
1510,-1.50495,-0.827803,-3.02447,0
1530,-1.50511,-0.832126,-3.02423,0
1550,-1.50488,-0.83617,-3.02524,0
1570,-1.50541,-0.839657,-3.02453,0
1590,-1.50749,-0.84334,-3.0216,0
1610,-1.50958,-0.847669,-3.01894,0
1630,-1.51179,-0.852583,-3.01704,0
1650,-1.51342,-0.857024,-3.01627,0
1670,-1.51437,-0.860968,-3.01562,0
1690,-1.51559,-0.865289,-3.01485,0
1710,-1.51686,-0.870544,-3.01425,0
1730,-1.5169,-0.876077,-3.01522,0
1750,-1.51581,-0.881184,-3.01663,0
1770,-1.51652,-0.886324,-3.01526,0
1790,-1.51895,-0.892353,-3.01331,0
1810,-1.52023,-0.899354,-3.01241,0
1830,-1.5217,-0.906506,-3.01237,0
1850,-1.52462,-0.913953,-3.01037,0
1870,-1.52932,-0.921642,-3.00676,0
1890,-1.53345,-0.929608,-3.00423,0
1910,-1.53871,-0.937046,-3.00162,0
1930,-1.54565,-0.943781,-2.99642,0
1950,-1.55342,-0.951279,-2.98972,0
1970,-1.56166,-0.959427,-2.98338,0
1990,-1.57005,-0.967263,-2.97797,0
2010,-1.57862,-0.974738,-2.97244,0
2030,-1.58651,-0.982381,-2.96586,0
2050,-1.5944,-0.991036,-2.95832,0
2070,-1.60199,-1.00017,-2.9511,0
2090,-1.61037,-1.00918,-2.94362,0
2110,-1.61978,-1.01751,-2.93531,0
2130,-1.62768,-1.02523,-2.92869,0
2150,-1.63218,-1.03208,-2.9248,0
2170,-1.6364,-1.03833,-2.92178,0
2190,-1.63941,-1.04334,-2.91999,0
2210,-1.64226,-1.04749,-2.91845,0
2230,-1.64512,-1.0515,-2.91739,0
2250,-1.6468,-1.05531,-2.91737,0
2270,-1.64654,-1.05777,-2.91766,0
2290,-1.64768,-1.05942,-2.9159,0
2310,-1.65053,-1.06127,-2.91325,0
2330,-1.65317,-1.06343,-2.91039,0
2350,-1.65626,-1.06561,-2.90598,0
2370,-1.65968,-1.0674,-2.90131,0
2390,-1.66283,-1.06886,-2.89729,0
2410,-1.66426,-1.06972,-2.89518,0
2430,-1.66602,-1.07006,-2.89295,0
2450,-1.66656,-1.06908,-2.8914,0
2470,-1.66592,-1.06823,-2.89059,0
2490,-1.66403,-1.06686,-2.88988,0
2510,-1.66349,-1.06561,-2.8882,0
2530,-1.66234,-1.06418,-2.88752,0
2550,-1.66043,-1.06295,-2.88817,0
2580,-1.65477,-1.06035,-2.89183,0
2590,-1.65238,-1.05949,-2.89391,0
2610,-1.65062,-1.05876,-2.89579,0
2630,-1.65043,-1.05844,-2.89603,0
2650,-1.65031,-1.0585,-2.89566,0
2670,-1.65065,-1.05981,-2.89566,0
2690,-1.65125,-1.06065,-2.89596,0
2710,-1.65126,-1.0608,-2.89611,0
2730,-1.6495,-1.06155,-2.8966,0
2750,-1.64913,-1.06224,-2.89555,0
2770,-1.64999,-1.06295,-2.89325,0
2790,-1.65081,-1.06449,-2.89135,0
2800,-1.65151,-1.06635,-2.88936,0
2820,-1.65385,-1.06754,-2.8857,0
2840,-1.65679,-1.069,-2.88118,0
2860,-1.66092,-1.07049,-2.87579,0
2880,-1.66527,-1.0723,-2.87106,0
2900,-1.67034,-1.07339,-2.86652,0
2920,-1.67534,-1.07387,-2.86231,0
2940,-1.67958,-1.0736,-2.85841,0
2960,-1.68258,-1.07466,-2.85577,0
2980,-1.68624,-1.07703,-2.85245,0
3000,-1.69067,-1.08021,-2.84836,0
3020,-1.69366,-1.08247,-2.8448,0
3040,-1.69631,-1.08384,-2.8411,0
3060,-1.69848,-1.08442,-2.83863,0
3080,-1.70091,-1.08432,-2.83648,0
3120,-1.7032,-1.0844,-2.83247,0
3130,-1.7042,-1.08504,-2.82977,0
3140,-1.70426,-1.08557,-2.82829,0
3150,-1.70437,-1.08605,-2.82615,0
3170,-1.7049,-1.08597,-2.82309,0
3190,-1.70484,-1.08558,-2.82024,0
3210,-1.70337,-1.08534,-2.81955,0
3230,-1.7023,-1.08516,-2.81893,0
3250,-1.7,-1.0848,-2.81957,0
3270,-1.69648,-1.08507,-2.82145,0
3290,-1.69232,-1.08646,-2.82442,0
3290,-1.68775,-1.08791,-2.82717,0
3310,-1.68323,-1.08916,-2.82991,0
3330,-1.67682,-1.09081,-2.83435,0
3350,-1.66835,-1.09255,-2.84045,0
3370,-1.65832,-1.09387,-2.84695,0
3390,-1.64914,-1.09487,-2.85228,0
3410,-1.63933,-1.09566,-2.85741,0
3430,-1.62681,-1.09652,-2.86296,0
3440,-1.60728,-1.09757,-2.86671,0
3450,-1.60035,-1.09826,-2.8675,0
3470,-1.59497,-1.09784,-2.86767,0
3480,-1.59112,-1.09668,-2.86768,0
3500,-1.58715,-1.09497,-2.86894,0
3520,-1.58483,-1.09236,-2.87025,0
3540,-1.58461,-1.08833,-2.87033,0
3560,-1.58683,-1.08425,-2.86851,0
3580,-1.5886,-1.08052,-2.86764,0
3610,-1.58178,-1.07285,-2.88476,0
3630,-1.57991,-1.07155,-2.89077,0
3650,-1.57808,-1.0698,-2.89627,0
3670,-1.57594,-1.06822,-2.90185,0
3690,-1.57493,-1.06714,-2.90629,0
3710,-1.57689,-1.06622,-2.90777,0
3730,-1.58244,-1.066,-2.90695,0
3750,-1.58989,-1.06628,-2.90515,0
3770,-1.6056,-1.07236,-2.90155,0
3800,-1.6241,-1.08459,-2.89354,0
3820,-1.63338,-1.09185,-2.88946,0
3840,-1.64387,-1.09907,-2.88379,0
3860,-1.65546,-1.10652,-2.87694,0
3880,-1.6676,-1.11436,-2.86942,0
3910,-1.69241,-1.13177,-2.85397,0
3930,-1.7084,-1.14069,-2.84332,0
3950,-1.72618,-1.14966,-2.83177,0
3970,-1.74674,-1.1589,-2.81939,0
3990,-1.79474,-1.18303,-2.79032,0
4000,-1.86015,-1.21202,-2.74288,0
4020,-1.90012,-1.22836,-2.71382,0
4040,-1.94213,-1.24524,-2.68362,0
4050,-2.07368,-1.28523,-2.57895,0
4070,-2.12457,-1.29565,-2.53451,0
4090,-2.17673,-1.30477,-2.4888,0
4110,-2.22558,-1.31246,-2.44512,0
4130,-2.27141,-1.31856,-2.4017,0
4170,-2.35844,-1.32421,-2.31706,0
4190,-2.39032,-1.32658,-2.28617,0
4230,-2.44562,-1.33494,-2.23512,0
4250,-2.43738,-1.33858,-2.24504,0
4270,-2.4179,-1.34263,-2.26623,0
4290,-2.38024,-1.34715,-2.30607,0
4310,-2.31985,-1.35144,-2.36872,0
4330,-2.24445,-1.35458,-2.44623,0
4350,-2.16179,-1.35467,-2.53014,0
4370,-2.07722,-1.34945,-2.61246,0
4390,-1.99677,-1.34085,-2.69,0
4410,-1.92256,-1.33194,-2.76429,0
4440,-1.65391,-1.29281,-3.0407,0
4460,-1.56829,-1.26658,-3.13144,0
4480,-1.49368,-1.23584,3.06801,0
4500,-1.42483,-1.20238,2.98762,0
4520,-1.36047,-1.16446,2.90793,0
4540,-1.31209,-1.12033,2.83704,0
4560,-1.27766,-1.07008,2.77436,0
4580,-1.24944,-1.01377,2.71823,0
4600,-1.22779,-0.95011,2.66937,0
4620,-1.21384,-0.880371,2.62735,0
4640,-1.20167,-0.806627,2.59035,0
4660,-1.18932,-0.734917,2.56024,0
4680,-1.18513,-0.669905,2.53928,0
4700,-1.19492,-0.613145,2.52504,0
4720,-1.21085,-0.564014,2.5137,0
4740,-1.21762,-0.509511,2.49917,0
4760,-1.22331,-0.449119,2.48459,0
4780,-1.23312,-0.390969,2.47039,0
4800,-1.23818,-0.335448,2.45327,0
4820,-1.24527,-0.281448,2.43516,0
4840,-1.25894,-0.227468,2.42121,0
4860,-1.27206,-0.174286,2.41251,0
4880,-1.27414,-0.124315,2.40775,0
4900,-1.26402,-0.0765665,2.40268,0
4920,-1.25502,-0.0318611,2.39569,0
4940,-1.25517,0.0101584,2.38994,0
4980,-1.27595,0.090833,2.38899,0
5000,-1.29415,0.129932,2.385,0
5040,-1.317,0.206855,2.36568,0
5060,-1.32202,0.244209,2.3541,0
5080,-1.3255,0.276964,2.34704,0
5100,-1.32491,0.296942,2.35038,0
5120,-1.32033,0.300094,2.35976,0
5140,-1.32768,0.296353,2.36446,0
5160,-1.3324,0.293435,2.36579,0
5180,-1.32826,0.294428,2.36563,0
5190,-1.32155,0.301361,2.36244,0
5210,-1.32233,0.308921,2.3617,0
5230,-1.32859,0.318289,2.36196,0
5270,-1.35932,0.336571,2.36555,0
5290,-1.37867,0.345535,2.36693,0
5320,-1.4071,0.358726,2.37037,0
5340,-1.41526,0.362639,2.37336,0
5360,-1.42003,0.367133,2.37686,0
5380,-1.42419,0.373027,2.38045,0
5400,-1.43747,0.388552,2.38629,0
5420,-1.44887,0.39581,2.38781,0
5440,-1.46149,0.401726,2.38866,0
5460,-1.47427,0.406571,2.38949,0
5480,-1.48548,0.41069,2.3901,0
5500,-1.49399,0.414261,2.39021,0
5520,-1.50069,0.417059,2.39005,0
5540,-1.50596,0.419193,2.39036,0
5560,-1.50891,0.421801,2.39103,0
5580,-1.51135,0.425055,2.39143,0
5600,-1.51442,0.427963,2.39154,0
5620,-1.51894,0.431002,2.39171,0
5640,-1.52482,0.433326,2.39181,0
5660,-1.5312,0.434851,2.39174,0
5680,-1.53729,0.436238,2.39144,0
5700,-1.54154,0.437306,2.39104,0
5720,-1.54399,0.437891,2.39075,0
5760,-1.54473,0.438082,2.3895,0
5800,-1.54565,0.440701,2.38778,0
5820,-1.54664,0.441174,2.38738,0
5840,-1.54795,0.441168,2.38723,0
5860,-1.54978,0.441316,2.38689,0
5880,-1.55156,0.441785,2.38668,0
5900,-1.55234,0.442175,2.38663,0
5920,-1.55219,0.442322,2.38675,0
5940,-1.55203,0.442416,2.38676,0
5960,-1.55171,0.443153,2.38746,0
5980,-1.55217,0.443834,2.38824,0
6000,-1.55321,0.444458,2.38893,0
6020,-1.55415,0.444646,2.38922,0
6040,-1.55509,0.444786,2.38962,0
6060,-1.55492,0.444696,2.39012,0
6080,-1.55449,0.444423,2.39058,0
6100,-1.55465,0.44451,2.39067,0
6120,-1.55617,0.444618,2.39093,0
6140,-1.55826,0.444194,2.39104,0
6160,-1.56072,0.443735,2.39086,0
6180,-1.56235,0.443833,2.39082,0
6200,-1.5644,0.444258,2.39103,0
6220,-1.56677,0.444469,2.39106,0
6230,-1.56968,0.444679,2.39076,0
6250,-1.57244,0.445351,2.39028,0
6270,-1.57504,0.44625,2.38998,0
6290,-1.57669,0.447036,2.39003,0
6310,-1.57739,0.447362,2.38999,0
6330,-1.57755,0.447427,2.39013,0
6350,-1.57792,0.447627,2.39003,0
6370,-1.57835,0.447982,2.39022,0
6390,-1.57963,0.44849,2.3903,0
6410,-1.58155,0.448701,2.39023,0
6430,-1.58362,0.448764,2.39005,0
6450,-1.58517,0.449061,2.38982,0
6470,-1.5862,0.449403,2.38923,0
6490,-1.58648,0.449739,2.38881,0
6510,-1.5866,0.450375,2.38805,0
6530,-1.58668,0.451144,2.38712,0
6550,-1.58758,0.452469,2.38628,0
6570,-1.58921,0.453462,2.38563,0
6590,-1.59115,0.453902,2.38518,0
6610,-1.5925,0.454454,2.38494,0
6640,-1.59309,0.456531,2.38479,0
6660,-1.59402,0.457367,2.3849,0
6680,-1.59577,0.45836,2.38476,0
6700,-1.59708,0.459047,2.38434,0
6720,-1.5976,0.459916,2.38402,0
6740,-1.59758,0.460859,2.38352,0
6760,-1.59678,0.462026,2.38243,0
6780,-1.5959,0.463776,2.3809,0
6800,-1.59514,0.465808,2.3794,0
6820,-1.59556,0.467601,2.37812,0
6840,-1.59708,0.468892,2.37713,0
6860,-1.59909,0.470351,2.37638,0
6880,-1.6007,0.471516,2.37629,0
6900,-1.60206,0.472215,2.37681,0
6920,-1.60332,0.472981,2.37753,0
6940,-1.60439,0.474455,2.37811,0
6960,-1.60598,0.476297,2.37838,0
6980,-1.60902,0.477768,2.37862,0
7000,-1.61319,0.478732,2.37856,0
7020,-1.61697,0.479174,2.37832,0
7040,-1.61902,0.479534,2.37793,0
7060,-1.61884,0.4801,2.3776,0
7080,-1.61741,0.480976,2.37762,0
7100,-1.61631,0.481795,2.3776,0
7120,-1.61757,0.482974,2.37728,0
7140,-1.62172,0.48471,2.37684,0
7160,-1.62728,0.485927,2.37646,0
7180,-1.63249,0.485751,2.37628,0
7200,-1.63393,0.484878,2.37628,0
7220,-1.63204,0.484587,2.37616,0
7240,-1.62783,0.484712,2.37583,0
7260,-1.62396,0.484704,2.37542,0
7280,-1.62242,0.484402,2.3748,0
7300,-1.62207,0.483611,2.37398,0
7320,-1.62206,0.483065,2.37345,0
7340,-1.62205,0.482682,2.37306,0
7360,-1.62172,0.482658,2.37302,0
7380,-1.62165,0.482457,2.37321,0
7400,-1.62224,0.482499,2.37378,0
7420,-1.62344,0.482834,2.37448,0
7430,-1.62448,0.483322,2.3753,0
7450,-1.62557,0.483484,2.376,0
7470,-1.62607,0.483083,2.37656,0
7490,-1.62588,0.482763,2.37686,0
7510,-1.62506,0.482506,2.37646,0
7530,-1.62382,0.482495,2.37588,0
7550,-1.62243,0.482824,2.37551,0
7570,-1.62217,0.483001,2.37528,0
7590,-1.62323,0.483068,2.37453,0
7610,-1.62414,0.483334,2.37378,0
7630,-1.62485,0.483972,2.37326,0
7650,-1.62533,0.484782,2.37331,0
7670,-1.62634,0.485276,2.37334,0
7690,-1.62769,0.485573,2.37315,0
7710,-1.62886,0.485859,2.37294,0
7730,-1.62962,0.486554,2.37269,0
7750,-1.6299,0.487401,2.37247,0
7770,-1.63063,0.488425,2.37234,0
7790,-1.63234,0.489358,2.37219,0
7810,-1.63454,0.49014,2.372,0
7830,-1.6358,0.490767,2.37179,0
7850,-1.63609,0.491557,2.37144,0
7870,-1.63559,0.492261,2.37121,0
7890,-1.63557,0.493309,2.37056,0
7910,-1.63597,0.494747,2.36989,0
7930,-1.63666,0.495656,2.36937,0
7950,-1.6382,0.495943,2.3686,0
7970,-1.63941,0.496205,2.36779,0
7990,-1.64001,0.49689,2.36752,0
8010,-1.64052,0.497809,2.36758,0
8030,-1.64117,0.499235,2.36791,0
8050,-1.64281,0.500607,2.36839,0
8070,-1.64461,0.50191,2.36882,0
8090,-1.64608,0.503214,2.36917,0
8110,-1.64747,0.504482,2.36904,0
8140,-1.65003,0.506363,2.36737,0
8160,-1.65102,0.507214,2.36667,0
8180,-1.65152,0.50758,2.36619,0
8200,-1.65138,0.50779,2.36578,0
8220,-1.65017,0.507831,2.36548,0
8240,-1.6492,0.50786,2.36474,0
8260,-1.64854,0.508329,2.36422,0
8280,-1.64865,0.508484,2.36429,0
8300,-1.64918,0.508852,2.36461,0
8320,-1.64911,0.508631,2.36565,0
8340,-1.64834,0.507769,2.36657,0
8360,-1.64688,0.506692,2.36729,0
8380,-1.64531,0.506015,2.36768,0
8400,-1.644,0.505798,2.36809,0
8420,-1.64319,0.505986,2.36901,0
8440,-1.64298,0.506081,2.37031,0
8460,-1.64305,0.505564,2.37169,0
8480,-1.64308,0.505072,2.37288,0
8500,-1.6427,0.505072,2.37409,0
8520,-1.64221,0.505143,2.37551,0
8540,-1.64155,0.505342,2.3771,0
8560,-1.64083,0.505506,2.37901,0
8580,-1.64043,0.505531,2.38083,0
8600,-1.64014,0.505677,2.38319,0
8620,-1.64039,0.505595,2.38559,0
8640,-1.64063,0.505266,2.38779,0
8660,-1.64027,0.505049,2.39021,0
8680,-1.63986,0.504996,2.39262,0
8700,-1.63893,0.504476,2.39505,0
8720,-1.63795,0.504036,2.39741,0
8740,-1.63678,0.503959,2.39978,0
8760,-1.63631,0.503622,2.40231,0
8780,-1.63623,0.503213,2.40502,0
8800,-1.63644,0.50286,2.40756,0
8820,-1.63667,0.502759,2.41032,0
8840,-1.63708,0.502679,2.41311,0
8860,-1.63764,0.502427,2.41582,0
8880,-1.63787,0.502001,2.4183,0
8900,-1.63787,0.50122,2.42077,0
8920,-1.6376,0.500659,2.42313,0
8940,-1.63722,0.499948,2.42543,0
8960,-1.63684,0.499209,2.42777,0
8980,-1.63642,0.498827,2.43021,0
9000,-1.63613,0.498484,2.43246,0
9020,-1.63629,0.498333,2.43481,0
9040,-1.63657,0.498258,2.4376,0
9060,-1.63665,0.498248,2.44073,0
9080,-1.63665,0.497902,2.44408,0
9100,-1.63627,0.497788,2.44741,0
9120,-1.63552,0.497493,2.4508,0
9140,-1.63476,0.497169,2.45423,0
9150,-1.6344,0.496974,2.45749,0
9170,-1.63398,0.496573,2.46028,0
9190,-1.63356,0.496004,2.46293,0
9210,-1.63326,0.495606,2.46492,0
9230,-1.63256,0.495126,2.46655,0
9250,-1.63201,0.494522,2.46821,0
9270,-1.63142,0.493913,2.46951,0
9290,-1.63105,0.493717,2.47094,0
9310,-1.63035,0.493674,2.47244,0
9330,-1.62977,0.493811,2.47394,0
9350,-1.62941,0.493784,2.47552,0
9370,-1.62922,0.493727,2.47701,0
9390,-1.62949,0.49373,2.47842,0
9410,-1.62983,0.493749,2.47999,0
9430,-1.63032,0.493784,2.48177,0
9450,-1.6296,0.493447,2.48391,0
9470,-1.62871,0.493138,2.48613,0
9490,-1.62816,0.492762,2.48836,0
9510,-1.62716,0.492186,2.4905,0
9530,-1.62667,0.491623,2.49278,0
9550,-1.62619,0.490954,2.49485,0
9560,-1.62622,0.490076,2.4968,0
9580,-1.6267,0.489349,2.49874,0
9600,-1.62723,0.488511,2.50014,0
9620,-1.62745,0.487784,2.50133,0
9640,-1.62639,0.487266,2.50271,0
9660,-1.62506,0.486209,2.50441,0
9680,-1.6236,0.48486,2.50637,0
9700,-1.62272,0.483696,2.50783,0
9720,-1.62272,0.482684,2.50841,0
9740,-1.62344,0.481774,2.50879,0
9760,-1.62445,0.480691,2.50945,0
9780,-1.62461,0.479183,2.51062,0
9800,-1.62377,0.477502,2.51214,0
9820,-1.62193,0.47652,2.51324,0
9840,-1.62029,0.476141,2.51392,0
9860,-1.6196,0.476115,2.51388,0
9880,-1.6195,0.475935,2.51387,0
9900,-1.62017,0.475451,2.51345,0
9920,-1.62032,0.474714,2.51279,0
9940,-1.61956,0.474143,2.51198,0
9960,-1.61795,0.473775,2.51134,0
9980,-1.61647,0.473021,2.51065,0
10000,-1.61587,0.472193,2.50968,0
10020,-1.61633,0.471386,2.50837,0
10040,-1.61663,0.47084,2.50724,0
10060,-1.61648,0.470586,2.50663,0
10080,-1.61613,0.469974,2.50601,0
10100,-1.61572,0.469549,2.50534,0
10120,-1.61575,0.469322,2.50476,0
10140,-1.616,0.468716,2.50401,0
10160,-1.61599,0.468125,2.50348,0
10180,-1.6151,0.467442,2.50309,0
10200,-1.6138,0.466944,2.5027,0
10220,-1.61223,0.466293,2.50237,0
10240,-1.61014,0.465898,2.50162,0
10260,-1.60752,0.465762,2.50042,0
10280,-1.60461,0.46608,2.49931,0
10300,-1.60171,0.466604,2.49833,0
10320,-1.60034,0.467539,2.49693,0
10340,-1.60023,0.469179,2.49552,0
10360,-1.6022,0.470945,2.49462,0
10380,-1.60584,0.472253,2.49342,0
10400,-1.61048,0.473169,2.4913,0
10420,-1.61372,0.474439,2.48918,0
10440,-1.6163,0.474803,2.48682,0
10460,-1.61764,0.474938,2.48382,0
10480,-1.61881,0.475704,2.48091,0
10500,-1.61977,0.477001,2.47819,0
10520,-1.62147,0.478394,2.47592,0
10540,-1.6232,0.479463,2.47383,0
10560,-1.62549,0.480574,2.4722,0
10580,-1.62753,0.481712,2.47061,0
10600,-1.63008,0.482718,2.46898,0
10620,-1.63196,0.483668,2.46787,0
10640,-1.63308,0.483863,2.46733,0
10660,-1.63308,0.483863,2.46733,0
10680,-1.63279,0.484182,2.46723,0
10700,-1.63263,0.484881,2.46725,0
10720,-1.63304,0.485632,2.46755,0
10740,-1.63435,0.486252,2.46811,0
10760,-1.63515,0.486143,2.46847,0
10780,-1.6347,0.48531,2.4684,0
10800,-1.6317,0.48428,2.46861,0
10820,-1.62648,0.483407,2.46913,0
10840,-1.62016,0.482037,2.46985,0
10860,-1.61321,0.479924,2.47034,0
10880,-1.60599,0.477506,2.47011,0
10900,-1.6004,0.476794,2.46972,0
10920,-1.59813,0.477201,2.46945,0
10940,-1.59915,0.47794,2.46865,0
10960,-1.6025,0.478555,2.46801,0
10980,-1.60559,0.478614,2.46755,0
11000,-1.6073,0.478416,2.46712,0
11020,-1.60673,0.478289,2.46677,0
11040,-1.60474,0.478425,2.46669,0
11060,-1.60346,0.478763,2.46646,0
11080,-1.60346,0.478763,2.46646,0
11100,-1.60478,0.479177,2.46641,0
11120,-1.60667,0.479248,2.46622,0
11130,-1.6086,0.479573,2.46596,0
11150,-1.60964,0.479621,2.46573,0
11170,-1.61019,0.479551,2.46531,0
11190,-1.61007,0.479509,2.46483,0
11210,-1.60922,0.479015,2.4643,0
11230,-1.60794,0.478301,2.46371,0
11250,-1.60555,0.477563,2.46315,0
11270,-1.60267,0.476743,2.46237,0
11290,-1.60085,0.47649,2.46261,0
11310,-1.59718,0.475249,2.46606,0
11330,-1.5757,0.467028,2.47282,0
11350,-1.53667,0.45452,2.47718,0
11370,-1.49348,0.437256,2.47999,0
11390,-1.44323,0.41775,2.48465,0
11410,-1.38853,0.391854,2.48826,0
11430,-1.3431,0.357489,2.48551,0
11450,-1.30726,0.320704,2.48266,0
11470,-1.26916,0.291621,2.49331,0
11490,-1.24289,0.248427,2.50916,0
11510,-1.22741,0.194433,2.51783,0
11530,-1.21773,0.136314,2.51898,0
11550,-1.20095,0.0811852,2.52531,0
11570,-1.17816,0.0312336,2.54276,0
11590,-1.15892,-0.0156539,2.56473,0
11610,-1.15075,-0.0609899,2.58365,0
11630,-1.15368,-0.0995937,2.59762,0
11650,-1.16139,-0.129013,2.60802,0
11670,-1.16948,-0.150216,2.61643,0
11690,-1.17714,-0.164712,2.62538,0
11710,-1.18025,-0.174055,2.63447,0
11730,-1.17677,-0.180963,2.64102,0
11750,-1.16939,-0.18682,2.64552,0
11770,-1.16238,-0.192858,2.64996,0
11790,-1.15558,-0.198884,2.65427,0
11810,-1.14989,-0.204288,2.65871,0
11830,-1.14444,-0.209251,2.66367,0
11850,-1.1386,-0.213592,2.66981,0
11870,-1.13138,-0.217476,2.67748,0
11890,-1.12292,-0.222101,2.68725,0
11910,-1.11553,-0.228573,2.69891,0
11930,-1.10799,-0.236696,2.71133,0
11950,-1.1023,-0.246163,2.72415,0
11970,-1.09815,-0.255704,2.73734,0
11990,-1.09572,-0.26422,2.75223,0
12010,-1.09398,-0.273066,2.76923,0
12030,-1.09322,-0.281575,2.78769,0
12050,-1.09295,-0.28989,2.80733,0
12070,-1.09463,-0.299157,2.82806,0
12080,-1.09816,-0.308453,2.84895,0
12100,-1.10201,-0.31657,2.86878,0
12110,-1.10581,-0.323839,2.88757,0
12130,-1.10981,-0.329474,2.9053,0
12150,-1.11383,-0.333872,2.92262,0
12170,-1.11744,-0.336821,2.93861,0
12190,-1.12015,-0.338756,2.95241,0
12210,-1.12173,-0.339693,2.96488,0
12230,-1.12306,-0.339435,2.97732,0
12250,-1.12375,-0.338845,2.98918,0
12270,-1.12425,-0.337636,2.99944,0
12290,-1.1264,-0.335807,3.00862,0
12310,-1.12969,-0.334529,3.01741,0
12330,-1.13341,-0.333293,3.026,0
12350,-1.13722,-0.331731,3.03394,0
12370,-1.14092,-0.330188,3.04131,0
12390,-1.14449,-0.328899,3.04733,0
12410,-1.14732,-0.326952,3.05166,0
12430,-1.15034,-0.324694,3.05537,0
12450,-1.15354,-0.32269,3.05895,0
12470,-1.15605,-0.320806,3.06193,0
12490,-1.15738,-0.318901,3.06399,0
12510,-1.15789,-0.317255,3.06506,0
12530,-1.15792,-0.315737,3.06512,0
12550,-1.15758,-0.314696,3.06529,0
12570,-1.1569,-0.313919,3.06499,0
12590,-1.15589,-0.313427,3.06439,0
12610,-1.15486,-0.313074,3.06358,0
12630,-1.15388,-0.312258,3.06306,0
12650,-1.15223,-0.31122,3.06248,0
12670,-1.1499,-0.310886,3.06181,0
12690,-1.14732,-0.311098,3.06116,0
12710,-1.14444,-0.311629,3.06039,0
12730,-1.1417,-0.312137,3.05946,0
12750,-1.13997,-0.312132,3.05864,0
12770,-1.13916,-0.311374,3.0585,0
12790,-1.13821,-0.310348,3.0583,0
12810,-1.13709,-0.309574,3.05811,0
12830,-1.13645,-0.3089,3.05789,0
12850,-1.13615,-0.308746,3.05806,0
12870,-1.13619,-0.308959,3.05819,0
12890,-1.13588,-0.308942,3.05815,0
12910,-1.1356,-0.308871,3.05821,0
12930,-1.13538,-0.30941,3.05867,0
12950,-1.13535,-0.310313,3.05909,0
12970,-1.13646,-0.31154,3.06016,0
12990,-1.13854,-0.313249,3.06182,0
13010,-1.14112,-0.315637,3.06457,0
13030,-1.14419,-0.317851,3.06861,0
13050,-1.14875,-0.32027,3.07376,0
13070,-1.15212,-0.323017,3.07838,0
13080,-1.15661,-0.323419,3.08253,0
13090,-1.16141,-0.326853,3.08726,0
13110,-1.16214,-0.331012,3.09276,0
13130,-1.16419,-0.330491,3.09867,0
13150,-1.16956,-0.329669,3.10609,0
13170,-1.17762,-0.333467,3.11329,0
13190,-1.18357,-0.337503,3.11726,0
13210,-1.19103,-0.339803,3.11747,0
13220,-1.19994,-0.340978,3.11613,0
13240,-1.20739,-0.342122,3.11588,0
13260,-1.21278,-0.345475,3.11532,0
13280,-1.21404,-0.347684,3.11673,0
13300,-1.21345,-0.344011,3.12104,0
13320,-1.21396,-0.339578,3.12621,0
13340,-1.21687,-0.335054,3.13322,0
13360,-1.22421,-0.330667,-3.14093,0
13380,-1.23269,-0.329055,-3.13446,0
13400,-1.23555,-0.329828,-3.13509,0
13420,-1.23621,-0.329569,-3.1391,0
13440,-1.23586,-0.328091,3.13842,0
13460,-1.23246,-0.325507,3.13058,0
13480,-1.22868,-0.322676,3.12388,0
13500,-1.22613,-0.324363,3.11996,0
13520,-1.22432,-0.328006,3.11574,0
13540,-1.22205,-0.330414,3.10845,0
13550,-1.21835,-0.33242,3.09972,0
13570,-1.21488,-0.336169,3.0915,0
13590,-1.2117,-0.341361,3.08252,0
13610,-1.20621,-0.348116,3.07135,0
13630,-1.19671,-0.356792,3.0607,0
13650,-1.18613,-0.366661,3.05153,0
13670,-1.17668,-0.377599,3.04151,0
13690,-1.166,-0.387835,3.03089,0
13710,-1.15632,-0.396221,3.02109,0
13730,-1.15158,-0.404609,3.01145,0
13750,-1.14512,-0.413267,3.00075,0
13760,-1.1355,-0.421504,2.99114,0
13780,-1.12664,-0.430235,2.98355,0
13800,-1.11779,-0.4396,2.97688,0
13820,-1.11004,-0.450446,2.97001,0
13840,-1.10265,-0.46282,2.96343,0
13860,-1.09431,-0.473853,2.95876,0
13880,-1.08657,-0.482782,2.95314,0
13900,-1.0789,-0.491763,2.94735,0
13920,-1.06993,-0.499393,2.94148,0
13940,-1.06412,-0.503651,2.93231,0
13960,-1.05752,-0.504535,2.92209,0
13980,-1.04903,-0.504707,2.91694,0
14000,-1.04147,-0.505044,2.91386,0
14020,-1.03145,-0.506156,2.90954,0
14040,-1.02236,-0.508811,2.90459,0
14060,-1.01789,-0.511362,2.89946,0
14080,-1.01282,-0.511414,2.89108,0
14100,-1.00371,-0.510009,2.88236,0
14120,-0.996542,-0.510651,2.87658,0
14140,-0.992931,-0.513853,2.87223,0
14160,-0.991053,-0.516592,2.86397,0
14180,-0.990924,-0.517832,2.85244,0
14200,-0.996637,-0.518915,2.84191,0
14220,-1.00423,-0.520782,2.83462,0
14240,-1.00919,-0.522209,2.8285,0
14260,-1.01331,-0.523643,2.82252,0
14280,-1.0213,-0.525389,2.81784,0
14300,-1.03122,-0.528612,2.81277,0
14320,-1.03766,-0.53047,2.80751,0
14340,-1.04275,-0.530004,2.80208,0
14360,-1.04615,-0.527938,2.79517,0
14380,-1.0484,-0.525694,2.78488,0
14400,-1.05086,-0.520825,2.77407,0
14420,-1.05383,-0.514367,2.76643,0
14430,-1.05263,-0.506915,2.76262,0
14450,-1.05751,-0.502425,2.76013,0
14470,-1.06619,-0.497525,2.75729,0
14490,-1.07654,-0.48959,2.75263,0
14510,-1.08494,-0.480584,2.7426,0
14530,-1.08754,-0.473223,2.7313,0
14550,-1.08907,-0.467334,2.72379,0
14570,-1.09431,-0.456681,2.71778,0
14590,-1.10446,-0.439164,2.71415,0
14610,-1.11815,-0.421022,2.71128,0
14630,-1.13301,-0.402819,2.70655,0
14650,-1.14374,-0.385622,2.69852,0
14670,-1.14857,-0.366741,2.68795,0
14690,-1.15055,-0.352166,2.6761,0
14710,-1.15099,-0.341082,2.66317,0
14720,-1.15176,-0.331265,2.64732,0
14740,-1.15049,-0.321564,2.63003,0
14760,-1.14804,-0.310984,2.6153,0
14780,-1.14542,-0.302768,2.60248,0
14800,-1.14231,-0.295489,2.58942,0
14820,-1.13949,-0.2894,2.57557,0
14840,-1.13396,-0.28188,2.55912,0
14860,-1.12441,-0.273061,2.54032,0
14880,-1.11297,-0.261893,2.52379,0
14900,-1.10011,-0.251239,2.51153,0
14920,-1.08965,-0.239875,2.5038,0
14940,-1.08164,-0.22823,2.49638,0
14960,-1.07305,-0.219724,2.48749,0
14980,-1.06289,-0.213163,2.48109,0
15000,-1.05505,-0.207257,2.47673,0
15020,-1.04767,-0.201144,2.47348,0
15040,-1.03999,-0.195377,2.47086,0
15060,-1.03602,-0.189503,2.4702,0
15080,-1.03646,-0.183397,2.47068,0
15100,-1.0367,-0.176836,2.47247,0
15120,-1.03349,-0.17077,2.4754,0
15140,-1.02447,-0.163849,2.47753,0
15160,-1.01356,-0.156134,2.47887,0
15180,-1.0024,-0.14943,2.48265,0
15200,-0.996923,-0.145302,2.48815,0
15220,-0.996867,-0.142147,2.49323,0
15260,-0.998361,-0.134731,2.50066,0
15280,-0.997974,-0.131436,2.50244,0
15300,-0.999105,-0.128562,2.50389,0
15340,-1.00235,-0.12543,2.50919,0
15360,-1.00144,-0.123657,2.51155,0
15380,-0.998115,-0.122269,2.51063,0
15400,-0.994871,-0.121168,2.50818,0
15420,-0.994009,-0.120143,2.50687,0
15440,-0.994422,-0.117356,2.50435,0
15460,-0.99378,-0.114589,2.50054,0
15480,-0.992136,-0.113906,2.49756,0
15500,-0.990233,-0.115236,2.49521,0
15520,-0.989709,-0.117029,2.49269,0
15540,-0.991501,-0.120014,2.49008,0
15560,-0.993526,-0.12362,2.48856,0
15580,-0.995652,-0.127813,2.48741,0
15600,-0.99567,-0.13259,2.48484,0
15620,-0.994261,-0.136373,2.4808,0
15640,-0.994614,-0.139429,2.47608,0
15660,-0.996211,-0.143002,2.47208,0
15680,-0.997372,-0.146942,2.46718,0
15700,-0.996427,-0.150038,2.46049,0
15720,-0.995099,-0.151033,2.4526,0
15740,-0.993727,-0.151369,2.44455,0
15760,-0.989762,-0.151513,2.43729,0
15780,-0.985397,-0.150085,2.43012,0
15800,-0.979875,-0.146682,2.42352,0
15820,-0.974865,-0.142895,2.41797,0
15840,-0.971383,-0.139881,2.41335,0
15860,-0.968506,-0.134764,2.40905,0
15880,-0.964396,-0.12819,2.40488,0
15900,-0.958667,-0.122235,2.402,0
15920,-0.95222,-0.116717,2.4013,0
15940,-0.949423,-0.109835,2.40084,0
15960,-0.949958,-0.10284,2.40042,0
15980,-0.953018,-0.0960822,2.39956,0
16000,-0.952512,-0.0899857,2.39829,0
16020,-0.949046,-0.0844072,2.39725,0
16040,-0.946742,-0.0803401,2.39629,0
16060,-0.946988,-0.0786457,2.39578,0
16080,-0.949319,-0.0775729,2.39572,0
16100,-0.953796,-0.0762808,2.39579,0
16120,-0.957778,-0.0754727,2.39546,0
16140,-0.957957,-0.0729696,2.39365,0
16160,-0.956171,-0.069043,2.38995,0
16180,-0.957166,-0.0645115,2.38486,0
16200,-0.958836,-0.0621732,2.38058,0
16220,-0.957991,-0.0598985,2.37916,0
16240,-0.954067,-0.056911,2.37923,0
16260,-0.947186,-0.0538757,2.37711,0
16280,-0.940403,-0.050416,2.37524,0
16300,-0.936512,-0.0480293,2.37559,0
16320,-0.93382,-0.0465603,2.37661,0
16340,-0.930547,-0.0450611,2.37748,0
16360,-0.927275,-0.0434944,2.37936,0
16380,-0.925191,-0.0409499,2.38239,0
16400,-0.923477,-0.0380176,2.38595,0
16410,-0.922979,-0.0371973,2.38982,0
16430,-0.920262,-0.0375625,2.3945,0
16450,-0.917605,-0.0387892,2.39868,0
16470,-0.915497,-0.0390936,2.40074,0
16490,-0.912221,-0.0375422,2.40181,0
16510,-0.908813,-0.0369081,2.40363,0
16530,-0.906786,-0.0377765,2.40495,0
16550,-0.906254,-0.0407253,2.40502,0
16570,-0.906356,-0.0436408,2.40565,0
16590,-0.905581,-0.0456968,2.40554,0
16610,-0.905235,-0.0479344,2.40636,0
16630,-0.905728,-0.0509468,2.40797,0
16650,-0.909952,-0.0555132,2.40822,0
16670,-0.915357,-0.0610247,2.40761,0
16690,-0.922532,-0.0673136,2.40682,0
16710,-0.933236,-0.0729632,2.40899,0
16730,-0.945134,-0.0740041,2.41327,0
16750,-0.955507,-0.0690093,2.41729,0
16770,-0.968317,-0.0592964,2.42381,0
16790,-0.98809,-0.0448057,2.43077,0
16810,-1.01216,-0.0244043,2.43837,0
16830,-1.0381,-0.00101271,2.44244,0
16850,-1.0614,0.0195001,2.44284,0
16870,-1.08026,0.0375124,2.44242,0
16890,-1.09035,0.0548142,2.43953,0
16910,-1.09178,0.0723463,2.43255,0
16930,-1.08823,0.0873096,2.42303,0
16950,-1.08565,0.0974945,2.41026,0
16970,-1.08564,0.103367,2.39584,0
17000,-1.0985,0.105266,2.35329,0
17020,-1.10064,0.10506,2.33641,0
17040,-1.09622,0.109347,2.3194,0
17060,-1.08774,0.116784,2.30246,0
17080,-1.07963,0.126741,2.29055,0
17100,-1.07491,0.141483,2.28274,0
17120,-1.07277,0.155069,2.27417,0
17140,-1.06547,0.163683,2.2643,0
17160,-1.04895,0.170438,2.25985,0
17180,-1.02574,0.175088,2.26293,0
17200,-1.01093,0.173829,2.26501,0
17220,-1.00557,0.16998,2.26469,0
17240,-0.998066,0.167187,2.26584,0
17260,-0.992048,0.16182,2.2687,0
17280,-0.989552,0.155702,2.2757,0
17300,-0.99041,0.149908,2.28821,0
17320,-0.994041,0.139484,2.29893,0
17340,-0.99948,0.12396,2.30617,0
17360,-1.00326,0.107815,2.31308,0
17380,-1.00426,0.0908892,2.322,0
17400,-1.00741,0.0724463,2.33346,0
17420,-1.01509,0.0482267,2.3458,0
17440,-1.02476,0.0165104,2.35721,0
17460,-1.03777,-0.0175644,2.36831,0
17480,-1.05386,-0.0520864,2.38126,0
17500,-1.07493,-0.0880315,2.39857,0
17520,-1.09838,-0.123621,2.418,0
17540,-1.12401,-0.158777,2.43402,0
17560,-1.15041,-0.191316,2.44658,0
17580,-1.17629,-0.220159,2.46123,0
17600,-1.20449,-0.243838,2.4781,0
17620,-1.23601,-0.265049,2.49505,0
17640,-1.26775,-0.282063,2.50922,0
17660,-1.29713,-0.294356,2.52296,0
17680,-1.32845,-0.306172,2.53379,0
17700,-1.36008,-0.316249,2.54069,0
17720,-1.38743,-0.322919,2.54487,0
17740,-1.4085,-0.329962,2.54768,0
17760,-1.42542,-0.338395,2.54975,0
17780,-1.43655,-0.344286,2.55323,0
17800,-1.44966,-0.347423,2.55646,0
17820,-1.46438,-0.349615,2.55891,0
17840,-1.48009,-0.350609,2.55991,0
17860,-1.4951,-0.350033,2.56044,0
17880,-1.50778,-0.349436,2.56093,0
17900,-1.51714,-0.346826,2.56254,0
17920,-1.5242,-0.343412,2.56563,0
17940,-1.5325,-0.33968,2.56974,0
17960,-1.54382,-0.335392,2.57469,0
17980,-1.5553,-0.328046,2.58161,0
18000,-1.56663,-0.317175,2.59028,0
18020,-1.57969,-0.304576,2.59879,0
18040,-1.59262,-0.29288,2.60588,0
18060,-1.60373,-0.282561,2.61246,0
18080,-1.61544,-0.272778,2.61836,0
18100,-1.62662,-0.263693,2.62337,0
18120,-1.63821,-0.254776,2.62826,0
18140,-1.65134,-0.247405,2.63443,0
18160,-1.66594,-0.242415,2.63959,0
18180,-1.67798,-0.237975,2.64243,0
18200,-1.68929,-0.233114,2.6455,0
18220,-1.70053,-0.228728,2.64895,0
18240,-1.70868,-0.225213,2.65143,0
18260,-1.71397,-0.222504,2.65273,0
18280,-1.71886,-0.218619,2.65488,0
18300,-1.72505,-0.213477,2.65848,0
18320,-1.73192,-0.208255,2.66171,0
18340,-1.73561,-0.205062,2.66346,0
18360,-1.73755,-0.202848,2.66529,0
18380,-1.73855,-0.200126,2.66712,0
18400,-1.7377,-0.196112,2.67009,0
18420,-1.73777,-0.189754,2.67294,0
18440,-1.73975,-0.183769,2.67504,0
18460,-1.74166,-0.180122,2.67594,0
18480,-1.7424,-0.177362,2.67509,0
18500,-1.7436,-0.17381,2.67356,0
18520,-1.74288,-0.169319,2.67133,0
18540,-1.74241,-0.167159,2.67114,0
18560,-1.74239,-0.166568,2.67164,0
18580,-1.74031,-0.166189,2.67038,0
18600,-1.73942,-0.166977,2.6693,0
18620,-1.7394,-0.168679,2.66916,0
18640,-1.73874,-0.16991,2.66953,0
18660,-1.73808,-0.169981,2.66979,0
18680,-1.73766,-0.168237,2.67016,0
18700,-1.73904,-0.16514,2.67142,0
18720,-1.74254,-0.162655,2.67271,0
18740,-1.74665,-0.160347,2.67288,0
18760,-1.74927,-0.157803,2.67267,0
18780,-1.74985,-0.154786,2.67297,0
18800,-1.74935,-0.152886,2.67295,0
18820,-1.74886,-0.152153,2.67199,0
18840,-1.74789,-0.1505,2.6702,0
18860,-1.74836,-0.14789,2.66898,0
18880,-1.74823,-0.147605,2.66885,0
18900,-1.74717,-0.148732,2.66923,0
18920,-1.74416,-0.149658,2.6686,0
18940,-1.74133,-0.151198,2.66766,0
18960,-1.73995,-0.153329,2.6679,0
18980,-1.73952,-0.156442,2.66954,0
19000,-1.74049,-0.16163,2.67172,0
19020,-1.74074,-0.166653,2.67382,0
19040,-1.73972,-0.170449,2.67519,0
19060,-1.73794,-0.174252,2.67647,0
19080,-1.73595,-0.178295,2.67668,0
19100,-1.73439,-0.181804,2.67615,0
19120,-1.73505,-0.185993,2.67603,0
19140,-1.73681,-0.191138,2.67701,0
19160,-1.73844,-0.1975,2.67803,0
19180,-1.73733,-0.203489,2.67794,0
19200,-1.73536,-0.208848,2.67752,0
19220,-1.73561,-0.215997,2.67727,0
19240,-1.73671,-0.223867,2.6764,0
19260,-1.73794,-0.231942,2.67728,0
19280,-1.74038,-0.239855,2.67976,0
19300,-1.7443,-0.246407,2.68326,0
19320,-1.74862,-0.252825,2.68854,0
19340,-1.75054,-0.25719,2.69108,0
19360,-1.75154,-0.25714,2.69126,0
19380,-1.75516,-0.255713,2.69103,0
19400,-1.75489,-0.251229,2.68987,0
19420,-1.75243,-0.244681,2.68808,0
19440,-1.75062,-0.240219,2.6866,0
19460,-1.74959,-0.237452,2.68445,0
19480,-1.74772,-0.235573,2.68209,0
19500,-1.74573,-0.236997,2.68105,0
19520,-1.74426,-0.240775,2.68161,0
19540,-1.745,-0.243664,2.68293,0
19560,-1.74808,-0.247936,2.68415,0
19580,-1.74784,-0.254488,2.68349,0
19600,-1.74794,-0.261066,2.68329,0
19620,-1.74839,-0.264695,2.68532,0
19640,-1.74767,-0.264142,2.68623,0
19660,-1.75022,-0.262693,2.68632,0
19680,-1.75369,-0.260042,2.68785,0
19700,-1.75737,-0.25297,2.69002,0
19720,-1.76083,-0.242887,2.69152,0
19740,-1.76188,-0.23169,2.69236,0
19760,-1.76308,-0.221568,2.69204,0
19780,-1.76469,-0.210935,2.69014,0
19790,-1.76447,-0.199197,2.68716,0
19810,-1.76313,-0.187816,2.68408,0
19830,-1.75933,-0.177808,2.68091,0
19850,-1.75388,-0.17032,2.67779,0
19870,-1.7484,-0.165232,2.67458,0
19890,-1.74521,-0.161973,2.67191,0
19910,-1.7436,-0.160714,2.66994,0
19930,-1.742,-0.160597,2.66814,0
19950,-1.73901,-0.160968,2.66685,0
19970,-1.73578,-0.162109,2.66623,0
19990,-1.73343,-0.163999,2.66559,0
20010,-1.73312,-0.16559,2.66497,0
20030,-1.73425,-0.166338,2.6648,0
20050,-1.73674,-0.166859,2.66491,0
20070,-1.73833,-0.168424,2.66483,0
20090,-1.73936,-0.170716,2.66498,0
20110,-1.73991,-0.173023,2.66559,0
20130,-1.74036,-0.175541,2.66651,0
20150,-1.74133,-0.177577,2.6673,0
20170,-1.74239,-0.179203,2.66787,0
20190,-1.74384,-0.180834,2.66852,0
20210,-1.74533,-0.181815,2.66944,0
20230,-1.74621,-0.181782,2.67016,0
20250,-1.74677,-0.18133,2.67069,0
20270,-1.74701,-0.180647,2.67089,0
20290,-1.74731,-0.180013,2.67085,0
20310,-1.74745,-0.179746,2.67032,0
20330,-1.74699,-0.179132,2.67004,0
20350,-1.74623,-0.178468,2.67025,0
20370,-1.74399,-0.177951,2.67071,0
20390,-1.74174,-0.177732,2.67008,0
20410,-1.73889,-0.177259,2.66963,2000
20430,-1.7368,-0.175976,2.67095,0
20450,-1.73472,-0.174526,2.67141,0
20470,-1.73196,-0.174388,2.67127,0
20490,-1.73154,-0.176655,2.67081,0
20510,-1.72891,-0.177667,2.67031,0
20530,-1.72605,-0.178019,2.67037,0
20550,-1.72301,-0.179089,2.67098,0
20570,-1.72171,-0.180878,2.67133,0
20590,-1.72168,-0.181047,2.67134,0
20610,-1.72307,-0.181593,2.67195,0
20630,-1.72447,-0.182046,2.67263,0
20650,-1.72537,-0.182529,2.67276,0
20670,-1.72599,-0.183274,2.67215,0
20690,-1.7268,-0.18265,2.67146,0
20710,-1.72854,-0.181288,2.67067,0
20730,-1.7308,-0.180021,2.67016,0
20750,-1.73347,-0.178204,2.66907,0
20770,-1.73494,-0.176741,2.66769,0
20790,-1.73625,-0.176011,2.66671,0
20810,-1.73894,-0.175722,2.66646,0
20830,-1.7433,-0.177715,2.66634,0
20850,-1.74651,-0.181237,2.66603,0
20870,-1.74677,-0.184386,2.66557,0
20890,-1.74567,-0.188819,2.66505,0
20910,-1.74519,-0.193801,2.66422,0
20930,-1.74621,-0.197215,2.66392,0
20950,-1.74924,-0.200743,2.66476,0
20970,-1.75314,-0.205748,2.66556,0
20990,-1.75649,-0.21091,2.6661,0
21010,-1.75873,-0.214959,2.66691,0
21030,-1.76037,-0.220056,2.66813,0
21050,-1.76105,-0.226696,2.66939,0
21070,-1.76004,-0.233964,2.67085,0
21090,-1.75801,-0.24104,2.67251,0
21110,-1.75827,-0.246593,2.67526,0
21130,-1.76069,-0.251652,2.67901,0
21150,-1.76367,-0.256163,2.68243,0
21170,-1.76554,-0.258889,2.68502,0
21190,-1.76732,-0.259982,2.68756,0
21210,-1.76879,-0.260872,2.68967,0
21230,-1.77009,-0.260892,2.69056,0
21250,-1.77098,-0.260591,2.69041,0
21270,-1.77159,-0.261031,2.68884,0
21290,-1.77217,-0.262076,2.68606,0
21310,-1.7718,-0.262852,2.68149,0
21330,-1.77209,-0.26345,2.67681,0
21350,-1.77324,-0.265441,2.6714,0
21370,-1.77343,-0.268865,2.66495,0
21390,-1.77368,-0.272831,2.65667,0
21410,-1.77378,-0.277425,2.64558,0
21430,-1.77573,-0.283476,2.62975,0
21450,-1.77409,-0.290626,2.61929,0
21470,-1.77231,-0.296761,2.61006,0
21490,-1.77249,-0.303129,2.60067,0
21510,-1.77246,-0.309527,2.59021,0
21530,-1.77075,-0.315296,2.57888,0
21550,-1.76814,-0.321009,2.56795,0
21570,-1.7674,-0.327296,2.55711,0
21590,-1.76784,-0.338175,2.53487,0
21610,-1.76681,-0.344146,2.52298,0
21630,-1.76603,-0.348553,2.50996,0
21660,-1.76203,-0.360896,2.46292,0
21680,-1.76292,-0.366126,2.44519,0
21690,-1.76336,-0.371644,2.42626,0
21710,-1.76313,-0.377622,2.40678,0
21730,-1.76269,-0.385281,2.38675,0
21750,-1.76256,-0.39473,2.3659,0
21770,-1.76325,-0.404899,2.34472,0
21790,-1.76352,-0.415002,2.32315,0
21810,-1.7631,-0.426099,2.302,0
21830,-1.76242,-0.438191,2.28128,0
21850,-1.76257,-0.450612,2.26167,0
21870,-1.76341,-0.462653,2.24396,0
21890,-1.76433,-0.473726,2.22804,0
21910,-1.76437,-0.484716,2.21323,0
21930,-1.76406,-0.495496,2.1982,0
21960,-1.76454,-0.509663,2.17074,0
21970,-1.76264,-0.512045,2.15773,0
21990,-1.76,-0.512673,2.14573,0
22010,-1.75653,-0.511652,2.13485,0
22030,-1.75463,-0.509637,2.12544,0
22050,-1.75449,-0.507672,2.11705,0
22070,-1.75391,-0.504152,2.10901,0
22090,-1.75411,-0.498164,2.1017,0
22110,-1.75307,-0.490765,2.09633,0
22130,-1.75178,-0.484403,2.09456,0
22150,-1.75152,-0.478537,2.09821,0
22170,-1.75273,-0.473885,2.09896,0
22190,-1.75154,-0.466967,2.09503,0
22210,-1.74717,-0.460427,2.09044,0
22230,-1.7436,-0.456932,2.08746,0
22250,-1.74131,-0.454022,2.08476,0
22270,-1.74084,-0.449235,2.08253,0
22290,-1.74037,-0.444308,2.08094,0
22310,-1.73852,-0.441587,2.0799,0
22330,-1.73495,-0.44011,2.0792,0
22350,-1.7319,-0.437785,2.07962,0
22370,-1.73005,-0.435067,2.08151,0
22390,-1.7296,-0.433242,2.08459,0
22410,-1.7301,-0.432055,2.08835,0
22430,-1.72951,-0.429973,2.09186,0
22450,-1.72757,-0.427924,2.0954,0
22470,-1.7252,-0.425814,2.09943,0
22490,-1.72364,-0.423009,2.10438,0
22510,-1.7228,-0.41918,2.11115,0
22530,-1.72279,-0.414553,2.11992,0
22550,-1.72233,-0.410521,2.12969,0
22570,-1.72237,-0.407076,2.14064,0
22590,-1.72283,-0.403457,2.15295,0
22610,-1.72323,-0.399778,2.16662,0
22630,-1.72388,-0.396611,2.18221,0
22650,-1.7236,-0.394471,2.19941,0
22670,-1.72369,-0.392832,2.21744,0
22690,-1.72454,-0.390369,2.23642,0
22710,-1.72596,-0.387849,2.25631,0
22730,-1.72762,-0.385649,2.27642,0
22750,-1.72894,-0.383136,2.29698,0
22770,-1.73088,-0.380187,2.31797,0
22790,-1.73444,-0.376365,2.33944,0
22810,-1.73934,-0.371632,2.36073,0
22830,-1.74445,-0.366444,2.38279,0
22850,-1.74962,-0.36193,2.40545,0
22870,-1.75472,-0.357733,2.42797,0
22890,-1.75944,-0.354253,2.4489,0
22910,-1.76374,-0.351744,2.46897,0
22930,-1.76795,-0.350539,2.48852,0
22950,-1.77216,-0.349459,2.507,0
22970,-1.77613,-0.34881,2.52428,0
22990,-1.78121,-0.349975,2.54141,0
23010,-1.78675,-0.352433,2.55779,0
23030,-1.7905,-0.354098,2.57236,0
23050,-1.79373,-0.354958,2.58613,0
23070,-1.79831,-0.358233,2.59966,0
23090,-1.8027,-0.362681,2.61258,0
23110,-1.80574,-0.366343,2.62429,0
23130,-1.80893,-0.369236,2.6358,0
23150,-1.81286,-0.372658,2.64786,0
23170,-1.81731,-0.377348,2.66048,0
23190,-1.82143,-0.383277,2.67197,0
23210,-1.82473,-0.388589,2.68241,0
23230,-1.82853,-0.391954,2.69315,0
23250,-1.83396,-0.395077,2.70475,0
23270,-1.83988,-0.399964,2.71549,0
23290,-1.84411,-0.404823,2.7248,0
23310,-1.84695,-0.407237,2.73369,0
23330,-1.85075,-0.409179,2.74277,0
23350,-1.85529,-0.413203,2.75111,0
23370,-1.85828,-0.417692,2.75689,0
23390,-1.85877,-0.42028,2.76153,0
23410,-1.86046,-0.425124,2.76562,0
23430,-1.86277,-0.432846,2.76675,0
23450,-1.86273,-0.439146,2.76345,0
23470,-1.8617,-0.444596,2.75879,0
23490,-1.86344,-0.453685,2.75355,0
23510,-1.86526,-0.464094,2.74461,0
23530,-1.8642,-0.471854,2.73242,0
23550,-1.8644,-0.480116,2.72031,0
23570,-1.8671,-0.491546,2.70775,0
23590,-1.86778,-0.502915,2.69235,0
23610,-1.86675,-0.513004,2.67601,0
23630,-1.86774,-0.524316,2.66083,0
23650,-1.86973,-0.536737,2.64567,0
23670,-1.8714,-0.549469,2.63044,0
23690,-1.87261,-0.561802,2.61561,0
23710,-1.87436,-0.574526,2.60155,0
23730,-1.87536,-0.587645,2.5868,0
23750,-1.87622,-0.601168,2.57257,0
23770,-1.87858,-0.614867,2.55949,0
23790,-1.88005,-0.62828,2.546,0
23810,-1.88123,-0.641442,2.53126,0
23830,-1.88131,-0.653658,2.51553,0
23850,-1.88204,-0.664679,2.50055,0
23870,-1.8828,-0.67354,2.48605,0
23890,-1.88163,-0.68153,2.47059,0
23910,-1.87952,-0.689485,2.45416,0
23930,-1.87754,-0.695977,2.43778,0
23950,-1.8753,-0.700479,2.42168,0
23970,-1.87275,-0.704563,2.40598,0
23990,-1.87048,-0.708284,2.39066,0
24010,-1.86778,-0.710338,2.37544,0
24030,-1.86413,-0.711732,2.35937,0
24050,-1.85949,-0.713497,2.34316,0
24070,-1.85518,-0.715477,2.32761,0
24090,-1.85063,-0.716361,2.31174,0
24110,-1.84425,-0.716765,2.29432,0
24130,-1.83684,-0.716784,2.2767,0
24150,-1.82998,-0.716855,2.25992,0
24170,-1.82252,-0.717381,2.24272,0
24190,-1.81363,-0.71764,2.2247,0
24210,-1.80337,-0.717122,2.20585,0
24230,-1.79205,-0.716254,2.18718,0
24250,-1.78133,-0.715481,2.16995,0
24270,-1.77172,-0.715602,2.15414,0
24290,-1.76247,-0.715596,2.13851,0
24310,-1.75239,-0.71354,2.12215,0
24330,-1.7423,-0.709759,2.10706,0
24350,-1.73228,-0.706931,2.09197,0
24370,-1.72359,-0.704181,2.0779,0
24390,-1.71524,-0.699455,2.06522,0
24410,-1.70836,-0.693295,2.0541,0
24430,-1.70296,-0.687681,2.04403,0
24450,-1.69829,-0.681729,2.03507,0
24470,-1.69367,-0.674365,2.02727,0
24490,-1.68988,-0.666526,2.02102,0
24510,-1.68744,-0.659794,2.01609,0
24530,-1.68523,-0.652773,2.01231,0
24550,-1.68311,-0.645341,2.00945,0
24570,-1.68109,-0.638603,2.00739,0
24590,-1.67895,-0.632764,2.00564,0
24610,-1.67649,-0.626295,2.0051,0
24630,-1.67312,-0.619402,2.00515,0
24650,-1.67,-0.61345,2.0064,0
24670,-1.66886,-0.608395,2.00838,0
24690,-1.66801,-0.602831,2.0102,0
24710,-1.66669,-0.596359,2.01195,0
24730,-1.66583,-0.589283,2.01444,0
24750,-1.66559,-0.582883,2.01758,0
24770,-1.66608,-0.57648,2.02148,0
24790,-1.66741,-0.569853,2.02555,0
24810,-1.66842,-0.563261,2.02964,0
24830,-1.66982,-0.55712,2.03427,0
24850,-1.67122,-0.551816,2.03942,0
24870,-1.67218,-0.546741,2.04472,0
24890,-1.6735,-0.541808,2.05014,0
24910,-1.67519,-0.536794,2.0555,0
24930,-1.67695,-0.531985,2.06111,0
24950,-1.67805,-0.527792,2.06644,0
24970,-1.67959,-0.523252,2.07224,0
24990,-1.68142,-0.518819,2.07897,0
25010,-1.68333,-0.515077,2.08612,0
25030,-1.68591,-0.5115,2.09341,0
25050,-1.68907,-0.507855,2.1012,0
25070,-1.69217,-0.503913,2.10929,0
25080,-1.69566,-0.499806,2.11832,0
25100,-1.69876,-0.495761,2.12752,0
25120,-1.70254,-0.492061,2.13732,0
25140,-1.70645,-0.488157,2.14752,0
25160,-1.71065,-0.484553,2.158,0
25180,-1.71446,-0.481436,2.16846,0
25200,-1.71765,-0.478208,2.17926,0
25220,-1.72001,-0.474963,2.19091,0
25240,-1.72321,-0.472554,2.2031,0
25260,-1.72671,-0.470663,2.21493,0
25280,-1.73042,-0.468071,2.22678,0
25300,-1.73412,-0.464942,2.23975,0
25320,-1.73799,-0.462773,2.25372,0
25340,-1.74237,-0.461782,2.2678,0
25360,-1.74667,-0.460148,2.28136,0
25380,-1.75138,-0.457518,2.29589,0
25400,-1.75643,-0.456035,2.31113,0
25420,-1.76131,-0.455152,2.32614,0
25440,-1.76587,-0.453734,2.34047,0
25460,-1.76994,-0.451733,2.35459,0
25480,-1.77462,-0.45002,2.36842,0
25500,-1.77952,-0.448684,2.3816,0
25520,-1.78427,-0.446835,2.39493,0
25540,-1.78849,-0.445754,2.40838,0
25560,-1.79283,-0.445469,2.4222,0
25580,-1.79635,-0.445501,2.43495,0
25600,-1.79781,-0.445158,2.44686,0
25620,-1.79856,-0.445533,2.459,0
25640,-1.79984,-0.446377,2.47216,0
25660,-1.80143,-0.448636,2.48532,0
25680,-1.80297,-0.45092,2.4982,0
25700,-1.80279,-0.453556,2.5099,0
25720,-1.8035,-0.456913,2.52241,0
25740,-1.80525,-0.46128,2.5353,0
25760,-1.80553,-0.466777,2.54691,0
25780,-1.80531,-0.472857,2.55847,0
25800,-1.80551,-0.479502,2.57021,0
25820,-1.80649,-0.486718,2.58164,0
25840,-1.80776,-0.494213,2.59251,0
25860,-1.80925,-0.501085,2.60305,0
25880,-1.81275,-0.507866,2.61422,0
25900,-1.81724,-0.515104,2.62484,0
25920,-1.81805,-0.521253,2.63341,0
25940,-1.8187,-0.527361,2.64247,0
25960,-1.82239,-0.535051,2.65346,0
25980,-1.82592,-0.543208,2.66448,0
26000,-1.8278,-0.551264,2.67459,0
26020,-1.82847,-0.560087,2.68362,0
26040,-1.82915,-0.569279,2.69273,0
26060,-1.82744,-0.578493,2.70001,0
26080,-1.82413,-0.588238,2.70581,0
26100,-1.82045,-0.599022,2.70963,0
26120,-1.81637,-0.608735,2.71194,0
26140,-1.81241,-0.61757,2.71323,0
26160,-1.81108,-0.628727,2.71368,0
26180,-1.80925,-0.642267,2.71133,0
26200,-1.80398,-0.653548,2.70661,0
26220,-1.80008,-0.664376,2.70219,0
26240,-1.79804,-0.678075,2.69705,0
26260,-1.79568,-0.692985,2.69047,0
26280,-1.79096,-0.707193,2.68232,0
26300,-1.78711,-0.721139,2.67466,0
26320,-1.78675,-0.734917,2.66812,0
26340,-1.78538,-0.749916,2.65946,0
26360,-1.78282,-0.765291,2.6507,0
26380,-1.77983,-0.779871,2.64157,0
26400,-1.77779,-0.793646,2.632,0
26420,-1.77571,-0.807624,2.62117,0
26440,-1.77207,-0.821137,2.60927,0
26460,-1.76722,-0.834134,2.59575,0
26480,-1.76307,-0.846508,2.58144,0
26500,-1.75697,-0.858545,2.56507,0
26520,-1.75046,-0.870155,2.54934,0
26540,-1.74431,-0.881508,2.53379,0
26560,-1.73853,-0.891857,2.51774,0
26580,-1.73132,-0.900924,2.49984,0
26600,-1.72346,-0.910263,2.48195,0
26620,-1.71525,-0.918451,2.46387,0
26640,-1.70715,-0.925617,2.44543,0
26660,-1.69811,-0.931816,2.42599,0
26680,-1.68803,-0.937673,2.40645,0
26700,-1.67663,-0.94293,2.38638,0
26720,-1.6637,-0.947399,2.36424,0
26740,-1.65001,-0.950968,2.34202,0
26760,-1.63695,-0.954335,2.32097,0
26780,-1.62286,-0.95633,2.2996,0
26800,-1.60926,-0.957355,2.27825,0
26820,-1.59477,-0.956656,2.25669,0
26840,-1.58015,-0.954962,2.23574,0
26860,-1.56606,-0.952321,2.21544,0
26880,-1.55255,-0.948689,2.1962,0
26900,-1.53851,-0.944065,2.17653,0
26920,-1.52552,-0.93792,2.15779,0
26940,-1.51246,-0.930954,2.14009,0
26960,-1.49933,-0.923117,2.12353,0
26980,-1.48632,-0.915621,2.10742,0
27000,-1.47482,-0.908118,2.09263,0
27020,-1.46561,-0.900618,2.07991,0
27040,-1.45643,-0.892786,2.06806,0
27050,-1.44753,-0.884685,2.05759,0
27070,-1.43978,-0.87706,2.04907,0
27090,-1.43222,-0.870508,2.041,0
27110,-1.42631,-0.864003,2.03478,0
27130,-1.42227,-0.857524,2.03081,0
27150,-1.41966,-0.851715,2.02819,0
27170,-1.41713,-0.846296,2.02605,0
27190,-1.41602,-0.840592,2.0255,0
27210,-1.41613,-0.834868,2.02648,0
27230,-1.41619,-0.829025,2.02794,0
27250,-1.41666,-0.823052,2.03081,0
27270,-1.41902,-0.817395,2.03504,0
27290,-1.42287,-0.811872,2.03923,0
27310,-1.42657,-0.805219,2.04364,0
27330,-1.43089,-0.797386,2.04927,0
27350,-1.43564,-0.790138,2.05576,0
27370,-1.43978,-0.78383,2.06204,0
27390,-1.44457,-0.777736,2.06872,0
27410,-1.45002,-0.771595,2.07606,0
27430,-1.45448,-0.765233,2.08287,0
27450,-1.45735,-0.758777,2.08961,0
27470,-1.4602,-0.752742,2.09719,0
27490,-1.46292,-0.747619,2.10549,0
27510,-1.4655,-0.742889,2.11374,0
27530,-1.46829,-0.738872,2.12242,0
27550,-1.47135,-0.734809,2.13107,0
27570,-1.47602,-0.731248,2.14136,0
27590,-1.48152,-0.728902,2.15214,0
27610,-1.48646,-0.727016,2.16277,0
27630,-1.49155,-0.724384,2.17323,0
27650,-1.49756,-0.721988,2.18376,0
27670,-1.50407,-0.719766,2.19402,0
27690,-1.51029,-0.716221,2.20437,0
27710,-1.51712,-0.712445,2.21603,0
27730,-1.52418,-0.709139,2.2286,0
27750,-1.53145,-0.706041,2.24098,0
27770,-1.53949,-0.702308,2.25371,0
27790,-1.5482,-0.698044,2.26706,0
27810,-1.55722,-0.694505,2.28103,0
27830,-1.56549,-0.690764,2.29509,0
27850,-1.57418,-0.68712,2.30951,0
27870,-1.58304,-0.684105,2.32386,0
27890,-1.5913,-0.680626,2.33737,0
27910,-1.59951,-0.67701,2.35133,0
27930,-1.6081,-0.673777,2.36604,0
27950,-1.61602,-0.671356,2.37988,0
27970,-1.62376,-0.669375,2.39324,0
27990,-1.63082,-0.667688,2.40643,0
28010,-1.63742,-0.666187,2.42008,0
28030,-1.64473,-0.66597,2.4344,0
28050,-1.6526,-0.666354,2.44888,0
28070,-1.66012,-0.667211,2.46292,0
28090,-1.668,-0.667921,2.47694,0
28110,-1.67576,-0.668687,2.49108,0
28130,-1.68453,-0.669584,2.5062,0
28150,-1.69418,-0.670919,2.52164,0
28170,-1.70396,-0.672117,2.53702,0
28190,-1.7134,-0.673169,2.55259,0
28210,-1.72328,-0.674427,2.56823,0
28230,-1.73257,-0.675505,2.5833,0
28250,-1.74145,-0.676292,2.59838,0
28270,-1.75102,-0.677272,2.61403,0
28290,-1.76062,-0.678768,2.62996,0
28310,-1.76938,-0.680047,2.64522,0
28330,-1.77805,-0.681491,2.66009,0
28350,-1.78605,-0.683454,2.67474,0
28370,-1.79354,-0.685766,2.68897,0
28390,-1.80014,-0.688632,2.70252,0
28410,-1.806,-0.692215,2.71515,0
28430,-1.81157,-0.695975,2.72711,0
28450,-1.81731,-0.700762,2.73864,0
28470,-1.82273,-0.705586,2.74982,0
28490,-1.82722,-0.710267,2.76052,0
28510,-1.83182,-0.715705,2.77067,0
28530,-1.83667,-0.721639,2.78041,0
28550,-1.84239,-0.727478,2.79001,0
28570,-1.84746,-0.734133,2.79902,0
28590,-1.85032,-0.741222,2.8069,0
28610,-1.85301,-0.74829,2.81497,0
28630,-1.85702,-0.755149,2.82362,0
28650,-1.86162,-0.762233,2.832,0
28670,-1.86549,-0.769719,2.83989,0
28690,-1.86892,-0.777236,2.84708,0
28710,-1.8725,-0.784525,2.85378,0
28730,-1.87546,-0.79126,2.85916,0
28750,-1.87887,-0.79844,2.8645,0
28770,-1.88162,-0.806408,2.86891,0
28790,-1.8845,-0.814263,2.87272,0
28810,-1.88813,-0.822192,2.87688,0
28830,-1.89136,-0.829862,2.88059,0
28850,-1.89431,-0.837949,2.88387,0
28870,-1.89673,-0.846363,2.88699,0
28890,-1.89967,-0.854279,2.89078,0
28910,-1.90395,-0.861737,2.89517,0
28930,-1.90841,-0.869506,2.89931,0
28950,-1.91157,-0.877552,2.90305,0
28970,-1.91434,-0.885633,2.90693,0
28990,-1.91771,-0.892893,2.91083,0
29010,-1.92121,-0.899654,2.91468,0
29030,-1.92502,-0.905824,2.91821,0
29050,-1.92854,-0.911817,2.92094,2001
29070,-1.9311,-0.917927,2.92293,0
29090,-1.93244,-0.923132,2.92408,0
29100,-1.93697,-0.933224,2.92677,0
29120,-1.93732,-0.93817,2.92631,0
29140,-1.93748,-0.942311,2.92553,0
29160,-1.9373,-0.945807,2.92439,0
29180,-1.93753,-0.948039,2.92309,0
29200,-1.93678,-0.949852,2.92072,0
29220,-1.93429,-0.951265,2.91698,0
29240,-1.93139,-0.95216,2.91212,0
29260,-1.92705,-0.951931,2.90591,0
29280,-1.92636,-0.951334,2.90176,0
29300,-1.92811,-0.950446,2.8989,0
29320,-1.93054,-0.948381,2.89677,0
29340,-1.93126,-0.945544,2.89457,0
29360,-1.92876,-0.943104,2.89154,0
29380,-1.92591,-0.941248,2.88852,0
29400,-1.92229,-0.939404,2.88473,0
29420,-1.91748,-0.936324,2.88035,0
29440,-1.91224,-0.932458,2.87364,0
29460,-1.90694,-0.927179,2.86675,0
29480,-1.90081,-0.922038,2.85889,0
29500,-1.89317,-0.915988,2.85008,0
29520,-1.8838,-0.908131,2.83989,0
29540,-1.87451,-0.897162,2.82881,0
29560,-1.86721,-0.88295,2.81795,0
29580,-1.86164,-0.86645,2.80816,0
29600,-1.85722,-0.847958,2.79955,0
29620,-1.85534,-0.827739,2.79241,0
29640,-1.85172,-0.806115,2.785,0
29660,-1.84534,-0.783358,2.77673,0
29680,-1.83711,-0.757786,2.76661,0
29700,-1.8287,-0.726777,2.75855,0
29720,-1.82109,-0.691558,2.75176,0
29740,-1.81339,-0.656534,2.74482,0
29760,-1.80563,-0.621947,2.73694,0
29780,-1.79415,-0.585332,2.72799,0
29800,-1.78024,-0.549749,2.72087,0
29820,-1.76685,-0.518482,2.71603,0
29840,-1.7611,-0.487866,2.71415,0
29860,-1.75698,-0.459502,2.71132,0
29880,-1.74912,-0.435965,2.70878,0
29900,-1.74185,-0.417158,2.70805,0
29920,-1.73721,-0.401709,2.70875,0
29940,-1.73376,-0.38793,2.71014,0
29960,-1.72945,-0.377858,2.71141,0
29980,-1.72399,-0.371412,2.71261,0
30000,-1.71885,-0.366827,2.71323,0
30020,-1.71613,-0.362868,2.71414,0
30040,-1.71521,-0.359311,2.71596,0
30060,-1.71451,-0.356625,2.71769,0
30080,-1.71354,-0.355072,2.72003,0
30100,-1.71414,-0.353613,2.72313,0
30120,-1.71713,-0.351708,2.72697,0
30140,-1.72171,-0.350296,2.7311,0
30160,-1.72593,-0.348544,2.73501,0
30180,-1.72952,-0.345998,2.73908,0
30200,-1.73313,-0.343334,2.7426,0
30220,-1.73616,-0.340115,2.7459,0
30240,-1.73922,-0.336487,2.74887,0
30260,-1.74252,-0.333716,2.75104,0
30280,-1.74424,-0.330994,2.75292,0
30300,-1.74531,-0.327969,2.75474,2000
30320,-1.74563,-0.325026,2.75604,0
30340,-1.74538,-0.322469,2.75684,0
30360,-1.74374,-0.321405,2.75692,0
30380,-1.74228,-0.321951,2.75728,0
30400,-1.7414,-0.321639,2.75838,0
30420,-1.74024,-0.319735,2.76044,0
30440,-1.73945,-0.317743,2.76316,0
30450,-1.73885,-0.316692,2.76583,0
30470,-1.7383,-0.315778,2.76818,0
30490,-1.73713,-0.314199,2.77061,0
30510,-1.73494,-0.313224,2.77305,0
30530,-1.73339,-0.314142,2.77561,0
30550,-1.73262,-0.31591,2.77838,0
30570,-1.73126,-0.318539,2.78118,0
30590,-1.72972,-0.322005,2.78418,0
30610,-1.7282,-0.32552,2.78761,0
30630,-1.72869,-0.329173,2.79168,0
30650,-1.73042,-0.33325,2.79564,0
30670,-1.73219,-0.33701,2.79924,0
30690,-1.73377,-0.340322,2.80331,0
30710,-1.73641,-0.344113,2.80716,0
30730,-1.73906,-0.34719,2.81097,0
30750,-1.7424,-0.350858,2.81446,0
30770,-1.74514,-0.354377,2.81606,0
30790,-1.74614,-0.357773,2.81666,0
30810,-1.74671,-0.361275,2.81805,0
30830,-1.74879,-0.365762,2.81938,0
30850,-1.75163,-0.371852,2.81959,0
30870,-1.75446,-0.37786,2.81914,0
30890,-1.75735,-0.3837,2.81866,0
30910,-1.75967,-0.389869,2.81696,0
30930,-1.76187,-0.396447,2.81468,0
30950,-1.76347,-0.403419,2.81148,0
30970,-1.76411,-0.411042,2.80614,0
30990,-1.76454,-0.418544,2.80019,0
31010,-1.76441,-0.426658,2.79371,0
31030,-1.76419,-0.435734,2.78604,0
31050,-1.76354,-0.444868,2.77755,0
31070,-1.76147,-0.454148,2.76722,0
31090,-1.7592,-0.46375,2.75574,0
31100,-1.75641,-0.474488,2.7432,0
31120,-1.75402,-0.485107,2.73104,0
31140,-1.75143,-0.495825,2.71866,0
31160,-1.74786,-0.507206,2.70519,0
31180,-1.74394,-0.519755,2.69084,0
31200,-1.74146,-0.531651,2.67681,0
31220,-1.73853,-0.5433,2.66207,0
31240,-1.73472,-0.554861,2.64658,0
31260,-1.72982,-0.566516,2.62989,0
31280,-1.72531,-0.577821,2.61279,0
31300,-1.72094,-0.587987,2.59561,0
31320,-1.71567,-0.598141,2.57759,0
31340,-1.70859,-0.608214,2.55837,0
31360,-1.70142,-0.617341,2.539,0
31380,-1.6942,-0.62552,2.51943,0
31400,-1.68695,-0.63345,2.50007,0
31420,-1.67897,-0.640558,2.48057,0
31440,-1.67028,-0.64655,2.4608,0
31460,-1.66091,-0.651868,2.44094,0
31480,-1.65296,-0.656372,2.4213,0
31500,-1.64464,-0.660626,2.40093,0
31520,-1.63523,-0.663561,2.38074,0
31540,-1.62563,-0.665826,2.36124,0
31560,-1.61605,-0.668797,2.34182,0
31580,-1.60569,-0.671926,2.32128,0
31600,-1.59546,-0.673985,2.301,0
31620,-1.58517,-0.675441,2.28059,0
31640,-1.57564,-0.676842,2.26082,0
31660,-1.56691,-0.678965,2.24216,0
31680,-1.55766,-0.680288,2.2233,0
31700,-1.54823,-0.680389,2.20455,0
31720,-1.53904,-0.680493,2.18656,0
31740,-1.53058,-0.68004,2.1699,0
31760,-1.52362,-0.679493,2.155,0
31780,-1.51838,-0.678691,2.14113,0
31800,-1.51398,-0.67706,2.12842,0
31820,-1.51062,-0.67499,2.11653,0
31840,-1.50741,-0.67125,2.10547,0
31860,-1.5047,-0.666892,2.0958,0
31880,-1.50292,-0.663102,2.08751,0
31900,-1.50107,-0.658923,2.08008,0
31920,-1.50015,-0.654009,2.07436,0
31940,-1.49888,-0.649236,2.06908,0
31960,-1.49824,-0.644923,2.06502,0
31980,-1.49755,-0.640502,2.06217,0
32000,-1.49821,-0.636274,2.0609,0
32020,-1.49873,-0.63145,2.05974,0
32040,-1.49981,-0.625937,2.05951,0
32060,-1.50156,-0.620679,2.06093,0
32080,-1.50367,-0.615957,2.06304,0
32100,-1.5057,-0.61075,2.06522,0
32120,-1.50837,-0.605707,2.06825,0
32140,-1.51154,-0.601487,2.07194,0
32160,-1.51532,-0.598931,2.07551,0
32180,-1.51927,-0.596322,2.07863,0
32200,-1.52268,-0.592504,2.08152,0
32220,-1.5259,-0.58891,2.08487,0
32240,-1.52955,-0.585973,2.08836,0
32260,-1.53339,-0.582765,2.09229,0
32280,-1.53777,-0.579963,2.0963,0
32300,-1.54288,-0.57764,2.10055,0
32320,-1.54725,-0.574534,2.10496,0
32340,-1.55064,-0.570737,2.1098,0
32360,-1.5534,-0.567136,2.11497,0
32380,-1.55745,-0.564756,2.12092,0
32390,-1.56164,-0.562289,2.12724,0
32410,-1.56494,-0.558708,2.13358,0
32430,-1.56815,-0.555022,2.14101,0
32450,-1.57145,-0.552488,2.14854,0
32470,-1.57434,-0.549258,2.1565,0
32490,-1.57715,-0.545711,2.16499,0
32510,-1.57979,-0.541759,2.1736,0
32530,-1.58164,-0.538464,2.18183,0
32550,-1.58268,-0.534994,2.19056,0
32570,-1.58459,-0.531645,2.20027,0
32590,-1.58692,-0.528858,2.20968,0
32610,-1.58877,-0.525892,2.21938,0
32630,-1.59071,-0.521683,2.22988,0
32650,-1.59322,-0.517623,2.24153,0
32670,-1.59622,-0.514262,2.25342,0
32690,-1.5998,-0.510893,2.26587,0
32710,-1.60336,-0.507088,2.27873,0
32730,-1.60805,-0.503347,2.29266,0
32750,-1.61249,-0.500242,2.30611,0
32770,-1.61571,-0.497111,2.31919,0
32790,-1.61933,-0.494113,2.33254,0
32810,-1.62379,-0.491265,2.34607,0
32830,-1.62926,-0.488863,2.35995,0
32850,-1.63483,-0.485972,2.37394,0
32870,-1.63975,-0.483917,2.38735,0
32890,-1.64412,-0.482249,2.40022,0
32910,-1.64778,-0.480053,2.41271,0
32930,-1.65131,-0.47772,2.42503,0
32950,-1.65441,-0.476392,2.43692,0
32970,-1.6574,-0.475059,2.44847,0
32990,-1.66129,-0.472826,2.46068,0
33010,-1.66496,-0.470662,2.47309,0
33030,-1.6694,-0.468738,2.48631,0
33050,-1.67441,-0.467355,2.50023,0
33070,-1.67984,-0.465713,2.51479,0
33090,-1.6847,-0.464221,2.52928,0
33110,-1.68919,-0.463014,2.54391,0
33130,-1.69393,-0.462176,2.55889,0
33150,-1.69896,-0.460696,2.57422,0
33170,-1.70399,-0.459995,2.59029,0
33190,-1.70871,-0.459598,2.60651,0
33210,-1.71412,-0.459134,2.62367,0
33230,-1.72029,-0.459279,2.6415,0
33250,-1.72645,-0.460341,2.6594,0
33270,-1.73213,-0.461328,2.67779,0
33290,-1.73801,-0.461885,2.69647,0
33310,-1.74577,-0.462841,2.71635,0
33330,-1.75363,-0.464486,2.73586,0
33350,-1.75999,-0.465461,2.75446,0
33370,-1.76522,-0.465778,2.7723,0
33390,-1.77147,-0.465879,2.79014,0
33410,-1.77871,-0.465897,2.80756,0
33430,-1.78505,-0.46626,2.82333,0
33450,-1.7893,-0.466182,2.83787,0
33470,-1.7926,-0.466373,2.85167,0
33490,-1.79715,-0.468097,2.86539,0
33510,-1.80191,-0.470628,2.87853,0
33530,-1.80526,-0.472301,2.89029,0
33550,-1.80864,-0.474234,2.90243,0
33570,-1.81377,-0.477846,2.91524,0
33590,-1.81905,-0.482373,2.92765,0
33610,-1.82389,-0.486786,2.93909,0
33630,-1.82892,-0.490908,2.95111,0
33650,-1.83455,-0.49565,2.96328,0
33670,-1.84082,-0.501321,2.9745,0
33690,-1.84614,-0.506249,2.98363,0
33710,-1.85145,-0.51079,2.99292,0
33730,-1.85799,-0.517611,3.00196,0
33750,-1.86236,-0.52551,3.00736,0
33770,-1.86349,-0.531781,3.00892,0
33790,-1.86505,-0.537913,3.01058,0
33810,-1.86991,-0.54704,3.01264,0
33830,-1.87391,-0.557151,3.01172,0
33850,-1.87619,-0.566845,3.00808,0
33870,-1.87783,-0.57614,3.00376,0
33890,-1.88109,-0.586735,2.99861,0
33910,-1.88289,-0.598446,2.99135,0
33930,-1.88431,-0.61091,2.98313,0
33950,-1.88639,-0.623154,2.97486,0
33970,-1.88952,-0.636274,2.96655,0
33990,-1.89108,-0.650236,2.95718,0
34010,-1.89274,-0.665769,2.94827,0
34030,-1.89579,-0.682048,2.93941,0
34050,-1.89817,-0.698722,2.92881,0
34070,-1.89837,-0.71603,2.91585,0
34090,-1.89775,-0.733494,2.90285,0
34110,-1.89831,-0.749937,2.89128,0
34130,-1.89916,-0.765596,2.87866,0
34150,-1.8991,-0.782276,2.86423,0
34170,-1.89718,-0.798687,2.84838,0
34190,-1.89552,-0.81391,2.83252,0
34210,-1.89254,-0.827992,2.81512,0
34230,-1.88604,-0.842561,2.7943,0
34250,-1.87661,-0.857049,2.77179,0
34270,-1.86771,-0.871092,2.74913,0
34290,-1.85693,-0.885051,2.72379,0
34310,-1.84245,-0.898367,2.69542,0
34330,-1.82645,-0.910604,2.66746,0
34350,-1.81247,-0.921652,2.64215,0
34370,-1.79949,-0.933039,2.61789,0
34390,-1.78688,-0.943989,2.59381,0
34410,-1.7743,-0.953435,2.56981,0
34430,-1.7617,-0.960572,2.5469,0
34450,-1.74801,-0.966091,2.52428,0
34470,-1.73239,-0.972208,2.49966,0
34490,-1.7152,-0.978495,2.47393,0
34510,-1.69951,-0.983652,2.44973,0
34530,-1.68378,-0.987046,2.42499,0
34550,-1.66395,-0.988803,2.39823,0
34570,-1.64392,-0.990914,2.37282,0
34590,-1.62592,-0.993115,2.34901,0
34610,-1.60726,-0.99371,2.32366,0
34630,-1.58884,-0.991806,2.29932,0
34650,-1.57173,-0.98938,2.27683,0
34670,-1.5556,-0.986926,2.25552,0
34690,-1.54091,-0.982769,2.23531,0
34710,-1.52789,-0.976425,2.21794,0
34730,-1.51566,-0.969461,2.20187,0
34750,-1.50392,-0.961185,2.1862,0
34770,-1.49249,-0.950977,2.17104,0
34790,-1.48262,-0.939867,2.15908,0
34810,-1.47547,-0.929219,2.15004,0
34830,-1.47038,-0.918083,2.14301,0
34850,-1.46725,-0.907032,2.1377,0
34870,-1.46444,-0.895156,2.13325,0
34890,-1.46401,-0.883076,2.13103,0
34910,-1.46605,-0.871083,2.13118,0
34930,-1.46927,-0.858888,2.13193,0
34950,-1.47426,-0.845551,2.13404,0
34970,-1.4785,-0.830601,2.13596,0
34990,-1.48414,-0.815655,2.14055,0
35010,-1.49087,-0.80253,2.14586,0
35030,-1.49609,-0.790515,2.15066,0
35050,-1.50094,-0.778619,2.1558,0
35070,-1.50657,-0.76728,2.16166,0
35090,-1.51238,-0.757105,2.16776,0
35110,-1.51651,-0.747089,2.17427,0
35130,-1.52063,-0.737349,2.18187,0
35150,-1.52692,-0.728935,2.19146,0
35170,-1.53505,-0.721375,2.20225,0
35190,-1.54285,-0.712891,2.21392,0
35210,-1.5502,-0.704272,2.22645,0
35230,-1.55759,-0.6971,2.2397,0
35250,-1.56635,-0.690715,2.25405,0
35270,-1.57551,-0.68369,2.26904,0
35290,-1.58452,-0.676133,2.28487,0
35310,-1.59346,-0.669514,2.30145,0
35330,-1.60248,-0.663541,2.31839,0
35350,-1.6107,-0.657321,2.33575,0
35370,-1.6191,-0.650798,2.35345,0
35390,-1.62807,-0.644891,2.3717,0
35410,-1.63722,-0.63991,2.38981,0
35430,-1.64611,-0.635245,2.40803,0
35450,-1.65521,-0.630213,2.42683,0
35470,-1.66432,-0.625003,2.44575,0
35490,-1.67428,-0.619861,2.46583,0
35510,-1.68447,-0.616064,2.48648,0
35530,-1.69454,-0.612409,2.50752,0
35550,-1.704,-0.609367,2.52839,0
35570,-1.71204,-0.606338,2.54852,0
35590,-1.71976,-0.6034,2.56872,0
35610,-1.72812,-0.601517,2.58906,0
35630,-1.7358,-0.599712,2.60766,0
35650,-1.74312,-0.597635,2.62573,0
35670,-1.75099,-0.595368,2.64381,0
35690,-1.7606,-0.593474,2.66264,0
35710,-1.7707,-0.592339,2.68088,0
35730,-1.77984,-0.589883,2.69815,0
35750,-1.78938,-0.586799,2.71494,0
35770,-1.80019,-0.584096,2.73187,0
35780,-1.81244,-0.583121,2.7489,0
35800,-1.82299,-0.582626,2.76459,0
35820,-1.83119,-0.581369,2.77943,0
35840,-1.8419,-0.582229,2.79578,0
35860,-1.8536,-0.584224,2.81233,0
35880,-1.86372,-0.585924,2.82759,0
35900,-1.87198,-0.587901,2.84228,0
35920,-1.88084,-0.590972,2.85757,0
35940,-1.89065,-0.595834,2.87264,0
35960,-1.89889,-0.600978,2.88718,0
35980,-1.90695,-0.606314,2.90167,0
36000,-1.91574,-0.612282,2.91597,0
36020,-1.92421,-0.618813,2.92959,0
36040,-1.9316,-0.624425,2.94302,0
36060,-1.94076,-0.630997,2.95721,0
36080,-1.95055,-0.638476,2.97119,0
36100,-1.95907,-0.645154,2.9839,0
36120,-1.96763,-0.6517,2.99705,0
36140,-1.97706,-0.659015,3.01049,0
36160,-1.98595,-0.667709,3.02256,0
36180,-1.99234,-0.676382,3.03299,0
36200,-1.99801,-0.685361,3.04284,0
36220,-2.00332,-0.696114,3.05101,0
36240,-2.00692,-0.708352,3.05625,0
36260,-2.00651,-0.721204,3.05896,0
36280,-2.00662,-0.734204,3.06119,0
36300,-2.00838,-0.747312,3.06237,0
36320,-2.00884,-0.760769,3.06143,0
36340,-2.0075,-0.775239,3.05909,0
36360,-2.00582,-0.78976,3.05515,0
36380,-2.00459,-0.803699,3.05053,0
36400,-2.00536,-0.81818,3.04645,0
36420,-2.00491,-0.833045,3.04047,0
36440,-2.00318,-0.848236,3.03286,0
36460,-2.00022,-0.863233,3.02426,0
36480,-1.99738,-0.877895,3.01539,0
36500,-1.99536,-0.892887,3.00601,0
36520,-1.99142,-0.908781,2.99545,0
36540,-1.98711,-0.925431,2.98454,0
36560,-1.98243,-0.94246,2.97288,0
36580,-1.97706,-0.959876,2.96027,0
36600,-1.97124,-0.977422,2.94698,0
36620,-1.9639,-0.993821,2.9326,0
36640,-1.9547,-1.00948,2.91546,0
36660,-1.94169,-1.02502,2.89497,0
36680,-1.92594,-1.04097,2.87289,0
36700,-1.90929,-1.05658,2.84949,0
36720,-1.88975,-1.07105,2.82273,0
36740,-1.86833,-1.08515,2.79409,0
36760,-1.84758,-1.09823,2.76679,0
36780,-1.82535,-1.10992,2.73836,0
36800,-1.80204,-1.12065,2.70843,0
36820,-1.77782,-1.1305,2.67746,0
36840,-1.75402,-1.1388,2.64646,0
36860,-1.73055,-1.14547,2.61537,0
36880,-1.7051,-1.15072,2.58195,0
36900,-1.67513,-1.1547,2.54481,0
36920,-1.64515,-1.15775,2.50825,0
36940,-1.61484,-1.15902,2.47131,0
36960,-1.58515,-1.1578,2.43425,0
36980,-1.55542,-1.15459,2.39743,0
37000,-1.52689,-1.15169,2.36273,0
37020,-1.4991,-1.14794,2.32836,0
37040,-1.47156,-1.142,2.29483,0
37060,-1.44573,-1.13373,2.26321,0
37080,-1.42211,-1.12603,2.23473,0
37100,-1.40145,-1.11819,2.20876,0
37120,-1.38211,-1.10969,2.18389,0
37140,-1.36448,-1.10028,2.16279,0
37160,-1.34814,-1.09057,2.14407,0
37180,-1.33399,-1.08112,2.12733,0
37200,-1.32117,-1.07211,2.11188,0
37220,-1.30948,-1.06258,2.09782,0
37240,-1.30023,-1.05298,2.08691,0
37260,-1.29122,-1.04295,2.07631,0
37280,-1.28264,-1.03182,2.0662,0
37300,-1.27731,-1.02094,2.05892,0
37320,-1.2747,-1.01044,2.05445,0
37340,-1.27455,-0.999628,2.05229,0
37360,-1.27755,-0.988768,2.0527,0
37380,-1.28256,-0.977313,2.05542,0
37400,-1.29166,-0.965842,2.06254,0
37420,-1.3028,-0.954907,2.07285,0
37440,-1.31448,-0.945408,2.084,0
37460,-1.32775,-0.936308,2.0963,0
37480,-1.34191,-0.927048,2.10993,0
37500,-1.35605,-0.918011,2.12452,0
37520,-1.36989,-0.909527,2.14001,0
37540,-1.38369,-0.901142,2.15559,0
37560,-1.3975,-0.893117,2.17202,0
37580,-1.41184,-0.884952,2.18822,0
37600,-1.42599,-0.876121,2.204,0
37620,-1.43866,-0.867159,2.2191,0
37640,-1.45062,-0.85813,2.23411,0
37660,-1.46363,-0.848916,2.25007,0
37680,-1.47613,-0.840619,2.2657,0
37700,-1.4876,-0.832818,2.28041,0
37720,-1.49893,-0.825174,2.2952,0
37740,-1.51038,-0.817285,2.31055,0
37760,-1.52164,-0.809995,2.32545,0
37770,-1.5335,-0.803287,2.34076,0
37790,-1.54351,-0.797076,2.3543,0
37810,-1.55343,-0.789552,2.36811,0
37830,-1.56495,-0.783134,2.38336,0
37850,-1.57641,-0.77797,2.39864,0
37870,-1.58682,-0.771982,2.41349,0
37890,-1.59817,-0.76664,2.42949,0
37910,-1.61051,-0.762263,2.44693,0
37930,-1.62357,-0.757904,2.46525,0
37950,-1.63668,-0.753737,2.48417,0
37970,-1.65192,-0.751418,2.50411,0
37990,-1.66788,-0.749512,2.5252,0
38010,-1.68613,-0.749012,2.54776,0
38030,-1.70125,-0.747765,2.56795,0
38050,-1.71343,-0.74454,2.58741,0
38070,-1.72699,-0.742239,2.60855,0
38090,-1.74228,-0.742538,2.63053,0
38110,-1.75737,-0.741521,2.65104,0
38130,-1.77352,-0.73896,2.67223,0
38150,-1.78994,-0.738233,2.69405,0
38170,-1.80588,-0.738333,2.71567,0
38190,-1.82121,-0.739074,2.73661,0
38210,-1.83585,-0.740384,2.75627,0
38230,-1.85111,-0.74233,2.7762,0
38250,-1.86646,-0.744763,2.79663,0
38270,-1.88053,-0.749101,2.81615,0
38290,-1.89178,-0.753785,2.83348,0
38310,-1.90056,-0.758955,2.84973,0
38330,-1.90898,-0.764086,2.8663,0
38350,-1.91895,-0.770621,2.88381,0
38370,-1.93035,-0.776962,2.90109,0
38380,-1.94162,-0.783778,2.91754,0
38400,-1.95361,-0.789762,2.93477,0
38420,-1.96842,-0.795596,2.95267,0
38440,-1.98257,-0.800919,2.97045,0
38460,-1.99458,-0.806316,2.98767,0
38480,-2.00493,-0.812046,3.00361,0
38500,-2.01572,-0.817161,3.01985,0
38520,-2.02712,-0.822961,3.03598,0
38540,-2.03716,-0.828729,3.05122,0
38560,-2.04673,-0.834747,3.06614,0
38580,-2.05557,-0.840918,3.08052,0
38600,-2.06291,-0.848128,3.09441,0
38620,-2.06948,-0.856835,3.1082,0
38640,-2.07513,-0.866325,3.12088,0
38660,-2.07879,-0.875891,3.13223,0
38680,-2.08373,-0.886063,-3.13849,0
38700,-2.08889,-0.897116,-3.12615,0
38720,-2.09252,-0.90845,-3.11551,0
38740,-2.0955,-0.919876,-3.105,0
38760,-2.10201,-0.930258,-3.09217,0
38780,-2.11122,-0.940451,-3.0791,0
38800,-2.11796,-0.950593,-3.06779,0
38820,-2.12192,-0.960525,-3.05798,0
38840,-2.12734,-0.969714,-3.04758,0
38860,-2.1344,-0.977962,-3.03784,0
38880,-2.13962,-0.984741,-3.03165,0
38900,-2.14168,-0.991003,-3.02746,2001
38920,-2.14411,-0.998175,-3.0235,0
38940,-2.14822,-1.00467,-3.01953,0
38960,-2.15149,-1.00958,-3.01825,0
38980,-2.15202,-1.01416,-3.01954,0
39000,-2.15102,-1.01842,-3.02111,0
39020,-2.15057,-1.02209,-3.02259,0
39040,-2.15188,-1.02467,-3.02373,0
39060,-2.15411,-1.02703,-3.02502,0
39080,-2.15257,-1.02894,-3.02941,0
39100,-2.14626,-1.03089,-3.03763,0
39120,-2.14293,-1.03199,-3.04414,0
39140,-2.14545,-1.03261,-3.04676,0
39160,-2.14911,-1.03116,-3.04741,0
39180,-2.14915,-1.02867,-3.05066,0
39200,-2.14478,-1.02611,-3.05684,0
39220,-2.13869,-1.02388,-3.06462,0
39240,-2.12959,-1.02144,-3.0753,0
39260,-2.12031,-1.01639,-3.0897,0
39280,-2.10847,-1.00965,-3.10907,0
39300,-2.09048,-1.00036,-3.13324,0
39320,-2.06908,-0.990413,3.12226,0
39340,-2.0477,-0.978376,3.09222,0
39360,-2.03076,-0.961917,3.06367,0
39380,-2.01677,-0.942262,3.0363,0
39400,-2.00331,-0.921862,3.01048,0
39420,-1.99166,-0.901101,2.98661,0
39440,-1.9781,-0.879156,2.95981,0
39460,-1.96169,-0.856467,2.92907,0
39480,-1.9414,-0.830259,2.89886,0
39500,-1.92341,-0.801237,2.87252,0
39520,-1.90922,-0.773385,2.84875,0
39540,-1.89678,-0.742599,2.82612,0
39560,-1.88344,-0.710844,2.80689,0
39580,-1.86814,-0.682824,2.79074,0
39600,-1.85537,-0.652778,2.77753,0
39620,-1.84527,-0.617067,2.76716,0
39640,-1.83918,-0.580992,2.7598,0
39660,-1.83585,-0.549257,2.75428,0
39680,-1.82881,-0.516365,2.75098,0
39700,-1.82252,-0.485011,2.75042,0
39720,-1.82045,-0.456294,2.75226,0
39740,-1.81975,-0.42982,2.754,0
39760,-1.81815,-0.405615,2.75596,0
39780,-1.8165,-0.385775,2.7585,0
39800,-1.81376,-0.370002,2.76138,0
39820,-1.81047,-0.357758,2.76412,0
39840,-1.80793,-0.348199,2.76754,0
39860,-1.80461,-0.342491,2.76995,0
39880,-1.8004,-0.339464,2.77123,0
39900,-1.7967,-0.3376,2.77206,0
39920,-1.7945,-0.336493,2.7729,0
39940,-1.79381,-0.335079,2.77365,0
39960,-1.79242,-0.333038,2.77471,0
39980,-1.79184,-0.331042,2.77603,0
40000,-1.79299,-0.328427,2.7772,0
40020,-1.79529,-0.323573,2.77825,0
40040,-1.79658,-0.31668,2.779,0
40060,-1.79746,-0.310596,2.77979,0
40080,-1.79795,-0.305027,2.78079,0
40100,-1.7986,-0.298733,2.78215,0
40120,-1.79949,-0.293291,2.78349,0
40150,-1.80041,-0.284623,2.78504,0
40170,-1.7989,-0.279642,2.7855,0
40190,-1.79638,-0.276119,2.78619,0
40210,-1.79343,-0.274146,2.78668,2000
40230,-1.79133,-0.27133,2.78742,0
40250,-1.78925,-0.267564,2.78801,0
40270,-1.78618,-0.264823,2.78815,0
40290,-1.78357,-0.266586,2.78712,0
40310,-1.78226,-0.2702,2.78537,0
40330,-1.7807,-0.271014,2.78428,0
40350,-1.77946,-0.269045,2.78461,0
40370,-1.77838,-0.268135,2.78523,0
40390,-1.77853,-0.26972,2.78556,0
40410,-1.77848,-0.269955,2.78641,0
40430,-1.7784,-0.269748,2.78721,0
40450,-1.77713,-0.271137,2.78761,0
40470,-1.7756,-0.274394,2.78831,0
40490,-1.77237,-0.277548,2.79004,0
40510,-1.76971,-0.280899,2.79255,0
40530,-1.76722,-0.285022,2.79559,0
40550,-1.76532,-0.290861,2.80004,0
40570,-1.76361,-0.297435,2.80539,0
40590,-1.7626,-0.303638,2.81121,0
40610,-1.76283,-0.30885,2.81757,0
40630,-1.76432,-0.314003,2.82406,0
40650,-1.7663,-0.318573,2.83081,0
40670,-1.76812,-0.322899,2.83713,0
40680,-1.77025,-0.32707,2.84283,0
40700,-1.77241,-0.331037,2.84872,0
40720,-1.77298,-0.334393,2.85448,0
40740,-1.774,-0.33845,2.86095,0
40760,-1.77642,-0.343154,2.86739,0
40780,-1.77952,-0.347857,2.87386,0
40800,-1.78178,-0.352228,2.87916,0
40820,-1.7823,-0.356895,2.88274,0
40840,-1.78237,-0.361171,2.88542,0
40860,-1.78261,-0.365191,2.88759,0
40880,-1.78245,-0.369399,2.88855,0
40900,-1.77967,-0.374175,2.88682,0
40920,-1.77622,-0.379392,2.88378,0
40940,-1.77199,-0.384883,2.87958,0
40960,-1.76885,-0.391532,2.87459,0
40980,-1.76454,-0.399248,2.86735,0
41000,-1.75856,-0.407337,2.85842,0
41020,-1.7534,-0.415341,2.84957,0
41040,-1.74949,-0.423901,2.83995,0
41060,-1.74537,-0.432384,2.82975,0
41080,-1.74152,-0.441891,2.81889,0
41100,-1.73809,-0.451488,2.80786,0
41120,-1.7363,-0.461178,2.79649,0
41140,-1.73449,-0.470781,2.7845,0
41150,-1.7316,-0.480364,2.77111,0
41170,-1.72899,-0.490424,2.75733,0
41190,-1.72687,-0.501097,2.7433,0
41210,-1.72476,-0.512312,2.72832,0
41230,-1.72221,-0.523558,2.71127,0
41250,-1.71841,-0.535039,2.69256,0
41270,-1.71425,-0.547181,2.6733,0
41290,-1.71034,-0.559792,2.6535,0
41310,-1.70499,-0.573338,2.63188,0
41330,-1.6986,-0.587594,2.60871,0
41350,-1.69353,-0.602531,2.58597,0
41370,-1.68932,-0.617175,2.56374,0
41390,-1.68479,-0.630469,2.54106,0
41410,-1.6784,-0.642881,2.51701,0
41430,-1.67173,-0.654504,2.49234,0
41450,-1.66594,-0.665781,2.46804,0
41470,-1.65971,-0.676406,2.44303,0
41490,-1.65206,-0.685457,2.41755,0
41510,-1.64435,-0.69307,2.39308,0
41530,-1.63641,-0.700624,2.36901,0
41550,-1.62846,-0.708251,2.34511,0
41570,-1.62122,-0.715144,2.3221,0
41590,-1.61397,-0.720997,2.29989,0
41610,-1.60485,-0.72548,2.27764,0
41630,-1.59566,-0.728707,2.25732,0
41650,-1.5874,-0.731785,2.23826,0
41670,-1.57998,-0.734257,2.21945,0
41690,-1.57199,-0.733868,2.20089,0
41710,-1.56399,-0.732573,2.18442,0
41730,-1.5568,-0.732262,2.16895,0
41750,-1.5505,-0.730165,2.15402,0
41770,-1.54542,-0.725394,2.14069,0
41790,-1.54132,-0.719943,2.12952,0
41810,-1.53817,-0.714256,2.11874,0
41830,-1.53439,-0.706647,2.10926,0
41850,-1.53113,-0.698315,2.1015,0
41870,-1.52996,-0.691152,2.09534,0
41890,-1.53022,-0.683894,2.0894,0
41910,-1.52986,-0.674118,2.08421,0
41930,-1.5278,-0.656663,2.076,0
41940,-1.52826,-0.649066,2.07239,0
41960,-1.52848,-0.640236,2.07027,0
42000,-1.52991,-0.623687,2.07018,0
42020,-1.53195,-0.617144,2.07095,0
42040,-1.53587,-0.609179,2.07298,0
42060,-1.54064,-0.599374,2.07594,0
42080,-1.54559,-0.589389,2.0801,0
42100,-1.54994,-0.581115,2.08477,0
42120,-1.55329,-0.57374,2.09002,0
42140,-1.55709,-0.56483,2.09689,0
42160,-1.56228,-0.555793,2.10534,0
42180,-1.56765,-0.549142,2.1144,0
42200,-1.573,-0.543219,2.12407,0
42220,-1.5787,-0.53559,2.13418,0
42240,-1.58387,-0.527568,2.14452,0
42260,-1.58849,-0.5206,2.15538,0
42280,-1.59266,-0.51565,2.16552,0
42300,-1.59744,-0.511228,2.17551,0
42320,-1.60251,-0.50625,2.18566,0
42340,-1.6085,-0.501659,2.19697,0
42360,-1.61405,-0.498969,2.20793,0
42380,-1.61823,-0.497067,2.21811,0
42400,-1.62161,-0.494241,2.22782,0
42420,-1.62602,-0.491866,2.23847,0
42440,-1.63077,-0.49047,2.24952,0
42460,-1.6345,-0.489321,2.26002,0
42460,-1.63832,-0.487343,2.27098,0
42480,-1.64167,-0.485619,2.28266,0
42500,-1.64524,-0.483802,2.29549,0
42520,-1.64982,-0.481853,2.30903,0
42540,-1.65501,-0.479856,2.32316,0
42560,-1.66058,-0.477585,2.33805,0
42580,-1.66567,-0.475117,2.35335,0
42600,-1.67102,-0.472387,2.36897,0
42620,-1.67599,-0.46989,2.38437,0
42640,-1.68109,-0.467342,2.39954,0
42660,-1.68479,-0.464349,2.41444,0
42680,-1.68788,-0.460871,2.42969,0
42700,-1.69161,-0.457996,2.44502,0
42720,-1.69526,-0.45482,2.46018,0
42740,-1.69915,-0.451696,2.47552,0
42760,-1.70264,-0.449073,2.49081,0
42780,-1.70581,-0.446644,2.50582,0
42800,-1.7093,-0.44365,2.52094,0
42820,-1.7134,-0.440845,2.53668,0
42840,-1.71904,-0.437209,2.55313,0
42860,-1.72596,-0.434009,2.57027,0
42880,-1.73287,-0.4314,2.58793,0
42900,-1.73984,-0.429866,2.60599,0
42920,-1.74654,-0.429048,2.6237,0
42940,-1.75381,-0.428632,2.64167,0
42960,-1.76077,-0.428154,2.66013,0
42980,-1.76768,-0.428353,2.67887,0
43000,-1.77441,-0.428763,2.69766,0
43020,-1.78132,-0.429791,2.71693,0
43040,-1.78939,-0.431254,2.73675,0
43060,-1.7977,-0.43247,2.7566,0
43070,-1.80453,-0.433769,2.7761,0
43090,-1.81054,-0.434705,2.79563,0
43110,-1.81875,-0.435469,2.81611,0
43130,-1.82677,-0.437935,2.83573,0
43150,-1.83329,-0.441997,2.85325,0
43170,-1.83711,-0.445393,2.86877,0
43190,-1.84128,-0.448212,2.8847,0
43210,-1.8465,-0.453081,2.90026,0
43230,-1.84994,-0.459807,2.91306,0
43250,-1.85073,-0.466407,2.92377,0
43270,-1.8517,-0.473061,2.93435,0
43290,-1.85632,-0.480736,2.94591,0
43310,-1.86204,-0.488915,2.95685,0
43330,-1.86626,-0.499852,2.96558,0
43350,-1.86787,-0.510915,2.97111,0
43370,-1.86829,-0.519378,2.97421,0
43390,-1.87042,-0.527524,2.97826,0
43410,-1.87398,-0.538801,2.98202,0
43430,-1.87709,-0.551514,2.98353,0
43450,-1.87837,-0.563172,2.98213,0
43470,-1.88,-0.574004,2.98026,0
43490,-1.88185,-0.585393,2.97808,0
43510,-1.88188,-0.599211,2.97346,0
43530,-1.87788,-0.614269,2.96517,0
43550,-1.87325,-0.628872,2.95437,0
43570,-1.8694,-0.644514,2.94204,0
43590,-1.86636,-0.662366,2.92876,0
43610,-1.86155,-0.680458,2.91362,0
43630,-1.85608,-0.697634,2.89623,0
43650,-1.84945,-0.714742,2.87751,0
43670,-1.84306,-0.733408,2.85844,0
43690,-1.83719,-0.751438,2.83844,0
43710,-1.83209,-0.767388,2.81818,0
43730,-1.8273,-0.783149,2.79853,0
43750,-1.82345,-0.799121,2.78065,0
43770,-1.81947,-0.815513,2.76161,0
43790,-1.81458,-0.831191,2.74072,0
43810,-1.80922,-0.844616,2.72052,0
43830,-1.80468,-0.858335,2.70065,0
43850,-1.79861,-0.872823,2.67903,0
43870,-1.79059,-0.886783,2.65528,0
43890,-1.78217,-0.900344,2.63112,0
43910,-1.77294,-0.913618,2.60642,0
43930,-1.76213,-0.927293,2.58001,0
43950,-1.74787,-0.941455,2.55103,0
43970,-1.73353,-0.955034,2.52109,0
43990,-1.71898,-0.965785,2.4888,0
44010,-1.69802,-0.970738,2.44984,0
44030,-1.6729,-0.971803,2.41065,0
44050,-1.64867,-0.973258,2.37391,0
44070,-1.62461,-0.974073,2.3367,0
44090,-1.60057,-0.972323,2.29834,0
44110,-1.5783,-0.967334,2.26293,0
44130,-1.56035,-0.962355,2.23303,0
44150,-1.54498,-0.957388,2.20736,0
44170,-1.53316,-0.951787,2.18611,0
44190,-1.52452,-0.944629,2.16773,0
44210,-1.51766,-0.935319,2.15194,0
44230,-1.5122,-0.92513,2.13878,0
44250,-1.50984,-0.915804,2.12916,0
44270,-1.5078,-0.905999,2.12015,0
44290,-1.50625,-0.894367,2.11233,0
44310,-1.50637,-0.881717,2.10753,0
44330,-1.50747,-0.870773,2.10405,0
44350,-1.50737,-0.859652,2.09977,0
44370,-1.50834,-0.847552,2.09721,0
44390,-1.51035,-0.835921,2.09581,0
44410,-1.51313,-0.82592,2.0951,0
44430,-1.51414,-0.81569,2.09393,0
44450,-1.51653,-0.803202,2.09481,0
44470,-1.51982,-0.790563,2.09749,0
44490,-1.5236,-0.779042,2.10055,0
44510,-1.52748,-0.767998,2.10395,0
44530,-1.53217,-0.755376,2.1091,0
44550,-1.53824,-0.742651,2.11679,0
44570,-1.54496,-0.73195,2.12611,0
44590,-1.5508,-0.721125,2.13548,0
44610,-1.55787,-0.710154,2.14612,0
44630,-1.56449,-0.699566,2.15653,0
44650,-1.57146,-0.689568,2.16781,0
44670,-1.57756,-0.680216,2.1795,0
44690,-1.58337,-0.67198,2.19234,0
44710,-1.5885,-0.664284,2.20501,0
44730,-1.59326,-0.657433,2.21721,0
44750,-1.59807,-0.651557,2.22933,0
44770,-1.60312,-0.645951,2.24236,0
44790,-1.60849,-0.639951,2.2563,0
44810,-1.61475,-0.635166,2.27091,0
44830,-1.62122,-0.630559,2.28552,0
44850,-1.6274,-0.625653,2.30047,0
44870,-1.63374,-0.620953,2.31569,0
44890,-1.64157,-0.616423,2.33191,0
44910,-1.64934,-0.612393,2.34826,0
44930,-1.65589,-0.608352,2.36484,0
44950,-1.66171,-0.60462,2.38166,0
44970,-1.66865,-0.602034,2.39879,0
44990,-1.67502,-0.599839,2.41537,0
45010,-1.68078,-0.596705,2.43194,0
45030,-1.68725,-0.593614,2.44907,0
45050,-1.69398,-0.590923,2.46645,0
45070,-1.70125,-0.588912,2.48399,0
45090,-1.70863,-0.586581,2.50157,0
45110,-1.71541,-0.584022,2.51894,0
45130,-1.72356,-0.581542,2.53769,0
45150,-1.73255,-0.580023,2.55686,0
45170,-1.74217,-0.579234,2.57667,0
45190,-1.75082,-0.578617,2.59641,0
45210,-1.76009,-0.577776,2.61679,0
45230,-1.77016,-0.578246,2.63775,0
45250,-1.78127,-0.579484,2.65891,0
45270,-1.79372,-0.581365,2.6806,0
45290,-1.80726,-0.584868,2.70354,0
45310,-1.82122,-0.589372,2.72748,0
45330,-1.83401,-0.595504,2.75065,0
45350,-1.84607,-0.602695,2.77282,0
45370,-1.85623,-0.608564,2.79383,0
45390,-1.86876,-0.614298,2.81611,0
45410,-1.88287,-0.621509,2.83891,0
45430,-1.89593,-0.6279,2.86014,0
45450,-1.90676,-0.632742,2.8794,0
45470,-1.91916,-0.638357,2.89961,0
45490,-1.93381,-0.645433,2.91964,0
45510,-1.94504,-0.651745,2.93608,0
45530,-1.95299,-0.657063,2.95009,0
45550,-1.96232,-0.663532,2.96463,0
45570,-1.97155,-0.67294,2.97836,0
45590,-1.97695,-0.684435,2.98817,0
45610,-1.97916,-0.697778,2.99463,0
45630,-1.9814,-0.712847,3.00075,0
45650,-1.98538,-0.729615,3.00548,0
45670,-1.98559,-0.746798,3.00612,0
45690,-1.98234,-0.765232,3.00381,0
45710,-1.97773,-0.785669,2.99919,0
45730,-1.97467,-0.80587,2.99254,0
45750,-1.97269,-0.82697,2.984,0
45770,-1.96721,-0.849567,2.97202,0
45790,-1.95859,-0.873796,2.95756,0
45810,-1.95037,-0.897236,2.9415,0
45830,-1.94279,-0.920308,2.92476,0
45850,-1.93428,-0.944188,2.90515,0
45870,-1.92201,-0.968261,2.8825,0
45890,-1.90823,-0.991766,2.85837,0
45910,-1.8926,-1.01277,2.83144,0
45930,-1.87371,-1.03332,2.80048,0
45950,-1.85207,-1.05376,2.76783,0
45970,-1.83033,-1.07298,2.73458,0
45990,-1.80649,-1.08939,2.69834,0
46010,-1.78186,-1.1034,2.66096,0
46030,-1.75546,-1.11564,2.6229,0
46050,-1.72502,-1.12676,2.58124,0
46070,-1.68929,-1.13705,2.53494,0
46090,-1.65272,-1.14499,2.48882,0
46110,-1.6184,-1.15006,2.44496,0
46130,-1.58541,-1.15294,2.40186,0
46150,-1.54977,-1.15385,2.35686,0
46170,-1.51264,-1.15282,2.31199,0
46190,-1.47723,-1.14945,2.26915,0
46210,-1.44577,-1.1444,2.23054,0
46230,-1.41926,-1.13832,2.19805,0
46250,-1.39627,-1.12974,2.1692,0
46270,-1.37539,-1.11951,2.14238,0
46290,-1.35568,-1.10738,2.11805,0
46310,-1.33992,-1.09364,2.09829,0
46330,-1.3276,-1.07957,2.0818,0
46350,-1.31799,-1.06433,2.06817,0
46370,-1.31125,-1.04702,2.05786,0
46390,-1.30671,-1.02941,2.04962,0
46410,-1.30439,-1.01199,2.04383,0
46430,-1.30396,-0.994476,2.04072,0
46450,-1.30514,-0.97682,2.0401,0
46460,-1.30698,-0.959929,2.04115,0
46480,-1.31106,-0.943495,2.04394,0
46500,-1.31588,-0.927436,2.04837,0
46520,-1.32196,-0.911763,2.05422,0
46540,-1.32961,-0.896596,2.06243,0
46560,-1.33928,-0.882907,2.07228,0
46580,-1.34983,-0.870532,2.08281,0
46600,-1.36078,-0.858849,2.0947,0
46620,-1.37214,-0.847428,2.10837,0
46640,-1.3841,-0.837317,2.12341,0
46660,-1.39674,-0.828404,2.13911,0
46680,-1.40924,-0.820394,2.15509,0
46700,-1.42123,-0.812381,2.17165,0
46720,-1.43299,-0.804535,2.18857,0
46740,-1.44566,-0.797581,2.20612,0
46760,-1.45815,-0.790334,2.22415,0
46780,-1.47188,-0.783385,2.24326,0
46800,-1.48615,-0.776497,2.26263,0
46820,-1.49996,-0.770171,2.28201,0
46840,-1.51359,-0.764752,2.30192,0
46860,-1.52704,-0.760177,2.32255,0
46880,-1.5409,-0.756498,2.34379,0
46900,-1.55545,-0.753202,2.36552,0
46920,-1.57145,-0.74963,2.38869,0
46940,-1.58819,-0.745596,2.4129,0
46960,-1.60551,-0.742929,2.43735,0
46980,-1.62271,-0.740519,2.46172,0
47000,-1.63951,-0.737332,2.48625,0
47020,-1.65693,-0.73423,2.51136,0
47040,-1.67512,-0.73227,2.53672,0
47060,-1.69154,-0.730336,2.56052,0
47080,-1.70593,-0.728352,2.5831,0
47100,-1.71943,-0.726989,2.60549,0
47120,-1.7326,-0.726565,2.62743,0
47140,-1.74568,-0.727227,2.64876,0
47160,-1.75692,-0.728715,2.66875,0
47180,-1.76884,-0.730494,2.68934,0
47200,-1.78258,-0.733128,2.71049,0
47220,-1.79561,-0.736021,2.73049,0
47240,-1.80642,-0.738691,2.74867,0
47260,-1.8174,-0.742302,2.76666,0
47280,-1.82865,-0.746789,2.78441,0
47300,-1.83713,-0.75116,2.80003,0
47320,-1.84381,-0.755782,2.81437,0
47340,-1.85166,-0.761272,2.82908,0
47360,-1.86089,-0.767462,2.84426,0
47380,-1.86995,-0.773913,2.8592,0
47400,-1.87733,-0.780305,2.87347,0
47420,-1.88591,-0.786703,2.88888,0
47440,-1.89733,-0.794564,2.90539,0
47460,-1.90981,-0.802718,2.92195,0
47480,-1.92201,-0.809973,2.93825,0
47500,-1.93393,-0.817044,2.95445,0
47520,-1.94577,-0.824938,2.97087,0
47540,-1.95655,-0.833748,2.98715,0
47560,-1.96714,-0.842181,3.00288,0
47580,-1.97689,-0.850636,3.01766,0
47600,-1.98554,-0.85976,3.03153,0
47620,-1.99328,-0.870218,3.04481,0
47640,-2.00017,-0.879694,3.05669,0
47660,-2.00689,-0.889016,3.06694,0
47680,-2.01299,-0.898371,3.07647,0
47700,-2.01877,-0.908319,3.08539,0
47720,-2.02411,-0.918345,3.09367,0
47740,-2.02921,-0.927718,3.10105,0
47760,-2.03443,-0.936229,3.10815,0
47780,-2.041,-0.94504,3.11584,0
47800,-2.04667,-0.954282,3.12254,0
47820,-2.05037,-0.963561,3.1278,0
47840,-2.0543,-0.971816,3.1334,0
47860,-2.05852,-0.97932,3.13902,0
47880,-2.06262,-0.986549,-3.13904,0
47900,-2.06519,-0.993609,-3.13494,2001
47920,-2.06811,-0.999968,-3.13097,0
47940,-2.0701,-1.00542,-3.12809,0
47960,-2.0697,-1.01045,-3.12836,0
47980,-2.06736,-1.01437,-3.13,0
48000,-2.0656,-1.01733,-3.13177,0
48020,-2.06304,-1.01962,-3.1357,0
48040,-2.05838,-1.02119,-3.14121,0
48060,-2.05418,-1.02142,3.13687,0
48080,-2.05368,-1.02119,3.13347,0
48100,-2.05769,-1.01971,3.13188,0
48120,-2.06247,-1.01636,3.13136,0
48140,-2.0643,-1.01125,3.1288,0
48160,-2.05978,-1.00535,3.12205,0
48180,-2.04977,-1.00069,3.11222,0
48200,-2.04066,-0.997575,3.10278,0
48220,-2.03087,-0.992221,3.09067,0
48240,-2.02059,-0.984803,3.07497,0
48260,-2.0085,-0.97689,3.05658,0
48280,-1.99316,-0.968772,3.03472,0
48300,-1.97645,-0.958159,3.01002,0
48320,-1.96193,-0.945157,2.98369,0
48340,-1.94862,-0.929648,2.95582,0
48360,-1.93454,-0.912231,2.92681,0
48380,-1.92067,-0.892496,2.89942,0
48400,-1.91035,-0.872163,2.87509,0
48420,-1.90104,-0.850926,2.85163,0
48440,-1.89278,-0.829437,2.82828,0
48450,-1.88041,-0.807222,2.80294,0
48470,-1.86589,-0.783801,2.77917,0
48490,-1.85277,-0.758978,2.75847,0
48510,-1.84113,-0.731831,2.73891,0
48530,-1.83049,-0.702871,2.72099,0
48550,-1.81845,-0.675543,2.70452,0
48570,-1.80726,-0.649112,2.69105,0
48590,-1.79867,-0.620103,2.68174,0
48610,-1.79257,-0.590553,2.67568,0
48630,-1.78898,-0.562653,2.67136,0
48650,-1.78507,-0.534889,2.66716,0
48670,-1.78165,-0.507258,2.66439,0
48690,-1.77819,-0.481217,2.66404,0
48710,-1.77417,-0.457063,2.66511,0
48730,-1.77103,-0.433757,2.66865,0
48750,-1.76969,-0.412308,2.67315,0
48770,-1.76796,-0.392544,2.67768,0
48790,-1.76428,-0.374844,2.68247,0
48810,-1.75936,-0.359362,2.68841,0
48830,-1.7557,-0.346847,2.69521,0
48850,-1.75171,-0.335892,2.70161,0
48870,-1.74793,-0.326455,2.70817,0
48890,-1.74379,-0.319651,2.71416,0
48910,-1.73961,-0.314972,2.71834,0
48930,-1.73429,-0.310214,2.72197,0
48950,-1.72735,-0.306246,2.72597,0
48970,-1.72156,-0.305255,2.72985,0
48990,-1.71808,-0.304507,2.73308,0
49010,-1.7161,-0.303116,2.73545,0
49030,-1.71372,-0.30236,2.73779,0
49050,-1.71088,-0.302531,2.74063,0
49070,-1.7094,-0.303775,2.74376,0
49090,-1.70875,-0.304509,2.74664,0
49110,-1.70892,-0.30453,2.74946,0
49130,-1.7093,-0.30424,2.75228,0
49150,-1.71007,-0.304089,2.7554,0
49170,-1.71166,-0.303609,2.75813,0
49190,-1.71229,-0.303417,2.76044,0
49210,-1.71257,-0.303211,2.76217,0
49230,-1.71364,-0.302431,2.76414,0
49250,-1.71587,-0.301035,2.76655,0
49270,-1.71796,-0.299762,2.7683,0
49290,-1.71927,-0.298269,2.76981,0
49310,-1.72078,-0.297453,2.77115,0
49330,-1.72248,-0.297399,2.77237,0
49350,-1.72341,-0.29812,2.77317,2000
49360,-1.72375,-0.298976,2.77412,0
49390,-1.72622,-0.30527,2.78139,0
49410,-1.72599,-0.306411,2.78194,0
49430,-1.72559,-0.308736,2.78191,0
49450,-1.72545,-0.311105,2.78109,0
49470,-1.72511,-0.31251,2.77981,0
49490,-1.72494,-0.312181,2.77924,0
49510,-1.7261,-0.311255,2.78004,0
49530,-1.72746,-0.310572,2.7806,0
49550,-1.72964,-0.310335,2.78096,0
49570,-1.73145,-0.309182,2.7809,0
49590,-1.73268,-0.307693,2.78045,0
49610,-1.73447,-0.307145,2.78052,0
49630,-1.73581,-0.304774,2.78181,0
49650,-1.7367,-0.302106,2.78341,0
49670,-1.73724,-0.300478,2.78461,0
49690,-1.73836,-0.299281,2.78612,0
49710,-1.73868,-0.296906,2.78729,0
49730,-1.73763,-0.295034,2.78796,0
49750,-1.73601,-0.293423,2.7885,0
49770,-1.7339,-0.291061,2.79024,0
49790,-1.73234,-0.29031,2.79285,0
49810,-1.73138,-0.290003,2.79571,0
49830,-1.73098,-0.289324,2.79893,0
49850,-1.73079,-0.288763,2.80225,0
49870,-1.73096,-0.288736,2.80619,0
49890,-1.73148,-0.28936,2.81129,0
49910,-1.73184,-0.291268,2.81649,0
49930,-1.73241,-0.294895,2.82254,0
49940,-1.73399,-0.300084,2.82967,0
49960,-1.73648,-0.305421,2.8375,0
49980,-1.73907,-0.310987,2.84566,0
50000,-1.7401,-0.315181,2.85344,0
50020,-1.74076,-0.318246,2.86207,0
50040,-1.74332,-0.32207,2.87124,0
50060,-1.74679,-0.326047,2.88002,0
50080,-1.74956,-0.329929,2.88851,0
50100,-1.7508,-0.333822,2.89642,0
50120,-1.75147,-0.337135,2.90403,0
50140,-1.75192,-0.341803,2.91108,0
50160,-1.7517,-0.347652,2.91715,0
50180,-1.74961,-0.354077,2.92222,0
50200,-1.74745,-0.359826,2.92624,0
50220,-1.7469,-0.365394,2.92972,0
50240,-1.74707,-0.372114,2.93243,0
50260,-1.74764,-0.379124,2.93373,0
50280,-1.74773,-0.385969,2.93359,0
50300,-1.7471,-0.3924,2.93249,0
50320,-1.74701,-0.399377,2.93188,0
50340,-1.74746,-0.408464,2.93123,0
50360,-1.74752,-0.417418,2.92837,0
50380,-1.74623,-0.425245,2.9228,0
50400,-1.74325,-0.432137,2.91572,0
50420,-1.74042,-0.440669,2.90776,0
50440,-1.73792,-0.449583,2.89842,0
50460,-1.7345,-0.458555,2.88718,0
50480,-1.7307,-0.468404,2.87485,0
50500,-1.7261,-0.479521,2.86041,0
50520,-1.72176,-0.490577,2.84458,0
50540,-1.7177,-0.502394,2.82788,0
50560,-1.71316,-0.514591,2.80957,0
50580,-1.70901,-0.526725,2.79103,0
50600,-1.70531,-0.539415,2.77193,0
50620,-1.70186,-0.551487,2.75104,0
50640,-1.69795,-0.563816,2.72849,0
50650,-1.69426,-0.5759,2.70579,0
50670,-1.69126,-0.588278,2.68271,0
50690,-1.68901,-0.601169,2.65858,0
50710,-1.68543,-0.614081,2.63276,0
50730,-1.68038,-0.627265,2.60544,0
50750,-1.67467,-0.640133,2.57702,0
50770,-1.66989,-0.652567,2.54781,0
50790,-1.66423,-0.664055,2.51815,0
50810,-1.65569,-0.675329,2.48653,0
50830,-1.64625,-0.686264,2.45485,0
50850,-1.63664,-0.69573,2.42237,0
50870,-1.62597,-0.702998,2.38946,0
50890,-1.61358,-0.70872,2.35653,0
50910,-1.59961,-0.713884,2.32465,0
50920,-1.57185,-0.718849,2.26404,0
50940,-1.55603,-0.717413,2.23456,0
50960,-1.54067,-0.71644,2.20745,0
50980,-1.52775,-0.714972,2.18181,0
51000,-1.51503,-0.709837,2.15736,0
51020,-1.50344,-0.704352,2.13651,0
51040,-1.49314,-0.700024,2.11742,0
51060,-1.48526,-0.694392,2.10061,0
51080,-1.47945,-0.68776,2.08648,0
51100,-1.47441,-0.68287,2.07435,0
51120,-1.46985,-0.678844,2.06288,0
51140,-1.46645,-0.672271,2.05304,0
51160,-1.46368,-0.664327,2.04559,0
51180,-1.46139,-0.659158,2.03946,0
51200,-1.46071,-0.655479,2.034,0
51230,-1.46324,-0.636391,2.02845,0
51250,-1.46603,-0.63153,2.02894,0
51260,-1.46914,-0.625739,2.03049,0
51280,-1.47325,-0.619438,2.03369,0
51300,-1.47681,-0.613294,2.03747,0
51320,-1.48058,-0.607547,2.0424,0
51340,-1.48462,-0.602187,2.04819,0
51360,-1.49023,-0.595768,2.05588,0
51380,-1.49626,-0.589316,2.06507,0
51400,-1.50192,-0.584404,2.07514,0
51420,-1.50799,-0.579478,2.08582,0
51440,-1.51528,-0.574321,2.09762,0
51460,-1.52262,-0.569602,2.11013,0
51480,-1.52923,-0.565784,2.12296,0
51500,-1.53518,-0.56188,2.13574,0
51520,-1.54092,-0.55789,2.14912,0
51540,-1.54728,-0.554641,2.16298,0
51560,-1.55345,-0.551973,2.17687,0
51580,-1.55894,-0.549355,2.19064,0
51600,-1.56471,-0.546994,2.2049,0
51620,-1.57064,-0.544474,2.21983,0
51640,-1.57697,-0.541779,2.23519,0
51660,-1.58311,-0.539664,2.25104,0
51680,-1.58898,-0.53788,2.26694,0
51700,-1.59538,-0.535433,2.28341,0
51710,-1.60204,-0.532738,2.30014,0
51730,-1.60888,-0.529784,2.31759,0
51750,-1.61585,-0.526543,2.335,0
51770,-1.62188,-0.522514,2.3522,0
51790,-1.62773,-0.518453,2.3695,0
51810,-1.63454,-0.515048,2.38746,0
51830,-1.64088,-0.511093,2.40497,0
51850,-1.64626,-0.505843,2.42273,0
51870,-1.65134,-0.501072,2.44092,0
51890,-1.65607,-0.49729,2.45839,0
51910,-1.6605,-0.492631,2.47585,0
51930,-1.66537,-0.487763,2.49388,0
51950,-1.66955,-0.484606,2.51191,0
51970,-1.67318,-0.482511,2.52956,0
51990,-1.67676,-0.47987,2.5469,0
52010,-1.68131,-0.47656,2.56448,0
52030,-1.68635,-0.474105,2.58212,0
52050,-1.69112,-0.472722,2.59909,0
52070,-1.69521,-0.470993,2.6155,0
52090,-1.699,-0.468568,2.63149,0
52110,-1.70331,-0.466776,2.64773,0
52130,-1.70754,-0.465796,2.66366,0
52150,-1.71106,-0.464421,2.67955,0
52170,-1.71529,-0.462821,2.69557,0
52190,-1.72006,-0.461361,2.71193,0
52210,-1.72582,-0.460785,2.72855,0
52230,-1.73093,-0.460844,2.74427,0
52250,-1.73469,-0.460448,2.75946,0
52270,-1.7395,-0.460504,2.77602,0
52290,-1.74651,-0.462403,2.79328,0
52310,-1.75366,-0.465526,2.80962,0
52330,-1.75871,-0.468919,2.82442,0
52350,-1.76286,-0.471735,2.84001,0
52370,-1.76984,-0.475818,2.85742,0
52390,-1.77953,-0.480818,2.87467,0
52410,-1.78769,-0.485439,2.89066,0
52430,-1.79354,-0.48952,2.90567,0
52450,-1.80005,-0.49394,2.92152,0
52470,-1.80869,-0.499759,2.93681,0
52490,-1.81605,-0.506239,2.95,0
52510,-1.8216,-0.512328,2.96151,0
52530,-1.82776,-0.517642,2.97304,0
52550,-1.83495,-0.52319,2.98411,0
52570,-1.84043,-0.529942,2.99229,0
52590,-1.84376,-0.536024,2.99859,0
52610,-1.84819,-0.541641,3.00608,0
52630,-1.85564,-0.548411,3.01339,0
52650,-1.86337,-0.555771,3.01928,0
52670,-1.86769,-0.563668,3.02181,0
52690,-1.87078,-0.571726,3.02339,0
52710,-1.87527,-0.580539,3.02569,0
52730,-1.88082,-0.590977,3.02673,0
52750,-1.88408,-0.602301,3.02452,0
52770,-1.88444,-0.613232,3.01989,0
52790,-1.88613,-0.62415,3.01559,0
52810,-1.88796,-0.636453,3.00973,0
52830,-1.88833,-0.650104,3.00172,0
52850,-1.88668,-0.663437,2.9922,0
52870,-1.88618,-0.675279,2.98327,0
52890,-1.88839,-0.686622,2.97485,0
52910,-1.88932,-0.69839,2.96498,0
52930,-1.88833,-0.708942,2.95377,0
52950,-1.88772,-0.719626,2.94196,0
52970,-1.8885,-0.7301,2.93028,0
52990,-1.88909,-0.74064,2.91752,0
53010,-1.88745,-0.751744,2.90295,0
53030,-1.88578,-0.762547,2.88794,0
53050,-1.88448,-0.772626,2.87231,0
53070,-1.88259,-0.782537,2.85555,0
53090,-1.87825,-0.79415,2.83542,0
53110,-1.87248,-0.80761,2.81436,0
53130,-1.86751,-0.821392,2.79302,0
53150,-1.86177,-0.833942,2.77061,0
53170,-1.85443,-0.846117,2.74743,0
53190,-1.84506,-0.859304,2.72331,0
53210,-1.83606,-0.873434,2.69956,0
53230,-1.82594,-0.886759,2.67317,0
53250,-1.81284,-0.898399,2.64414,0
53270,-1.79679,-0.909793,2.61432,0
53290,-1.77948,-0.92097,2.58433,0
53310,-1.76206,-0.930918,2.55444,0
53330,-1.74402,-0.938808,2.52417,0
53350,-1.7245,-0.945163,2.49314,0
53370,-1.70382,-0.949746,2.46125,0
53390,-1.6808,-0.95299,2.42854,0
53410,-1.65756,-0.954839,2.39731,0
53430,-1.63576,-0.956265,2.36792,0
53450,-1.61355,-0.957564,2.33784,0
53470,-1.59262,-0.958228,2.30829,0
53490,-1.57186,-0.956567,2.27982,0
53510,-1.55298,-0.953473,2.25407,0
53530,-1.53455,-0.950067,2.22897,0
53550,-1.51628,-0.945919,2.20434,0
53570,-1.50002,-0.940465,2.18228,0
53590,-1.48705,-0.935032,2.16255,0
53610,-1.47431,-0.928828,2.1426,0
53630,-1.46187,-0.921638,2.12434,0
53650,-1.45104,-0.913744,2.10868,0
53670,-1.44283,-0.905745,2.09589,0
53680,-1.43611,-0.897374,2.085,0
53700,-1.43078,-0.888337,2.07613,0
53720,-1.4275,-0.879389,2.06994,0
53740,-1.42565,-0.869194,2.06586,0
53760,-1.42511,-0.859404,2.06352,0
53780,-1.4248,-0.849847,2.06235,0
53800,-1.42659,-0.840872,2.06389,0
53820,-1.43009,-0.831334,2.06606,0
53840,-1.43444,-0.821073,2.06948,0
53860,-1.43883,-0.811089,2.07363,0
53880,-1.44498,-0.802402,2.08002,0
53900,-1.452,-0.792917,2.08825,0
53920,-1.45902,-0.78333,2.09616,0
53940,-1.46601,-0.774286,2.10429,0
53960,-1.47344,-0.765449,2.11347,0
53980,-1.48127,-0.756385,2.12299,0
54000,-1.48951,-0.748174,2.13279,0
54020,-1.49708,-0.739893,2.14295,0
54040,-1.5039,-0.730657,2.15347,0
54060,-1.5108,-0.722829,2.16423,0
54080,-1.51761,-0.715812,2.17508,0
54100,-1.5244,-0.709652,2.18639,0
54120,-1.53084,-0.702789,2.19847,0
54140,-1.53794,-0.696797,2.2111,0
54160,-1.54574,-0.691934,2.22393,0
54180,-1.55299,-0.686845,2.23706,0
54200,-1.56076,-0.680716,2.25056,0
54220,-1.56811,-0.67491,2.26453,0
54240,-1.57503,-0.669379,2.27925,0
54260,-1.58266,-0.664764,2.29459,0
54280,-1.59006,-0.660039,2.30982,0
54300,-1.59722,-0.654612,2.32554,0
54320,-1.60486,-0.649453,2.34264,0
54340,-1.61286,-0.645153,2.36005,0
54360,-1.6213,-0.641244,2.37768,0
54380,-1.62844,-0.636754,2.39478,0
54400,-1.63488,-0.631685,2.41238,0
54420,-1.64285,-0.627659,2.4307,0
54440,-1.65109,-0.624129,2.44916,0
54460,-1.65873,-0.620172,2.46731,0
54480,-1.6664,-0.616078,2.48553,0
54500,-1.67391,-0.612713,2.50387,0
54520,-1.68172,-0.60986,2.5223,0
54540,-1.68876,-0.607116,2.54031,0
54560,-1.69585,-0.604538,2.55841,0
54580,-1.70228,-0.60289,2.57585,0
54600,-1.70858,-0.601487,2.59368,0
54620,-1.71506,-0.600527,2.61221,0
54640,-1.72229,-0.601052,2.63125,0
54660,-1.72981,-0.601959,2.65006,0
54680,-1.73586,-0.602257,2.66865,0
54700,-1.74362,-0.603348,2.68877,0
54720,-1.75347,-0.605703,2.70996,0
54740,-1.76347,-0.608624,2.73048,0
54760,-1.7713,-0.610747,2.74978,0
54780,-1.7787,-0.612418,2.76948,0
54800,-1.78975,-0.615782,2.79048,0
54820,-1.80115,-0.621157,2.81032,0
54840,-1.80971,-0.625519,2.8283,0
54860,-1.81741,-0.629805,2.84644,0
54880,-1.82663,-0.636313,2.865,0
54900,-1.8356,-0.643288,2.88257,0
54920,-1.84393,-0.650386,2.8995,0
54940,-1.85237,-0.657194,2.91652,0
54960,-1.86243,-0.664639,2.93313,0
54980,-1.87119,-0.672729,2.9481,0
55000,-1.87856,-0.681113,2.96217,0
55020,-1.88605,-0.690272,2.97592,0
55040,-1.89592,-0.700086,2.98912,0
55060,-1.90423,-0.709302,2.99967,0
55080,-1.90972,-0.719215,3.00911,0
55100,-1.91582,-0.730595,3.01922,0
55120,-1.92397,-0.743168,3.02866,0
55140,-1.93135,-0.754666,3.03645,0
55160,-1.9361,-0.767145,3.04237,0
55180,-1.94273,-0.780989,3.04951,0
55200,-1.95024,-0.795644,3.05598,0
55220,-1.95683,-0.80954,3.06033,0
55240,-1.96256,-0.824009,3.06402,0
55260,-1.96791,-0.840015,3.06742,0
55280,-1.97259,-0.856095,3.06915,0
55300,-1.97595,-0.872016,3.06871,0
55320,-1.97933,-0.888127,3.0668,0
55340,-1.98076,-0.904668,3.06225,0
55360,-1.98059,-0.921529,3.05605,0
55380,-1.98051,-0.93872,3.04919,0
55400,-1.97971,-0.955826,3.04005,0
55420,-1.97548,-0.973329,3.02707,0
55440,-1.96848,-0.990642,3.01168,0
55460,-1.96147,-1.00694,2.99529,0
55480,-1.95416,-1.0232,2.9772,0
55500,-1.94176,-1.03922,2.95327,0
55520,-1.927,-1.055,2.92746,0
55540,-1.91168,-1.06991,2.90112,0
55560,-1.89617,-1.08331,2.87346,0
55580,-1.87919,-1.09638,2.8441,0
55600,-1.85858,-1.10926,2.8119,0
55620,-1.83761,-1.12144,2.77993,0
55640,-1.81477,-1.13242,2.74589,0
55660,-1.79023,-1.14157,2.70976,0
55680,-1.76352,-1.14926,2.67202,0
55700,-1.73279,-1.15564,2.63134,0
55720,-1.70162,-1.1609,2.59023,0
55740,-1.6684,-1.16496,2.54787,0
55760,-1.63408,-1.168,2.50448,0
55780,-1.59791,-1.16949,2.45973,0
55800,-1.55861,-1.16943,2.4134,0
55820,-1.52048,-1.16714,2.36914,0
55840,-1.48512,-1.16373,2.32792,0
55860,-1.45033,-1.15981,2.28725,0
55880,-1.41564,-1.15376,2.24686,0
55900,-1.38475,-1.14584,2.21098,0
55920,-1.3559,-1.13688,2.17727,0
55940,-1.32881,-1.12666,2.14559,0
55960,-1.3049,-1.11562,2.1169,0
55980,-1.28555,-1.10489,2.09324,0
56000,-1.26804,-1.09334,2.07157,0
56020,-1.25271,-1.07995,2.05178,0
56040,-1.24191,-1.06665,2.036,0
56060,-1.23296,-1.05382,2.02295,0
56080,-1.22753,-1.04066,2.01367,0
56100,-1.22405,-1.0272,2.0066,0
56120,-1.22286,-1.01427,2.00232,0
56140,-1.22317,-1.00141,2.00078,0
56160,-1.22495,-0.989516,2.00117,0
56180,-1.22974,-0.978342,2.00481,0
56200,-1.23619,-0.967947,2.01005,0
56220,-1.24371,-0.957879,2.01687,0
56240,-1.2522,-0.947566,2.02467,0
56260,-1.26224,-0.937334,2.03428,0
56280,-1.27446,-0.92775,2.04516,0
56300,-1.28771,-0.918743,2.05734,0
56320,-1.301,-0.909572,2.07043,0
56340,-1.31409,-0.90021,2.08375,0
56360,-1.32874,-0.892008,2.09845,0
56380,-1.34433,-0.88381,2.11358,0
56400,-1.36073,-0.875722,2.12945,0
56420,-1.37693,-0.868448,2.14594,0
56440,-1.39266,-0.861124,2.16257,0
56460,-1.40867,-0.853936,2.17985,0
56480,-1.42137,-0.847293,2.19567,0
56500,-1.43217,-0.840819,2.21146,0
56520,-1.44248,-0.835185,2.22795,0
56540,-1.45237,-0.830298,2.24577,0
56560,-1.46247,-0.825547,2.26465,0
56580,-1.47293,-0.821618,2.28446,0
56600,-1.4839,-0.817208,2.30512,0
56620,-1.4968,-0.812959,2.32717,0
56640,-1.50994,-0.80807,2.34942,0
56660,-1.52327,-0.803315,2.37145,0
56680,-1.5368,-0.798892,2.39323,0
56700,-1.54883,-0.794709,2.41363,0
56720,-1.56137,-0.790527,2.43461,0
56740,-1.57397,-0.786935,2.45594,0
56760,-1.58665,-0.783741,2.47739,0
56780,-1.59777,-0.781667,2.49748,0
56800,-1.61006,-0.780145,2.51855,0
56820,-1.62282,-0.779402,2.53984,0
56840,-1.63478,-0.779671,2.56123,0
56860,-1.64661,-0.780753,2.58274,0
56880,-1.65836,-0.781135,2.60449,0
56900,-1.6719,-0.781745,2.62708,0
56920,-1.68593,-0.783249,2.65003,0
56940,-1.69786,-0.784713,2.67094,0
56960,-1.70921,-0.785106,2.69133,0
56980,-1.72273,-0.785153,2.71299,0
57000,-1.73818,-0.785637,2.73546,0
57020,-1.75143,-0.787286,2.75659,0
57040,-1.76218,-0.788579,2.77603,0
57060,-1.77387,-0.789746,2.79661,0
57070,-1.7883,-0.79264,2.81829,0
57090,-1.8018,-0.796812,2.83894,0
57110,-1.81368,-0.801114,2.85912,0
57130,-1.82527,-0.805967,2.87929,0
57150,-1.83743,-0.811965,2.8998,0
57170,-1.84942,-0.818346,2.92009,0
57190,-1.86051,-0.8251,2.93999,0
57210,-1.87274,-0.833771,2.96033,0
57230,-1.8849,-0.84262,2.98074,0
57250,-1.89741,-0.850779,3.0011,0
57270,-1.9089,-0.859054,3.0206,0
57290,-1.92144,-0.867542,3.04024,0
57310,-1.93369,-0.874994,3.05942,0
57330,-1.94622,-0.882978,3.07699,0
57350,-1.9572,-0.890157,3.09234,0
57370,-1.96896,-0.895919,3.10748,0
57390,-1.98057,-0.900788,3.12172,0
57410,-1.99185,-0.905172,3.13487,0
57430,-2.00343,-0.911335,-3.13565,0
57450,-2.01538,-0.918595,-3.12406,0
57470,-2.02757,-0.924782,-3.11308,0
57490,-2.03856,-0.929818,-3.10333,0
57510,-2.04752,-0.935361,-3.09481,0
57530,-2.05503,-0.941722,-3.08829,0
57550,-2.06115,-0.947036,-3.08389,0
57570,-2.06514,-0.952202,-3.08187,0
57590,-2.06927,-0.957455,-3.0796,0
57610,-2.0732,-0.963572,-3.07878,0
57630,-2.07457,-0.968408,-3.0799,0
57650,-2.07531,-0.973258,-3.08168,0
57670,-2.07486,-0.977927,-3.08464,0
57690,-2.07425,-0.981257,-3.08786,0
57710,-2.07402,-0.985199,-3.09028,0
57730,-2.07476,-0.990085,-3.09189,2001
57750,-2.07543,-0.994589,-3.09382,0
57770,-2.074,-0.998144,-3.09684,0
57790,-2.07372,-1.00198,-3.09875,0
57810,-2.07213,-1.00651,-3.10144,0
57830,-2.06992,-1.01128,-3.10379,0
57850,-2.06896,-1.01567,-3.1046,0
57870,-2.06908,-1.01833,-3.10448,0
57890,-2.0689,-1.02144,-3.10476,0
57910,-2.06579,-1.02452,-3.10731,0
57930,-2.06544,-1.02664,-3.10845,0
57950,-2.06482,-1.02585,-3.11047,0
57970,-2.06724,-1.02308,-3.10992,0
57990,-2.07055,-1.02031,-3.10891,0
58010,-2.07259,-1.01739,-3.10819,0
58030,-2.07656,-1.01312,-3.10729,0
58050,-2.08105,-1.0075,-3.10643,0
58070,-2.0838,-1.00245,-3.10545,0
58090,-2.0818,-0.998257,-3.107,0
58110,-2.07676,-0.995351,-3.11207,0
58130,-2.07045,-0.990504,-3.12037,0
58150,-2.06155,-0.981689,-3.13333,0
58170,-2.04932,-0.968674,3.1317,0
58190,-2.03161,-0.954353,3.1061,0
58210,-2.00824,-0.937841,3.07481,0
58230,-1.98196,-0.916458,3.04072,0
58250,-1.95919,-0.890044,3.00565,0
58270,-1.93729,-0.860337,2.96918,0
58290,-1.91885,-0.826267,2.93444,0
58310,-1.90097,-0.788377,2.90131,0
58330,-1.88129,-0.748786,2.86996,0
58350,-1.86293,-0.707879,2.84141,0
58370,-1.8503,-0.665831,2.81672,0
58390,-1.84004,-0.623644,2.79481,0
58410,-1.82772,-0.584455,2.77602,0
58430,-1.81442,-0.548966,2.76115,0
58450,-1.80251,-0.514671,2.74917,0
58470,-1.78906,-0.479262,2.73949,0
58490,-1.77586,-0.447067,2.73239,0
58510,-1.76531,-0.421519,2.72936,0
58530,-1.75705,-0.397869,2.72974,0
58550,-1.75123,-0.374022,2.73226,0
58570,-1.74732,-0.352789,2.73659,0
58590,-1.74596,-0.335414,2.74304,0
58610,-1.74428,-0.321823,2.74981,0
58630,-1.74286,-0.311537,2.75588,0
58650,-1.74228,-0.303254,2.76177,0
58670,-1.74246,-0.297131,2.76815,0
58690,-1.74143,-0.293746,2.77424,0
58710,-1.74119,-0.29304,2.78011,0
58730,-1.74162,-0.294288,2.78555,0
58750,-1.74291,-0.296406,2.79024,0
58770,-1.74488,-0.297836,2.79423,0
58790,-1.7467,-0.298079,2.79744,0
58810,-1.74777,-0.296706,2.79956,0
58830,-1.74769,-0.294673,2.80091,0
58850,-1.74803,-0.292692,2.80173,0
58870,-1.74882,-0.289363,2.80187,0
58890,-1.74827,-0.285066,2.80058,0
58910,-1.74583,-0.280802,2.79823,0
58930,-1.74221,-0.276375,2.79613,0
58940,-1.74016,-0.271975,2.7948,0
58970,-1.73894,-0.267204,2.7934,0
58990,-1.73829,-0.262393,2.79253,0
59010,-1.73819,-0.257846,2.79265,0
59030,-1.73824,-0.25362,2.79337,0
59050,-1.73752,-0.250003,2.79368,0
59070,-1.73637,-0.246722,2.79425,0
59080,-1.73498,-0.244791,2.79503,0
59100,-1.73388,-0.245016,2.79603,0
59120,-1.73183,-0.246977,2.79649,0
59140,-1.72989,-0.24954,2.79735,0
59160,-1.72797,-0.252465,2.79818,2000
59180,-1.72641,-0.254468,2.80005,0
59200,-1.72693,-0.257217,2.80268,0
59220,-1.72681,-0.259747,2.80369,0
59250,-1.72961,-0.263466,2.80513,0
59270,-1.73175,-0.264816,2.80522,0
59290,-1.73349,-0.264445,2.80585,0
59310,-1.73487,-0.262028,2.80681,0
59330,-1.73783,-0.259028,2.80759,0
59350,-1.73887,-0.258396,2.80698,0
59380,-1.74039,-0.255326,2.80598,0
59390,-1.73952,-0.254971,2.80702,0
59400,-1.73905,-0.256241,2.80759,0
59420,-1.73824,-0.256133,2.80808,0
59440,-1.73856,-0.255081,2.80938,0
59460,-1.73846,-0.253937,2.81084,0
59480,-1.73775,-0.252,2.81294,0
59500,-1.73624,-0.250448,2.81513,0
59520,-1.73521,-0.25017,2.81865,0
59540,-1.73467,-0.251623,2.82338,0
59560,-1.73393,-0.25376,2.82889,0
59580,-1.73298,-0.25642,2.83504,0
59600,-1.73202,-0.260572,2.84218,0
59620,-1.73112,-0.265782,2.85035,0
59640,-1.73191,-0.27334,2.85888,0
59660,-1.73174,-0.282311,2.86674,0
59680,-1.72955,-0.291371,2.87435,0
59700,-1.72614,-0.299469,2.88291,0
59720,-1.72361,-0.30704,2.89221,0
59730,-1.72235,-0.313513,2.90115,0
59750,-1.7218,-0.319697,2.90954,0
59770,-1.72188,-0.325111,2.91763,0
59790,-1.72297,-0.329888,2.92541,0
59810,-1.72359,-0.335448,2.93274,0
59830,-1.72383,-0.341937,2.93997,0
59850,-1.7231,-0.349484,2.94701,0
59870,-1.72207,-0.359145,2.95298,0
59890,-1.72054,-0.36915,2.95754,0
59910,-1.71809,-0.379636,2.96079,0
59930,-1.71497,-0.391395,2.9621,0
59950,-1.70988,-0.403128,2.96057,0
59970,-1.70395,-0.413652,2.95767,0
59990,-1.69845,-0.424617,2.95428,0
60010,-1.69462,-0.435779,2.94966,0
60030,-1.69235,-0.445797,2.94484,0
60050,-1.69074,-0.456163,2.94004,0
60070,-1.69094,-0.467566,2.93406,0
60090,-1.69184,-0.478218,2.92686,0
60120,-1.69238,-0.4985,2.91076,0
60140,-1.69305,-0.510897,2.90176,0
60150,-1.69426,-0.523309,2.89214,0
60180,-1.69467,-0.549182,2.86908,0
60200,-1.69429,-0.563015,2.85544,0
60220,-1.69395,-0.575374,2.84096,0
60240,-1.6923,-0.586751,2.82562,0
60260,-1.69012,-0.597106,2.80929,0
60280,-1.68678,-0.607511,2.79165,0
60300,-1.68496,-0.618617,2.77334,0
60320,-1.68294,-0.629606,2.75315,0
60340,-1.67976,-0.639488,2.73154,0
60360,-1.6747,-0.650298,2.70837,0
60380,-1.66829,-0.661486,2.6837,0
60400,-1.66199,-0.672397,2.65796,0
60420,-1.65535,-0.682713,2.6314,0
60440,-1.64601,-0.693069,2.60319,0
60460,-1.63576,-0.703254,2.57511,0
60480,-1.62506,-0.71311,2.54739,0
60500,-1.61382,-0.722423,2.51944,0
60520,-1.60181,-0.730804,2.49098,0
60530,-1.57827,-0.745988,2.4377,0
60550,-1.55372,-0.760107,2.38481,0
60560,-1.54002,-0.765855,2.35895,0
60580,-1.52686,-0.769581,2.33445,0
60600,-1.51441,-0.770434,2.31134,0
60620,-1.50308,-0.770835,2.28954,0
60640,-1.49283,-0.77093,2.26877,0
60660,-1.48276,-0.768923,2.24869,0
60680,-1.47362,-0.764723,2.22999,0
60700,-1.46451,-0.760122,2.2125,0
60720,-1.45649,-0.755947,2.19636,0
60740,-1.44851,-0.751235,2.18042,0
60760,-1.44041,-0.744751,2.16522,0
60780,-1.43339,-0.738141,2.15176,0
60800,-1.42798,-0.731981,2.14041,0
60820,-1.42395,-0.726134,2.13076,0
60840,-1.41951,-0.720212,2.12139,0
60860,-1.41551,-0.71451,2.1133,0
60880,-1.41363,-0.708903,2.10799,0
60900,-1.41384,-0.703801,2.1042,0
60920,-1.41463,-0.697811,2.10212,0
60940,-1.41543,-0.691674,2.10148,0
60960,-1.41731,-0.686312,2.10247,0
60980,-1.42812,-0.665727,2.11248,0
61000,-1.43435,-0.65818,2.11908,0
61010,-1.44058,-0.650629,2.12617,0
61030,-1.4467,-0.642078,2.13411,0
61050,-1.45295,-0.634065,2.1427,0
61070,-1.45947,-0.626785,2.15187,0
61090,-1.46606,-0.61943,2.16139,0
61110,-1.47169,-0.612986,2.17053,0
61130,-1.47594,-0.608341,2.17936,0
61150,-1.47993,-0.603711,2.18799,0
61170,-1.48473,-0.599024,2.19713,0
61190,-1.48909,-0.595044,2.20622,0
61210,-1.49318,-0.591855,2.21538,0
61230,-1.49742,-0.589249,2.2243,0
61250,-1.5014,-0.586395,2.23351,0
61270,-1.50643,-0.583092,2.24383,0
61290,-1.51189,-0.579564,2.25435,0
61310,-1.51691,-0.576144,2.26463,0
61330,-1.52248,-0.572674,2.27566,0
61350,-1.52759,-0.568871,2.28693,0
61370,-1.53263,-0.564941,2.29884,0
61390,-1.53764,-0.561117,2.3106,0
61410,-1.54308,-0.557004,2.32288,0
61430,-1.54813,-0.551878,2.33575,0
61450,-1.55308,-0.546751,2.34912,0
61470,-1.55817,-0.542173,2.36239,0
61490,-1.56329,-0.537204,2.37576,0
61510,-1.56813,-0.531029,2.38932,0
61530,-1.57235,-0.524344,2.40285,0
61550,-1.57618,-0.51853,2.4168,0
61570,-1.57951,-0.513509,2.43058,0
61590,-1.58267,-0.508244,2.44436,0
61610,-1.58706,-0.502616,2.45878,0
61630,-1.59122,-0.497597,2.47288,0
61650,-1.59451,-0.493327,2.48679,0
61670,-1.59793,-0.489631,2.50113,0
61690,-1.60242,-0.486792,2.51498,0
61710,-1.60754,-0.484327,2.52876,0
61730,-1.61209,-0.48232,2.54232,0
61750,-1.61687,-0.480739,2.55579,0
61770,-1.62097,-0.478917,2.56833,0
61790,-1.62532,-0.477257,2.58067,0
61810,-1.62989,-0.475763,2.59357,0
61830,-1.63509,-0.474352,2.60712,0
61850,-1.63955,-0.473001,2.62037,0
61870,-1.64404,-0.472026,2.63425,0
61890,-1.6496,-0.47112,2.64898,0
61910,-1.65565,-0.470589,2.66433,0
61930,-1.66161,-0.47029,2.68015,0
61950,-1.66704,-0.469604,2.69623,0
61970,-1.6716,-0.469074,2.71268,0
61990,-1.67669,-0.468522,2.73014,0
62010,-1.68174,-0.468022,2.7483,0
62030,-1.687,-0.46819,2.76601,0
62050,-1.69176,-0.467865,2.78361,0
62070,-1.69642,-0.466788,2.80176,0
62090,-1.70183,-0.46712,2.82016,0
62110,-1.70789,-0.468383,2.83792,0
62130,-1.71364,-0.469251,2.85487,0
62150,-1.7182,-0.469172,2.87167,0
62170,-1.72366,-0.469888,2.88852,0
62190,-1.73033,-0.472367,2.90521,0
62210,-1.7366,-0.475266,2.92065,0
62230,-1.74207,-0.477083,2.9348,0
62240,-1.74771,-0.478934,2.94927,0
62260,-1.7542,-0.481634,2.96437,0
62280,-1.76158,-0.485683,2.97828,0
62300,-1.76799,-0.48955,2.99136,0
62320,-1.77425,-0.492676,3.00482,0
62340,-1.78098,-0.497156,3.01828,0
62360,-1.787,-0.501888,3.03065,0
62380,-1.7923,-0.506164,3.04237,0
62400,-1.79744,-0.510738,3.05413,0
62420,-1.8026,-0.515888,3.06545,0
62440,-1.80739,-0.521802,3.0751,0
62460,-1.81172,-0.528001,3.08361,0
62480,-1.81503,-0.534515,3.09128,0
62500,-1.81826,-0.541443,3.09831,0
62520,-1.82077,-0.549332,3.10329,0
62540,-1.82264,-0.556408,3.1065,0
62560,-1.82514,-0.56477,3.1094,0
62580,-1.82814,-0.574262,3.11162,0
62600,-1.83107,-0.5843,3.1115,0
62620,-1.83324,-0.59392,3.11007,0
62640,-1.83565,-0.604359,3.10796,0
62660,-1.83838,-0.61662,3.10507,0
62680,-1.84164,-0.629614,3.10169,0
62700,-1.84589,-0.642433,3.0974,0
62720,-1.84931,-0.654877,3.09141,0
62740,-1.85201,-0.667296,3.08491,0
62760,-1.85439,-0.680645,3.07779,0
62780,-1.85684,-0.695016,3.0698,0
62800,-1.85998,-0.709293,3.06124,0
62820,-1.86277,-0.723416,3.05223,0
62840,-1.86536,-0.738351,3.04305,0
62860,-1.86714,-0.753746,3.03371,0
62880,-1.86823,-0.76926,3.02335,0
62900,-1.86965,-0.783518,3.01297,0
62920,-1.86995,-0.798077,3.00186,0
62940,-1.86865,-0.812667,2.98913,0
62960,-1.86688,-0.827089,2.97627,0
62980,-1.86472,-0.840802,2.96351,0
63000,-1.86229,-0.854591,2.95065,0
63020,-1.85829,-0.869646,2.93609,0
63040,-1.85299,-0.88497,2.91999,0
63060,-1.84907,-0.899815,2.90473,0
63080,-1.8454,-0.913876,2.89123,0
63100,-1.84164,-0.92814,2.8779,0
63120,-1.83535,-0.941186,2.86315,0
63140,-1.82621,-0.95326,2.84631,0
63160,-1.81469,-0.964815,2.82739,0
63180,-1.80307,-0.976412,2.80844,0
63200,-1.79013,-0.98851,2.78812,0
63220,-1.7759,-1.0005,2.76646,0
63240,-1.75919,-1.01136,2.74271,0
63260,-1.74037,-1.02231,2.71732,0
63280,-1.71908,-1.03369,2.68919,0
63300,-1.69485,-1.04354,2.65621,0
63320,-1.66862,-1.05086,2.62056,0
63340,-1.64064,-1.05546,2.58341,0
63360,-1.61153,-1.05921,2.54579,0
63380,-1.58159,-1.06091,2.50717,0
63400,-1.55075,-1.0608,2.46726,0
63420,-1.51973,-1.05975,2.42759,0
63440,-1.49098,-1.05694,2.39055,0
63460,-1.4642,-1.05285,2.35538,0
63480,-1.43841,-1.0472,2.32311,0
63500,-1.4126,-1.0414,2.2921,0
63520,-1.38742,-1.03316,2.26209,0
63540,-1.36409,-1.02215,2.23495,0
63560,-1.34193,-1.00919,2.21056,0
63580,-1.32267,-0.996779,2.1897,0
63600,-1.30685,-0.985288,2.17161,0
63620,-1.29352,-0.972728,2.15427,0
63640,-1.28152,-0.959203,2.13832,0
63660,-1.27036,-0.945636,2.12554,0
63680,-1.26159,-0.93381,2.11533,0
63700,-1.25493,-0.923076,2.10581,0
63720,-1.24994,-0.912548,2.09803,0
63740,-1.24781,-0.90244,2.09376,0
63760,-1.24749,-0.892473,2.09322,0
63780,-1.24789,-0.882699,2.09549,0
63800,-1.24722,-0.873531,2.09822,0
63820,-1.24796,-0.864905,2.10312,0
63840,-1.25177,-0.857593,2.1112,0
63860,-1.25833,-0.851217,2.12112,0
63880,-1.26537,-0.845049,2.13286,0
63900,-1.27244,-0.838589,2.14584,0
63920,-1.27952,-0.832468,2.15937,0
63940,-1.28713,-0.826717,2.17327,0
63960,-1.29653,-0.821285,2.18964,0
63980,-1.30626,-0.815161,2.20701,0
64000,-1.3158,-0.809046,2.22342,0
64020,-1.32573,-0.801652,2.24061,0
64040,-1.33633,-0.79363,2.25887,0
64060,-1.34844,-0.785149,2.27802,0
64080,-1.36067,-0.777198,2.29654,0
64100,-1.37283,-0.768594,2.31504,0
64120,-1.38524,-0.759979,2.33365,0
64140,-1.39745,-0.751499,2.35209,0
64160,-1.41062,-0.743094,2.37149,0
64180,-1.42225,-0.735715,2.39071,0
64200,-1.43444,-0.728915,2.41112,0
64210,-1.44719,-0.722418,2.43208,0
64230,-1.45897,-0.716532,2.45265,0
64250,-1.47056,-0.711131,2.4742,0
64270,-1.48215,-0.704921,2.49632,0
64290,-1.49416,-0.699548,2.51851,0
64310,-1.50467,-0.695144,2.53991,0
64330,-1.51458,-0.690269,2.56152,0
64350,-1.52568,-0.686283,2.58384,0
64370,-1.53665,-0.682829,2.60593,0
64390,-1.54658,-0.680125,2.62848,0
64410,-1.55601,-0.678363,2.65187,0
64430,-1.56692,-0.678183,2.67596,0
64450,-1.57766,-0.679058,2.69894,0
64470,-1.58536,-0.678722,2.72035,0
64490,-1.5914,-0.678223,2.74175,0
64510,-1.59934,-0.679892,2.76368,0
64530,-1.60878,-0.682261,2.78487,0
64550,-1.61676,-0.684925,2.80417,0
64570,-1.6224,-0.687397,2.82292,0
64590,-1.62965,-0.690475,2.84271,0
64610,-1.6372,-0.694306,2.86167,0
64630,-1.64433,-0.698766,2.87884,0
64650,-1.65133,-0.702333,2.8962,0
64670,-1.65989,-0.706341,2.91351,0
64690,-1.66964,-0.711122,2.93048,0
64710,-1.67839,-0.716035,2.9463,0
64730,-1.68659,-0.721621,2.96145,0
64750,-1.69532,-0.728234,2.97625,0
64770,-1.70474,-0.735459,2.99032,0
64790,-1.71286,-0.742907,3.00248,0
64810,-1.71898,-0.750339,3.01416,0
64830,-1.72544,-0.758089,3.02643,0
64850,-1.73381,-0.766887,3.03852,0
64870,-1.74096,-0.776169,3.0482,0
64890,-1.74724,-0.784875,3.05738,0
64910,-1.75336,-0.793541,3.06676,0
64930,-1.76042,-0.803162,3.07533,0
64950,-1.76716,-0.813194,3.08349,0
64970,-1.77196,-0.823041,3.08983,0
64990,-1.77785,-0.832581,3.09613,0
65010,-1.78387,-0.842307,3.10157,0
65030,-1.78993,-0.852854,3.10729,0
65050,-1.79581,-0.86417,3.11259,0
65070,-1.80096,-0.875537,3.11623,0
65090,-1.80635,-0.887319,3.11958,0
65110,-1.81223,-0.899568,3.12342,0
65130,-1.81885,-0.912481,3.12755,0
65150,-1.82445,-0.925866,3.13027,0
65170,-1.82835,-0.939151,3.13075,0
65190,-1.8317,-0.952909,3.13051,0
65210,-1.83608,-0.967208,3.13169,0
65230,-1.8402,-0.981433,3.13117,0
65250,-1.8431,-0.996207,3.12878,0
65270,-1.84547,-1.01094,3.12639,0
65290,-1.84804,-1.02611,3.12314,0
65310,-1.85069,-1.04096,3.11886,0
65330,-1.85151,-1.05693,3.11254,0
65350,-1.85258,-1.07339,3.10601,0
65370,-1.85388,-1.08912,3.09915,0
65390,-1.85535,-1.10535,3.09185,0
65410,-1.85478,-1.12195,3.08248,0
65430,-1.85236,-1.13793,3.07074,0
65450,-1.8477,-1.15381,3.05641,0
65470,-1.83791,-1.16835,3.03678,0
65490,-1.82348,-1.18225,3.01303,0
65510,-1.80719,-1.19573,2.98734,0
65530,-1.78685,-1.2093,2.95691,0
65550,-1.76296,-1.22123,2.92278,0
65570,-1.73379,-1.23339,2.88382,0
65590,-1.70449,-1.24464,2.84549,0
65610,-1.67574,-1.2555,2.80671,0
65630,-1.64192,-1.26461,2.76297,0
65650,-1.60395,-1.27254,2.71528,0
65670,-1.56483,-1.27981,2.66656,0
65690,-1.52563,-1.28531,2.61794,0
65710,-1.48151,-1.2894,2.56352,0
65730,-1.4298,-1.29122,2.50294,0
65750,-1.37868,-1.29237,2.44248,0
65770,-1.32761,-1.29063,2.38222,0
65790,-1.27883,-1.28618,2.32453,0
65810,-1.23251,-1.28019,2.27006,0
65830,-1.19013,-1.27312,2.2207,0
65850,-1.15241,-1.26473,2.1752,0
65870,-1.12087,-1.25446,2.13562,0
65890,-1.0924,-1.24147,2.10108,0
65910,-1.06846,-1.23026,2.07255,0
65930,-1.04985,-1.2186,2.04817,0
65950,-1.03614,-1.20536,2.02818,0
65970,-1.02557,-1.19235,2.01255,0
65990,-1.01678,-1.17958,2,0
66010,-1.01,-1.16701,1.98928,0
66030,-1.00529,-1.15409,1.98121,0
66050,-1.00398,-1.14165,1.97772,0
66070,-1.00431,-1.12955,1.97596,0
66090,-1.00541,-1.11822,1.97542,0
66110,-1.00953,-1.10746,1.97775,0
66130,-1.01595,-1.09691,1.98268,0
66150,-1.02406,-1.0867,1.98989,0
66170,-1.0328,-1.07668,1.99935,0
66190,-1.04371,-1.06718,2.01131,0
66210,-1.0559,-1.0584,2.0239,0
66230,-1.07189,-1.04976,2.03977,0
66250,-1.08727,-1.04021,2.05529,0
66270,-1.10153,-1.03045,2.07136,0
66290,-1.11472,-1.02124,2.08714,0
66310,-1.12847,-1.01275,2.10227,0
66320,-1.14383,-1.00469,2.11797,0
66340,-1.16001,-0.995734,2.13408,0
66360,-1.17672,-0.986263,2.15145,0
66380,-1.19544,-0.977034,2.16931,0
66400,-1.21465,-0.968192,2.186,0
66420,-1.23336,-0.958769,2.2024,0
66440,-1.25361,-0.947579,2.22093,0
66460,-1.27502,-0.937377,2.23996,0
66480,-1.29428,-0.927816,2.25728,0
66500,-1.31125,-0.9181,2.2737,0
66520,-1.32744,-0.909175,2.29036,0
66540,-1.34372,-0.902664,2.30729,0
66560,-1.35842,-0.896168,2.32398,0
66580,-1.37052,-0.889268,2.33968,0
66600,-1.38235,-0.883802,2.35611,0
66620,-1.39539,-0.878697,2.37388,0
66640,-1.41043,-0.873141,2.39353,0
66660,-1.4256,-0.866912,2.41339,0
66680,-1.44232,-0.861074,2.43383,0
66700,-1.45894,-0.855467,2.4542,0
66720,-1.47525,-0.849154,2.47499,0
66740,-1.49139,-0.843952,2.49616,0
66760,-1.50656,-0.839644,2.51661,0
66780,-1.52096,-0.835408,2.53643,0
66800,-1.53376,-0.831791,2.55567,0
66820,-1.54703,-0.828368,2.57603,0
66840,-1.56192,-0.825573,2.59727,0
66860,-1.57715,-0.824293,2.61834,0
66880,-1.59066,-0.823677,2.63829,0
66900,-1.60409,-0.823639,2.6587,0
66920,-1.61856,-0.824571,2.68005,0
66940,-1.6349,-0.825969,2.70225,0
66960,-1.65062,-0.827209,2.7237,0
66980,-1.66471,-0.828352,2.74396,0
67000,-1.67852,-0.829807,2.76447,0
67020,-1.69488,-0.830933,2.78637,0
67040,-1.71297,-0.832893,2.80855,0
67060,-1.72747,-0.835068,2.82834,0
67080,-1.73905,-0.837665,2.84699,0
67100,-1.75062,-0.841141,2.86561,0
67120,-1.76393,-0.844916,2.88488,0
67140,-1.77615,-0.850119,2.90265,0
67160,-1.78513,-0.855356,2.91869,0
67180,-1.79467,-0.860571,2.93556,0
67200,-1.80654,-0.865949,2.95353,0
67220,-1.81863,-0.87112,2.97127,0
67240,-1.83002,-0.876508,2.988,0
67260,-1.83983,-0.882135,3.00308,0
67280,-1.85177,-0.888039,3.01941,0
67300,-1.86335,-0.89314,3.03536,0
67320,-1.87372,-0.897826,3.05053,0
67340,-1.88326,-0.903863,3.06581,0
67360,-1.89359,-0.91045,3.0813,0
67380,-1.90477,-0.916743,3.09666,0
67400,-1.91432,-0.924116,3.11017,0
67420,-1.92111,-0.9322,3.12219,0
67440,-1.92728,-0.940432,3.13422,0
67460,-1.93274,-0.948789,-3.13812,0
67480,-1.93853,-0.957649,-3.12756,0
67500,-1.94296,-0.965881,-3.11833,0
67520,-1.9474,-0.973751,-3.10942,0
67540,-1.9521,-0.981617,-3.10081,0
67560,-1.95684,-0.989015,-3.09284,0
67580,-1.96243,-0.995876,-3.08514,0
67590,-1.96725,-1.00252,-3.07831,0
67610,-1.97174,-1.00879,-3.07206,0
67630,-1.97616,-1.01494,-3.06673,0
67650,-1.98074,-1.02026,-3.06139,0
67670,-1.98488,-1.02551,-3.05709,0
67690,-1.98845,-1.03019,-3.05353,0
67710,-1.99249,-1.03372,-3.04998,0
67730,-1.99748,-1.03774,-3.04581,0
67750,-2.00265,-1.04155,-3.04095,2001
67770,-2.00732,-1.04472,-3.03655,0
67790,-2.01155,-1.04768,-3.03284,0
67810,-2.01508,-1.04926,-3.02926,0
67830,-2.01847,-1.05181,-3.02569,0
67850,-2.02171,-1.05483,-3.02217,0
67870,-2.02284,-1.05681,-3.01982,0
67890,-2.02336,-1.05823,-3.01798,0
67910,-2.02398,-1.05963,-3.01627,0
67930,-2.02286,-1.06223,-3.0152,0
67950,-2.02118,-1.06472,-3.01428,0
67970,-2.02294,-1.06571,-3.01279,0
67990,-2.02873,-1.06539,-3.01004,0
68010,-2.03414,-1.06397,-3.00821,0
68030,-2.03863,-1.06133,-3.00673,0
68050,-2.03889,-1.05835,-3.0087,0
68070,-2.03454,-1.05593,-3.01603,0
68090,-2.02564,-1.05347,-3.02786,0
68110,-2.01513,-1.04976,-3.04231,0
68130,-2.0061,-1.04342,-3.05755,0
68150,-1.99589,-1.03462,-3.07701,0
68170,-1.98175,-1.02246,-3.10217,0
68190,-1.9647,-1.00662,-3.13328,0
68210,-1.94369,-0.98676,3.11086,0
68230,-1.91831,-0.9625,3.06626,0
68250,-1.88849,-0.934655,3.01934,0
68270,-1.85992,-0.90408,2.97223,0
68290,-1.83481,-0.868563,2.92673,0
68310,-1.81198,-0.83051,2.8825,0
68330,-1.78755,-0.791839,2.84041,0
68350,-1.76509,-0.753873,2.80425,0
68370,-1.74716,-0.71536,2.7734,0
68390,-1.73278,-0.676013,2.74761,0
68410,-1.72092,-0.640073,2.72708,0
68430,-1.70776,-0.611988,2.71116,0
68450,-1.69615,-0.586453,2.70035,0
68470,-1.68637,-0.561585,2.6933,0
68490,-1.67971,-0.538328,2.69064,0
68510,-1.67494,-0.516797,2.69109,0
68530,-1.67218,-0.495601,2.69435,0
68550,-1.67069,-0.474789,2.70016,0
68570,-1.67145,-0.455826,2.70804,0
68590,-1.67215,-0.438965,2.71625,0
68610,-1.67434,-0.423474,2.7246,0
68630,-1.67754,-0.408134,2.73318,0
68650,-1.68093,-0.392767,2.74276,0
68670,-1.6836,-0.378959,2.75155,0
68680,-1.68535,-0.36675,2.75872,0
68700,-1.68677,-0.35671,2.76511,0
68720,-1.68865,-0.349442,2.77063,0
68740,-1.68964,-0.344314,2.77425,0
68760,-1.68933,-0.33962,2.7762,0
68780,-1.68829,-0.336204,2.77727,0
68800,-1.68555,-0.335084,2.77689,0
68820,-1.68384,-0.336049,2.77533,0
68840,-1.68314,-0.33687,2.77353,0
68860,-1.6826,-0.336252,2.77227,0
68880,-1.68165,-0.335061,2.77153,0
68900,-1.6801,-0.334001,2.77101,0
68920,-1.68009,-0.333902,2.77111,0
68940,-1.68221,-0.332723,2.77203,0
68960,-1.68411,-0.331363,2.77351,0
68980,-1.68577,-0.328825,2.7757,0
69000,-1.68723,-0.325784,2.77808,0
69020,-1.68909,-0.322462,2.78047,0
69040,-1.69096,-0.320088,2.78222,0
69060,-1.69131,-0.318039,2.78303,0
69080,-1.69148,-0.31622,2.78385,0
69100,-1.69184,-0.314447,2.78458,0
69120,-1.69263,-0.312927,2.78439,0
69140,-1.69303,-0.312403,2.78416,0
69160,-1.69306,-0.312825,2.78347,0
69180,-1.69406,-0.313324,2.78301,0
69200,-1.69583,-0.313766,2.78284,0
69220,-1.69722,-0.314577,2.78269,0
69240,-1.69763,-0.315663,2.78235,0
69260,-1.69881,-0.3175,2.78224,0
69280,-1.70057,-0.319566,2.78274,0
69300,-1.70251,-0.321566,2.78339,0
69320,-1.70445,-0.323611,2.78447,0
69340,-1.70615,-0.324835,2.78622,2000
