Timestamp, Rotation x, Rotation y, Rotation z, Marker
40,24.0625,-0.375,-1.1875,0
50,29.125,-0.5,-8.125,0
70,32.75,1.25,-15.25,0
80,35.3125,3.875,-15.75,0
100,33.3125,3.125,-14.875,0
120,33.625,5.9375,-15.3125,0
140,28.875,7.0625,-19.1875,0
170,25.0625,9.375,-5.375,0
190,22.3125,11.5,0.0625,0
210,-14.75,1.8125,-2.25,0
230,-2.5625,-6.5,-6.4375,0
240,7.375,-9.375,-4,0
260,5.5,-17.8125,-2.4375,0
280,-8.875,-10.375,2.9375,0
300,-20.8125,-7.1875,0.8125,0
330,-15.1875,-15.125,-5.6875,0
350,0.375,-12.9375,-0.5625,0
360,1.75,-10.875,0.5,0
360,-2.4375,-8.9375,-4.25,0
390,-16.0625,-6.6875,-2.3125,0
420,-13.25,3.6875,-7.125,0
440,-8.875,4,-9,0
460,-8.5,5.8125,-6.875,0
490,-2.1875,1.8125,1.375,0
510,-1.5625,3.5625,3,0
530,3.75,4.75,-2.0625,0
550,2.25,3.75,-6.1875,0
590,11.375,4.5625,5.6875,0
610,-5.5,5.1875,4.3125,0
630,-11.375,6.25,1.375,0
640,-4.375,1.875,-0.0625,0
670,9.375,-4.25,5.625,0
690,6.1875,3.0625,0.375,0
700,-5.0625,3.125,-4.0625,0
720,-10.5625,1.6875,-2,0
730,-1.125,0.8125,2.125,0
740,-1.375,1.8125,3.625,0
760,-4.375,-0.0625,1.9375,0
780,-10.9375,-1.5625,-0.0625,0
790,-7.875,1.625,-3.6875,0
810,0.75,3.625,-6.375,0
830,6.75,5.8125,-0.75,0
840,-5.625,-1.1875,-0.125,0
860,-6.3125,0.5,0.25,0
880,-3.875,4.4375,0.4375,0
890,-12.0625,-2.9375,2.4375,0
920,-14,-4.75,-3.0625,0
940,-11.3125,-5.8125,-2.3125,0
970,-2.1875,-10.875,2.6875,0
990,4.0625,-10.4375,5.125,0
1010,4.25,-6.875,6.3125,0
1030,-0.4375,-7.125,1.75,0
1050,0.1875,-5.4375,0.6875,0
1070,4.1875,-2.8125,0.75,0
1090,9.875,-0.0625,2.3125,0
1110,10.4375,3.3125,-0.25,0
1130,9.375,5.5,-2.5,0
1150,8.625,7,-1.5,0
1170,8.6875,4.4375,1.75,0
1190,5.8125,2.6875,2.25,0
1210,2.75,1.75,4.5625,0
1230,3.25,0.4375,7.0625,0
1250,2,1.4375,3.6875,0
1280,1.375,-0.3125,3.375,0
1300,3.625,-1.875,2.25,0
1320,4.375,-2.375,1.625,0
1340,2.1875,0.5625,0.8125,0
1360,2.9375,0.1875,-1.5,0
1380,0.9375,-0.9375,-0.6875,0
1400,1.25,-0.25,1.5625,0
1430,-3.375,2.625,-0.6875,0
1450,-2.5625,1.625,0.9375,0
1470,-1.375,0.375,2.1875,0
1490,1.0625,0.625,2.375,0
1510,1.6875,2,1.375,0
1530,-7.0625,2.5625,2.6875,0
1550,-8.5,0.75,2.125,0
1570,-7.6875,-2.5,2.125,0
1590,0.5,-0.9375,3.75,0
1610,5.4375,1.625,0.3125,0
1630,7.0625,0.375,-1.1875,0
1650,4.5625,-1,-1.3125,0
1670,5.5,4.375,-4.375,0
1690,10.1875,5,-3.5,0
1710,10.625,3.8125,-1.625,0
1730,4.875,1.125,2.9375,0
1750,2.75,-0.125,3.6875,0
1770,5.625,2,-1.125,0
1790,2.1875,3.6875,-1.125,0
1810,6.9375,2.25,7.75,0
1830,9.3125,-0.0625,10.6875,0
1850,12.0625,0.5,11.3125,0
1870,11.25,-5.6875,8,0
1890,10.5625,-7.4375,11,0
1900,12.6875,-6.3125,7.0625,0
1910,-1.1875,-1.5,-3.75,0
1930,-1.4375,-2.1875,-6.0625,0
1940,1.25,-5.4375,-2.8125,0
1960,-2.4375,5.9375,-14.375,0
1980,4.3125,6.75,-15.5625,0
2000,9.25,7.1875,-9.875,0
2010,10.75,8.0625,-2.625,0
2030,6,0.875,7.75,0
2050,3.375,-0.1875,6,0
2070,1.9375,2.3125,4.6875,0
2090,-2.625,1.875,2.875,0
2110,-5.625,-2.5625,2.125,0
2120,-6.75,-8.0625,-0.5,0
2140,-1.125,-7.25,-2.625,0
2160,2.6875,-2,-3.3125,0
2180,5.6875,-2.875,-5.625,0
2190,7.9375,-5.0625,-5.9375,0
2210,6.6875,-3.25,-3.6875,0
2230,8.125,-6.5,-1,0
2250,6.3125,-12.25,2.875,0
2270,3.1875,-10.875,8.8125,0
2290,-2.5625,-12.3125,12,0
2310,-3.875,-13.125,9.875,0
2330,0.875,-7.5625,7.5,0
2340,-2.5,-2.375,8.25,0
2360,-0.1875,-4.0625,10.9375,0
2380,-6.3125,-5.375,19.75,0
2400,-2.0625,-1.375,18.9375,0
2420,-0.5,-0.0625,18,0
2460,-1.25,5.875,7.125,0
2490,-13.4375,0.0625,0.625,0
2510,-8.1875,-0.1875,0.75,0
2530,-0.4375,2.6875,-8.375,0
2540,-8.9375,-2.25,0.9375,0
2560,-3.5,-1.3125,0.875,0
2580,2.1875,1,-3.625,0
2590,-1,3.9375,-2.375,0
2600,-4.0625,-2.875,0.6875,0
2610,-6.75,-4.75,1.5,0
2630,-12.5625,-6.25,1.3125,0
2650,-5.25,-3.1875,0.375,0
2670,-4.625,-6.6875,3.1875,0
2690,-5.375,-4.3125,2,0
2710,1.125,-0.9375,-2.5,0
2740,6.875,7.125,0.5625,0
2750,-4,5.4375,-7,0
2790,-40.5625,6.75,-40.4375,0
2810,-48.8125,7.3125,-51.5625,0
2830,-41,5.375,-64.3125,0
2850,-38.4375,5.875,-68.5,0
2870,-41,2.1875,-68.5,0
2890,-36.625,-2.75,-72.5625,0
2910,-41.9375,-6,-71.0625,0
2930,-50.25,-8.3125,-70.0625,0
2950,-62.6875,-11.5,-68.0625,0
2970,-66.875,-12.875,-65.75,0
2990,-61.625,-15.4375,-63.3125,0
3010,-57.0625,-14.375,-51.125,0
3030,-66.375,-12.75,-45.4375,0
3050,-65.6875,-14.3125,-40.875,0
3070,-60.75,-15.4375,-33.5625,0
3090,-58.4375,-14.3125,-28.25,0
3110,-47.4375,-10.8125,-25.875,0
3130,-36.1875,-11.0625,-20.9375,0
3150,-34.375,-10.625,-13.0625,0
3170,-36.875,-10.0625,-11.5625,0
3190,-37.375,-10.0625,-10.3125,0
3210,-26.6875,-7.5,-8.5625,0
3230,-16.5,-7.6875,-8.9375,0
3250,-0.3125,-5.625,-10.4375,0
3270,5.6875,-5.9375,-13.75,0
3290,11.3125,-7.25,-14.25,0
3310,16.1875,-3.6875,-12.9375,0
3330,20,-3.6875,-6.0625,0
3350,25.4375,-4.625,2.75,0
3370,22.9375,-0.75,8.3125,0
3390,15.875,4.125,12,0
3410,11.8125,3.0625,14.4375,0
3430,6.875,3.0625,16.5,0
3450,11.5625,6.9375,18.625,0
3470,15.9375,10.0625,16.4375,0
3490,19.9375,14.4375,12.8125,0
3510,19.1875,12.1875,10.3125,0
3530,10.4375,4.875,13.875,0
3550,5.625,-2.125,18.5625,0
3570,11.4375,2,13.25,0
3590,11.75,4.25,5.375,0
3610,7.6875,6.4375,0.625,0
3630,5.8125,7.875,-0.125,0
3650,4.5625,4.625,0.9375,0
3670,0.4375,-0.8125,2.3125,0
3690,2.6875,-0.8125,5.0625,0
3710,7.3125,2.625,4.0625,0
3730,3.25,4.4375,3.3125,0
3750,-4.5625,4.25,2.8125,0
3770,-8.625,1.3125,2.5625,0
3790,-3.5,-0.375,2,0
3800,4.5625,0.375,1.6875,0
3820,11.1875,2.125,1.4375,0
3840,15.0625,2.9375,1.1875,0
3860,9.5,2.125,0.75,0
3880,3.8125,-0.625,2.75,0
3900,-5.25,0.1875,3,0
3920,-9.625,0.875,1.1875,0
3940,-10.9375,-0.625,0.8125,0
3960,-7.6875,-3.4375,1,0
3980,-5.0625,-3.6875,-3.9375,0
4000,-0.75,-4.9375,-2.375,0
4020,3.0625,-1.5625,-0.625,0
4040,6.3125,0.6875,-1.1875,0
4060,6.6875,1.75,-0.9375,0
4080,-0.4375,2.625,-2.25,0
4100,-4.3125,1.75,-2.375,0
4120,-2.4375,1,-4.5,0
4140,-1.625,0.5625,-3.125,0
4160,2.6875,-0.5,-2.6875,0
4180,5.5,-1.5,-4.4375,0
4200,-0.6875,-2.125,-6.9375,0
4220,-2.5,-2.1875,-5.8125,0
4240,-0.75,-5.25,-4.5625,0
4260,-1.375,-1.8125,-3.75,0
4280,-1.75,4.1875,-9.0625,0
4300,-6.5,2.5,-9.625,0
4320,-8.875,0.875,-1.375,0
4340,4.25,1.3125,1.6875,0
4360,8.3125,1.375,-0.5625,0
4380,5.125,1.75,-0.125,0
4400,0.625,-0.4375,2.9375,0
4420,-2.4375,-3.6875,3.75,0
4440,-2.625,-2.375,1.875,0
4460,2.5,-0.5625,-1.6875,0
4480,-2.6875,-2,-3.5,0
4500,-5.875,-2.6875,-1.5625,0
4520,-2.8125,-2.8125,-1.25,0
4540,-1.0625,-1.75,-1.75,0
4560,0.375,-0.25,-2.4375,0
4580,-2.0625,0.75,-1.3125,0
4600,-4.5625,2.8125,-1.5,0
4620,-1.8125,1.6875,-2.1875,0
4640,1.6875,1.625,-0.3125,0
4660,4.4375,1.0625,1.625,0
4680,4.0625,1.5625,1.8125,0
4700,-0.5625,2.3125,0.75,0
4720,-0.375,1.6875,-0.5625,0
4740,0.5,1.9375,-0.5,0
4760,2.0625,2.375,-1,0
4780,5.125,-0.0625,1.375,0
4800,4.5625,-2.4375,2.5,0
4820,5.625,-0.6875,0.4375,0
4840,-3.375,0.875,-6.375,0
4860,-9.125,-2.125,-6.875,0
4880,-6.25,-3.875,-3.875,0
4900,-8,-3.6875,-0.375,0
4920,-1.125,-3.0625,-0.6875,0
4940,0.1875,-3.625,-1.75,0
4960,-2.6875,-0.375,-1.4375,0
4980,1.4375,-0.3125,0.6875,0
5000,4.375,3.125,6.8125,0
5020,6.875,4.0625,5.3125,0
5040,7.1875,0.5625,2.5,0
5060,10.625,-0.5625,6.8125,0
5080,16.9375,0.875,8.5625,0
5100,11.875,4.875,4.0625,0
5120,6.625,4.1875,-1.5,0
5140,-4.625,5.875,0,0
5160,-8.1875,4.5625,0.0625,0
5180,-2.9375,2.375,0.125,0
5200,-0.4375,-0.1875,0.375,0
5220,5.3125,-0.8125,2.5,0
5240,6.4375,-2.6875,0,0
5260,0.5,-3.3125,0,0
5280,0.5625,-1.625,1.75,0
5300,1.125,0.875,1.0625,0
5320,-1,0,-0.25,0
5340,-2.9375,0.4375,-0.3125,0
5360,-1.9375,1.1875,0.8125,0
5380,-1.375,1.625,1,0
5400,0.6875,0.25,1.875,0
5420,3.1875,-0.625,3.4375,0
5440,1.875,0.6875,3.1875,0
5460,-0.3125,2.5,0.25,0
5480,-3.75,2.4375,0.875,0
5500,-5.6875,2.375,1.3125,0
5520,-7.3125,2.375,2.125,0
5540,-6.25,2.625,0.75,0
5560,-1.5625,1.875,-0.6875,0
5580,4.3125,0.4375,1.3125,0
5600,6.9375,1.8125,4.5625,0
5620,6.625,-0.6875,3.75,0
5640,3.0625,-0.0625,3.5,0
5660,6.0625,-1.1875,4.6875,0
5680,5.5,1.625,3.9375,0
5700,4.6875,1.4375,4.375,0
5720,5.875,1.125,3.6875,0
5740,1.6875,-1.6875,2.4375,0
5760,3.375,1,3.75,0
5780,-0.125,3.4375,1.125,0
5800,-0.5,1.5625,1.3125,0
5820,-0.3125,-1.25,4,0
5840,-0.25,-0.3125,4.0625,0
5860,1.5,0,2.0625,0
5880,1.4375,-0.5,2.25,0
5900,2.1875,-1.6875,5,0
5920,3.875,-0.1875,3.4375,0
5940,3.75,2.0625,1.375,0
5960,6.5,3.25,1.5625,0
5980,7.0625,2.375,2.875,0
6000,1.875,3,1.4375,0
6020,0.75,3.5625,-2.0625,0
6040,-1.625,3.625,-3,0
6060,0.875,3.25,-2.25,0
6080,3.3125,2.0625,-0.9375,0
6100,4,2.5625,1.5,0
6120,3.6875,1.1875,0.6875,0
6140,-1.125,0.6875,-1.5625,0
6160,-6.9375,-1.4375,-0.9375,0
6180,-7.875,-0.25,-0.3125,0
6200,-6.25,0,0.25,0
6220,-1,-0.1875,-0.625,0
6240,5.0625,-0.5,-0.375,0
6260,8.25,0.875,2.125,0
6280,4.5,5.5,3.875,0
6300,1.1875,5.875,3.25,0
6320,2.8125,3.75,4.375,0
6340,7,2.1875,7.6875,0
6360,9.875,4.125,6.8125,0
6380,9.4375,6.1875,4.625,0
6400,4.0625,5.875,2.375,0
6420,-3.3125,3.375,3.3125,0
6440,-1.125,2.4375,2.6875,0
6460,10.0625,-2.5,4.8125,0
6480,18.75,-1.0625,7.1875,0
6500,15.5,1.5625,6.1875,0
6520,8.25,1.5,1.9375,0
6540,-3.5,0.25,-0.5,0
6560,-8.75,3,2.875,0
6580,-7.5,3.6875,2.8125,0
6600,-1.625,-0.875,2.25,0
6620,5.375,-3.4375,4.1875,0
6640,8.1875,-1.0625,7.125,0
6660,4.25,1.9375,3.0625,0
6680,-3.5625,2.0625,-1.8125,0
6700,-7.625,0.9375,-1.6875,0
6720,-3.75,0.6875,-2.3125,0
6740,4.3125,2.75,-4.75,0
6760,4.8125,2.125,-5.125,0
6780,4.1875,2.75,-6.75,0
6800,-0.9375,2.1875,-7.5625,0
6820,-1.6875,5.0625,-5,0
6840,1.8125,10.8125,-2.8125,0
6860,6.3125,15.1875,-0.8125,0
6880,11.8125,14.3125,4.5,0
6900,22.4375,10,19.9375,0
6920,36.5625,5.6875,45.9375,0
6940,45.6875,2.6875,80.375,0
6960,45.875,6.5,105.562,0
6980,45.125,19.375,111.625,0
7000,32.8125,31.375,110.688,0
7020,24.3125,37.0625,110.375,0
7040,21.5,35.0625,113.125,0
7060,25.625,32.125,114.625,0
7080,12.375,26.875,109,0
7100,3.3125,29.25,91.0625,0
7120,-1.8125,22.75,37.5625,0
7150,54.25,6,28.8125,0
7170,51.5625,-9.625,28.375,0
7190,31.5,-9.5625,21.8125,0
7210,21.3125,-8.75,25.5625,0
7230,12.6875,-10.875,22.875,0
7240,3.5625,-11,23.9375,0
7270,-10.25,-4.875,26.875,0
7290,-7.25,-1.1875,23.1875,0
7310,-1.5,0.5625,15.75,0
7330,2,0.375,8.6875,0
7350,5.6875,0.1875,3.625,0
7370,11.5,-0.4375,-0.5,0
7390,16.1875,2,-3.4375,0
7410,17.8125,3.8125,-9.3125,0
7430,21.125,3,-12.25,0
7450,22,4.75,-11.8125,0
7470,21.0625,4.4375,-13.0625,0
7490,17.4375,5.375,-13.0625,0
7510,13,8.1875,-11.0625,0
7550,10.6875,5,-7.9375,0
7580,6.75,6.6875,-2.25,0
7610,2.375,5.3125,-1.375,0
7640,-6.9375,4.1875,0.625,0
7670,-2.0625,-4.125,12.25,0
7690,-1.6875,-4,13.8125,0
7710,-4.75,-3.5625,9.5,0
7730,-8.5,1.0625,2.4375,0
7760,-1.8125,1.625,2.5,0
7780,1.375,3.375,-0.375,0
7800,1.875,2.5,-5.5625,0
7820,4.9375,-0.375,-7.25,0
7840,4.9375,-0.5,-5.5,0
7880,0,3.75,-4.5625,0
7900,-13.125,3.8125,-0.9375,0
7920,-21.625,3.4375,2.3125,0
7940,-30,2.1875,0.1875,0
7960,-40.25,-1.9375,0.375,0
7980,-49.0625,-8.1875,-2.1875,0
8000,-56.8125,-14.25,-12.875,0
8020,-53.4375,-16.0625,-30.3125,0
8040,-47.625,-19.6875,-37.75,0
8060,-33.9375,-28.125,-43.625,0
8100,2.3125,-31.9375,-48.5625,0
8120,-20.0625,-34.3125,-39.75,0
8140,-46.5,-36.1875,-44.3125,0
8160,-60.375,-32.375,-49.1875,0
8180,-63.625,-28.8125,-53.625,0
8200,-52.9375,-31.375,-51.5,0
8220,-39.625,-34.4375,-43.875,0
8240,-24.6875,-33.6875,-37.1875,0
8260,-15.8125,-29.125,-35.9375,0
8280,-12.3125,-24.25,-35.25,0
8300,-17.125,-19.75,-33.6875,0
8320,-28.75,-19,-27.875,0
8340,-35.25,-10.6875,-25.875,0
8360,-34.3125,-3.625,-25.5625,0
8380,-37.5,-9.75,-21.75,0
8400,-25.875,-13.8125,-15.1875,0
8420,-13.0625,-13.625,-15.5,0
8440,-3.875,-13.375,-14.375,0
8460,-1.5,-16.0625,-12.625,0
8480,-10,-19.1875,-10.5625,0
8500,-14.0625,-17.25,-8.125,0
8520,-9.6875,-13.9375,-7.0625,0
8540,-2.4375,-11.75,-4.125,0
8560,-1.125,-9.25,2.4375,0
8580,-3.3125,-7.875,5,0
8600,-2.125,-8.75,1.625,0
8620,-8.6875,-10.5625,-3.6875,0
8640,-18.125,-9.6875,-6.125,0
8660,-15.5,-8.375,-4.5625,0
8680,-18.875,-12.5625,-4,0
8700,-22.5625,-11.125,-1.6875,0
8720,-27.875,-5.4375,-1.8125,0
8740,-27.1875,1.375,-5.5,0
8760,-22.75,0.875,-5.1875,0
8780,-13.9375,-1.4375,-4.75,0
8800,-5.3125,-4.5,-2.9375,0
8820,-1.5,-5.0625,-1,0
8840,1.8125,-3.8125,2.4375,0
8860,2.125,-1.25,5.125,0
8880,-5.1875,0.25,3.5,0
8900,-4.75,2.125,2.75,0
8920,-1.6875,1.5,4.75,0
8940,2.875,2.25,8.625,0
8960,3.4375,1,10.6875,0
8980,1.0625,2.125,6.1875,0
9000,-3.4375,3.4375,1.5,0
9020,-7.5625,4.3125,2.6875,0
9040,-7.875,3.0625,5.1875,0
9060,-9.0625,3.75,5.75,0
9080,-10.4375,5.0625,5.0625,0
9100,-6,6.3125,8.0625,0
9120,-2.125,6.75,11.625,0
9140,2.625,6.75,13.375,0
9150,1.3125,5.5,12.3125,0
9170,0.3125,5.75,10.4375,0
9190,-0.6875,5.6875,6,0
9210,-2.5625,4.4375,4.1875,0
9230,-1,3.625,5.1875,0
9250,-0.625,2,3.75,0
9270,4.0625,3.8125,5.25,0
9290,4.375,5.5,6,0
9310,-4.75,4.4375,6.75,0
9330,-4.5,6.3125,9.25,0
9350,-1.1875,7.8125,8.125,0
9370,3.4375,11.125,9.6875,0
9390,7.1875,9.6875,10.25,0
9410,2.1875,6.125,8.625,0
9430,0.8125,5.3125,9.625,0
9450,-1,4.5625,7.625,0
9470,-1,4,4.1875,0
9490,1.75,1.75,3.625,0
9510,5.5,-1.6875,5.6875,0
9530,8.125,-4.9375,7.8125,0
9550,7.0625,-5.625,6.0625,0
9570,1.3125,-4.375,3.0625,0
9590,-1.25,-3.9375,2.75,0
9610,-0.9375,-4.375,6.0625,0
9630,2.625,-3.4375,11,2000
9650,2.8125,-2.75,8.5625,0
9670,-1.1875,-3.1875,5.625,0
9690,-1.8125,-3.9375,5.5625,0
9710,-1.375,-2.5,5.875,0
9730,-2.375,-1.9375,4.375,0
9750,-6,-2.8125,3,0
9770,-1.9375,-3.25,3.25,0
9790,4.375,-2.75,2.4375,0
9810,4.8125,-0.5,0.625,0
9830,3.8125,4.4375,-0.125,0
9850,-1.5,6.375,-0.875,0
9870,-5.9375,6.4375,0.3125,0
9890,-5.375,4.75,1.8125,0
9910,-0.3125,2.3125,3.375,0
9930,6.1875,1.625,2.6875,0
9950,3.75,-0.375,1.1875,0
9970,-3.75,-3.75,0.25,0
9990,-7.4375,-4.5,-0.9375,0
10010,-6.4375,-5.25,-2.5,0
10030,-5.3125,-5.8125,-2.625,0
10050,-2.1875,-6.75,-2.1875,0
10070,3.625,-6.875,-2.1875,0
10090,3.3125,-7.25,-2.625,0
10110,0.25,-8,-2.75,0
10130,1.6875,-10.375,-3.125,0
10150,4.625,-12.125,-4.6875,0
10170,3.75,-13.5625,-6.1875,0
10190,2.5,-14.8125,-7.125,0
10210,3.375,-16.625,-7.5,0
10230,0.8125,-18.8125,-7,0
10250,1.1875,-19.8125,-6.1875,0
10270,1,-21.5625,-7.0625,0
10290,4.1875,-21.9375,-7.125,0
10310,5.6875,-21.9375,-6.625,0
10330,2.8125,-20.6875,-6.8125,0
10350,2.4375,-19.625,-7.125,0
10370,1.25,-21,-7.5,0
10390,0.375,-21.1875,-8.9375,0
10410,0.625,-18.25,-11.5625,0
10430,7.3125,-17.0625,-11.5625,0
10450,4.25,-18.875,-11.3125,0
10470,-1.9375,-17.5,-11.6875,0
10490,-3.5,-13.8125,-14.5,0
10510,-1.375,-13.125,-15.75,0
10530,1.75,-13.9375,-14.375,0
10550,5.625,-11.125,-15.875,0
10570,7,-5.4375,-17.4375,0
10590,7.0625,-3.375,-13.1875,0
10610,5.3125,-5.875,-11.375,0
10630,2.875,-5.1875,-14.4375,0
10650,5.5625,-1.0625,-15.4375,0
10670,5.8125,-3.5625,-14.0625,0
10690,1.4375,-8.125,-10.6875,0
10710,2.9375,-5.75,-12.9375,0
10730,6.25,-2.125,-14.5,0
10750,5.3125,-3.0625,-9.8125,0
10770,5.6875,-6.1875,-7.25,0
10790,9.1875,-7.5625,-9.125,0
10810,10,-2.125,-14.5625,0
10830,10.75,0.875,-15.75,0
10850,1.1875,1.75,-11.5625,0
10870,-5,4.5,-8.6875,0
10890,-4.75,12.625,-11.875,0
10910,-2.625,19.75,-14.25,0
10930,1.875,20.875,-12.0625,0
10950,1.6875,20.375,-9.4375,0
10970,4.75,22.9375,-9.8125,0
10990,9.875,25.75,-13.0625,0
11010,9.625,26.5,-14.4375,0
11030,1.4375,23.6875,-12.625,0
11050,-2.25,23.8125,-16,0
11070,0.5625,24.6875,-20.125,0
11090,1.4375,25.75,-19.75,0
11110,0.625,22.75,-19.5,0
11130,-1.0625,19.75,-22.6875,0
11150,0.375,20.3125,-25.8125,0
11170,-1.6875,22.125,-26.75,0
11190,-4,22.75,-25.75,0
11210,-3.625,20.4375,-23,0
11230,-1.5625,21.9375,-22.125,0
11250,-2.25,24.375,-24.125,0
11270,-3.5,25.25,-25.75,0
11290,-3,25.375,-27.25,0
11310,-1.625,22.8125,-25.125,0
11330,-0.9375,21.3125,-24.625,0
11350,-2.6875,21.8125,-25.5,0
11370,-3.375,23.625,-23.8125,0
11390,-2.75,23.9375,-20.875,0
11410,-5.0625,24.3125,-19.1875,0
11430,-8.5625,25.75,-18.875,0
11450,-9,27.5,-17.125,0
11470,-8.625,29.125,-17.5625,0
11490,-7.9375,30.5625,-16.0625,0
11510,-6,30.9375,-15.25,0
11530,-4.125,30.9375,-18.5,0
11550,-3.375,30.3125,-19.5625,0
11570,-4.5,29.125,-20.3125,0
11590,-3.9375,27,-22.3125,0
11610,-3,24.375,-21.1875,0
11630,-3.5625,23.8125,-20.3125,0
11650,-3.8125,26.875,-18.8125,0
11670,-5.9375,29.125,-18.1875,0
11690,-8.75,29.75,-16.3125,0
11710,-12.0625,30.5,-11.625,0
11730,-11.1875,31.375,-6.5,0
11750,-4.25,32,-6.9375,0
11770,-1.5,31,-7.75,0
11790,-3.25,31,-7.3125,0
11810,-6.6875,31.3125,-8.25,0
11830,-10.0625,29.625,-7.5625,0
11850,-9.6875,29.375,-8.625,0
11870,-6.625,28.9375,-7.125,0
11890,-5.1875,30.75,-4.9375,0
11910,-5.1875,33.4375,-3.5,0
11930,-7.6875,33.1875,-0.4375,0
11950,-13.3125,27.5625,2.3125,0
11970,-14,23.1875,5.25,0
11990,-9.75,22.6875,6.1875,0
12010,-6.9375,23.375,7.1875,0
12030,-10.0625,24.5625,10.75,0
12050,-17.1875,27.3125,17.25,0
12070,-17.875,27.9375,10.5625,0
12090,-10.1875,21.4375,6,0
12110,-5.625,15.3125,6.625,0
12130,-1.75,13.1875,3.875,0
12150,2.4375,9.375,2.0625,0
12170,1.875,6.75,2.0625,0
12190,0.75,7.0625,3.375,0
12210,-1.1875,9.5625,5,0
12230,-3.8125,12.125,5.8125,0
12250,-8.3125,12.5625,5.4375,0
12270,-11.25,12.5625,7.375,0
12290,-6.8125,13.3125,8.0625,0
12310,-2.625,14.125,8.625,0
12330,-2.25,11.75,10.625,0
12350,-1.625,7.8125,14.1875,0
12370,0.6875,6.25,15.875,0
12390,0.6875,7.3125,14.1875,0
12410,-5.5,8.5625,12.9375,0
12430,-9.3125,8.0625,13.4375,0
12450,-13.5625,7.3125,13.3125,0
12470,-10.375,7.4375,11.25,0
12490,-8,6.375,10.0625,0
12510,-9.1875,5.4375,11.25,0
12530,-5.0625,5.125,11.125,0
12550,-6.1875,3.5625,10,0
12570,-7.5,1.8125,11.6875,0
12590,-3.875,2.0625,11.375,0
12600,-1.625,0.4375,8.8125,0
12620,-5.3125,-3.25,7.9375,0
12640,-7.125,-4.625,8,0
12660,-6.5625,-6.6875,8.3125,0
12680,-6.75,-9.0625,8.1875,0
12700,-5.25,-10.3125,9.25,0
12720,-4.875,-10.5,11.125,0
12740,-3.625,-8.5625,9.875,0
12760,-5.75,-8.75,9.3125,0
12780,-6.6875,-10.1875,9.875,0
12800,-4.125,-10.1875,10,0
12820,1.25,-10.125,9.1875,0
12840,3.4375,-9.5625,8.375,0
12860,-0.1875,-7.375,9.625,0
12880,-6.0625,-7,12.6875,0
12900,-9.25,-8.3125,13.25,0
12920,-8.625,-10.875,16.25,0
12940,-9.625,-11.1875,20.6875,0
12960,-11.9375,-10.4375,20.25,0
12980,-7,-9.25,14.8125,0
13000,-7.0625,-9.75,10.625,0
13020,-7.75,-10.875,10.375,0
13040,-6.4375,-12.5625,9.3125,0
13060,-3,-13.625,8,0
13080,-3.5,-14.25,7.1875,0
13100,-5.0625,-14.3125,7.5625,0
13120,-6.125,-14.125,7.25,0
13140,-4.75,-13.625,7.125,0
13160,-5.3125,-13,7.3125,0
13180,-2.5625,-12.6875,7.6875,0
13200,-0.125,-13.0625,7.9375,0
13220,-1.9375,-14.4375,7.5,0
13240,-0.3125,-13.0625,7.375,0
13260,1.0625,-13.125,6.1875,0
13280,-1.4375,-14.6875,5.25,0
13300,-4.5625,-16.4375,4.5625,0
13320,-6.0625,-16.5625,3.625,0
13340,-1.3125,-16.1875,2.625,0
13360,-2.5,-17.25,1.875,0
13380,-7.5625,-17,2.125,0
13400,-3.75,-16.5625,2.0625,0
13420,-0.9375,-17.75,2.6875,0
13440,-0.9375,-17.4375,2.375,0
13460,-2.5625,-17.25,0.8125,0
13480,-6.1875,-17.625,1.6875,0
13500,-8.25,-17,2.5,0
13520,-3.625,-17.4375,2.875,0
13540,-4.1875,-18.9375,2.125,0
13560,-2.8125,-18.9375,2.9375,0
13580,-0.3125,-19.6875,2.75,0
13600,-1.5625,-20.6875,2.25,0
13620,-4.1875,-21.25,2,0
13640,-4.125,-21.3125,2.5625,0
13660,-4,-22.125,4.4375,0
13680,-6.5,-23.4375,6.875,0
13700,-11.0625,-25,8.8125,0
13720,-12.125,-28.4375,10.625,0
13740,-14.6875,-29.9375,14.5625,0
13760,-18.625,-31.375,16.75,0
13780,-22,-31.625,13.5,0
13800,-15.375,-30.1875,9.875,0
13820,-15.9375,-31.3125,7.625,0
13840,-13.875,-32.1875,6.125,0
13860,-10.875,-31.9375,2.8125,0
13880,-6.8125,-33.125,2.1875,0
13900,-3.25,-34.3125,2.75,0
13920,-5.5625,-33.3125,1.5,0
13940,-6.75,-32.1875,0.8125,0
13960,-3.25,-33.6875,1.0625,0
13980,-5.4375,-34.9375,0.4375,0
14000,-3.125,-33.625,-3.3125,0
14020,-1.375,-33.9375,-6,0
14040,-2.4375,-33.9375,-6.4375,0
14060,-2.4375,-31.8125,-7.1875,0
14080,1.8125,-30.875,-8.25,0
14100,2.5625,-31.5625,-8.625,0
14120,-1.3125,-30.875,-8,0
14140,0.125,-29.3125,-7.75,0
14160,2.625,-27.875,-8.75,0
14180,-0.125,-26.6875,-8.125,0
14200,-3.375,-25.1875,-7.625,0
14220,-1.3125,-24.9375,-7.5625,0
14240,2.9375,-26.3125,-6.9375,0
14260,0.5,-28.6875,-6.875,0
14280,2.375,-26.6875,-7.6875,0
14300,6.3125,-25.5,-9.625,0
14320,3.25,-26.5625,-8.875,0
14340,0,-26.5,-9.0625,0
14360,1.25,-24.375,-10.4375,0
14380,6.75,-23.25,-10.1875,0
14400,1.5,-24.25,-9.1875,0
14420,-3.75,-24.875,-11.8125,0
14440,0.0625,-23.125,-13.9375,0
14460,8.75,-24.5,-11.5625,0
14480,4.625,-27.75,-9.5625,0
14500,3.4375,-24.5,-12.0625,0
14520,4.4375,-18.25,-17.75,0
14540,-0.0625,-17.375,-20.8125,0
14560,-0.5,-18.6875,-19.5,0
14580,8.6875,-15.5,-19.9375,0
14600,15.5,-9.875,-22.375,0
14610,15.25,-6.8125,-21.4375,0
14630,9.5625,-6.0625,-19.6875,0
14650,2.8125,-5.125,-18.375,0
14670,3.0625,0.1875,-18.4375,0
14690,7.8125,6.0625,-18.6875,0
14710,5.4375,5.8125,-14.625,0
14730,-3.5,4.9375,-9.625,0
14750,1.875,9.1875,-13.3125,0
14770,8.375,15.125,-19.6875,0
14790,8.75,12.625,-18.3125,0
14810,-5.4375,6.625,-15.1875,0
14830,-5,10,-18.375,0
14850,5.125,15.6875,-25.0625,0
14870,2.8125,13.25,-24.8125,0
14890,-7.25,7.3125,-22.25,0
14910,-7.5625,8.125,-22.125,0
14930,-1,12.4375,-24.9375,0
14950,4.0625,11.875,-23.25,0
14970,-2.375,7.25,-18.5,0
14990,-5.75,8.6875,-18,0
15010,-0.625,12.5625,-17.375,0
15030,3.375,10.75,-12.3125,0
15050,-1.5625,6.375,-5.5625,0
15070,-0.5625,11.75,-9.625,0
15090,0.6875,18.5625,-18,0
15110,-1.3125,19.9375,-21.1875,0
15130,-9.625,15.1875,-21.25,0
15150,-9.375,13.8125,-24.3125,0
15170,1,15.875,-28.5,0
15190,1.875,17,-30.3125,0
15210,-1.375,17.125,-27.5,0
15230,-8.875,17.8125,-25.5625,0
15250,-3.25,19,-26,0
15270,-0.3125,19.0625,-25.125,0
15290,-7.5625,22.3125,-22.625,0
15310,-11.25,28.3125,-21.8125,0
15330,-8.375,29.875,-19.5625,0
15350,-9.125,29.4375,-18,0
15370,-8.4375,31.3125,-20.625,0
15390,-4.875,33.5,-19.5625,0
15410,-6.375,34.125,-16.25,0
15430,-8.6875,34.25,-16.375,0
15450,-6.3125,33.6875,-19.6875,0
15470,-6.9375,31.25,-16,0
15490,-7.625,31.8125,-9.875,0
15510,-10,30.875,-5,0
15530,-8.4375,28.3125,-4.375,0
15550,-7.375,28.1875,-5.25,0
15570,-7.375,28.75,-6.375,0
15590,-7.5625,27.125,-7.5625,0
15610,-9.3125,24.625,-9.8125,0
15630,-8,24,-12.6875,0
15650,-7.1875,25.1875,-16,0
15670,-7.4375,26.4375,-15.5625,0
15690,-10.125,26.1875,-13.5625,0
15710,-8.0625,28.125,-15.25,0
15730,-5,29.8125,-15.3125,0
15750,-6,30.75,-12.3125,0
15770,-6.125,32.3125,-10.6875,0
15790,-6.1875,32.375,-12.5,0
15810,-6.625,27.875,-11.4375,0
15830,-10,25.1875,-10.625,0
15850,-9,25.5625,-11.25,0
15870,-9.125,26.6875,-10.25,0
15890,-10.25,24.875,-4.5,0
15910,-12.9375,23.9375,-1.1875,0
15930,-9.0625,23.125,-2.0625,0
15950,-7.8125,22.375,-2.1875,0
15970,-10,22,-1.875,0
15990,-9.5,23.0625,-1.4375,0
16010,-8.375,23.75,-2.25,0
16030,-8.6875,22.0625,-3.1875,0
16050,-8.25,21,-4.5625,0
16070,-3.1875,22.375,-3.5625,0
16090,-3.875,21.9375,-1.75,0
16110,-5,18.5,-3.4375,0
16130,-1.125,14.4375,-4.375,0
16150,0.9375,12.125,-1.875,0
16170,0.25,13,3.25,0
16190,-2.8125,15.375,5.5,0
16210,-5.0625,16,7.75,0
16230,-11.25,14.0625,10.9375,0
16250,-14.75,13.375,11.5,0
16270,-14.1875,12.6875,14.125,0
16290,-11.1875,12.4375,20.125,0
16310,-9.8125,13.5,23.3125,0
16330,-3.5625,15.5,21.4375,0
16350,-3.125,16.75,19.3125,0
16370,-3.875,16.9375,19.5,0
16390,-2.1875,16.8125,17.75,0
16410,-1.375,17.5625,13.6875,0
16430,-2.375,16.6875,12,0
16450,-0.25,16.125,14.0625,0
16470,-1.25,16.3125,12.5,0
16490,4.5,15.875,8.125,0
16510,5.6875,13.5,5.6875,0
16530,4.6875,10.625,7.5625,0
16550,5.6875,10.5,8.8125,0
16570,9.6875,10.1875,8.125,0
16590,6.375,7.125,9.375,0
16610,-3.5625,5.6875,10.0625,0
16630,-6.875,7.625,10.9375,0
16650,-7.25,9.625,11.6875,0
16670,-6,8.6875,10.5,0
16690,-6.8125,5.75,10.625,0
16710,-5.8125,5,12,0
16730,-5.375,3.6875,12.9375,0
16750,-4,3.125,11.5625,0
16770,-4.5625,2.75,10.5625,0
16790,-7.75,2.75,10.5625,0
16810,-6.25,3.25,9,0
16830,-4.875,-0.3125,5.5625,0
16850,-3.1875,-4.375,4.8125,0
16870,-1.375,-4,7.0625,0
16890,-2.375,-3.0625,10.1875,0
16910,-5.125,-3.75,10.8125,0
16930,-12.5,-3.25,8.8125,0
16950,-11.375,-1.375,9.5,0
16970,-4.6875,-2.625,11.8125,0
16990,-5.125,-6.4375,12.375,0
17010,-2.6875,-6.375,12.625,0
17030,2.5625,-5.5625,12.375,0
17050,2.3125,-6.375,12.5,0
17070,-1.1875,-8,12.375,0
17090,-3.5625,-7.9375,11.3125,0
17110,-5.0625,-7.5,10.8125,0
17130,-8.1875,-8.6875,12.4375,0
17150,-9.9375,-9.4375,11.875,0
17170,-2,-9.3125,10.625,0
17190,-1.5625,-12.4375,10,0
17210,-5.75,-12.25,9.5625,0
17230,-2.4375,-10.9375,8.5,0
17250,-1.25,-11.5,7.25,0
17270,-1.6875,-12.375,5.625,0
17290,0.625,-13.1875,5.8125,0
17310,0.875,-14.8125,7.0625,0
17330,2.3125,-14,8.375,0
17350,-1.875,-16.1875,9.3125,0
17370,-7.6875,-16.0625,9.875,0
17390,-3.5625,-15.5625,8.8125,0
17410,-6.25,-17.9375,8.5625,0
17430,-6.375,-19.3125,8.4375,0
17450,-2.8125,-18.875,7.5,0
17470,0.1875,-19.75,6.625,0
17490,1.1875,-21.875,5.875,0
17510,0.3125,-22.4375,5.75,0
17530,-3.625,-23.8125,7.1875,0
17550,-7.1875,-24.3125,8,0
17570,-5.4375,-23.75,8,0
17590,-8.6875,-25.625,10.25,0
17610,-15.0625,-26.4375,13.25,0
17630,-18.875,-25.3125,13.5625,0
17650,-19.0625,-24.125,12.0625,0
17670,-18,-25.4375,11.6875,0
17690,-23.125,-26.375,10.4375,0
17710,-16.5625,-24.125,8.125,0
17730,-10.8125,-24.625,7.5,0
17750,-10.5,-25.75,7.4375,0
17770,-14.375,-25.5625,7.0625,0
17790,-11.9375,-22.75,4.0625,0
17810,-8.1875,-23.125,2.5,0
17830,-9.9375,-24.5,1.5625,0
17850,-11.875,-24,0.5625,0
17870,-6.5,-22.75,-0.9375,0
17890,-1.25,-23.8125,-1.5625,0
17910,-3.625,-24.625,-0.9375,0
17930,-7.25,-23.25,-0.625,0
17950,-4.375,-24,-1.1875,0
17970,-2.375,-25.5625,-2.1875,0
17990,-5.8125,-26.8125,-2.25,0
18010,-7.875,-26.25,-2.75,0
18030,-3.25,-25.4375,-3.75,0
18050,0.9375,-27.875,-3.4375,0
18060,-5.625,-27.75,-4.3125,0
18080,-6.875,-25,-5.75,0
18100,-2.375,-25.375,-5.0625,0
18120,-2.3125,-29.5625,-0.875,0
18140,-5.3125,-31.375,1.6875,0
18160,5.1875,-29.1875,-0.1875,0
18180,9.625,-28,-2.125,0
18200,3.625,-27.375,-2.75,0
18220,-1.9375,-26.75,-3.1875,0
18240,-5.0625,-26.5,-5.875,0
18260,-5.125,-26.5625,-9.0625,0
18280,-5,-26.9375,-11.0625,0
18300,-3.4375,-28.875,-12.5,0
18320,3.5625,-29.75,-15.25,0
18340,5.9375,-29.6875,-17.875,0
18360,4.5625,-29.8125,-17.5625,0
18380,4.75,-29.75,-17.8125,0
18400,4.9375,-28.375,-20.125,0
18420,4.5625,-27.3125,-21.0625,0
18440,0.375,-25,-21.25,0
18460,-0.375,-21.9375,-21.0625,0
18480,0.4375,-21.9375,-19.6875,0
18500,-0.4375,-24,-19.625,0
18520,1.1875,-22.375,-20.25,0
18540,2.375,-19.125,-19.0625,0
18560,1.625,-19.75,-16.625,0
18580,-0.6875,-18.875,-16.6875,0
18600,-1.5,-14.25,-17.875,0
18620,-2.125,-10.5,-17.125,0
18640,-3.6875,-10.25,-15.875,0
18660,-5.25,-13,-17.9375,0
18680,0.5,-11.875,-17.3125,0
18700,2.375,-10.375,-16.5625,0
18720,3.8125,-11,-18,0
18740,2.6875,-12.125,-20.5625,0
18760,-0.375,-11,-19.3125,0
18780,-0.3125,-11,-16.375,0
18800,3.3125,-15.3125,-14.4375,0
18820,9.8125,-18,-14.8125,0
18840,13.25,-18.0625,-19.25,0
18860,7.375,-17.75,-21,0
18880,-1.3125,-15.1875,-20.375,0
18900,-7.4375,-9.6875,-18.8125,0
18920,-10.375,-5.4375,-18.75,0
18940,-8.6875,-3.5625,-20.6875,0
18960,-2.1875,-2.25,-23.25,0
18980,-0.25,-2.875,-23.3125,0
19000,1.0625,-1.1875,-21.3125,0
19020,4.3125,3.8125,-22.5625,0
19040,4.75,7.4375,-24.1875,0
19060,-7.4375,5.875,-24.6875,0
19080,-11.75,6.3125,-22.9375,0
19100,-8.8125,9.375,-22.4375,0
19120,-4.1875,13.75,-24.5,0
19140,-0.3125,13.625,-24.4375,0
19160,-3.5625,12.125,-24.125,0
19180,-7.1875,16.1875,-21.75,0
19200,-6.125,22.375,-22.5625,0
19220,-4,22.0625,-26.125,0
19240,-2.5625,18.5625,-27.0625,0
19260,-2.1875,21.125,-28.1875,0
19280,-3.125,24.0625,-27.6875,0
19300,-8.5625,23.5,-27.375,0
19320,-9,25.375,-27.5,0
19340,-6.5625,27,-28.125,0
19360,-7.875,24.0625,-24.25,0
19380,-6,22.8125,-20.8125,0
19400,-0.8125,24.3125,-21.375,0
19420,-1.5,25.625,-21.125,0
19440,-5.9375,26.1875,-18.4375,0
19460,-12.4375,26.125,-17.8125,0
19480,-10.0625,28.375,-18.1875,0
19500,-6.6875,29.9375,-17.875,0
19520,-7.0625,28.375,-14.875,0
19540,-5.375,28.625,-12.625,0
19560,-0.9375,30.25,-13,0
19580,-5,31.5,-13.125,0
19600,-2.3125,34.1875,-7.9375,0
19620,1.375,30.375,-3.0625,0
19640,-0.375,24,-2.875,0
19660,-0.8125,21.125,-4.0625,0
19680,0.25,20.9375,-5.1875,0
19700,-0.5625,20.6875,-4.25,0
19720,-5.875,21.75,-5.375,0
19740,-5.5,22.625,-6.375,0
19760,-1.9375,23.6875,-6.3125,0
19780,-5.5625,21.4375,-2.8125,0
19800,-6.1875,20.0625,-0.0625,0
19820,-3.4375,22.375,0,0
19840,-5.25,23.8125,0.875,0
19860,-6.9375,23.5,1.9375,0
19880,-9.125,24.5,0.8125,0
19900,-9.375,25.875,-0.9375,0
19920,-5.25,27,-1.375,0
19940,-5.875,26.6875,-2.1875,0
19960,-6.0625,28.75,-2.875,0
19980,-5.5,29.8125,-0.625,0
20000,-6.375,29.75,-0.1875,0
20020,-4.5625,29.5,1,0
20030,-2.0625,29.625,3.1875,0
20050,-2.8125,29.3125,4.6875,0
20070,-0.625,28.1875,4.3125,0
20090,-3,26.3125,5.8125,0
20110,-3.0625,25.0625,7.9375,0
20130,-4.3125,23.375,9.5,0
20150,-4.5625,21.75,11.5625,0
20170,-8.1875,19.25,12.4375,0
20190,-8.9375,17.8125,12.75,0
20210,-8.0625,15.375,14.25,0
20230,-8.5625,13.125,14.9375,0
20250,-9.4375,11.75,14.125,0
20270,-6.5625,12.6875,14.125,0
20290,-7.4375,12.5,13,0
20310,-7.1875,11,13.8125,0
20330,-7.75,13.375,16.25,0
20350,-10.4375,15.0625,20.4375,0
20370,-25.8125,13.1875,27.125,0
20390,-38.9375,17.375,29.4375,0
20410,-30.375,20.375,26.8125,0
20430,-25.875,16,25.0625,0
20450,-20.5625,13.9375,23.625,0
20470,-13.8125,16,20.8125,0
20490,-14.25,16.8125,18.4375,0
20510,-9.4375,18.25,20.3125,0
20530,-9.75,19.5,21.0625,0
20550,-7.8125,16.625,22.375,0
20570,-4.8125,14.8125,23.3125,0
20590,-2.8125,15.3125,19.875,0
20610,-8.6875,14.25,15.5,0
20630,-8.8125,13.125,11.9375,0
20650,-5.0625,11,9.0625,0
20670,-5.6875,7.3125,8.75,0
20690,-0.6875,6.875,8.4375,0
20710,0.625,3.8125,9.125,0
20730,-2,2.5,8.5625,0
20750,1.1875,2.5625,7.4375,0
20770,-5.5,0.1875,9.3125,0
20790,-8.375,-0.25,10.625,0
20810,-1.25,-1.0625,11.875,0
20830,-2.375,-1.3125,11.4375,0
20850,-3.625,-1.1875,10.4375,0
20870,-5.4375,-3.5,12.625,0
20890,-3.8125,-5.1875,13.75,0
20910,-1.5625,-6.75,13.375,0
20930,-4.9375,-7.4375,12,0
20950,-4.625,-6.125,10.9375,0
20970,-0.8125,-7.8125,11.625,0
20990,-5.8125,-10.8125,11.5,0
21010,-5.875,-10.6875,12.625,0
21030,-10.4375,-7.5625,13.4375,0
21050,-7.8125,-6.625,12,0
21070,-0.75,-8.0625,10.0625,0
21090,0.375,-10.5,9.25,0
21110,2.5,-11.4375,8.875,0
21130,-0.5,-11.4375,7.8125,0
21150,-3.5625,-11.875,5.5,0
21170,-9.375,-13.9375,5.25,0
21190,-8.25,-13.5625,6.4375,0
21210,-4.0625,-13.375,7.5,0
21230,-4.25,-13.625,9,0
21250,-6.1875,-13.5,9.75,0
21270,-9.1875,-14.0625,11.625,0
21290,-8.5,-13.1875,11.8125,0
21310,-10.6875,-14.125,10.8125,0
21330,-10.6875,-15.25,9.875,0
21350,-7.375,-14.3125,8.9375,0
21370,-1.1875,-13.375,11.125,0
21390,-4.875,-15.625,13.125,0
21410,-7.1875,-16.25,12.25,0
21430,-4.8125,-13.5625,9.8125,0
21450,-3,-12.875,8,0
21470,-0.25,-14.4375,8.625,0
21490,-3.125,-13.5625,7.5,0
21510,0.125,-11.4375,6.25,0
21530,2.875,-12.6875,5.6875,0
21550,-0.8125,-14.75,4.25,0
21570,-3.75,-15.625,2.8125,0
21590,-2.5,-15.375,0.3125,0
21610,-1.375,-17.9375,-1.3125,0
21630,-11.5,-19.9375,-2.6875,0
21650,-6.5625,-19.0625,-5.4375,0
21670,2.625,-18.625,-7,0
21690,3.5625,-21.4375,-6.375,0
21710,-4.375,-23.0625,-4.625,0
21730,-6.75,-23.3125,-2,0
21750,-4.625,-22.1875,0,0
21770,-5.25,-22.6875,1.9375,0
21790,-7.25,-21.125,4.0625,0
21810,-10.9375,-18.6875,5,0
21830,-10.6875,-18.8125,4.3125,0
21850,-1.8125,-18.1875,3.375,0
21870,1.375,-17.125,2.25,0
21890,4.75,-18.5,1.125,0
21910,4.4375,-22.75,0.125,0
21930,-2,-24.625,-2.0625,0
21950,-3.625,-25.375,-4.875,0
21970,-3.5,-25.9375,-8,0
21990,-3.625,-26.4375,-8.8125,0
22010,-3.9375,-27,-9.5625,0
22030,-6.4375,-27.25,-12.625,0
22050,-5.625,-28.1875,-14.3125,0
22070,-2.4375,-29.9375,-14.5625,0
22090,-1.6875,-31.75,-15,0
22110,-3.875,-33,-15.1875,0
22130,-5.25,-34.4375,-15.8125,0
22150,-5.5625,-35.875,-15.8125,0
22170,-6.125,-35.3125,-15.75,0
22190,-5.5,-34.6875,-15.1875,0
22210,-5.9375,-34,-16.4375,0
22230,-3.625,-32.625,-19.1875,0
22250,1.125,-31.375,-22.625,0
22270,5.1875,-28.0625,-23.625,0
22290,3.4375,-27,-23.25,0
22310,1,-27.6875,-22.375,0
22330,3.75,-27.375,-23,0
22350,7.375,-25,-25.0625,0
22370,2.0625,-24.5625,-25.9375,0
22390,2.125,-23,-24.25,0
22410,2.75,-21.5,-24.3125,0
22430,-1.875,-20.5625,-25.8125,0
22450,0.6875,-17.9375,-27,0
22470,6.5,-15.4375,-27,0
22490,10.5,-13.375,-26.25,0
22510,13.0625,-12.5625,-23.75,0
22530,16.0625,-12.75,-21.375,0
22550,10.875,-12.25,-20.9375,0
22570,10.375,-8.5625,-22.5,0
22590,13.1875,-7.5625,-23.9375,0
22610,-1.1875,-10.1875,-24.9375,0
22630,-4.75,-5.8125,-25.125,0
22650,2.25,0,-27.1875,0
22670,7,0.375,-29.3125,0
22690,5,-1.3125,-29.6875,0
22710,7.375,0.375,-26.5,0
22730,11.1875,4.125,-20.375,0
22750,4.6875,4.125,-19.375,2001
22770,-5.3125,3.9375,-18.375,0
22790,-3.5625,7.5625,-16.375,0
22810,0.25,7.875,-14.3125,0
22830,-1.1875,3.125,-11.1875,0
22850,-0.1875,5.3125,-5.6875,0
22870,3.25,9.5625,-3.625,0
22890,0.9375,9.3125,-6.1875,0
22910,-4.375,8.5625,-6.1875,0
22930,-5.9375,9.3125,-3.8125,0
22950,-5.75,10.625,-0.75,0
22970,-3.4375,10.5,1,0
22990,-2,7.6875,2.5625,0
23010,-1.4375,5.875,5.125,0
23030,-0.625,5.5625,7.375,0
23050,-1.5625,5.25,9,0
23070,-4.5,4,9.625,0
23090,-6.375,2.4375,9.8125,0
23110,-3.375,2.0625,11,0
23130,1.75,1.6875,12.6875,0
23150,2.875,2.5,15.6875,0
23170,4.375,4.75,20.8125,0
23190,6.625,8.3125,25.3125,0
23210,9.25,7.25,29.0625,0
23230,8,1.5,32.8125,0
23250,9.25,2.6875,35.0625,0
23270,9.875,7.25,34.5625,0
23290,7.375,9.4375,33.375,0
23310,1.0625,2.125,33.6875,0
23330,1,3.0625,33.6875,0
23350,5.625,15.375,36.625,0
23370,13.875,22.625,35.75,0
23390,11.25,12.1875,37.5,0
23410,13.1875,6.5,52,0
23430,30.25,20.25,60.1875,0
23450,44.375,30.3125,51.25,0
23470,45.5,25.8125,51.0625,0
23490,37.75,20.6875,63.125,0
23500,43,24.75,66.625,0
23520,45.9375,29.1875,58.875,0
23540,45.875,26.3125,60.625,0
23560,41.9375,19.375,64.25,0
23580,41.25,17.25,60,0
23600,39.25,18.3125,50.875,0
23620,35.9375,14.125,49.5,0
23640,30.125,7.4375,47.4375,0
23660,29.8125,6.125,41.4375,0
23680,27.875,5.625,35.9375,0
23700,31.6875,2.6875,35.125,0
23720,26.75,-1.75,35.25,0
23740,24.4375,-2.1875,36.375,0
23760,21.5,-2.5625,31.8125,0
23780,18.8125,-5.1875,29.25,0
23800,11.3125,-9.8125,29.3125,0
23820,3.125,-7.9375,27.8125,0
23840,7.25,-3.1875,22.125,0
23860,9.625,-1.5625,17.125,0
23880,12.5,-3.25,17,0
23900,11.5,-7.1875,19.3125,0
23920,8.1875,-10.3125,18.8125,0
23940,8.8125,-10.875,14.5,0
23960,7.3125,-12.9375,13,0
23980,6.1875,-17.4375,14.0625,0
24000,1.6875,-19,12,0
24020,0.3125,-18.5625,10.3125,0
24040,3.0625,-19.3125,6.25,0
24060,5.1875,-20,5.4375,0
24080,0.5625,-19.8125,5.4375,0
24100,6.1875,-17.375,3.25,0
24120,14.625,-17.75,0.25,0
24140,14,-20.75,2.375,0
24160,16.6875,-25.4375,9.0625,0
24180,15.1875,-30.9375,12.25,0
24200,6.75,-21.75,12.375,0
24220,5.1875,-15.1875,2.875,0
24240,-8.375,-17.1875,0.25,0
24260,-6.1875,-16.8125,8.625,0
24280,4.5625,-13.9375,7.75,0
24300,5.5625,-15.1875,4.625,2000
24320,1.125,-13.6875,5.75,0
24340,-1.75,-11.125,5.0625,0
24360,-3.1875,-11.1875,2.8125,0
24380,-4,-12.25,2.625,0
24400,-4,-11.6875,2.8125,0
24420,-4.4375,-9.3125,2.25,0
24440,-3.8125,-8.9375,0.1875,0
24460,-3.9375,-11.0625,-2.375,0
24480,-2,-11.125,-1.5625,0
24500,2.8125,-11.1875,-2.5,0
24520,-1.5625,-11.9375,-4.4375,0
24540,-5.5625,-13.5625,-3.125,0
24560,-5.625,-13.6875,-2.4375,0
24580,-1.375,-13.375,-4.5625,0
24600,-1.1875,-15,-4.0625,0
24620,-5.0625,-17.4375,-2.1875,0
24640,-5.5625,-18.8125,-2.625,0
24660,-3.1875,-17.125,-3.8125,0
24680,-2.875,-18.6875,-4.0625,0
24700,-1.6875,-20.375,-3.375,0
24720,1,-22.5,-4.6875,0
24740,3.6875,-22.375,-6.9375,0
24760,7.5625,-21.5,-7.625,0
24780,6.0625,-19.8125,-5.5625,0
24800,5.25,-17.375,-4.1875,0
24820,3.25,-17.125,-6.375,0
24840,2.625,-16.1875,-5.375,0
24860,4.375,-13.375,-6.1875,0
24880,3.125,-15.1875,-6.125,0
24900,-0.625,-17.1875,-5.75,0
24920,1.4375,-15.0625,-5.5625,0
24940,6.5,-10.9375,-7.9375,0
24960,-0.75,-10.875,-8.9375,0
24980,-4.375,-8.4375,-8.4375,0
25000,1.1875,-6.875,-10,0
25020,4.5,-5.4375,-10.5625,0
25040,4.875,-5.875,-9.625,0
25060,4.25,-6.0625,-9.625,0
25080,3.6875,-2.4375,-11.4375,0
25100,6.0625,1.8125,-12.125,0
25120,0.1875,2.875,-10.75,0
25140,-2.5625,1.8125,-10.25,0
25160,3.0625,0.875,-13.125,0
25180,7.125,2.375,-14.9375,0
25200,7.25,3.3125,-15.0625,0
25220,-0.3125,3.25,-14.625,0
25240,-17.6875,10,-8.5,0
25260,-22.5625,16,-7.75,0
25280,-3.75,13,-18.125,0
25300,14.75,0.3125,-26.375,0
25320,10.8125,-1.5625,-27.125,0
25340,5.9375,-3.25,-29.3125,0
25360,4.5625,-3.3125,-28.5625,0
25380,2.75,-3.3125,-25.3125,0
25400,5,-2.6875,-23.25,0
25420,2.8125,0.0625,-23.4375,0
25440,-0.25,5.625,-23.125,0
25460,-1.5,10,-23.9375,0
25470,-2.9375,11.75,-22.625,0
25500,-5,11.8125,-21.125,0
25510,-1.0625,12.4375,-23.3125,0
25530,0.625,11.3125,-24.875,0
25550,-3.3125,10.5,-24.1875,0
25570,-8.375,12.125,-23.5625,0
25590,-13.8125,15.1875,-21.5625,0
25610,-16.0625,18.5,-21.625,0
25630,-19.375,22.3125,-24.0625,0
25650,-20.125,27.375,-26.5,0
25670,-14.5,30.25,-27.3125,0
25690,-12.5625,29.5625,-27.1875,0
25700,-11.0625,27.375,-28.5,0
25730,-9.75,27.8125,-29.3125,0
25750,-10.875,26.625,-29.5,0
25770,-8.9375,27.4375,-30.125,0
25790,-7.0625,30.5,-29.3125,0
25810,-9.0625,32.6875,-26.3125,0
25830,-13.5625,34.1875,-24.5625,0
25850,-11.4375,34.8125,-23.875,0
25870,-9.9375,34.5625,-24.6875,0
25890,-9.3125,35.5625,-25.8125,0
25910,-11.1875,35.5,-25.875,0
25930,-9,35.5,-26.75,0
25950,-7.625,33.4375,-27.3125,0
25970,-5.0625,32.1875,-29.375,0
25990,-5.25,33.4375,-30.5625,0
26000,-10.4375,35.25,-28.75,0
26020,-11.875,35.375,-28.625,0
26040,-10.9375,33.6875,-29.6875,0
26060,-15.1875,33.125,-30.0625,0
26080,-15.25,36,-28.3125,0
26100,-18.625,40,-25.375,0
26120,-20.8125,42.25,-21.0625,0
26140,-20.3125,44.25,-17.8125,0
26160,-17.3125,45.625,-15,0
26180,-18.125,42.875,-9.3125,0
26200,-15.5,39.375,-4.9375,0
26220,-14.4375,35.5,-0.25,0
26240,-13.9375,32.375,3.6875,0
26260,-11.125,29.5625,5.0625,0
26280,-9.875,26.5,5.625,0
26300,-16.5,26.5625,10.6875,0
26320,-13.5625,27.125,12.375,0
26340,-15,25,14.0625,0
26360,-13.1875,21.75,15.125,0
26380,-7.875,21.6875,13.8125,0
26400,-3.8125,22.4375,15.9375,0
26420,-11.5,23.75,20.375,0
26440,-11.5625,25.5625,20.125,0
26460,-6.75,24.5625,16,0
26480,-13.875,20.9375,17.375,0
26500,-19.125,21.5,18.5625,0
26520,-18.5625,23.375,23.9375,0
26540,-10.4375,23.875,22.9375,0
26560,-0.4375,21.8125,20.8125,0
26580,3.375,19.875,19.1875,0
26600,-5.1875,16.6875,18.1875,0
26620,-3.375,16.125,13.25,0
26640,5.4375,14,9.875,0
26660,5.375,8.5,8,0
26680,-1,4.875,9.5625,0
26700,-8.3125,5.875,11.4375,0
26720,-12.75,6.25,12.125,0
26740,-8.8125,2.625,12.1875,0
26760,6.9375,1.125,9.9375,0
26780,6.4375,-0.0625,10.8125,0
26800,-1.5625,0.4375,13.625,0
26820,-9.875,0.5625,17.3125,0
26840,-3.4375,0.5,18.0625,0
26860,-0.625,-2.375,15.375,0
26880,-7,-4.4375,14.625,0
26900,-2.125,-5.375,15.5,0
26920,-1.3125,-7.75,16.875,0
26940,-4.625,-9.125,16,0
26960,-1.4375,-8.375,14.9375,0
26980,-3.0625,-8.125,13.5,0
27000,-5.75,-7.4375,13.25,0
27020,-10.9375,-8.25,15.875,0
27040,-11.1875,-10.875,17.875,0
27060,-5.375,-12.125,18,0
27080,2.5,-11.5,17.0625,0
27100,-1.8125,-12.75,15.8125,0
27120,-9.5,-13.875,16.1875,0
27140,-9.375,-13.75,16.75,0
27160,-6.875,-17.0625,17.3125,0
27180,-12.125,-21.125,19,0
27200,-19.6875,-20.375,21.4375,0
27220,-14.875,-17.25,22.4375,0
27240,-12.3125,-19.75,20.4375,0
27260,-18.6875,-22.5625,15.8125,0
27280,-11.125,-21.25,10.5625,0
27300,-6.8125,-21.5,7.75,0
27320,-4.8125,-23.875,8,0
27340,-5.625,-24.375,8,0
27360,-2.1875,-23.0625,7.3125,0
27380,-3.3125,-23.9375,8.5625,0
27400,-6.875,-24.5625,9.4375,0
27420,-5.8125,-23.75,9.0625,0
27440,-5.875,-23.4375,7.375,0
27460,-7.1875,-24.0625,6.875,0
27480,-3.125,-24.625,7.25,0
27500,-0.125,-23.9375,7.3125,0
27520,-3.75,-26.1875,7.875,0
27540,-3.4375,-27.375,6.3125,0
27560,-1.25,-28.9375,5.625,0
27580,-3.625,-30.375,7.125,0
27600,-7.75,-30.375,6.5625,0
27620,-2.875,-29.625,6.6875,0
27640,-1.5625,-31.9375,7.5,0
27660,-4.625,-33.25,6.6875,0
27680,-1.3125,-32.3125,6.875,0
27700,0.1875,-32.5625,7.9375,0
27720,-5.75,-34.0625,8.1875,0
27740,-3.5,-33.125,6.125,0
27760,-0.0625,-32.625,5.0625,0
27780,-5.3125,-35.25,6.5625,0
27800,-7.75,-36.25,7.125,0
27820,-3.5625,-33.625,5.625,0
27840,2.375,-32.5,5.625,0
27860,-2,-35.625,6.75,0
27880,-6.625,-37.875,4.5,0
27900,-1.9375,-35.1875,0.5625,0
27920,-0.5,-34.5625,-0.5625,0
27940,-4.0625,-38.5,-2.25,0
27960,-3.6875,-40.8125,-5.75,0
27980,-0.625,-40.625,-6.75,0
28000,-0.375,-41.6875,-7.75,0
28020,-0.6875,-44.4375,-11.9375,0
28040,-1.9375,-43.3125,-13.5,0
28060,-4.3125,-42.0625,-12.0625,0
28080,-8,-42.625,-10.375,0
28100,-3.125,-41.8125,-15,0
28120,1,-39.9375,-18.375,0
28140,-2.875,-39,-17.8125,0
28160,-0.8125,-38.9375,-15.4375,0
28180,2.1875,-38.75,-16.5,0
28200,4.0625,-37.3125,-18.1875,0
28220,-0.8125,-36.625,-15.125,0
28240,-3.4375,-35.4375,-11.4375,0
28260,2.6875,-32.5,-11.1875,0
28280,5.3125,-30.0625,-14.375,0
28300,-1.4375,-29.3125,-16.25,0
28320,-4.1875,-29.5,-15.9375,0
28340,0.6875,-24.5625,-15.25,0
28360,4,-21.625,-16.0625,0
28380,3.3125,-21.1875,-19.25,0
28400,2.1875,-17.875,-20.875,0
28420,3.5,-13.25,-22.625,0
28440,1.4375,-10.9375,-23.0625,0
28460,-1.625,-9.375,-24.6875,0
28480,0,-6.6875,-27.125,0
28500,-1.9375,-3.75,-27.1875,0
28520,-3.75,0.125,-28.625,0
28540,-5.875,4.5,-26.8125,0
28560,-7.625,9.4375,-25.5625,0
28580,-7.4375,12,-23.75,0
28600,-0.625,14.9375,-24.625,0
28620,3.875,23.125,-27.9375,0
28640,4.3125,25,-28.125,0
28660,-5.375,21.0625,-26.875,0
28680,-2.5,22.8125,-27,0
28700,3.75,30.4375,-29.625,0
28720,2.5,30.75,-27.6875,0
28740,0.5,21.375,-25.875,0
28760,4,20,-31.125,0
28780,7.25,24.5,-34.5625,0
28800,3.25,23.4375,-31.5625,0
28820,-7.5625,20.9375,-30.9375,0
28840,-1.0625,21.125,-34.5,0
28860,1.6875,20.8125,-38.6875,0
28880,-5.3125,18.5,-38.4375,0
28900,-5.875,19.125,-38.4375,0
28910,-3,20.9375,-40.1875,0
28920,-12.75,23.5625,-37.6875,0
28940,-12.625,26.25,-38.3125,0
28960,-12.5,28.8125,-38.3125,0
28980,-13.5625,29.5,-35.1875,0
29000,-13.9375,30.5,-33.5,0
29020,-13.75,30.8125,-31.9375,0
29040,-13.5625,31.6875,-29.375,0
29060,-17.375,34.4375,-28.125,0
29080,-17.875,36.5,-24.8125,0
29100,-17.6875,36.1875,-20.6875,0
29120,-16.875,36.9375,-20.6875,0
29140,-14.8125,38.75,-20.375,0
29160,-12.8125,36.4375,-19.375,0
29180,-11.75,34.25,-16.3125,0
29200,-11.3125,33.9375,-15.4375,0
29220,-12.8125,34.875,-13.125,0
29240,-15.25,35.4375,-9.1875,0
29260,-13.75,35.625,-6,0
29280,-11.3125,33.6875,-4.375,0
29300,-7.4375,32.4375,-2.5,0
29320,-6.875,33.875,-2.125,0
29340,-7.75,36.9375,-2.125,0
29360,-10.1875,37.3125,2.375,0
29380,-15.25,36.375,8.875,0
29400,-9.375,37.5,12.5,0
29420,-6.4375,36.0625,16.375,0
29440,-10.375,34.375,18.875,0
29460,-6.125,33.1875,17.8125,0
29480,-5.6875,30.4375,18.3125,0
29500,-13.375,28.625,20.9375,0
29520,-10.5,26.75,22.375,0
29540,-5.875,19.9375,24.3125,0
29560,-5.25,15.6875,24.5,0
29580,-4.8125,17.125,20.625,0
29600,-13.3125,20.875,17.625,0
29620,-18.1875,19.75,19.9375,0
29640,-19,16.5,23.0625,0
29660,-7.1875,16.125,20.5,0
29680,2.125,14.9375,19.9375,0
29700,0.1875,15.375,20.25,0
29720,-8.5625,18.0625,21.625,0
29740,-21,20.9375,22.5,0
29760,-21.0625,21.875,22.8125,0
29780,-10.8125,20.4375,20.625,0
29800,-11.6875,13.5,17.75,0
29820,-9.125,9,17.3125,0
29840,1.125,7.375,19.25,0
29860,5.1875,7.375,19.8125,0
29880,2,8.375,18.5,0
29900,-2.875,8.1875,17.75,0
29920,-11.8125,7.875,16.5,0
29940,-18.9375,7.125,15.6875,0
29960,-14.625,3.9375,16.8125,0
29980,-2.5625,3.0625,18.0625,0
30000,1.6875,0.5,19.9375,0
30020,-0.5,-2.25,20.375,0
30040,-2.25,-3.625,19.75,0
30060,-8,-6.5,20.1875,0
30080,-11.9375,-8.9375,18.8125,0
30100,-4.875,-10.875,19.25,0
30120,-5.25,-12.5,20,0
30140,-8.5625,-14,18.0625,0
30160,-6.9375,-14.25,15.875,0
30180,-3.125,-16.4375,16.0625,0
30200,-5.9375,-18.75,16.75,0
30220,-5.1875,-19.75,14.5625,0
30240,-3.875,-19.4375,13.0625,0
30260,-6,-20.8125,14.125,0
30280,-8.5625,-23.6875,15,0
30300,-4.1875,-26.1875,15.4375,0
30320,-2.5,-26.375,14.125,0
30340,-5.4375,-25.5625,13.3125,0
30360,-8.3125,-25.5625,14.375,0
30380,-6.6875,-26.625,14.875,0
30400,-5.25,-27.75,13.9375,0
30420,-3.5625,-27.25,12,0
30440,-0.5,-26.125,9.4375,0
30460,2.625,-25.125,6.0625,0
30480,0.875,-25.5,2.3125,0
30500,-1.5625,-28.875,2.875,0
30520,-2.75,-31.0625,4.25,0
30540,2.8125,-30,6.25,0
30560,1.0625,-30.3125,7.125,0
30580,-2.75,-31.3125,7.3125,0
30600,-9.5625,-31.8125,6.9375,0
30620,-9.1875,-28.0625,6.125,0
30640,-7.9375,-28.1875,7.5625,0
30660,-10.5,-31.8125,8.4375,0
30680,-9.375,-31.5625,7.3125,0
30700,-4.375,-28.1875,6.9375,0
30720,-5.6875,-29.6875,5.9375,0
30740,-12.125,-32.875,5.5,0
30760,-9.3125,-31.25,2.75,0
30780,-3.75,-30.1875,-0.375,0
30800,-4.5,-33.8125,-2.9375,0
30820,-5.375,-37.125,-5.6875,0
30840,-2.375,-35.8125,-7.8125,0
30860,1.8125,-35.75,-9.25,0
30870,-1.75,-38.125,-11.8125,0
30890,-4.5625,-40.3125,-12.4375,0
30910,-4.3125,-40.125,-10.375,0
30930,-3.4375,-39.25,-11.25,0
30950,-3.75,-39.125,-13.3125,0
30970,-7.25,-39,-12.375,0
30990,-9.125,-35.625,-11.6875,0
31010,-10.1875,-32.75,-14.25,0
31030,-11.8125,-30.75,-15.125,0
31050,-12.625,-29,-14.9375,0
31070,-8.5625,-27.25,-14.875,0
31090,-1.9375,-28.5625,-17.375,0
31110,5.1875,-29,-20.0625,0
31130,4.375,-29.75,-22.0625,0
31150,0.5625,-27.3125,-23.75,0
31170,-4.25,-26.375,-24.1875,0
31190,-5.9375,-26.3125,-24.9375,0
31210,-5.1875,-24.9375,-25.875,0
31230,-7.25,-24.9375,-26.1875,0
31250,-3.75,-24.1875,-25,0
31270,3.5,-22.3125,-26.1875,0
31290,4,-20.75,-29,0
31310,2.4375,-17.875,-31.6875,0
31330,-2.6875,-16.4375,-35.875,0
31350,-9.25,-15.375,-37.625,0
31370,-9,-15.875,-35.5625,0
31390,-10,-14.25,-37.875,0
31410,-12.4375,-13,-41.5,0
31430,-13.3125,-13,-40.3125,0
31450,-10.125,-10.875,-39.625,0
31470,-9.5,-8.25,-40.125,0
31490,-6.875,-2.875,-42.1875,0
31510,-6.875,3.6875,-42.75,0
31530,-7.75,6.75,-41.875,0
31550,-9.0625,6.875,-41.3125,0
31570,-7.125,11.25,-42.125,0
31590,-11.9375,17.3125,-44.1875,0
31610,-15.5,19.6875,-41.9375,0
31630,-11.4375,22,-38.9375,0
31650,-9,27.25,-39.625,0
31670,-12,32.625,-38.75,0
31690,-13.5,31.6875,-37.375,0
31710,-13.6875,32.0625,-35.6875,0
31730,-13.9375,35.6875,-34.375,0
31750,-17.875,39.4375,-31.8125,0
31770,-20.25,38.0625,-25.875,0
31790,-18.4375,37.3125,-20.0625,0
31810,-9.875,40.0625,-19.625,0
31830,-8.25,41.9375,-17.8125,0
31850,-12.1875,41.125,-11.8125,0
31870,-11.375,40.9375,-4.75,0
31890,-6,44.9375,-2.1875,0
31910,-4.3125,47.875,-0.9375,0
31930,-11.25,46.0625,3.9375,0
31950,-14.9375,44.5,8.625,0
31970,-15.0625,45.8125,10.125,0
31990,-13.625,47.25,12,0
32010,-7,50.0625,17.9375,0
32030,0.4375,51.1875,22.125,0
32050,3.125,48.5,20.375,0
32070,3.5,44.625,14,0
32090,0.6875,43.625,12.3125,0
32110,-5.625,43.875,14.0625,0
32130,-8.6875,43.875,15.75,0
32150,-9.1875,40.6875,18.25,0
32170,-9.0625,39.375,21.3125,0
32190,-6,40.4375,21.75,0
32210,-5.5,40.625,22.0625,0
32230,-13.8125,39.4375,25.125,0
32250,-14.25,38.1875,28.875,0
32270,-9.125,35.4375,30.5,0
32290,-7.8125,31.875,31.1875,0
32310,-9.1875,30.75,31.4375,0
32330,-12.5,30.5625,32.1875,0
32350,-11.3125,30.5625,35.5625,0
32370,-13.25,30,32.8125,0
32390,-15.875,29.125,29.9375,0
32410,-17,25.375,28.75,0
32430,-11.375,22.3125,28,0
32450,-8.0625,18.75,25.8125,0
32470,-5.9375,13.625,23.0625,0
32490,-2.125,9.8125,22.875,0
32510,-2.25,7.8125,20.9375,0
32530,-4,6.4375,19.25,0
32550,-4.375,4.1875,18.5625,0
32570,-6.9375,-1.125,18.75,0
32590,-8.6875,-3.75,18.3125,0
32610,-6.6875,-3.5625,17.75,0
32630,-4.875,-5.0625,18.75,0
32650,-5.25,-6.9375,19.4375,0
32670,-6.125,-7.625,19.9375,0
32690,-5.0625,-7.875,21,0
32710,-4.0625,-6.75,20.6875,0
32730,-3.6875,-4.875,21.6875,0
32750,-7.9375,-4.75,22.9375,0
32770,-7.1875,-5.4375,24.4375,0
32790,-6.0625,-5.0625,25.0625,0
32810,-7.8125,-5.6875,23,0
32830,-11.8125,-6.6875,21.75,0
32850,-11.25,-6.8125,19.3125,0
32870,-11.6875,-8.5625,16.9375,0
32890,-9.9375,-10.25,13.25,0
32910,-5.375,-14.25,12.8125,0
32930,-7.0625,-17.4375,10.9375,0
32950,-5.8125,-18.625,8.4375,0
32970,-2.875,-18.875,7.8125,0
32990,-6.8125,-21.5625,6.9375,0
33010,-6,-22.25,7.375,0
33030,-4.3125,-22.8125,7.25,0
33050,-10.5625,-23.625,7.125,0
33070,-11.5625,-23.0625,7.9375,0
33090,-10.5,-23.9375,10.0625,0
33110,-5.8125,-24.75,9.375,0
33130,-6,-26.5,7.75,0
33150,-8.75,-27.75,8.8125,0
33170,-9.9375,-28.4375,9.1875,0
33190,-15.4375,-29.625,9.4375,0
33210,-19.9375,-31.5625,9.25,0
33230,-16.25,-31.375,7.6875,0
33250,-7.5,-31.9375,2,0
33270,-0.125,-33.9375,-2.375,0
33290,1.875,-35.375,-2.6875,0
33310,-1.0625,-35.6875,-3.0625,0
33330,-4.75,-34.4375,-3.625,0
33350,-3.4375,-33.125,-2.125,0
33370,-4.75,-35.6875,-1.25,0
33390,-2.3125,-34.9375,-1.125,0
33410,-3.0625,-34.625,-0.25,0
33430,-6.875,-34.1875,-2,0
33450,-5.875,-34.4375,-2.625,0
33470,-4.375,-33.6875,-2.1875,0
33490,-8.4375,-33.125,-4.0625,0
33510,-5.0625,-30.9375,-7.5625,0
33530,-2,-33.0625,-8.25,0
33550,-2.875,-35.5,-10.25,0
33570,-1.4375,-33.5,-14.125,0
33590,-1.125,-32,-15.75,0
33610,1.5,-32.8125,-17.375,0
33630,1.875,-33.75,-18.875,0
33650,-1.75,-30.875,-20,0
33670,-2.375,-27.8125,-21.6875,0
33690,-0.4375,-26.625,-25.875,0
33710,-0.875,-26.4375,-30.4375,0
33730,2,-24.375,-33.8125,0
33750,4.8125,-23.375,-34.6875,0
33770,7,-22.8125,-35.8125,0
33790,13.125,-21.75,-37.625,0
33810,13.25,-20.4375,-41.3125,0
33830,8.3125,-19.0625,-42.1875,0
33850,6.375,-17.75,-41.125,0
33870,7.125,-12.1875,-40.1875,0
33890,8.25,-11.375,-39.625,0
33910,6,-10.375,-43.0625,0
33930,6.1875,-10.5625,-45.9375,0
33950,15.0625,-8.5625,-45.875,0
33970,12.0625,-10,-47.25,0
33990,4.375,-6.5625,-46.5625,0
34010,-1.5625,-3.4375,-45.0625,0
34030,4.9375,-3.125,-42.6875,0
34050,3.75,-3.125,-39.75,2001
34070,-1.125,-3.5625,-33.625,0
34090,-5,-2.8125,-26,0
34110,-3.1875,-1.4375,-23.625,0
34130,-2.6875,-0.8125,-21.9375,0
34150,-7.9375,-4,-17.375,0
34170,-11.4375,-5.5625,-12.25,0
34190,-9.5625,-2.9375,-9.8125,0
34210,-8.375,-2.4375,-8.0625,0
34230,-9.375,-2.125,-4.6875,0
34250,-6.1875,0.0625,-3.5,0
34270,-7.125,-0.8125,-2.5,0
34290,-4.8125,-0.4375,-2.5,0
34310,-7.875,2,-4.1875,0
34330,-13.875,6.1875,-3.375,0
34340,-18.75,8.9375,-2.0625,0
34360,-18.9375,12.5625,1.375,0
34380,-16.75,15.25,4.875,0
34400,-12.375,18.25,9.8125,0
34420,-6.125,20.375,14.75,0
34430,-0.125,22,20,0
34440,0.5,21.625,25.6875,0
34460,-3,22.0625,31.75,0
34480,3.25,21.5,40.4375,0
34500,6,20.8125,43.125,0
34520,0.25,22.875,44.4375,0
34540,0.9375,24.0625,49.8125,0
34560,2.1875,25.125,52.75,0
34580,6.25,27.6875,56.4375,0
34600,17.5,29.4375,58.125,0
34620,22.75,33.8125,63.4375,0
34640,26.75,34.625,73.5,0
34660,22.3125,31.1875,79.5625,0
34680,27.1875,35.5625,81.3125,0
34700,39.3125,41.75,85.75,0
34720,41,40.1875,91.3125,0
34740,37.125,33.375,92,0
34760,45.4375,35.6875,87.75,0
34780,50.75,38.8125,85.8125,0
34800,53.4375,34.4375,86.6875,0
34820,42,23,83.9375,0
34840,46.0625,19.875,74.5625,0
34860,49.875,19.3125,67.5625,0
34880,49.5625,9.75,63.5,0
34900,48.9375,-1.3125,59.3125,0
34920,49.5625,-2.1875,53.5,0
34940,48.75,-1.5,49,0
34960,44.375,-3.0625,44.0625,0
34980,38.4375,-7,38.125,0
35000,34.4375,-7.0625,32.6875,0
35020,38.4375,-3.1875,30.3125,0
35040,40.1875,-0.5625,24.3125,0
35060,32.875,-3.625,20.8125,0
35080,26.125,-6.6875,22.75,0
35100,29.8125,-4.9375,20.3125,0
35120,27.3125,-4.9375,16.375,0
35140,22.875,-6.4375,14.125,0
35160,13.4375,-10.125,12.625,0
35180,12.875,-12.4375,13.75,0
35200,11.5,-15.9375,11.8125,0
35220,5.1875,-16.6875,10,0
35240,4.375,-9.375,2,0
35260,7.5625,-9.1875,-6.875,0
35280,6.375,-13.375,-5.5625,0
35300,3.125,-13.5625,1.3125,0
35320,1.4375,-10.9375,3.5625,0
35340,-1.3125,-8.0625,-0.375,0
35360,-3.6875,-8.25,-1.4375,0
35380,-3.25,-9.9375,3.25,2000
35400,-4.5,-11,5.4375,0
35420,-4.4375,-9.4375,4.875,0
35440,-2,-10.0625,6.125,0
35460,0.6875,-12.1875,5.5625,0
35480,3.3125,-14.3125,2.625,0
35500,1.8125,-13.0625,-0.875,0
35520,2.25,-9.875,-3.8125,0
35540,-2.8125,-11.75,-3.3125,0
35560,-3.875,-15.4375,-3.375,0
35580,3.5625,-17,-5.375,0
35600,6.0625,-19.25,-9.875,0
35620,7.3125,-21.125,-11.125,0
35640,4.75,-24.625,-10.4375,0
35660,1.875,-26.9375,-10.9375,0
35680,3.75,-27.0625,-12.9375,0
35700,1.0625,-27.75,-14.625,0
35720,4.625,-30.1875,-16.5625,0
35740,7.0625,-33,-18.625,0
35760,6.375,-32.4375,-19.9375,0
35780,2.125,-32.0625,-18.375,0
35800,-2.1875,-34.25,-16.4375,0
35820,-1.3125,-32.75,-18.375,0
35840,4.4375,-29,-21.0625,0
35860,2.375,-27.6875,-19.8125,0
35880,-1.25,-29.125,-16.125,0
35900,-3.125,-29.1875,-13.5,0
35920,-7.25,-25.6875,-12.0625,0
35940,-7.625,-18.75,-10.25,0
35960,-2.5625,-13.9375,-13.75,0
35980,-1.875,-15.75,-17.4375,0
36000,-3.3125,-12.3125,-20.125,0
36020,-7.125,-6.625,-20.9375,0
36040,-8.125,-4.25,-22.8125,0
36060,-5,-3.5625,-23.3125,0
36080,-5.5,-2.375,-24.625,0
36100,-10.125,1.5625,-24.5,0
36120,-9.625,6.5,-23.4375,0
36140,-8.625,8.6875,-20.9375,0
36160,-13.75,10.3125,-18.1875,0
36180,-10.625,13.5625,-16.8125,0
36200,-5.375,13.0625,-19.5625,0
36220,-5.6875,12.6875,-21.875,0
36240,-9.6875,16.0625,-20.6875,0
36260,-11.9375,17.6875,-20.75,0
36280,-15.75,19.0625,-20.125,0
36300,-13.875,23,-21.3125,0
36320,-10.0625,25.9375,-22.5625,0
36330,-10.25,29.5,-22.1875,0
36350,-12.875,31.875,-22.8125,0
36360,-16.25,33.5,-25.0625,0
36380,-16.0625,32.375,-25.125,0
36400,-15.9375,31.6875,-26.125,0
36420,-15.75,32.8125,-26.3125,0
36440,-19.25,34.4375,-25.4375,0
36460,-18.9375,35.125,-25.625,0
36470,-19.25,36.3125,-25.625,0
36490,-18.6875,38.9375,-26.875,0
36510,-18.875,42.6875,-27.6875,0
36530,-17.1875,46.4375,-29,0
36550,-17.625,47.3125,-30.875,0
36570,-16.4375,48.1875,-32.375,0
36590,-14.375,47.5625,-33.9375,0
36610,-12.1875,45.5625,-35.9375,0
36630,-10.9375,46.8125,-37.9375,0
36650,-13.4375,48.4375,-37.5625,0
36670,-13.75,49.125,-34.4375,0
36690,-16.625,48.5625,-31.0625,0
36710,-15.625,49.3125,-28.5625,0
36730,-15.125,49.625,-24,0
36750,-15.125,46.4375,-21.3125,0
36770,-11.125,41.8125,-21.5,0
36790,-6.875,38.4375,-20.0625,0
36810,-8.625,39.0625,-17.125,0
36830,-12.5,41.1875,-11,0
36850,-15.375,41.6875,-6.375,0
36870,-13.6875,39.625,-4.75,0
36890,-11.3125,38.3125,-3.8125,0
36910,-7.75,38.4375,-0.75,0
36930,-8.875,39,1.625,0
36950,-6.8125,36.875,3.8125,0
36970,-6.8125,34.5,6.875,0
36990,-3.6875,28.625,8,0
37010,-3.5,25.625,7.625,0
37030,-1.625,22.8125,8.3125,0
37050,-11.1875,20.9375,10.625,0
37070,-15.3125,22.4375,14.5,0
37090,-11.8125,20.5625,13.375,0
37110,-10.4375,15.75,12.3125,0
37130,-5.3125,14.5625,10.8125,0
37150,-3.3125,13.625,13.5625,0
37170,-1.625,13.75,16.75,0
37190,-1.0625,13.5,15.25,0
37210,0.3125,12.1875,11.5,0
37230,1.125,9.625,9.9375,0
37250,0.125,5.875,11.25,0
37270,0.625,4.8125,12.625,0
37290,-5.625,6.9375,11.0625,0
37310,-12.5,8.6875,13.25,0
37330,-4.75,8.4375,15,0
37350,6.4375,5.375,13.25,0
37370,5.625,2.4375,15.0625,0
37390,0.6875,3.25,16,0
37410,-5.5,3.75,16.75,0
37430,-4.375,4.0625,16.6875,0
37450,-0.5,2.1875,16.3125,0
37470,-0.0625,-0.6875,15.375,0
37490,-1.9375,-1.8125,15.8125,0
37510,-8.8125,-2.8125,17.8125,0
37530,-6.8125,-3.5625,18.6875,0
37550,0.75,-4.8125,16.9375,0
37570,4.6875,-8.4375,15.9375,0
37590,2.8125,-8.5,15.75,0
37610,-4,-8.1875,16.75,0
37630,-8.75,-8.8125,17.4375,0
37650,-1.0625,-9.375,16.0625,0
37670,0.8125,-10.0625,14.6875,0
37690,-2.1875,-10.4375,16,0
37710,-4.5625,-10.25,16.875,0
37730,-0.5,-9.9375,15.875,0
37750,0.9375,-12.125,14.625,0
37770,-1,-14.0625,13.8125,0
37790,0.1875,-13.25,13.5625,0
37810,1.0625,-12.5,12.625,0
37830,-2.75,-15.1875,12.5,0
37850,-6.125,-15.6875,13.8125,0
37870,-2.1875,-15.375,15,0
37890,0.9375,-15.8125,14.625,0
37910,0.5,-17.5625,14.1875,0
37930,-1.0625,-18.25,15.3125,0
37950,-6.5,-19.625,15.9375,0
37970,-5.4375,-19.6875,15.75,0
37990,-0.4375,-19.625,14.625,0
38010,-3.0625,-21.3125,14.9375,0
38030,-4.6875,-22.875,14.625,0
38050,-3.6875,-23.625,13.125,0
38070,0.0625,-22.8125,12.25,0
38090,0.4375,-24.4375,12.5,0
38110,-3.5,-25.625,13.4375,0
38130,-0.4375,-23.625,12.8125,0
38150,-0.8125,-22.375,13.6875,0
38170,-4.8125,-24.9375,13.6875,0
38190,-5,-24.1875,14.25,0
38210,0.75,-22.125,14.1875,0
38230,1.625,-22.9375,13.375,0
38250,-5.875,-25.5,14.5625,0
38270,-6.5625,-23.5625,13.625,0
38290,-3.375,-23.0625,9.625,0
38310,-2.5,-24.8125,8.375,0
38330,-3.4375,-27.375,7.5625,0
38350,-2.0625,-27.6875,6.1875,0
38370,-0.1875,-28.1875,4.6875,0
38390,-3.875,-30.5,5.6875,0
38410,-6.5625,-30.875,5.0625,0
38430,-1.125,-29.3125,4.5,0
38450,-3.8125,-29.625,4.0625,0
38470,-9.5,-31.6875,4.375,0
38490,-5.9375,-31.875,4.75,0
38510,-2.4375,-33.25,5.25,0
38530,-8.9375,-35.1875,6,0
38550,-10.8125,-35.875,5.625,0
38570,-5.875,-36.6875,2.25,0
38590,-4.125,-39.3125,-0.9375,0
38610,-6.5,-41.375,-0.5625,0
38630,-10.5625,-42.25,-0.375,0
38650,-6.0625,-43.1875,-1.3125,0
38670,-10.0625,-44,-2.6875,0
38690,-9.375,-43.875,-3,0
38710,-7.5625,-43.25,-5.1875,0
38730,-1.3125,-43.875,-9.6875,0
38750,0.8125,-44.4375,-11.9375,0
38770,3.25,-41.8125,-11.1875,0
38790,5.875,-41,-11.25,0
38810,5.0625,-40.125,-14.3125,0
38830,2.4375,-38.875,-16.9375,0
38850,0.0625,-35.375,-16.3125,0
38870,-2.5625,-36.25,-13.25,0
38890,0.5,-36.875,-13.125,0
38910,6.0625,-34.5,-15.8125,0
38930,9.3125,-32.625,-17,0
38950,7.875,-32.5,-15.625,0
38970,-2.6875,-33.5625,-13.875,0
38990,6.1875,-29.25,-13.125,0
39010,11.6875,-26,-14.5625,0
39030,5.75,-27.875,-15.9375,0
39050,-0.25,-28.625,-15.125,0
39070,4.375,-23.4375,-16,0
39090,5.4375,-17,-15.75,0
39110,2.5625,-17.375,-18.1875,0
39130,-4.6875,-20.125,-22,0
39150,0.875,-15.6875,-24,0
39170,0.1875,-10.5625,-25.25,0
39190,-0.25,-9.0625,-26.8125,0
39210,-4.625,-11.4375,-28.4375,0
39230,-8.3125,-8.125,-29.6875,0
39250,-8.625,0.25,-28.875,0
39270,-8.1875,3.625,-28.875,0
39290,-11.1875,1.625,-27.9375,0
39310,-10.5625,3.25,-28.6875,0
39330,-8,8.3125,-30.25,0
39350,-8.3125,10.125,-28.5,0
39370,-17.6875,6.0625,-22.75,0
39390,-12.875,3.125,-23.125,0
39410,-6.3125,10.1875,-27.9375,0
39430,-11.3125,17.3125,-30.1875,0
39450,-15.25,21.75,-30,0
39470,-18.1875,22.6875,-31.5625,0
39490,-22.1875,25.5625,-33.25,0
39510,-22.125,28.5,-33.625,0
39540,-17.5625,30.1875,-35.625,0
39560,-16.875,33.4375,-33.9375,0
39580,-15.6875,38.0625,-35.125,0
39600,-20.1875,37.75,-35.25,0
39620,-23.625,36.1875,-37.125,0
39640,-23.0625,39.25,-38.4375,0
39660,-25.75,42.6875,-34.5,0
39680,-24.3125,45.5,-31.5,0
39700,-21.875,46.8125,-32.4375,0
39730,-23.8125,46.9375,-28.1875,0
39740,-23.6875,47.25,-24.0625,0
39760,-19.3125,48.6875,-19.125,0
39780,-19.875,48.3125,-15.6875,0
39800,-18.1875,47.625,-14.3125,0
39820,-14.625,48.875,-11.875,0
39840,-15.8125,50.4375,-5.5625,0
39860,-17.25,50.5,0.9375,0
39880,-7.8125,51.25,2.4375,0
39900,-1.5625,46.25,0.1875,0
39920,-2.9375,38.9375,-1.4375,0
39940,-4.0625,39.6875,-0.4375,0
39960,-12.6875,42,0.0625,0
39980,-20.25,42.5,4.625,0
40000,-9.5,39.75,5.1875,0
40020,1.125,36.125,4.5,0
40040,2.75,34,1.625,0
40060,3.875,33.25,3.375,0
40080,-11.125,32.625,13.6875,0
40100,-6.25,31.125,16.9375,0
40120,-0.9375,30.6875,11.125,0
40140,2,29.25,8.6875,0
40160,-5.75,25.6875,14.375,0
40180,-5.9375,22.9375,17.9375,0
40200,2.3125,21.4375,15.75,0
40220,1.125,20.75,12.1875,0
40240,2.4375,17.75,11.125,0
40260,2.25,16.125,14.6875,0
40280,-2.4375,13.9375,16,0
40300,-1.375,12.6875,13.1875,0
40320,0.4375,11.8125,13.125,0
40340,-1.0625,12.5625,14.5625,0
40360,-5.0625,13.5,16,0
40380,-11.3125,15.25,16,0
40400,-3.6875,14.1875,17.875,0
40420,-1.625,9.5625,19.6875,0
40440,5.75,9.1875,17.6875,0
40460,9.5625,10.3125,15.6875,0
40480,-5,10.75,15,0
40500,-8.8125,10.375,15.8125,0
40520,-3.3125,9.75,18.25,0
40540,0.0625,6.25,19.3125,0
40560,3.4375,3.9375,19.0625,0
40580,4.125,5.1875,19.9375,0
40600,-6.1875,4.3125,22,0
40620,-4.1875,5.6875,20.8125,0
40640,1.75,3.875,17.4375,0
40660,-0.4375,1.25,16.0625,0
40680,-3.125,-1.5,18.0625,0
40700,-3.4375,-3.5,19.875,0
40720,-2.0625,-6.0625,18.875,0
40740,-2.5,-7,16.5625,0
40760,-6.9375,-8.125,19.4375,0
40780,-11.875,-10.625,20.875,0
40800,-8.5,-10.1875,21.25,0
40820,-7,-10.875,20.3125,0
40840,-8.25,-12.75,19.9375,0
40860,-7.625,-15.0625,23.25,0
40880,-8.625,-15.625,26.8125,0
40900,-7.9375,-14.6875,28,0
40920,-10.3125,-14.875,26.9375,0
40940,-13.9375,-17.25,27.875,0
40960,-8.4375,-19.625,27.375,0
40980,-8.9375,-21.8125,25.1875,0
41000,-14.5625,-23,24.8125,0
41020,-11.875,-24.9375,20.6875,0
41040,-6.6875,-25.8125,17.8125,0
41060,-5.125,-27.375,15.8125,0
41080,-8,-28.4375,13.8125,0
41100,-4.9375,-27.8125,13.1875,0
41120,1.4375,-28.125,11.5625,0
41140,2.1875,-29.9375,11.3125,0
41160,-0.9375,-30.25,10.625,0
41180,2.4375,-29.625,9.75,0
41200,1.1875,-30.4375,8.25,0
41220,1.25,-32.125,7.1875,0
41240,1.3125,-33.4375,6.0625,0
41260,1.5625,-34.1875,6.1875,0
41280,2.875,-35.1875,5.375,0
41300,-4.625,-36.5,4.25,0
41320,-6.4375,-36.625,4.3125,0
41340,-6.75,-36.6875,2,0
41360,1.125,-37.5,1.3125,0
41380,-0.3125,-38.8125,2.6875,0
41400,-6.375,-37.125,0.1875,0
41420,-0.25,-36.875,0.75,0
41440,-6.8125,-40.4375,2.0625,0
41460,-11.9375,-41.375,0.3125,0
41480,-7.125,-39.8125,-0.375,0
41500,-3.25,-39.625,-0.6875,0
41520,-6.0625,-41.0625,-4.1875,0
41540,-8.5,-39.875,-4.875,0
41560,-6.3125,-37,-7.1875,0
41580,-2.1875,-39.5,-10,0
41600,-3.875,-42.0625,-10.6875,0
41620,-1.3125,-40.5625,-14,0
41640,2.75,-37.375,-17.5625,0
41660,0.875,-39.0625,-17.9375,0
41680,-3.5,-38.125,-19.1875,0
41700,-2.375,-35.625,-22.5625,0
41720,-3.0625,-33.1875,-26.0625,0
41740,-3.6875,-33.3125,-27.5625,0
41760,-7.9375,-33.3125,-26.5625,0
41770,-0.0625,-31.625,-26.5625,0
41790,4.25,-31.1875,-29.25,0
41810,5.0625,-32.9375,-31.0625,0
41830,-0.625,-32.0625,-30.8125,0
41850,1.25,-26.9375,-30.1875,0
41870,3.75,-23.625,-32.125,0
41890,-3.375,-26.875,-33.1875,0
41910,-11.75,-25.375,-31.1875,0
41930,-9.4375,-16.6875,-31.0625,0
41950,-4.875,-11.0625,-31,0
41970,2.625,-11.75,-34.625,0
41990,7,-11.25,-40.75,0
42010,9.3125,-5.1875,-46.5,0
42030,3.1875,-1.125,-48.3125,0
42050,-5.25,-0.125,-47.3125,0
42070,-2.3125,3.9375,-47.875,0
42090,-4.5,5.1875,-49,0
42110,-12.875,3.1875,-49.3125,0
42130,-14,4.9375,-49.0625,0
42150,-5.75,9.5625,-47.75,0
42170,-12.75,14,-44.3125,0
42190,-22.875,17.5,-38.375,0
42210,-13.5,19.875,-38.625,0
42230,-2.25,23.5,-43.5,0
42250,-8.6875,26.4375,-43.4375,0
42270,-20.4375,29.3125,-38.75,0
42290,-17.6875,33.4375,-33.625,0
42310,-15.875,34.6875,-34.9375,0
42330,-16.9375,33,-34.8125,0
42350,-13.9375,35.125,-32.6875,0
42370,-9.8125,38.375,-30.3125,0
42390,-13.75,39.6875,-29.125,0
42410,-19.625,37.625,-24,0
42430,-15.5625,37.4375,-18.75,0
42450,-11.25,37.875,-15.9375,0
42470,-15,35.9375,-12.25,0
42490,-18.1875,36.75,-7.6875,0
42510,-10.5,39.6875,-4.875,0
42530,-8.5625,38.25,-5.5625,0
42550,-11,34.625,-3.75,0
42570,-10.8125,34.9375,-1.8125,0
42590,-3.5,36.25,-2.1875,0
42610,-5.25,36.6875,-2.375,0
42630,-4.8125,36.5625,0.5625,0
42650,-6.75,34.625,3.25,0
42670,-3.1875,32.25,2.75,0
42690,-5.0625,32.0625,1.3125,0
42710,-5.6875,32.875,4,0
42730,-10.3125,31.875,7.9375,0
42750,-7.5625,32.5625,8.875,0
42770,-6.75,32.75,5.5625,0
42790,-5.3125,34.5625,5.625,0
42810,-7.1875,36.0625,7.25,0
42830,-11.5,37.875,15.1875,0
42850,-7.4375,39.5,17.25,0
42870,-5.4375,38.875,15,0
42890,-8.8125,38.9375,14.8125,0
42910,-32.375,39.1875,21.75,0
42930,-46.3125,41.5625,28.125,0
42950,-27.3125,44.3125,26.3125,0
42970,-26.6875,34.8125,24.5,0
42990,-32.375,23.875,22.1875,0
43010,-16.3125,15.25,22.6875,0
43030,2.0625,11.375,26.375,0
43050,6,10.625,26.5,0
43070,-2,12.875,24.6875,0
43090,-9.625,18.8125,22.5,0
43110,-17.3125,19.5,24.4375,0
43130,-9.875,18,28.5,0
43150,-0.25,15.5625,27,0
43170,2.625,14,28.4375,0
43190,-5,13.875,29.4375,0
43210,-16.3125,12,33.4375,0
43230,-32.1875,9.0625,38.5,0
43250,-32.4375,6.75,38.8125,0
43270,-29.625,3.5625,36.75,0
43290,-35.125,-0.5,38.1875,0
43310,-34,-1.375,33.3125,0
43330,-24.4375,-0.125,31.6875,0
43350,-19.5625,-2.1875,34.5625,0
43370,-31.5,-3.375,33.0625,0
43390,-36,0.25,35,0
43410,-35.25,2.3125,33.25,0
43430,-29.1875,-2.3125,31.375,0
43450,-25.3125,-4.9375,28.5625,0
43470,-15.5625,-6.375,26.1875,0
43490,-12.0625,-9.1875,23.0625,0
43510,-9.1875,-9.375,16.75,0
43530,-10.0625,-10.9375,13.1875,0
43550,-17.1875,-14.8125,13.125,0
43570,-14.8125,-17.5625,12.0625,0
43590,-10.0625,-16.75,9.6875,0
43610,-10.375,-18.0625,8.9375,0
43630,-10.625,-19.8125,8.6875,0
43650,-6.4375,-19.25,7.0625,0
43670,-4.8125,-19,6.3125,0
43690,-10.5,-18.9375,7.125,0
43710,-5.8125,-18.9375,5.375,0
43730,0.625,-20.25,8.1875,0
43750,-0.4375,-20.375,7.5,0
43770,-5.25,-21.5625,8.9375,0
43790,-9.0625,-23.4375,9.8125,0
43810,-8.625,-24.1875,8.4375,0
43830,0.4375,-27.25,7.5,0
43850,-2.375,-31.375,8.8125,0
43870,-8,-32.4375,6.5,0
43890,-7.625,-32.625,3.75,0
43910,-5.8125,-35.125,1.25,0
43930,-6.9375,-37.9375,1,0
43950,-6.125,-37.4375,-1.625,0
43970,-0.875,-35.625,-3.125,0
43990,0.5,-36.5625,-2.8125,0
44010,-8.25,-36.75,-2.5625,0
44030,-9.4375,-36,-2.6875,0
44050,-7.0625,-36.75,-4.5625,0
44070,0.875,-39.5,-2.625,0
44090,-5,-41.625,-5.25,0
44110,-6.625,-40.6875,-7.375,0
44130,-4,-42.0625,-7.375,0
44150,-7.8125,-43.1875,-9.8125,0
44170,-9,-42.625,-12.75,0
44190,-3.0625,-42.4375,-15.375,0
44210,3.9375,-42.9375,-20,0
44230,0.4375,-44.1875,-22.625,0
44250,-3.0625,-40.875,-25.8125,0
44270,3.625,-38.5,-30.25,0
44290,9.375,-38.3125,-33.9375,0
44310,7.125,-38,-35.5,0
44330,3.6875,-37.3125,-32.375,0
44350,7.25,-33.5,-30.625,0
44370,7.5625,-33.375,-33.5625,0
44390,5.1875,-33.25,-38.125,0
44410,5.375,-31.625,-41.125,0
44430,7.125,-30.9375,-44.125,0
44450,10.875,-32,-47.625,0
44470,4.375,-28.5625,-52.6875,0
44490,17.1875,-25.875,-62.5625,0
44510,33.125,-20.8125,-67.9375,0
44530,36.625,-16.4375,-65.9375,0
44550,16.1875,-11.875,-63.875,0
44570,4.9375,-8.875,-60.625,0
44590,15.6875,-1.5,-54.0625,0
44610,20.625,0.625,-50.5625,2001
44630,-2.6875,-3.1875,-44.5625,0
44650,-3.9375,0.6875,-38.1875,0
44670,6.5625,7.75,-29.5,0
44690,1,4.75,-26.125,0
44710,-8.75,1.5,-23.5,0
44730,-8,1.4375,-17.25,0
44750,-8.375,2.9375,-10.625,0
44770,-9.125,2.125,-7.0625,0
44790,-2.9375,1.9375,-6.25,0
44810,-6,3.0625,-7.5,0
44830,-7.1875,4.875,-6,0
44850,-12.4375,5.5625,-4.8125,0
44870,-17.5,5.1875,-0.25,0
44890,-10.0625,7.375,2.8125,0
44910,-5.875,11.0625,0.375,0
44930,-12.3125,10.75,-0.8125,0
44950,-24.75,9.75,-1.8125,0
44970,-33.6875,15,1.25,0
44990,-33.5,24.5,5.0625,0
45010,-23.625,23,5.3125,0
45030,-7.5,18.625,8.5625,0
45050,6.4375,15.6875,12.5,0
45070,2.875,16.875,17.75,0
45090,0.5625,18.0625,22.8125,0
45110,-5.8125,17.0625,22.9375,0
45130,-4.8125,20.375,24.8125,0
45150,2.0625,18.8125,28.25,0
45170,12.25,19.1875,36.125,0
45190,22.75,19.5625,45.9375,0
45210,30.5625,22.5625,51.3125,0
45220,29.9375,26.6875,55.5625,0
45240,34.25,31.5625,63.9375,0
45260,39.625,30.0625,68.5625,0
45280,41.625,27.375,77.0625,0
45300,43.5,34.375,86.6875,0
45320,40,41.75,83.625,0
45340,31.1875,40.5625,80.9375,0
45360,36.8125,36.5,84.1875,0
45380,43.4375,36.25,86.75,0
45400,46.8125,38.3125,85.625,0
45420,56.125,39.25,84.25,0
45440,51.6875,31.125,83.25,0
45460,47.875,23.625,83.75,0
45480,46.9375,27.3125,79.5,0
45500,39.4375,25.6875,71.8125,0
45520,37.8125,14.8125,71.4375,0
45540,29.8125,4.5,67.6875,0
45560,33.375,6.0625,58.375,0
45580,34.75,5.9375,51.4375,0
45600,32.3125,0.5,44.375,0
45620,32.25,-1.75,39,0
45640,31.5625,1.6875,33.125,0
45660,33.9375,4.5625,28.9375,0
45680,29.25,2.75,26.1875,0
45700,24.625,-0.0625,25,0
45720,21,0.6875,27.0625,0
45740,22.5,3.1875,26.625,0
45760,16.125,4.5,23.75,0
45780,10.6875,-0.0625,22.4375,0
45800,6.25,-4.875,21.9375,0
45820,11.5,-8.0625,18.5,0
45840,13.5625,-10.3125,15.75,0
45860,11,-14.8125,12.9375,0
45880,-3,-14.375,8.375,0
45900,-8.625,-15.1875,1.4375,0
45920,-4.5,-18.3125,-3.5625,0
45940,-0.5625,-20.1875,-5.9375,0
45960,-0.8125,-21.3125,-6.1875,0
45980,0.8125,-22.4375,-4.375,0
46000,-4.5,-22.25,-2.3125,0
46020,-7.4375,-22.0625,-3.875,0
46040,-8.375,-23.5625,-3.875,0
46060,-4.6875,-25.0625,-3.125,0
46080,-0.6875,-24.5625,-4.875,0
46100,5.625,-24.875,-6.5625,0
46120,8.4375,-28,-8.3125,0
46140,10.4375,-29.75,-8.6875,0
46160,8.6875,-30,-10.9375,0
46180,6.4375,-30.5625,-13.75,0
46200,4.9375,-33.25,-14.4375,0
46220,1.8125,-36.0625,-13.625,0
46240,2.5625,-36.6875,-13.375,0
46260,2.25,-36.25,-13.9375,0
46280,6.5625,-37.1875,-15.1875,0
46300,7.125,-36.3125,-18.5,0
46320,0.5625,-34.25,-19.0625,0
46340,-2.875,-31.9375,-17.6875,0
46360,-3.0625,-29.25,-14.5,0
46380,-2.875,-27.3125,-13.5625,0
46400,2.1875,-23.3125,-17.625,0
46420,2.3125,-18.75,-18.5625,0
46440,-0.8125,-14.625,-17.1875,0
46460,1.4375,-14.5,-20,0
46480,1.875,-14.5625,-23.25,0
46500,-5,-9.1875,-21.4375,0
46520,-10,-2.75,-16.375,0
46540,-4.0625,-0.625,-18.625,0
46560,-1.375,-0.9375,-22.3125,0
46580,-7,-0.25,-25.0625,0
46600,-12.125,0.4375,-23.625,0
46620,-12.4375,1.5625,-19.125,0
46640,-9.125,2.8125,-15.5,0
46660,-9.8125,2.125,-14.3125,0
46680,-15,4.125,-11.6875,0
46700,-19.875,7.625,-6.25,0
46720,-21.4375,13.5,-3,0
46740,-24.625,18.75,1.9375,0
46760,-23.125,23.0625,7.1875,0
46780,-17.8125,27.625,12,0
46800,-13.75,34,9.6875,0
46820,-11.4375,36.8125,8.375,0
46840,-3,35.6875,16.75,0
46860,6.6875,34.375,23.375,0
46880,20.8125,28.3125,20.125,0
46900,25,23.1875,21.125,0
46920,17.875,19.1875,22.625,0
46940,8.25,17.8125,21.125,0
46960,9.5625,15.5,14.125,0
46980,8.125,10.5625,12.0625,0
47000,1.375,5.9375,13.6875,0
47020,-1.0625,5.875,8.625,0
47040,0.5625,5,3.9375,0
47060,5.3125,3.8125,5.3125,0
47080,6.6875,2.75,10.5,0
47090,-0.0625,3.375,15.9375,0
47120,-4.375,6.75,16.4375,0
47140,-10,9.5625,13.875,0
47160,-12.625,12.5625,12.9375,0
47180,-14.875,16.1875,17.375,0
47200,-15.1875,17.625,19.9375,0
47220,-6.4375,17.8125,17.5,0
47230,-3.125,19.3125,12.375,0
47250,-6.5625,22,11.6875,0
47270,-18.125,23.1875,14,0
47290,-26.5,22.625,12.6875,0
47310,-22.875,22.9375,10.375,0
47330,-14.5625,22.625,10.625,0
47350,-13.875,21.1875,13.5,0
47370,-9.9375,19.9375,14.125,0
47390,-7.5,20.625,14.125,0
47410,-9,21.125,11.5625,0
47430,-13.6875,20,8.75,0
47450,-12,17.9375,8.4375,0
47470,-9.4375,16.1875,10.625,0
47490,0.4375,14.875,10.6875,0
47510,4.125,11.125,6.125,0
47530,4.125,8.75,6.5625,0
47550,2.375,0.625,7.8125,0
47570,2,-5.0625,10.875,0
47590,12.5,-12.3125,9.6875,0
47610,13.25,-8.9375,8.8125,0
47630,8.375,-11.5625,1.3125,0
47650,1.125,-16.625,-5.375,0
47670,1.875,-18.0625,-4.0625,0
47690,6.0625,-20.5,-6.375,0
47710,6.9375,-25.5,-6.875,0
47730,4.125,-26.0625,-5.9375,0
47750,-1.125,-25.6875,-7.3125,0
47770,-1.0625,-25.875,-6,0
47790,4,-27.75,-7.4375,0
47810,6.125,-30.375,-10,0
47830,6.6875,-27.9375,-11.4375,0
47850,3.6875,-25.3125,-13.3125,0
47870,3.0625,-26.375,-12.75,0
47890,6.125,-26.875,-9.1875,0
47910,7.9375,-28.5,-9.0625,0
47930,5.6875,-27.4375,-7.75,0
47950,5.3125,-26.4375,-6.25,0
47970,6.75,-27,-5.8125,0
47990,8.6875,-27.8125,-6.5,0
48010,6,-26.5,-8.25,0
48030,8.25,-24.1875,-10.0625,0
48050,3.125,-24.5,-9.9375,0
48070,4.6875,-24.3125,-9.0625,0
48090,4.625,-22.5625,-10.875,0
48110,5.6875,-19.25,-11.375,0
48130,11.4375,-18.625,-12.125,0
48150,6.8125,-18.3125,-15.625,0
48170,3.1875,-16.9375,-16.5625,0
48190,1.875,-12,-17.375,0
48210,1.375,-10.25,-17.375,0
48230,-0.75,-11.5625,-14.5625,0
48250,-1.5,-9.6875,-12.6875,0
48270,-2.625,-5.375,-14.4375,0
48290,-0.875,-3.5625,-15.8125,0
48310,-1.75,-3,-15,0
48330,-3.5,-1.6875,-13.9375,0
48350,-1.8125,-0.0625,-15.5625,0
48370,-2.625,-0.9375,-16.6875,0
48390,-5.9375,-2.375,-16.0625,0
48410,-4.3125,-4.375,-16.5,0
48430,-5.5,-5.5,-18.25,0
48450,-6.875,-5.125,-16.8125,0
48470,-7.4375,-3.5,-16.125,0
48490,-8.4375,-6.3125,-17.9375,0
48510,-6.1875,-9.4375,-20,0
48530,-5.4375,-7.6875,-19.375,0
48550,-7.625,-3.3125,-16.9375,0
48570,-8.8125,-1.625,-16.375,0
48590,-8,-0.75,-14.8125,0
48610,1.5625,0.6875,-11.625,0
48630,6,2.5,-11.4375,0
48650,3.375,8,-10.4375,0
48670,0.5,10.0625,-10.4375,0
48690,-5,7.375,-11.9375,0
48710,-3.9375,6.1875,-10.375,0
48730,-5.8125,8.6875,-7.5,0
48750,-9.875,13.375,-1.4375,0
48770,-10.6875,17,6.4375,0
48790,-11.875,17.8125,12.875,0
48810,-14.375,20.375,13.1875,0
48830,-12.9375,23.1875,14.0625,0
48850,-9.5,23.1875,15.625,0
48870,-5,25,16.125,0
48890,-1.375,26.25,18.1875,0
48910,-2.75,25.4375,20.0625,0
48930,1.6875,24.9375,21.125,0
48950,2.1875,19.3125,20.6875,0
48970,4.875,11.1875,20.125,0
48990,9.0625,5.4375,21.8125,0
49010,6.1875,8.5,18.4375,0
49030,0.375,10.4375,14.3125,0
49050,-2.9375,9.875,15.875,0
49070,-5.3125,9.1875,17.5625,0
49090,-3.3125,10.8125,13.75,0
49110,-5.875,14,14.0625,0
49130,-2.5625,14.9375,20.4375,0
49150,1.4375,16.625,21.75,0
49170,1.4375,17.625,19.25,0
49190,-4.5625,19.6875,21.375,0
49210,-10.125,20.875,23,0
49230,-11.9375,19.9375,21.1875,0
49250,-9,19.9375,18.375,0
49270,-7.125,21.1875,17.1875,0
49290,-11.3125,20.625,15.3125,0
49310,-8.9375,21.125,12.1875,0
49330,-7.125,21.75,10.8125,0
49350,-12.1875,23.1875,12.0625,0
49370,-13.375,25.625,11.1875,0
49390,-12.25,28.0625,13.25,0
49410,-9.625,28.8125,14.75,0
49430,-3,27.8125,15.1875,0
49450,2.5625,25.875,15.625,0
49470,0.375,23.3125,14.875,0
49490,-3.0625,20.8125,14.9375,0
49510,-5.1875,16.75,12.875,0
49530,-1.9375,13.625,12.25,0
49550,-2.5,10.875,11.125,0
49570,-2.8125,9.375,7.9375,0
49590,-0.875,7.8125,5,0
49610,5.125,6.1875,5,0
49630,6.3125,0.25,2.625,0
49650,5.9375,-4.125,1.5,0
49670,14.125,-9.125,1,0
49690,14.5,-12.4375,1.75,0
49710,8.9375,-17.25,0.3125,0
49730,2.8125,-21.5625,-1.0625,0
49750,5.5,-21.625,-0.8125,0
49770,4.8125,-26.5625,-4,0
49790,6.375,-30,-2.9375,0
49810,9.3125,-32.4375,-5.6875,0
49830,8.5625,-34.875,-9,0
49850,14,-37.4375,-8.0625,0
49870,19.1875,-40.375,-8.4375,0
49890,16.6875,-38.5625,-9.5625,0
49910,10.8125,-33.25,-10.125,0
49930,10,-30.125,-9.5625,0
49950,12.4375,-31.8125,-7.0625,0
49970,9.625,-33.1875,-2.8125,0
49990,9.6875,-28.375,-4.6875,0
50010,5,-22.25,-6.125,0
50030,4.6875,-19.9375,-5.875,0
50050,1.3125,-21.875,-5.9375,0
50070,3.625,-23.125,-4.875,0
50090,6.1875,-19.3125,-5.8125,0
50110,7,-15.5,-8.0625,0
50130,4.625,-11,-8.8125,0
50150,3.6875,-8.625,-7.375,0
50170,1.6875,-8,-6.125,0
50190,8.5,-5.3125,-5,0
50210,13.75,-1.1875,-4.375,0
50230,9.0625,-0.0625,-1.875,0
50250,8,0.6875,0,0
50270,10.25,0.8125,-0.1875,0
50290,9.8125,2.4375,1.0625,0
50310,14.25,4.9375,0.25,0
50330,20.3125,4.125,-1.8125,0
50350,17.8125,4.5625,-3.5,0
50370,17.25,8.0625,-5.25,0
50390,21.8125,9.875,-9.5625,0
50410,23.6875,5.5625,-9.9375,0
50430,16.625,1.625,-5.375,0
50450,12.625,3.0625,-2.1875,0
50470,11.0625,5.3125,-3.0625,0
50490,11.125,5.4375,-2.0625,0
50510,13,1.9375,-3,0
50530,11.5625,0.6875,-10.25,0
50550,25.125,3.375,-23.3125,0
50570,28.1875,8.5,-35.125,0
50590,16.6875,11.5625,-35.5625,0
50610,6.9375,7.375,-21.5,0
50630,-7,7.25,-6.375,0
50650,-7.6875,5.4375,4.375,0
50670,0.8125,0.0625,4.625,0
50690,9.3125,-1.6875,4.6875,0
50700,12.0625,-0.875,5.6875,0
50720,8.3125,0.5625,5.75,0
50740,5.4375,4,6.0625,0
50760,2.4375,5.0625,7.125,0
50780,0.75,3.375,7.5,0
50800,1.75,2.9375,3.4375,0
50820,10.5,6.5625,-5.5625,0
50840,15.5,9.5625,-11.75,0
50860,11.125,10.5625,-9.1875,0
50880,5.25,10.875,-3.875,0
50900,2.25,7.5,0.9375,0
50920,2.625,3.1875,8.3125,0
50940,10.0625,4.3125,13,0
50960,13.9375,6.5,9.75,0
50980,6,4.125,8.875,0
51000,2.625,4.9375,12.0625,0
51020,-3.5,4.4375,8.8125,0
51040,-7,1.375,3.625,0
51060,-5.6875,2,1.25,0
51080,9.4375,1.4375,-3.0625,0
51100,2.6875,0.5,-0.8125,0
51120,-4,3.375,6.5,0
51140,-11.875,1.75,6.625,0
51160,-13.75,-5.25,-0.3125,0
51180,1.6875,-8.625,-2.0625,0
51200,19.25,-6.625,-1.0625,0
51220,24.625,-5.125,-9.1875,0
51240,11.9375,-7.5625,-12.9375,0
51260,-4.1875,-8.625,-5.75,0
51280,-14.625,-1.75,2.75,0
51300,-18.8125,4.8125,5.9375,0
51320,-19.6875,5.3125,4.5,0
51340,-17.6875,-3.875,6.25,0
51360,-1.1875,-19.6875,8.375,0
51380,7.875,-11.5,2.75,0
51400,5.5625,2.0625,-5.3125,0
51420,-5.4375,8.8125,-6,0
51440,-13.875,14,0.4375,0
51460,-18.125,22.25,3.5,0
51480,-18.5625,27,7.8125,0
51500,-12.0625,25.375,8.1875,0
51520,0.25,22.0625,6.9375,0
51540,3.1875,19.4375,-0.1875,0
51560,-8.75,16.25,-2.1875,0
51580,-12.9375,13.375,2.5,0
51600,-20.6875,7.4375,6.9375,0
51620,-14,1.875,8.9375,0
51640,-2.375,-0.3125,11.875,0
51660,6.375,-2.1875,16.125,0
51680,8.625,-4,12.9375,0
51700,8.0625,-2.0625,8.4375,0
51720,5.3125,-1.3125,7,0
51740,4.9375,-2.125,5.0625,0
51760,-1.375,-1.1875,6.125,0
51780,-0.25,-2,10.125,0
51800,2.875,0.3125,7.0625,0
51820,8.9375,2.8125,4.4375,0
51840,3.75,5.1875,2.125,0
51860,-8.875,8.5,0.8125,0
51880,-12.1875,6.8125,-1.375,0
51900,-8.9375,0.8125,-3.6875,0
51920,-4.5,-7.5,-2.5625,0
51940,1.0625,-5.25,-3,0
51960,-5.125,3,-12.8125,0
51980,-26.9375,12.875,-22.6875,0
52000,-39.875,19.75,-23.625,0
52020,-35.375,22.4375,-18.375,0
52040,-28.5625,25.4375,-10.0625,0
52060,-15.75,23.125,-5.375,0
52080,3.375,23.5,-6.25,0
52100,9.4375,29.8125,-2.875,0
52120,-7.9375,37.4375,2.375,0
52140,-28.875,35.6875,0.3125,0
52160,-32.25,33.6875,-1.25,0
52180,-38.625,30.625,0.375,0
52200,-58.25,24.875,0.9375,0
52220,-55.0625,23.0625,-1.8125,0
52240,-45.6875,14.9375,-4,0
52260,-27.375,6.0625,-1.875,0
52280,-12.875,-0.75,6.5625,0
52300,1.6875,0,8.75,0
52320,0.8125,0.0625,3.6875,0
52340,-4.0625,0.4375,0.8125,0
52360,-10.1875,-5.5625,-0.8125,0
52380,-13.5,-6.8125,-1.5,0
52400,-7.625,-9.0625,-5.3125,0
52420,-1.875,-12.6875,-3.75,0
52440,8.6875,-19,0.8125,0
52460,14.875,-23,2.875,0
52480,17.5,-20.9375,-0.1875,0
52500,13,-17.3125,0.125,0
52520,8.9375,-18.8125,3.875,0
52540,3.0625,-20.8125,5.875,0
52560,-5.0625,-19.6875,4.3125,0
52580,-9.75,-16.875,-1.25,0
52600,-1.875,-20.8125,-5.875,0
52620,1.0625,-21.5625,-5.8125,0
52640,1.8125,-22.1875,-0.125,0
52660,12.375,-22.5,6.25,0
52680,17.0625,-21.75,10.6875,0
52690,18.5,-18.625,13.5,0
52710,23.75,-13.6875,14.9375,0
52730,17.75,-8.375,12.875,0
52750,15.5625,-4.6875,13.1875,0
52770,13.1875,-2.75,13.0625,0
52790,14.5625,-2.3125,12.4375,0
52810,18.1875,0.5625,12.5,0
52830,20.375,2.5,9.5,0
52850,23.125,4.0625,8.625,0
52870,22.8125,4.4375,10.9375,0
52890,23,5.8125,13.6875,0
52910,19.25,6.375,9.5625,0
52930,21.8125,8.4375,6.8125,0
52950,18.5,6.9375,10.0625,0
52970,17.4375,2.4375,11.25,0
52990,18.3125,-0.625,4.875,0
53010,18.75,-1.25,-3.5625,0
53030,11.125,-1.8125,-5.0625,0
53050,3.625,1.8125,2.6875,0
53070,-3.3125,8.5,9.5625,0
53090,-7,9.6875,9.0625,0
53110,-6.4375,7.0625,5.9375,0
53130,0.375,6.875,9.6875,0
53150,3.25,9.8125,10.75,0
53170,5.0625,12.5625,2.875,0
53190,2.5,9.6875,-3.125,0
53210,-3.1875,8.375,-2.8125,0
53230,-8.6875,6.6875,0.1875,0
53250,-0.3125,2.625,-0.5,0
53270,3.4375,-0.375,-2.4375,0
53290,12.125,0.75,-3.125,0
53310,13.25,2.5,-4.25,0
53330,7.1875,5.625,-6.4375,0
53350,1,7.6875,-3.9375,0
53370,5.875,6.9375,0.5,0
53390,5.875,3.0625,1.6875,0
53410,0,3.875,0.75,0
53430,1.6875,5.3125,0.6875,0
53450,0.25,4.625,-2.1875,0
53470,0.4375,2.375,0.1875,0
53490,3.5625,2.25,4.75,0
53510,0.375,2.375,4.625,0
53530,2.4375,-0.375,5.625,0
53550,7.0625,-1.75,7.125,0
53570,8.875,-2.625,7.6875,0
53590,10.6875,-2.5,7.4375,0
53610,11.3125,-2.6875,8.375,0
53630,7.0625,1.125,5.5625,0
53650,1.9375,2.875,4.5625,0
53670,1.1875,3.1875,6.6875,0
53690,2.6875,2.125,10.6875,0
53710,4.125,-2.125,9.75,0
53730,0.25,-2.875,2.6875,0
53750,3.6875,-0.875,2.25,0
53770,6.4375,0.5625,2.25,0
53790,4,0.5,-0.4375,0
53810,3.875,0.1875,0.5,0
53830,0.125,0.875,2,0
53850,-6.25,0.6875,5.6875,0
53870,-6.5,-3.3125,6.9375,0
53890,-0.125,-7,4.3125,0
53910,-2.25,-5.3125,2,0
53930,-10.0625,-2.9375,-1.6875,0
53950,-17.6875,-2.5,-8.375,0
53970,-25.4375,-1.8125,-14.4375,0
53990,-32.9375,-0.8125,-18.8125,0
54010,-30.625,0.8125,-20.625,0
54030,-25.9375,8.4375,-22.625,0
54050,-21.5,12.875,-20.125,0
54070,-22.0625,11.3125,-14.8125,0
54090,-16.9375,13.0625,-9.3125,0
54110,-14.25,16.0625,-6.75,0
54130,-15.5625,20.4375,-11.1875,0
54150,-13.5625,21.0625,-17.1875,0
54170,-8.1875,16.8125,-18.25,0
54190,1.75,16.8125,-17.5,0
54210,2.3125,20.125,-17.25,0
54230,0.125,20.0625,-14.8125,0
54250,-1,17.75,-12.5625,0
54270,1.6875,10.9375,-10.4375,0
54290,6.3125,6.1875,-6.5625,0
54310,10.0625,7.375,-3.875,0
54330,6.5625,7.375,-2.3125,0
54350,-2.125,3.0625,-1.1875,0
54370,-10.1875,-1.625,-0.6875,0
54390,-8.5625,-3.0625,-1.375,0
54410,-4.5,-3.6875,-1.125,0
54430,-2.1875,-4.9375,-0.3125,0
54450,-3.75,-7.0625,-2,0
54470,-3.3125,-8.3125,-3,0
54490,-1.75,-8.25,-3.125,0
54510,2.125,-8.875,-0.75,0
54530,1.625,-8.75,1.375,0
54550,0.0625,-7.375,0.6875,0
54570,0.0625,-6.0625,0.25,0
54590,-5.25,-5.3125,1.9375,0
54610,-9.9375,-6.125,2.4375,0
54630,-10.0625,-5.375,2.0625,0
54650,-7.125,-3.9375,-0.4375,0
54670,-6.1875,-3.5,-0.3125,0
54690,-0.1875,-3.375,1.125,0
54710,1.1875,-6.4375,-0.0625,0
54730,-2.625,-12.4375,-1,0
54750,-2.6875,-13,0.4375,2000
54770,2.4375,-11.4375,-4.125,0
54790,-0.9375,-9.4375,-9.9375,0
54810,-2.8125,-10.9375,-9.6875,0
54830,0.3125,-14.6875,-6.75,0
54850,-4.625,-15.125,-6.25,0
54870,-8,-13.6875,-8.75,0
54890,-12.5,-16,-7.625,0
54910,-9,-22.4375,-5.25,0
54930,3.0625,-26.375,-6.5,0
54950,10.625,-29.3125,-6.875,0
54970,10.75,-28.1875,-7.625,0
54990,6.1875,-30.8125,-7.5,0
55010,3.6875,-31.25,-8.3125,0
55030,1.625,-28.6875,-10.25,0
55050,1.6875,-28.4375,-9.6875,0
55070,0.75,-29.1875,-8,0
55090,-0.375,-28.4375,-6.5,0
55110,3.1875,-25.5,-6.625,0
55130,5.625,-24.625,-7.625,0
55150,5.875,-24.8125,-8,0
55170,5.8125,-24.0625,-9.9375,0
55190,2.8125,-19.625,-14.625,0
55210,3.25,-16.375,-16.625,0
55230,1.625,-15.375,-15.0625,0
55250,-6.9375,-14.8125,-14.9375,0
55270,-6.4375,-12.8125,-17.9375,0
55290,-3.5,-10.1875,-19.3125,0
55310,-1.8125,-9.625,-17.5,0
55330,-4.8125,-10.9375,-18.0625,0
55350,-5.25,-7.8125,-19.9375,0
55370,-4.1875,-2.6875,-21.625,0
55390,-2.3125,1.125,-22.875,0
55410,-5.75,3.375,-24.4375,0
55430,-6.25,3.5,-25.125,0
55450,-5.75,2.375,-25.8125,0
55470,-5,2.875,-27.875,0
55490,-5.25,3.375,-29.875,0
55510,-6.4375,3.4375,-30.875,0
55530,-6.0625,3,-30.625,0
55550,-6.875,4,-29.9375,0
55570,-10.8125,9.6875,-28,0
55590,-11.9375,16.0625,-26.9375,0
55610,-17.6875,21.125,-26.125,0
55630,-16.5625,21.125,-27.25,0
55650,-10.3125,21.8125,-28.625,0
55670,-9.6875,24.125,-30.4375,0
55690,-11.75,27.9375,-32.5,0
55720,-20.9375,35.625,-38.25,0
55740,-23.8125,37.8125,-37.625,0
55750,-20.3125,40.5,-41,0
55770,-22.4375,40.6875,-40.625,0
55790,-26.25,44.6875,-40.75,0
55800,-25,47.0625,-40.9375,0
55820,-22.5,48.3125,-40.625,0
55840,-23.3125,49.625,-40.6875,0
55860,-25.375,51.125,-38.0625,0
55880,-22.3125,52.5625,-34.75,0
55900,-20.9375,52.625,-33.625,0
55920,-18.125,48.8125,-32.875,0
55940,-15.4375,45.25,-31.75,0
55960,-14.625,43.5,-28.8125,0
55980,-15.1875,41.6875,-23,0
56000,-16.375,43.1875,-18.875,0
56020,-15.125,42.0625,-16.4375,0
56040,-16.0625,40.875,-13.4375,0
56060,-17.25,38.625,-7.375,0
56080,-13.4375,34.875,-3.6875,0
56090,-7.6875,30.625,-1.3125,0
56110,-6.875,25.875,5,0
56130,-6.625,22.5,8.375,0
56150,-12.75,20.4375,9.625,0
56170,-19.3125,27.875,6.9375,0
56190,-19,31.8125,3.8125,0
56210,-24.5625,29.5,6.25,0
56230,-20.75,27.375,10.625,0
56250,-8.9375,25.0625,9.3125,0
56270,0.9375,21.4375,9.125,0
56290,0.1875,20.375,15,0
56310,1.25,21.25,16.1875,0
56330,0.9375,22.125,17.0625,0
56350,-5.625,21.875,16.8125,0
56370,-13.8125,20.375,15.125,0
56390,-13.8125,17.0625,13.875,0
56410,-9.125,11.0625,14.0625,0
56430,-7.9375,9.5,14.8125,0
56450,-0.1875,12,13.625,0
56470,0.875,13.5,12.75,0
56490,-7.8125,12.625,12.8125,0
56510,-7.5,11.0625,11.125,0
56530,0.6875,8,10.625,0
56550,1.625,8,12.3125,0
56570,-3.0625,9.25,14.5625,0
56590,-2.5625,8.25,15.1875,0
56610,-2.5625,5.875,15.6875,0
56630,1,5.625,15.375,0
56650,-1.8125,7.9375,14.5,0
56670,-12.3125,8.5,16,0
56690,-11.0625,6.9375,15.4375,0
56710,1.5,6.6875,13.75,0
56730,9.625,5.0625,14.375,0
56750,7.3125,3.625,16.875,0
56770,-1,2.625,18.375,0
56790,-10.4375,4.0625,17.75,0
56810,-14.375,2.9375,16.9375,0
56830,-11.3125,1.4375,16.4375,0
56850,-11.1875,-0.4375,18,0
56870,-7.1875,-1.8125,16.25,0
56890,-5,-3.4375,15.4375,0
56910,-5.8125,-5.1875,13.9375,0
56930,-2.8125,-3.625,10.3125,0
56950,-1.9375,-3.875,9,0
56970,-5.4375,-6.75,9.25,0
56990,-7.8125,-7.0625,9.875,0
57010,-6.5625,-7.0625,9.625,0
57030,-5.8125,-10,9.6875,0
57050,1.625,-10.9375,11,0
57070,0,-12.25,11.9375,0
57090,0.3125,-13.3125,11,0
57110,1.1875,-13.875,9.75,0
57130,-2.25,-16.0625,11,0
57150,-5,-18.6875,10.875,0
57170,-2.3125,-19,9.5,0
57190,0.5,-18.5,8.625,0
57210,-1.25,-20,11.375,0
57230,-7.375,-22.4375,14.125,0
57250,-11.125,-23.25,15.3125,0
57270,-2.375,-21.4375,15.1875,0
57290,-0.5625,-22,14.6875,0
57310,-3,-23.75,15.625,0
57330,-6.5625,-23.375,17.1875,0
57350,-5.625,-23.25,18.625,0
57370,0.75,-23.3125,17.0625,0
57390,4.125,-22.75,14,0
57410,1.875,-23.5625,14.875,0
57430,3.1875,-26.625,15.625,0
57450,5.9375,-28.875,14.0625,0
57470,2.625,-29.375,12.4375,0
57490,-3,-30.4375,11.9375,0
57510,-3.1875,-29.875,8.25,0
57530,-4.6875,-29.5625,5.5625,0
57550,-11.75,-31.0625,5.875,0
57570,-10.4375,-32.5625,6.25,0
57590,-5.75,-33.25,5.375,0
57610,-2.75,-34.5,6.25,0
57630,-2.875,-36.4375,7.375,0
57650,-2.625,-36.3125,6.6875,0
57670,-5.4375,-34.9375,7.1875,0
57690,-9.9375,-35,10.6875,0
57710,-12.4375,-37.9375,13.375,0
57730,-9.25,-40.6875,9.8125,0
57750,-4.75,-42.125,6.5,0
57770,-4.875,-44.25,5.1875,0
57790,-7.75,-48.6875,2.875,0
57810,-9.1875,-51.25,0.8125,0
57830,-9.75,-50.6875,-0.875,0
57850,-10.1875,-51.5625,-0.25,0
57870,-12.4375,-52.9375,-0.5625,0
57890,-6.0625,-50.9375,-2.3125,0
57910,-4.875,-49.5,-5.875,0
57930,-5.375,-48.9375,-7.5,0
57950,-2.8125,-46.4375,-7.75,0
57970,1.5625,-43.375,-10.6875,0
57990,-3.6875,-42.625,-11.4375,0
58010,-4.0625,-42.6875,-11.125,0
58030,3,-40.8125,-13.625,0
58050,11.125,-37.875,-17,0
58070,7.625,-35.0625,-18,0
58080,3.8125,-37.1875,-14.5625,0
58100,1.1875,-37,-15.3125,0
58120,4.6875,-34.125,-17.9375,0
58140,5.0625,-32.75,-20.5,0
58160,-0.125,-31.5625,-20.5,0
58180,-2.1875,-27.875,-21.25,0
58200,-0.75,-24.875,-22.875,0
58220,0,-24.4375,-24.875,0
58240,-0.875,-25.375,-25.375,0
58260,-1.6875,-19.125,-25.625,0
58280,-0.3125,-11.625,-27.1875,0
58300,-3.4375,-9.6875,-28.3125,0
58320,-4.875,-8.9375,-27.25,0
58340,-4.25,-6.0625,-27.75,0
58360,0.6875,0.6875,-28.375,0
58380,0.375,2.1875,-26.8125,0
58400,-6.8125,0.5625,-22.8125,0
58420,-6,5.1875,-24.5,0
58440,-6.1875,12,-27.875,0
58460,-12.6875,12.9375,-25.75,0
58480,-13.5625,7,-23.125,0
58500,-5.8125,5.6875,-27.1875,0
58520,-4.0625,7,-30.3125,0
58540,-6.6875,11.625,-30.9375,0
58560,-8.75,14,-31.875,0
58580,-14,13.6875,-31,0
58600,-14.375,11.4375,-31.5625,0
58620,-10.75,12.9375,-34.4375,0
58640,-7.5625,16.6875,-36.875,0
58660,-10.375,18.0625,-35.5625,0
58680,-13.25,17.375,-32.4375,0
58700,-15.3125,20.25,-31.1875,0
58720,-14.5625,24.75,-31.5,0
58740,-12.875,30.625,-31.5625,0
58760,-11.3125,33.4375,-28.5,0
58780,-13.625,36.5,-28.5,0
58800,-14.25,38.5625,-29.0625,0
58820,-10.1875,36.875,-30.375,0
58840,-10.3125,35.25,-30.4375,0
58860,-13.625,37,-29.25,0
58880,-10.875,38.75,-27.25,0
58900,-11.4375,37.6875,-25.6875,0
58920,-11.8125,38.125,-25.375,0
58940,-12.875,37.0625,-25.875,0
58960,-11.5625,36.0625,-25.25,0
58980,-14.4375,35.6875,-22.25,0
59000,-12.125,36.5625,-19.9375,0
59020,-11.4375,37.125,-18.25,0
59040,-11.375,35.9375,-16.375,0
59060,-9.875,35,-16,0
59080,-11.3125,36.625,-14.6875,0
59100,-7.4375,37.375,-10.125,0
59120,-6.25,35.5,-7.5,0
59140,-4.8125,35.9375,-7.25,0
59160,-4.5625,37.5625,-5.75,0
59180,-4.3125,36.3125,-0.375,0
59200,-3.5,33.5625,2.0625,0
59220,1.5625,32.375,0.8125,0
59240,2.4375,34,2.125,0
59260,-5.5625,35.5,5.4375,0
59280,-3.5625,34.3125,7.4375,0
59300,-1,31,9.6875,0
59320,2.625,28.1875,11.625,0
59340,0.9375,27.625,13.3125,0
59360,-1,26.75,14.125,0
59380,-1.5625,24.9375,16.375,0
59400,-5.8125,23.1875,18.25,0
59420,-5,22.75,17.4375,0
59440,-4.4375,21.4375,16.5,0
59460,-7.5625,20.375,16.375,0
59480,-7.875,18.8125,15.4375,0
59500,-10,20.3125,14.75,0
59520,-11,23.125,13.8125,0
59540,1.6875,23.75,10.75,0
59560,9.75,18.0625,10,0
59580,6.625,13,12.125,0
59600,1.75,8.1875,12,0
59620,0.8125,5.625,15.0625,0
59640,7,3.6875,19.75,0
59660,9.25,2,22.9375,0
59680,4.0625,3,22.375,0
59700,9.0625,3.8125,19.5,0
59720,8.9375,0.25,19.5625,0
59740,8.625,-1.6875,17.875,0
59760,8.3125,-1.375,15.6875,0
59780,3.0625,-1.125,14.25,0
59800,2,-1.3125,14,0
59820,-1.5,-2.4375,15.5625,0
59840,-4.75,-1.1875,16.1875,0
59860,-1.0625,-0.0625,14.3125,0
59880,-1.6875,-0.1875,13.625,0
59900,0.25,-0.6875,14.75,0
59920,-0.125,-1.5,17.75,0
59940,-5.75,-2.125,19.25,0
59960,-2.375,-1.5625,17.375,0
59980,2.75,-2.5,16.5625,0
60000,-0.0625,-4.4375,18.375,0
60020,-6.5,-5.6875,17.8125,0
60040,-7.125,-4.1875,15.9375,0
60060,-1.5,-6,16.125,0
60080,-3,-10.6875,16.6875,0
60100,-0.6875,-13.5625,16,0
60120,4.1875,-15.6875,14.4375,0
60140,2.125,-16.6875,13.9375,0
60160,-4.375,-16.6875,13.25,0
60180,-7.5625,-16.1875,12.5625,0
60200,-1.875,-18.6875,14.125,0
60220,5.0625,-20.375,13.3125,0
60240,6,-19.8125,11.9375,0
60260,-0.4375,-20.25,12.25,0
60280,3.125,-21.5,12.3125,0
60300,6.1875,-25.5625,9.75,0
60320,7.5625,-30.25,8.3125,0
60340,9.625,-32.6875,8,0
60360,5,-31.6875,7.8125,0
60380,0.25,-28.6875,7.4375,0
60400,-2.6875,-27.5625,6.5,0
60420,-1.25,-27.6875,6.9375,0
60440,1,-27.9375,9.875,0
60460,1.6875,-26.0625,10.8125,0
60480,3.625,-23.4375,11.9375,0
60500,0.25,-22.25,12.0625,0
60520,-7.0625,-23.1875,11.9375,0
60540,-7.8125,-23.375,13.0625,0
60560,-7.5625,-21.75,13.5,0
60580,-8,-22,14.1875,0
60600,-4.875,-24,13.875,0
60620,-3.9375,-25.3125,11.25,0
60640,-4,-25.125,9.3125,0
60660,-4.375,-27.5,7.8125,0
60680,-3.8125,-29.375,7.4375,0
60700,-5.5625,-31.3125,6.875,0
60720,-5.4375,-31.5625,6.6875,0
60740,-4.25,-32.9375,5.8125,0
60760,-4.375,-33.375,5.3125,0
60780,-7.4375,-33.6875,4,0
60800,-7.6875,-33.6875,1.375,0
60820,0.25,-33.5625,-0.125,0
60840,2.8125,-36.25,-1.5,0
60860,-6.0625,-40.5625,-2.9375,0
60880,-6.875,-42.125,-6.125,0
60900,-1.8125,-43.9375,-9.6875,0
60920,-4.0625,-46.25,-11.1875,0
60940,-10.9375,-46.6875,-12.625,0
60960,-3.125,-44.9375,-13.625,0
60980,3.5625,-44.6875,-16.375,0
61000,-3.3125,-45.75,-18.8125,0
61020,-7.25,-45.0625,-19.375,0
61040,-2.125,-44.375,-18.375,0
61060,3.25,-43.5,-20.375,0
61080,-0.25,-41.4375,-21.375,0
61100,-4.5625,-39.3125,-19.75,0
61120,-6.8125,-39.125,-20.375,0
61140,-4.9375,-36.875,-22.8125,0
61160,-7.125,-32.9375,-24.875,0
61180,-9.125,-29.25,-24.1875,0
61200,-8.5,-27.875,-24.25,0
61220,2.25,-25.8125,-29.0625,0
61240,2.9375,-22.75,-30.25,0
61260,0.375,-22.0625,-25.9375,0
61280,-3.4375,-23.625,-30.0625,0
61300,2.375,-23.5625,-37.75,0
61320,-0.4375,-20.875,-40.8125,0
61340,-7.75,-16.375,-38.75,0
61360,-11.125,-13.5625,-37.8125,0
61380,-10.1875,-13.5,-39.3125,0
61400,-13.875,-12.125,-41.4375,0
61420,-13.3125,-5.625,-41.1875,0
61440,-8.1875,-0.125,-38.8125,0
61460,-8.3125,1.875,-40,0
61480,-9.125,0.875,-40.875,0
61500,-11.6875,4.125,-41.0625,0
61520,-11.5,10.25,-38.75,0
61540,-9.75,10,-37.125,0
61550,-18.4375,11.75,-34.5,0
61570,-20.5625,14,-37.125,0
61590,-16.25,19.125,-37.0625,0
61610,-9.0625,23.9375,-32.5625,0
61630,-16.0625,25.3125,-30.6875,0
61650,-20.0625,28,-32.25,0
61670,-20.1875,30.6875,-30.8125,0
61690,-17.3125,31.75,-28.875,0
61710,-18.5625,33.0625,-28,0
61730,-20.1875,36,-25.9375,0
61750,-18.5,37.6875,-20.5625,0
61770,-14.4375,38.375,-18.875,0
61790,-13.3125,40.0625,-19,0
61810,-15.875,42.875,-16.1875,0
61830,-17.9375,45.125,-12.4375,0
61850,-15.125,45.875,-11.6875,0
61870,-12.6875,45.625,-14.25,0
61890,-13.8125,45,-15.875,0
61910,-11.75,45.0625,-14.6875,0
61930,-7.6875,45.3125,-13.8125,0
61950,-8.8125,44.4375,-10.6875,0
61970,-14.0625,44.1875,-5.8125,0
61990,-12.75,44.75,-2.1875,0
62010,-10.125,46.1875,1.8125,0
62030,-2.9375,45.1875,6.75,0
62050,-6.625,45.3125,7.6875,0
62070,-5.6875,49.0625,7.875,0
62090,-2.5625,50.75,11.9375,0
62110,-10,47.375,12.9375,0
62130,-3.25,43.875,9.875,0
62150,-0.125,43.5625,8.4375,0
62170,-4.0625,41.6875,10.625,0
62190,-7.25,40.375,15.125,0
62210,-6.1875,38.9375,18.6875,0
62230,-5.375,37.375,20.25,0
62250,-8.3125,37.25,17.75,0
62270,-13.6875,37.6875,19,0
62290,-18.5625,33.4375,22.9375,0
62310,-15.0625,27.3125,25.1875,0
62330,-6.3125,23.8125,22.0625,0
62350,-5,24.0625,21.875,0
62370,-17.1875,24.8125,27.1875,0
62390,-24.5625,24.4375,31,0
62410,-25.125,21.5625,30.375,0
62430,-12.625,19.5625,26.1875,0
62450,-5.8125,15.8125,20.5625,0
62470,-11.4375,14.75,19.5625,0
62490,-18.75,18.1875,25.5,0
62510,-26.125,19.4375,25.4375,0
62530,-11.6875,16.5625,22.25,0
62550,0.75,11.25,22.0625,0
62570,0.8125,10.6875,21.6875,0
62590,-2.625,14.4375,24.6875,0
62610,-8.625,13.6875,24.6875,0
62630,-15.0625,9.8125,22.75,0
62650,-9.5625,10.25,22.375,0
62670,-3.625,9.125,21.9375,0
62690,-6.25,3.75,23.0625,0
62710,-5.875,-1.0625,23.625,0
62730,-0.875,-0.375,21.125,0
62750,-1.25,0.5625,17.8125,0
62770,-4.5625,-2.75,19.4375,0
62790,-6.375,-3.25,19.4375,0
62810,-4.9375,-3.3125,20.125,0
62830,-9.5625,-3.8125,19.6875,0
62850,-11.25,-3.5625,18.875,0
62870,-4.5625,-5.375,20.4375,0
62890,1.1875,-7,22.4375,0
62910,-1.125,-8.25,20.3125,0
62930,-4.3125,-6.625,18.3125,0
62950,-3.4375,-5.25,18.375,0
62970,-7.9375,-7.8125,18,0
62990,-9.4375,-10.75,17.5,0
63010,-4.375,-10.4375,17.625,0
63030,-3.875,-11,18,0
63050,-7.375,-10.1875,17.5625,0
63070,-10.25,-12.375,18.25,0
63090,-10.375,-16,18.1875,0
63110,0.75,-17.9375,18.5625,0
63130,0.875,-19.5625,17.5,0
63150,-4.4375,-18.625,15.3125,0
63170,-6.25,-19.625,14.625,0
63190,-6.5,-23.375,14.9375,0
63210,-7.8125,-23.625,13.4375,0
63230,-8.25,-22.875,12.0625,0
63250,-3.1875,-26.5,14.0625,0
63270,-3.625,-30.125,13.5,0
63290,-6.4375,-30.6875,13.1875,0
63310,-4.5625,-30.25,11.375,0
63330,-1.5625,-32,11.625,0
63350,-8.5,-34.3125,9.625,0
63370,-8.5625,-33.125,7.5,0
63390,-7.8125,-34.75,8.875,0
63410,-5.75,-37.4375,8.625,0
63430,-6.125,-39,5.9375,0
63450,-6.8125,-40.5625,6.5625,0
63470,-6.25,-42.5625,4.8125,0
63490,-5.375,-42.8125,1.3125,0
63510,-8.3125,-42.0625,2.1875,0
63530,-9.9375,-41.8125,0.375,0
63540,-5.75,-42.625,-3.3125,0
63560,-7.75,-43.5,-4.25,0
63580,-9.875,-43,-4.9375,0
63600,-4.875,-41.75,-5.5,0
63620,-1.3125,-41.875,-5.8125,0
63640,-0.75,-42.375,-7.8125,0
63660,-7.5625,-40.8125,-10.875,0
63680,-7.5,-36.75,-12.25,0
63700,-7.25,-36.75,-13.0625,0
63720,-9.9375,-34.1875,-14.875,0
63740,-7.1875,-31.6875,-19.25,0
63760,-2.875,-32.125,-21.125,0
63780,-0.6875,-33.4375,-22.0625,0
63800,0.0625,-33.375,-24.9375,0
63820,1.875,-32.0625,-26.6875,0
63840,-0.3125,-29.0625,-26.9375,0
63860,-6.5625,-26.0625,-29.9375,0
63880,-10,-24.625,-33.5,0
63900,-4.3125,-25,-36.125,0
63920,1.3125,-25.8125,-38.0625,0
63940,6.75,-24.0625,-40.125,0
63960,3.75,-21.3125,-41.375,0
63980,4.4375,-19.125,-42.25,0
64000,6.6875,-20.0625,-42.375,0
64020,6.1875,-19.3125,-44.75,0
64040,-2,-16,-44.0625,0
64060,-3.0625,-12.1875,-39.5,0
64080,0.75,-14.625,-35.625,0
64100,7.5,-19,-36.5625,0
64120,15.875,-16.0625,-37.25,0
64140,14.8125,-15.75,-38.9375,2001
64160,7.875,-15.3125,-37.0625,0
64180,-6.1875,-11.0625,-31.625,0
64200,-16.3125,-6.9375,-27.0625,0
64220,-19.5,-8.9375,-24.0625,0
64240,-11.5,-8.5,-18.1875,0
64260,-4.3125,-3.5,-13,0
64280,-3.8125,0,-8.6875,0
64300,-7.375,-1.0625,-5.625,0
64320,-5.5,1.8125,-4.3125,0
64340,-1.4375,7.125,-3.6875,0
64360,-3.1875,9.3125,-3.125,0
64380,-4.6875,10,-0.375,0
64400,-9.8125,12.875,2.75,0
64420,-16.3125,22.4375,7.3125,0
64440,-13.5,31,13.1875,0
64460,-0.4375,35.5,19.25,0
64480,6.6875,36.4375,26.375,0
64500,11.0625,45.875,32.375,0
64520,14.9375,54.3125,41.625,0
64540,20.9375,55.125,56.125,0
64560,18.25,54.75,72.0625,0
64580,26.0625,62.125,86,0
64600,33.5625,71.875,93.875,0
64620,37.5,71.75,100.5,0
64640,29.875,65.4375,104.5,0
64660,29.375,67.3125,104.688,0
64680,41.5625,75.375,100.312,0
64700,46.5,66.9375,103.938,0
64720,32.1875,51.4375,108.125,0
64740,33.3125,49,93.875,0
64760,47.75,48.3125,80.9375,0
64780,56.8125,38.4375,82.9375,0
64800,47.875,24.5625,83.8125,0
64820,46.5625,25.5,68.5,0
64840,48.6875,27.5625,52.5,0
64860,36.4375,16.25,47.125,0
64880,31.0625,5.25,41.25,0
64900,32.875,1.5,30.3125,0
64920,41.3125,-0.6875,24.375,0
64940,36.125,-9.9375,19,0
64960,26,-15.125,13.4375,0
64980,21.1875,-11.75,8.75,0
65000,21.9375,-8.3125,8.625,0
65020,10.625,-8,9.6875,0
65040,-4.375,-6.8125,11.0625,0
65060,-8.8125,-2.9375,12.6875,0
65080,2.25,-0.5625,15.0625,0
65100,2.6875,-3.3125,16.625,0
65120,5.125,-1.25,15.3125,0
65140,8,0.1875,11.875,0
65160,-0.0625,-2.8125,8.75,0
65180,-5,-7.5,6.1875,0
65200,-15.3125,-12.25,4.375,0
65220,-8.8125,-13.8125,7.375,2000
65240,-1.75,-18.125,6.5,0
65260,1.0625,-22.25,6.5,0
65280,1,-20.125,9.125,0
65300,-5.125,-18,8.5625,0
65320,-12.375,-19.3125,7.8125,0
65340,-14.25,-21.0625,10.4375,0
65360,-12.4375,-21.0625,10.5625,0
65380,-4.0625,-19.875,8.625,0
65400,3.1875,-19.875,5.75,0
65420,3.125,-22.4375,3.5625,0
65440,7.1875,-24.5625,0.5625,0
65460,7.9375,-26.75,-5.125,0
65480,4.625,-27.75,-7.875,0
65500,5.25,-30.875,-9.0625,0
65520,6.6875,-32.1875,-12.5625,0
65540,5.0625,-33,-16.6875,0
65560,-1.5,-32,-17.1875,0
65580,-0.9375,-29,-14.75,0
65600,3.25,-29.9375,-16.4375,0
65620,4.3125,-31.125,-18.9375,0
65640,6.25,-29.5,-20.625,0
65660,7.9375,-27.4375,-21.125,0
65680,9.4375,-27.375,-19.5625,0
65700,3.375,-27.875,-16.5625,0
65720,-2.6875,-23.75,-16,0
65740,-0.4375,-21.5,-20.125,0
65760,2.6875,-19.125,-17.125,0
65780,3.0625,-17.875,-15.6875,0
65800,-1.4375,-16.625,-17.875,0
65820,0.5,-15.375,-19.5,0
65840,4.625,-10.9375,-20.9375,0
65860,6.375,-9.5625,-23.0625,0
65880,0.625,-6.3125,-24.6875,0
65900,-0.0625,-2.25,-26.875,0
65920,3.625,0.4375,-30.6875,0
65940,1.6875,2.0625,-34.9375,0
65960,-6.6875,7.625,-34.75,0
65980,-16.25,15.1875,-34.4375,0
66000,-17.5,20.4375,-34.5,0
66020,-9.6875,22.6875,-40.8125,0
66040,-10.5,28.5625,-45,0
66060,-16.125,34.375,-46.1875,0
66080,-20.75,38.6875,-44.375,0
66100,-18.9375,42.375,-44.625,0
66120,-17.8125,46.8125,-49.0625,0
66140,-22.25,53.625,-49.1875,0
66160,-29.9375,62.9375,-46.125,0
66180,-24,64.6875,-46.0625,0
66190,-16.625,63.125,-48.625,0
66210,-17.5625,60.1875,-50.5,0
66230,-15.625,52.875,-51.125,0
66250,-13.75,46.125,-48.625,0
66270,-13.5625,44.9375,-47.25,0
66290,-17.8125,46.5625,-45.75,0
66310,-24.875,49.8125,-41.3125,0
66330,-28.4375,52.625,-35.0625,0
66350,-22.8125,53.3125,-33.5625,0
66370,-14.6875,50.0625,-33.8125,0
66390,-8.0625,47.9375,-31.5,0
66410,-5.375,44.6875,-30.75,0
66430,-7.1875,44.1875,-29.125,0
66450,-12.4375,45.875,-26.3125,0
66470,-14.125,42.8125,-25.3125,0
66490,-13.25,37.375,-22.1875,0
66510,-12.9375,38.75,-15.8125,0
66530,-11.75,39.1875,-11.8125,0
66550,-13.375,37,-6.75,0
66570,-6.3125,33.625,-4.375,0
66590,-6.625,33.1875,-0.625,0
66610,-15,37.25,4.25,0
66630,-9.4375,35.0625,4.6875,0
66650,-8.8125,29.9375,2.6875,0
66670,-10.9375,28,4.6875,0
66690,-15.1875,32.6875,12.5625,0
66710,-7.1875,30.1875,18.25,0
66730,7.25,20.1875,14.75,0
66750,8.0625,12.0625,11.75,0
66770,0.6875,12.625,11.125,0
66790,-13.8125,14.875,16.9375,0
66810,-13.125,14.3125,20.75,0
66830,-4.375,9.25,18.9375,0
66850,-5.9375,7.6875,15.9375,0
66870,-2.75,9.0625,19.0625,0
66890,-14.375,11.625,26.625,0
66910,-6.9375,11.8125,28.875,0
66930,-1.5625,4.875,28.625,0
66950,10.5,-3.9375,29.0625,0
66970,19.9375,-7.375,32.3125,0
66990,14.3125,-8.0625,33.375,0
67000,-4.4375,-7.6875,30.875,0
67020,-12.75,-9.8125,26.625,0
67040,-17.6875,-10.875,23.6875,0
67060,-8.125,-13.625,23.9375,0
67080,2.8125,-17.4375,25.0625,0
67100,3.8125,-17.5625,24.1875,0
67120,4.1875,-15.5625,21.6875,0
67140,-4.625,-15.3125,21,0
67160,-9.8125,-16.0625,23.125,0
67180,-3.4375,-15.4375,23.25,0
67200,-2.125,-15.25,22.0625,0
67220,4.25,-16.25,20.6875,0
67240,4.0625,-17.625,20.0625,0
67260,-6.875,-17,21.4375,0
67280,0.875,-16.1875,19.75,0
67300,5.5,-17.8125,18.75,0
67320,1.5,-20.0625,20,0
67340,-1.875,-18.0625,21,0
67360,3.75,-16.75,19.3125,0
67380,-3.375,-19.625,18.8125,0
67400,-8.5,-20.1875,18.8125,0
67420,-3.8125,-19.875,19.3125,0
67440,3.375,-21.625,18,0
67460,3.1875,-21.9375,18.4375,0
67480,-4.5,-19.625,17.8125,0
67500,-6.25,-19,19.375,0
67520,-6.5625,-19.0625,19.625,0
67540,-11.4375,-18.4375,18.9375,0
67560,-5.3125,-19.3125,19.4375,0
67580,1.25,-20.5,17.375,0
67600,-2.125,-21.375,15.9375,0
67620,-2.0625,-24.5,14.8125,0
67640,-1,-27,13.75,0
67660,-0.3125,-29.0625,12.1875,0
67680,-0.0625,-32.625,11.1875,0
67700,-5.3125,-34.5,11.5625,0
67720,-1.9375,-33.875,13.125,0
67740,-4.1875,-33.1875,13.0625,0
67760,-10.875,-33.3125,13.9375,0
67780,-8,-35.4375,15.1875,0
67800,-2.375,-36.5625,13.1875,0
67820,-2.375,-35.5625,10.75,0
67840,-6.0625,-36.375,10.8125,0
67860,-9.8125,-38.1875,9.25,0
67880,-8.875,-36.9375,7.1875,0
67900,-7.4375,-37.0625,6.8125,0
67920,-6.1875,-40.4375,7.75,0
67940,-3.5625,-41.5625,5.1875,0
67960,-2.3125,-39.4375,1.625,0
67980,-5.8125,-39.25,1.5625,0
68000,-3.375,-41.3125,2.9375,0
68020,-4.8125,-42.625,0.375,0
68040,-3.625,-41.4375,-1.625,0
68060,-5.5625,-41.3125,-2.5,0
68080,-5,-42.5,-2.5625,0
68100,-1.5,-43.4375,-6,0
68120,1.5,-41.6875,-8.6875,0
68140,1.25,-40.875,-8.4375,0
68160,1.25,-41.5,-8.125,0
68180,-2.5,-40.4375,-9.1875,0
68200,0,-38.0625,-8.4375,0
68220,7.875,-38,-9.3125,0
68240,3.375,-39.9375,-10.125,0
68260,2.0625,-37.5,-10.4375,0
68280,5.0625,-32.4375,-10.0625,0
68300,5.9375,-31.4375,-10.875,0
68320,-2.25,-33.625,-10.125,0
68340,-6.0625,-32,-10.6875,0
68360,2.8125,-26.5,-15.4375,0
68380,7.75,-24.75,-16.625,0
68400,1.4375,-25.625,-15.125,0
68420,1.125,-25.125,-16.75,0
68440,1.875,-20.25,-20.6875,0
68460,3.3125,-14.1875,-23.3125,0
68480,-2.875,-10.3125,-22.3125,0
68500,-8.5625,-4.25,-18.5625,0
68520,-1.125,2.8125,-15.375,0
68540,1.375,0.3125,-15.4375,0
68560,-2.125,-3.75,-17.75,0
68580,1.75,-0.125,-18.375,0
68600,9.4375,4,-24.0625,0
68620,24.25,4.6875,-30.75,0
68640,19,0.125,-33.5,0
68660,2.9375,5.375,-32.6875,0
68680,-3.5,14.5,-33.6875,0
68700,-2.125,13.9375,-33.375,0
68720,1.125,10.75,-30.875,0
68740,1.375,11.9375,-28.1875,0
68760,4.8125,14.875,-32.125,0
68780,1,16.9375,-29.75,0
68800,-9.6875,15.9375,-26.625,0
68820,-15.3125,16.625,-29.1875,0
68840,-15.3125,17.9375,-33.9375,0
68860,-13.8125,22.5625,-34.5625,0
68880,-14.875,22.75,-34.25,0
68900,-19.1875,22.875,-36.125,0
68920,-18.0625,25.5625,-37.25,0
68940,-17,29.4375,-34.9375,0
68960,-12.875,30.625,-35.125,0
68980,-11.6875,30.5,-38.25,0
68990,-16.9375,33.125,-39.875,0
69010,-17.6875,35.1875,-39.625,0
69030,-13,33.4375,-39.4375,0
69050,-16.1875,32.75,-39.0625,0
69070,-23.75,36,-36.4375,0
69090,-22.875,40.125,-36.125,0
69110,-17,40.3125,-35.9375,0
69130,-14.3125,38.3125,-34.0625,0
69150,-14.3125,39.9375,-27.875,0
69170,-12.6875,46.8125,-20.25,0
69190,-2.875,50.5625,-17.6875,0
69210,-0.25,45.3125,-17.5,0
69230,-5.9375,41.3125,-14.3125,0
69250,-9.375,41.125,-12.5625,0
69270,-9.9375,42.5,-12.125,0
69290,-10.25,39,-17.5,0
69310,-3.75,36.6875,-22.1875,0
69330,-1.6875,34.1875,-22.6875,0
69350,-1.5,34.9375,-18.75,0
69370,-8.75,37.125,-14.25,0
69390,-11.4375,38.3125,-8.4375,0
69410,-9.75,35.25,-7.5625,0
69430,-11.5625,33.4375,-4.75,0
69450,-5.625,29.8125,-3.375,0
69470,-0.8125,26.75,-3.625,0
69490,-3.5625,27.5,-3.0625,0
69510,-15.8125,30.875,-1.3125,0
69530,-19.25,29.3125,0.625,0
69550,-11.625,22.625,0.1875,0
69570,-2.8125,18.625,0.5625,0
69590,-1.6875,20.5,2.375,0
69610,-9.125,24,7.3125,0
69630,-13.375,22.0625,9.8125,0
69650,-17.9375,18.375,13.8125,0
69670,-20.5,15.0625,14,0
69690,-13.375,14.3125,11.4375,0
69710,-9.4375,9.9375,14.1875,0
69730,-7.625,8.5,19.9375,0
69750,-6.875,10.75,22.6875,0
69770,-11.1875,13.375,19.25,0
69790,-14.1875,14.4375,16.5,0
69810,-15,14.4375,19.1875,0
69830,-11.875,14.0625,22.375,0
69850,-12,12.9375,24.5,0
69870,-10.625,12.25,23.25,0
69890,-1.5625,8.625,20.125,0
69910,-2.4375,5.75,20.6875,0
69930,-9.3125,5.8125,21.5,0
69950,-6.75,4.5625,23.125,0
69970,-12.375,4.25,22.4375,0
69990,-14.5,2.75,21.875,0
70010,-9.6875,1.625,22.6875,0
70030,-7.3125,-1.1875,22.4375,0
70050,2,-1.3125,24.125,0
70070,-0.1875,-3.0625,23.8125,0
70090,-6.1875,-4.8125,22.25,0
70110,-10.375,-7.6875,21.5,0
70130,-8.125,-8.875,23.3125,0
70150,-4.75,-9.5,23.8125,0
70170,-6.625,-10.375,21.8125,0
70190,-7.9375,-10.875,20.9375,0
70210,-13.6875,-10.375,21.625,0
70230,-8.25,-10.25,23.3125,0
70250,-3.6875,-9.9375,22.375,0
70270,-5.125,-6.875,22.1875,0
70290,-4.625,-4,22.9375,0
70310,-12.3125,-8,23.4375,0
70330,-9.625,-11.8125,21.25,0
70350,-5.875,-14,19.6875,0
70370,-5.75,-16.3125,20.875,0
70390,-6.125,-18.5,19.25,0
70410,-4.5,-21.25,17.8125,0
70430,-7.625,-22.1875,14.8125,0
70450,-5.8125,-21.6875,11.9375,0
70470,-11.5,-23.25,13.5,0
70490,-10.75,-24.375,13.4375,0
70510,-4,-25.3125,11.9375,0
70530,0.375,-24.9375,12.375,0
70550,-2.375,-25.25,12.5,0
70570,-7.1875,-24.875,10.9375,0
70590,-9.75,-24.6875,12.0625,0
70610,-7.8125,-26.75,12.9375,0
70630,-2.75,-27.75,10.6875,0
70650,-3.0625,-28.125,9.8125,0
70670,-5.8125,-30.625,11.25,0
70690,-8,-33.3125,12.125,0
70710,-6.0625,-34.1875,12.125,0
70730,-4.375,-33.9375,11.9375,0
70750,-7.3125,-34.9375,12.125,0
70770,-11.5,-36.125,10.625,0
70790,-8.5625,-35.5625,7.75,0
70810,-10.3125,-36.3125,7.25,0
70830,-4.6875,-38.75,5.8125,0
70850,-1.75,-42,3.0625,0
70870,-1.25,-42.75,2.8125,0
70890,0.0625,-43.25,0.625,0
70910,-4.625,-45.4375,-1.25,0
70930,-8.375,-46.3125,-2.3125,0
70950,-6.9375,-45.1875,-5.25,0
70970,-9,-46.8125,-7.375,0
70990,-6.4375,-48.25,-7.75,0
71010,-4.25,-49.9375,-11.25,0
71030,-4.3125,-48.375,-14.6875,0
71050,-5.25,-45.0625,-16.0625,0
71070,-8.6875,-46.125,-17.1875,0
71090,-5.3125,-47.8125,-19.8125,0
71110,0.375,-46.6875,-23.1875,0
71130,-0.3125,-44.625,-23.3125,0
71150,1.5625,-43.375,-23.5,0
71170,-2.8125,-42.5625,-26.4375,0
71190,-6.9375,-40.25,-28.125,0
71210,-9.0625,-38.6875,-27.9375,0
71230,-4.25,-38.5625,-28.6875,0
71250,-4.125,-38.0625,-30.75,0
71270,-0.5,-34.375,-30.875,0
71290,-2.5625,-30.9375,-30.625,0
71310,-6.3125,-27.9375,-30.3125,0
71330,-5.1875,-21.8125,-31.625,0
71350,-2.75,-18.0625,-35,0
71370,-5.625,-14.75,-36.5,0
71390,-9.25,-11.8125,-37.375,0
71410,-13.8125,-6.375,-34.9375,0
71430,-10.125,0.5,-34.0625,0
71450,-7.9375,1.8125,-38.375,0
71470,-9.3125,2.5625,-40.25,0
71490,-3.9375,7.375,-40.375,0
71510,-7.5625,16,-41.1875,0
71530,-10.8125,19.4375,-40.5,0
71550,-15.75,19.5,-40.375,0
71570,-15.1875,22.625,-39.6875,0
71590,-10.6875,28.625,-42.1875,0
71610,-5.1875,31.9375,-41.625,0
71630,-12.4375,31.25,-40.1875,0
71650,-21.3125,36.875,-36.875,0
71670,-18.125,42,-34.8125,0
71690,-18,40.375,-34.75,0
71710,-21.75,40.25,-32.75,0
71730,-21.875,44.5625,-30.75,0
71750,-17.1875,46.9375,-27.4375,0
71770,-15.1875,44.625,-24.3125,0
71790,-17.6875,41.625,-23.1875,0
71810,-19.375,41.625,-19.1875,0
71830,-25.0625,42.3125,-12.5625,0
71850,-27.6875,45.875,-11.75,0
71870,-24.8125,46.4375,-13.5,0
71890,-14.4375,45.1875,-11.875,0
71910,-11.5625,44.8125,-11.625,0
71930,-12.625,47,-12.6875,0
71950,-12.25,45.5,-13.75,0
71970,-15.25,39.3125,-9.75,0
71990,-15.8125,38.5625,-4.75,0
72010,-9.125,40.5625,-4.5625,0
72030,-11.3125,39.9375,-3.4375,0
72050,-25,39.6875,-0.5625,0
72070,-25.375,41.6875,4.625,0
72090,-8.3125,39.3125,7.5625,0
72110,-11.1875,32.8125,8.1875,0
72130,-13.3125,32.5625,12.625,0
72140,-5.625,34.625,20.5,0
72160,-8,34.625,22.875,0
72180,-6.5,32.125,21.25,0
72200,-1,30.8125,19.625,0
72220,-0.75,30.25,21.625,0
72240,-8.875,30.75,24.5625,0
72260,-11.5625,30.625,24.125,0
72280,-9.6875,26.25,22.0625,0
72300,-5.6875,23.3125,20.875,0
72320,-1.625,22.5625,21.625,0
72340,-3.8125,22.375,22.3125,0
72360,-11.4375,22.9375,21.8125,0
72380,-9.4375,18.75,20.4375,0
72400,-9.6875,12.75,18.625,0
72420,-11.25,13.4375,19.625,0
72430,-20.875,18.875,25,0
72450,-32.4375,13.8125,24.625,0
72470,-35,7.25,23.75,0
72490,-27.9375,7.5625,21.4375,0
72510,-15.125,8.0625,21.875,0
72530,-8.125,4.375,23.625,0
72550,-6.5,1.5625,24.375,0
72570,-3.75,1.75,23.375,0
72590,-10.6875,2.625,18.75,0
72610,-17.3125,4.3125,18.5,0
72630,-16.3125,3.3125,19.5,0
72650,-9,1.5,16.6875,0
72670,-0.375,-1.1875,17.125,0
72690,-2.9375,-3.4375,17.5625,0
72710,-4.5625,-1.4375,17.8125,0
72730,-5.6875,1.5,16.5625,0
72750,-10.4375,-1.125,17.5625,0
72770,-8.3125,-3.3125,18.75,0
72790,-10.125,-2.4375,20,0
72810,-7.375,-1.6875,20.375,0
72830,-8,-2.9375,20.625,0
72850,-12.625,-7.375,20.9375,0
72870,-15.8125,-8.0625,20.5625,0
72890,-9.625,-8,19.6875,0
72910,-7.5625,-10.6875,19.0625,0
72930,-13.4375,-12.25,15.6875,0
72950,-12.875,-9.6875,13.9375,0
72970,-12.375,-7.6875,15.625,0
72990,-12.5625,-11.875,18.125,0
73010,-13.125,-15.875,18.125,0
73030,-6.0625,-16.0625,16.6875,0
73050,-8.75,-14.6875,13.75,0
73070,-13.0625,-15.3125,10.1875,0
73090,-9.1875,-18.0625,8.125,0
73110,-0.5625,-22.4375,5.1875,0
73130,9.5625,-25,3.6875,0
73150,5.1875,-25.375,4.3125,0
73170,-3.8125,-26.4375,5,0
73190,-8.625,-27.875,5.5,0
73210,-7.125,-31.8125,7.4375,0
73230,-6.125,-33.8125,6.6875,0
73250,-6.3125,-31,3.0625,0
73270,-2.25,-30.125,3.4375,0
73290,-5.9375,-34.5,7.3125,0
73310,-9.125,-36.125,7.125,0
73330,-8.9375,-33.875,6.0625,0
73350,-10.5625,-31.5,6.8125,0
73370,-14.4375,-31.5,6,0
73390,-13.25,-32.25,4.4375,0
73410,-7.4375,-32.6875,1.25,0
73430,0.3125,-34.9375,-1.125,0
73450,0.25,-36.6875,-1.5,0
73470,-2.3125,-35.125,-5.5625,0
73490,2.875,-36.6875,-6.5625,0
73510,-7.4375,-43.0625,-6.1875,0
73530,-7.5,-43.875,-7.6875,0
73550,-3.9375,-42,-10.1875,0
73570,-8.125,-41.125,-12.3125,0
73590,-10.6875,-41.1875,-16.375,0
73610,-9.4375,-40.5625,-18.0625,0
73630,-8.1875,-42.625,-19.9375,0
73650,-7.0625,-46.5,-23.875,0
73670,8.375,-41.625,-25.6875,0
73690,5.5,-35.1875,-27.3125,0
73710,-2,-33.375,-25.375,0
73730,-2.875,-34.1875,-26.8125,0
73750,2.8125,-37.1875,-30.4375,0
73770,7.9375,-34.875,-32.4375,0
73790,10.5625,-31.75,-34.375,0
73810,9,-30.625,-35.75,0
73830,1.3125,-28.0625,-37.0625,0
73850,-4.5625,-25.9375,-40.625,0
73870,-15.4375,-26.75,-43.75,0
73890,-9.1875,-19.3125,-43.5625,0
73910,-3.9375,-15.5,-39.9375,0
73930,-3.6875,-17.1875,-37.375,0
73950,11.0625,-14.8125,-37.3125,0
73970,24.875,-12.5625,-44.375,0
73990,14.4375,-11.6875,-52.875,0
74010,6.625,-8.1875,-50.9375,0
74030,0.1875,-6.375,-45.8125,2001
74050,-2.9375,-3.5625,-37.25,0
74070,-5.75,-4.625,-31.5625,0
74090,-5,-1.5625,-30.8125,0
74110,3,4.625,-27.1875,0
74130,4.4375,6.375,-17.625,0
74150,-2.75,11.6875,-8.125,0
74170,-13.375,20.8125,-4.5,0
74190,-16.9375,24.8125,-6.875,0
74210,-19.4375,21.625,-2.5625,0
74230,-27.3125,16.125,5.6875,0
74250,-30.6875,15.4375,14.125,0
74270,-26,18.75,19.5,0
74290,-26.25,21.25,24.5,0
74310,-29.375,23.9375,31.8125,0
74330,-25.8125,25.625,39.3125,0
74350,-19.1875,30.75,45.5,0
74370,-13.8125,42.1875,52,0
74390,-3.9375,49.625,61.9375,0
74410,17.1875,54.0625,68.875,0
74420,29,60.375,74.375,0
74440,37.375,69.5,80.3125,0
74460,34.6875,78.625,85.375,0
74480,43.9375,73.1875,90.0625,0
74500,47,62,76.75,0
74520,70.4375,58.25,67.0625,0
74540,87.3125,61,69.6875,0
74560,81.0625,51.875,74.5625,0
74580,64.75,40.0625,63.9375,0
74600,71,38,51.1875,0
74620,91.125,40.875,53.5,0
74640,101.188,33.25,59,0
74660,100.938,14.3125,57.5625,0
74680,86.875,0.8125,56.75,0
74700,91,4.375,57.4375,0
74720,86.3125,3.6875,54.5,0
74740,89,-2.1875,44.1875,0
74760,93.4375,-4.25,35.625,0
74780,86,-1.5,37.5625,0
74800,79.8125,2.125,43.375,0
74820,68.375,-0.6875,47.875,0
74840,51.375,-3.6875,48.6875,0
74860,28.8125,-4.5625,46.5,0
74880,14.5625,-2.375,40.1875,0
74900,1.9375,-1.5,31,0
74920,-7.0625,-1.875,17.8125,0
74940,-16.4375,-1.875,4.4375,0
74960,-16.875,-3.8125,-6.75,0
74980,-11.8125,-8.0625,-13,0
75000,1.125,-9.6875,-18.1875,0
75020,13.0625,-11.25,-23.5625,0
75040,13.5,-12.375,-24.1875,0
75060,-0.8125,-7.1875,-15.875,0
75080,-6.125,4.9375,-11.1875,0
75100,-9.25,14.4375,-15.0625,0
75120,-22.75,19.5,-18.4375,0
75130,-37.8125,32.5625,-23.9375,0
75150,-26.4375,40.125,-26,0
75170,-17.4375,41.25,-27.4375,0
75190,-14.6875,38.25,-21.6875,0
75210,-15.5,31.8125,-16.125,0
75230,-6.3125,24.4375,-13.8125,0
75250,9.9375,15.875,-9.5,0
75270,19.8125,7.625,-6.625,0
75290,15.875,0.3125,-3.125,0
75310,9.75,-5.5,-0.1875,0
75330,0.75,-6.9375,3.6875,0
75350,-1.3125,-7.3125,11.375,0
75370,0.1875,-7.625,19.25,0
75390,5.0625,-6.3125,25.1875,0
75410,9.75,-4.0625,27.5,0
75430,7.25,-1.625,26.1875,0
75450,3.3125,-0.5625,27.3125,0
75470,8.125,0.1875,28.625,0
75490,7.5625,-0.0625,28.5625,0
75510,9.6875,-1.375,26.3125,0
75530,10.25,-0.5625,22.625,0
75550,10.3125,0.0625,23.8125,0
75570,9.875,0.8125,24.625,0
75590,3,2.125,21.3125,0
75610,-4.9375,2.875,19.9375,0
75630,-12.6875,4.875,17.875,0
75650,-20.6875,6.875,9.1875,0
75670,-23.6875,8.25,-3,0
75690,-19.125,9.6875,-10.125,0
75710,-9.625,10.375,-11.0625,0
75730,1.0625,10.0625,-11,0
75750,4.5625,8.375,-9.5,0
75770,8.25,6.75,-6,0
75790,12.75,4.5625,-3.125,0
75810,12.1875,2.25,-0.375,0
75830,17.125,1.3125,3.9375,0
75850,21.125,1.125,4.125,0
75870,16.625,-0.4375,2.6875,0
75890,9.8125,-3.8125,1,0
75910,3.125,-4.375,0.375,0
75930,-0.0625,-3.5625,2.375,0
75950,-8.125,-3.875,4.0625,0
75970,-10.1875,-4.1875,10,0
75990,-11.875,-1,16.1875,0
76010,-8.6875,1.625,22,0
76030,-5.375,-2.25,27,0
76050,-9.6875,-8.25,33.8125,0
76070,-2.5,-12.9375,40.6875,0
76080,2.75,-16.9375,36.625,0
76100,-0.3125,-18.3125,34.125,0
76120,2,-20.25,39.75,0
76140,-3.375,-14.8125,44.3125,0
76170,-19.8125,1,31.1875,0
76190,-42.875,1.9375,22.1875,0
76200,-62.875,1.125,-0.1875,0
76220,-53.625,8.5,0.5625,0
76240,-38.0625,9.25,-1.0625,0
76260,-19.6875,5.75,-1.5625,0
76280,-1.125,2.625,-2.1875,0
76300,6.625,0.8125,-1.6875,0
76320,12.3125,2.5,-0.75,0
76340,18.0625,8.1875,-1.5625,0
76360,15.875,12,-3,0
76380,8.8125,12.375,-2.625,0
76400,1.375,11.3125,0.8125,0
76430,1.875,11.625,8,0
76450,1.8125,13.9375,10.0625,0
76470,8.75,15.375,8.25,0
76490,8.0625,14.125,0.25,0
76510,1.5,13.1875,-3.8125,0
76530,-5.0625,15.875,-6.8125,0
76530,-9.9375,18.5,-9.3125,0
76550,-11.25,19.375,-10,0
76570,-13.4375,25.625,-15.3125,0
76590,-23.5625,28.375,-20,0
76610,-31.8125,31.5,-26.3125,0
76630,-30.9375,33.375,-35.4375,0
76650,-20.375,31.5625,-38.8125,0
76670,2.8125,29.75,-37.5625,0
76690,36,28.625,-36.125,0
76710,47.6875,25.25,-38,0
76730,46.9375,16.5,-34.3125,0
76750,43.0625,10.375,-27.375,0
76770,23.0625,5.625,-23,0
76790,-4.375,2.9375,-21.75,0
76810,-18.125,3.5625,-21.5625,0
76830,-23,4.25,-22.6875,0
76850,-27.125,3.1875,-21.5,0
76870,-27.0625,4.0625,-17.4375,0
76890,-16.0625,7.5625,-11.125,0
76910,-10.125,6.625,-6.25,0
76930,-3.75,-0.25,-5.5,0
76950,7.8125,-5.8125,-5.375,0
76970,10.4375,-6.1875,-5.5,0
76990,2.3125,-2.25,-9,0
77010,-8,3.9375,-13.25,0
77030,-4.5,9.25,-15.25,0
77050,3.8125,13.1875,-13.5,0
77070,14.625,14.875,-4,0
77090,25.3125,12.3125,6.375,0
77110,33.125,9.4375,16.625,0
77130,36.625,8.8125,24.8125,0
77150,26.9375,8.5,27.9375,0
77170,9.25,10.1875,27.8125,0
77190,-15.875,12.625,26.125,0
77210,-31.8125,14.8125,22.125,0
77230,-31.1875,13.625,16.25,0
77250,-16.375,8.625,13.375,0
77270,3.9375,-2.8125,11.1875,0
77290,16.1875,-15,13.5625,0
77310,24.5,-15.125,16,0
77330,24.75,-10.625,15.1875,0
77350,8.9375,-6.4375,9,0
77370,-11.625,-5.0625,2.375,0
77390,-29.5,-4.5625,-5.375,0
77410,-36.375,-2.4375,-9.625,0
77430,-27.25,2.875,-12.75,0
77450,-11.6875,4.625,-12.6875,0
77470,4.75,3.4375,-5.5625,0
77490,23.6875,5.125,3.6875,0
77510,38.875,6.25,7.875,0
77530,41.625,4.25,8,0
77550,31.4375,1.125,11.125,0
77570,11.9375,-2.5,13.25,0
77590,-10.5,-5.75,11.125,0
77610,-27.6875,-7,6.25,0
77620,-35,-4.875,-2.0625,0
77640,-32.75,-2.875,-12.75,0
77660,-27.5,-5.25,-20.0625,0
77680,-20.0625,-9.3125,-24.0625,0
77700,-9.0625,-13.9375,-26.75,0
77720,10.125,-19.1875,-29.25,0
77740,20.6875,-28.0625,-27.875,0
77760,18.375,-32.9375,-25.875,0
77780,11.1875,-32.125,-26.6875,0
77800,0.375,-32.1875,-30.875,0
77820,-10.6875,-33.1875,-34.25,0
77840,-14.1875,-37.6875,-27.75,0
77860,-7.9375,-45.0625,-15.5,0
77880,5.5,-43.5625,-5.4375,0
77900,16.9375,-33.375,0.75,0
77920,17.4375,-25.125,9.75,0
77940,3.875,-18,16.125,0
77960,-19.8125,-9.375,15.1875,0
77980,-40.375,-16.0625,11.375,0
78000,-43.125,-27.0625,12.3125,0
78020,-35.6875,-30.25,11.1875,0
78040,-10.3125,-29.0625,1.5,0
78060,20.1875,-30.5625,-8.3125,0
78080,23.6875,-33,-11.6875,0
78100,17.625,-29.625,-8.875,0
78120,16.5625,-24.9375,-6.6875,0
78140,18.3125,-19.625,-2.75,0
78160,9.4375,-20.1875,3.3125,0
78180,7,-21.8125,7.625,0
78200,4.4375,-20.125,10,0
78220,10.0625,-19.1875,8.625,0
78240,6.5625,-17.75,0.9375,0
78260,-4.375,-14.8125,-4.875,0
78280,-10.375,-12.5625,-6.25,0
78300,-11.75,-13.3125,-5.1875,0
78320,1.375,-5.5,-3.125,0
78340,12.625,1.75,3.5625,0
78360,10.9375,8.875,9.75,0
78380,-0.4375,11.9375,13.3125,0
78400,-24.4375,8.5,14.1875,0
78420,-27.5625,2.8125,14.25,2000
78440,-13.4375,-5.375,8.0625,0
78460,-2.5,-4.625,-6.0625,0
78480,3.625,3,-9.375,0
78500,6.3125,8.625,-1.125,0
78520,-10.875,8.125,6.5625,0
78540,-17.3125,3.875,10.6875,0
78560,-14,1.5625,13.9375,0
78580,-7.3125,2.625,11.125,0
78600,-3.1875,-0.625,10.3125,0
78620,-5.3125,-2.3125,13.5,0
78640,-5.125,-6,9.25,0
78660,-9.125,-10.125,-1.75,0
78680,-10.6875,-12.4375,-9.875,0
78700,-5.5,-14.4375,-8.5,0
78720,4.9375,-22.125,-8.25,0
78740,6.625,-28.25,-8.9375,0
78760,5.3125,-26.3125,-8.625,0
78780,5.5,-23.8125,-12.0625,0
78800,4.4375,-24.3125,-11.25,0
78820,-5.1875,-28,-5.9375,0
78840,-8.75,-30.5625,-3.3125,0
78860,1.9375,-33.8125,-8.5625,0
78880,8.25,-36.25,-11.75,0
78900,6.6875,-37.25,-11.6875,0
78920,-1.625,-36.9375,-12.875,0
78940,-15.125,-35.8125,-13.625,0
78960,-18.75,-33.8125,-12.25,0
78980,-10.375,-31.25,-10.3125,0
79000,-5.375,-32.8125,-10.75,0
79020,0.375,-31.5625,-11.5,0
79040,7.6875,-27.6875,-14.375,0
79060,6.6875,-23.875,-14.0625,0
79080,3.8125,-17.4375,-8.375,0
79100,9.0625,-14.0625,-7.8125,0
79120,11.1875,-11.3125,-9.375,0
79140,8.6875,-8.875,-11.1875,0
79160,3.6875,-8.25,-11.3125,0
79180,-1.625,-8.5,-13.3125,0
79200,-3.3125,-6.1875,-19.6875,0
79220,-7.3125,-0.9375,-26.625,0
79240,-7.4375,1.3125,-30.625,0
79260,-8.1875,0.9375,-28.8125,0
79280,-2.5,-2.875,-31.1875,0
79300,-0.625,-2.25,-37.1875,0
79320,-5.8125,0.625,-40.3125,0
79340,-7.125,4.1875,-40,0
79360,-5.1875,2.875,-41.4375,0
79380,-6.8125,2.5625,-42,0
79400,-9.5625,8.75,-39.9375,0
79420,-13.4375,16.625,-35.375,0
79440,-9.875,22.875,-33.4375,0
79460,-13,26.375,-33.75,0
79480,-16.0625,31.4375,-33.375,0
79500,-10.1875,37.9375,-33.6875,0
79520,-0.8125,39.0625,-36.5625,0
79540,1.375,41.8125,-39.1875,0
79560,-3.1875,46.125,-41.0625,0
79580,-5.8125,44.1875,-46.125,0
79600,-9.9375,41.0625,-47.125,0
79610,-11.5,42.375,-44.5,0
79630,-9.75,44.1875,-40.6875,0
79650,-5.5625,44.625,-41.6875,0
79670,-7.25,43.5,-41.6875,0
79690,-12.5,43.1875,-41.25,0
79710,-17.1875,38.1875,-38.25,0
79730,-15.3125,34.5625,-34.625,0
79750,-11.0625,34.25,-36.0625,0
79770,-10.8125,37.125,-35.1875,0
79790,-11.4375,41.4375,-32,0
79810,-15.3125,42.25,-29.5625,0
79830,-13.9375,39.1875,-26.625,0
79850,-9,36.0625,-25.375,0
79870,-1.625,37.6875,-22,0
79890,-2.75,42.375,-17.8125,0
79910,-11.5,44.375,-16.8125,0
79930,-15.25,41.6875,-17.9375,0
79950,-13.5625,37.8125,-15.875,0
79970,-9.3125,38.625,-11.25,0
79990,-2.625,41.375,-4.875,0
80010,-0.5,40.9375,-3,0
80030,-7.8125,39,-2.4375,0
80050,-13.625,37.875,0.9375,0
80070,-12.6875,35.3125,5,0
80090,-10.375,34.25,6.375,0
80110,-2.3125,30.875,5.8125,0
80130,-1.75,28.6875,7,0
80150,-10.375,27.75,5.1875,0
80170,-10.375,26.9375,3.125,0
80190,-11.1875,23.8125,4.6875,0
80210,-10.75,19.6875,7.375,0
80230,-9.1875,17.4375,8.5625,0
80250,-8.1875,18.8125,9.625,0
80270,-10.5,17.875,13,0
80290,-8.75,17.75,13.625,0
80310,-1.25,17.375,12.9375,0
80330,3.625,15.4375,12.6875,0
80350,-1.5625,15.25,11.1875,0
80370,-7.625,13.6875,11.8125,0
80390,-12.3125,11.25,14.125,0
80410,-15.0625,7.5625,18.625,0
80430,-5.875,7.0625,19.6875,0
80450,0.4375,6.75,17.6875,0
80470,-3.125,6.125,21.125,0
80490,-9.0625,6.5,21.625,0
80510,-16.8125,2.4375,17.375,0
80530,-15.0625,-0.5625,15.25,0
80550,-5.0625,-3.0625,16,0
80570,1.5,-3.1875,17,0
80590,2.125,-1.875,17.375,0
80610,-7.6875,-2.25,17.375,0
80630,-18.125,-3.6875,20.375,0
80650,-20.125,-6.1875,23.25,0
80670,-8.25,-6.0625,24.4375,0
80690,-3,-7.3125,23.4375,0
80710,-9.3125,-8.0625,22.1875,0
80730,-15.6875,-8.125,21.375,0
80750,-14.0625,-10.5625,23.125,0
80770,-8.1875,-14.5,23.625,0
80790,-6,-16.25,24.1875,0
80810,-4.875,-16.375,24.375,0
80830,-4.3125,-18.625,23.125,0
80850,-4.6875,-20.6875,20.75,0
80870,-6.375,-19.625,19.1875,0
80890,-9.6875,-20.25,19,0
80910,-9.5625,-21.625,20.125,0
80930,-10.1875,-22.1875,18.625,0
80950,-10.8125,-22,18.1875,0
80970,-6.1875,-23.8125,19.25,0
80990,-1.5625,-27.6875,20.9375,0
81010,-3.375,-28.75,20.375,0
81030,-5.75,-26.75,18.75,0
81050,-11.6875,-26.625,17.5,0
81070,-12.8125,-28.375,17.25,0
81090,-7.25,-29.5625,15.8125,0
81110,-2.125,-30.75,16.75,0
81130,-1.75,-34.3125,18.0625,0
81150,-3.75,-35.6875,17.375,0
81170,-3.5625,-35.8125,16.5,0
81190,-6.1875,-38.3125,16.625,0
81210,-8.9375,-42.5625,16.5625,0
81230,-5.3125,-43.3125,13.9375,0
81250,-4,-43.375,13.0625,0
81270,-7.8125,-44.375,12.25,0
81290,-10.1875,-47.3125,12.1875,0
81310,-11.9375,-49.625,11.5,0
81330,-10.8125,-50.125,9.1875,0
81350,-5.9375,-51.5,7.8125,0
81370,-9.3125,-54.4375,5.25,0
81390,-8.375,-52.6875,2.125,0
81410,-11.9375,-53.3125,0.9375,0
81430,-8.5,-55.875,2.1875,0
81450,-7.875,-58.3125,-2.5625,0
81470,-6.3125,-58.125,-6.0625,0
81490,-1.8125,-57.75,-5.625,0
81510,-4,-60,-6.625,0
81530,-5.8125,-58.75,-12.5,0
81550,-6.5,-55,-16.8125,0
81570,-5.375,-54.8125,-17.625,0
81590,-7.375,-56.8125,-16.5625,0
81610,-2.4375,-55.6875,-17.8125,0
81630,5.4375,-52.5,-20.1875,0
81650,2.75,-50.625,-16.4375,0
81670,-5.5,-46.8125,-13.125,0
81690,-5.25,-43.0625,-14.9375,0
81710,-2,-39.5,-19,0
81730,0.6875,-38.0625,-20.5,0
81750,-0.3125,-36.0625,-22,0
81770,-1.9375,-32.1875,-23,0
81790,-2.9375,-28.3125,-27.1875,0
81810,-1.875,-26.3125,-28.8125,0
81830,-3.25,-28.625,-27.875,0
81850,-6.625,-26.5,-27.625,0
81870,-2.9375,-19.375,-30.125,0
81890,-0.1875,-16.625,-32.3125,0
81910,-6.625,-16.5,-30.375,0
81930,-14,-11.0625,-29.4375,0
81950,-10.5,-0.125,-29.5,0
81970,-5.375,7.5625,-32.1875,0
81990,-6.75,4.125,-31,0
82010,-8.9375,5.25,-30.625,0
82030,-4.5625,12.5625,-33,0
82050,-4.125,17.0625,-30.9375,0
82070,-4.875,12.875,-28.5625,0
82090,-10.625,9.5,-29.6875,0
82110,-12.6875,16.0625,-32.8125,0
82130,-13.5625,22.8125,-31.5625,0
