Timestamp, Rotation x, Rotation y, Rotation z, Marker
40,19.5,157,68.875,0
60,8.8125,167.688,60.625,0
80,-35.1875,167.75,39.75,0
100,-60,162.25,32.875,0
120,-28.875,150.562,27.1875,0
120,7.3125,140.312,17.625,0
170,32,141.875,17.625,0
170,32.25,150.625,13.125,0
190,19.5625,157.375,-1.25,0
210,11.4375,155.812,0.125,0
230,38.25,137.5,12.8125,0
250,67.5625,125.562,22,0
270,72.125,121.562,20.4375,0
290,56.75,118,15,0
310,33.6875,102,7.5625,0
330,28.5625,85.625,7.1875,0
350,38.0625,68.0625,15.4375,0
370,32.0625,62.8125,32.375,0
390,28.9375,62.4375,49.5625,0
410,-9.3125,66,57,0
430,-9.125,22.4375,37.625,0
450,-24.25,-13,-58.25,0
470,-68.0625,-24.5,-20.0625,0
490,10.5,-17.4375,1.5625,0
510,42,7,-20.5625,0
530,36.5,15.8125,0.9375,0
550,11.5625,13.9375,6.6875,0
570,-1.9375,9.75,4.4375,0
590,-9.625,4.8125,7.5,0
610,-10.625,5.1875,6.625,0
630,-16.3125,6.0625,10.125,0
650,-20.4375,6.375,14.4375,0
670,-17.75,3.8125,11.25,0
690,-14.875,3.1875,5.5625,0
710,-8.75,0.875,3.3125,0
730,-0.9375,-1.5625,5.375,0
750,-3.5625,-2.9375,10.5625,0
770,-13.25,-1,8.4375,0
790,-13.1875,1.4375,3.9375,0
810,-17,1.4375,4.875,0
830,-15.875,-0.6875,5.0625,0
850,-15.125,-1.4375,6.0625,0
870,-12.1875,0,6.375,0
890,-10.5,1.0625,6.25,0
910,-11.8125,0.625,5.1875,0
930,-13.1875,0.5,5.3125,0
950,-10.875,0.5625,4.5625,0
970,-7.8125,0.5625,5,0
990,-9.625,0.5625,6.375,0
1010,-13.375,0.75,6.4375,0
1030,-13.5,-0.1875,4,0
1050,-10.25,1.75,1.8125,0
1070,-2.3125,-1.625,3.5625,0
1090,-0.875,0,0.5,0
1110,-6.5,1.0625,0.375,0
1130,-3.8125,-1.0625,-1.4375,0
1150,3.375,-2.5625,-0.5,0
1170,6.625,-1.1875,0.25,0
1190,1.3125,1.9375,-0.6875,0
1210,-5.75,-1.4375,3.25,0
1230,-5.25,4.3125,1.375,0
1250,-9.1875,-0.125,3.5625,0
1270,-8,0,2.9375,0
1290,-6.4375,-0.75,1.875,0
1310,-7,0.0625,3.5625,0
1330,-10.1875,4.75,4.0625,0
1350,-7.75,0.1875,7.0625,0
1370,-4.375,-0.6875,1.9375,0
1380,4.125,1.3125,-2.25,0
1400,-1.1875,4.625,1.1875,0
1420,2.5625,1.375,1.375,0
1440,0.4375,0.3125,0.6875,0
1460,-3.5625,1.1875,2,0
1480,-4.75,1.9375,2.1875,0
1500,-1.5625,1.3125,0.6875,0
1520,1.9375,0.4375,-0.25,0
1540,3.375,-0.0625,0.1875,0
1560,-0.0625,-0.125,0.6875,0
1580,0.4375,0.625,-0.1875,0
1600,3.75,0.5,-1.1875,0
1620,9.25,-2.5,-0.75,0
1640,29.5625,-4.375,-5.5,0
1660,69.75,-5.625,-22.4375,0
1680,103.938,-5.9375,-41.1875,0
1700,127.688,1.5625,-54.3125,0
1720,151.062,10.4375,-58.75,0
1740,142.562,8.875,-62.875,0
1760,120.375,11.25,-63.8125,0
1780,104.312,16.3125,-62.375,0
1800,89.875,20.75,-50.1875,0
1820,79.875,27.5625,-35.125,0
1840,56.0625,30.625,-26.75,0
1860,29.5,31.0625,-16.75,0
1880,5.75,30.6875,-6.375,0
1900,-9,29,2.875,0
1920,-26,29.4375,9.875,0
1940,-27.8125,26,13.375,0
1960,-15.625,18.5625,13.125,0
1980,-6.75,12.625,12.5625,0
2000,-8.125,10.125,7.25,0
2020,-12.25,9.125,5.8125,0
2040,-10.625,5.125,4.75,0
2060,-2.5625,4.875,4.8125,0
2080,5.5625,5.3125,8.75,0
2100,10.3125,4.125,14.4375,0
2120,1.4375,5.6875,13.5,0
2140,-8.1875,4.8125,11.9375,0
2160,-10.625,3.3125,7.8125,0
2180,-5,2.0625,6.625,0
2200,-2.5,-0.5625,4.75,0
2220,-0.25,-1.3125,2.625,0
2240,-1.4375,-2.6875,-0.3125,0
2260,-2.5,-3.375,-1.6875,0
2280,-6.4375,-2.875,-1.125,0
2300,-9.1875,-2.9375,-0.9375,0
2320,-8.8125,-4.5625,-0.9375,0
2340,-8.25,-5.75,-0.5625,0
2360,-9.5,-5.3125,-0.1875,0
2380,-12.0625,-4.625,-0.4375,0
2400,-12.8125,-5.4375,0.0625,0
2420,-11.6875,-6.1875,-0.25,0
2440,-9.9375,-6.5,-1.125,0
2460,-8.3125,-5.875,-1.375,0
2480,-5.75,-6.5625,-1.5625,0
2500,-3.0625,-5.6875,-2.625,0
2520,-2.5,-0.875,-4,0
2540,-1.625,5.8125,-5.0625,0
2560,3.125,9.6875,-8.5625,0
2580,9.125,8.5625,-9.25,0
2600,14.25,8,-8.625,0
2620,13.9375,7.9375,-8.25,0
2640,5.8125,8.25,-5.1875,0
2660,-4.8125,7.8125,-1.9375,0
2680,-9.8125,5.75,-0.3125,0
2700,-8.0625,4.5625,-2,0
2720,-4.1875,2.3125,-3.9375,0
2740,-1.875,1.25,-4.125,0
2760,1.625,2.9375,-4.9375,0
2780,3.4375,4.5625,-5.1875,0
2800,3.4375,5,-7,0
2820,2.625,6.125,-9.25,0
2840,7.5625,3.6875,-11.75,0
2860,13.0625,2.875,-16.4375,0
2880,15.875,1.4375,-16.3125,0
2900,13.8125,5.125,-19.125,0
2920,12.8125,5.3125,-20.125,0
2940,19.5625,6.9375,-20.5,0
2960,22.8125,7.8125,-19.6875,0
2980,20.9375,-0.3125,-11.25,0
3000,8.9375,-8.4375,-9.25,0
3020,-5.5625,-10.3125,-8.9375,0
3040,-6.375,-12.0625,-2.6875,0
3060,-2.25,-14.25,1.6875,0
3080,-6.3125,-14.9375,9.5,0
3100,-13.5625,-8.1875,10.1875,0
3120,-11.4375,-10.75,11.9375,0
3140,-9.1875,5.9375,3.75,0
3160,-5.8125,11.625,7.1875,0
3180,0.5,16.375,8.375,0
3200,0.375,7.9375,12.5625,0
3220,-9.8125,9,15.875,0
3240,-26.9375,7.5625,14.875,0
3260,-34.0625,10.1875,10,0
3280,-20.75,-1.1875,2.6875,0
3300,-5.3125,-4.1875,1.25,0
3320,-5.375,-9.5,2.5,0
3340,-20.6875,-3.8125,4.5625,0
3360,-28.75,-5.5625,4.8125,0
3380,-30.4375,-1.3125,8,0
3400,-29.1875,-9.8125,12.625,0
3420,-24.8125,-2.3125,9.5,0
3440,-21.3125,-3.1875,9.9375,0
3460,-16.3125,-1.9375,10.25,0
3480,-8.0625,-1.1875,9.5,0
3500,-2.4375,1.375,7.1875,0
3520,0.5,3.25,4.5,0
3540,3.5625,2.5,3.75,0
3560,7.625,1.5625,2.25,0
3580,8.1875,1.4375,2.25,0
3600,6,2.1875,2.4375,0
3620,0.5625,2.0625,3.0625,0
3640,-2.3125,0.5625,3.5625,0
3660,-3.4375,-0.8125,2.125,0
3680,-3,-2.9375,0.3125,0
3700,-5.5,-3.3125,0.25,0
3720,-7.5625,-1.9375,1.8125,0
3740,-7.125,0.0625,3.5625,0
3760,-12.125,1.375,3.75,0
3780,-9.5625,2,1.125,0
3800,-4.5625,-0.3125,0.3125,0
3820,-1.25,-1.5625,-2,0
3840,3.6875,0.125,-1.8125,0
3860,9.5625,3.4375,-1.1875,0
3880,8.5625,5.875,-4.5625,0
3900,9.8125,3.125,-3.25,0
3920,15,-0.0625,-2.75,0
3940,7.0625,0.375,-1.5,0
3960,-2.25,0.625,-1.5,0
3980,-2.625,-0.25,-2.25,0
4000,-0.125,-1.375,-2.6875,0
4020,-3.75,-1.1875,-1.9375,0
4040,-10.0625,-0.375,-2,0
4050,-11.1875,0.6875,-3.4375,0
4070,-6.8125,1.8125,-4.5625,0
4090,-3.5,2.625,-3.6875,0
4110,-0.3125,3.125,-1.875,0
4130,-0.9375,3.625,0.5,0
4150,-4,4.1875,3.9375,0
4170,-8.625,3.4375,3.625,0
4190,-6.125,1.125,3.625,0
4210,-2.125,-0.9375,5,0
4230,-0.5625,-0.75,6.1875,0
4250,0.1875,3.125,8.875,0
4270,2.5,6.25,12.375,0
4290,-1.5625,9.1875,15.5625,0
4310,-1.8125,9.875,18.1875,0
4330,-8.0625,7.9375,16.375,0
4350,-1.625,10.1875,10.3125,0
4370,14.25,7.25,8.1875,0
4390,21.1875,3.6875,7.0625,0
4410,7.5625,-0.4375,8.0625,0
4430,-0.875,1.4375,3.75,0
4450,1.1875,2.3125,-3.3125,0
4470,3,-0.5,-4.5625,0
4490,-4.75,-4.75,-2.5625,0
4510,-9.5,-4.4375,-3.125,0
4530,-8.75,-3.0625,-7.25,0
4550,-2.875,-3.5,-10.1875,0
4570,1.25,-2.75,-8.8125,0
4590,7.25,-3.9375,-5.4375,0
4610,7.5625,-6,-5.75,0
4630,3.875,-7.375,-5.75,0
4650,7.0625,-6.0625,-6.1875,0
4670,17.5625,-4.0625,-7.9375,0
4690,31.4375,-8.25,-6.6875,0
4710,39.375,-15.375,-11.25,0
4730,27.875,-17.5,-15.9375,0
4750,16.875,-14.125,-16.625,0
4770,5.0625,-14.4375,-16.375,0
4790,2.9375,-13.75,-4,0
4810,11.9375,-15.8125,-3.8125,0
4830,19.875,-9.9375,-9.1875,0
4850,14.9375,-4.4375,-17.5,0
4870,0.0625,-6,-18.25,0
4890,-13.4375,-8.75,-21.875,0
4910,-10.5,-10.5,-30.1875,0
4930,1.0625,-10.875,-37.5625,0
4950,16.625,-14.875,-41.375,0
4970,14.75,-15.5625,-39.75,0
4990,9.1875,-13.125,-33.875,0
5010,-4.75,-13.0625,-29.5625,0
5030,-6.8125,-10.25,-28.625,0
5050,-4.375,-5.5,-28.8125,0
5070,5.3125,-3.5625,-23.5625,0
5090,16.5,-1.5625,-16.3125,0
5110,11.75,-3.5625,-7.25,0
5130,0.625,-4.625,3.75,0
5150,-4.125,-4.4375,7.3125,0
5170,-14.0625,-4.8125,13.25,0
5190,-13.9375,-3.3125,19.9375,0
5210,-10.9375,-1.6875,30.9375,0
5230,-16.5625,2.5625,48,0
5250,-29.625,12.375,63.5,0
5270,-45.6875,19.375,86.3125,0
5290,-69.5,14.0625,115.812,0
5310,-87.6875,13.8125,115.812,0
5330,-136.875,47.875,-72.75,0
5350,-40.9375,-14.875,-97.5,0
5370,114.188,-43.4375,44.3125,0
5390,143.188,-4.5625,12.375,0
5410,76.5625,4.5625,-10.1875,0
5430,-11.5,-9.1875,5.75,0
5450,-50,-3.9375,6.6875,0
5470,-42.8125,6.3125,0.1875,0
5490,-27.3125,5.75,0.9375,0
5510,-14.1875,0.75,5.5625,0
5530,-11.5,0.875,6.8125,0
5550,-9.25,4.5,2.625,0
5570,-0.5625,3.6875,-0.25,0
5590,10.875,1.3125,-2.375,0
5610,11.6875,0.375,-0.6875,0
5630,1.1875,-1,1.1875,0
5650,-8.8125,-1.8125,1,0
5670,-11.5625,-2.0625,0.3125,0
5690,-10.0625,-3.25,1.25,0
5710,-9.875,-3.9375,3.8125,0
5730,-11.625,-2.625,3.75,0
5750,-10,-0.6875,0.75,0
5770,-7,-1.0625,-0.3125,0
5790,-6.5,-1.5625,1.0625,0
5810,-5.9375,-1.125,1.4375,0
5830,-6.1875,0.75,0.1875,0
5850,-7.125,0.75,-1.5,0
5870,-5.625,0.625,1.125,0
5890,-11.5625,-1,6.1875,0
5910,10.1875,-1.6875,3.3125,0
5930,17.0625,1.25,3.75,0
5950,22.0625,8.25,0.125,0
5970,23,13.25,-7.1875,0
5990,13.3125,16.5625,-11.25,0
6000,2.8125,19.1875,-10.9375,0
6030,-1.6875,17.125,-4.75,0
6040,-15,12.1875,1.6875,0
6060,-24.375,5.625,3,0
6080,-22.3125,2.9375,-0.9375,0
6100,-15.8125,2.5625,-7.8125,0
6120,-6.3125,2.9375,-8.25,0
6140,-4.9375,-1.625,-9.625,0
6160,-10.3125,-3.5625,-9.25,0
6180,-7.375,-2.5625,-9.375,0
6200,-8.0625,-1.75,-8,0
6220,-6.9375,-2.5,-5,0
6240,-3.3125,-3.8125,-3,0
6260,0.5625,-1.375,0.9375,0
6280,-3.375,1.75,4.125,0
6300,-9.375,0.1875,6.125,0
6320,-14.375,-1,2.8125,0
6340,-14.875,-1.25,-2.1875,0
6360,-6.9375,-0.8125,-0.75,0
6380,3.75,-2.625,0.3125,0
6400,3.5,-5.1875,2.8125,0
6420,-6.6875,-6.875,2.25,0
6440,-14.5,-10.75,3.125,0
6460,-11.125,-11.75,7.625,0
6480,-4.8125,-11.5,6.6875,0
6500,-16,-11.0625,1.125,0
6520,-19.625,-11.9375,4.5625,0
6540,-32.875,-20.5625,18.5,0
6560,-49.0625,-3.25,11.75,0
6580,-39.125,-0.25,-14,0
6600,-36.625,-3.6875,-10.125,0
6620,2.0625,-17.25,16.4375,0
6640,27.5625,-17.4375,3.75,0
6670,21.0625,-15.5,-6.1875,0
6690,13.5,-13.125,1.0625,0
6710,-3.25,-12.8125,-2.9375,0
6720,1.75,-13,9.9375,0
6740,-4.3125,-1.6875,6.5625,0
6760,-8.75,-1.125,5.875,0
6780,-14.25,-0.75,5.8125,0
6800,-15,-4.8125,1.125,0
6820,-12.9375,-6,2.375,0
6840,-11.125,0.5,3.5,0
6860,-2.4375,6.8125,-8.8125,0
6880,10.75,1.6875,-16.875,0
6900,48.9375,-0.9375,-17.3125,0
6920,74,11.0625,-16.875,0
6940,67.75,21.125,-10.25,0
6960,65.875,27.625,-13.5,0
6980,58.25,30.8125,-22,0
7000,48.5,32.0625,-16.9375,0
7020,3.6875,16.3125,-6.0625,0
7040,16.4375,-9.6875,2.25,0
7060,5.6875,-9.4375,-3.5,0
7080,-21.375,0.4375,2.375,0
7100,-15.875,0.5625,3.5625,0
7120,-13.8125,10.625,-1.6875,0
7140,6.8125,11.9375,3.8125,0
7160,14.375,8.3125,3.625,0
7180,19.6875,4.4375,-2.75,0
7200,15.625,3.625,-2.1875,0
7220,9.8125,3.5625,-3.25,0
7240,0.8125,1.4375,-3.3125,0
7260,-3.0625,1.625,-1.9375,0
7280,-3.3125,1.4375,-2.375,0
7300,2.0625,0.5,-3.8125,0
7320,3.8125,3.6875,-6.3125,0
7340,3.0625,7.125,-5.375,0
7360,-0.125,5,-3.625,0
7380,3.875,2.3125,-0.875,0
7400,2.5625,0,1.0625,0
7420,-4.5625,-3.5625,3.625,0
7440,-9.875,-6.0625,2.75,0
7460,-4.1875,-8.625,2.25,0
7480,-1,-7.0625,1.5625,0
7500,-1.6875,-4.875,4.75,0
7520,-2.25,-3.4375,7.8125,0
7540,-0.25,-2.375,8.3125,0
7560,4.3125,-0.875,5.25,0
7580,3.8125,1.5625,-1.4375,0
7600,0.75,1.625,-1.4375,0
7620,-0.1875,1.625,2.375,0
7640,1.375,1,2.625,0
7660,1.625,-0.0625,1.125,0
7680,-1.25,-1.875,0.1875,0
7700,-5.8125,-1.5625,1.375,0
7720,-10.4375,0.375,2.9375,0
7740,-13.375,0.625,2.6875,0
7760,-11.625,-1.6875,1.625,0
7780,-9.625,-2.6875,2.6875,0
7800,-6.6875,-3.375,3.9375,0
7820,-5.3125,-3,4.3125,0
7840,-7.25,-2.625,3.75,0
7860,-6.6875,-3.1875,2.625,0
7880,-9.125,-4.125,3.25,0
7900,-9.625,-4.4375,4.75,0
7920,-7.875,-3.875,5,0
7940,-7.375,-3,5.25,0
7960,-8.5625,-1.625,5.1875,0
7980,-9.125,-1.5625,3.75,0
8000,-8.75,-2.5,3.875,0
8020,-6.3125,-2.9375,4.0625,0
8040,-5.0625,-1.6875,3.375,0
8060,-6.25,0,3.375,0
8080,-7.75,-0.375,2.875,0
8100,-7.625,-1.25,3.875,0
8120,-6.9375,-1.0625,4.0625,0
8140,-4.75,-2,4.125,0
8160,-2.1875,-2.6875,3.3125,0
8180,-0.9375,-2.75,1.5,0
8200,-1.625,-2.9375,1.1875,0
8220,-0.25,-3.4375,0.8125,0
8240,0.3125,-3.8125,-1,0
8260,1.1875,-3.0625,-1.8125,0
8280,3.8125,-3.0625,-2.1875,0
8300,4.25,-4.1875,-2,0
8320,3.5,-4.0625,-1.875,0
8340,2.4375,-2.125,-2.6875,0
8360,2.75,-2.25,-3.5625,0
8380,4.1875,-3.0625,-3.875,0
8400,6.25,-2,-4,0
8420,6.9375,-1.75,-4.375,0
8440,10.25,-2.75,-6.875,0
8460,9.875,-3.625,-7.625,0
8480,11.5,-4.75,-7,0
8500,10.5,-5.625,-6.0625,0
8520,9.8125,-5.3125,-5.5625,0
8540,10.75,-4.25,-5.8125,0
8560,8.125,-4.875,-4.0625,0
8580,5.75,-5.75,-2,0
8600,4.3125,-5.8125,-3.1875,0
8620,4.125,-5.625,-3.125,0
8640,3.375,-5.25,-2.25,0
8660,2.1875,-3.6875,-2.625,0
8680,-0.9375,-1.875,-3,0
8700,0,-0.8125,-3.375,0
8720,3.5,-1,-2.625,0
8740,6.25,-0.375,-2.375,0
8760,5.1875,0.8125,-2.875,0
8780,2.375,1.6875,-3.3125,0
8800,2,1.6875,-3.875,0
8820,2.875,1.3125,-4.125,0
8840,5.3125,1.0625,-3.5625,0
8860,6.0625,1.5,-2.4375,0
8880,4,2.5625,-1.4375,0
8900,1.5625,2.4375,-1.375,0
8920,-1.5,3.125,0.6875,0
8940,-2.125,4,1.75,0
8960,-1.125,3.625,2.9375,0
8980,-2.0625,3.125,3.6875,0
9000,-5.25,3.9375,4.4375,0
9020,-7.1875,5.25,5.375,0
9040,-7.375,5.5625,5.8125,0
9060,-4.9375,4.9375,5.5,0
9080,-0.5,3.8125,4.5,0
9100,-1.5625,3.625,3.75,0
9120,-3.4375,4.4375,3.5625,0
9140,-6.1875,4.9375,4,0
9160,-5,5.25,1.9375,0
9180,-0.375,5.25,-0.125,0
9200,4,6.125,-0.0625,0
9220,4.625,6.375,0.1875,0
9240,-1.375,6.125,1.125,0
9260,-3.9375,7.25,0.125,0
9280,-3.0625,7.125,-1.625,0
9300,-0.375,4.8125,0.9375,0
9320,-0.6875,4.0625,2.6875,0
9340,-4.1875,5.625,2.1875,0
9360,-9.125,5.1875,3.1875,0
9380,-8.75,2.5625,4.25,0
9400,-10.375,0.5625,5.375,0
9420,-11.8125,-1.1875,6.1875,0
9440,-13.625,-3,5.5625,0
9450,-13.8125,-3,4.1875,0
9470,-12.125,-2,4.3125,0
9490,-10.5,0.125,5.0625,0
9510,-6.0625,0.625,4.5,0
9530,-2,0.3125,1.8125,0
9550,-0.75,0.625,0.6875,0
9570,1.3125,1.8125,0.4375,0
9590,2,2.25,-0.5,0
9610,3.5,2.1875,-1.125,0
9630,4.1875,2.0625,-2.4375,0
9650,4.875,2.1875,-3.125,0
9670,4,1.875,-2.0625,0
9690,3.5625,2.1875,-1.75,0
9710,1.8125,2.875,-1.125,0
9730,2,2.25,-0.6875,0
9750,1,1.375,-0.1875,0
9770,-0.5625,1.375,0.375,0
9790,-1.75,1.3125,1.1875,0
9810,-2.9375,0.0625,1.9375,0
9830,-5.3125,-0.6875,2.4375,0
9850,-7.1875,0.0625,2.125,0
9870,-6.8125,-0.125,2.5625,0
9890,-4.5,-0.75,3.25,0
9910,-2.25,-1.1875,2.5625,0
9930,-2.5,-1.25,1.875,0
9950,-3.5,-0.6875,1.25,0
9970,-2.875,0,1.25,0
9990,-1.25,0.3125,1,0
10010,0.4375,0,0.125,0
10030,0.3125,0.4375,0,0
10050,1,0.6875,-0.5625,0
10070,2.6875,1.4375,-0.5,0
10090,2.625,1.6875,-0.6875,0
10110,1.3125,1.5625,-1.0625,0
10130,1.25,1.0625,-1.5,0
10150,3.0625,0.3125,-1.375,0
10170,3.5625,0.25,-0.8125,0
10190,1.375,0.1875,-0.1875,0
10210,-0.5,-0.1875,-0.3125,0
10230,0.0625,-1.25,-0.4375,0
10250,1.5,-1.375,-0.3125,0
10270,-0.5625,-0.375,0.625,0
10290,-2.375,0.5,0.9375,0
10310,0.6875,0.25,-0.1875,0
10330,4.25,-0.375,0,0
10350,3,-1.1875,0.5625,0
10370,-0.125,-0.8125,0.625,0
10390,-2.5625,-0.875,-0.25,0
10410,-3.3125,-1.5625,-0.0625,0
10430,-3.125,-2.3125,0.625,0
10450,-5.1875,-2.25,1.375,0
10470,-4.625,-1.5,1.6875,0
10490,-2.3125,-1.5625,2.25,0
10510,-2.75,-4.5,5.3125,0
10530,2.3125,-17.1875,12.3125,0
10550,34.375,-21.875,13.8125,0
10570,62.9375,-22.625,6.8125,0
10590,83.75,-23.625,-7.375,0
10610,61.375,-39.1875,-23.5625,0
10630,35.5625,-62.75,-41.375,0
10650,13.4375,-86.3125,-53.125,0
10670,-2.75,-109.5,-83.0625,0
10690,19.5625,-134.688,-129.562,0
10710,48.125,-155.125,-160.062,0
10730,65.0625,-167.312,-176.25,0
10750,73.375,-172.812,-192.375,0
10770,54.5,-179.125,-200.125,0
10790,16.375,-179.75,-206.188,0
10810,-13,-176.625,-205.312,0
10830,-47.3125,-167.625,-200.75,0
10850,-62.1875,-162.688,-197.5,0
10860,-62.9375,-160.375,-179.812,0
10880,-72.8125,-152.625,-156.625,0
10900,-69.4375,-153.562,-141.875,0
10920,-64.5,-155.125,-119.188,0
10940,-58.125,-146.688,-91.8125,0
10960,-42.75,-132.812,-72.25,0
10980,-35.5625,-123.5,-61.375,0
11000,-41.1875,-110.688,-40.625,0
11020,-40.6875,-95.0625,-21.75,0
11040,-36.4375,-75.75,-8.875,0
11060,-36.75,-48.1875,0.9375,0
11080,-35.5625,-24.5625,10,0
11100,-29.1875,-7.5625,15.8125,0
11120,-25.25,1.8125,12.5,0
11140,-15.75,0.9375,8,0
11160,-10.9375,-3.0625,6.375,0
11180,-10.5625,-5,4.25,0
11200,-10.25,-3.625,2.5,0
11220,-7.9375,0.0625,1.6875,0
11240,-5.3125,3.0625,-0.5,0
11260,-4.8125,3.6875,-1.1875,0
11280,-4.0625,2.125,-2.6875,0
11300,0.625,-2.875,-7.9375,0
11320,2.75,-9.375,-10.3125,0
11340,-0.4375,-13,-8.4375,0
11350,-3.6875,-13,-8.9375,0
11380,-6,-9.5625,-9.125,0
11390,-6.9375,-5.5625,-11.25,0
11410,-7.6875,-4.5,-10.75,0
11430,-7.0625,-3.8125,-10.625,0
11450,-2.25,-5.4375,-7.875,0
11470,-0.8125,-4.5,-7.3125,0
11490,-4.3125,-1.4375,-8.5625,0
11510,-5.875,-0.4375,-9.125,0
11530,-4.4375,-0.625,-7.75,0
11550,-0.1875,-1.4375,-4.4375,0
11570,3.125,-0.75,-2.9375,0
11590,4.0625,-2.25,-1.75,0
11610,2.4375,-2,-2.5,0
11630,2.375,-2.125,-2.125,0
11650,4.75,-2.5625,-0.875,0
11670,6.3125,-2.6875,1.9375,0
11690,8.1875,-2,3.3125,0
11710,11.5625,-1.875,2.25,0
11730,10.75,-1.75,2.75,0
11750,9.125,-0.75,1.25,0
11770,7.6875,0.3125,0.3125,0
11790,9.9375,-1.75,-0.8125,0
11810,8.3125,-4,0.4375,0
11830,7.9375,-2.125,0.1875,0
11850,7.4375,1.3125,-1.25,0
11870,4.875,3.75,-0.25,0
11890,4.3125,4.8125,0.6875,0
11910,5.3125,6.0625,1.625,0
11930,5.0625,9.0625,4.0625,0
11950,5.25,11.625,4.0625,0
11970,1.5625,11.9375,2.1875,0
11990,-2.0625,10.25,-1.1875,0
12010,-4.875,8.5,-5.4375,0
12030,-6.125,6.5625,-8.1875,0
12050,-6.3125,4.6875,-7.0625,0
12070,-8,3.125,-8.3125,0
12090,-9.25,2.625,-9.5625,0
12110,-11.25,2.5625,-9.75,0
12130,-13.25,2.125,-10.1875,0
12150,-14.9375,2.5,-12.5,0
12170,-18.125,4.4375,-15,0
12190,-20.1875,7.125,-13.625,0
12210,-16.875,10.8125,-12.375,0
12230,-15.4375,14.6875,-9.25,0
12250,-15.5,18.1875,-5.375,0
12270,-16.0625,19.9375,-4.0625,0
12290,-14,18.25,-3.5625,0
12310,-9.5,15.1875,-5.1875,0
12330,-10.25,12,-9.25,0
12350,-9.0625,7.375,-11.4375,0
12370,-6.8125,3.125,-12.9375,0
12390,-8.375,-2.6875,-14.625,0
12410,-10.625,-6.8125,-17.25,0
12430,-9.125,-10.75,-15.375,0
12450,-6.8125,-15.125,-9.875,0
12470,-5.0625,-19.1875,-4.875,0
12490,-2.8125,-24.25,-0.5,0
12510,-0.75,-28.625,1.6875,0
12530,-0.9375,-29.6875,3,0
12550,-1.4375,-30.25,4.5,0
12570,-1.8125,-29.875,4.8125,0
12590,-1.6875,-25.75,4.75,0
12610,-2.125,-19,1.625,0
12630,-6.125,-10.5625,0.6875,0
12650,-5.3125,-5.8125,-1.75,0
12670,-5.375,-2.5,-4.0625,0
12690,-5.6875,0.9375,-4.9375,0
12710,-5.125,-1,-3.875,0
12730,-5.25,-0.625,-5.3125,0
12750,-8.4375,3.6875,-5.5625,0
12770,-12.0625,4.875,-4.4375,0
12790,-6.5,4.5,0.5,0
12810,-3.6875,2.8125,9.5,0
12830,-0.25,0.4375,21.8125,0
12850,0.75,-0.1875,26.5,0
12870,-2.6875,-2.4375,29.8125,0
12890,2.5,-7.6875,26.1875,0
12910,14.625,-9.3125,31.4375,0
12930,11.5,5.375,27.75,0
12950,-3,14.3125,29.6875,0
12970,-3.4375,10.375,31.4375,0
12990,8.0625,6.4375,19.6875,0
13010,14.6875,0.625,6.375,0
13030,9.0625,-3.75,8.6875,0
13050,11.875,-9.75,0.1875,0
13070,4.875,-12,-17.75,0
13090,10.0625,-12.3125,-28.6875,0
13110,4.3125,5.8125,-26.5,0
13130,8.5625,8.875,-20.875,0
13150,-1.4375,16.4375,-24.75,0
13170,-9.4375,14.9375,-12.1875,0
13190,-0.375,16.4375,-5.9375,0
13210,0.75,16.1875,-11.25,0
13230,-8.1875,17.875,4.5,0
13250,1.3125,14.3125,2.5,0
13270,-12.9375,16.625,-7.25,0
13290,-6.75,12.0625,-5.625,0
13310,4.4375,12.125,0.5625,0
13330,2.8125,15.9375,3.5,0
13350,-8.0625,13.0625,3.875,0
13370,-7.125,11.25,4.25,0
13390,-6.1875,9.625,-6.6875,0
13410,-6.625,6.9375,-13.8125,0
13430,-6.6875,4.25,-12.375,0
13450,-5.125,5.5625,-10.1875,0
13470,-2.4375,5.5625,-9.5,0
13490,-4.6875,7.4375,-6.6875,0
13510,-7.8125,3.3125,-3.375,0
13530,-3.1875,-0.0625,5.375,0
13550,3.5,0.375,3.375,0
13570,1.75,4.5625,0.3125,0
13590,2.625,6.875,5.75,0
13610,8.5,6,11.3125,0
13630,6.6875,11.8125,9.5,0
13660,4.5625,6.125,5.75,0
13680,14.625,-0.125,-2.0625,0
13700,11.1875,-2.8125,-6.375,0
13720,-1.5,-0.6875,-8.5,0
13740,-1.625,0.6875,-18.375,0
13760,-4,1.8125,-29.125,0
13780,-8.1875,4.875,-26.6875,0
13800,-7.0625,10.125,-16.875,0
13820,-10.625,17.9375,-4.0625,0
13840,-13.9375,16.125,-2.375,0
13860,1.25,9.5625,-9.875,0
13880,2.75,3.1875,-14.6875,0
13900,6,-2.25,-12.25,0
13920,12.4375,-7.1875,-1.4375,0
13940,18.5625,-12.9375,4.9375,0
13960,27.8125,-18.5,12.6875,0
13980,33.0625,-16,8.875,0
14000,45.0625,-20.25,17.625,0
14020,73.4375,-10.9375,19.375,0
14040,74.875,-0.375,15.625,0
14060,45.25,10.0625,8.3125,0
14090,36.375,31.25,28,0
14110,23.1875,56.125,5.5,0
14130,24.25,47.4375,20.3125,0
14150,28.4375,6.625,30.6875,0
14170,36.4375,-30.75,34.375,0
14190,18.75,-49,37.1875,0
14210,13.0625,-56,42.625,0
14230,19.3125,-42.25,47.1875,0
14250,-4.0625,-11.75,35,0
14270,-11.1875,-13.4375,-9.125,0
14290,-2.75,-14.375,-27.75,0
14310,-4.625,-20.5625,-20.1875,0
14330,5.9375,-21.0625,-1.0625,0
14350,6.125,-13,2.5625,0
14370,-11.625,-3.375,6.625,0
14390,-15,-7.4375,3.5625,0
14410,-8,-14.1875,-6,0
14430,3.5,-23.9375,-9.25,0
14450,0.4375,-25.5,-8.75,0
14470,-4.875,-22.1875,-8.5,0
14490,0.25,-20.5,-11.0625,0
14510,1.25,-15.4375,-17.4375,0
14530,-9.6875,-10.625,-9.375,0
14550,-17.3125,-3.6875,-11.8125,0
14570,-19.5625,-0.5625,-15.25,0
14590,-10.625,-5.25,-19.8125,0
14610,-5.5,-6.1875,-11.375,0
14630,-9.8125,11.5,-13.875,0
14650,-7.0625,11.3125,-16.1875,0
14670,2.0625,13.4375,-1.625,0
14690,7.25,26,-1.375,0
14710,3.6875,34.1875,11.1875,0
14730,13.375,21.1875,4.5625,0
14730,9.75,-0.75,10.375,0
14770,14.5,7.375,9.6875,0
14790,11.125,2.4375,11.25,0
14810,2.5625,-4.9375,9.75,0
14830,0.3125,-12.625,4,0
14850,-3.9375,-11.9375,0.25,0
14870,-7.3125,-1.1875,-1.25,0
14890,-10.625,13.125,0.3125,0
14910,-10.4375,19.5,0.75,0
14930,-6.1875,18.375,6.6875,0
14950,-9.3125,13.5625,9.0625,0
14970,-7.6875,4.5,7.125,0
14990,-11.1875,-3.3125,4.875,0
15010,-6.875,-8.8125,-0.3125,0
15030,-5.5,-8.0625,0.75,0
15050,-3.4375,-3.125,5.1875,0
15070,-0.3125,-2.4375,5.5625,0
15090,3.3125,-4,-4,0
15110,3.6875,-4.375,-9.5,0
15130,5.5,-2.625,-10.625,0
15150,6,1.6875,-14.9375,0
15170,6.8125,4.375,-13.5,0
15190,4.75,6.75,-6.4375,0
15210,-0.625,13.0625,3,0
15230,2.625,16.5625,14.3125,0
15250,10.625,26.0625,20.9375,0
15270,7.3125,42.375,21.875,0
15290,-2.0625,57.5,24.0625,0
15310,-6.875,63.125,27.5,0
15330,3.75,65.875,19.875,0
15350,-6.5625,60.75,4.4375,0
15370,-11.75,47.875,-10.9375,0
15390,-30.1875,45.9375,-19.375,0
15410,-28.5625,40,-31.75,0
15430,-26.4375,29.1875,-40.5,0
15450,-17.9375,20.5,-46.25,0
15470,-16.375,13.25,-41.75,0
15490,-18.3125,5.5,-33.625,0
15510,-25.5625,-1.9375,-14.5,0
15530,-18.3125,-11,8.75,0
15550,-12.1875,-10.375,15.5,0
15570,-13.6875,-14.5,13.0625,0
15590,-8.75,-10.1875,-0.4375,0
15610,-2.0625,-10.625,-16.5,0
15630,-2.625,-18.6875,-11.625,0
15650,9.125,-19.375,-6.6875,0
15670,13.9375,-9.9375,-5.5,0
15690,4.75,-0.25,-3.9375,0
15710,-5.5,4.625,-7.25,0
15730,-0.625,3.375,-4.0625,0
15750,6.5,-1.8125,0.9375,0
15770,14.6875,-5.25,1.125,0
15790,10.0625,-4.1875,-1.0625,0
15810,3.8125,2.125,-3.6875,0
15830,0.125,8.0625,-5.5,0
15850,-6.5625,12.875,1.125,0
15870,-6.6875,12.875,4.125,0
15890,2,10.6875,-1.1875,0
15910,-1.625,9.75,-5.375,0
15930,-5.8125,8.5,2.1875,0
15950,-7.5625,11.5625,1.375,0
15970,-14.6875,15.75,-5.5,0
15990,-14.75,14.75,-4.125,0
16010,-13.6875,16.375,-9.125,0
16030,-12.5625,15.5,-16.875,0
16050,-16.375,9.1875,-16.375,0
16070,-12.6875,0.9375,-16.4375,0
16090,-13.8125,-4.375,-15.75,0
16110,-18.4375,-6.9375,-15.375,0
16130,-18.5,-8.3125,-11.3125,0
16150,-15.4375,-6.4375,-9.1875,0
16170,-17.3125,-6.0625,-8.1875,0
16190,-20.5625,-6.1875,-4.1875,0
16210,-15.0625,-7.625,-3.75,0
16230,-11.4375,-10.25,-7.375,0
16250,-10.9375,-13.25,-11.5,0
16270,-13.875,-14.5,-10.4375,0
16290,-12.625,-11.5,-10.3125,0
16310,-7.75,-9.1875,-9.5,0
16330,-6.375,-6.3125,-5.3125,0
16350,-14.5,-4.25,-2.6875,0
16370,-8.5,-4.75,1.875,0
16390,-2.8125,-3.9375,3.4375,0
16410,-2.25,-0.1875,2.6875,0
16430,-2.25,2.5,5.4375,0
16450,-0.5625,1.6875,7.8125,0
16470,4.75,0.5625,11.5625,0
16490,0.875,3.375,10.0625,0
16510,-2.5,4.125,3.5,0
16530,-6.4375,1.875,1.375,0
16550,-6.375,2.3125,-1.1875,0
16570,-8.6875,2.3125,-7.5625,0
16590,-9.0625,5.8125,-13,0
16610,-6,7.625,-10,0
16630,-1.1875,6.5,-2.375,0
16650,4.375,4.625,8.125,0
16670,2.5625,5.875,7.5,0
16680,3.25,2.9375,8.125,0
16700,-6.4375,-1.25,6.6875,0
16720,0.875,-1.1875,2.875,0
16740,-1.5625,6.875,0.375,0
16760,-3.25,9.875,4.9375,0
16780,-0.6875,9.875,3.625,0
16800,-0.75,3.1875,7.125,0
16820,3.125,4,5.375,0
16840,0.4375,1.125,10.25,0
16860,2.125,-1.5625,6.5,0
16880,1.0625,-1.875,3.5625,0
16900,0,-2.375,-1.75,0
16920,-1.25,-3.3125,-9.4375,0
16940,-2.5,-2.625,-12.375,0
16960,-2.8125,-1.8125,-12.25,0
16980,-2.9375,-4.1875,-7.0625,0
17000,0.0625,-6.4375,-2.0625,0
17020,-1.4375,-7.1875,0.5625,0
17040,-4.4375,-7.625,-1.3125,0
17060,-5.3125,-8.8125,-2.1875,0
17080,-3.0625,-11.375,-2.5625,0
17100,-1.8125,-14.1875,-4.625,0
17120,-0.5625,-16.375,-6.75,0
17140,-3.375,-14.8125,-8.5625,0
17160,-2.5625,-13.25,-5.875,0
17180,3.9375,-9,-4.5625,0
17200,5.625,-6.625,1.0625,0
17220,6.6875,-5.8125,3.8125,0
17240,8.5,-5.5625,3.1875,0
17260,7.6875,-6.125,3.9375,0
17280,10.125,-5,3.875,0
17300,8.1875,-0.375,-0.8125,0
17320,6.25,0.875,-1,0
17340,7.5625,0.6875,-0.625,0
17360,7.875,0.5625,-2.1875,0
17380,6.375,2.5,-2.875,0
17400,6.1875,3.9375,-0.25,0
17420,8,7.625,3.625,0
17440,6.0625,10.3125,6.375,0
17460,5.125,10.5,8.625,0
17480,7.5625,10.25,8.5625,0
17500,8.5,12.75,8,0
17520,8.125,16.125,6.375,0
17540,9.375,19.9375,4.3125,0
17560,12.125,24.375,1.9375,0
17580,16,29.375,1.8125,0
17600,21.6875,34.125,6.0625,0
17620,21.1875,38.625,8.6875,0
17640,18.625,43.875,13.75,0
17660,20.25,49.75,21.5,0
17680,18.9375,50.3125,21,0
17700,17.0625,47.375,19.25,0
17720,13.625,41.625,19.375,0
17740,13.6875,38,18.4375,0
17760,14.125,34.8125,18.125,0
17780,13.125,31.6875,19.375,0
17800,13.125,28.875,19.5625,0
17820,13.6875,27.25,23.875,0
17840,16.75,28.5,33.25,0
17860,23.9375,34.125,42.3125,0
17880,24.6875,45.9375,46.6875,0
17900,18.6875,59,48.875,0
17920,17.625,72.125,59.25,0
17940,28.1875,81.3125,74.5,0
17960,45.0625,81.8125,89.875,0
17980,66.5625,84.75,107.312,0
18000,65.25,97.4375,119.25,0
18020,47.75,115.75,126.875,0
18040,40.75,122.75,136.062,0
18060,49,125.375,144.25,0
18080,33.8125,130.438,146.438,0
18100,6.25,133.25,141.125,0
18120,-14,124.938,130.25,0
18140,-27.0625,109.75,129.625,0
18160,-24.4375,98.25,123.062,0
18180,0.1875,82.0625,123.25,0
18200,-10.875,75.9375,136.938,0
18220,-36.625,76.625,118.562,0
18240,-28.9375,66.625,93.4375,0
18260,-15.75,40.625,106.188,0
18280,0.375,34.5625,118.312,0
18300,-12.4375,38,94.625,0
18320,-30.5625,35.8125,62.9375,0
18340,-31.5,23.6875,52.1875,0
18360,-5.4375,11.1875,36.0625,0
18380,32.75,-4.1875,16.625,0
18400,37.8125,-12.6875,6.6875,0
18420,16.0625,-17.9375,10.5,0
18440,-4.8125,-15.3125,7.75,0
18460,-10.25,-10,0.625,0
18480,-1.3125,-0.875,-4.4375,0
18500,13.125,3.5,-5.4375,0
18520,12.9375,3.0625,-1.0625,0
18540,1.875,-0.4375,-1.25,0
18560,-6.875,-2.25,-1.8125,0
18580,-3.75,-3.25,2.125,0
18600,-2.375,-2.375,3.6875,0
18620,-3.5,-1.875,3.5625,0
18640,-7.9375,-2.1875,3.0625,0
18660,-14.125,-3.25,1.25,0
18680,-9,-5.75,0.625,0
18700,-6.8125,-8.9375,-0.1875,0
18720,-4.1875,-9.5625,0.1875,0
18740,-3,-8.5625,1.625,0
18760,-0.1875,-8.25,3.375,0
18780,-0.125,-8.25,3.75,0
18800,4.8125,-11.5625,4.5625,0
18820,4.375,-11.75,3.75,0
18840,2.625,-10.4375,0.9375,0
18860,4.625,-11.25,-0.5,0
18880,6.875,-14.5,1.1875,0
18900,9.1875,-17,5.0625,0
18920,3.125,-16.25,8.875,0
18940,-4.4375,-13.25,11,0
18960,-4.75,-12.6875,13.4375,0
18980,-4.375,-12.5,16.25,0
19000,-3.25,-13.0625,12.5,0
19020,-5.8125,-8.9375,13.8125,0
19040,-1.1875,-0.75,17.25,0
19060,-1.25,8.875,19.8125,0
19080,-6.8125,21,23.875,0
19100,-8.4375,23.5625,20.0625,0
19120,-7.5625,17.9375,22.9375,0
19140,2.375,12.0625,24.75,0
19160,9.0625,11.125,19.125,0
19180,-1.6875,11.375,6.875,0
19200,-5.9375,7.75,-13.6875,0
19220,7.25,1.625,-19.5625,0
19240,17.3125,-4.375,-10.375,0
19260,14.5625,-4.4375,-3.3125,0
19280,-0.9375,0.375,-2.75,0
19300,-8.0625,5.3125,-3,0
19320,-1.5,6,-2.9375,0
19340,1.6875,5.1875,-1.75,0
19360,-0.5625,4.125,-0.4375,0
19380,-4.9375,2.6875,-0.9375,0
19400,-5.4375,1.875,-2.5625,0
19420,-3.0625,0.25,-3.625,0
19440,-1.625,-0.5,-3.6875,0
19460,-0.25,-0.875,-2.6875,0
19480,-1.5,-0.9375,-0.3125,0
19500,-2.9375,0.0625,1.125,0
19520,-2.9375,0.5625,1.25,0
19540,-1.4375,0.75,0.9375,0
19560,-0.1875,0.75,-0.375,0
19580,-0.1875,0.25,-0.5,0
19600,-0.0625,-0.375,1.0625,0
19620,0.625,-0.3125,2.125,0
19640,-0.5,0.5,3.625,0
19660,-2.1875,1.75,4.375,0
19680,-1.25,2.4375,3.875,0
19700,-0.4375,3.3125,4.875,0
19720,-0.5625,4.1875,5.625,0
19740,-2,4.1875,6.3125,0
19760,-3.75,4.0625,7.5,0
19780,-0.9375,3.9375,8.625,0
19800,-1.125,4.3125,8.0625,0
19820,-3,4.8125,6.875,0
19840,-2.6875,5.875,4.75,0
19860,-1.5,5.25,3.1875,0
19880,0.3125,4.6875,1.375,0
19900,0.4375,4.9375,-3.125,0
19920,2.0625,5.125,-6.6875,0
19940,10.25,6.8125,-13.4375,0
19960,20.625,10.5625,-19.9375,0
19980,26.3125,11.375,-20,0
20000,17.1875,8.3125,-17.75,0
20020,5.25,11.6875,-20.375,0
20040,7.1875,14.25,-29.875,0
20060,6.9375,6.625,-31.5,0
20080,9.625,1.6875,-32.75,0
20100,11.875,-0.375,-31.4375,0
20110,5.9375,-1.875,-35.125,0
20130,-1.625,-8.3125,-40.1875,0
20150,2.25,-17,-40.75,0
20170,9.125,-26.5625,-37.5625,0
20190,14.3125,-29.875,-35.4375,0
20210,13.5,-32.125,-32.0625,0
20230,4.4375,-35.1875,-29.1875,0
20250,-7.125,-39.0625,-21.9375,0
20270,-11.5625,-39.75,-12,0
20290,-12.375,-37.375,-4.75,0
20310,-6.8125,-35.4375,-1.125,0
20330,-3.625,-34.125,4.25,0
20350,2.25,-27.5625,9.8125,0
20370,3.4375,-14.75,7.1875,0
20390,-3.125,-6.75,4,0
20410,5.6875,-6.3125,6.75,0
20430,6.0625,-5.375,6.5625,0
20450,7.5625,-4.9375,7.9375,0
20470,6.125,-4.5,9.625,0
20490,12.375,-7.5,13.3125,0
20510,7.5625,-7.875,17.6875,0
20530,3.75,-7.9375,22.125,0
20550,-6.5625,-1.75,13.9375,0
20570,-6.9375,-2.8125,0.9375,0
20590,10.75,-7.4375,-2.375,0
20610,16.5,-8.125,0.875,0
20630,12.4375,-12.25,10.0625,0
20650,-3.25,-13.5,11.5,0
20670,-7.875,-11.75,13.625,0
20690,-0.25,-6.75,5.5625,0
20710,5.875,-5.25,1.5625,0
20730,8.1875,-6.4375,5.1875,0
20750,5.875,-4.5,0.1875,0
20770,4.625,-4.5,-0.75,0
20790,5.9375,-4.4375,4.875,0
20810,0.3125,-3.1875,3.5625,0
20830,-6.3125,-1.8125,0.875,0
20850,-7.125,-2,2.625,0
20870,-2.625,-0.4375,2.75,0
20890,-3.5,2.25,1.8125,0
20910,0,5.75,1.625,0
20930,-5.625,11.5,-0.25,0
20950,-7.25,15.25,0.5625,0
20970,-5.5,15.375,-0.6875,0
20990,-0.0625,16.75,3.75,0
21010,-1.375,18.6875,8.6875,0
21030,1.5,22.1875,15.3125,0
21050,-7.25,25.3125,18.6875,0
21070,-13.4375,27.1875,20.5625,0
21090,-9.4375,27.5,18.1875,0
21110,-0.5,25.875,13.5,0
21130,5,27.125,13.5625,0
21150,7.8125,29.1875,15.4375,0
21170,0.3125,29.75,14.875,0
21190,1.5,25.1875,19.4375,0
21210,8.5,20.375,18.875,0
21230,15.9375,16.125,16.625,0
21250,15.125,14.25,15.1875,0
21270,8.1875,13.8125,14.875,0
21290,-2.3125,16.8125,15.625,0
21310,-5.4375,18.125,15.5625,0
21330,-5.8125,19.0625,12.6875,0
21350,-10.5625,19.25,11,0
21370,-12.3125,17.8125,10.5,0
21390,-15.125,14.375,8.9375,0
21410,-15.8125,10.1875,7.1875,0
21430,-17.4375,6.5,3.5625,0
21450,-20.0625,4.0625,2.4375,0
21470,-22.0625,1.375,1.5,0
21490,-19.5,-2.25,-0.3125,0
21510,-20.6875,-5.375,-1.6875,0
21530,-21.1875,-7.75,-3.5,0
21550,-20.75,-9.875,-4.4375,0
21570,-13.9375,-12.25,-6.3125,0
21590,-7.0625,-15,-9,0
21610,-8.0625,-15,-7.25,0
21630,-11.625,-16.1875,-6.625,0
21650,-19.75,-17.5625,-7.875,0
21670,-31.625,-12.5625,-4.5,0
21690,-36.3125,-6.1875,-11.75,0
21710,-31.1875,-4.125,-20,0
21730,-37.5,-5.0625,-11.8125,0
21750,-42.4375,-4.875,-3.75,0
21770,-43.375,-0.5625,-10.1875,0
21790,-54.625,4.1875,-13.75,0
21810,-73.4375,4.5,-5.8125,0
21830,-70.875,1,-1.6875,0
21850,-93,-4.5625,10.125,0
21870,-121.438,-4.9375,32.125,0
21890,-129.938,2.125,54.8125,0
21910,-155.625,0.6875,54.625,0
21930,-179.938,0.625,61.4375,0
21950,-154.75,6.75,66.625,0
21970,-133.812,9.9375,53.5,0
21990,-114.5,9.625,37.625,0
22010,-85.875,11.375,19.9375,0
22030,-70.8125,7.875,11.9375,0
22050,-49.375,7.125,14.875,0
22060,-9.9375,8.375,9.375,0
22070,30.375,10.1875,-15.4375,0
22090,43.375,12.375,-32.375,0
22110,47.4375,10.3125,-32.625,0
22130,45.25,8,-25.125,0
22150,41.5,6.6875,-19.375,0
22160,41.9375,0,-19,0
22180,49.1875,-6,-15.1875,0
22200,60.125,-8.75,-14.5,0
22220,63.1875,-12.0625,-24.25,0
22240,58.3125,-12.4375,-22.8125,0
22260,61.3125,-12.1875,-13.875,0
22280,66.3125,-13,-16.3125,0
22300,48.8125,-14.1875,-14.5,0
22320,27.8125,-14.8125,-11.875,0
22340,31.5,-15.125,-7.9375,0
22360,34.5,-18.375,-6,0
22380,32.1875,-18.1875,-4.125,0
22400,27.625,-19.125,-3.875,0
22420,17.1875,-23.0625,-1,0
22440,12.8125,-23.8125,3.75,0
22460,16.9375,-20.75,5.8125,0
22480,20.625,-18.9375,9.5625,0
22500,12.1875,-18.6875,13,0
22520,10.4375,-13.6875,13.3125,0
22540,21.875,-6.0625,11.75,0
22560,29.4375,0.9375,14.125,0
22580,28.4375,10,23.1875,0
22600,34.3125,19.25,39.5625,0
22620,11.875,33.625,33,0
22640,-50.875,42.8125,-1.5625,0
22660,-33.3125,23.875,-21.25,0
22680,25.4375,3.3125,-13.625,0
22700,42.625,-0.625,-2.3125,0
22720,29.75,-0.4375,0.125,0
22740,-5.5,4.6875,3.375,0
22760,-31.6875,9.5625,5.9375,0
22780,-33.375,10.375,6.9375,0
22800,-18.4375,6.8125,7.0625,0
22810,-5.5625,3,7.0625,0
22830,-6,2,6.25,0
22850,-8.3125,2,3.8125,0
22870,-6.5625,0.75,0.875,0
22890,-0.0625,0.5,0.1875,0
22910,6.875,1.125,0.3125,0
22930,9.75,1.9375,-0.3125,0
22950,7.75,2.3125,-1.6875,0
22970,7.3125,2.3125,-3.0625,0
22990,8.3125,1.3125,-3.9375,0
23010,7.8125,-0.125,-3,0
23030,5.6875,-0.5625,-1.625,0
23050,4.8125,-0.75,-1.625,0
23070,3.625,-1.125,-2.125,0
23090,3.5,-1.75,-2.25,0
23110,2.75,-1.875,-1.6875,0
23130,1.4375,-1.1875,-0.625,0
23150,-0.4375,-1,-0.4375,0
23170,-0.8125,-1.125,-0.6875,0
23190,0.0625,-1.0625,-0.6875,0
23210,1.375,-0.5625,-1.0625,0
23230,2.375,0,-0.875,0
23250,2.25,-0.125,-0.75,0
23270,2,-0.125,-0.75,0
23290,0.9375,-0.1875,-0.5,0
23310,1.375,-0.25,-0.1875,0
23330,0.9375,-0.4375,0,0
23350,-0.1875,-0.125,0.4375,0
23370,0.6875,-0.0625,0.125,0
23390,-0.3125,0.0625,0.8125,0
23410,-2.375,0.625,1.3125,0
23430,-3,1.0625,1.375,0
23450,-2,0.625,1.625,0
23470,-0.5625,0.4375,1.25,0
23490,-0.375,0.375,1.125,0
23510,-2.5,0.9375,1.125,0
23530,-3.125,1.125,1.5625,0
23550,-2.1875,0.8125,1.5625,0
23570,-0.625,0.0625,1.125,0
23590,-0.125,-0.1875,0.75,0
23610,0.0625,-0.125,0.8125,0
23630,-0.3125,0.0625,1,0
23650,-1,0,1,0
23670,-0.9375,-0.3125,0.6875,0
23690,-1.3125,-0.125,1.125,0
23710,-0.3125,0.5,1.125,0
23730,0.1875,0.1875,1,0
23750,0.625,-0.0625,0.8125,0
23770,0,0.3125,0.875,0
23790,-0.875,0.375,1.0625,0
23810,-1.5,0,0.875,0
23830,-1.25,-0.25,0.5,0
23850,-0.6875,0,0.875,0
23870,-0.9375,0.25,1,0
23890,-1.25,0.375,1.125,0
23910,-0.6875,0.3125,1,0
23930,0.875,-0.125,0.4375,0
23950,-0.0625,-0.1875,0.25,0
23970,-2.5,0.5625,0.6875,0
23990,-3.4375,0.625,0.625,0
24010,-4.25,0.1875,1.0625,0
24030,-4.5625,0.25,1.625,0
24050,-6.8125,0.6875,2.1875,0
24070,-7.4375,1,2.25,0
24090,-5.8125,0.4375,1.3125,0
24110,-3.25,0,0.8125,0
24130,-1.75,-0.1875,1.125,0
24150,-2.1875,0,0.9375,0
24170,-1.6875,0,0.125,0
24190,0.6875,-0.0625,-0.8125,0
24210,4.375,0.0625,-1.9375,0
24230,7.125,0.25,-2.625,0
24250,8.0625,0.375,-3.0625,0
24270,7.25,0.25,-2.1875,0
24290,4.4375,0.4375,-1.1875,0
24310,2.875,0.5,-0.875,0
24330,2.1875,0.3125,-1.25,0
24350,2.125,0.25,-1.375,0
24370,0.5625,0.0625,-1.1875,0
24390,-1.375,0.25,-0.875,0
24410,-0.875,0.375,-0.9375,0
24430,0.9375,0,-1.1875,0
24450,1.4375,0.1875,-1.125,0
24470,1.6875,0.8125,-1.1875,0
24490,2.8125,0.6875,-1.4375,0
24510,3.875,-0.0625,-1.375,0
24530,2.875,0.125,-0.9375,0
24550,0.5625,0.6875,-0.8125,0
24570,-0.5,0.6875,-1.0625,0
24590,-0.4375,0.1875,-0.625,0
24610,-0.4375,0,-0.125,0
24630,-1.5,0.3125,0.1875,0
24650,-2.4375,0.5,0.4375,0
24670,-2,0.3125,0.75,0
24690,-0.25,-0.25,0.75,0
24710,-0.9375,-0.125,0.375,0
24730,-1.5,0.5,0.375,0
24750,-1.25,0.25,0.125,0
24770,-1,0,0.125,0
24790,-0.1875,0.3125,0.5,0
24810,-0.3125,0.625,0.1875,0
24830,-0.4375,0.4375,0.1875,0
24850,-0.3125,0.3125,0.1875,0
24870,-0.25,0.5625,0,0
24890,-0.375,0.3125,0.0625,0
24910,-0.5,0.1875,0,0
24930,0.1875,0.0625,-0.3125,0
24950,0.25,0.375,-0.3125,0
24970,0.4375,0.25,-0.125,0
24990,1.0625,-0.0625,-0.3125,0
25010,1.4375,0.125,-0.1875,0
25030,1.6875,0.0625,-0.5,0
25050,0.3125,0.125,-0.5,0
25070,-0.875,0.1875,-0.1875,0
25090,-1.125,0.25,0,0
25110,0,0.0625,-0.1875,0
25130,0.1875,0.0625,-0.25,0
25150,-0.5625,0.25,-0.1875,0
25170,-0.25,0.4375,-0.0625,0
25190,0.5625,-0.0625,-0.125,0
25210,1.375,-0.1875,-0.1875,0
25230,0.625,0,-0.3125,0
25250,-1.3125,0.25,-0.75,0
25270,-1.5625,0.375,-0.5,0
25290,0.8125,-0.125,-0.75,0
25310,2.1875,-0.1875,-0.5,0
25330,2,0.1875,-0.125,0
25350,1.25,-0.0625,-0.375,0
25370,-0.5,-0.1875,-0.125,0
25390,-0.9375,0.1875,0.3125,0
25410,-0.375,0.1875,-0.5,0
25430,0.125,0,-0.4375,0
25450,0.3125,0.0625,-0.0625,0
25470,0,0.25,0.25,0
25480,-0.375,0.375,0.3125,0
25500,-0.5,0.25,0.3125,0
25520,-0.625,-0.1875,0.875,0
25540,-1,-0.1875,0.5625,0
25560,-0.75,0.25,0.25,0
25580,-0.0625,0.25,0.0625,0
25600,0.625,0,-0.25,0
25620,0.8125,-0.125,-0.1875,0
25640,0.4375,0.1875,0.0625,0
25660,0,0.4375,-0.125,0
25680,0.6875,0.4375,-0.1875,0
25700,1.25,0,-0.125,0
25720,0.4375,-0.0625,-0.125,0
25740,-0.75,0.1875,0.25,0
25760,-0.6875,0.25,0.0625,0
25780,-0.1875,0,0.4375,0
25800,0.625,-0.1875,0.25,0
25820,-0.1875,-0.125,0.3125,0
25840,-0.5625,0.125,0.5625,0
25860,-0.375,-0.1875,0.3125,0
25880,-0.1875,-0.375,0.375,0
25900,-0.25,-0.125,0.5,0
25920,-0.3125,0.375,0.4375,0
25940,-0.375,0.0625,0.5625,0
25960,-0.25,0.125,0.4375,0
25980,-0.125,0.25,0.4375,0
26000,0.0625,0.4375,0.4375,0
26020,-0.125,0.1875,0.3125,0
26040,-0.375,0.25,0.3125,0
26060,-0.6875,0.375,0.4375,0
26080,-0.8125,0.3125,-0.0625,0
26100,-1.6875,0.6875,0,0
26120,-1.1875,1.3125,0.5625,0
26140,-6.1875,-0.5,2.3125,0
26160,2,-12.375,7,0
26180,50.125,-17.3125,-4.375,0
26200,82,-25.9375,-19.6875,0
26220,71.6875,-26.9375,-41.8125,0
26240,48,-46.0625,-61.5625,0
26260,41.0625,-70.25,-85.25,0
26280,62.9375,-101.562,-118.375,0
26300,100.062,-127,-160.125,0
26320,93.5,-139.688,-190.438,0
26340,62.9375,-161.5,-215.875,0
26360,35.1875,-183.875,-235.812,0
26380,10.375,-194.5,-251.25,0
26400,-40.8125,-199.75,-271.188,0
26420,-85.75,-202.812,-269.188,0
26440,-121.75,-193.562,-249.938,0
26460,-108,-212.938,-236.062,0
26480,-85.6875,-211.312,-214.188,0
26500,-77.375,-193.625,-174.875,0
26520,-88.4375,-169.625,-134,0
26540,-81.75,-143.25,-105.875,0
26580,-70.625,-56.9375,-25.875,0
26600,-67.75,-25.0625,-17.875,0
26620,-60.375,-6.8125,-12.5625,0
26640,-56.875,4.8125,-6.0625,0
26660,-48.125,12.75,-0.625,0
26680,-41.375,16.0625,-1.375,0
26700,-35.875,13.875,-7.9375,0
26720,-28,8.9375,-14.9375,0
26740,-19.125,0.625,-15.0625,0
26760,-12.9375,-4.375,-11.5,0
26780,-14.4375,-6.75,-10.4375,0
26800,-14,-5.3125,-16.375,0
26820,-10.25,-4.5,-16.375,0
26840,-9.25,-6.9375,-6.9375,0
26860,-1.8125,-9.625,-1.75,0
26880,0.4375,-12.375,-1.75,0
26900,-3.5625,-12.8125,0.0625,0
26920,-7.6875,-12.0625,-1,0
26940,-6,-9.6875,-3.6875,0
26960,-8.9375,-7.25,-8.0625,0
26980,-12.5,-5.8125,-10.6875,0
27000,-5.6875,-4.5625,-12.1875,0
27020,-7.3125,-1.1875,-10.5,0
27040,-8.25,1.5625,2.25,0
27060,16.4375,0,9.9375,0
27080,17.0625,-1.0625,1.5625,0
27100,-3.9375,-5.8125,6.6875,0
27120,-8,-9.625,4.875,0
27140,-3.875,-7.4375,-3.75,0
27160,-5.1875,-3.75,-3.8125,0
27180,-3.4375,-2.25,-3.125,0
27200,5.25,-5.625,0.9375,0
27220,9.625,-8.4375,5.1875,0
27240,6.5,-5.625,7.625,0
27260,2.25,-0.9375,4.75,0
27280,-2.125,4.25,1.5625,0
27300,-2.3125,7.4375,2.0625,0
27320,0.1875,7.875,2.75,0
27340,0.6875,4.875,3.3125,0
27360,3.3125,0.75,6.0625,0
27380,3.625,2.9375,1.9375,0
27400,-0.125,7.625,-9.4375,0
27420,-5.9375,12.375,-10.625,0
27430,-2.8125,10.375,-4,0
27450,6.75,7.5,1.1875,0
27470,9.4375,7.8125,3.4375,0
27490,3.875,9.5625,4.125,0
27510,0.3125,10.8125,8.75,0
27530,3.4375,5.625,15.625,0
27550,8.875,0,11.375,0
27570,6.75,-5.4375,1.875,0
27590,2.5,-7.9375,-5.375,0
27610,2.125,-10.4375,-8.375,0
27630,0.5625,-10.6875,-10,0
27650,-1.0625,-8.625,-7.25,0
27670,-0.0625,-3.8125,-5.9375,0
27690,-1.875,0.75,-5.5625,0
27710,-4,5.25,-0.6875,0
27730,-2.875,9.5625,3.4375,0
27750,2.9375,11.6875,7.625,0
27770,1.5,15.1875,6.3125,0
27790,-1.125,20.6875,4.3125,0
27810,1.125,24.75,4.5,0
27830,7.25,26.4375,8.5625,0
27850,7.75,27.625,9.5625,0
27870,12.3125,30.5625,9.9375,0
27890,15.75,36.125,10.875,0
27910,15.5625,41,12.875,0
27930,14.25,45.4375,12.875,0
27950,20.5625,51.0625,14.125,0
27970,34.4375,57.9375,19.125,0
27990,40.5,60.5625,26.3125,0
28010,37.5625,62.8125,35.875,0
28030,40.5625,68.9375,45.375,0
28050,46.625,79.875,61,0
28070,41.4375,84.25,74.0625,0
28090,48.3125,90.25,82.9375,0
28110,61.5,100.5,99.375,0
28130,54.6875,111.438,118.875,0
28150,45.1875,123.312,125.562,0
28170,42.8125,127.625,122,0
28190,53.6875,131.312,135.688,0
28210,44.875,135,147.75,0
28230,44.4375,123.062,114.812,0
28250,36.3125,89.75,81.3125,0
28270,41.5625,41.125,72.25,0
28290,42.625,4.5625,41.5625,0
28310,32.3125,-11.75,4,0
28330,11.0625,-29.8125,-22.3125,0
28350,-16.25,-45.8125,-47.1875,0
28370,-33.1875,-60.5,-63.875,0
28390,-23.6875,-80.0625,-75.875,0
28410,-26.125,-95.25,-86.1875,0
28430,-45.5,-104.188,-98.4375,0
28450,-56.375,-111.75,-102.688,0
28470,-62.125,-118.688,-105.25,0
28490,-66.6875,-123.25,-108,0
28510,-64.625,-124.938,-105.188,0
28530,-60.75,-122.312,-96.9375,0
28540,-56.5625,-116.812,-89.9375,0
28560,-49.625,-112.875,-83.25,0
28580,-43.9375,-103.625,-78.4375,0
28600,-44.875,-94.625,-69.25,0
28620,-36.6875,-84.5625,-60.0625,0
28640,-29.0625,-74.875,-50.375,0
28660,-29.625,-61.375,-45.625,0
28680,-31.875,-48.6875,-37.875,0
28700,-25.375,-39.0625,-27.4375,0
28720,-21.4375,-27.75,-18.8125,0
28740,-15.75,-19.6875,-11.3125,0
28760,-9.75,-10.75,-7.375,0
28780,-11.75,-4.4375,-1.9375,0
28800,-7.8125,-3.875,8,0
28820,2.125,-5.125,11.5,0
28840,6.125,-5.6875,9.125,0
28860,-0.625,-2.875,5.5,0
28880,-3.5,0.25,2.875,0
28900,-1.1875,-1.4375,0.5,0
28920,0.0625,-1.75,-1.5625,0
28940,1.3125,-1.75,-0.875,0
28960,1.125,-0.3125,1.5,0
28980,1.125,-0.375,3,0
29000,3.5,-0.875,4.1875,0
29020,5.3125,0.125,5.0625,0
29040,3.75,-0.5,4.375,0
29060,9.1875,-4.9375,2.75,0
29080,9.6875,-6.3125,1.3125,0
29100,8.125,-4.9375,2.625,0
29120,7.8125,-5.875,1.875,0
29140,5.3125,-6.6875,0.75,0
29160,5,-5.5625,-0.625,0
29180,5.1875,-4.5,-3,0
29200,2.375,-2.25,-7.625,0
29230,1.6875,-4.4375,-6.3125,0
29250,-2.0625,-3.375,-5.6875,0
29270,-3.125,-1.4375,-6.25,0
29290,-4.625,-0.75,-6.9375,0
29310,-5.125,-0.5,-7.5,0
29330,-5.9375,1.6875,-7.625,0
29350,-7.0625,4.75,-6.5,0
29370,-6.6875,7.5,-5.375,0
29390,-5.75,12.8125,-5.0625,0
29410,-3.25,18.5625,-6.0625,0
29430,-1.5,25.6875,-5.4375,0
29440,-4.9375,32.6875,-4.8125,0
29470,18.125,70.8125,19.4375,0
29490,12.9375,82.4375,27.3125,0
29510,11.9375,94.875,33.0625,0
29520,8,101.875,36.75,0
29540,8.75,103.188,38,0
29560,22.5625,105.625,45.3125,0
29580,33.625,108.75,52,0
29600,26.4375,107.812,53.25,0
29620,17.5625,105.75,53.0625,0
29640,25.3125,103.75,59.0625,0
29660,40.0625,105.25,58.25,0
29680,41.125,107.812,55.125,0
29700,24.75,101.562,53.625,0
29720,20.375,94.4375,50.625,0
29740,32.0625,87.875,45.625,0
29760,44.6875,84.4375,42.375,0
29780,42.9375,78.0625,46.25,0
29800,39.375,67.4375,40.5625,0
29820,43.1875,64.125,31,0
29840,41.9375,66.125,27.1875,0
29860,50.1875,65.375,17.5,0
29880,58.625,50.5,11.0625,0
29900,68.625,40.375,7.5,0
29920,68.75,48.8125,13.0625,0
29940,55.1875,45.125,21.5625,0
29960,20.625,48.3125,29.3125,0
29980,-30.0625,44.125,35.0625,0
30000,-36,30.75,29.5,0
30020,-9.0625,18.1875,26.9375,0
30040,24.625,13.75,30.4375,0
30060,24.4375,13.4375,31.6875,0
30080,0.4375,14.5,25.9375,0
30100,-12.75,16,21.375,0
30120,-16.375,16.3125,22.9375,0
30140,-22.75,13,29.25,0
30160,-19.125,8.125,36.25,0
30180,-16.375,11.75,41.25,0
30200,-20.3125,20.1875,38.9375,0
30220,-47.875,31.75,35.1875,0
30240,-95.625,46.3125,30.25,0
30260,-140.062,61.1875,31.25,0
30280,-140.938,51.8125,32.75,0
30300,-60.5,13.1875,36.9375,0
30320,65.625,-10.4375,37.75,0
30340,107.5,-8.6875,19.5625,0
30360,69.125,8.5,2.8125,0
30380,-0.1875,21.625,-8.6875,0
30400,-40.5625,19.4375,-6.3125,0
30420,-26.1875,9.3125,-2.375,0
30440,9.125,-2.25,1.625,0
30460,29.125,-7.4375,4.25,0
30480,21.625,-7.875,3.75,0
30500,-2.4375,-3.875,1.875,0
30520,-15.1875,-0.875,-0.9375,0
30540,-11.5625,-2,0.1875,0
30560,-1.3125,-2.0625,3,0
30580,0.1875,0.0625,1.8125,0
30600,-1.625,-0.375,-0.375,0
30620,-3,-2.8125,0.25,0
30640,-0.125,-4.9375,0.375,0
30660,1.625,-4.0625,-2.1875,0
30680,-2.1875,-3.3125,-3.9375,0
30700,-2.6875,-4.75,-4.5,0
30710,-4.5,-4.875,-3.75,0
30730,-4.3125,-6.5625,-2.25,0
30750,-6.6875,-7.125,-0.1875,0
30770,-9.1875,-6.6875,-0.625,0
30790,-8.25,-7.4375,-1.4375,0
30810,-5.625,-8.25,-0.75,0
30830,-4.0625,-8.25,-1.0625,0
30850,-5.75,-7.375,-1,0
30870,-5.5,-5.875,-1.25,0
30890,-4.9375,-6.125,-1.1875,0
30910,-5.4375,-6.9375,-0.3125,0
30930,-2.6875,-6.75,1.25,0
30950,-1,-5.875,1.5,0
30970,-3.5,-4.4375,0.5625,0
30990,-4.25,-4.125,-1.375,0
31010,-3.875,-3,-0.5625,0
31030,-0.875,-2.8125,-0.6875,0
31050,0.3125,-1.4375,-0.125,0
31070,1.625,-0.0625,-0.75,0
31090,1.25,1.3125,-0.4375,0
31110,0.875,2.5625,1,0
31130,2,5.0625,3.75,0
31150,2.3125,7.125,5.9375,0
31170,4.3125,9.5625,7.0625,0
31190,8.5,9.8125,7.5,0
31210,6.125,12.5625,8.625,0
31230,8.0625,14,10.4375,0
31250,3.75,12.5625,9.625,0
31270,7.1875,9.9375,5,0
31290,12.875,6.25,-8.375,0
31310,18.5625,1.9375,-18.125,0
31330,24.1875,-1.3125,-16.4375,0
31350,33.875,-2.5,-15.625,0
31370,31.875,0.875,-19.9375,0
31390,31,-0.1875,-20.5625,0
31410,32.3125,-1.4375,-19.1875,0
31430,30.6875,-0.875,-18.625,0
31450,22.0625,1.75,-17.0625,0
31470,15.875,4.5625,-13,0
31490,8.625,0.8125,-6.25,0
31510,4.3125,0.9375,-5.3125,0
31530,-2.875,3.4375,-6,0
31550,-5.125,2.3125,-4.0625,0
31570,-6,0.4375,-0.6875,0
31590,-4.6875,-0.125,0.1875,0
31610,-2.4375,0.125,0.875,0
31630,0.0625,0.5,0.0625,0
31650,1.375,0.75,0.875,0
31670,1.875,1.625,1,0
31690,4.9375,1.25,-0.5,0
31710,4.25,3.4375,-1.0625,0
31730,3.5,4.3125,-1.4375,0
31750,3.3125,4.5,0.125,0
31770,3.0625,6.375,0.4375,0
31790,2.5,7.375,-0.4375,0
31810,2.875,6.1875,1.0625,0
31830,1.375,6.6875,2.5,0
31850,0.4375,5.8125,1.625,0
31870,-0.75,4.125,0.3125,0
31890,-0.9375,2.3125,0.3125,0
31910,-1.0625,0.9375,-1.375,0
31930,-0.9375,-1.8125,-2,0
31950,0,-3,-2.0625,0
31970,0.5625,-3.625,-3.75,0
31990,-0.0625,-4.4375,-4.5625,0
32010,-1.125,-4.125,-3.875,0
32030,-2.5625,-3.5625,-2.75,0
32050,-2.8125,-3.5,-1.6875,0
32070,-2,-2.8125,-1.25,0
32090,-2.1875,-1.625,-1,0
32110,-2,-1.5,-0.25,0
32130,-0.6875,-0.8125,0.5625,0
32150,0.1875,-0.375,0.6875,0
32170,0,0.5,1.3125,0
32190,-0.375,0.75,2.1875,0
32210,0.625,0.125,2.9375,0
32230,1.375,0,5.1875,0
32250,1.1875,-1.0625,8,0
32270,0,-2.6875,12.9375,0
32290,1.1875,-4.6875,19,0
32310,2.3125,-5.0625,23.4375,0
32330,1.0625,-3.125,23.1875,0
32350,0.0625,-3.25,23.875,0
32370,0.625,-5,27.9375,0
32390,1.875,-5.875,25.625,0
32410,2.8125,-2.875,21.9375,0
32430,3.875,-0.5625,19.1875,0
32450,2.8125,-2.3125,17.6875,0
32470,4.6875,-6.625,17.875,0
32490,4.625,-7.625,15.9375,0
32510,2.125,-7,16.375,0
32530,5,-8.3125,17.875,0
32550,5.6875,-10.25,19.5,0
32570,5.3125,-10.8125,17.3125,0
32590,5.9375,-9.25,16.4375,0
32610,4.125,-7.75,17.8125,0
32630,1.1875,-8.0625,15.5,0
32650,-0.4375,-7.875,13.6875,0
32670,1.375,-9.3125,14.625,0
32690,5,-10.25,15.3125,0
32700,4.4375,-11.1875,14.1875,0
32720,2.9375,-11.9375,12,0
32740,1.5625,-13.25,11.625,0
32760,1.9375,-16.3125,12.1875,0
32780,-0.375,-18.8125,11.75,0
32800,2.625,-20.6875,9.6875,0
32820,5,-24.6875,7.25,0
32840,7.625,-27.25,4.4375,0
32860,2.9375,-30.375,2.875,0
32880,1.0625,-35.3125,3.375,0
32900,0.5625,-39.5625,5.9375,0
32920,2.1875,-44.0625,9.25,0
32950,0.875,-57.9375,22.5625,0
32960,-3.5625,-62.1875,25.75,0
32980,-9.3125,-68,33.4375,0
33000,-3.9375,-75.25,37.0625,0
33020,2.625,-77,38.1875,0
33040,7.375,-77.0625,36.6875,0
33060,7.4375,-79.625,29.5625,0
33080,7.0625,-76.125,21.1875,0
33100,-9.4375,-67.75,16.6875,0
33120,-8.0625,-66.5625,11.6875,0
33140,-0.875,-70.8125,4.25,0
33160,6.25,-65.625,1.125,0
33180,7.4375,-56.1875,-4.3125,0
33200,7.6875,-50.125,-12.8125,0
33220,6.6875,-45.75,-16.8125,0
33240,7.625,-39.8125,-16.125,0
33260,15,-33.9375,-17.0625,0
33280,12.4375,-24.75,-27.375,0
33300,4.25,-18.9375,-27.875,0
33320,-1.125,-15.5,-17.375,0
33340,-4.5,-8.8125,-10.6875,0
33360,0.5625,-4.875,-5.625,0
33380,-8.875,1.8125,0.375,0
33400,-11,4.5625,5.3125,0
33420,0.75,2.5625,4.8125,0
33440,13.6875,2.875,7.0625,0
33460,17.0625,8.1875,9.75,0
33480,15.6875,14.875,7.5625,0
33500,12.5,12.5625,-1.3125,0
33520,9.9375,12.75,-5.5,0
33540,9.625,9.75,-1,0
33560,23.0625,7.3125,5.3125,0
33580,20.4375,12,-1.25,0
33600,16.1875,17.8125,10.125,0
33620,15.5,8.6875,16.625,0
33640,19.8125,4.0625,5,0
33660,17.375,1.5625,0.1875,0
33680,29.5625,-4.0625,-4,0
33700,38.4375,-4.5625,-1.25,0
33720,46.875,-3.6875,1.125,0
33740,45.8125,0.5,8.9375,0
33760,29.375,-2.0625,18.875,0
33780,12.0625,3,19.9375,0
33800,9.5,2.75,14.75,0
33820,18.5625,-4.625,11.9375,0
33840,35.1875,-7.875,8,0
33860,31.9375,-24.125,9.4375,0
33880,33.125,-38.125,18.0625,0
33900,44.0625,-26.75,16.5625,0
33920,45.375,-13.375,0.625,0
33940,46.6875,-8.3125,-0.8125,0
33960,39.375,-10.1875,9.375,0
33980,29.1875,-9.625,9.1875,0
34000,28.5625,-5.75,10.3125,0
34020,21.125,-1.75,10.25,0
34040,10.75,-3.3125,1.0625,0
34060,15,4.625,-8.4375,0
34080,12.1875,7.1875,-7,0
34100,3.75,8.4375,-4.375,0
34120,-13.1875,9.0625,-8.5625,0
34140,-21.0625,14.3125,-15.9375,0
34160,-25.875,17.75,-21.8125,0
34180,-35.6875,14.6875,-18.1875,0
34200,-35.5,17.625,-19.25,0
34220,-42,17.125,-19.3125,0
34240,-37.9375,11.5625,-19.4375,0
34260,-29.25,5.9375,-20.75,0
34280,-23.875,11.5625,-24.8125,0
34300,-22.0625,14.5,-34.6875,0
34320,-19.5625,10.1875,-43.5,0
34340,-10.125,14.9375,-41.4375,0
34360,-20.8125,21.25,-42.25,0
34380,-34,25.9375,-40.25,0
34400,-44.4375,38.6875,-36.9375,0
34420,-44.625,33.875,-35.3125,0
34440,-20.5625,23.875,-39.625,0
34460,-13.625,28.1875,-27.9375,0
34480,-23.4375,37.5625,-19.75,0
34500,-29,43.75,-16.875,0
34520,-31.6875,45.4375,-12.375,0
34540,-28.875,45.6875,-8.8125,0
34560,-25.1875,47.0625,0.6875,0
34580,-39.9375,49.625,4.5625,0
34600,-42.9375,54.5625,1.25,0
34620,-53.4375,59.1875,4.875,0
34640,-38.875,63,7.5,0
34660,-28.75,69.5625,-1.6875,0
34680,-25.9375,68.6875,-9.375,0
34700,-53.5625,69.3125,-6.6875,0
34720,-56.75,60.875,15.3125,0
34740,-32.1875,50.375,12.6875,0
34760,-31.875,51.25,5.125,0
34780,-22.9375,44.125,7.0625,0
34800,-18.75,33,-8.375,0
34820,6.125,23.75,-19.8125,0
34840,13.5,19.0625,-22.9375,0
34860,6.75,21.125,-17.125,0
34890,1.0625,5.25,-12.375,0
34920,26.1875,-3.25,-7.375,0
34940,25.0625,-6.25,-8.625,0
34960,15.4375,-4.375,-5.5625,0
34980,3.4375,-4.0625,-2.8125,0
35000,-5.3125,-3.5625,-1.6875,0
35020,1.9375,-5.25,-7.25,0
35040,8.5,-5.5625,-6.875,0
35060,15.875,-9.25,-5.5625,0
35080,16.0625,-5.125,-7.875,0
35100,13.0625,-6.125,-4.375,0
35120,2.75,-5.5,-6.125,0
35140,-13.8125,-2.4375,-5,0
35160,-20.1875,-7.9375,7.875,0
35180,-18.875,-8.1875,11.5625,0
35200,-16.75,-11.0625,16.5625,0
35220,-27.9375,-16.5,18.8125,0
35240,-54.0625,-18.0625,16.6875,0
35260,-59.0625,-24.8125,18.9375,0
35280,-49.875,-30.125,13.5,0
35300,-38.375,-31.5625,9.375,0
35320,-40.875,-29.5625,8.5,0
35340,-69,-19.6875,4,0
35360,-68.0625,-14.3125,14.1875,0
35380,-61.375,-12.375,23.4375,0
35400,-58,0.8125,29.9375,0
35420,-71.1875,14.5,35.875,0
35440,-52.5,26.875,25.8125,0
35460,-42.875,25.3125,4.3125,0
35480,-21.5,15.625,8.8125,0
35500,-13.9375,7.875,15.0625,0
35520,9,-1.9375,13.0625,0
35540,5.1875,-3.125,7.25,0
35560,-7.625,-4.1875,0.4375,0
35580,-7.3125,1.8125,-2.875,0
35600,8.4375,3.4375,-6.6875,0
35620,27.875,2.1875,-9,0
35640,31.9375,0,-6.8125,0
35660,24,4.4375,-2.8125,0
35680,-2.875,7.3125,-6.25,0
35700,2.8125,2.75,-3.625,0
35720,26.125,-2.3125,-0.875,0
35740,30.5625,-4.0625,-7.1875,0
35760,24.3125,-5.6875,-10,0
35780,15.875,-5.5625,-5.5,0
35800,-1.5625,-0.8125,-3.125,0
35820,-10.5625,6.1875,-1.6875,0
35840,-2.8125,6.5625,-0.25,0
35860,8.9375,1.9375,-0.9375,0
35880,10.6875,3.625,-3.625,0
35890,3.1875,9.75,-6.75,0
35910,-1.125,9.3125,-4.5625,0
35930,-1.375,4.8125,1.875,0
35950,-1.75,2.1875,5.875,0
35970,-8,4.6875,5.875,0
35990,-9.9375,4.5625,4.4375,0
36010,-0.1875,0.5,3.4375,0
36030,5.875,0.625,0.25,0
36050,3.1875,3.4375,-1.375,0
36070,0,4.375,-2.375,0
36090,1.1875,2.75,-2.5625,0
36110,5.3125,-0.5,-0.6875,0
36130,3.3125,1,-2.125,0
36150,1.1875,0.9375,-1.875,0
36170,2.375,1.5,0.1875,0
36190,3.6875,1.5625,1.3125,0
36210,0.4375,2.0625,2.9375,0
36230,0.875,1.3125,2.75,0
36250,2.125,0.75,2.25,0
36270,1.5625,0.3125,3.3125,0
36290,2.6875,-0.875,4.4375,0
36310,0.375,-1.4375,2.6875,0
36330,1.0625,-0.8125,0.5625,0
36350,2.0625,-1.125,-1.3125,0
36370,1.9375,-1.5,-2.4375,0
36390,2.75,-1.125,-0.875,0
36410,2.125,-0.0625,-4.4375,0
36430,0.5625,1,-7.25,0
36450,1.25,0.0625,-5.1875,0
36470,0.75,1.1875,-3.5,0
36490,2.0625,2.6875,-0.5625,0
36510,0.875,2.25,3.8125,0
36530,-3.75,2.9375,4.4375,0
36550,-7.125,4.25,5.1875,0
36570,-1.6875,3.9375,4,0
36590,6.3125,4.125,2,0
36610,2.375,4.25,0.8125,0
36630,-0.375,3.3125,1,0
36650,3.375,2.5,-0.25,0
36670,4.625,1,-0.875,0
36690,0.8125,0,-1.625,0
36710,-0.8125,-0.1875,-1.6875,0
36730,-0.1875,-0.9375,-1.3125,0
36750,0.875,-1.1875,-0.75,0
36770,-1.5625,1.0625,-2.4375,0
36790,-2.0625,1.125,-2.625,0
36810,-0.75,0.5625,-0.0625,0
36830,-2.0625,1.5625,-0.375,0
36850,-0.9375,1.875,0.4375,0
36870,-1.0625,0.375,1.1875,0
36890,0.875,0,1.375,0
36910,2.625,-1.375,-1.625,0
36930,6.1875,-5,-2.6875,0
36950,5,-7.125,-4.1875,0
36970,6.375,-6.875,-6.5,0
36990,5.1875,-9.6875,-8.6875,0
37010,5.4375,-14,-7.1875,0
37030,7.75,-16.5,-6.6875,0
37050,6.25,-14.5625,-8.1875,0
37070,3.4375,-13.5,-9.0625,0
37090,5.0625,-14.5,-9.75,0
37110,4.375,-15.625,-8.8125,0
37130,2.125,-15.4375,-5.625,0
37150,2.125,-14.5,-5.125,0
37170,1.1875,-14.375,-4.125,0
37190,0.5,-12.75,-2.6875,0
37210,1,-11.1875,-3.5625,0
37230,0.3125,-9.6875,-3.4375,0
37250,-0.1875,-8.125,-3.3125,0
37270,-2.875,-5.0625,-3.1875,0
37290,-3.4375,-3.25,-1.8125,0
37310,-3,-1.9375,-0.1875,0
37330,-3.9375,2.1875,3.125,0
37350,-3.75,7.3125,3.6875,0
37370,0.4375,10.5,5.125,0
37390,-0.8125,8.75,4.125,0
37410,-0.3125,8.1875,2.1875,0
37430,0.25,7.8125,2,0
37450,-1.875,10.125,-0.5625,0
37470,-0.4375,11.25,-2,0
37490,-3.375,12.5,-1.0625,0
37510,-7.5,12.6875,3.6875,0
37530,-8.25,14.1875,8.4375,0
37550,-7.25,15.375,10.8125,0
37570,-9,15.4375,5.75,0
37590,-15.875,14.1875,1.75,0
37610,-12.0625,12.1875,1.625,0
37630,-9.9375,9.6875,-0.375,0
37650,-8.5,8.25,4.3125,0
37670,-8.5625,7.9375,7.875,0
37690,-15.875,7.9375,2.5,0
37710,-22.0625,7.375,1.4375,0
37730,-13.25,5.9375,5.5625,0
37750,-0.5625,3.1875,3.5,0
37770,1.875,2.9375,3.4375,0
37780,-5.0625,2.25,3.25,0
37830,-5.9375,0.3125,0.25,0
37850,2.375,-2.5625,-1.0625,0
37860,4.375,-4.1875,-1.375,0
37880,-1.4375,-4.625,-1.8125,0
37900,-2.75,-6.0625,-1.4375,0
37920,-0.9375,-6.125,-1.75,0
37940,2.375,-3.75,-0.25,0
37960,4.125,-0.9375,5.6875,0
37980,2.625,2.5,7.875,0
38000,-1.3125,4,10,0
38020,-6.25,1.3125,10.5,0
38040,-6.75,-0.1875,5.375,0
38060,-2.25,-0.875,3.0625,0
38080,0.4375,0.25,-0.125,0
38100,0.875,0.5625,-0.4375,0
38120,0.8125,1.125,0.4375,0
38140,0.5625,1.1875,-0.4375,0
38160,0.5625,1.125,-0.1875,0
38180,-0.375,0.5,0.8125,0
38200,-0.625,0.8125,-0.8125,0
38220,-0.4375,0.3125,-1.125,0
38240,0.375,-0.5,-1.5,0
38260,-0.625,0.125,-0.875,0
38280,-2.125,1.875,-0.5,0
38300,-5.1875,3.9375,1,0
38320,-1.9375,5.875,3.375,0
38340,2.125,6.3125,8.25,0
38360,4.8125,7.0625,9.25,0
38380,3.3125,8.1875,7.75,0
38400,-1.25,6.1875,5.375,0
38420,1.875,4.0625,4.8125,0
38440,5,2.6875,2.8125,0
38460,6.5625,2.8125,2.5,0
38480,5.4375,2.9375,0.5625,0
38500,4.375,1.8125,-1.125,0
38520,3.8125,-0.125,-0.9375,0
38540,2.8125,-1.375,0.25,0
38560,2.25,-1.375,-0.5,0
38580,-0.1875,-1.8125,-2.1875,0
38600,-0.875,-2.75,-2.1875,0
38620,0.4375,-2.4375,-2.875,0
38640,-0.1875,-2.1875,-3.125,0
38660,1.6875,-1.75,-1.5,0
38680,1.0625,-1.1875,-1.5,0
38700,-1.8125,-1.125,-1.125,0
38720,-1,-0.5,-1.625,0
38740,0.625,-0.0625,-2.125,0
38760,1.25,0.625,-1.5,0
38780,0.6875,0.625,-1,0
38800,-0.25,0.5,1.125,0
38820,-0.0625,0.6875,1.3125,2000
38840,0.875,1.0625,-0.1875,0
38860,2.1875,1.25,0,0
38880,2.4375,2.5625,-1.4375,0
38900,4.8125,1.3125,1.0625,0
38920,3.375,0.875,1.1875,0
38940,2.375,0.4375,-1.25,0
38960,-0.0625,0.1875,-1.0625,0
38980,1.75,-0.25,-1.5625,0
39000,3.25,-0.375,-2.8125,0
39020,3.5,-1.375,-1.375,0
39040,3.3125,-1.875,-0.375,0
39060,1.125,-1.4375,-1.5625,0
39080,0.875,-0.75,-3.25,0
39100,1.9375,-1.9375,-3.25,0
39120,2.6875,-2.75,-2.375,0
39140,2,-2.1875,-1.4375,0
39160,-0.3125,-1.3125,-0.875,0
39180,-1.5,-2.1875,-2.125,0
39200,-0.625,-2.9375,-1.4375,0
39220,1.5625,-2.9375,0.375,0
39240,0.8125,-2.875,-0.25,0
39260,0.3125,-4,-2.4375,0
39280,2.1875,-6,-2.125,0
39300,5.375,-6.5625,-1.5625,0
39320,4,-8.1875,-2.5625,0
39340,3.1875,-9.5625,-2.875,0
39360,3.6875,-9.3125,-3.9375,0
39380,5.25,-9.3125,-5.375,0
39400,5.3125,-9.5625,-5.5625,0
39420,4.125,-10.9375,-6,0
39440,5.625,-11.25,-6.4375,0
39460,5.3125,-11.0625,-5.875,0
39480,4.5,-11.9375,-5.9375,0
39500,4,-12.8125,-4.875,0
39520,5.5,-13.8125,-3.0625,0
39540,3.25,-13.375,-2.4375,0
39560,2.6875,-12.4375,-4.375,0
39580,1.3125,-12.6875,-4.625,0
39600,5.25,-12.125,-2.5625,0
39620,8.3125,-11.6875,-4.125,0
39640,6.0625,-9.8125,-4.125,0
39660,-0.125,-9.125,-4.5625,0
39680,2.375,-9.1875,-3.125,0
39700,5.4375,-9.5,-3.875,0
39720,7.75,-9.3125,-4.9375,0
39740,5.4375,-9.4375,-5.125,0
39760,4.0625,-9.625,-4,0
39780,4.8125,-8.5,-4.25,0
39800,4.75,-8.875,-5.75,0
39820,4.125,-9.3125,-8.8125,0
39840,5.375,-9.3125,-8.8125,0
39860,5.3125,-8.6875,-9.75,0
39880,5.5,-7.3125,-9.3125,0
39900,4.625,-6.5,-10.25,0
39920,6.625,-4.875,-11.125,0
39940,6.75,-4.75,-11.25,0
39960,4.625,-5.8125,-9.9375,0
39980,2.5625,-6.6875,-9.1875,0
40000,1.25,-5.125,-9.6875,0
40010,3.75,-5.5625,-11,0
40030,4.375,-6.4375,-13.3125,0
40050,2.8125,-6.0625,-14.625,0
40080,-0.75,-2.0625,-13.8125,0
40110,-1.6875,-4.0625,-12.75,0
40160,-8.5625,-6.5,-11.25,0
40180,-6.25,-3.125,-11.4375,0
40200,-8.25,-2.4375,-14.3125,0
40220,-12.1875,-3.3125,-14.9375,0
40240,-9.9375,-4,-17,0
40250,-8.8125,-4.8125,-16.9375,0
40270,-8,-5.25,-17.875,0
40290,-8.0625,-4.5,-21.4375,0
40310,-9.25,-4.75,-21.125,0
40320,-3.9375,-3.1875,-20.875,0
40330,-5.5625,-0.4375,-22.75,0
40350,-10.9375,1.375,-22,0
40370,-10.375,2.0625,-21.0625,0
40390,-8.3125,3.0625,-20.9375,0
40410,-8.8125,4.9375,-20.375,0
40430,-10.5,8.0625,-19.8125,0
40450,-14.625,10.375,-19.6875,0
40470,-15.8125,12.75,-18.5,0
40490,-17.8125,14.6875,-16.4375,0
40510,-16.6875,17.125,-15.3125,0
40520,-16.875,20.375,-16.25,0
40540,-17.5,24.0625,-17.75,0
40560,-21.625,25.75,-17.9375,0
40570,-22.875,28.125,-19.625,0
40590,-21.125,29.75,-21.9375,0
40610,-23.8125,31.8125,-23.75,0
40630,-26.8125,32.25,-26.0625,0
40660,-22.5625,30.375,-25.8125,0
40710,-25.9375,34,-21.5,0
40730,-25.1875,34.3125,-20.9375,0
40740,-24.25,33.625,-20.625,0
40760,-23.6875,33.0625,-21.375,0
40780,-25.625,32.375,-22.6875,0
40800,-24.375,30.5625,-21.625,0
40820,-23.4375,30.5625,-19.5625,0
40840,-25.375,31.25,-17.625,0
40860,-24.9375,32.1875,-16.875,0
40880,-23.4375,33.0625,-15.5625,0
40900,-23.625,32.1875,-13.6875,0
40920,-24.4375,30.125,-11.0625,0
40940,-23.5625,30.5,-9.5625,0
40960,-23.75,30.5625,-7.8125,0
40980,-22.25,30.5,-6.3125,0
41000,-20.3125,28.6875,-5.8125,0
41020,-19.5,26.5625,-2.375,0
41030,-18.6875,24.6875,-0.4375,0
41050,-14.875,21.9375,1.8125,0
41070,-10.5625,19.3125,0.9375,0
41090,-8.6875,16.75,1.125,0
41110,-10.5625,16.8125,0.6875,0
41130,-15.625,15.625,2.9375,0
41150,-14,15.3125,4.0625,0
41170,-13.3125,13.5625,2.625,0
41190,-15.1875,11.125,1.8125,0
41210,-14.25,11.625,-0.1875,0
41230,-9.625,11.8125,-1.0625,0
41250,-3.4375,9.5625,1.125,0
41270,-4.125,5.125,3,0
41290,-6.5,2.75,3.875,0
41310,-4.375,0.75,3.625,0
41330,-0.75,-2.375,4.75,0
41350,0.375,-6.5625,7.75,0
41370,-1.8125,-7.3125,13.6875,0
41390,-3.75,-8.125,14.3125,0
41410,0.1875,-9,12.0625,0
41430,2.1875,-10.25,11.6875,0
41450,2.5,-11.875,8.5625,0
41470,2.375,-14,8.75,0
41490,4.75,-15.0625,12.125,0
41510,8.5,-14.6875,13,0
41530,5.625,-14.875,13.8125,0
41550,4.4375,-13.875,13.4375,0
41570,5.5,-13.1875,11.625,0
41590,11.9375,-11.125,12.625,0
41610,9.0625,-13.5,15.75,0
41630,4.1875,-14.3125,21.875,0
41650,4,-12.8125,20.125,0
41670,1.625,-11.5625,13.625,0
41690,5.0625,-12.8125,10.8125,0
41710,7.25,-15.375,11.3125,0
41730,8.9375,-16.875,12,0
41750,8.4375,-16.6875,11.0625,0
41770,8.875,-18.5625,8.625,0
41790,10,-18.875,7.5,0
41810,13.25,-19.5625,7.25,0
41830,10.625,-19.9375,6.625,0
41850,10,-18.1875,9.25,0
41870,11.5,-18.3125,9.875,0
41890,12.5625,-18.75,9.8125,0
41910,12.1875,-17.4375,11.5,0
41930,13.875,-17.3125,11.5,0
41950,14.25,-19.75,11.9375,0
41970,17.125,-18.875,14.75,0
41990,18.1875,-18.6875,13.6875,0
42010,13.6875,-21.3125,13.0625,0
42030,11.125,-20.9375,13.8125,0
42050,14,-20,13.625,0
42070,13.9375,-21.8125,13.0625,0
42090,12.75,-24.9375,13.6875,0
42110,12.9375,-23,14.5,0
42130,12.875,-22.8125,12.25,0
42150,9.875,-24.8125,9.625,0
42170,9.5,-24.5625,11.75,0
42190,12.6875,-25.125,12.375,0
42210,11.0625,-26.1875,9.875,0
42230,8.75,-26.25,10.1875,0
42250,11.5625,-25.875,11.625,0
42270,11.3125,-25.4375,12.0625,0
42290,6.8125,-26.6875,11.3125,0
42310,5.875,-26.0625,11.6875,0
42330,10.0625,-25.1875,11.3125,0
42350,10.1875,-25.75,11.0625,0
42370,8.5625,-23.75,9.375,0
42390,9.5,-22.0625,7.875,0
42410,11.875,-22.3125,8.1875,0
42430,10.75,-23.125,7.5,0
42450,8.5625,-22.3125,7.5625,0
42470,8.375,-21.9375,10.25,0
42490,9.3125,-22.625,11.1875,0
42510,9.0625,-22.625,10.9375,0
42530,9.8125,-21.625,11.125,0
42550,8.4375,-23.5,11.375,0
42570,6.3125,-24.9375,13.8125,0
42590,6.25,-24.75,13.75,0
42610,7.3125,-25.25,12.25,0
42630,7,-27.875,12.5,0
42650,3.4375,-28.875,12.375,0
42670,4.1875,-29.1875,11.125,0
42690,5.5,-30.75,10.1875,0
42710,5.625,-31.0625,10.25,0
42730,5,-30.4375,9.375,0
42750,3.875,-31.3125,6.625,0
42770,4.0625,-31.6875,5.625,0
42790,1.875,-30.625,5,0
42810,3.6875,-29,4.3125,0
42830,6.8125,-28.125,3.3125,0
42850,4.25,-27.875,2.25,0
42870,1.3125,-26.3125,1.125,0
42890,2.0625,-25.1875,-0.3125,0
42910,6,-25.625,-0.75,0
42930,7.1875,-25.5,-4.875,0
42950,5.5625,-23.5625,-7.1875,0
42970,5.5,-21.9375,-8.4375,0
42990,10.8125,-21.125,-9.875,0
43000,8.0625,-20.4375,-9.75,0
43020,7.5625,-18.4375,-11.125,0
43040,7.75,-17.3125,-12.0625,0
43060,4.625,-16.5,-13.5625,0
43080,2.375,-15.1875,-11.5625,0
43100,1.4375,-12.4375,-11.4375,0
43120,4.8125,-8.8125,-13,0
43140,3.8125,-9.8125,-16.375,0
43160,-0.5,-8.3125,-17,0
43180,-1,-5.4375,-15.0625,0
43200,1.375,-3.375,-19.625,0
43220,-0.625,-3.5,-23.4375,0
43240,-2.8125,-1.75,-23.6875,0
43260,-0.6875,2.8125,-22.75,0
43280,-0.0625,4.75,-20.75,0
43300,-3.125,4.5625,-20.5,0
43320,-5.6875,3.4375,-20.625,0
43340,-12.125,9.5625,-21.125,0
43360,-12.625,16.5,-17.125,0
43380,-9.9375,19.75,-17.1875,0
43400,-11.1875,19.5,-19.4375,0
43420,-13.8125,20.125,-22,0
43440,-15.8125,22.125,-23.1875,0
43460,-17.4375,20.6875,-24.8125,0
43480,-18.4375,20,-27.5625,0
43500,-18.125,21.125,-29.0625,0
43520,-20.0625,22.1875,-29.875,0
43540,-21.5625,22.4375,-30.8125,0
43560,-25.4375,19.625,-33.1875,0
43580,-24,18.1875,-35,0
43600,-21.875,18.0625,-35,0
43620,-23.5,18,-34.625,0
43640,-25,18.8125,-35.75,0
43660,-24.5,19.625,-36.125,0
43680,-23.6875,19.125,-35.875,0
43700,-23,19.8125,-35.3125,0
43720,-23.625,20.375,-32.8125,0
43740,-23.625,21.1875,-30.5625,0
43760,-25.125,23.0625,-30.0625,0
43780,-22.5625,25.125,-28.0625,0
43800,-20.25,25.3125,-27.5,0
43820,-19.3125,25.5625,-29.1875,0
43840,-21.6875,25.375,-28.9375,0
43860,-20.0625,24.5625,-26.25,0
43880,-17.0625,24.3125,-25.4375,0
43900,-13.75,24.3125,-26.25,0
43920,-15.0625,24.1875,-25.5625,0
43950,-16.5625,26.0625,-22.875,0
43970,-13.875,25.5,-21.75,0
43990,-11.8125,24.9375,-22.3125,0
44010,-13.375,25.0625,-24.1875,0
44030,-16.375,23.9375,-23.8125,0
44050,-14,22.4375,-23.1875,0
44070,-11.375,20.8125,-22.625,0
44090,-10.4375,19.4375,-21.125,0
44110,-13.4375,20.5,-19.6875,0
44130,-13.125,22,-18,0
44150,-9,20.3125,-15.1875,0
44170,-4.9375,20.9375,-13.25,0
44190,-5.5,23.75,-15.25,0
44210,-8.75,24,-13.9375,0
44230,-8,24.5625,-11.3125,0
44250,-10.9375,25.1875,-8.5625,0
44270,-14.0625,22.5,-5.6875,0
44290,-13.5,21.125,-8.5625,0
44310,-12.75,19.8125,-12.1875,0
44330,-9.4375,16.4375,-13.375,0
44350,-8.5625,14.5,-11.625,0
44370,-11.4375,15,-8.25,0
44390,-11.125,13.375,-5,0
44410,-7.1875,11.625,-4.125,0
44430,-4.75,9.25,-2.1875,0
44450,-6.875,6.6875,4.5625,0
44470,-10.4375,6.6875,9.9375,0
44490,-9.875,5.1875,10.3125,0
44510,-7.5,4,9.0625,0
44530,-2.75,3.0625,9.125,0
44550,-1.5,2.1875,13.5625,0
44570,-1.9375,1.5625,17.875,0
44590,-2.3125,1.25,16.9375,0
44610,-2.75,1,13.3125,0
44630,-0.125,1,11.875,0
44650,1.6875,-1,11.9375,0
44670,3.75,-4.0625,15,0
44690,3.4375,-3.75,19.5,0
44710,1.25,-3.6875,19.9375,0
44730,1.8125,-3.375,18.5,0
44750,5.375,-2.6875,19.375,0
44770,5.9375,-2.5625,21.4375,0
44790,5,-1.875,26.1875,0
44810,3.4375,1.5,28.125,0
44830,0.6875,0.9375,25.375,0
44850,4,-1.1875,27.875,0
44870,2.1875,-2.0625,33.5,0
44890,-3,-0.625,31.1875,0
44910,-5.8125,-1.75,26.125,0
44930,-1.9375,-1.375,24,0
44950,3.125,-1.3125,23.5625,0
44970,6.5625,-2.6875,21.25,0
44990,6.375,-1.125,20.25,0
45010,3.6875,0.0625,16.5625,0
45030,2.75,-0.8125,13.875,0
45050,1.5,-1.6875,17.625,0
45070,-2.3125,-1.9375,18.8125,0
45090,-1.125,-1.9375,15,0
45110,3.125,-0.25,12,0
45130,5.125,0.75,11.5625,0
45150,4.75,-1.5625,14.3125,0
45170,3.1875,-3.375,15.5625,0
45190,2.375,-1.8125,13.875,0
45210,2.375,-0.5625,10.125,0
45230,3.5625,-2.3125,10.3125,0
45250,5.5625,-4.8125,14.5,0
45270,4.125,-5.625,14.5625,0
45290,1.125,-5.3125,13.6875,0
45310,3.3125,-3.5625,13.75,0
45330,6.125,-3.375,13.8125,0
45350,8.5,-3.375,14.4375,0
45370,8.25,-2.6875,15.5625,0
45390,5.9375,-4.1875,15.5,0
45410,1.875,-4.125,17.5625,0
45430,2,-4.6875,18.9375,0
45450,2.625,-6.9375,16.875,0
45470,0.8125,-9.375,17.625,0
45490,3.5,-10,17.8125,0
45510,4.75,-10.875,16.5625,0
45530,0.5,-13.5625,15.75,0
45550,-3.0625,-13.625,17.3125,0
45570,-0.1875,-15.5,15.4375,0
45590,1.875,-18.25,12.1875,0
45610,5.1875,-18.5625,13.75,0
45630,5.4375,-21.875,12.5,0
45650,2.75,-24.3125,13.0625,0
45670,0.125,-25.125,13.8125,0
45690,0.6875,-24.9375,13.5625,0
45710,5.4375,-26.625,12.9375,0
45730,1.9375,-29.375,11.8125,0
45750,0.9375,-29.875,13.9375,0
45770,2.3125,-30.1875,15.5,0
45790,1.5,-32.125,13.75,0
45810,-3.8125,-32.5625,13.1875,0
45830,-1.5625,-30.5625,13.875,0
45850,4.0625,-31.75,12.1875,0
45870,3.3125,-34.0625,9.8125,0
45890,0.6875,-31.9375,10.375,0
45910,1.5,-29.875,10.5625,0
45930,5.1875,-30.4375,7.875,0
45950,2.75,-30.125,8.5625,0
45970,0.4375,-27.0625,8.875,0
45990,-0.5,-27.9375,6.3125,0
46010,-4.5625,-28.375,7.5625,0
46030,-2.25,-26.8125,8.375,0
46050,-0.5625,-26.3125,5.875,0
46070,-0.0625,-27.5625,5.625,0
46090,-2.25,-25.9375,6.5,0
46110,-0.5625,-24.875,5,0
46130,-1.25,-26.5,1.75,0
46150,-3.125,-26.5,0.125,0
46170,-2.0625,-25.1875,-1.8125,0
46190,1.0625,-26.125,-3.75,0
46210,2.0625,-26.25,-6.625,0
46230,2.875,-26.3125,-9.4375,0
46250,3.625,-25.3125,-10.25,0
46270,5.25,-25.9375,-13.1875,0
46290,3.4375,-26.25,-16,0
46310,5.25,-26.5,-17.375,0
46330,4.5,-27.625,-18.4375,0
46350,2.0625,-27.0625,-17.5625,0
46370,3.3125,-26.8125,-17.5625,0
46390,4.75,-27.1875,-17.25,0
46410,4.5625,-28.0625,-18.625,0
46420,1.875,-26.6875,-20.5,0
46440,0.8125,-25.5625,-20.6875,0
46460,3.3125,-25.5,-20.25,0
46480,4.3125,-27.5625,-22.125,0
46500,7.625,-26.4375,-24.1875,0
46520,4.5625,-24.875,-26.8125,0
46540,1.75,-22.9375,-28.125,0
46560,2.9375,-23.8125,-30.3125,0
46580,4.375,-23.875,-30.8125,0
46600,6.625,-21.125,-31.625,0
46620,10.875,-18.9375,-36.4375,0
46640,7.875,-19.3125,-41.875,0
46660,3.375,-16.75,-42.5625,0
46680,-1.625,-14.1875,-41.6875,0
46700,-3.8125,-12.5625,-42.6875,0
46720,-3.625,-9.6875,-44.125,0
46740,-2.5,-4.625,-44.375,0
46760,-2.75,-2.4375,-44.375,0
46780,-9.5,-0.75,-40.75,0
46800,-13.75,2.5,-35.125,0
46820,-14.6875,3,-35.3125,0
46840,-12.625,4.625,-36.875,0
46860,-12.5625,8.375,-38.25,0
46880,-13.5,11.125,-39.625,0
46900,-11,13.0625,-37.5625,0
46920,-11.9375,14.1875,-33.125,0
46940,-14.75,16.125,-30.4375,0
46960,-18.875,19.6875,-29.25,0
46980,-20.0625,21.5,-30.25,0
47000,-19.25,22.125,-28.8125,0
47020,-15.9375,23.375,-26.8125,0
47040,-15.5,24.25,-26,0
47060,-19.9375,24.9375,-27.75,0
47080,-26.5625,26.8125,-28.5,0
47100,-24.625,29,-26.4375,0
47120,-19.6875,28.75,-25.875,0
47140,-20.625,29.3125,-26.625,0
47160,-22.75,31.1875,-25.625,0
47180,-25,32.25,-25.0625,0
47200,-21.875,30.9375,-23.625,0
47220,-21.3125,30.5625,-21.9375,0
47240,-20.1875,32.25,-22.5,0
47260,-25.0625,33.1875,-22.8125,0
47280,-27.125,34.8125,-21.625,0
47300,-24.25,33.625,-21.1875,0
47320,-18.625,32.4375,-21.1875,0
47340,-16.25,32.75,-18.5625,0
47360,-19.9375,32.5,-18.6875,0
47380,-20.25,32.125,-17.8125,0
47400,-19.3125,30.8125,-14.0625,0
47420,-16.25,29.375,-9.875,0
47440,-15.1875,28,-7.6875,0
47460,-14.5,27.3125,-7.3125,0
47480,-16.625,25.3125,-6.875,0
47500,-18.125,23.5,-2.0625,0
47520,-14.4375,22.8125,2.9375,0
47540,-13.1875,22.25,3.4375,0
47560,-12.9375,22.1875,2.625,0
47580,-12.4375,21.25,3.9375,0
47600,-11.625,20.1875,6.25,0
47620,-9.625,21.8125,7.3125,0
47640,-12.5625,22.625,6.25,0
47660,-7.6875,22.625,6.4375,0
47680,-2.75,21.3125,7.25,0
47700,0.3125,21.75,11.125,0
47720,-1.5,19.9375,11.6875,0
47740,-4.875,19.3125,11.625,0
47760,-7.5625,19.125,15,0
47780,-4.6875,16.375,20.1875,0
47800,-1.8125,11.625,25.5625,0
47820,-1.9375,10.25,25.625,0
47840,-6.8125,11.8125,24.5625,0
47860,-9.1875,12.375,26.75,0
47880,-7.375,7.875,30.25,0
47900,-2.125,3.25,35.875,0
47920,-3.5625,2.75,38,0
47940,-8.4375,5.125,38.3125,0
47960,-10.8125,4.9375,37.75,0
47980,-9,4.0625,37.375,0
48000,-6.5,3.8125,37.75,0
48020,-6.625,3.1875,36.875,0
48040,-9.125,3.5,34.6875,0
48060,-12.3125,6.1875,33.75,0
48080,-9.5625,7.5,31.0625,0
48100,-9.9375,5.125,30.875,0
48120,-15.0625,5,32.5,0
48140,-16.625,5.9375,33.375,0
48160,-12.9375,5.5,28.6875,0
48180,-13.875,4.8125,27.3125,0
48200,-18.75,4.1875,26.8125,0
48220,-19.0625,2.1875,26,0
48240,-13.75,0.5625,26.5,0
48260,-5.0625,1.0625,22.0625,0
48280,-1.9375,0.5,17.6875,0
48300,-7.1875,-2.3125,18.625,0
48320,-10.75,-2.5625,20.3125,0
48340,-7.375,-3.5625,18.375,0
48360,-0.5625,-4.4375,16.8125,0
48370,-0.375,-6.5,15,0
48390,0.8125,-7.4375,13.875,0
48410,2.125,-8.3125,15.0625,0
48430,2.125,-10,13.625,0
48450,0.625,-11,11.8125,0
48470,3.125,-11.75,12.4375,0
48490,7.6875,-12.375,13.0625,0
48510,6.375,-13.3125,12.3125,0
48530,3.875,-12.4375,13.0625,0
48550,7.625,-13.1875,13,0
48570,7.8125,-15.75,12.8125,0
48590,2.1875,-15.6875,14,0
48610,-3.375,-14.6875,16.75,0
48630,-5.5625,-16.4375,17.5,0
48650,-8.1875,-21.6875,19.125,0
48670,-13.125,-21.6875,23.8125,0
48690,-13.5625,-20.625,25,0
48710,-13,-22.1875,21.375,0
48730,-12.625,-25.5625,18.4375,0
48750,-16,-24.5625,17.9375,0
48770,-13.8125,-25.125,14.0625,0
48790,-11.75,-28.5,10.0625,0
48810,-13.75,-29.25,11.5625,0
48830,-16.8125,-28.5,11.5625,0
48850,-15.625,-28.125,10.1875,0
48870,-10.625,-31,7.75,0
48890,-10.1875,-31.3125,7.4375,0
48910,-8,-29.875,6.5625,0
48930,-7.0625,-32.0625,4.6875,0
48950,-13.1875,-34.3125,5.0625,0
48970,-13.625,-33.5625,5.3125,0
48990,-10.3125,-34.5625,4.5625,0
49010,-9.375,-35.875,5.9375,0
49030,-10.375,-35.4375,4.375,0
49050,-10.375,-33.125,0.8125,0
49070,-4.9375,-33.0625,-2.4375,0
49090,-4.625,-34.4375,-4.25,0
49110,-6.5,-33.1875,-3.5625,0
49130,-5.1875,-32.1875,-6.375,0
49150,-4.0625,-33.375,-10.75,0
49170,-8.3125,-35.3125,-11.0625,0
49190,-13.8125,-36.5,-8.8125,0
49210,-10.5625,-34.4375,-7.6875,0
49230,-2.9375,-34.1875,-10.5625,0
49250,-0.875,-33.375,-14.125,0
49270,0.25,-30.6875,-14.3125,0
49290,3.1875,-29.75,-15.5625,0
49310,4.875,-31.4375,-18.625,0
49330,-1.4375,-31.25,-19.3125,0
49350,-8.25,-30,-19.375,0
49370,-1.125,-30.9375,-19.0625,0
49390,5.6875,-31.3125,-21.5,0
49410,6.5625,-31,-23.5,0
49430,5.375,-30.125,-21.6875,0
49450,3.75,-30.4375,-20.8125,0
49470,2.3125,-29.5,-21.625,0
49490,7.75,-25.75,-23.625,0
49510,10.375,-24.625,-25.625,0
49530,7.1875,-23.125,-25.625,0
49550,10,-19.5625,-26.3125,0
49570,13.125,-17.375,-29.375,0
49590,8.3125,-15.5,-31.75,0
49610,9.1875,-12.5,-30.5,0
49630,11.4375,-10.8125,-27.1875,0
49650,12.4375,-11.375,-27.5625,0
49670,5,-12.1875,-29.3125,0
49690,-0.25,-10.4375,-27.875,0
49710,-0.8125,-8.625,-30.3125,0
49730,0.6875,-7.8125,-32.4375,0
49750,4,-6.9375,-31.0625,0
49770,6.5,-7.125,-31.125,0
49790,4.4375,-5.5,-33.5625,0
49810,1.8125,-2.125,-32.4375,0
49830,3.0625,-1.375,-30.1875,0
49850,3.25,-2.5625,-29.3125,0
49870,1.6875,-0.625,-29.9375,2001
49890,-0.1875,3.125,-29.25,0
49910,1,4.9375,-24.8125,0
49930,2.3125,3.3125,-20.9375,0
49950,6.625,5.5,-15.5625,0
49970,6.625,6.375,-12.1875,0
49990,0.6875,6.5,-10.5,0
50010,-7.5,9.8125,-11.375,0
50030,-2.5,8.5625,-12.75,0
50050,4.5,4.875,-10.6875,0
50070,1.625,6.125,-8.375,0
50090,-2.375,7.8125,-9.9375,0
50110,-2.0625,10.875,-11.1875,0
50130,6.75,15.875,-14,0
50150,9.375,9.6875,-10.75,0
50170,18.9375,14.3125,8.125,0
50190,18.375,16.125,11.4375,0
50210,15,17.75,3.4375,0
50230,4.5625,17.25,-0.8125,0
50250,4.375,22.375,8.4375,0
50270,17.25,29.5,18,0
50290,35.0625,32.4375,22.5625,0
50310,39.125,31.375,20.625,0
50330,31,44.625,25.9375,0
50350,36.75,57.125,35.0625,0
50370,57.5,55.6875,35.9375,0
50390,45.9375,48.5,29.75,0
50410,36.125,67.8125,43.25,0
50430,45.6875,76.125,52.875,0
50450,76,69.1875,48.8125,0
50470,76.3125,70.0625,37.125,0
50490,70.375,85,38.3125,0
50510,78.125,70.75,45.5,0
50530,64.3125,50.5625,50.375,0
50550,44.75,43.6875,64.125,0
50570,42.5625,44.3125,75.875,0
50590,43.3125,37.5625,64.3125,0
50610,50.9375,31.6875,42.6875,0
50630,53.1875,20.375,55.3125,0
50650,38.875,8.125,71.6875,0
50670,19.125,-0.0625,67.4375,0
50690,5.6875,-4.5,59.625,0
50710,-4.25,-11.125,62.9375,0
50730,-1.125,-15.25,61,0
50750,7.5,-20.125,56.125,0
50770,3.5,-12.5625,59.3125,0
50790,-6.125,-2.375,56.5,0
50810,-3.0625,1.6875,45.125,0
50830,6.9375,2.375,39.25,0
50850,7.625,2.875,43.375,0
50870,-1.75,5.4375,39.1875,0
50890,-1.875,8.6875,33.375,0
50910,-0.5,5.875,26.9375,0
50930,-3.0625,2.75,23.75,0
50950,-8,2.25,21.1875,0
50970,-5.8125,1.625,16.1875,0
50990,-5.375,1.625,20.3125,0
51010,-1.6875,-0.75,22.1875,0
51030,-2.4375,-1.125,18.1875,0
51050,-8.875,1.875,18,0
51070,-12.3125,1.6875,16.3125,0
51090,-11.25,0.5625,10.625,0
51110,-7.375,0.75,9.625,0
51130,-2.1875,-0.375,11.3125,0
51150,-0.1875,-0.125,10,0
51170,-2.8125,-0.625,5.8125,0
51190,-8.5625,1.1875,2.1875,0
51210,-4.6875,3.1875,1.625,0
51230,1.25,2.375,-0.75,0
51250,0,3.25,0.0625,0
51270,0.25,2.9375,1.1875,0
51290,-1.5625,0.875,-1.125,0
51310,-3.375,-0.3125,-2.0625,0
51330,-3.5,-1.125,-1.4375,0
51350,-1.5,-0.3125,-1.5,0
51370,-0.1875,-1.875,-2.1875,0
51390,-1.1875,-3.875,0.375,2000
51410,-1.375,-4.125,2.6875,0
51430,-1.8125,-3.5,2.625,0
51450,-0.5,0.4375,1.125,0
51470,-0.5,0.75,-0.75,0
51490,1.125,-1.1875,-0.6875,0
51510,3.25,-2.375,0.625,0
51530,1.625,-1.5,1.5625,0
51550,-1.8125,-1,0.5,0
51570,-0.9375,-2.0625,-1.25,0
51590,3.5,-4.6875,-0.75,0
51610,3.25,-5.5,-1.375,0
51630,1.3125,-4.9375,-3.0625,0
51650,-1.6875,-5.6875,-3.625,0
51670,1.9375,-7.125,-3.125,0
51690,4.0625,-7.375,-3.5,0
51710,2.6875,-7.5,-4.875,0
51730,-1.0625,-8.75,-5.0625,0
51750,-0.5625,-9.1875,-4.8125,0
51770,0.5,-8.9375,-4.3125,0
51790,1.25,-9.125,-3.8125,0
51800,1.6875,-9.3125,-2.1875,0
51820,2.75,-8.25,-0.9375,0
51840,1.8125,-9.3125,0.375,0
51860,-0.6875,-10.6875,1.125,0
51880,-1.6875,-10.3125,0.25,0
51900,-0.875,-8.6875,0.5,0
51920,1.6875,-8.5625,0.875,0
51940,5.0625,-9.5,1.25,0
51960,5.625,-10.625,0.6875,0
51980,2.5625,-10.5,-0.0625,0
52000,-0.625,-10.5,-1.5,0
52020,2.0625,-10.875,-4.4375,0
52040,6.6875,-11.3125,-7.375,0
52060,7.3125,-11.9375,-8.1875,0
52080,5.25,-11.9375,-7.3125,0
52100,4.625,-12.1875,-6.4375,0
52120,4.75,-11.25,-7.1875,0
52140,3.6875,-12.25,-5.625,0
52160,2.125,-13.4375,-4.875,0
52180,0.5625,-14.3125,-4.1875,0
52200,2.75,-17.375,-3.25,0
52220,1.8125,-18.6875,-3.1875,0
52240,-0.875,-14.75,-2.375,0
52260,0.5625,-15.1875,-4.5625,0
52280,-0.125,-11.8125,-4.8125,0
52300,1.5625,-12.0625,-4.625,0
52320,2.625,-11.125,-5.3125,0
52340,2.4375,-11.5,-7.25,0
52360,2.25,-11,-9.625,0
52380,2.375,-11.5,-11.5,0
52400,3.9375,-11.6875,-11.5625,0
52420,4.4375,-8.875,-12.1875,0
52440,3.0625,-10.3125,-14.75,0
52460,0.9375,-11.5625,-14.75,0
52480,-0.8125,-12.5625,-13,0
52500,-2.25,-10.8125,-12.125,0
52520,1.1875,-8.8125,-12,0
52540,3.0625,-8.4375,-12.875,0
52560,-1.3125,-8.5,-12.125,0
52610,-2.8125,-3.75,-13.5,0
52630,-7.9375,3.0625,-18.1875,0
52650,-9.0625,3.6875,-19.9375,0
52720,-27.5625,28.75,-20.5625,0
52740,-25.6875,28.3125,-21.75,0
52760,-25.4375,28.5625,-21.4375,0
52780,-25.8125,28.4375,-21.5,0
52800,-25.5,27.8125,-22.875,0
52820,-24.5625,26,-23.1875,0
52830,-25.6875,25.8125,-23.1875,0
52850,-26,27.3125,-23.75,0
52870,-24.5,28.625,-23.8125,0
52890,-21.6875,28.8125,-21.9375,0
52930,-22,31.125,-18.3125,0
52950,-19.9375,31.125,-16.5625,0
52970,-20.0625,31.875,-16.25,0
52990,-23.4375,31.6875,-17.625,0
53010,-21.1875,30,-17,0
53030,-16.9375,28.8125,-14.875,0
53050,-15.125,27.25,-11.4375,0
53070,-17.4375,26.5625,-12.125,0
53090,-17.1875,25.25,-12.5,0
53110,-15.3125,23.0625,-11.5625,0
53130,-13.5625,22.3125,-7.3125,0
53150,-14.3125,23.125,-6.6875,0
53150,-13.0625,21.75,-6.4375,0
53170,-12.75,19.3125,-8.1875,0
53180,-13.875,18.375,-11.1875,0
53200,-11.4375,18.5625,-10.5625,0
53220,-9,18.625,-7,0
53240,-9.625,19.875,-3.625,0
53260,-10.8125,20.4375,-3.25,0
53280,-11.3125,19.5625,-5.3125,0
53300,-11.0625,17.9375,-4.25,0
53320,-10.0625,14.8125,-1.5625,0
53340,-10.4375,12.5625,0.25,0
53360,-6.0625,12.5625,1.625,0
53380,-2.9375,11.8125,6.0625,0
53400,-3.8125,10.125,11.125,0
53420,-1.8125,8.9375,13.0625,0
53440,-2.4375,5.625,10.8125,0
53460,-3.125,3.125,8.9375,0
53480,-0.4375,0,8.375,0
53500,0.5625,-2.375,10.9375,0
53520,2.8125,-3.3125,12.5,0
53540,4.6875,-5.6875,7.8125,0
53560,3.4375,-5,6.875,0
53580,2.625,-5.125,9,0
53600,1.0625,-6.5,9.1875,0
53620,3.4375,-5.1875,9.6875,0
53640,5.25,-4.125,9.75,0
53660,1.75,-4.9375,9.375,0
53680,3.125,-4.5,10.0625,0
53700,5.1875,-4.125,13.0625,0
53720,6.3125,-5.0625,11.9375,0
53740,3.0625,-5.5625,11.1875,0
53760,0.1875,-4.8125,12.4375,0
53780,3.125,-2.6875,12.25,0
53800,6.125,-3.0625,11.4375,0
53820,6.75,-2.4375,14.4375,0
53840,4.8125,-1.5,16.125,0
53860,3.125,-2.25,13.9375,0
53880,0.25,-4.875,12.3125,0
53900,-5.875,-5.875,16.375,0
53920,-4.4375,-6.6875,20.9375,0
53940,1.1875,-8.4375,20.625,0
53960,0.5,-8.5625,16.75,0
53980,-1.25,-7.6875,14.875,0
54000,-1.5,-7.8125,14.625,0
54020,-2.9375,-9.4375,15.4375,0
54040,-2.5,-9,13.625,0
54060,2.125,-6.8125,11.9375,0
54080,5.1875,-7.4375,9.4375,0
54100,2.9375,-8.3125,11.3125,0
54120,2.4375,-7.25,13.875,0
54140,5.8125,-6.4375,13.5625,0
54160,8.3125,-7.1875,10.9375,0
54180,4.5625,-6.6875,12,0
54200,1.75,-5.9375,14.375,0
54220,4.375,-5.625,14.375,0
54240,6.5,-6.3125,13.75,0
54260,5.3125,-6.5625,13.625,0
54280,2.6875,-6.75,14.8125,0
54300,2.5625,-5.8125,15.5,0
54320,2.6875,-6.3125,14.8125,0
54340,4.1875,-7.4375,13.0625,0
54360,5.375,-6.4375,13.1875,0
54380,7.1875,-4.6875,12.875,0
54400,8.625,-5.0625,10.4375,0
54420,9.25,-7.125,8.6875,0
54440,9.6875,-8.875,7.8125,0
54460,8.625,-9.8125,6.4375,0
54480,7.4375,-10,6.8125,0
54500,7.375,-10.125,7.8125,0
54520,8.125,-9.4375,7.375,0
54540,8.4375,-10.6875,6.6875,0
54560,7.625,-11.75,6.375,0
54580,5.1875,-11.25,9.25,0
54600,6.75,-10.625,9.875,0
54620,7.625,-10.875,8.5,0
54640,6.9375,-10.6875,8.25,0
54660,6.6875,-10.5625,7.0625,0
54680,6.1875,-11.0625,5.6875,0
54700,6.3125,-11.375,6,0
54720,5.5,-11.4375,4.75,0
54740,6.5625,-10.3125,3.5,0
54760,7.125,-10.8125,2.875,0
54780,5,-12.625,3.1875,0
54800,4.8125,-13.3125,3.75,0
54820,4,-11.9375,3.5625,0
54840,4.625,-12,2.5625,0
54860,4.0625,-12.625,3.4375,0
54880,4.5625,-12.5625,5,0
54900,5,-13.1875,4.6875,0
54920,4.1875,-13.625,3.9375,0
54940,3.1875,-13.25,5,0
54960,3.4375,-12.9375,5.5625,0
54980,3.375,-14,6.75,0
55000,2.9375,-15.8125,8.375,0
55020,2.875,-15.875,9,0
55040,1.8125,-15.1875,9.4375,0
55060,2.4375,-14.6875,8.9375,0
55080,2.125,-15.6875,8.9375,0
55100,3.375,-15.375,9,0
55120,5.9375,-15.0625,7.75,0
55140,4.5625,-17.4375,7.625,0
55160,2.75,-17.3125,8.5625,0
55180,2.9375,-17.3125,6.625,0
55200,4.625,-17.375,6.0625,0
55220,5.25,-18.5625,7.375,0
55240,5.1875,-20.875,7.5,0
55260,3.125,-21.6875,8.6875,0
55280,3.25,-21.0625,8.6875,0
55300,3.125,-21.875,6.3125,0
55320,3.9375,-22.3125,6,0
55340,4.9375,-22.3125,7.9375,0
55360,6.875,-22.9375,7.3125,0
55380,5.5625,-23.1875,6.0625,0
55400,5.0625,-23.25,7.3125,0
55420,5,-22.625,8.125,0
55440,5.125,-22.5625,8.9375,0
55460,5.6875,-22.5,9.9375,0
55480,8.375,-23.0625,12.6875,0
55500,6.5,-23.9375,13.0625,0
55520,4.5,-23.125,11.875,0
55540,3.5625,-21.625,13.75,0
55560,6.25,-22.625,12.25,0
55580,3.9375,-22.875,10.5625,0
55600,3.6875,-21,12.3125,0
55620,4,-20.0625,12.0625,0
55640,5.5,-19.75,10.25,0
55660,6.9375,-18.875,9.375,0
55680,6,-19.1875,10.0625,0
55700,6.5625,-18.875,8.6875,0
55720,6.8125,-18.8125,7.25,0
55740,6.625,-19.1875,7.0625,0
55760,5.8125,-21.5,3.5625,0
55780,3.3125,-22.5,1.25,0
55800,1.25,-22.5625,-0.25,0
55820,0.125,-23.9375,-2.375,0
55840,2.4375,-25.0625,-1.8125,0
55860,2.125,-26.375,-1.5,0
55880,4.3125,-25.6875,-2.375,0
55900,6.625,-26.25,-3.5,0
55920,3.75,-27,-6,0
55940,2,-26.375,-6.3125,0
55960,1.5625,-26.75,-5.75,0
55980,0.75,-26.25,-5.75,0
56000,0.4375,-24.9375,-7.5,0
56020,0.9375,-24,-8.75,0
56040,2.5,-24.1875,-9.875,0
56060,4.25,-23,-10.875,0
56080,2,-21.8125,-10.375,0
56100,-1.3125,-21.5,-9.875,0
56120,-0.125,-19.875,-12.75,0
56140,0.9375,-17.5625,-13.625,0
56160,1.5625,-17.0625,-12,0
56180,1.0625,-16.5625,-11.875,0
56200,2,-13.25,-10.8125,0
56220,2.4375,-10.875,-11.25,0
56240,-0.25,-7.125,-13.1875,0
56260,3.875,-4.0625,-12.125,0
56280,3.625,-5,-13.1875,0
56300,1.6875,-3.6875,-13.25,0
56320,-0.875,-2.625,-13.375,0
56340,2.8125,-1.25,-13.8125,0
56360,6.3125,-3.4375,-17.4375,0
56380,1.3125,-7.75,-20.6875,0
56400,-6.125,-7.5,-18.9375,0
56420,-3.875,-7.375,-20.75,0
56440,-3,-7.875,-23.5625,0
56460,-5.4375,-9.125,-22.9375,0
56480,-7.25,-7.9375,-21.9375,0
56500,-8,-6.3125,-20.375,0
56520,-10.3125,-7.0625,-19.6875,0
56540,-10,-7.9375,-19.3125,0
56550,-10.6875,-6,-19.9375,0
56570,-9.0625,-3.1875,-21.8125,0
56590,-9.625,-3,-21.3125,0
56610,-12.125,-3.125,-20.75,0
56630,-9.75,-2.6875,-21.9375,0
56650,-10.6875,-0.1875,-21.125,0
56670,-11.375,0.5,-21.375,0
56690,-9.4375,2.75,-23.9375,0
56710,-11.0625,4.625,-23.25,0
56730,-9.875,5.625,-22.25,0
56750,-9.75,5.5625,-23.1875,0
56770,-10.375,6.4375,-24.5625,0
56790,-15.8125,9.75,-26.3125,0
56810,-15.6875,14.0625,-28,0
56830,-15.9375,12.0625,-27.5625,0
56850,-17.5,12.125,-28.625,0
56870,-18.8125,13.25,-29.3125,0
56890,-20.375,15.0625,-27.25,0
56910,-21.6875,17.5625,-27.9375,0
56930,-24.875,19.75,-30.75,0
56950,-29.625,21.125,-30.625,0
56970,-24.75,21.25,-28.5,0
56990,-24.4375,21.4375,-28.625,0
57010,-28.5,20.6875,-30.75,0
57030,-29.8125,20.25,-32.875,0
57050,-28.5,20.3125,-33.0625,0
57070,-27.875,20.0625,-34.1875,0
57090,-28.625,19.375,-33.8125,0
57110,-27.9375,19.3125,-31.625,0
57130,-27.4375,20.1875,-32,0
57150,-28.8125,20.4375,-31.5,0
57170,-27.875,20.3125,-29.8125,0
57190,-25.5,20.5,-30,0
57210,-25.8125,19.5,-29.3125,0
57230,-25.875,18.625,-27.25,0
57250,-23.5,18.6875,-27.1875,0
57270,-22.9375,18.9375,-25.5625,0
57290,-22.25,18.875,-24.1875,0
57310,-21.8125,18.875,-22.9375,0
57330,-21.25,19.1875,-21.8125,0
57350,-20,19.375,-20.375,0
57370,-20,20.3125,-19.1875,0
57390,-18.375,21.8125,-17.25,0
57410,-17.5,22.5,-15.3125,0
57430,-16.75,22.5,-13.75,0
57450,-16.3125,23.25,-12.5,0
57470,-15.375,25.375,-12.3125,0
57490,-15.5,26.5625,-11.3125,0
57510,-13.8125,25.9375,-8.625,0
57530,-12.125,26.4375,-7.375,0
57550,-11.25,27.125,-5.9375,0
57570,-11.25,27.5,-4.3125,0
57590,-10.5625,27.875,-2.9375,0
57610,-10.25,27.75,-0.125,0
57630,-4.875,26.4375,1.625,0
57650,-4.5625,25.125,4.625,0
57670,-6,25.25,5.8125,0
57690,-4.75,24.0625,5.125,0
57710,-2.375,21.75,4.3125,0
57730,0.25,19.0625,7.375,0
57750,0.75,17.5,12.8125,0
57770,-2.4375,17.125,16.875,0
57790,-0.375,18.125,13.375,0
57810,1.9375,18.8125,11.375,0
57830,2.875,17.875,15.8125,0
57850,2.4375,17.5,18.5,0
57870,1.1875,19.1875,18.75,0
57890,0.625,21.1875,15.25,0
57910,1.875,19,10.5,0
57930,1.3125,19.375,12.25,0
57950,0.3125,19.4375,17.1875,0
57970,1.4375,17.5,17.0625,0
57990,1.375,17.5625,13.3125,0
58010,-2.625,19.1875,8.9375,0
58030,-5,18.75,10.4375,0
58050,-5.3125,17.75,14.875,0
58070,2.625,16,14.5,0
58090,4.25,15.75,10.375,0
58110,-3.3125,17.0625,10.5,0
58130,-4.75,16.1875,12.5,0
58150,-1.125,14,12.0625,0
58170,2.4375,13.4375,11.625,0
58190,-0.9375,13.75,12.4375,0
58210,-1.1875,14.5625,14.75,0
58230,0.75,12.25,13.1875,0
58250,1.75,11.5625,12.5625,0
58270,-0.875,11,12.5,0
58290,-3.8125,11.125,13.1875,0
58310,-1.375,10.4375,11.375,0
58330,0.75,9.375,11.3125,0
58350,-2,9.125,14.25,0
58370,-3.1875,8,15.125,0
58390,-2.1875,6.375,13.0625,0
58410,-0.25,5.875,12.1875,0
58430,1.1875,5.8125,11.875,0
58450,-0.1875,3.8125,13.1875,0
58470,-2.4375,2.5,14.0625,0
58490,-2.6875,1.4375,12.4375,0
58510,-1.5,-2.125,11,0
58520,-3.1875,-4.9375,13.9375,0
58540,-0.9375,-5.9375,12.0625,0
58560,2,-7.375,10.3125,0
58580,2.8125,-9.8125,11.5625,0
58600,2.125,-11.0625,11.1875,0
58620,1.75,-10.6875,12.25,0
58640,4.4375,-11.75,11.5,0
58660,3.25,-13,9.3125,0
58680,2.625,-12.5625,9.5625,0
58700,5.3125,-11.3125,9.8125,0
58720,6.6875,-10.6875,8.5625,0
58740,7.625,-9.8125,9.375,0
58760,6.6875,-7.8125,10.0625,0
58780,8.625,-6.5625,8.25,0
58800,10.125,-7.25,8.25,0
58820,10.1875,-6.1875,10.25,0
58840,7.75,-5.5625,10.5,0
58860,5,-5.8125,10.125,0
58880,7.25,-5.6875,9.75,0
58900,8.375,-6.125,8.4375,0
58920,6.375,-6.875,9.375,0
58940,4,-7.4375,11.25,0
58960,2.9375,-7.3125,11.8125,0
58980,4.625,-7.25,9,0
59000,5.75,-8.25,7,0
59020,3,-8.5,9.0625,0
59040,4,-8.625,11.4375,0
59060,4.1875,-10.875,10.6875,0
59080,1.8125,-9.9375,11.0625,0
59100,-1.25,-8.6875,12.4375,0
59120,0.375,-9.75,13.5,0
59140,4.125,-12,14.5,0
59160,1.6875,-11,15.125,0
59180,0,-9.75,14.375,0
59200,1.0625,-9.5,12.9375,0
59220,3.5625,-9.6875,13.6875,0
59240,4.75,-10.5625,14.8125,0
59260,4.4375,-11.125,16.125,0
59280,1.125,-11.3125,16.3125,0
59300,-2,-11,15.9375,0
59320,-0.5,-11.75,15.3125,0
59340,2.1875,-14.3125,14.8125,0
59360,-0.25,-15.125,15.5,0
59380,-4,-16.0625,15.8125,0
59400,-3.375,-17.5625,14.375,0
59420,3.1875,-19.375,12.5,0
59440,0.5625,-20.375,10.25,0
59460,-5.9375,-23,10.375,0
59480,-4.8125,-24,10.875,0
59500,-0.1875,-23.5625,12.5625,0
59520,-0.25,-22.8125,11.5,0
59540,-1.875,-20.375,10.875,0
59560,-0.9375,-19.6875,10.0625,0
59580,1.25,-18.875,8.9375,0
59600,3.25,-18.75,6.8125,0
59620,3.9375,-18.125,5.625,0
59640,1.1875,-16.875,6.3125,0
59660,0.6875,-15.3125,4.0625,0
59680,3.5,-12.875,0,0
59700,6.9375,-11.6875,0.75,0
59720,5.9375,-13,3.1875,0
59740,-0.1875,-12.4375,4.5625,0
59760,-6.6875,-12.5625,3.875,0
59780,-5.9375,-11.4375,2.625,0
59800,2.6875,-12.5,0.375,0
59820,5.125,-12.75,1.5625,0
59840,5.875,-11.5625,4.1875,0
59860,2.4375,-13,3.3125,0
59880,-6.375,-14.0625,3.3125,0
59900,-5.75,-14.1875,4.125,0
59920,2,-15.3125,2.4375,0
59940,5.75,-16.25,1.625,0
59960,1.625,-16.4375,2.375,0
59980,-2.75,-15.8125,4.375,0
60000,-5,-16.0625,5.125,0
60020,-1,-18.25,2.5,0
60040,2.25,-19.25,3.125,0
60060,2.0625,-18.4375,4.4375,0
60080,1.3125,-19.5,3.375,0
60100,-0.0625,-20.5,4.1875,0
60120,0.8125,-20.3125,4.3125,0
60140,1.1875,-19.375,3,0
60160,3.0625,-20.4375,0.5,0
60180,2.6875,-21.125,-1.5625,0
60200,4.4375,-22.3125,-1.125,0
60220,7.625,-22.3125,-0.75,0
60240,5,-23.25,-0.6875,0
60260,0.9375,-24.125,-1.5,0
60280,-1.9375,-24.8125,-1.8125,0
60300,-1.125,-24.8125,-0.625,0
60320,2.6875,-24.5625,-1.0625,0
60340,3.375,-25.125,-0.8125,0
60360,-1.875,-24.6875,-1.375,0
60380,-6.1875,-23.4375,-2.25,0
60400,-0.875,-22.9375,-3.375,0
60420,5.625,-23.5625,-6.8125,0
60440,7.75,-23.1875,-8.5,0
60460,3.25,-23.1875,-8,0
60480,1.3125,-22.375,-8.75,0
60500,0.9375,-21.8125,-11,0
60520,1.6875,-21.875,-12.5625,0
60540,5.5625,-22.375,-13.5,0
60560,7.625,-22.375,-13.1875,0
60580,7.8125,-22.1875,-14.5,0
60600,3.625,-21.25,-14.5,0
60620,0.375,-20.9375,-13.875,0
60640,0.8125,-22.3125,-13.8125,0
60660,4.75,-22.8125,-13.75,0
60680,6.125,-22.0625,-15.5,0
60700,3.25,-21.9375,-16.125,0
60720,-1.375,-20.9375,-14.625,0
60740,-2,-20.1875,-15.8125,0
60760,0,-19.5,-17.875,0
60780,0.375,-17.125,-19.25,0
60800,1,-14.8125,-20.75,0
60820,0.375,-15.75,-22,0
60840,-1.5625,-13.3125,-22.3125,0
60860,-4.3125,-9.75,-23.0625,0
60880,-4.6875,-7.125,-23.375,0
60900,-0.1875,-7.9375,-25.0625,0
60920,0.5625,-6.5625,-24.25,0
60940,-4.1875,-3.8125,-23.5,0
60960,-11.625,-0.875,-24.8125,0
60980,-12.625,1.0625,-26.625,0
61000,-4.75,3,-29.625,0
61020,-3.4375,2.375,-30.875,0
61040,-10.125,2.25,-27.5625,0
61060,-15.8125,3.6875,-27.0625,0
61080,-15.875,6.375,-28.75,0
61100,-10.25,6.625,-29.5625,0
61120,-7.25,7.125,-31.75,0
61140,-8.0625,7.8125,-34.625,0
61160,-13.3125,8.9375,-34.4375,0
61180,-17.5625,9.375,-32.1875,0
61200,-18.3125,12.5,-31.1875,0
61220,-13.25,13.5625,-33.6875,0
61240,-12.25,13.8125,-37.0625,0
61260,-14.1875,15.875,-36,0
61280,-17.5,17.375,-34.8125,0
61300,-19,18.4375,-32.8125,0
61320,-13.75,17.1875,-31.8125,0
61330,-19.4375,17.125,-35.6875,0
61350,-21.3125,18.25,-35.1875,0
61370,-21.0625,18.4375,-34.5,0
61390,-19.8125,18.3125,-34.375,0
61410,-19.75,19.0625,-36.0625,0
61430,-20.0625,20.25,-36.0625,0
61450,-20.25,20.4375,-32.6875,0
61470,-19.3125,21.3125,-31.25,0
61490,-22.9375,21.3125,-31.5625,0
61510,-22.9375,21.3125,-30.3125,0
61530,-22.0625,20.5625,-28.875,0
61550,-21.625,21.625,-25.8125,0
61570,-19.625,23.25,-23.8125,0
61590,-17.875,24.125,-20.4375,0
61610,-15.1875,24.4375,-17.125,0
61630,-13.375,25.9375,-17.8125,0
61650,-15.0625,28.0625,-16.4375,0
61670,-15.875,27.5,-12.4375,0
61690,-12.625,27.8125,-8.4375,0
61710,-10.25,29,-4.9375,0
61730,-9.1875,30.5625,-3.3125,0
61750,-7.4375,29.6875,-1.5,0
61770,-8.375,28.6875,2.75,0
61790,-8.25,28.3125,7,0
61800,-10.9375,28.3125,8.25,0
61820,-11.25,29.9375,7.625,0
61830,-10.25,30.75,6.3125,0
61850,-7.4375,30.125,6.875,0
61870,-2.625,30.9375,10.125,0
61890,-4.625,27.9375,12,0
61900,-7.6875,31.0625,11.4375,0
61920,-9.25,29.875,8.3125,0
61940,-6.875,29.1875,8.5625,0
61960,-5.5,27.25,12.1875,0
61980,-7.1875,26.25,16.75,0
62000,-3.25,25.375,14.1875,0
62020,-4.875,25.375,10.5,0
62040,-10.125,27.0625,14,0
62060,-9.5,23.875,19.9375,0
62080,-5.25,20.0625,20.375,0
62100,-4.9375,20.75,17.875,0
62120,-6.0625,22.875,18.25,0
62140,-8.4375,21.4375,21.625,0
62160,-5.125,18.1875,24.375,0
62180,-6.8125,16.5,23.6875,0
62200,-9.25,17.6875,23.875,0
62220,-12,19.3125,24.5625,0
62240,-9,18.1875,26,0
62260,-5.125,15.4375,26.5625,0
62280,-10.0625,14,26.875,0
62300,-18,13.5625,27.25,0
62320,-16.75,14.25,27.3125,0
62340,-11.375,12.75,27.4375,0
62360,-12.5,10.625,26.9375,0
62380,-18.8125,9.8125,27.3125,0
62400,-19.75,9.5,26.5,0
62420,-14.5,8.125,25.1875,0
62440,-14.5625,4.875,29.4375,0
62460,-19.875,5.4375,30.3125,0
62480,-23.3125,7.5,29.75,0
62500,-19.25,7,27.375,0
62520,-11.5625,5.5,24.25,0
62540,-11.125,4.375,25.9375,0
62560,-14.1875,4.125,25.375,0
62580,-16.4375,4.6875,20.75,0
62600,-10.375,3.125,17.875,0
62620,-9.625,2.0625,16.9375,0
62640,-11.375,2.0625,16.625,0
62660,-13.25,1.375,15.75,0
62680,-12.625,-0.25,17.125,0
62700,-9.3125,-0.8125,14.75,0
62720,-9,-2.1875,12.6875,0
62740,-10.75,-2.125,14.6875,0
62760,-9.3125,-1.625,15.9375,0
62780,-6.5,-1.5625,13.625,0
62800,-3.875,-2.5,10.6875,0
62820,-2.1875,-3.9375,10.4375,0
62840,-4.4375,-3.75,12.125,0
62860,-4.1875,-4.375,12.4375,0
62880,-2.875,-5.0625,10.875,0
62900,-1.8125,-5.25,11.3125,0
62920,-1,-7.0625,12.3125,0
62940,-0.75,-7.9375,14.125,0
62960,-2.1875,-8.125,12.6875,0
62980,-1.9375,-9.125,11.4375,0
63000,-1.9375,-11.8125,11.875,0
63020,-2.25,-12.625,14.25,0
63040,-1.0625,-12.0625,14.4375,0
63060,-0.0625,-14.1875,13,0
63080,2.875,-14.375,12.1875,0
63100,7.1875,-16.4375,9.625,0
63120,4.1875,-19,8.75,0
63140,-1.4375,-18.8125,9.4375,0
63160,-0.375,-18.75,8.9375,0
63180,1.8125,-20.875,8.9375,0
63200,1.375,-21.3125,9.8125,0
63220,0.0625,-22.25,11,0
63240,-1.3125,-22.6875,11.9375,0
63260,-3.5625,-23.1875,12.25,0
63280,-2.1875,-23.25,11.75,0
63300,3.3125,-22.4375,11.3125,0
63320,6.625,-22.4375,12.875,0
63340,8.25,-22.375,11.5,0
63360,8.8125,-20.4375,7,0
63380,6,-19.1875,5.5625,0
63400,6.4375,-18.75,6.5625,0
63420,10.5,-20.5,4.875,0
63440,8,-20.1875,3.6875,0
63460,4.5,-18.0625,2.9375,0
63480,8.25,-17.9375,1.125,0
63500,9.5,-17.6875,2.4375,0
63520,8.375,-15.8125,2.6875,0
63540,7,-16.25,0.5625,0
63560,6.1875,-16.125,0.8125,0
63580,6.5,-16.125,1.3125,0
63600,5.875,-16.1875,1.3125,0
63620,4.8125,-17.1875,1.5,0
63640,3.4375,-17.3125,2.3125,0
63660,4.625,-17.875,1.875,0
63680,2.8125,-18.375,2.0625,0
63700,2.625,-17.8125,3.125,0
63720,1.5625,-18,2.1875,0
63730,1.5,-18.1875,2.1875,0
63760,1.875,-18.6875,1.6875,0
63780,2.9375,-20.625,2.625,0
63800,-0.0625,-21.5625,5.375,0
63820,-4.4375,-20.0625,6.125,0
63840,-2.0625,-19.3125,3.9375,0
63850,-0.375,-19.1875,4.5625,0
63870,0.5625,-18.4375,3.8125,0
63890,1.25,-18.625,2.125,0
63910,-1.1875,-18.3125,1.5,0
63930,-3.5625,-17.6875,0.0625,0
63950,0.625,-17.375,-1.125,0
63970,7.5625,-17.5625,-1.0625,0
63990,8.3125,-17.25,-2,0
64010,0.5,-16.625,-3.125,0
64030,2.4375,-17.0625,-2.9375,0
64050,3.8125,-19.5,-3.8125,0
64070,4.5,-19.5,-3.75,0
64090,2.8125,-21.0625,-3.5625,0
64110,0.875,-22.0625,-3.5625,0
64130,0.6875,-22.0625,-6.25,0
64150,1.625,-21.8125,-6.4375,0
64170,2.25,-22.75,-5.8125,0
64190,2.5625,-22.625,-6.25,0
64210,1.3125,-22.8125,-6.375,0
64230,-0.1875,-22.5625,-6.125,0
64250,-0.0625,-21.8125,-7.3125,0
64270,-0.875,-21.0625,-9.4375,0
64290,2.9375,-22.125,-8.875,0
64310,-0.375,-22.875,-8.8125,0
64330,-2.375,-20.9375,-7.9375,0
64350,-2.8125,-20.9375,-10.875,0
64370,-0.375,-20.8125,-12.375,0
64390,0.9375,-20.4375,-12.25,0
64410,2.375,-19.5,-12.625,0
64430,3.375,-19.25,-13.625,0
64450,0.5,-18.75,-14.3125,0
64470,-1.8125,-17.875,-15.6875,0
64490,-0.75,-16.875,-17.375,0
64510,1.3125,-17.125,-18.25,0
64530,1,-17.1875,-18.375,0
64550,1.875,-16.875,-18.5,0
64570,1.5625,-15.5,-21.125,0
64590,2.4375,-16.875,-24.3125,0
64610,1.3125,-16.9375,-25.25,0
64630,0.5625,-15.4375,-23.5625,0
64650,2.4375,-13.9375,-24.8125,0
64670,3.125,-11.75,-28.4375,0
64690,4.9375,-12.6875,-29.4375,0
64710,7,-15.5,-27.75,0
64730,3.5,-15.0625,-26.5625,0
64750,0.5625,-12.5625,-26.6875,0
64770,-0.1875,-12.5625,-27.1875,0
64790,2.4375,-12.3125,-28.125,0
64810,3.6875,-11.9375,-28.9375,0
64830,0.625,-12.3125,-27.5,0
64850,-3,-10.8125,-27.3125,2001
64870,-0.4375,-10.875,-28.125,0
64890,0.625,-11.5,-27.9375,0
64910,-1.1875,-9.25,-24,0
64930,-2.75,-8.3125,-22.8125,0
64950,-2.125,-7.5,-23.625,0
64970,-2.8125,-5.6875,-21.625,0
64990,-1.1875,-3.5625,-20.75,0
65010,0.75,-3.8125,-22.0625,0
65030,-1.6875,-4.125,-21.875,0
65050,-6.0625,-2.875,-17.3125,0
65070,-5.8125,3.6875,-12.75,0
65090,0.125,12.625,-7.625,0
65110,6.875,15.625,-1.6875,0
65130,8.125,21.5,4.625,0
65150,10.625,25.4375,9.5625,0
65170,10.875,32.6875,15.3125,0
65190,14.5,42.375,18.8125,0
65210,17.5,45.5,20.0625,0
65230,24.625,50.375,21.75,0
65250,36.75,55.75,21.25,0
65270,39.5,58.8125,27.875,0
65290,41.25,63.25,38.125,0
65310,40.1875,64.125,36.375,0
65330,40.4375,69.125,34.9375,0
65350,46.75,73.6875,42.9375,0
65370,42.5625,68.0625,46.1875,0
65390,45.375,65.75,53.8125,0
65410,57.625,66.625,62.6875,0
65430,67.4375,65.8125,66.1875,0
65450,65.3125,51.25,56.625,0
65470,57.4375,49.125,56.5625,0
65490,66.5,51.125,74.5,0
65510,75.3125,40.4375,80.5,0
65530,64.3125,35.5625,59.125,0
65550,54.5625,41.375,61.375,0
65570,53.6875,36.625,75.5,0
65590,51.4375,27.125,67.0625,0
65610,47,20.5625,58.875,0
65630,43.375,16,67.875,0
65650,21.1875,14.8125,57.9375,0
65670,10.4375,20.5625,43.625,0
65690,8.125,18,47.25,0
65710,11.75,20.6875,57.8125,0
65730,8.1875,17.25,55.3125,0
65750,5.375,20.375,41.5,0
65770,-3.875,17.125,35.625,0
65790,-15.625,10.8125,34.6875,0
65810,-9.1875,8.1875,30.75,0
65830,2.25,6.5,21.5,0
65850,4.375,7.3125,14.875,0
65870,0.1875,7.5625,10.375,0
65890,-8.1875,5.4375,6.9375,0
65910,-11.0625,2.3125,6.125,0
65930,-1.375,-0.5625,5.125,0
65950,4.5625,-2.25,4.75,0
65970,2.25,-3.9375,4.0625,0
65990,-3.75,-5.1875,3.3125,0
66010,-4.125,-6.3125,2.4375,0
66030,-5.125,-7.4375,0.75,0
66050,-2.4375,-8.6875,-0.5,0
66070,3.4375,-10.4375,0.3125,0
66090,6.375,-8.125,1,0
66110,4.8125,-4.5625,0.5,0
66130,-2.0625,1.0625,-1.6875,0
66150,-2.9375,2.1875,-1.8125,0
66170,3.1875,2.3125,0.625,0
66190,4.5625,1.9375,3.0625,0
66210,0.5625,3.5625,2.8125,0
66230,-4.75,4.8125,1.625,0
66250,-3.5,4.125,1.375,0
66270,1.125,2.8125,2.5625,0
66290,1.25,3.25,3.625,0
66310,-2.375,2.9375,1.875,0
66330,-3.875,1.75,-0.0625,0
66350,-1.9375,0.375,-1.0625,0
66370,1.5,0,-0.8125,0
66390,1.0625,-1.0625,-0.375,0
66410,-2.5625,-0.75,-0.5,0
66430,-3.375,0.6875,-1.125,0
66450,-1.5,2,-2,0
66470,1.125,2.5,-1.3125,0
66490,2.0625,3,-0.1875,0
66510,1.375,4.5625,0.125,0
66530,-1.5,6.5625,0.6875,0
66550,-0.75,6.125,2,0
66570,0.8125,4.5625,1.625,0
66590,-0.5,4.8125,2.75,0
66610,-0.25,6.0625,2.5,0
66630,-2.375,6,1,0
66650,-2.0625,4.0625,0.8125,0
66670,1,0.9375,-0.3125,0
66690,-0.0625,-1.1875,-0.5625,0
66710,-1,-1.25,-1.5,0
66730,-1.1875,-1.8125,-2.6875,0
66750,0.375,-2.375,-3.8125,0
66770,1.5625,-2.5625,-4.125,0
66790,-0.8125,-3.625,-3.125,0
66810,-3.4375,-3.5,-1.1875,0
66830,1.0625,-4.625,-1.125,0
66850,1.5,-5.5625,-1.25,0
66870,-1.875,-5.75,0.5625,0
66890,-3.5625,-4.1875,-0.4375,0
66910,-4.375,-3,-0.125,0
66930,-0.8125,-1.25,-1.6875,0
66950,3.25,-2,1.4375,2000
66970,1.6875,-1.5,2.4375,0
66990,-0.1875,1.1875,1.8125,0
67010,3.1875,3.0625,-1.5,0
67030,-1.375,4.75,-2.875,0
67050,-3.625,4.6875,2.375,0
67070,-0.875,2.3125,3.9375,0
67090,3.1875,-0.4375,4.625,0
67110,-1.375,0.0625,1.8125,0
67130,-5.125,0.5,-0.625,0
67150,-0.625,-1.5625,-0.5,0
67170,7.125,-1.25,0.9375,0
67190,4.875,-0.875,0.75,0
67210,-4.3125,-2.4375,2.125,0
67230,-7.3125,-2.0625,4.375,0
67250,-3.375,-1.6875,1.9375,0
67260,1.4375,-2.9375,-0.0625,0
67280,2.3125,-4.5625,0.375,0
67300,0.0625,-4.3125,3.4375,0
67320,-2.4375,-5.375,4.0625,0
67340,-2.4375,-5.1875,2.875,0
67360,0.125,-6.1875,2.4375,0
67380,1.5625,-6.1875,2.3125,0
67400,1.4375,-6.9375,1.9375,0
67420,2.3125,-7.875,2.375,0
67440,1.8125,-9.875,3.3125,0
67460,-0.4375,-9.75,4.25,0
67480,0.125,-9.4375,3.875,0
67500,0.3125,-10.625,2.625,0
67520,-0.4375,-11.3125,3.25,0
67540,-5.4375,-13.125,6.25,0
67560,-9.6875,-15.25,8.5625,0
67580,-7.1875,-15.5,8.9375,0
67600,-5.4375,-16.0625,9.0625,0
67620,-5.1875,-17.25,9.125,0
67640,-6.8125,-18.1875,9.125,0
67660,-8.6875,-18.125,10.625,0
67680,-9.1875,-18.6875,10.5625,0
67700,-6.5,-17.9375,8.125,0
67720,-5.25,-19.375,5.5,0
67740,-4.3125,-19.375,4.8125,0
67760,-2.75,-18.1875,3.5625,0
67780,-4.0625,-18.375,0.0625,0
67800,-4.8125,-16.125,-4.625,0
67820,-2.3125,-14.4375,-7.0625,0
67840,1.0625,-17.9375,-6.3125,0
67860,-2.875,-18,-3.3125,0
67880,-7.25,-15.625,-2.5625,0
67900,-10.125,-17,-2.9375,0
67940,-11.5625,-16,-0.375,0
67960,-7.875,-18.1875,-1.5625,0
67980,-11.375,-18.6875,-1.375,0
68000,-14.8125,-20.875,-0.25,0
68020,-16.375,-22.3125,0.1875,0
68040,-13.125,-22.5625,-0.875,0
68060,-8.4375,-20.625,-2.6875,0
68080,-7.25,-18.8125,-5.5,0
68100,-7.625,-17.6875,-8.6875,0
68120,-8.8125,-17.0625,-12,0
68160,-8,-14.1875,-12.4375,0
68180,-8.5625,-11.5,-13.875,0
68200,-10.375,-8.375,-15.3125,0
68220,-9.8125,-6.0625,-17.25,0
68240,-12.125,-4.5,-18.6875,0
68260,-13,-2.5,-20.1875,0
68280,-11.5,0.125,-21.9375,0
68300,-11.0625,3.1875,-23.0625,0
68320,-12.3125,7.1875,-23.8125,0
68340,-10.9375,10,-22.8125,0
68360,-9.5,13.125,-24.4375,0
68380,-11.625,16.9375,-26.5625,0
68400,-10.5,19.9375,-26.75,0
68420,-8.875,21.125,-27.1875,0
68440,-10.4375,22.4375,-27.875,0
68460,-12.3125,23,-28.5,0
68480,-11.6875,22.75,-28.875,0
68530,-17.375,20.5625,-29.4375,0
68550,-18.375,19.1875,-27.1875,0
68600,-22.875,23.75,-21,0
68630,-26.0625,21.9375,-14.5,0
68650,-29.5,24.375,-13.6875,0
68690,-26.375,28.1875,-13.75,0
68710,-26.125,28.75,-13.875,0
68720,-30.625,29.0625,-16.125,0
68740,-30.6875,27.75,-18.8125,0
68760,-30.125,26.75,-20.625,0
68780,-30.9375,25.75,-20.375,0
68800,-30.8125,25.1875,-20.75,0
68820,-31.1875,24.875,-22.3125,0
68840,-31.5625,24.6875,-24.25,0
68840,-31.3125,24.6875,-24.875,0
68860,-29.6875,24.5625,-24.6875,0
68870,-22.25,41.125,-10.0625,0
68890,-24.25,41.75,-7.25,0
68910,-24.5625,39.25,-7,0
68920,-19,36,-7.3125,0
68940,-17.1875,34,-7.8125,0
68960,-15.8125,32.75,-4.5,0
68980,-16,30.75,2.3125,0
69000,-16.5,31.3125,0.75,0
69020,-16.375,27.375,-2.9375,0
69040,-10.25,22.6875,-7.75,0
69060,-5.625,22,-5.3125,0
69080,-12.875,23.6875,1.375,0
69100,-12.625,24.4375,6.3125,0
69120,-13.1875,24.25,7.75,0
69140,-13.375,22.375,7.5625,0
69160,-11.1875,18.75,8.625,0
69180,-10.75,13.75,11.125,0
69200,-15.125,11.625,15.4375,0
69220,-13.375,9.9375,12.125,0
69240,-16.3125,7.625,12.375,0
69260,-13.1875,7.6875,14.3125,0
69280,-11.9375,6.1875,16.625,0
69300,-9,4.4375,15.6875,0
69320,-5.6875,2.3125,13.1875,0
69340,-12.5,-0.3125,11.625,0
69360,-7.25,-0.8125,10.625,0
69380,-3.4375,0.9375,10.6875,0
69400,-9.5,3.125,12.4375,0
69420,-17.125,5,11.625,0
69440,-11.8125,4.9375,8.5,0
69460,-5.5,5.0625,8.0625,0
69480,-3.625,4.25,10.375,0
69500,-8,4.9375,10.375,0
69520,-7.375,4.375,8.25,0
69540,-0.125,2.8125,5.75,0
69560,0.375,2,8.0625,0
69580,-1.4375,1.875,11.1875,0
69600,-5.875,1.4375,8.1875,0
69620,-4,1.8125,6.625,0
69640,3.625,-0.8125,7.4375,0
69660,2.875,-3.125,12.75,0
69680,-2,-2.375,16.125,0
69700,-7.9375,-1.3125,14.9375,0
69720,-2.0625,-4.25,10.4375,0
69740,1.8125,-5.125,10.0625,0
69760,0.75,-5.3125,13.5625,0
69780,-4.125,-6.5625,15,0
69800,0.5,-6.5625,10.625,0
69820,3.4375,-7.3125,7.8125,0
69840,4.5625,-8.875,7.1875,0
69860,3.875,-9.1875,8.25,0
69880,4.1875,-10,9.5,0
69900,6.1875,-9.75,10.0625,0
69920,3.875,-9.5625,9.3125,0
69940,1.625,-9.75,8.5,0
69960,1.9375,-9,8.9375,0
69980,5.25,-10.0625,10.5625,0
70000,4.3125,-11.5625,11.125,0
70020,-0.375,-10.5,13.8125,0
70040,-1.1875,-9.875,14.125,0
70060,1.3125,-10.3125,11.5625,0
70080,2.3125,-10.5,11.5,0
70100,2.9375,-11,12.75,0
70120,1.5,-12.25,12.125,0
70140,3.125,-13.1875,13.125,0
70160,4.375,-12.9375,12.5,0
70180,6.1875,-13,10.6875,0
70200,3.6875,-14.1875,10.5,0
70220,3.25,-14.1875,11.5,0
70240,8.1875,-13.8125,11.9375,0
70260,10.0625,-14.4375,10.5625,0
70280,5.1875,-15.3125,8.875,0
70300,7.125,-15.375,9.4375,0
70320,9.375,-16.0625,8.5625,0
70340,7.5,-15.5,9,0
70360,5.9375,-16.0625,8.1875,0
70380,5.3125,-17.9375,7.8125,0
70400,8.5,-18.4375,8.0625,0
70420,7.6875,-19.8125,7.5625,0
70440,4.75,-21.375,7.5,0
70460,3.3125,-21.625,9.75,0
70480,5,-23,9.875,0
70500,3.625,-24.6875,8.125,0
70520,4.9375,-24.1875,7.6875,0
70540,4.375,-24.375,8.125,0
70560,4.625,-24.9375,8.875,0
70580,5.5625,-25.125,8.3125,0
70600,6.8125,-26.125,7.625,0
70620,5.5,-25.8125,7.25,0
70640,4.1875,-25.3125,6.875,0
70660,4.5,-25.375,7.3125,0
70680,6.4375,-25.5,8.4375,0
70700,4.125,-25.6875,8.5625,0
70720,2.75,-25.125,8.1875,0
70740,3.6875,-25,9.875,0
70760,2.5,-25.875,11.9375,0
70780,0.4375,-25.9375,13.4375,0
70800,1.6875,-24.9375,12.9375,0
70820,2.625,-25.125,13.0625,0
70840,2.125,-26.125,11.5,0
70860,1.3125,-24.75,10.375,0
70880,4,-24,10.125,0
70900,5.3125,-24.375,8.5,0
70920,4.0625,-22.9375,7.375,0
70940,3.5625,-22.9375,6.3125,0
70960,7.375,-23.3125,5.375,0
70980,4.6875,-24,4.0625,0
71000,3.5625,-23.5,3.1875,0
71020,7.0625,-24.5,1.625,0
71040,8.0625,-26.6875,-0.625,0
71060,6.75,-26.125,0.3125,0
71080,8.8125,-25.1875,-3.1875,0
71100,12.0625,-25.5,-6.75,0
71120,12.125,-26.625,-8.25,0
71140,9.3125,-27.625,-11.1875,0
71160,6.375,-28.4375,-8.125,0
71180,5.8125,-30.4375,-4.125,0
71200,8.8125,-29.75,-2.5625,0
71220,7.25,-30.3125,-2.9375,0
71240,7.5,-31.0625,-5.5625,0
71260,5.0625,-32.8125,-5.4375,0
71280,3.1875,-32.4375,-5.125,0
71300,3.6875,-31.375,-5.4375,0
71320,4.1875,-32,-5.6875,0
71340,3.375,-32.75,-5.6875,0
71360,2.875,-32.3125,-5,0
71380,5.75,-30.3125,-3.125,0
71400,2.9375,-31.75,-5.125,0
71420,0.5,-30.5,-6.4375,0
71440,2.1875,-29.8125,-6.0625,0
71460,2.4375,-29.6875,-6.3125,0
71480,3.8125,-28.3125,-9.0625,0
71500,1.625,-27.3125,-10.3125,0
71520,0.625,-25.5,-11,0
71540,-1.625,-23.9375,-10.375,0
71560,0.0625,-22.8125,-9.3125,0
71580,2.125,-22.6875,-9.375,0
71600,2.0625,-21.5,-9.625,0
71620,-0.8125,-19.75,-7.6875,0
71640,-2.0625,-18.1875,-6.5,0
71660,-1.9375,-16.5,-5.5625,0
71680,0.0625,-14.9375,-6.75,0
71700,0.5,-13.0625,-5.6875,0
71720,0.5625,-12.125,-3,0
71740,-0.1875,-13.0625,-5.8125,0
71760,0.6875,-11.5625,-8.625,0
71780,-2.5625,-9.5625,-7.625,0
71800,-4.6875,-7.8125,-6.1875,0
71820,-1.875,-5.8125,-8.6875,0
71840,1.125,-3.5,-11.125,0
71860,1.625,-4.4375,-12.125,0
71880,-4.125,-6.125,-11.9375,0
71900,-4.875,-4.3125,-14.375,0
71920,-5.875,-2.1875,-17.875,0
71940,-5.875,0.25,-23.0625,0
71960,-10.1875,2.625,-25.1875,0
71980,-14.8125,4.1875,-23.6875,0
72000,-14.625,3.875,-22.3125,0
72020,-12.375,2.375,-19.5625,0
72040,-9.4375,3.0625,-23.8125,0
72060,-14.875,5.1875,-25.3125,0
72080,-16.5,6.8125,-23.625,0
72100,-18.375,6.3125,-25.125,0
72120,-18.5,7.8125,-25,0
72140,-20.25,8.4375,-24.5,0
72160,-17.6875,9.5,-26.5,0
72180,-15.8125,10.5,-27.25,0
72200,-19.75,12.9375,-27.375,0
72220,-23.375,13.8125,-31,0
72240,-23.875,14.3125,-31.4375,0
72260,-20.4375,12.8125,-31.625,0
72280,-23.875,11.5,-32.0625,0
72290,-22.8125,13.125,-32.1875,0
72310,-24.875,12.375,-32.0625,0
72330,-24.6875,11.875,-32.375,0
72350,-23.9375,11.1875,-31.5625,0
72370,-22.875,12.5625,-29.5,0
72390,-24,14.1875,-28,0
72410,-23.9375,15.8125,-27.5625,0
72430,-24.0625,18.375,-25.375,0
72450,-25.5625,20.875,-24.125,0
72470,-24.9375,21.625,-23.125,0
72490,-24.9375,22.875,-20.75,0
72510,-24.25,25.3125,-19.8125,0
72530,-22.4375,26.8125,-20.125,0
72550,-22.125,27.125,-21.5,0
72570,-21.4375,29.75,-22.9375,0
72590,-20.8125,31.625,-21.8125,0
72610,-22.0625,32.25,-20.5625,0
72630,-22.4375,33.5,-22.1875,0
72650,-20.875,34,-22.3125,0
72670,-19,34.4375,-22.1875,0
72690,-19.625,35.5,-19.125,0
72710,-18.875,34.9375,-17.5625,0
72730,-18.0625,34.5,-16.3125,0
72750,-18.375,34.875,-15.75,0
72760,-18.75,34.125,-14.75,0
72780,-17.75,32.3125,-13.4375,0
72800,-16,31.625,-12.25,0
72820,-16.125,31.4375,-10.4375,0
72840,-16.875,31.0625,-8.6875,0
72860,-15.9375,31.9375,-7.9375,0
72880,-14.8125,31.5,-6.6875,0
72900,-11.875,29.125,-4.375,0
72920,-9.625,27.5,-2.625,0
72940,-9.5,26.1875,-2.6875,0
72960,-12.375,26.1875,-2.375,0
72980,-13.5,26.125,-2.0625,0
73000,-9.75,24.875,0.1875,0
73020,-6.5,23.1875,2.75,0
73040,-6.5625,21.3125,2.875,0
73060,-7.375,20.875,2,0
73080,-9.5,21,2.6875,0
73100,-9.125,21.625,7.125,0
73120,-3.5,20.875,12,0
73140,3.6875,17.9375,11.75,0
73160,1.9375,19.0625,9.625,0
73180,-6.6875,20.6875,12.75,0
73200,-8.5625,18.625,15.375,0
73220,-5.4375,16.75,16.5,0
73240,-4.375,16.8125,16.1875,0
73260,-6.6875,16.75,14.4375,0
73280,-10.0625,19.375,13.5625,0
73300,-6.0625,18.5,13.25,0
73320,1.875,17.25,12,0
73340,2.5,16.3125,10.6875,0
73360,-1.5,16.9375,9.5625,0
73380,-6.1875,18.0625,9.375,0
73400,-7.25,18.5625,8.3125,0
73420,-6.4375,18.4375,8.875,0
73440,-1.625,17.5625,10.8125,0
73460,4.5,16.6875,10.625,0
73480,3.5,15.75,8.875,0
73500,-2.9375,15.5,10.6875,0
73520,-5.8125,14.3125,13.4375,0
73540,-5.125,12.8125,14.4375,0
73560,-2.25,11.9375,14.375,0
73580,0.75,10.5,14.125,0
73600,-3.4375,7.125,19.6875,0
73620,-5.5625,3.5,25.8125,0
73640,-3.6875,0.75,25.4375,0
73660,-2.25,-0.125,23.125,0
73680,-6.125,0.4375,21.875,0
73700,-7.75,0.0625,20.625,0
73720,-3.75,-1.25,19.5625,0
73740,0.25,-2.75,18.375,0
73760,2.625,-2.5625,17.9375,0
73780,0.9375,-1.75,17.9375,0
73800,-0.1875,-2.375,16.0625,0
73820,0.6875,-1.9375,14.75,0
73840,2.1875,-2.3125,15.5,0
73860,1.1875,-2.8125,16.0625,0
73880,0.3125,-4.0625,15.625,0
73900,0.875,-4.25,14.6875,0
73920,2.5625,-4.125,14.4375,0
73940,5.0625,-4.6875,13.6875,0
73960,4.125,-6.6875,12.4375,0
73980,1.8125,-5.375,13.5625,0
74000,2.25,-5.875,13.4375,0
74020,6.375,-7.125,12.8125,0
74040,9.4375,-7.1875,13.375,0
74060,7.1875,-7.375,11.8125,0
74080,4.1875,-6.9375,10.4375,0
74100,3.875,-6.9375,11,0
74120,4.0625,-7.9375,12.0625,0
74140,7.0625,-8.4375,11.25,0
74160,7.125,-8.6875,9,0
74180,4.8125,-8.625,8.75,0
74200,5.1875,-9.5,7.875,0
74220,6.125,-10.25,8.375,0
74230,7.25,-10.4375,9.0625,0
74250,6,-10.75,8.0625,0
74270,4.4375,-11.75,8,0
74290,1.5,-12.0625,11.5,0
74310,5.75,-12.8125,12.625,0
74330,2.875,-14.0625,11.625,0
74350,0.4375,-14.125,13,0
74370,2.1875,-12.9375,13.125,0
74390,6.5625,-14.5,14.375,0
74410,5.125,-15.9375,15.125,0
74430,3.125,-15.125,15.25,0
74450,3.9375,-14.8125,15.1875,0
74470,2.5625,-16.0625,14.75,0
74490,2.25,-15.75,14.8125,0
74510,5.3125,-15.75,15,0
74530,7.9375,-16.1875,13.4375,0
74550,3.125,-17.125,12.625,0
74570,-0.75,-17.3125,12.5625,0
74590,-0.8125,-15.375,13.6875,0
74610,1.0625,-17,14.0625,0
74630,0.5,-16.1875,13.875,0
74650,6,-15.9375,13.5625,0
74670,5.8125,-18,13.8125,0
74690,-0.6875,-17.125,13.25,0
74710,-0.75,-16.75,12.0625,0
74730,1.9375,-18,12.8125,0
74750,2.0625,-20.8125,11.1875,0
74770,1.375,-20.4375,11.5,0
74790,4.5,-20.0625,9.1875,0
74810,4.6875,-21.75,6.3125,0
74830,-0.625,-23.25,7.25,0
74850,-0.75,-22.625,8.875,0
74870,3.625,-23.5625,7.625,0
74890,2.3125,-25.625,6.8125,0
74910,-3.1875,-26.875,9.5625,0
74930,-4.0625,-27.5,10.5625,0
74950,-0.125,-30.75,7.9375,0
74970,-1.3125,-33.4375,8.3125,0
74990,-5,-33.25,7.125,0
75010,-3.0625,-33.4375,4.1875,0
75030,3.1875,-35.8125,2.375,0
75050,1.4375,-35.9375,1.875,0
75070,-1.75,-33.9375,1.9375,0
75090,3.625,-33.625,-0.5,0
75110,7.875,-35.0625,-3,0
75130,3.3125,-32,-3.0625,0
75150,6.1875,-28.5,-4.625,0
75170,12.4375,-29.4375,-5.75,0
75190,11.125,-28.5625,-5.5625,0
75210,9.625,-26.1875,-6.25,0
75230,6.625,-26.25,-5.75,0
75250,5.3125,-25.5625,-1.4375,0
75270,6.9375,-25.375,-1.125,0
75290,5.375,-25.5625,0,0
75310,5.75,-24.9375,0.5625,0
75330,5.1875,-23.5,-0.8125,0
75350,5,-22.8125,-0.375,0
75370,6.9375,-23.125,-1.4375,0
75390,6.0625,-21.8125,-3.625,0
75410,5.5,-21.4375,-5.5,0
75430,5,-21,-5.75,0
75450,5.0625,-20.75,-5.4375,0
75470,7.125,-19.75,-7,0
75490,5.3125,-21.4375,-9.3125,0
75510,2.75,-21.5625,-9.375,0
75530,3.3125,-21.8125,-9.375,0
75550,4.5,-22.75,-9.8125,0
75570,3.1875,-23.4375,-10.75,0
75590,3.5625,-23.75,-11.4375,0
75610,3.3125,-21.9375,-11.625,0
75630,0,-21.5625,-12.125,0
75650,-1.3125,-23.0625,-12.375,0
75670,1.8125,-23.6875,-13.875,0
75690,5.1875,-23.8125,-17.75,0
75710,2.5625,-23.5625,-20.0625,0
75730,-0.5625,-23.6875,-20.125,0
75750,0.6875,-24.0625,-21.1875,0
75770,1.5,-23.8125,-21.6875,0
75790,2.25,-24.1875,-22.125,0
75810,-3.0625,-23.5625,-22.25,0
75830,-4.125,-22.75,-22.375,0
75850,-7.4375,-22.125,-20,0
75870,-5.5,-20.625,-19,0
75890,-3.625,-20.5625,-19.625,0
75910,-0.4375,-22.3125,-23.625,0
75930,-5.75,-22.75,-24.375,0
75950,-7.5,-21.375,-22.1875,0
75970,-7.4375,-20,-23.5,0
75990,-2.9375,-19.375,-24.8125,0
76010,-3.6875,-18.25,-25.4375,0
76030,-5.4375,-16.1875,-26.4375,0
76050,-6.9375,-13.25,-25.9375,0
76070,-5.75,-11.8125,-26.4375,0
76090,-4.9375,-9.5625,-28.3125,0
76110,-4.375,-6.5625,-29.5,0
76130,-5.0625,-4,-30.125,0
76150,-9.75,0.375,-29.25,0
76170,-9,3.6875,-28.25,0
76190,-4.625,6.25,-28.3125,0
76210,-6.0625,5.3125,-30.5,0
76230,-9.75,7.9375,-33.25,0
76250,-10.25,11.75,-34.125,0
76270,-9.9375,12.6875,-34.0625,0
76290,-13.75,13.9375,-33.6875,0
76310,-14.9375,17,-33.875,0
76330,-16.9375,17.375,-35.625,0
76350,-20.75,19.625,-35.1875,0
76370,-22.875,23.25,-32.6875,0
76390,-19.125,24.5,-31.625,0
76410,-18.1875,26.1875,-31.9375,0
76430,-23.8125,26.4375,-33,0
76450,-26.3125,27.875,-33.5625,0
76470,-26.75,29.3125,-33.8125,0
76490,-24.375,31.125,-32.9375,0
76510,-21.5625,32.5625,-35.375,0
76530,-24.875,32.4375,-35.375,0
76550,-28.1875,30.5625,-32,0
76570,-28.8125,31.8125,-32,0
76590,-27.3125,34,-32.3125,0
76610,-25.4375,32.5625,-31.8125,0
76630,-22.8125,31.875,-30.125,0
76650,-19.5625,30.6875,-27.3125,0
76670,-22.3125,30.3125,-25.1875,0
76690,-26.5,30.0625,-24.9375,0
76710,-30.375,30.5,-22.75,0
76730,-27.75,30.5,-18.3125,0
76750,-21,29.3125,-15.4375,0
76770,-15.375,29.0625,-15.75,0
76790,-17,28.625,-15,0
76810,-19.875,27.875,-12.5625,0
76830,-20.625,26.9375,-9.3125,0
76850,-18.3125,26.9375,-5.8125,0
76870,-14.625,25.875,-4.875,0
76890,-10.75,26.125,-4,0
76910,-9.5,27,-1.6875,0
76930,-8.125,25.8125,1.4375,0
76950,-8.0625,25.0625,3.8125,0
76970,-7.9375,27.625,3.5,0
76990,-6.6875,27.75,3.75,0
77010,-2.1875,27.875,4.25,0
77030,1.625,26.3125,4.9375,0
77050,-2,24.1875,12.625,0
77070,-5.6875,22.5,20.8125,0
77090,-7.375,22.875,21.6875,0
77110,-11.625,25.75,22,0
77130,-10.625,27.125,24.0625,0
77150,-4.0625,25.9375,24.3125,0
77170,3.3125,24.9375,24.625,0
77190,2.0625,24.3125,24.9375,0
77210,-5.1875,26.3125,24.375,0
77230,-11.3125,28.6875,23.625,0
77250,-10.25,28.75,19.5625,0
77270,-4.4375,26.8125,17.4375,0
77290,-0.125,24.9375,20.3125,0
77310,-0.375,25.25,23.75,0
77330,-0.75,24.4375,21.3125,0
77350,-4.1875,25.75,17.6875,0
77370,-12.625,25.5625,18.125,0
77390,-17.25,23.8125,19.3125,0
77410,-13.1875,23.875,20.4375,0
77430,-3.6875,20.6875,17,0
77450,0.0625,17.5,11.8125,0
77470,-6,19.125,12.125,0
77490,-10.5625,18.9375,12.125,0
77510,-10.5625,14.3125,18.125,0
77530,-9.5,11.1875,22,0
77550,-11.4375,11.875,18.9375,0
77570,-12,13.25,17.5,0
77590,-11.5,10.3125,19.6875,0
77610,-5.3125,5.4375,24.25,0
77630,-2.6875,2.5625,25.6875,0
77650,-8.0625,1.125,22.375,0
77660,-12.6875,-0.0625,19.375,0
77680,-11.9375,0.4375,18.5625,0
77700,-7.0625,-1.25,21.1875,0
77720,-1.4375,-4.0625,23.3125,0
77740,-5.4375,-5.1875,23.125,0
77760,-9.125,-3.8125,19.75,0
77780,-8.0625,-2.1875,19.5,0
77800,0.5625,-4.9375,21,0
77820,-1.4375,-7.5625,21.625,0
77840,-3.5,-5.625,22.1875,0
77860,-3.75,-4.6875,17.625,0
77880,-3.25,-5.3125,16.75,0
77900,-1.375,-5.75,17.5625,0
77920,-4,-5.625,17.5,0
77940,-8.75,-6.5625,17.125,0
77960,-13.1875,-7.375,19.125,0
77980,-5.125,-6.625,20.5,0
78000,-0.5625,-8.9375,18.0625,0
78020,-4,-10.4375,18.125,0
78040,-6.625,-9.5,17.125,0
78060,-4.5625,-9,17.0625,0
78080,-1.1875,-12,16.1875,0
78100,-4.5625,-13.8125,16.4375,0
78120,-4.375,-13.125,16.75,0
78140,0.5,-14.625,15,0
78160,1.5625,-16.5625,14.9375,0
78180,-0.1875,-15.75,14.75,0
78200,0.5,-18.625,12.75,0
78220,-0.375,-20.625,12.0625,0
78240,1.8125,-20.375,11.9375,0
78260,3.5,-20.625,11.875,0
78280,2.4375,-22,12.3125,0
78300,2.3125,-22.375,11.1875,0
78320,2.5,-22.0625,11,0
78340,3.625,-22.5,9.75,0
78360,2.375,-21.5625,9.625,0
78380,2.9375,-22.625,7.5625,0
78400,2.4375,-23.5625,8.4375,0
78420,1.875,-22.9375,10.125,0
78440,-1,-22.1875,9.1875,0
78460,-4.6875,-21.9375,9,0
78480,-2.8125,-22.1875,10.375,0
78500,0.125,-23.3125,10.4375,0
78520,-1.25,-24.4375,9.1875,0
78540,-6.8125,-24.9375,9.1875,0
78560,-7,-25.5,9.8125,0
78580,-9.25,-28.9375,9.75,0
78600,-9.3125,-30.9375,11.5,0
78620,-13.125,-31.375,12.5,0
78640,-15.3125,-31.0625,12.875,0
78660,-10.875,-31.125,10.5625,0
78680,-7.3125,-31.75,9.1875,0
78700,-6.5625,-31.125,8.25,0
78720,-8.875,-30.5,7.5,0
78740,-7.4375,-29,5.6875,0
78760,-3.9375,-28.9375,1.375,0
78780,-2.5,-28.625,-1.3125,0
78800,-2.1875,-27.8125,-2.4375,0
78820,-0.125,-26.5625,-4.125,0
78840,1.125,-26.625,-5.8125,0
78860,0.1875,-27.1875,-6.3125,0
78880,1.25,-26.6875,-7.6875,0
78900,1.625,-28.75,-11.6875,0
78920,1.125,-31.1875,-14.5,0
78940,-2.9375,-31.5,-12.5625,0
78960,-2.625,-31.125,-11.4375,0
78980,0.375,-31.5625,-13.25,0
79000,3.625,-31.625,-16.625,0
79020,5,-30.9375,-17.1875,0
79040,5.8125,-30.9375,-16.8125,0
79060,3.875,-30.5,-17.875,0
79080,0.4375,-29.375,-17.9375,0
79100,0.625,-28.9375,-18.6875,0
79120,6.125,-28.1875,-19.0625,0
79140,7.1875,-27.125,-17.125,0
79160,4.5,-26.4375,-17,0
79180,0,-25,-17.5,0
79210,1.9375,-23.0625,-17.75,0
79230,6.4375,-23.25,-18.0625,0
79250,3.25,-23,-18.5,0
79270,0.0625,-21.0625,-19.3125,0
79290,0.25,-20.125,-20.1875,0
79310,3.375,-19.375,-21.6875,0
79330,3.375,-18,-22.4375,0
79350,6.1875,-15.6875,-23.5625,0
79370,6.5,-14.3125,-25.9375,0
79390,5.0625,-12.375,-26.625,0
79410,2.3125,-11.375,-25.3125,0
79430,5.9375,-10.3125,-25.8125,0
79450,6.4375,-9.5625,-29.0625,0
79470,2.5,-9.25,-31.0625,0
79490,2.5625,-8.8125,-29.375,0
79510,3.875,-8.5625,-30.125,0
79530,4.875,-8.9375,-32.875,0
79550,2.8125,-9.125,-32.875,0
79570,0.8125,-8.75,-32.4375,0
79590,1,-8.0625,-33.1875,0
79610,4.4375,-7.25,-33.9375,0
79620,6.5625,-6.75,-35.4375,2001
79640,4.25,-6.8125,-33.5625,0
79660,3.125,-5.875,-28.9375,0
79680,1.8125,-3.25,-27.25,0
79700,-3.125,-0.5625,-29.3125,0
79720,-4.5,-0.5625,-26.3125,0
79740,0.8125,-2.125,-25.0625,0
79760,2.8125,-2.625,-27.3125,0
79780,2.5625,4.1875,-25.5625,0
79800,3.0625,7.25,-26.375,0
79820,8.8125,10.0625,-20.625,0
79840,8.875,10.0625,-13.125,0
79860,6.3125,14.125,-5.8125,0
79880,5.3125,18.6875,-7,0
79900,5.8125,27.5625,-5.0625,0
79920,11,33.4375,-1.6875,0
79940,9.1875,33.6875,0.0625,0
79960,7,37.625,8.25,0
79980,13.25,45.375,18.0625,0
80000,20.3125,50.75,27.1875,0
80020,23.1875,51.3125,28.25,0
80040,11.3125,53.75,31.9375,0
80060,8.625,61.8125,44.5625,0
80080,25.4375,72.25,53.9375,0
80100,46.25,70,51.6875,0
80120,48.375,68.75,41.8125,0
80140,37.125,77.1875,46.5,0
80160,55.25,68,59.625,0
80180,38.875,48.375,64.625,0
80200,35.8125,57.4375,72.6875,0
80220,46.875,43.3125,74.0625,0
80240,54.8125,41.3125,66.75,0
80260,53.5625,30.9375,49,0
80280,58.4375,22.0625,56.0625,0
80300,64.3125,17.625,66.625,0
80320,61,13.9375,69.6875,0
80340,39.4375,10.5,59.125,0
80360,44,9.5,54.125,0
80380,57.6875,9.6875,61,0
80400,55.5625,4.3125,67.875,0
80420,33.6875,-4.625,63.625,0
80440,20.6875,-6.125,62,0
80460,5.125,5.1875,65.625,0
80480,7.8125,6.8125,52.3125,0
80500,17.6875,15.6875,35.375,0
80520,19.4375,17.625,31.8125,0
80540,26,18.0625,45.3125,0
80560,19.5,11.875,51.125,0
80580,3.3125,10.125,44.0625,0
80600,1.0625,6.375,37.75,0
80620,5.8125,3.9375,30.125,0
80640,8.9375,5.875,18.0625,0
80660,8.0625,11.125,13.4375,0
80680,5.5,10.8125,18.375,0
80700,-3.8125,13.75,18.3125,0
80720,-5.625,15.0625,17.625,0
80740,-8.625,16.9375,14.625,0
80760,-5.0625,16.75,11.9375,0
80780,-1.6875,13.3125,9.5,0
80800,-0.375,5.625,9.0625,0
80820,6.375,2.3125,15.125,0
80840,-3.6875,-3.4375,16.375,0
80860,-25.6875,-3.1875,17.5625,0
80880,-31.25,-3.9375,13.5,0
80900,-19.75,-4.9375,8.8125,0
80920,-9.375,-2.6875,5.875,0
80940,-4.0625,-5.0625,7.3125,0
80960,-12.1875,-7.75,9.625,0
80980,-21.1875,-4.1875,2.25,0
81000,-20.1875,-1,0.375,0
81020,-17.3125,-0.5625,0.875,0
81040,-5.6875,1.0625,-0.375,0
81060,0.25,2.75,1.875,0
81080,-0.625,1.5,3.6875,0
81100,-10.6875,2.9375,3,0
81120,-10.9375,3.125,5.6875,0
81140,-1.0625,4.5625,4.125,0
81160,6.5,4.0625,6,2000
81180,6,3.375,6.6875,0
81200,1.3125,1.9375,7.4375,0
81220,-0.1875,0.8125,5.25,0
81240,6.25,1.5,0.4375,0
81260,8.375,4.5625,-3.0625,0
81280,11.5,2.75,-2.6875,0
81300,7,0.1875,1.3125,0
81320,1.625,0.875,0,0
81340,-0.875,1.9375,-4.125,0
81360,2.8125,-0.4375,-8.125,0
81380,8.875,-1.6875,-9.8125,0
81400,6.75,-2,-9.0625,0
81420,0.625,-3.3125,-7.75,0
81440,-0.8125,-4.1875,-5.8125,0
81460,-2.0625,-5.625,-5.9375,0
81480,-2.5,-5.9375,-5.8125,0
81500,-1.125,-5.5,-3.125,0
81520,-0.125,-6.6875,0.125,0
81540,-0.9375,-9.3125,2.375,0
81560,-2,-9.8125,4.125,0
81580,-2.125,-10.25,5.625,0
81600,-2.375,-11.6875,3.25,0
81620,-1.875,-12.1875,2.1875,0
81640,1.625,-13.25,3.6875,0
81660,4.5,-12.5625,4.0625,0
81680,2.3125,-11.9375,3,0
81700,2.375,-12.625,2,0
81720,4.4375,-12.25,-0.0625,0
81740,7,-10.5625,-1.125,0
81760,2,-9.5,-0.875,0
81780,-0.8125,-8.3125,1.5625,0
81800,-1.875,-10.1875,0,0
81820,0.6875,-11.5,-1.5625,0
81840,0.375,-11.8125,-3.4375,0
81860,-0.8125,-11.5,-5.3125,0
81880,1.75,-10.9375,-5.5,0
81900,3.375,-12.4375,-3.375,0
81920,4.5625,-13.75,-1.6875,0
81940,1.875,-13.625,-3.8125,0
81960,-1.0625,-12.1875,-4,0
81980,0.75,-12.5625,-5.3125,0
82000,2.25,-13.25,-6.6875,0
82020,1.5625,-13.8125,-7.5625,0
82040,3.375,-14.1875,-7.125,0
82060,1.375,-12.75,-8.4375,0
82080,-0.1875,-12.625,-10.4375,0
82100,0.8125,-13.5625,-9.8125,0
82120,2.6875,-14.5,-11.5625,0
82140,2,-17,-12.3125,0
82160,-1.25,-15.1875,-9.3125,0
82180,-0.3125,-15.25,-10.375,0
82200,0.375,-13.625,-12.875,0
82220,-0.375,-13.0625,-11.875,0
82240,-1.625,-13.375,-11.125,0
82260,-2.875,-11.875,-11.1875,0
82280,-4.375,-11,-12.9375,0
82300,-5.75,-9.3125,-14.0625,0
82320,-5.375,-7.375,-13.6875,0
82340,-5.9375,-5.125,-13.1875,0
82360,-3.8125,-5.625,-14.6875,0
82380,-4.6875,-4.4375,-14.875,0
82400,-7.375,-5.4375,-15.5,0
82420,-6.9375,-7.875,-16.75,0
82440,-7.125,-7.5625,-18,0
82460,-5.3125,-5.5,-17.75,0
82480,-4.3125,-3.9375,-18.5,0
82500,-7.75,-3.25,-19.8125,0
82520,-9.5,-3.3125,-19.0625,0
82540,-6.9375,-4.0625,-18.6875,0
82560,-7,-2.3125,-20.0625,0
82580,-10.25,-2,-20.625,0
82600,-11.1875,0.3125,-21.0625,0
82620,-8.8125,0.75,-20.6875,0
82640,-9.375,2.5625,-20.8125,0
82660,-12.125,3.125,-20.1875,0
82680,-14.6875,4.75,-20.1875,0
82700,-15.3125,5.375,-19.0625,0
82720,-15.875,6.9375,-18.125,0
82740,-17.6875,7.875,-18.4375,0
82760,-18.875,11.6875,-20.1875,0
82780,-18.25,13.375,-21.5625,0
82800,-19,13.6875,-23.375,0
82820,-19.1875,14.0625,-24.125,0
82840,-23.25,14.875,-26.5,0
82860,-21.3125,16.1875,-27.875,0
82880,-20.125,19.4375,-28.375,0
82900,-22.3125,22,-29.75,0
82920,-26.4375,22.9375,-30.5625,0
82960,-12.5,22.875,-6.75,0
82970,-11.6875,24.875,-5.1875,0
83000,-13.4375,29.3125,-7.9375,0
83010,-6,32.4375,-3.625,0
83030,-9.375,36.625,-4.6875,0
83050,-10.5,37.9375,-6.5625,0
83080,-9.125,36.4375,-5.5625,0
83100,-12.375,36.8125,-4.0625,0
83120,-10.8125,36.5625,-1.5,0
83140,-8,34.875,1.5625,0
83160,-7.9375,32.75,2,0
83180,-8.25,30.75,3.75,0
83200,-9.875,30.9375,6.9375,0
83220,-7.6875,27.8125,9.0625,0
83240,-4.4375,24.4375,8.5625,0
83260,-4.125,18.25,7.625,0
83280,-6.9375,12.6875,9.625,0
83300,-9.6875,11.8125,11.75,0
83320,-7.9375,11.5,13.5,0
83340,-3,9.75,11.8125,0
83360,-1.5,8.1875,12.25,0
83380,-4.0625,8.125,13.375,0
83400,-7.6875,8.1875,11.9375,0
83420,-7,7.5625,8,0
