Timestamp, Angle x, Angle y, Angle z, Marker
40,-1.57278,-0.0266914,0.136875,0
60,-1.56853,-0.00509711,0.0783883,0
80,-1.5803,0.00898487,0.0197248,0
100,-1.60079,0.0198211,-0.0370764,0
120,-1.61073,0.027844,-0.0899489,0
120,-1.60889,0.0322252,-0.139135,0
170,-1.59854,0.0364839,-0.188746,0
170,-1.58832,0.0390921,-0.24146,0
190,-1.58273,0.0369633,-0.296382,0
210,-1.57993,0.0363366,-0.350824,0
230,-1.5677,0.0406021,-0.398847,0
250,-1.54526,0.0483215,-0.442614,0
270,-1.52161,0.0564613,-0.484679,0
290,-1.50379,0.0643433,-0.525502,0
310,-1.49396,0.0704109,-0.560921,0
330,-1.48194,0.0779055,-0.590365,0
350,-1.46753,0.0862919,-0.613227,0
370,-1.45663,0.100042,-0.633738,0
390,-1.44638,0.121565,-0.65326,0
410,-1.44937,0.148957,-0.67346,0
430,-1.44043,0.178306,-0.677537,0
450,-1.45336,0.168723,-0.67638,0
470,-1.47825,0.159755,-0.668881,0
490,-1.47379,0.155471,-0.662731,0
510,-1.46283,0.149295,-0.66645,0
530,-1.45289,0.154216,-0.672196,0
550,-1.45007,0.161469,-0.676936,0
570,-1.45193,0.166904,-0.680299,0
590,-1.45641,0.172128,-0.681816,0
610,-1.46136,0.175841,-0.683539,0
630,-1.46894,0.180104,-0.68565,0
650,-1.4781,0.185592,-0.687713,0
670,-1.48593,0.190609,-0.689021,0
690,-1.49198,0.193256,-0.690041,0
710,-1.49561,0.194113,-0.690444,0
730,-1.49586,0.196082,-0.689809,0
750,-1.49606,0.200408,-0.688249,0
770,-1.49983,0.205721,-0.687568,0
790,-1.50471,0.209705,-0.68803,0
810,-1.51084,0.213794,-0.68846,0
830,-1.51547,0.217304,-0.687918,0
850,-1.51968,0.220096,-0.687185,0
870,-1.52296,0.222751,-0.686819,0
890,-1.52533,0.225693,-0.686843,0
910,-1.52871,0.228169,-0.686882,0
930,-1.53273,0.230564,-0.686802,0
950,-1.53638,0.232798,-0.686899,0
970,-1.53925,0.235451,-0.687097,0
990,-1.54307,0.238607,-0.68734,0
1010,-1.54848,0.241679,-0.687697,0
1030,-1.55336,0.243906,-0.687706,0
1050,-1.5543,0.243353,-0.687606,0
1070,-1.54624,0.224619,-0.685079,0
1090,-1.54653,0.226454,-0.685073,0
1110,-1.52839,0.216066,-0.681005,0
1130,-1.52722,0.209889,-0.680138,0
1150,-1.54479,0.217674,-0.683262,0
1170,-1.56041,0.231716,-0.686797,0
1190,-1.55471,0.235968,-0.686299,0
1210,-1.54789,0.232338,-0.68373,0
1230,-1.55011,0.230251,-0.685301,0
1250,-1.55355,0.23274,-0.68541,0
1270,-1.55676,0.235908,-0.685419,0
1290,-1.5592,0.238006,-0.685235,0
1310,-1.56164,0.240221,-0.685221,0
1330,-1.56133,0.240802,-0.685967,0
1350,-1.56229,0.251306,-0.685567,0
1370,-1.57369,0.261744,-0.687864,0
1380,-1.57852,0.262796,-0.689948,0
1400,-1.57921,0.264493,-0.691614,0
1420,-1.57836,0.26599,-0.692031,0
1440,-1.57844,0.266077,-0.692145,0
1460,-1.57966,0.267237,-0.692468,0
1480,-1.58131,0.268787,-0.693232,0
1500,-1.58222,0.269785,-0.693784,0
1520,-1.58151,0.270404,-0.693902,0
1540,-1.58049,0.271144,-0.693985,0
1560,-1.58057,0.271311,-0.694009,0
1580,-1.58057,0.271391,-0.693918,0
1600,-1.5797,0.271438,-0.694261,0
1620,-1.57664,0.271408,-0.693472,0
1640,-1.56701,0.269471,-0.692254,0
1660,-1.54253,0.261705,-0.690398,0
1680,-1.50639,0.247369,-0.689085,0
1700,-1.46221,0.228947,-0.691342,0
1720,-1.41081,0.209784,-0.697835,0
1740,-1.36248,0.189587,-0.705056,0
1760,-1.32206,0.169082,-0.714055,0
1780,-1.28748,0.149392,-0.725478,0
1800,-1.25848,0.133998,-0.737713,0
1820,-1.23445,0.125502,-0.751145,0
1840,-1.21889,0.121364,-0.764786,0
1860,-1.21059,0.121076,-0.777116,0
1880,-1.20974,0.12472,-0.787929,0
1900,-1.21424,0.130677,-0.797187,0
1920,-1.22424,0.138919,-0.80567,0
1940,-1.23412,0.148049,-0.812686,0
1960,-1.23928,0.156016,-0.817208,0
1980,-1.24102,0.162609,-0.819808,0
2000,-1.24259,0.166981,-0.822162,0
2020,-1.24596,0.170917,-0.824285,0
2040,-1.24881,0.173345,-0.825266,0
2060,-1.24951,0.175547,-0.826361,0
2080,-1.24619,0.178851,-0.826852,0
2100,-1.24115,0.184341,-0.826349,0
2120,-1.23952,0.190299,-0.826549,0
2140,-1.24132,0.19588,-0.826572,0
2160,-1.24433,0.199623,-0.826693,0
2180,-1.24615,0.202676,-0.826652,0
2200,-1.24694,0.204588,-0.825841,0
2220,-1.24706,0.20574,-0.82514,0
2240,-1.24733,0.205694,-0.824265,0
2260,-1.24856,0.204625,-0.823481,0
2280,-1.25067,0.203995,-0.82275,0
2300,-1.25415,0.203316,-0.821886,0
2320,-1.25727,0.202916,-0.820602,0
2340,-1.25993,0.202378,-0.818718,0
2360,-1.26267,0.202353,-0.81677,0
2380,-1.26613,0.2025,-0.815235,0
2400,-1.27014,0.202739,-0.813341,0
2420,-1.27365,0.202782,-0.811261,0
2440,-1.27655,0.202533,-0.809191,0
2460,-1.27871,0.202344,-0.807183,0
2480,-1.28011,0.202316,-0.805146,0
2500,-1.28111,0.201457,-0.803446,0
2520,-1.2829,0.200181,-0.803842,0
2540,-1.28573,0.199362,-0.806622,0
2560,-1.28693,0.198702,-0.811136,0
2580,-1.28514,0.197679,-0.815114,0
2600,-1.2812,0.196492,-0.818737,0
2620,-1.27705,0.194951,-0.822326,0
2640,-1.27503,0.194363,-0.825582,0
2660,-1.27639,0.194876,-0.828293,0
2680,-1.27934,0.195712,-0.830142,0
2700,-1.28191,0.1956,-0.831771,0
2720,-1.28317,0.194621,-0.832856,0
2740,-1.2841,0.193445,-0.833794,0
2760,-1.28395,0.191885,-0.835295,0
2780,-1.28357,0.190642,-0.837434,0
2800,-1.28349,0.189001,-0.840033,0
2820,-1.28369,0.186818,-0.843161,0
2840,-1.28224,0.183731,-0.845741,0
2860,-1.27878,0.178775,-0.848498,0
2880,-1.27358,0.173778,-0.850689,0
2900,-1.2699,0.168177,-0.854546,0
2920,-1.26608,0.161898,-0.858513,0
2940,-1.26067,0.155889,-0.863049,0
2960,-1.25351,0.152033,-0.867865,0
2980,-1.24412,0.151135,-0.868645,0
3000,-1.23857,0.149129,-0.866592,0
3020,-1.23795,0.145524,-0.86388,0
3040,-1.23695,0.143206,-0.859709,0
3060,-1.23462,0.141862,-0.854595,0
3080,-1.23339,0.142823,-0.84806,0
3100,-1.23499,0.145746,-0.843876,0
3120,-1.241,0.134627,-0.839197,0
3140,-1.24798,0.12303,-0.841272,0
3160,-1.24178,0.10722,-0.84329,0
3180,-1.24881,0.129998,-0.848639,0
3200,-1.2435,0.11867,-0.849187,0
3220,-1.24979,0.142463,-0.850888,0
3240,-1.25557,0.1335,-0.851228,0
3260,-1.27379,0.156498,-0.854475,0
3280,-1.27972,0.143837,-0.853651,0
3300,-1.28847,0.163763,-0.853097,0
3320,-1.28617,0.149001,-0.849051,0
3340,-1.29936,0.16916,-0.848331,0
3360,-1.30374,0.155176,-0.845191,0
3380,-1.31782,0.175669,-0.84456,0
3400,-1.32614,0.180656,-0.839995,0
3420,-1.33472,0.185533,-0.838483,0
3440,-1.34298,0.190271,-0.836758,0
3460,-1.34902,0.194904,-0.835363,0
3480,-1.35241,0.198831,-0.834407,0
3500,-1.35335,0.201364,-0.834395,0
3520,-1.35296,0.203331,-0.835007,0
3540,-1.35202,0.205131,-0.83572,0
3560,-1.34953,0.205753,-0.836119,0
3580,-1.34681,0.206249,-0.836497,0
3600,-1.34513,0.206966,-0.837149,0
3620,-1.34486,0.208299,-0.837618,0
3640,-1.34531,0.209732,-0.837339,0
3660,-1.3458,0.210477,-0.836836,0
3680,-1.34649,0.210186,-0.835744,0
3700,-1.34745,0.209925,-0.834468,0
3720,-1.34828,0.209672,-0.833296,0
3740,-1.34905,0.210381,-0.832719,0
3760,-1.35217,0.211034,-0.832656,0
3780,-1.35454,0.211084,-0.833083,0
3800,-1.35557,0.21067,-0.832874,0
3820,-1.35656,0.209234,-0.832635,0
3840,-1.35652,0.207581,-0.832922,0
3860,-1.35511,0.206572,-0.834628,0
3880,-1.35346,0.205337,-0.837206,0
3900,-1.35001,0.205275,-0.838453,0
3920,-1.34541,0.205677,-0.838879,0
3940,-1.3434,0.206419,-0.839099,0
3960,-1.34392,0.206857,-0.839367,0
3980,-1.34458,0.207088,-0.839502,0
4000,-1.34448,0.206887,-0.839126,0
4020,-1.34529,0.206731,-0.838875,0
4040,-1.34839,0.206392,-0.838795,0
4050,-1.35254,0.20522,-0.839365,0
4070,-1.3556,0.203718,-0.840492,0
4090,-1.35728,0.202686,-0.841715,0
4110,-1.35757,0.202891,-0.842858,0
4130,-1.35808,0.204407,-0.844155,0
4150,-1.35984,0.207122,-0.845343,0
4170,-1.36307,0.209934,-0.846307,0
4190,-1.36505,0.212424,-0.846407,0
4210,-1.36549,0.215182,-0.845712,0
4230,-1.36541,0.21792,-0.84496,0
4250,-1.36583,0.2215,-0.845461,0
4270,-1.36575,0.225791,-0.846973,0
4290,-1.36553,0.232103,-0.848767,0
4310,-1.36528,0.239824,-0.850572,0
4330,-1.36713,0.245039,-0.851797,0
4350,-1.36774,0.247202,-0.85455,0
4370,-1.36351,0.249067,-0.856572,0
4390,-1.35729,0.251422,-0.857595,0
4410,-1.35533,0.254736,-0.857082,0
4430,-1.35718,0.255817,-0.857673,0
4450,-1.35999,0.254808,-0.859501,0
4470,-1.36145,0.254398,-0.860204,0
4490,-1.36402,0.25301,-0.859114,0
4510,-1.36743,0.251439,-0.857922,0
4530,-1.37081,0.249398,-0.857503,0
4550,-1.37236,0.247328,-0.857156,0
4570,-1.37152,0.246093,-0.856741,0
4590,-1.36893,0.246172,-0.855754,0
4610,-1.36684,0.245673,-0.854353,0
4630,-1.36565,0.244242,-0.852416,0
4650,-1.36301,0.242047,-0.850683,0
4670,-1.35647,0.239765,-0.849919,0
4690,-1.34421,0.238204,-0.847429,0
4710,-1.32845,0.234219,-0.842666,0
4730,-1.31557,0.226713,-0.83751,0
4750,-1.30813,0.217722,-0.834006,0
4770,-1.30348,0.207613,-0.830126,0
4790,-1.29935,0.200131,-0.825324,0
4810,-1.29256,0.191859,-0.819998,0
4830,-1.28449,0.182849,-0.817403,0
4850,-1.27825,0.173996,-0.817397,0
4870,-1.27764,0.166556,-0.817166,0
4890,-1.28231,0.158236,-0.816567,0
4910,-1.28631,0.147325,-0.815999,0
4930,-1.28574,0.134797,-0.815993,0
4950,-1.2793,0.12152,-0.815054,0
4970,-1.27352,0.108683,-0.813826,0
4990,-1.26997,0.0977681,-0.812994,0
5010,-1.27079,0.0886205,-0.811511,0
5030,-1.27315,0.0797559,-0.81111,0
5050,-1.27463,0.0706426,-0.812182,0
5070,-1.27323,0.0632153,-0.813514,0
5090,-1.26805,0.0588174,-0.814679,0
5110,-1.26308,0.0564079,-0.814296,0
5130,-1.25939,0.0571088,-0.812095,0
5150,-1.25848,0.0590386,-0.809781,0
5170,-1.26137,0.0628486,-0.806558,0
5190,-1.26493,0.0682337,-0.803282,0
5210,-1.26677,0.0768335,-0.79938,0
5230,-1.26997,0.0917636,-0.795022,0
5250,-1.27733,0.113416,-0.792442,0
5270,-1.29019,0.145345,-0.789963,0
5290,-1.31364,0.186737,-0.783934,0
5310,-1.34176,0.227556,-0.778385,0
5330,-1.39433,0.206102,-0.800515,0
5350,-1.4207,0.177798,-0.803191,0
5370,-1.37989,0.187043,-0.78573,0
5390,-1.32987,0.190224,-0.783292,0
5410,-1.303,0.195677,-0.785696,0
5430,-1.30711,0.200851,-0.782158,0
5450,-1.3226,0.199506,-0.779895,0
5470,-1.33595,0.197547,-0.781667,0
5490,-1.34391,0.198159,-0.783159,0
5510,-1.34802,0.198662,-0.782966,0
5530,-1.35155,0.198449,-0.782611,0
5550,-1.35509,0.19877,-0.78402,0
5570,-1.356,0.199508,-0.785341,0
5590,-1.35291,0.199246,-0.786139,0
5610,-1.34923,0.199602,-0.786379,0
5630,-1.34903,0.20053,-0.786044,0
5650,-1.35183,0.200819,-0.785317,0
5670,-1.35561,0.200457,-0.784481,0
5690,-1.35947,0.199803,-0.783417,0
5710,-1.36311,0.199833,-0.781828,0
5730,-1.3675,0.200208,-0.780837,0
5750,-1.3715,0.200407,-0.780695,0
5770,-1.37428,0.200876,-0.780445,0
5790,-1.37671,0.201956,-0.77988,0
5810,-1.37899,0.20289,-0.779482,0
5830,-1.38166,0.203326,-0.779822,0
5850,-1.38484,0.202979,-0.780225,0
5870,-1.38723,0.203511,-0.780536,0
5890,-1.39169,0.205036,-0.779904,0
5910,-1.38936,0.205192,-0.779367,0
5930,-1.38411,0.204618,-0.779802,0
5950,-1.3769,0.203353,-0.782637,0
5970,-1.37109,0.201094,-0.787907,0
5990,-1.36907,0.197676,-0.794828,0
6000,-1.36799,0.194624,-0.801977,0
6030,-1.36691,0.194146,-0.807762,0
6040,-1.37115,0.19699,-0.81163,0
6060,-1.37969,0.201023,-0.813232,0
6080,-1.38869,0.201725,-0.814611,0
6100,-1.39471,0.198417,-0.815997,0
6120,-1.39734,0.196524,-0.817577,0
6140,-1.39871,0.194207,-0.817568,0
6160,-1.40175,0.190852,-0.816742,0
6180,-1.40389,0.187337,-0.816365,0
6200,-1.4059,0.184522,-0.816031,0
6220,-1.40794,0.182628,-0.815471,0
6240,-1.409,0.18061,-0.814378,0
6260,-1.40853,0.180153,-0.813787,0
6280,-1.40894,0.182178,-0.814014,0
6300,-1.41175,0.185097,-0.813693,0
6320,-1.41631,0.18629,-0.813042,0
6340,-1.42204,0.185597,-0.812952,0
6360,-1.42443,0.185539,-0.812617,0
6380,-1.42281,0.186176,-0.811751,0
6400,-1.42064,0.187829,-0.809666,0
6420,-1.4217,0.188631,-0.80694,0
6440,-1.42563,0.188773,-0.803024,0
6460,-1.42912,0.190236,-0.798555,0
6480,-1.42998,0.190082,-0.79419,0
6500,-1.43375,0.187908,-0.790047,0
6520,-1.43934,0.189472,-0.785557,0
6540,-1.45248,0.197032,-0.778137,0
6560,-1.47068,0.198625,-0.776781,0
6580,-1.48207,0.193939,-0.776785,0
6600,-1.4971,0.192465,-0.776208,0
6620,-1.49352,0.197718,-0.769359,0
6640,-1.48289,0.1981,-0.763146,0
6670,-1.47549,0.197479,-0.758052,0
6690,-1.47126,0.196684,-0.753583,0
6710,-1.47096,0.194757,-0.749103,0
6720,-1.46983,0.195435,-0.744246,0
6740,-1.47244,0.196104,-0.743597,0
6760,-1.47573,0.198128,-0.7431,0
6780,-1.48038,0.198948,-0.74263,0
6800,-1.48548,0.198561,-0.740903,0
6820,-1.48945,0.198418,-0.73872,0
6840,-1.49264,0.198978,-0.738725,0
6860,-1.49327,0.197198,-0.741181,0
6880,-1.48762,0.192971,-0.741851,0
6900,-1.47046,0.186154,-0.742077,0
6920,-1.44774,0.177798,-0.747101,0
6940,-1.4252,0.17512,-0.754959,0
6960,-1.40572,0.173673,-0.765653,0
6980,-1.39237,0.169471,-0.778673,0
7000,-1.3792,0.168789,-0.791214,0
7020,-1.37906,0.174367,-0.797318,0
7040,-1.36959,0.17914,-0.793148,0
7060,-1.36827,0.175953,-0.790455,0
7080,-1.37339,0.176606,-0.789975,0
7100,-1.37854,0.177057,-0.789828,0
7120,-1.38447,0.176198,-0.793774,0
7140,-1.38348,0.177549,-0.79783,0
7160,-1.37814,0.179124,-0.800404,0
7180,-1.37068,0.177885,-0.801902,0
7200,-1.36554,0.176306,-0.803409,0
7220,-1.36288,0.175306,-0.804968,0
7240,-1.36362,0.174267,-0.805922,0
7260,-1.36576,0.173521,-0.806718,0
7280,-1.368,0.173251,-0.807601,0
7300,-1.36758,0.171985,-0.808044,0
7320,-1.3672,0.16985,-0.809964,0
7340,-1.36801,0.16851,-0.813039,0
7360,-1.36851,0.168108,-0.815089,0
7380,-1.36706,0.168581,-0.815864,0
7400,-1.36543,0.169818,-0.815701,0
7420,-1.36538,0.171208,-0.813989,0
7440,-1.36707,0.171744,-0.811467,0
7460,-1.36637,0.171501,-0.80813,0
7480,-1.36562,0.17096,-0.805371,0
7500,-1.36534,0.171904,-0.803201,0
7520,-1.36566,0.174093,-0.801468,0
7540,-1.36554,0.176452,-0.800051,0
7560,-1.36439,0.177697,-0.799435,0
7580,-1.36393,0.177015,-0.800331,0
7600,-1.36444,0.176411,-0.801052,0
7620,-1.36469,0.177247,-0.801501,0
7640,-1.36399,0.178399,-0.801666,0
7660,-1.36371,0.178538,-0.801656,0
7680,-1.36445,0.177537,-0.800983,0
7700,-1.36657,0.177246,-0.800455,0
7720,-1.37027,0.178416,-0.800334,0
7740,-1.37478,0.179798,-0.800382,0
7760,-1.37819,0.180301,-0.799573,0
7780,-1.38037,0.181089,-0.798314,0
7800,-1.38145,0.182333,-0.79666,0
7820,-1.38264,0.18357,-0.795347,0
7840,-1.38426,0.184603,-0.794055,0
7860,-1.3858,0.185198,-0.792695,0
7880,-1.38824,0.185582,-0.790894,0
7900,-1.39069,0.186148,-0.788907,0
7920,-1.3925,0.186935,-0.787168,0
7940,-1.39448,0.187798,-0.785726,0
7960,-1.39705,0.189132,-0.784774,0
7980,-1.39979,0.190261,-0.784046,0
8000,-1.40258,0.191485,-0.782932,0
8020,-1.4045,0.192761,-0.781665,0
8040,-1.40645,0.194319,-0.780976,0
8060,-1.40923,0.196328,-0.780879,0
8080,-1.41251,0.198407,-0.780732,0
8100,-1.41557,0.200327,-0.780196,0
8120,-1.41873,0.20203,-0.779821,0
8140,-1.4206,0.20354,-0.778938,0
8160,-1.42197,0.204464,-0.777974,0
8180,-1.42281,0.20454,-0.777072,0
8200,-1.42387,0.204821,-0.776099,0
8220,-1.42435,0.205094,-0.775012,0
8240,-1.42438,0.20486,-0.773801,0
8260,-1.42361,0.204507,-0.772816,0
8280,-1.42174,0.204312,-0.771833,0
8300,-1.41964,0.203994,-0.770471,0
8320,-1.41768,0.203008,-0.76894,0
8340,-1.41641,0.201976,-0.768331,0
8360,-1.41456,0.200782,-0.767677,0
8380,-1.41225,0.199051,-0.766541,0
8400,-1.40976,0.197428,-0.766078,0
8420,-1.40763,0.196003,-0.765799,0
8440,-1.40478,0.193464,-0.765434,0
8460,-1.402,0.190668,-0.764721,0
8480,-1.39838,0.188168,-0.763715,0
8500,-1.39471,0.185661,-0.762087,0
8520,-1.39117,0.18293,-0.760631,0
8540,-1.38713,0.180226,-0.759523,0
8560,-1.38404,0.177959,-0.75818,0
8580,-1.38137,0.176374,-0.756261,0
8600,-1.37904,0.174848,-0.754232,0
8620,-1.37696,0.173629,-0.752534,0
8640,-1.37479,0.172948,-0.750774,0
8660,-1.37378,0.17245,-0.749627,0
8680,-1.37387,0.171627,-0.749136,0
8700,-1.37346,0.170766,-0.749083,0
8720,-1.37162,0.169814,-0.748883,0
8740,-1.36891,0.168617,-0.74882,0
8760,-1.36701,0.167365,-0.749191,0
8780,-1.36598,0.166221,-0.749985,0
8800,-1.36516,0.165104,-0.750886,0
8820,-1.36418,0.163769,-0.751569,0
8840,-1.36224,0.16254,-0.752261,0
8860,-1.35978,0.161663,-0.752888,0
8880,-1.35795,0.161217,-0.75379,0
8900,-1.35732,0.160835,-0.754724,0
8920,-1.35747,0.160778,-0.755566,0
8940,-1.35803,0.161653,-0.756834,0
8960,-1.35895,0.163154,-0.757915,0
8980,-1.36015,0.164662,-0.758794,0
9000,-1.36233,0.166731,-0.759868,0
9020,-1.3648,0.169441,-0.761269,0
9040,-1.36749,0.172562,-0.762773,0
9060,-1.36956,0.175467,-0.764186,0
9080,-1.37013,0.177987,-0.765179,0
9100,-1.37085,0.180159,-0.766112,0
9120,-1.37245,0.182323,-0.767566,0
9140,-1.37499,0.184391,-0.768995,0
9160,-1.37726,0.185498,-0.770851,0
9180,-1.37766,0.185525,-0.772548,0
9200,-1.37666,0.185694,-0.774759,0
9220,-1.37558,0.185704,-0.776976,0
9240,-1.37643,0.185603,-0.779087,0
9260,-1.37816,0.185312,-0.781562,0
9280,-1.37988,0.18491,-0.784125,0
9300,-1.38053,0.185103,-0.785875,0
9320,-1.3813,0.185893,-0.787195,0
9340,-1.38351,0.187129,-0.789022,0
9360,-1.38748,0.189,-0.790772,0
9380,-1.39048,0.190835,-0.791425,0
9400,-1.39409,0.192629,-0.791158,0
9420,-1.39805,0.194528,-0.79046,0
9440,-1.40249,0.195547,-0.789068,0
9450,-1.40694,0.195874,-0.787742,0
9470,-1.41046,0.196057,-0.786737,0
9490,-1.41308,0.19736,-0.786301,0
9510,-1.41433,0.199137,-0.786029,0
9530,-1.41434,0.199877,-0.786,0
9550,-1.41412,0.199855,-0.785887,0
9570,-1.41357,0.200645,-0.786492,0
9590,-1.41274,0.20135,-0.78725,0
9610,-1.41162,0.201733,-0.788101,0
9630,-1.41057,0.201467,-0.789088,0
9650,-1.40944,0.201041,-0.790074,0
9670,-1.40889,0.200803,-0.790983,0
9690,-1.40827,0.200334,-0.791996,0
9710,-1.40803,0.200209,-0.793126,0
9730,-1.40815,0.200287,-0.794083,0
9750,-1.40846,0.200038,-0.79468,0
9770,-1.40898,0.2003,-0.795157,0
9790,-1.40997,0.201175,-0.795668,0
9810,-1.41122,0.202065,-0.795634,0
9830,-1.41326,0.202671,-0.795373,0
9850,-1.41553,0.203299,-0.795229,0
9870,-1.41772,0.204229,-0.794979,0
9890,-1.41873,0.205032,-0.794446,0
9910,-1.41916,0.205721,-0.793884,0
9930,-1.4198,0.206151,-0.793355,0
9950,-1.42066,0.206563,-0.792923,0
9970,-1.42111,0.207209,-0.79284,0
9990,-1.4209,0.207929,-0.792701,0
10010,-1.42076,0.207997,-0.792693,0
10030,-1.42077,0.208038,-0.792713,0
10050,-1.42026,0.20779,-0.792957,0
10070,-1.41903,0.207594,-0.793431,0
10090,-1.41833,0.207673,-0.794036,0
10110,-1.418,0.207816,-0.79468,0
10130,-1.4181,0.207472,-0.795267,0
10150,-1.41752,0.207105,-0.795529,0
10170,-1.41695,0.207018,-0.795873,0
10190,-1.41674,0.207206,-0.795944,0
10210,-1.41683,0.207296,-0.796051,0
10230,-1.41686,0.207069,-0.795558,0
10250,-1.41624,0.206537,-0.795157,0
10270,-1.41626,0.206577,-0.795177,0
10290,-1.41649,0.207409,-0.795163,0
10310,-1.41635,0.207478,-0.795155,0
10330,-1.41452,0.208096,-0.79489,0
10350,-1.41328,0.208659,-0.79449,0
10370,-1.41335,0.208819,-0.794493,0
10390,-1.41444,0.20918,-0.794277,0
10410,-1.41573,0.209144,-0.793806,0
10430,-1.41679,0.208989,-0.792951,0
10450,-1.41804,0.208958,-0.791984,0
10470,-1.41942,0.209197,-0.791434,0
10490,-1.41975,0.209517,-0.790685,0
10510,-1.42123,0.211011,-0.788941,0
10530,-1.42169,0.214806,-0.782818,0
10550,-1.41076,0.219243,-0.774925,0
10570,-1.38928,0.222921,-0.767188,0
10590,-1.36059,0.226075,-0.759899,0
10610,-1.33872,0.226832,-0.748489,0
10630,-1.32049,0.221411,-0.729865,0
10650,-1.30689,0.205876,-0.704058,0
10670,-1.30124,0.168844,-0.67421,0
10690,-1.28866,0.113259,-0.640764,0
10710,-1.26831,0.0444477,-0.604993,0
10730,-1.24499,-0.0324677,-0.568471,0
10750,-1.22159,-0.116845,-0.533796,0
10770,-1.20798,-0.205751,-0.499144,0
10790,-1.21098,-0.297229,-0.464772,0
10810,-1.22819,-0.388094,-0.429227,0
10830,-1.26083,-0.475028,-0.392671,0
10850,-1.30308,-0.558196,-0.352266,0
10860,-1.3523,-0.633562,-0.30453,0
10880,-1.41176,-0.697938,-0.250367,0
10900,-1.47936,-0.754887,-0.186511,0
10920,-1.55379,-0.800065,-0.113259,0
10940,-1.63,-0.831737,-0.0370269,0
10960,-1.70017,-0.852837,0.0365344,0
10980,-1.76722,-0.867758,0.107786,0
11000,-1.83134,-0.873495,0.172188,0
11020,-1.89114,-0.874116,0.228943,0
11040,-1.9397,-0.871296,0.273155,0
11060,-1.97566,-0.867687,0.300785,0
11080,-2.00022,-0.863671,0.314214,0
11100,-2.01472,-0.860153,0.317521,0
11120,-2.02424,-0.857801,0.316403,0
11140,-2.03204,-0.856848,0.317189,0
11160,-2.04015,-0.856088,0.320322,0
11180,-2.04883,-0.856217,0.324666,0
11200,-2.05716,-0.857016,0.328828,0
11220,-2.06286,-0.859055,0.330854,0
11240,-2.06671,-0.861178,0.331801,0
11260,-2.07003,-0.863853,0.332438,0
11280,-2.07294,-0.866907,0.333394,0
11300,-2.07724,-0.870026,0.33834,0
11320,-2.08457,-0.871905,0.347622,0
11340,-2.09359,-0.873136,0.357889,0
11350,-2.10347,-0.874848,0.368082,0
11380,-2.1129,-0.876633,0.376418,0
11390,-2.12169,-0.878584,0.383774,0
11410,-2.13031,-0.880398,0.390471,0
11430,-2.13805,-0.883214,0.396555,0
11450,-2.14441,-0.884944,0.402799,0
11470,-2.15062,-0.886843,0.409102,0
11490,-2.15726,-0.889596,0.414349,0
11510,-2.16395,-0.892795,0.419112,0
11530,-2.16906,-0.895749,0.422899,0
11550,-2.17172,-0.897774,0.425835,0
11570,-2.17356,-0.899051,0.428629,0
11590,-2.17587,-0.899912,0.432149,0
11610,-2.17832,-0.900964,0.435468,0
11630,-2.18057,-0.901748,0.438463,0
11650,-2.18246,-0.90222,0.441831,0
11670,-2.18245,-0.902248,0.443812,0
11690,-2.18099,-0.901883,0.444894,0
11710,-2.17946,-0.902141,0.446851,0
11730,-2.17784,-0.902413,0.448451,0
11750,-2.17622,-0.902784,0.44965,0
11770,-2.1745,-0.903324,0.450395,0
11790,-2.17371,-0.903454,0.452883,0
11810,-2.17365,-0.902843,0.455801,0
11830,-2.17319,-0.902451,0.457971,0
11850,-2.17132,-0.902383,0.458448,0
11870,-2.16918,-0.90207,0.457441,0
11890,-2.1662,-0.901703,0.455288,0
11910,-2.16172,-0.901134,0.451973,0
11930,-2.15541,-0.90078,0.446361,0
11950,-2.14873,-0.901109,0.439946,0
11970,-2.14423,-0.901846,0.434348,0
11990,-2.1422,-0.903634,0.430532,0
12010,-2.1428,-0.906644,0.428702,0
12030,-2.14448,-0.9104,0.428105,0
12050,-2.14735,-0.913575,0.428607,0
12070,-2.1523,-0.917168,0.430776,0
12090,-2.15823,-0.921515,0.43353,0
12110,-2.16469,-0.925288,0.436281,0
12130,-2.1722,-0.929593,0.439443,0
12150,-2.18101,-0.93431,0.443345,0
12170,-2.19063,-0.939909,0.44711,0
12190,-2.19906,-0.945244,0.44871,0
12210,-2.20469,-0.950989,0.448198,0
12230,-2.2076,-0.956473,0.444832,0
12250,-2.20815,-0.961723,0.438561,0
12270,-2.20704,-0.967037,0.430333,0
12290,-2.20468,-0.972421,0.421848,0
12310,-2.20308,-0.978279,0.415997,0
12330,-2.20497,-0.984907,0.413764,0
12350,-2.20924,-0.991424,0.41485,0
12370,-2.21617,-0.997385,0.419666,0
12390,-2.22712,-1.00231,0.428536,0
12410,-2.24145,-1.00676,0.440443,0
12430,-2.25574,-1.00965,0.453332,0
12450,-2.26957,-1.00961,0.466289,0
12470,-2.28291,-1.00693,0.479367,0
12490,-2.2954,-1.00186,0.492604,0
12510,-2.30764,-0.995235,0.506448,0
12530,-2.32058,-0.987646,0.520736,0
12550,-2.33271,-0.979338,0.534196,0
12570,-2.34407,-0.971148,0.546615,0
12590,-2.35382,-0.963977,0.557062,0
12610,-2.36195,-0.958617,0.565673,0
12630,-2.36916,-0.95509,0.571203,0
12650,-2.3739,-0.953583,0.5746,0
12670,-2.37721,-0.953247,0.57674,0
12690,-2.38187,-0.953502,0.579476,0
12710,-2.38528,-0.953723,0.581531,0
12730,-2.3895,-0.954214,0.584349,0
12750,-2.39357,-0.955756,0.585515,0
12770,-2.39775,-0.957465,0.585567,0
12790,-2.39761,-0.957879,0.58293,0
12810,-2.39414,-0.956385,0.577218,0
12830,-2.38629,-0.951588,0.567418,0
12850,-2.37681,-0.945989,0.556086,0
12870,-2.36593,-0.939402,0.542565,0
12890,-2.35789,-0.932186,0.533968,0
12910,-2.34652,-0.923939,0.525751,0
12930,-2.33609,-0.919648,0.515705,0
12950,-2.32662,-0.916147,0.500828,0
12970,-2.31475,-0.911036,0.4843,0
12990,-2.30096,-0.907832,0.471764,0
13010,-2.29503,-0.90612,0.470158,0
13030,-2.29201,-0.902364,0.469639,0
13050,-2.29059,-0.899672,0.473257,0
13070,-2.29726,-0.90013,0.484301,0
13090,-2.30563,-0.906579,0.49982,0
13110,-2.31135,-0.913492,0.508374,0
13130,-2.31236,-0.92034,0.513212,0
13150,-2.31622,-0.927897,0.516864,0
13170,-2.31788,-0.932747,0.515005,0
13190,-2.31422,-0.936329,0.510196,0
13210,-2.31106,-0.941979,0.507019,0
13230,-2.3053,-0.946532,0.496687,0
13250,-2.29775,-0.948981,0.488382,0
13270,-2.29734,-0.955315,0.482906,0
13290,-2.29604,-0.959765,0.47885,0
13310,-2.2898,-0.961969,0.473067,0
13330,-2.28226,-0.965285,0.464801,0
13350,-2.27854,-0.96744,0.456931,0
13370,-2.27432,-0.968193,0.449177,0
13390,-2.27355,-0.970842,0.446212,0
13410,-2.27615,-0.975162,0.447149,0
13430,-2.28069,-0.979009,0.44995,0
13450,-2.28391,-0.982793,0.451565,0
13470,-2.28587,-0.986582,0.452933,0
13490,-2.28778,-0.990449,0.45295,0
13510,-2.29132,-0.992872,0.453569,0
13530,-2.29154,-0.992478,0.452157,0
13550,-2.28959,-0.993095,0.451044,0
13570,-2.28805,-0.995217,0.449587,0
13590,-2.28404,-0.995998,0.445287,0
13610,-2.27617,-0.995039,0.438974,0
13630,-2.26874,-0.996279,0.431731,0
13660,-2.24825,-0.998781,0.411018,0
13680,-2.24468,-0.999819,0.412433,0
13700,-2.24667,-1.00104,0.418571,0
13720,-2.25171,-1.0027,0.423503,0
13740,-2.25726,-1.00665,0.429813,0
13760,-2.26747,-1.01371,0.440457,0
13780,-2.27687,-1.02053,0.448549,0
13800,-2.28271,-1.026,0.451974,0
13820,-2.28014,-1.03059,0.444728,0
13840,-2.27523,-1.03459,0.434334,0
13860,-2.27059,-1.03909,0.430572,0
13880,-2.27146,-1.04374,0.433382,0
13900,-2.27366,-1.04583,0.438822,0
13920,-2.27086,-1.04425,0.441198,0
13940,-2.26513,-1.04072,0.443151,0
13960,-2.2538,-1.03383,0.442789,0
13980,-2.24393,-1.03008,0.445478,0
14000,-2.22857,-1.02492,0.446662,0
14020,-2.20304,-1.02209,0.446194,0
14040,-2.17898,-1.02076,0.44637,0
14060,-2.16524,-1.01919,0.445776,0
14090,-2.11677,-1.01209,0.411123,0
14110,-2.08075,-1.02185,0.378012,0
14130,-2.03941,-1.01912,0.340545,0
14150,-2.01585,-1.00568,0.325357,0
14170,-2.00914,-0.987158,0.332905,0
14190,-2.01557,-0.965363,0.349201,0
14210,-2.02437,-0.94052,0.366544,0
14230,-2.03142,-0.916839,0.381142,0
14250,-2.03645,-0.902109,0.382998,0
14270,-2.04367,-0.899208,0.389112,0
14290,-2.05492,-0.902968,0.402586,0
14310,-2.06681,-0.906746,0.416694,0
14330,-2.07233,-0.90597,0.426778,0
14350,-2.07804,-0.906097,0.435087,0
14370,-2.08549,-0.90601,0.437802,0
14390,-2.09168,-0.906642,0.439509,0
14410,-2.09887,-0.908269,0.44624,0
14430,-2.11023,-0.908363,0.461671,0
14450,-2.12525,-0.907028,0.479289,0
14470,-2.13904,-0.905366,0.493803,0
14490,-2.14864,-0.904353,0.506378,0
14510,-2.15941,-0.906439,0.52007,0
14530,-2.17033,-0.906948,0.529039,0
14550,-2.18188,-0.909678,0.535438,0
14570,-2.19116,-0.913615,0.539319,0
14590,-2.20137,-0.918363,0.547913,0
14610,-2.20981,-0.921539,0.555497,0
14630,-2.22258,-0.933301,0.561368,0
14650,-2.22738,-0.941062,0.56344,0
14670,-2.22165,-0.944307,0.557377,0
14690,-2.21382,-0.949152,0.548974,0
14710,-2.18508,-0.954227,0.509325,0
14730,-2.16943,-0.955524,0.496301,0
14730,-2.15407,-0.952248,0.485727,0
14770,-2.1341,-0.952989,0.47408,0
14790,-2.12715,-0.951138,0.469978,0
14810,-2.12625,-0.948178,0.469782,0
14830,-2.12951,-0.944006,0.47426,0
14850,-2.13462,-0.940471,0.479322,0
14870,-2.13751,-0.938995,0.479949,0
14890,-2.13533,-0.940019,0.472891,0
14910,-2.13003,-0.943362,0.462163,0
14930,-2.12093,-0.944789,0.449126,0
14950,-2.11544,-0.945006,0.438689,0
14970,-2.11541,-0.945073,0.435023,0
14990,-2.11883,-0.944966,0.434589,0
15010,-2.12438,-0.94402,0.438708,0
15030,-2.13018,-0.941829,0.443164,0
15050,-2.13372,-0.938952,0.445104,0
15070,-2.1359,-0.936979,0.446561,0
15090,-2.13897,-0.93986,0.451093,0
15110,-2.14215,-0.943641,0.456481,0
15130,-2.14203,-0.946156,0.459585,0
15150,-2.143,-0.948612,0.463481,0
15170,-2.1435,-0.951171,0.466514,0
15190,-2.14043,-0.951094,0.464914,0
15210,-2.13282,-0.948637,0.456022,0
15230,-2.11863,-0.943614,0.440839,0
15250,-2.09825,-0.938703,0.420576,0
15270,-2.07361,-0.936472,0.392808,0
15290,-2.04578,-0.937867,0.357027,0
15310,-2.01437,-0.941314,0.315652,0
15330,-1.98118,-0.946245,0.275889,0
15350,-1.95754,-0.953483,0.243048,0
15370,-1.94163,-0.963528,0.218446,0
15390,-1.93537,-0.976138,0.197588,0
15410,-1.93335,-0.991558,0.182549,0
15430,-1.93434,-1.00847,0.173225,0
15450,-1.93648,-1.02712,0.169194,0
15470,-1.94438,-1.04237,0.171634,0
15490,-1.95466,-1.05474,0.1762,0
15510,-1.96935,-1.05937,0.182452,0
15530,-1.97639,-1.05543,0.184174,0
15550,-1.97855,-1.04995,0.182963,0
15570,-1.98551,-1.04423,0.186218,0
15590,-1.98658,-1.04346,0.186223,0
15610,-1.99367,-1.04665,0.194683,0
15630,-2.00501,-1.04711,0.207435,0
15650,-2.01215,-1.04697,0.220048,0
15670,-2.01427,-1.04746,0.228053,0
15690,-2.01626,-1.04832,0.231402,0
15710,-2.01848,-1.05032,0.231573,0
15730,-2.01582,-1.05067,0.228914,0
15750,-2.01338,-1.0496,0.22895,0
15770,-2.01191,-1.04957,0.232927,0
15790,-2.01537,-1.05039,0.239547,0
15810,-2.01793,-1.05234,0.242915,0
15830,-2.01737,-1.05527,0.241611,0
15850,-2.01287,-1.0558,0.233628,0
15870,-2.00488,-1.05471,0.222455,0
15890,-1.99654,-1.05567,0.214071,0
15910,-1.99093,-1.05814,0.207617,0
15930,-1.98566,-1.05787,0.199651,0
15950,-1.98068,-1.05803,0.191216,0
15970,-1.97804,-1.06177,0.182327,0
15990,-1.97429,-1.06478,0.172559,0
16010,-1.9683,-1.07045,0.161235,0
16030,-1.96437,-1.0776,0.152512,0
16050,-1.96737,-1.08239,0.149915,0
16070,-1.97757,-1.08626,0.155725,0
16090,-1.99003,-1.08983,0.164322,0
16110,-2.0056,-1.09335,0.174412,0
16130,-2.02308,-1.09512,0.186164,0
16150,-2.03895,-1.09741,0.197064,0
16170,-2.05333,-1.10034,0.206083,0
16190,-2.06552,-1.10207,0.211575,0
16210,-2.07648,-1.10335,0.21803,0
16230,-2.08863,-1.10472,0.227398,0
16250,-2.10435,-1.1069,0.24066,0
16270,-2.12079,-1.10816,0.253778,0
16290,-2.13426,-1.10992,0.264253,0
16310,-2.14413,-1.11206,0.272689,0
16330,-2.15129,-1.11181,0.278461,0
16350,-2.15934,-1.11121,0.281799,0
16370,-2.1623,-1.10927,0.282329,0
16390,-2.16155,-1.10722,0.280957,0
16410,-2.16011,-1.10661,0.278874,0
16430,-2.15676,-1.10466,0.274276,0
16450,-2.15362,-1.10211,0.270438,0
16470,-2.14743,-1.09819,0.265199,0
16490,-2.14368,-1.0952,0.260927,0
16510,-2.14341,-1.09448,0.259067,0
16530,-2.14528,-1.09432,0.258308,0
16550,-2.14797,-1.09495,0.258486,0
16570,-2.1537,-1.09761,0.2613,0
16590,-2.15905,-1.10287,0.26354,0
16610,-2.1599,-1.10738,0.262405,0
16630,-2.15644,-1.11046,0.258267,0
16650,-2.14894,-1.10945,0.251684,0
16670,-2.14259,-1.10865,0.245325,0
16680,-2.13804,-1.10596,0.241277,0
16700,-2.13797,-1.10328,0.238784,0
16720,-2.13556,-1.10159,0.236695,0
16740,-2.13193,-1.10141,0.232142,0
16760,-2.12476,-1.10133,0.222919,0
16780,-2.11799,-1.10169,0.215072,0
16800,-2.11363,-1.10024,0.209883,0
16820,-2.10946,-1.09956,0.2063,0
16840,-2.10491,-1.09752,0.201321,0
16860,-2.1028,-1.09556,0.199772,0
16880,-2.1024,-1.09408,0.199818,0
16900,-2.10355,-1.09394,0.201235,0
16920,-2.10923,-1.09547,0.2071,0
16940,-2.11527,-1.09772,0.213162,0
16960,-2.11996,-1.09988,0.217652,0
16980,-2.12204,-1.10001,0.219813,0
17000,-2.12364,-1.09859,0.222306,0
17020,-2.12505,-1.09679,0.224028,0
17040,-2.12843,-1.09548,0.226781,0
17060,-2.13308,-1.09389,0.230565,0
17080,-2.14042,-1.09218,0.237966,0
17100,-2.1511,-1.09085,0.249241,0
17120,-2.16416,-1.08987,0.26334,0
17140,-2.17849,-1.08985,0.277829,0
17160,-2.18929,-1.08987,0.28894,0
17180,-2.1951,-1.08992,0.296911,0
17200,-2.19783,-1.08875,0.301831,0
17220,-2.19806,-1.08711,0.304549,0
17240,-2.1978,-1.08541,0.307361,0
17260,-2.19685,-1.08326,0.309313,0
17280,-2.19471,-1.08083,0.310908,0
17300,-2.19291,-1.08063,0.311885,0
17320,-2.19101,-1.08036,0.312158,0
17340,-2.18853,-1.08028,0.312204,0
17360,-2.18642,-1.08087,0.31301,0
17380,-2.18459,-1.08225,0.313278,0
17400,-2.17992,-1.08307,0.310532,0
17420,-2.17151,-1.08283,0.304322,0
17440,-2.16189,-1.08269,0.295696,0
17460,-2.15149,-1.08228,0.285726,0
17480,-2.13988,-1.0817,0.275682,0
17500,-2.12702,-1.08127,0.26452,0
17520,-2.11326,-1.0825,0.252,0
17540,-2.09676,-1.08456,0.23729,0
17560,-2.07745,-1.08803,0.220298,0
17580,-2.05358,-1.0923,0.199756,0
17600,-2.02418,-1.09599,0.175053,0
17620,-1.99229,-1.099,0.147059,0
17640,-1.95568,-1.10103,0.113024,0
17660,-1.91324,-1.10052,0.0729094,0
17680,-1.87153,-1.09885,0.0329513,0
17700,-1.83241,-1.09631,-0.0045501,0
17720,-1.79826,-1.09211,-0.037733,0
17740,-1.76672,-1.08841,-0.068257,0
17760,-1.73767,-1.08418,-0.0957943,0
17780,-1.71026,-1.07899,-0.121529,0
17800,-1.68522,-1.07328,-0.144589,0
17820,-1.65983,-1.06598,-0.167512,0
17840,-1.63303,-1.0553,-0.191099,0
17860,-1.6022,-1.04118,-0.216944,0
17880,-1.5681,-1.02467,-0.247073,0
17900,-1.53266,-1.00677,-0.282407,0
17920,-1.4915,-0.98374,-0.324791,0
17940,-1.44454,-0.954564,-0.369814,0
17960,-1.39521,-0.920331,-0.410752,0
17980,-1.34472,-0.878077,-0.445395,0
18000,-1.29666,-0.829938,-0.479434,0
18020,-1.25395,-0.776084,-0.516006,0
18040,-1.21696,-0.71721,-0.549711,0
18060,-1.18185,-0.654762,-0.578522,0
18080,-1.15506,-0.590272,-0.604976,0
18100,-1.13953,-0.526281,-0.630887,0
18120,-1.13356,-0.466255,-0.653973,0
18140,-1.13574,-0.408535,-0.671201,0
18160,-1.13867,-0.355315,-0.685391,0
18180,-1.13597,-0.304566,-0.693686,0
18200,-1.13822,-0.250249,-0.697978,0
18220,-1.14831,-0.200808,-0.70552,0
18240,-1.1546,-0.155888,-0.714081,0
18260,-1.15965,-0.115009,-0.712214,0
18280,-1.15916,-0.0721099,-0.706847,0
18300,-1.15967,-0.0356111,-0.706066,0
18320,-1.16704,-0.00714344,-0.708781,0
18340,-1.17713,0.0170478,-0.709402,0
18360,-1.17828,0.0346459,-0.708084,0
18380,-1.16605,0.0446176,-0.704528,0
18400,-1.15343,0.0486016,-0.699527,0
18420,-1.14788,0.0510943,-0.692334,0
18440,-1.15068,0.0518818,-0.6865,0
18460,-1.15603,0.0502752,-0.683279,0
18480,-1.15851,0.0488021,-0.683712,0
18500,-1.15545,0.0495203,-0.685711,0
18520,-1.15113,0.0524435,-0.686827,0
18540,-1.15066,0.0536422,-0.686876,0
18560,-1.15386,0.0535028,-0.686381,0
18580,-1.15553,0.0538496,-0.685193,0
18600,-1.15609,0.0546464,-0.683861,0
18620,-1.15665,0.0556958,-0.682696,0
18640,-1.15915,0.0569868,-0.68158,0
18660,-1.16359,0.0585855,-0.680405,0
18680,-1.16626,0.0601138,-0.678422,0
18700,-1.16762,0.0603951,-0.675573,0
18720,-1.1682,0.0595998,-0.672421,0
18740,-1.16859,0.0590169,-0.669362,0
18760,-1.16799,0.0587302,-0.666244,0
18780,-1.16645,0.0588726,-0.663026,0
18800,-1.16307,0.0594538,-0.65856,0
18820,-1.16022,0.0592887,-0.654207,0
18840,-1.15849,0.058572,-0.650699,0
18860,-1.15576,0.0580247,-0.64722,0
18880,-1.15232,0.0577263,-0.642363,0
18900,-1.14842,0.057844,-0.636164,0
18920,-1.147,0.059034,-0.629758,0
18940,-1.14824,0.0609962,-0.623887,0
18960,-1.15043,0.0639648,-0.617997,0
18980,-1.15242,0.0680104,-0.61171,0
19000,-1.15451,0.0702133,-0.60592,0
19020,-1.15785,0.0744162,-0.601295,0
19040,-1.16029,0.0813496,-0.59873,0
19060,-1.16293,0.0885911,-0.599023,0
19080,-1.16635,0.0987899,-0.602574,0
19100,-1.16969,0.110214,-0.607439,0
19120,-1.17269,0.121604,-0.610124,0
19140,-1.17154,0.131769,-0.610598,0
19160,-1.16675,0.139497,-0.61131,0
19180,-1.16604,0.143243,-0.613785,0
19200,-1.16854,0.140455,-0.618212,0
19220,-1.16752,0.135403,-0.621662,0
19240,-1.16192,0.132077,-0.62169,0
19260,-1.1566,0.130674,-0.620668,0
19280,-1.15753,0.129851,-0.621282,0
19300,-1.16107,0.129623,-0.623455,0
19320,-1.16192,0.130237,-0.625767,0
19340,-1.16186,0.131463,-0.627782,0
19360,-1.16232,0.132924,-0.629191,0
19380,-1.16418,0.133906,-0.63021,0
19400,-1.16627,0.134283,-0.631194,0
19420,-1.16738,0.133559,-0.631778,0
19440,-1.16762,0.132337,-0.63209,0
19460,-1.1674,0.131306,-0.632095,0
19480,-1.16754,0.130639,-0.631838,0
19500,-1.16824,0.13102,-0.631681,0
19520,-1.16858,0.131609,-0.631562,0
19540,-1.16851,0.132274,-0.631534,0
19560,-1.16844,0.132428,-0.631617,0
19580,-1.16844,0.132428,-0.631617,0
19600,-1.16793,0.133417,-0.63123,0
19620,-1.16783,0.134612,-0.630941,0
19640,-1.16847,0.136168,-0.630647,0
19660,-1.16938,0.138255,-0.630637,0
19680,-1.17029,0.140442,-0.630999,0
19700,-1.17066,0.14318,-0.631433,0
19720,-1.17135,0.146161,-0.632122,0
19740,-1.1723,0.149184,-0.632617,0
19760,-1.17363,0.152573,-0.632864,0
19780,-1.17393,0.156166,-0.632959,0
19800,-1.17462,0.159681,-0.633414,0
19820,-1.17565,0.162776,-0.633998,0
19840,-1.17677,0.165538,-0.635301,0
19860,-1.17775,0.167905,-0.636598,0
19880,-1.1779,0.169631,-0.637977,0
19900,-1.17874,0.169738,-0.64013,0
19920,-1.18034,0.168837,-0.643043,0
19940,-1.17899,0.166234,-0.647409,0
19960,-1.17274,0.163104,-0.653461,0
19980,-1.16462,0.160633,-0.660006,0
20000,-1.16133,0.158089,-0.665525,0
20020,-1.16049,0.154337,-0.672202,0
20040,-1.15917,0.148508,-0.681008,0
20060,-1.15801,0.140951,-0.687672,0
20080,-1.15515,0.131003,-0.692871,0
20100,-1.15112,0.120777,-0.697135,0
20110,-1.14898,0.109172,-0.7014,0
20130,-1.14814,0.0955554,-0.704462,0
20150,-1.14589,0.0794114,-0.704761,0
20170,-1.14173,0.0620447,-0.701691,0
20190,-1.13467,0.0447909,-0.697318,0
20210,-1.12729,0.0285713,-0.691875,0
20230,-1.12329,0.0131492,-0.685148,0
20250,-1.12363,-0.000910372,-0.676219,0
20270,-1.12569,-0.0124393,-0.665421,0
20290,-1.12851,-0.020882,-0.654428,0
20310,-1.129,-0.0270314,-0.643461,0
20330,-1.12891,-0.0308235,-0.632044,0
20350,-1.12768,-0.0319987,-0.621933,0
20370,-1.12811,-0.0325616,-0.616182,0
20390,-1.12972,-0.0316196,-0.613428,0
20410,-1.12769,-0.0295068,-0.610431,0
20430,-1.12681,-0.0276473,-0.607632,0
20450,-1.12563,-0.0259947,-0.604974,0
20470,-1.12444,-0.0236702,-0.602123,0
20490,-1.12041,-0.0203554,-0.597713,0
20510,-1.11835,-0.016,-0.592508,0
20530,-1.11724,-0.0110801,-0.586636,0
20550,-1.12018,-0.00759752,-0.58393,0
20570,-1.12293,-0.00687986,-0.582935,0
20590,-1.1205,-0.00866701,-0.580908,0
20610,-1.11574,-0.00942627,-0.578217,0
20630,-1.11042,-0.00735342,-0.572843,0
20650,-1.11202,-0.00589222,-0.566844,0
20670,-1.11529,-0.00401254,-0.561108,0
20690,-1.11611,-0.00353798,-0.558113,0
20710,-1.11421,-0.00318021,-0.556196,0
20730,-1.11147,-0.00219856,-0.553487,0
20750,-1.10991,-0.00304711,-0.551938,0
20770,-1.10934,-0.00388215,-0.550734,0
20790,-1.1075,-0.00323481,-0.548574,0
20810,-1.10759,-0.00305889,-0.547061,0
20830,-1.10974,-0.00339187,-0.546321,0
20850,-1.1126,-0.00267397,-0.545322,0
20870,-1.11445,-0.00164795,-0.54479,0
20890,-1.11611,-0.000674307,-0.545083,0
20910,-1.11615,0.000542164,-0.546754,0
20930,-1.11855,0.00151324,-0.550322,0
20950,-1.12139,0.0032664,-0.555073,0
20970,-1.12373,0.00464226,-0.559966,0
20990,-1.12388,0.00726165,-0.564793,0
21010,-1.12323,0.0118229,-0.569352,0
21030,-1.12137,0.0192331,-0.573958,0
21050,-1.12236,0.0281256,-0.579005,0
21070,-1.12543,0.0383449,-0.584451,0
21090,-1.12749,0.0485749,-0.590332,0
21110,-1.12745,0.0574078,-0.596404,0
21130,-1.12563,0.0665745,-0.603039,0
21150,-1.12317,0.076176,-0.609785,0
21170,-1.12357,0.086413,-0.617002,0
21190,-1.12361,0.0982374,-0.622006,0
21210,-1.12191,0.10955,-0.625652,0
21230,-1.11806,0.119113,-0.628364,0
21250,-1.11477,0.126569,-0.630752,0
21270,-1.11365,0.133387,-0.632994,0
21290,-1.1163,0.14074,-0.636147,0
21310,-1.12056,0.148348,-0.639794,0
21330,-1.12522,0.155475,-0.64419,0
21350,-1.13126,0.162333,-0.648868,0
21370,-1.1376,0.169135,-0.653359,0
21390,-1.14448,0.174813,-0.656888,0
21410,-1.15058,0.179028,-0.659119,0
21430,-1.15676,0.181618,-0.660628,0
21450,-1.16346,0.183179,-0.661626,0
21470,-1.17033,0.183958,-0.661718,0
21490,-1.176,0.183588,-0.6608,0
21510,-1.18182,0.181942,-0.659057,0
21530,-1.18785,0.179257,-0.65681,0
21550,-1.19398,0.176011,-0.654024,0
21570,-1.19799,0.17196,-0.650756,0
21590,-1.19901,0.167345,-0.646932,0
21610,-1.20107,0.162847,-0.642732,0
21630,-1.20571,0.158162,-0.638547,0
21650,-1.21338,0.152418,-0.633884,0
21670,-1.22662,0.148981,-0.630757,0
21690,-1.24127,0.144048,-0.63035,0
21710,-1.25308,0.135506,-0.631396,0
21730,-1.26704,0.128556,-0.631067,0
21750,-1.28193,0.124572,-0.629869,0
21770,-1.29798,0.119169,-0.630762,0
21790,-1.31923,0.112857,-0.633625,0
21810,-1.34612,0.10904,-0.635844,0
21830,-1.37379,0.107794,-0.636563,0
21850,-1.4117,0.109786,-0.635007,0
21870,-1.4541,0.120214,-0.631756,0
21890,-1.49954,0.139231,-0.63079,0
21910,-1.55372,0.158788,-0.630126,0
21930,-1.61567,0.180657,-0.630557,0
21950,-1.66908,0.204149,-0.63434,0
21970,-1.71582,0.223065,-0.639917,0
21990,-1.75512,0.236224,-0.64507,0
22010,-1.77796,0.244438,-0.648508,0
22030,-1.79821,0.250626,-0.65095,0
22050,-1.80993,0.257422,-0.653058,0
22060,-1.80676,0.262143,-0.654855,0
22070,-1.79095,0.257108,-0.655722,0
22090,-1.77319,0.246035,-0.656807,0
22110,-1.75448,0.23495,-0.657753,0
22130,-1.73719,0.226221,-0.65854,0
22150,-1.72193,0.219292,-0.659658,0
22160,-1.70597,0.212489,-0.65845,0
22180,-1.68657,0.205737,-0.655254,0
22200,-1.66351,0.198342,-0.651416,0
22220,-1.64159,0.187806,-0.646669,0
22240,-1.62102,0.178057,-0.641884,0
22260,-1.59831,0.170962,-0.637305,0
22280,-1.57509,0.163708,-0.632667,0
22300,-1.55844,0.157705,-0.627909,0
22320,-1.54825,0.152846,-0.622888,0
22340,-1.53632,0.149826,-0.617543,0
22360,-1.52347,0.14784,-0.611213,0
22380,-1.51149,0.147331,-0.604989,0
22400,-1.50147,0.147464,-0.598443,0
22420,-1.49581,0.148544,-0.590447,0
22440,-1.49075,0.151013,-0.582113,0
22460,-1.48436,0.15446,-0.574769,0
22480,-1.47741,0.159877,-0.568056,0
22500,-1.47258,0.166198,-0.561063,0
22520,-1.46859,0.171655,-0.55594,0
22540,-1.46169,0.176622,-0.553585,0
22560,-1.45413,0.182354,-0.553849,0
22580,-1.44649,0.191683,-0.55675,0
22600,-1.43719,0.205657,-0.56211,0
22620,-1.4378,0.219155,-0.572923,0
22640,-1.46019,0.223297,-0.588449,0
22660,-1.47288,0.219592,-0.597562,0
22680,-1.46661,0.215223,-0.599789,0
22700,-1.45394,0.213848,-0.600027,0
22720,-1.44557,0.214737,-0.600367,0
22740,-1.45052,0.21727,-0.602469,0
22760,-1.46406,0.220204,-0.606026,0
22780,-1.47656,0.22325,-0.609548,0
22800,-1.48247,0.225989,-0.611477,0
22810,-1.48379,0.228101,-0.612238,0
22830,-1.48469,0.229629,-0.612492,0
22850,-1.48632,0.23048,-0.61274,0
22870,-1.48803,0.230112,-0.612735,0
22890,-1.48797,0.229868,-0.612821,0
22910,-1.48575,0.229419,-0.613232,0
22930,-1.48284,0.228989,-0.614047,0
22950,-1.48055,0.22827,-0.615016,0
22970,-1.47806,0.227128,-0.61587,0
22990,-1.47536,0.225753,-0.616434,0
23010,-1.47259,0.224666,-0.616549,0
23030,-1.47049,0.224148,-0.616442,0
23050,-1.46905,0.224046,-0.6163,0
23070,-1.46825,0.223484,-0.616147,0
23090,-1.46708,0.222781,-0.615576,0
23110,-1.46607,0.222134,-0.614939,0
23130,-1.46535,0.221926,-0.614618,0
23150,-1.4652,0.22198,-0.614605,0
23170,-1.46478,0.221505,-0.614021,0
23190,-1.4646,0.220913,-0.613745,0
23210,-1.46389,0.220206,-0.613507,0
23230,-1.46277,0.219918,-0.613493,0
23250,-1.46218,0.21967,-0.61354,0
23270,-1.46114,0.219272,-0.613454,0
23290,-1.46098,0.219291,-0.613425,0
23310,-1.46024,0.219173,-0.613364,0
23330,-1.46024,0.219173,-0.613364,0
23350,-1.46024,0.219173,-0.613364,0
23370,-1.46024,0.219173,-0.613364,0
23390,-1.46023,0.219249,-0.613267,0
23410,-1.46065,0.219752,-0.613383,0
23430,-1.46136,0.220384,-0.613716,0
23450,-1.46185,0.22113,-0.613742,0
23470,-1.46197,0.221777,-0.613849,0
23490,-1.46217,0.222167,-0.613947,0
23510,-1.46312,0.222523,-0.614303,0
23530,-1.46414,0.223122,-0.614568,0
23550,-1.46478,0.223738,-0.614707,0
23570,-1.46498,0.224204,-0.61471,0
23590,-1.46498,0.224204,-0.61471,0
23610,-1.46498,0.224204,-0.61471,0
23630,-1.46511,0.224539,-0.614723,0
23650,-1.46547,0.224986,-0.614755,0
23670,-1.46563,0.224967,-0.614784,0
23690,-1.46575,0.225419,-0.614589,0
23710,-1.46555,0.226103,-0.614641,0
23730,-1.46539,0.22647,-0.614724,0
23750,-1.46539,0.22647,-0.614724,0
23770,-1.46532,0.226379,-0.614621,0
23790,-1.46575,0.226918,-0.614757,0
23810,-1.46625,0.227276,-0.614788,0
23830,-1.46647,0.227576,-0.614631,0
23850,-1.4664,0.227485,-0.614528,0
23870,-1.46661,0.227911,-0.614645,0
23890,-1.46681,0.228377,-0.61465,0
23910,-1.46685,0.228787,-0.614722,0
23930,-1.46701,0.228768,-0.614751,0
23950,-1.46701,0.228768,-0.614751,0
23970,-1.46774,0.229198,-0.614916,0
23990,-1.46878,0.229561,-0.614996,0
24010,-1.47035,0.230076,-0.615061,0
24030,-1.47185,0.230812,-0.615121,0
24050,-1.47393,0.23165,-0.615209,0
24070,-1.47663,0.232578,-0.615581,0
24090,-1.47889,0.233009,-0.615703,0
24110,-1.48012,0.233189,-0.615658,0
24130,-1.48017,0.233474,-0.61546,0
24150,-1.48062,0.23389,-0.61533,0
24170,-1.48093,0.233859,-0.615263,0
24190,-1.48093,0.233895,-0.615278,0
24210,-1.47904,0.233374,-0.615255,0
24230,-1.47638,0.232818,-0.615546,0
24250,-1.47344,0.23206,-0.615715,0
24270,-1.47118,0.231254,-0.615952,0
24290,-1.46991,0.230791,-0.616203,0
24310,-1.46923,0.230501,-0.616509,0
24330,-1.46879,0.230087,-0.616644,0
24350,-1.46849,0.229966,-0.616906,0
24370,-1.4681,0.229761,-0.616937,0
24390,-1.46811,0.229796,-0.616952,0
24410,-1.46796,0.229851,-0.616938,0
24430,-1.46722,0.229345,-0.61687,0
24450,-1.46625,0.229003,-0.616862,0
24470,-1.46535,0.228601,-0.617151,0
24490,-1.4643,0.228253,-0.617427,0
24510,-1.46313,0.227446,-0.617417,0
24530,-1.46225,0.226808,-0.617516,0
24550,-1.46225,0.226808,-0.617516,0
24570,-1.46263,0.226527,-0.617919,0
24590,-1.46263,0.226527,-0.617919,0
24610,-1.46263,0.226527,-0.617919,0
24630,-1.46307,0.226677,-0.618055,0
24650,-1.46351,0.226978,-0.617998,0
24670,-1.46404,0.22733,-0.618156,0
24690,-1.46404,0.22733,-0.618156,0
24710,-1.46404,0.22733,-0.618156,0
24730,-1.46438,0.22763,-0.618254,0
24750,-1.46468,0.227945,-0.618296,0
24770,-1.46468,0.227945,-0.618296,0
24790,-1.46468,0.227945,-0.618296,0
24810,-1.46468,0.227945,-0.618296,0
24830,-1.46468,0.227945,-0.618296,0
24850,-1.46467,0.227909,-0.618281,0
24870,-1.46467,0.227909,-0.618281,0
24890,-1.46467,0.227909,-0.618281,0
24910,-1.46467,0.227909,-0.618281,0
24930,-1.46467,0.227909,-0.618281,0
24950,-1.46467,0.227909,-0.618281,0
24970,-1.46468,0.227945,-0.618296,0
24990,-1.46399,0.22796,-0.618221,0
25010,-1.46346,0.227845,-0.618255,0
25030,-1.46316,0.227878,-0.618325,0
25050,-1.46323,0.22797,-0.618428,0
25070,-1.46323,0.22797,-0.618428,0
25090,-1.46336,0.228268,-0.618426,0
25110,-1.46359,0.228305,-0.618542,0
25130,-1.46336,0.228268,-0.618426,0
25150,-1.46336,0.228268,-0.618426,0
25170,-1.46336,0.228268,-0.618426,0
25190,-1.46336,0.228268,-0.618426,0
25210,-1.46308,0.228024,-0.618415,0
25230,-1.46307,0.227989,-0.618399,0
25250,-1.46339,0.227839,-0.618538,0
25270,-1.46345,0.227895,-0.618625,0
25290,-1.46345,0.227895,-0.618625,0
25310,-1.46248,0.227742,-0.618443,0
25330,-1.46171,0.227792,-0.618539,0
25350,-1.46156,0.227771,-0.618622,0
25370,-1.46156,0.227771,-0.618622,0
25390,-1.46157,0.227806,-0.618638,0
25410,-1.46157,0.227806,-0.618638,0
25430,-1.46157,0.227806,-0.618638,0
25450,-1.46141,0.227825,-0.618609,0
25470,-1.46141,0.227825,-0.618609,0
25480,-1.46141,0.227825,-0.618609,0
25500,-1.4614,0.227901,-0.618512,0
25520,-1.46148,0.227992,-0.618615,0
25540,-1.46148,0.227992,-0.618615,0
25560,-1.46148,0.227992,-0.618615,0
25580,-1.46148,0.227992,-0.618615,0
25600,-1.46148,0.227992,-0.618615,0
25620,-1.46131,0.228011,-0.618586,0
25640,-1.46132,0.228047,-0.618602,0
25660,-1.46131,0.228011,-0.618586,0
25680,-1.46132,0.228047,-0.618602,0
25700,-1.46101,0.228045,-0.618656,0
25720,-1.46101,0.228045,-0.618656,0
25740,-1.46102,0.228156,-0.618575,0
25760,-1.46086,0.228175,-0.618546,0
25780,-1.46086,0.228175,-0.618546,0
25800,-1.46086,0.228175,-0.618546,0
25820,-1.46093,0.228266,-0.618649,0
25840,-1.46092,0.228342,-0.618553,0
25860,-1.46092,0.228342,-0.618553,0
25880,-1.46092,0.228342,-0.618553,0
25900,-1.46092,0.228342,-0.618553,0
25920,-1.46077,0.228397,-0.61854,0
25940,-1.46077,0.228397,-0.61854,0
25960,-1.46077,0.228397,-0.61854,0
25980,-1.46077,0.228397,-0.61854,0
26000,-1.46077,0.228397,-0.61854,0
26020,-1.46084,0.228564,-0.618546,0
26040,-1.46084,0.228564,-0.618546,0
26060,-1.46084,0.228564,-0.618546,0
26080,-1.46084,0.228564,-0.618546,0
26100,-1.46141,0.228901,-0.61876,0
26120,-1.46244,0.229583,-0.619416,0
26140,-1.46567,0.231721,-0.619425,0
26160,-1.46674,0.234937,-0.615369,0
26180,-1.45029,0.234166,-0.609978,0
26200,-1.42033,0.230766,-0.601809,0
26220,-1.39447,0.224258,-0.594963,0
26240,-1.37173,0.211817,-0.582078,0
26260,-1.34882,0.187049,-0.563057,0
26280,-1.32131,0.139787,-0.537704,0
26300,-1.28263,0.0742693,-0.509494,0
26320,-1.24845,-0.00439149,-0.483021,0
26340,-1.22701,-0.0948173,-0.454462,0
26360,-1.21878,-0.195991,-0.421939,0
26380,-1.22427,-0.304484,-0.387037,0
26400,-1.25307,-0.41868,-0.349186,0
26420,-1.30595,-0.531242,-0.302503,0
26440,-1.37999,-0.632329,-0.246598,0
26460,-1.46882,-0.72492,-0.166941,0
26480,-1.56665,-0.803602,-0.0696332,0
26500,-1.67254,-0.861901,0.0361249,0
26520,-1.78375,-0.898894,0.13995,0
26540,-1.88767,-0.921506,0.234911,0
26580,-2.11251,-0.931638,0.417203,0
26600,-2.15377,-0.932591,0.437824,0
26620,-2.18357,-0.936145,0.447465,0
26640,-2.206,-0.940336,0.449476,0
26660,-2.22088,-0.943928,0.445915,0
26680,-2.23184,-0.94766,0.440608,0
26700,-2.24244,-0.953369,0.437779,0
26720,-2.25376,-0.960256,0.439563,0
26740,-2.26527,-0.966628,0.44541,0
26760,-2.27739,-0.971203,0.453744,0
26780,-2.29074,-0.975004,0.463004,0
26800,-2.30589,-0.980051,0.474395,0
26820,-2.32029,-0.985114,0.486199,0
26840,-2.33084,-0.985879,0.494218,0
26860,-2.33924,-0.984551,0.502243,0
26880,-2.34823,-0.982661,0.511846,0
26900,-2.35792,-0.979977,0.520634,0
26920,-2.36849,-0.977064,0.528987,0
26940,-2.37825,-0.975739,0.537148,0
26960,-2.39015,-0.975808,0.546541,0
26980,-2.40267,-0.977401,0.555654,0
27000,-2.41381,-0.979681,0.565522,0
27020,-2.42272,-0.982871,0.572524,0
27040,-2.42086,-0.98375,0.568058,0
27060,-2.41133,-0.982952,0.563447,0
27080,-2.41145,-0.982141,0.568438,0
27100,-2.41831,-0.978123,0.57281,0
27120,-2.42367,-0.97457,0.575371,0
27140,-2.42953,-0.974012,0.580562,0
27160,-2.43433,-0.974743,0.584173,0
27180,-2.43748,-0.97497,0.586497,0
27200,-2.44066,-0.973734,0.591296,0
27220,-2.44231,-0.971226,0.595676,0
27240,-2.44299,-0.969579,0.597643,0
27260,-2.44409,-0.968899,0.598587,0
27280,-2.44474,-0.970369,0.597744,0
27300,-2.4434,-0.972729,0.5947,0
27320,-2.44083,-0.974315,0.591238,0
27340,-2.43924,-0.974815,0.588952,0
27360,-2.43768,-0.973183,0.587646,0
27380,-2.43589,-0.972803,0.586616,0
27400,-2.4379,-0.97653,0.588655,0
27420,-2.4397,-0.981004,0.588457,0
27430,-2.43756,-0.984129,0.585172,0
27450,-2.43168,-0.986036,0.581103,0
27470,-2.42444,-0.987637,0.576314,0
27490,-2.41911,-0.989282,0.57123,0
27510,-2.41194,-0.990008,0.562682,0
27530,-2.40227,-0.987544,0.552636,0
27550,-2.39498,-0.98482,0.54755,0
27570,-2.39459,-0.98338,0.549697,0
27590,-2.39956,-0.982767,0.556371,0
27610,-2.4059,-0.982313,0.564754,0
27630,-2.41497,-0.982177,0.575289,0
27650,-2.42257,-0.982146,0.583476,0
27670,-2.42745,-0.982644,0.588831,0
27690,-2.43118,-0.984217,0.592117,0
27710,-2.43159,-0.986092,0.590735,0
27730,-2.42784,-0.988148,0.585136,0
27750,-2.42132,-0.989416,0.577951,0
27770,-2.41403,-0.99173,0.569471,0
27790,-2.40597,-0.996155,0.559095,0
27810,-2.39464,-1.00144,0.546112,0
27830,-2.3793,-1.00562,0.530744,0
27850,-2.36309,-1.01053,0.514472,0
27870,-2.34326,-1.01648,0.495982,0
27890,-2.31966,-1.0231,0.474412,0
27910,-2.29345,-1.02923,0.449574,0
27930,-2.26296,-1.03654,0.419952,0
27950,-2.22577,-1.04478,0.385398,0
27970,-2.17887,-1.05191,0.345093,0
27990,-2.12659,-1.0555,0.300777,0
28010,-2.0706,-1.05489,0.251028,0
28030,-2.00708,-1.051,0.193977,0
28050,-1.93539,-1.04092,0.12897,0
28070,-1.86441,-1.02517,0.0618909,0
28090,-1.78663,-1.0063,-0.00984595,0
28110,-1.70267,-0.978366,-0.0842151,0
28130,-1.62372,-0.940879,-0.157716,0
28150,-1.5513,-0.897815,-0.229301,0
28170,-1.48584,-0.853085,-0.295066,0
28190,-1.42388,-0.801084,-0.353931,0
28210,-1.37196,-0.742266,-0.406155,0
28230,-1.32741,-0.693179,-0.450105,0
28250,-1.29088,-0.653158,-0.48288,0
28270,-1.26756,-0.622435,-0.493349,0
28290,-1.25183,-0.608175,-0.491601,0
28310,-1.24337,-0.610845,-0.486304,0
28330,-1.24709,-0.625011,-0.475926,0
28350,-1.26375,-0.647852,-0.461396,0
28370,-1.286,-0.675142,-0.443813,0
28390,-1.31104,-0.708198,-0.418029,0
28410,-1.34338,-0.745732,-0.383869,0
28430,-1.38658,-0.787018,-0.344296,0
28450,-1.44044,-0.828766,-0.296888,0
28470,-1.50486,-0.869173,-0.239986,0
28490,-1.57901,-0.907857,-0.174135,0
28510,-1.66068,-0.942155,-0.0995479,0
28530,-1.74703,-0.969771,-0.0193608,0
28540,-1.83527,-0.991289,0.0634445,0
28560,-1.92357,-1.00703,0.148143,0
28580,-2.00843,-1.01836,0.230441,0
28600,-2.08882,-1.02423,0.306786,0
28620,-2.15933,-1.0262,0.37486,0
28640,-2.2208,-1.02454,0.435044,0
28660,-2.2758,-1.02271,0.487132,0
28680,-2.32281,-1.02082,0.528881,0
28700,-2.3586,-1.01836,0.560506,0
28720,-2.38499,-1.01529,0.582589,0
28740,-2.40364,-1.01286,0.597769,0
28760,-2.41488,-1.01131,0.606715,0
28780,-2.42207,-1.00965,0.61026,0
28800,-2.42279,-1.00622,0.607849,0
28820,-2.41912,-1.00189,0.604414,0
28840,-2.41773,-0.998459,0.604378,0
28860,-2.41891,-0.996795,0.60479,0
28880,-2.42048,-0.996677,0.604692,0
28900,-2.42272,-0.996977,0.606308,0
28920,-2.4257,-0.997814,0.609315,0
28940,-2.42836,-0.998245,0.612247,0
28960,-2.42934,-0.998168,0.613222,0
28980,-2.42981,-0.997715,0.613546,0
29000,-2.42807,-0.997541,0.61263,0
29020,-2.42443,-0.997073,0.61039,0
29040,-2.42144,-0.995949,0.608451,0
29060,-2.41871,-0.99412,0.609112,0
29080,-2.41732,-0.992279,0.611382,0
29100,-2.41516,-0.990415,0.612165,0
29120,-2.41447,-0.988311,0.614345,0
29140,-2.41479,-0.986069,0.616966,0
29160,-2.41532,-0.984596,0.6197,0
29180,-2.41614,-0.984187,0.622813,0
29200,-2.42139,-0.986245,0.631849,0
29230,-2.42777,-0.98736,0.640959,0
29250,-2.43152,-0.987746,0.644722,0
29270,-2.43509,-0.988234,0.647859,0
29290,-2.4394,-0.989164,0.651303,0
29310,-2.44429,-0.989881,0.655003,0
29330,-2.4492,-0.991583,0.658363,0
29350,-2.45262,-0.99411,0.65944,0
29370,-2.45456,-0.99726,0.659048,0
29390,-2.45387,-1.00188,0.655885,0
29410,-2.45099,-1.00811,0.651233,0
29430,-2.44481,-1.01532,0.643304,0
29440,-2.43672,-1.02442,0.631687,0
29470,-2.31653,-1.07057,0.506958,0
29490,-2.26174,-1.08274,0.449432,0
29510,-2.1959,-1.09311,0.379344,0
29520,-2.12185,-1.10189,0.299158,0
29540,-2.04275,-1.10749,0.21423,0
29560,-1.95379,-1.10845,0.123747,0
29580,-1.85814,-1.10375,0.0300197,0
29600,-1.7693,-1.09456,-0.0595606,0
29620,-1.68783,-1.08199,-0.144493,0
29640,-1.60895,-1.06437,-0.223873,0
29660,-1.53009,-1.04445,-0.2986,0
29680,-1.45583,-1.02253,-0.368482,0
29700,-1.39611,-0.999336,-0.429,0
29720,-1.34367,-0.976003,-0.482591,0
29740,-1.29034,-0.95295,-0.531928,0
29760,-1.23938,-0.929211,-0.574372,0
29780,-1.1998,-0.9044,-0.606081,0
29800,-1.16524,-0.881966,-0.632653,0
29820,-1.12914,-0.862228,-0.658791,0
29840,-1.09205,-0.841781,-0.686617,0
29860,-1.05478,-0.822739,-0.71268,0
29880,-1.02162,-0.808472,-0.731029,0
29900,-0.986349,-0.797642,-0.74654,0
29920,-0.953693,-0.785533,-0.760745,0
29940,-0.928453,-0.773084,-0.770713,0
29960,-0.911971,-0.756851,-0.782347,0
29980,-0.914381,-0.737367,-0.791257,0
30000,-0.92404,-0.72006,-0.795108,0
30020,-0.928539,-0.705733,-0.793555,0
30040,-0.923192,-0.694646,-0.789609,0
30060,-0.918407,-0.686019,-0.785036,0
30080,-0.918697,-0.677829,-0.783461,0
30100,-0.922632,-0.669542,-0.783789,0
30120,-0.929506,-0.659863,-0.782794,0
30140,-0.939722,-0.648834,-0.779464,0
30160,-0.951675,-0.637368,-0.772263,0
30180,-0.961222,-0.625267,-0.766046,0
30200,-0.970039,-0.612566,-0.763329,0
30220,-0.985824,-0.600157,-0.765934,0
30240,-1.01118,-0.586636,-0.776794,0
30260,-1.05133,-0.566583,-0.792158,0
30280,-1.09498,-0.545502,-0.804116,0
30300,-1.11909,-0.516212,-0.801088,0
30320,-1.10129,-0.498334,-0.7907,0
30340,-1.06654,-0.493755,-0.784204,0
30360,-1.03829,-0.495103,-0.788104,0
30380,-1.03216,-0.494898,-0.797971,0
30400,-1.04272,-0.490173,-0.805908,0
30420,-1.05215,-0.483969,-0.80849,0
30440,-1.0512,-0.479293,-0.806634,0
30460,-1.04275,-0.477877,-0.803157,0
30480,-1.03649,-0.47871,-0.799912,0
30500,-1.03792,-0.47951,-0.798342,0
30520,-1.04384,-0.479103,-0.797805,0
30540,-1.04914,-0.478413,-0.796887,0
30560,-1.05047,-0.477127,-0.795303,0
30580,-1.05049,-0.476476,-0.794959,0
30600,-1.05128,-0.476241,-0.794966,0
30620,-1.05239,-0.475791,-0.793991,0
30640,-1.05273,-0.475756,-0.792506,0
30660,-1.05213,-0.476594,-0.791718,0
30680,-1.05229,-0.47726,-0.79174,0
30700,-1.0534,-0.477991,-0.791016,0
30710,-1.05547,-0.47908,-0.790165,0
30730,-1.05777,-0.480323,-0.788331,0
30750,-1.0614,-0.481212,-0.785882,0
30770,-1.06563,-0.481573,-0.783628,0
30790,-1.06947,-0.482285,-0.781407,0
30810,-1.07235,-0.483424,-0.778784,0
30830,-1.0748,-0.484989,-0.776301,0
30850,-1.07716,-0.486065,-0.774148,0
30870,-1.07975,-0.486613,-0.772549,0
30890,-1.08229,-0.487109,-0.770547,0
30910,-1.08511,-0.488021,-0.768385,0
30930,-1.08667,-0.488611,-0.766056,0
30950,-1.08816,-0.488691,-0.763622,0
30970,-1.09024,-0.488543,-0.762006,0
30990,-1.09195,-0.488401,-0.760865,0
31010,-1.09343,-0.488017,-0.760071,0
31030,-1.09403,-0.487642,-0.759247,0
31050,-1.09395,-0.486751,-0.75891,0
31070,-1.093,-0.485795,-0.759077,0
31090,-1.09266,-0.484589,-0.759579,0
31110,-1.09215,-0.482618,-0.76013,0
31130,-1.09143,-0.479601,-0.761086,0
31150,-1.09022,-0.475955,-0.762385,0
31170,-1.08847,-0.471423,-0.764213,0
31190,-1.08545,-0.467011,-0.765684,0
31210,-1.08188,-0.462462,-0.768627,0
31230,-1.07779,-0.457433,-0.771429,0
31250,-1.0752,-0.45263,-0.774141,0
31270,-1.07127,-0.448989,-0.776674,0
31290,-1.06563,-0.449103,-0.780189,0
31310,-1.05748,-0.453282,-0.78423,0
31330,-1.04795,-0.458708,-0.787038,0
31350,-1.03578,-0.464507,-0.788871,0
31370,-1.02355,-0.470465,-0.792728,0
31390,-1.01092,-0.476645,-0.796961,0
31410,-0.997368,-0.482493,-0.800809,0
31430,-0.98515,-0.488268,-0.804473,0
31450,-0.975575,-0.493249,-0.808664,0
31470,-0.967804,-0.496204,-0.81317,0
31490,-0.962538,-0.496969,-0.815418,0
31510,-0.959703,-0.497979,-0.817199,0
31530,-0.959365,-0.498882,-0.819804,0
31550,-0.959912,-0.499,-0.821692,0
31570,-0.960981,-0.498635,-0.822294,0
31590,-0.962204,-0.498403,-0.822529,0
31610,-0.962666,-0.49794,-0.822536,0
31630,-0.962666,-0.49794,-0.822536,0
31650,-0.961961,-0.49764,-0.822715,0
31670,-0.960973,-0.497079,-0.823145,0
31690,-0.959055,-0.496903,-0.823616,0
31710,-0.957003,-0.496591,-0.824983,0
31730,-0.954865,-0.495937,-0.826803,0
31750,-0.952838,-0.494872,-0.828265,0
31770,-0.950808,-0.49347,-0.83026,0
31790,-0.948767,-0.491451,-0.832628,0
31810,-0.946894,-0.489603,-0.834463,0
31830,-0.945505,-0.487331,-0.836137,0
31850,-0.944482,-0.485341,-0.837637,0
31870,-0.943796,-0.483911,-0.839084,0
31890,-0.943589,-0.483106,-0.83995,0
31910,-0.943435,-0.483002,-0.84064,0
31930,-0.943254,-0.483441,-0.840754,0
31950,-0.943179,-0.484657,-0.84041,0
31970,-0.942932,-0.486418,-0.84018,0
31990,-0.943312,-0.488689,-0.839694,0
32010,-0.944398,-0.49083,-0.839081,0
32030,-0.945628,-0.492598,-0.838472,0
32050,-0.946871,-0.493863,-0.837748,0
32070,-0.947709,-0.494736,-0.837154,0
32090,-0.948552,-0.495311,-0.836934,0
32110,-0.948856,-0.495365,-0.836726,0
32130,-0.948716,-0.495268,-0.836932,0
32150,-0.948584,-0.495208,-0.836976,0
32170,-0.948225,-0.494247,-0.836874,0
32190,-0.947799,-0.493089,-0.837061,0
32210,-0.947426,-0.491766,-0.836643,0
32230,-0.947083,-0.489948,-0.835628,0
32250,-0.947308,-0.487411,-0.833572,0
32270,-0.948524,-0.484013,-0.829924,0
32290,-0.950707,-0.479323,-0.824237,0
32310,-0.953651,-0.473706,-0.81698,0
32330,-0.956319,-0.467892,-0.810717,0
32350,-0.958229,-0.461148,-0.804712,0
32370,-0.960764,-0.454064,-0.797171,0
32390,-0.963705,-0.448122,-0.789497,0
32410,-0.965327,-0.443005,-0.783555,0
32430,-0.965755,-0.437692,-0.779417,0
32450,-0.966144,-0.432788,-0.77489,0
32470,-0.966668,-0.428636,-0.769136,0
32490,-0.967846,-0.425402,-0.763128,0
32510,-0.969234,-0.421879,-0.757407,0
32530,-0.970476,-0.417894,-0.750862,0
32550,-0.971799,-0.413922,-0.743162,0
32570,-0.973096,-0.411172,-0.735899,0
32590,-0.972999,-0.408242,-0.729682,0
32610,-0.974156,-0.404834,-0.723414,0
32630,-0.976423,-0.402529,-0.717444,0
32650,-0.978846,-0.40075,-0.712019,0
32670,-0.980669,-0.39881,-0.706044,0
32690,-0.981571,-0.396718,-0.699512,0
32700,-0.982926,-0.395307,-0.692831,0
32720,-0.984315,-0.395006,-0.686578,0
32740,-0.986313,-0.394771,-0.679972,0
32760,-0.989002,-0.394835,-0.67209,0
32780,-0.992607,-0.395889,-0.663609,0
32800,-0.995132,-0.397538,-0.654967,0
32820,-0.997449,-0.40047,-0.645581,0
32840,-0.998394,-0.404732,-0.635976,0
32860,-1.00077,-0.41005,-0.625976,0
32880,-1.00443,-0.415872,-0.614256,0
32900,-1.00918,-0.421195,-0.600529,0
32920,-1.01411,-0.425993,-0.584692,0
32950,-1.03441,-0.439554,-0.522807,0
32960,-1.04498,-0.444064,-0.497677,0
32980,-1.05957,-0.447176,-0.469012,0
33000,-1.07367,-0.45036,-0.437084,0
33020,-1.08677,-0.453408,-0.40399,0
33040,-1.09918,-0.456663,-0.370696,0
33060,-1.11135,-0.461228,-0.337779,0
33080,-1.13796,-0.475671,-0.271495,0
33100,-1.15566,-0.482107,-0.243636,0
33120,-1.17059,-0.486985,-0.217655,0
33140,-1.18407,-0.493949,-0.190824,0
33160,-1.19453,-0.501191,-0.165989,0
33180,-1.20249,-0.50856,-0.145426,0
33200,-1.20824,-0.517254,-0.128458,0
33220,-1.21337,-0.52601,-0.113538,0
33240,-1.2173,-0.533638,-0.100666,0
33260,-1.21733,-0.540935,-0.0901389,0
33280,-1.21624,-0.550943,-0.0844555,0
33300,-1.21653,-0.560186,-0.0811193,0
33320,-1.21878,-0.565495,-0.0776247,0
33340,-1.2217,-0.568457,-0.0755858,0
33360,-1.22342,-0.569276,-0.0737594,0
33380,-1.22788,-0.567344,-0.073442,0
33400,-1.23274,-0.562968,-0.0736855,0
33420,-1.23384,-0.558541,-0.0731854,0
33440,-1.23075,-0.55478,-0.0724049,0
33460,-1.22371,-0.551919,-0.0741844,0
33480,-1.21526,-0.550094,-0.0792003,0
33500,-1.2087,-0.550809,-0.0839622,0
33520,-1.20351,-0.55266,-0.0890453,0
33540,-1.19798,-0.551457,-0.0929571,0
33560,-1.1903,-0.549913,-0.0942406,0
33580,-1.184,-0.552243,-0.0971755,0
33600,-1.17553,-0.548496,-0.102425,0
33620,-1.16763,-0.542227,-0.104168,0
33640,-1.16176,-0.543,-0.104219,0
33660,-1.15539,-0.545772,-0.104746,0
33680,-1.14446,-0.549139,-0.104383,0
33700,-1.13245,-0.551826,-0.102657,0
33720,-1.11928,-0.554471,-0.099839,0
33740,-1.10568,-0.555427,-0.0974841,0
33760,-1.09716,-0.555248,-0.093578,0
33780,-1.09498,-0.55321,-0.0905736,0
33800,-1.09368,-0.548787,-0.0881662,0
33820,-1.0876,-0.544197,-0.08518,0
33840,-1.07527,-0.542712,-0.0818785,0
33860,-1.06619,-0.54228,-0.0732258,0
33880,-1.06224,-0.540434,-0.0566623,0
33900,-1.05388,-0.54036,-0.04356,0
33920,-1.03986,-0.542854,-0.0391389,0
33940,-1.02429,-0.544975,-0.0367258,0
33960,-1.01654,-0.545406,-0.029565,0
33980,-1.0109,-0.546029,-0.0233203,0
34000,-1.00322,-0.544988,-0.0190272,0
34020,-1.00007,-0.543012,-0.0147661,0
34040,-0.998039,-0.540356,-0.0128692,0
34060,-0.993547,-0.539229,-0.0150009,0
34080,-0.988261,-0.537007,-0.0185205,0
34100,-0.985756,-0.534868,-0.0219317,0
34120,-0.987585,-0.535009,-0.0269722,0
34140,-0.989807,-0.537337,-0.0359115,0
34160,-0.992521,-0.539896,-0.0471305,0
34180,-0.999587,-0.542123,-0.0565163,0
34200,-1.00805,-0.54541,-0.0661464,0
34220,-1.01659,-0.546998,-0.0766165,0
34240,-1.02455,-0.549199,-0.0853647,0
34260,-1.03163,-0.553693,-0.0917243,0
34280,-1.03597,-0.558823,-0.100545,0
34300,-1.03844,-0.56568,-0.112175,0
34320,-1.03897,-0.576155,-0.124699,0
34340,-1.03622,-0.586259,-0.138114,0
34360,-1.03522,-0.595117,-0.154185,0
34380,-1.03704,-0.601489,-0.172188,0
34400,-1.04141,-0.60386,-0.193451,0
34420,-1.04512,-0.604277,-0.213689,0
34440,-1.0431,-0.607683,-0.230572,0
34460,-1.03945,-0.610403,-0.246396,0
34480,-1.03683,-0.609784,-0.264649,0
34500,-1.03509,-0.607318,-0.284696,0
34520,-1.03605,-0.600947,-0.303539,0
34540,-1.03503,-0.593565,-0.322379,0
34560,-1.03323,-0.585013,-0.339918,0
34580,-1.03573,-0.573176,-0.357917,0
34600,-1.04151,-0.561612,-0.376584,0
34620,-1.04944,-0.549001,-0.396569,0
34640,-1.0507,-0.535734,-0.418231,0
34660,-1.04664,-0.524828,-0.443745,0
34680,-1.04225,-0.515892,-0.469937,0
34700,-1.04456,-0.50537,-0.497112,0
34720,-1.04856,-0.491663,-0.518527,0
34740,-1.05148,-0.482942,-0.533823,0
34760,-1.05192,-0.474644,-0.551904,0
34780,-1.05142,-0.465562,-0.566519,0
34800,-1.05028,-0.464903,-0.580198,0
34820,-1.04062,-0.470042,-0.5931,0
34840,-1.03002,-0.477303,-0.60446,0
34860,-1.02391,-0.482581,-0.614535,0
34890,-1.00049,-0.502793,-0.644178,0
34920,-0.985176,-0.506835,-0.645425,0
34940,-0.976469,-0.511383,-0.645082,0
34960,-0.972651,-0.515037,-0.644213,0
34980,-0.974693,-0.517682,-0.64202,0
35000,-0.979129,-0.519332,-0.640224,0
35020,-0.993209,-0.526212,-0.631168,0
35040,-0.990585,-0.52777,-0.630692,0
35060,-0.986281,-0.528049,-0.628585,0
35080,-0.977608,-0.527135,-0.630229,0
35100,-0.969006,-0.525308,-0.631483,0
35120,-0.964244,-0.524555,-0.633073,0
35140,-0.966297,-0.524584,-0.634771,0
35160,-0.975209,-0.523043,-0.630473,0
35180,-0.983559,-0.519792,-0.625468,0
35200,-0.992116,-0.516601,-0.61862,0
35220,-1.00577,-0.515041,-0.609391,0
35240,-1.02746,-0.51434,-0.600701,0
35260,-1.05288,-0.513746,-0.588958,0
35280,-1.07694,-0.51558,-0.575726,0
35300,-1.09736,-0.520081,-0.562275,0
35320,-1.11793,-0.525662,-0.549986,0
35340,-1.14723,-0.531138,-0.541647,0
35360,-1.1761,-0.531266,-0.53339,0
35380,-1.20444,-0.527791,-0.523815,0
35400,-1.2309,-0.52059,-0.517875,0
35420,-1.25822,-0.509155,-0.517254,0
35440,-1.27368,-0.496084,-0.524058,0
35460,-1.28501,-0.486581,-0.532794,0
35480,-1.2892,-0.476181,-0.538186,0
35500,-1.29154,-0.466067,-0.540488,0
35520,-1.28546,-0.458789,-0.540078,0
35540,-1.28131,-0.456227,-0.539458,0
35560,-1.28284,-0.456571,-0.538671,0
35580,-1.28378,-0.456955,-0.54025,0
35600,-1.27914,-0.456569,-0.542492,0
35620,-1.26785,-0.458382,-0.544795,0
35640,-1.25472,-0.461605,-0.546316,0
35660,-1.24611,-0.462721,-0.548061,0
35680,-1.24705,-0.462486,-0.550881,0
35700,-1.24632,-0.46126,-0.551914,0
35720,-1.23812,-0.46105,-0.550796,0
35740,-1.22792,-0.464,-0.550224,0
35760,-1.21991,-0.468301,-0.549348,0
35780,-1.21602,-0.47202,-0.547547,0
35800,-1.21835,-0.473887,-0.546886,0
35820,-1.22328,-0.472643,-0.548331,0
35840,-1.22484,-0.469995,-0.549986,0
35860,-1.22169,-0.468392,-0.550741,0
35880,-1.21782,-0.469285,-0.552106,0
35890,-1.21523,-0.469866,-0.556535,0
35910,-1.213,-0.469013,-0.56087,0
35930,-1.21254,-0.466634,-0.562402,0
35950,-1.21266,-0.464447,-0.562675,0
35970,-1.21494,-0.462056,-0.563671,0
35990,-1.21769,-0.458729,-0.564777,0
36010,-1.2174,-0.45582,-0.564684,0
36030,-1.21535,-0.455085,-0.564927,0
36050,-1.21384,-0.454832,-0.566307,0
36070,-1.21307,-0.454041,-0.568202,0
36090,-1.21196,-0.453142,-0.569451,0
36110,-1.21052,-0.452982,-0.569307,0
36130,-1.20962,-0.453368,-0.569747,0
36150,-1.20887,-0.453596,-0.570233,0
36170,-1.20823,-0.453395,-0.57056,0
36190,-1.20727,-0.453126,-0.570774,0
36210,-1.20708,-0.452085,-0.571136,0
36230,-1.20678,-0.450666,-0.571238,0
36250,-1.20585,-0.449091,-0.57131,0
36270,-1.20511,-0.447406,-0.57111,0
36290,-1.20435,-0.445887,-0.570292,0
36310,-1.20401,-0.444934,-0.569587,0
36330,-1.2032,-0.444653,-0.569424,0
36350,-1.2023,-0.445104,-0.569308,0
36370,-1.20223,-0.445702,-0.568928,0
36390,-1.20218,-0.446324,-0.568391,0
36410,-1.20178,-0.447895,-0.568719,0
36430,-1.2011,-0.449858,-0.569899,0
36450,-1.20123,-0.451266,-0.570333,0
36470,-1.20101,-0.452638,-0.571107,0
36490,-1.19981,-0.452867,-0.57219,0
36510,-1.19885,-0.451322,-0.57271,0
36530,-1.20005,-0.449685,-0.573042,0
36550,-1.20185,-0.447367,-0.573996,0
36570,-1.20164,-0.445287,-0.575028,0
36590,-1.19872,-0.443612,-0.576361,0
36610,-1.19735,-0.442517,-0.577745,0
36630,-1.197,-0.441441,-0.578791,0
36650,-1.1953,-0.4405,-0.579773,0
36670,-1.19381,-0.440445,-0.58017,0
36690,-1.19355,-0.441028,-0.580286,0
36710,-1.19349,-0.441258,-0.580612,0
36730,-1.19394,-0.441694,-0.58034,0
36750,-1.19414,-0.442659,-0.57989,0
36770,-1.1948,-0.443802,-0.580497,0
36790,-1.19525,-0.443924,-0.58122,0
36810,-1.1954,-0.443969,-0.581179,0
36830,-1.19611,-0.44353,-0.581588,0
36850,-1.19618,-0.442038,-0.582255,0
36870,-1.19666,-0.439897,-0.582101,0
36890,-1.19626,-0.437233,-0.582027,0
36910,-1.19472,-0.435399,-0.582075,0
36930,-1.19253,-0.434691,-0.580898,0
36950,-1.19116,-0.435309,-0.579222,0
36970,-1.18902,-0.436633,-0.577954,0
36990,-1.1872,-0.43907,-0.576103,0
37010,-1.18578,-0.44249,-0.572635,0
37030,-1.18485,-0.44745,-0.567846,0
37050,-1.18481,-0.453323,-0.563615,0
37070,-1.18504,-0.45878,-0.560182,0
37090,-1.1851,-0.464447,-0.556238,0
37110,-1.18633,-0.470499,-0.55147,0
37130,-1.18846,-0.475646,-0.546469,0
37150,-1.18997,-0.480575,-0.541953,0
37170,-1.1923,-0.485838,-0.536938,0
37190,-1.19472,-0.49049,-0.532281,0
37210,-1.1967,-0.494926,-0.528504,0
37230,-1.19827,-0.499475,-0.525256,0
37250,-1.20023,-0.503866,-0.522466,0
37270,-1.20234,-0.507295,-0.520693,0
37290,-1.20473,-0.50968,-0.519477,0
37310,-1.20663,-0.511447,-0.518474,0
37330,-1.20896,-0.511882,-0.518374,0
37350,-1.20958,-0.510555,-0.520348,0
37370,-1.20768,-0.506709,-0.523696,0
37390,-1.20597,-0.503027,-0.526725,0
37410,-1.20452,-0.500371,-0.52954,0
37430,-1.20341,-0.498211,-0.532047,0
37450,-1.20174,-0.496964,-0.536092,0
37470,-1.19968,-0.496145,-0.540571,0
37490,-1.19965,-0.495436,-0.544858,0
37510,-1.20098,-0.493485,-0.548731,0
37530,-1.20249,-0.490065,-0.552535,0
37550,-1.20347,-0.485277,-0.556346,0
37570,-1.20522,-0.48164,-0.561005,0
37590,-1.20823,-0.479517,-0.566047,0
37610,-1.21008,-0.477953,-0.570513,0
37630,-1.21223,-0.477076,-0.573826,0
37650,-1.21332,-0.474363,-0.576736,0
37670,-1.21443,-0.470584,-0.579019,0
37690,-1.21825,-0.46783,-0.58188,0
37710,-1.22481,-0.464988,-0.584415,0
37730,-1.2282,-0.460959,-0.585994,0
37750,-1.22749,-0.457613,-0.587075,0
37770,-1.22515,-0.455052,-0.588331,0
37780,-1.22557,-0.453167,-0.58922,0
37830,-1.23029,-0.449655,-0.590321,0
37850,-1.22925,-0.448771,-0.589743,0
37860,-1.22784,-0.449376,-0.588528,0
37880,-1.22885,-0.450545,-0.587201,0
37900,-1.23093,-0.451697,-0.585084,0
37920,-1.23235,-0.45363,-0.58288,0
37940,-1.23304,-0.45502,-0.581276,0
37960,-1.23268,-0.454124,-0.579853,0
37980,-1.23269,-0.4518,-0.579407,0
38000,-1.2326,-0.447753,-0.579794,0
38020,-1.23434,-0.443639,-0.579117,0
38040,-1.23707,-0.441291,-0.578516,0
38060,-1.23828,-0.439988,-0.577702,0
38080,-1.23829,-0.43989,-0.577768,0
38100,-1.23832,-0.439812,-0.577674,0
38120,-1.23782,-0.439636,-0.578114,0
38140,-1.2374,-0.43891,-0.57859,0
38160,-1.23671,-0.437996,-0.579251,0
38180,-1.23671,-0.437916,-0.579118,0
38200,-1.23672,-0.437818,-0.579183,0
38220,-1.23691,-0.437748,-0.579408,0
38240,-1.23717,-0.438311,-0.579198,0
38260,-1.23731,-0.438455,-0.579092,0
38280,-1.23807,-0.438966,-0.579744,0
38300,-1.24,-0.438245,-0.58069,0
38320,-1.24072,-0.435639,-0.582137,0
38340,-1.23948,-0.431584,-0.583407,0
38360,-1.23663,-0.42697,-0.585014,0
38380,-1.23429,-0.422699,-0.587253,0
38400,-1.23317,-0.418995,-0.589045,0
38420,-1.23182,-0.416141,-0.590159,0
38440,-1.22957,-0.414427,-0.590782,0
38460,-1.22679,-0.413199,-0.591613,0
38480,-1.22421,-0.412749,-0.592755,0
38500,-1.2222,-0.412777,-0.59355,0
38520,-1.22115,-0.413064,-0.593507,0
38540,-1.22047,-0.413131,-0.592974,0
38560,-1.22003,-0.413722,-0.592555,0
38580,-1.22052,-0.414865,-0.591988,0
38600,-1.22116,-0.415977,-0.591249,0
38620,-1.22144,-0.41725,-0.590709,0
38640,-1.22175,-0.418426,-0.590273,0
38660,-1.22094,-0.4192,-0.589898,0
38680,-1.22069,-0.419897,-0.589812,0
38700,-1.22147,-0.420227,-0.589592,0
38720,-1.22194,-0.420366,-0.589476,0
38740,-1.22171,-0.420848,-0.58968,0
38760,-1.22098,-0.42125,-0.590254,0
38780,-1.2208,-0.421204,-0.590254,0
38800,-1.22073,-0.420609,-0.590325,0
38820,-1.22095,-0.420381,-0.590322,2000
38840,-1.22048,-0.420027,-0.590689,0
38860,-1.21991,-0.419547,-0.591039,0
38880,-1.21856,-0.419625,-0.592151,0
38900,-1.21676,-0.418441,-0.592435,0
38920,-1.21519,-0.4178,-0.592675,0
38940,-1.21405,-0.417807,-0.593202,0
38960,-1.21367,-0.418046,-0.593537,0
38980,-1.21274,-0.418537,-0.593692,0
39000,-1.21198,-0.419173,-0.593782,0
39020,-1.21059,-0.419488,-0.593564,0
39040,-1.20921,-0.419824,-0.593187,0
39060,-1.20888,-0.420818,-0.592876,0
39080,-1.20855,-0.421672,-0.592948,0
39100,-1.20821,-0.422842,-0.592708,0
39120,-1.20746,-0.424334,-0.592055,0
39140,-1.20715,-0.425194,-0.59132,0
39160,-1.20745,-0.425406,-0.591018,0
39180,-1.20831,-0.426275,-0.590436,0
39200,-1.2092,-0.427008,-0.589466,0
39220,-1.20859,-0.426752,-0.588642,0
39240,-1.20863,-0.426503,-0.58763,0
39260,-1.20909,-0.426944,-0.58655,0
39280,-1.2087,-0.427335,-0.584773,0
39300,-1.20745,-0.428094,-0.582813,0
39320,-1.20662,-0.42921,-0.58041,0
39340,-1.2064,-0.431008,-0.577608,0
39360,-1.20611,-0.433161,-0.57487,0
39380,-1.20545,-0.43568,-0.572252,0
39400,-1.20483,-0.437949,-0.569433,0
39420,-1.20449,-0.440967,-0.566524,0
39440,-1.20354,-0.444707,-0.563449,0
39460,-1.20316,-0.447953,-0.560144,0
39480,-1.20356,-0.450775,-0.556483,0
39500,-1.2036,-0.454092,-0.552687,0
39520,-1.20385,-0.457652,-0.548075,0
39540,-1.20463,-0.460842,-0.543649,0
39560,-1.20546,-0.463606,-0.539631,0
39580,-1.20662,-0.466535,-0.535657,0
39600,-1.20615,-0.469529,-0.531925,0
39620,-1.20496,-0.473119,-0.528147,0
39640,-1.20504,-0.476006,-0.524807,0
39660,-1.20639,-0.47882,-0.522041,0
39680,-1.207,-0.481201,-0.519137,0
39700,-1.20645,-0.483622,-0.516089,0
39720,-1.2049,-0.486347,-0.513455,0
39740,-1.20412,-0.489531,-0.510759,0
39760,-1.20387,-0.492845,-0.507965,0
39780,-1.20367,-0.495785,-0.505267,0
39800,-1.20311,-0.498513,-0.502845,0
39820,-1.20245,-0.50261,-0.500745,0
39840,-1.20108,-0.507112,-0.498744,0
39860,-1.20004,-0.511573,-0.496914,0
39880,-1.19896,-0.514939,-0.495554,0
39900,-1.19797,-0.518181,-0.494526,0
39920,-1.19586,-0.52243,-0.494319,0
39940,-1.1939,-0.527107,-0.493987,0
39960,-1.19291,-0.530727,-0.493093,0
39980,-1.1923,-0.533865,-0.492156,0
40000,-1.19175,-0.537503,-0.49187,0
40010,-1.19047,-0.542248,-0.491433,0
40030,-1.18934,-0.547904,-0.49096,0
40050,-1.1885,-0.553669,-0.490891,0
40080,-1.18835,-0.563754,-0.492668,0
40110,-1.19094,-0.573336,-0.492917,0
40160,-1.19807,-0.588138,-0.491547,0
40180,-1.19992,-0.593426,-0.492063,0
40200,-1.20278,-0.598987,-0.493025,0
40220,-1.20592,-0.60409,-0.494125,0
40240,-1.20841,-0.610233,-0.495456,0
40250,-1.21096,-0.61683,-0.496288,0
40270,-1.21316,-0.623358,-0.496941,0
40290,-1.21494,-0.630616,-0.498481,0
40310,-1.21629,-0.638237,-0.500285,0
40320,-1.21606,-0.646802,-0.502537,0
40330,-1.2158,-0.655562,-0.505865,0
40350,-1.217,-0.66282,-0.509944,0
40370,-1.21845,-0.669004,-0.513861,0
40390,-1.21859,-0.675191,-0.518429,0
40410,-1.21818,-0.681396,-0.523712,0
40430,-1.21815,-0.687245,-0.529946,0
40450,-1.21924,-0.69222,-0.53695,0
40470,-1.22017,-0.696527,-0.54475,0
40490,-1.221,-0.699807,-0.553535,0
40510,-1.21997,-0.703086,-0.563493,0
40520,-1.21858,-0.706527,-0.574802,0
40540,-1.21671,-0.710271,-0.587651,0
40560,-1.21541,-0.713828,-0.601508,0
40570,-1.21149,-0.720867,-0.631871,0
40590,-1.20809,-0.725464,-0.648478,0
40610,-1.20506,-0.730257,-0.665869,0
40630,-1.2024,-0.735589,-0.684142,0
40660,-1.19459,-0.745854,-0.72034,0
40710,-1.15931,-0.774056,-0.870358,0
40730,-1.15396,-0.776253,-0.89041,0
40740,-1.14872,-0.778312,-0.909759,0
40760,-1.14353,-0.780998,-0.928612,0
40780,-1.13938,-0.784052,-0.947678,0
40800,-1.13547,-0.786716,-0.965615,0
40820,-1.13178,-0.788754,-0.982612,0
40840,-1.12873,-0.790538,-1.00019,0
40860,-1.12521,-0.791713,-1.01765,0
40880,-1.12126,-0.792108,-1.03528,0
40900,-1.11795,-0.791675,-1.05203,0
40920,-1.11572,-0.790617,-1.0676,0
40940,-1.11265,-0.789046,-1.0832,0
40960,-1.11036,-0.787251,-1.09838,0
40980,-1.10774,-0.784445,-1.11314,0
41000,-1.10544,-0.781303,-1.12676,0
41020,-1.10353,-0.777624,-1.13907,0
41030,-1.1025,-0.773412,-1.14986,0
41050,-1.10131,-0.768436,-1.15901,0
41070,-1.09929,-0.764402,-1.16706,0
41090,-1.09801,-0.76134,-1.17387,0
41110,-1.0968,-0.758206,-1.18091,0
41130,-1.0979,-0.754413,-1.18687,0
41150,-1.0983,-0.750038,-1.19289,0
41170,-1.09947,-0.746177,-1.19837,0
41190,-1.10111,-0.742932,-1.20309,0
41210,-1.10277,-0.740286,-1.20808,0
41230,-1.10204,-0.737535,-1.21364,0
41250,-1.09985,-0.733778,-1.218,0
41270,-1.09951,-0.731285,-1.21988,0
41290,-1.10008,-0.729207,-1.22123,0
41310,-1.10033,-0.726794,-1.22179,0
41330,-1.10041,-0.724954,-1.22078,0
41350,-1.10141,-0.724032,-1.21765,0
41370,-1.10384,-0.721543,-1.21305,0
41390,-1.10731,-0.718724,-1.20802,0
41410,-1.1099,-0.716219,-1.20283,0
41430,-1.11268,-0.713592,-1.19661,0
41450,-1.11521,-0.711977,-1.19069,0
41470,-1.1183,-0.710275,-1.1837,0
41490,-1.12118,-0.70796,-1.17569,0
41510,-1.12327,-0.70559,-1.16754,0
41530,-1.1263,-0.702987,-1.15915,0
41550,-1.1296,-0.699764,-1.15108,0
41570,-1.13206,-0.696627,-1.14388,0
41590,-1.13195,-0.692504,-1.13702,0
41610,-1.13394,-0.688327,-1.12868,0
41630,-1.13731,-0.682795,-1.11963,0
41650,-1.14158,-0.677563,-1.1106,0
41670,-1.14611,-0.673573,-1.10292,0
41690,-1.14854,-0.670207,-1.09598,0
41710,-1.15087,-0.667201,-1.08779,0
41730,-1.1536,-0.664638,-1.07865,0
41750,-1.15619,-0.662368,-1.0698,0
41770,-1.15899,-0.661475,-1.06048,0
41790,-1.16039,-0.660704,-1.05193,0
41810,-1.16167,-0.660129,-1.04266,0
41830,-1.16348,-0.66039,-1.03342,0
41850,-1.16465,-0.65968,-1.02484,0
41870,-1.16671,-0.658401,-1.0155,0
41890,-1.16814,-0.657071,-1.00615,0
41910,-1.16883,-0.655149,-0.99736,0
41930,-1.17006,-0.652862,-0.98803,0
41950,-1.17113,-0.650981,-0.978115,0
41970,-1.17108,-0.648376,-0.968057,0
41990,-1.17077,-0.645374,-0.958041,0
42010,-1.17292,-0.643352,-0.947046,0
42030,-1.1756,-0.641575,-0.936367,0
42050,-1.17713,-0.638992,-0.925724,0
42070,-1.17922,-0.63649,-0.914516,0
42090,-1.18231,-0.634691,-0.902062,0
42110,-1.18454,-0.632502,-0.890625,0
42130,-1.18708,-0.630575,-0.879065,0
42150,-1.19077,-0.63018,-0.867461,0
42170,-1.194,-0.628837,-0.856086,0
42190,-1.19669,-0.627234,-0.84388,0
42210,-1.20087,-0.626752,-0.831242,0
42230,-1.20522,-0.626503,-0.819086,0
42250,-1.20805,-0.625558,-0.806995,0
42270,-1.21154,-0.624167,-0.794586,0
42290,-1.21749,-0.62317,-0.781612,0
42310,-1.22265,-0.622047,-0.769225,0
42330,-1.22641,-0.620596,-0.757151,0
42350,-1.23017,-0.619445,-0.744962,0
42370,-1.23357,-0.619012,-0.734006,0
42390,-1.23625,-0.618387,-0.723986,0
42410,-1.23848,-0.617333,-0.713511,0
42430,-1.2417,-0.617417,-0.70266,0
42450,-1.24474,-0.617208,-0.692314,0
42470,-1.24801,-0.615581,-0.681807,0
42490,-1.25196,-0.613698,-0.6706,0
42510,-1.25546,-0.612545,-0.659723,0
42530,-1.25843,-0.610823,-0.648996,0
42550,-1.2628,-0.609052,-0.637627,0
42570,-1.2677,-0.607552,-0.625389,0
42590,-1.27264,-0.60603,-0.613426,0
42610,-1.27784,-0.604189,-0.601178,0
42630,-1.28347,-0.602397,-0.587712,0
42650,-1.29074,-0.601199,-0.574108,0
42670,-1.29751,-0.599824,-0.560477,0
42690,-1.30415,-0.598874,-0.546368,0
42710,-1.31045,-0.598088,-0.532133,0
42730,-1.31717,-0.597343,-0.518263,0
42750,-1.32388,-0.597296,-0.50454,0
42770,-1.33085,-0.597833,-0.490491,0
42790,-1.33798,-0.598783,-0.477128,0
42810,-1.34422,-0.599654,-0.464462,0
42830,-1.3498,-0.600434,-0.451928,0
42850,-1.35573,-0.601589,-0.43965,0
42870,-1.3626,-0.603339,-0.428126,0
42890,-1.36851,-0.604904,-0.417262,0
42910,-1.37267,-0.606398,-0.406515,0
42930,-1.37702,-0.609489,-0.395711,0
42950,-1.38096,-0.613364,-0.386054,0
42970,-1.38356,-0.617723,-0.377925,0
42990,-1.38522,-0.622274,-0.369287,0
43000,-1.38806,-0.627089,-0.36075,0
43020,-1.38969,-0.632503,-0.353725,0
43040,-1.39117,-0.637974,-0.347035,0
43060,-1.39401,-0.644166,-0.34046,0
43080,-1.39733,-0.649861,-0.334421,0
43100,-1.39947,-0.655239,-0.329932,0
43120,-1.40046,-0.660315,-0.326591,0
43140,-1.40258,-0.666871,-0.322498,0
43160,-1.40436,-0.674545,-0.320042,0
43180,-1.406,-0.680807,-0.31852,0
43200,-1.40647,-0.687905,-0.317954,0
43220,-1.40765,-0.695915,-0.317267,0
43240,-1.40823,-0.704339,-0.318168,0
43260,-1.40717,-0.711861,-0.320771,0
43280,-1.4071,-0.718089,-0.322842,0
43300,-1.40845,-0.724661,-0.324793,0
43320,-1.40935,-0.731696,-0.327264,0
43340,-1.40907,-0.738556,-0.333621,0
43360,-1.40644,-0.743261,-0.343359,0
43380,-1.40349,-0.748866,-0.35338,0
43400,-1.40121,-0.756293,-0.363246,0
43420,-1.39874,-0.764513,-0.374419,0
43440,-1.39629,-0.772244,-0.386319,0
43460,-1.39499,-0.780492,-0.39759,0
43480,-1.39318,-0.790252,-0.409408,0
43500,-1.3907,-0.800875,-0.422163,0
43520,-1.38802,-0.810904,-0.435656,0
43540,-1.38757,-0.82126,-0.448215,0
43560,-1.3878,-0.832418,-0.460665,0
43580,-1.38656,-0.84366,-0.473353,0
43600,-1.38498,-0.855255,-0.485966,0
43620,-1.38349,-0.866829,-0.498637,0
43640,-1.38199,-0.878763,-0.512174,0
43660,-1.37877,-0.89017,-0.527086,0
43680,-1.37578,-0.901394,-0.541442,0
43700,-1.37197,-0.912856,-0.556317,0
43720,-1.36801,-0.92329,-0.571707,0
43740,-1.364,-0.932789,-0.587231,0
43760,-1.35847,-0.942002,-0.60481,0
43780,-1.35058,-0.950499,-0.623696,0
43800,-1.34189,-0.958666,-0.642829,0
43820,-1.33228,-0.967392,-0.66249,0
43840,-1.32277,-0.976034,-0.682708,0
43860,-1.31407,-0.98339,-0.701675,0
43880,-1.30409,-0.990131,-0.720978,0
43900,-1.29251,-0.997043,-0.74051,0
43920,-1.28115,-1.00371,-0.760052,0
43950,-1.25891,-1.0145,-0.80035,0
43970,-1.24571,-1.01895,-0.821558,0
43990,-1.23189,-1.0239,-0.842411,0
44010,-1.21859,-1.02934,-0.863747,0
44030,-1.20608,-1.0341,-0.884746,0
44050,-1.19384,-1.03828,-0.904476,0
44070,-1.18151,-1.04311,-0.923675,0
44090,-1.16966,-1.04754,-0.941618,0
44110,-1.15832,-1.05116,-0.960135,0
44130,-1.14683,-1.05364,-0.978908,0
44150,-1.13575,-1.05554,-0.995403,0
44170,-1.12348,-1.05674,-1.01173,0
44190,-1.10909,-1.05833,-1.03075,0
44210,-1.09607,-1.05946,-1.04965,0
44230,-1.08259,-1.05937,-1.06825,0
44250,-1.07025,-1.05856,-1.08694,0
44270,-1.06061,-1.05653,-1.10338,0
44290,-1.04981,-1.05541,-1.12093,0
44310,-1.03872,-1.05501,-1.13825,0
44330,-1.02836,-1.05555,-1.15378,0
44350,-1.01851,-1.05607,-1.16818,0
44370,-1.01185,-1.05598,-1.18051,0
44390,-1.00644,-1.05383,-1.19073,0
44410,-1.00109,-1.0518,-1.19984,0
44430,-0.996937,-1.05057,-1.20637,0
44450,-0.995346,-1.04796,-1.21017,0
44470,-0.996994,-1.04426,-1.21198,0
44490,-1.00076,-1.03987,-1.21167,0
44510,-1.00299,-1.03608,-1.2115,0
44530,-1.00329,-1.033,-1.21189,0
44550,-1.00534,-1.02885,-1.20947,0
44570,-1.00923,-1.02377,-1.20511,0
44590,-1.01359,-1.01897,-1.20077,0
44610,-1.01656,-1.01511,-1.19804,0
44630,-1.01799,-1.01098,-1.19567,0
44650,-1.02069,-1.00771,-1.19173,0
44670,-1.02365,-1.00401,-1.18587,0
44690,-1.02787,-0.999179,-1.17892,0
44710,-1.03457,-0.99417,-1.17034,0
44730,-1.04001,-0.989013,-1.16286,0
44750,-1.04421,-0.982799,-1.15536,0
44770,-1.04808,-0.976193,-1.14799,0
44790,-1.05245,-0.968322,-1.14003,0
44810,-1.05769,-0.958947,-1.13194,0
44830,-1.06414,-0.95019,-1.12436,0
44850,-1.06919,-0.941023,-1.11602,0
44870,-1.07609,-0.931305,-1.10629,0
44890,-1.0846,-0.921469,-1.09731,0
44910,-1.09289,-0.91222,-1.08916,0
44930,-1.09866,-0.903668,-1.08258,0
44950,-1.10298,-0.895179,-1.07589,0
44970,-1.10603,-0.887957,-1.0689,0
44990,-1.10859,-0.881187,-1.06314,0
45010,-1.11057,-0.875217,-1.05891,0
45030,-1.11317,-0.869951,-1.05458,0
45050,-1.11648,-0.864195,-1.04961,0
45070,-1.12108,-0.858401,-1.04458,0
45090,-1.12499,-0.85303,-1.03994,0
45110,-1.12667,-0.848413,-1.03651,0
45130,-1.12655,-0.843771,-1.03427,0
45150,-1.12786,-0.838513,-1.03017,0
45170,-1.13038,-0.833954,-1.02536,0
45190,-1.13218,-0.829582,-1.02154,0
45210,-1.13374,-0.825925,-1.01888,0
45230,-1.13503,-0.821691,-1.01535,0
45250,-1.13653,-0.817303,-1.01047,0
45270,-1.13892,-0.813372,-1.00482,0
45290,-1.14206,-0.809695,-0.99972,0
45310,-1.14384,-0.80529,-0.995327,0
45330,-1.1453,-0.800631,-0.990728,0
45350,-1.14589,-0.796151,-0.985995,0
45370,-1.14595,-0.790903,-0.981592,0
45390,-1.14758,-0.786493,-0.976637,0
45410,-1.15031,-0.78093,-0.971502,0
45430,-1.1537,-0.774576,-0.965509,0
45450,-1.15766,-0.769286,-0.95887,0
45470,-1.16211,-0.76436,-0.951652,0
45490,-1.16575,-0.759215,-0.944005,0
45510,-1.16949,-0.754568,-0.936259,0
45530,-1.17476,-0.750951,-0.92789,0
45550,-1.18116,-0.74664,-0.919218,0
45570,-1.18784,-0.742333,-0.909666,0
45590,-1.19411,-0.739291,-0.899403,0
45610,-1.19893,-0.736488,-0.889217,0
45630,-1.20496,-0.733983,-0.877415,0
45650,-1.21206,-0.732122,-0.864756,0
45670,-1.22101,-0.730433,-0.851597,0
45690,-1.22945,-0.727978,-0.838499,0
45710,-1.23709,-0.725914,-0.82449,0
45730,-1.2467,-0.725298,-0.809164,0
45750,-1.25632,-0.723881,-0.794314,0
45770,-1.26595,-0.72137,-0.778516,0
45790,-1.27707,-0.719949,-0.761697,0
45810,-1.28976,-0.718977,-0.745099,0
45830,-1.30076,-0.71642,-0.729506,0
45850,-1.3102,-0.713879,-0.713458,0
45870,-1.32074,-0.713636,-0.696517,0
45890,-1.33082,-0.713267,-0.680851,0
45910,-1.34035,-0.711459,-0.666082,0
45930,-1.34892,-0.710577,-0.650912,0
45950,-1.35784,-0.710139,-0.636118,0
45970,-1.36668,-0.708941,-0.622695,0
45990,-1.37701,-0.707895,-0.608611,0
46010,-1.38812,-0.707273,-0.594585,0
46030,-1.39824,-0.705727,-0.581045,0
46050,-1.40776,-0.704541,-0.567862,0
46070,-1.41739,-0.704081,-0.554258,0
46090,-1.4263,-0.703196,-0.541808,0
46110,-1.43479,-0.702085,-0.529907,0
46130,-1.44386,-0.702155,-0.517106,0
46150,-1.45362,-0.703011,-0.504547,0
46170,-1.46217,-0.704118,-0.492903,0
46190,-1.47011,-0.705462,-0.480626,0
46210,-1.47812,-0.708379,-0.468284,0
46230,-1.48507,-0.712142,-0.456372,0
46250,-1.49193,-0.715755,-0.444626,0
46270,-1.49831,-0.720444,-0.432719,0
46290,-1.505,-0.726346,-0.420786,0
46310,-1.5118,-0.732408,-0.408501,0
46330,-1.5194,-0.738865,-0.395393,0
46350,-1.52788,-0.745756,-0.382533,0
46370,-1.53521,-0.752248,-0.370002,0
46390,-1.54251,-0.75895,-0.35702,0
46410,-1.55097,-0.766144,-0.343244,0
46420,-1.55972,-0.774169,-0.330094,0
46440,-1.56827,-0.781838,-0.317553,0
46460,-1.57695,-0.78906,-0.30434,0
46480,-1.58539,-0.79666,-0.290327,0
46500,-1.59307,-0.805634,-0.276479,0
46520,-1.60183,-0.815275,-0.26283,0
46540,-1.61061,-0.825055,-0.250328,0
46560,-1.6195,-0.835137,-0.236872,0
46580,-1.62773,-0.845649,-0.223799,0
46600,-1.63441,-0.85658,-0.21186,0
46620,-1.64021,-0.868982,-0.199712,0
46640,-1.6472,-0.883846,-0.187144,0
46660,-1.6552,-0.899389,-0.175571,0
46680,-1.6653,-0.914154,-0.164288,0
46700,-1.67577,-0.928671,-0.153447,0
46720,-1.68512,-0.943776,-0.143921,0
46740,-1.69182,-0.959169,-0.137187,0
46760,-1.69903,-0.97487,-0.130454,0
46780,-1.70741,-0.990049,-0.125081,0
46800,-1.71489,-1.0031,-0.122312,0
46820,-1.72307,-1.01527,-0.119322,0
46840,-1.73015,-1.0282,-0.116772,0
46860,-1.73583,-1.0423,-0.116135,0
46880,-1.73967,-1.05709,-0.117624,0
46900,-1.74167,-1.07131,-0.120403,0
46920,-1.74386,-1.08408,-0.123383,0
46940,-1.74553,-1.09629,-0.128383,0
46960,-1.74419,-1.10786,-0.137643,0
46980,-1.7416,-1.11954,-0.148797,0
47000,-1.737,-1.13087,-0.161381,0
47020,-1.72986,-1.14196,-0.175832,0
47040,-1.72209,-1.15307,-0.190453,0
47060,-1.71492,-1.16527,-0.206421,0
47080,-1.70648,-1.17729,-0.22583,0
47100,-1.69371,-1.1883,-0.249012,0
47120,-1.67956,-1.19864,-0.271782,0
47140,-1.66348,-1.20949,-0.29677,0
47160,-1.64549,-1.21999,-0.324597,0
47180,-1.62502,-1.22979,-0.355791,0
47200,-1.60241,-1.23868,-0.387883,0
47220,-1.57873,-1.24695,-0.420596,0
47240,-1.55174,-1.25597,-0.45655,0
47260,-1.52397,-1.26435,-0.494693,0
47280,-1.49326,-1.27141,-0.537127,0
47300,-1.46135,-1.27756,-0.579345,0
47320,-1.42595,-1.28378,-0.622952,0
47340,-1.38947,-1.28853,-0.666945,0
47360,-1.35373,-1.29315,-0.711497,0
47380,-1.31611,-1.29668,-0.757495,0
47400,-1.27954,-1.29908,-0.802366,0
47420,-1.24554,-1.29982,-0.843812,0
47440,-1.21307,-1.29923,-0.882741,0
47460,-1.18138,-1.29897,-0.921026,0
47480,-1.15369,-1.29805,-0.95541,0
47500,-1.12934,-1.29564,-0.987067,0
47520,-1.10794,-1.29136,-1.01439,0
47540,-1.08803,-1.28707,-1.03985,0
47560,-1.06765,-1.2827,-1.06524,0
47580,-1.05078,-1.27803,-1.08688,0
47600,-1.03543,-1.27309,-1.10755,0
47620,-1.01995,-1.26721,-1.12671,0
47640,-1.00432,-1.26159,-1.14779,0
47660,-0.987871,-1.25524,-1.16716,0
47680,-0.972086,-1.24959,-1.18498,0
47700,-0.957479,-1.24227,-1.19973,0
47720,-0.946464,-1.23527,-1.2114,0
47740,-0.939341,-1.22889,-1.22117,0
47760,-0.933541,-1.22064,-1.22946,0
47780,-0.932237,-1.21178,-1.23288,0
47800,-0.934692,-1.20185,-1.22987,0
47820,-0.938492,-1.19349,-1.22655,0
47840,-0.942123,-1.1846,-1.22454,0
47860,-0.94927,-1.17378,-1.22009,0
47880,-0.959196,-1.16284,-1.21167,0
47900,-0.972574,-1.15213,-1.19771,0
47920,-0.987098,-1.14143,-1.18269,0
47940,-1.00179,-1.12991,-1.16972,0
47960,-1.01835,-1.11713,-1.15583,0
47980,-1.03328,-1.10462,-1.14281,0
48000,-1.04536,-1.09197,-1.13164,0
48020,-1.05808,-1.07983,-1.11987,0
48040,-1.07172,-1.06802,-1.10816,0
48060,-1.08319,-1.05548,-1.10013,0
48080,-1.0904,-1.04267,-1.09537,0
48100,-1.09963,-1.03111,-1.08895,0
48120,-1.11045,-1.01908,-1.08225,0
48140,-1.1231,-1.00578,-1.07448,0
48160,-1.13349,-0.993935,-1.06824,0
48180,-1.14143,-0.983248,-1.06421,0
48200,-1.15085,-0.972832,-1.06057,0
48220,-1.16278,-0.962226,-1.05471,0
48240,-1.17229,-0.951868,-1.04865,0
48260,-1.17707,-0.943428,-1.04467,0
48280,-1.18072,-0.936924,-1.04103,0
48300,-1.18615,-0.930817,-1.03675,0
48320,-1.19347,-0.924185,-1.03193,0
48340,-1.20034,-0.917435,-1.02638,0
48360,-1.20432,-0.911224,-1.02095,0
48370,-1.20943,-0.90666,-1.01451,0
48390,-1.21394,-0.902319,-1.00837,0
48410,-1.21776,-0.897763,-1.00195,0
48430,-1.22315,-0.893974,-0.994137,0
48450,-1.22934,-0.890666,-0.98604,0
48470,-1.23446,-0.886628,-0.977732,0
48490,-1.23865,-0.882913,-0.968791,0
48510,-1.24335,-0.880016,-0.959942,0
48530,-1.24863,-0.876051,-0.951132,0
48550,-1.25434,-0.871736,-0.941025,0
48570,-1.26075,-0.868892,-0.92986,0
48590,-1.26816,-0.865863,-0.919077,0
48610,-1.27777,-0.860578,-0.908524,0
48630,-1.2896,-0.854156,-0.896214,0
48650,-1.30456,-0.849275,-0.881356,0
48670,-1.31992,-0.842833,-0.866772,0
48690,-1.33525,-0.835126,-0.852918,0
48710,-1.34987,-0.828087,-0.839097,0
48730,-1.3656,-0.823472,-0.824173,0
48750,-1.38112,-0.818296,-0.810338,0
48770,-1.39588,-0.81318,-0.796438,0
48790,-1.41121,-0.810472,-0.781168,0
48810,-1.42721,-0.808206,-0.765783,0
48830,-1.44359,-0.804908,-0.750913,0
48850,-1.45925,-0.801289,-0.736457,0
48870,-1.47459,-0.798891,-0.720317,0
48890,-1.48949,-0.797055,-0.704438,0
48910,-1.50296,-0.794612,-0.689462,0
48930,-1.51778,-0.79292,-0.672744,0
48950,-1.53521,-0.791481,-0.655251,0
48970,-1.55285,-0.789176,-0.637871,0
48990,-1.5694,-0.786525,-0.620223,0
49010,-1.58512,-0.784125,-0.602427,0
49030,-1.60099,-0.782553,-0.584991,0
49050,-1.61638,-0.781249,-0.568717,0
49070,-1.63017,-0.78041,-0.5519,0
49090,-1.64487,-0.780595,-0.533976,0
49110,-1.65957,-0.780679,-0.517002,0
49130,-1.67371,-0.780761,-0.500135,0
49150,-1.68911,-0.781806,-0.481973,0
49170,-1.70687,-0.782928,-0.46225,0
49190,-1.72521,-0.783413,-0.443552,0
49210,-1.74065,-0.783079,-0.426589,0
49230,-1.7533,-0.783809,-0.409606,0
49250,-1.76615,-0.786471,-0.392145,0
49270,-1.77776,-0.789322,-0.375536,0
49290,-1.78846,-0.791815,-0.359199,0
49310,-1.8004,-0.795961,-0.341055,0
49330,-1.81499,-0.800834,-0.322465,0
49350,-1.8303,-0.804997,-0.305216,0
49370,-1.84333,-0.808006,-0.287642,0
49390,-1.85497,-0.812165,-0.269186,0
49410,-1.86656,-0.817859,-0.250381,0
49430,-1.87855,-0.822832,-0.231945,0
49450,-1.89142,-0.82658,-0.213079,0
49470,-1.90459,-0.830546,-0.194598,0
49490,-1.91468,-0.835438,-0.177548,0
49510,-1.92468,-0.840319,-0.159824,0
49530,-1.93484,-0.846251,-0.143299,0
49550,-1.94263,-0.852394,-0.128489,0
49570,-1.95074,-0.858845,-0.112744,0
49590,-1.96036,-0.867275,-0.0972467,0
49610,-1.96737,-0.876006,-0.0842332,0
49630,-1.97329,-0.883356,-0.0720414,0
49650,-1.97975,-0.891,-0.0590764,0
49670,-1.98938,-0.899281,-0.044998,0
49690,-2.00012,-0.907142,-0.0321295,0
49710,-2.01077,-0.915592,-0.0195733,0
49730,-2.0204,-0.924897,-0.00731963,0
49750,-2.02882,-0.934169,0.00461678,0
49770,-2.03679,-0.943133,0.0171561,0
49790,-2.04629,-0.95349,0.0301904,0
49810,-2.05512,-0.96394,0.0413864,0
49830,-2.063,-0.973399,0.0516668,0
49850,-2.07162,-0.981864,0.0630662,0
49870,-2.07963,-0.991475,0.0730957,2001
49890,-2.0869,-1.00151,0.0813157,0
49910,-2.09298,-1.01001,0.0882499,0
49930,-2.09769,-1.0168,0.0943546,0
49950,-2.09916,-1.02289,0.0981537,0
49970,-2.10109,-1.02867,0.101744,0
49990,-2.10337,-1.0343,0.10401,0
50010,-2.10541,-1.03999,0.10298,0
50030,-2.10525,-1.04513,0.102057,0
50050,-2.10497,-1.04992,0.103215,0
50070,-2.10492,-1.05476,0.10351,0
50090,-2.10405,-1.05997,0.101818,0
50110,-2.10177,-1.06531,0.0985747,0
50130,-2.09654,-1.07058,0.094994,0
50150,-2.08891,-1.07471,0.0906043,0
50170,-2.07053,-1.07554,0.0774602,0
50190,-2.05078,-1.07483,0.0625068,0
50210,-2.03538,-1.07563,0.0506579,0
50230,-2.0229,-1.07768,0.0386975,0
50250,-2.00046,-1.07786,0.0163162,0
50270,-1.96738,-1.0752,-0.0132413,0
50290,-1.92911,-1.07125,-0.0426144,0
50310,-1.89164,-1.06814,-0.0693753,0
50330,-1.84258,-1.06631,-0.11139,0
50350,-1.784,-1.05959,-0.162213,0
50370,-1.73029,-1.0496,-0.202088,0
50390,-1.6826,-1.04256,-0.238557,0
50410,-1.62091,-1.0318,-0.2934,0
50430,-1.55507,-1.01383,-0.350099,0
50450,-1.49364,-0.995473,-0.392056,0
50470,-1.42761,-0.983008,-0.437602,0
50490,-1.35692,-0.967535,-0.490777,0
50510,-1.30443,-0.947241,-0.523121,0
50530,-1.27232,-0.927706,-0.537974,0
50550,-1.24604,-0.904941,-0.550991,0
50570,-1.22491,-0.876291,-0.559643,0
50590,-1.20916,-0.851995,-0.562801,0
50610,-1.18872,-0.836281,-0.568225,0
50630,-1.17447,-0.817852,-0.564501,0
50650,-1.17646,-0.798111,-0.548381,0
50670,-1.1835,-0.781637,-0.532374,0
50690,-1.19279,-0.766492,-0.517772,0
50710,-1.20735,-0.749447,-0.500476,0
50730,-1.22059,-0.732424,-0.482449,0
50750,-1.23082,-0.717588,-0.464133,0
50770,-1.23924,-0.701113,-0.44949,0
50790,-1.24757,-0.683123,-0.440063,0
50810,-1.25211,-0.665707,-0.434359,0
50830,-1.25175,-0.650196,-0.430429,0
50850,-1.25208,-0.634463,-0.425541,0
50870,-1.25345,-0.621134,-0.423053,0
50890,-1.25272,-0.608953,-0.42326,0
50910,-1.25234,-0.598613,-0.422826,0
50930,-1.25389,-0.589864,-0.421187,0
50950,-1.25731,-0.582667,-0.41957,0
50970,-1.25946,-0.576254,-0.41846,0
50990,-1.26187,-0.568162,-0.41685,0
51010,-1.26454,-0.559643,-0.413569,0
51030,-1.26694,-0.553283,-0.410837,0
51050,-1.27064,-0.546731,-0.409374,0
51070,-1.27515,-0.540485,-0.408351,0
51090,-1.27986,-0.536349,-0.407194,0
51110,-1.2821,-0.531641,-0.406748,0
51130,-1.28275,-0.526449,-0.405698,0
51150,-1.28254,-0.522029,-0.404895,0
51170,-1.28347,-0.519355,-0.40438,0
51190,-1.28559,-0.51762,-0.404853,0
51210,-1.28649,-0.515262,-0.405961,0
51230,-1.28608,-0.513726,-0.406785,0
51250,-1.28527,-0.512911,-0.408148,0
51270,-1.28379,-0.511233,-0.409514,0
51290,-1.28355,-0.510658,-0.410303,0
51310,-1.28454,-0.511001,-0.410458,0
51330,-1.28572,-0.511031,-0.410288,0
51350,-1.28587,-0.510944,-0.410505,0
51370,-1.28643,-0.51165,-0.409941,0
51390,-1.28725,-0.511823,-0.408552,2000
51410,-1.28865,-0.511029,-0.406628,0
51430,-1.29018,-0.510323,-0.404941,0
51450,-1.29052,-0.510193,-0.405021,0
51470,-1.29052,-0.510108,-0.404894,0
51490,-1.29006,-0.509406,-0.404625,0
51510,-1.2888,-0.508599,-0.404013,0
51530,-1.28855,-0.508251,-0.403289,0
51550,-1.28908,-0.507806,-0.403048,0
51570,-1.29002,-0.507206,-0.40221,0
51590,-1.28917,-0.506919,-0.400634,0
51610,-1.28818,-0.507543,-0.399157,0
51630,-1.28798,-0.508743,-0.397793,0
51650,-1.28932,-0.509764,-0.396018,0
51670,-1.28959,-0.511217,-0.393777,0
51690,-1.2892,-0.513034,-0.391544,0
51710,-1.28929,-0.515384,-0.389087,0
51730,-1.29081,-0.517909,-0.386412,0
51750,-1.29238,-0.52074,-0.38352,0
51770,-1.29358,-0.523124,-0.380573,0
51790,-1.29541,-0.525478,-0.377135,0
51800,-1.29655,-0.527339,-0.373785,0
51820,-1.29696,-0.528487,-0.370866,0
51840,-1.29831,-0.52911,-0.366993,0
51860,-1.30131,-0.529776,-0.362429,0
51880,-1.30373,-0.53111,-0.3586,0
51900,-1.30538,-0.531905,-0.355225,0
51920,-1.30634,-0.531862,-0.351921,0
51940,-1.30603,-0.531947,-0.348431,0
51960,-1.30544,-0.532838,-0.344446,0
51980,-1.30622,-0.534114,-0.340525,0
52000,-1.30819,-0.535535,-0.336859,0
52020,-1.30897,-0.537511,-0.333223,0
52040,-1.30814,-0.540737,-0.329755,0
52060,-1.30743,-0.544581,-0.326051,0
52080,-1.30737,-0.547941,-0.32217,0
52100,-1.30787,-0.55103,-0.318093,0
52120,-1.30878,-0.554818,-0.314141,0
52140,-1.3101,-0.55813,-0.309558,0
52160,-1.31217,-0.561203,-0.304753,0
52180,-1.31463,-0.563775,-0.29951,0
52200,-1.3176,-0.566446,-0.29257,0
52220,-1.32085,-0.569431,-0.285533,0
52240,-1.3237,-0.571365,-0.280103,0
52260,-1.3264,-0.574239,-0.274586,0
52280,-1.32865,-0.576829,-0.270263,0
52300,-1.33026,-0.579356,-0.265966,0
52320,-1.33156,-0.582481,-0.261965,0
52340,-1.33297,-0.586351,-0.258064,0
52360,-1.33358,-0.590251,-0.254722,0
52380,-1.33462,-0.594391,-0.251296,0
52400,-1.33508,-0.59887,-0.247758,0
52420,-1.33501,-0.603397,-0.245307,0
52440,-1.33568,-0.608937,-0.242376,0
52460,-1.33734,-0.614504,-0.23903,0
52480,-1.33999,-0.619558,-0.234997,0
52500,-1.3426,-0.624088,-0.231711,0
52520,-1.34377,-0.629006,-0.229149,0
52540,-1.34452,-0.634427,-0.226587,0
52560,-1.34684,-0.639708,-0.223929,0
52610,-1.35335,-0.654647,-0.21993,0
52630,-1.35593,-0.678133,-0.229252,0
52650,-1.35625,-0.68481,-0.233107,0
52720,-1.33571,-0.846448,-0.536016,0
52740,-1.33171,-0.851289,-0.55316,0
52760,-1.32691,-0.856086,-0.571036,0
52780,-1.32211,-0.860817,-0.588885,0
52800,-1.31712,-0.865743,-0.606793,0
52820,-1.3128,-0.8712,-0.623787,0
52830,-1.30865,-0.876629,-0.640595,0
52850,-1.30383,-0.882163,-0.658487,0
52870,-1.29802,-0.887297,-0.677161,0
52890,-1.2919,-0.892368,-0.695304,0
52930,-1.25887,-0.912987,-0.79183,0
52950,-1.2506,-0.91551,-0.81128,0
52970,-1.24173,-0.917701,-0.831163,0
52990,-1.23381,-0.919615,-0.851557,0
53010,-1.22646,-0.92134,-0.870785,0
53030,-1.21779,-0.922462,-0.888986,0
53050,-1.20993,-0.92334,-0.905674,0
53070,-1.20275,-0.923445,-0.922324,0
53090,-1.19569,-0.923443,-0.938818,0
53110,-1.18898,-0.923239,-0.953787,0
53130,-1.18307,-0.923027,-0.967336,0
53150,-1.17614,-0.921451,-0.98155,0
53150,-1.1698,-0.919085,-0.995137,0
53170,-1.16433,-0.91772,-1.00758,0
53180,-1.15948,-0.917568,-1.01975,0
53200,-1.15431,-0.917327,-1.03133,0
53220,-1.14916,-0.916782,-1.04216,0
53240,-1.14402,-0.915003,-1.05313,0
53260,-1.13909,-0.912592,-1.0643,0
53280,-1.13434,-0.910597,-1.07548,0
53300,-1.13009,-0.908397,-1.08577,0
53320,-1.12801,-0.905758,-1.0931,0
53340,-1.12679,-0.903234,-1.09939,0
53360,-1.12387,-0.900397,-1.1055,0
53380,-1.1223,-0.896729,-1.10925,0
53400,-1.1225,-0.892143,-1.11109,0
53420,-1.1216,-0.886441,-1.11285,0
53440,-1.1212,-0.881465,-1.11405,0
53460,-1.12164,-0.877406,-1.11427,0
53480,-1.12213,-0.874144,-1.11302,0
53500,-1.12383,-0.87047,-1.10999,0
53520,-1.12613,-0.8669,-1.10559,0
53540,-1.12706,-0.864951,-1.10184,0
53560,-1.12739,-0.863007,-1.099,0
53580,-1.1291,-0.860656,-1.09509,0
53600,-1.13181,-0.858202,-1.09048,0
53620,-1.13309,-0.855048,-1.08651,0
53640,-1.13435,-0.851504,-1.08235,0
53660,-1.13702,-0.848355,-1.0779,0
53680,-1.13882,-0.845125,-1.07387,0
53700,-1.13914,-0.84021,-1.07002,0
53720,-1.14103,-0.836293,-1.06481,0
53740,-1.14348,-0.83296,-1.05991,0
53760,-1.14621,-0.828738,-1.05547,0
53780,-1.14868,-0.824039,-1.05115,0
53800,-1.14988,-0.819664,-1.047,0
53820,-1.14975,-0.814647,-1.04355,0
53840,-1.15104,-0.808621,-1.03936,0
53860,-1.15467,-0.803638,-1.03421,0
53880,-1.15939,-0.799588,-1.02826,0
53900,-1.16466,-0.794553,-1.02313,0
53920,-1.16977,-0.787482,-1.01722,0
53940,-1.17452,-0.78071,-1.00949,0
53960,-1.17926,-0.775788,-1.00244,0
53980,-1.1828,-0.77149,-0.997085,0
54000,-1.18709,-0.766976,-0.991515,0
54020,-1.1932,-0.762455,-0.984079,0
54040,-1.19828,-0.758465,-0.977836,0
54060,-1.20012,-0.754435,-0.973493,0
54080,-1.20194,-0.751176,-0.968323,0
54100,-1.20418,-0.7478,-0.962985,0
54120,-1.20638,-0.74386,-0.958054,0
54140,-1.2072,-0.739427,-0.953237,0
54160,-1.20836,-0.736134,-0.947833,0
54180,-1.21038,-0.733364,-0.942748,0
54200,-1.21263,-0.729527,-0.938032,0
54220,-1.21429,-0.724883,-0.933046,0
54240,-1.21606,-0.720625,-0.927698,0
54260,-1.2177,-0.71676,-0.922576,0
54280,-1.21982,-0.712482,-0.917473,0
54300,-1.22182,-0.707743,-0.912692,0
54320,-1.22407,-0.703001,-0.907822,0
54340,-1.22585,-0.698855,-0.902512,0
54360,-1.22676,-0.695074,-0.897934,0
54380,-1.22658,-0.690733,-0.894144,0
54400,-1.22672,-0.686758,-0.889975,0
54420,-1.22633,-0.683965,-0.885482,0
54440,-1.22512,-0.682105,-0.881056,0
54460,-1.22526,-0.680611,-0.87607,0
54480,-1.22658,-0.679104,-0.870407,0
54500,-1.22743,-0.67709,-0.864907,0
54520,-1.22762,-0.675234,-0.859924,0
54540,-1.22897,-0.673757,-0.853955,0
54560,-1.23061,-0.672623,-0.847739,0
54580,-1.23217,-0.670838,-0.841708,0
54600,-1.23371,-0.668514,-0.835729,0
54620,-1.23511,-0.666674,-0.829622,0
54640,-1.23639,-0.665502,-0.823969,0
54660,-1.23716,-0.664564,-0.818473,0
54680,-1.2383,-0.663866,-0.813062,0
54700,-1.24027,-0.66318,-0.807079,0
54720,-1.24151,-0.66284,-0.801597,0
54740,-1.24235,-0.662838,-0.796819,0
54760,-1.24343,-0.662531,-0.791587,0
54780,-1.24498,-0.662821,-0.785912,0
54800,-1.24722,-0.663051,-0.779769,0
54820,-1.24943,-0.663059,-0.774065,0
54840,-1.25107,-0.662955,-0.768657,0
54860,-1.25332,-0.663065,-0.762963,0
54880,-1.25527,-0.662666,-0.756994,0
54900,-1.25783,-0.662384,-0.750572,0
54920,-1.26064,-0.662796,-0.743989,0
54940,-1.26354,-0.662717,-0.737543,0
54960,-1.26632,-0.662184,-0.731237,0
54980,-1.27004,-0.661167,-0.724152,0
55000,-1.27393,-0.660321,-0.716058,0
55020,-1.2778,-0.659846,-0.708371,0
55040,-1.28148,-0.659094,-0.700838,0
55060,-1.2854,-0.657907,-0.693413,0
55080,-1.28936,-0.656727,-0.685614,0
55100,-1.29212,-0.655453,-0.678297,0
55120,-1.29438,-0.654315,-0.671317,0
55140,-1.29756,-0.653575,-0.66305,0
55160,-1.30192,-0.653088,-0.654624,0
55180,-1.30586,-0.652548,-0.646343,0
55200,-1.30909,-0.651886,-0.638307,0
55220,-1.31259,-0.650812,-0.629556,0
55240,-1.31716,-0.649864,-0.619543,0
55260,-1.32233,-0.649261,-0.609474,0
55280,-1.3269,-0.648164,-0.599719,0
55300,-1.33188,-0.647359,-0.589743,0
55320,-1.3363,-0.646864,-0.579753,0
55340,-1.34043,-0.645703,-0.569607,0
55360,-1.34483,-0.644704,-0.55898,0
55380,-1.34918,-0.643945,-0.548414,0
55400,-1.354,-0.643011,-0.53769,0
55420,-1.35841,-0.641372,-0.527339,0
55440,-1.36323,-0.639334,-0.516671,0
55460,-1.36769,-0.636824,-0.506137,0
55480,-1.37145,-0.633665,-0.495029,0
55500,-1.37703,-0.631403,-0.483122,0
55520,-1.38209,-0.629073,-0.472199,0
55540,-1.38684,-0.625516,-0.461964,0
55560,-1.3917,-0.622261,-0.450936,0
55580,-1.39736,-0.620181,-0.439768,0
55600,-1.40207,-0.617209,-0.429805,0
55620,-1.40655,-0.613734,-0.420276,0
55640,-1.41024,-0.610626,-0.410977,0
55660,-1.41322,-0.608329,-0.402142,0
55680,-1.41696,-0.606058,-0.39293,0
55700,-1.42019,-0.604535,-0.384178,0
55720,-1.42302,-0.602912,-0.375482,0
55740,-1.42605,-0.601224,-0.366628,0
55760,-1.42956,-0.601382,-0.357293,0
55780,-1.43395,-0.602564,-0.347532,0
55800,-1.43972,-0.603787,-0.337851,0
55820,-1.44602,-0.605378,-0.32734,0
55840,-1.45179,-0.607248,-0.316571,0
55860,-1.45797,-0.609489,-0.305106,0
55880,-1.46268,-0.611855,-0.294313,0
55900,-1.46703,-0.614435,-0.283231,0
55920,-1.4728,-0.617974,-0.271642,0
55940,-1.479,-0.621518,-0.260258,0
55960,-1.48509,-0.624996,-0.249061,0
55980,-1.49168,-0.628573,-0.237772,0
56000,-1.49834,-0.632383,-0.226912,0
56020,-1.50479,-0.635844,-0.216337,0
56040,-1.50996,-0.640149,-0.206125,0
56060,-1.51477,-0.645028,-0.196131,0
56080,-1.52066,-0.649448,-0.186307,0
56100,-1.52735,-0.653121,-0.176615,0
56120,-1.53325,-0.657821,-0.167803,0
56140,-1.53804,-0.662486,-0.159938,0
56160,-1.54294,-0.666341,-0.15193,0
56180,-1.54712,-0.670199,-0.144751,0
56200,-1.55036,-0.674188,-0.138637,0
56220,-1.55272,-0.678228,-0.133831,0
56240,-1.5539,-0.682935,-0.131251,0
56260,-1.55413,-0.686796,-0.129299,0
56280,-1.55495,-0.691173,-0.126503,0
56300,-1.55583,-0.695975,-0.124668,0
56320,-1.55642,-0.700804,-0.123888,0
56340,-1.55565,-0.70573,-0.123404,0
56360,-1.55523,-0.71204,-0.121445,0
56380,-1.55797,-0.720199,-0.117467,0
56400,-1.56248,-0.727114,-0.113966,0
56420,-1.56679,-0.734392,-0.10998,0
56440,-1.57165,-0.743008,-0.10543,0
56460,-1.57718,-0.751394,-0.100674,0
56480,-1.58263,-0.759318,-0.0965028,0
56500,-1.58888,-0.76675,-0.0925685,0
56520,-1.59597,-0.774116,-0.0881237,0
56540,-1.60314,-0.78182,-0.0835678,0
56550,-1.60937,-0.789353,-0.0800992,0
56570,-1.61449,-0.79741,-0.0777777,0
56590,-1.62055,-0.805601,-0.0749253,0
56610,-1.62612,-0.813174,-0.0728952,0
56630,-1.63102,-0.820835,-0.0708437,0
56650,-1.63597,-0.828129,-0.0694501,0
56670,-1.64105,-0.836071,-0.0685888,0
56690,-1.64414,-0.844896,-0.0688599,0
56710,-1.64726,-0.853174,-0.0700227,0
56730,-1.64999,-0.861313,-0.0715722,0
56750,-1.65261,-0.870171,-0.072896,0
56770,-1.65508,-0.879944,-0.074736,0
56790,-1.65834,-0.890071,-0.0780875,0
56810,-1.6603,-0.900557,-0.0834904,0
56830,-1.66383,-0.910963,-0.0872405,0
56850,-1.66687,-0.92204,-0.0916015,0
56870,-1.66999,-0.932873,-0.0965684,0
56890,-1.67226,-0.942766,-0.102871,0
56910,-1.6735,-0.953943,-0.111088,0
56930,-1.67498,-0.965558,-0.120263,0
56950,-1.6768,-0.977016,-0.13089,0
56970,-1.67673,-0.988136,-0.141538,0
56990,-1.67652,-0.999565,-0.152392,0
57010,-1.67725,-1.0119,-0.163308,0
57030,-1.67853,-1.02436,-0.174193,0
57050,-1.67872,-1.03683,-0.185581,0
57070,-1.67888,-1.04931,-0.196616,0
57090,-1.67943,-1.06195,-0.207564,0
57110,-1.67895,-1.07412,-0.219127,0
57130,-1.67745,-1.08611,-0.231566,0
57150,-1.67616,-1.09813,-0.244523,0
57170,-1.6737,-1.10939,-0.257897,0
57190,-1.66969,-1.12092,-0.272211,0
57210,-1.66683,-1.1321,-0.285655,0
57230,-1.66288,-1.14231,-0.299466,0
57250,-1.65857,-1.15275,-0.313217,0
57270,-1.65427,-1.16261,-0.327089,0
57290,-1.64873,-1.17195,-0.341573,0
57310,-1.64211,-1.18084,-0.356902,0
57330,-1.63419,-1.1893,-0.373506,0
57350,-1.6263,-1.19702,-0.389462,0
57370,-1.61689,-1.20456,-0.40739,0
57390,-1.60426,-1.21137,-0.427762,0
57410,-1.58976,-1.21722,-0.449818,0
57430,-1.57429,-1.22205,-0.472323,0
57450,-1.55762,-1.22659,-0.496098,0
57470,-1.53783,-1.23115,-0.523181,0
57490,-1.51682,-1.23433,-0.550782,0
57510,-1.49547,-1.23691,-0.578615,0
57530,-1.47286,-1.2393,-0.607252,0
57550,-1.44869,-1.24045,-0.63684,0
57570,-1.42474,-1.24036,-0.666166,0
57590,-1.40092,-1.23982,-0.695732,0
57610,-1.376,-1.23788,-0.725691,0
57630,-1.35334,-1.23532,-0.751734,0
57650,-1.33165,-1.23178,-0.776148,0
57670,-1.31105,-1.22785,-0.800435,0
57690,-1.29164,-1.22371,-0.822612,0
57710,-1.27314,-1.21956,-0.843158,0
57730,-1.25708,-1.21481,-0.860325,0
57750,-1.24439,-1.20839,-0.873062,0
57770,-1.23548,-1.20086,-0.883712,0
57790,-1.22374,-1.19337,-0.896021,0
57810,-1.21085,-1.1868,-0.90945,0
57830,-1.20062,-1.17906,-0.919445,0
57850,-1.1915,-1.17078,-0.928432,0
57870,-1.18195,-1.16194,-0.938184,0
57890,-1.17042,-1.1542,-0.950476,0
57910,-1.15973,-1.14816,-0.961527,0
57930,-1.14982,-1.1412,-0.971827,0
57950,-1.14298,-1.13269,-0.979592,0
57970,-1.13592,-1.12457,-0.986797,0
57990,-1.12764,-1.11756,-0.995413,0
58010,-1.11878,-1.11163,-1.00608,0
58030,-1.1121,-1.10476,-1.01565,0
58050,-1.10743,-1.09613,-1.02299,0
58070,-1.10098,-1.08805,-1.02913,0
58090,-1.0935,-1.08199,-1.03608,0
58110,-1.0871,-1.07596,-1.0441,0
58130,-1.08207,-1.06862,-1.05151,0
58150,-1.07715,-1.06124,-1.05729,0
58170,-1.07309,-1.05497,-1.06125,0
58190,-1.06928,-1.04871,-1.0656,0
58210,-1.06539,-1.0411,-1.07034,0
58230,-1.06295,-1.03398,-1.07304,0
58250,-1.05999,-1.02779,-1.07576,0
58270,-1.05716,-1.02157,-1.07912,0
58290,-1.0567,-1.0151,-1.08125,0
58310,-1.05587,-1.00882,-1.08295,0
58330,-1.05403,-1.00282,-1.08484,0
58350,-1.05446,-0.996687,-1.08525,0
58370,-1.05565,-0.990131,-1.08489,0
58390,-1.05629,-0.984501,-1.08496,0
58410,-1.05573,-0.979327,-1.08505,0
58430,-1.05597,-0.974253,-1.08475,0
58450,-1.05678,-0.968803,-1.08328,0
58470,-1.05916,-0.963471,-1.0811,0
58490,-1.06165,-0.958351,-1.07883,0
58510,-1.06459,-0.954045,-1.0754,0
58520,-1.07,-0.949737,-1.06972,0
58540,-1.07524,-0.945976,-1.06344,0
58560,-1.07898,-0.943011,-1.05745,0
58580,-1.08413,-0.940402,-1.04961,0
58600,-1.09052,-0.938238,-1.04056,0
58620,-1.09683,-0.935794,-1.03213,0
58640,-1.1024,-0.933356,-1.02305,0
58660,-1.10901,-0.932357,-1.01354,0
58680,-1.11417,-0.931347,-1.00537,0
58700,-1.11844,-0.930288,-0.997451,0
58720,-1.12247,-0.929359,-0.989586,0
58740,-1.12537,-0.927959,-0.982646,0
58760,-1.12763,-0.925484,-0.976417,0
58780,-1.12944,-0.922955,-0.970641,0
58800,-1.13078,-0.920587,-0.964685,0
58820,-1.13191,-0.91803,-0.958883,0
58840,-1.13401,-0.914847,-0.9529,0
58860,-1.13697,-0.9117,-0.947046,0
58880,-1.13931,-0.908421,-0.94123,0
58900,-1.14093,-0.906035,-0.935845,0
58920,-1.14377,-0.903325,-0.929382,0
58940,-1.14706,-0.900596,-0.923229,0
58960,-1.15094,-0.897314,-0.917153,0
58980,-1.15383,-0.894671,-0.911189,0
59000,-1.15708,-0.893213,-0.905038,0
59020,-1.16051,-0.89137,-0.898934,0
59040,-1.16452,-0.888385,-0.892089,0
59060,-1.17017,-0.886013,-0.883318,0
59080,-1.17553,-0.884113,-0.875705,0
59100,-1.18144,-0.880861,-0.868512,0
59120,-1.18709,-0.876838,-0.861004,0
59140,-1.19298,-0.873211,-0.851634,0
59160,-1.19809,-0.869884,-0.843774,0
59180,-1.20331,-0.866177,-0.83657,0
59200,-1.20829,-0.862164,-0.829356,0
59220,-1.2127,-0.858284,-0.821921,0
59240,-1.21667,-0.854246,-0.814198,0
59260,-1.22184,-0.850213,-0.805577,0
59280,-1.22841,-0.846458,-0.79654,0
59300,-1.23574,-0.842446,-0.788073,0
59320,-1.24243,-0.837883,-0.779397,0
59340,-1.24899,-0.834226,-0.769716,0
59360,-1.25679,-0.83087,-0.759465,0
59380,-1.26557,-0.827301,-0.749211,0
59400,-1.27487,-0.823558,-0.738262,0
59420,-1.283,-0.820632,-0.726121,0
59440,-1.29211,-0.818839,-0.714034,0
59460,-1.30423,-0.816992,-0.700843,0
59480,-1.31556,-0.81483,-0.687632,0
59500,-1.32501,-0.812344,-0.674551,0
59520,-1.33414,-0.810433,-0.661879,0
59540,-1.34353,-0.808603,-0.650254,0
59560,-1.35199,-0.806675,-0.639264,0
59580,-1.35934,-0.80512,-0.628822,0
59600,-1.36585,-0.804088,-0.61844,0
59620,-1.37192,-0.803519,-0.608392,0
59640,-1.37827,-0.802846,-0.59928,0
59660,-1.38429,-0.802479,-0.590968,0
59680,-1.38849,-0.803339,-0.583986,0
59700,-1.39123,-0.803744,-0.577603,0
59720,-1.39422,-0.803862,-0.570623,0
59740,-1.39919,-0.803781,-0.563763,0
59760,-1.4068,-0.803189,-0.556918,0
59780,-1.4136,-0.801903,-0.550789,0
59800,-1.41751,-0.801319,-0.544179,0
59820,-1.42019,-0.801008,-0.537743,0
59840,-1.42212,-0.800065,-0.531905,0
59860,-1.42654,-0.799502,-0.525134,0
59880,-1.4341,-0.799328,-0.517824,0
59900,-1.44111,-0.797988,-0.510462,0
59920,-1.44606,-0.796859,-0.502789,0
59940,-1.45013,-0.797123,-0.494451,0
59960,-1.45573,-0.797876,-0.485835,0
59980,-1.46253,-0.797581,-0.477843,0
60000,-1.47067,-0.796047,-0.469315,0
60020,-1.47787,-0.794986,-0.459888,0
60040,-1.4843,-0.794496,-0.45001,0
60060,-1.49034,-0.79352,-0.440582,0
60080,-1.49739,-0.792486,-0.43036,0
60100,-1.505,-0.791818,-0.419917,0
60120,-1.51196,-0.791071,-0.409613,0
60140,-1.51833,-0.790112,-0.400014,0
60160,-1.52487,-0.789784,-0.389607,0
60180,-1.53204,-0.790536,-0.378543,0
60200,-1.53868,-0.791169,-0.367391,0
60220,-1.54423,-0.791835,-0.356022,0
60240,-1.55096,-0.792641,-0.344327,0
60260,-1.5599,-0.793822,-0.331851,0
60280,-1.5702,-0.794747,-0.318972,0
60300,-1.57919,-0.794922,-0.30661,0
60320,-1.58716,-0.795508,-0.294277,0
60340,-1.59533,-0.796092,-0.281489,0
60360,-1.60541,-0.797262,-0.268676,0
60380,-1.6158,-0.798342,-0.257119,0
60400,-1.62401,-0.799047,-0.245826,0
60420,-1.63137,-0.800734,-0.233329,0
60440,-1.63773,-0.803602,-0.221092,0
60460,-1.64529,-0.806177,-0.209012,0
60480,-1.65377,-0.808822,-0.197085,0
60500,-1.66254,-0.811857,-0.185075,0
60520,-1.6708,-0.814818,-0.173058,0
60540,-1.67753,-0.81832,-0.161076,0
60560,-1.68421,-0.82197,-0.148586,0
60580,-1.69137,-0.826192,-0.135858,0
60600,-1.69988,-0.830223,-0.123128,0
60620,-1.70919,-0.833798,-0.110854,0
60640,-1.71857,-0.837149,-0.0980009,0
60660,-1.72664,-0.840547,-0.0851315,0
60680,-1.73478,-0.84509,-0.0718233,0
60700,-1.74421,-0.849742,-0.0581294,0
60720,-1.75475,-0.85376,-0.0453025,0
60740,-1.76524,-0.858242,-0.0326913,0
60760,-1.77485,-0.863203,-0.0201775,0
60780,-1.78392,-0.868779,-0.00855802,0
60800,-1.79255,-0.874689,0.00263479,0
60820,-1.80183,-0.880945,0.0144195,0
60840,-1.81107,-0.888038,0.0250764,0
60860,-1.82003,-0.895177,0.0342528,0
60880,-1.8281,-0.902014,0.0421123,0
60900,-1.83487,-0.909368,0.0504014,0
60920,-1.84137,-0.917299,0.0583817,0
60940,-1.84883,-0.925331,0.0652648,0
60960,-1.85799,-0.933733,0.0708706,0
60980,-1.86519,-0.942454,0.0745318,0
61000,-1.86985,-0.952476,0.0781586,0
61020,-1.87652,-0.962988,0.0840891,0
61040,-1.88469,-0.973295,0.0891206,0
61060,-1.89336,-0.983348,0.092633,0
61080,-1.90101,-0.993243,0.0951771,0
61100,-1.90756,-1.00346,0.0982336,0
61120,-1.91266,-1.01497,0.101141,0
61140,-1.91943,-1.02791,0.1053,0
61160,-1.92829,-1.0412,0.109458,0
61180,-1.93603,-1.05344,0.111455,0
61200,-1.94231,-1.06541,0.111176,0
61220,-1.94808,-1.0775,0.112068,0
61240,-1.95356,-1.09148,0.113437,0
61260,-1.95849,-1.10555,0.113151,0
61280,-1.96389,-1.11861,0.112146,0
61300,-1.96785,-1.13134,0.108984,0
61320,-1.97019,-1.14344,0.106196,0
61330,-1.9815,-1.1712,0.105439,0
61350,-1.98716,-1.18515,0.103546,0
61370,-1.99148,-1.19878,0.100333,0
61390,-1.9958,-1.2124,0.0975802,0
61410,-2.00047,-1.22679,0.0950457,0
61430,-2.00554,-1.24149,0.0929093,0
61450,-2.0081,-1.25513,0.088114,0
61470,-2.00956,-1.26844,0.082636,0
61490,-2.01219,-1.28254,0.076537,0
61510,-2.01355,-1.29549,0.0697801,0
61530,-2.01352,-1.30818,0.0617346,0
61550,-2.01058,-1.32015,0.0507523,0
61570,-2.00211,-1.33152,0.0350158,0
61590,-1.98888,-1.342,0.0149007,0
61610,-1.97111,-1.35119,-0.00863546,0
61630,-1.95017,-1.36136,-0.0353103,0
61650,-1.92513,-1.37074,-0.0663362,0
61670,-1.89371,-1.37829,-0.104142,0
61690,-1.85468,-1.38479,-0.14835,0
61710,-1.809,-1.38966,-0.198258,0
61730,-1.75946,-1.3941,-0.252391,0
61750,-1.70637,-1.39728,-0.30891,0
61770,-1.65224,-1.39815,-0.366494,0
61790,-1.60062,-1.39727,-0.422189,0
61800,-1.54919,-1.39539,-0.478165,0
61820,-1.49555,-1.3926,-0.53653,0
61830,-1.44201,-1.38939,-0.594624,0
61850,-1.3883,-1.3856,-0.651799,0
61870,-1.33699,-1.38114,-0.705401,0
61890,-1.29422,-1.37503,-0.749848,0
61900,-1.24985,-1.36877,-0.797992,0
61920,-1.20984,-1.36237,-0.842837,0
61940,-1.17218,-1.3549,-0.882929,0
61960,-1.14132,-1.34726,-0.916566,0
61980,-1.11617,-1.33806,-0.94529,0
62000,-1.09257,-1.32898,-0.970255,0
62020,-1.0712,-1.32136,-0.994251,0
62040,-1.0501,-1.31234,-1.01931,0
62060,-1.0369,-1.30118,-1.03626,0
62080,-1.02868,-1.2905,-1.04659,0
62100,-1.01903,-1.28147,-1.05851,0
62120,-1.0097,-1.27136,-1.06988,0
62140,-1.00532,-1.2612,-1.07805,0
62160,-1.00283,-1.24994,-1.08223,0
62180,-1.00079,-1.23906,-1.0865,0
62200,-1.00017,-1.228,-1.09025,0
62220,-1.0037,-1.21614,-1.09127,0
62240,-1.0081,-1.20325,-1.08985,0
62260,-1.01015,-1.19188,-1.08947,0
62280,-1.01577,-1.18157,-1.0872,0
62300,-1.02512,-1.17092,-1.08422,0
62320,-1.03382,-1.15919,-1.08154,0
62340,-1.04109,-1.14768,-1.07807,0
62360,-1.04901,-1.1375,-1.0739,0
62380,-1.0596,-1.12737,-1.0698,0
62400,-1.07165,-1.11671,-1.06437,0
62420,-1.07968,-1.10644,-1.06093,0
62440,-1.08986,-1.09648,-1.05497,0
62460,-1.10204,-1.08691,-1.04872,0
62480,-1.1141,-1.07623,-1.04428,0
62500,-1.12447,-1.06542,-1.03986,0
62520,-1.13221,-1.05598,-1.03589,0
62540,-1.13921,-1.04704,-1.03182,0
62560,-1.14787,-1.03845,-1.02772,0
62580,-1.15588,-1.03018,-1.02489,0
62600,-1.16237,-1.02281,-1.02159,0
62620,-1.1686,-1.01622,-1.01806,0
62640,-1.17515,-1.01003,-1.01531,0
62660,-1.183,-1.00356,-1.01162,0
62680,-1.19078,-0.996688,-1.00763,0
62700,-1.19703,-0.990638,-1.00393,0
62720,-1.20317,-0.986006,-1.00013,0
62740,-1.21021,-0.980576,-0.995839,0
62760,-1.21635,-0.974588,-0.992294,0
62780,-1.22075,-0.96882,-0.989074,0
62800,-1.22436,-0.964508,-0.986148,0
62820,-1.22882,-0.96078,-0.981593,0
62840,-1.2337,-0.956697,-0.977093,0
62860,-1.23844,-0.952224,-0.972781,0
62880,-1.24371,-0.948166,-0.967835,0
62900,-1.24894,-0.94417,-0.962322,0
62920,-1.25401,-0.93995,-0.956319,0
62940,-1.25945,-0.93551,-0.949845,0
62960,-1.26487,-0.931453,-0.943508,0
62980,-1.27113,-0.927603,-0.936756,0
63000,-1.27814,-0.923851,-0.928576,0
63020,-1.28523,-0.919412,-0.919842,0
63040,-1.29212,-0.914476,-0.911444,0
63060,-1.30048,-0.910312,-0.900942,0
63080,-1.30733,-0.906352,-0.891246,0
63100,-1.31342,-0.903305,-0.880579,0
63120,-1.32108,-0.901577,-0.868855,0
63140,-1.33031,-0.899636,-0.857568,0
63160,-1.34013,-0.897187,-0.845706,0
63180,-1.34978,-0.894957,-0.832716,0
63200,-1.35991,-0.893075,-0.819547,0
63220,-1.37081,-0.890854,-0.805852,0
63240,-1.38216,-0.888064,-0.791666,0
63260,-1.39391,-0.885147,-0.7783,0
63280,-1.40464,-0.881786,-0.764782,0
63300,-1.41324,-0.878964,-0.752156,0
63320,-1.4194,-0.876029,-0.740121,0
63340,-1.42613,-0.873853,-0.727522,0
63360,-1.43258,-0.87275,-0.71545,0
63380,-1.43962,-0.871876,-0.703925,0
63400,-1.44563,-0.870305,-0.693238,0
63420,-1.45145,-0.869239,-0.681305,0
63440,-1.45851,-0.869355,-0.669239,0
63460,-1.46482,-0.869281,-0.658995,0
63480,-1.47026,-0.868787,-0.64861,0
63500,-1.47478,-0.868338,-0.638645,0
63520,-1.47888,-0.867818,-0.629517,0
63540,-1.4835,-0.867691,-0.620615,0
63560,-1.48833,-0.867273,-0.611545,0
63580,-1.49319,-0.866742,-0.602387,0
63600,-1.49852,-0.866024,-0.593127,0
63620,-1.50463,-0.865366,-0.583442,0
63640,-1.51091,-0.864213,-0.573659,0
63660,-1.51735,-0.863461,-0.563579,0
63680,-1.52375,-0.86278,-0.553758,0
63700,-1.53133,-0.861636,-0.543278,0
63720,-1.53862,-0.860409,-0.533128,0
63730,-1.54596,-0.85937,-0.523035,0
63760,-1.55313,-0.858432,-0.512826,0
63780,-1.56124,-0.857149,-0.501202,0
63800,-1.57051,-0.855667,-0.489201,0
63820,-1.58054,-0.853563,-0.478148,0
63840,-1.58972,-0.85184,-0.467431,0
63850,-1.59745,-0.850141,-0.457258,0
63870,-1.60471,-0.848564,-0.447465,0
63890,-1.61269,-0.847326,-0.436919,0
63910,-1.62119,-0.846458,-0.4266,0
63930,-1.6293,-0.845909,-0.417428,0
63950,-1.6356,-0.845347,-0.408527,0
63970,-1.63946,-0.845478,-0.399668,0
63990,-1.64426,-0.846239,-0.389814,0
64010,-1.65083,-0.84687,-0.380865,0
64030,-1.65729,-0.846627,-0.371393,0
64050,-1.66458,-0.846827,-0.36039,0
64070,-1.67149,-0.84706,-0.349423,0
64090,-1.67954,-0.847218,-0.337675,0
64110,-1.68848,-0.847659,-0.325722,0
64130,-1.69704,-0.848616,-0.313781,0
64150,-1.70547,-0.849598,-0.30182,0
64170,-1.71495,-0.850041,-0.288899,0
64190,-1.72407,-0.850868,-0.275832,0
64210,-1.73377,-0.851873,-0.262867,0
64230,-1.74354,-0.852576,-0.250306,0
64250,-1.75357,-0.85354,-0.23757,0
64270,-1.76287,-0.855021,-0.225473,0
64290,-1.77189,-0.855981,-0.212462,0
64310,-1.78282,-0.857519,-0.198863,0
64330,-1.79322,-0.859086,-0.186597,0
64350,-1.8036,-0.860877,-0.174385,0
64370,-1.81327,-0.863022,-0.161847,0
64390,-1.82212,-0.865164,-0.149538,0
64410,-1.83178,-0.867804,-0.136608,0
64430,-1.84095,-0.870657,-0.123794,0
64450,-1.85064,-0.873908,-0.111328,0
64470,-1.86104,-0.877238,-0.0988739,0
64490,-1.87074,-0.881184,-0.0869482,0
64510,-1.88047,-0.88512,-0.0743055,0
64530,-1.89019,-0.889328,-0.061507,0
64550,-1.9,-0.89368,-0.0485933,0
64570,-1.90995,-0.899115,-0.0357152,0
64590,-1.92013,-0.905344,-0.0219138,0
64610,-1.93084,-0.912209,-0.00771229,0
64630,-1.941,-0.91889,0.00524313,0
64650,-1.9499,-0.925631,0.0177933,0
64670,-1.95867,-0.933439,0.0301192,0
64690,-1.96783,-0.941227,0.0435868,0
64710,-1.97881,-0.948732,0.0595667,0
64730,-1.99027,-0.955867,0.0750013,0
64750,-2.00275,-0.963306,0.0898327,0
64770,-2.01561,-0.969974,0.104776,0
64790,-2.02699,-0.976961,0.119576,0
64810,-2.0389,-0.984554,0.135215,0
64830,-2.05325,-0.991412,0.151811,0
64850,-2.06699,-0.998276,0.166722,2001
64870,-2.08029,-1.00549,0.18216,0
64890,-2.09422,-1.01276,0.198374,0
64910,-2.10726,-1.0195,0.212874,0
64930,-2.12007,-1.02542,0.226463,0
64950,-2.13212,-1.03135,0.239592,0
64970,-2.14396,-1.03713,0.251789,0
64990,-2.1532,-1.04296,0.262017,0
65010,-2.16305,-1.04909,0.273361,0
65030,-2.17506,-1.05483,0.285969,0
65050,-2.1864,-1.05932,0.296186,0
65070,-2.19117,-1.06305,0.299254,0
65090,-2.1872,-1.06636,0.294959,0
65110,-2.17735,-1.06829,0.286405,0
65130,-2.1621,-1.06966,0.27209,0
65150,-2.14223,-1.07065,0.253491,0
65170,-2.11465,-1.07172,0.226589,0
65190,-2.07945,-1.07245,0.192359,0
65210,-2.04035,-1.07155,0.155223,0
65230,-1.99346,-1.07159,0.112458,0
65250,-1.93777,-1.07297,0.064763,0
65270,-1.87741,-1.07158,0.013034,0
65290,-1.8146,-1.06539,-0.0412834,0
65310,-1.75198,-1.05882,-0.0957053,0
65330,-1.68571,-1.05172,-0.153798,0
65350,-1.6215,-1.03936,-0.208618,0
65370,-1.56554,-1.02466,-0.256179,0
65390,-1.50765,-1.00687,-0.303654,0
65410,-1.44653,-0.984513,-0.349722,0
65430,-1.39343,-0.959928,-0.384813,0
65450,-1.35388,-0.940205,-0.406571,0
65470,-1.31323,-0.919695,-0.430171,0
65490,-1.27424,-0.891391,-0.448839,0
65510,-1.24823,-0.862923,-0.451559,0
65530,-1.22238,-0.843096,-0.457255,0
65550,-1.19707,-0.820943,-0.46598,0
65570,-1.18195,-0.793543,-0.464858,0
65590,-1.17342,-0.771183,-0.457955,0
65610,-1.16212,-0.753693,-0.453453,0
65630,-1.15485,-0.73346,-0.444923,0
65650,-1.15558,-0.71687,-0.436958,0
65670,-1.15383,-0.70291,-0.43602,0
65690,-1.15381,-0.686135,-0.43334,0
65710,-1.15395,-0.664888,-0.429533,0
65730,-1.15565,-0.645341,-0.425026,0
65750,-1.15134,-0.629664,-0.426799,0
65770,-1.15123,-0.6157,-0.428119,0
65790,-1.15723,-0.60243,-0.426618,0
65810,-1.15974,-0.590432,-0.425568,0
65830,-1.15796,-0.581484,-0.425285,0
65850,-1.15524,-0.574927,-0.426252,0
65870,-1.15346,-0.569423,-0.427908,0
65890,-1.15591,-0.564915,-0.428888,0
65910,-1.15943,-0.56072,-0.428798,0
65930,-1.15983,-0.556989,-0.428165,0
65950,-1.15865,-0.554243,-0.426775,0
65970,-1.15833,-0.552648,-0.425093,0
65990,-1.15943,-0.551668,-0.423259,0
66010,-1.1612,-0.550927,-0.421186,0
66030,-1.16421,-0.550581,-0.418356,0
66050,-1.16627,-0.550676,-0.415415,0
66070,-1.16647,-0.550866,-0.411662,0
66090,-1.16618,-0.55103,-0.40841,0
66110,-1.1655,-0.550728,-0.406627,0
66130,-1.16606,-0.55054,-0.407114,0
66150,-1.16638,-0.549744,-0.408395,0
66170,-1.1645,-0.547895,-0.409336,0
66190,-1.16254,-0.54593,-0.40971,0
66210,-1.16182,-0.544174,-0.410596,0
66230,-1.16296,-0.542541,-0.411939,0
66250,-1.16346,-0.54081,-0.413268,0
66270,-1.16259,-0.539337,-0.413984,0
66290,-1.16137,-0.537871,-0.4149,0
66310,-1.16075,-0.536732,-0.416194,0
66330,-1.16181,-0.536233,-0.416845,0
66350,-1.16241,-0.53648,-0.417092,0
66370,-1.16154,-0.536774,-0.417328,0
66390,-1.16143,-0.537096,-0.417004,0
66410,-1.16223,-0.537615,-0.41688,0
66430,-1.16294,-0.538117,-0.417435,0
66450,-1.16314,-0.538102,-0.418396,0
66470,-1.16233,-0.537803,-0.419467,0
66490,-1.16142,-0.537625,-0.420377,0
66510,-1.16023,-0.537384,-0.42198,0
66530,-1.15925,-0.536364,-0.424484,0
66550,-1.15843,-0.534134,-0.426474,0
