Timestamp, Rotation x, Rotation y, Rotation z, Marker
30,-3.9375,29.4375,-4.0625,0
50,-11.6875,25.875,-11.5625,0
70,-15.875,19,-19.3125,0
90,-17.5,13.9375,-24.75,0
110,-21.125,7.375,-25.5625,0
130,-20.3125,1.6875,-25.25,0
150,-18.125,-2.875,-25.5,0
150,-17.875,-6.25,-24.5,0
190,-15.1875,-6.625,-24.0625,0
210,-15.8125,-6.5,-24.5,0
230,-19.5,-2.4375,-24.4375,0
250,-20.625,0.25,-24.3125,0
270,-27.875,9.9375,-28.4375,0
290,-36.0625,29.375,-40.1875,0
310,-48.5625,42.75,-64.1875,0
330,-75.4375,41.5,-55.625,0
350,-54.8125,35.3125,-46.6875,0
370,-37.6875,32.5625,-47.6875,0
390,-27.375,35.9375,-54.5625,0
410,-35,41.3125,-69.9375,0
430,-47.5625,46.4375,-87.6875,0
450,-55.8125,40.125,-94.5,0
470,-52.4375,31,-87.625,0
490,-40.125,21.5625,-79.625,0
510,-27.5625,17,-73.1875,0
530,-20.5625,15.875,-66.4375,0
550,-19,17.5,-58.6875,0
570,-15.25,16.375,-51.6875,0
590,-10.1875,14.9375,-38.5,0
610,2.8125,9.5,-19,0
630,21.375,-3.75,-11.0625,0
650,24.5,-15.75,-16,0
670,10.875,-23.875,-20.75,0
690,-1,-32.625,-21.375,0
710,-0.1875,-37.625,-20.625,0
730,11.25,-42.25,-19.3125,0
750,16.3125,-48,-15.75,0
770,13.5625,-63.25,-17.5,0
780,10.5,-60.625,-14.875,0
800,16.0625,-45.25,-11.9375,0
820,18.8125,-44.875,-5.375,0
840,19.375,-44.4375,-1.1875,0
860,19.375,-34.25,5.1875,0
880,18.1875,-19.6875,7.5625,0
900,14.875,-11.25,7.4375,0
910,13.6875,-5.4375,2,0
930,8.375,4.125,-2.0625,0
950,3.875,10.125,-2.625,0
970,7,13.1875,1.4375,0
990,10.4375,15.6875,2.8125,0
1010,10.3125,17.75,-1.3125,0
1030,4.75,20.0625,-4.8125,0
1050,11.1875,21.3125,-3.75,0
1070,19.4375,26.3125,-7.9375,0
1090,-0.375,40.375,-31.625,0
1110,-31.0625,51,-43.75,0
1130,-32.875,49.0625,-55.0625,0
1150,-32.6875,31.6875,-51.5,0
1170,-60.25,30.625,-41.875,0
1190,3.4375,39.25,-40.875,0
1210,3.625,43.3125,-44.3125,0
1230,-11.0625,59.6875,-40.0625,0
1250,-15.8125,77.9375,-44.8125,0
1270,-20.875,89,-59.1875,0
1290,-16.875,89.4375,-70,0
1310,-17,85.1875,-71.125,0
1330,-7.0625,81.25,-73.5,0
1350,0.5625,79.3125,-77.6875,0
1370,2,78.25,-81.4375,0
1390,-2,78.4375,-81.5,0
1410,-3.375,77.125,-80.8125,0
1430,-3.625,68.3125,-82.8125,0
1450,-0.375,59.5,-82,0
1470,6.5625,49.625,-79.625,0
1490,13.1875,44,-73.625,0
1510,11.3125,38,-68.875,0
1530,-0.5,31.4375,-67.125,0
1550,-14.0625,24.0625,-66.6875,0
1570,-19.5625,9.6875,-62.8125,0
1590,-4.625,-4.8125,-52.4375,0
1610,5.625,-17.625,-43.125,0
1630,10.75,-25,-36.4375,0
1650,6.9375,-25.8125,-30.8125,0
1670,3.5625,-29.6875,-23.125,0
1690,9.125,-39.5625,-13.0625,0
1710,16.1875,-43.4375,-4.5,0
1730,18.375,-49.1875,1.625,0
1750,13.625,-45.125,8.0625,0
1770,13.625,-40.8125,12,0
1790,11.4375,-39.125,13,0
1810,10.1875,-36.875,6.8125,0
1830,17.9375,-32.1875,0.8125,0
1850,15.875,-29.25,-0.3125,0
1870,8.75,-24.375,3.0625,0
1890,0.5,-21.8125,10.1875,0
1910,-7.75,-25.6875,8.9375,0
1930,-3.9375,-16.9375,3.8125,0
1950,11.0625,-11.8125,-13.625,0
1970,27.625,-12.9375,-33.3125,0
1990,33.1875,-18.25,-52,0
2010,50.0625,-2.4375,-56,0
2030,31.0625,12.1875,-40.1875,0
2050,24.75,14.375,-28.3125,0
2070,28.9375,18.875,-23.3125,0
2090,27.625,18.3125,-17.75,0
2110,27.1875,13.125,-6.9375,0
2130,14.875,-6.625,11.0625,0
2150,-51.75,-10,4.5625,0
2170,43.5625,2.4375,2.875,0
2190,47.875,-11.6875,-9.3125,0
2210,32.0625,-10.625,-18.5,0
2230,15.1875,0.5,-9.4375,0
2250,11.25,12.6875,-10,0
2270,12.875,13.1875,-17.3125,0
2290,2.3125,5.25,-24.8125,0
2310,7.0625,1.125,-29.25,0
2330,16.875,-2.875,-32.375,0
2350,11.125,-7.875,-36.625,0
2370,2.1875,-0.625,-36.375,0
2390,-5.1875,5.3125,-35.0625,0
2410,0,11.5,-27.6875,0
2430,-1.5,14.6875,-17.25,0
2450,1.0625,13.125,-10.625,0
2470,-1.3125,6.4375,-7.1875,0
2490,7.125,-9.375,-3.3125,0
2510,15.6875,-18.125,-1.1875,0
2530,16.25,-22.3125,7.125,0
2550,18.75,-20.5625,14.8125,0
2570,28.9375,-19.5,24.6875,0
2590,25.875,-20.6875,27.3125,0
2610,8.625,-22.5625,24.375,0
2630,10.125,-15.1875,23.125,0
2650,9.125,-8.5,19.4375,0
2670,-1.9375,-8.0625,13.25,0
2690,-8.375,-8,7,0
2710,-19.1875,-3.5,-2.3125,0
2730,-30.75,0.3125,-14,0
2750,-43.4375,1.875,-20.9375,0
2760,-35.6875,1.75,-21.3125,0
2780,-17.5625,-0.6875,-22.875,0
2800,-24.875,-2.75,-27.5625,0
2820,-30.625,1,-29,0
2840,-31.75,2,-25.3125,0
2860,-23.125,-3.5,-22.125,0
2880,-12,-13.9375,-20.875,0
2900,-5.9375,-15.3125,-18.5,0
2920,-10.5,-10.375,-14,0
2940,-12.875,-9,-12.5625,0
2960,-12.9375,-8,-11.625,0
2980,-7.625,-3.3125,-8.1875,0
3000,-6.8125,3.8125,-6.875,0
3020,-5.4375,10.625,-4.375,0
3040,-2.5625,19.25,1.25,0
3060,-4.5625,26.6875,5.9375,0
3080,-4.9375,25.375,6,0
3100,0.3125,18.125,9.4375,0
3120,4.4375,14.625,9.625,0
3140,2.125,11.25,5.9375,0
3160,-1.375,10.625,4.375,0
3180,-1.9375,7.75,2.5,0
3200,-2.625,3.3125,-0.25,0
3220,-2.375,2.4375,-2.5,0
3240,-2.625,2.4375,-5.3125,0
3260,-4.6875,2.9375,-8,0
3280,-4.0625,3.9375,-9.1875,0
3300,-1.375,3,-9.9375,0
3320,-3.125,4.0625,-11,0
3340,-5.6875,7.0625,-13.875,0
3360,-10.0625,7.875,-16.1875,0
3380,-11.4375,5.375,-19.3125,0
3400,-13,4.75,-22.0625,0
3420,-14.6875,5.625,-19.875,0
3440,-8.1875,9,-14.5,0
3460,-4.875,8.25,-10.1875,0
3480,-1.75,1.125,-8.4375,0
3500,1.375,-3,-7,0
3520,0.25,0.625,-5,0
3540,-0.875,3.8125,-2.875,0
3560,1.25,1.4375,-1.625,0
3580,4.6875,-3.625,-0.5,0
3600,4.6875,-5.25,0.125,0
3620,0.875,-2.1875,0.0625,0
3640,-3.3125,0.125,0.125,0
3660,-3.375,1,0.5,0
3680,-3.9375,1.125,2.6875,0
3700,-1.6875,2.375,3.8125,0
3720,0,4.0625,4.5625,0
3740,1.75,6.625,6.4375,0
3760,2.375,9.3125,8.75,0
3780,3.9375,12.25,14.125,0
3800,2.0625,17.5,21.0625,0
3820,-0.125,20.3125,31.1875,0
3840,8.3125,19.4375,41.25,0
3860,9.5625,23.3125,54.1875,0
3880,1.5,31.3125,63.4375,0
3900,-7,37.0625,69.875,0
3920,-10.8125,36.625,73.0625,0
3940,-10.625,26.25,72,0
3960,-9.6875,14.5,69.1875,0
3980,-6.8125,5.125,69.875,0
4000,-5.8125,-4.6875,72.0625,0
4020,-3.6875,-14.75,72.0625,0
4040,-1.125,-25.8125,69.4375,0
4060,4.1875,-34.875,65.25,0
4080,7.6875,-43.5625,65.1875,0
4100,16.0625,-53.4375,72.375,0
4120,29.3125,-67.9375,80.1875,0
4140,39.5625,-76.25,88.625,0
4160,37.3125,-82.5,93.4375,0
4180,32,-81.1875,92.875,0
4200,31.375,-72.5625,92,0
4220,38.1875,-65.5625,91.3125,0
4240,29.25,-53.875,77.0625,0
4260,17.4375,-33.875,49,0
4280,14.6875,-13.8125,26.5,0
4300,17.4375,6.0625,8.625,0
4320,15.75,25.3125,-4.375,0
4340,4.875,33.4375,-10.1875,0
4360,0.75,31.5,-12.875,0
4380,0.8125,40.1875,-20.9375,0
4400,-1.4375,40.1875,-24,0
4420,-4,47.6875,-26.25,0
4440,-7.625,53,-28.9375,0
4460,3.6875,44.25,-26,0
4480,8,35.75,-24.9375,0
4500,2.9375,35.5625,-28.6875,0
4520,2.9375,35.6875,-38.0625,0
4540,3.6875,31.75,-45.5,0
4560,0.375,22.375,-50.125,0
4580,-5.4375,14.5625,-53.1875,0
4600,-12.8125,14.0625,-57.5,0
4620,-17.5,13.125,-58.875,0
4640,-17.25,11.625,-58.1875,0
4660,-13.4375,7.6875,-56.8125,0
4680,-7.25,1.3125,-48.25,0
4700,-4.5,1.6875,-40.25,0
4720,-11.375,7.75,-38.1875,0
4740,-13.75,12.0625,-36.1875,0
4760,-10.1875,10.4375,-31.4375,0
4780,-4.4375,4.125,-24.5,0
4800,-1.625,-2.375,-18.5,0
4820,-0.625,-4.9375,-16.375,0
4840,-2.5625,-5,-17.5625,0
4860,-2.125,-7.625,-17.75,0
4880,0.625,-12.3125,-15.4375,0
4900,2.625,-10.9375,-14.1875,0
4920,0.25,-8.25,-15.4375,0
4940,-4.25,-5.875,-18.1875,0
4960,-3.5625,-3,-17.625,0
4980,-3.3125,-1.0625,-16.4375,0
5000,-3.4375,0.5625,-15.8125,0
5020,-1.8125,1.25,-14,0
5040,-1.375,1.25,-12.4375,0
5060,-1.0625,2.5625,-11,0
5080,-0.125,2.6875,-7.375,0
5100,-0.5,3.0625,-6.25,0
5120,-1.625,5.0625,-7.625,0
5140,-1.875,7.3125,-8.5,0
5160,-2.4375,8.0625,-10.6875,0
5180,-1.625,7.4375,-11.75,0
5200,-0.3125,5.5625,-13.1875,0
5220,0.625,4.0625,-15.375,0
5240,1.25,2.8125,-16.125,0
5260,1.8125,-0.3125,-16.25,0
5280,3.625,-8.5625,-16.25,0
5300,-0.5,-20.125,-14.6875,0
5320,6,-20.3125,-11.5625,0
5340,10.0625,-19.3125,-9.1875,0
5360,16,-13.875,0.125,0
5380,3.6875,-5.4375,4.375,0
5400,4.75,-14.4375,9,0
5420,26.6875,-13.625,7,0
5440,17.3125,-5,-3.4375,0
5460,11,13.5,-14.0625,0
5480,-12.5,15.5625,-21.875,0
5500,-9.875,-1.8125,-27,0
5520,5.9375,-19.4375,-32.25,0
5540,1.3125,-9.25,-39.25,0
5560,-12.125,1.375,-41.1875,0
5580,-17.3125,7.5,-37.5,0
5600,-12.9375,8.8125,-30.375,0
5620,-6.6875,6.5,-26.875,0
5640,-7.6875,3.625,-21.9375,0
5660,-6.3125,-0.1875,-16.0625,0
5680,-3.125,-5.875,-11.4375,0
5700,2.75,-11.8125,-7,0
5720,7,-17.0625,-4.6875,0
5740,4.3125,-11.3125,-3.3125,0
5760,-2.6875,-7.625,-5.375,0
5780,-2.9375,-11.75,-8.75,0
5800,3.0625,-20.125,-10.4375,0
5820,4.3125,-16.5625,-10.75,0
5840,3.6875,-13.6875,-11.625,0
5860,7.8125,-9.4375,-7.625,0
5880,6.0625,-6.5,-7.3125,0
5900,3.4375,-2.75,-7.375,0
5920,5.6875,-0.1875,-4.75,0
5940,6.6875,-1.625,-2.25,0
5960,6.5625,-2.0625,-1.875,0
5980,4.1875,-3.8125,-2.6875,0
6000,3.125,-7.125,-2.6875,0
6020,3.5,-10.75,-2.9375,0
6040,2.125,-10.8125,-2.8125,0
6060,-0.0625,-11.875,-3.5625,0
6080,2.0625,-11.25,-2.5,0
6100,2.0625,-9.4375,-2.3125,0
6120,-0.25,-2.625,-3.5,0
6140,-3.8125,4.125,-4.625,0
6160,-4.4375,4.4375,-4.5625,0
6180,-1.375,1.1875,-4.5,0
6190,0.3125,-1.8125,-3.125,0
6210,-0.125,-0.75,-2.5625,0
6230,-0.875,-0.1875,-2.1875,0
6250,-0.4375,0.4375,-1.6875,0
6270,0.8125,0.6875,-1.875,0
6290,0.625,-0.3125,-1.0625,0
6310,0.5,-0.0625,-1.5,0
6330,-0.1875,-0.0625,-2.1875,0
6350,1.1875,0.5,-3.125,0
6370,0.1875,1.8125,-4.4375,0
6390,-0.625,0.8125,-5.4375,0
6410,-0.3125,0.0625,-6.5,0
6430,-1.375,-0.625,-7.625,0
6450,-1.375,0.0625,-8.625,0
6470,-2.0625,0.75,-10.1875,0
6490,-2.375,2.25,-10.375,0
6510,-3.125,3.5,-11.5625,0
6530,-4.375,4.8125,-13.875,0
6550,-6.8125,6.3125,-17.1875,0
6570,-10.25,7.0625,-20.1875,0
6590,-11.5,7.9375,-24.5,0
6610,-10.6875,6.125,-27,0
6630,-8.8125,2.875,-28.375,0
6650,-7.1875,1.5,-27.5625,0
6670,-7.8125,2.6875,-25,0
6690,-6.875,3.375,-20.3125,0
6710,-3.5625,1.125,-15.5,0
6730,-2,0.1875,-11.25,0
6750,-1.5,1.9375,-6.625,0
6770,-1.1875,2.875,-4,0
6790,-1,2.625,-2.75,0
6810,-0.625,3.9375,-2.3125,0
6830,-0.625,4.375,-2,0
6850,0.6875,3.6875,-1,0
6870,2.5625,2.4375,1.125,0
6890,3.3125,2.0625,3.5625,0
6910,3.25,2.8125,4.3125,0
6930,2.5,3.3125,5.5625,0
6950,2.5625,4.5,4.9375,0
6970,1.5625,5.875,4.875,0
6990,1.8125,6.8125,3.75,0
7010,1.25,8.4375,2.4375,0
7030,0.8125,9.5625,0.625,0
7050,-1.0625,12.3125,0,0
7070,0.5625,12.5625,-0.5,0
7090,0.9375,11.875,-1.0625,0
7110,1.3125,10.5,-1.125,0
7130,1.625,10.625,-1.4375,0
7150,0.875,9.6875,-1.75,0
7170,0.8125,8.25,-2,0
7190,1.875,7.9375,-1.875,0
7210,1.3125,7.4375,-2,0
7230,0.5,8.25,-2.4375,0
7250,0.125,7.875,-3,0
7270,1.0625,5.9375,-4,0
7290,2.3125,3.9375,-3.8125,0
7310,1.9375,4.125,-3.125,0
7330,1.9375,4.1875,-1.8125,0
7350,2.375,3.25,-1,0
7370,1.6875,3,-0.9375,0
7390,2.4375,3.3125,0,0
7410,2.75,4.3125,0.6875,0
7430,1.625,5.8125,1.25,0
7450,1.625,6.375,0.875,0
7470,2.25,5.5625,1.125,0
7490,1.4375,5.375,1.875,0
7510,1.4375,4,2.5625,0
7530,1.75,4.4375,3.125,0
7550,1.5,3.75,2.1875,0
7570,2.5625,1.0625,1.5625,0
7590,4,-0.6875,0.6875,0
7610,1.875,-0.25,0,0
7630,2.9375,0.25,-0.1875,0
7650,1.8125,0.4375,-1.0625,0
7670,2.875,-0.8125,-0.5625,0
7690,3.6875,-2.125,-1.5625,0
7710,3.0625,-2,-2.375,0
7730,3.875,-3.375,-2.75,0
7750,4.3125,-4.625,-3.625,0
7770,2.875,-3.0625,-4.5625,0
7790,1.75,-4.9375,-3.625,0
7810,3.75,-4.8125,-3,0
7830,4.1875,-5.3125,-1.9375,0
7850,4.375,-4.8125,-0.4375,0
7870,3,-1.6875,0.5,0
7890,0.8125,1.5625,1.9375,0
7910,1.625,1.6875,3.3125,0
7930,1.6875,1.75,2.75,0
7950,1.8125,2.25,2.9375,0
7970,1.5625,2.125,3.5,0
7990,2.0625,0.6875,3.9375,0
8010,2.1875,0.625,3.3125,0
8030,1.75,-1,3,0
8050,3.5625,-2,5.5,0
8070,5.625,-0.125,7.3125,0
8090,1.5,1.125,5.8125,0
8110,0.3125,1.5,2.1875,0
8130,1.4375,-1.4375,1.3125,0
8150,4.5625,-0.8125,2.375,0
8170,3.3125,2.6875,2.625,0
8180,-0.5,3.5625,0.4375,0
8200,0.6875,3.1875,0,0
8220,0.75,2.0625,-0.25,0
8240,1.9375,-0.5,0.375,0
8260,1.8125,-0.5625,0.3125,0
8280,0.75,1.0625,0.25,0
8300,0.6875,1.125,0.5625,0
8320,1.4375,0.875,0.5,0
8340,0.9375,0.625,0.8125,0
8360,1.375,1,1.375,0
8380,1.25,1.5625,1.625,0
8400,0.625,1.6875,1.3125,0
8420,0.1875,2.3125,0.75,0
8440,-0.0625,2.4375,1.9375,0
8460,0.75,2.375,3.8125,0
8480,0.8125,3,4.25,0
8500,-0.6875,4.75,4,0
8520,-2.6875,6.3125,3.9375,0
8540,-1.8125,6.9375,3.0625,0
8560,-0.875,5.3125,3.0625,0
8580,-0.6875,4.9375,3.5,0
8600,-1.3125,3.9375,3,0
8620,-1.5625,2.9375,1.8125,0
8640,-3.625,3.25,0.9375,0
8660,-3.5,3.25,0.3125,0
8680,-1.625,2.1875,1.375,0
8700,-0.5625,2.4375,2.375,0
8720,-1.9375,2.1875,1.875,0
8740,-4.4375,2.5,0.875,0
8760,-4.9375,2.8125,0.375,0
8780,-3.375,3.375,1.875,0
8800,-1.5,1.75,3.3125,0
8820,-1.25,0.875,2.625,0
8840,-3.0625,1.8125,2.4375,0
8860,-3.6875,3.625,3,0
8880,-2.5,1.625,5.4375,0
8900,-0.375,-1.4375,4.75,0
8920,-0.1875,-3.3125,2.25,0
8940,-0.9375,-3.125,2.5,0
8960,-3.9375,1.375,3.1875,0
8980,-2.75,1.25,3.625,0
9000,1.3125,-4.625,4.5,0
9020,2.6875,-7.125,4.4375,0
9040,-0.6875,-4.625,4.6875,0
9060,-3.8125,-0.5625,5.125,0
9080,-3.625,-0.3125,5.1875,0
9100,-2,-2.375,5.375,0
9120,-0.625,-3.4375,5.1875,0
9140,-2.0625,-1.875,4.9375,0
9160,-2.125,-0.5625,4.6875,0
9180,-2.3125,-0.75,4.375,0
9200,-3.1875,-0.5,2.625,0
9220,-3.5,-0.6875,1.25,0
9240,-1.9375,-1.9375,1.1875,0
9260,-1.375,-2.4375,1.1875,0
9280,-2.375,-1.4375,1.1875,0
9300,-3.4375,-1.625,1.125,0
9320,-1.5625,-1.625,2.6875,0
9340,-0.9375,-0.75,3.3125,0
9360,0.5,-0.875,4.9375,0
9380,0.6875,-1.5625,5.6875,0
9400,0.75,-0.75,4.875,0
9420,-0.6875,0.25,3.25,0
9440,-0.4375,3.375,1.9375,0
9460,-1.9375,6.8125,0.4375,0
9480,-0.5625,8.1875,-1,0
9500,0.75,7.875,-2.9375,0
9520,1.3125,6.5625,-4.4375,0
9540,1.9375,5.9375,-4.75,0
9560,3.125,6.375,-5.625,0
9580,3.25,6.6875,-6.3125,0
9600,4,6.375,-6.375,0
9620,7.375,6,-6.0625,0
9640,12.3125,7.5625,-7.375,0
9660,14.625,10.75,-9.9375,0
9680,14.9375,10.0625,-12.75,0
9700,19.4375,8.875,-16.1875,0
9720,22.6875,10.5,-20.125,0
9740,22.125,16.1875,-24.25,0
9760,18.25,20,-29.375,0
9780,15.875,20.125,-32.125,0
9800,14.5,22.5,-32.875,0
9820,13.5625,29.9375,-31.0625,0
9840,15.4375,30.1875,-29.9375,0
9860,20.0625,19.8125,-38.3125,0
9880,19.5625,12.6875,-46.75,0
9900,19.0625,12.9375,-50.375,0
9920,2.625,26.6875,-38.25,0
9940,8.8125,21.8125,-43.6875,0
9960,19.875,14.875,-50.875,0
9980,27.5625,6.625,-53.0625,0
10000,31.3125,-1,-56.8125,0
10020,35.625,-4.5,-60.0625,0
10040,42.3125,-3.375,-58,0
10060,54.5,-5.9375,-51.1875,0
10080,73.75,-9.5625,-42.9375,0
10100,88.4375,-9.8125,-30.9375,0
10120,87.875,-10.6875,-17.1875,0
10140,93.375,-7.3125,-2.125,0
10160,92.375,-1.0625,16,0
10180,93.1875,7.625,36.875,0
10200,98.5,14.9375,59.8125,0
10220,105.375,23.9375,82.5625,0
10240,115.875,36.4375,104.812,0
10260,125.75,51.5625,129.938,0
10280,139.75,70.875,152.75,0
10300,157.562,95,174.938,0
10320,146.688,111.125,191.312,0
10340,145.875,129.375,197.75,0
10360,142.125,143.75,204.688,0
10380,113.375,139.125,218.688,0
10400,131.562,132,223.5,0
10420,170.5,129.375,228.062,0
10440,183.188,125,239.375,0
10460,162,118.875,253.562,0
10480,164.188,122.875,261.75,0
10500,185,135.625,266.438,0
10520,184.562,144.375,266.688,0
10540,167.312,149.812,272.688,0
10560,144.875,146.625,288.25,0
10580,157.75,138.562,286.75,0
10600,160.875,117.5,259.25,0
10620,118.938,114.438,237.188,0
10640,81.25,128.5,239.188,0
10660,68.125,133.75,231.625,0
10680,67.875,142.312,220.188,0
10700,76,142.125,213.312,0
10720,58.75,128.75,206.5,0
10740,62.6875,123.875,199.062,0
10760,70.6875,111.5,189.625,0
10780,80.3125,115,174.125,0
10800,77.3125,118.5,164.312,0
10820,70.375,114.938,158.688,0
10840,67.25,109.062,144.562,0
10860,72.5,112.75,128.688,0
10880,81.9375,118.375,115.062,0
10900,79.625,121.375,102.75,0
10920,63.25,118.812,87,0
10940,48.625,102.75,69.3125,0
10960,38.4375,82.3125,61.0625,0
10980,27.5,57.25,50.3125,0
11000,12.375,30,36.3125,0
11020,-13.75,3.5625,21.4375,0
11040,-42.25,-10.375,6.125,0
11060,-74,-18.5625,-4.6875,0
11080,-93.5,-23.4375,-13.6875,0
11100,-107.938,-26,-24.375,0
11120,-112.062,-27.625,-37.3125,0
11140,-102.25,-29.375,-51.5625,0
11160,-78.1875,-31.375,-66.0625,0
11180,-45.5625,-31.875,-80.875,0
11200,-14.4375,-32.1875,-94.5,0
11220,10.9375,-31.25,-104.25,0
11240,29.625,-30.625,-109.312,0
11260,42.0625,-33.0625,-110.812,0
11280,45.3125,-37.1875,-108.5,0
11300,39.4375,-42.5,-102.438,0
11320,26.125,-47.875,-94.625,0
11340,7.25,-52.6875,-85.6875,0
11360,-12.6875,-57.125,-76.4375,0
11380,-28.625,-61.6875,-67.75,0
11400,-39.875,-66.4375,-59.625,0
11420,-45,-68.25,-51.9375,0
11440,-48.8125,-65.125,-43,0
11460,-49.625,-62.1875,-31.5,0
11480,-50.375,-59.8125,-17.625,0
11500,-50.125,-58.125,-2.1875,0
11520,-47.9375,-58.5625,13.8125,0
11540,-47.8125,-58.3125,30.0625,0
11560,-56.6875,-55.75,45.5,0
11580,-69.8125,-52.8125,58.1875,0
11600,-85.4375,-47.1875,67.125,0
11610,-97.5,-39.75,73.0625,0
11630,-96.1875,-34.9375,77.1875,0
11650,-78.0625,-33.375,77.4375,0
11670,-44.25,-33.625,71.625,0
11690,-10.25,-33.6875,60.5625,0
11710,11.5,-31.375,49.5,0
11730,18.1875,-27.375,43.5625,0
11750,16.75,-20.5,42.8125,0
11770,14.1875,-8.75,44.625,0
11790,14.3125,3.6875,47.5625,0
11810,21.6875,12.875,49.0625,0
11830,31.4375,19.0625,47.25,0
11850,37.0625,24.5,42.75,0
11870,41.375,28.5,36.375,0
11890,42.25,32.5,30,0
11910,40.75,38.1875,25.25,0
11930,41.9375,45.875,23.8125,0
11950,41.5,49.5625,21.25,0
11970,39.5,48.5,12.3125,0
11990,36.75,44.9375,6.3125,0
12010,37.5625,44.625,4.375,0
12030,36.125,46.75,4.3125,0
12050,30.625,48,7.6875,0
12070,24.625,48.3125,10.6875,0
12090,19.8125,50.1875,10.125,0
12110,14.625,50.875,6.375,0
12130,16.1875,45.125,0,0
12150,30.6875,33.125,-8.125,0
12170,50.8125,23.5625,-15.8125,0
12190,66.0625,22.5625,-20.3125,0
12210,73.625,25.3125,-20.125,0
12230,73.625,31.9375,-17.25,0
12250,75.0625,35.75,-12.8125,0
12270,86.375,29.625,-8.3125,0
12290,97.9375,18,-7.5625,0
12310,96.5,4.4375,-7.5,0
12330,68.5,-6.6875,-3.75,0
12350,16.125,-13.4375,0.5625,0
12370,-43.1875,-16.6875,2.25,0
12390,-82.625,-24.125,-0.25,0
12410,-86.0625,-37.3125,-8.0625,0
12430,-65,-48.8125,-18.25,0
12450,-33.0625,-59.875,-26.5,0
12470,-6.125,-68.625,-31.8125,0
12490,5.25,-74.125,-34.3125,0
12510,4.75,-77.8125,-35.6875,0
12530,-1.375,-80.5625,-36.25,0
12550,-9.875,-81.9375,-36.5625,0
12570,-18.125,-81.1875,-34.875,0
12590,-27.0625,-77.6875,-32.25,0
12610,-35.125,-71.3125,-29,0
12630,-40.6875,-62.75,-26,0
12650,-41.25,-52.4375,-24.3125,0
12670,-37.6875,-39.375,-23.125,0
12690,-32.125,-24.125,-21,0
12710,-23.875,-8.4375,-17.0625,0
12730,-14.9375,8.4375,-11.75,0
12750,-5,25.3125,-4.9375,0
12770,8.625,41.6875,4.3125,0
12790,22.875,55.1875,12.625,0
12810,31.4375,64.4375,16.6875,0
12830,33.125,73.375,20.125,0
12850,32.625,75.625,25.25,0
12870,31.3125,78.3125,29.125,0
12890,25.3125,82.25,33.1875,0
12910,26.125,80.1875,36.8125,0
12930,30.875,73.375,36.3125,0
12950,32.4375,64.5625,29.0625,0
12970,31.125,54.3125,18.125,0
12990,28.125,43.3125,7.8125,0
13010,27.625,34.625,0.375,0
13030,29.8125,28.5625,-6,0
13050,37.8125,25.3125,-12.0625,0
13070,48.9375,26.125,-18.75,0
13090,61.25,30.0625,-25.125,0
13110,78.625,33.375,-29.875,0
13130,92.0625,34.5,-31,0
13150,101.25,34.25,-28.875,0
13170,105.688,30.625,-25.625,0
13190,103.875,24.625,-22.875,0
13210,92.4375,19.375,-19.8125,0
13230,75.125,15.3125,-15.25,0
13250,49.1875,12,-9.6875,0
13270,26.5625,8.6875,-5.0625,0
13290,12.75,5.75,-2.0625,0
13310,8.125,4.125,-1.6875,0
13330,13.3125,1,-3.125,0
13350,22.5625,-1.5625,-5.4375,0
13370,33,-1.125,-8.875,0
13390,42.875,2.1875,-12.625,0
13410,54.0625,8.5625,-14.8125,0
13430,64,14.9375,-15.1875,0
13450,73,20.5625,-13.4375,0
13470,76.75,26.875,-11,0
13490,69.8125,31.75,-9.1875,0
13510,62.0625,33.875,-8.9375,0
13530,62.5625,33,-7.9375,0
13550,68.6875,35.375,-3.9375,0
13570,72.9375,38.6875,2.9375,0
13590,76.0625,37.375,11.0625,0
13610,69.75,32.125,16.75,0
13620,56.5,26.125,17.9375,0
13640,39.5625,17.3125,19.0625,0
13660,23.1875,7.875,18.9375,0
13680,14.3125,-0.25,17.6875,0
13700,14,-6.0625,14.375,0
13720,16.375,-8.5625,9.75,0
13740,20.125,-8.0625,5.4375,0
13760,24.3125,-5.5,0.5,0
13780,34.75,1.5625,-5.4375,0
13800,50.9375,6.875,-9,0
13820,71.5,6.125,-10.0625,0
13840,85.8125,3.1875,-10.375,0
13860,93.0625,-0.1875,-9.25,0
13880,89.9375,-4,-9.4375,0
13900,78.1875,-5.375,-12.4375,0
13920,64.125,-3.6875,-16.6875,0
13940,53.25,-0.375,-20.1875,0
13960,47.0625,4.9375,-22.5625,0
13980,45.9375,12.4375,-24.8125,0
14000,53.125,21.3125,-28.0625,0
14020,64.25,32.125,-32.0625,0
14040,77.0625,45.875,-36.5625,0
14060,91.625,61,-40.75,0
14080,106.25,75.6875,-43.8125,0
14100,118.875,90.3125,-45.6875,0
14120,128.938,102.25,-45,0
14140,132.25,112.125,-41.3125,0
14160,125.375,116.5,-36.5,0
14180,109.5,118.125,-32.125,0
14200,87.125,118.438,-30.0625,0
14220,69.3125,118.5,-30.9375,0
14240,67.3125,116.125,-34.875,0
14260,82,111.562,-39,0
14280,104.688,109.312,-41.75,0
14300,130.312,103.375,-40.6875,0
14320,145,94,-35.75,0
14340,144.312,82.8125,-30.25,0
14360,128.875,72.1875,-25.8125,0
14380,102.125,61.25,-21.25,0
14400,70.625,49.625,-16.4375,0
14420,44.8125,38.6875,-12.5,0
14440,32.1875,30.375,-10.125,0
14460,32.125,23.125,-9.125,0
14480,37.6875,16.6875,-7.8125,0
14500,40.25,12.125,-6,0
14520,36.875,8.9375,-3.9375,0
14540,32.125,5.875,-2.4375,0
14560,29.625,2.6875,-1.25,0
14580,33.4375,-0.9375,-1.3125,0
14600,42.625,-5.8125,-2.125,0
14620,52.0625,-11.5625,-2.8125,0
14640,57.5625,-17.3125,-2.5625,0
14660,56.6875,-21.5625,-1.5,0
14680,51.375,-23.5,-0.25,0
14700,45.1875,-22,0.125,0
14720,42.5625,-18,-0.4375,0
14740,42.6875,-13.125,-1.125,0
14760,47.0625,-8.5625,-1.8125,0
14780,53.4375,-3.6875,-2.375,0
14800,58.6875,1,-2.75,0
14820,59.875,5.25,-2,0
14840,55.3125,7.9375,1,0
14860,43.625,13,3.1875,0
14880,33.25,18.5625,5.4375,0
14900,32.125,22.5625,7.0625,0
14920,37.375,23.375,7.8125,0
14940,40.375,21.1875,7.6875,0
14960,34.625,19.0625,7.875,0
14980,20.125,17.625,9.3125,0
15000,4.625,15.9375,11.0625,0
15020,-5.3125,13.4375,12.1875,0
15040,-7.5625,10.125,12,0
15060,-3.75,8.0625,10.6875,0
15080,3.5,7.6875,8.1875,0
15100,12.5,6.125,3.8125,0
15120,22.5625,3.875,-1.625,0
15140,29.8125,1.125,-6.5,0
15160,37.0625,-2.375,-10.8125,0
15180,40.4375,-4.3125,-13.9375,0
15200,39.875,-4.1875,-15.25,0
15220,37.1875,-3.9375,-15.4375,0
15240,34.875,-3.0625,-15.375,0
15260,32.8125,-0.4375,-14.75,0
15280,30.4375,2.625,-13.5625,0
15300,28.8125,8.3125,-13.75,0
15320,24.125,13.8125,-12.5,0
15340,24.8125,14.9375,-11.25,0
15360,28.125,14.5,-9.5625,0
15380,35.1875,11.25,-7.5,0
15400,44.9375,6.0625,-4.6875,0
15420,53.125,-1.625,-2.375,0
15440,59.1875,-10.75,-1.4375,0
15460,60.875,-19.5625,-0.8125,0
15480,59.6875,-27.3125,-1.125,0
15500,54.6875,-35.125,0.125,0
15520,46.25,-44.8125,1.875,0
15540,37.875,-54.3125,3.375,0
15560,29.1875,-64.125,5.1875,0
15580,21.25,-72.125,6.25,0
15600,16.0625,-77.3125,7.8125,0
15620,8.4375,-79.1875,7.375,0
15640,11.8125,-76.5,9.3125,0
15660,8.9375,-67.75,11.25,0
15680,10.5625,-53.0625,15.8125,0
15700,6.25,-39,20.1875,0
15720,2.625,-26.75,19.8125,0
15740,-2.4375,-17.625,26.3125,0
15760,-13.3125,-4.8125,25.4375,0
15780,-23.25,11.625,20.3125,0
15800,-15.375,23.1875,16.875,0
15820,-0.9375,26.25,16.625,0
15840,17.875,24.875,18.25,0
15860,26.5625,20.4375,19.9375,0
15880,24,16.875,19.3125,0
15900,8.875,14,19.1875,0
15920,-9.8125,8.6875,18.0625,0
15940,-33.125,4.125,15.625,0
15960,-54.625,2.8125,10.8125,0
15980,-70.9375,3.6875,5.625,0
16000,-75.75,4.125,1.6875,0
16020,-62.0625,5.5625,1.1875,0
16040,-32.0625,7.875,0.375,0
16060,-4.6875,9.75,-1.5625,0
16080,17.3125,13.9375,-3.375,0
16100,31.6875,19,-5.3125,0
16120,38.875,23.4375,-6.3125,0
16140,38.4375,27.1875,-5.1875,0
16160,29.5,30.3125,-2.75,0
16180,11.8125,31.125,-0.8125,0
16200,-7.5625,29.375,0.8125,0
16220,-14.125,24.6875,3,0
16240,-12.9375,16.6875,6.6875,0
16260,-10.9375,6.125,10.8125,0
16280,-16.5,-3.125,14.1875,0
16300,-27.875,-10.8125,16.875,0
16320,-40.375,-17.125,18.5625,0
16340,-54,-17.3125,18.8125,0
16360,-66.875,-15.0625,20.5,0
16380,-78.375,-10.9375,21.125,0
16400,-84.875,-1.375,20.75,0
16420,-79.75,8.25,22.125,0
16440,-64.5,14.25,23.125,0
16460,-44.5625,19.875,20.5,0
16480,-27.625,18.9375,13.1875,0
16500,7.875,12.5,-1.625,0
16520,39.9375,5.1875,-18.6875,0
16540,59.375,-5.625,-39.5,0
16560,62.3125,-17.1875,-52.6875,0
16580,41.625,-26.0625,-62.5625,0
16600,8.625,-33.1875,-69.25,0
16620,-23.375,-37.75,-73.125,0
16640,-42.125,-39.9375,-75.8125,0
16660,-43.125,-37.125,-78.75,0
16680,-32.1875,-27.25,-81.1875,0
16700,-15,-10.375,-81.9375,0
16720,0.875,10.625,-80.3125,0
16740,14.375,31.4375,-75.5,0
16760,21.125,47.75,-69.1875,0
16780,18.8125,61.5625,-65.875,0
16800,8.875,77.8125,-62.125,0
16820,-0.4375,77.1875,-59.5,0
16840,3.25,67.75,-58.5625,0
16860,12.8125,56.25,-52.9375,0
16880,42.875,40.75,-39.1875,0
16900,86.6875,23.625,-18.4375,0
16920,96.8125,21.5,-1.625,0
16940,55,35.75,10.5625,0
16960,-25.1875,55.375,21.9375,0
16980,-97,54.625,35.1875,0
17000,-128.875,51.375,29.125,0
17020,-107.938,47.6875,15.375,0
17030,-48.25,32,8.0625,0
17050,10.125,15.25,7.1875,0
17070,49.3125,9.8125,8.625,0
17090,71.25,10.375,14.875,0
17110,76.0625,14.25,22.3125,0
17130,62.625,20.9375,34.625,0
17150,32.6875,17.5625,50.9375,0
17170,-10.5625,5.75,53.75,0
17190,-56.625,-8.875,39.1875,0
17210,-73.9375,-24.8125,21.625,0
17230,-59.4375,-39.875,7.5,0
17250,-24.625,-55.0625,-1.3125,0
17270,16.75,-65.6875,-6.75,0
17290,41.5625,-67.5625,-7.0625,0
17310,51.1875,-61.25,-2.4375,0
17330,50.8125,-45.125,10.75,0
17350,23.125,-28.125,32.0625,0
17370,-0.6875,-23.5,43.8125,0
17390,-14.0625,-27,44.6875,0
17410,-15.1875,-33.625,31.625,0
17430,-9.6875,-37.9375,14.8125,0
17450,-1.75,-39.4375,1.6875,0
17470,7.25,-35.125,-10.75,0
17490,7,-23.3125,-17.8125,0
17510,0.75,-9,-19.0625,0
17530,6.375,2.5625,-15.5625,0
17550,29.3125,14.625,-12.9375,0
17570,53,28.25,-16.3125,0
17590,61.5,35.0625,-18.75,0
17610,68.25,31.375,-19.0625,0
17630,73.625,25.0625,-18.3125,0
17650,74.625,21.1875,-16.375,0
17670,65.875,20.8125,-13.75,0
17690,52.5625,20.125,-9.3125,0
17710,40.25,20.125,-2.3125,0
17730,28.9375,21,5.5625,0
17750,17.9375,21.8125,12.625,0
17770,6.125,22,18.875,0
17790,-5.3125,21.25,23.125,0
17810,-14.8125,17.4375,25.75,0
17830,-21.75,15.125,26.0625,0
17850,-40.6875,14.125,24.125,0
17870,-46.9375,14.125,22.75,0
17890,-34.75,17.25,15.3125,0
17910,3.25,7.8125,7.5625,0
17930,25.0625,-6.75,6.5625,0
17950,31.75,-8.4375,8.0625,0
17970,24.8125,-4.4375,3.125,0
17990,29.6875,-3.25,5.9375,0
18010,40.875,-4.125,9.0625,0
18030,50.375,1.625,10.25,0
18050,52.5625,7.875,12.125,0
18070,50.3125,12.25,11.0625,0
18090,64.5,17.25,8.3125,0
18110,94.75,20.75,1,0
18130,145.375,25,-6.0625,0
18150,178.25,28.0625,-6.125,0
18170,156.312,30.1875,0.9375,0
18190,109.875,25.9375,4.25,0
18210,58.375,19,7.8125,0
18230,34.75,8.1875,9.875,0
18250,2.3125,0.5625,8.25,0
18270,-30.3125,-1.875,4.0625,0
18290,-44.875,-5.0625,2.8125,0
18310,-49.25,-7.25,0.3125,0
18330,-55.8125,-3,-0.625,0
18350,-63.9375,1.75,0,0
18370,-82.4375,6.8125,1.5,0
18390,-98.125,3.6875,8.9375,0
18410,-133.125,4.125,11.75,0
18430,-163.562,-3.75,5.125,0
18450,-177.812,-21.4375,7.0625,0
18470,-164.562,-37.1875,8.1875,0
18490,-147.188,-42.3125,4,0
18510,-127.375,-37.8125,6.125,0
18530,-109,-25.625,6.625,0
18550,-89.25,-12,9.1875,0
18570,-71.25,-0.5625,10.9375,0
18590,-60.1875,7.3125,11.4375,0
18610,-29.3125,10.3125,10.75,0
18630,26.5,14.9375,4.375,0
18650,71.625,7.375,1.75,0
18670,83.5625,-0.625,2.0625,0
18690,69.75,-5.5,6,0
18710,35.25,-3.4375,7.125,0
18730,16.1875,2.5625,4.0625,0
18750,18.8125,4.8125,1.3125,0
18770,30.4375,10.6875,0.5625,0
18790,15.125,13.3125,-2.8125,0
18810,9,11.6875,0.1875,0
18830,1.75,8.5625,2.8125,0
18850,-23.125,0.6875,5.5,0
18870,-56.9375,-1.5625,9.125,0
18890,-76.8125,-1.9375,13.5,0
18910,-84.375,-10.5,15.25,0
18930,-99.0625,-19.9375,12.3125,0
18950,-81.3125,-31.1875,2.5625,0
18960,-44.8125,-32,-4.4375,0
18990,-40.1875,-27.9375,-7.875,0
19010,-40.25,-32.875,-7.4375,0
19020,-48.25,-34.8125,-7.5625,0
19040,-49.25,-35.25,-7.8125,0
19060,-38.875,-40.3125,-8.6875,0
19080,-35.9375,-41.5,-12.125,0
19100,-49,-38.375,-15.5,0
19120,-59.3125,-45.4375,-18.125,0
19140,-64.375,-52.125,-21.375,0
19160,-60.75,-62.9375,-23.5625,0
19180,-57.875,-67,-22.0625,0
19200,-62.5625,-56,-18.125,0
19220,-63.75,-49.1875,-20.0625,0
19240,-48.1875,-54,-21,0
19240,-24.8125,-46.375,-24.75,0
19260,-15.25,-38.5625,-27.0625,0
19270,-19.875,-28.3125,-24.9375,0
19290,-18,-22.9375,-24.6875,0
19310,-13.4375,-18.8125,-24.5625,0
19330,-4.6875,-14.125,-23.375,0
19350,-7.75,-8,-21.75,0
19370,-18.3125,-5.875,-23,0
19390,-9.8125,-2.125,-23.0625,0
19410,-0.5625,1.125,-20.625,0
19430,3.0625,5.3125,-22.0625,0
19450,3.75,7.125,-17.75,0
19470,0.1875,9,-22.25,0
19490,2.5,8.9375,-23.75,0
19510,5.25,11.125,-27.0625,0
19530,10.75,12.3125,-27.6875,0
19550,8.3125,11.1875,-26.8125,0
19570,4.1875,15.625,-28.5625,0
19590,-4.75,16.4375,-28,0
19610,-2.625,18.125,-28.125,0
19630,-1.375,20.1875,-28.3125,0
19650,-4.375,22.375,-27.25,0
19670,-7.375,27.75,-28.9375,0
19690,-0.5,32.875,-34.25,0
19710,8.75,35.25,-36.75,0
19730,13.8125,35.9375,-39.75,0
19750,12.125,35.5625,-38.3125,0
19770,12.625,35.6875,-36.5,0
19790,4.25,34.125,-33.8125,0
19810,-8.3125,30.75,-23.6875,0
19830,-12.125,31.875,-22.5625,0
19850,-6.5625,30.5625,-27,0
19870,16.3125,32,-28.3125,0
19890,29.125,34.8125,-37.1875,0
19910,38.9375,35.8125,-38.6875,0
19930,32.1875,35.0625,-39.875,0
19950,37.6875,29.3125,-29.9375,0
19970,28.4375,23.75,-23.125,0
19990,22.375,13.9375,-9.4375,0
20010,12.875,7.625,-1.875,0
20030,28.75,2.4375,-2.375,0
20050,40.375,-1.0625,-10.75,0
20070,38.375,-2.6875,-7.25,0
20090,41.5,-4.6875,-6.0625,0
20110,42.0625,-7.6875,-6.9375,0
20130,49.25,-14.625,-9.875,0
20150,57.9375,-21,-10.75,0
20170,58.5,-21.375,-11.5,0
20190,51.75,-22.5,-11.5625,0
20210,48.8125,-23.75,-9.5625,0
20230,47.4375,-21.6875,-8.375,0
20250,46.9375,-21.875,-7.3125,0
20270,48.5,-21.25,-5.25,0
20290,47.6875,-21.875,-1.4375,0
20310,41.0625,-22.8125,1,0
20330,30.25,-24.625,5.3125,0
20350,26.25,-26.375,7.125,0
20370,28.5,-26.25,5.9375,0
20390,22.6875,-30,6.125,0
20410,17.0625,-37.375,4.6875,0
20430,24.4375,-44.5,5.625,0
20450,31.3125,-47.6875,4.5625,0
20470,23,-43.8125,1.8125,0
20490,12.75,-38.8125,-3.3125,0
20510,18.625,-34.4375,-7.875,0
20530,33.5,-29.5625,-11,0
20550,44.0625,-23.4375,-11.1875,0
20570,46.5,-17,-8.6875,0
20590,43.6875,-11.75,-6.625,0
20610,43.125,-9.875,-4.625,0
20630,41.875,-7.9375,-2.375,0
20650,38,-5.625,-1.1875,0
20670,30.375,-3.9375,0.1875,0
20690,26.1875,-1.875,0.1875,0
20710,23.9375,1.375,-2.4375,0
20730,21,4.5625,-4.4375,0
20750,18.625,7.3125,-5.5625,0
20770,15.4375,9.8125,-6.6875,0
20790,11.5625,12.625,-5.1875,0
20810,5.625,13.3125,-2.25,0
20830,-1.4375,12.3125,1.4375,0
20850,-6.125,10.125,3.375,0
20870,-9.9375,8.125,8.4375,0
20890,-15.8125,3.125,15.375,0
20910,-22.9375,2.125,21.75,0
20930,-29.5625,0.25,23.25,0
20950,-28.75,-4.375,26.4375,0
20970,-29.4375,-3.625,28.875,0
20990,-32.9375,-2.6875,27.25,0
21010,-30.75,-2.125,26.4375,0
21030,-20.75,-2.75,21.4375,0
21050,-8.75,-1.0625,15.9375,0
21070,1.3125,2.8125,10.375,0
21090,6.375,6.125,5.6875,0
21110,12.1875,5.75,2.3125,0
21130,19.1875,5.8125,-1.4375,0
21150,23.3125,6.5625,-1.6875,0
21170,24.125,7.6875,0.3125,0
21190,22.3125,6.1875,2.5,0
21210,15.0625,4.8125,5.3125,0
21230,5.0625,3.8125,8.75,0
21240,-1.9375,3,12.375,0
21260,-1.1875,2.6875,15.0625,0
21280,6.75,2.6875,16.4375,0
21300,8.3125,3.0625,17.25,0
21320,2.0625,5.125,17.625,0
21340,-1.0625,7.1875,18.125,0
21360,8.0625,8.9375,19.3125,0
21380,20.75,8.625,18.5625,0
21400,30.125,7.5625,19.1875,0
21420,31.6875,7.0625,18.625,0
21440,26.5,6.5625,19.5,0
21460,21.6875,3.9375,21.625,0
21480,18,0.625,21.3125,0
21500,12.8125,-2.0625,20.4375,0
21520,7.6875,-1.9375,19,0
21540,4.75,-0.1875,15.375,0
21560,5.125,1.9375,11.5625,0
21580,10.6875,5.125,5.875,0
21600,29.1875,9.1875,1.5625,0
21620,51.1875,14.1875,-4.1875,0
21640,60,20.875,-9.6875,0
21660,58.25,26.375,-14.5625,0
21680,60.0625,28.9375,-17.6875,0
21700,64,30.3125,-22.4375,0
21720,65.125,29.125,-27.8125,0
21740,63.4375,28.9375,-31.875,0
21760,58.9375,29.0625,-39.625,0
21780,54.625,30,-46.625,0
21800,52.625,25.125,-53.375,0
21820,48.375,21.0625,-60.625,0
21840,39.4375,18.1875,-68.1875,0
21860,44.5625,19.375,-73.5,0
21880,52.875,21.75,-80.875,0
21900,50.125,25,-85.75,0
21920,49.1875,24.5,-86.4375,0
21940,47.5625,18.75,-83.125,0
21960,35.5625,12.375,-78.6875,0
21980,16.5625,5.125,-73.8125,0
22000,-5.875,-1.125,-68.1875,0
22020,-41.1875,-8.875,-64.75,0
22040,-65.6875,-13.75,-62.4375,0
22060,-46.75,-18.9375,-62.125,0
22080,-13.25,-18.1875,-75.6875,0
22100,-1.6875,-15.8125,-90.9375,0
22120,8,-15.125,-103.875,0
22140,22.4375,-17.125,-115.438,0
22160,26.6875,-19.8125,-122.312,0
22180,22.1875,-23.875,-119.375,0
22200,26.125,-24.0625,-120.562,0
22220,20.625,-25.75,-120.75,0
22240,15.125,-26.3125,-122.312,0
22260,6.6875,-25.625,-120.688,0
22280,2.1875,-22.25,-121.625,0
22300,5.6875,-15.6875,-124.125,0
22320,9.9375,-3.9375,-125.5,0
22340,10.9375,11.5,-131.25,0
22370,-27.25,65.875,-99.375,0
22390,-41.4375,50.9375,-77,0
22410,-58.75,40.4375,-62.75,0
22430,-71.0625,34,-56.3125,0
22450,-71.625,21.75,-58,0
22470,-70,15.375,-63.6875,0
22490,-73.125,17.4375,-63.3125,0
22510,-94.25,18.3125,-58.625,0
22530,-110.188,21.3125,-54.125,0
22550,-117.625,24.1875,-51.5625,0
22570,-110.75,27.25,-48.75,0
22590,-106,30.5,-43.75,0
22610,-87.5625,36.8125,-48.1875,0
22630,-21.8125,31.5,-28.9375,0
22650,17.75,23.4375,-7.625,0
22670,-3.25,26.3125,5.5625,0
22690,-70.875,30.5625,18,0
22710,-100.812,27.375,28.75,0
22730,-81.25,24.5625,22.875,0
22750,-65.5625,28.3125,11.875,0
22770,-76.625,29.0625,5.5625,0
22790,-100.375,31.75,2,0
22810,-87.375,37.75,-7.0625,0
22830,-68.0625,41.125,-11.5,0
22850,-42.125,37.4375,-14.75,0
22870,-38.1875,35.4375,-20.75,0
22890,-49.0625,29.5625,-22.75,0
22910,-54.375,23.75,-12.625,0
22930,-42.125,21.25,-11.3125,0
22950,-22.5625,19.1875,-11.1875,0
22970,-28.3125,17.0625,-2.8125,0
22990,-40.125,12.3125,4.375,0
23010,-37.5,1.5,2.8125,0
23030,-36.25,-2.25,-10.4375,0
23050,-41.625,0.5625,-12.5,0
23070,-29.1875,1.5,-16.1875,0
23090,-12.8125,1.9375,-25.5625,0
23110,-4.1875,3.25,-27.0625,0
23130,-14.6875,6.9375,-20.125,0
23150,-23.4375,13.9375,-15.125,0
23170,-29.1875,16.9375,-11.3125,0
23190,-14.1875,21.75,-11.8125,0
23210,-5.8125,26.3125,-11.4375,0
23230,-12.75,25.6875,-11.375,0
23250,-19.6875,26.125,-16.4375,0
23270,-20,28.0625,-24.1875,0
23290,-9.875,27.4375,-26.625,0
23310,-4.8125,27.125,-28.9375,0
23330,-7.5625,27,-30.625,0
23350,-11.4375,28.375,-32.5,0
23370,-16.3125,29.1875,-34.9375,0
23390,-15.8125,29.0625,-33.5625,0
23410,-16.3125,31.5625,-34.0625,0
23430,-19.6875,39.375,-31.0625,0
23450,-14.9375,49,-20.9375,0
23470,-4.6875,54.8125,-16.1875,0
23490,-1.75,55.125,-16.875,0
23510,-1.375,52.625,-16.4375,0
23530,-5,48.75,-18.9375,0
23550,-9.1875,43.9375,-23.3125,0
23570,-15.0625,39.1875,-26.5625,0
23590,-14.8125,34.25,-28.75,0
23610,-12.25,30.4375,-30.625,0
23630,-11.6875,29.125,-28.75,0
23650,-15.8125,29.6875,-27.6875,0
23670,-18.1875,30.4375,-25.3125,0
23690,-18.9375,32.0625,-21.5,0
23710,-16,33.5625,-19.125,0
23730,-11,33.375,-15.3125,0
23750,-9.25,34,-11.375,0
23770,-9.75,34.9375,-10.1875,0
23790,-6.5625,35.1875,-10.6875,0
23810,-3.0625,32.9375,-9.9375,0
23830,0.9375,31,-10,0
23850,2.1875,29.375,-10.375,0
23870,1.8125,28,-11.6875,0
23890,5.75,27.5,-14.9375,0
23910,13,24.125,-18.1875,0
23930,29.125,22.3125,-18.875,0
23950,21.8125,20.25,-22.4375,0
23970,18.6875,18.375,-21.625,0
23990,18.9375,14.375,-19.0625,0
24010,19.8125,9.875,-17,0
24030,8.25,4.5,-10.5625,0
24050,-1.25,1.625,-2.1875,0
24070,-4.625,-3.3125,1.375,0
24090,-5.3125,-8.875,3.9375,0
24110,-8.9375,-14.5,9.4375,0
24130,-12.5,-19.25,16.0625,0
24150,-12.6875,-20.5625,18.0625,0
24170,-8.0625,-19.375,12.75,0
24190,-5.875,-19,8.3125,0
24210,-7.6875,-15.125,8.25,0
24230,-6.0625,-14,5.25,0
24250,-0.375,-20.6875,-2.5,0
24270,4.125,-29.5,-0.1875,0
24280,8.875,-30.4375,0.75,0
24300,4.125,-31.25,-4,0
24320,-5.125,-32.875,-5.9375,0
24340,-8.125,-35.75,-11.3125,0
24360,-5.1875,-38.875,-11.6875,0
24380,-5.625,-39.375,-10,0
24400,-11.125,-36.5625,-12.125,0
24420,-14.5625,-34.5,-13.125,0
24440,-11.875,-34,-15,0
24460,-9.25,-30.75,-19.4375,0
24480,-8.8125,-26.6875,-22.6875,0
24500,-9.375,-24.375,-24.875,0
24520,-6.625,-21.125,-25.625,0
24540,-0.875,-18.375,-28.875,0
24560,-3.125,-17.125,-33.5625,0
24580,-4,-17.3125,-35.8125,0
24600,-4.75,-18,-35.4375,0
24620,-1.9375,-17.6875,-34.3125,0
24640,-4.4375,-18.875,-32.0625,0
24660,-5,-18.1875,-28.75,0
24680,-6.6875,-17.0625,-28,0
24700,-4.0625,-13.1875,-25.5625,0
24720,-5.875,-9.5,-21.375,0
24740,-2.8125,-4.875,-16.25,0
24760,10.75,-3.0625,-13.3125,0
24780,16.5,5.1875,-6.6875,0
24800,19.25,14.75,7.625,0
24820,11.25,19.75,15.625,0
24840,3.75,12.625,12,0
24860,3,1.8125,5.6875,0
24880,5.3125,-7.1875,4.9375,0
24900,-0.6875,-12.125,-1,0
24920,-8.125,-15.1875,-2.625,0
24940,-13.8125,-14.4375,-0.5625,0
24960,-6.25,-13.625,-3.9375,0
24980,-4.375,-12.875,-11.25,0
25000,-11,-13.5625,-15.75,0
25020,-13.9375,-14.375,-18.375,0
25040,-17.6875,-11.8125,-20.75,0
25060,-13.75,-1.25,-14.1875,0
25080,-11.5625,8.8125,-12.875,0
25100,5.0625,15.1875,-8.5,0
25120,14.4375,20.0625,-6.0625,0
25140,0.625,24.375,-5.25,0
25160,-8.875,24.625,-1.5625,0
25180,-17.4375,21.4375,-0.125,0
25200,-18.5,17.875,-1.25,0
25220,-18.75,16,-2.8125,0
25250,-20.375,4.125,-15.8125,0
25280,-29.5,-19.8125,-23.8125,0
25300,-20.25,-18.5625,-28.1875,0
25320,-18.0625,-18,-24.5625,0
25340,-15.75,-17.125,-18.5625,0
25360,-14.1875,-17.125,-14.3125,0
25380,2.5625,-18.5625,-11.0625,0
25400,11.125,-20.6875,-10.8125,0
25420,1.1875,-27.375,-19.6875,0
25440,-15.875,-34.3125,-26.5,0
25460,-15.3125,-40.125,-23.625,0
25480,-7,-38.75,-22.9375,0
25500,-13.625,-36.3125,-27.125,0
25520,-26.3125,-35.875,-22.625,0
25540,-33.9375,-33.4375,-18.625,0
25560,-31.125,-33.1875,-15.8125,0
25580,-30.125,-31.75,-6.25,0
25600,-34.6875,-31.6875,-0.3125,0
25620,-35.5,-29.75,-0.1875,0
25640,-48.875,-29.625,-0.25,0
25660,-45.3125,-29.125,-4.8125,0
25680,-37.8125,-29.8125,-15.8125,0
25700,-26.875,-30.0625,-27.1875,0
25720,-19,-27.5,-34.125,0
25740,-14,-17.9375,-36.0625,0
25760,-3.4375,-7.9375,-35.3125,0
25780,-4.75,-0.5625,-38.25,0
25800,1.125,6.8125,-26.625,0
25820,17,15.3125,-18.1875,0
25850,42.6875,25.1875,-4.375,0
25870,37.375,35.25,-1.9375,0
25890,36.3125,45.6875,0.125,0
25910,34.0625,57.3125,-0.3125,0
25930,46.75,61,0.75,0
25950,58.625,65.9375,8.1875,0
25970,78.375,69.3125,20.875,0
25990,95.5,64.875,29.25,0
26010,97.8125,58.1875,38.0625,0
26030,79.625,57.3125,49.3125,0
26050,69.125,54.1875,62.4375,0
26070,76.125,44.9375,78.6875,0
26090,86.75,39.5,82.6875,0
26110,76,56.875,48.1875,0
26130,62.75,63,11.0625,0
26150,57.6875,48.8125,9,0
26170,71.9375,41.5,2.6875,0
26190,67.25,48.125,-5.75,0
26210,71.4375,55.8125,-13.125,0
26230,64.4375,61.375,-16.5625,0
26250,58.625,61.875,-13.125,0
26270,64.125,70.0625,-15.1875,0
26290,62,86.6875,-22.125,0
26310,75.3125,96.625,-11.375,0
26330,91,98.5,0.375,0
26350,84.0625,101.625,12.9375,0
26370,73.375,115.562,22.8125,0
26390,66.25,129.188,27.6875,0
26410,72.75,131.875,36.75,0
26430,71.75,129.125,47.375,0
26450,61.4375,134.688,54.9375,0
26470,64.1875,129.562,62.9375,0
26490,52.5,121,70.1875,0
26510,71.9375,104.125,69.6875,0
26530,55.0625,93.5625,75.8125,0
26550,30.6875,85.3125,76.6875,0
26570,15.625,77,67.5,0
26590,30,64.9375,50.375,0
26610,30.875,54.125,44.125,0
26630,26.8125,42.875,43.625,0
26650,19.0625,31.125,47.1875,0
26670,17.125,24.6875,43.8125,0
26690,21.1875,23.875,37.875,0
26710,25.6875,23.0625,33.0625,0
26730,22.1875,15.5625,34.8125,0
26750,18,7.1875,40.625,0
26770,13.5625,4,40.5,0
26790,14.4375,1.9375,39.375,0
26810,19.25,1.3125,34.4375,0
26830,18.375,-1.9375,34.3125,0
26850,18.5,-2,31.8125,0
26870,17.25,-3.1875,34.75,0
26890,17.4375,-0.375,31,0
26910,11.6875,-2.375,30.875,0
26930,12.25,-1.5625,30.5,0
26950,11.375,-3.9375,27.125,0
26970,12.8125,-3.4375,24.6875,0
26990,11.6875,-6.6875,21.6875,0
27010,11,-9.4375,18.9375,0
27030,9.3125,-7.0625,19.0625,0
27050,4.5625,-6.75,18.8125,0
27070,0.5,-4.625,19.5,0
27090,4.0625,-8,16.875,0
27110,6.75,-5.75,13.125,0
27130,7.1875,-4.625,8.5625,0
27150,5,-3.8125,7.6875,0
27170,5.875,-3.8125,6.875,0
27190,4.1875,-3.9375,5.6875,0
27210,6.75,-5.125,2.125,0
27230,8.8125,-6.9375,-0.8125,0
27250,9.4375,-5.5,-2.625,0
27270,6.75,-5.75,-1.75,0
27290,6.1875,-6.0625,-1.5625,0
27310,6.5625,-4.25,-1,0
27330,5.9375,-3.9375,0.125,0
27350,5,-4.5,2.6875,0
27370,5.3125,-4.5625,5.1875,0
27390,4.5,-4.125,6.25,0
27410,5.5625,-3.4375,8.125,0
27430,5.1875,-1.875,10.4375,0
27450,4.9375,-1.3125,11.1875,0
27470,6.6875,-0.9375,11.125,0
27490,6.75,-1.5,12.375,0
27510,5.8125,-3.0625,11.0625,0
27520,4.875,-4.375,9.1875,0
27540,4.8125,-3.9375,7.8125,0
27560,4,-4.8125,5.8125,0
27580,2.0625,-3.5625,4.9375,0
27600,0.6875,-2.5,3.0625,0
27620,0.4375,-3.125,1.375,0
27640,0.75,-3.25,0.6875,0
27660,-1.125,-2.5,-0.375,0
27680,-1,-2.125,-1.25,0
27700,-1.1875,-1.3125,-2.5,0
27720,-0.0625,-1.375,-3.4375,0
27740,0.5,-1.5625,-4.25,0
27760,0.9375,-1.8125,-4.1875,0
27780,0.625,-1.4375,-5.3125,0
27800,1.6875,-1.3125,-5.4375,0
27820,2.1875,-1.4375,-4.4375,0
27840,2.0625,-1.1875,-4.125,0
27860,2.4375,-1,-3.875,0
27880,2.375,-1.125,-2.125,0
27900,2.5625,-2.4375,-2.3125,0
27920,1.6875,-1.875,-1.4375,0
27940,1.875,-1.9375,-0.75,0
27960,2,-3,-0.375,0
27980,2,-3.125,0.1875,0
28000,1.3125,-3.5,0.5,0
28020,1.5625,-3.5625,0.4375,0
28040,2,-3.8125,0.6875,0
28060,1.625,-4.5,0.5625,0
28080,1.3125,-5.3125,0.25,0
28100,1.4375,-5.625,0.25,0
28120,0.75,-6.25,-0.1875,0
28140,0.25,-6.5625,0.125,0
28160,-0.125,-5.6875,0.125,0
28180,-0.5625,-6.75,-1,0
28200,-0.625,-6.125,-1.25,0
28220,-2,-5.5,-1.5,0
28240,-0.875,-6.375,-1.875,0
28260,0.125,-5.5625,-3,0
28280,-1.125,-4.0625,-2.5625,0
28300,-1.75,-3.875,-3.4375,0
28320,0.4375,-3.5,-3.75,0
28340,-0.125,-2.9375,-3.6875,0
28360,0,-2.625,-4.5625,0
28380,-0.1875,-1.5625,-4.8125,0
28400,-0.0625,-1.8125,-5.5625,0
28420,-0.3125,-1.375,-5.0625,0
28440,-0.5,-1.1875,-5.5,0
28460,-0.6875,-2.3125,-5.1875,0
28480,-0.3125,-3.5625,-5.75,0
28500,-1.1875,-4.4375,-6.5,0
28520,-0.9375,-5.4375,-6.5,0
28540,-1.125,-5.0625,-6.25,0
28560,-2.375,-5,-6.6875,0
28580,-3,-5.625,-5.4375,0
28600,-2.8125,-4.75,-4.8125,0
28620,-4.3125,-5.375,-4.625,0
28640,-4.9375,-5.1875,-5.0625,0
28660,-9.25,-1.9375,-5.0625,0
28680,-12.5,-1.4375,-1.5625,0
28700,-17.625,2.875,-1.8125,0
28720,-20.375,0.9375,-3.3125,0
28740,-20.125,-3.125,-5.25,0
28760,-14.75,-2.6875,-8.125,0
28780,-16.8125,-2.4375,-10.1875,0
28800,-17.375,-4,-13.3125,0
28820,-18.0625,-7.0625,-14.125,0
28840,-16.1875,-9.4375,-15.125,0
28860,-13.75,-9.875,-14.8125,0
28880,-12.75,-9.0625,-15.875,0
28900,-16.625,-8.125,-15.6875,0
28920,-17.5,-8.625,-12.8125,0
28940,-15.875,-4.3125,-10.5,0
28960,-14.375,-0.5,-10.0625,0
28980,-14.1875,-3,-6.5,0
29000,-6.5,-2.5,-6.8125,0
29020,-3,-1.1875,-7.625,0
29040,0.75,-0.8125,-8.875,0
29060,5.8125,-1.5625,-7.6875,0
29080,10.5625,-3.25,-7.125,0
29100,12.4375,-3.25,-6.4375,0
29120,16.3125,-5.9375,-5.375,0
29140,19.6875,-8.4375,-4.5625,0
29160,19.125,-10.3125,-4.5625,0
29180,20.25,-10.625,-1.5625,0
29200,19.6875,-12.75,0.8125,0
29220,19.0625,-13.125,3.8125,0
29240,19.5,-13,7.1875,0
29260,18.3125,-10.5,10.8125,0
29280,15.375,-4.8125,13.875,0
29300,12.5,0.3125,16.9375,0
29320,11.875,-2,16.375,0
29340,9.75,-3.9375,13.875,0
29360,11.3125,-2.875,10.75,0
29380,12.1875,-1.875,7.6875,0
29400,9.3125,-0.9375,5.8125,0
29420,6.1875,1,4.25,0
29440,3.9375,1.9375,0.625,0
29460,1.875,3.75,-2.5,0
29480,0.1875,4.5625,-4.375,0
29500,-0.8125,3.9375,-4.75,0
29510,-1.25,2.0625,-4.25,0
29530,-1.0625,1.8125,-4.8125,0
29550,-2.25,1.9375,-4.625,0
29570,-2.375,2.5,-3.9375,0
29590,-1.4375,3,-3.5,0
29610,-1.125,1.0625,-3.25,0
29630,-1.125,1.3125,-2.4375,0
29650,-2.9375,1.75,-1.9375,0
29670,-2.8125,2.9375,-0.1875,0
29690,-3.4375,2.6875,1.875,0
29710,-6.4375,3.8125,3.1875,0
29730,-10.0625,5.25,4.375,0
29750,-11,6.0625,4.5,0
29770,-10.4375,8.4375,2.875,0
29790,-10.375,7.4375,1.5,0
29810,-12.5625,5.6875,0.375,0
29830,-8.4375,4.875,0.25,0
29850,-9.125,3.25,-2.25,0
29870,-7.8125,3.625,-4.0625,0
29890,-6.6875,2.8125,-5.625,0
29910,-6.1875,1.6875,-7.3125,0
29930,-7.125,1.125,-6.5,0
29950,-7.875,0.375,-5.125,0
29970,-6.5625,-0.375,-5,0
29990,-5.125,-1.5,-2.875,0
30010,-7.5,-1.125,-2.3125,0
30030,-6.1875,-1.5625,-1.5,0
30050,-3.4375,-4.125,0.25,0
30070,-4,-0.8125,-2.75,0
30090,-6.375,-0.3125,-5.0625,0
30120,-3.125,-4.5,-1.6875,0
30140,-0.5625,-3.875,-5.125,0
30160,-1.0625,-4.25,-12.375,0
30180,-5.125,-5.625,-13.5625,0
30200,-2.5625,-8.0625,-19.125,0
30220,-0.8125,-10.6875,-27.4375,0
30240,-0.9375,-15.5625,-33.75,0
30260,-5.625,-22.8125,-33.25,0
30280,-12.6875,-31.625,-34.125,0
30300,-19.5,-39.1875,-38.625,0
30320,-22.625,-39.8125,-42.125,0
30340,-28,-44.375,-44.25,0
30360,-40.4375,-50.25,-44.375,0
30380,-45.5625,-51.0625,-41.1875,0
30400,-51.75,-56.3125,-43.3125,0
30420,-59.9375,-61.625,-45.75,0
30440,-68.1875,-61.875,-40.125,0
30460,-86.75,-57.8125,-33,0
30480,-105.5,-52.625,-25.1875,0
30500,-105.5,-47.75,-15.125,0
30520,-97.4375,-51.1875,-14.3125,0
30540,-102.938,-46.75,-14.1875,0
30560,-109.625,-55.125,-4.375,0
30580,-114.125,-68.4375,9.25,0
30600,-117.375,-67.5625,19.9375,0
30620,-107.5,-69.0625,11,0
30640,-89.875,-85.25,9.5,0
30660,-74.0625,-86.625,1.0625,0
30680,-72.9375,-70.5,-8.3125,0
30700,-90.875,-59.5625,-21.875,0
30720,-74,-50.125,-16.9375,0
30740,-55.5,-38.125,-14.375,0
30760,-55.0625,-33.5625,-10.8125,0
30780,-56.625,-36.4375,2.6875,0
30800,-52.5625,-36.5,4.1875,0
30820,-50.75,-31.9375,2.375,0
30840,-56.125,-27.25,1.1875,0
30860,-61.4375,-27.0625,2.375,0
30880,-59.9375,-30.6875,2.8125,0
30900,-69.0625,-49.25,5.0625,0
30920,-95.25,-58.9375,8.25,0
30940,-100.875,-56.75,15.3125,0
30960,-89.875,-51.8125,25.3125,0
30980,-91.75,-47.375,30.5625,0
31000,-97.4375,-35.1875,31.6875,0
31020,-91.4375,-31,37.625,0
31040,-79.6875,-23.5,43.125,0
31060,-73.3125,-17.5625,47.125,0
31080,-62.625,-11,46.4375,0
31100,-59.4375,-5.1875,41.4375,0
31120,-51.875,0.3125,44,0
31140,-36.625,6.0625,44.25,0
31160,-37.5,4.5625,35.375,0
31180,-42.125,0.4375,39.3125,0
31200,-43.9375,1.1875,39.25,0
31220,-35.625,0.8125,34.9375,0
31240,-28.3125,0,34.8125,0
31260,-24.9375,2.8125,28,0
31280,-21.8125,3.125,24.25,0
31300,-17.125,1.9375,24,0
31320,-10.625,1.75,20.8125,0
31340,-7.625,1.4375,17.75,0
31360,-3.875,1.0625,14.4375,0
31380,-7.75,0.25,14.125,0
31400,-2.125,1.4375,9,0
31420,9.1875,0.5,2.6875,0
31440,17.375,-3.1875,-3.1875,0
31460,13.875,-5.0625,-5.3125,0
31480,2.6875,-9.375,-3,0
31500,3,-11.125,-4.3125,0
31520,-3.5,-13.875,-5.5,0
31540,-7.1875,-13.6875,-1.5625,0
31560,-13.1875,-11.6875,1.9375,0
31580,-16.0625,-11.25,3.625,0
31600,-14.875,-8.6875,4.125,0
31620,-9.6875,-3.25,9.1875,0
31640,-5.1875,4.375,17.8125,0
31660,10.9375,10.3125,16.25,0
31680,12.5625,10.625,-1.625,0
31700,16.25,5.3125,-17.875,0
31720,16.1875,7.125,-24,0
31740,9.875,9.375,-28.1875,0
31760,-4.75,9.5625,-30.875,0
31780,-2.875,6.875,-33.375,0
31800,2.8125,2.9375,-36.125,0
31820,-7.0625,2.0625,-33.9375,0
31840,-18.8125,5.125,-31.125,0
31850,-26,8.1875,-28,0
31870,-25.1875,9.3125,-25.1875,0
31890,-25.25,8.0625,-22.4375,0
31910,-28.5625,9.6875,-18.9375,0
31930,-38.625,11.5625,-12.875,0
31960,-37.5625,6.5,-2.125,0
31980,-42.5625,5.8125,1.875,0
32000,-46.25,3.125,3.875,0
32010,-45.25,0.0625,5.3125,0
32030,-40,-3.5625,9.5625,0
32050,-42.375,-8.5,11.9375,0
32070,-41,-12.3125,11.125,0
32090,-30.8125,-13.9375,8.125,0
32110,-25.5625,-9.25,7.375,0
32130,-25.0625,-2.875,9.875,0
32150,-21,0.75,8,0
32170,-12.3125,4.8125,5.5,0
32190,-21,0.25,1,0
32210,-18.9375,-7.5,4.5,0
32230,-27.25,-9.4375,5,0
32250,-27.9375,-4.625,2.875,0
32270,-26.375,-6.1875,0.625,0
32290,-25.5625,-12.9375,-1.625,0
32310,-23.0625,-12.4375,3.125,0
32330,-14.25,-3.0625,0.4375,0
32350,-24.4375,5.5625,-3.375,0
32370,-26.8125,3,0.8125,0
32390,-23,2.25,5.125,0
32410,-25.8125,7.1875,4.5625,0
32430,-26.0625,14.75,-1.75,0
32450,-29.125,16.5625,-2.875,0
32470,-25.75,12.0625,9.25,0
32490,-18.0625,11.3125,6.375,0
32510,-18.375,15.5625,-5.1875,0
32530,-17.8125,14.75,-12.75,0
32550,-20.875,12.25,-8.4375,0
32570,-23.0625,11.1875,-6,0
32590,-20.375,13,-14.625,0
32610,-12.375,12.75,-18.25,0
32630,-14.125,12.6875,-14.6875,0
32650,-21,11.1875,-14.25,0
32670,-21.8125,9.625,-18.8125,0
32690,-28.375,6.6875,-26.3125,0
32710,-20.1875,-1.6875,-17.625,0
32730,-23.3125,10.9375,-21.875,0
32750,-23.0625,15.75,-24.0625,0
32770,-28.5625,14.1875,-28.5625,0
32790,-19.5,19.1875,-33.375,0
32810,-19.6875,22.1875,-31.625,0
32830,-23.0625,28.875,-29.1875,0
32850,-22.8125,24.5625,-25.125,0
32870,-15.4375,20.9375,-19.9375,0
32880,-13.25,24.375,-21.9375,0
32900,-9.875,25,-20.625,0
32920,-13.8125,18.75,-16.625,0
32940,-9.25,12.5,-7.375,0
32960,-11.5,18.5,-10.125,0
32980,-10.4375,15,-7.125,0
33000,-11.4375,11.4375,-3,0
33020,-8.125,8.9375,0.625,0
33040,-7.0625,8.75,1.875,0
33060,-9.125,9.9375,0.4375,0
33080,-8.75,12.0625,-4.5,0
33100,-6.875,7.875,-5.125,0
33120,-4,5.25,-3.125,0
33140,-2.0625,7.3125,-4.3125,0
33160,-6.9375,9.5,-3.6875,0
33180,-4.5,8.375,1.125,0
33200,-4.625,7.125,2.5,0
33220,-5.0625,6.6875,5.625,0
33240,-1.0625,9.0625,2.875,0
33260,-1.1875,12.3125,-1.5625,0
33280,-3.25,14.0625,0.25,0
33300,-4.0625,12.5,-1.75,0
33320,2.9375,6.5,0.75,0
33340,6.0625,4.9375,1,0
33360,3,6.5625,0.6875,0
33380,-4.5625,6.875,0.6875,0
33400,-5.375,4.9375,0.0625,0
33420,-1.4375,4.4375,1.875,0
33440,-3.8125,6.625,1.125,0
33460,-5.6875,6.75,1.8125,0
33480,-8.1875,6,3.6875,0
33500,-7.6875,6.875,6.6875,0
33520,-4.875,5.875,7,0
33540,-0.5625,4.5,6.25,0
33560,-1.875,5.375,3.6875,0
33580,-0.375,7.125,0.375,0
33600,-2.5,4.5,0.25,0
33620,0.25,3.25,0.5,0
33640,-1.1875,2.5625,-1.3125,0
33660,-1.5,3.3125,-2.8125,0
33680,-1.1875,3.875,-4.25,0
33700,1.75,4.6875,-6,0
33720,-0.625,3.4375,-7.375,0
33740,-2,3.625,-10.9375,0
33760,2,4.5625,-16.375,0
33780,3,6.5625,-16.6875,0
33800,-1.6875,8.75,-19.6875,0
33820,-0.1875,12.1875,-23.6875,0
33840,-0.25,9.75,-30.25,0
33860,-3.625,9.25,-34.25,0
33880,-8.9375,12.625,-33.5625,0
33900,-12.875,14,-37,0
33920,-13.6875,12.4375,-41.0625,0
33940,-17.4375,10.6875,-42.625,0
33960,-23.4375,7.0625,-46.0625,0
33980,-30.5625,4.5625,-52.375,0
34000,-30.125,4.5625,-55.625,0
34020,-25.375,10.8125,-60.0625,0
34040,-30.8125,11.375,-65.8125,0
34060,-39.625,10.4375,-62.0625,0
34080,-43.8125,12.3125,-58.5625,0
34100,-44.9375,11.9375,-58.1875,0
34120,-40.75,8.625,-54.125,0
34140,-40,0.375,-44.5625,0
34160,-41.6875,0.5,-36.3125,0
34180,-48.1875,2.875,-34.375,0
34200,-48.875,5.0625,-36.625,0
34220,-49.75,3.0625,-33.9375,0
34240,-45.9375,8.4375,-30.4375,0
34260,-47.75,10.625,-28.4375,0
34280,-42.25,8.5625,-27.9375,0
34300,-36.1875,4.5625,-28.75,0
34320,-31.5,6.25,-26.8125,0
34340,-33,10,-25.875,0
34360,-32.5,10.375,-25.0625,0
34380,-24.0625,8,-24.375,0
34400,-19.75,5.5,-23.75,0
34420,-14.1875,4.125,-19.0625,0
34440,-17.3125,5.5625,-16.5,0
34460,-12.1875,7.1875,-18.8125,0
34470,-6.25,4,-20.5625,0
34490,-7,3.0625,-22.375,0
34510,-3.875,2.75,-28.0625,0
34530,4.4375,3.5,-31.875,0
34550,5.6875,1.1875,-35.8125,0
34570,3.125,-0.875,-41.625,0
34590,0.9375,-0.5625,-41.0625,0
34610,-2.8125,1.9375,-37.25,0
34630,-0.75,3.25,-35,0
34650,0.6875,1,-29.875,0
34670,-0.4375,0.875,-22.875,0
34690,-1.875,3.9375,-16.375,0
34710,-0.5,5.625,-13.5625,0
34730,-2.9375,4.9375,-10.5625,0
34750,-3.4375,2.375,-6.625,0
34770,0.125,-1.125,-2.5625,0
34790,0.5625,-2,0.5625,0
34810,-1.5625,0.8125,-0.3125,0
34830,-3.3125,1.25,-1.5,0
34840,-5.125,0.5,-2.4375,0
34860,-6.1875,-1.9375,-1.125,0
34880,-8.5625,-0.8125,-0.5625,0
34900,-9.75,-0.3125,0.1875,0
34920,-10,0.4375,-1,0
34940,-7.4375,0.125,-1,0
34960,-7.375,-1.875,-1.6875,0
34980,-5,-3.1875,-4.5,0
35000,-2.5,-6.25,-5.75,0
35020,-3.6875,-7.0625,-7.5,0
35040,-4.8125,-9.5625,-9.375,0
35060,-3.6875,-12.8125,-10.375,0
35080,-6.0625,-11.75,-10.5,0
35100,-8.9375,-9.1875,-11.0625,0
35120,-8.75,-10.4375,-10.5,0
35140,-7.375,-11.5,-10.1875,0
35160,-7.4375,-11.0625,-7.9375,0
35180,-8.75,-7.0625,-3.9375,0
35200,-7.4375,-6.625,-1.1875,0
35220,-7.375,-4.9375,0.125,0
35240,-8.25,-2.8125,0,0
35260,-5.1875,0.4375,3.5625,0
35280,-2.125,1.4375,8.25,0
35300,0.5,-3.375,7.375,0
35320,-3.5625,-4.75,0.3125,0
35340,-4.625,-5.3125,-5.0625,0
35360,2,-2.25,-0.6875,0
35380,6.1875,0.8125,2.4375,0
35400,6.5625,6,9.9375,0
35420,6.625,15,16.25,0
35440,9.8125,23.625,20,0
35460,10.875,23.1875,24.75,0
35480,10.75,31.125,29.375,0
35500,8.5,39.25,33.3125,0
35520,9.6875,27.75,31.375,0
35540,10.875,22.1875,31.125,0
35560,10.0625,20.625,30.375,0
35580,5.6875,24.875,22.5625,0
35600,-2.3125,28.75,18.625,0
35620,0.0625,33.125,17.125,0
35640,-0.875,21.1875,11.6875,0
35660,0.6875,8.375,9.8125,0
35680,-0.625,0.5,13.5625,0
35700,2.5625,0.3125,14.6875,0
35720,0.4375,-1.5625,16.625,0
35740,4.1875,-2.4375,19.1875,0
35760,2,-2.4375,18.75,0
35780,5.125,-8.5625,21.375,0
35800,6.5,-2.25,21.1875,0
35820,3.9375,-6.3125,16.875,0
35840,2.5625,-6.4375,12.625,0
35860,-5.6875,9.5,12.4375,0
35880,-2.4375,22.3125,8.75,0
35900,5.375,25.75,7.5,0
35920,3.1875,26.5625,10.5,0
35940,-3.4375,32,10,0
35960,2.3125,28.5625,12,0
35980,3.125,13.375,21,0
36000,-4.875,6.9375,30.0625,0
36020,0.8125,0.6875,37.375,0
36040,3.75,-10.6875,45.3125,0
36060,-1.4375,-16.5,49.75,0
36080,-4.5,-11.1875,45.9375,0
36100,-4.9375,-7.0625,34.1875,0
36120,-1.1875,-7.75,21.0625,0
36140,2.5625,-6.0625,10.25,0
36160,9.25,-2.3125,0.4375,0
36180,14.4375,-3.875,-6.5,0
36200,24.4375,-4.3125,-14.75,0
36220,29.625,-2.6875,-21.75,0
36240,37.125,-5.0625,-30.8125,0
36260,40.5625,-1.0625,-39.75,0
36280,44.0625,-2.8125,-51.3125,0
36300,46.1875,-11.6875,-58.625,0
36320,41.5625,-16.25,-56.4375,0
36340,34.8125,-7.625,-53.4375,0
36360,21.625,-3.125,-48.125,0
36380,12.375,-4.75,-36.5,0
36400,7.1875,-9.5625,-25,0
36420,13.4375,-13.375,-15.625,0
36440,15.625,-9.8125,-3.25,0
36460,3.1875,-1.8125,15.6875,0
36480,1.9375,9.75,28.875,0
36500,5.375,8.4375,31.375,0
36520,7.8125,6.0625,19.1875,0
36540,-3.375,9.625,6.4375,0
36560,-8.5,13.8125,-0.1875,0
36580,-7.125,20.1875,8,0
36600,7.8125,18.8125,18.5625,0
36620,11.8125,18,19.8125,0
36640,8.3125,-4.8125,16.4375,0
36660,16.0625,-30.875,23.75,0
36680,24.5,-21.125,21.5,0
36700,12.9375,12.3125,-8.125,0
36720,-5.625,33.0625,-21.8125,0
36740,1.8125,22,-18,0
36760,8.375,19.0625,-21,0
36780,17.5625,20.375,-28.625,0
36800,13.625,14.125,-23.1875,0
36820,10,13.25,-16.5,0
36840,4.5,14.1875,-12.5625,0
36860,-5.3125,15.6875,-10.9375,0
36880,-4.4375,7.0625,-3.125,0
36900,-2.0625,-8.4375,9.0625,0
36920,4.0625,-12.4375,14.125,0
36940,-0.6875,0.875,17.875,0
36960,9,16.75,36,0
36980,3,22.5625,45.1875,0
37000,-9.875,12.1875,19.6875,0
37020,-15.6875,-18.5625,12.3125,0
37040,1.5,-48.375,2.4375,0
37060,30.4375,-73.25,-9.0625,0
37080,39.3125,-58.5625,-15.5625,0
37100,39.125,-18.1875,-29.5,0
37120,39.25,0.75,-30.5625,0
37140,48.25,-3.5,-32.25,0
37160,115.125,-14.1875,-57.1875,0
37180,175.188,-6.1875,-64.25,0
37200,129.688,20.4375,-32.625,0
37220,74.8125,16.625,-8.75,0
37240,75.9375,9.625,-14.25,0
37260,91.4375,19.1875,-48.375,0
37280,97.9375,24.875,-72.3125,0
37300,48.1875,19.8125,-69.8125,0
37320,21.625,8.0625,-60.1875,0
37340,38.5,6.4375,-35.1875,0
37360,24.9375,4.125,-11.875,0
37380,1.5625,0.3125,15.5625,0
37400,-6.4375,-2.1875,27.75,0
37420,-0.6875,-7.125,36.6875,0
37440,-7.75,-15.5625,36.4375,0
37460,-20.4375,-12.25,34.625,0
37480,-13.625,-14.5625,33.3125,0
37500,-3.125,-17,20.3125,0
37520,-13.6875,-13,16.1875,0
37540,-12.8125,-18.125,4.8125,0
37560,-11.4375,-18.3125,5.5,0
37580,-5.1875,-26.4375,7.5625,0
37600,-10.9375,-27.75,5.0625,0
37620,-18.5625,-33.25,-0.5625,0
37640,-20.1875,-34.625,-3,0
37660,-17.8125,-40.625,-4.0625,0
37680,-22.4375,-40,1.0625,0
37700,-33,-32.125,5.75,0
37720,26.9375,17.875,-0.4375,0
37740,67.5625,3.25,-5.125,0
37760,69.5,-1.8125,-3.875,0
37780,43.125,23.125,-9.8125,0
37800,32.3125,25.1875,-24.5625,0
37820,14,21.75,-33.8125,0
37840,6,21.5625,-35.9375,0
37860,-5.25,21.75,-29.5625,0
37880,-7.875,17.6875,-23.1875,0
37900,1.5,17.625,-20.875,0
37920,4,20.0625,-16.25,0
37940,1.625,23.0625,-4.1875,0
37960,-9.625,29.5625,14.5,0
37980,-20.125,32.8125,36.25,0
38000,-24.6875,32.875,59.4375,0
38020,-21.125,29.25,74.75,0
38040,-12.625,29.9375,75.9375,0
38060,-19.6875,28.8125,75.375,0
38080,-24.25,22.8125,68.125,0
38100,-27.25,19.5625,55.6875,0
38120,-38.8125,13.9375,52.25,0
38140,-30.5,12.125,51.5625,0
38160,-35.4375,3.0625,62.4375,0
38180,-20.125,0.5,80.3125,0
38190,-12.375,-1.5,95,0
38210,-1.25,3.6875,106.938,0
38230,-3.4375,5.0625,115.75,0
38250,-4.75,2.8125,123.562,0
38270,-2.3125,-8.375,120.438,0
38290,7.5,-11.375,111.812,0
38310,6.5,-11.5625,92.0625,0
38330,9.375,-15.375,71.0625,0
38350,13.4375,-14,48.3125,0
38370,12.5,-12.125,32.1875,0
38390,9.625,-9.6875,16.5625,0
38410,9.875,-8.25,3.4375,0
38430,10.125,-6.3125,-0.5625,0
38450,6.5625,-6.5,2.5625,0
38470,-0.375,-4.8125,15.5,0
38490,0.25,-7.375,33.5,0
38510,3.625,-12.3125,45.1875,0
38530,-2.75,-15,55.5,0
38550,-13,-12.8125,58.375,0
38570,0.9375,-0.125,44.5625,0
38590,24.375,-2.1875,32.6875,0
38610,21.625,-6.25,10.125,0
38630,4.0625,-0.9375,-10.6875,0
38650,-7.6875,5.8125,-17.5625,0
38670,1.3125,8.8125,-34.1875,0
38690,-4.4375,12.875,-44.3125,0
38710,-8.125,11.625,-24.625,0
38730,3.125,10.3125,-4.875,0
38750,1.0625,-0.3125,9.1875,0
38770,16.375,-18.1875,35.6875,0
38790,28.6875,-23,39.3125,0
38810,23.9375,-24.75,36.4375,0
38830,12.3125,-29.625,34.1875,0
38850,18.625,-24.25,27.375,0
38870,41.5625,-10.75,7.6875,0
38890,28.8125,-3.25,-8.0625,0
38910,19.125,5.6875,6.125,0
38930,19.875,16,-22.375,0
38950,22.25,18.25,-31.4375,0
38970,1.4375,29.875,-35.125,0
38990,-1.5,30.125,-36.5,0
39010,7.6875,32.3125,-62.25,0
39030,18.5625,54.875,-112.375,0
39050,-21.8125,66.6875,-135.188,0
39070,-25.0625,53.1875,-140.188,0
39090,0,59.5,-147.062,0
39110,21.5625,74.875,-171.312,0
39130,-33.3125,73.0625,-159.5,0
39150,-33.9375,66,-142.938,0
39170,-37.6875,58.3125,-136.188,0
39190,-34.1875,33.9375,-114.312,0
39210,-5.25,13.125,-101,0
39230,-18.5,16.3125,-99.5625,0
39250,-58.6875,13.3125,-60.6875,0
39270,-44.3125,-11.25,-32.5,0
39290,-13.625,-19.6875,-50.5625,0
39310,8.3125,-27.3125,-47,0
39330,3.375,-47.5,-19.9375,0
39350,-11.8125,-64.625,-6,0
39370,1.1875,-82.0625,8.5625,0
39390,10.9375,-93.6875,21.0625,0
39410,26.625,-95.3125,28.0625,0
39430,33.25,-97.9375,33.9375,0
39450,38.0625,-84.25,28.25,0
39470,23.875,-72.5625,20.375,0
39490,22,-71.25,21.9375,0
39510,45.1875,-66.0625,22.9375,0
39530,59.3125,-20.75,13.1875,0
39550,47.5625,52.8125,-30.4375,0
39570,-1.3125,80.8125,-70,0
39590,-17.4375,34.125,-48.5,0
39610,23.5,-12.625,-26.9375,0
39630,67.9375,-23.3125,-18,0
39650,53.875,-33.375,-3.3125,0
39670,23.0625,-35.8125,12.625,0
39690,5.0625,-7.75,-9.375,0
39710,19.25,-6.5625,-12.4375,0
39730,21.5,-14.75,2.4375,0
39750,12.6875,-19.6875,11.5625,0
39770,5.75,-16.3125,6.25,0
39790,7.3125,-15.5625,-6.5625,0
39810,6.375,-22.9375,-14.9375,0
39830,-0.875,-28.875,-17,0
39850,-2.5,-26.8125,-17.25,0
39870,-0.0625,-26.125,-17.125,0
39890,-0.25,-19.875,-17.0625,0
39910,-2.875,-9.4375,-19.9375,0
39930,1.9375,-7.1875,-27.375,0
39950,2.875,-3.375,-27.5,0
39970,-5.375,12.4375,-23.5,0
39990,-13.75,24.3125,-23.375,0
40010,-17.375,27.875,-29.1875,0
40030,-20.5625,25.375,-30.6875,0
40050,-15.3125,18.125,-30.75,0
40070,-7.8125,9.5,-28.5625,0
40090,-13.25,1.125,-20.75,0
40110,-20.75,-4.5625,-18.3125,0
40130,-24.4375,-11.375,-14.5625,0
40150,-17.625,-21.0625,-15.0625,0
40160,-14.875,-25.3125,-17.0625,0
40180,-19.25,-34.25,-16.375,0
40200,-19.0625,-39.5625,-13.75,0
40220,-24.625,-21.625,-19.4375,0
40250,-9.125,26.5,-2.125,0
40270,1.125,41.875,11.875,0
40290,9.375,53.4375,21.3125,0
40310,22.75,53.375,34.1875,0
40330,24.8125,48.0625,45.625,0
40350,-2.1875,58.4375,55.3125,0
40370,-13.5,68.3125,39.9375,0
40390,-22.875,57.0625,35.3125,0
40410,-9.0625,23.8125,49.8125,0
40430,-0.3125,-1.875,53.9375,0
40450,5.5625,-17,48.8125,0
40470,9.0625,-19.8125,38.8125,0
40490,0.9375,-16.5,28,0
40510,-13.125,4.0625,25.6875,0
40530,-12.0625,11.375,22.375,0
40550,-5,13.9375,17.1875,0
40570,21.8125,15.3125,22.625,0
40590,16.25,11.75,26.5625,0
40610,15.8125,4.9375,20.3125,0
40630,15.875,-2.875,11.8125,0
40650,19.1875,-12.1875,5.6875,0
40670,17.5,-1.75,10.375,0
40690,25.375,-0.8125,6.5625,0
40710,16.75,-14.5625,-1.375,0
40730,6.75,-31.4375,-9.9375,0
40750,0.25,-46.625,-16,0
40770,8.75,-33.875,-35,0
40790,1.625,-36.1875,-47.75,0
40810,2.1875,-44.25,-47.5,0
40830,13.875,-37.5,-39.6875,0
40850,29.6875,-42.3125,-26.875,0
40870,8.125,-35.25,-22.9375,0
40890,-5.6875,-23.5625,-11.625,0
40910,-15.9375,10.8125,-31.4375,0
40930,-17.375,4.9375,-11.5,0
40950,5.4375,5.375,22.375,0
40970,6.125,20.625,26.4375,0
40990,17.3125,14,41.4375,0
41010,21.125,-2.25,54.6875,0
41030,13.8125,3,49.8125,0
41050,10.8125,-2.625,28.3125,0
41070,12.8125,-16.375,12.125,0
41090,26.0625,-21.5,-4.4375,0
41110,30.125,-13.875,-24.3125,0
41130,14.8125,4.375,-37.9375,0
41150,3.8125,7.625,-37.5,0
41170,7.5,7.1875,-33.0625,0
41190,19.875,17.0625,-23.5,0
41210,23.75,21.375,-3.375,0
41230,16.625,15,20.625,0
41250,11.8125,7.125,21.75,0
41270,9.3125,6.9375,26.75,0
41290,7.5,15.625,35.75,0
41310,1.875,23.375,30.9375,0
41330,-4.0625,18.875,11.4375,0
41350,-1.125,12.8125,-7.0625,0
41370,14,4.125,-17.375,0
41390,15.1875,-2.75,-19.5625,0
41410,-1.6875,1.75,-16.8125,0
41430,-7,-6.25,-22.3125,0
41450,0.1875,-16.125,-18.375,0
41470,3.5625,-4.3125,-8.8125,0
41490,-12,-3.9375,-1.4375,0
41510,-23.3125,-0.125,-5.25,0
41530,-5.25,10.9375,-7.0625,0
41550,10.1875,19.8125,-15,0
41570,-11.125,13.4375,-26.75,0
41590,-25.6875,-0.9375,-13.8125,0
41610,-11.75,-7.5,-13.125,0
41630,-4.5,-3.75,-18.125,0
41650,-19.875,7.25,-22.875,0
41670,-29.5625,10.5,-22.5625,0
41690,-19.875,13.3125,-21.6875,0
41710,-10.1875,9.8125,-23,0
41730,-12.8125,1.6875,-19.625,0
41750,-20.625,-0.9375,-21.375,0
41770,-28.4375,-10.4375,-36.25,0
41790,-33.9375,-17.4375,-22.9375,0
41810,-33.4375,-10.75,-16.25,0
41830,-43.875,-29.4375,-13.625,0
41850,-35.4375,-27.6875,-19.6875,0
41870,-14.1875,-23.375,-24.75,0
41890,5,-24.875,-18.5,0
41910,-18.1875,1.4375,-11.375,0
41930,-27.8125,16.0625,-6.9375,0
41950,-22.6875,0.5625,-12.4375,0
41970,-14.125,-14.9375,-12.5625,0
41990,-14.3125,-7.6875,-21.5625,0
42010,-36,-5.4375,-42.3125,0
42030,-43.25,9.5,-57.5625,0
42050,-50.0625,29.4375,-50.25,0
42070,-41.8125,54.375,-40.125,0
42090,-40.5625,97.5,-17.5625,0
42110,-8.6875,113,-19.1875,0
42130,-33.625,160.25,-31.9375,0
42150,-60.3125,100.875,7.4375,0
42170,-42.375,7,74,0
42190,27.125,-38.9375,109.75,0
42210,89.875,-41.1875,111.75,0
42230,44.75,-18.875,141.938,0
42250,-12.125,7,146.562,0
42270,-3.5,8.75,133.375,0
42290,42.3125,-14.5625,109,0
42310,63.5625,-27.75,73.625,0
42330,36.125,-40.1875,92.4375,0
42350,18.9375,-32.0625,41.875,0
42370,22.9375,-34.5625,3.5625,0
42390,31.4375,-48.5625,-0.75,0
42410,31.9375,-63.25,18,0
42430,13.5625,-34.5,-24.6875,0
42450,-19.0625,-21.375,-7.875,0
42470,-3.875,-17,1.5,0
42490,13.8125,-16.875,-3.75,0
42510,18.3125,-12.6875,-3.875,0
42530,3.0625,-7.875,21.25,0
42550,-8.4375,-3.375,26.9375,0
42570,3.5,-15.5625,29.25,0
42590,11.6875,-28.9375,28.5,0
42610,4.3125,-44.75,34.875,0
42630,-4.125,-48,39.8125,0
42650,1.625,-53.5,35.875,0
42670,10.75,-43.375,30.75,0
42690,3.6875,-5.625,22.5,0
42710,-4.6875,-1.25,-2.8125,0
42730,-4.75,2.75,-26.375,0
42750,5.3125,10.1875,16.4375,0
42770,19.625,13.625,38.4375,0
42790,-3.5,10.8125,28.3125,0
42810,14.5625,8.4375,29.9375,0
42830,-5.6875,-0.625,36.3125,0
42850,9.25,6.5,47.1875,0
42870,18,-0.3125,50.625,0
42890,28.5625,-10.125,48.1875,0
42910,28,-7.4375,35.625,0
42930,14.3125,-2,31.75,0
42950,13.3125,-3.25,33.75,0
42970,17.25,-11.125,43.3125,0
42990,25.5,-24.0625,52.125,0
43010,26.25,-30,54.6875,0
43030,15.8125,-19.4375,56.625,0
43050,0.1875,-3.1875,41.875,0
43070,-36.8125,13.6875,-8.8125,0
43090,-51.125,52.25,-64.125,0
43110,-43.9375,85.5625,-93.5,0
43130,-4.1875,98.0625,-106.438,0
43150,12.6875,91.4375,-111.375,0
43170,9.1875,79.9375,-114.875,0
43190,0.125,68.9375,-128.812,0
43210,5.8125,53.3125,-144.375,0
43230,17.5625,49.125,-155.438,0
43250,20.3125,44.1875,-161.188,0
43270,7,15.1875,-158.938,0
43290,-5.5625,-10.875,-154.438,0
43310,2.1875,-37.4375,-143.625,0
43330,-10.4375,-57.125,-147.938,0
43350,-35.1875,-70.125,-145.25,0
43370,-52.5625,-86.5625,-116.25,0
43390,-43.25,-91.5,-78.75,0
43410,-32.5625,-108.688,-44.875,0
43430,-32.75,-117.188,-19.1875,0
43450,-31.25,-94.625,-2.3125,0
43470,-28.6875,-63.0625,19.75,0
43490,-23.1875,-28.875,48.4375,0
43510,-10.5625,3.0625,64,0
43530,-19.3125,31.875,62.75,0
43540,-11.25,24.25,51.8125,0
43560,-13.6875,19.5625,37.5,0
43580,-18.1875,13.3125,31.3125,0
43600,-19.0625,11.125,23.5625,0
43620,-29.5625,2.125,3.3125,0
43640,-20.9375,-7.875,11.4375,0
43660,-9,-13.375,13.25,0
43680,-10.75,-11.0625,8.875,0
43680,-27.4375,-2.25,15.625,0
43700,-21.6875,-5.8125,24,0
43710,-9.875,-5.8125,22,0
43730,-8.6875,-9.75,21.0625,0
43750,2.6875,-32.1875,30.75,0
43760,8.1875,-26.8125,21.0625,0
43780,0.875,-22.4375,8.9375,0
43800,-8.25,-21.8125,4.6875,0
43820,-0.875,-24.9375,-1.6875,0
43840,29.25,-27.9375,-11.3125,0
43860,16.5,-43.6875,-14.25,0
43880,15.625,-51.5,-24.625,0
43900,26.5625,-60.625,-39.3125,0
43920,21.3125,-63.9375,-50,0
43940,12.3125,-65.8125,-51.9375,0
43960,5.125,-57.375,-57.875,0
43960,0.3125,-35.1875,-50.75,0
43960,-13.625,4.3125,-25.25,0
43980,3.1875,42.6875,53.5,0
43980,10.5625,46.4375,65.3125,0
43990,7.0625,86.75,18.375,0
44010,-2.5,77.9375,10.375,0
44030,-4.8125,46.1875,8.625,0
44050,-2.6875,23.625,3.75,0
44070,-2.0625,17.0625,-3.8125,0
44090,-1.6875,12.375,-6.9375,0
44110,-4.1875,6.125,3.375,0
44130,0.25,4,4.875,0
44150,1.1875,-14.375,1.5625,0
44170,9.75,-21.125,1.125,0
44190,10.625,-10.875,-7.5625,0
44210,10.9375,-16.0625,-23.4375,0
44230,13,-40.4375,-22.1875,0
44250,13.5,-44.8125,-18,0
44270,21.25,-44.625,-28.25,0
44290,14.25,-49.0625,-34.875,0
44310,3.375,-34.4375,-29.875,0
44340,17.6875,32.5,47.375,0
44380,7.5,34.8125,-3.4375,0
44440,-0.5625,13.625,-12.5625,0
44460,8.9375,13.9375,-6.4375,0
44480,11.375,-6.125,-0.6875,0
44500,18.75,-28.5,-10.25,0
44510,18.5625,-27.4375,-21.1875,0
44600,109.812,194.688,104.875,0
44640,165.688,228.125,184,0
44670,184.625,274.375,302.625,0
44690,173.125,260.562,317.875,0
44710,151.688,241.688,328.562,0
44730,147.25,216,318.438,0
44740,139.125,186.062,302.062,0
44770,132.562,160.188,272.562,0
44790,135.062,141.875,257.562,0
44810,100.375,135.125,229.5,0
44830,82.0625,121.062,222.75,0
44850,45.9375,106.125,230.688,0
44870,38.9375,74.1875,241.562,0
44890,44.75,55.625,240.438,0
44910,16.5625,50.5625,245.062,0
44930,-9.125,41.0625,245.25,0
44940,11,28.9375,218.062,0
44960,5.625,18.625,194.625,0
44980,6.25,11.8125,177.375,0
45000,4.375,0.875,148.25,0
45020,19.5,20.1875,75.125,0
45040,69.5625,26.875,-39.25,0
45060,137.188,14.625,-95.8125,0
45080,123.625,23.125,-77.5,0
45100,120.125,7.75,-28.625,0
45120,45.1875,2,3.75,0
45140,-21.1875,19.1875,23.625,0
45160,-39.5,27.9375,16.3125,0
45180,-15.625,25.625,-5.5625,0
45200,21.25,24.6875,-13.125,0
45220,29.1875,22.8125,-6.5,0
45240,19.8125,20.75,-1.0625,0
45260,-2.75,23.9375,0.9375,0
45280,-14.75,29.5,-9.1875,0
45300,-1.6875,33.125,-19.0625,0
45320,19.4375,30.1875,-12.6875,0
45340,30.3125,29.6875,-2.8125,0
45360,24.8125,30.0625,-2.3125,0
45380,7,32.75,-1,0
45400,-8.625,33.4375,1.0625,0
45420,-10.4375,32.25,2.375,0
45440,-8.6875,29.6875,5.75,0
45460,-11.25,29.1875,7.4375,0
45480,-14.6875,25.625,6.75,0
45490,-16.4375,21.75,8.25,0
45510,-11.5625,17.25,5.4375,0
45530,-8.875,10.0625,4.3125,0
45550,-14.125,2.6875,6.1875,0
45570,-23.3125,-3.625,9.0625,0
45590,-31.75,-9.1875,11.875,0
45610,-35.625,-9.875,11.9375,0
45630,-29.3125,-12,13.25,0
45650,-24.5625,-12.875,14.8125,0
45670,-25.6875,-12.1875,13.1875,0
45690,-25.1875,-12.4375,7.875,0
45710,-25.75,-14.6875,-0.4375,0
45730,-15.5625,-18,-3.1875,0
45750,2,-24.0625,-4.375,0
45770,14.25,-29.8125,-4.9375,0
45790,16.25,-28.9375,-6.0625,0
45810,11.75,-27.125,-5.8125,0
45830,6.625,-23.0625,-3.25,0
45850,0.75,-17.75,-0.5625,0
45870,-3.6875,-13,-1.4375,0
45890,-5.5625,-12.375,-4.125,0
45910,-5.6875,-15.375,-5.25,0
45930,-6.75,-17.25,-2.25,0
45950,-5.8125,-12.5625,1.8125,0
45970,-9.375,-5.3125,4.5,0
45990,-13.1875,3.6875,2.5625,0
46010,-10.5625,9.625,-0.5,0
46030,-4.4375,12.75,-2.875,0
46050,1.5,13.5625,-3.8125,0
46070,4.875,12.875,-5.875,0
46090,7.125,9.875,-10.0625,0
46110,10.125,5.4375,-11.875,0
46130,12.375,1.1875,-11.5625,0
46150,10.3125,-1.75,-10.5625,0
46170,3.8125,-1.6875,-9.8125,0
46190,-2.375,0.0625,-7.6875,0
46210,-5.625,2.4375,-5.25,0
46230,-6.9375,4.875,-2.6875,0
46250,-6.6875,7.3125,-1.9375,0
46270,-4.3125,8.875,-2.0625,0
46290,-2.6875,8.4375,-2.4375,0
46310,-2.0625,7.4375,-2.6875,0
46330,-0.8125,6.3125,-3.625,0
46350,-1.25,5.25,-4.875,0
46370,-2.3125,4.3125,-4.875,0
46390,-2.6875,4.0625,-5.375,0
46410,-2.125,4,-5.75,0
46430,-1.5625,3.5,-5.875,0
46450,-0.9375,3.1875,-6.3125,0
46470,1.6875,2.8125,-7.5,0
46490,6.8125,2.5625,-8.3125,0
46510,11.1875,1.625,-8.75,0
46530,12.3125,1.375,-8.25,0
46550,14.375,0.875,-8.9375,0
46570,17.625,0.9375,-10.3125,0
46590,20.625,0.4375,-9.875,0
46610,21.6875,-0.625,-8.6875,0
46630,17.875,-1.875,-7.75,0
46650,10.75,-2.75,-6.4375,0
46670,6.1875,-4,-5.125,0
46690,2.5625,-6,-2.125,0
46710,1.3125,-5.0625,-0.0625,0
46730,-3.0625,-3.25,1.125,0
46750,-6.625,-1.0625,2.0625,0
46770,-7.8125,0.25,1.5625,0
46790,-6.4375,1.875,1.0625,0
46810,-5.25,2.25,-0.1875,0
46830,-5,2.3125,-0.4375,0
46850,-3.0625,2.6875,-1.625,0
46870,-0.4375,2.4375,-2.8125,0
46890,3,2.0625,-4,0
46910,7.875,1.5,-5.375,0
46930,11.4375,1.625,-7.0625,0
46950,12.8125,1.0625,-6.875,0
46970,15.1875,0.625,-6.25,0
46990,16.25,-0.4375,-6,0
47010,16.8125,-1.5625,-5.5,0
47030,14.625,-1.75,-5.0625,0
47050,11.375,-3.1875,-4.8125,0
47070,9.6875,-4.125,-3.125,0
47090,9.4375,-5.5,-2.5625,0
47110,9.5,-8.1875,-1.375,0
47130,9.875,-10.75,1.3125,0
47150,8.25,-12.3125,1.9375,0
47170,7.8125,-14.0625,4.5625,0
47190,7.5,-17.5625,6.4375,0
47210,7.125,-18,8.25,0
47230,7.9375,-17.875,10.625,0
47250,5.625,-17.5625,10.4375,0
47270,4.5,-17.125,10.4375,0
47290,4.375,-16,9.0625,0
47310,4.4375,-14.25,7,0
47330,1.375,-12.375,5.5625,0
47350,-0.75,-10.25,3.5625,0
47370,-2.5,-8.8125,1.5,0
47390,-0.8125,-6.3125,-0.75,0
47410,-0.625,-3.9375,-1.875,0
47430,-2.875,0.1875,-3.875,0
47450,-4.0625,2.875,-3.9375,0
47470,-4.3125,4.6875,-2.5625,0
47490,-4.0625,6.125,-0.6875,0
47510,-1.25,7.3125,2.0625,0
47530,1,9.25,4.125,0
47550,0.75,9.625,4,0
47570,1.6875,11.5,3.9375,0
47590,-3.3125,10.1875,3.875,0
47610,-7,6.1875,1.625,0
47630,-7.0625,2,-0.9375,0
47650,-3.1875,-3.1875,-3.5625,0
47670,2.5625,-4.8125,-8.0625,0
47690,5.9375,-4.125,-7.25,0
47710,1.5,-5.5,-7,0
47730,5.6875,-5.1875,-9.875,0
47750,17.5625,-5.8125,-7.625,0
47770,20.0625,-6.1875,-8.9375,0
47790,13.125,-6.0625,-8.5625,0
47810,12.4375,-5.75,-5,0
47830,11.3125,-8.5,-2.0625,0
47850,-0.5,-11.625,1.3125,0
47870,-20.9375,-13.625,2.375,0
47890,-31.375,-11.6875,0.5625,0
47910,-32.4375,-11.1875,0.25,0
47930,-26.8125,-14.5,0.6875,0
47950,-32.8125,-18.3125,1.875,0
47970,-38.6875,-20.875,4.375,0
47990,-43.875,-25.5,8.4375,0
48010,-35.8125,-30.3125,11.875,0
48030,-27.875,-32.375,14.375,0
48050,-25.6875,-32.25,14.375,0
48070,-23.3125,-27.5625,10.8125,0
48090,-16.5625,-22.625,7.9375,0
48110,-8.25,-17.5625,7,0
48130,-5.0625,-13.625,6.5625,0
48150,-3.9375,-9.4375,3.5625,0
48170,-2.625,-5.5625,0.125,0
48190,-2.5,-1.5,-1.6875,0
48210,-4.5,1.5,-2.5,0
48230,-5.125,4.4375,-2.4375,0
48250,-3.4375,6.1875,-2.5625,0
48270,-3.5,8.375,-5.0625,0
48290,-0.625,13.75,-9.1875,0
48310,9.9375,18.625,-11.4375,0
48330,13.6875,23.8125,-9.8125,0
48350,17.375,23.5,-6.125,0
48360,16.8125,20.875,-5.75,0
48380,20.6875,17.75,-6.5,0
48400,23.375,15.625,-6.1875,0
48420,19.1875,15.1875,-5.6875,0
48440,17.125,18.875,-5.0625,0
48460,21.8125,22,-4.6875,0
48480,25.3125,21,-3.8125,0
48500,22.3125,19.1875,-2.3125,0
48520,20.75,18.625,-1.375,0
48540,18.625,16.375,-0.5,0
48560,12.25,12.625,0.3125,0
48580,4.6875,9.4375,2.375,0
48600,-2.25,7.875,3.6875,0
48620,-3.5,7.375,2.0625,0
48640,-3,6.6875,1.25,0
48660,-2.4375,4.875,1.4375,0
48680,-1.125,2.8125,0.1875,0
48700,0.25,0.9375,-1.75,0
48720,2.1875,0.25,-3.125,0
48740,5.625,2.0625,-5,0
48760,8.25,3.75,-6.4375,0
48780,11.3125,3.4375,-7.125,0
48800,12.375,3.4375,-7.6875,0
48820,13.3125,3.75,-8.125,0
48840,13.25,3.3125,-8.3125,0
48860,11.875,2.625,-7.5625,0
48880,9.25,2.25,-5.75,0
48900,8.1875,2.5625,-4.625,0
48920,7.875,2.1875,-3.1875,0
48940,5.4375,1.875,-2.25,0
48960,3.75,1.25,-1.0625,0
48980,1.0625,0.875,0.4375,0
49000,-3.1875,0.3125,2.8125,0
49020,-6.9375,-1.375,5.9375,0
49040,-15.5,-7.6875,10.9375,0
49060,-30.625,-20.6875,22.875,0
49080,-33.9375,-21.0625,31.5625,0
49100,-25.3125,-16.4375,23.8125,0
49120,-38.9375,-9.125,16.125,0
49140,-56.5625,-6.9375,17.8125,0
49160,-59.8125,-10.1875,17,0
49180,-52.8125,-8.4375,10.5625,0
49200,-35,-5.75,6.875,0
49220,-15.625,-2.1875,5.625,0
49240,-2.1875,3.25,0.1875,0
49260,14.5,8.5,-8.4375,0
49280,29.375,12.375,-11.375,0
49300,36.625,14.8125,-12.1875,0
49320,38.875,20,-13.1875,0
49340,35.625,18.6875,-9.9375,0
49360,37.125,16.8125,-8.625,0
49380,41.375,16,-11.125,0
49400,43.4375,16.125,-14.4375,0
49420,43.875,15.75,-13.1875,0
49440,32.5625,12.6875,-9.5,0
49460,23,11.3125,-7.3125,0
49480,19.375,10.4375,-9.3125,0
49500,16.8125,7.75,-10.625,0
49520,9,6.5625,-4.875,0
49540,5.0625,6.4375,-2.125,0
49560,-4.0625,2.8125,-1,0
49580,-8.6875,-0.5,2.3125,0
49600,-12.375,-3.5,5.9375,0
49620,-21.5,-8.5,10,0
49640,-28.3125,-11.25,15.5625,0
49660,-39.0625,-13.4375,18.25,0
49680,-44.9375,-17.125,22.9375,0
49700,-58.5,-24.25,24.8125,0
49720,-75.6875,-26.5,22.1875,0
49740,-94,-24.9375,18.4375,0
49760,-93.25,-25.875,23.4375,0
49780,-91.125,-26.3125,27.1875,0
49800,-88.125,-21.9375,25.8125,0
49820,-86.5625,-21.125,25.375,0
49840,-75.625,-19.25,20.8125,0
49860,-60.375,-14.4375,17.875,0
49880,-44.1875,-8.875,14.875,0
49900,-29,-4.3125,10,0
49920,-25.375,2.3125,5.9375,0
49940,-17.5625,11.625,6.375,0
49960,-9.625,15.9375,12.25,0
49990,19.5,26.0625,10.375,0
50010,27.8125,31.1875,14.25,0
50030,20.625,30.3125,16.8125,0
50050,6.75,27.5,11.75,0
50070,3.375,18.625,8.625,0
50090,6.25,10.625,5.5,0
50110,8.375,8.5625,5.9375,0
50130,-3.25,7.375,8.25,0
50150,-14.0625,8.0625,8.875,0
50170,-17.4375,5.125,9.6875,0
50190,-21.375,2.25,10.1875,0
50210,-19.4375,0.75,7.125,0
50230,-11.0625,0.1875,4.3125,0
50250,-5.25,2.375,3.3125,0
50270,-4,3.4375,4.375,0
50290,-9.5625,1.8125,4.0625,0
50310,-11.75,1,4.5625,0
50330,-12.875,3.1875,2.9375,0
50340,-12.5,5.6875,2.8125,0
50360,-13.0625,8.9375,2.8125,0
50380,-11.4375,9.1875,3.25,0
50400,-3.75,10.3125,1.875,0
50420,9.3125,11.8125,0.625,0
50440,21.5,12.25,-0.25,0
50460,24.625,11.75,0.1875,0
50480,19.5625,12.0625,2.6875,0
50500,7.4375,12.5,8,0
50520,-8,10.875,12.9375,0
50540,-15.5625,9.9375,15.4375,0
50560,-4.375,8.375,10.4375,0
50580,9.4375,11.4375,6.625,0
50600,17.1875,10.1875,3.875,0
50620,7.3125,5.8125,8.375,0
50640,0.75,2.125,5.375,0
50660,-5,-1.0625,5.625,0
50680,-13.875,-3.4375,6.1875,0
50700,-12.25,2.3125,0.625,0
50720,1.125,-0.375,-4.6875,0
50740,-4.375,3.3125,-2.625,0
50760,-24.25,0.75,9.9375,0
50780,-23.375,-7.0625,11.125,0
50800,-10.9375,-5.8125,5.5,0
50820,4.9375,-6.25,-2.5,0
50830,15.375,-3.4375,-5.5625,0
50850,22.3125,-6.3125,-4.75,0
50860,8.5625,-5.6875,-4.6875,0
50880,-11.625,-5.125,-5.25,0
50920,-34.1875,-14.6875,38.8125,0
50940,-17.1875,11,-18.0625,0
50940,15.25,4.375,-34.1875,0
50950,43,-6.9375,-11.9375,0
50970,27.125,-10.9375,2.625,0
50990,28.5,-5.4375,0.375,0
51010,29.6875,-6.4375,-7.9375,0
51030,40.0625,-2.125,-9.0625,0
51050,39.5,-0.875,-8.3125,0
51070,34.6875,-3.625,-6.625,0
51090,20.1875,-1.4375,-4.625,0
51110,14.9375,-1.5625,-5,0
51130,19.375,-3.25,-7.8125,0
51150,28.5625,-2.5625,-8.9375,0
51170,31.5625,-2.0625,-8.0625,0
51200,3,1.75,-5.0625,0
51220,4.125,1,-3.125,0
51240,10.375,0.125,-2.5,0
51260,11.625,0.8125,-2.75,0
51290,16.3125,-0.875,-7.3125,0
51310,18.0625,-1.0625,-8.1875,0
51330,23.9375,-1.5625,-9.375,0
51350,32.75,-1.375,-11.375,0
51370,43.9375,-1.5625,-13.9375,0
51390,54.5625,-1.9375,-16.75,0
51410,62.0625,-3.25,-18.375,0
51430,58.8125,-5.1875,-18.4375,0
51450,39.9375,-6.375,-17.1875,0
51470,15.625,-8.1875,-14,0
51490,-0.4375,-11.25,-12.8125,0
51510,-9.625,-14.4375,-10.875,0
51530,-30.3125,-21.25,-3.6875,0
51550,-56.6875,-26.4375,0.5,0
51570,-75.3125,-29.75,2.6875,0
51590,-77.1875,-34.8125,1.5,0
51610,-51.375,-40.5625,-0.6875,0
51630,-26.375,-39.4375,0.1875,0
51650,-3,-37.4375,-7.375,0
51670,18.125,-32.125,-9.125,0
51690,29.875,-22.25,-9.25,0
51710,38.5625,-13.8125,-13.125,0
51730,46.8125,-8.6875,-17.25,0
51750,54.625,-6.1875,-18.0625,0
51770,47.6875,-3.125,-18.0625,0
51790,47.125,-0.8125,-18.5625,0
51810,48.5625,0.5625,-19.1875,0
51830,39.625,0.75,-17.3125,0
51850,27.0625,1.0625,-13.25,0
51870,27.625,-4.5,-13.5,0
51890,30.1875,-19.1875,-15.75,0
51910,13,-27.3125,-12.9375,0
51930,-7.8125,-32.3125,-3.3125,0
51950,-24.1875,-37.125,9.4375,0
51970,-19.0625,-39.9375,21.3125,0
51990,-2.5625,-35.9375,19.0625,0
52010,3.625,-34.375,7.625,0
52030,1.1875,-31.5625,10.3125,0
52050,-1.75,-26.625,14.9375,0
52070,-5.3125,-19,14.0625,0
52090,-0.625,-12.4375,11.3125,0
52110,1.3125,-7.5,5,0
52130,6.125,1.375,-1.8125,0
52150,13.9375,11.5,-3.75,0
52170,13.75,22.0625,-3.5625,0
52190,6.5,30.1875,-4.75,0
52210,5.6875,31.1875,-10.0625,0
52230,12.25,26.5,-16.875,0
52250,20.8125,22.75,-21.8125,0
52270,28.375,18.875,-22.375,0
52290,27.5625,16.625,-19.5625,0
52310,23.4375,15.5625,-16.75,0
52330,20.875,15.375,-15.625,0
52350,20.8125,15.1875,-13.6875,0
52370,21.625,15.3125,-14.25,0
52390,20.1875,15,-15.875,0
52410,20.9375,12.5,-14.0625,0
52430,24.4375,8.5,-12.125,0
52450,26.0625,5.625,-10.1875,0
52470,23.3125,2.9375,-9.9375,0
52490,14.0625,-0.3125,-12.6875,0
52510,7.3125,-4.6875,-15.375,0
52530,8,-11.875,-12.875,0
52550,11,-16.375,-9.125,0
52570,11.1875,-15.8125,-8.4375,0
52610,2.25,-12.3125,-13.125,0
52630,5.0625,-13.0625,-11.75,0
52650,13.4375,-12.875,-9,0
52670,17.875,-11.5,-4.4375,0
52690,14,-10.875,1.5,0
52710,8.75,-10.1875,7.125,0
52730,3,-8.8125,10.4375,0
52750,-2.75,-4.5,11.3125,0
52770,-6.875,0,10.625,0
52790,-8.25,3.5625,8.3125,0
52810,-6.625,4.6875,6.0625,0
52830,-2.625,3.9375,5.5625,0
52850,-1.6875,-1.25,0.625,0
52870,-4.875,-4.9375,-2.9375,0
52890,-4.25,-0.125,-1.625,0
52910,-1.3125,6.6875,0.75,0
52930,13.375,9.375,2.6875,0
52950,30.6875,4.125,-0.3125,0
52970,44.4375,-5.8125,-9.375,0
52990,65.25,-6,-18.125,0
53010,112.812,13.875,-58.5,0
53030,142.562,34.25,-95.3125,0
53050,128.938,41.5625,-107.375,0
53070,99.375,23.875,-93.125,0
53090,55.625,3.5625,-69.5625,0
53110,38.8125,-20.5,-60,0
53130,10.9375,-35.875,-66.8125,0
53150,-16.6875,-54.8125,-69.375,0
53170,-28.5625,-58.1875,-66.125,0
53190,-19.9375,-57.6875,-63.125,0
53210,-5.375,-57.8125,-59.125,0
53230,13.375,-60.8125,-53.0625,0
53250,3.375,-59.125,-51.875,0
53270,-10.75,-55.8125,-44.0625,0
53290,-15.6875,-51.375,-37.1875,0
53310,-10.8125,-47.125,-33.0625,0
53330,-1.1875,-45.375,-27.625,0
53350,9.5,-41.125,-21,0
53370,16.4375,-31.1875,-10.625,0
53390,15.8125,-22,1.9375,0
53410,14.5,-12,9.375,0
53430,0.125,6.125,26.9375,0
53440,-8.3125,19.75,43.6875,0
53460,-14,24.875,60.875,0
53480,1,29.9375,77.25,0
53500,26,50.5,68.625,0
53520,31.5,44.9375,50.375,0
53540,37.9375,48.25,43.3125,0
53560,29.75,63.75,35.625,0
53580,49,60.5625,19.9375,0
53600,45.875,66.375,14.625,0
53620,16.6875,33.6875,0.9375,0
53640,-12.625,13.625,-7.125,0
53660,-9.625,13,-2.1875,0
53680,7.125,7.875,-4.5625,0
53700,7.1875,12.0625,-5.875,0
53720,4.875,23.75,-4.8125,0
53740,2.25,36.5625,-2.4375,0
53760,1.625,46.75,2.5625,0
53780,1.9375,54.375,6.0625,0
53800,-7.875,66.875,22.125,0
53820,-21.5625,76.3125,38.3125,0
53840,-42.25,74.5,55.5,0
53860,-65.75,76.3125,78.5,0
53880,-97.9375,82.25,111.438,0
53900,-127.25,63.3125,74.25,0
53920,-85.8125,-15.3125,-5.25,0
53940,-14.25,-55.125,-63.6875,0
53960,35,-45.6875,-42.5625,0
53980,65.3125,-34.0625,2.875,0
53990,17.3125,-17.25,26.25,0
54010,-37.0625,-4.3125,40.25,0
54030,-56.375,5.25,38.875,0
54050,-62.5,5.8125,20.6875,0
54070,-47.625,-0.625,-0.375,0
54090,-14.3125,0,-15.5,0
54110,22.25,7.3125,-16.75,0
54130,49.625,14.4375,-7.625,0
54150,54.6875,18.3125,2.625,0
54170,48.875,20.1875,0.625,0
54190,31,17.875,-5.8125,0
54210,6.8125,14.75,-11,0
54230,-8.5625,13.25,-11.875,0
54250,-13.25,12.5,-10.0625,0
54270,-9.25,13.75,-7.375,0
54290,-3.1875,15.9375,-5.8125,0
54310,-0.625,17.3125,-4.125,0
54330,-0.5,15.625,-1.4375,0
54350,-1.625,10.875,1.1875,0
54370,0.625,4.9375,3.8125,0
54390,5.1875,-0.0625,6.375,0
54410,4.6875,-3.3125,7.4375,0
54430,0.3125,-4.5625,7.875,0
54450,-4.5625,-4.375,9.75,0
54470,-8.125,-5.75,11.5625,0
54490,-3.8125,-8.375,14.5,0
54510,1.125,-13.4375,16.25,0
54530,-2.5625,-13.0625,15.375,0
54550,-7.25,-12.875,13.6875,0
54570,-12,-11,13.0625,0
54590,-17,-7.8125,12.125,0
54610,-18.625,-4.875,10.625,0
54630,-15.375,-3.0625,8.5625,0
54650,-10.8125,-1.4375,5.375,0
54670,-4.8125,0.75,2.25,0
54690,2.25,4.125,0.5,0
54710,9.875,7.625,-0.75,0
54730,16.375,6.875,-1.6875,0
54750,15.0625,8.0625,-1.9375,0
54770,9.625,9.875,-3.4375,0
54790,6.375,7,-2.25,0
54810,4.5,0.8125,1.375,0
54830,8.1875,-7.1875,4.375,0
54850,10.9375,-14.125,5.9375,0
54870,6.4375,-20.5625,2.875,0
54890,-1.4375,-22.375,0.125,0
54910,-21.125,-23.6875,2.1875,0
54930,-48.25,-25.25,2.75,0
54950,-56.4375,-26.8125,-4.9375,0
54970,-40.9375,-27.375,-16.8125,0
54990,-42.125,-32.1875,-30.375,0
54990,-38.125,-35.9375,-38.25,0
55010,-39.8125,-34.4375,-45.1875,0
55030,-41.5625,-36.75,-50.6875,0
55050,-20.375,-34.875,-54,0
55070,-12.125,-28.0625,-51.75,0
55090,-5.8125,-24.8125,-49.375,0
55110,2.3125,-25.1875,-44.125,0
55130,3.5625,-22.4375,-42.875,0
55150,-1,-19.8125,-40.1875,0
55170,8.75,-18.875,-32.75,0
55190,9.75,-16.25,-23.625,0
55210,7.0625,-13.875,-15.8125,0
55230,-5,-12.8125,-3.3125,0
55250,-8.875,-8.75,4.0625,0
55270,-15.0625,-3.625,8.625,0
55290,-17,-3.375,12.6875,0
55310,-22.5625,-3.875,15.75,0
55330,-22.375,-5,12.625,0
55350,-17.875,-9.8125,6.4375,0
55360,1.8125,-18.0625,1.6875,0
55380,46.125,-22.875,-11.875,0
55400,67.1875,-16.9375,-36.25,0
55420,58.875,-4,-51,0
55440,64.3125,6.8125,-49.6875,0
55460,78,18.375,-40.5,0
55480,84.625,28.0625,-28.5625,0
55500,80.8125,29.875,-14.75,0
55520,61.3125,19.875,-0.3125,0
55540,49.875,0.3125,9.875,0
55560,50.625,-16.0625,2,0
55600,83.0625,-21.5625,-13.25,0
55620,86.0625,-15,-21.375,0
55640,90.9375,-6.5625,-29.3125,0
55660,86.75,-7,-39.875,0
55680,75.625,-7.875,-40.8125,0
55690,38.125,2.9375,-14.0625,0
55710,18.125,0.8125,-2.8125,0
55730,10.6875,-4.5,2.25,0
55750,3.8125,-5.25,6.25,0
55770,-3.625,-4.125,8.5625,0
55790,-11.5,-0.3125,8.125,0
55810,-13,1.0625,5.25,0
55830,-8.6875,-1.8125,-1.0625,0
55850,-3.25,-4.5625,-4.25,0
55870,-0.75,-5.1875,-5.0625,0
55890,-5.25,-3.125,-6.6875,0
55910,-12.125,-0.5625,-6.1875,0
55930,-13.125,-1.6875,-5.125,0
55950,-15.875,-3.625,-3.0625,0
55970,-24.8125,-5.8125,-1.3125,0
55990,-37.6875,-7.3125,0.125,0
56010,-48.875,-9.9375,2.4375,0
56030,-63.5625,-14.625,6.4375,0
56050,-87.75,-23.4375,17.5625,0
56070,-127.188,-33.875,29.5,0
56090,-143.75,-38.3125,29.625,0
56110,-147.625,-42.4375,28.6875,0
56130,-155.562,-48.3125,37.25,0
56150,-161.75,-47.0625,44.4375,0
56170,-166.812,-36.25,44.25,0
56190,-165.5,-25.8125,38.875,0
56210,-163.188,-18.8125,33.75,0
56230,-155,-14.5,27,0
56250,-143,-10.625,20.8125,0
56270,-128.375,-4.5625,16.8125,0
56290,-113.438,3,13,0
56310,-106.375,12.375,9.5,0
56330,-76.125,19.8125,-0.5,0
56350,-31.625,24.1875,-5,0
56370,-2.25,25.6875,-7.3125,0
56390,26.75,28.5,-16.625,0
56410,56.625,31.4375,-14.5625,0
56430,56.125,28.5,-11.125,0
56450,41.3125,28.6875,-5.8125,0
56470,22.9375,29.25,6.3125,0
56490,18.6875,24.4375,24.875,0
56510,22,16.5,35.875,0
56530,26.8125,9.4375,45.625,0
56550,39.125,6.3125,49,0
56570,19.3125,3.875,54.6875,0
56590,-10,2.8125,52.875,0
56610,-22.9375,3.6875,47.6875,0
56630,-13.9375,-1.375,44.6875,0
56650,-1.25,-1.9375,32.4375,0
56670,0.375,0.375,21.875,0
56690,-1.75,1.75,16.5625,0
56710,1.5,1.6875,13.1875,0
56730,5.9375,2,10.125,0
56750,6.1875,3.4375,7.5625,0
56770,8.3125,5.125,5.375,0
56790,11.9375,6.3125,3.375,0
56810,11.6875,8.4375,3.375,0
56830,11.8125,8.75,3.5625,0
56850,17.9375,6.5625,-0.5,0
56870,25.0625,5.375,-2.9375,0
56890,20.6875,3.75,-1.4375,0
56910,10.3125,3.8125,0.25,0
56930,11.0625,4.25,0.5,0
56950,13.0625,3.25,-0.625,0
56970,15.5625,0.5625,-2.375,0
56990,23.375,-1.5,-5.6875,0
57010,35.8125,-0.125,-10.4375,0
57030,45.6875,-0.8125,-13.1875,0
57050,51.9375,-1.1875,-18.0625,0
57070,62.6875,-1.125,-22.9375,0
57090,80.1875,-0.625,-28.4375,0
57110,109.812,1.8125,-35.125,0
57130,125.875,1.4375,-38.875,0
57150,131.438,-0.0625,-40.25,0
57170,126.438,1.625,-36.8125,0
57190,130.75,3.9375,-31.8125,0
57210,132.312,1.625,-26.0625,0
57230,129.25,-3.625,-22.9375,0
57250,123,-4.75,-15.4375,0
57270,117.25,-6.875,-11.0625,0
57290,115.812,-10.625,-9.8125,0
57310,99.4375,-2.875,-12.375,0
57330,86.3125,5.5625,0.625,0
57350,63.1875,2.3125,19.6875,0
57370,30.9375,3.5625,31.4375,0
57390,2.625,3,39.125,0
57410,-14.6875,1.0625,36.3125,0
57430,-13.1875,0.1875,32.6875,0
57450,-8.375,0.375,26,0
57470,-3.1875,-0.6875,16,0
57490,1.25,-0.9375,6.0625,0
57510,7.125,-1.6875,0.0625,0
57530,9.8125,-2.5,-4.3125,0
57550,11.6875,-4.4375,-5.1875,0
57570,11.5625,-4.0625,-5.5,0
57590,6.75,-2.9375,-5.25,0
57610,1.25,-2.3125,-2.625,0
57630,-0.3125,-2.3125,-0.0625,0
57650,0.625,-2.25,0.75,0
57670,-0.375,-1.9375,0.375,0
57690,-7,-1.125,1.6875,0
57710,-7.875,-0.0625,3.8125,0
57730,-2.5,0.8125,5.0625,0
57750,3.125,3.125,5.375,0
57770,1.375,6.25,8.1875,0
57790,-3.1875,8.3125,13.0625,0
57810,-0.25,6.625,15.9375,0
57830,7.6875,4.5,17.5,0
57850,8.1875,5,18.9375,0
57870,0.375,5.0625,20.75,0
57890,-6.5,3,21,0
57910,-7.75,4.625,21.5625,0
57930,-5.375,6.5625,23.4375,0
57950,-8.4375,10.5625,24.875,0
57970,-14.5625,16.375,27.9375,0
57990,-24.5625,24.4375,29.75,0
58010,-40.3125,35.25,35.8125,0
58030,-58.25,49.3125,46.75,0
58050,-74.9375,66,60.4375,0
58070,-101.562,61.625,52.4375,0
58090,-78.3125,-0.8125,-0.75,0
58110,-7.5625,-53.875,-40.25,0
58130,18.875,-30.125,-14.8125,0
58150,8.125,-25.875,-6.0625,0
58170,-6.3125,-10,1.125,0
58190,-23.0625,-2.25,11.0625,0
58210,-28.5,8.875,14.125,0
58230,-28.625,13.75,12.75,0
58250,-28.875,11.25,8.25,0
58270,-20.1875,2.9375,0.6875,0
58290,-7.4375,-4.8125,-4.375,0
58310,7.5,-7.75,-4.75,0
58330,13.8125,-5.9375,-1.625,0
58350,10.5,-2.9375,-0.5625,0
58370,4.8125,0.3125,-1.8125,0
58390,0.8125,1.5,-3.0625,0
58410,-1.375,0.375,-3.25,0
58430,-0.4375,-0.6875,-2.5625,0
58450,2.4375,-2.625,-2.375,0
58470,5.4375,-4.9375,-3.375,0
58490,5.125,-5.6875,-4.5,0
58510,2.8125,-3.0625,-3.25,0
58530,-0.125,0.1875,0.75,0
58550,-1.0625,-0.25,3.25,0
58570,1.25,-2.9375,2.75,0
58590,3.75,-5.5,1.5625,0
58610,4.125,-6.3125,2.25,0
58630,1.625,-5.6875,2.9375,0
58650,-1.0625,-4.8125,2.625,0
58670,-2,-4.125,2.3125,0
58690,-2.0625,-3.4375,2.125,0
58710,-0.875,-3.1875,2.0625,0
58720,0.125,-3.8125,1.5625,0
58740,0.25,-4.3125,1.125,0
58760,2.375,-4.8125,0.5625,0
58780,1.25,-4.8125,0.6875,0
58800,2.0625,-5.1875,0.25,0
58820,-0.25,-4.9375,-2.5,0
58840,-0.75,-4.8125,-4.0625,0
58860,-3.625,-3.1875,-3.9375,0
58880,-3.4375,-1.5625,-2.4375,0
58900,-3.6875,-0.6875,-1.125,0
58920,-2.875,-0.3125,-0.625,0
58940,-1.6875,0.5625,-0.75,0
58960,-0.875,2.75,0.3125,0
58980,-1.5,5.0625,3.1875,0
59000,-2.25,5.875,5.875,0
59020,-0.6875,2.9375,4.4375,0
59040,-0.375,0.1875,0.3125,0
59060,-0.9375,-0.625,-0.8125,0
59080,-0.875,-0.9375,0.625,0
59100,-1.125,-0.5,1.75,0
59120,-2.125,0.5625,1.875,0
59140,-2,1.6875,1.6875,0
59160,-1.4375,3.125,0.625,0
59180,-0.375,4.625,0.125,0
59200,1.8125,6.0625,0.1875,0
59220,3.875,9.6875,-0.75,0
59240,7.9375,14.25,-3.625,0
59260,12.0625,13.1875,-4.9375,0
59280,13.4375,9.125,-5,0
59300,12.5,6.1875,-5.5,0
59320,13.1875,4.6875,-4.4375,0
59340,13.1875,3.9375,-3.3125,0
59360,12.4375,3.75,-3.3125,0
59380,11.5,2.9375,-4.1875,0
59400,11.6875,1.1875,-4.6875,0
59420,9.9375,-1.1875,-4.4375,0
59440,7.25,-3.375,-2.6875,0
59460,4.0625,-3.6875,-0.625,0
59480,0.5625,-3.1875,0.6875,0
59500,-1.625,-3.5,0.8125,0
59520,-2.25,-4.9375,1.125,0
59540,-0.5625,-6.4375,1.5625,0
59560,1,-7,2.5,0
59580,1.3125,-6.9375,3.875,0
59600,1.4375,-7.3125,3.8125,0
59620,0.25,-5.6875,1.0625,0
59640,-1.625,-4.6875,0.6875,0
59660,-3.9375,-6.625,2.5625,0
59680,-5.0625,-7.5,3.6875,0
59700,-5.4375,-7,3,0
59720,-5.3125,-6.3125,2.8125,0
59740,-4.625,-5.375,2.0625,0
59760,-2.6875,-4.5625,0.75,0
59780,-0.5,-4.125,-0.25,0
59800,1.375,-4,-1,0
59820,2.5625,-3.5,-1.5,0
59840,3.5625,-2.5,-1.625,0
59860,3.5625,-1.5,-2.4375,0
59880,3.4375,-1.5,-3.125,0
59900,3.3125,-1.8125,-3,0
59920,3.0625,-1.5,-2.25,0
59940,3.6875,-1.1875,-1,0
59960,3.875,-0.6875,-1.0625,0
59980,1.125,-0.375,-1.4375,0
60000,-1.5625,-1.75,0.5,0
60020,-4.5625,-0.1875,1.125,0
60040,-7.1875,0.25,2.25,0
60060,-10.625,-1.25,3.875,0
60080,-11.375,-1.5625,4.1875,0
60100,-9.8125,-1.0625,3.75,0
60120,-7,0,1.6875,0
60140,-5.4375,1.125,-0.375,0
60180,0.125,2.9375,-3.6875,0
60200,3.5625,3.75,-5.25,0
60220,5.1875,4.1875,-6.0625,0
60240,5.1875,4.1875,-6.6875,0
60260,3.625,3.75,-6.8125,0
60280,2.4375,4,-5.25,0
60300,0,3.5625,-2.875,0
60320,-7.5625,0.0625,4.25,0
60340,-7.25,-7.875,17.375,0
60360,19.4375,-7,20.6875,0
60380,35.5625,-0.4375,5.5625,0
60400,12.25,-4,-3.25,0
60420,-31.5625,-11.0625,-8.375,0
60440,-67.0625,-11.625,-29.8125,0
60460,-76.4375,-7.5,-49.625,0
60480,-61.4375,-11.875,-68,0
60500,-27.3125,-21.6875,-85.8125,0
60520,-10.3125,-27.6875,-99.0625,0
60540,-15.625,-26.4375,-103.312,0
60560,-20.4375,-30.625,-103.062,0
60580,-25.9375,-32,-104,0
60600,-17.1875,-29.875,-98.125,0
60620,-14.4375,-28.125,-86.125,0
60640,-16.8125,-26.5,-74.6875,0
60660,-18.3125,-23.75,-61.9375,0
60680,-19.875,-20.75,-46.875,0
60700,-15.5,-19.0625,-32.5,0
60710,-12,-15,-21,0
60730,-9.5,-10.875,-10.125,0
60750,-9.125,-6.9375,-0.4375,0
60770,-3.25,-3.875,7.9375,0
60790,-2.25,-0.8125,12.625,0
60810,-0.375,2,13,0
60830,1.6875,3.5625,13,0
60850,2.9375,2.5625,15.75,0
60870,2.125,2,14.5625,0
60890,0.4375,2.9375,11.0625,0
60910,0.5,1.75,9,0
60930,0.3125,0.625,7.0625,0
60950,-1.5,-0.125,4,0
60970,-1.3125,-0.9375,1.4375,0
60990,-0.25,-1.8125,-0.5,0
61010,1.5,-1.625,-2,0
61030,2.25,-1.5,-2.5625,0
61050,0.375,-1.1875,-2.3125,0
61070,-0.75,-1.0625,-2.4375,0
61090,-1.5,-1.375,-3.6875,0
61110,-0.8125,-2.6875,-4.375,0
61130,-0.25,-5.8125,-6.0625,0
61150,-1,-6.5,-8.5625,0
61170,3.25,-5.1875,-4.125,0
61190,0.3125,-4.6875,-0.6875,0
61210,3.3125,-4.875,-1.5,0
61230,30.6875,-1.4375,-3.875,0
61250,64.9375,-0.25,-6.625,0
61270,101,-4.0625,1.4375,0
61290,125.875,-16.75,11.25,0
61310,134.938,-21.9375,4.75,0
61330,125,-12.875,-2.25,0
61350,107.312,-6.6875,-2.0625,0
61370,83.375,-2.3125,6.1875,0
61390,66.1875,-7.1875,9.9375,0
61410,49.875,-13.6875,9.3125,0
61430,42.4375,-16.5625,6.25,0
61450,29.4375,-14.0625,6.0625,0
61470,17.75,-12.4375,7.1875,0
61490,12.1875,-12.4375,5.25,0
61510,8.375,-12.0625,3,0
61530,6.375,-12.25,-0.125,0
61550,0.5625,-11.25,-2.125,0
61570,-3.25,-10.4375,-4.6875,0
61590,-11.875,-6.8125,-6.0625,0
61610,-28.875,0.25,-10.0625,0
61630,-54.3125,-3.0625,-10.25,0
61650,-73.9375,-19.625,-7.75,0
61670,-111.062,-43.5,0.75,0
61690,-122,-51.0625,40.625,0
61710,-136.812,-27.125,72.6875,0
61730,-167.438,12.625,74.125,0
61750,-155.812,37.5625,48.9375,0
61770,-127.25,39.5,17.75,0
61790,-105.562,16,9.9375,0
61810,-52.0625,-4.6875,28.8125,0
61830,-21.6875,-11.75,31.75,0
61850,-4.875,-10.5,23.8125,0
61870,-11.9375,0,13.125,0
61890,-18.5,8.0625,4.5625,0
61910,-14.9375,7.25,3.4375,0
61930,-4.5,2.3125,4.75,0
61950,7,-1.75,2.75,0
61970,13.4375,-2.8125,3.75,0
61990,17.3125,-1.375,1.625,0
62010,15.75,2.1875,0.625,0
62030,11.1875,3.5625,1.0625,0
62050,11.75,2,3.375,0
62070,18.75,0.125,6.0625,0
62090,25.25,-1.8125,7.625,0
62110,28.125,0.0625,-0.0625,0
62130,16.1875,-3.625,-1.1875,0
62150,10.5625,-5.375,0.625,0
62170,-1,-8.9375,6.9375,0
62190,9.875,-5,7.4375,0
62210,5.3125,-1.125,-10.125,0
62230,13.1875,-5.4375,-4.5625,0
62250,16.25,0.3125,-1.6875,0
62270,9.875,4.125,-7,0
62290,2.25,4.75,-6.5625,0
62310,-2.375,3.5,-0.5625,0
62330,1.6875,1.125,5.625,0
62350,2.8125,-2.0625,5.8125,0
62370,5.25,0.5625,1.75,0
62390,6.875,2.375,-2.75,0
62410,8.8125,6.0625,-2.125,0
62430,12.25,9.1875,1.5625,0
62450,14.6875,12.8125,1.875,0
62470,16.5,14.4375,4.6875,0
62490,17.625,17.5,9.5625,0
62510,25.9375,22,15.8125,0
62530,33.75,27.375,20.9375,0
62550,42.4375,34.5625,23.875,0
62570,44,42.5,28.875,0
62590,44.375,51.4375,35.1875,0
62610,45.8125,59.4375,44.1875,0
62630,41.6875,63.75,56.25,0
62650,38.3125,61.8125,62.1875,0
62670,30.0625,57.0625,62.375,0
62690,23.6875,50.6875,52.875,0
62710,14.875,41.8125,43.9375,0
62730,14.625,33.125,35.375,0
62750,15.0625,25.4375,25.0625,0
62770,13.8125,15.8125,15.1875,0
62790,12.3125,8.9375,3,0
62810,11,3.1875,-7.0625,0
62830,10.4375,-2.25,-12.125,0
62850,8.1875,-5.5625,-14.9375,0
62870,3.375,-5.4375,-17.4375,0
62890,-0.5,-6.5,-17.4375,0
62910,-2.8125,-6.125,-16.3125,0
62930,-4.25,-6.375,-14.125,0
62950,-3.375,-7.5625,-11.4375,0
62970,-2.9375,-8.125,-10.5,0
62990,-1.4375,-8.3125,-9.6875,0
63010,0,-8.375,-7.6875,0
63030,1.375,-7.75,-6.6875,0
63050,2.25,-6.625,-6.0625,0
63070,3.9375,-6.125,-5.125,0
63090,5,-6.1875,-3.5625,0
63110,6.125,-6,-2.875,0
63130,5.375,-6.6875,-2.875,0
63150,2.75,-7.625,-3.5,0
63170,-0.25,-12.5,-3.875,0
63190,-7.6875,-18.4375,-4.9375,0
63210,-16.6875,-25.125,-11.3125,0
63230,-24.25,-33.4375,-15.9375,0
63250,-31.75,-40.9375,-23.3125,0
63270,-36.3125,-48.875,-32.625,0
63290,-35.5,-55.5,-39.875,0
63310,-33.5,-61.3125,-43.9375,0
63330,-29.3125,-65.3125,-45.5625,0
63350,-28.5,-64.5,-46.625,0
63370,-27.4375,-62.25,-44.875,0
63390,-24.1875,-58.6875,-39.625,0
63410,-20.375,-53.375,-34.3125,0
63430,-15.875,-47.5,-28,0
63450,-12.3125,-40.0625,-21.3125,0
63470,-6.75,-31.8125,-14.375,0
63490,-1.9375,-22.9375,-7.375,0
63510,3.4375,-15.625,1.0625,0
63530,8.75,-6.5625,8,0
63550,10.0625,1.5625,14.6875,0
63570,9.625,8.125,18.4375,0
63590,12.5,13.4375,21.0625,0
63610,9.4375,15.25,21.625,0
63630,8.1875,15.625,18.375,0
63650,7.1875,14.3125,14.8125,0
63670,7.125,11.75,13,0
63690,5.0625,9.6875,10.5,0
63710,-0.6875,6.625,6.9375,0
63730,-9.3125,4.3125,2.9375,0
63750,-14.8125,3.8125,-2.4375,0
63770,-16.25,5.125,-8.125,0
63790,-19.125,4.1875,-13.625,0
63810,-18.1875,2.5,-16.8125,0
63830,-17.1875,1.8125,-18.875,0
63850,-12.0625,1,-21.9375,0
63870,-11.5625,1.375,-24.6875,0
63890,-11.1875,1.25,-25.6875,0
63910,-8.875,0.5,-24.3125,0
63930,-5.5625,1.125,-23.3125,0
63950,-3.625,0.5625,-20.625,0
63970,-1.1875,0.875,-18.125,0
63990,0.4375,1.4375,-15.8125,0
64010,3,2.0625,-14,0
64030,6.0625,2.0625,-10.3125,0
64050,8.125,2.5,-7.8125,0
64070,10.8125,3.1875,-8.0625,0
64090,10.1875,3.75,-9.0625,0
64110,9.625,6.3125,-11.4375,0
64120,11.6875,6.625,-12.8125,0
64140,13.75,6.25,-14.6875,0
64160,15.25,4.8125,-17.625,0
64180,10.8125,0.6875,-19,0
64200,7.25,0.4375,-17,0
64220,2.25,0.125,-14.375,0
64240,-1.125,0.0625,-12.3125,0
64260,-3.3125,0.5,-10.5,0
64280,-2.75,1.25,-7.625,0
64300,-3,2.0625,-4.625,0
64320,-4.0625,3.25,-2.9375,0
64340,-3.375,3.5,-2,0
64360,-2.625,3.8125,-1.5,0
64380,-1.375,3.9375,-1.4375,0
64400,-0.1875,3.625,-1.125,0
64420,1.25,2.375,-1.5625,0
64440,2.125,0.3125,-2.5625,0
64460,2.625,-1.5,-3.0625,0
64480,2.5625,-3,-4.125,0
64500,3,-4.625,-4.0625,0
64520,3,-5.8125,-3.75,0
64540,2.625,-6.625,-3.875,0
64560,1.5,-6.9375,-3.3125,0
64580,0.4375,-7.1875,-2,0
64600,-0.5625,-6.5625,-2.0625,0
64620,-1.625,-6.1875,-2.0625,0
64640,-2.1875,-7.0625,-0.4375,0
64660,-2.0625,-7.1875,-0.3125,0
64680,-3.625,-8.6875,0.4375,0
64700,-8.125,-12.3125,3.0625,0
64720,-14.125,-18.3125,7.4375,0
64740,-24.3125,-25.9375,11.4375,0
64760,-34.75,-34.125,12.1875,0
64780,-44.0625,-41.125,13.3125,0
64800,-49.4375,-43.1875,11.5,0
64820,-52.4375,-44.0625,6,0
64840,-50.4375,-48.1875,2.625,0
64860,-43.125,-51.1875,-1.25,0
64880,-33.5,-52.75,-6.0625,0
64900,-25.8125,-52.625,-9.25,0
64920,-21.5,-49,-10.5625,0
64940,-18.75,-44.25,-9.6875,0
64960,-13.75,-39.75,-7.125,0
64980,-7.1875,-34.5625,-4.9375,0
65000,-2.875,-27.5,-3.6875,0
65020,-3,-20.375,-3.3125,0
65040,-0.75,-14.375,-2.1875,0
65060,4.625,-9.5,-1.6875,0
65080,5.375,-5.25,-2.5625,0
65100,6.3125,-1.75,-3.875,0
65120,5.8125,0.4375,-4.75,0
65140,4.625,1.625,-4.125,0
65160,5.625,3.25,-4.75,0
65180,7,4.5625,-4.9375,0
65200,10.4375,7.75,-5.0625,0
65220,16.875,12.75,-3.8125,0
65240,30.5,19.875,1.8125,0
65260,46.625,29,11.5,0
65280,57.25,39.0625,24.1875,0
65300,58.6875,51.625,39.8125,0
65320,57,65.75,60.75,0
65340,59.8125,76.875,87.875,0
65360,70.375,93.5625,113.062,0
65380,68.1875,107.25,124.438,0
65400,54.8125,112.188,124.812,0
65420,49.25,114.25,120.812,0
65440,57.4375,108.562,109.812,0
65460,59.125,98.4375,99.125,0
65480,67.8125,83.375,79.9375,0
65500,55.125,74.5625,47.5625,0
65520,71.4375,61.75,37.3125,0
65540,81.625,45.75,20.9375,0
65560,56.5,20.25,-18.6875,0
65580,17.0625,-12.5,-30.875,0
65600,4.6875,-14.875,-17.4375,0
65620,-7.875,-7.4375,-7.0625,0
65640,-15.4375,-6.375,-1.25,0
65660,-8.9375,1.3125,-5.75,0
65680,6.9375,12.5,-2.5625,0
65700,15.875,21,3.6875,0
65720,9.0625,26.9375,7.5,0
65740,-9.75,23.4375,7.75,0
65760,-15.5,7.3125,2.1875,0
65780,-7.375,-10.6875,-3.1875,0
65800,-0.5,-17.75,-8.0625,0
65820,6.375,-16.6875,-8.875,0
65840,9.6875,-12.8125,-5.3125,0
65860,4.875,-8.375,-1.25,0
65880,1.75,-4.25,1.0625,0
65900,-0.4375,-3.1875,0.1875,0
65920,-3.1875,-4.25,-1.6875,0
65950,-4.8125,-5.5,-4.875,0
65970,-0.625,-3.5625,-4.0625,0
65990,4.6875,-0.375,-2.8125,0
66000,7.125,2,-2.125,0
66030,5.875,2.125,-3.0625,0
66050,3.9375,1.125,-3.625,0
66070,3,-0.6875,-3.8125,0
66080,2.5,-2.375,-3.5,0
66100,2.5625,-3.375,-3.4375,0
66120,2.5,-3.75,-2.3125,0
66140,2.125,-4.125,-2.0625,0
66160,2.75,-4.375,-1.8125,0
66180,2.875,-4.625,-1.8125,0
66200,3.0625,-4.9375,-1.8125,0
66220,3.6875,-4.6875,-1.625,0
66240,4.3125,-4,-1,0
66260,4.75,-3.4375,-0.4375,0
66280,4.4375,-2.75,-0.5,0
66300,4.125,-2.4375,-1.125,0
66320,3.3125,-2.25,-1.8125,0
66340,2.875,-1.875,-2.375,0
66360,2.5625,-1.3125,-2.625,0
66380,3,-0.9375,-2.5625,0
66400,3.3125,-0.5625,-2.375,0
66410,3.6875,-0.375,-1.75,0
66430,4.125,-0.375,-1.1875,0
66450,3.9375,-0.5625,-0.0625,0
66470,2.5625,-0.75,0.4375,0
66490,0.8125,-0.6875,0.25,0
66510,0.5625,-0.625,0,0
66530,1.5625,-1.125,-0.4375,0
66550,1.9375,-1.875,0.125,0
66570,1.1875,-2.1875,0.25,0
66590,0.625,-1.375,0.3125,0
66610,0.625,-0.25,1,0
66630,1.5,-0.0625,2.5,0
66650,1.75,-0.4375,2.75,0
66670,2.5,-0.875,2.1875,0
66690,2.375,-1.375,1.4375,0
66710,1.25,-1.5,0.875,0
66730,-0.375,-0.8125,0.9375,0
66750,-2.875,-0.5625,2.0625,0
66770,-5.875,-0.4375,3.4375,0
66790,-7.9375,0.125,4.3125,0
66810,-7.6875,0.5625,4.1875,0
66830,-7.125,0.9375,3.125,0
66850,-4.875,1.0625,1.1875,0
66870,-1.625,0.5,-1.375,0
66890,2.0625,-0.125,-4.5,0
66910,5.375,-0.1875,-6.6875,0
66930,6.625,0.0625,-7.5,0
66950,6.375,0.4375,-8.375,0
66970,6.25,0.8125,-7.8125,0
66990,7.6875,1.25,-5.0625,0
67010,8.6875,1,-1.5,0
67030,5.9375,1,4.5,0
67050,0.6875,0.0625,9.3125,0
67070,-5.6875,-0.9375,12.0625,0
67090,-11,-1.5,11.375,0
67110,-13.1875,-0.8125,8.1875,0
67130,-13.5625,-1,6.9375,0
67150,-12.6875,-0.9375,6.0625,0
67170,-10.4375,0,4.4375,0
67190,-7.25,1.75,0.0625,0
67210,-2.25,3.5625,-3,0
67230,2.5,4.5,-5.1875,0
67250,4.5625,5.125,-7,0
67270,4.0625,6.4375,-7.125,0
67290,1.5625,7.4375,-6.125,0
67310,-0.6875,7.5,-3.9375,0
67330,-2.3125,6.6875,-1,0
67350,-4.625,5.5,2.0625,0
67370,-8.625,4.9375,5.375,0
67380,-11.125,4.75,7.9375,0
67400,-11.875,4.125,8.3125,0
67420,-11.4375,3.625,7.6875,0
67440,-10,3.125,6.25,0
67460,-7.3125,2.375,4.625,0
67480,-3.3125,1.875,2.4375,0
67500,0.375,1.5,-0.3125,0
67520,3.375,1.5625,-2.4375,0
67540,4.25,1.6875,-3.5,0
67560,3.6875,1.75,-3.375,0
67580,2.625,1.3125,-2.3125,0
67600,1.5,0.8125,-1.1875,0
67620,0.625,0.1875,-0.5,0
67640,1.0625,-0.5625,-0.4375,0
67660,2.25,-1.125,-0.6875,0
67680,3.1875,-1.625,-0.8125,0
67700,3.5,-1.625,-1,0
67720,3,-1.4375,-1.0625,0
67740,2.5,-1.1875,-0.8125,0
67760,2.5,-0.9375,-0.625,0
67780,2.75,-1.125,-0.8125,0
67800,3.0625,-1.5625,-1.625,0
67820,3.6875,-1.8125,-2.4375,0
67840,4.625,-1.9375,-2.5625,0
67860,4.4375,-1.875,-2.4375,0
67880,3.5625,-1.625,-2.125,0
67900,2.875,-1.5625,-2.0625,0
67920,3.0625,-1.625,-2.125,0
67940,3.5625,-1.5,-2.5,0
67950,4.1875,-1.3125,-3.0625,0
67970,4.875,-1.3125,-2.8125,0
67990,4.75,-1.125,-2.1875,0
68010,4.5,-1.0625,-1.125,0
68030,4.5,-1.125,-1,0
68050,4.9375,-0.9375,-0.6875,0
68070,5.1875,-1.375,-0.25,0
68090,4,-1.0625,0.0625,0
68110,3.1875,-0.125,0.125,0
68130,3.0625,0.3125,-1.0625,0
68150,3.375,0.0625,-2.4375,0
68170,3,0.125,-2.1875,0
68190,1.125,-0.0625,-0.6875,0
68210,-1.875,-0.5625,0.9375,0
68230,-3.375,-1.4375,2.0625,0
68250,-2.6875,-2.0625,2.125,0
68270,-2.25,-2.25,1.3125,0
68290,-2.5,-1.625,0.0625,0
68310,-1.8125,-0.6875,-0.8125,0
68330,1.8125,-0.375,-2.0625,0
68350,6.375,-0.625,-3,0
68370,7.8125,-0.625,-3.375,0
68390,6.3125,-0.4375,-3.75,0
68410,3.6875,0.25,-4.25,0
68430,2.25,0.875,-3.75,0
68450,2.625,0.5,-2.8125,0
68470,4.0625,0,-2.125,0
68500,2.25,-0.5,-1,0
68510,0.875,-0.375,-0.875,0
68530,0.375,-0.125,-0.6875,0
68550,0.9375,-0.0625,-0.4375,0
68570,1.8125,-0.0625,-0.125,0
68590,2.1875,-0.1875,0.125,0
68610,1.75,-0.4375,0.0625,0
68630,1.25,-0.4375,-0.1875,0
68640,1.1875,-0.5625,-0.3125,0
68660,1.5,-0.4375,-0.375,0
68680,1.75,-0.5625,-0.375,0
68700,2,-0.6875,-0.5,0
68720,2.3125,-0.5,-0.9375,0
68740,2.3125,-0.5625,-1.1875,0
68760,2.5625,-0.4375,-1.0625,0
68780,2.75,-0.4375,-1.0625,0
68800,2.3125,-0.25,-1.625,0
68820,2.8125,0.75,-2.25,0
68840,3.8125,1.0625,-2.625,0
68860,3.9375,1.125,-2.4375,0
68880,3.4375,1.0625,-2.125,0
68900,2.4375,0.6875,-1.4375,0
68920,1.1875,0.0625,-0.75,0
68940,0.5,-0.3125,-0.25,0
68960,0.375,-0.375,-0.0625,0
68980,0.25,-0.4375,-0.25,0
69000,0.625,-0.0625,-0.5625,0
69020,1.3125,-0.125,-0.625,0
69040,1.5625,-0.0625,-0.6875,0
69060,1.5,-0.1875,-0.8125,0
69080,1.3125,-0.25,-0.875,0
69100,1.375,-0.1875,-0.875,0
69120,1.125,-0.25,-0.4375,0
69140,0.9375,-0.3125,0,0
69160,1.25,-0.5,0.3125,0
69180,1.4375,-0.625,0.5,0
69200,1.125,-0.5625,0.5625,0
69220,0.75,-0.6875,0.75,0
69240,0.875,-0.5625,0.375,0
69260,1.0625,-0.75,0.375,0
69280,1.375,-0.6875,0.25,0
69300,1.5,-0.5625,0.375,0
69320,1.8125,-0.75,0.6875,0
69340,2.125,-0.75,0.1875,0
69360,2.0625,-0.9375,0.625,0
69380,1.375,-0.5625,0.625,0
69400,1.25,-0.5625,0.5,0
69410,1.1875,-0.625,1,0
69430,1.4375,-0.625,1,0
69450,1.75,-0.5,1.0625,0
69470,0.1875,-1.125,2.4375,0
69490,-0.0625,-0.6875,4.4375,0
69510,1,-1.5625,6.625,0
69530,-1.5625,-2,8.4375,0
69550,-4.625,-2.4375,10.375,0
69570,-5.6875,-3,11.6875,0
69590,-5.5,-3.125,10.9375,0
69610,-5.3125,-3.25,10.25,0
69630,-5.1875,-2.875,8.625,0
69650,-5.1875,-1.8125,5.6875,0
69670,-4.8125,-0.25,3.8125,0
69690,-2.125,1,2.5,0
69710,1.25,1.8125,0.625,0
69730,3.0625,2,-0.5,0
69750,3,2,-1.8125,0
69770,2.4375,2.4375,-3.125,0
69790,1.8125,2.875,-3.125,0
69810,-0.5,1.625,-1.75,0
69830,-1.1875,-2.8125,1.5,0
69850,0.75,-8.625,8,0
69870,2.8125,-15.625,9.5625,0
69890,3,-15.625,7.25,0
69910,-3.5,-17.5625,0.4375,0
69930,-15.25,-11.25,-18.25,0
69950,-25.9375,-13.0625,-34.4375,0
69970,-42,-20,-43.875,0
69990,-55.125,-32.0625,-54.4375,0
70010,-50.6875,-47.25,-65.0625,0
70030,-30.5,-60.25,-74.125,0
70050,-25.25,-63.4375,-83.5625,0
70070,-31.0625,-65.25,-88.0625,0
70090,-35.625,-65.875,-87.25,0
70110,-35.4375,-66.875,-82.5,0
70130,-35.4375,-66.5625,-78.25,0
70150,-37.75,-63.6875,-74,0
70170,-37.9375,-59.9375,-68.4375,0
70190,-36.8125,-55.3125,-61.4375,0
70210,-33.25,-49.75,-55.3125,0
70230,-31.8125,-43.375,-47.9375,0
70250,-31.375,-40.125,-39.5,0
70270,-26.75,-35.125,-32,0
70290,-17.875,-29.625,-26.5,0
70310,-15,-25.6875,-22.5625,0
70330,-15.3125,-22.75,-18.25,0
70350,-13.125,-20.9375,-13.8125,0
70370,-12.625,-19.25,-12,0
70390,-15.375,-18.75,-11.75,0
70410,-10.8125,-18.3125,-10.375,0
70430,-11.1875,-18.75,-8.5625,0
70450,-11.125,-17.75,-9.0625,0
70470,-9.1875,-16.25,-8.125,0
70490,-7.3125,-13.5625,-6.0625,0
70510,-4.625,-11,-6.5625,0
70530,-6.8125,-9.3125,-7.3125,0
70550,-6.3125,-7.625,-8.4375,0
70570,-4.5625,-6.0625,-10.5625,0
70590,-2.125,-4.75,-12.875,0
70610,1.8125,-4.4375,-15,0
70630,1.125,-3.5625,-16.5625,0
70650,0.5625,-4.6875,-17,0
70670,0.75,-5.8125,-19.375,0
70690,-0.5,-6.625,-19,0
70710,0.0625,-6.75,-17.125,0
70730,-2.6875,-8.5,-14.4375,0
70750,-1.75,-8.3125,-10.3125,0
70770,1.0625,-6.3125,-6.6875,0
70790,-2.375,-6.875,-3.5625,0
70810,-9.625,-7.0625,0.375,0
70830,-9.8125,-6.8125,3.6875,0
70850,-8.5,-5.1875,4.3125,0
70870,-6.625,-3.8125,4.375,0
70890,-2.1875,-2.5,2.625,0
70910,0.375,-0.5,0.6875,0
70930,1.25,1.125,-1.25,0
70950,0.375,1.9375,-2.25,0
70970,0.875,1.1875,-2.0625,0
70990,0.1875,1.1875,-3.0625,0
71010,0.1875,1.375,-4.125,0
71030,1.125,1,-5.0625,0
71050,3.0625,0.875,-6.0625,0
71070,2.625,-1.125,-5.4375,0
71090,1.25,-1.375,-3.9375,0
71110,0.1875,-1.5,-2.125,0
71130,-1.0625,-1.6875,-1.5,0
71150,-2.0625,-1.625,-1.75,0
71170,-3.125,-1.375,0.625,0
71190,-1.5,-1.25,3.5,0
71210,-1.0625,0.125,3.25,0
71230,-0.75,1.8125,1.4375,0
71250,-0.0625,2.4375,0.6875,0
71270,2.125,2.8125,0.8125,0
71290,2,3.125,-0.5,0
71310,2.25,3.5625,-2.8125,0
71330,1.6875,4,-3.9375,0
71350,1.5625,3.625,-4.4375,0
71370,4.1875,2.25,-5.0625,0
71390,5.625,0.5625,-3.9375,0
71400,4.1875,-1,-2.5625,0
71420,2.3125,-1.5,-1.875,0
71440,-0.1875,-2.25,-1.1875,0
71460,-1.6875,-3.375,0.5625,0
71480,-2.0625,-3.875,1.8125,0
71500,-3.625,-2.8125,1.9375,0
71520,-0.0625,-3.875,2.3125,0
71540,1.9375,-3.875,2.125,0
71560,1.6875,-2.4375,1.5625,0
71580,1,-1,2.4375,0
71600,2.9375,-0.0625,2.5,0
71620,3.375,0,1.125,0
71640,2.8125,0,1.6875,0
71660,2.5625,0.9375,1.125,0
71680,0.75,0,0.5,0
71700,0.0625,-2.25,-1.125,0
71720,-0.625,-2.6875,-3.5625,0
71740,-3.625,-2.625,-5.125,0
71760,-4.25,-3.0625,-1.8125,0
71780,0.1875,-2.125,-1.3125,0
71800,-3.125,-3.5,-1.1875,0
71820,-5.5,-3.25,0,0
71840,-5.125,-2.9375,2.3125,0
71860,-5.75,-3.75,5.125,0
71880,-4,-5.4375,5.6875,0
71900,-4.0625,-7.0625,6.125,0
71920,-6.8125,-8,5.4375,0
71940,-8.5625,-8.6875,4.6875,1000
71960,-7.25,-10.0625,4.3125,0
71980,-1.75,-11.5,3.25,0
72000,-0.625,-12.125,1.0625,0
72020,-0.6875,-13.0625,-0.5625,0
72040,-1.8125,-13.3125,-1.125,0
72060,-3.4375,-13.5,-1.25,0
72080,-2.8125,-13.375,-2.8125,0
72100,-2.1875,-14.5,-3.125,0
72120,-1.875,-14.9375,-3.4375,0
72140,-2.25,-15.3125,-5.375,0
72160,-2.9375,-15.9375,-6.75,0
72180,-3.25,-17.0625,-7.5,0
72200,-4.125,-17.5625,-9.4375,0
72220,-4.3125,-17.8125,-11.125,0
72240,-2.125,-18.5,-12.1875,0
72260,-1.4375,-19,-11.625,0
72280,-2.75,-18.875,-11.5,0
72300,-3.3125,-18.8125,-10.9375,0
72320,-2.4375,-17.8125,-9.9375,0
72340,-3.625,-17.1875,-6.5625,0
72360,-6.8125,-16.75,-6.9375,0
72380,-7.4375,-16,-7.375,0
72400,-7.3125,-14.4375,-8.8125,0
72420,-2.5,-14.875,-11.125,0
72440,-1.6875,-16.1875,-9.375,0
72460,-2.0625,-15.75,-9.8125,0
72480,-6.3125,-13.625,-10.9375,0
72500,-7.9375,-14.625,-10.25,0
72520,-10.0625,-14.75,-9.3125,0
72540,-7.25,-12.6875,-11,0
72560,-3.75,-10.6875,-13.6875,0
72580,-2.0625,-8.875,-17.8125,0
72600,-4.6875,-6.9375,-16.875,0
72620,-5.0625,-3.625,-15,0
72640,-4.25,-1.125,-14.875,0
72660,-2.5625,-0.75,-16.5625,0
72680,-6.25,-0.5,-14.3125,0
72700,-9.5,1.5,-13.3125,0
72720,-9.875,2.1875,-13.625,0
72740,-11.1875,3.9375,-16.1875,0
72760,-9.875,3.4375,-20,0
72780,-12.25,2.9375,-19.125,0
72800,-14.25,4.5625,-22.5625,0
72820,-16.4375,6.4375,-21.8125,0
72840,-16.0625,10.125,-18.875,0
72860,-17,14.9375,-17,0
72880,-18.375,18.1875,-18.3125,0
72900,-22.4375,21.25,-18,0
72920,-23.0625,24.8125,-17.6875,0
72940,-20.3125,28.5625,-17.8125,0
72960,-18.9375,30.8125,-17.5625,0
72980,-22.3125,31.75,-17.5,0
73000,-22.75,31.9375,-17.75,0
73020,-23.3125,33.5,-16.8125,0
73040,-22.25,36,-16.3125,0
73060,-23.6875,38.0625,-14.125,0
73080,-24.8125,42.4375,-12.875,0
73100,-19.3125,45.875,-13.0625,0
73120,-17.8125,48.5,-14.9375,0
73140,-20.125,50.6875,-13.9375,0
73160,-19.9375,53.8125,-13.4375,0
73180,-15.8125,56.1875,-11.8125,0
73200,-13.3125,56.5625,-12.875,0
73220,-12.375,56.125,-12.9375,0
73240,-11.3125,57.3125,-12.3125,0
73260,-12.5625,59.625,-12.6875,0
73280,-14.1875,62.5625,-9.0625,0
73300,-6.25,62.5625,-9.5625,0
73320,-2.6875,60.3125,-9.5625,0
73340,-3.125,58.125,-11.5,0
73360,-4.75,56.3125,-11.875,0
73380,-8.6875,55.75,-7.4375,0
73400,-6.125,55,-4.1875,0
73420,2.0625,50.5625,-7.3125,0
73440,4.25,45.0625,-7.5,0
73460,2.6875,42.1875,-2.5625,0
73480,4.9375,45.75,8.625,0
73500,3.875,44.8125,8.375,0
73520,6.6875,37.4375,7.1875,0
73540,9.9375,29,14.125,0
73560,9.3125,27.4375,13.9375,0
73580,5.1875,29.875,14.75,0
73600,1.125,31.4375,18.4375,0
73620,3.5,31.1875,19.3125,0
73640,10.8125,27.9375,15.625,0
73660,9.6875,27.5625,15.0625,0
73680,-0.9375,28.0625,21.8125,0
73700,0.625,26.3125,27.4375,0
73720,10.4375,24.375,26.75,0
73740,8.6875,20.8125,21.4375,0
73760,-0.0625,19.875,16.9375,0
73780,-0.375,19,16.125,0
73800,8.8125,12,15.375,0
73820,19.6875,6.6875,11.6875,0
73840,12.75,6.1875,7.6875,0
73860,-2.1875,3.6875,10.1875,0
73880,1.1875,-1.3125,13,0
73900,9.6875,-7.9375,14,0
73920,9.6875,-11.1875,14.875,0
73940,-0.1875,-13.375,15.625,0
73960,-4.1875,-13.875,16.6875,0
73980,-2.3125,-16.375,16.125,0
74000,5.5,-19.8125,14.0625,0
74020,1.1875,-22.1875,14.5,0
74040,-0.625,-24.25,15.375,0
74060,4.1875,-26.4375,15.75,0
74080,3.75,-27.375,14.125,0
74100,-1.9375,-29.875,14.6875,0
74120,-5.9375,-32.8125,14.4375,0
74140,-5.1875,-35.75,15.3125,0
74160,1.5,-37.4375,14.6875,0
74180,4.625,-39,11,0
74200,3.4375,-41.25,9.5625,0
74220,2,-42.9375,8.625,0
74240,3.375,-44.375,6.875,0
74260,7.9375,-44.9375,4,0
74280,7.4375,-46.25,1.375,0
74300,4.1875,-46.75,0.3125,0
74320,-1.0625,-48.1875,0.5625,0
74340,-1.9375,-49.3125,1.875,0
74360,-4.5625,-50.875,3.4375,0
74380,-6.625,-52.6875,3.9375,0
74400,-12.3125,-53.875,3.875,0
74420,-18.3125,-54.4375,2.5,0
74440,-22.9375,-55.0625,1.4375,0
74460,-22.8125,-56.8125,1.6875,0
74480,-20.0625,-58.375,2,0
74500,-22.9375,-60.25,1.5625,0
74520,-30.5625,-59.75,-0.5625,0
74540,-32.6875,-58.0625,-5.125,0
74560,-23.125,-55.5,-10.8125,0
74580,-18.4375,-56,-12.25,0
74600,-11.125,-53.9375,-15.0625,0
74620,-10.3125,-52.125,-21,0
74640,-15.875,-49.9375,-23.25,0
74660,-16.875,-47.5625,-23.9375,0
74680,-20.4375,-46.625,-23.4375,0
74700,-20.3125,-45.125,-26,0
74720,-18.5,-42.875,-28.625,0
74740,-19.9375,-42.1875,-27.5625,0
74760,-23.9375,-40.875,-26.4375,0
74780,-27.875,-36.8125,-24,0
74800,-25.8125,-33.375,-23.875,0
74820,-26.0625,-30.625,-24.875,0
74830,-29.9375,-27.875,-20.6875,0
74850,-32.6875,-23.6875,-14.0625,0
74870,-25.625,-16.9375,-15.0625,0
74890,-24.75,-9.875,-15.75,0
74910,-27,-4.5625,-15.4375,0
74930,-27.3125,1.4375,-18.5625,0
74950,-26.5,7.75,-20.6875,0
74970,-20.9375,13.625,-24.5,0
74990,-20.4375,16.6875,-29.375,0
75010,-22.8125,18.3125,-26.5,0
75030,-25.25,22.375,-24.9375,0
75050,-24.4375,28.8125,-27.0625,0
75070,-26.375,34.0625,-27.125,0
75090,-27.625,36.5625,-25.125,0
75110,-28.6875,41.875,-20.4375,0
75130,-26.625,48.5625,-18.375,0
75150,-24.5625,54.5625,-18.625,0
75170,-26.25,60.0625,-11.8125,0
75190,-20.75,64.125,-8.375,0
75210,-13.8125,65.5625,-8.5,0
75230,-17.625,65.4375,-10.6875,0
75250,-19.1875,67.4375,-13.8125,0
75270,-25.125,70.75,-13.1875,0
75290,-20.75,71.5,-12.1875,0
75310,-14.5625,71.6875,-12.3125,0
75330,-13.9375,71.3125,-12.3125,0
75350,-16.6875,71.9375,-12.3125,0
75370,-23.5,72.625,-4.875,0
75390,-21.9375,72.8125,4.875,0
75410,-10,69.1875,7.9375,0
75430,-1.0625,63,11.0625,0
75450,0.3125,59.6875,11.5,0
75470,-5.75,58.9375,17,0
75490,-4.9375,58.8125,23.3125,0
75510,2.625,56.4375,28.6875,0
75530,11,50.3125,28,0
75550,10.8125,46.75,26.8125,0
75570,4.75,45.75,29.4375,0
75590,4.25,43.75,32.6875,0
75610,9.1875,39.0625,35,0
75630,13.8125,35.375,30.6875,0
75650,13.6875,34.5,28.6875,0
75670,8.625,33.125,29.0625,0
75690,4.0625,29.5625,36,0
75710,20.25,22.875,37.1875,0
75730,29.5,16.5,33.0625,0
75750,29.125,14.375,25.5625,0
75770,19.4375,11.625,23.6875,0
75790,2.0625,6.8125,28.1875,0
75810,2.875,3.125,29.6875,0
75830,22.6875,-4.8125,26.625,0
75850,34.25,-11.1875,21.8125,0
75870,25.375,-15.0625,18.1875,0
75890,11.3125,-17.8125,17.3125,0
75910,10.8125,-21.625,17.75,0
75930,19.5625,-25.625,17.25,0
75950,25.125,-30.375,15.1875,0
75970,22.5,-32.25,12.875,0
75990,15.625,-32.5625,14.5,0
76010,12.375,-34.1875,15.75,0
76030,16.5625,-35.5,14.0625,0
76050,24.125,-38.5625,10.6875,0
76070,23.0625,-40.3125,10.375,0
76090,17.4375,-40.375,10.3125,0
76110,12.875,-42.9375,8.125,0
76130,9.9375,-45.25,4.9375,0
76150,11.0625,-46.8125,2.625,0
76170,10.625,-50.0625,3.5,0
76190,5,-51.6875,5.5,0
76210,-3.125,-54.375,4,0
76230,-6.75,-56.9375,2.125,0
76250,-12.4375,-58.875,3.75,0
76270,-17.375,-59.125,5.875,0
76290,-14.125,-58.375,2.875,0
76310,-7.9375,-57.375,-0.125,0
76330,-7.875,-57.3125,0.8125,0
76350,-5.375,-55.6875,-2.5,0
76370,0.0625,-51.75,-11.4375,0
76390,-0.8125,-47.875,-18.8125,0
76410,-5.1875,-48.6875,-17.8125,0
76430,-2.875,-50.125,-16.375,0
76450,-3.8125,-50.8125,-18,0
76470,-9.3125,-50.375,-17.6875,0
76490,-8,-48,-19.75,0
76510,-4.8125,-46.5,-23.625,0
76530,-3.4375,-45.5625,-25.375,0
76550,-5.375,-43.5,-26.375,0
76570,-10.1875,-41.625,-27.4375,0
76590,-13.5,-39.3125,-30.8125,0
76610,-13,-36.6875,-31.3125,0
76630,-12.1875,-33.4375,-32.5625,0
76650,-13.25,-30.125,-33.0625,0
76670,-16.625,-26.625,-35.5,0
76690,-18.625,-22.1875,-35.4375,0
76710,-20.125,-18.8125,-35.125,0
76730,-16.25,-17.125,-35.3125,0
76750,-12.75,-15.8125,-37.9375,0
76770,-16.375,-14.1875,-39.1875,0
76790,-24.875,-11.5,-41.0625,0
76800,-33.9375,-9.5625,-43.125,0
76820,-32.125,-8.5625,-42.5625,0
76840,-28.875,-6.25,-41.8125,0
76860,-31.75,-1.125,-41.6875,0
76880,-37.4375,5.5625,-41.125,0
76900,-37.6875,12.75,-41.125,0
76920,-32.5625,21.3125,-38.9375,0
76940,-32.5,23.625,-35.9375,0
76960,-38.75,26.25,-33.875,0
76980,-42.75,27.8125,-30.75,0
77000,-52.3125,31.4375,-27.25,0
77020,-46.9375,39,-21.6875,0
77040,-37.6875,44.4375,-18.0625,0
77060,-34.625,46.8125,-13.4375,0
77080,-35.875,51.625,-11,0
77100,-37,58.125,-10.125,0
77120,-34.75,63.875,-6.4375,0
77140,-32.0625,65,-2.5,0
77160,-29.9375,66.1875,-1.125,0
77180,-25.125,66.3125,3.3125,0
77200,-21.25,66,7.8125,0
77220,-17.125,66.375,10.1875,0
77240,-13.9375,66,10.75,0
77260,-11.125,64.5625,13.4375,0
77280,-10.6875,60.8125,17.5,0
77300,-6.3125,57.6875,22.5,0
77320,-3.25,57.375,26.6875,0
77340,-2.3125,57.9375,31.25,0
77360,5.875,55.9375,35.8125,0
77380,14.75,51.5,39.0625,0
77400,17.125,49.0625,40.3125,0
77420,13.625,47.4375,42.5,0
77440,15.9375,46.125,45.3125,0
77460,20.5,41.875,46.6875,0
77480,20.5,38.0625,46.25,0
77500,16,35.6875,45.75,0
77520,7.9375,33.0625,42.6875,0
77540,11.125,32.5625,39.75,0
77560,22,29.25,39.1875,0
77580,31.6875,24.0625,35.4375,0
77600,32.3125,21.25,30.5,0
77620,27.1875,21.625,28,0
77640,24.875,20.125,27.4375,0
77660,33.1875,14.9375,27.1875,0
77680,26.125,7.9375,25,0
77700,13.4375,2.375,18.125,0
77720,10.875,-2.0625,17.875,0
77740,21.75,-5.5,20.375,0
77760,31.75,-11.5,13.3125,0
77780,25.5625,-19.875,6.8125,0
77800,9.3125,-26.25,8.1875,0
77820,3.5625,-32.6875,12.25,0
77840,2.5625,-38.8125,14.4375,0
77860,-0.25,-45.625,13.375,0
77880,-1.8125,-49.375,11,0
77900,-4,-50.3125,11.75,0
77920,-1.125,-51.9375,11,0
77940,-0.25,-55.4375,8.5,0
77960,-1.1875,-56.875,8.4375,0
77980,-3.5,-59.125,4,0
78000,-4.9375,-60.25,-0.5625,0
78020,0.4375,-62.375,-2.5,0
78040,5.125,-65.75,-5.875,0
78060,4.125,-68.75,-9.875,0
78080,-2.0625,-70.75,-11.3125,0
78100,-6.125,-70.75,-10.9375,0
78120,-9,-70.6875,-13.25,0
78140,-4.25,-68.6875,-16.5,0
78160,-6.9375,-67.9375,-23.25,0
78180,-7.5,-66.5,-26.75,0
78200,-13.75,-66.9375,-26.25,0
78220,-23.3125,-65.625,-25.6875,0
78240,-25.875,-61.8125,-27.3125,0
78260,-21.9375,-55.875,-30.25,0
78280,-13.25,-51.375,-33.8125,0
78300,-15.75,-47.75,-37.5,0
78320,-20.8125,-41.9375,-39.3125,0
78340,-23,-37.375,-42.625,0
78360,-20.5625,-37.25,-40.3125,0
78380,-20.625,-37,-41,0
78400,-19.875,-33,-40.875,0
78420,-18.6875,-27.5,-40,0
78440,-15.75,-22,-38.75,0
78460,-9.3125,-16.25,-39.875,0
78480,-4.8125,-12,-39.75,0
78500,1.5,-9.9375,-40.375,0
78520,-2.875,-9.5,-38.75,0
78540,-4.3125,-4.625,-38,0
78560,2.8125,1.0625,-34.3125,0
78580,7.25,1.25,-33.25,0
78600,2.0625,0.5,-30.375,0
78620,-1.375,2.0625,-29.1875,0
78640,-0.75,2.5625,-28.1875,0
78660,0.4375,-0.625,-28.375,1001
78680,-0.6875,-2.8125,-26.3125,0
78700,-1.375,-3,-22.625,0
78720,-0.5,-2.75,-18.4375,0
78740,-1.5,-4.625,-14.9375,0
78760,-2.0625,-5.875,-12.5,0
78780,-5.25,-3.125,-8.6875,0
78800,-4,1.5,-5.0625,0
78820,-3.5625,3.3125,1.1875,0
78840,6.375,3.5,10.6875,0
78860,9.75,8.6875,16.75,0
78880,9.375,14.5625,28.75,0
78900,10,16.3125,41.0625,0
78920,11.5,15.8125,51.625,0
78940,26.625,15.75,55.75,0
78960,34.9375,15.375,63.8125,0
78980,37.625,12.3125,79.75,0
79000,34.25,10.5625,92.8125,0
79020,34.6875,12.5625,98.9375,0
79040,44.125,13,106.5,0
79060,48.25,4.625,109.625,0
79080,43.4375,-1.5625,109.5,0
79100,48,0.5,101.812,0
79120,52.5,-4.5625,92.4375,0
79140,51.1875,-13.375,86.1875,0
79160,52.125,-16.625,71.9375,0
79180,56.4375,-18.625,58.625,0
79200,54.5625,-20.3125,49.3125,0
79220,62,-18.3125,38.875,0
79240,63.0625,-19.75,28.4375,0
79260,58.6875,-22.875,27.1875,0
79280,49,-23.6875,25.9375,0
79300,39.625,-19.5625,20.1875,0
79320,33.25,-15.4375,22.1875,0
79340,20.0625,-8.6875,26,0
79360,13.1875,-5.5,29.4375,0
79380,15.9375,-3.6875,29.0625,0
79400,26.625,-3.1875,26.6875,0
79420,22.875,-5.75,26.1875,0
79440,8.4375,-8.875,27.375,0
79460,-0.0625,-8.4375,24,0
79480,-4.875,-8.6875,21.9375,0
79500,-3.9375,-10.625,21.5625,0
79520,1.3125,-10.3125,18.6875,0
79540,3.9375,-9.5625,14.25,0
79560,5.125,-6.25,11.75,0
79580,5.25,-1.0625,10.4375,0
79600,1.625,4,8.625,0
79620,0.875,6.4375,10.5,0
79640,5.125,7.25,12.6875,0
79660,4.0625,9.125,12.5625,0
79680,2.0625,9.625,12.6875,0
79700,2.75,10.0625,12.375,0
79720,5.125,8.1875,11.375,1000
79740,5.375,6.1875,8.375,0
79760,5.5625,3.5625,6.3125,0
79780,3.5,0.75,5.625,0
79800,1.75,1.25,6.375,0
79820,2.375,1.875,7.75,0
79840,3.9375,-0.25,9.375,0
79860,5.625,-1,13.5,0
79880,7.125,1,8.375,0
79900,4.8125,-3.3125,3.25,0
79920,-2.5625,-5.4375,0.9375,0
79940,-2.625,-9.0625,-0.0625,0
79960,-0.8125,-12.9375,-2.25,0
79980,0.5,-13.6875,-4.8125,0
80000,-1.75,-14.25,-6.375,0
80020,-2.8125,-14.8125,-7.625,0
80040,-5.625,-16.1875,-10,0
80060,-4.5,-19.9375,-11.3125,0
80080,-5.625,-22.875,-12.1875,0
80100,-10.0625,-23.75,-14.0625,0
80120,-13,-25.1875,-17.125,0
80140,-11.375,-25.6875,-20.375,0
80160,-9.4375,-27.1875,-24.25,0
80180,-12.625,-27.3125,-24.125,0
80200,-13.125,-26,-27.75,0
80220,-10.25,-24.875,-30.75,0
80230,-6.625,-23.8125,-32.4375,0
80250,-5.6875,-23.6875,-35.375,0
80270,-8.5625,-21.375,-36.9375,0
80290,-9.5,-16.0625,-36.25,0
80310,-0.75,-10.3125,-36.6875,0
80330,-1.125,-7.6875,-38.875,0
80350,-7.5,-2.1875,-35.1875,0
80370,-7,3.4375,-40.25,0
80390,-6.375,5.875,-38.5,0
80410,-9,7.1875,-34.5,0
80430,-8.8125,10,-31.6875,0
80450,-19.3125,15.1875,-25.125,0
80470,-22.5,21.3125,-16.75,0
80490,-21.875,26.5,-10.625,0
80510,-23.1875,28.1875,-7.5,0
80530,-28.25,32.375,-3.5,0
80550,-31.3125,39.3125,-0.375,0
80570,-31,44.0625,2.5625,0
80590,-32.75,47.8125,5.25,0
80610,-34.0625,53.5,5.3125,0
80630,-34.75,59.5625,3.4375,0
80650,-34.0625,65.4375,2.9375,0
80670,-29.3125,70.9375,4.3125,0
80690,-24.4375,73.875,1.875,0
80710,-24.625,76.625,0.5625,0
80730,-24.125,80.1875,-0.3125,0
80750,-20.3125,82.5,-3.125,0
80770,-17.5625,83.5,-2.3125,0
80790,-15.0625,83.9375,-1.9375,0
80810,-14.1875,82.875,-2.9375,0
80830,-12.625,80.25,-5.6875,0
80850,-12.9375,79.75,-7.5625,0
80860,-14.625,80.25,-4.4375,0
80880,-13.75,80.875,-3.125,0
80900,-8.6875,78.0625,-3.4375,0
80920,-2.3125,73.75,-5.25,0
80940,1.0625,69.5625,-5.125,0
80980,-1.0625,75.625,27.5625,0
81020,8.375,43.875,13.8125,0
81040,10.5,33.9375,10.5625,0
81060,9.375,30.9375,6.875,0
81070,4.25,32.1875,18.1875,0
81090,10.9375,29.375,21.125,0
81110,20.4375,21.6875,14.25,0
81130,16.375,15.375,10.9375,0
81150,9.0625,17.8125,9.875,0
81170,-2,20.5,11.75,0
81190,-11.875,20.625,22.25,0
81210,-2.5625,16.4375,30.6875,0
81230,20.1875,11.25,17.75,0
81250,8,6.5625,10.8125,0
81270,-14.9375,9.9375,11.5,0
81290,-26.6875,13.5625,15.75,0
81310,-17.125,14.9375,20.5,0
81330,2.1875,11.6875,25.5625,0
81350,22.1875,11.1875,20.4375,0
81370,21.25,11.625,13.375,0
81390,7.8125,8.25,11.3125,0
81410,3.875,2.375,16.75,0
81430,8.875,-0.4375,19.5625,0
81450,23.0625,-5.0625,15.9375,0
81470,18.0625,-8.8125,8.5,0
81490,7.1875,-10.25,8.1875,0
81510,6.9375,-13.5625,8.1875,0
81530,12.5625,-18.3125,6.8125,0
81550,16.5625,-24,4,0
81570,9.6875,-26.5,1.8125,0
81590,1.75,-32.6875,1.5625,0
81610,-4.8125,-36.9375,3.8125,0
81630,-3.5,-41.0625,4.1875,0
81650,-1.25,-44.5,4.75,0
81670,-3.9375,-47,5.125,0
81690,-4.9375,-48.4375,3.875,0
81710,-4.375,-49.1875,4.625,0
81730,-4,-50.9375,5.3125,0
81750,-7.25,-51.3125,3.25,0
81770,-8,-52.75,5,0
81790,-9.8125,-53.3125,7.5625,0
81810,-12.8125,-54.75,6.375,0
81830,-7.8125,-54.1875,4,0
81850,-5.625,-53.25,2.875,0
81870,-5.125,-52.8125,0.6875,0
81890,-3.75,-53.1875,-3.5625,0
81910,-2.25,-53.625,-5.1875,0
81930,-0.5,-54,-5.5,0
81950,-1.375,-56.3125,-5.1875,0
81970,-5,-56.875,-7.375,0
81990,-5.25,-57.375,-9.25,0
82010,-8.625,-58.6875,-9.0625,0
82030,-12.25,-59.25,-12.1875,0
82050,-10.75,-59.0625,-15.25,0
82070,-7.8125,-58.8125,-16.75,0
82090,-7.9375,-60.625,-16.875,0
82110,-11.5,-61.6875,-20,0
82130,-19,-60.6875,-22.5,0
82150,-21.25,-60.1875,-22.375,0
82160,-21.4375,-59.0625,-21.9375,0
82180,-16.9375,-56.6875,-25.125,0
82200,-15.25,-53.375,-27.875,0
82220,-15.125,-49,-27.25,0
82240,-19.375,-41.25,-28.0625,0
