Timestamp, Angle x, Angle y, Angle z, Marker
30,-2.41022,0.00508433,-2.20848,0
50,-2.41447,-0.0053676,-2.21156,0
70,-2.42053,-0.0156601,-2.21098,0
90,-2.42704,-0.0267366,-2.20758,0
110,-2.43532,-0.0355013,-2.20261,0
130,-2.4435,-0.0428452,-2.1962,0
150,-2.45061,-0.0486225,-2.18868,0
150,-2.45802,-0.0527445,-2.1807,0
190,-2.46456,-0.0563685,-2.17264,0
210,-2.47158,-0.0603373,-2.16436,0
230,-2.47912,-0.0644035,-2.15718,0
250,-2.48693,-0.0683331,-2.15044,0
270,-2.50725,-0.079421,-2.13814,0
290,-2.52103,-0.0935931,-2.13266,0
310,-2.53945,-0.121983,-2.12289,0
330,-2.56527,-0.144271,-2.11487,0
350,-2.58377,-0.161638,-2.10794,0
370,-2.59736,-0.181448,-2.09976,0
390,-2.60958,-0.204161,-2.08953,0
410,-2.62586,-0.230461,-2.0751,0
430,-2.64823,-0.26125,-2.05526,0
450,-2.67415,-0.290125,-2.03164,0
470,-2.69859,-0.314001,-2.00818,0
490,-2.71884,-0.333494,-1.98529,0
510,-2.73635,-0.349961,-1.96296,0
530,-2.75231,-0.364471,-1.9418,0
550,-2.76756,-0.377206,-1.92311,0
570,-2.78059,-0.387683,-1.90655,0
590,-2.78944,-0.39663,-1.89464,0
610,-2.7885,-0.39847,-1.88988,0
630,-2.78236,-0.394527,-1.88564,0
650,-2.77824,-0.388649,-1.87729,0
670,-2.77988,-0.380822,-1.86615,0
690,-2.78486,-0.370333,-1.85427,0
710,-2.78869,-0.358732,-1.8424,0
730,-2.78925,-0.345807,-1.83011,0
750,-2.78859,-0.331344,-1.81808,0
770,-2.78938,-0.311804,-1.80385,0
780,-2.78861,-0.295028,-1.79131,0
800,-2.78548,-0.282411,-1.78164,0
820,-2.78209,-0.267825,-1.77381,0
840,-2.77854,-0.253404,-1.76735,0
860,-2.77403,-0.241932,-1.76417,0
880,-2.76916,-0.234941,-1.76394,0
900,-2.76507,-0.230084,-1.76451,0
910,-2.76111,-0.228038,-1.76442,0
930,-2.75832,-0.229285,-1.76424,0
950,-2.75637,-0.231519,-1.76487,0
970,-2.75264,-0.233544,-1.76722,0
990,-2.74829,-0.236563,-1.77032,0
1010,-2.74473,-0.240837,-1.77226,0
1030,-2.7429,-0.246903,-1.77344,0
1050,-2.73914,-0.254652,-1.77499,0
1070,-2.73305,-0.262702,-1.77586,0
1090,-2.73688,-0.279621,-1.77052,0
1110,-2.7511,-0.301632,-1.76268,0
1130,-2.76558,-0.322839,-1.75099,0
1150,-2.77657,-0.336369,-1.73905,0
1170,-2.79433,-0.349241,-1.73065,0
1190,-2.79599,-0.366359,-1.72147,0
1210,-2.80067,-0.386321,-1.71055,0
1230,-2.80937,-0.411879,-1.70287,0
1250,-2.81877,-0.443258,-1.6958,0
1270,-2.83067,-0.480186,-1.68481,0
1290,-2.84265,-0.517487,-1.6696,0
1310,-2.85543,-0.552551,-1.65314,0
1330,-2.86633,-0.586053,-1.6344,0
1350,-2.87821,-0.61905,-1.6121,0
1370,-2.8929,-0.652084,-1.58637,0
1390,-2.91126,-0.684913,-1.55893,0
1410,-2.93145,-0.716372,-1.53014,0
1430,-2.95436,-0.744239,-1.49818,0
1450,-2.97786,-0.768666,-1.46421,0
1470,-3.00027,-0.788366,-1.42922,0
1490,-3.0218,-0.803874,-1.39409,0
1510,-3.04561,-0.816812,-1.35847,0
1530,-3.07244,-0.828016,-1.32365,0
1550,-3.10151,-0.837183,-1.2905,0
1570,-3.13164,-0.840552,-1.2586,0
1590,3.12972,-0.837906,-1.23124,0
1610,3.11418,-0.830455,-1.20831,0
1630,3.10261,-0.820793,-1.18859,0
1650,3.09228,-0.810623,-1.1722,0
1670,3.08378,-0.799146,-1.16,0
1690,3.08126,-0.784521,-1.15331,0
1710,3.0849,-0.769714,-1.15139,0
1730,3.09063,-0.753967,-1.15195,0
1750,3.09612,-0.740364,-1.15513,0
1770,3.10259,-0.72756,-1.15975,0
1790,3.10921,-0.714206,-1.16521,0
1810,3.11425,-0.701585,-1.16836,0
1830,3.12012,-0.689023,-1.1685,0
1850,3.12308,-0.676134,-1.16693,0
1870,3.12402,-0.66507,-1.16652,0
1890,3.12754,-0.656774,-1.17145,0
1910,3.13013,-0.648723,-1.17743,0
1930,3.13085,-0.643674,-1.1798,0
1950,3.13186,-0.641411,-1.17421,0
1970,3.13128,-0.636505,-1.15878,0
1990,3.12825,-0.631619,-1.13567,0
2010,3.12663,-0.628399,-1.10853,0
2030,3.12212,-0.629509,-1.08816,0
2050,3.12078,-0.633008,-1.0743,0
2070,3.12283,-0.638673,-1.06282,0
2090,3.12716,-0.644586,-1.0546,0
2110,3.13541,-0.647542,-1.05178,0
2130,-3.12652,-0.645216,-1.06458,0
2150,-3.12895,-0.641335,-1.0752,0
2170,-3.11314,-0.641159,-1.07632,0
2190,-3.10221,-0.637958,-1.07026,0
2210,-3.10174,-0.635177,-1.05853,0
2230,-3.10426,-0.635364,-1.05119,0
2250,-3.10515,-0.639136,-1.0458,0
2270,-3.10374,-0.642834,-1.03919,0
2290,-3.10539,-0.643664,-1.03082,0
2310,-3.10844,-0.64312,-1.01937,0
2330,-3.11191,-0.642977,-1.00466,0
2350,-3.11979,-0.641971,-0.987324,0
2370,-3.13147,-0.641573,-0.969823,0
2390,3.13899,-0.642627,-0.953421,0
2410,3.12939,-0.645934,-0.939949,0
2430,3.12121,-0.650548,-0.930449,0
2450,3.11565,-0.654874,-0.923796,0
2470,3.11102,-0.656483,-0.919168,0
2490,3.11332,-0.653032,-0.918273,0
2510,3.11937,-0.646433,-0.918364,0
2530,3.12643,-0.638439,-0.921339,0
2550,3.13502,-0.631311,-0.926724,0
2570,-3.13441,-0.624189,-0.93593,0
2590,-3.12134,-0.616983,-0.945987,0
2610,-3.11366,-0.60928,-0.955453,0
2630,-3.1038,-0.603194,-0.965558,0
2650,-3.09609,-0.599582,-0.973542,0
2670,-3.09482,-0.597003,-0.978401,0
2690,-3.09739,-0.59414,-0.980491,0
2710,-3.1057,-0.592812,-0.978953,0
2730,-3.12061,-0.592048,-0.972561,0
2750,-3.13994,-0.592795,-0.96413,0
2760,3.12819,-0.593503,-0.956487,0
2780,3.11827,-0.592757,-0.947793,0
2800,3.1022,-0.591089,-0.935752,0
2820,3.08316,-0.590727,-0.922645,0
2840,3.06503,-0.591084,-0.91129,0
2860,3.05264,-0.589257,-0.902576,0
2880,3.04479,-0.583499,-0.894931,0
2900,3.03847,-0.577335,-0.887627,0
2920,3.03012,-0.573343,-0.881448,0
2940,3.02187,-0.569702,-0.875962,0
2960,3.01456,-0.566199,-0.871487,0
2980,3.0104,-0.564119,-0.868424,0
3000,3.00691,-0.564915,-0.865551,0
3020,3.00372,-0.568354,-0.863266,0
3040,3.00168,-0.57493,-0.862153,0
3060,2.99934,-0.58391,-0.862427,0
3080,2.99759,-0.592694,-0.863118,0
3100,2.9988,-0.599614,-0.865637,0
3120,3.00222,-0.604972,-0.868877,0
3140,3.00415,-0.60866,-0.870845,0
3160,3.00373,-0.61267,-0.871617,0
3180,3.00287,-0.61534,-0.871826,0
3200,3.00177,-0.616559,-0.871635,0
3220,3.00067,-0.617305,-0.870668,0
3240,2.99834,-0.617765,-0.868301,0
3260,2.99456,-0.618371,-0.864679,0
3280,2.99075,-0.619276,-0.860497,0
3300,2.98794,-0.619637,-0.856121,0
3320,2.98356,-0.620488,-0.851089,0
3340,2.97769,-0.622189,-0.844493,0
3360,2.96955,-0.623901,-0.836981,0
3380,2.96057,-0.624327,-0.828447,0
3400,2.94994,-0.62413,-0.818417,0
3420,2.93906,-0.624445,-0.809219,0
3440,2.93213,-0.626227,-0.802343,0
3460,2.92663,-0.628481,-0.796862,0
3480,2.92232,-0.628068,-0.792228,0
3500,2.92053,-0.626453,-0.78912,0
3520,2.91945,-0.626203,-0.787128,0
3540,2.91811,-0.626904,-0.785457,0
3560,2.91765,-0.627258,-0.784346,0
3580,2.91875,-0.625895,-0.784076,0
3600,2.91997,-0.624146,-0.78423,0
3620,2.91961,-0.62341,-0.783967,0
3640,2.91738,-0.623576,-0.783356,0
3660,2.91581,-0.623664,-0.783186,0
3680,2.91457,-0.624286,-0.784,0
3700,2.91516,-0.625383,-0.785606,0
3720,2.91576,-0.627085,-0.78694,0
3740,2.9168,-0.630068,-0.788592,0
3760,2.91828,-0.634104,-0.790829,0
3780,2.92127,-0.63924,-0.794798,0
3800,2.92508,-0.646609,-0.801407,0
3820,2.92984,-0.655691,-0.811587,0
3840,2.94047,-0.664599,-0.826274,0
3860,2.95545,-0.675236,-0.846824,0
3880,2.97045,-0.689472,-0.871389,0
3900,2.98429,-0.706103,-0.898694,0
3920,2.99935,-0.722394,-0.928647,0
3940,3.01664,-0.734633,-0.960303,0
3960,3.03488,-0.742192,-0.992188,0
3980,3.0548,-0.745869,-1.02496,0
4000,3.07631,-0.746353,-1.05947,0
4020,3.09967,-0.742739,-1.09486,0
4040,3.12267,-0.734664,-1.12866,0
4060,-3.13755,-0.722865,-1.16003,0
4080,-3.11353,-0.707795,-1.19104,0
4100,-3.086,-0.688747,-1.2239,0
4120,-3.05401,-0.663536,-1.25802,0
4140,-3.0191,-0.63483,-1.29297,0
4160,-2.98713,-0.602497,-1.32702,0
4180,-2.95835,-0.569164,-1.35935,0
4200,-2.93062,-0.537962,-1.39074,0
4220,-2.90188,-0.5078,-1.42101,0
4240,-2.87925,-0.481652,-1.44572,0
4260,-2.86533,-0.464686,-1.46116,0
4280,-2.85534,-0.457451,-1.47014,0
4300,-2.84587,-0.45912,-1.47474,0
4320,-2.83922,-0.469712,-1.47623,0
4340,-2.83633,-0.48565,-1.47693,0
4360,-2.83613,-0.497884,-1.47604,0
4380,-2.83847,-0.512183,-1.47235,0
4400,-2.84185,-0.528185,-1.46762,0
4420,-2.8452,-0.547018,-1.46321,0
4440,-2.8499,-0.567126,-1.45854,0
4460,-2.8514,-0.584326,-1.45342,0
4480,-2.8521,-0.598529,-1.44754,0
4500,-2.85495,-0.612757,-1.44034,0
4520,-2.85903,-0.628034,-1.42995,0
4540,-2.86619,-0.642438,-1.41509,0
4560,-2.87713,-0.654534,-1.39654,0
4580,-2.89291,-0.664273,-1.3748,0
4600,-2.91345,-0.67396,-1.35063,0
4620,-2.93549,-0.682756,-1.3257,0
4640,-2.9566,-0.690715,-1.30125,0
4660,-2.97686,-0.696842,-1.27664,0
4680,-2.99479,-0.699974,-1.25418,0
4700,-3.00956,-0.702698,-1.235,0
4720,-3.02563,-0.70703,-1.21729,0
4740,-3.04115,-0.712537,-1.2012,0
4760,-3.05461,-0.717262,-1.18677,0
4780,-3.06393,-0.719222,-1.17522,0
4800,-3.07114,-0.718998,-1.1661,0
4820,-3.07694,-0.717551,-1.15797,0
4840,-3.08337,-0.716331,-1.14975,0
4860,-3.08956,-0.713937,-1.14129,0
4880,-3.09398,-0.709737,-1.13403,0
4900,-3.09783,-0.706177,-1.12704,0
4920,-3.10311,-0.703688,-1.11939,0
4940,-3.11076,-0.701899,-1.1104,0
4960,-3.11749,-0.700913,-1.10217,0
4980,-3.12373,-0.700635,-1.09448,0
5000,-3.13006,-0.70071,-1.08698,0
5020,-3.13524,-0.70103,-1.08032,0
5040,-3.1398,-0.701541,-1.07435,0
5060,3.13934,-0.702648,-1.06905,0
5080,3.13674,-0.703537,-1.06541,0
5100,3.13433,-0.704413,-1.06228,0
5120,3.13078,-0.706246,-1.05836,0
5140,3.12759,-0.70875,-1.05442,0
5160,3.12398,-0.711465,-1.04973,0
5180,3.1203,-0.713799,-1.04463,0
5200,3.11639,-0.715599,-1.03859,0
5220,3.11135,-0.716656,-1.0311,0
5240,3.10687,-0.717342,-1.02359,0
5260,3.102,-0.716956,-1.01572,0
5280,3.09789,-0.713775,-1.00794,0
5300,3.0925,-0.706885,-1.00086,0
5320,3.09188,-0.699605,-0.996399,0
5340,3.09296,-0.692728,-0.99261,0
5360,3.09692,-0.687897,-0.991825,0
5380,3.0965,-0.685951,-0.991944,0
5400,3.0994,-0.681706,-0.995317,0
5420,3.1138,-0.676485,-1.00052,0
5440,3.1213,-0.674274,-1.0005,0
5460,3.12031,-0.678005,-0.993629,0
5480,3.10774,-0.683551,-0.982417,0
5500,3.09665,-0.683312,-0.970276,0
5520,3.09233,-0.675869,-0.957752,0
5540,3.08194,-0.670926,-0.940485,0
5560,3.06332,-0.670465,-0.920234,0
5580,3.0445,-0.672301,-0.901936,0
5600,3.03074,-0.67426,-0.887644,0
5620,3.02037,-0.675084,-0.875068,0
5640,3.01024,-0.675342,-0.86445,0
5660,3.00186,-0.674516,-0.856192,0
5680,2.99723,-0.67221,-0.851199,0
5700,2.99626,-0.667839,-0.84862,0
5720,2.99762,-0.661679,-0.847232,0
5740,2.99773,-0.657568,-0.845939,0
5760,2.99494,-0.655028,-0.843728,0
5780,2.99223,-0.650448,-0.8408,0
5800,2.99212,-0.642756,-0.838038,0
5820,2.9917,-0.636472,-0.834599,0
5840,2.9903,-0.63116,-0.830253,0
5860,2.99138,-0.627457,-0.827622,0
5880,2.99133,-0.624707,-0.824553,0
5900,2.99033,-0.623228,-0.821334,0
5920,2.99069,-0.622996,-0.819022,0
5940,2.9915,-0.622482,-0.817668,0
5960,2.99258,-0.621468,-0.816501,0
5980,2.99241,-0.620097,-0.814941,0
6000,2.99222,-0.617733,-0.813759,0
6020,2.99254,-0.61396,-0.812918,0
6040,2.9923,-0.609946,-0.811864,0
6060,2.99118,-0.605933,-0.810742,0
6080,2.99137,-0.601895,-0.810283,0
6100,2.9917,-0.598591,-0.809753,0
6120,2.99057,-0.597454,-0.808403,0
6140,2.98776,-0.598751,-0.805992,0
6160,2.98456,-0.600119,-0.803643,0
6180,2.98289,-0.600171,-0.801639,0
6190,2.98144,-0.599496,-0.799936,0
6210,2.98037,-0.59913,-0.798621,0
6230,2.97909,-0.598871,-0.79739,0
6250,2.97828,-0.598807,-0.796618,0
6270,2.97785,-0.599086,-0.795678,0
6290,2.97735,-0.599034,-0.794988,0
6310,2.97662,-0.598884,-0.794069,0
6330,2.97631,-0.599004,-0.793295,0
6350,2.97576,-0.598956,-0.791881,0
6370,2.97445,-0.599307,-0.789677,0
6390,2.97229,-0.599294,-0.786994,0
6410,2.97019,-0.598887,-0.784001,0
6430,2.9678,-0.598284,-0.780795,0
6450,2.96515,-0.597686,-0.777096,0
6470,2.96155,-0.597346,-0.77261,0
6490,2.95807,-0.597414,-0.767996,0
6510,2.95388,-0.597833,-0.762817,0
6530,2.94882,-0.598607,-0.756547,0
6550,2.94181,-0.599734,-0.748794,0
6570,2.9333,-0.600644,-0.739925,0
6590,2.92328,-0.601544,-0.729118,0
6610,2.91291,-0.601738,-0.717375,0
6630,2.90288,-0.600591,-0.705354,0
6650,2.89328,-0.598816,-0.693487,0
6670,2.88376,-0.597711,-0.68253,0
6690,2.87536,-0.596882,-0.673252,0
6710,2.86937,-0.595712,-0.666148,0
6730,2.86534,-0.594558,-0.661111,0
6750,2.86256,-0.594565,-0.65789,0
6770,2.86028,-0.595001,-0.65549,0
6790,2.85875,-0.595555,-0.65381,0
6810,2.8576,-0.59661,-0.652383,0
6830,2.85621,-0.597958,-0.65085,0
6850,2.85564,-0.598842,-0.64982,0
6870,2.85599,-0.599736,-0.649602,0
6890,2.85702,-0.600738,-0.650268,0
6910,2.85826,-0.602031,-0.651385,0
6930,2.85971,-0.603614,-0.652954,0
6950,2.86089,-0.60559,-0.654152,0
6970,2.86222,-0.60796,-0.655407,0
6990,2.8633,-0.61051,-0.656138,0
7010,2.86333,-0.613555,-0.655919,0
7030,2.86313,-0.616917,-0.655059,0
7050,2.86154,-0.62102,-0.653381,0
7070,2.86063,-0.625236,-0.651604,0
7090,2.85936,-0.629082,-0.649445,0
7110,2.8584,-0.632355,-0.647548,0
7130,2.8576,-0.635813,-0.645546,0
7150,2.85638,-0.638977,-0.643424,0
7170,2.85525,-0.64145,-0.641348,0
7190,2.85437,-0.643821,-0.639332,0
7210,2.85355,-0.645913,-0.637348,0
7230,2.85199,-0.648285,-0.634969,0
7250,2.85032,-0.650653,-0.632618,0
7270,2.8488,-0.652116,-0.629872,0
7290,2.84793,-0.653032,-0.627483,0
7310,2.84708,-0.654067,-0.625526,0
7330,2.84626,-0.655096,-0.623696,0
7350,2.8459,-0.65613,-0.622438,0
7370,2.84562,-0.6571,-0.621501,0
7390,2.84585,-0.658183,-0.620825,0
7410,2.84592,-0.659735,-0.620097,0
7430,2.84609,-0.661731,-0.619775,0
7450,2.84599,-0.664072,-0.619126,0
7470,2.84619,-0.66599,-0.618542,0
7490,2.84637,-0.667891,-0.618376,0
7510,2.84637,-0.669371,-0.618443,0
7530,2.84697,-0.671143,-0.618841,0
7550,2.84753,-0.672685,-0.619245,0
7570,2.84843,-0.673205,-0.619491,0
7590,2.84995,-0.673188,-0.619846,0
7610,2.85043,-0.673089,-0.619703,0
7630,2.85124,-0.673166,-0.619538,0
7650,2.85134,-0.673335,-0.618852,0
7670,2.85172,-0.673112,-0.618431,0
7690,2.85255,-0.672236,-0.617864,0
7710,2.85296,-0.671521,-0.617067,0
7730,2.8533,-0.669992,-0.615942,0
7750,2.85394,-0.667994,-0.614818,0
7770,2.85302,-0.666555,-0.612633,0
7790,2.85258,-0.664588,-0.611486,0
7810,2.85295,-0.662555,-0.610415,0
7830,2.85362,-0.660539,-0.609846,0
7850,2.85472,-0.658946,-0.609832,0
7870,2.85547,-0.658556,-0.609928,0
7890,2.85563,-0.659368,-0.610219,0
7910,2.85664,-0.660253,-0.61134,0
7930,2.85756,-0.661205,-0.612144,0
7950,2.85825,-0.66259,-0.612729,0
7970,2.85881,-0.663687,-0.613565,0
7990,2.85999,-0.664294,-0.614702,0
8010,2.86135,-0.664796,-0.615939,0
8030,2.86204,-0.664775,-0.616849,0
8050,2.86442,-0.664871,-0.619101,0
8070,2.868,-0.665401,-0.62213,0
8090,2.86929,-0.666466,-0.624022,0
8110,2.87001,-0.667092,-0.624923,0
8130,2.871,-0.666793,-0.625658,0
8150,2.87308,-0.666782,-0.626567,0
8170,2.8741,-0.667984,-0.626985,0
8180,2.8734,-0.669369,-0.626604,0
8200,2.87305,-0.670394,-0.625907,0
8220,2.87284,-0.671171,-0.625414,0
8240,2.87292,-0.67123,-0.62517,0
8260,2.87329,-0.671084,-0.625143,0
8280,2.87325,-0.671606,-0.624983,0
8300,2.87321,-0.672127,-0.624823,0
8320,2.87347,-0.672589,-0.624774,0
8340,2.87343,-0.672546,-0.624732,0
8360,2.87397,-0.673119,-0.62504,0
8380,2.87421,-0.673753,-0.625237,0
8400,2.87419,-0.674584,-0.625346,0
8420,2.87395,-0.675441,-0.62512,0
8440,2.87388,-0.67677,-0.625486,0
8460,2.87449,-0.67786,-0.626485,0
8480,2.87524,-0.679217,-0.627663,0
8500,2.87545,-0.681297,-0.628676,0
8520,2.87485,-0.683742,-0.629421,0
8540,2.87447,-0.686292,-0.62994,0
8560,2.87426,-0.688516,-0.630396,0
8580,2.87417,-0.690449,-0.631017,0
8600,2.87408,-0.692187,-0.63181,0
8620,2.87347,-0.693271,-0.632011,0
8640,2.87186,-0.694783,-0.631766,0
8660,2.87013,-0.696123,-0.631322,0
8680,2.86959,-0.696924,-0.631553,0
8700,2.86925,-0.697904,-0.631825,0
8720,2.86851,-0.698849,-0.632158,0
8740,2.8666,-0.699857,-0.631908,0
8760,2.86464,-0.701104,-0.631688,0
8780,2.86362,-0.702624,-0.632008,0
8800,2.8636,-0.703748,-0.633114,0
8820,2.86336,-0.704149,-0.63374,0
8840,2.86206,-0.705114,-0.634124,0
8860,2.86098,-0.707055,-0.634729,0
8880,2.86128,-0.708271,-0.636768,0
8900,2.86267,-0.708494,-0.63906,0
8920,2.8629,-0.707586,-0.640134,0
8940,2.86327,-0.706949,-0.64139,0
8960,2.8625,-0.707917,-0.642516,0
8980,2.86202,-0.708926,-0.643609,0
9000,2.86367,-0.708103,-0.645874,0
9020,2.86594,-0.70615,-0.648485,0
9040,2.86721,-0.705,-0.650861,0
9060,2.86704,-0.705714,-0.653098,0
9080,2.86716,-0.706184,-0.655225,0
9100,2.86793,-0.705997,-0.65774,0
9120,2.86932,-0.705448,-0.660318,0
9140,2.86994,-0.705511,-0.66263,0
9160,2.8704,-0.705834,-0.664606,0
9180,2.87065,-0.706407,-0.666539,0
9200,2.87025,-0.70662,-0.667698,0
9220,2.86931,-0.706695,-0.668226,0
9240,2.8688,-0.706323,-0.668753,0
9260,2.86871,-0.705736,-0.669448,0
9280,2.86781,-0.705627,-0.669852,0
9300,2.86673,-0.705243,-0.670364,0
9320,2.86712,-0.705031,-0.671756,0
9340,2.86767,-0.705234,-0.673228,0
9360,2.86913,-0.705453,-0.675378,0
9380,2.87087,-0.705596,-0.677939,0
9400,2.87262,-0.706076,-0.680227,0
9420,2.87332,-0.706507,-0.681556,0
9440,2.8741,-0.707989,-0.682538,0
9460,2.87326,-0.710474,-0.681952,0
9480,2.87215,-0.713337,-0.680603,0
9500,2.87064,-0.715741,-0.678103,0
9520,2.86894,-0.717649,-0.675098,0
9540,2.86764,-0.719441,-0.672105,0
9560,2.86641,-0.721052,-0.668686,0
9580,2.86484,-0.722888,-0.664901,0
9600,2.86394,-0.724442,-0.661298,0
9620,2.86499,-0.726026,-0.658389,0
9640,2.86786,-0.727702,-0.654948,0
9660,2.87032,-0.730346,-0.649937,0
9680,2.87127,-0.733114,-0.643337,0
9700,2.87262,-0.734554,-0.635021,0
9720,2.87369,-0.73612,-0.624631,0
9740,2.8723,-0.739689,-0.611422,0
9760,2.86761,-0.743625,-0.59519,0
9780,2.86096,-0.747055,-0.577568,0
9800,2.85349,-0.751245,-0.559346,0
9820,2.84424,-0.758496,-0.540036,0
9840,2.83646,-0.76553,-0.52148,0
9860,2.82839,-0.768572,-0.500272,0
9880,2.81727,-0.769541,-0.475717,0
9900,2.80191,-0.769658,-0.447426,0
9920,2.78093,-0.777268,-0.420768,0
9940,2.76012,-0.784801,-0.391894,0
9960,2.74086,-0.787612,-0.360362,0
9980,2.72422,-0.78568,-0.329179,0
10000,2.7087,-0.779167,-0.297861,0
10020,2.6949,-0.769874,-0.266382,0
10040,2.68475,-0.760244,-0.236339,0
10060,2.68187,-0.749597,-0.210279,0
10080,2.68898,-0.738084,-0.188826,0
10100,2.70594,-0.727763,-0.173414,0
10120,2.72734,-0.71803,-0.164351,0
10140,2.75464,-0.710292,-0.161123,0
10160,2.78666,-0.707315,-0.165005,0
10180,2.82435,-0.708855,-0.176913,0
10200,2.87065,-0.713844,-0.198702,0
10220,2.92915,-0.72733,-0.232545,0
10240,2.99928,-0.744822,-0.277496,0
10260,3.08301,-0.765995,-0.33631,0
10280,-3.09989,-0.790003,-0.410294,0
10300,-2.97897,-0.81567,-0.502297,0
10320,-2.84782,-0.837385,-0.611055,0
10340,-2.70553,-0.854226,-0.73278,0
10360,-2.55418,-0.862072,-0.866546,0
10380,-2.4092,-0.852171,-1.00523,0
10400,-2.26407,-0.826394,-1.13725,0
10420,-2.11641,-0.786191,-1.2583,0
10440,-1.97852,-0.730363,-1.36486,0
10460,-1.86403,-0.660554,-1.45511,0
10480,-1.76086,-0.581495,-1.53346,0
10500,-1.65982,-0.495567,-1.60352,0
10520,-1.56785,-0.404349,-1.66413,0
10540,-1.49081,-0.306765,-1.71585,0
10560,-1.42955,-0.20013,-1.75706,0
10580,-1.36888,-0.0918253,-1.78796,0
10600,-1.3116,0.00685349,-1.80728,0
10620,-1.27146,0.0976366,-1.82293,0
10640,-1.24613,0.191028,-1.84022,0
10660,-1.22708,0.283117,-1.8584,0
10680,-1.21049,0.372505,-1.87974,0
10700,-1.1931,0.460132,-1.90108,0
10720,-1.18079,0.54364,-1.91794,0
10740,-1.16734,0.624011,-1.93347,0
10760,-1.14928,0.699401,-1.94465,0
10780,-1.13098,0.770287,-1.95939,0
10800,-1.11691,0.83868,-1.97743,0
10820,-1.10664,0.905037,-1.9957,0
10840,-1.09986,0.965815,-2.01579,0
10860,-1.09695,1.02188,-2.04261,0
10880,-1.09979,1.07456,-2.07902,0
10900,-1.11463,1.12381,-2.12695,0
10920,-1.14713,1.16747,-2.18679,0
10940,-1.18948,1.20218,-2.25066,0
10960,-1.23875,1.22548,-2.31618,0
10980,-1.28177,1.24221,-2.3704,0
11000,-1.31323,1.25298,-2.40645,0
11020,-1.33075,1.25754,-2.41843,0
11040,-1.34023,1.2554,-2.41221,0
11060,-1.34514,1.24907,-2.39045,0
11080,-1.34649,1.23896,-2.35861,0
11100,-1.35943,1.22789,-2.33295,0
11120,-1.37398,1.21225,-2.30754,0
11140,-1.38681,1.19213,-2.28377,0
11160,-1.37759,1.16405,-2.24765,0
11180,-1.36347,1.13201,-2.21814,0
11200,-1.34618,1.09737,-2.19628,0
11220,-1.33518,1.0599,-2.18886,0
11240,-1.32073,1.02116,-2.18474,0
11260,-1.30242,0.982095,-2.18108,0
11280,-1.28235,0.943833,-2.17643,0
11300,-1.26263,0.907399,-2.16943,0
11320,-1.24209,0.879171,-2.15705,0
11340,-1.22606,0.85357,-2.14187,0
11360,-1.21566,0.830545,-2.12453,0
11380,-1.20935,0.809507,-2.10443,0
11400,-1.20653,0.790532,-2.08257,0
11420,-1.20577,0.773639,-2.05971,0
11440,-1.20586,0.76032,-2.03655,0
11460,-1.20614,0.752248,-2.01302,0
11480,-1.20743,0.749424,-1.9893,0
11500,-1.209,0.751315,-1.96467,0
11520,-1.20994,0.75697,-1.9388,0
11540,-1.20908,0.765995,-1.91014,0
11560,-1.209,0.779259,-1.87922,0
11580,-1.21116,0.795859,-1.84632,0
11600,-1.21793,0.815525,-1.81329,0
11610,-1.22904,0.837661,-1.78175,0
11630,-1.24041,0.86102,-1.75161,0
11650,-1.24676,0.883791,-1.723,0
11670,-1.24287,0.903991,-1.69589,0
11690,-1.2294,0.920507,-1.67141,0
11710,-1.21064,0.934366,-1.64984,0
11730,-1.19314,0.947713,-1.63239,0
11750,-1.17991,0.961637,-1.61928,0
11770,-1.17252,0.97729,-1.61238,0
11790,-1.16839,0.993843,-1.61009,0
11810,-1.16641,1.01147,-1.61349,0
11830,-1.1651,1.02766,-1.62153,0
11850,-1.16498,1.04249,-1.63361,0
11870,-1.16688,1.05533,-1.64984,0
11890,-1.17181,1.06552,-1.67011,0
11910,-1.18211,1.07443,-1.69592,0
11930,-1.19676,1.08312,-1.72731,0
11950,-1.21289,1.09085,-1.76072,0
11970,-1.23084,1.09547,-1.79553,0
11990,-1.25013,1.09692,-1.83055,0
12010,-1.26971,1.09689,-1.8662,0
12030,-1.29167,1.09822,-1.90395,0
12050,-1.31314,1.10127,-1.93963,0
12070,-1.33497,1.1055,-1.97374,0
12090,-1.35992,1.10961,-2.00961,0
12110,-1.3873,1.11376,-2.04621,0
12130,-1.41375,1.11599,-2.08183,0
12150,-1.4324,1.11431,-2.11358,0
12170,-1.43907,1.10832,-2.13933,0
12190,-1.43324,1.10123,-2.15875,0
12210,-1.41946,1.09606,-2.17371,0
12230,-1.40461,1.0928,-2.18888,0
12250,-1.39087,1.09091,-2.20595,0
12270,-1.37422,1.08997,-2.2229,0
12290,-1.35105,1.08887,-2.23579,0
12310,-1.32205,1.08743,-2.24093,0
12330,-1.29492,1.08718,-2.23723,0
12350,-1.27779,1.08916,-2.22495,0
12370,-1.27467,1.09222,-2.20607,0
12390,-1.28068,1.09429,-2.18214,0
12410,-1.28386,1.09212,-2.1529,0
12430,-1.27817,1.08448,-2.12102,0
12450,-1.26045,1.07276,-2.08719,0
12470,-1.2325,1.05906,-2.05161,0
12490,-1.20072,1.04421,-2.01549,0
12510,-1.16956,1.02815,-1.97979,0
12530,-1.14092,1.01044,-1.94422,0
12550,-1.11544,0.991094,-1.90884,0
12570,-1.09297,0.971279,-1.87391,0
12590,-1.07408,0.951319,-1.84,0
12610,-1.06054,0.93199,-1.80913,0
12630,-1.0528,0.913788,-1.78286,0
12650,-1.04901,0.897532,-1.76137,0
12670,-1.04879,0.884037,-1.74603,0
12690,-1.05143,0.873901,-1.73711,0
12710,-1.05573,0.867977,-1.73428,0
12730,-1.06187,0.86666,-1.73796,0
12750,-1.06935,0.870342,-1.74789,0
12770,-1.07683,0.879847,-1.76369,0
12790,-1.08494,0.89474,-1.78558,0
12810,-1.09582,0.912842,-1.81352,0
12830,-1.11104,0.933871,-1.84672,0
12850,-1.13145,0.957102,-1.88415,0
12870,-1.15626,0.980546,-1.92543,0
12890,-1.18568,1.00454,-1.96937,0
12910,-1.21543,1.02891,-2.01371,0
12930,-1.24517,1.052,-2.05879,0
12950,-1.27482,1.07106,-2.10349,0
12970,-1.30451,1.08461,-2.14703,0
12990,-1.33135,1.09237,-2.18603,0
13010,-1.35454,1.09607,-2.2206,0
13030,-1.37104,1.09656,-2.24916,0
13050,-1.37908,1.09445,-2.27244,0
13070,-1.38069,1.08987,-2.29374,0
13090,-1.37709,1.08281,-2.31511,0
13110,-1.36825,1.07394,-2.33784,0
13130,-1.35651,1.06427,-2.3625,0
13150,-1.34478,1.05655,-2.38992,0
13170,-1.32956,1.04979,-2.41493,0
13190,-1.31145,1.04345,-2.43578,0
13210,-1.29581,1.03556,-2.45438,0
13230,-1.28424,1.02879,-2.47043,0
13250,-1.27878,1.02369,-2.48296,0
13270,-1.27858,1.01929,-2.49248,0
13290,-1.28097,1.01563,-2.49951,0
13310,-1.283,1.01193,-2.5044,0
13330,-1.28163,1.00834,-2.5075,0
13350,-1.27686,1.0037,-2.51018,0
13370,-1.27105,0.99825,-2.5153,0
13390,-1.26367,0.992952,-2.5228,0
13410,-1.25557,0.988351,-2.53427,0
13430,-1.24748,0.985916,-2.54979,0
13450,-1.23955,0.985321,-2.56905,0
13470,-1.23216,0.987233,-2.59076,0
13490,-1.22596,0.991246,-2.61233,0
13510,-1.22223,0.995812,-2.634,0
13530,-1.21889,0.999566,-2.65589,0
13550,-1.21399,1.00372,-2.67853,0
13570,-1.2058,1.01097,-2.69971,0
13590,-1.19538,1.02228,-2.71907,0
13610,-1.18591,1.03526,-2.73615,0
13620,-1.17978,1.04819,-2.75098,0
13640,-1.17446,1.06018,-2.7599,0
13660,-1.17026,1.07101,-2.76326,0
13680,-1.16454,1.08009,-2.76138,0
13700,-1.15511,1.08698,-2.75552,0
13720,-1.14091,1.09243,-2.74619,0
13740,-1.12404,1.09684,-2.73591,0
13760,-1.10567,1.10064,-2.72623,0
13780,-1.08681,1.10375,-2.72095,0
13800,-1.06859,1.10733,-2.72217,0
13820,-1.04959,1.11005,-2.7291,0
13840,-1.02884,1.11162,-2.7385,0
13860,-1.00505,1.11304,-2.7471,0
13880,-0.980977,1.11418,-2.75392,0
13900,-0.9602,1.11431,-2.76013,0
13920,-0.944549,1.11326,-2.7673,0
13940,-0.934034,1.11171,-2.77626,0
13960,-0.928573,1.10987,-2.78889,0
13980,-0.927798,1.10788,-2.80641,0
14000,-0.930003,1.10611,-2.83019,0
14020,-0.934755,1.10432,-2.86156,0
14040,-0.94269,1.10375,-2.90178,0
14060,-0.953901,1.10409,-2.95199,0
14080,-0.975242,1.10658,-3.01784,0
14100,-1.00202,1.11053,-3.09472,0
14120,-1.03356,1.11602,3.10289,0
14140,-1.07058,1.12304,3.01017,0
14160,-1.11382,1.13071,2.91341,0
14180,-1.16499,1.13819,2.81445,0
14200,-1.22595,1.14431,2.71373,0
14220,-1.2947,1.14763,2.61166,0
14240,-1.36324,1.14664,2.51046,0
14260,-1.42261,1.14101,2.41332,0
14280,-1.4698,1.13229,2.32059,0
14300,-1.50085,1.12271,2.23568,0
14320,-1.51852,1.11395,2.15962,0
14340,-1.52739,1.10616,2.09334,0
14360,-1.53344,1.09966,2.03649,0
14380,-1.53997,1.09408,1.98905,0
14400,-1.54921,1.09345,1.95094,0
14420,-1.55897,1.09238,1.92203,0
14440,-1.56587,1.09117,1.90107,0
14460,-1.56656,1.0897,1.88702,0
14480,-1.56055,1.08819,1.87761,0
14500,-1.55103,1.08742,1.87161,0
14520,-1.54172,1.08731,1.86698,0
14540,-1.53352,1.08715,1.8634,0
14560,-1.52421,1.08679,1.86191,0
14580,-1.51315,1.08632,1.8615,0
14600,-1.49793,1.08542,1.863,0
14620,-1.47785,1.08392,1.86633,0
14640,-1.45416,1.08234,1.87233,0
14660,-1.42953,1.08076,1.87995,0
14680,-1.40561,1.07912,1.88912,0
14700,-1.38352,1.07675,1.89822,0
14720,-1.36346,1.07356,1.90551,0
14740,-1.34596,1.06938,1.90987,0
14760,-1.33037,1.06495,1.91094,0
14780,-1.31565,1.05992,1.90772,0
14800,-1.30236,1.05553,1.90108,0
14820,-1.29168,1.05213,1.89133,0
14840,-1.28543,1.05032,1.87875,0
14860,-1.28481,1.04932,1.86381,0
14880,-1.28997,1.0496,1.84657,0
14900,-1.29762,1.05124,1.8267,0
14920,-1.30468,1.05403,1.80602,0
14940,-1.31081,1.05735,1.78476,0
14960,-1.31842,1.06123,1.76494,0
14980,-1.32894,1.06546,1.74729,0
15000,-1.34185,1.06965,1.73214,0
15020,-1.35583,1.07396,1.71978,0
15040,-1.36714,1.07787,1.71093,0
15060,-1.37469,1.08096,1.70441,0
15080,-1.37636,1.08463,1.70117,0
15100,-1.37392,1.08773,1.69805,0
15120,-1.3691,1.0899,1.69493,0
15140,-1.36231,1.09021,1.6913,0
15160,-1.35117,1.08866,1.68973,0
15180,-1.33647,1.0857,1.69023,0
15200,-1.32004,1.08283,1.69297,0
15220,-1.30145,1.07925,1.69749,0
15240,-1.28334,1.07523,1.7027,0
15260,-1.26519,1.07124,1.70799,0
15280,-1.24753,1.06807,1.71265,0
15300,-1.23233,1.06609,1.71516,0
15320,-1.22029,1.06574,1.71553,0
15340,-1.21062,1.06672,1.71351,0
15360,-1.20187,1.06839,1.70969,0
15380,-1.19022,1.07069,1.70666,0
15400,-1.17295,1.07428,1.70687,0
15420,-1.1493,1.07846,1.7116,0
15440,-1.11836,1.0822,1.72203,0
15460,-1.08226,1.08524,1.7378,0
15480,-1.04198,1.08705,1.75866,0
15500,-0.998781,1.08793,1.78542,0
15520,-0.952841,1.08675,1.81763,0
15540,-0.906305,1.08353,1.85457,0
15560,-0.85979,1.07816,1.89542,0
15580,-0.814907,1.07031,1.93797,0
15600,-0.77212,1.05977,1.98073,0
15620,-0.733174,1.04723,2.02219,0
15640,-0.696134,1.03305,2.06076,0
15660,-0.663228,1.01945,2.09534,0
15680,-0.635862,1.01063,2.1239,0
15700,-0.613524,1.0068,2.14817,0
15720,-0.596261,1.00781,2.16772,0
15740,-0.580934,1.01345,2.18749,0
15760,-0.574016,1.02133,2.20151,0
15780,-0.580829,1.03181,2.20461,0
15800,-0.590079,1.04478,2.20151,0
15820,-0.597229,1.05737,2.19544,0
15840,-0.597081,1.07008,2.19031,0
15860,-0.590656,1.08351,2.18853,0
15880,-0.583016,1.09745,2.18897,0
15900,-0.578555,1.11098,2.1917,0
15920,-0.577838,1.1225,2.19699,0
15940,-0.582711,1.13161,2.20453,0
15960,-0.596217,1.13756,2.21077,0
15980,-0.617061,1.14021,2.21442,0
16000,-0.642572,1.14046,2.2154,0
16020,-0.665571,1.139,2.21358,0
16040,-0.68131,1.13728,2.20901,0
16060,-0.688042,1.13711,2.20328,0
16080,-0.689777,1.13808,2.19433,0
16100,-0.68986,1.14037,2.18175,0
16120,-0.688767,1.14451,2.16746,0
16140,-0.687423,1.15196,2.15374,0
16160,-0.687239,1.16132,2.1412,0
16180,-0.69265,1.17168,2.12975,0
16200,-0.704543,1.18114,2.11887,0
16220,-0.720931,1.18926,2.10656,0
16240,-0.734111,1.19575,2.09725,0
16260,-0.739567,1.20242,2.09633,0
16280,-0.739102,1.20823,2.10378,0
16300,-0.734686,1.21237,2.11926,0
16320,-0.729494,1.21549,2.14062,0
16340,-0.725782,1.2178,2.16474,0
16360,-0.723551,1.21984,2.19192,0
16380,-0.725124,1.22128,2.21865,0
16400,-0.734428,1.22249,2.23968,0
16420,-0.747792,1.22445,2.25486,0
16440,-0.760994,1.22726,2.26431,0
16460,-0.774859,1.23114,2.26581,0
16480,-0.788836,1.23512,2.2613,0
16500,-0.805086,1.23666,2.24266,0
16520,-0.820465,1.23392,2.21265,0
16540,-0.834578,1.22658,2.17713,0
16560,-0.846678,1.21566,2.14257,0
16580,-0.86192,1.20113,2.11219,0
16600,-0.884332,1.18248,2.08615,0
16620,-0.912445,1.15936,2.06548,0
16640,-0.942868,1.13212,2.04908,0
16660,-0.970622,1.10261,2.03564,0
16680,-0.993812,1.07187,2.02108,0
16700,-1.01333,1.0429,2.00279,0
16720,-1.03107,1.01792,1.97817,0
16740,-1.05,0.998666,1.94584,0
16760,-1.07207,0.984373,1.90664,0
16780,-1.1003,0.972256,1.86126,0
16800,-1.13579,0.964485,1.8101,0
16820,-1.17798,0.960093,1.75702,0
16840,-1.2216,0.95294,1.70322,0
16860,-1.26128,0.94346,1.65316,0
16880,-1.28304,0.93374,1.61284,0
16900,-1.27904,0.928516,1.586,0
16920,-1.26032,0.930923,1.5695,0
16940,-1.24892,0.942492,1.55709,0
16960,-1.26592,0.961892,1.54092,0
16980,-1.30965,0.982587,1.52445,0
17000,-1.37589,0.996578,1.49849,0
17020,-1.43582,1.00322,1.47127,0
17030,-1.46387,1.00247,1.45617,0
17050,-1.46639,1.00145,1.44826,0
17070,-1.45275,1.00179,1.44353,0
17090,-1.43114,1.00698,1.4389,0
17110,-1.40852,1.01738,1.4338,0
17130,-1.39073,1.03381,1.42751,0
17150,-1.38213,1.05621,1.42385,0
17170,-1.38408,1.07783,1.42584,0
17190,-1.39567,1.09077,1.43562,0
17210,-1.40685,1.09363,1.45359,0
17230,-1.40636,1.0888,1.4787,0
17250,-1.38756,1.0805,1.51176,0
17270,-1.35093,1.07093,1.54912,0
17290,-1.30355,1.063,1.589,0
17310,-1.2539,1.05764,1.62641,0
17330,-1.20955,1.057,1.65732,0
17350,-1.17665,1.06296,1.68553,0
17370,-1.15254,1.07103,1.71345,0
17390,-1.13578,1.07739,1.73948,0
17410,-1.1233,1.07685,1.76256,0
17430,-1.11312,1.06909,1.78125,0
17450,-1.1003,1.05936,1.79917,0
17470,-1.08711,1.04885,1.81303,0
17490,-1.08092,1.03884,1.81842,0
17510,-1.08326,1.03082,1.81572,0
17530,-1.08981,1.02606,1.80668,0
17550,-1.09539,1.02253,1.78961,0
17570,-1.10184,1.01921,1.76249,0
17590,-1.1103,1.017,1.72975,0
17610,-1.11445,1.01425,1.69902,0
17630,-1.11388,1.01091,1.67189,0
17650,-1.10878,1.0085,1.64945,0
17670,-1.10034,1.00869,1.6325,0
17690,-1.09125,1.01204,1.62069,0
17710,-1.08466,1.01822,1.61061,0
17730,-1.08138,1.02699,1.60205,0
17750,-1.0802,1.03778,1.5952,0
17770,-1.08015,1.05088,1.5917,0
17790,-1.08182,1.06439,1.59059,0
17810,-1.08388,1.07737,1.59262,0
17830,-1.08765,1.08965,1.59562,0
17850,-1.09463,1.10267,1.60202,0
17870,-1.10615,1.11503,1.60603,0
17890,-1.12084,1.12327,1.60231,0
17910,-1.11872,1.12669,1.6024,0
17930,-1.09705,1.12916,1.61578,0
17950,-1.06844,1.13144,1.63287,0
17970,-1.0466,1.13367,1.64581,0
17990,-1.02337,1.13622,1.65842,0
18010,-0.99725,1.13794,1.67024,0
18030,-0.970876,1.141,1.67864,0
18050,-0.946639,1.14686,1.68411,0
18070,-0.926938,1.15446,1.6858,0
18090,-0.909871,1.16215,1.6795,0
18110,-0.890593,1.16828,1.66459,0
18130,-0.860735,1.17275,1.64226,0
18150,-0.821479,1.17853,1.61779,0
18170,-0.785747,1.18795,1.59785,0
18190,-0.762892,1.19706,1.5813,0
18210,-0.759615,1.21016,1.56445,0
18230,-0.759553,1.21835,1.55313,0
18250,-0.763692,1.2234,1.54899,0
18270,-0.777449,1.22686,1.54672,0
18290,-0.793059,1.22799,1.5472,0
18310,-0.808682,1.2266,1.54961,0
18330,-0.827134,1.22649,1.55065,0
18350,-0.852955,1.22821,1.54723,0
18370,-0.889359,1.23263,1.5399,0
18390,-0.922842,1.23851,1.54083,0
18410,-0.966914,1.24374,1.54342,0
18430,-1.02016,1.24534,1.5476,0
18450,-1.06026,1.24424,1.5707,0
18470,-1.08019,1.24047,1.61025,0
18490,-1.09097,1.235,1.65334,0
18510,-1.0974,1.22968,1.69278,0
18530,-1.10815,1.22678,1.72184,0
18550,-1.11183,1.22541,1.74945,0
18570,-1.11784,1.2279,1.76774,0
18590,-1.12817,1.23193,1.77749,0
18610,-1.13558,1.23538,1.7794,0
18630,-1.13824,1.23727,1.76727,0
18650,-1.11833,1.23884,1.76184,0
18670,-1.08506,1.24064,1.76544,0
18690,-1.0506,1.24296,1.77594,0
18710,-1.03307,1.24561,1.78137,0
18730,-1.03233,1.24587,1.77742,0
18750,-1.03718,1.24335,1.76595,0
18770,-1.04947,1.24308,1.74318,0
18790,-1.06903,1.24342,1.7184,0
18810,-1.09012,1.24463,1.69412,0
18830,-1.10442,1.2468,1.67941,0
18850,-1.11347,1.25076,1.67872,0
18870,-1.13034,1.25476,1.68165,0
18890,-1.15175,1.25945,1.68802,0
18910,-1.16647,1.26482,1.70355,0
18930,-1.1774,1.26598,1.72846,0
18950,-1.17397,1.25818,1.76187,0
18960,-1.16366,1.24648,1.78939,0
18990,-1.15857,1.23768,1.81063,0
19010,-1.15009,1.22821,1.83444,0
19020,-1.14647,1.21807,1.85734,0
19040,-1.14571,1.20823,1.87765,0
19060,-1.13679,1.19837,1.90248,0
19080,-1.12781,1.18899,1.92684,0
19100,-1.12632,1.18057,1.94786,0
19120,-1.12396,1.17012,1.97388,0
19140,-1.11789,1.15589,2.00509,0
19160,-1.09976,1.1391,2.04742,0
19180,-1.07743,1.12164,2.09284,0
19200,-1.06792,1.10734,2.12742,0
19220,-1.06044,1.09138,2.15929,0
19240,-1.04958,1.07293,2.18983,0
19240,-1.03621,1.05442,2.21371,0
19260,-1.02529,1.03962,2.23077,0
19270,-1.0244,1.02843,2.23972,0
19290,-1.02791,1.01733,2.24318,0
19310,-1.03284,1.00779,2.24383,0
19330,-1.03655,0.999411,2.24188,0
19350,-1.04317,0.994995,2.23797,0
19370,-1.05752,0.989567,2.23018,0
19390,-1.0711,0.984423,2.21977,0
19410,-1.08127,0.98111,2.20924,0
19430,-1.09092,0.979358,2.19766,0
19450,-1.09934,0.97936,2.18668,0
19470,-1.11102,0.977313,2.17324,0
19490,-1.12209,0.974133,2.16012,0
19510,-1.13331,0.969347,2.14482,0
19530,-1.14232,0.96421,2.12985,0
19550,-1.15083,0.958632,2.11605,0
19570,-1.1631,0.953776,2.09981,0
19590,-1.17751,0.948085,2.08414,0
19610,-1.19227,0.941628,2.06716,0
19630,-1.2056,0.935565,2.05067,0
19650,-1.22076,0.92984,2.03367,0
19670,-1.23997,0.922724,2.01291,0
19690,-1.26026,0.912911,1.98778,0
19710,-1.27927,0.902687,1.96082,0
19730,-1.29715,0.89176,1.93303,0
19750,-1.31625,0.882347,1.90531,0
19770,-1.33593,0.874566,1.87713,0
19790,-1.35632,0.866548,1.85113,0
19810,-1.37629,0.859926,1.83034,0
19830,-1.39569,0.852591,1.81057,0
19850,-1.40981,0.8424,1.79362,0
19870,-1.41661,0.83059,1.77621,0
19890,-1.41864,0.815881,1.75752,0
19910,-1.41906,0.800399,1.73742,0
19930,-1.42127,0.783661,1.71789,0
19950,-1.42153,0.76788,1.7001,0
19970,-1.42191,0.753533,1.68638,0
19990,-1.41795,0.74392,1.67974,0
20010,-1.41543,0.736541,1.67632,0
20030,-1.40379,0.732625,1.67697,0
20050,-1.38813,0.729304,1.67742,0
20070,-1.37429,0.728931,1.67816,0
20090,-1.35984,0.729608,1.67894,0
20110,-1.34548,0.730102,1.6804,0
20130,-1.32696,0.728024,1.68442,0
20150,-1.3038,0.725019,1.69071,0
20170,-1.2809,0.723331,1.69722,0
20190,-1.25984,0.720095,1.70362,0
20210,-1.2397,0.715629,1.71077,0
20230,-1.21989,0.711613,1.71779,0
20250,-1.19937,0.707202,1.72515,0
20270,-1.17912,0.702579,1.732,0
20290,-1.15879,0.698599,1.73967,0
20310,-1.13961,0.695312,1.74827,0
20330,-1.12256,0.692692,1.75906,0
20350,-1.10576,0.689936,1.77109,0
20370,-1.08801,0.686472,1.78312,0
20390,-1.071,0.682722,1.79687,0
20410,-1.05638,0.677356,1.81184,0
20430,-1.03683,0.669392,1.82985,0
20450,-1.0127,0.661211,1.84981,0
20470,-0.990861,0.654138,1.86877,0
20490,-0.974015,0.64615,1.8847,0
20510,-0.957899,0.638192,1.89722,0
20530,-0.938057,0.631145,1.90688,0
20550,-0.916341,0.626838,1.91404,0
20570,-0.894846,0.625723,1.91947,0
20590,-0.876523,0.62634,1.92262,0
20610,-0.859383,0.626845,1.92501,0
20630,-0.843022,0.627672,1.92726,0
20650,-0.828433,0.628448,1.929,0
20670,-0.816961,0.628821,1.9304,0
20690,-0.807449,0.628225,1.93112,0
20710,-0.799495,0.626776,1.92988,0
20730,-0.793078,0.625619,1.92775,0
20750,-0.787952,0.625106,1.9244,0
20770,-0.783892,0.624465,1.92012,0
20790,-0.780531,0.624804,1.91606,0
20810,-0.778876,0.626158,1.91289,0
20830,-0.778129,0.628822,1.91158,0
20850,-0.779,0.631377,1.91108,0
20870,-0.779776,0.634137,1.9125,0
20890,-0.780235,0.637561,1.91798,0
20910,-0.781909,0.641831,1.92575,0
20930,-0.785864,0.646536,1.93413,0
20950,-0.788267,0.650966,1.9447,0
20970,-0.790098,0.656762,1.95625,0
20990,-0.794852,0.66166,1.96619,0
21010,-0.799427,0.666754,1.97544,0
21030,-0.801496,0.67083,1.9833,0
21050,-0.801809,0.674519,1.98827,0
21070,-0.800502,0.678019,1.99009,0
21090,-0.799054,0.68165,1.98947,0
21110,-0.796669,0.684647,1.98764,0
21130,-0.792623,0.686109,1.98464,0
21150,-0.786285,0.687623,1.98192,0
21170,-0.779884,0.690113,1.97916,0
21190,-0.773338,0.692997,1.97776,0
21210,-0.7682,0.696249,1.97774,0
21230,-0.76496,0.699735,1.97962,0
21240,-0.762885,0.703729,1.98317,0
21260,-0.759895,0.708263,1.98779,0
21280,-0.754163,0.713241,1.99272,0
21300,-0.747281,0.718443,1.99795,0
21320,-0.742152,0.72343,2.00338,0
21340,-0.738753,0.728218,2.00811,0
21360,-0.733264,0.733523,2.01227,0
21380,-0.723449,0.739142,2.01599,0
21400,-0.711637,0.744956,2.01917,0
21420,-0.699439,0.750086,2.02255,0
21440,-0.68809,0.755299,2.02655,0
21460,-0.67754,0.760142,2.03234,0
21480,-0.667735,0.76435,2.0388,0
21500,-0.659651,0.768561,2.04574,0
21520,-0.653928,0.773561,2.05187,0
21540,-0.649852,0.779433,2.05655,0
21560,-0.645694,0.785716,2.06052,0
21580,-0.64033,0.791643,2.06184,0
21600,-0.63088,0.798429,2.06027,0
21620,-0.616141,0.80497,2.05516,0
21640,-0.599403,0.812291,2.04751,0
21660,-0.585991,0.820072,2.03607,0
21680,-0.574917,0.82736,2.02152,0
21700,-0.565834,0.833519,2.00348,0
21720,-0.558727,0.837291,1.98273,0
21740,-0.553512,0.839266,1.96015,0
21760,-0.553003,0.839611,1.93389,0
21780,-0.556855,0.838849,1.90381,0
21800,-0.563749,0.835735,1.87139,0
21820,-0.573842,0.830295,1.83662,0
21840,-0.589139,0.821789,1.79945,0
21860,-0.603723,0.81202,1.76042,0
21880,-0.615421,0.802596,1.71975,0
21900,-0.627306,0.79376,1.67799,0
21920,-0.639624,0.785608,1.63648,0
21940,-0.648934,0.77715,1.5988,0
21960,-0.65812,0.76898,1.56637,0
21980,-0.669592,0.759174,1.53877,0
22000,-0.685943,0.746839,1.51574,0
22020,-0.711153,0.731775,1.49727,0
22040,-0.74381,0.713945,1.48092,0
22060,-0.770737,0.694556,1.4656,0
22080,-0.785895,0.671593,1.44774,0
22100,-0.797287,0.646078,1.42646,0
22120,-0.809692,0.616626,1.40021,0
22140,-0.817446,0.583571,1.37233,0
22160,-0.82316,0.547891,1.34397,0
22180,-0.827938,0.511421,1.31835,0
22200,-0.830527,0.474919,1.29329,0
22220,-0.833466,0.437861,1.26941,0
22240,-0.837791,0.400152,1.24557,0
22260,-0.843687,0.362508,1.22248,0
22280,-0.850528,0.325132,1.19898,0
22300,-0.855878,0.288331,1.17351,0
22320,-0.859851,0.253848,1.14505,0
22340,-0.864149,0.221051,1.1111,0
22370,-0.879956,0.102009,0.775062,0
22390,-0.8934,0.0967115,0.744542,0
22410,-0.908591,0.0884238,0.720508,0
22430,-0.925544,0.078931,0.699815,0
22450,-0.946227,0.065752,0.682145,0
22470,-0.97012,0.0482438,0.664885,0
22490,-0.994003,0.0320107,0.647725,0
22510,-1.02335,0.0188511,0.63154,0
22530,-1.06101,0.00639565,0.615493,0
22550,-1.10099,-0.0059315,0.599671,0
22570,-1.13783,-0.0179992,0.583659,0
22590,-1.17187,-0.0285787,0.567645,0
22610,-1.19465,-0.036027,0.549191,0
22630,-1.205,-0.0340266,0.535423,0
22650,-1.20624,-0.0288707,0.526905,0
22670,-1.21317,-0.0228397,0.519187,0
22690,-1.24259,-0.0122519,0.511415,0
22710,-1.27945,0.000456825,0.505328,0
22730,-1.31445,0.0111826,0.499161,0
22750,-1.34178,0.0182946,0.490484,0
22770,-1.37401,0.0221453,0.480878,0
22790,-1.41007,0.0239517,0.470025,0
22810,-1.44177,0.0207831,0.456618,0
22830,-1.46497,0.0144785,0.441896,0
22850,-1.48116,0.00789946,0.428378,0
22870,-1.49855,0.00214866,0.415496,0
22890,-1.51905,-0.00374452,0.404689,0
22910,-1.54004,-0.00995934,0.396177,0
22930,-1.55687,-0.0153965,0.388701,0
22950,-1.56846,-0.0179464,0.38202,0
22970,-1.58022,-0.0177116,0.376063,0
22990,-1.59563,-0.0176391,0.371832,0
23010,-1.61026,-0.0209696,0.371292,0
23030,-1.62254,-0.0275969,0.372179,0
23050,-1.63518,-0.0312002,0.3722,0
23070,-1.64504,-0.0351512,0.372046,0
23090,-1.65119,-0.0410359,0.372109,0
23110,-1.65666,-0.0481117,0.371895,0
23130,-1.66602,-0.0524072,0.370312,0
23150,-1.67725,-0.0542204,0.366252,0
23170,-1.68842,-0.0568539,0.360858,0
23190,-1.69375,-0.0597961,0.35388,0
23210,-1.69708,-0.0618952,0.345284,0
23230,-1.70297,-0.0642891,0.337018,0
23250,-1.71007,-0.0695941,0.328775,0
23270,-1.71574,-0.0782825,0.32016,0
23290,-1.71832,-0.0869267,0.311951,0
23310,-1.7201,-0.0967537,0.304183,0
23330,-1.72292,-0.107739,0.296514,0
23350,-1.72675,-0.11932,0.28848,0
23370,-1.73238,-0.131299,0.280409,0
23390,-1.73683,-0.143145,0.272129,0
23410,-1.74053,-0.157472,0.263028,0
23430,-1.74502,-0.172129,0.251118,0
23450,-1.74608,-0.183133,0.235057,0
23470,-1.74322,-0.192492,0.216686,0
23490,-1.7398,-0.201391,0.198281,0
23510,-1.73627,-0.20947,0.180642,0
23530,-1.73423,-0.217361,0.164449,0
23550,-1.73463,-0.225712,0.150405,0
23570,-1.73742,-0.234594,0.138184,0
23590,-1.73994,-0.243999,0.127661,0
23610,-1.74133,-0.254706,0.118603,0
23630,-1.74343,-0.265433,0.110097,0
23650,-1.74732,-0.276477,0.101371,0
23670,-1.75197,-0.286893,0.0923611,0
23690,-1.75666,-0.296192,0.0825863,0
23710,-1.75974,-0.304674,0.0720754,0
23730,-1.76059,-0.311949,0.0611888,0
23750,-1.76092,-0.318075,0.0499058,0
23770,-1.76094,-0.324006,0.0381001,0
23790,-1.75882,-0.32996,0.0259419,0
23810,-1.75565,-0.33555,0.0145253,0
23830,-1.75158,-0.340886,0.00376328,0
23850,-1.74731,-0.346479,-0.00633663,0
23870,-1.7428,-0.352249,-0.0160381,0
23890,-1.73606,-0.359236,-0.0256372,0
23910,-1.727,-0.368143,-0.0341922,0
23930,-1.71303,-0.377262,-0.0418005,0
23950,-1.70212,-0.386337,-0.0485785,0
23970,-1.69301,-0.394252,-0.0545847,0
23990,-1.6849,-0.399946,-0.0589915,0
24010,-1.67765,-0.40467,-0.0617313,0
24030,-1.67517,-0.407084,-0.0626457,0
24050,-1.67609,-0.406248,-0.0628423,0
24070,-1.67887,-0.403907,-0.0614298,0
24090,-1.68265,-0.401033,-0.0579867,0
24110,-1.68782,-0.397024,-0.0529034,0
24130,-1.69456,-0.391206,-0.0464187,0
24150,-1.70105,-0.384997,-0.0398867,0
24170,-1.7058,-0.380457,-0.0334292,0
24190,-1.71037,-0.377647,-0.026757,0
24210,-1.71496,-0.374307,-0.0216262,0
24230,-1.71661,-0.371492,-0.0175549,0
24250,-1.71703,-0.370175,-0.0105956,0
24270,-1.71866,-0.366957,2.87352e-05,0
24280,-1.71979,-0.364213,0.011286,0
24300,-1.72323,-0.363152,0.0232947,0
24320,-1.73053,-0.362375,0.0360111,0
24340,-1.7389,-0.363502,0.0501636,0
24360,-1.74674,-0.364705,0.0654046,0
24380,-1.75558,-0.365886,0.0810873,0
24400,-1.76559,-0.367262,0.0957375,0
24420,-1.77621,-0.368035,0.109594,0
24440,-1.7856,-0.36945,0.123328,0
24460,-1.79369,-0.372104,0.136178,0
24480,-1.80107,-0.376045,0.14788,0
24500,-1.80815,-0.381324,0.158836,0
24520,-1.81346,-0.387014,0.168593,0
24540,-1.81767,-0.394032,0.178005,0
24560,-1.82294,-0.402912,0.187611,0
24580,-1.82915,-0.412308,0.197826,0
24600,-1.83562,-0.421955,0.208256,0
24620,-1.8415,-0.431243,0.218651,0
24640,-1.84818,-0.439559,0.229284,0
24660,-1.85534,-0.446894,0.239663,0
24680,-1.86232,-0.454342,0.249321,0
24700,-1.86801,-0.461183,0.257533,0
24720,-1.8738,-0.46721,0.263976,0
24740,-1.87719,-0.472113,0.268016,0
24760,-1.87415,-0.475941,0.270459,0
24780,-1.86996,-0.478226,0.270308,0
24800,-1.86256,-0.47657,0.264918,0
24820,-1.85669,-0.471511,0.256744,0
24840,-1.85315,-0.465348,0.250899,0
24860,-1.85172,-0.460167,0.249659,0
24880,-1.85209,-0.456098,0.252389,0
24900,-1.85623,-0.4553,0.257765,0
24920,-1.86176,-0.455614,0.263781,0
24940,-1.86803,-0.455559,0.268857,0
24960,-1.87363,-0.45636,0.274821,0
24980,-1.8805,-0.459651,0.282049,0
25000,-1.89003,-0.464282,0.290158,0
25020,-1.90043,-0.468362,0.298636,0
25040,-1.9083,-0.472227,0.305022,0
25060,-1.91084,-0.47202,0.305831,0
25080,-1.90882,-0.470024,0.301812,0
25100,-1.89893,-0.466129,0.294544,0
25120,-1.888,-0.462684,0.286524,0
25140,-1.88374,-0.460572,0.277989,0
25160,-1.8831,-0.459295,0.269199,0
25180,-1.8861,-0.459525,0.261451,0
25200,-1.88975,-0.461946,0.254993,0
25220,-1.89283,-0.467275,0.248965,0
25250,-1.90201,-0.535775,0.223412,0
25280,-1.99252,-0.557116,0.272074,0
25300,-2.0082,-0.563778,0.285071,0
25320,-2.02264,-0.570431,0.297415,0
25340,-2.03531,-0.575051,0.30819,0
25360,-2.04654,-0.57674,0.317924,0
25380,-2.05106,-0.576583,0.327178,0
25400,-2.05322,-0.576156,0.337345,0
25420,-2.061,-0.578147,0.351612,0
25440,-2.07541,-0.579359,0.368869,0
25460,-2.08967,-0.578056,0.387376,0
25480,-2.10077,-0.57712,0.405205,0
25500,-2.11564,-0.577924,0.423976,0
25520,-2.13423,-0.577035,0.441552,0
25540,-2.15335,-0.57475,0.456605,0
25560,-2.17117,-0.571562,0.471111,0
25580,-2.1873,-0.566333,0.482753,0
25600,-2.20342,-0.559589,0.492525,0
25620,-2.21764,-0.552429,0.50064,0
25640,-2.2366,-0.545324,0.508607,0
25660,-2.25626,-0.538481,0.518336,0
25680,-2.27697,-0.534467,0.532014,0
25700,-2.29729,-0.533653,0.549804,0
25720,-2.31714,-0.534996,0.569452,0
25740,-2.33593,-0.539567,0.587972,0
25760,-2.34928,-0.546434,0.603288,0
25780,-2.36187,-0.556114,0.617117,0
25800,-2.36789,-0.564159,0.624716,0
25820,-2.3654,-0.571829,0.627198,0
25850,-2.33882,-0.586941,0.62158,0
25870,-2.32158,-0.596102,0.612319,0
25890,-2.30102,-0.606766,0.598077,0
25910,-2.2771,-0.619305,0.578924,0
25930,-2.24678,-0.631936,0.557233,0
25950,-2.20927,-0.642062,0.531076,0
25970,-2.16198,-0.648358,0.499912,0
25990,-2.11019,-0.650269,0.469193,0
26010,-2.05887,-0.647518,0.439478,0
26030,-2.01179,-0.640979,0.407389,0
26050,-1.96604,-0.628671,0.373563,0
26070,-1.91934,-0.610487,0.341841,0
26090,-1.87232,-0.591491,0.314053,0
26110,-1.82841,-0.583346,0.28451,0
26130,-1.79155,-0.585217,0.257775,0
26150,-1.75848,-0.5844,0.23623,0
26170,-1.72316,-0.585003,0.218441,0
26190,-1.68776,-0.589498,0.198273,0
26210,-1.64938,-0.595484,0.174968,0
26230,-1.61198,-0.600935,0.149249,0
26250,-1.57581,-0.603516,0.122703,0
26270,-1.53705,-0.604922,0.0931537,0
26290,-1.49424,-0.607532,0.0559261,0
26310,-1.44198,-0.60556,0.013265,0
26330,-1.3842,-0.599691,-0.0295286,0
26350,-1.33172,-0.588046,-0.0703337,0
26370,-1.28189,-0.570444,-0.114517,0
26390,-1.23327,-0.547714,-0.161794,0
26410,-1.18549,-0.519731,-0.206383,0
26430,-1.14191,-0.48682,-0.245771,0
26450,-1.1037,-0.449476,-0.283739,0
26470,-1.0679,-0.409009,-0.316421,0
26490,-1.03977,-0.367213,-0.342838,0
26510,-1.00775,-0.328076,-0.362447,0
26530,-0.983441,-0.291703,-0.376429,0
26550,-0.970759,-0.255445,-0.386356,0
26570,-0.965203,-0.222712,-0.394921,0
26590,-0.954291,-0.196389,-0.403359,0
26610,-0.942788,-0.174716,-0.409772,0
26630,-0.932537,-0.154355,-0.412912,0
26650,-0.926391,-0.135158,-0.411684,0
26670,-0.921573,-0.117632,-0.409243,0
26690,-0.915777,-0.101236,-0.407686,0
26710,-0.908045,-0.0860278,-0.40678,0
26730,-0.900154,-0.071368,-0.403587,0
26750,-0.894077,-0.0577656,-0.396764,0
26770,-0.889574,-0.0449388,-0.388975,0
26790,-0.883728,-0.0331396,-0.380873,0
26810,-0.876794,-0.0229646,-0.37356,0
26830,-0.870374,-0.0132019,-0.365254,0
26850,-0.864453,-0.00401082,-0.357543,0
26870,-0.85889,0.00546756,-0.34889,0
26890,-0.853681,0.0148256,-0.341701,0
26910,-0.849955,0.0231276,-0.334003,0
26930,-0.846129,0.0315905,-0.326508,0
26950,-0.842785,0.0380719,-0.319246,0
26970,-0.838375,0.0442886,-0.312582,0
26990,-0.83443,0.0487725,-0.305848,0
27010,-0.83073,0.0515271,-0.298913,0
27030,-0.827625,0.0543074,-0.292587,0
27050,-0.826124,0.0577316,-0.28643,0
27070,-0.82577,0.0623261,-0.280631,0
27090,-0.824528,0.0656527,-0.274597,0
27110,-0.822806,0.0686157,-0.270102,0
27130,-0.82043,0.0708037,-0.266951,0
27150,-0.819346,0.0725479,-0.264127,0
27170,-0.817417,0.0746977,-0.261537,0
27190,-0.815656,0.0760589,-0.259153,0
27210,-0.81342,0.0766276,-0.257448,0
27230,-0.811122,0.075566,-0.255838,0
27250,-0.808246,0.0746802,-0.255187,0
27270,-0.806159,0.0738387,-0.254231,0
27290,-0.804451,0.0728281,-0.252977,0
27310,-0.802446,0.0722718,-0.252292,0
27330,-0.80022,0.0723188,-0.251178,0
27350,-0.798235,0.0727207,-0.249436,0
27370,-0.796008,0.0735553,-0.247059,0
27390,-0.794186,0.0745904,-0.244405,0
27410,-0.792032,0.0762545,-0.241588,0
27430,-0.789887,0.0789523,-0.238544,0
27450,-0.788092,0.0817386,-0.235427,0
27470,-0.785421,0.0845927,-0.232395,0
27490,-0.782849,0.0874537,-0.228975,0
27510,-0.780841,0.0898388,-0.225535,0
27520,-0.779675,0.0912647,-0.222306,0
27540,-0.778643,0.09253,-0.219421,0
27560,-0.777864,0.0932517,-0.216867,0
27580,-0.777596,0.0937186,-0.214781,0
27600,-0.77766,0.0942102,-0.213531,0
27620,-0.777928,0.0939808,-0.2124,0
27640,-0.778099,0.0936806,-0.211498,0
27660,-0.778794,0.0932868,-0.211,0
27680,-0.779547,0.0930278,-0.210828,0
27700,-0.780261,0.0923043,-0.21112,0
27720,-0.780518,0.0917743,-0.211719,0
27740,-0.78074,0.0909726,-0.212335,0
27760,-0.780694,0.0903036,-0.212979,0
27780,-0.780688,0.0893488,-0.214043,0
27800,-0.780385,0.08846,-0.214972,0
27820,-0.779984,0.0877502,-0.215837,0
27840,-0.779687,0.0870664,-0.216587,0
27860,-0.779258,0.0862903,-0.217289,0
27880,-0.778745,0.0861014,-0.217565,0
27900,-0.778108,0.0854972,-0.217521,0
27920,-0.778063,0.0850102,-0.217451,0
27940,-0.777743,0.0847023,-0.217295,0
27960,-0.777358,0.084044,-0.216726,0
27980,-0.776927,0.0834669,-0.215918,0
28000,-0.776758,0.0828018,-0.214966,0
28020,-0.776584,0.0821823,-0.213899,0
28040,-0.776154,0.0815925,-0.212824,0
28060,-0.775987,0.0809148,-0.211605,0
28080,-0.775893,0.0799917,-0.210289,0
28100,-0.775925,0.0789458,-0.208934,0
28120,-0.775906,0.077516,-0.207549,0
28140,-0.776148,0.076307,-0.205877,0
28160,-0.776576,0.0753271,-0.204578,0
28180,-0.777093,0.0737374,-0.203171,0
28200,-0.777882,0.0722913,-0.201972,0
28220,-0.779126,0.0709425,-0.201115,0
28240,-0.779652,0.0693681,-0.199973,0
28260,-0.780211,0.0675651,-0.199403,0
28280,-0.780926,0.0661866,-0.199015,0
28300,-0.782113,0.0647542,-0.199041,0
28320,-0.782214,0.0633703,-0.199136,0
28340,-0.782509,0.0623604,-0.199269,0
28360,-0.783048,0.0609134,-0.199768,0
28380,-0.783766,0.0596936,-0.200638,0
28400,-0.784358,0.0583327,-0.201576,0
28420,-0.784679,0.0571039,-0.202546,0
28440,-0.785118,0.0558106,-0.203628,0
28460,-0.785698,0.0545408,-0.204335,0
28480,-0.785954,0.0528031,-0.204958,0
28500,-0.786784,0.0503897,-0.20547,0
28520,-0.787649,0.047555,-0.205669,0
28540,-0.788716,0.0450469,-0.20602,0
28560,-0.790431,0.0423123,-0.206448,0
28580,-0.792,0.0396693,-0.206372,0
28600,-0.793238,0.0375142,-0.206476,0
28620,-0.795335,0.0350205,-0.20622,0
28640,-0.797335,0.0326684,-0.206278,0
28660,-0.800922,0.030965,-0.20697,0
28680,-0.80576,0.0301849,-0.207056,0
28700,-0.812224,0.030282,-0.208147,0
28720,-0.819487,0.0300222,-0.209276,0
28740,-0.82762,0.0282,-0.209774,0
28760,-0.833572,0.0255952,-0.210991,0
28780,-0.840065,0.022568,-0.212715,0
28800,-0.846809,0.0182425,-0.214791,0
28820,-0.853754,0.0131028,-0.216229,0
28840,-0.860055,0.00739539,-0.217204,0
28860,-0.865634,0.00131288,-0.217938,0
28880,-0.870937,-0.00511526,-0.219146,0
28900,-0.877239,-0.0114325,-0.220431,0
28920,-0.884092,-0.0173451,-0.220944,0
28940,-0.890722,-0.0218007,-0.222103,0
28960,-0.895511,-0.0238923,-0.224174,0
28980,-0.900278,-0.0255725,-0.224796,0
29000,-0.902036,-0.0272475,-0.225561,0
29020,-0.902597,-0.0289441,-0.226951,0
29040,-0.902205,-0.0306411,-0.228574,0
29060,-0.900433,-0.0322934,-0.22989,0
29080,-0.896551,-0.0343118,-0.230543,0
29100,-0.892091,-0.0365405,-0.230944,0
29120,-0.886478,-0.0393573,-0.230634,0
29140,-0.880244,-0.0424085,-0.229253,0
29160,-0.874261,-0.0459942,-0.22753,0
29180,-0.86801,-0.0493116,-0.224997,0
29200,-0.861792,-0.0522943,-0.221431,0
29220,-0.856055,-0.0543946,-0.216951,0
29240,-0.850422,-0.0557243,-0.211908,0
29260,-0.845315,-0.0559379,-0.206589,0
29280,-0.84119,-0.0542183,-0.20202,0
29300,-0.837685,-0.0504607,-0.198107,0
29320,-0.833526,-0.046614,-0.193821,0
29340,-0.830438,-0.0437195,-0.18952,0
29360,-0.827617,-0.0414173,-0.186182,0
29380,-0.824402,-0.0395296,-0.183866,0
29400,-0.82237,-0.0378936,-0.182128,0
29420,-0.821164,-0.0359603,-0.181333,0
29440,-0.820865,-0.0347617,-0.181711,0
29460,-0.821253,-0.0337298,-0.183238,0
29480,-0.821745,-0.0332276,-0.185341,0
29500,-0.822639,-0.0329233,-0.187506,0
29510,-0.82347,-0.0329823,-0.188972,0
29530,-0.824271,-0.0335232,-0.190633,0
29550,-0.825345,-0.0339311,-0.192223,0
29570,-0.826691,-0.0342068,-0.193743,0
29590,-0.827549,-0.0340492,-0.195308,0
29610,-0.828079,-0.0342751,-0.196293,0
29630,-0.829143,-0.0347742,-0.197178,0
29650,-0.830778,-0.0348341,-0.198136,0
29670,-0.832206,-0.0341161,-0.198893,0
29690,-0.833934,-0.0330652,-0.199139,0
29710,-0.836727,-0.0315827,-0.199325,0
29730,-0.840329,-0.0291774,-0.199696,0
29750,-0.845008,-0.0268213,-0.200222,0
29770,-0.849394,-0.0239557,-0.201795,0
29790,-0.853176,-0.0213212,-0.20338,0
29810,-0.858279,-0.0195372,-0.204788,0
29830,-0.861553,-0.0181363,-0.205954,0
29850,-0.865388,-0.0182157,-0.207285,0
29870,-0.868536,-0.018759,-0.209191,0
29890,-0.87134,-0.0198782,-0.211218,0
29910,-0.873972,-0.0212622,-0.213247,0
29930,-0.877177,-0.0224411,-0.214994,0
29950,-0.880585,-0.0231551,-0.216297,0
29970,-0.883336,-0.0242097,-0.217259,0
29990,-0.885041,-0.0250464,-0.217479,0
30010,-0.887934,-0.0260188,-0.217674,0
30030,-0.890211,-0.0263776,-0.217593,0
30050,-0.891972,-0.0272501,-0.216425,0
30070,-0.894072,-0.0281862,-0.21674,0
30090,-0.896965,-0.0295854,-0.217815,0
30120,-0.899894,-0.0328758,-0.217164,0
30140,-0.900296,-0.0357192,-0.21731,0
30160,-0.900481,-0.0398955,-0.218857,0
30180,-0.90327,-0.0452426,-0.220193,0
30200,-0.904751,-0.0513825,-0.22205,0
30220,-0.90632,-0.0613171,-0.224951,0
30240,-0.907313,-0.0742224,-0.227899,0
30260,-0.910427,-0.0894764,-0.228651,0
30280,-0.915975,-0.106567,-0.227086,0
30300,-0.924913,-0.1265,-0.224179,0
30320,-0.93594,-0.148907,-0.221358,0
30340,-0.948292,-0.172639,-0.217608,0
30360,-0.965308,-0.197345,-0.21174,0
30380,-0.985161,-0.220952,-0.204309,0
30400,-1.00701,-0.246411,-0.195381,0
30420,-1.03266,-0.272999,-0.184597,0
30440,-1.06238,-0.297301,-0.171624,0
30460,-1.09826,-0.319032,-0.158139,0
30480,-1.13971,-0.335015,-0.144687,0
30500,-1.18165,-0.346192,-0.13057,0
30520,-1.22208,-0.356091,-0.114374,0
30540,-1.26267,-0.365922,-0.0998102,0
30560,-1.30698,-0.37242,-0.0807966,0
30580,-1.35543,-0.374818,-0.0553057,0
30600,-1.40517,-0.372413,-0.0293387,0
30620,-1.45141,-0.371857,-0.0034775,0
30640,-1.48973,-0.369925,0.0269259,0
30660,-1.52678,-0.371536,0.0592145,0
30680,-1.56254,-0.37711,0.0857111,0
30700,-1.60359,-0.385611,0.108574,0
30720,-1.63569,-0.390948,0.127369,0
30740,-1.66126,-0.39557,0.142303,0
30760,-1.68489,-0.398881,0.155145,0
30780,-1.70809,-0.397169,0.16801,0
30800,-1.73101,-0.394409,0.181162,0
30820,-1.75342,-0.392048,0.193004,0
30840,-1.7773,-0.390776,0.203128,0
30860,-1.80289,-0.387843,0.213136,0
30880,-1.82971,-0.382381,0.224684,0
30900,-1.86302,-0.375513,0.243043,0
30920,-1.90393,-0.36887,0.263286,0
30940,-1.9449,-0.357323,0.280902,0
30960,-1.97938,-0.343623,0.294522,0
30980,-2.0145,-0.329012,0.305549,0
31000,-2.05061,-0.314805,0.311907,0
31020,-2.08209,-0.297321,0.314971,0
31040,-2.10798,-0.278728,0.313959,0
31060,-2.13264,-0.2587,0.310416,0
31080,-2.1553,-0.240105,0.305177,0
31100,-2.17544,-0.22392,0.298656,0
31120,-2.19306,-0.207458,0.289788,0
31140,-2.20699,-0.19138,0.279412,0
31160,-2.22249,-0.177125,0.271307,0
31180,-2.2395,-0.16224,0.263308,0
31200,-2.25689,-0.149485,0.254853,0
31220,-2.2712,-0.137568,0.247139,0
31240,-2.28217,-0.127272,0.2394,0
31260,-2.29121,-0.120969,0.232398,0
31280,-2.29846,-0.116453,0.225929,0
31300,-2.30339,-0.112279,0.219693,0
31320,-2.3056,-0.109562,0.214295,0
31340,-2.30612,-0.107104,0.209575,0
31360,-2.30494,-0.10481,0.205599,0
31380,-2.30488,-0.102378,0.201954,0
31400,-2.30264,-0.10061,0.19921,0
31420,-2.29728,-0.0986352,0.198162,0
31440,-2.29039,-0.0964007,0.199679,0
31460,-2.28597,-0.0947274,0.202186,0
31480,-2.28524,-0.0900897,0.205372,0
31500,-2.28483,-0.0854997,0.209346,0
31520,-2.28701,-0.0804909,0.214298,0
31540,-2.29065,-0.0751265,0.218299,0
31560,-2.29645,-0.0702146,0.220956,0
31580,-2.30282,-0.0662408,0.223168,0
31600,-2.30781,-0.0642702,0.224364,0
31620,-2.30999,-0.0617749,0.222997,0
31640,-2.31036,-0.0588985,0.217528,0
31660,-2.30594,-0.0569518,0.211063,0
31680,-2.30209,-0.0588793,0.20866,0
31700,-2.29668,-0.0653874,0.211521,0
31720,-2.29169,-0.0742428,0.21517,0
31740,-2.28968,-0.0838908,0.219232,0
31760,-2.29162,-0.0942622,0.223904,0
31780,-2.29154,-0.104988,0.229661,0
31800,-2.29105,-0.115606,0.237104,0
31820,-2.29535,-0.125272,0.244613,0
31840,-2.30328,-0.135363,0.250538,0
31850,-2.31269,-0.145187,0.25506,0
31870,-2.32169,-0.153461,0.258556,0
31890,-2.33112,-0.160477,0.261879,0
31910,-2.34203,-0.167178,0.264235,0
31930,-2.35648,-0.172286,0.264719,0
31960,-2.38371,-0.177869,0.262906,0
31980,-2.39879,-0.17897,0.261046,0
32000,-2.41425,-0.178506,0.259302,0
32010,-2.42895,-0.176539,0.257692,0
32030,-2.44273,-0.172453,0.255872,0
32050,-2.45783,-0.166736,0.254645,0
32070,-2.47272,-0.160281,0.254391,0
32090,-2.48563,-0.15438,0.255503,0
32110,-2.49822,-0.151564,0.255941,0
32130,-2.50856,-0.150493,0.254018,0
32150,-2.51498,-0.148322,0.251549,0
32170,-2.51824,-0.14486,0.248835,0
32190,-2.52554,-0.139557,0.248521,0
32210,-2.53235,-0.132415,0.248699,0
32230,-2.54255,-0.127647,0.249262,0
32250,-2.55237,-0.124434,0.249295,0
32270,-2.56135,-0.120623,0.250252,0
32290,-2.56951,-0.116207,0.253118,0
32310,-2.57711,-0.113196,0.254398,0
32330,-2.58157,-0.113429,0.254793,0
32350,-2.5885,-0.115424,0.254515,0
32370,-2.59594,-0.115472,0.253511,0
32390,-2.60253,-0.116615,0.251425,0
32410,-2.61017,-0.11996,0.248551,0
32430,-2.618,-0.126259,0.246334,0
32450,-2.62784,-0.133639,0.244374,0
32470,-2.63575,-0.138313,0.239389,0
32490,-2.64137,-0.142973,0.235403,0
32510,-2.64831,-0.149282,0.234535,0
32530,-2.65562,-0.156686,0.236151,0
32550,-2.66443,-0.163149,0.236977,0
32570,-2.67315,-0.16882,0.237157,0
32590,-2.6798,-0.175686,0.239543,0
32610,-2.6845,-0.182026,0.243374,0
32630,-2.691,-0.188105,0.246264,0
32650,-2.69934,-0.194021,0.249116,0
32670,-2.70729,-0.199855,0.253664,0
32690,-2.71801,-0.206115,0.26104,0
32710,-2.72637,-0.209719,0.267055,0
32730,-2.73633,-0.218874,0.27279,0
32750,-2.74673,-0.228462,0.278727,0
32770,-2.75869,-0.238063,0.286308,0
32790,-2.76774,-0.24919,0.295003,0
32810,-2.77797,-0.261176,0.303047,0
32830,-2.78905,-0.274518,0.309585,0
32850,-2.79877,-0.285591,0.315213,0
32870,-2.80464,-0.295158,0.319326,0
32880,-2.81081,-0.306142,0.323984,0
32900,-2.81577,-0.316637,0.328258,0
32920,-2.82322,-0.323713,0.332396,0
32940,-2.82764,-0.329191,0.333813,0
32960,-2.83291,-0.336814,0.335484,0
32980,-2.83785,-0.342627,0.336617,0
33000,-2.8426,-0.3468,0.3367,0
33020,-2.84601,-0.35015,0.335793,0
33040,-2.8494,-0.353485,0.334768,0
33060,-2.85271,-0.357332,0.333685,0
33080,-2.85606,-0.361793,0.334073,0
33100,-2.8595,-0.364529,0.335351,0
33120,-2.86159,-0.367006,0.336042,0
33140,-2.86284,-0.370205,0.336916,0
33160,-2.86523,-0.37309,0.337256,0
33180,-2.86589,-0.374755,0.335793,0
33200,-2.8668,-0.375825,0.334171,0
33220,-2.86786,-0.376674,0.331446,0
33240,-2.86722,-0.37911,0.329415,0
33260,-2.86744,-0.382606,0.328689,0
33280,-2.86808,-0.386173,0.327272,0
33300,-2.86841,-0.388976,0.326265,0
33320,-2.86659,-0.389919,0.325214,0
33340,-2.86457,-0.391183,0.324465,0
33360,-2.86376,-0.392503,0.323802,0
33380,-2.86486,-0.393855,0.322688,0
33400,-2.86605,-0.394917,0.322023,0
33420,-2.86573,-0.396033,0.320702,0
33440,-2.86657,-0.398092,0.319608,0
33460,-2.86813,-0.399991,0.318287,0
33480,-2.87043,-0.401875,0.316323,0
33500,-2.87218,-0.403837,0.313369,0
33520,-2.87262,-0.404754,0.310166,0
33540,-2.87188,-0.404825,0.307469,0
33560,-2.87209,-0.405897,0.305736,0
33580,-2.87203,-0.407901,0.304868,0
33600,-2.87285,-0.408947,0.304403,0
33620,-2.87259,-0.409437,0.303928,0
33640,-2.87289,-0.40977,0.304068,0
33660,-2.8735,-0.410651,0.304613,0
33680,-2.87393,-0.411616,0.30561,0
33700,-2.87374,-0.412571,0.307272,0
33720,-2.87438,-0.413556,0.309338,0
33740,-2.87544,-0.414258,0.312531,0
33760,-2.8761,-0.415521,0.317779,0
33780,-2.8768,-0.417928,0.323058,0
33800,-2.87926,-0.420993,0.32912,0
33820,-2.88163,-0.425162,0.336358,0
33840,-2.88508,-0.429429,0.346271,0
33860,-2.89055,-0.4343,0.357728,0
33880,-2.89751,-0.440223,0.368658,0
33900,-2.90588,-0.4465,0.380586,0
33920,-2.91574,-0.452661,0.394449,0
33940,-2.9274,-0.458577,0.409194,0
33960,-2.94138,-0.463432,0.425402,0
33980,-2.95823,-0.467869,0.444034,0
34000,-2.97569,-0.4725,0.463972,0
34020,-2.99289,-0.479262,0.485671,0
34040,-3.01382,-0.486108,0.510004,0
34060,-3.03765,-0.492338,0.533342,0
34080,-3.06114,-0.498467,0.554772,0
34100,-3.08562,-0.502809,0.576515,0
34120,-3.10876,-0.505399,0.597252,0
34140,-3.13202,-0.504577,0.615268,0
34160,3.12731,-0.504015,0.630913,0
34180,3.10214,-0.504403,0.645497,0
34200,3.07648,-0.504538,0.660829,0
34220,3.05036,-0.503957,0.675538,0
34240,3.02593,-0.505958,0.689104,0
34260,3.00133,-0.508733,0.702051,0
34280,2.97896,-0.51062,0.714549,0
34300,2.95887,-0.511098,0.727054,0
34320,2.93985,-0.512464,0.739227,0
34340,2.92052,-0.515119,0.751545,0
34360,2.9015,-0.517063,0.763344,0
34380,2.88685,-0.51803,0.774205,0
34400,2.8734,-0.517825,0.784906,0
34420,2.86209,-0.51728,0.793949,0
34440,2.85061,-0.517599,0.801894,0
34460,2.84108,-0.51805,0.810561,0
34470,2.82476,-0.516131,0.829338,0
34490,2.81688,-0.514904,0.838724,0
34510,2.80857,-0.513468,0.850572,0
34530,2.80139,-0.511174,0.864304,0
34550,2.79501,-0.506657,0.878864,0
34570,2.78769,-0.501542,0.894784,0
34590,2.78012,-0.497676,0.910182,0
34610,2.77298,-0.49459,0.924121,0
34630,2.76759,-0.491126,0.936925,0
34650,2.76333,-0.487234,0.947652,0
34670,2.75991,-0.484322,0.955767,0
34690,2.75694,-0.483197,0.962096,0
34710,2.75475,-0.482659,0.967419,0
34730,2.75241,-0.482103,0.971749,0
34750,2.7506,-0.481048,0.974136,0
34770,2.75104,-0.479447,0.974596,0
34790,2.752,-0.478183,0.973866,0
34810,2.75206,-0.477637,0.973658,0
34830,2.75158,-0.476922,0.974058,0
34840,2.75004,-0.47538,0.974614,0
34860,2.74859,-0.473636,0.974427,0
34880,2.74624,-0.472193,0.974199,0
34900,2.7434,-0.470958,0.973936,0
34920,2.73998,-0.470742,0.974144,0
34940,2.73682,-0.470928,0.974695,0
34960,2.73345,-0.471003,0.975296,0
34980,2.7308,-0.470175,0.976648,0
35000,2.72861,-0.468231,0.978036,0
35020,2.7262,-0.465987,0.979836,0
35040,2.72365,-0.462311,0.98175,0
35060,2.72189,-0.457572,0.983191,0
35080,2.71958,-0.453281,0.984843,0
35100,2.7162,-0.449298,0.986935,0
35120,2.71281,-0.444133,0.988746,0
35140,2.70998,-0.438524,0.990236,0
35160,2.7074,-0.433396,0.9911,0
35180,2.7048,-0.429558,0.99096,0
35200,2.70269,-0.42587,0.990331,0
35220,2.70066,-0.423464,0.989329,0
35240,2.69787,-0.422103,0.988934,0
35260,2.69673,-0.422859,0.98773,0
35280,2.69747,-0.424142,0.984936,0
35300,2.69786,-0.42388,0.982354,0
35320,2.6959,-0.422356,0.981926,0
35340,2.69334,-0.420955,0.982989,0
35360,2.69401,-0.420555,0.982917,0
35380,2.69559,-0.42094,0.982518,0
35400,2.69795,-0.423405,0.980431,0
35420,2.70061,-0.430393,0.977656,0
35440,2.70451,-0.43977,0.974941,0
35460,2.70909,-0.449762,0.970661,0
35480,2.71474,-0.464195,0.965493,0
35500,2.71937,-0.480473,0.960256,0
35520,2.72549,-0.492905,0.953657,0
35540,2.73319,-0.505224,0.945729,0
35560,2.74002,-0.516717,0.938074,0
35580,2.74406,-0.528401,0.933699,0
35600,2.74549,-0.54025,0.930776,0
35620,2.74545,-0.552488,0.929909,0
35640,2.74528,-0.560966,0.929012,0
35660,2.74602,-0.565594,0.927032,0
35680,2.74822,-0.567908,0.922215,0
35700,2.7517,-0.570066,0.916796,0
35720,2.75454,-0.571974,0.910637,0
35740,2.75933,-0.574615,0.903344,0
35760,2.76234,-0.57702,0.896717,0
35780,2.76881,-0.577321,0.887319,0
35800,2.77425,-0.579293,0.879651,0
35820,2.77862,-0.579705,0.872715,0
35840,2.78206,-0.578463,0.867256,0
35860,2.78107,-0.582137,0.86434,0
35880,2.78069,-0.590637,0.863944,0
35900,2.78186,-0.600032,0.864936,0
35920,2.78299,-0.61079,0.864666,0
35940,2.78257,-0.623295,0.864987,0
35960,2.78602,-0.634659,0.862867,0
35980,2.79189,-0.641393,0.855819,0
36000,2.79829,-0.647376,0.843701,0
36020,2.80881,-0.652628,0.827872,0
36040,2.82149,-0.654395,0.808048,0
36060,2.83303,-0.654725,0.786243,0
36080,2.84134,-0.657034,0.767228,0
36100,2.84639,-0.658998,0.753368,0
36120,2.84915,-0.659528,0.745335,0
36140,2.84905,-0.659252,0.742844,0
36160,2.84877,-0.658958,0.744601,0
36180,2.84886,-0.657644,0.749015,0
36200,2.85102,-0.655899,0.756516,0
36220,2.85377,-0.653776,0.766692,0
36240,2.85901,-0.650028,0.779206,0
36260,2.86322,-0.646416,0.795783,0
36280,2.86647,-0.6408,0.816479,0
36300,2.8713,-0.631052,0.838206,0
36320,2.87585,-0.620133,0.858272,0
36340,2.87822,-0.611564,0.87794,0
36360,2.8768,-0.604681,0.896184,0
36380,2.87575,-0.597268,0.909125,0
36400,2.87627,-0.589577,0.916355,0
36420,2.88127,-0.582737,0.919583,0
36440,2.88947,-0.578925,0.918293,0
36460,2.8955,-0.581109,0.910953,0
36480,2.90386,-0.588293,0.899414,0
36500,2.91378,-0.595279,0.886611,0
36520,2.92234,-0.600982,0.878332,0
36540,2.92352,-0.606607,0.875829,0
36560,2.9211,-0.612496,0.87637,0
36580,2.92002,-0.620771,0.874524,0
36600,2.92625,-0.628435,0.868412,0
36620,2.93166,-0.636207,0.863367,0
36640,2.93315,-0.635224,0.859482,0
36660,2.93994,-0.625199,0.850479,0
36680,2.95263,-0.618927,0.84075,0
36700,2.95335,-0.62178,0.845904,0
36720,2.94157,-0.631062,0.859529,0
36740,2.9362,-0.637612,0.869329,0
36760,2.93405,-0.64357,0.879238,0
36780,2.93281,-0.648544,0.892519,0
36800,2.93038,-0.652206,0.904027,0
36820,2.92892,-0.656583,0.912279,0
36840,2.92867,-0.661101,0.917763,0
36860,2.92569,-0.665752,0.922309,0
36880,2.92395,-0.668853,0.923541,0
36900,2.92477,-0.668118,0.919778,0
36920,2.92893,-0.666994,0.913567,0
36940,2.93025,-0.671507,0.907879,0
36960,2.94076,-0.681406,0.89458,0
36980,2.95052,-0.690479,0.878381,0
37000,2.94604,-0.694068,0.87444,0
37020,2.94237,-0.686671,0.869012,0
37040,2.94397,-0.6686,0.865102,0
37060,2.9549,-0.643438,0.863566,0
37080,2.96587,-0.624058,0.866398,0
37100,2.96792,-0.617949,0.880515,0
37120,2.96719,-0.621331,0.897452,0
37140,2.9696,-0.622951,0.914763,0
37160,2.993,-0.617016,0.939969,0
37180,3.03508,-0.614217,0.968921,0
37200,3.06931,-0.621753,0.984929,0
37220,3.09136,-0.62601,0.990113,0
37240,3.12261,-0.623847,0.991568,0
37260,-3.12878,-0.625741,1.00529,0
37280,-3.10757,-0.627305,1.03313,0
37300,-3.10382,-0.629894,1.06035,0
37320,-3.10159,-0.626353,1.08028,0
37340,-3.09041,-0.624729,1.0916,0
37360,-3.08417,-0.624047,1.0962,0
37380,-3.07981,-0.6224,1.0896,0
37400,-3.07433,-0.620744,1.07727,0
37420,-3.06641,-0.617998,1.06231,0
37440,-3.06162,-0.613228,1.04794,0
37460,-3.05936,-0.608584,1.03292,0
37480,-3.05778,-0.602545,1.02026,0
37500,-3.05607,-0.595883,1.01314,0
37520,-3.05795,-0.591874,1.0073,0
37540,-3.06234,-0.586432,1.00622,0
37560,-3.06513,-0.580885,1.00438,0
37580,-3.06528,-0.571931,1.00186,0
37600,-3.0681,-0.562429,1.00041,0
37620,-3.07423,-0.550806,1.00108,0
37640,-3.08065,-0.538728,1.00234,0
37660,-3.0888,-0.524339,1.00513,0
37680,-3.09894,-0.510201,1.00655,0
37700,-3.11127,-0.498629,1.00558,0
37720,3.13378,-0.478275,1.01387,0
37740,-3.13115,-0.4791,1.01805,0
37760,-3.11105,-0.477885,1.02116,0
37780,-3.10028,-0.48612,1.02581,0
37800,-3.09377,-0.495557,1.03525,0
37820,-3.09563,-0.503668,1.04851,0
37840,-3.10049,-0.510838,1.06267,0
37860,-3.10821,-0.516737,1.07425,0
37880,-3.11446,-0.521807,1.08279,0
37900,-3.11563,-0.527799,1.08991,0
37920,-3.11489,-0.535168,1.09482,0
37940,-3.11431,-0.544013,1.0959,0
37960,-3.11621,-0.555226,1.09063,0
37980,-3.11676,-0.568345,1.07625,0
38000,-3.1106,-0.579282,1.05063,0
38020,-3.09956,-0.589144,1.01832,0
38040,-3.08549,-0.599235,0.985663,0
38060,-3.07431,-0.607373,0.953188,0
38080,-3.06682,-0.614416,0.924085,0
38100,-3.06276,-0.621754,0.90006,0
38120,-3.06609,-0.627287,0.879109,0
38140,-3.06637,-0.630564,0.858216,0
38160,-3.06543,-0.629985,0.832797,0
38180,-3.05483,-0.62732,0.799803,0
38190,-3.03898,-0.623833,0.76127,0
38210,-3.01366,-0.621171,0.715982,0
38230,-2.9869,-0.617693,0.666994,0
38250,-2.95911,-0.611656,0.615171,0
38270,-2.93202,-0.600925,0.56583,0
38290,-2.90469,-0.58894,0.521266,0
38310,-2.88399,-0.578825,0.485855,0
38330,-2.86679,-0.568698,0.45941,0
38350,-2.85147,-0.560776,0.441127,0
38370,-2.84017,-0.554497,0.429366,0
38390,-2.83363,-0.550731,0.423951,0
38410,-2.82959,-0.54813,0.423325,0
38430,-2.82663,-0.545715,0.424402,0
38450,-2.82456,-0.542213,0.424376,0
38470,-2.82182,-0.536944,0.418956,0
38490,-2.81542,-0.528663,0.406929,0
38510,-2.80674,-0.518481,0.391524,0
38530,-2.79947,-0.507225,0.373058,0
38550,-2.79311,-0.496243,0.352317,0
38570,-2.78214,-0.491154,0.334337,0
38590,-2.76716,-0.486558,0.32217,0
38610,-2.7582,-0.485227,0.31938,0
38630,-2.75927,-0.487782,0.323657,0
38650,-2.76359,-0.491651,0.328727,0
38670,-2.76596,-0.500072,0.33888,0
38690,-2.77537,-0.509302,0.353862,0
38710,-2.78058,-0.516799,0.36074,0
38730,-2.77809,-0.521422,0.360323,0
38750,-2.77526,-0.520682,0.356593,0
38770,-2.76458,-0.512088,0.345988,0
38790,-2.75015,-0.502032,0.335411,0
38810,-2.74003,-0.491664,0.32721,0
38830,-2.73485,-0.47905,0.320585,0
38850,-2.72649,-0.468719,0.314967,0
38870,-2.71205,-0.464966,0.314241,0
38890,-2.71094,-0.464049,0.32087,0
38910,-2.70231,-0.464863,0.317517,0
38930,-2.69749,-0.471364,0.322673,0
38950,-2.69495,-0.480706,0.331454,0
38970,-2.69757,-0.493825,0.338678,0
38990,-2.69995,-0.5088,0.345735,0
39010,-2.70059,-0.528916,0.360215,0
39030,-2.71066,-0.562531,0.392224,0
39050,-2.74017,-0.602922,0.432505,0
39070,-2.77484,-0.638296,0.478828,0
39090,-2.80458,-0.675165,0.529458,0
39110,-2.83712,-0.717804,0.592309,0
39130,-2.89237,-0.757488,0.656151,0
39150,-2.94591,-0.790315,0.716367,0
39170,-3.00333,-0.817389,0.77846,0
39190,-3.05663,-0.833437,0.834859,0
39210,-3.09704,-0.84008,0.886804,0
39230,3.13388,-0.842783,0.944048,0
39250,3.08113,-0.844565,0.982168,0
39270,3.05417,-0.83992,0.998071,0
39290,3.03123,-0.830233,1.02302,0
39310,3.01053,-0.818626,1.05058,0
39330,2.99811,-0.801311,1.06359,0
39350,2.98724,-0.779044,1.06756,0
39370,2.99052,-0.752426,1.06033,0
39390,3.00287,-0.723,1.04561,0
39410,3.01963,-0.693008,1.03014,0
39430,3.03951,-0.661286,1.01287,0
39450,3.05867,-0.634556,0.999314,0
39470,3.07117,-0.609763,0.98953,0
39490,3.08295,-0.587128,0.979697,0
39510,3.105,-0.567806,0.968507,0
39530,3.13326,-0.563883,0.960536,0
39550,-3.14025,-0.581214,0.973134,0
39570,3.1212,-0.607255,1.00559,0
39590,3.10735,-0.616849,1.02415,0
39610,3.11704,-0.612488,1.03087,0
39630,3.13552,-0.604447,1.03892,0
39650,-3.13636,-0.591522,1.04406,0
39670,-3.12486,-0.576023,1.03863,0
39690,-3.12015,-0.571295,1.03972,0
39710,-3.11211,-0.56729,1.04286,0
39730,-3.10454,-0.560267,1.04216,0
39750,-3.09832,-0.551574,1.03802,0
39770,-3.09394,-0.544701,1.03517,0
39790,-3.09302,-0.538822,1.03825,0
39810,-3.09465,-0.532413,1.045,0
39830,-3.09928,-0.52324,1.05275,0
39850,-3.1049,-0.51456,1.06046,0
39870,-3.10975,-0.506919,1.06843,0
39890,-3.11505,-0.501111,1.07627,0
39910,-3.12088,-0.49825,1.08467,0
39930,-3.12624,-0.496565,1.0961,0
39950,-3.13121,-0.495477,1.10737,0
39970,-3.1387,-0.499503,1.11715,0
39990,3.13522,-0.506663,1.12653,0
40010,3.12429,-0.515312,1.13791,0
40030,3.11323,-0.523432,1.14929,0
40050,3.10454,-0.528806,1.16044,0
40070,3.09777,-0.533686,1.17118,0
40090,3.09015,-0.534759,1.1789,0
40110,3.07901,-0.532762,1.18626,0
40130,3.06746,-0.528344,1.19205,0
40150,3.05864,-0.52053,1.1973,0
40160,3.04917,-0.51164,1.20402,0
40180,3.03771,-0.499527,1.21023,0
40200,3.0276,-0.485237,1.21476,0
40220,3.00689,-0.463612,1.22458,0
40250,2.98073,-0.460502,1.24014,0
40270,2.9794,-0.474236,1.23934,0
40290,2.98231,-0.493035,1.23555,0
40310,2.99249,-0.513171,1.22676,0
40330,3.00617,-0.534101,1.2127,0
40350,3.01174,-0.55813,1.19527,0
40370,3.01438,-0.584752,1.18215,0
40390,3.01599,-0.606497,1.16885,0
40410,3.0253,-0.617227,1.14845,0
40430,3.03677,-0.619714,1.12635,0
40450,3.04914,-0.616126,1.10591,0
40470,3.06092,-0.611496,1.0895,0
40490,3.0664,-0.606258,1.07815,0
40510,3.0651,-0.608321,1.06898,0
40530,3.06611,-0.61177,1.05999,0
40550,3.06914,-0.616289,1.05259,0
40570,3.08331,-0.621647,1.04262,0
40590,3.09626,-0.625661,1.03107,0
40610,3.10659,-0.62768,1.02258,0
40630,3.11567,-0.628556,1.01708,0
40650,3.12731,-0.624097,1.01258,0
40670,3.13741,-0.622415,1.00721,0
40690,-3.13395,-0.622481,1.00376,0
40710,-3.12826,-0.619218,1.00412,0
40730,-3.1295,-0.609848,1.00926,0
40750,-3.13135,-0.591737,1.015,0
40770,-3.13526,-0.579123,1.02915,0
40790,3.13641,-0.567386,1.04979,0
40810,3.12727,-0.552938,1.06891,0
40830,3.12591,-0.53927,1.08371,0
40850,3.12962,-0.524073,1.09515,0
40870,3.12178,-0.511636,1.10715,0
40890,3.11565,-0.502242,1.11247,0
40910,3.10376,-0.504443,1.12524,0
40930,3.09219,-0.504047,1.13156,0
40950,3.09754,-0.507715,1.12307,0
40970,3.10406,-0.514846,1.11326,0
40990,3.11492,-0.519162,1.09831,0
41010,3.13155,-0.519916,1.07713,0
41030,-3.1376,-0.522196,1.05745,0
41050,-3.12832,-0.522721,1.04616,0
41070,-3.12064,-0.518005,1.04096,0
41090,-3.10972,-0.510895,1.04157,0
41110,-3.10448,-0.505741,1.05169,0
41130,-3.10808,-0.507468,1.0675,0
41150,-3.11477,-0.509999,1.08277,0
41170,-3.11776,-0.511826,1.09548,0
41190,-3.1149,-0.517663,1.10451,0
41210,-3.10832,-0.52514,1.10616,0
41230,-3.0997,-0.528726,1.09835,0
41250,-3.09281,-0.531331,1.09042,0
41270,-3.08464,-0.533218,1.07966,0
41290,-3.07502,-0.538075,1.06509,0
41310,-3.06863,-0.544942,1.05252,0
41330,-3.06599,-0.551281,1.04657,0
41350,-3.06353,-0.556427,1.04688,0
41370,-3.06285,-0.557549,1.05407,0
41390,-3.06145,-0.557928,1.06188,0
41410,-3.06752,-0.559153,1.06974,0
41430,-3.07409,-0.558673,1.07875,0
41450,-3.07833,-0.55346,1.08676,0
41470,-3.08079,-0.551287,1.09146,0
41490,-3.08731,-0.549202,1.093,0
41510,-3.09568,-0.548236,1.09464,0
41530,-3.09662,-0.550633,1.09617,0
41550,-3.09631,-0.55729,1.10201,0
41570,-3.10805,-0.562501,1.11405,0
41590,-3.1193,-0.561999,1.11938,0
41610,-3.12398,-0.559393,1.12354,0
41630,-3.1313,-0.558438,1.13193,0
41650,3.13896,-0.561203,1.14185,0
41670,3.12521,-0.565536,1.15031,0
41690,3.11491,-0.56967,1.1588,0
41710,3.10578,-0.573188,1.16849,0
41730,3.0974,-0.574123,1.17644,0
41750,3.08604,-0.572625,1.18481,0
41770,3.06798,-0.56852,1.1996,0
41790,3.05365,-0.561877,1.2073,0
41810,3.03666,-0.557457,1.2147,0
41830,3.01802,-0.547181,1.21944,0
41850,3.00653,-0.537311,1.22382,0
41870,2.9969,-0.528391,1.2325,0
41890,2.99587,-0.520949,1.23827,0
41910,2.98566,-0.519276,1.24364,0
41930,2.97283,-0.523216,1.24806,0
41950,2.96352,-0.522337,1.25252,0
41970,2.95634,-0.515888,1.25661,0
41990,2.94617,-0.512297,1.26507,0
42010,2.92584,-0.506388,1.28122,0
42030,2.89956,-0.504092,1.30448,0
42050,2.87196,-0.509328,1.32645,0
42070,2.84486,-0.521328,1.34876,0
42090,2.82145,-0.552512,1.36748,0
42110,2.80583,-0.587829,1.39032,0
42130,2.77142,-0.635095,1.42778,0
42150,2.73798,-0.668097,1.44385,0
42170,2.73322,-0.683917,1.4197,0
42190,2.77718,-0.688081,1.36651,0
42210,2.84117,-0.688021,1.31377,0
42230,2.89366,-0.694705,1.25211,0
42250,2.92981,-0.70912,1.18841,0
42270,2.96869,-0.721366,1.12804,0
42290,3.01866,-0.722231,1.07615,0
42310,3.06658,-0.712588,1.0392,0
42330,3.0994,-0.699302,1.00101,0
42350,3.12118,-0.688769,0.979696,0
42370,3.135,-0.675132,0.975041,0
42390,-3.13726,-0.655783,0.975139,0
42410,-3.12277,-0.63447,0.968456,0
42430,-3.12411,-0.623626,0.979026,0
42450,-3.13586,-0.615514,0.984328,0
42470,-3.13215,-0.60966,0.981011,0
42490,-3.12447,-0.60429,0.980549,0
42510,-3.11979,-0.600548,0.982762,0
42530,-3.11656,-0.598653,0.975385,0
42550,-3.11092,-0.597858,0.962857,0
42570,-3.09969,-0.591367,0.94893,0
42590,-3.08956,-0.580911,0.937723,0
42610,-3.08231,-0.564802,0.925153,0
42630,-3.07618,-0.547959,0.910238,0
42650,-3.06894,-0.529279,0.897141,0
42670,-3.05945,-0.515894,0.886122,0
42690,-3.05561,-0.512122,0.878141,0
42710,-3.05887,-0.508569,0.87972,0
42730,-3.06003,-0.507362,0.887515,0
42750,-3.05316,-0.509547,0.879859,0
42770,-3.03998,-0.512011,0.864679,0
42790,-3.03605,-0.515335,0.853184,0
42810,-3.02574,-0.518055,0.841381,0
42830,-3.02412,-0.518208,0.828598,0
42850,-3.01138,-0.520293,0.809545,0
42870,-2.9943,-0.516546,0.788968,0
42890,-2.97565,-0.512605,0.770713,0
42910,-2.96227,-0.509321,0.758643,0
42930,-2.95282,-0.507625,0.747008,0
42950,-2.94275,-0.503889,0.734437,0
42970,-2.92915,-0.495476,0.718524,0
42990,-2.91196,-0.482352,0.70058,0
43010,-2.89653,-0.466841,0.683451,0
43030,-2.88502,-0.454376,0.665115,0
43050,-2.88121,-0.450642,0.651003,0
43070,-2.89857,-0.458774,0.654584,0
43090,-2.92462,-0.482763,0.674024,0
43110,-2.94937,-0.517218,0.701222,0
43130,-2.96803,-0.557302,0.735995,0
43150,-2.98496,-0.595077,0.77541,0
43170,-3.00628,-0.628722,0.8186,0
43190,-3.03702,-0.658692,0.870468,0
43210,-3.07309,-0.682382,0.932282,0
43230,-3.11093,-0.70285,1.00134,0
43250,3.13091,-0.719187,1.07535,0
43270,3.08455,-0.722952,1.14947,0
43290,3.03657,-0.715859,1.21979,0
43310,2.99778,-0.697295,1.28211,0
43330,2.95662,-0.666877,1.34277,0
43350,2.91309,-0.627432,1.39711,0
43370,2.8751,-0.583848,1.43459,0
43390,2.85587,-0.531247,1.45187,0
43410,2.8427,-0.488597,1.45622,0
43430,2.83395,-0.448711,1.44992,0
43450,2.82552,-0.414213,1.44028,0
43470,2.81809,-0.397568,1.42684,0
43490,2.81369,-0.39741,1.40775,0
43510,2.81403,-0.407754,1.38695,0
43530,2.80828,-0.427092,1.37095,0
43540,2.80654,-0.443243,1.35702,0
43560,2.80332,-0.450146,1.34727,0
43580,2.79536,-0.472231,1.34018,0
43600,2.79331,-0.477404,1.33241,0
43620,2.77285,-0.484856,1.3252,0
43640,2.76811,-0.484439,1.31979,0
43660,2.76767,-0.483595,1.31324,0
43680,2.7647,-0.481878,1.30889,0
43680,2.75709,-0.48342,1.30334,0
43700,2.75251,-0.485295,1.29446,0
43710,2.75305,-0.487948,1.28563,0
43730,2.75281,-0.489035,1.27717,0
43750,2.7642,-0.481368,1.24834,0
43760,2.77149,-0.475509,1.23724,0
43780,2.77441,-0.469855,1.23088,0
43800,2.77235,-0.460155,1.22661,0
43820,2.77385,-0.451447,1.2236,0
43840,2.78538,-0.440883,1.2232,0
43860,2.78947,-0.424685,1.22337,0
43880,2.79584,-0.405154,1.22478,0
43900,2.80165,-0.381674,1.23147,0
43920,2.80625,-0.356199,1.24097,0
43940,2.80725,-0.329283,1.25095,0
43960,2.80654,-0.303567,1.26375,0
43960,2.80256,-0.284494,1.27698,0
43960,2.79634,-0.279482,1.28585,0
43980,2.79227,-0.31652,1.26798,0
43980,2.80934,-0.361479,1.23416,0
43990,2.82068,-0.426696,1.23009,0
44010,2.81748,-0.456843,1.23575,0
44030,2.81591,-0.475183,1.23769,0
44050,2.81402,-0.485168,1.23934,0
44070,2.81137,-0.491772,1.24312,0
44090,2.80819,-0.496106,1.24755,0
44110,2.80789,-0.499118,1.24673,0
44130,2.80938,-0.500951,1.24495,0
44150,2.80956,-0.496022,1.24322,0
44170,2.81516,-0.488224,1.23964,0
44190,2.81821,-0.481966,1.24124,0
44210,2.81867,-0.473503,1.24804,0
44230,2.82277,-0.457389,1.25087,0
44250,2.82664,-0.439399,1.25228,0
44270,2.83076,-0.419084,1.25779,0
44290,2.83216,-0.399567,1.26506,0
44310,2.83101,-0.385883,1.27158,0
44340,2.89279,-0.457195,1.18909,0
44380,2.90103,-0.485553,1.18947,0
44440,2.87845,-0.50162,1.23265,0
44460,2.87862,-0.505637,1.23703,0
44480,2.88282,-0.505335,1.23674,0
44500,2.88745,-0.498585,1.23844,0
44510,2.89152,-0.488633,1.24385,0
44600,3.1377,-0.826766,1.23191,0
44640,-2.87073,-0.963991,1.01793,0
44670,-2.06836,-1.00638,0.301862,0
44690,-1.82486,-0.937508,0.0804638,0
44710,-1.64307,-0.837237,-0.0834428,0
44730,-1.51524,-0.727939,-0.191284,0
44740,-1.42226,-0.614213,-0.261018,0
44770,-1.35014,-0.514218,-0.306437,0
44790,-1.29228,-0.412641,-0.334302,0
44810,-1.24631,-0.324375,-0.357987,0
44830,-1.21433,-0.236792,-0.372319,0
44850,-1.19776,-0.146311,-0.378198,0
44870,-1.1844,-0.0620418,-0.370871,0
44890,-1.17111,0.0267504,-0.3567,0
44910,-1.16197,0.109062,-0.339173,0
44930,-1.16065,0.192214,-0.31781,0
44940,-1.15223,0.26688,-0.295921,0
44960,-1.14402,0.333066,-0.273124,0
44980,-1.13338,0.393969,-0.249393,0
45000,-1.12262,0.442291,-0.225675,0
45020,-1.12199,0.471233,-0.2239,0
45040,-1.10763,0.463681,-0.241327,0
45060,-1.07322,0.436669,-0.265151,0
45080,-1.04072,0.417487,-0.287998,0
45100,-1.00152,0.411229,-0.296089,0
45120,-0.985291,0.414326,-0.295745,0
45140,-0.993013,0.427087,-0.296816,0
45160,-1.00909,0.439624,-0.302502,0
45180,-1.02042,0.442609,-0.312825,0
45200,-1.01988,0.441402,-0.324604,0
45220,-1.01232,0.442791,-0.332887,0
45240,-1.0049,0.446501,-0.338369,0
45260,-1.00572,0.450982,-0.344477,0
45280,-1.01491,0.453522,-0.355733,0
45300,-1.02306,0.454116,-0.370992,0
45320,-1.02318,0.456091,-0.384201,0
45340,-1.01738,0.462198,-0.39472,0
45360,-1.01314,0.469507,-0.404984,0
45380,-1.01568,0.476693,-0.416085,0
45400,-1.02443,0.482717,-0.427338,0
45420,-1.03491,0.487426,-0.438702,0
45440,-1.04467,0.491734,-0.448938,0
45460,-1.05432,0.497127,-0.458316,0
45480,-1.06494,0.501779,-0.466849,0
45490,-1.07575,0.506296,-0.473878,0
45510,-1.08441,0.510185,-0.479886,0
45530,-1.09071,0.513558,-0.483639,0
45550,-1.09679,0.51672,-0.484026,0
45570,-1.10377,0.519725,-0.481304,0
45590,-1.11214,0.522641,-0.475857,0
45610,-1.12116,0.526511,-0.469969,0
45630,-1.1273,0.53141,-0.462861,0
45650,-1.13173,0.53652,-0.455378,0
45670,-1.13622,0.543055,-0.448102,0
45690,-1.13961,0.548297,-0.440901,0
45710,-1.14412,0.550726,-0.434724,0
45730,-1.14395,0.552043,-0.427239,0
45750,-1.13664,0.551358,-0.417888,0
45770,-1.12421,0.547193,-0.406587,0
45790,-1.1122,0.541459,-0.396306,0
45810,-1.10315,0.535361,-0.387245,0
45830,-1.09714,0.529714,-0.379722,0
45850,-1.09483,0.525044,-0.373939,0
45870,-1.09537,0.521472,-0.370395,0
45890,-1.09699,0.518676,-0.367425,0
45910,-1.09815,0.516344,-0.363599,0
45930,-1.09918,0.514366,-0.358639,0
45950,-1.09927,0.514751,-0.354059,0
45970,-1.10063,0.516932,-0.35101,0
45990,-1.10565,0.520061,-0.351917,0
46010,-1.11123,0.522693,-0.355512,0
46030,-1.11535,0.524903,-0.360665,0
46050,-1.11732,0.527259,-0.366159,0
46070,-1.11826,0.52908,-0.371706,0
46090,-1.11859,0.529176,-0.377156,0
46110,-1.1177,0.527807,-0.381547,0
46130,-1.11573,0.525562,-0.384625,0
46150,-1.11431,0.522709,-0.386621,0
46170,-1.1152,0.519799,-0.38858,0
46190,-1.11814,0.517532,-0.390686,0
46210,-1.12243,0.51619,-0.393198,0
46230,-1.12726,0.515879,-0.396119,0
46250,-1.13162,0.515915,-0.399436,0
46270,-1.13522,0.516299,-0.403101,0
46290,-1.13789,0.516285,-0.406623,0
46310,-1.13994,0.516202,-0.409732,0
46330,-1.14171,0.515977,-0.412619,0
46350,-1.14356,0.515283,-0.415404,0
46370,-1.14599,0.514721,-0.418019,0
46390,-1.14838,0.514175,-0.42052,0
46410,-1.15096,0.513791,-0.423323,0
46430,-1.15338,0.513173,-0.425931,0
46450,-1.15558,0.51242,-0.428514,0
46470,-1.15703,0.511557,-0.43114,0
46490,-1.15666,0.510516,-0.433863,0
46510,-1.15478,0.509539,-0.436447,0
46530,-1.152,0.508706,-0.438528,0
46550,-1.14898,0.507242,-0.440949,0
46570,-1.14487,0.505095,-0.443539,0
46590,-1.13967,0.503015,-0.445901,0
46610,-1.13408,0.50114,-0.447791,0
46630,-1.12953,0.499081,-0.449087,0
46650,-1.12746,0.496657,-0.449925,0
46670,-1.1262,0.494073,-0.449921,0
46690,-1.12576,0.491287,-0.448789,0
46710,-1.12513,0.488745,-0.4473,0
46730,-1.12569,0.486768,-0.446049,0
46750,-1.12707,0.485475,-0.445125,0
46770,-1.12921,0.484189,-0.444635,0
46790,-1.13062,0.483611,-0.444634,0
46810,-1.13188,0.48295,-0.445095,0
46830,-1.13277,0.482668,-0.44541,0
46850,-1.13314,0.482247,-0.446021,0
46870,-1.1329,0.481916,-0.446883,0
46890,-1.13205,0.48157,-0.448099,0
46910,-1.13034,0.48125,-0.449716,0
46930,-1.12765,0.480696,-0.451739,0
46950,-1.12503,0.48033,-0.453752,0
46970,-1.12182,0.480329,-0.45578,0
46990,-1.11793,0.480173,-0.45732,0
47010,-1.11405,0.479895,-0.458614,0
47030,-1.11081,0.479568,-0.459664,0
47050,-1.1085,0.479188,-0.46015,0
47070,-1.10626,0.478769,-0.460077,0
47090,-1.10393,0.478331,-0.459336,0
47110,-1.10051,0.477959,-0.457233,0
47130,-1.09608,0.477886,-0.453641,0
47150,-1.09145,0.477726,-0.449183,0
47170,-1.08618,0.4778,-0.443502,0
47190,-1.08038,0.477538,-0.436269,0
47210,-1.07461,0.476834,-0.428653,0
47230,-1.06801,0.476333,-0.420463,0
47250,-1.06213,0.474789,-0.412351,0
47270,-1.05693,0.472747,-0.404492,0
47290,-1.05173,0.469675,-0.397057,0
47310,-1.04722,0.465984,-0.390781,0
47330,-1.04363,0.462102,-0.385202,0
47350,-1.04119,0.457891,-0.380694,0
47370,-1.03999,0.453237,-0.377196,0
47390,-1.03888,0.448314,-0.375015,0
47410,-1.03789,0.443787,-0.373713,0
47430,-1.03883,0.441607,-0.37429,0
47450,-1.04059,0.441794,-0.375971,0
47470,-1.04304,0.443386,-0.378017,0
47490,-1.04545,0.44598,-0.380214,0
47510,-1.04699,0.449478,-0.382427,0
47530,-1.04749,0.453654,-0.384695,0
47550,-1.0487,0.457785,-0.387303,0
47570,-1.04992,0.462077,-0.390632,0
47590,-1.05339,0.466641,-0.393874,0
47610,-1.05804,0.469621,-0.396176,0
47630,-1.06278,0.471548,-0.397991,0
47650,-1.06544,0.472231,-0.398346,0
47670,-1.06647,0.47184,-0.399192,0
47690,-1.06626,0.472542,-0.399961,0
47710,-1.06746,0.473236,-0.400233,0
47730,-1.06811,0.472124,-0.40153,0
47750,-1.06402,0.470519,-0.402137,0
47770,-1.05823,0.468516,-0.402332,0
47790,-1.05471,0.465136,-0.402501,0
47810,-1.05151,0.46139,-0.402265,0
47830,-1.0488,0.456452,-0.400778,0
47850,-1.05039,0.45056,-0.398018,0
47870,-1.0593,0.442385,-0.394689,0
47890,-1.07157,0.434547,-0.391911,0
47910,-1.08324,0.428455,-0.388902,0
47930,-1.09102,0.42239,-0.383983,0
47950,-1.09789,0.417162,-0.376665,0
47970,-1.10585,0.413808,-0.36787,0
47990,-1.11457,0.411347,-0.356808,0
48010,-1.11946,0.408983,-0.343363,0
48030,-1.12031,0.407994,-0.328535,0
48050,-1.12053,0.407551,-0.313706,0
48070,-1.12155,0.406456,-0.301472,0
48090,-1.1215,0.405786,-0.29156,0
48110,-1.11995,0.406815,-0.283727,0
48130,-1.11813,0.409131,-0.277421,0
48150,-1.11789,0.411769,-0.273627,0
48170,-1.11936,0.414413,-0.272251,0
48190,-1.12153,0.41741,-0.272497,0
48210,-1.12586,0.420496,-0.274421,0
48230,-1.13145,0.423684,-0.277583,0
48250,-1.13648,0.427291,-0.281317,0
48270,-1.14219,0.430733,-0.286338,0
48290,-1.14825,0.433453,-0.293974,0
48310,-1.1514,0.433535,-0.303575,0
48330,-1.15218,0.43442,-0.314157,0
48350,-1.14987,0.436654,-0.323289,0
48360,-1.14742,0.43784,-0.331575,0
48380,-1.14336,0.438083,-0.338817,0
48400,-1.13793,0.438483,-0.345239,0
48420,-1.13379,0.438907,-0.351533,0
48440,-1.13114,0.439968,-0.359018,0
48460,-1.12772,0.441783,-0.367726,0
48480,-1.12368,0.44397,-0.376276,0
48500,-1.12064,0.44587,-0.384133,0
48520,-1.11799,0.447899,-0.391588,0
48540,-1.11534,0.450519,-0.397922,0
48560,-1.11382,0.452388,-0.402726,0
48580,-1.11426,0.45389,-0.405906,0
48600,-1.11618,0.455108,-0.408101,0
48620,-1.11824,0.455844,-0.410322,0
48640,-1.11947,0.456682,-0.412184,0
48660,-1.12004,0.457278,-0.413215,0
48680,-1.11932,0.457436,-0.413517,0
48700,-1.11796,0.456962,-0.413448,0
48720,-1.11616,0.455949,-0.413482,0
48740,-1.11433,0.454781,-0.414865,0
48760,-1.11251,0.453828,-0.417249,0
48780,-1.10963,0.452692,-0.419752,0
48800,-1.10694,0.451497,-0.422409,0
48820,-1.10427,0.450322,-0.425539,0
48840,-1.10167,0.4491,-0.428512,0
48860,-1.09969,0.448138,-0.43127,0
48880,-1.09863,0.447272,-0.433702,0
48900,-1.0975,0.446893,-0.435838,0
48920,-1.09658,0.446509,-0.437737,0
48940,-1.0964,0.446086,-0.439298,0
48960,-1.09673,0.445792,-0.440544,0
48980,-1.09763,0.445627,-0.441202,0
49000,-1.0997,0.446008,-0.441301,0
49020,-1.10273,0.447235,-0.440377,0
49040,-1.10729,0.44889,-0.436343,0
49060,-1.11494,0.451103,-0.426003,0
49080,-1.12094,0.45226,-0.413171,0
49100,-1.12461,0.453728,-0.402978,0
49120,-1.13481,0.457224,-0.396785,0
49140,-1.15183,0.463025,-0.391312,0
49160,-1.16963,0.468871,-0.384846,0
49180,-1.18559,0.473899,-0.380056,0
49200,-1.196,0.477967,-0.376785,0
49220,-1.19999,0.481002,-0.374963,0
49240,-1.2003,0.483755,-0.375661,0
49260,-1.19699,0.486161,-0.37991,0
49280,-1.18978,0.487711,-0.386154,0
49300,-1.18045,0.488454,-0.393391,0
49320,-1.17085,0.490133,-0.40251,0
49340,-1.16337,0.491645,-0.411298,0
49360,-1.15623,0.491681,-0.419941,0
49380,-1.14778,0.490502,-0.428548,0
49400,-1.13848,0.488329,-0.437763,0
49420,-1.12821,0.486573,-0.446297,0
49440,-1.12057,0.485158,-0.45279,0
49460,-1.11532,0.483708,-0.458194,0
49480,-1.1113,0.481071,-0.463768,0
49500,-1.10869,0.477256,-0.468799,0
49520,-1.10803,0.47568,-0.472484,0
49540,-1.1077,0.474425,-0.475216,0
49560,-1.11015,0.472902,-0.476611,0
49580,-1.11328,0.471859,-0.476236,0
49600,-1.11643,0.470092,-0.473907,0
49620,-1.12144,0.469156,-0.469017,0
49640,-1.12923,0.470574,-0.462855,0
49660,-1.14053,0.472888,-0.455646,0
49680,-1.15269,0.47451,-0.446234,0
49700,-1.16959,0.475696,-0.434639,0
49720,-1.19217,0.475742,-0.422699,0
49740,-1.2201,0.474949,-0.411204,0
49760,-1.24588,0.475818,-0.398119,0
49780,-1.26989,0.478338,-0.384215,0
49800,-1.29245,0.480853,-0.371577,0
49820,-1.31283,0.483901,-0.358768,0
49840,-1.33042,0.486846,-0.347314,0
49860,-1.34393,0.490243,-0.338111,0
49880,-1.35293,0.495399,-0.331462,0
49900,-1.35824,0.501378,-0.327215,0
49920,-1.36478,0.507582,-0.326399,0
49940,-1.37223,0.514941,-0.330079,0
49960,-1.37905,0.525424,-0.335888,0
49990,-1.38332,0.5458,-0.354462,0
50010,-1.38292,0.555281,-0.367566,0
50030,-1.38645,0.566202,-0.381206,0
50050,-1.39444,0.574837,-0.394145,0
50070,-1.40215,0.581142,-0.403931,0
50090,-1.40808,0.58602,-0.411266,0
50110,-1.411,0.591062,-0.416669,0
50130,-1.41725,0.597673,-0.421289,0
50150,-1.42731,0.603637,-0.426166,0
50170,-1.43757,0.608159,-0.429595,0
50190,-1.44738,0.611947,-0.431274,0
50210,-1.45597,0.6145,-0.432234,0
50230,-1.46047,0.615626,-0.432519,0
50250,-1.46212,0.617184,-0.433045,0
50270,-1.46331,0.619589,-0.433826,0
50290,-1.46609,0.622643,-0.433808,0
50310,-1.46935,0.625276,-0.433474,0
50330,-1.474,0.627007,-0.434423,0
50340,-1.47948,0.628203,-0.43663,0
50360,-1.48505,0.629221,-0.43974,0
50380,-1.49,0.629813,-0.442724,0
50400,-1.49206,0.629236,-0.446067,0
50420,-1.49011,0.628664,-0.450106,0
50440,-1.48503,0.628618,-0.455041,0
50460,-1.47972,0.629092,-0.460301,0
50480,-1.47631,0.630223,-0.465629,0
50500,-1.4777,0.632865,-0.471317,0
50520,-1.48463,0.636349,-0.476552,0
50540,-1.49507,0.639449,-0.482006,0
50560,-1.50058,0.641412,-0.486423,0
50580,-1.50142,0.644224,-0.492003,0
50600,-1.4997,0.648052,-0.497373,0
50620,-1.50049,0.653389,-0.500836,0
50640,-1.50325,0.657167,-0.503176,0
50660,-1.50795,0.660798,-0.504568,0
50680,-1.51432,0.661734,-0.504495,0
50700,-1.5219,0.661775,-0.507155,0
50720,-1.52286,0.661429,-0.508026,0
50740,-1.52382,0.66414,-0.508625,0
50760,-1.53114,0.669198,-0.507966,0
50780,-1.53685,0.670943,-0.504484,0
50800,-1.53735,0.670886,-0.500777,0
50820,-1.53333,0.669383,-0.49777,0
50830,-1.52715,0.667661,-0.496283,0
50850,-1.51953,0.667089,-0.494691,0
50860,-1.51773,0.667583,-0.494012,0
50880,-1.52766,0.665086,-0.491,0
50920,-1.54553,0.680404,-0.482504,0
50940,-1.60886,0.680411,-0.493251,0
50940,-1.60369,0.666509,-0.494196,0
50950,-1.56535,0.653142,-0.489461,0
50970,-1.5532,0.654158,-0.484783,0
50990,-1.54226,0.653794,-0.48267,0
51010,-1.51753,0.648522,-0.478887,0
51030,-1.50329,0.644852,-0.478251,0
51050,-1.49012,0.644328,-0.478638,0
51070,-1.4787,0.644322,-0.478225,0
51090,-1.4729,0.644879,-0.478716,0
51110,-1.46887,0.644096,-0.479087,0
51130,-1.46346,0.64115,-0.47924,0
51150,-1.45506,0.637739,-0.479769,0
51170,-1.44502,0.634881,-0.48003,0
51200,-1.43411,0.629882,-0.482197,0
51220,-1.43355,0.628128,-0.483132,0
51240,-1.42554,0.623811,-0.485434,0
51260,-1.42226,0.622642,-0.486219,0
51290,-1.41104,0.619395,-0.486193,0
51310,-1.40455,0.617344,-0.486222,0
51330,-1.39611,0.614919,-0.486261,0
51350,-1.38514,0.611515,-0.486633,0
51370,-1.37091,0.606884,-0.487656,0
51390,-1.35375,0.601037,-0.489208,0
51410,-1.3348,0.595322,-0.490968,0
51430,-1.31689,0.590316,-0.492297,0
51450,-1.30453,0.585849,-0.492679,0
51470,-1.3001,0.582236,-0.492083,0
51490,-1.30031,0.578332,-0.489918,0
51510,-1.30324,0.574477,-0.486492,0
51530,-1.31207,0.573511,-0.479731,0
51550,-1.32897,0.573746,-0.470763,0
51570,-1.35218,0.574402,-0.460383,0
51590,-1.37326,0.574865,-0.447139,0
51610,-1.38117,0.573699,-0.430054,0
51630,-1.38225,0.573274,-0.414275,0
51650,-1.37459,0.567911,-0.399185,0
51670,-1.3618,0.561323,-0.387013,0
51690,-1.34718,0.555534,-0.379063,0
51710,-1.33139,0.549025,-0.374677,0
51730,-1.3135,0.541622,-0.372541,0
51750,-1.29317,0.534737,-0.371601,0
51770,-1.27559,0.528163,-0.371766,0
51790,-1.25853,0.522045,-0.37291,0
51810,-1.24271,0.515772,-0.37553,0
51830,-1.2298,0.510079,-0.377863,0
51850,-1.22046,0.505387,-0.379671,0
51870,-1.20987,0.499803,-0.379337,0
51890,-1.19658,0.491782,-0.374275,0
51910,-1.18767,0.483015,-0.365927,0
51930,-1.18507,0.477101,-0.354579,0
51950,-1.18688,0.475808,-0.339686,0
51970,-1.18757,0.476749,-0.323043,0
51990,-1.18297,0.476618,-0.307953,0
52010,-1.17698,0.474072,-0.295093,0
52030,-1.17145,0.47201,-0.282461,0
52050,-1.16684,0.471442,-0.270614,0
52070,-1.16452,0.471449,-0.261557,0
52090,-1.16086,0.471254,-0.254918,0
52110,-1.15828,0.469378,-0.251204,0
52130,-1.15628,0.46624,-0.2519,0
52150,-1.15415,0.464096,-0.256898,0
52170,-1.15403,0.463707,-0.265779,0
52190,-1.1577,0.465429,-0.277566,0
52210,-1.16242,0.466834,-0.290844,0
52230,-1.16498,0.465383,-0.303624,0
52250,-1.16474,0.461862,-0.315993,0
52270,-1.16086,0.458287,-0.326816,0
52290,-1.15618,0.455503,-0.336264,0
52310,-1.1525,0.453539,-0.34478,0
52330,-1.14943,0.451373,-0.353092,0
52350,-1.14619,0.449561,-0.36096,0
52370,-1.14259,0.447421,-0.368927,0
52390,-1.13965,0.444368,-0.377104,0
52410,-1.13574,0.441467,-0.383985,0
52430,-1.13013,0.438694,-0.38924,0
52450,-1.12376,0.437273,-0.39349,0
52470,-1.11784,0.436123,-0.396581,0
52490,-1.11454,0.433069,-0.398909,0
52510,-1.11322,0.428495,-0.400303,0
52530,-1.11038,0.42332,-0.398654,0
52550,-1.10591,0.41762,-0.395096,0
52570,-1.10196,0.411429,-0.391746,0
52610,-1.09752,0.397066,-0.387412,0
52630,-1.09501,0.389886,-0.385139,0
52650,-1.09007,0.384256,-0.382678,0
52670,-1.08274,0.381297,-0.379616,0
52690,-1.0763,0.381006,-0.375759,0
52710,-1.07199,0.382642,-0.371315,0
52730,-1.07022,0.385,-0.366903,0
52750,-1.07133,0.387833,-0.36393,0
52770,-1.07372,0.391276,-0.36232,0
52790,-1.07687,0.394792,-0.362129,0
52810,-1.07965,0.398634,-0.362758,0
52830,-1.0803,0.403495,-0.362939,0
52850,-1.07911,0.406005,-0.361833,0
52870,-1.07928,0.404792,-0.360258,0
52890,-1.08057,0.403285,-0.360315,0
52910,-1.08229,0.404743,-0.362613,0
52930,-1.07927,0.40796,-0.365545,0
52950,-1.06952,0.41081,-0.367173,0
52970,-1.05411,0.40946,-0.367045,0
52990,-1.03446,0.401559,-0.369461,0
53010,-1.00208,0.386438,-0.385876,0
53030,-0.964436,0.365416,-0.41684,0
53050,-0.932846,0.343651,-0.452943,0
53070,-0.909879,0.323428,-0.481691,0
53090,-0.896763,0.303424,-0.498778,0
53110,-0.88238,0.283009,-0.505857,0
53130,-0.875273,0.258654,-0.510068,0
53150,-0.879795,0.224195,-0.510468,0
53170,-0.890038,0.190039,-0.509456,0
53190,-0.898709,0.15738,-0.507827,0
53210,-0.900033,0.126575,-0.504886,0
53230,-0.893344,0.0981359,-0.499721,0
53250,-0.88939,0.0707591,-0.494809,0
53270,-0.890566,0.0473341,-0.489237,0
53290,-0.895015,0.0277022,-0.483303,0
53310,-0.898318,0.0108793,-0.477688,0
53330,-0.898639,-0.00300795,-0.471299,0
53350,-0.895983,-0.0141833,-0.46467,0
53370,-0.891191,-0.0200525,-0.458443,0
53390,-0.885704,-0.0205773,-0.452084,0
53410,-0.881635,-0.0165639,-0.446775,0
53430,-0.882778,-0.00454135,-0.442447,0
53440,-0.887186,0.0128957,-0.438044,0
53460,-0.893622,0.0361122,-0.43153,0
53480,-0.894346,0.0635891,-0.422794,0
53500,-0.888025,0.0922039,-0.421695,0
53520,-0.875261,0.115698,-0.42237,0
53540,-0.862575,0.136334,-0.425588,0
53560,-0.855054,0.157445,-0.434635,0
53580,-0.842795,0.178553,-0.446606,0
53600,-0.828751,0.200341,-0.46046,0
53620,-0.821728,0.212283,-0.468432,0
53640,-0.828926,0.214643,-0.47416,0
53660,-0.836175,0.216068,-0.478685,0
53680,-0.836182,0.217228,-0.482235,0
53700,-0.83576,0.217879,-0.487095,0
53720,-0.836572,0.220961,-0.494732,0
53740,-0.83948,0.22809,-0.505435,0
53760,-0.842457,0.239273,-0.517572,0
53780,-0.845575,0.253246,-0.530875,0
53800,-0.853222,0.274654,-0.544068,0
53820,-0.86493,0.303652,-0.556313,0
53840,-0.882183,0.337581,-0.564185,0
53860,-0.9055,0.378212,-0.567671,0
53880,-0.938377,0.426653,-0.566542,0
53900,-0.982463,0.459679,-0.569373,0
53920,-1.00521,0.460575,-0.563045,0
53940,-1.01527,0.427382,-0.561202,0
53960,-1.00476,0.400089,-0.556752,0
53980,-0.975031,0.391064,-0.544491,0
53990,-0.960082,0.395568,-0.531677,0
54010,-0.965518,0.406312,-0.520148,0
54030,-0.981815,0.418573,-0.513204,0
54050,-1.00216,0.426359,-0.510638,0
54070,-1.01991,0.426179,-0.510897,0
54090,-1.02966,0.419918,-0.515451,0
54110,-1.02831,0.413934,-0.522866,0
54130,-1.0175,0.413096,-0.530647,0
54150,-1.00435,0.417673,-0.537604,0
54170,-0.992805,0.422803,-0.545118,0
54190,-0.987092,0.426531,-0.553103,0
54210,-0.988217,0.428238,-0.560358,0
54230,-0.994202,0.429477,-0.567237,0
54250,-1.00152,0.4308,-0.573279,0
54270,-1.00718,0.433212,-0.579374,0
54290,-1.01044,0.436345,-0.585476,0
54310,-1.01242,0.44016,-0.591545,0
54330,-1.01406,0.44397,-0.596619,0
54350,-1.01558,0.446808,-0.599765,0
54370,-1.01562,0.448572,-0.600558,0
54390,-1.01386,0.449747,-0.599568,0
54410,-1.01169,0.450236,-0.597168,0
54430,-1.01103,0.45046,-0.59446,0
54450,-1.01234,0.450749,-0.591534,0
54470,-1.01444,0.451705,-0.587714,0
54490,-1.01434,0.454171,-0.582536,0
54510,-1.01123,0.457393,-0.575074,0
54530,-1.0088,0.460178,-0.567613,0
54550,-1.00764,0.462806,-0.560269,0
54570,-1.00903,0.465482,-0.553914,0
54590,-1.01269,0.467928,-0.548863,0
54610,-1.01746,0.470543,-0.545053,0
54630,-1.02136,0.472621,-0.5422,0
54650,-1.02417,0.473724,-0.54048,0
54670,-1.02585,0.474496,-0.540297,0
54690,-1.02618,0.475244,-0.541864,0
54710,-1.02439,0.476638,-0.544771,0
54730,-1.02006,0.47866,-0.547505,0
54750,-1.01677,0.480853,-0.550874,0
54770,-1.01582,0.482576,-0.555139,0
54790,-1.01628,0.484659,-0.558592,0
54810,-1.01623,0.486314,-0.559292,0
54830,-1.01335,0.488149,-0.556654,0
54850,-1.00858,0.487944,-0.551653,0
54870,-1.00509,0.485474,-0.545232,0
54890,-1.00369,0.481591,-0.538515,0
54910,-1.00903,0.47732,-0.530988,0
54930,-1.02303,0.471588,-0.522641,0
54950,-1.04058,0.463363,-0.515264,0
54970,-1.06731,0.440838,-0.501902,0
54990,-1.07936,0.423817,-0.496525,0
54990,-1.09089,0.403849,-0.491369,0
55010,-1.10335,0.381796,-0.48747,0
55030,-1.11545,0.359057,-0.483336,0
55050,-1.13005,0.312491,-0.475406,0
55070,-1.13297,0.292927,-0.473885,0
55090,-1.13291,0.276067,-0.472811,0
55110,-1.12942,0.261506,-0.470693,0
55130,-1.12668,0.24805,-0.469705,0
55150,-1.12516,0.236033,-0.469136,0
55170,-1.12207,0.225787,-0.468159,0
55190,-1.11839,0.218409,-0.466584,0
55210,-1.11618,0.213986,-0.464801,0
55230,-1.11853,0.212892,-0.461469,0
55250,-1.1228,0.213564,-0.458427,0
55270,-1.12977,0.216069,-0.456368,0
55290,-1.13836,0.220225,-0.454038,0
55310,-1.14829,0.224821,-0.451199,0
55330,-1.15733,0.229002,-0.448179,0
55350,-1.16464,0.231454,-0.444473,0
55360,-1.16488,0.230192,-0.438785,0
55380,-1.14694,0.223499,-0.432872,0
55400,-1.12259,0.208256,-0.432699,0
55420,-1.10234,0.189276,-0.43925,0
55440,-1.08308,0.172656,-0.449725,0
55460,-1.05939,0.161118,-0.462561,0
55480,-1.03268,0.155368,-0.476296,0
55500,-1.00525,0.155681,-0.487924,0
55520,-0.982013,0.16115,-0.493407,0
55540,-0.961325,0.166125,-0.491007,0
55560,-0.942297,0.162743,-0.485947,0
55600,-0.888566,0.147025,-0.479511,0
55620,-0.858092,0.137648,-0.480157,0
55640,-0.82472,0.130282,-0.485007,0
55660,-0.793122,0.121636,-0.49262,0
55680,-0.766537,0.112327,-0.500788,0
55690,-0.698851,0.0804642,-0.525998,0
55710,-0.695889,0.0798351,-0.527231,0
55730,-0.695048,0.0783794,-0.525917,0
55750,-0.695194,0.0768601,-0.523228,0
55770,-0.696631,0.0758913,-0.51998,0
55790,-0.700331,0.0759007,-0.517658,0
55810,-0.704623,0.0764327,-0.516559,0
55830,-0.707657,0.0753241,-0.516419,0
55850,-0.70862,0.0725085,-0.516421,0
55870,-0.708766,0.0690342,-0.516609,0
55890,-0.71084,0.065408,-0.517648,0
55910,-0.715891,0.0629884,-0.519268,0
55930,-0.72176,0.0612608,-0.520327,0
55950,-0.727981,0.0594128,-0.520291,0
55970,-0.737467,0.0570533,-0.519395,0
55990,-0.752187,0.0543605,-0.517685,0
56010,-0.772168,0.0509344,-0.514849,0
56030,-0.798187,0.046804,-0.509889,0
56050,-0.835449,0.0424181,-0.500065,0
56070,-0.881027,0.0415274,-0.484428,0
56090,-0.931706,0.0405444,-0.467537,0
56110,-0.983144,0.0397992,-0.449738,0
56130,-1.03673,0.0412501,-0.42841,0
56150,-1.0921,0.046054,-0.406554,0
56170,-1.14877,0.0537328,-0.388424,0
56190,-1.20477,0.062308,-0.374825,0
56210,-1.25999,0.0710999,-0.364724,0
56230,-1.31241,0.078631,-0.357089,0
56250,-1.3608,0.084678,-0.351622,0
56270,-1.40431,0.0900144,-0.348904,0
56290,-1.44277,0.094557,-0.349175,0
56310,-1.47918,0.0985418,-0.353126,0
56330,-1.50082,0.100876,-0.359419,0
56350,-1.50731,0.102233,-0.367513,0
56370,-1.50465,0.102735,-0.376175,0
56390,-1.49397,0.101859,-0.386393,0
56410,-1.47519,0.102622,-0.397832,0
56430,-1.45771,0.104155,-0.408275,0
56450,-1.44632,0.106858,-0.418741,0
56470,-1.44152,0.114426,-0.428879,0
56490,-1.43847,0.128321,-0.43655,0
56510,-1.43423,0.144835,-0.441065,0
56530,-1.42692,0.162074,-0.442369,0
56550,-1.41613,0.179605,-0.442523,0
56570,-1.41362,0.198512,-0.441693,0
56590,-1.42018,0.21566,-0.440533,0
56610,-1.42999,0.231974,-0.439902,0
56630,-1.43555,0.247033,-0.43752,0
56650,-1.4366,0.256683,-0.435557,0
56670,-1.43763,0.262887,-0.434989,0
56690,-1.43854,0.267693,-0.434925,0
56710,-1.43859,0.271149,-0.435067,0
56730,-1.4376,0.273583,-0.435579,0
56750,-1.43593,0.27495,-0.436575,0
56770,-1.43296,0.27594,-0.43796,0
56790,-1.42902,0.276354,-0.439973,0
56810,-1.42566,0.276631,-0.442867,0
56830,-1.42229,0.277757,-0.445823,0
56850,-1.41619,0.277716,-0.448033,0
56870,-1.4092,0.27764,-0.450522,0
56890,-1.40402,0.277663,-0.452409,0
56910,-1.40183,0.277732,-0.454025,0
56930,-1.39878,0.27865,-0.455589,0
56950,-1.39471,0.279635,-0.45685,0
56970,-1.38958,0.279702,-0.457315,0
56990,-1.38099,0.278261,-0.457006,0
57010,-1.36766,0.275598,-0.45752,0
57030,-1.35094,0.27215,-0.457952,0
57050,-1.3321,0.266819,-0.458789,0
57070,-1.30977,0.259875,-0.460218,0
57090,-1.28112,0.251177,-0.462475,0
57110,-1.24366,0.239895,-0.466823,0
57130,-1.20059,0.227331,-0.471996,0
57150,-1.15579,0.214409,-0.477452,0
57170,-1.11303,0.203023,-0.483524,0
57190,-1.06859,0.193863,-0.49003,0
57210,-1.02327,0.186646,-0.49517,0
57230,-0.979056,0.179557,-0.498477,0
57250,-0.936922,0.174401,-0.500309,0
57270,-0.896691,0.169978,-0.500899,0
57290,-0.856959,0.164933,-0.500389,0
57310,-0.827924,0.160823,-0.503393,0
57330,-0.802074,0.162662,-0.505303,0
57350,-0.782397,0.169009,-0.501495,0
57370,-0.772631,0.178454,-0.494887,0
57390,-0.771795,0.188133,-0.486006,0
57410,-0.776846,0.196221,-0.477343,0
57430,-0.780663,0.20301,-0.469264,0
57450,-0.782367,0.207946,-0.462822,0
57470,-0.782052,0.210379,-0.458547,0
57490,-0.781279,0.210375,-0.45677,0
57510,-0.778789,0.208961,-0.456341,0
57530,-0.775919,0.206438,-0.456849,0
57550,-0.772102,0.203596,-0.457177,0
57570,-0.768417,0.20114,-0.457573,0
57590,-0.766454,0.198771,-0.458347,0
57610,-0.766141,0.197005,-0.458485,0
57630,-0.767009,0.196019,-0.458099,0
57650,-0.76677,0.195244,-0.457319,0
57670,-0.766779,0.19463,-0.456793,0
57690,-0.768985,0.194363,-0.456023,0
57710,-0.772055,0.195355,-0.455144,0
57730,-0.773216,0.196891,-0.454133,0
57750,-0.772146,0.199334,-0.453619,0
57770,-0.771094,0.203362,-0.452977,0
57790,-0.77175,0.209275,-0.451585,0
57810,-0.771685,0.215799,-0.449237,0
57830,-0.768547,0.222071,-0.445901,0
57850,-0.764724,0.229067,-0.442317,0
57870,-0.763042,0.237021,-0.438088,0
57890,-0.76425,0.244729,-0.433414,0
57910,-0.766761,0.252959,-0.429119,0
57930,-0.767949,0.261967,-0.424758,0
57950,-0.770367,0.272025,-0.421134,0
57970,-0.77485,0.284293,-0.418153,0
57990,-0.783116,0.298364,-0.416639,0
58010,-0.797333,0.315791,-0.416711,0
58030,-0.818328,0.338506,-0.417984,0
58050,-0.846275,0.368212,-0.421227,0
58070,-0.883306,0.395585,-0.42598,0
58090,-0.903408,0.395759,-0.423211,0
58110,-0.90825,0.366408,-0.418294,0
58130,-0.904712,0.354565,-0.414657,0
58150,-0.90014,0.346852,-0.408626,0
58170,-0.900669,0.345615,-0.405236,0
58190,-0.910064,0.349277,-0.40288,0
58210,-0.92211,0.356345,-0.403076,0
58230,-0.934407,0.364271,-0.404994,0
58250,-0.945195,0.369946,-0.406639,0
58270,-0.952853,0.371331,-0.407483,0
58290,-0.955773,0.369231,-0.407189,0
58310,-0.9534,0.366501,-0.406145,0
58330,-0.948665,0.365896,-0.404887,0
58350,-0.945223,0.366133,-0.404312,0
58370,-0.944234,0.366367,-0.404989,0
58390,-0.945011,0.366212,-0.406376,0
58410,-0.946386,0.365239,-0.407375,0
58430,-0.947572,0.364335,-0.408063,0
58450,-0.947188,0.363107,-0.407989,0
58470,-0.945207,0.3612,-0.407366,0
58490,-0.94362,0.358784,-0.406737,0
58510,-0.942716,0.357346,-0.406559,0
58530,-0.942928,0.357448,-0.406663,0
58550,-0.943491,0.358559,-0.406023,0
58570,-0.943328,0.358712,-0.404809,0
58590,-0.942415,0.35796,-0.403308,0
58610,-0.941097,0.357361,-0.401228,0
58630,-0.94063,0.357218,-0.399212,0
58650,-0.941203,0.357416,-0.397517,0
58670,-0.941887,0.357487,-0.395944,0
58690,-0.942726,0.357681,-0.394748,0
58710,-0.942958,0.357875,-0.393384,0
58720,-0.942675,0.357666,-0.39208,0
58740,-0.942346,0.35702,-0.390523,0
58760,-0.941389,0.355877,-0.389227,0
58780,-0.940418,0.35506,-0.387548,0
58800,-0.939016,0.354172,-0.385848,0
58820,-0.938559,0.352937,-0.384925,0
58840,-0.938772,0.351278,-0.384385,0
58860,-0.940452,0.349762,-0.384453,0
58880,-0.942227,0.349342,-0.384698,0
58900,-0.944073,0.349714,-0.384985,0
58920,-0.945686,0.350307,-0.385185,0
58940,-0.947163,0.350992,-0.385818,0
58960,-0.948583,0.352507,-0.386877,0
58980,-0.950221,0.355264,-0.387977,0
59000,-0.951883,0.358838,-0.388843,0
59020,-0.95272,0.361174,-0.388942,0
59040,-0.953055,0.361233,-0.389064,0
59060,-0.953178,0.36119,-0.389083,0
59080,-0.953485,0.361167,-0.389142,0
59100,-0.954299,0.361332,-0.388904,0
59120,-0.955506,0.36167,-0.388862,0
59140,-0.956684,0.362108,-0.389158,0
59160,-0.9581,0.362586,-0.390237,0
59180,-0.959684,0.363449,-0.391992,0
59200,-0.96088,0.3644,-0.394247,0
59220,-0.962236,0.365505,-0.3979,0
59240,-0.963204,0.367323,-0.403791,0
59260,-0.96179,0.369174,-0.409178,0
59280,-0.958824,0.370354,-0.413161,0
59300,-0.955853,0.370413,-0.416398,0
59320,-0.952246,0.370548,-0.418784,0
59340,-0.948225,0.370719,-0.420642,0
59360,-0.944165,0.370921,-0.422378,0
59380,-0.940924,0.370821,-0.424315,0
59400,-0.937589,0.370396,-0.425768,0
59420,-0.934612,0.369597,-0.426424,0
59440,-0.93236,0.368826,-0.426196,0
59460,-0.931276,0.368277,-0.425457,0
59480,-0.931752,0.368125,-0.424805,0
59500,-0.932501,0.367907,-0.423797,0
59520,-0.933436,0.36738,-0.422247,0
59540,-0.933462,0.366564,-0.420287,0
59560,-0.932665,0.365789,-0.417836,0
59580,-0.93131,0.365454,-0.414904,0
59600,-0.93007,0.364938,-0.412046,0
59620,-0.929574,0.364103,-0.410217,0
59640,-0.929462,0.363899,-0.408545,0
59660,-0.929714,0.363915,-0.405984,0
59680,-0.930836,0.363874,-0.403074,0
59700,-0.932303,0.36376,-0.400507,0
59720,-0.933368,0.363667,-0.39798,0
59740,-0.934866,0.363375,-0.396151,0
59760,-0.935901,0.36285,-0.394906,0
59780,-0.936227,0.362043,-0.393861,0
59800,-0.935897,0.361117,-0.39314,0
59820,-0.935509,0.359805,-0.392618,0
59840,-0.934877,0.358766,-0.392458,0
59860,-0.934436,0.357747,-0.392904,0
59880,-0.934109,0.356548,-0.393422,0
59900,-0.933788,0.355078,-0.393813,0
59920,-0.933367,0.353872,-0.394031,0
59940,-0.932599,0.353067,-0.394088,0
59960,-0.93203,0.352688,-0.394425,0
59980,-0.932651,0.352367,-0.394978,0
60000,-0.933465,0.352199,-0.394552,0
60020,-0.935659,0.352703,-0.394453,0
60040,-0.938091,0.354208,-0.394105,0
60060,-0.941279,0.3559,-0.392827,0
60080,-0.944997,0.357406,-0.391591,0
60100,-0.94794,0.358707,-0.390321,0
60120,-0.950101,0.359791,-0.389976,0
60140,-0.952119,0.360555,-0.390386,0
60180,-0.954854,0.360896,-0.393285,0
60200,-0.955117,0.360318,-0.395849,0
60220,-0.954885,0.359692,-0.39866,0
60240,-0.955103,0.358399,-0.401802,0
60260,-0.955684,0.357063,-0.404729,0
60280,-0.956708,0.356068,-0.407413,0
60300,-0.958255,0.355612,-0.409425,0
60320,-0.962647,0.356901,-0.409279,0
60340,-0.967318,0.358976,-0.404714,0
60360,-0.963613,0.358027,-0.400068,0
60380,-0.95539,0.354428,-0.400411,0
60400,-0.953267,0.350295,-0.400667,0
60420,-0.965875,0.343367,-0.399791,0
60440,-0.992186,0.329673,-0.403004,0
60460,-1.02251,0.31176,-0.410843,0
60480,-1.04671,0.289058,-0.42,0
60500,-1.05783,0.258247,-0.428314,0
60520,-1.06215,0.223473,-0.436712,0
60540,-1.06873,0.187926,-0.446142,0
60560,-1.07637,0.151835,-0.45395,0
60580,-1.0861,0.115224,-0.461185,0
60600,-1.09164,0.0835844,-0.467638,0
60620,-1.09561,0.0564328,-0.47275,0
60640,-1.10028,0.0332415,-0.476301,0
60660,-1.106,0.0145239,-0.47864,0
60680,-1.11234,0.000758931,-0.479507,0
60700,-1.11785,-0.00828513,-0.478551,0
60710,-1.12212,-0.0143144,-0.477036,0
60730,-1.12546,-0.017128,-0.475009,0
60750,-1.12812,-0.0170733,-0.472889,0
60770,-1.12925,-0.0146713,-0.470556,0
60790,-1.12991,-0.0112727,-0.468496,0
60810,-1.12996,-0.00760595,-0.467101,0
60830,-1.12934,-0.00337695,-0.466268,0
60850,-1.12875,0.00126277,-0.464813,0
60870,-1.12885,0.00517098,-0.463298,0
60890,-1.12956,0.00801305,-0.462537,0
60910,-1.1302,0.0105913,-0.461749,0
60930,-1.13068,0.0124773,-0.460942,0
60950,-1.13183,0.0133429,-0.460337,0
60970,-1.13336,0.0132288,-0.459764,0
60990,-1.13445,0.0125054,-0.459321,0
61010,-1.13487,0.0113496,-0.459093,0
61030,-1.13479,0.0103692,-0.459052,0
61050,-1.13533,0.00951446,-0.459036,0
61070,-1.13621,0.00884711,-0.459037,0
61090,-1.13737,0.00790545,-0.459216,0
61110,-1.13763,0.0068372,-0.458862,0
61130,-1.13769,0.00509831,-0.458054,0
61150,-1.13803,0.00264588,-0.457133,0
61170,-1.1361,0.00197645,-0.456125,0
61190,-1.13464,0.00244206,-0.454714,0
61210,-1.13261,0.00281459,-0.453462,0
61230,-1.12125,0.00356419,-0.453595,0
61250,-1.09695,0.0048709,-0.454562,0
61270,-1.06057,0.00561902,-0.4531,0
61290,-1.016,0.00648269,-0.446049,0
61310,-0.96925,0.00312824,-0.438718,0
61330,-0.926205,-0.00099574,-0.435463,0
61350,-0.889743,-0.00362135,-0.434059,0
61370,-0.863547,-0.00440139,-0.432143,0
61390,-0.84344,-0.00464522,-0.42788,0
61410,-0.82887,-0.00577915,-0.422195,0
61430,-0.816512,-0.00903201,-0.416415,0
61450,-0.808468,-0.0123749,-0.411443,0
61470,-0.803823,-0.0145548,-0.406477,0
61490,-0.800879,-0.0173488,-0.402083,0
61510,-0.798605,-0.0204261,-0.398302,0
61530,-0.796943,-0.0244555,-0.395286,0
61550,-0.797364,-0.0289893,-0.392999,0
61570,-0.79978,-0.0335201,-0.391406,0
61590,-0.806253,-0.0377207,-0.391138,0
61610,-0.817688,-0.0405715,-0.393533,0
61630,-0.838975,-0.0424407,-0.395106,0
61650,-0.869352,-0.0449667,-0.391532,0
61670,-0.908978,-0.053406,-0.379491,0
61690,-0.952745,-0.0524136,-0.356718,0
61710,-1.00201,-0.0376084,-0.334683,0
61730,-1.0609,-0.0135712,-0.325162,0
61750,-1.1158,0.00759767,-0.328905,0
61770,-1.16069,0.0195246,-0.338743,0
61790,-1.19695,0.0257492,-0.342573,0
61810,-1.21383,0.0348435,-0.337431,0
61830,-1.21731,0.0415427,-0.329634,0
61850,-1.21496,0.0459156,-0.323193,0
61870,-1.21711,0.0473854,-0.321504,0
61890,-1.22268,0.047536,-0.323577,0
61910,-1.22759,0.0490919,-0.325506,0
61930,-1.22907,0.0503945,-0.32573,0
61950,-1.22653,0.0503209,-0.324868,0
61970,-1.22209,0.0502697,-0.323458,0
61990,-1.21726,0.0498205,-0.322926,0
62010,-1.21353,0.0501479,-0.323691,0
62030,-1.21119,0.0512802,-0.324755,0
62050,-1.20841,0.0531307,-0.325052,0
62070,-1.20319,0.0554023,-0.324396,0
62090,-1.19599,0.0580204,-0.322946,0
62110,-1.18693,0.0589418,-0.323056,0
62130,-1.18196,0.0585142,-0.32208,0
62150,-1.17891,0.0585003,-0.320316,0
62170,-1.17971,0.0601639,-0.316498,0
62190,-1.17765,0.0620692,-0.314087,0
62210,-1.17684,0.058398,-0.315073,0
62230,-1.17366,0.0554928,-0.314038,0
62250,-1.16953,0.0543094,-0.31448,0
62270,-1.16733,0.0535442,-0.316786,0
62290,-1.16808,0.0525238,-0.319313,0
62310,-1.16955,0.0532471,-0.320579,0
62330,-1.16902,0.0563774,-0.320221,0
62350,-1.16802,0.0592806,-0.318762,0
62370,-1.16665,0.0606711,-0.318759,0
62390,-1.16473,0.0606102,-0.319934,0
62410,-1.16235,0.0612987,-0.322131,0
62430,-1.15877,0.0638363,-0.32493,0
62450,-1.15382,0.0682969,-0.328782,0
62470,-1.14769,0.0742237,-0.332649,0
62490,-1.14133,0.0822613,-0.336774,0
62510,-1.13245,0.0928357,-0.34149,0
62530,-1.12111,0.105909,-0.346994,0
62550,-1.10662,0.121105,-0.354141,0
62570,-1.09268,0.13909,-0.362858,0
62590,-1.0799,0.159718,-0.373408,0
62610,-1.06735,0.184208,-0.384743,0
62630,-1.05592,0.212112,-0.394888,0
62650,-1.04624,0.241066,-0.403473,0
62670,-1.03877,0.268608,-0.410248,0
62690,-1.03344,0.291573,-0.416716,0
62710,-1.0304,0.309594,-0.421806,0
62730,-1.02742,0.323023,-0.42589,0
62750,-1.02418,0.332517,-0.42941,0
62770,-1.0208,0.337043,-0.431675,0
62790,-1.01867,0.336294,-0.434462,0
62810,-1.01683,0.33193,-0.437228,0
62830,-1.01513,0.3254,-0.439345,0
62850,-1.01422,0.318154,-0.440991,0
62870,-1.01448,0.310701,-0.442994,0
62890,-1.016,0.303984,-0.444638,0
62910,-1.01799,0.298555,-0.446005,0
62930,-1.02008,0.294388,-0.446853,0
62950,-1.02122,0.291205,-0.446726,0
62970,-1.02202,0.288226,-0.446209,0
62990,-1.02198,0.285571,-0.445367,0
63010,-1.02121,0.283571,-0.444133,0
63030,-1.02003,0.281727,-0.4429,0
63050,-1.01882,0.280378,-0.441935,0
63070,-1.01712,0.279394,-0.440924,0
63090,-1.01518,0.278634,-0.439841,0
63110,-1.01338,0.277776,-0.438725,0
63130,-1.01212,0.276108,-0.437448,0
63150,-1.01224,0.272616,-0.436313,0
63170,-1.01349,0.266648,-0.433632,0
63190,-1.01702,0.257371,-0.429454,0
63210,-1.02249,0.244025,-0.42421,0
63230,-1.02961,0.228022,-0.417023,0
63250,-1.03895,0.208852,-0.408653,0
63270,-1.04952,0.186712,-0.399455,0
63290,-1.05991,0.163073,-0.389233,0
63310,-1.06958,0.138478,-0.377767,0
63330,-1.07801,0.11397,-0.365177,0
63350,-1.08613,0.0906899,-0.352777,0
63370,-1.09402,0.0695125,-0.340705,0
63390,-1.10161,0.0512911,-0.328775,0
63410,-1.10787,0.0360391,-0.317497,0
63430,-1.11255,0.0243496,-0.306979,0
63450,-1.11621,0.0158893,-0.297723,0
63470,-1.11835,0.0111592,-0.289888,0
63490,-1.11879,0.0100704,-0.28387,0
63510,-1.11787,0.0122256,-0.278732,0
63530,-1.11495,0.0170937,-0.275548,0
63550,-1.11181,0.024875,-0.27371,0
63570,-1.10908,0.0339714,-0.273444,0
63590,-1.10518,0.0449448,-0.27434,0
63610,-1.1027,0.0561103,-0.275764,0
63630,-1.1006,0.0658801,-0.277797,0
63650,-1.09903,0.0743288,-0.279927,0
63670,-1.09821,0.0812264,-0.281619,0
63690,-1.09907,0.0859738,-0.283212,0
63710,-1.10232,0.0880254,-0.284471,0
63730,-1.10884,0.0880241,-0.285619,0
63750,-1.117,0.086046,-0.287492,0
63770,-1.12496,0.0826582,-0.290478,0
63790,-1.13294,0.0781829,-0.293932,0
63810,-1.14039,0.0723126,-0.297281,0
63830,-1.14722,0.0659244,-0.300634,0
63850,-1.15195,0.0584352,-0.304151,0
63870,-1.15642,0.049826,-0.308065,0
63890,-1.1603,0.0412064,-0.312027,0
63910,-1.16333,0.0329885,-0.31555,0
63930,-1.16478,0.0251914,-0.31915,0
63950,-1.16547,0.0183866,-0.32214,0
63970,-1.1654,0.0125453,-0.324936,0
63990,-1.16444,0.00770985,-0.327562,0
64010,-1.1626,0.00381717,-0.330128,0
64030,-1.16014,0.00101225,-0.332305,0
64050,-1.15734,-0.00107144,-0.334185,0
64070,-1.15365,-0.00331155,-0.336311,0
64090,-1.15046,-0.00618655,-0.338821,0
64110,-1.1474,-0.00933886,-0.342513,0
64120,-1.14403,-0.0124841,-0.346467,0
64140,-1.14028,-0.0161681,-0.350484,0
64160,-1.1363,-0.0204072,-0.354581,0
64180,-1.13044,-0.0300629,-0.361106,0
64200,-1.12959,-0.0347473,-0.363653,0
64220,-1.13017,-0.0386001,-0.365842,0
64240,-1.13179,-0.0421094,-0.367612,0
64260,-1.13383,-0.0449076,-0.369282,0
64280,-1.13542,-0.0467684,-0.370763,0
64300,-1.13702,-0.0478269,-0.372174,0
64320,-1.13834,-0.0485794,-0.373594,0
64340,-1.13964,-0.0488609,-0.375029,0
64360,-1.14034,-0.048885,-0.376406,0
64380,-1.14049,-0.048953,-0.377865,0
64400,-1.14004,-0.0489174,-0.379326,0
64420,-1.13922,-0.0490916,-0.380319,0
64440,-1.13813,-0.0496074,-0.380764,0
64460,-1.13734,-0.0507258,-0.380722,0
64480,-1.13643,-0.0522574,-0.38039,0
64500,-1.13559,-0.054009,-0.379491,0
64520,-1.13496,-0.0561421,-0.378232,0
64540,-1.13496,-0.058814,-0.37669,0
64560,-1.13545,-0.061005,-0.374901,0
64580,-1.13642,-0.0629712,-0.372856,0
64600,-1.13766,-0.0649689,-0.370945,0
64620,-1.13913,-0.0668492,-0.369284,0
64640,-1.14075,-0.0684205,-0.367085,0
64660,-1.14249,-0.0702109,-0.364757,0
64680,-1.14489,-0.0723898,-0.36194,0
64700,-1.14884,-0.0750129,-0.357447,0
64720,-1.15594,-0.0784781,-0.350417,0
64740,-1.16641,-0.0832274,-0.340352,0
64760,-1.17936,-0.0902509,-0.327788,0
64780,-1.19557,-0.0969595,-0.31275,0
64800,-1.21322,-0.102264,-0.297292,0
64820,-1.23155,-0.106615,-0.28214,0
64840,-1.24949,-0.110536,-0.265965,0
64860,-1.26533,-0.114627,-0.249198,0
64880,-1.27844,-0.119514,-0.232161,0
64900,-1.28896,-0.124941,-0.215383,0
64920,-1.29821,-0.130079,-0.199899,0
64940,-1.30645,-0.13393,-0.185847,0
64960,-1.31365,-0.13676,-0.172801,0
64980,-1.31847,-0.138607,-0.161377,0
65000,-1.32149,-0.139578,-0.152175,0
65020,-1.32453,-0.14024,-0.145381,0
65040,-1.32615,-0.140389,-0.140547,0
65060,-1.32605,-0.140326,-0.137314,0
65080,-1.32639,-0.140305,-0.135453,0
65100,-1.32562,-0.140314,-0.134988,0
65120,-1.32514,-0.139896,-0.135316,0
65140,-1.325,-0.138752,-0.136065,0
65160,-1.32439,-0.136996,-0.13729,0
65180,-1.32299,-0.134855,-0.139127,0
65200,-1.31991,-0.131413,-0.142146,0
65220,-1.31406,-0.125924,-0.146732,0
65240,-1.30269,-0.11611,-0.153185,0
65260,-1.28572,-0.101274,-0.161966,0
65280,-1.26501,-0.0812991,-0.172565,0
65300,-1.24308,-0.0559133,-0.185395,0
65320,-1.22103,-0.0238116,-0.2001,0
65340,-1.1984,0.0164251,-0.214384,0
65360,-1.17412,0.0648185,-0.229809,0
65380,-1.15166,0.118247,-0.24704,0
65400,-1.1349,0.172802,-0.264816,0
65420,-1.12152,0.226366,-0.283153,0
65440,-1.10644,0.275915,-0.301039,0
65460,-1.09117,0.315652,-0.316771,0
65480,-1.07217,0.349192,-0.330215,0
65500,-1.06119,0.370302,-0.346942,0
65520,-1.04297,0.386796,-0.360769,0
65540,-1.02051,0.393861,-0.372245,0
65560,-1.00383,0.386392,-0.382262,0
65580,-0.999442,0.368857,-0.38479,0
65600,-1.00216,0.355791,-0.38532,0
65620,-1.00692,0.351293,-0.385199,0
65640,-1.01274,0.348844,-0.383717,0
65660,-1.01831,0.346346,-0.385956,0
65680,-1.0182,0.349587,-0.390771,0
65700,-1.01346,0.35717,-0.396251,0
65720,-1.0104,0.367977,-0.402465,0
65740,-1.01237,0.378498,-0.407044,0
65760,-1.01454,0.383266,-0.407479,0
65780,-1.01391,0.381911,-0.403948,0
65800,-1.01339,0.376882,-0.400143,0
65820,-1.01117,0.37156,-0.397122,0
65840,-1.00807,0.368327,-0.394623,0
65860,-1.00701,0.367071,-0.392738,0
65880,-1.00757,0.367058,-0.391768,0
65900,-1.00867,0.366924,-0.391294,0
65920,-1.01036,0.366099,-0.390593,0
65950,-1.0149,0.361674,-0.389194,0
65970,-1.01603,0.359729,-0.389254,0
65990,-1.01557,0.358746,-0.390105,0
66000,-1.01396,0.358875,-0.39128,0
66030,-1.01226,0.358669,-0.392524,0
66050,-1.01091,0.358402,-0.393548,0
66070,-1.00965,0.357633,-0.393872,0
66080,-1.00877,0.356566,-0.393851,0
66100,-1.00763,0.355107,-0.393412,0
66120,-1.00671,0.353895,-0.392867,0
66140,-1.00592,0.352517,-0.391995,0
66160,-1.00497,0.351013,-0.391142,0
66180,-1.00403,0.349647,-0.390246,0
66200,-1.00305,0.348255,-0.389174,0
66220,-1.00165,0.346872,-0.388141,0
66240,-1.00031,0.346003,-0.387272,0
66260,-0.998985,0.345538,-0.386492,0
66280,-0.997521,0.345431,-0.385881,0
66300,-0.996216,0.345169,-0.385514,0
66320,-0.995192,0.344854,-0.385195,0
66340,-0.994286,0.344216,-0.385156,0
66360,-0.993792,0.343694,-0.385428,0
66380,-0.993316,0.343116,-0.385812,0
66400,-0.992728,0.342575,-0.386345,0
66410,-0.992071,0.342332,-0.386721,0
66430,-0.991146,0.34228,-0.387003,0
66450,-0.990325,0.342384,-0.386976,0
66470,-0.989652,0.34267,-0.386817,0
66490,-0.989807,0.342659,-0.386846,0
66510,-0.989776,0.342628,-0.386835,0
66530,-0.989709,0.342378,-0.386809,0
66550,-0.988917,0.342178,-0.386202,0
66570,-0.988658,0.341789,-0.385624,0
66590,-0.98854,0.341706,-0.38526,0
66610,-0.988671,0.342348,-0.385098,0
66630,-0.988662,0.343492,-0.384889,0
66650,-0.988465,0.344758,-0.384426,0
66670,-0.988159,0.345606,-0.383975,0
66690,-0.987573,0.346104,-0.383392,0
66710,-0.987159,0.346129,-0.382868,0
66730,-0.987159,0.346129,-0.382868,0
66750,-0.98865,0.346761,-0.382502,0
66770,-0.990817,0.347583,-0.381875,0
66790,-0.993762,0.349283,-0.381113,0
66810,-0.996749,0.351279,-0.380668,0
66830,-0.999398,0.353341,-0.380455,0
66850,-1.00126,0.354844,-0.380568,0
66870,-1.00222,0.355633,-0.381142,0
66890,-1.00215,0.355021,-0.382046,0
66910,-1.00081,0.353412,-0.383432,0
66930,-0.999273,0.351366,-0.38509,0
66950,-0.998272,0.348396,-0.38707,0
66970,-0.997523,0.345346,-0.389091,0
66990,-0.996522,0.342982,-0.391004,0
67010,-0.995241,0.341838,-0.392109,0
67030,-0.994177,0.342763,-0.391923,0
67050,-0.99449,0.345254,-0.390455,0
67070,-0.996497,0.348605,-0.388114,0
67090,-0.999827,0.351981,-0.385461,0
67110,-1.00389,0.35504,-0.38367,0
67130,-1.00774,0.358471,-0.381767,0
67150,-1.01049,0.361515,-0.37992,0
67170,-1.01274,0.364158,-0.378691,0
67190,-1.01457,0.365362,-0.378912,0
67210,-1.01533,0.365946,-0.38046,0
67230,-1.01517,0.365468,-0.382821,0
67250,-1.01499,0.364275,-0.385914,0
67270,-1.01554,0.362942,-0.389701,0
67290,-1.01755,0.361972,-0.393683,0
67310,-1.02045,0.361484,-0.397366,0
67330,-1.02377,0.361664,-0.400282,0
67350,-1.02726,0.362934,-0.402197,0
67370,-1.03139,0.365324,-0.403098,0
67380,-1.03622,0.368714,-0.403391,0
67400,-1.0409,0.372373,-0.403415,0
67420,-1.04528,0.376016,-0.403342,0
67440,-1.04894,0.379183,-0.403206,0
67460,-1.05189,0.382022,-0.403359,0
67480,-1.05351,0.383778,-0.403646,0
67500,-1.05428,0.384492,-0.404445,0
67520,-1.05405,0.384446,-0.405642,0
67540,-1.05342,0.383883,-0.406985,0
67560,-1.05323,0.383256,-0.408414,0
67580,-1.05339,0.383035,-0.409617,0
67600,-1.05378,0.383089,-0.410327,0
67620,-1.05398,0.383156,-0.410431,0
67640,-1.05425,0.383007,-0.410586,0
