Timestamp, Rotation x, Rotation y, Rotation z, Marker
40,3.4375,8.6875,2.875,0
60,6.375,9.125,0.8125,0
80,6.5625,9.1875,-0.9375,0
100,5,9.125,-2.375,0
120,3.0625,9.4375,-1.125,0
140,1.0625,9.75,0.875,0
160,-1.5625,8.875,2.875,0
170,-4.625,7.25,3.25,0
180,-7.5,6,4.4375,0
220,-8.625,4.875,6.6875,0
240,-7.5,4.25,8.6875,0
260,-5.9375,3.3125,8.5625,0
280,-2.875,2.6875,5.75,0
300,-1.9375,2.875,6.5,0
310,-0.4375,2.6875,4.1875,0
330,1.875,2.1875,3.1875,0
350,-0.25,1.5,3.5,0
370,-2.5625,2.0625,2.375,0
390,-2.1875,2.0625,1.5625,0
410,-0.625,0.4375,2.1875,0
430,1.5,-1.5,3.375,0
450,0.75,-1.625,4.75,0
470,-2.5625,-1.0625,5.75,0
490,-4.5625,-0.5,5.1875,0
510,-6.4375,-0.375,5.6875,0
530,-5.25,-0.4375,6.125,0
550,-2.4375,-0.8125,6.3125,0
570,-0.625,-1.5,6.625,0
590,-0.8125,-1.1875,5.4375,0
610,-0.25,-1.125,4.3125,0
630,0.25,0.1875,2.375,0
650,-1.5,1.8125,-0.125,0
670,2.625,2.8125,-4.625,0
690,9.75,3.875,-8.125,0
710,13.5625,4.1875,-8.75,0
730,14.5,3.375,-8.8125,0
750,12.875,2.75,-8.0625,0
770,9.5625,2.25,-4.3125,0
790,5.4375,0.8125,-0.5625,0
810,1.0625,-0.0625,0.625,0
830,-0.3125,-0.75,-0.5625,0
850,1.6875,-2,-1.625,0
870,3.1875,-2.9375,-2.25,0
890,2.3125,-3.3125,-3.3125,0
910,0.5,-4.0625,-4.4375,0
930,1,-3.4375,-4.4375,0
950,3.6875,-4.8125,-6.375,0
970,4.125,-5.0625,-2.9375,0
990,3.9375,-5.375,-4.3125,0
1010,4.875,-5,-3.5625,0
1030,5.5,-5.0625,-5.125,0
1050,5.6875,-5.4375,-6.25,0
1070,6,-6,-6.5,0
1090,6.3125,-7.375,-7.25,0
1110,6.4375,-8.0625,-6.0625,0
1130,3.9375,-8.9375,-6.5,0
1150,3.625,-8.875,-6.4375,0
1170,3.375,-9.1875,-6.375,0
1190,1,-8.5,-5.75,0
1210,2.5,-7.5,-4.5625,0
1230,4.625,-7.6875,-4.875,0
1270,7.375,-7.8125,-7.625,0
1290,7.8125,-7.875,-8.0625,0
1310,7.0625,-8.125,-9,0
1330,8.4375,-8,-9.6875,0
1340,10.1875,-8.3125,-10.8125,0
1360,10.6875,-8.8125,-10.5625,0
1380,12.875,-8.25,-12.3125,0
1400,13.5,-7.9375,-12.375,0
1420,17.0625,-7.4375,-9.9375,0
1440,19.375,-7.125,-9.875,0
1470,19.1875,-9.5,-10.5625,0
1490,19.5625,-10.0625,-11.5,0
1510,21.5625,-10.125,-10.8125,0
1530,21.6875,-11.1875,-10.25,0
1550,21.75,-11.5625,-9.5,0
1570,22.4375,-12,-8.5,0
1590,19.5625,-13.5625,-7.6875,0
1610,19.125,-13.75,-7.5625,0
1640,19.25,-12.625,-9.1875,0
1660,18.9375,-12.875,-7.125,0
1680,12.9375,-13.25,-7,0
1700,11.6875,-12.875,-5.9375,0
1720,9.3125,-12.125,-6.9375,0
1740,8.625,-12.9375,-6.75,0
1750,7.75,-11.9375,-6.75,0
1760,6.8125,-10.3125,-7,0
1780,4.1875,-9.25,-7.3125,0
1800,1.375,-8.1875,-7.3125,0
1820,2.25,-6.875,-7.875,0
1840,3.1875,-6.1875,-7.5,0
1860,4.1875,-6.8125,-6.375,0
1880,5.0625,-6.9375,-6.1875,0
1910,3.75,-5.6875,-4.6875,0
1930,4.4375,-5.5625,-5.9375,0
1950,4.9375,-5.1875,-5.875,0
1960,2.5,-5.8125,-4,0
1990,2,-5,-2.4375,0
2000,5.9375,-2.9375,0.875,0
2010,3.25,-2.375,-0.125,0
2050,-0.375,0.0625,-1.75,0
2070,-3.875,-2.625,-1.625,0
2090,2.6875,-1,-2.5625,0
2110,4.8125,-3.625,-1.5,0
2120,3.5,-5.5625,-0.75,0
2140,0.6875,-4.1875,0.125,0
2170,5.9375,-6.1875,0.5,0
2190,4.6875,-6.6875,1.375,0
2210,-0.6875,-8,3.75,0
2230,-3.875,-7,4.75,0
2240,-7.875,-6.75,5.5,0
2240,-2.5625,-10,5.5625,0
2260,0.375,-9.25,5.375,0
2280,-1.0625,-9.1875,5.3125,0
2310,1.5,-10.5625,6.8125,0
2330,-0.25,-9.5,7.4375,0
2340,-0.75,-10.6875,8.5,0
2380,-2.75,-10.8125,7.8125,0
2400,-2.875,-11,6.8125,0
2410,-3.3125,-9.75,6.875,0
2430,-4,-8.5625,6,0
2450,-5.6875,-7.5,4.375,0
2460,-6.1875,-6.0625,2.5625,0
2480,-6.0625,-4.875,0.0625,0
2500,6.8125,-0.0625,-12.5,0
2530,11.875,11,-22.1875,0
2550,16.5,11.375,-25.4375,0
2570,17.625,10.625,-25.6875,0
2600,11.5625,9,-18.4375,0
2630,5.0625,5.8125,-5.125,0
2650,-1.1875,3.8125,2.375,0
2670,-6.0625,1.8125,8.3125,0
2690,-6.4375,-1.75,12.4375,0
2710,-7.8125,-3.5625,12.75,0
2720,-10.3125,-5.0625,11.8125,0
2730,-18.0625,-6.125,10.8125,0
2750,-24.9375,-3.75,10.625,0
2770,-23.5,-1.4375,11.25,0
2790,-14.6875,-1.0625,11.6875,0
2810,-6.5,-0.6875,11,0
2830,-1.75,3.0625,6.8125,0
2850,-5.1875,9.25,1.5625,0
2870,-7.9375,13.6875,-1.3125,0
2890,-10.5,17.3125,-2.9375,0
2910,-6.4375,17.6875,-3.375,0
2930,-1.875,14.375,-3.6875,0
2950,-3.9375,12.6875,-3.6875,0
2970,-12.625,13.1875,-2.5625,0
2990,-12.5625,16.25,1.125,0
3010,-12.3125,15.9375,-1.25,0
3030,-17.0625,14.1875,-8.5625,0
3060,-6.4375,14.75,-13.625,0
3080,-14.5625,2,12.3125,0
3090,-20.3125,-1.375,20.25,0
3110,-17.25,-1.1875,19.4375,0
3110,-12.5625,5.25,17.4375,0
3130,-16.625,7.75,17.5625,0
3140,-17.5625,8.5,17.0625,0
3150,-16,7.625,13.8125,0
3170,-16.625,7.625,11.1875,0
3190,-18.375,8.625,8.625,0
3200,-20.125,10.0625,6.0625,0
3210,-17,11.1875,1.75,0
3230,-13.125,11.6875,0.75,0
3250,-6.625,13.125,0.125,0
3270,-10.5625,15.5625,-1.25,0
3290,-13.125,14.1875,-1.1875,0
3310,-14.5625,12.6875,-2.4375,0
3340,-15.8125,9.5625,-2.0625,0
3370,-13.875,6.0625,-6,0
3380,-10.5625,5.5,-8.625,0
3380,7.8125,5.75,-13,0
3400,11.5625,4.375,-15.125,0
3400,6.4375,2.5,-5.6875,0
3420,2.1875,1.375,-3.375,0
3420,4.1875,-1.3125,-3.1875,0
3440,6.25,-1.6875,-4.375,0
3460,6,-1.5625,-5.5,0
3480,5.0625,-1.375,-6,0
3510,13.125,-2.5625,-7.1875,0
3530,16,-3.375,-6.375,0
3550,16.5,-3.625,-6.375,0
3570,16.5,-4.375,-6.375,0
3590,15.5625,-4.875,-5.5,0
3590,12.4375,-4.75,-6.125,0
3630,12.5625,0.4375,-8.3125,0
3650,12.0625,2.75,-9.25,0
3650,22.8125,-3.1875,-5.5,0
3680,23.6875,-11.875,0.0625,0
3720,19.5,-14.8125,-4.125,0
3740,26.0625,-15.0625,-6.8125,0
3760,37.4375,-15.1875,-2.5625,0
3780,37.75,-13.0625,-1.875,0
3800,32.8125,-12.375,-6.8125,0
3820,26.375,-12.625,-3.6875,0
3840,20.1875,-12.625,-5.4375,0
3860,17.125,-11.5,-8.5625,0
3880,16.9375,-10.125,-4.4375,0
3900,17,-8.1875,-6.25,0
3920,16.6875,-9.125,-4.1875,0
3940,8.5625,-8.625,-7.5,0
3960,3.5,-8.6875,-2.125,0
3980,5.125,-10.5,-1.6875,0
4000,7.4375,-11.3125,-1.5,0
4020,8.4375,-10.875,-1.875,0
4040,12.625,-10.75,-3.125,0
4070,13.3125,-8.5,-6.375,0
4090,9.3125,-7.8125,-6,0
4110,2.6875,-7.75,-4.1875,0
4130,-0.25,-7.125,-5.5,0
4150,4.6875,-5.125,-9.6875,0
4170,14.375,-3.3125,-11.3125,0
4190,19.9375,-4.375,-9.8125,0
4210,17.75,-5.8125,-5.9375,0
4230,9.5625,-5.1875,-1.75,0
4260,-6.5,-0.0625,4.5,0
4280,-12.375,1.625,7.875,0
4320,-16.125,-0.6875,9.0625,0
4340,-13.5,-2.1875,7.6875,0
4360,-12.625,-3.5625,9,0
4380,-11,-2.3125,3.625,0
4400,-7.375,-1.4375,-1,0
4420,-4.5,-0.625,-3.625,0
4440,-3.875,-0.1875,-4.3125,0
4460,-4.6875,0.3125,-4.3125,0
4480,-7.9375,0.4375,-1.75,0
4500,-9.0625,0.625,0.3125,0
4520,-5.9375,0.9375,0,0
4540,-2.3125,1.25,-1.875,0
4560,-0.5625,1.6875,-2.625,0
4590,1.9375,1.0625,-2.25,0
4640,-1.4375,1.6875,-4.125,0
4650,1.4375,1.25,-5.125,0
4670,0,0.9375,-6.125,0
4700,0.25,2,-6.5625,0
4720,2.1875,1.8125,-6.125,0
4740,1.625,1.9375,-5.0625,0
4760,-1.875,2.375,-4.625,0
4780,-8,3.9375,-4.3125,0
4800,-14.0625,5.4375,-3.0625,0
4820,-18.5,6.625,-0.5,0
4840,-20.875,7.0625,1.25,0
4860,-21.0625,6.75,2.875,0
4880,-19.4375,5.4375,4.125,0
4900,-12.5,1.875,7.8125,0
4920,-10.1875,1,9.75,0
4940,-10.1875,0.375,10.625,0
4960,-12.125,-0.25,9.5,0
4980,-13.4375,-0.5,7,0
5010,-3.75,2.5,1.1875,0
5050,-10.125,1.125,2.1875,0
5080,-12.6875,4.4375,-0.125,0
5110,-17.4375,6,-2.125,0
5160,-25.625,1.375,10.875,0
5180,-26.375,1.5,10.5,0
5210,-10.25,3.6875,4.75,0
5250,13.9375,5.125,-4.9375,0
5280,20.3125,-0.875,-0.9375,0
5320,3.75,3.875,-3.625,0
5340,4.1875,5,-1.4375,0
5350,1.8125,0.375,7.625,0
5370,1,-2.4375,8.125,0
5400,-1.3125,-4.125,8.375,0
5420,-6.125,2,5.75,0
5440,-7.875,1.0625,7.6875,0
5470,4.5,-4.375,4.8125,0
5500,7.1875,-2.9375,0.875,0
5580,0.5,0.0625,-0.3125,0
5580,-0.5,0.5625,-1.25,0
5630,-4.125,0.6875,1.3125,0
5690,1.6875,0.25,-1.8125,0
5700,-0.6875,1.125,-0.875,0
5720,-3,1,0.5625,0
5740,-0.9375,0.625,-1,0
5760,-0.25,0.875,-1.25,0
5790,0.375,0.875,-0.75,0
5830,-0.125,-0.0625,0.4375,0
5850,0.4375,0.0625,0.0625,0
5880,2,-0.6875,-0.6875,0
5890,1.5625,-0.3125,-0.4375,0
5930,0.8125,0.0625,-0.6875,0
5950,0.4375,0,-0.3125,0
5960,-1.125,-0.3125,1.4375,0
6010,-1.9375,-0.125,1.6875,0
6030,-2.5,0.0625,1.3125,0
6030,-1,-0.1875,1.3125,0
6050,-1,0.125,1.125,0
6050,-2,0.8125,1.125,0
6070,-1.6875,0.3125,0.875,0
6090,-2.375,0.5625,0.75,0
6110,-2.5625,0.8125,1.1875,0
6130,-2.25,0.3125,1.5,0
6140,-2.9375,0.4375,1.4375,0
6160,-1.4375,0,1.1875,0
6160,-0.8125,-0.0625,0.875,0
6180,-1.3125,0.1875,0.6875,0
6200,-1.25,0.3125,0.75,0
6220,-0.625,0.1875,0.4375,0
6240,0.0625,0.125,0.4375,0
6240,0.1875,0.25,-0.375,0
6250,0.0625,0.375,-0.6875,0
6280,0.6875,0.25,-0.8125,0
6300,0.5625,0.3125,-0.8125,0
6360,1.1875,-0.1875,-0.5625,0
6370,-0.3125,-0.0625,0.3125,0
6390,0.5,0.1875,-0.75,0
6450,-0.5,0.25,-0.0625,0
6470,0.125,0.1875,0,0
6500,0,0.0625,0,0
6520,-0.25,0,0.0625,0
6540,-0.5625,0.125,0.125,0
6560,-0.5625,0.3125,-0.0625,0
6580,-0.375,0.3125,-0.125,0
6640,0.6875,-0.0625,0.4375,0
6640,-0.5625,0.125,0.5625,0
6690,-1.5625,0.4375,0.1875,0
6710,-0.0625,0,-0.625,0
6790,-27.0625,18.75,-4.4375,0
6820,29.4375,-16.8125,-23.5625,0
6840,10,-19.9375,-35.25,0
6880,-1.4375,-67.5625,-105.625,0
6900,-3.625,-78,-108.312,0
6920,-4.3125,-84.9375,-108,0
6940,-7.75,-89.5,-108.5,0
6970,-21.3125,-86.875,-99.4375,0
6990,-23.125,-82.8125,-91.9375,0
7010,-23,-76.3125,-81.5,0
7030,-26.6875,-69.125,-69.5,0
7050,-26.4375,-62.625,-58.875,0
7070,-22.9375,-58.75,-46.5625,0
7090,-22.875,-49.0625,-34.625,0
7110,-24.125,-35.1875,-26.5625,0
7130,-24.6875,-20.8125,-19.75,0
7150,-23.8125,-9.1875,-16,0
7170,-22.4375,-0.125,-16.8125,0
7190,-18.0625,4,-15.8125,0
7210,-14.125,5.375,-17.8125,0
7230,-6.5625,3.375,-17.25,0
7250,4.875,3.6875,-17.625,0
7270,10.875,5.0625,-20.6875,0
7290,8.5625,3.25,-19.375,0
7310,2.375,3.375,-18.1875,0
7330,1.3125,1.25,-15.0625,0
7350,5.5625,-0.125,-10.5625,0
7370,8.8125,-0.75,-8.375,0
7390,14.8125,-2.8125,-6.4375,0
7410,14.75,-2.625,-3.5625,0
7430,7.3125,-0.375,-1.375,0
7450,-1.1875,0.0625,-0.1875,0
7470,-3.75,-0.4375,0.6875,0
7490,-3.0625,-1.5,0.9375,0
7510,0.125,-2.5625,0.5,0
7530,0.125,-3.3125,1.4375,0
7550,-3.25,-2.9375,0.625,0
7580,2.6875,-2.875,-4.25,0
7600,3.625,-2.5625,-5.5,0
7620,1.375,-3.375,-5.4375,0
7640,-0.1875,-2,-3,0
7660,0.5,-1.25,-2.875,0
7680,2.3125,-1.8125,-0.5625,0
7700,1.875,-0.75,0.4375,0
7720,1.3125,0,-0.9375,0
7740,1.5625,-0.875,-0.3125,0
7760,1.4375,0.5,1.5,2000
7780,-0.0625,1.5625,3.6875,0
7800,0.9375,2.6875,3.375,0
7820,0.1875,3.5625,3.3125,0
7840,-0.0625,3.8125,2.6875,0
7860,1.25,3.3125,1.375,0
7880,2.375,1.1875,0,0
7900,1.625,-0.4375,-0.4375,0
7920,1.0625,-1.5,-1.8125,0
7940,-0.0625,-2.4375,-3.1875,0
7960,-0.0625,-2.375,-3.6875,0
7980,0.25,-3.25,-4.1875,0
8000,0.625,-3.9375,-4.4375,0
8020,-0.5625,-4.125,-4.5,0
8040,-3.1875,-3.6875,-2.875,0
8060,-1.9375,-3.75,-2,0
8080,-1.75,-3.5625,-1.9375,0
8100,-2.0625,-2.9375,-1.9375,0
8120,-1.9375,-2.3125,-2.625,0
8140,0.0625,-2.5625,-4.0625,0
8170,0.8125,-4,-9.6875,0
8190,3.4375,-6,-15.1875,0
8210,6.8125,-7.75,-19.4375,0
8230,2.625,-2.9375,-22.25,0
8250,4.0625,-1.25,-24.5625,0
8270,3.8125,0.3125,-26.625,0
8290,2.625,0.6875,-30.0625,0
8310,2.1875,2.625,-31.3125,0
8330,0.5,6.375,-33.3125,0
8350,-3.875,9.4375,-33,0
8370,-6.1875,12,-32.3125,0
8390,-8.625,15.8125,-33.0625,0
8410,-11.6875,18.3125,-32.875,0
8430,-14.6875,19.6875,-32.4375,0
8450,-15.625,21.0625,-31.6875,0
8480,-21.625,25.375,-36.4375,0
8500,-25.8125,28.3125,-40.875,0
8520,-28.125,29.5625,-45.25,0
8540,-26.5,30.0625,-47.9375,0
8560,-23.125,30.875,-48.8125,0
8570,-24.875,33,-51,0
8590,-28.75,35.3125,-49.875,0
8610,-39.5625,39.75,-50.6875,0
8620,-39.5625,45.9375,-39.5,0
8640,-37.75,45.0625,-36.875,0
8650,-35.625,42.5,-32.375,0
8660,-34.4375,52.4375,-15.125,0
8680,-27.9375,56.125,-5.6875,0
8700,-16.9375,52.75,-3.6875,0
8720,-16.4375,51.5,1.0625,0
8740,-10.8125,51.875,1.9375,0
8760,0.75,48,4.4375,0
8780,8.375,44.0625,7.5625,0
8800,6.8125,45.75,6.75,0
8820,3.9375,42.3125,1.75,0
8840,3.3125,35.875,3.1875,0
8860,10.5625,25.5625,8.4375,0
8880,20.0625,21.4375,11.1875,0
8900,21.625,19.8125,12.0625,0
8920,14.3125,9.6875,13.75,0
8940,8.5625,1.9375,19.3125,0
8960,11.8125,-4.125,27.875,0
8980,29.125,-11.9375,29.5625,0
9000,29.25,-14.75,30.125,0
9020,21,-18.4375,33.625,0
9040,12.0625,-26.5625,36.25,0
9060,13.0625,-35.25,38.8125,0
9080,18.75,-43.25,39.75,0
9100,22,-48.5625,36.9375,0
9120,18.125,-52.8125,37.5625,0
9150,14.375,-73.1875,36.8125,0
9170,17.25,-78.1875,35.5,0
9210,13.0625,-81.875,30.375,0
9230,16.6875,-83.75,26.625,0
9250,13.125,-82.75,24.875,0
9280,19.4375,-90.375,17.5,0
9300,22.3125,-89.125,10.375,0
9330,21,-86.1875,-1.9375,0
9350,12.0625,-86,-3.6875,0
9370,19.5625,-83.9375,-7.9375,0
9390,16.375,-77.625,-8.9375,0
9410,18.8125,-76.4375,-12.25,0
9430,9.375,-70.125,-11.3125,0
9450,3.6875,-66.5625,-11.25,0
9470,6.5625,-59.75,-11.8125,0
9490,6.75,-53.75,-13.5,0
9510,8.5625,-45.625,-16.125,0
9530,5.5625,-44.625,-17.625,0
9550,-3.75,-37.75,-23.6875,0
9570,-50.75,20.5625,-57.5,0
9610,-58.3125,45.75,-53.8125,0
9630,-66.9375,56.125,-53.6875,0
9650,-72.375,62.4375,-49.5625,0
9670,-72.25,67.875,-46.375,0
9690,-59.8125,78.25,-42.6875,0
9710,-58.3125,74.1875,-41.9375,0
9730,-55.4375,75.125,-39.8125,0
9750,-53.0625,73.25,-36.5,0
9770,-48.625,68.6875,-31.875,0
9790,-42.1875,65.5625,-27.625,0
9810,-36.75,63.125,-23.3125,0
9830,-31.3125,65.9375,-15.5,0
9850,-27.1875,66.8125,-6,0
9870,-20.9375,65.9375,6.125,0
9890,-7.25,59,9.0625,0
9910,9.4375,47.9375,9.8125,0
9930,13.25,44.75,20.6875,0
9950,5.5,44,25.8125,0
9980,5.625,21.875,36.375,0
10000,17.5625,14.625,38.1875,0
10020,19.6875,9.6875,39.6875,0
10040,15.6875,4.4375,43.625,0
10060,12.6875,-1.8125,42.5,0
10080,10.125,-6,44.3125,0
10100,16.8125,-6.3125,47.375,0
10120,21.5625,-6.6875,43.75,0
10140,15.625,-9.875,44.125,0
10160,10.0625,-14.3125,45.9375,0
10180,11.25,-16,44.375,0
10200,16.8125,-17.375,45.375,0
10220,20.5,-19.5,46.3125,0
10220,17.625,-19.8125,42.875,0
10240,11.125,-21.6875,41.125,0
10260,10.125,-24.375,39.9375,0
10280,14.0625,-26.5625,40.0625,0
10300,18.625,-28.125,37.4375,0
10320,21.4375,-30.875,32.9375,0
10340,21.125,-35.125,30.4375,0
10360,23.25,-42,26.5625,0
10380,26.1875,-49.9375,22.6875,0
10400,26.25,-57.4375,22.5625,0
10420,24.125,-64.1875,20.125,0
10440,16,-69.5,18.875,0
10460,11.75,-76.6875,17.625,0
10480,11.9375,-81.875,16.375,0
10500,16.25,-84.75,14.9375,0
10540,8.5,-84.25,8.4375,0
10560,2.875,-81.875,2.375,0
10580,2.125,-79.8125,-0.5625,0
10600,5.6875,-79.5,-1.875,0
10620,2.4375,-76,-2.5,0
10640,0.4375,-70.8125,-8.1875,0
10660,2.875,-64.75,-14.75,0
10680,5.25,-61.4375,-23.625,0
10700,2.75,-58.25,-31.375,0
10720,-1.125,-56.5,-36.6875,0
10740,-5.75,-52.375,-42.625,0
10760,-14.375,-45.625,-52.8125,0
10780,-21.9375,-36.3125,-57.8125,0
10800,-28.375,-30.1875,-61.9375,0
10820,-31.125,-24.625,-71.5625,0
10840,-32.125,-16.3125,-76.6875,0
10860,-39.625,-5.3125,-75.875,0
10880,-46.1875,3.8125,-72.625,0
10900,-49.4375,19.3125,-69.5625,0
10920,-54.8125,36.0625,-69.75,0
10940,-61.5,47.4375,-70.1875,0
10960,-64.625,57,-69,0
10980,-64.875,63.5,-70.375,0
11000,-63.75,69.1875,-71.625,0
11020,-69.5625,75.625,-67.125,0
11040,-69.0625,75.375,-59.1875,0
11080,-51.6875,71.8125,-50.125,0
11100,-50.3125,69.5,-40.875,0
11120,-47.125,67.5625,-25.5,0
11140,-36.3125,67.6875,-9.625,0
11160,-21.8125,68.75,1.9375,0
11180,-14.125,73.1875,7.375,0
11200,-17.125,78.25,15.375,0
11220,-17.75,80.8125,27.6875,0
11240,-14.4375,81.6875,37.3125,0
11260,-0.3125,76.6875,45.25,0
11280,10.8125,70.8125,51.3125,0
11300,7.6875,66.5,51.8125,0
11320,-5.0625,61.1875,52.875,0
11340,-11.8125,53.3125,52.6875,0
11360,-7.4375,43.625,49.1875,0
11380,4.25,35.125,49.9375,0
11400,7.875,28.25,52.9375,0
11420,3.625,21.4375,53.625,0
11440,-1.1875,14.4375,54,0
11460,6.3125,5.0625,52.125,0
11480,13.5,-3.75,47.4375,0
11500,15.25,-12.8125,45.625,0
11520,11.5,-19.625,44,0
11540,6.5625,-26,44.1875,0
11560,4.375,-32.625,43.9375,0
11580,11.875,-37.5,46.8125,0
11600,15.5625,-41.0625,48.375,0
11620,10.6875,-43.5,47.625,0
11640,-0.9375,-48.4375,48.375,0
11660,-3.6875,-57.375,49.4375,0
11680,-0.1875,-66.1875,52.125,0
11700,-1.625,-72.1875,53.6875,0
11720,3.6875,-77.4375,51.1875,0
11740,2.9375,-88.9375,48.5625,0
11760,2.6875,-99.125,40.125,0
11780,14.5,-101,28.6875,0
11800,22.0625,-104.875,17.6875,0
11820,17.875,-107.938,8.125,0
11840,16.3125,-107.312,-0.8125,0
11860,19.625,-101.938,-9.4375,0
11880,17.8125,-93.9375,-16,0
11920,3.0625,-80.6875,-26.375,0
11950,4.5625,-68.3125,-42.125,0
11970,3.4375,-64.0625,-48.0625,0
11990,3.8125,-56.5625,-54.4375,0
12010,2,-47.625,-61.6875,0
12030,-9.9375,-41.625,-66,0
12050,-12.3125,-37.875,-67.5625,0
12070,-10.6875,-34.125,-70.8125,0
12090,-10.5625,-28,-77.75,0
12110,-21.5,-22.125,-77.75,0
12130,-31.4375,-16.6875,-75.4375,0
12150,-40.5,-11.9375,-77.25,0
12170,-42.0625,-7.5,-73.5,2001
12190,-34.5,19,-29.875,0
12210,-29.4375,16.25,-18.1875,0
12230,-27.1875,11.6875,-3.75,0
12260,-15.625,6.125,13.625,0
12280,-14.375,5,17.5625,0
12290,-13.3125,4.8125,20.75,0
12300,-9.1875,4,16.25,0
12320,-4.9375,6.0625,12.6875,0
12340,2.25,8.125,9.0625,0
12360,7.4375,6,6,0
12380,8.875,4,3.25,0
12410,15.5,-3.625,20.125,0
12430,24.8125,-4.3125,37.0625,0
12460,36.125,1.625,66.4375,0
12480,31.125,0.1875,67.25,0
12500,28.25,3.75,65.9375,0
12510,32.3125,5.4375,64.75,0
12530,34.8125,6.8125,59.375,0
12550,41.75,8.5,52.9375,0
12570,43.125,7.125,53.75,0
12590,42.625,5.25,53.75,0
12610,48.9375,6.1875,47.4375,0
12630,44.875,1.375,42.6875,0
12650,48.875,2.4375,44.125,0
12670,60.5,-3.0625,58.375,0
12690,56.25,-11.625,58.9375,0
12710,55.4375,-12.5625,56.5,0
12730,53.5,-17.5,58.0625,0
12750,42.75,-23.125,55.25,0
12770,41,-28.5,53.5625,0
12800,54.375,-36.5,63.9375,0
12820,58.5625,-36.8125,59.25,0
12840,47,-35.0625,64.0625,0
12860,46.625,-29.625,73.3125,0
12880,53.8125,-25.25,75.0625,0
12900,54.25,-16.125,69.75,0
12920,47.4375,-8.4375,66.9375,0
12940,38.4375,3.375,65.125,0
12960,38.125,17.625,56.8125,0
12980,37.9375,28.5625,46.1875,0
13000,32.0625,37.875,40.25,0
13020,25.1875,44.0625,37.25,0
13040,24.4375,48.5,35.5,0
13060,24.375,51.4375,32.1875,0
13080,23.9375,52.5625,26.6875,0
13100,18.1875,48.9375,22.0625,0
13120,9.4375,45.875,20.8125,0
13140,5.5,42.5625,20.9375,0
13160,6.5625,38.875,16.4375,0
13180,1.5,35.6875,12.4375,0
13200,2.75,29.75,11.25,0
13220,8.0625,21.25,9.5625,0
13240,9.3125,16.5625,13.375,0
13250,3,11.1875,5.4375,0
13280,9.375,2.4375,4.625,0
13300,6.1875,0.5,4.3125,0
13320,5.625,-0.5625,4.75,0
13330,2.875,-0.375,7.25,0
13350,4.625,-1.4375,6.5,0
13370,3.9375,-1.5625,6.625,0
13390,6.6875,0.125,7,0
13410,9.9375,-0.1875,6.4375,0
13420,3.25,0.75,3.5625,0
13440,6,-0.375,1.3125,2000
13450,6.5625,0.9375,-2.3125,0
13480,-5.75,-3.6875,-1.1875,0
13500,-6.4375,-8.4375,-0.875,0
13520,2.3125,-8.0625,-3.1875,0
13540,4.25,-8.125,-9.625,0
13570,3.5625,-13.25,-9.9375,0
13590,5.5625,-15.8125,-11.625,0
13600,3.25,-18.1875,-13.375,0
13620,-1.8125,-19.8125,-11.625,0
13640,-1.3125,-21.4375,-9,0
13660,0.25,-22.125,-8.25,0
13680,3.125,-22.3125,-7.8125,0
13700,4.75,-23.5,-7,0
13720,1.125,-25.25,-8.875,0
13740,-1.875,-25.625,-10.375,0
13760,4.375,-25.875,-11.1875,0
13780,6.125,-26.5625,-12.9375,0
13800,2.125,-22.9375,-18.625,0
13820,-8.6875,-17,-18.8125,0
13840,-9,-11,-17.3125,0
13860,-0.25,-6.125,-17.4375,0
13880,2.5,-3.75,-26.625,0
13890,-17.125,2.625,-36.625,0
13920,-16.9375,24.9375,-53.6875,0
13930,-31.6875,34.6875,-57.125,0
13950,-32.5,41.3125,-56.3125,0
13970,-32.6875,47.25,-58.0625,0
13980,-49.5,81.75,-37.75,0
14000,-46.8125,65,-40.1875,0
14020,-41.375,62.1875,-36.5625,0
14040,-35.75,56.375,-28.9375,0
14060,-26,46.8125,-23.375,0
14090,-15.0625,25.4375,-5.3125,0
14130,-10.125,17.1875,2.625,0
14150,-8.25,17.875,6.0625,0
14170,-5.1875,19.0625,7,0
14190,10.875,15.8125,13.8125,0
14210,11.0625,16.625,14.125,0
14230,4.8125,20.4375,19.375,0
14250,7.1875,18.875,23.125,0
14270,18.25,12.8125,24.125,0
14290,23.4375,8.5,22.75,0
14310,15.5,6.5625,28.6875,0
14330,13.3125,4,29,0
14350,11.3125,2.3125,25.9375,0
14370,11.375,2.0625,26.5625,0
14390,15.625,-0.6875,27.375,0
14410,23.75,-5.1875,27.6875,0
14440,24.875,-15.125,27.9375,0
14460,25.875,-22.5,27,0
14470,27.5625,-35,30.3125,0
14500,17.125,-42.9375,32.0625,0
14520,11.9375,-47.5625,34.1875,0
14540,13.5625,-51.0625,37.6875,0
14560,17.3125,-51.75,40.0625,0
14580,16.3125,-53.0625,42.75,0
14600,19.1875,-56,42.5,0
14620,16.25,-58.375,40.5,0
14640,15.9375,-58.625,37.1875,0
14660,21.4375,-61.3125,34.625,0
14680,19.3125,-65.1875,31.875,0
14700,18.1875,-65.875,28.25,0
14710,12.4375,-67,23.75,0
14730,11.9375,-67.625,20.9375,0
14750,12.5,-70.25,19.4375,0
14770,14.5625,-70.6875,19.0625,0
14790,17.5,-69.625,16.75,0
14810,14.25,-67.5625,11.875,0
14850,8.3125,-63.25,0.5625,0
14880,12.3125,-58.875,-4.25,0
14900,11.3125,-56.125,-3.3125,0
14930,11.8125,-52.125,-7.625,0
14950,10.25,-51.8125,-10.375,0
14980,7.9375,-44.75,-15.6875,0
15000,9.375,-41.75,-20.375,0
15020,8,-41.125,-25.125,0
15040,8.6875,-38.5,-30.5625,0
15050,7.75,-35.125,-35,0
15070,10.0625,-3.375,-58.0625,0
15090,12.375,-1.3125,-63.75,0
15110,9.375,2,-72,0
15130,-0.375,6.4375,-76.6875,0
15150,-10.75,12,-78.8125,0
15170,-16.5625,16.9375,-80.25,0
15190,-18.5625,19.8125,-81.125,0
15210,-20.6875,22.8125,-80.5625,0
15230,-31.5625,27.625,-74.8125,0
15250,-35.5625,34.25,-74.625,0
15270,-41.6875,36.1875,-66.875,0
15290,-42.3125,35.5,-62.875,0
15310,-40.6875,35.0625,-58,0
15330,-41.875,37,-52.625,0
15350,-44,39.125,-47.1875,0
15370,-45.1875,40.4375,-39.9375,0
15390,-41.4375,39.625,-36.4375,0
15410,-40.75,38.5,-30.875,0
15430,-36.875,38.4375,-28.125,0
15450,-35.0625,37.125,-27.1875,0
15470,-32.4375,36.75,-24.0625,0
15490,-32.1875,37.5,-19.4375,0
15510,-25.1875,35.0625,-13.625,0
15530,-14.125,28.625,-10.3125,0
15550,-9.875,25.3125,-5.625,0
15570,-12.75,25.5625,-1.25,0
15590,-17.5625,25.625,1.375,0
15610,-16.375,23.3125,3.375,0
15630,-8.5625,23.5625,6.3125,0
15650,-4.125,26.5,6.125,0
15670,-12.5625,35.0625,3.875,0
15690,-32,45.8125,7.125,0
15710,-43.25,54.375,13.3125,0
15730,-24.625,54.125,21.75,0
15750,10.1875,47.9375,23.8125,0
15760,4.9375,51.8125,22.5,0
15800,-21.875,42.1875,22.5625,0
15820,-9.3125,35.5,28.375,0
15840,7.75,28.4375,30.75,0
15860,4.875,22.625,29.6875,0
15860,-7.3125,15.5,30.4375,0
15880,-8.625,3.125,31,0
15900,-0.375,-4.25,31,0
15920,3.25,-8.875,29.5,0
15940,3.6875,-13.6875,27.875,0
15960,2.3125,-18.3125,29.125,0
15980,6.8125,-25.3125,30.75,0
15990,-2.375,-39.6875,41.8125,0
16010,-4.5,-42.8125,45.25,0
16030,-12.8125,-41.375,46.625,0
16070,-22.6875,-39.8125,41.9375,0
16090,-19.4375,-45.875,42.1875,0
16110,-14,-49.0625,41,0
16130,-4.1875,-48.0625,37.5625,0
16150,-3.5625,-48.1875,35.375,0
16170,-13.3125,-47.625,31.3125,0
16190,-13.0625,-45.4375,25.875,0
16210,0.5625,-44.125,21.3125,0
16230,8,-44.9375,17.9375,0
16250,7.6875,-45.625,15.9375,0
16270,6.625,-47,13.3125,0
16290,11.875,-48.9375,10,0
16310,17.8125,-52.0625,4.8125,0
16330,17.625,-55.5,4.6875,0
16350,17.1875,-58.875,6.3125,0
16370,15.375,-56.6875,1.875,0
16390,5.875,-55.875,-2.25,0
16410,1.375,-57.375,-4.5625,0
16430,6.25,-57.5,-9.5625,0
16470,8.375,-54.75,-10.3125,0
16510,-10.1875,-55,-8.5,0
16540,-8.875,-46.375,-24.9375,0
16560,-6.0625,-46.3125,-28.5625,0
16580,-4.8125,-44.625,-29.6875,0
16600,-5.5,-42.4375,-30.3125,0
16620,-10.25,-40,-30.6875,0
16640,-11.1875,-39.0625,-28.6875,0
16660,-14.5,-36.8125,-26.375,0
16680,-12.125,-32.625,-29.0625,0
16700,-7.0625,-26.75,-30.5625,0
16720,-13.5,-21.625,-30.4375,0
16740,-18.1875,-14.125,-34.125,0
16760,-18.25,-8,-35.5,0
16780,-14.0625,-3.4375,-37.6875,0
16800,-15.75,1.5,-40.9375,0
16820,-21.5625,7.1875,-40.8125,0
16840,-26.5625,13,-40.6875,0
16860,-26.9375,18.1875,-44.3125,0
16880,-29.1875,22.6875,-44.9375,0
16900,-30.3125,26.125,-42.875,0
16920,-31.4375,25.6875,-40.875,0
16940,-32.0625,25.8125,-37.5,0
16960,-33.375,27.1875,-37.625,0
16980,-34.6875,29.375,-38.25,0
17000,-37.25,27.5,-36.125,0
17020,-41.375,30.625,-36.125,0
17050,-32.875,41.0625,-27.875,0
17110,-23.5625,52.125,-8.75,0
17150,-25.125,57.375,4.5625,0
17180,-16.0625,63,30,0
17220,1.375,51.125,41.875,0
17230,16.5625,47.1875,40.875,0
17250,21.25,43.9375,35.6875,0
17260,-10.1875,35.6875,32.25,0
17280,-9.875,30.9375,33.4375,0
17300,4.0625,25.875,33.4375,0
17320,10.375,20.9375,33.5,0
17340,11.1875,15,37,0
17360,11.375,12.3125,38.9375,0
17380,8.5,8.0625,40.125,0
17400,3.1875,2.5625,45,0
17420,10.375,-2.125,46.125,0
17440,17.1875,-4.125,42.125,0
17460,9,-2.625,40.5625,0
17480,-7.875,-5.0625,39.9375,0
17500,-14.25,-7.6875,43.0625,0
17520,-4.4375,-11,45.4375,0
17540,9.8125,-9.25,42.375,0
17560,13.25,-8.125,38.5,0
17580,4.875,-11.5625,39.8125,0
17600,2.75,-12.6875,36.8125,0
17620,6.5625,-16.4375,32.1875,0
17640,14.375,-20.6875,30.5625,0
17660,19.875,-24.0625,29.0625,0
17680,26.5,-25.6875,27.3125,0
17700,30.125,-28.875,20.375,0
17720,25.125,-32.8125,23.0625,0
17740,18.6875,-36.6875,24.4375,0
17760,16.25,-39.3125,20.8125,0
17780,14.5,-45,17.6875,0
17800,18.5625,-53.4375,15.875,0
17820,13.3125,-57.625,13.3125,0
17840,9.1875,-59.375,6.5625,0
17870,5.75,-68.6875,-0.125,0
17890,6.4375,-77,-5.0625,0
17910,6.875,-83.4375,-8.875,0
17930,2.75,-86.75,-10.125,0
17950,-5.9375,-87.4375,-12.625,0
17960,-0.1875,-80.875,-22.875,0
17980,8.125,-76.125,-25.875,0
18000,9.125,-68.125,-25.3125,0
18020,9.125,-60.125,-27.75,0
18040,6.1875,-58.0625,-28.25,0
18060,5.0625,-54.625,-28.375,0
18080,6.8125,-51.75,-31.1875,0
18100,6.875,-50.0625,-33.6875,0
18120,2.5,-48.6875,-33.1875,0
18140,1.4375,-51.375,-32.375,0
18170,6.875,-51.1875,-37.375,0
18190,-2.3125,-38.375,-39.625,0
18210,-0.4375,-33.0625,-39.4375,0
18240,-0.6875,-20.6875,-35.4375,0
18260,-5.3125,-10.875,-32.75,2001
18280,2.1875,1.4375,-21.8125,0
18300,3.25,0.125,-19.1875,0
18310,-8.6875,2.25,-15.875,0
18340,-3.125,10.75,7.875,0
18370,5.8125,11.75,14.8125,0
18410,17.875,43.25,53.375,0
18420,12.1875,46.3125,64.0625,0
18440,14.875,57.5625,68.875,0
18450,25.1875,74.875,75.625,0
18470,38.1875,79.875,76.0625,0
18490,48.1875,88.75,72.4375,0
18510,45.75,97.3125,71.5625,0
18530,41.125,101.188,74.25,0
18550,53.5625,99.5625,75.25,0
18570,66.1875,91.4375,70.6875,0
18590,61.125,86.0625,61.8125,0
18600,55.5625,89.125,59.9375,0
18620,39.6875,61.6875,67.125,0
18640,30.875,45.8125,60,0
18660,21.125,30.8125,51.375,0
18680,-6.3125,23.1875,48.5625,0
18700,-41,26.625,49,0
18720,-53.3125,25.9375,46.3125,0
18750,-19.125,34.625,31.5625,0
18770,-5.75,27.4375,24.75,0
18790,5.375,21.125,16.75,0
18810,14.375,19.875,10.75,0
18830,22.1875,19.125,5.5,0
18850,19.9375,13.875,4.8125,0
18870,18.625,11.5625,2.875,0
18890,19.5,6.1875,-0.4375,0
18910,19.375,-1.5,2.3125,0
18930,22.75,-2.8125,5.4375,0
18950,17.9375,0.25,1.9375,0
18970,7.75,4.1875,-4.625,0
18990,-1,6.3125,-6.6875,2000
19010,1.1875,0.4375,-2.625,0
19030,10.8125,-4,1.3125,0
19050,12.6875,-6.0625,4.6875,0
19070,3.1875,-4.8125,7,0
19090,-3.875,-4.3125,3,0
19110,-6.8125,-4.5625,-1.8125,0
19130,-0.125,-9,-1.9375,0
19150,1.6875,-12.125,1,0
19170,2.1875,-11.625,-3.0625,0
19190,-1.75,-12.8125,-4.5,0
19210,-4.0625,-15.6875,-3.0625,0
19230,-3.6875,-19.625,-3.5625,0
19250,5.4375,-22.8125,-5.75,0
19270,9.6875,-24.8125,-12.375,0
19300,8.3125,-31.1875,-16.9375,0
19330,3.25,-23.6875,-22.625,0
19350,-1.25,-18.5625,-20.75,0
19370,-3.3125,-11.625,-20.8125,0
19390,-5.9375,-5.3125,-20.875,0
19410,-13.25,-1.6875,-19.1875,0
19430,-10.0625,2.25,-22.625,0
19450,-14.8125,8.3125,-32.6875,0
19470,-21.9375,13.125,-39.0625,0
19490,-26.125,20.5625,-43,0
19540,-54.5625,49.3125,-65.75,0
19550,-54.5,49.625,-60.5,0
19570,-36.4375,35.4375,-16.6875,0
19570,-26.875,30.9375,-15.6875,0
19590,-33.3125,27.3125,-14,0
19610,-40.5625,22.9375,-11.1875,0
19610,-39.8125,23.625,-7.9375,0
19630,-28.9375,26.25,-4,0
19650,-14.5,32.1875,-2.125,0
19670,-28.375,35.875,1.5625,0
19680,-20.625,36,9.5625,0
19700,-7,35.8125,12.125,0
19720,4.4375,34.1875,11,0
19740,1.3125,30.4375,13.25,0
19760,-6.9375,28.25,13.8125,0
19780,-8,23.375,16.4375,0
19800,3,20.0625,14.875,0
19820,13.375,16.5,11.5,0
19840,13.8125,12.5,11.375,0
19860,7.375,10.0625,12.625,0
19880,5.9375,8.6875,14.8125,0
19900,16.8125,5.75,17.4375,0
19920,26.4375,3.75,13.0625,0
19940,31.75,0.875,11.6875,0
19960,24.375,-2.875,13.5625,0
19980,20,-7.625,13.8125,0
20000,27.375,-13.25,20.1875,0
20010,31.9375,-15.9375,25.125,0
20030,25.375,-16.0625,29.875,0
20050,13.625,-16.4375,38.9375,0
20070,14.4375,-16.5,38.5625,0
20100,25.125,-15.125,35.9375,0
20120,22.875,-15.125,32.8125,0
20140,16.25,-19.3125,31.6875,0
20160,17.625,-23.8125,29.125,0
20180,20.625,-27.375,26.9375,0
20190,18.5625,-30.125,26.5625,0
20210,17.5,-33.125,27,0
20230,14.9375,-37.4375,27.375,0
20250,13,-41.3125,31,0
20270,13.0625,-43.75,32.625,0
20290,8.4375,-43.9375,34.75,0
20310,6.25,-45.25,35.5,0
20330,5.5625,-46.5,34,0
20350,5.3125,-49.1875,32.1875,0
20370,5.5625,-52.125,32.6875,0
20390,7.6875,-52.25,28.4375,0
20410,7.8125,-53.125,27.0625,0
20430,9.25,-53.625,13.6875,0
20430,19.8125,-56,8.5625,0
20450,31.125,-55.8125,0.3125,0
20470,24.5,-56.125,-4.3125,0
20490,9.125,-54.875,-6.1875,0
20510,10.75,-57.375,-8.9375,0
20530,22.375,-61.3125,-13.75,0
20550,29.6875,-60.75,-17.625,0
20570,30.9375,-61.0625,-17.5,0
20590,21.9375,-61.25,-18.0625,0
20610,13.6875,-59.0625,-19.625,0
20630,8.5625,-56.25,-21.625,0
20670,6.0625,-49.4375,-15.625,0
20690,3.375,-41.375,-17.75,0
20710,-1.5625,-35.9375,-22.8125,0
20730,-13,-27.0625,-29.5625,0
20750,-18.0625,-19.4375,-34.625,0
20770,-12.25,-14.4375,-40.9375,0
20830,-13.375,-2.0625,-48,0
20850,-46.125,9.8125,-40.6875,0
20880,-62.25,36.125,-34.6875,0
20900,-57.3125,42.75,-38.25,0
20920,-57.8125,48.1875,-41.375,0
20940,-61.875,53.625,-43.875,0
20960,-64.4375,55.1875,-46.6875,0
20980,-61.25,55.375,-48.125,0
21000,-54.6875,54.125,-48.625,0
21020,-53.8125,51.0625,-49.125,0
21040,-57.25,48.25,-48.8125,0
21060,-61.375,45.5,-47.4375,0
21080,-60.625,44.125,-43.4375,0
21100,-54.875,43.5,-38,0
21120,-47.8125,41,-35.875,0
21140,-45.25,42,-32.75,0
21160,-43.75,40.625,-27.9375,0
21180,-44.4375,40.5,-21.8125,0
21200,-37.375,38.875,-16.75,0
21220,-33,35.9375,-10.5625,0
21240,-28.125,35.1875,-4.375,0
21260,-21.375,34.6875,-1.25,0
21280,-22.5625,36.4375,6,0
21300,-24.75,36.0625,10,0
21320,-26.5,35.625,14.4375,0
21340,-16.9375,35.8125,20.8125,0
21360,-11.875,37.125,26.1875,0
21380,-11.125,39.0625,29.4375,0
21400,-9.125,35.125,32.875,0
21450,13.6875,3.4375,28.625,0
21490,13.3125,-10.25,28.0625,0
21510,8.4375,-11.3125,29.5625,0
21530,14.6875,-13.125,30.9375,0
21550,19.75,-14.625,31.1875,0
21570,18.9375,-15.0625,31.125,0
21590,8.0625,-17.875,31.9375,0
21610,0.8125,-17,33.0625,0
21640,11.875,-17.6875,33.0625,0
21660,8.125,-17.8125,32.6875,0
21680,5.3125,-16.1875,31.1875,0
21700,0.875,-18.5,32.8125,0
21720,-7,-19,38.0625,0
21740,-7.625,-17.75,40.8125,0
21760,-5,-16.25,40.0625,0
21800,3.125,-20.5625,33.1875,0
21820,3.125,-22.3125,33.75,0
21840,3.625,-23.625,32.5625,0
21860,3.5,-26.0625,28.75,0
21870,1.25,-29,29.3125,0
21900,1.9375,-33.4375,27.875,0
21920,4.875,-33.5,25.875,0
21940,6.0625,-35.9375,25.125,0
21960,1.0625,-40.4375,21.625,0
21980,-0.9375,-43.6875,18.5625,0
22040,4.1875,-61.25,-5.625,0
22070,9.8125,-58.25,-11.5625,0
22090,8.625,-54.625,-14.375,0
22120,16.4375,-50.8125,-24.125,0
22140,18.1875,-51.0625,-29.625,0
22150,16.125,-46.5,-31.1875,0
22170,13.375,-42.8125,-30.75,0
22190,4.75,-40.9375,-30.1875,0
22210,14.875,-37.4375,-34.0625,0
22230,26.75,-35.6875,-42.5625,0
22250,19.1875,-36.8125,-41.8125,0
22270,8.625,-35.625,-40.75,0
22300,11.375,-30.625,-49.3125,0
22310,0.8125,-25.0625,-51.8125,0
22320,-10.125,-17.0625,-50.625,0
22350,-20.0625,-1.0625,-49,0
22370,-23.1875,2.6875,-51.8125,0
22390,-36.3125,14,-51.0625,0
22410,-40.3125,23.5,-45.125,0
22430,-39.75,31.25,-40.125,0
22450,-34.25,33.0625,-39.9375,0
22470,-33,34.9375,-47.8125,0
22490,-46.8125,37.25,-51.3125,0
22510,-52.75,39.0625,-43.5625,0
22530,-49.75,41.3125,-39.8125,0
22550,-43.375,42.125,-37.9375,0
22570,-44.0625,44.25,-34.25,0
22590,-47.6875,48.25,-32.375,0
22610,-43.6875,49.125,-26.5,0
22630,-41.5625,51.5625,-22.0625,0
22650,-38.5625,51.9375,-21.875,0
22670,-38.6875,51.5,-18.6875,0
22690,-34.25,50.625,-13.4375,0
22710,-29.6875,50.875,-9.875,0
22730,-27.75,52.625,-8.125,0
22750,-26.875,55,-2.9375,0
22770,-32.25,57.5625,6.1875,0
22790,-34.5625,59.6875,14.3125,0
22810,-28.4375,60.625,19.375,0
22830,-18.125,58.625,23.6875,0
22850,-18.0625,56.9375,27.1875,0
22870,-21.6875,54.3125,26.875,0
22890,-14.6875,51.5625,28.3125,0
22910,-4.375,47.75,27.125,0
22930,2.375,43.875,28.25,0
22950,-1.875,42.125,31.9375,0
22970,-10,37.375,35.1875,0
22990,-11.3125,27.4375,41.25,0
23010,-14.125,20.5625,45.125,0
23030,-16.375,23.0625,45.5625,0
23050,-17.5625,21.25,42.625,0
23070,-24.5,17.4375,39.3125,0
23100,-9.1875,2.0625,43.875,0
23120,-6.4375,0,45.0625,0
23140,-8.375,-4.6875,39.875,0
23160,-19.375,-8.25,39.8125,0
23170,-18.0625,-14.75,43.375,0
23190,-12.0625,-20.625,46.125,0
23210,-3.3125,-21.1875,43.375,0
23230,-0.25,-23.3125,42.5,0
23250,-8.375,-28.4375,42.6875,0
23270,-13.5625,-27.625,43.0625,0
23290,-15.0625,-27.1875,47.5625,0
23310,-15.875,-31,49.1875,0
23330,-13.9375,-31.125,48.4375,0
23350,-12.9375,-29.75,46.9375,0
23370,-5.875,-29.25,40.3125,0
23390,-6.4375,-30.375,34.75,0
23410,-4.875,-34,31.6875,0
23430,2.375,-37.0625,28.375,0
23450,10.5625,-42.25,25,0
23470,6.25,-43.6875,20.0625,0
23490,-0.25,-43.625,13.0625,0
23510,-2.625,-45.625,7.375,0
23530,6.6875,-49.625,3.375,0
23550,17,-53.5625,-0.0625,0
23570,14.4375,-56.8125,-5.3125,0
23590,8.8125,-59.25,-13.75,0
23610,4.1875,-62.75,-20.125,0
23630,7.5625,-69,-25,0
23650,18.4375,-72.3125,-30.125,0
23670,27.9375,-71.125,-35.4375,0
23690,24.5625,-69.5,-39.125,0
23710,19.25,-68.4375,-37.75,0
23730,9.1875,-66.0625,-34.5,0
23750,5.5,-65.3125,-27.625,0
23770,9.1875,-68.25,-25.1875,0
23790,8.9375,-66.125,-23.0625,0
23810,1.875,-64.75,-19.125,0
23830,-2.375,-60.75,-18.6875,0
23850,-2.6875,-54.75,-21,0
23870,0.25,-48.4375,-24.4375,0
23890,-5.5625,-44,-28.125,0
23910,-4,-39.5625,-30.0625,0
23930,-0.375,-36,-31.1875,0
23950,6.125,-31.625,-34.4375,0
23970,1,-27.375,-37.1875,0
23990,-3.375,-22.125,-40.8125,0
24010,-2.875,-17.9375,-43.8125,0
24030,-3.9375,-14.5,-44.375,0
24050,-2.25,-9.9375,-40,0
24070,-1.1875,-4.625,-34.0625,0
24090,-3.0625,-0.3125,-29,0
24110,-12.8125,2.75,-25.8125,0
24130,-7.1875,3.5,-19.6875,0
24150,5.375,1.625,-6.75,0
24170,7.6875,-0.375,4.875,2001
24180,-0.4375,-1.0625,5.1875,0
24200,-13,1.4375,-0.8125,0
24220,-9.625,3.1875,2.4375,0
24240,0.375,1.25,1.3125,0
24290,2.375,-1.4375,2.625,0
24300,12.5,-4.375,11.6875,0
24310,9.1875,2.25,24.6875,0
24310,5.6875,14.875,64.25,0
24330,33.125,87.5625,101.188,0
24350,42,89.75,99.875,0
24360,55.875,87.3125,98.5625,0
24370,70.0625,82.125,95.375,0
24390,73.25,74.4375,93.625,0
24410,69.5625,63.8125,86.25,0
24430,55.3125,40.75,44.75,0
24450,55.5,34.875,37.5,0
24460,58.125,30.8125,30.6875,0
24480,52.6875,30.9375,24.5625,0
24500,40.75,38,19.0625,0
24520,18.625,45.4375,17.5625,0
24540,7.8125,49.9375,19.1875,0
24560,10.3125,47,22.6875,0
24580,23.9375,42.25,22.25,0
24590,40.375,37.625,15.3125,0
24610,31.1875,30.3125,11.1875,0
24630,10,23.0625,8.4375,0
24650,3.4375,13.8125,3.5625,0
24680,13.625,-2,1.5,0
24700,11.75,-3.875,2.0625,2000
24730,-1.75,-1.75,-3.5,0
24750,5.0625,-2.8125,-0.875,0
24790,-12.8125,1.0625,1.375,0
24810,-14.8125,-0.25,3.375,0
24830,-9.5625,0.3125,5.625,0
24850,-3.5625,0.75,5.8125,0
24860,-8,1.5,4.5,0
24880,-3.0625,-2.625,1.25,0
24900,2.3125,-7.1875,-1.8125,0
24920,10.9375,-11.0625,-4.0625,0
24940,13.6875,-15.375,-8.3125,0
24960,10.1875,-18.9375,-10.125,0
24980,3.5625,-23.4375,-9.6875,0
25000,-2.5625,-27.5625,-6.75,0
25010,-1.4375,-31.8125,-5.375,0
25030,2.25,-35.4375,-7.1875,0
25050,3.625,-36.875,-10,0
25070,8.4375,-38.1875,-12.75,0
25090,11.75,-41.6875,-13.5625,0
25110,11.1875,-39.9375,-17.4375,0
25130,3.75,-37.125,-21.4375,0
25130,6.9375,-26.0625,-27.5625,0
25150,0.1875,-17.875,-32.125,0
25170,-6,-10.1875,-30.375,0
25190,-3.125,-5.5,-32.0625,0
25200,-1.0625,-6.25,-39.5625,0
25220,-15.625,-2,-41.4375,0
25240,-18.1875,2.125,-40.3125,0
25260,-16.1875,14.3125,-47.25,0
25280,-26.4375,18.9375,-50.625,0
25320,-31,31.0625,-51.1875,0
25340,-32.5,39.875,-55.8125,0
25350,-47.125,60.9375,-53.4375,0
25370,-48.9375,59.5625,-52.9375,0
25370,-41.625,47.625,-42.625,0
25390,-27.8125,45.1875,-31,0
25410,-24.375,46.5,-15.3125,0
25430,-32.625,45.125,-10.5,0
25470,-14.0625,37.5625,6.5625,0
25490,-0.375,36.3125,8.625,0
25510,1.75,31.9375,12.875,0
25530,-5.1875,27.75,14.5,0
25550,-12.375,24,17.5625,0
25570,-3.1875,16.25,20.125,0
25590,7.0625,11,22.5625,0
25610,12.875,8.1875,24.125,0
25630,5.125,8.5,25.4375,0
25650,0.3125,8.5,26.3125,0
25670,2.4375,4.5625,27.6875,0
25690,13,3.25,24.8125,0
25710,15.1875,1.9375,24.5625,0
25730,9,-1.625,33.1875,0
25750,4.5,-4.8125,36.3125,0
25770,10.4375,-7.25,34.6875,0
25790,17.8125,-8.75,38.25,0
25810,16.1875,-9.3125,37.75,0
25830,5.5625,-9.375,39.375,0
25840,0,-10.8125,42,0
25860,10.625,-12.375,40.5625,0
25880,22.4375,-13.8125,43.3125,0
25900,29.375,-13.25,45.5625,0
25920,22.125,-7.625,42.625,0
25940,12.125,-6.6875,36.5,0
25960,14.5625,-11.4375,30.625,0
25980,22,-17.4375,31,0
26020,27.8125,-26.625,32,0
26040,22.1875,-35.125,32,0
26090,10.9375,-43.5,31.375,0
26110,5.125,-49.25,33.0625,0
26130,0.0625,-58.25,38.75,0
26150,-8.5625,-65.9375,44,0
26170,-15.8125,-70.75,45.25,0
26190,-25.125,-72.75,42.1875,0
26210,-26.4375,-74.1875,33.5,0
26250,-1.75,-81.5625,20.125,0
26270,9.1875,-82.1875,14.9375,0
26290,11.5625,-79,10.8125,0
26310,5.75,-73.125,5.75,0
26330,4.125,-72.375,-2.4375,0
26340,8.1875,-76.3125,-4.3125,0
26360,21.375,-75.5,-4.5,0
26380,14.0625,-66.4375,-10.25,0
26400,-0.4375,-60.6875,-13,0
26420,1.6875,-57.125,-18.9375,0
26440,12.3125,-60,-21.3125,0
26460,14.4375,-61.3125,-19.5,0
26480,10.3125,-61.5,-18.75,0
26500,4.1875,-60.875,-22,0
26520,-1.1875,-58.75,-25.0625,0
26540,1.6875,-61.375,-30,0
26560,7,-56.0625,-40.875,0
26580,3.4375,-49.875,-52,0
26600,-10.5625,-41.5,-53.875,0
26620,-17.5,-36.6875,-48.625,0
26640,-13.25,-35.125,-45.375,0
26660,-3.5625,-26.375,-46.5625,0
26680,-24.3125,13.5,-59,0
26710,-48.9375,42.3125,-66.0625,0
26730,-53.5,50.875,-63.75,0
26770,-51.125,62.4375,-58.8125,0
26810,-63.875,69.3125,-54.875,0
26830,-64.5,69.75,-52.4375,0
26860,-50.75,65.5,-47.3125,0
26870,-48.5,64.0625,-42.25,0
26900,-45.1875,60.5625,-37.0625,0
26920,-39.125,54.3125,-33.375,0
26940,-38.5625,50.5625,-30.1875,0
26950,-35.4375,46.5625,-26.25,0
26970,-34.875,42.9375,-21.75,0
26990,-27.375,41.1875,-16.9375,0
27010,-16.8125,38.6875,-10.625,0
27030,-11.6875,37.25,-6.875,0
27050,-11.6875,38.75,-2.625,0
27070,-16.375,39.8125,-0.375,0
27090,-12,40.6875,3.9375,0
27110,1,41.375,10.9375,0
27130,7.625,38.875,15.1875,0
27150,7.3125,38.625,19.4375,0
27170,0.1875,36.875,16.6875,0
27190,4.625,30.4375,17.875,0
27210,19.5625,24.375,21.3125,0
27230,32.625,24.0625,23.0625,0
27260,9.5,30.9375,14.9375,0
27280,22.125,26.9375,15.3125,0
27300,38.375,20.5625,16.4375,0
27320,41.0625,19.5625,18.625,0
27340,27.0625,19.1875,24.8125,0
27360,13,18.6875,26.625,0
27380,17.875,14.5,28.625,0
27400,26.5,13.0625,35.3125,0
27410,30.375,14.0625,39,0
27430,22.75,15.1875,37.1875,0
27450,11.1875,15.25,35.75,0
27470,6.0625,11.1875,39.6875,0
27490,14.9375,8.5625,39.5,0
27510,18.6875,5.625,37.8125,0
27530,11.8125,1.125,37.25,0
27550,1.375,-3.0625,35.375,0
27570,2.375,-9.0625,38.1875,0
27590,3.4375,-14.4375,39.25,0
27610,10.8125,-19.0625,37.375,0
27630,7.8125,-22.6875,36.25,0
27650,6.1875,-25.75,32.5625,0
27670,2.3125,-29.9375,32.3125,0
27690,6,-35.1875,35.4375,0
27710,15.0625,-41,34.4375,0
27730,7.4375,-47.0625,36.125,0
27750,-7.0625,-49.8125,38.5,0
27780,-4.625,-57.5,35.125,0
27790,-3.1875,-58.625,35.375,0
27800,6.9375,-58.5625,30.4375,0
27820,13.375,-55.5,24.4375,0
27840,8.25,-58.1875,20.9375,0
27860,-5.75,-66.5625,20.8125,0
27880,1.625,-69.125,19,0
27900,15.5625,-66.0625,15.625,0
27920,12.9375,-65.375,16.125,0
27940,1.6875,-65.75,15.1875,0
27960,1.8125,-66.375,11.5625,0
27980,8.375,-64.5625,4.125,0
28000,5.5,-62.375,4.9375,0
28020,12,-60.4375,6.3125,0
28040,7.875,-61.75,-0.125,0
28060,0.5625,-64.125,-5.875,0
28080,-1.4375,-59.1875,-11.5625,0
28100,1.75,-53.25,-16.9375,0
28120,-0.5,-49.375,-23.5625,0
28140,2.6875,-46.875,-30.125,0
28160,3,-44.75,-35.5,0
28180,0.375,-42.5,-36.5,0
28200,-3.875,-39.25,-39.375,0
28220,-12.5,-35.75,-42.125,0
28240,-14.3125,-30,-43.375,0
28260,-6.8125,-25.5,-50.4375,0
28280,-8.5625,-22.625,-54.625,0
28300,-16.4375,-12.25,-51,0
28320,-21.0625,-5.8125,-54.5,0
28340,-29.6875,-0.1875,-59.8125,0
28360,-28.875,-4,-60.125,0
28390,-31.375,9.9375,-57.4375,0
28410,-47.625,12.6875,-59.0625,0
28430,-48.3125,16.375,-60.5625,0
28450,-41.4375,18.5,-57.9375,0
28470,-39.875,21.0625,-52.25,0
28490,-42.0625,23.5625,-48.8125,0
28510,-44,27,-48.25,0
28530,-43.875,24.9375,-47.8125,0
28540,-42.9375,20.125,-52.125,0
28570,-46.4375,23,-48.3125,0
28590,-42.375,22.125,-43.625,0
28610,-36.6875,22.75,-37.5625,0
28630,-33.125,26.125,-30.4375,0
28650,-34.625,28.875,-22.625,0
28670,-34.5,32.3125,-15.25,0
28690,-31.1875,38.5,-8.6875,0
28710,-24.6875,42.1875,-2.9375,0
28730,-13.625,46.0625,5.875,0
28750,-7,49.125,14.375,0
28770,-7.5625,48.9375,19.6875,0
28790,-8.625,47.625,26.0625,0
28810,-10.6875,47.5,31.625,0
28830,-5.625,48.25,34.375,0
28850,-1.3125,48.875,34.9375,0
28890,-7.1875,47.75,36.9375,0
28910,-2.6875,45.25,36.1875,0
28930,5.5,42.0625,32.6875,0
28950,6.25,40.8125,27.625,0
28970,-7,39.4375,25.4375,0
28990,6.0625,26,26.5625,0
29010,5.375,25.375,27.375,0
29030,-8.375,16.125,30.5,0
29050,-5.125,12.5,32.1875,0
29070,-8.875,12.9375,31.1875,0
29090,-21.5,12.0625,31.8125,0
29110,-21.6875,7.4375,33.3125,0
29130,-12.8125,3,32.5625,0
29150,-2.625,3.125,31.0625,0
29170,-6.375,4.1875,29.0625,0
29190,-12.5,4.9375,25.1875,0
29210,-13.5,6.625,26.6875,0
29230,1.1875,6.875,25,0
29250,12.375,9.4375,23.5,0
29270,18.125,12.9375,23.25,0
29290,20.8125,9.375,24.5,0
29310,24.9375,9.625,25.9375,0
29330,21.9375,11.375,28.3125,0
29350,18.25,9.6875,30.625,0
29370,10.125,5.375,32.875,0
29390,0.125,1.3125,38.25,0
29410,-7.375,-1.375,41.1875,0
29430,-12.0625,-4.9375,41.0625,0
29450,-16.125,-8.875,41.25,0
29470,-17,-12.125,45.0625,0
29490,-26.125,-14.6875,48,0
29510,-33.8125,-15.375,48.4375,0
29530,-26,-18,44.8125,0
29550,-28.875,-22.1875,38,0
29570,-30.8125,-24.875,35.375,0
29590,-26.1875,-25.5,30.4375,0
29610,-16.5,-29.875,21.3125,0
29630,-17.4375,-34.4375,18.3125,0
29650,-10.375,-35.875,17.1875,0
29670,-7.375,-41.5,14.125,0
29690,-4.6875,-44.1875,11.75,0
29710,-3.5625,-47.5,8.8125,0
29730,-3.6875,-51.375,5.125,0
29750,-9.375,-55.25,3.375,0
29770,-11.5625,-58.9375,1.25,0
29790,-4.25,-63.1875,-0.625,0
29810,3.5625,-71.8125,-3.375,0
29830,-1.9375,-74.5,-4.5,0
29850,-7.75,-74.375,-7.625,0
29870,-14.875,-77.5,-10.8125,0
29890,-20.25,-77.9375,-13.375,0
29910,-16.75,-74.3125,-14.25,0
29930,-11.8125,-71.5625,-18.75,0
29930,-11.625,-69.0625,-26.125,0
29950,-13.0625,-66.3125,-31.4375,0
29970,-10.75,-60.6875,-30.3125,0
29990,-8.75,-55.125,-27.625,0
30010,-2.125,-51.5625,-26.5,0
30030,0.1875,-46.375,-27.5625,0
30050,-1.125,-42.375,-31.1875,0
30070,-4.8125,-36.9375,-31.3125,0
30090,-8.3125,-29.1875,-33.0625,0
30110,-5.5625,-26.0625,-35.75,0
30130,-3.1875,-23.8125,-35.625,0
30150,-5.125,-19,-36.25,0
30170,-10.5,-15.375,-29.625,0
30190,-9,-7.75,-21.3125,0
30210,-6,-3.6875,-18.5,0
30230,-1.1875,-4.625,-13.1875,0
30250,8.5,-4.375,-7.4375,0
30270,9.375,-3.9375,-3.4375,2001
30290,3.125,-0.1875,-1.8125,0
30310,-11.875,-1.3125,-2.625,0
30330,-6,-2.25,-1.5625,0
30350,6.375,-0.1875,2.125,0
30370,12.75,1,3.375,0
30390,11.0625,0.5,-0.3125,0
30410,2.9375,0.0625,-0.5625,0
30430,4.6875,-0.3125,-0.25,0
30450,5.625,1.3125,-1.6875,0
30470,5.6875,1.5625,-2.4375,0
30490,6.4375,2.6875,-1.5625,0
30510,6.1875,7.1875,0.75,0
30530,3.9375,12.125,5.5,0
30550,-2.5625,15.9375,15.6875,0
30570,1.375,21.25,27.125,0
30590,10.6875,30.25,36.3125,0
30610,15,37.4375,44.625,0
30630,15.1875,43.1875,52.8125,0
30650,19.1875,52.25,58,0
30670,28.4375,64.75,58.1875,0
30690,32.4375,75.875,60.6875,0
30710,47.3125,82.5,61.875,0
30730,65.6875,87.3125,56.0625,0
30750,74.75,95.6875,53.5625,0
30770,81,96.4375,57.0625,0
30780,84.5625,90.1875,60.75,0
30800,76.125,91.0625,64.4375,0
30820,75.4375,95.5,70.125,0
30840,79.0625,89.8125,76.75,0
30860,62.875,81.5,82.125,0
30880,50.8125,72.5625,80.6875,0
30900,42.75,55.4375,70.5625,0
30920,24.0625,43.9375,63.9375,0
30940,7.125,38.5625,54.1875,0
30960,-22.4375,27,24.625,0
30980,-21.9375,24.625,17.6875,0
31000,8.5625,7.4375,4.3125,0
31030,3.6875,1.125,-2.8125,0
31060,3.5625,-0.1875,3.0625,2000
31080,-3.375,2.4375,3.8125,0
31110,-7.875,-0.5,6.375,0
31130,3.6875,-0.3125,0.8125,0
31150,6.75,-8.125,3.1875,0
31170,3.125,-10.875,3.875,0
31190,6.1875,-12.875,2.6875,0
31200,12.4375,-32.625,-6.9375,0
31200,8.1875,-34.6875,-4.625,0
31240,0,-20.1875,-14.8125,0
31250,-12.125,-17.4375,-25.5,0
31270,-18.25,-10.875,-24.375,0
31290,-10.5,-3.4375,-34.625,0
31310,-27.3125,6.875,-39.9375,0
31330,-29.4375,17.75,-38.5625,0
31350,-27.625,26.4375,-45.0625,0
31370,-30.75,30.0625,-51.9375,0
31390,-37.125,33.625,-54.75,0
31410,-40.0625,41.3125,-55.4375,0
31430,-40.3125,51.75,-58.75,0
31450,-47.75,57.25,-62.875,0
31510,-41.0625,30.375,-23.875,0
31530,-34.8125,25.6875,-18.625,0
31550,-28.5625,20.5,-13.9375,0
31570,-23.8125,20.8125,-10.5,0
31590,-20.8125,25.8125,-6.1875,0
31610,-22.0625,28.9375,-2.4375,0
31630,-23.5,29.625,1.625,0
31650,-17.625,28.875,2.125,0
31670,-7.5625,31.0625,2.1875,0
31690,-1.5,32.1875,2.3125,0
31710,-0.3125,29.75,2.4375,0
31750,-8.125,25.1875,6.625,0
31770,3.5625,20.25,10.6875,0
31790,8.875,15.25,13.125,0
31810,11.625,17.0625,11.375,0
31830,13.125,15.875,6.5,0
31850,12.125,13.4375,9,0
31870,9.875,12.3125,12.1875,0
31890,5.5,10.375,15.8125,0
31910,3,6.8125,21.125,0
31930,12.25,4.375,27.3125,0
31950,14.8125,2.625,29.875,0
31990,-0.875,-10.625,34.5625,0
32010,12.25,-16.1875,36.125,0
32020,16.3125,-18.4375,33.5,0
32030,12.25,-18.5625,32.6875,0
32050,6.25,-17.8125,30.5,0
32060,23.6875,-24.4375,31.75,0
32080,22.1875,-23.4375,33.4375,0
32090,12.5,-24.25,28.625,0
32130,27.625,-28.8125,24.3125,0
32140,18.9375,-29.75,23.8125,0
32170,2.25,-37,33.75,0
32180,3.1875,-41.1875,34.625,0
32190,2.25,-45.25,36.3125,0
32210,-4.0625,-49.875,40.6875,0
32230,-27.125,-52.5625,40.5,0
32250,-25.75,-52.5625,35.125,0
32270,-13.1875,-53.9375,30.625,0
32290,-0.125,-53.5,23.4375,0
32310,1.8125,-52.9375,16.125,0
32330,-5.375,-53.375,10.6875,0
32350,-5.5,-52.4375,7.75,0
32370,4.6875,-52.5625,3.125,0
32390,13.375,-54.6875,-0.8125,0
32410,17.0625,-55.0625,-2.1875,0
32430,13.5625,-52.125,-4.3125,0
32450,9.25,-51.5,-7.0625,0
32470,2.1875,-51.375,-7.4375,0
32490,4.75,-50.5,-7.125,0
32510,10.625,-47.6875,-7.8125,0
32530,11.3125,-44.1875,-10.75,0
32550,7.75,-43.625,-12.75,0
32570,5.75,-40.3125,-14.5625,0
32590,8,-35.125,-20.25,0
32610,4,-33.6875,-23.375,0
32630,-6.25,-34.25,-23.3125,0
32650,-2.6875,-29,-24.3125,0
32670,6.0625,-24.9375,-30.625,0
32690,3.9375,-20.1875,-36.4375,0
32710,-0.0625,-20.8125,-36.3125,0
32730,-3.3125,-17.125,-33.5,0
32760,-2.75,-7.6875,-43.375,0
32780,-11.375,-2.25,-46.625,0
32800,-16.9375,0.4375,-44.875,0
32820,-13.4375,3.625,-43.125,0
32840,-11.4375,9.875,-47,0
32860,-19.5,18.1875,-50.125,0
32880,-29.125,21.8125,-48.3125,0
32890,-30.875,25,-46.375,0
32910,-27.5,30.875,-47.8125,0
32930,-31.5625,38.1875,-51.4375,0
32950,-44.3125,41.125,-50.875,0
32970,-47.5625,43.125,-47.5625,0
32990,-44,47.375,-47.875,0
33010,-47.0625,51.875,-48.875,0
33030,-52.3125,51.75,-46.3125,0
33050,-48.4375,50.25,-44.5,0
33070,-43.25,49.625,-46.125,0
33090,-45.25,47.625,-45.1875,0
33110,-44.875,44.3125,-42.625,0
33130,-44.4375,40.625,-38.8125,0
33150,-43.1875,37.75,-30.5,0
33170,-38.6875,35.5625,-21.5625,0
33190,-41,33.5,-12.75,0
33210,-39.875,33.4375,-10.6875,0
33230,-36.9375,33.8125,-11,0
33250,-29.5,32.75,-5.1875,0
33270,-22.8125,32.0625,-0.6875,0
33290,-21.5,36.9375,2.875,0
33310,-21.4375,39.25,3.5625,0
33330,-23.8125,39.9375,4.4375,0
33350,-22.5,42,11.0625,0
33370,-11.6875,46,16,0
33390,-10.625,50,13.5625,0
33410,-14.8125,50.0625,12,0
33430,-11.3125,46.625,14.9375,0
33450,-10.4375,45.9375,17.8125,0
33470,1.625,41.3125,18.375,0
33490,1.8125,36.5,20.3125,0
33510,-1.9375,28.0625,16.8125,0
33530,-9.125,23.125,17.3125,0
33560,-2.25,19,18.25,0
33590,3.9375,15.1875,20.5625,0
33610,6.5625,12.125,24.25,0
33640,3.875,1.1875,27.25,0
33650,5.875,-15.8125,36.6875,0
33660,9.3125,-17.6875,32.5625,0
33680,8.0625,-16.5,32.9375,0
33690,12.375,-16.625,36.8125,0
33710,13.375,-19.75,36.875,0
33730,13.4375,-24.9375,37.5,0
33750,16,-30.375,37.0625,0
33770,18.5,-29.75,35.8125,0
33790,17.0625,-28.875,31.4375,0
33810,13.125,-27.875,28.875,0
33830,8.125,-28.6875,28.3125,0
33850,4.25,-26.375,30.25,0
33870,5.125,-25.6875,32.3125,0
33890,5.75,-26.625,33.75,0
33910,3.1875,-25.75,32.1875,0
33930,2.0625,-25.9375,28.8125,0
33950,3.9375,-30,28.6875,0
33960,-6.25,-34.5,29.1875,0
33970,-7.0625,-39.5,28.3125,0
33990,-3.3125,-39.25,25.4375,0
34020,1.375,-50.6875,8.625,0
34040,1.3125,-55.9375,6.375,0
34060,-5.875,-59.8125,5.9375,0
34080,-10.125,-60.25,4.375,0
34100,-5.9375,-59.3125,0.1875,0
34120,-4.0625,-59.3125,-6.9375,0
34140,4.375,-58.5625,-20,0
34160,7.75,-57.8125,-23.875,0
34180,4.375,-58.1875,-22.8125,0
34200,3.125,-58.25,-25.25,0
34220,3.1875,-56.4375,-26.3125,0
34240,-0.25,-52.875,-25,0
34260,0.8125,-51.125,-25.25,0
34280,1,-48.5625,-27.3125,0
34300,-1.25,-46.0625,-27.875,0
34320,-1.25,-43.8125,-25.875,0
34340,-1.0625,-43.5625,-25.6875,0
34360,-3.125,-40.125,-25.25,0
34380,-1.5625,-38.0625,-26.375,0
34400,-4.5625,-35.5,-25.25,0
34420,-7.1875,-29.6875,-21.875,0
34440,-7.625,-23.8125,-19.4375,0
34460,-3.875,-19.5625,-16.3125,0
34480,-4.625,-14.875,-12.8125,0
34500,-6.25,-9.75,-15.5625,0
34520,-16.5,-5.1875,-17.25,0
34540,-16.375,-2.875,-21.875,0
34560,-10.1875,-0.0625,-28.5625,0
34590,-25.4375,8.5625,-34.5625,0
34600,-20.5625,10.8125,-36.375,0
34640,-28.1875,10.0625,-34.5625,0
34660,-31.3125,12.625,-31.0625,0
34670,-31.1875,14.75,-26.8125,0
34690,-28.3125,15.75,-25.5625,0
34700,-32.1875,21.875,-27.4375,0
34720,-33,20.9375,-25.1875,0
34740,-29.9375,23.6875,-24.625,0
34760,-23.25,26.8125,-26.5625,0
34780,-22.375,26.5,-29.875,0
34800,-25.4375,29,-31.5,0
34820,-26.25,31.25,-28.25,0
34840,-23.875,33.25,-26.125,0
34860,-24.3125,37.1875,-26.75,0
34870,-18.6875,37.625,-25.25,0
34890,-26.9375,45.9375,-19.3125,0
34900,-28.75,49.5,-10.6875,0
34910,-12.0625,59.25,19.3125,0
34920,-20.625,58.9375,22.1875,0
34920,-22.875,56.5,26.0625,0
34940,-11.8125,54.25,31.5625,0
34960,-8.875,54.3125,37.0625,0
34980,-14.25,53.375,39.375,0
35000,-22.0625,47.875,40.75,0
35020,-17.4375,43.3125,39.875,0
35040,-13.625,42.6875,37.5,0
35060,-11.4375,43.8125,34.8125,0
35080,-19.5,39.8125,33.625,0
35100,-15.8125,29.625,36.875,0
35120,0.0625,20.125,35.25,0
35140,3.625,12.5,29.4375,0
35160,-8.25,4.5,26.8125,0
35180,-18.25,-5.125,29.6875,0
35200,-5.25,-13.375,30.5625,0
35220,1.875,-18.5625,28.1875,0
35240,4.5625,-21.1875,29,0
35260,-1.6875,-26.75,28.375,0
35280,-0.9375,-29.0625,29,0
35300,2.5625,-36.0625,29.375,0
35320,0.25,-37.625,30.75,0
35340,-2.9375,-37.5,31.625,0
35360,-0.0625,-38.0625,30.5625,0
35380,-0.3125,-40.125,31.6875,0
35400,-1.5,-39.0625,30.6875,0
35420,-1.8125,-38.75,29.8125,0
35440,-6.125,-40.75,28.875,0
35460,-15.5625,-42.75,30.0625,0
35480,-11.5625,-43.125,28.6875,0
35500,-8.1875,-44.9375,24.4375,0
35520,-13.3125,-43.6875,20.5,0
35540,-6.3125,-42.5625,16.4375,0
35560,2.25,-43.8125,11.1875,0
35580,4.75,-45,5.875,0
35580,-2.75,-45.875,3.5,0
35600,-1.1875,-46.3125,0.125,0
35620,7.0625,-50.375,-4.6875,0
35640,4.8125,-53.6875,-6.5625,0
35660,3.125,-55.0625,-7.5625,0
35680,4.25,-57.125,-10.75,0
35700,0.125,-59.75,-14.625,0
35720,1.125,-63.8125,-17.9375,0
35740,4.1875,-65,-20.5625,0
35760,0.75,-64.9375,-17.875,0
35780,-8.625,-64,-14.9375,0
35800,-19.9375,-59.4375,-9.4375,0
35820,-22.25,-55.1875,-6.875,0
35840,-18.5625,-57.8125,-5.6875,0
35860,-12.8125,-58.3125,-8.1875,0
35880,-7.875,-55.5625,-12.25,0
35900,-5.9375,-52.4375,-19.0625,0
35920,-2.875,-45.4375,-25.0625,0
35940,5.375,-41.0625,-27.875,0
35960,9.3125,-38.5625,-36.375,0
35980,3.25,-33.8125,-39.1875,0
36000,1.0625,-27.5625,-37.5625,0
36020,2.875,-23.0625,-37.8125,0
36040,-1.0625,-19.8125,-36.4375,0
36060,-1.0625,-15.75,-30.25,0
36080,-2,-10.3125,-24.0625,0
36100,-5.25,-6.875,-23.0625,0
36120,-10.75,-4.3125,-20.125,0
36140,-15.1875,0.125,-14.875,0
36160,-6.5,3.9375,-12.8125,0
36180,-6,7,-10.75,0
36200,-4.5625,5.6875,-9.8125,2001
36220,-6.5625,4.75,-4.5,0
36240,-3.25,6.375,-1.5625,0
36260,-0.75,5.9375,-2.1875,0
36280,-5.6875,3.375,-1.25,0
36300,-2.9375,0.5,0.375,0
36320,-1.375,-0.6875,2.25,0
36340,0,-0.5625,5,0
36360,0.625,1.6875,7.375,0
36380,-3.5,4.375,9.0625,0
36400,0.5625,9.4375,9,0
36420,14.6875,11.1875,12.375,0
36440,19.375,10.0625,19.25,0
36460,23.1875,10.5,23.6875,0
36490,38.4375,32.5625,37.6875,0
36520,57.0625,47.1875,56.75,0
36550,71.6875,77.6875,63.9375,0
36570,69.9375,78.25,57,0
36590,70.3125,74.4375,52.0625,0
36610,56.875,72.9375,48.375,0
36630,48.125,75.4375,35.5,0
36650,34.5,70.8125,25.3125,0
36670,15.25,63.1875,26.375,0
36690,15.3125,56.875,30.375,0
36710,16.5625,54.3125,32.75,0
36730,12.6875,57.4375,29.5,0
36750,2.6875,55.3125,21.9375,0
36770,-12.125,48.6875,20.8125,0
36790,-17.875,43.0625,24.375,0
36810,-3.4375,35.75,25.1875,0
36830,10.5625,31.9375,20.4375,0
36850,8.8125,25.5,16.4375,0
36870,0,20,10.9375,0
36890,-7.0625,16.8125,6.375,0
36910,-1.5,12.1875,5.6875,0
36930,11.5,7.6875,4.25,0
36950,9.8125,7.5,5.875,0
36970,2.3125,10.5625,5.5,0
37010,-1.75,8.9375,9.9375,0
37030,5,8.5,10.8125,0
37050,5.1875,6.25,8.1875,2000
37070,3.5,5,6.5,0
37090,-0.5,4.1875,4.1875,0
37110,2.25,2.9375,3.0625,0
37130,1.0625,-1.5,1.8125,0
37140,9.75,-12.125,-4.4375,0
37160,1.9375,-11.0625,-7.1875,0
37180,-6.0625,-13.9375,-7.25,0
37200,-7.5625,-21.5625,-9.125,0
37230,9.3125,-34.5625,-18.125,0
37250,10.1875,-39,-19.25,0
37270,3.0625,-43.0625,-16.125,0
37290,0.125,-42.8125,-14.625,0
37310,2.8125,-43.625,-13.5,0
37340,8.5,-48.125,-9.875,0
37350,-6.25,-28.8125,-15.9375,0
37360,2.625,-23.5625,-15.0625,0
37380,-2.3125,-19.375,-23.3125,0
37390,-10.3125,-16,-27.4375,0
37410,-12.9375,-11.5625,-24.625,0
37430,-9.6875,-9.1875,-21.125,0
37450,0.5625,-6.875,-21.6875,0
37470,3.375,-3.125,-26.9375,0
37490,-7.5625,2.125,-30.125,0
37510,-21.25,5.125,-31.75,0
37530,-25.6875,6.5,-29.6875,0
37550,-20.1875,12.625,-25.9375,0
37570,-11.125,18.875,-25.4375,0
37590,-17.1875,25.75,-33.1875,0
37610,-24.875,31.0625,-38.4375,0
37620,-37.9375,38.9375,-39.8125,0
37640,-31.75,44.9375,-40.5625,0
37660,-45.5625,54.5,-43.75,0
37690,-43.75,61.0625,-43.625,0
37710,-43.9375,63.6875,-43.1875,0
37720,-47.875,64.4375,-42.8125,0
37730,-45.75,63.625,-43.3125,0
37750,-47.625,58,-43.5,0
37770,-38.75,51,-46.8125,0
37790,-34.625,44.1875,-41.3125,0
37810,-29.625,38,-31,0
37830,-38.4375,36.5625,-10.875,0
37860,-16.8125,25.6875,1.5625,0
37870,-10.9375,23.8125,5.375,0
37890,-11.3125,19.75,9.4375,0
37910,-12.6875,18.25,9.8125,0
37930,-8.875,17.3125,7.9375,0
37950,-3.375,14.5,10,0
37970,-1.5,14.25,15.125,0
37990,-6.75,14.875,15.9375,0
38010,-5.75,13.6875,17.1875,0
38030,2.125,12.3125,19,0
38050,17.0625,10.875,18.5625,0
38070,22.75,8,21.375,0
38090,17.875,6.625,25.3125,0
38110,9.9375,5.375,29.1875,0
38130,8.3125,3.625,30.6875,0
38150,14.5,0.3125,30.875,0
38170,22.1875,-1.3125,33.625,0
38190,27.25,-3.5625,35.6875,0
38210,25.3125,-12.3125,29.125,0
38230,34.8125,-19.9375,26.9375,0
38250,45,-29.3125,25.125,0
38270,42.375,-35.6875,27.4375,0
38290,32.6875,-36.75,29.125,0
38310,26.8125,-39.6875,28.5625,0
38330,29,-45.1875,31.3125,0
38340,30.875,-46.125,34.125,0
38360,28.5625,-43.125,32.75,0
38380,29.75,-45.5,28.8125,0
38400,30.875,-50.5,29.5625,0
38410,32.3125,-55,30.3125,0
38430,24.1875,-53.125,29.3125,0
38450,17.6875,-52.8125,28.6875,0
38470,16.0625,-53.9375,29.0625,0
38490,15.0625,-56.4375,32.5,0
38510,8.5,-58,30.875,0
38530,9.1875,-59.8125,28.375,0
38560,10.9375,-57.875,18.625,0
38580,6.375,-56.25,15.625,0
38600,9.1875,-56.125,11.375,0
38620,20.0625,-56.875,7.0625,0
38640,21.75,-59.5,0.5,0
38660,14.625,-57.125,-4.9375,0
38680,13.3125,-52.1875,-12.0625,0
38700,16.6875,-52.1875,-16.8125,0
38720,21.6875,-56.6875,-17.1875,0
38740,18.6875,-54,-18.5625,0
38750,8.5625,-45.75,-21.0625,0
38770,4.1875,-42.6875,-24.125,0
38790,6.3125,-33.1875,-27.5625,0
38800,5.8125,-23.8125,-31.9375,0
38820,-0.9375,-20.3125,-36.125,0
38840,-4.0625,-18.1875,-38.8125,0
38860,-5.375,-14,-44.5625,0
38880,-7.9375,-9.5625,-49.625,0
38900,-15.6875,-4.5,-54.5,0
38920,-21.0625,1.4375,-59.5,0
38970,-46.4375,49.8125,-83.6875,0
38990,-47.1875,50.0625,-79.1875,0
39010,-49.375,48.25,-73.3125,0
39030,-51.125,51.0625,-65,0
39050,-57.625,54.9375,-60.9375,0
39070,-62,54.8125,-56.4375,0
39090,-64.5625,53.75,-50.4375,0
39110,-61.625,49.1875,-45.4375,0
39130,-53.4375,44.125,-38.3125,0
39150,-48.8125,42.25,-35.625,0
39170,-48.125,39.3125,-32.5625,0
39190,-45.6875,37.8125,-28.375,0
39210,-35.8125,35.375,-22.625,0
39230,-33.0625,33.8125,-18.25,0
39250,-34.1875,35.0625,-13.75,0
39270,-34.625,39.8125,-7.625,0
39290,-34.8125,45.5625,4.1875,0
39310,-25.0625,46.875,10.875,0
39330,-19.0625,43.9375,9.875,0
39350,-17.3125,39.1875,9.9375,0
39370,-19.6875,36.25,16.0625,0
39390,-21.6875,36.625,19.25,0
39410,-15.125,34.8125,22.375,0
39430,-2.125,26.5625,26,0
39450,-0.1875,21.625,23.75,0
39470,-10.875,21.5,23.375,0
39490,-16.375,20,27.75,0
39510,-1.8125,15.875,32,0
39530,11.8125,13.5625,33.4375,0
39550,13.0625,12.625,33.5625,0
39570,1.3125,11.4375,36.375,0
39590,-9.875,13.125,40.75,0
39610,-3.8125,11.75,47.3125,0
39630,7.0625,6.875,50.25,0
39650,3.9375,3.6875,50.375,0
39690,-2.8125,2.625,46.375,0
39710,-1.125,-0.375,41.5625,0
39730,-2.5625,-13.625,40.5625,0
39740,9.75,-14.9375,37.6875,0
39760,15.375,-17,34.0625,0
39780,11.4375,-22.125,33.0625,0
39800,4.8125,-26.6875,35,0
39820,9.1875,-29,35.125,0
39840,14.1875,-31.6875,31.0625,0
39860,17.8125,-35.0625,27,0
39880,14.875,-38.6875,25.5625,0
39900,9.6875,-44.5625,25,0
39920,2.1875,-49.4375,26.3125,0
39940,-5.25,-55.5,29.5,0
39960,-5.1875,-52.75,28.25,0
39980,-7.375,-58.75,23.8125,0
40020,-8.625,-71.25,21.125,0
40030,-14.875,-69.875,22.3125,0
40080,-17.3125,-71.375,11.625,0
40100,-11.6875,-72.75,7.875,0
40120,-6.3125,-72.875,4.1875,0
40140,-4.625,-73.75,-0.8125,0
40160,0,-73.375,-7,0
40180,8.75,-73.125,-15.25,0
40200,10.6875,-72.25,-24.375,0
40220,5.875,-69.4375,-29.125,0
40240,8.6875,-64.125,-33.75,0
40260,6.5625,-59.5,-38.9375,0
40280,4.6875,-52.9375,-39.0625,0
40300,5.125,-47.75,-43.0625,0
40320,-5.8125,-41.875,-44,0
40340,-4.1875,-31.8125,-38.8125,0
40360,-8.5625,-21.75,-37.8125,0
40380,-14.1875,-15.125,-38.9375,0
40400,-19.5625,-8.8125,-35.6875,0
40440,-14.25,0.75,-36.625,0
40460,-14.6875,4.8125,-41.75,0
40480,-21.25,7.8125,-46.75,0
40500,-28.5625,9.1875,-47.1875,0
40520,-28.4375,11.75,-48.625,0
40540,-23.8125,14.1875,-51.125,0
40560,-30.75,17.1875,-52.4375,0
40590,-47.875,31.25,-54.4375,0
40620,-40.875,46.5625,-51.75,0
40640,-42,48,-51,0
40660,-45.5625,47.0625,-47.8125,0
40680,-43.5,46.875,-48.5,0
40700,-43.0625,46.5,-47.5,0
40720,-44.5625,42.75,-42.1875,0
40740,-46.75,39.625,-36.875,0
40760,-51.5625,36.1875,-27.9375,0
40780,-55,33.9375,-16.1875,0
40800,-56.9375,43.1875,-6.0625,0
40840,-46.6875,58.875,8.9375,0
40850,-40.0625,60.0625,19.875,0
40870,-34.375,65.3125,24.1875,0
40890,-31.375,67.9375,24.6875,0
40910,-33.9375,67.625,29.125,0
40930,-29,63.3125,37.75,0
40950,-25.75,59.5625,40.9375,0
40970,-15.9375,56.875,40.0625,0
40990,-21.375,54.875,37.4375,0
41010,-32.9375,49.875,41.375,0
41030,-27.875,43.125,43.9375,0
41050,-12.625,37,42.8125,0
41070,-10.3125,31.1875,40.9375,0
41090,-16.9375,27.375,39.4375,0
41110,-18.3125,22.625,37.25,0
41130,-8.125,19.1875,38.25,0
41150,4.4375,15.25,39.875,0
41170,8.75,10.9375,40.4375,0
41190,-6.9375,6.875,41.0625,0
41210,-15.6875,0.5,43.5,0
41230,-13.1875,-3.625,40.625,0
41250,-4.875,-7.6875,40.375,0
41270,-2.4375,-11.25,39.8125,0
41290,-5.9375,-13.875,39.125,0
41310,-4.1875,-17.375,36.5625,0
41330,3.9375,-20.8125,35.75,0
41350,-0.125,-28.8125,32.0625,0
41370,-2.5,-30.25,34.0625,0
41390,1.6875,-33.0625,31.9375,0
41410,6.75,-35.125,29.6875,0
41430,10.625,-35.5,29.5625,0
41450,5.125,-38.375,27.875,0
41470,0.4375,-41.0625,24.375,0
41490,2.4375,-38.9375,24.0625,0
41510,5.3125,-43.75,22.25,0
41530,1.5,-46.375,20.375,0
41550,-1.5625,-47.25,19.5625,0
41570,-0.5625,-51,14.75,0
41590,-1.4375,-55.0625,11.5,0
41610,-2.25,-61.3125,13,0
41630,-7.75,-63.625,11.875,0
41650,-7.3125,-63.5625,7.75,0
41670,-15.3125,-65,-0.1875,0
41690,-16.75,-65.4375,-9.3125,0
41710,-2.0625,-66.8125,-13.5,0
41730,4.75,-66.5625,-14.875,0
41800,2.3125,-57.75,-23.5,0
41820,-9.5,-55.875,-24.0625,0
41840,-8.9375,-53.5625,-26.5625,0
41880,-2.1875,-39.375,-31.5,0
41900,-1.4375,-36.125,-34.875,0
41920,3.4375,-30.375,-36.4375,0
41940,10.0625,-27.5625,-38.0625,0
41960,3.875,-27.875,-38,0
41980,-0.9375,-27.1875,-34.875,0
42000,-0.4375,-22.875,-37.4375,0
42020,4.6875,-18.6875,-37.875,0
42040,-0.8125,-14.75,-33.0625,0
42060,-9.9375,-9.125,-31.6875,0
42080,-17.6875,-4.875,-25.375,0
42100,-15.8125,-5.625,-15.0625,0
42120,-7.0625,-3.4375,-7.0625,0
42140,-0.4375,-2.4375,-1.375,0
42160,4.875,-1.5,0.375,0
42180,-3.625,1,3.375,2001
42200,-11.0625,1.375,4.875,0
42220,-7.8125,2.625,1.8125,0
42240,-3.25,4.625,0.125,0
42260,3.4375,5.4375,-3.5,0
42280,6.9375,-2.0625,-4,0
42300,3.9375,-3.625,4.5625,0
42320,6,1.875,4.9375,0
42340,1.6875,2.1875,-2.3125,0
42360,4,2.125,4.5625,0
42380,12.6875,0.625,11.375,0
42400,21.4375,6.625,15.6875,0
42420,20.4375,14.25,22.5,0
42440,13,31.1875,57.375,0
42450,13.5,40.9375,79.9375,0
42480,52.1875,59.25,88,0
42510,48.75,42.1875,69.25,0
42530,46.625,35.8125,58.0625,0
42560,52,15,14.4375,0
42580,45.625,13.1875,14.375,0
42600,40.875,14.4375,17.1875,0
42640,27.3125,14.8125,24.75,0
42660,21.5625,11.5,16.0625,0
42690,22.0625,6.5625,13.375,0
42710,29.75,2.0625,10.75,0
42740,29.25,-8.1875,2.375,0
42770,11.4375,-11,3.1875,0
42790,12.625,-7.25,2.75,0
42810,13,-2.9375,1.5,0
42820,12.0625,1.125,0.4375,0
42840,2.3125,3.375,1.8125,0
42870,-8.9375,7.4375,4.0625,2000
42890,-1.5,5.375,4.1875,0
42900,8.3125,2.0625,5.875,0
42920,-7.25,1.625,1.3125,0
42940,2.125,-3.3125,-0.1875,0
42960,15.375,-9.1875,-2.4375,0
43010,2.9375,-35.6875,-0.5,0
43030,17.3125,-35.9375,-2.4375,0
43050,15.9375,-36.8125,-3.9375,0
43070,8.0625,-31.875,-9.9375,0
43090,3.875,-29.125,-12.25,0
43120,0.5,-11.625,-22.1875,0
43130,0.875,-6.125,-31.4375,0
43150,-5.3125,-1.1875,-32.75,0
43170,-6.0625,1.375,-35.9375,0
43190,-8.6875,1.75,-44.625,0
43210,-13.4375,3.875,-51.5625,0
43230,-23.0625,9.125,-49.0625,0
43250,-27.25,13.375,-46.3125,0
43270,-26.5625,17.3125,-51.625,0
43290,-31.6875,19.5,-55.125,0
43310,-40.0625,23.4375,-56.9375,0
43350,-57.5625,56.4375,-55.25,0
43360,-62.5625,63,-39.5,0
43380,-41.0625,43.1875,-23.1875,0
43400,-43.1875,39.375,-19.5,0
43420,-49.75,37.125,-13.875,0
43450,-32.3125,21.9375,-4.625,0
43490,-15.25,8.375,10.625,0
43510,-14.1875,10.875,12.6875,0
43530,-9.25,9.4375,14.3125,0
43550,-6.3125,8.5625,13.125,0
43570,-3.4375,12.0625,13.6875,0
43590,-5.9375,16.3125,17.75,0
43610,-3.875,15.5,18.25,0
43630,-0.0625,13.4375,20.125,0
43650,10.75,13.125,24.0625,0
43670,12.6875,13.6875,29.25,0
43690,15.4375,9.9375,32.5,0
43710,14.875,4.9375,29.375,0
43750,14,-5.9375,34.8125,0
43770,16.875,-5.5625,32.125,0
43790,23.875,-9.5625,31,0
43810,29.5625,-13.4375,33.625,0
43820,38.875,-21.1875,21,0
43840,40.25,-24.8125,21.25,0
43860,41.5625,-29,23.9375,0
43870,32.375,-36.4375,27.3125,0
43890,29.625,-37.9375,29.5625,0
43920,27.5,-38.4375,29.0625,0
43940,29,-43.1875,28.625,0
43950,29.625,-47.4375,27.5,0
43960,30.5,-51.375,25.0625,0
43980,28.125,-57.5,21.625,0
44000,23.75,-60.3125,17.9375,0
44020,27.375,-59.125,14.0625,0
44040,34.5625,-58.625,11.25,0
44060,29.625,-59.8125,12,0
44080,23.625,-61.75,14.0625,0
44100,26.125,-63,15.9375,0
44120,19,-60.8125,15.3125,0
44140,9.8125,-60.625,16.0625,0
44160,9.625,-61.9375,18.375,0
44180,13.875,-61.5,14.6875,0
44200,17.5,-59.875,8.0625,0
44220,15.25,-58.375,4.9375,0
44240,12.3125,-57.5,1.375,0
44260,11.4375,-55,-0.875,0
44280,15.625,-50.125,-4.4375,0
44300,8.25,-43.5,-17.3125,0
44320,-1.0625,-39,-19.0625,0
44340,-1.125,-39.4375,-24.3125,0
44360,-2.5625,-37,-33.4375,0
44380,-10,-34.3125,-38.8125,0
44400,-17.5625,-34.4375,-42.375,0
44420,-20.5625,-31.5625,-43.6875,0
44440,-24.125,-24.6875,-43.25,0
44460,-25.3125,-17.8125,-45.8125,0
44480,-27.4375,-13.625,-44.5625,0
44490,-29.75,-7.625,-48.0625,0
44500,-32.125,0.4375,-57.5,0
44500,-45.875,17.0625,-64.375,0
44520,-48.5,26.5,-65.4375,0
44530,-51.5625,35.8125,-64.3125,0
44550,-55.875,42.375,-65.5625,0
44570,-58.9375,47.8125,-66.3125,0
44590,-64.4375,49.75,-62.3125,0
44630,-63.0625,61,-60.75,0
44650,-65.375,61.25,-55.6875,0
44670,-57.8125,60.75,-48.125,0
44690,-46.875,59.125,-44.375,0
44710,-50.75,60.8125,-40,0
44730,-49.9375,55.4375,-28.625,0
44750,-41.375,47.125,-22.375,0
44770,-34.75,40.0625,-16.25,0
44790,-26.5,34.875,-9.9375,0
44810,-27.3125,30.3125,-3.1875,0
44830,-30.6875,29.6875,3.375,0
44850,-24.25,28.6875,6.8125,0
44870,-15.5625,27.8125,7.1875,0
44890,-13.25,29.6875,6.1875,0
44910,-22.9375,31.5625,7.5625,0
44930,-24.3125,28.9375,10.75,0
44950,-16.0625,29.1875,14.9375,0
44970,-12.1875,28.6875,15.6875,0
44990,-10.5,25.3125,15.8125,0
45010,-14.6875,23.125,22.625,0
45030,-6.8125,20.5625,28,0
45050,-3.4375,21.0625,30.4375,0
45070,-2.0625,22.75,31.5,0
45090,0.3125,21.75,34.625,0
45110,-0.3125,19.25,32.9375,0
45130,-1.25,20.4375,34.5,0
45150,-3.1875,22.8125,37.6875,0
45170,-3.8125,22.75,42.875,0
45210,19.8125,6.6875,34,0
45230,14.875,-11.6875,33.0625,0
45250,12.1875,-18.0625,32.9375,0
45270,10.3125,-23.375,29.4375,0
45290,10.375,-29.5,29.4375,0
45310,8.75,-33.9375,30.375,0
45330,7.1875,-35.75,29.75,0
45350,3.5,-37.75,31.25,0
45370,-0.125,-39.875,33.875,0
45390,-11.8125,-44.3125,39.8125,0
45410,-18.3125,-49.8125,42.9375,0
45430,-19.1875,-53.8125,44.625,0
45450,-21.1875,-56.3125,43.4375,0
45470,-19.8125,-61.75,39.0625,0
45490,-15.625,-66.75,31.1875,0
45510,-11.5625,-78.25,25.625,0
45530,-19.4375,-89.5,28,0
45550,-19.375,-84.75,24.0625,0
45570,-13.1875,-79.1875,19.6875,0
45590,-6.4375,-81.875,15.625,0
45610,5.9375,-79.9375,8.625,0
45630,11.75,-75.5625,1.3125,0
45650,12.375,-73.6875,-2.4375,0
45670,3.625,-69.625,-6.125,0
45690,27.375,-67.875,-27.875,0
45710,17.5625,-62.375,-25.8125,0
45730,18.6875,-53.5625,-27.875,0
45750,35.3125,-59.3125,-36.3125,0
45770,37.375,-59.5,-42.375,0
45790,38.5,-52.1875,-52.6875,0
45810,29,-46.4375,-63.375,0
45830,10,-43.1875,-63.3125,0
45850,11.875,-35.9375,-61.875,0
45870,15.1875,-21.875,-67.5625,0
45890,-3.5,-14.25,-65,0
45910,-18.6875,-5,-63.9375,0
45930,-26.75,1.125,-61.6875,0
45950,-26.9375,7.75,-55.9375,0
45970,-29.8125,20.375,-54.1875,0
45990,-44.625,31.3125,-51.875,0
46010,-59.4375,39.0625,-46.75,0
46030,-52.6875,43.875,-44.1875,0
46050,-43.9375,46.1875,-37.8125,0
46070,-53.75,48.625,-31.3125,0
46090,-59.375,54.1875,-30.0625,0
46110,-69.625,60.6875,-31.6875,0
46130,-74.1875,64.8125,-32.625,0
46160,-51.375,65.625,-29.0625,0
46180,-53.3125,69.1875,-28.625,0
46210,-59.8125,69.125,-16.5625,0
46230,-55.125,65.875,-5.4375,0
46250,-44.25,63.8125,4.5625,0
46270,-40.3125,61.875,9.9375,0
46290,-44.9375,60.4375,18,0
46310,-48.625,62,26.6875,0
46330,-32.125,54.625,17.75,0
46340,-25.1875,48.9375,18.9375,0
46400,-29.25,29.6875,34.375,0
46420,-24.0625,21,38.5,0
46440,-16.0625,14.8125,42.4375,0
46460,-12.9375,13.875,47.5625,0
46480,-26.3125,11.75,48.75,0
46500,-39.375,5.3125,50.8125,0
46520,-38.5,-1.875,55.3125,0
46540,-24.25,-8.75,57.75,0
46560,-16.6875,-15.4375,55.375,0
46580,-30.9375,-16,52.4375,0
46600,-32.625,-18.5625,48,0
46620,-25.375,-21.0625,43.3125,0
46640,-12.75,-23,39.9375,0
46660,-5.5625,-24.375,36.5,0
46680,-2.75,-24.3125,32.0625,0
46700,-10.875,-27.0625,32.5625,0
46720,-11.3125,-26.75,32.875,0
46740,1.75,-27.5,28.25,0
46760,3.25,-29.625,24.625,0
46780,0.3125,-28.8125,22.25,0
46800,-3.0625,-31.375,23.75,0
46820,2.125,-34.25,21.3125,0
46840,4.8125,-38.9375,20,0
46880,4.0625,-47.4375,20.1875,0
46900,8.625,-49.75,15.3125,0
46920,5.6875,-56.8125,12.0625,0
46940,-5.1875,-64.125,13.4375,0
46960,-3.8125,-68.5625,16.5,0
46980,-6.625,-71.5,17.9375,0
47000,-20,-72.4375,14.6875,0
47020,-32.0625,-72.625,11,0
47040,-23.625,-71.5,1.4375,0
47060,-4.9375,-71,-7.875,0
47070,7.9375,-67.375,-18.8125,0
47090,3.3125,-64.5,-23.5625,0
47110,4.125,-61.8125,-27.625,0
47130,5.75,-59,-35.75,0
47150,12.3125,-58.6875,-37.1875,0
47170,17.5,-60,-35.1875,0
47190,16.8125,-61,-37.75,0
47210,16.25,-61,-40.6875,0
47230,6.375,-58.6875,-40.75,0
47250,2.625,-56.9375,-38.1875,0
47270,8.0625,-54.3125,-37.125,0
47290,11.4375,-47.5,-35.1875,0
47310,4.6875,-43.0625,-35.625,0
47330,1.1875,-38.3125,-34.3125,0
47350,3.1875,-30.0625,-36.75,0
47370,5.8125,-21.9375,-42.5,0
47390,7,-17.9375,-43.4375,0
47410,7.0625,-14.8125,-43.4375,0
47430,5.25,-12.75,-39.5625,0
47450,4.625,-10.1875,-36.5,0
47470,-1.875,-7.125,-35.6875,0
47490,-6.5,-4.125,-28.5,0
47510,-4.4375,-2.3125,-16.875,2001
47530,-7.1875,1.125,-8.6875,0
47550,-6.25,0.8125,-1.8125,0
47570,0.875,0.3125,4.375,0
47590,2.3125,0.125,7,0
47610,4.3125,0.375,9.6875,0
47630,1.75,2.1875,5.875,0
47650,2.4375,2.6875,1.75,0
47670,6.9375,2.5,-3.625,0
47690,1.0625,-1.1875,-6.5,0
47710,-8.25,-2.875,-1.8125,0
47730,-11.8125,-1.9375,2,0
47750,-13.125,5.25,6.125,0
47770,-3.6875,7.4375,8.3125,0
47790,11.3125,7.75,16.6875,0
47810,18.75,14,26,0
47830,20.375,21.0625,28.5,0
47850,20.125,30.5,31.625,0
47870,18,39.0625,38.3125,0
47880,14.1875,48.25,45.25,0
47900,22.6875,53.3125,53.375,0
47920,44.0625,59.3125,56.875,0
47950,48.4375,69.375,55.875,0
47970,50.1875,83.5,67.25,0
47990,64,79.3125,70.9375,0
48010,42.1875,78.3125,65.3125,0
48030,37.75,72.9375,60.375,0
48050,34.625,64.25,57.125,0
48070,32.25,59.4375,48.875,0
48090,25.4375,53.375,43.4375,0
48110,6.8125,41.3125,34.8125,0
48130,10.0625,31.8125,32.4375,0
48150,18,24.6875,30.375,0
48170,17.625,21.4375,21.5,0
48190,14.0625,19.25,10.6875,0
48220,14.3125,4.0625,3.375,0
48240,20.25,0.4375,1.6875,0
48260,18.375,-2.625,-0.875,0
48280,7.25,-3.875,-0.0625,0
48300,-1.5625,-2.5,3.1875,0
48320,0.5,-3.125,5.0625,0
48340,7.125,-7.1875,6.3125,2000
48360,10.0625,-6.4375,5.5625,0
48380,6.5,-7.5,4.5625,0
48390,2.8125,-7,4.5,0
48400,-0.8125,-7.9375,0.625,0
48420,0.1875,-12.5,-0.25,0
48440,4.5625,-15.4375,3.1875,0
48460,4.9375,-16.0625,1.125,0
48480,1.25,-14.875,-1.4375,0
48500,-1.125,-15.0625,-1.6875,0
48520,3.5625,-17.5,-4.5625,0
48540,10.25,-18.5625,-7.9375,0
48560,9.9375,-20,-11.0625,0
48580,10.0625,-24.125,-10.3125,0
48600,6.375,-27.4375,-6,0
48620,8.25,-28.3125,-6.9375,0
48640,18.1875,-33.125,-10,0
48660,18.125,-33.625,-10.9375,0
48680,12.8125,-34.9375,-11.3125,0
48710,6.4375,-24.1875,-22.5,0
48710,6.4375,-17.25,-22.8125,0
48730,3.3125,-10.4375,-27.625,0
48750,2.1875,-7.5,-33.5,0
48770,-6.5625,-4.75,-37.4375,0
48790,-15,2.75,-41.875,0
48810,-23.875,20,-41.75,0
48820,-21.5,36.6875,-40.5625,0
48840,-30.75,44.625,-45,0
48860,-40.75,48.25,-54.5,0
48880,-40.3125,50.9375,-57.625,0
48900,-34.625,59.9375,-54.375,0
48920,-45.5,44.75,-46.5,0
48930,-37.125,30.8125,-29.5,0
48950,-30,27.6875,-26.875,0
48970,-25.25,27,-27.375,0
48990,-25.125,22.25,-20.375,0
49010,-34.5625,19.625,-12.25,0
49030,-37.9375,18.3125,-4.4375,0
49050,-23.875,20.125,0.125,0
49070,-17.375,21.3125,4,0
49080,-24.6875,21.625,15.1875,0
49100,-36.9375,27.75,26.875,0
49120,-38.5,30.5,25.5,0
49140,-22,23.1875,17.625,0
49160,-5.5,15.625,17.375,0
49180,3.9375,12,22,0
49200,-2.5,12.3125,21.1875,0
49220,-6.0625,11,15.125,0
49240,-4.4375,4.375,14.1875,0
49260,5.875,-0.875,17.6875,0
49280,12.25,-0.3125,21.9375,0
49300,9.375,-0.5625,20.625,0
49320,2.5625,-2.9375,20.8125,0
49340,1.6875,-4.6875,23.1875,0
49350,13.0625,-7,21.6875,0
49390,7.0625,-7.625,15.9375,0
49410,-4.25,-18.0625,34.3125,0
49440,-7.6875,-15.125,31.1875,0
49470,19,-22.875,16.75,0
49490,16.9375,-29.25,17.4375,0
49490,13.875,-35.4375,17.25,0
49500,24.75,-39.125,13.9375,0
49520,24.1875,-42.875,9.8125,0
49530,33.5,-58.875,0.0625,0
49550,27.375,-67.125,-1.8125,0
49570,22.25,-73.0625,-3.375,0
49590,21.0625,-77.3125,-3.9375,0
49620,7.6875,-84.75,-1.8125,0
49640,1.8125,-83.875,0.25,0
49660,-1.75,-81.125,-1.3125,0
49680,-17.1875,-80.9375,-2.8125,0
49700,-19.0625,-81.75,-4.9375,0
49720,-4.5625,-71.9375,-20.4375,0
49740,-2.3125,-66,-27.375,0
49760,-11,-56.625,-31,0
49780,-14.6875,-25.125,-17.5,0
49800,1,-25.75,-20,0
49820,-6.125,-22.375,-23,0
49840,-12,-16.1875,-18.25,0
49860,-12.5,-5.25,-18.375,0
49880,-6.4375,15.125,-28.375,0
49900,-17.25,19.3125,-40,0
49910,-28.9375,24.3125,-43.75,0
49930,-34.875,31.6875,-50.625,0
49950,-40.5625,37.25,-55.9375,0
49970,-44.6875,42.125,-58.9375,0
49990,-53.9375,47.25,-57.3125,0
50010,-61.0625,50.4375,-50.8125,0
50040,-59.875,57.3125,-42.4375,0
50060,-61.625,60.8125,-36.3125,0
50080,-62.875,60.625,-30,0
50100,-56,61.625,-25.875,0
50120,-53.5625,62.3125,-23.5,0
50140,-56.25,58.6875,-20.5,0
50160,-53.25,54.3125,-20.875,0
50180,-47.25,51.75,-22,0
50200,-41.6875,50.0625,-20.25,0
50220,-42.125,49.25,-14.5,0
50240,-38.375,50.625,-6.625,0
50260,-30.5625,45.875,-2.3125,0
50280,-27.1875,42.75,-4.25,0
50300,-20.1875,39.3125,-5.625,0
50320,-26.6875,42,5.8125,0
50340,-32.0625,53.5625,13.25,0
50360,-28.625,55.875,11.5625,0
50380,-15.9375,54.0625,14.1875,0
50400,0.0625,50.25,23.5625,0
50420,-2.5,53,31.5,0
50440,-12.6875,53.125,30.8125,0
50460,-7.375,45.8125,25.8125,0
50480,1.0625,38.625,22.3125,0
50500,10,32.75,23.3125,0
50520,4.875,30.3125,22.5625,0
50540,-1.5625,26.8125,19.5625,0
50560,6.75,20.875,22,0
50570,25.5625,14.25,26,0
50580,4.6875,11.25,27.8125,0
50600,-6.5,4.4375,30.0625,0
50600,17.625,-4.875,37.375,0
50620,18.5625,-8.0625,38.5,0
50640,9.3125,-12.5625,37.125,0
50650,8.125,-21.8125,39.1875,0
50670,13,-25.875,38.25,0
50690,15.875,-28.125,33.3125,0
50710,13.25,-30.875,31.4375,0
50730,21.3125,-33.875,31.1875,0
50750,27.9375,-34.3125,27,0
50770,31.1875,-34.375,24.125,0
50790,28.3125,-35.5,24.5,0
50810,28.125,-37.375,23.6875,0
50830,29.875,-40.375,25.9375,0
50850,26.9375,-43.1875,26.9375,0
50870,19,-44.375,27.3125,0
50890,9,-41.9375,27.3125,0
50910,11.625,-40.4375,25.3125,0
50930,24.8125,-43.25,21.875,0
50950,35.75,-46.3125,17.125,0
50970,33.0625,-48.6875,11.1875,0
50990,19.1875,-52.8125,7.1875,0
51010,8.8125,-57.8125,7.375,0
51020,11.4375,-64,10.8125,0
51040,11.1875,-69.5625,12.6875,0
51060,5.875,-74,11.0625,0
51090,-10.5625,-80.125,5.625,0
51110,-8,-81.125,0.75,0
51130,-4.625,-80.75,-5.1875,0
51150,-0.625,-80.125,-12.625,0
51170,-4.5625,-80.5625,-11.9375,0
51190,6.875,-76,-15.625,0
51210,14.0625,-72.1875,-22.4375,0
51230,12.125,-70.3125,-23.375,0
51250,-5.25,-64.25,-22.875,0
51270,-15.1875,-56.5,-24.9375,0
51290,-0.875,-52.875,-25.625,0
51310,9.1875,-46.125,-29.8125,0
51330,6.5625,-37.1875,-35.3125,0
51350,-2.5,-30.25,-34.9375,0
51370,-9.0625,-21,-35.125,0
51390,-3.8125,-16.75,-40.25,0
51410,-5.625,-16.625,-41.875,0
51430,-14.625,-10.9375,-40,0
51450,-22.4375,-5.5,-41,0
51470,-26.1875,-5.0625,-42.625,0
51490,-25.125,-1.6875,-46.125,0
51510,-23.375,2.375,-49,0
51530,-32.5,5.25,-48.6875,0
51550,-51.375,9.4375,-43.8125,0
51580,-50.0625,15.5625,-41.3125,0
51610,-71.375,54.8125,-35.8125,0
51630,-56.75,56.5625,-37.3125,0
51650,-60.0625,59.4375,-37.9375,0
51670,-68,63.6875,-35.25,0
51690,-71.5625,64.375,-34.875,0
51710,-71.3125,61.25,-33.8125,0
51750,-47.75,59.4375,-24.8125,0
51770,-47.875,60.5625,-15.6875,0
51810,-39.9375,56.9375,2.25,0
51830,-21.6875,48.5625,8.1875,0
51850,-3,47.375,14.75,0
51870,-3.1875,56.1875,14.1875,0
51890,-30.3125,65.125,13.25,0
51910,-46.125,61.25,15.3125,0
51930,-26.5,51.25,26,0
51950,6.3125,52.25,39.375,0
51970,12.875,61.1875,41.25,0
52000,-41.5625,56.625,50,0
52020,-22,51.625,52.5625,0
52040,3.3125,50.75,50.625,0
52060,4.6875,52.375,46.25,0
52070,-22.6875,46.875,46.3125,0
52090,-33.5625,42.1875,44.625,0
52110,-19.3125,40.1875,47.8125,0
52130,4.25,33.3125,56.5625,0
52150,18.25,28.0625,51.25,0
52170,0,26,53.6875,0
52190,-7.0625,17.125,49.0625,0
52210,3.625,10.0625,45.75,0
52230,15.3125,0.625,43.625,0
52250,18.875,-8.875,35.5,0
52270,14.125,-18.9375,32,0
52290,16.375,-32.75,34.3125,0
52310,27.5625,-43.75,33.4375,0
52330,29.5625,-47.375,31.125,0
52350,15.5625,-52.875,33.5625,0
52370,4,-59.875,31.6875,0
52390,7.875,-64.8125,30.1875,0
52410,18.75,-67.375,28.5625,0
52430,17.3125,-67.3125,26.4375,0
52450,13.25,-67.25,25.3125,0
52470,15.375,-70.375,20.1875,0
52490,22.125,-78.5625,16.4375,0
52510,16.25,-86.4375,16.625,0
52530,4.0625,-90.125,14.375,0
52550,-17.0625,-91.625,6.125,0
52570,-21.1875,-92.5625,-7.75,0
52590,-16.125,-96.5625,-19.3125,0
52610,4.6875,-98.0625,-26.8125,0
52630,19.4375,-93.8125,-33.625,0
52650,11.75,-91.3125,-37.1875,0
52670,-3.625,-89.375,-36.75,0
52690,-6,-86,-30.875,0
52710,-0.625,-81.6875,-31.5625,0
52730,3.4375,-73.9375,-33.5625,0
52750,-7.1875,-64.75,-32.0625,0
52770,-25.5,-53.5,-23.1875,0
52790,-26.9375,-46.75,-13.625,0
52810,-9.6875,-40.625,-12.6875,0
52830,3.75,-32.6875,-17.75,0
52850,-7.1875,-23.4375,-19.9375,0
52870,2.3125,-13.875,-21.5,0
52900,1.4375,-9.4375,-28.375,0
52920,-11.5625,-5.375,-27.25,0
52940,-9.6875,-0.875,-26.25,0
52960,3.5625,-0.0625,-25.4375,0
52970,3.5,-2.3125,-23.8125,0
53010,-5.9375,1.5,-15.375,0
53030,-11.9375,1.875,-12.3125,0
53050,-7.5,1.0625,-5.8125,2001
53070,6.5625,1,-5.375,0
53090,6.4375,-1.5,-1.3125,0
53110,-1.0625,1.5625,0.0625,0
53130,-7.5625,-0.3125,0.375,0
53150,-0.875,-3.3125,0.6875,0
53170,11.0625,-2.375,-1.6875,0
53190,10.6875,-1.875,-3.125,0
53210,2.8125,-1.4375,1.375,0
53230,0.4375,0.1875,0.625,0
53250,3.75,1.125,-1.8125,0
53260,15.5,-0.1875,2.6875,0
53280,16.4375,4.8125,10.125,0
53300,13.5,10.5625,16.25,0
53320,7.9375,17.625,24,0
53340,8,24.6875,33.25,0
53350,15.1875,29.1875,48.375,0
53370,18.625,32.0625,61.875,0
53390,27.5,38.125,74.0625,0
53400,37.25,48.625,87.3125,0
53420,21.75,61.4375,102.062,0
53440,48.1875,62.125,115.75,0
53460,61.1875,64.3125,119.062,0
53480,60,66.8125,123.375,0
53500,48.25,68.3125,115.062,0
53520,31.3125,74.375,98.8125,0
53530,33.0625,66.5625,69.5,0
53550,50.375,55.0625,49.625,0
53570,50.3125,51.6875,27.5,0
53590,31.375,52.125,14.5625,0
53610,16.8125,47,10.3125,0
53630,14.8125,39.5625,3.25,0
53650,21,34.875,-1.625,0
53670,35,34.625,-4.1875,0
53690,25.6875,28.6875,-0.875,0
53710,6.3125,24.3125,5.3125,0
53730,-2,21.4375,7.375,0
53750,5.3125,16.9375,6.875,0
53770,12.3125,14.375,7.6875,0
53790,15.8125,10,12.9375,0
53810,12.875,5.1875,13.5,0
53830,6.4375,4.8125,9.875,0
53850,7.125,2.125,7.6875,0
53860,7,0.0625,6.8125,0
53880,16,2.0625,5.9375,2000
53920,0.9375,-3.5,4.6875,0
53930,17.6875,-4.8125,-1.9375,0
53950,9.5625,-7.6875,1.5,0
53960,0.125,-10.125,0.1875,0
53980,2.5,-12,-1,0
53990,9.375,-16.5625,-7.375,0
54010,12.3125,-20.9375,-8.625,0
54030,12.875,-24.625,-7.5,0
54050,12.1875,-28.25,-8.25,0
54070,19.4375,-34,-7.0625,0
54090,20.4375,-34.8125,-9.25,0
54110,17.625,-37.3125,-7.5625,0
54130,21,-40.875,-6.3125,0
54150,24.375,-37.125,-8.875,0
54170,28.25,-35,-15.625,0
54190,18.5625,-34.75,-20.3125,0
54220,-4.5625,-13.875,-22.5625,0
54250,-18.625,-5.125,-29.4375,0
54270,-17.75,1.5,-32.125,0
54290,-12.5625,9.75,-36.0625,0
54300,-20.5,15.375,-39.3125,0
54310,-38.8125,23.9375,-33.375,0
54330,-32.25,30.875,-34.5,0
54350,-30.375,39.125,-39.75,0
54390,-55.6875,50.5625,-47.75,0
54410,-46.4375,57.3125,-47.0625,0
54420,-57.6875,67.5625,-52.125,0
54450,-49,58.4375,-44.3125,0
54470,-43.9375,58.625,-36,0
54490,-26.375,45.9375,-26.9375,0
54510,-24.3125,38.8125,-25.25,0
54550,-13.5,41.625,-18.625,0
54570,-13.875,44.375,-8.875,0
54590,-12.8125,42.875,-0.3125,0
54610,-4.3125,33.5,-1.75,0
54650,15.875,18,2.4375,0
54670,12.5625,18.1875,0.9375,0
54690,0.4375,18.625,-3.875,0
54710,0.25,16.625,-1.4375,0
54730,18.75,14.1875,4.75,0
54750,24.8125,15.6875,7.5,0
54770,15,16.1875,10.875,0
54790,15.0625,14.9375,11.0625,0
54810,11,13.25,10.4375,0
54830,17.5625,9.5,15,0
54850,25.8125,7.625,12.5,0
54870,26.25,4.4375,12.0625,0
54880,21.3125,-1.0625,16.75,0
54900,27,-8.25,24,0
54920,31.875,-8.6875,26,0
54940,26.5625,-5.625,23.5625,0
54960,16.8125,-4.625,21.875,0
54990,48.125,-9,26.25,0
55010,43.875,-10.75,26.0625,0
55050,29,-31.3125,39.875,0
55070,22.9375,-32.0625,41.875,0
55090,26.0625,-37.0625,44.1875,0
55090,25.75,-39.625,42.625,0
55110,20.375,-39,43.75,0
55130,16.1875,-37.5,44.5625,0
55150,13.6875,-38.3125,43.125,0
55170,13.9375,-41.125,41.8125,0
55170,18.625,-41.4375,37,0
55190,13.75,-42.625,35.25,0
55210,9.9375,-43.875,34.75,0
55230,10.6875,-46.9375,33.375,0
55250,15.625,-51.5625,30.8125,0
55270,12.1875,-56.8125,31.625,0
55290,6.5,-63.0625,30,0
55310,-6.4375,-70.3125,29.875,0
55330,-10.6875,-75.5,30,0
55350,-7.3125,-77.5625,22.1875,0
55370,-0.5625,-78.125,12.375,0
55390,15.5625,-77.1875,1.6875,0
55410,26.25,-77.625,-3.0625,0
55430,20.3125,-77.8125,-5.375,0
55450,16.0625,-70.1875,-12.1875,0
55450,17,-60.375,-26.75,0
55450,16.5,-51.25,-31.75,0
55460,-0.875,-25.1875,-48.375,0
55480,-3.0625,-23.5625,-59.6875,0
55490,-45.0625,-12.0625,-73.6875,0
55520,-70.1875,40.3125,-46.5625,0
55540,-62.3125,51.75,-46.0625,0
55560,-59,49,-43.625,0
55600,-48.3125,39.1875,-40,0
55620,-52.5,33.75,-35.8125,0
55640,-48.0625,31.9375,-28.3125,0
55660,-41.375,34.375,-23.125,0
55680,-35,35.0625,-19,0
55700,-31.1875,30.0625,-13.4375,0
55720,-36.3125,32.125,-5.375,0
55740,-35.4375,33.75,-1.625,0
55760,-29.9375,33.375,1.9375,0
55780,-21.375,34.625,7.5625,0
55800,-12.9375,37.5,11.0625,0
55820,-11.125,39.625,13.875,0
55840,-22.5625,40.75,20.375,0
55860,-25.5,40.1875,24.375,0
55880,-18.6875,39.4375,26.1875,0
55900,-8.25,37.6875,31.375,0
55920,-1.0625,41.0625,31.1875,0
55940,-9.0625,40.5,31,0
55960,-22.5,36.75,37.875,0
55980,-11.8125,33.625,41.9375,0
56000,4.0625,35.25,38.6875,0
56020,2.5,33.875,39,0
56040,-18.5,29.625,35.0625,0
56060,-16.5625,26.1875,41.25,0
56080,-9.375,22.8125,46,0
56100,-14.875,20.625,48.5,0
56120,-18.375,19.875,45.4375,0
56140,-21.5625,17.9375,40.125,0
56160,-7.5,17.0625,35.75,0
56180,14.375,10.8125,31.0625,0
56200,25.125,3.1875,26.75,0
56240,-0.9375,-13.375,28.5625,0
56260,6.9375,-19.3125,23.3125,0
56300,16.375,-32.875,22,0
56320,10,-37.3125,26.625,0
56340,7.3125,-37.875,29.3125,0
56360,4.8125,-41.0625,32.5,0
56380,6.75,-43.375,34.8125,0
56400,12.625,-42.25,30.625,0
56420,15.625,-45.8125,29.9375,0
56460,16.9375,-65.25,44.1875,0
56510,10.5,-70.25,26.1875,0
56530,21.3125,-73.25,19.4375,0
56570,6.25,-80.5,12.1875,0
56590,1.8125,-83.625,7.125,0
56610,4.875,-84.5625,0.4375,0
56630,10.9375,-85.3125,-6.1875,0
56650,7.8125,-83.4375,-5.9375,0
56670,-2.8125,-78,-6.375,0
56690,-6.375,-71.6875,-12.25,0
56710,0.8125,-74.75,-18.8125,0
56730,8,-73.5,-21.75,0
56750,4.625,-68.75,-26.5,0
56770,-0.5625,-61.1875,-31.125,0
56790,-6.25,-58,-37.9375,0
56810,-7.625,-57.75,-42.625,0
56830,-2.25,-53.9375,-46.3125,0
56850,-1,-47.375,-49.1875,0
56870,-8.125,-41.4375,-51.4375,0
56890,-22.8125,-35.375,-57.375,0
56900,-30.5625,-26.875,-61.1875,0
56920,-27.875,-18.75,-63.0625,0
56940,-32.5,-8.875,-60.8125,0
56960,-38.25,6.3125,-51.0625,0
56980,-48.125,14.4375,-50.6875,0
57000,-53.5625,25.25,-48.1875,0
57030,-47.9375,29,-43.375,0
57080,-73.125,44.4375,-41.625,0
57100,-61.8125,43.0625,-36.75,0
57120,-43.125,40.625,-33.125,0
57140,-34.25,40.6875,-25.375,0
57160,-32.5625,45.75,-17.75,0
57180,-42.5,47.6875,-13.875,0
57200,-47.0625,52,-11.6875,0
57220,-37,53.3125,-5.4375,0
57240,-22.375,51.3125,3.3125,0
57260,-10.375,51.75,7.125,0
57280,-8.6875,54.5,9.25,0
57300,-20.625,56.5625,12.875,0
57320,-26.3125,56,16.75,0
57340,-15.8125,52,22,0
57360,-5.9375,51.5,30.125,0
57380,-25.9375,40.9375,47.0625,0
57390,-49.125,39.0625,44.875,0
57410,-51.3125,31.3125,47,0
57410,-26.125,23.875,47.625,0
57430,-11.625,23.875,44.375,0
57450,-15.9375,24.0625,39.25,0
57470,-25.125,18.3125,33.5,0
57490,-23.125,8.125,31.0625,0
57510,-8.1875,1,30.5,0
57530,-7.25,-3.5,27.1875,0
57550,-17.3125,-8.0625,29.9375,0
57570,-20.75,-11.3125,30.5,0
57590,-10.4375,-15.5,27.5,0
57610,-3.0625,-19.9375,25.8125,0
57630,-3.8125,-21.3125,22.3125,0
57650,-13.9375,-19.0625,23.9375,0
57670,-11.75,-21.1875,28.8125,0
57690,5.75,-21.5,30.25,0
57710,7.625,-20.375,33.625,0
57730,0.4375,-16.9375,32,0
57750,-0.375,-19.3125,33.25,0
57770,-1.6875,-25.0625,31.6875,0
57790,4.8125,-24.375,29.375,0
57810,5.3125,-28.375,30,0
57830,-3.5625,-32.5625,28.9375,0
57850,-9.25,-39,27.3125,0
57860,-6.4375,-44.3125,24.8125,0
57880,-8.375,-47.75,22.4375,0
57900,-24.3125,-50.625,20.25,0
57920,-29.8125,-51.5,17.9375,0
57940,-17.9375,-53.9375,14.8125,0
57960,-5.75,-59.875,8.25,0
57980,-3.5625,-62.8125,-0.125,0
58000,-5.5625,-59.125,-7.375,0
58020,-6.5625,-58.9375,-15.625,0
58040,-3.1875,-61.9375,-22.625,0
58060,4.6875,-65.0625,-24.5625,0
58080,8.375,-67.6875,-27.25,0
58100,2.125,-67.8125,-31.125,0
58120,-8.5,-65.4375,-31.375,0
58140,-12.1875,-62.5,-29.0625,0
58160,-6,-65.625,-27.75,0
58180,-2.25,-63.0625,-26.0625,0
58200,-0.9375,-55.9375,-27.9375,0
58220,-12.4375,-49.75,-29.625,0
58240,-20.4375,-44.0625,-30.4375,0
58260,-11.6875,-41.3125,-35.4375,0
58280,0.25,-39.3125,-37.4375,0
58300,0.1875,-33,-31.1875,0
58320,-1.875,-24.25,-28.9375,0
58340,-5.125,-20.25,-28.3125,0
58360,-3.875,-19.4375,-32.375,0
58380,-5.375,-17.375,-31.4375,0
58400,-1.5,-14.0625,-26.625,0
58420,-5,-10.5625,-21.9375,0
58440,-8,-6.5625,-20.25,0
58460,-1.25,-2.4375,-22.1875,0
58480,7.25,-0.4375,-25.625,0
58500,7.6875,-1.3125,-24.5625,0
58520,5.1875,-0.375,-19,0
58540,-1,4.25,-13.6875,2001
58560,-1.5625,4.375,-11.5,0
58580,-3,1.8125,-6.9375,0
58600,2.875,-0.3125,-4.375,0
58620,1.9375,1.5,-1.1875,0
58650,-9.0625,6.9375,-5.5,0
58670,-16,9.3125,-5.875,0
58690,0.1875,4.4375,-1.75,0
58710,9.25,1.875,-1.8125,0
58730,4.1875,3.625,-2.9375,0
58750,-1.125,1,-4.9375,0
58770,8.3125,1.25,1.0625,0
58790,19.5625,1.875,8.6875,0
58840,58.0625,31.6875,46.75,0
58850,71.125,52.6875,58.375,0
58870,54.875,49.4375,59,0
58890,63.75,53,69.9375,0
58910,76.625,51.625,73.5,0
58930,64.375,55.125,69,0
58950,51.125,58.9375,78.125,0
58970,56.9375,62.125,86,0
59000,57.8125,74.1875,74.6875,0
59020,48.8125,69,73.25,0
59040,36.5625,70.125,67.125,0
59060,26.6875,74.25,57.9375,0
59080,23.25,70.4375,56.9375,0
59100,21,65.125,54.375,0
59140,32.125,49.8125,25.9375,0
59160,31.125,47.1875,15.6875,0
59170,29.9375,36.5625,-0.625,0
59200,14.8125,-3.125,3,0
59220,11.1875,0.3125,0.75,2000
59240,6.3125,0.3125,2.125,0
59260,11.1875,-3.9375,5.375,0
59270,15.0625,-1.0625,5.625,0
59290,7.4375,-1.6875,2.3125,0
59310,-1.0625,-3.0625,-0.5,0
59330,-3.125,-5.0625,0.4375,0
59350,3.3125,-7,0.8125,0
59370,5.5625,-6.625,1.375,0
59390,1.625,-7.0625,-0.375,0
59400,-2.8125,-8.1875,0.5625,0
59400,9.75,-13.0625,-2.125,0
59420,13.625,-17.875,-5,0
59430,8.5625,-30.625,-10.5625,0
59470,-24.6875,-27.4375,-25.5625,0
59480,-24.875,-10.75,-33.8125,0
59500,-29.1875,-5.875,-38.125,0
59520,-37.9375,3.125,-36.5625,0
59560,-30.6875,18.125,-35.625,0
59580,-38.625,25.0625,-39.75,0
59600,-48.0625,26.625,-41.3125,0
59620,-56.1875,37.25,-43.4375,0
59650,-37.75,35.25,-26.25,0
59670,-35.125,33.0625,-24.0625,0
59690,-33.0625,30.9375,-17.125,0
59700,-33.8125,29.9375,-9.3125,0
59720,-26.5,33.5,-1.9375,0
59740,-11.9375,28.8125,0.9375,0
59760,-10.0625,24.25,2.0625,0
59780,-11.0625,22.6875,6.6875,0
59800,-12.6875,24.1875,11.625,0
59820,-12.5,24.125,16.0625,0
59840,3.3125,22.0625,13.5625,0
59860,11.5,15.0625,11.625,0
59880,8.875,13.25,13.9375,0
59900,-2.625,12.1875,17.0625,0
59920,-16.875,13.1875,17.6875,0
59940,-11.4375,10.4375,21.875,0
59960,7.75,2.625,26.5,0
59980,17.3125,-0.875,24.3125,0
60000,11.375,-2.375,22.25,0
60020,9.25,-5.3125,24.1875,0
60040,14.5625,-10.375,25.3125,0
60060,22.875,-9.125,29.5,0
60080,26.0625,-1,28.1875,0
60100,20.5625,0.0625,20.5,0
60120,16.25,-4.8125,25.5,0
60140,29.1875,-5.125,32.8125,0
60160,41.0625,-2.5625,36.5625,0
60180,34.0625,-2.9375,35.375,0
60200,22.9375,-3.125,34.25,0
60220,22.0625,-5.4375,28.0625,0
60250,35.625,-8.1875,30.3125,0
60320,19.375,-37.375,26.625,0
60360,15.25,-39.5625,16.4375,0
60380,12,-45.6875,17.375,0
60400,20.375,-54.0625,22.4375,0
60420,26,-54.25,23.75,0
60440,18.0625,-53.8125,21.8125,0
60460,-7.0625,-60.3125,28.125,0
60480,-19.0625,-66.625,42.0625,0
60500,-8,-66,41.625,0
60520,-4.4375,-65.875,36.375,0
60540,-16.3125,-70.25,34.625,0
60560,-15.5,-70.9375,28.6875,0
60580,3.5,-71,17.8125,0
60600,17.5625,-72.625,7.875,0
60620,12.25,-70.25,2.5,0
60640,4.625,-63.9375,-2.25,0
60660,4.3125,-62.375,-3.8125,0
60680,14.0625,-61.9375,-5.6875,0
60700,25,-60.4375,-10,0
60720,23.375,-56.8125,-13.3125,0
60740,2.625,-40.75,-24,0
60760,4.625,-37.125,-26.5,0
60800,-1.1875,-24,-21.5625,0
60800,3.5625,-21.1875,-29.6875,0
60820,0.8125,-16.6875,-32.75,0
60860,-18,-7.0625,-34.5,0
60880,-23,-3.625,-25.9375,0
60910,-28.625,27.125,-19.9375,0
60950,-31.25,36.6875,-31.6875,0
60970,-36,41.3125,-37.5625,0
61000,-43.9375,46.25,-48.6875,0
61020,-42.5,48.0625,-48.75,0
61040,-43.125,47.9375,-46,0
61060,-46.9375,42.4375,-43.25,0
61080,-52.6875,40.5,-39.3125,0
61100,-53.3125,41.6875,-35.75,0
61130,-60.5,37.625,-30.6875,0
61150,-63.75,41.4375,-29.6875,0
61170,-63.75,45.375,-30.1875,0
61190,-60.8125,50.5625,-23.6875,0
61250,-49.3125,58.9375,-7.8125,0
61270,-52.8125,60.5625,4.75,0
61290,-48.6875,62.5,9.75,0
61310,-28,66,13.8125,0
61330,-12.4375,71.8125,16.625,0
61350,-12,70.4375,16.4375,0
61370,-31.1875,65.6875,21.6875,0
61390,-14.8125,56.9375,23.1875,0
61410,11.8125,49.75,24.4375,0
61430,1.875,47.875,21,0
61450,-10,42.25,21.3125,0
61470,-14.1875,32.5,26.8125,0
61500,-4.9375,11.6875,24.0625,0
61530,19.5625,-2.375,26.4375,0
61550,3.8125,-5.6875,26.875,0
61570,-17.5625,-8,27.125,0
61590,-4.3125,-11.875,27.625,0
61610,21,-16.6875,25.5,0
61630,27.25,-16.125,21.8125,0
61650,12.1875,-22.375,24.0625,0
61670,4.5625,-26.375,26.1875,0
61690,17.125,-27.25,24.875,0
61710,25.9375,-28.8125,23.1875,0
61730,32.8125,-22.0625,19.0625,0
61750,48.6875,-26.3125,19.75,0
61760,39.3125,-28.625,18.3125,0
61780,28.6875,-26.0625,21.6875,0
61800,25.0625,-28.4375,23.75,0
61840,8.6875,-42.5625,24.25,0
61860,4.5625,-45.625,21.5625,0
61880,12.0625,-47.875,20.5,0
61900,20.625,-53.5,19.125,0
61920,25.3125,-55.25,16.5,0
61940,30.8125,-62.25,13.8125,0
61960,25.6875,-73.6875,11,0
61980,13.5,-79.4375,8.9375,0
62000,7.6875,-84.375,8.75,0
62020,0.4375,-88.3125,8.8125,0
62040,-9.0625,-89.9375,9.9375,0
62060,-5,-91.6875,6.75,0
62080,6.25,-88.0625,-1.5625,0
62100,7.9375,-87.75,-10.5,0
62120,0.6875,-85.875,-18.1875,0
62140,6.4375,-82.6875,-27.1875,0
62160,29.75,-82,-35.4375,0
62180,26,-79.875,-41.75,0
62200,19.3125,-73.125,-42.875,0
62220,19.25,-63.6875,-45.4375,0
62240,19.6875,-58.3125,-52.625,0
62260,13,-57,-52.25,0
62280,9.4375,-48.375,-53.125,0
62300,0.9375,-39.875,-52.625,0
62320,-14.75,-34.4375,-50.1875,0
62340,-31.75,-21.3125,-53.6875,0
62360,-26.4375,-15.75,-60.875,0
62380,-21.9375,-15.875,-60.875,0
62400,-28.3125,-7,-54,0
62420,-21.625,4.625,-52.3125,0
62440,-32.6875,9.5,-54.6875,0
62460,-39.875,16.9375,-53.1875,0
62480,-46.4375,21.9375,-47.625,0
62500,-56.6875,24.6875,-40.8125,0
62520,-53.3125,27.75,-33.0625,0
62540,-51.75,33.5625,-26.375,0
62560,-58.375,42.125,-27.375,0
62570,-63.3125,44.75,-30.8125,0
62590,-68.9375,49.375,-28.375,0
62610,-66.3125,52.5625,-27.6875,0
62620,-59.1875,61.5,-13.3125,0
62640,-54.0625,63.25,-12.4375,0
62660,-48.875,61.75,-12.5,0
62680,-39.9375,61.625,-5.0625,0
62700,-28.8125,64.75,4.8125,0
62720,-33.5625,63.375,9.625,0
62740,-39.5625,59.5625,14.75,0
62760,-27,55,21.9375,0
62780,-17.4375,57.625,22.75,0
62800,-24.875,62.5,25.8125,0
62820,-27.75,59.3125,34.375,0
62870,-12.0625,38.5625,43,0
62890,-7,34.1875,42.9375,0
62910,-15.875,33.625,39.875,0
62930,-14.0625,33.375,43.3125,0
62950,-18.4375,28.375,47.5,0
62970,-15.9375,20.0625,41.9375,0
62990,-13.8125,14.875,42.9375,0
63010,-11.5,8.25,52,0
63030,-17.3125,1,52.125,0
63050,-9.4375,-0.125,44.625,0
63070,-3.1875,-7,37.5,0
63090,-3.5625,-12.5625,35.4375,0
63110,-3.4375,-16.75,37.4375,0
63130,-5.375,-24.0625,42.375,0
63150,-3.0625,-30.4375,39.375,0
63170,0.375,-35.4375,38.625,0
63190,-5.0625,-41.4375,37.9375,0
63220,17.75,-46.6875,37.25,0
63240,13.1875,-56.75,35.5625,0
63260,-5.4375,-67.75,31.3125,0
63280,-3.1875,-75.875,24.875,0
63300,-2.125,-79.375,18,0
63320,1.6875,-76.3125,14.625,0
63340,13.1875,-75.25,6.6875,0
63360,12.9375,-79.4375,-2.9375,0
63380,8.375,-80.5,-9.5,0
63400,3.75,-78.4375,-14.0625,0
63420,4.25,-78.9375,-12,0
63440,-2.0625,-78.0625,-11.6875,0
63460,5.25,-77.5625,-18.0625,0
63480,7.125,-74.5,-25.1875,0
63490,6.5625,-74.25,-27.625,0
63510,-2.4375,-67.875,-32.4375,0
63530,-14.875,-59.8125,-33.4375,0
63550,-6.4375,-59.875,-30.9375,0
63570,3.625,-66.5625,-36.4375,0
63590,3.625,-63.75,-34.625,0
63610,-8.875,-57.1875,-31.125,0
63630,-23.625,-52.75,-27.5625,0
63650,-26.4375,-51.5625,-28.125,0
63670,-12.0625,-48.4375,-36,0
63690,-2.5625,-39.4375,-37.125,0
63710,-9.5,-29.5625,-36.25,0
63730,-17.1875,-22.9375,-36.875,0
63750,-25.5,-15.875,-34.0625,0
63770,-19.5,-8,-27.8125,0
63790,-2.6875,-5.1875,-17.5,0
63810,-1.125,-2.125,-6.1875,0
63830,-5.5,5.5,-5.1875,2001
63850,-13.3125,10.375,0.3125,0
63870,-9.4375,7.9375,7.875,0
63890,-1.625,6.4375,12,0
63910,2.3125,7.0625,10.125,0
63930,-6.375,6.25,3.5,0
63950,-23.75,11.3125,-1.75,0
63970,-17.75,6.375,-1.3125,0
63990,3.4375,1.9375,3.3125,0
64010,18.6875,3.9375,2.3125,0
64030,11.9375,6.3125,0.5625,0
64050,8.9375,10.4375,9.1875,0
64070,10.8125,18.0625,13.875,0
64090,15.5625,23.625,14.0625,0
64110,16.3125,27.9375,11.8125,0
64130,14.25,33,13.3125,0
64150,18.1875,39,16.4375,0
64170,21,45.0625,19.8125,0
64190,18.9375,52.875,13.1875,0
64210,17.9375,58.6875,12.375,0
64230,22.4375,56.75,16.625,0
64250,35.5625,55.0625,21.8125,0
64270,43.6875,57.8125,21.8125,0
64290,42.125,65.375,20,0
64310,35.75,69.75,26.0625,0
64330,32.875,68.125,28.25,0
64350,45.5625,68.9375,25.875,0
64360,67.6875,71.9375,22.875,0
64380,82.0625,67.1875,21.5625,0
64400,76.125,59.5,26.375,0
64420,74.875,66.375,27.25,0
64450,61,56.625,28.8125,0
64460,34.8125,39.0625,35.9375,0
64510,9.1875,3.75,11.625,0
64530,11.25,3.3125,10.75,0
64600,-28.625,49.375,17,0
64640,-37.6875,65.1875,32.875,0
64640,-40.4375,79.25,40.6875,0
64660,-44.5,95.875,46.6875,0
64680,-41,125.812,45.125,0
64700,-43.125,142.688,48.0625,0
64730,-5.5,159.562,68.5,0
64740,-23.4375,117.062,76.875,0
64760,3.25,98.5625,83.25,0
64780,38.8125,90.75,67.125,0
64800,53.8125,83.375,51.0625,0
64820,49.4375,74.6875,46.375,0
64830,46.5,65.0625,46.3125,0
64850,60.3125,60.9375,43.25,0
64870,72.9375,63,39.875,0
64890,52.5,51,29.75,0
64910,34.125,2.75,-10.4375,0
64930,-10.875,-17.1875,-34.875,0
64940,-45.4375,-17.875,3.5,0
64960,-28.3125,-6.75,18.875,0
64980,-20.625,10,25.5,0
65000,-36.4375,23.25,25.5625,0
65020,-55.5,22.3125,17.0625,0
65040,-27.0625,-13.5625,-8.625,0
65060,3.875,-19.625,-11,0
65080,20.375,-19.1875,-8.9375,0
65100,21.625,-11.4375,-4.3125,0
65120,18.3125,0.5,-1.1875,0
65140,12.625,8.25,4.8125,0
65160,6.5,6,1.0625,0
65180,6.6875,-1.5625,-5.875,0
65200,6.6875,-7.125,-10.1875,0
65210,1.4375,-5.25,-9.5625,0
65230,1.625,2.0625,-0.4375,0
65260,0.0625,1.875,-1,0
65280,-0.9375,0.625,-3.875,0
65300,-2.8125,0.1875,-4.4375,0
65320,-3.125,-0.625,-3.3125,0
65340,-2.8125,-1.1875,0.6875,0
65360,-2,-1.4375,4,0
65400,-6,-2.875,6.875,0
65440,-16,-6.4375,9.75,0
65490,-22.6875,-9.125,14.4375,0
65530,-29.5,-11.375,17.1875,0
65550,-7.5,-6.375,13.5625,0
65570,-14.3125,-6.3125,15.875,0
65610,-0.8125,-3.3125,5.375,0
65630,6.1875,-4.25,6.0625,0
65650,0.6875,-2.5,5.5,0
65700,5.75,-0.875,-5.75,0
65730,4.875,-1.375,-2.3125,0
65750,2.25,-1.5625,-1.125,0
65790,0.6875,-0.3125,-1.3125,0
65840,4.75,-1.1875,-3.5,0
65880,1.375,-0.25,0,0
65880,1.375,-1.1875,1.625,0
65900,1.0625,-1.3125,-1.25,0
65940,2.0625,-1.375,-1.3125,0
65970,-0.625,-0.4375,-0.625,0
65990,-0.125,0.25,0.3125,0
66000,1.5,0.75,0.375,0
66020,1.375,0.75,-0.75,0
66040,-0.0625,-0.5625,-0.5,0
66060,1.625,0.1875,0.1875,0
66080,0.125,0.0625,-0.25,0
66100,0.0625,0.3125,-0.8125,0
66120,3.375,-0.5,0.375,0
66140,2.625,-0.375,0.3125,0
66160,1.3125,0,-0.0625,0
66180,1.3125,-0.8125,1.625,0
66210,0.5625,-0.4375,1.1875,0
66250,0.375,0,-0.4375,0
66280,1.125,-0.5625,0.125,0
66300,0.4375,-0.375,0.375,0
66310,-0.3125,-0.125,0.625,0
66320,-1.8125,-0.25,0.75,0
66340,-0.625,-0.625,1,0
66370,-0.8125,-0.375,1,0
66390,-0.875,-0.0625,0.625,0
66400,-0.25,-0.3125,0.4375,0
66420,-0.75,-0.125,0.9375,0
66460,-1.875,0,1.3125,0
66480,-1.5,-0.1875,1.1875,0
66500,-3.3125,0.5,1.625,0
66510,-5.6875,0.625,1.75,0
66530,-5.0625,0.3125,1.625,0
66570,-2.1875,0,0.8125,0
66590,-1.875,0,1.0625,0
66600,-2.0625,0.5,0.125,0
66620,-2.375,0,1.25,0
66670,-5.375,0.5,1.5625,0
66690,-5.125,0.3125,1.0625,0
66710,-4.9375,0.375,0.75,0
66750,-6.4375,1.3125,1,0
66780,-4.5625,0.5625,1.75,0
66790,-4.375,0.5625,1.625,0
66810,-4.3125,0.25,2,0
66830,-4.1875,0.5,2.25,0
66850,-4.1875,0.6875,1.9375,0
66870,-3.625,0.375,2.0625,0
66900,-1.375,0.25,1.75,0
66920,-1.3125,0.25,1.125,0
66940,-2.3125,0.875,1.375,0
66970,-4.125,1.0625,1.1875,0
67000,-0.8125,0.4375,0.375,0
67040,0.875,-0.125,-0.0625,0
67060,0.4375,-0.25,-0.25,0
67100,1.8125,0.8125,-2.5,0
67120,1.3125,0.8125,-2.25,0
67140,-0.3125,1,-1.375,0
67160,-1.6875,1.0625,-0.4375,0
67180,-0.25,0.5,0.4375,0
67190,2.25,-0.375,-1.75,0
67240,-3.875,0.4375,-0.125,0
67260,-1.6875,0.9375,-1.75,0
67300,-4.1875,1.25,-1,0
67310,-4.0625,1.9375,-2.375,0
67320,-1.625,1.3125,-2.375,0
67340,-1.875,0.8125,-0.5,0
67360,-7.875,1.375,4.9375,0
67380,-3.6875,1.3125,-0.5625,0
67390,-2.875,1.75,-2,0
67410,-5.9375,2.8125,-1.8125,0
67430,-5.75,3.25,-0.875,0
67450,-5.9375,3,-0.875,0
67470,-5.875,2.375,-1,0
67490,-5.125,1.9375,-0.875,0
67510,-4.375,1.8125,-1.4375,0
67530,-3.4375,1.9375,-2.25,0
67560,-0.9375,2.25,-3.75,0
67580,-1.5625,2.1875,-3.6875,0
67590,-2.625,1.9375,-2.5625,0
67610,-3.875,1.4375,-0.9375,0
67630,-3,-0.375,2.125,0
67650,-1.625,-0.875,1.875,0
67670,0,-0.75,1.3125,0
67700,3,-0.9375,0.25,0
67730,5.5,-1.5625,-0.375,0
67730,4.5625,-1.125,-0.5,0
67750,1.25,-0.3125,-1.9375,0
67790,-0.125,0.3125,-0.6875,0
67820,-2.375,-0.375,-0.0625,0
67820,-2,-0.8125,-0.375,0
67840,-5.75,-1.5,-0.25,0
67840,-12.1875,-4.4375,1.75,0
67860,-25.4375,-12.75,4.125,0
67880,-25.1875,-17.5,11.375,0
67900,1.875,-52.875,-31.25,0
67930,-26.5,-94.625,-82.4375,0
67950,-32.25,-110.812,-95.6875,0
67970,-28.6875,-128.188,-103.25,0
67990,-25.4375,-141.062,-105.812,0
68010,-30.0625,-150.688,-110.125,0
68020,-41,-158.562,-114.438,0
68040,-61.25,-162.812,-114.938,0
68080,-94.5625,-158.25,-113.062,0
68100,-93.25,-146.75,-113.938,0
68120,-89.3125,-136,-106.5,0
68140,-83.25,-125.188,-100.688,0
68160,-71.375,-113.062,-101.312,0
68180,-57,-102.25,-99.625,0
68200,-49.3125,-94.9375,-95,0
68210,-50.8125,-80.8125,-93.6875,0
68230,-47.5625,-46.3125,-91.6875,0
68250,-40.3125,-30.0625,-89.75,0
68270,-23.5,-18,-87.9375,0
68290,-16.1875,-13,-75.75,0
68310,2.3125,-3,-64.6875,0
68330,28.1875,7.875,-58.3125,0
68370,25.5,27.0625,-25.125,0
68410,27.5,20.5,1.8125,0
68430,25.9375,21.5625,4.625,0
68450,13.625,20,2.9375,0
68470,-4.875,15.5,-2.375,0
68490,-22.875,16.6875,-6.0625,0
68510,-20.8125,16.875,-8.3125,0
68530,-4.8125,10.6875,-2.3125,0
68550,2.4375,5.5,2.125,0
68570,9.875,4.4375,4.25,0
68590,4.375,5.1875,4.6875,0
68610,-6.1875,6.4375,4.8125,0
68630,-3.75,6.125,3.375,1000
68650,0.9375,5,1.4375,0
68670,-0.375,4.375,3.375,0
68690,-3.625,3.25,7.1875,0
68710,-2.25,1.625,8.0625,0
68730,-7.4375,3.4375,6.8125,0
68750,-5.25,7,3,0
68770,5.1875,5.25,1.8125,0
68790,7.25,0.75,3.0625,0
68810,4.5625,-2.3125,3.875,0
68830,-1.9375,-1.0625,-0.4375,0
68850,-10.6875,0.8125,-2.75,0
68870,-6.75,0.6875,-3.9375,0
68890,2.875,-3.4375,-2.5,0
68910,10.875,-5.625,0.75,0
68930,9.1875,-5,0.5,0
68950,1.375,-3.375,0.3125,0
68970,-9.125,-6.625,0.5,0
68990,-12.375,-12.4375,2.4375,0
69010,-6.5625,-19.125,2.8125,0
69030,2.875,-26.75,1.0625,0
69050,9.0625,-35.9375,-3.0625,0
69070,7.8125,-44.5625,-4.375,0
69090,-0.0625,-49.5625,-3.0625,0
69110,-10.375,-53.25,-2.75,0
69130,-13.25,-57.6875,-2.625,0
69150,-6.875,-61.3125,-2,0
69170,-1.8125,-59.3125,-2.9375,0
69200,6.5625,-53.125,-2.1875,0
69240,10.5,-31.875,-4.4375,0
69260,18.5625,-22.75,-2.0625,0
69280,17.9375,-11.3125,0.4375,0
69300,22.5625,-3.375,4.4375,0
69320,20.9375,-2.25,9.0625,0
69340,11.5625,2.75,13.8125,0
69360,24.5625,10.625,21.375,0
69380,33.4375,16.25,23.4375,0
69400,18.6875,25.6875,25.4375,0
69420,15.8125,34,26.9375,0
69440,19.6875,38.5,25,0
69460,22.375,41.9375,28.125,0
69480,24.8125,47.125,29.0625,0
69510,26.625,71.9375,35.5625,0
69580,-12.5,63.0625,16.5,0
69600,-11.375,62.25,11.875,0
69620,-8.1875,54.875,-2.1875,0
69640,-7.0625,51.1875,-7.5625,0
69660,-15.875,44.4375,-11.5625,0
69700,2.0625,25.4375,-25.375,0
69770,4.125,7.625,-41.875,0
69790,32,5.1875,-53.6875,0
69810,20.4375,4,-58,0
69830,11.75,-0.9375,-54.875,0
69850,18.0625,-3.9375,-52.8125,0
69870,20.1875,-6.9375,-47.125,0
69890,-9.1875,-9.4375,-39.9375,0
69910,-4.1875,-12.5625,-38.8125,0
69930,2,-17.375,-35.6875,0
69950,-4.875,-19.1875,-32.6875,0
69970,-10.6875,-21.4375,-32.3125,0
69990,-16.125,-23.8125,-34.125,0
70010,-20.875,-28.5,-33.375,0
70030,-18.125,-28.8125,-27.8125,0
70050,-6.625,-27.6875,-28.625,0
70070,3.25,-32.25,-33.75,0
70090,4.5,-41.25,-32.8125,0
70110,1.875,-49.5625,-29.6875,0
70130,-5.3125,-57.875,-22.4375,0
70150,-11.875,-59.75,-18.0625,0
70170,-10.375,-58.25,-16.6875,0
70190,-1.5625,-61.875,-15.9375,0
70210,6.3125,-65.5,-16.1875,0
70230,10.3125,-66.6875,-14.375,0
70250,7.6875,-65.5625,-14.6875,0
70270,3.3125,-64.0625,-15,0
70290,0.4375,-60.875,-12.75,0
70310,5.5,-59.3125,-8.1875,0
70330,10.625,-57.875,-3.125,0
70350,10.125,-55.0625,-5,0
70370,6.875,-50.625,-9.1875,0
70390,0.25,-46.75,-9.5,0
70410,-2.125,-47.1875,-6.1875,0
70430,2.875,-47.4375,-5.25,0
70450,9.3125,-45.625,-6.9375,0
70480,-3.8125,-37,-4.5,0
70500,-8.25,-29.4375,-6.75,0
70520,-3.125,-26.1875,-4.875,0
70540,2.6875,-23.4375,-3,0
70560,5.625,-14,-1.625,0
70580,9.5,-9.25,-1.6875,0
70600,4.125,-5.5625,-0.8125,0
70620,-5,-0.6875,2.9375,0
70640,0.875,5,8.25,0
70660,3.9375,7.5,9.625,0
70680,1.5625,11.625,13.25,0
70700,2,15.1875,18.25,0
70720,0.5625,20.9375,18.25,0
70740,-0.8125,25.0625,18.4375,0
70760,-1.1875,28.3125,25.8125,0
70780,2.25,35.1875,29.5625,0
70790,-5.8125,42.1875,35.875,0
70800,1.125,43.75,42.5,0
70820,10.8125,49.125,45.3125,0
70840,8.1875,54.0625,43.125,0
70860,-2.125,57.1875,42.4375,0
70880,-3.375,59.25,44,0
70900,8.4375,60.125,39.1875,0
70920,12.375,60.0625,33.8125,0
70940,9.25,60.9375,32.1875,0
70960,5,58.625,29.4375,0
70980,7.1875,54.3125,24.5,0
71000,6.75,51.1875,22.9375,0
71020,5.25,49.125,22.6875,0
71040,4.875,46.6875,20.9375,0
71060,3.25,44.25,18.9375,0
71080,-2.5,42.1875,17.6875,0
71100,-1.75,39.6875,18,0
71120,-4.1875,38.8125,18.375,0
71140,-5.3125,39.3125,16.4375,0
71160,-9.75,39.0625,14.75,0
71180,-10.5,36.75,15.3125,0
71200,-4.4375,36.1875,12.9375,0
71220,-5.9375,36.25,10.875,0
71240,-11.8125,35.5,10.5625,0
71260,-12.9375,37.1875,11.75,0
71280,-3.8125,37.875,5.625,0
71300,-1.6875,37,0.75,0
71320,-3.5625,35.3125,1.75,0
71340,-8.4375,34.8125,2.875,0
71360,-4.3125,34.1875,0.375,0
71380,-4.5625,32.8125,-2.5625,0
71400,-2.4375,30,-5.5,0
71420,-1.625,27.6875,-5.3125,0
71440,-3.9375,24.5,-1.4375,0
71460,-5.25,19.6875,-1.8125,0
71480,-12.5,15.375,-2.4375,0
71500,-11.5,9.4375,-0.75,0
71520,-6.4375,5.3125,-4.4375,0
71540,-5.875,3.5,-9.0625,0
71560,-6.3125,0,-13.375,0
71580,-10.3125,-0.5,-19.375,0
71600,-10.8125,-0.5625,-21.125,0
71620,-7.1875,-0.375,-20.375,0
71640,-6.6875,0.4375,-19.25,0
71660,-1.625,-1.625,-22,0
71680,0.75,-2.3125,-25.0625,0
71700,-3.5625,-4.0625,-25.6875,0
71720,-9.9375,-7.4375,-21.9375,0
71730,-9.5,-14.125,-15.0625,0
71750,-13.5,-22.1875,-11,0
71770,-14.5625,-31.3125,-9,0
71790,-17,-32.4375,-14.3125,0
71810,-22.5,-28.8125,-29.3125,0
71830,-29.125,-23.0625,-35.6875,0
71850,-22.4375,-21.125,-39.4375,0
71880,-0.4375,-13.75,-34.375,0
71900,-11.75,-9.5625,-31.75,0
71920,-22.6875,-6.375,-28.75,0
71930,-23.5625,-0.8125,-25.5,0
71950,-13.375,1.8125,-21.375,0
71970,-7.6875,2.75,-20,0
71990,-6.0625,5.6875,-20.0625,0
72010,-12.5,5.5625,-20.25,0
72030,-9.8125,5.875,-19.6875,0
72050,-3.375,5.75,-18.625,0
72070,-5.8125,3.0625,-14.8125,0
72090,-8.6875,-0.875,-12.25,0
72110,-8.3125,-4.375,-14.25,0
72130,-2.3125,-8.6875,-16.125,0
72150,2.5,-11.25,-18.4375,0
72170,4.375,-15.125,-18.375,0
72190,5.5625,-19.5625,-19.4375,0
72210,5.0625,-22.125,-21.1875,0
72230,8.5,-26.625,-21.5,0
72250,10.8125,-29.375,-18.25,0
72270,6.25,-32,-16.75,0
72290,2.375,-33.5625,-16.25,0
72310,0.0625,-34.5625,-16.3125,0
72330,5.6875,-36.9375,-17.4375,0
72350,4.125,-43.5,-13.875,0
72370,-10.5,-45.3125,-10.25,0
72390,-20.4375,-43.4375,-7,0
72410,-24.0625,-44,-6.75,0
72430,-15.4375,-43.5,-8.625,0
72450,-8.0625,-44.375,-11.5625,0
72470,-4.125,-43.375,-16.875,0
72490,-6.0625,-41.5,-23.0625,0
72510,-7.9375,-39.8125,-21.75,0
72530,-3.875,-36.875,-21.75,0
72550,-4.375,-34.3125,-21.625,0
72570,-7.5625,-32.375,-19.5625,0
72590,-8.625,-31.4375,-18.375,0
72610,-2.5,-30.8125,-12.0625,0
72640,-13.375,-25.9375,-1.375,0
72670,-4.25,-26.1875,-6.1875,0
72690,-0.375,-26.25,-2.125,0
72710,-4.1875,-23.3125,2.375,0
72730,-9.125,-20.625,4.1875,0
72750,-9.3125,-21.875,4.3125,0
72770,-7.875,-21.0625,6,0
72790,-2.25,-16.1875,12.9375,0
72810,1.5,-12.375,18.625,0
72830,-0.5625,-9.4375,23.4375,0
72850,-5.75,-3.875,24.3125,0
72870,-5.9375,2.1875,26.8125,0
72890,0.25,7.875,27.875,0
72910,2.75,15.0625,29.625,0
72930,2.4375,23.8125,34.875,0
72950,5.3125,29.25,39.875,0
72960,13.375,33.75,42.75,0
72980,17,39.0625,41.3125,0
73000,17.4375,45.125,42,0
73020,20.375,48.3125,40.1875,0
73040,18,52.75,32.9375,0
73060,23.0625,56.3125,28.8125,0
73080,27.75,54.3125,28.0625,0
73100,24.5,51.5,36.375,0
73120,21.0625,52.8125,38.875,0
73140,17.8125,57.875,38.8125,0
73160,17.1875,57.75,38.8125,0
73180,19.6875,54.1875,39.4375,0
73200,22.6875,52,40.75,0
73220,20.125,51.0625,39.6875,0
73240,11.6875,50.1875,36.5,0
73260,8.0625,49.875,34.5625,0
73280,11.5625,48.5625,34.9375,0
73300,15.1875,47.6875,29.75,0
73320,15.0625,47.5625,24.5,0
73340,6.375,45.6875,20.6875,0
73360,3.75,44,19.9375,0
73380,2,40.875,19.4375,0
73400,6.875,38.6875,17,0
73430,2.0625,39.25,10.6875,0
73440,-1.125,31.3125,-10.125,0
73480,-5.25,22.25,-9.5,0
73500,-0.8125,19.9375,-11.4375,0
73530,-3.5,5.875,-16.5,0
73550,-8.625,6.0625,-20.3125,0
73570,-5.1875,4.25,-23.1875,0
73590,3.625,0.875,-25.3125,0
73610,3.75,-0.9375,-25.3125,0
73630,-6.125,-0.8125,-23.625,0
73650,-8,-0.6875,-26.375,0
73670,-5.625,-1.75,-29.1875,0
73690,-3.75,-2.625,-28.375,0
73740,-11.3125,-15.875,-27.875,0
73760,-2.1875,-17.0625,-27.25,0
73780,0.1875,-19.5,-28.5,0
73800,-5.8125,-21,-30.25,0
73820,-1.3125,-24.8125,-29.9375,0
73840,6.3125,-28.5,-27.9375,0
73860,7.5625,-29,-30.4375,0
73880,1.5625,-29.5625,-31.5,0
73900,-4.3125,-29.9375,-30.9375,0
73920,-2.6875,-30,-30.1875,0
73940,1.5625,-32.625,-30.9375,0
73960,4.75,-35.3125,-33.125,0
73980,3.9375,-36.1875,-34.5,0
74000,-2.875,-34.6875,-35.9375,0
74020,-7.625,-34.8125,-35.6875,0
74040,-9.0625,-35.75,-33.875,0
74060,-3.5,-37.125,-32.1875,0
74080,-1.5,-42.6875,-33,0
74100,-6.125,-44.8125,-35.4375,0
74120,-11.6875,-45.6875,-35,0
74140,-8.1875,-45.375,-33.625,0
74160,-3.4375,-42.625,-34.125,0
74180,2.4375,-40.8125,-35.5,0
74200,-2.875,-39.1875,-35.25,0
74220,-6.625,-35.875,-34.25,0
74240,-8,-33.75,-32.4375,0
74260,-1.6875,-31.625,-29.875,0
74280,2.5625,-30.4375,-26.375,0
74300,-1.1875,-29.4375,-21.3125,0
74320,-7.125,-26.5,-16.6875,0
74340,-7.875,-22.25,-15.125,0
74360,1.3125,-19.125,-12.0625,0
74380,7,-17.0625,-9.25,0
74400,12.9375,-14.125,-8.4375,0
74420,11.5625,-14.625,-7.4375,0
74440,6.0625,-14.8125,-4.0625,0
74460,2.8125,-12.6875,-0.6875,0
74480,6.3125,-9.5,0.6875,0
74500,13.125,-6.0625,3.1875,0
74520,22.3125,-5.25,1.125,0
74540,14.625,-3.75,0.75,0
74560,7.125,0.625,3.5,0
74580,6.375,5.3125,0.4375,0
74600,12.4375,6.3125,-2.9375,0
74620,13.6875,7.25,-3.375,0
74640,16.375,10.875,-5.625,0
74660,16.75,18.25,-7.0625,0
74680,10.125,21.125,-8.4375,0
74700,4.125,21.6875,-8,0
74720,11.6875,23.875,-10.8125,0
74740,15.75,22.8125,-13.375,0
74760,6.9375,21.25,-10.1875,1001
74780,5.4375,22.1875,-9.625,0
74800,3.375,22.5625,-10.3125,0
74820,0.375,20.1875,-9.625,0
74840,-3.25,17.3125,-6.6875,0
74860,2.8125,15.75,-4.1875,0
74880,0.75,16.625,-2.75,0
74900,1.8125,13.0625,1.1875,0
74920,-1.6875,8.1875,3.5,0
74940,-1.875,7.3125,3.1875,0
74960,1.25,6.5625,2.5625,0
74980,4.875,3.0625,1.125,0
75000,7.3125,-0.375,-2.125,0
75020,11.9375,-0.8125,-4,0
75040,17.5625,-7.75,0.5625,0
75060,16.1875,-18.4375,13.9375,0
75080,24.3125,-25.375,24.375,0
75100,32.625,-30.875,25.75,0
75120,41.375,-37.625,31.8125,0
75140,36.125,-45.75,47.125,0
75160,34.625,-49.3125,60.625,0
75180,36.1875,-47.375,67.875,0
75200,36.5,-46,74.25,0
75220,29.875,-49.3125,81.0625,0
75240,20.625,-45.1875,85.4375,0
75260,24.3125,-36.875,82.75,0
75280,28.1875,-34.6875,76.1875,0
75300,29.25,-31.75,65.4375,0
75320,22.1875,-22.8125,54.5625,0
75360,-8.875,-1,19.75,0
75380,8.25,-2.9375,13,0
75390,21.25,-3,13.75,0
75430,2.6875,8.75,9.1875,0
75450,-17.375,12.375,4.875,0
75490,-48.625,28.375,4.125,0
75510,-44.1875,27.75,11.375,0
75530,-2.0625,26.4375,12.25,0
75550,38.6875,23.3125,7.25,0
75570,49.5,18.875,7.875,0
75590,22.0625,18.8125,3.75,0
75610,-1.4375,4.0625,-4.625,0
75630,7.1875,-0.8125,-1.0625,0
75650,2.125,-3.6875,-0.8125,0
75670,-8.875,-2,-1.125,0
75690,-2.25,2.5625,1.3125,0
75710,11.75,4.5625,0.25,0
75730,10,0.75,1.9375,0
75750,12.375,2.875,-0.5,0
75770,12.1875,3.3125,-1.3125,0
75790,1.3125,3.75,0.75,0
75810,-11.6875,2.25,0.4375,0
75830,-14.5,-0.5625,2.5625,0
75850,-1.4375,-4.0625,2.75,0
75870,4.25,-2.9375,3.625,1000
75890,-2.6875,-0.75,3.0625,0
75910,-8.125,-4.625,1.3125,0
75930,-10.6875,-4.8125,2.6875,0
75950,-0.4375,-3.0625,4.1875,0
75970,2.0625,-4.3125,5,0
75990,-3.0625,-6.5,4.6875,0
76010,-1.375,-6.4375,3.375,0
76030,7.625,-8.375,1.9375,0
76050,5.0625,-9.8125,-0.25,0
76070,0.8125,-10.5,-1.8125,0
76090,3.625,-15.125,-1.4375,0
76110,12.6875,-21.1875,0,0
76130,8.125,-21.3125,-1.375,0
76150,5.625,-20.875,-7,0
76170,8.375,-28.8125,-5.1875,0
76190,15.6875,-32.125,-4,0
76210,22.75,-35.25,-4.625,0
76230,20.0625,-39.125,-6.5625,0
76250,11.375,-40.5,-7.8125,0
76270,6.5625,-40.4375,-8.8125,0
76290,14.3125,-44.75,-8.0625,0
76310,17.3125,-43.25,-7.875,0
76320,23.375,-39.75,-12.25,0
76340,17.875,-37.3125,-14,0
76360,11.9375,-35.125,-11.75,0
76380,9.375,-31.9375,-10.25,0
76400,14.8125,-29.875,-6,0
76430,17.375,-21.75,-1.5625,0
76450,22.875,-18.875,-0.9375,0
76480,16.25,-11.875,2.25,0
76500,11,-4.1875,4.6875,0
76510,19.25,22.125,17.1875,0
76530,4.75,34.1875,18.125,0
76540,13.125,33.4375,23,0
76560,22.9375,34,27.625,0
76580,31.8125,42.125,28.75,0
76600,28.5625,52.5,24.375,0
76620,16.4375,61.125,21.5,0
76640,19.6875,64.25,21.1875,0
76650,26.75,65.9375,22.5,0
76670,28.5,70.3125,19.4375,0
76680,26.625,71,21.6875,0
76700,23.0625,68.3125,24.75,0
76720,19.6875,69.1875,21.5625,0
76740,16.75,69.125,18.5,0
76760,16.3125,63.4375,17.875,0
76780,9.125,58.9375,19.125,0
76800,10.8125,56.8125,18.125,0
76820,15.3125,49.375,12.3125,0
76840,18.1875,43.875,5.625,0
76860,11.1875,39.4375,2.8125,0
76880,8,35.5625,3.125,0
76900,7.75,31.1875,1.4375,0
76920,4.5,28.375,-1.1875,0
76940,-3.75,27.375,-3.1875,0
76960,-11.75,25.75,2.3125,0
76980,-12.9375,26.625,8.625,0
77000,-13.8125,27.75,6.4375,0
77020,-9.8125,26.1875,4.4375,0
77040,-12.1875,29.5625,1.375,0
77060,-17.4375,33.4375,0,0
77080,-26,33.625,1.1875,0
77100,-23.25,33.875,1.5625,0
77120,-4.0625,33.125,1,0
77140,6.375,31.1875,-3.5625,0
77160,-5.9375,33.1875,-7,0
77180,-13.1875,30.5625,-9.375,0
77200,-14.8125,28.5,-9.125,0
77220,-6.4375,24.4375,-9.625,0
77260,-3.0625,20.25,-17.375,0
77280,-9.8125,16.1875,-18.8125,0
77320,-3.9375,7.25,-19.8125,0
77340,-1.25,4.5625,-20.5,0
77360,-6,1.8125,-21.1875,0
77380,-15,-3.125,-22.1875,0
77410,3.25,-10.75,-31.8125,0
77440,-1.375,-13.4375,-31.6875,0
77460,-1.0625,-15.1875,-27.875,0
77480,-5.75,-16,-27.125,0
77500,-8.5625,-18.5625,-28.4375,0
77520,-14.3125,-21.75,-25.875,0
77540,-15.625,-21.9375,-25.1875,0
77560,-13.5,-23.8125,-24.875,0
77580,-19.5,-26.25,-21.5,0
77600,-14.4375,-29.6875,-24.5,0
77620,-13.3125,-33.1875,-27.4375,0
77640,-23.125,-34.6875,-26.0625,0
77670,-8.25,-35.5,-31.3125,0
77690,-13.1875,-34.1875,-30.125,0
77710,-11.5,-33.6875,-29.3125,0
77730,-8.3125,-34.5625,-30.625,0
77750,-3.75,-36.125,-31.125,0
77770,-7,-35.5625,-30.125,0
77790,-18.4375,-31.25,-27.3125,0
77810,-22.875,-26.75,-24.375,0
77830,-12.5,-27.5625,-19.375,0
77850,-5.8125,-29.1875,-17.5625,0
77870,2.875,-30.5625,-17.625,0
77890,-11.625,-29.125,-15.75,0
77910,-21.9375,-23.9375,-12.125,0
77930,-20.125,-23.75,-10.9375,0
77950,-8,-27.625,-8.6875,0
77970,6.6875,-30.5,-9.125,0
77990,5.5,-26,-15,0
78010,-11,-26.25,-13.75,0
78030,-19.375,-26.0625,-13.1875,0
78050,-7.5625,-26.9375,-11.3125,0
78070,7.125,-35,-5.0625,0
78090,14.375,-37.5,-5.6875,0
78110,-2.875,-33.875,-7.875,0
78130,-12.875,-30.9375,-6.5625,0
78150,-9.25,-34.6875,-9.4375,0
78170,8.1875,-38.8125,-8.4375,0
78190,11.6875,-36.9375,-5.25,0
78210,0.5625,-33.5,-0.75,0
78230,-8.5,-29.0625,-0.75,0
78250,-10.5625,-24.25,-2.8125,0
78270,-8.3125,-25.3125,0.875,0
78290,-2.9375,-22.1875,3.125,0
78310,0.75,-16.125,3.6875,0
78330,-5.0625,-10.25,-0.6875,0
78350,-17.1875,-8.125,-2.8125,0
78370,-8.9375,-8.3125,-1.4375,0
78390,8.4375,-8.5,-3.625,0
78410,17.5,-11.6875,-7.25,0
78430,8.875,-10.875,-6.3125,0
78430,1.125,-8.4375,-4.1875,0
78450,2.5625,-7.6875,-0.3125,0
78470,8.125,-11.3125,3.6875,0
78490,16.25,-9,2.9375,0
78510,14.8125,-5.3125,5.8125,0
78530,11.4375,-5.0625,8.4375,0
78550,17.1875,-4.125,6.625,0
78570,23.375,-0.5625,7.4375,0
78590,15.9375,8.4375,11.3125,0
78610,20.3125,11.875,10.5,0
78630,26.3125,15.8125,5.75,0
78650,26.125,20.75,5.4375,0
78670,25,20.9375,8.9375,0
78670,29.0625,23.25,10.375,0
78700,14.9375,36.1875,13,0
78720,25.25,40.6875,16.625,0
78740,36.4375,45.875,10.0625,0
78760,29.5,50,6.625,0
78780,18.75,48.9375,10.25,0
78800,22.5,50.625,15.25,0
78820,24.5,54.9375,17.125,0
78840,23.9375,58.1875,17.8125,0
78860,14.8125,58.5,21.625,0
78880,9.4375,61.25,23.0625,0
78900,9.8125,64.8125,21.0625,0
78920,6.9375,65.75,24,0
78940,0.9375,62.75,26.5625,0
78960,6.3125,60.0625,26.625,0
78980,8.8125,58,20.8125,0
79000,1.8125,57.125,16.875,0
79020,-5.3125,54.8125,17.375,0
79040,-6.9375,52.5625,19.375,0
79060,-4.1875,51.125,19,0
79080,-3.3125,49.0625,17,0
79100,-5.8125,47.875,14.4375,0
79120,-14.375,47.0625,14.4375,0
79140,-14.875,46.125,16.4375,0
79160,-12.1875,44.875,17.3125,0
79180,-5.5625,46.0625,15.3125,0
79200,0.75,45.6875,5.625,0
79220,-2.75,45.1875,-1,0
79240,-14.125,42.75,-1.3125,0
79260,-12.0625,38.4375,-0.6875,0
79280,-5.6875,34.6875,0.3125,0
79300,-3.9375,29.875,0.6875,0
79320,-7.5,28.5,-3.875,0
79340,-12.9375,25.875,-5.5,0
79360,-20.6875,22.3125,-0.75,0
79380,-14.1875,19.0625,-2.125,0
79400,-0.375,14.75,-8.75,0
79420,0.625,12.9375,-12.875,0
79440,-10.375,11.1875,-12.5,0
79460,-17,10.125,-11,0
79480,-17.6875,9.8125,-9.4375,0
79500,-4.375,4.3125,-11.75,0
79520,1.3125,0.125,-16.3125,0
79540,2.1875,-0.4375,-18.3125,0
79560,-6.25,-3.8125,-15.5625,0
79580,-14,-6.1875,-15.375,0
79600,-5.375,-5.625,-22.6875,0
79620,0.1875,-7.4375,-25,0
79630,1.5,-8.5625,-24.8125,0
79650,1.25,-7.25,-25.375,0
79670,-6.0625,-7.375,-27.5625,0
79690,-9.9375,-9.875,-27.5625,0
79710,-4.0625,-13.3125,-30.4375,0
79730,3.6875,-17.375,-29.25,0
79750,-2.75,-22,-22.9375,0
79770,-18.625,-19,-24.875,0
79790,-22,-19.4375,-27.1875,0
79810,-21.6875,-19.125,-27.1875,0
79830,-2.9375,-18.4375,-30.875,0
79850,9.6875,-23.8125,-31.25,0
79870,12.625,-25.875,-33.125,0
79890,9.3125,-29.875,-35.25,0
79910,1.0625,-31,-38.5,0
79930,3.625,-31.625,-40,0
79950,6.5625,-39.4375,-37.375,0
79970,13.4375,-38.1875,-36.4375,0
79990,18.375,-40.5,-35.6875,0
80010,9.3125,-42.625,-33.5,0
80030,-1.25,-42.1875,-24.1875,0
80050,12.125,-49,-17.8125,0
80070,7.625,-51.875,-15.3125,0
80090,1.75,-54.75,-15.4375,0
80110,-2.4375,-57.625,-15.5625,0
80130,-5.6875,-59.1875,-16.625,0
80150,-6.0625,-57.5625,-18.875,0
80170,2.3125,-55.875,-19.875,0
80190,12.1875,-56.875,-18.875,0
80210,12.875,-55.625,-16.9375,0
80230,5.625,-52.5625,-15.6875,0
80250,1.0625,-55.0625,-15,0
80270,-10.3125,-56.6875,-17.875,0
80290,-5.875,-57.5,-20.875,0
80310,1.625,-58.25,-20.125,0
80350,-4.8125,-54.0625,-17,0
80370,-6.3125,-49.6875,-14.4375,0
80390,-0.1875,-46.25,-16.8125,0
80410,1.75,-43.0625,-16.0625,0
80430,-0.75,-41.6875,-9.5,0
80450,-2.125,-34.9375,-5.5625,0
80470,2.4375,-28,-5.625,0
80490,2.8125,-22.5625,-3.375,0
80510,-0.4375,-20.3125,-0.1875,0
80530,-1.8125,-14.5,2.25,0
80550,-2.625,-6.1875,3.5,0
80570,2.0625,-0.5,8.0625,0
80590,0.3125,4.375,12.5,0
80610,7.3125,12,16.5625,0
80630,12.1875,18.3125,10.625,0
80650,7.25,24,8.3125,0
80670,5.375,25.6875,11.875,0
80690,7.1875,31.0625,19.1875,0
80710,14.375,37.1875,21.25,0
80730,15,41.5625,19.375,0
80750,16.6875,48.3125,17.875,0
80780,22.375,61.625,21.625,0
80800,29.1875,64.0625,22.375,0
80820,27.375,64,22.1875,0
80840,20.75,65.1875,27.6875,0
80860,15.625,69.875,32.25,0
80880,10.375,73.75,31.6875,0
80900,14.0625,78.5,31.1875,0
80920,24.1875,84.125,24.5625,0
80940,21.1875,81.75,20.25,0
80960,8.6875,76.625,21.875,0
80980,8.625,80.5,19,0
81000,11.75,84.875,17.0625,0
81020,10.9375,74.9375,17.25,0
81040,9.25,66.3125,20.6875,0
81060,8.625,64.1875,20.75,0
81080,-0.125,65.3125,14.875,0
81100,-10.875,60.875,13.75,0
81120,-13.9375,55.5625,16.375,0
81140,3.4375,48.875,11.8125,0
81160,-9.125,51.0625,7.375,0
81170,-23.4375,43.75,5.875,0
81200,5.375,37.125,-0.8125,0
81220,2.8125,15.25,-1.6875,0
81240,2.25,14.0625,-6.3125,0
81260,0.875,12.4375,-8.4375,0
81280,-7.9375,7.125,-4,0
81300,-10.5625,0.125,-0.125,0
81320,0.25,-3.5,-5.3125,0
81340,9.75,-8.0625,-11.25,0
81360,0.625,-14.75,-10.0625,0
81380,-13.5625,-17.6875,-6.6875,0
81400,-20.3125,-19.9375,-6.4375,0
81420,-10.375,-19.5,-12.8125,0
81440,-10.8125,-24.1875,-13,0
81460,-14.3125,-25.375,-12.5,0
81480,-19.3125,-25.3125,-16.5625,0
81500,-19.875,-27.75,-19.875,0
81520,-23.25,-33.75,-21.3125,0
81540,-22.875,-39.75,-20.5,0
81560,-23.9375,-45.375,-20.9375,0
81580,-25.875,-46.6875,-26.5625,0
81600,-33.4375,-44.8125,-39.0625,0
81620,-27.625,-43.125,-48.6875,0
81640,-13,-46.25,-52.75,0
81660,-4.1875,-48.6875,-58.5,0
81680,6,-49.1875,-62.875,0
81700,6.5625,-54.5625,-60,0
81720,-0.8125,-55.8125,-55.5,0
81740,4.1875,-51.5625,-54.0625,0
81760,9.4375,-56.3125,-50.5,0
81780,7.9375,-62.3125,-44.9375,0
81800,10.75,-58.25,-44.0625,0
81820,14.9375,-58.75,-43.375,0
81840,8.25,-67.75,-38,0
81860,14.25,-68.0625,-31.9375,0
81880,19.1875,-68.125,-31.8125,0
81900,13,-72.75,-31.75,0
81920,14.3125,-73.6875,-32.4375,0
81940,14,-69.6875,-32,0
81960,14,-70.5,-34.875,0
81980,11.75,-68.3125,-33.25,0
82000,4.875,-57.6875,-29.9375,0
82030,4.75,-34.9375,-30,0
82050,-1.75,-24.3125,-25.375,0
82080,0.6875,-15,-20.4375,0
82100,6.375,-8.125,-18.25,0
82120,11.25,3,-17.6875,0
82140,6.5625,6,-12.9375,0
82160,-5.5,10.0625,-4.375,0
82180,-2.625,14.3125,-2.375,0
82200,10.0625,11.8125,-5.75,0
82220,10.4375,8.1875,-3.0625,0
82230,4.0625,11.5625,0.625,1001
82250,-2,14.5,3.5,0
82290,14.3125,12.25,10.625,0
82330,12.25,8.6875,0.125,0
82360,4.125,7.3125,-2.5,0
82380,9.5625,4.875,-3.625,0
82410,0.6875,-1.6875,2.9375,0
82430,12.25,-0.625,6.375,0
82450,32.25,-9.6875,21.5625,0
82470,32.8125,-20,37.0625,0
82490,32.0625,-22.25,47.6875,0
82510,29.5625,-20.8125,56.4375,0
82530,29.3125,-25.3125,74.375,0
82550,27.875,-27.0625,95,0
82570,34.5,-24.25,104,0
82590,35.875,-23.875,109.5,0
82610,29.3125,-26.625,115.375,0
82630,13.4375,-25.125,115.438,0
82650,2.25,-19.625,109,0
82680,-26.75,-12.5625,73.6875,0
82700,-26,-1.625,58.375,0
82710,-37.25,19.875,30,0
82740,-23.375,27,9.0625,0
82760,-36.625,41.25,-3.25,0
82780,-53.3125,50,-7.9375,0
82800,-48.5,47.375,-7.25,0
82820,-21.0625,42.25,-3.875,0
82840,-1.5,45.0625,-2.625,0
82860,-2.875,49.25,-5.75,0
82880,-21.0625,48.0625,-5.5625,0
82900,-31,37.875,-2.25,0
82920,-12.8125,29.375,1,0
82940,5.0625,21.5,-1.0625,0
82960,7.5,16.1875,-3.25,0
82980,-6.6875,10.5,-4.75,0
83000,-14.1875,7.5,-6.75,0
83020,-0.625,3.6875,-6.875,0
83040,12.25,-0.3125,-4.4375,0
83060,18.25,-2.625,-5.875,0
83080,5.375,-2.9375,-1.9375,0
83100,-2.375,-2.6875,-2.25,0
83120,-11.125,0.875,-1.9375,0
83140,-10.25,-0.0625,0.3125,1000
83160,-3.1875,0.4375,0.375,0
83180,10,0.8125,5.375,0
83200,6.3125,-2.875,6.875,0
83220,-4.9375,-4.1875,6.0625,0
83240,-16.5,-3.75,5.125,0
83260,-15.875,-3.4375,2.5,0
83280,-9.375,-7.875,4.125,0
83300,-4.875,-14.375,7.625,0
83320,-7.25,-17.875,5.9375,0
83340,-16.5625,-19.4375,4.125,0
83360,-17.3125,-20.5625,2.375,0
83380,-8.5625,-23.375,1.3125,0
83400,-4.4375,-26,0.6875,0
83420,0.5,-24.0625,-4.25,0
83440,4.875,-23.8125,-6.1875,0
83460,3.5,-25.375,-6.8125,0
83480,-1.125,-28.0625,-9.625,0
83500,-1.125,-32.25,-10.375,0
83520,-1.875,-35,-6.25,0
83540,3.1875,-39.0625,-2.9375,0
83560,5.4375,-42.1875,-0.9375,0
83580,5.3125,-44.125,1.5625,0
83600,8.1875,-44.3125,2.4375,0
83620,10.875,-43.3125,3.375,0
83640,6.5625,-40.75,8.625,0
83660,4.4375,-38.125,14.5625,0
83680,16.375,-36.1875,19.75,0
83700,27.9375,-29.4375,19,0
83720,23.9375,-21.875,15.6875,0
83740,13,-16.5625,18.5,0
83760,11.875,-9.9375,23.25,0
83760,35.375,1.8125,21.625,0
83780,37.9375,9.625,19.0625,0
83790,23.3125,16.8125,27.0625,0
83810,18.125,27.4375,32.9375,0
83830,28.5625,35.5,29,0
83850,43.8125,37.5625,25.9375,0
83870,49.9375,36.375,24,0
83890,41.6875,35.875,19.0625,0
83910,38.6875,40,12.5625,0
83930,39.25,39.375,10.0625,0
83940,38.375,39.4375,12.5,0
83960,36.5,43.1875,10.6875,0
83980,31.8125,50.625,11.5625,0
84000,23.4375,51.1875,15.5,0
84020,15,52.125,20.375,0
84040,16.3125,52.625,21.4375,0
84060,22.75,55.375,19.3125,0
