Timestamp, Angle x, Angle y, Angle z, Marker
40,-1.10272,0.600237,0.376845,0
60,-1.10229,0.602706,0.373655,0
80,-1.10189,0.604271,0.369903,0
100,-1.10257,0.605184,0.365947,0
120,-1.10406,0.606193,0.36191,0
140,-1.10614,0.607775,0.358208,0
160,-1.10922,0.609759,0.354758,0
170,-1.11318,0.611452,0.352002,0
180,-1.11726,0.612782,0.350213,0
220,-1.12114,0.614777,0.349297,0
240,-1.12375,0.617344,0.349271,0
260,-1.12516,0.620092,0.349729,0
280,-1.12506,0.622162,0.350441,0
300,-1.12467,0.624685,0.351102,0
310,-1.12402,0.626579,0.351408,0
330,-1.12277,0.628345,0.351645,0
350,-1.12205,0.629895,0.352135,0
370,-1.12256,0.631098,0.352088,0
390,-1.12347,0.63203,0.351631,0
410,-1.12381,0.632638,0.351695,0
430,-1.12281,0.633414,0.352759,0
450,-1.12205,0.634541,0.353965,0
470,-1.12228,0.636345,0.355454,0
490,-1.12355,0.637758,0.356423,0
510,-1.12549,0.639078,0.357326,0
530,-1.12649,0.640386,0.358721,0
550,-1.12617,0.642003,0.360192,0
570,-1.12475,0.643404,0.362438,0
590,-1.12358,0.645179,0.364197,0
610,-1.12209,0.646738,0.366062,0
630,-1.12098,0.64831,0.366817,0
650,-1.12089,0.649761,0.366833,0
670,-1.12005,0.649508,0.365338,0
690,-1.11791,0.647817,0.362681,0
710,-1.11492,0.645752,0.359473,0
730,-1.1115,0.643292,0.356539,0
750,-1.10848,0.640349,0.353982,0
770,-1.10631,0.638628,0.352124,0
790,-1.10479,0.638068,0.351659,0
810,-1.10486,0.638219,0.351401,0
830,-1.10486,0.638219,0.351401,0
850,-1.10468,0.637623,0.351507,0
870,-1.10343,0.636832,0.351892,0
890,-1.1027,0.635541,0.352394,0
910,-1.10217,0.633536,0.353009,0
930,-1.10135,0.6317,0.353599,0
950,-1.09973,0.628833,0.354195,0
970,-1.0975,0.627213,0.35545,0
990,-1.0958,0.624817,0.356595,0
1010,-1.09347,0.622926,0.357726,0
1030,-1.09103,0.62049,0.358513,0
1050,-1.08846,0.617659,0.359473,0
1070,-1.08547,0.614704,0.360669,0
1090,-1.0823,0.61102,0.361964,0
1110,-1.07872,0.607838,0.364073,0
1130,-1.07591,0.604228,0.36621,0
1150,-1.07347,0.600491,0.368164,0
1170,-1.07062,0.597186,0.370555,0
1190,-1.06864,0.593825,0.372854,0
1210,-1.06671,0.590917,0.374646,0
1230,-1.06405,0.588226,0.376536,0
1270,-1.0568,0.582079,0.379933,0
1290,-1.05303,0.578663,0.381265,0
1310,-1.04996,0.574793,0.382401,0
1330,-1.04633,0.570501,0.383402,0
1340,-1.04211,0.565769,0.384225,0
1360,-1.03742,0.560921,0.385357,0
1380,-1.03225,0.555741,0.385961,0
1400,-1.02717,0.550147,0.386274,0
1420,-1.02065,0.545853,0.386921,0
1440,-1.01392,0.541823,0.387143,0
1470,-0.999983,0.532684,0.388625,0
1490,-0.992854,0.526898,0.389379,0
1510,-0.985029,0.521583,0.390373,0
1530,-0.976849,0.516392,0.39174,0
1550,-0.96871,0.510759,0.393267,0
1570,-0.96021,0.506047,0.395107,0
1590,-0.951962,0.501033,0.397774,0
1610,-0.943334,0.496696,0.400856,0
1640,-0.927901,0.485674,0.405238,0
1660,-0.912084,0.477064,0.409846,0
1680,-0.906148,0.472507,0.412477,0
1700,-0.900773,0.468214,0.414976,0
1720,-0.89686,0.464091,0.416948,0
1740,-0.89263,0.459497,0.419243,0
1750,-0.888909,0.45494,0.421308,0
1760,-0.885787,0.450939,0.422712,0
1780,-0.883489,0.447052,0.423869,0
1800,-0.882053,0.443221,0.424847,0
1820,-0.880359,0.439492,0.425346,0
1840,-0.879032,0.435774,0.42537,0
1860,-0.877219,0.432316,0.425956,0
1880,-0.874631,0.428802,0.426589,0
1910,-0.870722,0.422797,0.428058,0
1930,-0.868797,0.419532,0.42824,0
1950,-0.866705,0.416405,0.42852,0
1960,-0.864913,0.413579,0.429472,0
1990,-0.861185,0.405334,0.432368,0
2000,-0.853523,0.401499,0.435246,0
2010,-0.849521,0.401,0.437315,0
2050,-0.848005,0.398613,0.437029,0
2070,-0.850142,0.396667,0.436752,0
2090,-0.850741,0.394217,0.435578,0
2110,-0.848775,0.393399,0.436253,0
2120,-0.84712,0.392021,0.437567,0
2140,-0.846076,0.391287,0.43897,0
2170,-0.840826,0.387472,0.443738,0
2190,-0.838338,0.386416,0.445981,0
2210,-0.835505,0.384359,0.452093,0
2230,-0.835754,0.383726,0.455196,0
2240,-0.83922,0.383305,0.461453,0
2240,-0.840867,0.382275,0.471864,0
2260,-0.83937,0.381478,0.475758,0
2280,-0.8363,0.377513,0.49124,0
2310,-0.828953,0.373592,0.505556,0
2330,-0.827331,0.372893,0.510149,0
2340,-0.82555,0.372668,0.51524,0
2380,-0.821822,0.370807,0.535898,0
2400,-0.82098,0.369766,0.540675,0
2410,-0.820101,0.369059,0.545337,0
2430,-0.819572,0.368158,0.549302,0
2450,-0.819973,0.367279,0.552646,0
2460,-0.820404,0.366638,0.555354,0
2480,-0.820873,0.365842,0.557055,0
2500,-0.814265,0.35956,0.554864,0
2530,-0.80886,0.352063,0.535037,0
2550,-0.806252,0.348145,0.525607,0
2570,-0.800545,0.339008,0.506329,0
2600,-0.796317,0.325646,0.480904,0
2630,-0.79558,0.321588,0.472097,0
2650,-0.796695,0.321803,0.471518,0
2670,-0.799092,0.322891,0.472917,0
2690,-0.801178,0.324264,0.476337,0
2710,-0.802983,0.326139,0.480415,0
2720,-0.804843,0.328318,0.484786,0
2730,-0.809079,0.329872,0.489422,0
2750,-0.81528,0.331822,0.493525,0
2770,-0.821334,0.334748,0.4971,0
2790,-0.82439,0.33851,0.500651,0
2810,-0.824275,0.342012,0.504123,0
2830,-0.823018,0.345136,0.505495,0
2850,-0.824187,0.348712,0.503865,0
2870,-0.827559,0.35198,0.500062,0
2890,-0.833198,0.35505,0.494552,0
2910,-0.838354,0.358314,0.488448,0
2930,-0.841727,0.360837,0.483159,0
2950,-0.845289,0.363046,0.478567,0
2970,-0.851064,0.365532,0.474221,0
2990,-0.871237,0.377224,0.461512,0
3010,-0.879915,0.384654,0.453533,0
3030,-0.893557,0.387837,0.442359,0
3060,-0.911975,0.38605,0.421004,0
3080,-0.927244,0.389,0.401231,0
3090,-0.937231,0.398627,0.410552,0
3110,-0.941339,0.403357,0.415164,0
3110,-0.951931,0.452278,0.457537,0
3130,-0.956173,0.458872,0.459441,0
3140,-0.961208,0.465637,0.460848,0
3150,-0.970349,0.47791,0.463124,0
3170,-0.975175,0.482861,0.463588,0
3190,-0.98047,0.487294,0.463323,0
3200,-0.98702,0.491235,0.461871,0
3210,-1.00046,0.497105,0.457086,0
3230,-1.00581,0.499624,0.453698,0
3250,-1.01827,0.507091,0.441652,0
3270,-1.02991,0.512098,0.431107,0
3290,-1.03744,0.514291,0.425811,0
3310,-1.04545,0.516112,0.420592,0
3340,-1.06085,0.518599,0.41253,0
3370,-1.08194,0.520486,0.401379,0
3380,-1.08735,0.519372,0.397787,0
3380,-1.09634,0.504796,0.375135,0
3400,-1.095,0.499669,0.370555,0
3400,-1.08788,0.48497,0.357323,0
3420,-1.08742,0.48389,0.356289,0
3420,-1.08574,0.482018,0.355809,0
3440,-1.08332,0.480422,0.355621,0
3460,-1.08114,0.478533,0.355344,0
3480,-1.07915,0.4765,0.354978,0
3510,-1.06891,0.468576,0.353665,0
3530,-1.06339,0.46653,0.353612,0
3550,-1.05742,0.463905,0.353758,0
3570,-1.05131,0.461229,0.354126,0
3590,-1.04462,0.459466,0.355079,0
3590,-1.03954,0.456912,0.35581,0
3630,-1.01096,0.443502,0.354446,0
3650,-1.00741,0.441204,0.351798,0
3650,-0.986584,0.430946,0.343672,0
3680,-0.955871,0.422416,0.352405,0
3720,-0.92899,0.411894,0.364924,0
3740,-0.918328,0.407203,0.368091,0
3760,-0.891738,0.396653,0.374247,0
3780,-0.86322,0.390179,0.380294,0
3800,-0.851144,0.385776,0.382075,0
3820,-0.841458,0.382483,0.384486,0
3840,-0.834024,0.378921,0.38648,0
3860,-0.828306,0.374038,0.387262,0
3880,-0.822101,0.373086,0.388896,0
3900,-0.815912,0.370037,0.389476,0
3920,-0.809457,0.368007,0.390991,0
3940,-0.805679,0.363872,0.3916,0
3960,-0.803551,0.361436,0.39347,0
3980,-0.801051,0.358575,0.395848,0
4000,-0.797305,0.354998,0.39856,0
4020,-0.793718,0.351914,0.400789,0
4040,-0.788494,0.34897,0.402843,0
4070,-0.777762,0.341835,0.404606,0
4090,-0.773541,0.338833,0.40529,0
4110,-0.772036,0.336053,0.406334,0
4130,-0.771947,0.332437,0.406731,0
4150,-0.770526,0.327498,0.40553,0
4170,-0.765831,0.322941,0.403504,0
4190,-0.758784,0.318876,0.402131,0
4210,-0.751532,0.314643,0.402346,0
4230,-0.746395,0.31143,0.403643,0
4260,-0.744503,0.310353,0.407059,0
4280,-0.747526,0.312244,0.409042,0
4320,-0.757733,0.317121,0.413471,0
4340,-0.761963,0.318797,0.415955,0
4360,-0.76552,0.321054,0.419264,0
4380,-0.769319,0.321869,0.420614,0
4400,-0.771998,0.321553,0.420672,0
4420,-0.773687,0.320669,0.420033,0
4440,-0.775194,0.319655,0.418942,0
4460,-0.777106,0.318493,0.417851,0
4480,-0.779961,0.318066,0.417224,0
4500,-0.783268,0.318224,0.417049,0
4520,-0.785371,0.318313,0.416879,0
4540,-0.786388,0.317527,0.416001,0
4560,-0.786402,0.316996,0.415104,0
4590,-0.785128,0.316065,0.413473,0
4640,-0.787643,0.314474,0.408627,0
4650,-0.787717,0.313756,0.406949,0
4670,-0.788185,0.312554,0.405192,0
4700,-0.790067,0.310138,0.400707,0
4720,-0.790404,0.309097,0.398486,0
4740,-0.79065,0.308195,0.396594,0
4760,-0.791854,0.30747,0.394863,0
4780,-0.794832,0.307036,0.392742,0
4800,-0.800079,0.307079,0.390669,0
4820,-0.806736,0.308161,0.388946,0
4840,-0.813971,0.309671,0.387512,0
4860,-0.821327,0.311415,0.386547,0
4880,-0.827949,0.313231,0.386152,0
4900,-0.836707,0.316885,0.388193,0
4920,-0.839135,0.319407,0.390434,0
4940,-0.841373,0.322349,0.393102,0
4960,-0.844481,0.324959,0.395687,0
4980,-0.848765,0.326969,0.397502,0
5010,-0.857967,0.330801,0.399073,0
5050,-0.864452,0.333211,0.399261,0
5080,-0.876413,0.336917,0.397555,0
5110,-0.897703,0.33988,0.391153,0
5160,-0.953059,0.352738,0.396535,0
5180,-0.961289,0.355871,0.398441,0
5210,-1.01033,0.379953,0.40894,0
5250,-1.00092,0.381425,0.388366,0
5280,-0.983446,0.379076,0.38584,0
5320,-0.945228,0.373378,0.382797,0
5340,-0.943426,0.373245,0.37882,0
5350,-0.938465,0.378125,0.380413,0
5370,-0.932573,0.383308,0.388358,0
5400,-0.925997,0.394145,0.406926,0
5420,-0.927018,0.40189,0.415683,0
5440,-0.928968,0.404024,0.417275,0
5470,-0.910254,0.421181,0.445829,0
5500,-0.898759,0.422113,0.452912,0
5580,-0.857616,0.411486,0.478236,0
5580,-0.857676,0.411322,0.477863,0
5630,-0.872174,0.412386,0.474529,0
5690,-0.869828,0.40595,0.465187,0
5700,-0.871054,0.404567,0.462202,0
5720,-0.872439,0.404839,0.4627,0
5740,-0.874626,0.405793,0.462342,0
5760,-0.874699,0.405455,0.461882,0
5790,-0.87675,0.40524,0.459353,0
5830,-0.875416,0.404754,0.458976,0
5850,-0.875253,0.404716,0.458986,0
5880,-0.873588,0.404056,0.459293,0
5890,-0.871453,0.40363,0.459535,0
5930,-0.871174,0.403453,0.459631,0
5950,-0.871181,0.403341,0.459675,0
5960,-0.870711,0.403362,0.460317,0
6010,-0.871451,0.405142,0.463379,0
6030,-0.871936,0.405315,0.46365,0
6030,-0.872401,0.405613,0.464501,0
6050,-0.872334,0.405891,0.464828,0
6050,-0.874906,0.407124,0.465087,0
6070,-0.875266,0.407325,0.465224,0
6090,-0.875828,0.407575,0.465385,0
6110,-0.876299,0.407974,0.46557,0
6130,-0.876809,0.408332,0.465966,0
6140,-0.877444,0.408718,0.466318,0
6160,-0.879708,0.409664,0.466995,0
6160,-0.879552,0.409513,0.467048,0
6180,-0.879538,0.409633,0.467317,0
6200,-0.879716,0.409975,0.467868,0
6220,-0.879716,0.409975,0.467868,0
6240,-0.879716,0.409975,0.467868,0
6240,-0.87959,0.409947,0.467912,0
6250,-0.879427,0.409909,0.467922,0
6280,-0.879271,0.409758,0.467975,0
6300,-0.879302,0.409829,0.468145,0
6360,-0.877269,0.408544,0.467965,0
6370,-0.877137,0.408576,0.468144,0
6390,-0.876009,0.407501,0.467837,0
6450,-0.875775,0.407222,0.468011,0
6470,-0.875612,0.407184,0.468021,0
6500,-0.875495,0.407044,0.468108,0
6520,-0.875332,0.407006,0.468117,0
6540,-0.875332,0.407006,0.468117,0
6560,-0.875207,0.406978,0.468161,0
6580,-0.875045,0.40694,0.468171,0
6640,-0.874198,0.406518,0.468418,0
6640,-0.874236,0.406529,0.468453,0
6690,-0.874178,0.40592,0.470027,0
6710,-0.873853,0.405843,0.470046,0
6790,-0.999211,0.441995,0.423607,0
6820,-1.00862,0.426873,0.369828,0
6840,-0.998034,0.400178,0.36949,0
6880,-0.976604,0.143241,0.354337,0
6900,-0.977422,0.0962056,0.355798,0
6920,-0.978552,0.0478869,0.359338,0
6940,-0.980967,-0.00176624,0.364115,0
6970,-0.997499,-0.148977,0.381964,0
6990,-1.00658,-0.195064,0.38917,0
7010,-1.01691,-0.237103,0.396924,0
7030,-1.02925,-0.27356,0.405367,0
7050,-1.04176,-0.304244,0.414303,0
7070,-1.05404,-0.331154,0.424839,0
7090,-1.06613,-0.353597,0.434761,0
7110,-1.07743,-0.371234,0.441667,0
7130,-1.08754,-0.383487,0.445186,0
7150,-1.0961,-0.390526,0.445454,0
7170,-1.10209,-0.394895,0.442364,0
7190,-1.10575,-0.397149,0.437876,0
7210,-1.1074,-0.398627,0.432506,0
7230,-1.10668,-0.399727,0.427877,0
7250,-1.10174,-0.401034,0.423023,0
7270,-1.09431,-0.402863,0.417115,0
7290,-1.08854,-0.40517,0.412197,0
7310,-1.08508,-0.406819,0.407478,0
7330,-1.08283,-0.408149,0.404124,0
7350,-1.0808,-0.409691,0.402546,0
7370,-1.07793,-0.411223,0.401578,0
7390,-1.07315,-0.412991,0.401568,0
7410,-1.06793,-0.4141,0.401721,0
7430,-1.06494,-0.414503,0.401439,0
7450,-1.06534,-0.414464,0.401412,0
7470,-1.06725,-0.414504,0.401899,0
7490,-1.0689,-0.414847,0.402648,0
7510,-1.06959,-0.415858,0.403772,0
7530,-1.06985,-0.416775,0.405018,0
7550,-1.07132,-0.418002,0.406119,0
7580,-1.07025,-0.421011,0.406052,0
7600,-1.06908,-0.423303,0.405934,0
7620,-1.06886,-0.425917,0.406184,0
7640,-1.06896,-0.427812,0.406368,0
7660,-1.0681,-0.429172,0.405927,0
7680,-1.06731,-0.42974,0.406434,0
7700,-1.06643,-0.429549,0.406609,0
7720,-1.06527,-0.429592,0.406118,0
7740,-1.06425,-0.429508,0.406156,0
7760,-1.06349,-0.42896,0.406146,2000
7780,-1.06299,-0.427575,0.405989,0
7800,-1.06235,-0.425964,0.405663,0
7820,-1.06182,-0.424524,0.40504,0
7840,-1.06127,-0.423302,0.404093,0
7860,-1.06007,-0.422448,0.403043,0
7880,-1.05877,-0.422066,0.402536,0
7900,-1.05805,-0.422396,0.402636,0
7920,-1.05735,-0.423392,0.402584,0
7940,-1.0572,-0.425044,0.402671,0
7960,-1.05707,-0.426834,0.402722,0
7980,-1.05723,-0.428746,0.403081,0
8000,-1.05725,-0.430607,0.403519,0
8020,-1.05755,-0.432749,0.40405,0
8040,-1.05877,-0.434529,0.404704,0
8060,-1.05991,-0.435803,0.405567,0
8080,-1.06056,-0.437064,0.406258,0
8100,-1.0612,-0.437677,0.406706,0
8120,-1.06154,-0.438169,0.406844,0
8140,-1.06118,-0.438483,0.406798,0
8170,-1.05971,-0.439094,0.405662,0
8190,-1.05753,-0.440606,0.404575,0
8210,-1.05503,-0.44365,0.403574,0
8230,-1.05069,-0.45161,0.398777,0
8250,-1.04716,-0.456412,0.394323,0
8270,-1.04344,-0.462026,0.388975,0
8290,-1.03972,-0.469053,0.382787,0
8310,-1.03568,-0.476604,0.375627,0
8330,-1.03158,-0.485339,0.366818,0
8350,-1.02837,-0.494496,0.356988,0
8370,-1.02541,-0.503756,0.346287,0
8390,-1.02243,-0.512911,0.334041,0
8410,-1.01992,-0.521738,0.320787,0
8430,-1.01775,-0.530621,0.306899,0
8450,-1.01557,-0.539023,0.292706,0
8480,-1.01202,-0.556162,0.260331,0
8500,-1.01046,-0.565369,0.24113,0
8520,-1.00859,-0.574625,0.22037,0
8540,-1.00558,-0.584208,0.198792,0
8560,-1.00148,-0.59419,0.176825,0
8570,-0.996885,-0.604033,0.153433,0
8590,-0.994568,-0.612001,0.130082,0
8610,-0.987968,-0.638884,0.0527842,0
8620,-0.969254,-0.681508,-0.111642,0
8640,-0.965516,-0.686458,-0.138046,0
8650,-0.962406,-0.691528,-0.162228,0
8660,-0.95444,-0.698141,-0.231934,0
8680,-0.948577,-0.693909,-0.255052,0
8700,-0.939755,-0.687378,-0.276492,0
8720,-0.931882,-0.678217,-0.29607,0
8740,-0.921434,-0.667392,-0.316019,0
8760,-0.909472,-0.65637,-0.332923,0
8780,-0.896867,-0.64559,-0.347051,0
8800,-0.883375,-0.634394,-0.362406,0
8820,-0.869972,-0.623035,-0.378358,0
8840,-0.859592,-0.611967,-0.390854,0
8860,-0.850156,-0.601187,-0.398099,0
8880,-0.838059,-0.590384,-0.403435,0
8900,-0.826798,-0.579052,-0.407385,0
8920,-0.819752,-0.569233,-0.407834,0
8940,-0.818057,-0.560031,-0.40361,0
8960,-0.817922,-0.548979,-0.394994,0
8980,-0.813168,-0.539416,-0.383479,0
9000,-0.808064,-0.532233,-0.371507,0
9020,-0.805463,-0.525229,-0.358139,0
9040,-0.808377,-0.517904,-0.341173,0
9060,-0.813153,-0.511743,-0.320665,0
9080,-0.817482,-0.507737,-0.297511,0
9100,-0.820745,-0.505994,-0.27371,0
9120,-0.826059,-0.504498,-0.248269,0
9150,-0.855969,-0.506339,-0.159006,0
9170,-0.866619,-0.511114,-0.125815,0
9210,-0.891843,-0.524239,-0.0579659,0
9230,-0.903972,-0.53146,-0.0241556,0
9250,-0.914243,-0.541593,0.00754309,0
9280,-0.951105,-0.553833,0.0829562,0
9300,-0.969992,-0.554938,0.120366,0
9330,-0.997059,-0.581163,0.184328,0
9350,-0.999744,-0.607568,0.208575,0
9370,-1.01696,-0.613719,0.241417,0
9390,-1.02792,-0.62518,0.26857,0
9410,-1.03978,-0.640631,0.296217,0
9430,-1.05469,-0.655484,0.322578,0
9450,-1.07061,-0.669969,0.34758,0
9470,-1.08444,-0.683185,0.370508,0
9490,-1.09694,-0.696292,0.391115,0
9510,-1.11442,-0.704482,0.413257,0
9530,-1.12171,-0.710433,0.427892,0
9550,-1.14253,-0.715135,0.446968,0
9570,-1.19025,-0.858265,0.414756,0
9610,-1.20583,-0.902386,0.34572,0
9630,-1.2015,-0.921845,0.308413,0
9650,-1.18747,-0.937987,0.261061,0
9670,-1.16348,-0.949416,0.204686,0
9690,-1.10916,-0.964042,0.0894749,0
9710,-1.08436,-0.971806,0.0355566,0
9730,-1.05726,-0.977253,-0.0196363,0
9750,-1.03021,-0.980757,-0.0731934,0
9770,-1.00525,-0.982913,-0.122738,0
9790,-0.979697,-0.983811,-0.169692,0
9810,-0.937443,-0.977028,-0.228021,0
9830,-0.913094,-0.973831,-0.2695,0
9850,-0.889881,-0.966385,-0.307416,0
9870,-0.870866,-0.952691,-0.338444,0
9890,-0.850385,-0.93775,-0.365063,0
9910,-0.829559,-0.925392,-0.385295,0
9930,-0.811827,-0.911242,-0.399508,0
9950,-0.797862,-0.894968,-0.411975,0
9980,-0.780905,-0.845223,-0.423183,0
10000,-0.777431,-0.829312,-0.41717,0
10020,-0.775034,-0.814337,-0.408826,0
10040,-0.775902,-0.799412,-0.397357,0
10060,-0.779688,-0.786379,-0.383729,0
10080,-0.786326,-0.774206,-0.367777,0
10100,-0.791564,-0.761604,-0.350544,0
10120,-0.794917,-0.750236,-0.334008,0
10140,-0.800838,-0.738623,-0.316698,0
10160,-0.810376,-0.727136,-0.296874,0
10180,-0.820242,-0.716634,-0.276784,0
10200,-0.827931,-0.706645,-0.256439,0
10220,-0.834724,-0.6973,-0.235235,0
10220,-0.841272,-0.68891,-0.215464,0
10240,-0.850375,-0.681128,-0.195436,0
10260,-0.860134,-0.673161,-0.175011,0
10280,-0.868791,-0.665798,-0.154009,0
10300,-0.87423,-0.659584,-0.133966,0
10320,-0.878449,-0.655014,-0.114492,0
10340,-0.883718,-0.651383,-0.0939222,0
10360,-0.889517,-0.650187,-0.0718159,0
10380,-0.896061,-0.651126,-0.0475318,0
10400,-0.904844,-0.654127,-0.0202574,0
10420,-0.915349,-0.659247,0.00865196,0
10440,-0.929918,-0.665854,0.0394742,0
10460,-0.948911,-0.673334,0.0735665,0
10480,-0.969556,-0.681529,0.109983,0
10500,-0.989818,-0.691365,0.147635,0
10540,-1.03328,-0.713002,0.222581,0
10560,-1.05711,-0.724602,0.257839,0
10580,-1.08175,-0.735787,0.292905,0
10600,-1.1082,-0.747091,0.330103,0
10620,-1.13425,-0.758113,0.365611,0
10640,-1.15667,-0.769878,0.396607,0
10660,-1.17591,-0.781808,0.424285,0
10680,-1.1945,-0.795392,0.45059,0
10700,-1.21247,-0.811311,0.474647,0
10720,-1.23177,-0.829684,0.498135,0
10740,-1.25088,-0.849735,0.519199,0
10760,-1.27008,-0.87279,0.536154,0
10780,-1.2886,-0.896936,0.548547,0
10800,-1.30696,-0.921044,0.557943,0
10820,-1.32363,-0.947286,0.563726,0
10840,-1.33733,-0.974984,0.565357,0
10860,-1.34899,-1.00279,0.561245,0
10880,-1.35733,-1.02966,0.551052,0
10900,-1.35638,-1.05425,0.529443,0
10920,-1.34686,-1.0781,0.495817,0
10940,-1.3309,-1.10086,0.452663,0
10960,-1.30563,-1.12154,0.398522,0
10980,-1.26916,-1.14172,0.333069,0
11000,-1.2245,-1.16144,0.259378,0
11020,-1.17226,-1.17733,0.176015,0
11040,-1.11671,-1.1895,0.089995,0
11080,-0.989957,-1.20401,-0.0869379,0
11100,-0.927278,-1.2065,-0.171891,0
11120,-0.874499,-1.20411,-0.245015,0
11140,-0.828144,-1.19485,-0.307257,0
11160,-0.78478,-1.18109,-0.360783,0
11180,-0.743237,-1.16487,-0.409883,0
11200,-0.706444,-1.14486,-0.454637,0
11220,-0.680233,-1.11972,-0.48852,0
11240,-0.662738,-1.08967,-0.511869,0
11260,-0.651283,-1.05896,-0.524015,0
11280,-0.639886,-1.02917,-0.530779,0
11300,-0.628595,-1.00099,-0.537662,0
11320,-0.624912,-0.972562,-0.54082,0
11340,-0.629215,-0.944228,-0.538441,0
11360,-0.634778,-0.918679,-0.533146,0
11380,-0.638978,-0.895716,-0.524495,0
11400,-0.643386,-0.874723,-0.513202,0
11420,-0.65029,-0.855215,-0.500296,0
11440,-0.661461,-0.83591,-0.484382,0
11460,-0.672361,-0.818449,-0.465692,0
11480,-0.680421,-0.80492,-0.447035,0
11500,-0.689036,-0.795165,-0.42648,0
11520,-0.699338,-0.787128,-0.404883,0
11540,-0.713707,-0.779738,-0.38061,0
11560,-0.731472,-0.774013,-0.35366,0
11580,-0.748785,-0.769057,-0.323538,0
11600,-0.765069,-0.765604,-0.292537,0
11620,-0.783231,-0.761946,-0.261156,0
11640,-0.807581,-0.757829,-0.22729,0
11660,-0.835618,-0.75476,-0.189664,0
11680,-0.86522,-0.752874,-0.148212,0
11700,-0.894891,-0.750822,-0.10537,0
11720,-0.923429,-0.748302,-0.0613711,0
11740,-0.956511,-0.748163,-0.0125463,0
11760,-0.990873,-0.752846,0.0382636,0
11780,-1.01915,-0.762228,0.086833,0
11800,-1.04594,-0.774798,0.13556,0
11820,-1.07502,-0.790013,0.184774,0
11840,-1.10463,-0.806984,0.233196,0
11860,-1.13209,-0.825064,0.279129,0
11880,-1.1635,-0.841914,0.325457,0
11920,-1.23026,-0.876402,0.41199,0
11950,-1.28786,-0.913324,0.481714,0
11970,-1.31341,-0.933428,0.513354,0
11990,-1.3341,-0.955744,0.53968,0
12010,-1.35377,-0.980837,0.562886,0
12030,-1.37571,-1.00638,0.58364,0
12050,-1.39625,-1.03057,0.602005,0
12070,-1.4158,-1.05614,0.619446,0
12090,-1.43448,-1.08495,0.63532,0
12110,-1.45471,-1.11455,0.648658,0
12130,-1.47687,-1.14248,0.660043,0
12150,-1.50034,-1.17026,0.669375,0
12170,-1.52175,-1.1963,0.675978,2001
12190,-1.52278,-1.31264,0.590367,0
12210,-1.51063,-1.32197,0.56722,0
12230,-1.50116,-1.32615,0.547927,0
12260,-1.4898,-1.32446,0.523201,0
12280,-1.48592,-1.32146,0.514155,0
12290,-1.48549,-1.31703,0.508975,0
12300,-1.48102,-1.30748,0.497065,0
12320,-1.47234,-1.3038,0.486527,0
12340,-1.45715,-1.30013,0.472052,0
12360,-1.44494,-1.29767,0.462354,0
12380,-1.43204,-1.29595,0.452459,0
12410,-1.40655,-1.28019,0.44169,0
12430,-1.3978,-1.25555,0.450867,0
12460,-1.3939,-1.17522,0.490658,0
12480,-1.39451,-1.15332,0.502893,0
12500,-1.39082,-1.13154,0.509548,0
12510,-1.38594,-1.10992,0.516365,0
12530,-1.37854,-1.09086,0.52126,0
12550,-1.3664,-1.07307,0.523737,0
12570,-1.35529,-1.0547,0.527982,0
12590,-1.34535,-1.0362,0.533331,0
12610,-1.33482,-1.0197,0.539898,0
12630,-1.3225,-1.00655,0.544386,0
12650,-1.30838,-0.9919,0.548585,0
12670,-1.30242,-0.974006,0.564695,0
12690,-1.30109,-0.959217,0.585107,0
12710,-1.29829,-0.94792,0.604025,0
12730,-1.29745,-0.93601,0.625179,0
12750,-1.30053,-0.92401,0.647369,0
12770,-1.30356,-0.910904,0.669941,0
12800,-1.30756,-0.877537,0.722913,0
12820,-1.30766,-0.861324,0.750111,0
12840,-1.31007,-0.843459,0.775831,0
12860,-1.31054,-0.820243,0.799367,0
12880,-1.30837,-0.795335,0.821922,0
12900,-1.30206,-0.772342,0.839172,0
12920,-1.29518,-0.750292,0.852477,0
12940,-1.28688,-0.727759,0.859752,0
12960,-1.27521,-0.705069,0.860724,0
12980,-1.26133,-0.684554,0.856704,0
13000,-1.24626,-0.66559,0.847808,0
13020,-1.2322,-0.648123,0.83644,0
13040,-1.21788,-0.630503,0.823598,0
13060,-1.20239,-0.613707,0.809057,0
13080,-1.1861,-0.59792,0.793405,0
13100,-1.1722,-0.584345,0.778464,0
13120,-1.16239,-0.571785,0.764983,0
13140,-1.15462,-0.559218,0.752895,0
13160,-1.14657,-0.546844,0.741323,0
13180,-1.1398,-0.534632,0.729892,0
13200,-1.13438,-0.523446,0.720984,0
13220,-1.12941,-0.514385,0.715213,0
13240,-1.12411,-0.506114,0.711554,0
13250,-1.11453,-0.488126,0.701058,0
13280,-1.10712,-0.480402,0.698972,0
13300,-1.1043,-0.477772,0.699224,0
13320,-1.10195,-0.47512,0.699842,0
13330,-1.10085,-0.472449,0.700987,0
13350,-1.09987,-0.469988,0.7025,0
13370,-1.09902,-0.467946,0.704183,0
13390,-1.09676,-0.46576,0.705167,0
13410,-1.09381,-0.464125,0.706368,0
13420,-1.08961,-0.462352,0.707222,0
13440,-1.08757,-0.461791,0.707605,2000
13450,-1.08253,-0.461945,0.707439,0
13480,-1.08459,-0.460803,0.708326,0
13500,-1.08844,-0.460912,0.711262,0
13520,-1.08827,-0.462162,0.713213,0
13540,-1.08719,-0.465399,0.714246,0
13570,-1.08644,-0.475583,0.721673,0
13590,-1.085,-0.479714,0.724498,0
13600,-1.08532,-0.485618,0.728234,0
13620,-1.08805,-0.491235,0.732904,0
13640,-1.09168,-0.496112,0.738994,0
13660,-1.09454,-0.500153,0.745232,0
13680,-1.09594,-0.503851,0.751494,0
13700,-1.09736,-0.507509,0.758376,0
13720,-1.1009,-0.511716,0.765888,0
13740,-1.10401,-0.516291,0.772592,0
13760,-1.10604,-0.522146,0.779929,0
13780,-1.10848,-0.529728,0.787534,0
13800,-1.11121,-0.538585,0.792981,0
13820,-1.11505,-0.545899,0.795582,0
13840,-1.11776,-0.552827,0.79601,0
13860,-1.11792,-0.56207,0.795403,0
13880,-1.11598,-0.574031,0.792441,0
13890,-1.11772,-0.598703,0.779707,0
13920,-1.11066,-0.641197,0.735061,0
13930,-1.10163,-0.67071,0.687831,0
13950,-1.09577,-0.685404,0.660082,0
13970,-1.08799,-0.699919,0.629311,0
13980,-1.0351,-0.744891,0.363941,0
14000,-0.99152,-0.756475,0.203479,0
14020,-0.981076,-0.757813,0.168085,0
14040,-0.971436,-0.757162,0.136979,0
14060,-0.961326,-0.756131,0.110742,0
14090,-0.941452,-0.753238,0.0599232,0
14130,-0.92952,-0.746356,0.0322202,0
14150,-0.92709,-0.741987,0.0258783,0
14170,-0.924152,-0.736975,0.0198463,0
14190,-0.903455,-0.71752,0.00521671,0
14210,-0.896271,-0.710275,0.00194975,0
14230,-0.891339,-0.700173,-0.00108022,0
14250,-0.886385,-0.687202,-0.00276079,0
14270,-0.878915,-0.674205,-0.00190059,0
14290,-0.870902,-0.663803,0.000452444,0
14310,-0.865907,-0.652417,0.00435793,0
14330,-0.862636,-0.641985,0.00962193,0
14350,-0.860866,-0.632623,0.0152208,0
14370,-0.85956,-0.621859,0.021086,0
14390,-0.858027,-0.609873,0.0286955,0
14410,-0.85484,-0.599526,0.0379164,0
14440,-0.844624,-0.572587,0.0724603,0
14460,-0.843618,-0.565572,0.0869604,0
14470,-0.84468,-0.558378,0.123576,0
14500,-0.851784,-0.556447,0.166183,0
14520,-0.860288,-0.556176,0.190103,0
14540,-0.869804,-0.555168,0.216449,0
14560,-0.878063,-0.553872,0.243425,0
14580,-0.886453,-0.552911,0.270982,0
14600,-0.894606,-0.552972,0.299724,0
14620,-0.904891,-0.553544,0.329207,0
14640,-0.915221,-0.553371,0.358055,0
14660,-0.924671,-0.553689,0.387666,0
14680,-0.935417,-0.555907,0.417969,0
14700,-0.946459,-0.558882,0.447912,0
14710,-0.959762,-0.562776,0.477524,0
14730,-0.973911,-0.566269,0.507243,0
14750,-0.988397,-0.569881,0.537742,0
14770,-1.00143,-0.574767,0.567994,0
14790,-1.01351,-0.580912,0.597769,0
14810,-1.02562,-0.587948,0.625681,0
14850,-1.04997,-0.605142,0.67579,0
14880,-1.07037,-0.624924,0.721879,0
14900,-1.07996,-0.634797,0.743445,0
14930,-1.09754,-0.653413,0.783369,0
14950,-1.10645,-0.66396,0.80244,0
14980,-1.12252,-0.688902,0.835775,0
15000,-1.12836,-0.701205,0.849278,0
15020,-1.13393,-0.715138,0.861773,0
15040,-1.13883,-0.730349,0.872759,0
15050,-1.14369,-0.74684,0.882394,0
15070,-1.13008,-0.816872,0.869598,0
15090,-1.11608,-0.838158,0.856204,0
15110,-1.10045,-0.862183,0.839067,0
15130,-1.08518,-0.887099,0.818058,0
15150,-1.06933,-0.911041,0.792377,0
15170,-1.05189,-0.933444,0.762471,0
15190,-1.03318,-0.955383,0.730252,0
15210,-1.01264,-0.976909,0.695286,0
15230,-0.992845,-0.996309,0.657371,0
15250,-0.967979,-1.01392,0.612741,0
15270,-0.916926,-1.04203,0.519424,0
15290,-0.89289,-1.05432,0.474052,0
15310,-0.867161,-1.06547,0.428342,0
15330,-0.841564,-1.07492,0.382666,0
15350,-0.816116,-1.08184,0.336725,0
15370,-0.793931,-1.08557,0.293838,0
15390,-0.771168,-1.08772,0.252229,0
15410,-0.751184,-1.08871,0.213989,0
15430,-0.731383,-1.08814,0.177535,0
15450,-0.710059,-1.08759,0.140499,0
15470,-0.691411,-1.08585,0.107206,0
15490,-0.675299,-1.0812,0.0767685,0
15510,-0.660877,-1.07519,0.0507839,0
15530,-0.647888,-1.07115,0.0309065,0
15550,-0.636061,-1.06754,0.0142494,0
15570,-0.626332,-1.06282,-0.000895635,0
15590,-0.620546,-1.05671,-0.0137317,0
15610,-0.617269,-1.05115,-0.0232896,0
15630,-0.613896,-1.0454,-0.0302995,0
15650,-0.607366,-1.04033,-0.0390116,0
15670,-0.597654,-1.03456,-0.0540311,0
15690,-0.592241,-1.0236,-0.0716644,0
15710,-0.59421,-1.00585,-0.0865035,0
15730,-0.599789,-0.983026,-0.0913351,0
15750,-0.596092,-0.962324,-0.0928456,0
15760,-0.567718,-0.926219,-0.110846,0
15800,-0.573589,-0.883841,-0.118844,0
15820,-0.580195,-0.862705,-0.115174,0
15840,-0.579883,-0.844484,-0.111008,0
15860,-0.580392,-0.828305,-0.10653,0
15860,-0.586304,-0.813279,-0.099939,0
15880,-0.596413,-0.801188,-0.0890108,0
15900,-0.606194,-0.792064,-0.075393,0
15920,-0.613878,-0.785774,-0.0619389,0
15940,-0.620667,-0.780649,-0.0486255,0
15960,-0.630327,-0.775912,-0.0327404,0
15980,-0.64118,-0.773444,-0.0134641,0
15990,-0.721746,-0.775263,0.110771,0
16010,-0.746379,-0.776468,0.142395,0
16030,-0.772266,-0.776827,0.172956,0
16070,-0.824999,-0.773787,0.228973,0
16090,-0.854489,-0.770583,0.260542,0
16110,-0.882092,-0.769058,0.292275,0
16130,-0.904034,-0.768995,0.321911,0
16150,-0.925852,-0.769203,0.35116,0
16170,-0.949679,-0.769629,0.378768,0
16190,-0.97177,-0.768978,0.404041,0
16210,-0.989027,-0.769676,0.428304,0
16230,-1.00355,-0.770992,0.45232,0
16250,-1.01678,-0.772186,0.475225,0
16270,-1.03003,-0.773063,0.497826,0
16290,-1.04197,-0.773979,0.520928,0
16310,-1.05319,-0.777282,0.544901,0
16330,-1.06548,-0.782294,0.570469,0
16350,-1.08002,-0.788341,0.598538,0
16370,-1.09406,-0.795343,0.624892,0
16390,-1.11049,-0.802845,0.649996,0
16410,-1.12916,-0.810661,0.675864,0
16430,-1.14634,-0.819301,0.70146,0
16470,-1.18127,-0.83796,0.754331,0
16510,-1.24761,-0.865433,0.831731,0
16540,-1.33462,-0.91706,0.931222,0
16560,-1.35543,-0.930487,0.954264,0
16580,-1.37757,-0.944419,0.978527,0
16600,-1.39974,-0.958936,1.00237,0
16620,-1.42325,-0.973692,1.02562,0
16640,-1.44865,-0.987373,1.05029,0
16660,-1.47542,-0.998751,1.07489,0
16680,-1.49768,-1.01042,1.09573,0
16700,-1.53621,-1.0349,1.13448,0
16720,-1.5561,-1.04714,1.1513,0
16740,-1.57186,-1.05968,1.16191,0
16760,-1.58456,-1.07133,1.16878,0
16780,-1.59436,-1.08403,1.17379,0
16800,-1.60351,-1.0987,1.17699,0
16820,-1.61046,-1.1137,1.17563,0
16840,-1.61316,-1.12821,1.16801,0
16860,-1.61129,-1.14388,1.15542,0
16880,-1.60636,-1.15994,1.13859,0
16900,-1.5975,-1.17518,1.11725,0
16920,-1.58744,-1.1893,1.09455,0
16940,-1.5768,-1.20271,1.07105,0
16960,-1.56497,-1.21667,1.04564,0
16980,-1.54992,-1.23111,1.01669,0
17000,-1.53669,-1.24527,0.988566,0
17020,-1.51769,-1.25939,0.953299,0
17050,-1.42034,-1.29364,0.810532,0
17110,-1.03224,-1.31093,0.340861,0
17150,-0.92363,-1.29597,0.210332,0
17180,-0.751086,-1.20333,0.00248977,0
17220,-0.729117,-1.15888,-0.0196465,0
17230,-0.719625,-1.13662,-0.0230612,0
17250,-0.704189,-1.11769,-0.0307082,0
17260,-0.690036,-1.08233,-0.0443094,0
17280,-0.696257,-1.06338,-0.0408606,0
17300,-0.699882,-1.04546,-0.0348191,0
17320,-0.701618,-1.03005,-0.0280719,0
17340,-0.705225,-1.01574,-0.0182544,0
17360,-0.709514,-1.00174,-0.00733321,0
17380,-0.717507,-0.98978,0.00670369,0
17400,-0.729559,-0.977682,0.0239253,0
17420,-0.741491,-0.966489,0.0437383,0
17440,-0.748784,-0.957585,0.0613326,0
17460,-0.756329,-0.949014,0.0764166,0
17480,-0.771525,-0.940112,0.0931612,0
17500,-0.794079,-0.930016,0.114728,0
17520,-0.814913,-0.918761,0.138552,0
17540,-0.828059,-0.907996,0.159107,0
17560,-0.837351,-0.898384,0.17704,0
17580,-0.850574,-0.889655,0.196346,0
17600,-0.86514,-0.879905,0.215719,0
17620,-0.87823,-0.8716,0.23499,0
17640,-0.888894,-0.866116,0.254967,0
17660,-0.896737,-0.86147,0.274633,0
17680,-0.901646,-0.856414,0.293745,0
17700,-0.906361,-0.854064,0.313424,0
17720,-0.914791,-0.852661,0.335602,0
17740,-0.927788,-0.850987,0.360408,0
17760,-0.941601,-0.849011,0.385148,0
17780,-0.957295,-0.849451,0.411592,0
17800,-0.974956,-0.853183,0.4419,0
17820,-0.996057,-0.858212,0.473997,0
17840,-1.01757,-0.864742,0.504944,0
17870,-1.06762,-0.881669,0.572855,0
17890,-1.09809,-0.891938,0.612666,0
17910,-1.13149,-0.904684,0.656179,0
17930,-1.16698,-0.919365,0.700952,0
17950,-1.20538,-0.934977,0.74602,0
17960,-1.27811,-0.967242,0.833001,0
17980,-1.31162,-0.983535,0.876057,0
18000,-1.3437,-0.998888,0.91696,0
18020,-1.37286,-1.01294,0.954276,0
18040,-1.40294,-1.02624,0.991193,0
18060,-1.43293,-1.03805,1.02736,0
18080,-1.46202,-1.05094,1.06289,0
18100,-1.49066,-1.06415,1.09787,0
18120,-1.52126,-1.07571,1.13333,0
18140,-1.55614,-1.08653,1.17281,0
18170,-1.62829,-1.11191,1.25842,0
18190,-1.74214,-1.15255,1.38132,0
18210,-1.77703,-1.16489,1.41875,0
18240,-1.83904,-1.18933,1.48475,0
18260,-1.86215,-1.2016,1.50713,2001
18280,-1.88187,-1.22111,1.5265,0
18300,-1.89271,-1.22745,1.53852,0
18310,-1.91342,-1.24262,1.55579,0
18340,-1.90155,-1.24944,1.53406,0
18370,-1.80036,-1.24103,1.43449,0
18410,-1.58336,-1.16189,1.21393,0
18420,-1.54107,-1.13857,1.17277,0
18440,-1.4915,-1.11368,1.1246,0
18450,-1.38434,-1.05896,1.02373,0
18470,-1.33015,-1.02879,0.977496,0
18490,-1.2729,-0.999339,0.93099,0
18510,-1.21995,-0.969252,0.886736,0
18530,-1.17238,-0.93321,0.846159,0
18550,-1.12767,-0.900324,0.812757,0
18570,-1.0878,-0.869626,0.788728,0
18590,-1.0506,-0.842143,0.766227,0
18600,-1.01566,-0.813316,0.743926,0
18620,-0.981479,-0.762633,0.729786,0
18640,-0.976254,-0.745314,0.732448,0
18660,-0.975795,-0.733734,0.737826,0
18680,-0.984963,-0.723369,0.744534,0
18700,-1.00481,-0.710488,0.749321,0
18720,-1.027,-0.695069,0.752222,0
18750,-1.05412,-0.621316,0.735424,0
18770,-1.05081,-0.604806,0.729156,0
18790,-1.04503,-0.591464,0.724111,0
18810,-1.0351,-0.580009,0.717959,0
18830,-1.02243,-0.569405,0.711328,0
18850,-1.0118,-0.559921,0.706584,0
18870,-1.00178,-0.550782,0.702277,0
18890,-0.993281,-0.543425,0.699868,0
18910,-0.986578,-0.53913,0.700619,0
18930,-0.979062,-0.536895,0.702458,0
18950,-0.972282,-0.536097,0.702427,0
18970,-0.967232,-0.53558,0.699438,0
18990,-0.965521,-0.533958,0.695699,2000
19010,-0.964913,-0.531525,0.695002,0
19030,-0.96301,-0.53035,0.697222,0
19050,-0.961033,-0.530497,0.700777,0
19070,-0.960489,-0.530885,0.703375,0
19090,-0.96178,-0.531474,0.705008,0
19110,-0.964612,-0.531328,0.706021,0
19130,-0.966214,-0.531345,0.708633,0
19150,-0.967388,-0.532908,0.712827,0
19170,-0.967207,-0.535475,0.715439,0
19190,-0.96893,-0.53746,0.718403,0
19210,-0.973363,-0.539085,0.723248,0
19230,-0.97719,-0.541094,0.728826,0
19250,-0.977519,-0.544269,0.734666,0
19270,-0.976404,-0.549886,0.740006,0
19300,-0.976295,-0.566057,0.751969,0
19330,-0.977808,-0.611591,0.777441,0
19350,-0.98026,-0.620819,0.779684,0
19370,-0.98178,-0.629839,0.779338,0
19390,-0.983743,-0.638091,0.777251,0
19410,-0.98767,-0.645367,0.774282,0
19430,-0.988656,-0.654011,0.768755,0
19450,-0.987776,-0.664107,0.758176,0
19470,-0.985938,-0.674114,0.743398,0
19490,-0.982494,-0.683684,0.72443,0
19540,-0.917333,-0.78235,0.477862,0
19550,-0.911111,-0.790777,0.441183,0
19570,-0.850556,-0.811561,0.15624,0
19570,-0.845521,-0.810232,0.137742,0
19590,-0.842692,-0.809932,0.120215,0
19610,-0.845218,-0.810548,0.105893,0
19610,-0.850013,-0.810342,0.0937526,0
19630,-0.851632,-0.808272,0.0822239,0
19650,-0.84253,-0.799414,0.0560625,0
19670,-0.83724,-0.785586,0.0255961,0
19680,-0.836185,-0.774263,0.0147593,0
19700,-0.830966,-0.762269,0.00489273,0
19720,-0.820885,-0.751034,-0.00550496,0
19740,-0.81255,-0.740236,-0.0142407,0
19760,-0.808864,-0.729949,-0.0211833,0
19780,-0.807284,-0.718059,-0.0255041,0
19800,-0.802949,-0.706121,-0.0287177,0
19820,-0.795114,-0.697226,-0.0317402,0
19840,-0.787173,-0.690306,-0.0340677,0
19860,-0.782382,-0.682921,-0.0349952,0
19880,-0.77893,-0.673662,-0.0345948,0
19900,-0.77354,-0.663895,-0.0319499,0
19920,-0.763768,-0.657199,-0.030421,0
19940,-0.752567,-0.65191,-0.0283246,0
19960,-0.745532,-0.646482,-0.0241784,0
19980,-0.741304,-0.641158,-0.0181816,0
20000,-0.739125,-0.636142,-0.00706634,0
20010,-0.736145,-0.632194,0.00602737,0
20030,-0.734585,-0.629175,0.0195779,0
20050,-0.743268,-0.618145,0.0519863,0
20070,-0.748163,-0.612213,0.0689501,0
20100,-0.750463,-0.600894,0.101252,0
20120,-0.751482,-0.596408,0.116249,0
20140,-0.755664,-0.5914,0.132237,0
20160,-0.759566,-0.586984,0.148749,0
20180,-0.763061,-0.584529,0.165805,0
20190,-0.766634,-0.581304,0.183077,0
20210,-0.771177,-0.577968,0.201315,0
20230,-0.777345,-0.577357,0.220859,0
20250,-0.78499,-0.577425,0.242489,0
20270,-0.793927,-0.57794,0.265657,0
20290,-0.804533,-0.577845,0.289351,0
20310,-0.81597,-0.576619,0.313615,0
20330,-0.827776,-0.574979,0.337762,0
20350,-0.840293,-0.574411,0.362655,0
20370,-0.853514,-0.575555,0.388634,0
20390,-0.866471,-0.577391,0.414233,0
20410,-0.878822,-0.579302,0.439405,0
20430,-0.940928,-0.599555,0.561137,0
20430,-0.945765,-0.606354,0.582323,0
20450,-0.946469,-0.615853,0.601906,0
20470,-0.949121,-0.628823,0.620734,0
20490,-0.95667,-0.64177,0.638556,0
20510,-0.964472,-0.653908,0.657276,0
20530,-0.970135,-0.667934,0.677288,0
20550,-0.973007,-0.684788,0.696496,0
20570,-0.976351,-0.702546,0.716549,0
20590,-0.983143,-0.720043,0.736699,0
20610,-0.992564,-0.736719,0.756179,0
20630,-1.00329,-0.753089,0.774571,0
20670,-1.02922,-0.781483,0.812712,0
20690,-1.05249,-0.807775,0.845002,0
20710,-1.06311,-0.822393,0.857155,0
20730,-1.07301,-0.838141,0.863227,0
20750,-1.08003,-0.852902,0.863974,0
20770,-1.0841,-0.867796,0.862355,0
20830,-1.08289,-0.916115,0.841738,0
20850,-1.0983,-0.968681,0.791699,0
20880,-1.09682,-0.993294,0.715406,0
20900,-1.08373,-1.00001,0.677142,0
20920,-1.06921,-1.00756,0.636246,0
20940,-1.05213,-1.01452,0.590769,0
20960,-1.03342,-1.02134,0.542688,0
20980,-1.01103,-1.02743,0.49213,0
21000,-0.987256,-1.03367,0.442522,0
21020,-0.96516,-1.04131,0.394994,0
21040,-0.943114,-1.04894,0.346748,0
21060,-0.923791,-1.05577,0.300161,0
21080,-0.905097,-1.06048,0.2549,0
21100,-0.885477,-1.06409,0.211333,0
21120,-0.864821,-1.06756,0.169479,0
21140,-0.844144,-1.07029,0.128524,0
21160,-0.824227,-1.07138,0.0894134,0
21180,-0.806249,-1.0695,0.0526182,0
21200,-0.78959,-1.06618,0.0200514,0
21220,-0.777906,-1.06263,-0.00590204,0
21240,-0.765458,-1.05766,-0.0299445,0
21260,-0.752213,-1.0509,-0.0522904,0
21280,-0.741746,-1.04121,-0.0716358,0
21300,-0.73614,-1.02997,-0.0869344,0
21320,-0.733812,-1.01742,-0.0991794,0
21340,-0.732061,-1.00378,-0.10723,0
21360,-0.729272,-0.988457,-0.114031,0
21380,-0.726298,-0.970577,-0.120563,0
21400,-0.725765,-0.951064,-0.123409,0
21450,-0.727901,-0.863391,-0.100135,0
21490,-0.734722,-0.847045,-0.0633993,0
21510,-0.741991,-0.841145,-0.0488527,0
21530,-0.748908,-0.834852,-0.0325469,0
21550,-0.754126,-0.830029,-0.0158855,0
21570,-0.759137,-0.825678,0.000513495,0
21590,-0.76919,-0.822251,0.0183476,0
21610,-0.781693,-0.817413,0.036167,0
21640,-0.811059,-0.801866,0.0902074,0
21660,-0.820593,-0.797519,0.107635,0
21680,-0.830058,-0.791641,0.123871,0
21700,-0.84339,-0.786062,0.142306,0
21720,-0.860997,-0.780609,0.1627,0
21740,-0.877611,-0.773144,0.182463,0
21760,-0.892375,-0.76322,0.201068,0
21800,-0.916759,-0.747415,0.236982,0
21820,-0.92874,-0.740161,0.255561,0
21840,-0.940569,-0.733211,0.274338,0
21860,-0.952126,-0.728341,0.292606,0
21870,-0.965923,-0.723033,0.312727,0
21900,-0.979851,-0.719739,0.33375,0
21920,-0.991703,-0.717006,0.353766,0
21940,-1.00449,-0.713458,0.375104,0
21960,-1.01938,-0.712853,0.3971,0
21980,-1.03562,-0.713137,0.419928,0
22040,-1.19689,-0.758085,0.657093,0
22070,-1.22965,-0.778021,0.709932,0
22090,-1.2444,-0.789983,0.734106,0
22120,-1.26815,-0.81271,0.778073,0
22140,-1.27863,-0.825958,0.799981,0
22150,-1.29846,-0.856289,0.840427,0
22170,-1.30944,-0.870752,0.859913,0
22190,-1.32145,-0.883411,0.877584,0
22210,-1.32766,-0.897451,0.8926,0
22230,-1.33123,-0.914599,0.908011,0
22250,-1.33873,-0.932596,0.9248,0
22270,-1.34822,-0.950401,0.940126,0
22300,-1.36518,-0.986008,0.967565,0
22310,-1.38824,-1.02632,0.995082,0
22320,-1.41533,-1.06486,1.01794,0
22350,-1.43233,-1.09941,1.01954,0
22370,-1.43704,-1.11596,1.01503,0
22390,-1.43685,-1.1511,0.989565,0
22410,-1.4271,-1.16467,0.963634,0
22430,-1.40927,-1.17605,0.929424,0
22450,-1.38751,-1.18873,0.89308,0
22470,-1.36258,-1.20534,0.853492,0
22490,-1.33602,-1.22246,0.80753,0
22510,-1.30974,-1.23536,0.7598,0
22530,-1.27844,-1.24632,0.708027,0
22550,-1.2413,-1.25619,0.652771,0
22570,-1.1981,-1.26474,0.591359,0
22590,-1.14841,-1.27112,0.522017,0
22610,-1.09559,-1.27468,0.451249,0
22630,-1.04404,-1.27588,0.382382,0
22650,-0.990162,-1.2762,0.312266,0
22670,-0.9379,-1.27461,0.243902,0
22690,-0.889749,-1.27035,0.181473,0
22710,-0.843779,-1.26451,0.123223,0
22730,-0.798331,-1.25711,0.0659801,0
22750,-0.756703,-1.24686,0.0131529,0
22770,-0.72635,-1.2332,-0.0300409,0
22790,-0.705347,-1.21597,-0.064582,0
22810,-0.687387,-1.19688,-0.093635,0
22830,-0.671191,-1.17774,-0.116809,0
22850,-0.659983,-1.15786,-0.134801,0
22870,-0.651317,-1.13833,-0.1513,0
22890,-0.645501,-1.11763,-0.1625,0
22910,-0.64144,-1.09845,-0.16856,0
22930,-0.635423,-1.08077,-0.173748,0
22950,-0.631049,-1.06304,-0.178052,0
22970,-0.632757,-1.04472,-0.17842,0
22990,-0.644857,-1.02863,-0.168477,0
23010,-0.660001,-1.01457,-0.155399,0
23030,-0.67007,-0.997398,-0.147727,0
23050,-0.680319,-0.9803,-0.140386,0
23070,-0.694077,-0.966009,-0.132256,0
23100,-0.750621,-0.920655,-0.0892108,0
23120,-0.762391,-0.907713,-0.0745432,0
23140,-0.776412,-0.897167,-0.0590618,0
23160,-0.795651,-0.887546,-0.0418058,0
23170,-0.818604,-0.877646,-0.0199501,0
23190,-0.841891,-0.868798,0.0051083,0
23210,-0.859818,-0.860498,0.027932,0
23230,-0.877579,-0.850403,0.0516164,0
23250,-0.899265,-0.843183,0.0770851,0
23270,-0.922635,-0.836785,0.102096,0
23290,-0.94748,-0.825896,0.12836,0
23310,-0.973819,-0.815846,0.156303,0
23330,-0.997803,-0.807176,0.182961,0
23350,-1.01859,-0.797437,0.206836,0
23370,-1.03619,-0.78775,0.229092,0
23390,-1.05446,-0.779591,0.251182,0
23410,-1.07337,-0.772479,0.274527,0
23430,-1.09056,-0.765885,0.298573,0
23450,-1.10587,-0.761748,0.32416,0
23470,-1.12077,-0.760964,0.348048,0
23490,-1.13768,-0.761362,0.370997,0
23510,-1.15577,-0.761605,0.394215,0
23530,-1.17192,-0.763229,0.418836,0
23550,-1.18631,-0.766613,0.445352,0
23570,-1.20159,-0.772718,0.472177,0
23590,-1.21944,-0.78131,0.499484,0
23610,-1.23977,-0.791349,0.52778,0
23630,-1.26086,-0.802887,0.55893,0
23650,-1.27765,-0.817312,0.590182,0
23670,-1.29046,-0.833951,0.620526,0
23690,-1.30508,-0.851668,0.650934,0
23710,-1.32422,-0.869857,0.683493,0
23730,-1.34803,-0.887734,0.716761,0
23750,-1.37261,-0.901061,0.750082,0
23770,-1.39913,-0.91209,0.786918,0
23790,-1.42607,-0.925254,0.823932,0
23810,-1.45526,-0.938041,0.86071,0
23830,-1.48409,-0.948117,0.895387,0
23850,-1.51265,-0.958495,0.92864,0
23870,-1.53961,-0.97019,0.960369,0
23890,-1.56678,-0.982904,0.989735,0
23910,-1.59177,-0.994366,1.01706,0
23930,-1.61363,-1.00561,1.04233,0
23950,-1.63386,-1.01811,1.06744,0
23970,-1.65409,-1.03207,1.09049,0
23990,-1.67298,-1.04671,1.11035,0
24010,-1.69034,-1.06181,1.12848,0
24030,-1.70754,-1.0772,1.14571,0
24050,-1.72019,-1.09068,1.15877,0
24070,-1.72886,-1.10264,1.16763,0
24090,-1.73806,-1.11444,1.17578,0
24110,-1.74691,-1.12494,1.1799,0
24130,-1.75087,-1.13186,1.18126,0
24150,-1.74851,-1.13389,1.18078,0
24170,-1.745,-1.13324,1.17991,2001
24180,-1.74985,-1.13544,1.18416,0
24200,-1.75365,-1.13902,1.18341,0
24220,-1.75509,-1.1385,1.17338,0
24240,-1.7542,-1.13811,1.17246,0
24290,-1.73192,-1.12251,1.16373,0
24300,-1.72613,-1.11379,1.16603,0
24310,-1.70905,-1.09821,1.15509,0
24310,-1.68032,-1.04313,1.12262,0
24330,-1.4768,-0.895522,0.934366,0
24350,-1.4275,-0.860395,0.890502,0
24360,-1.38055,-0.824471,0.853806,0
24370,-1.33336,-0.789053,0.822955,0
24390,-1.29088,-0.75412,0.799136,0
24410,-1.25406,-0.723508,0.781445,0
24430,-1.16916,-0.663473,0.74852,0
24450,-1.14675,-0.649612,0.74189,0
24460,-1.12558,-0.63749,0.737218,0
24480,-1.10671,-0.627379,0.732142,0
24500,-1.08963,-0.617751,0.723315,0
24520,-1.07824,-0.606397,0.71143,0
24540,-1.07065,-0.590433,0.698674,0
24560,-1.06298,-0.570591,0.687586,0
24580,-1.05022,-0.551478,0.677651,0
24590,-1.03264,-0.535884,0.668416,0
24610,-1.01842,-0.523158,0.66074,0
24630,-1.01059,-0.512931,0.65398,0
24650,-1.00669,-0.505271,0.649677,0
24680,-0.999397,-0.497576,0.649617,0
24700,-0.995568,-0.497936,0.651134,2000
24730,-0.996916,-0.500045,0.646884,0
24750,-0.997037,-0.500896,0.648322,0
24790,-1.00178,-0.501591,0.647835,0
24810,-1.00672,-0.499256,0.648336,0
24830,-1.01019,-0.496471,0.649268,0
24850,-1.01128,-0.494798,0.649878,0
24860,-1.01438,-0.49028,0.649711,0
24880,-1.01531,-0.488099,0.650509,0
24900,-1.01447,-0.487011,0.652102,0
24920,-1.01068,-0.487126,0.654381,0
24940,-1.0069,-0.489927,0.657535,0
24960,-1.00522,-0.49385,0.661676,0
24980,-1.00742,-0.498981,0.66778,0
25000,-1.01312,-0.504814,0.676097,0
25010,-1.01873,-0.510686,0.685947,0
25030,-1.02338,-0.517154,0.696702,0
25050,-1.02625,-0.523975,0.706781,0
25070,-1.02751,-0.531968,0.716632,0
25090,-1.02958,-0.542712,0.728478,0
25110,-1.03031,-0.554274,0.738393,0
25130,-1.03522,-0.576501,0.7563,0
25130,-1.04069,-0.613591,0.775698,0
25150,-1.04004,-0.626385,0.775149,0
25170,-1.04019,-0.6378,0.772173,0
25190,-1.03901,-0.651311,0.767536,0
25200,-1.0373,-0.667856,0.762171,0
25220,-1.03728,-0.699248,0.7469,0
25240,-1.03721,-0.712603,0.736779,0
25260,-1.02885,-0.739511,0.706576,0
25280,-1.02645,-0.752785,0.687864,0
25320,-1.01669,-0.776828,0.640757,0
25340,-1.0071,-0.789414,0.610288,0
25350,-0.899811,-0.854795,0.245381,0
25370,-0.882873,-0.860587,0.201528,0
25370,-0.842381,-0.873073,0.086335,0
25390,-0.828512,-0.874535,0.0560162,0
25410,-0.802465,-0.870381,0.00390345,0
25430,-0.794523,-0.863818,-0.0197865,0
25470,-0.782449,-0.842067,-0.0519985,0
25490,-0.77055,-0.831892,-0.0654794,0
25510,-0.759782,-0.821238,-0.0759358,0
25530,-0.753703,-0.810677,-0.0837292,0
25550,-0.75178,-0.798239,-0.0890287,0
25570,-0.750888,-0.786538,-0.0895321,0
25590,-0.748719,-0.775654,-0.0870845,0
25610,-0.745698,-0.766803,-0.083058,0
25630,-0.744414,-0.758472,-0.0794245,0
25650,-0.745801,-0.749666,-0.0749947,0
25670,-0.748417,-0.739261,-0.068163,0
25690,-0.746924,-0.729646,-0.0619573,0
25710,-0.744239,-0.722411,-0.0558663,0
25730,-0.745666,-0.714141,-0.0461061,0
25750,-0.751026,-0.705226,-0.0337385,0
25770,-0.75484,-0.695652,-0.0208409,0
25790,-0.756482,-0.686061,-0.00669837,0
25810,-0.75828,-0.677708,0.00721253,0
25830,-0.764888,-0.668239,0.0220038,0
25840,-0.774815,-0.658099,0.0385569,0
25860,-0.782704,-0.648041,0.0560077,0
25880,-0.78656,-0.638378,0.0743302,0
25900,-0.786439,-0.629961,0.0920262,0
25920,-0.785653,-0.620406,0.106202,0
25940,-0.787247,-0.6093,0.118221,0
25960,-0.789544,-0.598886,0.13101,0
25980,-0.791049,-0.59149,0.145992,0
26020,-0.79178,-0.580473,0.181111,0
26040,-0.797316,-0.573344,0.219525,0
26090,-0.825365,-0.57194,0.309233,0
26110,-0.840294,-0.571084,0.335438,0
26130,-0.860795,-0.570981,0.366996,0
26150,-0.886258,-0.572131,0.402324,0
26170,-0.912881,-0.572947,0.438261,0
26190,-0.940306,-0.573693,0.472861,0
26210,-0.966639,-0.575639,0.505513,0
26250,-1.01035,-0.582481,0.572428,0
26270,-1.02689,-0.590304,0.606028,0
26290,-1.04155,-0.601739,0.637702,0
26310,-1.05629,-0.612266,0.666277,0
26330,-1.07171,-0.6221,0.693665,0
26340,-1.08792,-0.632432,0.723295,0
26360,-1.09895,-0.643954,0.752551,0
26380,-1.11891,-0.674581,0.805983,0
26400,-1.13174,-0.687757,0.82735,0
26420,-1.14436,-0.699792,0.847565,0
26440,-1.15643,-0.712839,0.870424,0
26460,-1.16872,-0.726985,0.894624,0
26480,-1.18317,-0.741527,0.91957,0
26500,-1.19977,-0.756099,0.94422,0
26520,-1.21794,-0.770977,0.968116,0
26540,-1.2349,-0.788308,0.992282,0
26560,-1.24729,-0.809602,1.01275,0
26580,-1.25895,-0.83405,1.02954,0
26600,-1.27374,-0.856664,1.04328,0
26620,-1.29242,-0.875602,1.05768,0
26640,-1.30921,-0.89306,1.0718,0
26660,-1.31847,-0.912114,1.08111,0
26680,-1.32937,-0.996598,1.05491,0
26710,-1.29836,-1.06429,0.967755,0
26730,-1.27795,-1.08369,0.922266,0
26770,-1.22261,-1.11718,0.816862,0
26810,-1.14996,-1.14284,0.688252,0
26830,-1.1066,-1.15139,0.615882,0
26860,-1.0124,-1.16362,0.47132,0
26870,-0.965626,-1.16566,0.402302,0
26900,-0.921258,-1.16563,0.33719,0
26920,-0.881805,-1.16527,0.279691,0
26940,-0.845517,-1.16391,0.226138,0
26950,-0.814052,-1.16134,0.178689,0
26970,-0.787304,-1.15807,0.136479,0
26990,-0.76114,-1.15312,0.0981701,0
27010,-0.73722,-1.14659,0.0660795,0
27030,-0.71523,-1.13944,0.0379575,0
27050,-0.692868,-1.13126,0.0100942,0
27070,-0.673293,-1.12083,-0.0165027,0
27090,-0.658308,-1.10831,-0.0370917,0
27110,-0.644922,-1.09463,-0.0514077,0
27130,-0.629484,-1.08104,-0.0645135,0
27150,-0.616045,-1.06601,-0.0751074,0
27170,-0.605837,-1.05046,-0.085224,0
27190,-0.599966,-1.03638,-0.0893789,0
27210,-0.592345,-1.02405,-0.0892731,0
27230,-0.577013,-1.01353,-0.0914713,0
27260,-0.549781,-0.990243,-0.103389,0
27280,-0.539684,-0.975413,-0.105462,0
27300,-0.52857,-0.964124,-0.102916,0
27320,-0.515143,-0.954714,-0.100807,0
27340,-0.508601,-0.943659,-0.0959897,0
27360,-0.509643,-0.930916,-0.0885441,0
27380,-0.515066,-0.919999,-0.0754542,0
27400,-0.520145,-0.909975,-0.059002,0
27410,-0.520677,-0.899543,-0.0444548,0
27430,-0.522194,-0.888305,-0.031639,0
27450,-0.528298,-0.876765,-0.0187345,0
27470,-0.539691,-0.864027,-0.00196603,0
27490,-0.547471,-0.851931,0.0145012,0
27510,-0.552404,-0.841146,0.0298839,0
27530,-0.560081,-0.831131,0.0459049,0
27550,-0.572013,-0.821922,0.0625769,0
27570,-0.585853,-0.814854,0.082139,0
27590,-0.599972,-0.808298,0.102944,0
27610,-0.61109,-0.80312,0.123787,0
27630,-0.621451,-0.800282,0.143562,0
27650,-0.633862,-0.799673,0.164044,0
27670,-0.649567,-0.798806,0.186689,0
27690,-0.665622,-0.798105,0.211656,0
27710,-0.680107,-0.800243,0.238659,0
27730,-0.698851,-0.803971,0.268071,0
27750,-0.723223,-0.807418,0.298783,0
27780,-0.772503,-0.81647,0.363101,0
27790,-0.797575,-0.819315,0.396448,0
27800,-0.81787,-0.82314,0.428112,0
27820,-0.834195,-0.827696,0.45715,0
27840,-0.854967,-0.833479,0.48805,0
27860,-0.885511,-0.841249,0.524311,0
27880,-0.914003,-0.848575,0.56138,0
27900,-0.936554,-0.85656,0.596713,0
27920,-0.960546,-0.865136,0.632554,0
27940,-0.988075,-0.872308,0.668222,0
27960,-1.01578,-0.879165,0.703959,0
27980,-1.04007,-0.887395,0.737689,0
28000,-1.06428,-0.895641,0.770401,0
28020,-1.08643,-0.90268,0.80317,0
28040,-1.11175,-0.911294,0.837186,0
28060,-1.14014,-0.922128,0.871693,0
28080,-1.16495,-0.934409,0.901452,0
28100,-1.18646,-0.947031,0.928084,0
28120,-1.20759,-0.960102,0.952684,0
28140,-1.22734,-0.973798,0.976427,0
28160,-1.24614,-0.988871,0.998807,0
28180,-1.26392,-1.00436,1.01942,0
28200,-1.28163,-1.0209,1.03807,0
28220,-1.30243,-1.03797,1.0562,0
28240,-1.32022,-1.05405,1.07048,0
28260,-1.33351,-1.07242,1.08212,0
28280,-1.34662,-1.09304,1.09266,0
28300,-1.35534,-1.11269,1.09545,0
28320,-1.35977,-1.13211,1.09198,0
28340,-1.36506,-1.15226,1.08557,0
28360,-1.37393,-1.17294,1.0833,0
28390,-1.3755,-1.23514,1.05672,0
28410,-1.36894,-1.25627,1.032,0
28430,-1.35557,-1.27516,1.00018,0
28450,-1.33843,-1.2932,0.966825,0
28470,-1.3152,-1.3087,0.927928,0
28490,-1.28166,-1.32284,0.878118,0
28510,-1.2385,-1.33802,0.817879,0
28530,-1.19304,-1.35259,0.755545,0
28540,-1.01548,-1.3961,0.525904,0
28570,-0.837587,-1.41868,0.314207,0
28590,-0.738984,-1.42495,0.199849,0
28610,-0.639974,-1.42933,0.0866462,0
28630,-0.54158,-1.42922,-0.0240201,0
28650,-0.454012,-1.4269,-0.124367,0
28670,-0.38194,-1.41988,-0.208643,0
28690,-0.325568,-1.40937,-0.276304,0
28710,-0.286567,-1.39677,-0.324285,0
28730,-0.262737,-1.38112,-0.352904,0
28750,-0.251544,-1.36385,-0.366032,0
28770,-0.247058,-1.34702,-0.372377,0
28790,-0.253034,-1.32964,-0.368549,0
28810,-0.268065,-1.31032,-0.355853,0
28830,-0.283837,-1.29092,-0.340746,0
28850,-0.295613,-1.27137,-0.328012,0
28890,-0.322639,-1.23342,-0.301046,0
28910,-0.338634,-1.21405,-0.284639,0
28930,-0.348026,-1.19636,-0.271968,0
28950,-0.350813,-1.1804,-0.265799,0
28970,-0.356426,-1.16422,-0.261481,0
28990,-0.388827,-1.11836,-0.228576,0
29010,-0.394297,-1.1057,-0.219529,0
29030,-0.434938,-1.06859,-0.182773,0
29050,-0.451753,-1.05917,-0.165594,0
29070,-0.466031,-1.05034,-0.152126,0
29090,-0.484074,-1.03993,-0.138816,0
29110,-0.506118,-1.02992,-0.121879,0
29130,-0.526305,-1.02137,-0.103446,0
29150,-0.539469,-1.01425,-0.0885207,0
29170,-0.55194,-1.00774,-0.075529,0
29190,-0.563406,-1.00127,-0.0660722,0
29210,-0.57587,-0.991512,-0.0559107,0
29230,-0.583317,-0.9818,-0.0460512,0
29250,-0.583618,-0.973269,-0.0393519,0
29270,-0.579693,-0.963988,-0.035057,0
29290,-0.578011,-0.955621,-0.0274002,0
29310,-0.578138,-0.946278,-0.0167335,0
29330,-0.580111,-0.936161,-0.00539481,0
29350,-0.584231,-0.925941,0.00733844,0
29370,-0.593588,-0.917732,0.0226741,0
29390,-0.610292,-0.90889,0.0424681,0
29410,-0.630208,-0.899665,0.0635471,0
29430,-0.651554,-0.891247,0.084739,0
29450,-0.675231,-0.88415,0.107189,0
29470,-0.702321,-0.876778,0.132944,0
29490,-0.732661,-0.86986,0.159487,0
29510,-0.763438,-0.860891,0.184341,0
29530,-0.791586,-0.85175,0.208899,0
29550,-0.81997,-0.845756,0.232497,0
29570,-0.8481,-0.840575,0.255276,0
29590,-0.873154,-0.833953,0.276245,0
29610,-0.895193,-0.830866,0.29686,0
29630,-0.9167,-0.831907,0.317317,0
29650,-0.937458,-0.83178,0.339112,0
29670,-0.958222,-0.833733,0.362427,0
29690,-0.977338,-0.838235,0.385481,0
29710,-0.997016,-0.842969,0.409661,0
29730,-1.01766,-0.8486,0.434826,0
29750,-1.04192,-0.856424,0.461782,0
29770,-1.06868,-0.864576,0.490862,0
29790,-1.09425,-0.872129,0.521783,0
29810,-1.12145,-0.883427,0.55768,0
29830,-1.15184,-0.89585,0.595189,0
29850,-1.18589,-0.908393,0.633996,0
29870,-1.22526,-0.922106,0.675629,0
29890,-1.26674,-0.935732,0.717719,0
29910,-1.30638,-0.947381,0.758878,0
29930,-1.342,-0.959002,0.797704,0
29930,-1.3772,-0.972612,0.835702,0
29950,-1.4148,-0.988477,0.87472,0
29970,-1.45162,-1.00269,0.913058,0
29990,-1.48601,-1.01431,0.949224,0
30010,-1.51671,-1.02436,0.983869,0
30030,-1.54422,-1.03537,1.01565,0
30050,-1.57263,-1.04931,1.04729,0
30070,-1.59915,-1.06178,1.07535,0
30090,-1.62386,-1.07444,1.09954,0
30110,-1.64677,-1.08767,1.12269,0
30130,-1.66929,-1.10033,1.14604,0
30150,-1.69225,-1.11384,1.16848,0
30170,-1.71324,-1.1256,1.18708,0
30190,-1.72614,-1.13497,1.19752,0
30210,-1.73603,-1.14196,1.20553,0
30230,-1.74465,-1.1475,1.21402,0
30250,-1.74975,-1.15135,1.22218,0
30270,-1.75281,-1.1548,1.22864,2001
30290,-1.75263,-1.1577,1.22954,0
30310,-1.76432,-1.1628,1.23338,0
30330,-1.76925,-1.16344,1.23634,0
30350,-1.76787,-1.16258,1.23701,0
30370,-1.76221,-1.16176,1.23568,0
30390,-1.75612,-1.16201,1.23363,0
30410,-1.75443,-1.16281,1.23299,0
30430,-1.75243,-1.16303,1.23273,0
30450,-1.74683,-1.16288,1.22922,0
30470,-1.7417,-1.16302,1.2262,0
30490,-1.73395,-1.16254,1.22079,0
30510,-1.72137,-1.1609,1.21021,0
30530,-1.70931,-1.15736,1.19869,0
30550,-1.69593,-1.15019,1.18309,0
30570,-1.6746,-1.13909,1.16067,0
30590,-1.64276,-1.1252,1.13031,0
30610,-1.60682,-1.10917,1.09661,0
30630,-1.56776,-1.09063,1.05951,0
30650,-1.52296,-1.07035,1.01762,0
30670,-1.46883,-1.04951,0.968707,0
30690,-1.40868,-1.02705,0.914782,0
30710,-1.34526,-1.00313,0.862227,0
30730,-1.27821,-0.97946,0.811938,0
30750,-1.21159,-0.954114,0.763978,0
30770,-1.15014,-0.925301,0.723403,0
30780,-1.09558,-0.895756,0.691805,0
30800,-1.04898,-0.864777,0.665433,0
30820,-1.00796,-0.830825,0.643948,0
30840,-0.974882,-0.797188,0.63199,0
30860,-0.95305,-0.765096,0.627061,0
30880,-0.937424,-0.735302,0.625555,0
30900,-0.927389,-0.711279,0.628132,0
30920,-0.925936,-0.691292,0.633476,0
30940,-0.927376,-0.673173,0.636453,0
30960,-0.944821,-0.629039,0.634422,0
30980,-0.950611,-0.615621,0.630655,0
31000,-0.933027,-0.559276,0.608366,0
31030,-0.914348,-0.550788,0.595011,0
31060,-0.912745,-0.549874,0.59585,2000
31080,-0.914034,-0.54865,0.596116,0
31110,-0.922365,-0.543089,0.596618,0
31130,-0.91906,-0.535915,0.598793,0
31150,-0.919608,-0.532415,0.610696,0
31170,-0.92048,-0.532939,0.615019,0
31190,-0.920328,-0.534123,0.619593,0
31200,-0.924373,-0.570971,0.667263,0
31200,-0.927556,-0.578284,0.677881,0
31240,-0.96126,-0.642674,0.745982,0
31250,-0.973055,-0.674508,0.751466,0
31270,-0.97835,-0.683741,0.749547,0
31290,-0.979532,-0.70405,0.737648,0
31310,-0.982458,-0.727445,0.715741,0
31330,-0.98114,-0.736998,0.698694,0
31350,-0.974968,-0.746507,0.675793,0
31370,-0.968728,-0.756226,0.650503,0
31390,-0.962815,-0.766096,0.62254,0
31410,-0.953821,-0.775224,0.590145,0
31430,-0.940961,-0.784475,0.552296,0
31450,-0.9287,-0.793349,0.511167,0
31510,-0.791646,-0.861353,0.0280743,0
31530,-0.788561,-0.860766,0.00941647,0
31550,-0.787726,-0.860315,-0.00424308,0
31570,-0.785331,-0.859352,-0.0173621,0
31590,-0.78178,-0.856427,-0.0307968,0
31610,-0.778767,-0.85087,-0.0438586,0
31630,-0.777519,-0.843518,-0.0554891,0
31650,-0.774959,-0.83582,-0.0664163,0
31670,-0.768593,-0.827569,-0.0777113,0
31690,-0.758635,-0.818965,-0.0902954,0
31710,-0.748778,-0.810003,-0.101965,0
31750,-0.73991,-0.791732,-0.11856,0
31770,-0.734946,-0.782559,-0.122554,0
31790,-0.730246,-0.774423,-0.123722,0
31810,-0.723592,-0.766639,-0.126284,0
31830,-0.715167,-0.759833,-0.130258,0
31850,-0.70913,-0.752868,-0.132018,0
31870,-0.704522,-0.745117,-0.132433,0
31890,-0.70322,-0.736417,-0.130694,0
31910,-0.704831,-0.727137,-0.125874,0
31930,-0.704897,-0.716324,-0.118241,0
31950,-0.70354,-0.705809,-0.11022,0
31990,-0.719201,-0.675979,-0.0756804,0
32010,-0.725455,-0.668574,-0.0588281,0
32020,-0.728604,-0.664033,-0.0430594,0
32030,-0.732789,-0.660299,-0.0278503,0
32050,-0.739457,-0.655268,-0.0128413,0
32060,-0.74724,-0.645407,0.0214689,0
32080,-0.749529,-0.643552,0.0387401,0
32090,-0.760503,-0.637243,0.072205,0
32130,-0.772609,-0.633948,0.170253,0
32140,-0.775395,-0.63506,0.218112,0
32170,-0.815554,-0.631371,0.304017,0
32180,-0.830517,-0.629965,0.328697,0
32190,-0.847787,-0.629083,0.355649,0
32210,-0.868116,-0.628111,0.384956,0
32230,-0.922315,-0.626072,0.445776,0
32250,-0.948565,-0.624593,0.473719,0
32270,-0.969511,-0.623294,0.500793,0
32290,-0.983707,-0.625092,0.525363,0
32310,-0.996761,-0.630578,0.54842,0
32330,-1.01239,-0.637499,0.570893,0
32350,-1.0277,-0.643471,0.592524,0
32370,-1.03894,-0.649411,0.613294,0
32390,-1.04738,-0.656416,0.634265,0
32410,-1.05426,-0.665324,0.654897,0
32430,-1.06209,-0.676137,0.674607,0
32450,-1.0723,-0.687276,0.694438,0
32470,-1.08474,-0.696894,0.714025,0
32490,-1.09645,-0.706087,0.733705,0
32510,-1.10521,-0.716295,0.752179,0
32530,-1.11327,-0.72703,0.769171,0
32550,-1.12288,-0.739263,0.786234,0
32570,-1.13216,-0.75138,0.801579,0
32590,-1.13823,-0.763886,0.813582,0
32610,-1.14635,-0.776026,0.825397,0
32630,-1.15723,-0.788131,0.83698,0
32650,-1.16406,-0.800059,0.845363,0
32670,-1.16693,-0.813716,0.851655,0
32690,-1.16845,-0.828334,0.854738,0
32710,-1.17241,-0.842894,0.858836,0
32730,-1.17573,-0.85751,0.861075,0
32760,-1.17417,-0.888887,0.856317,0
32780,-1.17296,-0.903553,0.848793,0
32800,-1.1733,-0.916377,0.840522,0
32820,-1.17084,-0.930038,0.830614,0
32840,-1.16424,-0.945011,0.816485,0
32860,-1.15618,-0.959185,0.796889,0
32880,-1.14947,-0.97075,0.775122,0
32890,-1.13998,-0.981872,0.750227,0
32910,-1.12484,-0.994317,0.720257,0
32930,-1.1069,-1.00708,0.685223,0
32950,-1.09259,-1.0181,0.648875,0
32970,-1.07578,-1.0272,0.609461,0
32990,-1.05386,-1.03604,0.56585,0
33010,-1.03067,-1.04428,0.519418,0
33030,-1.00897,-1.05094,0.472894,0
33050,-0.985576,-1.05667,0.426395,0
33070,-0.958489,-1.06283,0.378195,0
33090,-0.930818,-1.06826,0.32917,0
33110,-0.903856,-1.07336,0.281499,0
33130,-0.88052,-1.07746,0.238067,0
33150,-0.862675,-1.08026,0.201071,0
33170,-0.848632,-1.08107,0.170099,0
33190,-0.83808,-1.07961,0.142585,0
33210,-0.825511,-1.07667,0.114049,0
33230,-0.813151,-1.07331,0.0863988,0
33250,-0.802656,-1.06916,0.0636085,0
33270,-0.792538,-1.06424,0.0438598,0
33290,-0.77924,-1.05721,0.0215703,0
33310,-0.767686,-1.04867,0.000884909,0
33330,-0.759282,-1.03966,-0.0178224,0
33350,-0.752084,-1.02801,-0.0345389,0
33370,-0.741963,-1.01316,-0.0501739,0
33390,-0.730109,-0.997858,-0.0676929,0
33410,-0.718008,-0.982275,-0.0867104,0
33430,-0.710366,-0.965901,-0.100214,0
33450,-0.704633,-0.948311,-0.111118,0
33470,-0.695027,-0.93193,-0.120962,0
33490,-0.6877,-0.915564,-0.127817,0
33510,-0.683475,-0.902191,-0.13277,0
33530,-0.683905,-0.89058,-0.135239,0
33560,-0.684051,-0.872705,-0.135294,0
33590,-0.683281,-0.851398,-0.133489,0
33610,-0.683713,-0.839642,-0.128754,0
33640,-0.686432,-0.820643,-0.113852,0
33650,-0.71884,-0.794165,-0.0568558,0
33660,-0.734352,-0.785087,-0.0229622,0
33680,-0.743496,-0.78103,-0.00573814,0
33690,-0.761224,-0.768558,0.0301342,0
33710,-0.770844,-0.761586,0.0501484,0
33730,-0.781558,-0.755567,0.0719744,0
33750,-0.791584,-0.753132,0.0947882,0
33770,-0.799305,-0.751671,0.116292,0
33790,-0.807047,-0.749898,0.136567,0
33810,-0.816316,-0.747039,0.156234,0
33830,-0.828597,-0.745529,0.176836,0
33850,-0.841233,-0.743313,0.19663,0
33870,-0.854411,-0.739599,0.217238,0
33890,-0.867189,-0.736074,0.238029,0
33910,-0.878998,-0.732081,0.257215,0
33930,-0.891218,-0.727936,0.275776,0
33950,-0.904918,-0.725246,0.296609,0
33960,-0.938098,-0.717974,0.339499,0
33970,-0.956073,-0.717225,0.362423,0
33990,-0.972472,-0.717088,0.384841,0
34020,-1.03902,-0.72471,0.476525,0
34040,-1.05735,-0.729978,0.502425,0
34060,-1.07919,-0.737103,0.530079,0
34080,-1.1015,-0.744332,0.55693,0
34100,-1.12213,-0.752463,0.583311,0
34120,-1.14115,-0.762789,0.608133,0
34140,-1.17416,-0.787253,0.65611,0
34160,-1.18933,-0.802824,0.679804,0
34180,-1.20602,-0.817019,0.704024,0
34200,-1.22414,-0.83131,0.729013,0
34220,-1.24225,-0.846596,0.75374,0
34240,-1.26119,-0.861507,0.7776,0
34260,-1.27933,-0.875362,0.801035,0
34280,-1.29725,-0.889117,0.823754,0
34300,-1.31544,-0.902971,0.845722,0
34320,-1.33343,-0.915435,0.867355,0
34340,-1.35258,-0.927454,0.890088,0
34360,-1.37046,-0.938564,0.910606,0
34380,-1.38786,-0.949645,0.93088,0
34400,-1.40582,-0.960573,0.950406,0
34420,-1.42142,-0.969495,0.966267,0
34440,-1.43305,-0.976273,0.97784,0
34460,-1.44358,-0.981949,0.988858,0
34480,-1.45358,-0.987321,0.998314,0
34500,-1.46277,-0.993425,1.00571,0
34520,-1.47218,-0.999647,1.00943,0
34540,-1.47875,-1.00611,1.01036,0
34560,-1.4823,-1.01501,1.00981,0
34590,-1.49658,-1.05082,0.999337,0
34600,-1.49762,-1.06347,0.991637,0
34640,-1.50291,-1.0907,0.97683,0
34660,-1.50537,-1.10339,0.966954,0
34670,-1.5087,-1.11503,0.957613,0
34690,-1.50877,-1.12591,0.946219,0
34700,-1.49385,-1.15724,0.897017,0
34720,-1.48812,-1.16644,0.877982,0
34740,-1.4767,-1.1754,0.854361,0
34760,-1.46006,-1.18545,0.82753,0
34780,-1.43978,-1.1972,0.797633,0
34800,-1.41818,-1.20839,0.765007,0
34820,-1.39478,-1.21792,0.730072,0
34840,-1.36707,-1.22622,0.691715,0
34860,-1.33281,-1.23435,0.646572,0
34870,-1.29636,-1.24151,0.601039,0
34890,-1.21267,-1.25134,0.494548,0
34900,-1.16817,-1.25055,0.437254,0
34910,-0.854924,-1.17034,0.0543792,0
34920,-0.832535,-1.15194,0.0231605,0
34920,-0.817885,-1.13077,-0.000705499,0
34940,-0.807409,-1.10916,-0.0166212,0
34960,-0.797176,-1.0879,-0.0306214,0
34980,-0.789516,-1.06572,-0.0434695,0
35000,-0.789546,-1.0431,-0.0510625,0
35020,-0.792411,-1.02175,-0.0542369,0
35040,-0.790546,-1.00208,-0.0606272,0
35060,-0.787222,-0.982508,-0.0680533,0
35080,-0.790626,-0.962504,-0.071711,0
35100,-0.797311,-0.943445,-0.0696782,0
35120,-0.800913,-0.926669,-0.0647089,0
35140,-0.801163,-0.913943,-0.0610193,0
35160,-0.806923,-0.904593,-0.0555414,0
35180,-0.820136,-0.895838,-0.0448356,0
35200,-0.834249,-0.88829,-0.0285781,0
35220,-0.844611,-0.88305,-0.0128221,0
35240,-0.855146,-0.878733,0.00428835,0
35260,-0.8698,-0.875886,0.0237663,0
35280,-0.886472,-0.872187,0.0454849,0
35300,-0.905003,-0.87028,0.0707302,0
35320,-0.924109,-0.86955,0.0963419,0
35340,-0.943987,-0.867113,0.121931,0
35360,-0.964737,-0.864351,0.148625,0
35380,-0.986675,-0.862718,0.176797,0
35400,-1.00742,-0.860375,0.203401,0
35420,-1.02863,-0.856823,0.230037,0
35440,-1.05261,-0.853396,0.257959,0
35460,-1.08005,-0.849927,0.286487,0
35480,-1.10495,-0.845892,0.314042,0
35500,-1.12908,-0.843696,0.341814,0
35520,-1.15222,-0.842424,0.366851,0
35540,-1.17305,-0.839712,0.39134,0
35560,-1.19097,-0.838131,0.415744,0
35580,-1.20867,-0.839252,0.44037,0
35580,-1.22845,-0.841287,0.464651,0
35600,-1.24751,-0.84248,0.488762,0
35620,-1.26654,-0.845866,0.51568,0
35640,-1.28654,-0.851188,0.543332,0
35660,-1.30778,-0.856462,0.571836,0
35680,-1.33031,-0.862273,0.602093,0
35700,-1.3557,-0.869134,0.633859,0
35720,-1.38111,-0.877035,0.666833,0
35740,-1.40695,-0.886225,0.701304,0
35760,-1.43608,-0.895546,0.737687,0
35780,-1.47014,-0.904045,0.775353,0
35800,-1.50687,-0.909309,0.811385,0
35820,-1.54304,-0.911583,0.845598,0
35840,-1.57796,-0.912313,0.880423,0
35860,-1.60926,-0.913426,0.914193,0
35880,-1.63703,-0.916828,0.94596,0
35900,-1.66406,-0.923239,0.97715,0
35920,-1.68752,-0.931078,1.00512,0
35940,-1.70667,-0.939597,1.03123,0
35960,-1.72708,-0.951045,1.05928,0
35980,-1.74762,-0.964656,1.08504,0
36000,-1.76627,-0.97655,1.10744,0
36020,-1.78379,-0.987334,1.12874,0
36040,-1.80207,-0.998318,1.1489,0
36060,-1.81772,-1.0084,1.16601,0
36080,-1.82974,-1.01673,1.17854,0
36100,-1.84216,-1.02479,1.18995,0
36120,-1.85396,-1.03273,1.19851,0
36140,-1.86359,-1.04028,1.20308,0
36160,-1.86698,-1.04531,1.20392,0
36180,-1.86822,-1.05025,1.2026,0
36200,-1.87107,-1.05492,1.20332,2001
36220,-1.87208,-1.05815,1.2016,0
36240,-1.86951,-1.06055,1.19746,0
36260,-1.86673,-1.06273,1.19393,0
36280,-1.86633,-1.06329,1.19139,0
36300,-1.86612,-1.06199,1.19021,0
36320,-1.8651,-1.06082,1.1889,0
36340,-1.86493,-1.06024,1.18859,0
36360,-1.8641,-1.05935,1.18739,0
36380,-1.85835,-1.05756,1.18016,0
36400,-1.84544,-1.05533,1.16713,0
36420,-1.82618,-1.05017,1.1524,0
36440,-1.8097,-1.04281,1.14148,0
36460,-1.79008,-1.03603,1.1288,0
36490,-1.68674,-1.00803,1.05469,0
36520,-1.59521,-0.976781,0.991387,0
36550,-1.29354,-0.84116,0.797478,0
36570,-1.25087,-0.820007,0.770398,0
36590,-1.21301,-0.798958,0.748011,0
36610,-1.18207,-0.778508,0.727759,0
36630,-1.15111,-0.760569,0.704013,0
36650,-1.12693,-0.743794,0.682031,0
36670,-1.11339,-0.726087,0.664766,0
36690,-1.10192,-0.708422,0.650971,0
36710,-1.08941,-0.690949,0.637671,0
36730,-1.07572,-0.672815,0.621892,0
36750,-1.06471,-0.6558,0.605297,0
36770,-1.06036,-0.638948,0.591068,0
36790,-1.06046,-0.621504,0.580235,0
36810,-1.05725,-0.60487,0.572301,0
36830,-1.04808,-0.591046,0.56414,0
36850,-1.03999,-0.580178,0.557349,0
36870,-1.03497,-0.571757,0.551198,0
36890,-1.03263,-0.56372,0.545338,0
36910,-1.02985,-0.557065,0.541331,0
36930,-1.02457,-0.552706,0.539318,0
36950,-1.01985,-0.549263,0.53767,0
36970,-1.01632,-0.544989,0.534476,0
37010,-1.01679,-0.534901,0.531294,0
37030,-1.01504,-0.529244,0.530892,0
37050,-1.00893,-0.519819,0.529097,2000
37070,-1.00708,-0.517209,0.52853,0
37090,-1.0071,-0.515132,0.528129,0
37110,-1.00627,-0.512282,0.527821,0
37130,-1.0064,-0.51021,0.528796,0
37140,-1.00229,-0.513727,0.533727,0
37160,-1.00278,-0.518004,0.536023,0
37180,-1.00672,-0.520682,0.539222,0
37200,-1.01227,-0.523909,0.544704,0
37230,-1.01599,-0.538214,0.560265,0
37250,-1.01725,-0.547422,0.569725,0
37270,-1.02185,-0.556521,0.581058,0
37290,-1.02826,-0.566388,0.593028,0
37310,-1.03558,-0.576311,0.60655,0
37340,-1.04714,-0.595951,0.634591,0
37350,-1.06507,-0.62696,0.665279,0
37360,-1.07129,-0.652,0.678456,0
37380,-1.07449,-0.664831,0.68154,0
37390,-1.07876,-0.676184,0.68231,0
37410,-1.08473,-0.685522,0.682849,0
37430,-1.08874,-0.694548,0.682757,0
37450,-1.08734,-0.705847,0.68089,0
37470,-1.08377,-0.718964,0.676814,0
37490,-1.08321,-0.731041,0.670508,0
37510,-1.08574,-0.740972,0.662191,0
37530,-1.08943,-0.74809,0.653552,0
37550,-1.0903,-0.753717,0.643491,0
37570,-1.08641,-0.760381,0.630916,0
37590,-1.0796,-0.768387,0.612367,0
37610,-1.07366,-0.775878,0.59078,0
37620,-1.06407,-0.788443,0.540929,0
37640,-1.05412,-0.794885,0.511511,0
37660,-1.02868,-0.807442,0.413542,0
37690,-1.00798,-0.813017,0.340854,0
37710,-0.995897,-0.815279,0.302586,0
37720,-0.985222,-0.816548,0.264115,0
37730,-0.973952,-0.817898,0.225909,0
37750,-0.951733,-0.823703,0.150928,0
37770,-0.90695,-0.838662,0.0346139,0
37790,-0.895348,-0.844015,0.00295087,0
37810,-0.884589,-0.848605,-0.0242301,0
37830,-0.873086,-0.848436,-0.0692678,0
37860,-0.866231,-0.836498,-0.0976957,0
37870,-0.860013,-0.831765,-0.108481,0
37890,-0.855185,-0.826333,-0.117034,0
37910,-0.851863,-0.820231,-0.124528,0
37930,-0.84862,-0.81356,-0.130863,0
37950,-0.845058,-0.806751,-0.135421,0
37970,-0.841535,-0.799645,-0.138402,0
37990,-0.839932,-0.792335,-0.141412,0
38010,-0.838022,-0.783043,-0.14377,0
38030,-0.836247,-0.773136,-0.143675,0
38050,-0.830201,-0.763428,-0.142566,0
38070,-0.822179,-0.754194,-0.140334,0
38090,-0.816452,-0.745456,-0.136897,0
38110,-0.816105,-0.735327,-0.130634,0
38130,-0.817598,-0.724329,-0.12301,0
38150,-0.817328,-0.712989,-0.114274,0
38170,-0.813597,-0.700939,-0.105212,0
38190,-0.807665,-0.689503,-0.0957525,0
38210,-0.798156,-0.671137,-0.0751966,0
38230,-0.794153,-0.663968,-0.0611649,0
38250,-0.789244,-0.660396,-0.0439023,0
38270,-0.786,-0.660606,-0.0244327,0
38290,-0.786413,-0.660545,-0.00434477,0
38310,-0.790568,-0.659286,0.0172423,0
38330,-0.798051,-0.658121,0.0429501,0
38340,-0.80487,-0.658213,0.069382,0
38360,-0.816406,-0.657009,0.119999,0
38380,-0.82277,-0.655467,0.144797,0
38400,-0.830464,-0.655029,0.171866,0
38410,-0.845223,-0.659833,0.228514,0
38430,-0.853906,-0.662926,0.255436,0
38450,-0.866004,-0.664604,0.28281,0
38470,-0.880181,-0.664652,0.311524,0
38490,-0.921221,-0.667905,0.401123,0
38510,-0.939113,-0.668492,0.431767,0
38530,-0.956032,-0.670442,0.46221,0
38560,-0.985995,-0.679284,0.519148,0
38580,-1.00154,-0.683893,0.545316,0
38600,-1.01407,-0.68866,0.569828,0
38620,-1.0235,-0.695575,0.594259,0
38640,-1.03312,-0.705653,0.619071,0
38660,-1.04304,-0.716812,0.641192,0
38680,-1.05081,-0.728219,0.659681,0
38700,-1.05984,-0.740239,0.679277,0
38720,-1.06945,-0.753241,0.701469,0
38740,-1.07824,-0.767332,0.72176,0
38750,-1.09685,-0.794463,0.756877,0
38770,-1.10817,-0.809715,0.772655,0
38790,-1.11373,-0.825018,0.782528,0
38800,-1.11697,-0.839363,0.788112,0
38820,-1.1212,-0.854001,0.791681,0
38840,-1.12494,-0.868724,0.793335,0
38860,-1.12687,-0.885618,0.791902,0
38880,-1.12681,-0.904149,0.786921,0
38900,-1.12511,-0.92374,0.77712,0
38920,-1.12197,-0.94346,0.763057,0
38970,-0.945467,-1.07624,0.466308,0
38990,-0.910359,-1.09009,0.40635,0
39010,-0.874,-1.10235,0.345507,0
39030,-0.836415,-1.11213,0.283091,0
39050,-0.798401,-1.12004,0.218464,0
39070,-0.763357,-1.12564,0.155406,0
39090,-0.730778,-1.12796,0.0946771,0
39110,-0.70042,-1.12922,0.0378659,0
39130,-0.671683,-1.12969,-0.0135844,0
39150,-0.643744,-1.12968,-0.0623509,0
39170,-0.620048,-1.12857,-0.106379,0
39190,-0.598516,-1.1254,-0.146784,0
39210,-0.580087,-1.12251,-0.180611,0
39230,-0.563653,-1.11897,-0.210792,0
39250,-0.550298,-1.11374,-0.238112,0
39270,-0.540949,-1.10538,-0.261556,0
39290,-0.537249,-1.09253,-0.2789,0
39310,-0.533471,-1.07645,-0.292307,0
39330,-0.52767,-1.06075,-0.305508,0
39350,-0.521253,-1.04694,-0.31825,0
39370,-0.520674,-1.03236,-0.325316,0
39390,-0.524298,-1.01684,-0.328915,0
39410,-0.527627,-1.00028,-0.330404,0
39430,-0.529181,-0.985303,-0.327845,0
39450,-0.530101,-0.974333,-0.32529,0
39470,-0.532193,-0.963605,-0.324806,0
39490,-0.539639,-0.951097,-0.320664,0
39510,-0.547724,-0.937682,-0.310645,0
39530,-0.551202,-0.925208,-0.300216,0
39550,-0.551969,-0.914436,-0.291214,0
39570,-0.558156,-0.903231,-0.280638,0
39590,-0.571752,-0.890159,-0.266715,0
39610,-0.586341,-0.875311,-0.249146,0
39630,-0.600603,-0.862132,-0.227754,0
39650,-0.614395,-0.852654,-0.207259,0
39690,-0.685606,-0.781535,-0.122067,0
39710,-0.695869,-0.767892,-0.107097,0
39730,-0.721684,-0.750063,-0.0722679,0
39740,-0.729627,-0.741597,-0.0547652,0
39760,-0.734542,-0.734537,-0.0384281,0
39780,-0.742979,-0.730556,-0.019845,0
39800,-0.755548,-0.727433,0.00114181,0
39820,-0.766623,-0.72397,0.0223845,0
39840,-0.775055,-0.721323,0.0428916,0
39860,-0.782727,-0.721231,0.0635297,0
39880,-0.793767,-0.72168,0.0861491,0
39900,-0.807798,-0.724207,0.110725,0
39920,-0.82584,-0.727485,0.137253,0
39940,-0.848264,-0.731815,0.166886,0
39960,-0.868378,-0.735598,0.194216,0
39980,-0.912677,-0.742155,0.253241,0
40020,-0.990549,-0.758437,0.353395,0
40030,-1.02044,-0.764604,0.388386,0
40080,-1.11538,-0.780519,0.493858,0
40100,-1.14422,-0.786631,0.528452,0
40120,-1.1726,-0.793346,0.56387,0
40140,-1.20136,-0.801134,0.599961,0
40160,-1.22533,-0.810189,0.63322,0
40180,-1.24703,-0.821651,0.666571,0
40200,-1.26865,-0.836774,0.699689,0
40220,-1.29079,-0.852899,0.731196,0
40240,-1.31217,-0.870794,0.761816,0
40260,-1.33323,-0.889068,0.790454,0
40280,-1.35253,-0.906418,0.816162,0
40300,-1.37328,-0.924052,0.842062,0
40320,-1.39541,-0.943077,0.865056,0
40340,-1.41282,-0.959151,0.883099,0
40360,-1.4279,-0.974084,0.896255,0
40380,-1.44141,-0.988491,0.905179,0
40400,-1.4532,-1.00115,0.910222,0
40440,-1.46331,-1.02559,0.907585,0
40460,-1.46425,-1.04032,0.902239,0
40480,-1.46699,-1.05722,0.896046,0
40500,-1.46865,-1.07308,0.886357,0
40520,-1.46816,-1.0888,0.874519,0
40540,-1.46584,-1.10579,0.861949,0
40560,-1.46391,-1.1242,0.84717,0
40590,-1.43866,-1.17956,0.769319,0
40620,-1.35026,-1.22959,0.625625,0
40640,-1.30669,-1.24421,0.563826,0
40660,-1.25865,-1.25683,0.496721,0
40680,-1.20373,-1.26884,0.423518,0
40700,-1.14619,-1.28013,0.347884,0
40720,-1.09488,-1.29062,0.278124,0
40740,-1.04553,-1.29928,0.209768,0
40760,-1.00427,-1.30547,0.148522,0
40780,-0.969629,-1.30725,0.0930421,0
40800,-0.930442,-1.30293,0.0325919,0
40840,-0.848898,-1.28054,-0.0871485,0
40850,-0.819994,-1.26331,-0.131213,0
40870,-0.791366,-1.24373,-0.173329,0
40890,-0.763789,-1.22278,-0.212984,0
40910,-0.743059,-1.19953,-0.24666,0
40930,-0.735045,-1.17401,-0.265242,0
40950,-0.730126,-1.1487,-0.279305,0
40970,-0.721144,-1.12454,-0.293467,0
40990,-0.714619,-1.10313,-0.307211,0
41010,-0.718634,-1.08069,-0.314209,0
41030,-0.727602,-1.05724,-0.314085,0
41050,-0.733529,-1.0369,-0.311615,0
41070,-0.73681,-1.01969,-0.310043,0
41090,-0.742257,-1.00322,-0.308517,0
41110,-0.751384,-0.987213,-0.303867,0
41130,-0.759606,-0.971612,-0.296632,0
41150,-0.764726,-0.956884,-0.287438,0
41170,-0.769396,-0.944592,-0.276865,0
41190,-0.779108,-0.932263,-0.265848,0
41210,-0.795632,-0.919926,-0.250557,0
41230,-0.811815,-0.908575,-0.234841,0
41250,-0.825337,-0.898474,-0.218407,0
41270,-0.838228,-0.889958,-0.20143,0
41290,-0.85406,-0.881435,-0.182734,0
41310,-0.869766,-0.873222,-0.163395,0
41330,-0.883373,-0.86559,-0.143287,0
41350,-0.912706,-0.856145,-0.0998182,0
41370,-0.931221,-0.850558,-0.0762969,0
41390,-0.949478,-0.844724,-0.0516341,0
41410,-0.965476,-0.841032,-0.0272497,0
41430,-0.980073,-0.837245,-0.00293233,0
41450,-0.998292,-0.833462,0.0230396,0
41470,-1.01837,-0.832629,0.0491996,0
41490,-1.03632,-0.829374,0.0738818,0
41510,-1.05606,-0.827065,0.101424,0
41530,-1.07656,-0.826964,0.128724,0
41550,-1.09738,-0.826019,0.155619,0
41570,-1.1191,-0.826042,0.183897,0
41590,-1.14306,-0.827259,0.214056,0
41610,-1.1714,-0.8299,0.248841,0
41630,-1.20063,-0.833691,0.283392,0
41650,-1.22855,-0.837399,0.316746,0
41670,-1.25832,-0.842365,0.349266,0
41690,-1.28808,-0.848339,0.381122,0
41710,-1.31521,-0.855379,0.414937,0
41730,-1.34047,-0.864588,0.449174,0
41800,-1.4968,-0.917205,0.645777,0
41820,-1.52795,-0.925531,0.679404,0
41840,-1.5576,-0.932702,0.711725,0
41880,-1.65083,-0.970194,0.831874,0
41900,-1.67242,-0.980245,0.856874,0
41920,-1.68874,-0.990415,0.878139,0
41940,-1.7044,-1.00161,0.900305,0
41960,-1.72603,-1.01402,0.925895,0
41980,-1.74983,-1.0261,0.951918,0
42000,-1.76901,-1.03951,0.973521,0
42020,-1.7843,-1.05272,0.992728,0
42040,-1.80138,-1.06582,1.01104,0
42060,-1.81849,-1.07912,1.02579,0
42080,-1.83472,-1.08953,1.03646,0
42100,-1.84905,-1.09596,1.04586,0
42120,-1.85796,-1.0993,1.05241,0
42140,-1.86342,-1.10108,1.05757,0
42160,-1.86558,-1.10256,1.06123,0
42180,-1.86875,-1.10411,1.06262,2001
42200,-1.87392,-1.10476,1.06333,0
42220,-1.87608,-1.10535,1.06246,0
42240,-1.87449,-1.10583,1.05927,0
42260,-1.86911,-1.10726,1.05491,0
42280,-1.87018,-1.10955,1.05853,0
42300,-1.87026,-1.10924,1.06012,0
42320,-1.86563,-1.10787,1.05738,0
42340,-1.86434,-1.10834,1.05652,0
42360,-1.86105,-1.10655,1.0543,0
42380,-1.85154,-1.10171,1.04922,0
42400,-1.83328,-1.09631,1.03793,0
42420,-1.80898,-1.08921,1.01956,0
42440,-1.71052,-1.02905,0.931764,0
42450,-1.65366,-0.980264,0.876858,0
42480,-1.35633,-0.719648,0.633114,0
42510,-1.30547,-0.66991,0.608087,0
42530,-1.28145,-0.650408,0.598213,0
42560,-1.18823,-0.609685,0.576884,0
42580,-1.1724,-0.603747,0.57498,0
42600,-1.16058,-0.597386,0.574481,0
42640,-1.13585,-0.569457,0.57845,0
42660,-1.12814,-0.560265,0.57729,0
42690,-1.11234,-0.543123,0.575471,0
42710,-1.10182,-0.534901,0.576315,0
42740,-1.08274,-0.527602,0.582569,0
42770,-1.07131,-0.531905,0.594509,0
42790,-1.06952,-0.532517,0.598207,0
42810,-1.06598,-0.53273,0.599626,0
42820,-1.0624,-0.532158,0.599731,0
42840,-1.06116,-0.530803,0.598929,0
42870,-1.04681,-0.51463,0.586374,2000
42890,-1.04656,-0.511428,0.585275,0
42900,-1.04393,-0.508588,0.585743,0
42920,-1.04104,-0.499817,0.585062,0
42940,-1.03986,-0.498142,0.585693,0
42960,-1.03499,-0.497114,0.588001,0
43010,-1.03796,-0.517052,0.634391,0
43030,-1.03926,-0.527986,0.658197,0
43050,-1.03932,-0.535855,0.66994,0
43070,-1.04138,-0.543923,0.679197,0
43090,-1.04406,-0.551127,0.686941,0
43120,-1.04103,-0.591263,0.699756,0
43130,-1.03417,-0.62388,0.691206,0
43150,-1.03181,-0.635267,0.68424,0
43170,-1.02961,-0.648084,0.676218,0
43190,-1.02697,-0.663157,0.666022,0
43210,-1.02416,-0.679234,0.653164,0
43230,-1.02376,-0.693407,0.638762,0
43250,-1.02352,-0.707135,0.623004,0
43270,-1.02198,-0.721726,0.604923,0
43290,-1.01984,-0.736228,0.584357,0
43310,-1.01865,-0.75011,0.56134,0
43350,-0.973875,-0.831692,0.291255,0
43360,-0.929844,-0.846653,0.123894,0
43380,-0.90435,-0.847786,0.0281676,0
43400,-0.899813,-0.849653,0.00347808,0
43420,-0.898231,-0.848733,-0.0193597,0
43450,-0.901234,-0.842826,-0.0485869,0
43490,-0.90992,-0.836196,-0.0698841,0
43510,-0.911782,-0.831802,-0.0723129,0
43530,-0.912769,-0.826985,-0.073646,0
43550,-0.912541,-0.822519,-0.0751326,0
43570,-0.910958,-0.817979,-0.0774002,0
43590,-0.909477,-0.809983,-0.080401,0
43610,-0.907043,-0.800099,-0.0834672,0
43630,-0.904743,-0.789862,-0.0845955,0
43650,-0.899958,-0.779325,-0.0841866,0
43670,-0.89443,-0.766474,-0.083112,0
43690,-0.889718,-0.752378,-0.0793511,0
43710,-0.886277,-0.740287,-0.0744379,0
43750,-0.887313,-0.687772,-0.0267464,0
43770,-0.886371,-0.676267,-0.016825,0
43790,-0.88476,-0.665478,-0.00526885,0
43810,-0.882506,-0.656125,0.00834185,0
43820,-0.86048,-0.635177,0.0427927,0
43840,-0.856369,-0.630706,0.0578867,0
43860,-0.852773,-0.627068,0.0749302,0
43870,-0.852517,-0.623918,0.114436,0
43890,-0.856198,-0.623252,0.13621,0
43920,-0.864025,-0.620203,0.178951,0
43940,-0.868148,-0.618366,0.201758,0
43950,-0.871678,-0.618516,0.225211,0
43960,-0.875808,-0.619722,0.249603,0
43980,-0.882423,-0.624439,0.275591,0
44000,-0.890283,-0.631599,0.301559,0
44020,-0.89683,-0.638565,0.326587,0
44040,-0.902098,-0.64492,0.351682,0
44060,-0.910021,-0.65056,0.377877,0
44080,-0.920055,-0.655919,0.404874,0
44100,-0.9309,-0.661543,0.433694,0
44120,-0.943645,-0.666943,0.461641,0
44140,-0.959171,-0.671388,0.48943,0
44160,-0.975934,-0.675167,0.518753,0
44180,-0.990724,-0.680466,0.547166,0
44200,-1.00161,-0.687099,0.572663,0
44220,-1.01212,-0.694918,0.596719,0
44240,-1.02352,-0.704129,0.620193,0
44260,-1.03589,-0.713188,0.643195,0
44280,-1.04437,-0.722313,0.663115,0
44300,-1.0652,-0.760384,0.714201,0
44320,-1.07625,-0.774233,0.727897,0
44340,-1.08733,-0.789032,0.741195,0
44360,-1.09693,-0.806381,0.751761,0
44380,-1.1081,-0.824325,0.760401,0
44400,-1.12171,-0.84295,0.768892,0
44420,-1.13486,-0.861453,0.775601,0
44440,-1.14638,-0.878689,0.778943,0
44460,-1.15561,-0.896049,0.778718,0
44480,-1.16418,-0.913474,0.776827,0
44490,-1.16842,-0.932038,0.769405,0
44500,-1.17003,-0.953063,0.757027,0
44500,-1.16736,-1.01417,0.696394,0
44520,-1.15713,-1.03376,0.664038,0
44530,-1.14124,-1.05179,0.624409,0
44550,-1.1212,-1.06931,0.578608,0
44570,-1.09734,-1.08576,0.527484,0
44590,-1.07202,-1.10048,0.473267,0
44630,-1.00193,-1.12403,0.345951,0
44650,-0.964744,-1.13181,0.279452,0
44670,-0.922461,-1.13669,0.211375,0
44690,-0.880125,-1.14051,0.147383,0
44710,-0.840289,-1.1415,0.0845374,0
44730,-0.806446,-1.13843,0.0291531,0
44750,-0.779426,-1.13398,-0.0155751,0
44770,-0.758798,-1.13031,-0.0510798,0
44790,-0.741634,-1.12703,-0.0795904,0
44810,-0.730041,-1.12297,-0.102191,0
44830,-0.72428,-1.11585,-0.119527,0
44850,-0.720228,-1.10681,-0.132902,0
44870,-0.713168,-1.09812,-0.146078,0
44890,-0.703336,-1.08965,-0.161268,0
44910,-0.696864,-1.08081,-0.176479,0
44930,-0.695396,-1.07149,-0.186868,0
44950,-0.692889,-1.05884,-0.195153,0
44970,-0.690412,-1.0464,-0.202017,0
44990,-0.688803,-1.03509,-0.207413,0
45010,-0.690257,-1.02223,-0.209835,0
45030,-0.694171,-1.00971,-0.207089,0
45050,-0.698308,-0.996238,-0.202836,0
45070,-0.700972,-0.98198,-0.199255,0
45090,-0.70331,-0.967626,-0.194823,0
45110,-0.70664,-0.953896,-0.1897,0
45130,-0.711335,-0.939831,-0.183606,0
45150,-0.718198,-0.924813,-0.176127,0
45170,-0.725641,-0.907694,-0.167706,0
45210,-0.748129,-0.799734,-0.105206,0
45230,-0.759026,-0.769996,-0.0655756,0
45250,-0.766115,-0.764385,-0.0486077,0
45270,-0.7744,-0.759757,-0.0309655,0
45290,-0.784888,-0.757245,-0.0106048,0
45310,-0.796619,-0.756311,0.0110051,0
45330,-0.809019,-0.755727,0.0329799,0
45350,-0.824167,-0.75555,0.0566864,0
45370,-0.842964,-0.756064,0.082772,0
45390,-0.867877,-0.755183,0.112185,0
45410,-0.89498,-0.753378,0.143155,0
45430,-0.922493,-0.751056,0.175204,0
45450,-0.952091,-0.748855,0.208445,0
45470,-0.982078,-0.747768,0.242802,0
45490,-1.01069,-0.747149,0.277188,0
45510,-1.04358,-0.748439,0.317415,0
45530,-1.08237,-0.754169,0.362682,0
45550,-1.11661,-0.760655,0.403517,0
45570,-1.1487,-0.763491,0.442681,0
45590,-1.18039,-0.767285,0.483659,0
45610,-1.20656,-0.773074,0.522723,0
45630,-1.22886,-0.778865,0.558907,0
45650,-1.2511,-0.787907,0.59478,0
45670,-1.27489,-0.797563,0.628363,0
45690,-1.3367,-0.841587,0.75441,0
45710,-1.35379,-0.856318,0.784494,0
45730,-1.36654,-0.867003,0.809688,0
45750,-1.37895,-0.879293,0.840144,0
45770,-1.38849,-0.896782,0.868727,0
45790,-1.39493,-0.919973,0.893381,0
45810,-1.4058,-0.945534,0.917535,0
45830,-1.42276,-0.968284,0.940859,0
45850,-1.43483,-0.989103,0.959581,0
45870,-1.45166,-1.03589,0.99033,0
45890,-1.45987,-1.05927,0.99762,0
45910,-1.47117,-1.08134,1.00147,0
45930,-1.48142,-1.10215,1.00125,0
45950,-1.48347,-1.12088,0.992696,0
45970,-1.47744,-1.13961,0.974034,0
45990,-1.47028,-1.15735,0.948157,0
46010,-1.46002,-1.17106,0.913647,0
46030,-1.44375,-1.18232,0.875139,0
46050,-1.42417,-1.19193,0.836016,0
46070,-1.40093,-1.20178,0.790243,0
46090,-1.36995,-1.21017,0.734656,0
46110,-1.33477,-1.21831,0.670765,0
46130,-1.29246,-1.22511,0.598338,0
46160,-1.18759,-1.23447,0.445816,0
46180,-1.12873,-1.2393,0.364054,0
46210,-1.0107,-1.23593,0.19667,0
46230,-0.965726,-1.22675,0.129534,0
46250,-0.92543,-1.21571,0.0713596,0
46270,-0.892055,-1.20425,0.0215676,0
46290,-0.865626,-1.19009,-0.0219804,0
46310,-0.845335,-1.17217,-0.0604874,0
46330,-0.815298,-1.13642,-0.119116,0
46340,-0.802672,-1.12223,-0.141918,0
46400,-0.777311,-0.984794,-0.229871,0
46420,-0.790307,-0.967715,-0.223528,0
46440,-0.802432,-0.952367,-0.214566,0
46460,-0.812206,-0.93729,-0.205532,0
46480,-0.82735,-0.921776,-0.195627,0
46500,-0.851402,-0.905997,-0.181052,0
46520,-0.879383,-0.889072,-0.161492,0
46540,-0.903206,-0.872731,-0.139993,0
46560,-0.925052,-0.860447,-0.11742,0
46580,-0.949815,-0.849158,-0.0968039,0
46600,-0.975099,-0.837626,-0.0765464,0
46620,-0.999005,-0.827337,-0.0556781,0
46640,-1.01812,-0.818367,-0.0352704,0
46660,-1.03374,-0.810352,-0.0159257,0
46680,-1.04814,-0.803446,0.00282522,0
46700,-1.06708,-0.797593,0.0233734,0
46720,-1.085,-0.790284,0.0430114,0
46740,-1.09803,-0.783177,0.0618747,0
46760,-1.10974,-0.77885,0.0802063,0
46780,-1.12178,-0.774857,0.0976152,0
46800,-1.13526,-0.769776,0.115919,0
46820,-1.14882,-0.764612,0.135854,0
46840,-1.16241,-0.760529,0.157505,0
46880,-1.19342,-0.755655,0.206571,0
46900,-1.20822,-0.753341,0.23198,0
46920,-1.22707,-0.752711,0.260928,0
46940,-1.25292,-0.752569,0.29394,0
46960,-1.28075,-0.75012,0.329892,0
46980,-1.31027,-0.747753,0.367256,0
47000,-1.34439,-0.748109,0.404629,0
47020,-1.38201,-0.748448,0.441385,0
47040,-1.41527,-0.74786,0.476499,0
47060,-1.44128,-0.74968,0.510699,0
47070,-1.46195,-0.756333,0.543248,0
47090,-1.48357,-0.765518,0.574545,0
47110,-1.50388,-0.775199,0.604531,0
47130,-1.52279,-0.786847,0.633455,0
47150,-1.5404,-0.798569,0.663052,0
47170,-1.55643,-0.80986,0.693302,0
47190,-1.57319,-0.822599,0.724391,0
47210,-1.59184,-0.83638,0.756816,0
47230,-1.61457,-0.850626,0.789284,0
47250,-1.6374,-0.863606,0.820655,0
47270,-1.65928,-0.875533,0.85242,0
47290,-1.67936,-0.8874,0.88228,0
47310,-1.70112,-0.900806,0.910776,0
47330,-1.72158,-0.912921,0.936433,0
47350,-1.73811,-0.925666,0.957989,0
47370,-1.75167,-0.940629,0.976526,0
47390,-1.76419,-0.955616,0.993941,0
47410,-1.77599,-0.970262,1.01024,0
47430,-1.78696,-0.984892,1.02485,0
47450,-1.79725,-0.998154,1.03827,0
47470,-1.80738,-1.01095,1.04911,0
47490,-1.81914,-1.02202,1.05913,0
47510,-1.82663,-1.02905,1.06538,2001
47530,-1.83208,-1.0337,1.06816,0
47550,-1.83527,-1.03517,1.0689,0
47570,-1.83571,-1.03375,1.06928,0
47590,-1.83548,-1.03289,1.06944,0
47610,-1.83296,-1.0317,1.06805,0
47630,-1.83123,-1.03114,1.06655,0
47650,-1.82709,-1.03074,1.06314,0
47670,-1.82403,-1.03211,1.06235,0
47690,-1.82565,-1.03496,1.06457,0
47710,-1.83112,-1.03635,1.0673,0
47730,-1.83646,-1.03607,1.06865,0
47750,-1.83593,-1.03372,1.06303,0
47770,-1.82909,-1.02959,1.05438,0
47790,-1.81597,-1.02217,1.04447,0
47810,-1.79736,-1.01343,1.03057,0
47830,-1.7747,-1.00569,1.01243,0
47850,-1.74709,-0.996993,0.988352,0
47870,-1.71797,-0.985471,0.960684,0
47880,-1.68599,-0.970817,0.927799,0
47900,-1.64662,-0.95346,0.890343,0
47920,-1.599,-0.934588,0.851525,0
47950,-1.49915,-0.900211,0.771882,0
47970,-1.40115,-0.854193,0.689808,0
47990,-1.3153,-0.801859,0.62769,0
48010,-1.21544,-0.72128,0.553353,0
48030,-1.19058,-0.695251,0.533529,0
48050,-1.17084,-0.671693,0.51845,0
48070,-1.15144,-0.65026,0.503736,0
48090,-1.13509,-0.630091,0.490814,0
48110,-1.117,-0.593409,0.472606,0
48130,-1.11019,-0.576555,0.466595,0
48150,-1.10141,-0.561554,0.462783,0
48170,-1.09296,-0.550209,0.458788,0
48190,-1.08528,-0.541625,0.453809,0
48220,-1.07396,-0.529365,0.449516,0
48240,-1.06661,-0.525643,0.449532,0
48260,-1.06047,-0.524474,0.450192,0
48280,-1.05832,-0.524462,0.451376,0
48300,-1.05937,-0.523495,0.452763,0
48320,-1.06043,-0.520463,0.455047,0
48340,-1.05888,-0.518001,0.458296,2000
48360,-1.05616,-0.516654,0.461188,0
48380,-1.05473,-0.516219,0.464265,0
48390,-1.05505,-0.51491,0.467491,0
48400,-1.05601,-0.513807,0.469937,0
48420,-1.05723,-0.514087,0.473899,0
48440,-1.05843,-0.514947,0.479853,0
48460,-1.05972,-0.517636,0.485671,0
48480,-1.06122,-0.520769,0.490395,0
48500,-1.06316,-0.522669,0.494865,0
48520,-1.06391,-0.525422,0.499816,0
48540,-1.06283,-0.529359,0.504759,0
48560,-1.06141,-0.534071,0.509488,0
48580,-1.06064,-0.538726,0.515742,0
48600,-1.06216,-0.543023,0.523927,0
48620,-1.0628,-0.547502,0.532132,0
48640,-1.06065,-0.552689,0.541501,0
48660,-1.05955,-0.558344,0.551337,0
48680,-1.06065,-0.565244,0.561766,0
48710,-1.06165,-0.598553,0.588136,0
48710,-1.06039,-0.607514,0.589811,0
48730,-1.05854,-0.617581,0.588141,0
48750,-1.05696,-0.629194,0.584882,0
48770,-1.05796,-0.641588,0.580136,0
48790,-1.05874,-0.654321,0.570959,0
48810,-1.05682,-0.665145,0.55421,0
48820,-1.05143,-0.674149,0.532113,0
48840,-1.0482,-0.682737,0.506726,0
48860,-1.0455,-0.691642,0.477325,0
48880,-1.03835,-0.700194,0.444106,0
48900,-1.02525,-0.708509,0.406777,0
48920,-0.931304,-0.790716,0.0120272,0
48930,-0.916762,-0.809984,-0.0660429,0
48950,-0.911181,-0.815582,-0.086891,0
48970,-0.903694,-0.821081,-0.107996,0
48990,-0.900523,-0.824821,-0.123842,0
49010,-0.902511,-0.825997,-0.136653,0
49030,-0.907293,-0.824451,-0.14682,0
49050,-0.909055,-0.820928,-0.155487,0
49070,-0.910458,-0.816795,-0.162284,0
49080,-0.915295,-0.811202,-0.166852,0
49100,-0.922549,-0.801784,-0.172423,0
49120,-0.926648,-0.788943,-0.181232,0
49140,-0.928348,-0.776694,-0.187407,0
49160,-0.926898,-0.766295,-0.190243,0
49180,-0.922212,-0.757794,-0.191536,0
49200,-0.918244,-0.749715,-0.194252,0
49220,-0.916714,-0.740782,-0.196493,0
49240,-0.917462,-0.733146,-0.195784,0
49260,-0.916766,-0.725733,-0.191865,0
49280,-0.913249,-0.717972,-0.187659,0
49300,-0.911277,-0.711382,-0.183413,0
49320,-0.913357,-0.704571,-0.177457,0
49340,-0.916729,-0.696537,-0.170174,0
49350,-0.9156,-0.689239,-0.162952,0
49390,-0.911722,-0.676048,-0.142683,0
49410,-0.93906,-0.656775,-0.101012,0
49440,-0.987479,-0.616778,-0.0501879,0
49470,-0.989539,-0.589527,0.0156387,0
49490,-0.991176,-0.575432,0.0812493,0
49490,-0.997529,-0.574896,0.0987583,0
49500,-1.01135,-0.575001,0.199158,0
49520,-1.01374,-0.575485,0.217247,0
49530,-1.01827,-0.583431,0.259427,0
49550,-1.0248,-0.591355,0.284696,0
49570,-1.0338,-0.601333,0.311755,0
49590,-1.04458,-0.613251,0.340641,0
49620,-1.08003,-0.637915,0.406421,0
49640,-1.10178,-0.649805,0.440683,0
49660,-1.12487,-0.661196,0.474412,0
49680,-1.15358,-0.672269,0.508274,0
49700,-1.18315,-0.682941,0.54259,0
49720,-1.23059,-0.712955,0.603602,0
49740,-1.24877,-0.732067,0.62905,0
49760,-1.28766,-0.769637,0.675898,0
49780,-1.34052,-0.809857,0.722257,0
49800,-1.34948,-0.81856,0.733887,0
49820,-1.35941,-0.82793,0.743632,0
49840,-1.3686,-0.834513,0.750229,0
49860,-1.37171,-0.840067,0.749643,0
49880,-1.36098,-0.856389,0.730556,0
49900,-1.35779,-0.869091,0.717475,0
49910,-1.35636,-0.88212,0.701171,0
49930,-1.35007,-0.911641,0.660684,0
49950,-1.34333,-0.929309,0.633799,0
49970,-1.33597,-0.947411,0.604018,0
49990,-1.32865,-0.964511,0.570747,0
50010,-1.32151,-0.979681,0.535145,0
50040,-1.29717,-1.00572,0.455287,0
50060,-1.28256,-1.01546,0.412037,0
50080,-1.26694,-1.02316,0.367804,0
50100,-1.24826,-1.03036,0.323057,0
50120,-1.22844,-1.03584,0.278135,0
50140,-1.20994,-1.04019,0.234259,0
50160,-1.19136,-1.04429,0.191898,0
50180,-1.17195,-1.04908,0.151107,0
50200,-1.15395,-1.0536,0.11333,0
50220,-1.13585,-1.05533,0.0760811,0
50240,-1.11684,-1.0532,0.039639,0
50260,-1.09953,-1.05011,0.00801904,0
50280,-1.08268,-1.04833,-0.0218564,0
50300,-1.06614,-1.04777,-0.048725,0
50320,-1.0527,-1.04248,-0.0743402,0
50340,-1.03648,-1.03176,-0.104935,0
50360,-1.01864,-1.01868,-0.13622,0
50380,-1.00025,-1.00289,-0.16361,0
50400,-0.983361,-0.987437,-0.183201,0
50420,-0.965232,-0.9711,-0.204245,0
50440,-0.947,-0.951926,-0.227812,0
50460,-0.935939,-0.933122,-0.243498,0
50480,-0.926363,-0.917261,-0.254438,0
50500,-0.913565,-0.904184,-0.264293,0
50520,-0.902316,-0.891648,-0.27401,0
50540,-0.896719,-0.878425,-0.28053,0
50560,-0.891723,-0.864766,-0.283186,0
50570,-0.874151,-0.840523,-0.281247,0
50580,-0.872197,-0.829551,-0.279197,0
50600,-0.877995,-0.816289,-0.272936,0
50600,-0.886674,-0.789996,-0.248305,0
50620,-0.887366,-0.778535,-0.235654,0
50640,-0.893308,-0.767878,-0.220898,0
50650,-0.914827,-0.749931,-0.184367,0
50670,-0.923161,-0.742196,-0.164491,0
50690,-0.929189,-0.735669,-0.145591,0
50710,-0.936098,-0.731151,-0.126603,0
50730,-0.942231,-0.728116,-0.105704,0
50750,-0.945593,-0.725778,-0.0855266,0
50770,-0.946698,-0.724201,-0.0666873,0
50790,-0.950722,-0.722583,-0.0461585,0
50810,-0.956793,-0.720896,-0.0241621,0
50830,-0.963206,-0.71966,-0.000469389,0
50850,-0.97125,-0.719317,0.0245092,0
50870,-0.982549,-0.719485,0.0500294,0
50890,-0.995433,-0.718754,0.0736198,0
50910,-1.00595,-0.716954,0.0958436,0
50930,-1.01262,-0.716046,0.118574,0
50950,-1.01607,-0.717114,0.141688,0
50970,-1.02025,-0.719996,0.164534,0
50990,-1.03052,-0.72455,0.188615,0
51010,-1.0477,-0.729605,0.216004,0
51020,-1.06847,-0.733596,0.248438,0
51040,-1.08936,-0.736954,0.282486,0
51060,-1.11139,-0.742249,0.317006,0
51090,-1.16842,-0.757141,0.390827,0
51110,-1.19742,-0.764732,0.427995,0
51130,-1.22424,-0.773392,0.463957,0
51150,-1.25167,-0.785307,0.500908,0
51170,-1.2816,-0.797107,0.539082,0
51190,-1.30545,-0.807629,0.574652,0
51210,-1.32603,-0.819841,0.608583,0
51230,-1.34986,-0.833753,0.644109,0
51250,-1.37864,-0.847441,0.67766,0
51270,-1.40645,-0.859227,0.70649,0
51290,-1.42842,-0.869544,0.733854,0
51310,-1.44613,-0.88217,0.759273,0
51330,-1.46119,-0.89687,0.77999,0
51350,-1.47665,-0.910964,0.797159,0
51370,-1.50697,-0.935119,0.824567,0
51390,-1.51793,-0.948674,0.835251,0
51410,-1.53071,-0.963333,0.847096,0
51430,-1.54406,-0.977976,0.855829,0
51450,-1.55559,-0.992069,0.859774,0
51470,-1.56788,-1.00538,0.863262,0
51490,-1.5794,-1.02052,0.865956,0
51510,-1.591,-1.03695,0.868639,0
51530,-1.60459,-1.05401,0.869906,0
51550,-1.62158,-1.06935,0.867758,0
51580,-1.64812,-1.0968,0.85504,0
51610,-1.63116,-1.16711,0.731585,0
51630,-1.60746,-1.18171,0.68413,0
51650,-1.57999,-1.19811,0.631602,0
51670,-1.54601,-1.21422,0.569778,0
51690,-1.5069,-1.22929,0.501659,0
51710,-1.46604,-1.24177,0.432327,0
51750,-1.36789,-1.26002,0.290004,0
51770,-1.31185,-1.26591,0.213874,0
51810,-1.20325,-1.26099,0.0682636,0
51830,-1.16021,-1.2554,0.0157318,0
51850,-1.11583,-1.25029,-0.0315837,0
51870,-1.06142,-1.24445,-0.088959,0
51890,-1.00951,-1.23335,-0.153642,0
51910,-0.976784,-1.21855,-0.204779,0
51930,-0.959051,-1.20084,-0.233281,0
51950,-0.935027,-1.18087,-0.256204,0
51970,-0.901637,-1.16035,-0.285854,0
52000,-0.881478,-1.11287,-0.329215,0
52020,-0.881475,-1.08327,-0.336932,0
52040,-0.873475,-1.05816,-0.343979,0
52060,-0.856417,-1.03555,-0.359042,0
52070,-0.852706,-1.01244,-0.370122,0
52090,-0.859167,-0.987017,-0.374812,0
52110,-0.866187,-0.95976,-0.374555,0
52130,-0.868088,-0.933296,-0.369332,0
52150,-0.865865,-0.910884,-0.363819,0
52170,-0.868552,-0.888604,-0.358351,0
52190,-0.875877,-0.868141,-0.350404,0
52210,-0.883467,-0.848474,-0.338875,0
52230,-0.887499,-0.831997,-0.325503,0
52250,-0.890216,-0.820637,-0.311764,0
52270,-0.897655,-0.811656,-0.294513,0
52290,-0.909079,-0.803251,-0.2708,0
52310,-0.917856,-0.799474,-0.244103,0
52330,-0.926859,-0.799549,-0.216477,0
52350,-0.943798,-0.800005,-0.185265,0
52370,-0.968085,-0.8011,-0.150438,0
52390,-0.991511,-0.801621,-0.114503,0
52410,-1.01081,-0.802906,-0.078477,0
52430,-1.02918,-0.805295,-0.0435336,0
52450,-1.05015,-0.806766,-0.00793462,0
52470,-1.07358,-0.807469,0.0299596,0
52490,-1.09888,-0.810064,0.0724489,0
52510,-1.13051,-0.816396,0.119961,0
52530,-1.16733,-0.824489,0.168905,0
52550,-1.20951,-0.833319,0.216226,0
52570,-1.25393,-0.841896,0.263474,0
52590,-1.29711,-0.851097,0.311678,0
52610,-1.33268,-0.863416,0.359892,0
52630,-1.36241,-0.878234,0.406828,0
52650,-1.3974,-0.894929,0.455254,0
52670,-1.43939,-0.911941,0.505127,0
52690,-1.48121,-0.924819,0.55414,0
52710,-1.51992,-0.936153,0.601556,0
52730,-1.55569,-0.948744,0.646394,0
52750,-1.59599,-0.961847,0.690337,0
52770,-1.63579,-0.971326,0.726548,0
52790,-1.67098,-0.974841,0.757226,0
52810,-1.6945,-0.97549,0.782065,0
52830,-1.71259,-0.980075,0.804857,0
52850,-1.73224,-0.988549,0.824231,0
52870,-1.78227,-1.00594,0.867169,0
52900,-1.80762,-1.02633,0.897875,0
52920,-1.82313,-1.03741,0.909891,0
52940,-1.83034,-1.0467,0.914454,0
52960,-1.83513,-1.05525,0.920862,0
52970,-1.84472,-1.06467,0.931758,0
53010,-1.86017,-1.08292,0.945022,0
53030,-1.86517,-1.08795,0.946083,0
53050,-1.86694,-1.09033,0.945355,2001
53070,-1.8666,-1.09269,0.947286,0
53090,-1.87147,-1.0951,0.953935,0
53110,-1.8728,-1.0971,0.954513,0
53130,-1.87508,-1.09703,0.954215,0
53150,-1.87463,-1.09573,0.953998,0
53170,-1.87148,-1.09585,0.955124,0
53190,-1.87172,-1.09818,0.959106,0
53210,-1.87338,-1.09934,0.961596,0
53230,-1.87317,-1.09924,0.961371,0
53250,-1.86985,-1.09888,0.959492,0
53260,-1.86112,-1.09668,0.956532,0
53280,-1.84877,-1.0937,0.949351,0
53300,-1.83299,-1.08963,0.937236,0
53320,-1.81308,-1.08217,0.918319,0
53340,-1.78782,-1.07044,0.893315,0
53350,-1.75934,-1.05322,0.866633,0
53370,-1.72736,-1.03204,0.83718,0
53390,-1.68958,-1.00813,0.804432,0
53400,-1.64522,-0.980819,0.767296,0
53420,-1.56857,-0.916355,0.696278,0
53440,-1.49188,-0.836759,0.631956,0
53460,-1.45122,-0.794187,0.605472,0
53480,-1.41429,-0.750023,0.582042,0
53500,-1.38294,-0.708089,0.559925,0
53520,-1.35782,-0.674997,0.536671,0
53530,-1.31049,-0.616995,0.492442,0
53550,-1.2853,-0.596044,0.476629,0
53570,-1.25935,-0.584449,0.460076,0
53590,-1.23835,-0.575996,0.441507,0
53610,-1.2237,-0.567929,0.424686,0
53630,-1.21206,-0.56156,0.410581,0
53650,-1.19789,-0.557135,0.397205,0
53670,-1.17894,-0.552518,0.383609,0
53690,-1.16501,-0.548728,0.373113,0
53710,-1.15755,-0.544512,0.364326,0
53730,-1.15332,-0.53853,0.356841,0
53750,-1.14776,-0.531337,0.351073,0
53770,-1.141,-0.524808,0.346846,0
53790,-1.13332,-0.518316,0.344711,0
53810,-1.12695,-0.513099,0.344109,0
53830,-1.1234,-0.508864,0.343432,0
53850,-1.12131,-0.504927,0.344073,0
53860,-1.11853,-0.501916,0.344774,0
53880,-1.1121,-0.498942,0.344688,2000
53920,-1.07192,-0.477876,0.343764,0
53930,-1.05932,-0.479388,0.350414,0
53950,-1.0582,-0.480023,0.353732,0
53960,-1.06141,-0.48195,0.360936,0
53980,-1.0623,-0.48281,0.364801,0
53990,-1.05896,-0.488046,0.372357,0
54010,-1.05591,-0.493221,0.377346,0
54030,-1.05362,-0.498175,0.383772,0
54050,-1.0529,-0.503378,0.391732,0
54070,-1.04774,-0.51418,0.410477,0
54090,-1.04385,-0.520602,0.419875,0
54110,-1.04235,-0.527042,0.430765,0
54130,-1.04101,-0.535221,0.443493,0
54150,-1.03693,-0.545334,0.454012,0
54170,-1.03116,-0.557469,0.462705,0
54190,-1.02938,-0.570058,0.470855,0
54220,-1.04692,-0.645745,0.512512,0
54250,-1.05899,-0.676678,0.507847,0
54270,-1.06054,-0.686394,0.500301,0
54290,-1.05857,-0.696372,0.489253,0
54300,-1.05894,-0.706002,0.476151,0
54310,-1.06605,-0.719798,0.445076,0
54330,-1.06445,-0.727026,0.425105,0
54350,-1.05949,-0.735141,0.400825,0
54390,-1.05279,-0.757259,0.310478,0
54410,-1.0441,-0.765028,0.274811,0
54420,-1.01255,-0.784735,0.15331,0
54450,-0.942344,-0.812905,-0.0548828,0
54470,-0.929557,-0.815322,-0.0918014,0
54490,-0.905093,-0.816712,-0.151992,0
54510,-0.894152,-0.817052,-0.177127,0
54550,-0.865158,-0.816013,-0.227586,0
54570,-0.851204,-0.810896,-0.250578,0
54590,-0.839974,-0.801559,-0.269832,0
54610,-0.828691,-0.792859,-0.285337,0
54650,-0.800956,-0.78591,-0.305256,0
54670,-0.787396,-0.783274,-0.314606,0
54690,-0.778576,-0.778798,-0.324688,0
54710,-0.771997,-0.772445,-0.332272,0
54730,-0.762791,-0.766621,-0.335837,0
54750,-0.751848,-0.76137,-0.338773,0
54770,-0.743082,-0.753592,-0.341977,0
54790,-0.736066,-0.745826,-0.343612,0
54810,-0.731226,-0.739503,-0.344682,0
54830,-0.725572,-0.731886,-0.343023,0
54850,-0.714739,-0.723556,-0.343026,0
54870,-0.705502,-0.716657,-0.341522,0
54880,-0.700321,-0.709655,-0.336418,0
54900,-0.695978,-0.702881,-0.326838,0
54920,-0.690339,-0.697533,-0.316479,0
54940,-0.684969,-0.692627,-0.308127,0
54960,-0.682162,-0.685486,-0.300807,0
54990,-0.661348,-0.662222,-0.269974,0
55010,-0.651456,-0.656093,-0.259166,0
55050,-0.638307,-0.637575,-0.169105,0
55070,-0.65279,-0.631386,-0.121561,0
55090,-0.659639,-0.629034,-0.0958751,0
55090,-0.666377,-0.62893,-0.070309,0
55110,-0.675853,-0.627899,-0.0439217,0
55130,-0.686868,-0.625664,-0.0177498,0
55150,-0.698638,-0.623254,0.00823091,0
55170,-0.710455,-0.622042,0.0345531,0
55170,-0.730843,-0.620519,0.0852237,0
55190,-0.742435,-0.620465,0.110328,0
55210,-0.755682,-0.619113,0.135796,0
55230,-0.769004,-0.618906,0.161724,0
55250,-0.781305,-0.621192,0.188615,0
55270,-0.795878,-0.624248,0.217256,0
55290,-0.814682,-0.62867,0.248409,0
55310,-0.838344,-0.63421,0.281372,0
55330,-0.863587,-0.64139,0.31565,0
55350,-0.886983,-0.650248,0.348682,0
55370,-0.906099,-0.659986,0.379308,0
55390,-0.918183,-0.672276,0.407141,0
55410,-0.928501,-0.688371,0.43573,0
55430,-0.940744,-0.707108,0.463989,0
55450,-0.951037,-0.726029,0.487555,0
55450,-0.969498,-0.764135,0.527553,0
55450,-0.97489,-0.784443,0.541456,0
55460,-1.005,-0.881012,0.575398,0
55480,-1.00855,-0.904225,0.574669,0
55490,-1.02309,-0.979941,0.546711,0
55520,-0.971996,-1.08109,0.313386,0
55540,-0.923345,-1.09444,0.209546,0
55560,-0.895481,-1.09866,0.156056,0
55600,-0.78216,-1.11511,-0.0409084,0
55620,-0.759738,-1.11902,-0.0849853,0
55640,-0.741435,-1.1206,-0.12283,0
55660,-0.724099,-1.12035,-0.157768,0
55680,-0.706721,-1.11907,-0.190042,0
55700,-0.691364,-1.11782,-0.218057,0
55720,-0.678562,-1.11329,-0.244651,0
55740,-0.669309,-1.10637,-0.267576,0
55760,-0.66286,-1.09784,-0.285556,0
55780,-0.656057,-1.08842,-0.300791,0
55800,-0.644552,-1.07715,-0.316993,0
55820,-0.633764,-1.06524,-0.332008,0
55840,-0.631223,-1.05205,-0.342501,0
55860,-0.634017,-1.03554,-0.348447,0
55880,-0.638646,-1.01777,-0.350608,0
55900,-0.64054,-1.00033,-0.350899,0
55920,-0.636643,-0.981588,-0.354171,0
55940,-0.637426,-0.963292,-0.355996,0
55960,-0.64736,-0.944107,-0.352531,0
55980,-0.655166,-0.923977,-0.347026,0
56000,-0.654824,-0.90458,-0.344206,0
56020,-0.654785,-0.885823,-0.341218,0
56040,-0.66122,-0.869264,-0.339035,0
56060,-0.671632,-0.851373,-0.331838,0
56080,-0.683014,-0.833885,-0.320856,0
56100,-0.695637,-0.816743,-0.309689,0
56120,-0.706647,-0.800121,-0.301096,0
56140,-0.717634,-0.784818,-0.293867,0
56160,-0.724547,-0.768329,-0.287005,0
56180,-0.725192,-0.752612,-0.279051,0
56200,-0.722463,-0.742774,-0.270406,0
56240,-0.731916,-0.729609,-0.247955,0
56260,-0.738298,-0.724064,-0.234189,0
56300,-0.748902,-0.719881,-0.201695,0
56320,-0.758491,-0.722138,-0.1813,0
56340,-0.770929,-0.721436,-0.158918,0
56360,-0.786354,-0.721117,-0.134018,0
56380,-0.800615,-0.72166,-0.108599,0
56400,-0.811468,-0.720956,-0.0849628,0
56420,-0.822617,-0.721893,-0.0597755,0
56460,-0.891052,-0.719884,0.0639582,0
56510,-0.950059,-0.734408,0.167082,0
56530,-0.968153,-0.739951,0.202702,0
56570,-1.03969,-0.768982,0.320127,0
56590,-1.06923,-0.778497,0.360231,0
56610,-1.09708,-0.788622,0.399551,0
56630,-1.12271,-0.800252,0.438629,0
56650,-1.15091,-0.814319,0.478608,0
56670,-1.18145,-0.82778,0.516773,0
56690,-1.20969,-0.837605,0.550596,0
56710,-1.23706,-0.847865,0.58603,0
56730,-1.26245,-0.860996,0.621723,0
56750,-1.28631,-0.877256,0.654213,0
56770,-1.30945,-0.892961,0.683228,0
56790,-1.33481,-0.908454,0.711582,0
56810,-1.35993,-0.92397,0.739356,0
56830,-1.38289,-0.940799,0.766197,0
56850,-1.40421,-0.959311,0.790978,0
56870,-1.42744,-0.979532,0.814324,0
56890,-1.45381,-1.00187,0.834977,0
56900,-1.47985,-1.02371,0.851807,0
56920,-1.50372,-1.04557,0.866416,0
56940,-1.5246,-1.06669,0.875695,0
56960,-1.55574,-1.10459,0.880158,0
56980,-1.56806,-1.12462,0.873921,0
57000,-1.5727,-1.14295,0.85743,0
57030,-1.55971,-1.18822,0.778439,0
57080,-1.47086,-1.28097,0.585663,0
57100,-1.43819,-1.29333,0.528907,0
57120,-1.40066,-1.30432,0.474118,0
57140,-1.35032,-1.31397,0.409961,0
57160,-1.29527,-1.32214,0.341227,0
57180,-1.2434,-1.32655,0.272431,0
57200,-1.18462,-1.32818,0.194796,0
57220,-1.12082,-1.32496,0.116225,0
57240,-1.06172,-1.31793,0.0476735,0
57260,-1.00471,-1.30986,-0.0146586,0
57280,-0.946658,-1.3003,-0.0771663,0
57300,-0.895723,-1.28856,-0.136819,0
57320,-0.857225,-1.27357,-0.185625,0
57340,-0.831006,-1.25702,-0.218483,0
57360,-0.807734,-1.23839,-0.244221,0
57380,-0.791606,-1.11436,-0.306484,0
57390,-0.805997,-1.09257,-0.308574,0
57410,-0.825358,-1.07001,-0.305731,0
57410,-0.841196,-1.04874,-0.297471,0
57430,-0.847888,-1.03065,-0.293143,0
57450,-0.852041,-1.01474,-0.29287,0
57470,-0.862951,-1.00061,-0.289515,0
57490,-0.87508,-0.986061,-0.283392,0
57510,-0.886051,-0.97377,-0.273124,0
57530,-0.895913,-0.965789,-0.262996,0
57550,-0.910679,-0.958809,-0.250892,0
57570,-0.92948,-0.950302,-0.235985,0
57590,-0.947245,-0.942465,-0.218721,0
57610,-0.961415,-0.936601,-0.201724,0
57630,-0.973866,-0.933462,-0.186395,0
57650,-0.989357,-0.928775,-0.17177,0
57670,-1.00723,-0.920897,-0.153645,0
57690,-1.02142,-0.912347,-0.133721,0
57710,-1.03473,-0.905452,-0.113608,0
57730,-1.04625,-0.898611,-0.0977175,0
57750,-1.06069,-0.888515,-0.0792924,0
57770,-1.07763,-0.879977,-0.0584279,0
57790,-1.09117,-0.872645,-0.0388626,0
57810,-1.10629,-0.865459,-0.017125,0
57830,-1.12713,-0.858613,0.00729213,0
57850,-1.15197,-0.85224,0.0343166,0
57860,-1.17619,-0.847194,0.0624568,0
57880,-1.20304,-0.844124,0.0925697,0
57900,-1.2358,-0.84198,0.123352,0
57920,-1.26867,-0.838393,0.152877,0
57940,-1.29764,-0.833662,0.182862,0
57960,-1.32449,-0.832396,0.215218,0
57980,-1.35052,-0.836104,0.247876,0
58000,-1.37501,-0.842201,0.277848,0
58020,-1.39975,-0.849357,0.307384,0
58040,-1.42454,-0.857919,0.338418,0
58060,-1.44929,-0.865933,0.372431,0
58080,-1.47516,-0.875522,0.408845,0
58100,-1.50478,-0.889018,0.446745,0
58120,-1.53738,-0.902495,0.483885,0
58140,-1.57153,-0.911491,0.520675,0
58160,-1.60689,-0.918824,0.561151,0
58180,-1.63944,-0.926815,0.599958,0
58200,-1.66914,-0.936225,0.635635,0
58220,-1.70129,-0.946058,0.668988,0
58240,-1.73282,-0.954133,0.698555,0
58260,-1.76014,-0.962465,0.727053,0
58280,-1.78641,-0.972611,0.757813,0
58300,-1.8096,-0.98246,0.784789,0
58320,-1.82965,-0.992049,0.806865,0
58340,-1.84941,-1.00018,0.827038,0
58360,-1.8675,-1.00866,0.846406,0
58380,-1.88516,-1.01756,0.864573,0
58400,-1.90216,-1.02632,0.882641,0
58420,-1.91881,-1.03448,0.898503,0
58440,-1.93091,-1.04167,0.908834,0
58460,-1.93717,-1.04861,0.915734,0
58480,-1.94294,-1.05747,0.924552,0
58500,-1.94878,-1.06616,0.933799,0
58520,-1.95342,-1.07417,0.940696,0
58540,-1.95591,-1.08057,0.94286,2001
58560,-1.95836,-1.08565,0.944483,0
58580,-1.95922,-1.08837,0.944497,0
58600,-1.96048,-1.08982,0.946864,0
58620,-1.96238,-1.09195,0.948958,0
58650,-1.96223,-1.09879,0.943632,0
58670,-1.96003,-1.10137,0.935671,0
58690,-1.95632,-1.10085,0.931893,0
58710,-1.94965,-1.10168,0.928694,0
58730,-1.94324,-1.10284,0.923957,0
58750,-1.94006,-1.10449,0.920896,0
58770,-1.9314,-1.10274,0.915464,0
58790,-1.91648,-1.09957,0.907526,0
58840,-1.71845,-1.05366,0.775616,0
58850,-1.55456,-1.00793,0.668162,0
58870,-1.51049,-0.989253,0.638312,0
58890,-1.4624,-0.965565,0.607778,0
58910,-1.41944,-0.940127,0.586201,0
58930,-1.381,-0.916355,0.564442,0
58950,-1.34757,-0.888401,0.543273,0
58970,-1.31465,-0.857215,0.524316,0
59000,-1.24459,-0.800119,0.482407,0
59020,-1.21817,-0.771364,0.465731,0
59040,-1.19564,-0.744806,0.448408,0
59060,-1.17371,-0.719714,0.427829,0
59080,-1.1543,-0.693031,0.409377,0
59100,-1.13811,-0.66627,0.393721,0
59140,-1.08157,-0.607368,0.350156,0
59160,-1.06115,-0.595036,0.334983,0
59170,-1.02507,-0.577362,0.307363,0
59200,-0.909052,-0.540098,0.250722,0
59220,-0.905292,-0.540011,0.250827,2000
59240,-0.903535,-0.537873,0.251378,0
59260,-0.901456,-0.535835,0.254245,0
59270,-0.891823,-0.532972,0.258542,0
59290,-0.888628,-0.531728,0.259083,0
59310,-0.889902,-0.530924,0.260215,0
59330,-0.892326,-0.530909,0.262128,0
59350,-0.892123,-0.531605,0.264375,0
59370,-0.891293,-0.532267,0.266787,0
59390,-0.891518,-0.533693,0.268811,0
59400,-0.893265,-0.53474,0.2712,0
59400,-0.893192,-0.536148,0.27812,0
59420,-0.890192,-0.537891,0.282321,0
59430,-0.88913,-0.545143,0.294279,0
59470,-0.998151,-0.716644,0.418313,0
59480,-1.02004,-0.762403,0.416264,0
59500,-1.02599,-0.776876,0.409593,0
59520,-1.04123,-0.800508,0.392057,0
59560,-1.04098,-0.821458,0.361556,0
59580,-1.03868,-0.830855,0.340139,0
59600,-1.03915,-0.839983,0.317719,0
59620,-1.03892,-0.846649,0.290363,0
59650,-0.908262,-0.889161,-0.186385,0
59670,-0.902188,-0.891992,-0.209698,0
59690,-0.898044,-0.893791,-0.229618,0
59700,-0.895405,-0.893672,-0.247132,0
59720,-0.890768,-0.889932,-0.264046,0
59740,-0.884447,-0.883973,-0.276791,0
59760,-0.878731,-0.878194,-0.287787,0
59780,-0.872875,-0.873552,-0.298248,0
59800,-0.868305,-0.866817,-0.307729,0
59820,-0.865685,-0.857318,-0.314736,0
59840,-0.858911,-0.846894,-0.320806,0
59860,-0.850025,-0.838382,-0.325275,0
59880,-0.842048,-0.832051,-0.329115,0
59900,-0.840224,-0.826099,-0.330538,0
59920,-0.844323,-0.818318,-0.331284,0
59940,-0.850725,-0.808163,-0.328023,0
59960,-0.852391,-0.799631,-0.321062,0
59980,-0.849017,-0.7936,-0.315079,0
60000,-0.846344,-0.786794,-0.310125,0
60020,-0.847781,-0.777884,-0.30189,0
60040,-0.849518,-0.771168,-0.291016,0
60060,-0.846848,-0.763896,-0.280654,0
60080,-0.840077,-0.754856,-0.274069,0
60100,-0.836018,-0.746667,-0.268513,0
60120,-0.836449,-0.737201,-0.258946,0
60140,-0.834412,-0.726137,-0.246877,0
60160,-0.828355,-0.715126,-0.234449,0
60180,-0.822174,-0.705226,-0.223863,0
60200,-0.8189,-0.695052,-0.213856,0
60220,-0.818086,-0.68645,-0.203291,0
60250,-0.810173,-0.657797,-0.166436,0
60320,-0.82232,-0.622892,-0.0205078,0
60360,-0.834341,-0.628546,0.0362965,0
60380,-0.844562,-0.630121,0.0576722,0
60400,-0.854968,-0.63336,0.0836648,0
60420,-0.861337,-0.639003,0.108728,0
60440,-0.87094,-0.644918,0.133726,0
60460,-0.8947,-0.648853,0.164557,0
60480,-0.926354,-0.64913,0.201386,0
60500,-0.951786,-0.649005,0.23677,0
60520,-0.973435,-0.650647,0.26976,0
60540,-0.999971,-0.652089,0.303949,0
60560,-1.02543,-0.653781,0.336962,0
60580,-1.04347,-0.658402,0.368162,0
60600,-1.05638,-0.667912,0.398293,0
60620,-1.07038,-0.679159,0.426756,0
60640,-1.08589,-0.689933,0.452534,0
60660,-1.10181,-0.699284,0.478091,0
60680,-1.11433,-0.708869,0.503428,0
60700,-1.12309,-0.720347,0.528095,0
60720,-1.13106,-0.733842,0.550758,0
60740,-1.16296,-0.770446,0.598826,0
60760,-1.17105,-0.782066,0.611524,0
60800,-1.19069,-0.815572,0.642876,0
60800,-1.19903,-0.838838,0.654133,0
60820,-1.20099,-0.852967,0.656712,0
60860,-1.206,-0.880474,0.652073,0
60880,-1.21492,-0.891273,0.6515,0
60910,-1.22148,-0.908404,0.616898,0
60950,-1.20701,-0.92151,0.571333,0
60970,-1.196,-0.93063,0.541534,0
61000,-1.17146,-0.951425,0.473372,0
61020,-1.15773,-0.96139,0.437237,0
61040,-1.14327,-0.969799,0.400692,0
61060,-1.13342,-0.979104,0.367878,0
61080,-1.12277,-0.988715,0.333289,0
61100,-1.11392,-0.996613,0.300202,0
61130,-1.10366,-1.01008,0.239417,0
61150,-1.09259,-1.02138,0.174041,0
61170,-1.08406,-1.02762,0.137882,0
61190,-1.07303,-1.03054,0.10036,0
61250,-0.9893,-1.02481,-0.080564,0
61270,-0.979501,-1.0175,-0.113289,0
61290,-0.968743,-1.0041,-0.145442,0
61310,-0.952657,-0.987237,-0.175919,0
61330,-0.926722,-0.968897,-0.210292,0
61350,-0.902596,-0.950204,-0.242795,0
61370,-0.889756,-0.927519,-0.269586,0
61390,-0.878098,-0.904459,-0.289216,0
61410,-0.861989,-0.886489,-0.303472,0
61430,-0.846324,-0.870838,-0.319916,0
61450,-0.836392,-0.853956,-0.334084,0
61470,-0.836508,-0.835332,-0.339222,0
61500,-0.839366,-0.757234,-0.336691,0
61530,-0.835687,-0.7386,-0.32268,0
61550,-0.838358,-0.73371,-0.314166,0
61570,-0.85035,-0.727283,-0.304009,0
61590,-0.859299,-0.718206,-0.292088,0
61610,-0.860507,-0.71229,-0.278673,0
61630,-0.857799,-0.708772,-0.267263,0
61650,-0.8618,-0.705683,-0.253255,0
61670,-0.870358,-0.70164,-0.236775,0
61690,-0.875661,-0.698956,-0.219617,0
61710,-0.876483,-0.699187,-0.203406,0
61730,-0.871555,-0.696781,-0.191428,0
61750,-0.865153,-0.694128,-0.175788,0
61760,-0.863352,-0.69613,-0.159228,0
61780,-0.86488,-0.695873,-0.142685,0
61800,-0.869388,-0.69383,-0.124222,0
61840,-0.917129,-0.688296,-0.020969,0
61860,-0.928629,-0.689182,0.000653765,0
61880,-0.937235,-0.69063,0.0224924,0
61900,-0.943778,-0.694736,0.0458374,0
61920,-0.949327,-0.699147,0.0696768,0
61940,-0.957054,-0.703134,0.0973091,0
61960,-0.971098,-0.711888,0.129927,0
61980,-0.99081,-0.722127,0.16467,0
62000,-1.01625,-0.732307,0.20314,0
62020,-1.04793,-0.742783,0.245315,0
62040,-1.08453,-0.752511,0.289485,0
62060,-1.1182,-0.762259,0.33303,0
62080,-1.14618,-0.772402,0.373724,0
62100,-1.17359,-0.785244,0.413897,0
62120,-1.20159,-0.8003,0.451869,0
62140,-1.22494,-0.816436,0.486706,0
62160,-1.24196,-0.83496,0.522455,0
62180,-1.26086,-0.857645,0.557882,0
62200,-1.27927,-0.880107,0.589915,0
62220,-1.29392,-0.900897,0.617183,0
62240,-1.31054,-0.921805,0.644784,0
62260,-1.32905,-0.943031,0.672057,0
62280,-1.34697,-0.965587,0.696425,0
62300,-1.36767,-0.988456,0.719304,0
62320,-1.39103,-1.0094,0.739212,0
62340,-1.40949,-1.02878,0.747689,0
62360,-1.42418,-1.04913,0.753516,0
62380,-1.44375,-1.0703,0.76509,0
62400,-1.45704,-1.08928,0.768163,0
62420,-1.46023,-1.10765,0.762744,0
62440,-1.46454,-1.127,0.754002,0
62460,-1.46327,-1.14627,0.736975,0
62480,-1.46253,-1.16206,0.717638,0
62500,-1.46528,-1.17433,0.698019,0
62520,-1.46088,-1.18385,0.672537,0
62540,-1.44727,-1.19145,0.638453,0
62560,-1.42709,-1.20029,0.594881,0
62570,-1.40392,-1.21163,0.54645,0
62590,-1.3749,-1.2211,0.490244,0
62610,-1.343,-1.2291,0.431737,0
62620,-1.17057,-1.2458,0.164439,0
62640,-1.11698,-1.24433,0.0886867,0
62660,-1.06702,-1.2422,0.0184031,0
62680,-1.01579,-1.23648,-0.0493223,0
62700,-0.965874,-1.22741,-0.112183,0
62720,-0.925014,-1.21684,-0.166967,0
62740,-0.893212,-1.2033,-0.21404,0
62760,-0.86974,-1.18788,-0.248142,0
62780,-0.845846,-1.17313,-0.279788,0
62800,-0.821272,-1.15751,-0.31445,0
62820,-0.804857,-1.13707,-0.341035,0
62870,-0.773445,-1.01392,-0.388222,0
62890,-0.775577,-0.993206,-0.387322,0
62910,-0.778348,-0.974832,-0.388716,0
62930,-0.783443,-0.95522,-0.387118,0
62950,-0.793433,-0.932938,-0.38146,0
62970,-0.803502,-0.913597,-0.374674,0
62990,-0.813249,-0.896562,-0.366706,0
63010,-0.827517,-0.880649,-0.352272,0
63030,-0.843206,-0.866567,-0.337302,0
63050,-0.853797,-0.851249,-0.324971,0
63070,-0.864672,-0.837662,-0.310688,0
63090,-0.878463,-0.827513,-0.293786,0
63110,-0.895929,-0.817591,-0.273106,0
63130,-0.915463,-0.807399,-0.249535,0
63150,-0.933633,-0.799404,-0.225556,0
63170,-0.952183,-0.792243,-0.199719,0
63190,-0.9739,-0.787917,-0.171815,0
63220,-1.00834,-0.773119,-0.113976,0
63240,-1.02948,-0.769999,-0.0793646,0
63260,-1.0864,-0.764696,-0.00504717,0
63280,-1.11741,-0.763132,0.0356152,0
63300,-1.14804,-0.766542,0.0763116,0
63320,-1.17454,-0.770339,0.114174,0
63340,-1.19695,-0.773447,0.151105,0
63360,-1.22129,-0.779529,0.189614,0
63380,-1.24779,-0.788787,0.22837,0
63400,-1.27524,-0.799066,0.266183,0
63420,-1.30356,-0.808508,0.305056,0
63440,-1.33334,-0.816806,0.343628,0
63460,-1.35981,-0.826446,0.381437,0
63480,-1.38403,-0.838978,0.417188,0
63490,-1.40969,-0.853661,0.453851,0
63510,-1.43843,-0.870525,0.48931,0
63530,-1.46854,-0.885056,0.52082,0
63550,-1.49568,-0.895233,0.552649,0
63570,-1.52413,-0.906778,0.58981,0
63590,-1.55414,-0.92029,0.627961,0
63610,-1.58881,-0.934783,0.665204,0
63630,-1.62466,-0.946123,0.698535,0
63650,-1.6586,-0.954853,0.729525,0
63670,-1.68841,-0.965515,0.760838,0
63690,-1.71488,-0.978705,0.790646,0
63710,-1.73968,-0.99309,0.815289,0
63730,-1.76453,-1.00689,0.836632,0
63750,-1.78857,-1.01828,0.853571,0
63770,-1.80732,-1.02819,0.86639,0
63790,-1.81674,-1.03455,0.875293,0
63810,-1.82244,-1.039,0.880521,0
63830,-1.82638,-1.04422,0.881557,2001
63850,-1.82834,-1.04683,0.877444,0
63870,-1.82738,-1.04521,0.872032,0
63890,-1.82264,-1.04253,0.865926,0
63910,-1.81903,-1.04167,0.86179,0
63930,-1.82187,-1.04436,0.861165,0
63950,-1.82224,-1.04766,0.852429,0
63970,-1.82286,-1.04756,0.84656,0
63990,-1.81823,-1.04401,0.843141,0
64010,-1.80656,-1.04209,0.837964,0
64030,-1.78248,-1.04334,0.832206,0
64050,-1.77149,-1.04101,0.823311,0
64070,-1.7538,-1.03595,0.807732,0
64090,-1.73283,-1.03013,0.789769,0
64110,-1.7098,-1.02553,0.769605,0
64130,-1.68397,-1.02162,0.745606,0
64150,-1.65349,-1.01627,0.717589,0
64170,-1.62039,-1.00951,0.687127,0
64190,-1.58413,-1.00473,0.652173,0
64210,-1.54141,-0.999295,0.610482,0
64230,-1.50063,-0.991893,0.572215,0
64250,-1.45911,-0.982373,0.537822,0
64270,-1.413,-0.97352,0.501575,0
64290,-1.36271,-0.965394,0.460276,0
64310,-1.3137,-0.953028,0.417945,0
64330,-1.26917,-0.93801,0.379472,0
64350,-1.22071,-0.92246,0.341444,0
64360,-1.16484,-0.906594,0.303477,0
64380,-1.11124,-0.891791,0.272637,0
64400,-1.06611,-0.876475,0.24934,0
64420,-1.0201,-0.858316,0.224284,0
64450,-0.812662,-0.745795,0.13028,0
64460,-0.772562,-0.69579,0.122251,0
64510,-0.757517,-0.635919,0.152639,0
64530,-0.756439,-0.631122,0.155889,0
64600,-0.77019,-0.454256,0.0925669,0
64640,-0.791156,-0.405109,0.076892,0
64640,-0.801647,-0.373671,0.0663693,0
64660,-0.811512,-0.337331,0.052334,0
64680,-0.828871,-0.25663,0.0115977,0
64700,-0.837413,-0.210558,-0.0147776,0
64730,-0.83708,0.115115,-0.16985,0
64740,-0.861258,0.212714,-0.204387,0
64760,-0.861696,0.255059,-0.21175,0
64780,-0.849961,0.291093,-0.220474,0
64800,-0.832569,0.323718,-0.230228,0
64820,-0.81667,0.353933,-0.238396,0
64830,-0.801302,0.380991,-0.243629,0
64850,-0.782171,0.403729,-0.248567,0
64870,-0.760697,0.425871,-0.255036,0
64890,-0.744829,0.442965,-0.260227,0
64910,-0.728725,0.436724,-0.26144,0
64930,-0.732646,0.41984,-0.266151,0
64940,-0.78365,0.388131,-0.256686,0
64960,-0.792968,0.38982,-0.250594,0
64980,-0.797549,0.39706,-0.24616,0
65000,-0.806444,0.41044,-0.244257,0
65020,-0.821719,0.42472,-0.244022,0
65040,-0.845595,0.428453,-0.240693,0
65060,-0.84379,0.422532,-0.238263,0
65080,-0.835792,0.416921,-0.235184,0
65100,-0.827427,0.41387,-0.233084,0
65120,-0.822268,0.414031,-0.233997,0
65140,-0.818915,0.418451,-0.235267,0
65160,-0.816924,0.421568,-0.236567,0
65180,-0.814173,0.420514,-0.237269,0
65200,-0.811675,0.416241,-0.237792,0
65210,-0.811487,0.412885,-0.238825,0
65230,-0.814152,0.410663,-0.242027,0
65260,-0.812442,0.412695,-0.24263,0
65280,-0.812141,0.412233,-0.24343,0
65300,-0.812824,0.411148,-0.244335,0
65320,-0.813998,0.410209,-0.244882,0
65340,-0.814451,0.409871,-0.244308,0
65360,-0.814327,0.410494,-0.242799,0
65400,-0.814854,0.413327,-0.23786,0
65440,-0.818712,0.415837,-0.22984,0
65490,-0.834952,0.42141,-0.211607,0
65530,-0.844874,0.425891,-0.196502,0
65550,-0.860701,0.434359,-0.170715,0
65570,-0.863196,0.440438,-0.158474,0
65610,-0.867922,0.445044,-0.149124,0
65630,-0.860205,0.445758,-0.14323,0
65650,-0.85805,0.447371,-0.140694,0
65700,-0.845616,0.439296,-0.143993,0
65730,-0.841679,0.437164,-0.144478,0
65750,-0.840516,0.436385,-0.144251,0
65790,-0.839435,0.43598,-0.143904,0
65840,-0.833088,0.431582,-0.146026,0
65880,-0.824902,0.428321,-0.146451,0
65880,-0.821501,0.428485,-0.144209,0
65900,-0.81829,0.428014,-0.142532,0
65940,-0.809891,0.424535,-0.142569,0
65970,-0.804541,0.423674,-0.142764,0
65990,-0.804386,0.423671,-0.142735,0
66000,-0.802921,0.423955,-0.142637,0
66020,-0.80248,0.42407,-0.142989,0
66040,-0.801043,0.424617,-0.142889,0
66060,-0.798264,0.424708,-0.142523,0
66080,-0.798143,0.424735,-0.142491,0
66100,-0.798143,0.424735,-0.142491,0
66120,-0.796206,0.424612,-0.142369,0
66140,-0.795166,0.424393,-0.142163,0
66160,-0.794792,0.424397,-0.14219,0
66180,-0.791494,0.424706,-0.140194,0
66210,-0.789147,0.425333,-0.137865,0
66250,-0.786867,0.425549,-0.13658,0
66280,-0.785478,0.42511,-0.136203,0
66300,-0.785438,0.424989,-0.136147,0
66310,-0.785318,0.425016,-0.136115,0
66320,-0.785661,0.425014,-0.135408,0
66340,-0.785705,0.424992,-0.134461,0
66370,-0.7852,0.425019,-0.133393,0
66390,-0.785046,0.425017,-0.133364,0
66400,-0.785046,0.425017,-0.133364,0
66420,-0.784764,0.424993,-0.132742,0
66460,-0.785376,0.425623,-0.131545,0
66480,-0.785393,0.425838,-0.130978,0
66500,-0.786356,0.426378,-0.130079,0
66510,-0.789599,0.427506,-0.129475,0
66530,-0.791314,0.427691,-0.129153,0
66570,-0.793341,0.428243,-0.128264,0
66590,-0.793688,0.428418,-0.127876,0
66600,-0.793962,0.428615,-0.127755,0
66620,-0.79445,0.428935,-0.127337,0
66670,-0.805488,0.43256,-0.124306,0
66690,-0.806951,0.432965,-0.12405,0
66710,-0.808466,0.433259,-0.123849,0
66750,-0.819979,0.434305,-0.124848,0
66780,-0.82561,0.435654,-0.123725,0
66790,-0.826668,0.436168,-0.123262,0
66810,-0.827665,0.436612,-0.122623,0
66830,-0.828582,0.437204,-0.122009,0
66850,-0.829649,0.437812,-0.121611,0
66870,-0.830594,0.438445,-0.121179,0
66900,-0.831508,0.439721,-0.120214,0
66920,-0.831768,0.439976,-0.11998,0
66940,-0.832318,0.440748,-0.119514,0
66970,-0.835379,0.442061,-0.118973,0
67000,-0.836758,0.4435,-0.118047,0
67040,-0.836558,0.443375,-0.117959,0
67060,-0.836435,0.4434,-0.117924,0
67100,-0.835877,0.441605,-0.120103,0
67120,-0.83571,0.441,-0.120868,0
67140,-0.835791,0.440793,-0.121343,0
67160,-0.836435,0.440769,-0.121769,0
67180,-0.837233,0.441431,-0.121874,0
67190,-0.83572,0.440612,-0.122351,0
67240,-0.835591,0.439253,-0.122642,0
67260,-0.840016,0.438859,-0.124248,0
67300,-0.849561,0.43937,-0.127687,0
67310,-0.852731,0.438545,-0.129478,0
67320,-0.856402,0.436657,-0.132793,0
67340,-0.856998,0.436418,-0.133092,0
67360,-0.864248,0.439814,-0.130376,0
67380,-0.876445,0.446382,-0.129012,0
67390,-0.878616,0.446278,-0.130631,0
67410,-0.882749,0.446062,-0.132972,0
67430,-0.887661,0.446295,-0.135314,0
67450,-0.88991,0.44669,-0.136206,0
67470,-0.892137,0.446909,-0.137153,0
67490,-0.894151,0.447147,-0.137958,0
67510,-0.895761,0.447289,-0.138711,0
67530,-0.897259,0.44717,-0.139718,0
67560,-0.900749,0.445479,-0.144208,0
67580,-0.901785,0.44454,-0.145675,0
67590,-0.903031,0.4438,-0.146739,0
67610,-0.904391,0.443692,-0.147333,0
67630,-0.906115,0.444292,-0.146536,0
67650,-0.90605,0.444447,-0.145622,0
67670,-0.905594,0.444453,-0.144962,0
67700,-0.903178,0.443919,-0.144086,0
67730,-0.897467,0.443192,-0.142799,0
67730,-0.895638,0.442767,-0.142384,0
67750,-0.89112,0.441013,-0.142166,0
67790,-0.89052,0.439909,-0.142704,0
67820,-0.890928,0.439472,-0.142461,0
67820,-0.891336,0.439036,-0.142218,0
67840,-0.893061,0.438446,-0.141816,0
67840,-0.896447,0.437565,-0.140047,0
67860,-0.903159,0.435571,-0.135066,0
67880,-0.919602,0.42927,-0.119817,0
67900,-0.92402,0.371164,-0.0984101,0
67930,-0.926439,0.247624,-0.0710408,0
67950,-0.935167,0.196857,-0.0597063,0
67970,-0.942459,0.140662,-0.0445816,0
67990,-0.949232,0.0814685,-0.0260853,0
68010,-0.958616,0.0194048,-0.00554571,0
68020,-0.973108,-0.045149,0.0172577,0
68040,-0.996591,-0.110198,0.0426154,0
68080,-1.06711,-0.235845,0.0997153,0
68100,-1.10627,-0.294502,0.127334,0
68120,-1.14557,-0.348294,0.155305,0
68140,-1.18394,-0.397632,0.183207,0
68160,-1.21853,-0.444725,0.209049,0
68180,-1.2484,-0.489033,0.233323,0
68200,-1.27315,-0.531294,0.255725,0
68210,-1.29506,-0.57182,0.273099,0
68230,-1.32621,-0.642965,0.287356,0
68250,-1.33615,-0.672829,0.28696,0
68270,-1.34017,-0.699429,0.283479,0
68290,-1.34306,-0.722705,0.280501,0
68310,-1.33578,-0.741554,0.273125,0
68330,-1.31643,-0.756608,0.261135,0
68370,-1.22928,-0.779693,0.196525,0
68410,-1.20466,-0.770156,0.181466,0
68430,-1.19189,-0.763222,0.174187,0
68450,-1.1827,-0.758884,0.166739,0
68470,-1.18025,-0.757245,0.160057,0
68490,-1.18361,-0.756069,0.15239,0
68510,-1.18719,-0.753469,0.145122,0
68530,-1.18644,-0.748954,0.140719,0
68550,-1.18425,-0.745474,0.138684,0
68570,-1.1815,-0.743982,0.138451,0
68590,-1.17915,-0.742686,0.13723,0
68610,-1.17891,-0.74118,0.134547,0
68630,-1.17787,-0.739054,0.131852,1000
68650,-1.17727,-0.737373,0.13058,0
