Timestamp, Electrode 1, Electrode 2, Electrode 3, Electrode 4, Electrode 5, Electrode 6, Electrode 7, Electrode 8, Marker
0,19,-1,-9,-2,-6,1,1,9,0
5,-2,-7,-7,4,0,4,0,-2,0
10,3,-4,-6,0,20,9,1,-3,0
15,-7,-6,-10,-8,7,4,3,-5,0
20,-7,-6,-17,-2,-4,-2,-4,-7,0
25,-9,-25,-29,-54,-12,0,-6,-7,0
30,0,9,33,47,13,4,10,-4,0
35,15,36,16,22,-35,-20,-10,8,0
40,-7,4,1,-17,-4,-7,-3,-3,0
45,-3,-8,-48,11,2,2,-1,4,0
50,6,37,77,0,-3,2,-3,-7,0
55,-12,-21,-36,9,25,8,0,-4,0
60,-39,-9,8,8,-3,2,1,2,0
65,30,-1,-27,-14,4,3,1,7,0
70,-4,-14,-35,-12,7,4,0,0,0
75,3,0,13,4,27,21,5,-6,0
80,-8,-3,-16,-12,-23,-38,-10,2,0
85,-16,-8,8,-12,-72,-22,-5,0,0
90,-1,-10,-21,-17,-10,-13,-5,4,0
95,0,0,8,4,12,13,-5,-2,0
100,4,1,20,18,50,29,11,-2,0
105,2,11,24,9,13,-3,1,2,0
110,1,-17,-6,-6,-28,-3,-8,2,0
115,-12,18,-17,-13,2,-10,1,1,0
120,33,4,-4,6,26,16,0,-4,0
125,5,12,14,4,8,7,5,5,0
130,-17,-20,-79,-50,-17,-5,-8,-9,0
135,-4,-7,57,24,-32,-18,0,6,0
140,4,16,14,-2,-41,-26,-14,5,0
145,-3,-5,7,28,40,8,-3,3,0
150,-2,11,-20,8,112,95,28,-19,0
155,19,6,16,-10,-36,-62,12,32,0
160,-7,-9,2,-29,-108,-57,-15,-8,0
165,-10,-18,3,4,40,-14,-6,-4,0
170,12,21,1,0,4,4,-11,5,0
175,-6,-27,-17,7,52,45,5,-7,0
180,1,7,20,-19,-51,-15,13,3,0
185,-23,-22,24,5,5,-2,-2,-6,0
190,32,12,-13,-12,0,-4,13,4,0
195,-1,14,8,18,5,8,11,0,0
200,16,19,2,4,24,16,-7,-1,0
205,5,-13,-35,-16,-11,-3,-8,3,0
210,-27,-5,25,-3,-18,0,23,-5,0
215,12,30,-23,18,0,-23,-27,0,0
220,3,20,1,-6,-18,2,62,13,0
225,1,10,-3,-4,-2,-15,-33,-4,0
230,-2,-16,-6,-3,-1,2,-7,-2,0
235,-15,-50,-23,-15,-9,-4,-5,0,0
240,-7,11,4,11,28,4,-24,-11,0
245,11,18,7,-1,-12,-3,-4,8,0
250,-2,-7,-5,9,21,-4,-11,-5,0
255,-7,3,20,0,-2,17,23,0,0
260,-3,-16,-12,-5,-3,-4,-33,-4,0
265,-10,-10,-8,-13,-24,-12,-9,-5,0
270,12,10,-7,-6,-20,3,43,-3,0
275,-27,-12,12,4,31,17,10,-2,0
280,13,11,11,15,30,-1,-31,0,0
285,-2,-12,-13,-12,-30,-16,10,7,0
290,-12,2,-3,-9,-45,-25,-33,-1,0
295,-15,-25,-8,-9,3,-10,-27,-7,0
300,-8,-16,-6,5,30,18,30,6,0
305,-7,15,13,10,9,14,32,3,0
310,-2,-11,-4,-1,6,10,-32,-4,0
315,-9,13,9,6,5,-7,8,-7,0
320,16,-2,-2,-8,-13,-2,-18,7,0
325,8,4,3,5,13,1,0,-4,0
330,7,-6,-4,-1,-1,1,-9,-1,0
335,-14,-4,-7,-16,-26,-16,-3,-12,0
340,-1,2,-5,10,14,-9,0,-8,0
345,-29,-12,0,-2,-1,5,6,-2,0
350,16,1,0,-5,-4,6,-1,10,0
355,18,6,-2,-19,-50,-25,-10,6,0
360,-25,-21,-11,-3,-17,-4,-2,-17,0
365,32,13,10,20,41,14,4,4,0
370,-12,-1,8,12,36,21,2,-5,0
375,6,7,-2,-7,6,10,-4,0,0
380,-7,-10,3,-12,-24,-26,-1,2,0
385,-25,-10,-4,-4,-20,-5,-16,-8,0
390,16,4,-1,-1,6,-1,1,5,0
395,22,4,15,6,10,12,8,19,0
400,-32,-10,-6,-13,-6,0,-5,-11,0
405,-3,-5,-32,-9,1,-1,-2,-6,0
410,12,4,28,13,-3,-12,9,8,0
415,5,-4,3,-1,1,0,-16,3,0
420,-3,4,2,2,0,13,23,-4,0
425,-13,2,4,-7,-7,-5,10,-11,0
430,-7,0,-10,-10,-15,-21,-11,5,0
435,-13,-15,-16,0,-2,-6,-16,-15,0
440,0,-5,1,8,23,6,-10,-5,0
445,31,19,15,4,1,7,-3,9,0
450,-25,-10,-10,-3,-3,-4,0,-4,0
455,22,4,5,0,2,5,0,8,0
460,4,-14,-19,-9,-26,-22,-13,5,0
465,-1,-1,3,0,4,-3,0,7,0
470,-9,3,4,7,18,3,-7,-5,0
475,3,1,-8,-1,-5,7,15,1,0
480,9,-4,0,-3,-1,1,-5,7,0
485,4,8,6,2,5,9,11,-5,0
490,10,0,2,4,7,-5,-7,7,0
495,-12,-9,-8,-7,-10,1,2,-11,0
500,-10,-5,0,0,-6,-7,1,2,0
505,9,-11,-4,-9,-7,-4,-10,-6,0
510,5,2,-9,-5,2,7,14,1,0
515,-3,6,6,11,5,3,1,-2,0
520,-2,2,4,0,9,2,-6,2,0
525,0,-9,-4,-17,-23,-19,-6,4,0
530,-11,-9,-13,-17,-29,-6,-3,-8,0
535,8,10,29,24,16,3,4,1,0
540,2,3,-2,8,14,13,1,-4,0
545,9,-3,-6,6,7,-1,0,-1,0
550,-30,4,20,-7,-22,-11,-6,-4,0
555,0,-9,-21,-15,-9,-5,24,-1,0
560,6,2,8,5,13,8,-5,2,0
565,17,7,7,12,24,16,8,4,0
570,-7,-7,-9,2,-5,-7,-2,-8,0
575,29,1,-13,-14,-16,-8,-14,10,0
580,-11,-2,-2,-3,-10,-7,8,-3,0
585,-1,-6,-5,-5,4,3,-2,2,0
590,3,0,1,9,10,9,3,-2,0
595,-15,0,0,-3,-1,-8,-1,-2,0
600,5,0,-2,11,9,12,4,-5,0
605,-6,-1,1,-12,-5,-4,-1,0,0
610,-9,-4,-20,-13,-21,-5,-3,-2,0
615,2,-3,-6,8,11,-1,-1,-1,0
620,-22,-4,3,-11,-27,-15,-4,1,0
625,12,3,2,13,12,6,-3,1,0
630,15,4,2,10,32,5,0,3,0
635,-16,2,-7,-15,-15,4,-1,-3,0
640,17,-2,-9,-13,-35,-21,-3,9,0
645,-26,-6,4,3,7,8,1,-9,0
650,-5,1,3,5,26,5,2,-1,0
655,20,6,9,-1,-2,1,-3,4,0
660,25,4,-1,-7,8,16,4,6,0
665,4,-4,-3,-4,-30,-30,2,5,0
670,-3,1,3,9,-6,-6,-5,-8,0
675,-13,-5,2,2,21,2,2,-7,0
680,-3,-7,-21,-13,-29,-3,-3,-6,0
685,-29,-4,-2,-2,8,2,-4,-3,0
690,21,3,5,12,12,8,0,6,0
695,-4,-2,5,-2,7,0,4,3,0
700,9,4,-1,1,16,5,2,3,0
705,14,2,-2,-6,-26,-11,-4,5,0
710,-23,-6,-2,-6,-12,-9,-5,-6,0
715,1,1,-12,0,15,3,-2,-3,0
720,1,0,1,6,-11,-3,1,4,0
725,-13,-1,5,-1,1,2,1,-15,0
730,6,4,5,-1,16,12,7,8,0
735,-4,-5,-6,-2,2,0,-7,-4,0
740,-4,-1,0,-3,-13,-9,1,-1,0
745,-3,0,0,-6,-13,-8,-5,0,0
750,-2,-8,-14,-4,-11,-12,-3,0,0
755,-12,-4,-2,-10,-10,-3,-5,-1,0
760,-1,-3,1,1,9,-1,-4,-4,0
765,14,5,4,14,20,9,2,6,0
770,19,3,6,2,25,15,7,7,0
775,-7,0,1,-9,-38,-14,0,-2,0
780,-6,-4,-1,1,-9,-22,-7,-4,0
785,-8,-2,-3,-4,8,-1,-1,-3,0
790,-11,-4,-9,-7,-8,-1,-8,-4,0
795,-3,-3,1,7,3,15,3,-5,0
800,-18,0,-4,3,7,0,-2,-4,0
805,-2,-3,-1,-3,4,-3,-3,2,0
810,10,5,7,18,2,4,2,-3,0
815,-4,-3,-3,-16,-17,-15,-5,0,0
820,-7,-5,-8,-4,2,9,-5,-6,0
825,-8,-1,3,23,32,1,4,1,0
830,5,-1,-8,-24,-18,-1,-3,-2,0
835,1,1,0,-2,-23,-14,-1,2,0
840,1,-2,-4,5,13,-4,0,-4,0
845,1,-3,-1,-1,-11,7,-3,-4,0
850,3,-1,3,0,14,-1,-7,-2,0
855,-11,-2,5,13,23,1,10,-1,0
860,9,7,1,-3,-5,8,3,8,0
865,0,-2,-4,-13,-23,-3,-2,1,0
870,-5,-5,-5,-4,-13,-13,-2,-7,0
875,-16,0,0,-10,10,3,-1,-1,0
880,43,8,10,13,15,2,8,16,0
885,-13,-8,-12,-12,-4,-2,-5,-6,0
890,9,1,0,-9,-26,0,-5,1,0
895,-3,-4,1,3,-4,-6,6,4,0
900,-15,-4,-2,2,0,-2,0,-12,0
905,-5,1,0,7,23,13,0,-3,0
910,26,5,5,-1,16,13,8,10,0
915,12,2,1,3,7,-10,-7,-3,0
920,-37,-15,-8,-12,-46,-23,-2,-14,0
925,14,-5,-10,-11,-36,-16,-7,7,0
930,-21,-7,-16,1,6,2,-22,-8,0
935,10,3,4,17,29,25,34,3,0
940,9,7,11,0,10,7,-6,2,0
945,-3,-4,8,2,6,5,-2,-4,0
950,-2,-10,4,-4,-2,-4,5,2,0
955,15,15,-8,-4,-8,1,-13,2,0
960,-15,-10,-22,0,24,1,4,-3,0
965,-2,-5,32,-4,-31,-9,1,-5,0
970,5,4,-14,-1,4,-3,2,3,0
975,0,-8,-13,-22,-23,2,14,0,0
980,-6,7,40,10,-2,-6,-11,-4,0
985,2,2,-20,13,37,25,2,-1,0
990,-14,-1,12,4,11,-18,3,4,0
995,-3,-7,-13,-12,-46,-9,-5,-3,0
1000,3,-13,7,-8,11,-3,-1,-3,0
1005,5,5,-20,1,-10,-18,-4,1,0
1010,-9,9,32,-12,-10,-5,8,-8,0
1015,-1,-4,1,9,-7,-6,-10,4,0
1020,7,-2,-24,6,13,12,-3,2,0
1025,-12,-1,32,-2,19,9,4,-2,0
1030,-11,-16,-37,0,-11,1,4,-4,0
1035,0,20,-16,-6,4,-7,-13,-2,0
1040,3,11,21,-2,-5,-2,-3,-3,0
1045,5,19,42,8,19,5,-4,0,0
1050,-9,-15,-9,0,-14,-5,-7,-1,0
1055,-12,-9,-14,0,12,4,0,-5,0
1060,-11,-24,-35,-5,-5,-2,-4,-6,0
1065,14,4,-49,-5,-4,-3,3,4,0
1070,-7,17,51,4,-10,-4,-2,-8,0
1075,17,7,77,7,14,2,-8,3,0
1080,-38,-13,-41,-9,8,3,12,-1,0
1085,13,8,-21,2,-11,0,-1,4,0
1090,-5,-31,-9,-8,5,0,-7,-6,0
1095,16,46,26,3,-8,-6,-4,6,0
1100,-2,-3,20,8,-8,3,-2,-6,0
1105,-25,-17,2,-12,0,-7,0,-4,0
1110,9,4,-20,-2,-6,11,0,9,0
1115,5,-15,-20,11,25,3,-3,-8,0
1120,7,5,5,-11,-15,0,0,3,0
1125,-15,-8,-12,-9,-17,-24,-13,-8,0
1130,7,-1,-5,4,0,-1,-1,-1,0
1135,-4,-11,5,-7,8,6,-1,-2,0
1140,27,14,5,-2,5,4,-3,7,0
1145,6,-7,2,2,-2,8,-1,-1,0
1150,-25,8,4,13,33,26,11,-2,0
1155,5,-10,-10,-10,-21,-27,-13,-2,0
1160,8,0,4,4,-15,0,-3,1,0
1165,0,-12,-48,-23,-2,-21,5,9,0
1170,-6,5,21,-18,-54,-24,-4,-8,0
1175,-9,13,25,23,37,29,4,-3,0
1180,2,0,-2,-5,14,9,6,6,0
1185,3,0,27,10,-23,-11,-6,-1,0
1190,-10,-2,-29,1,35,12,0,-3,0
1195,7,-18,5,1,-14,-16,-4,-2,0
1200,-5,3,4,-14,-28,-10,0,-2,0
1205,-5,-6,-1,-5,-2,5,-1,-4,0
1210,-1,-2,-4,3,10,-9,-4,-5,0
1215,-15,-8,-10,-3,16,14,1,-4,0
1220,13,1,-1,15,26,0,2,3,0
1225,-1,-2,4,-1,-15,7,2,-2,0
1230,4,1,1,-6,-13,-16,-4,0,0
1235,-7,-6,-18,-5,-8,-2,-2,-3,0
1240,-2,0,-3,-6,-5,-3,-5,-4,0
1245,-6,2,5,3,-5,-5,3,4,0
1250,16,0,19,11,25,20,5,0,0
1255,-2,-29,-25,-9,0,-5,-1,-1,0
1260,-13,23,2,-9,-40,-22,-9,-3,0
1265,31,18,30,6,20,1,1,9,0
1270,-16,-14,-19,-4,-23,-5,-4,-7,0
1275,-2,-5,-18,2,10,12,2,5,0
1280,-1,-7,-5,3,31,7,4,-3,0
1285,-12,-17,21,-1,-20,-7,-3,-6,0
1290,-3,-19,-43,-8,-8,-6,-4,0,0
1295,5,-7,19,0,-1,0,2,-2,0
1300,13,57,18,12,15,5,2,7,0
1305,6,-2,-9,-6,1,9,7,4,0
1310,-14,-3,-17,-4,-21,-20,-6,-1,0
1315,-15,-43,-21,-11,2,3,-7,-9,0
1320,29,33,11,6,18,-3,3,18,0
1325,-23,0,-14,3,-15,-4,-6,-16,0
1330,18,10,17,10,32,20,5,7,0
1335,20,30,3,-19,-27,-17,0,16,0
1340,-20,-39,-17,-4,-38,-6,-8,-11,0
1345,-4,18,-4,2,32,10,-3,-2,0
1350,-2,-3,7,-4,-4,-2,1,0,0
1355,-18,1,-14,12,-1,-4,-3,-10,0
1360,-9,-13,29,1,27,12,2,-12,0
1365,4,-7,-19,-3,-14,2,1,4,0
1370,0,4,22,3,6,0,-4,-6,0
1375,0,11,7,6,7,-4,1,0,0
1380,-4,-7,-17,-12,-25,-4,1,-2,0
1385,-3,-9,-13,-6,2,-1,0,-7,0
1390,2,15,12,0,-2,-4,-5,3,0
1395,-5,5,3,1,-4,-3,-1,-4,0
1400,7,-34,-35,-1,4,-4,1,10,0
1405,-4,11,48,2,-2,3,-3,-8,0
1410,1,40,10,3,-3,-3,2,5,0
1415,-5,-4,-6,-2,-6,-5,-4,-2,0
1420,-5,2,4,2,3,5,2,1,0
1425,-1,-11,-14,2,15,2,-1,-2,0
1430,-9,-18,-18,-5,-7,-4,-1,-2,0
1435,9,-8,2,2,6,2,0,1,0
1440,-10,9,12,0,4,4,-2,-2,0
1445,17,-8,-7,4,7,3,5,7,0
1450,1,10,2,-6,-17,-7,-2,-3,0
1455,-3,-1,-10,-5,-25,-14,-3,5,0
1460,-2,-9,6,7,26,-3,-4,-8,0
1465,-7,-11,-6,-12,-15,-4,-4,-5,0
1470,4,-1,-1,0,-7,3,3,0,0
1475,2,1,0,0,6,-2,-2,0,0
1480,-7,-9,-16,-12,-20,-3,-1,0,0
1485,-7,2,10,5,10,2,-4,-3,0
1490,10,-7,-8,1,4,-2,-4,1,0
1495,-23,-7,-26,-3,-3,2,-11,-8,0
1500,20,43,61,5,-1,-2,1,0,0
1505,-13,-15,-18,2,8,0,2,1,0
1510,-10,-5,-3,-3,-6,-3,-7,-1,0
1515,11,4,4,-3,-2,0,1,1,0
1520,-8,-37,-25,-7,3,1,-9,-7,0
1525,-5,20,-2,0,-13,-9,1,-2,0
1530,1,-5,8,-6,-15,-8,-3,-8,0
1535,-5,9,6,1,9,5,6,3,0
1540,4,-16,-4,1,18,8,3,4,0
1545,6,1,1,-6,-21,-7,-6,-9,0
1550,-14,-10,-11,2,10,-1,5,2,0
1555,10,1,-2,-3,-2,-4,-11,-7,0
1560,9,1,-2,6,2,-3,5,7,0
1565,8,2,-2,0,10,11,-8,4,0
1570,-7,4,-5,-7,0,4,3,-3,0
1575,13,2,14,7,12,4,3,-3,0
1580,-3,2,-1,5,10,2,5,-8,0
1585,-16,-3,-6,-8,-25,-9,-40,-5,0
1590,44,-1,-10,-16,-27,-12,20,19,0
1595,-7,-1,5,-13,-33,-34,-8,0,0
1600,-6,-3,-13,-12,-24,0,-5,2,0
1605,-17,-8,-7,11,33,1,19,-4,0
1610,-23,-1,19,18,39,30,-5,-16,0
1615,35,9,3,0,-7,1,-12,13,0
1620,-14,-3,-4,-2,-6,-1,31,-5,0
1625,1,-6,-4,-3,4,4,-2,-2,0
1630,6,13,29,2,3,-5,-16,1,0
1635,-14,-8,3,10,13,9,20,-1,0
1640,-19,-16,-23,-9,-7,-1,-18,-6,0
1645,15,17,27,9,3,-2,-5,8,0
1650,-5,-13,-21,-5,2,2,41,-2,0
1655,-9,1,2,-9,-18,-12,-15,1,0
1660,5,2,5,3,4,-1,-4,-4,0
1665,1,-7,-21,-1,14,-4,18,7,0
1670,3,-1,-3,-14,-42,-21,-17,-4,0
1675,-14,-1,4,6,25,30,11,-6,0
1680,4,1,-4,4,8,-14,-10,5,0
1685,3,7,7,9,-13,0,-1,-5,0
1690,-9,-2,-1,-1,29,14,-5,0,0
1695,-6,-6,-11,-19,-38,-22,2,3,0
1700,-2,-3,-6,-8,-23,-14,-25,-11,0
1705,5,5,8,8,36,13,35,10,0
1710,0,-2,0,11,-2,5,-2,-2,0
1715,-5,3,1,14,40,24,0,-9,0
1720,0,5,6,-2,-10,9,3,3,0
1725,-1,-5,-5,-26,-51,-44,-8,7,0
1730,-6,-6,-14,2,-3,0,-5,-8,0
1735,6,3,7,9,34,-12,5,8,0
1740,-11,-6,-5,-9,-35,1,-5,-8,0
1745,9,1,-1,1,21,7,-4,-1,0
1750,4,0,-3,2,-1,8,-13,-4,0
1755,-9,-2,-3,17,24,1,1,-3,0
1760,22,5,7,-11,2,-12,9,4,0
1765,-2,-5,-4,-17,-18,2,-10,-4,0
1770,-17,-10,-10,-3,-9,-15,-16,-3,0
1775,21,0,1,8,15,13,9,-2,0
1780,-13,-5,-4,-8,-32,5,-16,-3,0
1785,-5,-3,-5,-16,-11,-19,8,-5,0
1790,4,2,11,14,26,9,3,6,0
1795,-11,-4,-6,-6,-16,6,-3,-10,0
1800,1,6,-7,4,12,-16,-3,9,0
1805,1,-3,-3,5,-8,0,-11,-5,0
1810,-4,-3,5,-5,0,1,-1,-5,0
1815,-10,-8,-9,-18,-30,-23,4,-2,0
1820,-4,-3,9,13,11,-4,-5,-5,0
1825,-3,8,-3,6,31,28,2,1,0
1830,4,-1,-2,-13,-19,9,39,3,0
1835,-4,3,4,-3,3,-9,-13,-4,0
1840,-2,-2,1,7,30,11,-2,-7,0
1845,-6,-6,-8,-1,-32,12,-1,-6,0
1850,0,0,-6,-15,0,-24,-18,-2,0
1855,8,8,-10,-17,-24,-21,-6,17,0
1860,-5,-8,-10,-11,-42,-29,-2,0,0
1865,-2,-2,7,16,49,23,-5,-7,0
1870,4,2,2,5,7,10,-15,4,0
1875,-8,-2,-3,-5,-38,-20,14,-3,0
1880,0,-1,-1,-3,35,30,9,0,0
1885,0,-2,1,9,-15,-9,-9,2,0
1890,-10,-1,-2,-3,1,5,-13,-8,0
1895,7,3,-1,-1,24,5,7,10,0
1900,-3,-1,2,-3,-47,-33,-7,-7,0
1905,0,-4,3,7,17,4,6,1,0
1910,-4,-7,-4,-2,-1,-2,-15,-3,0
1915,-4,-3,-1,9,37,35,15,-4,0
1920,-1,1,3,-13,-29,-8,11,11,0
1925,-10,-3,-15,-23,-42,-15,-8,-1,0
1930,12,0,-8,3,11,-12,-2,3,0
1935,-2,-1,16,16,7,8,-6,-6,0
1940,1,3,5,3,13,13,1,-2,0
1945,-3,3,-3,-6,0,-4,-2,1,0
1950,1,2,5,2,10,-5,7,2,0
1955,0,-10,-10,-5,-20,-3,-7,-4,0
1960,-5,0,-6,3,3,5,0,-4,0
1965,-4,-2,3,5,26,26,3,-8,0
1970,17,14,0,12,31,-5,3,16,0
1975,-4,-9,-8,-25,-77,-40,-17,-5,0
1980,-16,2,-11,-17,-27,-15,-30,-12,0
1985,-6,-7,-17,-4,-8,-8,12,3,0
1990,24,-8,16,9,21,20,6,4,0
1995,-3,24,33,23,35,23,4,-3,0
2000,6,-3,0,1,29,13,-2,4,0
2005,-15,-4,-2,-10,-18,-11,-12,-2,0
2010,-19,-15,-26,-12,-43,-28,-7,-9,0
2015,14,0,-1,0,4,4,1,2,0
2020,1,2,-1,2,34,19,9,-1,0
2025,6,-6,-22,-5,8,-5,2,4,0
2030,-7,10,16,-2,-52,-28,-5,-2,0
2035,-10,-1,7,5,11,0,-6,-14,0
2040,2,10,23,15,26,21,13,5,0
2045,7,-5,-12,5,17,6,3,-2,0
2050,-19,0,-11,-18,-12,-13,-9,-3,0
2055,2,-9,-14,-20,-57,-14,-5,4,0
2060,28,-2,-15,0,14,-8,1,4,0
2065,1,5,37,11,12,6,-1,-7,0
2070,-40,6,2,21,39,29,11,-17,0
2075,10,5,-24,-13,15,9,2,16,0
2080,-20,-8,-6,14,-10,-1,-5,-15,0
2085,-6,8,23,-22,-35,-31,-4,9,0
2090,50,-11,-17,-24,-55,-22,-7,10,0
2095,-8,5,13,5,26,7,-1,-2,0
2100,19,-7,-12,8,13,7,2,2,0
2105,-13,11,29,20,21,15,3,-9,0
2110,-24,3,-8,8,23,5,2,-5,0
2115,-1,-12,-1,-14,-18,-2,-6,-4,0
2120,12,9,-1,-8,4,0,3,9,0
2125,22,-2,-13,1,-2,-7,-2,5,0
2130,-5,-1,6,-8,-22,-5,-1,-6,0
2135,-7,-15,-21,-2,-7,4,-4,0,0
2140,-12,6,15,6,13,-2,2,-3,0
2145,13,-4,-7,-2,6,0,2,4,0
2150,16,1,7,6,7,6,-3,-1,0
2155,-4,-4,11,2,14,8,-1,-8,0
2160,-9,-5,-8,-5,-20,-7,0,0,0
2165,-29,-3,-3,14,22,6,-5,-5,0
2170,33,-11,-23,-13,-10,-10,2,5,0
2175,-22,-14,9,-6,-22,-9,-6,-8,0
2180,20,10,10,-4,-6,-1,-2,11,0
2185,-7,3,-1,-7,-15,-12,-6,-8,0
2190,-23,6,10,14,37,22,4,6,0
2195,2,-7,-12,5,27,4,4,3,0
2200,10,-14,-7,-1,-36,-18,-8,1,0
2205,-7,-1,1,1,-7,-6,-1,-8,0
2210,0,0,-1,-3,12,10,2,4,0
2215,11,7,4,0,9,17,-1,-4,0
2220,-16,-9,-2,-4,-3,-14,-4,-7,0
2225,5,-4,-17,-10,-24,-12,-7,-3,0
2230,-5,1,9,2,0,0,2,1,0
2235,-12,-2,-14,-3,-14,-8,-10,-6,0
2240,-5,2,1,-4,15,8,3,-2,0
2245,-4,-10,2,7,4,13,4,-4,0
2250,-4,13,12,6,16,5,0,-2,0
2255,22,3,-4,6,5,-9,1,11,0
2260,-17,-12,-10,-13,-26,-19,-9,-8,0
2265,4,-7,-9,-3,-6,-3,-4,-6,0
2270,3,-17,-10,-5,11,3,3,11,0
2275,-9,35,52,14,12,15,7,-6,0
2280,-8,-4,-3,11,18,5,2,-4,0
2285,2,-2,-13,-17,-38,-11,-1,3,0
2290,-15,-14,-15,-16,-38,-21,-10,-4,0
2295,12,0,-10,-5,6,-6,-5,5,0
2300,2,-4,-12,-7,-42,-22,-6,-4,0
2305,-26,-15,-20,-18,-35,-27,-9,-6,0
2310,-7,-2,2,-8,-9,0,-3,-1,0
2315,8,2,0,6,21,9,1,2,0
2320,-12,1,3,1,-5,-4,3,-3,0
2325,0,-3,-2,6,11,2,0,-4,0
2330,5,4,-3,-4,-17,-7,0,4,0
2335,-3,-5,-23,-12,-22,-16,-8,1,0
2340,-3,-3,24,1,2,4,-3,-7,0
2345,3,2,-1,1,12,3,-6,-3,0
2350,2,-3,0,10,17,14,1,-2,0
2355,-3,5,9,-2,6,-1,6,10,0
2360,-3,-8,-4,-10,-9,-4,4,-9,0
2365,-1,8,-6,12,2,9,0,-3,0
2370,-13,-7,1,-17,4,-12,-10,-4,0
2375,7,2,-6,-4,-34,-16,-9,-5,0
2380,-3,4,-3,-6,26,20,7,4,0
2385,0,-4,4,1,-12,-13,-1,-1,0
2390,3,3,-5,-3,-5,0,2,-1,0
2395,-1,0,3,6,37,9,-4,-2,0
2400,-2,-1,-3,3,-36,-13,-5,-6,0
2405,4,-10,-11,-19,-22,-1,1,0,0
2410,15,6,1,-5,11,0,-1,3,0
2415,8,3,9,9,15,-7,4,2,0
2420,0,7,5,8,29,23,5,-2,0
2425,-14,-10,-13,-5,-14,-11,-9,-5,0
2430,-3,-10,5,-4,-33,-4,-1,-4,0
2435,0,1,1,-14,-5,4,2,0,0
2440,9,9,11,24,33,4,1,2,0
2445,-9,-10,-10,-12,-15,-6,-1,-1,0
2450,-2,-8,-23,-11,-25,-12,-4,-8,0
2455,4,13,21,8,-1,-7,-8,5,0
2460,2,-2,-1,5,1,-3,1,1,0
2465,-11,3,-4,-13,5,7,-2,-6,0
2470,2,0,17,13,28,12,4,0,0
2475,-4,-11,-14,-9,-39,-16,-3,-1,0
2480,-2,-5,-15,-17,1,-3,-5,-2,0
2485,-3,-2,2,11,16,-2,-3,-2,0
2490,12,-1,1,6,-19,6,5,2,0
2495,-29,-1,-6,0,13,-8,-4,-6,0
2500,21,3,7,-10,-15,-3,-1,3,0
2505,5,-3,4,6,-8,0,3,-1,0
2510,-18,-5,-7,0,11,5,-3,-1,0
2515,7,-1,-7,-11,-5,6,0,-1,0
2520,2,-7,1,1,-1,3,-1,1,0
2525,5,-5,4,12,38,14,7,0,0
2530,-20,9,1,-2,-25,-11,-9,-3,0
2535,-4,-7,-11,-1,-3,-4,3,-4,0
2540,-2,-26,-18,-17,-28,-11,-7,0,0
2545,18,-2,5,9,4,0,1,0,0
2550,-12,-8,12,8,30,-2,-1,-2,0
2555,14,45,26,4,-11,0,3,4,0
2560,-19,-6,-6,3,15,2,-3,-6,0
2565,4,3,9,-1,0,10,4,1,0
2570,-26,-2,-17,-13,-3,-5,-2,7,0
2575,12,-21,-7,-7,-11,-4,-4,-3,0
2580,5,2,-1,11,16,14,2,2,0
2585,-23,-2,-11,-6,4,-15,-9,-6,0
2590,21,0,1,0,-22,-4,4,0,0
2595,-12,-7,-7,-11,-5,-1,0,6,0
2600,-3,11,4,-6,-14,-11,-3,-3,0
2605,-4,1,-7,2,13,10,0,-5,0
2610,9,5,7,7,15,1,4,6,0
2615,-9,-24,-14,-2,-24,-6,-4,-3,0
2620,11,-12,9,10,14,-1,0,-1,0
2625,1,12,14,-2,2,0,1,3,0
2630,5,-4,-4,1,15,4,0,2,0
2635,3,1,2,2,-7,5,1,0,0
2640,-3,-3,-1,-9,-5,-5,-2,7,0
2645,-6,-14,-22,-9,-13,-10,-5,-2,0
2650,-4,17,5,-2,-2,-2,-3,-3,0
2655,21,6,15,10,15,5,4,-1,0
2660,-7,-10,-5,12,3,-2,-3,-1,0
2665,-2,2,4,5,-11,0,4,5,0
2670,8,-13,-7,-10,-8,-8,-4,2,0
2675,-9,0,-14,1,18,9,0,-6,0
2680,1,19,3,-19,-16,-4,0,6,0
2685,0,-30,-9,-3,-20,-20,-7,1,0
2690,9,42,14,0,-5,-4,1,-4,0
2695,-22,-7,0,4,5,1,0,-8,0
2700,0,1,-7,-4,3,3,-2,-1,0
2705,0,-12,-2,0,12,7,3,3,0
2710,14,23,21,13,12,7,0,4,0
2715,-4,3,-1,-10,-16,3,1,1,0
2720,-3,-36,-14,-8,-6,-9,-5,-8,0
2725,-15,9,2,13,-14,-5,-2,-8,0
2730,-2,-4,-6,-15,8,0,1,7,0
2735,6,13,3,1,2,2,1,-1,0
2740,-11,-11,-12,-1,3,1,-3,0,0
2745,-1,-4,-2,-9,-9,-2,-7,-4,0
2750,2,4,2,7,6,3,2,-5,0
2755,-6,1,-6,-4,-17,-20,-11,-8,0
2760,-3,0,8,10,36,15,7,1,0
2765,0,-19,-3,-6,-19,-9,-4,0,0
2770,-7,-1,-8,-8,-36,-9,-6,-10,0
2775,4,3,4,7,21,5,-1,-3,0
2780,-15,4,1,2,4,7,6,6,0
2785,29,5,3,-4,12,5,3,7,0
2790,-9,-7,-2,0,9,3,-1,-4,0
2795,-3,1,-2,-6,-20,0,1,-2,0
2800,-7,3,-2,8,-4,-11,-4,-8,0
2805,8,-3,3,-13,-2,-2,-2,2,0
2810,-22,-8,-2,9,-7,-4,-4,-10,0
2815,23,5,2,6,27,10,4,8,0
2820,15,2,-26,-8,-9,-1,0,3,0
2825,-12,5,11,-6,-13,-7,-6,-5,0
2830,-10,-2,-10,-1,5,-5,-2,-2,0
2835,3,-14,6,-7,-17,-3,0,5,0
2840,6,-2,-16,-14,-10,-4,-3,-5,0
2845,-1,1,-5,5,5,4,0,-2,0
2850,-19,0,0,0,8,-1,-3,-3,0
2855,17,2,3,11,14,2,2,-2,0
2860,1,-4,6,-10,-2,0,-2,0,0
2865,-15,-17,-11,-1,-17,-6,-1,-4,0
2870,0,21,12,5,24,5,-1,-8,0
2875,7,3,-7,-3,-10,-3,-1,2,0
2880,1,-7,9,-6,-19,-7,-6,-3,0
2885,-4,4,5,10,13,1,0,0,0
2890,3,-1,-9,-10,-11,-1,0,3,0
2895,-20,3,10,-1,-9,1,-2,-4,0
2900,-2,-4,-2,11,13,-3,0,1,0
2905,-5,-4,3,-11,-17,2,0,1,0
2910,29,0,-8,13,22,5,4,6,0
2915,-9,2,-5,1,26,12,-1,-3,0
2920,-8,-6,3,-2,-22,-16,1,12,0
2925,15,0,-13,-3,-21,-12,-6,-7,0
2930,-3,-11,-4,7,0,-8,-4,-8,0
2935,-11,12,2,-5,13,-1,2,-4,0
2940,-4,-2,-10,-6,-4,9,-4,-10,0
2945,-7,-3,11,10,22,5,3,1,0
2950,6,-12,-5,-10,-21,-13,-5,2,0
2955,-1,-1,-5,-5,-24,1,0,-3,0
2960,2,4,10,28,53,13,2,-6,0
2965,-29,-2,-4,-10,-8,-1,2,2,0
2970,0,-1,-11,-16,-13,-7,-5,4,0
2975,8,3,-1,-2,-8,-12,-4,6,0
2980,10,-11,-25,-1,-9,-5,-4,-2,0
2985,-2,1,-6,2,-12,-2,-1,-2,0
2990,-5,-5,4,-4,-3,11,4,3,0
2995,-12,-4,-7,-5,3,2,0,-8,0
3000,-6,-4,-9,-7,-12,2,0,0,0
3005,3,-8,-3,11,32,-6,-1,5,0
3010,-1,3,7,-7,-16,-6,-1,-7,0
3015,-1,3,-1,4,10,20,3,0,0
3020,3,8,17,8,9,-7,1,1,0
3025,-4,-11,-14,-15,-22,-6,-5,-3,0
3030,-11,4,10,-8,-7,-7,-3,-3,0
3035,7,-13,-7,3,-7,0,-3,-5,0
3040,11,10,20,5,10,1,1,3,0
3045,8,-2,-5,-7,-1,-3,1,0,0
3050,-4,-3,3,14,-3,8,1,1,0
3055,10,7,2,-8,13,-6,-2,0,0
3060,-2,-3,-2,-16,-23,5,-3,0,0
3065,6,-3,0,7,25,-13,-2,-1,0
3070,-5,0,-3,-3,-21,3,-1,-4,0
3075,-9,3,9,10,34,16,4,0,0
3080,1,-5,0,-3,-19,-11,1,5,0
3085,-1,1,-1,-10,-26,-4,-4,-2,0
3090,-7,-6,-1,3,15,-3,-2,-4,0
3095,-7,-2,-4,-3,-24,-12,-2,-4,0
3100,0,2,7,4,31,16,3,-5,0
3105,3,5,8,10,26,14,2,-1,0
3110,6,-2,-17,-6,-16,-11,-2,10,0
3115,-5,-8,-11,-20,-54,-19,-6,-3,0
3120,-6,3,6,4,24,3,-5,-10,0
3125,4,0,3,-1,8,6,2,6,0
3130,0,-9,-6,-2,-7,3,0,-6,0
3135,-8,8,21,-7,-11,-12,-5,-3,0
3140,-3,1,-25,2,-6,-5,-3,3,0
3145,14,-5,7,7,15,13,1,4,0
3150,-3,20,0,9,16,-4,-3,-3,0
3155,0,-8,-6,2,-18,-8,-4,7,0
3160,-24,-9,1,-7,-1,-1,-1,-6,0
3165,35,15,1,-3,-3,5,2,2,0
3170,13,-17,-10,-18,-13,-7,-2,11,0
3175,-7,2,-19,-10,-15,-13,-3,-8,0
3180,5,4,12,13,13,1,-1,-1,0
3185,-19,-5,-6,-4,-7,3,2,-1,0
3190,-2,-8,1,-2,11,2,2,0,0
3195,-1,-4,0,13,-8,1,-5,-4,0
3200,12,15,6,-11,4,-7,2,4,0
3205,-7,-3,-4,-4,-16,-1,-3,-8,0
3210,0,4,6,10,29,9,1,-9,0
3215,-6,-5,-2,-2,-32,-11,-4,6,0
3220,-2,-9,-11,-16,-5,0,-1,-1,0
3225,3,8,11,3,3,-8,-2,1,0
3230,2,10,-2,-4,2,9,4,2,0
3235,3,-5,1,14,49,15,0,-4,0
3240,-12,-6,-4,-6,-26,-4,1,2,0
3245,3,-4,-21,-2,-13,-3,-2,4,0
3250,-3,-2,16,0,-7,-7,-2,-4,0
3255,2,-5,0,-3,-4,3,2,-1,0
3260,-8,2,-5,0,11,-3,-5,-3,0
3265,-8,-8,-2,-12,-8,-3,-6,2,0
3270,-1,-4,-1,2,-14,-9,-2,1,0
3275,3,19,8,1,0,3,2,6,0
3280,12,-7,0,-3,8,3,4,3,0
3285,-17,-15,-15,-2,9,4,-2,-8,0
3290,-4,-9,6,-1,-25,-4,-3,-3,0
3295,-10,-4,-8,-15,-7,-8,-3,0,0
3300,19,-1,13,5,17,7,1,-1,0
3305,-4,9,-5,4,-2,-3,1,-1,0
3310,1,-4,-8,0,3,-7,-4,-5,0
3315,1,-6,2,16,8,4,2,-5,0
3320,-9,0,0,-8,-14,-6,-2,-4,0
3325,12,-9,2,-7,-2,-4,-3,1,0
3330,-1,7,24,5,3,0,-2,2,0
3335,1,1,7,6,-3,5,6,6,0
3340,-7,4,-7,-2,0,-5,-5,-8,0
3345,-9,1,6,-4,8,0,0,-3,0
3350,12,-12,-18,-5,-22,-1,1,4,0
3355,1,16,2,4,22,-2,-2,-10,0
3360,0,-2,12,-1,1,11,1,-5,0
3365,-8,-1,-9,-3,-28,-10,-2,1,0
3370,4,1,-8,-4,6,-5,2,2,0
3375,5,-13,-8,-10,-14,-14,-10,-3,0
3380,5,-1,-1,7,-2,-2,3,0,0
3385,-10,0,0,-10,-6,3,-3,-7,0
3390,-3,1,4,9,20,4,-2,0,0
3395,3,-4,2,9,10,4,1,2,0
3400,-2,2,-4,-12,-17,-10,-2,1,0
3405,1,-14,-2,4,0,-2,-1,-7,0
3410,5,-3,-5,-2,13,3,0,4,0
3415,2,6,-8,-12,-10,2,1,4,0
3420,2,2,5,14,13,4,1,1,0
3425,-2,1,1,-2,-13,-5,0,5,0
3430,-9,-5,-9,-9,-16,-7,-6,-2,0
3435,-10,-5,-5,3,17,-6,-6,-4,0
3440,0,-6,-4,-4,-10,0,2,-1,0
3445,-1,11,12,3,29,12,2,0,0
3450,-4,-2,-7,0,-17,-2,-2,-2,0
3455,-6,-14,-8,-8,-29,-11,-4,-2,0
3460,-2,3,-1,-2,-1,0,-3,-7,0
3465,-2,9,10,14,17,1,0,7,0
3470,4,6,-2,-2,12,7,0,-2,0
3475,9,0,11,-6,12,6,3,2,0
3480,5,-6,-8,1,-14,-6,-2,-2,0
3485,-5,-4,-5,-3,-14,-13,-5,-8,0
3490,-7,-1,0,3,11,8,2,0,0
3495,-3,2,-8,3,11,5,3,-2,0
3500,16,-5,-6,-6,-6,-5,-4,1,0
3505,-15,-8,-2,-10,-15,0,-3,-4,0
3510,30,18,6,-7,-4,-5,0,3,0
3515,-2,1,8,8,32,21,9,2,0
3520,-2,-3,-5,-1,5,-8,-3,4,0
3525,-6,-10,-11,-17,-67,-22,-5,-2,0
3530,-3,-8,-11,-7,0,-9,-6,-1,0
3535,-2,1,4,14,22,13,2,-4,0
3540,1,0,8,-3,8,-1,3,4,0
3545,-1,-2,-2,-4,-7,3,1,-3,0
3550,-2,-6,-9,4,-3,-2,-4,-5,0
3555,-18,5,10,-1,3,-1,-3,-5,0
3560,23,5,3,11,13,6,1,11,0
3565,-2,2,8,7,47,15,2,-10,0
3570,3,-2,-12,-26,-81,-25,-6,-2,0
3575,-6,-12,-17,-15,-35,-29,-9,-4,0
3580,-20,-4,-1,2,5,13,3,-8,0
3585,11,10,6,3,28,-2,-2,0,0
3590,-4,-2,1,6,17,7,5,7,0
3595,4,-6,-2,-2,-3,-9,-3,2,0
3600,-11,-2,-7,-9,-44,-15,-8,-5,0
3605,5,0,2,-4,21,4,3,1,0
3610,-8,0,9,21,33,14,6,-2,0
3615,12,-1,-6,-13,-5,13,-2,4,0
3620,-11,0,4,-8,-18,-15,-3,3,0
3625,-3,0,-12,-2,-11,-5,-1,2,0
3630,-12,0,6,12,18,2,-4,-10,0
3635,6,5,5,1,15,6,8,7,0
3640,5,-2,-3,1,-7,0,2,-5,0
3645,0,-8,-10,-16,-39,-19,-9,-2,0
3650,-7,-1,-1,-11,-17,15,-5,-7,0
3655,-4,-1,-4,18,22,13,3,-1,0
3660,0,-1,2,-4,2,3,0,5,0
3665,1,-5,-5,4,-12,-25,-1,4,0
3670,1,2,4,0,4,-16,-1,0,0
3675,-1,-3,-1,-6,-3,5,-9,-12,0
3680,-18,-1,2,1,9,-15,-1,1,0
3685,13,-1,-3,1,10,32,4,-1,0
3690,2,-2,0,4,-11,9,3,17,0
3695,-7,-3,-2,-16,-18,-11,-5,-11,0
3700,-11,0,2,18,36,21,-2,11,0
3705,22,2,-7,-22,-9,-14,-7,-14,0
3710,-17,0,4,7,-9,-19,0,14,0
3715,0,-4,-5,-3,-37,-14,-4,6,0
3720,-2,-1,2,5,24,10,2,-22,0
3725,-6,-2,8,1,-15,-18,1,10,0
3730,-8,-7,0,-2,-10,-3,1,0,0
3735,6,0,-11,8,18,-2,2,-2,0
3740,-3,-4,8,-7,-2,11,-7,-11,0
3745,-7,6,-2,19,27,24,6,11,0
3750,-6,-9,-9,-23,-19,-11,-10,-27,0
3755,-3,-1,3,2,13,-34,-11,12,0
3760,4,4,-3,7,-18,20,5,-3,0
3765,-4,-8,-13,-20,-35,-9,-7,7,0
3770,0,1,7,15,17,0,-4,-20,0
3775,-4,2,3,-8,-2,1,8,0,0
3780,16,-5,-4,-18,-25,-13,-4,3,0
3785,5,4,8,23,29,11,5,6,0
3790,2,1,-4,-3,15,11,0,5,0
3795,0,1,6,-4,-16,-6,-9,-14,0
3800,-4,1,10,27,36,5,27,22,0
3805,-9,-2,-1,-2,21,33,4,-9,0
3810,4,0,2,5,21,7,-3,-6,0
3815,1,-5,-19,-24,-57,-34,-5,10,0
3820,-9,-14,-3,-8,-59,-43,-19,-22,0
3825,1,1,-2,-5,8,-9,2,-6,0
3830,-3,3,17,18,25,24,8,-1,0
3835,1,-2,-3,0,29,26,4,-6,0
3840,-6,-2,-10,-13,-22,-12,-12,0,0
3845,-4,0,8,15,7,2,-12,-17,0
3850,4,-1,-4,-16,-22,-10,10,14,0
3855,-3,-1,5,3,4,-19,1,-9,0
3860,2,-1,-12,-5,5,37,0,0,0
3865,-7,-2,3,3,4,7,-1,-4,0
3870,-1,-2,-8,-15,-19,-26,-11,-11,0
3875,-1,1,3,14,8,17,3,-3,0
3880,6,5,-6,0,11,-8,-5,3,0
3885,1,3,-1,6,-2,-1,5,6,0
3890,0,-2,-10,-5,-4,7,-2,1,0
3895,-2,-6,1,-3,-7,-8,1,0,0
3900,-6,2,-14,-11,-15,8,-1,-3,0
3905,-10,0,11,13,27,6,2,-5,0
3910,7,1,-4,4,3,-1,4,18,0
3915,9,-3,-1,12,7,-2,-9,-18,0
3920,-11,3,3,-7,23,10,2,4,0
3925,5,-4,-14,-25,-43,-24,-5,15,0
3930,-7,-6,-2,-7,-33,-12,-7,-11,0
3935,-4,1,3,3,13,8,0,0,0
3940,-2,-2,5,16,20,-3,-4,-24,0
3945,-2,-2,7,0,23,34,7,1,0
3950,-2,-4,-13,-14,-9,-18,-11,5,0
3955,-4,-3,-4,-2,-4,-11,3,3,0
3960,4,-1,-2,-6,-5,-15,-6,-3,0
3965,-3,-3,2,0,-5,2,4,-6,0
3970,2,5,6,8,22,11,2,1,0
3975,-3,-1,-8,-6,-10,5,-1,-1,0
3980,0,-6,-7,-12,-7,-4,2,8,0
3985,0,2,-2,5,-8,-20,-7,2,0
3990,-1,-1,2,3,12,23,6,-4,0
3995,2,8,6,11,38,20,5,0,0
4000,0,3,4,-13,-33,-24,-4,9,0
4005,-3,-6,-8,-2,-14,-5,-10,-12,0
4010,9,-3,-7,-9,-21,-16,-7,-6,0
4015,-7,-3,-1,-9,-16,15,-1,-4,0
4020,11,9,10,25,47,12,6,6,0
4025,-2,1,-1,-2,17,7,6,2,0
4030,-6,-2,-1,-11,-29,-30,-4,4,0
4035,-10,-8,-6,-7,-19,0,-2,-4,0
4040,14,0,1,11,27,12,7,-7,0
4045,-4,5,-5,-12,-16,-26,-7,10,0
4050,13,2,3,5,-7,5,-5,-9,0
4055,0,2,3,10,21,16,3,12,0
4060,-2,-4,-7,-22,-13,-22,-1,5,0
4065,-6,-7,-4,-9,-32,-6,-3,-16,0
4070,-8,-2,-3,4,42,22,5,-23,0
4075,-1,4,13,18,16,0,0,23,0
4080,-7,1,-5,-18,-41,-23,-7,13,0
4085,-1,-4,-6,-8,-21,-17,-3,-2,0
4090,-15,-3,-4,-8,-14,-15,-1,4,0
4095,2,-1,0,6,21,12,-5,-17,0
4100,-2,1,8,13,32,34,13,7,0
4105,23,1,-2,3,9,-1,3,0,0
4110,-2,-2,1,0,-2,-1,-1,7,0
4115,-5,-5,-10,-7,-5,-7,1,-3,0
4120,-27,-1,1,-2,-27,-15,-3,-3,0
4125,-1,-6,8,0,8,1,-3,-9,0
4130,-3,1,2,31,69,46,10,-9,0
4135,-3,3,-14,-18,-33,-17,5,27,0
4140,4,-16,-14,-29,-77,-45,-21,-15,0
4145,-16,2,0,-2,-13,-8,-9,-2,0
4150,11,1,3,11,24,6,-4,-7,0
4155,-20,-3,5,-13,-9,2,4,2,0
4160,15,-3,-2,1,19,17,5,-8,0
4165,-14,3,-7,4,2,10,0,2,0
4170,13,1,17,-12,-11,-16,-2,3,0
4175,8,1,11,3,7,4,-5,-13,0
4180,-3,-3,-8,18,17,7,1,7,0
4185,6,-13,-13,-2,7,6,0,-2,0
4190,-27,9,-13,-6,-5,-4,-3,-6,0
4195,26,5,6,-12,-18,-14,-5,1,0
4200,6,1,22,7,9,9,3,-7,0
4205,-22,0,-4,3,16,5,-3,-11,0
4210,-5,-6,-17,7,-10,-7,-1,18,0
4215,11,-4,-18,4,-1,-15,-5,5,0
4220,1,0,-7,-10,-31,-15,-7,-9,0
4225,13,-6,-1,-5,-8,10,-1,-5,0
4230,-14,-3,11,1,10,-4,-4,-12,0
4235,-12,-8,-9,-9,1,-2,-8,-17,0
4240,16,-1,-5,6,13,18,8,3,0
4245,-8,16,12,13,31,12,5,2,0
4250,17,2,-6,-19,-33,-8,-1,15,0
4255,-3,-6,-9,-5,-21,-10,-7,4,0
4260,-15,-4,0,-1,4,-2,-4,-3,0
4265,3,5,0,4,10,1,-1,8,0
4270,-3,4,0,3,7,4,2,2,0
4275,-3,-3,-1,-3,-3,0,-1,-23,0
4280,-6,4,2,3,6,9,2,-20,0
4285,4,1,6,4,17,14,6,6,0
4290,-6,-6,-6,-9,-22,-25,-7,-8,0
4295,-8,-5,-3,0,-13,-6,-1,-7,0
4300,0,2,1,-1,7,3,-3,4,0
4305,-1,-3,0,-1,-1,-3,-2,2,0
4310,-3,-3,1,5,10,19,4,-5,0
4315,5,4,5,-2,5,-7,-4,3,0
4320,-4,-1,-8,-8,-8,-7,-2,-3,0
4325,-4,-11,3,-4,-27,-16,-6,-3,0
4330,14,5,1,0,2,4,3,6,0
4335,1,3,4,6,13,16,1,-7,0
4340,-1,-1,-7,-4,-1,-9,-2,6,0
4345,-3,-7,2,0,-1,0,0,-12,0
4350,-8,-5,-3,-2,-2,-14,-3,-8,0
4355,8,0,0,-5,-3,2,2,1,0
4360,-4,-5,-3,-3,-2,3,-1,3,0
4365,6,5,-1,7,10,11,1,1,0
4370,2,-4,9,-1,0,-9,2,-4,0
4375,-5,-1,-8,-15,-24,-14,-3,4,0
4380,-9,-5,-4,-3,-8,-2,-6,-7,0
4385,-2,-1,-1,-1,-6,-5,2,12,0
4390,18,0,1,4,9,13,1,4,0
4395,-4,1,2,9,18,8,1,2,0
4400,11,-1,1,-4,-5,2,4,11,0
4405,-10,0,-1,-5,-8,-11,-8,-10,0
4410,-3,-4,-4,-1,-1,-2,1,-2,0
4415,12,0,4,4,0,4,4,-3,0
4420,-5,-2,-2,1,7,5,-2,-6,0
4425,1,-4,-5,-4,6,-4,-3,-1,0
4430,-5,2,-2,-3,-3,5,-3,-3,0
4435,0,-4,-3,-4,-7,1,1,1,0
4440,-1,-3,-2,-1,-8,-18,-7,-2,0
4445,1,3,3,11,12,-6,-2,-3,0
4450,8,2,0,-10,-11,-4,0,10,0
4455,-9,-1,-4,-9,-16,-11,-5,-1,0
4460,-4,-5,-1,-1,0,-3,1,-4,0
4465,3,0,0,-4,-2,3,0,-4,0
4470,-8,-3,-2,6,13,4,0,-4,0
4475,-4,0,4,7,13,9,3,3,0
4480,-1,3,3,2,4,0,1,1,0
4485,0,-1,-5,-5,-9,-10,-5,-10,0
4490,-6,0,-1,-1,1,2,0,-9,0
4495,6,2,2,3,11,12,2,3,0
4500,0,-6,-3,0,3,-3,-2,-6,0
4505,2,8,4,-5,-7,-11,0,-3,0
4510,-4,-8,-12,-6,-16,-8,-2,1,0
4515,-7,-6,-1,-4,-2,-7,-6,-3,0
4520,0,3,5,3,2,12,2,0,0
4525,0,-8,-12,-6,-5,-6,1,5,0
4530,-1,-4,0,-5,-13,-9,-6,-5,0
4535,-5,1,0,1,3,-1,2,3,0
4540,1,3,8,12,22,18,2,-1,0
4545,-4,0,3,-6,0,-2,-4,2,0
4550,-6,-2,-4,5,-13,-6,-6,-7,0
4555,-15,4,-5,1,7,8,4,-3,0
4560,31,7,-2,-8,-8,-12,-2,13,0
4565,-3,-1,2,-3,-1,2,2,-4,0
4570,-2,-1,4,4,13,7,2,-6,0
4575,-6,-3,4,3,-5,-3,-1,-3,0
4580,-10,-2,-7,-5,5,4,3,-3,0
4585,7,0,0,-2,-11,-9,-2,1,0
4590,-4,-3,-1,-2,-7,-7,-5,0,0
4595,5,-4,-6,1,1,-4,-1,0,0
4600,-12,-2,2,-1,3,-1,-3,-9,0
4605,11,5,-2,0,-2,2,2,8,0
4610,-5,-4,-5,-7,-7,4,1,1,0
4615,3,1,11,9,20,9,-1,-6,0
4620,0,2,-4,-2,-5,-6,0,-1,0
4625,-13,-20,-18,-11,-34,-17,-8,-7,0
4630,3,14,11,4,9,1,-2,-4,0
4635,-28,-2,-6,-2,-4,-1,-3,-2,0
4640,24,5,3,2,18,11,4,3,0
4645,10,6,8,16,36,18,7,5,0
4650,-5,-13,-20,-19,-40,-19,-6,-1,0
4655,0,-6,4,-4,-17,-8,-3,-1,0
4660,-17,1,-4,-2,3,-1,-3,-8,0
4665,-11,-6,-9,-13,-16,-6,-3,0,0
4670,15,7,13,12,30,12,5,6,0
4675,4,3,19,14,23,9,6,5,0
4680,-5,-11,-14,-11,-42,-13,-6,-3,0
4685,0,-3,-23,-14,-4,2,-2,-5,0
4690,-8,-6,-18,-1,20,10,-1,-1,0
4695,8,7,30,-1,-10,-7,0,0,0
4700,-5,-10,-13,-14,12,-7,-1,-3,0
4705,-1,-1,15,8,-16,-2,-3,-5,0
4710,-1,-3,-1,3,16,13,3,-2,0
4715,6,-5,-24,-14,-33,-14,-2,4,0
4720,-5,-3,2,3,-24,-12,-4,-3,0
4725,-4,0,0,0,26,3,-6,1,0
4730,1,-4,6,2,19,2,6,7,0
4735,8,8,-3,-1,19,6,1,4,0
4740,-5,2,3,-1,-14,-5,-2,-1,0
4745,-4,-4,3,5,-36,-14,-2,-3,0
4750,1,-3,26,11,25,14,4,1,0
4755,4,8,5,-11,-15,-5,-2,-3,0
4760,-4,4,-4,6,-4,0,-3,-5,0
4765,-5,-5,2,2,16,0,2,-7,0
4770,-4,-12,-47,-19,-38,-6,-5,-3,0
4775,-3,-2,20,14,23,1,-5,-6,0
4780,-4,-4,12,19,71,17,-2,-2,0
4785,-29,11,15,-4,-40,10,11,5,0
4790,35,12,2,-18,-15,-7,-6,6,0
4795,-8,-20,-43,-21,-35,-25,-9,-4,0
4800,0,-6,-9,3,2,0,-1,-6,0
4805,-3,1,19,63,127,29,3,-8,0
4810,-12,9,-2,-23,-92,-7,5,-5,0
4815,-1,-8,-14,-29,-32,-25,-6,-11,0
4820,-10,-2,8,3,54,17,2,-5,0
4825,13,-4,-21,-30,-57,-39,-11,8,0
4830,11,5,2,32,61,13,7,1,0
4835,6,3,16,0,1,14,10,11,0
4840,-10,-2,-7,-14,-62,-8,8,7,0
4845,6,-2,7,4,17,14,4,-5,0
4850,-48,-7,-6,18,43,1,-1,-2,0
4855,13,0,-10,6,-11,0,4,-11,0
4860,22,9,2,-19,-26,-6,-1,-12,0
4865,5,2,-6,-12,-28,-4,3,15,0
4870,-7,-2,12,4,13,-6,-13,-18,0
4875,-15,-2,-9,16,37,6,-5,8,0
4880,-12,0,-3,4,-4,12,4,1,0
4885,9,2,-4,-6,9,3,-4,-9,0
4890,7,0,2,-17,-19,-22,-10,3,0
4895,-7,-8,-6,-8,-28,-6,-15,3,0
4900,6,-1,1,8,15,-3,-14,8,0
4905,-14,-3,0,-7,-21,-3,-8,-1,0
4910,-14,-1,7,12,21,11,0,7,0
4915,15,8,6,11,50,17,3,2,0
4920,-7,-12,-23,-40,-89,-30,-12,9,0
4925,-1,-4,-8,-6,-1,-17,-9,-9,0
4930,0,-9,-7,7,14,9,1,1,0
4935,5,-16,-36,7,15,3,0,-1,0
4940,3,45,66,21,19,13,1,-1,0
4945,-4,-3,4,2,5,7,-3,-2,0
4950,-1,0,1,-5,-21,-15,9,-8,0
4955,4,-13,-42,-14,-28,-7,-10,11,0
4960,-6,-14,6,-6,11,-3,5,5,0
4965,-4,0,-4,-4,-7,-2,-8,4,0
4970,15,11,6,3,5,8,22,-4,0
4975,-23,-9,10,11,25,11,-2,-10,0
4980,23,-22,-23,1,-8,-10,5,-3,0
4985,-2,13,15,-5,-9,9,-6,-3,0
4990,-7,-12,-9,-6,1,-2,-6,-4,0
4995,-1,-4,-23,-6,2,-3,-10,-9,0
5000,-10,4,17,6,-4,-2,-4,-5,0
5005,13,6,25,-4,-2,-7,-21,-7,0
5010,2,-22,-12,-2,-19,-10,-9,5,0
5015,-3,-21,2,-8,-10,-3,0,1,0
5020,-17,5,-10,11,19,3,-5,4,0
5025,14,-11,-30,-2,15,11,5,3,0
5030,3,13,26,-13,-21,-11,-10,-1,0
5035,-10,-7,16,4,-21,-4,1,-7,0
5040,-5,-13,-11,7,27,7,-21,-8,0
5045,12,3,2,-4,9,2,24,8,0
5050,-61,-26,-57,-11,-13,-8,-17,-7,0
5055,59,41,74,8,9,9,24,22,0
5060,0,-5,-7,-1,-13,-4,-3,2,0
5065,1,12,-2,4,10,-4,-1,-6,0
5070,-5,2,11,20,45,13,-10,-17,0
5075,-16,-11,-12,-5,-42,-13,3,-6,0
5080,-31,2,-6,-18,-37,-12,-7,-3,0
5085,35,-8,0,-8,-6,-10,7,18,0
5090,13,2,5,3,14,12,-9,-7,0
5095,-6,11,-11,-2,21,-4,-18,1,0
5100,-16,-14,-16,-2,-7,-6,22,-4,0
5105,-14,2,1,-1,-44,-17,-25,-1,0
5110,34,13,7,3,24,10,10,2,0
5115,-3,6,15,16,45,20,11,-7,0
5120,13,1,-12,-11,-36,-10,-12,8,0
5125,-32,-14,-13,-4,-9,-9,2,-15,0
5130,8,6,13,16,5,4,-1,-4,0
5135,-3,0,-5,-21,-8,-3,9,5,0
5140,6,-4,-8,-13,-1,-14,0,-4,0
5145,-7,5,-6,-8,-10,5,5,26,0
5150,26,-2,7,6,-31,-15,3,11,0
5155,-5,5,-14,-2,37,11,-2,-5,0
5160,-6,3,31,4,0,15,2,-11,0
5165,-13,-8,-11,-3,-2,-4,-6,-9,0
5170,-2,-1,-3,-4,19,4,1,-8,0
5175,-24,0,-1,11,21,0,-13,-5,0
5180,64,8,2,2,-11,12,35,9,0
5185,-18,-12,4,5,-6,-11,-10,-13,0
5190,5,-3,-14,-19,-8,-10,2,13,0
5195,4,7,5,-4,-36,-7,5,-5,0
5200,3,-1,2,1,14,-1,-4,9,0
5205,2,0,5,10,24,15,9,-11,0
5210,-4,-1,-4,-2,-18,-5,-2,-4,0
5215,2,-3,-14,-20,-30,-9,-5,4,0
5220,-9,-3,-2,18,38,12,-5,-10,0
5225,3,-5,-10,-6,12,0,3,-2,0
5230,-7,2,5,-7,-42,-4,-3,11,0
5235,-4,-1,-3,-7,10,-14,-5,0,0
5240,0,1,10,10,-18,-2,-6,-7,0
5245,-14,-5,-16,-20,-44,-20,-9,0,0
5250,1,-1,8,6,22,11,1,-7,0
5255,17,6,12,17,41,24,7,-1,0
5260,-8,1,-9,-11,13,5,-2,15,0
5265,12,-1,-1,-8,-26,-19,-5,-5,0
5270,-15,-3,-2,-11,-22,-15,-3,-1,0
5275,-11,-3,0,9,-15,-5,-2,4,0
5280,-4,1,3,10,39,19,-5,-17,0
5285,-2,2,0,-2,-12,10,9,6,0
5290,15,4,5,4,-3,-5,-2,4,0
5295,-7,-2,3,3,17,5,-4,-1,0
5300,-3,-2,-10,-1,7,-1,1,-1,0
5305,-6,-5,0,-7,-4,-1,-2,1,0
5310,-11,-7,-18,-5,-22,-12,-3,-3,0
5315,9,8,10,0,-1,-2,-3,-6,0
5320,-8,-5,-9,-8,-10,-3,3,-2,0
5325,15,5,7,11,47,23,8,0,0
5330,1,0,2,-6,-3,-1,1,-1,0
5335,-5,-13,-18,-15,-43,-23,-9,3,0
5340,-12,-4,-7,-8,-7,-12,-4,-1,0
5345,4,-1,4,5,5,9,4,-7,0
5350,-33,6,7,-6,9,7,3,-3,0
5355,-6,-4,-3,-4,-20,-6,-2,1,0
5360,-6,-3,-5,5,11,-2,-1,-4,0
5365,23,2,0,7,28,8,2,4,0
5370,4,-1,6,3,-1,3,-2,-5,0
5375,-23,-4,4,-5,4,-1,1,-4,0
5380,-5,2,-2,7,14,10,0,-5,0
5385,-8,-8,-7,-5,-17,-9,1,8,0
5390,7,8,-1,-17,-42,-13,-4,5,0
5395,8,-5,-29,-10,-9,-8,-2,-1,0
5400,15,7,32,5,10,-1,-5,-1,0
5405,-16,1,5,11,12,4,2,-2,0
5410,13,0,2,8,28,8,2,-3,0
5415,-5,-9,-2,3,-8,2,-2,-5,0
5420,-4,-1,-15,-18,-27,-14,-3,0,0
5425,1,-7,-3,-7,-3,-5,-2,-1,0
5430,-22,-3,6,4,15,4,-1,-3,0
5435,4,5,8,12,24,14,2,-8,0
5440,13,2,-27,1,9,-1,3,13,0
5445,2,-5,24,1,-64,-23,-10,-2,0
5450,-13,-3,-10,-10,2,-4,-3,-3,0
5455,13,9,13,2,11,5,1,1,0
5460,2,-1,-2,0,-5,2,0,-1,0
5465,10,11,-3,6,51,16,6,-2,0
5470,-1,-7,-12,-9,-42,-14,-2,10,0
5475,10,-4,-3,-1,-16,-16,-7,1,0
5480,-10,-4,-2,-4,-3,-3,-4,0,0
5485,1,3,7,-5,20,7,0,0,0
5490,0,-4,5,15,11,17,6,-4,0
5495,-7,-7,-7,-9,-3,-5,2,7,0
5500,4,5,5,-3,-8,-9,-5,-1,0
5505,6,-7,-27,0,-3,3,2,3,0
5510,16,16,32,-7,-9,-7,-3,-5,0
5515,-3,-11,-6,0,-14,-1,1,-1,0
5520,14,5,2,3,13,2,1,1,0
5525,-40,0,11,11,21,3,-5,-13,0
5530,16,4,-18,-7,-20,-4,1,14,0
5535,23,0,-1,-6,-11,-8,-2,-1,0
5540,-4,-8,4,-5,-4,-2,0,0,0
5545,-7,-8,-7,4,-6,0,-3,-5,0
5550,-17,-2,2,-1,32,11,2,-2,0
5555,-18,3,8,10,-3,6,2,-4,0
5560,-2,2,-9,2,-4,-12,-6,12,0
5565,10,0,-4,-9,-29,-14,-4,-4,0
5570,2,-10,-8,-1,7,2,-4,-13,0
5575,-7,2,-4,-6,10,0,0,2,0
5580,12,-7,-2,-4,-20,1,-1,-4,0
5585,-9,2,2,1,12,-1,-2,4,0
5590,-5,-3,-4,2,-5,-1,0,-1,0
5595,4,3,-15,2,14,6,1,-10,0
5600,-9,-3,23,15,35,15,4,-13,0
5605,10,-2,-13,-10,-31,-9,-3,5,0
5610,-4,-5,-6,-5,-6,-8,-2,-2,0
5615,7,10,9,-3,-7,-3,-2,5,0
5620,-14,-4,-8,-3,-9,-2,-1,2,0
5625,-3,1,-1,10,44,8,-1,-8,0
5630,7,-7,-17,3,-14,-4,-2,-2,0
5635,-22,-7,-13,-4,-21,-14,-4,-1,0
5640,-6,5,33,-6,-11,-2,-1,-1,0
5645,7,3,-4,0,8,9,3,7,0
5650,13,-4,-5,-2,15,3,-1,4,0
5655,1,0,0,-7,-18,-7,-4,-3,0
5660,8,-2,-18,-4,-9,-7,-2,0,0
5665,-14,-3,-1,-7,4,2,-1,-5,0
5670,-4,4,7,5,8,2,-1,-5,0
5675,2,-5,7,8,11,6,1,5,0
5680,8,-4,-3,3,21,6,3,0,0
5685,4,1,0,1,-21,-5,-2,0,0
5690,-22,-1,-15,-16,-22,-14,-6,0,0
5695,17,-1,0,-9,0,-4,-4,-6,0
5700,1,-10,-12,-2,-11,-5,-2,-2,0
5705,-18,6,13,6,17,7,0,-12,0
5710,-3,-3,3,4,18,7,-1,-10,0
5715,3,7,1,8,-19,1,3,7,0
5720,-13,-3,-10,9,20,5,-3,-7,0
5725,-4,-3,-4,-22,-17,-13,-2,4,0
5730,-3,-8,-9,-11,-24,-14,-7,-7,0
5735,-10,1,17,0,-3,-10,-4,-10,0
5740,-1,-6,-7,-2,-10,-2,-2,1,0
5745,5,10,9,9,10,5,1,-6,0
5750,-3,8,-2,3,17,6,1,-1,0
5755,-4,-3,-9,-6,3,4,2,-4,0
5760,16,0,2,2,-6,-1,2,-1,0
5765,10,-5,0,-2,0,-2,1,0,0
5770,-14,0,1,3,2,1,0,-5,0
5775,0,-7,-5,0,3,2,-3,-7,0
5780,13,-1,6,0,-10,-5,-4,-2,0
5785,-10,1,-15,-7,8,3,1,-1,0
5790,9,7,-1,0,-5,-3,-2,3,0
5795,-3,-11,-5,10,12,7,-1,0,0
5800,-12,1,1,6,20,9,1,-5,0
5805,4,-7,-4,-15,-30,-15,-1,7,0
5810,-15,-10,-7,-17,-39,-29,-14,-12,0
5815,-7,-3,8,-1,11,2,-2,-18,0
5820,-9,11,-22,5,13,8,3,-3,0
5825,10,-3,15,11,15,12,0,3,0
5830,3,4,9,10,42,28,9,20,0
5835,0,0,-1,-3,-29,-18,-3,16,0
5840,-3,-6,-13,-11,-25,-18,-6,-9,0
5845,-8,-12,-10,-14,0,10,0,-11,0
5850,12,6,3,3,13,-7,-1,3,0
5855,-3,-1,-13,-8,-8,13,1,-7,0
5860,-5,1,4,3,-1,-10,-3,-8,0
5865,1,-1,11,-1,-6,-9,-6,7,0
5870,4,-8,-7,-10,7,-3,3,8,0
5875,7,12,49,26,1,-2,0,-2,0
5880,-12,-7,-6,-9,-48,-18,-6,3,0
5885,2,12,0,12,30,10,3,2,0
5890,8,3,5,22,38,25,2,-6,0
5895,0,-1,-13,-30,-11,-20,0,9,0
5900,-4,-9,-5,-10,-17,1,-2,-5,0
5905,0,0,4,6,-1,-13,-5,-10,0
5910,-1,-4,0,-6,-7,17,1,0,0
5915,-3,-2,-11,-4,3,-17,-1,7,0
5920,-9,-11,5,-3,-25,12,1,0,0
5925,-1,-5,-16,-8,2,-4,-2,-1,0
5930,1,1,6,9,11,7,-1,-2,0
5935,-1,1,-4,5,17,4,-5,-7,0
5940,0,15,6,17,46,-15,1,9,0
5945,6,-5,-13,-17,-66,8,0,8,0
5950,-2,-1,2,-10,-29,-42,-6,10,0
5955,-19,-8,1,-5,-10,-7,-9,-15,0
5960,20,5,-14,-4,23,14,6,6,0
5965,-10,2,13,33,43,26,2,-10,0
5970,12,4,6,4,29,17,12,3,0
5975,-3,-4,-4,-16,-46,3,-2,0,0
5980,-10,-2,-3,-2,20,-23,-5,-2,0
5985,-4,-4,-4,-4,-6,14,3,5,0
5990,13,-1,11,-2,-18,-8,-4,6,0
5995,-8,-5,-4,1,16,-5,-4,-1,0
6000,-1,-2,-6,-8,-11,10,-5,-5,0
6005,-22,-5,-7,-14,-31,-24,0,2,0
6010,13,-4,-8,6,5,-11,-7,3,0
6015,15,5,-1,6,16,26,10,21,0
6020,-6,4,-3,3,22,7,-5,-3,0
6025,5,-3,-3,-12,-3,-16,2,3,0
6030,-17,-8,-14,-24,-60,-4,-11,-11,0
6035,-14,-1,4,0,-10,-14,-4,-16,0
6040,2,1,0,0,8,12,-1,-2,0
6045,19,0,0,13,26,8,2,-2,0
6050,-3,5,12,5,19,8,5,-7,0
6055,2,0,3,12,20,17,0,-4,0
6060,-9,-8,2,-15,-30,0,3,-1,0
6065,-3,-1,-3,-9,-7,-29,-13,-4,0
6070,-7,-4,0,0,-10,3,1,-4,0
6075,-4,-3,-22,-4,-26,-47,-9,-5,0
6080,5,2,11,3,20,25,4,2,0
6085,9,5,6,9,25,17,-1,1,0
6090,-5,-7,-11,-15,-25,-22,-4,2,0
6095,-24,-5,-6,-7,-40,-4,-3,-9,0
6100,6,2,-2,-7,0,-12,-4,-5,0
6105,-28,-2,-2,8,1,15,3,-8,0
6110,4,0,2,9,23,-9,-5,3,0
6115,4,0,-2,-8,-1,-9,-4,-1,0
6120,-14,-1,5,-6,-26,-13,-4,-2,0
6125,0,-3,1,4,6,7,-3,-2,0
6130,0,4,-1,10,25,18,4,-3,0
6135,13,5,3,2,13,15,9,11,0
6140,-2,-2,-3,1,-11,-12,-8,-7,0
6145,7,1,-2,-4,-3,-3,2,7,0
6150,-9,-3,-3,-5,-16,-7,-1,-4,0
6155,9,-1,-1,0,11,3,-2,-2,0
6160,2,-4,0,2,5,8,0,-1,0
6165,-3,-4,-2,-7,-14,-17,-3,-1,0
6170,2,2,-1,-1,-9,-15,-4,0,0
6175,-5,0,0,2,18,26,1,2,0
6180,-6,-3,1,1,-1,-2,2,-4,0
6185,-8,-2,-4,-5,-11,-12,-4,2,0
6190,7,-3,-1,3,-2,-2,-4,2,0
6195,-8,0,0,1,14,7,2,-1,0
6200,13,0,-1,-5,-8,-2,2,2,0
6205,5,-1,-1,-1,-9,-15,-6,1,0
6210,-16,-4,-2,-1,7,21,4,-12,0
6215,2,-2,-1,0,4,1,-2,4,0
6220,-2,-5,-2,-6,-14,-17,1,-2,0
6225,6,2,-2,-2,1,2,-1,4,0
6230,1,1,0,2,2,2,-2,5,0
6235,-1,-2,-2,-3,-5,-9,-1,-4,0
6240,-6,-3,1,1,3,5,1,0,0
6245,4,0,0,0,4,11,-4,-5,0
6250,-10,-2,-1,-1,-2,-9,-1,-4,0
6255,-1,-4,-1,-3,-2,-15,0,-2,0
6260,3,-3,-2,-3,0,36,0,0,0
6265,4,6,2,-1,0,-2,4,7,0
6270,-1,0,0,-1,1,10,-4,-2,0
6275,-9,-3,2,4,9,2,-1,-2,0
6280,-2,5,-2,-3,-2,-8,0,-1,0
6285,-1,-2,-1,-4,-6,-7,-2,-7,0
6290,13,-4,-5,2,1,0,0,4,0
6295,-15,0,1,0,2,7,-1,-11,0
6300,12,-1,0,2,0,-5,0,11,0
6305,-7,-4,-1,-3,-2,-11,-3,-7,0
6310,-7,2,0,-3,-4,7,5,8,0
6315,52,0,-2,-2,2,5,1,11,0
6320,-35,-6,-1,0,2,-3,-2,-16,0
6325,34,-1,1,0,-3,-3,1,10,0
6330,2,-5,-1,-1,-5,-10,-5,-7,0
6335,-15,4,-1,3,3,-3,-3,-9,0
6340,5,6,-1,-6,-9,6,3,8,0
6345,-17,-9,1,0,-2,-4,-3,-7,0
6350,16,9,-4,-4,-2,-2,-2,0,0
6355,6,-16,-7,-6,-2,-3,-3,0,0
6360,2,7,4,1,3,-12,-3,2,0
6365,-18,-3,-5,-3,-4,-2,-2,-6,0
6370,-3,-1,3,2,0,-4,2,3,0
6375,-10,-5,-3,-1,2,5,-1,-4,0
6380,22,-5,-3,0,-3,-10,-4,3,0
6385,-2,1,-3,-2,-2,-1,-1,1,0
6390,1,9,4,2,2,1,2,-4,0
6395,16,2,0,-4,0,14,1,1,0
6400,-17,-18,-1,-2,-2,-4,-3,-7,0
6405,2,8,2,0,0,2,-1,0,0
6410,1,-8,-3,-2,-2,-10,-3,-3,0
6415,-50,4,1,-2,-2,-5,-1,-4,0
6420,15,3,2,1,2,0,1,5,0
6425,1,-1,-3,-2,1,1,-1,-6,0
6430,-13,-8,-4,-3,-4,-4,-3,-3,0
6435,11,0,-2,0,-2,0,1,7,0
6440,-9,1,-1,-1,2,0,-3,-2,0
6445,13,1,0,1,-1,-5,0,5,0
6450,-11,-8,-3,-3,-4,-1,-4,-2,0
6455,-3,4,0,-1,0,0,-1,-3,0
6460,6,-12,-3,-1,-2,-4,-2,5,0
6465,-2,2,-1,0,0,1,1,-2,0
6470,2,1,-2,0,3,0,-3,-2,0
6475,2,-3,-2,-4,-11,-10,-4,-7,0
6480,6,6,1,1,-1,0,1,3,0
6485,9,-5,1,-1,-1,-2,0,1,0
6490,-13,3,1,-1,1,2,-1,-4,0
6495,-5,4,0,0,0,-1,1,1,0
6500,-11,-2,-1,-1,0,-4,-3,-6,0
6505,-16,-5,-3,-2,-7,-11,-1,-6,0
6510,6,-2,-1,-1,5,13,1,1,0
6515,7,2,-2,-2,1,-4,0,1,0
6520,-11,-10,-3,-2,-2,0,-3,-4,0
6525,1,5,2,-2,2,0,-1,-1,0
6530,-1,-2,-2,-3,-5,-7,1,1,0
6535,-11,-2,0,1,0,1,-2,-5,0
6540,-5,1,0,1,0,2,0,-4,0
6545,-23,-4,-2,-1,-2,-7,-3,-1,0
6550,2,0,-2,0,-3,6,1,-2,0
6555,-9,-4,-1,-2,-1,0,-2,-6,0
6560,-24,-1,0,0,-1,-5,-3,-7,0
6565,23,-1,-1,-1,1,4,3,8,0
6570,-8,-2,-1,0,-2,-5,-2,-4,0
6575,6,0,0,1,0,-3,-1,1,0
6580,-5,2,-1,-1,0,-1,-2,-1,0
6585,-1,-3,-2,-2,2,4,4,1,0
6590,-1,-4,-3,-2,1,12,-1,0,0
6595,1,-2,0,0,0,-6,-2,0,0
6600,17,4,0,-2,-4,-7,-3,3,0
6605,-4,-1,-3,-2,0,10,-1,-8,0
6610,-7,-4,1,-1,-2,-5,-1,1,0
6615,12,14,1,-1,0,2,1,2,0
6620,-4,-4,-3,0,-1,0,-4,-5,0
6625,-17,-1,-2,-3,-3,-5,-3,-4,0
6630,25,1,-3,-2,-1,-6,0,7,0
6635,-18,-12,-2,0,3,4,0,-4,0
6640,8,11,1,-1,-1,1,3,-3,0
6645,17,2,-1,2,4,4,-1,7,0
6650,-9,-2,1,0,-7,-22,-3,-3,0
6655,-3,-5,-7,-7,-10,-9,-4,-5,0
6660,13,-3,-3,0,1,-1,-1,2,0
6665,4,-7,2,2,1,3,0,5,0
6670,-4,3,3,-4,-4,-4,-5,-6,0
6675,24,1,1,0,1,-2,1,16,0
6680,-17,-4,-1,-7,-7,-8,-4,-3,0
6685,-2,-4,-6,-2,-2,-5,-4,-6,0
6690,-3,-4,1,2,0,5,0,0,0
6695,-8,-1,-3,-1,-2,-1,-3,-4,0
6700,5,5,1,-1,1,3,1,2,0
6705,1,3,4,5,1,1,2,0,0
6710,-6,-3,-7,-8,-5,13,-5,-1,0
6715,-5,-2,3,4,0,2,3,-4,0
6720,0,-2,1,1,2,0,0,-1,0
6725,-5,-1,-1,-4,-3,1,-2,-4,0
6730,-1,0,-1,2,1,-5,-1,-2,0
6735,1,0,-1,0,0,2,1,0,0
6740,-1,-2,-3,-1,0,0,-1,0,0
6745,-5,1,-1,-2,-2,-5,-1,-5,0
6750,-4,-3,-2,-1,-1,-3,0,-1,0
6755,4,0,0,0,1,0,-1,1,0
6760,-2,-2,0,-1,-1,-2,-1,-2,0
6765,-3,-1,-1,-3,-2,1,-2,-2,0
6770,2,-1,-1,1,0,-2,-1,2,0
6775,-2,-3,-1,0,0,1,-1,-2,0
6780,-4,-3,-3,-1,-2,1,-2,-1,0
6785,7,1,0,-2,-2,0,-1,2,0
6790,2,3,0,-2,-1,-1,0,-2,0
6795,-3,-3,-3,-2,-2,-6,-4,-4,0
6800,-16,-13,-3,-1,-1,1,-1,-8,0
6805,-1,5,0,1,0,1,-2,3,0
6810,14,1,-2,2,0,-3,1,1,0
6815,-12,-12,0,0,0,2,0,-2,0
6820,2,3,-1,-1,-2,-2,-2,-2,0
6825,-18,-4,-3,-2,-3,-2,-2,-6,0
6830,-6,-2,-3,-2,0,-2,-1,-3,0
6835,4,-4,-1,0,1,0,-1,0,0
6840,-4,0,0,0,0,-1,-1,-2,0
6845,-2,-4,-2,-2,-3,-2,-2,-2,0
6850,-5,-5,-4,-1,-1,0,-3,-3,0
6855,8,5,0,0,-1,0,0,3,0
6860,-2,-4,-1,-1,-2,-2,-2,-2,0
6865,-25,-1,-3,-1,0,0,-1,-7,0
6870,24,7,3,-2,-1,-1,1,6,0
6875,-9,-2,0,0,-1,-1,0,3,0
6880,14,4,-1,-3,0,-2,-2,3,0
6885,-11,-11,0,-1,0,1,0,-6,0
6890,-15,1,1,0,0,-1,-1,-1,0
6895,4,5,0,-2,0,-1,0,1,0
6900,9,1,0,-3,0,-1,0,1,0
6905,4,-5,-3,-1,-2,-2,-2,-2,0
6910,-7,-3,-1,-1,0,-1,-1,-4,0
6915,14,2,1,-3,0,-1,-3,0,0
6920,-18,-5,-3,-1,0,0,-2,-3,0
6925,4,3,-2,-2,-2,-2,0,-1,0
6930,0,-2,0,1,-1,-1,0,0,0
6935,-7,3,-3,-1,-2,-2,-2,-5,0
6940,0,-2,-1,0,-2,0,-2,-1,0
6945,-1,-1,0,-1,0,0,0,-2,0
6950,15,-4,0,-2,-1,-1,1,1,0
6955,3,-3,-2,-1,-3,1,0,3,0
6960,17,3,1,0,0,0,1,2,0
6965,8,2,0,-1,0,0,0,3,0
6970,-20,-4,-2,0,-3,-3,-3,-6,0
6975,-11,-1,-2,-3,-1,-2,-2,-7,0
6980,-6,-2,-2,-2,-1,-1,0,-3,0
6985,3,0,-1,1,-2,-2,-3,4,0
6990,6,2,-1,-2,1,2,1,2,0
6995,1,-1,-1,0,-2,-2,-2,-1,0
7000,-6,-2,-2,0,-1,0,2,-1,0
7005,-1,-2,-2,-2,-1,-2,-2,-3,0
7010,-11,-2,-2,0,-2,-2,-1,0,0
7015,1,1,1,-1,-1,0,0,-4,0
7020,-4,0,-1,-2,-1,0,0,3,0
7025,3,-2,-2,-1,1,-1,-2,-2,0
7030,-3,-2,0,-2,-1,-1,-2,-3,0
7035,0,-2,-3,0,-1,-2,-2,-2,0
7040,-4,-2,-1,-1,-2,-1,-2,-2,0
7045,0,-1,0,0,-1,0,0,0,0
7050,-5,-1,0,-1,-1,-2,-1,0,0
7055,6,-1,-1,-2,-1,-1,0,-1,0
7060,-6,-2,-1,-1,-2,-1,0,1,0
7065,0,-2,-2,-2,-2,-2,-3,-2,0
7070,-2,-3,-2,1,-1,-2,-1,-6,0
7075,-2,2,0,-1,-1,0,-2,-2,0
7080,8,-3,-1,-1,1,-1,1,12,0
7085,8,15,4,0,0,-2,1,0,0
7090,-7,-2,-2,-1,-2,-1,-1,-2,0
7095,-8,-2,-3,0,-3,-3,-1,-7,0
7100,3,-1,-3,0,-1,-1,-1,-4,0
7105,-8,-8,-4,1,-1,-1,-2,-5,0
7110,20,3,0,-1,0,0,1,10,0
7115,-2,0,-1,-2,-1,-2,0,1,0
7120,-10,-1,-2,-3,-1,-2,-1,-5,0
7125,3,-6,-2,0,0,-2,0,2,0
7130,-9,-2,-2,-1,-2,-2,-3,-5,0
7135,-3,-4,-2,-2,-1,-1,-3,-3,0
7140,3,-1,0,1,-1,-1,-2,2,0
7145,-11,0,-2,-2,-2,-1,-1,-3,0
7150,-5,-4,-1,-2,-1,-1,-1,-1,0
7155,10,-3,-2,-2,-2,0,-1,4,0
7160,-23,9,2,-1,0,0,-2,-4,0
7165,31,11,3,0,0,0,2,5,0
7170,-10,0,0,-1,1,-1,0,-1,0
7175,2,-5,-3,-1,0,-4,-2,2,0
7180,-1,-2,1,0,-2,0,-2,-5,0
7185,-12,-10,-4,-3,-1,-1,-4,-4,0
7190,-26,-3,-4,-2,-3,0,-1,0,0
7195,-7,-11,-3,-1,0,2,-2,-8,0
7200,13,12,4,1,-2,-2,-1,5,0
7205,-4,3,-2,-4,-3,-2,0,-4,0
7210,7,-5,-3,-1,0,0,-3,-5,0
7215,-18,0,-2,-1,-1,0,-3,-3,0
7220,16,3,-4,-1,0,0,-1,4,0
7225,2,-4,0,1,1,0,1,1,0
7230,-8,-3,5,6,2,0,0,-5,0
7235,1,2,-9,-8,-5,-5,-3,-5,0
7240,-8,2,0,-2,-1,-1,-1,-9,0
7245,4,1,-1,0,0,-2,1,9,0
7250,-1,-1,-4,-2,0,-1,0,-3,0
7255,8,-1,0,2,2,0,2,0,0
7260,16,-10,0,-2,-2,-2,-1,4,0
7265,-17,3,-6,-3,-2,1,-3,-8,0
7270,1,6,2,-4,-3,-2,-1,0,0
7275,5,-1,0,1,-1,0,-1,2,0
7280,-4,-7,-5,-2,-2,-1,-1,2,0
7285,-7,-7,0,-1,-1,0,0,-5,0
7290,16,-3,0,-3,0,0,1,9,0
7295,-4,5,2,1,1,-1,-1,4,0
7300,-10,-6,-3,-3,0,-2,-3,-9,0
7305,-11,-1,0,0,-1,0,-1,-5,0
7310,6,1,0,-1,-1,-2,0,4,0
7315,-9,5,1,-1,-1,0,0,-2,0
7320,-4,-4,0,-2,-1,-1,-1,-2,0
7325,-3,-7,-1,1,-1,-3,-3,-1,0
7330,-1,0,-7,-5,-3,-2,-2,-4,0
7335,-2,-3,1,0,-1,-1,0,0,0
7340,6,0,-1,0,0,0,-1,1,0
7345,6,2,-1,-3,-1,0,-2,-1,0
7350,-6,-1,-1,0,-1,1,-2,-2,0
7355,2,-1,0,1,-1,0,0,2,0
7360,-11,-2,-4,-3,-1,1,-1,-4,0
7365,15,-2,-1,0,-2,-1,0,3,0
7370,-2,-1,-2,0,-2,0,-3,-4,0
7375,-1,-1,0,-2,-1,-1,-1,-2,0
7380,-3,-2,0,-2,-3,-2,0,-1,0
7385,-17,-3,0,-3,0,0,0,1,0
7390,11,-1,1,-1,-1,-3,-1,-1,0
7395,-1,1,-1,-2,-2,-1,0,-3,0
7400,-7,-2,-2,0,-1,0,-1,-4,0
7405,-4,-3,-3,-1,-2,-2,-3,-4,0
7410,7,-1,0,-1,-1,-1,0,1,0
7415,4,4,1,0,0,1,0,2,0
7420,-2,-5,0,-1,0,-2,-2,0,0
7425,0,2,-1,-1,-1,-1,0,2,0
7430,-2,-3,-2,-1,-2,-1,-2,0,0
7435,-7,-3,-1,-2,1,-1,-3,-5,0
7440,5,0,-1,-2,0,-1,0,-2,0
7445,4,0,0,1,0,0,0,-1,0
7450,-11,-1,-1,-1,0,-1,-2,-2,0
7455,1,-3,-2,0,-1,-2,-1,-1,0
7460,2,0,0,0,-1,0,-1,1,0
7465,5,-4,-2,-2,-1,-2,-1,-4,0
7470,-6,1,-2,-2,-1,1,1,-2,0
7475,7,-1,0,-1,0,-3,-1,-1,0
7480,-6,-4,-1,2,0,-3,-3,-5,0
7485,5,-1,-1,-1,-2,-2,-2,-4,0
7490,0,-4,-2,-4,-2,-2,-2,-2,0
7495,17,4,0,0,1,1,3,3,0
7500,18,0,-2,0,-1,-1,1,4,0
7505,-14,0,-1,0,-2,0,0,-3,0
7510,1,-1,-1,-2,-2,-1,-1,0,0
7515,-19,-3,-3,-2,-1,-1,-1,-5,0
7520,-5,-1,-1,0,-1,0,-1,-2,0
7525,1,-1,0,0,-2,-1,0,1,0
7530,-6,0,-2,-1,0,-2,-2,-3,0
7535,-4,-2,0,-2,-3,-1,-2,0,0
7540,6,-2,-3,-1,-2,-1,-3,-2,0
7545,-39,-1,-1,-2,-2,-2,-3,-3,0
7550,2,1,-1,-1,1,-1,1,1,0
7555,13,1,0,-2,-1,-1,0,5,0
7560,-5,1,-1,0,-2,0,-1,-5,0
7565,3,-1,-3,-2,-2,0,1,-1,0
7570,-1,-4,-3,-3,-2,-3,-2,-4,0
7575,-18,-3,0,-2,1,-1,-1,-5,0
7580,24,-2,-1,-4,0,0,1,5,0
7585,9,6,2,-2,2,-1,-3,1,0
7590,0,-2,0,1,-1,0,-1,-2,0
7595,-4,-2,-3,-1,-3,-1,-2,0,0
7600,-13,-3,-2,0,1,-2,0,0,0
7605,11,-1,0,-2,0,-2,-1,0,0
7610,2,0,-1,0,-1,-2,0,-1,0
7615,-7,-3,-3,-2,-1,-1,-2,-4,0
7620,-15,-3,-3,-2,-3,0,-3,-6,0
7625,15,1,-1,0,0,1,1,9,0
7630,7,0,-1,-1,0,-2,0,1,0
7635,-11,-2,-1,0,0,-1,0,0,0
7640,1,1,-1,1,-2,0,0,-2,0
7645,-4,-4,-1,-1,-2,-2,-3,-6,0
7650,-16,-2,-1,0,-1,0,-3,-5,0
7655,14,2,0,0,0,0,1,4,0
7660,3,0,0,-1,1,-1,0,1,0
7665,-5,-2,-1,-1,0,-1,-1,-3,0
7670,-3,2,1,-2,-1,0,0,1,0
7675,-5,-3,-2,0,-3,-4,-1,-4,0
7680,-12,-1,-1,-2,-1,-3,-1,-1,0
7685,6,-1,1,0,-2,-1,0,0,0
7690,-2,-4,-4,-2,-2,-3,-1,1,0
7695,-8,-1,-2,0,-3,-1,-2,-4,0
7700,7,-1,0,-1,0,1,-3,0,0
7705,13,1,-2,0,-2,0,0,-1,0
7710,2,0,-2,-1,0,0,-1,1,0
7715,0,-4,-1,1,1,-1,-2,-3,0
7720,2,3,1,1,-1,-2,1,2,0
7725,1,-2,-1,-1,-1,-1,-1,-2,0
7730,-19,-3,-1,0,-2,-1,-2,-9,0
7735,23,1,0,-1,0,0,2,13,0
7740,0,-1,-1,-2,-1,0,-3,-2,0
7745,-7,0,0,-1,0,-2,-1,-3,0
7750,12,-3,0,0,1,0,-2,-2,0
7755,-41,-3,-2,-2,0,-1,-3,-4,0
7760,14,2,0,1,-1,1,2,7,0
7765,-7,-5,-4,-3,-1,-2,-1,-7,0
7770,-19,5,1,-1,-1,-1,-2,-9,0
7775,35,-4,0,-1,-2,-1,-6,5,0
7780,-4,-2,1,-3,0,2,12,19,0
7785,0,-3,-3,-4,-3,-5,-13,-15,0
7790,1,2,0,0,1,3,14,15,0
7795,-19,-3,-3,-3,-3,-7,-28,-31,0
7800,4,10,2,2,1,3,22,26,0
7805,11,-3,-2,0,0,-1,-7,-4,0
7810,-17,-6,-3,-3,-3,-3,-11,-12,0
7815,10,-4,-4,-5,-1,1,24,11,0
7820,9,-18,-5,-2,-3,-7,-24,-14,0
7825,-20,14,5,-2,-3,-7,9,4,0
7830,19,8,-2,-1,1,7,18,29,0
7835,-3,7,3,0,0,0,-1,-13,0
7840,-2,-3,0,0,0,1,19,13,0
7845,-11,-11,-2,-1,0,2,10,-3,0
7850,-1,-8,2,3,1,0,-13,-8,0
7855,-1,4,-4,-4,-2,-3,-1,2,0
7860,-8,-12,-3,-1,-2,-3,-7,-12,0
7865,0,5,0,1,-2,-2,-13,-1,0
7870,4,0,-4,-2,-2,-3,11,0,0
7875,-12,-21,1,3,1,2,5,2,0
7880,-6,-26,-2,-2,-1,-3,-18,-17,0
7885,-5,3,-2,-2,2,1,3,5,0
7890,6,17,-1,-4,-4,-9,-29,-30,0
7895,10,-20,-1,0,-1,2,20,40,0
7900,-15,16,0,0,-1,-2,-5,-10,0
7905,-7,-13,-4,-2,-2,-2,0,2,0
7910,8,-23,0,0,2,0,-8,1,0
7915,-19,-17,-4,-2,-1,-4,-11,-20,0
7920,-4,-28,-8,-6,-3,-4,-5,-6,0
7925,20,59,7,1,0,2,-5,5,0
7930,-12,-7,-4,-3,-3,-5,-2,-3,0
7935,17,18,3,1,-1,0,-5,-4,0
7940,10,7,1,-1,-1,-1,4,3,0
7945,-1,-20,-3,-4,-2,-2,-2,-6,0
7950,-3,-6,-2,-2,-2,-1,4,-3,0
7955,-8,11,-1,-2,-1,0,3,6,0
7960,-3,6,-2,-1,-1,-2,-4,-8,0
7965,-3,-12,-3,0,0,1,3,-1,0
7970,-6,4,-1,-1,-2,-7,-23,-5,0
7975,7,1,0,-1,1,2,8,0,0
7980,-9,9,-1,-1,0,0,1,-7,0
7985,6,-4,0,0,1,2,5,13,0
7990,0,0,2,1,-2,-3,0,-8,0
7995,0,1,-1,-1,-2,-4,-11,6,0
8000,-2,1,-5,-2,0,1,10,14,0
8005,-7,-5,1,0,-1,-3,-5,-12,0
8010,9,1,1,-1,1,3,5,7,0
8015,-3,0,0,0,-4,-5,-7,0,0
8020,-5,10,3,1,-2,0,0,-9,0
8025,3,-7,-4,-1,-1,0,-4,4,0
8030,-2,1,-1,-2,-1,0,6,5,0
8035,0,4,0,0,0,0,0,-6,0
8040,-4,0,0,-1,-2,-2,-8,-7,0
8045,-1,-6,-2,-2,0,-3,-2,-5,0
8050,1,-1,0,-1,-1,-1,7,1,0
8055,-2,2,-1,-1,-1,-1,-1,-5,0
8060,1,4,2,-1,-2,-1,-4,0,0
8065,-3,-6,-2,-1,-1,1,2,1,0
8070,0,2,0,0,0,2,4,1,0
8075,-6,1,-3,-1,-2,1,-2,-5,0
8080,-3,3,-1,-4,-2,-1,-1,2,0
8085,1,-1,-2,0,-2,0,0,1,0
8090,0,-2,-2,-2,-2,0,-2,1,0
8095,-1,0,-1,-2,-2,-2,-1,-6,0
8100,-9,-4,-3,-3,-1,-3,-7,-11,0
8105,-22,-1,0,-1,-2,-3,-1,-5,0
8110,40,1,1,-1,0,-2,0,16,0
8115,16,1,-2,0,2,2,9,10,0
8120,-3,-1,-1,-1,-2,-3,-1,-5,0
8125,3,-5,-3,-1,0,1,0,-3,0
8130,-22,-3,-2,-1,-3,-1,-3,-8,0
8135,-4,-1,-2,-1,-3,-2,-10,-15,0
8140,-23,2,-2,0,2,1,2,9,0
8145,20,-2,0,-1,-2,1,2,5,0
8150,-11,-2,0,-1,-2,-1,1,-7,0
8155,-9,0,-2,-3,0,-1,-5,-8,0
8160,21,-3,0,1,-2,1,-2,2,0
8165,-19,0,0,1,0,-1,0,-4,0
8170,-10,-7,-3,-1,0,-1,-3,-4,0
8175,6,40,4,-1,0,-1,1,5,0
8180,-9,-5,1,0,-1,-2,-5,-7,0
8185,-20,-18,-7,-4,-2,-1,0,-5,0
8190,16,24,6,1,-1,-1,1,6,0
8195,-24,-6,0,-2,-2,-2,-3,-9,0
8200,39,18,4,1,0,1,5,9,0
8205,3,-16,-5,-4,-1,0,1,5,0
8210,-11,-10,-4,0,-2,-3,-6,-18,0
8215,3,-13,-1,0,-1,4,17,38,0
8220,-5,8,3,0,-1,-1,0,-11,0
8225,-7,-10,-4,-4,-2,-3,-3,-6,0
8230,3,-2,-3,-3,0,-2,-5,-2,0
8235,0,-7,-3,0,-1,-3,-12,-5,0
8240,-2,-12,-6,-3,-2,-3,-4,1,0
8245,17,15,4,3,0,1,-1,-1,0
8250,-4,3,2,2,1,1,-6,-12,0
8255,-11,-5,-3,-2,-2,-2,1,-7,0
8260,-6,-5,-4,-2,0,0,-2,0,0
8265,1,3,1,0,0,-2,-7,-6,0
8270,-1,-1,-1,-2,-1,-1,-1,4,0
8275,1,-10,-5,-3,-2,-4,-21,-19,0
8280,-13,0,0,-1,0,2,8,15,0
8285,5,8,4,1,-1,0,4,1,0
8290,2,-12,-6,-6,-2,0,8,3,0
8295,-22,-3,1,1,1,1,5,-5,0
8300,9,0,-1,-2,-1,-1,-6,1,0
8305,4,4,0,2,-1,-2,-11,-6,0
8310,-13,-7,-5,-3,-4,-2,11,7,0
8315,16,3,2,2,-1,0,-1,0,0
8320,-7,-7,-2,0,-2,1,-2,-10,0
8325,25,1,1,-1,-1,3,11,24,0
8330,-4,0,0,0,-2,-1,-4,-4,0
8335,11,-1,0,-1,0,-1,0,2,0
8340,5,-1,-1,2,0,0,0,-2,0
8345,-7,0,-2,1,-2,-3,-11,-9,0
8350,-1,0,0,-1,-1,0,2,7,0
8355,-3,-5,-2,-2,-2,-3,-1,-4,0
8360,-8,1,0,-1,-1,-2,-1,-7,0
8365,-1,-2,0,-1,1,-2,2,1,0
8370,-5,-1,-1,0,0,-1,-3,-3,0
8375,2,-1,2,0,1,0,-2,1,0
8380,10,-6,-4,-2,-1,-2,4,2,0
8385,-7,0,-2,-2,-2,1,0,-9,0
8390,3,-1,-2,0,1,1,2,2,0
8395,0,1,-2,-2,-2,0,-7,-11,0
8400,-7,-7,-3,-2,-2,-1,2,6,0
8405,5,0,0,-2,-1,-1,-1,6,0
8410,-4,-1,1,4,2,-1,1,2,0
8415,18,-3,-2,-1,-3,-3,-3,3,0
8420,-15,-1,-1,-3,-2,-4,-10,-10,0
8425,-13,-5,-3,-3,-4,-2,-7,-4,0
8430,-2,-1,-1,-1,2,-1,-2,0,0
8435,-10,-4,-4,0,-3,0,3,-1,0
8440,3,0,-1,0,-1,-4,0,-4,0
8445,18,4,1,1,-3,-1,2,7,0
8450,3,1,0,-1,-1,4,-3,1,0
8455,-8,-4,-2,-2,0,-14,-5,-3,0
8460,1,-1,0,0,2,4,-5,0,0
8465,-12,-2,0,-2,3,10,7,-1,0
8470,2,0,-4,-7,-13,-4,-2,-2,0
8475,1,0,0,3,7,11,-5,0,0
8480,-8,-2,-2,-1,-6,-17,3,1,0
8485,-3,-3,-4,-2,7,35,9,-3,0
8490,-2,-3,-1,-1,-2,-19,-6,-7,0
8495,-19,1,2,-1,0,2,1,5,0
8500,22,1,1,0,-1,16,-5,-1,0
8505,-5,0,-2,-1,-11,-39,-1,-2,0
8510,5,-1,-1,-2,1,18,-3,2,0
8515,1,-2,-2,0,-1,3,1,-2,0
8520,-11,-1,0,1,-3,-18,6,-3,0
8525,-1,0,-1,1,6,15,-2,-1,0
8530,0,-2,-3,-2,-3,-6,-1,-3,0
8535,-1,1,1,1,1,-5,-1,-3,0
8540,4,1,1,1,7,15,5,0,0
8545,-10,-7,-4,-7,-11,-11,-27,-13,0
8550,-13,-5,-1,-2,1,-5,-7,-4,0
8555,13,4,1,1,0,6,8,1,0
8560,-1,0,-2,-2,-4,-6,-4,-6,0
8565,-21,1,1,2,2,-6,-1,0,0
8570,24,0,1,4,3,3,3,15,0
8575,-7,-5,-2,-2,-1,2,-1,2,0
8580,-7,-1,-2,-3,6,7,-6,-7,0
8585,5,0,-1,-4,-14,-15,0,4,0
8590,-11,-2,-4,-3,-6,-1,-2,-4,0
8595,-3,-3,-1,-1,-4,-9,-1,-4,0
8600,-5,-9,-3,0,2,3,1,-3,0
8605,15,0,4,3,11,9,5,1,0
8610,-7,7,0,-1,2,-3,4,-4,0
8615,-9,-5,-5,-2,-7,-5,-3,-2,0
8620,17,0,-4,-2,2,0,-3,6,0
8625,-11,-3,0,1,0,-3,1,-6,0
8630,11,-2,-1,-4,-4,-1,-4,2,0
8635,-14,-3,-1,-2,0,2,-3,-8,0
8640,-2,-1,-2,-3,-4,-1,-2,-2,0
8645,10,3,0,-1,0,-4,-1,0,0
8650,4,2,4,2,2,3,3,5,0
8655,-8,-22,-9,-5,-3,-4,-5,-6,0
8660,-35,6,4,-1,-6,-6,-2,-11,0
8665,43,4,0,0,2,1,3,15,0
8670,-4,-1,-2,0,1,2,2,-2,0
8675,4,-2,0,0,-1,-3,0,-2,0
8680,-16,-7,-3,-3,-5,-10,-6,-3,0
8685,5,-2,-3,0,2,8,-5,0,0
8690,-15,-2,0,0,2,1,3,-10,0
8695,12,6,0,-3,-2,5,7,14,0
8700,5,0,-1,1,1,2,1,3,0
8705,-20,-1,-2,-3,-5,-8,-2,-5,0
8710,1,-5,-2,-2,2,-4,-6,-2,0
8715,-2,1,0,-1,0,-4,0,-5,0
8720,1,0,0,-1,-2,2,-7,-4,0
8725,-10,-4,-2,-2,-1,-2,2,-4,0
8730,7,-1,-5,-1,-4,-1,0,2,0
8735,-1,4,-1,-1,-2,-1,3,1,0
8740,2,-4,-1,-1,-3,-2,-2,-2,0
8745,6,-1,-1,-1,-3,-4,-3,1,0
8750,-7,-4,-1,1,0,1,-1,-8,0
8755,4,6,4,1,0,-1,-3,0,0
8760,-5,-5,-2,-2,-2,-12,-11,-9,0
8765,-34,-6,-1,-2,-2,5,1,-12,0
8770,37,9,2,-2,1,2,2,15,0
8775,5,6,1,-2,-1,-1,-2,3,0
8780,-5,-4,-2,-1,0,-3,-1,-3,0
8785,-14,-7,-1,-1,1,-4,-4,-6,0
8790,-4,1,0,-1,1,-1,-6,-3,0
8795,3,-1,0,2,-1,0,3,2,0
8800,7,-1,-1,-3,-3,1,-6,-3,0
8805,1,5,2,1,4,1,6,6,0
8810,-8,-5,-2,-2,-3,-2,4,3,0
8815,1,-1,-2,-3,1,0,-3,-4,0
8820,-7,1,0,1,1,4,7,7,0
8825,15,-1,-3,-2,-2,0,-5,-4,0
8830,-16,-4,-3,0,-2,-2,-3,-2,0
8835,9,0,0,-1,-1,-1,0,-6,0
8840,-7,0,-1,-1,-1,3,4,-2,0
8845,9,1,-1,-1,-1,-2,-1,0,0
8850,-5,-5,1,0,-2,-2,0,-5,0
8855,-8,-3,-4,-1,0,1,-4,-4,0
8860,-14,-2,-2,1,1,-1,0,2,0
8865,11,6,-1,-1,-1,0,1,6,0
8870,8,4,1,0,-1,-1,-1,0,0
8875,-7,-3,-2,-1,1,-1,-3,-2,0
8880,6,-2,1,0,-1,1,3,4,0
8885,-9,-1,-2,0,-1,0,-1,0,0
8890,-6,-3,-2,-2,1,1,0,-2,0
8895,4,-4,-2,-2,0,-1,-3,-1,0
8900,4,1,-2,-3,-2,1,1,-1,0
8905,4,2,0,-1,-3,-3,-1,9,0
8910,3,-1,-2,-2,0,-1,-1,-3,0
8915,16,-1,-2,-1,-2,-1,1,5,0
8920,-1,2,-2,-3,0,-2,-3,-2,0
8925,-13,-6,-3,-1,0,-2,1,-3,0
8930,-10,-1,-2,-2,-3,-3,-2,-4,0
8935,-6,1,1,-1,0,-2,0,1,0
8940,4,-3,-3,-1,1,1,0,0,0
8945,-4,-2,-1,-2,-3,-3,-5,-5,0
8950,-4,2,0,1,-2,-1,0,-7,0
8955,-7,-2,-3,-2,-4,-1,-1,2,0
8960,1,-3,-2,-1,-2,-1,-1,-1,0
8965,-7,-2,-3,-2,1,0,-3,-5,0
8970,4,-3,-1,-2,0,-1,-2,1,0
8975,-3,1,0,1,-2,-1,-1,-1,0
8980,1,1,0,-2,-2,1,1,-4,0
8985,7,-3,-1,-2,1,-1,0,1,0
8990,-4,-1,-2,-1,0,-1,-1,-2,0
8995,1,-1,2,0,-2,-3,2,-1,0
9000,2,-3,0,-1,-3,-1,0,3,0
9005,-2,-1,-2,-2,-2,0,0,-4,0
9010,-3,0,-2,0,1,1,0,-1,0
9015,-5,-2,-2,0,-1,1,-3,-3,0
9020,6,2,0,0,0,-3,-2,1,0
9025,-5,-1,0,-1,-2,-1,-2,-3,0
9030,-10,-4,-2,-4,-2,-2,-2,-3,0
9035,12,1,-2,-2,1,1,0,6,0
9040,11,1,-2,0,-1,1,-1,3,0
9045,0,-2,-2,-1,-2,-2,0,1,0
9050,-2,-1,-1,-1,-4,-3,-2,0,0
9055,-7,-2,-1,-1,-1,0,-3,-6,0
9060,-21,-6,-3,-4,-3,-4,-5,-4,0
9065,-6,1,-2,1,0,-1,1,-7,0
9070,44,3,0,0,-1,2,3,8,0
9075,-4,-2,-1,-1,-2,-3,0,-5,0
9080,-2,0,0,0,-1,1,1,0,0
9085,-4,-5,-1,-3,-1,-2,-3,-2,0
9090,-14,-4,0,-2,-3,-1,-2,-4,0
9095,-6,-2,-2,-1,0,-2,-1,-4,0
9100,17,9,1,1,-1,-1,0,2,0
9105,-7,-2,-2,0,-2,-1,-3,0,0
9110,-6,-4,0,-3,-1,-1,-2,-4,0
9115,-3,-6,-2,-1,0,-1,0,0,0
9120,-24,8,0,-2,0,-1,-1,-5,0
9125,-6,-1,0,-1,0,1,0,-4,0
9130,12,1,1,-1,-1,-2,0,3,0
9135,-9,-3,-1,0,-2,0,-2,-4,0
9140,0,-7,-2,-1,-1,1,0,-1,0
9145,2,-1,-1,-1,-2,-3,0,-1,0
9150,-12,1,-2,0,-1,-2,-1,-3,0
9155,-7,-3,0,-2,-3,-2,-2,-4,0
9160,5,1,-1,-1,0,-1,0,0,0
9165,5,-1,-1,-1,0,0,-1,3,0
9170,-17,-4,-1,-2,0,-1,-1,-5,0
9175,13,4,-1,0,-1,-2,-1,2,0
9180,-6,-5,-3,-1,-1,2,0,-6,0
9185,2,1,-2,-2,-3,-1,-3,2,0
9190,-4,-2,-2,0,-1,-1,-2,-3,0
9195,-15,-1,-1,-2,-1,1,-1,-3,0
9200,14,0,0,0,-2,-1,0,4,0
9205,-1,-1,0,-1,-1,-2,0,-1,0
9210,1,-2,-2,0,0,0,-3,1,0
9215,-1,0,0,0,-1,0,0,-1,0
9220,-3,-3,-2,-2,-1,0,-1,-2,0
9225,3,-1,-1,-1,0,0,-1,1,0
9230,-1,0,-1,-2,-3,0,-1,-2,0
9235,-2,0,0,0,0,-2,-1,-2,0
9240,3,-1,0,-1,0,1,-2,2,0
9245,-3,-2,-1,-1,-1,0,-3,-3,0
9250,-9,0,0,-2,0,-1,0,2,0
9255,8,0,0,-1,1,-1,1,2,0
9260,-2,-3,-1,-1,-1,-5,-2,-4,0
9265,0,-1,-1,-2,0,3,0,-1,0
9270,-9,-3,-2,0,-1,-1,-2,-5,0
9275,19,2,0,-1,0,1,1,8,0
9280,0,2,0,0,-2,-1,-3,3,0
9285,-8,-3,-1,-2,-1,-2,-2,-2,0
9290,-7,-2,-1,0,1,-1,-1,-1,0
9295,17,-1,-1,-2,0,-1,0,2,0
9300,-2,-5,-1,-3,-2,-1,-1,-4,0
9305,-7,-1,-1,-2,-2,-1,-1,-3,0
9310,8,-1,-1,-2,-1,0,0,2,0
9315,-27,-3,-1,-1,-1,-3,-3,-8,0
9320,28,2,-1,1,-2,0,-1,8,0
9325,8,0,-1,1,0,-6,1,1,0
9330,5,0,0,0,-1,4,-2,2,0
9335,-14,-2,-2,0,-1,-1,-2,-2,0
9340,-12,-4,-1,-2,-2,-3,-3,-5,0
9345,0,-1,-1,-2,-1,-4,-2,2,0
9350,1,-1,1,0,-1,-2,1,-2,0
9355,-1,-2,-1,-2,-1,-1,-3,-4,0
9360,-16,-2,-1,0,1,0,-1,-4,0
9365,1,-1,-1,-1,-2,-2,-1,2,0
9370,8,1,-2,0,1,-2,0,0,0
9375,5,0,-2,1,-2,1,0,5,0
9380,-9,-6,-2,-2,-3,-1,2,-7,0
9385,2,-2,-1,-1,-3,-3,-2,-3,0
9390,-4,2,-1,-3,-1,1,-2,-1,0
9395,-10,-5,-3,-2,-3,-4,-3,-4,0
9400,8,-2,-1,-2,0,0,-2,-1,0
9405,7,0,0,0,-1,0,-1,-2,0
9410,-6,-1,0,-2,-1,-2,1,-2,0
9415,9,0,-2,-2,0,0,1,1,0
9420,-7,-2,-1,-1,0,-2,-3,-1,0
9425,-1,0,-1,-2,-1,1,0,-1,0
9430,-5,0,-2,-1,0,-3,0,-2,0
9435,-4,-1,0,0,-2,-2,-2,-6,0
9440,5,1,0,-1,-2,-1,1,6,0
9445,-6,-1,-2,-1,-1,-1,-2,-3,0
9450,17,-1,0,0,-1,0,0,5,0
9455,-2,-1,-1,-2,-1,2,1,0,0
9460,-2,-1,0,-3,-3,-4,-3,-2,0
9465,-8,-1,1,-1,-1,-1,-1,-2,0
9470,-7,1,3,-1,0,2,1,0,0
9475,-12,-4,-6,-1,-2,-3,-3,-7,0
9480,8,5,0,1,-1,0,2,1,0
9485,13,-2,-2,-2,-1,2,3,4,0
9490,-6,0,3,-2,-1,-3,-2,-4,0
9495,7,-6,-4,-1,-4,-3,-3,-2,0
9500,-16,-3,-1,0,0,0,-2,-6,0
9505,-8,-1,-6,-3,0,-1,-2,-2,0
9510,15,1,-1,0,-1,-1,0,1,0
9515,-5,-1,0,-1,0,1,-1,0,0
9520,-1,1,-6,-4,0,-3,-3,-2,0
9525,-4,2,2,-1,1,0,1,-1,0
9530,1,-3,-3,-3,-2,-2,-2,-2,0
9535,-8,0,1,-2,-3,-2,-2,-3,0
9540,7,-1,1,0,1,-1,1,3,0
9545,1,-4,-2,0,-2,-2,0,-4,0
9550,-1,-1,-2,-2,-1,-1,-3,-2,0
9555,-18,-3,-3,1,0,-2,0,0,0
9560,14,2,-2,-1,-1,0,0,1,0
9565,20,2,-1,0,-1,-1,0,3,0
9570,-21,-3,-2,-2,-1,-1,-2,-2,0
9575,11,-4,1,-1,1,2,2,2,0
9580,-9,0,9,6,6,6,4,1,0
9585,-13,-7,-6,-6,-8,-9,-10,-7,0
9590,-4,-1,-2,-3,-4,0,0,0,0
9595,14,-1,1,-2,-2,1,1,4,0
9600,2,0,0,-3,-1,1,1,-1,0
9605,0,0,5,3,2,2,2,0,0
9610,-5,4,0,1,0,-1,-1,-5,0
9615,-2,-4,-3,-3,-2,-5,-1,-3,0
9620,-4,-7,-6,-4,-2,-3,-3,-2,0
9625,-5,-1,0,0,-2,-1,1,2,0
9630,-5,-7,-4,-4,-3,-3,-3,-3,0
9635,4,8,4,0,1,2,1,3,0
9640,-3,-5,-3,-5,-1,-4,-3,0,0
9645,-7,3,1,-1,1,1,-1,-3,0
9650,0,-4,-3,-1,2,-2,0,0,0
9655,5,2,0,0,-1,0,-2,2,0
9660,-2,7,0,-3,-2,-3,-3,-3,0
9665,-8,-3,-2,-1,-1,0,-2,-2,0
9670,-1,-1,-2,1,-1,-1,-2,-2,0
9675,11,-2,-2,-1,1,-1,0,3,0
9680,-3,-3,-3,-2,-2,-1,-2,-3,0
9685,-3,0,1,0,0,1,1,3,0
9690,-3,-2,1,1,-1,-2,-1,0,0
9695,-10,-1,-2,-1,-1,-2,-3,-5,0
9700,1,1,-1,-1,0,-1,0,-1,0
9705,15,-1,-3,-1,0,0,-1,3,0
9710,3,1,0,0,0,-2,-2,1,0
9715,-6,-1,-2,-1,-1,0,1,-4,0
9720,-2,-2,-1,-1,-2,-3,-3,-2,0
9725,-1,0,-1,-2,0,0,-1,-3,0
9730,-2,2,-1,-2,-1,-1,0,-1,0
9735,0,-10,-3,-3,-2,0,-3,-2,0
9740,-5,-1,0,1,-3,-1,-1,0,0
9745,-3,-1,-2,-1,0,-1,-1,-1,0
9750,-14,-1,0,-1,-1,1,-1,1,0
9755,2,5,1,1,0,0,-1,1,0
9760,-8,-3,-2,-2,-2,-1,-1,-2,0
9765,2,-3,0,0,-2,-1,-1,0,0
9770,-1,-3,-3,-2,-4,-2,-2,-5,0
9775,-3,1,1,-1,0,-1,-1,1,0
9780,2,-3,-2,-1,0,-1,-3,-1,0
9785,-11,0,0,-1,0,1,0,0,0
9790,6,-3,-2,-1,-1,0,-2,0,0
9795,-6,-1,-2,0,-1,0,0,-1,0
9800,-8,-1,-2,-1,-1,-1,-1,-3,0
9805,8,1,0,1,0,1,-1,3,0
9810,15,-3,1,-1,-2,-2,-1,1,0
9815,-20,2,1,-2,0,-1,0,1,0
9820,-7,-2,-1,-1,-3,-3,-3,-7,0
9825,-8,-3,-1,-2,0,0,1,-2,0
9830,0,-1,0,-2,-2,0,-2,0,0
9835,3,-2,-2,-1,-3,-2,-2,-2,0
9840,6,0,-1,0,1,-2,1,3,0
9845,-3,-4,-2,0,0,0,-2,-3,0
9850,0,-2,-3,0,0,-2,0,-1,0
9855,3,1,-1,-1,-1,0,0,-2,0
9860,4,-1,0,-1,-1,-2,-2,2,0
9865,4,0,1,1,0,-2,0,-2,0
9870,-6,0,-2,2,-2,-2,2,-1,0
9875,3,-1,-1,-2,0,-1,-2,-1,0
9880,-1,-4,-2,-4,0,-1,-1,-1,0
9885,-5,-2,-1,-2,-4,-4,-2,-2,0
9890,3,0,-1,1,1,0,1,2,0
9895,-1,-2,-4,-3,-3,-1,-3,-3,0
9900,-4,0,0,-1,-1,2,1,0,0
9905,-1,-1,-2,0,0,1,-3,-2,0
9910,-3,-1,1,-2,-1,-1,-1,0,0
9915,4,-1,2,1,0,1,0,0,0
9920,-3,0,-4,-7,-1,-1,-1,-1,0
9925,-1,-2,0,-3,-3,0,-2,-2,0
9930,0,1,0,1,-1,-1,1,0,0
9935,-5,-2,-4,-5,-3,-1,-4,-3,0
9940,7,5,1,5,0,-2,-2,0,0
9945,-4,-3,-5,-2,-2,-3,-2,-3,0
9950,-4,-2,-4,-3,0,1,-2,-2,0
9955,-3,-1,1,2,-2,-9,-1,1,0
9960,-6,-5,2,0,3,17,2,-3,0
9965,4,4,-7,-1,0,-2,-3,1,0
9970,-2,-5,2,-2,-2,-3,-2,-6,0
9975,-5,-4,1,3,2,3,4,1,0
9980,4,2,-1,-3,1,-1,1,1,0
9985,-17,-1,-1,-2,-4,-1,2,0,0
9990,0,-2,1,-1,1,2,-1,0,0
9995,3,2,0,-1,-5,-5,0,-2,0
10000,3,-5,-4,-2,3,4,-1,1,0
10005,-4,-2,1,2,1,-2,-1,-1,0
10010,-6,-5,0,-3,-2,-3,-3,-4,0
10015,-4,-3,-1,-2,0,1,-3,-5,0
10020,12,-1,-1,-2,-5,-7,0,5,0
10025,-6,0,-1,-4,1,-1,-1,-6,0
10030,5,3,-1,-1,-2,-1,0,1,0
10035,13,6,8,3,3,-2,2,4,0
10040,-9,-2,-9,-2,-5,-5,-3,-6,0
10045,1,-4,-2,-1,-1,1,-4,-4,0
10050,19,0,0,2,-1,-3,-1,6,0
10055,4,0,-1,-2,2,1,-1,3,0
10060,1,2,1,2,-2,-6,2,0,0
10065,-10,-2,0,-1,-2,0,0,-3,0
10070,0,0,-1,-2,-2,1,-1,1,0
10075,1,0,-4,-1,1,-1,-1,0,0
10080,-5,-4,2,-2,-3,-2,-3,-2,0
10085,-7,-4,0,-2,-1,-2,-1,-1,0
10090,-4,1,-2,-2,0,0,-1,-1,0
10095,2,-2,-3,-1,-2,0,-3,0,0
10100,-2,0,0,-2,-1,-2,-1,-3,0
10105,1,-1,1,1,0,0,0,0,0
10110,-5,0,0,0,-2,-4,-1,-1,0
10115,-11,-2,-3,-2,-2,-1,1,-5,0
10120,8,-2,0,0,2,-1,-3,0,0
10125,6,1,-1,-2,-1,-1,-1,4,0
10130,-5,-2,-2,-3,-2,-1,-1,-3,0
10135,-1,-3,-2,-1,-1,-1,-2,-3,0
10140,-7,-2,-1,-2,-1,0,1,-2,0
10145,-6,-2,-1,0,-1,-1,0,-3,0
10150,6,-1,-1,-3,0,0,-3,4,0
10155,-10,-3,-1,-3,-1,0,-1,-5,0
10160,11,1,-1,-1,0,-1,0,4,0
10165,-14,0,0,-2,-1,0,-2,-1,0
10170,-1,-1,-1,0,0,-1,-1,-4,0
10175,-3,1,-2,-2,-1,-2,-1,0,0
10180,-7,0,0,1,0,-2,-1,-1,0
10185,9,-1,0,0,-3,-3,-1,0,0
10190,-7,-3,-3,0,-2,0,-2,-3,0
10195,-5,-1,-3,-3,0,0,-3,-1,0
10200,13,-2,0,-1,-2,-2,0,3,0
10205,5,-1,-2,0,0,-2,-2,-1,0
10210,-19,-2,-2,-2,0,-2,0,-3,0
10215,3,-2,1,-2,-1,-1,0,-4,0
10220,7,1,0,-3,-2,-1,1,3,0
10225,4,-2,0,-1,-1,4,-1,-2,0
10230,-4,0,-1,0,0,1,1,-1,0
10235,0,-1,-2,-2,-3,-1,-3,-2,0
10240,-9,0,-1,0,0,-3,-3,-3,0
10245,5,-1,0,0,0,-1,0,1,0
10250,-6,-4,-3,-2,-2,-3,-1,-5,0
10255,3,3,5,0,-2,-3,-1,6,0
10260,-7,-2,-1,1,-1,-1,-1,-5,0
10265,5,2,-3,-2,1,1,0,3,0
10270,-3,-4,-5,-2,-3,-2,-4,-2,0
10275,-1,-3,-4,-1,-1,0,0,-4,0
10280,0,-3,-1,-2,-2,1,-2,-2,0
10285,15,-1,1,-1,0,-2,-2,1,0
10290,-13,-1,0,0,0,-1,-1,-4,0
10295,26,3,-1,0,-3,-2,0,9,0
10300,-10,-2,0,-1,-2,0,-1,-3,0
10305,-4,-3,-2,-2,0,-3,0,-3,0
10310,6,0,0,-2,-1,1,-2,-1,0
10315,-10,-4,-3,-1,0,-2,0,-3,0
10320,4,0,-1,-2,-1,2,1,4,0
10325,3,-1,-2,-1,-3,-3,-1,-1,0
10330,-6,-3,-1,0,-1,-3,-2,0,0
10335,-5,-2,0,-1,1,2,-2,-3,0
10340,-7,-2,-3,-2,-1,-1,-2,-2,0
10345,-8,-1,0,2,1,-2,-1,-2,0
10350,5,0,1,0,0,1,-1,0,0
10355,-7,0,-3,-4,-2,-1,-2,-1,0
10360,-2,-1,-4,-4,-1,-2,0,-3,0
10365,-4,-2,-2,-4,-3,-2,-1,-1,0
10370,-5,-2,-2,-1,-1,-2,-1,-5,0
10375,-7,1,1,1,-1,2,1,1,0
10380,6,-2,-1,0,-1,-1,0,2,0
10385,-4,0,-2,-2,-2,-2,-2,-1,0
10390,5,0,-2,-1,-2,-3,-2,1,0
10395,-11,-4,-3,-1,1,-1,-4,-5,0
10400,-15,-2,0,0,1,4,-1,-4,0
10405,16,2,-1,-1,-1,0,-1,4,0
10410,10,0,1,-1,-1,-1,1,4,0
10415,-19,0,1,1,-2,2,-1,-4,0
10420,0,-1,-1,-1,-1,-4,-2,1,0
10425,5,-1,-1,-2,-1,1,-1,2,0
10430,2,-1,-3,0,0,0,0,-1,0
10435,9,-2,-1,-1,-1,-3,-1,-1,0
10440,-8,-3,-2,-1,-1,-2,-1,-3,0
10445,-14,-3,0,-2,-4,-1,-1,-5,0
10450,9,-1,-1,-1,-1,-3,-2,3,0
10455,-4,-4,-3,-1,-1,1,-1,-5,0
10460,-7,-1,-2,-1,-2,0,-1,-2,0
10465,8,-1,0,-1,-1,0,0,2,0
10470,-6,-1,-1,-1,0,0,-1,-3,0
10475,4,-3,0,0,-1,0,0,-1,0
10480,1,-1,0,-2,-1,-2,-2,-2,0
10485,-12,-2,0,-2,0,0,-1,-2,0
10490,-4,0,-1,-2,-3,0,-2,-1,0
10495,5,-2,2,-1,-1,-2,-1,1,0
10500,3,0,0,0,-1,2,2,-1,0
10505,-2,-1,-2,-1,-1,-3,-1,-3,0
10510,0,0,-1,-3,-1,-1,-1,2,0
10515,1,0,-3,0,-2,0,-1,-2,0
10520,-3,0,-3,-1,-1,-2,-1,-2,0
10525,-5,0,0,1,0,0,-1,0,0
10530,14,0,0,-3,0,-1,1,5,0
10535,4,-2,0,-1,0,-3,-2,0,0
10540,-4,-2,0,-3,-4,-4,-4,-4,0
10545,-3,-1,-1,1,-1,-2,-4,-3,0
10550,-3,1,-1,0,-2,-1,1,-1,0
10555,-4,-2,-1,-1,-1,2,-1,-1,0
10560,7,-1,0,1,1,1,-1,3,0
10565,-1,-2,0,-4,-2,-1,-3,-2,0
10570,-6,-3,-1,0,0,0,-3,-1,0
10575,-5,1,-2,-2,-1,-1,0,-2,0
10580,-7,0,-2,0,-2,-3,-3,-2,0
10585,-4,-1,-1,-1,1,2,0,-1,0
10590,0,0,-2,0,-1,0,-2,0,0
10595,-2,-1,-3,-2,0,-4,-1,-1,0
10600,1,-3,0,-1,-1,-1,-2,0,0
10605,0,0,0,1,1,-1,-1,0,0
10610,-12,-1,-1,0,-1,-1,-1,-4,0
10615,5,-1,-3,-1,-1,-1,-1,3,0
10620,-3,0,1,0,1,-1,-2,-3,0
10625,4,-1,-2,-2,0,-1,1,2,0
10630,-4,-2,-1,-3,-4,2,-1,-2,0
10635,1,0,-1,0,1,-1,1,-1,0
10640,-1,0,-1,-1,-2,-3,-1,-2,0
10645,-2,-2,-1,0,-1,-1,0,-2,0
10650,0,0,-3,-2,1,-1,0,-1,0
10655,-1,-1,-2,-1,-1,-1,-2,-2,0
10660,-2,0,-2,-1,0,0,0,-1,0
10665,-1,0,-2,-2,0,-4,0,-1,0
10670,-2,0,0,-1,2,-1,-2,-1,0
10675,1,-1,1,-1,-1,1,0,-1,0
10680,-1,1,-1,-1,0,0,-2,-2,0
10685,1,-1,-2,-2,-1,-2,-2,-1,0
10690,-8,-1,-1,-1,-2,-4,-1,-2,0
10695,3,1,-1,-3,-1,0,0,-1,0
10700,-1,-1,-1,-2,3,3,-1,-2,0
10705,0,-2,0,0,-1,2,-1,-1,0
10710,-4,-1,-1,-1,0,-3,-1,-3,0
10715,12,0,0,-1,-2,-4,-1,6,0
10720,-2,-2,-2,1,-1,0,-1,-1,0
10725,-3,-2,0,-1,-1,-1,-1,-2,0
10730,2,0,0,0,0,-2,-2,-2,0
10735,-5,-3,-1,1,-1,-1,-1,-2,0
10740,2,-1,-1,0,-1,-2,-1,0,0
10745,-1,0,-2,-3,-1,-1,1,1,0
10750,-3,-2,-2,-2,-1,-2,-2,-1,0
10755,-2,-1,0,-2,-1,-1,-2,-2,0
10760,-3,-1,-2,-2,-1,-1,0,-3,0
10765,-5,-1,-2,-1,-1,0,0,-1,0
10770,13,1,-1,1,0,1,1,4,0
10775,-3,-3,-1,-1,-1,0,-2,-2,0
10780,0,-1,-1,-2,-2,1,-2,0,0
10785,-2,0,0,0,-1,-2,-3,0,0
10790,-2,-3,-1,-2,-2,0,-2,-4,0
10795,0,2,0,-2,0,-2,-1,-1,0
10800,0,-1,-1,-1,-1,0,1,1,0
10805,4,1,0,-2,-3,0,-1,-1,0
10810,-2,-1,-2,-2,0,-1,-2,-2,0
10815,-5,-2,-2,-1,-1,-1,-2,-3,0
10820,-3,-3,0,0,1,-1,-1,-2,0
10825,-2,0,0,2,0,-1,-1,-3,0
10830,-1,-1,0,-1,-1,-2,0,0,0
10835,-1,-1,-1,-1,-2,-1,-2,-3,0
10840,0,0,0,-2,-2,-3,0,-1,0
10845,-3,-1,-1,-1,-1,0,-2,-1,0
10850,-7,-1,-1,-1,-2,-2,-1,-2,0
10855,3,-1,0,1,0,-3,-1,2,0
10860,-2,0,-1,-1,0,0,1,-2,0
10865,2,-1,-1,-2,-2,-2,0,1,0
10870,-1,0,-2,-1,-2,1,0,-1,0
10875,-2,-1,-2,-2,-2,-1,0,0,0
10880,2,-2,0,1,-1,-1,0,0,0
10885,-4,-2,-2,-1,0,-1,0,-4,0
10890,-7,-2,0,0,-1,-1,-1,-5,0
10895,-2,-1,-2,-1,-1,1,1,3,0
10900,5,0,-1,-4,-2,-3,-1,0,0
10905,0,-1,-2,-1,1,0,1,1,0
10910,-5,-2,0,-3,-2,-2,1,-6,0
10915,-9,-2,-2,0,0,1,-2,-5,0
10920,14,1,-1,-1,-4,-1,-2,6,0
10925,-1,-1,-3,-1,-1,-3,-2,-3,0
10930,2,-1,-1,-1,1,-1,-1,1,0
10935,1,-1,0,-1,-1,-1,-1,-1,0
10940,-5,-1,-1,-1,0,0,-2,-3,0
10945,-1,-3,0,-2,-1,-1,-2,0,0
10950,3,1,-1,0,-2,0,0,1,0
10955,-1,-1,-1,-2,0,-2,-1,-3,0
10960,-4,0,-2,-1,-1,-1,-1,-2,0
10965,-2,0,-2,-1,0,-1,-2,-1,0
10970,-1,-1,-3,-1,0,-1,-2,-2,0
10975,0,0,-1,0,-2,0,0,1,0
10980,-2,-1,0,0,0,0,-3,-2,0
10985,-1,0,-1,0,-1,1,-1,-2,0
10990,-4,-3,-2,-1,-2,-3,-2,2,0
10995,1,-2,-1,-1,2,1,-1,-1,0
11000,-3,-2,0,-2,-3,0,0,-2,0
11005,0,-2,1,-1,-2,-1,1,1,0
11010,1,-2,0,-1,-1,-2,-1,-1,0
11015,-6,0,-1,-2,-2,-2,0,-1,0
11020,-2,-1,-1,-1,0,-3,-2,-3,0
11025,0,-2,-1,-2,-1,-1,-1,-2,0
11030,1,-1,-1,-1,-3,-1,0,0,0
11035,-2,0,-1,1,-1,-2,-4,-3,0
11040,-8,0,-2,0,0,1,2,2,0
11045,1,-1,-1,-2,-1,-3,-1,-1,0
11050,-1,-3,0,-1,-1,0,-3,0,0
11055,2,-2,0,0,-1,-1,0,-1,0
11060,-12,-4,-3,-2,0,0,-2,-6,0
11065,14,1,1,0,-2,-2,0,5,0
11070,1,0,0,1,-1,0,-1,0,0
11075,-4,-2,-1,-2,0,-2,0,1,0
11080,-3,-2,-1,-3,-3,-4,-2,-4,0
11085,-5,-1,0,0,1,1,1,-1,0
11090,1,2,2,-1,-1,0,2,-2,0
11095,4,0,-1,-2,-3,0,-2,1,0
11100,2,-3,-2,0,1,-1,0,0,0
11105,0,-1,-2,-2,0,-1,-1,-3,0
11110,-2,-2,-3,-2,1,-2,-2,0,0
11115,-2,-2,-1,-1,0,-2,-3,-2,0
11120,-5,0,-2,-2,0,2,0,1,0
11125,-9,-1,0,0,-2,0,-2,-2,0
11130,0,0,-2,-1,0,-1,1,-1,0
11135,0,-2,1,-2,-2,-3,1,0,0
11140,4,-1,1,-1,-1,-2,-2,-3,0
11145,-4,-2,0,-1,1,0,0,-1,0
11150,0,-1,-2,-1,-1,0,2,0,0
11155,0,0,-3,-1,-1,-2,0,-1,0
11160,-2,-1,-2,0,-1,1,-1,0,0
11165,-2,-1,0,-2,-1,-1,-3,-3,0
11170,2,-3,-1,-2,-2,-3,-3,-1,0
11175,-3,-2,-2,0,-1,-1,-3,-2,0
11180,-1,0,-2,1,1,-2,1,1,0
11185,-1,-2,-1,-1,-2,0,-2,0,0
11190,-3,-2,-2,-3,-2,0,-2,-4,0
11195,6,-1,-1,-3,-2,-2,0,2,0
11200,0,-1,-1,-3,0,-1,0,1,0
11205,-1,-1,-3,-1,-3,0,-1,0,0
11210,-2,2,1,0,1,-2,-1,-2,0
11215,-5,-1,-1,-1,-1,0,1,-3,0
11220,2,0,-1,0,-1,1,-1,0,0
11225,0,-1,-1,-1,1,-1,0,-2,0
11230,-2,-2,-1,-1,-2,0,-3,-2,0
11235,-1,0,-1,-1,-2,0,-2,-1,0
11240,0,-1,-2,-2,-1,-2,-2,0,0
11245,-3,-2,-1,0,-1,-2,-1,-3,0
11250,-1,-2,-1,0,0,-1,-2,1,0
11255,0,-2,0,0,-1,-1,1,-1,0
11260,0,-3,-1,-3,-1,-1,-2,-2,0
11265,-2,1,-3,-3,0,-2,-1,1,0
11270,-1,0,-1,2,0,-1,-2,1,0
11275,-1,-1,-2,-1,1,3,0,0,0
11280,-3,-2,-2,0,-1,-2,-2,-2,0
11285,0,0,-1,-1,-4,0,1,-1,0
11290,-2,-1,0,-1,-1,0,-1,0,0
11295,-2,-3,-1,0,-1,-2,-3,0,0
11300,1,-1,0,0,0,-2,0,-2,0
11305,-14,-1,0,-1,0,-3,-2,-3,0
11310,5,-2,-2,-1,-1,-1,0,0,0
11315,-1,-1,-1,-1,-1,0,-1,0,0
11320,-2,-2,-1,0,-2,1,-1,-1,0
11325,-2,-1,-2,-2,-3,-1,-1,-2,0
11330,-1,-1,-1,-3,-1,0,0,1,0
11335,-2,-1,-1,-2,-1,-3,-3,-2,0
11340,-1,-1,0,-1,-2,-4,-2,-1,0
11345,0,-1,0,-1,0,1,0,-2,0
11350,-2,-2,-1,-2,-2,-2,-3,-2,0
11355,-1,0,-3,-3,-6,1,0,-1,0
11360,-4,-1,-1,-2,-1,-4,-1,-2,0
11365,2,-1,-2,0,0,-3,-1,-2,0
11370,-2,0,-1,-1,0,-1,0,-1,0
11375,-2,-1,-1,0,1,-1,-1,-1,0
11380,-1,-2,-1,-1,-3,-1,-1,0,0
11385,1,-1,-1,0,-1,-1,-3,1,0
11390,-2,-1,0,-2,-1,0,-1,-1,0
11395,-1,0,-1,-2,-1,-2,-2,-2,0
11400,0,0,0,-2,-1,1,1,1,0
11405,3,-1,-2,-1,0,-2,-2,-1,0
11410,-2,0,-1,-1,-1,0,-1,-2,0
11415,-5,0,0,-1,-2,-2,-1,-3,0
11420,0,-1,-1,0,0,-1,0,1,0
11425,0,-2,1,-2,-2,-3,-1,-1,0
11430,-1,-2,-2,0,-3,0,-1,-1,0
11435,1,-2,-1,-2,0,0,0,0,0
11440,-1,0,-1,-2,-2,-4,-2,-3,0
11445,0,0,-1,0,-1,0,3,0,0
11450,2,-1,1,-1,0,0,1,1,0
11455,-1,-1,-1,0,-1,-2,-1,0,0
11460,1,-2,-1,0,1,0,-1,0,0
11465,-1,-2,0,0,-1,-2,-2,-2,0
11470,-2,-1,0,-1,-1,-2,-2,0,0
11475,0,-2,0,-2,0,2,0,-1,0
11480,-3,-2,0,0,-1,0,-1,-3,0
11485,-5,-2,-1,0,0,-1,-2,-3,0
11490,-6,0,-2,-2,-1,-2,-2,-1,0
11495,12,1,-1,-1,-1,-1,0,5,0
11500,-2,-1,-2,-2,0,-2,-2,-3,0
11505,1,0,-1,-2,0,3,2,0,0
11510,-1,-1,-1,-1,-2,-2,-3,-1,0
11515,-6,0,-1,1,-1,-1,-2,-3,0
11520,-1,-2,-2,0,0,0,-2,-1,0
11525,1,0,-2,-1,-1,-1,-2,-1,0
11530,-1,-2,0,0,0,-1,0,-2,0
11535,-3,-2,-2,0,1,-1,-1,-1,0
11540,1,-2,-1,-2,-2,-1,0,-1,0
11545,-2,0,0,0,1,0,-2,0,0
11550,-2,-1,-2,-4,-2,-4,-2,-1,0
11555,-1,-1,-1,-2,-2,-5,0,-2,0
11560,-10,-1,-1,0,-1,-1,1,-4,0
11565,13,-1,-1,-2,-2,-1,1,3,0
11570,1,-1,-1,-2,0,-1,0,-1,0
11575,-3,0,0,-1,-1,-1,-3,-2,0
11580,-3,-2,-2,0,-1,1,-3,-2,0
11585,-3,-1,-1,-3,-2,-2,1,0,0
11590,0,-2,-1,0,-3,-3,-2,-2,0
11595,-3,-2,0,-2,-1,1,-1,-2,0
11600,2,1,-1,-2,-2,-1,1,0,0
11605,-5,-2,-2,-3,-1,-1,-1,-3,0
11610,-2,0,-2,-2,1,0,0,-3,0
11615,9,0,1,-2,0,-3,-2,2,0
11620,0,-1,0,-2,-2,-2,-1,1,0
11625,-2,-2,-1,0,0,0,-2,0,0
11630,-5,-2,0,-2,-2,-1,-1,-3,0
11635,-4,0,-2,-1,-1,-1,0,0,0
11640,1,1,-1,0,1,0,1,0,0
11645,-1,-2,-1,0,0,-2,-2,-1,0
11650,0,0,-2,-1,-2,-1,-1,1,0
11655,-3,-3,-2,-2,-2,-1,-3,-2,0
11660,1,0,0,-2,-1,0,1,0,0
11665,-5,-2,0,-1,-2,-2,2,-3,0
11670,2,-2,0,-1,-1,0,-3,-1,0
11675,-2,-2,-1,-1,-1,0,-1,-1,0
11680,-2,-1,-1,-2,-2,-3,-2,-1,0
11685,2,0,-2,2,0,-2,-2,1,0
11690,1,1,-1,-1,0,-1,0,0,0
11695,-3,-1,-2,-1,-2,0,-1,-3,0
11700,-1,0,0,-1,-1,0,-1,-2,0
11705,-4,0,1,-1,-2,-1,-2,-1,0
11710,2,-3,-2,-1,-1,0,2,0,0
11715,-14,-1,-1,-1,-2,-2,-2,-4,0
11720,2,0,-1,-1,-1,0,0,2,0
11725,-2,-2,-2,0,-2,-1,-2,-2,0
11730,-2,0,0,-1,-1,0,-2,-1,0
11735,-4,-1,-1,-1,-1,0,-2,-1,0
11740,-1,-2,-1,-2,0,3,2,0,0
11745,-6,0,0,0,-3,-3,-1,-4,0
11750,7,-1,-2,0,1,-1,1,4,0
11755,0,0,-2,-1,1,0,0,1,0
11760,-1,-1,-2,0,-1,-3,-4,-1,0
11765,-3,-2,-3,-2,-1,1,-2,-2,0
11770,-3,-2,-1,0,-2,-1,-1,-3,0
11775,-2,1,0,-1,-3,-1,-1,-3,0
11780,3,-1,-1,1,-1,-1,0,3,0
11785,-1,-1,-2,-2,-1,-2,-1,1,0
11790,-3,-2,-3,-2,-2,-2,-3,-2,0
11795,-3,-1,-1,-1,0,-1,0,-1,0
11800,7,-2,-1,0,-1,-2,-3,-1,0
11805,-1,0,-1,-1,-2,1,1,-2,0
11810,1,-1,0,0,-1,1,-2,3,0
11815,-1,-1,-2,-1,0,-1,-1,-2,0
11820,-8,-3,-2,-2,-2,-1,-2,-4,0
11825,16,1,0,0,-2,-2,0,6,0
11830,-1,0,-1,0,-1,0,-2,-3,0
11835,-1,-2,-1,0,-1,0,-1,-2,0
11840,-4,-2,-2,0,0,-2,0,-2,0
11845,-2,-2,-1,-3,-1,0,-1,-3,0
11850,-6,-2,-1,-1,0,-1,0,-1,0
11855,2,0,-1,1,-2,-2,0,0,0
11860,-3,1,-2,-2,-1,-1,0,-1,0
11865,-3,-2,0,0,-1,1,0,0,0
11870,-2,1,-1,0,-2,-2,-2,0,0
11875,-3,-3,0,-2,-2,0,-1,-2,0
11880,8,0,-1,0,1,-2,-1,-1,0
11885,-2,1,-2,-2,-1,0,3,-1,0
11890,-2,-1,-2,-1,-1,-3,-2,-2,0
11895,3,-1,-3,1,-1,-1,-3,0,0
11900,-6,-2,-2,-1,-3,-2,-3,-1,0
11905,-7,0,0,-2,-1,-1,-3,-4,0
11910,13,0,0,-2,1,0,2,5,0
11915,-3,-1,-3,0,-2,0,0,1,0
11920,-1,-1,-1,0,2,3,1,0,0
11925,-3,-3,-1,-1,-3,-5,-4,-2,0
11930,-7,-1,0,0,-1,1,-3,-3,0
11935,0,-3,-2,-4,-1,-2,-1,0,0
11940,0,0,-1,-2,0,-1,0,-2,0
11945,-1,-1,-2,-2,-1,2,0,-1,0
11950,-5,-1,0,-1,-1,-3,-3,-4,0
11955,-2,1,1,-1,-2,-1,-3,-1,0
11960,-1,-1,0,-1,0,-1,-1,0,0
11965,-2,-2,-1,-2,-2,-2,0,0,0
11970,-4,-3,-1,-1,-1,-1,0,-2,0
11975,-1,0,0,0,-2,-1,1,-4,0
11980,-5,-1,1,-2,-1,-1,-2,-2,0
11985,5,1,0,-2,0,1,0,2,0
11990,0,0,-2,0,-1,-2,0,-1,0
11995,0,0,0,0,1,0,-1,-1,0
12000,-3,-1,-1,-1,-3,-2,-2,-4,0
12005,-5,-1,-2,1,1,-1,-1,0,0
12010,12,2,0,-1,0,3,2,6,0
12015,0,-2,-1,-2,0,-2,0,-1,0
12020,-2,-1,-1,0,-2,-2,-1,1,0
12025,-4,-2,-2,-2,0,-2,-2,-2,0
12030,-7,-2,-3,-2,-1,0,0,-3,0
12035,0,-1,0,-2,0,-2,-2,0,0
12040,2,0,1,-2,0,1,0,-1,0
12045,-1,0,-1,-1,0,-1,-3,-1,0
12050,-2,-1,-1,0,-1,-2,-2,-1,0
12055,0,-1,-1,0,0,-2,-1,0,0
12060,-2,-2,-2,-1,-1,-3,-2,1,0
12065,-2,-3,0,1,-1,-2,-2,-3,0
12070,-7,-1,-2,-1,-3,-2,-1,-3,0
12075,2,-1,-2,-3,0,3,2,-2,0
12080,1,-1,-1,-1,-3,-2,-1,1,0
12085,0,0,-1,-1,-1,-1,-2,-1,0
12090,2,0,0,-1,0,-2,-1,1,0
12095,-4,-2,-2,-2,-2,-1,-1,-1,0
12100,-2,-2,-1,0,2,0,-1,-3,0
12105,0,-1,-1,-1,0,-1,-2,-1,0
12110,-5,-2,-1,-2,-1,-2,-3,-5,0
12115,-3,-2,0,-1,-2,-2,-2,-1,0
12120,-1,0,0,-1,-1,-2,-1,-1,0
12125,1,-2,-2,-2,-2,2,-2,-1,0
12130,-2,-1,-1,0,0,-1,0,0,0
12135,0,-1,-1,0,-1,-2,-1,0,0
12140,1,-1,-2,-2,0,1,-1,-1,0
12145,-2,-2,-1,0,-1,-3,-1,-2,0
12150,-2,-1,-1,-2,-1,-2,0,-2,0
12155,-1,-1,-1,1,-3,-1,0,0,0
12160,-2,-2,-1,1,-1,-1,1,-1,0
12165,-2,0,-1,0,-2,-2,-1,-2,0
12170,-2,-2,-2,-1,-1,0,-1,0,0
12175,-2,0,-2,-2,-2,-2,-4,-2,0
12180,-1,-2,-2,-2,-1,-1,-1,-1,0
12185,-2,1,-1,-1,1,1,-1,0,0
12190,-3,-1,-1,0,-3,-2,-1,-2,0
12195,0,0,1,1,1,1,0,1,0
12200,1,0,-3,-3,0,-1,1,0,0
12205,-1,-3,-2,-2,-5,-4,0,-2,0
12210,-1,-2,0,-3,-2,0,-2,-1,0
12215,-1,-1,-1,0,0,0,-1,-2,0
12220,-2,0,1,0,-1,-3,-2,-2,0
12225,0,0,0,1,1,-1,1,1,0
12230,-1,-1,-1,-1,0,-1,-3,-2,0
12235,-1,-1,1,-2,-1,0,-1,-2,0
12240,-2,0,-1,0,-1,-1,-1,1,0
12245,0,1,-2,-1,-1,-2,-1,-2,0
12250,-1,-1,-1,2,0,1,0,-3,0
12255,-2,-1,-3,-1,-1,-1,0,0,0
12260,-1,-1,-1,-1,-2,-1,-1,0,0
12265,-1,-2,-1,-2,1,-1,-2,-1,0
12270,-3,-2,-1,-2,0,1,-1,0,0
12275,-2,-1,-1,-1,-1,-2,-1,-2,0
12280,0,-2,-1,-2,-2,0,-3,0,0
12285,-2,0,-1,0,-1,-2,-2,0,0
12290,-1,-2,-2,0,-1,2,3,1,0
12295,-1,0,0,0,0,-1,-3,0,0
12300,-1,-2,0,-1,-1,-2,0,0,0
12305,0,-2,-1,0,-1,-3,-2,-2,0
12310,1,1,0,0,-2,-2,-3,-1,0
12315,-1,-2,-1,0,1,-2,-1,0,0
12320,-2,0,-2,-1,0,0,0,-3,0
12325,-1,0,-2,-1,-1,-1,0,-1,0
12330,-1,1,-2,-2,-2,-3,0,0,0
12335,-1,0,-2,-1,-1,-1,0,0,0
12340,0,-1,-1,-1,0,-4,-2,-2,0
12345,-2,-3,-1,-2,-1,2,2,-1,0
12350,0,-1,-1,-3,-3,0,0,0,0
12355,-1,0,-1,-2,-2,0,-1,-2,0
12360,-1,-1,1,-2,-1,-2,-1,0,0
12365,-1,1,0,0,-1,-3,0,1,0
12370,-1,-1,0,0,-2,-2,-1,-3,0
12375,1,-1,-1,-1,-2,-3,0,-2,0
12380,-1,-1,-1,-2,-1,-1,0,-1,0
12385,-1,-2,-1,0,0,-2,2,-2,0
12390,-1,-1,-2,1,1,-2,-2,0,0
12395,-2,-1,-1,-2,-2,-2,-1,0,0
12400,0,-2,-1,0,-1,-1,-2,-1,0
12405,0,-1,-1,0,0,1,-2,-2,0
12410,-1,-1,-2,-3,1,-2,-3,-1,0
12415,-1,0,-1,-2,-2,-1,-1,-2,0
12420,-2,-1,-2,-1,-2,-1,-1,-2,0
12425,-1,-1,-1,-2,-1,-1,-2,-1,0
12430,-2,-2,-1,-1,-1,0,-2,-1,0
12435,-1,-1,-1,-1,1,-1,0,0,0
12440,-2,-2,0,-1,0,-1,-1,-1,0
12445,-2,-2,-1,-2,-1,0,0,-1,0
12450,-2,-2,0,-3,0,-3,-3,0,0
12455,-1,-1,-2,-2,0,0,-2,0,0
12460,-3,0,-4,-2,0,0,-1,-3,0
12465,0,-1,0,-2,0,-1,-2,0,0
12470,-1,-3,-1,-1,-2,-1,0,-1,0
12475,-1,-1,-2,-1,0,-3,-2,-2,0
12480,-2,0,-1,0,-2,0,1,1,0
12485,-1,-2,0,-1,-1,-1,-2,-2,0
12490,-1,-1,0,-3,-1,-1,1,-3,0
12495,-2,-2,-1,0,-1,0,0,-2,0
12500,-1,-1,-1,-3,-1,-1,-3,-2,0
12505,-1,-1,-2,-1,0,0,0,-1,0
12510,0,0,-3,-2,0,0,-1,-2,0
12515,0,-1,0,0,-2,0,0,1,0
12520,1,-2,0,-1,-1,-1,-2,0,0
12525,-1,-2,-2,-2,-2,-1,-2,0,0
12530,0,0,-2,-2,-2,-2,-1,-1,0
12535,0,-1,-1,-2,-1,1,1,0,0
12540,-1,0,-1,-1,0,-1,-1,-3,0
12545,0,0,0,-1,0,0,-4,-1,0
12550,-2,0,0,0,-2,1,-3,-1,0
12555,-2,-1,-3,-1,-2,-3,-2,-2,0
12560,-1,-1,-2,-1,-3,-1,0,0,0
12565,-1,0,-2,-1,0,-3,2,-2,0
12570,0,-2,2,-1,-1,-1,-1,0,0
12575,0,-2,-2,-2,0,-1,-1,-1,0
12580,-1,-2,-1,-1,-2,-2,0,-1,0
12585,0,-2,-2,-3,-2,-3,-2,-1,0
12590,-3,0,-2,0,-2,0,2,1,0
12595,-2,0,-1,0,-2,0,0,-1,0
12600,-2,-1,-1,-2,1,-2,1,0,0
12605,-1,-2,0,-1,0,0,0,-1,0
12610,-2,-2,-1,0,1,1,-2,-1,0
12615,0,-1,-1,-2,-2,-1,0,-1,0
12620,-2,-1,-2,1,0,-1,-1,-1,0
12625,1,-1,0,-1,-2,0,0,-1,0
12630,-2,-1,-1,-2,0,0,-2,-1,0
12635,-2,-2,-1,-2,-2,0,0,-1,0
12640,-2,-1,1,-2,-2,-2,-1,0,0
12645,-2,0,-1,1,-1,-3,1,0,0
12650,-2,0,-3,0,-1,0,-1,-1,0
12655,0,-1,-3,-1,-1,-1,-1,-1,0
12660,-1,0,1,-1,-1,1,-1,-1,0
12665,-2,-1,-2,0,-1,0,-2,-1,0
12670,0,0,0,-2,-1,-3,-1,-1,0
12675,-1,0,1,0,-2,-2,-2,0,0
12680,-2,-3,-3,-1,0,1,0,-2,0
12685,-1,-1,-1,0,-2,-1,-1,0,0
12690,-1,-3,-1,0,2,2,-3,-2,0
12695,-2,-1,-1,0,0,1,1,1,0
12700,-1,-2,-2,-2,-2,-2,-2,0,0
12705,0,-2,-1,-2,-2,-1,-2,-1,0
12710,-1,-3,-2,-1,-3,-2,0,-1,0
12715,0,0,1,-1,-3,-3,-3,-2,0
12720,0,-2,-1,1,-2,-1,-1,-1,0
12725,-2,-1,-2,-4,1,0,-1,-2,0
12730,0,1,-1,-1,-1,-2,2,0,0
12735,-1,0,-1,-1,0,-2,-2,-2,0
12740,0,-1,-2,-2,-2,-1,-1,0,0
12745,-2,-1,0,0,-2,-1,-2,-1,0
12750,-2,1,-1,0,-2,-2,-2,0,0
12755,-1,-2,0,0,0,0,-1,-1,0
12760,-1,-1,-1,-1,0,-1,-1,-2,0
12765,-1,0,-1,0,0,0,-1,0,0
12770,0,-1,0,-1,-1,-2,-1,-3,0
12775,-1,-2,-2,-2,1,0,1,-1,0
12780,0,0,-2,0,-1,-1,-2,-1,0
12785,-1,-2,-1,0,-1,2,-1,0,0
12790,-1,-2,-2,-1,-2,-3,0,-1,0
12795,0,-1,0,-1,-1,-3,-3,-1,0
12800,-2,0,-2,1,0,-2,-1,-1,0
12805,-1,-1,-1,0,0,1,0,-1,0
12810,-3,-1,0,-2,-1,-1,-1,1,0
12815,-2,-1,-2,-2,1,-1,-2,-2,0
12820,-3,-1,1,-1,0,1,0,1,0
12825,0,0,-2,-2,0,-2,0,-2,0
12830,1,-3,-2,-2,-1,1,-1,-1,0
12835,-1,-1,-1,-2,-1,-1,-1,-1,0
12840,-1,-1,1,-2,-1,-1,0,1,0
12845,-3,0,-3,-2,-2,-2,-3,1,0
12850,-2,-2,0,-2,0,-1,-1,0,0
12855,-1,-1,0,-1,-1,-1,-2,-1,0
12860,0,-1,-2,-1,-3,0,-2,-1,0
12865,-1,-1,0,1,1,-1,0,-1,0
12870,-2,0,-1,-1,-2,-2,-1,-3,0
12875,-2,2,-1,0,0,-2,-2,0,0
12880,-3,-1,-2,-1,1,-1,-1,-1,0
12885,0,-2,0,-2,-1,-2,-1,-1,0
12890,1,0,0,1,0,1,1,-2,0
12895,-2,-1,-1,2,-1,0,0,-1,0
12900,-1,0,-2,-2,-1,-2,0,0,0
12905,-1,-1,-2,-2,-1,0,-3,-2,0
12910,-1,0,-1,-1,0,1,1,0,0
12915,-1,-2,0,-2,-2,0,0,-1,0
12920,-3,0,0,0,0,-2,-4,-1,0
12925,-1,0,-1,-3,-1,1,1,-1,0
12930,0,0,-1,0,-1,0,-2,-2,0
12935,-2,0,-2,-1,-1,-4,0,1,0
12940,0,-1,-1,-1,0,-1,-2,-1,0
12945,-3,1,1,-1,-1,-2,-2,-1,0
12950,-1,-3,-1,0,-1,-1,-1,-1,0
12955,-1,-1,-2,0,-1,0,-1,-2,0
12960,-1,-1,0,-1,0,0,-1,-1,0
12965,-2,-1,-1,-2,-3,-3,-3,0,0
12970,-1,0,-2,-1,-1,-1,-2,0,0
12975,-1,-1,-1,-2,-2,-2,-1,-1,0
12980,0,-1,0,-1,0,0,1,-1,0
12985,-1,-1,-2,1,-2,-1,-1,-3,0
12990,-2,0,-2,-1,1,-2,-3,0,0
12995,0,-1,-1,-1,0,-1,-1,0,0
13000,0,0,-2,0,-2,-1,0,-3,0
13005,0,-3,-2,-1,-1,0,-1,0,0
13010,0,-2,-2,-2,-1,-2,-2,-1,0
13015,-1,-1,-1,-1,-1,-1,-2,-2,0
13020,0,-3,-2,-1,-1,0,-1,0,0
13025,0,-1,-1,-2,-1,-3,-1,-1,0
13030,-1,-2,-1,-1,-1,-2,-1,-1,0
13035,-1,-1,-1,-2,-1,-1,-2,0,0
13040,-1,0,1,0,0,-1,-3,0,0
13045,-3,-2,-2,1,0,0,-1,0,0
13050,-1,0,1,-2,-2,0,-2,-1,0
13055,-2,1,-2,0,-2,-3,-1,-1,0
13060,-1,-2,-2,-2,0,2,0,-1,0
13065,-1,-2,0,-1,1,-1,-1,0,0
13070,-3,-1,-1,0,-1,-1,0,-1,0
13075,-1,0,-1,-1,-3,-1,-2,1,0
13080,-1,-1,-2,-1,-1,-2,-2,-1,0
13085,-1,-2,-1,-1,0,0,-1,-2,0
13090,1,-2,-1,-1,0,-1,-1,-2,0
13095,-3,0,-2,-3,0,-1,-2,-3,0
13100,-1,0,0,-1,-1,-1,2,1,0
13105,-1,0,0,-2,-2,-1,0,-1,0
13110,-3,-2,-2,-1,-1,-3,-2,-2,0
13115,0,-1,0,-2,-2,-1,-2,1,0
13120,-2,-3,-3,-1,0,0,-1,-2,0
13125,0,-1,-2,-1,-3,-2,-1,-1,0
13130,0,-1,-1,0,0,-2,-2,-1,0
13135,-2,-2,-2,1,0,-1,0,0,0
13140,0,-1,0,-1,-1,-2,-1,-2,0
13145,-1,-2,-1,-1,-2,-2,-1,1,0
13150,-2,-1,-1,-2,-1,0,-2,0,0
13155,-1,-3,-1,0,0,0,1,-2,0
13160,0,-1,0,0,0,1,-2,-1,0
13165,-1,-1,0,-2,-1,-1,0,-1,0
13170,0,0,-1,-1,-2,-2,-1,0,0
13175,-2,-3,-1,-2,1,-2,0,-2,0
13180,-3,0,-1,0,-1,-3,-3,-2,0
13185,-2,-1,-2,0,-1,2,-1,-2,0
13190,-2,-2,-2,-2,-2,1,-2,0,0
13195,0,-2,-2,0,0,0,0,0,0
13200,0,-1,-1,-2,-1,-2,-3,-1,0
13205,0,0,-1,0,0,-1,-1,-1,0
13210,-1,-1,-1,0,0,-1,-1,-1,0
13215,-1,-2,-3,-1,-3,0,-3,0,0
13220,-1,-2,-2,-2,0,0,0,0,0
13225,-2,-3,-1,-1,-1,-1,-1,-1,0
13230,0,0,-1,-1,-1,-2,0,-1,0
13235,-1,0,-1,0,0,-1,0,0,0
13240,-1,-1,-2,-1,-1,-1,0,0,0
13245,-2,-1,-3,-1,-1,2,-2,-2,0
13250,-3,-1,-1,-2,-3,0,0,-2,0
13255,-1,-3,-1,-2,-2,-2,-2,-2,0
13260,-1,1,0,2,-2,1,2,1,0
13265,-2,-2,-2,-3,-4,-2,-1,-1,0
13270,-1,-2,-1,0,0,-2,0,1,0
13275,-1,1,0,0,1,0,-2,-2,0
13280,-2,0,-1,-3,-3,0,-1,-3,0
13285,0,-1,-1,-1,0,-2,-1,-1,0
13290,1,-1,-2,-1,-5,-2,-1,-3,0
13295,-1,-2,-3,-1,-1,-8,-3,-3,0
13300,0,-2,0,1,2,12,-1,0,0
13305,-1,-2,0,-1,-1,-3,-3,-2,0
13310,-1,0,-4,-2,0,-6,-5,-2,0
13315,0,-2,1,-2,0,8,5,2,0
13320,-3,0,-2,-3,-5,-10,0,-3,0
13325,-3,1,-3,0,2,-1,0,-4,0
13330,-1,-2,-2,-4,-2,-4,1,1,0
13335,1,1,0,0,0,0,-2,-1,0
13340,2,-2,0,1,1,-4,-3,-2,0
13345,-5,0,1,0,-6,4,2,-2,0
13350,3,2,-3,1,4,-8,-4,2,0
13355,-6,-1,-4,-3,0,-6,-1,-5,0
13360,-2,-2,-1,-3,-8,0,-1,-5,0
13365,6,0,2,-1,0,-4,0,5,0
13370,-3,-1,2,2,-1,5,1,-2,0
13375,-2,-2,-2,-2,-1,-7,-3,1,0
13380,1,0,0,-3,1,0,-2,1,0
13385,-2,1,-2,-3,-1,-9,-5,-4,0
13390,1,-1,-1,-3,-1,3,2,4,0
13395,-1,-2,0,-2,-1,7,0,0,0
13400,-2,-1,-1,2,2,-7,-1,-1,0
13405,0,0,-1,0,0,4,2,3,0
13410,-2,-2,-2,-1,-3,-4,-4,-4,0
13415,-2,0,1,-2,-2,-1,-1,-5,0
13420,1,-1,-1,-1,-3,-1,-1,0,0
13425,0,-2,-1,-2,4,2,-2,-2,0
13430,-3,0,0,-1,-2,4,1,0,0
13435,0,-1,0,2,-2,-1,1,-2,0
13440,-3,-1,-2,-2,0,-2,0,0,0
13445,1,-1,0,-1,-2,-1,-2,-1,0
13450,-1,-1,1,-1,1,1,-1,-1,0
13455,-3,0,0,-1,-1,0,0,0,0
13460,-1,-3,-2,-1,-1,-3,-2,-2,0
13465,-1,-2,0,-1,0,0,-1,0,0
13470,-2,-2,0,-1,0,0,0,-1,0
13475,0,-2,-2,-2,-3,-4,-2,-1,0
13480,-1,0,0,-3,-1,1,0,0,0
13485,-1,0,0,-2,-2,0,-1,1,0
13490,-1,-1,0,-1,-1,-1,0,-2,0
13495,2,-1,-2,-1,1,1,-2,2,0
13500,-2,-2,-1,0,1,3,1,-2,0
13505,1,-2,-1,-2,-3,-2,-1,-1,0
13510,-1,0,1,-2,-2,1,-1,-1,0
13515,-1,-1,-2,0,0,0,2,0,0
13520,1,-1,0,-2,-2,-3,-2,-1,0
13525,0,0,0,0,0,1,1,0,0
13530,-2,-1,-2,-1,-3,-2,-1,-1,0
13535,1,-2,-2,-1,-2,-2,-1,-1,0
13540,-2,1,-3,-1,1,-2,0,-1,0
13545,-2,-2,0,-1,0,-1,0,-1,0
13550,0,-1,-2,-2,-1,0,-2,0,0
13555,2,-2,-3,-2,-1,1,-2,1,0
13560,-3,-2,-1,-1,-1,-3,-2,-1,0
13565,-1,-2,-2,0,-1,-1,-1,-2,0
13570,0,-1,-1,-1,1,0,1,0,0
13575,-3,-1,-2,-2,-1,0,-1,-2,0
13580,-5,-3,0,0,-1,-4,-2,0,0
13585,-2,-1,-1,-2,-1,2,1,-1,0
13590,-2,-2,0,0,-1,0,-1,-2,0
13595,0,1,0,-2,-1,1,-2,-4,0
13600,0,-1,-1,-3,-3,-2,0,0,0
13605,-6,0,0,0,-2,-9,-1,-2,0
13610,2,1,-2,-2,0,7,0,4,0
13615,4,-1,-1,-1,0,-3,-3,2,0
13620,-7,-4,-1,0,-1,-1,1,-6,0
13625,11,-1,-1,-2,-2,-1,-1,7,0
13630,11,-5,-3,0,-2,-3,0,7,0
13635,-21,0,2,1,-1,0,-1,-12,0
13640,4,-1,-1,-1,0,1,0,-1,0
13645,-4,-1,-1,-2,-2,-1,-2,-5,0
13650,-12,-1,0,-1,-3,-5,-1,-2,0
13655,-1,-5,0,-1,-1,0,-3,-6,0
13660,1,0,1,1,-1,-3,0,8,0
13665,5,0,-2,0,0,1,-2,-3,0
13670,-14,-2,-2,-1,-1,1,-1,-4,0
13675,4,-1,-3,1,-3,-6,-1,3,0
13680,-5,-1,0,-1,-2,2,-3,-4,0
13685,-5,0,-2,-1,-2,-3,-3,0,0
13690,4,-1,-1,0,1,-2,1,-2,0
13695,1,0,0,-2,1,1,0,0,0
13700,5,0,-1,0,-1,0,-1,1,0
13705,-7,-1,-1,-2,-3,0,1,-5,0
13710,1,-1,-1,-2,1,-2,0,-2,0
13715,2,-1,-1,-1,-1,0,-2,0,0
13720,0,-2,-2,-2,-1,1,-2,0,0
13725,-6,-2,-1,-1,-2,-1,-3,-2,0
13730,-1,-2,-1,0,0,-1,-1,-2,0
13735,4,0,-3,-1,-2,1,0,3,0
13740,-6,-2,-2,0,-1,-4,-2,-3,0
13745,3,0,-1,0,0,2,0,0,0
13750,-2,0,0,-2,-1,-1,-2,-6,0
13755,5,1,-1,0,-2,0,0,7,0
13760,-1,-1,0,-2,-1,1,0,-1,0
13765,-6,-3,-2,-3,0,-2,-1,-4,0
13770,4,0,0,1,1,-2,-1,2,0
13775,-6,-1,0,0,-1,-1,-1,-2,0
13780,-1,-2,-1,0,0,-2,-1,1,0
13785,1,-2,-1,-1,0,2,-1,0,0
13790,-5,-2,-2,-3,-3,-4,-3,-6,0
13795,-1,-1,-2,-3,-2,-3,0,-1,0
13800,3,0,-2,-2,-1,1,0,1,0
13805,-4,-1,-2,-1,0,-2,-3,-1,0
13810,0,-1,0,-1,2,-1,-2,-1,0
13815,0,-3,0,0,0,1,0,0,0
13820,-2,-1,-2,0,-2,-2,1,-3,0
13825,1,-1,0,1,-1,1,-1,-3,0
13830,0,0,-1,0,-1,-1,-2,2,0
13835,1,-3,0,-1,-1,-2,-1,-1,0
13840,-2,0,-1,-1,-1,-1,-1,-2,0
13845,0,-2,-1,-2,-1,-3,-1,1,0
13850,-1,0,-1,-1,-1,1,-1,-1,0
13855,-1,0,-1,-1,-1,-2,0,-4,0
13860,-2,1,-2,-2,0,0,1,-2,0
13865,0,0,0,0,-1,-2,1,0,0
13870,-4,-3,-3,-1,-1,-1,-3,-3,0
13875,1,-1,-2,-3,-1,-3,-1,-1,0
13880,6,1,1,-2,2,-2,-1,2,0
13885,-1,0,-2,-3,-5,-2,3,-1,0
13890,-2,0,0,-1,-3,-2,1,-1,0
13895,0,-3,-3,0,-2,1,-1,-1,0
13900,-2,-2,-1,0,-2,-3,-4,-2,0
13905,-2,-3,-1,-1,-2,-1,-2,-1,0
13910,-5,-3,0,-1,0,0,0,-3,0
13915,8,1,0,-1,-3,-2,-1,3,0
13920,1,-2,-1,-1,0,-2,0,2,0
13925,-1,-1,1,0,2,0,-1,-1,0
13930,0,-1,-2,-2,-2,-1,-2,1,0
13935,-4,-2,-1,-1,0,0,-1,-4,0
13940,-4,-1,-1,-1,-2,1,-2,-2,0
13945,0,-1,0,-1,-2,-3,-1,-2,0
13950,2,-1,-2,-2,-1,1,1,0,0
13955,-7,-1,-1,-2,-2,-2,-1,-5,0
13960,3,1,-2,-2,-2,0,0,2,0
13965,-5,-2,-2,-1,-1,-1,-2,-2,0
13970,2,-1,-1,-1,1,-1,-2,-2,0
13975,-2,0,-4,-2,-2,0,1,1,0
13980,-5,-3,0,0,-1,-1,-1,-5,0
13985,7,-1,-2,0,1,-1,0,5,0
13990,-5,-1,-2,-1,-3,-2,-3,-1,0
13995,-4,-1,-1,0,0,2,1,1,0
14000,-6,-4,-3,-2,-2,-1,-2,-5,0
14005,12,1,1,0,-2,-2,0,3,0
14010,4,-2,0,-1,-2,0,-1,-1,0
14015,-2,-1,0,-2,0,-2,-2,-2,0
14020,-2,-1,-2,-2,-1,0,0,0,0
14025,-5,-1,-1,-2,-2,0,-1,-3,0
14030,1,-2,-1,-3,-2,0,1,-1,0
14035,-1,-2,-2,-1,0,-2,-3,-3,0
14040,1,0,-2,-1,-1,-1,-2,-1,0
14045,-4,0,-2,-1,-2,-3,-4,-2,0
14050,2,1,-1,-1,-2,-2,0,0,0
14055,-4,-1,-1,0,-1,-1,0,-2,0
14060,2,-2,1,-2,1,1,0,-3,0
14065,-4,-2,-2,-2,-1,0,-2,-4,0
14070,-3,0,-1,0,-2,-1,-2,-2,0
14075,-1,0,-2,0,-1,-3,0,-1,0
14080,-1,-1,-1,0,0,-4,-1,0,0
14085,-2,0,-2,0,0,1,-1,-1,0
14090,-1,-1,-1,-2,-1,-1,-1,-2,0
14095,-3,-1,-1,-2,-2,-4,1,-2,0
14100,4,0,-1,-1,0,0,1,3,0
14105,-6,-3,-1,-1,0,-1,-1,-4,0
14110,-1,0,0,-1,-1,-2,0,0,0
14115,-1,0,2,0,-2,-5,-4,-2,0
14120,-2,-1,0,-1,-1,0,1,-1,0
14125,-1,-2,-2,-1,0,-1,-1,-2,0
14130,0,-2,-1,-2,-1,2,-2,0,0
14135,-4,-1,-2,-1,1,1,-1,-1,0
14140,-13,-2,-2,-1,-3,0,1,-3,0
14145,23,2,-1,2,0,1,2,9,0
14150,-1,-1,-1,0,1,-2,-1,-3,0
14155,-2,-3,-2,-2,1,3,-1,-2,0
14160,-1,-2,-1,-2,-4,-2,-4,-1,0
14165,-16,-3,-2,-3,-2,-4,0,-5,0
14170,-2,-1,-4,-3,-2,-1,-1,0,0
14175,-3,0,1,-1,-1,0,-2,-1,0
14180,-4,0,-1,-1,1,0,-1,-2,0
14185,6,0,0,-2,-3,-3,-1,2,0
14190,-2,-1,0,2,1,1,-2,-4,0
14195,-1,0,-2,-3,-1,-1,0,2,0
14200,1,-1,-1,-1,-1,-3,-1,-4,0
14205,-10,-1,-2,1,0,0,-2,-6,0
14210,1,-1,-2,0,-1,0,0,1,0
14215,1,-2,-1,-1,1,0,-1,0,0
14220,1,0,0,-2,1,-1,0,0,0
14225,-1,-1,-1,0,-2,-2,1,-1,0
14230,-3,-1,-1,0,-2,0,1,-2,0
14235,0,-2,0,-1,-1,-2,-1,-1,0
14240,1,0,-2,-1,-1,-2,-1,0,0
14245,-6,-2,1,-3,-1,-1,0,-1,0
14250,-2,0,0,0,0,-2,0,-2,0
14255,2,-1,-3,-2,-2,-2,0,1,0
14260,2,0,-2,0,-2,-3,-1,0,0
14265,1,-1,0,-2,-3,0,-1,-1,0
14270,-4,-1,-3,-1,-3,-1,-1,-1,0
14275,-3,-1,1,0,1,-1,-1,-1,0
14280,-5,0,-1,0,1,-2,-1,-2,0
14285,-5,-2,-4,-2,-2,0,1,-1,0
14290,-3,-1,-1,0,-1,-1,0,-4,0
14295,-2,-1,0,0,-1,-2,0,1,0
14300,0,-1,-2,-1,1,0,-3,1,0
14305,-5,0,-1,-1,1,-1,-2,-3,0
14310,-1,-3,-1,-1,2,1,-1,-2,0
14315,0,0,-2,-2,-3,-2,0,-2,0
14320,-2,-1,0,-1,-2,0,-1,-3,0
14325,-1,-2,-1,-1,0,-1,-1,-1,0
14330,1,0,0,-1,-3,-3,0,1,0
14335,2,0,0,-2,-2,-1,-1,0,0
14340,3,-1,-2,-2,-2,-2,-2,2,0
14345,-2,0,-1,-1,0,0,-3,-1,0
14350,2,0,-1,-1,1,2,3,2,0
14355,-3,0,-2,-1,-3,-1,-2,-3,0
14360,-2,-2,-2,-1,-1,-1,-1,1,0
14365,0,-1,-1,-1,0,-2,0,-1,0
14370,-1,-3,-2,-1,0,-2,-4,-2,0
14375,3,-1,0,-1,0,0,-1,2,0
14380,0,-1,0,-1,-3,-3,0,-3,0
14385,-2,0,-1,-1,0,1,-2,0,0
14390,3,1,-1,-2,-1,1,-2,-2,0
14395,-2,-1,-2,-2,-1,-1,0,-2,0
14400,-4,-1,-2,-2,0,-2,1,-1,0
14405,0,-2,0,-1,-3,-2,0,1,0
14410,-3,-1,0,-1,-2,-3,-1,-3,0
14415,-1,0,-1,-1,1,0,0,0,0
14420,1,-2,-1,-2,-1,1,-2,0,0
14425,-3,-1,-2,-1,-2,-2,-3,-4,0
14430,-1,0,-2,-1,0,1,2,2,0
14435,-1,-3,-3,0,-2,-2,-1,-2,0
14440,-1,-3,0,-1,-1,-1,-1,-2,0
14445,0,-3,-1,-1,-1,0,-1,-1,0
14450,0,0,-1,-1,-2,-2,-3,-2,0
14455,2,-1,-1,0,0,0,0,2,0
14460,-1,-1,-2,-1,-1,0,1,-2,0
14465,0,-1,-2,0,-1,-2,1,-1,0
14470,2,-2,-1,-1,-2,-2,-2,1,0
14475,-2,-1,-1,-1,-2,-1,-3,-3,0
14480,-10,0,-2,0,0,2,-2,0,0
14485,7,-1,-2,-2,0,0,-1,0,0
14490,-5,-1,0,0,-1,-1,0,-1,0
14495,-2,-1,-1,0,-1,-2,0,0,0
14500,-1,0,-1,-1,-1,-2,-2,-3,0
14505,-2,1,0,-2,-2,-2,0,-2,0
14510,-2,0,-2,-3,-2,-2,-2,-2,0
14515,-4,-2,-1,-1,1,1,-2,-3,0
14520,4,0,-2,0,-2,-1,-1,0,0
14525,-5,-2,-1,-1,0,0,-1,-1,0
14530,2,-2,0,-1,0,-3,-1,-1,0
14535,-4,-1,-1,-2,-2,-3,-2,-2,0
14540,-1,0,-2,0,-1,-1,0,-2,0
14545,-1,-1,0,-1,1,1,-1,-1,0
14550,-1,-1,-3,-1,0,-1,-1,2,0
14555,5,-1,-1,-1,-1,0,-5,1,0
14560,3,-2,-1,-2,0,-3,-1,-3,0
14565,-12,-1,0,-1,-1,3,1,-2,0
14570,6,0,0,-1,-2,-3,1,1,0
14575,0,-1,-2,0,-1,-1,-1,-2,0
14580,-1,-2,-1,-1,-1,-2,-2,-2,0
14585,-3,0,-1,-1,-1,1,0,0,0
14590,4,1,-1,-2,-2,-1,-2,2,0
14595,-2,-2,0,-1,0,-1,1,-1,0
14600,1,-2,1,0,-1,-1,-1,0,0
14605,2,0,-1,-1,-2,-1,-2,0,0
14610,-5,0,-1,0,2,2,-1,-3,0
14615,2,-1,-1,-1,-1,-2,-2,0,0
14620,0,-1,-2,0,2,0,1,-1,0
14625,-3,-2,-1,-3,-2,-3,-2,-1,0
14630,0,-3,-2,-1,-1,-1,-1,1,0
14635,-3,-2,-2,-1,-1,0,0,-3,0
14640,0,-2,0,0,0,0,0,2,0
14645,1,0,-1,-1,-2,-4,0,-1,0
14650,-4,-2,0,0,0,-2,-3,-3,0
14655,14,1,0,-1,-1,0,0,4,0
14660,-5,0,0,-1,-1,0,0,-1,0
14665,-3,-2,-2,0,-2,-2,-3,-3,0
14670,9,0,0,-1,-1,-1,0,1,0
14675,-6,-2,0,-1,0,-1,-1,-2,0
14680,1,-1,-2,-1,-1,-3,-2,-2,0
14685,1,-1,0,0,-2,-2,1,-1,0
14690,-7,-3,-2,-1,-1,-1,0,-3,0
14695,-4,-1,-1,0,0,0,0,1,0
14700,1,-2,-1,-1,-1,1,-2,-1,0
14705,-3,-3,-1,-2,0,-1,-3,-3,0
14710,-6,0,-1,0,-2,0,-2,-3,0
14715,5,0,0,-2,-1,1,-1,2,0
14720,-1,-1,0,0,0,-3,0,1,0
14725,0,-2,-1,-1,-1,1,0,1,0
14730,-6,-2,-1,-4,-1,-5,-3,-4,0
14735,-5,-1,-1,-1,1,2,3,-5,0
14740,0,-1,0,0,-1,5,3,2,0
14745,2,0,-1,0,1,0,-1,1,0
14750,2,0,1,0,-2,-4,-2,-1,0
14755,-5,-3,-2,-2,0,-4,-3,-1,0
14760,0,-1,-1,-2,-2,-2,-3,-2,0
14765,2,0,-1,0,0,-1,-1,1,0
14770,0,-3,-2,-1,-4,-2,-4,-2,0
14775,-2,-1,0,-1,-3,-5,-4,-3,0
14780,-3,-1,-1,0,-1,5,5,-2,0
14785,0,-2,-2,-1,0,2,-10,-1,0
14790,-2,-1,-1,-2,1,-2,0,0,0
14795,-1,0,-2,1,-1,3,3,0,0
14800,-8,-3,-3,-2,-2,-12,-8,-2,0
14805,2,-1,-1,0,-3,-5,-15,-1,0
14810,-1,-2,0,-2,-1,1,3,-2,0
14815,3,-1,0,-1,0,0,3,-1,0
14820,-2,-1,-2,-1,0,2,-2,-2,0
14825,1,-2,-2,-1,-1,1,3,-1,0
14830,-1,-1,0,-1,-1,0,-5,-1,0
14835,-4,0,-1,0,-2,-2,0,-2,0
14840,1,-1,1,0,-1,-1,-3,-1,0
14845,-2,-2,0,-2,-2,-3,4,-2,0
14850,-3,-2,-2,0,1,2,1,-2,0
14855,8,0,-2,-1,-1,-3,-1,3,0
14860,-1,-1,0,-2,-2,0,0,-1,0
14865,-2,-2,-1,-1,-2,-2,0,-1,0
14870,-3,-2,-1,-2,1,-1,1,-3,0
14875,-5,-2,-1,-2,-1,-1,-4,-2,0
14880,2,0,-1,-2,-1,-2,-4,-1,0
14885,3,0,0,0,0,3,6,2,0
14890,-5,-2,0,0,-1,1,1,1,0
14895,-3,-2,-2,-1,0,-1,-3,-2,0
14900,2,-1,0,-2,-2,-2,1,-1,0
14905,-2,0,-1,-2,-2,-4,-1,-3,0
14910,1,-1,-2,0,-2,-2,-1,-1,0
14915,-4,-2,-2,-1,-1,1,-3,1,0
14920,-4,-1,-1,-2,-1,1,-2,-2,0
14925,-8,-1,-1,1,1,0,1,-3,0
14930,18,1,-1,0,-1,0,-2,4,0
14935,-5,-1,-1,-2,-3,-3,1,-3,0
14940,-4,0,-1,-1,0,-1,-1,-3,0
14945,12,0,0,0,0,0,3,5,0
14950,-4,-2,-1,0,-1,-1,0,-2,0
14955,-2,0,-2,0,1,0,-1,0,0
14960,0,-1,-1,0,-1,-3,0,-2,0
14965,-3,0,-1,-2,0,-1,-1,1,0
14970,-1,-2,0,-3,-3,0,-1,-1,0
14975,0,-2,-2,0,0,-2,-4,-4,0
14980,-2,0,-1,0,-2,-2,0,-3,0
14985,-1,-3,-2,-1,0,1,-2,-2,0
14990,-2,-1,-2,-1,0,-2,0,0,0
14995,-1,0,0,-2,0,-1,-1,-2,0
15000,-1,-2,-2,-1,1,-1,-2,0,0
15005,-3,-1,-2,-1,0,-2,-1,-4,0
15010,-1,-1,-1,-2,1,0,1,1,0
15015,-2,-2,-1,1,-1,-3,-2,-2,0
15020,2,0,-3,-3,0,1,-3,-1,0
15025,-1,-1,-1,-2,-3,-1,-1,-1,0
15030,-4,-1,-2,-1,0,1,-2,-1,0
15035,-2,2,0,-1,-1,0,-1,-1,0
15040,0,-1,0,-1,-1,-1,-1,1,0
15045,-1,-2,0,0,1,-2,-2,-2,0
15050,-1,0,-1,-1,-1,1,1,-2,0
15055,1,-3,-2,-3,-4,-1,-1,-1,0
15060,-6,1,-2,1,-1,0,-1,-1,0
15065,-1,-1,-2,-2,-1,-1,-1,-1,0
15070,-2,-3,-1,-1,1,-1,-2,-1,0
15075,-3,-1,0,0,1,-2,0,0,0
15080,0,-3,-1,-1,-1,0,-2,-2,0
15085,-5,0,0,-1,-1,-2,-1,-2,0
15090,13,1,-2,0,-3,-1,0,4,0
15095,-1,-2,-1,-2,-3,0,1,0,0
15100,1,-2,-1,-1,0,-3,-2,-3,0
15105,-11,-1,1,-2,0,-1,1,-2,0
15110,-3,-1,-2,-1,-1,-3,-1,-2,0
15115,-1,1,-2,0,0,-4,-5,-1,0
15120,3,1,-1,0,-2,3,1,2,0
15125,-2,-4,-2,-3,-4,-2,-1,-3,0
15130,-5,-1,-1,1,-1,-2,-1,-1,0
15135,-1,0,-2,0,0,-1,-1,0,0
15140,-4,-1,-3,-1,0,-2,-2,-2,0
15145,3,-1,-3,0,0,0,-1,1,0
15150,-4,0,-2,-2,-2,-3,-3,-3,0
15155,1,-2,0,0,-2,1,2,0,0
15160,1,-1,-1,-2,0,0,-1,-1,0
15165,1,0,-2,-3,0,-1,0,-1,0
15170,-1,-4,-3,-2,0,1,1,-2,0
15175,-2,0,-1,-1,0,1,-2,-2,0
15180,-6,0,-1,-3,1,-1,0,1,0
15185,1,-2,1,-1,-2,-3,-2,0,0
15190,-5,0,-1,-1,1,-2,0,-1,0
15195,1,-2,-1,-3,-2,-2,0,0,0
15200,1,-2,-1,-1,-3,-2,-1,-1,0
15205,1,0,0,0,-3,0,-1,-1,0
15210,-2,-3,0,-1,0,-1,-2,-2,0
15215,0,-2,0,0,0,0,1,2,0
15220,1,-2,0,0,-3,-3,0,-1,0
15225,-2,-1,-3,-2,0,-1,-1,-2,0
15230,-7,-1,1,-2,-1,1,-2,-6,0
15235,6,-1,-3,0,0,-2,-1,2,0
15240,0,-2,-1,-1,-1,-2,0,-2,0
15245,-1,-1,-2,1,-3,-1,1,0,0
15250,1,1,0,1,-1,0,-1,-1,0
15255,-7,0,0,0,-1,-1,-2,-3,0
15260,1,0,-1,0,0,0,0,1,0
15265,1,-1,-1,-2,0,-1,-1,0,0
15270,-3,-2,-2,0,0,1,0,0,0
15275,-2,-3,0,0,-1,-1,-2,-1,0
15280,2,-1,-1,-4,-2,-4,-1,0,0
15285,-2,-2,-2,0,1,0,0,-1,0
15290,0,-3,-1,-1,0,-2,-1,-3,0
15295,-6,-2,0,-2,0,-1,-2,-3,0
15300,2,0,-2,1,-1,-2,0,0,0
15305,-1,1,-2,-2,-1,-2,-1,1,0
15310,9,0,0,-2,-1,0,0,2,0
15315,-3,-2,-1,0,0,3,0,0,0
15320,0,-3,0,-2,-3,-1,-2,-1,0
15325,-7,-3,-1,-1,1,-2,0,-3,0
15330,-3,0,-1,-1,-2,-3,-2,-1,0
15335,4,-1,0,0,3,2,2,0,0
15340,0,0,0,-2,0,-1,0,-1,0
15345,-1,-2,-1,-1,-2,1,0,-1,0
15350,-1,0,0,-2,-2,-1,1,-1,0
15355,1,0,-3,-1,-2,-1,0,0,0
15360,-2,-2,-4,1,1,1,-1,-3,0
15365,0,-2,0,-3,-1,-1,0,-2,0
15370,-6,0,-1,0,-1,0,-1,-4,0
15375,0,0,-3,-1,-2,-2,-1,2,0
15380,-2,0,-1,0,-1,-1,-2,-1,0
15385,2,0,-1,-3,-1,-1,-3,1,0
15390,1,-2,-1,0,0,0,-1,-2,0
15395,-3,-1,-1,0,-1,-1,-2,-4,0
15400,1,-2,0,-2,-2,-1,0,0,0
15405,-1,0,-1,-1,-2,-2,-1,-3,0
15410,-15,-2,-1,0,1,3,-1,-5,0
15415,-2,-1,-1,0,-3,-3,-1,0,0
15420,15,-1,0,-2,-4,-3,-1,6,0
15425,-2,0,-2,1,-1,-3,-1,-2,0
15430,-3,-2,-2,-2,0,-3,-2,0,0
15435,0,-1,0,-1,0,0,-1,0,0
15440,-5,-1,0,1,-1,0,-2,-3,0
15445,-4,-2,-1,-2,-1,-1,-1,-2,0
15450,5,-1,-2,-1,-2,1,1,1,0
15455,-2,-2,-1,-2,0,-1,-2,-2,0
15460,-5,0,-3,-1,1,0,-1,-3,0
15465,-1,-1,-2,-2,0,-1,-1,-2,0
15470,3,0,0,-1,-1,-2,0,2,0
15475,1,0,-1,-1,1,-3,0,0,0
15480,-2,-4,-2,-1,0,-2,-1,0,0
15485,-4,-2,0,-2,0,-1,0,-1,0
15490,-1,-1,-1,-2,-2,-2,-1,-1,0
15495,-1,-2,-1,0,-4,-2,-3,-2,0
15500,-1,0,-2,1,0,-2,0,0,0
15505,0,-1,-2,0,-2,-2,-3,-3,0
15510,-12,0,-2,-1,0,-1,-1,-1,0
15515,-1,-2,-1,-2,0,0,-1,-2,0
15520,-2,1,0,1,-1,0,0,-2,0
15525,3,0,-2,-1,0,1,-1,-1,0
15530,-1,-1,-1,-1,-1,-1,-4,-2,0
15535,-3,-1,-1,-1,-1,-2,0,-2,0
15540,-5,0,0,0,-1,1,-2,0,0
15545,-6,0,-2,-2,-1,0,0,-1,0
15550,3,0,0,-2,0,-1,-1,0,0
15555,0,-1,-2,-1,0,-3,-1,0,0
15560,-1,-1,-2,-2,-2,-1,0,-2,0
15565,1,-2,-1,-1,-1,1,-2,-1,0
15570,1,-1,-2,-2,-1,0,1,-2,0
15575,1,1,1,-2,0,0,-2,-2,0
15580,-2,-1,-1,-1,0,-1,0,-3,0
15585,-3,0,-1,0,-1,0,0,-2,0
15590,1,-1,0,0,0,-1,1,-1,0
15595,1,-3,-2,0,-2,-1,-2,1,0
15600,-9,-1,-2,-2,-1,-1,-1,-2,0
15605,2,0,0,-1,-1,-4,-1,2,0
15610,3,-2,-4,0,-4,2,0,0,0
15615,0,0,-1,-1,1,0,1,-1,0
15620,-4,-1,-2,-2,-2,-2,-2,-3,0
15625,1,-2,0,-2,0,0,-1,1,0
15630,-5,-2,0,-2,-1,-3,-2,-1,0
15635,8,0,1,0,-2,0,0,3,0
15640,-4,-1,-2,-2,-3,-1,-1,-1,0
15645,12,0,-1,0,-1,0,1,4,0
15650,0,-1,-1,1,0,-1,-1,-4,0
15655,-4,-2,0,-1,-1,0,-2,-2,0
15660,1,-1,-1,-1,-1,-4,-2,0,0
15665,-3,-2,-1,-1,-1,-2,-3,-1,0
15670,-1,-2,-3,-2,0,-1,-2,-1,0
15675,-1,-1,-1,-2,-1,1,-1,-1,0
15680,2,0,0,-1,-2,-3,1,3,0
15685,-7,-4,-2,-2,-2,2,-2,-3,0
15690,1,-1,-2,-3,-2,-2,-1,1,0
15695,-3,-1,-2,-1,-1,-2,-1,-4,0
15700,-7,-2,0,-1,1,1,-1,-2,0
15705,0,0,-1,1,-1,-3,2,-1,0
15710,-2,-1,-2,-1,0,-1,-3,-2,0
15715,1,-1,-3,-1,-1,-1,0,-1,0
15720,-3,0,0,1,0,1,-1,-2,0
15725,-3,0,-2,0,-1,-1,-1,-2,0
15730,2,-1,0,2,0,-1,-1,1,0
15735,-5,-1,0,-1,0,1,0,0,0
15740,3,-1,-1,-2,-2,-2,-2,-2,0
15745,-3,-1,-3,-2,0,4,0,0,0
15750,1,-2,-1,-1,-1,-2,-1,-2,0
15755,-3,-2,0,-4,0,0,-3,-2,0
15760,2,-2,-1,-2,-2,-1,-1,-3,0
15765,-1,-1,-1,1,-2,-1,1,0,0
15770,-6,-2,-3,-1,-1,-2,-1,-3,0
15775,12,2,-2,1,-3,1,3,4,0
15780,0,-2,-1,1,-1,-1,0,-2,0
15785,-3,-1,0,0,-1,-4,-2,-1,0
15790,-7,-2,-2,-3,-1,-1,-1,-2,0
15795,-2,-2,-2,0,-1,-2,-2,-2,0
15800,1,-2,-1,-2,-2,-1,-1,-1,0
15805,-6,-1,-1,1,0,-1,-3,0,0
15810,1,-2,-1,-1,-1,-2,-1,0,0
15815,-5,-2,-1,0,2,-1,1,-2,0
15820,4,-1,-2,-1,-2,-3,-2,1,0
15825,-5,-2,-1,-2,0,-1,-1,-3,0
15830,0,-2,-1,-4,-2,-1,0,-1,0
15835,-5,-1,-1,-1,-1,-1,-1,-4,0
15840,-2,-1,-1,-2,0,-1,0,-2,0
15845,1,-1,-1,0,-1,1,-2,-1,0
15850,3,-1,0,0,-2,-3,-2,1,0
15855,-2,-1,-1,0,-1,1,1,-1,0
15860,1,-1,-2,0,-1,-2,1,-1,0
15865,0,-1,-1,-3,0,-1,0,-1,0
15870,0,-1,-1,-2,1,0,-1,-2,0
15875,-3,-2,-1,-2,-2,-1,-1,-2,0
15880,-4,-1,-1,-1,-2,-2,0,-3,0
15885,-5,-1,-1,0,-2,-3,-1,-3,0
15890,4,2,0,2,2,0,1,1,0
15895,1,0,-2,-2,-3,-4,-1,1,0
15900,2,-2,-2,0,1,0,-1,1,0
15905,-3,-1,-1,-1,-1,-3,-1,-3,0
15910,1,-1,1,-2,-1,0,-1,-1,0
15915,-4,-2,0,-2,0,-1,-2,-3,0
15920,-3,-2,-2,-1,1,0,0,0,0
15925,8,-1,-1,0,1,-2,-2,-1,0
15930,-4,0,-1,-2,0,1,-1,-3,0
15935,2,-2,-1,0,0,2,-1,0,0
15940,-10,-2,0,-3,-3,-2,0,-1,0
15945,-1,-3,-2,1,-1,0,1,-3,0
15950,0,0,-1,-1,-4,-2,-3,0,0
15955,-4,-2,-2,-2,0,0,-2,-2,0
15960,3,0,0,-2,-1,-1,0,-1,0
15965,2,-1,-1,-1,-2,-1,1,1,0
15970,-3,-1,0,0,-2,-1,-1,-1,0
15975,-1,-1,-1,0,-1,-1,-2,-1,0
15980,0,0,-1,0,0,1,0,-1,0
15985,-4,-2,-1,-2,-1,2,0,-2,0
15990,8,-1,-1,0,1,0,-1,4,0
15995,4,0,0,-2,-4,-2,1,1,0
16000,0,0,-1,-1,0,0,-1,0,0
16005,-4,0,-1,-2,-2,-2,-3,-3,0
16010,0,-1,-1,0,-1,-2,-2,-3,0
16015,-3,-1,-1,0,-1,-1,-2,0,0
16020,2,0,-1,0,-2,1,-2,-1,0
16025,-1,0,-1,-2,-3,-1,0,-1,0
16030,-6,-3,-2,-1,0,0,-1,-3,0
16035,-5,0,-1,-3,0,-2,-2,0,0
16040,0,0,-1,-2,-1,-1,-3,-1,0
16045,1,-1,0,0,1,2,0,1,0
16050,-1,0,0,-1,-1,-1,2,-1,0
16055,-2,-3,-1,-1,-3,-3,-2,-2,0
16060,-4,-1,-2,1,-1,-2,-1,-2,0
16065,8,0,-1,-2,0,0,1,4,0
16070,-4,0,-1,0,-2,-2,-1,-2,0
16075,-4,-2,-3,-2,0,-1,-1,-3,0
16080,-2,-2,0,-1,-1,-2,-2,-3,0
16085,-16,-1,-2,-1,-2,-2,-4,-1,0
16090,18,2,-1,1,1,0,2,5,0
16095,0,-2,0,-1,0,-2,-2,0,0
16100,-3,-2,-1,-4,-1,-2,0,-3,0
16105,-2,-2,-3,-1,-3,-2,-2,-1,0
16110,-6,0,-1,-2,-1,0,-2,-3,0
16115,-1,0,-2,-1,1,0,-1,-2,0
16120,5,-1,0,-3,0,2,1,2,0
16125,2,-1,0,0,0,-1,-3,-1,0
16130,-4,-3,-1,-2,0,-1,1,-1,0
16135,-1,-2,-2,-3,-3,-2,-3,-1,0
16140,9,2,0,1,0,0,-2,1,0
16145,0,-1,0,0,-1,2,0,-2,0
16150,-5,-2,-2,0,-2,-2,-1,-2,0
16155,-1,-1,-2,-1,0,-2,1,-2,0
16160,-4,-3,-2,-1,-2,-1,-2,-3,0
16165,-4,0,-1,-2,-1,-4,-1,2,0
16170,-2,-2,-1,-3,0,2,-2,0,0
16175,-5,-2,-2,-1,-1,-1,-1,-1,0
16180,-2,0,-1,-1,-2,-2,-3,-3,0
16185,8,1,0,1,3,-2,-1,1,0
16190,-6,-1,-3,-5,-3,2,0,-3,0
16195,1,0,-1,-1,0,0,1,1,0
16200,-3,-1,-2,-2,-2,-2,0,-1,0
16205,-3,-2,-1,-1,-2,-1,-2,-3,0
16210,-1,-1,0,-1,-1,-2,-3,-1,0
16215,1,0,-2,-2,-1,0,-1,-1,0
16220,-3,1,-1,1,-1,-2,-3,0,0
16225,-2,0,-1,-1,-1,-1,-1,-2,0
16230,-1,0,0,-1,-1,-3,0,0,0
16235,-1,1,-1,1,-1,-1,-3,-2,0
16240,-7,-1,-1,-1,0,1,2,1,0
16245,1,-2,-2,-2,-2,0,-3,-2,0
16250,-3,0,0,-1,-1,-1,-3,-1,0
16255,-13,-2,-2,-1,-1,0,-1,-4,0
16260,24,1,1,1,1,1,1,6,0
16265,-6,-2,-1,-1,-3,-2,-2,-3,0
16270,3,-1,0,-1,-1,-1,-1,0,0
16275,-4,-1,-1,0,0,-1,-1,-3,0
16280,-5,-2,-3,-3,-1,-1,-1,-1,0
16285,-3,-1,-2,-3,-1,-2,0,-2,0
16290,1,0,-1,2,-1,-3,-1,-1,0
16295,3,0,-1,0,-1,1,-1,1,0
16300,-6,-2,-2,0,-2,-2,-2,-2,0
16305,4,0,-2,-2,0,-1,-2,0,0
16310,-5,-2,-2,-1,-2,-1,-1,-2,0
16315,4,0,-1,0,2,1,0,0,0
16320,-3,-2,-2,-2,-1,-1,-1,-1,0
16325,-7,-2,-1,0,0,0,0,-1,0
16330,-2,-2,-1,-3,-2,-2,-3,0,0
16335,1,0,-1,-2,-3,0,-1,3,0
16340,-5,-3,-1,-1,-1,-3,-3,-3,0
16345,8,0,-1,0,-1,2,3,4,0
16350,-4,-2,-1,-1,-2,-2,-3,-2,0
16355,-3,-2,0,0,-2,0,-2,-3,0
16360,-1,2,-1,-2,0,1,0,3,0
16365,-4,0,-1,-3,-1,-2,-2,-3,0
16370,-2,-2,-2,1,0,0,-1,0,0
16375,3,-1,0,-1,0,0,1,0,0
16380,-2,-2,-1,0,-2,-5,-1,-4,0
16385,-1,0,0,-2,0,0,-2,1,0
16390,3,0,0,-1,-1,-2,-1,-1,0
16395,-1,-1,0,-2,-2,-3,-2,-2,0
16400,-2,-2,-2,-1,-3,0,2,-2,0
16405,-1,-3,0,-1,-1,-1,0,-1,0
16410,7,-2,-2,-2,-2,-3,-1,4,0
16415,11,1,-1,-1,0,-2,-2,3,0
16420,-5,-3,-1,-1,0,0,-1,-3,0
16425,10,-1,1,0,0,-1,-2,3,0
16430,-6,-2,0,0,0,-2,-1,-5,0
16435,-6,-1,-1,-1,-1,-1,0,-2,0
16440,1,-1,-1,-1,0,-1,-1,-1,0
16445,-5,0,-3,-1,-2,-1,-2,-2,0
16450,-2,-1,-1,-2,1,-1,0,-2,0
16455,1,-2,-2,-2,-4,-3,0,1,0
16460,-3,-2,-1,-1,-1,-3,-2,-1,0
16465,-3,-1,0,0,-1,0,-1,-1,0
16470,1,0,-1,-2,1,0,-1,-2,0
16475,-2,-1,-1,-2,-1,-1,-2,-1,0
16480,0,-1,-1,-1,-3,0,1,0,0
16485,-2,-1,-2,-2,-2,-2,-2,-2,0
16490,-9,-2,-1,-2,0,-3,1,-2,0
16495,-8,0,0,0,1,2,-1,-5,0
16500,8,2,-1,-1,0,2,0,6,0
16505,0,-1,1,-1,-1,-1,-1,-5,0
16510,-7,-1,-1,0,-2,0,-2,-2,0
16515,-5,-2,-1,-1,-1,-2,-1,-1,0
16520,-4,-1,-2,-1,-2,-3,-2,-4,0
16525,-2,0,-1,0,-1,1,-1,0,0
16530,3,0,-1,-3,1,-1,0,1,0
16535,-2,-2,-1,1,0,-4,-2,-1,0
16540,0,-1,-1,-2,0,-3,-2,-1,0
16545,1,-2,-3,0,1,1,0,-1,0
16550,1,-2,-2,-3,-1,-1,0,-1,0
16555,3,-1,-2,-2,0,3,-1,-1,0
16560,-3,0,-1,-1,-1,-2,0,-2,0
16565,-3,-3,-1,1,-2,-4,-2,-2,0
16570,0,-2,-2,0,0,-1,-2,-1,0
16575,-11,-2,-1,0,-3,-3,0,-2,0
16580,-2,-1,-1,-1,-1,0,-1,-3,0
16585,6,1,-1,-2,0,1,1,5,0
16590,4,0,-1,1,-1,1,0,2,0
16595,0,-2,0,0,-3,-3,-1,-3,0
16600,-10,-3,-2,-1,-2,-3,-3,-6,0
16605,-1,-3,-1,-1,-2,0,1,0,0
16610,-1,-2,-3,-2,-1,1,-2,-3,0
16615,3,0,-1,1,0,0,0,0,0
16620,-1,-2,0,-2,0,-2,0,-2,0
16625,-10,-2,0,0,0,-4,-2,-5,0
16630,37,2,1,1,1,7,3,14,0
16635,-2,-2,-3,-6,-6,-4,-4,-3,0
16640,8,-4,0,-1,0,0,0,1,0
16645,-7,3,0,-1,-2,-4,-2,-5,0
16650,0,-2,-4,-2,-4,-4,0,2,0
16655,2,0,2,1,2,1,1,0,0
16660,2,-1,-1,-1,-2,0,0,2,0
16665,-5,-4,-1,-2,0,-2,-1,-4,0
16670,-10,0,0,2,0,-2,-1,-4,0
16675,1,-1,1,-1,2,0,1,-2,0
16680,-1,-4,-3,-4,-1,-3,-3,-1,0
16685,-29,-2,-2,-1,-1,1,-1,-12,0
16690,47,8,-2,-2,-2,-5,-1,14,0
16695,-13,-8,-3,-2,0,0,1,2,0
16700,4,8,8,5,1,0,1,-2,0
16705,14,4,-7,-7,-2,-1,-1,6,0
16710,-14,-5,-1,0,-1,0,-2,-9,0
16715,-8,-5,-2,-1,-1,-4,-3,-1,0
16720,5,-4,-2,1,-2,0,-1,1,0
16725,-7,-5,-3,-2,-3,-2,-1,-3,0
16730,-26,-3,2,1,-1,-2,0,-6,0
16735,13,3,-1,-1,-1,0,-2,2,0
16740,-9,0,-3,-2,1,-1,0,-3,0
16745,35,7,4,1,0,-2,2,13,0
16750,-20,-16,-5,-3,0,0,-3,-7,0
16755,-9,17,8,0,0,-1,0,-2,0
16760,10,0,-4,-1,-1,-2,-2,4,0
16765,16,8,5,-1,1,0,0,6,0
16770,4,-2,-2,-2,-3,-2,-2,-4,0
16775,-15,-11,-8,-5,-3,-3,-3,-6,0
16780,-30,-4,-2,-2,-2,0,-2,-7,0
16785,45,1,1,1,0,0,2,11,0
16790,-23,-2,-1,0,-1,0,-1,-11,0
16795,6,0,-2,2,-1,0,-1,4,0
16800,-2,-2,-3,-2,-2,-2,0,-2,0
16805,-15,-10,-3,0,0,1,-3,-4,0
16810,-7,1,1,-2,-2,-2,-1,-5,0
16815,-1,-7,-3,-2,-1,-1,0,-4,0
16820,25,5,2,0,-2,2,2,13,0
16825,-7,-2,0,0,-2,-1,-2,-1,0
16830,1,2,-1,0,0,-3,-1,1,0
16835,-4,0,-2,-2,0,-1,-3,-4,0
16840,-4,-5,-2,0,-1,0,0,0,0
16845,-17,-5,-2,-3,-1,-2,-2,-8,0
16850,7,2,1,0,-1,1,1,1,0
16855,5,-3,-2,-1,-2,-1,0,-2,0
16860,-17,-2,0,0,0,-2,-3,-4,0
16865,-10,-1,-3,0,0,-1,-2,-8,0
16870,10,0,-3,-3,-4,-2,3,6,0
16875,1,-2,0,0,-2,1,0,5,0
16880,10,-3,-4,-2,-2,0,-3,-3,0
16885,-32,-5,-3,-1,-1,-1,-4,-9,0
16890,-4,-2,-1,1,1,-5,-4,-2,0
16895,13,2,0,0,1,2,2,4,0
16900,-3,1,-1,1,-1,-1,0,7,0
16905,5,-1,-3,-3,-2,-2,-1,-4,0
16910,-2,-5,-3,-1,1,1,-1,-2,0
16915,2,-1,-1,-1,0,0,-1,-2,0
16920,-9,-3,-1,0,-2,-3,-4,-6,0
16925,3,-4,-2,0,-1,0,2,1,0
16930,-4,0,-3,-2,-1,-1,-2,-3,0
16935,-5,-4,0,-2,-1,-2,-1,-2,0
16940,9,3,-2,-1,0,2,2,0,0
16945,-2,-2,0,0,-2,-3,-1,-2,0
16950,0,-1,0,-2,-1,0,-3,0,0
16955,-12,-5,-4,-1,-2,-3,-3,-5,0
16960,-6,-2,-1,-1,-1,-1,-1,-2,0
16965,-4,-1,-1,-1,0,-2,-2,-2,0
16970,-3,1,-3,-2,-1,0,1,0,0
16975,5,1,0,0,0,-1,0,1,0
16980,-10,2,2,0,-1,-2,-2,-8,0
16985,23,-2,-8,-2,-2,-2,1,12,0
16990,-18,-10,1,0,0,0,-1,-8,0
16995,16,9,-3,-6,-5,-4,0,2,0
17000,-13,-4,-1,-2,0,-2,0,-5,0
17005,-1,-4,0,-2,-3,-1,0,1,0
17010,12,3,2,1,4,0,1,6,0
17015,11,-6,-6,-1,-3,-2,0,3,0
17020,-3,-5,0,-2,0,-1,-2,-3,0
17025,-2,-4,-1,-2,-1,-3,-3,-4,0
17030,-14,-1,0,-1,-2,-3,-1,-4,0
17035,-2,5,2,-1,-1,-1,-3,0,0
17040,6,-5,-2,-3,-1,0,-1,1,0
17045,-18,-4,-1,-1,0,0,-4,-10,0
17050,-26,1,-2,-1,0,1,0,-6,0
17055,33,-1,0,1,-1,-1,0,9,0
17060,-4,-3,-4,-4,-2,-3,-2,-7,0
17065,-15,4,1,-1,-2,1,-1,-5,0
17070,16,-2,-3,0,-2,-3,-1,8,0
17075,-22,-8,-2,0,0,-1,-2,-8,0
17080,5,15,1,1,-1,0,0,1,0
17085,1,2,1,-1,1,-1,-1,-4,0
17090,2,3,-2,-2,-2,-2,-2,1,0
17095,-9,-3,-3,-2,1,-1,-3,-1,0
17100,5,-6,-3,-2,0,1,-2,-3,0
17105,1,0,4,1,-2,-2,0,3,0
17110,-13,0,-7,-2,1,0,1,-6,0
17115,7,-7,-5,-20,-2,0,0,4,0
17120,-17,9,25,27,4,0,-1,-3,0
17125,26,4,0,3,2,1,1,10,0
17130,-5,-5,-9,-3,-4,-2,-3,-4,0
17135,3,-1,18,9,0,1,-1,-6,0
17140,0,0,-18,-18,-3,0,-1,6,0
17145,-8,-4,-2,0,-1,-1,-1,-1,0
17150,0,-3,3,0,-1,-1,-2,-1,0
17155,0,1,-10,-1,-1,-1,1,-3,0
17160,-5,3,-1,-2,-1,-1,-2,-1,0
17165,4,-1,1,1,1,0,1,-1,0
17170,-5,-3,-4,-5,-3,-3,-3,-8,0
17175,-5,3,-1,2,0,-1,-2,1,0
17180,-8,-9,-5,-2,-2,-1,1,-3,0
17185,11,0,3,-3,-1,0,1,5,0
17190,5,1,-1,-4,-3,-6,-3,0,0
17195,-28,-13,-5,2,0,-1,-2,-13,0
17200,61,10,2,1,-1,-1,1,17,0
17205,-9,-5,-4,-5,-4,0,-3,-7,0
17210,4,1,5,1,-3,0,-3,2,0
17215,-9,-2,-5,-2,0,-1,-1,-5,0
17220,-25,-7,-9,-5,-1,-3,-2,-5,0
17225,-16,-3,0,0,0,-3,-2,-5,0
17230,11,-1,2,4,3,1,1,5,0
17235,-19,7,-2,-3,-1,1,-1,0,0
17240,7,-7,0,-3,-1,0,-2,1,0
17245,5,0,-1,-1,1,-2,1,-1,0
17250,-15,2,-1,0,-3,1,-3,-8,0
17255,4,0,5,1,-1,-2,-3,4,0
17260,-15,-5,-2,-1,-2,-1,0,-6,0
17265,13,8,0,1,0,-1,-1,6,0
17270,32,0,0,-4,0,-1,1,8,0
17275,-4,-2,-6,-1,-1,-1,-1,-3,0
17280,-8,-8,3,0,-1,0,-3,-4,0
17285,3,-2,-3,-1,-1,-2,-2,-4,0
17290,-18,-4,-10,-2,-1,-3,-1,-3,0
17295,25,6,7,1,1,1,1,4,0
17300,5,-6,-4,-2,-2,-3,0,-2,0
17305,-38,-7,-3,-2,-2,-2,-4,-9,0
17310,-1,3,3,0,2,1,1,2,0
17315,5,1,-1,1,-1,-2,1,2,0
17320,-16,-2,-4,-1,-2,-2,-2,-6,0
17325,24,3,1,-2,0,1,1,8,0
17330,-18,-4,-3,-1,-2,-1,-3,-10,0
17335,-15,-4,-2,-2,-1,-2,-2,-5,0
17340,-1,0,-2,-1,1,-3,-2,-2,0
17345,-6,0,-2,-2,-2,-3,0,-1,0
17350,2,1,3,1,-1,0,1,3,0
17355,13,-1,-3,-1,-3,0,0,2,0
17360,-1,-1,-4,-3,-2,0,-1,0,0
17365,-3,-3,0,-3,-1,1,-2,-4,0
17370,13,0,2,-2,1,2,1,5,0
17375,-7,0,-2,-1,-2,-5,-4,-6,0
17380,-25,1,-2,0,-1,0,-1,-2,0
17385,4,-2,-4,-7,-4,-2,-1,-4,0
17390,2,0,1,1,-2,-1,-2,2,0
17395,-5,-3,-4,-4,-1,0,0,0,0
17400,23,-3,2,1,-1,0,-1,3,0
17405,-20,-2,-4,-1,0,-2,-3,-3,0
17410,13,-1,-1,0,0,-1,0,2,0
17415,-10,-3,-1,-3,-2,-1,-3,-4,0
17420,1,3,-1,-2,0,-1,0,-1,0
17425,-13,-3,-2,1,0,-1,-2,-2,0
17430,2,-1,1,-1,-1,-1,1,-1,0
17435,7,0,1,-1,0,0,1,5,0
17440,-1,-1,-1,-1,-2,0,0,1,0
17445,-2,-1,-2,1,-1,-1,-2,-5,0
17450,-22,-1,0,-3,0,-2,-1,-4,0
17455,12,0,0,0,0,0,0,-1,0
17460,-5,-2,-3,-4,-2,-4,-4,-6,0
17465,-4,-2,-2,0,-1,-1,0,-2,0
17470,-8,-3,-2,-1,-1,-1,-2,-4,0
17475,8,3,-1,0,-1,-1,0,4,0
17480,1,-1,-2,-2,1,0,0,-4,0
17485,4,0,0,0,-1,-1,-1,1,0
17490,1,-2,-1,-2,-2,0,-1,0,0
17495,-9,-3,0,0,-1,0,-1,-3,0
17500,2,1,-1,-1,-3,0,-1,-1,0
17505,6,0,0,0,-1,0,0,2,0
17510,-9,-1,-2,-1,-3,-3,-2,-4,0
17515,-1,-3,0,-2,-1,-2,-1,-1,0
17520,2,-4,-2,-2,-1,-2,-2,0,0
17525,-1,0,0,-1,1,0,-1,1,0
17530,9,-1,-2,-1,1,0,-3,2,0
17535,-21,0,-1,-1,-3,-1,-1,-3,0
17540,3,0,0,2,-1,0,2,6,0
17545,-11,-3,-2,-3,-4,-2,-2,-3,0
17550,5,2,1,1,0,2,1,0,0
17555,24,1,0,1,-1,0,-2,3,0
17560,-25,1,1,1,3,0,-3,-7,0
17565,29,3,-4,-5,-5,-5,0,11,0
17570,-2,-1,2,3,1,1,-1,-1,0
17575,-6,-5,-1,0,1,-1,-1,-5,0
17580,-3,-3,-2,-2,0,2,0,-1,0
17585,-3,-5,-6,-3,-3,-3,-3,-3,0
17590,-1,0,-2,-3,-2,-1,-2,-1,0
17595,-9,-2,-1,-2,-3,-3,-1,-4,0
17600,9,-3,-2,0,0,-3,0,-2,0
17605,-14,1,2,0,1,1,3,3,0
17610,-1,-2,2,-1,-2,-2,-1,-4,0
17615,-15,-1,1,0,-2,0,-2,-3,0
17620,17,-2,-9,-5,-3,0,0,7,0
17625,-1,-3,-2,0,0,0,-1,-6,0
17630,-27,-6,-4,-2,-1,-3,-2,-7,0
17635,17,2,-4,0,1,0,0,5,0
17640,8,2,8,-1,-2,-1,-1,1,0
17645,6,-1,-2,-2,0,-1,-2,1,0
17650,0,-3,-1,0,0,-1,0,-1,0
17655,-9,-2,-6,-3,-1,-3,-1,-4,0
17660,-2,1,-1,-1,-2,-2,-1,1,0
17665,-7,-6,-2,0,1,0,-1,-5,0
17670,-10,-2,-4,-4,-3,-2,-2,-4,0
17675,36,3,0,-2,-2,1,2,12,0
17680,-1,-5,0,0,-2,-1,-2,-5,0
17685,-32,-6,-2,-2,1,1,-2,-7,0
17690,9,2,5,-4,-6,-5,-3,0,0
17695,11,0,-4,-5,0,-1,-2,0,0
17700,-21,-5,7,5,1,-1,-1,-5,0
17705,19,4,-3,-1,-2,-2,-1,3,0
17710,13,-1,-1,2,2,1,0,5,0
17715,-22,-3,2,3,0,0,-2,-3,0
17720,18,3,-5,-3,-2,-4,0,3,0
17725,-5,-2,-3,-2,-2,-2,-1,-2,0
17730,8,3,-1,-1,1,0,0,5,0
17735,4,-1,2,0,-1,-2,-3,-1,0
17740,3,-2,-4,-1,0,1,0,-1,0
17745,-12,-2,1,0,-1,0,-1,0,0
17750,-4,-1,-4,-3,-1,-3,0,-6,0
17755,0,0,0,1,2,1,0,0,0
17760,-11,-1,-2,-2,-3,-5,-4,-5,0
17765,-2,-2,1,0,-1,-1,-3,-1,0
17770,-8,-1,0,-3,-3,-2,-1,-2,0
17775,-17,-2,-2,-4,0,-1,-1,-5,0
17780,4,1,-1,-3,0,-1,0,4,0
17785,7,-1,2,1,-1,-2,-1,0,0
17790,-1,-3,-3,0,-1,0,-2,1,0
17795,-10,1,-3,0,-2,-1,0,-3,0
17800,14,1,-3,-1,-1,0,1,7,0
17805,0,1,1,-1,2,0,0,-4,0
17810,1,-3,-3,0,0,1,-2,-4,0
17815,-29,-1,-3,-2,-2,-3,0,-1,0
17820,7,1,1,0,-1,-1,0,-2,0
17825,-2,0,1,-1,-1,-2,-2,-1,0
17830,-3,0,-1,0,0,-1,-2,-2,0
17835,2,0,-2,0,-1,0,0,-1,0
17840,-18,-3,-1,-1,0,1,-1,-2,0
17845,42,3,-1,-1,-2,0,2,15,0
17850,-8,0,-3,-2,-1,-1,-1,-2,0
17855,4,1,-1,2,0,-1,-2,0,0
17860,-5,-3,-2,0,-1,-3,-2,-5,0
17865,-13,-1,0,1,0,1,2,-3,0
17870,5,-2,-1,-3,0,-1,-2,0,0
17875,-3,-2,-1,1,0,0,1,-1,0
17880,10,1,-2,-1,-2,-1,1,2,0
17885,-12,-3,0,0,-1,-2,-3,-9,0
17890,22,1,-1,-1,-2,-1,1,7,0
17895,-9,-3,-2,-1,-3,-1,-2,-4,0
17900,8,1,1,0,-1,1,-3,0,0
17905,-2,0,-2,-4,0,-2,-1,-1,0
17910,-11,-2,-2,-2,-2,0,-1,-2,0
17915,6,1,-1,-2,-1,-2,-1,1,0
17920,0,1,-1,0,1,0,0,3,0
17925,7,-2,-2,-2,-1,-3,-3,-3,0
17930,-11,-3,0,0,0,-1,-1,-5,0
17935,0,-2,-2,-4,-2,-1,-2,0,0
17940,-16,-2,-2,0,-2,-2,-3,-8,0
17945,12,0,-1,0,1,-1,1,7,0
17950,-5,-1,-2,-1,-1,-2,-3,-1,0
17955,-3,0,-1,0,-1,1,1,-1,0
17960,7,1,2,1,0,0,0,2,0
17965,-5,-3,-3,-5,-1,-1,-2,-5,0
17970,-4,-3,-2,-2,0,-1,-3,-2,0
17975,-4,-2,-1,0,0,-2,-1,-2,0
17980,13,-1,-1,-2,-2,-1,0,4,0
17985,-3,0,1,0,-2,0,0,-4,0
17990,-9,-1,-1,-3,-1,1,-1,-3,0
17995,-2,-2,1,-1,-2,-1,-2,-3,0
18000,-7,-1,-2,-3,1,-1,-1,-2,0
18005,0,-1,-1,0,-1,-2,0,0,0
18010,2,-2,0,0,0,-2,0,-1,0
18015,-13,0,1,2,-1,0,1,2,0
18020,12,2,0,-3,-1,-1,-2,2,0
18025,-6,-2,-4,-3,-2,-2,-3,-2,0
18030,-8,-1,-1,2,0,0,0,-3,0
18035,5,0,-1,-3,-1,-2,0,0,0
18040,-6,-2,0,-1,-3,-2,-2,-3,0
18045,-9,-1,-1,0,0,1,-1,-5,0
18050,8,0,-2,0,-2,-1,0,3,0
18055,-1,0,-1,0,0,0,-2,-1,0
18060,0,-2,-3,0,-1,1,-1,0,0
18065,-3,-3,1,-1,-1,-1,-1,-5,0
18070,4,0,0,-1,-1,-1,-1,0,0
18075,1,0,-1,-1,-1,-1,0,4,0
18080,-8,-3,-3,-1,-1,0,0,-3,0
18085,9,0,-2,0,0,1,-1,1,0
18090,0,0,-1,-2,-3,-2,-2,-2,0
18095,1,-1,-1,-1,-2,-1,0,-4,0
18100,1,-1,-2,-2,-1,-3,0,-1,0
18105,-1,-2,-1,-2,0,-2,-1,-6,0
18110,-17,-4,0,-2,-2,-3,-3,-5,0
18115,29,4,-1,-1,0,-1,0,6,0
18120,15,1,-1,0,0,-1,-1,5,0
18125,-5,-2,-1,0,-2,0,-2,-2,0
18130,-7,-3,-1,-2,-1,-1,0,-3,0
18135,-18,-3,0,-2,-1,1,0,-7,0
18140,-1,0,-1,0,0,-1,1,0,0
18145,7,0,-1,0,-1,-2,-1,4,0
18150,0,1,-1,-1,-2,-1,-1,-1,0
18155,-3,-3,-2,-1,-2,-2,-2,-3,0
18160,-29,-2,-2,-2,-1,-2,-3,-10,0
18165,36,3,0,0,1,0,2,14,0
18170,-1,2,-2,-1,1,-1,0,2,0
18175,2,0,0,-2,-1,-1,-2,-3,0
18180,-25,-3,-1,-1,-1,-2,-2,-6,0
18185,0,-1,-1,-1,-2,-3,-1,0,0
18190,-5,-2,-3,0,-1,-3,-2,-1,0
18195,16,1,-2,-1,0,0,1,7,0
18200,-1,-1,-1,-2,-1,-1,-2,-2,0
18205,-9,-1,0,0,-2,-1,-2,-5,0
18210,-1,-3,-1,-2,-1,-3,-2,-2,0
18215,-6,-4,-2,-1,0,-1,-2,-2,0
18220,3,1,-1,-1,-1,-1,0,1,0
18225,-16,-1,-1,-1,-2,-1,-1,-5,0
18230,12,0,0,0,1,1,0,2,0
18235,-2,1,-2,-1,0,-1,-3,-1,0
18240,-1,-3,-1,-1,-1,0,-2,1,0
18245,16,-1,0,0,-2,0,-2,1,0
18250,-7,0,-1,1,0,0,-1,-2,0
18255,14,-1,-2,-2,0,-3,1,7,0
18260,-7,0,0,0,-2,-1,-2,-2,0
18265,5,2,0,0,0,0,-1,6,0
18270,-6,-3,-1,-1,-3,-2,-1,-4,0
18275,3,0,-2,-1,0,1,-2,-3,0
18280,-3,-4,0,-1,0,0,-2,-4,0
18285,-24,-2,-1,-1,-2,-3,0,-4,0
18290,19,2,0,1,0,0,3,5,0
18295,-14,-3,-2,-1,-1,-1,-2,-4,0
18300,3,-1,-1,-2,-3,0,1,0,0
18305,-11,-2,-1,-1,0,-1,-2,-4,0
18310,-5,-2,-2,-1,-1,-2,-1,-2,0
18315,-7,-1,1,0,1,0,2,-2,0
18320,5,3,0,-1,-1,0,0,3,0
18325,17,2,-2,-2,-2,0,1,0,0
18330,-13,-2,-2,0,-3,-3,-3,-2,0
18335,-2,-2,-2,-1,-2,-1,-2,-1,0
18340,0,-1,2,2,2,-4,1,0,0
18345,-12,-3,-4,-5,-2,-2,-1,-6,0
18350,-7,-2,-1,-3,-2,-2,-2,-7,0
18355,11,2,-1,2,-1,0,2,9,0
18360,0,0,-2,-3,-2,-1,-1,-1,0
18365,-7,-5,0,-1,-1,2,-1,-1,0
18370,1,-2,-2,0,-2,2,-2,-2,0
18375,-7,-3,-2,-2,-2,-1,-1,-3,0
18380,2,-2,-2,0,-2,-3,-1,0,0
18385,-5,-2,-1,1,-1,-1,-1,0,0
18390,-11,0,-2,-2,0,-2,-2,-2,0
18395,6,0,3,-1,0,-1,0,2,0
18400,6,2,-2,-1,0,1,0,2,0
18405,-2,-2,-3,-2,-1,-2,-2,-3,0
18410,-4,-1,0,-2,-1,-3,-2,-2,0
18415,-6,-2,-3,-1,-3,-1,-1,-1,0
18420,6,1,-1,-1,-1,0,-2,-1,0
18425,-4,-2,0,1,-3,-1,-2,-1,0
18430,-7,-1,-1,-2,1,-1,0,-3,0
18435,-12,-1,1,-1,-1,-1,1,0,0
18440,3,-2,-1,-2,-1,-1,0,2,0
18445,-3,-1,-1,0,-2,-1,-1,-2,0
18450,5,-1,-1,1,-1,1,-2,-1,0
18455,-15,-2,-2,-1,-1,0,-3,-5,0
18460,-4,-4,-2,-1,-3,-1,-1,-3,0
18465,-2,1,1,-1,0,-2,0,2,0
18470,3,-1,-2,-2,-2,-1,-1,2,0
18475,-2,-2,-1,-1,-1,-2,-3,-4,0
18480,-8,-2,-3,0,0,-1,-2,-6,0
18485,11,1,-1,-2,0,0,0,3,0
18490,2,-2,-1,-1,-3,-1,0,1,0
18495,1,-3,2,1,-3,-2,0,-4,0
18500,1,1,-4,-4,-1,-3,-1,0,0
18505,-2,-3,-1,1,0,0,0,-2,0
18510,-4,-1,-4,-2,-1,-2,-1,0,0
18515,1,0,-2,-2,-1,-2,-3,-1,0
18520,-7,-3,-1,0,-1,2,-2,-6,0
18525,15,0,1,-1,0,1,0,4,0
18530,0,0,-2,-2,-3,0,0,2,0
18535,11,0,-1,0,-1,1,0,0,0
18540,5,2,1,-1,1,-1,0,4,0
18545,-2,0,-3,-2,0,-2,-2,-2,0
18550,-13,-3,0,-1,0,0,-3,-5,0
18555,14,3,-1,-2,0,0,1,3,0
18560,1,-1,-1,-2,-2,-1,0,0,0
18565,-3,-3,0,1,-1,-1,-1,0,0
18570,0,-2,0,1,0,-1,0,-3,0
18575,-13,-1,-3,-2,-1,-1,-3,-5,0
18580,0,0,0,0,0,0,0,1,0
18585,-5,-2,0,1,-3,-3,0,1,0
18590,1,2,0,0,0,-1,-1,-1,0
18595,0,-1,-1,-3,-1,-2,-1,2,0
18600,-16,-5,-1,-2,-2,-3,-3,-6,0
18605,17,1,-1,0,-1,-1,2,7,0
18610,1,0,-1,-3,-2,-2,-1,0,0
18615,6,-2,0,1,0,3,1,-3,0
18620,-2,-1,0,-1,-1,-2,-4,-2,0
18625,-17,-3,-2,-2,0,-2,-2,-7,0
18630,5,1,-1,-1,0,1,0,1,0
18635,-3,1,-1,-1,-3,-3,-1,0,0
18640,-1,-3,-2,-3,-1,-1,-1,-2,0
18645,-13,-1,-1,1,1,0,-1,-4,0
18650,12,0,1,-1,1,0,-3,1,0
18655,-19,-2,-1,0,1,-1,-2,-3,0
18660,17,1,2,4,-1,0,-1,7,0
18665,2,-1,-3,-5,-3,-3,-2,2,0
18670,-1,-3,0,-2,-1,1,0,0,0
18675,-4,-3,-3,-2,-3,0,-2,-3,0
18680,-2,-2,-1,0,-2,0,0,-2,0
18685,-11,-1,-1,0,1,0,-1,-5,0
18690,4,-2,1,-1,0,-2,-2,3,0
18695,-6,-3,1,-3,-1,-2,-2,-4,0
18700,-3,2,-2,-2,-1,-1,-1,1,0
18705,3,-2,-3,-2,-2,-1,-2,-4,0
18710,-9,-3,-2,-1,-1,-1,0,-3,0
18715,3,-2,-2,0,-2,-1,0,-2,0
18720,-11,-3,-1,-2,-2,-3,0,-3,0
18725,6,-2,-1,-1,-3,-1,-1,-2,0
18730,3,-1,-3,0,-1,-2,-1,-3,0
18735,-2,-3,-1,-2,0,0,-3,1,0
18740,13,0,0,-2,1,0,0,0,0
18745,-1,0,0,0,-1,-1,-3,-1,0
18750,-4,-2,0,-1,-1,1,-1,-2,0
18755,-21,0,0,-1,0,-2,-1,-5,0
18760,17,1,-1,-2,0,0,0,7,0
18765,-5,-2,-1,-3,0,0,-3,-3,0
18770,5,1,-1,-1,0,0,0,-1,0
18775,-11,-4,-2,-1,0,-2,-3,-7,0
18780,-25,-4,-2,-1,-3,-3,-2,-5,0
18785,38,4,-1,-1,-1,-2,3,10,0
18790,-3,0,-1,0,-1,2,-1,-4,0
18795,13,0,1,-1,-1,-1,2,3,0
18800,-1,0,0,1,-1,-1,-1,0,0
18805,-6,-3,-1,-2,-1,-4,-5,-2,0
18810,-1,-3,-1,-2,-2,-1,0,1,0
18815,9,-2,-3,-2,-1,0,-1,-1,0
18820,-9,-1,-1,0,-1,0,-1,2,0
18825,-16,-1,-1,0,-1,0,-2,-4,0
18830,-2,0,0,0,-2,0,-1,0,0
18835,6,1,-1,0,-1,0,-1,-1,0
18840,-6,-3,-3,-4,-3,-3,-1,-5,0
18845,7,0,0,1,-1,3,-1,2,0
18850,-7,-1,0,-1,2,-3,-1,0,0
18855,12,-1,1,1,0,0,1,0,0
18860,3,0,-1,-2,0,2,-1,-1,0
18865,13,1,0,-1,2,1,1,5,0
18870,-7,-2,-1,-1,-2,-3,0,-2,0
18875,-4,-1,0,-1,0,-2,-2,-1,0
18880,-4,-2,-1,-1,0,-1,-1,-2,0
18885,-13,-2,-1,-2,-1,-2,-3,-4,0
18890,-2,0,-2,0,0,-2,0,-3,0
18895,-1,-2,-1,0,-3,-1,-2,1,0
18900,-2,-1,-1,0,0,1,-2,-3,0
18905,-5,-1,-1,-2,-2,-3,-2,-2,0
18910,-1,-1,-1,-2,-1,-1,-2,-1,0
18915,6,-1,-1,0,-2,0,0,1,0
18920,4,-2,-2,0,-1,0,0,-2,0
18925,-4,-2,-2,-3,0,0,0,0,0
18930,2,-1,0,-1,-2,-1,-1,-1,0
18935,-4,1,0,-1,-2,-1,0,-2,0
18940,3,-2,1,0,0,0,0,1,0
18945,-5,0,1,-3,-1,0,0,-4,0
18950,-3,-2,0,-1,-2,-1,-1,-2,0
18955,2,-1,0,-1,0,0,0,1,0
18960,16,2,-1,0,-2,-1,0,7,0
18965,-12,-2,-2,-2,-2,-2,-1,-3,0
18970,6,-1,0,3,-2,0,-2,2,0
18975,-9,-2,-4,-5,0,-1,-2,-5,0
18980,-3,-1,-1,-3,-2,0,-1,-4,0
18985,0,0,-2,-1,0,2,1,1,0
18990,-5,-2,-1,-1,0,-4,-1,-3,0
18995,-4,1,-2,-1,-1,-4,-1,-1,0
19000,0,-1,-2,-3,0,0,0,-2,0
19005,0,-1,0,0,-1,1,-1,-3,0
19010,2,-4,-3,-3,-3,-1,-1,-3,0
19015,-26,-1,0,0,-2,-2,-1,-4,0
19020,9,0,-1,-2,-1,-2,0,3,0
19025,1,-1,-3,0,-1,-2,-1,0,0
19030,-9,-3,-2,-2,-3,-2,-2,-3,0
19035,-9,-4,0,-2,-1,0,-2,-2,0
19040,2,2,-1,-3,-1,0,0,0,0
19045,-6,-3,-1,0,-2,-1,0,-4,0
19050,-2,0,-2,0,-2,0,0,-2,0
19055,6,0,-3,1,-1,-1,0,-1,0
19060,-2,-1,-1,-1,0,0,-1,-2,0
19065,0,-2,0,-1,-2,-1,-3,-1,0
19070,-8,0,-2,0,1,-2,-3,-4,0
19075,8,0,0,-1,0,-2,-1,-1,0
19080,-8,-1,-3,-1,-2,-1,-3,-2,0
19085,2,-1,0,0,-1,-1,-2,-2,0
19090,0,-1,1,0,1,0,0,0,0
19095,5,-2,-2,-2,0,0,-1,1,0
19100,4,-2,0,-1,-1,-1,-2,-2,0
19105,-3,-2,-1,-2,-4,-2,-1,-3,0
19110,-5,-3,-1,-2,-1,-2,-2,0,0
19115,9,-1,-1,-1,-1,0,-1,2,0
19120,-9,-2,-3,-2,-1,-4,-2,-6,0
19125,15,2,0,-1,0,-2,1,4,0
19130,-9,-2,-2,-2,-1,1,0,-4,0
19135,-1,0,0,1,-2,-2,0,-1,0
19140,-4,-3,-1,-2,0,0,-2,-1,0
19145,-9,0,-1,-1,-2,-3,0,-4,0
19150,9,0,0,0,0,0,-1,2,0
19155,0,-2,-3,-3,-1,-1,0,-1,0
19160,-1,-1,-1,-2,-1,-2,-1,-2,0
19165,-4,-2,-2,-1,-1,-2,0,-2,0
19170,1,-1,-1,-1,-1,-2,-2,0,0
19175,-5,-1,-1,-2,0,1,0,1,0
19180,2,-1,-1,-1,-2,0,0,-1,0
19185,-7,-3,-1,0,1,0,-2,0,0
19190,3,-1,-1,0,2,0,1,-2,0
19195,-9,-5,-3,-3,-3,-3,-4,-4,0
19200,9,-1,-1,1,-1,-3,-1,1,0
19205,3,2,-2,-1,1,4,1,3,0
19210,-4,-2,-2,0,-2,-1,-3,-1,0
19215,3,-1,-1,-1,-1,-2,0,-2,0
19220,-6,-2,-2,-1,-2,-1,0,-4,0
19225,-11,-3,-2,-2,-1,-4,-1,-8,0
19230,20,1,-1,0,0,0,2,11,0
19235,4,0,0,0,-1,1,-1,0,0
19240,-2,-2,-2,0,-1,-1,-2,-1,0
19245,-2,0,-2,-3,-3,-1,-1,0,0
19250,-7,-3,-2,0,-2,-1,-1,-4,0
19255,0,-1,-2,0,-2,-1,-2,2,0
19260,0,-1,-2,0,2,1,-1,0,0
19265,-1,0,0,-2,0,0,-2,0,0
19270,-5,-1,-1,-2,0,-2,-1,-2,0
19275,-1,1,0,-1,-2,-2,-2,-2,0
19280,11,1,-2,-1,-1,3,3,5,0
19285,-8,-2,-1,-1,0,0,-2,-1,0
19290,8,-1,1,-1,-1,-3,1,2,0
19295,2,-3,-1,0,1,-1,-2,-1,0
19300,-9,-1,-1,0,-1,-3,0,-3,0
19305,-2,-2,0,-1,-2,0,-2,-1,0
19310,-2,-1,0,-3,-1,-2,-2,-1,0
19315,0,-2,0,-1,-1,-1,0,-2,0
19320,-3,-2,0,0,-1,-2,0,-2,0
19325,-2,-1,-3,0,-2,-1,-1,-2,0
19330,-9,-3,-2,-2,-3,0,-2,-2,0
19335,3,-1,-2,1,-3,0,0,0,0
19340,-6,-2,-1,-1,1,-1,-2,0,0
19345,2,-2,-2,1,-1,-3,-3,0,0
19350,-1,0,0,-1,-2,0,1,0,0
19355,0,-1,-3,-2,-1,1,1,0,0
19360,-3,-1,0,-2,0,-1,-1,-2,0
19365,-6,-1,1,-2,-1,-1,-1,-3,0
19370,12,0,-1,-1,-1,1,2,5,0
19375,11,0,0,-1,-1,-3,-2,2,0
19380,-4,-3,-2,-2,-1,-1,-2,-2,0
19385,16,0,1,-1,-1,-3,-1,2,0
19390,-29,1,-1,0,1,-1,-2,-4,0
19395,-6,0,0,0,-1,-2,-1,-1,0
19400,-2,0,-2,-1,-2,-1,-1,0,0
19405,6,0,-4,-2,-2,-1,-1,0,0
19410,-2,-3,-2,-1,-2,-1,-2,-4,0
19415,-6,-1,-2,-1,-1,-1,0,-3,0
19420,-10,-1,-2,-2,0,2,-1,-3,0
19425,-5,-1,-2,-1,-3,-1,0,-1,0
19430,1,-2,0,1,0,-1,-2,-2,0
19435,-3,-2,-2,-1,0,-3,-2,-1,0
19440,2,-1,-1,-1,-2,-1,-1,-2,0
19445,-8,0,1,0,0,0,-1,-5,0
19450,23,2,-1,-2,0,2,1,8,0
19455,1,-1,-2,0,-1,-2,-2,-3,0
19460,-7,1,-1,-1,-2,-2,-2,2,0
19465,-5,-3,-2,-1,1,-1,-2,-3,0
19470,-3,-2,-2,0,-2,-2,-1,-8,0
19475,-16,-1,-1,-2,-1,2,0,-1,0
19480,16,1,-1,0,0,-2,0,1,0
19485,-2,-2,-3,-1,-2,-1,-1,-1,0
19490,-5,-4,-1,0,1,-2,-4,-5,0
19495,-8,-1,1,-2,-2,1,-1,-6,0
19500,3,0,-1,-2,-2,0,1,1,0
19505,-1,-1,0,0,0,-3,0,0,0
19510,0,0,-1,-3,-2,-1,0,-2,0
19515,0,-1,-1,0,0,-1,-1,-1,0
19520,-3,-3,-1,0,-1,-1,-1,-2,0
19525,6,-1,1,-3,-1,-1,-2,0,0
19530,-6,-2,-2,0,-1,0,-1,1,0
19535,4,-1,-2,1,0,0,-1,1,0
19540,-4,-1,-1,-3,-1,-1,0,-3,0
19545,1,-1,-3,-2,-1,-2,-1,2,0
19550,-2,-1,-2,-2,-1,0,-1,-2,0
19555,-4,0,-1,-1,-3,-1,2,1,0
19560,-3,-1,-2,-2,-3,-3,-3,-2,0
19565,8,-1,1,1,0,-1,-2,2,0
19570,-4,0,-2,0,0,0,-1,-2,0
19575,1,0,-1,-1,-2,-1,-1,-1,0
19580,0,-1,-1,1,-1,0,-1,-2,0
19585,-8,-2,-3,-1,-1,0,-1,-3,0
19590,13,1,0,0,0,-2,0,5,0
19595,-1,-1,-2,1,-1,-1,0,0,0
19600,0,-1,0,-2,1,-2,-2,0,0
19605,3,-2,-1,-1,-2,-2,-2,-2,0
19610,-5,-1,-1,-4,-2,-3,-1,-2,0
19615,2,-1,0,-1,1,0,-2,0,0
19620,-1,-1,-2,0,-1,-1,0,0,0
19625,1,0,1,0,1,-2,0,-2,0
19630,-2,-1,0,1,-1,-1,-1,-2,0
19635,-2,-1,-1,-1,0,-2,0,-1,0
19640,-2,-2,-2,-1,-1,1,1,-1,0
19645,2,-2,-2,-1,0,0,0,1,0
19650,0,0,0,-1,-1,-1,-2,-1,0
19655,-1,0,-2,1,0,-2,-4,-2,0
19660,-1,-2,-2,0,0,0,1,-1,0
19665,1,-2,1,-3,-1,-1,-1,-1,0
19670,-2,0,-1,0,0,1,-2,-1,0
19675,-3,-2,-1,-1,0,-2,-1,-3,0
19680,0,-2,0,-1,-3,-1,-1,0,0
19685,0,-1,-1,2,0,0,1,0,0
19690,-6,-3,0,-1,-1,-2,-1,-3,0
19695,0,-2,-1,-3,-2,4,0,1,0
19700,-2,1,-1,0,0,-2,-1,-2,0
19705,-2,0,-1,-2,-1,-3,-2,1,0
19710,-3,-2,-1,-3,-1,-2,-1,-2,0
19715,1,-1,-1,0,0,-1,-2,-1,0
19720,-1,-1,-1,-2,1,0,-2,-2,0
19725,1,0,0,-1,0,-1,-4,0,0
19730,0,-2,-2,0,0,0,0,0,0
19735,-1,-2,-1,0,-1,-1,-1,-1,0
19740,1,-2,0,-1,0,-2,-1,2,0
19745,1,-1,-3,-1,-1,-3,0,-1,0
19750,-7,-1,-1,0,-2,0,0,-1,0
19755,0,-1,-3,-2,-1,0,0,-2,0
19760,-1,0,0,-3,1,2,-1,1,0
19765,0,0,0,-2,1,0,0,-1,0
19770,1,-1,-1,-1,-1,-2,-1,0,0
19775,-4,0,1,0,-1,1,0,0,0
19780,-1,-2,-2,0,-2,-5,-2,-3,0
19785,0,-1,-1,-2,-1,0,0,-3,0
19790,-2,-1,-3,-2,-1,-2,-2,-1,0
19795,-9,0,-1,-2,-1,-1,-1,-4,0
19800,15,1,-1,-1,-1,0,-2,6,0
19805,-1,-1,0,-1,-3,0,0,0,0
19810,-6,0,0,-1,-2,-2,-1,-4,0
19815,0,-3,-1,-2,-3,-3,-2,-2,0
19820,-4,-3,-2,-1,-1,0,-2,-5,0
19825,2,-2,-1,-2,-1,-1,-1,0,0
19830,-2,-1,-1,-1,-3,-2,-2,-2,0
19835,-1,-1,-1,-2,-3,0,-2,-1,0
19840,-4,-1,-2,-1,0,-2,-3,-3,0
19845,17,-1,0,-2,-2,1,0,6,0
19850,-11,-1,-2,-1,-1,-1,0,-6,0
19855,15,0,-2,-1,-1,0,0,5,0
19860,1,-2,0,-1,1,1,1,1,0
19865,-4,0,-1,1,0,-3,-3,-3,0
19870,-4,-3,-2,-1,-1,-1,-3,-1,0
19875,-1,1,0,-2,0,-1,-2,-1,0
19880,0,0,-1,-3,-1,-3,-4,0,0
19885,-7,-2,0,0,-3,-2,1,-3,0
19890,11,1,0,-1,-1,0,0,3,0
19895,-2,-1,-3,-1,0,-1,0,0,0
19900,-1,-1,-2,0,-1,1,1,-1,0
19905,-4,-1,-3,-2,-1,0,-2,-4,0
19910,-3,-1,-1,0,-1,-2,-2,-1,0
19915,-5,-1,0,-2,-2,-2,-2,-3,0
19920,-4,-2,-2,0,0,-2,-1,-1,0
19925,3,-1,-2,-1,-1,1,0,0,0
19930,-2,1,-2,-2,-1,-1,0,-3,0
19935,2,0,0,-1,0,-2,-1,-1,0
19940,-7,-2,0,-3,-2,0,-1,-5,0
19945,-7,-1,-1,0,-2,-1,-2,0,0
19950,3,-1,0,-2,1,0,0,1,0
19955,-6,-2,-1,0,-1,-1,-2,-4,0
19960,3,1,0,-2,0,-3,1,1,0
19965,-3,-3,0,-2,-1,-2,-2,-4,0
19970,0,-1,1,0,-1,0,0,1,0
19975,0,0,0,0,-2,1,-1,-1,0
19980,-2,-1,-1,1,-1,-1,-1,-5,0
19985,-9,0,-1,-3,0,-3,-3,-1,0
19990,-3,0,-2,-1,0,-1,0,-1,0
19995,1,-1,-2,-1,1,0,-1,0,0
20000,0,-1,-1,0,0,2,0,0,0
20005,-1,-1,0,-1,-2,-2,-2,-2,0
20010,-2,-2,0,-2,-2,-3,-2,-2,0
20015,0,-1,-2,-3,0,-4,0,1,0
20020,-8,0,0,-1,-1,-1,2,-1,0
20025,3,1,-1,-1,-3,1,1,2,0
20030,-7,-2,-1,-1,1,0,-3,-3,0
20035,0,0,-2,-2,-1,1,-2,-2,0
20040,1,-1,-1,0,-2,-3,-2,0,0
20045,-1,0,-2,0,-1,-2,-1,-2,0
20050,-10,-2,-3,-1,0,0,0,-2,0
20055,12,1,1,-1,0,1,-1,6,0
20060,0,-2,-1,0,0,-2,-3,0,0
20065,0,-1,0,-1,-1,-1,0,0,0
20070,-1,-3,-2,-1,-1,-1,-1,-2,0
20075,-6,-2,0,0,-1,3,-1,-4,0
20080,2,-1,-1,-2,0,-1,-1,0,0
20085,-5,-1,-1,0,1,-1,-2,-2,0
20090,9,3,2,-3,-1,-3,-1,4,0
20095,-3,-1,-1,-2,-1,-1,2,-2,0
20100,3,0,-2,-2,-2,-1,-2,0,0
20105,-5,-2,-3,-2,-2,1,-1,-2,0
20110,0,-3,-2,-1,-1,0,0,-2,0
20115,1,-1,-3,-2,-1,-4,-1,-2,0
20120,-2,-1,-1,-1,-1,0,0,-2,0
20125,1,-1,-1,1,0,-2,-1,-1,0
20130,14,1,2,0,0,2,2,5,0
20135,-2,-1,-1,2,1,0,-1,-2,0
20140,-3,-2,-1,-3,-1,-2,-2,-2,0
20145,1,-1,-1,-1,0,1,0,-1,0
20150,-4,-3,-3,-2,-1,-2,-2,-2,0
20155,-13,-2,-1,-2,0,-2,-2,-6,0
20160,12,1,-1,2,0,0,2,7,0
20165,-3,0,0,-2,-1,-1,0,-1,0
20170,5,0,-1,0,-1,-2,-3,0,0
20175,1,-2,-1,0,-3,0,0,-1,0
20180,-8,-1,0,0,-1,-2,-3,-4,0
20185,9,1,-1,-2,-1,-1,-2,1,0
20190,-4,0,-1,-1,-3,-1,-1,-4,0
20195,-4,-2,-2,-2,-3,-3,-2,-2,0
20200,1,-1,0,-2,-1,0,-1,0,0
20205,-1,-3,-2,-2,-2,-2,-1,-2,0
20210,-6,-1,-2,-1,0,1,-1,-4,0
20215,1,-2,0,0,-1,-1,0,1,0
20220,-2,-1,0,-1,-1,-1,-2,-3,0
20225,-1,-3,-1,-1,-2,-1,0,-1,0
20230,-9,-1,-3,-2,-1,-3,-1,-4,0
20235,12,1,-1,1,-1,-1,-1,3,0
20240,-2,-3,-1,-2,-1,-2,-1,-2,0
20245,-4,0,-2,-2,0,0,0,-4,0
20250,6,0,-1,-1,0,0,1,2,0
20255,-4,0,-1,-1,-2,-2,0,-1,0
20260,-1,-2,-3,-1,-2,-2,-2,-1,0
20265,-2,0,0,-1,-1,3,1,0,0
20270,-3,-2,0,0,-2,-3,-2,-4,0
20275,-4,0,-2,-1,1,1,-1,-4,0
20280,1,-1,-1,0,-1,0,0,2,0
20285,-2,-1,-1,-2,0,-2,-1,-3,0
20290,-4,-1,0,-1,1,0,-1,-1,0
20295,0,-1,-1,-1,-2,-3,-3,-1,0
20300,-3,-1,-1,-1,1,-2,-1,-3,0
20305,3,-2,-1,-1,0,0,-1,-1,0
20310,-1,-1,-1,-2,-1,-2,0,-1,0
20315,-1,-2,-1,-2,0,-1,-4,-2,0
20320,1,-1,-2,-3,0,0,0,1,0
20325,-1,-1,-1,-1,-1,-1,0,0,0
20330,-1,-2,-1,-1,-4,-1,0,2,0
20335,-3,-1,-1,-2,-1,-1,1,-3,0
20340,-2,0,-1,1,-2,-1,-1,-2,0
20345,-3,-3,0,2,1,-2,0,0,0
20350,-8,-1,-2,-1,0,-2,-3,-4,0
20355,12,0,1,0,1,1,1,5,0
20360,-9,-1,-1,1,-2,1,-1,-4,0
20365,8,1,-1,-1,-2,-4,0,1,0
20370,-4,-1,-2,-1,-1,1,0,-2,0
20375,5,-1,-2,-1,-1,-3,1,2,0
20380,-3,-1,-2,-1,-1,0,-2,-3,0
20385,0,-2,-1,-1,-3,0,-1,-1,0
20390,-11,-2,-2,0,-1,-2,-2,-3,0
20395,-2,1,0,-1,0,2,-2,-2,0
20400,3,-1,-1,-2,-2,-1,0,-1,0
20405,-3,0,-1,-2,-1,-1,-2,0,0
20410,1,-2,-3,0,-1,-1,0,0,0
20415,-9,-2,-1,-1,-1,-2,-1,-2,0
20420,2,0,1,-1,1,-2,0,1,0
20425,-2,0,0,-1,-1,-1,-2,-1,0
20430,-5,-1,1,0,0,0,0,-1,0
20435,10,0,-1,-3,-3,0,1,3,0
20440,2,-1,-1,-2,-2,-2,-2,-1,0
20445,-4,-1,-1,-1,-1,-2,-2,-2,0
20450,13,1,0,-1,0,-1,-2,3,0
20455,-6,-3,-3,-2,-2,-3,-2,-4,0
20460,-3,-1,-2,-1,-1,-1,-2,-3,0
20465,-2,-2,-1,-2,-1,0,0,0,0
20470,4,-1,-1,-1,0,1,1,-1,0
20475,-5,-2,-1,0,-1,-1,-1,-2,0
20480,-1,-2,0,-1,-2,-1,-2,-2,0
20485,-2,-1,0,-1,1,0,-3,-2,0
20490,-3,0,-1,-2,-1,-1,-1,-1,0
20495,-2,-2,-1,-2,0,-1,0,-3,0
20500,-5,-2,0,-1,-2,-2,0,-2,0
20505,-1,-1,-2,-1,-1,-1,1,0,0
20510,-1,-1,-1,0,-2,-2,-1,-2,0
20515,-2,-2,-1,-1,-1,-2,-4,-3,0
20520,-7,-1,-3,0,-1,0,-1,-2,0
20525,1,1,-1,-2,-1,0,1,2,0
