Timestamp, Rotation x, Rotation y, Rotation z, Marker
50,0.6875,-2.4375,0.25,0
70,0.75,-2.5,1.3125,0
90,-0.9375,-2.0625,1.6875,0
110,-1.25,-1.6875,2,0
130,-0.75,-2.125,1.9375,0
150,0.6875,-2.5625,2.5,0
170,0.6875,-2.1875,2,0
180,0.8125,-1.4375,1.75,0
180,1.0625,-1.1875,1.5,0
220,1.0625,-1.375,0.9375,0
240,-0.0625,-1.25,0.0625,0
260,-0.25,-1.1875,0.375,0
280,0.375,-1.3125,1.1875,0
300,0.125,-1.0625,1.4375,0
320,-0.4375,-0.9375,1.5625,0
340,-0.25,-1.1875,2.0625,0
360,-0.1875,-1.625,2.0625,0
380,0.75,-2.3125,2.8125,0
400,2.25,-4.375,3.625,0
420,6.6875,-5.625,3.6875,0
440,6.75,-5.0625,1.875,0
460,2.1875,-3.5625,-0.1875,0
480,-0.6875,-2.4375,-0.0625,0
500,-1.375,-1.875,0.625,0
520,-0.5625,-1.4375,1.5625,0
540,-0.8125,-1.0625,2,0
560,-0.9375,-1.4375,1.0625,0
580,-2.25,-2,0.0625,0
600,-4.3125,-1.5625,0,0
620,-4.6875,-0.4375,1.0625,0
640,-2.4375,0.25,1.875,0
660,-0.25,-0.25,1.5625,0
680,1.6875,-0.375,0.5,0
700,1.5625,-0.3125,-0.4375,0
720,1.25,-0.25,-0.375,0
740,0.5625,-0.5,0.25,0
760,-0.375,-1.1875,0.625,0
780,-1.625,-1.6875,0.625,0
800,-2.125,-1.75,1,0
820,-1,-1.5625,1.3125,0
840,0.125,-1.625,0.8125,0
860,0.4375,-1.8125,0.6875,0
880,-0.625,-1.5625,0.8125,0
900,-0.0625,-1.3125,1.3125,0
920,0.5625,-1.4375,1.5625,0
940,0.1875,-1.1875,1.5625,0
960,-0.8125,-1.0625,1.125,0
980,-2,-1.1875,0.5625,0
1000,-2.3125,-1.1875,0.3125,0
1020,-2.1875,-1.25,0.25,0
1040,-2.6875,-1.1875,0.0625,0
1060,-1.875,-1.375,0.5,0
1080,-1.75,-1.625,0.5625,0
1100,-1.5,-1.1875,0.9375,0
1120,-0.625,-0.8125,0.125,0
1140,0.1875,-0.8125,0.125,0
1160,0.25,-0.6875,0.75,0
1180,0.125,-0.25,0.75,0
1200,0,-0.125,0.625,0
1220,-0.3125,-0.5625,0.6875,0
1240,-1.5625,-0.5,0.6875,0
1260,-2.5625,-0.5,0.8125,0
1280,-1.6875,-0.0625,1,0
1300,0.8125,-0.375,0,0
1320,2.5,-0.875,-1.625,0
1340,3.3125,-0.5625,-2.8125,0
1360,4.3125,-0.125,-3.25,0
1380,6.3125,0.1875,-2.8125,0
1400,8.5,-0.125,-2.8125,0
1420,10.25,-0.0625,-2.9375,0
1440,12.1875,-0.1875,-3.1875,0
1460,12.3125,-0.6875,-3.875,0
1480,10.6875,-0.75,-4.25,0
1500,9.75,-1.375,-4.5625,0
1520,8.125,-2,-4.4375,0
1540,6.375,-2.375,-4.375,0
1560,4.375,-2.875,-4,0
1580,3.5,-3.5625,-3.375,0
1600,2,-4.25,-2.375,0
1620,0.9375,-4.25,-1.625,0
1630,1.9375,-4.4375,-1.375,0
1650,2.75,-4.3125,-0.875,0
1670,4.5625,-4.25,-0.875,0
1690,4.9375,-4.375,-0.9375,0
1710,4.0625,-3.5,0.0625,0
1730,4.375,-2.3125,1.3125,0
1750,3.6875,-1.5625,2.6875,0
1770,2.125,-1.125,3.3125,0
1790,-0.8125,-0.375,3.5625,0
1810,-3.4375,0.75,3.6875,0
1830,-4.375,1.25,3.9375,0
1850,-3.875,1.0625,3.375,0
1870,-4.375,1.4375,2.6875,0
1890,-3.5625,1.9375,1.625,0
1910,-1.5,1.4375,0.0625,0
1930,0.1875,0.9375,-0.9375,0
1950,1.5625,0.5,-1.6875,0
1970,2.6875,0.125,-2.0625,0
1990,3.9375,-0.0625,-1.75,0
2010,6,-0.625,-2.125,0
2030,6.4375,-1.4375,-2.9375,0
2050,3.25,-1.75,-2.875,0
2070,0.9375,-1.75,-2.3125,0
2090,-0.375,-1.6875,-0.0625,0
2110,-1.8125,-1.8125,1.25,0
2130,-5.8125,-1.25,3.5625,0
2150,-6.75,-1.3125,4.8125,0
2170,-5.6875,-2.5625,6.3125,0
2190,-3.375,-4.375,5.0625,0
2210,-6.75,-3.8125,3.75,0
2230,-7.3125,-2.5,5.0625,0
2250,-5.375,-3.3125,4.125,0
2270,-6.9375,-3.75,4.1875,0
2290,-4.6875,-3.875,4,0
2310,-1.875,-5,3.5,0
2330,-1.0625,-5.6875,3.375,0
2350,-1.8125,-4.6875,3.0625,0
2370,-1.5625,-4.0625,2.875,0
2390,0.4375,-4.125,1.9375,0
2410,0.6875,-3.375,1.0625,0
2430,1.8125,-1.75,0.8125,0
2450,4.875,-0.625,1.25,0
2470,6.375,-0.6875,0.875,0
2490,4.625,-1.3125,-0.375,0
2510,1.1875,-0.8125,-0.3125,0
2530,0.625,0.125,0.75,0
2550,2.0625,-0.1875,1.75,0
2570,1.8125,0.0625,2.375,0
2590,1.75,0.125,1.75,0
2610,1.875,-0.25,0.75,0
2630,2.5625,-1.375,0.125,0
2650,2.0625,-2.125,0.375,0
2670,-0.5625,-2.125,0.875,0
2690,-3.375,-2.0625,1.3125,0
2710,-4.6875,-2.1875,1.25,0
2730,-2.3125,-1.4375,2.375,0
2750,-0.5,-1.625,1.1875,0
2770,-4.1875,-2.1875,-0.5625,0
2790,-5.3125,-2.4375,-0.75,0
2810,-3.1875,-2.9375,0.125,0
2830,-2,-2.9375,-0.5,0
2850,0.1875,-3.0625,-0.9375,0
2870,1.125,-3.0625,-0.9375,0
2890,1.9375,-3.5,-1.75,0
2910,3.0625,-3.8125,-2.3125,0
2930,3.0625,-3.5,-2.25,0
2950,2.375,-3.625,-2.5,0
2970,4.9375,-3.125,-1.8125,0
2990,4.875,-2.875,-0.6875,0
3010,0.125,-2.25,-1.375,0
3030,-2.9375,-1.5625,-0.9375,0
3050,-2.1875,-1.375,-2,0
3070,1.375,-1.75,-0.4375,0
3090,-3.3125,-1.1875,-0.3125,0
3110,-4.125,-0.5,-1.5625,0
3130,-1.1875,-1.25,-1.5625,0
3150,1.4375,-1.75,-2.5625,0
3170,4.5,-1.5,-2.8125,0
3190,3.75,-1.4375,-3.1875,0
3210,1.4375,-0.375,-3.0625,0
3230,0.875,0.0625,-3.5,0
3250,4.125,0.1875,-3.9375,0
3270,8.375,0.625,-3.75,0
3290,12.25,1.1875,-4,0
3310,12.8125,1.5625,-3.1875,0
3330,11.0625,1.75,-2.4375,0
3350,9.4375,1.1875,-3.25,0
3370,6.875,-0.0625,-2.625,0
3390,5.6875,-0.5625,-1.4375,0
3410,4.4375,-0.375,-1.3125,0
3430,2.0625,-0.625,-1.625,0
3450,1.625,-1.3125,-2.0625,0
3470,0.75,-1.8125,-1.5,0
3490,0.25,-1.25,-0.6875,0
3510,1.1875,-1.5625,-0.8125,0
3530,2.375,-2.625,-2.0625,0
3550,2.375,-2.8125,-2.1875,0
3570,2.75,-2.6875,-2.1875,0
3590,2.375,-2.875,-2.1875,0
3610,1.25,-3.125,-1.9375,0
3630,0.8125,-3.25,-1.75,0
3650,0.3125,-2.875,-1.5625,0
3670,-0.3125,-2.625,-2.375,0
3690,-1.4375,-2,-1.75,0
3710,-3.1875,-1.1875,-0.4375,0
3730,-4,-0.1875,0.75,0
3750,-4.3125,0.9375,1.6875,0
3770,-3.9375,1.875,1.5,0
3790,-3.5625,2.375,0.5625,0
3810,-3.375,2.8125,0.0625,0
3830,-2.1875,3.375,-0.3125,0
3850,0.5,3.0625,-1.375,0
3870,2.375,2.75,-2.3125,0
3890,2.6875,2.625,-3.3125,0
3910,2.4375,2.875,-4.4375,0
3930,2.6875,3.1875,-5.125,0
3950,4.5,3.1875,-5,0
3970,5.1875,3.1875,-4.125,0
3990,4.875,3.1875,-3.125,0
4010,4.3125,3.25,-1.9375,0
4030,2.5,2.9375,-0.6875,0
4050,0,2.5,0.0625,0
4070,-3.5,2.1875,0.9375,0
4090,-5.75,2.25,1.6875,0
4110,-6,1.75,2.0625,0
4130,-5.1875,1,1.9375,0
4150,-3.5,0.75,1.5,0
4170,-1.5,0.125,1.0625,0
4180,0,-0.3125,0.5,0
4200,1.8125,-0.5,-0.4375,0
4220,3.625,-1,-1.5,0
4240,4.625,-1.0625,-2.5,0
4260,5.25,-1.25,-3.125,0
4280,5.0625,-1.6875,-3.25,0
4300,6.1875,-2.125,-1.25,0
4320,4.75,-2.25,-2.3125,0
4340,4.875,-2.5625,-1.125,0
4360,3.375,-2.5,-1.5,0
4380,1.5625,-2.6875,-1.125,0
4400,0.875,-2.375,0.0625,0
4420,-0.1875,-2.0625,0.25,0
4440,-1.375,-1.875,0.375,0
4460,-1.25,-1.625,0.0625,0
4480,-1,-1.6875,0.0625,0
4500,-1.5,-1.5625,-1.0625,0
4520,2.375,-1.0625,-2.1875,0
4540,1.625,-2.1875,0.9375,0
4560,-0.3125,-2.3125,0.875,0
4580,1,-2.1875,0.3125,0
4600,1.6875,-2.1875,-0.625,0
4620,2.3125,-0.9375,-0.875,0
4640,1.125,0.0625,-2.3125,0
4660,2.375,0.125,-1.625,0
4680,2.4375,0.625,-0.4375,0
4700,0.6875,1.0625,0.1875,0
4720,-1.375,0.375,0.8125,0
4740,-2.875,-0.125,1.125,0
4760,-3.4375,-0.75,1.875,0
4780,-2.75,-1,2,0
4800,-2.8125,-0.6875,1.9375,0
4820,-3.1875,-0.6875,1.6875,0
4840,-3.3125,-0.1875,2.4375,0
4860,-3.6875,0,2.875,0
4880,-0.125,1.0625,5.0625,0
4900,-0.4375,0.75,3.375,0
4920,-1.3125,-0.375,2.3125,0
4940,-1.125,-0.1875,1.75,0
4960,-2.1875,0.0625,1.5625,0
4980,-2.75,0,1.3125,0
5000,-2.375,-0.125,1.6875,0
5020,-2.4375,-0.0625,1.4375,0
5040,-1.3125,0,1.3125,0
5060,-1.875,0.5,0.5625,0
5080,-2.5,0,0.4375,0
5100,-3.6875,0.25,-0.125,0
5120,-3.5625,0.1875,0.125,0
5140,-2.125,-0.0625,-0.1875,0
5160,-0.8125,-0.0625,-0.1875,0
5180,1.25,-1.9375,-3.875,0
5200,-0.3125,-0.75,1.875,0
5220,-1.6875,0.3125,-0.25,0
5240,-0.6875,0.25,-0.875,0
5260,1.5,-2.25,-0.125,0
5280,-1.25,1.375,-2.375,0
5300,6.5,0.625,-9.375,0
5320,7.5625,-4,0.5,0
5340,3.1875,-1,-1.4375,0
5360,-4.25,-0.5625,0.1875,0
5380,-6.75,-0.875,3.5625,0
5400,-2.25,-0.75,-0.625,0
5420,3.125,-2.5,0.1875,0
5440,5.625,-2.1875,-1,0
5460,3.0625,-1.5625,-1.0625,0
5480,0.625,-1.1875,-0.9375,0
5500,-0.0625,-0.75,-0.5,0
5520,0.875,-0.9375,0,0
5540,1.75,-1.1875,-0.125,0
5560,1.4375,-1.1875,-0.1875,0
5580,0.8125,-1,-0.3125,0
5600,-0.4375,-0.75,-0.3125,0
5620,-0.3125,-0.8125,-0.125,0
5640,0.0625,-1,0.0625,0
5660,0.75,-1.125,0.5,0
5680,0.5625,-1.125,0.6875,0
5700,0,-0.875,0.5625,0
5720,-0.3125,-1.0625,0.25,0
5740,-0.0625,-1.375,0.0625,0
5760,-0.25,-1.1875,0.125,0
5780,0.875,-0.875,0.3125,0
5800,1.375,-1.25,0,0
5820,0.9375,-1.3125,0.125,0
5840,0.0625,-0.875,0.0625,0
5860,-0.3125,-1.0625,-0.0625,0
5880,-0.3125,-1.1875,0.1875,0
5900,-0.125,-1.25,0.3125,0
5920,-0.75,-1.375,0.5,0
5940,-1,-1.125,0.5625,0
5960,-0.8125,-0.875,0.5,0
5980,0.875,-1.1875,0.0625,0
6000,-0.0625,-1.5625,0.1875,0
6020,-2.125,-0.5625,0.9375,0
6040,-1.125,-0.5625,0.25,0
6060,0.8125,-1.4375,-0.125,0
6080,0.8125,-1.1875,0.75,0
6100,0.1875,-0.5,0.875,0
6120,-2.0625,-0.4375,1.125,0
6140,-2.5625,-0.25,1.25,0
6160,-0.5,-0.125,1.125,0
6180,0.9375,-0.5,0.8125,0
6200,1.4375,-0.6875,0.1875,0
6220,-0.6875,-0.5,0.4375,0
6240,-2.5625,-0.3125,0.8125,0
6260,-3.125,-0.75,0.9375,0
6280,-1.9375,-1.125,1.125,0
6300,-1.3125,-1.25,1.3125,0
6320,-1.3125,-1,1.5625,0
6340,-1.4375,-1.0625,3.0625,0
6360,-0.875,-0.75,0.3125,0
6380,0,-1,1.375,0
6400,0.1875,-0.6875,1,0
6420,-0.5625,-1,1.25,0
6440,-1.6875,-1.0625,1.5625,0
6460,-1.75,-0.9375,1.5,0
6480,-1.125,-1,1.1875,0
6500,-0.5,-0.8125,0.5625,0
6520,-0.1875,-0.875,0.3125,0
6540,0,-1.0625,-0.25,0
6560,0.125,-1.25,-0.125,0
6580,-0.25,-0.875,0.125,0
6600,-0.75,-0.6875,0.25,0
6620,-0.125,-0.75,0.0625,0
6640,0,-0.875,-0.125,0
6660,0.8125,-0.4375,0.4375,0
6680,1.5,-0.3125,0.3125,0
6700,1.5,-0.6875,0.125,0
6710,1.125,-0.625,-0.25,0
6730,0.5,-0.8125,-1.25,0
6750,0.5,-0.9375,-0.4375,0
6770,-0.125,-1.4375,-0.125,0
6790,-0.5,-0.75,0.3125,0
6810,-0.4375,-1.0625,-0.8125,0
6830,1.5,-2.1875,-8.875,0
6850,4.25,-3.875,-7.375,0
6870,2.25,-3.4375,-3.75,0
6890,-0.9375,-2.5625,-3.875,0
6910,-2.75,-0.625,8.75,0
6930,-4.75,4.0625,11.8125,0
6950,2.375,1.0625,-4.6875,0
6970,4.875,-3.5625,-0.375,0
6990,3.375,-1,1.125,0
7010,1.125,0.5,-1.0625,0
7030,0.5,-0.4375,1.5625,0
7050,2.1875,-0.125,2.0625,0
7070,1.9375,-0.0625,-0.5625,0
7090,1.375,-0.75,-0.9375,0
7110,2.4375,-0.625,-0.0625,0
7130,3.9375,-1,-2.625,0
7150,0.5,-3.25,-0.8125,0
7170,-5.125,-1.25,2.375,0
7190,-3.5625,-1.875,2.5,0
7210,-3.6875,-2.9375,3.625,0
7230,-3.875,-2.4375,2.75,0
7250,-3.3125,-1.625,2.6875,0
7270,-4.5,-1.4375,2.375,0
7290,-5.5,-2.625,2.8125,0
7310,-1.3125,3.4375,3.8125,0
7330,-4.5625,-1.25,1.4375,0
7350,2.0625,-0.8125,3.125,0
7370,0.3125,-0.9375,-0.9375,0
7390,1.3125,-0.3125,1.4375,0
7410,0.5625,0.0625,-0.0625,0
7430,-0.4375,-0.375,1,0
7450,-1,0.0625,0.9375,0
7470,-1.4375,0.625,1,0
7490,0.125,0.75,1.0625,0
7510,0.75,0.625,1.1875,0
7530,-0.3125,0.9375,1.375,0
7550,-2.0625,0.9375,1.1875,0
7570,-2.4375,1,1.1875,0
7590,-1.8125,0.625,0.875,0
7610,-0.6875,0,0.625,0
7630,-0.5,-0.375,0.1875,0
7650,-0.4375,-0.5625,0,0
7670,0.375,-0.875,-0.25,0
7690,2,-1.5,-0.75,0
7710,3,-2,-1,0
7730,3.25,-1.875,-1.0625,0
7750,3.875,-1.6875,-1,0
7770,3.5625,-1.8125,-0.875,0
7790,2.875,-2.0625,-1,0
7810,1.9375,-1.875,-1.125,0
7830,1.125,-1.75,-0.75,0
7850,1.0625,-1.9375,-0.6875,0
7870,0.9375,-1.8125,-0.6875,0
7890,1.0625,-1.5625,-0.8125,0
7910,1.125,-1.4375,-0.8125,0
7930,1.0625,-1.1875,-0.375,0
7950,0.9375,-1.1875,-0.0625,0
7970,0.75,-0.9375,0.0625,0
7990,0.75,-0.8125,-0.25,0
8010,1.375,-1.0625,-0.25,0
8030,1.375,-1,0.0625,0
8050,0.6875,-0.875,0.3125,0
8070,-0.375,-0.75,0.8125,0
8090,-0.8125,-0.5625,1,0
8110,-0.8125,-0.5625,1,0
8130,0.4375,-1.125,-0.125,0
8150,0.875,-1.5625,0,0
8170,1.0625,-1.6875,0,0
8190,0.125,-1.5,0.0625,0
8210,0.4375,-1.5625,-0.5,0
8230,1.9375,-1.625,-1.25,0
8250,2.5625,-1.8125,-1.4375,0
8270,2.3125,-1.1875,-0.25,0
8290,1.8125,-0.5625,-0.375,0
8310,1.5625,-1,-0.25,0
8330,0.9375,-1.125,0.3125,0
8350,-1.1875,-0.3125,3.1875,0
8370,-2.9375,-0.1875,1.1875,0
8390,-3.375,-0.375,3.125,0
8410,-2.8125,0.0625,2.6875,0
8430,-2.875,0.0625,2.75,0
8450,-3.25,0.1875,2.4375,0
8470,-3.75,0.25,2.4375,0
8490,-2.875,-0.125,2.125,0
8510,-3,-0.4375,1.1875,0
8530,-3.0625,-0.125,1.0625,0
8550,-1.5625,0.0625,0.6875,0
8570,-0.5,0.0625,0.5,0
8590,1.125,-0.0625,0.0625,0
8610,1.5625,-0.3125,-0.4375,0
8630,0.875,0,-0.125,0
8650,0.0625,0.4375,0.3125,0
8670,1.3125,0.375,0.3125,0
8690,2.125,-0.125,0.3125,0
8710,3.3125,0.125,0,0
8730,3.75,0.1875,0.5,0
8750,2.3125,0.375,0.875,0
8770,1.5625,0,1,0
8790,0.3125,-0.5,1.1875,0
8810,-0.4375,-0.5625,0.8125,0
8830,-1.4375,-0.6875,1.0625,0
8850,-2.6875,-0.6875,1.25,0
8870,-3,-0.6875,0.8125,0
8890,-2,-0.6875,0.5625,0
8910,-1.25,-0.625,0.3125,0
8930,0,-0.5,0.0625,0
8950,1.125,-0.4375,-0.375,0
8970,2.125,-0.75,-0.75,0
8990,2.0625,-0.75,-1.125,0
9010,2.9375,-0.9375,-1.6875,0
9030,3.3125,-1.5,-1.9375,0
9050,2,-1.375,-1.3125,0
9070,0.875,-0.75,-0.5,0
9090,1.125,-1.0625,-0.3125,0
9110,1.8125,-1.5625,-0.125,0
9130,2,-1.3125,-0.375,0
9150,1.25,-1.1875,-0.625,0
9170,0.5,-1.0625,-0.375,0
9190,0.125,-1.3125,-0.3125,0
9210,-0.25,-1.6875,-0.25,0
9230,0,-1.875,0,0
9240,0.1875,-1.75,-0.0625,0
9260,0.25,-1.625,0.0625,0
9280,0.125,-1.75,0.125,0
9300,0,-1.5,0.4375,0
9320,0.25,-1.1875,0.25,0
9340,0.8125,-1.0625,0.0625,0
9360,0.6875,-1,0.0625,0
9380,0.8125,-0.875,0.0625,0
9400,0.9375,-0.8125,0.0625,0
9420,0.5625,-0.75,0,0
9440,0.1875,-0.5625,0,0
9460,0,-0.75,0.0625,0
9480,-0.5,-0.875,0.25,0
9500,-0.5625,-0.75,0.625,0
9520,-0.9375,-0.6875,0.625,0
9540,-0.9375,-0.625,0.375,0
9560,-0.5,-0.8125,0.1875,0
9580,-0.6875,-0.8125,0.4375,0
9600,-0.75,-0.5625,0.6875,0
9620,-0.625,-0.6875,0.6875,0
9640,-0.625,-0.8125,0.6875,0
9660,-0.375,-0.875,0.625,0
9680,-0.875,-0.875,0.8125,0
9700,-1.1875,-1,0.9375,0
9720,-1.375,-1.0625,1.25,0
9740,-1.75,-0.9375,1.1875,0
9760,-2,-0.9375,1.0625,0
9780,-2.25,-0.6875,0.75,0
9800,-0.6875,-0.5625,0.3125,0
9820,0.3125,-0.875,0.4375,0
9840,-0.375,-0.4375,0.6875,0
9860,-0.75,-0.125,0.6875,0
9880,0.125,-0.8125,0.625,0
9900,0.8125,-1.125,0.375,0
9920,0.125,-1.0625,0.25,0
9940,-1.25,-0.5625,0.25,0
9960,-1.25,-0.6875,0.5,0
9980,-0.4375,-1.0625,0.6875,0
10000,-0.25,-1.1875,0.75,0
10020,-0.3125,-0.9375,0.6875,0
10040,-0.5625,-0.875,0.6875,0
10060,-0.4375,-0.875,0.6875,0
10080,-0.6875,-1.25,0.6875,0
10100,-1.25,-0.9375,1,0
10120,-1.4375,-0.8125,0.75,0
10140,-0.75,-0.8125,0.6875,0
10160,-0.0625,-1,0.75,0
10180,-0.125,-0.875,0.625,0
10200,-0.5625,-0.75,0.625,0
10220,-0.125,-0.75,0.4375,0
10240,-0.0625,-0.6875,0.1875,0
10260,0.0625,-0.75,0.25,0
10280,0,-0.8125,0.1875,0
10300,0.125,-0.6875,0.25,0
10320,0.25,-0.75,0.0625,0
10340,-0.0625,-0.75,0.0625,0
10360,0.125,-0.75,0.0625,0
10380,0.25,-0.6875,0.25,0
10400,0.6875,-0.6875,0.3125,0
10420,0.0625,-0.8125,0.1875,0
10440,-0.125,-0.6875,0.1875,0
10460,0.625,-0.9375,0.1875,0
10480,1.8125,-1,0.6875,0
10500,2.5,-1.375,1.625,0
10520,4.0625,-0.9375,1.625,0
10540,5.4375,-1,1.5625,0
10560,3.625,-1.3125,2.0625,0
10580,1.9375,-1.5,1.625,0
10600,4.25,-1.25,-0.875,0
10620,5.3125,0.1875,-2.1875,0
10640,6.6875,-2.875,-3.5,0
10660,13,-6.0625,-2.8125,0
10680,16,-11.9375,-1.625,0
10700,16,-11.75,0.6875,0
10720,11,-9.4375,-0.125,0
10740,5.625,-7.875,-3.4375,0
10760,5.4375,-8.3125,-8.8125,0
10780,12.6875,-12.25,-8.375,0
10800,11.8125,-12.125,-8.8125,0
10820,9.8125,-10.3125,-9.25,0
10840,5.1875,-3.9375,-10.3125,0
10860,-0.8125,-1.75,-12.5625,0
10880,3.5625,-4.0625,-7.1875,0
10900,9.0625,-4,-5.125,0
10920,8,-4.25,-8.3125,0
10940,12.125,-6.9375,-9.5,0
10960,17.375,-11.1875,-15.8125,0
10980,23.625,-19.75,-22.9375,0
11000,23.8125,-34.5,-29.5,0
11000,22.5,-37.1875,-29.75,0
11040,11.9375,-42.625,-36.4375,0
11060,-0.6875,-52.0625,-39.4375,0
11080,-7.125,-60.8125,-50.8125,0
11100,-22.25,-65.4375,-38,0
11120,-21.0625,-55.4375,-56.0625,0
11140,0.0625,-55.1875,-53.5625,0
11160,-1,-61.4375,-37.3125,0
11180,-1.375,-52.8125,-65.0625,0
11200,8.125,-44.3125,-72.75,0
11220,18.125,-40.625,-65.75,0
11240,20,-49,-65.1875,0
11260,24.375,-55.375,-66.875,0
11280,16.625,-53.25,-57.5625,0
11300,4.8125,-48.0625,-48.6875,0
11300,-9.25,-42.1875,-39.125,0
11320,-16.4375,-46.625,-29.75,0
11340,-17.3125,-49.5625,-30.6875,0
11360,-21.6875,-45.625,-31,0
11380,-28.75,-33.8125,-22.5,0
11400,-24.375,-32.8125,-17.625,0
11420,-27.5,-22.875,-8.1875,0
11440,-13.8125,-19.4375,0.8125,0
11460,-9.625,-5,3.125,0
11500,-10.625,6.5625,4.375,0
11520,-5.0625,16.0625,12,0
11540,6.1875,23.5,22.0625,0
11560,9.75,26,28.75,0
11580,9.125,26.875,27,0
11600,7,25.375,27.9375,0
11620,0.875,29.0625,25.6875,0
11640,-2.4375,29.3125,15.75,0
11660,-11.875,28.625,17.125,0
11680,-2.375,30,11.25,0
11700,-2.6875,32.25,16.4375,0
11720,-6,28.125,20.6875,0
11740,-17.9375,27,21.8125,0
11760,-27.0625,28.5625,28.125,0
11770,-21.875,17.5,31.5625,0
11790,-13.8125,-8.4375,37.5625,0
11810,1.8125,-33.8125,42.4375,0
11830,8.875,-16.875,59.4375,0
11850,21.625,-35.4375,47.5625,0
11870,15.375,-10.75,47.875,0
11890,-13,20.6875,34.875,0
11910,-24.0625,41.125,13.1875,0
11930,-17.8125,55.5625,-4,0
11950,-16.875,58.8125,-4.875,0
11970,-14.8125,51.1875,-9.25,0
11990,-11.125,38.5625,-17,0
12010,-3.0625,25.0625,-16.875,0
12030,-3.9375,10.8125,-9,0
12050,-13,8.25,-2.3125,0
12070,-13.8125,3.3125,5.5,0
12090,14.0625,6.6875,12.1875,0
12110,12.1875,11.625,6.6875,0
12130,-2.875,20.625,10.6875,0
12150,-7.75,24.125,13.125,0
12170,-11.0625,24,11.4375,0
12190,-8.375,17.5625,11.5625,0
12210,-8.4375,11.625,2.625,0
12230,-5.1875,6.3125,-1.125,0
12250,-6,1.5625,-6.625,0
12270,-3.3125,-2.4375,-3.5625,0
12290,19,-13.375,0.875,0
12310,37.125,-20.5,6.3125,0
12330,32.6875,-11.0625,0.25,0
12350,24.8125,-4.5,2.9375,0
12370,5.125,2.4375,2.3125,0
12390,-8,5.25,-2.125,0
12410,-0.0625,0.375,-1.625,0
12430,10.375,-3.3125,-2.0625,0
12450,14.5625,-13.75,5.4375,0
12470,6.0625,-6.3125,1.125,0
12490,-3.0625,-6,0.125,0
12510,-3.5625,-6.75,1.5,0
12530,-1.5625,-5.5,2.375,0
12550,0.5,-4.25,3.0625,0
12570,1.3125,-2.6875,2.4375,0
12590,2.375,-1.3125,1.25,0
12610,3.8125,-0.875,0.0625,0
12630,4.4375,-1.5625,-0.6875,0
12650,3.5625,-2.4375,-2.375,0
12670,2.8125,-3.5625,-3.9375,0
12690,3.1875,-5.9375,-6.1875,0
12710,2.6875,-8.6875,-6.125,0
12730,2.5625,-11.0625,-4.125,0
12750,-0.625,-10.875,-3.125,0
12770,-6,-6.25,-0.6875,0
12790,-10.75,0.8125,1.6875,0
12810,-12.0625,7.1875,5.9375,0
12830,-7.4375,11.375,10.75,0
12850,0.125,12.4375,13.125,0
12870,3.625,13.4375,12.6875,0
12890,5,16.75,12.125,0
12910,7,18.9375,11.0625,0
12930,8.4375,17.0625,4.5625,0
12950,6.125,5.75,-9.0625,0
12970,3.25,-0.625,-22.125,0
12990,5.5,-8.9375,-21.4375,0
13010,6.4375,-13.5,-10.3125,0
13030,1.75,-11.625,1.375,0
13050,-2.4375,-7.5625,4.5625,0
13070,-2.375,-1.625,1.5,0
13090,-2.4375,3,-0.375,0
13110,0.75,4.0625,-2.5,0
13130,4.0625,2.875,-3,0
13150,5.375,0.0625,-2.0625,0
13170,3.375,-0.6875,-2.125,0
13190,1.8125,0,-2.5,0
13210,0.9375,0.4375,-2.9375,0
13230,0.125,1.5625,-2.0625,0
13250,0.125,3.25,-0.8125,0
13270,0.5,4,0.125,0
13290,0.9375,3.1875,0.9375,0
13310,1.375,1.6875,0.8125,0
13330,0.875,0.125,1,0
13350,1.0625,-1.375,1.125,0
13370,1.625,-3.1875,1.25,0
13390,1.3125,-4.375,1.5,0
13410,1.6875,-4.8125,1.5625,0
13430,1,-4.625,1.8125,0
13450,0.3125,-3.875,1.875,0
13470,0.875,-3.25,1.375,0
13490,-0.0625,-2.6875,1.125,0
13510,-0.5,-2.3125,1.125,0
13530,-0.875,-1.8125,1.4375,0
13550,-1.125,-1.375,1.5,0
13570,-1.375,-0.8125,1.125,0
13590,-1.0625,-0.8125,0.75,0
13610,-0.0625,-0.875,0.5,0
13630,0.1875,-1.3125,0.4375,0
13650,-0.5625,-1.875,0.5,0
13670,-1.375,-0.4375,1.3125,0
13690,-1.1875,-0.875,1.1875,0
13710,-1.3125,-0.125,0.125,0
13730,-0.3125,0.1875,0.1875,0
13750,0.25,0.5625,-0.8125,0
13770,-0.625,-0.125,-0.4375,0
13790,-1.625,-0.375,1.5625,0
13810,-2.75,0.4375,1.8125,0
13830,-2.375,0.8125,0.625,0
13850,-1.5625,0,0.5625,0
13870,-0.8125,-0.25,0.1875,0
13890,-0.1875,-0.3125,0.5625,0
13910,-0.125,-0.375,0.375,0
13930,-0.25,-0.3125,0.4375,0
13950,0.3125,-0.3125,0.125,0
13970,0.375,-1.0625,0.125,0
13990,-0.125,-1.0625,0.125,0
14010,0.125,-0.9375,0.0625,0
14030,0.75,-1.25,0,0
14050,0.9375,-1.375,0.0625,0
14070,0.6875,-1.125,0,0
14090,0.5625,-1.4375,0.0625,0
14110,0.5,-1.0625,0.5,0
14130,0.0625,-1,0.5625,0
14150,-0.25,-0.875,0.6875,0
14170,-0.5,-0.9375,0.8125,0
14190,-0.8125,-1.0625,0.75,0
14210,-0.4375,-1.25,0.8125,0
14230,-0.1875,-1.375,0.6875,0
14250,-0.3125,-0.4375,0,0
14270,0.1875,-0.0625,0,0
14290,-0.125,0.0625,0.0625,0
14310,-0.375,-1.375,0.8125,0
14320,0.875,-1.3125,0.375,0
14340,0.5625,-0.5625,0.375,0
14360,0.1875,-0.125,0.1875,0
14380,0.25,0.25,-0.0625,0
14400,0.3125,0.5,0.25,0
14420,0.125,0.4375,0.4375,0
14440,-0.75,0.6875,0.375,0
14460,-1.125,1.1875,0.1875,0
14480,-0.375,0.75,0,0
14500,-0.75,0.375,0.1875,0
14520,-0.625,0.8125,0.125,0
14540,0,0.75,0.0625,0
14560,0.9375,-0.125,0.5,0
14580,1.5,-0.25,0.0625,0
14600,0.875,-0.5,0,0
14620,-0.25,-0.1875,0.4375,0
14640,-0.875,-0.5625,0.5,0
14660,-1.1875,-0.4375,0.5625,0
14680,-1.4375,-0.3125,0.3125,0
14700,-1.8125,-0.125,0.6875,0
14720,0,-0.375,1.25,0
14740,0.9375,-0.5,1.25,0
14760,0.125,-0.4375,0.6875,0
14780,-0.5625,0.125,0.5,0
14800,-1,0.4375,0.1875,0
14820,0.1875,-0.1875,0.375,0
14840,0.1875,-0.1875,0.3125,0
14860,0.25,-0.25,-0.25,0
14880,0.3125,-0.0625,-0.625,0
14900,0.6875,0.1875,-0.4375,0
14920,0.9375,-0.0625,-0.4375,0
14940,0.875,0,-0.25,0
14960,0.3125,0.3125,-0.0625,0
14980,0.1875,0.5,0.3125,0
15000,-0.5625,0.3125,0.1875,0
15020,-0.25,0.125,0.4375,0
15040,-0.0625,-0.0625,0.4375,0
15060,-0.3125,-0.0625,0.4375,0
15080,-1,-0.1875,0.25,0
15100,-0.9375,-0.0625,0,0
15120,-0.75,-0.0625,0.0625,0
15140,-0.375,-0.4375,0.125,0
15160,-0.0625,-0.3125,0.0625,0
15180,-0.125,-0.1875,-0.0625,0
15200,0.75,-0.3125,-0.3125,0
15220,0.8125,-0.1875,-0.5,0
15240,0.8125,-0.1875,-0.6875,0
15260,0.375,-0.125,-0.5625,0
15280,0.25,0,-0.375,0
15300,1.1875,0.0625,-0.625,0
15320,1.25,-0.25,-0.75,0
15340,0.5625,0.3125,-1.125,0
15360,1.125,0.375,-1,0
15380,1.8125,-0.3125,-0.4375,0
15400,1.25,-0.5,-0.6875,0
15420,1.25,-0.0625,-1,0
15440,0.4375,-0.25,-1,0
15460,0.125,-0.4375,-0.5625,0
15480,0.375,-0.375,-0.3125,0
15500,0.5,-0.3125,-0.1875,0
15520,0.0625,0.125,-0.125,0
15540,0.125,0.125,-0.125,0
15560,0.3125,-0.4375,0.0625,0
15580,-0.4375,-0.5,0.125,0
15600,-0.8125,-0.1875,-0.125,0
15620,-0.375,0.125,-0.25,0
15640,0.1875,-0.125,0.0625,0
15660,0.625,-0.1875,-0.25,0
15680,0.9375,-0.0625,-0.625,0
15700,1.0625,0,-0.625,0
15720,0.5625,0.0625,-0.6875,0
15740,0.25,-0.0625,-0.5625,0
15760,0.5625,-0.3125,-0.375,0
15780,0.125,-0.25,-0.0625,0
15800,0,0.125,0,0
15820,0,0.0625,-0.25,0
15840,-0.375,-0.125,-0.1875,0
15860,0.25,-0.375,-0.1875,0
15880,0.6875,-0.625,-0.25,0
15900,0,-0.375,0.0625,0
15920,0.3125,-0.5625,0.25,0
15940,0.75,-0.625,-0.25,0
15960,0.375,-0.8125,-0.4375,0
15980,-0.1875,-0.5625,-0.5,0
16000,-0.3125,-0.375,0,0
16020,0.375,-0.3125,0.0625,0
16040,1.1875,-0.125,0,0
16060,0.375,-0.125,0.25,0
16080,-0.75,-0.1875,0.6875,0
16100,-1.8125,0,0.625,0
16120,-1,-0.125,0.3125,0
16140,-0.3125,-0.375,-0.25,0
16160,0.125,-0.125,-0.5625,0
16180,-0.375,-0.375,-0.625,0
16200,-0.75,-0.125,-0.5,0
16220,0.5625,0.5,-0.75,0
16240,1.9375,-0.5625,-0.875,0
16260,1.3125,-0.875,-1.375,0
16280,-0.0625,-0.1875,-1.5625,0
16300,-0.625,-0.1875,-1.0625,0
16320,0,-0.375,-0.6875,0
16340,-0.375,-0.9375,-0.8125,0
16360,-0.625,-1,-0.8125,0
16380,-1.125,-0.6875,-0.5625,0
16400,-0.9375,-0.1875,-0.125,0
16420,-0.75,0.0625,-0.125,0
16440,0.5625,-0.5,-0.1875,0
16460,-1.375,-0.375,0.4375,0
16480,-0.75,0,0.625,0
16500,-0.75,-0.3125,0.5,0
16520,-0.875,-0.125,0.5625,0
16540,-0.3125,-0.125,0.375,0
16560,-0.0625,0.125,-0.125,0
16580,1,0.3125,-0.25,0
16600,1.625,0.1875,-0.3125,0
16620,1.25,0.25,-0.4375,0
16640,1.125,0.375,-0.5,0
16660,0.875,0.0625,-0.5625,0
16680,0.9375,-0.0625,-0.6875,0
16700,0.875,-0.1875,-0.4375,0
16720,0.875,-0.25,-0.4375,0
16740,1.125,-0.4375,-0.5625,0
16760,1,-0.5,-0.625,0
16780,0.5,-0.5,-0.875,0
16800,0.3125,-0.75,-1,0
16820,-0.25,-0.875,-0.9375,0
16840,-0.1875,-0.75,-0.8125,0
16850,0.25,-1.0625,-0.4375,0
16870,0.1875,-0.625,-0.25,0
16890,0.1875,-0.4375,-0.25,0
16910,0.1875,-0.5625,-0.5625,0
16930,0.25,-0.5,-0.25,0
16950,0.3125,-0.1875,-0.125,0
16970,1.0625,-0.25,-0.125,0
16990,0.875,-0.375,-0.1875,0
17010,-0.3125,0.125,-0.25,0
17030,0,0.8125,-0.25,0
17050,1.25,0.3125,-0.0625,0
17070,1.4375,-0.0625,0,0
17090,0.625,0.5625,-0.3125,0
17110,0.6875,0.4375,-0.625,0
17130,0.75,0,-0.75,0
17150,0,0.25,-0.5625,0
17170,0.5,-0.375,-0.6875,0
17190,-0.125,-0.75,-1.125,0
17210,-2.4375,-0.6875,-0.8125,0
17230,-3.625,-0.4375,-0.375,0
17250,-3.0625,-0.9375,0.1875,0
17270,-3.5,-1.0625,0.5625,0
17290,-2.9375,-0.5625,0.4375,0
17310,-1.5625,-0.5625,-0.0625,0
17330,0.1875,-0.6875,-0.0625,0
17350,0.5625,-0.5,-0.25,0
17370,0.625,-0.125,-0.4375,0
17390,0.9375,-0.0625,-0.375,0
17410,1.1875,-0.0625,-0.3125,0
17430,0.8125,0.125,-0.125,0
17450,0.625,0.3125,0.0625,0
17470,0.0625,0.25,0.4375,0
17490,0.5625,0.4375,0.5,0
17510,0.625,0.125,0.25,0
17530,-0.125,0.0625,0.0625,0
17550,0.625,-0.125,0.3125,0
17570,0.875,-0.25,0.1875,0
17590,-0.4375,-0.5,0.1875,0
17610,-1.3125,-0.375,0.25,0
17630,-1.5,-0.3125,0.3125,0
17650,-0.5625,-0.25,0.4375,0
17670,-0.75,-0.1875,0.4375,0
17690,-1.1875,0.3125,0.625,0
17710,-1.3125,0.25,0.625,0
17730,-0.75,0.3125,0.1875,0
17750,-0.375,0.125,-0.1875,0
17770,-0.25,0.25,-0.5,0
17790,1,0.3125,-0.9375,0
17810,1.9375,-0.1875,-1.375,0
17830,1.3125,-0.3125,-1.0625,0
17850,0.875,0.4375,-1.375,0
17870,1.5625,0.3125,-0.875,0
17890,2.125,-0.375,-0.5625,0
17910,2.0625,-0.4375,-0.6875,0
17930,1.0625,-0.125,-0.75,0
17950,0.0625,-0.3125,-0.375,0
17970,-0.4375,-0.5,-0.0625,0
17990,-0.25,-0.5,0,0
18010,0.375,-0.3125,0.1875,0
18030,0.1875,-0.0625,1,0
18050,-0.4375,0,1.4375,0
18070,-0.1875,-0.4375,1.6875,0
18090,0.1875,-1.0625,0.1875,0
18110,-0.25,-0.875,0.125,0
18130,-0.4375,-0.4375,-0.25,0
18150,0.3125,-0.8125,-0.4375,0
18170,1.5625,-1,-0.25,0
18190,2.75,-1,-1.0625,0
18210,2.5,-0.5625,-1.125,0
18230,2.25,-0.375,-0.75,0
18250,1.25,-0.4375,-0.4375,0
18270,-0.125,-0.625,-0.0625,0
18290,-1.625,-1.125,-0.125,0
18310,-2.0625,-0.5625,1.375,0
18330,-2.0625,-1.125,1.6875,0
18350,-2.9375,-0.6875,0.6875,0
18370,-1.1875,0.0625,-0.25,0
18390,-0.8125,-0.25,-0.5,0
18410,0.4375,-0.625,-0.375,0
18430,0.6875,-0.75,-0.375,0
18450,0.8125,-0.875,-0.125,0
18470,0.125,-0.5625,0.25,0
18490,-0.6875,-0.4375,0.5,0
18510,-0.625,-0.5625,0.75,0
18530,-0.0625,-0.75,0.6875,0
18550,-0.25,-0.6875,0.75,0
18570,-1.1875,-0.1875,0.625,0
18590,-2.0625,0.0625,0.875,0
18610,-1.375,0.125,0.625,0
18630,-0.8125,-0.3125,0.4375,0
18650,-0.5625,0.3125,0.25,0
18670,0.3125,0.6875,0.3125,0
18690,0.8125,0.1875,0.5,0
18710,0.1875,-0.1875,0.4375,0
18730,0.5625,-0.1875,-0.1875,0
18750,0.125,-0.375,-0.125,0
18770,-0.125,-0.125,-0.4375,0
18790,0.0625,-0.3125,-0.3125,0
18810,0.5625,-0.3125,-0.4375,0
18830,1.0625,-0.375,-0.375,0
18850,1,-0.125,-0.5625,0
18870,1,-0.3125,-0.5625,0
18890,0.8125,-0.625,-0.6875,0
18910,0.8125,-0.3125,-0.875,0
18930,1.3125,-0.0625,-1.125,0
18950,1.375,-0.3125,-1.25,0
18970,1.625,-0.5625,-1.3125,0
18990,2.0625,-0.8125,-1.1875,0
19010,1.125,-0.375,-1.375,0
19030,0.8125,-0.6875,-1.8125,0
19050,1.875,-0.75,-1.4375,0
19070,1.375,-0.625,-1.125,0
19090,1.5625,-0.3125,-1.375,0
19110,1.1875,-0.125,-1.6875,0
19130,0.8125,-0.3125,-1.4375,0
19150,-0.125,-0.75,-0.8125,0
19170,-1.5625,-0.25,0.625,0
19190,-1.25,-0.875,0.6875,0
19210,-1.1875,-1.3125,-1.25,0
19230,-0.25,-1.1875,-4.5,0
19250,2,-1.3125,-4.8125,0
19270,3,-0.0625,-3.5625,0
19290,4.875,0.0625,-1.6875,0
19310,6.0625,-0.25,-1.3125,0
19330,4.25,0.0625,-2.0625,0
19350,4,-0.375,-2.3125,0
19370,4.125,-1.3125,-1.8125,0
19390,3.1875,-0.8125,-1.5625,0
19400,2.3125,-1.1875,-1.3125,0
19420,0.75,-0.6875,-1,0
19440,0.125,0.875,-0.5625,0
19460,0.3125,1.0625,-0.375,0
19480,1.375,0.1875,-0.25,0
19500,2.25,-0.5,-0.75,0
19520,2.125,-0.5,-0.9375,0
19540,1.4375,-0.4375,-1.125,0
19560,2.25,-0.5625,-1.25,0
19580,1.5,-0.5,-1.8125,0
19600,1.25,-0.0625,-1.375,0
19620,1.375,0,-1.375,0
19640,1.25,0,-1.1875,0
19660,1.5,-0.5,-0.75,0
19680,2.4375,-1.625,-0.5625,0
19700,3.4375,-1.5625,-0.8125,0
19720,3.625,-1.4375,-1,0
19740,1.9375,-0.5625,-1.25,0
19760,0.625,0.1875,-1.4375,0
19780,1.75,-0.4375,-1.25,0
19800,2.625,-1.4375,-1.375,0
19820,3.125,-2.0625,-0.9375,0
19840,2,-2.5625,-0.5625,0
19860,0.0625,-2.625,-0.25,0
19880,-1.75,-3.25,-0.625,0
19900,-2.3125,-2.8125,-1.8125,0
19920,-1.375,-2.75,-1.625,0
19940,-1.4375,-3.1875,-1.5625,0
19960,-0.8125,-2.8125,-1.125,0
19980,1.0625,-2.5,-0.5625,0
20000,3.0625,-1.5625,-0.8125,0
20020,2.125,-0.125,-2.25,0
20040,1.9375,0.25,-2.5625,0
20060,0.0625,0.9375,-0.9375,0
20080,-0.375,1,0.9375,0
20100,1,0.25,1.4375,0
20120,2.25,-0.5625,0.5625,0
20140,1.75,-0.4375,0.375,0
20160,-1.3125,0.5,0.0625,0
20180,-1.75,1.3125,1.0625,0
20200,-1.5,2.875,1.6875,0
20220,-1.8125,3.5,2.1875,0
20240,-1.8125,2.25,0.75,0
20260,-0.5625,-0.5625,-0.1875,0
20280,2.0625,-4.8125,-0.25,0
20300,3.9375,-6.9375,1.1875,0
20320,2.6875,-6.1875,3.4375,0
20340,0.0625,-4.1875,2.8125,0
20360,-0.8125,-1.125,1.9375,0
20380,1.3125,-0.125,-0.25,0
20400,2.75,-1,-1,0
20420,2.3125,-1.5625,-0.25,0
20440,0.625,-1.6875,0.4375,0
20460,-1.5625,-1.4375,1.125,0
20480,-2.5625,-1,0.875,0
20500,-2.375,-0.0625,0.6875,0
20520,-1.75,0.8125,-0.125,0
20540,-0.3125,1.25,-1.125,0
20560,1.8125,1.3125,-1.4375,0
20580,2.5625,0.75,-1.5,0
20600,2.125,0.125,-1.8125,0
20620,1.8125,0.125,-1.4375,0
20640,2.375,0.125,-1.5625,0
20660,2.1875,1,-1.6875,0
20680,1.3125,2.0625,-2.1875,0
20700,1.625,2.1875,-2.6875,0
20720,2,1.875,-2.375,0
20740,2.1875,1.375,-1.8125,0
20760,1.8125,1.375,-1.125,0
20780,0.3125,1.0625,-0.9375,0
20800,0.125,0.875,-0.5,0
20820,0,0.3125,0.0625,0
20840,-0.25,0,0.375,0
20860,-0.25,-0.5,0.5,0
20880,-0.1875,-0.625,0.4375,0
20900,0,-1.0625,0.3125,0
20920,0.375,-1.25,0.375,0
20940,0.625,-0.75,0.3125,0
20960,0.75,-0.6875,0.3125,0
20980,0.9375,-0.6875,0.1875,0
21000,0.6875,-0.875,0,0
21020,0.6875,-0.6875,-0.3125,0
21040,0.4375,-0.5,-0.25,0
21060,0.0625,-0.8125,0,0
21080,0.1875,-0.375,-0.25,0
21100,-0.3125,-0.3125,-0.25,0
21120,-0.25,-0.3125,-0.3125,0
21140,-0.1875,-0.0625,-0.6875,0
21160,-0.375,-0.25,-0.375,0
21180,-0.9375,0,-0.1875,0
21200,-1.625,0.25,0.25,0
21220,-2.125,0.0625,1,0
21240,-2.25,0,1.25,0
21260,-1,-0.125,1.0625,0
21280,-0.4375,0.375,0.625,0
21300,-0.6875,0.9375,0.125,0
21320,0,0.625,-0.1875,0
21340,1.0625,0.6875,-0.5,0
21360,0.6875,0.4375,-0.9375,0
21380,0.5,0.375,-1.125,0
21400,1.3125,0.125,-1.0625,0
21420,1.75,-0.4375,-0.75,0
21440,1.875,-0.5,-0.4375,0
21460,1.9375,-0.875,-0.25,0
21480,1.1875,-0.9375,0,0
21500,0.375,-0.5625,0.1875,0
21520,0,-0.5625,0.4375,0
21540,-0.25,-0.4375,0.25,0
21560,0.1875,-0.5,0.25,0
21580,0.125,-0.5,0.0625,0
21600,0.125,-0.4375,0.1875,0
21620,0.1875,-0.4375,-0.0625,0
21640,-0.0625,-0.5,-0.375,0
21660,0.875,-0.5,-0.4375,0
21680,0.5625,0,-0.375,0
21700,0.3125,0.125,-0.75,0
21720,-0.125,-0.25,-0.4375,0
21740,-0.1875,-0.0625,-0.4375,0
21760,-0.25,0.0625,-0.625,0
21780,0.4375,-0.125,-0.5,0
21800,0.625,-0.25,-0.3125,0
21820,0.5,-0.125,-0.3125,0
21840,0.5,0,-0.5,0
21860,0,0.125,-0.375,0
21880,0.375,-0.0625,-0.1875,0
21900,0.125,0,-0.3125,0
21920,0.125,-0.5,-0.1875,0
21940,0.4375,-0.0625,-0.25,0
21950,0.5625,-0.1875,-0.375,0
21970,0.5625,-0.3125,-0.25,0
21990,0.6875,-0.6875,-0.0625,0
22010,0.5625,-1.125,-0.1875,0
22030,0.4375,-0.9375,-0.125,0
22050,0.9375,-0.8125,-0.3125,0
22070,1.625,-1.125,-0.5625,0
22090,1.0625,-0.8125,-0.4375,0
22110,1,-0.5,-0.375,0
22130,0.125,-0.125,-0.25,0
22150,-0.3125,-0.25,0.125,0
22170,-1,-0.125,0.25,0
22190,-1.125,-0.125,0.375,0
22210,-1.5,-0.0625,0.1875,0
22230,-0.6875,0,0.4375,0
22250,-0.4375,0.0625,-0.125,0
22270,-0.0625,0.25,-0.1875,0
22290,0.1875,0.25,-0.25,0
22310,0.625,0.0625,-0.5,0
22330,0.6875,-0.0625,-0.5,0
22350,0.9375,-0.4375,-0.5,0
22370,0.625,-0.5,-0.1875,0
22390,0.6875,-0.4375,-0.0625,0
22410,0.5,-0.4375,-0.25,0
22430,0.4375,-0.5,-0.125,0
22450,0.25,0.1875,-0.25,0
22470,-0.1875,0.375,-0.25,0
22490,-0.375,0,-0.1875,0
22510,-0.0625,-0.25,-0.3125,0
22530,-0.3125,-0.125,-0.3125,0
22550,0.1875,-0.1875,-0.375,0
22570,0.625,-0.3125,-0.4375,0
22590,0.8125,-0.5,-0.25,0
22610,1,-0.5,-0.3125,0
22630,0.9375,-0.5,-0.4375,0
22650,0.9375,-0.5,-0.375,0
22670,0.5,-0.3125,-0.25,0
22690,0.8125,-0.75,-0.125,0
22710,0.6875,-0.25,-0.125,0
22730,0.75,-0.125,-0.25,0
22750,0.625,-0.5,-0.25,0
22770,0.875,-0.4375,-0.1875,0
22790,1,-0.625,-0.3125,0
22810,0.125,-0.125,-0.125,0
22830,-0.1875,-0.0625,0,0
22850,-0.3125,-0.0625,-0.1875,0
22870,-0.3125,0,-0.25,0
22890,-0.125,0,-0.25,0
22910,-0.25,-0.0625,-0.125,0
22930,-0.125,-0.125,-0.25,0
22950,-0.1875,-0.1875,-0.375,0
22970,-0.0625,0.0625,-0.1875,0
22990,-0.3125,-0.125,-0.25,0
23010,-0.125,-0.0625,0,0
23030,-0.3125,-0.3125,0,0
23050,-0.3125,-0.3125,0,0
23070,-0.3125,-0.125,0.3125,0
23090,-0.3125,-0.1875,0.375,0
23110,-0.3125,0.125,0.375,0
23130,-0.625,0.25,0.1875,0
23150,-0.5,0.625,0.5,0
23170,0.0625,0.4375,0.375,0
23190,-0.1875,0.0625,-0.1875,0
23210,-0.0625,0.3125,-0.125,0
23230,0.4375,0.3125,-0.625,0
23250,1.0625,-0.375,-0.75,0
23270,0.4375,-0.1875,-0.5625,0
23290,1.375,0.4375,-0.8125,0
23310,1.0625,-0.5,-0.625,0
23330,0.5625,-0.5,-0.5625,0
23350,0.5,-0.75,-0.25,0
23370,0.5625,-0.9375,-0.3125,0
23390,0.9375,-1.0625,-0.0625,0
23410,0.875,-1.1875,-0.125,0
23430,0.3125,-1,0.25,0
23450,-0.0625,-0.75,0.3125,0
23470,-0.3125,-0.75,0.625,0
23490,-0.625,-0.5,0.875,0
23510,-0.625,-0.875,0.75,0
23530,-1.0625,-0.6875,0.9375,0
23550,-1.5,-0.25,0.75,0
23570,-1.0625,-0.0625,0.6875,0
23590,-0.375,-0.125,0.4375,0
23610,-0.1875,-0.0625,0.375,0
23630,-0.5,0.375,0.125,0
23650,-1.125,0.4375,0,0
23670,-1.125,0.1875,0.0625,0
23690,-0.75,0.5,-0.1875,0
23710,0.0625,0.25,-0.125,0
23730,0.125,0.25,-0.4375,0
23750,0.375,0.1875,-0.5,0
23770,0.125,0.1875,-0.375,0
23790,-0.3125,0.25,-0.25,0
23810,-0.4375,0.375,0.625,0
23830,-0.4375,0.125,0.9375,0
23850,-0.5,-0.1875,0.3125,0
23870,0.875,-0.9375,0.375,0
23890,1.875,-1.6875,-0.0625,0
23910,0.4375,-0.75,0.4375,0
23930,-2,0.1875,0.875,0
23950,-3.9375,0.9375,0.9375,0
23970,-3.125,0.5625,1.375,0
23990,-1.8125,0.5625,0.6875,0
24010,-1.1875,-0.4375,1.4375,0
24030,-0.875,0.375,-0.375,0
24050,1.5625,0.6875,-0.8125,0
24070,3.125,0.875,-1.5625,0
24090,3.1875,0.625,-2.0625,0
24110,2.75,1.1875,-2.1875,0
24130,3.375,0.75,-2.1875,0
24150,3.0625,0.0625,-2,0
24170,2.625,-0.1875,-2.125,0
24190,2.1875,-0.3125,-2.125,0
24210,2.375,-0.3125,-1.5625,0
24230,3.1875,-0.6875,-1.25,0
24250,2.75,-1,-0.8125,0
24270,2.75,-0.8125,-0.8125,0
24290,2.125,-0.8125,-0.8125,0
24310,2.25,-0.8125,-0.6875,0
24330,2.5625,-1.25,-0.6875,0
24350,2.75,-1.75,-0.625,0
24370,2.5,-1.1875,-0.6875,0
24390,2.875,-1,-0.9375,0
24410,2.75,-1.0625,-0.875,0
24430,2.8125,-1.3125,-1.1875,0
24450,2.9375,-1.1875,-1.0625,0
24470,2.5625,-0.9375,-1.375,0
24490,2.25,-0.8125,-1.1875,0
24500,1.875,-0.5,-1.125,0
24520,1.875,-0.3125,-1.125,0
24540,1.625,-0.125,-0.9375,0
24560,1.3125,-0.1875,-0.8125,0
24580,0.5,-0.125,-0.5,0
24600,0.3125,-0.25,-0.25,0
24620,-0.375,0.0625,-0.25,0
24640,-1,0.1875,-0.125,0
24660,-1.125,0.25,-0.0625,0
24680,-0.625,0.0625,-0.125,0
24700,-0.9375,-0.0625,-0.0625,0
24720,-1,-0.1875,0.125,0
24740,-1,0,-0.1875,0
24760,-0.5,0.1875,-0.125,0
24780,-0.8125,0.125,-0.1875,0
24800,-1.1875,0.1875,-0.0625,0
24820,-0.875,0,0,0
24840,-0.875,0.0625,0.1875,0
24860,-0.9375,0,0.1875,0
24880,-0.8125,-0.25,0.0625,0
24900,-1.125,-0.4375,0.375,0
24920,-1.3125,0.375,0.25,0
24940,-1.375,0.6875,-0.0625,0
24960,-1.375,0.4375,0,0
24980,-1.5625,0.125,0.0625,0
25000,-1.625,0.1875,-0.125,0
25020,-1.5625,0.25,-0.0625,0
25040,-1,-0.0625,-0.1875,0
25060,-0.5,-0.125,-0.125,0
25080,-0.1875,-0.0625,-0.1875,0
25100,0.125,0,-0.25,0
25120,-0.125,0.0625,-0.125,0
25140,0.125,0.0625,-0.0625,0
25160,0,-0.5,0,0
25180,0.375,-0.3125,-0.1875,0
25200,0.4375,-0.125,-0.1875,0
25220,0.75,-0.375,-0.1875,0
25240,1.0625,-0.5,-0.1875,0
25260,1.125,-0.5,-0.3125,0
25280,0.625,-0.3125,-0.25,0
25300,0.6875,-0.5625,-0.3125,0
25320,0.8125,-0.625,-0.25,0
25340,0.3125,-0.5625,-0.1875,0
25360,0.75,-0.4375,-0.3125,0
25380,0.875,-0.4375,-0.3125,0
25400,0.875,-0.375,-0.5,0
25420,0.625,-0.25,-0.4375,0
25440,0.75,-0.1875,-0.5,0
25460,0.5,-0.1875,-0.25,0
25480,0.6875,-0.1875,-0.375,0
25500,0.5,-0.5,-0.25,0
25520,0.8125,-0.5625,-0.3125,0
25540,0.6875,-0.5,-0.3125,0
25560,0.6875,-0.1875,-0.25,0
25580,0.4375,-0.1875,-0.375,0
25600,0.625,-0.125,-0.5,0
25620,0.75,-0.3125,-0.5,0
25640,1.5,-0.5625,-0.375,0
25660,1.125,-0.5625,-0.375,0
25680,0.8125,-0.3125,-0.5,0
25700,1,-0.3125,-0.8125,0
25720,0.9375,-0.625,-0.3125,0
25740,1,0,-0.3125,0
25760,0.875,0.125,-0.5,0
25780,0.4375,-0.3125,-0.3125,0
25800,0.3125,-0.125,-0.4375,0
25820,-0.1875,-0.1875,-0.6875,0
25840,-0.0625,-0.125,-0.4375,0
25860,0.25,-0.4375,-0.1875,0
25880,0.4375,-0.5625,-0.1875,0
25900,0.5,-0.4375,-0.25,0
25920,0.5,-0.375,-0.4375,0
25940,0.625,-0.5,-0.3125,0
25960,-0.0625,-0.3125,-0.125,0
25980,0,-0.4375,0.0625,0
26000,-0.0625,-0.0625,-0.125,0
26020,0.3125,-0.1875,-0.25,0
26040,0.5625,-0.375,-0.25,0
26060,0.5625,-0.375,-0.4375,0
26080,0.375,-0.125,-0.625,0
26100,-0.0625,-0.125,-0.4375,0
26120,0.125,-0.0625,-0.4375,0
26140,0.125,-0.3125,-0.25,0
26160,0.25,-0.125,-0.3125,0
26180,0.3125,-0.3125,-0.3125,0
26200,0.375,-0.1875,-0.3125,0
26220,0.25,-0.25,-0.25,0
26240,0.25,-0.1875,-0.1875,0
26260,0.375,-0.1875,-0.1875,0
26280,0.4375,-0.1875,-0.1875,0
26300,-0.125,-0.1875,-0.25,0
26320,-0.0625,-0.4375,-0.0625,0
26340,-0.125,-0.4375,0.0625,0
26360,-0.1875,-0.5,0,0
26380,-0.1875,-0.4375,0.125,0
26400,-0.125,-0.1875,-0.25,0
26420,0.125,-0.1875,-0.5,0
26440,0.125,-0.1875,-0.1875,0
26460,0.375,-0.3125,0.0625,0
26480,0.6875,-0.3125,0,0
26500,0.4375,-0.3125,-0.0625,0
26520,0.375,-0.125,-0.1875,0
26540,0.375,0,-0.4375,0
26560,0.5625,-0.1875,-0.0625,0
26580,0.5,0.4375,-0.1875,0
26600,0.3125,0.4375,-0.375,0
26620,0.25,-0.0625,-0.375,0
26640,-0.0625,-0.0625,-0.125,0
26660,-0.25,0.125,-0.1875,0
26680,0.125,-0.1875,-0.25,0
26700,0.5,-0.25,-0.125,0
26720,0.4375,-0.375,0.0625,0
26740,0.4375,-0.3125,-0.125,0
26760,0.25,-0.1875,-0.0625,0
26780,0.125,0,-0.0625,0
26800,0.3125,-0.3125,0,0
26820,0.5,-0.5625,0.25,0
26840,0.5,0,0.0625,0
26860,0.5625,0,-0.0625,0
26880,0.6875,0,-0.25,0
26900,0.75,-0.125,-0.25,0
26920,0.1875,0,-0.3125,0
26940,0.0625,0,-0.25,0
26960,0.1875,0.0625,-0.25,0
26980,0.0625,0.0625,-0.3125,0
27000,0.125,0.125,-0.3125,0
27020,0.1875,0,-0.3125,0
27040,0.125,0.25,-0.125,0
27050,0.375,0.25,-0.125,0
27070,0.3125,0.375,-0.1875,0
27090,0.3125,0.3125,-0.1875,0
27110,0.1875,0,0.0625,0
27130,0.125,-0.0625,0.25,0
27150,-0.125,0,0.125,0
27170,-0.3125,0.0625,-0.0625,0
27190,-0.875,0.0625,0.125,0
27210,-0.625,0.0625,0.25,0
27230,-1.1875,0.3125,0.4375,0
27250,-1.4375,0.0625,0.5625,0
27270,-1.0625,0.125,0.3125,0
27290,-0.9375,0.1875,0.1875,0
27310,-0.25,0.3125,0,0
27330,0.125,0.125,-0.375,0
27350,0.6875,-0.0625,-0.25,0
27370,0.8125,-0.0625,-0.0625,0
27390,0.75,-0.5,0.0625,0
27410,1.25,-0.1875,-0.3125,0
27430,1.3125,-0.1875,-0.5625,0
27450,0.9375,-0.25,-0.375,0
27470,0.8125,0.5,-0.4375,0
27490,1,0.3125,-0.625,0
27510,0.5,-0.0625,-0.125,0
27530,0.625,-0.0625,-0.25,0
27550,0.375,-0.3125,-0.5,0
27570,0.4375,-0.4375,-0.25,0
27590,0.625,-0.6875,-0.1875,0
27610,0.9375,-0.5,-0.125,0
27630,0.875,-0.125,-0.25,0
27650,0.8125,0,-0.4375,0
27670,0.25,0,-0.25,0
27690,0.625,-0.3125,-0.25,0
27710,1.0625,-0.625,-0.1875,0
27730,0.8125,-0.125,-0.125,0
27750,0.75,0.1875,-0.3125,0
27770,0.8125,-0.125,-0.375,0
27790,0.4375,-0.125,-0.375,0
27810,0.3125,0.0625,-0.5,0
27830,0.5,0.125,-0.625,0
27850,0.5625,0.0625,-0.5,0
27870,0.1875,-0.1875,-0.1875,0
27890,0.375,0.0625,-0.1875,0
27910,0.3125,-0.0625,-0.1875,0
27930,0.1875,-0.1875,0.0625,0
27950,0,-0.25,0.25,0
27970,0.125,0,0.1875,0
27990,0.125,0,0.125,0
28010,-0.25,-0.125,0.25,0
28030,-0.125,-0.125,0.25,0
28050,-0.375,0.0625,0.1875,0
28070,-0.1875,0,0.0625,0
28090,-0.25,-0.1875,0.0625,0
28110,-0.25,-0.0625,0.0625,0
28130,-0.1875,0.125,0,0
28150,-0.375,0.3125,-0.0625,0
28170,-1.125,0.375,0.0625,0
28190,-1,0.5625,0,0
28210,-0.4375,0.125,0.1875,0
28230,-0.5,0,0.25,0
28250,0.0625,0,0,0
28270,0.5,-0.1875,-0.125,0
28290,0.875,-0.125,-0.375,0
28310,0.5625,0.25,-0.4375,0
28330,0.5,0,-0.1875,0
28350,0.4375,0.0625,0.125,0
28370,0.375,0.3125,-0.375,0
28390,0.4375,-0.0625,-0.3125,0
28410,0.125,-0.1875,0.0625,0
28430,-0.125,-0.4375,0.25,0
28450,-0.1875,-0.25,0.1875,0
28470,-0.5625,-0.125,0.25,0
28490,-0.375,-0.25,0.3125,0
28510,-0.5,-0.125,0.1875,0
28530,-0.75,0.3125,0.125,0
28550,-0.9375,0.1875,0,0
28570,-0.8125,0.25,0,0
28590,-0.75,0,0.125,0
28610,-0.6875,0.125,0.3125,0
28630,-0.5,0.5,0,0
28650,0.1875,0.1875,-0.25,0
28670,0.625,-0.125,-0.4375,0
28690,0.3125,0,-0.3125,0
28710,0.375,0.125,-0.25,0
28730,0.25,0.25,-0.25,0
28750,0.3125,-0.0625,-0.4375,0
28770,0.3125,0,-0.5625,0
28790,0.125,0.0625,0.1875,0
28810,0.125,-0.0625,0.0625,0
28830,-0.0625,-0.3125,0.125,0
28850,-0.25,0,0.0625,0
28870,0.125,-0.25,0.3125,0
28890,0.4375,-0.4375,0.25,0
28910,0.1875,-0.1875,0.375,0
28930,0.3125,-0.3125,0.25,0
28950,0.1875,-0.375,0.1875,0
28970,0.25,-0.3125,0.25,0
28990,0.1875,-0.25,0.4375,0
29010,0.1875,-0.125,0.0625,0
29030,0.125,-0.1875,0.1875,0
29050,-0.125,-0.0625,0.1875,0
29070,-0.25,0.0625,0.25,0
29090,-0.125,0.3125,0.125,0
29110,-0.125,0.25,0.125,0
29130,0,0,0.125,0
29150,0.25,-0.125,-0.0625,0
29170,0.25,0.0625,0.0625,0
29190,0.125,0,0.125,0
29210,0.1875,-0.0625,0.0625,0
29230,0.25,-0.4375,0,0
29250,0.125,0.125,0.0625,0
29270,0.1875,0.5625,-0.375,0
29290,-0.1875,0.125,0,0
29310,-0.0625,-0.125,0.1875,0
29330,-0.0625,-0.5,0.125,0
29350,-0.0625,-0.25,0,0
29370,-0.5625,-0.25,0.6875,0
29390,-0.4375,-0.3125,0.125,0
29410,-0.1875,-0.125,0.25,0
29430,-0.3125,0,0.125,0
29450,-0.375,0.1875,0.4375,0
29470,-0.5,0.0625,0.375,0
29490,-0.1875,-0.375,0.25,0
29510,-0.375,-0.125,0.5,0
29530,-0.25,0.1875,0.1875,0
29550,0,0.1875,0.1875,0
29570,0.3125,0.0625,0,0
29590,0.1875,0.1875,-0.25,0
29600,0.125,0.25,-0.5,0
29620,0.5,0.3125,-0.625,0
29640,0.625,0.0625,-0.5,0
29660,0.5625,0.0625,-0.5625,0
29680,0.5625,-0.0625,-0.5,0
29700,0.3125,0.125,-0.4375,0
29720,-0.0625,0,-0.375,0
29740,0,0.125,-0.25,0
29760,0.0625,0.25,-0.3125,0
29780,-0.1875,0.125,-0.125,0
29800,-0.125,0.0625,-0.0625,0
29820,-0.25,0,-0.0625,0
29840,-0.4375,-0.125,0.375,0
29860,-0.375,0,-0.125,0
29880,0.0625,-0.3125,-0.3125,0
29900,0,-0.25,-0.1875,0
29920,-0.125,-0.125,-0.1875,0
29940,0.375,-0.25,-0.375,0
29960,0.5625,-0.125,-0.5,0
29980,0.5625,0,-0.5,0
30000,0.6875,-0.1875,-0.25,0
30020,0.625,-0.25,-0.25,0
30040,0.75,-0.1875,-0.3125,0
30060,0.5625,-0.25,-0.3125,0
30080,0.5625,-0.375,-0.1875,0
30100,0.3125,0.3125,-0.0625,0
30120,-0.5,0,0.0625,0
30140,-0.5625,-1,0.0625,0
30160,-2.25,-1,0.6875,0
30180,-4.625,-0.375,0.3125,0
30200,-7.1875,-0.9375,4,0
30220,-11.6875,-3,4.1875,0
30240,-9.875,-3.5,6.625,0
30260,-8,-5.0625,6.625,0
30280,-10.1875,-4.75,4.9375,0
30300,-9.6875,-4.125,6.0625,0
30320,-9,-2.8125,5.5625,0
30340,-8.375,-1.8125,4.8125,0
30360,-4.9375,-1.5,4.3125,0
30380,-0.75,-0.5,1.4375,0
30400,-1.1875,-0.1875,3.1875,0
30420,-3.1875,1.3125,1.25,0
30440,-3.6875,1.4375,1.0625,0
30460,-1.625,0.9375,1.3125,0
30480,0.0625,0.1875,1.8125,0
30500,-1,0.5,1.75,0
30520,-2.9375,0.875,1.8125,0
30540,-3.1875,0.9375,1.9375,0
30560,-2.3125,0.5625,1.625,0
30580,-0.9375,0.5625,1.5625,0
30600,-0.3125,0.4375,0.875,0
30620,0.625,0.0625,0.625,0
30640,0.9375,0.25,-0.3125,0
30660,1.1875,0.3125,-0.3125,0
30680,0.625,0.5,-0.25,0
30700,0.375,0.4375,0.0625,0
30720,0.0625,0.25,0.3125,0
30740,0.0625,0.5625,0.3125,0
30760,0.1875,0.625,0.625,0
30780,-0.25,0.375,0.625,0
30800,-0.8125,0.5625,0.8125,0
30820,-1.5625,0.5625,0.5625,0
30840,-1.0625,0.4375,0.4375,0
30860,-0.4375,0,0.25,0
30880,-0.125,0.375,-0.0625,0
30900,0.8125,0,-0.1875,0
30920,-0.1875,-0.25,-0.25,0
30940,-0.125,0.5,-0.3125,0
30960,1,0.125,-0.5625,0
30980,2.125,-0.5,-0.5,0
31000,2.375,-0.5,-0.875,0
31020,1.75,-0.25,-1.125,0
31040,0.8125,0.125,-1.0625,0
31060,1.0625,0.0625,-1.1875,0
31080,1.9375,-0.25,-1.25,0
31100,1.4375,-0.25,-1,0
31120,2.125,0,-0.8125,0
31140,1.1875,0,-0.875,0
31160,0.875,0,-0.75,0
31180,1.625,-0.3125,-0.8125,0
31200,0.75,-0.1875,-0.625,0
31220,0.0625,0.125,-0.625,0
31240,0.4375,-0.0625,-0.25,0
31260,0.6875,-0.0625,-0.4375,0
31280,1.5625,-0.125,-0.3125,0
31300,1.25,0.125,-0.5625,0
31320,0.625,0.375,-0.5625,0
31340,0.125,0.0625,-0.1875,0
31360,0.1875,-0.0625,0.3125,0
31380,-0.4375,-0.125,0,0
31400,-0.75,-0.25,0.0625,0
31420,-0.375,-0.4375,0.4375,0
31440,-1.375,-0.5,0.3125,0
31460,-2.0625,-0.3125,0.3125,0
31480,-2.125,-0.5625,0.625,0
31500,-0.875,-0.875,0.5625,0
31520,-0.375,-1.0625,1,0
31540,-0.75,-0.875,1,0
31560,-1.75,-0.5625,0.75,0
31580,-1.9375,-0.25,0.125,0
31600,-1.1875,-0.4375,0.4375,0
31620,-1.125,-0.5,0.3125,0
31640,-1.0625,-0.5,0.3125,0
31660,-0.4375,-0.5625,0.875,0
31680,-0.75,-1.125,0.5625,0
31700,-1.375,-1,0.3125,0
31720,-0.375,-2.4375,0.4375,0
31740,-0.625,-4.6875,2.75,0
31760,0.625,-7.875,7.4375,0
31780,9.5,-5.8125,5.5625,0
31800,-0.25,-14.4375,3.0625,0
31820,-13.25,-15.25,-5.25,0
31840,-14,-21.5625,-26.125,0
31860,9,-9.8125,-38.375,0
31880,43.4375,-34.9375,-66.875,0
31900,46.9375,-54.125,-67.5,0
31920,-0.1875,-52.125,-84.5625,0
31940,-10.875,-56,-98.5,0
31960,-2.625,-58.3125,-98.6875,0
31980,4.5625,-55,-97.8125,0
32000,13.875,-54.3125,-97,0
32020,11.8125,-50.5,-88.5,0
32040,4.125,-47.5,-78,0
32060,-7.0625,-44.3125,-68.125,0
32080,-8.625,-39.5,-59.625,0
32100,-0.6875,-35.875,-52.1875,0
32120,3.0625,-33.3125,-40.875,0
32140,3.9375,-27.9375,-30.625,0
32150,-2.125,-22.1875,-21.75,0
32170,-8.875,-19.125,-11.0625,0
32190,-7.0625,-17.4375,0.3125,0
32210,1.5625,-12.375,4.25,0
32230,3,-7.9375,4.875,0
32250,-2.625,-4.1875,7.5625,0
32270,-8.25,-0.25,10.9375,0
32290,-2.875,3,12.375,0
32310,6.5625,5.3125,12,0
32330,11.25,6.8125,13.3125,0
32350,12.3125,9.125,13.3125,0
32370,9.3125,10.125,14.3125,0
32390,3.25,12.1875,16.625,0
32410,1.5,13.125,19.375,0
32430,4.5,10.8125,23.625,0
32450,10.1875,8,24.9375,0
32470,18.0625,7.3125,23,0
32490,18.25,8.4375,22.25,0
32510,8,7.875,16.25,0
32530,3.125,5.75,9.5625,0
32550,8.25,-0.0625,4.5625,0
32570,13.1875,-6.75,2.875,0
32590,13.8125,-8.3125,0.625,0
32610,5.5625,-7.875,-5.8125,0
32630,-0.1875,-8.9375,-8.6875,0
32650,0.625,-10.125,-9.25,0
32670,4.3125,-9.4375,-9.9375,0
32690,4.5,-8.3125,-9.9375,0
32710,2.6875,-6.9375,-9.0625,0
32730,0.3125,-3.6875,-7.5,0
32750,-0.75,0.5,-6.0625,0
32770,1.1875,1.9375,-0.8125,0
32790,1.0625,3.625,3.875,0
32810,1.625,8.125,7.3125,0
32830,4.375,11.375,9.3125,0
32850,6.3125,12.4375,16.1875,0
32870,14.6875,9.4375,19.1875,0
32890,10.5625,8,17.5,0
32910,5.125,6,12.5,0
32930,1.9375,-0.9375,7.875,0
32950,3,-6.5625,3.6875,0
32970,2.125,-11.125,1.8125,0
32990,0.625,-16.25,-5.0625,0
33010,4.375,-23.375,-13.25,0
33030,10.125,-30.1875,-17,0
33050,7.6875,-29.5,-20.9375,0
33070,-0.625,-26.75,-29.1875,0
33090,-4.125,-28.4375,-31.875,0
33110,-0.4375,-29.3125,-28.375,0
33130,-2.75,-24.8125,-24.875,0
33150,-5.5,-20.125,-20.625,0
33170,-4.125,-17,-16.625,0
33190,-2.0625,-11.5625,-11.75,0
33210,-1.6875,-5.8125,-7.375,0
33230,-2.875,0.25,0,0
33250,-2.1875,7.0625,8.0625,0
33270,-0.4375,13.375,16.0625,0
33290,5.1875,20.9375,22,0
33310,8.125,27.25,28.8125,0
33330,1.0625,31.25,31.8125,0
33350,2.875,32.5625,31.75,0
33370,-2.625,25.8125,31.25,0
33390,11.125,16.125,25.9375,0
33410,22,10.625,16.125,0
33430,18.9375,3.6875,7.875,0
33450,13.1875,-2.875,8.8125,0
33470,6.1875,-14.5625,9.75,0
33490,7.125,-22.1875,8.4375,0
33510,-2.75,-23.25,9.0625,0
33530,-10.5625,-26.0625,9.6875,0
33550,-15.375,-35.3125,12,0
33570,-10.125,-40.9375,12.375,0
33590,-7.75,-43.0625,12.375,0
33610,-5.4375,-40.6875,8.5,0
33630,-2.5625,-39.1875,2.8125,0
33640,2.375,-35.875,0.875,0
33660,5.4375,-34.375,0.5625,0
33680,4.9375,-30.6875,-1.25,0
33680,-1,-24.625,-6.5625,0
33700,-1.4375,-23.25,-11.375,0
33700,0,-21.1875,-11,0
33720,7.6875,-22.625,-12.0625,0
33740,16.9375,-22,-10.9375,0
33760,5.375,-14.5,-17.9375,0
33800,-6.625,-7.6875,-20.4375,0
33820,0.1875,-16.5625,-5.5625,0
33840,-0.4375,-7.875,-5.6875,0
33860,7.4375,-5.0625,0.625,0
33880,-4.125,4.1875,0,0
33880,-13.25,5.1875,-0.25,0
33900,-0.375,-4.8125,14.8125,0
33940,-4.1875,0.375,16.5625,0
33990,-3.25,7.3125,-8.3125,0
34010,2.25,-9.9375,-15.375,0
34030,19.375,-22.3125,-0.25,0
34050,29.3125,-7.3125,-0.3125,0
34070,-12.3125,2.25,-30.6875,0
34090,-27.9375,-9.1875,-29.0625,0
34110,-8.625,-12.6875,-12.75,0
34130,15.9375,-10,-10.3125,0
34150,18.25,-1.6875,-12,0
34170,-8.4375,2.6875,-18.25,0
34190,-3.875,1.375,-16,0
34210,-11.0625,-5.6875,-8.875,0
34230,0,-3.75,-0.0625,0
34250,-4.9375,4.4375,-13.4375,0
34270,-10.1875,9.6875,-13.8125,0
34290,-20.875,9.1875,-10.9375,0
34310,-16.375,9.8125,-7.875,0
34330,-14.375,12.625,-13.4375,0
34350,2.4375,11.625,-13.125,0
34370,12.6875,15.625,-18.0625,0
34390,9.5625,20.25,-17.25,0
34410,-2.75,18.0625,-15.6875,0
34430,-13.3125,17.875,-10,0
34450,-12.4375,13.3125,-4.9375,0
34470,0.75,8.5625,-1.25,0
34490,-0.125,10.5625,-1.25,0
34510,-13.125,8.125,-2.75,0
34530,-8.625,4.1875,5.1875,0
34550,-6.0625,2.625,7.125,0
34570,-5.9375,1.625,4.0625,0
34590,-0.125,-2,5.1875,0
34610,-0.5625,-3.625,-0.1875,0
34630,4.75,-7.5,-3.6875,0
34650,5.375,-4.625,0.4375,0
34670,-0.375,-7.375,-3.3125,0
34690,7.0625,-11.1875,-10.625,0
34700,9.5625,-7.4375,-5.125,0
34720,4.125,-5.75,-0.8125,0
34740,-6.375,-3.1875,0.375,0
34750,-4.25,-2.5625,11.75,0
34770,-3.0625,1.5625,13.75,0
34790,-3.9375,6.75,14.8125,0
34810,-5.5,11.1875,14.4375,0
34820,-10.25,11.4375,13.3125,0
34840,-6.4375,10.4375,14.3125,0
34860,-1.5,3.8125,8.75,0
34870,-0.9375,-10.125,-6.8125,0
34880,7.3125,-11.375,-3.0625,0
34900,5.0625,-8.4375,-3.6875,0
34920,-4.0625,-3.4375,-4.1875,0
34940,-3.3125,-1.5625,-3,0
34960,-1.875,-3.4375,-1.4375,0
34980,7.0625,-9.25,-7.3125,0
35000,9.125,-6.1875,-7.1875,0
35020,4.75,-2.4375,-2.3125,0
35040,8.6875,-6.3125,-1.3125,0
35060,11,-5.5625,-4.1875,0
35080,10.4375,-6.375,-5.5,0
35100,2.0625,-2.5,-0.875,0
35120,2.8125,-1.9375,-1.5625,0
35140,1.375,-0.5,-2.625,0
35160,0.25,4.3125,0.1875,0
35180,-1.3125,5.6875,0.4375,0
35200,-4.8125,4.6875,0,0
35220,-3.125,5.1875,0.5,0
35240,-1.0625,7.6875,1.3125,0
35260,-4.3125,8,-4.875,0
35280,-6.125,10.8125,-3.5625,0
35300,-6.3125,7.625,-0.6875,0
35320,-7.8125,4.3125,-4.125,0
35340,-1.25,2.625,-4.25,0
35360,-4.375,3.625,-2.125,0
35380,-5.4375,4.1875,-2.8125,0
35400,-0.8125,5.5625,-3.375,0
35420,-1,4.1875,-1.1875,0
35440,-0.125,1.5625,1.125,0
35460,-2.75,2.0625,4.3125,0
35480,-5.625,2.375,2.4375,0
35500,-8.8125,0.5625,3.25,0
35520,-0.875,-0.75,10.9375,0
35540,6.0625,-4.5625,8.6875,0
35570,6.9375,-3.375,0.0625,0
35580,3.625,-2.8125,-1.0625,0
35600,4.4375,-2.375,3.125,0
35620,4.6875,-5.9375,4.75,0
35640,2.25,-4.25,4.125,0
35660,-2.0625,-0.5625,0.6875,0
35680,-2.3125,-1.3125,-1.5,0
35700,-0.375,-3.8125,0.5625,0
35720,0.625,-5.0625,1.25,0
35740,-1.1875,-3.4375,0,0
35760,-5.5625,-1.4375,-2.125,0
35780,-6.4375,-2.8125,-3.9375,0
35800,-4.5,-5.0625,-2.25,0
35820,-4.375,-3.1875,-0.5625,0
35840,-5.5625,-4.5625,-1,0
35860,-5.6875,-5.3125,-2.5625,0
35880,-5.1875,-3.125,-3.25,0
35900,-7.875,-1.0625,-2.875,0
35920,-8.625,-2.5625,0.0625,0
35940,-4.25,-2.375,-0.1875,0
35960,-4.4375,-2.1875,-2.3125,0
35980,-1.625,-6,-1.0625,0
36000,3.1875,-4.125,-1.1875,0
36020,-3.875,-2.0625,-2.25,0
36040,-4.625,-3.75,-3.75,0
36060,-6.5625,-3.375,-1.5,0
36080,-3.1875,-2.8125,-1.6875,0
36100,-5.625,-0.75,-2.75,0
36120,-9.4375,0.5,-2.6875,0
36140,-8.4375,-1.8125,-2.625,0
36160,-5,-1.8125,-2.5,0
36180,-5.9375,-2.5,-1.0625,0
36200,-5.875,-0.0625,-4.8125,0
36220,-9.4375,-0.6875,-4.5625,0
36240,-7.375,-3.125,-5.8125,0
36260,-8.3125,-2.6875,-6.9375,0
36280,-10.4375,-2.5,-6.625,0
36300,-12.5,-2.875,-7.5,0
36320,-14.9375,-1.875,-7.9375,0
36340,-13.4375,-3.375,-5.875,0
36360,-7.5,-5.3125,-6.125,0
36380,-12.5625,-5.375,-6.9375,0
36410,-4.1875,-4.5625,-4.25,0
36430,-3.4375,-3.875,-4.8125,0
36440,-5.5625,-1.5625,1.25,0
36460,-4.5625,1.1875,4.0625,0
36480,-0.625,2.0625,2.8125,0
36500,-2.6875,1.5,3.5,0
36520,-4,2.625,5.75,0
36540,-6.125,5.75,6.875,0
36560,-9,12.375,5.5,0
36580,-8.75,16.8125,11.4375,0
36600,-7,19.8125,16.9375,0
36620,-1.3125,21,8.9375,0
36640,-7.375,17.6875,6.875,0
36660,-7.5,13,7.25,2000
36680,-2.25,10.8125,3.8125,0
36700,2.3125,6.1875,1.6875,0
36720,-1.3125,2.0625,-0.0625,0
36740,-1.875,-1.9375,0.25,0
36760,-2.75,-2.25,0.9375,0
36780,-1.0625,-2.1875,-0.125,0
36800,-1.875,-2.8125,3.0625,0
36820,-1.875,-1.3125,4.9375,0
36840,-3.3125,1.25,3.0625,0
36860,-4.5625,1.1875,1.5625,0
36880,-4.9375,-1.75,1.6875,0
36900,0.75,-1.0625,-0.25,0
36920,-0.875,-1.875,-3.125,0
36940,-5.4375,-1.8125,-5.5625,0
36960,-3,-3.1875,-3.9375,0
36980,2.375,-5.0625,0.3125,0
37000,1,-0.6875,-4.4375,0
37010,-1.75,-0.5625,-7.9375,0
37030,-0.75,-3,-6.5625,0
37050,0.3125,-3.75,-4.25,0
37070,4.9375,-4.375,-1.875,0
37090,4.875,-2.5625,-4.5,0
37110,1.6875,-2.8125,-3.5,0
37130,0.375,-3.125,-0.6875,0
37150,-0.8125,-3.4375,-1,0
37170,1.625,-3.0625,0.0625,0
37190,2.75,-2.5,-0.3125,0
37210,0.625,-1.25,-2.875,0
37230,1.625,-2.375,-2.1875,0
37250,1.0625,-3.25,-0.8125,0
37270,2.75,-2.625,1.375,0
37290,1.125,-0.8125,0.125,0
37310,0,-1,-1.0625,0
37330,1.875,-1.375,-0.5,0
37350,1.6875,-1.5625,-0.875,0
37370,2.9375,-1.625,-0.9375,0
37390,1.5625,-2.9375,-1.25,0
37410,3.875,-3.625,0.1875,0
37430,4.125,-3.6875,0,0
37450,1.5625,-4.5625,-1.375,0
37470,0.375,-5.375,0.6875,0
37490,3.5,-4.375,2.5625,0
37510,3.6875,-3.5625,1.6875,0
37530,1.375,-4.3125,3.375,0
37550,3,-5.125,4.125,0
37570,3.5625,-5.75,2.625,0
37590,3,-5.75,2.875,0
37610,2.3125,-6.1875,0.6875,0
37630,4.4375,-7.25,-1,0
37650,2.4375,-8.0625,-0.1875,0
37670,4.875,-7.625,2.5625,0
37690,3.375,-7.9375,0.6875,0
37710,4.4375,-6.8125,-2.3125,0
37730,4.8125,-7.1875,-1.4375,0
37750,4.3125,-7.75,1.125,0
37770,3.375,-7.5,-0.0625,0
37790,4.5,-6.9375,0.1875,0
37810,5.25,-7.5625,0.75,0
37830,2.75,-7.4375,2.5625,0
37850,3.5,-7.125,-2,0
37870,2.5625,-5.75,-3.125,0
37890,7.5,-5.25,-5.25,0
37910,7.6875,-3.125,-8.625,0
37930,7.625,0,-9.375,0
37950,10.75,2.75,-10.5625,0
37970,14.875,5.4375,-16.5625,0
37990,12.375,5,-20.4375,0
38010,10.125,2.375,-19.0625,0
38030,8.625,3.25,-18.0625,0
38050,6,6.75,-19.1875,0
38070,5,11.4375,-20.5625,0
38090,5.3125,13.3125,-20.6875,0
38110,5.1875,15.125,-22.3125,0
38130,3.75,14.75,-23.1875,0
38150,3.125,17,-27.25,0
38170,-1.125,13.8125,-27.25,0
38190,-6.6875,14.875,-19.625,0
38210,-6.1875,17.5,-22.0625,0
38230,-10.6875,19.625,-28.25,0
38250,-16.75,19.75,-30.875,0
38270,-18.5625,22.625,-29.9375,0
38290,-9.0625,15.4375,-33.0625,0
38310,-13.3125,15.125,-33.8125,0
38330,-18.0625,16.8125,-34.625,0
38350,-18.9375,16.5,-38.1875,0
38370,-22.125,15.9375,-38.75,0
38390,-22.0625,17.625,-37.4375,0
38410,-22.5,19.875,-39.25,0
38430,-25.1875,20.1875,-40.625,0
38450,-26.125,16.75,-41.75,0
38470,-25.1875,14.375,-40.5625,0
38490,-26,13.75,-39,0
38510,-26.375,12.375,-35.875,0
38530,-25.1875,14.8125,-30,0
38550,-31.5625,17.9375,-21.625,0
38570,-33.5,24.8125,-19.625,0
38590,-32.75,23.75,-18.5,0
38610,-33.75,26.5,-16.6875,0
38630,-31.625,29.5,-18.625,0
38650,-30.6875,29.4375,-20.375,0
38670,-29.875,27.5625,-20.25,0
38690,-27.8125,27.75,-19.875,0
38710,-27.0625,26.9375,-22.5625,0
38730,-28,26.5,-22.25,0
38750,-28.5,28.8125,-20.8125,0
38770,-27.4375,30.375,-18.1875,0
38790,-29.75,31.3125,-18.25,0
38810,-29,31.375,-19.1875,0
38830,-28.3125,31.25,-15.3125,0
38850,-25.3125,30.25,-11.5,0
38870,-20.625,28.4375,-11.625,0
38890,-23.1875,24.5625,-13.1875,0
38910,-22.3125,20.1875,-13.375,0
38930,-21.25,16.6875,-9.3125,0
38950,-15.375,12.375,-5.25,0
38970,-7,9.3125,-6.25,0
38990,-8.875,8.625,-8.6875,0
39010,-10.0625,6.5625,-10.6875,0
39030,-11.1875,6.75,-10.875,0
39050,-9.8125,6.75,-10.3125,0
39070,-9.625,7.375,-11.1875,0
39090,-6.6875,8.375,-9.5,0
39110,-5.5625,10.375,-6.875,0
39130,-3.75,10.6875,-4.875,0
39150,-3.625,9.125,-4.5,0
39170,-4.75,8.4375,-3.1875,0
39190,-4.875,6.625,0.5,0
39210,-4.4375,6.25,6.875,0
39230,2.25,5.5625,8.3125,0
39250,3.8125,5.3125,8.125,0
39270,2,3.9375,11.3125,0
39290,4.875,1,13.6875,0
39310,10.5,-2.3125,14.75,0
39330,15.875,-6.125,17.0625,0
39350,9.8125,-3.375,19,0
39370,9.1875,-5.625,14.9375,0
39390,7.5625,-10.625,13.75,0
39410,10.4375,-14.4375,16.4375,0
39430,12.8125,-16.6875,16.6875,0
39450,9.8125,-18.3125,13.875,0
39470,11.5,-19,14.9375,0
39490,10.125,-18,16.1875,0
39510,4.0625,-16.375,20.1875,0
39530,4.8125,-14.125,21.6875,0
39550,10.3125,-12.5,20.375,0
39560,12.125,-13.875,15.8125,0
39580,7.0625,-14.5625,15.1875,0
39600,3.0625,-14.8125,17.9375,0
39620,5.75,-14.0625,19.625,0
39640,9.1875,-15.875,16.5,0
39660,1.625,-17.5,15.4375,0
39680,1.6875,-18.625,18.375,0
39700,3.25,-18.5625,19,0
39720,3.75,-20.5625,19.25,0
39740,0.875,-21.9375,21,0
39770,12.4375,-27.375,16.125,0
39790,9.6875,-27.6875,15.9375,0
39810,7.375,-30.5625,14.75,0
39830,9.8125,-32.9375,13.375,0
39850,15.8125,-35,15.4375,0
39870,15,-33.3125,12.8125,0
39890,13,-32.875,11.3125,0
39910,13,-34.125,11.4375,0
39930,12.5625,-34.5,12.6875,0
39950,10.875,-34.625,13.8125,0
39970,8.8125,-34.0625,15.75,0
39990,10.125,-34.9375,15.4375,0
40010,7.5625,-33.6875,12.6875,0
40030,7.0625,-32.9375,14.3125,0
40050,6.1875,-32.75,14.0625,0
40070,9.125,-31.9375,10.4375,0
40090,10.375,-32.5625,8.6875,0
40110,12.8125,-32.6875,5.625,0
40130,7.75,-31.6875,4.625,0
40150,6.4375,-30.1875,7.375,0
40170,10,-27.875,8.4375,0
40190,11.3125,-27.9375,6.6875,0
40210,6.0625,-29.1875,8.125,0
40230,6.5625,-27.9375,12.1875,0
40250,5.0625,-27.25,8.5,0
40270,2.1875,-28.6875,9.0625,0
40290,4.0625,-29.8125,9.25,0
40310,6.1875,-31.1875,6.625,0
40330,6.125,-31.1875,5.125,0
40350,8.8125,-33,3.0625,0
40370,3.75,-34.125,-0.3125,0
40390,0.875,-34.1875,-1.9375,0
40410,4.4375,-33.375,-1.8125,0
40430,10.4375,-33.0625,-6.5,0
40450,8.5625,-32.6875,-12.75,0
40470,3.75,-30.25,-13.1875,0
40490,1.375,-26.8125,-13.8125,0
40510,1.8125,-24.5625,-16.625,0
40530,4.625,-24.25,-16.75,0
40550,7.125,-19.5625,-18.3125,0
40570,-0.125,-15.8125,-21.6875,0
40590,-1.25,-12.6875,-23.3125,0
40610,0.125,-10.375,-25.4375,0
40630,1.3125,-5.25,-26.3125,0
40650,-0.875,0.9375,-25.875,0
40670,-3.25,4.75,-26.5,0
40690,-9.8125,7.25,-25.9375,0
40710,-8.8125,11.5,-22.375,0
40730,-8.3125,16.75,-20.1875,0
40750,-7.25,19.5,-22.25,0
40770,-14.5,16.1875,-23.8125,0
40790,-19.3125,17.125,-21.5625,0
40810,-14.8125,20.1875,-24.3125,0
40830,-13.6875,22.1875,-28.25,0
40850,-18.75,22.875,-26.0625,0
40870,-20.6875,21.25,-25.375,0
40890,-17.375,20.125,-31.0625,0
40910,-18.5,22.5,-31.25,0
40930,-21.1875,21.6875,-30,0
40950,-20.5,20.0625,-30.25,0
40970,-19.4375,21.8125,-30.3125,0
40990,-21.1875,22.5625,-29.875,0
41010,-22.3125,25.4375,-24.25,0
41030,-22.875,27.25,-24.4375,0
41050,-25.375,29,-27,0
41070,-23.875,29.3125,-25.3125,0
41090,-27.25,32.25,-25.3125,0
41110,-29.5625,34.5625,-28.9375,0
41130,-31.75,35.9375,-29.1875,0
41150,-29,35.6875,-30.0625,0
41170,-23.25,37.25,-31.25,0
41190,-25.5,39.3125,-31.5625,0
41210,-28.375,39.5,-29.875,0
41230,-27.75,37.0625,-30.8125,0
41250,-24.9375,33.6875,-32.25,0
41270,-24.4375,31.75,-29.6875,0
41290,-25.25,31.9375,-28,0
41310,-26.75,31.8125,-25.9375,0
41330,-24.9375,30,-22.25,0
41350,-19.125,26.5625,-19.1875,0
41370,-16.8125,25.625,-16.5625,0
41390,-19,25.8125,-14.9375,0
41410,-19.3125,22.625,-10.375,0
41430,-17,21.4375,-7.0625,0
41450,-13.0625,21.875,-6.5,0
41470,-11.625,23.125,-5.375,0
41490,-18.5625,25.875,-1.625,0
41510,-14.625,24.5625,-2.0625,0
41530,-7.375,20.6875,-3.125,0
41550,-6.25,21.1875,-4.9375,0
41570,-9.6875,21.125,-4.9375,0
41590,-16.375,17.25,0.3125,0
41610,-5.9375,13.5625,1.4375,0
41630,-2,14.0625,0.75,0
41650,-3.5625,14.875,1.75,0
41670,-7.625,16,2.875,0
41690,-13.25,15.9375,12.5,0
41710,-0.25,15.8125,15.1875,0
41730,-0.25,14.4375,11.9375,0
41750,-6.625,14.0625,12,0
41770,-4,10.4375,16.5625,0
41790,2.3125,8.4375,17.75,0
41810,3.1875,7.375,15.5,0
41830,-1.9375,4.375,15.3125,0
41850,-1.875,-0.875,18.5625,0
41870,1.75,-5.25,20.1875,0
41890,3.25,-8.25,20,0
41910,1.3125,-10.9375,18.3125,0
41930,-1.3125,-13.875,20.625,0
41950,4.1875,-17.375,20.875,0
41970,4.875,-18.3125,19.9375,0
41990,2.0625,-18.125,19.5,0
42010,5.1875,-19.8125,21.125,0
42030,5.5,-23.25,18.1875,0
42050,7.5,-24.625,16.25,0
42070,5.3125,-23.1875,17.625,0
42080,5.25,-22.0625,16.6875,0
42100,4,-22.75,13.9375,0
42120,8.375,-22.875,12.8125,0
42140,10.3125,-22.5,12.6875,0
42160,10.6875,-21.375,11.9375,0
42180,7.125,-22.875,11.0625,0
42200,5.75,-23.625,12.25,0
42220,8,-23.9375,11.125,0
42240,8.1875,-25,9.9375,0
42260,9.3125,-26.1875,9.8125,0
42280,8.625,-25.625,11.375,0
42300,11.0625,-25.4375,9.125,0
42320,9.125,-26,9.5625,0
42340,10.9375,-25.6875,10.9375,0
42360,13.1875,-25.1875,10,0
42380,12.0625,-25.6875,9.875,0
42400,9.5625,-25.3125,10.75,0
42420,8.25,-25.25,13.0625,0
42440,10,-24.6875,13.375,0
42460,10,-24.125,14.5,0
42480,8.125,-23.8125,16.25,0
42500,6.6875,-21.875,17.0625,0
42520,6.375,-20.3125,15.5625,0
42540,7.9375,-20.6875,14.3125,0
42560,8.5,-20.0625,14.0625,0
42580,7,-17.75,13.1875,0
42600,5.6875,-16.375,12.3125,0
42620,6.8125,-16.6875,10.75,0
42640,9.3125,-15.5,9.6875,0
42660,9.75,-16.125,7.625,0
42680,7.5,-15.4375,6.375,0
42700,7.5,-15.0625,6.9375,0
42720,7,-15.375,6.75,0
42740,7.3125,-16.4375,6.0625,0
42760,6.4375,-15.6875,5.6875,0
42780,4.9375,-15.1875,4.3125,0
42800,4.875,-15.9375,4.75,0
42820,5.375,-16.125,4.875,0
42840,6.375,-15.3125,2.625,0
42850,4.875,-15.875,0.25,0
42870,2.4375,-18.1875,-0.4375,0
42890,6.6875,-18.6875,-0.8125,0
42910,6.4375,-18.3125,-1.875,0
42930,5.75,-20.4375,-2.625,0
42950,4.125,-22.0625,-2.8125,0
42970,4.4375,-20.6875,-2.6875,0
42990,1.875,-19.4375,-1.75,0
43010,3.375,-18.3125,-0.75,0
43030,2.125,-17.625,-1.8125,0
43050,3.375,-17.375,-1.9375,0
43070,3.3125,-16.9375,-3.4375,0
43090,2.8125,-16.5625,-4.25,0
43110,2.625,-16.6875,-2.75,0
43130,3.5,-15.0625,-1.75,0
43150,5.125,-13.3125,-1.9375,0
43170,0.4375,-12.75,-2.125,0
43190,0.125,-13.5,-1.875,0
43210,-0.6875,-13.6875,-2.0625,0
43230,0.8125,-13.875,-0.125,0
43250,0.125,-11.9375,2,0
43270,-0.5625,-10.8125,0.625,0
43290,-0.5625,-11,1.625,0
43310,-0.6875,-10.25,2,0
43330,-1.75,-9.125,0.5,0
43350,-0.4375,-8.5625,-0.5,0
43370,-1.0625,-6.875,-2.6875,0
43390,0.875,-6,-3.5,0
43410,2.625,-7.625,-3.875,0
43430,4.5625,-9.25,-6.9375,0
43450,2.9375,-8.5625,-8.875,0
43470,0.5,-8.0625,-9.5625,0
43490,0.125,-8.9375,-10.375,0
43510,3.25,-10.1875,-10.375,0
43530,5.1875,-9.125,-11.6875,0
43550,2.125,-9.8125,-13.8125,0
43570,1.5,-11.5625,-13.4375,0
43590,5.5625,-11.5625,-16.1875,0
43610,2.375,-11,-18.8125,0
43630,0.8125,-11.9375,-18.125,0
43650,-2.125,-11.125,-18.5,0
43670,0,-11.6875,-19,0
43690,-1.5,-12.125,-19.25,0
43710,-5.3125,-11.875,-18.9375,0
43730,-7.8125,-10.4375,-17.6875,0
43750,-7.8125,-10.1875,-19.375,0
43770,-7.375,-11.1875,-23.5,0
43790,-8.3125,-11.8125,-21.875,0
43810,-7.6875,-9.8125,-25.3125,0
43830,-10.5,-5.5625,-25.75,0
43850,-8.875,-3.1875,-21.3125,0
43870,-3.875,-2.4375,-21.875,0
43890,-7,1.0625,-22.375,0
43910,-9.5,4.125,-17.0625,0
43930,-10.875,6.75,-16.3125,0
43950,-11.5,10,-16.375,0
43970,-11.625,13.5,-14.9375,0
43990,-11.25,16,-17.625,0
44010,-13.1875,17.0625,-19.125,0
44030,-17,18.1875,-19.1875,0
44050,-17.875,18.9375,-18.75,0
44070,-16.875,20.875,-18.75,0
44090,-15.75,22.1875,-19.3125,0
44110,-18,23.8125,-18.9375,0
44130,-18.9375,24.0625,-20,0
44150,-20.125,25.625,-21.5,0
44170,-21.125,26.5625,-22.6875,0
44190,-24.125,27.5625,-19.8125,0
44210,-21.75,27.3125,-19.75,0
44230,-25.0625,25.1875,-20.75,0
44250,-25.4375,25.25,-20.375,0
44270,-25.625,24.9375,-22,0
44290,-26.75,24,-22.4375,0
44310,-26.5,24.6875,-22.375,0
44330,-24.8125,25.1875,-22.5,0
44350,-23.8125,24.6875,-21.4375,0
44370,-23.8125,25.625,-19.6875,0
44390,-24.3125,27.75,-17.875,0
44410,-23.75,25.75,-19.1875,0
44430,-24.8125,23.9375,-19.875,0
44450,-25.5625,24.0625,-17.8125,0
44470,-24.4375,22.75,-16.5625,0
44490,-20.8125,22.625,-16.5625,0
44510,-22.5,22.125,-15.1875,0
44530,-23.5,22.375,-13.75,0
44550,-21.5,22.75,-15.5,0
44570,-23.8125,22.9375,-14.5,0
44590,-18.5625,23.1875,-11.125,0
44610,-16.375,24.4375,-9.75,0
44630,-13.875,22.5,-0.5625,0
44640,-8.75,21.875,1.3125,0
44660,-8.1875,21.5,0,0
44680,-9.125,19.9375,0.25,0
44700,-6.625,18.375,2.25,0
44720,-8.1875,18.8125,5.625,0
44740,-2.6875,19.5625,5.8125,0
44760,-4.875,20.9375,5.125,0
44780,-4.875,21,5.1875,0
44800,-8.1875,22.4375,7.6875,0
44820,-5.1875,22.375,8,0
44840,-1.6875,21.8125,10.25,0
44860,1,22.5625,9.625,0
44880,-0.5,22.5625,8.4375,0
44900,-4.6875,20.3125,9.1875,0
44920,-2.25,17.3125,9.6875,0
44940,-0.125,16.6875,9.5625,0
44960,2.25,17.5625,7.1875,0
44980,-3.1875,18.25,6.5,0
45000,-5.625,17.4375,8.125,0
45020,0.875,13.9375,11.4375,0
45040,6.4375,11.375,12.3125,0
45060,5.9375,11.125,13.5,0
45080,1.5,11.5,13.125,0
45100,-5.75,11.4375,11.5625,0
45120,-10.4375,6.875,17.5625,0
45140,3.25,4.5625,18.25,0
45160,5.8125,2.9375,17.9375,0
45180,1.25,4,17.5,0
45200,-4.375,3.0625,16.9375,0
45220,-2.25,0.9375,20.875,0
45240,2.6875,-0.8125,23.875,0
45260,6.875,-0.0625,21.375,0
45280,4.75,1.375,21.5,0
45300,1.3125,-0.6875,21.125,0
45320,5.125,-2.25,19.4375,0
45340,8.5,-2.9375,17.9375,0
45360,9.625,-3.4375,15.3125,0
45380,8.1875,-4.25,15.875,0
45400,8.875,-5.75,17.1875,0
45420,13.25,-5.5,16.125,0
45440,10.125,-5.375,13.0625,0
45460,10.125,-6.8125,14.125,0
45480,11.6875,-7.5,14.25,0
45500,9.25,-5.6875,14.625,0
45520,10.25,-3.625,14.5625,0
45540,8.3125,-4.5625,12.375,0
45560,10.375,-7.1875,11.5,0
45580,10.4375,-7.1875,11.25,0
45600,9.1875,-8.0625,11.625,0
45620,5.5,-8.4375,11.875,0
45640,3.6875,-8.3125,13.25,0
45660,3.625,-9.0625,12.75,0
45680,2.875,-10.0625,13.625,0
45700,3.9375,-11.4375,14.6875,0
45720,5.25,-11.875,13.125,0
45740,5.625,-11.9375,10.625,0
45760,2.1875,-12.5,10.125,0
45780,6.25,-13.5625,10.6875,0
45800,6.9375,-14.1875,10,0
45820,8.9375,-13.875,9.4375,0
45840,8.9375,-13.0625,9.75,0
45860,10.875,-14.3125,9.125,0
45880,6.9375,-16.3125,8.1875,0
45900,9.125,-16.6875,10.1875,0
45920,9.0625,-17.125,10.625,0
45940,7,-17.875,9.25,0
45960,5.9375,-17.0625,11.1875,0
45980,7.125,-15.8125,13.625,0
46000,9.5,-16.25,14,0
46020,8.4375,-16.5,13.5625,0
46040,4.9375,-16.125,12.375,0
46060,3.875,-17.0625,12.375,0
46080,4.9375,-16.6875,12.3125,0
46100,4.8125,-15.5625,11.25,0
46120,1.8125,-15.8125,12.0625,0
46140,1.875,-16.125,12.875,0
46160,1.3125,-15.0625,13.9375,0
46180,1.0625,-13.625,14.4375,0
46200,0.25,-13.0625,13.125,0
46220,0.5,-14.25,11.8125,0
46240,1,-14.4375,10.3125,0
46260,1,-13.875,9.6875,0
46280,3.0625,-16,9.0625,0
46300,1.875,-15.75,7.1875,0
46320,1.5625,-15.9375,6.5,0
46340,1.9375,-16.0625,5.125,0
46360,2.6875,-16.9375,5.5625,0
46380,4.4375,-17.6875,5.8125,0
46400,0.875,-17.75,5.0625,0
46420,0.25,-17.3125,5.25,0
46440,-0.125,-17.25,3.8125,0
46460,0.25,-19,1.5625,0
46480,1.9375,-19.1875,-0.1875,0
46500,2.5,-19.25,-0.8125,0
46520,4.5625,-18.625,-1.125,0
46540,3.25,-18,-3.3125,0
46560,3.9375,-18.125,-2.5625,0
46580,1.1875,-17,-2.125,0
46600,1.4375,-16.75,-1.6875,0
46620,2.1875,-17.9375,-1.5,0
46640,0.5,-18.5625,-3.25,0
46660,0,-17.5625,-2.1875,0
46680,-0.1875,-17.5,-3.0625,0
46700,0.8125,-18.5,-3.8125,0
46720,1.6875,-18.3125,-6.8125,0
46740,0.875,-17.75,-6.25,0
46760,-1.5625,-16.625,-5.5625,0
46780,-0.5,-16.125,-7.25,0
46800,1.75,-15.0625,-6.9375,0
46820,0.5625,-13.5625,-6.875,0
46840,0.3125,-15.875,-6.4375,0
46860,-2.5625,-16.875,-8.625,0
46880,-6.125,-17.3125,-9.25,0
46900,-6.4375,-19.875,-8.6875,0
46920,-6.625,-20.6875,-8.3125,0
46940,-1.5625,-21.0625,-7,0
46960,0.9375,-20.5625,-9.3125,0
46980,-1.3125,-20.25,-12.8125,0
47000,-1.5,-22.0625,-14.75,0
47020,-1.5625,-22.25,-15.9375,0
47040,-1.3125,-20.625,-14.4375,0
47060,0.375,-20.875,-13.1875,0
47080,-0.5,-20.75,-14,0
47100,0.375,-21.0625,-12.875,0
47120,-2,-21.375,-11.8125,0
47140,-4.125,-20.375,-11.125,0
47150,-4.1875,-20.4375,-9.8125,0
47170,-3.25,-19.75,-9.3125,0
47190,1.25,-20.5,-10.375,0
47210,0,-19.6875,-12.5625,0
47230,-1.625,-18.9375,-12.125,0
47250,1.0625,-17.6875,-12.375,0
47270,7.125,-16.5,-12.25,0
47290,5.3125,-14.6875,-16,0
47310,3.1875,-11.625,-16.5625,0
47330,0.6875,-10.4375,-14.8125,0
47350,5,-10.75,-15.4375,0
47370,3.1875,-10.625,-17.3125,0
47390,3.0625,-9.1875,-17.3125,0
47410,-0.5625,-10.8125,-18.8125,0
47430,-2.625,-11.875,-15.875,0
47450,0.3125,-11.375,-13.9375,0
47470,-2.6875,-8.5625,-14,0
47490,-4.75,-7.125,-16.625,0
47510,0.125,-8.375,-17.125,0
47530,1.6875,-7.5,-21.3125,0
47550,-4.75,-3.75,-23.125,0
47570,-5.0625,-2.875,-21.0625,0
47590,-2.25,-2.375,-23.5625,0
47610,0.25,-0.75,-25,0
47630,-0.3125,0,-25.375,0
47650,-2.375,0.875,-22.3125,0
47670,-0.625,1.5625,-23.6875,0
47690,-2.1875,1.75,-25.25,0
47710,-4.75,1.375,-23.1875,2001
47730,-4.4375,1.75,-19.4375,0
47750,0.375,0.875,-15.6875,0
47770,-1.8125,-0.1875,-13.3125,0
47790,-5.0625,0.5625,-9.4375,0
47810,-5.25,1.25,-6.0625,0
47830,-3.125,-0.4375,-3.6875,0
47850,-4.3125,-3.125,-1.75,0
47870,-4.0625,-4.25,-0.625,0
47890,-3.25,-4.5,-0.75,0
47910,-2.1875,-3.875,-0.375,0
47930,-1.375,-3.625,0.875,0
47950,1.3125,-1.875,1.625,0
47970,2.4375,-2.125,0.6875,0
47990,0.875,-1.875,0.375,0
48010,-2.5625,-0.1875,1.875,0
48030,-1.8125,1.5625,2.3125,0
48050,0.125,1.875,1.1875,0
48070,3,1.1875,0.75,0
48090,1.5,0.1875,-1.4375,0
48110,-2.3125,-0.5,0.9375,0
48130,1.5,-3.5,3.625,0
48150,2.875,-2.125,2.75,0
48170,1.5,-1.5,2,0
48190,0.5625,-1.6875,3.3125,0
48210,-0.4375,0.1875,4.4375,0
48230,4.5625,1.375,4.8125,0
48250,3.1875,7.6875,10.125,0
48270,4.5625,14.5,14.4375,0
48290,3.5,21.125,22.3125,0
48310,4.875,18.625,36.5,0
48330,8.8125,19.875,49,0
48350,19.5,24.6875,59.25,0
48370,15.25,24.5,68.9375,0
48390,5.6875,19.0625,72.8125,0
48410,8.625,25.4375,76.8125,0
48430,24.5625,32.75,91.25,0
48450,39.8125,23.5625,96,0
48470,33.3125,25.9375,99.25,0
48490,43.375,33.125,100.25,0
48510,58.6875,36.25,100.688,0
48530,53.25,27.25,90.5,0
48550,44.1875,26.1875,91.1875,0
48570,65.3125,23.8125,102.312,0
48590,75.75,17.9375,90.0625,0
48610,55.0625,16.1875,71.375,0
48630,39.9375,15.0625,73.6875,0
48650,50.5,11.1875,72.8125,0
48670,53.9375,7.0625,59.375,0
48690,27.0625,5.8125,42.5,0
48710,24.125,5.3125,42.125,0
48730,27.5625,2.9375,35.3125,0
48750,26.0625,0.75,20.3125,0
48770,16,5.25,8.875,0
48790,2.875,7.5,9.25,0
48810,-3.5,7.4375,15.0625,0
48830,14,2.625,14.3125,0
48850,17.6875,-0.4375,13.375,0
48870,12.75,-0.125,13.3125,0
48890,2.375,-0.5,14.625,0
48910,-4.25,1.75,12.4375,0
48930,-2,0.75,12.6875,0
48950,1.0625,-0.1875,15.125,0
48970,5.875,-2.6875,12.75,0
48990,9.6875,-4.3125,14.5,0
49010,10.6875,-3.8125,12.375,0
49030,-2.125,-5.125,4.8125,0
49050,-7.0625,-6.3125,2.75,0
49070,-4.4375,-6.0625,5.5,0
49090,-1.5625,-4.375,2.6875,0
49110,0.0625,-3.625,-1.625,0
49130,-6.125,-3.5625,-0.375,0
49150,-4.3125,-4.75,5.1875,0
49170,1.75,-5.6875,7.5625,0
49190,-4.375,-4.625,6.1875,0
49210,-5.1875,-5.5,1,0
49230,-11.0625,-8.125,1.6875,0
49250,-4.8125,-11.0625,1.5625,0
49270,-0.4375,-10.3125,-1.6875,0
49290,-1.625,-7.125,-3.125,0
49310,-3.4375,-3.125,-4.3125,0
49330,-3.75,-1.75,-6.6875,0
49350,-0.5625,-0.8125,-5.5625,0
49370,6.5,-0.5,-2.8125,0
49390,8.125,2.75,-1.125,0
49410,2.3125,5.375,-1.25,0
49430,-4.375,5.25,-3.75,0
49450,-3.875,3,-5,0
49470,3.375,0.375,-1.0625,0
49490,3.375,0.25,4.75,0
49510,0.5625,1.1875,4.75,0
49530,0.25,-0.75,0.875,0
49550,-0.5625,-4.25,0.375,0
49570,-1.75,-7.5625,2.5,0
49590,-1.3125,-8.4375,4.375,0
49610,1.375,-10,1.875,0
49630,4.375,-12.9375,-0.375,0
49650,3.625,-16.0625,-3.1875,0
49670,3.5,-17.125,-3.0625,0
49690,2.5625,-17.0625,-2.0625,0
49710,1.25,-16.6875,-2.3125,0
49720,3.5,-17.4375,-1.6875,0
49740,4.6875,-17.125,-1.1875,0
49760,5.4375,-16.75,-0.5,0
49780,4.0625,-14.875,0.125,0
49800,5.3125,-11.5625,-2.4375,0
49820,6.0625,-11.125,-3.375,0
49840,5.8125,-12.25,-2.75,0
49860,7.875,-12.0625,-2.625,0
49880,5.6875,-10.5625,-3.9375,0
49900,5.0625,-9.125,-2.3125,0
49920,2.8125,-9.75,1.125,0
49940,4.0625,-8.6875,0.5625,0
49960,4.25,-8.3125,1.5625,0
49980,2.9375,-7.6875,3.6875,0
50000,1.1875,-5.9375,4.1875,0
50020,3.125,-4.875,5.25,0
50040,4.875,-2.9375,6.6875,0
50060,4.4375,-3.0625,4.8125,0
50080,2.25,-2.875,3.625,0
50100,0.4375,-0.625,3.8125,0
50120,2,1.9375,2.625,0
50140,5,6.0625,-1.375,0
50160,3.5625,6.375,-2.625,0
50180,3.5,7.125,-4.75,0
50200,3.1875,14.3125,-6.125,0
50220,2.125,16.8125,-10.1875,0
50240,2.25,15.6875,-13.875,0
50260,0.875,12.1875,-15.25,0
50280,0.6875,10.25,-19,0
50300,-0.5,11.4375,-22,0
50320,-0.4375,8.75,-26.8125,0
50340,-4.875,6.5625,-26.9375,0
50360,-2.75,1.375,-25.0625,0
50380,-1.3125,2.5,-23.125,0
50400,-7.625,1.9375,-19.9375,0
50420,-10.25,-0.5,-15.9375,0
50440,-11.5625,-2.4375,-13.6875,0
50460,-12.9375,-5.9375,-10.375,0
50480,-12.0625,-10.5,-11.6875,0
50500,-9.0625,-16.75,-10.9375,0
50520,-9.625,-17.625,-8.25,0
50540,-10.8125,-13.375,-4.375,0
50560,-12.625,-4.75,-2.4375,0
50580,-11.875,0,-3.4375,0
50600,-18.8125,6.75,9.375,0
50620,-13.5625,10.875,23.3125,0
50640,4.375,13.125,23.8125,0
50660,7.25,9.6875,15.5,0
50680,-2.6875,8,11.5625,0
50700,0.0625,5.6875,8.5,0
50720,-0.25,7.5625,6.4375,0
50740,3.0625,4.6875,5.9375,0
50760,-2.9375,5.875,-1.3125,0
50780,-2.1875,6.3125,-2.6875,0
50800,-5.5,2.25,-0.9375,0
50820,-0.5,2.6875,-1.25,0
50840,-3.625,7.875,0.0625,0
50860,-0.375,7.9375,3.6875,0
50880,-1.75,6.875,9.5625,0
50900,12.6875,5.1875,11.0625,0
50920,13.0625,6.0625,7.625,0
50940,1.6875,4.1875,3.875,0
50960,-7.3125,2.3125,5.8125,0
50980,-7.5625,2,4.3125,0
51000,-3.75,2.25,1.5,0
51020,0.8125,1.0625,1.875,0
51040,-4.125,4,-0.6875,0
51060,-4.4375,8.1875,1.375,0
51080,-6.6875,13.125,7.75,0
51100,-5.5,16.3125,13.125,0
51120,3.6875,15.75,13.5,0
51140,4.125,17.375,11.25,0
51160,3.4375,17.125,13.0625,0
51180,2.9375,18.1875,11.8125,0
51200,5.25,15.5,6.1875,0
51220,1.25,8.75,2.125,0
51240,-0.9375,2.875,0.3125,0
51260,-1.75,-0.4375,-2.125,0
51280,4.5625,-2.6875,-4.9375,0
51300,3.25,-4.6875,-3.375,0
51320,4.375,-6.5625,-5.625,0
51340,2.5,-9.25,-6.5625,0
51360,1.6875,-10.4375,-4,0
51380,5.3125,-11.125,-2.875,0
51400,2.5,-7.75,-5.9375,0
51420,0.5625,-7.5625,-7.6875,0
51440,0.625,-8.125,-5.25,0
51460,2.4375,-7.1875,-2.3125,0
51480,3.125,-5.0625,-1.25,0
51500,1.625,-4.5,-1.0625,0
51520,0.9375,-4.3125,0.3125,0
51540,0.3125,-5.1875,1.375,0
51560,1.4375,-4,1.0625,0
51580,1,-5,-1.125,0
51600,0.5,-4.4375,-0.1875,0
51620,3.125,-5.75,0.875,0
51640,3,-5.875,-0.75,0
51660,3.5625,-6.625,-5.875,0
51680,0.6875,-8.75,-5.75,0
51700,3.75,-11,-1.125,0
51720,7.4375,-12.6875,-0.75,0
51740,0.0625,-13.75,-4.5625,0
51760,0.25,-15.8125,-2.25,0
51780,0.625,-17,-0.875,0
51800,2.3125,-16.4375,-0.5,0
51820,3.125,-14.25,-2.8125,0
51840,3.25,-13.25,-4.875,0
51860,8,-12.375,-2.625,0
51880,5.1875,-12.4375,0.125,0
51900,-0.4375,-10.3125,-1.25,0
51920,3.9375,-9.875,-3.1875,0
51940,6.1875,-9.625,-0.6875,0
51960,8.6875,-10.125,5.0625,0
51980,5.0625,-10.875,-1,0
52000,1.4375,-11,-5.5,0
52020,2.75,-12.25,-1.875,0
52040,8.6875,-11.5625,1.5625,0
52060,6.125,-10.5625,-3.8125,0
52080,3.6875,-10.6875,-7.875,0
52100,2.3125,-10.4375,-5.25,0
52120,6.8125,-9.125,-2.3125,0
52140,1.8125,-8.1875,-2.5625,0
52160,-0.5,-6.8125,-5.1875,0
52180,1.125,-5.4375,-6.1875,0
52200,0.25,-4.0625,-4.1875,0
52220,-3.4375,-3.4375,-1.875,0
52240,-3.3125,0.5,-2.875,0
52260,-5.9375,4.6875,-6.375,0
52280,-4,5.625,-5.4375,0
52290,-8.4375,10.1875,0.6875,0
52310,-3.625,10.9375,2.875,0
52330,-5,15.0625,-1.125,0
52350,-2,16.3125,-2.3125,0
52370,-1.875,18.375,-2.5,0
52390,0,21.0625,2.875,0
52410,-5.4375,26.75,1.375,0
52430,-3.5,25.125,4.75,0
52450,1.5,26.5,9.8125,0
52470,1.6875,31.375,12.375,0
52490,8,30.75,12.6875,0
52510,6.9375,27.5625,5.0625,0
52530,-1.625,24.5,2.3125,0
52550,-7.875,19.125,0.625,0
52570,-10.125,14.875,-2.6875,0
52590,-7.3125,9.5,-7.25,0
52610,-6.25,3.3125,-9.6875,0
52630,-10.3125,0.375,-9.0625,0
52650,-13.5625,-1,-9.25,0
52670,-15.6875,0,-11.6875,0
52690,-15.0625,-3.125,-7.8125,0
52710,-14.375,-4.5,-6.1875,0
52730,-16,-4.0625,-2.1875,0
52750,-16,-1.125,2.8125,0
52770,-15.6875,-2.3125,3,0
52790,-10.4375,-3.5,0.125,0
52810,-13.125,-1.8125,4.125,0
52830,-3.375,-0.9375,3.4375,0
52850,-3.25,-2.3125,3.125,0
52870,-2.1875,-0.375,5.5625,0
52890,-2.75,5.625,7.25,0
52910,-4,5.375,6.125,0
52930,-0.6875,4,5.5625,0
52950,3,4.8125,5.25,0
52970,5,5.0625,7.8125,0
52990,2.25,4.5,8.625,0
53010,-1.1875,3.3125,7.4375,0
53030,-0.75,3,7.4375,0
53050,-2.875,2.0625,9.0625,0
53070,-0.3125,1,7.9375,0
53090,2.375,-0.25,5.5,0
53110,2.6875,-0.6875,4.75,0
53130,1.8125,-1,3.3125,0
53150,0.875,-1.125,0.9375,0
53170,-0.1875,-0.4375,0.9375,0
53190,2.0625,-1.0625,1.625,0
53210,1.9375,-1.9375,-0.875,0
53230,-0.125,-1.75,-0.5625,0
53250,-4.875,-0.5,-1.9375,0
53270,-5.0625,-1.625,-0.625,0
53290,-3.9375,-4.625,0.3125,0
53310,2.3125,-6.3125,-2.375,0
53330,1.5625,-6.1875,-2.9375,0
53350,3.5,-3.375,-6.875,0
53370,-3.875,2,-5.0625,0
53390,-2.6875,1.625,-2.3125,0
53410,0.125,-0.125,-2.8125,0
53430,5,-1.1875,-2.0625,0
53450,3.8125,0.125,-6.0625,0
53470,0.4375,-0.5,-2.3125,0
53490,2.8125,-2.3125,1.0625,0
53510,4.625,-1.3125,0.875,0
53530,3.5625,-0.25,-4,0
53550,-1,-2.125,-0.375,0
53570,1.6875,-3.75,3.1875,0
53590,6,-3.625,-3.5625,0
53610,1,-4.875,-5.9375,0
53630,2.5625,-6.75,-0.5625,0
53650,2.625,-5.875,0.3125,0
53670,2.3125,-4.25,-4.8125,0
53690,-2.3125,-3.125,-8.25,0
53710,-0.25,-5.0625,-3.8125,0
53730,2.125,-4.8125,1.625,0
53750,1.1875,-1.125,-0.8125,0
53770,-1.5625,-0.1875,-6.5,0
53790,-1.875,-0.5625,-4.9375,0
53810,1.3125,0.0625,1.875,0
53830,3.625,0.625,2.75,0
53850,0.1875,2.0625,-2.25,0
53870,-2.8125,2.0625,-3.3125,0
53890,2.0625,0.125,2.0625,0
53910,4.1875,0.5,2.25,0
53930,2.625,1.125,-5.625,0
53950,-0.4375,0.125,-1.4375,0
53970,4.375,-1.25,3.875,0
53990,5.0625,-1.4375,2.3125,0
54010,1.125,-2.375,1.1875,0
54030,1,-4.1875,0,0
54050,3.3125,-7.0625,2,0
54070,5.6875,-9.5625,6.5625,0
54090,3.1875,-9.5,1.375,0
54110,4.5,-12.875,-3.4375,0
54130,4.25,-16.0625,-1.8125,0
54150,4.8125,-15.375,3.8125,0
54170,5.3125,-13.4375,-0.0625,0
54190,9.0625,-14.25,-7.5,0
54210,4.9375,-14.3125,-6.0625,0
54230,4.625,-13.25,-0.0625,0
54250,3,-10.9375,-0.3125,0
54270,6.625,-9.375,-4.9375,0
54290,7.25,-9.4375,-4.125,0
54310,7.1875,-10.125,1.5,0
54330,3.8125,-7.8125,-0.125,0
54350,3.1875,-7.1875,-6.9375,0
54370,5.375,-7.25,-5.4375,0
54390,8.3125,-9.9375,0.9375,0
54410,8.375,-9.9375,-0.6875,0
54430,3.5625,-9.1875,-8.4375,0
54450,2.25,-10.625,-8.9375,0
54470,7.25,-10.125,-4.9375,0
54490,7.6875,-10,-2.8125,0
54510,5.1875,-9.6875,-7.9375,0
54530,1.1875,-9.375,-11.5625,0
54550,1.25,-8.0625,-4.8125,0
54570,6.1875,-5.75,-2.5,0
54590,6.25,-5.125,-8.9375,0
54610,-0.1875,-5,-12.0625,0
54630,-1.875,-3.875,-8.125,0
54650,-1,-1.625,-2.125,0
54670,2.25,-0.1875,-1.75,0
54690,-0.875,-0.75,-6.1875,0
54710,-2.5,3.3125,-6.1875,0
54730,-2.375,6.3125,-3.5625,0
54750,-9,13.375,2.375,0
54770,-9,18.4375,6.9375,0
54790,-8.6875,22.875,9.75,0
54810,-0.9375,22.625,12.4375,0
54830,0.375,22.4375,9.8125,0
54850,-6.5625,22.5625,10.8125,0
54860,-3.3125,20.5625,13.4375,0
54880,3.875,22.3125,11,0
54900,-1.75,25.4375,5.4375,0
54920,-5.375,22.375,-1.5,0
54940,-8.875,17.1875,-1.5,0
54960,-8.5625,12.75,0.9375,0
54980,-2.8125,7.875,-5.875,0
55000,-4.25,3.625,-10.875,0
55020,-6.25,-2.25,-14.5625,0
55040,-4.3125,-5.5,-20.5,0
55060,-3.375,-7.375,-18.5,0
55080,-5.875,-7.4375,-15.3125,0
55100,-5.5625,-7.75,-14.1875,0
55120,-4.75,-5.8125,-11.25,0
55140,-4.6875,-2.875,-7.1875,0
55160,-9.25,-0.5625,-6.25,0
55180,-10.5625,-1.1875,0,0
55200,-10.75,2.0625,6,0
55220,-2.9375,1.875,7.8125,0
55240,-2.4375,1.3125,1.1875,0
55260,-5.625,0,1.5,0
55280,-1.5625,-2.625,5.375,0
55300,11.8125,-4.125,-7.6875,0
55320,-4.5,0.375,-6.6875,0
55340,-0.375,-3.625,4.0625,0
55360,1,-2.5625,5.875,0
55380,3.75,-1.4375,5.25,0
55400,-1.1875,1.125,3.5625,0
55420,-1.375,1.8125,4.5,0
55440,2.0625,1.125,8.125,0
55460,3.75,4.375,5.375,0
55480,-0.1875,6.1875,0.8125,0
55500,-0.75,6.125,3.625,0
55520,-0.375,7.25,5.25,0
55540,3.875,7.6875,3.875,0
55560,1.375,7.3125,1.6875,0
55580,0.5625,5.5625,5.125,0
55600,-0.0625,6.25,2.5,0
55620,0.5625,3.3125,1.9375,0
55640,0.4375,2.5625,0.625,0
55660,2.25,1.75,1.875,0
55680,0.5625,1,3.1875,0
55700,-1.125,1.4375,0.6875,0
55720,-1.25,1.9375,-1.875,0
55740,0.0625,0.25,1,0
55760,0.5625,0.125,2.5,0
55780,0.5,0.125,-3.5625,0
55800,-1.875,-1.5,-5.375,0
55820,1.75,-2.9375,1.5,0
55840,1.9375,-1.75,1.75,0
55860,-1.3125,-1.5625,-2.125,0
55880,-3.375,-1.25,-2.5,0
55900,1.1875,-1.4375,-1.625,0
55920,1.1875,-1.125,2.0625,0
55940,-1.5625,-0.25,-1.0625,0
55960,-2.0625,-1,-1.9375,0
55980,0.75,-1.5625,-3,0
56000,2.5625,-0.3125,0.1875,0
56020,0.1875,1.0625,2.875,0
56040,2.125,1.8125,-0.1875,0
56060,2.5625,2,-1.5625,0
56080,6.5625,2.8125,-5.1875,0
56100,4.5625,3.9375,-2.3125,0
56120,-0.25,4.6875,-1.1875,0
56140,1.625,-0.25,-5,0
56160,6.875,-0.75,-4.1875,0
56180,5.25,2.5625,-3.1875,0
56200,4.1875,3.875,-5.3125,0
56220,4,3.5,-3.8125,0
56240,1.375,4.4375,-3.75,0
56260,2.4375,2.5,0.125,0
56280,6.8125,-0.75,-1.6875,0
56300,2.6875,-3.625,-2.3125,0
56320,2.5625,-6.1875,-4.0625,0
56340,1.4375,-7.125,-8.125,0
56360,0.125,-7.9375,-10.0625,0
56380,-1.4375,-5.75,-10,0
56410,-4.75,1.6875,-14.375,0
56430,-6.4375,6.8125,-13.625,0
56450,-7.6875,14,-14.125,0
56470,-9.375,20,-13.3125,0
56490,-8.1875,22.75,-10.5,0
56510,0.0625,24.5,-7.1875,0
56530,5.6875,25.3125,-7.5,0
56550,5.875,23,-13.125,0
56570,2.5625,18.25,-12.3125,0
56590,1.25,12,-9.3125,0
56610,1.875,3.5625,-3.5,0
56630,4.375,-4.5,4,0
56650,4.625,-11,9.1875,0
56670,3.0625,-13.8125,11.0625,0
56690,3.875,-14.625,9.875,0
56710,5.375,-19.75,6.125,0
56730,8.1875,-18.125,8.6875,0
56750,2.375,-9.0625,8.1875,0
56770,-1.625,-2.125,-3.375,0
56790,-9.125,5.625,-17.8125,0
56810,-9.3125,7.3125,-16.75,0
56830,-11.9375,7.5,-3,0
56850,0,0.25,-1.0625,0
56870,-0.375,-1.5,-8.0625,0
56890,-4.9375,-4.5625,-6.6875,0
56910,-5.1875,-5.5625,-3.25,0
56930,-1.0625,-3.125,-1,0
56950,-3.125,-2.5,-0.5,0
56970,-4.75,-2.125,2.3125,0
56990,-5.625,-3.1875,0.1875,0
57010,4.9375,-4.5,0.0625,0
57030,0.9375,-1.3125,4,0
57050,2.0625,2.8125,7.625,0
57070,-2.875,6.5625,2,0
57090,-4.1875,8.5,-2,0
57110,-0.625,10.8125,3.6875,0
57130,-4.5,6.625,3.0625,0
57150,0.625,0.3125,13.3125,0
57170,5.75,1.875,6.0625,0
57190,-0.25,3.3125,-6.5,0
57210,-4.6875,1.25,-0.25,0
57230,0.3125,-1.6875,5.375,0
57250,5.625,-0.1875,3.75,0
57270,5.9375,-0.1875,5.1875,0
57290,1.5625,0.375,3,0
57310,-3.5625,0.4375,-1.5,0
57330,1.6875,-0.375,0.6875,0
57350,4.125,-0.1875,1.625,0
57370,2.25,0.5,3.6875,0
57390,-0.5625,-1.25,4.0625,0
57410,3.875,-0.875,2.75,0
57420,6.6875,0.0625,3.5625,0
57440,9,-2.875,2.6875,0
57460,5.75,-3.4375,1,0
57480,0.6875,-0.25,-6.3125,0
57500,-1.6875,1,-6.3125,0
57520,1.0625,0.25,-0.6875,0
57540,3.9375,-1,-2.1875,0
57560,4.875,-2.5625,-3,0
57580,1.8125,-3.5625,-1.5,0
57600,2.875,-3.4375,0.4375,0
57620,2.5625,-2.1875,2.875,0
57640,3.0625,-5,-1.1875,0
57660,-0.0625,-2.4375,-2.8125,0
57680,-1.4375,-3.3125,-1.75,0
57700,3.5625,-5.6875,0.125,0
57720,4.4375,-4.3125,2.75,0
57740,3.0625,-5.75,-2.375,0
57760,1.75,-5.125,-1.75,0
57780,-0.875,-2.8125,0.3125,0
57800,0.0625,-3.75,-2.375,0
57820,2.9375,-5,-3.625,0
57840,4.1875,-6.0625,0.125,0
57860,-0.25,-6.4375,-1.6875,0
57880,1,-4.1875,-4.375,0
57900,-4.875,-3.25,-2.25,2000
57920,-2,-4.6875,-3.0625,0
57940,0.1875,-4.5625,-0.6875,0
57960,1.5,-4.375,2.875,0
57980,-0.625,-1.0625,1.5,0
58000,-6.3125,-0.4375,2.5625,0
58020,-2.375,-0.8125,4.8125,0
58040,3.625,0.4375,7.0625,0
58060,1.25,2.5,9.0625,0
58080,-3.4375,3.625,4.875,0
58100,-8.375,5.75,7.125,0
58120,-7.875,6.625,8.75,0
58140,-1.1875,8,10.5625,0
58160,2.6875,7.75,14.25,0
58180,3.375,10.5,13.3125,0
58200,2.75,9.625,7.6875,0
58220,1.5625,5.5,6.1875,0
58240,5.5,4.4375,9.3125,0
58260,4.625,6.625,7.75,0
58280,1.1875,5.5625,4.625,0
58300,-8.5625,2.3125,5.4375,0
58320,-6.8125,-2,4.0625,0
58340,2.625,-4.8125,1,0
58360,-0.875,-3.9375,-5.9375,0
58380,1.6875,-5.875,-5,0
58400,0.1875,-7.4375,-1.8125,0
58420,-1.75,-4.625,-4.625,0
58440,-5,-0.1875,-9.875,0
58460,-3.0625,-0.4375,-10.125,0
58480,-3.5,-2.25,-1.25,0
58500,2.75,-2.25,1.875,0
58520,4.8125,-0.125,-7.5625,0
58540,-0.375,-0.3125,-7.0625,0
58560,-0.125,-2.125,0.125,0
58580,3.5625,-1.75,-1.25,0
58600,4.5625,-1.1875,-1.1875,0
58620,-3.625,0,-2.3125,0
58640,-2.25,0.5625,0.5625,0
58660,1,-0.5,1.5625,0
58680,2.5,-1.375,0.5625,0
58700,2.125,-1.4375,2.6875,0
58720,1.6875,-1.6875,0.1875,0
58740,-0.4375,-2.6875,-1.625,0
58760,1.625,-3.6875,1.6875,0
58780,4.875,-3.3125,-1,0
58800,1.1875,-3,-4.25,0
58820,1.75,-4.9375,-1.625,0
58840,3.4375,-4.4375,-2.4375,0
58860,1.4375,-3.5625,-2.3125,0
58880,-0.1875,-3.6875,0.875,0
58900,-1.6875,-2.875,-1.6875,0
58920,-1.625,-2.8125,1,0
58940,2.25,-2.6875,0.75,0
58960,1.3125,-1.1875,-1.125,0
58980,1.3125,-2.0625,1.625,0
59000,1.75,-1.4375,0.875,0
59020,2.0625,-2.875,-2,0
59040,2.5,-4.875,-0.75,0
59060,4.1875,-6.5625,-0.375,0
59080,4.8125,-8.9375,0.6875,0
59100,4.5,-10.5,-2.5625,0
59120,4.25,-12.6875,-5.875,0
59140,2.0625,-13.9375,-3.875,0
59160,6.875,-14.9375,-1.625,0
59180,5.6875,-12.9375,-1.5625,0
59200,6.4375,-11.875,-6.1875,0
59220,-0.5,-10.375,-9,0
59240,0.25,-10.9375,-4.125,0
59260,3.1875,-11.5625,0.3125,0
59280,7.4375,-11.125,-3.375,0
59300,5.5625,-11.1875,-10.25,0
59320,1.25,-12.125,-4.875,0
59340,2.875,-11.9375,-2,0
59360,3.3125,-9.5,-5.3125,0
59380,2.25,-8.8125,-6,0
59400,1.8125,-9.4375,-6.3125,0
59420,1.3125,-9.5625,-4.8125,0
59440,1.4375,-9.625,-5.625,0
59460,1.8125,-8.25,-9.3125,0
59480,0.8125,-8.4375,-7.5,0
59500,2,-8.1875,-4.0625,0
59520,3.8125,-6.75,-5.625,0
59540,1.625,-7.125,-8.3125,0
59560,1.9375,-8.4375,-8.625,0
59580,0.875,-8.6875,-6.75,0
59600,0.5,-7.625,-1.375,0
59620,1.9375,-3.75,-6.75,0
59640,2.125,-5.75,-9.8125,0
59660,-1.5625,-3.3125,-6.8125,0
59680,-1.75,-3.5,-8.375,0
59700,-1.4375,-0.5,-12.75,0
59720,-0.9375,1,-12.8125,0
59740,-0.25,1.5625,-12.5,0
59760,-4.8125,-0.375,-11.75,0
59780,-6.5,-0.5,-13.9375,0
59800,-7.1875,0.0625,-14.625,0
59820,-4.5,-2.4375,-17.0625,0
59840,-5.875,0.75,-17.3125,0
59860,-8.5,5.75,-20.5625,0
59880,-9.375,9.625,-23.9375,0
59900,-10.6875,11.9375,-28.875,0
59920,-13.125,11.6875,-33.25,0
59940,-16.1875,11.9375,-33.625,0
59960,-15.875,15.6875,-35.5625,0
59970,-19.9375,19,-38.875,0
59990,-24.625,22.25,-37.4375,0
60010,-27.3125,24.875,-36.625,0
60030,-30.1875,27.125,-37.375,0
60050,-34.75,29.375,-38.75,0
60070,-46.875,31.25,-38.3125,0
60090,-49.25,30,-39.75,0
60110,-50.6875,28.125,-40.375,0
60130,-47.5625,27.1875,-34.75,0
60150,-46.4375,29.6875,-31.8125,0
60170,-47.5625,33.1875,-31.1875,0
60190,-49.3125,38.1875,-32.3125,0
60210,-48.75,40.75,-29.25,0
60230,-45.0625,43.125,-26.6875,0
60250,-44,45.125,-24.5625,0
60270,-42.8125,46.8125,-23.25,0
60290,-43,48.3125,-18.5625,0
60310,-41.125,50.125,-13.1875,0
60330,-38.4375,50.9375,-9.9375,0
60350,-38.625,52.1875,-7.75,0
60370,-38,51.1875,-5.8125,0
60390,-34.25,48.75,-3.8125,0
60410,-32.375,47.5,-2,0
60430,-32.4375,48.9375,-1.8125,0
60450,-33.3125,50.25,-1.6875,0
60470,-28.875,47.1875,-1.1875,0
60490,-25.6875,43.5625,0.75,0
60510,-24.0625,39.4375,3.5,0
60530,-22.875,35.5625,2.8125,0
60550,-18.875,31.6875,1.9375,0
60570,-19.0625,29,3.25,0
60590,-18.25,28.8125,5.4375,0
60610,-4.1875,18.875,3.1875,0
60630,4.1875,12.1875,1.3125,0
60650,-1.1875,12.6875,1.5625,0
60670,-2.875,12.5,5.25,0
60690,0.25,11.6875,4.1875,0
60710,3.0625,13.6875,4.875,0
60730,3.4375,14,8.4375,0
60750,1.625,14.3125,9.4375,0
60770,0.3125,13.4375,10.4375,0
60790,4.5625,10.75,11.1875,0
60810,6.875,8.5625,12.5625,0
60830,4.6875,6.8125,10.625,0
60850,6.6875,5.4375,11.9375,0
60870,7.375,1.5625,12,0
60890,6.5625,-0.5,14.0625,0
60910,6.125,-1.4375,16.8125,0
60930,11.9375,-3.125,16.125,0
60950,13.3125,-4.5625,15,0
60970,11,-5.375,16.5,0
60990,13.3125,-7.6875,15.3125,0
61010,16.75,-8.5,12.6875,0
61030,18.6875,-8.4375,11.375,0
61050,14.375,-8.6875,10.4375,0
61070,16.25,-10.0625,10.875,0
61090,19.6875,-9.4375,11,0
61110,22.3125,-9.5,8.375,0
61130,17.3125,-8.625,8.9375,0
61150,13.9375,-8.8125,9.5,0
61170,14.9375,-10.625,8.3125,0
61190,15.75,-10.5625,10,0
61210,15.9375,-9.5625,11.4375,0
61230,13.0625,-8.125,10.1875,0
61250,11.75,-8.75,10.8125,0
61270,11.5,-9.1875,11.0625,0
61290,12.875,-8.5625,12.625,0
61310,11.6875,-8.5,13.1875,0
61330,10.5625,-8.5625,11.75,0
61350,7.4375,-8.8125,13.3125,0
61370,6.625,-9.5625,17.375,0
61390,6,-11.125,16.5625,0
61410,8.625,-12.75,15.125,0
61430,9,-14.25,14.3125,0
61450,10.0625,-15.5,15.3125,0
61480,7.9375,-16.1875,13.25,0
61500,9.125,-18.125,13.5,0
61520,7.5625,-17.9375,12,0
61540,8.9375,-17.9375,10.3125,0
61560,11.625,-18.9375,10.5,0
61580,13.875,-19.5,11.5,0
61600,13.0625,-20.8125,10.6875,0
61620,12.375,-21.125,9.25,0
61640,14.1875,-22.4375,8.3125,0
61660,15.5,-24.3125,7.75,0
61680,17.125,-25.125,7.375,0
61700,16.4375,-24.875,6.25,0
61720,15.875,-26.125,7.25,0
61740,16.125,-26.75,7.75,0
61760,18.1875,-26.1875,8.125,0
61780,18.1875,-26,9.1875,0
61800,17.1875,-27.125,9,0
61820,16.8125,-26.3125,9.875,0
61840,16.875,-25.125,9.875,0
61860,18.8125,-24,10.5625,0
61880,21.25,-23.1875,8.125,0
61900,21.1875,-23.5,5.25,0
61920,19.5,-23.375,5.6875,0
61940,19.9375,-23.9375,5.1875,0
61960,19.1875,-23.875,5.75,0
61980,18.5,-23.8125,6.5625,0
62000,16.375,-23.6875,7.3125,0
62020,13.4375,-23.625,6.5,0
62040,15.25,-24.0625,6.4375,0
62060,14.6875,-25,7.5625,0
62080,13.625,-24.25,8,0
62100,9.125,-22.9375,6.5625,0
62120,9.5625,-23.75,6.6875,0
62140,10.4375,-24.9375,7.0625,0
62160,10.0625,-24.25,7.5625,0
62180,8.125,-23.875,7.3125,0
62200,7.375,-24.0625,6.8125,0
62220,9.3125,-25,5.5,0
62240,13.9375,-23.9375,5.5625,0
62260,14.375,-23.0625,3.6875,0
62280,9.75,-25.4375,1.625,0
62300,8.375,-26.9375,2.75,0
62320,9.4375,-25.75,3.125,0
62340,10.5,-26.3125,1.6875,0
62360,6.375,-26.4375,-0.0625,0
62380,4.0625,-26.5625,1.0625,0
62400,8.8125,-26.8125,2.625,0
62420,6.9375,-25.125,0.125,0
62430,2.9375,-24,0.875,0
62450,4,-23.5,0.625,0
62470,6.0625,-25.5625,-0.625,0
62490,4.5625,-25.3125,-2.25,0
62510,1.875,-23.3125,-0.625,0
62530,3.0625,-22.0625,-0.1875,0
62550,4.125,-21.375,-2.5625,0
62570,4.6875,-21,-1.75,0
62590,3.4375,-21.25,-2.0625,0
62610,4.875,-19.0625,-1.625,0
62630,4.125,-17.9375,-1.75,0
62650,6.4375,-18.3125,-4.0625,0
62670,5.625,-17.8125,-5.5,0
62690,4.125,-17.0625,-4.4375,0
62710,5.6875,-16.8125,-5.375,0
62730,5.375,-16.5625,-7.625,0
62750,3.5625,-17.375,-7.5,0
62770,3.8125,-18.4375,-6.875,0
62790,3.5625,-18.25,-8.5,0
62810,1.0625,-17.0625,-8.75,0
62830,1.3125,-16.3125,-7.9375,0
62850,3.5625,-17.875,-10.375,0
62870,3.1875,-17.6875,-13.5,0
62890,0.5,-17.625,-13,0
62910,0.375,-18,-11.5625,0
62930,-0.1875,-17,-13.125,0
62950,-0.6875,-14.6875,-12.625,0
62970,0.875,-14.375,-11.375,0
62990,-1.75,-15.4375,-15.8125,0
63010,-6.25,-12.625,-16,0
63030,-8.375,-9.5625,-13.5625,0
63050,-1.8125,-8.3125,-16.0625,0
63070,3.4375,-4.125,-19.5,0
63090,2.9375,-1.8125,-28.9375,0
63110,-5,-2.25,-34.75,0
63130,-10.0625,-2.5,-31.1875,0
63150,-5.375,-4.5625,-30.8125,0
63170,-6.3125,0.375,-31.25,0
63190,-11.8125,3.8125,-28.625,0
63210,-14.125,2.625,-28.0625,0
63230,-14,2.625,-30.375,0
63250,-15.75,5.6875,-29.1875,0
63270,-17.6875,10.125,-25.25,0
63290,-17.5625,8.25,-25.0625,0
63310,-20.1875,9,-26.125,0
63330,-20.25,10.1875,-28.3125,0
63350,-23.0625,10.125,-29.125,0
63370,-25.9375,10.5,-25.1875,0
63390,-23.9375,8.875,-25.625,0
63410,-22,11.625,-28.375,0
63430,-25.125,14.125,-28.3125,0
63450,-24.125,15,-24,0
63470,-20.375,13.3125,-28.125,0
63490,-25,12.5,-28.875,0
63510,-28.5625,14.75,-30,0
63530,-28.0625,15.3125,-32.875,0
63550,-29.6875,16.125,-33.375,0
63570,-27.1875,19.6875,-32.25,0
63590,-26.25,22.375,-33.5,0
63610,-29.5,23.1875,-31.1875,0
63630,-31.375,23.9375,-31.75,0
63650,-31.375,25.5,-33,0
63670,-32.9375,27.5,-32.75,0
63690,-30.75,25.875,-31.375,0
63710,-28.6875,26.3125,-30.5625,0
63730,-28.8125,27.125,-30.9375,0
63750,-28.5625,26.6875,-28.9375,0
63770,-26.5,26.3125,-26.0625,0
63790,-25.625,25.5625,-24.3125,0
63810,-26.375,25.75,-21.6875,0
63830,-27.0625,27.25,-19.5625,0
63850,-24.8125,30.5,-17.9375,0
63870,-24.375,27.25,-19.6875,0
63890,-24.1875,27.9375,-18.5,0
63910,-25.0625,29.125,-19,0
63930,-22.6875,28.9375,-17.5,0
63950,-21.9375,29.0625,-16.25,0
63970,-20.375,30.1875,-13.75,0
63990,-20.875,30.1875,-12.125,0
64010,-18.5,30.3125,-8.6875,0
64030,-19,32.375,-8.0625,0
64050,-18.5625,32.8125,-6.625,0
64070,-18.25,31.5,-5.125,0
64090,-18,29.875,-2.375,0
64110,-12.9375,28.625,-0.4375,0
64130,-9.5,28.4375,-0.9375,0
64150,-11.5,26.5,4.625,0
64170,-9.8125,21.0625,8.5625,0
64190,-2.25,16.75,7.375,0
64210,-1.75,16.375,5.4375,0
64230,-6.0625,17.6875,7.125,0
64250,-5.25,16.8125,9.625,0
64270,-1.6875,15.9375,10.8125,0
64290,3.6875,16.0625,12,0
64310,4.625,16.8125,13,0
64330,4.6875,17.5625,10.8125,0
64350,-1.5,19.8125,13.3125,0
64370,0.5,22.0625,14.1875,0
64390,10.5625,19.5625,8.875,0
64410,8.4375,21,7.75,0
64430,-1.6875,22.25,10.625,0
64450,2.375,18.8125,11,0
64470,6.5,15.6875,13.0625,0
64490,8.375,14.875,12.5,0
64510,2.25,15.4375,14.375,0
64530,0.9375,14.5,13.3125,0
64550,7.1875,10.6875,16.25,0
64570,10.375,10.6875,15.6875,0
64590,5,9.75,15.6875,0
64610,7.125,6.8125,15.3125,0
64630,6.9375,4.5,15.125,0
64650,11.125,1.5625,17.625,0
64670,11.375,-1.0625,18.8125,0
64690,14.75,-2,22.6875,0
64710,13.75,-5.75,21.6875,0
64730,16.0625,-7.75,20.9375,0
64750,11.5625,-7.6875,21.875,0
64770,9.625,-10.0625,21.125,0
64790,9.875,-13.25,19.8125,0
64810,12,-14.25,20.625,0
64830,12,-14.875,21.125,0
64850,12.6875,-15.375,19.625,0
64870,12.625,-15.8125,18.8125,0
64890,14.125,-15.625,18.875,0
64910,15.0625,-15.375,19.1875,0
64930,14.4375,-14,18.875,0
64950,13.0625,-13.5625,18.1875,0
64970,15.25,-13.875,17.875,0
64990,18.875,-13.4375,16.5625,0
65000,17.1875,-10.3125,16,0
65020,14.4375,-7.5625,16.375,0
65040,15.9375,-4.6875,16.3125,0
65060,17.5,-3.6875,18.25,0
65080,17.5,-3.125,18.875,0
65100,14.125,-2.5,17.3125,0
65120,10.5625,-2.625,18.875,0
65140,10.625,-3.75,20.3125,0
65160,12.625,-4,20.5,0
65180,11.25,-3.4375,21.125,0
65200,11.25,-3.125,19.9375,0
65200,8.6875,-3.125,18.1875,0
65220,9.4375,-3.125,18.5,0
65240,10.875,-2.375,18.0625,0
65260,11.0625,-3.0625,17.125,0
65280,11.375,-4.125,14.9375,0
65300,10.375,-4.6875,12.5,0
65320,9.8125,-4.75,11.8125,0
65340,11.5625,-5.0625,13,0
65360,12.6875,-5.625,12.75,0
65380,9.0625,-5.3125,11.9375,0
65400,8.6875,-5.875,11,0
65420,8.8125,-6.6875,10.6875,0
65440,9,-7.375,11.1875,0
65460,6.875,-7.1875,13.375,0
65480,5.8125,-6.5625,13.5625,0
65500,5,-7.5625,13.25,0
65520,4.875,-8.375,14.125,0
65540,5.5625,-9.0625,13.625,0
65560,5.5,-8.875,12.75,0
65580,4.25,-9.4375,13.1875,0
65600,2.25,-9.5,13.9375,0
65620,4.875,-9.75,13.5625,0
65640,5.375,-11.0625,11.125,0
65660,5.5625,-11.75,9.75,0
65680,6.5625,-11.5,8.75,0
65700,8.8125,-11.6875,7.4375,0
65720,11.8125,-14.1875,5,0
65740,13.125,-15.4375,4.0625,0
65760,13.3125,-16,4.375,0
65780,12.375,-16.3125,3.625,0
65800,10.75,-17.5625,3.375,0
65820,11.4375,-18.8125,4.5,0
65840,12,-18.625,4.875,0
65860,7.875,-16.3125,6.5,0
65880,7.375,-15.1875,7.375,0
65900,7.75,-15.625,6,0
65920,8,-16.75,5.3125,0
65940,7.8125,-18.75,3.5625,0
65960,8.1875,-19.75,3.1875,0
65980,6.125,-20.1875,3.125,0
66000,5.375,-20.25,4,0
66020,7.125,-21.4375,5.9375,0
66040,6.9375,-20.5,4.9375,0
66060,5.0625,-20.0625,3.5,0
66080,6.0625,-21.5625,3.75,0
66100,7.0625,-21.8125,4.0625,0
66120,4.0625,-20.8125,2.5625,0
66140,3.9375,-21.75,2.9375,0
66160,5.6875,-22.1875,2.125,0
66180,5.6875,-22.3125,1.5,0
66200,3.8125,-23.25,1.6875,0
66220,4.4375,-24.25,1,0
66240,4.625,-24.4375,-0.625,0
66260,4.0625,-25.125,-3.1875,0
66280,3.375,-26.75,-4.5,0
66300,3.3125,-27.75,-6.375,0
66320,4.6875,-28.0625,-6.5,0
66340,5.5,-28.5625,-7.5,0
66360,4.25,-29.25,-7.5625,0
66380,3.5625,-30.875,-7.4375,0
66400,6.0625,-31.375,-7.3125,0
66420,2.5,-31.625,-8.9375,0
66440,3,-33.25,-8.25,0
66460,8.75,-33.75,-6.5625,0
66480,11.875,-34.3125,-13.9375,0
66500,5.5,-32.625,-16.1875,0
66520,2.625,-31.5,-12.0625,0
66540,3.25,-30.125,-14.0625,0
66560,3.125,-28.3125,-15.1875,0
66580,3.25,-28.0625,-14.8125,0
66600,-0.4375,-28.4375,-14.9375,0
66620,-0.875,-29.5625,-15.5625,0
66640,3.375,-28.875,-15.375,0
66660,-0.375,-24.625,-16.5625,0
66680,-3.5,-20.4375,-11.875,0
66700,-2.9375,-17.9375,-9.8125,0
66720,2.25,-17.1875,-14.1875,0
66740,-0.9375,-14.5625,-15.1875,0
66760,-5.4375,-11.9375,-13.375,0
66780,-7.125,-11.3125,-14.9375,0
66800,-5.5,-11.75,-15.625,0
66820,-4.6875,-11.4375,-15.6875,0
66840,-6.6875,-10.625,-15.75,0
66860,-9.3125,-9.375,-16.75,0
66880,-9.375,-9.875,-17.125,0
66900,-8.6875,-9.625,-17.375,0
66920,-10.75,-8.5,-17.3125,0
66940,-10.4375,-8.3125,-18.375,0
66960,-12.4375,-7.8125,-18.9375,0
66980,-14.8125,-6.125,-20.375,0
67000,-14.3125,-4.0625,-21.875,0
67020,-17.375,-1.5625,-21.5,0
67040,-15.4375,-0.9375,-19.25,0
67060,-13.8125,-0.125,-20.875,0
67080,-15.625,2.4375,-23.3125,0
67100,-19.125,3.6875,-25,0
67120,-22.125,6.0625,-21.75,0
67140,-19.4375,6.5625,-20.625,0
67160,-19.625,6.125,-22.25,0
67180,-21.375,7.625,-23.375,0
67200,-22,8.0625,-23.375,0
67220,-16.9375,8,-21.9375,0
67240,-17.375,6.875,-22.9375,0
67260,-19.3125,7.875,-26.375,0
67280,-22.5625,8.875,-27.6875,0
67300,-19,8.625,-26.625,0
67320,-18,8.75,-25.125,0
67340,-14.375,8.375,-25.5,0
67360,-17.4375,8.3125,-26.125,0
67380,-21.1875,9,-25.125,0
67400,-19.0625,9.6875,-24.5625,0
67420,-18.125,10.4375,-23.375,0
67440,-19.625,10.1875,-23.1875,0
67460,-20.5,10.6875,-25.0625,0
67480,-18.5625,11.1875,-25.0625,0
67500,-18.125,12.5625,-24.75,0
67520,-20.8125,14,-25.1875,0
67540,-18.5625,13.75,-23.4375,0
67560,-15.25,13.8125,-25.125,0
67570,-15.25,15.5,-22.5625,0
67590,-18.25,16.5,-21.125,0
67610,-19.9375,17.1875,-20.875,0
67630,-19.5,17.125,-19.25,0
67650,-18.3125,17.375,-17.875,0
67670,-16.375,18.5,-15.5625,0
67690,-14.25,20,-16.25,0
67710,-19.625,22.9375,-17.8125,0
67730,-21.1875,23.0625,-21.6875,0
67750,-14.125,19.3125,-22.75,0
67770,-9.3125,17.3125,-19.5,0
67790,-11.3125,16.6875,-15.9375,0
67810,-17.5625,16.6875,-13.5625,0
67830,-18.375,15.9375,-12.3125,0
67850,-15.25,15.375,-12.75,0
67870,-14.375,15.25,-10.6875,0
67890,-17.8125,16.0625,-10.0625,0
67910,-20.9375,19.75,-8.75,0
67930,-21.5,20.9375,-6,0
67950,-12.125,20,-2.6875,0
67970,-5.625,20.1875,-1.5625,0
67990,-9.4375,22.25,-3,0
68010,-17.625,24.0625,-3.1875,0
68030,-21,23.9375,-0.75,0
68050,-12.875,21.875,1.0625,0
68070,-7.3125,22.25,2.0625,0
68090,-8.0625,22.3125,2.3125,0
68110,-12.875,22.625,1.125,0
68130,-10.3125,22.6875,2.625,0
68150,-4.625,21.125,5.4375,0
68170,-6.6875,22.8125,5.6875,0
68190,-8.75,24.625,6.125,0
68210,-11,24.1875,7.25,0
68230,-5.5,24,8.0625,0
68250,-4.25,23.875,10.3125,0
68270,-2,25.9375,11.25,0
68290,-4.5625,29.5,9.75,0
68310,-4.4375,29.25,12.25,0
68330,-1,28.875,16.25,0
68350,0,29.125,19,0
68370,0.75,28.0625,20.875,0
68390,-4,26.25,19.4375,0
68410,-6.125,23.875,20.375,0
68430,-4.0625,22.625,23.3125,0
68450,-0.3125,21.375,22.75,0
68470,2.0625,21.6875,21.1875,0
68490,2.375,22.5,20.0625,0
68510,1.4375,20.8125,20.5625,0
68530,4.9375,16.375,22.9375,0
68550,9.8125,14,24.1875,0
68570,8.4375,12.875,22.25,0
68590,4.375,8.625,24.8125,0
68610,4.25,6.5,27.125,0
68630,4.875,7.75,28.375,0
68650,2.875,7.9375,28.5625,0
68670,3.3125,8.125,28.5625,0
68690,6.875,6.6875,28.125,0
68710,7.75,7.5,26.5625,0
68730,4.5625,8.625,25.875,0
68750,4.4375,9.1875,27.1875,0
68770,7.0625,8.9375,25.9375,0
68790,6.1875,7.875,24.0625,0
68810,4.875,6.6875,24.375,0
68830,-1.8125,5.25,24.5625,0
68850,-6,4.6875,24.1875,0
68870,-8.375,2.5,24.3125,0
68890,-3.5,-0.75,25.5625,0
68910,-0.25,-1.875,22.125,0
68930,-3.6875,-0.5,20.3125,0
68950,-7.5625,-2.6875,19.125,0
68970,-5.125,-5.375,17.5625,0
68990,-1.4375,-7.125,17.375,0
69010,-3.0625,-5.5625,18.9375,0
69030,-6.5625,-6.25,21.6875,0
69050,-2.3125,-6.25,20.5625,0
69070,2.3125,-4.625,20.4375,0
69090,1.75,-3.0625,18.6875,0
69110,-0.0625,-3.0625,18.3125,0
69130,3.9375,-4.3125,19.4375,0
69150,7.4375,-5.375,19.25,0
69170,4.8125,-5.125,18.3125,0
69190,-2.3125,-5.8125,18.625,0
69210,-0.6875,-8.375,20.0625,0
69230,-0.375,-9.625,21,0
69250,-1,-10.875,20.6875,0
69270,-3.75,-11.1875,22.75,0
69290,-5.125,-11.25,23.6875,0
69310,-5,-13,22.75,0
69330,-1.6875,-14.25,21.8125,0
69350,-2.1875,-15,21.4375,0
69370,-2.9375,-14.0625,18.875,0
69390,-0.6875,-13.9375,18.25,0
69410,1.8125,-14.6875,17.4375,0
69430,2.5,-13.8125,15.25,0
69450,3.6875,-14.5625,15.3125,0
69470,2.8125,-14.6875,14.8125,0
69490,0.5625,-15,14.5,0
69510,3.25,-15.75,15.875,0
69530,2.8125,-15.875,14.9375,0
69550,1.8125,-18.1875,13.625,0
69570,0.875,-20.9375,14.75,0
69590,0.5625,-20.75,14.0625,0
69610,-1.1875,-19.0625,12.375,0
69630,2.125,-20.5625,12.6875,0
69650,5.125,-19.8125,11.5,0
69670,3.0625,-18.75,10.75,0
69690,0.875,-18.75,11.6875,0
69710,5.5625,-19.3125,9,0
69730,11.8125,-18.875,4.75,0
69750,10.4375,-15,3.75,0
69770,9.125,-8.375,8.0625,0
69790,12.125,-7.5625,8.3125,0
69810,14.75,-10.375,6.3125,0
69830,14.3125,-13.5625,2.9375,0
69850,7.8125,-15.5625,2.5,0
69870,5.8125,-16.875,1.9375,0
69890,9.4375,-19.5625,1.1875,0
69910,11.125,-21.375,-0.75,0
69930,7.9375,-22.5,-1.8125,0
69950,7.1875,-23,-2.3125,0
69970,6.125,-23.875,-5.125,0
69990,6.1875,-26.0625,-5.6875,0
70010,9.5625,-27.125,-5.875,0
70030,9.4375,-29.1875,-8.625,0
70050,6.6875,-33.3125,-13.1875,0
70070,7.6875,-38.625,-14.0625,0
70090,7.6875,-39.375,-17.125,0
70110,4.5625,-38.0625,-16.5625,0
70120,4.625,-37.4375,-13.6875,0
70140,8.0625,-38.6875,-15.1875,0
70160,8.25,-39.0625,-20,0
70180,6.75,-39.25,-21.1875,0
70200,6.125,-41.25,-21.375,0
70220,3.8125,-41.3125,-20.4375,0
70240,2.875,-41.375,-16.1875,0
70260,4.8125,-42.25,-14.375,0
70280,2.75,-40.25,-16,0
70300,-2.8125,-38.875,-16.625,0
70320,-0.1875,-40.875,-15,0
70340,3.0625,-40.8125,-16.5,0
70360,4.75,-39.125,-18.5,0
70380,2.25,-37,-20.0625,0
70400,1.4375,-35.5625,-19.8125,0
70420,6.0625,-34.8125,-18.5,0
70440,5.1875,-29.75,-20.4375,0
70460,1,-25.9375,-19.8125,0
70480,0.625,-25.375,-17.5625,0
70500,6.3125,-26.5625,-16.625,0
70520,8.5625,-24.25,-16.4375,0
70540,2.8125,-21.8125,-16.625,0
70560,-0.25,-20.25,-17,0
70580,0.625,-18.8125,-18.0625,0
70600,2,-16.75,-17.625,0
70620,2.6875,-16.125,-19.0625,0
70640,2.9375,-14.625,-21.4375,0
70660,0.375,-13.375,-23.125,0
70680,0.5,-13.5,-22.5625,0
70700,-0.375,-13.875,-21.375,0
70720,-1.5,-11.375,-19.1875,0
70740,-0.375,-10.5625,-17.8125,0
70760,-0.375,-11.25,-19.5,0
70780,-3.25,-9.5625,-20,0
70800,-3.875,-7.3125,-18.9375,0
70820,-4.75,-5.125,-19.4375,0
70840,-5.5625,-2.8125,-20.75,0
70860,-6,0.0625,-22.625,0
70880,-4.3125,2.125,-20.75,0
70900,-0.75,4.4375,-17.1875,0
70920,1.5,5.4375,-17.9375,0
70940,-3.375,5.5625,-18.5,0
70960,-4.0625,4.6875,-17.9375,0
70980,-4.125,3.3125,-16.5625,2001
71000,-5.125,2.1875,-14.1875,0
71020,-4.25,1,-13.3125,0
71040,-5.3125,-0.5,-12.625,0
71060,-7.9375,-1.75,-11.625,0
71080,-6.5625,-4.75,-9.25,0
71100,-3.125,-6.0625,-6.75,0
71120,-2.375,-8.375,-3.875,0
71140,-2.6875,-9,-2.6875,0
71160,-7.375,-7.25,-2.8125,0
71180,-7.4375,-7.4375,-1.5625,0
71200,-6.25,-7,0,0
71220,-1.1875,-6.5625,0.3125,0
71240,0.25,-3.3125,1.5625,0
71260,0.375,-0.9375,0.3125,0
71280,-2.5,-0.25,0.6875,0
71300,-1.5,0.8125,-1.25,0
71320,-1.75,0.75,-4.4375,0
71340,-1.6875,0.25,-4.6875,0
71360,-2.8125,2,-2,0
71380,-5.625,3.3125,0.4375,0
71400,-6.0625,1.6875,1,0
71420,-4.5,2.25,3.9375,0
71440,-2.8125,2.8125,3.875,0
71460,-3.9375,2.5,5.5,0
71480,-3.625,0.8125,7.6875,0
71500,-1.375,-0.5,7.0625,0
71520,-2.5625,0.75,6.8125,0
71540,-3.0625,1.375,6.4375,0
71560,-7.25,5.1875,7.4375,0
71580,-6.6875,10.25,14.4375,0
71600,-6.8125,14.875,18.8125,0
71620,-5.4375,19.9375,24.5,0
71640,-0.375,24,30.0625,0
71660,-8.875,29.0625,36.75,0
71680,-10.9375,39.125,43.5625,0
71700,-12.75,51.1875,52.5,0
71720,-14.5,63,62.5625,0
71740,-13.9375,68.75,68.1875,0
71760,-4.4375,58.9375,67.125,0
71780,0.6875,56.125,69.125,0
71800,-10.625,63.75,74.0625,0
71820,-15.0625,66.6875,78.5,0
71840,-13.375,59.9375,77,0
71860,-8.1875,60.9375,78.3125,0
71880,6.4375,66.375,80.8125,0
71900,16.375,60.3125,85.3125,0
71920,6.1875,56.0625,77,0
71940,5.125,61.625,77.1875,0
71960,16.625,59.9375,82.4375,0
71980,20.9375,44.0625,78.3125,0
72000,10.5,37.1875,76,0
72020,27.75,32.1875,79.5625,0
72040,42.1875,19.25,74.125,0
72060,28.5625,5.625,55.6875,0
72080,16.375,5.3125,51.375,0
72100,31.9375,-3.9375,52.75,0
72120,37.5625,-15.6875,46.375,0
72140,41.5625,-16.8125,35.875,0
72160,27.1875,-16.125,36.6875,0
72180,28.5,-17.125,42.9375,0
72200,34.5,-17.1875,39.9375,0
72220,31,-10.75,28.375,0
72240,18.875,-4.625,30.3125,0
72260,23.125,-1.25,35.8125,0
72280,21.625,-3.0625,27.375,0
72300,19.625,0.75,16.5625,0
72320,12,-0.0625,16.625,0
72340,5.9375,-5.375,19.0625,0
72360,2.8125,-8.125,21.1875,0
72380,3.1875,-6.1875,19.25,0
72400,0.0625,-1.9375,16.1875,0
72420,-8.0625,1.5625,17.125,0
72440,-13.125,1.875,18.6875,0
72460,-9.8125,3.6875,17.875,0
72480,-5.5625,5,19.9375,0
72500,-4,6.125,19,0
72520,-3,6.625,14,0
72540,-3.8125,6.8125,10.8125,0
72560,-4.3125,7.3125,10.375,0
72580,-5.75,7,7,0
72600,-1.5625,7.0625,3.0625,0
72620,-2.5,5.6875,4,0
72640,-6.5625,6.625,1.875,0
72660,-6.5625,3.625,-1.625,0
72680,-0.3125,-1.6875,-2.3125,0
72700,-2.0625,-0.0625,-0.3125,0
72710,1.375,1,-4.625,0
72730,-6.5,0,-11.625,0
72750,-5.6875,-2.6875,-11.375,0
72770,1.3125,-7.1875,-7.125,0
72790,7.8125,-8.625,-7.8125,0
72810,3.5625,-8.625,-11.0625,0
72830,-1.875,-8.3125,-7.9375,0
72850,-3.9375,-7.625,-4.4375,0
72870,-2.375,-6.25,-3.9375,0
72890,2.5625,-5.5,-0.625,0
72910,1,-3.6875,0.375,0
72930,-0.75,-2.625,-0.125,0
72950,-1.9375,-2.625,1.8125,0
72970,-0.0625,-1.375,0.5,0
72990,2.25,-2.1875,1.3125,0
73010,2.8125,-0.5625,2.5,0
73030,3.5,-0.5,1.3125,0
73050,2.9375,-1.875,0.3125,0
73070,6.1875,-3.6875,-1.5625,0
73090,4.0625,-5.25,-2.125,0
73110,5.1875,-7.3125,-0.3125,0
73130,2.75,-9.0625,-3.5625,0
73150,2,-11.25,-5.3125,0
73170,3.3125,-14.125,-1.6875,0
73190,3.125,-14.5,2.75,0
73210,1.9375,-13.375,2.6875,0
73230,0.0625,-12.5,2.75,0
73250,1.5625,-14.125,3.1875,0
73270,4.1875,-16.6875,5.5,0
73290,6,-16.125,4.375,0
73310,3.1875,-14.6875,-0.0625,0
73330,2.5625,-16.0625,-1.4375,0
73350,2.25,-14.3125,-1.6875,0
73370,4.625,-13.3125,-3.4375,0
73390,5.1875,-12.5625,-2.375,0
73410,5.75,-13.5,-5.5,0
73430,3.625,-14.5625,-7.375,0
73450,3.1875,-15.875,-8,0
73470,2.1875,-15.875,-6.25,0
73490,1.8125,-14.9375,-7.5,0
73510,1.0625,-15.4375,-7.8125,0
73530,1.3125,-17.375,-4.375,0
73550,3.0625,-17.5625,-4.75,0
73570,3.375,-16.6875,-4.75,0
73590,3.125,-17.875,-5.0625,0
73610,2.6875,-17.25,-5.6875,0
73630,-0.125,-16.375,-7.1875,0
73650,-0.0625,-16,-5.9375,0
73670,1.4375,-13.375,-4.6875,0
73690,6.5625,-12.75,-8.75,0
73710,0.375,-9.875,-9.75,0
73730,-3.125,-5.25,-9.625,0
73750,-5,-0.5,-7.125,0
73770,-4.6875,4.625,-4,0
73790,-4.375,11.875,-3,0
73810,-5.9375,18.125,-3.6875,0
73830,-4.25,19.125,-3.625,0
73850,-6.1875,22.0625,-5.375,0
73870,-5.3125,27.0625,-4.25,0
73890,-5.9375,31.625,-3.6875,0
73910,-6.1875,35.5,-3.375,0
73930,-10.1875,37.4375,0,0
73950,-8.5,37.375,3.375,0
73970,-1.5,33.3125,1.3125,0
73990,-0.25,28.6875,5.125,0
74010,-2.5625,24.9375,5.9375,0
74030,-1.8125,22.9375,4.625,0
74050,-2.9375,20.4375,1.5625,0
74070,-6,16.6875,0.1875,0
74090,-1.8125,12.875,2.4375,0
74110,-4.4375,9.1875,2.5625,0
74130,-4.375,6.0625,0.5,0
74150,-5.1875,4.25,-1.9375,0
74170,-7.25,4.125,0,0
74190,-3.5,2.125,2.5,2000
74210,-0.9375,2.875,2.4375,0
74230,-1.6875,2.875,1.625,0
74250,-3.3125,1.0625,-0.0625,0
74270,-1.375,-0.4375,0.6875,0
74290,-2.0625,-0.625,0.75,0
74310,-0.5625,-0.5,2.25,0
74330,-2.25,-0.0625,1.4375,0
74350,-1.6875,0.25,1.25,0
74370,-3.6875,2.25,1.75,0
74390,-2.125,2,3.4375,0
74410,0.8125,2.125,3.9375,0
74430,-0.125,2.25,2.0625,0
74450,-2.625,1.5625,2.9375,0
74470,-0.5,0.875,3.25,0
74490,-1,1.6875,2.6875,0
74510,-1.5625,2.1875,2.875,0
74530,-2.9375,2.1875,2.3125,0
74550,-1.8125,2.625,2.875,0
74570,1.125,1.9375,3.875,0
74590,1.5625,2.0625,4.875,0
74610,-0.25,1.8125,2.5625,0
74630,-1.875,1.4375,0.8125,0
74650,-0.8125,1.125,0.875,0
74670,3.0625,-2,2.4375,0
74690,4.125,-3.125,1.125,0
74710,2.625,-5.6875,-3,0
74730,0.3125,-6.3125,-4.9375,0
74750,-2.9375,-6.5,-2.25,0
74770,2,-8.0625,-1.5625,0
74790,3.3125,-4.4375,-1.75,0
74810,2.75,-3.5625,-3.75,0
74830,-0.3125,-2.5,-7.625,0
74850,-4.25,-2.6875,-5.5,0
74870,1.5,-3.8125,0.125,0
74890,6.0625,-2.125,3.625,0
74910,6.4375,-1.625,-2.25,0
74930,-0.125,-0.8125,-6.625,0
74950,-0.6875,-2.0625,0.5625,0
74970,4.9375,-1.9375,5.375,0
74990,3.75,-1.5,-2.5,0
75010,-2.125,-1.875,-5.5625,0
75030,0,-4,2.0625,0
75050,5.3125,-3.75,4.625,0
75070,2.875,-3.5625,0.3125,0
75090,-0.8125,-4.4375,-6.6875,0
75110,-0.1875,-6.5625,-3.375,0
75130,5.625,-8.375,0.25,0
75150,2.5,-8.625,-2.4375,0
75170,-1.375,-9.8125,-6.0625,0
75190,0.875,-11.375,-6.125,0
75210,1.9375,-11.4375,-2.4375,0
75230,1.0625,-11.8125,-4.375,0
75250,-0.9375,-11.8125,-6.1875,0
75270,1.625,-12.9375,-4.9375,0
75280,5.75,-13.0625,-3.375,0
75300,4.1875,-12.125,-0.375,0
75320,2.0625,-11.875,-0.6875,0
75340,2.875,-12.8125,-2.375,0
75360,5.8125,-13.875,0.75,0
75380,5.75,-13.5625,3.9375,0
75400,2.5,-13.625,6.1875,0
75420,2.1875,-12.0625,4.6875,0
75440,2.75,-12.4375,7.4375,0
75460,5.75,-11.5,10.5,0
75480,5.6875,-10.875,7.375,0
75500,5.8125,-9,1.1875,0
75520,7.3125,-7.6875,2.75,0
75540,8.375,-8.375,2,0
75560,6.9375,-8.1875,1.125,0
75580,5,-8.5,-4,0
75600,5.6875,-8.75,-4.9375,0
75620,7.625,-11.0625,-2.5625,0
75640,7.8125,-13.625,-2.8125,0
75660,4.8125,-13.875,-6.0625,0
75680,1.875,-14.5625,-7.625,0
75700,1.1875,-14.625,-3.5,0
75720,4.8125,-14.375,0,0
75740,5.125,-14.5,-2.0625,0
75760,4.3125,-14.1875,-5.875,0
75780,2.3125,-13.0625,-6.4375,0
75800,3.4375,-14.0625,-6.125,0
75820,2.5,-13.5,-7,0
75840,2.3125,-15.625,-10.5625,0
75860,3.125,-17.375,-13.25,0
75880,2.375,-17.25,-14.5,0
75900,-0.4375,-17.25,-12.125,0
75920,-3.0625,-16.25,-15.625,0
75930,-4.6875,-15.1875,-19.1875,0
75940,-4.0625,-15.875,-12.4375,0
75960,-3.5,-17.125,-14.375,0
75980,-4.9375,-18.6875,-17.8125,0
76000,-4.9375,-22.375,-20.875,0
76020,-6.0625,-20.5625,-23,0
76040,-6.875,-18.875,-19.625,0
76080,-8.6875,-16.125,-25.75,0
76100,-10.375,-15.6875,-25.625,0
76120,-8.0625,-14.8125,-23.875,0
76140,-10.75,-14.1875,-25.8125,0
76160,-13.625,-13.875,-32.25,0
76180,-14.8125,-13.75,-34.75,0
76200,-15.25,-11.125,-29.125,0
76220,-15.5,-7.375,-23.6875,0
76240,-15.5625,-6.9375,-23.4375,0
76260,-19.4375,-7.0625,-28.5625,0
76280,-22,-8.375,-22.75,0
76300,-22.125,-6.125,-20.4375,0
76320,-25.625,-4.125,-22.6875,0
76340,-27.75,-3.1875,-26.25,0
76360,-27,-1.875,-25.6875,0
76380,-27.3125,3.3125,-22.375,0
76400,-30.75,8.375,-24.5625,0
76420,-33.5625,9.75,-24.5,0
76440,-35.125,13.25,-20.8125,0
76460,-34.375,15.75,-18.875,0
76480,-34.0625,16.6875,-18.75,0
76500,-33.1875,16.25,-19.9375,0
76520,-35.8125,17.9375,-19.6875,0
76540,-35.0625,18.6875,-20.375,0
76560,-34.125,20.75,-21.375,0
76580,-33.4375,21.9375,-22.875,0
76600,-35.875,27.4375,-24,0
76620,-35.5625,29.875,-25.5,0
76640,-36.25,31.875,-24.375,0
76660,-36.1875,34,-21.4375,0
76680,-34.375,36.875,-19.3125,0
76700,-34.0625,38.6875,-19.4375,0
76720,-30.25,41.9375,-15.25,0
76740,-27.3125,42.5,-16.3125,0
76760,-26.875,43.375,-15.6875,0
76780,-26.375,44.5,-13.25,0
76800,-27.375,46.0625,-11.0625,0
76820,-27.25,46.6875,-9.25,0
76840,-24.5625,44.875,-10,0
76860,-22.625,42.25,-9.375,0
76880,-21.75,40.1875,-7.75,0
76900,-21.375,41.0625,-5.9375,0
76920,-24.6875,42.5625,-5.0625,0
76940,-23.3125,41.25,-5.75,0
76960,-20.125,41.0625,-7.125,0
76980,-19.75,43.3125,-2.125,0
77000,-18.125,45.5625,1.625,0
77020,-14.75,43.875,0,0
77040,-11.9375,43,-2,0
77060,-14.75,41.875,0.0625,0
77080,-14.4375,41.8125,6.1875,0
77100,-10.75,40.375,4.875,0
77120,-8.8125,39.9375,-0.375,0
77140,-7.6875,38.1875,-0.25,0
77160,-6.1875,33.375,6.1875,0
77180,3.1875,28.375,4,0
77200,6.625,23.625,-2.6875,0
77220,2.875,22.75,-1.25,0
77240,-0.3125,20.375,1.6875,0
77260,2.9375,17.75,2.4375,0
77280,7.25,16.625,1.75,0
77300,6.5625,16.1875,5.3125,0
77320,6.6875,15.375,10.125,0
77340,12.25,13.9375,7.1875,0
77360,6.4375,12.5,1.4375,0
77380,6.625,10.5625,0.375,0
77400,6.4375,8.625,2.6875,0
77420,8,8.1875,4,0
77440,8.8125,7.3125,3.375,0
77460,9.125,6.9375,4.125,0
77480,6.9375,7.375,8.3125,0
77500,4.375,7,10.0625,0
77520,10.0625,5.9375,9,0
77540,10.375,5.5,9.3125,0
77560,7.3125,5.1875,10.25,0
77580,6.8125,3.875,12.125,0
77600,11.25,2.375,10.875,0
77620,13.125,1.3125,10.5625,0
77640,10.0625,1.8125,12.625,0
77660,6.0625,0.75,14.6875,0
77670,6.9375,-0.4375,15.3125,0
77690,11.0625,-2.125,15.375,0
77710,10.0625,-1.75,15.375,0
77730,5.1875,-1.9375,15.8125,0
77750,7.6875,-2.875,16.625,0
77770,8.6875,-2.5,17,0
77790,8.375,-1.625,17.1875,0
77810,5.4375,-1.6875,17.5625,0
77830,6.1875,-2.75,18.5,0
77850,8.6875,-5.25,18.0625,0
77870,8.375,-3.25,16.125,0
77890,5.25,-2.375,14.6875,0
77910,5.1875,-3.5625,18.5625,0
77930,6.4375,-3.1875,21.25,0
77950,5.9375,-0.3125,18.5,0
77970,3.75,-2.4375,17,0
77990,4.375,-3.25,18.625,0
78010,6.9375,-1.875,16.3125,0
78030,3.3125,-2.4375,16.1875,0
78050,6.1875,-4,16.9375,0
78070,4.125,-3.3125,15.125,0
78090,5.3125,-2.4375,15.3125,0
78110,2.25,-1.9375,18.1875,0
78130,2.8125,-2,18.625,0
78150,0.625,-1.375,17.25,0
78170,1,-1.6875,17.6875,0
78190,3.5625,-3.25,18.75,0
78210,2.3125,-3.375,19.8125,0
78230,-0.125,-3.875,17.5625,0
78250,3.3125,-6.4375,16.75,0
78270,0.9375,-6.3125,16,0
78290,1.5,-6.25,16.25,0
78310,1.5625,-6.25,13.4375,0
78330,1,-8.3125,12.3125,0
78350,3.125,-8.9375,13.0625,0
78370,4.5625,-9.1875,16.125,0
78390,6.3125,-9.1875,14.4375,0
78410,6.6875,-10.0625,13.0625,0
78430,7.3125,-13.125,14.4375,0
78450,7.3125,-13.5625,14.25,0
78470,8.125,-14.625,14.5,0
78490,7.4375,-15.625,14.9375,0
78510,5.3125,-16.625,14,0
78530,4.9375,-16.5,14.5625,0
78550,7.9375,-17,12.4375,0
78570,7.625,-18.25,9.5625,0
78590,8.6875,-18.75,9.0625,0
78610,11,-18.25,10.4375,0
78630,10.9375,-16.375,9.4375,0
78650,9.375,-17,9,0
78670,9.75,-18.0625,9,0
78690,11.25,-18.0625,5.4375,0
78710,13.25,-19.625,5.3125,0
78730,12.625,-20.25,5.4375,0
78750,11.1875,-20,5.5,0
78770,12.3125,-20.1875,4.875,0
78790,13.1875,-19.875,4.375,0
78810,11.1875,-21.375,4.125,0
78830,11.25,-21.875,5.875,0
78850,9.625,-20.75,5.625,0
78870,7.75,-21.375,6.875,0
78890,8.25,-22.5625,8.125,0
78910,12.5625,-22.625,8.625,0
78930,12.6875,-22.75,6,0
78950,10.5,-25.5,5.9375,0
78970,9.5,-27.5625,4.125,0
78990,11.3125,-29.5625,2.5625,0
79010,12.375,-32.0625,1.25,0
79030,8.1875,-36.0625,-1.5625,0
79050,9.6875,-39.8125,0.5,0
79070,9.0625,-42.9375,-1.375,0
79090,6.625,-44.9375,-4.4375,0
79110,1.875,-43.875,-2.75,0
79130,4.875,-41.875,-2.6875,0
79150,8.4375,-39.9375,-4.6875,0
79170,7.3125,-39.375,-3.5,0
79190,7.1875,-40.4375,-2.25,0
79210,3.0625,-40.125,-4.5,0
79230,1.25,-38.8125,-2.375,0
79250,0.6875,-39.3125,0.375,0
79270,1.1875,-38.0625,0,0
79290,0.8125,-37.0625,1.5,0
79310,2.75,-34.75,1.5,0
79330,3.25,-31.1875,1.8125,0
79360,3.8125,-29.875,2.9375,0
79380,7.8125,-29.1875,3.9375,0
79400,5.4375,-27.3125,3,0
79420,5.6875,-26.1875,3,0
79440,2.4375,-25.375,3.8125,0
79460,3.5,-24.8125,4.125,0
79480,5.6875,-22.875,5.0625,0
79500,8,-22.125,4.625,0
79520,5.625,-22,0.0625,0
79540,2.125,-20.5625,-0.25,0
79560,6.8125,-19.6875,0.6875,0
79580,7.25,-17.8125,-0.3125,0
79600,4.6875,-17.125,-0.375,0
79620,5.125,-18.4375,0.3125,0
79640,6.3125,-18.0625,-3.875,0
79660,3.125,-15.25,-2.5,0
79680,1.875,-14.75,-1.875,0
79700,5,-15.5,-5.3125,0
79720,3.75,-16.8125,-6.5,0
79740,2.125,-16.1875,-5.875,0
79760,0.5,-16.4375,-8.375,0
79780,1.1875,-16.625,-9.1875,0
79800,4.4375,-17.75,-9.3125,0
79820,2.25,-17.5625,-10.9375,0
79840,-0.625,-17.0625,-12.375,0
79860,-1.1875,-16.6875,-12.0625,0
79880,0.25,-16.625,-11.4375,0
79900,-0.625,-16.3125,-11.125,0
79920,-2.6875,-17.1875,-14.0625,0
79940,-8.25,-12.4375,-9.5625,0
79960,-7.75,-10.75,-10.5,0
79980,-9.6875,-10.5625,-15.9375,0
80000,-8.5,-9.75,-16.125,0
80020,-10.3125,-9.5625,-17.8125,0
80040,-12.8125,-10.3125,-21.75,0
80060,-17.125,-8.0625,-24.125,0
80080,-21.25,-4.9375,-23.375,0
80100,-19.5,-4.375,-24.125,0
80120,-19.75,-6.1875,-24.25,0
80140,-22,-3.25,-25.25,0
80160,-24.375,1.375,-22.6875,0
80180,-22.875,3.6875,-24.375,0
80200,-25.1875,0,-23.3125,0
80220,-22.6875,-3.4375,-23.9375,0
80230,-25.375,-2.25,-26.75,0
80250,-27.3125,1.5,-26.75,0
80270,-29.1875,1.75,-26.1875,0
80290,-28.875,0.1875,-26.375,0
80310,-26.375,1.0625,-26.8125,0
80330,-27.125,2.25,-27.4375,0
80350,-29.125,3.4375,-27.4375,0
80370,-29.6875,4.1875,-30.0625,0
80390,-31,6.1875,-30.625,0
80410,-30.625,8.375,-28.6875,0
80430,-28.4375,9.8125,-29.0625,0
80450,-30.8125,11.375,-29.125,0
80470,-29.3125,13.125,-29.375,0
80490,-28.4375,16.1875,-27.75,0
80510,-29.0625,17.3125,-28,0
80530,-28.8125,17,-28.375,0
80550,-29,17.25,-28.1875,0
80570,-24.9375,16.6875,-26.75,0
80590,-23.5,16.8125,-26.4375,0
80610,-25.75,19.1875,-24.9375,0
80630,-26.3125,21.25,-23.125,0
80650,-25.75,22.5,-24,0
80670,-26.0625,23.375,-24.6875,0
80690,-26.4375,25,-23.75,0
80710,-27.25,26.5625,-22.9375,0
80730,-26.5625,27.4375,-21.9375,0
80750,-23.0625,28.75,-22.3125,0
80770,-23.9375,30.5,-21.5625,0
80790,-25.125,31.375,-18.1875,0
80810,-25.75,32.6875,-15.1875,0
80830,-26.25,34.1875,-12.125,0
80850,-25.0625,35.875,-12.625,0
80870,-23.875,35.1875,-13.0625,0
80890,-22.9375,34.25,-11.375,0
80910,-22.6875,34.375,-7.875,0
80930,-21.9375,33.6875,-8.0625,0
80950,-21.4375,34.5625,-6.25,0
80970,-20.8125,33.75,-4.5,0
80990,-18,34,0.4375,0
81010,-14.3125,33.3125,3.5,0
81030,-8.625,31.5625,2.875,0
81050,-10.625,33.625,0.8125,0
81070,-18.5625,33.25,-0.0625,0
81090,-17.5,29.625,-1.5625,0
81110,-6.5625,26.5625,-2.3125,0
81130,-0.75,26.0625,-2.8125,0
81150,-5.4375,26.375,-2.6875,0
81170,-9.25,26.6875,-1,0
81190,-4.1875,22.125,-1.6875,0
81210,-0.9375,21.25,0.5,0
81230,0.3125,21.5,1.6875,0
81250,-0.125,21.75,1.375,0
81270,-2.125,23.375,1.875,0
81290,-5.5625,25.5,3.8125,0
81310,-0.125,23.6875,1.875,0
81330,0.875,24.9375,2.25,0
81350,-6.1875,25.8125,8.625,0
81370,-1.5625,22.3125,11.6875,0
81390,3.625,20.625,12.0625,0
81410,5.5625,21.3125,10.3125,0
81430,0.75,20.125,11.6875,0
81450,-2.1875,18.125,14.3125,0
81470,0.9375,20.125,18.1875,0
81490,3.1875,25.0625,21.625,0
81510,-7.5625,30.9375,25.25,0
81530,-2.1875,30.4375,23.5625,0
81550,4,25.6875,16.5625,0
81570,5.625,25.5625,14.125,0
81590,-1.25,26.1875,13.1875,0
81610,-4.375,21.4375,16.875,0
81630,-0.1875,18.0625,18.875,0
81650,-0.3125,17.875,19.5,0
81670,-3.0625,17.6875,23.375,0
81690,-3.125,14.5625,25.375,0
81710,-0.4375,12.625,24,0
81730,5.875,7.8125,20.8125,0
81750,8,4.3125,19.8125,0
81770,7.1875,2.4375,21.0625,0
81790,10.875,-1.0625,20.0625,0
81810,11.6875,-6.9375,18,0
81830,6.3125,-6.4375,18.375,0
81850,10.125,-8.5625,20.25,0
81870,11.0625,-10.8125,21.875,0
81890,11.625,-11,22.4375,0
81910,12.6875,-12.5625,23.25,0
81930,12.1875,-13.875,25.125,0
81950,14.9375,-14.375,26.875,0
81970,15.0625,-13.3125,25.3125,0
81990,14.5625,-13.8125,22.75,0
82010,13.3125,-15.625,21.4375,0
82030,18.1875,-15,21,0
82050,17.1875,-14.3125,20,0
82070,17.5,-15.1875,19.25,0
82090,16.0625,-15.375,19.8125,0
82110,17.875,-16,20.75,0
82130,19.8125,-16.1875,24.4375,0
82150,18.625,-15.5,23.75,0
82170,13.8125,-17.125,24.3125,0
82190,14.25,-18.1875,25.3125,0
82210,14.6875,-16.125,25.8125,0
82230,13.3125,-15.5,26.1875,0
82250,13,-14.5,24.6875,0
82270,11.625,-13.5,24.875,0
82290,10.3125,-13.4375,24.5,0
82310,12.8125,-15,21,0
82330,11.9375,-15.9375,18.8125,0
82350,12.0625,-17.5625,17.5625,0
82370,13.75,-19.625,16.1875,0
82390,15.1875,-22.75,15.3125,0
82410,15.75,-26.625,14,0
82430,15.8125,-30.3125,12,0
82450,13.6875,-32.25,11.625,0
82470,10.875,-33.875,12.75,0
82490,10.5625,-33.4375,13.3125,0
82510,10.625,-33.8125,14.3125,0
82530,9.4375,-33.4375,15.1875,0
82550,9.0625,-32.5625,15,0
82570,8.5,-31.25,14.875,0
82590,6.8125,-28.875,14.8125,0
82610,6.1875,-27.0625,15,0
82630,8.8125,-26.3125,13.125,0
82650,9.4375,-23.8125,11.75,0
82670,8.375,-21.1875,12.1875,0
82690,8.5,-20.25,13.1875,0
82710,8.75,-21.0625,12.1875,0
82730,9.6875,-22.1875,10.8125,0
82750,7.6875,-20.9375,10.625,0
82770,5.9375,-20.1875,9.1875,0
82790,6.1875,-21.25,8.875,0
82800,9.1875,-21.6875,8.25,0
82820,7.0625,-21,7.5,0
82840,2.75,-22.375,4.9375,0
82860,4.5625,-24.5625,2.8125,0
82880,7.375,-26.1875,1.875,0
82900,6.5,-29.875,-0.4375,0
82920,2.75,-34,-2.4375,0
82940,-0.25,-34.75,-3.25,0
82960,0.125,-36.25,-2.0625,0
82980,3.3125,-38.3125,-1.3125,0
83000,8,-40.625,-7.5,0
83020,3.625,-38.75,-12.125,0
83040,-0.125,-37.125,-13.5,0
83060,4.5,-37.9375,-15.9375,0
83080,7.8125,-36.875,-18.0625,0
83100,5.9375,-35.5625,-19.0625,0
83120,2.4375,-33.5625,-19.375,0
83140,-3.0625,-31,-18.125,0
83160,1.375,-31.125,-18.5625,0
83180,0.5625,-31.5,-19.5,0
83200,-0.875,-29.0625,-21.1875,0
83220,-5.5625,-26.9375,-21.375,0
83240,-4.625,-28.8125,-21.3125,0
83260,-2.5,-27.75,-21.625,0
83280,-5.0625,-25.1875,-21.1875,0
83300,-9.375,-24.3125,-18.5,0
83320,-9.375,-23.8125,-18.6875,0
83340,-11.25,-21.5625,-17,0
83360,-9.5625,-19.9375,-14.9375,0
83380,-10.75,-19.75,-16.5625,0
83380,-16.625,-15.6875,-16.375,0
83380,-13.4375,-14.75,-18.0625,0
83400,-14.9375,-12.1875,-16.125,0
83420,-14.4375,-12.4375,-16.8125,0
83440,-19.25,-11.375,-20.5,0
83460,-19,-8.5,-21.6875,0
83480,-18.0625,-7.3125,-22.375,0
83500,-16.8125,-6.625,-23.125,0
83520,-12.625,-4.8125,-24.625,0
83540,-15.0625,-2.125,-27,0
83560,-16.8125,0,-27.5,0
83580,-18.375,0.5,-28.625,0
83600,-18.5625,1.5,-27.5,0
83620,-18.625,3,-31.0625,0
83640,-21,5.5,-30.875,0
83660,-19.4375,5.3125,-28.25,0
83680,-15.625,5,-27.8125,0
83700,-15.1875,6.5625,-27.8125,0
83720,-18.625,6.5625,-26,0
83740,-18.125,5.9375,-26.5625,0
83760,-16.6875,5.9375,-21.625,0
83780,-15.1875,9.875,-15.875,0
83800,-16.25,8.5625,-13.5,0
83820,-17.6875,7,-11.625,0
83840,-17.3125,8.5,-12.125,0
83860,-17.25,10.125,-13.1875,0
83880,-15.5,11.9375,-13.875,0
83900,-15.3125,13.125,-14.6875,0
83920,-16,15.5625,-17.5,0
83940,-16.25,13.625,-20.625,0
83960,-17.1875,14.0625,-19.6875,0
83980,-17,15.25,-18.875,0
84000,-17.125,16,-20.5,0
84020,-20.375,18.75,-22.5,0
84040,-21.9375,20.1875,-23.9375,0
84060,-23.8125,21.125,-23,0
84080,-24.1875,22.5625,-22.6875,0
84100,-24.375,23.1875,-23.6875,0
84120,-24.8125,23.125,-25.8125,0
84140,-25.9375,23.3125,-23.5625,0
84160,-27.3125,23.5625,-17.9375,0
84180,-26.9375,25.25,-15.3125,0
84200,-29.5625,27.625,-15.625,0
84220,-28.4375,27.4375,-14.375,0
84240,-24.1875,26.9375,-10.875,0
84260,-20.4375,26.125,-10.125,0
