Timestamp, Rotation x, Rotation y, Rotation z, Marker
40,-7.3125,-2.125,-3.5,0
60,-5.9375,-0.25,-2.375,0
80,-4.3125,1.1875,-1.4375,0
100,-3.3125,2.25,-0.625,0
120,-1.9375,3.5,0.375,0
140,-0.1875,3.9375,1.8125,0
150,0.5,3.4375,3.375,0
150,0.1875,2.1875,4.8125,0
200,-1.1875,1,4.875,0
220,-2.4375,-0.0625,3.75,0
240,-2.0625,-0.4375,3.125,0
260,-0.8125,-1.1875,1.5625,0
280,0.0625,-1.375,0.625,0
300,0,-1.1875,0.8125,0
320,-0.9375,-0.4375,1.25,0
340,-1.0625,0,2.4375,0
360,-0.3125,0.125,2.5,0
380,0.8125,1.125,2.25,0
400,2.375,1.6875,2.1875,0
420,3.3125,2.1875,2.0625,0
440,4.25,2,1.6875,0
460,4.9375,1.625,1.0625,0
480,4.875,1.625,1.375,0
500,4.5,1.6875,1.4375,0
520,4.125,1.25,1.9375,0
540,3.5,0.9375,1.75,0
560,2.375,0.9375,2.0625,0
580,1.3125,1,1.6875,0
600,0.75,1.1875,1.1875,0
620,1.1875,1.25,1.0625,0
640,0.8125,1.375,1.0625,0
660,1.6875,1.125,0.75,0
680,2.625,0.6875,0.875,0
700,2.6875,0.5625,1.3125,0
710,3.0625,0.5,1.8125,0
730,3.9375,0.3125,2.25,0
750,3.125,0.25,2.3125,0
770,2.5625,0.5,2.5625,0
790,2.8125,1.4375,2.0625,0
810,3,2.0625,1.375,0
830,4.0625,1.9375,1.3125,0
850,2.9375,2.1875,1.8125,0
870,1.9375,2.125,1.5625,0
890,1.75,1.9375,0.4375,0
910,1.6875,1.9375,-0.0625,0
930,1.375,1.5625,-0.0625,0
950,2.125,1.5,-0.375,0
970,2.125,1,-0.375,0
990,1.5625,0.25,-0.0625,0
1010,0.8125,-0.1875,0,0
1030,1.0625,-0.375,0.375,0
1050,0.0625,-0.125,0.8125,0
1070,-0.125,0.1875,1.25,0
1090,-0.1875,0.4375,1.5,0
1110,-0.375,0.1875,1.375,0
1130,-0.375,0.0625,1.1875,0
1150,-0.25,-0.3125,0.875,0
1170,-0.1875,-0.4375,0.6875,0
1190,0,-0.5625,0.625,0
1210,0.625,-0.9375,0.5625,0
1230,1.375,-1.375,0.4375,0
1250,0.8125,-1.6875,0.5,0
1270,0.1875,-1.8125,0.875,0
1290,-0.1875,-1.8125,1.125,0
1310,-1,-1.875,1.125,0
1330,-1.4375,-1.9375,0.9375,0
1350,-1.5,-1.75,0.625,0
1370,-0.8125,-1.625,0.375,0
1390,-0.125,-1.6875,0.25,0
1410,-0.6875,-1.25,-0.1875,0
1430,0,-0.8125,-0.375,0
1450,0.5,-0.0625,-0.4375,0
1470,0.625,0.25,-0.1875,0
1490,-0.375,0.75,0.0625,0
1510,-0.4375,0.9375,0,0
1530,-0.375,0.625,-0.25,0
1550,-0.25,0.25,-0.5,0
1570,-0.375,0.0625,-0.625,0
1590,-0.3125,0.0625,-0.6875,0
1610,0.0625,-0.125,-0.9375,0
1630,-0.0625,-0.3125,-0.9375,0
1650,0.25,-0.4375,-0.8125,0
1670,0.625,-0.4375,-0.9375,0
1690,0.6875,-0.5625,-0.6875,0
1710,-0.125,-0.25,-0.0625,0
1730,-0.4375,0.0625,0.1875,0
1750,-0.75,0.125,0.25,0
1770,-0.6875,-0.1875,0,0
1790,-0.6875,-0.5625,-0.25,0
1810,-0.4375,-0.5,-0.1875,0
1830,-0.3125,-0.6875,-0.25,0
1850,-0.125,-0.5625,-0.0625,0
1870,-0.3125,-0.4375,-0.125,0
1890,-0.4375,-0.375,-0.0625,0
1910,-0.3125,-0.25,-0.0625,0
1930,-0.375,-0.375,0,0
1950,-0.375,-0.1875,0.125,0
1970,-0.375,0.125,0.0625,0
1990,-0.5,0.0625,-0.0625,0
2010,-0.5,0.0625,-0.0625,0
2030,0.125,-0.3125,-0.0625,0
2050,0.75,-0.4375,-0.125,0
2070,0,-0.5625,-0.375,0
2090,-0.1875,-0.4375,-0.5,0
2110,0.4375,-0.3125,-0.625,0
2130,0.375,-0.25,-0.625,0
2150,-0.1875,-0.25,-0.25,0
2170,-0.6875,-0.0625,-0.0625,0
2190,-0.4375,-0.1875,-0.0625,0
2210,0,-0.375,-0.0625,0
2230,0,-0.5625,0,0
2250,0.0625,-0.5625,-0.0625,0
2270,-0.0625,-0.625,-0.1875,0
2290,-0.0625,-0.5625,-0.125,0
2310,-0.3125,-0.625,-0.0625,0
2330,0,-0.625,0,0
2350,0.5,-0.6875,-0.1875,0
2370,0,-0.3125,-0.125,0
2390,0.5625,-0.25,-0.1875,0
2410,0.6875,-0.4375,-0.3125,0
2430,0.5625,-0.3125,-0.375,0
2450,0.75,-0.4375,-0.5625,0
2470,0.625,-0.4375,-0.625,0
2490,0.625,-0.4375,-0.5,0
2510,0.1875,-0.4375,-0.4375,0
2530,0.3125,-0.4375,-0.375,0
2550,0,-0.4375,-0.0625,0
2570,0.1875,-0.4375,0.0625,0
2590,0.375,-0.4375,-0.0625,0
2610,0.3125,-0.4375,0.125,0
2630,0.125,-0.25,0.1875,0
2650,0.4375,-0.3125,0.0625,0
2670,0.0625,-0.375,-0.0625,0
2690,0.375,-0.3125,-0.0625,0
2710,0.5625,-0.375,-0.0625,0
2730,0.875,-0.4375,0,0
2750,0.625,-0.5625,-0.0625,0
2770,0.375,-0.5,-0.4375,0
2790,0.6875,-0.4375,-0.5,0
2810,0.1875,-0.25,-0.375,0
2830,-0.125,-0.1875,-0.0625,0
2850,-0.375,-0.1875,-0.0625,0
2870,-0.4375,-0.375,-0.0625,0
2890,0.0625,-0.4375,-0.125,0
2910,0.3125,-0.5625,-0.3125,0
2930,-0.125,-0.4375,-0.5,0
2950,-0.1875,-0.5,-0.125,0
2970,-0.3125,-0.4375,-0.125,0
2990,-0.1875,-0.5,-0.0625,0
3010,0.0625,-0.75,0,0
3030,0.3125,-0.4375,0.125,0
3050,0.3125,-0.0625,-0.0625,0
3070,0.3125,0.125,0.0625,0
3090,0.125,0,0.125,0
3110,0.3125,-0.1875,0,0
3130,0.4375,-0.3125,-0.25,0
3150,0.375,-0.4375,-0.375,0
3170,0.375,-0.4375,-0.375,0
3190,0.375,-0.375,-0.3125,0
3210,0.125,-0.375,-0.25,0
3230,0.3125,-0.4375,-0.0625,0
3250,0.1875,-1.875,-0.0625,0
3270,0.3125,-3.25,0.8125,0
3290,0.5625,-5.3125,1.875,0
3310,-2.25,-7.5,-0.6875,0
3330,-6.5,-9.875,-2.6875,0
3350,-7,-17.5625,-5.1875,0
3370,-11.875,-21.6875,-5.5625,0
3390,-26.5625,-24.9375,-3.8125,0
3400,-40.6875,-28.9375,-1.125,0
3420,-51.625,-33.25,2.875,0
3440,-53.4375,-39.6875,10.875,0
3460,-58.8125,-37.875,7.625,0
3480,-56.25,-35.25,9.75,0
3500,-55.5625,-35.3125,12.9375,0
3520,-66.1875,-36.4375,24.6875,0
3540,-70.5,-31.875,19,0
3560,-68.75,-29.75,8.6875,0
3580,-59.625,-23.75,7,0
3600,-50.5,-23.9375,4.25,0
3620,-45.25,-25.0625,3.0625,0
3640,-48.125,-24.5625,6.5,0
3660,-43.875,-26.625,11.375,0
3680,-48.0625,-24.0625,10.0625,0
3700,-42.0625,-23.4375,7.375,0
3720,-36.875,-28.125,9.75,0
3740,-35.5,-27.25,4.0625,0
3760,-30,-28.1875,-6.0625,0
3780,-25.6875,-29.875,-4.375,0
3800,-23.1875,-30,-7.1875,0
3820,-23.5625,-30.4375,-3.3125,0
3840,-23,-29.1875,0.9375,0
3860,-25.125,-24.6875,1.4375,0
3880,-26.375,-21.125,3.3125,0
3900,-26.5625,-19,9.25,0
3920,-22.3125,-16.3125,13.25,0
3940,-20.4375,-9.5625,16.6875,0
3960,-18.375,0,21.75,0
3980,-12.75,10.1875,21.9375,0
4000,-6.0625,11.6875,22.5,0
4020,0.5,8.625,22.9375,0
4040,7.375,7.625,23.5,0
4060,15.875,9.9375,23.3125,0
4080,17.0625,11.125,30.0625,0
4100,18.9375,10.5,27.4375,0
4120,24.5625,10.375,2.3125,0
4140,23.6875,16.625,-5.5625,0
4160,29.5,18.8125,-4.125,0
4180,45.4375,16.4375,-6.4375,0
4200,47.625,17.9375,-10.0625,0
4220,53.875,19.4375,-12.875,0
4240,63.0625,14.6875,-14.875,0
4260,52.6875,14.0625,-7.25,0
4280,43.1875,11,-2.4375,0
4300,27.5625,6.9375,-4.5,0
4320,23.4375,4.75,-5.6875,0
4340,24,2.5625,-6.3125,0
4360,25.0625,-0.875,-3.875,0
4380,26.9375,-3.5625,2.125,0
4400,23.6875,-4.375,3.9375,0
4420,20.0625,-3.5,1.9375,0
4440,16.75,-2.0625,3.4375,0
4460,17.5,-2.4375,7.1875,0
4480,15.9375,-5.0625,11.875,0
4500,16.75,-8,13.5,0
4520,11.25,-11.4375,14.875,0
4540,4.5625,-15.25,19.75,0
4560,-1.8125,-16.5,22.125,0
4580,-6.0625,-15.625,25.125,0
4600,-6.375,-14.0625,31.125,0
4620,-8.125,-11.5,31.875,0
4640,-11.25,-8.375,33.4375,0
4660,-11.25,-7.8125,32.75,0
4680,-11.75,-6.625,29.3125,0
4700,-9.625,-5.375,32.375,0
4720,-8.5,-6.0625,34.5625,0
4740,-7.5,-6.875,32.5,0
4760,-0.25,-11.0625,27.5625,0
4780,-1.5,-13.4375,28.4375,0
4800,1.0625,-13.625,26.5,0
4820,0,-12.75,24.5,0
4840,2.1875,-12,22.875,0
4860,11.4375,-11.1875,26.375,0
4880,11.75,-10,30.875,0
4900,14.9375,-6.75,28.375,0
4920,16.25,-6.0625,35.625,0
4940,22.1875,-7.5,19.625,0
4960,16.3125,-6.25,4.25,0
4980,32.4375,-7,14.125,0
5000,40.4375,-6.375,21.375,0
5020,34.375,0.3125,21.4375,0
5040,34.375,7.3125,24.375,0
5060,40,10.3125,25,0
5080,44.6875,10.9375,24.875,0
5100,31.75,11.5625,28.5625,0
5120,17.5625,12.8125,24.0625,0
5140,17.1875,9.75,16.875,0
5160,23.5,5.6875,11.5,0
5180,20.1875,10.5,10.625,0
5200,14.375,19.3125,9.75,0
5220,5.125,24.625,7.4375,0
5240,7.8125,26.5,7.625,0
5260,13.375,22.75,5.4375,0
5280,15.3125,18.9375,0.375,0
5300,18.375,15.125,-0.25,0
5320,15.3125,9.8125,-1.4375,0
5340,12.25,8.6875,-3.125,0
5360,10.625,7.6875,-6.0625,0
5380,5.9375,9.3125,-7.5,0
5390,6.3125,12.875,-7.0625,0
5410,7.8125,15.625,-6.875,0
5430,5.875,21.1875,-5,0
5450,-0.625,23.875,-3.625,0
5470,-9.75,25.0625,-5.9375,0
5490,-10.0625,24.1875,-0.875,0
5510,-11.8125,22.1875,4.5,0
5530,-5.4375,18.375,2,0
5550,-5.25,16.875,-0.625,0
5570,-9.0625,17.6875,-1.625,0
5590,-4.1875,17.9375,-1.3125,0
5610,-1.875,18.5625,0.5,0
5630,-4.3125,18.6875,2.75,0
5650,-9.0625,17.4375,4.3125,0
5670,-9.4375,17.1875,3.5625,0
5690,-7.8125,17.1875,2.9375,0
5710,-4.1875,13.6875,2.3125,0
5730,-2.8125,10.5625,1.875,0
5750,-4.875,9.6875,-1.125,0
5770,-3.6875,6.5625,-0.6875,0
5790,-6.875,2.625,-3.5,0
5810,-8.3125,-3.1875,-2.0625,0
5830,-1.875,-5.1875,-5.3125,0
5850,5.3125,0.875,-6.9375,0
5870,7.5,4.4375,-5.9375,0
5890,7.125,5.25,-3.125,0
5910,7.375,5.9375,-1.125,0
5930,8.6875,6.4375,1.25,0
5950,10.5,4.375,-2,0
5970,11.4375,2.4375,-2.8125,0
5990,17.8125,3.875,-2.1875,0
6010,19.5625,3.8125,-1.4375,0
6030,16.3125,4.625,-2.875,0
6050,11.8125,7.9375,-2.3125,0
6070,9.9375,8.625,-4.1875,0
6090,7.625,10,-3.0625,0
6110,4.125,10.5625,-1.9375,0
6130,7.375,11.1875,0.0625,0
6150,6.0625,10.25,-1.1875,0
6170,-0.3125,10.5,-1.125,0
6190,-0.5,11,0.625,0
6210,0.4375,9.3125,-2,0
6230,-1.3125,7.9375,-3.5,0
6250,-1.5625,6.875,-1.8125,0
6270,-0.25,8.875,-0.625,0
6290,-4.5,11.5625,0.1875,0
6310,-5.6875,10.3125,2.6875,0
6330,-7.75,7.75,2.5,0
6350,-4.6875,6.875,1,0
6370,-2.5,7,0.4375,0
6390,-1.4375,6.3125,0.875,0
6410,-1.25,5.0625,0.625,0
6430,1.375,3.625,1.6875,0
6450,-2.875,3.3125,-0.125,0
6470,-3.1875,6.0625,0.4375,0
6490,-2.1875,7.75,1.0625,0
6510,-1.0625,10,1.4375,0
6530,1.375,7.4375,1.5,0
6550,0.25,6.125,2.0625,0
6570,0.6875,6.0625,1.75,0
6590,0.0625,7,0.4375,0
6610,0.6875,6.5625,1.1875,0
6630,1.125,5.125,2.3125,0
6650,2.5,2.1875,4.125,0
6670,2.75,-0.6875,7.125,0
6690,1,-5.5625,9.5,0
6710,-1.1875,-11.6875,10.4375,0
6730,4.5625,-20.8125,11.5625,0
6750,12.1875,-29,12.75,0
6770,12.375,-24.1875,13.5,0
6790,13.5625,-14.375,14.125,0
6810,10.75,-10.125,10.8125,0
6830,8.9375,-13.375,7.6875,0
6850,-0.125,-13.9375,5.1875,0
6870,-6.1875,-10.8125,2.875,0
6890,-8,-8.8125,3.125,0
6910,-11.75,-9.125,4.5,0
6930,-15.875,-9.625,4.4375,0
6950,-22.5625,-8,5.1875,0
6970,-25.875,-6.5,2.1875,0
6990,-22,-7.625,2.0625,0
7010,-24.125,-7.875,0.6875,0
7030,-28.125,-11.6875,0.6875,0
7050,-32.4375,-14.5,1,0
7070,-36.6875,-17.5625,0.25,0
7090,-29.375,-19.6875,1.5,0
7110,-27.75,-13.375,-0.5,0
7130,-15,-10.4375,-7.0625,0
7150,-10.375,-5.4375,-9.4375,0
7170,2.9375,-3.8125,-2.5625,0
7190,6.25,-3,-0.125,0
7210,4.875,-3.0625,1.3125,0
7230,3.5,-3.3125,2.375,0
7250,2.5625,-3.4375,-0.125,0
7270,2.9375,-2.75,-2.3125,0
7290,3.9375,-2.875,-5,0
7310,2.9375,-2.0625,-8.25,0
7330,0.5,-1.1875,-9.5,0
7350,-0.9375,0.25,-7.9375,0
7370,-2,0.5,-5.9375,0
7390,-3.5,1.5625,-5.3125,0
7410,-4.8125,1.8125,-5.1875,0
7430,-7.625,1.9375,-4.375,0
7450,-7.75,1.5625,-4.0625,0
7470,-8.0625,2.125,-4.1875,0
7490,-7.8125,2.5625,-4.75,0
7510,-7.6875,2.25,-4.3125,0
7530,-7.6875,1.875,-3.125,0
7550,-6.875,2.1875,-3,0
7570,-4.125,2.5625,-3.0625,0
7590,-2.8125,2.5625,-3.375,0
7610,-0.875,1.5,-3.375,0
7630,-2.1875,0.3125,-3.3125,0
7650,-2.25,-1.125,-3.9375,0
7670,-2.375,-2.8125,-5.375,0
7690,-3.4375,-3.5,-6.4375,0
7710,-3.625,-3,-6.5,0
7730,-2.875,-2.1875,-6.6875,0
7750,-3.1875,-1.625,-6.875,0
7770,-2.5,-1.25,-7.1875,0
7790,-2.6875,-0.6875,-6.75,0
7810,-3.6875,0,-7,0
7830,-4.75,1.1875,-6.5625,0
7850,-4.1875,1.5,-7.4375,0
7870,-4.3125,1.9375,-7.9375,0
7890,-4,2.375,-7.0625,0
7910,-3.125,3.0625,-6.8125,0
7930,-3.6875,3.9375,-6.6875,0
7950,-3.0625,4.4375,-6.625,0
7970,-3.5625,4.3125,-6.4375,0
7990,-3.8125,4.4375,-5.875,0
8010,-3.375,4.3125,-5.4375,0
8030,-4.3125,3.875,-5.3125,0
8050,-5.125,3,-5,0
8070,-3.9375,2,-5.0625,0
8090,-3.3125,1.125,-5.1875,0
8110,-2.625,0.1875,-5.25,0
8130,-2.5,-0.5,-6,0
8150,-2.8125,-1.125,-6.3125,0
8170,-4.5,-1.75,-8,0
8190,-4.8125,-2.6875,-8.625,0
8210,-4.75,-2.75,-8.4375,0
8230,-3.9375,-2.25,-10,0
8250,-5,-0.8125,-10.0625,0
8270,-5.3125,0.0625,-10.4375,0
8290,-4.625,1.5625,-10.3125,0
8310,-4,1.8125,-10.375,0
8330,-3.75,2,-10.4375,0
8350,-2.5,0.4375,-10.9375,0
8370,-2.375,-1.5625,-11.5625,0
8390,-2.5625,-2.5625,-12.3125,0
8410,-2.3125,-3.625,-13.375,0
8430,-1.5625,-4.4375,-13.0625,0
8450,-0.9375,-4.75,-13.125,0
8470,-0.9375,-5.3125,-12.5,0
8490,-2.25,-5.625,-12.125,0
8510,-2.25,-6.25,-11.625,0
8530,-0.25,-6.8125,-10.9375,0
8550,1,-8.0625,-11.75,0
8570,2.375,-8,-13.6875,0
8590,7.3125,-7.25,-16.875,0
8610,14.5,-3.375,-20.9375,0
8630,20.25,0.375,-25.6875,0
8650,23.75,3.0625,-25.9375,0
8670,25.0625,5.1875,-25.375,0
8690,27,6,-24.875,0
8710,28.625,6.875,-25.375,0
8730,26.3125,6.8125,-23.5625,0
8750,19.5,6.0625,-22.3125,0
8770,17.9375,7.5625,-22.75,0
8780,21.3125,7.25,-20.9375,0
8800,22.8125,7.375,-21.5,0
8820,22.1875,7.0625,-22.1875,0
8840,20.375,6.3125,-22.0625,0
8860,20.9375,5.5625,-21.875,0
8880,18.875,4.5625,-20.4375,0
8900,16.875,4,-19.625,0
8920,17.125,4.625,-19.25,0
8940,16.4375,5.125,-18.1875,0
8960,17.125,4.5,-17.1875,0
8980,13.5625,4.125,-15.75,0
9000,12.1875,6.375,-12.6875,0
9020,14.875,5.4375,-11.4375,0
9040,13.4375,3.875,-10,0
9060,11.5625,1.625,-10,0
9080,9.5,-0.25,-11.25,0
9100,11.375,-3.0625,-12.8125,0
9120,12.4375,-3.875,-12.4375,0
9140,10.5625,-5.125,-12.125,0
9160,9.375,-6.5625,-12.6875,0
9180,9.25,-10.5625,-15.125,0
9200,7.4375,-11.625,-14.4375,0
9220,5,-12.375,-13.4375,0
9240,3.25,-12.1875,-13.0625,0
9260,2,-12,-11.4375,0
9280,1.1875,-12.3125,-11.625,0
9300,2.8125,-11.625,-10.9375,0
9320,3.0625,-10.3125,-9.9375,0
9340,2.9375,-9,-9.25,0
9360,3.6875,-7.875,-8.5625,0
9380,2.1875,-6.1875,-7.8125,0
9400,0.625,-4.5,-7.125,0
9420,1.0625,-3.1875,-6.5,0
9440,0.9375,-1.9375,-6.3125,0
9460,0.625,-0.8125,-5.3125,0
9480,1.3125,-0.0625,-4.8125,0
9500,1.875,0.8125,-3.8125,0
9520,2.0625,2.0625,-3.0625,0
9540,2.1875,2.8125,-2.8125,0
9560,3.25,3.1875,-2.625,0
9580,3.6875,3.375,-1.9375,0
9600,3.0625,3.125,-2.125,0
9620,2.0625,2.6875,-1.6875,0
9640,0.375,2.1875,-1.3125,0
9660,-0.3125,1.625,-0.5625,0
9680,-1.375,1.1875,-0.125,0
9700,-2.9375,0.75,0.125,0
9720,-3.875,0.4375,0.5,0
9740,-3.0625,0.25,0.875,0
9760,-3.125,0.6875,1.3125,0
9780,-3.6875,1.4375,2,0
9800,-4.0625,2.125,2.8125,0
9820,-4.1875,2.875,3,0
9840,-4.3125,3.1875,2.875,0
9860,-4.625,3.25,2.875,0
9880,-4.1875,3.1875,3.1875,0
9900,-4.5625,3.25,3.0625,0
9920,-4.625,3.0625,2.8125,0
9940,-5.0625,2.6875,2.75,0
9960,-5,2.625,2.875,0
9980,-4.75,2.75,2.75,0
10000,-4.75,2.4375,2.9375,0
10020,-4.375,2.5625,3.125,0
10040,-4.125,2.625,3.5625,0
10060,-4.5,2.875,4.25,0
10080,-4.3125,3.375,5.0625,0
10100,-4.5625,3.6875,5.3125,0
10120,-4.625,3.625,5.1875,0
10140,-5,3.375,4.9375,0
10160,-4.8125,2.5,4.4375,0
10180,-4.125,1.9375,3.375,0
10200,-3.625,1.3125,2.625,0
10220,-3.75,1.125,2.3125,0
10240,-3.5,1.25,1.875,0
10260,-2.875,1.5625,1.4375,0
10280,-3.125,1.4375,1,0
10300,-3,1.5625,0.8125,0
10320,-2.4375,1.8125,1.1875,0
10340,-2.375,2.0625,0.625,0
10360,-2.5,2.25,0.25,0
10380,-1.9375,2.1875,0,0
10400,-1.125,2.1875,-0.25,0
10420,-0.6875,2.1875,-0.3125,0
10440,-0.9375,2.1875,-0.3125,0
10460,-1.75,2.3125,-0.375,0
10480,-1.4375,2.125,-0.3125,0
10500,-0.875,1.8125,-0.375,0
10520,-1.25,1.6875,-0.4375,0
10540,-1.3125,1.8125,-0.125,0
10560,-0.9375,1.6875,0.3125,0
10580,-0.6875,1.25,0.4375,0
10600,-1,0.875,0.5,0
10620,-1.5,0.75,0.6875,0
10640,-1.625,0.875,0.9375,0
10660,-1.1875,0.875,0.8125,0
10680,-1.125,0.6875,0.625,0
10700,-1,0.5,0.625,0
10720,-1.4375,0.4375,0.75,0
10740,-1.3125,0.75,0.8125,0
10750,-1.4375,0.875,0.6875,0
10770,-1.5625,1.25,0.8125,0
10790,-1.8125,1.375,0.5,0
10810,-1.6875,1.625,0.625,0
10830,-1.6875,1.75,0.375,0
10850,-1.8125,1.9375,0.3125,0
10870,-2.0625,2,0.5625,0
10890,-2.5625,2.1875,0.9375,0
10910,-2.875,2.625,1.3125,0
10930,-3.625,2.875,1.75,0
10950,-4.625,3.375,2.1875,0
10970,-5.1875,3.875,2.1875,0
10990,-4.75,4,2.5625,0
11010,-4.9375,4.375,3.125,0
11030,-5.625,4.625,3.375,0
11050,-5.6875,4,3.625,0
11070,-6.1875,3.4375,3.5,0
11090,-6.3125,3.125,3.5625,0
11110,-5.625,2.375,3.8125,0
11130,-4.75,2.3125,4.25,0
11150,-4.5625,2.3125,4.125,0
11170,-4.8125,2.5,4,0
11190,-4.625,2.375,3.6875,0
11210,-4.4375,2.3125,3.9375,0
11230,-5.4375,2.5625,4,0
11250,-4.8125,2.5625,4.625,0
11270,-4.5,2.75,5,0
11290,-3.6875,2.625,5.4375,0
11310,-2.875,2.0625,5.75,0
11330,-2,1.375,5.375,0
11350,-2.125,0.0625,5.375,0
11370,-0.875,-0.9375,5.125,0
11390,0.1875,-1.75,4.9375,0
11410,1.75,-2.3125,5.625,0
11430,1.8125,-2.5,6.3125,0
11450,1.875,-2.25,7.375,0
11470,0.4375,-1.5,7.6875,0
11490,-1,-0.75,7.875,0
11510,-2.75,0.625,7.4375,0
11530,-3.1875,0.8125,5.75,0
11550,-3.5625,1.4375,4.5,0
11570,-2.5625,1.375,3,0
11590,-1.125,1.0625,2.1875,0
11610,-0.5625,0.625,0.75,0
11630,-0.125,0.3125,-0.0625,0
11650,1.3125,-0.4375,-0.5625,0
11670,1.125,-1.0625,-1.1875,0
11690,0.75,-1.875,-1.3125,0
11710,0.875,-1.8125,-0.625,0
11730,1.5,-1.5625,0.3125,0
11750,1.9375,-1.125,0.9375,0
11770,2.6875,-1.25,1.125,0
11790,3.6875,-0.8125,2.125,0
11810,4.6875,-0.1875,3.0625,0
11830,6.5,-0.5,5.1875,0
11850,8.375,-2.625,7.1875,0
11870,8.75,-4.6875,10.125,0
11890,7.875,-6.6875,12.8125,0
11910,6.0625,-7.6875,13.9375,0
11930,4.4375,-7.8125,13.5,0
11950,3.875,-7.9375,12,0
11970,4.75,-7.375,10,0
11990,5.875,-5.6875,8.375,0
12010,7.0625,-3.6875,7.1875,0
12030,7.375,-1.25,5.875,0
12050,8.5625,0.875,5.5,0
12070,10.0625,2.375,6,0
12090,9.875,4,6.5625,0
12110,11,4.8125,8.375,0
12130,11.75,5.875,8.9375,0
12150,10.875,6.875,8.375,0
12170,10.4375,7.8125,6.1875,0
12190,10.5,8,2.6875,0
12210,9.375,9.125,-1.25,0
12230,8.8125,10.25,-4.875,0
12250,10.3125,9.9375,-8.6875,0
12270,12.375,7.875,-12.5,0
12290,14,5.1875,-15.625,0
12310,13.375,2.8125,-17.75,0
12330,10,0.6875,-20.5,0
12350,5.6875,-0.625,-23.1875,0
12370,1,-1.4375,-25.375,0
12390,-1.75,-2.625,-27.4375,0
12410,-3.75,-4.25,-26.5,0
12430,-5.9375,-5.875,-23.9375,0
12450,-10.1875,-7.5625,-20.4375,0
12470,-12.25,-9.1875,-17.75,0
12490,-11.0625,-10.4375,-14.6875,0
12510,-10.5625,-11,-10.8125,0
12530,-11.4375,-11.1875,-6.375,0
12550,-13.375,-11.75,-2.0625,0
12570,-16.5625,-11.875,1.9375,0
12590,-19.25,-11.75,4.875,0
12610,-21.0625,-10.8125,7,0
12630,-21.4375,-10.4375,8.75,0
12650,-21.25,-10.1875,8.9375,0
12670,-21,-9.875,7.875,0
12690,-20.5,-9,6.0625,0
12710,-17.5,-6.875,3.8125,0
12730,-12.8125,-4.9375,1.375,0
12750,-9.75,-2.375,-0.9375,0
12770,-6.875,-0.0625,-2.9375,0
12790,-3.3125,2.3125,-5.125,0
12810,-0.375,4.1875,-7.125,0
12830,2.125,5.3125,-8.8125,0
12850,4.75,5.875,-10.375,0
12870,7.875,5.6875,-12,0
12890,10.25,4.75,-12.625,0
12910,9.8125,3.9375,-13.125,0
12930,9.4375,2.8125,-13.125,0
12950,7,2.0625,-11.6875,0
12970,4.9375,0.3125,-8.5,0
12990,4.25,-0.875,-2.5,0
13010,-0.3125,-0.4375,1.125,0
13030,-2.9375,0.125,2.5,0
13050,-4.625,0.375,4.5,0
13070,-4.75,-0.1875,6.125,0
13090,-4.625,-1.3125,5.625,0
13110,-3.875,-3.1875,7,0
13130,-6.3125,-4.375,8.3125,0
13150,-9.1875,-4.6875,8.1875,0
13170,-9.0625,-4.125,8.4375,0
13190,-8.0625,-3.5625,7.625,0
13210,-6.875,-3.25,5.9375,0
13230,-6.1875,-2.375,4.8125,0
13250,-6.25,-0.625,3.625,0
13270,-4.875,1.75,2.125,0
13290,-3.5,2.9375,-0.1875,0
13310,-2.125,3.4375,-3.1875,0
13330,-0.0625,3.25,-3.9375,0
13350,1.0625,2.8125,-4.0625,0
13370,0.375,2.4375,-4.1875,0
13390,-1.8125,0.0625,-4.3125,0
13410,-3.3125,-2.875,-2.9375,0
13430,-3.6875,-5.375,-2.5,0
13450,-2.125,-6.125,-2.75,0
13470,-0.25,-4.75,-2.4375,0
13490,-0.75,-2.5625,-0.125,0
13510,-0.8125,-1.25,2.0625,0
13530,-0.5,-1.125,3.0625,0
13550,-1.3125,-1.625,2.6875,0
13570,-1.9375,-2.5625,2.6875,0
13590,-2.3125,-3.625,2.0625,0
13610,-2.6875,-4,1.25,0
13630,-2.5625,-3.5625,0.5,0
13650,-1.9375,-2.125,-0.25,0
13670,-1.1875,-1.3125,-1.25,0
13690,0.375,-1.125,-2,0
13710,1.375,-0.875,-2.9375,0
13730,1.375,-0.75,-4.125,0
13750,1.3125,-0.5625,-3.6875,0
13770,-0.125,0.1875,-3.6875,0
13790,0.25,1.0625,-2.875,0
13810,1.125,1.625,-2.4375,0
13830,1.75,2.125,-2,0
13850,0.875,2.25,-1.6875,0
13870,0.5,1.625,-1.3125,0
13890,0.3125,1.0625,-0.75,0
13910,0.3125,0.5,-0.4375,0
13930,0.3125,0.0625,0,0
13950,0.25,-0.375,0.5625,0
13970,0.125,-0.9375,0.875,0
13990,0.1875,-1.6875,1,0
14010,0.1875,-1.9375,0.625,0
14030,0.375,-1.9375,0.75,0
14050,-0.0625,-1.6875,0.875,0
14070,0.0625,-1.5625,1.25,0
14090,-0.0625,-1.75,1.25,0
14110,0.0625,-1.1875,1.4375,0
14130,-0.0625,-0.6875,1,0
14150,0.125,-0.4375,0.9375,0
14170,0.875,0,1.375,0
14180,0.125,0.4375,1.0625,0
14200,-1.6875,0.25,2.1875,0
14220,-2.6875,0.3125,4.375,0
14240,-5.5,-1.3125,7.3125,0
14260,-4.375,-6.0625,11,0
14280,0.1875,-9.25,11.25,0
14300,-4.375,-16.625,10.375,0
14320,-11.8125,-25.125,0.875,0
14340,-25.625,-35.4375,-2.3125,0
14360,-41.8125,-45.5625,-9.5,0
14380,-50.6875,-55.1875,-21.625,0
14400,-51.625,-65.375,-30.3125,0
14420,-42.625,-74.875,-35.75,0
14440,-22.625,-87.625,-34.875,0
14460,-5.1875,-96.8125,-32.625,0
14480,50.25,-116.5,-21.8125,0
14500,86.375,-111.375,-26.9375,0
14520,48.0625,-106.25,-16.375,0
14540,31.5,-105.438,-0.1875,0
14560,22.75,-108.062,8.125,0
14580,20.1875,-107.625,10.4375,0
14600,14.75,-98.1875,10.8125,0
14620,4.8125,-88.125,13.625,0
14640,7.8125,-86.625,20.1875,0
14660,13.75,-80,19.375,0
14680,9.6875,-64.875,14.75,0
14700,5.4375,-55.625,15.625,0
14720,7.5625,-50.4375,10.8125,0
14740,6.6875,-36.9375,8.375,0
14760,3.25,-25.375,7.6875,0
14780,2.5,-17.6875,6.625,0
14800,2.9375,-11.25,5.3125,0
14820,2.1875,-5.125,5.0625,0
14840,1.1875,-0.375,4.5,0
14860,3.4375,2.5625,4.9375,0
14880,4.625,5.375,2.875,0
14900,2.5625,7.625,1.25,0
14920,3.4375,8.9375,1.625,0
14940,3.5625,8.9375,1.5,0
14960,3.5,9.875,-0.75,0
14980,2.125,11,-1.3125,0
15000,1.75,10.375,-1.5625,0
15020,2.5,7.25,-2.75,0
15040,2.25,6.9375,-5.125,0
15060,1.9375,6,-5.375,0
15080,3.1875,5.625,-5.875,0
15100,2.8125,5.125,-5.875,0
15120,2.4375,4.5,-5.6875,0
15140,1.3125,2.8125,-4.9375,0
15160,0.125,2.5625,-3.75,0
15180,-0.5,2.125,-3.4375,0
15200,0.3125,0.4375,-2.75,0
15220,0.3125,-0.0625,-2.4375,0
15240,1.25,0.375,-2.0625,0
15260,1.25,-0.4375,-1.625,0
15280,1.6875,-1.25,-2,0
15300,1.125,-1.5,-2.5625,0
15320,0.8125,-1.5,-2.5625,0
15340,0.25,-1.5,-3.8125,0
15360,-4.4375,-1.1875,-6.625,0
15380,-12.8125,-1.75,-11.3125,0
15400,-22.3125,-1.875,-22.125,0
15420,-29.5625,-2.6875,-44,0
15440,-41,-1.375,-66.5625,0
15460,-48.75,-0.375,-83.0625,0
15480,-43.8125,1.4375,-91.8125,0
15500,-37.75,2.75,-96.9375,0
15520,-32.25,5.125,-109.812,0
15540,-36,10.3125,-123.438,0
15560,-45.3125,20.75,-125.688,0
15580,-56.5,29.375,-116.125,0
15600,-58.375,37.8125,-107.25,0
15620,-57.25,44.5,-100.375,0
15640,-57.0625,50.375,-99.0625,0
15660,-57.375,50.125,-100.438,0
15680,-45.5,44.6875,-95.125,0
15700,-48.5625,34.125,-86.0625,0
15720,-43.0625,29.125,-69,0
15740,-42.6875,20.25,-53,0
15760,-39.9375,12.375,-41.5,0
15780,-34.625,5.0625,-31.6875,0
15800,-32.3125,1.0625,-18.5625,0
15820,-31.6875,0.375,-5.6875,0
15840,-33.8125,1.125,1.9375,0
15860,-35.875,0.4375,5.4375,0
15880,-32.5625,0.3125,7.0625,0
15900,-27.75,1.625,7.1875,0
15920,-17.3125,2.9375,4.0625,0
15940,-7.4375,1.25,1.625,0
15960,-0.375,1.25,0.375,0
15980,4.375,2.5,-0.3125,0
16000,8.5625,3,-1.3125,0
16020,8.8125,3.5625,-3.1875,0
16040,7.1875,3.75,-1.9375,0
16060,5.5,4.125,-0.4375,0
16080,6.875,5.1875,-0.875,0
16100,5.6875,6.6875,-1.875,0
16120,5.1875,7.6875,-3.4375,0
16130,5,8.5,-4.375,0
16150,5.1875,10.8125,-5.1875,0
16170,2.0625,12.75,-5.9375,0
16190,1.1875,14.75,-6.5,0
16210,-0.4375,15.6875,-6.5625,0
16230,-0.75,17.625,-7.125,0
16250,-0.1875,17.8125,-7.6875,0
16270,-0.4375,17.875,-9.3125,0
16290,4.0625,17,-11.4375,0
16310,3.5625,16.3125,-12.0625,0
16330,1.4375,14.9375,-11,0
16350,0.125,12.5625,-10.3125,0
16370,-3.375,10.125,-7.5625,0
16390,-5.375,7.625,-3.1875,0
16410,-7.3125,6.375,-1,0
16430,-8.125,7.0625,-0.9375,0
16450,-8.25,8.125,-1.6875,0
16470,-6,7.6875,-1.625,0
16490,-4.875,7.9375,-1.875,0
16510,-4.125,7.8125,-1.875,0
16530,-2.5,9.0625,-0.375,0
16550,-3.8125,10.875,1.125,0
16570,-6.625,12.25,0.5625,0
16590,-7.375,12.375,0.9375,0
16610,-8.875,10.875,3.25,0
16630,-8.1875,9.5,3.375,0
16650,-7.125,7.875,2.25,0
16670,-6.375,6.6875,1.6875,0
16690,-8.0625,4.9375,1.8125,0
16710,-7.375,4.25,3.3125,0
16730,-4.375,3.0625,5.125,0
16750,-4.1875,3.3125,4.625,0
16770,-6.25,4.375,5.0625,0
16790,-7.625,5.125,4.875,0
16810,-7.3125,4.5,5.375,0
16830,-5.875,3.5,7.0625,0
16850,-4.5,4.0625,5.4375,0
16870,-1.75,4.8125,3.0625,0
16890,-3.75,4,2.5,0
16910,-8.0625,2.75,1.4375,0
16930,-5.4375,2.8125,1.3125,0
16950,-3.5625,3.125,0.4375,0
16970,-3.5,4.25,-0.25,0
16990,-4.1875,3.6875,0.375,0
17010,-5.4375,4.5,1.1875,0
17030,-3.4375,3.625,2.6875,0
17050,-2.75,2.75,3.375,0
17070,-4.1875,3.4375,2.8125,0
17090,-2.5,2.8125,2.75,0
17110,-2.6875,1.8125,4.375,0
17130,-3.1875,0.0625,4.0625,0
17150,-2.25,-1.9375,3.625,0
17170,-1.375,-3.0625,5.5,0
17190,0.5625,-3.25,4.625,0
17210,1.9375,-3.5625,3.125,0
17230,1.4375,-3.3125,3.0625,0
17250,-0.375,-3.4375,1.75,0
17270,0.8125,-3.8125,2,0
17290,-0.0625,-3.6875,2.625,0
17310,0.3125,-3.3125,2.5625,0
17330,-0.625,-3.3125,3.4375,0
17350,-1.3125,-2.75,2.9375,0
17370,-0.5625,-2.9375,2.375,0
17390,-0.875,-3.4375,2.5,0
17410,0.625,-3.5625,1.25,0
17430,2.25,-3.875,0.5,0
17450,0.5625,-3.8125,0.875,0
17470,0.5,-3.5,0.6875,0
17490,1.1875,-3.6875,-0.3125,0
17510,1.25,-4.375,-1.0625,1000
17530,0,-5.375,-1.1875,0
17550,0.6875,-5.625,-2.125,0
17570,2.875,-5.875,-3.9375,0
17590,3.8125,-7.375,-4.4375,0
17610,1.875,-8.4375,-4.6875,0
17630,2.0625,-8.9375,-5.3125,0
17650,4.1875,-10.6875,-5.375,0
17670,5.5625,-12.25,-4.875,0
17690,5.875,-14.5625,-4.4375,0
17710,5.625,-16.3125,-4.5625,0
17730,4.625,-17,-3.125,0
17750,3.0625,-16.875,-2.5,0
17770,2.5,-17.6875,-2.1875,0
17790,1.625,-17.25,-1.875,0
17810,0.5,-16.75,-2.375,0
17830,1.5625,-16.25,-1.875,0
17850,2.875,-16.3125,-3.0625,0
17870,3.9375,-16,-3.375,0
17890,3.0625,-16.375,-2.75,0
17910,2.875,-16.1875,-1.625,0
17930,2.625,-15.75,-2.75,0
17950,0.1875,-14.375,-2.6875,0
17970,-1.375,-14.75,-2.3125,0
17990,-0.9375,-14.75,-3.3125,0
18010,-0.375,-14.6875,-2.6875,0
18030,-0.75,-14.0625,-3,0
18050,-1.0625,-14.0625,-3.4375,0
18070,-1.0625,-14.0625,-4.5625,0
18090,-0.3125,-13.625,-3.8125,0
18110,-0.8125,-13.75,-4,0
18130,1.3125,-13.625,-5.1875,0
18150,1.1875,-14.5625,-5.25,0
18170,0.125,-14.375,-5.5,0
18190,0.6875,-13.8125,-6.75,0
18210,1.9375,-14.375,-6.5625,0
18230,1.375,-14.5625,-5.3125,0
18250,1.25,-13.625,-5.6875,0
18270,-0.0625,-12.9375,-6.0625,0
18290,0.1875,-12.875,-6.5625,0
18310,1.5625,-13.25,-7.5,0
18330,0.875,-12.5625,-7.9375,0
18350,1.625,-12.9375,-7.1875,0
18370,1.3125,-12.0625,-8.5,0
18390,0.25,-11.75,-9.625,0
18410,-0.1875,-10.6875,-10.3125,0
18430,-0.8125,-10,-10.5,0
18450,-1.0625,-8.75,-11.1875,0
18470,-0.5,-8.875,-13.1875,0
18490,-1.1875,-8.8125,-14.375,0
18510,-2,-7.75,-14.25,0
18530,-3.3125,-7.6875,-15,0
18550,-2.625,-6.9375,-16.8125,0
18570,-2.4375,-7.625,-17.4375,0
18590,-2.1875,-7.0625,-18.375,0
18610,-3.5,-6.375,-18,0
18630,-5.0625,-6.5625,-17.5,0
18650,-6.4375,-5.3125,-18.5,0
18670,-7.5625,-5.5,-18.4375,0
18690,-7.4375,-5.375,-19.0625,0
18710,-6.625,-4.75,-18.9375,0
18730,-7.0625,-5,-19.5,0
18750,-8,-5.8125,-20.375,0
18770,-9.5625,-6.125,-20.75,0
18790,-8.625,-6.125,-22,0
18810,-8.25,-5.75,-22.5,0
18830,-9.6875,-5.9375,-21.25,0
18850,-9.375,-3.3125,-21.8125,0
18870,-10,-2.0625,-21.0625,0
18890,-11.4375,-0.5625,-19.8125,0
18910,-14.1875,1.6875,-18.9375,0
18930,-13.625,5.1875,-18.375,0
18950,-13.0625,7.5,-18.375,0
18970,-13.1875,9.0625,-17.375,0
18990,-13.3125,11,-16.625,0
19010,-14.5625,12.5625,-16.4375,0
19030,-15.5,12.6875,-16.1875,0
19050,-13.8125,13.875,-17.5625,0
19070,-12.1875,14.125,-17.6875,0
19090,-12.0625,13.5,-18,0
19110,-12.3125,12.1875,-18.3125,0
19130,-11.3125,12.375,-19.25,0
19150,-10.4375,13,-18.875,0
19170,-11,13.25,-18,0
19190,-10.8125,13.8125,-17.6875,0
19210,-10.0625,15.25,-18.75,0
19230,-10.375,15.75,-19.125,0
19250,-10,15.125,-19.25,0
19270,-9.3125,14.9375,-20.1875,0
19290,-9.375,14.875,-21.125,0
19310,-8.875,14.5625,-20.9375,0
19330,-7.0625,13.9375,-20.8125,0
19350,-6.9375,14.1875,-21.6875,0
19370,-8.3125,14.875,-21.25,0
19390,-8.1875,15.1875,-19.75,0
19410,-8,16,-19.375,0
19430,-7.1875,15.8125,-19.5,0
19450,-7.5,15.875,-18.875,0
19470,-9.75,17.25,-17.5625,0
19490,-10.125,18.4375,-16.8125,0
19510,-9.6875,19.875,-16.1875,0
19520,-9.0625,20.375,-15.4375,0
19540,-8.9375,19.75,-15.125,0
19560,-8.5625,20.6875,-16.375,0
19580,-7.625,22.0625,-16.0625,0
19600,-8.75,22.625,-14.875,0
19620,-9.6875,23.75,-15.125,0
19640,-9.5,25.5,-14.8125,0
19660,-9.8125,24.5,-12.5625,0
19680,-10.4375,24.8125,-12.3125,0
19700,-10.5625,24.0625,-12.0625,0
19720,-10.4375,25.375,-10.5625,0
19740,-11.3125,25.4375,-9.5625,0
19760,-12.3125,26.0625,-7.5,0
19780,-12.0625,25.75,-5.6875,0
19800,-12.5,25.375,-4.6875,0
19820,-13.3125,26,-2.625,0
19840,-13.6875,25.0625,-1.9375,0
19860,-14.4375,24.1875,-1.125,0
19880,-14,21.5625,-0.75,0
19900,-13.125,19,-3.4375,0
19920,-10.125,16.125,-4.375,0
19940,-8.3125,14.625,-1.6875,0
19960,-8.625,13.4375,-0.875,0
19980,-9.9375,12.5625,-1.375,0
20000,-9.6875,12.25,-0.375,0
20020,-9.5625,11.6875,0.25,0
20040,-8.375,11.25,1.6875,0
20060,-8.9375,11.125,1,0
20080,-6.4375,11.875,0.375,0
20100,-8.4375,11.375,2.0625,0
20120,-4.5,9.9375,2.4375,0
20140,-4.125,9.375,2.8125,0
20160,-7.9375,10.125,5.5625,0
20180,-6.4375,10.25,6.625,0
20200,-7.75,8.9375,5.375,0
20220,-7.1875,7.25,4.9375,0
20240,-5.9375,6.6875,5.4375,0
20260,-4.375,6.875,5.125,0
20280,-4.5625,6.4375,6,0
20300,-6.1875,5.1875,7.5,0
20320,-4.0625,4.9375,6.875,0
20340,-2.625,5.4375,8.4375,0
20360,-3.4375,7.1875,11.125,0
20380,-5.375,8.25,12.6875,0
20400,-5.875,7.1875,9.0625,0
20420,-3.8125,5.0625,7.6875,0
20440,-2.3125,5.1875,9.5,0
20460,-3.875,5.25,10.625,0
20480,-0.6875,4.5625,10.4375,0
20500,-0.1875,4.1875,11,0
20520,-1.4375,4.375,13.1875,0
20540,-4.875,4.875,14.1875,0
20560,-3.75,4.3125,13.375,0
20580,-0.875,2.6875,14,0
20600,0.0625,2.375,15.1875,0
20620,0,1.4375,15.8125,0
20640,0.3125,1.125,14.4375,0
20660,2.375,-1.1875,15.0625,0
20680,2.4375,-3.4375,16.375,0
20700,2.9375,-4.125,16.75,0
20720,2.375,-4.75,17.0625,0
20740,4,-6.25,18.1875,0
20760,1.25,-8.125,19.1875,0
20780,0.9375,-8.0625,19.4375,0
20800,0.875,-8.5,20.8125,0
20820,-0.25,-9,21.6875,0
20840,0.4375,-9.625,20.5625,0
20860,2,-9.9375,21.1875,0
20880,0.875,-10.1875,21.5,0
20900,-0.5,-9.6875,20.875,0
20920,0,-9.3125,21.5625,0
20940,0.375,-8.9375,22,0
20960,0.375,-8.25,21.125,0
20980,-0.8125,-6.5625,20.125,0
21000,-0.0625,-6.9375,20.8125,0
21020,-2.1875,-7.3125,20.6875,0
21040,0.1875,-7.8125,19.375,0
21060,1.0625,-8.4375,19.1875,0
21080,-2,-8.875,18.8125,0
21100,-2.4375,-9.0625,18.375,0
21120,-0.1875,-9.25,17.5625,0
21140,0.0625,-9.1875,17.5,0
21160,0.25,-8.375,18.4375,0
21180,0.1875,-8.1875,17.25,0
21200,0.375,-7.625,16.9375,0
21220,0.9375,-8.4375,17.75,0
21240,0.9375,-9.3125,17.5,0
21260,2,-10.4375,16.375,0
21280,1.0625,-12.75,16.5,0
21300,0.8125,-14.0625,16.4375,0
21320,0.6875,-16.25,15.5,0
21340,-0.125,-18,14.375,0
21360,2.75,-20.4375,14.125,0
21380,2.0625,-22.25,15.5,0
21400,1.375,-21.5625,15.8125,0
21420,3,-21.25,14.9375,0
21440,1.875,-20.6875,16.25,0
21460,-3.375,-18.4375,17.875,0
21480,-2.9375,-17.9375,15.25,0
21500,0.3125,-18.5625,14.3125,0
21510,1.5,-18.8125,14.4375,0
21530,3,-20.1875,15.0625,0
21550,3.5625,-22.4375,15.125,0
21570,0.6875,-24.8125,16.5,0
21590,-2.5,-25.75,17.9375,0
21610,-3.1875,-26.5,16.5625,0
21630,-2.4375,-27.9375,15.9375,0
21650,-1.75,-29.25,16.5,0
21670,-0.4375,-29.375,14.875,0
21690,2.5,-30.25,12.625,0
21710,1.5625,-32,12.4375,0
21730,1.4375,-32.4375,12.5625,0
21750,1.75,-32.3125,11.0625,0
21770,1.875,-32.75,10.1875,0
21790,-0.0625,-32.125,9.625,0
21810,1.6875,-31,9,0
21830,0.5,-30.0625,9.9375,0
21850,-0.25,-29,11.5,0
21870,2.6875,-26.5625,10.25,0
21890,6.25,-26.1875,8.4375,0
21910,2.5625,-27.5625,8.875,0
21930,-1.0625,-26.875,8.875,0
21950,0.25,-26,7.375,0
21970,1.875,-26.5,4.5,0
21990,0.5,-26.4375,2.9375,0
22010,1.75,-26.0625,1.5625,0
22030,4.9375,-26.25,0.5625,0
22050,3.125,-26.125,0.4375,0
22070,1.5625,-25.75,-1.1875,0
22090,2.5,-25.1875,-1.4375,0
22110,2.5625,-23.8125,-0.75,0
22130,-0.8125,-22.6875,-0.625,0
22150,0.625,-21.875,-0.375,0
22170,2.1875,-20.3125,-3.375,0
22190,1.0625,-19.8125,-5.25,0
22210,0.3125,-20.625,-5.25,0
22230,1.9375,-20.5625,-9.5625,0
22250,1.75,-20.8125,-12.75,0
22270,1.0625,-20.6875,-13,0
22290,3.0625,-20.9375,-13.8125,0
22310,3.1875,-20.875,-16.125,0
22330,1.1875,-21,-17.9375,0
22350,2.6875,-21.1875,-19.875,0
22370,1.5625,-20.9375,-19.625,0
22390,-2.3125,-20.125,-18.125,0
22410,-2.125,-19.9375,-21.5625,0
22430,-3.5,-20.625,-24.75,0
22450,-4.625,-19.5625,-23.625,0
22470,-7.0625,-18.3125,-23.1875,0
22490,-5.875,-16.3125,-27,0
22510,-7.6875,-14.4375,-28.3125,0
22530,-10.125,-12.875,-27.125,0
22550,-12.25,-11.6875,-29.6875,0
22570,-12.625,-10.75,-29.75,0
22590,-11.5625,-10.5,-30.75,0
22610,-10.5,-11.0625,-32.1875,0
22630,-11.25,-11.0625,-32.375,0
22650,-12.0625,-10.9375,-33.375,0
22680,-11.6875,-11.5625,-33.3125,0
22700,-12.375,-9.375,-32.1875,0
22720,-14.0625,-7.5625,-31.375,0
22740,-14.625,-5.5625,-29.6875,0
22760,-15.5,-3.25,-28.875,0
22780,-17,0,-28.6875,0
22800,-18.125,3.625,-28.375,0
22820,-18.6875,6.125,-27.25,0
22840,-18.125,8.25,-26.875,0
22860,-18.375,11.6875,-28.0625,0
22880,-19.6875,14.5625,-27.4375,0
22900,-19.625,17.0625,-26.6875,0
22920,-19.75,19.875,-25.8125,0
22940,-20.9375,22.5,-25.25,0
22960,-22.4375,24.9375,-25.3125,0
22980,-22.25,26.625,-24.4375,0
23000,-22,28.5625,-24.875,0
23020,-21.875,30.5,-25.9375,0
23040,-22.1875,32,-25.6875,0
23060,-22,32.375,-25.25,0
23080,-21.4375,31.75,-25.125,0
23100,-20.25,31.3125,-25.375,0
23120,-20.375,30.875,-24.5,0
23140,-21.0625,30.125,-23.0625,0
23160,-19.1875,29,-22.875,0
23180,-18.5,29.6875,-20.9375,0
23200,-20.9375,31.4375,-17.5,0
23220,-21.75,32.125,-13.75,0
23240,-21.125,34.75,-12.5625,0
23260,-20.75,34.25,-11.25,0
23280,-21.125,35.125,-11.6875,0
23300,-18.125,33.4375,-13.3125,0
23320,-17.5625,31.3125,-13.125,0
23340,-20.5625,34.5,-11,0
23360,-19.375,36.0625,-9.75,0
23380,-17.0625,35.125,-9.3125,0
23400,-13.3125,32.0625,-7.8125,0
23420,-11.125,28.8125,-5.25,0
23440,-10.6875,27.3125,-3.125,0
23460,-10.875,25.375,-2.3125,0
23480,-11.375,22.8125,-0.375,0
23500,-11.5,21.6875,1.6875,0
23520,-11.9375,22,5.6875,0
23540,-11.3125,23,6.875,0
23560,-9.3125,22.1875,7.125,0
23580,-9.8125,22.375,8.75,0
23600,-10.3125,24.125,9.75,0
23620,-11.875,25.75,8.75,0
23640,-10.125,23.6875,10.5,0
23660,-7.0625,21.5625,12.4375,0
23680,-3.1875,20.375,12.875,0
23700,-5.1875,19.875,13.6875,0
23720,-8.1875,20.5,14.625,0
23740,-9.0625,19.125,17.1875,0
23760,-5.6875,18.25,17.6875,0
23780,-0.625,16,15.625,0
23800,-1.1875,13.8125,16,0
23820,-2.625,14.0625,17.8125,0
23840,-1.6875,13.0625,19.5625,0
23860,1.1875,11.5,18.1875,0
23880,3,8.875,16.75,0
23900,2.8125,7.125,17.3125,0
23920,4.5625,5.25,16.625,0
23940,2.6875,2.8125,17.6875,0
23960,2.6875,1.5625,18.8125,0
23980,2.625,2,17.5,0
24000,2.6875,1.3125,15.6875,0
24020,-0.3125,0.125,17.5625,0
24040,-3.6875,0.1875,20.9375,0
24060,-3.625,-0.4375,22.4375,0
24080,0.125,-0.9375,20.625,0
24100,0.125,-1.125,20.3125,0
24120,0.0625,-1.5625,21.1875,0
24140,1.875,-1.625,20.625,0
24160,-1.75,-2.6875,20.875,0
24180,-0.375,-3.125,23.25,0
24200,0.375,-5.125,23,0
24220,1.375,-5.8125,22.3125,0
24240,5.25,-7.5625,22,0
24260,6.125,-10.875,21.0625,0
24280,4.375,-13.4375,20.75,0
24300,4,-14.6875,22.1875,0
24320,5.8125,-17.6875,22.4375,0
24340,8.875,-21.25,22.0625,0
24360,10,-24.3125,21.4375,0
24380,5.5625,-26.875,23.8125,0
24400,4.75,-27.9375,25.25,0
24420,5.625,-29.3125,24.75,0
24440,3.4375,-30.9375,26.375,0
24460,2.5625,-29.5625,26.5625,0
24480,4,-28.6875,26.625,0
24500,2.8125,-28.875,26.9375,0
24520,2.4375,-28.9375,26.75,0
24540,2.25,-28.6875,27.3125,0
24560,2.75,-28.5625,27,0
24580,2.875,-28.6875,25.5,0
24600,5.25,-29.875,24.4375,0
24620,4.9375,-31.5,23.125,0
24640,4.4375,-31.5625,21.8125,0
24660,6.5625,-33.0625,20.0625,0
24680,5.1875,-34.875,19.125,0
24700,4.9375,-35.25,17.5,0
24720,4.625,-34.8125,16,0
24740,3.75,-35.375,14.4375,0
24760,1.6875,-36.625,11.3125,0
24780,0,-36.75,8.375,0
24810,5.75,-36,4.9375,0
24830,4.75,-35.0625,2.8125,0
24850,4.3125,-33.125,1.0625,0
24870,4.6875,-32.4375,0.9375,0
24880,-2.3125,-32.25,1.9375,0
24900,-2.25,-30.75,0.9375,0
24920,0.9375,-30.4375,-0.1875,0
24940,-1.625,-30.875,0.1875,0
24960,-1.75,-30.625,-0.3125,0
24980,2.5625,-30.5625,-2.5,0
25000,1.0625,-30.9375,-3,0
25020,0.875,-29.25,-4.3125,0
25040,6.5625,-28.3125,-7.8125,0
25060,9.875,-28.9375,-10.875,0
25080,5.625,-29.375,-10.4375,0
25100,6.1875,-29.0625,-10.9375,0
25120,8.25,-29.75,-14.1875,0
25140,7.0625,-31.9375,-15,0
25160,5.25,-31.875,-13.625,0
25180,9.625,-30.5,-15.875,0
25200,8.8125,-32.4375,-16.5,0
25220,1.5625,-34,-14.4375,0
25240,0.4375,-31.9375,-15.75,0
25260,2.75,-30.6875,-17.125,0
25280,3,-32.4375,-19.375,0
25300,-2.125,-32.4375,-19.5,0
25320,-3.3125,-31.25,-20.1875,0
25340,0.125,-29.125,-26.4375,0
25360,0.625,-30.0625,-28.8125,0
25380,-5.5,-28.5,-28.9375,0
25400,-4.75,-26.1875,-30.625,0
25420,-5.125,-23.3125,-32.5625,0
25440,-6.75,-21.3125,-33.375,0
25460,-9.4375,-20.0625,-34.75,0
25480,-12.3125,-17,-34.4375,0
25500,-14.375,-12.75,-35.3125,0
25520,-17.8125,-8.5,-35.4375,0
25540,-21.1875,-5.4375,-33.75,0
25560,-21.875,-0.875,-34.875,0
25580,-20,1.375,-35.375,0
25600,-20.5,4.5625,-35.625,0
25620,-23,7.875,-36.0625,0
25640,-23.125,11.125,-35.875,0
25660,-24.25,13.75,-36,0
25680,-25.6875,15.5625,-35.8125,0
25700,-25.5,16.25,-35.9375,0
25720,-25.25,16.75,-34.5,0
25740,-25.9375,17.5,-35.0625,0
25760,-26.0625,18.6875,-35.3125,0
25780,-26.1875,19,-34.1875,0
25800,-25.75,19.5625,-34,0
25820,-25.75,20.25,-33,0
25840,-26,20.875,-31.25,0
25860,-23.8125,21.6875,-30.375,0
25880,-22.125,22,-30,0
25900,-21.25,22.6875,-28.8125,0
25920,-20.625,22.5625,-26.5625,0
25940,-21.0625,24,-23.9375,0
25960,-21.75,26.375,-21.5625,0
25980,-22.75,28.625,-18.4375,0
26000,-22,31.4375,-15.9375,0
26020,-18.125,31.875,-12.625,0
26040,-17.8125,35.3125,-10.125,0
26060,-18.6875,38.875,-9.0625,0
26080,-19.3125,40.8125,-5.4375,0
26100,-17.3125,42.625,-3.875,0
26120,-14,43.0625,-5.25,0
26140,-12.0625,42.6875,-5.1875,0
26160,-12.3125,43.75,-1.3125,0
26180,-11.375,45.625,0,0
26200,-9.875,46.4375,0.25,0
26220,-10.6875,43.875,0.5625,0
26240,-12.8125,41.125,2.6875,0
26260,-12.0625,39.0625,4.0625,0
26280,-8,36.9375,3.75,0
26300,-7.3125,33.125,4.4375,0
26320,-6.5625,32.375,7.3125,0
26340,-6.5,32.4375,12.625,0
26360,-5.875,30.9375,13.0625,0
26380,-4.375,28.1875,12.4375,0
26400,-4.5,24.4375,15.125,0
26420,-5.5625,22.625,20.125,0
26440,-6.5,20.5625,22.125,0
26460,-8.625,18.5,23.1875,0
26480,-7.875,16.875,24.875,0
26500,-4.75,14.875,26,0
26520,-3,14.1875,26.8125,0
26540,-7.3125,15.0625,27.9375,0
26560,-5.8125,13.125,28.5625,0
26580,-5.8125,10.5625,28.4375,0
26600,-3.5,8.625,27.5625,0
26620,-1.9375,8.3125,26.25,0
26640,-5.9375,8.4375,27.125,0
26660,-13.0625,10,28.5625,0
26680,-9.5625,11.75,28,0
26700,-7.875,11.125,24,0
26720,-6.625,9.25,22.6875,0
26730,-3.5,9.5625,22.25,0
26760,-0.9375,8.9375,20.8125,0
26780,-1.0625,7.5625,21.875,0
26800,-5.5625,6.5,22.625,0
26820,-3.75,5,20.875,0
26840,-1.6875,2,22.25,0
26860,-4.1875,-0.4375,22.8125,0
26870,-4.4375,-0.3125,23.125,0
26890,-0.875,-3.5,22.4375,0
26910,-1.5625,-7.5,21.375,0
26930,-0.0625,-9.5,23.0625,0
26950,0.4375,-10.125,22.875,0
26970,3.3125,-10.625,23.3125,0
26990,0.5625,-12.125,23.875,0
27010,-0.375,-11.375,24.625,0
27030,1.625,-9.75,25.0625,0
27050,3.4375,-10.25,24.375,0
27070,1.8125,-11.75,24.375,0
27090,1.25,-12,24.5625,0
27110,0.375,-13.8125,23.1875,0
27130,0.875,-14.875,22.9375,0
27150,-0.0625,-16.375,21.5,0
27170,-1.8125,-17.8125,19.875,0
27190,-3.1875,-17.9375,19.1875,0
27210,-0.125,-18.375,16.6875,0
27230,6.1875,-21.9375,14.0625,0
27250,5,-23.5,13.9375,0
27270,3.3125,-23.8125,14.5,0
27290,0.125,-24.5625,13.6875,0
27310,-0.8125,-25.75,13.0625,0
27330,0.6875,-25.375,13.0625,0
27350,4.25,-26.5,12.375,0
27380,5.75,-27.4375,10.125,0
27400,5.3125,-27.9375,9.8125,0
27420,4.3125,-26.4375,8.8125,0
27440,6.6875,-26.375,8.5,0
27460,7.1875,-27.875,7.0625,0
27470,5.4375,-27.75,6,0
27490,7.625,-27.25,5.0625,0
27510,10.1875,-28,5.25,0
27530,6.8125,-27.9375,5.75,0
27550,4.625,-27.1875,5.0625,0
27570,5.375,-26.4375,4.125,0
27590,7.125,-26.6875,3.625,0
27610,7.4375,-27.0625,1.625,0
27630,5.8125,-27.625,1.8125,0
27650,4.125,-26.75,1.125,0
27670,3.5625,-26.5625,-0.6875,0
27690,3.125,-27.375,-1,0
27710,5.3125,-27.5,-2.875,0
27730,7.5,-28.375,-4.375,0
27750,5.375,-29.875,-5.4375,0
27770,4.4375,-29.625,-6.5625,0
27790,6.125,-29.875,-8.5,0
27810,3.6875,-31.625,-9.9375,0
27830,2.625,-31,-11.1875,0
27850,6.75,-30.75,-13.25,0
27870,8.8125,-32.5,-15.5,0
27890,6.9375,-35.0625,-16.375,0
27910,6.3125,-35.0625,-16.6875,0
27930,8,-34.0625,-17.875,0
27950,9.875,-34.625,-20.0625,0
27970,10.0625,-36.625,-21.25,0
27990,6,-37.125,-18.4375,0
28010,9.4375,-34.1875,-17.3125,0
28030,5.9375,-33.25,-18.4375,0
28050,2.0625,-33.25,-16.5,0
28070,3.3125,-32.1875,-15.5,0
28090,1.5625,-31.9375,-15.6875,0
28110,0.625,-32.5,-17.625,0
28130,0.5625,-31.0625,-18.1875,0
28150,-1.0625,-30.125,-16,0
28170,-1.9375,-29.9375,-15,0
28190,-3.4375,-29.625,-16.875,0
28210,-5.8125,-27.5625,-17.0625,0
28230,-2.0625,-25.5625,-18.625,0
28250,-0.1875,-23.875,-19.25,0
28270,-2.625,-20.9375,-19.75,0
28290,-3.0625,-17.5625,-20.4375,0
28310,-4.8125,-13.75,-22.0625,0
28330,-3.9375,-10.5,-21.8125,0
28350,-3.375,-7.3125,-19.5,0
28370,-5.0625,-4.25,-20.125,0
28390,-3.875,-1.6875,-21.1875,0
28410,-4.875,0.5625,-20.0625,0
28430,-6.5625,3.0625,-20.75,0
28450,-6.4375,5.125,-19.5625,0
28470,-7.1875,7.625,-16.5,0
28490,-8.375,11.75,-15.9375,0
28510,-7.9375,14.8125,-15.5,0
28530,-7.125,16.5,-12.875,0
28550,-6.9375,18.4375,-9.5,0
28570,-5.75,19.1875,-7,0
28590,-6.25,20.6875,-5.4375,1001
28610,-5.8125,20.375,-1.6875,0
28630,-4.125,19.125,-0.875,0
28650,-2.75,16.0625,-1.0625,0
28670,-2.4375,13,-0.125,0
28690,-1.0625,10.125,0,0
28710,-2.0625,7.3125,1.0625,0
28730,-2.4375,5,2.4375,0
28750,-3.75,3.125,2.4375,0
28770,-1.75,1.8125,1.5625,0
28790,-0.125,2.125,0.8125,0
28810,-0.8125,1.9375,0.875,0
28830,-2.5625,1.6875,2.25,0
28850,-1.6875,1,2.4375,0
28870,-1.25,-0.125,0.5625,0
28890,-1.1875,-2,-0.3125,0
28910,-0.4375,-2.625,-0.125,0
28930,-0.875,-2.375,-1.4375,0
28950,-0.9375,-1,-3.375,0
28970,-0.5,-0.4375,-3.625,0
28990,2.875,-1.1875,-4.9375,0
29010,3.75,0.625,-6,0
29030,2.625,2.25,-4,0
29050,1.0625,2.6875,-0.875,0
29070,-3.125,2.4375,1.9375,0
29090,-3.9375,2.125,2.6875,0
29110,-1.3125,2.1875,1.8125,0
29130,-2,3.25,3.125,0
29150,-4.9375,6.75,4.1875,0
29170,3.1875,11.25,6.0625,0
29190,10.0625,15.3125,11.4375,0
29210,9.8125,20.875,21.875,0
29230,4.6875,30.5,34.6875,0
29250,11.375,42.1875,44.125,0
29270,24.1875,54.3125,52.5625,0
29290,35.0625,69.1875,59.4375,0
29310,27.0625,80.375,70.0625,0
29330,29.0625,92.375,70.5625,0
29350,45.125,101.438,72.9375,0
29370,44.625,102.812,79.625,0
29390,49.375,96.625,80.875,0
29410,54.375,90.3125,84.125,0
29430,44.125,83.375,90.125,0
29450,31.9375,69.9375,88.625,0
29470,29.75,55.125,85.25,0
29490,25.0625,44.25,84.875,0
29510,21.75,31.8125,85,0
29530,18.5,22.8125,75.5,0
29550,17.3125,12.375,65.25,0
29570,11.6875,4.6875,61.25,0
29590,5.9375,0.0625,53.8125,0
29610,7.4375,-3.1875,43.5625,0
29630,4.8125,-0.375,39.6875,0
29650,-4.875,5,39.5625,0
29670,-4.375,8.5,34.625,0
29690,-4.3125,11.3125,33.875,0
29710,-3.5625,11.6875,33.5625,0
29730,3.5625,10.0625,26.5625,0
29750,5.375,9.9375,20.5,0
29770,2.625,7.1875,15.875,0
29790,10.4375,1,8.5625,0
29810,10.4375,-5.25,5.0625,0
29830,11.875,-8.25,2.5625,0
29850,11.4375,-9.75,1.3125,0
29870,10.375,-10.3125,3.375,0
29890,9.125,-11.25,2.625,0
29910,6.625,-11.5625,2.3125,0
29930,7.25,-12,3.0625,0
29950,8.125,-11,1.5,0
29970,5.125,-10,-1.875,0
29990,4.875,-11.375,-2.4375,0
30010,1.625,-13.6875,-1.625,0
30030,0.625,-16.1875,-3.625,0
30050,2.0625,-18.5,-5.875,0
30070,6.4375,-22.4375,-8.125,1000
30090,6.0625,-26.9375,-8.75,0
30110,0.8125,-29.5625,-7.4375,0
30130,0.25,-30.5,-7.75,0
30150,1.3125,-32.6875,-9.125,0
30170,0,-36.625,-9.6875,0
30190,-0.8125,-39.5,-7.3125,0
30210,0.1875,-39.9375,-6.5,0
30230,2.3125,-41.0625,-7.25,0
30250,2.625,-41.3125,-7.4375,0
30260,0.875,-42.6875,-7.0625,0
30280,1.3125,-40.875,-8.0625,0
30300,2.625,-40.125,-7,0
30320,1.5625,-40.25,-7.9375,0
30340,0.9375,-40.125,-7,0
30360,1.125,-37,-7.4375,0
30380,0.375,-35.5625,-8.3125,0
30400,-0.875,-34.6875,-9.5,0
30420,-3.125,-32.3125,-10.375,0
30440,-4.75,-30.4375,-10.75,0
30460,-4.25,-28.5,-14.625,0
30480,-4.3125,-26.875,-16.8125,0
30500,-4.4375,-25.25,-18.1875,0
30520,-8,-23.5625,-20,0
30540,-10.6875,-21.9375,-22.625,0
30560,-11,-18.625,-25.6875,0
30580,-13.1875,-16.8125,-25.125,0
30600,-13.1875,-15.375,-26.3125,0
30620,-14.625,-13.3125,-27.125,0
30640,-15.8125,-10.8125,-27.625,0
30660,-16.9375,-8.8125,-27.5,0
30680,-16.4375,-7.4375,-28.1875,0
30700,-17.3125,-4.6875,-28,0
30720,-20.8125,-4.25,-26.6875,0
30740,-23.375,-2.1875,-28.125,0
30760,-23.25,-0.375,-29.125,0
30780,-23.25,0.75,-28.9375,0
30800,-23.375,1.0625,-28.6875,0
30820,-24.3125,1.25,-30.5,0
30840,-26.0625,3.125,-30.125,0
30860,-27.6875,3.5625,-29.0625,0
30880,-28.5625,4.4375,-29.3125,0
30910,-28.6875,7.75,-28.875,0
30930,-29.3125,9.8125,-28.5,0
30950,-28.8125,13.75,-28.5,0
30970,-27.5,17.8125,-28,0
30990,-26.75,22.0625,-28.125,0
31010,-27.375,27.125,-27.5625,0
31030,-28.1875,32.5,-26.625,0
31050,-28,37.375,-25.3125,0
31070,-27.4375,41.25,-24.4375,0
31090,-26.6875,44.8125,-24.625,0
31110,-26.375,46.1875,-23.9375,0
31130,-26.375,46.625,-23.5625,0
31150,-26.875,47.125,-24.875,0
31170,-25.4375,48.375,-24.625,0
31190,-22.9375,48.375,-23.9375,0
31210,-21.875,47.6875,-23.3125,0
31230,-20.875,47.3125,-24.5,0
31250,-20.3125,49.125,-23.9375,0
31270,-20.6875,50.625,-22.125,0
31290,-20,50.5625,-20,0
31310,-17.375,50.9375,-20.25,0
31330,-14.9375,50.8125,-20.5625,0
31350,-14.5,50.6875,-18.625,0
31370,-15.125,49.75,-15.8125,0
31390,-15.375,48.3125,-14.1875,0
31410,-12.6875,46.9375,-14.4375,0
31430,-10.375,45.3125,-13.375,0
31450,-10.125,45.4375,-11.9375,0
31470,-9.5625,43.625,-11.75,0
31490,-8.0625,41.875,-11.125,0
31510,-7.3125,39.75,-9.9375,0
31530,-8.25,35.875,-8.3125,0
31550,-5.875,33.4375,-9.5,0
31570,-2.9375,31.125,-7.8125,0
31590,-4.125,28.25,-4.375,0
31610,-4.5625,27.625,-4.0625,0
31630,-5.5,26.6875,-4.0625,0
31650,-7.5625,26.125,-0.75,0
31670,-8,25.625,0.9375,0
31690,-4.5,25.1875,0,0
31710,-3.8125,25.5625,1.6875,0
31730,-5.375,26.0625,3.5625,0
31750,-3.875,24.875,3.5625,0
31770,-2.5,22.875,3.3125,0
31790,-2.5625,21.5,3.5,0
31810,-3.0625,19.625,4.0625,0
31830,-1.1875,18.5625,4.0625,0
31850,-2,16.9375,4.125,0
31870,-2.625,15.125,4.25,0
31890,-0.625,12.9375,4.4375,0
31910,2.625,10.5625,4.25,0
31930,2.125,7.3125,5.25,0
31950,2.0625,4.875,6.875,0
31970,2.6875,4.125,8.8125,0
31990,2,3.4375,10.5,0
32010,1.9375,2.3125,11.875,0
32030,2.625,1,12.1875,0
32050,2.5,-0.625,12.4375,0
32070,3.0625,-1.125,13.6875,0
32090,2.9375,-0.5,13.0625,0
32110,4.5,0.3125,12.25,0
32130,4.3125,0.25,11.75,0
32150,3.75,-0.5,12.5,0
32170,2.875,0.1875,13.3125,0
32190,4.5625,1.25,11.5625,0
32210,7.3125,0.3125,11.1875,0
32220,6.25,-0.125,14.8125,0
32240,3.9375,0.0625,16.6875,0
32260,4.1875,-0.5625,15,0
32280,6.4375,-1.375,15.375,0
32300,4.9375,-1,16.25,0
32320,5.375,-0.5625,16.3125,0
32340,6.0625,-0.75,15.5625,0
32360,7.125,-2.0625,15.25,0
32380,8.3125,-3.5,15.125,0
32400,9.1875,-5,14.3125,0
32420,10.5,-5,15.25,0
32440,8.9375,-5.75,16.6875,0
32460,8.5625,-5.5,18,0
32480,8.5625,-6.125,18.1875,0
32500,7.1875,-6.5,18.75,0
32520,5.9375,-6.5625,20.25,0
32540,6.75,-5.9375,19.875,0
32560,7.875,-6.75,18.375,0
32580,8.5,-9.0625,18.4375,0
32600,8.5,-8.75,18.4375,0
32620,9,-8.25,17.5625,0
32640,7.25,-9.375,18.25,0
32660,6.6875,-9.875,19.5625,0
32680,6.625,-10.3125,19.5,0
32700,5.0625,-10.4375,21.125,0
32720,2.8125,-11.125,23.0625,0
32740,4.25,-11.5625,22.0625,0
32760,6.25,-12.8125,21.9375,0
32780,5.0625,-13.5625,22.25,0
32800,4.875,-13.75,22.25,0
32820,6,-14.75,21.1875,0
32840,5.625,-15.5,20.9375,0
32860,4.6875,-16.375,22.1875,0
32880,4.3125,-16.5625,22.25,0
32900,3.9375,-17.25,21.75,0
32920,3.8125,-19.25,22.8125,0
32940,2.5,-20.6875,22.875,0
32960,5.4375,-21.9375,22.1875,0
32980,5.25,-24.25,22.8125,0
33000,3.625,-25.875,23,0
33020,7.125,-27.25,23.3125,0
33040,7.0625,-28.8125,23.5,0
33060,6.9375,-30.8125,23.875,0
33080,7.1875,-32.3125,25.375,0
33100,6.6875,-32.625,26.625,0
33120,4.0625,-33.5,26.1875,0
33140,4.5625,-34.875,25.5,0
33160,3.125,-36.4375,25.875,0
33180,2.625,-36.375,24.25,0
33200,4.9375,-36.75,21.9375,0
33220,4.25,-38.25,21.125,0
33240,4.25,-38.25,20.625,0
33260,4.5625,-38.375,17.4375,0
33280,6.5625,-39.25,16,0
33300,7.25,-40.1875,15.6875,0
33320,9.5,-40.3125,13.0625,0
33340,10.5625,-41.8125,13.4375,0
33360,8.875,-43.1875,15.125,0
33380,6.6875,-44.8125,14.25,0
33400,8.875,-46.5625,15.125,0
33420,8,-48.5625,14.375,0
33440,4.875,-50.1875,13.625,0
33460,3.0625,-50.0625,12.0625,0
33480,7.3125,-51.5,8.375,0
33500,5.0625,-53.5625,8.875,0
33520,3.0625,-52.5625,7,0
33540,5.3125,-51.625,1.5625,0
33560,3.875,-51.75,0.5,0
33580,2.5,-50.1875,0.9375,0
33600,1.3125,-48.25,-1.4375,0
33620,1.875,-46.875,-5.3125,0
33640,2.3125,-46.5,-5.1875,0
33660,0.6875,-46.375,-5.0625,0
33680,-1.25,-45.375,-6.1875,0
33700,0.0625,-43.875,-6.625,0
33720,0.9375,-41.625,-7.9375,0
33740,-0.4375,-41.1875,-6.4375,0
33760,-1.5625,-40.0625,-7.9375,0
33780,-1.75,-39,-8.8125,0
33800,-3.75,-38.125,-8.4375,0
33820,-3.6875,-36.0625,-10.6875,0
33840,-5.1875,-34.4375,-12.5,0
33860,-5.625,-33,-15.0625,0
33880,-6,-33.25,-17.5625,0
33900,-8.25,-32.75,-19.375,0
33920,-8.6875,-32.375,-20.9375,0
33940,-9.5625,-33.5625,-22.4375,0
33960,-11.125,-33.4375,-25.5625,0
33980,-13.5625,-31.4375,-27.5625,0
34000,-16.4375,-32.3125,-27.3125,0
34020,-17.9375,-32.25,-28.8125,0
34040,-18.1875,-30.9375,-30.625,0
34060,-19.125,-30.75,-29.8125,0
34080,-23.3125,-27.625,-29.6875,0
34100,-24.125,-28,-29.75,0
34120,-26,-25,-30.625,0
34140,-27.5625,-22.5625,-31.1875,0
34160,-30.25,-20.9375,-31,0
34180,-32.4375,-20.1875,-30.5625,0
34190,-32.4375,-17.5,-30.625,0
34210,-34.3125,-14.75,-30,0
34230,-34.375,-13.5,-29.875,0
34250,-35.25,-11.0625,-29.6875,0
34280,-38.0625,-6.0625,-28.3125,0
34300,-36.5625,-3.3125,-27.8125,0
34320,-36.8125,-1.4375,-26.6875,0
34340,-38.5625,1.1875,-26.1875,0
34360,-37.5625,3.3125,-25.9375,0
34380,-35,4.5,-25.125,0
34400,-35.625,7.8125,-24.125,0
34420,-36.4375,9.8125,-23.1875,0
34440,-35.0625,11.3125,-21.8125,0
34460,-34.5625,13.8125,-20.6875,0
34480,-35.0625,15.1875,-19.8125,0
34500,-33.875,16.625,-19.5,0
34520,-33.125,17.875,-19.3125,0
34540,-33.5625,18.4375,-19.4375,0
34560,-33.875,18.0625,-19.8125,0
34580,-33.1875,18.625,-20.125,0
34600,-33.0625,19.375,-19.8125,0
34620,-33.75,19.8125,-19.125,0
34640,-33.5,21.0625,-19.625,0
34660,-33.75,22.9375,-19.875,0
34690,-29.125,30.875,-19.8125,0
34720,-27.625,35.9375,-15.9375,0
34750,-25.8125,38.4375,-14.5625,0
34770,-22.8125,41.125,-14,0
34790,-21.875,44.5625,-12.375,0
34810,-22.3125,48.6875,-10.3125,0
34830,-24.1875,52.5625,-7.6875,0
34850,-23,55.875,-5.5625,0
34870,-17.75,59.1875,-5.3125,0
34890,-13.3125,63.375,-5.5625,0
34910,-9.8125,63.1875,-3.25,0
34930,-14.25,66.625,-1.8125,0
34950,-16.9375,67,0.4375,0
34970,-15.9375,65.375,2.375,0
34990,-10.375,62.8125,3.3125,0
35010,-6.375,61.25,0.75,0
35030,-5.6875,58.625,-0.5,0
35050,-6.75,58.125,-0.0625,0
35070,-8.5625,55.25,2.875,0
35090,-10.3125,53,4.875,0
35110,-10.25,51.125,3.5,0
35130,-6.4375,46.4375,1.4375,0
35150,-2.4375,41.5,1.6875,0
35170,-1.125,37.875,2,0
35190,-2.125,35.5625,1.1875,0
35210,-4,32.8125,2.125,0
35230,-3.5625,29.75,5.0625,0
35250,0,25.8125,5.625,0
35270,1.25,23.4375,4.125,0
35290,1.5625,20.5,5.4375,0
35310,-1.0625,18.9375,8,0
35330,-2.1875,18.4375,8.1875,0
35350,0.375,16.25,9,0
35370,0.8125,15.1875,9.6875,0
35390,2.5625,15.4375,10.4375,0
35410,2.3125,16.125,11.5625,0
35430,0.0625,17.875,13.625,0
35450,-1,18.75,14.375,0
35470,0.5625,18.125,13.5625,0
35490,1.1875,19.1875,14.625,0
35510,2.0625,20.5,15.625,0
35520,2.5625,20,15.6875,0
35540,2.625,19,14.5,0
35560,1.75,19,15.25,0
35580,1.875,18.375,15.75,0
35600,3.375,17.9375,15.1875,0
35620,3.3125,16.125,15.125,0
35640,3.9375,13.375,15.5,0
35660,5.875,10.3125,15.1875,0
35680,5.125,8.625,14.5,0
35700,3.6875,7,16.3125,0
35720,4,5.125,16.75,0
35740,5.375,3.8125,16.625,0
35760,6.0625,2.75,18,0
35780,4.6875,1.75,17.125,0
35800,5.625,-0.4375,16.5,0
35820,5.3125,-1.75,16.5,0
35840,4.9375,-3.6875,18.5,0
35860,7.5625,-4.625,17.8125,0
35880,8.5625,-5.6875,16,0
35900,7.8125,-8.125,16.375,0
35920,8.5,-8.625,16.5625,0
35940,8.9375,-9.125,17.9375,0
35960,6.75,-10,18.875,0
35980,8.375,-10,18.1875,0
36000,7.75,-11,19,0
36020,6.375,-10.4375,20.375,0
36040,6.3125,-9.6875,19.1875,0
36060,10.3125,-10.25,18.5625,0
36080,9.625,-9.875,19.4375,0
36100,7.3125,-10.5,20.1875,0
36120,7.8125,-10.8125,19.0625,0
36140,8.8125,-10.875,19,0
36160,9.8125,-11.75,19.375,0
36180,9.4375,-11.8125,17.1875,0
36200,9.5,-12.25,17,0
36220,8.375,-11.5,18.375,0
36240,6.875,-11.6875,18.1875,0
36260,8.9375,-11.75,17.9375,0
36280,9.875,-11.8125,18.1875,0
36300,8.125,-11.4375,18.875,0
36320,6.6875,-10.125,18.3125,0
36340,8.625,-9.25,18.25,0
36360,6.5,-9.4375,19.3125,0
36380,5.8125,-8.25,20.1875,0
36400,7.4375,-8.25,19.25,0
36420,6.5625,-10,19.375,0
36440,4.3125,-11.6875,19.4375,0
36460,5.375,-12.625,19.6875,0
36480,6.9375,-14.625,18.5625,0
36500,7.5625,-16.9375,18.9375,0
36520,5.5625,-18.5625,19.3125,0
36540,5.625,-20.25,18.6875,0
36560,5.8125,-21.5,17.4375,0
36580,7.0625,-23.25,17.875,0
36600,5.25,-24.1875,18.0625,0
36620,6.6875,-24,17.3125,0
36640,6.0625,-24.5,17.3125,0
36660,5.625,-24.25,18.25,0
36680,5.0625,-25.5,20.125,0
36700,5,-26.8125,20.625,0
36720,5.8125,-28.3125,20.625,0
36740,6.0625,-30.125,23.1875,0
36760,2.1875,-33,26.25,0
36780,0.75,-34.5625,24.9375,0
36800,5.3125,-35.4375,22.5625,0
36820,7.125,-37.1875,21.4375,0
36840,6.0625,-39.3125,20,0
36860,5.6875,-39.8125,17.25,0
36880,9.4375,-40.125,14.6875,0
36900,10.875,-41.6875,11.25,0
36920,11.8125,-44.375,11.3125,0
36940,12.8125,-45.0625,9.5625,0
36960,12.6875,-45.25,7.6875,0
36980,12.0625,-46.0625,8.0625,0
37000,10.6875,-47.3125,7.6875,0
37020,9.5625,-47.75,5.625,0
37040,9.75,-47.1875,6,0
37060,9.4375,-46.875,6.875,0
37080,8.375,-46.1875,4.25,0
37100,6.5,-47.0625,1,0
37120,4.4375,-48.375,0.75,0
37140,4.125,-48.4375,-2.6875,0
37160,6.625,-49.1875,-7.625,0
37180,3.25,-49.75,-10.125,0
37200,2.5,-49.4375,-14.375,0
37220,3,-48.5625,-18.4375,0
37240,1.125,-45.625,-19.25,0
37260,-2.4375,-44.6875,-19.0625,0
37280,-5.1875,-43.5,-21.4375,0
37300,-7.625,-41.375,-23.25,0
37320,-10,-37.75,-21.9375,0
37340,-14.5625,-34.4375,-21,0
37360,-16.75,-32.375,-21.375,0
37380,-15.125,-31.875,-23.5625,0
37400,-14.0625,-31.5,-24.6875,0
37420,-15.4375,-29.125,-24.6875,0
37440,-17.625,-25.6875,-27.0625,0
37460,-18.625,-23,-28.25,0
37480,-19.8125,-19.8125,-27.9375,0
37500,-20.3125,-17.25,-28.0625,0
37510,-21.375,-13.75,-28,0
37530,-23.9375,-9.4375,-28.25,0
37550,-26.0625,-5.6875,-27.3125,0
37570,-27,-3,-26.4375,0
37590,-26.125,-0.625,-26.5,0
37610,-27.25,1.375,-26.3125,0
37630,-29.5625,4.125,-26.9375,0
37640,-29.8125,7.6875,-26.625,0
37660,-30,10.25,-27.6875,0
37670,-29.125,12.125,-27.4375,0
37690,-29,14.375,-27.625,0
37710,-29.3125,16.5625,-27.375,0
37730,-30.4375,18.5625,-27,0
37750,-29.75,19.625,-26.4375,0
37770,-29.25,19.75,-25.8125,0
37790,-28.5625,19.5625,-26.125,0
37810,-27.9375,19.9375,-27,0
37830,-27.4375,20,-26.625,0
37850,-28.25,20.4375,-26.625,0
37870,-28,21.4375,-27.4375,0
37890,-27.8125,22.3125,-26.3125,0
37910,-28.8125,23.9375,-25.8125,0
37930,-28.9375,25.375,-25.9375,0
37950,-28.3125,26.8125,-24.4375,0
37970,-27.75,28.75,-22.5,0
37990,-27.6875,31.125,-22.0625,0
38010,-26.5625,33.125,-21.0625,0
38030,-27.0625,35.75,-19.4375,0
38050,-27.5625,38.625,-19.0625,0
38070,-24.3125,40.1875,-17.5625,0
38090,-19.8125,40.9375,-16.4375,0
38110,-18.1875,41.9375,-15.375,0
38130,-17.8125,41.6875,-14.3125,0
38150,-17,41.8125,-13.625,0
38170,-14.625,42.0625,-11.1875,0
38190,-11.0625,40.75,-9.8125,0
38210,-10.5625,38.25,-9.25,0
38230,-10.5,35,-9.75,0
38250,-9.125,32.625,-7.75,0
38270,-9.3125,32,-5.6875,0
38290,-9.1875,30.625,-5.5,0
38310,-8.875,28.9375,-5.25,0
38330,-6.8125,27.1875,-4.8125,0
38350,-5.75,26.6875,-4.625,0
38370,-3.6875,25.375,-5,0
38390,-4.4375,24.3125,-4.5625,0
38410,-4.8125,24.75,-3.9375,0
38430,-4.1875,26.375,-3,0
38450,-3.5625,26.3125,-3,0
38470,-4.25,25.6875,-2.3125,0
38490,-6,25.375,-0.625,0
38510,-3.125,25.1875,-0.25,0
38530,-1.1875,24.375,0.1875,0
38550,-1.625,24.4375,2.1875,0
38570,-3.4375,24.875,3.3125,0
38590,-3.1875,24.1875,3.75,0
38610,-1.1875,22.6875,4.875,0
38630,-0.75,21.6875,5.25,0
38650,-0.4375,22.25,3.25,0
38670,0.8125,22.25,4.75,0
38690,-2.625,22.8125,6.75,0
38710,-3.3125,22.9375,8,0
38730,-1.25,23.4375,9.4375,0
38750,-1.4375,23.875,10.5625,0
38770,-3.375,24.6875,12.875,0
38790,-2.375,24.25,14,0
38810,-0.6875,22.5,13.625,0
38830,-2.4375,20.5,15.9375,0
38850,-3.3125,19.75,18.9375,0
38870,-2.5625,16.8125,19.5,0
38890,-0.6875,14.1875,20.25,0
38910,-1.5,11.75,21,0
38930,-1.375,8.5625,22.3125,0
38950,-3,7.625,22.625,0
38970,-1.1875,6.3125,25.375,0
38990,0.625,6.625,26.5,0
39010,2.4375,4.6875,25.5625,0
39030,5.6875,2.375,25.8125,0
39050,4.1875,1.1875,25.5625,0
39070,6.625,0,24.75,0
39090,6.75,-0.5,23.6875,0
39110,7.8125,-2.4375,23.25,0
39130,6,-4.5,22.0625,0
39150,3.4375,-4.5,20.8125,0
39170,6.3125,-5.4375,21.125,0
39190,7.125,-6.1875,20.5625,0
39210,6.5,-6.3125,20.4375,0
39230,6,-6.25,21.0625,0
39250,5.375,-6.625,21.625,0
39270,4.4375,-6.0625,23.25,0
39290,7.3125,-5.5,22.4375,0
39310,9.0625,-6.25,23.5625,0
39330,7.5,-7.5,25.9375,0
39350,7.875,-8.0625,25.0625,0
39370,8.4375,-7.875,25.4375,0
39390,6.75,-7.875,25.0625,0
39410,7.8125,-9.5,24.5,0
39430,6,-9.75,25.875,0
39450,5.6875,-9,25.8125,0
39470,9.9375,-10.6875,24.625,0
39490,7.875,-13.5,25.0625,0
39510,6.375,-14,25.5625,0
39530,5.3125,-14.0625,25.6875,0
39550,5.4375,-14.75,26,0
39570,6.8125,-16.5625,24.6875,0
39590,7.6875,-17.5625,25.5625,0
39610,7.8125,-17.125,24.9375,0
39630,6.5625,-17.3125,24.4375,0
39650,6.8125,-18.5,24.1875,0
39670,6.625,-19.6875,23.9375,0
39690,6.9375,-20.5,23.125,0
39710,7.5,-22.0625,23,0
39730,5.75,-24.4375,22.6875,0
39750,5.25,-26.875,20.75,0
39770,6.1875,-28.6875,19.5,0
39790,7.8125,-31.3125,17.75,0
39810,7.125,-33.5,16.3125,0
39830,5.4375,-34.4375,15,0
39850,8.3125,-34.1875,13.1875,0
39870,6.1875,-35.5625,13.1875,0
39890,5.5625,-37.0625,11.5,0
39910,6.4375,-37.875,9.625,0
39930,7.375,-38.625,7.6875,0
39940,5.125,-40.625,6.5625,0
39950,4.1875,-41.5,5.375,0
39960,6.5625,-41.75,1.8125,0
39980,6.375,-43.25,0.4375,0
40000,3.625,-43.875,-2.0625,0
40020,5.25,-44.4375,-6,0
40040,9.75,-45.375,-9.125,0
40050,10.5625,-47.0625,-11.0625,0
40090,7.0625,-47.5625,-12.375,0
40110,6.75,-48,-13.5,0
40130,4.875,-48.9375,-15.125,0
40150,-1.0625,-48.8125,-14.0625,0
40170,0.5625,-45.5,-15.1875,0
40190,2.3125,-47.0625,-18.8125,0
40210,2.0625,-47,-19.1875,0
40230,1.625,-45.1875,-21.9375,0
40250,1.0625,-43.9375,-22.4375,0
40270,-1.6875,-41.75,-22.4375,0
40290,-2.6875,-39.25,-24.25,0
40310,-2.0625,-39.5,-24.125,0
40330,-2.75,-38.125,-26.9375,0
40350,0.5625,-39.0625,-29.75,0
40370,-2.5,-37.5,-27.25,0
40390,-4.8125,-37.4375,-27.125,0
40410,-5.6875,-36.3125,-28.1875,0
40430,-7.5,-35.1875,-26.9375,0
40450,-7.0625,-34.875,-26.0625,0
40470,-7.625,-32.6875,-26.5625,0
40490,-10.4375,-29.75,-24.6875,0
40510,-12.875,-26.5,-21.9375,0
40530,-14.5,-23.125,-22.75,0
40550,-11.4375,-23.125,-25.0625,0
40570,-11,-20.625,-23.75,0
40590,-10.9375,-16.4375,-21.875,1001
40610,-11,-13.1875,-21,0
40630,-10.125,-10.0625,-19,0
40650,-8.3125,-6.4375,-17.6875,0
40670,-7.75,-2.8125,-15.125,0
40690,-8.0625,0.625,-11.125,0
40710,-6.75,3.9375,-7.8125,0
40730,-4.4375,7.1875,-4.5625,0
40750,-2.1875,9.3125,-1.75,0
40770,-2.8125,11.5,0.9375,0
40790,-3.375,13.6875,3.25,0
40810,-2.5,15.75,5.4375,0
40820,-0.75,16.75,7.75,0
40840,0.0625,17.5625,7.1875,0
40860,1.75,15.6875,6.1875,0
40880,0.9375,14.0625,4.75,0
40900,2.5,12.875,3.1875,0
40920,2.6875,12.125,2,0
40940,2.75,11.25,1.375,0
40960,0.75,12.8125,0.3125,0
40980,-2.5,17.875,1.125,0
41000,-3.1875,24.3125,3.0625,0
41020,-1.125,33.6875,5.375,0
41040,5.1875,45.625,9.5,0
41060,12.1875,54.75,17.125,0
41080,7.0625,64,30.0625,0
41100,8,76.9375,44.125,0
41120,9.9375,89.625,51.75,0
41140,16,95.0625,57.8125,0
41160,21.8125,101.5,65.375,0
41180,26.5,108.375,71.0625,0
41200,37.375,113.375,75.375,0
41220,40.625,114.125,83.125,0
41240,39.0625,115.438,92.875,0
41260,37.8125,116.688,99.125,0
41280,40.6875,111.812,99.3125,0
41300,38.5625,101.875,99.9375,0
41320,33.25,89.4375,100.25,0
41340,33.125,75.75,91.75,0
41360,27.6875,60.125,81.5,0
41380,18.75,45.9375,71.5625,0
41400,15.75,34.375,64.3125,0
41420,13.5625,26.3125,59.875,0
41440,7.875,20.4375,47,0
41460,2.25,14.75,38.1875,0
41480,-0.875,11.3125,34,0
41500,0.0625,10,33.375,0
41520,-0.9375,7.4375,26.75,0
41540,-1.6875,7.875,13.625,0
41560,0.3125,5.875,10.25,0
41580,5.5625,1.75,11.4375,0
41600,8.0625,-0.5625,9.375,0
41620,8.8125,-3,6.8125,0
41640,6.6875,-3.9375,8.1875,0
41660,9.8125,-6,10.25,0
41680,12.5,-9,11.8125,0
41700,8.625,-11.875,12.375,0
41720,3.4375,-13.6875,13.1875,0
41740,0.5625,-14.4375,12.125,0
41760,0.0625,-15.4375,7.0625,0
41780,2.625,-17.125,1,0
41800,3.1875,-16.0625,-2.875,1000
41820,1.625,-16.4375,-3.1875,0
41840,0.375,-16.625,-3,0
41860,-1.0625,-17.875,-2.9375,0
41880,-1.9375,-19.875,-3.1875,0
41900,-1.6875,-22.5625,-5.1875,0
41920,0.4375,-25.5,-6.3125,0
41940,-0.0625,-28.5,-7.1875,0
41960,-1.9375,-32.375,-7.75,0
41980,-3.1875,-35.4375,-6.9375,0
42000,-1.9375,-37.5625,-6.5,0
42020,-1.375,-39.6875,-7.6875,0
42040,-1.8125,-40.8125,-7.9375,0
42060,-0.25,-40.4375,-7.75,0
42080,-2.25,-39.4375,-6.625,0
42100,-4.5,-37.875,-6.6875,0
42120,-6,-36.8125,-6.875,0
42140,-8.125,-35.0625,-7.4375,0
42160,-6.5625,-32.75,-9,0
42180,-5.3125,-30.875,-9.1875,0
42200,-6.6875,-28.875,-9.1875,0
42220,-7.3125,-26.3125,-11.875,0
42240,-7.6875,-27.1875,-13.8125,0
42260,-8.5,-27.125,-14.875,0
42280,-9.1875,-25.4375,-14.875,0
42300,-12.9375,-24.8125,-15.1875,0
42320,-13.4375,-23.1875,-18.875,0
42340,-12.6875,-21.3125,-21.5,0
42360,-13.5625,-21.0625,-21,0
42380,-15.625,-19,-22.875,0
42400,-18.1875,-14.875,-25.75,0
42420,-20.1875,-11.8125,-26.4375,0
42440,-20.8125,-7.4375,-26.8125,0
42460,-21.1875,-2.875,-26.75,0
42480,-23.5,0.25,-26.1875,0
42500,-23.75,3.4375,-26.5625,0
42520,-25.25,7.375,-27,0
42540,-28,10.3125,-27.3125,0
42560,-30,12.5625,-28.125,0
42580,-30.8125,15.25,-29.375,0
42600,-30.3125,17.125,-31.6875,0
42620,-29.4375,18.75,-32.8125,0
42640,-30.375,19.9375,-32.875,0
42660,-32.5625,20.5625,-33,0
42680,-33.1875,22.125,-34.8125,0
42700,-30.25,22.25,-35.625,0
42720,-27.625,20.9375,-35.9375,0
42740,-27.5625,20.6875,-36.375,0
42760,-29.625,20.875,-36.5,0
42770,-27.625,20.875,-34.9375,0
42790,-25.0625,22.75,-33.3125,0
42810,-25.1875,23.0625,-31.375,0
42830,-25.875,24.25,-30.75,0
42850,-25.125,25.75,-29.25,0
42870,-23.375,26.0625,-27.5625,0
42890,-22.0625,25.5,-26.4375,0
42910,-21.625,25,-25.8125,0
42930,-21.1875,25.6875,-25.6875,0
42950,-19.9375,26.4375,-25.5,0
42970,-18.4375,27.9375,-25.1875,0
42990,-18.0625,28.1875,-24.6875,0
43010,-18,27.6875,-24.8125,0
43030,-16.5625,27.375,-24.0625,0
43050,-16.125,28.3125,-23.375,0
43070,-14.25,29.3125,-22.875,0
43090,-12.875,29.6875,-21.375,0
43110,-12.9375,31.125,-19.875,0
43130,-13.5625,33.25,-18.875,0
43150,-12.1875,34.6875,-18.125,0
43170,-10.6875,34.75,-15.25,0
43190,-10.625,36.25,-13.625,0
43210,-10.125,37.3125,-12.9375,0
43230,-6.75,38.125,-11.5625,0
43250,-5.125,38.6875,-8.875,0
43270,-5.25,38.25,-5.875,0
43290,-5.1875,37.9375,-5.375,0
43310,-5.125,37.5,-5.8125,0
43330,-4.8125,36.875,-4.1875,0
43350,-4.375,36,-1.1875,0
43370,-3.4375,35.3125,-1.0625,0
43390,-0.6875,33.75,-2.625,0
43410,1.125,31.8125,-2.125,0
43430,-0.3125,31.3125,-0.6875,0
43450,-0.75,30,0.6875,0
43470,-2.0625,28,3.125,0
43490,-3.375,27.375,3.1875,0
43510,-2.1875,26.4375,3.5,0
43530,-1.75,25.4375,5.0625,0
43550,-1.375,23.3125,5.5625,0
43570,-0.4375,22.75,4.875,0
43590,-1,21.3125,6.5625,0
43610,-2.375,19.75,7.6875,0
43630,-1.5625,18.75,7.875,0
43650,0.125,18.125,7.75,0
43670,0,17.5,8.375,0
43690,-1.125,16.125,8.9375,0
43710,-2.75,15.5,8.875,0
43730,-2.5,14.8125,10.0625,0
43750,-0.9375,14.1875,10.125,0
43770,1.5,12.75,8.4375,0
43790,2.5625,12.5625,8.375,0
43810,0.8125,12.375,9.9375,0
43830,-0.625,11,9.75,0
43850,3.5,9.5625,8.625,0
43870,5.5,7.625,8.3125,0
43890,4.5,6.375,9.375,0
43910,3.875,4.75,10.8125,0
43930,4.9375,2.6875,11.5,0
43950,6,1,11.5625,0
43970,5.9375,-0.9375,12.625,0
43990,5,-1.1875,14.0625,0
44010,4.25,-1.125,16,0
44030,4.625,-1.9375,16.625,0
44050,5,-2.1875,16.3125,0
44070,6.75,-1.875,15.125,0
44090,6.8125,-1.875,15.875,0
44110,4.8125,-1.875,16,0
44130,3.875,-1.5,15.8125,0
44150,4,-0.4375,15.4375,0
44170,5.125,-0.625,15.75,0
44190,4.75,-1.5625,14.9375,0
44210,5.3125,-2.125,14.8125,0
44230,5.5,-1.1875,15.125,0
44250,6.375,-1.625,15.1875,0
44270,4.3125,-4.125,16.3125,0
44290,3.5,-5.5,17.4375,0
44310,7.375,-5,17.5625,0
44330,6.6875,-4.3125,18.9375,0
44350,3.6875,-3.0625,21,0
44370,4.375,-2.3125,21.25,0
44390,6.0625,-1.0625,20.375,0
44410,8.375,-1.5,20.375,0
44430,6.375,-3,21.5,0
44450,5.375,-3.5,21.5,0
44470,5.0625,-4.875,21.3125,0
44490,7.5,-6.5625,21.5625,0
44510,9.25,-8.375,23.125,0
44530,8.75,-9.5,22.625,0
44550,8.25,-11,22.25,0
44570,7.875,-13.4375,22.75,0
44590,9.4375,-14.4375,23.25,0
44610,11,-15.3125,22.3125,0
44630,13.625,-16.4375,22.6875,0
44650,9.4375,-17.3125,23.9375,0
44670,6.875,-17.75,22.5625,0
44690,9.875,-18.75,21.5625,0
44710,11.875,-21.125,21.875,0
44730,10.375,-21.875,21.1875,0
44750,9.875,-22.6875,20.375,0
44770,9.75,-23.3125,20.25,0
44790,9.125,-23.6875,21.0625,0
44810,8.5625,-24.25,21.3125,0
44830,8.875,-24.375,20.6875,0
44850,10.625,-24.25,20.4375,0
44870,8.9375,-25.3125,21.4375,0
44890,7.375,-25.625,21.75,0
44910,10.125,-25.375,21.5625,0
44930,11.125,-27.25,21.875,0
44950,9,-29.125,22.6875,0
44970,9.0625,-29.625,22.4375,0
44990,10,-30.5625,22.8125,0
45010,8.5,-32.6875,24.25,0
45030,8.375,-33.5,24,0
45050,10.125,-33.9375,22.8125,0
45070,10.3125,-35.9375,22.75,0
45090,6.875,-37.75,22.5625,0
45110,8.125,-38.8125,21.25,0
45130,11.1875,-40.25,19.375,0
45150,11.875,-42.625,18.125,0
45170,10.75,-43.625,16.75,0
45190,7.1875,-44.75,16.625,0
45200,6.9375,-45.6875,15,0
45220,8.1875,-46.875,12.5,0
45240,8.4375,-49.1875,10.875,0
45260,7.875,-49.5625,10.8125,0
45270,5.5,-47.875,10.25,0
45280,5,-48,6.0625,0
45290,3.8125,-50.125,4.6875,0
45310,2.9375,-51.5,4.375,0
45330,3.0625,-51.625,1.5625,0
45350,3.625,-50.75,-2.6875,0
45370,3.25,-51.25,-3.8125,0
45400,-0.25,-50.375,-6.0625,0
45420,-1.125,-49.625,-8.8125,0
45440,-1.625,-49.75,-8.9375,0
45460,-2.1875,-50.4375,-8.3125,0
45480,-4.9375,-50.9375,-10,0
45500,-4.75,-50.5,-13.625,0
45520,-5.9375,-51.1875,-15.625,0
45540,-6.125,-51.5,-16.8125,0
45560,-7,-52.125,-19,0
45580,-10.0625,-52.0625,-20.3125,0
45600,-11.625,-50.875,-23.125,0
45620,-13.5,-50.125,-25.4375,0
45640,-16.4375,-49.8125,-25.5,0
45660,-19.5,-46.875,-26.5,0
45680,-23.125,-42.375,-27.3125,0
45700,-25.3125,-39,-27,0
45720,-28.0625,-35.8125,-27.25,0
45740,-30.9375,-32.25,-27.5,0
45780,-41.4375,17.8125,-30.0625,0
45800,-43.625,19.375,-29.75,0
45820,-44.5,20.6875,-30,0
45840,-43.8125,22.0625,-31.25,0
45860,-43.3125,23.8125,-32.125,0
45880,-43.5,25.875,-32.5625,0
45900,-43.5,28.1875,-33.375,0
45920,-44.125,29.375,-33.4375,0
45940,-44.375,31.125,-34.125,0
45950,-44.0625,32.0625,-34.9375,0
45970,-42.125,32.8125,-34.8125,0
45990,-40.9375,34.8125,-34.6875,0
46010,-40.75,34.875,-34.4375,0
46030,-39.1875,37.125,-34.3125,0
46050,-36.125,37.25,-31.875,0
46070,-33.0625,37.875,-30.0625,0
46090,-30.375,39.375,-29,0
46110,-28.5625,40.1875,-27.25,0
46130,-27.875,42.125,-24.3125,0
46150,-28.25,43,-20.4375,0
46170,-25,43.5625,-16.6875,0
46190,-20.5625,43.9375,-13.3125,0
46210,-16.9375,43.1875,-11.0625,0
46230,-16.375,43.125,-9,0
46250,-14.125,42.1875,-5.875,0
46270,-11.3125,39.625,-1.375,0
46290,-8.3125,37.625,2.4375,0
46310,-6.125,37.125,4.6875,0
46330,-3.9375,37.5625,5.3125,0
46350,-5.125,36,8.5625,0
46370,-7.9375,34.25,13.75,0
46390,-6.625,35.1875,14.0625,0
46410,-0.875,34.5625,11.8125,0
46430,3,34.875,9.9375,0
46450,1.9375,33.4375,10.3125,0
46470,0.8125,32.4375,10.5625,0
46490,2.5,31.375,7.5625,0
46510,3.5625,29.3125,6.0625,0
46530,4.75,26.75,6.75,0
46550,6.375,25.1875,5.25,0
46570,5.5625,24.1875,4.5625,0
46590,3.375,23,5.125,0
46610,0.8125,21.75,5.4375,0
46630,1.9375,20.5625,3.4375,0
46650,2.25,19.0625,2.5625,0
46670,0.625,18.4375,4.625,0
46690,-0.875,18.25,5.25,0
46710,-0.1875,17.25,4,0
46730,0.5,15.6875,3.6875,0
46750,0.25,14.6875,5.125,0
46770,-0.4375,14.9375,6.625,0
46790,-0.8125,15.0625,6.75,0
46810,-1.25,13.8125,7.375,0
46830,-2.5,13.125,9.375,0
46850,-0.5,12.375,9,0
46870,0.4375,12.8125,8.5,0
46890,-1.6875,12.1875,10.5,0
46910,-3.1875,11.8125,10.8125,0
46930,-1.6875,13.25,11,0
46950,0.125,15.375,11.5625,0
46970,-2.5625,15.25,11.4375,0
46990,-2.625,13.6875,11.6875,0
47010,-0.875,13.0625,10.8125,0
47030,0.1875,12.8125,10.5625,0
47050,0,12.8125,13.9375,0
47070,-2.125,12.8125,13.75,0
47090,-0.75,12.125,12.75,0
47110,1.125,11.1875,12.9375,0
47130,0.0625,10.875,12.5625,0
47150,0.625,11.4375,11.625,0
47170,3.0625,10.75,11,0
47190,0.9375,9.9375,13.5625,0
47210,-0.6875,8.9375,14,0
47230,3.0625,7.875,13.3125,0
47250,4.4375,5.875,14.4375,0
47270,1,3.5,14.9375,0
47290,-0.25,2.1875,14,0
47310,4.1875,1.625,13.75,0
47330,5.25,-1.3125,12.5625,0
47350,6,-2.6875,12.1875,0
47370,5.875,-4.25,12.625,0
47390,5.9375,-4.5625,13.4375,0
47410,5.4375,-5.1875,13.625,0
47430,6.9375,-5.4375,13,0
47450,7.8125,-5.0625,13.9375,0
47470,6.0625,-6.25,14.875,0
47490,7.8125,-6.375,14.5,0
47510,7.875,-5.8125,15.6875,0
47530,6.5,-5.875,16.875,0
47550,7.5625,-4.125,16.625,0
47570,11.4375,-3.125,16.5,0
47590,13.3125,-2.3125,16.4375,0
47610,8.8125,-3.125,15.0625,0
47630,3.75,-3.25,17.75,0
47650,6.6875,-2.0625,19.25,0
47670,8.0625,-3.1875,20,0
47690,7.375,-3.625,20.8125,0
47710,6.125,-3.3125,22.0625,0
47730,4.6875,-3.25,22.5625,0
47750,5.8125,-4.4375,22.75,0
47770,4.3125,-6,23.625,0
47790,5.0625,-6.9375,24.375,0
47810,6.125,-8.25,24.5625,0
47830,6.3125,-8.3125,25.0625,0
47850,5.8125,-9.6875,25.5625,0
47870,6.1875,-11.1875,24.4375,0
47890,7.0625,-12.75,24.1875,0
47910,6.875,-14.8125,24.0625,0
47930,4.3125,-16.5,23.625,0
47940,5.25,-18.4375,23.0625,0
47960,5.5,-20.5625,22.3125,0
47980,5.8125,-22.9375,21.75,0
48000,7,-24.75,21.3125,0
48020,5.6875,-25.8125,21.0625,0
48040,5.75,-26.875,20.875,0
48060,5.0625,-27.625,19.5,0
48080,6.1875,-29.0625,18.3125,0
48100,7.125,-30.0625,17.875,0
48120,5.625,-31.5,16.75,0
48140,5.6875,-31.6875,15.3125,0
48160,7.9375,-31,14.3125,0
48180,7,-32.3125,14.125,0
48200,5.4375,-33,12.9375,0
48220,7.3125,-32.4375,10.625,0
48240,9.625,-32.5,8.5625,0
48260,8.8125,-32.5625,8.125,0
48280,10.9375,-31.6875,7.375,0
48300,12.8125,-31.625,6.5,0
48320,9.375,-32.9375,6.3125,0
48340,6.375,-34.375,5.5,0
48360,7.0625,-34,5.9375,0
48380,9.3125,-33.375,5.5625,0
48400,7.6875,-34.125,3.5,0
48420,4.625,-35.875,2.125,0
48440,5.8125,-36.0625,0.75,0
48460,6.8125,-36.875,-0.1875,0
48480,5.1875,-38.8125,-1.6875,0
48500,4.125,-39.9375,-4.0625,0
48520,4.625,-40.3125,-5.4375,0
48540,3.625,-40.25,-6.3125,0
48560,3.4375,-40.6875,-7.3125,0
48580,2.375,-41.375,-9.25,0
48600,1.25,-41.0625,-10.5625,0
48620,0.6875,-40.625,-11.125,0
48640,-0.8125,-41.0625,-11.1875,0
48660,-2.3125,-40.0625,-10.625,0
48680,-3.9375,-40.1875,-11,0
48700,-3.875,-39.5625,-12.5,0
48720,-5.125,-38.125,-14.4375,0
48740,-5.5,-37.5,-13.8125,0
48760,-6.0625,-36.6875,-14,0
48780,-6.5,-34.75,-16.8125,0
48800,-9.25,-33.9375,-18.25,0
48820,-11.5625,-32.25,-18,0
48840,-10.8125,-31.9375,-20.5625,0
48860,-11.375,-30.125,-21.8125,0
48880,-13.6875,-27.5625,-20.5625,0
48900,-16.625,-22.8125,-19.1875,0
48920,-16.375,-22.125,-21.25,0
48940,-18,-20.5,-22.25,0
48960,-19.5,-17.5625,-21.5,0
48980,-19.6875,-13.875,-22.625,0
49000,-20.5625,-10.25,-23.5,0
49020,-22,-8,-22.875,0
49040,-22.875,-5.375,-23.1875,0
49060,-22.3125,-2.1875,-24,0
49080,-22.375,2.0625,-24.0625,0
49100,-22.3125,5.1875,-23.4375,0
49120,-20.9375,7.1875,-23.375,0
49140,-20.0625,9.5,-24.625,0
49160,-21.125,11.6875,-23.9375,0
49180,-21.875,14.0625,-23.8125,0
49200,-21.5625,15.9375,-23.625,0
49220,-22.1875,17.625,-23.875,0
49240,-22.4375,18.5625,-24.8125,0
49260,-22.25,18.9375,-24.9375,0
49280,-22.25,19.75,-24.9375,0
49300,-22.625,20.375,-24.625,0
49320,-23.5625,19.6875,-25.125,0
49340,-24.1875,18.75,-26,0
49360,-24.4375,17.6875,-25.3125,0
49380,-25.3125,16.625,-24.875,0
49400,-27.0625,16,-24.5625,0
49420,-27.625,15.25,-24,0
49440,-27.1875,14.25,-23.9375,0
49460,-27,13.4375,-24.375,0
49480,-26.75,12.75,-24.25,0
49500,-26.375,13,-23.5625,0
49520,-26.625,14.0625,-22.875,0
49540,-26.1875,14.625,-22.75,0
49560,-24.25,15.125,-21.9375,0
49580,-24.5,16.0625,-19.9375,0
49600,-24.4375,17.875,-18.1875,0
49620,-24.4375,21.5625,-16.0625,0
49640,-22.375,21.4375,-15.1875,0
49660,-19.8125,23.625,-14.1875,0
49680,-18.3125,25.9375,-12.4375,0
49700,-19.1875,28.5,-10.125,0
49720,-20.375,30.3125,-7.875,0
49740,-18.875,31.8125,-5.375,0
49760,-15.3125,32.3125,-3.625,0
49780,-10.8125,32.8125,-1.875,0
49800,-7.6875,32.25,-0.5625,0
49820,-9.4375,31.5,2.625,0
49840,-11.25,30.5625,6.3125,0
49860,-9,30.125,7.8125,0
49880,-6.5625,29.9375,9.375,0
49900,-7.625,28.625,11.5625,0
49920,-6.1875,28.375,12.6875,0
49940,-4.5625,28.875,13.25,0
49960,-5.25,29.0625,13.5,0
49980,-5.5625,29.125,12.875,0
50000,-3.9375,28.375,12.1875,0
50020,-5.1875,28.5625,11,0
50040,-3.125,28.25,10.875,0
50060,0.0625,28.125,9.375,0
50080,-0.5625,27.875,7.8125,0
50100,-2.0625,27.875,9.125,0
50120,-2.1875,28.75,10.3125,0
50140,0.625,28.625,9.3125,0
50160,-1.5,25.75,8.9375,0
50180,-2.875,23.5,8.375,0
50200,-1.875,22.875,8.125,0
50220,-3.3125,22.5625,8.8125,0
50240,-2.5,22.1875,9.125,0
50260,-0.3125,22.9375,8.875,0
50280,2.25,21.6875,9.75,0
50300,1.25,20.1875,10.75,0
50320,0.75,19.8125,10.3125,0
50340,2.4375,19.3125,10.625,0
50360,3.6875,18.125,10.6875,0
50380,4.0625,15.0625,9.6875,0
50400,1.875,14.125,11.25,0
50420,3.75,13.3125,10.5,0
50440,8.5625,11.8125,9.75,0
50460,8.75,9.9375,8.4375,0
50480,8,6.5625,10.4375,0
50500,1.625,4.8125,10.75,0
50520,1.875,5.1875,12,0
50540,1.375,2.6875,13.75,0
50560,2.375,1,12.5625,0
50580,8,0.875,11.1875,0
50600,8.5625,-0.125,13.3125,0
50620,4.4375,-0.3125,12.6875,0
50640,5.1875,-0.4375,13.0625,0
50660,4.5625,-0.625,14.125,0
50680,3.875,0.8125,15.5,0
50700,6.3125,1.5,16.875,0
50720,5.3125,0.25,17,0
50740,4.125,-0.125,18.1875,0
50760,4.125,0.625,19.4375,0
50780,3.8125,-0.125,20.625,0
50800,4.625,-0.5625,22.1875,0
50820,3.5,-3.0625,22.75,0
50840,5.1875,-4.1875,22.875,0
50860,6.3125,-5.8125,23.875,0
50880,4.0625,-7.125,24.625,0
50900,4.25,-6.5625,23.875,0
50920,5.875,-7.8125,23.6875,0
50940,5.25,-9.875,23.375,0
50960,3.6875,-10.4375,22.3125,0
50980,4.8125,-10.375,22.4375,0
51000,5.1875,-11.875,23,0
51020,2.25,-13.9375,22.1875,0
51040,2.25,-13.3125,21.3125,0
51060,5.0625,-14.125,22.3125,0
51080,4.5,-15,21.3125,0
51100,5.625,-16,19.875,0
51120,6.6875,-16.4375,19.875,0
51140,7.875,-16.375,19.875,0
51160,7.625,-16.875,19.625,0
51180,5.3125,-17.625,19.9375,0
51200,5.625,-17.25,20.6875,0
51220,7.1875,-16.625,20.1875,0
51240,9.4375,-16.625,19.375,0
51260,8,-17.375,19.875,0
51280,8.25,-16.125,20.125,0
51300,10.625,-16.9375,20.3125,0
51320,8.375,-19.9375,20.5,0
51340,7.25,-20.375,20.0625,0
51350,9.125,-21.125,19,0
51370,8.375,-23.4375,17.875,0
51390,7,-23.875,16.5625,0
51410,8.125,-25.375,14.5625,0
51430,8.625,-26.875,13.25,0
51460,8.25,-29.9375,10.4375,0
51530,7.4375,-37.25,3.25,0
51550,7.4375,-38.125,3.125,0
51570,6.375,-39.125,2.3125,0
51590,4.75,-39.8125,0.625,0
51610,3.9375,-40.75,0.1875,0
51630,4.8125,-41.4375,-1.625,0
51650,4.375,-42.0625,-5.1875,0
51670,4.5625,-44.5,-6.875,0
51690,6.0625,-45.6875,-7.4375,0
51710,6.0625,-46.0625,-9.625,0
51730,4.375,-47.8125,-11.0625,0
51750,3,-48.8125,-11.4375,0
51770,2.4375,-47.25,-13.6875,0
51790,1.6875,-46.5,-13.5625,0
51810,0.125,-45.5625,-15.3125,0
51830,0.875,-43.625,-17.4375,0
51850,2.1875,-41.5625,-17.6875,0
51870,2.6875,-40.1875,-18.3125,0
51890,1.6875,-38.5,-20.5625,0
51910,1.4375,-37,-22.1875,0
51930,2.125,-36.4375,-22.5625,0
51950,2.25,-36.5625,-24.5,0
51970,1,-35.125,-25.4375,0
51990,1.8125,-34.375,-26.375,0
52010,1.1875,-32.4375,-26.9375,0
52030,-1.25,-32.375,-27.375,0
52050,-4.25,-29.0625,-28.375,0
52070,-3.125,-27.75,-29.875,0
52090,-2.6875,-26.75,-30.8125,0
52110,-8.1875,-20.125,-29.4375,0
52130,-6.5,-20.1875,-29,0
52150,-5.125,-18.9375,-29.625,0
52170,-5,-18.875,-27.4375,0
52190,-3.8125,-18.625,-25.5,0
52210,-5.0625,-13.5625,-24.3125,0
52230,-4.375,-15.25,-22.8125,0
52250,-4.9375,-13.8125,-18.0625,1001
52270,-5.0625,-11.5625,-14,0
52290,-3.75,-10.875,-11.4375,0
52310,-2.75,-10.1875,-9.375,0
52330,-2.3125,-9,-6.0625,0
52350,-3.625,-5.5,-2.25,0
52370,-3.375,-4,-1.6875,0
52390,-2.5,-5.0625,-1.9375,0
52410,-2.4375,-5.875,-0.5625,0
52430,-3.4375,-4.5625,0.5,0
52450,-2.25,-1.5625,1.5,0
52470,-1.4375,-0.4375,2.1875,0
52490,-0.25,0.75,2.75,0
52510,0.5625,1.5,3.25,0
52530,1.125,5.875,2.5,0
52550,1.6875,13.5625,2,0
52570,2.3125,25.25,2.5,0
52590,1.5,35,7.25,0
52610,-3,44.875,13.3125,0
52630,-3.25,59.5625,21.1875,0
52650,11.5625,73.75,31.1875,0
52670,18.5,89.125,42.3125,0
52690,16.5625,101.188,49.3125,0
52710,11.1875,115.125,52.4375,0
52730,23.375,126.125,60,0
52750,24.25,129.125,69,0
52770,14.625,130.875,70.125,0
52790,15.3125,131.688,71.5,0
52810,22,126.938,78,0
52830,20.75,117.688,80.1875,0
52850,18.1875,104,73.75,0
52870,20.75,89.3125,67.625,0
52890,18.4375,74.875,66.6875,0
52910,18.9375,62.0625,66.25,0
52930,16,51,63.3125,0
52950,14.1875,37.5,57.25,0
52970,9,31,51.5,0
52990,0.25,30.0625,43.375,0
53010,-5.9375,25.0625,37.5,0
53030,-11.75,23.1875,31.25,0
53050,-9.9375,31,20.6875,0
53070,-0.75,32.1875,14.6875,0
53090,3.9375,28.4375,13.5625,0
53110,-3.125,28.125,11.75,0
53130,-8.9375,32.75,10.625,0
53150,-3.5625,31.9375,7.6875,0
53170,0.375,25.9375,10.5,0
53190,4.1875,21.8125,15,0
53210,4.6875,18.625,17.4375,0
53230,-0.6875,14.25,19.375,1000
53250,-5.875,10.6875,23.375,0
53260,-10.875,10,22.0625,0
53280,-12.875,12.125,21.875,0
53300,-10,13.875,21.3125,0
53320,-4.75,14.875,21.5625,0
53340,-4.125,15.5,21,0
53360,-2.0625,15.75,17.5625,0
53380,2.4375,13.1875,12.3125,0
53400,5,8.8125,8.75,0
53420,7,1.5,5.0625,0
53440,9.375,-5.625,0,0
53460,9.0625,-11.75,-0.625,0
53480,14,-14.5,-0.75,0
53500,15.125,-18.9375,-2.3125,0
53520,11.375,-22.0625,-1.4375,0
53540,5.5625,-24.375,-1,0
53560,3.8125,-25.625,-2.625,0
53580,5.8125,-27.25,-3.4375,0
53600,3.8125,-28.8125,-2.625,0
53620,3.75,-31.6875,-5.5,0
53640,4.875,-33.875,-7.9375,0
53660,5.6875,-36.5,-9.5625,0
53680,3.6875,-38.5625,-10,0
53700,1.375,-39.4375,-10.625,0
53720,0.0625,-40.75,-11.6875,0
53740,0.4375,-41.875,-14.8125,0
53760,0.5625,-43.625,-15.8125,0
53780,-2.75,-44,-15.0625,0
53800,-2.125,-45.3125,-16.5625,0
53820,-2.5625,-47.5,-20.4375,0
53840,-4.75,-46.875,-23.25,0
53860,-7.5,-46.875,-24.1875,0
53880,-8.625,-45.625,-26.6875,0
53900,-7.375,-44.625,-31.1875,0
53920,-10.875,-43.0625,-32.8125,0
53940,-13.4375,-41.75,-32.6875,0
53960,-13.1875,-38.75,-35.6875,0
53980,-16.125,-35.25,-35.8125,0
54000,-18.4375,-30.625,-36.875,0
54020,-19.75,-27.6875,-37.5625,0
54040,-22.75,-23.9375,-38.0625,0
54060,-26.75,-19.875,-37.6875,0
54080,-28.125,-14.875,-39.25,0
54100,-28.8125,-7.8125,-40.75,0
54120,-30.8125,-2.875,-39.6875,0
54140,-33.3125,0.25,-38.8125,0
54160,-34.25,3.25,-38.125,0
54180,-34.9375,5.6875,-38.9375,0
54200,-36.125,8.875,-38.5625,0
54220,-38.125,9.6875,-37.4375,0
54240,-39.625,13.875,-37.9375,0
54260,-39.1875,14.9375,-38.125,0
54280,-39,16.4375,-39.25,0
54300,-38.6875,19.5,-40.0625,0
54330,-40.125,26.8125,-38.875,0
54350,-40.3125,31.4375,-37.875,0
54370,-40,35.625,-36.5625,0
54390,-38.125,39.875,-35.8125,0
54410,-36.0625,43.1875,-34.4375,0
54430,-35.5625,45.5,-34.25,0
54450,-33.3125,45.875,-33.4375,0
54470,-31.0625,45.9375,-31.4375,0
54490,-29.875,45.125,-29.8125,0
54510,-27.875,44.1875,-28.875,0
54530,-24.125,44.3125,-28.25,0
54550,-19.375,44.875,-26.5,0
54570,-17.0625,43.6875,-24.0625,0
54590,-14.8125,44.75,-22.8125,0
54610,-11.9375,45.625,-20.3125,0
54630,-7.75,45.625,-17.4375,0
54650,-5,45.5625,-14.8125,0
54670,-5.625,44,-11.125,0
54690,-5.5625,43.8125,-7.5,0
54710,-4.875,43.75,-3.25,0
54730,-5.3125,44.3125,-1.5,0
54750,-3.5,43.5,0.5625,0
54770,-2.375,45.3125,2.875,0
54790,-2.25,45,4.125,0
54810,-3.4375,43.8125,5.5,0
54830,-0.9375,41.75,5.875,0
54850,-0.75,41.125,4.8125,0
54870,-2.6875,40.8125,5.25,0
54890,-2.4375,36.625,5.875,0
54910,-1.125,33.1875,7.5625,0
54930,0,29.8125,9.3125,0
54950,-0.875,27.0625,7.875,0
54970,0.875,24.875,5.6875,0
54990,1.5,22.875,7.5625,0
55010,1.4375,24.125,9.9375,0
55030,1.1875,25.5625,11.625,0
55050,-0.8125,26.1875,15.125,0
55070,-0.8125,27.0625,14.1875,0
55090,-0.9375,26.875,11.875,0
55110,-2.9375,24.9375,14.9375,0
55130,-3.1875,23.75,20.125,0
55150,-1.0625,23.5625,18.75,0
55170,0.1875,20.625,16.3125,0
55190,0.3125,16.8125,17.1875,0
55210,-2.625,14.375,20.3125,0
55230,-0.375,12.5,18.4375,0
55250,2.4375,10.125,16,0
55270,2.125,8.3125,17.875,0
55290,1.6875,7.125,21.125,0
55310,4.5625,5.125,19.125,0
55330,4.9375,3.75,18.125,0
55350,2.25,2.9375,22.5,0
55370,1.75,2.25,23.4375,0
55390,4.5625,1.5,21.375,0
55410,6.125,0.625,21.375,0
55430,8.4375,-1.1875,22.5,0
55450,9,-2.1875,22.3125,0
55470,5.5,-2.9375,23.25,0
55490,6.0625,-3.5625,24.25,0
55510,5.3125,-5.8125,24.1875,0
55530,8.1875,-6.5625,23.875,0
55550,13.125,-7.1875,24.8125,0
55570,12.25,-10.625,25.375,0
55590,9.8125,-10.25,25.5,0
55610,9.875,-10.5625,27.75,0
55630,7.5,-13.875,29.5,0
55650,8.0625,-14.8125,30.0625,0
55670,9.75,-16.125,31.8125,0
55690,7.5625,-17.9375,32.8125,0
55710,6.3125,-19.6875,32.0625,0
55730,7.3125,-20.625,32.25,0
55750,9.1875,-21.4375,32.375,0
55770,8.25,-23.75,30.9375,0
55790,7.8125,-24.0625,30.3125,0
55810,8.4375,-23.0625,30.375,0
55830,7.5,-23.75,28,0
55850,10.375,-24,26.25,0
55870,11.4375,-23.3125,28.875,0
55890,8.5,-23.375,30.875,0
55910,10.625,-23.5625,31.1875,0
55930,10.0625,-25.4375,33.6875,0
55950,5.6875,-28,35.25,0
55970,4.0625,-29.625,33.375,0
55990,7.8125,-31.6875,31.125,0
56010,7.0625,-35.9375,31.5,0
56030,5.375,-37,31.1875,0
56050,9.875,-39.3125,26.9375,0
56070,11.0625,-44.875,25.8125,0
56090,8.5,-47.5625,25.9375,0
56110,9.4375,-48.4375,22.625,0
56130,15.8125,-50.75,18.875,0
56150,9.4375,-55.8125,18.25,0
56170,6.3125,-57.25,16.6875,0
56190,11,-59.0625,10.875,0
56210,12.9375,-62.125,8.6875,0
56230,9.375,-64.8125,7.75,0
56250,8.75,-64.9375,6.25,0
56270,9.9375,-64.75,1.875,0
56290,11.1875,-66.0625,-3.125,0
56310,7.1875,-66.125,-2.9375,0
56330,5.4375,-63.5625,-3.875,0
56350,6.5625,-63.8125,-9.3125,0
56370,6.6875,-63.5,-11.1875,0
56390,5.4375,-64.3125,-9,0
56410,0.0625,-61.875,-8.5,0
56430,1.0625,-60.0625,-13,0
56450,-0.25,-58.875,-14.375,0
56470,-6.25,-58.9375,-13.9375,0
56490,-6.75,-55.8125,-18.3125,0
56500,-5.1875,-51.625,-22.3125,0
56520,-6.25,-50.625,-22.75,0
56540,-10.0625,-49.5,-25.375,0
56560,-12.75,-46.5,-26.5,0
56580,-13.4375,-41.9375,-27.6875,0
56600,-14.375,-39.5,-30.1875,0
56620,-18,-35.625,-30.6875,0
56630,-18.125,-31.5,-30.9375,0
56650,-18.9375,-28.75,-30.125,0
56670,-22.5625,-24.5625,-30.25,0
56690,-24.1875,-19.125,-31.3125,0
56710,-24.875,-16.4375,-32.375,0
56730,-25.6875,-13.6875,-32.5625,0
56750,-25.9375,-9.75,-32.75,0
56770,-28.375,-5.8125,-34.5625,0
56790,-28.1875,-3.25,-35.125,0
56810,-29,-0.5625,-34.75,0
56830,-31.125,2.5625,-34.5,0
56850,-32.5,5.5,-34.3125,0
56870,-32.9375,9.25,-34.5,0
56890,-32.5,12.1875,-34.0625,0
56910,-33.0625,15.4375,-33.4375,0
56930,-33.5625,24.3125,-33.8125,0
56950,-33.5625,26.1875,-34.125,0
56970,-33.5625,27.9375,-34.0625,0
56990,-33.75,28.3125,-34,0
57010,-33,28.25,-34.3125,0
57030,-31.125,28.1875,-34,0
57050,-31.1875,27.625,-32.875,0
57070,-31.3125,26.5625,-32.5,0
57090,-30.6875,24.8125,-31.625,0
57110,-28.4375,24.4375,-30.8125,0
57130,-25.875,25.1875,-30.25,0
57150,-25.125,26,-29.875,0
57170,-25.1875,26.1875,-28.25,0
57190,-24.1875,26.875,-27.6875,0
57210,-22.3125,28,-26.5625,0
57230,-21.125,28.1875,-24.625,0
57250,-20.625,28.875,-22.4375,0
57270,-19.5625,30.3125,-22.0625,0
57290,-18.25,30.8125,-21.1875,0
57310,-17.625,32.0625,-19.5625,0
57330,-18.0625,33.4375,-16.9375,0
57350,-18.625,33.75,-12.8125,0
57370,-17.3125,36.125,-11.8125,0
57390,-13.1875,36.3125,-11.3125,0
57410,-10.5625,36.1875,-10.5625,0
57430,-9.4375,36.6875,-7.8125,0
57450,-10.625,36.8125,-4.0625,0
57470,-11.9375,37.3125,-2.8125,0
57490,-7.9375,36.625,-2.125,0
57510,-6.3125,35.8125,-1.8125,0
57530,-4.125,36.1875,-2.1875,0
57550,-1.0625,36.9375,0.6875,0
57570,-4.9375,36.5,3.5,0
57590,-6.625,35.5,2.75,0
57610,-1.9375,32.0625,2.5,0
57630,-1.4375,29.375,5.6875,0
57650,-3.375,28.1875,7.75,0
57670,-3.4375,27.8125,6.4375,0
57690,-3.125,26.5,7.125,0
57710,-6.25,24.3125,10.6875,0
57730,-3.8125,24.4375,11.6875,0
57750,0.6875,25.875,11.0625,0
57770,-0.625,26.0625,14.9375,0
57790,-1.5,26.1875,18.0625,0
57810,-1.25,25.5625,18,0
57830,-1.25,24.375,20.6875,0
57850,-3,22.875,23.875,0
57870,-1.1875,22.25,24.0625,0
57890,5.5625,21.1875,23.75,0
57910,1.3125,19.75,27.5625,0
57930,-1,18.4375,31.0625,0
57950,2.8125,16.4375,29.625,0
57970,4.375,15.8125,29.875,0
57990,0.75,13.625,33.3125,0
58010,0.375,12.375,34.875,0
58030,2.4375,13.125,32.75,0
58050,3.75,14.125,32.0625,0
58070,1.25,13.0625,32.4375,0
58090,-2.25,15,30.5,0
58110,0.5,16.125,28.75,0
58130,4.625,14.6875,26.125,0
58150,4.25,14.9375,25.8125,0
58170,1.25,14.875,27.9375,0
58190,4,15,26,0
58210,7.875,10.9375,24.5625,0
58230,6.8125,5.625,24.375,0
58250,5.9375,2.0625,25.1875,0
58270,7.6875,-0.125,25.4375,0
58290,8.625,-5.0625,23.25,0
58310,7.8125,-10.6875,23.25,0
58330,7.75,-15.75,24.1875,0
58350,9.0625,-19.9375,23.5625,0
58370,9.25,-24.375,24.625,0
58390,9.8125,-26.875,25.375,0
58410,9.5625,-30.5,25.3125,0
58430,9.5625,-32.625,25.9375,0
58450,8.5,-33.375,27.125,0
58470,7.125,-33.25,27.6875,0
58490,8.1875,-33.875,26.375,0
58510,7.0625,-34.4375,26.875,0
58530,8.9375,-33,26.0625,0
58550,9.9375,-34.25,25.625,0
58570,9.25,-34.3125,26.5,0
58580,9.625,-32.375,27.0625,0
58600,11.5625,-31.0625,26.4375,0
58620,10.9375,-33.0625,27.125,0
58640,9.1875,-32.6875,27.375,0
58660,7.6875,-32.5,26.625,0
58680,8.5,-33.3125,25.375,0
58700,8.3125,-35.125,24.3125,0
58720,8.625,-36,23.75,0
58740,11.0625,-36.375,20.8125,0
58760,13.5625,-37.875,17.0625,0
58780,13.0625,-40.5,15.6875,0
58800,13.125,-40.25,15.125,0
58820,14.9375,-39.75,12.75,0
58840,15.375,-41,10.3125,0
58860,13.4375,-42.25,9.0625,0
58880,10.5,-43.375,9.5,0
58900,11.1875,-43.1875,6.8125,0
58920,14.25,-44.5,3.25,0
58940,11.5625,-46.1875,2.625,0
58960,10.3125,-46.5625,1.9375,0
58980,10.5625,-46.3125,0.4375,0
59000,7.625,-47.6875,-1.375,0
59020,6.875,-49.0625,-2.5,0
59040,8.8125,-49.5625,-2.8125,0
59060,6.0625,-50.1875,-4.375,0
59080,3.75,-49.875,-7.4375,0
59100,3,-50.3125,-8.875,0
59120,3.875,-50.625,-10.75,0
59140,3.125,-50.4375,-13.375,0
59160,0.625,-49.9375,-15.1875,0
59180,-0.5,-49.4375,-18.625,0
59200,-3.1875,-47.5,-21.0625,0
59220,-6.25,-47.6875,-21,0
59240,-6.75,-46.1875,-23.375,0
59260,-8.5,-43.5,-27.3125,0
59280,-10.0625,-41.8125,-28.6875,0
59300,-11.8125,-39.5625,-28.125,0
59320,-14.0625,-36.25,-29.5,0
59340,-16.375,-32.625,-31.6875,0
59360,-19.6875,-28.3125,-33.6875,0
59380,-19.5625,-26,-34.0625,0
59400,-18.875,-22.9375,-35.375,0
59420,-20.5,-20.5,-35.6875,0
59440,-23.3125,-16.3125,-36.75,0
59460,-25.5625,-12.3125,-38.125,0
59480,-27.125,-8.5,-37.1875,0
59500,-28.5,-3.75,-36.375,0
59520,-29.6875,0.625,-35.5,0
59540,-29.75,5.25,-37.1875,0
59560,-29.875,9.5625,-37.0625,0
59580,-31.875,13.4375,-36.1875,0
59600,-32.375,16.6875,-35.5,0
59620,-31.625,18.625,-35.25,0
59640,-30.5625,21.5,-36.5625,0
59660,-31.1875,23.125,-36.1875,0
59680,-32.8125,23.5625,-35.375,0
59700,-32.0625,25.125,-35.3125,0
59720,-31,26,-36,0
59740,-30.1875,25.9375,-35.375,0
59760,-30.75,26.625,-34.6875,0
59780,-30.5625,28.4375,-36.0625,0
59800,-30.4375,28.125,-35.625,0
59820,-30.625,26.875,-34.125,0
59840,-29.3125,27.1875,-34.125,0
59860,-27.5,27.3125,-34.3125,0
59880,-26.4375,26.25,-33.9375,0
59900,-27.875,27,-32,0
59920,-28.625,29.0625,-28.9375,0
59940,-29.5625,32.6875,-26.5,0
59960,-27.3125,33.625,-25.25,0
59980,-24.625,34.0625,-22.5625,0
60000,-21.75,36.8125,-18.5625,0
60020,-19.625,40,-16.8125,0
60040,-18.0625,40.8125,-15.25,0
60060,-18.5,39.625,-10.6875,0
60080,-20.125,40.1875,-6.5,0
60100,-18.9375,41.4375,-4.5625,0
60120,-16.75,41.75,-0.625,0
60140,-15.75,41.5625,1.875,0
60160,-12.5625,40.3125,3.375,0
60180,-11.4375,40.4375,4.9375,0
60200,-11.3125,41.125,4.8125,0
60220,-8.9375,42.25,4,0
60240,-8.8125,42.9375,4.625,0
60260,-10.1875,44.1875,5.0625,0
60280,-8.4375,43.8125,6.25,0
60300,-7.5,41.1875,7.25,0
60320,-9.0625,37.8125,6.875,0
60340,-6.9375,35.0625,6.8125,0
60360,-3.1875,32.5,7.5,0
60380,-3.5,29.1875,7.8125,0
60400,-2.0625,27.8125,7.4375,0
60420,-2.375,24.25,7.8125,0
60440,-3.6875,24.0625,10.0625,0
60460,-1.125,25.25,11.4375,0
60480,5.9375,24.75,8.1875,0
60500,8.75,21.8125,9.3125,0
60520,2.625,19,12.25,0
60540,1.375,18.375,14.5,0
60560,2,17.3125,15.5625,0
60580,5.1875,13.9375,17.0625,0
60600,2.5625,10.3125,19.625,0
60620,2.8125,9.25,20.875,0
60640,4,9.5,22.625,0
60660,0.375,9.75,22.8125,0
60680,2.25,8.9375,22.8125,0
60700,2.3125,7.3125,22.6875,0
60720,0.5625,6.75,22.25,0
60740,0.1875,5.25,23.4375,0
60760,-4.5625,5.8125,23.0625,0
60780,1,7.875,22.8125,0
60800,3.625,5.3125,22.5,0
60820,5.8125,5.1875,22.4375,0
60840,2.625,6,24.25,0
60860,-1.5,5.625,24.1875,0
60880,-3.75,5.375,27.3125,0
60900,-5.5625,3.4375,29.3125,0
60920,-7.875,1.625,28.4375,0
60940,-2.375,1.25,27.625,0
60960,2.375,-0.9375,28.375,0
60980,1.9375,-2.25,29.625,0
61000,-1.4375,-2.0625,31.25,0
61020,-2.4375,-3.75,29.875,0
61040,0.75,-6.4375,30.6875,0
61060,4.125,-6.5625,32,0
61080,4.1875,-9.6875,30.3125,0
61100,1.5,-11.5,29.375,0
61120,2.75,-11.3125,29.8125,0
61140,5.4375,-13.1875,28.4375,0
61160,6.1875,-18.8125,26.9375,0
61180,5.875,-19.125,27.4375,0
61200,7.5,-20.25,27.5625,0
61230,3.8125,-24.25,24.875,0
61250,7.8125,-24.625,24.75,0
61270,9.9375,-25.75,25.1875,0
61290,7.5625,-26.9375,23.9375,0
61310,4.9375,-29.8125,25.125,0
61330,5.75,-27.5,26.5,0
61350,9,-31.0625,27.0625,0
61370,2.1875,-34.3125,28.4375,0
61390,2.875,-33.375,26.25,0
61410,6.4375,-34.3125,26,0
61430,7.1875,-36.25,26.5625,0
61450,3.625,-37.375,24.3125,0
61470,8.9375,-37.625,23.5625,0
61490,8.9375,-39,24.1875,0
61520,6.375,-41.125,20.3125,0
61550,1.75,-42.6875,16.625,0
61570,7.625,-43.375,13.5625,0
61590,8,-43.8125,13.6875,0
61600,4.8125,-43.875,12.5625,0
61620,3.8125,-43.1875,10.25,0
61640,8.625,-42.9375,8.1875,0
61660,10.25,-41.8125,6.5625,0
61680,7.25,-42.375,5.125,0
61700,4.9375,-41.875,4.5,0
61720,5.3125,-42.125,2.9375,0
61740,0.75,-43.75,3.625,0
61760,-2,-44.1875,1.375,0
61780,-0.3125,-44.5,-3.375,0
61800,0.4375,-46.125,-6.125,0
61820,-1.1875,-46.375,-8.9375,0
61840,0.1875,-46.1875,-15.75,0
61860,0.75,-47.625,-21.3125,0
61880,-2.75,-48,-22.25,0
61900,-2.25,-47.25,-24.75,0
61920,0.875,-46.75,-27.3125,0
61930,1,-48.0625,-28.5,0
61950,-2.0625,-49.125,-29,0
61970,-6.25,-46,-29,0
61990,-8.9375,-44.8125,-28.3125,0
62010,-11.875,-43.8125,-28.6875,0
62030,-13.0625,-41.4375,-31.25,0
62050,-12.25,-36.6875,-33,0
62070,-11.25,-32.1875,-35.8125,0
62090,-7.9375,-26.125,-38.6875,0
62110,-6.6875,-21.8125,-40.375,0
62130,-8.4375,-17.6875,-42.5,0
62150,-6.875,-12.6875,-41.9375,0
62170,-9.5,-9.6875,-37.6875,0
62190,-14.75,-5.6875,-34.6875,1001
62210,-10.9375,-4.125,-34.9375,0
62230,-7.6875,-2.125,-32.8125,0
62250,-8.75,0.875,-27.9375,0
62270,-10.6875,4.75,-21.75,0
62290,-10.5625,8.25,-14.6875,0
62310,-10.625,10.4375,-9.375,0
62330,-8.125,11.875,-6.5625,0
62350,-6.5,12.5625,-4,0
62370,-6.4375,14.125,0.0625,0
62390,-6.3125,15.9375,4.25,0
62410,-4,16.625,6.625,0
62430,-1.5,17.1875,6.375,0
62450,0.4375,16.9375,6.625,0
62470,-0.125,16.125,7.25,0
62490,0.3125,14.6875,7.4375,0
62510,0.9375,12.625,8,0
62530,2.6875,10.125,6.375,0
62550,2.9375,7.375,4.1875,0
62570,1.6875,4,2.75,0
62590,1.25,0.5625,1.8125,0
62610,0.5,-0.6875,1.875,0
62630,-0.0625,-1.375,2.1875,0
62650,0.375,-1.8125,0.6875,0
62670,2.6875,-0.125,-0.875,0
62690,3.4375,2.875,-0.5625,0
62710,0.375,7.375,0.75,0
62730,-3.25,12.875,1.5,0
62750,0.25,17.8125,1.0625,0
62770,6.6875,23,4.625,0
62790,5.5625,31.25,14.1875,0
62810,6,45.625,25.4375,0
62830,12.4375,59.8125,34.6875,0
62850,17.125,68.5,47.625,0
62870,16.8125,81.75,62.75,0
62890,18.3125,91.5,76.75,0
62910,23.8125,98.375,86.9375,0
62930,17.1875,106,96,0
62960,31.625,113.625,100.125,0
62980,28.3125,107.062,102.812,0
63000,21.625,95.5625,95.6875,0
63000,21.125,86.0625,85.8125,0
63020,19.25,78.1875,81.8125,0
63040,14.4375,67.6875,72.25,0
63060,11.375,56.75,59.5,0
63080,13.3125,53.5,54.9375,0
63100,14.0625,45.75,53.375,0
63120,14,38.1875,45,0
63140,13.3125,31.75,38.9375,0
63160,10.6875,24.875,36.6875,0
63180,7.1875,18.5,33.4375,0
63200,3.75,13.6875,26.3125,0
63220,-0.25,8.5625,19.6875,0
63240,-2.875,6,16.375,0
63260,0,3.375,16.4375,0
63280,0.25,2.6875,18.1875,0
63300,1.25,4.8125,18.3125,0
63320,-0.125,5.0625,16.6875,0
63340,-3.1875,3.4375,16.4375,0
63360,-1.9375,-0.125,14.9375,0
63380,0.4375,-4.875,11.0625,0
63400,1.5625,-10.25,6.875,0
63420,2.5625,-17.625,1.25,0
63440,6.1875,-24.3125,-3.875,1000
63460,7.9375,-32.3125,-6.8125,0
63480,8.875,-38.0625,-8.0625,0
63500,7.5625,-42.5625,-10.125,0
63520,3.9375,-45.25,-11.6875,0
63540,4,-46.3125,-13.3125,0
63560,5.4375,-50,-13,0
63580,3.75,-54.5,-14.625,0
63600,0.8125,-55.25,-14.9375,0
63620,-4.4375,-54.6875,-14.3125,0
63640,-7.3125,-55.125,-16.625,0
63660,-6,-53.8125,-21.25,0
63680,-5.5625,-51.75,-21.5625,0
63700,-7.875,-51.125,-21.375,0
63720,-10.25,-48,-24.9375,0
63740,-12.625,-44.9375,-25.5,0
63760,-13.9375,-40.625,-27.4375,0
63800,-19,-32.0625,-33.0625,0
63820,-23.5,-29.375,-34.25,0
63840,-28.1875,-21.6875,-36.875,0
63860,-29.625,-19.1875,-38.625,0
63870,-29,-14.4375,-40.5625,0
63890,-31.125,-9.0625,-41.8125,0
63910,-34.875,-6.0625,-42.5625,0
63930,-38.8125,-1.9375,-43.375,0
63950,-39.5,2.4375,-44.0625,0
63970,-40.375,6.875,-43.125,0
63990,-40.3125,10.8125,-42,0
64020,-43.125,17.4375,-40.4375,0
64040,-43.625,20.3125,-40.9375,0
64060,-44.625,22.125,-39.375,0
64080,-44.0625,22.5,-37.4375,0
64100,-42.4375,22.1875,-37,0
64120,-41.6875,22.625,-35.5,0
64130,-42.125,23,-34.4375,0
64150,-41.5625,23.25,-33.625,0
64170,-39,25.5625,-32.9375,0
64190,-37.3125,27.5,-31.8125,0
64210,-36.125,29.8125,-31.125,0
64230,-34.4375,32.6875,-30.625,0
64250,-32.75,35.0625,-29.0625,0
64270,-29.5625,36,-27.125,0
64290,-26.75,37.3125,-25.4375,0
64310,-25.9375,38.25,-24.1875,0
64330,-23.6875,39.625,-23.125,0
64350,-19.75,41.125,-20.875,0
64370,-16.875,43,-18.8125,0
64390,-13.125,43.6875,-17.875,0
64410,-9.5625,43.3125,-16.4375,0
64430,-9.125,43.5625,-14,0
64450,-7.75,41.25,-11.8125,0
64470,-4,41.25,-10.6875,0
64490,-0.25,40.375,-7.25,0
64510,-0.9375,37.625,-4.6875,0
64530,-0.5,37.4375,-5,0
64550,1.3125,35.5625,-2.9375,0
64570,1.5,34.25,0,0
64590,1.5,33.4375,2.25,0
64610,2.0625,32.3125,3.8125,0
64630,0.8125,33,6.3125,0
64650,0.625,33.625,7.5,0
64670,1.5,33.5,6.8125,0
64690,2.4375,33,6.0625,0
64710,1.5625,32.375,7.1875,0
64730,1.3125,30.8125,9.375,0
64750,0.5,31.4375,8.125,0
64770,0.25,32.125,5.625,0
64790,2.375,30.375,5.5625,0
64810,2.3125,28.5625,5.6875,0
64830,3.125,28.875,6.4375,0
64850,2.6875,28.0625,7.625,0
64870,0.5625,27.5625,6.125,0
64890,-0.625,27.375,4.6875,0
64910,-1.9375,26.0625,6.375,0
64930,-0.8125,26,6.5,0
64950,0.9375,27.0625,3.5625,0
64970,0,26.375,5.25,0
64990,-0.3125,25.75,6.75,0
65010,-1.75,24.625,6.125,0
65030,-1.6875,23.375,6.4375,0
65050,0.1875,22.1875,7.125,0
65070,2.1875,20.6875,7.375,0
65090,1.3125,18.8125,7.625,0
65110,1.1875,16.375,8.3125,0
65130,1.6875,14.125,8.25,0
65150,1.5,12,8.3125,0
65170,2.75,10.5625,8.4375,0
65190,5.25,8.9375,9.375,0
65210,6.25,6.375,10.0625,0
65230,4.875,4,11.6875,0
65250,5,2.6875,12.4375,0
65270,6.6875,2.0625,13.375,0
65290,7.625,0.8125,14.75,0
65310,7.375,-0.125,15.5625,0
65330,7.1875,-0.875,16.0625,0
65350,6.6875,-1.375,17.0625,0
65370,5.9375,-1.875,17.25,0
65390,5.625,-2.5625,17.75,0
65410,5.9375,-2.5625,18.25,0
65430,4.6875,-3.6875,18.5625,0
65450,5.125,-4.5625,17.5625,0
65470,6.25,-5.4375,17.8125,0
65490,5,-6.3125,18.5,0
65510,5.125,-7.75,18.4375,0
65530,6.1875,-8.75,19.25,0
65550,6.875,-9.8125,20.375,0
65570,5.25,-11.9375,22.1875,0
65590,6.6875,-13.625,23,0
65610,8.0625,-14.3125,23.4375,0
65630,8.3125,-14.1875,25.3125,0
65650,6.4375,-13.4375,25.6875,0
65670,5.9375,-14.25,25.875,0
65690,4.8125,-15.6875,26.3125,0
65710,6.25,-15.125,27.4375,0
65730,8.1875,-15.25,27.875,0
65750,8.4375,-13.9375,27.875,0
65770,8.5,-13.625,28,0
65790,7.875,-12.5,29,0
65810,9.125,-12.0625,28.9375,0
65830,9.4375,-12.875,28,0
65850,9.5,-14.625,28.5,0
65870,10.1875,-15,29,0
65890,11.75,-14.875,28.0625,0
65910,11.625,-16.1875,27.4375,0
65930,12.125,-17.3125,28.0625,0
65950,13.0625,-18.75,27.1875,0
65970,13.875,-19.9375,26.4375,0
65990,14.5625,-20.25,27.875,0
66010,13.8125,-20.875,28.125,0
66030,14.75,-22.0625,27.0625,0
66050,15.9375,-23.8125,26.3125,0
66070,14.1875,-24.8125,27.0625,0
66090,13.3125,-25.4375,26.1875,0
66110,14.6875,-26.3125,24.875,0
66130,15.25,-26.9375,24.4375,0
66150,15.25,-27.1875,24.25,0
66170,15.5,-29.1875,23.75,0
66190,14.75,-31.6875,23.25,0
66210,13.0625,-32.75,23.5,0
66230,12.25,-34.125,23.75,0
66250,12.375,-35.75,22.875,0
66270,14.9375,-37.125,22.5,0
66290,14.5625,-38.25,21.75,0
66310,15.6875,-39.5,20.125,0
66330,13.375,-41.1875,19.625,0
66350,11.25,-42.3125,18.4375,0
66370,9.9375,-44.125,18.125,0
66390,7,-45.1875,19.4375,0
66410,6.25,-44.5,18.3125,0
66430,4.125,-44.4375,14.5625,0
66440,3.5625,-45.1875,11.4375,0
66460,3.5625,-44.5625,8.4375,0
66480,4.375,-44.3125,5.0625,0
66500,4.375,-45.0625,1.8125,0
66520,1.3125,-44.6875,0.8125,0
66540,0.375,-44.3125,-1.8125,0
66560,1.625,-45.1875,-5.375,0
66580,2.6875,-44.6875,-7.5625,0
66600,0.6875,-42.125,-6.125,0
66620,0.625,-41.25,-7,0
66640,-3.75,-39.0625,-8.75,0
66660,-6.6875,-36.9375,-8.4375,0
66680,-7.6875,-35.8125,-7.5625,0
66700,-6.6875,-34.25,-10.875,0
66720,-4.1875,-34.1875,-16,0
66740,-5.625,-34.25,-16.8125,0
66760,-9.875,-34.0625,-16.3125,0
66780,-11.3125,-32.3125,-19.5625,0
66800,-11.875,-31.6875,-20.1875,0
66820,-10.9375,-31.8125,-20.1875,0
66840,-12.6875,-30.875,-23.0625,0
66860,-13.0625,-29.5625,-24.4375,0
66880,-14,-28,-24.3125,0
66900,-17.0625,-26.625,-23.625,0
66920,-20,-24.4375,-24.9375,0
66930,-19.375,-21.25,-25.875,0
66980,-23.375,-11,-28.3125,0
67000,-24.5,-10.625,-27.8125,0
67020,-26.0625,-9.25,-27.5625,0
67040,-27.875,-7.6875,-27.1875,0
67060,-28.875,-4.9375,-26.6875,0
67080,-29,-2.1875,-26.25,0
67100,-31.0625,-0.5625,-25.5625,0
67120,-33.25,1.25,-24.9375,0
67140,-33.75,4.125,-26.625,0
67160,-34.75,6.125,-27.125,0
67180,-35.1875,7.5,-27.8125,0
67190,-34.8125,9.1875,-28.6875,0
67210,-35.0625,10.9375,-29.4375,0
67230,-36.25,12.5625,-29.4375,0
67250,-36.4375,16,-29.375,0
67270,-36.375,18.0625,-28.8125,0
67290,-36.1875,19.9375,-28.3125,0
67310,-35.5,22.4375,-28.375,0
67330,-34.375,24.25,-28.9375,0
67350,-34,26.125,-28.625,0
67370,-34.625,27.625,-27.5,0
67390,-34.3125,29.4375,-27.625,0
67410,-32.5625,30.5,-28.0625,0
67430,-31.25,31.3125,-27,0
67450,-30.25,33.375,-26.0625,0
67470,-28.6875,34.375,-25.3125,0
67490,-27.75,34.0625,-24.75,0
67510,-27.125,33.9375,-24.0625,0
67530,-25.3125,35.4375,-23.625,0
67550,-23.3125,37.5,-23.375,0
67570,-22.625,37.5625,-21.625,0
67590,-23.25,37.6875,-19.5625,0
67610,-22.3125,38,-19.625,0
67620,-17.5625,36.5,-19.25,0
67640,-17.8125,36.875,-18.6875,0
67640,-16.625,35.5,-16.75,0
67660,-16.25,35.1875,-15.8125,0
67680,-16.125,34.5,-15.375,0
67700,-14.5,34.5,-14.9375,0
67720,-14.5,33.4375,-11.9375,0
67740,-13.625,34.9375,-8.875,0
67760,-11.8125,37.5625,-6.8125,0
67780,-10.9375,39,-5.375,0
67800,-11.0625,40.3125,-5.1875,0
67820,-9.6875,40.875,-3.625,0
67840,-8.3125,38.625,-2.0625,0
67860,-7.375,37,-1.375,0
67880,-7.375,37.0625,-1.3125,0
67900,-6.0625,33.8125,1.5625,0
67920,-7.3125,31.625,3.375,0
67940,-5.375,29.8125,2.8125,0
67960,-3.6875,25.8125,4.1875,0
67980,-3.4375,24.1875,7.0625,0
68000,-1,24.25,9.5,0
68020,-0.625,24.0625,11.5,0
68040,-0.375,22.9375,11.875,0
68060,-2.625,20.4375,13.625,0
68080,-2.125,18,15,0
68100,1.8125,16.8125,15,0
68120,3.75,15,15.5,0
68140,3.8125,13.5625,16.1875,0
68160,4.1875,13.6875,17.3125,0
68180,3.0625,13.1875,19.75,0
68200,5.25,13.3125,18.8125,0
68220,8.25,12.9375,17.375,0
68240,6.1875,12.875,21.125,0
68260,4.125,14.0625,24.875,0
68280,5.625,13.875,22.6875,0
68300,6.125,11.125,21.4375,0
68320,2.625,7.3125,23.625,0
68340,6.75,5.4375,22.875,0
68360,8.5,3.5,21.875,0
68380,5.75,1.5625,21.9375,0
68400,6.375,1.1875,21.375,0
68420,8.8125,0.625,21.6875,0
68440,7.4375,-0.625,21.8125,0
68460,7.0625,0,20.625,0
68480,7.25,1.0625,22.875,0
68500,3.875,1.0625,24.375,0
68520,3.9375,1.75,22.6875,0
68540,6.5,0.625,23.3125,0
68560,7.125,0.0625,24.8125,0
68580,7,1.75,26.1875,0
68600,7.0625,2.125,25.9375,0
68620,8.875,-0.1875,25.5,0
68640,8.75,-0.9375,27.4375,0
68660,10.1875,-0.75,27.875,0
68680,10.8125,-2.0625,29.3125,0
68700,7.5625,-3.125,30,0
68720,6.5,-4.4375,29.9375,0
68740,8.8125,-6.8125,28.875,0
68760,11.9375,-8.9375,28.8125,0
68780,10.875,-11.75,29.375,0
68800,10.125,-13.625,28.75,0
68820,10.25,-16.25,28.875,0
68840,12.0625,-18.8125,29.5,0
68860,12.125,-20.8125,29.375,0
68880,12.1875,-22.25,28.5625,0
68900,12.125,-22.5,27.9375,0
68920,13,-23.6875,27.9375,0
68940,13.125,-24.75,28.125,0
68960,15.125,-24.1875,28.375,0
68980,14.625,-25.4375,30,0
69000,13.4375,-26.3125,29.8125,0
69020,14.5625,-27.5,29.875,0
69040,15.8125,-28.9375,30.125,0
69060,15.6875,-30.5625,29.5625,0
69070,16.9375,-32.5625,28.6875,0
69090,16.3125,-35.5625,29.25,0
69110,15.1875,-38.0625,27.875,0
69130,16.375,-39.8125,26.3125,0
69150,16.6875,-41.0625,25.3125,0
69170,15.125,-42.75,22.125,0
69190,16.75,-43.5625,18.75,0
69210,18.8125,-45.25,15.625,0
69230,19.875,-47.3125,14.125,0
69250,17.9375,-49.5625,11.9375,0
69270,18.5625,-50.5625,9.6875,0
69290,18.1875,-51.875,10.3125,0
69310,14.25,-52.1875,7.5,0
69330,10.5625,-52.0625,3.375,0
69350,8.75,-52.75,0.625,0
69370,8.75,-52.625,-3,0
69390,5.0625,-52.875,-5.375,0
69410,0.625,-52.1875,-8.9375,0
69430,-1,-52,-12.6875,0
69450,-2.125,-53.1875,-15.5625,0
69470,-3.5625,-53.375,-17.375,0
69490,-2.875,-51.75,-19.9375,0
69510,-3.8125,-50.75,-21.25,0
69530,-7.9375,-49.5,-21,0
69550,-10.1875,-48.3125,-22.0625,0
69570,-9.875,-47.0625,-20.875,0
69590,-10.375,-45.8125,-21.8125,0
69610,-10.9375,-43.125,-23.75,0
69630,-11.625,-41.4375,-23.875,0
69650,-13.875,-39.25,-22.25,0
69670,-17.3125,-36.875,-23.125,0
69690,-16.75,-34.625,-26.0625,0
69710,-17.5625,-32.125,-26.375,0
69730,-20.6875,-30.375,-25.625,0
69750,-22.4375,-27.75,-26.5,0
69770,-24.1875,-25.75,-27.1875,0
69790,-26,-22.0625,-26.1875,0
69810,-26.4375,-18.5625,-29,0
69830,-27.5625,-15.375,-29.625,0
69850,-29.9375,-11.75,-29.125,0
69870,-31.6875,-8.125,-28.8125,0
69890,-30.375,-5.375,-29.3125,0
69910,-28.625,-2.4375,-30,0
69930,-30.5625,0.6875,-29.125,0
69950,-31.4375,4.0625,-29,0
69970,-32.4375,6.875,-28.5625,0
69990,-33.8125,9.0625,-28.375,0
70010,-32.75,10.6875,-28.5625,0
70030,-31.8125,12.4375,-28.5625,0
70050,-32.5625,13.3125,-28.75,0
70070,-31.75,14.3125,-29.8125,0
70090,-31.1875,15.1875,-30.5,0
70110,-30.375,16.5,-30.4375,0
70130,-30.1875,17.75,-30.5,0
70150,-30.75,19.0625,-30.8125,0
70170,-30.25,19.4375,-30.75,0
70190,-29.4375,18.4375,-29.875,0
70210,-29.5625,18.5625,-30,0
70230,-29.3125,19.125,-28.6875,0
70250,-29.0625,19.9375,-26.375,0
70270,-28.8125,22.5625,-24.75,0
70290,-28.5,26.125,-23.5625,0
70310,-26.75,27.25,-22.0625,0
70330,-26.8125,29.375,-19.6875,0
70350,-23.9375,33.1875,-17.4375,0
70370,-21.0625,36.3125,-15.125,0
70390,-17.8125,38.75,-13.125,0
70410,-14.5625,39.875,-10.25,0
70430,-15.0625,41.5,-5.8125,0
70450,-15.5625,44.25,-2.875,0
70470,-14.75,45.625,0.3125,0
70490,-14.0625,47.75,4.25,0
70510,-12.1875,48.5,7.6875,0
70530,-10.625,47.0625,8.4375,0
70550,-8.6875,45.5,9.875,0
70570,-10.4375,44.375,11.3125,0
70590,-10.3125,44.6875,13.5,0
70610,-7.375,44.5625,13.875,0
70630,-5,42.3125,12.0625,0
70650,-6.625,41.4375,12.25,0
70670,-12.1875,41.8125,13.1875,0
70690,-12.125,41.625,12.5625,0
70710,-9.25,41,11.8125,0
70730,-7.6875,40.8125,11.5,0
70750,-5.5625,40,9.8125,0
70770,-4.9375,39.6875,9.375,0
70790,-7.3125,40.5625,13.25,0
70810,-13.125,42.125,14.3125,0
70830,-12.75,41.375,8.5,0
70850,-6.75,39.6875,3.8125,0
70870,-0.625,34.8125,3.5,0
70890,5.1875,29.4375,1.25,0
70910,8.0625,24.5,2.375,0
70930,4.3125,20.375,6.3125,0
70950,4.75,18,8.3125,0
70970,4.1875,14.9375,11.625,0
70990,2.25,13.0625,12.875,0
71010,4.125,11.6875,13.0625,0
71030,4.0625,9.5,17.4375,0
71050,1.8125,8.125,16.8125,0
71070,4.1875,7.25,16.375,0
71090,2.25,4.8125,19.375,0
71110,1.5,3.8125,21.8125,0
71130,3.9375,4.1875,22.375,0
71150,4.4375,0.625,23.1875,0
71170,5.4375,-1.625,24.0625,0
71190,4.6875,-3.3125,25,0
71210,4,-4.75,26.375,0
71230,4.875,-6.0625,26.6875,0
71250,3.125,-6.3125,27,0
71270,2.8125,-6.75,28.4375,0
71290,3.5,-6.875,27.6875,0
71310,4.875,-7.1875,28.4375,0
71330,6.0625,-6.3125,27.125,0
71350,5.6875,-5.6875,26.9375,0
71370,-0.125,-4.3125,26.9375,0
71390,3.125,-1.8125,24.125,0
71410,10.5,-2.75,22.5625,0
71430,3.375,-5.25,21.8125,0
71450,2,-1.6875,19.4375,0
71470,6.8125,-2.9375,20.3125,0
71490,5.5625,-5.75,22.25,0
71510,7.5,-6.5625,21.8125,0
71530,10.25,-9.375,23.8125,0
71550,8.625,-11,24.9375,0
71570,5.4375,-12.75,25.375,0
71590,3.8125,-13.3125,27.1875,0
71610,4.75,-14.25,27.75,0
71630,6.1875,-16.0625,28,0
71650,4.5625,-17.125,29,0
71670,4.25,-16.375,28.4375,0
71690,2.6875,-17.9375,27.6875,0
71710,4.4375,-20.375,27.6875,0
71730,4.625,-22.5625,26.5625,0
71750,5.5625,-24.25,25.5,0
71770,6.8125,-27.1875,25.1875,0
71790,6.75,-29.4375,25.4375,0
71810,5,-30.875,24.875,0
71830,5.4375,-31.8125,23.75,0
71850,5.3125,-34.0625,23.5625,0
71870,5.5625,-35.4375,22,0
71890,7.4375,-36.0625,19.9375,0
71910,6.25,-36.6875,16.8125,0
71930,5,-39.4375,16.5625,0
71950,1.125,-42.75,14.5625,0
71970,1.75,-44.4375,11.6875,0
71990,5.1875,-45.625,10.25,0
72010,6.125,-46.1875,7.9375,0
72030,4.25,-46.375,4.8125,0
72050,1.25,-46.625,2,0
72070,2.0625,-46.4375,0.625,0
72090,4.5625,-47.25,-0.6875,0
72110,3.375,-48.75,-3.1875,0
72130,0.375,-50.1875,-5.0625,0
72150,0.625,-49.8125,-6.25,0
72170,2.6875,-49.875,-8.3125,0
72190,0.25,-50,-8.4375,0
72210,-2.25,-49.6875,-8.25,0
72230,-0.125,-49.1875,-10.25,0
72250,-0.9375,-49.875,-12.3125,0
72270,-3.5,-50.625,-11.5625,0
72290,-2.625,-49.3125,-13.4375,0
72310,-1.8125,-47.8125,-15.625,0
72330,-1.75,-47.3125,-18.875,0
72350,-2.8125,-46.3125,-19.375,0
72370,-6.5625,-41.9375,-18.5625,0
72390,-2.6875,-43.6875,-20.5,0
72410,-0.0625,-39.4375,-23.625,0
72430,-0.125,-38.5625,-26.25,0
72450,-3.125,-36.0625,-26.25,0
72470,-5.9375,-31.8125,-27.6875,0
72480,-6.0625,-30.3125,-26.875,0
72500,-6.25,-28.75,-27.5,0
72520,-5.5625,-25.9375,-25.1875,0
72540,-6.1875,-24.9375,-25.625,0
72560,-6.6875,-24.125,-25.5625,0
72580,-8.0625,-21.125,-21.4375,0
72600,-9.3125,-18.4375,-19.0625,0
72620,-9,-17.5,-17.125,0
72640,-9.4375,-15.4375,-12.9375,0
72660,-8.625,-12,-8.875,1001
72680,-6.75,-8.5625,-7.1875,0
72700,-6.25,-4.625,-3.375,0
72720,-5.375,-1.75,-1.75,0
72740,-5.875,0.25,0.3125,0
72760,-3.5,2.125,0,0
72780,-2.1875,3.8125,-0.9375,0
72800,-2.1875,5.8125,-2.5625,0
72820,-2.5,6.6875,-2.4375,0
72840,-1,6.4375,-2.875,0
72860,-0.25,6.4375,-2.5,0
72880,1.25,7.5,-1.4375,0
72900,1.1875,8.0625,-0.3125,0
72920,0.3125,8.25,0.8125,0
72940,2.625,9.25,2.5,0
72960,2.5625,13.625,3.5625,0
72980,2.375,20.4375,8.375,0
73000,1.8125,29.3125,16.6875,0
73020,4.0625,36.25,26.375,0
73040,6.25,48.25,34.25,0
73060,12.3125,61.8125,40.4375,0
73080,11.3125,75.25,50.25,0
73100,19.3125,82.125,58.1875,0
73120,19.0625,90.75,62.75,0
73140,23.5625,102.438,63.6875,0
73160,23.875,112.562,66.8125,0
73180,29.8125,123.312,69.625,0
73200,30.5,126.5,77.9375,0
73230,36.125,131.938,76.125,0
73250,47.1875,126.5,72.625,0
73270,35.625,113.438,81.25,0
73290,28.1875,100.5,83.0625,0
73310,29.4375,87.125,81.1875,0
73330,28.75,72.6875,74.375,0
73350,24.8125,58.25,55.125,0
73370,20.5,42.8125,37.375,0
73390,20.4375,30.4375,31.9375,0
73410,17.875,20.4375,28.375,0
73430,15.6875,12.9375,14.4375,1000
73450,16.6875,6.375,3.375,0
73470,0.1875,4.875,2.0625,0
73490,-13.0625,11.3125,4.25,0
73510,-15.0625,13.875,2.0625,0
73530,-7.5,15,10.6875,0
73550,4.125,14.3125,18.5625,0
73570,4.0625,12.6875,20.5625,0
73590,-1.3125,7.6875,20.8125,0
73610,4.1875,-5.0625,14.4375,0
73630,2.5,-18.125,15.25,0
73650,10,-26.625,15.4375,0
73670,17.4375,-36.5,9.5,0
73690,18.25,-40.125,1.3125,0
73710,14.9375,-44.25,-4.0625,0
73730,8.875,-47.875,-3.4375,0
73750,5.5,-48.6875,-1.4375,0
73770,9.0625,-51,-4.5,0
73790,7.25,-51.3125,-5.25,0
73810,3.875,-50.4375,-4.25,0
73830,1,-49.375,-4.375,0
73850,-2.5625,-48.875,-4.25,0
73870,-3.5625,-47.0625,-5.1875,0
73890,-1.25,-46.5,-9,0
73910,-3.125,-45.6875,-8.0625,0
73930,-5.0625,-43.6875,-9.3125,0
73950,-6.0625,-40.375,-12.6875,0
73970,-5.5,-37.8125,-12.375,0
73990,-4.1875,-36.4375,-13.9375,0
74010,-6.0625,-36.4375,-17.0625,0
74030,-9.5,-34.75,-17.625,0
74050,-11,-32.8125,-18.9375,0
74070,-9.5,-29.5,-22.875,0
74090,-8.875,-26.8125,-24.5,0
74110,-7.5,-22.1875,-26.0625,0
74130,-8.625,-20.9375,-25.75,0
74150,-11.4375,-19.1875,-25.875,0
74170,-13.625,-17.1875,-27.25,0
74190,-15.4375,-15.625,-27.5,0
74210,-17.3125,-14.375,-28.1875,0
74230,-20.1875,-13.9375,-27.375,0
74250,-22.25,-9.875,-28.3125,0
74270,-22.875,-7.5625,-29.6875,0
74290,-24.1875,-3.9375,-31.875,0
74310,-26.125,-2.1875,-32.375,0
74330,-27.4375,1.625,-33.4375,0
74350,-29.875,4.8125,-33.5,0
74370,-31.375,9.125,-34.1875,0
74390,-32.1875,12.625,-35.8125,0
74410,-33.4375,14.6875,-36,0
74430,-33.625,17.3125,-35.875,0
74440,-34.5,20.5625,-35.9375,0
74460,-37.25,22.875,-35,0
74480,-39.3125,26,-35.125,0
74500,-38.5625,28.4375,-37.3125,0
74530,-32.875,28.3125,-39.25,0
74570,-30.4375,27.125,-34.0625,0
74590,-25.875,26.125,-28.9375,0
74610,-24,27.1875,-27,0
74630,-23.8125,28.375,-25.625,0
74650,-23.25,28.5625,-25.1875,0
74670,-20.875,29.3125,-25.625,0
74690,-19.5625,30,-25.5625,0
74710,-20.3125,29.625,-26.0625,0
74730,-19.75,29.5625,-26.75,0
74750,-17.125,27.9375,-26.25,0
74770,-15.375,27.75,-26.375,0
74790,-14.3125,27.5,-26.625,0
74810,-11.75,27.0625,-24.4375,0
74830,-10.6875,28.3125,-21.4375,0
74850,-11.125,29.5,-18.6875,0
74870,-9.8125,30.625,-17.25,0
74890,-7.1875,33.375,-15.0625,0
74910,-7.5,36.4375,-12.6875,0
74930,-8.5,37.9375,-9.4375,0
74950,-6.125,39.125,-7.375,0
74970,-5.6875,39.0625,-3.4375,0
74990,-6.3125,39.75,-1.75,0
75010,-6.375,39.6875,-1.5625,0
75030,-3.1875,38.375,-0.25,0
75050,-2.1875,37.875,0.625,0
75070,-2.5625,36.5625,2.0625,0
75090,-2.625,36.4375,2.125,0
75110,-1.5625,34.75,4.3125,0
75130,-2.1875,34.25,6.5625,0
75150,-3.625,35.5,6.875,0
75170,-1.6875,37,6.8125,0
75190,0.25,37.875,8.6875,0
75210,-1.5,39.875,11.375,0
75230,-3.0625,41.9375,10.25,0
75250,-3.25,42.0625,9.9375,0
75270,-2.625,41.625,10.25,0
75290,-2.8125,40.6875,10.25,0
75310,-0.625,38.875,10.0625,0
75330,-0.5,37.8125,10.125,0
75350,-2.8125,35.4375,9.125,0
75370,-3.625,30.375,10.5625,0
75390,-0.6875,26.0625,10.1875,0
75410,1.75,23,7.75,0
75430,0.1875,19.3125,10.0625,0
75450,-0.0625,14.5,11.375,0
75470,1.625,10.9375,9.5,0
75490,2.0625,8.875,9.4375,0
75510,1.3125,6,11.8125,0
75530,1.5625,4.625,12.0625,0
75550,2.75,4,11.875,0
75570,1.625,3.125,14.75,0
75590,3.75,4.4375,15.625,0
75610,5.5,3.5625,15.5625,0
75630,3.125,1.25,18.3125,0
75650,2.5,0.1875,19.5625,0
75670,5.0625,0,18.6875,0
75690,7.8125,-0.4375,19.5625,0
75710,7.3125,-1.125,21.3125,0
75730,5.4375,-2.4375,21.25,0
75750,4.1875,-3.125,21.1875,0
75770,4.9375,-3.875,21.4375,0
75790,6.5,-4.625,21,0
75810,8.6875,-4.25,20.875,0
75830,8.875,-4.8125,21.125,0
75850,7,-6.25,21.6875,0
75870,8.9375,-8.0625,21.5,0
75890,12.375,-8.5,21.9375,0
75910,13.3125,-8.8125,22.375,0
75930,14.0625,-9.8125,24,0
75950,13.5625,-10.3125,25,0
75970,10.6875,-10.25,26.3125,0
75990,8.9375,-8.625,25.8125,0
76010,9.5625,-10.5625,26.375,0
76030,9.1875,-12.25,27.5,0
76050,11.25,-13.625,27.125,0
76070,11.1875,-15.75,25.8125,0
76090,10.125,-15.875,25.3125,0
76110,6.875,-16.5625,27.625,0
76130,4.75,-18.75,29.1875,0
76150,6.75,-22.1875,28.8125,0
76170,9.625,-25.4375,28.6875,0
76190,12.125,-27.8125,29.8125,0
76210,11.625,-31.5,31.0625,0
76230,11.5,-34.4375,31.4375,0
76250,11.25,-36.8125,31.25,0
76270,14,-38.5625,31.5,0
76290,16.75,-41.1875,32.1875,0
76310,15.75,-41.625,32.9375,0
76330,13.125,-42.125,33,0
76350,14.875,-42.75,33.3125,0
76370,14.875,-43.4375,33.5,0
76390,13.375,-42.0625,32.125,0
76410,15.0625,-41,31.75,0
76430,13,-41.5,31.9375,0
76450,11.3125,-41.5,30.125,0
76470,12,-40.5,26.5,0
76490,14.3125,-39.75,24.8125,0
76510,13.6875,-39.6875,24.3125,0
76530,14.625,-37.6875,22.125,0
76550,13.875,-36.625,21.125,0
76570,11.6875,-37.625,20.75,0
76590,11,-38.5,20.6875,0
76610,12.875,-38.375,18.5625,0
76630,13.125,-38.875,18.25,0
76650,10.375,-39.875,19.4375,0
76670,9.625,-41.3125,16.9375,0
76700,8.4375,-42.625,13.4375,0
76720,5.1875,-44.5625,12.25,0
76760,7,-48.6875,3.6875,0
76790,1.6875,-48.9375,-0.9375,0
76820,0.125,-47,-4.9375,0
76840,-2.125,-46.625,-2.8125,0
76860,-3.375,-45.8125,-5.125,0
76880,-3.625,-45.625,-7.8125,0
76900,-3.25,-45.375,-9,0
76920,-3.0625,-43.25,-10.4375,0
76940,-4.5,-41.75,-12.25,0
76960,-6.8125,-39.75,-14.25,0
76980,-6.3125,-37.1875,-16.4375,0
77000,-7.25,-35.625,-17.6875,0
77020,-6.8125,-32.6875,-20.125,0
77040,-9,-31.25,-22.125,0
77060,-11.875,-29.3125,-22.25,0
77080,-12.25,-26.4375,-24.1875,0
77100,-13.75,-23.5,-26.125,0
77120,-16.8125,-21.75,-26.75,0
77140,-17.875,-21,-26.6875,0
77160,-19.6875,-19,-28.75,0
77180,-23.3125,-16.875,-29.5,0
77200,-25.375,-14.6875,-30.75,0
77240,-25.125,-10.3125,-32.25,0
77260,-24.6875,-7.875,-31.25,0
77280,-26.0625,-6.1875,-31.5625,0
77300,-26.875,-4.6875,-32,0
77320,-28,-2.6875,-31.625,0
77340,-30.75,-2.0625,-30,0
77360,-31.8125,-0.125,-29.9375,0
77380,-30.5625,0.75,-30.625,0
77400,-28.875,1.75,-32,0
77420,-28.25,2.6875,-33.125,0
77440,-30.625,4.8125,-33.125,0
77460,-34.6875,7.9375,-31.75,0
77480,-35.25,11.125,-31.8125,0
77500,-33.25,14,-32.4375,0
77520,-32.5625,16.875,-32.5,0
77540,-32.9375,19.125,-32.25,0
77560,-33.3125,21.625,-32.25,0
77580,-33.8125,23.8125,-32.1875,0
77600,-34.375,24.4375,-32.1875,0
77620,-34.3125,25.4375,-32.5,0
77640,-33.25,25.6875,-33,0
77660,-32.375,26.1875,-33.6875,0
77680,-31.25,25.75,-32.5,0
77700,-32.4375,24.6875,-31.6875,0
77720,-31.875,24.8125,-32.5625,0
77730,-30.625,24.875,-31.9375,0
77750,-29.4375,23.6875,-29.875,0
77770,-28.5,23.625,-29.3125,0
77790,-28.0625,24.75,-28.75,0
77810,-28.625,24.75,-26.8125,0
77830,-27.8125,25.5,-26.5,0
77850,-24.6875,26.75,-26.1875,0
77870,-22.9375,28.125,-24,0
77890,-23,27.4375,-21.6875,0
77910,-22.5,29.4375,-21.1875,0
77930,-20.625,30.8125,-19.3125,0
77950,-18.9375,30.8125,-16.375,0
77970,-17.5,30.625,-15.5625,0
77990,-15.75,30.625,-14.625,0
78010,-15.5625,31.25,-12.5625,0
78030,-14.75,32.0625,-11.125,0
78050,-11.625,31.3125,-9.875,0
78070,-10.375,29.8125,-9.625,0
78090,-9.6875,28.6875,-10,0
78110,-8.75,28.5,-9.125,0
78130,-7.9375,27.375,-5.75,0
78150,-9.0625,27.75,-4.625,0
78170,-8.25,27.4375,-4.625,0
78190,-7.4375,26.375,-2.1875,0
78210,-7.125,26.25,0.375,0
78230,-8.5,26.75,1.625,0
78250,-8.375,26.25,2.0625,0
78270,-6.1875,27.1875,2.375,0
78290,-4.375,27.4375,3.875,0
78310,-4.6875,27.4375,5.125,0
78330,-4.375,28.9375,5.25,0
78350,-4.6875,31.625,7.3125,0
78350,-4.5,34.6875,11.625,0
78370,-5.125,36.1875,14.4375,0
78390,-2.9375,38.4375,14.0625,0
78410,-3.5,37.5625,15.3125,0
78430,-5.875,36.875,18.5,0
78450,-6.375,36.625,19.5,0
78470,-2.625,34.8125,17.6875,0
78490,-2.1875,32.1875,18.4375,0
78510,-4.0625,29.4375,19.6875,0
78530,-1,27.75,18.1875,0
78550,0.0625,24.75,18.3125,0
78570,-2.5,22.25,20.5,0
78590,-0.625,20.4375,21.1875,0
78610,0.625,19,21.8125,0
78630,0.0625,17.0625,22.25,0
78650,1.625,15.4375,22.0625,0
78670,2.875,13.75,22.9375,0
78690,3.125,12.8125,22.625,0
78710,6,12.125,23.5625,0
78730,6.4375,9.625,25.625,0
78750,5.125,7.8125,25.9375,0
78770,7.8125,6.5,25.875,0
78790,8.9375,5.875,26,0
78810,8.125,5.125,27.0625,0
78830,8.8125,4.8125,26.1875,0
78850,10.3125,4.5,26.875,0
78870,10.5,2.625,27.25,0
78890,10.0625,1.4375,25.9375,0
78910,9.3125,0.1875,27.0625,0
78930,9.625,-1.1875,28.375,0
78950,10.5625,-2.8125,28.25,0
78970,12.6875,-4.75,27.5625,0
78990,12.8125,-5.125,27.1875,0
79010,14.3125,-6.5625,28.125,0
79030,12.25,-8.4375,28,0
79050,12.3125,-8.75,27.8125,0
79070,12.75,-10.75,28,0
79090,10.5,-12.4375,27.6875,0
79110,9.9375,-13.1875,28,0
79130,11.9375,-13.375,28.125,0
79150,13.1875,-15,28.4375,0
79170,10.75,-17.125,29.3125,0
79190,9.9375,-18.5,30.375,0
79210,9.25,-19.625,30.875,0
79230,8.75,-20.8125,31.0625,0
79250,8.5625,-22.5625,31.8125,0
79270,7.6875,-23.6875,32.375,0
79290,7.75,-24.5625,31.9375,0
79310,8,-25.3125,31.6875,0
79330,8.3125,-25.625,31.6875,0
79350,9.4375,-26.5625,31.625,0
79370,9.3125,-27.625,32.875,0
79390,8.75,-26.9375,34.0625,0
79410,11.1875,-27.1875,33.5,0
79430,9.4375,-30.25,33.875,0
79450,6.0625,-30.6875,32.5,0
79470,5.4375,-31.75,30.875,0
79490,7,-34.25,28.375,0
79510,6.875,-36.9375,25.5625,0
79530,8.625,-38.0625,22.75,0
79550,10.3125,-39.5625,19,0
79570,9.8125,-41.375,15.1875,0
79590,7.75,-42.5,11.125,0
79610,8.75,-43.8125,7.875,0
79630,10.375,-45.3125,5.0625,0
79640,10.8125,-47.4375,2.4375,0
79670,9.9375,-50.5625,0.4375,0
79680,7.6875,-52.125,0,0
79700,6.25,-53.5,-2.6875,0
79720,8.5,-55.625,-3.5,0
79740,8.1875,-57.125,-3.1875,0
79760,7.25,-58.375,-5.8125,0
79780,4.25,-59.4375,-7.25,0
79800,1.1875,-58.75,-6.9375,0
79820,-1.6875,-58.0625,-6.8125,0
79840,-2.375,-58.25,-10.0625,0
79860,-5.25,-57.75,-12.0625,0
79880,-3.6875,-56.8125,-12.875,0
79900,0.125,-57.625,-18.5625,0
79920,-2.6875,-55.1875,-18.25,0
79940,-7.0625,-53.625,-16.9375,0
79960,-6.9375,-51.125,-20.3125,0
79980,-7.625,-50.125,-20.75,0
80000,-9.25,-49.75,-17.1875,0
80020,-12.0625,-45.75,-19.4375,0
80040,-12.4375,-44.3125,-20.5625,0
80060,-13.3125,-42.3125,-17.3125,0
80080,-13.3125,-40.25,-17.1875,0
80100,-15.375,-36.8125,-17.25,0
80120,-15.4375,-34.1875,-15.9375,0
80140,-15.625,-30.375,-15.875,0
80160,-16.1875,-26.8125,-16.3125,0
80180,-16.4375,-23.5,-17.4375,0
80200,-16.875,-20.125,-19.5625,0
80220,-17.25,-16,-20.875,0
80240,-18.125,-11.125,-21.75,0
80270,-17.375,-5.4375,-22.6875,0
80290,-16.375,-3.0625,-22.6875,0
80310,-17.0625,-0.9375,-23.0625,0
80330,-18.1875,1,-23.25,0
80350,-18.375,2.125,-22.9375,0
80370,-18.25,3.1875,-21.9375,0
80390,-19.25,5,-21.9375,0
80410,-20,5.75,-22.1875,0
80430,-20.25,5.625,-22.8125,0
80450,-20,5.1875,-23.625,0
80470,-20.9375,5,-23.625,0
80490,-23.125,5.25,-23.8125,0
80510,-22.9375,5,-23.8125,0
80530,-22.875,3.875,-23.4375,0
80550,-24,4.6875,-22.0625,0
80570,-24.8125,5.875,-21.0625,0
80590,-25.5,7,-20.1875,0
80610,-26.25,8.25,-18.625,0
80630,-26,9.125,-18.25,0
80650,-24.9375,9.125,-18.4375,0
80670,-24.625,10,-18.4375,0
80690,-25.1875,11.8125,-19.25,0
80710,-25.3125,12.9375,-19.5,0
80730,-24.25,13.1875,-19.375,0
80750,-22.25,14.125,-19.5625,0
80770,-21.3125,14.6875,-19.5,0
80790,-21.5625,15.1875,-18.5625,0
80810,-21.125,16.25,-17.5625,0
80830,-21.875,17.8125,-17.3125,0
80850,-21.0625,18.6875,-17.5625,0
80870,-20.75,20.25,-16.9375,0
80890,-20.4375,22.1875,-16.625,0
80910,-19.75,25,-16.0625,0
80930,-20.3125,25.75,-15.1875,0
80950,-21.75,27.375,-13.8125,0
80970,-22.25,28.25,-13.375,0
80990,-19.5625,29.125,-12.6875,0
81010,-16.875,29.8125,-11.3125,0
81030,-17.125,31.0625,-10.5,0
81050,-17.625,33.125,-10.5,0
81070,-16.6875,34.125,-9.1875,0
81090,-15.75,34.4375,-7.5625,0
81110,-13.5625,35.625,-6.9375,0
81130,-12.125,36.5625,-6.9375,0
81150,-12.125,37.8125,-5,0
81170,-12.8125,38.4375,-3.125,0
81190,-11.25,38.3125,-2.875,0
81210,-12.1875,36.5625,-0.3125,0
81230,-13.875,35.5625,0,0
81250,-12.3125,35.75,0.5625,0
81270,-10.3125,35.875,0.6875,0
81290,-8.8125,35.1875,1.25,0
81310,-8.875,34.9375,3.125,0
81330,-10.6875,37.1875,5.5625,0
81350,-10.1875,39,5.625,0
81370,-9.5625,37.6875,5.3125,0
81390,-10.4375,36.0625,5.5,0
81410,-11.3125,36.5625,4.25,0
81430,-12.9375,38.3125,3.375,0
81450,-12.3125,38.75,3.875,0
81470,-10.6875,37.0625,3.125,0
81490,-8.875,35.5,1.8125,0
81510,-8.5625,35.625,2.3125,0
81530,-8.9375,36.375,4.875,0
81550,-11.5,35.3125,4.1875,0
81570,-12.4375,32.125,2.75,0
81590,-10.75,29.4375,3.25,0
81610,-11.6875,25.4375,4.9375,0
81630,-10.375,22.625,2.75,0
81650,-6.3125,20.5,1.5,0
81670,-5.9375,18.9375,2.75,0
81690,-9.25,17.9375,5.0625,0
81710,-11,18.4375,6.0625,0
81730,-9.25,18.625,4.375,0
81750,-7,16.875,6.5625,0
81770,-7.4375,13.75,8.8125,0
81790,-5.125,12.6875,8.125,0
81810,-5.125,12.5625,9.75,0
81830,-4.5625,12.1875,12.8125,0
81850,-6.5,11.875,14.5,0
81870,-4.6875,10.5,13.5,0
81890,1.25,8.0625,13.625,0
81910,2.625,6.625,15.1875,0
81930,-0.125,4.375,15.6875,0
81950,-1.0625,4.3125,15.5625,0
81970,0.6875,3.6875,18.0625,0
81990,0.125,3.0625,20.5625,0
82010,0.0625,2.375,20.8125,0
82030,-0.0625,2.6875,19.375,0
82050,0.5625,2.0625,18.1875,0
82070,2.1875,0.5,16.3125,0
82090,4.375,0.0625,15.4375,0
82110,4.3125,0.25,17.25,0
82130,5,2.375,18.875,0
82150,2.875,0.875,20.375,0
82170,2.75,0.1875,21,0
82190,3.3125,-0.625,22.125,0
82210,5.3125,-1.6875,22.5,0
82230,6.25,-3.625,21.6875,0
82250,5.0625,-5.125,21.6875,0
82270,3.1875,-5.75,21.125,0
82290,5.25,-5.375,19.75,0
82310,6,-6,19.75,0
82330,6.4375,-7.4375,19.9375,0
82350,4.875,-6.75,20.3125,0
82370,6.0625,-5.25,21.0625,0
82390,6.375,-6.375,22.3125,0
82410,5.375,-6.25,22.1875,0
82430,7.5625,-5.3125,22.6875,0
82450,9.4375,-5.0625,22.6875,0
82470,6.8125,-6.375,22.9375,0
82490,7.5,-6.8125,23.875,0
82510,5.875,-7.75,25.3125,0
82530,5.25,-8.375,25.8125,0
82550,6.125,-11.4375,25.625,0
