Timestamp, Angle x, Angle y, Angle z, Marker
40,-0.655589,0.430148,-1.44493,0
60,-0.657876,0.429586,-1.44559,0
80,-0.659373,0.429688,-1.44605,0
100,-0.660537,0.430439,-1.44668,0
120,-0.661369,0.431525,-1.44745,0
140,-0.661633,0.433126,-1.44773,0
150,-0.661533,0.434904,-1.4476,0
150,-0.661289,0.436396,-1.44674,0
200,-0.661494,0.437575,-1.44576,0
220,-0.66231,0.437907,-1.4447,0
240,-0.663096,0.438162,-1.44388,0
260,-0.663636,0.437553,-1.44336,0
280,-0.663839,0.436678,-1.44302,0
300,-0.663942,0.436116,-1.44261,0
320,-0.664148,0.436157,-1.44224,0
340,-0.664319,0.436736,-1.44161,0
360,-0.664072,0.437391,-1.44085,0
380,-0.663419,0.438631,-1.44032,0
400,-0.662548,0.43978,-1.44015,0
420,-0.661391,0.441155,-1.43995,0
440,-0.660124,0.442415,-1.44013,0
460,-0.658563,0.443223,-1.44024,0
480,-0.656872,0.443882,-1.44025,0
500,-0.65525,0.44453,-1.44012,0
520,-0.653575,0.445065,-1.43973,0
540,-0.652012,0.445336,-1.43943,0
560,-0.650787,0.445557,-1.43893,0
580,-0.649852,0.44563,-1.43852,0
600,-0.649457,0.445804,-1.43841,0
620,-0.648761,0.446078,-1.4382,0
640,-0.648378,0.446378,-1.43817,0
660,-0.647711,0.44659,-1.43812,0
680,-0.646868,0.446763,-1.43812,0
700,-0.645657,0.447111,-1.4377,0
710,-0.644436,0.447409,-1.43727,0
730,-0.642721,0.447879,-1.43666,0
750,-0.641046,0.448474,-1.43582,0
770,-0.639586,0.449094,-1.43508,0
790,-0.638706,0.449882,-1.43488,0
810,-0.637788,0.450623,-1.43498,0
830,-0.63631,0.45155,-1.43503,0
850,-0.635252,0.452617,-1.4349,0
870,-0.634504,0.453635,-1.43488,0
890,-0.633802,0.454403,-1.43508,0
910,-0.633147,0.454923,-1.43551,0
930,-0.632508,0.455391,-1.43561,0
950,-0.631774,0.455799,-1.4361,0
970,-0.63097,0.456279,-1.43628,0
990,-0.630453,0.456533,-1.43648,0
1010,-0.630334,0.456432,-1.43638,0
1030,-0.629386,0.456376,-1.43589,0
1050,-0.629386,0.456376,-1.43589,0
1070,-0.629016,0.456548,-1.43547,0
1090,-0.628732,0.457197,-1.43501,0
1110,-0.628655,0.457507,-1.43463,0
1130,-0.628674,0.457741,-1.43426,0
1150,-0.628578,0.457817,-1.43425,0
1170,-0.628459,0.457715,-1.43415,0
1190,-0.628459,0.457715,-1.43415,0
1210,-0.628469,0.457764,-1.43416,0
1230,-0.627497,0.457531,-1.43358,0
1250,-0.626694,0.456969,-1.43292,0
1270,-0.626291,0.456518,-1.43232,0
1290,-0.625808,0.456091,-1.43139,0
1310,-0.625959,0.455692,-1.43077,0
1330,-0.626167,0.455229,-1.42999,0
1350,-0.626524,0.454808,-1.42946,0
1370,-0.626776,0.454413,-1.42892,0
1390,-0.626807,0.454094,-1.4286,0
1410,-0.626946,0.453827,-1.42837,0
1430,-0.626946,0.453827,-1.42837,0
1450,-0.626946,0.453827,-1.42837,0
1470,-0.626946,0.453827,-1.42837,0
1490,-0.626946,0.453827,-1.42837,0
1510,-0.626946,0.453827,-1.42837,0
1530,-0.626732,0.453801,-1.42827,0
1550,-0.626742,0.45385,-1.42828,0
1570,-0.626742,0.45385,-1.42828,0
1590,-0.626624,0.453748,-1.42818,0
1610,-0.626624,0.453748,-1.42818,0
1630,-0.626624,0.453748,-1.42818,0
1650,-0.626624,0.453748,-1.42818,0
1670,-0.626663,0.453737,-1.42834,0
1690,-0.626545,0.453635,-1.42825,0
1710,-0.626545,0.453635,-1.42825,0
1730,-0.626427,0.453534,-1.42815,0
1750,-0.626427,0.453534,-1.42815,0
1770,-0.626427,0.453534,-1.42815,0
1790,-0.626427,0.453534,-1.42815,0
1810,-0.626523,0.453459,-1.42815,0
1830,-0.626405,0.453358,-1.42806,0
1850,-0.626444,0.453346,-1.42822,0
1870,-0.626444,0.453346,-1.42822,0
1890,-0.626444,0.453346,-1.42822,0
1910,-0.626444,0.453346,-1.42822,0
1930,-0.626444,0.453346,-1.42822,0
1950,-0.626326,0.453244,-1.42812,0
1970,-0.626422,0.453169,-1.42813,0
1990,-0.626422,0.453169,-1.42813,0
2010,-0.626422,0.453169,-1.42813,0
2030,-0.626422,0.453169,-1.42813,0
2050,-0.626439,0.452981,-1.4282,0
2070,-0.626343,0.453056,-1.42819,0
2090,-0.626321,0.452879,-1.4281,0
2110,-0.626331,0.452928,-1.42811,0
2130,-0.626331,0.452928,-1.42811,0
2150,-0.626331,0.452928,-1.42811,0
2170,-0.626213,0.452827,-1.42802,0
2190,-0.626213,0.452827,-1.42802,0
2210,-0.626252,0.452815,-1.42818,0
2230,-0.626134,0.452714,-1.42808,0
2250,-0.626134,0.452714,-1.42808,0
2270,-0.62623,0.452638,-1.42809,0
2290,-0.62623,0.452638,-1.42809,0
2310,-0.626112,0.452537,-1.42799,0
2330,-0.626208,0.452462,-1.428,0
2350,-0.626247,0.45245,-1.42816,0
2370,-0.626129,0.452349,-1.42806,0
2390,-0.626129,0.452349,-1.42806,0
2410,-0.626129,0.452349,-1.42806,0
2430,-0.626129,0.452349,-1.42806,0
2450,-0.626011,0.452248,-1.42797,0
2470,-0.626011,0.452248,-1.42797,0
2490,-0.625933,0.452134,-1.42803,0
2510,-0.625815,0.452033,-1.42793,0
2530,-0.625911,0.451958,-1.42794,0
2550,-0.625793,0.451857,-1.42784,0
2570,-0.625793,0.451857,-1.42784,0
2590,-0.625724,0.451792,-1.42792,0
2610,-0.62582,0.451717,-1.42793,0
2630,-0.625702,0.451616,-1.42783,0
2650,-0.625702,0.451616,-1.42783,0
2670,-0.625798,0.45154,-1.42784,0
2690,-0.625719,0.451427,-1.4279,0
2710,-0.625601,0.451326,-1.4278,0
2730,-0.625601,0.451326,-1.4278,0
2750,-0.625484,0.451225,-1.42771,0
2770,-0.625484,0.451225,-1.42771,0
2790,-0.625366,0.451124,-1.42761,0
2810,-0.625415,0.45116,-1.42778,0
2830,-0.625297,0.451059,-1.42768,0
2850,-0.625297,0.451059,-1.42768,0
2870,-0.625179,0.450958,-1.42759,0
2890,-0.625179,0.450958,-1.42759,0
2910,-0.625179,0.450958,-1.42759,0
2930,-0.625101,0.450845,-1.42765,0
2950,-0.624983,0.450744,-1.42756,0
2970,-0.625079,0.450668,-1.42756,0
2990,-0.624961,0.450567,-1.42747,0
3010,-0.625,0.450556,-1.42763,0
3030,-0.624979,0.450379,-1.42754,0
3050,-0.624871,0.450326,-1.42745,0
3070,-0.624871,0.450326,-1.42745,0
3090,-0.624792,0.450213,-1.42752,0
3110,-0.624888,0.450138,-1.42752,0
3130,-0.624675,0.450112,-1.42742,0
3150,-0.624653,0.449936,-1.42733,0
3170,-0.624653,0.449936,-1.42733,0
3190,-0.624574,0.449823,-1.4274,0
3210,-0.624574,0.449823,-1.4274,0
3230,-0.624574,0.449823,-1.4274,0
3250,-0.62449,0.449402,-1.42698,0
3270,-0.624111,0.448899,-1.42607,0
3290,-0.622896,0.448366,-1.42423,0
3310,-0.621906,0.446428,-1.42219,0
3330,-0.623523,0.444183,-1.42087,0
3350,-0.623726,0.439222,-1.41807,0
3370,-0.624362,0.432457,-1.41396,0
3390,-0.629468,0.425336,-1.40853,0
3400,-0.639223,0.417987,-1.40157,0
3420,-0.652776,0.409324,-1.39264,0
3440,-0.666515,0.399994,-1.38007,0
3460,-0.682971,0.390537,-1.36902,0
3480,-0.698486,0.382538,-1.35776,0
3500,-0.71311,0.37566,-1.34535,0
3520,-0.729925,0.371578,-1.32928,0
3540,-0.750909,0.365943,-1.31634,0
3560,-0.773248,0.358148,-1.30708,0
3580,-0.793476,0.352147,-1.29969,0
3600,-0.810101,0.346571,-1.29274,0
3620,-0.824309,0.340654,-1.28558,0
3640,-0.838571,0.336474,-1.2773,0
3660,-0.850978,0.332821,-1.2673,0
3680,-0.864628,0.329465,-1.25805,0
3700,-0.875452,0.325456,-1.24932,0
3720,-0.884175,0.320982,-1.23885,0
3740,-0.893825,0.314487,-1.23006,0
3760,-0.90297,0.306021,-1.22355,0
3780,-0.910287,0.298305,-1.21625,0
3800,-0.918489,0.289442,-1.20979,0
3820,-0.925403,0.281541,-1.20197,0
3840,-0.931933,0.274752,-1.19348,0
3860,-0.940569,0.268149,-1.18648,0
3880,-0.949703,0.263113,-1.1801,0
3900,-0.958651,0.260515,-1.17296,0
3920,-0.966257,0.259373,-1.16588,0
3940,-0.974167,0.260946,-1.16022,0
3960,-0.982477,0.265885,-1.15661,0
3980,-0.990182,0.273127,-1.15623,0
4000,-0.994788,0.281643,-1.15618,0
4020,-0.995846,0.290852,-1.15463,0
4040,-0.99323,0.300867,-1.15261,0
4060,-0.98811,0.311183,-1.15117,0
4080,-0.981071,0.323684,-1.14841,0
4100,-0.970702,0.333771,-1.14509,0
4120,-0.962061,0.335353,-1.14741,0
4140,-0.957235,0.336089,-1.15402,0
4160,-0.949164,0.339136,-1.16062,0
4180,-0.934959,0.341758,-1.16684,0
4200,-0.920283,0.343361,-1.17426,0
4220,-0.9041,0.344489,-1.18279,0
4240,-0.885348,0.344272,-1.19062,0
4260,-0.867878,0.345398,-1.19611,0
4280,-0.853108,0.34645,-1.1994,0
4300,-0.843403,0.345634,-1.20201,0
4320,-0.835227,0.343806,-1.20449,0
4340,-0.827466,0.341631,-1.20669,0
4360,-0.818981,0.339762,-1.2075,0
4380,-0.809239,0.338825,-1.20609,0
4400,-0.801265,0.337536,-1.20424,0
4420,-0.794233,0.336101,-1.20292,0
4440,-0.788956,0.336098,-1.20186,0
4460,-0.782619,0.337536,-1.19953,0
4480,-0.775846,0.339322,-1.19519,0
4500,-0.769276,0.340198,-1.18989,0
4520,-0.763925,0.340483,-1.18331,0
4540,-0.76044,0.341459,-1.17449,0
4560,-0.759553,0.341509,-1.16497,0
4580,-0.759938,0.342628,-1.15484,0
4600,-0.760416,0.345833,-1.14369,0
4620,-0.761412,0.349873,-1.13288,0
4640,-0.76271,0.355474,-1.12211,0
4660,-0.764438,0.361028,-1.11183,0
4680,-0.765764,0.365269,-1.10244,0
4700,-0.765693,0.370991,-1.09248,0
4720,-0.765155,0.376976,-1.08176,0
4740,-0.763578,0.381878,-1.071,0
4760,-0.758889,0.38517,-1.06028,0
4780,-0.754992,0.388168,-1.04904,0
4800,-0.750092,0.39004,-1.03807,0
4820,-0.745742,0.391102,-1.02785,0
4840,-0.739825,0.392346,-1.01771,0
4860,-0.730701,0.395385,-1.00706,0
4880,-0.720727,0.39962,-0.995224,0
4900,-0.710899,0.404158,-0.985084,0
4920,-0.699021,0.411543,-0.972742,0
4940,-0.688256,0.412726,-0.965109,0
4960,-0.681484,0.410949,-0.962455,0
4980,-0.66672,0.412137,-0.956127,0
5000,-0.64871,0.413523,-0.94789,0
5020,-0.633697,0.415502,-0.941227,0
5040,-0.619732,0.419142,-0.935537,0
5060,-0.602743,0.424556,-0.929639,0
5080,-0.584315,0.431318,-0.923918,0
5100,-0.57022,0.439964,-0.917077,0
5120,-0.561513,0.449551,-0.911638,0
5140,-0.553904,0.45821,-0.908042,0
5160,-0.545113,0.463776,-0.905746,0
5180,-0.537223,0.468975,-0.904179,0
5200,-0.531038,0.476591,-0.904119,0
5220,-0.528276,0.485922,-0.905514,0
5240,-0.524209,0.496497,-0.906899,0
5260,-0.518442,0.506401,-0.908351,0
5280,-0.511894,0.515108,-0.910583,0
5300,-0.504683,0.52283,-0.912444,0
5320,-0.498662,0.527994,-0.914058,0
5340,-0.494814,0.531505,-0.916289,0
5360,-0.492678,0.533348,-0.919813,0
5380,-0.492134,0.534918,-0.923855,0
5390,-0.491764,0.536658,-0.928455,0
5410,-0.491676,0.53832,-0.933844,0
5430,-0.492881,0.541643,-0.939813,0
5450,-0.495689,0.547163,-0.94557,0
5470,-0.501914,0.553054,-0.952168,0
5490,-0.508997,0.560004,-0.957743,0
5510,-0.514692,0.568155,-0.960605,0
5530,-0.519229,0.574441,-0.964154,0
5550,-0.525142,0.578929,-0.96903,0
5570,-0.531319,0.582642,-0.973743,0
5590,-0.537066,0.585595,-0.979147,0
5610,-0.542017,0.589064,-0.98417,0
5630,-0.546853,0.594331,-0.988073,0
5650,-0.551332,0.60011,-0.990351,0
5670,-0.556463,0.606871,-0.993098,0
5690,-0.562303,0.614061,-0.996839,0
5710,-0.565767,0.620086,-0.999623,0
5730,-0.567178,0.625608,-1.00099,0
5750,-0.570378,0.630487,-1.00363,0
5770,-0.572275,0.635095,-1.00513,0
5790,-0.575787,0.639323,-1.00708,0
5810,-0.578662,0.641651,-1.00703,0
5830,-0.578353,0.639376,-1.00686,0
5850,-0.578117,0.637359,-1.00961,0
5870,-0.577548,0.637767,-1.01287,0
5890,-0.576896,0.638362,-1.0156,0
5910,-0.575385,0.639562,-1.01733,0
5930,-0.572373,0.641952,-1.01802,0
5950,-0.569279,0.643738,-1.01956,0
5970,-0.565598,0.643506,-1.02078,0
5990,-0.55981,0.642236,-1.02215,0
6010,-0.552638,0.642152,-1.02283,0
6030,-0.546864,0.641971,-1.02414,0
6050,-0.544292,0.642683,-1.02675,0
6070,-0.542878,0.643882,-1.03027,0
6090,-0.542159,0.646003,-1.03365,0
6110,-0.54283,0.648577,-1.03686,0
6130,-0.541996,0.652056,-1.03948,0
6150,-0.541418,0.65518,-1.04207,0
6170,-0.54183,0.657772,-1.04416,0
6190,-0.543404,0.661541,-1.04646,0
6210,-0.545326,0.663856,-1.04946,0
6230,-0.547235,0.665592,-1.05234,0
6250,-0.549098,0.667116,-1.05452,0
6270,-0.55035,0.668725,-1.05675,0
6290,-0.551952,0.671389,-1.05831,0
6310,-0.554265,0.674595,-1.05945,0
6330,-0.557178,0.677036,-1.06009,0
6350,-0.560037,0.67869,-1.06153,0
6370,-0.561995,0.680726,-1.06315,0
6390,-0.562963,0.682998,-1.06425,0
6410,-0.563708,0.684695,-1.06498,0
6430,-0.563159,0.686295,-1.06502,0
6450,-0.564987,0.687582,-1.0661,0
6470,-0.567531,0.690178,-1.06785,0
6490,-0.569545,0.693341,-1.06948,0
6510,-0.571971,0.697391,-1.07191,0
6530,-0.572262,0.70067,-1.07319,0
6550,-0.57205,0.703471,-1.07353,0
6570,-0.571988,0.705134,-1.07416,0
6590,-0.572457,0.707116,-1.07536,0
6610,-0.57331,0.709578,-1.07669,0
6630,-0.573761,0.711859,-1.07758,0
6650,-0.572663,0.713515,-1.07678,0
6670,-0.569253,0.71516,-1.07345,0
6690,-0.565839,0.716659,-1.06871,0
6710,-0.562416,0.717043,-1.0621,0
6730,-0.557436,0.716133,-1.05439,0
6750,-0.549183,0.712106,-1.04493,0
6770,-0.53741,0.704261,-1.0338,0
6790,-0.525751,0.699192,-1.024,0
6810,-0.516921,0.697155,-1.01689,0
6830,-0.509219,0.694674,-1.01048,0
6850,-0.504915,0.690508,-1.00471,0
6870,-0.50485,0.686682,-1.00113,0
6890,-0.505976,0.6849,-0.998139,0
6910,-0.507898,0.683965,-0.994583,0
6930,-0.508334,0.682016,-0.989022,0
6950,-0.514375,0.681521,-0.985577,0
6970,-0.522935,0.679923,-0.98401,0
6990,-0.528663,0.677656,-0.981246,0
7010,-0.535742,0.675714,-0.979116,0
7030,-0.542199,0.67216,-0.975259,0
7050,-0.549919,0.66721,-0.970651,0
7070,-0.558826,0.660668,-0.965596,0
7090,-0.565558,0.654112,-0.960217,0
7110,-0.573375,0.647998,-0.957249,0
7130,-0.579383,0.641137,-0.957834,0
7150,-0.584068,0.636119,-0.959764,0
7170,-0.582343,0.633395,-0.959475,0
7190,-0.579793,0.632099,-0.958731,0
7210,-0.577258,0.631463,-0.957431,0
7230,-0.575091,0.630725,-0.955826,0
7250,-0.574056,0.629356,-0.955323,0
7270,-0.573501,0.628136,-0.955679,0
7290,-0.572734,0.626734,-0.956723,0
7310,-0.573425,0.624799,-0.959486,0
7330,-0.575255,0.622949,-0.962804,0
7350,-0.577375,0.621576,-0.965747,0
7370,-0.579144,0.620784,-0.967783,0
7390,-0.581644,0.62064,-0.970007,0
7410,-0.584763,0.620617,-0.972428,0
7430,-0.588845,0.620743,-0.974637,0
7450,-0.593116,0.620721,-0.97673,0
7470,-0.59761,0.620711,-0.978939,0
7490,-0.602254,0.620647,-0.981627,0
7510,-0.606497,0.620574,-0.983992,0
7530,-0.610469,0.620556,-0.985685,0
7550,-0.614087,0.620413,-0.987445,0
7570,-0.616974,0.620523,-0.989424,0
7590,-0.619259,0.620611,-0.991403,0
7610,-0.620914,0.620236,-0.993304,0
7630,-0.622697,0.619688,-0.99475,0
7650,-0.624572,0.618406,-0.996047,0
7670,-0.626695,0.616398,-0.997688,0
7690,-0.629078,0.613691,-0.999131,0
7710,-0.631272,0.61113,-1.00069,0
7730,-0.633056,0.609025,-1.00227,0
7750,-0.635257,0.607538,-1.00434,0
7770,-0.637073,0.60615,-1.00628,0
7790,-0.63872,0.605068,-1.00813,0
7810,-0.640991,0.604101,-1.0102,0
7830,-0.643647,0.603589,-1.01251,0
7850,-0.64676,0.603096,-1.01548,0
7870,-0.650025,0.602468,-1.01861,0
7890,-0.652946,0.602156,-1.02145,0
7910,-0.655709,0.602084,-1.02462,0
7930,-0.658785,0.602044,-1.02781,0
7950,-0.661599,0.602225,-1.031,0
7970,-0.665163,0.602354,-1.03466,0
7990,-0.668524,0.602393,-1.03791,0
8010,-0.671567,0.602351,-1.04096,0
8030,-0.674867,0.602124,-1.04377,0
8050,-0.678396,0.601923,-1.04654,0
8070,-0.681355,0.601339,-1.04886,0
8090,-0.684125,0.600487,-1.0511,0
8110,-0.68628,0.599232,-1.05299,0
8130,-0.688072,0.597505,-1.05475,0
8150,-0.690012,0.595467,-1.05659,0
8170,-0.692937,0.59309,-1.05887,0
8190,-0.695624,0.590294,-1.06082,0
8210,-0.698203,0.587435,-1.06269,0
8230,-0.700629,0.584224,-1.06504,0
8250,-0.703552,0.581695,-1.06782,0
8270,-0.706312,0.579277,-1.07061,0
8290,-0.70944,0.577484,-1.07402,0
8310,-0.712368,0.575775,-1.07752,0
8330,-0.714935,0.574052,-1.08086,0
8350,-0.717467,0.571988,-1.0843,0
8370,-0.719454,0.569326,-1.08716,0
8390,-0.722123,0.566031,-1.09047,0
8410,-0.72487,0.561997,-1.09373,0
8430,-0.726815,0.5576,-1.09643,0
8450,-0.728792,0.553184,-1.09927,0
8470,-0.730736,0.548505,-1.10181,0
8490,-0.733256,0.543946,-1.10439,0
8510,-0.735385,0.539257,-1.10642,0
8530,-0.73694,0.534564,-1.10817,0
8550,-0.737795,0.529645,-1.10976,0
8570,-0.737932,0.52385,-1.11174,0
8590,-0.736593,0.517236,-1.11458,0
8610,-0.733836,0.510935,-1.11976,0
8630,-0.730269,0.504676,-1.12733,0
8650,-0.726032,0.49884,-1.13589,0
8670,-0.722078,0.493716,-1.145,0
8690,-0.717288,0.489167,-1.15419,0
8710,-0.711814,0.485073,-1.16364,0
8730,-0.70713,0.481981,-1.17265,0
8750,-0.704756,0.478872,-1.18122,0
8770,-0.702682,0.475814,-1.19,0
8780,-0.699071,0.473615,-1.19821,0
8800,-0.694358,0.471478,-1.20627,0
8820,-0.689773,0.469465,-1.21448,0
8840,-0.68539,0.467407,-1.22219,0
8860,-0.680903,0.46554,-1.22981,0
8880,-0.677557,0.463572,-1.23715,0
8900,-0.674646,0.46121,-1.24407,0
8920,-0.671827,0.459183,-1.25105,0
8940,-0.669546,0.45762,-1.25807,0
8960,-0.666596,0.456024,-1.26447,0
8980,-0.664644,0.454168,-1.27044,0
9000,-0.662687,0.453525,-1.27576,0
9020,-0.659558,0.453107,-1.28051,0
9040,-0.656515,0.452274,-1.28449,0
9060,-0.653365,0.450788,-1.28764,0
9080,-0.650431,0.448301,-1.29058,0
9100,-0.646727,0.444356,-1.29341,0
9120,-0.642564,0.440075,-1.29575,0
9140,-0.638668,0.435563,-1.29781,0
9160,-0.635466,0.430733,-1.2999,0
9180,-0.632255,0.424195,-1.30184,0
9200,-0.629726,0.417599,-1.30331,0
9220,-0.627869,0.411068,-1.30436,0
9240,-0.626796,0.404722,-1.30553,0
9260,-0.625991,0.398753,-1.30622,0
9280,-0.625682,0.392808,-1.307,0
9300,-0.624686,0.386822,-1.30764,0
9320,-0.623479,0.381383,-1.30829,0
9340,-0.622323,0.376428,-1.30889,0
9360,-0.621275,0.372221,-1.30987,0
9380,-0.620638,0.368537,-1.31081,0
9400,-0.62062,0.365576,-1.31185,0
9420,-0.620608,0.363127,-1.31312,0
9440,-0.620763,0.361369,-1.31461,0
9460,-0.62125,0.359838,-1.31603,0
9480,-0.62124,0.358865,-1.31749,0
9500,-0.620711,0.358169,-1.3187,0
9520,-0.619993,0.357824,-1.31998,0
9540,-0.619265,0.357609,-1.32132,0
9560,-0.618004,0.357631,-1.32239,0
9580,-0.61675,0.357996,-1.32362,0
9600,-0.615506,0.358064,-1.32472,0
9620,-0.614799,0.358049,-1.32569,0
9640,-0.614462,0.358042,-1.32649,0
9660,-0.614298,0.358065,-1.32675,0
9680,-0.614301,0.358236,-1.32683,0
9700,-0.615042,0.358181,-1.32679,0
9720,-0.616146,0.358435,-1.32672,0
9740,-0.617115,0.358775,-1.32648,0
9760,-0.617758,0.359384,-1.32607,0
9780,-0.618609,0.360024,-1.32575,0
9800,-0.619586,0.36113,-1.32522,0
9820,-0.620626,0.362653,-1.32475,0
9840,-0.621896,0.36415,-1.32452,0
9860,-0.623184,0.365861,-1.32438,0
9880,-0.624229,0.367388,-1.32392,0
9900,-0.625575,0.369006,-1.32363,0
9920,-0.626967,0.370481,-1.32345,0
9940,-0.62841,0.371691,-1.32303,0
9960,-0.629962,0.373004,-1.32269,0
9980,-0.631443,0.3742,-1.32244,0
10000,-0.632833,0.375339,-1.32211,0
10020,-0.634088,0.376565,-1.32163,0
10040,-0.635134,0.37776,-1.32104,0
10060,-0.636149,0.379419,-1.32033,0
10080,-0.637207,0.381387,-1.31947,0
10100,-0.638285,0.383572,-1.31871,0
10120,-0.639315,0.385732,-1.31779,0
10140,-0.640449,0.387826,-1.31687,0
10160,-0.641614,0.389734,-1.31605,0
10180,-0.642832,0.391394,-1.31545,0
10200,-0.643725,0.392594,-1.31497,0
10220,-0.644708,0.393682,-1.31448,0
10240,-0.645516,0.394719,-1.31406,0
10260,-0.646666,0.395832,-1.31397,0
10280,-0.64773,0.39678,-1.31393,0
10300,-0.648956,0.39758,-1.31421,0
10320,-0.649648,0.398488,-1.31415,0
10340,-0.650597,0.399305,-1.31447,0
10360,-0.651533,0.400077,-1.31478,0
10380,-0.652432,0.400711,-1.31532,0
10400,-0.653156,0.401293,-1.31591,0
10420,-0.653506,0.401835,-1.31647,0
10440,-0.653952,0.402434,-1.31711,0
10460,-0.654774,0.403073,-1.31778,0
10480,-0.655406,0.403597,-1.3183,0
10500,-0.656052,0.403887,-1.31889,0
10520,-0.656377,0.40404,-1.31927,0
10540,-0.656789,0.404359,-1.31961,0
10560,-0.657326,0.404826,-1.32006,0
10580,-0.657504,0.405174,-1.32015,0
10600,-0.657408,0.405117,-1.32007,0
10620,-0.657733,0.40541,-1.31989,0
10640,-0.658094,0.405684,-1.31986,0
10660,-0.658228,0.406159,-1.31967,0
10680,-0.658589,0.406434,-1.31964,0
10700,-0.658589,0.406434,-1.31964,0
10720,-0.659025,0.406829,-1.31955,0
10740,-0.65935,0.407122,-1.31937,0
10750,-0.659883,0.407573,-1.31935,0
10770,-0.660327,0.40814,-1.31935,0
10790,-0.661007,0.408677,-1.31959,0
10810,-0.661659,0.409403,-1.31975,0
10830,-0.662409,0.410186,-1.31999,0
10850,-0.663197,0.410951,-1.32039,0
10870,-0.664079,0.411477,-1.32073,0
10890,-0.664837,0.412134,-1.32091,0
10910,-0.665843,0.41309,-1.32104,0
10930,-0.666939,0.414213,-1.32112,0
10950,-0.66849,0.415497,-1.32119,0
10970,-0.67037,0.41692,-1.32146,0
10990,-0.671707,0.418579,-1.32145,0
11010,-0.673235,0.420463,-1.32148,0
11030,-0.675146,0.422389,-1.32156,0
11050,-0.676912,0.424516,-1.32136,0
11070,-0.678751,0.426185,-1.32098,0
11090,-0.680954,0.427681,-1.32083,0
11110,-0.682792,0.429059,-1.32031,0
11130,-0.68392,0.430547,-1.31951,0
11150,-0.684959,0.431866,-1.31876,0
11170,-0.686216,0.433222,-1.31812,0
11190,-0.687576,0.434635,-1.31756,0
11210,-0.688936,0.43605,-1.31701,0
11230,-0.690801,0.437489,-1.31654,0
11250,-0.69232,0.439153,-1.31589,0
11270,-0.693714,0.440954,-1.31508,0
11290,-0.694943,0.442753,-1.31435,0
11310,-0.695595,0.444444,-1.31315,0
11330,-0.696107,0.44594,-1.31208,0
11350,-0.696351,0.447126,-1.31059,0
11370,-0.696223,0.447906,-1.30902,0
11390,-0.695554,0.448557,-1.30715,0
11410,-0.69428,0.449004,-1.30504,0
11430,-0.692854,0.449653,-1.30263,0
11450,-0.690859,0.450359,-1.29985,0
11470,-0.689133,0.451705,-1.29702,0
11490,-0.687777,0.453045,-1.29423,0
11510,-0.687341,0.454686,-1.29187,0
11530,-0.687427,0.456374,-1.29024,0
11550,-0.687792,0.45814,-1.2891,0
11570,-0.687712,0.459789,-1.28817,0
11590,-0.687616,0.461351,-1.28766,0
11610,-0.687472,0.461436,-1.28749,0
11630,-0.687381,0.461553,-1.28749,0
11650,-0.686688,0.461878,-1.28748,0
11670,-0.686209,0.461656,-1.28746,0
11690,-0.685764,0.461121,-1.28745,0
11710,-0.685657,0.460478,-1.28724,0
11730,-0.685445,0.460193,-1.28699,0
11750,-0.685023,0.460042,-1.28671,0
11770,-0.68417,0.459983,-1.28628,0
11790,-0.682982,0.46007,-1.28561,0
11810,-0.681152,0.460674,-1.28473,0
11830,-0.678386,0.461667,-1.28315,0
11850,-0.674583,0.46257,-1.28056,0
11870,-0.669914,0.463421,-1.27647,0
11890,-0.664712,0.464061,-1.27094,0
11910,-0.659871,0.46466,-1.26481,0
11930,-0.656049,0.465023,-1.25889,0
11950,-0.652431,0.465157,-1.25344,0
11970,-0.648975,0.465049,-1.24873,0
11990,-0.64537,0.465244,-1.24488,0
12010,-0.641993,0.465798,-1.24192,0
12030,-0.638809,0.466573,-1.24009,0
12050,-0.635256,0.467824,-1.23863,0
12070,-0.630754,0.46971,-1.23705,0
12090,-0.626224,0.472308,-1.23563,0
12110,-0.620538,0.475578,-1.23355,0
12130,-0.614913,0.479449,-1.23163,0
12150,-0.609843,0.483583,-1.23022,0
12170,-0.605521,0.487552,-1.22968,0
12190,-0.601679,0.491038,-1.23034,0
12210,-0.599376,0.494121,-1.23273,0
12230,-0.597572,0.496729,-1.23634,0
12250,-0.595879,0.498763,-1.24112,0
12270,-0.594016,0.499451,-1.24675,0
12290,-0.591307,0.498785,-1.25276,0
12310,-0.588909,0.49691,-1.25882,0
12330,-0.587473,0.493354,-1.26517,0
12350,-0.588266,0.4886,-1.2723,0
12370,-0.590994,0.48289,-1.27988,0
12390,-0.59514,0.476456,-1.28824,0
12410,-0.599847,0.469764,-1.29582,0
12430,-0.604876,0.463168,-1.30234,0
12450,-0.610633,0.456813,-1.30714,0
12470,-0.616968,0.45023,-1.31097,0
12490,-0.622217,0.443841,-1.31332,0
12510,-0.62654,0.438027,-1.31441,0
12530,-0.630439,0.432959,-1.31393,0
12550,-0.634426,0.42838,-1.31199,0
12570,-0.639196,0.424715,-1.30877,0
12590,-0.644568,0.421275,-1.30468,0
12610,-0.650444,0.418863,-1.30034,0
12630,-0.6559,0.416923,-1.29526,0
12650,-0.661459,0.415444,-1.29029,0
12670,-0.666988,0.413945,-1.28563,0
12690,-0.67287,0.412649,-1.28183,0
12710,-0.677732,0.411499,-1.27893,0
12730,-0.681779,0.410524,-1.27745,0
12750,-0.684702,0.410115,-1.277,0
12770,-0.687228,0.410097,-1.27781,0
12790,-0.688956,0.410199,-1.27973,0
12810,-0.690426,0.410431,-1.283,0
12830,-0.691165,0.410563,-1.28671,0
12850,-0.691334,0.410386,-1.29124,0
12870,-0.69072,0.409751,-1.29616,0
12890,-0.689231,0.408599,-1.3012,0
12910,-0.687406,0.406983,-1.30589,0
12930,-0.685959,0.404962,-1.3104,0
12950,-0.684882,0.402803,-1.31424,0
12970,-0.684061,0.400955,-1.31676,0
12990,-0.6833,0.399582,-1.3175,0
13010,-0.683492,0.398812,-1.31721,0
13030,-0.68455,0.3985,-1.31659,0
13050,-0.68615,0.399086,-1.31555,0
13070,-0.687586,0.399646,-1.31393,0
13090,-0.688298,0.399521,-1.31183,0
13110,-0.688113,0.399954,-1.30895,0
13130,-0.688728,0.400601,-1.30528,0
13150,-0.690152,0.400906,-1.30165,0
13170,-0.691639,0.401872,-1.29806,0
13190,-0.693247,0.403298,-1.29493,0
13210,-0.694715,0.404379,-1.2925,0
13230,-0.696362,0.405537,-1.29067,0
13250,-0.698183,0.4066,-1.28935,0
13270,-0.700233,0.407777,-1.28944,0
13290,-0.701728,0.408455,-1.29015,0
13310,-0.703219,0.408693,-1.29191,0
13330,-0.70422,0.408785,-1.29398,0
13350,-0.704645,0.408432,-1.29588,0
13370,-0.705064,0.40791,-1.2977,0
13390,-0.706188,0.406816,-1.29894,0
13410,-0.707558,0.405261,-1.29911,0
13430,-0.708638,0.402961,-1.29848,0
13450,-0.708891,0.400324,-1.29775,0
13470,-0.708366,0.39784,-1.29707,0
13490,-0.70794,0.396727,-1.29633,0
13510,-0.707609,0.396523,-1.29528,0
13530,-0.707361,0.396611,-1.29426,0
13550,-0.707141,0.396507,-1.29286,0
13570,-0.707361,0.396185,-1.29154,0
13590,-0.707361,0.395659,-1.29002,0
13610,-0.707482,0.394831,-1.28857,0
13630,-0.707951,0.394076,-1.28746,0
13650,-0.708697,0.393782,-1.28718,0
13670,-0.709489,0.393689,-1.28734,0
13690,-0.709863,0.393289,-1.28779,0
13710,-0.71011,0.39274,-1.28857,0
13730,-0.710446,0.39208,-1.28981,0
13750,-0.710221,0.391313,-1.29059,0
13770,-0.710521,0.390675,-1.29167,0
13790,-0.710901,0.390329,-1.29278,0
13810,-0.710995,0.389992,-1.29391,0
13830,-0.710864,0.390023,-1.29497,0
13850,-0.711038,0.389978,-1.29613,0
13870,-0.711059,0.389798,-1.29684,0
13890,-0.711243,0.389743,-1.29737,0
13910,-0.711132,0.389641,-1.29727,0
13930,-0.711132,0.389641,-1.29727,0
13950,-0.711167,0.389619,-1.29743,0
13970,-0.711057,0.389517,-1.29733,0
13990,-0.710583,0.388954,-1.29653,0
14010,-0.710161,0.388415,-1.2959,0
14030,-0.709503,0.387626,-1.29507,0
14050,-0.709142,0.387165,-1.29437,0
14070,-0.708873,0.386873,-1.29362,0
14090,-0.708389,0.386544,-1.29277,0
14110,-0.707804,0.38645,-1.29199,0
14130,-0.707652,0.386315,-1.29154,0
14150,-0.707543,0.386213,-1.29144,0
14170,-0.706774,0.386519,-1.29094,0
14180,-0.706561,0.386764,-1.29079,0
14200,-0.70662,0.387235,-1.2901,0
14220,-0.706937,0.388168,-1.28882,0
14240,-0.707766,0.38986,-1.28626,0
14260,-0.707776,0.391258,-1.28177,0
14280,-0.706447,0.391723,-1.27668,0
14300,-0.704408,0.39053,-1.26925,0
14320,-0.704356,0.38472,-1.26219,0
14340,-0.708831,0.375075,-1.25356,0
14360,-0.720573,0.360375,-1.24517,0
14380,-0.735593,0.339207,-1.23762,0
14400,-0.750145,0.31248,-1.22926,0
14420,-0.761725,0.28254,-1.21974,0
14440,-0.766897,0.249553,-1.20716,0
14460,-0.765859,0.215146,-1.1916,0
14480,-0.743971,0.179423,-1.16896,0
14500,-0.710822,0.143607,-1.14992,0
14520,-0.691059,0.111148,-1.13004,0
14540,-0.67697,0.0821805,-1.10671,0
14560,-0.667033,0.0541212,-1.08088,0
14580,-0.658978,0.0262544,-1.05486,0
14600,-0.653805,0.000329137,-1.0311,0
14620,-0.652543,-0.0209294,-1.00848,0
14640,-0.651332,-0.0399496,-0.984639,0
14660,-0.64879,-0.0580276,-0.96211,0
14680,-0.647463,-0.0723151,-0.944348,0
14700,-0.646842,-0.0833367,-0.92812,0
14720,-0.645934,-0.0942945,-0.914412,0
14740,-0.645564,-0.101724,-0.904239,0
14760,-0.646363,-0.106204,-0.896574,0
14780,-0.647088,-0.108921,-0.890905,0
14800,-0.647432,-0.109778,-0.886937,0
14820,-0.648189,-0.109047,-0.884208,0
14840,-0.648544,-0.107342,-0.882906,0
14860,-0.648109,-0.104658,-0.881993,0
14880,-0.647174,-0.102049,-0.882274,0
14900,-0.646498,-0.099749,-0.8835,0
14920,-0.645268,-0.0973839,-0.884802,0
14940,-0.644025,-0.0954568,-0.886278,0
14960,-0.642827,-0.0939426,-0.888497,0
14980,-0.642052,-0.0922599,-0.891238,0
15000,-0.641173,-0.0907836,-0.893898,0
15020,-0.64037,-0.090568,-0.896033,0
15040,-0.639707,-0.0908287,-0.898891,0
15060,-0.639127,-0.0918128,-0.901679,0
15080,-0.638238,-0.0928747,-0.904439,0
15100,-0.637377,-0.0938426,-0.907213,0
15120,-0.636533,-0.0952921,-0.909694,0
15140,-0.636062,-0.0967394,-0.911645,0
15160,-0.636006,-0.0978218,-0.913181,0
15180,-0.636066,-0.0989205,-0.914578,0
15200,-0.636242,-0.100302,-0.915491,0
15220,-0.635886,-0.101786,-0.916145,0
15240,-0.635409,-0.102908,-0.916753,0
15260,-0.634685,-0.104227,-0.91715,0
15280,-0.634243,-0.105561,-0.917572,0
15300,-0.633785,-0.107166,-0.917888,0
15320,-0.633567,-0.108618,-0.918294,0
15340,-0.6339,-0.110185,-0.919008,0
15360,-0.636392,-0.111967,-0.920478,0
15380,-0.641842,-0.114818,-0.923111,0
15400,-0.650297,-0.119659,-0.928788,0
15420,-0.660908,-0.128957,-0.940219,0
15440,-0.675725,-0.14323,-0.958013,0
15460,-0.692206,-0.161765,-0.980136,0
15480,-0.706019,-0.182136,-1.00485,0
15500,-0.716947,-0.204466,-1.0311,0
15520,-0.722099,-0.228956,-1.06166,0
15540,-0.72651,-0.255446,-1.09732,0
15560,-0.732314,-0.279818,-1.13623,0
15580,-0.741097,-0.300007,-1.17469,0
15600,-0.750113,-0.316178,-1.2129,0
15620,-0.75812,-0.328988,-1.25093,0
15640,-0.76521,-0.34021,-1.29029,0
15660,-0.771134,-0.351532,-1.33014,0
15680,-0.772171,-0.360328,-1.3679,0
15700,-0.774152,-0.36983,-1.40092,0
15720,-0.776045,-0.37689,-1.42849,0
15740,-0.780143,-0.382775,-1.44937,0
15760,-0.785647,-0.388175,-1.46475,0
15780,-0.790712,-0.393543,-1.47593,0
15800,-0.796155,-0.397709,-1.48247,0
15820,-0.803471,-0.400214,-1.48548,0
15840,-0.812374,-0.400662,-1.48621,0
15860,-0.823497,-0.400298,-1.48585,0
15880,-0.834226,-0.399671,-1.48455,0
15900,-0.84319,-0.398456,-1.48369,0
15920,-0.848659,-0.397095,-1.48373,0
15940,-0.851212,-0.396505,-1.48369,0
15960,-0.850864,-0.396105,-1.48413,0
15980,-0.848678,-0.395799,-1.48493,0
16000,-0.845224,-0.395503,-1.48622,0
16020,-0.84153,-0.395357,-1.48804,0
16040,-0.838554,-0.394986,-1.48948,0
16060,-0.836503,-0.394215,-1.49064,0
16080,-0.834092,-0.392799,-1.4921,0
16100,-0.831789,-0.39121,-1.49424,0
16120,-0.829472,-0.389774,-1.49694,0
16130,-0.827434,-0.388594,-1.50003,0
16150,-0.825024,-0.38715,-1.50391,0
16170,-0.823088,-0.385842,-1.50868,0
16190,-0.821449,-0.384429,-1.51414,0
16210,-0.820094,-0.382994,-1.5199,0
16230,-0.817983,-0.381067,-1.52643,0
16250,-0.815508,-0.379179,-1.53329,0
16270,-0.812989,-0.377913,-1.54058,0
16290,-0.808771,-0.377207,-1.54814,0
16310,-0.8046,-0.377095,-1.55577,0
16330,-0.801049,-0.377073,-1.56294,0
16350,-0.79825,-0.377305,-1.56921,0
16370,-0.796939,-0.377587,-1.57421,0
16390,-0.79707,-0.377181,-1.57726,0
16410,-0.798327,-0.376481,-1.57942,0
16430,-0.799919,-0.375686,-1.5817,0
16450,-0.801702,-0.37459,-1.58434,0
16470,-0.802977,-0.373378,-1.58685,0
16490,-0.80387,-0.372359,-1.58944,0
16510,-0.804048,-0.371289,-1.59227,0
16530,-0.804048,-0.369448,-1.59464,0
16550,-0.804547,-0.367007,-1.59729,0
16570,-0.805295,-0.36391,-1.6006,0
16590,-0.806454,-0.360634,-1.60387,0
16610,-0.808511,-0.356824,-1.60608,0
16630,-0.810198,-0.353472,-1.60787,0
16650,-0.811504,-0.35031,-1.60973,0
16670,-0.81252,-0.347714,-1.61116,0
16690,-0.81463,-0.345455,-1.61237,0
16710,-0.816417,-0.342856,-1.61278,0
16730,-0.817686,-0.340383,-1.61255,0
16750,-0.818794,-0.338031,-1.6123,0
16770,-0.820243,-0.335101,-1.6125,0
16790,-0.822009,-0.33192,-1.61289,0
16810,-0.824163,-0.328515,-1.61302,0
16830,-0.826511,-0.325403,-1.61214,0
16850,-0.828028,-0.322687,-1.61193,0
16870,-0.828268,-0.320224,-1.61253,0
16890,-0.82955,-0.318305,-1.61288,0
16910,-0.831814,-0.31691,-1.61338,0
16930,-0.83367,-0.315651,-1.61375,0
16950,-0.834779,-0.314668,-1.6146,0
16970,-0.835587,-0.31349,-1.61585,0
16990,-0.836648,-0.312183,-1.6168,0
17010,-0.83784,-0.310778,-1.61785,0
17030,-0.838978,-0.308992,-1.61813,0
17050,-0.839868,-0.307519,-1.61804,0
17070,-0.840774,-0.305792,-1.61846,0
17090,-0.841559,-0.303855,-1.61847,0
17110,-0.842893,-0.301981,-1.61783,0
17130,-0.843606,-0.300459,-1.61707,0
17150,-0.843914,-0.299607,-1.61597,0
17170,-0.844347,-0.298712,-1.61388,0
17190,-0.844702,-0.298363,-1.612,0
17210,-0.844488,-0.298394,-1.61023,0
17230,-0.844646,-0.298504,-1.60856,0
17250,-0.845349,-0.298806,-1.60722,0
17270,-0.845671,-0.298793,-1.60565,0
17290,-0.84595,-0.298568,-1.60397,0
17310,-0.846068,-0.298165,-1.60245,0
17330,-0.847072,-0.297622,-1.60065,0
17350,-0.847897,-0.296974,-1.59927,0
17370,-0.848563,-0.296449,-1.59778,0
17390,-0.849345,-0.296199,-1.59625,0
17410,-0.849549,-0.296219,-1.59504,0
17430,-0.849046,-0.296485,-1.59377,0
17450,-0.849214,-0.296718,-1.59251,0
17470,-0.849511,-0.29685,-1.59131,0
17490,-0.849346,-0.296917,-1.59041,0
17510,-0.848911,-0.297258,-1.58954,1000
17530,-0.849166,-0.298102,-1.58849,0
17550,-0.84887,-0.299257,-1.58742,0
17570,-0.847919,-0.300809,-1.58681,0
17590,-0.846821,-0.302789,-1.58583,0
17610,-0.84667,-0.305072,-1.58483,0
17630,-0.845931,-0.307458,-1.58363,0
17650,-0.844819,-0.310338,-1.58215,0
17670,-0.843544,-0.313554,-1.57992,0
17690,-0.842031,-0.317424,-1.57701,0
17710,-0.840601,-0.322384,-1.5738,0
17730,-0.839659,-0.327371,-1.57012,0
17750,-0.839529,-0.332173,-1.56634,0
17770,-0.839804,-0.337447,-1.56196,0
17790,-0.841008,-0.342691,-1.55763,0
17810,-0.842557,-0.347862,-1.55345,0
17830,-0.843865,-0.352703,-1.54927,0
17850,-0.844161,-0.358022,-1.54532,0
17870,-0.844335,-0.363233,-1.54175,0
17890,-0.844956,-0.368689,-1.53764,0
17910,-0.845636,-0.373889,-1.53342,0
17930,-0.846063,-0.379121,-1.52974,0
17950,-0.847571,-0.383949,-1.52627,0
17970,-0.849764,-0.38889,-1.52251,0
17990,-0.851541,-0.39394,-1.51903,0
18010,-0.853147,-0.398586,-1.51561,0
18030,-0.854937,-0.403284,-1.51222,0
18050,-0.8567,-0.408078,-1.50901,0
18070,-0.858473,-0.412949,-1.50598,0
18090,-0.860101,-0.417302,-1.50285,0
18110,-0.861597,-0.42187,-1.49983,0
18130,-0.862369,-0.426417,-1.49705,0
18150,-0.863238,-0.431325,-1.4942,0
18170,-0.864454,-0.436297,-1.4912,0
18190,-0.86507,-0.441697,-1.48899,0
18210,-0.865692,-0.446766,-1.48625,0
18230,-0.866438,-0.451497,-1.48343,0
18250,-0.866984,-0.45605,-1.48083,0
18270,-0.867772,-0.460708,-1.47866,0
18290,-0.868657,-0.46523,-1.47635,0
18310,-0.868995,-0.470267,-1.47441,0
18330,-0.869333,-0.475339,-1.47268,0
18350,-0.869879,-0.480608,-1.47052,0
18370,-0.87047,-0.486223,-1.46891,0
18390,-0.871216,-0.492029,-1.4677,0
18410,-0.871967,-0.497174,-1.46689,0
18430,-0.872698,-0.502722,-1.4664,0
18450,-0.873096,-0.508261,-1.46649,0
18470,-0.873124,-0.514354,-1.46702,0
18490,-0.873338,-0.520308,-1.46785,0
18510,-0.873537,-0.526363,-1.4691,0
18530,-0.874196,-0.532929,-1.47054,0
18550,-0.874084,-0.539245,-1.47259,0
18570,-0.87416,-0.54586,-1.47463,0
18590,-0.873824,-0.552526,-1.47706,0
18610,-0.873917,-0.559195,-1.4796,0
18630,-0.874564,-0.565764,-1.48208,0
18650,-0.875163,-0.572004,-1.48532,0
18670,-0.876237,-0.578229,-1.48846,0
18690,-0.876519,-0.584584,-1.49194,0
18710,-0.876928,-0.590863,-1.4955,0
18730,-0.877568,-0.597388,-1.49909,0
18750,-0.878516,-0.604008,-1.50253,0
18770,-0.879492,-0.611403,-1.50633,0
18790,-0.879783,-0.619102,-1.51048,0
18810,-0.880355,-0.627048,-1.51469,0
18830,-0.881527,-0.634702,-1.51844,0
18850,-0.883543,-0.64941,-1.52712,0
18870,-0.884323,-0.6564,-1.53185,0
18890,-0.885612,-0.662674,-1.53683,0
18910,-0.88712,-0.66839,-1.54271,0
18930,-0.887803,-0.673375,-1.54963,0
18950,-0.887994,-0.677397,-1.55697,0
18970,-0.888072,-0.68087,-1.56468,0
18990,-0.887506,-0.683686,-1.5732,0
19010,-0.886955,-0.685747,-1.58216,0
19030,-0.886598,-0.687683,-1.59124,0
19050,-0.884516,-0.689812,-1.6016,0
19070,-0.882014,-0.691785,-1.61176,0
19090,-0.879482,-0.693836,-1.62198,0
19110,-0.877501,-0.696411,-1.63157,0
19130,-0.874639,-0.699417,-1.64182,0
19150,-0.87202,-0.701897,-1.65175,0
19170,-0.869277,-0.704211,-1.6618,0
19190,-0.866589,-0.706524,-1.6719,0
19210,-0.862787,-0.708676,-1.68277,0
19230,-0.85914,-0.71078,-1.69399,0
19250,-0.855206,-0.71311,-1.70526,0
19270,-0.851166,-0.715438,-1.71638,0
19290,-0.846785,-0.718114,-1.72807,0
19310,-0.842243,-0.720843,-1.73959,0
19330,-0.837269,-0.723615,-1.75087,0
19350,-0.832187,-0.726489,-1.76253,0
19370,-0.827184,-0.729038,-1.77435,0
19390,-0.822564,-0.730899,-1.78556,0
19410,-0.817897,-0.732437,-1.79708,0
19430,-0.812868,-0.734026,-1.8086,0
19450,-0.807835,-0.73528,-1.82002,0
19470,-0.803208,-0.735935,-1.83177,0
19490,-0.798674,-0.735871,-1.84362,0
19510,-0.793794,-0.735155,-1.85591,0
19520,-0.789435,-0.734163,-1.8675,0
19540,-0.78506,-0.733353,-1.87889,0
19560,-0.779912,-0.73257,-1.89111,0
19580,-0.774328,-0.731315,-1.90354,0
19600,-0.769463,-0.729723,-1.91562,0
19620,-0.764161,-0.727799,-1.92846,0
19640,-0.758778,-0.725304,-1.94175,0
19660,-0.754312,-0.722435,-1.95378,0
19680,-0.750289,-0.719312,-1.96561,0
19700,-0.745874,-0.716251,-1.97746,0
19720,-0.741826,-0.7125,-1.98915,0
19740,-0.738195,-0.708639,-2.00046,0
19760,-0.735387,-0.703628,-2.01128,0
19780,-0.733073,-0.698369,-2.0211,0
19800,-0.731231,-0.693099,-2.0306,0
19820,-0.729883,-0.686971,-2.0395,0
19840,-0.728735,-0.68047,-2.04831,0
19860,-0.728197,-0.673755,-2.05634,0
19880,-0.728421,-0.667719,-2.06326,0
19900,-0.727904,-0.662786,-2.0707,0
19920,-0.726411,-0.659112,-2.07759,0
19940,-0.725479,-0.655415,-2.0829,0
19960,-0.724905,-0.651627,-2.0877,0
19980,-0.725364,-0.648182,-2.09221,0
20000,-0.725842,-0.64443,-2.09617,0
20020,-0.726324,-0.6407,-2.1,0
20040,-0.727042,-0.63692,-2.10313,0
20060,-0.728042,-0.633154,-2.10621,0
20080,-0.72793,-0.629379,-2.1098,0
20100,-0.728908,-0.62488,-2.11251,0
20120,-0.728721,-0.620934,-2.11494,0
20140,-0.728408,-0.617334,-2.11715,0
20160,-0.729711,-0.613042,-2.11882,0
20180,-0.730932,-0.608471,-2.11989,0
20200,-0.732954,-0.604039,-2.12085,0
20220,-0.734481,-0.600167,-2.12175,0
20240,-0.735665,-0.596543,-2.12236,0
20260,-0.736405,-0.593103,-2.12288,0
20280,-0.7381,-0.589466,-2.12289,0
20300,-0.740816,-0.585807,-2.12198,0
20320,-0.742417,-0.582577,-2.12145,0
20340,-0.743581,-0.579329,-2.12063,0
20360,-0.745276,-0.57503,-2.11936,0
20380,-0.747776,-0.569753,-2.1178,0
20400,-0.750018,-0.565178,-2.11718,0
20420,-0.751664,-0.561346,-2.11637,0
20440,-0.753479,-0.557273,-2.11492,0
20460,-0.75566,-0.552911,-2.11311,0
20480,-0.756716,-0.54861,-2.11136,0
20500,-0.757613,-0.544193,-2.1095,0
20520,-0.759162,-0.539223,-2.10686,0
20540,-0.761801,-0.533802,-2.10442,0
20560,-0.764014,-0.528342,-2.10188,0
20580,-0.765839,-0.5234,-2.0986,0
20600,-0.767245,-0.518224,-2.09504,0
20620,-0.768466,-0.513269,-2.09134,0
20640,-0.769546,-0.508286,-2.08791,0
20660,-0.770685,-0.50379,-2.08337,0
20680,-0.772441,-0.499996,-2.07772,0
20700,-0.773681,-0.496464,-2.07206,0
20720,-0.774937,-0.49269,-2.06625,0
20740,-0.776508,-0.488965,-2.05945,0
20760,-0.779473,-0.485833,-2.05198,0
20780,-0.782209,-0.482305,-2.04462,0
20800,-0.785371,-0.478509,-2.03663,0
20820,-0.789441,-0.474503,-2.028,0
20840,-0.792816,-0.470896,-2.01962,0
20860,-0.796051,-0.467474,-2.01107,0
20880,-0.799678,-0.464293,-2.00245,0
20900,-0.803402,-0.460857,-1.99395,0
20920,-0.807094,-0.456967,-1.98569,0
20940,-0.811095,-0.453042,-1.97694,0
20960,-0.81465,-0.44938,-1.96891,0
20980,-0.817608,-0.445352,-1.96204,0
21000,-0.821098,-0.441044,-1.95435,0
21020,-0.825223,-0.436735,-1.94687,0
21040,-0.828323,-0.432663,-1.93942,0
21060,-0.831008,-0.428678,-1.93206,0
21080,-0.834551,-0.424877,-1.92488,0
21100,-0.838144,-0.421147,-1.9176,0
21120,-0.841325,-0.417504,-1.91042,0
21140,-0.844226,-0.414246,-1.90341,0
21160,-0.84708,-0.410575,-1.89622,0
21180,-0.849487,-0.407136,-1.88951,0
21200,-0.852038,-0.403327,-1.88312,0
21220,-0.854567,-0.399658,-1.87612,0
21240,-0.857134,-0.396279,-1.86903,0
21260,-0.859381,-0.393132,-1.86205,0
21280,-0.862034,-0.390504,-1.85428,0
21300,-0.864608,-0.388177,-1.84621,0
21320,-0.867607,-0.386493,-1.83772,0
21340,-0.870808,-0.385381,-1.82921,0
21360,-0.8738,-0.385018,-1.81976,0
21380,-0.8773,-0.385046,-1.80929,0
21400,-0.88062,-0.38456,-1.79914,0
21420,-0.883234,-0.384427,-1.78956,0
21440,-0.886655,-0.384265,-1.77951,0
21460,-0.89153,-0.383469,-1.76983,0
21480,-0.895284,-0.383685,-1.76115,0
21500,-0.898499,-0.38387,-1.75227,0
21510,-0.901885,-0.384056,-1.74322,0
21530,-0.905359,-0.383654,-1.7333,0
21550,-0.908685,-0.383189,-1.72285,0
21570,-0.91308,-0.38313,-1.71158,0
21590,-0.918417,-0.38303,-1.69968,0
21610,-0.924267,-0.383573,-1.68799,0
21630,-0.929799,-0.384566,-1.6757,0
21650,-0.935693,-0.385921,-1.66301,0
21670,-0.940958,-0.387759,-1.65061,0
21690,-0.94517,-0.39002,-1.6384,0
21710,-0.950227,-0.393151,-1.62538,0
21730,-0.955658,-0.396377,-1.61222,0
21750,-0.960241,-0.399807,-1.59963,0
21770,-0.965156,-0.403904,-1.58712,0
21790,-0.970676,-0.407941,-1.57467,0
21810,-0.975359,-0.411517,-1.56275,0
21830,-0.980728,-0.414402,-1.55069,0
21850,-0.986147,-0.416964,-1.53895,0
21870,-0.989888,-0.418834,-1.52805,0
21890,-0.992927,-0.420718,-1.51757,0
21910,-0.997521,-0.423066,-1.50638,0
21930,-1.00293,-0.425467,-1.49564,0
21950,-1.00758,-0.427627,-1.48522,0
21970,-1.01215,-0.43062,-1.47527,0
21990,-1.01655,-0.434006,-1.46579,0
22010,-1.02005,-0.437667,-1.45676,0
22030,-1.02305,-0.441708,-1.44762,0
22050,-1.027,-0.445668,-1.43837,0
22070,-1.0305,-0.450536,-1.42988,0
22090,-1.03384,-0.455389,-1.42134,0
22110,-1.03747,-0.459905,-1.4132,0
22130,-1.0419,-0.46436,-1.40531,0
22150,-1.04555,-0.468861,-1.39758,0
22170,-1.04838,-0.473861,-1.39109,0
22190,-1.05148,-0.479554,-1.38501,0
22210,-1.05521,-0.485493,-1.37853,0
22230,-1.05726,-0.492398,-1.3731,0
22250,-1.05955,-0.500066,-1.36804,0
22270,-1.06236,-0.508045,-1.36295,0
22290,-1.06446,-0.516504,-1.35789,0
22310,-1.06666,-0.525691,-1.35317,0
22330,-1.06902,-0.535551,-1.34885,0
22350,-1.07092,-0.546484,-1.3446,0
22370,-1.07361,-0.55778,-1.34038,0
22390,-1.07728,-0.5684,-1.33597,0
22410,-1.0806,-0.579735,-1.33249,0
22430,-1.08419,-0.592181,-1.32924,0
22450,-1.08867,-0.604142,-1.32568,0
22470,-1.09376,-0.616039,-1.3227,0
22490,-1.09727,-0.628215,-1.3213,0
22510,-1.10135,-0.640562,-1.3204,0
22530,-1.10607,-0.652272,-1.31989,0
22550,-1.11031,-0.663901,-1.32073,0
22570,-1.11453,-0.675359,-1.32166,0
22590,-1.11799,-0.686905,-1.32319,0
22610,-1.12105,-0.699581,-1.32473,0
22630,-1.12402,-0.711885,-1.32647,0
22650,-1.12728,-0.724699,-1.32838,0
22680,-1.13408,-0.750747,-1.33079,0
22700,-1.13729,-0.763389,-1.33274,0
22720,-1.14093,-0.775746,-1.33521,0
22740,-1.14459,-0.787193,-1.33815,0
22760,-1.14768,-0.797795,-1.34194,0
22780,-1.15051,-0.808116,-1.34725,0
22800,-1.15218,-0.817694,-1.35414,0
22820,-1.15376,-0.82645,-1.36179,0
22840,-1.15402,-0.834525,-1.37052,0
22860,-1.15272,-0.842392,-1.38123,0
22880,-1.15084,-0.849742,-1.39342,0
22900,-1.14833,-0.856496,-1.40656,0
22920,-1.14463,-0.862775,-1.42113,0
22940,-1.14011,-0.868093,-1.43735,0
22960,-1.13515,-0.873186,-1.45445,0
22980,-1.13006,-0.877879,-1.47228,0
23000,-1.12317,-0.882275,-1.49144,0
23020,-1.11473,-0.886958,-1.51246,0
23040,-1.10555,-0.891462,-1.53444,0
23060,-1.096,-0.89553,-1.55657,0
23080,-1.08656,-0.899678,-1.5785,0
23100,-1.07638,-0.903548,-1.60074,0
23120,-1.06617,-0.907089,-1.62252,0
23140,-1.0565,-0.910385,-1.64412,0
23160,-1.04634,-0.913627,-1.66534,0
23180,-1.03657,-0.916168,-1.68577,0
23200,-1.02743,-0.917346,-1.70631,0
23220,-1.01933,-0.917399,-1.72621,0
23240,-1.01042,-0.916054,-1.74682,0
23260,-1.00237,-0.913691,-1.76632,0
23280,-0.993253,-0.910925,-1.78702,0
23300,-0.982393,-0.909022,-1.8082,0
23320,-0.973025,-0.907252,-1.82742,0
23340,-0.964082,-0.904353,-1.84773,0
23360,-0.954659,-0.90023,-1.86813,0
23380,-0.944484,-0.895598,-1.88799,0
23400,-0.934713,-0.890983,-1.9059,0
23420,-0.92637,-0.886601,-1.92099,0
23440,-0.918557,-0.882144,-1.93519,0
23460,-0.911365,-0.87742,-1.94846,0
23480,-0.906341,-0.87274,-1.95957,0
23500,-0.90299,-0.867946,-1.96888,0
23520,-0.900784,-0.862108,-1.97673,0
23540,-0.897917,-0.855271,-1.98489,0
23560,-0.895278,-0.848914,-1.9923,0
23580,-0.894453,-0.84203,-1.99831,0
23600,-0.892887,-0.834529,-2.00504,0
23620,-0.890227,-0.826234,-2.01352,0
23640,-0.888122,-0.817856,-2.02051,0
23660,-0.886268,-0.809278,-2.02584,0
23680,-0.883661,-0.801002,-2.03008,0
23700,-0.882711,-0.792777,-2.03386,0
23720,-0.881813,-0.783893,-2.03816,0
23740,-0.882418,-0.774103,-2.04071,0
23760,-0.882245,-0.76416,-2.04307,0
23780,-0.880643,-0.755237,-2.04501,0
23800,-0.879986,-0.747138,-2.04584,0
23820,-0.879543,-0.738202,-2.04662,0
23840,-0.879402,-0.728896,-2.04645,0
23860,-0.878316,-0.720002,-2.04603,0
23880,-0.877587,-0.711783,-2.04498,0
23900,-0.877489,-0.704058,-2.04278,0
23920,-0.877174,-0.696919,-2.04018,0
23940,-0.878263,-0.690246,-2.0364,0
23960,-0.879662,-0.683633,-2.03202,0
23980,-0.881026,-0.677456,-2.02788,0
24000,-0.882277,-0.67163,-2.02413,0
24020,-0.885202,-0.665424,-2.01946,0
24040,-0.889672,-0.658439,-2.01383,0
24060,-0.893916,-0.651502,-2.00803,0
24080,-0.897681,-0.645234,-2.00194,0
24100,-0.901226,-0.639257,-1.99598,0
24120,-0.904871,-0.632923,-1.98975,0
24140,-0.907655,-0.626561,-1.98388,0
24160,-0.911516,-0.619972,-1.97757,0
24180,-0.915476,-0.612722,-1.97066,0
24200,-0.91921,-0.606134,-1.96325,0
24220,-0.921912,-0.599674,-1.95629,0
24240,-0.923745,-0.593099,-1.94874,0
24260,-0.925802,-0.587748,-1.94015,0
24280,-0.928906,-0.583258,-1.93091,0
24300,-0.932234,-0.5783,-1.92083,0
24320,-0.93579,-0.573775,-1.90968,0
24340,-0.938782,-0.570247,-1.89764,0
24360,-0.942054,-0.567861,-1.88437,0
24380,-0.948218,-0.565838,-1.86959,0
24400,-0.954393,-0.563429,-1.85443,0
24420,-0.960619,-0.560936,-1.83876,0
24440,-0.9683,-0.559064,-1.82207,0
24460,-0.975715,-0.55686,-1.80591,0
24480,-0.983002,-0.55365,-1.78981,0
24500,-0.991057,-0.550325,-1.7735,0
24520,-0.999048,-0.547278,-1.75749,0
24540,-1.00718,-0.543683,-1.74123,0
24560,-1.01449,-0.540122,-1.72536,0
24580,-1.02136,-0.536508,-1.70985,0
24600,-1.02817,-0.533691,-1.69415,0
24620,-1.03472,-0.531777,-1.67811,0
24640,-1.04166,-0.529329,-1.66228,0
24660,-1.0486,-0.527404,-1.64615,0
24680,-1.05601,-0.526661,-1.62949,0
24700,-1.06323,-0.52666,-1.61311,0
24720,-1.07037,-0.526412,-1.59714,0
24740,-1.07815,-0.526503,-1.58116,0
24760,-1.08652,-0.528001,-1.56521,0
24780,-1.09514,-0.530566,-1.54992,0
24810,-1.10965,-0.536528,-1.52017,0
24830,-1.11573,-0.541071,-1.50629,0
24850,-1.12157,-0.545646,-1.49349,0
24870,-1.12816,-0.549921,-1.48033,0
24880,-1.13681,-0.554262,-1.46732,0
24900,-1.14444,-0.558314,-1.45525,0
24920,-1.15147,-0.562343,-1.44318,0
24940,-1.15951,-0.566277,-1.43073,0
24960,-1.16695,-0.570189,-1.41898,0
24980,-1.17305,-0.574334,-1.40713,0
25000,-1.18004,-0.579033,-1.39523,0
25020,-1.18604,-0.583897,-1.38409,0
25040,-1.19008,-0.589399,-1.37388,0
25060,-1.19317,-0.595723,-1.36363,0
25080,-1.19817,-0.602083,-1.35292,0
25100,-1.20226,-0.608792,-1.34267,0
25120,-1.20604,-0.616182,-1.33239,0
25140,-1.21095,-0.624714,-1.32127,0
25160,-1.2163,-0.633227,-1.30994,0
25180,-1.21966,-0.642465,-1.29931,0
25200,-1.2243,-0.65205,-1.28777,0
25220,-1.2319,-0.661646,-1.27534,0
25240,-1.23915,-0.671523,-1.26397,0
25260,-1.24511,-0.681405,-1.25314,0
25280,-1.25194,-0.691669,-1.24139,0
25300,-1.26046,-0.702673,-1.22988,0
25320,-1.26902,-0.713493,-1.21876,0
25340,-1.27614,-0.725805,-1.20877,0
25360,-1.28393,-0.738809,-1.19804,0
25380,-1.29295,-0.752085,-1.18839,0
25400,-1.30148,-0.765871,-1.17932,0
25420,-1.31022,-0.779924,-1.17097,0
25440,-1.31848,-0.793527,-1.16389,0
25460,-1.3274,-0.807761,-1.15703,0
25480,-1.33635,-0.822229,-1.15171,0
25500,-1.34451,-0.836168,-1.1483,0
25520,-1.35295,-0.850052,-1.14647,0
25540,-1.36147,-0.862841,-1.14617,0
25560,-1.36806,-0.87558,-1.14847,0
25580,-1.37348,-0.888436,-1.15145,0
25600,-1.37747,-0.901486,-1.15627,0
25620,-1.38015,-0.914373,-1.16365,0
25640,-1.38181,-0.927386,-1.17261,0
25660,-1.38253,-0.940213,-1.18324,0
25680,-1.38163,-0.952609,-1.19553,0
25700,-1.38004,-0.965169,-1.20847,0
25720,-1.37828,-0.977379,-1.22197,0
25740,-1.37588,-0.98935,-1.23607,0
25760,-1.37243,-1.00132,-1.25131,0
25780,-1.36869,-1.01293,-1.26709,0
25800,-1.36374,-1.02462,-1.28373,0
25820,-1.35814,-1.03578,-1.30101,0
25840,-1.35192,-1.04631,-1.31897,0
25860,-1.34326,-1.05607,-1.33818,0
25880,-1.33388,-1.06613,-1.35808,0
25900,-1.32299,-1.07571,-1.37934,0
25920,-1.31138,-1.08408,-1.40024,0
25940,-1.29971,-1.09158,-1.42197,0
25960,-1.28698,-1.09786,-1.44517,0
25980,-1.27277,-1.10243,-1.46985,0
26000,-1.25661,-1.10597,-1.49692,0
26020,-1.23983,-1.10824,-1.52305,0
26040,-1.22066,-1.10894,-1.55128,0
26060,-1.19977,-1.10859,-1.58186,0
26080,-1.1796,-1.10634,-1.61198,0
26100,-1.1573,-1.10291,-1.64355,0
26120,-1.13402,-1.09973,-1.67565,0
26140,-1.11027,-1.09612,-1.70676,0
26160,-1.08745,-1.09058,-1.7374,0
26180,-1.06388,-1.08404,-1.76832,0
26200,-1.04003,-1.0766,-1.79897,0
26220,-1.01872,-1.06892,-1.82725,0
26240,-1.00126,-1.061,-1.85187,0
26260,-0.984691,-1.05256,-1.87509,0
26280,-0.968484,-1.04465,-1.89669,0
26300,-0.955136,-1.03722,-1.91481,0
26320,-0.942453,-1.02871,-1.93147,0
26340,-0.932562,-1.01832,-1.94495,0
26360,-0.923104,-1.00808,-1.95805,0
26380,-0.914247,-0.998196,-1.96957,0
26400,-0.908889,-0.988819,-1.97742,0
26420,-0.906107,-0.978398,-1.98218,0
26440,-0.904732,-0.967757,-1.98568,0
26460,-0.905301,-0.957114,-1.98777,0
26480,-0.906791,-0.946286,-1.98841,0
26500,-0.908888,-0.935535,-1.98723,0
26520,-0.911452,-0.924729,-1.98479,0
26540,-0.915444,-0.913257,-1.98249,0
26560,-0.919854,-0.901846,-1.97929,0
26580,-0.925153,-0.890517,-1.97482,0
26600,-0.930056,-0.880244,-1.96975,0
26620,-0.934262,-0.87053,-1.96491,0
26640,-0.939452,-0.86064,-1.9606,0
26660,-0.946076,-0.850149,-1.95715,0
26680,-0.951773,-0.838733,-1.95361,0
26700,-0.956623,-0.828179,-1.95096,0
26720,-0.961125,-0.818385,-1.94811,0
26730,-0.963837,-0.808831,-1.94586,0
26760,-0.965266,-0.799548,-1.94378,0
26780,-0.967197,-0.79053,-1.94119,0
26800,-0.971086,-0.781499,-1.93794,0
26820,-0.974,-0.772685,-1.93508,0
26840,-0.97775,-0.764063,-1.93023,0
26860,-0.982081,-0.756394,-1.92489,0
26870,-0.986403,-0.747995,-1.9195,0
26890,-0.990524,-0.739978,-1.91304,0
26910,-0.995882,-0.733532,-1.90524,0
26930,-1.00155,-0.727453,-1.89613,0
26950,-1.00675,-0.721565,-1.887,0
26970,-1.01189,-0.715443,-1.87729,0
26990,-1.01866,-0.709724,-1.86688,0
27010,-1.02512,-0.703932,-1.85672,0
27030,-1.03056,-0.697095,-1.84705,0
27050,-1.03553,-0.69046,-1.83736,0
27070,-1.0416,-0.684333,-1.82703,0
27090,-1.04805,-0.67801,-1.81657,0
27110,-1.0548,-0.672364,-1.80578,0
27130,-1.06201,-0.666334,-1.79449,0
27150,-1.06901,-0.66113,-1.78355,0
27170,-1.07567,-0.65704,-1.77277,0
27190,-1.08329,-0.653152,-1.76212,0
27210,-1.08955,-0.649224,-1.75147,0
27230,-1.09466,-0.646918,-1.73988,0
27250,-1.10009,-0.645407,-1.728,0
27270,-1.10676,-0.643577,-1.71547,0
27290,-1.11455,-0.641777,-1.70296,0
27310,-1.12237,-0.640603,-1.69039,0
27330,-1.12997,-0.639082,-1.67787,0
27350,-1.13674,-0.637716,-1.66478,0
27380,-1.14899,-0.636764,-1.63849,0
27400,-1.15525,-0.637318,-1.6253,0
27420,-1.16155,-0.637717,-1.61303,0
27440,-1.16702,-0.637204,-1.6006,0
27460,-1.17265,-0.638005,-1.58773,0
27470,-1.17847,-0.639632,-1.57522,0
27490,-1.18383,-0.640767,-1.56296,0
27510,-1.18874,-0.641835,-1.55005,0
27530,-1.19451,-0.643213,-1.53715,0
27550,-1.20098,-0.644467,-1.52483,0
27570,-1.2069,-0.645632,-1.51291,0
27590,-1.21233,-0.646724,-1.50086,0
27610,-1.21777,-0.648357,-1.48859,0
27630,-1.22432,-0.650243,-1.47605,0
27650,-1.23116,-0.652046,-1.46394,0
27670,-1.23787,-0.654307,-1.45232,0
27690,-1.24491,-0.656682,-1.44022,0
27710,-1.25081,-0.659434,-1.42855,0
27730,-1.2564,-0.662926,-1.41659,0
27750,-1.26287,-0.667469,-1.4038,0
27770,-1.26944,-0.672465,-1.39177,0
27790,-1.27561,-0.677705,-1.37939,0
27810,-1.28292,-0.684469,-1.36667,0
27830,-1.29003,-0.691233,-1.35431,0
27850,-1.29575,-0.698129,-1.34211,0
27870,-1.30129,-0.705791,-1.3293,0
27890,-1.30828,-0.714488,-1.31535,0
27910,-1.31556,-0.723782,-1.30149,0
27930,-1.32202,-0.73292,-1.28785,0
27950,-1.32783,-0.742417,-1.27421,0
27970,-1.33464,-0.752836,-1.25953,0
27990,-1.34388,-0.762468,-1.24354,0
28010,-1.35192,-0.771982,-1.22821,0
28030,-1.36047,-0.781689,-1.21372,0
28050,-1.36957,-0.790528,-1.19937,0
28070,-1.37944,-0.799054,-1.18467,0
28090,-1.39046,-0.807483,-1.1694,0
28110,-1.40159,-0.816823,-1.15433,0
28130,-1.41236,-0.826236,-1.13958,0
28150,-1.4243,-0.835138,-1.12458,0
28170,-1.43682,-0.843571,-1.10946,0
28190,-1.44948,-0.852084,-1.09445,0
28210,-1.46294,-0.860628,-1.08002,0
28230,-1.47484,-0.869768,-1.06637,0
28250,-1.48556,-0.878703,-1.05318,0
28270,-1.49621,-0.887834,-1.04125,0
28290,-1.50626,-0.896703,-1.03067,0
28310,-1.5153,-0.906215,-1.0225,0
28330,-1.52331,-0.915207,-1.01489,0
28350,-1.53062,-0.923404,-1.00892,0
28370,-1.53587,-0.93164,-1.00519,0
28390,-1.53983,-0.940412,-1.00305,0
28410,-1.54339,-0.948546,-1.00166,0
28430,-1.5462,-0.957062,-1.0021,0
28450,-1.54792,-0.965239,-1.00381,0
28470,-1.54854,-0.97234,-1.00672,0
28490,-1.54705,-0.979275,-1.01276,0
28510,-1.54338,-0.985834,-1.0211,0
28530,-1.53877,-0.991196,-1.03006,0
28550,-1.53259,-0.995524,-1.04079,0
28570,-1.52547,-0.998943,-1.05221,0
28590,-1.51708,-1.00185,-1.06516,1001
28610,-1.50914,-1.00308,-1.07747,0
28630,-1.49999,-1.00364,-1.08995,0
28650,-1.49202,-1.00489,-1.10072,0
28670,-1.48471,-1.00538,-1.10964,0
28690,-1.47862,-1.00629,-1.11719,0
28710,-1.47512,-1.00683,-1.12222,0
28730,-1.473,-1.00656,-1.12562,0
28750,-1.47216,-1.00615,-1.1278,0
28770,-1.47126,-1.00593,-1.12921,0
28790,-1.47002,-1.00598,-1.13081,0
28810,-1.46945,-1.00582,-1.13191,0
28830,-1.46941,-1.00457,-1.13291,0
28850,-1.46999,-1.00345,-1.13324,0
28870,-1.46979,-1.00288,-1.13366,0
28890,-1.47076,-1.00275,-1.13286,0
28910,-1.47205,-1.00237,-1.13118,0
28930,-1.47265,-1.00259,-1.13076,0
28950,-1.47253,-1.00325,-1.13087,0
28970,-1.47187,-1.00344,-1.13168,0
28990,-1.47085,-1.00375,-1.13176,0
29010,-1.46813,-1.00433,-1.13266,0
29030,-1.46522,-1.00488,-1.13516,0
29050,-1.46285,-1.00409,-1.13727,0
29070,-1.46227,-1.00276,-1.1394,0
29090,-1.46085,-1.00074,-1.14185,0
29110,-1.4585,-0.998629,-1.14429,0
29130,-1.45668,-0.995903,-1.14705,0
29150,-1.45288,-0.992753,-1.15286,0
29170,-1.44404,-0.988961,-1.16147,0
29190,-1.432,-0.982437,-1.1711,0
29210,-1.41883,-0.971716,-1.1825,0
29230,-1.4032,-0.956634,-1.19898,0
29250,-1.38003,-0.938411,-1.22167,0
29270,-1.34825,-0.91743,-1.24897,0
29290,-1.31161,-0.893164,-1.27967,0
29310,-1.27771,-0.864694,-1.31141,0
29330,-1.23899,-0.834504,-1.34794,0
29350,-1.1971,-0.799533,-1.38393,0
29370,-1.15981,-0.761742,-1.41511,0
29390,-1.12585,-0.728967,-1.44042,0
29410,-1.09432,-0.694141,-1.45999,0
29430,-1.07146,-0.658072,-1.47332,0
29450,-1.0558,-0.624886,-1.48099,0
29470,-1.04475,-0.594859,-1.48309,0
29490,-1.03828,-0.565993,-1.48032,0
29510,-1.03495,-0.539065,-1.47329,0
29530,-1.03246,-0.515387,-1.46557,0
29550,-1.03126,-0.496046,-1.45635,0
29570,-1.03226,-0.478688,-1.44541,0
29590,-1.03429,-0.463843,-1.43501,0
29610,-1.03557,-0.451376,-1.42545,0
29630,-1.0383,-0.438338,-1.41723,0
29650,-1.04327,-0.42365,-1.41087,0
29670,-1.04635,-0.408493,-1.40694,0
29690,-1.04894,-0.392108,-1.40426,0
29710,-1.0513,-0.375037,-1.40164,0
29730,-1.05021,-0.360186,-1.40014,0
29750,-1.04788,-0.346746,-1.3999,0
29770,-1.04611,-0.334663,-1.3995,0
29790,-1.04155,-0.325687,-1.39872,0
29810,-1.03765,-0.319565,-1.39642,0
29830,-1.03352,-0.315755,-1.39359,0
29850,-1.03009,-0.313488,-1.39048,0
29870,-1.02767,-0.311618,-1.38655,0
29890,-1.02544,-0.310769,-1.38262,0
29910,-1.02393,-0.310589,-1.37882,0
29930,-1.02237,-0.310954,-1.37439,0
29950,-1.02089,-0.312041,-1.37064,0
29970,-1.0199,-0.313715,-1.36796,0
29990,-1.01895,-0.315432,-1.3649,0
30010,-1.01971,-0.317376,-1.3609,0
30030,-1.0205,-0.320723,-1.35665,0
30050,-1.02086,-0.325092,-1.35219,0
30070,-1.02035,-0.330749,-1.34668,1000
30090,-1.0206,-0.337499,-1.33973,0
30110,-1.02244,-0.345122,-1.33207,0
30130,-1.02438,-0.35293,-1.32414,0
30150,-1.0264,-0.361102,-1.31567,0
30170,-1.02976,-0.369861,-1.30591,0
30190,-1.03379,-0.378702,-1.29469,0
30210,-1.03742,-0.387753,-1.28324,0
30230,-1.04097,-0.397314,-1.27129,0
30250,-1.04474,-0.407143,-1.25924,0
30260,-1.04929,-0.417124,-1.24666,0
30280,-1.05322,-0.427509,-1.23487,0
30300,-1.05748,-0.437262,-1.22262,0
30320,-1.06215,-0.446867,-1.21067,0
30340,-1.06737,-0.456363,-1.1982,0
30360,-1.07203,-0.465662,-1.18704,0
30380,-1.07683,-0.474479,-1.17626,0
30400,-1.08198,-0.483151,-1.16591,0
30420,-1.08803,-0.492172,-1.15629,0
30440,-1.0943,-0.500537,-1.14729,0
30460,-1.0998,-0.510001,-1.13973,0
30480,-1.10484,-0.519667,-1.13288,0
30500,-1.1101,-0.529435,-1.12676,0
30520,-1.11583,-0.539514,-1.12143,0
30540,-1.12131,-0.55041,-1.1176,0
30560,-1.12639,-0.561615,-1.11532,0
30580,-1.13241,-0.572085,-1.1133,0
30600,-1.13783,-0.582886,-1.11198,0
30620,-1.14328,-0.593665,-1.11147,0
30640,-1.14872,-0.604523,-1.11193,0
30660,-1.15416,-0.615005,-1.11324,0
30680,-1.15895,-0.625302,-1.11497,0
30700,-1.16361,-0.635509,-1.11784,0
30720,-1.16955,-0.645285,-1.12043,0
30740,-1.17549,-0.655018,-1.12413,0
30760,-1.18112,-0.664952,-1.12864,0
30780,-1.18667,-0.674914,-1.13366,0
30800,-1.19202,-0.684884,-1.13845,0
30820,-1.19722,-0.695079,-1.14387,0
30840,-1.20303,-0.705259,-1.14972,0
30860,-1.20882,-0.715139,-1.15577,0
30880,-1.21458,-0.725076,-1.16241,0
30910,-1.23092,-0.754293,-1.18374,0
30930,-1.2356,-0.763749,-1.19229,0
30950,-1.23927,-0.772754,-1.20239,0
30970,-1.24158,-0.780967,-1.21398,0
30990,-1.24228,-0.788893,-1.22756,0
31010,-1.24143,-0.795989,-1.24349,0
31030,-1.23884,-0.801994,-1.26185,0
31050,-1.23442,-0.806705,-1.28258,0
31070,-1.22813,-0.81063,-1.30539,0
31090,-1.21983,-0.814029,-1.3304,0
31110,-1.2108,-0.816642,-1.35603,0
31130,-1.20155,-0.818522,-1.38201,0
31150,-1.19098,-0.821064,-1.4092,0
31170,-1.1794,-0.823517,-1.43691,0
31190,-1.16759,-0.82519,-1.46439,0
31210,-1.15569,-0.826415,-1.49119,0
31230,-1.14264,-0.828154,-1.51878,0
31250,-1.12902,-0.829673,-1.54696,0
31270,-1.1152,-0.830166,-1.57544,0
31290,-1.10184,-0.829788,-1.60332,0
31310,-1.08746,-0.828882,-1.63102,0
31330,-1.07193,-0.827439,-1.65906,0
31350,-1.05677,-0.825718,-1.68671,0
31370,-1.04291,-0.822858,-1.71287,0
31390,-1.03009,-0.818956,-1.73762,0
31410,-1.01663,-0.815177,-1.76214,0
31430,-1.00375,-0.811141,-1.78495,0
31450,-0.991094,-0.806558,-1.80748,0
31470,-0.978712,-0.801693,-1.82914,0
31490,-0.966415,-0.796646,-1.84984,0
31510,-0.955288,-0.79156,-1.86908,0
31530,-0.945668,-0.786409,-1.8862,0
31550,-0.935874,-0.781587,-1.90274,0
31570,-0.926601,-0.776906,-1.91742,0
31590,-0.919573,-0.77222,-1.92951,0
31610,-0.912199,-0.767218,-1.9417,0
31630,-0.905787,-0.762285,-1.95347,0
31650,-0.901657,-0.756145,-1.96352,0
31670,-0.898369,-0.749846,-1.97273,0
31690,-0.893267,-0.743388,-1.98206,0
31710,-0.888492,-0.736649,-1.99116,0
31730,-0.884212,-0.728994,-1.9998,0
31750,-0.879894,-0.72183,-2.00819,0
31770,-0.875925,-0.715013,-2.01543,0
31790,-0.872108,-0.708805,-2.02217,0
31810,-0.868737,-0.702863,-2.02836,0
31830,-0.864909,-0.696747,-2.0342,0
31850,-0.861684,-0.690743,-2.03938,0
31870,-0.859482,-0.685343,-2.04365,0
31890,-0.85681,-0.680049,-2.04732,0
31910,-0.853402,-0.67503,-2.05043,0
31930,-0.850878,-0.670844,-2.0521,0
31950,-0.848854,-0.666844,-2.0526,0
31970,-0.847751,-0.662786,-2.05187,0
31990,-0.847487,-0.658375,-2.05051,0
32010,-0.847599,-0.653655,-2.04816,0
32030,-0.847659,-0.648873,-2.04551,0
32050,-0.848474,-0.644699,-2.04229,0
32070,-0.84969,-0.640502,-2.03797,0
32090,-0.85036,-0.636501,-2.03456,0
32110,-0.849816,-0.632164,-2.03171,0
32130,-0.84992,-0.627965,-2.02862,0
32150,-0.850463,-0.623774,-2.02506,0
32170,-0.851466,-0.619313,-2.02142,0
32190,-0.851051,-0.614794,-2.01884,0
32210,-0.849731,-0.610549,-2.01611,0
32220,-0.849418,-0.605556,-2.01206,0
32240,-0.850303,-0.600427,-2.00779,0
32260,-0.850589,-0.595672,-2.00381,0
32280,-0.850234,-0.591,-1.99949,0
32300,-0.850539,-0.586151,-1.99517,0
32320,-0.85019,-0.581445,-1.99084,0
32340,-0.849784,-0.576736,-1.9869,0
32360,-0.849388,-0.572168,-1.9823,0
32380,-0.848884,-0.567923,-1.97728,0
32400,-0.848255,-0.564399,-1.97199,0
32420,-0.847523,-0.560663,-1.96634,0
32440,-0.847502,-0.556735,-1.96021,0
32460,-0.847778,-0.552336,-1.95371,0
32480,-0.84818,-0.547918,-1.94684,0
32500,-0.84903,-0.543394,-1.9399,0
32520,-0.850813,-0.53872,-1.93254,0
32540,-0.851718,-0.533933,-1.9256,0
32560,-0.852327,-0.52937,-1.91879,0
32580,-0.85309,-0.525344,-1.91108,0
32600,-0.854069,-0.521213,-1.90348,0
32620,-0.854297,-0.516924,-1.89634,0
32640,-0.855667,-0.512827,-1.88857,0
32660,-0.857399,-0.50875,-1.88047,0
32680,-0.859142,-0.504595,-1.87222,0
32700,-0.861558,-0.500214,-1.86357,0
32720,-0.864733,-0.495479,-1.85438,0
32740,-0.867141,-0.491128,-1.84544,0
32760,-0.869441,-0.487045,-1.83597,0
32780,-0.872233,-0.483452,-1.82625,0
32800,-0.87482,-0.479793,-1.81656,0
32820,-0.877197,-0.476624,-1.8068,0
32840,-0.879807,-0.473799,-1.7969,0
32860,-0.883005,-0.470699,-1.78639,0
32880,-0.886189,-0.467537,-1.77578,0
32900,-0.889215,-0.464102,-1.7653,0
32920,-0.892898,-0.461256,-1.75395,0
32940,-0.896842,-0.458219,-1.74224,0
32960,-0.899875,-0.455271,-1.73044,0
32980,-0.903688,-0.452897,-1.71751,0
33000,-0.907795,-0.450951,-1.70423,0
33020,-0.911248,-0.448746,-1.69039,0
33040,-0.915171,-0.447176,-1.67597,0
33060,-0.919606,-0.445958,-1.66082,0
33080,-0.924137,-0.445006,-1.64485,0
33100,-0.929183,-0.443633,-1.6284,0
33120,-0.93499,-0.442758,-1.61178,0
33140,-0.941409,-0.442232,-1.5947,0
33160,-0.94838,-0.442174,-1.57729,0
33180,-0.955256,-0.442486,-1.56011,0
33200,-0.961249,-0.443431,-1.5434,0
33220,-0.967822,-0.444775,-1.5262,0
33240,-0.974757,-0.446026,-1.50897,0
33260,-0.980562,-0.448149,-1.49271,0
33280,-0.985967,-0.450511,-1.47629,0
33300,-0.991409,-0.453103,-1.45963,0
33320,-0.995712,-0.456245,-1.44336,0
33340,-1.00009,-0.459275,-1.42656,0
33360,-1.00575,-0.462119,-1.40874,0
33380,-1.0121,-0.465728,-1.39064,0
33400,-1.01875,-0.46931,-1.37139,0
33420,-1.02573,-0.473609,-1.35176,0
33440,-1.03383,-0.478829,-1.33181,0
33460,-1.04237,-0.484543,-1.31191,0
33480,-1.04984,-0.491302,-1.29212,0
33500,-1.05947,-0.498941,-1.27132,0
33520,-1.06892,-0.506747,-1.2509,0
33540,-1.07696,-0.516179,-1.23201,0
33560,-1.08595,-0.52598,-1.21301,0
33580,-1.09556,-0.535442,-1.19432,0
33600,-1.105,-0.544638,-1.17658,0
33620,-1.11357,-0.554419,-1.15987,0
33640,-1.12285,-0.563479,-1.14288,0
33660,-1.13258,-0.572185,-1.12572,0
33680,-1.14277,-0.581212,-1.10914,0
33700,-1.15192,-0.589857,-1.09327,0
33720,-1.16051,-0.598238,-1.07811,0
33740,-1.17043,-0.606037,-1.06246,0
33760,-1.17958,-0.614105,-1.04785,0
33780,-1.18889,-0.622435,-1.03353,0
33800,-1.19954,-0.630705,-1.01903,0
33820,-1.20964,-0.639624,-1.0053,0
33840,-1.21921,-0.648575,-0.992716,0
33860,-1.22884,-0.657803,-0.980888,0
33880,-1.23898,-0.668299,-0.968976,0
33900,-1.24939,-0.678903,-0.957584,0
33920,-1.26019,-0.690059,-0.946062,0
33940,-1.27166,-0.701563,-0.934074,0
33960,-1.28349,-0.714123,-0.92246,0
33980,-1.29599,-0.72728,-0.911357,0
34000,-1.3105,-0.740443,-0.899321,0
34020,-1.32571,-0.753696,-0.887018,0
34040,-1.34078,-0.767231,-0.875315,0
34060,-1.35689,-0.780418,-0.862641,0
34080,-1.37379,-0.793616,-0.851439,0
34100,-1.39157,-0.806379,-0.839352,0
34120,-1.4092,-0.8192,-0.828401,0
34140,-1.42741,-0.832023,-0.817984,0
34160,-1.44643,-0.844817,-0.807696,0
34180,-1.46611,-0.857022,-0.797817,0
34190,-1.4854,-0.86908,-0.788282,0
34210,-1.50446,-0.881127,-0.780183,0
34230,-1.52362,-0.892705,-0.772204,0
34250,-1.54224,-0.903901,-0.764951,0
34280,-1.57852,-0.926121,-0.753816,0
34300,-1.59491,-0.936434,-0.75004,0
34320,-1.61049,-0.946219,-0.747283,0
34340,-1.62548,-0.956057,-0.746242,0
34360,-1.63932,-0.965431,-0.745921,0
34380,-1.65203,-0.974587,-0.745993,0
34400,-1.66282,-0.984044,-0.748562,0
34420,-1.67279,-0.992948,-0.752011,0
34440,-1.68224,-1.0016,-0.756277,0
34460,-1.68947,-1.00983,-0.762434,0
34480,-1.69588,-1.0182,-0.769687,0
34500,-1.7007,-1.02651,-0.778389,0
34520,-1.70496,-1.03462,-0.78725,0
34540,-1.70866,-1.04281,-0.796886,0
34560,-1.71253,-1.05114,-0.806396,0
34580,-1.71618,-1.05956,-0.816164,0
34600,-1.71877,-1.06761,-0.826641,0
34620,-1.7215,-1.07576,-0.837218,0
34640,-1.7233,-1.08455,-0.849168,0
34660,-1.72363,-1.09306,-0.862246,0
34690,-1.70438,-1.12737,-0.93381,0
34720,-1.67849,-1.14299,-0.984568,0
34750,-1.6433,-1.1558,-1.04364,0
34770,-1.62094,-1.1615,-1.077,0
34790,-1.59507,-1.16698,-1.11417,0
34810,-1.56477,-1.17154,-1.15614,0
34830,-1.53111,-1.17448,-1.20181,0
34850,-1.49322,-1.1756,-1.25181,0
34870,-1.45051,-1.17564,-1.30492,0
34890,-1.40265,-1.17488,-1.36185,0
34910,-1.35542,-1.17199,-1.41685,0
34930,-1.3066,-1.16767,-1.47532,0
34950,-1.25995,-1.16135,-1.5321,0
34970,-1.21741,-1.15326,-1.58502,0
34990,-1.17708,-1.14332,-1.63309,0
35010,-1.13699,-1.13412,-1.6801,0
35030,-1.09906,-1.12499,-1.72394,0
35050,-1.06419,-1.11549,-1.76514,0
35070,-1.03486,-1.10475,-1.80146,0
35090,-1.00889,-1.09338,-1.83411,0
35110,-0.98454,-1.08233,-1.86591,0
35130,-0.961446,-1.0719,-1.89406,0
35150,-0.941791,-1.0623,-1.91775,0
35170,-0.923777,-1.05354,-1.93864,0
35190,-0.906748,-1.04507,-1.9589,0
35210,-0.892265,-1.03696,-1.97688,0
35230,-0.882105,-1.02824,-1.99013,0
35250,-0.872952,-1.02005,-2.00089,0
35270,-0.863575,-1.01295,-2.01115,0
35290,-0.856083,-1.00636,-2.01928,0
35310,-0.851351,-0.999736,-2.02551,0
35330,-0.846757,-0.992866,-2.03169,0
35350,-0.843663,-0.986292,-2.03523,0
35370,-0.840899,-0.979819,-2.03831,0
35390,-0.837595,-0.973272,-2.04102,0
35410,-0.83427,-0.966442,-2.04383,0
35430,-0.832048,-0.958621,-2.0466,0
35450,-0.830084,-0.950045,-2.04921,0
35470,-0.828091,-0.94183,-2.05179,0
35490,-0.82621,-0.93298,-2.05354,0
35510,-0.82366,-0.923537,-2.05615,0
35520,-0.820528,-0.913741,-2.05866,0
35540,-0.817778,-0.904595,-2.06087,0
35560,-0.815915,-0.895213,-2.06244,0
35580,-0.813893,-0.886095,-2.0643,0
35600,-0.811271,-0.876873,-2.06601,0
35620,-0.80913,-0.86769,-2.06692,0
35640,-0.807532,-0.859301,-2.06673,0
35660,-0.806344,-0.851952,-2.06548,0
35680,-0.805581,-0.845137,-2.06391,0
35700,-0.806464,-0.838291,-2.06091,0
35720,-0.807588,-0.83163,-2.05697,0
35740,-0.808996,-0.825857,-2.05272,0
35760,-0.810479,-0.819585,-2.04752,0
35780,-0.811895,-0.813762,-2.04265,0
35800,-0.813356,-0.808692,-2.03753,0
35820,-0.815674,-0.80385,-2.0313,0
35840,-0.81931,-0.799252,-2.02376,0
35860,-0.821604,-0.794813,-2.01649,0
35880,-0.823213,-0.791088,-2.00951,0
35900,-0.825884,-0.787915,-2.0014,0
35920,-0.828523,-0.785305,-1.99309,0
35940,-0.831642,-0.78223,-1.9839,0
35960,-0.8356,-0.779298,-1.97467,0
35980,-0.838398,-0.776164,-1.96565,0
36000,-0.842537,-0.773312,-1.95572,0
36020,-0.847367,-0.769513,-1.94541,0
36040,-0.851733,-0.766085,-1.93583,0
36060,-0.854414,-0.762855,-1.92649,0
36080,-0.85781,-0.759089,-1.91681,0
36100,-0.861882,-0.755334,-1.90665,0
36120,-0.865402,-0.751909,-1.89728,0
36140,-0.868979,-0.748497,-1.88749,0
36160,-0.872825,-0.745333,-1.87703,0
36180,-0.875487,-0.742919,-1.86767,0
36200,-0.878107,-0.740619,-1.85864,0
36220,-0.88146,-0.737663,-1.84903,0
36240,-0.885733,-0.734856,-1.83919,0
36260,-0.888906,-0.732204,-1.82977,0
36280,-0.892263,-0.729524,-1.81986,0
36300,-0.896057,-0.726902,-1.80998,0
36320,-0.899701,-0.723935,-1.80099,0
36340,-0.902711,-0.720695,-1.79201,0
36360,-0.906988,-0.71728,-1.78261,0
36380,-0.910744,-0.71333,-1.77398,0
36400,-0.913702,-0.709203,-1.76537,0
36420,-0.91746,-0.705521,-1.75638,0
36440,-0.92197,-0.701644,-1.74673,0
36460,-0.92645,-0.697947,-1.73681,0
36480,-0.929885,-0.694806,-1.72697,0
36500,-0.934032,-0.691852,-1.71577,0
36520,-0.939588,-0.689251,-1.70415,0
36540,-0.945012,-0.687037,-1.69204,0
36560,-0.950599,-0.685193,-1.67956,0
36580,-0.956497,-0.684067,-1.66631,0
36600,-0.963373,-0.683226,-1.65279,0
36620,-0.969398,-0.68239,-1.63946,0
36640,-0.975629,-0.681568,-1.62599,0
36660,-0.982131,-0.680226,-1.61253,0
36680,-0.989801,-0.678944,-1.59788,0
36700,-0.997185,-0.677823,-1.58299,0
36720,-1.00377,-0.676661,-1.56803,0
36740,-1.01181,-0.674315,-1.55129,0
36760,-1.02274,-0.67211,-1.53256,0
36780,-1.03397,-0.670488,-1.51367,0
36800,-1.04358,-0.669299,-1.49519,0
36820,-1.05327,-0.668551,-1.47575,0
36840,-1.06383,-0.668783,-1.45604,0
36860,-1.07399,-0.669445,-1.43644,0
36880,-1.08252,-0.670615,-1.41761,0
36900,-1.09092,-0.672617,-1.39851,0
36920,-1.09976,-0.675202,-1.37834,0
36940,-1.10848,-0.678384,-1.35794,0
36960,-1.11725,-0.682196,-1.33777,0
36980,-1.12711,-0.685703,-1.31646,0
37000,-1.13789,-0.689588,-1.2949,0
37020,-1.14869,-0.694209,-1.27364,0
37040,-1.15905,-0.698375,-1.25245,0
37060,-1.17054,-0.702173,-1.23086,0
37080,-1.18205,-0.706345,-1.20966,0
37100,-1.19399,-0.711625,-1.18881,0
37120,-1.20762,-0.717082,-1.16696,0
37140,-1.22085,-0.723515,-1.14545,0
37160,-1.23339,-0.731523,-1.12424,0
37180,-1.24784,-0.740224,-1.10245,0
37200,-1.26197,-0.750621,-1.08139,0
37220,-1.27553,-0.762357,-1.06093,0
37240,-1.28955,-0.773406,-1.04146,0
37260,-1.30538,-0.784054,-1.02137,0
37280,-1.32174,-0.795238,-1.0022,0
37300,-1.33838,-0.806763,-0.983671,0
37320,-1.35566,-0.817162,-0.965921,0
37340,-1.37339,-0.826891,-0.949622,0
37360,-1.39095,-0.836415,-0.934512,0
37380,-1.40796,-0.846503,-0.919247,0
37400,-1.42524,-0.857278,-0.903801,0
37420,-1.44233,-0.867928,-0.888935,0
37440,-1.4594,-0.879254,-0.875937,0
37460,-1.47597,-0.890522,-0.863687,0
37480,-1.49201,-0.901476,-0.852569,0
37500,-1.50775,-0.912567,-0.84268,0
37510,-1.52226,-0.92322,-0.83439,0
37530,-1.53656,-0.933944,-0.82798,0
37550,-1.54999,-0.944199,-0.823377,0
37570,-1.56255,-0.954179,-0.820401,0
37590,-1.57398,-0.964215,-0.818447,0
37610,-1.58503,-0.973869,-0.817336,0
37630,-1.59547,-0.984329,-0.817959,0
37640,-1.60418,-0.994374,-0.820644,0
37660,-1.61225,-1.00515,-0.824549,0
37670,-1.61888,-1.01541,-0.829376,0
37690,-1.62404,-1.02612,-0.836115,0
37710,-1.62725,-1.03655,-0.844551,0
37730,-1.62905,-1.04719,-0.855321,0
37750,-1.62978,-1.05748,-0.866957,0
37770,-1.63012,-1.06743,-0.878712,0
37790,-1.6299,-1.07767,-0.89041,0
37810,-1.6286,-1.08834,-0.903481,0
37830,-1.62693,-1.0989,-0.916262,0
37850,-1.6251,-1.10937,-0.929659,0
37870,-1.62171,-1.12039,-0.94469,0
37890,-1.61759,-1.13052,-0.960074,0
37910,-1.61191,-1.14046,-0.977494,0
37930,-1.60466,-1.15034,-0.996749,0
37950,-1.59569,-1.15986,-1.01798,0
37970,-1.58444,-1.16839,-1.04106,0
37990,-1.57053,-1.17712,-1.06717,0
38010,-1.55242,-1.18524,-1.09665,0
38030,-1.53218,-1.19298,-1.12934,0
38050,-1.50747,-1.19989,-1.16609,0
38070,-1.47891,-1.20598,-1.20606,0
38090,-1.4466,-1.21081,-1.24768,0
38110,-1.41185,-1.21521,-1.29178,0
38130,-1.37628,-1.21877,-1.33638,0
38150,-1.338,-1.22131,-1.38268,0
38170,-1.29921,-1.22272,-1.42934,0
38190,-1.26259,-1.22284,-1.4723,0
38210,-1.22889,-1.22234,-1.51206,0
38230,-1.19726,-1.22176,-1.54946,0
38250,-1.169,-1.22067,-1.58343,0
38270,-1.14095,-1.21824,-1.61624,0
38290,-1.11405,-1.21571,-1.64834,0
38310,-1.08955,-1.21281,-1.67725,0
38330,-1.06686,-1.21014,-1.70399,0
38350,-1.04436,-1.20722,-1.73044,0
38370,-1.02309,-1.20448,-1.75442,0
38390,-1.00347,-1.20148,-1.77708,0
38410,-0.983626,-1.19805,-1.79992,0
38430,-0.963728,-1.19389,-1.82264,0
38450,-0.944752,-1.18947,-1.84438,0
38470,-0.927803,-1.18469,-1.86459,0
38490,-0.911391,-1.1791,-1.88412,0
38510,-0.894847,-1.1734,-1.90312,0
38530,-0.87945,-1.16787,-1.9204,0
38550,-0.866185,-1.16155,-1.93548,0
38570,-0.853113,-1.15474,-1.95051,0
38590,-0.840998,-1.14818,-1.96512,0
38610,-0.83064,-1.14125,-1.97693,0
38630,-0.821663,-1.13455,-1.98721,0
38650,-0.810366,-1.12825,-1.99937,0
38670,-0.800588,-1.12187,-2.00973,0
38690,-0.794055,-1.11488,-2.01839,0
38710,-0.787142,-1.10727,-2.02737,0
38730,-0.780044,-1.09908,-2.03537,0
38750,-0.773948,-1.09073,-2.04283,0
38770,-0.770311,-1.0812,-2.0482,0
38790,-0.766384,-1.07166,-2.05362,0
38810,-0.76196,-1.06254,-2.05859,0
38830,-0.760422,-1.0535,-2.06136,0
38850,-0.760609,-1.04342,-2.06215,0
38870,-0.761483,-1.03393,-2.06159,0
38890,-0.763702,-1.02491,-2.05913,0
38910,-0.766996,-1.01608,-2.0555,0
38930,-0.771177,-1.00756,-2.05017,0
38950,-0.776406,-0.999271,-2.04468,0
38970,-0.782671,-0.990575,-2.03738,0
38990,-0.788419,-0.981158,-2.02945,0
39010,-0.793225,-0.972197,-2.02185,0
39030,-0.798445,-0.963892,-2.01284,0
39050,-0.804307,-0.956158,-2.00344,0
39070,-0.809239,-0.949225,-1.99421,0
39090,-0.814053,-0.942449,-1.98499,0
39110,-0.819297,-0.936186,-1.9746,0
39130,-0.825408,-0.931167,-1.96427,0
39150,-0.831713,-0.926259,-1.95468,0
39170,-0.838109,-0.92146,-1.94388,0
39190,-0.844377,-0.916947,-1.93327,0
39210,-0.849655,-0.912458,-1.92324,0
39230,-0.854707,-0.907418,-1.91356,0
39250,-0.860787,-0.902536,-1.90315,0
39270,-0.867547,-0.896814,-1.89225,0
39290,-0.871695,-0.890859,-1.88306,0
39310,-0.875772,-0.884492,-1.87295,0
39330,-0.882279,-0.878343,-1.86112,0
39350,-0.887978,-0.872568,-1.84959,0
39370,-0.893626,-0.866466,-1.83794,0
39390,-0.899874,-0.860671,-1.82664,0
39410,-0.906018,-0.855118,-1.8147,0
39430,-0.913174,-0.849133,-1.80221,0
39450,-0.919022,-0.842736,-1.79102,0
39470,-0.924565,-0.83707,-1.77901,0
39490,-0.931647,-0.831713,-1.7655,0
39510,-0.938875,-0.826672,-1.75227,0
39530,-0.946437,-0.821254,-1.73906,0
39550,-0.954407,-0.815866,-1.72553,0
39570,-0.962197,-0.811009,-1.71138,0
39590,-0.970055,-0.806403,-1.69687,0
39610,-0.977466,-0.801626,-1.68283,0
39630,-0.985194,-0.797191,-1.6688,0
39650,-0.993093,-0.792567,-1.65422,0
39670,-1.00168,-0.788521,-1.63932,0
39690,-1.00963,-0.78435,-1.62457,0
39710,-1.01778,-0.780253,-1.60923,0
39730,-1.02768,-0.776426,-1.59299,0
39750,-1.03745,-0.773828,-1.57646,0
39770,-1.0471,-0.771399,-1.5595,0
39790,-1.05695,-0.769926,-1.54171,0
39810,-1.06771,-0.769547,-1.52315,0
39830,-1.07913,-0.769999,-1.5046,0
39850,-1.08913,-0.770243,-1.48645,0
39870,-1.10074,-0.770681,-1.46756,0
39890,-1.11229,-0.77209,-1.44839,0
39910,-1.12335,-0.773941,-1.42955,0
39930,-1.13474,-0.776411,-1.41027,0
39940,-1.1475,-0.779179,-1.39031,0
39950,-1.16086,-0.782213,-1.36975,0
39960,-1.1869,-0.789452,-1.32913,0
39980,-1.20111,-0.793839,-1.30758,0
40000,-1.21543,-0.799019,-1.28653,0
40020,-1.22918,-0.805318,-1.2657,0
40040,-1.24211,-0.812879,-1.24444,0
40050,-1.25533,-0.820979,-1.2221,0
40090,-1.2848,-0.838517,-1.17626,0
40110,-1.30049,-0.847704,-1.15299,0
40130,-1.31766,-0.857278,-1.12881,0
40150,-1.33723,-0.866377,-1.10428,0
40170,-1.37546,-0.883325,-1.05656,0
40190,-1.39445,-0.892717,-1.03175,0
40210,-1.41448,-0.902083,-1.00611,0
40230,-1.43385,-0.912331,-0.981549,0
40250,-1.45411,-0.922301,-0.956513,0
40270,-1.4744,-0.931851,-0.932434,0
40290,-1.49492,-0.941471,-0.909012,0
40310,-1.51638,-0.950905,-0.884569,0
40330,-1.53698,-0.960945,-0.86092,0
40350,-1.5579,-0.97195,-0.835988,0
40370,-1.58052,-0.981642,-0.810763,0
40390,-1.60456,-0.991669,-0.784746,0
40410,-1.62818,-1.00205,-0.75957,0
40430,-1.6531,-1.01189,-0.733743,0
40450,-1.67838,-1.02106,-0.707517,0
40470,-1.70349,-1.03044,-0.681838,0
40490,-1.72983,-1.03912,-0.656623,0
40510,-1.75548,-1.04614,-0.632878,0
40530,-1.77918,-1.05341,-0.612158,0
40550,-1.80276,-1.06113,-0.590149,0
40570,-1.82554,-1.06874,-0.569193,0
40590,-1.84648,-1.07574,-0.5505,1001
40610,-1.86621,-1.08266,-0.533496,0
40630,-1.88314,-1.08904,-0.519089,0
40650,-1.89753,-1.09549,-0.507052,0
40670,-1.90945,-1.10159,-0.497785,0
40690,-1.91837,-1.10646,-0.49169,0
40710,-1.92343,-1.11069,-0.489616,0
40730,-1.92453,-1.1142,-0.490898,0
40750,-1.92214,-1.1169,-0.494816,0
40770,-1.91777,-1.11891,-0.50106,0
40790,-1.91166,-1.12084,-0.509816,0
40810,-1.90298,-1.12217,-0.520937,0
40820,-1.89289,-1.12237,-0.533359,0
40840,-1.88077,-1.12273,-0.546937,0
40860,-1.86906,-1.1226,-0.55937,0
40880,-1.85829,-1.12294,-0.570966,0
40900,-1.84687,-1.12318,-0.582494,0
40920,-1.83657,-1.12355,-0.592933,0
40940,-1.82553,-1.12343,-0.603818,0
40960,-1.81458,-1.12303,-0.615233,0
40980,-1.80002,-1.12185,-0.631806,0
41000,-1.78001,-1.11977,-0.65474,0
41020,-1.75149,-1.11725,-0.685694,0
41040,-1.71236,-1.1141,-0.726364,0
41060,-1.66724,-1.108,-0.771721,0
41080,-1.61842,-1.09685,-0.823388,0
41100,-1.56075,-1.08088,-0.88459,0
41120,-1.49755,-1.06233,-0.951724,0
41140,-1.43502,-1.04039,-1.01639,0
41160,-1.37525,-1.01245,-1.07723,0
41180,-1.31701,-0.980526,-1.13549,0
41200,-1.25923,-0.945065,-1.18967,0
41220,-1.20754,-0.905551,-1.23635,0
41240,-1.16328,-0.861383,-1.27615,0
41260,-1.12458,-0.814065,-1.30991,0
41280,-1.09101,-0.76725,-1.3375,0
41300,-1.06415,-0.72111,-1.35733,0
41320,-1.04466,-0.676756,-1.37014,0
41340,-1.02848,-0.641053,-1.37797,0
41360,-1.01723,-0.609791,-1.38133,0
41380,-1.01086,-0.582908,-1.38148,0
41400,-1.00795,-0.559659,-1.37881,0
41420,-1.00654,-0.537566,-1.37417,0
41440,-1.00543,-0.518934,-1.37092,0
41460,-1.00588,-0.503946,-1.36789,0
41480,-1.00792,-0.491141,-1.36431,0
41500,-1.01094,-0.478151,-1.35995,0
41520,-1.01299,-0.467415,-1.35689,0
41540,-1.01257,-0.458721,-1.35704,0
41560,-1.01187,-0.451013,-1.35716,0
41580,-1.01036,-0.443876,-1.35564,0
41600,-1.00737,-0.437857,-1.35394,0
41620,-1.00422,-0.432795,-1.35201,0
41640,-1.00252,-0.428558,-1.3493,0
41660,-0.999404,-0.424282,-1.34569,0
41680,-0.995822,-0.420881,-1.34102,0
41700,-0.994195,-0.417951,-1.33507,0
41720,-0.994715,-0.415418,-1.3285,0
41740,-0.996865,-0.413475,-1.32151,0
41760,-0.999153,-0.412901,-1.31519,0
41780,-1.00054,-0.414288,-1.30941,0
41800,-1.00158,-0.416882,-1.30483,1000
41820,-1.0026,-0.419825,-1.30027,0
41840,-1.00385,-0.422455,-1.29571,0
41860,-1.00561,-0.425129,-1.29084,0
41880,-1.00799,-0.428502,-1.28542,0
41900,-1.01014,-0.433233,-1.27955,0
41920,-1.01241,-0.43907,-1.27282,0
41940,-1.0152,-0.445978,-1.26514,0
41960,-1.01887,-0.453465,-1.25637,0
41980,-1.02406,-0.46179,-1.24632,0
42000,-1.02987,-0.470517,-1.23496,0
42020,-1.03584,-0.48017,-1.22316,0
42040,-1.04167,-0.490345,-1.21121,0
42060,-1.04753,-0.500789,-1.19885,0
42080,-1.05468,-0.510687,-1.18624,0
42100,-1.0627,-0.519702,-1.17408,0
42120,-1.07107,-0.528195,-1.16226,0
42140,-1.07935,-0.536314,-1.15128,0
42160,-1.08661,-0.544318,-1.14129,0
42180,-1.0931,-0.5516,-1.13185,0
42200,-1.10023,-0.558076,-1.12301,0
42220,-1.10702,-0.565337,-1.11544,0
42240,-1.11385,-0.573212,-1.10789,0
42260,-1.12096,-0.58126,-1.10042,0
42280,-1.12774,-0.589586,-1.09366,0
42300,-1.13598,-0.598096,-1.08685,0
42320,-1.14371,-0.607519,-1.08146,0
42340,-1.1505,-0.617623,-1.07692,0
42360,-1.15817,-0.627646,-1.07226,0
42380,-1.16614,-0.638363,-1.06836,0
42400,-1.17368,-0.649447,-1.06665,0
42420,-1.1812,-0.660725,-1.06624,0
42440,-1.18801,-0.671298,-1.06743,0
42460,-1.19408,-0.680994,-1.07006,0
42480,-1.20047,-0.690455,-1.07399,0
42500,-1.20597,-0.699229,-1.0791,0
42520,-1.21119,-0.707614,-1.08586,0
42540,-1.21649,-0.716201,-1.09394,0
42560,-1.2213,-0.72471,-1.10329,0
42580,-1.22533,-0.733257,-1.11405,0
42600,-1.22842,-0.742183,-1.12588,0
42620,-1.23043,-0.751377,-1.13896,0
42640,-1.23217,-0.760691,-1.15264,0
42660,-1.23421,-0.770521,-1.16661,0
42680,-1.23528,-0.780217,-1.18215,0
42700,-1.235,-0.790156,-1.19779,0
42720,-1.23395,-0.800115,-1.21328,0
42740,-1.23245,-0.810801,-1.22896,0
42760,-1.23068,-0.832389,-1.2601,0
42770,-1.22962,-0.842854,-1.27544,0
42790,-1.22725,-0.852736,-1.29137,0
42810,-1.22456,-0.861594,-1.30736,0
42830,-1.22052,-0.869957,-1.32467,0
42850,-1.21593,-0.876977,-1.34269,0
42870,-1.21057,-0.883292,-1.36078,0
42890,-1.20452,-0.889109,-1.37876,0
42910,-1.19839,-0.894826,-1.39654,0
42930,-1.19141,-0.900092,-1.41505,0
42950,-1.18298,-0.905654,-1.43451,0
42970,-1.17334,-0.91067,-1.45469,0
42990,-1.16396,-0.915202,-1.47483,0
43010,-1.15438,-0.919472,-1.49507,0
43030,-1.14435,-0.92358,-1.515,0
43050,-1.13321,-0.927133,-1.53588,0
43070,-1.12083,-0.930371,-1.55699,0
43090,-1.10888,-0.93312,-1.57789,0
43110,-1.09609,-0.934924,-1.59944,0
43130,-1.08318,-0.936286,-1.6216,0
43150,-1.06923,-0.936655,-1.64428,0
43170,-1.05545,-0.935564,-1.6662,0
43190,-1.04111,-0.9338,-1.68853,0
43210,-1.02598,-0.931848,-1.71174,0
43230,-1.01005,-0.928686,-1.73418,0
43250,-0.994675,-0.924645,-1.75585,0
43270,-0.981043,-0.919537,-1.77537,0
43290,-0.967321,-0.914111,-1.79526,0
43310,-0.952898,-0.908279,-1.81528,0
43330,-0.939607,-0.902244,-1.83423,0
43350,-0.928092,-0.895154,-1.85061,0
43370,-0.916243,-0.887708,-1.86718,0
43390,-0.903653,-0.880622,-1.88346,0
43410,-0.891654,-0.873896,-1.89812,0
43430,-0.881066,-0.866758,-1.91186,0
43450,-0.871694,-0.859509,-1.92424,0
43470,-0.864569,-0.852018,-1.93456,0
43490,-0.857446,-0.844287,-1.94505,0
43510,-0.850543,-0.8364,-1.95484,0
43530,-0.845026,-0.828548,-1.96323,0
43550,-0.839865,-0.820927,-1.97052,0
43570,-0.834526,-0.813372,-1.97793,0
43590,-0.830085,-0.805906,-1.98397,0
43610,-0.827304,-0.798477,-1.98891,0
43630,-0.824472,-0.790972,-1.99324,0
43650,-0.821129,-0.783878,-1.99765,0
43670,-0.81768,-0.776811,-2.00175,0
43690,-0.815254,-0.769695,-2.00515,0
43710,-0.813421,-0.762484,-2.00831,0
43730,-0.81274,-0.755486,-2.01045,0
43750,-0.811556,-0.748478,-2.01225,0
43770,-0.809123,-0.742055,-2.01439,0
43790,-0.806195,-0.735585,-2.01663,0
43810,-0.804467,-0.728564,-2.0182,0
43830,-0.803581,-0.72214,-2.01914,0
43850,-0.801287,-0.715885,-2.02004,0
43870,-0.798757,-0.710281,-2.02047,0
43890,-0.796502,-0.704727,-2.02026,0
43910,-0.795553,-0.699258,-2.01893,0
43930,-0.795405,-0.69401,-2.01638,0
43950,-0.794937,-0.689155,-2.01321,0
43970,-0.79494,-0.684821,-2.00932,0
43990,-0.795649,-0.680397,-2.00497,0
44010,-0.797314,-0.6756,-1.99973,0
44030,-0.799077,-0.670605,-1.99397,0
44050,-0.800506,-0.665961,-1.98833,0
44070,-0.801472,-0.662083,-1.98311,0
44090,-0.802679,-0.657937,-1.9775,0
44110,-0.8046,-0.653937,-1.97191,0
44130,-0.806285,-0.649934,-1.96667,0
44150,-0.8079,-0.64585,-1.96175,0
44170,-0.809006,-0.641527,-1.95694,0
44190,-0.80999,-0.637571,-1.95205,0
44210,-0.810703,-0.634026,-1.94727,0
44230,-0.811221,-0.630013,-1.9426,0
44250,-0.811572,-0.626285,-1.93785,0
44270,-0.81324,-0.622839,-1.93205,0
44290,-0.815485,-0.619477,-1.92528,0
44310,-0.816666,-0.615957,-1.91885,0
44330,-0.818327,-0.611584,-1.91187,0
44350,-0.820714,-0.606552,-1.90494,0
44370,-0.822955,-0.601477,-1.89829,0
44390,-0.823596,-0.595859,-1.89244,0
44410,-0.823774,-0.590324,-1.88646,0
44430,-0.824939,-0.58465,-1.87955,0
44450,-0.826475,-0.579076,-1.87262,0
44470,-0.827934,-0.573928,-1.86567,0
44490,-0.828661,-0.568883,-1.85808,0
44510,-0.829772,-0.564303,-1.84948,0
44530,-0.830976,-0.559728,-1.84057,0
44550,-0.832398,-0.555722,-1.83152,0
44570,-0.834758,-0.552078,-1.82129,0
44590,-0.836774,-0.54871,-1.81055,0
44610,-0.837762,-0.545831,-1.80025,0
44630,-0.838506,-0.542946,-1.78921,0
44650,-0.841421,-0.540204,-1.77742,0
44670,-0.844592,-0.537739,-1.76611,0
44690,-0.846809,-0.535347,-1.7546,0
44710,-0.849434,-0.533629,-1.74217,0
44730,-0.852126,-0.53259,-1.72961,0
44750,-0.855069,-0.532067,-1.71734,0
44770,-0.857888,-0.531607,-1.70487,0
44790,-0.861293,-0.530959,-1.69198,0
44810,-0.865203,-0.530444,-1.67883,0
44830,-0.868505,-0.53007,-1.66582,0
44850,-0.871291,-0.529583,-1.65303,0
44870,-0.87522,-0.529173,-1.63943,0
44890,-0.879207,-0.528531,-1.62599,0
44910,-0.882037,-0.527534,-1.61289,0
44930,-0.885491,-0.526962,-1.5986,0
44950,-0.89026,-0.526536,-1.58353,0
44970,-0.894137,-0.525884,-1.56866,0
44990,-0.898429,-0.525197,-1.55331,0
45010,-0.90388,-0.524839,-1.53672,0
45030,-0.909287,-0.524603,-1.52018,0
45050,-0.913919,-0.524205,-1.50366,0
45070,-0.919395,-0.524245,-1.48642,0
45090,-0.926029,-0.52484,-1.46873,0
45110,-0.932331,-0.525752,-1.45077,0
45130,-0.938136,-0.527606,-1.43272,0
45150,-0.943974,-0.530169,-1.41411,0
45170,-0.950216,-0.533404,-1.39542,0
45190,-0.958127,-0.536997,-1.37633,0
45200,-0.966428,-0.541307,-1.35707,0
45220,-0.974054,-0.546219,-1.33792,0
45240,-0.982069,-0.551854,-1.31813,0
45260,-0.990611,-0.557936,-1.29824,0
45270,-0.999829,-0.564035,-1.27879,0
45280,-1.00911,-0.571151,-1.25992,0
45290,-1.01919,-0.578618,-1.24051,0
45310,-1.03014,-0.586696,-1.22043,0
45330,-1.04093,-0.595252,-1.20078,0
45350,-1.05105,-0.605074,-1.18201,0
45370,-1.06171,-0.614962,-1.16309,0
45400,-1.08507,-0.634913,-1.12526,0
45420,-1.09681,-0.645579,-1.10744,0
45440,-1.1091,-0.65593,-1.08917,0
45460,-1.12219,-0.666141,-1.07005,0
45480,-1.13614,-0.676921,-1.05104,0
45500,-1.14964,-0.688401,-1.03253,0
45520,-1.16444,-0.700638,-1.01356,0
45540,-1.17989,-0.713281,-0.994019,0
45560,-1.19606,-0.726892,-0.974312,0
45580,-1.21348,-0.740693,-0.954191,0
45600,-1.23141,-0.755202,-0.934551,0
45620,-1.25027,-0.769924,-0.914799,0
45640,-1.27071,-0.784228,-0.894608,0
45660,-1.29203,-0.798063,-0.875097,0
45680,-1.31337,-0.812131,-0.85748,0
45700,-1.33531,-0.825263,-0.840397,0
45720,-1.35801,-0.837879,-0.824157,0
45740,-1.38119,-0.849912,-0.808862,0
45780,-1.54994,-0.973933,-0.799154,0
45800,-1.55748,-0.98542,-0.809388,0
45820,-1.56487,-0.996628,-0.820198,0
45840,-1.57136,-1.00863,-0.832056,0
45860,-1.57614,-1.02047,-0.844989,0
45880,-1.57973,-1.03262,-0.859507,0
45900,-1.58146,-1.04536,-0.876229,0
45920,-1.58182,-1.05782,-0.894076,0
45940,-1.58037,-1.07066,-0.914338,0
45950,-1.57788,-1.08378,-0.935148,0
45970,-1.57306,-1.09675,-0.957769,0
45990,-1.56537,-1.11017,-0.983132,0
46010,-1.55651,-1.1231,-1.00892,0
46030,-1.54436,-1.13607,-1.03807,0
46050,-1.52955,-1.1474,-1.06828,0
46070,-1.51163,-1.15821,-1.10096,0
46090,-1.49085,-1.16853,-1.13583,0
46110,-1.46663,-1.17775,-1.17252,0
46130,-1.4398,-1.18612,-1.2122,0
46150,-1.41066,-1.19236,-1.25451,0
46170,-1.37976,-1.19677,-1.29762,0
46190,-1.3465,-1.19897,-1.3409,0
46210,-1.31263,-1.20055,-1.38387,0
46230,-1.27761,-1.20057,-1.42725,0
46250,-1.24365,-1.1991,-1.46832,0
46270,-1.21335,-1.19557,-1.505,0
46290,-1.18581,-1.191,-1.53814,0
46310,-1.1591,-1.18503,-1.56891,0
46330,-1.12973,-1.17872,-1.60177,0
46350,-1.10554,-1.17134,-1.6297,0
46370,-1.08732,-1.16214,-1.65218,0
46390,-1.06878,-1.15188,-1.67466,0
46410,-1.048,-1.14233,-1.69703,0
46430,-1.02605,-1.13291,-1.71995,0
46450,-1.00747,-1.12351,-1.73972,0
46470,-0.990651,-1.11342,-1.75762,0
46490,-0.972372,-1.10441,-1.77654,0
46510,-0.955541,-1.09621,-1.79369,0
46530,-0.941638,-1.08789,-1.80727,0
46550,-0.927796,-1.08014,-1.8203,0
46570,-0.914658,-1.07328,-1.83304,0
46590,-0.903774,-1.06642,-1.84409,0
46610,-0.895086,-1.0595,-1.85353,0
46630,-0.885922,-1.05338,-1.86348,0
46650,-0.877201,-1.0477,-1.87244,0
46670,-0.870559,-1.04165,-1.87995,0
46690,-0.864796,-1.03551,-1.8873,0
46710,-0.858666,-1.02993,-1.89424,0
46730,-0.853133,-1.02484,-1.90049,0
46750,-0.848888,-1.01974,-1.90553,0
46770,-0.844547,-1.01396,-1.9103,0
46790,-0.840765,-1.00864,-1.91541,0
46810,-0.838008,-1.00282,-1.91879,0
46830,-0.837137,-0.996725,-1.92085,0
46850,-0.83513,-0.990893,-1.92327,0
46870,-0.832597,-0.985487,-1.92613,0
46890,-0.832815,-0.979705,-1.92689,0
46910,-0.833373,-0.973883,-1.92745,0
46930,-0.832737,-0.967899,-1.92911,0
46950,-0.831083,-0.961032,-1.93091,0
46970,-0.829918,-0.954141,-1.93336,0
46990,-0.829973,-0.94733,-1.93458,0
47010,-0.829183,-0.941005,-1.93594,0
47030,-0.828208,-0.934999,-1.93704,0
47050,-0.828331,-0.928162,-1.93713,0
47070,-0.827923,-0.921248,-1.93801,0
47090,-0.826934,-0.914918,-1.93905,0
47110,-0.826709,-0.908427,-1.93875,0
47130,-0.827315,-0.902282,-1.93807,0
47150,-0.826693,-0.896452,-1.93861,0
47170,-0.824797,-0.890703,-1.93939,0
47190,-0.825663,-0.884411,-1.93802,0
47210,-0.826822,-0.878323,-1.93659,0
47230,-0.826601,-0.872449,-1.93523,0
47250,-0.827178,-0.866965,-1.93243,0
47270,-0.829237,-0.861718,-1.92876,0
47290,-0.830734,-0.857141,-1.92587,0
47310,-0.831678,-0.85252,-1.92225,0
47330,-0.833267,-0.849107,-1.91762,0
47350,-0.834947,-0.845924,-1.91252,0
47370,-0.836732,-0.843226,-1.90692,0
47390,-0.838956,-0.84025,-1.90057,0
47410,-0.841649,-0.837501,-1.89426,0
47430,-0.843151,-0.834674,-1.88843,0
47450,-0.845096,-0.831605,-1.88177,0
47470,-0.848496,-0.828858,-1.87445,0
47490,-0.850687,-0.82551,-1.86729,0
47510,-0.853085,-0.821985,-1.85988,0
47530,-0.85628,-0.818609,-1.85234,0
47550,-0.857537,-0.81511,-1.84618,0
47570,-0.857396,-0.81143,-1.84011,0
47590,-0.857681,-0.807184,-1.83347,0
47610,-0.859836,-0.803172,-1.82672,0
47630,-0.863849,-0.798441,-1.81943,0
47650,-0.866121,-0.792632,-1.81298,0
47670,-0.868451,-0.786657,-1.80524,0
47690,-0.871248,-0.780757,-1.79743,0
47710,-0.874379,-0.774656,-1.78974,0
47730,-0.878158,-0.768311,-1.78154,0
47750,-0.881661,-0.761944,-1.77337,0
47770,-0.885828,-0.755702,-1.76443,0
47790,-0.890286,-0.749751,-1.75481,0
47810,-0.894497,-0.744111,-1.74502,0
47830,-0.899326,-0.738164,-1.73448,0
47850,-0.904729,-0.732598,-1.72359,0
47870,-0.909373,-0.72749,-1.71278,0
47890,-0.914034,-0.722919,-1.70152,0
47910,-0.919223,-0.718566,-1.68947,0
47930,-0.925846,-0.714757,-1.67699,0
47940,-0.932378,-0.711206,-1.66388,0
47960,-0.939277,-0.708416,-1.65033,0
47980,-0.946645,-0.706143,-1.63589,0
48000,-0.953582,-0.704595,-1.62115,0
48020,-0.961385,-0.703182,-1.60615,0
48040,-0.969371,-0.702082,-1.59051,0
48060,-0.977721,-0.701407,-1.57496,0
48080,-0.985772,-0.700912,-1.55918,0
48100,-0.99429,-0.700598,-1.54277,0
48120,-1.00332,-0.701017,-1.52613,0
48140,-1.01211,-0.701559,-1.50999,0
48160,-1.01986,-0.701822,-1.49406,0
48180,-1.02859,-0.702348,-1.47755,0
48200,-1.03736,-0.703163,-1.46128,0
48220,-1.04522,-0.704304,-1.44553,0
48240,-1.05263,-0.706252,-1.43023,0
48260,-1.0597,-0.708274,-1.41486,0
48280,-1.0659,-0.710434,-1.40005,0
48300,-1.07171,-0.712596,-1.3852,0
48320,-1.0789,-0.715063,-1.36972,0
48340,-1.08748,-0.718504,-1.35409,0
48360,-1.09592,-0.72159,-1.3383,0
48380,-1.10372,-0.724659,-1.32238,0
48400,-1.11206,-0.72826,-1.30678,0
48420,-1.12128,-0.732572,-1.29094,0
48440,-1.13035,-0.737312,-1.27505,0
48460,-1.13986,-0.742374,-1.25852,0
48480,-1.15029,-0.748023,-1.24119,0
48500,-1.16086,-0.754882,-1.22418,0
48520,-1.17147,-0.762075,-1.2068,0
48540,-1.18267,-0.769758,-1.18953,0
48560,-1.19456,-0.777508,-1.17155,0
48580,-1.20697,-0.785627,-1.15372,0
48600,-1.21956,-0.79392,-1.13567,0
48620,-1.23293,-0.80258,-1.11746,0
48640,-1.2468,-0.811121,-1.0993,0
48660,-1.26176,-0.819134,-1.08069,0
48680,-1.2773,-0.827202,-1.06186,0
48700,-1.29295,-0.835714,-1.04319,0
48720,-1.30868,-0.844841,-1.02528,0
48740,-1.32486,-0.853002,-1.00703,0
48760,-1.34096,-0.861426,-0.988996,0
48780,-1.35643,-0.870205,-0.972035,0
48800,-1.37337,-0.879094,-0.955088,0
48820,-1.39139,-0.887224,-0.937895,0
48840,-1.40826,-0.896203,-0.921465,0
48860,-1.42506,-0.905768,-0.905729,0
48880,-1.44212,-0.9147,-0.890811,0
48900,-1.45903,-0.922584,-0.877658,0
48920,-1.47582,-0.931351,-0.864698,0
48940,-1.49278,-0.940228,-0.852331,0
48960,-1.50928,-0.949097,-0.841208,0
48980,-1.52414,-0.958176,-0.832095,0
49000,-1.53845,-0.967313,-0.824374,0
49020,-1.5521,-0.975811,-0.817777,0
49040,-1.56484,-0.984807,-0.81307,0
49060,-1.5755,-0.994247,-0.810082,0
49080,-1.58402,-1.00345,-0.810024,0
49100,-1.5907,-1.01235,-0.811802,0
49120,-1.59615,-1.02078,-0.814529,0
49140,-1.59954,-1.03004,-0.819293,0
49160,-1.60249,-1.03902,-0.825093,0
49180,-1.60399,-1.04794,-0.832822,0
49200,-1.60405,-1.05661,-0.841747,0
49220,-1.60264,-1.06551,-0.852397,0
49240,-1.60042,-1.07468,-0.864278,0
49260,-1.59781,-1.08415,-0.876777,0
49280,-1.59357,-1.09345,-0.890567,0
49300,-1.58872,-1.10233,-0.904636,0
49320,-1.58407,-1.11157,-0.919323,0
49340,-1.57979,-1.12151,-0.933902,0
49360,-1.57608,-1.13056,-0.94708,0
49380,-1.57349,-1.14019,-0.960105,0
49400,-1.5715,-1.14952,-0.972968,0
49420,-1.56934,-1.15843,-0.985795,0
49440,-1.56849,-1.16746,-0.997312,0
49460,-1.56728,-1.17683,-1.00907,0
49480,-1.56605,-1.18609,-1.02045,0
49500,-1.56472,-1.19527,-1.03213,0
49520,-1.56182,-1.20409,-1.0451,0
49540,-1.55827,-1.21283,-1.05888,0
49560,-1.5531,-1.22108,-1.07335,0
49580,-1.54754,-1.22881,-1.08878,0
49600,-1.53904,-1.23606,-1.10696,0
49620,-1.52626,-1.24198,-1.12919,0
49640,-1.51215,-1.24832,-1.15304,0
49660,-1.49388,-1.25341,-1.17911,0
49680,-1.47297,-1.25843,-1.20823,0
49700,-1.44878,-1.26199,-1.24089,0
49720,-1.42322,-1.26439,-1.27564,0
49740,-1.39519,-1.26477,-1.31136,0
49760,-1.36612,-1.26497,-1.348,0
49780,-1.33399,-1.26373,-1.38533,0
49800,-1.30158,-1.26198,-1.42176,0
49820,-1.27316,-1.25951,-1.45585,0
49840,-1.24742,-1.25531,-1.48681,0
49860,-1.22169,-1.25017,-1.51681,0
49880,-1.19702,-1.24457,-1.54515,0
49900,-1.17532,-1.23783,-1.57052,0
49920,-1.15491,-1.23106,-1.59466,0
49940,-1.13596,-1.22369,-1.6165,0
49960,-1.1184,-1.21576,-1.63706,0
49980,-1.09987,-1.20762,-1.65845,0
50000,-1.08308,-1.19961,-1.67778,0
50020,-1.0671,-1.19167,-1.69701,0
50040,-1.05174,-1.18337,-1.71468,0
50060,-1.03506,-1.17564,-1.73293,0
50080,-1.01803,-1.16806,-1.75134,0
50100,-1.00322,-1.16014,-1.76819,0
50120,-0.988987,-1.15138,-1.78467,0
50140,-0.973654,-1.14261,-1.80084,0
50160,-0.962013,-1.1346,-1.81424,0
50180,-0.950928,-1.12698,-1.82721,0
50200,-0.940434,-1.11976,-1.83925,0
50220,-0.931874,-1.11221,-1.85001,0
50240,-0.92318,-1.10422,-1.86069,0
50260,-0.912801,-1.096,-1.87196,0
50280,-0.903756,-1.08788,-1.88095,0
50300,-0.897162,-1.08015,-1.88821,0
50320,-0.890326,-1.0722,-1.89509,0
50340,-0.883464,-1.06442,-1.90202,0
50360,-0.876409,-1.05667,-1.90821,0
50380,-0.870863,-1.04968,-1.9124,0
50400,-0.866831,-1.04281,-1.9161,0
50420,-0.861527,-1.0357,-1.92004,0
50440,-0.854827,-1.02959,-1.92403,0
50460,-0.849321,-1.02355,-1.92631,0
50480,-0.847985,-1.01842,-1.92462,0
50500,-0.849552,-1.01394,-1.92206,0
50520,-0.849063,-1.00876,-1.92123,0
50540,-0.851913,-1.00337,-1.91694,0
50560,-0.854062,-0.998781,-1.91321,0
50580,-0.853947,-0.994524,-1.90983,0
50600,-0.855613,-0.990079,-1.90406,0
50620,-0.858775,-0.986046,-1.89863,0
50640,-0.861736,-0.982149,-1.89274,0
50660,-0.865339,-0.978093,-1.88652,0
50680,-0.867894,-0.972894,-1.88133,0
50700,-0.870164,-0.967336,-1.87568,0
50720,-0.873255,-0.962171,-1.86963,0
50740,-0.877095,-0.956906,-1.86306,0
50760,-0.880972,-0.95074,-1.85611,0
50780,-0.885016,-0.944267,-1.84916,0
50800,-0.889775,-0.93732,-1.84101,0
50820,-0.895877,-0.930927,-1.83166,0
50840,-0.901469,-0.92451,-1.8221,0
50860,-0.907847,-0.918247,-1.8112,0
50880,-0.915488,-0.912054,-1.79948,0
50900,-0.922246,-0.906066,-1.78888,0
50920,-0.929447,-0.899849,-1.77701,0
50940,-0.937403,-0.894368,-1.76461,0
50960,-0.945384,-0.889633,-1.75282,0
50980,-0.953171,-0.884503,-1.74063,0
51000,-0.961885,-0.879461,-1.72751,0
51020,-0.971038,-0.875303,-1.71422,0
51040,-0.979189,-0.871409,-1.70247,0
51060,-0.987771,-0.867252,-1.68912,0
51080,-0.996072,-0.863177,-1.67598,0
51100,-1.00368,-0.859642,-1.66318,0
51120,-1.01082,-0.856445,-1.65043,0
51140,-1.01797,-0.853119,-1.63756,0
51160,-1.02537,-0.849926,-1.6243,0
51180,-1.03384,-0.846664,-1.61053,0
51200,-1.04199,-0.843135,-1.5972,0
51220,-1.04885,-0.839347,-1.58448,0
51240,-1.05489,-0.836043,-1.57197,0
51260,-1.06171,-0.833005,-1.55912,0
51280,-1.06756,-0.829052,-1.54677,0
51300,-1.07382,-0.82479,-1.53356,0
51320,-1.08165,-0.821273,-1.51923,0
51340,-1.08944,-0.817795,-1.50533,0
51350,-1.09663,-0.814451,-1.4912,0
51370,-1.10476,-0.811668,-1.47612,0
51390,-1.11273,-0.809415,-1.46156,0
51410,-1.12066,-0.807864,-1.44689,0
51430,-1.12905,-0.806807,-1.43142,0
51460,-1.15504,-0.805585,-1.3844,0
51530,-1.21894,-0.81515,-1.27885,0
51550,-1.2313,-0.818128,-1.25925,0
51570,-1.24396,-0.821162,-1.23925,0
51590,-1.25754,-0.824901,-1.21917,0
51610,-1.27177,-0.828663,-1.19844,0
51630,-1.28627,-0.832894,-1.17733,0
51650,-1.30039,-0.838159,-1.15666,0
51670,-1.31559,-0.843937,-1.13447,0
51690,-1.331,-0.850009,-1.11123,0
51710,-1.34696,-0.856714,-1.0879,0
51730,-1.36472,-0.864334,-1.06345,0
51750,-1.38354,-0.871792,-1.03775,0
51770,-1.40187,-0.879891,-1.01327,0
51790,-1.42145,-0.887573,-0.988091,0
51810,-1.44139,-0.895314,-0.963047,0
51830,-1.46067,-0.903136,-0.938756,0
51850,-1.47955,-0.910812,-0.914883,0
51870,-1.49829,-0.918283,-0.890886,0
51890,-1.51654,-0.92629,-0.868032,0
51910,-1.53433,-0.934698,-0.846029,0
51930,-1.55258,-0.942956,-0.823213,0
51950,-1.57171,-0.951938,-0.799494,0
51970,-1.59074,-0.961184,-0.776765,0
51990,-1.60919,-0.970536,-0.754055,0
52010,-1.62754,-0.980006,-0.731906,0
52030,-1.64803,-0.989681,-0.708687,0
52050,-1.66794,-0.999352,-0.687199,0
52070,-1.68772,-1.00954,-0.665719,0
52090,-1.70792,-1.01966,-0.643608,0
52110,-1.72679,-1.02958,-0.625553,0
52130,-1.7457,-1.03901,-0.607053,0
52150,-1.7642,-1.04833,-0.588308,0
52170,-1.78307,-1.05695,-0.569376,0
52190,-1.80122,-1.06462,-0.550487,0
52210,-1.81708,-1.0727,-0.534942,0
52230,-1.83432,-1.08037,-0.517744,0
52250,-1.85101,-1.0865,-0.501636,1001
52270,-1.86473,-1.09133,-0.488447,0
52290,-1.87713,-1.09578,-0.476393,0
52310,-1.88884,-1.09969,-0.464782,0
52330,-1.9001,-1.10227,-0.453899,0
52350,-1.90845,-1.10354,-0.446707,0
52370,-1.91476,-1.10458,-0.441387,0
52390,-1.92151,-1.10543,-0.435321,0
52410,-1.92874,-1.10568,-0.428595,0
52430,-1.93527,-1.1057,-0.423209,0
52450,-1.93868,-1.10586,-0.420586,0
52470,-1.94102,-1.10597,-0.419322,0
52490,-1.94052,-1.10556,-0.419938,0
52510,-1.9378,-1.10494,-0.422489,0
52530,-1.9331,-1.10488,-0.427659,0
52550,-1.92228,-1.10473,-0.438641,0
52570,-1.90236,-1.10536,-0.459622,0
52590,-1.87652,-1.10393,-0.487536,0
52610,-1.84577,-1.10115,-0.523607,0
52630,-1.80065,-1.09667,-0.574581,0
52650,-1.7412,-1.08988,-0.636664,0
52670,-1.67344,-1.07929,-0.70612,0
52690,-1.60059,-1.06445,-0.782405,0
52710,-1.52525,-1.04613,-0.864443,0
52730,-1.44516,-1.02182,-0.947466,0
52750,-1.37246,-0.991024,-1.02344,0
52770,-1.30962,-0.957215,-1.09316,0
52790,-1.25247,-0.920403,-1.15681,0
52810,-1.20269,-0.880254,-1.20983,0
52830,-1.16267,-0.839315,-1.25247,0
52850,-1.13111,-0.801332,-1.28628,0
52870,-1.10314,-0.769055,-1.31344,0
52890,-1.0831,-0.739326,-1.33186,0
52910,-1.06869,-0.711234,-1.34299,0
52930,-1.05888,-0.685353,-1.34943,0
52950,-1.0527,-0.663889,-1.35152,0
52970,-1.04972,-0.645328,-1.35173,0
52990,-1.0495,-0.628447,-1.35301,0
53010,-1.05317,-0.613556,-1.35303,0
53030,-1.05939,-0.600475,-1.35324,0
53050,-1.06201,-0.588524,-1.35849,0
53070,-1.05973,-0.577237,-1.36609,0
53090,-1.0554,-0.567588,-1.37302,0
53110,-1.05288,-0.559014,-1.3803,0
53130,-1.05149,-0.549574,-1.38972,0
53150,-1.04783,-0.540483,-1.39933,0
53170,-1.04379,-0.5322,-1.40649,0
53190,-1.03945,-0.523656,-1.41122,0
53210,-1.03597,-0.51485,-1.41447,0
53230,-1.03519,-0.506136,-1.41554,1000
53250,-1.03734,-0.497265,-1.41465,0
53260,-1.04111,-0.488864,-1.41387,0
53280,-1.04576,-0.479861,-1.41367,0
53300,-1.04903,-0.469818,-1.41408,0
53320,-1.05063,-0.459162,-1.41498,0
53340,-1.05167,-0.448499,-1.41602,0
53360,-1.05162,-0.437941,-1.41783,0
53380,-1.0492,-0.42907,-1.42032,0
53400,-1.04597,-0.421485,-1.42199,0
53420,-1.04248,-0.41617,-1.42195,0
53440,-1.03865,-0.413912,-1.42066,0
53460,-1.03527,-0.413772,-1.41756,0
53480,-1.03144,-0.414542,-1.41332,0
53500,-1.02794,-0.41677,-1.40775,0
53520,-1.02631,-0.419167,-1.40102,0
53540,-1.02703,-0.422298,-1.39344,0
53560,-1.02833,-0.426111,-1.38594,0
53580,-1.02956,-0.430538,-1.37754,0
53600,-1.0321,-0.435317,-1.36853,0
53620,-1.03421,-0.441532,-1.35938,0
53640,-1.03629,-0.448714,-1.35002,0
53660,-1.03818,-0.457456,-1.33991,0
53680,-1.0414,-0.46667,-1.32909,0
53700,-1.04565,-0.476362,-1.31805,0
53720,-1.05081,-0.486657,-1.30648,0
53740,-1.0557,-0.497735,-1.29505,0
53760,-1.06112,-0.509533,-1.28313,0
53780,-1.06825,-0.521218,-1.27067,0
53800,-1.07535,-0.53299,-1.25783,0
53820,-1.08295,-0.546099,-1.24476,0
53840,-1.09128,-0.560449,-1.23211,0
53860,-1.10088,-0.574727,-1.2193,0
53880,-1.11053,-0.589569,-1.20729,0
53900,-1.11936,-0.60534,-1.19618,0
53920,-1.12914,-0.621953,-1.18564,0
53940,-1.13968,-0.63851,-1.1754,0
53960,-1.14954,-0.655608,-1.16654,0
53980,-1.16033,-0.672508,-1.15854,0
54000,-1.17092,-0.689319,-1.15231,0
54020,-1.18146,-0.705451,-1.14687,0
54040,-1.1923,-0.721226,-1.14287,0
54060,-1.20352,-0.736798,-1.14043,0
54080,-1.21329,-0.752152,-1.14041,0
54100,-1.22176,-0.766866,-1.14319,0
54120,-1.22974,-0.780925,-1.14783,0
54140,-1.23717,-0.794131,-1.15394,0
54160,-1.2441,-0.80695,-1.1614,0
54180,-1.25034,-0.819664,-1.17008,0
54200,-1.25541,-0.832091,-1.18031,0
54220,-1.26052,-0.84445,-1.19151,0
54240,-1.26437,-0.856389,-1.20437,0
54260,-1.26839,-0.86843,-1.2177,0
54280,-1.27082,-0.880707,-1.23228,0
54300,-1.27201,-0.893121,-1.24864,0
54330,-1.27014,-0.91704,-1.28734,0
54350,-1.26663,-0.927569,-1.31004,0
54370,-1.26116,-0.937427,-1.3349,0
54390,-1.25237,-0.946422,-1.36286,0
54410,-1.24154,-0.954589,-1.39252,0
54430,-1.22849,-0.962113,-1.42408,0
54450,-1.21366,-0.969096,-1.45659,0
54470,-1.19763,-0.975154,-1.48954,0
54490,-1.181,-0.980672,-1.52243,0
54510,-1.16403,-0.985559,-1.55454,0
54530,-1.14533,-0.989658,-1.58698,0
54550,-1.12571,-0.993356,-1.61928,0
54570,-1.10484,-0.995934,-1.65108,0
54590,-1.08311,-0.997496,-1.68329,0
54610,-1.06108,-0.9974,-1.71474,0
54630,-1.03934,-0.995858,-1.74447,0
54650,-1.01681,-0.993082,-1.77362,0
54670,-0.995827,-0.988738,-1.80092,0
54690,-0.975916,-0.982992,-1.82715,0
54710,-0.957815,-0.975407,-1.85078,0
54730,-0.940559,-0.96702,-1.8737,0
54750,-0.924337,-0.957929,-1.89502,0
54770,-0.908176,-0.94699,-1.91575,0
54790,-0.893012,-0.935973,-1.93552,0
54810,-0.879629,-0.924673,-1.95345,0
54830,-0.867586,-0.913602,-1.96937,0
54850,-0.854895,-0.902234,-1.98537,0
54870,-0.842376,-0.890788,-2.0018,0
54890,-0.83172,-0.880091,-2.01572,0
54910,-0.823542,-0.869847,-2.0269,0
54930,-0.817459,-0.859948,-2.03504,0
54950,-0.810831,-0.850629,-2.04331,0
54970,-0.803367,-0.841986,-2.05208,0
54990,-0.797542,-0.83397,-2.05853,0
55010,-0.792351,-0.825812,-2.06437,0
55030,-0.788159,-0.816954,-2.06939,0
55050,-0.786008,-0.806688,-2.07316,0
55070,-0.782918,-0.795631,-2.07789,0
55090,-0.778381,-0.78442,-2.08382,0
55110,-0.776566,-0.773351,-2.08759,0
55130,-0.776393,-0.761449,-2.08883,0
55150,-0.774611,-0.749555,-2.09125,0
55170,-0.771943,-0.738825,-2.09364,0
55190,-0.770282,-0.728901,-2.09465,0
55210,-0.771241,-0.719066,-2.09335,0
55230,-0.771192,-0.710261,-2.09213,0
55250,-0.770296,-0.70268,-2.09113,0
55270,-0.770681,-0.694867,-2.08855,0
55290,-0.772485,-0.686858,-2.08416,0
55310,-0.773014,-0.679741,-2.08022,0
55330,-0.773114,-0.67312,-2.07616,0
55350,-0.775451,-0.665749,-2.0704,0
55370,-0.778169,-0.658615,-2.06425,0
55390,-0.779621,-0.65174,-2.05834,0
55410,-0.780455,-0.644848,-2.0525,0
55430,-0.781433,-0.638246,-2.04528,0
55450,-0.78204,-0.631899,-2.0383,0
55470,-0.783716,-0.625415,-2.03099,0
55490,-0.785875,-0.618847,-2.02299,0
55510,-0.788781,-0.612842,-2.0141,0
55530,-0.79028,-0.606907,-2.00539,0
55550,-0.790925,-0.600756,-1.99606,0
55570,-0.792064,-0.595848,-1.98568,0
55590,-0.793347,-0.590718,-1.97567,0
55610,-0.795557,-0.584591,-1.96458,0
55630,-0.799769,-0.579435,-1.95203,0
55650,-0.803121,-0.574163,-1.93942,0
55670,-0.806438,-0.56844,-1.92589,0
55690,-0.811103,-0.563227,-1.91142,0
55710,-0.816279,-0.55913,-1.89694,0
55730,-0.820978,-0.554891,-1.88194,0
55750,-0.826056,-0.550595,-1.86639,0
55770,-0.831553,-0.547592,-1.85058,0
55790,-0.836787,-0.544812,-1.83514,0
55810,-0.841638,-0.541696,-1.81986,0
55830,-0.846199,-0.539722,-1.80538,0
55850,-0.849415,-0.537984,-1.7911,0
55870,-0.85294,-0.534854,-1.77625,0
55890,-0.85767,-0.531069,-1.76103,0
55910,-0.861236,-0.526513,-1.7458,0
55930,-0.866317,-0.521514,-1.7291,0
55950,-0.873011,-0.516485,-1.71145,0
55970,-0.879827,-0.512302,-1.694,0
55990,-0.885788,-0.508057,-1.67632,0
56010,-0.892743,-0.505226,-1.65719,0
56030,-0.900001,-0.502618,-1.63792,0
56050,-0.906074,-0.500869,-1.61877,0
56070,-0.913387,-0.500913,-1.59765,0
56090,-0.921721,-0.502027,-1.57579,0
56110,-0.929016,-0.503993,-1.5547,0
56130,-0.934729,-0.506687,-1.53336,0
56150,-0.944064,-0.510685,-1.5102,0
56170,-0.953489,-0.515319,-1.48739,0
56190,-0.961426,-0.521762,-1.46502,0
56210,-0.969989,-0.529312,-1.44156,0
56230,-0.980841,-0.537906,-1.41692,0
56250,-0.991228,-0.546583,-1.39272,0
56270,-1.0007,-0.556435,-1.36957,0
56290,-1.00999,-0.56803,-1.3465,0
56310,-1.0213,-0.579539,-1.32299,0
56330,-1.03296,-0.590871,-1.30026,0
56350,-1.04384,-0.603714,-1.2783,0
56370,-1.0555,-0.616941,-1.25627,0
56390,-1.06829,-0.630017,-1.23284,0
56410,-1.08259,-0.642942,-1.21018,0
56430,-1.09578,-0.656969,-1.18894,0
56450,-1.11035,-0.671196,-1.16734,0
56470,-1.12702,-0.685534,-1.14536,0
56490,-1.14263,-0.700944,-1.12563,0
56500,-1.15714,-0.716549,-1.10713,0
56520,-1.17321,-0.73187,-1.0882,0
56540,-1.18995,-0.747973,-1.06988,0
56560,-1.20704,-0.764223,-1.05271,0
56580,-1.22389,-0.77958,-1.03682,0
56600,-1.24051,-0.795103,-1.02189,0
56620,-1.25728,-0.810359,-1.0085,0
56630,-1.27313,-0.825361,-0.996598,0
56650,-1.28897,-0.839168,-0.98521,0
56670,-1.30474,-0.852466,-0.975661,0
56690,-1.31951,-0.865941,-0.968647,0
56710,-1.33321,-0.879532,-0.962985,0
56730,-1.34687,-0.89289,-0.957884,0
56750,-1.3592,-0.906054,-0.954905,0
56770,-1.37013,-0.919822,-0.954464,0
56790,-1.38009,-0.933453,-0.955179,0
56810,-1.38951,-0.946826,-0.956771,0
56830,-1.39834,-0.96007,-0.960181,0
56850,-1.40681,-0.973352,-0.964782,0
56870,-1.41317,-0.985995,-0.971858,0
56890,-1.41788,-0.99858,-0.980787,0
56910,-1.42113,-1.01069,-0.991663,0
56930,-1.41817,-1.04621,-1.03845,0
56950,-1.41324,-1.05789,-1.05816,0
56970,-1.40633,-1.06956,-1.0802,0
56990,-1.39846,-1.08085,-1.10313,0
57010,-1.38917,-1.09212,-1.12704,0
57030,-1.37848,-1.10313,-1.15153,0
57050,-1.36747,-1.11385,-1.17672,0
57070,-1.35591,-1.12443,-1.20176,0
57090,-1.34446,-1.13452,-1.22636,0
57110,-1.33152,-1.14454,-1.25198,0
57130,-1.31655,-1.15382,-1.2782,0
57150,-1.30031,-1.16289,-1.30585,0
57170,-1.28287,-1.17121,-1.3346,0
57190,-1.26278,-1.17881,-1.36518,0
57210,-1.24082,-1.18572,-1.39742,0
57230,-1.21835,-1.19133,-1.42926,0
57250,-1.19528,-1.19596,-1.46192,0
57270,-1.17028,-1.20003,-1.49652,0
57290,-1.14392,-1.20326,-1.5316,0
57310,-1.11654,-1.20579,-1.56794,0
57330,-1.08828,-1.20672,-1.60473,0
57350,-1.06234,-1.20565,-1.63947,0
57370,-1.03328,-1.2032,-1.6765,0
57390,-1.00344,-1.2007,-1.71355,0
57410,-0.973875,-1.19735,-1.74889,0
57430,-0.945843,-1.19308,-1.78251,0
57450,-0.920333,-1.18701,-1.8134,0
57470,-0.895593,-1.18045,-1.84461,0
57490,-0.872144,-1.17339,-1.87279,0
57510,-0.850378,-1.16644,-1.89902,0
57530,-0.827151,-1.15903,-1.92532,0
57550,-0.805937,-1.15062,-1.94869,0
57570,-0.788984,-1.14133,-1.96893,0
57590,-0.77231,-1.132,-1.98981,0
57610,-0.75703,-1.12316,-2.00694,0
57630,-0.746748,-1.11489,-2.01919,0
57650,-0.738523,-1.10618,-2.0296,0
57670,-0.728602,-1.0976,-2.04177,0
57690,-0.720634,-1.08921,-2.05197,0
57710,-0.717244,-1.08089,-2.05817,0
57730,-0.712672,-1.07183,-2.0643,0
57750,-0.70583,-1.06267,-2.07165,0
57770,-0.702643,-1.05251,-2.07551,0
57790,-0.700483,-1.04157,-2.07828,0
57810,-0.697884,-1.03081,-2.08157,0
57830,-0.696998,-1.01952,-2.08229,0
57850,-0.699361,-1.00839,-2.08084,0
57870,-0.700107,-0.99681,-2.0796,0
57890,-0.698975,-0.985593,-2.078,0
57910,-0.702119,-0.973861,-2.07333,0
57930,-0.707448,-0.961685,-2.06708,0
57950,-0.710646,-0.949697,-2.0611,0
57970,-0.713887,-0.937774,-2.05483,0
57990,-0.720681,-0.925465,-2.04563,0
58010,-0.728479,-0.91399,-2.03574,0
58030,-0.733343,-0.902174,-2.02784,0
58050,-0.737034,-0.89042,-2.02087,0
58070,-0.742627,-0.878771,-2.0127,0
58090,-0.748304,-0.867181,-2.0061,0
58110,-0.752209,-0.855371,-2.00101,0
58130,-0.753822,-0.844256,-1.99636,0
58150,-0.755456,-0.83283,-1.99209,0
58170,-0.758535,-0.820841,-1.98692,0
58190,-0.759378,-0.808379,-1.98335,0
58210,-0.759668,-0.796784,-1.97856,0
58230,-0.76112,-0.786944,-1.97263,0
58250,-0.763406,-0.778047,-1.96522,0
58270,-0.765572,-0.769545,-1.95731,0
58290,-0.768156,-0.762332,-1.94845,0
58310,-0.772096,-0.756446,-1.9376,0
58330,-0.777847,-0.751853,-1.92471,0
58350,-0.783961,-0.748628,-1.91029,0
58370,-0.791551,-0.74662,-1.89429,0
58390,-0.799613,-0.74497,-1.87693,0
58410,-0.80887,-0.744229,-1.85811,0
58430,-0.818445,-0.74397,-1.83869,0
58450,-0.829021,-0.743784,-1.8187,0
58470,-0.84,-0.743477,-1.79832,0
58490,-0.851055,-0.743709,-1.77786,0
58510,-0.862665,-0.743894,-1.75711,0
58530,-0.873327,-0.743497,-1.73695,0
58550,-0.883927,-0.743999,-1.71667,0
58570,-0.894789,-0.744109,-1.69584,0
58580,-0.905192,-0.74351,-1.6757,0
58600,-0.914588,-0.742422,-1.65614,0
58620,-0.924975,-0.741674,-1.63559,0
58640,-0.935625,-0.740324,-1.61513,0
58660,-0.946522,-0.739025,-1.59516,0
58680,-0.957228,-0.737899,-1.57531,0
58700,-0.968467,-0.73701,-1.55468,0
58720,-0.979847,-0.736087,-1.53375,0
58740,-0.989865,-0.735427,-1.51374,0
58760,-0.998945,-0.736011,-1.49371,0
58780,-1.00901,-0.737732,-1.47289,0
58800,-1.01885,-0.739293,-1.45242,0
58820,-1.02782,-0.741102,-1.43232,0
58840,-1.03652,-0.743708,-1.41226,0
58860,-1.0463,-0.747,-1.39191,0
58880,-1.05783,-0.750447,-1.37099,0
58900,-1.06861,-0.754459,-1.35047,0
58920,-1.07802,-0.759788,-1.33029,0
58940,-1.08905,-0.765716,-1.30895,0
58960,-1.10087,-0.772144,-1.28763,0
58980,-1.11237,-0.7785,-1.26665,0
59000,-1.12549,-0.785902,-1.24518,0
59020,-1.13874,-0.793812,-1.22353,0
59040,-1.15274,-0.801431,-1.20059,0
59060,-1.16796,-0.80934,-1.17725,0
59080,-1.18361,-0.817935,-1.15473,0
59100,-1.19995,-0.827133,-1.13152,0
59120,-1.21686,-0.836529,-1.10788,0
59140,-1.23446,-0.846145,-1.08383,0
59160,-1.25329,-0.856313,-1.05972,0
59180,-1.27224,-0.867648,-1.03611,0
59200,-1.2913,-0.879409,-1.01355,0
59220,-1.31249,-0.891088,-0.990078,0
59240,-1.33368,-0.902901,-0.966662,0
59260,-1.35507,-0.915814,-0.944363,0
59280,-1.37604,-0.928462,-0.922949,0
59300,-1.39798,-0.941008,-0.901585,0
59320,-1.4199,-0.953807,-0.881593,0
59340,-1.44153,-0.966792,-0.863058,0
59360,-1.46243,-0.979853,-0.846643,0
59380,-1.4828,-0.992973,-0.830938,0
59400,-1.5023,-1.00646,-0.816406,0
59420,-1.52167,-1.01983,-0.802569,0
59440,-1.5414,-1.03328,-0.789908,0
59460,-1.55931,-1.04745,-0.780115,0
59480,-1.57676,-1.06121,-0.771716,0
59500,-1.59209,-1.07446,-0.766317,0
59520,-1.60591,-1.08734,-0.763234,0
59540,-1.61603,-1.10121,-0.763893,0
59560,-1.62451,-1.1154,-0.767089,0
59580,-1.63069,-1.1288,-0.773255,0
59600,-1.63433,-1.14197,-0.782276,0
59620,-1.636,-1.15522,-0.793203,0
59640,-1.63362,-1.1692,-0.807733,0
59660,-1.62951,-1.18312,-0.824294,0
59680,-1.62481,-1.19689,-0.841972,0
59700,-1.61706,-1.21059,-0.863051,0
59720,-1.60662,-1.22433,-0.885659,0
59740,-1.5949,-1.23827,-0.909969,0
59760,-1.58101,-1.25182,-0.936082,0
59780,-1.56159,-1.26573,-0.967447,0
59800,-1.54207,-1.27917,-0.999227,0
59820,-1.52108,-1.29136,-1.03217,0
59840,-1.49671,-1.30404,-1.06882,0
59860,-1.4678,-1.31622,-1.10855,0
59880,-1.43779,-1.32795,-1.14915,0
59900,-1.40389,-1.33928,-1.19466,0
59920,-1.36387,-1.34853,-1.24566,0
59940,-1.31364,-1.35599,-1.30721,0
59960,-1.25941,-1.36286,-1.37318,0
59980,-1.20142,-1.36748,-1.44076,0
60000,-1.13969,-1.36974,-1.5118,0
60020,-1.06961,-1.37018,-1.59049,0
60040,-0.998498,-1.36861,-1.66878,0
60060,-0.937161,-1.36566,-1.73856,0
60080,-0.882789,-1.35958,-1.80022,0
60100,-0.831132,-1.35244,-1.86007,0
60120,-0.789237,-1.34303,-1.90892,0
60140,-0.7489,-1.33282,-1.9558,0
60160,-0.712752,-1.32247,-1.99737,0
60180,-0.68295,-1.311,-2.03154,0
60200,-0.656982,-1.29968,-2.06255,0
60220,-0.630994,-1.28812,-2.09283,0
60240,-0.607215,-1.27562,-2.12044,0
60260,-0.585936,-1.26247,-2.14603,0
60280,-0.56752,-1.24888,-2.16843,0
60300,-0.553074,-1.2354,-2.18644,0
60320,-0.54106,-1.22268,-2.20211,0
60340,-0.529952,-1.21071,-2.21635,0
60360,-0.520888,-1.19949,-2.22733,0
60380,-0.514193,-1.18908,-2.23537,0
60400,-0.50673,-1.17923,-2.24398,0
60420,-0.50183,-1.17022,-2.24984,0
60440,-0.499967,-1.16067,-2.25296,0
60460,-0.498124,-1.15077,-2.25537,0
60480,-0.48955,-1.14128,-2.262,0
60500,-0.483222,-1.13243,-2.26545,0
60520,-0.483752,-1.12405,-2.26349,0
60540,-0.487126,-1.11556,-2.25947,0
60560,-0.489813,-1.10651,-2.25562,0
60580,-0.492536,-1.09829,-2.25005,0
60600,-0.499312,-1.09151,-2.24156,0
60620,-0.506386,-1.08469,-2.23204,0
60640,-0.513792,-1.07732,-2.22164,0
60660,-0.522313,-1.06979,-2.21136,0
60680,-0.53031,-1.0627,-2.20121,0
60700,-0.538626,-1.05622,-2.19053,0
60720,-0.548195,-1.05015,-2.1795,0
60740,-0.5603,-1.04453,-2.16586,0
60760,-0.571296,-1.03811,-2.15489,0
60780,-0.577706,-1.03065,-2.14649,0
60800,-0.585701,-1.02406,-2.13549,0
60820,-0.593077,-1.01662,-2.12465,0
60840,-0.602307,-1.00843,-2.1131,0
60860,-0.610665,-1.00044,-2.10316,0
60880,-0.622251,-0.991612,-2.09086,0
60900,-0.635828,-0.982508,-2.07715,0
60920,-0.649191,-0.973892,-2.06398,0
60940,-0.659293,-0.965573,-2.05213,0
60960,-0.669858,-0.957816,-2.03833,0
60980,-0.680774,-0.949994,-2.024,0
61000,-0.69262,-0.941111,-2.00961,0
61020,-0.704373,-0.933478,-1.99529,0
61040,-0.716852,-0.926739,-1.97951,0
61060,-0.728037,-0.919192,-1.96346,0
61080,-0.739958,-0.913753,-1.94655,0
61100,-0.751894,-0.908836,-1.93059,0
61120,-0.763106,-0.902844,-1.91461,0
61140,-0.77471,-0.896933,-1.89743,0
61160,-0.787513,-0.894255,-1.87877,0
61180,-0.799064,-0.890894,-1.86087,0
61200,-0.810275,-0.887191,-1.84277,0
61230,-0.837434,-0.88406,-1.8043,0
61250,-0.849264,-0.882546,-1.78538,0
61270,-0.861077,-0.880522,-1.76543,0
61290,-0.874496,-0.879441,-1.74532,0
61310,-0.888942,-0.879407,-1.72421,0
61330,-0.902206,-0.876792,-1.70391,0
61350,-0.917016,-0.874463,-1.68076,0
61370,-0.935121,-0.873618,-1.65623,0
61390,-0.950604,-0.873455,-1.63431,0
61410,-0.965807,-0.872114,-1.61115,0
61430,-0.982356,-0.870919,-1.58663,0
61450,-0.999555,-0.870593,-1.56235,0
61470,-1.01529,-0.870199,-1.53783,0
61490,-1.03218,-0.868995,-1.51234,0
61520,-1.06591,-0.868479,-1.46194,0
61550,-1.12055,-0.868742,-1.38461,0
61570,-1.13721,-0.87035,-1.35978,0
61590,-1.1549,-0.871249,-1.33395,0
61600,-1.17314,-0.872162,-1.30841,0
61620,-1.19052,-0.873869,-1.28408,0
61640,-1.20622,-0.876119,-1.26024,0
61660,-1.22184,-0.878338,-1.23633,0
61680,-1.23851,-0.880876,-1.21222,0
61700,-1.25504,-0.882995,-1.18898,0
61720,-1.27204,-0.885697,-1.16536,0
61740,-1.29211,-0.887568,-1.13995,0
61760,-1.31273,-0.889978,-1.11489,0
61780,-1.33267,-0.893842,-1.09033,0
61800,-1.35315,-0.898787,-1.06473,0
61820,-1.37438,-0.904775,-1.03908,0
61840,-1.39449,-0.912369,-1.01388,0
61860,-1.41581,-0.922083,-0.987646,0
61880,-1.43939,-0.931707,-0.960397,0
61900,-1.46252,-0.941522,-0.933176,0
61920,-1.48531,-0.952091,-0.905371,0
61930,-1.50962,-0.963299,-0.876124,0
61950,-1.53642,-0.974591,-0.845052,0
61970,-1.56478,-0.986014,-0.814768,0
61990,-1.59465,-0.996122,-0.783555,0
62010,-1.62581,-1.00606,-0.752373,0
62030,-1.65765,-1.01663,-0.721158,0
62050,-1.68778,-1.02748,-0.691833,0
62070,-1.71624,-1.03904,-0.664405,0
62090,-1.74114,-1.0515,-0.639505,0
62110,-1.7662,-1.06433,-0.615034,0
62130,-1.78917,-1.07757,-0.592906,0
62150,-1.80983,-1.0911,-0.573049,0
62170,-1.83103,-1.1035,-0.554417,0
62190,-1.85007,-1.11525,-0.539615,1001
62210,-1.86575,-1.12744,-0.526672,0
62230,-1.88054,-1.13953,-0.514145,0
62250,-1.8938,-1.15022,-0.503731,0
62270,-1.90375,-1.15954,-0.497681,0
62290,-1.90919,-1.16653,-0.496681,0
62310,-1.91082,-1.1715,-0.499,0
62330,-1.9096,-1.17643,-0.50424,0
62350,-1.90622,-1.18057,-0.510857,0
62370,-1.90066,-1.18349,-0.519926,0
62390,-1.89178,-1.18487,-0.532262,0
62410,-1.88097,-1.18538,-0.545797,0
62430,-1.86815,-1.18598,-0.560471,0
62450,-1.85468,-1.18685,-0.575454,0
62470,-1.84098,-1.18717,-0.590353,0
62490,-1.82863,-1.18743,-0.604139,0
62510,-1.81667,-1.18626,-0.616452,0
62530,-1.80591,-1.18525,-0.626898,0
62550,-1.79792,-1.1847,-0.634485,0
62570,-1.79387,-1.18401,-0.63856,0
62590,-1.79216,-1.18261,-0.639664,0
62610,-1.79106,-1.18088,-0.640346,0
62630,-1.78987,-1.1787,-0.641378,0
62650,-1.78807,-1.17708,-0.643114,0
62670,-1.78379,-1.17498,-0.645644,0
62690,-1.77954,-1.17303,-0.649119,0
62710,-1.77297,-1.17063,-0.655841,0
62730,-1.75985,-1.16961,-0.670808,0
62750,-1.74064,-1.16934,-0.690709,0
62770,-1.71623,-1.16864,-0.714116,0
62790,-1.68769,-1.16491,-0.743472,0
62810,-1.6451,-1.15794,-0.786923,0
62830,-1.59,-1.1481,-0.842354,0
62850,-1.53082,-1.13251,-0.900249,0
62870,-1.46812,-1.11002,-0.963118,0
62890,-1.40715,-1.08155,-1.02464,0
62910,-1.34921,-1.04881,-1.08153,0
62930,-1.29732,-1.00833,-1.13513,0
62960,-1.20335,-0.918599,-1.22786,0
62980,-1.16781,-0.87184,-1.26111,0
63000,-1.1398,-0.830157,-1.28756,0
63000,-1.11526,-0.791635,-1.31009,0
63020,-1.09737,-0.754936,-1.32589,0
63040,-1.08489,-0.722021,-1.33795,0
63060,-1.07411,-0.69379,-1.34819,0
63080,-1.06458,-0.668188,-1.35674,0
63100,-1.057,-0.644852,-1.36237,0
63120,-1.04918,-0.625104,-1.36702,0
63140,-1.04235,-0.607989,-1.3706,0
63160,-1.03772,-0.592781,-1.37186,0
63180,-1.03578,-0.579352,-1.37124,0
63200,-1.03545,-0.568155,-1.37018,0
63220,-1.03655,-0.559336,-1.36878,0
63240,-1.03859,-0.552233,-1.36741,0
63260,-1.03942,-0.545336,-1.36532,0
63280,-1.04073,-0.538205,-1.36261,0
63300,-1.04144,-0.53027,-1.36037,0
63320,-1.04201,-0.522262,-1.35905,0
63340,-1.04309,-0.514007,-1.35735,0
63360,-1.04395,-0.506407,-1.35496,0
63380,-1.04447,-0.500655,-1.35156,0
63400,-1.0451,-0.497052,-1.34732,0
63420,-1.04507,-0.496018,-1.34208,0
63440,-1.04514,-0.498062,-1.33515,1000
63460,-1.0456,-0.503033,-1.32604,0
63480,-1.0467,-0.509955,-1.31521,0
63500,-1.04882,-0.518891,-1.3031,0
63520,-1.05338,-0.529195,-1.29003,0
63540,-1.05889,-0.540552,-1.2764,0
63560,-1.06521,-0.552023,-1.2611,0
63580,-1.0722,-0.564963,-1.24451,0
63600,-1.08072,-0.578458,-1.22753,0
63620,-1.09267,-0.592125,-1.20971,0
63640,-1.10558,-0.606094,-1.19176,0
63660,-1.11729,-0.620995,-1.17525,0
63680,-1.12943,-0.635742,-1.15873,0
63700,-1.14256,-0.649604,-1.14198,0
63720,-1.15554,-0.664422,-1.12695,0
63740,-1.16906,-0.678557,-1.11284,0
63760,-1.18181,-0.692484,-1.10059,0
63800,-1.20604,-0.720888,-1.08223,0
63820,-1.21933,-0.7354,-1.07473,0
63840,-1.23152,-0.749837,-1.0713,0
63860,-1.24395,-0.764557,-1.06837,0
63870,-1.25497,-0.77952,-1.06746,0
63890,-1.26522,-0.794628,-1.06898,0
63910,-1.27517,-0.81018,-1.07206,0
63930,-1.28506,-0.825702,-1.07743,0
63950,-1.29356,-0.841214,-1.08462,0
63970,-1.30167,-0.856067,-1.09355,0
63990,-1.30823,-0.869984,-1.10396,0
64020,-1.31849,-0.896862,-1.13052,0
64040,-1.32169,-0.909976,-1.14641,0
64060,-1.32445,-0.92246,-1.16333,0
64080,-1.32993,-0.957892,-1.21545,0
64100,-1.33037,-0.969314,-1.23301,0
64120,-1.33104,-0.980319,-1.25032,0
64130,-1.33088,-0.991442,-1.26894,0
64150,-1.32975,-1.00169,-1.28763,0
64170,-1.32724,-1.01155,-1.30754,0
64190,-1.32284,-1.02109,-1.32856,0
64210,-1.31558,-1.03016,-1.3521,0
64230,-1.30652,-1.03907,-1.37716,0
64250,-1.29564,-1.04674,-1.40396,0
64270,-1.28177,-1.0534,-1.43205,0
64290,-1.26594,-1.05941,-1.46144,0
64310,-1.24854,-1.06465,-1.49212,0
64330,-1.2291,-1.06855,-1.5237,0
64350,-1.20815,-1.07191,-1.55628,0
64370,-1.18515,-1.07364,-1.58945,0
64390,-1.15959,-1.07449,-1.62365,0
64410,-1.13374,-1.07459,-1.65695,0
64430,-1.10779,-1.07352,-1.69007,0
64450,-1.08343,-1.07132,-1.72087,0
64470,-1.05883,-1.06791,-1.75061,0
64490,-1.03534,-1.06335,-1.77793,0
64510,-1.01334,-1.05822,-1.80307,0
64530,-0.991198,-1.05256,-1.82823,0
64550,-0.971583,-1.04665,-1.85032,0
64570,-0.954072,-1.03996,-1.87006,0
64590,-0.937785,-1.03259,-1.88818,0
64610,-0.922797,-1.02457,-1.90463,0
64630,-0.90953,-1.01548,-1.9198,0
64650,-0.89769,-1.00607,-1.93379,0
64670,-0.884419,-0.996031,-1.94841,0
64690,-0.871115,-0.986276,-1.96285,0
64710,-0.859694,-0.976161,-1.97581,0
64730,-0.850448,-0.966217,-1.9866,0
64750,-0.840421,-0.955866,-1.99817,0
64770,-0.829517,-0.945862,-2.0109,0
64790,-0.819472,-0.936427,-2.02236,0
64810,-0.810412,-0.927171,-2.03229,0
64830,-0.801457,-0.917954,-2.04214,0
64850,-0.793813,-0.908527,-2.0504,0
64870,-0.786609,-0.899665,-2.05949,0
64890,-0.779305,-0.890816,-2.06858,0
64910,-0.774768,-0.882202,-2.07568,0
64930,-0.769558,-0.873315,-2.08305,0
64950,-0.762209,-0.864326,-2.09199,0
64970,-0.75658,-0.855064,-2.09954,0
64990,-0.751532,-0.845415,-2.10644,0
65010,-0.746819,-0.836165,-2.11317,0
65030,-0.742607,-0.827285,-2.11923,0
65050,-0.738681,-0.81855,-2.12428,0
65070,-0.734331,-0.809885,-2.12906,0
65090,-0.730697,-0.801881,-2.13288,0
65110,-0.728017,-0.794626,-2.13576,0
65130,-0.726076,-0.787903,-2.13736,0
65150,-0.724139,-0.781618,-2.1389,0
65170,-0.722368,-0.775839,-2.13965,0
65190,-0.720297,-0.770053,-2.13957,0
65210,-0.718949,-0.765075,-2.13797,0
65230,-0.718839,-0.760363,-2.13547,0
65250,-0.719276,-0.755787,-2.13213,0
65270,-0.719058,-0.751132,-2.12823,0
65290,-0.720006,-0.746571,-2.12319,0
65310,-0.721052,-0.742312,-2.11757,0
65330,-0.722656,-0.738139,-2.1117,0
65350,-0.724839,-0.733878,-2.1051,0
65370,-0.727065,-0.729707,-2.09841,0
65390,-0.729573,-0.725532,-2.09151,0
65410,-0.732038,-0.72138,-2.08455,0
65430,-0.735393,-0.717555,-2.07711,0
65450,-0.738098,-0.713893,-2.06996,0
65470,-0.740688,-0.709748,-2.06224,0
65490,-0.744164,-0.706009,-2.05413,0
65510,-0.747333,-0.702702,-2.04593,0
65530,-0.750105,-0.698745,-2.03727,0
65550,-0.753505,-0.694478,-2.02773,0
65570,-0.758458,-0.690748,-2.01694,0
65590,-0.763196,-0.687465,-2.00542,0
65610,-0.767276,-0.684692,-1.9939,0
65630,-0.771732,-0.681442,-1.98147,0
65650,-0.776531,-0.677884,-1.96951,0
65670,-0.781823,-0.674107,-1.95723,0
65690,-0.788002,-0.670333,-1.94421,0
65710,-0.793896,-0.666617,-1.931,0
65730,-0.799059,-0.662893,-1.91776,0
65750,-0.803541,-0.658887,-1.90508,0
65770,-0.807647,-0.654868,-1.89262,0
65790,-0.812082,-0.650193,-1.8801,0
65810,-0.816147,-0.6454,-1.86789,0
65830,-0.819795,-0.640759,-1.85561,0
65850,-0.823841,-0.636479,-1.84271,0
65870,-0.828028,-0.632368,-1.82953,0
65890,-0.830874,-0.628091,-1.817,0
65910,-0.833675,-0.624196,-1.80433,0
65930,-0.837055,-0.620482,-1.79093,0
65950,-0.840201,-0.617082,-1.77734,0
65970,-0.843284,-0.614082,-1.76364,0
65990,-0.846175,-0.610651,-1.74933,0
66010,-0.849125,-0.607327,-1.735,0
66030,-0.852043,-0.604709,-1.72069,0
66050,-0.854946,-0.602274,-1.70561,0
66070,-0.858997,-0.599915,-1.69015,0
66090,-0.86309,-0.597663,-1.67468,0
66110,-0.866616,-0.595945,-1.6594,0
66130,-0.869792,-0.594277,-1.64396,0
66150,-0.873307,-0.592538,-1.62852,0
66170,-0.876939,-0.591224,-1.61249,0
66190,-0.881551,-0.59047,-1.59575,0
66210,-0.886909,-0.589612,-1.57863,0
66230,-0.89301,-0.589014,-1.56084,0
66250,-0.899121,-0.588862,-1.54287,0
66270,-0.90461,-0.58904,-1.52439,0
66290,-0.910081,-0.58978,-1.50591,0
66310,-0.915147,-0.591224,-1.48732,0
66330,-0.921806,-0.593635,-1.46796,0
66350,-0.929485,-0.596878,-1.44863,0
66370,-0.937902,-0.600227,-1.42854,0
66390,-0.947629,-0.603955,-1.40793,0
66410,-0.957303,-0.607927,-1.38767,0
66430,-0.977866,-0.616187,-1.34807,0
66440,-0.987891,-0.621743,-1.32902,0
66460,-0.997929,-0.628056,-1.31073,0
66480,-1.00789,-0.634782,-1.29261,0
66500,-1.01743,-0.642256,-1.27491,0
66520,-1.02846,-0.649946,-1.2574,0
66540,-1.03957,-0.657881,-1.24023,0
66560,-1.05013,-0.666926,-1.22329,0
66580,-1.05964,-0.676715,-1.20732,0
66600,-1.07011,-0.685692,-1.19132,0
66620,-1.0808,-0.694454,-1.17543,0
66640,-1.09186,-0.703295,-1.16108,0
66660,-1.10425,-0.711669,-1.14674,0
66680,-1.11706,-0.719813,-1.13254,0
66700,-1.1285,-0.728849,-1.11963,0
66720,-1.13819,-0.739567,-1.10783,0
