Timestamp, Electrode 1, Electrode 2, Electrode 3, Electrode 4, Electrode 5, Electrode 6, Electrode 7, Electrode 8, Marker
0,-2,-4,-1,2,-2,-11,-31,-2,0
5,0,1,-4,-3,-6,17,-26,24,0
10,0,-1,0,2,2,-8,-2,-5,0
15,2,0,1,3,1,-57,-50,0,0
20,3,0,1,0,3,10,51,13,0
25,4,-5,-6,-8,-8,-25,-31,-20,0
30,-9,7,3,2,-3,9,19,6,0
35,-1,-2,-3,-1,4,63,27,-9,0
40,17,5,2,4,6,-17,0,25,0
45,-20,-27,-4,-3,0,-21,-25,-76,0
50,-8,25,3,1,2,-6,17,21,0
55,21,7,11,-2,-6,-2,15,8,0
60,65,-21,-12,-2,-2,17,0,-19,0
65,-54,74,29,0,-5,-5,14,-1,0
70,76,-56,-38,-1,1,-1,-3,1,0
75,93,9,20,-1,0,-2,-5,-3,0
80,-37,60,34,0,-7,-14,-14,-6,0
85,48,-66,-76,-3,8,6,15,6,0
90,-34,19,-1,-3,2,11,-3,6,0
95,-84,57,-3,-7,-2,-3,4,-13,0
100,60,72,-15,8,8,14,1,3,0
105,-49,22,49,3,-2,5,21,17,0
110,-33,29,-20,3,4,13,3,6,0
115,28,-62,-17,-7,3,-5,-9,-12,0
120,2,-23,24,-4,-3,-4,-4,7,0
125,-24,16,-2,19,8,5,3,14,0
130,14,5,21,-2,-18,-12,-5,-13,0
135,-24,-4,-8,-19,-11,-13,-12,-1,0
140,-22,-17,-7,-3,5,29,79,6,0
145,19,-24,-1,-6,14,6,-11,13,0
150,-17,-22,6,4,3,-8,-10,-15,0
155,1,-1,10,12,9,32,98,32,0
160,-38,-28,-16,-12,-18,-2,-23,-19,0
165,21,2,-7,-14,-18,-23,16,5,0
170,0,6,10,8,15,9,-47,-12,0
175,-29,-2,-12,-9,-12,71,61,10,0
180,1,-14,-16,-12,-5,-89,-42,17,0
185,5,-1,-4,-16,-20,0,6,2,0
190,-2,1,7,7,11,-53,-53,-13,0
195,-2,-2,2,10,5,102,93,-2,0
200,-3,-1,0,1,-2,-56,-24,-14,0
205,11,7,6,17,18,-24,1,16,0
210,-5,-1,-3,0,4,54,6,-4,0
215,-5,-4,-2,3,6,17,-2,7,0
220,-7,-5,-7,-6,-14,-13,-13,-9,0
225,-2,-4,1,-4,-6,2,18,-2,0
230,-7,-5,-3,-5,-8,-2,-12,-9,0
235,6,5,1,-2,0,-31,-31,-4,0
240,8,4,4,7,11,-3,-16,26,0
245,31,6,3,-3,-4,-16,-30,26,0
250,-6,-1,-2,1,1,-44,-36,33,0
255,-13,5,3,5,12,72,49,26,0
260,8,1,5,8,18,15,30,-13,0
265,-5,-3,0,-1,0,0,6,7,0
270,-18,21,6,0,2,-3,5,5,0
275,-6,-7,-5,-5,-3,-34,-21,-51,0
280,28,-8,-3,-4,-2,44,-4,-5,0
285,-14,0,-1,2,2,-14,1,-17,0
290,-5,-12,-1,-1,-1,17,32,-3,0
295,-6,2,-1,-3,-4,-36,-24,-32,0
300,-44,10,12,-1,-4,-13,-27,-49,0
305,53,-32,-23,-3,-1,4,3,-15,0
310,-103,34,28,-1,-5,-6,-25,-23,0
315,56,-70,-48,2,5,5,6,5,0
320,35,55,39,3,-4,7,-12,7,0
325,41,24,-16,-2,0,20,27,10,0
330,-56,-85,-49,-4,3,14,29,-16,0
335,6,62,38,4,1,-2,12,12,0
340,21,-43,-34,-5,2,9,-6,3,0
345,-36,40,19,0,-5,-12,-16,1,0
350,90,34,-15,4,2,0,13,18,0
355,-15,17,12,3,5,5,-8,10,0
360,2,-3,-1,2,2,-10,-19,9,0
365,-18,-15,16,-2,-7,-2,-8,2,0
370,18,-2,7,2,0,11,23,6,0
375,-20,-6,0,-6,-10,-27,-72,-10,0
380,-7,4,-6,-11,-7,9,23,11,0
385,-9,-35,-21,-4,0,-4,-40,0,0
390,22,12,18,14,14,-7,49,14,0
395,-4,-1,-2,-5,-15,19,31,2,0
400,-25,-30,-15,-13,-5,-11,-23,-2,0
405,4,11,7,6,5,19,25,7,0
410,16,-2,-6,-36,-33,-8,-17,2,0
415,-19,-12,-4,4,24,-36,19,7,0
420,-3,-1,-4,-3,-32,32,23,-2,0
425,1,5,7,-11,0,-56,-50,-8,0
430,3,-3,3,23,5,-14,-38,-3,0
435,-1,-7,-5,9,30,-9,61,21,0
440,3,15,15,6,17,41,70,21,0
445,0,-5,-11,-1,-13,-55,-28,-13,0
450,3,-15,-3,-6,-5,-50,-63,4,0
455,-11,3,5,-7,-20,33,-7,-7,0
460,0,2,-3,20,20,-12,2,-1,0
465,-7,-6,-1,-2,-5,22,-9,-4,0
470,6,-1,0,-11,-9,-2,72,5,0
475,-6,-4,1,-4,-4,21,-16,-4,0
480,-2,0,0,-3,1,-3,-17,-4,0
485,-5,-11,-3,-3,-6,12,11,-1,0
490,3,0,-1,0,2,6,-31,-10,0
495,2,3,1,4,4,39,44,16,0
500,2,-7,-4,-2,-5,-11,-6,-11,0
505,-30,0,5,-1,-2,-15,-14,-13,0
510,9,1,1,6,7,23,36,4,0
515,-7,-6,-5,-7,-9,-4,-16,-32,0
520,-6,-3,2,2,7,16,-25,-1,0
525,21,0,0,2,6,58,68,16,0
530,-1,0,0,0,2,-18,-17,-3,0
535,-20,-24,-6,-2,-5,-6,28,11,0
540,48,14,4,0,2,-23,-6,31,0
545,-7,1,5,4,6,7,-13,-11,0
550,-18,-5,-5,-5,-2,28,28,2,0
555,29,10,-1,-3,-2,-7,-12,5,0
560,-92,11,12,0,0,-10,1,-23,0
565,88,-28,-15,-3,0,3,-5,-35,0
570,11,-7,-5,-3,-3,-13,-38,-32,0
575,-75,14,8,4,4,9,18,12,0
580,13,-17,-4,-5,-13,-21,-36,-7,0
585,17,56,19,2,5,-1,-3,12,0
590,16,-33,-10,-4,2,16,-6,7,0
595,-21,-20,-30,0,-1,-21,-30,22,0
600,51,63,14,-3,-1,8,-3,10,0
605,-13,-34,-26,2,5,4,48,42,0
610,45,92,25,8,2,5,3,-3,0
615,-10,6,34,4,1,-2,-24,11,0
620,19,63,18,3,-1,-13,-16,16,0
625,-23,-45,-15,-5,-4,2,28,5,0
630,-21,-46,-9,-5,0,2,-19,3,0
635,36,20,-2,-5,-7,-12,-18,-12,0
640,-20,-7,-6,4,8,28,68,7,0
645,-18,4,7,-4,-6,-19,-35,-12,0
650,1,-10,-5,-1,-1,5,-6,-11,0
655,-8,9,8,11,15,-8,-12,-17,0
660,-2,-52,-19,-10,-12,-2,-18,-1,0
665,-2,2,1,-17,-7,-3,-6,1,0
670,-18,3,5,6,1,-2,14,10,0
675,18,-10,-8,-6,-4,2,-16,-20,0
680,-6,-24,-4,10,10,-5,-15,-11,0
685,-1,12,-1,-6,-8,-5,15,5,0
690,-11,6,-3,-6,-4,3,-4,1,0
695,6,-8,-1,-2,-4,-3,-8,-7,0
700,-6,-9,-12,-3,-11,50,-34,-4,0
705,1,1,3,17,35,-1,23,6,0
710,-3,-7,-6,-22,-37,17,-13,-7,0
715,-6,-4,-9,-18,-11,-50,-44,-13,0
720,4,-11,-6,-2,11,18,54,2,0
725,-5,0,0,5,-16,-42,-52,-11,0
730,-1,3,5,10,6,58,26,1,0
735,4,0,2,-7,1,-12,8,5,0
740,0,-4,4,-2,4,-26,-17,-5,0
745,-5,-2,-4,8,-6,4,8,0,0
750,-6,3,4,6,23,-25,-22,-5,0
755,3,-4,-5,-4,-24,-20,-10,-2,0
760,6,1,4,1,8,-17,14,4,0
765,-6,-1,-1,-9,-6,17,8,-3,0
770,-1,-3,3,6,9,45,-2,2,0
775,4,-4,-6,4,14,4,-17,-3,0
780,-9,-6,-4,-3,-9,-19,5,-8,0
785,-5,-4,-3,-12,-20,-17,-83,-15,0
790,1,-1,2,0,9,27,42,9,0
795,0,1,-2,1,1,47,35,-1,0
800,-9,-4,-1,3,-2,-17,-49,-54,0
805,4,4,0,-2,0,16,21,10,0
810,1,2,-3,-5,1,-66,-40,-4,0
815,-1,-2,-1,3,0,20,-31,-7,0
820,3,-3,-5,-5,-11,18,30,14,0
825,-4,0,2,-2,-4,3,12,-3,0
830,-2,3,-2,-2,-8,-12,-39,-24,0
835,2,0,2,1,1,-53,0,25,0
840,0,-12,-6,-6,-9,-11,-29,1,0
845,-7,12,4,2,8,-66,11,5,0
850,-17,-3,-3,-3,-6,45,23,23,0
855,19,19,5,0,0,7,-14,12,0
860,1,-8,-10,-3,2,16,-13,10,0
865,4,1,3,6,2,-23,-2,13,0
870,-5,-4,-4,-5,-7,-14,-22,-2,0
875,4,4,1,-4,-4,-11,34,11,0
880,-8,-13,-1,0,-2,-12,20,12,0
885,42,45,9,2,5,37,8,0,0
890,-8,-10,3,-3,-2,-20,-24,-46,0
895,37,28,10,5,6,13,21,4,0
900,-9,-16,1,3,0,-21,-16,2,0
905,-52,-90,-42,-5,-1,38,12,41,0
910,14,67,28,3,6,1,19,16,0
915,11,-53,-34,1,6,9,17,0,0
920,57,11,3,1,1,-8,-11,7,0
925,20,6,13,-6,-5,2,13,-8,0
930,-9,-15,-8,-4,2,2,-5,-11,0
935,-45,3,18,9,-2,-12,-46,-1,0
940,1,-29,-19,-8,0,1,30,10,0
945,1,34,9,7,21,15,31,-6,0
950,-6,-17,-13,-10,-18,-1,5,16,0
955,-6,-14,-6,-8,-17,-11,-13,-5,0
960,6,1,-11,-8,-19,-14,-22,-9,0
965,23,5,5,-10,-6,1,17,4,0
970,11,-18,-2,-2,9,-14,-6,-2,0
975,-9,-3,6,12,14,2,-11,-2,0
980,-4,2,2,10,7,29,46,5,0
985,-4,9,8,3,1,-20,-32,-4,0
990,3,-13,-7,-10,6,3,29,8,0
995,-21,12,-6,-4,-26,-26,-63,-13,0
1000,-2,1,0,9,28,-1,-4,14,0
1005,11,-2,5,19,3,69,21,-7,0
1010,5,1,-2,-20,-13,-16,-27,0,0
1015,-5,-5,-5,-7,-19,-36,-11,-3,0
1020,-3,-9,-4,-6,-3,-45,-67,-20,0
1025,5,2,2,-4,23,-6,20,0,0
1030,1,0,-2,29,-22,16,8,-3,0
1035,-9,-3,-2,-7,22,32,41,6,0
1040,-7,-12,-9,-9,-30,-58,-53,-15,0
1045,1,7,4,-7,-7,3,12,4,0
1050,0,-3,-3,6,20,8,-30,0,0
1055,-1,-1,4,-6,4,0,27,7,0
1060,5,-7,-5,6,2,-4,-17,-4,0
1065,-22,13,1,-6,-15,-18,-38,-18,0
1070,-10,-7,0,0,-1,11,22,-2,0
1075,0,2,3,4,4,10,7,2,0
1080,0,1,0,3,9,14,14,-1,0
1085,7,-3,-1,-6,-8,33,0,9,0
1090,1,-3,1,4,6,-11,13,0,0
1095,7,5,5,2,3,-39,-28,4,0
1100,-1,-4,-7,-3,-12,33,3,7,0
1105,5,-4,-5,-6,-14,-55,-3,-7,0
1110,1,3,-2,-2,-5,41,38,2,0
1115,7,-1,0,2,2,-1,-36,-7,0
1120,-5,-2,-2,-5,6,1,20,2,0
1125,5,0,0,3,1,4,12,1,0
1130,6,2,-3,0,-1,-10,16,21,0
1135,-11,0,4,1,3,17,11,4,0
1140,-5,-3,-8,-2,-5,4,-25,-8,0
1145,5,3,1,-4,0,16,26,2,0
1150,-5,-3,0,-3,1,-5,-20,0,0
1155,2,-1,-4,-4,-4,15,36,1,0
1160,8,1,2,4,5,-2,18,-6,0
1165,2,-11,-6,-7,-12,-44,-68,-17,0
1170,-17,7,6,4,5,4,40,-17,0
1175,-4,-3,-2,-5,-3,23,23,0,0
1180,-5,1,-1,-1,6,-1,-9,11,0
1185,-18,-8,-3,0,-5,-29,-24,4,0
1190,22,0,1,3,8,-2,-19,-1,0
1195,-3,2,0,1,1,39,62,2,0
1200,-1,-4,1,1,10,53,37,1,0
1205,5,-1,3,0,-7,-64,-12,-1,0
1210,-12,-10,-4,-1,2,63,-8,-7,0
1215,17,7,1,-2,-8,-41,-20,-14,0
1220,-70,17,1,3,4,-18,-40,-41,0
1225,65,15,12,-1,-7,-5,10,0,0
1230,-18,-26,8,2,7,-1,8,-16,0
1235,55,18,24,6,6,-4,-1,-4,0
1240,-63,98,48,2,-8,-11,-2,-54,0
1245,-7,-87,-70,-9,-4,23,6,8,0
1250,119,-51,-71,-16,-7,-40,-40,14,0
1255,-63,85,3,-3,4,9,-11,-22,0
1260,-4,30,36,-3,-10,-1,7,24,0
1265,94,-11,27,19,19,34,14,15,0
1270,-52,-95,-37,3,3,2,22,11,0
1275,7,1,-18,-4,1,0,0,-35,0
1280,43,-22,-5,-4,-14,-10,-18,4,0
1285,-41,37,35,0,-1,-4,-18,-12,0
1290,-39,15,23,-2,-4,-9,-4,-19,0
1295,6,-21,3,4,1,11,-4,-24,0
1300,-9,-33,-13,-2,-4,-24,-55,9,0
1305,-24,-2,-4,-7,-8,-2,-26,25,0
1310,-1,27,8,4,6,10,29,13,0
1315,-17,-13,5,-2,-5,0,2,30,0
1320,40,-12,-15,3,10,10,-6,6,0
1325,-28,-8,-15,-5,-7,4,40,-12,0
1330,9,41,16,1,-8,-14,-8,9,0
1335,2,-13,-7,1,2,-2,-15,6,0
1340,8,-37,-24,-4,3,6,30,12,0
1345,-9,15,1,1,2,4,-4,-9,0
1350,-22,21,18,1,-6,-20,-25,-7,0
1355,-19,-20,-4,1,3,13,25,1,0
1360,28,-16,-13,5,6,9,29,5,0
1365,-50,18,7,-1,-1,0,-10,-20,0
1370,-30,17,6,-1,-2,3,-11,-7,0
1375,-5,-19,-9,-6,-3,-2,18,4,0
1380,11,-7,-5,-1,3,47,-7,3,0
1385,9,15,4,2,3,7,107,13,0
1390,-6,9,1,3,6,8,-30,1,0
1395,17,-8,-5,-8,-8,-5,-51,-2,0
1400,-10,2,2,2,-5,-32,-7,5,0
1405,-16,-4,-8,-15,-8,37,-7,-11,0
1410,53,-11,-6,17,7,20,40,9,0
1415,10,2,3,-2,0,-20,-30,0,0
1420,3,7,8,-10,11,8,1,-1,0
1425,4,-6,-2,21,12,-13,31,6,0
1430,-26,-10,-10,-24,-19,54,-6,-8,0
1435,2,3,3,4,-5,25,11,9,0
1440,17,1,4,13,14,-49,-37,-4,0
1445,5,-1,7,-10,-7,53,89,15,0
1450,-13,-2,-3,8,1,-38,-7,0,0
1455,10,6,0,-1,-4,-27,-52,-9,0
1460,-2,-3,3,-1,-3,8,-15,2,0
1465,6,-5,-2,12,18,20,1,6,0
1470,-11,-2,-5,-12,-7,-12,21,-10,0
1475,0,-2,1,1,-4,13,4,-3,0
1480,3,-7,-6,-3,-3,11,28,3,0
1485,8,6,4,8,0,-13,-31,-4,0
1490,8,3,1,-4,6,-11,-7,4,0
1495,0,5,-3,1,18,16,-16,1,0
1500,-2,8,1,2,-29,-36,25,-9,0
1505,9,-3,-2,5,8,91,3,-3,0
1510,-14,-3,-5,-10,-2,-16,-8,6,0
1515,0,-1,1,-1,-3,-7,-11,-8,0
1520,8,-2,0,1,-1,-5,13,8,0
1525,-15,-6,-2,-9,-5,-20,-12,-6,0
1530,20,6,0,3,8,32,32,6,0
1535,0,-1,2,8,5,53,66,16,0
1540,4,3,-1,-4,9,24,25,4,0
1545,-3,-2,0,-7,-6,-39,-30,-10,0
1550,-12,-5,-1,5,9,7,24,-3,0
1555,0,-2,-4,-8,-18,-13,-13,10,0
1560,5,0,1,5,7,-16,-3,5,0
1565,0,0,-3,-1,0,-5,9,3,0
1570,-6,-2,-1,-6,-11,-19,-35,-7,0
1575,-1,-4,-2,-3,-6,-43,3,-8,0
1580,3,3,5,8,5,-44,-50,10,0
1585,-3,-8,-8,-7,-15,-25,-29,-11,0
1590,3,4,6,6,19,28,75,44,0
1595,-11,-7,-9,-11,-21,-60,-53,-40,0
1600,-15,-5,-5,-7,-5,26,-6,-49,0
1605,4,11,3,-2,-1,0,-2,0,0
1610,7,-29,-10,-3,-2,-12,-27,15,0
1615,-61,3,3,1,2,5,4,-6,0
1620,52,66,31,5,2,1,8,10,0
1625,28,-10,3,2,-1,0,-18,-20,0
1630,-39,38,6,2,-3,-16,-19,-16,0
1635,63,31,24,5,2,2,-27,-8,0
1640,-64,-102,-62,-6,-10,-8,-15,15,0
1645,3,87,-12,-11,1,5,17,21,0
1650,-12,-38,-29,-1,3,11,2,-7,0
1655,16,86,32,11,11,1,11,5,0
1660,-27,93,55,8,3,14,8,14,0
1665,48,-115,-5,10,2,12,43,49,0
1670,-42,-93,-41,-5,0,-12,5,-21,0
1675,4,27,15,0,-1,5,-1,12,0
1680,20,7,20,2,0,2,19,0,0
1685,-13,-13,-5,-6,-5,-3,-8,19,0
1690,-23,-25,-16,0,-1,4,13,-8,0
1695,3,19,7,3,1,-6,-8,-11,0
1700,6,1,3,-4,-4,3,-17,-15,0
1705,6,-10,-8,5,4,2,11,21,0
1710,4,10,-1,-7,-4,-2,3,-1,0
1715,-1,-20,-4,-7,-9,-4,0,-2,0
1720,5,16,0,4,2,-2,-4,15,0
1725,-24,-21,-10,-3,1,-1,8,-5,0
1730,18,-5,-4,0,-2,4,-11,2,0
1735,-5,5,7,5,2,-2,-15,-15,0
1740,-13,-4,-3,2,4,-13,2,2,0
1745,-13,2,0,-3,-6,-16,-4,-3,0
1750,3,-4,-1,2,6,15,5,-7,0
1755,6,-1,2,0,4,4,17,3,0
1760,-5,7,1,-4,-7,-3,2,-5,0
1765,13,-16,-11,-4,-2,-18,-10,3,0
1770,-1,2,-4,-5,-9,-42,-51,-5,0
1775,-9,0,4,-3,4,31,27,-1,0
1780,9,-2,-1,1,-1,7,-4,-3,0
1785,-15,-7,-2,17,27,-28,-57,-8,0
1790,-5,-7,0,2,-11,20,35,9,0
1795,2,2,-6,-28,-25,-5,26,-1,0
1800,-4,0,1,0,-7,-42,-26,-3,0
1805,5,-1,-4,-11,-2,31,18,7,0
1810,0,6,10,22,38,-46,-6,1,0
1815,-13,-3,3,4,-8,-47,-24,-5,0
1820,1,3,-1,8,13,18,-19,0,0
1825,-9,-12,-12,-8,-27,-38,16,-7,0
1830,6,-1,-4,-6,16,106,88,19,0
1835,-5,-8,-8,-5,-13,-12,6,-1,0
1840,-4,3,11,-23,-20,-23,-32,-8,0
1845,4,1,2,16,11,-20,-15,-1,0
1850,-7,-3,-3,-4,9,-2,-12,-6,0
1855,-2,2,4,-2,-14,-5,-60,-10,0
1860,5,3,-1,-3,17,34,71,13,0
1865,-7,-6,-3,14,-6,-13,-31,-8,0
1870,2,3,-1,-7,-15,-13,-2,-3,0
1875,-3,-2,2,14,16,-3,-16,-4,0
1880,0,-3,-9,-11,-10,46,35,2,0
1885,0,-4,-5,-14,-13,-36,-19,-4,0
1890,-2,0,-2,0,-5,-4,-5,-3,0
1895,4,2,-3,7,10,18,20,5,0
1900,2,-4,-2,11,1,-2,-28,-3,0
1905,4,11,8,3,14,25,31,5,0
1910,8,-4,-2,-2,-10,-26,-33,-3,0
1915,-14,-7,-5,-8,-10,-11,35,-3,0
1920,-7,-3,-5,0,3,-13,-7,-5,0
1925,-5,-4,-2,-7,-15,21,7,-3,0
1930,1,3,0,2,-1,-33,-24,10,0
1935,-3,0,0,0,9,90,26,-4,0
1940,3,3,3,0,5,-48,-59,4,0
1945,6,7,0,3,2,-29,-63,-4,0
1950,-2,-2,-3,-1,0,11,13,-6,0
1955,-3,-5,-5,-8,-12,-24,15,0,0
1960,-7,-4,-2,1,-1,55,-19,-10,0
1965,-1,-1,0,-1,1,-15,1,0,0
1970,1,0,3,-2,-5,-38,-19,-2,0
1975,4,2,0,1,11,69,45,16,0
1980,-9,-5,-4,-3,-11,6,-24,-16,0
1985,-3,5,2,-1,-2,-24,-1,2,0
1990,-10,-3,-5,-2,-8,33,-10,-48,0
1995,-6,-3,-4,-6,-11,-9,-81,-13,0
2000,12,8,10,9,11,-17,88,34,0
2005,-6,1,4,1,1,25,-13,43,0
2010,8,6,-1,1,-1,-49,-23,9,0
2015,-2,-2,-1,-2,6,45,36,-7,0
2020,-6,0,-5,-1,0,-10,-5,-17,0
2025,-11,-5,-6,-7,-5,10,1,-51,0
2030,-19,-6,5,4,3,-8,7,1,0
2035,8,1,2,1,5,-12,21,7,0
2040,6,6,1,-5,-8,19,34,12,0
2045,-76,2,-6,-1,4,-13,-16,-8,0
2050,34,-18,11,2,0,4,-14,-8,0
2055,-42,19,11,-1,-7,-20,-5,-6,0
2060,95,-9,9,5,6,7,14,28,0
2065,-48,-63,-43,-6,-2,-8,0,-1,0
2070,-88,42,49,4,3,4,10,-1,0
2075,60,21,-40,-14,-4,-19,-20,-37,0
2080,-71,-30,-39,-1,-1,1,7,-8,0
2085,24,-35,0,-7,-6,-10,-17,-9,0
2090,51,54,11,8,3,12,13,6,0
2095,28,19,12,4,-1,-6,15,19,0
2100,-29,24,14,-4,-4,-2,-25,-18,0
2105,32,10,3,3,3,-2,-9,-6,0
2110,-27,-20,-23,-2,-2,-7,-8,10,0
2115,1,11,32,2,-1,-8,-1,2,0
2120,6,-4,-9,0,-2,-3,-15,-8,0
2125,20,9,9,0,-2,-6,4,5,0
2130,2,-12,-8,-2,2,2,9,8,0
2135,-27,-30,-12,0,0,-8,-2,5,0
2140,-10,-7,3,-3,-2,5,-5,-9,0
2145,13,24,9,-1,1,1,4,6,0
2150,6,-7,-6,2,2,7,8,4,0
2155,-8,-17,-8,-4,-3,-8,-1,-3,0
2160,-3,4,-3,-4,-10,-5,1,-3,0
2165,8,22,12,0,-2,-15,-18,6,0
2170,13,-18,-15,1,3,4,12,4,0
2175,-8,-16,0,2,2,0,-2,3,0
2180,-10,2,7,1,1,3,-5,-2,0
2185,0,2,-3,1,-1,15,12,-5,0
2190,0,-11,-5,-1,3,-1,-6,-1,0
2195,-5,0,0,0,-1,-13,-35,5,0
2200,5,-3,-8,-2,-2,2,5,6,0
2205,-6,-3,0,-5,-6,4,2,-3,0
2210,0,-2,-3,0,-2,-18,-23,-2,0
2215,4,4,2,1,1,15,12,3,0
2220,-1,-4,-3,0,0,-3,3,5,0
2225,-5,-5,-3,-3,-4,-6,4,3,0
2230,-5,-5,1,0,-3,-6,-9,-8,0
2235,11,8,4,0,-2,-3,4,1,0
2240,-18,-9,-3,-4,-2,-1,0,-5,0
2245,1,-4,-2,1,2,1,-3,-2,0
2250,-11,-1,3,-1,0,8,5,-8,0
2255,9,5,1,-3,-2,-8,-7,-5,0
2260,0,-4,-4,0,1,-5,-9,0,0
2265,-2,-1,-1,2,1,7,13,2,0
2270,-8,-2,0,-5,-1,1,-3,-1,0
2275,3,2,2,0,2,11,3,3,0
2280,5,-7,-1,-2,-1,-10,-4,2,0
2285,-6,-3,0,-2,-1,-1,11,3,0
2290,2,1,0,0,1,-3,-6,-2,0
2295,-16,-2,-1,0,-1,-5,-7,-6,0
2300,7,0,-3,-3,1,10,11,-3,0
2305,1,4,3,0,0,-1,-8,-1,0
2310,-5,-2,-3,1,0,-1,-5,-3,0
2315,-2,-3,0,0,-2,-2,5,0,0
2320,5,1,-2,0,-1,-6,-11,-1,0
2325,-1,-2,0,1,0,5,23,-5,0
2330,-19,1,1,-1,-1,1,-4,-8,0
2335,3,2,-3,-1,0,-1,1,-1,0
2340,-5,0,0,-2,-1,3,5,1,0
2345,2,-3,-4,0,-2,-3,-13,-1,0
2350,-3,-1,0,1,0,0,-5,3,0
2355,0,3,2,0,-1,0,10,1,0
2360,-10,-2,-3,0,0,-4,-10,0,0
2365,-9,-3,0,-1,-2,-1,-3,1,0
2370,16,0,-4,-3,-3,1,14,5,0
2375,2,-3,-1,-2,0,-5,-16,-5,0
2380,9,-5,-2,-2,-2,5,7,-1,0
2385,-3,5,0,0,-1,-2,-4,-6,0
2390,4,0,-1,0,-1,0,1,-2,0
2395,-15,-2,-2,-1,1,-2,-1,3,0
2400,-2,2,0,-2,-1,1,5,1,0
2405,-1,-3,0,-1,0,0,0,-1,0
2410,12,1,-3,-1,-1,1,-3,2,0
2415,-2,-2,-1,0,1,-1,-4,1,0
2420,10,-1,-2,1,-2,1,-1,3,0
2425,-13,4,0,-1,1,0,-2,-8,0
2430,-1,0,2,0,-1,-3,-11,-2,0
2435,-1,-1,-4,-1,-3,-2,-3,-3,0
2440,-2,-3,-1,-1,-3,4,2,-2,0
2445,-9,-6,0,-1,-2,1,-2,-1,0
2450,-19,11,1,0,1,-1,-6,0,0
2455,0,-4,-2,0,0,2,13,5,0
2460,0,7,0,0,2,-12,-24,-8,0
2465,2,0,-2,-4,-1,2,19,4,0
2470,0,-6,-4,-2,0,9,6,-2,0
2475,17,2,0,-3,-1,-10,-9,0,0
2480,-20,-4,0,-1,-1,2,-1,-2,0
2485,3,-3,-1,-1,-1,1,1,1,0
2490,4,-1,-2,3,2,-10,-7,2,0
2495,2,-4,-1,-2,-3,4,5,2,0
2500,7,-2,-1,0,0,8,18,1,0
2505,0,-2,-1,0,-2,-9,-14,-2,0
2510,-14,-1,2,-3,0,2,-1,-1,0
2515,-6,-2,0,-1,-1,-8,-16,-2,0
2520,-22,-1,-2,0,0,3,3,-9,0
2525,-1,0,0,2,1,3,7,4,0
2530,-2,-4,-1,-3,-5,-6,-28,-6,0
2535,4,4,3,1,5,0,22,9,0
2540,0,0,-1,-4,-1,6,26,4,0
2545,6,-3,0,3,3,6,3,4,0
2550,4,-2,-3,0,0,7,7,-2,0
2555,-9,0,-1,2,0,1,-11,-8,0
2560,9,-7,-3,-5,-3,10,-6,2,0
2565,-8,0,5,9,2,-28,-19,-6,0
2570,2,-6,-9,-14,-15,-15,-12,-4,0
2575,-1,1,-2,-13,-13,6,-24,-12,0
2580,2,0,-6,-3,-4,-21,-18,3,0
2585,13,5,7,-1,9,75,83,17,0
2590,-8,-4,-6,-16,-12,33,-25,-15,0
2595,2,1,5,10,11,-101,-43,12,0
2600,-4,-6,-7,-11,-14,45,-25,-20,0
2605,-5,-2,-3,-4,-14,-84,-104,-16,0
2610,15,7,10,25,19,47,-8,25,0
2615,-2,0,-2,-1,-8,-24,-7,0,0
2620,16,6,3,10,24,61,71,22,0
2625,-7,-3,-5,-5,-8,-109,-68,-22,0
2630,-4,-3,-4,-4,-9,-35,-38,-17,0
2635,10,-4,1,9,15,54,42,16,0
2640,-3,22,11,9,7,-106,-62,-2,0
2645,0,-23,-4,-2,-4,44,30,43,0
2650,-7,10,-13,0,-1,-19,11,1,0
2655,-2,26,8,-10,-8,4,-14,-8,0
2660,56,-39,-16,-1,-1,23,21,6,0
2665,-31,18,-16,-3,1,-28,-33,-5,0
2670,-53,-12,7,0,0,-1,30,-15,0
2675,-24,-111,-72,-10,-2,4,-8,-15,0
2680,49,105,35,6,5,-8,12,17,0
2685,11,58,38,2,1,30,25,-3,0
2690,10,-72,-31,3,-1,-34,-21,-1,0
2695,2,95,64,8,2,34,38,10,0
2700,-23,-26,12,6,1,-1,-1,-3,0
2705,-11,-5,-16,-3,-2,0,-17,-50,0
2710,-7,-33,-6,-1,0,5,19,9,0
2715,-6,-25,-14,-2,-4,-18,-39,-15,0
2720,-13,-29,-8,-3,-1,5,3,3,0
2725,-32,7,2,-5,-1,3,9,5,0
2730,49,20,3,-2,-2,-22,-20,-9,0
2735,6,-2,-5,-6,-5,15,20,-2,0
2740,9,7,-4,-4,-6,-11,-18,-15,0
2745,-24,-14,-9,-4,-2,6,16,-4,0
2750,-17,21,6,-1,-2,-2,23,6,0
2755,-9,9,6,1,-7,7,-33,-4,0
2760,-12,-23,-6,2,3,37,47,2,0
2765,15,-11,-13,-6,-6,-6,-24,-6,0
2770,17,19,17,5,9,-14,23,11,0
2775,3,10,4,1,-2,15,12,1,0
2780,-1,-21,-12,0,1,3,2,-2,0
2785,2,-1,0,-1,-1,2,4,19,0
2790,19,23,0,-9,-14,-2,-16,-6,0
2795,-44,-10,-2,2,3,1,10,0,0
2800,-1,4,-3,2,3,-16,-6,7,0
2805,9,5,-1,-2,-7,-5,26,-18,0
2810,-4,6,10,9,16,16,-5,3,0
2815,1,-13,-10,-2,-4,-30,-24,-3,0
2820,10,-3,2,-4,-8,-15,24,5,0
2825,0,2,0,0,11,111,57,7,0
2830,7,8,-2,-3,-11,-38,15,-7,0
2835,5,1,8,8,17,19,37,7,0
2840,-4,-1,-20,2,8,84,67,14,0
2845,2,-1,6,-4,-5,-98,-30,3,0
2850,-4,5,-1,2,-3,78,25,-5,0
2855,10,7,-11,1,-6,-69,-9,7,0
2860,-5,-6,3,-3,16,61,10,11,0
2865,-1,-5,-3,-1,-9,27,37,-2,0
2870,-3,3,-5,0,1,49,-6,-14,0
2875,9,6,10,5,13,-76,-11,10,0
2880,-3,-10,-1,-6,-6,-54,-52,-10,0
2885,-2,-2,-7,-4,-2,72,-18,-5,0
2890,-1,2,14,0,-1,-35,-9,3,0
2895,-12,-12,-14,-9,-16,0,-6,-27,0
2900,-13,-12,-12,-7,-11,2,-66,-21,0
2905,11,10,5,3,7,-1,-36,-3,0
2910,12,8,11,9,14,-48,-18,42,0
2915,6,-1,-8,-2,-5,52,38,6,0
2920,-4,-1,6,2,-2,-33,0,3,0
2925,-9,-9,-5,-6,-22,-65,-62,-22,0
2930,-4,-3,-3,-4,-5,-6,-21,5,0
2935,-2,-3,2,1,5,-6,-68,-11,0
2940,-15,-8,-5,-13,-15,21,8,-47,0
2945,-12,7,4,14,24,44,36,2,0
2950,-12,-10,-2,-10,-21,-81,-38,-21,0
2955,-37,6,-1,-1,7,82,-14,-25,0
2960,-2,5,7,7,19,63,96,47,0
2965,-34,-9,0,0,-1,-16,0,-8,0
2970,74,15,-4,-2,-3,9,-14,-11,0
2975,36,37,26,1,-8,9,36,5,0
2980,-60,62,38,4,-8,-39,-36,-5,0
2985,44,-98,-69,1,9,-22,-15,-3,0
2990,-16,73,32,-7,-2,-1,9,10,0
2995,55,-46,-29,-2,-1,0,14,26,0
3000,41,32,17,4,3,-34,-20,8,0
3005,29,-61,29,0,-3,-34,4,20,0
3010,-76,2,-19,-4,-3,-1,-7,-22,0
3015,26,29,-6,4,5,11,7,4,0
3020,15,-86,-13,5,-2,-26,-14,1,0
3025,-15,-7,0,-5,-6,-3,2,-4,0
3030,15,32,9,3,5,19,16,1,0
3035,4,-39,11,-2,-4,-7,-1,7,0
3040,12,-24,-12,-1,-2,-23,-12,-8,0
3045,40,72,15,-3,-2,-9,-3,19,0
3050,-14,-50,-25,-5,3,5,0,-5,0
3055,-21,7,11,-1,-2,-14,15,4,0
3060,0,10,-8,-6,-2,-19,-32,13,0
3065,-11,-12,-7,-3,-1,-5,0,-17,0
3070,-8,14,11,0,-2,-1,-6,-2,0
3075,10,0,-4,1,1,13,17,4,0
3080,16,4,-4,-3,-4,-7,-11,1,0
3085,-39,30,5,0,0,-13,-6,-4,0
3090,12,-31,-5,5,5,7,6,17,0
3095,-24,14,4,-4,-6,-10,-3,-1,0
3100,3,-13,-14,-1,-1,-10,-6,-8,0
3105,4,19,10,5,1,-14,3,7,0
3110,-10,-6,-2,-1,1,-2,6,-2,0
3115,-4,-19,-6,-5,-2,-5,-13,-3,0
3120,6,20,4,2,3,-1,6,2,0
3125,-15,16,0,0,-2,-27,-27,-10,0
3130,24,10,7,2,1,29,44,19,0
3135,5,-4,-6,-2,-3,-6,-14,0,0
3140,2,-5,-2,0,1,-31,-14,1,0
3145,-9,10,-1,-4,-3,-23,-25,-8,0
3150,-8,-13,-3,5,12,58,41,17,0
3155,-15,5,1,-2,-4,24,-1,-7,0
3160,-4,1,14,5,0,3,12,-9,0
3165,8,-1,-22,-10,-3,-46,-3,5,0
3170,-21,-4,-16,-3,1,106,70,0,0
3175,9,5,-4,1,1,-3,-17,3,0
3180,5,-13,-4,0,-1,-15,-10,2,0
3185,-12,0,-1,-5,-4,-11,31,0,0
3190,3,0,6,4,4,-15,-15,3,0
3195,2,6,11,4,0,-3,26,2,0
3200,-4,-7,-1,0,-5,-11,-33,-5,0
3205,2,0,-6,-8,-1,15,-5,8,0
3210,11,4,0,4,14,54,51,5,0
3215,-6,-6,5,0,-5,-36,-8,7,0
3220,-4,-5,-7,-3,-12,-66,-53,-14,0
3225,4,6,-5,-3,-4,19,18,-4,0
3230,-1,1,-3,1,3,-8,-30,-1,0
3235,-4,0,-2,-3,-3,15,-18,-4,0
3240,-1,-1,1,-1,6,22,66,5,0
3245,-21,-3,-3,3,1,10,-11,3,0
3250,34,19,4,0,-4,-35,-13,6,0
3255,32,12,2,1,2,25,16,4,0
3260,4,-4,-5,-3,-5,-29,-24,-7,0
3265,6,-2,-1,-2,-3,-18,-10,-6,0
3270,-20,-6,-1,-7,-11,-12,-25,-9,0
3275,-12,-4,-1,0,2,36,10,-5,0
3280,1,2,3,4,6,-70,-59,-2,0
3285,-20,-5,-3,-2,3,-1,11,-5,0
3290,20,-2,-4,-7,-3,16,7,-3,0
3295,0,5,7,5,5,-41,0,-1,0
3300,-10,-3,-2,-8,-19,-41,-33,-15,0
3305,-9,-1,-1,7,13,120,-24,-5,0
3310,-9,0,1,-2,2,-43,14,7,0
3315,-12,-8,-11,-11,-23,-45,-84,-23,0
3320,15,6,10,9,13,40,49,15,0
3325,5,1,-1,-1,-8,4,-7,1,0
3330,-8,-4,-11,-15,-23,-46,24,-5,0
3335,-5,-5,-3,-3,-9,-12,-53,-10,0
3340,-3,3,2,0,0,-36,-39,-13,0
3345,-7,0,0,1,5,44,9,1,0
3350,3,-10,-5,3,4,13,27,-4,0
3355,-27,-6,2,-4,-7,21,22,4,0
3360,-8,11,-2,-4,-6,-21,-36,6,0
3365,23,-6,-6,1,5,-3,29,7,0
3370,-8,-14,-16,-5,-8,-44,-42,-12,0
3375,-14,-2,17,8,19,47,44,-15,0
3380,-35,-5,-12,-3,-3,17,4,-12,0
3385,41,21,16,5,12,3,51,11,0
3390,3,11,11,-1,-2,5,-21,7,0
3395,20,15,3,-4,-4,5,19,-3,0
3400,17,-20,-11,4,15,28,25,8,0
3405,-69,-68,-40,-7,-6,-16,17,43,0
3410,-5,55,27,-2,-5,0,-1,-2,0
3415,63,-7,-23,-4,6,14,34,19,0
3420,-88,31,-6,5,4,7,-16,-33,0
3425,36,-34,-16,2,1,9,-4,2,0
3430,13,19,5,-1,-3,0,1,1,0
3435,39,1,5,-5,-7,-17,-11,-10,0
3440,-29,-21,10,2,4,4,-4,-11,0
3445,-22,-19,-16,-4,0,-6,3,5,0
3450,-35,5,3,-2,1,7,17,-6,0
3455,38,-42,-12,1,-3,-13,-20,-2,0
3460,-6,9,18,2,2,5,9,12,0
3465,-35,-13,-12,-3,-3,2,-2,-9,0
3470,6,-11,-6,-3,-1,3,6,-2,0
3475,14,2,-2,0,-2,-5,-3,-5,0
3480,-47,-13,3,1,2,3,0,-1,0
3485,-61,-1,-4,-4,-3,-4,-8,-17,0
3490,-1,3,-1,-1,-2,0,2,-2,0
3495,-7,-7,-1,1,-2,-9,-3,-1,0
3500,3,-1,5,1,2,2,-1,4,0
3505,-30,-21,-10,-3,0,-1,-11,6,0
3510,-5,20,2,2,-1,2,-2,19,0
3515,-7,-9,-2,-2,0,-2,0,-3,0
3520,3,-13,2,0,0,3,4,7,0
3525,1,4,-3,-2,0,1,-6,2,0
3530,17,5,4,2,2,6,22,-7,0
3535,10,-9,-4,-2,-2,-6,-17,-12,0
3540,10,0,2,1,1,1,3,7,0
3545,8,-4,-4,1,0,-1,5,-1,0
3550,26,7,2,3,-2,-12,-11,-4,0
3555,9,-6,0,-5,-4,1,-4,-4,0
3560,21,19,4,0,-2,-1,0,4,0
3565,-29,-23,-8,-2,-2,-1,-15,-33,0
3570,-32,-7,-2,-2,-1,-1,-6,-5,0
3575,6,7,0,2,1,1,14,5,0
3580,45,1,1,2,-1,0,-3,13,0
3585,-5,-2,0,-3,-4,4,13,8,0
3590,-10,2,0,1,-1,-7,-8,-7,0
3595,15,-6,-4,2,2,4,12,-11,0
3600,-28,-6,-2,-7,-2,6,19,-3,0
3605,-12,-1,0,3,2,-1,-8,9,0
3610,-23,-4,-4,-2,-2,21,3,-13,0
3615,4,-3,-2,-2,-1,-57,-30,8,0
3620,-9,-8,1,-2,-6,2,-7,-8,0
3625,10,7,-2,-6,-7,-14,-3,-1,0
3630,-3,-4,-8,-4,-7,-86,-56,-8,0
3635,4,1,6,2,3,-16,1,7,0
3640,2,1,-2,-4,0,51,47,-2,0
3645,1,-6,-9,-6,-10,-14,-21,-7,0
3650,-7,-5,2,2,6,95,11,-7,0
3655,6,0,-3,5,1,-70,-37,2,0
3660,-6,-6,-6,-11,-28,-79,-128,-26,0
3665,7,11,10,14,33,81,77,-14,0
3670,4,2,4,8,10,16,71,14,0
3675,2,3,1,1,1,-51,4,4,0
3680,3,-1,-2,-4,-7,3,-6,8,0
3685,2,-5,-2,2,5,-11,-8,33,0
3690,0,-8,2,-1,-6,-8,19,3,0
3695,-18,3,0,4,6,18,45,2,0
3700,-16,16,3,-3,-3,-37,-38,-15,0
3705,-2,6,-2,1,3,-9,-8,9,0
3710,3,24,8,-3,-3,-14,32,22,0
3715,-53,27,13,-3,-4,40,-9,-26,0
3720,-23,-52,-24,5,11,28,41,30,0
3725,47,55,35,-1,-6,-33,-15,-8,0
3730,-52,-36,-39,-4,-3,1,-17,-12,0
3735,103,-29,-34,-1,8,48,19,14,0
3740,2,81,15,-6,2,6,31,2,0
3745,-37,56,3,1,1,-6,-6,-1,0
3750,28,35,7,3,-1,-8,-11,-2,0
3755,-2,-69,27,6,2,24,4,5,0
3760,13,-17,-8,-1,-4,-15,20,8,0
3765,1,-23,-8,-3,-2,4,-5,0,0
3770,14,37,23,3,-1,3,3,-1,0
3775,-19,4,-11,3,2,3,0,2,0
3780,14,-11,11,-5,-5,-3,-13,-13,0
3785,-18,-37,-16,-2,0,2,-13,-4,0
3790,-1,-32,-5,-6,-5,-10,-6,-2,0
3795,-4,18,-1,-1,1,11,4,-4,0
3800,-3,-6,-3,-5,-7,-15,-24,-8,0
3805,11,-9,-1,-2,-1,4,37,15,0
3810,-12,-6,-6,2,3,9,-9,-9,0
3815,-2,8,-10,-2,-3,27,8,-5,0
3820,2,4,6,2,-4,-70,-82,-18,0
3825,-4,-21,-15,2,12,22,-5,8,0
3830,6,-7,3,3,3,-19,-29,-4,0
3835,-10,2,0,-5,-10,-50,-2,1,0
3840,7,-1,4,6,11,-4,0,6,0
3845,-11,-15,-10,-3,-11,30,16,-14,0
3850,3,-3,5,4,4,-101,-45,6,0
3855,-2,3,-3,-9,-5,-20,16,-14,0
3860,-5,1,-1,4,-7,6,-5,0,0
3865,18,5,5,13,39,20,23,29,0
3870,0,0,7,-2,4,80,102,23,0
3875,-8,1,-5,-5,-10,41,51,-30,0
3880,0,-5,1,-1,-12,-99,-112,-7,0
3885,4,33,11,17,35,26,74,60,0
3890,3,-6,-3,-4,-3,29,11,-19,0
3895,-5,0,4,-3,-19,-128,-97,12,0
3900,36,-9,-10,-4,-2,37,-8,-23,0
3905,-27,6,-1,-10,-22,-1,-47,-25,0
3910,-7,-10,-7,-4,-6,-2,11,-3,0
3915,13,7,1,2,-1,15,6,-2,0
3920,-26,32,21,-1,0,42,29,2,0
3925,4,-25,-10,8,10,24,7,17,0
3930,21,-21,-14,-7,-6,2,17,-9,0
3935,-33,40,44,1,-5,17,-6,-15,0
3940,99,-6,-50,-4,5,19,16,6,0
3945,48,-12,-1,0,-5,-28,-45,-12,0
3950,-39,-33,1,-2,-6,-32,-9,17,0
3955,73,31,-8,-2,1,33,43,-8,0
3960,-67,-37,-13,-3,-2,-6,6,6,0
3965,55,51,28,4,0,-17,-22,-6,0
3970,23,107,24,2,-2,16,8,6,0
3975,33,-94,-17,-2,2,10,-18,-5,0
3980,-14,-57,1,1,1,2,7,3,0
3985,-34,-23,2,-4,-6,-1,-2,6,0
3990,-25,-36,-10,1,-3,1,-7,-7,0
3995,-58,8,0,2,0,-1,-11,-3,0
4000,4,22,0,-1,-5,-19,-13,0,0
4005,-24,-31,-13,-6,-5,0,-3,-3,0
4010,12,5,2,-3,-3,-3,10,-4,0
4015,-7,-9,-8,-5,-5,-8,-23,11,0
4020,-6,-12,-2,0,4,8,15,0,0
4025,1,29,6,3,2,-2,-17,3,0
4030,-32,-12,-4,-5,-5,2,-1,-2,0
4035,5,-14,-13,-3,-3,-4,-1,-14,0
4040,-27,24,17,4,6,21,27,2,0
4045,-15,-5,-5,-2,-9,-48,-20,-4,0
4050,9,-9,-6,-2,1,24,21,8,0
4055,-19,-9,-7,-1,-1,-16,-7,-5,0
4060,-2,17,12,-2,-4,9,-2,-7,0
4065,-3,-15,-7,-3,-3,17,-21,-7,0
4070,12,-8,-7,-5,-12,-89,-27,-6,0
4075,8,29,10,12,24,67,80,27,0
4080,-4,5,5,1,7,66,20,-1,0
4085,-5,-10,-6,-1,-4,-48,-23,-12,0
4090,3,9,6,1,2,-34,5,9,0
4095,-9,0,-7,-1,-3,43,5,-4,0
4100,-1,10,14,6,12,58,-24,-7,0
4105,-8,-6,-16,0,-6,-19,5,0,0
4110,-3,-5,0,-3,-7,2,-23,-10,0
4115,-4,-5,-15,-12,-8,-43,16,0,0
4120,4,0,5,3,8,-42,28,11,0
4125,-7,0,4,2,-11,50,-14,-11,0
4130,6,3,10,-4,-4,-69,-50,3,0
4135,4,0,4,15,16,-5,-32,2,0
4140,-11,-1,-4,-16,-21,-6,-18,-13,0
4145,-3,3,0,-5,1,-40,-7,-3,0
4150,-5,-2,-7,-4,-3,-11,-46,-9,0
4155,-2,-2,2,-7,0,42,20,0,0
4160,8,-2,-4,2,23,127,88,19,0
4165,-10,-3,1,-3,-19,-70,-59,-13,0
4170,-7,-2,-4,-8,-18,5,10,-1,0
4175,11,3,1,10,36,77,0,11,0
4180,-8,-9,6,-8,-10,-69,-36,-2,0
4185,-7,-5,-23,-5,7,84,41,-4,0
4190,0,11,5,1,3,44,43,4,0
4195,-3,-6,-9,-6,-13,-61,-41,3,0
4200,0,-2,-2,6,11,2,5,-3,0
4205,-7,-9,1,-9,-24,-13,-27,-22,0
4210,5,0,2,10,13,-9,25,7,0
4215,-2,3,2,-3,-6,22,-14,-5,0
4220,-4,-1,-5,4,9,47,39,-4,0
4225,-5,4,5,-4,-3,-44,-29,1,0
4230,31,0,-5,2,7,-14,5,9,0
4235,-49,-2,7,3,12,64,43,1,0
4240,25,-5,-10,-2,-10,-30,-16,-2,0
4245,2,0,1,-4,-5,34,35,0,0
4250,-1,-5,1,1,-3,-69,-48,-3,0
4255,-8,-5,-3,-2,-5,-35,-10,0,0
4260,2,17,-1,-1,3,15,11,1,0
4265,-31,-15,5,0,0,7,-19,-10,0
4270,-36,30,7,0,0,-6,1,-13,0
4275,79,-11,-10,-2,-7,1,17,1,0
4280,-23,42,17,-5,-10,-10,-23,-11,0
4285,-45,-88,-41,-1,4,10,-6,4,0
4290,0,13,6,1,-5,-14,-12,-2,0
4295,-9,-24,-1,-2,-1,-18,0,12,0
4300,51,72,26,-2,-4,8,-7,-3,0
4305,-9,-56,-9,6,4,3,-15,-2,0
4310,-5,-21,-13,-2,-2,0,6,-1,0
4315,36,55,14,0,0,-6,10,10,0
4320,-24,-40,-21,-4,2,12,22,15,0
4325,37,22,1,0,-3,11,-7,2,0
4330,-4,-17,3,1,-2,-12,-14,-6,0
4335,1,19,5,1,-2,-13,-6,-6,0
4340,-36,-29,-12,0,-2,10,0,-11,0
4345,18,35,14,-2,-2,-3,11,2,0
4350,-15,-14,-9,-3,0,2,-7,-5,0
4355,-10,-3,-3,0,2,-3,17,4,0
4360,1,-19,-8,-1,-1,11,1,22,0
4365,7,16,11,0,-3,-4,-4,-1,0
4370,-5,6,0,6,6,2,4,-1,0
4375,-23,-10,-1,-7,-8,-6,-13,-8,0
4380,-24,-23,-7,0,-1,-8,-13,-2,0
4385,47,22,7,0,1,6,12,-3,0
4390,4,-3,3,-1,-5,-27,-12,0,0
4395,-19,-3,-6,-2,-3,-16,5,-4,0
4400,5,-4,-3,-1,-3,-30,-22,-1,0
4405,-4,6,-5,-2,3,57,-18,-8,0
4410,-6,-5,7,2,-3,9,48,6,0
4415,1,1,-3,-4,8,40,6,2,0
4420,0,-5,-25,-5,-2,-18,-27,-15,0
4425,1,2,-5,-7,-6,-3,7,2,0
4430,1,-1,-3,-3,-3,-15,5,-3,0
4435,-9,-3,8,0,-12,-46,-28,-12,0
4440,8,1,12,9,18,88,49,8,0
4445,-8,4,0,-1,-6,-63,-28,-5,0
4450,-5,-1,-6,-4,-9,-30,-35,-4,0
4455,-5,-4,5,5,7,35,19,5,0
4460,0,-6,-5,-3,-5,-17,7,-6,0
4465,3,4,3,1,-7,-21,-28,1,0
4470,2,0,1,4,6,10,11,2,0
4475,-12,-5,-2,-6,-11,-6,24,-9,0
4480,10,5,5,9,15,-44,23,15,0
4485,3,-2,6,1,0,55,13,-1,0
4490,7,16,-1,-6,-6,1,4,-2,0
4495,-31,-3,7,7,19,48,31,10,0
4500,25,-11,-21,-16,-31,11,-72,-30,0
4505,7,0,1,5,15,-3,29,9,0
4510,1,3,-11,-4,-6,-40,-10,-2,0
4515,-61,-17,5,-1,-7,25,-24,-2,0
4520,14,3,-3,2,1,7,-6,-9,0
4525,-28,-9,0,-2,-8,-44,-41,-18,0
4530,39,-5,-2,-2,3,85,17,2,0
4535,30,6,-4,-3,-7,-38,-41,-5,0
4540,-53,-10,5,0,-2,-29,4,5,0
4545,19,1,-3,-4,-2,27,10,4,0
4550,6,-3,9,7,16,-16,-10,14,0
4555,5,1,-13,-2,-3,-23,-6,-8,0
4560,-33,9,6,-2,-2,14,17,-10,0
4565,32,10,1,-5,-6,-10,0,0,0
4570,-45,52,15,1,-1,1,-6,2,0
4575,-34,-105,-43,-6,-2,-23,-12,-3,0
4580,21,77,22,1,4,29,18,-17,0
4585,-18,-45,-14,-2,-5,-20,-21,-21,0
4590,2,-60,-18,-2,-1,-17,-20,-2,0
4595,-41,118,29,0,-1,5,8,-8,0
4600,31,-19,9,-1,-3,-1,3,12,0
4605,-89,-62,-20,6,6,1,5,3,0
4610,28,-3,-5,-7,-7,-4,-2,-11,0
4615,-5,-23,-5,3,4,-2,2,0,0
4620,49,-18,4,0,-1,9,11,17,0
4625,7,59,27,-1,-2,-11,-6,3,0
4630,-9,-25,-4,0,1,5,-4,2,0
4635,-8,8,-3,-2,-3,-5,11,-3,0
4640,-5,2,-6,-1,-3,-8,-8,-7,0
4645,29,-2,7,1,-1,-9,-5,11,0
4650,-23,-6,-3,0,-2,1,-3,-8,0
4655,1,-4,-4,-1,0,4,12,3,0
4660,-6,14,3,-2,-2,1,6,1,0
4665,40,14,6,0,1,-6,-3,5,0
4670,-65,-37,-11,0,2,5,-5,1,0
4675,49,24,2,-2,-2,-7,8,10,0
4680,-8,7,0,-1,-1,-3,2,-5,0
4685,17,-9,-2,0,-1,0,-10,-10,0
4690,-46,-7,-4,-1,-1,3,8,-1,0
4695,5,21,9,2,1,-11,-16,-8,0
4700,17,-3,-1,1,-1,4,1,5,0
4705,15,-3,0,-1,1,6,21,-2,0
4710,-4,7,1,1,2,2,-5,-3,0
4715,-15,12,4,1,4,6,15,6,0
4720,1,-13,-4,1,-2,-1,-3,-2,0
4725,-13,3,-2,-6,-7,-7,-17,-1,0
4730,-16,-1,-5,-4,-1,0,9,3,0
4735,-27,-8,-1,1,-2,-7,-14,0,0
4740,4,3,0,-1,0,5,9,-2,0
4745,35,5,2,3,3,4,3,6,0
4750,-84,-11,0,1,0,-7,2,-9,0
4755,15,-1,-4,-2,-3,1,-12,-6,0
4760,-7,3,1,-1,2,1,-2,-1,0
4765,5,3,-1,1,-4,-6,-7,0,0
4770,22,-6,-1,-3,0,8,-3,1,0
4775,10,9,-1,-1,1,-5,2,0,0
4780,-8,-10,-1,-1,1,-4,4,-1,0
4785,-18,-10,-3,-4,-1,3,15,2,0
4790,40,1,-1,-1,0,-11,-6,-5,0
4795,-10,-1,-2,-3,-2,23,1,-6,0
4800,3,5,1,-1,-1,0,4,-1,0
4805,5,-6,-3,0,-1,-12,-18,-2,0
4810,17,5,-2,-1,0,3,9,3,0
4815,7,3,1,-2,-5,-14,-14,-1,0
4820,-17,-8,-3,1,2,9,6,-3,0
4825,7,10,4,1,1,-10,-15,-4,0
4830,15,4,1,-1,-2,-9,-1,0,0
4835,4,-5,1,-1,-1,0,0,3,0
4840,-4,0,0,-2,-7,-6,-19,-5,0
4845,-3,0,-2,-2,-2,-16,-4,-1,0
4850,-24,-12,-3,2,1,3,-7,0,0
4855,-12,1,1,0,-3,-15,-14,-2,0
4860,-13,1,-3,1,3,0,-2,4,0
4865,5,-4,-3,-3,-4,6,4,0,0
4870,15,-3,-3,0,-6,-38,22,6,0
4875,-1,3,1,6,14,59,41,9,0
4880,-5,-3,2,-22,-22,-80,-58,-11,0
4885,8,10,22,12,5,-114,-78,8,0
4890,17,0,-20,-1,22,121,90,27,0
4895,0,0,-5,-1,1,12,22,-1,0
4900,-10,-3,-4,5,0,-6,-5,-7,0
4905,-5,-4,-5,-3,-8,-68,-49,-8,0
4910,4,-1,8,-1,0,-106,-25,1,0
4915,-4,-2,0,0,-9,-92,-60,-19,0
4920,2,1,13,8,21,81,65,15,0
4925,7,0,-22,2,12,52,46,5,0
4930,-7,-3,1,-5,-23,-91,-110,-24,0
4935,15,3,-12,4,25,66,67,22,0
4940,7,8,9,3,5,11,28,7,0
4945,-8,-7,7,-3,3,18,-1,-7,0
4950,1,-1,1,1,2,26,12,22,0
4955,16,15,27,14,24,35,60,27,0
4960,15,-3,-20,-2,-4,9,-37,-22,0
4965,1,6,5,9,24,127,98,24,0
4970,14,2,4,-2,11,21,51,-28,0
4975,-36,-13,-5,-14,-22,-8,-65,-28,0
4980,17,5,5,15,7,-79,-55,16,0
4985,4,9,4,6,22,66,71,11,0
4990,19,4,1,4,4,-43,19,13,0
4995,-11,-5,-3,-3,-1,0,-6,-6,0
5000,-18,-5,-5,-14,-25,-80,-77,-28,0
5005,0,0,3,5,7,21,23,6,0
5010,-15,-12,-6,-13,-26,-61,-28,-22,0
5015,16,8,3,5,25,-32,-1,16,0
5020,-9,-2,-2,-3,2,70,57,8,0
5025,-11,-12,-7,-20,-48,-128,-87,-31,0
5030,7,4,9,20,39,100,20,26,0
5035,-7,-3,-8,-5,-19,-4,-43,-31,0
5040,-12,-15,-12,-18,-34,-42,-31,-27,0
5045,1,5,11,15,42,44,33,23,0
5050,-30,-4,-9,-9,-24,-38,-35,-8,0
5055,27,5,-1,-1,14,69,44,11,0
5060,7,-1,10,10,19,-45,-15,24,0
5065,-19,2,-20,-13,-46,-59,-113,-46,0
5070,20,21,23,13,39,-13,-13,-16,0
5075,-13,-17,-7,-5,-19,-75,-58,-6,0
5080,-2,-5,-25,-2,4,66,44,5,0
5085,8,1,-2,-1,-7,-54,-9,-6,0
5090,15,-7,-5,-13,-31,-55,-43,-14,0
5095,-5,7,7,7,6,-10,16,15,0
5100,62,14,17,10,13,25,67,23,0
5105,-16,-9,-4,-13,-22,-7,-39,-5,0
5110,5,-2,-2,0,-3,-11,-7,47,0
5115,-95,-11,0,-9,-21,-34,-35,-54,0
5120,-34,43,17,2,3,25,18,8,0
5125,-57,-39,1,1,7,22,19,7,0
5130,-63,-9,5,-1,5,15,2,2,0
5135,66,38,6,-11,-8,-8,4,-2,0
5140,-98,2,-13,6,4,14,-1,-6,0
5145,113,-51,-13,-5,-14,-35,-38,-4,0
5150,-86,47,-3,6,14,27,43,-7,0
5155,45,-27,44,7,-2,-4,-9,19,0
5160,-52,11,6,-2,-6,4,-47,-9,0
5165,24,50,8,-1,0,-6,-79,47,0
5170,8,-86,-32,3,7,32,90,64,0
5175,-46,28,-9,-2,2,4,-24,-24,0
5180,88,35,11,1,-1,15,21,20,0
5185,-79,-20,-7,-3,-3,-7,-35,-14,0
5190,101,34,16,-4,1,-7,-16,-10,0
5195,19,-13,-23,-1,-3,-7,-8,11,0
5200,2,-5,6,-3,-4,-3,-19,-49,0
5205,4,-3,-4,-2,0,11,53,1,0
5210,-17,-31,-13,-1,-2,-2,-30,-16,0
5215,-28,33,15,2,-1,0,-5,-71,0
5220,-19,-13,-20,-7,-7,-6,-54,-55,0
5225,-25,-89,-15,-11,-9,-13,-5,-17,0
5230,-29,77,85,23,7,6,-9,-2,0
5235,-26,24,-75,-10,1,1,1,11,0
5240,46,24,10,-6,0,6,40,51,0
5245,-19,22,3,-3,-2,-8,-36,-22,0
5250,-23,-70,-35,-10,-2,-3,-8,-4,0
5255,-36,-38,39,8,-2,1,12,21,0
5260,33,17,9,9,4,5,7,6,0
5265,17,10,-10,-1,4,3,16,2,0
5270,2,-14,4,4,1,2,10,0,0
5275,-7,6,0,-4,-2,2,7,5,0
5280,-11,6,-5,-1,1,8,16,10,0
5285,0,-4,12,3,1,0,-1,11,0
5290,-2,14,-8,-3,-2,-5,-4,1,0
5295,-1,-12,-4,-4,-3,0,1,1,0
5300,3,-5,11,1,-1,2,22,12,0
5305,-13,5,-11,-1,-3,-15,4,-2,0
5310,4,-3,-10,-4,0,7,-22,-12,0
5315,8,-11,-10,-3,-2,-4,16,4,0
5320,-19,-3,9,1,-1,-2,-14,7,0
5325,-7,26,10,0,1,4,10,-4,0
5330,-18,-7,-12,-1,0,2,6,-2,0
5335,-32,-11,11,-1,-3,-9,-29,5,0
5340,29,-10,-3,-4,-3,-4,-20,7,0
5345,-3,10,-1,1,0,9,36,-6,0
5350,-6,4,4,-3,-1,-1,2,-13,0
5355,2,-24,-11,-2,2,-4,-13,-4,0
5360,-5,3,4,3,2,11,41,18,0
5365,-11,0,-2,-2,-2,-2,-21,-27,0
5370,-36,-3,2,0,2,-1,12,-6,0
5375,53,2,5,1,-1,-6,-22,-7,0
5380,-7,3,3,2,1,3,16,-9,0
5385,11,2,1,-1,-3,1,12,9,0
5390,0,0,-3,0,1,2,2,-4,0
5395,-11,-3,-5,-4,-5,-1,-12,-6,0
5400,0,7,0,-1,0,-9,-16,2,0
5405,13,-1,0,0,-3,-5,-5,6,0
5410,-31,-2,-4,-3,-4,-7,-13,-13,0
5415,-3,-3,1,-1,1,-2,-6,10,0
5420,34,13,-1,-3,0,-4,6,3,0
5425,11,-9,-4,2,2,6,17,3,0
5430,-3,5,-3,-4,-2,-5,2,1,0
5435,24,-2,3,1,2,5,23,1,0
5440,-14,0,-7,-3,-6,-7,-20,-5,0
5445,-6,0,0,-1,-3,-13,-35,-2,0
5450,16,3,2,5,6,-2,22,2,0
5455,-5,5,1,-7,-8,9,24,4,0
5460,3,-4,2,-4,-10,9,-20,-4,0
5465,10,-2,3,8,14,36,35,11,0
5470,5,-3,-10,-8,-9,32,-22,-5,0
5475,5,3,4,11,8,-81,32,16,0
5480,-7,0,-2,5,9,67,31,1,0
5485,-9,-5,-3,-14,-24,-63,-19,-14,0
5490,15,-1,0,4,10,58,20,7,0
5495,-11,-4,-4,6,2,15,42,8,0
5500,-1,-3,-2,-6,8,21,16,3,0
5505,2,-1,-1,-5,-8,-45,-36,-9,0
5510,4,-6,-7,-1,-10,-93,-38,-6,0
5515,-5,-3,-7,3,12,102,-10,-26,0
5520,-2,0,6,-2,-6,14,43,24,0
5525,6,1,3,6,14,-17,55,17,0
5530,4,1,-5,-7,-3,-64,-52,-10,0
5535,-11,-6,-1,-4,-5,70,26,1,0
5540,-4,-4,-1,0,-14,-79,-71,0,0
5545,1,0,4,5,7,-67,-22,7,0
5550,9,2,6,12,19,0,27,25,0
5555,3,6,5,-3,6,-31,78,17,0
5560,2,1,-3,-2,-9,-80,-89,-17,0
5565,5,-2,-1,-5,-8,38,14,7,0
5570,1,0,4,4,17,15,22,-14,0
5575,-4,13,2,2,-7,-54,-63,9,0
5580,15,3,-3,-3,-1,72,-3,-2,0
5585,-3,-2,-2,-3,-2,-17,-48,-6,0
5590,6,3,4,0,2,75,74,16,0
5595,-24,-2,25,4,10,57,22,16,0
5600,1,7,-31,-5,1,-16,-15,-11,0
5605,-20,-10,-11,-5,0,32,45,-49,0
5610,-35,-10,-12,-11,-18,-46,-74,-29,0
5615,-9,7,-2,1,2,-18,-2,-5,0
5620,18,-8,6,2,2,3,21,-3,0
5625,-55,44,21,-3,-2,51,12,9,0
5630,-9,-24,-8,-1,-10,-13,-13,-1,0
5635,-21,67,22,-4,-3,-9,-29,-10,0
5640,24,-79,-32,4,6,-13,-16,1,0
5645,-56,-6,-5,-4,-1,10,7,5,0
5650,58,6,0,1,-5,-9,11,-5,0
5655,28,48,28,-5,-6,-22,-40,1,0
5660,19,15,-46,-12,-3,4,32,3,0
5665,-4,-94,-30,-1,3,1,-20,11,0
5670,-4,-7,-22,2,-1,15,11,17,0
5675,-6,69,51,8,-1,3,-21,7,0
5680,-61,-44,-3,6,1,-11,5,0,0
5685,105,26,26,2,0,17,10,2,0
5690,-75,-17,0,-4,-7,-15,-46,-17,0
5695,41,-30,-36,-8,-6,-21,-4,-6,0
5700,1,35,31,4,6,5,48,18,0
5705,-11,-29,-17,-4,-3,0,-2,11,0
5710,27,11,12,-3,-3,3,-3,-10,0
5715,-11,-39,-27,-5,-5,-27,-48,-24,0
5720,-12,-11,10,-4,0,2,3,-3,0
5725,0,9,10,5,4,26,31,-11,0
5730,26,31,8,1,3,13,15,15,0
5735,0,-48,-20,-1,-1,2,23,-3,0
5740,-2,9,10,-3,-3,8,35,5,0
5745,2,17,2,7,10,33,-1,-2,0
5750,11,1,4,-5,-5,-15,-2,0,0
5755,-34,-45,-16,2,-1,-10,-3,5,0
5760,4,13,8,0,-2,7,-32,-36,0
5765,3,2,-6,-8,-16,-65,-53,-10,0
5770,3,-13,2,3,3,27,-8,-11,0
5775,-1,-14,3,1,-1,-83,4,10,0
5780,-11,11,2,2,3,49,-13,-7,0
5785,12,6,17,5,11,23,64,15,0
5790,-11,-15,-19,-6,-5,25,-11,-8,0
5795,8,-6,-9,-9,-15,-20,21,-3,0
5800,2,10,9,15,22,-10,-8,21,0
5805,-3,-12,-15,-11,-16,25,4,-9,0
5810,-14,-6,-6,-13,-22,-83,19,-6,0
5815,10,-7,-1,7,16,22,-16,6,0
5820,-13,-10,-4,1,-7,15,26,-7,0
5825,6,9,16,6,13,-5,-10,5,0
5830,0,4,1,-5,-16,-51,-47,-12,0
5835,5,-7,-6,-4,14,127,63,3,0
5840,-1,1,3,-6,-7,-127,-19,2,0
5845,8,9,1,8,8,-16,-100,7,0
5850,15,9,9,10,19,-1,23,40,0
5855,0,-11,-5,2,6,76,58,9,0
5860,-10,2,3,-5,-5,48,16,-6,0
5865,0,2,-3,1,-10,-44,-31,-14,0
5870,4,1,9,5,13,24,-10,0,0
5875,-7,-14,-18,-13,-21,31,-9,-18,0
5880,12,9,-5,8,5,53,46,40,0
5885,4,-9,-12,-19,-20,54,62,-6,0
5890,-5,-4,0,-1,5,37,-1,-16,0
5895,1,2,7,7,-5,-128,-88,-9,0
5900,-2,2,-6,-10,-7,-82,19,-4,0
5905,-2,1,-2,8,20,18,-4,-4,0
5910,6,5,5,4,1,5,67,20,0
5915,7,-1,0,3,6,14,-11,5,0
5920,-12,-9,-2,-15,-35,-82,-111,-25,0
5925,-4,2,2,9,6,19,-68,-2,0
5930,-2,-2,-2,-6,-8,-30,-47,-18,0
5935,-2,-4,-4,4,9,13,58,16,0
5940,11,11,14,11,21,29,-35,10,0
5945,-10,-8,-9,-14,-27,-114,-16,-4,0
5950,-1,-1,0,0,10,89,17,-22,0
5955,-1,-3,-1,0,-13,-25,-36,-12,0
5960,-1,0,6,8,28,113,48,5,0
5965,8,5,-4,-6,-9,3,3,12,0
5970,-15,-12,-1,-12,-24,-51,34,-3,0
5975,11,4,-1,-4,-9,-68,-113,-17,0
5980,-29,0,5,7,10,32,57,18,0
5985,27,11,0,1,-4,-33,-16,-19,0
5990,10,10,6,11,29,120,95,30,0
5995,-18,-18,-8,-13,-9,17,11,-16,0
6000,7,4,-8,-2,-9,-100,-67,-3,0
6005,0,-2,-2,3,6,35,49,25,0
6010,-73,-3,7,-1,-11,-59,-65,-7,0
6015,43,43,11,6,10,32,26,13,0
6020,19,-27,7,-2,-4,2,-20,-9,0
6025,-25,-10,-23,0,3,-8,36,5,0
6030,37,-26,-21,-10,-4,-7,-18,4,0
6035,14,-6,-8,1,0,-7,-14,-32,0
6040,69,-2,3,-6,-9,-10,-9,1,0
6045,-83,-65,4,-9,-10,-12,-34,-37,0
6050,55,95,-2,10,6,0,0,0,0
6055,-22,-40,-4,-2,-3,3,0,8,0
6060,-76,-18,-28,-3,-4,-5,4,-25,0
6065,59,38,17,9,8,24,23,16,0
6070,-61,-72,-7,-3,3,-9,8,6,0
6075,8,127,68,3,2,-8,-12,43,0
6080,21,-16,-6,3,-4,5,-4,-48,0
6085,-34,-92,-36,-3,0,-10,-39,-7,0
6090,48,-21,-1,-5,-5,-15,-23,4,0
6095,-56,-17,-14,-6,-4,0,-6,-8,0
6100,9,39,22,-2,-5,-6,-10,5,0
6105,57,20,-1,-3,0,0,-9,-27,0
6110,5,11,8,1,-3,-3,50,-19,0
6115,-18,-51,-22,-4,1,11,29,-1,0
6120,8,-9,-5,-5,-3,4,24,12,0
6125,-29,23,7,0,-3,-4,-16,-4,0
6130,40,5,-1,0,-2,-8,-18,16,0
6135,4,-4,0,-2,-3,-3,-6,-24,0
6140,-42,-18,-12,-4,-4,-7,-22,16,0
6145,90,28,15,3,5,15,35,17,0
6150,1,12,0,0,-3,-10,-37,-13,0
6155,8,-17,-21,-2,-2,-4,-9,9,0
6160,-5,4,10,3,0,2,10,-2,0
6165,-45,0,1,0,0,2,-5,-4,0
6170,-32,-7,0,1,2,-3,-9,4,0
6175,-6,-22,-2,1,0,3,12,-3,0
6180,19,2,-3,-2,2,9,3,11,0
6185,-26,18,2,0,1,3,10,1,0
6190,2,-7,2,-1,-1,-13,-25,-1,0
6195,-23,-3,-5,3,6,27,83,14,0
6200,-12,18,8,-1,-2,-4,-17,-7,0
6205,9,0,-2,-2,-2,6,17,14,0
6210,-14,4,-1,0,-2,-2,-18,-4,0
6215,12,-7,0,2,-2,-27,-45,-5,0
6220,-14,-10,1,-2,0,-8,-1,12,0
6225,13,8,0,-2,-1,-1,10,-1,0
6230,-38,-18,-3,-2,0,11,23,13,0
6235,-2,1,-1,1,-2,-2,4,6,0
6240,7,-3,2,1,0,0,14,28,0
6245,3,0,1,1,-1,-4,-10,2,0
6250,-29,-10,-1,1,0,-8,-3,-10,0
6255,16,3,-6,-1,1,1,-15,2,0
6260,2,7,2,-1,-1,3,6,11,0
6265,-15,0,-3,-5,-2,-5,-19,-16,0
6270,-8,0,-2,2,0,9,31,6,0
6275,-18,-7,-1,-3,-5,-13,-21,-5,0
6280,-48,18,5,2,-1,-3,-12,-24,0
6285,-17,-11,0,5,5,3,11,3,0
6290,18,6,2,-2,0,0,10,2,0
6295,-13,2,-1,-3,-1,-6,-16,0,0
6300,20,4,-3,-3,-6,-12,-16,-17,0
6305,-14,-9,-3,-3,-2,-6,-10,-5,0
6310,-5,-2,1,2,4,3,-14,-2,0
6315,-4,-4,-2,-2,-2,2,0,4,0
6320,6,0,-5,-2,-4,-3,-34,-60,0
6325,26,6,6,2,0,-5,0,12,0
6330,17,-2,-5,-4,-5,-8,-39,-10,0
6335,61,2,-5,-2,-4,-3,-12,3,0
6340,-7,0,8,1,2,8,31,17,0
6345,-17,-2,-2,-2,-3,-1,1,6,0
6350,39,-2,-1,-1,0,1,-9,-4,0
6355,-7,1,12,0,2,3,-6,-5,0
6360,27,-12,-13,0,1,4,7,24,0
6365,10,11,2,-1,0,2,10,-3,0
6370,-10,13,5,2,0,-3,-5,1,0
6375,17,-5,-5,-4,-3,-8,0,-2,0
6380,1,-12,-2,-2,-1,-2,13,4,0
6385,-6,-6,-1,2,2,10,22,3,0
6390,3,0,1,0,-1,-1,3,-6,0
6395,-10,-11,-4,-3,-2,-7,-19,-34,0
6400,-11,4,-2,-1,1,0,11,-3,0
6405,-63,2,0,2,3,8,20,7,0
6410,67,20,14,4,2,-2,-9,5,0
6415,-2,-32,-22,-6,-5,-5,-2,3,0
6420,-51,4,2,0,-2,-3,-6,-8,0
6425,11,3,-2,-2,1,9,44,9,0
6430,41,5,12,-2,-4,7,16,25,0
6435,-26,-2,-13,-2,1,-4,-10,12,0
6440,30,3,2,1,1,-5,-2,2,0
6445,6,1,-7,-4,-3,-6,-27,-4,0
6450,-29,-3,1,-1,-1,-7,-15,-11,0
6455,-2,6,3,1,1,-1,10,4,0
6460,13,0,0,0,0,-12,6,-1,0
6465,-5,-4,3,-4,-4,-5,-46,-6,0
6470,-37,-16,-16,-3,3,13,21,6,0
6475,26,6,3,-1,-3,15,-2,-10,0
6480,1,-6,-7,-5,-8,-43,-11,7,0
6485,1,-1,5,2,-3,-31,-7,-8,0
6490,1,-4,-8,-1,0,15,-20,-3,0
6495,-6,-2,-3,2,-9,-62,-54,-5,0
6500,5,2,6,4,24,61,67,9,0
6505,22,-7,-4,-7,-7,16,-2,-5,0
6510,-16,7,1,2,0,-14,23,-2,0
6515,-10,-4,-3,-3,-6,-3,-13,-1,0
6520,-5,-4,-1,-5,-12,1,-40,-15,0
6525,7,10,-1,2,5,-17,24,12,0
6530,-17,-6,-8,0,7,32,-4,-31,0
6535,0,6,9,1,6,-2,0,-3,0
6540,1,-6,-9,-7,-5,27,32,-3,0
6545,-6,1,11,2,1,23,71,7,0
6550,-11,-11,-34,-5,-5,-6,-80,-9,0
6555,9,6,11,8,21,86,127,39,0
6560,0,-3,0,-5,-9,16,-38,-10,0
6565,20,0,8,18,31,-51,-1,26,0
6570,-27,6,13,3,-3,3,24,3,0
6575,-18,11,3,4,15,13,57,7,0
6580,14,1,-6,-4,-9,13,-20,-23,0
6585,-11,-7,-5,-10,-30,-17,-22,-20,0
6590,-10,-7,3,-3,-8,-113,-49,-15,0
6595,10,8,3,5,5,-22,-56,24,0
6600,-2,-2,7,6,10,-63,-14,12,0
6605,-5,-2,-10,-9,-8,-1,-84,-23,0
6610,-6,-13,-10,-8,-13,-13,33,-2,0
6615,-3,0,0,1,-4,-76,-81,-7,0
6620,-7,-6,-4,-3,-8,-20,-73,-23,0
6625,1,7,5,6,4,-49,-62,1,0
6630,13,4,9,10,23,121,111,25,0
6635,-22,-8,-3,-3,-9,-25,-18,-23,0
6640,-15,25,8,5,4,13,29,11,0
6645,8,-10,-13,-4,3,-19,-16,5,0
6650,59,15,14,-3,-6,-20,27,22,0
6655,24,26,15,-1,-5,5,-5,-9,0
6660,-35,36,30,1,-3,-2,23,6,0
6665,58,-72,-61,-9,-4,49,11,-4,0
6670,-71,64,16,-2,1,-16,-15,4,0
6675,30,-73,-19,-8,-6,15,15,-7,0
6680,-2,-37,-10,0,6,15,-6,20,0
6685,16,-9,27,8,2,6,12,-4,0
6690,-15,-4,-1,0,-3,-15,-35,-12,0
6695,-1,74,11,5,4,21,22,0,0
6700,29,7,24,0,-1,-4,-12,-3,0
6705,-26,-25,6,-1,-2,12,45,16,0
6710,-6,-84,-34,-4,-1,0,-21,1,0
6715,9,45,28,3,-4,19,19,16,0
6720,-31,-11,-12,-1,-1,-18,-63,-38,0
6725,-19,66,13,-2,-6,12,33,7,0
6730,-16,-12,-15,-6,-4,5,0,-11,0
6735,63,-31,-9,-3,-1,-7,3,21,0
6740,5,0,-10,1,2,6,-11,42,0
6745,-7,17,5,-1,1,7,15,-10,0
6750,-35,3,4,-1,-6,-17,-59,-22,0
6755,-28,-7,-9,-2,0,11,48,-9,0
6760,18,1,-3,2,0,-3,9,8,0
6765,-24,-4,-3,-5,-7,6,-13,-6,0
6770,66,13,7,-3,-3,-3,3,1,0
6775,-23,16,-2,-6,-6,1,-21,-4,0
6780,-16,-23,-14,-3,1,2,8,-11,0
6785,4,12,7,3,5,10,13,36,0
6790,-24,-8,-11,-2,-3,-7,-25,-47,0
6795,-16,-5,-3,-2,-2,3,-19,-14,0
6800,-2,2,0,-4,-4,-9,4,-10,0
6805,-4,-9,-3,1,3,5,11,-14,0
6810,-59,2,11,5,9,30,35,15,0
6815,-1,-17,-2,-1,-3,-20,-23,-2,0
6820,6,0,-9,1,1,-4,8,6,0
6825,-16,8,12,-1,-5,-12,-29,-9,0
6830,19,2,-11,-3,-4,-5,-6,15,0
6835,-21,-9,-5,-3,-2,8,9,-19,0
6840,-43,-22,-8,-4,1,-2,-1,2,0
6845,89,28,7,1,1,13,-9,-10,0
6850,18,5,7,0,1,-13,1,8,0
6855,7,-14,1,-2,3,28,25,38,0
6860,7,29,8,-1,-6,-5,-4,-16,0
6865,-39,-21,-13,0,2,7,9,9,0
6870,4,-12,-1,3,1,-7,-12,2,0
6875,25,4,-8,-1,-3,-3,5,0,0
6880,-30,9,7,1,0,3,18,-1,0
6885,-19,8,-5,-5,-5,-6,-10,-4,0
6890,7,2,3,0,0,-9,22,12,0
6895,-20,-9,-7,-2,0,8,-1,-15,0
6900,16,-4,-2,0,0,-1,10,0,0
6905,-13,3,3,0,-3,-8,-20,-7,0
6910,16,38,12,2,2,3,-12,3,0
6915,-5,-23,-9,-1,-5,-21,-16,-15,0
6920,7,-1,-9,1,3,19,19,13,0
6925,-8,-5,0,-3,0,-14,-12,-13,0
6930,-7,-2,-3,0,0,6,5,-37,0
6935,-6,-2,-1,0,-3,-1,-7,-1,0
6940,-10,-2,1,-1,-1,-3,2,9,0
6945,-1,10,8,2,4,5,17,-5,0
6950,-10,-19,-15,-4,-5,4,-2,0,0
6955,-5,-2,3,1,0,-9,-13,-3,0
6960,8,1,-1,0,1,13,5,-8,0
6965,-15,-7,-6,-1,-5,-4,-19,3,0
6970,12,-6,5,1,0,-2,6,6,0
6975,-14,10,1,0,0,-3,-17,-4,0
6980,38,14,0,-1,-2,-11,-8,7,0
6985,-6,-4,3,1,3,-3,8,6,0
6990,-18,1,2,-1,-1,16,-1,-1,0
6995,8,-7,-2,-2,-4,-24,-16,-13,0
7000,19,6,8,-7,-5,50,60,24,0
7005,-10,-1,-6,0,-4,5,-16,-5,0
7010,26,-3,3,1,4,3,3,4,0
7015,-13,-4,-6,-5,-3,73,34,-2,0
7020,10,-2,-2,4,24,20,51,17,0
7025,-20,-7,-4,-3,-3,31,-13,-13,0
7030,-8,-7,4,-20,-29,-16,-50,-9,0
7035,-9,-4,-10,-12,-21,-41,-19,-17,0
7040,4,-1,4,-2,-17,4,-31,-7,0
7045,8,4,3,18,33,112,122,24,0
7050,3,8,34,15,13,-58,-64,4,0
7055,7,4,-26,-3,13,-36,9,15,0
7060,-1,-6,-14,-15,-30,24,15,-15,0
7065,-1,2,0,1,1,19,18,-3,0
7070,-12,-11,-9,-3,-24,-104,-94,-26,0
7075,9,16,37,21,34,-19,18,28,0
7080,-2,-2,-10,7,6,23,11,2,0
7085,-2,0,-6,-6,-19,-127,-115,-38,0
7090,-8,-10,-5,-5,-1,45,70,-10,0
7095,0,-3,22,-1,-11,35,-2,-1,0
7100,2,0,-46,0,30,52,54,13,0
7105,-4,-5,6,-8,-21,-103,-70,-8,0
7110,-36,-25,-17,-29,-51,-21,-41,-67,0
7115,5,3,-5,2,7,3,-93,-3,0
7120,-1,-7,8,0,-20,-44,-28,19,0
7125,-5,4,8,3,19,-9,-53,-4,0
7130,2,3,-5,2,1,-45,6,-1,0
7135,20,18,23,9,21,73,112,40,0
7140,8,5,8,6,4,53,54,30,0
7145,10,2,-6,3,11,-90,-107,19,0
7150,19,7,6,10,32,127,85,18,0
7155,-22,-11,3,-4,-21,4,-30,-32,0
7160,19,11,10,8,27,-39,-3,17,0
7165,-19,-14,-18,-19,-39,10,-8,-27,0
7170,16,9,0,16,19,-79,-35,28,0
7175,-20,-14,-16,-17,-36,42,-60,-38,0
7180,-3,4,32,4,-11,-40,-8,-26,0
7185,4,5,-23,-2,0,45,44,29,0
7190,-9,-6,-3,-9,-31,-83,-100,-8,0
7195,5,3,-8,6,20,-69,-21,6,0
7200,-17,-12,0,-14,-26,-99,-76,-38,0
7205,5,4,11,5,8,5,13,16,0
7210,-4,-5,-7,6,13,57,-16,3,0
7215,7,5,-3,-2,0,55,10,2,0
7220,-15,-6,0,-13,-42,-101,-116,-29,0
7225,11,4,22,28,56,62,33,15,0
7230,-5,-7,-31,-7,7,-43,-43,-10,0
7235,-9,3,2,-14,-24,-93,-79,-34,0
7240,19,4,12,27,43,-75,-20,28,0
7245,-26,-17,-14,-25,-37,11,20,-23,0
7250,0,6,8,4,4,-66,-38,13,0
7255,-12,-10,-17,-19,-13,116,25,3,0
7260,25,8,-2,-2,-2,-50,-58,-22,0
7265,-15,5,13,10,18,17,34,-1,0
7270,-14,-5,-5,-2,14,66,9,16,0
7275,-16,0,9,8,8,13,53,5,0
7280,8,-14,-20,-21,-22,23,-9,-15,0
7285,-1,2,0,10,19,23,33,-3,0
7290,-60,-3,-13,-4,-2,25,9,-41,0
7295,-8,-17,1,-8,-13,-21,-30,-8,0
7300,26,103,23,-3,10,33,36,23,0
7305,110,93,54,3,-12,-18,-6,19,0
7310,-125,-57,-47,-2,5,18,39,-18,0
7315,25,-40,-62,-6,-3,-28,-17,-8,0
7320,62,79,83,9,6,24,-16,-11,0
7325,-37,-117,-28,3,-2,0,11,16,0
7330,-43,127,83,6,-10,-2,4,-15,0
7335,71,-101,-51,10,17,4,-8,26,0
7340,-12,65,18,6,7,13,6,7,0
7345,-10,-64,-44,-6,-4,-9,32,5,0
7350,71,-38,-3,-2,2,-2,10,11,0
7355,-54,35,1,-3,-6,-20,14,7,0
7360,-31,-24,-2,1,3,12,-33,-29,0
7365,1,20,5,-10,-12,-17,-6,-20,0
7370,37,-49,-23,-3,2,4,14,19,0
7375,-34,33,23,-1,-6,-15,-17,0,0
7380,-4,-51,-19,2,3,14,10,22,0
7385,-23,17,5,-3,-5,-14,-10,-9,0
7390,27,-30,-29,-5,0,5,7,3,0
7395,-13,59,41,6,2,-6,15,6,0
7400,-11,-44,-21,0,3,13,-6,1,0
7405,-7,-6,-17,-3,-3,4,15,3,0
7410,26,12,8,-1,2,4,42,11,0
7415,-7,22,48,3,-5,-14,-22,-8,0
7420,-2,-44,-60,-7,1,6,7,14,0
7425,-24,10,8,-2,-5,-9,-1,9,0
7430,37,-6,-12,-4,-2,-8,-38,-4,0
7435,-26,15,11,-2,0,5,60,37,0
7440,-29,-32,-3,-1,0,25,18,3,0
7445,1,24,9,0,-2,-14,-11,2,0
7450,27,-6,4,4,12,35,59,11,0
7455,-9,-3,-3,1,-8,-24,-42,-11,0
7460,-4,-4,15,3,1,5,5,20,0
7465,12,9,-1,-2,-2,-13,-17,-8,0
7470,-18,-12,-27,-4,-5,-17,-23,-8,0
7475,9,13,14,0,1,-3,-32,-13,0
7480,-5,-11,-16,-2,1,13,31,5,0
7485,1,3,-8,1,-2,3,-3,-10,0
7490,7,-6,3,1,2,1,-16,-4,0
7495,-5,10,9,-2,0,-7,8,-7,0
7500,3,-10,-3,0,-1,3,-17,0,0
7505,-3,2,9,4,3,6,10,3,0
7510,-1,2,2,1,-2,13,7,1,0
7515,-8,0,-14,-5,-2,-7,-10,-7,0
7520,9,-6,-9,-2,-2,-16,-10,4,0
7525,-13,8,4,0,0,11,2,0,0
7530,23,-8,-6,-4,-5,-14,-10,-3,0
7535,18,26,10,3,1,5,2,-1,0
7540,-1,-27,-16,-2,-2,-3,-7,-4,0
7545,-7,-5,-2,-3,-4,-4,-10,2,0
7550,-4,-2,2,1,0,-3,-3,-3,0
7555,4,5,1,-3,-3,-5,-17,-4,0
7560,10,2,-1,3,2,-3,4,-12,0
7565,5,0,-2,-2,1,1,4,-1,0
7570,-17,-3,-4,-2,-2,-7,-24,-38,0
7575,-6,-2,-4,-1,0,6,8,0,0
7580,-5,4,4,0,0,-9,-6,2,0
7585,-4,-2,-3,-1,-1,-3,-8,-4,0
7590,14,1,1,-1,1,1,-16,16,0
7595,-23,6,-5,0,1,1,9,-2,0
7600,-2,1,3,0,1,-6,-16,-5,0
7605,-5,3,-4,-1,-2,-6,-20,-9,0
7610,-3,0,1,1,1,2,19,13,0
7615,-2,-9,-9,-2,-4,-5,-12,-2,0
7620,-10,-1,1,-1,-2,-7,-7,8,0
7625,8,5,-1,-2,0,11,11,-2,0
7630,-1,-3,4,2,1,-9,0,8,0
7635,-6,-9,-4,0,-1,3,10,0,0
7640,-4,3,-1,-1,-3,-2,-4,-5,0
7645,3,-4,-1,-1,-1,-13,-9,1,0
7650,-4,1,2,-1,-1,4,20,4,0
7655,1,-3,-5,0,1,3,0,3,0
7660,-3,0,4,1,-1,-4,7,-3,0
7665,-1,-2,-1,-2,-2,-1,0,1,0
7670,-4,1,-2,-1,-1,-1,-1,5,0
7675,-6,-8,-3,-1,-1,1,-3,-7,0
7680,-30,-4,0,0,-1,7,13,0,0
7685,-5,1,0,1,1,1,3,-1,0
7690,-1,1,0,-3,-2,-2,7,-2,0
7695,-1,-5,-2,-1,-1,0,6,-3,0
7700,0,-3,0,-1,0,-3,-11,1,0
7705,-1,7,0,-1,1,3,11,-2,0
7710,-4,1,2,0,-2,-1,3,1,0
7715,-5,-3,-4,0,-1,1,8,-1,0
7720,4,1,-2,-1,-2,-1,-2,-2,0
7725,3,0,-2,1,1,2,15,4,0
7730,2,1,0,-2,0,-5,-10,-2,0
7735,-1,-1,-1,-1,-1,5,9,2,0
7740,4,1,-1,-1,1,1,7,1,0
7745,1,-4,-2,-2,-2,-5,-11,-3,0
7750,-5,-1,-1,0,-2,2,12,0,0
7755,1,-2,-1,-1,0,-1,-1,0,0
7760,3,1,-2,-1,-2,-1,-7,1,0
7765,-2,-1,-2,0,2,-2,-4,-2,0
7770,-2,1,0,-1,0,-1,-3,0,0
7775,0,-1,0,0,-2,-7,-11,-5,0
7780,2,0,2,1,1,7,6,1,0
7785,-3,-1,0,-1,-2,-1,2,-1,0
7790,0,0,-1,-3,0,-2,-2,0,0
7795,1,-2,-1,1,0,-1,-1,-2,0
7800,-1,-1,7,0,-1,-5,-11,-2,0
7805,-1,-1,-7,1,1,12,0,-2,0
7810,1,-3,2,0,-1,-5,-1,0,0
7815,0,0,-19,-4,0,-2,-15,-2,0
7820,0,-1,1,0,0,-1,12,-1,0
7825,-1,-1,-1,-1,-1,-6,-9,-3,0
7830,1,1,7,1,-1,3,-5,1,0
7835,1,-2,0,-1,2,4,0,2,0
7840,2,0,-2,-1,-3,-7,-3,0,0
7845,0,0,5,0,3,10,11,3,0
7850,2,0,-4,-2,-2,-8,-6,-4,0
7855,-1,0,7,1,-2,4,2,3,0
7860,-5,-6,-5,-2,-2,2,-3,-3,0
7865,0,-3,-27,-7,-3,-6,-5,-3,0
7870,3,0,4,-2,-1,-4,2,-1,0
7875,1,-2,-1,1,1,4,10,0,0
7880,-3,1,9,1,-1,0,-4,-2,0
7885,-1,0,6,0,1,-7,-13,-2,0
7890,0,-2,-5,0,1,11,18,5,0
7895,1,-2,3,-2,1,-10,-9,-1,0
7900,-1,-2,-4,1,1,-8,-1,0,0
7905,0,0,3,0,0,10,11,1,0
7910,-2,0,-4,-3,0,-5,-10,-3,0
7915,-1,0,3,0,0,0,3,0,0
7920,0,0,-5,-1,0,1,-4,0,0
7925,-1,-1,0,0,-2,-6,-6,-1,0
7930,-1,0,1,-2,-2,-3,-2,-2,0
7935,0,-2,0,-2,-3,0,4,-2,0
7940,-1,-1,-3,0,-1,2,-3,-5,0
7945,-2,0,2,-1,-2,-3,-3,0,0
7950,0,0,-4,-2,-1,3,4,0,0
7955,1,0,0,-1,-2,-1,-6,0,0
7960,1,1,-1,-1,-1,1,-15,0,0
7965,-1,-1,5,0,0,-1,4,-1,0
7970,-1,0,-1,0,0,-3,-3,0,0
7975,-2,0,-1,1,-3,-1,2,1,0
7980,-2,0,0,-1,0,0,1,1,0
7985,-2,0,1,1,-1,-1,2,2,0
7990,-5,-5,-2,-1,0,-1,2,4,0
7995,0,-2,-1,-2,-2,0,12,1,0
8000,-3,0,-1,1,-2,0,1,-3,0
8005,0,2,-1,-1,-2,-4,-6,-1,0
8010,-1,-1,-1,0,-1,-5,-3,-1,0
8015,-3,-3,1,0,0,13,5,-2,0
8020,-2,-1,-3,-2,-1,-1,2,0,0
8025,-1,-1,0,0,1,-3,-2,-3,0
8030,-1,1,-1,0,-1,0,-3,-3,0
8035,-1,1,-1,-1,-1,-7,-5,-2,0
8040,0,0,-1,1,-1,-1,-3,0,0
8045,-1,-1,-1,-2,-1,-5,-12,-3,0
8050,0,-4,-2,1,1,2,9,3,0
8055,0,-1,0,-2,0,-2,-3,0,0
8060,0,-1,0,-1,-2,1,-1,-1,0
8065,-1,2,-3,-1,0,-2,-3,-3,0
8070,2,1,-1,-1,1,-3,-7,0,0
8075,1,-1,0,-1,0,-1,-2,-2,0
8080,0,-1,-1,-1,-2,0,-2,-2,0
8085,-1,-2,-1,0,-1,-3,1,-1,0
8090,2,-2,1,-1,-2,-2,0,0,0
8095,-2,-1,0,0,2,-1,-2,0,0
8100,-1,-1,-2,-2,1,0,3,-1,0
8105,1,-1,-1,-1,-2,-3,4,6,0
8110,-2,0,-2,-1,-1,1,1,-1,0
8115,0,0,-2,-1,-1,0,-3,-1,0
8120,-1,-2,0,0,-1,-1,0,1,0
8125,1,0,-2,-2,-1,-1,-1,-2,0
8130,-1,0,-2,-2,-1,-2,-1,1,0
8135,-2,1,-1,-1,-2,0,4,0,0
8140,-1,-1,-1,-1,1,-1,-7,-2,0
8145,-1,-1,2,-1,-2,-3,-1,-3,0
8150,0,0,1,-1,-1,2,2,-1,0
8155,-3,1,1,-1,0,-1,2,2,0
8160,-1,0,-2,0,0,0,1,-3,0
8165,2,-1,-1,1,2,-2,-3,-3,0
8170,0,-1,-3,0,-1,0,3,2,0
8175,0,-2,-1,-1,-2,-1,0,-1,0
8180,-1,0,0,-1,-1,0,-3,0,0
8185,-2,0,-3,0,2,5,3,1,0
8190,-1,-2,-1,-1,0,-1,0,-2,0
8195,-2,-2,0,1,-1,-2,-2,-3,0
8200,0,0,-1,0,-1,1,-5,-1,0
8205,0,-1,0,-1,-2,-2,5,3,0
8210,-2,-1,0,2,1,1,1,0,0
8215,-2,-1,-2,-2,-1,0,-5,0,0
8220,-2,1,0,-1,0,-4,0,-1,0
8225,-2,-2,-3,-3,-2,-3,-12,-4,0
8230,0,0,-2,-1,-1,0,9,-2,0
8235,0,-1,-1,0,-2,-1,-2,-1,0
8240,-2,0,0,-1,-1,-1,-1,0,0
8245,-1,0,-1,-1,0,-1,0,1,0
8250,-2,0,0,-2,-1,-2,-5,-1,0
8255,-1,-2,-2,0,-1,0,0,2,0
8260,1,-1,-3,-1,-1,-2,1,-1,0
8265,-4,0,-1,-1,0,0,-6,-1,0
8270,0,-1,0,-1,0,0,-4,-2,0
8275,0,-1,-1,-1,0,1,1,-2,0
8280,1,-1,0,-1,0,-1,0,-2,0
8285,-1,0,0,0,-3,1,1,-1,0
8290,-1,0,-2,-1,-1,-2,-3,-1,0
8295,0,0,-1,-1,0,1,0,1,0
8300,0,-2,-1,1,-1,-4,2,1,0
8305,0,-1,-2,-1,0,0,1,-2,0
8310,-1,-2,-2,-1,0,-1,-2,0,0
8315,-2,-1,0,-1,-2,0,-2,0,0
8320,1,1,-2,-1,-3,1,1,-1,0
8325,0,1,0,1,0,0,0,-2,0
8330,-1,-1,-2,0,0,-3,-2,-1,0
8335,-1,1,-1,-1,-1,-6,1,-1,0
8340,-1,0,0,-1,1,4,-1,-1,0
8345,-1,-2,-1,-1,-1,-1,-1,0,0
8350,-2,0,0,-1,-1,-1,-4,0,0
8355,0,-1,1,0,-1,-14,-3,-1,0
8360,0,-1,0,0,-1,9,1,1,0
8365,0,0,1,-3,-1,-1,-2,-4,0
8370,-2,0,0,0,0,4,-1,-2,0
8375,0,-2,-2,-2,-3,-9,0,-2,0
8380,-1,-2,-1,-2,-2,-6,-3,-1,0
8385,0,-2,-1,0,-2,0,-2,1,0
8390,0,-1,-2,-3,-2,1,-3,-1,0
8395,-1,0,-1,0,-1,-1,-2,1,0
8400,0,0,-1,-1,1,-4,1,0,0
8405,-2,-1,-1,0,-1,5,-1,0,0
8410,1,-2,-1,-1,0,-10,-3,-1,0
8415,0,-2,0,0,1,6,-1,-1,0
8420,0,-1,-1,0,-1,-10,-3,-2,0
8425,4,-1,-1,-1,-2,-2,-1,2,0
8430,-4,1,-2,0,-1,-4,0,-3,0
8435,1,0,-2,1,0,5,3,0,0
8440,-3,-1,-1,0,0,0,-1,-2,0
8445,-1,-2,0,0,0,-1,0,0,0
8450,-1,1,-1,-2,0,2,-1,0,0
8455,-1,-1,-1,0,-1,3,-3,-1,0
8460,-1,-1,0,-2,0,1,0,1,0
8465,-2,-1,-1,-1,1,2,0,1,0
8470,0,-2,0,0,-2,-3,-1,-1,0
8475,-2,0,-1,-1,-2,0,0,-2,0
8480,2,0,0,0,0,1,0,-1,0
8485,-1,2,-1,-1,-1,-6,-2,-2,0
8490,0,-1,0,0,0,3,0,2,0
8495,0,-2,0,-2,1,2,0,-1,0
8500,-2,0,-1,-2,0,0,-7,-2,0
8505,-1,-1,1,-1,0,0,9,0,0
8510,0,-1,0,0,0,1,2,1,0
8515,0,0,-1,-1,-2,2,-2,-1,0
8520,-1,-1,-2,0,0,-3,0,1,0
8525,-2,0,-3,-3,-1,-3,-5,-2,0
8530,-2,1,-1,-2,0,1,0,-1,0
8535,0,-2,0,-1,-1,-1,-1,-1,0
8540,-2,1,-2,0,-2,-2,-1,2,0
8545,0,2,0,2,0,-2,-7,0,0
8550,0,-1,0,-1,0,1,4,-1,0
8555,1,0,-1,0,-2,-1,-2,-1,0
8560,0,-2,-1,-2,0,1,1,0,0
8565,-2,-2,0,0,-2,0,-2,-1,0
8570,0,-3,0,-2,-2,-2,-3,0,0
8575,-1,-1,0,-2,-1,2,-2,0,0
8580,0,0,0,0,-1,1,0,-2,0
8585,-1,-3,0,1,1,-2,1,-2,0
8590,-2,-1,1,-2,-2,-2,-3,-2,0
8595,0,0,-1,0,1,-2,5,0,0
8600,0,-1,-2,0,-1,-1,0,0,0
8605,0,-1,-2,-1,1,-2,-2,-3,0
8610,-1,-1,-1,0,-1,1,-1,-1,0
8615,0,1,0,0,-1,-1,-3,-1,0
8620,0,-4,0,0,-1,-2,0,-2,0
8625,0,-1,-1,-2,-1,0,0,1,0
8630,-1,-1,-1,0,-1,0,0,0,0
8635,-2,-1,0,0,-1,1,1,1,0
8640,0,0,0,-1,0,1,-1,-1,0
8645,0,-1,0,0,-2,-1,-4,-1,0
8650,2,-2,-1,-1,0,0,4,1,0
8655,0,0,-1,-1,0,-2,-3,0,0
8660,-3,1,0,-3,0,-1,1,-1,0
8665,-1,-3,-1,-1,-1,-1,-4,0,0
8670,-1,1,0,1,-1,-3,-3,2,0
8675,-1,-1,0,0,1,-1,-1,-1,0
8680,1,-1,0,-1,0,-1,-2,1,0
8685,0,0,-1,0,0,0,2,0,0
8690,-2,0,0,0,-1,-1,-2,0,0
8695,-1,-1,-1,-2,-1,-1,-6,-3,0
8700,0,0,0,0,-2,-1,7,-1,0
8705,1,0,0,-1,-1,-5,-1,-2,0
8710,-1,-1,-1,0,0,10,2,0,0
8715,-1,0,-1,-2,-2,3,-4,0,0
8720,-3,2,-2,-1,-1,-18,0,-1,0
8725,1,1,-2,-1,2,35,3,0,0
8730,0,-1,-1,0,0,-21,-4,-1,0
8735,0,-2,1,-2,-1,-3,-2,-2,0
8740,-2,-3,-2,-1,-3,-2,-3,-1,0
8745,0,-1,-1,0,-2,-16,0,0,0
8750,-1,1,-1,-1,1,15,0,1,0
8755,-1,0,-1,0,-1,4,4,1,0
8760,-1,-2,0,-1,-1,3,-4,-1,0
8765,0,0,-1,-1,-1,-11,-1,-4,0
8770,0,0,-1,-1,-1,0,0,-2,0
8775,-2,-1,-1,-1,-1,-6,2,0,0
8780,1,-1,0,0,-1,7,0,-1,0
8785,-3,-2,-1,-2,-1,-3,-3,2,0
8790,0,-4,-1,-2,-2,-3,0,0,0
8795,0,0,-2,-1,1,1,-2,-1,0
8800,-3,0,-1,-1,0,-1,-3,1,0
8805,0,0,-1,-1,1,0,1,0,0
8810,0,0,-1,-2,0,-3,-3,-2,0
8815,0,-2,0,-1,-1,0,1,-1,0
8820,0,0,-1,-1,-1,1,-3,0,0
8825,-2,-1,0,0,-1,-5,0,-2,0
8830,-2,2,-2,0,-1,-2,-6,-2,0
8835,0,-1,0,-2,-2,2,16,1,0
8840,0,-1,-1,-1,1,1,-2,0,0
8845,-2,-1,-2,0,-3,-2,0,0,0
8850,-2,-2,1,-2,-1,-1,1,-1,0
8855,0,-2,-1,0,1,-2,-5,-1,0
8860,0,-1,-2,-1,-2,-1,-1,0,0
8865,-2,0,0,-1,-2,-3,1,0,0
8870,0,0,-2,-1,-1,1,-1,1,0
8875,0,0,0,2,1,-1,-3,-1,0
8880,0,-1,-1,-1,1,1,2,-1,0
8885,-1,-3,-3,0,1,-1,-2,-1,0
8890,2,-1,-1,-1,-1,-1,-1,0,0
8895,0,0,0,0,-2,-2,-3,1,0
8900,0,-1,0,0,-1,0,-1,1,0
8905,1,1,-1,-2,-1,0,2,0,0
8910,-2,1,0,-1,-2,-2,-1,-1,0
8915,-1,-1,-1,1,-2,-1,-1,-1,0
8920,-1,-1,0,0,-1,3,-3,0,0
8925,-1,-2,1,-1,0,0,-1,0,0
8930,-1,-2,0,-1,0,-1,0,-2,0
8935,-1,-1,0,-1,0,-1,-3,0,0
8940,-1,0,-1,-1,0,0,0,-1,0
8945,-2,-2,2,-1,-1,0,-3,-1,0
8950,0,0,0,1,-1,0,-2,-1,0
8955,-2,-1,2,-3,-2,-1,-6,1,0
8960,-1,1,0,0,0,0,0,-1,0
8965,-1,0,0,-1,0,-2,-2,-1,0
8970,-2,0,-2,0,0,-1,0,-1,0
8975,0,-2,-1,-2,-2,-1,-2,-1,0
8980,-1,-1,-3,-1,-1,3,2,-1,0
8985,0,-2,0,1,1,-3,-3,3,0
8990,-1,-2,-1,1,-1,7,3,0,0
8995,-1,0,-2,1,0,-10,-5,-1,0
9000,-3,-1,0,0,0,-6,-3,-2,0
9005,-3,1,-3,-1,-3,4,0,-4,0
9010,0,1,1,-1,-3,-19,-5,2,0
9015,0,-1,1,-2,3,43,18,-1,0
9020,2,1,1,0,5,-32,-18,1,0
9025,1,0,0,-2,-3,1,-3,0,0
9030,-4,-2,-1,-2,-1,10,5,0,0
9035,0,-1,-1,0,-1,-13,-7,0,0
9040,-1,0,0,-1,0,0,7,-1,0
9045,0,-1,-2,-2,2,-3,0,1,0
9050,0,-2,0,0,2,1,-3,-2,0
9055,-1,0,-2,-1,-3,-9,-2,2,0
9060,-2,-2,-1,0,-4,7,2,-3,0
9065,0,-2,0,0,-2,-2,1,1,0
9070,-2,1,-2,-1,-1,-3,0,0,0
9075,0,0,-3,-1,-1,-4,-2,-3,0
9080,-2,-1,-2,-1,-1,6,2,-2,0
9085,0,-1,-2,0,0,1,1,-1,0
9090,0,-1,-1,1,2,-9,-4,-1,0
9095,-1,-1,0,0,-1,-4,-2,-2,0
9100,-1,-1,1,-2,-2,1,1,-1,0
9105,-2,0,-2,-2,0,10,2,1,0
9110,0,-1,-2,-2,-1,-2,-5,-2,0
9115,-1,1,-2,0,-2,-13,-8,-2,0
9120,0,0,-2,-2,-3,5,2,0,0
9125,-3,0,-1,0,-1,-5,-1,0,0
9130,-2,-1,-2,-1,-2,7,6,-1,0
9135,-1,-1,-1,-2,1,-5,-1,0,0
9140,0,-2,-1,-1,-1,6,1,-1,0
9145,1,0,0,-1,0,-12,-5,-1,0
9150,1,1,1,0,0,-1,-6,2,0
9155,-1,-1,-1,-1,-1,3,3,0,0
9160,-1,-1,-1,0,-3,3,1,-1,0
9165,0,-1,-1,-1,-2,-9,0,-3,0
9170,-2,0,0,-1,0,3,1,-1,0
9175,-1,1,2,0,0,-1,-3,0,0
9180,1,0,-1,-1,0,-2,0,1,0
9185,1,0,-1,-1,0,5,-1,-2,0
9190,0,-1,-1,0,-2,-7,-2,-2,0
9195,-2,-3,-4,0,-1,4,3,-1,0
9200,-1,1,-2,-1,0,-1,-2,-1,0
9205,-2,1,0,1,-1,2,0,-1,0
9210,-1,1,-1,-2,-1,3,1,0,0
9215,-1,0,-2,-2,-1,-6,-1,-2,0
9220,-3,-1,0,-1,0,-1,-1,2,0
9225,0,-2,0,1,-2,-3,-3,-2,0
9230,-1,-2,-1,-2,-1,0,2,-1,0
9235,1,-1,1,-1,-1,0,1,-2,0
9240,0,-1,0,0,0,-1,0,-3,0
9245,0,1,0,0,-1,4,0,-2,0
9250,-2,-1,-1,2,0,-2,-1,0,0
9255,-1,-1,-1,-1,0,2,0,-1,0
9260,1,0,-2,0,0,-1,-3,0,0
9265,0,0,0,-1,1,-1,-1,1,0
9270,1,-1,-1,-2,-2,0,-1,0,0
9275,-1,1,-2,0,-1,1,-2,-1,0
9280,-4,-1,-2,0,-2,0,-1,-1,0
9285,-1,-2,-1,-1,-1,1,0,-1,0
9290,-1,-1,0,-2,1,-1,1,-2,0
9295,0,0,-1,-1,-1,1,-1,0,0
9300,-2,-2,-1,-1,0,-3,-3,0,0
9305,-2,1,1,-1,-1,-2,-1,0,0
9310,-2,-1,0,0,-1,0,-1,-1,0
9315,0,0,-2,0,1,-1,0,0,0
9320,0,0,-1,1,-2,0,-2,0,0
9325,-1,-2,-3,-1,-1,-2,-1,1,0
9330,-1,-2,-1,0,1,-2,-2,-2,0
9335,-2,-1,-2,0,-1,-1,0,-1,0
9340,0,0,0,-2,-2,2,0,1,0
9345,0,-1,-2,-1,0,0,0,-1,0
9350,0,1,0,1,-1,1,0,0,0
9355,-2,-2,1,0,-1,0,-1,-1,0
9360,-2,-1,0,-2,1,0,0,-1,0
9365,0,0,-1,-1,1,0,-1,-1,0
9370,0,-1,-2,-2,-1,-5,-2,2,0
9375,3,1,2,-1,-1,-2,-3,0,0
9380,1,-1,0,1,-2,-1,-1,-2,0
9385,-1,1,0,0,-3,0,0,-1,0
9390,0,0,-2,0,0,0,1,-1,0
9395,-1,-1,-2,0,0,-1,0,0,0
9400,0,-1,-1,-2,-1,-1,0,-1,0
9405,0,-1,1,-1,0,1,1,0,0
9410,0,-1,0,0,-2,0,-1,-1,0
9415,-1,1,-1,-1,1,-2,-2,-1,0
9420,0,-1,-1,0,0,-1,-1,-1,0
9425,0,-3,-1,-1,1,-1,-3,1,0
9430,-1,-1,-2,1,-1,0,0,0,0
9435,-1,-1,-1,0,0,-1,-1,-4,0
9440,-1,1,1,-2,0,-1,0,-2,0
9445,0,-1,-1,0,-3,0,0,-1,0
9450,1,0,1,-1,0,-1,-1,-2,0
9455,0,0,-2,-1,-1,-2,0,0,0
9460,-1,-1,-2,0,0,1,0,-1,0
9465,-2,-1,-1,0,-1,1,1,-2,0
9470,-3,-1,-2,-2,-1,-2,-1,0,0
9475,0,-1,-1,0,0,0,-3,0,0
9480,-2,-1,-1,0,-3,-3,-1,-1,0
9485,-1,-2,-2,0,-1,1,-1,0,0
9490,0,-2,-1,1,-1,0,-3,-1,0
9495,-1,-1,-1,0,-2,-1,-1,-1,0
9500,1,0,-1,-2,-1,-1,-1,0,0
9505,-1,-1,0,-1,-1,-1,-1,-3,0
9510,1,-2,-1,-2,-1,-1,-1,-2,0
9515,0,0,-2,0,-1,0,-1,-2,0
9520,-2,0,-2,-2,1,1,0,0,0
9525,-1,0,0,1,0,-1,-1,0,0
9530,1,1,0,-1,-1,0,-3,0,0
9535,-1,0,-1,-2,1,0,1,0,0
9540,0,-1,0,1,0,0,0,0,0
9545,0,-2,-2,0,-1,-1,1,2,0
9550,-2,-1,-1,0,-1,0,-1,0,0
9555,-1,0,0,-1,-3,0,-1,0,0
9560,-1,0,-1,-1,-1,-1,-1,-1,0
9565,-3,-2,-3,-1,-1,-2,0,-3,0
9570,-1,0,-1,1,0,0,-1,-1,0
9575,0,-2,0,-1,1,0,-1,0,0
9580,-2,-1,-1,-1,0,1,-1,-2,0
9585,-1,0,1,0,-1,-1,-3,2,0
9590,-1,-1,-1,0,-2,-2,-2,0,0
9595,-1,-2,-1,-1,0,-2,-1,2,0
9600,-1,0,1,0,-2,0,1,0,0
9605,1,0,0,0,-1,-1,0,0,0
9610,2,-1,0,0,1,-1,1,-1,0
9615,0,-2,-2,-1,0,-2,1,-2,0
9620,-1,-1,0,-1,0,-1,-1,0,0
9625,0,0,0,-1,0,-1,0,-2,0
9630,-2,-2,-1,0,-1,-2,-1,-2,0
9635,0,0,-1,-1,-1,-1,0,-1,0
9640,-1,-1,0,-1,1,-1,-1,-2,0
9645,0,-1,1,-1,-2,-1,-2,-1,0
9650,1,1,-1,-1,1,0,-2,-3,0
9655,-2,0,0,-1,-1,-1,-1,-1,0
9660,-2,-2,-1,0,0,-1,0,0,0
9665,-2,1,-1,-1,0,1,0,-1,0
9670,-1,-3,-1,-2,-1,1,0,-1,0
9675,-1,-1,0,0,-3,1,0,0,0
9680,-1,-1,1,1,0,0,-1,0,0
9685,0,1,-1,0,-1,0,0,-1,0
9690,0,-1,-2,-1,-2,-2,0,0,0
9695,0,0,-1,-3,0,-2,-2,0,0
9700,-1,0,-1,-4,-1,-1,0,-2,0
9705,-1,-3,0,-1,1,-2,-1,1,0
9710,-1,-2,-1,-3,0,0,-1,0,0
9715,0,-1,-1,-1,-2,-1,0,-1,0
9720,-1,-1,-1,-1,-2,-1,0,0,0
9725,0,-1,-2,-1,-2,-2,-1,-1,0
9730,-2,-2,-1,-1,0,-1,-1,-1,0
9735,-1,1,-2,0,-1,0,-1,1,0
9740,0,0,0,0,2,-1,1,0,0
9745,-3,1,-1,-1,1,-1,-2,0,0
9750,1,-2,0,1,0,0,-3,2,0
9755,-2,-3,0,0,2,0,-2,-1,0
9760,-2,0,-1,1,-3,-1,-2,0,0
9765,-1,-2,1,-1,1,-2,-2,0,0
9770,0,-1,-1,-1,-1,-1,0,-1,0
9775,0,-1,-1,-4,0,0,-2,-4,0
9780,-2,0,-1,-2,-1,0,1,-1,0
9785,-1,-1,-1,0,-1,0,1,-2,0
9790,0,1,0,1,-1,-1,0,-1,0
9795,0,0,-1,0,0,-1,0,-2,0
9800,-1,0,0,-1,-1,-1,-3,-2,0
9805,0,0,-1,1,0,-1,-1,0,0
9810,0,1,0,-2,0,-1,-1,1,0
9815,-1,-1,0,0,-1,0,1,2,0
9820,0,-3,0,-1,-1,-2,-2,0,0
9825,-1,-2,-1,0,0,-2,-2,1,0
9830,-3,-1,-3,-1,-1,-2,-2,-2,0
9835,-1,0,-1,0,-1,-1,0,-1,0
9840,0,-2,-2,-1,1,0,1,0,0
9845,0,0,-2,1,-1,0,0,-1,0
9850,0,-2,0,-1,-1,0,0,-1,0
9855,-2,-2,-1,-1,-3,-2,-1,-1,0
9860,-1,-1,0,0,0,0,0,0,0
9865,1,-2,-1,-2,-1,0,0,-1,0
9870,-1,0,0,-1,0,0,-1,0,0
9875,1,0,-1,0,-1,-1,0,0,0
9880,-2,1,0,-2,0,-2,0,-1,0
9885,1,0,-3,-1,-1,2,0,-2,0
9890,2,0,0,0,0,-2,0,-1,0
9895,-1,-1,-1,1,-2,-1,-1,0,0
9900,0,-2,0,-2,-1,0,-2,0,0
9905,-3,0,1,0,1,-1,0,-1,0
9910,0,0,-2,-1,-1,-2,0,-2,0
9915,-1,-2,-1,0,0,-2,0,-1,0
9920,-1,0,-1,0,0,-1,-2,0,0
9925,0,-1,-1,0,0,-1,2,0,0
9930,0,-3,-1,1,0,-3,-2,-1,0
9935,-1,-1,-2,-1,-1,0,0,1,0
9940,-1,-1,-2,-1,-1,-2,-1,0,0
9945,-2,-1,-1,0,0,-1,-1,-1,0
9950,-1,1,1,1,0,0,-1,0,0
9955,-1,-1,0,-2,-2,-1,0,-1,0
9960,1,3,-1,-2,0,1,0,0,0
9965,0,0,-1,-1,-1,-1,1,-2,0
9970,0,-2,-1,-1,1,-2,-2,1,0
9975,-3,0,-1,0,0,0,0,0,0
9980,-3,-1,-1,-1,0,-2,-2,-1,0
9985,0,0,1,-1,-2,-1,-1,0,0
9990,-2,0,-1,0,1,-1,0,-1,0
9995,0,1,0,-1,-1,-1,-1,1,0
10000,-1,-1,0,1,-1,-2,-2,-1,0
10005,-2,-3,0,0,0,-1,0,1,0
10010,0,0,-1,-2,-2,1,0,-3,0
10015,2,-1,-1,-2,-2,-1,-1,-1,0
10020,-4,0,-1,-1,-3,-2,-3,-3,0
10025,4,2,-2,-2,1,0,0,-2,0
10030,-1,0,0,0,1,0,-1,0,0
10035,0,-1,-3,0,0,0,-3,-3,0
10040,1,-1,0,-1,-1,-1,-1,2,0
10045,-3,0,-3,-1,0,-2,0,1,0
10050,0,-3,-3,-1,0,-1,0,0,0
10055,0,2,0,-1,1,-1,-2,-3,0
10060,0,-2,-2,-1,-1,-1,-1,-1,0
10065,-1,-2,-2,0,0,0,-3,-1,0
10070,0,-2,0,1,-2,-1,0,-1,0
10075,0,0,0,1,0,-2,-2,0,0
10080,1,-1,-2,0,0,-1,0,-1,0
10085,0,0,-1,-1,-1,0,-2,-1,0
10090,0,0,-1,1,-1,-1,-1,0,0
10095,-1,-1,0,-2,-2,-1,-1,0,0
10100,1,1,1,-1,-1,0,1,1,0
10105,-1,0,1,1,-2,0,0,0,0
10110,-4,-2,0,-1,0,1,-3,0,0
10115,-2,0,-1,0,-1,-1,-1,-1,0
10120,-1,2,-1,-3,0,-1,0,-2,0
10125,-1,-1,-2,-2,1,-2,-1,1,0
10130,-1,0,1,0,0,-2,0,0,0
10135,-1,-3,-1,0,1,-1,-2,1,0
10140,1,1,0,0,0,-2,0,1,0
10145,-1,-1,0,0,1,0,0,1,0
10150,1,-1,0,0,2,1,-2,-1,0
10155,0,-1,1,-1,1,-2,-2,-4,0
10160,-1,0,-4,-1,0,-1,0,0,0
10165,-1,-1,0,-1,-2,-1,0,-1,0
10170,-1,-1,0,-1,0,-2,0,-1,0
10175,-1,-1,0,-1,0,-1,0,-1,0
10180,-1,1,1,1,-1,0,0,-1,0
10185,0,1,0,0,0,1,-2,-2,0
10190,0,1,-1,-2,-1,-2,0,-2,0
10195,-1,-2,-1,1,-2,-1,0,1,0
10200,-2,-2,-1,-2,-2,-2,-1,-2,0
10205,-2,-1,-2,-2,1,-1,1,0,0
10210,-1,-1,-1,-1,0,0,0,-1,0
10215,-1,0,-2,0,-1,-2,-3,-3,0
10220,0,-1,-3,0,-2,-1,-1,1,0
10225,-1,0,-1,-1,-1,-2,-2,0,0
10230,0,-1,-1,0,-1,0,-1,0,0
10235,-2,1,0,0,-2,1,1,0,0
10240,-2,-1,0,0,1,1,-1,-3,0
10245,1,-3,-1,0,-1,0,-1,-1,0
10250,0,-1,0,-1,-1,1,-2,-2,0
10255,-1,-1,-1,-2,-2,-3,0,-2,0
10260,1,-1,-1,-1,-3,0,0,0,0
10265,-1,-2,0,0,0,-1,2,1,0
10270,0,-1,-1,0,0,0,-1,0,0
10275,2,0,-1,-1,1,-1,-1,0,0
10280,-1,-1,0,-1,1,-1,0,-2,0
10285,-1,0,0,-1,0,-2,1,-2,0
10290,-1,-2,-2,0,-1,-2,0,-1,0
10295,-1,-1,-1,-1,1,-1,0,-1,0
10300,-1,-2,-2,1,0,-2,-1,0,0
10305,-1,0,-4,0,-2,-1,-3,0,0
10310,-1,-1,0,-1,-2,0,-2,-1,0
10315,-2,-1,1,-1,1,0,-1,-2,0
10320,-2,1,-1,1,0,-1,0,1,0
10325,0,0,-1,0,-2,1,0,-1,0
10330,-1,0,0,0,-2,-1,-1,0,0
10335,0,0,-2,-1,1,0,-3,0,0
10340,-1,2,0,-1,-1,0,-3,-1,0
10345,0,-1,1,0,-2,-3,-8,-2,0
10350,2,-1,0,0,1,5,12,3,0
10355,0,-1,-2,-1,-2,-3,-2,-3,0
10360,-2,-1,-1,-2,1,-3,-6,-3,0
10365,-1,-2,-2,-1,0,-1,-4,0,0
10370,-1,-1,-1,-3,-3,-11,-23,-3,0
10375,-1,-1,0,-1,1,3,7,2,0
10380,-1,1,0,-2,0,2,4,0,0
10385,0,0,-1,-1,-2,-1,2,-1,0
10390,-1,-3,0,0,-1,0,-1,-1,0
10395,0,-2,0,0,-1,-5,-11,-3,0
10400,0,-1,-1,0,1,8,18,1,0
10405,-1,-1,-1,0,-1,-1,-1,0,0
10410,0,-1,-5,-1,0,-4,-10,-3,0
10415,0,-1,0,0,0,5,12,1,0
10420,-1,-1,-1,-1,-1,0,-1,0,0
10425,0,0,-1,-1,-1,-2,-4,-1,0
10430,-1,0,0,0,-1,3,7,0,0
10435,0,1,0,-1,0,-4,-4,0,0
10440,0,0,-2,-1,0,-3,-7,-4,0
10445,-1,0,0,0,0,1,5,0,0
10450,-3,-3,0,-1,0,-4,-2,-1,0
10455,-1,1,-1,0,1,-2,0,0,0
10460,-1,-2,-1,-2,0,-2,-4,-1,0
10465,0,-2,-1,-1,-1,0,2,2,0
10470,-1,-1,1,-1,-2,-2,-2,1,0
10475,1,-2,0,-1,0,1,1,1,0
10480,-2,0,1,0,-2,-1,0,0,0
10485,-1,-2,0,1,1,0,-2,-5,0
10490,-1,0,-2,0,-2,-1,0,-2,0
10495,-1,-2,-2,-1,-2,1,0,0,0
10500,0,1,-1,-2,0,0,-7,-1,0
10505,-1,-1,0,-2,0,-1,-1,-2,0
10510,-1,2,-2,-1,0,-3,-8,-2,0
10515,-1,0,1,1,2,6,19,3,0
10520,-1,-1,-1,-1,-3,-3,-7,-1,0
10525,-2,0,-2,-2,0,-1,2,-2,0
10530,0,-1,0,-3,0,-1,0,-1,0
10535,0,-1,-2,-1,-1,-1,-3,0,0
10540,-1,-2,-1,-2,-2,-4,-6,-1,0
10545,0,-1,0,0,1,1,9,2,0
10550,0,0,-2,-2,-1,-1,0,1,0
10555,0,0,-2,-1,-2,-2,-6,-1,0
10560,-2,-2,-2,0,0,1,-1,-2,0
10565,0,-1,-2,-1,0,-3,-9,-2,0
10570,1,0,-1,-1,0,1,8,0,0
10575,0,0,2,0,0,-1,0,0,0
10580,-1,2,0,1,1,6,9,2,0
10585,-2,-1,-1,0,-2,-2,-3,-1,0
10590,-2,0,-4,0,-1,-3,-3,0,0
10595,0,-1,-2,0,-2,2,2,-1,0
10600,0,-2,-2,0,-3,-7,-13,-3,0
10605,0,1,0,-1,1,-1,11,0,0
10610,1,0,3,1,2,13,-1,-2,0
10615,-1,0,0,-2,-2,-11,6,-1,0
10620,0,1,-1,0,4,13,12,1,0
10625,-2,1,-2,-1,-2,-12,-14,-2,0
10630,-2,0,-2,1,0,2,6,2,0
10635,-1,-1,1,0,-2,-6,-5,-1,0
10640,-2,-2,-1,0,-3,-7,-5,-3,0
10645,0,1,0,0,1,2,1,-3,0
10650,-1,-1,-2,-1,-1,-7,-7,-1,0
10655,-1,-2,-1,1,1,13,8,1,0
10660,0,-2,0,0,-1,-17,-2,1,0
10665,4,-2,-2,-3,-1,12,16,3,0
10670,-9,-4,1,-1,0,-15,-6,-4,0
10675,1,0,1,-2,1,9,8,0,0
10680,-2,1,-1,-1,-2,1,-3,-2,0
10685,0,0,-1,-1,-1,-2,-1,-1,0
10690,1,-1,-2,-1,-1,-13,0,0,0
10695,-1,0,0,1,3,22,0,-1,0
10700,0,0,0,-1,-2,-6,-9,0,0
10705,-2,-2,-2,0,0,4,9,2,0
10710,3,0,0,-1,-1,5,3,0,0
10715,-3,1,-2,0,-3,-15,-9,-2,0
10720,1,1,0,0,1,6,10,1,0
10725,1,0,1,0,0,1,5,0,0
10730,-1,-1,-1,1,1,-1,-6,-1,0
10735,2,-2,0,-2,-1,2,13,0,0
10740,1,-3,-3,1,-3,-1,5,0,0
10745,-3,-2,-4,-3,-5,-6,-14,-3,0
10750,1,1,-1,-4,-2,0,-11,-3,0
10755,0,-2,2,1,2,-6,-1,1,0
10760,1,1,-2,1,4,19,30,5,0
10765,-3,-2,3,29,24,-13,12,3,0
10770,2,2,-8,-14,-27,-24,-30,-4,0
10775,2,4,-2,-25,-11,23,28,1,0
10780,2,4,-3,-19,-32,-61,-45,-4,0
10785,-2,0,2,-8,5,23,-2,-1,0
10790,2,2,7,26,21,4,13,3,0
10795,0,2,6,8,3,-16,-38,-2,0
10800,0,-3,-5,0,12,-1,-10,-4,0
10805,-2,-1,-3,1,-1,12,6,-2,0
10810,-5,-4,0,-6,-10,-34,-28,-8,0
10815,1,-1,-1,1,-7,14,12,5,0
10820,-4,-2,2,-6,-6,-17,-9,-6,0
10825,-1,-2,-4,-8,-14,5,-10,-3,0
10830,-2,-1,-2,3,11,4,8,-2,0
10835,1,0,4,16,23,1,12,4,0
10840,1,1,0,11,0,15,14,2,0
10845,2,0,-3,-17,-14,5,4,0,0
10850,-3,0,-3,-2,-20,-12,-2,-2,0
10855,-6,-11,-20,-30,-11,-26,-11,-9,0
10860,-1,1,1,5,-8,6,4,-1,0
10865,3,-3,2,2,21,17,-1,-1,0
10870,-1,-2,-3,-14,-44,-26,-17,-3,0
10875,0,0,3,6,20,35,24,5,0
10880,-9,1,2,10,1,26,-2,5,0
10885,9,-4,1,-9,17,-16,-16,-4,0
10890,5,13,0,10,2,22,38,14,0
10895,1,-4,-5,-2,-20,-15,-27,-9,0
10900,-5,0,1,-5,13,22,38,-5,0
10905,-14,0,0,13,4,-11,2,3,0
10910,40,-4,3,-8,31,50,10,3,0
10915,12,1,0,-1,-19,-20,-14,-5,0
10920,2,-11,2,14,17,-18,-3,3,0
10925,-16,9,-2,-18,-10,-10,-15,-6,0
10930,0,-3,-2,6,-16,0,-5,-2,0
10935,-5,-1,1,-6,7,6,9,9,0
10940,11,-1,4,16,16,-28,-6,4,0
10945,-12,-5,-3,-6,-27,32,11,-5,0
10950,-25,-6,-10,-19,16,-7,-11,-3,0
10955,14,3,0,11,1,2,-5,-4,0
10960,5,3,-4,-14,-21,-20,-4,-2,0
10965,-10,0,-4,-1,-9,10,2,1,0
10970,-10,-5,3,6,20,-43,-14,-9,0
10975,2,-4,0,6,-8,49,8,3,0
10980,0,4,1,4,19,56,5,0,0
10985,-2,-1,-1,4,-4,-35,-18,0,0
10990,3,-6,0,2,-6,-10,12,-1,0
10995,-15,3,0,3,15,-2,6,-17,0
11000,-1,2,1,-3,-9,-23,-6,0,0
11005,6,-1,2,3,-4,7,-4,-2,0
11010,-11,-5,-5,-16,-6,7,-29,-1,0
11015,-1,1,3,7,3,-6,21,3,0
11020,-7,-3,-6,-11,-11,10,0,-6,0
11025,9,-1,-2,-2,6,-17,14,2,0
11030,-10,-6,-5,-3,-24,-51,-44,-27,0
11035,1,-1,4,8,0,-25,-27,16,0
11040,2,14,2,-3,3,-15,30,29,0
11045,-3,-6,-7,-7,4,10,2,-11,0
11050,-1,1,0,2,-4,-34,-12,-3,0
11055,-14,-6,-4,-5,-11,-8,3,-15,0
11060,0,-2,0,-2,0,-47,-30,-15,0
11065,5,-4,-1,1,-1,3,10,8,0
11070,-1,-3,-4,-5,-9,-36,-34,-2,0
11075,5,2,2,4,7,55,38,-2,0
11080,3,-1,-1,1,2,-48,-26,-13,0
11085,-16,-4,-2,5,2,-35,30,-12,0
11090,14,10,3,8,19,110,14,21,0
11095,-15,-9,-11,-12,-8,-47,-57,-62,0
11100,-7,-9,0,0,8,56,2,-24,0
11105,3,2,3,6,-10,-33,1,29,0
11110,2,-1,-2,3,21,60,37,-9,0
11115,-9,-7,-6,-2,-3,-48,-34,-23,0
11120,3,-2,-3,-7,-17,42,51,12,0
11125,9,1,1,-6,-10,-17,-16,19,0
11130,2,3,5,8,14,-48,0,5,0
11135,1,7,2,0,5,39,0,23,0
11140,-11,-7,-6,-9,-23,-87,-49,-6,0
11145,2,6,3,-1,20,101,81,-12,0
11150,9,1,2,11,14,38,8,-9,0
11155,-22,-7,-3,-1,-3,-6,-30,-60,0
11160,2,-11,-6,-11,-11,-19,-9,30,0
11165,19,12,-1,-1,-11,-11,-17,11,0
11170,-16,0,3,-2,0,11,34,10,0
11175,-5,0,1,-1,-5,-13,-67,-5,0
11180,6,0,0,1,16,43,46,-4,0
11185,-12,-6,-3,3,-8,-29,-9,-7,0
11190,11,-9,-6,-6,-6,10,9,-9,0
11195,-47,2,1,-4,-7,-20,-26,8,0
11200,0,-2,-3,-4,-12,-26,-11,-13,0
11205,2,-1,0,3,9,-4,6,16,0
11210,2,1,1,2,0,-3,-37,-27,0
11215,9,0,7,18,22,111,90,36,0
11220,-2,2,-3,-7,-14,-50,-11,1,0
11225,-3,0,4,-2,-5,-36,-18,0,0
11230,-2,0,-2,2,-2,29,16,-2,0
11235,3,-6,-12,-15,-18,-17,-19,-12,0
11240,-6,0,1,9,10,6,-1,-21,0
11245,9,-5,-2,0,-10,-14,-27,10,0
11250,9,10,5,-3,1,-11,8,13,0
11255,7,2,3,7,15,10,14,4,0
11260,29,3,0,1,-2,-7,-32,-23,0
11265,-86,-14,-5,-4,2,-1,10,-11,0
11270,25,-3,-10,-14,-24,-46,-72,-52,0
11275,4,-6,-1,-4,-4,2,0,6,0
11280,-8,0,0,0,-3,-7,-1,-4,0
11285,6,0,1,3,8,-15,-22,-8,0
11290,-8,-5,-1,2,3,13,30,10,0
11295,4,-1,-1,-2,-5,10,-21,22,0
11300,-8,-5,-4,-6,1,-9,30,-8,0
11305,18,0,-2,-9,-19,38,-7,1,0
11310,-6,-3,-2,-1,1,42,45,17,0
11315,8,1,2,-2,-8,-46,-15,-7,0
11320,-10,-4,0,0,2,-12,3,4,0
11325,6,8,1,3,10,28,25,1,0
11330,0,1,1,-1,1,-36,-6,12,0
11335,-8,-4,-5,-4,-14,-2,-21,-9,0
11340,-4,-3,-6,-8,-13,-20,-16,-2,0
11345,14,-5,-3,0,-1,-9,27,1,0
11350,7,7,7,2,8,31,2,7,0
11355,-1,-2,-1,1,-2,-62,-8,10,0
11360,-4,-3,2,9,25,103,32,7,0
11365,28,-4,-1,3,6,-86,-56,34,0
11370,-1,6,4,-3,-4,10,2,-30,0
11375,21,8,2,1,3,17,32,29,0
11380,-5,1,3,5,1,-35,33,42,0
11385,-37,0,0,1,4,59,35,-4,0
11390,-17,-4,4,8,3,-7,2,-3,0
11395,5,-2,-1,-1,-5,4,-38,-27,0
11400,2,3,-4,-8,-7,-45,-48,-1,0
11405,-5,-1,0,4,3,52,41,-7,0
11410,-4,1,-5,-6,0,19,-34,16,0
11415,-4,-7,1,0,0,28,39,10,0
11420,-25,-11,-4,0,-2,32,-19,-11,0
11425,1,15,-2,-5,-5,-32,-26,-14,0
11430,-25,-5,-1,2,-4,-11,9,-47,0
11435,-23,-19,-14,-10,-4,-8,-73,-64,0
11440,-22,-5,-1,-5,-10,-21,-54,-41,0
11445,24,0,-4,-4,-9,-30,-36,14,0
11450,18,-5,-4,3,9,28,96,31,0
11455,4,-5,-1,0,3,-6,-23,35,0
11460,11,14,2,0,-1,-21,-53,-30,0
11465,-37,0,3,-2,-1,-13,-30,-47,0
11470,18,-6,-5,-4,-12,-42,-93,20,0
11475,17,7,4,-1,3,13,28,21,0
11480,-3,-7,1,8,24,1,16,-8,0
11485,14,-8,-6,-12,-37,-29,0,21,0
11490,-30,1,1,-1,0,15,-2,-59,0
11495,-10,-5,-4,-5,-12,-57,-58,-57,0
11500,49,12,14,17,36,93,61,24,0
11505,10,7,4,11,16,-40,16,32,0
11510,-3,-9,-9,-5,4,-24,-53,-13,0
11515,-4,1,-5,-19,-54,-19,15,10,0
11520,-30,-7,-10,-14,-19,-90,-44,-26,0
11525,13,-1,4,7,9,31,-10,-2,0
11530,5,3,2,4,2,-3,-7,14,0
11535,-18,1,3,5,20,22,6,-17,0
11540,3,-2,-1,0,-5,-27,16,12,0
11545,9,-4,-4,-4,0,34,32,5,0
11550,-7,-2,-2,-1,-1,-20,5,11,0
11555,-5,6,0,2,6,2,-2,-35,0
11560,-10,-10,-2,-5,-15,-4,1,-14,0
11565,32,4,1,-2,4,50,3,0,0
11570,-17,1,0,1,0,1,18,12,0
11575,24,3,4,4,8,-4,-4,67,0
11580,8,0,-1,3,4,51,85,41,0
11585,-49,-15,-9,-8,-11,-37,-44,-62,0
11590,15,-2,-3,-7,-10,-10,-8,5,0
11595,5,5,6,8,18,30,11,17,0
11600,-1,5,3,5,11,10,40,10,0
11605,-5,1,4,4,8,-38,-16,-1,0
11610,10,5,2,4,3,-10,27,21,0
11615,-11,-5,-11,-8,-8,-5,2,-7,0
11620,-5,0,-6,-10,-17,-17,-44,-13,0
11625,7,2,0,0,4,32,52,8,0
11630,5,-1,2,0,7,8,2,11,0
11635,0,2,0,3,-1,3,18,-12,0
11640,-6,-3,-1,5,-2,0,-18,-16,0
11645,11,2,3,2,23,-14,-10,21,0
11650,-1,-6,-9,-19,-51,23,27,9,0
11655,18,6,1,-7,7,-1,11,11,0
11660,-20,-4,-5,-9,-10,0,-4,-15,0
11665,-54,-7,-3,5,1,-9,-22,-58,0
11670,32,11,8,8,22,11,33,101,0
11675,9,-8,-11,1,-5,13,32,-16,0
11680,18,9,11,12,6,14,5,0,0
11685,1,3,27,4,-4,-7,2,3,0
11690,-23,-7,-35,-13,-2,-9,-7,-40,0
11695,3,-4,-11,-8,-7,-2,-2,10,0
11700,-9,1,3,8,6,5,-5,-10,0
11705,3,-1,24,1,-2,8,7,5,0
11710,10,2,8,3,-1,-11,-6,3,0
11715,-2,1,-7,3,9,8,14,3,0
11720,-1,-9,-21,-10,-2,-6,-4,5,0
11725,11,-14,0,6,16,-4,-15,-1,0
11730,-8,-48,-3,-6,-27,-7,-1,-15,0
11735,-10,54,18,15,24,18,0,-9,0
11740,5,8,18,-4,-20,-28,-8,10,0
11745,28,47,-4,-19,-19,12,13,8,0
11750,-3,36,15,-8,-18,-22,-20,-14,0
11755,-21,12,10,-3,-16,-5,8,-21,0
11760,9,3,13,11,14,-12,-41,7,0
11765,1,-22,-18,0,15,25,47,20,0
11770,-6,-53,-16,4,4,11,9,-12,0
11775,-2,10,7,2,4,7,14,-7,0
11780,-2,3,-4,-4,1,-8,-12,-3,0
11785,-1,-13,-15,-4,-14,-16,-26,-7,0
11790,-5,6,6,6,15,-8,-8,-10,0
11795,-3,-22,-6,0,-6,-13,-18,7,0
11800,7,-5,-5,-3,0,25,51,11,0
11805,1,-7,-11,-7,-10,-6,-27,-2,0
11810,-22,9,5,-2,-1,-1,-32,-1,0
11815,5,-4,6,9,22,-9,5,-14,0
11820,12,1,-5,-5,-4,-16,-24,49,0
11825,-1,1,-3,2,9,27,13,-9,0
11830,-7,10,-4,-10,-39,-6,-15,-17,0
11835,-23,-23,-11,-13,-15,-29,4,-28,0
11840,7,7,7,12,20,38,25,9,0
11845,2,-1,-5,-4,-5,-30,-26,-2,0
11850,5,4,4,8,15,29,16,-1,0
11855,0,-11,-7,-10,-9,-23,-4,5,0
11860,-5,-10,-7,-14,-11,51,20,-14,0
11865,0,-2,-1,-3,11,0,-17,13,0
11870,4,9,-2,-3,10,-9,15,-7,0
11875,3,1,4,-3,-11,17,-2,12,0
11880,-7,-3,-4,1,-4,-6,5,-12,0
11885,3,3,3,10,-1,-2,-14,6,0
11890,6,4,3,9,23,9,0,11,0
11895,3,-3,0,8,13,3,-9,2,0
11900,-20,-12,-8,-10,-9,-12,-24,-19,0
11905,1,0,-3,-4,-11,11,36,9,0
11910,3,1,5,4,3,-37,-7,-4,0
11915,4,-4,1,0,-4,24,2,9,0
11920,-3,0,-3,-3,-1,-20,-23,-9,0
11925,-4,-4,0,-3,-6,19,27,2,0
11930,3,4,1,2,2,-28,-18,1,0
11935,-1,-7,-2,0,7,-3,-17,0,0
11940,2,2,0,-1,4,5,25,3,0
11945,-3,-3,-3,0,-10,-25,-20,-2,0
11950,5,0,-1,3,1,25,13,1,0
11955,-2,-1,-2,-7,4,10,4,9,0
11960,5,-2,-1,-6,-15,-20,-9,-1,0
11965,-4,6,1,-1,0,0,-4,0,0
11970,-1,-3,6,12,5,4,5,-2,0
11975,-1,-3,-10,2,3,-5,-2,4,0
11980,0,1,-8,-9,-10,-5,-2,-4,0
11985,-2,3,-2,-8,-8,3,-4,9,0
11990,7,2,1,0,7,-17,-9,3,0
11995,-6,-5,9,5,3,-1,2,2,0
12000,1,1,25,6,3,32,12,-1,0
12005,2,-1,-10,6,3,-12,-12,-7,0
12010,2,8,6,-4,1,9,9,-2,0
12015,-9,-2,-23,-8,-8,-5,-4,3,0
12020,3,-8,-7,1,4,-10,-2,2,0
12025,0,-4,-1,-12,-4,5,5,-2,0
12030,-6,-2,8,9,2,-2,-1,0,0
12035,-1,-2,20,3,2,-1,1,-3,0
12040,-1,4,-6,1,-5,-11,-8,0,0
12045,-3,-7,4,-9,2,-6,1,-2,0
12050,1,-5,-16,1,-3,1,1,-4,0
12055,3,-4,12,-2,-2,3,-1,2,0
12060,-4,0,-14,2,6,-1,-2,-2,0
12065,9,5,25,2,-2,-3,-1,1,0
12070,-12,-6,-36,-18,0,1,0,-3,0
12075,-3,1,0,4,-3,3,2,-2,0
12080,3,-7,-4,-6,-7,-9,-5,-1,0
12085,-3,-1,3,3,-5,-2,0,-3,0
12090,-2,-1,8,-2,1,-2,-1,-1,0
12095,6,6,2,4,2,-8,-9,2,0
12100,-3,-2,-4,1,0,1,3,-1,0
12105,0,5,-4,6,4,2,-2,-5,0
12110,0,2,8,-4,-3,8,5,-3,0
12115,3,-1,-11,1,-4,-5,-4,-1,0
12120,0,2,7,-3,0,-5,-2,1,0
12125,-3,-3,0,0,2,-1,1,0,0
12130,-1,-1,-8,-10,-2,-1,-3,0,0
12135,-1,0,-6,7,4,1,4,-1,0
12140,0,-1,-2,4,-2,1,-4,-2,0
12145,-3,-5,-10,-3,-3,-8,2,-1,0
12150,3,4,7,-2,-4,2,4,0,0
12155,-2,1,-1,-4,2,-7,-2,-5,0
12160,-2,4,4,0,2,-12,-11,5,0
12165,0,-1,-6,1,-2,-7,-7,-1,0
12170,2,-1,6,5,1,0,0,0,0
12175,-2,1,2,1,-2,11,8,0,0
12180,0,2,0,1,5,-5,-3,2,0
12185,-6,-7,-1,-3,-7,-3,-5,-5,0
12190,2,0,-6,-2,1,3,1,1,0
12195,0,-1,-1,-5,-2,7,5,-2,0
12200,-2,-1,-1,-1,-1,6,5,2,0
12205,-2,1,-3,3,-3,-13,-18,-2,0
12210,-4,-2,1,4,-3,-12,-21,-5,0
12215,2,-2,1,-3,3,-17,-1,3,0
12220,-3,0,0,-1,-8,9,2,-4,0
12225,1,0,0,8,6,0,9,2,0
12230,-1,-1,-2,-8,-6,4,4,-2,0
12235,-3,-2,-1,-6,-5,-6,-16,11,0
12240,2,-1,-3,-2,1,6,5,-3,0
12245,-2,-1,-1,1,3,-9,-5,-1,0
12250,-1,-3,2,4,2,7,1,0,0
12255,3,1,-4,7,2,-3,2,-2,0
12260,-1,0,1,-1,-4,-1,0,-4,0
12265,-2,-6,-9,-7,-1,-2,0,1,0
12270,1,0,1,-10,-6,13,7,2,0
12275,0,-1,9,-3,-4,8,3,-5,0
12280,0,3,5,11,8,-5,-5,1,0
12285,3,1,-6,-11,-1,6,12,-1,0
12290,-2,-7,-15,-10,-14,-13,-5,-3,0
12295,-4,-1,4,1,-6,24,14,-4,0
12300,-6,-1,-1,12,17,-34,-23,-3,0
12305,2,2,5,-6,1,11,-8,2,0
12310,-2,0,5,-1,-8,12,8,-2,0
12315,2,1,-2,-1,-2,-18,-7,1,0
12320,2,-1,-4,-2,-3,9,12,0,0
12325,-3,-3,-9,-2,-1,9,9,-3,0
12330,-4,0,2,8,6,7,5,-4,0
12335,1,0,-1,-2,-2,-54,-33,-3,0
12340,-2,-2,4,-11,-2,29,11,-1,0
12345,0,1,1,7,-1,-8,-3,3,0
12350,0,2,9,2,-1,10,9,1,0
12355,-2,-3,-8,-3,-1,7,4,-3,0
12360,-1,0,0,-7,1,-9,-2,0,0
12365,-1,-4,-1,-2,-12,11,3,-3,0
12370,1,-1,10,4,3,-13,-3,2,0
12375,2,-2,-4,-6,-1,-5,-10,-1,0
12380,-1,-3,-15,0,-3,-3,-4,0,0
12385,8,-4,-3,-1,3,9,6,0,0
12390,-35,6,4,4,2,-2,2,-1,0
12395,1,-3,-6,-2,-2,6,-7,-5,0
12400,1,-1,-3,-3,0,-23,-8,1,0
12405,2,1,8,2,0,16,-5,0,0
12410,6,-4,-7,-1,4,-5,5,-1,0
12415,-2,1,1,-1,-3,3,-12,1,0
12420,-2,0,9,9,-2,-4,-7,-4,0
12425,-3,1,0,1,8,3,23,2,0
12430,7,1,6,-9,3,-3,-4,-2,0
12435,-4,0,-9,2,-8,15,22,1,0
12440,3,-1,-4,-4,-8,-11,-7,-1,0
12445,-2,1,3,-2,-4,-7,-11,-4,0
12450,3,1,-6,-2,2,-7,-5,0,0
12455,2,1,7,4,7,24,15,-1,0
12460,0,-1,2,1,6,5,0,0,0
12465,-7,-2,-6,-6,-18,-4,2,-2,0
12470,3,-2,-3,4,0,-7,-14,-1,0
12475,-2,-3,-1,-1,3,3,10,1,0
12480,2,2,4,3,5,9,10,4,0
12485,-2,1,-3,-13,-14,-11,-19,-5,0
12490,6,-1,-2,-1,6,-19,-17,4,0
12495,-2,-2,2,3,2,6,4,-1,0
12500,-4,-2,-2,-6,-6,4,14,-3,0
12505,0,1,3,5,2,-6,19,-3,0
12510,15,3,3,8,6,-20,-26,8,0
12515,-12,-7,-15,-6,3,24,1,-2,0
12520,1,6,-1,-4,-2,3,0,-4,0
12525,-2,-1,-3,2,0,-8,-5,-3,0
12530,-2,-2,17,1,-6,0,-5,-4,0
12535,-4,3,6,2,1,-2,6,1,0
12540,-1,0,-31,-12,-5,-8,-8,0,0
12545,-11,-9,-6,-4,-1,14,0,3,0
12550,9,6,-4,1,2,8,8,-3,0
12555,1,-1,15,-1,-3,-16,-15,-1,0
12560,-1,-6,7,2,-5,5,3,-2,0
12565,0,9,-1,5,8,-11,-14,0,0
12570,-5,-4,-4,-1,-1,1,5,1,0
12575,-2,-3,0,-2,-4,-13,-1,-4,0
12580,6,-2,1,-1,1,4,-9,-3,0
12585,3,-9,-1,9,10,10,18,6,0
12590,-11,16,-3,-4,-7,-9,-9,-8,0
12595,-18,2,-3,-2,1,-21,32,4,0
12600,35,7,8,-2,-1,28,-2,0,0
12605,-70,-19,-3,4,-3,-19,-30,-13,0
12610,54,5,-7,4,5,21,36,10,0
12615,10,-10,-20,-9,-8,-13,-18,-3,0
12620,31,8,21,-2,-7,-15,1,3,0
12625,17,22,-5,2,5,2,-7,-1,0
12630,-99,-16,-3,1,4,-23,-11,-12,0
12635,58,3,10,3,3,-31,-4,7,0
12640,64,2,4,0,6,73,5,6,0
12645,-5,-4,16,8,1,-16,0,4,0
12650,-4,-24,-21,-12,-12,13,-15,-12,0
12655,17,11,18,0,7,61,46,14,0
12660,-100,-22,-26,2,-2,-43,-25,-9,0
12665,36,8,25,5,10,24,36,7,0
12670,-4,-8,-20,3,-1,-1,-19,-2,0
12675,-52,0,6,-6,-8,-42,-7,-21,0
12680,14,-1,9,3,2,42,22,8,0
12685,-13,-8,-11,-8,-4,-7,-8,-1,0
12690,15,5,7,3,2,26,25,1,0
12695,16,3,-2,1,-1,-14,-41,-3,0
12700,-29,-10,-6,9,-2,-42,-7,-5,0
12705,-1,1,-22,-12,-4,3,10,0,0
12710,14,10,-3,-8,-2,6,29,7,0
12715,-16,-19,0,1,-2,-3,-24,-6,0
12720,-41,-6,5,2,6,7,11,3,0
12725,-5,33,26,9,2,21,-5,-4,0
12730,108,-37,-52,-13,2,-40,-46,4,0
12735,-73,49,3,-9,-10,32,33,2,0
12740,-20,-1,-13,-8,-4,-10,16,-10,0
12745,8,-6,8,1,-4,-5,-11,5,0
12750,-19,5,21,5,-1,-11,-24,-11,0
12755,47,-4,-7,9,15,27,49,29,0
12760,-6,7,8,11,5,-8,-16,-3,0
12765,10,-1,-11,-19,-14,-30,-19,2,0
12770,-21,-7,0,-11,-13,11,16,1,0
12775,-4,-15,-7,-9,0,-2,-27,-13,0
12780,-1,8,4,-3,-13,-17,2,-5,0
12785,17,-9,-7,4,14,16,9,4,0
12790,-23,9,11,7,3,-7,2,3,0
12795,2,-2,5,6,1,-3,-14,-5,0
12800,22,14,-3,-2,5,-2,5,6,0
12805,-10,-29,-14,19,28,1,-8,-9,0
12810,-29,20,12,8,-13,16,13,-8,0
12815,39,-2,-8,-34,-22,-20,-17,6,0
12820,-12,-17,-16,-18,-23,-20,-42,-14,0
12825,44,10,1,-2,2,22,69,16,0
12830,-34,6,2,-3,-6,-9,21,1,0
12835,1,-8,6,18,9,-4,-33,-18,0
12840,12,9,6,3,8,3,6,13,0
12845,-1,6,5,-1,12,-2,-3,-3,0
12850,-9,-2,15,22,16,6,-15,-4,0
12855,26,-4,-23,-21,-19,-14,-5,19,0
12860,-19,-9,-10,-17,-26,19,-16,-34,0
12865,26,9,2,8,-5,-23,13,35,0
12870,-4,-2,2,-5,13,20,-6,8,0
12875,-49,-11,2,14,10,-22,-12,-47,0
12880,25,-4,-7,-14,-11,6,7,27,0
12885,-9,-4,-3,-4,-19,-2,-5,-1,0
12890,16,-1,-6,-20,-20,-11,-5,-13,0
12895,-6,2,-2,9,14,17,0,-16,0
12900,-33,-12,8,14,28,1,5,-24,0
12905,7,11,0,8,14,7,-6,-3,0
12910,14,-12,2,3,3,-1,13,62,0
12915,-4,15,0,0,-1,8,-7,26,0
12920,8,-3,10,-4,7,-12,18,-15,0
12925,-28,-8,-11,1,-12,-1,-23,-31,0
12930,14,30,17,4,6,-4,-8,-40,0
12935,22,-8,-3,5,4,14,31,36,0
12940,-15,-17,-17,-15,-13,-17,-36,7,0
12945,-4,5,-8,-12,-5,1,12,6,0
12950,-4,17,16,9,7,5,5,-19,0
12955,23,14,7,-3,-13,-8,-22,-48,0
12960,5,-17,3,6,9,6,31,25,0
12965,-9,-2,-2,-8,-24,-5,-13,14,0
12970,-17,-27,-13,-5,-4,-5,-2,2,0
12975,-4,37,8,8,16,6,-4,-21,0
12980,24,5,-6,10,12,-2,6,24,0
12985,-15,-5,-8,-26,-27,-10,-21,-18,0
12990,12,-5,-5,5,-5,-5,30,21,0
12995,-29,-19,2,4,2,10,4,-14,0
13000,3,6,2,7,18,-16,-8,0,0
13005,4,-7,-3,0,-1,26,11,-3,0
13010,-4,-4,-4,-6,2,0,-16,-6,0
13015,-5,-23,-10,-4,-4,-5,10,15,0
13020,-1,14,-2,3,-5,-5,-40,-15,0
13025,-13,-12,3,-5,7,-6,56,22,0
13030,8,-1,-16,-1,0,2,-14,14,0
13035,2,15,19,4,-1,3,1,3,0
13040,-4,4,8,1,-8,3,11,-12,0
13045,6,-3,-3,-8,-3,-11,-30,-18,0
13050,-24,-41,-21,-5,-1,0,-3,-11,0
13055,13,52,17,15,33,7,18,32,0
13060,6,15,5,-11,-31,-4,-6,-9,0
13065,-8,11,6,2,1,-8,-21,-24,0
13070,10,0,13,-14,6,8,14,8,0
13075,-8,-35,-21,3,-18,-12,-12,-6,0
13080,-4,1,8,9,15,5,11,-8,0
13085,6,-5,-5,8,4,-3,-13,6,0
13090,1,3,-6,-6,-12,0,0,-3,0
13095,-4,-14,-7,-9,3,1,2,8,0
13100,3,0,-5,-10,-10,2,5,1,0
13105,-2,-6,-2,7,3,-2,0,-1,0
13110,2,11,5,3,4,-11,-17,-3,0
13115,-5,-3,0,2,-1,5,2,-7,0
13120,-2,-8,-2,5,7,2,7,-1,0
13125,-2,0,1,-10,1,16,7,10,0
13130,1,9,6,10,1,-23,-25,-7,0
13135,5,-14,-7,-5,-8,-7,-6,2,0
13140,-5,1,1,-3,6,3,4,-4,0
13145,3,-7,-4,-1,-5,-1,-7,-17,0
13150,-19,-5,-1,0,2,10,-10,-1,0
13155,6,-6,-9,-10,-14,5,14,6,0
13160,4,4,3,-7,-1,-4,6,3,0
13165,-8,-15,-6,4,6,-4,-13,-17,0
13170,2,1,-8,-6,-8,-5,-1,-4,0
13175,2,15,7,-4,-7,-1,-18,-4,0
13180,3,18,18,5,4,6,17,4,0
13185,6,12,8,11,0,-5,-13,6,0
13190,1,-12,-7,-6,-2,2,-4,-1,0
13195,-11,-19,-7,-9,-10,-9,-1,2,0
13200,4,1,-7,3,-5,6,6,8,0
13205,-4,-1,2,6,12,-5,-6,-2,0
13210,4,4,1,1,1,3,25,5,0
13215,-5,-3,-2,1,10,20,3,-5,0
13220,3,-5,-6,-4,-8,-33,-22,3,0
13225,-1,-2,-1,4,-3,-14,6,2,0
13230,3,6,2,-5,-6,8,5,-5,0
13235,0,-1,0,-2,-1,-4,4,-1,0
13240,-1,-8,-5,3,5,6,3,4,0
13245,-3,0,1,0,1,4,-10,-1,0
13250,4,8,3,0,-4,-4,7,0,0
13255,-2,-6,-1,9,11,2,1,5,0
13260,-2,-4,-7,-9,-1,8,-6,-2,0
13265,0,3,-3,-10,-9,0,1,-1,0
13270,1,1,5,13,14,7,0,-3,0
13275,-3,-10,-8,-9,-18,-6,-4,-2,0
13280,-1,0,-1,-2,0,-6,-9,-2,0
13285,2,6,3,-9,-2,18,14,4,0
13290,-1,0,1,2,2,-14,-3,0,0
13295,-1,0,2,3,2,-3,-3,-1,0
13300,0,0,-4,5,2,0,1,-2,0
13305,-3,-4,-5,-8,-4,-8,-3,-3,0
13310,2,1,1,2,0,10,-10,3,0
13315,0,0,1,4,3,15,6,3,0
13320,-1,-2,2,6,5,6,3,1,0
13325,-3,-3,-1,4,5,16,9,1,0
13330,1,0,-3,-13,-4,-1,1,-3,0
13335,-1,-4,-8,0,-9,-14,-3,2,0
13340,-1,2,1,3,0,4,3,2,0
13345,-2,1,-2,-3,1,-10,-9,-4,0
13350,5,-7,7,5,0,-2,2,-2,0
13355,3,17,2,-8,3,1,-2,0,0
13360,-4,-1,6,11,-2,-5,-4,-6,0
13365,4,5,-3,13,8,-7,-4,1,0
13370,-23,2,17,-9,-16,-7,-8,-9,0
13375,-4,-21,-72,-33,-3,-1,2,-4,0
13380,31,-9,0,-13,-6,4,5,4,0
13385,31,13,-7,1,8,-6,-6,-4,0
13390,-5,3,37,20,5,1,-1,-1,0
13395,-5,-6,-7,0,-3,-6,-2,0,0
13400,-7,-5,0,-4,-4,-8,-4,-2,0
13405,-6,-8,0,-4,-8,4,3,5,0
13410,8,-5,-17,-7,1,1,-1,-2,0
13415,-2,2,28,16,4,8,7,-2,0
13420,-2,9,3,9,7,2,-4,5,0
13425,-9,-4,9,3,-3,-22,-19,0,0
13430,-5,3,-7,-2,1,8,9,1,0
13435,-3,0,5,0,1,-5,-8,-2,0
13440,-13,-5,-11,-3,2,-3,0,-1,0
13445,-7,-3,0,-6,-6,7,2,-2,0
13450,5,0,-15,-4,-4,-15,-2,0,0
13455,1,1,7,-2,-2,1,-2,-1,0
13460,-2,-3,-1,-2,3,11,10,-1,0
13465,0,4,6,6,3,-1,0,4,0
13470,1,2,-9,-3,3,2,2,1,0
13475,-3,-1,9,4,-2,-15,-7,-4,0
13480,-6,-2,-5,-5,-4,2,-6,-2,0
13485,-4,-3,-3,-5,-7,6,10,-1,0
13490,1,-1,-6,1,1,0,5,3,0
13495,-2,0,7,0,0,-7,-10,-1,0
13500,0,-1,-2,0,3,-3,-5,-3,0
13505,1,4,6,12,11,3,5,2,0
13510,2,-2,-11,-5,-8,7,4,-1,0
13515,-3,-6,0,-2,-2,-1,-10,-3,0
13520,2,3,1,-3,-9,-4,4,0,0
13525,-8,-9,4,-6,-6,-7,3,-1,0
13530,-3,2,2,4,10,4,8,-5,0
13535,1,-5,-2,7,0,4,5,2,0
13540,0,1,14,5,2,-16,-19,-3,0
13545,-3,1,-2,-8,-11,10,2,2,0
13550,-14,-2,-23,-15,-2,-2,-4,-1,0
13555,32,0,-1,-1,4,14,22,6,0
13560,7,7,-6,3,0,-4,-4,-4,0
13565,-13,-6,8,-4,-2,-21,-52,-8,0
13570,-8,0,4,6,2,16,28,3,0
13575,-3,3,2,0,-2,-1,16,1,0
13580,-7,-6,1,1,-3,-2,-11,-3,0
13585,3,-4,-3,1,-3,-9,-16,-5,0
13590,8,8,5,2,3,10,27,10,0
13595,-3,-2,-2,-3,-4,-7,-11,0,0
13600,0,1,-4,-9,0,3,-1,-3,0
13605,4,6,6,13,5,5,5,-1,0
13610,-6,-9,-1,0,6,-5,-2,-10,0
13615,13,1,1,-9,-12,-9,-20,-4,0
13620,-32,-38,-10,-2,-2,4,1,3,0
13625,19,29,-11,-14,-3,1,5,-9,0
13630,-11,3,4,6,0,-4,-18,-15,0
13635,15,-7,4,3,7,10,12,25,0
13640,6,3,-7,-3,-1,-2,4,4,0
13645,-17,-8,4,0,2,1,9,-5,0
13650,6,1,5,3,4,1,-2,8,0
13655,-13,8,-1,-3,-4,-9,-15,-19,0
13660,6,-2,-4,0,-2,1,4,3,0
13665,0,-6,-5,-2,-1,6,13,-1,0
13670,6,0,-1,-2,-4,-7,-17,-2,0
13675,-13,-1,4,4,5,0,-2,-8,0
13680,6,6,7,-1,-2,1,5,2,0
13685,-24,2,-12,1,-2,1,1,-1,0
13690,6,-11,-10,-9,-5,-8,-10,2,0
13695,-11,-11,8,5,-1,0,0,1,0
13700,0,9,1,-2,-1,0,1,-5,0
13705,6,-8,1,0,-1,-3,-9,4,0
13710,1,-5,1,-2,-3,-8,-15,-6,0
13715,-18,-15,-13,0,-2,-3,-6,-4,0
13720,2,-15,-28,-4,0,-6,-4,-13,0
13725,-5,-5,10,-4,2,16,25,39,0
13730,12,50,59,10,2,-7,-13,9,0
13735,3,17,11,1,6,9,13,8,0
13740,-2,-2,-3,-2,0,-3,4,-3,0
13745,11,-22,-23,-6,-1,-4,0,-12,0
13750,-13,-25,-25,-5,-4,-1,-6,-6,0
13755,-3,22,39,12,2,-9,-18,-6,0
13760,3,4,5,3,5,18,22,5,0
13765,0,-1,-3,2,-4,-8,-14,-13,0
13770,19,0,-11,-6,2,23,32,-1,0
13775,-1,-3,-17,-6,1,3,1,16,0
13780,-17,-2,0,1,0,0,0,-1,0
13785,-2,6,9,1,0,-8,-7,0,0
13790,0,-3,-8,-1,5,20,24,-14,0
13795,-8,-23,-18,-3,-3,-9,-12,-16,0
13800,0,9,-13,-5,-4,-4,-1,14,0
13805,-3,-3,28,2,-2,2,7,-2,0
13810,17,32,30,6,-4,-21,-26,15,0
13815,-9,-15,-4,0,1,10,16,-9,0
13820,11,7,3,3,3,3,1,1,0
13825,-14,-10,-15,-6,-5,-14,-12,-15,0
13830,-11,-24,-18,-3,2,3,3,17,0
13835,-50,-44,-20,-6,-5,-3,-5,1,0
13840,7,38,4,-5,-2,1,-6,-19,0
13845,66,22,30,-2,1,12,19,16,0
13850,2,5,-6,-1,-5,-13,-7,1,0
13855,-11,-3,-11,-6,-7,-7,-7,0,0
13860,-18,-33,3,-2,-1,-6,-5,-7,0
13865,-17,8,-26,2,-3,-12,-11,-4,0
13870,11,-10,25,2,1,4,1,6,0
13875,37,33,3,1,2,1,3,8,0
13880,-9,7,1,4,0,-3,-5,1,0
13885,-5,-4,-7,-2,3,7,10,2,0
13890,-17,-20,-25,-4,-3,-9,-8,-7,0
13895,-6,11,7,0,-1,-2,0,-7,0
13900,7,-3,11,3,4,3,5,9,0
13905,-7,18,-8,0,3,2,0,-3,0
13910,-10,-16,-16,-2,-4,-6,-11,-6,0
13915,10,6,3,-4,-2,-2,2,-2,0
13920,12,10,3,9,24,-4,1,4,0
13925,-11,-18,-3,-8,-29,3,-14,-10,0
13930,-3,16,8,4,7,-2,4,-1,0
13935,8,3,1,4,-16,-20,-4,-3,0
13940,-2,-7,11,8,-3,-3,-5,3,0
13945,-16,-10,-9,2,0,-6,-3,-5,0
13950,-2,-8,-19,-18,-21,-1,7,-1,0
13955,-4,1,3,-2,14,2,-2,-2,0
13960,-2,-3,-10,1,4,0,-15,-1,0
13965,3,3,41,18,5,20,22,6,0
13970,-4,-4,-39,-5,-5,-25,-17,-4,0
13975,5,3,14,-12,-14,-14,0,-1,0
13980,-7,-5,-22,-41,-15,36,19,-2,0
13985,-3,-1,5,12,12,5,-13,0,0
13990,-8,-5,12,8,6,-37,-6,-6,0
13995,0,5,3,23,19,50,6,-3,0
14000,0,2,13,14,4,-5,-2,0,0
14005,-2,-6,-17,-19,-5,14,1,1,0
14010,-2,-2,-3,-3,0,-18,-17,-3,0
14015,4,3,-10,-5,-14,1,-13,4,0
14020,-4,-3,7,-1,-4,-6,6,-1,0
14025,0,6,-7,10,18,33,14,-7,0
14030,2,1,4,4,-4,-17,-11,-2,0
14035,1,2,39,11,15,9,19,7,0
14040,-2,-22,-77,-39,-17,-25,-5,0,0
14045,-6,-2,-5,-3,6,20,11,-2,0
14050,-1,1,-1,-2,4,29,-2,-5,0
14055,-1,-1,1,-3,3,-18,-22,-6,0
14060,2,4,22,25,23,15,6,7,0
14065,-7,-7,-13,-17,-24,-64,-13,-5,0
14070,0,2,6,-6,-8,32,15,-1,0
14075,3,-1,-5,2,4,44,16,5,0
14080,0,3,16,10,5,-17,-1,-5,0
14085,-4,-5,-13,-4,14,6,-3,3,0
14090,-4,1,11,0,-21,8,-5,0,0
14095,-2,0,-13,-5,-10,-43,8,-4,0
14100,5,0,3,0,-3,-10,-20,0,0
14105,2,-1,2,-3,-2,-18,6,9,0
14110,0,-1,-1,3,11,28,3,1,0
14115,-1,0,-10,-5,2,-29,-17,-7,0
14120,1,2,9,-1,-14,-19,-15,-8,0
14125,-7,-4,0,4,1,9,0,-4,0
14130,3,0,4,5,18,6,10,-5,0
14135,-1,-4,-12,-12,-17,-10,-8,-2,0
14140,-1,1,9,2,-9,-6,5,4,0
14145,2,0,1,1,4,-2,-10,0,0
14150,-2,-10,-10,-1,4,-13,1,-4,0
14155,1,3,0,1,5,12,4,-4,0
14160,-1,4,9,-3,-9,0,0,-10,0
14165,-3,-4,-8,-4,-3,-8,-2,-2,0
14170,-6,2,33,4,-1,4,-6,2,0
14175,3,-3,-27,-1,4,0,5,4,0
14180,-2,-4,-9,5,2,10,5,3,0
14185,2,0,0,0,-2,-7,-10,-6,0
14190,-3,0,-10,-8,-1,1,0,2,0
14195,-1,5,16,3,0,0,-2,-2,0
14200,-3,1,6,0,-1,2,-1,-4,0
14205,2,-6,-9,-3,-5,-3,-4,-2,0
14210,3,1,8,6,2,-6,-1,3,0
14215,-7,-7,-2,1,4,7,3,-3,0
14220,6,17,3,-9,2,6,4,6,0
14225,1,-2,2,4,-9,-7,-6,-2,0
14230,0,3,-4,-3,-3,4,-3,0,0
14235,-2,-8,-6,-7,2,2,8,-3,0
14240,-2,-9,3,6,-2,-3,2,1,0
14245,-1,1,-3,9,9,-4,-3,-1,0
14250,-6,-4,-6,-3,-2,-17,-4,-15,0
14255,10,1,-3,-12,-12,16,13,9,0
14260,-5,-7,-12,-20,-17,-8,-8,-1,0
14265,0,2,5,-8,-6,1,7,10,0
14270,0,1,-5,10,14,5,1,2,0
14275,4,-9,3,11,8,-6,-10,-8,0
14280,-10,6,-13,2,6,3,-3,-10,0
14285,4,6,11,3,6,-1,-1,23,0
14290,1,-3,-1,-1,-1,2,-5,-4,0
14295,-6,5,-1,-1,-1,-9,-5,1,0
14300,4,-6,-1,5,3,7,5,-2,0
14305,0,-2,-4,-1,3,2,-4,0,0
14310,2,5,2,7,5,0,-4,0,0
14315,-1,-2,-2,-5,-12,-10,-14,-1,0
14320,-2,-3,-4,0,-1,-1,-1,-2,0
14325,-6,3,2,-16,-24,-16,-25,-24,0
14330,4,5,7,3,8,15,41,39,0
14335,3,3,1,7,9,-11,-25,-8,0
14340,-4,-5,-9,-11,-15,1,-8,-12,0
14345,3,-2,2,7,8,-7,-1,4,0
14350,2,-2,-10,-11,-9,9,47,-3,0
14355,-5,3,3,2,1,-1,1,10,0
14360,3,1,8,14,14,5,4,7,0
14365,-1,-3,-6,-16,-6,2,5,-3,0
14370,-8,-3,-1,5,-8,-26,-37,-12,0
14375,-3,2,0,4,8,7,10,-4,0
14380,2,-3,1,-4,-3,-4,-12,2,0
14385,4,0,-2,2,5,1,-4,0,0
14390,-5,2,-3,-2,2,24,27,7,0
14395,-2,2,12,2,0,-3,-12,17,0
14400,-6,1,8,19,25,20,24,7,0
14405,0,-3,-8,-7,-15,-7,-13,-6,0
14410,-1,-6,-10,-24,-29,-18,0,-9,0
14415,1,2,-5,7,-3,-16,-20,-11,0
14420,-4,-2,0,-3,-13,-7,-5,-4,0
14425,1,3,7,9,13,5,10,0,0
14430,2,-1,-1,2,3,4,-22,1,0
14435,-7,-2,-3,-8,-1,13,23,-6,0
14440,1,-1,0,-6,-10,-4,3,1,0
14445,-2,-1,-4,3,4,-4,-3,-6,0
14450,1,0,2,4,5,3,-11,-1,0
14455,2,-1,-2,-2,-1,-2,3,0,0
14460,-2,-6,-4,-1,3,11,12,-2,0
14465,-6,-6,-3,-2,-5,-10,-2,-5,0
14470,1,1,3,2,9,-6,-21,-2,0
14475,3,2,0,-2,0,-1,10,5,0
14480,-4,-4,-1,-8,-7,4,-2,-13,0
14485,0,2,2,3,4,-7,-14,1,0
14490,1,0,1,8,16,-2,-2,1,0
14495,-3,-3,-5,-2,2,12,11,-2,0
14500,0,2,-2,-13,-35,-17,12,8,0
14505,-3,-4,-1,-1,-2,16,30,-1,0
14510,-1,0,-1,-1,-1,-3,-15,-6,0
14515,0,-1,1,2,12,0,5,0,0
14520,2,4,6,7,14,12,22,9,0
14525,-2,-2,-2,0,-1,0,-26,-8,0
14530,1,-1,-2,2,-3,-5,-7,-3,0
14535,-2,-5,-5,-6,-9,-4,-5,0,0
14540,-1,-1,-1,1,6,-6,-18,-9,0
14545,-2,-3,-5,-6,-2,2,11,8,0
14550,4,5,3,-1,0,-1,-23,6,0
14555,-6,-4,0,3,-4,3,14,-3,0
14560,-1,-4,1,7,8,-6,-21,-4,0
14565,-3,2,-2,2,4,-1,-8,-10,0
14570,-9,-2,-8,-6,-11,0,3,-11,0
14575,3,7,5,-9,-3,-5,-17,-5,0
14580,-1,-14,-4,5,1,-3,-12,-2,0
14585,2,3,5,10,4,4,13,1,0
14590,-3,-3,-2,-3,-5,-1,-3,-5,0
14595,-1,1,2,3,5,3,7,4,0
14600,5,5,-5,-10,-4,-6,-11,3,0
14605,-3,-4,-4,-10,-15,-5,-2,-6,0
14610,1,-1,-5,4,5,2,7,7,0
14615,2,7,10,2,-4,1,17,9,0
14620,1,2,2,5,7,3,-8,1,0
14625,2,1,4,6,8,3,6,3,0
14630,0,-3,-4,-4,-6,-2,5,-4,0
14635,-3,-5,-8,0,-2,0,-4,-3,0
14640,1,4,5,1,2,-3,-6,5,0
14645,-4,-2,-1,-2,0,6,25,-1,0
14650,-1,-1,-1,-2,-3,-14,-19,-6,0
14655,5,-3,-5,-3,2,8,14,7,0
14660,-2,4,2,-1,1,-1,6,-5,0
14665,3,-3,-3,2,1,-4,-11,9,0
14670,0,2,1,-3,-4,2,8,-3,0
14675,-2,-6,-5,-1,-1,-2,-4,-5,0
14680,2,16,7,10,1,-3,-7,-13,0
14685,1,-12,-9,-5,3,12,17,9,0
14690,-13,-4,-7,-12,-15,-16,-5,-27,0
14695,2,-4,-6,-8,-3,1,-22,2,0
14700,2,4,1,-3,3,5,-3,13,0
14705,2,8,9,13,15,3,-18,3,0
14710,0,0,5,4,1,9,2,4,0
14715,-3,-3,-9,-6,0,-12,-9,-10,0
14720,-5,-9,-12,-15,-17,-11,1,-7,0
14725,-2,-1,-4,-8,-10,-5,-10,-8,0
14730,5,3,4,2,11,12,14,11,0
14735,-4,1,3,-5,3,1,-3,-7,0
14740,2,-2,3,28,12,2,3,4,0
14745,-2,0,-7,-10,-10,-11,15,8,0
14750,2,0,-1,-1,6,10,3,3,0
14755,-1,-1,-1,-3,-4,-12,34,-1,0
14760,-4,-5,-1,-13,-18,-13,-17,-5,0
14765,1,0,6,9,6,16,43,9,0
14770,0,-4,-3,-5,-8,-5,24,8,0
14775,-1,-1,1,5,-6,0,-17,-10,0
14780,-1,-5,-1,0,13,7,-7,12,0
14785,1,4,1,7,15,12,16,0,0
14790,3,2,2,8,-7,-15,-4,-8,0
14795,-2,5,4,-7,-6,-4,9,5,0
14800,0,8,-4,-10,-12,-14,-28,-27,0
14805,-3,-4,-2,-4,-6,0,6,-4,0
14810,1,-4,4,8,17,15,39,17,0
14815,1,4,1,4,-3,-2,-27,0,0
14820,-6,-9,-13,-9,-12,-7,8,-13,0
14825,-4,0,1,0,-3,-2,-15,-6,0
14830,1,-2,-2,-5,0,-3,-18,-2,0
14835,-2,0,1,12,0,5,10,-7,0
14840,0,-5,-3,-9,2,11,20,17,0
14845,-5,-2,-1,-5,-1,-16,-49,-17,0
14850,0,0,5,9,2,2,40,8,0
14855,4,-15,-13,-2,-7,-6,-23,-1,0
14860,-33,7,17,-3,1,0,4,-12,0
14865,29,-4,-24,-12,-5,2,9,6,0
14870,-5,7,4,-2,-6,-3,-34,-7,0
14875,-4,-21,-14,-8,-5,-10,-35,-26,0
14880,6,-15,-3,1,2,1,44,36,0
14885,-8,24,13,2,-3,-1,-13,-20,0
14890,1,-1,-5,-4,0,2,-18,4,0
14895,4,12,6,5,12,16,26,1,0
14900,-11,-12,-3,1,-7,-21,-53,-27,0
14905,-4,-4,2,3,1,3,5,10,0
14910,3,-1,0,-3,-1,-5,-18,-8,0
14915,-6,2,5,4,4,6,1,4,0
14920,8,3,-3,0,4,2,-11,-8,0
14925,-1,-8,-3,1,-2,-6,15,-1,0
14930,-3,-1,1,2,3,6,-3,4,0
14935,-2,-2,-1,-15,-8,-13,-21,-1,0
14940,9,4,2,10,2,6,15,6,0
14945,-6,-3,-1,-8,-2,-9,-13,-4,0
14950,-2,-6,-1,-12,-5,5,22,3,0
14955,-2,1,-3,8,1,1,6,1,0
14960,6,2,0,2,9,0,3,7,0
14965,-3,1,4,9,17,12,-4,1,0
14970,-1,5,3,-8,-24,-33,-7,-4,0
14975,4,3,4,-2,-10,8,-8,5,0
14980,-2,2,-6,1,0,-4,-10,-5,0
14985,-5,-6,-7,-9,-11,-4,-9,5,0
14990,0,2,2,4,8,8,-8,-5,0
14995,2,3,1,5,7,0,-20,3,0
15000,3,2,3,4,9,8,25,11,0
15005,-4,-5,-5,-1,-2,-1,-9,-2,0
15010,2,2,2,5,4,-3,6,5,0
15015,-6,-7,-3,1,2,10,23,0,0
15020,1,-1,-5,-1,-3,2,-6,-3,0
15025,-2,2,2,-6,-4,-15,-21,-2,0
15030,-3,-5,-3,-3,0,6,9,-4,0
15035,-1,0,2,0,1,1,11,-1,0
15040,3,1,2,-3,2,8,-4,-3,0
15045,-1,-4,-4,-6,-16,-6,12,-1,0
15050,-5,-4,-6,0,-1,-5,-19,-5,0
15055,-1,1,0,-3,-2,-5,-6,0,0
15060,3,-3,-1,-2,2,5,24,3,0
15065,1,2,7,16,12,4,-5,-3,0
15070,-3,-4,-11,-10,-11,21,1,-6,0
15075,0,-1,-2,-5,6,-5,8,10,0
15080,-2,2,1,-2,-8,-17,-35,-19,0
15085,-1,1,2,0,7,-5,-4,6,0
15090,4,1,1,4,5,6,14,11,0
15095,-4,-1,-1,5,0,-4,-24,-7,0
15100,-3,-2,2,0,7,21,19,-2,0
15105,3,1,0,-2,2,0,-3,11,0
15110,-4,-3,-4,3,9,-9,-17,-6,0
15115,0,1,-2,-6,-15,-12,-18,-2,0
15120,-3,-2,0,-2,-6,-12,-12,5,0
15125,-2,-1,-2,-2,-5,6,-6,-10,0
15130,1,-1,1,0,1,-2,13,8,0
15135,3,3,-1,5,7,13,16,8,0
15140,0,-2,-5,-5,3,19,1,-6,0
15145,-3,-3,1,3,-15,-38,-5,-3,0
15150,-5,-5,-9,-11,-13,-6,-3,-13,0
15155,2,0,1,3,0,-13,-15,7,0
15160,5,0,-2,0,-4,-2,-2,9,0
15165,4,1,1,-4,4,22,85,14,0
15170,0,1,2,10,10,1,-7,8,0
15175,-6,-4,-3,-2,-2,-4,2,-7,0
15180,-3,1,-1,0,1,-1,15,0,0
15185,-2,-3,1,-3,-8,-2,-30,-13,0
15190,3,1,0,-1,-3,-17,-7,8,0
15195,1,0,-2,1,5,21,31,-4,0
15200,-2,-2,-1,-1,1,-12,-26,-2,0
15205,-5,-2,-3,0,1,-6,-7,-10,0
15210,0,0,0,1,0,19,7,-1,0
15215,-1,-9,-7,-5,-9,-4,2,2,0
15220,-2,7,-1,1,-2,-14,-14,-4,0
15225,-1,-3,2,1,3,42,19,3,0
15230,1,-5,1,1,-3,-8,-8,-6,0
15235,-34,8,4,1,7,5,12,-2,0
15240,16,-10,-4,-3,-6,-14,8,-1,0
15245,15,2,-8,-4,-2,-9,-1,6,0
15250,-21,-10,9,6,2,0,-22,-8,0
15255,12,17,11,-3,-9,-7,0,-2,0
15260,-15,-9,-2,1,0,-1,-3,-2,0
15265,-15,9,-19,-6,0,7,2,0,0
15270,-4,-2,6,2,3,-9,-15,-14,0
15275,0,-24,-33,-21,-6,-6,-7,-6,0
15280,12,22,2,-4,1,21,44,13,0
15285,1,-2,8,-5,2,-10,-16,-3,0
15290,-1,3,-7,3,1,-4,7,0,0
15295,8,-1,11,8,3,0,-1,1,0
15300,-5,-2,1,3,-1,-3,-15,-1,0
15305,-3,-5,-3,-7,-5,-7,-9,-5,0
15310,6,7,-1,-2,-2,6,8,3,0
15315,7,-2,4,2,2,1,2,1,0
15320,-1,-3,-2,-2,-3,-8,-3,1,0
15325,-3,2,7,7,4,-6,-8,0,0
15330,3,-3,-6,-7,-4,2,0,-2,0
15335,0,5,4,4,-6,-2,1,1,0
15340,-6,-5,-4,-7,-7,-9,-6,-3,0
15345,0,-3,3,-9,1,-4,-4,2,0
15350,1,3,-2,6,7,10,3,0,0
15355,-4,-6,-6,-7,-6,1,2,-4,0
15360,0,0,6,2,2,3,-6,-1,0
15365,2,-2,1,8,7,2,-1,0,0
15370,0,-3,-3,-5,-4,-8,3,1,0
15375,-3,2,2,-3,-1,-10,-16,15,0
15380,0,-4,-3,-2,0,-1,2,0,0
15385,-1,-1,0,4,3,1,-9,0,0
15390,0,3,0,3,1,4,2,3,0
15395,-1,1,-2,4,6,3,12,-8,0
15400,-4,-4,-2,-4,-6,5,-5,-3,0
15405,0,-4,-3,1,-2,3,9,-2,0
15410,4,4,3,-1,-11,-12,-1,3,0
15415,-1,-1,1,0,4,-2,-17,-3,0
15420,-1,1,-2,3,3,12,17,1,0
15425,-2,2,4,7,1,-22,-17,-6,0
15430,-2,-2,-7,-10,-9,-6,14,1,0
15435,3,1,0,-1,1,-12,-24,-8,0
15440,-3,-3,2,4,0,-2,-1,6,0
15445,0,0,-2,-2,1,13,-11,-3,0
15450,-3,1,3,3,4,5,4,-4,0
15455,-1,-3,-3,-1,-4,-25,3,3,0
15460,-2,1,-2,0,-2,22,3,-4,0
15465,3,-1,0,0,0,2,-1,5,0
15470,-1,-1,1,-3,-5,5,11,1,0
15475,3,1,1,1,-1,5,17,0,0
15480,1,0,1,1,1,-14,-5,2,0
15485,1,-1,-2,-3,-1,1,-3,-3,0
15490,-6,-1,-3,0,5,3,-8,2,0
15495,-1,0,0,6,-1,8,5,0,0
15500,1,-3,-3,-8,-3,-4,-2,-2,0
15505,-4,0,0,-3,-4,-4,-4,-6,0
15510,2,-3,-3,-2,0,-1,-8,-1,0
15515,-1,-2,-2,-2,-2,-9,4,-1,0
15520,2,1,0,3,6,11,-1,5,0
15525,-2,-4,-3,-4,-3,0,4,-3,0
15530,-1,0,1,0,5,5,-5,-4,0
15535,-3,0,-1,-1,-6,-11,1,-3,0
15540,-2,-2,-1,-1,-2,-13,-7,-6,0
15545,0,0,-4,-3,-6,-4,4,2,0
15550,-1,1,1,1,3,4,4,-9,0
15555,0,-6,-2,-2,3,11,-3,-2,0
15560,-2,2,4,0,-4,-6,15,3,0
15565,-7,-4,2,0,-3,-3,-2,-10,0
15570,1,-2,-1,-4,3,-2,-6,4,0
15575,-6,3,-1,7,1,7,6,-8,0
15580,5,-4,-6,-3,-2,-5,-8,3,0
15585,-1,-7,-4,-4,-4,-4,-5,-3,0
15590,-3,-1,-1,0,-5,-5,-2,-4,0
15595,-7,-8,-2,-3,2,6,-4,-4,0
15600,7,7,0,-2,-2,-1,-9,-3,0
15605,5,1,-6,3,-1,0,3,3,0
15610,3,5,4,-2,-2,-7,-13,0,0
15615,3,2,3,-1,-1,5,5,0,0
15620,-4,-3,-1,3,2,-1,1,-3,0
15625,0,2,4,0,1,2,2,6,0
15630,5,1,-2,0,5,0,3,0,0
15635,0,0,-2,2,0,0,-4,-1,0
15640,-2,1,-1,-3,-4,1,5,-3,0
15645,-1,-6,-7,1,-3,-4,-16,-1,0
15650,-4,2,8,7,13,9,4,-5,0
15655,2,1,0,-11,-16,-18,-19,0,0
15660,-3,-3,4,4,4,24,16,2,0
15665,-4,-4,-5,3,12,-4,-3,-1,0
15670,-5,3,2,-14,-30,-34,-47,-11,0
15675,8,1,0,3,6,15,34,13,0
15680,0,2,-1,0,-4,-33,-54,-29,0
15685,-9,-1,1,1,8,58,78,3,0
15690,6,-5,-4,3,10,10,22,23,0
15695,4,0,1,0,6,6,12,13,0
15700,-1,-4,-3,-1,-1,9,-16,-7,0
15705,1,2,1,-1,-17,-41,-24,-11,0
15710,-8,-4,-3,0,-6,-19,-3,-7,0
15715,9,3,4,-1,3,28,21,18,0
15720,1,-1,-3,-6,5,5,16,7,0
15725,-3,3,2,-2,-1,-1,-8,-6,0
15730,-3,-4,-6,7,-3,-14,-5,-4,0
15735,-4,-2,-4,-1,-5,1,-21,-3,0
15740,-6,1,-2,0,3,6,31,11,0
15745,5,4,4,-2,2,-1,-9,10,0
15750,-7,-5,-10,-9,-5,1,6,-24,0
15755,2,0,6,-1,0,0,-7,0,0
15760,0,1,8,6,7,1,4,17,0
15765,-1,-2,0,0,9,17,-8,-4,0
15770,3,2,4,5,-3,-3,44,11,0
15775,-6,-5,-9,-1,-9,-3,-18,-13,0
15780,-1,-3,-10,-9,-9,-31,6,-6,0
15785,3,1,1,-10,-19,-22,8,15,0
15790,3,-1,-4,-6,10,37,9,7,0
15795,-4,-1,3,-1,2,6,-44,-19,0
15800,-1,-2,-1,-7,9,-8,34,12,0
15805,1,0,0,16,12,2,-39,0,0
15810,1,0,1,4,-1,1,-20,-17,0
15815,-4,-2,-5,-2,2,-4,30,15,0
15820,-13,-9,-8,-1,-2,3,-75,-35,0
15825,15,5,-7,-8,-9,-13,33,10,0
15830,-27,-16,2,-4,-3,10,-11,-3,0
15835,47,31,11,4,6,-3,4,5,0
15840,-21,3,3,5,2,2,-7,1,0
15845,16,-12,-9,-9,-11,-6,-12,-13,0
15850,-32,-2,-14,-3,0,-3,4,4,0
15855,27,25,9,1,3,0,22,17,0
15860,-6,-13,-3,2,-3,-1,5,6,0
15865,17,2,13,3,6,5,8,-3,0
15870,-10,-12,-14,6,2,-1,-7,-1,0
15875,-28,-13,-7,-10,-5,-11,-4,-14,0
15880,15,5,3,2,-2,5,19,3,0
15885,-12,3,2,0,1,-2,-11,1,0
15890,14,3,5,-5,0,-14,-44,-13,0
15895,-13,-6,-6,-4,-1,11,66,6,0
15900,8,1,3,3,6,4,21,-5,0
15905,-11,-6,-5,-8,-17,-10,-33,18,0
15910,5,10,4,-1,-4,-2,8,13,0
15915,-2,-9,-3,2,-1,-3,-35,-8,0
15920,-3,-1,-7,-5,-4,-2,5,-9,0
15925,-12,-4,-2,2,4,-4,-22,-21,0
15930,10,1,7,4,7,7,17,-6,0
15935,-8,-8,-5,0,-3,-6,-22,-3,0
15940,7,2,-5,-1,-7,-5,-35,-20,0
15945,13,11,4,-2,3,10,17,-2,0
15950,5,-3,0,-5,-5,3,10,4,0
15955,-19,-19,-4,0,2,0,-30,-9,0
15960,-1,15,2,0,-1,-2,14,-12,0
15965,-3,4,0,2,0,-5,2,-10,0
15970,6,-3,-1,-1,-2,-9,-15,13,0
15975,1,2,-2,-1,-3,-17,-33,-13,0
15980,-14,-7,-2,-3,-3,6,-57,-16,0
15985,10,5,4,4,8,32,97,79,0
15990,13,6,2,-4,-6,-1,-14,4,0
15995,-19,-6,-4,-4,-7,-19,-21,-13,0
16000,2,-7,-1,-2,-3,-7,-17,14,0
16005,-9,-6,-4,0,-2,-8,-16,-26,0
16010,-5,-3,-1,2,1,4,-5,7,0
16015,7,0,2,4,4,14,37,20,0
16020,4,-2,1,1,-1,2,16,0,0
16025,-8,-5,-3,3,2,-5,-16,-17,0
16030,14,-5,-3,-2,-2,4,30,6,0
16035,-9,17,4,-1,2,-1,-11,-16,0
16040,11,0,5,2,9,3,4,22,0
16045,-17,-2,-4,-7,-14,-8,-16,-16,0
16050,3,-2,-7,-1,-1,-3,-5,-3,0
16055,9,-7,-1,-1,-1,4,5,-1,0
16060,-6,2,1,0,-3,2,-9,-1,0
16065,-7,-12,0,0,1,-9,17,4,0
16070,16,12,0,-2,2,-5,1,-11,0
16075,-36,-16,0,3,2,-1,-8,7,0
16080,32,4,6,3,1,2,6,6,0
16085,0,-1,-3,-10,-6,-6,-24,-14,0
16090,-7,-4,-4,-2,-2,2,3,-5,0
16095,-6,4,-2,-4,-1,1,9,-5,0
16100,-2,-4,-3,-2,-10,-7,7,1,0
16105,0,8,22,9,6,6,-2,3,0
16110,1,7,5,12,12,3,-2,-1,0
16115,14,-7,-34,-13,3,2,6,2,0
16120,-9,-6,-9,-20,-12,-3,7,2,0
16125,8,1,-7,-4,1,-1,-9,-6,0
16130,-6,-4,12,0,1,2,-1,-2,0
16135,1,-3,2,4,3,0,0,3,0
16140,-6,0,1,10,6,-1,7,3,0
16145,-10,0,-4,-7,-3,-3,-12,-7,0
16150,0,1,0,-1,0,-1,7,3,0
16155,-3,-4,0,-3,-9,4,7,-1,0
16160,-2,2,0,-1,2,-3,-4,-3,0
16165,-1,-2,2,3,1,0,-2,2,0
16170,-1,-3,-2,-2,3,2,0,-6,0
16175,8,1,0,-1,-5,-9,-7,-7,0
16180,-8,-2,1,-1,1,4,0,3,0
16185,-1,-1,-4,0,0,-4,-15,-2,0
16190,-2,-2,-3,3,1,2,28,1,0
16195,-3,0,5,3,1,7,16,-4,0
16200,-1,-2,1,4,4,6,8,3,0
16205,-2,-5,-8,-2,-1,-5,1,-2,0
16210,-2,-1,-4,-13,-11,-8,-22,-3,0
16215,3,2,5,-3,-3,-8,-9,10,0
16220,-6,2,-1,5,1,7,2,-5,0
16225,-3,4,0,3,5,0,-7,1,0
16230,3,1,-1,2,-1,2,-7,9,0
16235,1,1,1,3,4,1,5,0,0
16240,-1,-2,-2,-6,-5,-8,-6,-14,0
16245,-6,-2,-3,-2,-3,4,6,-7,0
16250,1,0,-2,3,11,3,-13,0,0
16255,4,0,1,-1,-14,-1,11,9,0
16260,2,0,-1,-2,-3,-1,5,9,0
16265,0,-2,1,3,11,9,-7,-5,0
16270,-5,-2,-3,-10,-20,-26,-10,-10,0
16275,2,-1,1,-3,9,1,-12,-8,0
16280,2,2,-1,8,5,10,35,8,0
16285,-2,-1,-1,0,-8,-3,-6,-3,0
16290,-4,1,-1,1,11,3,-20,-2,0
16295,-2,0,-1,1,-2,-4,1,2,0
16300,-1,0,-1,-5,1,-2,-6,-6,0
16305,1,0,-4,3,5,6,7,3,0
16310,-2,-1,1,-4,-1,-1,0,1,0
16315,0,0,2,1,0,-3,2,1,0
16320,4,-17,-14,-21,-18,-2,-9,-4,0
16325,-17,30,6,2,-3,-2,5,0,0
16330,12,-1,0,-1,-3,-5,-7,-3,0
16335,-1,-2,4,7,3,-5,-8,-4,0
16340,1,0,4,6,8,-2,-3,13,0
16345,3,-12,-4,-3,-4,-15,-21,5,0
16350,-20,-13,-4,-4,-3,2,42,-1,0
16355,7,24,3,2,4,24,5,1,0
16360,5,-3,0,1,1,17,4,3,0
16365,9,-7,-2,-3,-6,-16,-33,6,0
16370,-11,8,3,5,11,12,14,7,0
16375,-3,-10,-1,-2,-4,-24,8,-5,0
16380,-3,1,-2,1,0,21,-2,-9,0
16385,2,4,3,-3,-5,-4,-2,5,0
16390,8,-3,-2,0,-3,-8,-14,-4,0
16395,-5,-4,-2,-4,1,14,-7,-3,0
16400,-1,8,2,3,-1,-13,-5,-6,0
16405,1,-5,-3,-2,3,-3,11,-9,0
16410,0,-3,-5,0,-4,0,-3,-5,0
16415,2,-3,0,-1,2,9,11,6,0
16420,-6,2,1,0,-4,-21,-26,-1,0
16425,1,-4,-3,-2,-1,-4,5,-4,0
16430,-2,3,1,-1,4,33,57,5,0
16435,2,-2,-2,0,-1,-5,4,-4,0
16440,0,-1,2,1,1,-13,-8,0,0
16445,-7,0,2,0,6,30,50,11,0
16450,10,2,-2,-1,-6,-22,-41,10,0
16455,-5,-7,-2,-4,-4,-11,-6,-1,0
16460,10,9,2,1,-1,-1,-4,2,0
16465,-41,-24,-4,1,2,12,-1,-6,0
16470,8,6,-1,-2,-5,-2,-14,-9,0
16475,-6,-8,-3,-1,-2,-2,-7,-8,0
16480,19,-2,-3,-3,-5,-15,-1,-11,0
16485,-2,-3,-4,-1,3,10,-4,17,0
16490,-12,-8,0,1,0,-4,-14,-21,0
16495,17,3,-2,0,-1,-2,0,1,0
16500,-7,-7,-1,1,1,2,-11,-1,0
16505,19,9,2,0,-3,-6,9,17,0
16510,-9,-6,-3,-4,-2,-1,-2,-31,0
16515,-10,-1,-2,-2,-5,-15,-35,-5,0
16520,-15,-1,0,2,3,12,26,11,0
16525,33,11,0,-3,-2,-7,-7,-2,0
16530,-2,0,1,0,1,16,13,16,0
16535,-2,0,-1,1,-3,-1,18,-6,0
16540,-2,-1,-1,-2,1,-17,-32,1,0
16545,1,0,1,-1,1,9,45,-10,0
16550,3,-4,-1,-2,-5,-10,-4,1,0
16555,4,-3,-2,-2,-2,-6,-12,1,0
16560,-6,4,2,2,5,3,-31,1,0
16565,2,4,3,4,-1,1,22,-7,0
16570,3,0,0,0,5,-9,-51,8,0
16575,-5,-4,-1,-3,-1,11,12,4,0
16580,-5,0,-2,-4,-7,-16,-3,-9,0
16585,-8,-11,-5,-3,-9,-14,-48,-17,0
16590,-2,2,1,-2,3,20,-17,-7,0
16595,-5,4,4,4,7,5,48,27,0
16600,6,-7,-6,-4,-2,-11,-10,3,0
16605,-1,19,3,2,1,3,-12,-10,0
16610,-1,-1,1,6,6,8,22,6,0
16615,2,-3,0,7,3,-11,-47,-24,0
16620,-7,-3,-2,-4,-14,9,27,-2,0
16625,7,-2,-4,-16,5,3,-33,10,0
16630,-8,0,0,12,-5,-16,-25,-13,0
16635,-4,-2,1,-2,-12,-27,-3,17,0
16640,-6,-3,-4,-13,-5,7,18,2,0
16645,3,7,5,7,-11,-13,-17,-2,0
16650,-3,-8,-9,-21,-9,9,27,4,0
16655,8,0,3,3,-3,13,-4,-23,0
16660,-2,0,1,13,19,12,9,10,0
16665,-2,-4,-4,-5,-3,-11,10,-7,0
16670,8,-2,12,-1,2,-9,0,11,0
16675,-4,12,2,7,2,0,10,-5,0
16680,-1,1,-7,8,19,23,33,15,0
16685,-2,-3,-3,-3,-1,-14,-41,-6,0
16690,2,-1,-5,-7,-22,4,27,6,0
16695,-3,-5,-1,-13,-13,-13,-17,2,0
16700,-2,-4,9,4,5,12,4,-12,0
16705,-14,-11,-7,12,16,10,4,-1,0
16710,13,18,2,1,8,3,14,29,0
16715,0,9,17,-1,0,5,1,4,0
16720,4,-5,-2,-2,-7,-16,-25,-7,0
16725,-2,-2,-4,0,0,10,34,4,0
16730,-8,-11,-4,1,0,-4,10,-18,0
16735,-1,-6,-11,-1,7,5,-7,7,0
16740,-4,0,-2,-4,-7,-13,-14,-6,0
16745,-24,1,7,-3,-8,-5,-7,-5,0
16750,48,18,0,0,1,5,15,0,0
16755,-3,0,-5,1,5,5,-29,-8,0
16760,3,-3,3,2,0,4,26,4,0
16765,6,-11,-6,-9,-8,2,8,3,0
16770,-11,0,-5,-1,-2,-11,-15,0,0
16775,-4,-15,0,5,7,4,-3,-5,0
16780,1,6,-2,-4,-3,2,-2,-2,0
16785,3,0,-3,-3,0,4,9,-4,0
16790,-14,-3,5,6,5,0,13,2,0
16795,2,-9,-12,-9,-12,-10,-8,-3,0
16800,2,7,18,-2,-6,1,-5,-17,0
16805,9,14,-9,2,12,3,20,0,0
16810,-7,-10,-3,1,2,-4,-19,1,0
16815,0,3,-3,3,0,-6,-4,-9,0
16820,6,3,-2,-3,-7,-7,-1,4,0
16825,1,-3,6,-4,-6,-8,-30,-13,0
16830,-1,1,2,3,8,1,6,2,0
16835,-5,2,1,2,13,17,46,10,0
16840,-6,-3,-3,2,8,7,-37,0,0
16845,1,-7,-3,-8,-27,-3,6,0,0
16850,-16,-4,-5,-5,-16,-14,8,-8,0
16855,7,7,4,-1,5,-5,-38,1,0
16860,-2,-1,-3,-1,3,-1,12,-9,0
16865,-2,-3,2,10,28,-6,-12,-1,0
16870,-9,-3,-7,-16,-41,5,5,-13,0
16875,-3,-2,-3,-2,0,1,6,3,0
16880,0,-2,-6,-5,-8,-22,17,8,0
16885,6,4,-3,-4,-2,21,-7,-5,0
16890,-2,-1,2,4,7,-8,-12,-6,0
16895,-3,-2,-3,1,0,-4,-17,-9,0
16900,-2,-2,-6,-5,-10,-3,8,9,0
16905,1,-3,0,2,0,5,31,7,0
16910,-1,-3,4,0,6,-13,-43,-6,0
16915,0,-2,-10,1,4,24,36,4,0
16920,-4,1,3,2,11,3,-23,-15,0
16925,-1,-6,-3,-2,-4,-11,4,1,0
16930,1,0,1,2,5,12,17,9,0
16935,-2,1,3,-1,-6,-4,-11,-2,0
16940,-4,-3,-2,0,-1,-2,-4,-3,0
16945,1,1,4,2,10,10,0,-3,0
16950,-1,1,-2,4,-5,-24,-34,-4,0
16955,-2,-2,-6,-10,-7,24,30,3,0
16960,-2,-2,-5,-6,-7,-6,-10,-15,0
16965,0,-6,-2,1,0,11,64,1,0
16970,1,1,-3,6,22,9,-7,8,0
16975,1,16,23,6,8,-5,-9,-10,0
16980,-5,-1,1,-1,-3,18,-14,-1,0
16985,7,7,-1,-3,-14,-22,-1,20,0
16990,-5,-12,-9,-6,-14,-15,-18,-5,0
16995,-13,-5,-9,-3,2,-3,6,-13,0
17000,9,12,13,8,12,10,23,37,0
17005,-5,-8,0,2,5,10,-17,-10,0
17010,-3,-2,-2,-1,4,4,18,-2,0
17015,1,-3,-2,-3,-9,-20,-26,-3,0
17020,-1,-7,-9,-2,-4,-1,22,-1,0
17025,-1,5,0,1,2,4,-10,2,0
17030,2,6,5,4,1,3,11,2,0
17035,1,-2,-1,1,4,3,5,-2,0
17040,0,-5,-2,2,2,-8,-5,-6,0
17045,1,-5,-6,-5,-12,-14,-26,-5,0
17050,-2,-4,-5,-2,7,13,12,-9,0
17055,7,2,-3,-1,1,-14,5,8,0
17060,-6,5,7,5,23,17,-5,-8,0
17065,-6,-1,-4,-17,-53,-26,-26,-8,0
17070,7,6,7,5,12,10,19,10,0
17075,9,-3,-8,-2,-3,0,6,30,0
17080,0,-3,-6,3,0,4,8,4,0
17085,0,6,6,2,18,-1,-1,-2,0
17090,-6,-3,-1,-1,-5,1,-8,-8,0
17095,-2,-2,-4,-6,-8,-8,-5,-6,0
17100,3,0,-1,-2,-7,-9,-12,-1,0
17105,-2,-4,2,3,8,3,-1,-3,0
17110,-2,-2,-3,-2,-2,-3,-8,-3,0
17115,-2,-1,3,2,2,6,6,-2,0
17120,-2,0,-3,-1,-5,-3,4,0,0
17125,1,0,-1,2,9,7,-1,1,0
17130,5,-5,-4,-7,-7,-11,-9,0,0
17135,-32,-6,1,1,-3,-2,-4,-1,0
17140,12,9,-1,-2,-4,-2,9,1,0
17145,-1,-2,-1,3,6,-1,7,-1,0
17150,-3,-2,6,0,2,-1,4,11,0
17155,-1,-2,0,1,-3,0,-8,-4,0
17160,0,0,-1,-2,-4,-5,-28,-7,0
17165,-14,-5,1,1,5,-6,-8,-1,0
17170,-7,-4,-3,0,1,16,-5,-6,0
17175,8,7,-1,-2,-3,-5,-2,0,0
17180,-7,-6,-2,-9,-7,-13,-2,-3,0
17185,4,0,-2,2,-1,10,18,4,0
17190,-11,-7,-3,0,0,-12,-9,-8,0
17195,13,-3,-11,-6,-6,11,7,4,0
17200,5,14,4,6,4,-12,-7,-3,0
17205,-12,2,11,2,2,10,0,-6,0
17210,5,2,1,-5,-2,4,12,-1,0
17215,4,1,2,1,-1,-9,-23,-7,0
17220,2,-8,-10,-7,-6,-3,-7,-2,0
17225,1,-8,-5,1,5,3,13,8,0
17230,13,19,3,11,10,-2,2,1,0
17235,-2,-18,-2,-3,-8,-10,-6,0,0
17240,-9,-1,-3,-3,-8,2,-3,-4,0
17245,9,9,0,-7,3,-6,-6,-2,0
17250,-13,-6,-8,-4,-5,-2,-10,-7,0
17255,35,-1,4,4,-5,-3,7,2,0
17260,-8,-7,2,5,5,2,22,-1,0
17265,0,8,-3,-6,-5,3,-5,2,0
17270,12,1,0,-3,-2,-3,0,5,0
17275,-7,-1,-1,-2,3,3,-2,-8,0
17280,-11,-3,3,6,-1,1,10,6,0
17285,4,9,3,2,1,0,3,1,0
17290,4,-6,-1,-5,-1,3,-7,-1,0
17295,5,11,-1,0,1,3,33,2,0
17300,-12,-4,10,0,1,2,8,-1,0
17305,20,-1,-3,-1,-1,-8,-26,-3,0
17310,-2,5,1,1,-3,-2,0,2,0
17315,-16,-5,-2,0,1,-6,-28,-12,0
17320,22,-2,-5,-2,1,-1,-10,9,0
17325,-17,-5,-2,-2,-3,-3,-3,0,0
17330,-1,0,2,2,-1,8,23,-6,0
17335,4,1,-2,-3,1,6,10,2,0
17340,-18,-9,-4,-4,-5,-8,-19,-6,0
17345,6,0,-1,3,2,-12,-22,-5,0
17350,-2,-4,-3,-3,-2,-5,-22,-4,0
17355,-19,-1,-2,-2,0,3,11,-9,0
17360,9,-2,-2,-4,-4,8,16,2,0
17365,-12,-5,0,2,0,-7,-11,-6,0
17370,12,-5,-2,-3,1,-7,-9,10,0
17375,2,1,-3,0,3,3,7,0,0
17380,1,4,-6,-5,-4,14,17,-10,0
17385,-10,-10,-2,-3,-1,-4,-5,-9,0
17390,-15,1,0,1,0,7,-2,-11,0
17395,-2,-9,-3,-1,-2,-16,-30,14,0
17400,-4,5,2,0,-4,0,7,1,0
17405,1,-1,-1,2,2,0,14,0,0
17410,-2,-2,0,3,-1,1,-11,-1,0
17415,-1,0,0,-2,0,0,-5,-6,0
17420,1,0,-1,-2,-2,-5,-1,-3,0
17425,1,-1,-3,-1,-6,-3,2,-19,0
17430,7,3,3,3,-1,0,-18,35,0
17435,1,4,-2,0,1,5,8,-4,0
17440,-9,-8,0,-2,-1,1,28,9,0
17445,3,2,1,-3,-1,5,-2,-7,0
17450,0,-3,-1,0,1,-7,-18,-24,0
17455,-5,1,2,3,4,5,9,17,0
17460,5,1,0,3,6,-8,-35,16,0
17465,1,-4,-6,-4,-8,-3,7,7,0
17470,11,-6,-1,-4,-7,-1,40,-10,0
17475,-23,15,19,-4,-2,0,7,-6,0
17480,-5,-5,-4,-1,1,0,2,10,0
17485,17,4,-1,5,6,5,6,3,0
17490,-1,-7,-1,4,3,-1,2,7,0
17495,-2,-9,-3,-4,-3,-1,-1,-18,0
17500,8,12,-3,-4,-1,-2,-14,-12,0
17505,-3,-1,1,-4,-5,0,5,7,0
17510,-13,-5,-5,1,1,-1,-4,-17,0
17515,6,2,-4,1,2,2,-1,1,0
17520,-2,2,9,1,-6,0,-1,-15,0
17525,-2,-4,-5,-1,6,-7,-8,22,0
17530,1,4,-2,-6,-5,-4,4,-2,0
17535,-7,-12,-8,-3,-8,-2,11,-5,0
17540,7,4,-11,0,1,0,-3,-15,0
17545,0,12,11,-2,-3,4,10,2,0
17550,-4,9,13,5,6,5,4,3,0
17555,-6,-14,-4,0,2,-4,-12,-6,0
17560,13,6,0,-1,-3,-2,3,-1,0
17565,-25,-12,-7,1,0,2,9,-1,0
17570,0,-2,-6,-4,0,-6,-16,-6,0
17575,4,4,1,1,-2,4,1,12,0
17580,-3,-8,0,1,3,-1,-3,1,0
17585,10,1,-2,1,6,-2,-18,1,0
17590,-5,-7,-4,-6,-5,-4,5,5,0
17595,-1,1,2,5,-2,4,16,-8,0
17600,0,-1,2,2,0,4,3,12,0
17605,4,1,1,-3,-3,3,5,-7,0
17610,-8,-2,0,0,0,4,-2,8,0
17615,7,3,-2,4,6,2,-9,6,0
17620,-3,1,-1,-5,7,0,-9,-3,0
17625,2,-9,-4,-4,-22,-23,-7,-5,0
17630,-2,6,4,-3,0,5,1,-9,0
17635,0,0,-7,-7,-6,6,-1,8,0
17640,2,-2,3,2,0,-18,-15,5,0
17645,1,0,2,4,10,40,23,4,0
17650,-5,-1,-8,-8,-18,-28,13,-4,0
17655,4,0,0,-1,-9,0,-15,-7,0
17660,-1,2,2,4,12,-33,-45,12,0
17665,-2,0,-2,-3,1,13,26,-7,0
17670,4,5,4,7,9,8,-4,1,0
17675,-3,-1,-1,0,3,0,-6,-4,0
17680,-7,-8,-5,-2,-9,16,-4,-11,0
17685,-5,-8,-6,-2,-1,-19,-30,-15,0
17690,6,1,-1,-1,0,4,-3,13,0
17695,-51,-16,2,-8,-5,0,28,1,0
17700,79,-13,1,5,4,6,26,11,0
17705,-3,12,3,-1,-10,-8,-8,5,0
17710,-2,-17,-18,-3,9,6,25,-21,0
17715,25,58,54,0,-7,-11,-3,3,0
17720,-29,-1,2,12,-4,7,15,-9,0
17725,1,-8,-6,0,11,0,-1,5,0
17730,3,-24,-6,-10,-10,-2,-3,-3,0
17735,2,-8,-22,-1,1,-3,5,-5,0
17740,-16,3,-1,-4,7,18,-4,-12,0
17745,9,2,7,7,11,-15,-12,4,0
17750,-13,7,-1,4,-8,10,27,1,0
17755,2,-9,-9,-6,-15,-24,-21,-4,0
17760,-9,5,3,-5,-16,-21,-20,5,0
17765,0,-7,-4,2,8,10,4,6,0
17770,3,9,4,1,12,1,18,5,0
17775,5,-1,-5,8,4,22,-8,12,0
17780,-4,-11,-3,-4,0,14,7,-7,0
17785,-17,-1,-3,-10,-11,-10,-41,-36,0
17790,9,8,4,3,-2,-11,22,26,0
17795,10,-18,1,6,16,6,10,-1,0
17800,-28,8,-1,-1,3,15,76,3,0
17805,19,1,-3,-6,-3,11,2,19,0
17810,-19,-4,-3,-9,-24,-37,-121,-28,0
17815,0,-15,-12,-1,-1,11,19,-25,0
17820,10,8,4,5,16,-5,-11,16,0
17825,-8,0,0,0,-5,4,9,-11,0
17830,-1,-3,-2,1,2,3,-11,-15,0
17835,6,3,5,3,8,-6,1,6,0
17840,-2,1,-14,-19,-28,-18,-38,-8,0
17845,-8,4,8,-1,-11,4,7,-5,0
17850,3,5,0,6,12,2,4,2,0
17855,2,-1,-3,0,0,2,-24,12,0
17860,-8,-6,-2,5,7,0,6,-17,0
17865,-5,-10,1,-1,-6,-14,-4,11,0
17870,-1,8,9,1,2,12,11,6,0
17875,10,3,-17,-2,-4,-18,-19,4,0
17880,-16,-16,-22,-16,-12,1,-5,-11,0
17885,6,6,-1,6,8,7,-1,3,0
17890,0,4,22,10,0,-13,1,2,0
17895,-6,-3,80,12,7,30,-3,-4,0
17900,-35,-18,-58,-51,-12,-17,-20,1,0
17905,-3,-5,20,1,5,-10,4,-12,0
17910,3,-1,-9,-3,4,3,-4,6,0
17915,4,-2,15,16,6,18,46,6,0
17920,-5,2,17,14,-1,7,3,2,0
17925,2,2,-18,-8,-10,-24,-12,6,0
17930,-3,-8,-1,-4,-1,-3,-9,-7,0
17935,-13,1,-29,-15,-11,-22,-42,-2,0
17940,12,10,22,17,24,8,35,-6,0
17945,5,1,-11,-1,-6,32,14,13,0
17950,4,-2,2,1,-16,-27,-7,4,0
17955,1,8,-17,0,6,13,-1,-16,0
17960,-3,8,13,6,2,-10,-16,6,0
17965,14,-7,6,0,3,11,20,3,0
17970,-10,-5,-8,-3,2,24,31,11,0
17975,0,-1,-17,-13,-7,0,47,12,0
17980,3,-3,10,9,2,3,-12,-6,0
17985,-5,5,13,9,4,-3,2,5,0
17990,-1,-2,-5,-6,2,10,-1,-7,0
17995,6,-1,-11,-4,-7,-19,-21,9,0
18000,9,3,9,3,-6,-15,-26,-2,0
18005,-5,-1,-4,-1,-1,-8,2,-2,0
18010,4,2,-4,-1,5,15,20,-1,0
18015,-4,-2,1,-1,1,-5,-14,-11,0
18020,-1,-1,4,3,3,0,-6,-5,0
18025,3,3,-5,4,4,17,12,7,0
18030,1,-5,-5,-6,-8,-9,-11,0,0
18035,-7,-6,-14,-3,-2,-9,-18,-4,0
18040,-3,-27,-4,-10,-11,4,4,-3,0
18045,-2,32,5,-3,-1,-6,-2,-11,0
18050,-4,-2,-3,1,-4,0,1,0,0
18055,0,3,3,4,2,0,2,-6,0
18060,6,-1,0,7,1,8,6,4,0
18065,-4,-13,-3,-3,3,-13,-16,-6,0
18070,0,8,4,0,-1,1,-2,-1,0
18075,-2,-9,-5,-1,-1,-6,-13,-1,0
18080,0,-2,0,0,-7,9,11,-3,0
18085,0,-5,-2,-5,6,-23,-19,4,0
18090,1,5,4,20,8,1,-3,-1,0
18095,0,-1,-2,-6,2,-6,5,0,0
18100,1,9,0,-14,-14,-8,-16,-4,0
18105,-2,-5,-4,4,-2,23,38,2,0
18110,1,-5,-4,-6,3,-1,1,20,0
18115,-2,1,5,6,4,-3,-6,-3,0
18120,1,8,6,11,8,5,-1,-1,0
18125,0,-6,3,-4,-8,-5,-14,1,0
18130,-3,-1,4,0,4,0,-9,-26,0
18135,-9,-8,-9,-10,-13,-4,12,3,0
18140,17,4,1,-1,-3,-4,1,-2,0
18145,-38,2,-7,-5,4,2,-1,-3,0
18150,-2,6,-2,0,0,3,-4,0,0
18155,-25,-1,17,0,-1,-4,-15,-6,0
18160,-13,-26,-59,-18,0,0,9,-2,0
18165,46,9,11,3,-4,-5,-12,-10,0
18170,-9,-1,-3,-3,-1,3,8,5,0
18175,-26,-5,-3,-1,-2,-2,-4,0,0
18180,0,5,17,11,2,-3,-2,12,0
18185,-1,19,12,3,2,1,-23,-9,0
18190,-8,-1,-3,-6,-3,-1,4,1,0
18195,27,2,0,1,4,3,-5,4,0
18200,1,-2,8,1,2,0,21,2,0
18205,-7,-17,-16,-7,-10,-8,-6,-1,0
18210,14,4,7,-2,1,1,-3,4,0
18215,4,5,-3,1,1,-3,-4,19,0
18220,0,2,2,4,2,4,-3,-3,0
18225,4,-14,-4,-2,1,-6,-17,1,0
18230,0,15,-2,-5,-16,1,22,15,0
18235,30,2,-11,-2,2,-1,-23,-8,0
18240,-15,14,21,9,6,3,-2,-4,0
18245,11,5,0,6,6,5,6,5,0
18250,7,-14,-4,3,6,-7,-15,-12,0
18255,-6,14,-6,-3,3,1,26,2,0
18260,14,3,0,-10,-11,-6,5,23,0
18265,-16,-9,-5,0,-1,3,4,-7,0
18270,6,-2,3,-2,-1,13,17,1,0
18275,-5,0,3,1,-1,-16,-11,-8,0
18280,-2,0,6,3,-2,-8,-33,-10,0
18285,-2,-3,1,1,-1,4,36,10,0
18290,-9,-5,-3,-4,-2,1,8,-4,0
18295,11,1,1,5,-1,4,2,3,0
18300,-4,-1,-2,-5,-13,-7,-6,-2,0
18305,-4,-5,-6,0,3,4,-5,-5,0
18310,9,-3,-1,3,7,-4,-36,-27,0
18315,-14,3,-3,-4,-4,0,35,5,0
18320,4,2,2,1,0,-11,-3,-2,0
18325,-9,6,6,0,0,-7,-17,0,0
18330,-4,-9,-4,-4,-5,-5,4,2,0
18335,-12,-21,-4,0,3,1,-37,-14,0
18340,16,7,-8,2,5,8,48,27,0
18345,31,-9,-7,-2,4,5,37,0,0
18350,-10,6,9,4,-1,-11,-34,0,0
18355,-1,-6,0,-3,-8,-7,-23,-4,0
18360,-6,-2,3,1,3,7,1,-3,0
18365,-34,1,-1,-4,-4,-3,11,-5,0
18370,14,-3,-5,-2,-2,5,26,-1,0
18375,4,2,1,2,2,5,9,0,0
18380,-6,-2,2,3,7,-1,-16,-12,0
18385,-6,2,-6,-5,-5,-9,-17,3,0
18390,-7,-1,-3,-4,-7,-10,-12,0,0
18395,-8,-10,0,-3,-4,10,25,1,0
18400,-2,13,3,0,-2,-7,-17,-7,0
18405,11,10,5,8,9,15,23,9,0
18410,1,-1,1,-2,3,-1,8,9,0
18415,5,-2,-7,-7,-9,-11,-22,-9,0
18420,-1,-13,-4,-2,3,13,34,5,0
18425,-2,-4,1,0,-8,-18,-46,-7,0
18430,27,-2,8,4,6,-10,2,-11,0
18435,0,6,-1,-1,1,9,-33,14,0
18440,-14,-7,-1,-2,-5,0,-14,-8,0
18445,9,-7,-3,-5,-5,-4,5,1,0
18450,-13,-2,11,4,3,-8,-18,-2,0
18455,7,17,-3,3,4,14,34,3,0
18460,23,0,-21,-9,-6,-8,-11,8,0
18465,-18,-10,-2,0,5,24,0,15,0
18470,-5,3,33,12,-5,-4,-6,-6,0
18475,13,5,-9,-7,5,-7,11,11,0
18480,-7,0,-15,-6,-3,1,-2,-14,0
18485,10,3,-5,-7,1,-3,11,-2,0
18490,-20,-5,-12,-5,-6,4,-6,0,0
18495,9,6,26,12,-2,-4,8,3,0
18500,-5,-1,7,2,-2,-5,-2,-1,0
18505,-5,-5,-4,-1,0,-6,-28,-10,0
18510,9,3,0,2,1,13,25,2,0
18515,-11,-7,-6,-3,3,3,11,-1,0
18520,-6,-5,-2,-7,-7,1,-2,-5,0
18525,19,20,7,5,2,-6,-3,2,0
18530,-20,0,-8,-3,3,-15,-9,-2,0
18535,-1,-3,-5,-1,4,37,30,18,0
18540,1,-2,2,4,2,1,-15,-5,0
18545,-2,-3,4,-3,-10,-4,-18,-13,0
18550,1,-2,-12,-2,5,0,12,5,0
18555,-4,-2,-6,-5,-3,-21,-10,-2,0
18560,0,-3,10,1,-6,1,4,3,0
18565,-7,-2,2,7,2,1,6,0,0
18570,-1,-2,-16,-14,-4,-2,-10,-2,0
18575,-2,-8,-1,-4,-6,-4,-6,-14,0
18580,-2,3,4,4,6,0,-4,4,0
18585,-8,-3,-5,-4,-2,-9,5,-4,0
18590,3,1,-3,1,-1,11,11,6,0
18595,-3,1,5,2,0,5,-20,-19,0
18600,2,3,2,3,6,-11,-4,26,0
18605,-4,-4,-2,0,-3,-2,0,-2,0
18610,3,7,1,4,1,-3,-13,-5,0
18615,-1,-1,-3,-1,0,8,15,6,0
18620,-2,1,2,1,-5,-14,-2,-10,0
18625,-8,-5,-1,-3,1,-4,5,-1,0
18630,-1,-3,-7,-9,-10,-3,-17,13,0
18635,-1,-1,-3,0,-5,8,-5,-8,0
18640,-1,0,-2,-1,3,12,12,-3,0
18645,8,13,2,1,2,1,14,1,0
18650,-8,-23,-11,-2,1,7,-3,-12,0
18655,5,0,2,4,3,-17,-2,5,0
18660,-5,-2,-2,-2,0,-1,-4,-5,0
18665,-5,-4,-7,-9,-11,3,-3,-4,0
18670,3,7,-2,-3,-5,-14,-4,-1,0
18675,-1,-2,1,4,0,-3,-4,3,0
18680,-2,-1,2,1,5,2,1,-11,0
18685,-2,-6,-2,-2,0,5,1,4,0
18690,1,6,4,3,4,3,3,2,0
18695,-5,-2,-3,-3,2,-19,-13,-8,0
18700,0,1,-2,-5,-5,17,11,1,0
18705,0,-4,-2,-4,-1,12,-7,-2,0
18710,-2,-4,0,0,0,5,2,0,0
18715,-4,2,2,2,0,-11,-2,-4,0
18720,-1,0,1,1,3,-11,-11,-2,0
18725,-4,-3,-2,1,0,-10,-1,-20,0
18730,4,-3,4,-1,-1,16,39,5,0
18735,7,7,5,2,3,0,6,-2,0
18740,-12,-14,-3,2,-7,4,0,-4,0
18745,13,13,-18,-6,4,-13,10,6,0
18750,-8,-1,7,-4,-2,-8,-18,-9,0
18755,-4,-9,8,7,-1,-2,4,-5,0
18760,-11,7,-23,-17,-8,2,1,0,0
18765,0,-5,8,5,-2,-8,-12,2,0
18770,-2,1,-10,-2,3,-1,0,2,0
18775,3,-3,8,-3,-4,-4,-16,-1,0
18780,-1,1,7,10,5,-7,1,-1,0
18785,-4,-5,2,0,1,5,-2,-1,0
18790,-1,2,-3,-1,-1,-4,-9,-6,0
18795,-7,-1,-2,4,1,-1,-1,-2,0
18800,1,-3,-1,-3,1,-30,-5,2,0
18805,3,3,-1,-2,-1,34,14,11,0
18810,-2,-6,1,2,-4,4,-5,-8,0
18815,-2,-2,-11,-8,-6,-11,-11,-2,0
18820,10,4,5,6,5,8,3,3,0
18825,-4,-4,1,-2,-4,-15,-5,-18,0
18830,-2,1,0,2,0,-18,-9,0,0
18835,-2,-2,-8,-7,0,13,4,-3,0
18840,4,0,4,2,3,10,-1,-1,0
18845,-3,-6,4,1,2,-3,6,0,0
18850,1,0,-3,-2,0,-5,-5,0,0
18855,-2,-1,-5,-5,-4,-2,-3,-2,0
18860,0,-4,3,1,-2,3,-2,-7,0
18865,0,0,0,-1,-3,-7,-8,6,0
18870,3,-1,-3,0,3,9,8,2,0
18875,-2,-8,1,0,3,-4,-5,3,0
18880,1,13,3,3,-1,9,-1,0,0
18885,1,-1,-1,-1,-3,-6,4,5,0
18890,3,4,-3,0,-3,3,-9,3,0
18895,-2,4,0,0,0,6,7,-12,0
18900,3,-4,1,-2,-3,-9,-4,7,0
18905,-2,1,-1,3,3,3,-1,11,0
18910,-2,-4,-1,2,-1,-1,-2,0,0
18915,3,0,-2,-3,-2,-2,-3,-4,0
18920,2,-1,1,5,-1,-7,-3,-1,0
18925,-3,-4,0,-5,2,-1,-5,-1,0
18930,-1,-1,-2,-1,-1,7,8,3,0
18935,-1,-2,-3,-2,-4,-5,-8,3,0
18940,-2,-4,-2,0,0,4,2,-4,0
18945,-2,0,-1,2,-1,0,-8,-7,0
18950,-1,0,-1,2,2,1,1,2,0
18955,-2,1,-4,-1,1,-2,9,-4,0
18960,-3,-4,0,-1,0,1,-2,12,0
18965,-2,-1,-1,0,-1,0,-7,-4,0
18970,0,2,0,-2,-3,-16,1,-1,0
18975,-1,-4,-1,1,2,16,-4,0,0
18980,1,-1,-2,-2,1,7,13,-2,0
18985,-1,-2,-3,-1,-2,-12,-2,-1,0
18990,1,-1,2,3,3,4,5,3,0
18995,-4,0,1,1,0,-2,-14,3,0
19000,-1,-3,-4,-2,-1,3,8,-5,0
19005,-2,-1,-1,-2,-1,-10,-8,1,0
19010,-2,0,10,-1,-2,-23,-6,-4,0
19015,2,2,-10,-4,0,10,-2,1,0
19020,-2,-2,-6,-6,-4,-1,-10,-4,0
19025,0,0,2,5,5,-2,8,1,0
19030,-1,-16,13,1,-9,9,-6,-6,0
19035,2,15,-24,-2,1,7,8,1,0
19040,-6,-1,-8,-9,-1,0,-9,1,0
19045,-1,-5,-5,0,-1,2,-1,0,0
19050,5,5,4,2,3,-1,1,0,0
19055,1,-4,15,3,0,3,6,0,0
19060,-3,0,0,0,0,-5,-4,-5,0
19065,2,-1,1,-3,-1,0,2,1,0
19070,0,3,-5,-1,4,4,7,2,0
19075,-3,-5,6,0,-3,-6,-12,-2,0
19080,-1,0,0,2,2,2,17,0,0
19085,-5,-4,2,0,-1,9,-11,-3,0
19090,-1,2,-6,-1,0,15,10,5,0
19095,-1,1,0,5,2,-12,-2,1,0
19100,-2,-4,6,1,3,-4,-7,-1,0
19105,-1,-2,-9,-11,-15,-7,-6,-2,0
19110,-2,-2,-11,-7,-9,-12,-5,-1,0
19115,-1,-4,1,-2,-4,-23,-3,2,0
19120,1,-1,4,3,0,8,-8,-6,0
19125,2,3,4,8,11,13,13,2,0
19130,0,2,-4,-4,1,-4,-9,1,0
19135,0,-4,1,-3,-2,16,12,2,0
19140,-2,-3,0,0,-3,-8,-8,-2,0
19145,2,3,1,-3,4,4,-2,1,0
19150,-4,-1,-2,10,6,0,-9,-7,0
19155,1,0,3,4,7,-7,3,1,0
19160,-1,-3,-10,-16,-19,-5,-5,-4,0
19165,-1,-3,-2,4,-5,-3,-1,-3,0
19170,-2,0,-4,-16,-2,8,7,3,0
19175,-2,-2,1,-3,-9,-15,-16,-3,0
19180,2,2,3,9,18,22,6,0,0
19185,-1,-2,1,-4,-2,-13,-2,-2,0
19190,0,-2,-2,11,5,-7,-5,-1,0
19195,-3,-1,-2,0,8,2,-8,-1,0
19200,0,-2,-2,-6,-10,5,17,0,0
19205,-1,0,0,-3,-8,2,-2,0,0
19210,-2,-1,-3,-2,-1,4,14,2,0
19215,-3,-4,-6,-3,-4,6,5,-5,0
19220,2,1,6,8,6,-43,-30,3,0
19225,0,-1,10,2,6,26,26,0,0
19230,-2,1,-3,-5,3,19,-13,-4,0
19235,-1,-3,-10,4,0,-23,-4,1,0
19240,-1,-3,-6,2,0,27,16,0,0
19245,2,-2,-4,-5,-4,-13,-2,1,0
19250,1,1,1,-5,-11,-16,-2,-4,0
19255,-3,-1,7,1,-1,-2,-4,-1,0
19260,0,1,10,0,-1,-15,-12,-4,0
19265,-1,0,-10,-4,-2,0,2,2,0
19270,-3,-6,-6,0,4,0,-2,0,0
19275,4,0,-14,-3,1,13,8,1,0
19280,-4,3,10,1,-7,-15,-5,1,0
19285,-2,-1,-4,0,-1,-15,-27,-6,0
19290,0,0,6,1,-4,14,28,4,0
19295,-2,-2,11,-2,0,-19,-2,-3,0
19300,2,2,-12,-1,3,38,2,1,0
19305,-2,-1,3,-6,2,-13,-7,2,0
19310,-2,-9,-5,2,-2,5,9,-4,0
19315,-1,-4,4,3,0,-8,-7,-3,0
19320,-2,-5,-7,0,4,6,11,-7,0
19325,-2,0,4,0,-6,3,-5,-2,0
19330,-3,1,-2,-4,-4,5,17,-9,0
19335,-2,-3,-3,-2,-2,-12,-16,-3,0
19340,1,-1,-8,-6,-6,2,7,-4,0
19345,2,0,7,3,5,-12,-16,0,0
19350,-5,-2,0,4,6,6,1,-2,0
19355,-4,0,-3,-1,11,9,-6,7,0
19360,1,-1,-3,6,-3,-14,0,4,0
19365,-8,-1,3,1,-6,14,14,-3,0
19370,2,-1,-3,-6,-5,-15,-16,1,0
19375,0,1,2,1,5,9,-3,-7,0
19380,-3,-1,-2,-2,2,-1,-8,-4,0
19385,0,0,2,1,7,0,2,-4,0
19390,-1,-4,-4,0,-2,10,6,2,0
19395,5,-1,2,0,-5,-23,-10,-1,0
19400,-4,-3,-3,-4,-2,24,11,2,0
19405,-2,1,-2,-3,-12,-14,-21,-7,0
19410,-2,1,0,-5,-4,-2,7,-2,0
19415,2,1,-2,-4,-8,-9,-5,-2,0
19420,-2,1,-5,-4,-2,-2,-4,0,0
19425,-2,-2,2,3,6,3,-4,0,0
19430,-1,0,-1,-1,-2,4,11,2,0
19435,0,-1,-4,-3,-7,-15,-4,-1,0
19440,1,4,4,9,14,0,8,6,0
19445,0,-3,-2,-4,-6,-22,-14,-1,0
19450,-5,-4,-6,-15,-14,15,4,-8,0
19455,4,0,3,5,-1,-29,-14,8,0
19460,-1,-2,2,0,-3,-27,-7,-4,0
19465,0,1,1,0,-1,11,0,0,0
19470,2,1,0,8,11,-2,-3,3,0
19475,0,1,-1,0,0,16,3,-1,0
19480,-2,-3,-2,1,-3,-5,21,3,0
19485,-2,-4,-2,-5,-2,12,-9,-2,0
19490,-5,-4,-3,-11,-7,22,2,-2,0
19495,2,1,-2,5,5,-1,5,-1,0
19500,-1,2,0,-1,0,6,7,-2,0
19505,-2,-4,-4,-8,-5,-17,-8,-4,0
19510,-5,-2,2,4,3,-5,-12,-9,0
19515,2,2,1,3,5,24,11,5,0
19520,2,1,-1,-3,-7,-22,-27,-5,0
19525,0,0,0,0,2,-8,0,-9,0
19530,-3,-3,-2,-1,-1,-8,-18,1,0
19535,3,1,1,-3,1,10,15,14,0
19540,-2,-2,-2,5,-4,6,22,-5,0
19545,-8,-2,-1,1,1,3,-2,4,0
19550,5,1,3,1,2,-9,-38,-7,0
19555,0,1,-2,0,0,-4,-6,7,0
19560,2,0,-3,-6,-4,1,4,3,0
19565,-5,-2,-2,-4,-5,-5,17,-12,0
19570,-8,-1,-2,1,4,8,40,4,0
19575,15,1,0,1,-3,-4,-7,-6,0
19580,0,0,0,1,4,-2,-11,9,0
19585,0,-1,1,0,-4,2,-6,3,0
19590,-1,-2,0,1,5,0,12,2,0
19595,-9,-2,-2,-5,6,-1,2,-12,0
19600,-3,-1,-3,-1,-6,-9,-9,-6,0
19605,3,0,-1,-4,1,25,5,7,0
19610,-3,-1,1,1,-5,-5,0,-5,0
19615,-7,-1,0,3,-2,-10,-21,-8,0
19620,3,1,2,0,8,5,7,1,0
19625,0,0,2,7,3,-7,-4,3,0
19630,-1,-1,-5,-10,-9,-6,-10,-3,0
19635,-8,-10,-4,-4,-9,-4,6,-1,0
19640,0,0,0,-1,-3,0,7,-5,0
19645,-1,-4,-3,-1,-3,2,-2,-5,0
19650,-1,1,3,10,5,4,7,-2,0
19655,0,-1,-5,-4,2,1,-5,-2,0
19660,-2,-3,0,12,-10,-14,-10,-2,0
19665,0,2,-7,-18,-9,-5,1,0,0
19670,-4,-9,-8,-13,-9,17,6,-1,0
19675,0,1,3,4,15,-30,-22,-4,0
19680,-2,-1,-5,-11,-19,9,6,-2,0
19685,3,2,3,8,-4,-7,6,3,0
19690,-2,3,2,2,3,-3,-2,-4,0
19695,2,1,5,4,4,9,-10,1,0
19700,4,3,1,-3,11,-2,8,8,0
19705,2,-3,-1,2,2,-1,11,3,0
19710,1,6,-1,1,-3,-13,-18,-4,0
19715,-1,-10,-6,-3,-6,6,14,-3,0
19720,-4,10,4,2,5,6,-10,-6,0
19725,0,-4,-3,-7,-6,-4,-6,-9,0
19730,-1,4,6,7,7,0,-5,2,0
19735,-5,-9,-8,0,-7,-6,3,-3,0
19740,0,-10,-5,-2,-6,-1,-4,2,0
19745,-3,-1,-2,-5,-2,1,-2,-2,0
19750,1,-2,1,-1,3,-6,-9,-1,0
19755,2,8,5,-1,-1,2,-10,2,0
19760,-2,-3,-1,0,4,-2,-2,-3,0
19765,-4,-6,-6,-4,-3,0,-4,-4,0
19770,1,-2,-2,-4,-2,0,18,4,0
19775,-2,5,2,0,-3,2,-4,-7,0
19780,-2,0,-1,4,5,3,-9,1,0
19785,1,0,2,-1,-1,5,13,10,0
19790,2,0,-1,-1,-2,-8,-21,-1,0
19795,0,-2,-1,1,-2,0,29,2,0
19800,-1,-2,-5,-4,2,3,-33,-8,0
19805,-2,0,0,1,-6,-9,25,-5,0
19810,1,-1,-2,1,5,5,19,13,0
19815,-6,-1,1,-1,-8,-7,-20,-10,0
19820,-3,-3,-3,-9,-11,4,-1,-10,0
19825,-1,-1,-1,1,6,-2,-15,-17,0
19830,3,0,2,1,8,4,-6,15,0
19835,2,0,1,2,3,-2,-5,-8,0
19840,-7,-6,-3,-4,-5,-5,-11,-12,0
19845,0,1,-1,-3,-3,-6,-35,3,0
19850,5,0,0,3,2,22,85,31,0
19855,2,4,2,6,16,12,-15,13,0
19860,-1,1,3,3,2,-4,-15,-7,0
19865,2,1,-3,-1,-5,-5,13,4,0
19870,-4,-4,0,2,4,-1,-36,-15,0
19875,2,1,1,-1,-1,0,3,10,0
19880,1,2,3,5,7,4,56,4,0
19885,-2,-1,0,2,4,7,0,-3,0
19890,0,-1,-6,-8,-10,-2,4,-17,0
19895,-7,-3,-2,-1,-6,-3,-28,-12,0
19900,8,5,4,-5,7,14,58,24,0
19905,-2,-1,1,18,15,3,-18,2,0
19910,-5,-1,-2,-7,-16,-8,18,2,0
19915,3,-1,-5,-10,-5,4,41,11,0
19920,2,0,1,1,-1,-7,-36,12,0
19925,6,4,3,4,10,18,14,16,0
19930,-2,-2,-3,-10,-3,-5,-11,-14,0
19935,0,-1,4,11,6,5,20,9,0
19940,-4,-3,-6,-7,-8,-9,-14,-10,0
19945,-6,-1,-2,-8,-8,-12,-47,-19,0
19950,3,2,2,3,3,0,-3,14,0
19955,-1,-1,-7,-5,-2,-2,6,-6,0
19960,-1,1,1,6,6,5,4,-9,0
19965,-2,0,0,1,-3,-4,-11,-7,0
19970,-4,-3,-3,1,2,6,-9,4,0
19975,0,0,-3,-12,-9,-16,-14,5,0
19980,2,1,3,5,4,2,1,6,0
19985,-8,-5,-2,1,-1,-4,-2,-3,0
19990,5,0,2,4,-1,-1,-6,-9,0
19995,-4,-2,0,8,0,3,6,1,0
20000,-2,-1,-5,-15,-3,-5,-3,-11,0
20005,-3,-1,1,-9,-4,2,-4,-1,0
20010,-1,0,0,4,-2,-4,-15,-6,0
20015,-1,-4,-1,1,1,1,1,-2,0
20020,-1,-1,0,1,3,-2,-14,1,0
20025,4,2,3,-3,-4,6,28,6,0
20030,-4,2,-3,-1,0,-6,-9,-7,0
20035,0,0,3,-1,2,-1,-15,-10,0
20040,-6,-6,-5,-8,-3,-3,7,3,0
20045,1,-2,-6,-1,-5,-2,14,4,0
20050,-1,-1,4,15,4,-5,-8,-7,0
20055,0,5,5,-2,3,1,-10,0,0
20060,-1,-4,-6,-6,-4,-2,10,0,0
20065,-1,0,1,-1,3,-2,-4,-3,0
20070,-2,-5,-3,-8,-11,-4,-8,-3,0
20075,-3,1,0,1,-4,0,-3,-1,0
20080,-1,-2,-7,3,-10,-6,0,-3,0
20085,-3,-3,-3,-11,-4,-2,-1,-4,0
20090,0,0,-3,-4,-5,-4,-6,-1,0
20095,-1,0,-1,9,3,2,1,-2,0
20100,-1,1,0,-5,14,-2,-2,0,0
20105,1,-1,1,0,-6,0,-3,1,0
20110,-1,0,-2,1,13,0,-4,-3,0
20115,1,-2,1,-3,-21,-2,1,-1,0
20120,-2,1,-1,-3,5,-1,0,-2,0
20125,-4,-3,-9,-5,-3,-2,-3,-3,0
20130,-1,-1,-2,3,3,-3,-2,-1,0
20135,-1,2,1,5,6,3,3,3,0
20140,0,-1,4,0,-7,-4,-4,-2,0
20145,2,0,0,0,4,-2,0,0,0
20150,1,0,1,4,-6,1,1,0,0
20155,-3,0,-1,-2,3,-2,-2,0,0
20160,-2,-1,-2,-4,-5,0,-1,-4,0
20165,-3,0,1,1,3,-1,-2,-4,0
20170,4,0,3,1,-2,-1,1,10,0
20175,-1,-1,-3,-5,-3,0,-4,-4,0
20180,-3,-3,-2,-3,2,-2,-5,-1,0
20185,1,-1,-1,2,1,3,12,-1,0
20190,-4,-1,-2,-2,-4,-1,-1,-8,0
20195,-2,1,-3,-2,0,-2,5,4,0
20200,-1,0,0,2,0,-1,-1,-1,0
