Timestamp, Rotation x, Rotation y, Rotation z, Marker
50,24.5625,-9.5,11.3125,0
70,50.5,5.3125,23.5,0
90,30.4375,15.4375,19.75,0
110,-6.5625,10.1875,0.9375,0
130,-37.1875,-2.5625,6.125,0
150,-31.375,7.125,9.125,0
170,23.9375,12.3125,-21.5,0
190,44.625,24.125,-8.6875,0
190,-17.0625,-23.4375,17.875,0
220,-69.3125,-57.0625,-17.625,0
240,-57,-28.5625,-5.8125,0
250,52.6875,-24.5625,0.875,0
260,88.125,-25.5625,-11.375,0
280,50.375,-23.125,-3.5,0
300,3.5625,-2.0625,8.6875,0
320,-26.25,22.1875,7.5,0
340,-35.375,33.1875,10.25,0
360,-16.3125,31,9.5,0
380,-11.8125,35.5625,21.5625,0
400,16,43,13.5,0
420,-5.125,38.125,42.25,0
440,-55.9375,-20.75,-5.4375,0
460,-84.875,-48.1875,-34.1875,0
480,-11.75,-25.4375,-5,0
500,72.4375,-19.9375,-3.9375,0
520,65.5625,-18.9375,-11.375,0
540,21.6875,-30.125,-8.8125,0
560,-16.875,-27.9375,-10,0
580,-6.1875,-6.75,9.375,0
600,15.8125,20.375,23.5625,0
620,19.25,33.125,8.125,0
640,6.125,39.375,10.375,0
660,19.4375,47.9375,28.625,0
680,-0.8125,65.625,28.8125,0
700,-39.1875,-17.375,-16.25,0
720,63.75,-15,-11.3125,0
740,51.5,-20.8125,-5.4375,0
760,-6.1875,-30.375,-1.3125,0
780,-54.3125,-35.6875,-15.9375,0
800,-45.75,-28.5,-26.375,0
820,-6.375,-20,-14.25,0
840,38.875,-16.1875,-2.1875,0
860,43.8125,-5.6875,5.6875,0
880,18.75,0.9375,5.6875,0
900,-5.5,4.875,8.5625,0
920,8.9375,12.5625,27.125,0
920,0.25,41.375,17.5625,0
940,4.625,52.0625,23.6875,0
960,24.625,45.0625,-4.6875,0
980,-23.375,-8.875,-3.0625,0
1000,-52.375,-63.8125,-39.6875,0
1020,-52.25,-50.5,-21.625,0
1040,25.5625,-37.1875,-28.6875,0
1060,33.0625,-26.25,-30.125,0
1080,6.5,-33.4375,-27.6875,0
1100,-12.625,-36.8125,-31.875,0
1120,-3.875,-29.8125,-32.1875,0
1140,10.5625,-23.375,-22.5625,0
1160,16.4375,-20.0625,-13.75,0
1180,10.125,-11.25,-3.5625,0
1200,2.75,7.0625,7.5,0
1220,10.25,18.4375,20.625,0
1240,15.75,31.9375,33.125,0
1260,15,45.0625,43.9375,0
1280,-1.875,62.6875,42.375,0
1300,-52.625,70.1875,48.125,0
1320,-27.9375,75.4375,84,0
1340,-20.125,71.0625,48.5,0
1360,2.8125,-11.875,-45.875,0
1380,-64.875,-37.875,-37.75,0
1400,38.1875,2.875,-6.9375,0
1430,-61,-28,18.5,0
1450,-75.75,-44.625,-22.6875,0
1470,-46,-39.8125,-37,0
1490,28.75,-25.75,-28.5625,0
1510,74.1875,-23.3125,-23.8125,0
1530,65.125,-26.3125,-21.5,0
1550,30.4375,-28.9375,-25.1875,0
1570,-2.375,-27.0625,-24.9375,0
1590,-2.3125,-20.25,-16.375,0
1610,17.375,-8.0625,2,0
1630,33.0625,13.4375,24.3125,0
1650,36.3125,33.8125,36.375,0
1670,-19.0625,46.625,17.9375,0
1680,-23.625,55.75,61.6875,0
1700,68.8125,57.5625,46.625,0
1720,19.5625,54.9375,44.5,0
1740,-18.75,-37.75,-22.6875,0
1760,-100.75,-40.9375,-21.125,0
1780,22.4375,-2.875,-5.5,0
1800,57.75,4.6875,-2.25,0
1820,24.125,-5.625,5.3125,0
1840,-19.9375,-13.9375,-3.375,0
1860,-39.8125,-24.5,-32.8125,0
1880,-26.875,-34.75,-35.9375,0
1900,9.8125,-37.625,-35.0625,0
1920,48.0625,-39.0625,-42.6875,0
1950,38.8125,-40.3125,-36.4375,0
1970,17.1875,-34.25,-30.3125,0
1990,10.0625,-25.1875,-23.0625,0
2010,9.5,-12.4375,-11.8125,0
2030,15.75,6.75,4.9375,0
2050,22.6875,31.25,28.875,0
2070,27.3125,59.6875,45.75,0
2090,-8.5625,79.9375,47.9375,0
2110,-61.375,87.375,55.5625,0
2130,-94.0625,94.8125,86.375,0
2150,-77.5625,105,108.062,0
2170,-9.5625,60.9375,31.25,0
2190,-1.1875,-29.1875,-47.75,0
2220,29.9375,-37.1875,-16.875,0
2240,93.0625,2.625,-15.5625,0
2260,72.6875,31.3125,5,0
2280,10.6875,40.1875,20.8125,0
2320,-56.3125,30.4375,-4.25,0
2340,-27.625,21.3125,-5.5,0
2360,23.6875,11.6875,-6.1875,0
2380,57.1875,3,-15.375,0
2390,54.0625,-1.375,-20.375,0
2420,23,-4.5625,-9,0
2430,-27.5625,-0.0625,12.375,0
2430,-7.5625,12.75,3.3125,0
2450,9.75,14.1875,-6.25,0
2470,19.5625,6.9375,-8.5,0
2490,15.125,-1.1875,-3.625,0
2510,-0.8125,-6.8125,4.625,0
2530,-18.5625,-7.5,6.3125,0
2550,-27.375,-6.25,3.125,0
2570,-22.5,-1.9375,1.3125,0
2590,-13.625,1.5625,-0.125,0
2610,-30.6875,-1.1875,10.0625,0
2630,-40,-5.3125,34.6875,0
2670,12.5625,-6.3125,-16.875,0
2690,14.4375,-14.375,-3.125,0
2710,-4.25,-12.375,-0.3125,0
2730,-25,-8.6875,7.3125,0
2750,9.25,5.5,5.875,0
2770,60.0625,15.4375,-20,0
2790,4,3.9375,-3.4375,0
2810,-45.5,-22.4375,2.5625,0
2830,-53,-6.6875,10.5,0
2850,-5.6875,4.75,12.4375,0
2870,16.5625,13.0625,13.9375,0
2890,4.0625,15.625,13.6875,0
2910,-18.3125,13.875,-1.0625,0
2930,-12.0625,8.9375,-8.5,0
2950,-5.75,5.875,-5.375,0
2970,12.875,0.9375,-2,0
2990,5.375,-7,-6.0625,0
3010,-7.25,-14.4375,-1.4375,0
3030,-9.375,-13.6875,-3.5625,0
3050,-10.6875,-5.6875,1.6875,0
3070,25.5,4.3125,-1.6875,0
3090,91.875,14.3125,-31.5,0
3110,58.1875,22.6875,-15.875,0
3130,-14.375,-1.625,-10.3125,0
3150,-57.8125,-14.875,0.125,0
3170,-52.625,-3.125,16.1875,0
3180,3.8125,2.75,10.75,0
3200,-10.125,-8.75,2.6875,0
3220,-8.375,-10.0625,-2.25,0
3240,7.3125,-4.5625,-1,0
3260,14.9375,-1.3125,-3.4375,0
3280,8.6875,-1.5,-2.5,0
3300,-5.25,-4.3125,2.8125,0
3320,-8.4375,-3.9375,8.5,0
3340,-0.5,2.0625,7.875,0
3360,4.0625,3.9375,2.5,0
3380,3.75,-0.375,-4.9375,0
3400,3.5625,-5.625,-10.5,0
3430,-12.625,-10.5625,-0.875,0
3450,-8.3125,-8.3125,-0.9375,0
3470,46.625,4.75,-26.375,0
3490,28.125,18.6875,-7.4375,0
3510,3.5,-8.6875,-11,0
3530,-35.625,-7.6875,-4.75,0
3550,-3.75,3.5,3.125,0
3570,16.8125,17.3125,2.5,0
3590,25.25,20.1875,7.9375,0
3610,12.5625,13.125,5.125,0
3640,-12.5,-2.3125,21.125,0
3660,-10.25,11.1875,11.75,0
3680,-11.75,20.5625,0.25,0
3700,-9,15.125,-8.875,0
3720,19.375,-0.3125,-11.4375,0
3740,13.3125,-19.3125,-14.5625,0
3760,-7.125,-24.5625,-1.1875,0
3780,-27.8125,-13.875,3.6875,0
3800,-13.3125,-3.6875,17.6875,0
3820,36.0625,15.4375,1.375,0
3840,47.375,35.25,-13.6875,0
3860,-16.6875,-1.25,-0.9375,0
3890,10.0625,17.9375,15.25,0
3910,35.625,17.9375,-4.3125,0
3930,12.8125,1.4375,-12.5,0
3950,-5.0625,-8.625,-7.4375,0
3970,-9.375,-11.5625,-2.0625,0
3990,-12.875,-13.0625,5.1875,0
4010,-10.625,-4.375,7.125,0
4030,23.25,4.6875,-6.9375,0
4050,51.125,18.0625,-20,0
4070,-4.6875,-3.9375,-1.9375,0
4090,-43.6875,-21.25,-8.3125,0
4110,-29.375,-3.375,12.6875,0
4130,9.3125,10.375,13.875,0
4160,4.75,10.625,9.625,0
4180,-20.0625,8.3125,-3.1875,0
4200,-22.3125,3.75,-5.8125,0
4220,-5.375,-3.5,-5.5625,0
4240,7.5,-11.9375,-9.5625,0
4260,20.4375,-11.5625,-6.4375,0
4280,21.375,-6.25,-1.75,0
4300,21.1875,-1.4375,-0.9375,0
4320,6,-1,4,0
4340,-5.875,-0.625,1.875,0
4360,-1.5625,-3.6875,-3.1875,0
4380,51.8125,7.5625,-16.4375,0
4400,-41.8125,-27.75,-10.6875,0
4420,-40.8125,-18.25,9.625,0
4440,4.625,-1.5,16,0
4460,23.5625,9,19.125,0
4480,2.0625,6.6875,15.5625,0
4500,-25.125,-1.5625,0.375,0
4520,-23.375,-6.5,-4.1875,0
4540,-4.4375,-5.375,-5.0625,0
4560,16.9375,-2.9375,-10.9375,0
4580,19.75,1.25,-9.125,0
4600,12.5625,3,1.125,0
4620,1,-0.4375,5.5625,0
4650,33.875,16.5,-0.5,0
4670,36,23.0625,-24.3125,0
4690,15.5,4.8125,-10.3125,0
4710,-13.5,3.4375,-10.625,0
4730,-14.9375,13.5625,-0.5,0
4750,3.875,17.875,-0.75,0
4770,2.25,8.8125,11.4375,0
4790,-8.5625,-11.625,13.3125,0
4810,-13.5,-18.5,7.25,0
4830,-1.0625,-3.375,3.75,0
4850,9.6875,6.875,-0.1875,0
4870,9.5,5.125,-2.875,0
4890,-17.5625,-13.0625,6.75,0
4910,-20.5,-5.9375,10.1875,0
4930,-20,-0.1875,4.625,0
4950,-21.4375,6.125,-5.5625,0
4970,-13.4375,2.3125,-7.375,0
4990,-5.625,-8.8125,-5.375,0
5010,-8.625,-14.6875,1.5,0
5030,-18.8125,-10.1875,5,0
5050,-13.6875,-4.6875,4.5625,0
5070,2.0625,0.125,4.4375,0
5090,12.4375,0.9375,1.75,0
5110,5.375,0.25,-1.5625,0
5140,-0.25,-3.3125,1.9375,0
5160,-1.75,-11.3125,0.125,0
5180,-17.3125,-12.6875,-3.75,0
5200,-11,-15.0625,-5.6875,0
5220,27.1875,1.4375,2.1875,0
5240,53.125,33.375,-2.75,0
5260,-8.125,7.5625,-4.75,0
5280,-87.6875,-8.0625,-24.5,0
5300,-63.4375,2.3125,4.125,0
5310,-7.5625,23.6875,-2.3125,0
5330,23.8125,22.0625,3.9375,0
5350,-19.3125,-15.5,9.6875,0
5370,2.8125,-2,8.9375,0
5390,16.375,5.3125,-0.9375,0
5410,15.5,3.6875,-4.625,0
5430,11.8125,3.5625,-5.0625,0
5450,11.375,0.0625,-6.1875,0
5470,9.4375,-4.75,-4.5625,0
5490,0.625,-8.9375,-0.5,0
5510,-4.6875,-9.4375,4.875,0
5530,-10.625,-5.0625,7.3125,0
5550,-16.5625,1.75,6.5625,0
5570,-13.625,11.5625,4.1875,0
5590,2.625,15,-1.8125,0
5610,-4.5,-0.75,-12.25,0
5630,-11.6875,-17.9375,-10.1875,0
5650,-18.8125,-16.3125,3.125,0
5670,-13,-13,7.25,0
5690,-21.25,-12.8125,9.3125,0
5710,-0.0625,-3.5625,9.6875,0
5730,63.6875,8.6875,-7.4375,0
5750,52.5,20.125,-18.625,0
5770,-14.1875,-9.1875,-2,0
5790,-65.1875,-9.875,-0.625,0
5810,-32.9375,2.4375,17.4375,0
5830,9.625,14.5,20.125,0
5850,19.3125,16.8125,16.625,0
5870,2.6875,16,6.3125,0
5890,-11.9375,15.6875,-5.0625,0
5910,-8.5625,8.25,-8.9375,0
5930,-7.25,-4.375,-8.25,0
5950,5.0625,-11.3125,-3.5,0
5970,10.6875,-11.0625,-2.1875,0
5990,11.5,-4.125,-0.125,0
6010,17.5625,-1,-0.9375,0
6030,9.75,-1.6875,-0.3125,0
6050,-5.4375,-0.875,2.875,0
6070,-5.1875,-6.1875,0.5,0
6090,-10.375,-2.3125,-3.3125,0
6110,5.125,-3.5625,-4.8125,0
6130,47.3125,-3.4375,-12.1875,0
6150,47.6875,13.75,1.3125,0
6170,-39.5625,-13.125,-1.75,0
6190,-89.25,-28.9375,-11.625,0
6210,-59.625,-11.25,12.375,0
6230,3.8125,10.8125,6.0625,0
6250,34.625,17.8125,9.1875,0
6270,17.1875,11.125,7.375,0
6290,-12.0625,-3.125,-1.75,0
6310,-20.625,-15.8125,-3.6875,0
6330,-5.4375,-16.9375,-0.5625,0
6350,23.875,-4.8125,0.5,0
6370,31.875,7.5,-2,0
6390,15.25,7.4375,-3.875,0
6410,-4.75,-0.0625,-4.4375,0
6430,-8.0625,-7.5,-5.0625,0
6450,-1.8125,-10,-4.875,0
6470,2.5,-8.8125,-1.25,0
6490,-2.8125,-6.4375,1.625,0
6510,-12.5625,-5.0625,3.875,0
6530,-13.6875,-1.75,6.1875,0
6550,-13,-2.75,9.8125,0
6570,-13.3125,-2.6875,10.5,0
6590,-11.375,-1.125,6.25,0
6610,-2.8125,5,-2.9375,0
6630,4.125,4.625,-11.25,0
6650,11.875,2.4375,-5.5,0
6670,13.3125,-2.3125,-3.25,0
6690,-2.8125,-11.6875,-8.5,0
6710,-6.125,-13.5,-5.375,0
6730,-8.875,-8.1875,3,0
6750,15.25,3.9375,10.1875,0
6770,63.875,9.625,1.75,0
6790,40.75,19,-16,0
6810,-2.875,-4.625,-2.4375,0
6830,-47.6875,-4.5,-6.75,0
6850,-16.125,2.5625,8.1875,0
6870,16.9375,13.125,5.375,0
6890,27.25,17.8125,7.125,0
6910,10.125,15.375,2.0625,0
6930,-13.0625,8,-4.3125,0
6950,-19,-3.5625,-1.9375,0
6970,-10,-11.0625,-0.9375,0
7020,-2.6875,5.0625,-1.8125,0
7040,-11.9375,-0.1875,0.125,0
7060,-15.4375,-2.6875,3.6875,0
7080,-10.25,-5.3125,3.1875,0
7100,-4.25,2.625,-4.25,0
7120,1.5,3.875,-12.75,0
7140,-6.375,-4.5,-9.875,0
7160,-10.9375,-10.9375,-5.625,0
7180,-9.1875,-13.875,-2.3125,0
7200,-10.9375,-11.625,1.1875,0
7220,-0.1875,-8.4375,2.4375,0
7240,8.6875,-4.3125,0.25,0
7260,15,1.125,-1,0
7280,16.875,4.25,-4.75,0
7300,18.75,-1.125,-7.125,0
7320,15.125,-7.6875,-4.5625,0
7340,1.875,-12.875,-5.4375,0
7360,-18.1875,-19.125,-0.875,0
7380,-20.625,-20.25,-0.4375,0
7400,20.9375,-6.25,4.3125,0
7420,57,28.375,-11.625,0
7440,6.25,6.5625,0.125,0
7460,-43,-10.75,-8.8125,0
7480,-20.0625,4.1875,6.0625,0
7500,23.375,20.6875,10.6875,0
7520,43.75,39.3125,8,0
7540,11.5625,36.25,-12.6875,0
7560,-16.3125,7.5,-18.1875,0
7580,-23.6875,-26.375,-6.5625,0
7600,-17.5,-39.0625,3.4375,0
7620,18.0625,-18.75,8.75,0
7640,44.75,13.625,6.75,0
7660,33.8125,30,0.875,0
7680,-1.25,20.0625,-10.375,0
7700,-15.0625,-4.75,-13.5625,0
7720,4.1875,-17.25,-9.9375,0
7740,19.0625,-10.6875,-3.6875,0
7760,20.3125,-0.625,2.1875,0
7780,11.9375,4.9375,2.9375,0
7810,-6.0625,7.6875,2.9375,0
7830,-5.9375,5.6875,3.5,0
7850,-5.0625,2.3125,3.375,0
7870,-4.3125,-0.0625,0.875,0
7890,-1.9375,-0.6875,-1.5,0
7910,2.625,0.3125,-1.9375,0
7930,6.375,1.9375,-0.9375,0
7950,7.5625,3.125,-1.0625,0
7970,5.5625,1.9375,-2.3125,0
7990,2.9375,0.5625,-2.875,0
8010,2.6875,1.0625,-2.8125,0
8040,6.5,2.8125,-1.875,0
8060,6.8125,3.0625,-0.625,0
8070,4,2.8125,0.375,0
8100,0.625,1.875,0.6875,0
8120,-2.6875,1.1875,1,0
8140,-2.125,0.875,0.875,0
8160,0.875,1.0625,0.5625,0
8170,3.375,0.6875,0.1875,0
8190,4.125,0.1875,-0.625,0
8210,3.4375,-0.25,-1.3125,0
8230,2.5625,-0.1875,-2.1875,0
8250,2.75,0.0625,-2,0
8270,3.125,0.3125,-1.5,0
8290,3.125,0.625,-0.625,0
8310,2.125,1.125,-0.3125,0
8330,1.3125,1.125,0,0
8350,0.8125,0.75,0.1875,0
8370,0.75,0.25,0.125,0
8390,0.125,1.25,0.875,0
8410,0.1875,0.375,0.25,0
8430,0.6875,0.125,0.0625,0
8450,3.5625,-0.0625,0.8125,0
8470,4.4375,0.125,0.5625,0
8490,2.5,0.125,0.625,0
8510,-0.25,0.75,0.125,0
8530,-2.125,1.4375,-0.375,0
8550,-2,1.25,-0.75,0
8570,-0.6875,1.125,-0.625,0
8590,0.625,1.4375,-1,0
8610,0.75,1.625,-1.0625,0
8630,-0.1875,1.5625,-0.8125,0
8650,-0.5,1.0625,-0.1875,0
8670,0.4375,0.25,-0.1875,0
8690,0.75,-0.25,-0.25,0
8710,1.375,0.0625,-0.4375,0
8730,1.5625,-0.6875,0,0
8750,-0.125,-0.75,0.4375,0
8770,-0.875,-0.25,0.3125,0
8790,-0.9375,0.0625,-0.3125,0
8810,0.625,-0.1875,-0.5625,0
8830,2.125,-0.0625,-0.8125,0
8850,2.125,0.25,-0.875,0
8870,1.375,0.5625,-0.75,0
8890,0.125,1,-0.4375,0
8910,-0.5625,1.125,-0.125,0
8930,-0.5625,0.6875,0.1875,0
8950,-0.375,0.25,0.5,0
8970,0.0625,0,0.4375,0
8990,0.5,0,0.375,0
9010,0.125,-0.25,0.375,0
9030,-1.0625,0,0.8125,0
9050,-2.5625,0.0625,1.375,0
9070,-2.1875,-0.25,1.0625,0
9090,-1.0625,-0.0625,0.5,0
9110,1.5625,0.375,0,0
9130,2.0625,0.4375,0,0
9150,1.375,0.625,0.1875,0
9170,0.125,0.5625,0.3125,0
9190,-0.0625,0.125,0.75,0
9210,-0.3125,0.5,0.875,0
9230,-0.25,1.1875,0.8125,0
9250,-0.875,1.1875,0.8125,0
9270,-2.75,1.4375,2.3125,0
9290,-3.75,-0.0625,0.6875,0
9310,-1.25,0.25,-0.0625,0
9330,1,1.0625,1.125,0
9350,1.25,0.1875,0.875,0
9370,-0.25,0.375,0.3125,0
9390,-1.625,0.75,0.3125,0
9410,-0.625,1.1875,0.875,0
9440,4.125,-0.5,0.25,0
9460,4.9375,-1.5625,0.25,0
9480,4.6875,-2.375,0.875,0
9500,5.1875,-2.4375,1.875,0
9510,5,-2.75,3.25,0
9530,3.25,-2,4,0
9540,-0.5,-0.25,4.8125,0
9560,-4.625,1.625,5.1875,0
9580,-7.6875,3.5625,5.5625,0
9600,-10.25,5,5.1875,0
9620,-13.4375,5.75,4.3125,0
9640,-11.375,4.625,3.3125,0
9660,-7.125,5.75,2.25,0
9680,-3.125,6,1.1875,0
9690,-0.0625,5.5,0.75,0
9710,1.4375,5.9375,0.75,0
9730,-3,4.25,0.0625,0
9750,1.1875,3.5,0.5625,0
9770,2.3125,4.1875,1.4375,0
9790,2.75,3.5,2.0625,0
9810,2.9375,3.25,2.5625,0
9830,-0.75,3.625,2.1875,0
9850,-5.125,3.6875,2.375,0
9890,-3.5,2.3125,4.375,0
9910,-3.1875,2.0625,4.8125,0
9920,-4.8125,2.25,4.75,0
9940,-5.75,2.4375,4.5625,0
9980,-3,2.3125,3.6875,0
10000,-0.9375,3.25,3.3125,0
10020,-1.9375,3.75,2.5,0
10040,-0.8125,3.625,2.375,0
10060,0.25,3.625,2.375,0
10080,-0.5625,3.0625,3.375,0
10100,-0.5,1.625,3.9375,0
10120,-1.8125,1.1875,4.25,0
10130,-3.75,1.25,3.0625,0
10150,-2.9375,1.3125,2.1875,0
10180,2.1875,2,0.25,0
10200,4.625,1.5,0.375,0
10220,5.4375,0.9375,0.5625,0
10240,4.4375,0.875,0.875,0
10260,2.0625,0.8125,0.9375,0
10280,-0.9375,0.625,0.875,0
10300,-1.5,1.125,0.875,0
10320,-0.1875,0.8125,0.9375,0
10340,2.0625,-0.125,0.6875,0
10370,4.3125,0.5625,-0.9375,0
10390,3.4375,-0.5625,0,0
10410,2.25,-0.625,1.125,0
10430,0.875,-0.9375,1.125,0
10450,-1.75,-1.5,1.4375,0
10470,-2.3125,-0.9375,1.5,0
10490,-0.75,-1,1.3125,0
10510,0.25,-0.5625,1.3125,0
10530,1,0.25,1.25,0
10550,1.0625,0.3125,1.125,0
10580,-0.5,1.375,0.8125,0
10600,1.625,1.1875,0.8125,0
10620,1.25,1.3125,0.375,0
10640,0.1875,0.5,-0.25,0
10660,-0.25,0.875,-0.5625,0
10680,1.8125,1.625,-0.125,0
10700,3.0625,0.25,1.625,0
10720,1.375,-0.3125,1.875,0
10740,-1.8125,0.0625,2,0
10760,-3.75,-0.875,1.3125,0
10770,-11.8125,-17.3125,3,0
10790,-23.9375,-29.75,2.3125,0
10810,-25.6875,-41.75,-4.125,0
10830,-28.25,-57.125,2.25,0
10850,-47.875,-67.625,1.5,0
10870,-65,-81.875,-9.8125,0
10890,-66.9375,-100.312,-20.8125,0
10910,-52.4375,-128.312,-25.3125,0
10930,-32.9375,-155.938,-31.5,0
10950,-33.3125,-176.125,-37.8125,0
10970,-54.5625,-194.875,-43.0625,0
10990,-53.1875,-209.75,-52.6875,0
11010,-54.125,-226.062,-61.4375,0
11030,-61.3125,-237.875,-44.625,0
11050,-58.3125,-238.375,-20.1875,0
11070,-39.4375,-230.625,-27.8125,0
11080,-38.5,-212.75,-40.75,0
11090,-39,-186.375,-47,0
11100,-9.3125,-164.312,-41.8125,0
11120,32.0625,-148,-37.25,0
11140,28.375,-120.812,-36.625,0
11160,20.6875,-94.25,-36.1875,0
11180,20.75,-78,-31.4375,0
11200,22.125,-57.5625,-29.5,0
11220,31.6875,-40.8125,-30.3125,0
11240,28.4375,-27.125,-31.375,0
11260,25.125,-14,-28.5625,0
11280,20.875,-13.9375,-26.625,0
11300,34.0625,-16.875,-37.5625,0
11320,25.75,-12.625,-40.9375,0
11340,-13.1875,-9.125,-18.25,0
11360,-38.75,-8.6875,-2.9375,0
11380,-30.9375,-12.9375,-11,0
11400,-14.25,-21.125,-11,0
11420,-1.4375,-23.4375,4.125,0
11440,-29.25,-16.1875,21.4375,0
11460,-50.6875,-20.0625,29.1875,0
11480,-54.4375,-23.375,14.625,0
11500,-42.5625,-5.625,8.9375,0
11520,-52.1875,-7.875,2.0625,0
11540,-29.6875,-33.0625,0.8125,0
11560,-3.5625,-16.0625,16,0
11580,17.3125,16.4375,0.75,0
11600,16.1875,26.5,-32.25,0
11620,38.75,21.6875,-27.875,0
11640,27.625,18.125,-9.5625,0
11660,36.625,14.375,0.4375,0
11680,41.125,18.625,-8.0625,0
11700,48.5625,21.9375,-12.75,0
11720,52.875,27.125,-9.375,0
11740,38.125,32.125,-10.9375,0
11760,13.0625,21.75,11.875,0
11780,19.625,13.75,23,0
11800,12.9375,6.5625,8.5,0
11820,4.125,11.3125,1.8125,0
11840,1.4375,3.3125,14.4375,0
11860,-11.6875,-8.0625,17.625,0
11880,-13.4375,-10.5,19.5,0
11900,1,0.8125,7.25,0
11920,13.125,5.5625,-15.75,0
11940,5.875,8.3125,-28.75,0
11960,4.75,6.1875,-50.875,0
11980,6.8125,0.5625,-85.4375,0
12000,9.5625,5.125,-93.6875,0
12020,29.5625,10.0625,-89.8125,0
12040,38.3125,15.25,-94.4375,0
12060,23.8125,18,-96.25,0
12080,0.3125,17,-90.8125,0
12100,-24.0625,16.5,-77.875,0
12120,-37.875,15.9375,-66.0625,0
12140,-42.125,11,-51.6875,0
12160,-38.9375,7.875,-35.375,0
12180,-32.375,7.25,-26.5,0
12200,-31,3.125,-25.25,0
12220,-23.375,1.875,-24.1875,0
12240,-23.625,6.25,-23.6875,0
12260,-19.9375,12.875,-23.25,0
12280,-0.125,14.6875,-19.375,0
12300,3,7.0625,-22.1875,0
12320,-1.0625,2.1875,-25,0
12340,-9,6.4375,-29.1875,0
12360,-1.25,6.6875,-27.0625,0
12380,3.9375,0.9375,-28.5,0
12400,-1.875,-4.4375,-31,0
12420,-1.9375,-1.4375,-26.6875,0
12440,1.125,2.1875,-19.0625,0
12460,5.6875,-0.25,-12.6875,0
12480,-4.5,1.125,-8.0625,0
12500,-16.9375,5.6875,-7,0
12520,-16.875,2.8125,-8.4375,0
12540,-8.5625,-2.375,-9.875,0
12560,3.625,-1.6875,-13.5625,0
12580,0.6875,2.9375,-18.75,0
12600,-1.9375,7.1875,-16.8125,0
12620,4.1875,3.5625,-11.4375,0
12640,3.4375,1.375,-13.25,0
12660,9.5625,11.875,-20.3125,0
12680,12.3125,28.3125,-26.5,0
12700,17.25,37.5,-22.75,0
12720,27.125,36.3125,-2.625,0
12740,26.625,39.8125,21.125,0
12760,22,57.6875,34.9375,0
12780,-4.8125,63.1875,43.625,0
12800,-33.6875,60.6875,58.3125,0
12820,-64.0625,59.625,69.4375,0
12840,-47.625,63,88.8125,0
12860,-17.625,66.0625,82.75,0
12880,6.625,53.1875,54.6875,0
12900,-21.4375,28.625,35.3125,0
12920,-27.25,2.0625,34,0
12940,-24.6875,-6.625,31.9375,0
12960,-28.0625,0.125,20,0
12980,-16.6875,11.3125,8.375,0
13000,2.75,16.0625,-16.75,0
13020,19.4375,10.5625,-26.5625,0
13040,33.0625,0.375,-13.125,0
13060,29.875,-7.4375,-8.625,0
13080,21.5,-0.875,-11.0625,0
13100,4.3125,11.1875,-19.8125,0
13120,-5.1875,10.875,-18.6875,0
13140,-3.4375,7.0625,-1.75,0
13160,-0.375,8.5,-4.9375,0
13180,3.5,11.3125,-14,0
13200,-1.9375,7.5625,-15.5625,0
13220,-7.6875,6.375,-19.4375,0
13240,-9.3125,5.1875,-18.25,0
13260,-6.4375,3.3125,-16.125,0
13280,-4.4375,5.5,-17.875,0
13300,-2.125,7.5,-15.8125,0
13320,-0.5625,10.0625,-12.1875,0
13340,-1.5,15.625,-8.875,0
13360,-3.3125,19.25,-7.75,0
13380,-1.1875,16.4375,-11.5625,0
13400,3.9375,16.9375,-17.375,0
13420,13.6875,15.375,-23.9375,0
13440,-8.0625,20.5625,-38.75,0
13460,-29,18.75,-36.75,0
13480,-33.625,7.5625,-36.5,0
13500,-12.375,1.625,-37.875,0
13520,12.5,-1.5,-27.9375,0
13540,24.8125,1.75,-13.875,0
13560,25.625,-1.5,-7.0625,0
13580,9.8125,-10,-4.5625,0
13600,-4.875,-9.5625,-0.8125,0
13620,-4.9375,-9.0625,-1.875,0
13640,5.3125,-2.75,-3.125,0
13660,13.5,8.9375,10,0
13680,14.75,17.6875,13.875,0
13700,28.125,18.875,22.25,0
13720,41,25.75,35,0
13740,42.875,28.125,44.1875,0
13760,35.9375,27.125,26.125,0
13780,32.125,36,11.1875,0
13800,37.25,48.75,4.9375,0
13820,58.6875,55.125,-1.75,0
13840,74.4375,52.375,-12.25,0
13860,88.3125,58.5,-12.6875,0
13880,94.1875,61.375,-10.1875,0
13900,72,77.125,1.25,0
13920,69.125,84.625,35.4375,0
13940,59.4375,83.0625,41.3125,0
13960,11.625,76.75,36.6875,0
13980,-48.5,47.375,22.125,0
14000,-97.1875,4.1875,-9.1875,0
14020,-95.625,-50.5625,-26.0625,0
14040,-62.5625,-87.625,-8.5625,0
14060,-45.125,-99.9375,1.9375,0
14070,-30.125,-105.375,-5.875,0
14090,-40.75,-103.5,-14.125,0
14110,-57.625,-96.6875,-12.75,0
14130,-61,-83,-23.25,0
14150,-41.8125,-68.6875,-42.3125,0
14170,-12.1875,-60.5,-48.6875,0
14190,6.375,-53.3125,-43.375,0
14210,7.625,-41.5,-37.5625,0
14230,-5.0625,-33.8125,-32.125,0
14250,-26.9375,-24.3125,-34.125,0
14270,-30.25,-16.8125,-31.625,0
14290,-16.6875,-13.25,-33,0
14310,-6.75,-20.5625,-35,0
14330,-11.375,-27.0625,-26.625,0
14350,-8.1875,-36.75,-11.6875,0
14370,-8.125,-36.6875,-9.6875,0
14390,-9.4375,-38.625,-0.75,0
14410,-14.375,-42.25,1.6875,0
14430,-5.5625,-45,11.9375,0
14450,12.625,-47.4375,18.875,0
14470,10.3125,-37.9375,5.1875,0
14490,-11.25,-34.5625,-10.625,0
14510,-25.6875,-39.8125,-10.75,0
14530,-20.875,-30.625,-7.375,0
14550,-10.75,-13.8125,-7.25,0
14570,-13.75,-3.875,-6.75,0
14590,-12.0625,-6.5,-4.125,0
14610,0.5,-9.75,-8.125,0
14630,-7.375,5.5625,-13.8125,0
14650,-20.5625,11.5625,-1.5,0
14670,-27.1875,7.125,7.0625,0
14690,-23.625,0.5625,-1,0
14710,-0.3125,-10.875,-5.875,0
14730,21.0625,-22.375,0.25,0
14750,23.5,-15.4375,9.75,0
14770,3.875,-5.625,16.625,0
14790,-5.6875,-13.0625,14.375,0
14810,8.9375,-25.25,9.625,0
14830,25.625,-26.3125,5.6875,0
14850,31.5625,-24.9375,3.9375,0
14870,20.9375,-23.4375,6.625,0
14890,14.5625,-18.3125,3.9375,0
14910,12.5625,-17.0625,-4.8125,0
14930,5.5,-18.5,-10.125,0
14950,2.0625,-21.375,-9.25,0
14970,2.0625,-23.3125,-9.4375,0
14990,-2.0625,-22.25,-9.375,0
15010,-9.8125,-18.3125,-7.6875,0
15030,-8,-21.1875,-4.875,0
15050,-11.75,-23.6875,-6.1875,0
15070,-11.6875,-23.5,-5.75,0
15090,-7.9375,-20.75,-6.4375,0
15110,-7.5,-17.25,-5.4375,0
15130,-7,-11.4375,0.875,0
15150,-7.9375,-5.0625,2.875,0
15170,-8,0.875,6.1875,0
15190,-2.5625,-2.375,4.0625,0
15210,7.625,-7.375,3.8125,0
15230,9.1875,-5.0625,5.5,0
15250,10,-7.625,8.3125,0
15270,14.3125,-4.125,8.9375,0
15290,13.9375,7.375,1.25,0
15310,3.125,22.5,-6.6875,0
15330,-8.375,31.5,-9.4375,0
15350,-8.375,32,-8.5,0
15370,-6.5625,25.625,-3.5625,0
15390,-2.9375,15.5,8.9375,0
15410,-0.9375,11.875,13.1875,0
15430,-1.1875,8.375,2.75,0
15450,-7.5,6.1875,-0.625,0
15470,-10.0625,3.125,-0.5625,0
15490,-6.125,-0.8125,0.75,0
15510,-4.8125,5.6875,1.875,0
15530,-12,10.875,2.0625,0
15550,-10.8125,9.0625,-0.5,0
15570,-9.3125,8.875,-1.0625,0
15590,-9.5,7.9375,2.375,0
15610,-6.375,3.6875,4.4375,0
15630,2.375,2.5,4.8125,0
15650,5.625,4.875,5.8125,0
15670,5.5625,6.9375,6.75,0
15690,4.4375,2.25,8.6875,0
15710,5.25,-5.25,12.75,0
15730,14.6875,-7.375,14.875,0
15750,19.75,-5,14.875,0
15770,22.75,-0.25,14.8125,0
15790,22.625,2.4375,16.8125,0
15810,14.4375,-1.3125,19.125,0
15830,16.9375,-13.6875,24.1875,0
15850,30.5,-17.0625,19.875,0
15870,36.375,-7.6875,15.6875,0
15890,15.875,14.25,13.875,0
15910,-2.125,33.125,12.25,0
15930,-5.75,25.5,1.25,0
15950,-0.25,16.125,-9.125,0
15970,-6.6875,12.3125,-7.875,0
15990,-11,5.9375,-16.875,0
16010,-10.9375,-4.9375,-16.875,0
16030,-3.125,-12.5625,-7.3125,0
16050,-3.5625,-7.0625,-10.3125,0
16070,-14.75,4.1875,-11.4375,0
16090,-24.6875,9.875,-8.3125,0
16110,-19.4375,9.375,-8.625,0
16130,-16.625,5.75,-10.8125,0
16150,-17.5625,5.875,-5.25,0
16170,-25.25,7.8125,3.4375,0
16190,-30,6.1875,4.8125,0
16210,-16.1875,-2.625,-3.875,0
16230,-2.4375,-20,-2.5625,0
16250,10.0625,-24.375,5.9375,0
16270,6.625,-12.875,13.3125,0
16290,-4.375,-0.0625,15.5,0
16310,-12.125,-0.375,10.875,0
16330,-6.1875,-6.25,7.875,0
16350,10.3125,-9.375,6.0625,0
16370,19.4375,-4.8125,-6.5,0
16390,4.875,-0.25,-15,0
16410,-8.3125,-0.25,-20.875,0
16430,0,-1.625,-24.25,0
16450,8.0625,-1.0625,-28.8125,0
16470,2.125,1.4375,-27.25,0
16490,-4.8125,6.375,-21.9375,0
16510,-0.8125,13.8125,-26.9375,0
16530,-3.625,19.5625,-26.9375,0
16550,-11.6875,30.8125,-11.8125,0
16570,-19.6875,42.75,9.4375,0
16590,-21.0625,47.6875,27.125,0
16610,-5.875,54,42.5,0
16630,11.375,65.625,49.9375,0
16650,10.625,73.1875,52.875,0
16670,-12.5625,70.5,54.125,0
16690,-0.125,60.5,51.25,0
16710,-8.5625,48.8125,48.5625,0
16730,-51.875,29.75,26.6875,0
16750,-43.625,1.625,4.5,0
16770,-11.9375,-16.25,2.5625,0
16790,24.9375,-22.8125,-0.625,0
16810,22.9375,-23.6875,-9.3125,0
16830,7.6875,-23.1875,-14.625,0
16850,-8.125,-21.8125,-17.875,0
16870,-12.625,-27.125,-11.6875,0
16890,-1.5625,-30.4375,-2.6875,0
16910,16.3125,-31.1875,2.0625,0
16930,27.875,-31.25,5.0625,0
16950,25.1875,-30.3125,0.5,0
16970,6.25,-26.3125,-6.9375,0
16990,-1.6875,-27.1875,-7.75,0
17010,6.4375,-33.0625,-2.5,0
17030,18.9375,-29,0.4375,0
17050,17.75,-21,-1.3125,0
17070,10.1875,-17.6875,-2.125,0
17090,6.1875,-16.9375,4.625,0
17110,12.5,-15.1875,10.25,0
17130,19.1875,-7.5,13.3125,0
17150,15.125,1.9375,9.9375,0
17170,11.9375,4.625,5.1875,0
17190,18.8125,7.1875,-1.1875,0
17210,22,11.8125,-0.75,0
17230,21.3125,13.5625,3.3125,0
17250,18.4375,17.25,5.25,0
17260,10.1875,20.8125,8.6875,0
17280,6.75,18.375,14.125,0
17300,4.4375,13.875,9.1875,0
17320,-2.9375,8.6875,0.9375,0
17340,-7.1875,10.6875,-5.75,0
17360,-11.5625,8.125,-6.6875,0
17380,-6.0625,0.875,-11.0625,0
17400,-1,-0.4375,-16.25,0
17420,-9.6875,9.3125,-17.3125,0
17440,-16.625,11.5625,-11.25,0
17460,-17.5,9.25,-9.6875,0
17480,-13.5625,5.1875,-8.8125,0
17500,-2.6875,3.1875,-7.5,0
17520,-6.3125,8.4375,-10.75,0
17540,-18.875,7.875,-7.125,0
17560,-22.375,4.25,-2.1875,0
17580,-10.875,-0.5,-6.9375,0
17600,9.4375,-8.4375,-12.375,0
17620,10.5625,-4.9375,-5.5625,0
17640,0.8125,-0.375,-2.125,0
17660,-9.0625,-7.4375,5.625,0
17680,-7.3125,-13.4375,21.625,0
17700,16.1875,-20.3125,24.3125,0
17720,23.5,-29.75,25.0625,0
17740,3.1875,-16.9375,16.3125,0
17760,-2.8125,-13.0625,20.3125,0
17780,-11.1875,-20.5625,17.9375,0
17800,8.5625,-17.6875,4.4375,0
17820,15.3125,-12.8125,6.5,0
17840,24.375,-12.9375,10.9375,0
17860,23.875,-16.0625,8.4375,0
17880,15.125,-7.125,-0.8125,0
17900,5.1875,1.875,-1.6875,0
17920,6,9.875,-4.625,0
17940,-7.5625,13.3125,-8.5625,0
17960,4.375,9.125,-12.25,0
17980,27.0625,3.1875,-15,0
18000,34,4.125,-8.6875,0
18020,16.8125,3.8125,0.25,0
18040,9.5625,4.625,4.3125,0
18060,8.6875,0.8125,10.125,0
18080,8.25,4.875,8.875,0
18100,0.9375,6.8125,4.9375,0
18120,-3.0625,0.1875,5.5625,0
18140,-0.25,-0.9375,4.5,0
18160,-3.5,0.8125,4.125,0
18180,-7.5,4.25,1.75,0
18200,-16.125,4.1875,-1.0625,0
18220,-19.5625,6.375,-12.5,0
18240,-14.6875,4.6875,-13,0
18260,-10.75,4.6875,-5.5625,0
18280,-21.125,11.625,-7,0
18300,-36.5,14.5,-15.3125,0
18320,-34.1875,5.25,-18.25,0
18340,-9.125,-3.875,-15.375,0
18360,5.5625,-8.6875,-16.75,0
18380,0.375,-7.1875,-11.25,0
18400,-9,-1.4375,-6.375,0
18420,-14.125,-3.75,-4,0
18440,-7.125,-6.875,-1.375,0
18460,3.75,-7.6875,-5.8125,0
18480,3,-7.625,-6.75,0
18500,-2.5,-1.8125,-0.75,0
18520,-12.5625,3.25,1.5,0
18540,-17.8125,-3.125,-1.875,0
18560,-6.4375,-8.8125,-0.9375,0
18580,-0.25,-6.3125,0.0625,0
18600,-4.1875,-2.5625,4.6875,0
18620,-9.875,-5.5625,8.3125,0
18640,-12.4375,-8.1875,8.8125,0
18660,-7.25,-9.1875,9,0
18680,-2.1875,-6.625,15.375,0
18700,-8,-1.4375,17.6875,0
18720,-14.25,0.4375,15.8125,0
18740,-16.3125,4.9375,11.4375,0
18760,-19.75,7.4375,3.3125,0
18780,-15.1875,2.875,-7.8125,0
18800,-7.4375,3.4375,-10.1875,0
18820,-0.375,5.25,-10.9375,0
18840,0.8125,3.3125,-10,0
18860,-3.75,2.8125,-7.1875,0
18880,-4.3125,2.6875,-4.5,0
18900,-5.875,3.3125,-5.1875,0
18920,-4.1875,1.5,-6.4375,0
18940,3.625,-0.8125,-7.0625,0
18960,8.25,0.625,-6.6875,0
18980,4.625,3.875,-5.625,0
19000,-1,5.9375,-3.4375,0
19020,-7.25,10.125,-1,0
19040,-17.1875,14.25,2.1875,0
19060,-21.0625,14.9375,3.9375,0
19080,-25.9375,22.8125,8,0
19100,-26.875,27.3125,12.3125,0
19120,-22.625,27.3125,14.5,0
19140,-14.5625,23,17.3125,0
19160,-0.5,22.1875,20.4375,0
19180,3.4375,24.375,23.25,0
19200,-3.5,27.5,20,0
19220,-12,26.875,11.5625,0
19240,-8.875,20.0625,7.375,0
19260,-0.375,10.75,7.4375,0
19280,17.25,6.6875,6.8125,0
19300,25.5,5.5,0.3125,0
19310,20,-1.625,1.25,0
19340,-10.1875,-3.8125,-5.4375,0
19360,-7.8125,-3.625,-0.75,0
19380,-5.5625,-2.5625,1.75,0
19400,-2.0625,-2.875,1.625,0
19420,10.0625,-7.4375,2.875,0
19470,5.1875,-6.625,-0.9375,0
19490,5.8125,-7.625,-1.6875,0
19530,0.3125,-4.125,-8.1875,0
19570,-10.9375,-12.125,-5.1875,0
19590,0.5625,-12.4375,-7,0
19610,7.4375,-8.3125,-8.9375,0
19630,9.4375,-4.5,-13.5625,0
19650,12.75,-0.9375,-17.5,0
19670,28.9375,16.9375,-16.25,0
19690,11.125,23.5625,-17.5625,0
19710,1.25,27.0625,-13.375,0
19730,-1.9375,28.125,-5.9375,0
19750,-0.5,23.9375,3.1875,0
19770,3.25,19.0625,7.375,0
19790,10.25,13.9375,3.4375,0
19810,9.5625,9.625,-1.375,0
19830,3.5625,2.6875,2.0625,0
19850,2.0625,-7.25,6.25,0
19870,10.1875,-12.0625,8,0
19890,22.6875,-8.75,4.9375,0
19910,29.6875,-0.0625,3.5,0
19930,17.6875,9.8125,1.875,0
19950,11.4375,15.375,0.8125,0
19970,15.8125,15.5,2.4375,0
19990,26.125,17.6875,2.125,0
20010,22.8125,19.625,-0.375,0
20020,24,25.75,0.4375,0
20040,18.25,28,1.5,0
20060,13.875,22.6875,7.375,0
20090,3.75,19.125,7.0625,0
20110,3.125,11.4375,5.125,0
20130,-0.125,1.0625,5.5,0
20150,-10.375,-6,7.3125,0
20170,-18.0625,-11.0625,4.4375,0
20190,-21,-18.5,0.75,0
20210,-15.9375,-25.3125,1.625,0
20230,-11.5,-29.25,4.125,0
20250,-12.5,-32.0625,4.875,0
20270,-17.1875,-32.625,3.5,0
20290,-22.1875,-29.375,2,0
20310,-27.1875,-23.75,-0.1875,0
20330,-32.4375,-18.6875,1.125,0
20350,-39.875,-13.3125,9.1875,0
20370,-43.125,-4.8125,15.5625,0
20390,-52.0625,0.375,16.75,0
20410,-54.75,8.8125,14.875,0
20430,-47.5,15.4375,11.625,0
20460,-22.75,14.75,10.0625,0
20490,10.3125,7.75,4.3125,0
20510,25.6875,3.0625,0.1875,0
20530,28.4375,0.25,-2.3125,0
20540,25.5625,1.75,-6.5,0
20560,14.125,2.75,-10.5625,0
20580,6.8125,2.3125,-10.25,0
20600,6.625,2.4375,-9.375,0
20620,19.3125,3.0625,-8.5,0
20640,28.125,2.1875,-11.4375,0
20660,27.375,-1.9375,-8.4375,0
20680,23.75,-5.0625,-5.3125,0
20700,16.25,-4.875,-4.375,0
20720,13.375,-5.625,-4.6875,0
20740,12.8125,-6.8125,-4.375,0
20760,17.0625,-6.625,-7.125,0
20780,21.3125,-7.625,-9.5625,0
20800,21.625,-7.5,-9.8125,0
20820,21.625,-6.375,-9.5625,0
20840,20.3125,-7.125,-11.75,0
20860,21.9375,-8.4375,-13.1875,0
20880,17.5625,-4.625,-10.625,0
20900,8.5,-2.75,-5.4375,0
20920,-0.0625,-3.1875,-1.9375,0
20940,-1.9375,-1.25,3.125,0
20960,-2.9375,5.6875,4.3125,0
20980,-11.875,6.625,5.1875,0
21000,-20.8125,8.125,7.5625,0
21020,-28.0625,10.625,7.5625,0
21040,-31.6875,7.125,9.9375,0
21060,-29.75,5.9375,10.25,0
21080,-22.4375,6.5,9.25,0
21100,-18.8125,7.0625,11.8125,0
21120,-19.75,6.625,17.9375,0
21140,-25.4375,5.875,22.0625,0
21160,-31.9375,8.75,19.375,0
21180,-38.8125,9.125,16.875,0
21200,-41.3125,7.9375,16.625,0
21220,-29.5,8.625,14.9375,0
21240,-17.0625,10.5,13.875,0
21260,-11,10.75,13.9375,0
21280,-11.8125,9.0625,8.6875,0
21300,-8.8125,7.625,4.625,0
21320,-8.125,8.5625,5.25,0
21340,-10.8125,8.625,5.1875,0
21360,-9.3125,5.9375,1,0
21380,-4.1875,2.3125,-1.25,0
21400,6.25,0.875,-2.4375,0
21420,12.5,3.75,-4.3125,0
21440,12.375,7.5625,-9,0
21460,4.5,7.375,-13.6875,0
21480,-2.125,6.6875,-14.0625,0
21500,0.3125,2.5,-11.3125,0
21520,4,1.6875,-8.375,0
21540,5.375,1.5625,-5.9375,0
21560,2.625,1.4375,-3.4375,0
21580,0.125,3.625,0.1875,0
21600,-2.1875,5.0625,1.4375,0
21620,-3.8125,3.3125,4.3125,0
21640,1.5,1.8125,6.75,0
21670,-0.6875,0.6875,12.125,0
21690,1,1.0625,11.25,0
21710,-5.5,1.125,9.625,0
21730,-10.25,0.5625,10.6875,0
21750,-4.875,0.875,8.125,0
21770,-1,-2.125,8.25,0
21790,-1.625,-5.4375,13,0
21810,-0.625,-5.375,10.875,0
21830,0.375,-6,5.5,0
21850,3.4375,-6.6875,4.4375,0
21870,2.375,-7.3125,4.4375,0
21890,2.875,-7.3125,4.875,0
21910,1.5625,-6,5.375,0
21930,-1.0625,-2.625,4.125,0
21950,-3.125,1.5,2.25,0
21970,-14.5625,2.3125,4.1875,0
21990,-18.125,0.5625,5.75,0
22010,-10.625,2.1875,3.0625,0
22030,-2.625,5.625,1.625,0
22050,-3.1875,6.6875,1.3125,0
22070,-7.3125,4.9375,0.875,0
22090,-11.125,1.5625,1.0625,0
22110,-6.875,-1.0625,2.8125,0
22130,-2,-1.5625,1.875,0
22150,1.25,-0.875,0.75,0
22170,1.5625,0.5625,1.5,0
22190,-0.1875,1.375,2.0625,0
22210,-4.0625,0.625,3.4375,0
22230,-3.8125,1.4375,4.75,0
22250,-2.1875,1.6875,5.75,0
22270,0.3125,3.8125,5.625,0
22290,-2.8125,4.5,4.875,0
22310,-6,3.875,7.375,0
22330,-5.75,2.125,10.8125,0
22350,-4.5625,1.375,10.5,0
22370,-3.5,1.9375,9.875,0
22390,-3.9375,3.25,11.625,0
22410,-3.625,4.8125,13.3125,0
22430,-1.4375,5.3125,9.3125,0
22450,0.5,3.3125,7.125,0
22470,5.25,2.375,8.625,0
22490,3.625,2.375,6.625,0
22510,4.4375,1.4375,3.4375,0
22530,2.1875,-0.75,4.3125,2000
22550,3.625,-2.125,5.1875,0
22570,8.9375,-1.5625,4.5625,0
22590,9.3125,-2,2.75,0
22610,4.6875,-1.375,-0.75,0
22630,-2,-2.75,0.6875,0
22650,-5.375,-5.125,2.75,0
22670,-0.5,-6.5,4.375,0
22690,3.6875,-5.0625,0.1875,0
22710,2.375,-4.25,-3.8125,0
22730,-3.625,-5,0.375,0
22750,-3.5625,-5.0625,3.875,0
22770,-0.8125,-3.0625,-0.25,0
22790,2,-2.9375,-4.625,0
22810,-0.6875,-5.4375,-2.125,0
22830,0.5625,-6.625,4.5625,0
22850,6.5,-4.9375,6.6875,0
22870,4.5,-5.125,-2.125,0
22890,-1.4375,-6.5,-7.1875,0
22910,5.375,-7.1875,-2.5,0
22930,9.5,-8.9375,-3.25,0
22950,8.5625,-8.9375,-1.5,0
22970,3.75,-10.0625,-0.875,0
22990,0.3125,-13.25,-5.875,0
23010,-2.6875,-16.5625,-7.125,0
23030,-0.375,-19.5,-4,0
23050,3.5,-23,-5.5,0
23070,-0.1875,-28.6875,-11.1875,0
23090,-3.125,-35.875,-14.0625,0
23110,-1.75,-39.25,-8.5625,0
23130,6.9375,-41.875,-8.875,0
23150,10.5625,-43.375,-13.5,0
23160,7.5,-43.25,-16,0
23180,-0.5625,-42,-15.875,0
23200,-4.0625,-40,-16,0
23220,-2.625,-38.625,-16.8125,0
23240,-5,-19.5625,-17,0
23260,-2.625,-15.875,-7.75,0
23280,1.5625,-12,-8.125,0
23300,-1.6875,-8.0625,-20,0
23320,-3.0625,-6.5,-22.875,0
23340,-1.3125,-8.6875,-13,0
23360,-2.9375,-5.0625,-9.0625,0
23390,-3.1875,4.125,-25.875,0
23410,-5.75,5.75,-37,0
23430,-0.8125,7.25,-40,0
23450,3.1875,11.9375,-45.625,0
23470,-11.8125,18.375,-52.6875,0
23490,-23.1875,24.125,-60.9375,0
23510,-21.5,26.875,-65.75,0
23530,-27.1875,31.25,-66.9375,0
23550,-32.9375,38.8125,-70.3125,0
23570,-44.25,44.9375,-69.5,0
23590,-50.5,48.5625,-73.8125,0
23610,-56.0625,50.375,-76.6875,0
23630,-62.1875,54,-76.1875,0
23650,-67.6875,60.6875,-76.375,0
23670,-70.4375,69.875,-75.6875,0
23690,-68,75.875,-75.125,0
23710,-62,82.9375,-75.3125,0
23730,-56.5625,87.9375,-77.3125,0
23750,-54.375,90.375,-75.25,0
23770,-50.9375,92.75,-63,0
23790,-39.0625,87,-39.5,0
23810,-5.8125,65.25,-22.4375,0
23830,9.375,59.4375,-6.25,0
23850,17.9375,59.125,6.5,0
23870,21.8125,58,15.5,0
23890,6.25,60.125,30.1875,0
23910,-5.875,61.75,42,0
23930,5.8125,56.5,42.5,0
23950,15.0625,44.1875,53.1875,0
23970,24.9375,36.3125,59.3125,0
23990,25.875,28.0625,55.75,0
24010,13.0625,19.3125,59.375,0
24030,7.125,11,65.4375,0
24050,1.5625,4.8125,68.5625,0
24070,14.1875,-3,63.5625,0
24090,25.5,-6.3125,63.25,0
24110,23.3125,-8.25,61.875,0
24130,22.9375,-11,62.4375,0
24150,19.4375,-16.625,63.25,0
24170,10.1875,-21.9375,63.4375,0
24190,4.1875,-31.375,69.375,0
24210,2.9375,-44.375,68.1875,0
24250,-2.25,-71.5625,69.625,0
24270,-14.25,-86.1875,65.75,0
24290,-27.4375,-98.4375,63.6875,0
24310,-29.0625,-109.625,60.3125,0
24330,-28.375,-118.688,51.5,0
24350,-28.25,-121.375,39.5625,0
24370,-25.75,-122.688,29.0625,0
24390,-28.5625,-123.688,18.75,0
24410,-38.3125,-122.062,9,0
24430,-27.1875,-116.125,-1.75,0
24450,-9.25,-109.438,-5.8125,0
24470,-14.4375,-106.062,0,0
24490,-24.375,-99.5,-1.5,0
24510,-27.1875,-84.0625,-20.5,0
24530,-33.75,-67.8125,-40.375,0
24550,-31.5,-57.1875,-45.75,0
24570,-49.5,-43.3125,-41.875,0
24590,-53.8125,-27,-49.1875,0
24610,-52.3125,-20.5,-75.375,0
24630,-48.5,-9.75,-98,0
24650,-62.1875,-0.8125,-105.188,0
24670,-77.0625,13.1875,-98.25,0
24690,-82.3125,29.6875,-102.625,0
24710,-76.3125,48.0625,-118.438,0
24730,-79.8125,58.5,-117.25,0
24750,-84.6875,69.125,-98.3125,0
24770,-75.25,77.875,-91.25,0
24790,-73.375,84.25,-91.8125,0
24810,-72.375,84.875,-81.9375,0
24830,-58.375,76.1875,-64.875,0
24850,-43.75,64.0625,-47.3125,0
24870,-30.8125,56.6875,-33.8125,0
24890,-16.625,49.1875,-17.3125,0
24910,-7.0625,42,-2.375,0
24930,5.75,41.75,7.0625,0
24950,8.125,50.1875,13.375,0
24970,10.5,57.25,26.5625,0
24990,22.375,57.8125,46.875,0
25010,43.375,54.6875,55.625,0
25030,50.5625,62.1875,57.125,0
25050,40.3125,64.6875,65.125,0
25070,32.4375,57.25,74.625,0
25090,22.4375,51.3125,81.125,0
25110,31.6875,49.625,81.75,0
25130,40.5625,44.25,78.875,0
25150,30.125,31.375,83.9375,0
25170,21.625,28.5,87.8125,0
25190,21.4375,28.5625,94.5,0
25210,8.6875,20.6875,86.875,0
25230,1.4375,14.9375,73.75,0
25250,14.1875,7.6875,77.125,0
25270,9.125,-3.8125,75,0
25290,7.5625,-11.75,67.9375,0
25310,11.125,-25.8125,57.8125,0
25330,8,-42.25,50.8125,0
25360,-0.9375,-73.375,43,0
25380,-0.4375,-86.1875,31.8125,0
25400,0.125,-99.1875,25.125,0
25420,-10.9375,-116.375,27.125,0
25440,-28.75,-129,29.75,0
25460,-44.8125,-133.625,20.4375,0
25480,-59.75,-136,11.8125,0
25500,-53.375,-139.188,3.4375,0
25520,-47,-143.062,-3.125,0
25540,-34.875,-141.125,-13.6875,0
25560,-30.875,-132.375,-31.1875,0
25580,-28.625,-121.688,-44.8125,0
25600,-38.75,-109.125,-58.6875,0
25620,-42.875,-93.125,-73,0
25640,-44.1875,-75.4375,-84.9375,0
25660,-31.0625,-58,-94.375,0
25680,-25.875,-37.875,-105.188,0
25700,-32.5,-19.4375,-115.438,0
25720,-46.625,-1.8125,-116.125,0
25740,-58.125,19.625,-108.812,0
25760,-66.5,35.5625,-108.875,0
25780,-73.9375,53.5,-108.312,0
25800,-87,74.0625,-98.75,0
25820,-85.0625,89.625,-84.75,0
25840,-74.4375,97.75,-78.625,0
25860,-64.9375,96.5625,-73.25,0
25880,-61.3125,89.1875,-56.6875,0
25900,-48.6875,82.6875,-38.375,0
25920,-30.6875,84.1875,-25.8125,0
25940,-20.875,88.75,-10.625,0
25960,-12.8125,88.6875,4.3125,0
25980,-5.75,90.875,12.625,0
26000,-6.5,95.5625,19.625,0
26020,-9.375,99.5,25.9375,0
26040,-10.375,100.75,35.375,0
26060,-9.375,99.1875,49.0625,0
26080,5.1875,94.1875,62.75,0
26090,12.8125,95.6875,67.875,0
26110,5.75,96.0625,71.4375,0
26130,1.25,94.75,81.3125,0
26150,-3.3125,85.5625,86.25,0
26170,-17.6875,80.6875,83.1875,0
26190,-2.125,76.6875,77.4375,0
26210,2.375,63.125,74.25,0
26230,-3.625,41.875,75.75,0
26250,-7.875,16.8125,71.375,0
26260,-6.125,4.0625,64,0
26280,-6.5625,-8.0625,58.0625,0
26300,-9.875,-16.25,49.8125,0
26320,-3.8125,-26.3125,47.4375,0
26340,-3.5625,-35.5625,47.625,0
26360,-6.625,-44.1875,47.1875,0
26380,-9.5,-48.625,44.25,0
26400,-7.6875,-53.625,40.4375,0
26420,-8.25,-62.3125,35.6875,0
26440,-3.75,-73.375,33.75,0
26460,3,-80,30.9375,0
26480,1.5625,-81.75,24.5,0
26500,-10.3125,-85.1875,21.375,0
26520,-19,-88.625,22.5,0
26540,-21.25,-89,22.8125,0
26560,-13.375,-88.75,22,0
26580,-7.0625,-84.9375,21.75,0
26600,-8,-86.75,17.5,0
26620,-12,-88.375,9.3125,0
26640,-22.5,-87.1875,-1.5625,0
26660,-21.6875,-83.8125,-9.625,0
26680,-9.75,-80.3125,-18.25,0
26700,8.625,-78.3125,-23.75,0
26720,7.4375,-77.5,-30.5625,0
26740,10.3125,-73.4375,-37.125,0
26760,-1.5,-69.75,-42.6875,0
26780,-11.875,-68.5,-40.4375,0
26800,-1.6875,-65.4375,-36.9375,0
26820,2.0625,-63.8125,-42.9375,0
26840,9.375,-65.4375,-44.875,0
26860,-0.5625,-63.625,-48.0625,0
26880,-9.8125,-56.125,-55.8125,0
26900,-13.5,-51.875,-56.4375,0
26920,-13.4375,-49.75,-55.6875,0
26940,-1.4375,-42.625,-59.5625,0
26960,8.875,-32.9375,-62.625,0
26980,12.5,-22.9375,-62.1875,0
27000,7,-15.5625,-60.8125,0
27020,-0.25,-10.625,-53.8125,0
27040,3.0625,-2.875,-43.0625,0
27060,4.125,6.3125,-30.1875,0
27080,6,14.375,-17.1875,0
27100,4.0625,16.8125,-5.625,0
27120,4,20.125,0.1875,2001
27140,-1.5625,21.875,1.875,0
27160,-8.8125,19.8125,3.9375,0
27180,-3.625,16.8125,4.6875,0
27200,-2.375,13.5,2.5,0
27220,-1,10.6875,1.25,0
27240,-0.3125,6.125,0.4375,0
27260,0.6875,4.9375,-1.9375,0
27280,1.3125,5.625,-2.9375,0
27300,2.6875,5.9375,-1.125,0
27320,2.125,5.9375,0.5625,0
27340,-0.1875,5.8125,-2.75,0
27360,2.25,2.5625,-3.75,0
27380,6.625,-1,-6.25,0
27400,12.5,-0.8125,-7.8125,0
27420,13.375,0.75,-10.9375,0
27440,9.875,1.4375,-16.0625,0
27460,11.0625,-3.4375,-23.625,0
27480,14.375,-8.6875,-21.4375,0
27500,6.0625,-12.3125,-9.25,0
27520,6.625,-7,-3.625,0
27540,12.4375,3,-5.125,0
27560,14.5,14.1875,-4.8125,0
27580,18.8125,29.5,3.4375,0
27600,33.3125,39.4375,15.8125,0
27620,37.6875,59.1875,32.125,0
27640,51.375,86,30.9375,0
27660,63.25,114.312,23.6875,0
27680,72.8125,132.25,45.5,0
27700,82.25,155.312,77.125,0
27720,103.625,193.5,94.375,0
27740,122.25,221.25,113.25,0
27760,121.75,245.75,121.188,0
27780,127.812,292,112.812,0
27800,117.5,331.312,115.25,0
27820,84.4375,326.625,125.25,0
27840,30.8125,281.438,105,0
27860,-21.9375,237.688,75,0
27880,-71.625,180.125,62.4375,0
27900,-104.938,139.375,79.75,0
27920,-91.4375,109.938,69.875,0
27940,-38.5,93.25,47.125,0
27960,13.875,77.25,41.4375,0
27980,56.75,54.0625,42.375,0
28000,58.0625,35.375,35.875,0
28020,34.5,21.5625,26.9375,0
28040,8.375,7.8125,17.6875,0
28050,-8.3125,-0.4375,12.1875,0
28070,-12.875,-10.6875,14.1875,0
28090,-7.125,-18.5,20.1875,0
28110,-0.0625,-20.6875,25.125,0
28130,0.1875,-19.4375,29.375,0
28150,-9.5625,-15.9375,28.3125,0
28170,-11.8125,-14.8125,19.3125,0
28190,-7.1875,-11.5625,17,0
28210,-2.5,-6.5,27.25,0
28230,-7,-2.125,27.3125,0
28250,-11.125,0.625,23.8125,0
28270,-14.0625,1.25,23.375,0
28290,-13.8125,-1.5,25.875,0
28310,-13.8125,-5.875,28.375,0
28330,-21.25,-11.625,31.3125,0
28350,-24.875,-17,29.25,0
28370,-39.4375,-25.9375,27.75,0
28390,-57.3125,-37.4375,19.4375,0
28410,-56.125,-61.625,4.25,0
28430,-50.9375,-71.9375,0.1875,0
28450,-54,-82.4375,-7,0
28470,-58.375,-92.125,-9.8125,0
28490,-64.625,-101.812,-9.1875,0
28510,-68.3125,-111.562,-2.4375,0
28570,-5.75,-59.5625,-30.5625,0
28590,-11.5625,-48.1875,-31.5,0
28610,-11.3125,-40.4375,-28.5625,0
28630,-4.5,-35.1875,-20.6875,0
28650,4.6875,-26.0625,-13,0
28670,13,-20.4375,-8.375,0
28690,9.75,-20.8125,-3.75,0
28710,-2.5,-18.9375,-2.625,0
28730,-2.0625,-14.6875,-4.0625,0
28750,-5.6875,-11.6875,-3.5,0
28770,-3.4375,-8.0625,-4.4375,0
28790,-1.3125,-5.25,-4.25,0
28810,-3.75,-3.375,-2.875,0
28830,-7.4375,-3.9375,1.125,0
28850,-3.125,-1.0625,6.4375,0
28870,-1.5,1.875,4.6875,0
28890,-6.5,2.5625,0.5,0
28910,-8.1875,3,0.4375,0
28930,-6.375,2,2.875,0
28950,-2.8125,-0.3125,3.75,0
28970,0.25,-1.375,1.1875,0
28990,0.3125,1.1875,-1.9375,0
29010,0.75,4.8125,-2.5625,0
29030,3.4375,4.1875,-1.875,0
29050,5.1875,3.25,0.125,2000
29060,9.4375,2.3125,5.25,0
29080,10.625,4.9375,9.1875,0
29100,6.8125,7.5,7,0
29120,-3.125,4.9375,5.0625,0
29140,-8.3125,5.0625,-0.1875,0
29160,-6.875,9.75,-4.375,0
29180,2.5,4.75,-5.25,0
29200,12.4375,-1.125,-1.9375,0
29220,14.8125,-3.375,-3.4375,0
29240,7,-2.3125,-6.9375,0
29260,-2.4375,-3.375,-4.9375,0
29280,-8.875,-6.9375,0,0
29300,-4.875,-10.25,1.625,0
29320,1.1875,-13.875,-3.5625,0
29340,10.9375,-19.3125,-11.5625,0
29360,12.9375,-27.375,-12.1875,0
29380,10.375,-37.125,-4.625,0
29400,9.5625,-42.5625,-6.5625,0
29420,12.0625,-44.5,-8.75,0
29440,13.9375,-42.625,-13.0625,0
29460,9.375,-42.75,-11.4375,0
29480,6.875,-40.4375,3.0625,0
29500,11.4375,-35.9375,-0.5,0
29520,14.0625,-29.6875,-21.4375,0
29540,18.625,-27.25,-35.1875,0
29560,12.75,-34.3125,-36.5625,0
29580,-11.4375,-36.375,-32.4375,0
29600,-25.625,10.25,-86.4375,0
29620,-32.125,33.6875,-109.375,0
29640,-61.6875,62.75,-127.438,0
29640,-73.25,112.312,-126.188,0
29660,-69.5,128.312,-122.625,0
29680,-72.0625,138.375,-119.812,0
29700,-70.9375,140.375,-113.875,0
29720,-61.3125,133.625,-99.6875,0
29740,-60.9375,129.75,-82.5625,0
29760,-53.8125,120,-66.3125,0
29780,-37.5,87.9375,-47.5,0
29800,-11.875,63.875,-24.125,0
29820,-7.9375,56.8125,-6.75,0
29840,-15.125,54.6875,-1.25,0
29860,-7.6875,52.3125,2.0625,0
29880,0.0625,43.1875,19.625,0
29900,11.125,36.4375,36.9375,0
29920,17.6875,34.875,42.75,0
29940,15.5,37.875,44.6875,0
29960,9.75,36.75,49.5625,0
29980,11.9375,31.5625,62.125,0
30000,8.25,25.3125,75.9375,0
30020,-0.3125,19.125,81.75,0
30040,2.3125,14.8125,83.1875,0
30060,-0.125,8.4375,91.6875,0
30080,-9.9375,-2.1875,97.25,0
30100,-15.75,-10.9375,92.75,0
30120,-8.9375,-19,83.5,0
30140,-4.6875,-27,73.1875,0
30160,-2.125,-37.5,67.5,0
30190,5.375,-58.3125,70.625,0
30210,9.125,-65.4375,61.5625,0
30230,3.6875,-74.625,55.75,0
30250,0.8125,-82.875,59.0625,0
30270,-1.8125,-91.9375,61,0
30290,-2.1875,-96.9375,56.6875,0
30310,-9.6875,-102.875,52.1875,0
30330,-23.75,-112.25,50.1875,0
30350,-31,-121.188,45.75,0
30370,-35.6875,-127.938,39.9375,0
30390,-32,-130.188,28.6875,0
30410,-29,-130.5,12.1875,0
30430,-24.6875,-130.062,-2.1875,0
30450,-23.0625,-130.125,-14.8125,0
30470,-10.9375,-129.062,-27,0
30490,-9,-123.438,-38.3125,0
30510,-6,-108.812,-55.125,0
30530,-6.5,-90.8125,-73.6875,0
30550,-11.375,-72.0625,-85.0625,0
30570,-38.5625,-54.375,-85,0
30590,-56.125,-30.6875,-91.0625,0
30610,-46.25,-22.25,-117.188,0
30630,-50.125,-11.75,-142.062,0
30650,-71.125,11,-144.438,0
30670,-95.875,43.0625,-125.438,0
30690,-105.5,68.0625,-111.75,0
30710,-88.75,88.25,-113.25,0
30730,-86.125,110.312,-121.312,0
30750,-98.6875,125.812,-118.062,0
30770,-94,135.188,-109.062,0
30790,-70.8125,134.312,-103.125,0
30810,-69.4375,119.625,-81.125,0
30830,-50.8125,100.375,-51.25,0
30850,-9.8125,77.625,-22.1875,0
30870,9.125,69.5625,0.6875,0
30890,12.3125,68.75,19.8125,0
30910,14.6875,65.3125,37.625,0
30930,20.3125,59.3125,51,0
30950,31.25,59.375,58.125,0
30970,33.0625,61.4375,69.125,0
30990,33.875,65.9375,76.8125,0
31010,21.125,69.625,84.25,0
31030,9.625,67.125,100.625,0
31050,20.3125,60.4375,111.375,0
31070,44.125,65.0625,105,0
31090,38.375,69.375,105.375,0
31110,15.0625,62.0625,104.625,0
31120,-5.5625,42.3125,90.8125,0
31140,-10,12.375,98.125,0
31160,-16.375,-12.125,96.8125,0
31180,-26.625,-33.5,83,0
31200,-36.5625,-57.25,73.5,0
31220,-34.625,-79.625,63.875,0
31240,-24.75,-96.625,57.5625,0
31260,-25.75,-108.5,54.0625,0
31280,-30.1875,-118.375,48.125,0
31300,-38.625,-127.75,40.0625,0
31320,-46.8125,-134.625,30.4375,0
31340,-47.9375,-141.375,15.8125,0
31360,-32.1875,-148.562,0.4375,0
31380,-19.8125,-151.5,-16.0625,0
31400,-11.3125,-148.5,-34.1875,0
31420,-10.1875,-146.688,-54.8125,0
31420,-47.25,-97.5625,-128.25,0
31440,-54.9375,-76,-139.688,0
31460,-52.8125,-58.5625,-135.938,0
31480,-46.5,-45.6875,-134.062,0
31500,-39.3125,-25.5625,-142.375,0
31520,-49.8125,-3.5625,-151.5,0
31540,-64,22.5625,-151.938,0
31560,-88.3125,41.75,-139.438,0
31580,-82.625,60.625,-116.312,0
31600,-68.0625,79.6875,-105,0
31620,-61,91.9375,-94.875,0
31640,-57.6875,95,-79.875,0
31660,-35.25,91.625,-55.25,0
31680,-16.25,86.1875,-34.625,0
31700,-7.625,84.1875,-18.9375,0
31720,-3.375,84.25,-2.8125,0
31740,4.25,80.6875,9.9375,0
31750,12.6875,74.875,20.25,0
31780,14.0625,65.5,31.0625,0
31800,18.8125,58.125,49.125,0
31820,28.125,65.4375,65.375,0
31830,23,77.9375,74.3125,0
31850,-4.1875,79.8125,87.75,0
31870,-24.5,77.375,98,0
31890,-29.75,69.5,111.312,0
31910,-23.0625,64.75,125.938,0
31930,-18.5,58.4375,128.312,0
31950,-6.875,62.625,125.562,0
31970,-17.5625,60.75,112.438,0
31990,-42.1875,46.1875,105,0
32010,-55.3125,32.5,109.312,0
32030,-44.25,20.75,95.875,0
32050,-30.125,2.25,81.5625,0
32070,-17.5,-20.75,75,0
32090,-21.1875,-39.875,63.875,0
32110,-27,-58.6875,54.875,0
32130,-22.375,-78.125,47.5625,0
32150,-13.0625,-93.5625,42.875,0
32170,-8.1875,-101.875,36.375,0
32190,-5.0625,-105.688,28.5625,0
32210,-12.0625,-110.188,20.6875,0
32230,-25.4375,-113.875,11.6875,0
32250,-29.3125,-114.562,5.6875,0
32270,-12.6875,-110.125,-1.1875,0
32290,0.125,-103.812,-15.125,0
32310,4.0625,-96.6875,-27.125,0
32330,-4.1875,-92.0625,-34.125,0
32350,-7.5625,-87.125,-40.5,0
32370,-10.125,-81,-47,0
32390,-9,-70,-49.375,0
32410,-0.8125,-58.375,-47.4375,0
32430,5.0625,-50.25,-45.5625,0
32450,12.0625,-43.375,-51.6875,0
32470,4.9375,-42.875,-54.125,0
32490,-3.5,-44.9375,-49,0
32510,3.8125,-43.6875,-46.5,0
32530,13,-39.6875,-48.0625,0
32550,7.9375,-33.5,-49.25,0
32570,-7.25,-30.75,-46,0
32590,-9,-29.5625,-42.625,0
32610,-3.9375,-28.125,-38.3125,0
32630,4.4375,-27,-28.875,0
32650,17.5625,-23.1875,-18.75,0
32670,19.3125,-16.75,-15.875,2001
32690,9.9375,-9.25,-14.5,0
32710,3.9375,-3.6875,-12.4375,0
32730,-0.5,-0.1875,-9.875,0
32750,-0.875,1.875,-7.8125,0
32770,3.9375,4,-3.5,0
32790,13.0625,5.3125,-8.25,0
32810,16.125,6.125,-14.0625,0
32830,11.1875,8.3125,-14.9375,0
32850,8.5,6.375,-16.5,0
32870,6.6875,2.0625,-23.25,0
32890,9.625,1.375,-29.5625,0
32910,13.8125,9.625,-29.8125,0
32930,20.75,15,-34.9375,0
32950,21.875,15.625,-46.3125,0
32970,19,17.3125,-57.75,0
32990,22.75,21.9375,-66.125,0
33010,22.375,30.125,-67.125,0
33030,16.4375,39.3125,-53.875,0
33050,12.0625,49.6875,-35.125,0
33070,9.75,65.5,-22.5625,0
33090,14.9375,87.25,-11.8125,0
33110,28.3125,108.125,-6.8125,0
33130,33.4375,117.062,-3,0
33150,11.875,121.625,8.4375,0
33170,-12.875,148.25,23.25,0
33190,-14.75,177.75,44.5625,0
33210,14.0625,194,77.25,0
33230,35.4375,206.75,120.188,0
33250,44.6875,236.25,135.188,0
33270,57.5625,265.188,114.5,0
33290,29.0625,260.562,108.5,0
33310,-10.1875,232.375,103,0
33330,-35.9375,187.5,91.75,0
33350,-47.25,132.438,94.75,0
33370,-40.6875,73.375,92.1875,0
33390,-38.3125,29.375,78.6875,0
33410,-32.9375,-6.4375,70.0625,0
33430,-18.75,-38.1875,69,0
33450,-5.5625,-60.375,55.0625,0
33470,9.8125,-75.5,48.75,0
33490,5.4375,-85.375,49.75,0
33510,-8.3125,-92.0625,53.5625,0
33530,-14.625,-93.25,52.25,0
33550,-16.625,-89,52.125,0
33570,-16.9375,-79.9375,49.5,0
33590,-26.5,-68.8125,44.5,0
33610,-24.5625,-62.6875,37.8125,0
33630,-20.375,-57.5625,33.5625,0
33650,-5.9375,-49.25,34.75,0
33670,0.5625,-41.5,32.4375,0
33690,-2.0625,-35.8125,26.625,0
33710,-3.75,-32.0625,22.1875,0
33730,0.6875,-25.125,23.9375,0
33750,1.6875,-17.6875,24.4375,0
33770,-1.1875,-11.0625,17.1875,0
33790,-11.125,-8.75,11.0625,0
33810,-5.875,-6.3125,13.0625,0
33830,8.4375,-5.75,13.0625,0
33850,6.9375,-5.125,8,0
33870,-7.625,1.4375,3.75,0
33890,-8.875,0.0625,9.6875,0
33910,-2.0625,-2.875,12.875,0
33930,11.8125,2.6875,7.0625,0
33950,10.625,7.625,2.125,0
33970,0.3125,6.25,9.8125,0
33990,-0.3125,4.9375,13.125,0
34010,2.125,0.1875,4.625,0
34030,13.1875,-5.8125,-4.875,0
34050,1.625,-7.4375,-9.1875,0
34070,-13.0625,-9.125,-9.1875,0
34090,-0.5625,-18.1875,-14.125,0
34110,15.125,-31,-22.75,0
34130,16.5625,-41,-29.5625,0
34150,14.9375,-52.375,-25.0625,0
34170,8.0625,-57.5,-11.3125,0
34190,16.5,-50.625,-13.5,0
34210,26.0625,-44.75,-30.5625,0
34230,12.8125,-45.0625,-47,0
34240,-48.5,-32.5,-45.3125,0
34270,-73.9375,8.5625,-77.25,0
34280,-87.1875,59.375,-91.25,0
34300,-81.4375,82.9375,-95.4375,0
34320,-80.9375,104.562,-105.125,0
34340,-83.875,128.25,-112.875,0
34360,-78.8125,140.375,-112.188,0
34380,-67.625,145.5,-116.812,0
34400,-55.8125,148.375,-122,0
34420,-49.0625,137.438,-116.75,0
34440,-38.75,106.812,-95.5625,0
34460,-27.0625,72.0625,-62.125,0
34480,-6.4375,34.125,-25.0625,0
34500,7.6875,0.25,5.25,0
34520,18.0625,-22.25,29.3125,0
34540,25.625,-34.25,45.4375,0
34560,33.625,-45.5625,58,0
34580,41.25,-50.875,75.4375,0
34600,47.375,-48.8125,88.1875,0
34620,48.4375,-47.1875,89.3125,0
34640,45.375,-47.25,84.5625,0
34660,42.5625,-50.0625,86.9375,0
34680,37.8125,-51.8125,96.125,0
34700,41.25,-49.1875,100.125,0
34720,59.375,-53.5,92.625,0
34740,57.75,-54.9375,83.1875,0
34760,52.625,-54.125,77,0
34780,46.6875,-47.375,72.6875,0
34800,34.75,-38.4375,64.4375,0
34840,21,-10.8125,59,0
34860,21.875,-2.25,50.6875,0
34880,13.25,4.5,43.5625,0
34900,-6.0625,2.875,37.8125,0
34920,-21,0.3125,25.125,0
34930,-11.6875,-0.5625,15.125,0
34950,10.5625,-1.5,14.125,0
34970,16.9375,-2.8125,15.625,0
34990,14.3125,-2.6875,13.1875,0
35010,5.875,-3.125,9.75,0
35030,-2.8125,-1.375,7.25,0
35050,-4,2.9375,8,0
35070,-7.5625,3.875,8,0
35090,-5.3125,2.5,10,0
35110,-6.125,3.875,12.625,0
35130,-1.75,4.4375,12.125,0
35150,2.8125,2,11.0625,0
35170,-2.5,2.6875,10.8125,0
35190,-5.75,3.4375,10.4375,0
35210,-4.6875,4.375,9.0625,0
35230,-3.375,3.9375,9.6875,0
35250,-5.6875,3.4375,11.75,2000
35270,-9.9375,5.625,19.25,0
35290,-3.4375,7.0625,18.4375,0
35310,7.5,6.9375,4.9375,0
35330,8.1875,5.9375,-2.5625,0
35350,-3,5.625,10.75,0
35370,1.375,0.875,18.125,0
35390,7.625,-4.625,0.875,0
35410,3.8125,-4.125,-7.0625,0
35430,-0.4375,-4.5,9.4375,0
35450,3.3125,-9.9375,18,0
35470,4.9375,-10.375,6.0625,0
35490,6.5,-10.5625,1.3125,0
35510,1.25,-15.4375,2.9375,0
35530,5.4375,-18.5625,5.9375,0
35550,6.8125,-18.5,2.75,0
35570,8.0625,-19.75,-6.5625,0
35590,3.75,-23.3125,-14,0
35610,-3.125,-28.125,-17,0
35630,5.125,-32.375,-16.8125,0
35650,7.3125,-40.0625,-19.375,0
35670,12.4375,-47.6875,-20.875,0
35690,25.5,-56.5,-20.625,0
35710,31.6875,-57.625,-17.4375,0
35730,24.75,-56.625,-12.25,0
35750,18.25,-52.0625,-11.9375,0
35770,9.125,-52.625,-14.6875,0
35790,-1.1875,-58.6875,-8.375,0
35810,1.8125,-54.375,-14.375,0
35840,-47.25,53.875,-65.75,0
35850,-39.8125,58.0625,-64.25,0
35870,-40.1875,70.875,-66.5,0
35890,-41.375,86.9375,-73.6875,0
35910,-44.8125,103.75,-81.1875,0
35930,-54.0625,118.188,-86.5625,0
35950,-57.6875,124.812,-88.5,0
35970,-55.5,130.062,-90.5625,0
35990,-53,134.688,-94,0
36010,-48.875,135.75,-96.8125,0
36030,-45.1875,131.125,-95.8125,0
36050,-42.5625,119.812,-90.875,0
36070,-37,100.438,-88.25,0
36090,-31.75,77,-79.25,0
36110,-18.75,55.125,-63.5625,0
36130,-5.4375,41.75,-44.125,0
36150,1.3125,35.4375,-25.8125,0
36170,9.0625,33.0625,-13.75,0
36190,5.625,24.4375,3.4375,0
36210,-2.1875,15.25,27,0
36230,4.0625,9.1875,41.625,0
36250,7.5,5.125,42.5625,0
36270,7.8125,-2.375,47.6875,0
36290,7.4375,-12.1875,57.625,0
36310,11.4375,-21.8125,58.375,0
36330,8.875,-28.5,65.9375,0
36350,6.9375,-33.8125,76.4375,0
36370,0.1875,-34.0625,81,0
36390,0.8125,-29.25,80.1875,0
36410,0.5625,-28.4375,82.3125,0
36430,0.4375,-26.6875,83.4375,0
36450,2,-21.75,77.4375,0
36470,-2.0625,-20.875,72.6875,0
36490,-4.625,-20.3125,76.5,0
36510,-1.9375,-21.1875,82.25,0
36530,-0.625,-21.1875,83.375,0
36550,0.375,-18.875,79.1875,0
36570,-9.125,-15.5625,68.9375,0
36590,-14.25,-17.5625,59,0
36610,-15.5625,-22.6875,60.3125,0
36630,-8.9375,-33.9375,56.4375,0
36650,1,-48,50.125,0
36670,-7.25,-61.3125,47.5,0
36690,-13.6875,-72.25,41.8125,0
36710,-21.25,-83.4375,36.25,0
36730,-27.9375,-90.5625,32,0
36750,-37.25,-96.5,25.5625,0
36770,-45.6875,-100.875,17.5625,0
36790,-41.25,-104.375,12.625,0
36810,-29.9375,-107.188,4.6875,0
36830,-10.9375,-107.938,-9,0
36850,-9.25,-107.5,-19.8125,0
36870,-7.6875,-105.75,-30.25,0
36890,-3.9375,-104.438,-40.1875,0
36910,9.3125,-99.4375,-57.8125,0
36930,0.5625,-90.3125,-74.9375,0
36950,3.375,-72.0625,-91.5625,0
36970,-15.5,-53.75,-98.75,0
36990,-24.5625,-48.3125,-107.688,0
37010,-35.375,-44.875,-126.812,0
37050,-60.4375,-8.5625,-139.875,0
37070,-63.5,16.0625,-126.5,0
37090,-63.875,42,-124.438,0
37110,-72.875,64.8125,-126.125,0
37130,-85.75,81.0625,-111.562,0
37150,-84.0625,95.5,-86.9375,0
37170,-62.6875,106.5,-75.5625,0
37190,-54.5,117.562,-77.25,0
37210,-55.5,117.188,-68.4375,0
37230,-48.4375,104.812,-40.125,0
37250,-26.4375,88.75,-7.6875,0
37270,7.25,66.875,15.75,0
37290,21.1875,59.3125,34.4375,0
37310,26.375,66.125,49.125,0
37330,21,65.4375,60.75,0
37350,14.375,60.5,70.3125,0
37370,12.9375,55.875,82.6875,0
37390,7,53.8125,93.4375,0
37410,19,48.5,81.9375,0
37430,9.375,40.875,84.5625,0
37450,-7.125,29.5,90.8125,0
37470,-13.375,21.5,83.8125,0
37490,-19.25,6.125,83.8125,0
37510,-0.5,-0.9375,88.5625,0
37530,-2.1875,-8.4375,89.6875,0
37550,-15.4375,-22.0625,82.1875,0
37570,-30.8125,-39.875,75,0
37590,-29,-56,69.375,0
37610,-18.3125,-70.5625,60.9375,0
37630,-4,-87.625,49.75,0
37650,-0.875,-104.438,42,0
37660,0.9375,-119.125,35.375,0
37720,-21.375,-135.312,0,0
37760,-6.375,-131.75,-33.3125,0
37760,6.75,-133.062,-42.75,0
37770,4.25,-131.125,-52.625,0
37790,-19.8125,-102.562,-94.75,0
37800,-36.9375,-91.125,-98.75,0
37820,-52.5625,-80.375,-100.938,0
37840,-60.375,-58.75,-123.25,0
37860,-58.125,-44.875,-140.75,0
37880,-65.875,-24.5,-140.688,0
37900,-73.375,-2.6875,-127,0
37920,-80.5625,24.875,-113.875,0
37940,-85.5625,59.125,-109.688,0
37960,-107.562,93.5,-98.4375,0
37980,-115.875,114.688,-75.1875,0
38000,-93.0625,122.75,-51.25,0
38020,-70.1875,120.5,-33.75,0
38040,-56.4375,109.062,-19.375,0
38060,-40.5625,105.562,-4.25,0
38080,-21.125,108.125,7.5625,0
38100,-13.8125,113.5,18.0625,0
38120,-12.0625,108.5,35.8125,0
38140,1.5625,99.6875,61.25,0
38160,12.6875,91.25,75.4375,0
38180,18.75,86.75,86.0625,0
38200,7.4375,79.1875,102.812,0
38220,-2.9375,65.875,115.438,0
38240,-1.3125,56,118.75,0
38260,-4.75,45.4375,124.438,0
38280,-15.4375,35.0625,112.625,0
38300,-18.375,32.375,99.3125,0
38320,-23.125,20.375,95.8125,0
38340,-18.5625,6.0625,89.0625,0
38360,-17.0625,-5.625,83.1875,0
38380,-15.0625,-11.5625,76.75,0
38400,-11,-15.6875,71.1875,0
38420,-18.9375,-24.875,60.4375,0
38440,-22.1875,-41.625,56.6875,0
38460,-12.0625,-57.4375,53.5625,0
38480,-3.4375,-72,46,0
38500,-4.875,-88.375,37.0625,0
38520,-15.0625,-104.75,30.6875,0
38540,-13.8125,-119.125,25.625,0
38560,-5.375,-126.5,16.5,0
38580,-4.875,-130.062,5,0
38600,2,-125.25,-10.125,0
38620,3.5625,-119.375,-25.125,0
38640,2.875,-114.75,-28.5625,0
38660,8.3125,-111.375,-34.4375,0
38680,4.25,-102.625,-43.25,0
38700,8.9375,-91.875,-54,0
38720,0,-78.4375,-58.875,0
38740,-13.125,-65.5,-56.125,0
38760,-5.5,-55.0625,-53.8125,0
38780,10.6875,-51.0625,-57.5,0
38800,9.25,-53.6875,-56.6875,0
38820,-0.1875,-46.6875,-49.0625,0
38840,8.8125,-35.75,-53.75,0
38860,13.6875,-30.6875,-60,0
38880,-1.375,-26.125,-62.125,0
38900,-16,-23.0625,-49.0625,0
38920,-8.0625,-23.0625,-37.875,0
38940,2.3125,-17.5,-33.625,2001
38960,1.1875,-11.375,-24.8125,0
38980,-4.4375,-8.0625,-11.6875,0
39000,-6.8125,-4.25,-3.5625,0
39020,-5.8125,1.375,-1.1875,0
39040,-1.0625,6.75,-0.5625,0
39060,-1.8125,9.9375,2.1875,0
39080,-1,11.1875,0.125,0
39100,-0.875,13.125,-2,0
39120,1.5625,15.4375,-1.75,0
39140,11.3125,17.9375,-0.8125,0
39160,16.3125,19.375,-1.1875,0
39180,20.875,15.75,-3.4375,0
39200,19.8125,12.875,-9.9375,0
39220,14.625,13.125,-17.5625,0
39240,13.375,20.375,-27.1875,0
39260,19.0625,28.0625,-36.9375,0
39280,34.9375,35.125,-45.25,0
39300,53.625,39.1875,-51.25,0
39320,56.3125,43.5,-45,0
39340,57.25,56.0625,-37.625,0
39360,59.3125,76.8125,-38.0625,0
39380,47.9375,99,-33.0625,0
39400,57.375,115.375,-12.25,0
39410,46.375,121.5,8.25,0
39430,42.3125,143.75,35.5625,0
39450,46.375,178.875,67.0625,0
39470,63.9375,215.125,90.625,0
39490,54.1875,269.562,111.625,0
39510,35.9375,326.875,113.562,0
39530,49.25,328.562,86.875,0
39550,3,278.812,75.5625,0
39570,-78.625,211.25,64.4375,0
39590,-146.562,166.688,73.5625,0
39610,-165.812,109.5,79,0
39630,-128.938,57,77.1875,0
39650,-55.5625,15.8125,57.875,0
39670,30.3125,-20.625,43.25,0
39690,75.6875,-52.3125,37.1875,0
39710,58.625,-75.1875,32.4375,0
39730,13.875,-89.625,28.625,0
39750,-18.625,-98.375,26.75,0
39770,-27.125,-104.5,27.6875,0
39790,-17.375,-104.188,22.125,0
39800,-5,-96.3125,16.0625,0
39810,-10.6875,-81.875,16.75,0
39830,-10.8125,-79.25,14.8125,0
39850,-6.75,-76.25,15.1875,0
39870,0.6875,-64.5,15.5,0
39890,2.75,-52,7.0625,0
39910,5.75,-42.9375,-0.125,0
39930,11.1875,-36.375,-1.875,0
39950,17,-28.375,-1.0625,0
39970,17.5,-18.3125,1.5,0
39990,22.8125,-8.6875,2.125,0
40010,22.1875,-4,-2.25,0
40030,8.375,-0.875,-0.75,0
40050,-9.9375,1.9375,6.8125,0
40070,-8.75,2.375,12.25,0
40090,1.6875,-0.3125,11.6875,0
40110,6.9375,-0.6875,10.1875,0
40130,2.0625,3.5,8.125,0
40150,-5,4.1875,10.8125,0
40170,-3.375,2.4375,12,0
40190,-3.875,0.625,12.375,0
40210,-2.5625,5.1875,13.875,0
40230,0.625,10.25,16.0625,0
40250,-4.25,11.75,16.4375,0
40270,-6.1875,11.4375,14.1875,0
40290,-3.125,9,10.1875,0
40310,-6.125,5.375,10.25,0
40330,0,4.25,21.375,0
40350,7.75,6.5625,14.875,0
40370,8,5.1875,-2.75,0
40390,4.3125,4.3125,2.125,0
40410,5.3125,-0.4375,11.8125,0
40430,-0.75,-6.4375,6.625,0
40450,4.8125,-11.4375,0.125,0
40470,1.3125,-20,-3,0
40490,2.4375,-29.8125,1.875,0
40510,7.3125,-39.0625,5.9375,0
40530,1.1875,-44.1875,-1.75,0
40550,1.0625,-50.875,-6.9375,0
40570,5.6875,-59.5,-10.3125,0
40590,12.9375,-67,-7,0
40610,13.9375,-69.5625,-2.4375,0
40630,7.1875,-61.3125,-4.8125,0
40650,-0.625,-50.5,-10.5,0
40670,-7.125,-38.25,-10.6875,0
40690,-0.9375,-35.375,-16.5,0
40710,-4.9375,-43.875,-44.125,0
40740,-22.875,-24.5,-70.3125,0
40760,-39.75,-2.5625,-74.375,0
40780,-53.25,22.0625,-89.75,0
40800,-76.875,50.75,-101.125,0
40820,-96.25,78.6875,-108.938,0
40840,-96.875,104.438,-118.875,0
40860,-90.125,127.312,-124.125,0
40870,-80.6875,145.75,-125.812,0
40890,-77.125,157.625,-126.125,0
40910,-72.0625,159.562,-124.562,0
40930,-66.625,145.438,-114.5,0
40950,-57.5625,124.312,-100.375,0
40970,-53,104.125,-85,0
40990,-34.75,78.8125,-68.8125,0
41010,-15,53.5,-50.875,0
41030,1.375,28.125,-28.3125,0
41050,11.875,5.125,-1.625,0
41070,26.5625,-12.1875,24.9375,0
41090,34,-21,49.875,0
41110,30.125,-30.0625,73.4375,0
41130,35.875,-37.75,93.3125,0
41150,36.375,-47.1875,102.562,0
41170,37.5,-55.125,107.625,0
41190,45.9375,-57.25,105,0
41210,43.5,-59.0625,98.25,0
41230,33.5625,-59.9375,105.75,0
41250,38.5625,-59.9375,113.25,0
41270,49.875,-57.875,103.438,0
41290,43.125,-55.75,94.25,0
41310,22.8125,-43.3125,91.9375,0
41330,17.9375,-30.6875,80.375,0
41350,15.125,-23.4375,72.125,0
41370,9.125,-19.1875,68.625,0
41390,3.125,-15.5,61.625,0
41410,-3.0625,-10.6875,53.3125,0
41430,7.5625,-5.5625,37.5625,0
41450,2.8125,-5.75,30.375,0
41470,-0.5,-6.0625,32.5,0
41490,7.8125,-3.5625,30.3125,0
41510,11.0625,-5.3125,25.375,0
41530,3.0625,-5.3125,18.125,0
41550,2,-3.625,11.3125,0
41570,4.25,-4.1875,10.6875,0
41590,-1.75,-5.375,11.125,0
41610,-4.1875,-3.0625,12.375,0
41630,-5.25,0.125,13.75,0
41650,-3.25,2.125,8.8125,0
41670,-6.1875,4.625,6.125,0
41690,-9.6875,9.6875,10.5625,0
41710,-5.6875,10.5,15.1875,0
41730,-3.9375,8.75,12.9375,0
41750,-5.25,5.25,9.875,2000
41770,-3,4.25,10.625,0
41790,-0.125,2.25,11.25,0
41810,6.3125,-0.9375,2.9375,0
41830,17.6875,-8.9375,0.6875,0
41850,7.8125,-11.4375,4.125,0
41870,1.3125,-10.25,4.5625,0
41890,-3.9375,-13.6875,-1.5,0
41910,-10.4375,-18.1875,-0.4375,0
41930,-3.8125,-20.125,5.0625,0
41950,-0.8125,-23.3125,6.1875,0
41970,5.375,-24.125,5.5,0
41990,3.6875,-22.875,4.375,0
42010,0.25,-25.5,2.6875,0
42030,3.625,-26.875,3.8125,0
42050,0.3125,-25.75,5.5625,0
42070,0.6875,-20.8125,-0.1875,0
42090,-1.625,-21.0625,-4.1875,0
42110,-2.0625,-24.125,0.375,0
42130,1.625,-25.75,4.5,0
42150,-0.125,-28.375,1.625,0
42170,-2.4375,-30,-2.8125,0
42190,-6.125,-31.75,-5.9375,0
42210,0.8125,-37.3125,-2.4375,0
42230,8.75,-43.3125,-2.5,0
42250,13.125,-44.6875,-3.25,0
42270,0.5,-41.9375,-5,0
42290,-3.375,-37.25,-7.3125,0
42310,-4.75,-35.4375,-13.375,0
42330,-3.125,-36.75,-13.5,0
42350,-1.0625,-38.75,-16.125,0
42370,-2.125,-39.375,-21.9375,0
42400,-14.8125,-26.6875,-33.75,0
42430,-31.125,19.0625,-59.75,0
42450,-40.5,37.8125,-67.1875,0
42470,-67.875,88.8125,-106.125,0
42490,-71.5,111.875,-108.062,0
42510,-74.9375,119.688,-109.812,0
42530,-74.125,128.062,-112.25,0
42550,-72.5625,131.562,-111.625,0
42570,-74.375,127.812,-99.3125,0
42590,-71,124.75,-85.125,0
42610,-65.1875,122.562,-74.5625,0
42630,-50.4375,111.125,-57.6875,0
42650,-15.1875,77.5,-32.4375,0
42670,-4.6875,51.625,-10.1875,0
42690,16.75,47.0625,9.1875,0
42710,14.75,50.375,21.125,0
42730,-0.375,55,23.875,0
42750,0.5,38.8125,32.5625,0
42770,-0.5,16.875,49.8125,0
42790,15.1875,3.3125,58.125,0
42810,20.375,2.5,56.875,0
42830,19,1.4375,53.25,0
42850,21.625,-6.25,61.8125,0
42870,12.0625,-21.0625,72.3125,0
42890,7.9375,-36,77.25,0
42910,1.875,-48.9375,80.5,0
42930,7.1875,-59.5,79.5625,0
42950,0.75,-71.0625,85.6875,0
42970,-10.0625,-83.6875,87.5625,0
42990,-20.5,-92.375,84.75,0
43010,-27.25,-99.375,81.375,0
43030,-25.3125,-103.188,73.25,0
43050,-16.1875,-102.5,69.3125,0
43070,-4.3125,-101.188,60.75,0
43090,0,-102.375,44.375,0
43110,4,-103.938,32.9375,0
43130,3.8125,-108.438,23.9375,0
43150,3.0625,-113.688,13.875,0
43170,2.0625,-114.875,6,0
43190,-6.125,-111.875,-4.3125,0
43210,-6.625,-108.25,-18.5625,0
43230,-4.9375,-104.812,-33.1875,0
43250,-10.6875,-102,-44.75,0
43270,-14.1875,-95.8125,-53.125,0
43290,-13.5625,-83.75,-58.25,0
43310,-15.75,-62.375,-67.9375,0
43330,-4.875,-41.4375,-92.375,0
43350,-13.5625,-36.5,-105.812,0
43370,-39.6875,-31.3125,-105.938,0
43390,-51.5,-11.9375,-106.062,0
43410,-56.8125,10.1875,-109.562,0
43430,-60.4375,35.0625,-114.625,0
43470,-87.1875,73.25,-107.125,0
43490,-95.25,92.875,-88.875,0
43510,-85.5,110.812,-80.625,0
43530,-74.625,124,-80.0625,0
43550,-78.5,125.875,-78.6875,0
43570,-76.25,115.875,-63,0
43590,-62.1875,106.812,-38.125,0
43610,-29,94.125,-16.375,0
43630,0.125,76.9375,-3.5,0
43650,11.875,74.625,10.125,0
43670,16.25,68.5625,26.5625,0
43690,18.1875,59.5625,46,0
43710,18.0625,55.0625,58.0625,0
43720,14,57,63.1875,0
43750,20.5625,55.375,64.5625,0
43770,4.5,45.1875,73.375,0
43790,6.3125,30.625,80.6875,0
43800,12.9375,20.6875,85,0
43820,8.875,14.25,89.625,0
43840,0.75,6.4375,86.1875,0
43860,2.25,-1.9375,81.125,0
43880,-5.5625,-10.4375,80.875,0
43900,-4,-21.125,82.0625,0
43920,-11.0625,-35.0625,83.875,0
43940,-15.5,-46.5,77.5625,0
43960,-17.6875,-54.375,68.125,0
43980,-16.0625,-60.5625,61.75,0
44000,-13.6875,-70.8125,51.9375,0
44020,-7.5625,-80.4375,40.9375,0
44040,-4,-92.5,32.4375,0
44060,-1.6875,-101.125,25.5,0
44080,-3.3125,-107.062,14.625,0
44100,-6.9375,-113.312,0.0625,0
44120,-11.875,-120.188,-11.3125,0
44140,-13.375,-124.625,-19.875,0
44200,-6.4375,-92.75,-89.8125,0
44220,-16.5625,-87.25,-91.1875,0
44230,-38.8125,-59.125,-104.75,0
44250,-45,-37.3125,-111.938,0
44270,-55.9375,-14.6875,-115,0
44290,-65.0625,-0.25,-108.75,0
44310,-69.9375,14.5625,-99.75,0
44330,-67.625,35.5625,-95.3125,0
44350,-68.125,56.0625,-92.375,0
44370,-77.75,75.1875,-79.375,0
44390,-77.6875,93.75,-65.875,0
44410,-69.625,104.25,-56.5,0
44430,-60.25,104.625,-47.75,0
44450,-51.5,101.188,-31.6875,0
44470,-35.4375,100.938,-12.6875,0
44490,-17.8125,96.0625,2.5625,0
44510,-1.9375,95.9375,16.9375,0
44530,1.875,93.9375,29.6875,0
44550,0.0625,91.6875,45.875,0
44570,1.125,90.0625,66.375,0
44590,-0.5,81.3125,83.3125,0
44610,-0.375,72.625,93.5,0
44630,-5.125,68.1875,100.625,0
44650,-6.5625,64.4375,100.875,0
44670,-1.9375,56.75,101,0
44690,-11.8125,48.8125,98.875,0
44710,-14.875,46.375,91.875,0
44730,-12.5,34.9375,88.1875,0
44750,-21.8125,20.1875,84.5,0
44770,-14.375,8.5625,66.125,0
44790,2,-7.6875,49.375,0
44810,3.6875,-31.875,47.5,0
44830,-6.6875,-57.4375,49.3125,0
44850,-14.375,-77.5625,50.9375,0
44870,-21.375,-88.125,45.3125,0
44890,-20.375,-94.75,40.3125,0
44910,-29.9375,-97.375,35.4375,0
44930,-32.6875,-99.3125,28.625,0
44950,-25.1875,-100.812,24.8125,0
44970,-18.375,-98.6875,19.6875,0
44990,-14.3125,-94.8125,10.75,0
45010,-13.6875,-91.0625,1.8125,0
45030,-14.125,-87.3125,-5.875,0
45050,-7.25,-84.5625,-11.625,0
45070,-0.9375,-84.5,-16.875,0
45090,0.75,-81.25,-22.0625,0
45110,3.125,-76.5,-27.75,0
45130,1.5,-69.3125,-29.8125,0
45150,2,-60.9375,-37.6875,0
45170,0.3125,-57.3125,-42,0
45190,3.25,-54.25,-45.9375,0
45210,11.1875,-49.125,-52.1875,0
45230,17.375,-44.625,-52.125,0
45250,26.625,-42.9375,-49.25,0
45270,24.375,-40.5625,-54.75,0
45290,7.5,-43.125,-57.375,0
45310,2.3125,-42.0625,-56.1875,0
45330,3,-37.875,-56.375,0
45350,8,-32.0625,-52,0
45370,6.875,-25.375,-40.875,0
45390,3.3125,-18.0625,-28.9375,2001
45410,2.4375,-10.375,-22.0625,0
45430,-0.3125,-2.875,-18.625,0
45450,1.9375,4.6875,-9.6875,0
45470,4.0625,11.8125,-5.3125,0
45490,4.125,16.3125,-6.875,0
45510,1.8125,14.9375,-7.625,0
45530,1.8125,11.3125,-9.3125,0
45550,6.6875,7.8125,-10.0625,0
45570,12.625,4.3125,-10.5625,0
45590,12.3125,2.25,-12.5,0
45610,11.875,1,-19.125,0
45630,15.6875,0.3125,-31.375,0
45650,23.1875,-1.75,-38.9375,0
45670,27.25,-0.9375,-39.75,0
45690,35.1875,4.125,-43.875,0
45710,37.4375,12.8125,-42.9375,0
45730,38.5625,28.1875,-35.75,0
45750,41.5,53.3125,-32.75,0
45770,39.875,78,-28.4375,0
45800,43.0625,129.688,5.625,0
45820,49.875,161.312,28.0625,0
45840,43.75,181.25,66.5625,0
45860,36.3125,215.438,101.625,0
45880,54.25,254.562,121.75,0
45900,71.6875,311.312,132.375,0
45920,70,364.125,134.375,0
45940,21.75,372.562,112.062,0
45960,-11.3125,335.5,87.25,0
45980,-70.3125,259.812,63,0
46000,-130.312,203,95.25,0
46020,-129.125,164.875,100.875,0
46040,-87.5,138.375,78.125,0
46060,-21.6875,111.875,53.625,0
46080,52.5625,87.125,53.5,0
46100,88,65.5625,59.625,0
46120,84.75,44.75,56.5625,0
46140,47.875,26.875,37.3125,0
46160,7.0625,11.25,25.1875,0
46180,-18.5,-12.625,42.6875,0
46200,-38.375,-41.9375,43.875,0
46220,-55.25,-66.625,24.3125,0
46240,-48.875,-88,16.5625,0
46260,-39.75,-110.062,20.5625,0
46280,-41.1875,-121.688,23.9375,0
46300,-52.5625,-126.688,7.625,0
46320,-61.0625,-136.25,-18.5625,0
46340,-59.6875,-141.25,-26.0625,0
46360,-48.9375,-142.375,-24.9375,0
46380,-39.1875,-139.875,-26.75,0
46400,-24.625,-135.5,-34.0625,0
46420,-16.75,-125.562,-36.875,0
46440,-13.125,-111.875,-32.8125,0
46480,-4,-49.5,-7.9375,0
46500,0.3125,-36.5,-5,0
46520,3.75,-27,4.4375,0
46540,6.5625,-23.375,15.5625,0
46560,14.25,-17.5,19,0
46580,13.1875,-5.8125,22.375,0
46600,2.25,2.0625,22.875,0
46620,0.8125,2,16.5,0
46640,1.5625,-1.3125,8.375,0
46660,1.25,-0.8125,7.4375,0
46680,3.9375,3.125,11.8125,0
46700,10.0625,1.25,14.1875,0
46720,6.1875,-1.75,12.625,0
46740,-2.8125,-0.875,8.9375,0
46760,-7.125,-0.125,6.125,0
46780,-6.3125,-4.25,3.125,0
46800,-2.625,-6.375,0.6875,0
46820,1.1875,-6.75,-0.9375,0
46840,4.0625,-4.75,-4.75,0
46860,4.6875,-3.8125,-7.5625,0
46870,-1.5,-4.0625,-7.4375,0
46890,-7.125,-4.5625,-4.4375,0
46910,-4.4375,-3.125,-4.375,0
46930,-3.5625,0.25,-2.375,0
46950,-9.4375,-3.625,4.875,0
46970,-6.3125,-6.0625,13.8125,0
46990,-3.0625,-8,11.6875,0
47010,-5.875,0.6875,1.5625,0
47030,-13.25,4.0625,6.125,0
47050,-10.6875,1.5,17.8125,0
47070,2.25,6.6875,14.8125,0
47090,13.5,8.3125,2.625,0
47110,9,8.0625,-2.375,0
47130,1.75,5.5,3.4375,0
47150,-2.875,4,9.3125,0
47170,0.5,4.9375,0.6875,0
47190,3.875,1.9375,-5.875,0
47210,3.75,-6.4375,2.3125,0
47230,-0.125,-12.4375,8.125,0
47250,3.75,-17.9375,1.4375,0
47270,-3.5625,-23.4375,-6,0
47290,-4.125,-30.625,-10.25,0
47310,-2.25,-39.3125,-8,0
47330,5.4375,-46.375,-8.75,0
47350,7.6875,-52,-16.6875,0
47370,6.625,-53.25,-22.5625,0
47390,3.75,-57.6875,-22.75,0
47410,10.0625,-61.1875,-11.75,0
47430,11.0625,-61.3125,-9,0
47450,6.0625,-59.0625,-14.875,0
47470,8.75,-53.5,-20.25,0
47490,9,-55.1875,-21.25,0
47510,6.9375,-61.3125,-7.6875,0
47530,2.375,-63.8125,-9.0625,0
47550,-5.0625,-55.5,-23.9375,0
47570,-7.4375,-47.9375,-34.1875,0
47570,-10.1875,-48.1875,-22.9375,0
47590,-9.4375,-41.0625,-15,0
47610,-22.1875,-10.6875,-36.4375,0
47640,-26.5,2.25,-25.375,0
47640,-21.6875,5.9375,-20.9375,0
47650,4.3125,64.9375,2.1875,0
47680,12.5,39,19.375,0
47710,20.0625,28.25,20.4375,0
47730,10.4375,29.375,17.5,0
47750,3.625,22.8125,12.4375,0
47770,12.25,18.5625,15.125,0
47790,14.6875,19.3125,14.1875,0
47810,7.75,19.9375,13.4375,0
47830,-1.6875,21.75,12.5625,0
47850,2.375,20.9375,5,0
47870,2.8125,16.0625,5.875,0
47890,7.1875,13.0625,9.375,0
47910,2.5,10.625,10.9375,0
47930,2.125,10.75,8.6875,0
47950,3.375,7.875,6.375,0
47970,4.8125,4,9.875,0
47990,-2.375,2.375,14.1875,0
48010,-1,1.875,14.875,0
48030,-4.625,2.25,10.8125,0
48050,-7.5625,3.3125,5.5625,0
48070,-6.5625,3.3125,4.625,0
48090,-5.4375,2.6875,8.875,0
48110,-1.4375,1.4375,10.5,2000
48130,1.6875,-0.125,7.3125,0
48150,4.6875,0.625,2.9375,0
48170,-2.375,2.25,4.5625,0
48190,-1.9375,0.0625,5.5,0
48210,-3.25,-4.375,3.4375,0
48230,2.625,-2.625,0.25,0
48250,5.3125,-0.25,-1.4375,0
48270,-4,-1.5,-0.0625,0
48290,-4.25,-2.9375,5.9375,0
48310,-1.375,-4.75,1.875,0
48330,1.25,-5.6875,-5.5,0
48350,1,-8.4375,-4.0625,0
48370,-3.625,-9.75,4.6875,0
48390,4,-8.375,8.1875,0
48410,4,-8.25,-1.1875,0
48430,2.9375,-8.9375,-7.9375,0
48450,0.125,-15.625,-4.1875,0
48470,6,-24.8125,1.875,0
48490,8.0625,-31.75,-1.4375,0
48510,20.3125,-36.8125,-12.3125,0
48530,24.375,-42.5625,-16.6875,0
48550,18.875,-48.5625,-14.125,0
48570,8,-49.9375,-8.4375,0
48590,-2.625,-49.25,-3.625,0
48610,1.75,-47.75,-5.625,0
48630,6.0625,-45.4375,-6.8125,0
48650,3.375,-44.125,-1.0625,0
48670,-5.5625,-37.4375,3.875,0
48690,-2.375,-30.0625,-0.8125,0
48710,3.0625,-27.125,-10.5,0
48730,5.5625,-29.0625,-18.625,0
48750,2.1875,-29.5,-20.375,0
48770,6.375,-33.0625,-19.3125,0
48790,5,-35.25,-14.875,0
48840,-15.875,-7.875,-28.375,0
48880,-27.625,18.8125,-40.8125,0
48920,-47.3125,41.375,-58.625,0
48940,-62.9375,54,-65.5625,0
48980,-81.5,78.25,-78.9375,0
49000,-84.625,90.125,-88.3125,0
49020,-86.125,98.625,-97.5625,0
49040,-89.4375,100.312,-101.312,0
49060,-89.625,101.688,-101.438,0
49080,-83.5625,104.188,-100.375,0
49100,-72.75,104.062,-100.125,0
49120,-65.75,100,-97.8125,0
49140,-59.1875,95.5,-86.5625,0
49160,-49.25,90.9375,-72,0
49180,-41.6875,87.1875,-54.125,0
49200,-28.25,71.6875,-31.9375,0
49220,-9.75,54.75,-6.5625,0
49240,-14.9375,61.1875,17.9375,0
49260,-25.8125,72.8125,42.25,0
49280,-2.875,71.8125,50.25,0
49300,20.6875,62.875,52.75,0
49320,13.875,54.4375,63.8125,0
49340,-3.1875,42.875,71.25,0
49360,2.75,32.75,72.5625,0
49380,14.875,22.875,81.0625,0
49400,20.875,17.4375,80.375,0
49420,5.8125,13.8125,80.5625,0
49430,-1.1875,4.25,77.625,0
49450,2.4375,-4.5625,72.3125,0
49470,14.9375,-10.6875,68.5,0
49490,12.75,-18.5625,67.125,0
49510,3.8125,-28.375,66.375,0
49540,3.0625,-50.5625,55.6875,0
49560,3,-59.5,51.5,0
49580,1.6875,-66.3125,51.8125,0
49600,-3.4375,-74.4375,46.3125,0
49620,-7.625,-83.9375,41.9375,0
49640,-10.9375,-93.5625,40.0625,0
49660,-18.3125,-104.938,39.5,0
49680,-27.375,-116.75,34.6875,0
49700,-33.5,-125.312,24.4375,0
49720,-35.375,-131.812,11.625,0
49740,-38.3125,-136,-2.9375,0
49760,-29.25,-139.25,-17.375,0
49780,-18.5,-143.75,-32.375,0
49800,-11.375,-144.875,-40.9375,0
49820,-2,-140.062,-47.875,0
49840,-8.125,-127.312,-53.5,0
49860,-20.6875,-108.25,-56.5,0
49880,-44.125,-84.75,-54.9375,0
49900,-44,-69.1875,-68.875,0
49920,-48.9375,-68.75,-90.6875,0
49940,-59.3125,-54.125,-105.75,0
49960,-61.4375,-32.625,-111.75,0
49980,-71.3125,-15.875,-101,0
50000,-73.625,4.375,-101.375,0
50020,-80.625,36.6875,-114,0
50040,-97.125,67.6875,-112.5,0
50060,-105.375,90.1875,-94.5,0
50080,-97.5,109.062,-83,0
50100,-87.75,130.5,-80.625,0
50120,-87.3125,149.125,-78.1875,0
50150,-78.5,146.125,-43.5,0
50170,-56.75,125.5,-19.6875,0
50190,-16.0625,97.9375,-4.375,0
50200,9.9375,86.5,12.1875,0
50220,16.25,85.0625,27.875,0
50240,13.75,81.75,48.0625,0
50260,13.5625,75.875,65.8125,0
50280,19.25,70.375,82.375,0
50300,24.625,72.25,90.8125,0
50320,4.9375,67,98.6875,0
50340,8.5,61.4375,102.312,0
50360,12,51.8125,100.562,0
50390,-7,34.0625,102.688,0
50410,-5.125,26.8125,98.75,0
50430,-8.4375,14.125,100.562,0
50440,-18,-1.9375,102.812,0
50460,-25,-11.5625,100.438,0
50480,-36.875,-21.375,93.125,0
50500,-41,-29.8125,77.4375,0
50520,-35.1875,-42.8125,62.375,0
50540,-20.6875,-61.6875,54.125,0
50560,-7.9375,-75.875,45.875,0
50580,-0.75,-89.875,36.75,0
50600,-4.5,-103.125,28.5625,0
50620,-7.9375,-114.438,18.5625,0
50640,-12.375,-122.938,13.875,0
50660,-10.625,-129,10.25,0
50680,-7.5,-129.5,0.875,0
50700,-5.8125,-126.125,-12.375,0
50720,-0.0625,-123.625,-24.5625,0
50740,1.8125,-119.875,-36.5625,0
50760,2.5,-104.562,-64.4375,0
50780,12.125,-96.875,-78,0
50800,13.625,-91.9375,-88.8125,0
50820,0.75,-85.625,-93.8125,0
50840,-14.1875,-74.875,-100.688,0
50860,-24.6875,-57.125,-111.062,0
50880,-30.75,-38.9375,-116.5,0
50900,-36.1875,-20.8125,-114.625,0
50920,-42.25,-0.8125,-107.812,0
50940,-46.5,17,-105.125,0
50960,-47.4375,32.375,-100.875,0
50980,-60.1875,47.5,-92.875,0
51000,-68.6875,64.125,-87.1875,0
51020,-78.75,85.25,-86.3125,0
51040,-83.8125,100.688,-82.3125,0
51060,-81.25,105.938,-68.8125,0
51080,-58.4375,108.125,-51.3125,0
51100,-34.25,109.625,-41.25,0
51120,-26.625,106.438,-35.75,0
51140,-27.1875,101.25,-20.5,0
51160,-19.0625,100.188,1.8125,0
51180,-12.25,94.5,22.375,0
51200,-7.875,85.25,43,0
51220,-0.375,70.0625,63.5,0
51240,7,60.4375,76.625,0
51260,3.5,54.6875,86.4375,0
51280,-11.8125,46.4375,95.8125,0
51300,-25.3125,38.375,105,0
51320,-24.75,33.1875,105.938,0
51340,-19.5,29.5,96.5625,0
51360,-12.875,18.6875,91.5,0
51380,-3.5625,12.3125,92.1875,0
51400,3.5625,11.625,89.8125,0
51420,-7.625,10.375,80.3125,0
51440,-9.3125,9.125,73.1875,0
51450,-6.5,7.25,66.375,0
51470,0.6875,7.4375,59,0
51490,6.9375,9.4375,57.3125,0
51510,13.75,3.6875,50.1875,0
51530,14.625,-2.875,45.3125,0
51550,12.375,-9.9375,46.875,0
51570,10.6875,-17.5,50.5625,0
51590,7.8125,-25.8125,47.0625,0
51610,-1.1875,-33.25,39,0
51630,-5.125,-40.125,33.5,0
51650,-6.5625,-53.3125,27.8125,0
51670,-6.3125,-64.4375,25.6875,0
51690,-4.75,-73.75,21.6875,0
51710,-3.75,-83.625,19.0625,0
51730,-9,-90.1875,18.3125,0
51750,-26.5,-97.125,14.3125,0
51770,-34.5625,-101.75,7.3125,0
51790,-31.5625,-104.812,-0.1875,0
51810,-19.4375,-103.5,-8.25,0
51830,-7.9375,-104.812,-21.0625,0
51850,3.875,-104.812,-27.6875,0
51870,15.125,-102.938,-38.625,0
51890,16.375,-98.5625,-56.4375,0
51910,11.1875,-93.25,-63.75,0
51930,14.0625,-86.3125,-67.1875,0
51950,6.9375,-81.625,-74.4375,0
51970,-4.1875,-79.4375,-78.5625,0
51990,-5.25,-75.625,-82.8125,0
52010,-17.75,-72.1875,-79.1875,0
52030,-7.875,-67.375,-65.875,0
52050,0.75,-60.875,-59.3125,0
52070,-3.5625,-54,-54.625,0
52090,-7.125,-49.8125,-43.875,0
52110,-4,-43.5,-39,2001
52130,-9.25,-37,-36.9375,0
52150,-8.875,-31.125,-25.5,0
52170,-7.5,-24.875,-15.125,0
52190,-1.8125,-18.9375,-15.4375,0
52210,-3.875,-12.875,-18,0
52230,-5.5625,-5.375,-14.875,0
52250,-8.9375,0.375,-7.75,0
52270,-5.6875,3.875,0.75,0
52290,4.4375,8.8125,0.9375,0
52310,5.25,12.4375,-5,0
52330,-3.9375,12.875,-4.1875,0
52350,-6.6875,13.3125,3.5625,0
52370,-1.3125,14.6875,8.375,0
52390,0.875,16.3125,8.125,0
52410,-1.3125,17.1875,8.6875,0
52430,-1.4375,16.125,10.5,0
52450,-0.625,13.125,10.75,0
52470,7.4375,9.4375,8,0
52490,8.8125,6.375,0.1875,0
52510,3.0625,5.5,-10.1875,0
52520,4.875,5.125,-19.625,0
52540,6.4375,7.25,-25.75,0
52560,8.625,9.1875,-38.5625,0
52580,7.6875,13.875,-52.0625,0
52600,13.5,26.1875,-51.5625,0
52620,15.6875,36.75,-45.6875,0
52640,17.5625,44.9375,-36.5,0
52660,20.5625,53.9375,-20.25,0
52680,22.375,69.875,-9.4375,0
52700,21.1875,93.5,-6.6875,0
52720,18.25,114.062,6.5,0
52740,28.4375,119.25,40.0625,0
52760,40.5,130.188,71.6875,0
52780,56.8125,158.312,81.5625,0
52800,61.1875,181.562,85.125,0
52820,39.9375,195.875,108.188,0
52840,35.5,212.625,134.5,0
52860,56.75,231.188,141.875,0
52880,46.375,227.5,121.375,0
52900,20.1875,208.375,94.75,0
52920,10.0625,192.688,91,0
52940,0.8125,173.562,104.812,0
52960,8.9375,150.562,116.125,0
52980,10.9375,118.062,116.875,0
53000,5.25,84.6875,96.375,0
53020,-8.9375,54.5625,78.875,0
53040,-8.6875,29.5625,75.125,0
53060,-21.3125,6.5625,78.25,0
53080,-43.5,-16.9375,70.1875,0
53100,-57.3125,-39.625,51.0625,0
53120,-59.75,-59.1875,37.5625,0
53140,-42.3125,-73.875,30.0625,0
53160,-29.5625,-82.125,23.6875,0
53180,-24.375,-86,14.6875,0
53200,-29.75,-88,6.1875,0
53220,-35.5625,-89.9375,-2.125,0
53240,-32.75,-90.25,-7,0
53260,-21.875,-88.625,-9.5625,0
53280,-13.375,-84.125,-12.1875,0
53300,-6.6875,-73.8125,-13,0
53320,2.125,-64.125,-14.5625,0
53330,6.25,-57,-17.3125,0
53340,3.625,-47.4375,-16.3125,0
53380,8.9375,-22.9375,-30.9375,0
53400,19.125,-10.6875,-29.1875,0
53440,-1.5,21.5,-1.8125,0
53460,-9.4375,41.4375,-1.375,0
53480,1.4375,59.875,0.9375,0
53500,3.4375,72.5,17.5625,0
53520,-3.5,92.75,16.0625,0
53540,4.0625,110.062,6.5625,0
53560,24.75,114.938,9.1875,0
53580,44.8125,105.188,25.9375,0
53600,52.9375,82.4375,31.8125,0
53620,41.375,67.6875,16.875,0
53640,46.5,52.6875,-2.125,0
53660,46.25,24.6875,-4.8125,0
53680,13.375,-14.9375,-5.75,0
53700,-16.75,-45.8125,-22.8125,0
53720,-51.5625,-59.875,-42.9375,0
53740,-51.125,-60.5625,-67.1875,0
53760,-47.8125,-73.3125,-76.875,0
53780,-17.6875,-93.6875,-77.0625,0
53800,31.5625,-99.6875,-79.4375,0
53820,74.5625,-73.875,-66.625,0
53840,109.812,-43.8125,-39.375,0
53860,95,-41.4375,-15.875,0
53880,42.8125,-29.375,9.875,0
53900,9.4375,-12.3125,30.625,0
53920,-0.125,-12.4375,39.5625,0
53940,-5.75,-21.1875,40,0
53960,-12.6875,-21.625,33.1875,0
53980,-15.375,-18.4375,26.5625,0
54000,-22.8125,-17.8125,26.3125,0
54020,-32.6875,-18.6875,27.9375,0
54040,-37.4375,-16.0625,25.5625,0
54060,-43.0625,-10.6875,24.1875,0
54080,-26.0625,-7.625,18.625,0
54100,-22.625,-8.125,11.4375,0
54120,-26.375,-10.5,7.125,0
54140,-19.0625,-12.1875,8.375,0
54160,-13.5625,-11.9375,7.0625,0
54180,-8.4375,-10.3125,5.9375,0
54200,-0.375,-11.3125,8.4375,0
54220,-5,-10.25,14.8125,0
54240,-7.0625,-5.25,14.1875,0
54260,-10.4375,-0.25,13.4375,0
54280,-13.6875,1.75,16.25,0
54300,-6.75,6.875,17.6875,0
54320,-2.8125,6.9375,16.3125,0
54340,0,5,17.625,0
54360,1.125,6.375,15.5625,0
54380,4.25,7.4375,7.1875,0
54400,8.75,6.25,-0.3125,0
54420,6.625,3,-0.8125,0
54440,5.9375,2.3125,3.8125,0
54460,4.6875,-0.125,3.125,0
54480,7.3125,-2.0625,-2.6875,0
54500,11.375,-4.0625,0,0
54520,6,-8.375,6.75,2000
54540,-0.25,-10.9375,13.8125,0
54560,-5.5,-12.0625,8.8125,0
54580,-8.25,-8.5625,-1.375,0
54600,-16.5625,-6.4375,0,0
54620,-13.75,-5.375,6.625,0
54640,-8,-5.9375,8.3125,0
54660,6.125,-5.25,0.8125,0
54680,9.75,-6.0625,-1.75,0
54700,7.6875,-10.6875,4.0625,0
54720,2.875,-13.625,2.875,0
54740,-1.875,-14.8125,-0.875,0
54760,7.0625,-16.875,-4,0
54780,7.0625,-21.4375,-4.6875,0
54800,6.6875,-28.0625,-0.4375,0
54820,10.75,-31.5625,-4.125,0
54840,12.5625,-36.0625,-10.375,0
54860,5.75,-37.6875,-13.125,0
54880,3.8125,-40.875,-8.3125,0
54900,3.8125,-43.0625,3.9375,0
54920,10.8125,-42.875,7.8125,0
54940,12.6875,-39,0.6875,0
54960,7.6875,-35.4375,-3.1875,0
54980,2.25,-34.25,0.3125,0
55000,-4.875,-34.4375,5.1875,0
55020,-1.0625,-34.875,0.125,0
55040,9.75,-37.25,-12.875,0
55060,2.125,-37.875,-16.3125,0
55080,-13,-34,-12.5,0
55100,-18.3125,-26.5625,-9.5625,0
55120,-21.3125,-17.6875,-18.25,0
55160,-35.8125,5,-35.625,0
55200,-57.625,43.0625,-35.0625,0
55220,-57.25,49.9375,-39.25,0
55240,-63.5,58.3125,-44.375,0
55260,-70.3125,66.8125,-54.5625,0
55280,-75.125,72.6875,-59.875,0
55300,-76.875,80.75,-64.0625,0
55320,-76.625,89.1875,-74.4375,0
55340,-73.4375,96.375,-82.3125,0
55360,-69.75,101.625,-87.75,0
55380,-68,108.375,-90.8125,0
55400,-62.5,110.562,-93.875,0
55420,-47.25,105.438,-91.75,0
55430,-30,98.4375,-84.625,0
55450,-18.6875,90.6875,-73.875,0
55470,-13.4375,86.3125,-57.8125,0
55490,0.4375,76.9375,-28.0625,0
55510,14,59.5625,5.75,0
55530,33.625,44.125,29.4375,0
55550,32.5625,40.125,36.375,0
55570,22.9375,49.9375,36.625,0
55590,17.5625,45.125,55.8125,0
55610,22.125,35.6875,78.875,0
55630,36.0625,32.875,87.3125,0
55650,23.875,23,80.8125,0
55670,30.4375,11.5625,72.125,0
55690,26.9375,1.375,86.0625,0
55710,24.0625,-8.375,90.0625,0
55730,12.375,-18.0625,83.75,0
55760,10.625,-53.3125,77.5,0
55780,12.0625,-71.625,88.5625,0
55800,18,-85,86.1875,0
55820,5,-94.9375,82.625,0
55840,-1.5,-101.812,77.625,0
55860,-3.8125,-108.938,70.75,0
55880,-8,-118.812,66.875,0
55900,-14.1875,-125.625,61.5,0
55920,-15.9375,-126.688,51.9375,0
55940,-14.6875,-122.875,44.875,0
55960,-25.5,-115.75,32.125,0
55980,-29.8125,-108,17.4375,0
56000,-36.6875,-101.438,7.0625,0
56020,-30.5625,-93.75,-5.1875,0
56040,-14.875,-86.75,-22,0
56060,-10.1875,-79.125,-36,0
56080,-11.125,-64.8125,-52.5,0
56100,-11.75,-49,-64.25,0
56120,-10.9375,-41.375,-66.875,0
56140,-26.0625,-33.125,-71.8125,0
56160,-36.5,-13.125,-90.5,0
56180,-50.1875,2.5,-103.25,0
56200,-60.875,14,-101.688,0
56220,-62.375,26.4375,-94.125,0
56240,-68.0625,34.8125,-105.438,0
56260,-78.375,48.375,-118.938,0
56280,-86.5625,63.1875,-119.812,0
56300,-87.1875,74.4375,-111.75,0
56320,-82.8125,84.3125,-102.375,0
56340,-74.5625,93.125,-104.125,0
56360,-71.8125,101.188,-105.938,0
56380,-66.8125,99.75,-96.5625,0
56400,-53.875,89.125,-75.25,0
56420,-28.125,75.5,-49.1875,0
56440,-7,62.9375,-27.25,0
56460,13.9375,51,-9.1875,0
56480,25.5,48.9375,5.5,0
56500,25.625,49.1875,22.25,0
56520,26.1875,48.0625,42.5,0
56540,16.375,46.875,65.875,0
56560,28.8125,48.25,75,0
56580,43.5625,46.625,75.625,0
56600,31.3125,40.25,81.5,0
56620,17,36.375,93.75,0
56640,20.9375,34.5,94.1875,0
56660,28.4375,30.5625,93.625,0
56680,15.9375,21.5,94.125,0
56700,4.5625,8.8125,93.5625,0
56720,-5.25,-1,95.125,0
56740,-2.6875,-11.8125,92.9375,0
56760,1.4375,-31.5625,84.6875,0
56780,-3.5,-52.5,77.3125,0
56800,-15.125,-72,75.0625,0
56820,-17,-86.3125,60,0
56840,-16.9375,-101,42.75,0
56870,-2.125,-124.375,23.25,0
56890,0.125,-131.688,11.9375,0
56910,-0.875,-136.25,4.75,0
56930,1.5625,-136.5,-6,0
56950,-7.1875,-135.25,-20,0
56970,-16.375,-131.5,-33.6875,0
57000,-24.4375,-100.062,-91.3125,0
57020,-42.1875,-89.25,-96.25,0
57040,-44,-74.25,-100.25,0
57060,-45.4375,-59.375,-109.062,0
57080,-49.75,-39,-114.562,0
57110,-75.375,18.0625,-118.5,0
57130,-89.3125,43,-113.5,0
57150,-99.5625,70.6875,-105.125,0
57170,-101.688,95.875,-91.875,0
57190,-95.375,108.875,-75,0
57210,-83.5,111,-55.1875,0
57230,-65.75,111,-32.875,0
57250,-37.3125,111.688,-17,0
57270,-27.5,116.688,-9.25,0
57290,-31.6875,118.188,9.8125,0
57310,-20.875,115.688,34.875,0
57330,-5.9375,111.688,51.8125,0
57350,-1.0625,105.5,64.3125,0
57370,-3,93.125,84.25,0
57390,-1.875,84,102.438,0
57410,-1.5,80.3125,112.938,0
57430,0.5625,76.25,117.875,0
57450,-13.5,76.0625,113.75,0
57470,-34.3125,70.0625,110.438,0
57490,-24.5625,49.8125,112.75,0
57510,-8.8125,35.0625,115.375,0
57530,-10.8125,32.5,108.812,0
57550,-23.4375,31,94.3125,0
57570,-38.1875,16.1875,86.9375,0
57590,-44.25,-3.0625,80.625,0
57610,-37,-25.125,71.625,0
57630,-22.5625,-42.75,62.6875,0
57650,-12.625,-61.9375,52.875,0
57670,-11.75,-79.4375,41.875,0
57690,-15,-94.1875,34,0
57710,-13.25,-107,26.125,0
57730,-11.3125,-116.438,20.625,0
57750,-9,-120.375,9.75,0
57770,-8.75,-117.312,0.875,0
57790,-6.5625,-114.812,-7.625,0
57810,-3.875,-112.25,-15.75,0
57830,-3.75,-108.438,-24.9375,0
57850,-0.125,-104.688,-28.9375,0
57870,8.3125,-99.9375,-32.5625,0
57890,10.625,-90.5625,-40.125,0
57910,7.5,-80.375,-47.5625,0
57930,1.6875,-68.25,-53.75,0
57950,3.4375,-56.1875,-60.625,0
57970,14.6875,-47.1875,-71.3125,0
57990,26.9375,-41.0625,-80.375,0
58010,22.9375,-36.5,-76.5625,0
58030,26.1875,-26.625,-73.3125,0
58050,36.5625,-17.0625,-76.9375,0
58070,28.5625,-15.125,-75.4375,0
58090,18.5,-15.9375,-65.75,0
58110,2.375,-16.5,-56.9375,0
58130,2.5,-12.9375,-57.3125,0
58150,12,-7.8125,-53.1875,0
58170,15.1875,-11.375,-41.5,0
58190,10.5625,-14.1875,-34.75,0
58210,-1.125,-14,-34.25,0
58230,-5.875,-11.3125,-31.9375,0
58250,-5.4375,-13.3125,-24.5,0
58270,9.5,-19.4375,-13.1875,2001
58290,18.3125,-24.25,-10.9375,0
58310,15.1875,-23.6875,-19.5,0
58330,15,-22.5,-23.75,0
58350,16.125,-26.8125,-21.9375,0
58370,17.9375,-31.5,-18.9375,0
58390,12.5,-40,-17.625,0
58410,13.5625,-37.5,-17,0
58430,17.0625,-32.5625,-16.5,0
58450,15.0625,-30.8125,-10.625,0
58470,12.625,-24.25,-1.8125,0
58490,5.9375,-14,2.4375,0
58510,3.4375,-6.4375,-0.9375,0
58530,5.5,-2.375,-5.625,0
58540,5.875,-1.25,-9.375,0
58560,10.5625,-0.5625,-17.375,0
58580,12.9375,0,-27.1875,0
58600,19,0.75,-26.5,0
58620,25.5625,1.1875,-24.25,0
58640,31,7.3125,-24.75,0
58660,28.125,10.8125,-17.5625,0
58680,26.9375,11.125,2.125,0
58700,27.6875,23.875,22,0
58720,30.6875,51.5625,29.625,0
58740,38.25,79,36,0
58780,42.875,111.438,80.5625,0
58800,43.1875,134,88.25,0
58820,54,160.938,92.3125,0
58840,76.875,181.562,112.812,0
58860,87.125,194.188,142.562,0
58880,94.5625,208,149,0
58900,91.375,224.75,137.875,0
58920,72.3125,235.938,127.188,0
58930,56.3125,208.562,130.562,0
58950,34.6875,176.625,124.875,0
58950,-44,91.875,70.0625,0
58960,-77.5625,54,63.125,0
58980,-71.75,29.5,51.5625,0
59000,-47.875,9.5625,39.4375,0
59020,-15.875,-6.5,25.625,0
59040,13,-19.5625,14,0
59060,24.5,-31.1875,7.625,0
59060,22,-37.6875,3.5,0
59070,11.875,-39.6875,-0.125,0
59090,2.375,-40.0625,-3.625,0
59110,1.875,-37.1875,-6.625,0
59130,-6.9375,-34.375,-0.4375,0
59150,1.4375,-35.5,1.3125,0
59170,9.625,-34.0625,0.375,0
59190,10.0625,-28.0625,-1.5,0
59210,5.1875,-21.6875,-0.25,0
59230,4.3125,-21.125,5.125,0
59250,9.25,-20.3125,12.8125,0
59270,12.3125,-14.5,12.875,0
59290,7,-7.625,8.375,0
59310,-1.3125,-1.9375,5.5625,0
59330,-4.5625,-3.3125,7,0
59350,-1.4375,-5,11.4375,0
59370,2.5625,-4.0625,12.4375,0
59390,-1.8125,-1.0625,12.625,0
59410,1.0625,3.75,10.125,2000
59430,0,5.0625,6,0
59450,-4.9375,2.5,4.375,0
59470,-7.4375,-1.3125,7.625,0
59490,-2.6875,-2.625,5.625,0
59510,6,-5.875,-9.1875,0
59530,2.625,-12.0625,-15.375,0
59550,-4.75,-18.5,-5.125,0
59570,-3.875,-18.75,-3.0625,0
59590,-5.3125,-22.5625,-11.875,0
59610,-4.5,-29.75,-13.5625,0
59630,-1.8125,-38.6875,-10.5625,0
59650,7.1875,-49.5625,-17.0625,0
59670,10.625,-60.1875,-26.1875,0
59690,10.4375,-70.9375,-18.125,0
59710,17.375,-72.5625,-6.25,0
59730,10.9375,-73.25,-10.5625,0
59750,10.8125,-72.25,-19.375,0
59770,2.75,-84.9375,-24.0625,0
59790,-16.9375,-87.625,-23.8125,0
59810,-13.125,-79.625,-22.25,0
59830,-27.9375,-70.0625,-32.125,0
59850,-47.9375,-53.75,-38.5,0
59870,-63.25,30.5625,-53.625,0
59890,-59.125,39.75,-59.375,0
59910,-61.0625,51.0625,-59.8125,0
59930,-55.8125,61.6875,-58.9375,0
59950,-54.625,71.25,-58.6875,0
59970,-60.4375,84.75,-61.25,0
59990,-64.625,98.0625,-66,0
60010,-65.875,109.562,-67.75,0
60030,-65.0625,121.438,-69.875,0
60050,-63,127.688,-77.625,0
60070,-61.8125,127.062,-85.3125,0
60090,-60.5,125,-90.125,0
60110,-60.125,121.5,-87.5,0
60130,-56.25,118.562,-76.375,0
60150,-44.5,121.938,-69.125,0
60170,-31.9375,114,-63.75,0
60190,-24.375,99.375,-51.25,0
60210,-8.3125,72.4375,-24.875,0
60230,16.0625,47,1.75,0
60250,25.5625,34.875,26.5625,0
60270,17.5625,35.125,37.9375,0
60290,30,41.875,28.3125,0
60310,21,35.5,48.875,0
60330,-6.375,27.75,85.9375,0
60350,-0.5,23,92.5625,0
60370,36.3125,22.5,77.125,0
60390,27.75,16.9375,78.125,0
60410,-0.5625,8.0625,89.875,0
60430,-17.9375,2.25,103.062,0
60450,-1.75,9.3125,94.3125,0
60470,-2.875,15.375,83.4375,0
60490,-25.25,12.875,81.375,0
60510,-51.375,-5.0625,91.375,0
60530,-53.875,-18.375,93.8125,0
60550,-49.75,-28.875,84.4375,0
60570,-50.4375,-52.875,73.4375,0
60590,-60.125,-77.1875,72.9375,0
60610,-62.25,-96.9375,62.25,0
60630,-53.6875,-114.875,47.25,0
60650,-33.9375,-126.312,31.1875,0
60670,-14.125,-134.562,17.5625,0
60690,2,-142.938,7.5625,0
60710,11.6875,-145.625,0.125,0
60730,10.375,-147.375,-9.9375,0
60750,-3.75,-144.438,-25.75,0
60770,-10.625,-135.875,-47.375,0
60790,-5.6875,-125.438,-65.1875,0
60810,-4.625,-115.812,-76.0625,0
60830,6.5625,-103.75,-87.1875,0
60850,17,-91.4375,-95.4375,0
60870,-0.125,-80.8125,-93.8125,0
60890,-17.9375,-63.875,-93.3125,0
60910,-29.125,-42.875,-100.188,0
60930,-33.0625,-21.8125,-105.562,0
60950,-43.25,-7.4375,-113.812,0
60970,-56,3.25,-114.312,0
60990,-73.5625,21,-109.5,0
61010,-52.625,45.625,-102.5,0
61030,-43,69.1875,-107.188,0
61050,-54,88.0625,-107.312,0
61070,-59.125,104.5,-94.125,0
61090,-52.3125,118.062,-76.8125,0
61110,-41.625,121.375,-55.6875,0
61130,-17.125,110.5,-35.8125,0
61150,-6.25,87.5625,-18.125,0
61170,5.25,75.75,-0.3125,0
61190,18.8125,74.8125,22.625,0
61210,30.1875,74.25,49.8125,0
61230,30.5,63.625,71.375,0
61250,30.25,63.6875,84.8125,0
61270,13.875,60.3125,103.875,0
61290,-10.0625,54,120.625,0
61310,5.9375,48.875,113.75,0
61330,3.25,42.25,109,0
61350,-20.9375,31.75,118.312,0
61360,-21.1875,19.9375,119.75,0
61380,-15.0625,11.1875,116.25,0
61400,-26.4375,6.75,108.188,0
61420,-42.125,-2.625,98.9375,0
61440,-56.0625,-20.5,91.6875,0
61460,-60.25,-41.1875,76.5,0
61480,-50.4375,-64.8125,56.3125,0
61500,-49.0625,-85.125,44.3125,0
61520,-33.75,-103.625,39.75,0
61540,-18.5,-115.375,23.4375,0
61560,-8.0625,-121.875,5.0625,0
61580,-12.625,-127.562,-7.6875,0
61600,-8.3125,-133.875,-17.625,0
61620,-11.4375,-136.812,-26.6875,0
61640,-11.375,-132.125,-39.625,0
61660,-11.5,-123.812,-56.625,0
61680,-9.6875,-114.125,-75.375,0
61700,-8.3125,-105.375,-92.0625,0
61730,-14.25,-97.25,-111.125,0
61760,-36.125,-63.9375,-134.688,0
61780,-38.75,-45.5625,-138.75,0
61800,-31.1875,-22.625,-144.5,0
61810,-45.375,27.5,-134.5,0
61830,-68.8125,70.6875,-117.125,0
61860,-50.3125,97.5,-68.25,0
61880,-44.6875,106.062,-58.8125,0
61900,-43.25,111.688,-42.5,0
61920,-30.75,116.688,-22.125,0
61940,-3.125,118.562,-7.6875,0
61960,0.3125,119.375,-0.1875,0
61980,-1.9375,117.438,8.3125,0
62000,2.375,115,28.125,0
62020,1.875,110.688,49.125,0
62040,-4.9375,101.688,70.625,0
62060,7.0625,93.75,87,0
62080,8.125,85.9375,97.1875,0
62100,-19.6875,68.8125,112.5,0
62120,-43,59.375,132.438,0
62140,-50.25,48.6875,145.625,0
62160,-47,37.3125,134.812,0
62180,-45.5,29.9375,117.938,0
62200,-60.8125,19.3125,104.938,0
62220,-73.875,4.3125,100,0
62240,-61.375,-11.1875,89.875,0
62260,-34.375,-25.5625,70.375,0
62280,-16.9375,-41.4375,57.75,0
62300,-19.5625,-55.8125,49.4375,0
62320,-20.75,-69.4375,40.4375,0
62340,-23,-84.875,32.6875,0
62360,-26.75,-95.75,29,0
62380,-37.375,-105.688,21.625,0
62400,-39.8125,-112.875,8.6875,0
62420,-26.125,-115.312,-5.6875,0
62440,-7.3125,-116,-20.25,0
62460,9.25,-111.5,-27.8125,0
62480,21.3125,-107.438,-39.4375,0
62500,19.625,-100.688,-53.6875,0
62520,13.4375,-90.75,-55.8125,0
62540,19.875,-80.75,-53.625,0
62560,19,-71.1875,-62.875,0
62580,4.5,-59.4375,-70.25,0
62600,-9.5625,-47.5,-63.8125,0
62620,-6.3125,-37.9375,-57.3125,0
62640,3.6875,-37.625,-52.6875,0
62660,9,-36.875,-48.0625,0
62680,13.3125,-30.375,-52,0
62700,10.75,-22.25,-58.5,0
62720,2.6875,-17.9375,-52.375,0
62730,-11.3125,-17.375,-42.125,0
62750,-11.4375,-19.9375,-33.3125,0
62770,1.4375,-19.1875,-28.0625,2001
62790,11.125,-14.125,-25.625,0
62810,11.25,-13.5625,-21.375,0
62830,15.625,-15.75,-18.125,0
62850,18.5625,-15.875,-21.25,0
62870,16.625,-13.875,-23.0625,0
62890,15.75,-10,-20.6875,0
62910,16.5625,-9.4375,-23.1875,0
62930,12.625,-14,-29.0625,0
62950,13.5625,-17.875,-26.25,0
62970,14.625,-16.875,-22.5,0
62990,17.125,-17.125,-21.875,0
63010,24.875,-13.3125,-25.25,0
63030,26.0625,-11.1875,-36.375,0
63050,23.1875,-9.625,-42.6875,0
63070,20.875,-3.5,-45.125,0
63090,15.9375,11.5625,-53.3125,0
63110,23.8125,24.1875,-55.5625,0
63130,32.25,36.125,-47.5,0
63150,37.125,47,-26.5625,0
63170,41.625,55.1875,-12.0625,0
63210,40.3125,110.562,-3.5,0
63230,36.1875,176.875,57.0625,0
63250,64.25,211.625,68.4375,0
63270,88.375,230.188,79.6875,0
63290,46,237.188,102.312,0
63310,25.0625,272.312,105.938,0
63330,38.25,313.062,104.438,0
63350,27.625,309.562,102.188,0
63370,-16.3125,273.25,105.688,0
63390,-69.1875,228.062,79.3125,0
63410,-90.5625,195.062,78.5,0
63430,-99.5625,155.938,97.3125,0
63450,-90,115,118.375,0
63470,-60.3125,72.625,96,0
63490,3.3125,36.125,50.5625,0
63510,54.3125,3.125,34,0
63530,66.6875,-27.0625,39.75,0
63550,44.5,-49.125,38.9375,0
63570,8,-67.1875,28.5,0
63590,-21.75,-80.4375,22.5625,0
63610,-30.875,-87.1875,19.4375,0
63630,-23.75,-90.0625,11.25,0
63650,-12.4375,-89.5,6.0625,0
63670,-2.625,-88.3125,6.125,0
63690,-7.125,-89,8.6875,0
63710,-25.8125,-86.75,3.4375,0
63720,-28.9375,-80.125,-5.9375,0
63740,-22.75,-76.0625,-4.875,0
63760,-6.9375,-70.25,3,0
63790,-5.6875,-55.625,1.875,0
63810,-3.375,-55.0625,-1.25,0
63830,-4.625,-53.9375,-0.875,0
63850,-2.6875,-47.6875,4.625,0
63870,8.3125,-38.375,10.6875,0
63890,10.3125,-33.1875,12.1875,0
63910,3.75,-31.5,13.5625,0
63920,-1.9375,-26.25,14.9375,0
63940,-5.75,-18.375,14.6875,0
63960,-10.9375,-10.8125,15.3125,0
63980,-13.9375,-7,16.125,0
64000,-4,-2.6875,16.1875,0
64020,8.0625,1.1875,20.4375,0
64040,4.1875,2.8125,19,0
64060,-14.3125,5.8125,17.4375,0
64080,-26.5625,10.5625,12.6875,0
64100,-14.125,9.6875,3.875,0
64120,-0.1875,1.875,9.625,0
64140,8.8125,-0.1875,15.875,0
64160,10.625,1.375,13.1875,0
64180,1.4375,1.8125,9.3125,0
64200,-8.625,1.0625,5.25,0
64220,-11.5625,-1.5625,3.125,0
64240,-11.1875,-2.375,3.6875,0
64260,-5.8125,-1.5,3.375,0
64280,-0.75,-2,2.6875,0
64300,-4,-6.6875,0.5,0
64320,-9,-9.875,-4.125,0
64340,-9.125,-15.6875,-2.0625,0
64360,-1.875,-19.5,5.6875,0
64380,8.625,-22.5,4.4375,0
64390,14.75,-29.5625,-3.5,0
64410,14.1875,-34.75,-8.625,0
64430,-1.0625,-41.8125,-5.25,0
64450,-5.625,-53.1875,-4.4375,0
64470,7.8125,-62.1875,-14.25,0
64490,17.0625,-68.1875,-12.375,0
64510,23.6875,-73.3125,-4.1875,0
64530,23.6875,-71.1875,-7.4375,0
64550,24.1875,-63.9375,-17.375,0
64570,7.3125,-59.8125,-13.75,0
64590,-12.6875,-67.25,-4.4375,0
64610,-18.5,-70.625,-13.0625,0
64630,-32.6875,-62.5625,-27.5,0
64650,-51.4375,-48.6875,-32.0625,0
64670,-67.0625,-33.6875,-38.4375,0
64690,-77.3125,-20.0625,-37.875,0
64710,-77.875,-3.5625,-40.625,0
64730,-89.625,36.8125,-59,0
64750,-84.1875,47.5,-63.0625,0
64770,-82.25,61.375,-61.8125,0
64790,-81.5625,76.125,-61.0625,0
64810,-75,96.4375,-58.75,0
64830,-62.875,110.062,-57.25,0
64850,-58.875,116,-58.0625,0
64870,-50.1875,116.75,-56.5625,0
64890,-33.4375,108.875,-48.375,0
64910,-13.375,94.625,-39.3125,0
64930,-0.5625,71.125,-26.4375,0
64950,2.0625,51.8125,-17.0625,0
64970,7.4375,35.5625,-2.875,0
64990,20.5625,16.3125,16.25,0
65010,32.1875,0.6875,33.875,0
65030,36.875,-10.125,42.1875,0
65050,39.5,-18.5625,49.5625,0
65070,47.5625,-20.3125,61.5,0
65090,43.375,-18.875,67.6875,0
65110,38.0625,-21.5625,74.5,0
65130,42.375,-20.4375,79.125,0
65150,51.75,-18.75,76.6875,0
65170,49.9375,-19,72.25,0
65190,46.0625,-13.5,76.625,0
65210,19.375,-7.875,81.875,0
65230,15.25,-4.0625,68.3125,0
65250,23.3125,-2.5,52.9375,0
65290,10.625,2,48.9375,0
65310,-14.375,8.625,48,0
65330,-24.4375,13.1875,34.6875,0
65350,-12.4375,11.1875,24.3125,0
65370,5.25,8.5,26.1875,0
65390,13.9375,6.6875,27.0625,0
65410,9.125,3,22,0
65430,3.3125,-0.8125,19.4375,0
65450,5.25,-4.75,17.625,0
65470,12.25,-5.9375,12.8125,0
65490,12.1875,-0.9375,5.625,0
65510,8.9375,2.625,2.125,0
65530,-0.75,1,6.125,0
65550,-3.5,1.5,8.6875,2000
65570,-1.9375,2,7.125,0
65590,4,2.4375,5.875,0
65610,0.125,3.375,5.125,0
65630,-4.625,2.6875,6.3125,0
65650,-2.1875,-0.3125,7,0
65670,-2.875,-6.75,3.625,0
65690,-2.5,-8.25,-2.0625,0
65710,4.0625,-7.9375,-3.6875,0
65730,4.0625,-13.625,-3.375,0
65750,-2.375,-20.9375,-1.5625,0
65770,13.4375,-28.3125,-1.75,0
65790,15.5625,-32.6875,-3.4375,0
65810,11.375,-35.875,-3.3125,0
65830,8.625,-37.3125,-5.25,0
65850,-2.25,-42.125,-7.125,0
65870,-4,-47.1875,-11.5,0
65890,2.375,-52.5625,-17.375,0
65910,8.625,-57.5625,-21.1875,0
65930,15.1875,-61.5625,-19.5625,0
65950,8.75,-64.375,-18.3125,0
65970,-2.125,-61.875,-19.6875,0
65990,-4.3125,-58.5625,-26.0625,0
66010,-6.6875,-58.75,-30.375,0
66030,-1.8125,-70.1875,-33,0
66050,-2.4375,-76.125,-32.5,0
66070,-8.875,-72,-31.8125,0
66090,-28.5625,-60.25,-44.5625,0
66110,-44.0625,-46.3125,-50.6875,0
66110,-58.875,-29.8125,-54.3125,0
66130,-60,-14.4375,-53.8125,0
66150,-66,2.3125,-51.5625,0
66170,-71.1875,24.4375,-57.3125,0
66190,-72.5,43,-56.3125,0
66210,-77.0625,62.9375,-57.6875,0
66230,-77.375,87.875,-62.4375,0
66250,-77.5625,116.938,-65.75,0
66270,-76.0625,141.875,-70.8125,0
66290,-76.25,158.688,-75.3125,0
66310,-77.875,170,-79.25,0
66330,-73.4375,172.25,-77.8125,0
66350,-65.75,170.062,-71.625,0
66370,-56.25,163.75,-68.875,0
66390,-51.8125,151.938,-69,0
66410,-46.625,138.562,-63.5625,0
66430,-31.875,109.938,-43.25,0
66450,-6.5625,77.125,-25.1875,0
66470,2.6875,60.9375,-2.5,0
66490,-9.8125,56.6875,25.1875,0
66510,3.8125,54.8125,34.75,0
66530,24.8125,43.375,38.875,0
66550,14.0625,31.1875,52.9375,0
66570,4.25,25.75,62.0625,0
66590,4.8125,23.1875,69.125,0
66610,11.875,12.875,75.125,0
66630,10.125,2.1875,77.125,0
66650,-3.3125,-6.125,81.125,0
66670,1.9375,-17.9375,84.3125,0
66690,3.5625,-25.5625,93.625,0
66710,7.9375,-26.625,93.5,0
66730,2.75,-31.8125,79.5625,0
66750,-13.0625,-41.1875,76.125,0
66770,-18.8125,-49.375,76.5,0
66790,-15.5625,-58.8125,74.9375,0
66810,-6.5625,-74.5625,71.5625,0
66830,-13.5625,-92.875,70.0625,0
66850,-18.9375,-107.875,64.6875,0
66870,-28.9375,-122.5,57.125,0
66890,-33.625,-135.5,49.375,0
66910,-33.875,-146.125,38.9375,0
66930,-22.4375,-152.312,25.5,0
66950,-21.1875,-154.188,8.1875,0
66970,-9.6875,-149.688,-11.25,0
66990,-3,-143.25,-27.8125,0
67010,5.375,-134,-47.375,0
67030,13.125,-124.125,-61.625,0
67050,6.0625,-117.875,-74.0625,0
67070,-3.5625,-102.688,-88.3125,0
67090,-9.5,-80.6875,-99.6875,0
67110,-22.9375,-56.6875,-107.062,0
67130,-34.4375,-49.5625,-120.125,0
67150,-53.1875,-37.0625,-135.812,0
67170,-72.4375,-2.375,-137.188,0
67190,-75.75,29.9375,-121.562,0
67210,-80.3125,58.25,-108.312,0
67230,-82.1875,91.8125,-113.438,0
67250,-93.25,124.125,-112.125,0
67270,-104.688,143.062,-99.625,0
67290,-93.3125,149.375,-80,0
67310,-65.375,150.062,-59,0
67330,-37.3125,131.5,-39.8125,0
67350,-9.3125,109.188,-20.0625,0
67370,3.8125,109.688,-6.25,0
67380,-0.4375,110.812,15.5,0
67400,9.125,99.8125,46.5,0
67420,14,90.625,72.375,0
67440,25.375,90.25,80.3125,0
67460,31.9375,83.8125,84.6875,0
67480,14.375,70.375,103.625,0
67500,5.8125,58.6875,115.625,0
67520,-7.4375,47.5625,116.312,0
67540,-29.4375,22.75,119.812,0
67560,-26.5,-1.5,128.5,0
67580,-14.8125,-18.875,125.188,0
67600,-8.1875,-20.5625,109.688,0
67620,-28.75,-31.375,97.1875,0
67640,-52.125,-55.3125,83.1875,0
67660,-48.125,-77.9375,74.75,0
67680,-22.625,-92.3125,62.5,0
67700,-0.0625,-104,47.25,0
67720,-0.1875,-116.938,40.75,0
67740,-16.1875,-129.812,33.375,0
67760,-28.0625,-139.312,23.375,0
67780,-27.875,-144.438,10.0625,0
67800,-23.625,-143.5,-6.625,0
67820,-16.8125,-139.062,-27.875,0
67840,5.3125,-134.625,-51,0
67860,18.3125,-128.188,-73.0625,0
67880,14.875,-118.75,-92.5625,0
67900,-2.25,-105.688,-106.312,0
67920,-31,-93.8125,-120.688,0
67940,-51.3125,-82.75,-128.125,0
67960,-55.8125,-71.4375,-133.562,0
67970,-42.1875,-55.25,-137.25,0
67990,-32.5,-33.8125,-140.188,0
68010,-28.0625,-10.3125,-146.312,0
68030,-49.75,7.8125,-146.938,0
68050,-72.25,30.375,-132.25,0
68070,-79.5625,56.375,-120.062,0
68090,-72.9375,80.5625,-104.312,0
68110,-77.75,106,-84.25,0
68130,-92.1875,121.688,-60.1875,0
68150,-88,121.5,-30.375,0
68170,-57,114.625,2.5,0
68190,-21.1875,107.375,25.5,0
68210,-5.75,106.625,44.5625,0
68230,-5.5625,113.188,62.4375,0
68250,1.3125,104.875,77.625,0
68270,-1.6875,92.3125,92.9375,0
68290,-16.5625,79.625,109,0
68310,-9.75,76.5,121.25,0
68330,-7.0625,76.375,126.188,0
68350,-26.5,66.8125,129.25,0
68370,-38.625,48.3125,144.375,0
68390,-65.5,34.25,150,0
68410,-77.6875,31.1875,139.25,0
68430,-96.875,28.125,125.375,0
68450,-112.125,19.6875,106.188,0
68470,-109.312,-5.375,78.25,0
68490,-85.6875,-33.1875,61.6875,0
68510,-41.875,-58.8125,47.9375,0
68530,-11.9375,-80.8125,26.3125,0
68550,2.875,-100.25,14.8125,0
68570,9.75,-117.688,1.625,0
68590,14,-129.688,-7.25,0
68610,16.75,-137.438,-8.4375,0
68630,15.1875,-136.938,-12.9375,0
68650,6.375,-129.5,-19.1875,0
68670,-8.875,-117.75,-28,0
68690,-7.75,-103.875,-37.1875,0
68710,8.6875,-93.3125,-49,0
68730,20.3125,-79.25,-59.8125,0
68750,11.8125,-66.1875,-59.875,0
68770,11.5,-57,-59.625,0
68790,10.75,-50.5,-55.875,0
68810,7.6875,-46.6875,-49.25,0
68830,14.375,-45.5,-48.5625,0
68850,9.375,-44,-44.375,0
68870,8.5625,-37.9375,-41.5,0
68890,1.875,-30.5625,-43,0
68910,-6.5625,-23.6875,-41.3125,0
68930,-9.75,-16.3125,-33.9375,0
68950,4.0625,-8.375,-33.4375,0
68970,14.25,-4.875,-33.375,0
68990,8.3125,-5.0625,-32.6875,0
69010,-4.6875,-5.75,-31.875,0
69030,-3.875,-3.0625,-25.9375,0
69050,9.8125,-4,-26.625,0
69070,16.375,-5,-30.25,0
69090,13.75,-2.375,-31.4375,0
69110,3.1875,-2,-31.9375,2001
69130,-3.125,-2.8125,-28.5625,0
69150,3.625,-2.5,-22.125,0
69170,2.25,0.125,-16.5625,0
69190,4.0625,2.3125,-12.75,0
69210,12,1.6875,-15.125,0
69230,16.5,-0.25,-12.5,0
69250,17.4375,1.375,-7.9375,0
69270,10,2.125,-6.9375,0
69290,4.25,1.9375,-7.3125,0
69310,2.0625,3.875,-7.375,0
69330,8.0625,5.375,-5.5625,0
69350,10.9375,6,-5.75,0
69370,19.5625,3.9375,-9,0
69390,30.625,7.0625,-15.5625,0
69410,34.1875,16.0625,-23.625,0
69430,43.75,25.5,-28.1875,0
69450,55.25,32.0625,-35.25,0
69470,59.4375,35.1875,-37.8125,0
69490,53.5,39.9375,-27.6875,0
69510,51.3125,50.0625,-7,0
69530,53.875,67.625,2,0
69550,59.8125,87.375,-0.0625,0
69570,60.75,98.3125,4.5625,0
69590,51.4375,109.688,38.1875,0
69610,31.5,132,72.5625,0
69630,13.5625,146.062,92.125,0
69650,8.5625,153.375,104.875,0
69670,29.5625,164.625,117.062,0
69690,50.4375,179.25,115.25,0
69710,63.625,192,110,0
69730,89.625,199.125,110.75,0
69750,136.438,215.375,108.125,0
69770,163.812,213.438,97.4375,0
69790,145.5,214.562,70.9375,0
69810,99.5625,200.312,55.375,0
69830,30.375,176,69.1875,0
69850,-11.4375,144.5,65.8125,0
69870,-41.25,111.875,69.6875,0
69890,-58.3125,79.6875,58.375,0
69910,-46.3125,57,50.3125,0
69930,-21.875,34.1875,52.5,0
69950,-6,9.5625,44.5,0
69970,-10.9375,-11.5,39.75,0
69990,-18.75,-33.625,39.5,0
70010,-29.375,-54.9375,27.3125,0
70030,-36.9375,-68.6875,18.375,0
70050,-41.3125,-78.4375,6.1875,0
70080,-62.8125,-91.6875,4.5625,0
70090,-69.3125,-96.5625,-2.0625,0
70100,-43.0625,-89.875,-27.1875,0
70120,-31.75,-88.125,-29.5625,0
70140,-20.125,-82.4375,-24.125,0
70160,-12.375,-73.875,-20.1875,0
70180,-9.8125,-64,-21.8125,0
70200,-4.4375,-51.625,-16.625,0
70220,1.9375,-48.3125,-13.375,0
70240,10.8125,-42.375,-10.8125,0
70260,19.9375,-32.5,-8.5625,0
70280,22,-22.875,-8.5625,0
70300,7,-16.0625,-8.75,0
70320,-5.625,-11.375,-0.875,0
70340,0.25,-8.5625,7,0
70360,6.75,-5.0625,9.25,0
70380,-0.9375,-0.5,8.5,0
70400,-12.4375,7.3125,10.5,0
70420,-12.4375,7.4375,9,0
70430,-10.5,2.9375,13.875,0
70450,-4.75,2.625,15.9375,0
70470,-1,3.6875,10.125,0
70490,1.0625,7.0625,4.375,0
70510,5.25,9.5,1.5,0
70530,5.1875,5.875,7.4375,0
70550,2.75,5.375,14.75,0
70570,-0.5625,9,16.1875,0
70590,-2.9375,9.6875,14.5,0
70610,-3.125,7.6875,12.3125,2000
70630,-5.3125,9.125,13.1875,0
70650,-6.875,9.4375,11.25,0
70670,-4.4375,6.9375,11.3125,0
70690,-3.25,2.9375,9,0
70710,-1.1875,0.9375,5.75,0
70730,-0.125,-0.875,4.375,0
70750,-2.5,-6.25,7.5625,0
70770,-6.125,-8.3125,12.5,0
70790,1.125,-3.5,2.5625,0
70810,-5.75,-1.375,-7.1875,0
70830,-17.375,-7.75,1.4375,0
70850,-2.6875,-12.625,9.9375,0
70870,7.8125,-12.625,3.75,0
70890,4.4375,-14.1875,-3.4375,0
70910,-0.75,-22.375,-4.75,0
70930,-6.375,-31.375,-4.75,0
70950,-6.0625,-39.3125,-9.0625,0
70970,7.375,-49.0625,-14.125,0
70990,13.6875,-60.375,-17,0
71010,14.25,-69.3125,-15.625,0
71030,14.125,-75.4375,-19,0
71050,6.375,-79.6875,-30.25,0
71070,-1.9375,-83.375,-29.5,0
71090,-2.6875,-85.0625,-17.25,0
71110,-1.5625,-80.4375,-8.8125,0
71130,7.75,-76.3125,-7.3125,0
71150,5.75,-74.0625,-16.6875,0
71170,-2.6875,-70.9375,-28.6875,0
71190,-23.3125,-72.5,-29.125,0
71210,-41.9375,-66.5625,-22.125,0
71230,-45.5625,-51.0625,-18.5625,0
71250,-39.5,-29.25,-28.25,0
71270,-48.3125,-14.0625,-45,0
71290,-63.0625,-1.8125,-53.5,0
71310,-66.5,7.8125,-53.625,0
71330,-65.6875,18.0625,-55.0625,0
71360,-77.125,80.0625,-79.125,0
71370,-81.6875,101.625,-84.6875,0
71390,-77,125.938,-82.625,0
71410,-67.375,154.562,-87.1875,0
71430,-66.75,176.812,-94,0
71450,-66.0625,187.625,-93.125,0
71470,-65.875,185.938,-75,0
71490,-54.5,182.125,-61.5625,0
71510,-38.3125,171.125,-55.25,0
71530,-30.9375,149.688,-41.6875,0
71550,-18.4375,112.125,-35.625,0
71570,-5.25,89.5,-9.625,0
71590,-10.125,81.1875,30.5,0
71610,9,68.375,50,0
71630,9.875,66.75,40.3125,0
71650,6.9375,64.5625,39.8125,0
71670,1.3125,47.0625,56,0
71690,-0.9375,32.9375,71.6875,0
71710,16.9375,33.6875,66.3125,0
71730,39.5,34,49.625,0
71750,40.875,17.4375,48.625,0
71770,31.375,9.9375,65.75,0
71790,29.125,-0.5625,84.0625,0
71810,20.6875,-17.1875,88.4375,0
71830,5.1875,-30.875,91.4375,0
71850,-15.6875,-46.8125,98.125,0
71870,-37.6875,-65.5625,103.5,0
71890,-38.5,-81,101.25,0
71910,-37,-98.875,87.5,0
71930,-48.0625,-120.562,79.125,0
71950,-57.6875,-141.25,72.3125,0
71970,-46.9375,-156.5,63.1875,0
71990,-34,-164.25,51.5625,0
72010,-24.5625,-165.25,38.9375,0
72030,-21.0625,-163.75,20,0
72050,-20.25,-159.438,1,0
72070,-25.3125,-157,-18.9375,0
72090,-23.1875,-150.625,-39.5,0
72110,-12.75,-141.125,-56.9375,0
72130,1.25,-125.75,-72.3125,0
72150,3.4375,-106.812,-90.0625,0
72170,-11.25,-89,-98.125,0
72190,-26.6875,-71.375,-106.625,0
72210,-40.375,-41.375,-133.875,0
72230,-51.625,-20.5625,-156.312,0
72250,-53.3125,-5.6875,-164.062,0
72270,-74.4375,8.625,-152.25,0
72290,-75.9375,32.6875,-143.812,0
72310,-71.5625,64.0625,-146.688,0
72330,-85.4375,91.625,-141,0
72350,-108.938,120.25,-115.188,0
72370,-103.125,142.688,-84.875,0
72390,-74.875,156.875,-62,0
72410,-50,154.938,-42.125,0
72430,-37.1875,126.75,-13.125,0
72450,-14.9375,111.25,19.4375,0
72470,8.1875,100.938,50.5,0
72490,27.5625,96.375,72.4375,0
72510,26.25,94.0625,86.6875,0
72530,31.5625,91,92.25,0
72550,26.1875,89.4375,98.5625,0
72570,14.875,84.3125,109.25,0
72590,15.8125,91.375,106.438,0
72610,30.75,88.5625,102.688,0
72630,27.5625,80.875,114.312,0
72650,24,79.5625,118,0
72670,10,56.25,100.438,0
72690,-13.9375,16.9375,101.625,0
72710,-19.25,-23.375,103.375,0
72730,-12.25,-55.0625,94.5625,0
72750,-17.4375,-87.125,79.6875,0
72770,-37.25,-117.438,72.9375,0
72790,-62.375,-137.812,66.5625,0
72810,-64.875,-153.375,57.125,0
72830,-57.3125,-159.25,52.875,0
72850,-48.625,-161.188,42.5625,0
72870,-45.6875,-161.625,26.4375,0
72890,-46.6875,-161.125,6.0625,0
72910,-21.375,-156.938,-18.75,0
72930,10.9375,-152.125,-39.3125,0
72950,15.625,-146.5,-55.75,0
72970,5,-139.125,-70.5625,0
72990,-8.125,-130.75,-82.625,0
73010,-60.875,-73.4375,-120.812,0
73030,-58.625,-55.625,-127.875,0
73050,-55.8125,-43.0625,-143.688,0
73070,-64.5625,-25.1875,-147.125,0
73090,-73.4375,9.375,-137.5,0
73110,-86.4375,53.8125,-122.75,0
73130,-110.188,87.9375,-102.375,0
73150,-103.562,101.562,-94,0
73170,-97.8125,109.125,-99.625,0
73190,-96.6875,113.562,-77.1875,0
73210,-67.375,114.25,-31.1875,0
73230,-45.5625,120.125,0.25,0
73250,-29.3125,116,-6,0
73270,-13,113.188,-8.4375,0
73290,-12.0625,101.5,10.9375,0
73310,-13.625,93.375,30.8125,0
73330,-2.3125,92.5625,41.1875,0
73340,-9.0625,96.6875,52.125,0
73360,-18.1875,94.0625,73.1875,0
73380,-12.5625,83.75,101.5,0
73400,-1.375,73.25,120.375,0
73440,-40.75,64.625,124.875,0
73460,-68.25,47.375,128.812,0
73480,-75.1875,31,134.062,0
73500,-64.3125,23.4375,120.938,0
73520,-65.1875,12.9375,99.8125,0
73540,-66.8125,-7.5625,96.4375,0
73560,-59.4375,-26.3125,87.75,0
73580,-41.1875,-38.0625,71.0625,0
73600,-23.75,-51.9375,48.375,0
73620,-16.375,-70.75,35.375,0
73640,-5.75,-87.375,30.3125,0
73660,14.125,-102.438,20.375,0
73680,22,-112.562,12.375,0
73700,20.25,-120.75,2.375,0
73720,3,-128.062,-5.8125,0
73740,-10.9375,-131.938,-10.4375,0
73760,-2.0625,-133.062,-14.9375,0
73780,13.9375,-130.875,-26.6875,0
73800,30.375,-121.562,-41.3125,0
73820,41.5,-113.812,-62.625,0
73840,42.125,-105,-82.8125,0
73860,41.6875,-99.25,-98.3125,0
73880,45.9375,-93.875,-108.5,0
73900,41,-82.875,-115.562,0
73920,40.375,-68.875,-113.062,0
73940,36.6875,-54,-115.25,0
73960,10.875,-45,-108.625,0
73980,-11.125,-36.875,-87.0625,0
74000,-4,-32.0625,-62.75,0
74020,-0.4375,-19.8125,-42.3125,0
74040,-12.625,-12.8125,-22.875,0
74060,-24.0625,-5.25,-6.5,0
74080,-31.9375,-4.875,8.125,0
74100,-19.25,-3.0625,19.5625,0
74120,-9.8125,1.625,22.0625,0
74140,-6.8125,2.6875,20.25,0
74160,-4.75,1.625,16.5,2001
74180,-6.5,1.625,4.6875,0
74200,-5.8125,3.0625,-4.625,0
74220,5.75,-0.875,-8.25,0
74240,13.75,-6.1875,-8.0625,0
74260,22.375,-2.5625,-2.125,0
74280,15.625,1.8125,0.25,0
74300,4.6875,0.625,2,0
74320,-2,1.8125,7.625,0
74340,-7.8125,3.375,13.3125,0
74360,-3.5625,6.5,13.8125,0
74380,4.625,9.5625,4.1875,0
74400,9.875,10.625,-6.9375,0
74420,10.375,10.0625,-18,0
74440,17.5625,10.5,-29.5625,0
74460,24.3125,18.625,-40.4375,0
74480,34.0625,30,-44.6875,0
74500,33.8125,41.9375,-40.4375,0
74520,25.0625,50.5625,-27.875,0
74540,8.6875,61.3125,-14.5625,0
74560,20.8125,82.4375,3.4375,0
74580,35.1875,110.438,23.25,0
74600,23.6875,136.562,35.75,0
74620,16.625,158.938,42.1875,0
74640,-0.8125,176.75,65.1875,0
74660,13.4375,200,97.5625,0
74680,59.125,229.312,111.5,0
74700,60.1875,251.938,107.625,0
74720,45.5,281,96.8125,0
74740,43.5625,307.062,94,0
74760,46.375,301.875,105.688,0
74780,21.8125,256.5,129.688,0
74800,-0.625,232.625,143,0
74820,-41.5,225.875,123.25,0
74840,-85.8125,186.188,108.938,0
74860,-91.0625,127.188,109.812,0
74880,-67.25,74.375,96.25,0
74900,-26.5,33.6875,63.625,0
74920,13.125,-1.875,42.9375,0
74940,31.25,-36.8125,36.875,0
74960,17.4375,-66.625,24.875,0
74980,-6.875,-89.0625,6.5,0
75000,-24.8125,-104.562,-0.625,0
75020,-35.4375,-111.812,-4.4375,0
75040,-41.4375,-117.312,-13.4375,0
75060,-39,-119.188,-18.4375,0
75070,-33,-120.125,-18.8125,0
75090,-17.3125,-121.5,-18.6875,0
75110,-6.4375,-117.75,-16.1875,0
75130,-1.75,-107.875,-17.375,0
75150,1.5625,-96.3125,-19.3125,0
75170,0.6875,-87.9375,-17,0
75180,4.0625,-78.375,-13.875,0
75200,14.75,-70.1875,-10.875,0
75220,14.875,-63.5,-8.5625,0
75240,17.8125,-62.5,-4.8125,0
75260,25.125,-61.4375,-2.75,0
75280,28.1875,-54.4375,-1.8125,0
75300,30.875,-41.9375,-6.9375,0
75320,24.4375,-32.875,-4.8125,0
75340,13.1875,-27.5,2.375,0
75360,2.875,-20.625,5.3125,0
75380,-4.25,-13.875,3.1875,0
75400,-5,-9.1875,6.6875,0
75420,-1.9375,-5.5,9.125,0
75440,-2.125,-2.8125,10.5,0
75460,-2.875,0.25,10.75,0
75480,-2.5,-0.25,10.125,0
75500,-5.625,-0.0625,12.6875,0
75520,-6.8125,4.5625,12.4375,0
75540,-8.75,10.875,8.375,0
75560,-5.5,15.75,5.0625,0
75580,-12.3125,16.1875,7.6875,0
75600,-16.3125,10.5625,13.75,0
75620,-3.6875,7.125,19.0625,0
75640,6.4375,9.9375,14.8125,0
75660,8.1875,13.3125,9.25,2000
75680,-6.8125,11.375,15,0
75700,-16.9375,8.375,19.1875,0
75720,-14.9375,6.6875,15.625,0
75740,-2.625,5.25,8.4375,0
75760,-4.4375,6.8125,-0.1875,0
75780,-11.0625,-4.4375,-0.1875,0
75800,-8.25,-19.1875,1.375,0
75820,-4.375,-32.4375,-1.0625,0
75840,-8.625,-41.5,-3.25,0
75860,-4.1875,-53.0625,-3.75,0
75880,6.75,-68.25,-7.9375,0
75900,17.6875,-80.375,-14.125,0
75920,19.375,-88.8125,-20.5625,0
75940,10.1875,-93.4375,-30.8125,0
75960,3.6875,-94.5625,-34.6875,0
75980,0.9375,-93.875,-28.75,0
76000,-12.6875,-89.8125,-16.75,0
76020,-11.9375,-80,-12.0625,0
76040,-11.8125,-72.75,-18.9375,0
76060,-14.8125,-78.0625,-20.875,0
76080,-37.8125,-70.9375,-22.8125,0
76100,-48.25,-52.3125,-30.375,0
76120,-47.375,-40.1875,-47.5625,0
76140,-54.375,-25.0625,-53.4375,0
76160,-70.3125,1.0625,-51.75,0
76180,-78.625,28.625,-59.4375,0
76200,-84.6875,51.25,-62,0
76220,-88.25,79.125,-61.5,0
76240,-86.5625,102.688,-68.125,0
76260,-87.0625,121.625,-76.8125,0
76280,-85.3125,142,-85.1875,0
76300,-86,159.688,-94.5625,0
76320,-83.8125,175.562,-100.062,0
76340,-75.9375,182.562,-102.875,0
76360,-68.1875,174.938,-102.125,0
76380,-54.1875,162.625,-105.688,0
76400,-34,142.438,-94.25,0
76420,-18.3125,115.438,-67.25,0
76440,-7.0625,89.0625,-36.25,0
76460,3.75,77.3125,-7.375,0
76480,25.8125,62.5,14.8125,0
76500,43.6875,46.4375,35.5625,0
76520,16.3125,44.3125,61.25,0
76530,7.5625,38.6875,76.0625,0
76550,27.25,31,79.625,0
76570,17.875,19.75,98.5625,0
76590,2.875,5.3125,111.375,0
76610,-15.5,-5.3125,117.438,0
76630,-4.1875,-8.625,114.375,0
76650,3.125,-14.8125,108.75,0
76670,-19.0625,-26.3125,107.375,0
76690,-39.75,-46,108.25,0
76710,-49.1875,-70.0625,104.688,0
76730,-45.625,-92,96.6875,0
76750,-29.75,-104.125,83.75,0
76770,-23.5,-121.625,70.5625,0
76790,-24.875,-136.062,59.6875,0
76810,-27.4375,-151.438,48.375,0
76830,-24.75,-160.875,35.5,0
76850,-13.5625,-161.562,16.875,0
76870,-7.6875,-159.562,-10.0625,0
76890,-4.5625,-153.875,-31.25,0
76910,6.5,-143.312,-47.8125,0
76930,7.875,-132.125,-64.6875,0
76950,11.8125,-116.938,-80.5,0
76970,7.625,-93.25,-96.0625,0
76990,-16.125,-67.625,-111.812,0
77010,-43.3125,-37.875,-113.812,0
77030,-59,0.625,-113.25,0
77050,-48.25,33.9375,-106.5,0
77070,-49.4375,51.8125,-117.875,0
77090,-65,74.6875,-130.625,0
77110,-91.8125,104.312,-132.312,0
77130,-100.5,127.375,-125.375,0
77150,-93.6875,142.875,-118.25,0
77170,-67.3125,146.25,-116,0
77190,-46.3125,132.625,-118.938,0
77210,-25.3125,112.438,-93.5625,0
77230,-11.0625,108.812,-53,0
77250,-3,116.75,-22.375,0
77270,0.9375,110.375,11.9375,0
77290,6.75,99.0625,43.375,0
77310,26.4375,84.25,61.625,0
77330,31.875,71.9375,83.125,0
77350,25.0625,72.625,93.6875,0
77370,0.875,67.5625,99.25,0
77390,-2.6875,56,102.562,0
77410,-13.5,37.875,115.438,0
77430,-20.4375,17.125,129.625,0
77450,-26.9375,0.9375,125.562,0
77470,-32.5,-12.1875,110.125,0
77490,-37.25,-39.1875,106.438,0
77510,-42.25,-71.125,115.125,0
77530,-35.4375,-91.0625,112.688,0
77550,-32.625,-106.688,88.9375,0
77570,-35.0625,-124.375,71.5,0
77590,-35.1875,-141.438,66.4375,0
77610,-32.0625,-152.25,55.1875,0
77630,-16.875,-151,34.375,0
77650,-3.875,-146.375,8.5625,0
77670,1.8125,-139.125,-14.3125,0
77690,11.0625,-129.5,-41.5625,0
77710,16,-119.438,-57.4375,0
77730,17.125,-105.812,-71.25,0
77750,19.9375,-85.375,-100.625,0
77770,7.0625,-69.5625,-124.25,0
77790,0.875,-57.875,-134.375,0
77810,-3.25,-48.375,-137.812,0
77830,-17.75,-39.4375,-143.938,0
77850,-33.125,-21.75,-153.5,0
77870,-38.75,-1.5625,-160.5,0
77890,-56.375,16.75,-164.875,0
77910,-77,36.75,-165.062,0
77930,-84.375,60.875,-154.312,0
77950,-67.5,79.9375,-138.75,0
77970,-50.4375,92.5,-127,0
77990,-46.3125,99.4375,-106.125,0
78010,-45.875,105.625,-71.3125,0
78030,-36.25,106.062,-21.625,0
78050,-26.0625,105.938,27.25,0
78070,-20,106,57.875,0
78090,-20.5625,102,82,0
78110,-12.9375,88,111.375,0
78130,0,77.625,133.688,0
78150,13.6875,73.25,146.25,0
78170,4.25,61.5625,154.688,0
78190,-13.9375,46.625,155.688,0
78210,-22.4375,44.1875,147.062,0
78230,-50.8125,38.4375,136.875,0
78250,-80.75,19.3125,124.625,0
78270,-84.25,-2.5625,112.75,0
78290,-55.1875,-22.8125,102.438,0
78310,-28.9375,-31.25,86.125,0
78330,-6.9375,-40.875,71.6875,0
78350,-11.6875,-55.75,62.6875,0
78370,-20.3125,-74.1875,49.5,0
78390,-15.75,-92.0625,37.6875,0
78410,3,-106.875,31.9375,0
78430,25.25,-115.562,20.1875,0
78450,39.3125,-117,7.4375,0
78470,38.5,-115.062,-6.75,0
78490,23.5,-114.375,-25.75,0
78510,24.375,-109.875,-41.875,0
78530,35.4375,-104.125,-52,0
78550,43.375,-98.375,-61.4375,0
78570,41.6875,-93.375,-61.8125,0
78590,37.25,-90.0625,-61.6875,0
78610,30.125,-82.75,-68.8125,0
78630,11.5,-72.125,-76.5,0
78650,-13.5,-61.625,-70.1875,0
78670,-25.8125,-54.0625,-58.1875,0
78690,-19.4375,-48.0625,-55.25,0
78710,-7.5,-39.5,-55.25,0
78730,2.625,-31.625,-43.9375,0
78750,1.875,-27.5625,-37.125,0
78770,2.25,-26.375,-24.9375,0
78790,9.5625,-24,-16.6875,0
78810,8.9375,-18.6875,-13.125,0
78830,-0.25,-12.25,-15.4375,2001
78850,1.9375,-10.8125,-13.4375,0
78870,17.1875,-11.125,-9.125,0
78890,21.1875,-12.3125,-4.125,0
78910,27.875,-11.5625,2.25,0
78930,29.5625,-7.125,3.3125,0
78950,14,0.625,-9.0625,0
78970,1,13.8125,-19.25,0
78990,-1.625,19.5625,-20.0625,0
79010,7.5,16.25,-19.75,0
79030,18.625,15.375,-19.5625,0
79050,26,25.5625,-24.625,0
79070,23.5,37.6875,-31.9375,0
79090,16,48.25,-34.25,0
79110,6.0625,59.875,-33.5625,0
79130,3.125,70.5,-30.9375,0
79150,2.6875,84.9375,-19.4375,0
79170,3.5625,102.812,-8.0625,0
79180,-13.5625,115,33,0
79200,-45.5625,166.438,96.6875,0
79220,-53.4375,183.812,118.562,0
79240,-47.8125,182.938,139.625,0
79260,-21.0625,191.812,149.125,0
79280,4.125,203.5,152.312,0
79300,24.5,193.438,134.625,0
79320,7.9375,162.312,109.625,0
79340,-6.375,133,96,0
79360,8.9375,98.5625,88.25,0
79380,31.8125,57.9375,78.4375,0
79400,50.4375,25.625,64.25,0
79420,56.625,2,51.375,0
79440,50.1875,-20,43,0
79460,18.5,-37.9375,42.9375,0
79470,2.0625,-48,34.6875,0
79490,1,-52.6875,11.1875,0
79510,5.8125,-55.1875,-0.5625,0
79530,9.9375,-54.625,2.6875,0
79550,12.3125,-48.4375,6.75,0
79570,10.9375,-38.75,7.25,0
79590,9.0625,-26,4.875,0
79610,9.3125,-12.0625,4.4375,0
79630,7.875,1,12.625,0
79650,5.6875,16.625,19.875,0
79660,-0.5,30.25,20.1875,0
79680,1.25,42,15.25,0
79700,6.375,48.4375,11,0
79720,8.375,50.875,7.6875,0
79740,2.375,50.25,8.125,0
79760,-2.8125,49.5625,7.5,0
79780,-1.8125,50.5625,4.6875,0
79800,7.125,53,1.9375,0
79820,8.75,55.75,2.8125,0
79840,8.8125,60,2.125,0
79860,5.6875,64.375,-1.25,0
79880,0.75,66.9375,-2.8125,0
79900,-2.1875,70.8125,-1.1875,0
79920,-5.75,76.8125,3.25,0
79940,-12.875,81.3125,6.625,0
79960,-16.5,78.5625,5.0625,0
79980,-16.5,70.4375,-0.875,0
80000,-9.5625,68.9375,-2.0625,0
80020,7.375,70.875,-2.3125,0
80040,21.375,59.6875,-10.125,0
80060,28.3125,51.0625,-19.1875,0
80080,32.625,46.875,-21.625,0
80100,36,40.375,-18,0
80120,40.875,29.625,-14.6875,0
80140,38.375,21.4375,-14.0625,0
80160,31.8125,20.4375,-13.375,0
80180,20.6875,17.75,-8.5625,0
80200,9.375,11.25,-0.125,0
80220,10.375,4.0625,8.0625,0
80240,14.75,4.1875,13.8125,0
80260,21.875,4.9375,9.0625,0
80280,27.4375,5.0625,4.3125,0
80300,25.3125,2.125,7.8125,0
80320,23.625,-1.0625,9.75,0
80340,21.0625,-4.9375,9.4375,0
80360,22.6875,-6.125,9.3125,0
80380,27.375,-8.5625,9.375,0
80400,31,-10.0625,7.9375,0
80420,32.25,-12.75,9.375,0
80440,31.4375,-16.5625,12.1875,0
80460,35.9375,-20.75,13.875,0
80480,37.125,-25.75,19,0
80500,39.3125,-29.875,24.875,0
80520,36.0625,-33.25,29.5625,0
80530,33.1875,-34.5625,34.0625,0
80550,30.6875,-38.625,37.375,0
80570,29.75,-44.5625,41.5625,0
80590,26.1875,-49.6875,45.25,0
80610,20.625,-50,49.25,0
80630,15.1875,-48.875,49.875,0
80650,14.4375,-44.5625,47.625,0
80670,21.1875,-42.625,47.5,0
80680,29.375,-44.5,47.5625,0
80680,34.0625,-41.375,49.4375,0
80690,36.3125,-37.25,50.125,0
80710,40.3125,-32.5625,49.8125,0
80730,44.25,-29.875,51.8125,0
80750,46.3125,-30.3125,55.125,0
80770,45.375,-29,55.5,0
80790,40.9375,-25.875,54.0625,0
80810,38,-17.3125,51.8125,0
80830,37.375,-12.0625,50.6875,0
80850,33.3125,-9.9375,48.5,0
80870,30.25,-6,46.0625,0
80890,28.5,0.75,42.5,0
80910,27.8125,3.0625,40.8125,0
80930,27.6875,4.4375,37.875,0
80950,25.125,10.25,33.125,0
80970,16.6875,16.3125,24.5625,0
80990,34.625,8.25,8.5,0
81010,27.5,7.4375,-3.875,0
81070,-4.5,-3.25,-9.875,0
81080,20.125,-12.125,-4.4375,0
81110,-1.5,-10.6875,-0.5625,0
81130,-17.0625,-6.625,-1.875,0
81160,-9.5625,17.25,-3.0625,0
81190,-1.875,21.0625,6.75,0
81210,-3.6875,20.375,9.875,0
81230,-12.25,19.6875,8.875,0
81250,-17.125,19.375,4.375,0
81270,-18.375,15.625,0.9375,0
81290,-12.5,9.625,-1.625,0
81310,-5.75,1.8125,-4.0625,0
81330,-6.875,-2.875,-5.875,0
81350,-8.25,-5.4375,-7.25,0
81370,-5.625,-9.1875,-7.1875,0
81390,1.625,-8.5,-6.5,0
81400,1.5625,-8.75,-2.5,0
81420,-4.125,-7.3125,0.125,0
81440,-4.25,-2.9375,1.25,0
81460,-1.1875,0.8125,2.125,0
81480,0.6875,2.9375,3.6875,0
