Timestamp, Angle x, Angle y, Angle z, Marker
50,-0.972053,0.34452,-1.65446,0
70,-0.954332,0.3467,-1.65154,0
90,-0.942891,0.353095,-1.65159,0
110,-0.943836,0.354976,-1.65362,0
130,-0.960603,0.351724,-1.65307,0
150,-0.97986,0.347744,-1.6562,0
170,-0.978365,0.339696,-1.6658,0
190,-0.955553,0.357466,-1.67142,0
190,-0.941477,0.378583,-1.65473,0
220,-0.962749,0.355099,-1.64175,0
240,-0.983978,0.338346,-1.63557,0
250,-0.961453,0.332969,-1.62734,0
260,-0.930539,0.325211,-1.6228,0
280,-0.913624,0.316797,-1.6175,0
300,-0.912244,0.31455,-1.61524,0
320,-0.923702,0.319347,-1.62021,0
340,-0.939271,0.33011,-1.62813,0
360,-0.950802,0.338593,-1.63638,0
380,-0.963499,0.346332,-1.64478,0
400,-0.961341,0.357327,-1.65497,0
420,-0.951662,0.39054,-1.65306,0
440,-0.959598,0.398304,-1.64413,0
460,-0.99159,0.372228,-1.63836,0
480,-0.995824,0.360903,-1.63228,0
500,-0.966786,0.361008,-1.62634,0
520,-0.941744,0.359534,-1.62266,0
540,-0.932135,0.35163,-1.61568,0
560,-0.936299,0.339673,-1.60972,0
580,-0.938042,0.334599,-1.60599,0
600,-0.932753,0.339818,-1.60681,0
620,-0.931216,0.344881,-1.61577,0
640,-0.937599,0.352149,-1.62704,0
660,-0.938342,0.364323,-1.6368,0
680,-0.935435,0.391164,-1.64731,0
700,-0.989791,0.37356,-1.64751,0
720,-0.969285,0.36729,-1.64609,0
740,-0.947089,0.370037,-1.64001,0
760,-0.940761,0.370886,-1.62913,0
780,-0.953927,0.360938,-1.62072,0
800,-0.968099,0.347388,-1.61744,0
820,-0.968655,0.340268,-1.6141,0
840,-0.953802,0.336155,-1.60972,0
860,-0.938657,0.334857,-1.6071,0
880,-0.931841,0.335908,-1.6062,0
900,-0.932224,0.338257,-1.60532,0
920,-0.928814,0.344107,-1.60315,0
920,-0.932538,0.360021,-1.6159,0
940,-0.941654,0.373661,-1.6289,0
960,-0.937205,0.386912,-1.64315,0
980,-0.931275,0.401852,-1.63599,0
1000,-0.949533,0.374523,-1.62693,0
1020,-0.970888,0.347578,-1.61851,0
1040,-0.961265,0.329471,-1.61366,0
1060,-0.947243,0.322094,-1.61154,0
1080,-0.940345,0.313674,-1.60653,0
1100,-0.941113,0.29816,-1.60171,0
1120,-0.941424,0.28315,-1.5997,0
1140,-0.937221,0.27265,-1.59775,0
1160,-0.93091,0.264556,-1.59493,0
1180,-0.926495,0.259969,-1.59231,0
1200,-0.923481,0.260148,-1.59156,0
1220,-0.92112,0.267854,-1.59266,0
1240,-0.915206,0.281969,-1.59436,0
1260,-0.909654,0.300874,-1.59716,0
1280,-0.915341,0.320417,-1.60659,0
1300,-0.94162,0.345383,-1.61821,0
1320,-0.956569,0.377752,-1.62413,0
1340,-0.954335,0.414695,-1.63022,0
1360,-0.954954,0.410002,-1.6363,0
1380,-0.986552,0.381413,-1.6364,0
1400,-0.979655,0.370632,-1.64082,0
1430,-0.962308,0.396269,-1.62414,0
1450,-0.982089,0.382878,-1.61394,0
1470,-0.995652,0.361898,-1.60883,0
1490,-0.983848,0.348378,-1.60621,0
1510,-0.955746,0.339532,-1.60371,0
1530,-0.930082,0.330457,-1.59984,0
1550,-0.918259,0.31807,-1.59688,0
1570,-0.919575,0.304985,-1.59487,0
1590,-0.921699,0.295311,-1.59324,0
1610,-0.916974,0.292167,-1.59094,0
1630,-0.906264,0.297246,-1.58983,0
1650,-0.895344,0.309049,-1.59173,0
1670,-0.905126,0.320893,-1.60111,0
1680,-0.947412,0.360691,-1.6157,0
1700,-0.926151,0.384784,-1.62277,0
1720,-0.899488,0.43005,-1.62023,0
1740,-0.903015,0.423373,-1.61407,0
1760,-0.937629,0.40505,-1.60753,0
1780,-0.936538,0.391942,-1.61035,0
1800,-0.9222,0.392664,-1.61425,0
1820,-0.912214,0.395697,-1.61114,0
1840,-0.912671,0.394019,-1.60582,0
1860,-0.921839,0.382064,-1.60417,0
1880,-0.927518,0.367397,-1.60086,0
1900,-0.921467,0.352342,-1.59691,0
1920,-0.904077,0.334086,-1.59518,0
1950,-0.848689,0.271769,-1.59338,0
1970,-0.842595,0.253787,-1.59151,0
1990,-0.840338,0.240037,-1.59065,0
2010,-0.838501,0.232201,-1.59054,0
2030,-0.833638,0.232037,-1.59129,0
2050,-0.827551,0.242221,-1.59288,0
2070,-0.820612,0.263227,-1.59784,0
2090,-0.826389,0.293035,-1.60736,0
2110,-0.852833,0.327592,-1.61823,0
2130,-0.891597,0.371436,-1.62579,0
2150,-0.921816,0.422402,-1.63223,0
2170,-0.918822,0.455895,-1.63886,0
2190,-0.915068,0.450392,-1.63891,0
2220,-0.91307,0.392901,-1.62285,0
2240,-0.885064,0.38585,-1.62822,0
2260,-0.862123,0.397919,-1.63593,0
2280,-0.856193,0.416333,-1.64044,0
2320,-0.8948,0.435053,-1.65761,0
2340,-0.909881,0.434956,-1.66621,0
2360,-0.905814,0.432455,-1.67206,0
2380,-0.888965,0.42777,-1.67727,0
2390,-0.872416,0.424027,-1.68202,0
2420,-0.863777,0.425159,-1.68247,0
2430,-0.883364,0.428583,-1.66723,0
2430,-0.889083,0.429331,-1.67108,0
2450,-0.888533,0.429456,-1.67684,0
2470,-0.882899,0.429054,-1.68076,0
2490,-0.877048,0.42919,-1.681,0
2510,-0.874408,0.429878,-1.67728,0
2530,-0.878218,0.429837,-1.67298,0
2550,-0.887625,0.428445,-1.67086,0
2570,-0.895896,0.427551,-1.67017,0
2590,-0.900688,0.428648,-1.67068,0
2610,-0.906816,0.435079,-1.66642,0
2630,-0.914817,0.448951,-1.65593,0
2670,-0.935884,0.438505,-1.6487,0
2690,-0.928201,0.433287,-1.64455,0
2710,-0.92957,0.427534,-1.64139,0
2730,-0.938963,0.424837,-1.63807,0
2750,-0.94179,0.423449,-1.6409,0
2770,-0.923966,0.42258,-1.64993,0
2790,-0.917986,0.433874,-1.64964,0
2810,-0.929035,0.432374,-1.64155,0
2830,-0.950257,0.428402,-1.63893,0
2850,-0.953364,0.430309,-1.63833,0
2870,-0.947945,0.438284,-1.63935,0
2890,-0.944669,0.448386,-1.64007,0
2910,-0.951259,0.453574,-1.64385,0
2930,-0.95896,0.453448,-1.64931,0
2950,-0.963978,0.452144,-1.65311,0
2970,-0.958777,0.451625,-1.65333,0
2990,-0.955205,0.448173,-1.65195,0
3010,-0.954337,0.442787,-1.647,0
3030,-0.956613,0.434975,-1.64366,0
3050,-0.961882,0.430252,-1.64251,0
3070,-0.958013,0.42528,-1.6461,0
3090,-0.93536,0.417284,-1.65954,0
3110,-0.91753,0.423081,-1.66938,0
3130,-0.914272,0.432005,-1.6676,0
3150,-0.93447,0.427581,-1.66371,0
3170,-0.95349,0.427022,-1.66017,0
3180,-0.941512,0.452341,-1.6576,0
3200,-0.942413,0.45226,-1.65374,0
3220,-0.945593,0.447942,-1.65173,0
3240,-0.944234,0.445052,-1.65126,0
3260,-0.939832,0.443565,-1.652,0
3280,-0.937133,0.443189,-1.65211,0
3300,-0.938411,0.442774,-1.65033,0
3320,-0.940173,0.442285,-1.6473,0
3340,-0.939057,0.443391,-1.64571,0
3360,-0.936736,0.445467,-1.64584,0
3380,-0.935378,0.444148,-1.64675,0
3400,-0.934788,0.439129,-1.64746,0
3430,-0.930676,0.42656,-1.63867,0
3450,-0.935264,0.420064,-1.63736,0
3470,-0.926179,0.408672,-1.64643,0
3490,-0.917438,0.415806,-1.65313,0
3510,-0.913272,0.418028,-1.65194,0
3530,-0.927995,0.413576,-1.65178,0
3550,-0.932197,0.413143,-1.65322,0
3570,-0.930649,0.417739,-1.65891,0
3590,-0.922642,0.427398,-1.66293,0
3610,-0.916531,0.436677,-1.66461,0
3640,-0.931543,0.442065,-1.64243,0
3660,-0.935315,0.448814,-1.6432,0
3680,-0.942484,0.454555,-1.64981,0
3700,-0.950035,0.454875,-1.65718,0
3720,-0.944411,0.449924,-1.65965,0
3740,-0.937106,0.439554,-1.65633,0
3760,-0.935445,0.428526,-1.64855,0
3780,-0.944105,0.421817,-1.64382,0
3800,-0.950265,0.420911,-1.64024,0
3820,-0.942583,0.420077,-1.64599,0
3840,-0.93062,0.428421,-1.65944,0
3860,-0.929046,0.442484,-1.6562,0
3890,-0.955178,0.448801,-1.643,0
3910,-0.944609,0.453316,-1.64918,0
3930,-0.941776,0.450643,-1.65261,0
3950,-0.941814,0.445664,-1.65109,0
3970,-0.94107,0.440681,-1.64672,0
3990,-0.943919,0.436513,-1.64183,0
4010,-0.948523,0.434047,-1.63981,0
4030,-0.94445,0.429899,-1.644,0
4050,-0.929981,0.429958,-1.6537,0
4070,-0.92559,0.439067,-1.65061,0
4090,-0.937311,0.431197,-1.64519,0
4110,-0.950147,0.429011,-1.64315,0
4130,-0.948778,0.435183,-1.64395,0
4160,-0.939406,0.451828,-1.64551,0
4180,-0.947022,0.455846,-1.64852,0
4200,-0.955739,0.456192,-1.65099,0
4220,-0.95819,0.454301,-1.65127,0
4240,-0.954008,0.4479,-1.6493,0
4260,-0.945689,0.440715,-1.64698,0
4280,-0.937562,0.436277,-1.64555,0
4300,-0.930224,0.433124,-1.6453,0
4320,-0.927109,0.433037,-1.64385,0
4340,-0.931212,0.432186,-1.64421,0
4360,-0.93557,0.427003,-1.64543,0
4380,-0.921964,0.421695,-1.65244,0
4400,-0.905722,0.428818,-1.64983,0
4420,-0.919668,0.421882,-1.64327,0
4440,-0.917321,0.422772,-1.63939,0
4460,-0.908681,0.432201,-1.63789,0
4480,-0.905858,0.44186,-1.63557,0
4500,-0.914318,0.443695,-1.63496,0
4520,-0.923588,0.440934,-1.63463,0
4540,-0.926008,0.437011,-1.6347,0
4560,-0.920921,0.4309,-1.63642,0
4580,-0.914556,0.425802,-1.63874,0
4600,-0.907982,0.42522,-1.63825,0
4620,-0.906514,0.423678,-1.63661,0
4650,-0.905723,0.425224,-1.64787,0
4670,-0.901187,0.423581,-1.66165,0
4690,-0.893683,0.428278,-1.6641,0
4710,-0.902004,0.426541,-1.66856,0
4730,-0.909217,0.428661,-1.67279,0
4750,-0.909461,0.435641,-1.67809,0
4770,-0.905465,0.447011,-1.67668,0
4790,-0.902638,0.452811,-1.66875,0
4810,-0.9036,0.449964,-1.6611,0
4830,-0.905511,0.44784,-1.66025,0
4850,-0.904952,0.448851,-1.66328,0
4870,-0.902464,0.450305,-1.66537,0
4890,-0.904953,0.445083,-1.64854,0
4910,-0.909531,0.445725,-1.64399,0
4930,-0.91628,0.447235,-1.64295,0
4950,-0.927024,0.446672,-1.64696,0
4970,-0.935069,0.44409,-1.65038,0
4990,-0.936973,0.440488,-1.6491,0
5010,-0.936762,0.437856,-1.64373,0
5030,-0.941294,0.436825,-1.63935,0
5050,-0.946235,0.435805,-1.63745,0
5070,-0.94613,0.436078,-1.63685,0
5090,-0.94224,0.436992,-1.63699,0
5110,-0.940403,0.436544,-1.63743,0
5140,-0.937714,0.435953,-1.63521,0
5160,-0.935661,0.432441,-1.63114,0
5180,-0.940715,0.426766,-1.62823,0
5200,-0.94431,0.416731,-1.6253,0
5220,-0.937188,0.409862,-1.62624,0
5240,-0.924792,0.412688,-1.63777,0
5260,-0.920223,0.422512,-1.63763,0
5280,-0.953159,0.414221,-1.64108,0
5300,-0.977676,0.409651,-1.64183,0
5310,-0.986536,0.412094,-1.65111,0
5330,-0.980839,0.425763,-1.65737,0
5350,-0.980643,0.451618,-1.64021,0
5370,-0.980765,0.452949,-1.63865,0
5390,-0.977674,0.454448,-1.64137,0
5410,-0.973817,0.454588,-1.64384,0
5430,-0.969447,0.453961,-1.64554,0
5450,-0.96467,0.452061,-1.64636,0
5470,-0.959327,0.449811,-1.64508,0
5490,-0.955803,0.447685,-1.64139,0
5510,-0.955111,0.446702,-1.63713,0
5530,-0.957905,0.447009,-1.63412,0
5550,-0.963673,0.448264,-1.63335,0
5570,-0.970114,0.45099,-1.63639,0
5590,-0.972066,0.45237,-1.64181,0
5610,-0.975323,0.448555,-1.6445,0
5630,-0.977087,0.440293,-1.64062,0
5650,-0.979836,0.434289,-1.63418,0
5670,-0.98171,0.431909,-1.62835,0
5690,-0.987993,0.429407,-1.62296,0
5710,-0.990118,0.426794,-1.62121,0
5730,-0.972762,0.424955,-1.62676,0
5750,-0.958221,0.428331,-1.63699,0
5770,-0.954069,0.435888,-1.63114,0
5790,-0.977412,0.432308,-1.62894,0
5810,-0.989578,0.435518,-1.62682,0
5830,-0.987078,0.445115,-1.62758,0
5850,-0.981038,0.456693,-1.62932,0
5870,-0.980295,0.46505,-1.63241,0
5890,-0.988325,0.467918,-1.6393,0
5910,-0.994478,0.467505,-1.64436,0
5930,-0.995943,0.465721,-1.64416,0
5950,-0.991376,0.461949,-1.64049,0
5970,-0.985788,0.457325,-1.63716,0
5990,-0.980478,0.453396,-1.63558,0
6010,-0.974152,0.450971,-1.63537,0
6030,-0.971197,0.448324,-1.63514,0
6050,-0.972471,0.447756,-1.63416,0
6070,-0.974533,0.444112,-1.63259,0
6090,-0.980532,0.439194,-1.6336,0
6110,-0.981441,0.432854,-1.63469,0
6130,-0.966302,0.426527,-1.63656,0
6150,-0.948235,0.432328,-1.63927,0
6170,-0.949254,0.440252,-1.63077,0
6190,-0.981103,0.427823,-1.6257,0
6210,-1.00313,0.421902,-1.6211,0
6230,-1.00543,0.42418,-1.62444,0
6250,-0.995647,0.434379,-1.6286,0
6270,-0.988171,0.445824,-1.6296,0
6290,-0.989214,0.451086,-1.62772,0
6310,-0.993782,0.449192,-1.62292,0
6330,-0.99479,0.443848,-1.61826,0
6350,-0.987846,0.440185,-1.61744,0
6370,-0.978661,0.440641,-1.62064,0
6390,-0.973308,0.442158,-1.62326,0
6410,-0.973198,0.441279,-1.62334,0
6430,-0.974457,0.436784,-1.62168,0
6450,-0.974601,0.431242,-1.61966,0
6470,-0.973559,0.427275,-1.61752,0
6490,-0.974495,0.425787,-1.61553,0
6510,-0.978202,0.426115,-1.61322,0
6530,-0.983765,0.428642,-1.61199,0
6550,-0.987517,0.432837,-1.60927,0
6570,-0.990465,0.43725,-1.60594,0
6590,-0.993106,0.43986,-1.60409,0
6610,-0.995182,0.439454,-1.60635,0
6630,-0.996462,0.436295,-1.61073,0
6650,-0.992911,0.435135,-1.61258,0
6670,-0.986341,0.43484,-1.61166,0
6690,-0.984508,0.430502,-1.6089,0
6710,-0.98616,0.423535,-1.60616,0
6730,-0.990873,0.419638,-1.60402,0
6750,-0.988338,0.419511,-1.60443,0
6770,-0.970346,0.418472,-1.60851,0
6790,-0.958894,0.41898,-1.61746,0
6810,-0.952691,0.423323,-1.61378,0
6830,-0.971474,0.418099,-1.61471,0
6850,-0.977394,0.418087,-1.61401,0
6870,-0.974193,0.422073,-1.61776,0
6890,-0.966222,0.429867,-1.62175,0
6910,-0.963505,0.437036,-1.6258,0
6930,-0.968311,0.441467,-1.62867,0
6950,-0.97323,0.443012,-1.62742,0
6970,-0.974311,0.44027,-1.62359,0
7020,-0.964731,0.439189,-1.62883,0
7040,-0.967669,0.440479,-1.62824,0
7060,-0.971182,0.442356,-1.62595,0
7080,-0.974097,0.443238,-1.62382,0
7100,-0.977046,0.442234,-1.62591,0
7120,-0.980514,0.438741,-1.63088,0
7140,-0.982649,0.434836,-1.63136,0
7160,-0.984621,0.430762,-1.6287,0
7180,-0.985621,0.426221,-1.62461,0
7200,-0.987282,0.42289,-1.62038,0
7220,-0.986227,0.420403,-1.61726,0
7240,-0.983724,0.418303,-1.61629,0
7260,-0.979183,0.417491,-1.61701,0
7280,-0.975088,0.416673,-1.61972,0
7300,-0.962967,0.411802,-1.62314,0
7320,-0.954954,0.408394,-1.62081,0
7340,-0.953151,0.403511,-1.61815,0
7360,-0.957617,0.397703,-1.61244,0
7380,-0.965146,0.38935,-1.60739,0
7400,-0.959791,0.383342,-1.60558,0
7420,-0.943367,0.387103,-1.61667,0
7440,-0.935931,0.400061,-1.61631,0
7460,-0.950348,0.394841,-1.61481,0
7480,-0.962426,0.392302,-1.61683,0
7500,-0.958939,0.396455,-1.62215,0
7520,-0.948833,0.406301,-1.63291,0
7540,-0.939272,0.429788,-1.65887,0
7560,-0.943528,0.434492,-1.66363,0
7580,-0.94582,0.432529,-1.65557,0
7600,-0.946306,0.422666,-1.64253,0
7620,-0.938825,0.414692,-1.63551,0
7640,-0.925813,0.416283,-1.6388,0
7660,-0.916556,0.425244,-1.64725,0
7680,-0.918129,0.431059,-1.65486,0
7700,-0.922304,0.427775,-1.65589,0
7720,-0.921094,0.418191,-1.65343,0
7740,-0.915749,0.411277,-1.65203,0
7760,-0.909506,0.410487,-1.65174,0
7780,-0.906341,0.411834,-1.65288,0
7810,-0.91095,0.416992,-1.6565,0
7830,-0.912517,0.41967,-1.65695,0
7850,-0.912882,0.421782,-1.65634,0
7870,-0.913104,0.422921,-1.65572,0
7890,-0.913921,0.422884,-1.65589,0
7910,-0.914115,0.422838,-1.65676,0
7930,-0.912997,0.423315,-1.65794,0
7950,-0.910796,0.424499,-1.65908,0
7970,-0.908962,0.425069,-1.66009,0
7990,-0.908113,0.42466,-1.66089,0
8010,-0.907857,0.423936,-1.66192,0
8040,-0.905438,0.423473,-1.66482,0
8060,-0.903704,0.42371,-1.66601,0
8070,-0.902374,0.424294,-1.66664,0
8100,-0.901878,0.424561,-1.66685,0
8120,-0.90258,0.424677,-1.66686,0
8140,-0.903084,0.424636,-1.66692,0
8160,-0.903023,0.424636,-1.66708,0
8170,-0.902146,0.424846,-1.66737,0
8190,-0.900863,0.425077,-1.66758,0
8210,-0.899418,0.425034,-1.66769,0
8230,-0.898706,0.424762,-1.66816,0
8250,-0.898031,0.424471,-1.66878,0
8270,-0.897449,0.42423,-1.66937,0
8290,-0.896685,0.424285,-1.66981,0
8310,-0.896216,0.424476,-1.67018,0
8330,-0.895937,0.424696,-1.67051,0
8350,-0.895937,0.424696,-1.67051,0
8370,-0.895852,0.424775,-1.67052,0
8390,-0.895654,0.425181,-1.67066,0
8410,-0.895654,0.425181,-1.67066,0
8430,-0.895666,0.42524,-1.67065,0
8450,-0.894192,0.425051,-1.67034,0
8470,-0.892623,0.424983,-1.67034,0
8490,-0.891482,0.424911,-1.67011,0
8510,-0.891494,0.42497,-1.6701,0
8530,-0.892591,0.4254,-1.67075,0
8550,-0.893548,0.42574,-1.67129,0
8570,-0.89408,0.425916,-1.67178,0
8590,-0.894216,0.426342,-1.67246,0
8610,-0.894152,0.426682,-1.67319,0
8630,-0.894325,0.426988,-1.67373,0
8650,-0.894655,0.427274,-1.6741,0
8670,-0.894786,0.427303,-1.67422,0
8690,-0.894643,0.427214,-1.6741,0
8710,-0.894196,0.427033,-1.67437,0
8730,-0.893498,0.426752,-1.67407,0
8750,-0.893498,0.426752,-1.67407,0
8770,-0.893498,0.426752,-1.67407,0
8790,-0.893498,0.426752,-1.67407,0
8810,-0.893498,0.426752,-1.67407,0
8830,-0.892917,0.42661,-1.6742,0
8850,-0.892346,0.426697,-1.67461,0
8870,-0.891814,0.426596,-1.67487,0
8890,-0.89148,0.42665,-1.67508,0
8910,-0.892045,0.427071,-1.67553,0
8930,-0.892034,0.427012,-1.67554,0
8950,-0.892034,0.427012,-1.67554,0
8970,-0.892034,0.427012,-1.67554,0
8990,-0.892034,0.427012,-1.67554,0
9010,-0.891903,0.426983,-1.67542,0
9030,-0.891995,0.427227,-1.67522,0
9050,-0.892522,0.427593,-1.67477,0
9070,-0.893839,0.427827,-1.6748,0
9090,-0.894434,0.427832,-1.67484,0
9110,-0.89399,0.428043,-1.67489,0
9130,-0.893272,0.428306,-1.675,0
9150,-0.893113,0.428694,-1.67529,0
9170,-0.893113,0.428694,-1.67529,0
9190,-0.893113,0.428694,-1.67529,0
9210,-0.893113,0.428694,-1.67529,0
9230,-0.893107,0.429129,-1.67539,0
9250,-0.893133,0.429809,-1.67545,0
9270,-0.894045,0.430894,-1.6753,0
9290,-0.895217,0.430546,-1.67513,0
9310,-0.895601,0.430336,-1.67523,0
9330,-0.89489,0.430924,-1.67514,0
9350,-0.894395,0.431292,-1.67489,0
9370,-0.894322,0.431431,-1.67488,0
9390,-0.894997,0.431791,-1.67502,0
9410,-0.895477,0.432557,-1.6753,0
9440,-0.893546,0.432455,-1.67506,0
9460,-0.891846,0.432193,-1.67465,0
9480,-0.889912,0.431624,-1.67386,0
9500,-0.887548,0.431053,-1.67254,0
9510,-0.885348,0.430952,-1.67114,0
9530,-0.883582,0.430971,-1.66948,0
9540,-0.883037,0.431909,-1.66824,0
9560,-0.884039,0.433392,-1.66741,0
9580,-0.885883,0.435643,-1.66678,0
9600,-0.889112,0.438278,-1.66677,0
9620,-0.893748,0.441359,-1.66741,0
9640,-0.897427,0.443841,-1.66769,0
9660,-0.900069,0.446473,-1.66878,0
9680,-0.901175,0.449081,-1.67,0
9690,-0.901658,0.451539,-1.6715,0
9710,-0.90191,0.453659,-1.67308,0
9730,-0.903345,0.454999,-1.6744,0
9750,-0.903419,0.455676,-1.6754,0
9770,-0.903619,0.45632,-1.67653,0
9790,-0.903404,0.456818,-1.67729,0
9810,-0.902825,0.457278,-1.67781,0
9830,-0.903609,0.457899,-1.67854,0
9850,-0.90557,0.458874,-1.67905,0
9890,-0.913842,0.465104,-1.67962,0
9910,-0.914854,0.467176,-1.67914,0
9920,-0.916171,0.469387,-1.6786,0
9940,-0.917724,0.471611,-1.67819,0
9980,-0.921498,0.476552,-1.67695,0
10000,-0.922036,0.478095,-1.67722,0
10020,-0.923077,0.479641,-1.67789,0
10040,-0.92362,0.481289,-1.67847,0
10060,-0.923737,0.482897,-1.67897,0
10080,-0.924285,0.484443,-1.67925,0
10100,-0.92427,0.485503,-1.67887,0
10120,-0.924226,0.486543,-1.67804,0
10130,-0.925119,0.488021,-1.67674,0
10150,-0.925734,0.488569,-1.67647,0
10180,-0.925798,0.49022,-1.67744,0
10200,-0.924749,0.491278,-1.67798,0
10220,-0.923547,0.49256,-1.67852,0
10240,-0.92239,0.494053,-1.67875,0
10260,-0.922025,0.495459,-1.67902,0
10280,-0.921903,0.495556,-1.67888,0
10300,-0.922406,0.496415,-1.67907,0
10320,-0.922367,0.496432,-1.67892,0
10340,-0.921426,0.496434,-1.67873,0
10370,-0.915854,0.494021,-1.67871,0
10390,-0.914577,0.493317,-1.67847,0
10410,-0.913533,0.493166,-1.67801,0
10430,-0.912918,0.493325,-1.67746,0
10450,-0.913167,0.493204,-1.67666,0
10470,-0.913747,0.493456,-1.67609,0
10490,-0.913888,0.493603,-1.67544,0
10510,-0.913785,0.494099,-1.67511,0
10530,-0.913239,0.494804,-1.67483,0
10550,-0.912609,0.495589,-1.67455,0
10580,-0.913401,0.497213,-1.67496,0
10600,-0.91333,0.498154,-1.67553,0
10620,-0.912994,0.498519,-1.67586,0
10640,-0.913067,0.498375,-1.67586,0
10660,-0.913136,0.498125,-1.67556,0
10680,-0.913335,0.498411,-1.67644,0
10700,-0.911786,0.499323,-1.67598,0
10720,-0.911002,0.499642,-1.67544,0
10740,-0.911945,0.499869,-1.67514,0
10760,-0.913351,0.500011,-1.67478,0
10770,-0.920043,0.496103,-1.66393,0
10790,-0.924557,0.490111,-1.65441,0
10810,-0.926964,0.481548,-1.64185,0
10830,-0.928371,0.470783,-1.62327,0
10850,-0.936288,0.453833,-1.60216,0
10870,-0.946607,0.429176,-1.57785,0
10890,-0.957675,0.40182,-1.55057,0
10910,-0.961688,0.368018,-1.51604,0
10930,-0.958374,0.326307,-1.47494,0
10950,-0.955984,0.278063,-1.43001,0
10970,-0.961815,0.224753,-1.38115,0
10990,-0.969558,0.166407,-1.33038,0
11010,-0.980093,0.103153,-1.27652,0
11030,-0.995418,0.043751,-1.21548,0
11050,-1.01294,-0.00753091,-1.14905,0
11070,-1.02792,-0.0586347,-1.08567,0
11080,-1.04575,-0.109069,-1.02881,0
11090,-1.06521,-0.155049,-0.979955,0
11100,-1.07483,-0.194778,-0.936205,0
11120,-1.07175,-0.229934,-0.896201,0
11140,-1.07007,-0.260035,-0.864347,0
11160,-1.06976,-0.280151,-0.840495,0
11180,-1.06645,-0.29522,-0.821572,0
11200,-1.06176,-0.307763,-0.808731,0
11220,-1.05567,-0.319267,-0.800175,0
11240,-1.04893,-0.327696,-0.79656,0
11260,-1.04208,-0.330764,-0.796653,0
11280,-1.03507,-0.333927,-0.797035,0
11300,-1.02439,-0.344794,-0.798258,0
11320,-1.0172,-0.358608,-0.801167,0
11340,-1.02048,-0.363886,-0.802233,0
11360,-1.03197,-0.365083,-0.800976,0
11380,-1.04217,-0.371799,-0.799399,0
11400,-1.05023,-0.382223,-0.794083,0
11420,-1.05627,-0.389045,-0.78475,0
11440,-1.07,-0.389936,-0.775588,0
11460,-1.09045,-0.389613,-0.764428,0
11480,-1.11359,-0.394575,-0.75381,0
11500,-1.13365,-0.397066,-0.749086,0
11520,-1.15304,-0.397116,-0.745875,0
11540,-1.16522,-0.399827,-0.735496,0
11560,-1.17196,-0.399899,-0.726523,0
11580,-1.17405,-0.39874,-0.728219,0
11600,-1.16295,-0.398954,-0.742131,0
11620,-1.14355,-0.398043,-0.754558,0
11640,-1.12917,-0.396597,-0.762978,0
11660,-1.11261,-0.396509,-0.76844,0
11680,-1.0939,-0.400002,-0.776691,0
11700,-1.07372,-0.40249,-0.786151,0
11720,-1.05394,-0.40016,-0.795744,0
11740,-1.03861,-0.394759,-0.807178,0
11760,-1.03134,-0.385888,-0.812328,0
11780,-1.0245,-0.378006,-0.812172,0
11800,-1.01825,-0.373646,-0.81323,0
11820,-1.01352,-0.371578,-0.817267,0
11840,-1.01179,-0.370744,-0.816117,0
11860,-1.01749,-0.372626,-0.81032,0
11880,-1.02661,-0.373664,-0.802488,0
11900,-1.02847,-0.373204,-0.80072,0
11920,-1.02494,-0.378077,-0.804565,0
11940,-1.02228,-0.388503,-0.811877,0
11960,-1.01997,-0.404503,-0.822458,0
11980,-1.01555,-0.427884,-0.837686,0
12000,-1.00732,-0.452122,-0.856873,0
12020,-0.988827,-0.474679,-0.87844,0
12040,-0.964596,-0.498633,-0.90358,0
12060,-0.943283,-0.52101,-0.931397,0
12080,-0.930342,-0.539886,-0.958185,0
12100,-0.927404,-0.55513,-0.98208,0
12120,-0.92973,-0.567143,-1.00332,0
12140,-0.935006,-0.57615,-1.01989,0
12160,-0.940271,-0.582459,-1.03257,0
12180,-0.942652,-0.587536,-1.04363,0
12200,-0.944739,-0.594509,-1.05338,0
12220,-0.947371,-0.601317,-1.06117,0
12240,-0.950303,-0.60655,-1.06952,0
12260,-0.948628,-0.610669,-1.08142,0
12280,-0.938916,-0.613921,-1.09374,0
12300,-0.930925,-0.619607,-1.10307,0
12320,-0.926727,-0.626587,-1.11053,0
12340,-0.921828,-0.633211,-1.12161,0
12360,-0.912635,-0.639838,-1.13346,0
12380,-0.904802,-0.648088,-1.1423,0
12400,-0.901636,-0.656865,-1.14914,0
12420,-0.897864,-0.663748,-1.15606,0
12440,-0.892314,-0.66991,-1.16297,0
12460,-0.887288,-0.676301,-1.167,0
12480,-0.886411,-0.680803,-1.17028,0
12500,-0.888648,-0.683593,-1.1748,0
12520,-0.891096,-0.687199,-1.17897,0
12540,-0.891833,-0.692393,-1.1817,0
12560,-0.889661,-0.698767,-1.18421,0
12580,-0.886355,-0.704763,-1.1899,0
12600,-0.88208,-0.709108,-1.19733,0
12620,-0.876735,-0.712421,-1.20258,0
12640,-0.871919,-0.716773,-1.20757,0
12660,-0.864307,-0.719969,-1.21603,0
12680,-0.854098,-0.720672,-1.23032,0
12700,-0.835869,-0.71558,-1.24966,0
12720,-0.817725,-0.705582,-1.2628,0
12740,-0.803598,-0.689049,-1.26978,0
12760,-0.792831,-0.666658,-1.27629,0
12780,-0.790028,-0.63961,-1.28294,0
12800,-0.797844,-0.608545,-1.28592,0
12820,-0.815979,-0.575129,-1.28684,0
12840,-0.833555,-0.535875,-1.28208,0
12860,-0.838538,-0.498304,-1.28071,0
12880,-0.83523,-0.47375,-1.28193,0
12900,-0.83692,-0.45648,-1.28398,0
12920,-0.840792,-0.442754,-1.27961,0
12940,-0.851673,-0.437479,-1.27053,0
12960,-0.867589,-0.437549,-1.26381,0
12980,-0.877087,-0.43544,-1.26332,0
13000,-0.872579,-0.433361,-1.27192,0
13020,-0.8626,-0.435135,-1.28134,0
13040,-0.850918,-0.438618,-1.28432,0
13060,-0.840992,-0.444532,-1.28408,0
13080,-0.834278,-0.449969,-1.28597,0
13100,-0.830923,-0.454301,-1.29342,0
13120,-0.828886,-0.456866,-1.30158,0
13140,-0.830379,-0.45695,-1.3036,0
13160,-0.830697,-0.459524,-1.30645,0
13180,-0.827433,-0.463465,-1.31285,0
13200,-0.82564,-0.468424,-1.31899,0
13220,-0.825433,-0.474153,-1.32592,0
13240,-0.825959,-0.479493,-1.33214,0
13260,-0.826004,-0.4851,-1.33734,0
13280,-0.824364,-0.490739,-1.34372,0
13300,-0.821578,-0.495417,-1.35051,0
13320,-0.818504,-0.498493,-1.35674,0
13340,-0.815807,-0.499479,-1.36378,0
13360,-0.813568,-0.498101,-1.37126,0
13380,-0.810328,-0.498114,-1.3791,0
13400,-0.804934,-0.499791,-1.38847,0
13420,-0.797153,-0.50223,-1.39825,0
13440,-0.794301,-0.508037,-1.41382,0
13460,-0.795662,-0.513149,-1.43002,0
13480,-0.799172,-0.519622,-1.44337,0
13500,-0.797444,-0.527696,-1.45474,0
13520,-0.789916,-0.533328,-1.46199,0
13540,-0.779306,-0.534986,-1.46626,0
13560,-0.766633,-0.535354,-1.46939,0
13580,-0.759946,-0.537243,-1.47005,0
13600,-0.761218,-0.538851,-1.46847,0
13620,-0.765146,-0.539896,-1.46581,0
13640,-0.764024,-0.539534,-1.46557,0
13660,-0.759344,-0.533197,-1.46518,0
13680,-0.754632,-0.522879,-1.46547,0
13700,-0.746322,-0.510133,-1.46383,0
13720,-0.734798,-0.49301,-1.45986,0
13740,-0.721808,-0.474542,-1.4545,0
13760,-0.708994,-0.46301,-1.45405,0
13780,-0.696349,-0.452155,-1.45927,0
13800,-0.679298,-0.437259,-1.46944,0
13820,-0.6532,-0.420482,-1.48321,0
13840,-0.621399,-0.406136,-1.49849,0
13860,-0.583059,-0.388872,-1.51549,0
13880,-0.545773,-0.371816,-1.53053,0
13900,-0.517694,-0.350483,-1.54402,0
13920,-0.492347,-0.319329,-1.54766,0
13940,-0.472444,-0.286779,-1.54801,0
13960,-0.467124,-0.256155,-1.54899,0
13980,-0.478109,-0.235673,-1.55114,0
14000,-0.506595,-0.233928,-1.55572,0
14020,-0.53841,-0.253132,-1.55522,0
14040,-0.564501,-0.288535,-1.54105,0
14060,-0.588082,-0.327159,-1.52016,0
14070,-0.605406,-0.359904,-1.49987,0
14090,-0.626077,-0.392766,-1.48195,0
14110,-0.654785,-0.425178,-1.4632,0
14130,-0.684799,-0.454581,-1.4491,0
14150,-0.70488,-0.48163,-1.44295,0
14170,-0.711215,-0.507061,-1.4413,0
14190,-0.709285,-0.530136,-1.44043,0
14210,-0.706614,-0.54976,-1.44092,0
14230,-0.709042,-0.5663,-1.44125,0
14250,-0.717749,-0.579746,-1.44469,0
14270,-0.723819,-0.587988,-1.45076,0
14290,-0.723785,-0.595226,-1.45865,0
14310,-0.720936,-0.603187,-1.46524,0
14330,-0.722183,-0.612427,-1.46738,0
14350,-0.729356,-0.622258,-1.46033,0
14370,-0.736471,-0.63277,-1.45293,0
14390,-0.746215,-0.643336,-1.44196,0
14410,-0.759563,-0.652543,-1.42856,0
14430,-0.773381,-0.660163,-1.41024,0
14450,-0.783676,-0.666776,-1.38846,0
14470,-0.79329,-0.674704,-1.37177,0
14490,-0.806512,-0.686857,-1.36129,0
14510,-0.825457,-0.700189,-1.34908,0
14530,-0.841681,-0.711235,-1.33854,0
14550,-0.849345,-0.718783,-1.3345,0
14570,-0.854716,-0.723962,-1.33449,0
14590,-0.858359,-0.729005,-1.33435,0
14610,-0.858129,-0.736228,-1.3339,0
14630,-0.85698,-0.741771,-1.33978,0
14650,-0.858022,-0.742088,-1.34632,0
14670,-0.863893,-0.739533,-1.34898,0
14690,-0.868691,-0.739085,-1.35155,0
14710,-0.865694,-0.740508,-1.35244,0
14730,-0.860059,-0.743787,-1.34707,0
14750,-0.856141,-0.74388,-1.33945,0
14770,-0.857906,-0.739238,-1.33336,0
14790,-0.862777,-0.735361,-1.32649,0
14810,-0.865422,-0.735101,-1.31609,0
14830,-0.863908,-0.736342,-1.30496,0
14850,-0.859896,-0.738617,-1.29466,0
14870,-0.859534,-0.740173,-1.28416,0
14890,-0.860407,-0.741486,-1.27601,0
14910,-0.860414,-0.745165,-1.27054,0
14930,-0.861746,-0.751239,-1.26637,0
14950,-0.8647,-0.757795,-1.26112,0
14970,-0.869698,-0.76558,-1.25426,0
14990,-0.876729,-0.773557,-1.2471,0
15010,-0.884046,-0.780755,-1.24212,0
15030,-0.89116,-0.787976,-1.23584,0
15050,-0.901316,-0.795965,-1.22766,0
15070,-0.911767,-0.804057,-1.21965,0
15090,-0.919864,-0.811781,-1.21262,0
15110,-0.92616,-0.819008,-1.20757,0
15130,-0.932266,-0.823439,-1.20241,0
15150,-0.93798,-0.826283,-1.19904,0
15170,-0.941086,-0.825393,-1.19803,0
15190,-0.94249,-0.825573,-1.19684,0
15210,-0.942057,-0.82574,-1.19291,0
15230,-0.942055,-0.825449,-1.18898,0
15250,-0.94228,-0.825357,-1.18368,0
15270,-0.941623,-0.823708,-1.17846,0
15290,-0.937751,-0.821704,-1.17898,0
15310,-0.931337,-0.819061,-1.18789,0
15330,-0.924476,-0.814986,-1.20256,0
15350,-0.916949,-0.809371,-1.2175,0
15370,-0.909391,-0.803949,-1.23007,0
15390,-0.90533,-0.798454,-1.23522,0
15410,-0.903595,-0.792925,-1.23701,0
15430,-0.902155,-0.790379,-1.23958,0
15450,-0.902954,-0.789397,-1.24205,0
15470,-0.904875,-0.789051,-1.24385,0
15490,-0.907636,-0.789494,-1.24311,0
15510,-0.909597,-0.788372,-1.24389,0
15530,-0.912001,-0.785719,-1.24683,0
15550,-0.913396,-0.784117,-1.25052,0
15570,-0.91435,-0.782533,-1.25402,0
15590,-0.915246,-0.779634,-1.2567,0
15610,-0.915958,-0.777334,-1.25783,0
15630,-0.914798,-0.775071,-1.25799,0
15650,-0.912595,-0.77241,-1.25808,0
15670,-0.909402,-0.76928,-1.25943,0
15690,-0.906818,-0.765965,-1.25927,0
15710,-0.906881,-0.763456,-1.25474,0
15730,-0.905412,-0.760991,-1.24847,0
15750,-0.902482,-0.758832,-1.24245,0
15770,-0.898104,-0.755863,-1.23757,0
15790,-0.894665,-0.751234,-1.23249,0
15810,-0.892862,-0.745214,-1.22703,0
15830,-0.892952,-0.740858,-1.21595,0
15850,-0.89043,-0.739442,-1.2042,0
15870,-0.885491,-0.737566,-1.19472,0
15890,-0.883847,-0.73156,-1.1927,0
15910,-0.882049,-0.720755,-1.19904,0
15930,-0.879019,-0.71286,-1.20732,0
15950,-0.873027,-0.711354,-1.21593,0
15970,-0.869875,-0.710346,-1.22353,0
15990,-0.869236,-0.71275,-1.23038,0
16010,-0.87015,-0.717461,-1.23405,0
16030,-0.873085,-0.722588,-1.23178,0
16050,-0.874759,-0.727689,-1.23169,0
16070,-0.877609,-0.730364,-1.23602,0
16090,-0.882239,-0.730305,-1.24212,0
16110,-0.884528,-0.73001,-1.24839,0
16130,-0.886427,-0.731832,-1.25384,0
16150,-0.888385,-0.73258,-1.25872,0
16170,-0.895629,-0.730851,-1.2607,0
16190,-0.905397,-0.727835,-1.26172,0
16210,-0.909553,-0.728401,-1.26269,0
16230,-0.912663,-0.733068,-1.25752,0
16250,-0.916243,-0.737237,-1.24675,0
16270,-0.921621,-0.738304,-1.23694,0
16290,-0.927079,-0.73541,-1.23189,0
16310,-0.932642,-0.73312,-1.22916,0
16330,-0.937154,-0.732814,-1.22519,0
16350,-0.936308,-0.73378,-1.22038,0
16370,-0.930832,-0.738331,-1.21959,0
16390,-0.927159,-0.744314,-1.22312,0
16410,-0.925723,-0.751864,-1.22911,0
16430,-0.920589,-0.75996,-1.23615,0
16450,-0.912512,-0.769464,-1.24398,0
16470,-0.905584,-0.778845,-1.25262,0
16490,-0.899221,-0.785607,-1.26287,0
16510,-0.889807,-0.791504,-1.27668,0
16530,-0.881368,-0.795758,-1.29129,0
16550,-0.876783,-0.79345,-1.30527,0
16570,-0.877726,-0.781008,-1.31604,0
16590,-0.880784,-0.761845,-1.32394,0
16610,-0.880744,-0.737608,-1.32901,0
16630,-0.874561,-0.709826,-1.3355,0
16650,-0.871082,-0.679426,-1.34114,0
16670,-0.872561,-0.648481,-1.34818,0
16690,-0.862771,-0.618283,-1.35768,0
16710,-0.859007,-0.589797,-1.36307,0
16730,-0.870496,-0.571489,-1.36815,0
16750,-0.881926,-0.565027,-1.36976,0
16770,-0.886719,-0.563445,-1.36519,0
16790,-0.883059,-0.56691,-1.35735,0
16810,-0.877889,-0.57451,-1.35221,0
16830,-0.875784,-0.58332,-1.34954,0
16850,-0.880091,-0.591215,-1.34705,0
16870,-0.889396,-0.597826,-1.34036,0
16890,-0.896765,-0.603264,-1.3303,0
16910,-0.896504,-0.608017,-1.31983,0
16930,-0.892689,-0.613266,-1.30843,0
16950,-0.889852,-0.620687,-1.29823,0
16970,-0.89179,-0.629514,-1.29113,0
16990,-0.895986,-0.637665,-1.2845,0
17010,-0.900469,-0.645085,-1.27378,0
17030,-0.900966,-0.651628,-1.26294,0
17050,-0.900654,-0.657627,-1.2551,0
17070,-0.902135,-0.662843,-1.24849,0
17090,-0.905503,-0.665398,-1.24057,0
17110,-0.907096,-0.666708,-1.232,0
17130,-0.904974,-0.666331,-1.22535,0
17150,-0.901913,-0.664833,-1.22259,0
17170,-0.898839,-0.663345,-1.22202,0
17190,-0.893109,-0.662019,-1.22322,0
17210,-0.886021,-0.659693,-1.22549,0
17230,-0.878484,-0.657169,-1.22799,0
17250,-0.869995,-0.65433,-1.23196,0
17260,-0.862655,-0.649317,-1.237,0
17280,-0.856166,-0.64129,-1.24081,0
17300,-0.851624,-0.635247,-1.24388,0
17320,-0.850825,-0.632853,-1.24661,0
17340,-0.850448,-0.631021,-1.25173,0
17360,-0.850184,-0.628989,-1.25707,0
17380,-0.84966,-0.629795,-1.26077,0
17400,-0.849194,-0.633832,-1.26431,0
17420,-0.849396,-0.637154,-1.27139,0
17440,-0.850186,-0.636894,-1.27875,0
17460,-0.852093,-0.63622,-1.28507,0
17480,-0.854462,-0.636611,-1.28918,0
17500,-0.854012,-0.637912,-1.29206,0
17520,-0.853212,-0.640088,-1.29754,0
17540,-0.856381,-0.64083,-1.30263,0
17560,-0.861328,-0.639891,-1.30557,0
17580,-0.863455,-0.640979,-1.30779,0
17600,-0.858635,-0.645347,-1.30911,0
17620,-0.855713,-0.650947,-1.30859,0
17640,-0.854681,-0.653632,-1.3094,0
17660,-0.857251,-0.653691,-1.3072,0
17680,-0.860016,-0.650785,-1.30043,0
17700,-0.860772,-0.650009,-1.28772,0
17720,-0.864419,-0.651628,-1.26979,0
17740,-0.872503,-0.65506,-1.25761,0
17760,-0.879577,-0.653563,-1.24743,0
17780,-0.88783,-0.650836,-1.23727,0
17800,-0.889091,-0.654033,-1.23034,0
17820,-0.884063,-0.656425,-1.22616,0
17840,-0.878043,-0.656416,-1.21994,0
17860,-0.87728,-0.658072,-1.2106,0
17880,-0.875999,-0.659922,-1.20659,0
17900,-0.874686,-0.658536,-1.20699,0
17920,-0.871909,-0.655574,-1.21034,0
17940,-0.870966,-0.652041,-1.21668,0
17960,-0.864756,-0.650962,-1.2239,0
17980,-0.851957,-0.652354,-1.22924,0
18000,-0.83954,-0.654135,-1.23202,0
18020,-0.833939,-0.65434,-1.23248,0
18040,-0.832061,-0.653097,-1.23187,0
18060,-0.831982,-0.65023,-1.22826,0
18080,-0.831873,-0.647483,-1.22604,0
18100,-0.831383,-0.644197,-1.2266,0
18120,-0.833142,-0.642302,-1.22506,0
18140,-0.834421,-0.641282,-1.22337,0
18160,-0.836543,-0.641264,-1.22216,0
18180,-0.839081,-0.64127,-1.22291,0
18200,-0.844549,-0.641036,-1.22399,0
18220,-0.849582,-0.642352,-1.22856,0
18240,-0.851507,-0.643888,-1.234,0
18260,-0.852784,-0.644211,-1.23739,0
18280,-0.857224,-0.644541,-1.24293,0
18300,-0.865167,-0.645231,-1.25154,0
18320,-0.871355,-0.647602,-1.25946,0
18340,-0.870981,-0.652221,-1.26349,0
18360,-0.866527,-0.659084,-1.26621,0
18380,-0.865937,-0.665496,-1.26709,0
18400,-0.868168,-0.668456,-1.26835,0
18420,-0.87246,-0.670863,-1.26878,0
18440,-0.875461,-0.672701,-1.26709,0
18460,-0.874772,-0.675947,-1.26611,0
18480,-0.874919,-0.679873,-1.26501,0
18500,-0.876963,-0.681368,-1.264,0
18520,-0.881112,-0.680314,-1.26464,0
18540,-0.887164,-0.68094,-1.26442,0
18560,-0.891174,-0.6826,-1.26154,0
18580,-0.893284,-0.684127,-1.25892,0
18600,-0.896526,-0.683868,-1.25653,0
18620,-0.90221,-0.682905,-1.25247,0
18640,-0.909579,-0.682211,-1.24735,0
18660,-0.915654,-0.681628,-1.24161,0
18680,-0.920538,-0.679304,-1.23515,0
18700,-0.92658,-0.675604,-1.22969,0
18720,-0.93371,-0.672169,-1.22588,0
18740,-0.940048,-0.668377,-1.22486,0
18760,-0.945495,-0.665441,-1.22684,0
18780,-0.948519,-0.665942,-1.23021,0
18800,-0.948236,-0.666834,-1.23439,0
18820,-0.945651,-0.667857,-1.23891,0
18840,-0.942952,-0.66974,-1.24279,0
18860,-0.941899,-0.670941,-1.24612,0
18880,-0.941562,-0.671838,-1.24849,0
18900,-0.941869,-0.673389,-1.25111,0
18920,-0.941377,-0.675574,-1.25375,0
18940,-0.939027,-0.678412,-1.25536,0
18960,-0.93584,-0.681526,-1.25668,0
18980,-0.932728,-0.684489,-1.25928,0
19000,-0.930416,-0.687322,-1.26305,0
19020,-0.930137,-0.688712,-1.26698,0
19040,-0.93362,-0.687594,-1.27129,0
19060,-0.938917,-0.685006,-1.27524,0
19080,-0.94412,-0.679503,-1.28133,0
19100,-0.949519,-0.671378,-1.28808,0
19120,-0.952441,-0.662023,-1.29473,0
19140,-0.953145,-0.651433,-1.29982,0
19160,-0.949789,-0.64103,-1.30377,0
19180,-0.946401,-0.629854,-1.30689,0
19200,-0.943616,-0.617898,-1.31213,0
19220,-0.941781,-0.606357,-1.31982,0
19240,-0.940263,-0.596528,-1.326,0
19260,-0.938505,-0.587983,-1.32821,0
19280,-0.933535,-0.581071,-1.32794,0
19300,-0.925765,-0.577103,-1.32851,0
19310,-0.910532,-0.574204,-1.32842,0
19340,-0.904049,-0.580038,-1.32106,0
19360,-0.907426,-0.580894,-1.32012,0
19380,-0.910644,-0.580431,-1.31852,0
19400,-0.911285,-0.579353,-1.31747,0
19420,-0.908584,-0.57879,-1.31475,0
19470,-0.907491,-0.580297,-1.30419,0
19490,-0.906072,-0.582816,-1.30112,0
19530,-0.89153,-0.601699,-1.29639,0
19570,-0.899518,-0.608002,-1.29431,0
19590,-0.900836,-0.611815,-1.29193,0
19610,-0.899062,-0.615523,-1.2912,0
19630,-0.894996,-0.618998,-1.29308,0
19650,-0.887583,-0.621644,-1.29769,0
19670,-0.834493,-0.632344,-1.31497,0
19690,-0.823856,-0.633248,-1.32722,0
19710,-0.81552,-0.631996,-1.33996,0
19730,-0.809416,-0.628828,-1.35092,0
19750,-0.805243,-0.624633,-1.35765,0
19770,-0.801905,-0.620377,-1.36138,0
19790,-0.796672,-0.618664,-1.36459,0
19810,-0.790923,-0.618715,-1.36827,0
19830,-0.787564,-0.618633,-1.36961,0
19850,-0.787272,-0.619473,-1.36665,0
19870,-0.786268,-0.621204,-1.36112,0
19890,-0.780484,-0.622386,-1.35703,0
19910,-0.770917,-0.62162,-1.35589,0
19930,-0.762799,-0.618255,-1.35858,0
19950,-0.755463,-0.6118,-1.3633,0
19970,-0.74787,-0.603993,-1.36701,0
19990,-0.738337,-0.596768,-1.37018,0
20010,-0.728711,-0.590867,-1.37507,0
20020,-0.716994,-0.584011,-1.38178,0
20040,-0.706384,-0.57608,-1.38896,0
20060,-0.699914,-0.569739,-1.39265,0
20090,-0.690553,-0.558627,-1.39918,0
20110,-0.686655,-0.555617,-1.40162,0
20130,-0.685797,-0.555503,-1.40104,0
20150,-0.69051,-0.556766,-1.39769,0
20170,-0.698655,-0.559233,-1.39345,0
20190,-0.708138,-0.563903,-1.38853,0
20210,-0.717429,-0.570132,-1.38144,0
20230,-0.726251,-0.576979,-1.37223,0
20250,-0.736663,-0.585193,-1.36162,0
20270,-0.748751,-0.594391,-1.35093,0
20290,-0.762049,-0.603913,-1.34168,0
20310,-0.77571,-0.612579,-1.33457,0
20330,-0.791474,-0.619454,-1.32792,0
20350,-0.809457,-0.622966,-1.32113,0
20370,-0.828336,-0.623037,-1.31487,0
20390,-0.84878,-0.620636,-1.3103,0
20410,-0.868058,-0.615158,-1.30954,0
20430,-0.884023,-0.606208,-1.31101,0
20460,-0.901548,-0.583817,-1.31614,0
20490,-0.896975,-0.563388,-1.32056,0
20510,-0.885438,-0.558033,-1.32261,0
20530,-0.873846,-0.556122,-1.32409,0
20540,-0.863258,-0.556269,-1.32651,0
20560,-0.857211,-0.558166,-1.32987,0
20580,-0.854239,-0.560608,-1.33256,0
20600,-0.850717,-0.562804,-1.3357,0
20620,-0.844176,-0.564664,-1.33793,0
20640,-0.834344,-0.567716,-1.34046,0
20660,-0.824597,-0.57141,-1.34195,0
20680,-0.817016,-0.575561,-1.3416,0
20700,-0.812717,-0.579654,-1.34068,0
20720,-0.809183,-0.583869,-1.33982,0
20740,-0.80411,-0.587469,-1.33943,0
20760,-0.797013,-0.591553,-1.34014,0
20780,-0.788545,-0.596141,-1.34116,0
20800,-0.780325,-0.601155,-1.342,0
20820,-0.772455,-0.605662,-1.34282,0
20840,-0.764384,-0.609735,-1.34442,0
20860,-0.756001,-0.614666,-1.34594,0
20880,-0.749578,-0.618815,-1.34747,0
20900,-0.747012,-0.621156,-1.34771,0
20920,-0.746692,-0.622634,-1.34768,0
20940,-0.746584,-0.622781,-1.34727,0
20960,-0.746865,-0.621598,-1.34783,0
20980,-0.750272,-0.619415,-1.34854,0
21000,-0.757225,-0.61636,-1.34858,0
21020,-0.766318,-0.61242,-1.34967,0
21040,-0.777686,-0.607993,-1.34878,0
21060,-0.789095,-0.603858,-1.34741,0
21080,-0.798718,-0.600454,-1.34594,0
21100,-0.808228,-0.596283,-1.34331,0
21120,-0.817952,-0.591172,-1.33941,0
21140,-0.828764,-0.585944,-1.33533,0
21160,-0.840431,-0.580627,-1.33303,0
21180,-0.854794,-0.575309,-1.33149,0
21200,-0.870157,-0.569804,-1.32945,0
21220,-0.880961,-0.563886,-1.32837,0
21240,-0.886679,-0.557605,-1.32823,0
21260,-0.89,-0.55111,-1.3284,0
21280,-0.892837,-0.546248,-1.32949,0
21300,-0.89481,-0.542727,-1.33114,0
21320,-0.896494,-0.538696,-1.3327,0
21340,-0.898325,-0.534306,-1.33461,0
21360,-0.899276,-0.530986,-1.33712,0
21380,-0.898941,-0.528963,-1.33867,0
21400,-0.896291,-0.528124,-1.3396,0
21420,-0.89057,-0.527898,-1.34196,0
21440,-0.883714,-0.528724,-1.34667,0
21460,-0.879426,-0.530604,-1.35242,0
21480,-0.876329,-0.532468,-1.35853,0
21500,-0.872899,-0.534481,-1.36298,0
21520,-0.869475,-0.536551,-1.36604,0
21540,-0.8665,-0.538428,-1.36822,0
21560,-0.864869,-0.539933,-1.36945,0
21580,-0.864451,-0.54011,-1.37056,0
21600,-0.86486,-0.538603,-1.37139,0
21620,-0.866511,-0.536432,-1.37115,0
21640,-0.866818,-0.534563,-1.36988,0
21670,-0.868123,-0.529847,-1.36529,0
21690,-0.868909,-0.528111,-1.36265,0
21710,-0.872247,-0.526261,-1.36036,0
21730,-0.876878,-0.523716,-1.35784,0
21750,-0.879812,-0.521113,-1.35595,0
21770,-0.881871,-0.518415,-1.35299,0
21790,-0.884486,-0.515944,-1.34807,0
21810,-0.886822,-0.514209,-1.34372,0
21830,-0.888077,-0.513838,-1.34062,0
21850,-0.889239,-0.513822,-1.33702,0
21870,-0.890414,-0.514067,-1.33354,0
21890,-0.891373,-0.514506,-1.32977,0
21910,-0.892914,-0.515111,-1.32644,0
21930,-0.894892,-0.515521,-1.32419,0
21950,-0.896583,-0.515553,-1.32379,0
21970,-0.902006,-0.514231,-1.3233,0
21990,-0.909596,-0.512281,-1.32194,0
22010,-0.91423,-0.510073,-1.32127,0
22030,-0.915589,-0.507047,-1.32225,0
22050,-0.915788,-0.503446,-1.32382,0
22070,-0.917563,-0.499997,-1.32541,0
22090,-0.92098,-0.4964,-1.32569,0
22110,-0.923813,-0.493405,-1.32474,0
22130,-0.924813,-0.491589,-1.32393,0
22150,-0.924541,-0.489944,-1.32345,0
22170,-0.923681,-0.488411,-1.32344,0
22190,-0.92339,-0.486918,-1.3235,0
22210,-0.924728,-0.485807,-1.3231,0
22230,-0.926141,-0.484802,-1.32247,0
22250,-0.927597,-0.483974,-1.32161,0
22270,-0.92776,-0.483461,-1.32142,0
22290,-0.928311,-0.482201,-1.32173,0
22310,-0.92995,-0.480159,-1.32152,0
22330,-0.931975,-0.478103,-1.31999,0
22350,-0.933906,-0.476656,-1.31825,0
22370,-0.93602,-0.475023,-1.31662,0
22390,-0.938201,-0.471797,-1.31477,0
22410,-0.940119,-0.46767,-1.31323,0
22430,-0.94112,-0.463448,-1.31277,0
22450,-0.941015,-0.458828,-1.31227,0
22470,-0.939651,-0.454155,-1.31099,0
22490,-0.93839,-0.450332,-1.3104,0
22510,-0.937083,-0.44777,-1.31014,0
22530,-0.937013,-0.44534,-1.30868,2000
22550,-0.936759,-0.443342,-1.30685,0
22570,-0.934781,-0.442108,-1.30501,0
22590,-0.932193,-0.441909,-1.30367,0
22610,-0.930654,-0.442678,-1.30351,0
22630,-0.932368,-0.442918,-1.30217,0
22650,-0.934437,-0.443102,-1.30035,0
22670,-0.935635,-0.443704,-1.29745,0
22690,-0.935156,-0.445034,-1.29572,0
22710,-0.934951,-0.447419,-1.29521,0
22730,-0.936514,-0.448346,-1.29358,0
22750,-0.938559,-0.448719,-1.29129,0
22770,-0.939559,-0.449825,-1.29028,0
22790,-0.93918,-0.451179,-1.2903,0
22810,-0.939872,-0.452115,-1.2891,0
22830,-0.940397,-0.452665,-1.2863,0
22850,-0.939011,-0.452489,-1.28324,0
22870,-0.938235,-0.453675,-1.28212,0
22890,-0.93856,-0.456188,-1.28182,0
22910,-0.937701,-0.457328,-1.28011,0
22930,-0.93611,-0.459407,-1.27777,0
22950,-0.934328,-0.461356,-1.27505,0
22970,-0.934757,-0.462684,-1.27216,0
22990,-0.936035,-0.464937,-1.26923,0
23010,-0.939253,-0.468085,-1.2653,0
23030,-0.94215,-0.470589,-1.25983,0
23050,-0.944325,-0.473452,-1.25354,0
23070,-0.948422,-0.477619,-1.24645,0
23090,-0.953255,-0.48348,-1.23823,0
23110,-0.957697,-0.490622,-1.2281,0
23130,-0.960716,-0.500928,-1.21657,0
23150,-0.962731,-0.513602,-1.20533,0
23160,-0.964947,-0.526214,-1.19488,0
23180,-0.970132,-0.53983,-1.18469,0
23200,-0.977124,-0.553475,-1.17453,0
23220,-0.983314,-0.56669,-1.16491,0
23240,-1.00304,-0.612294,-1.13716,0
23260,-1.00622,-0.620834,-1.13314,0
23280,-1.00786,-0.629199,-1.13011,0
23300,-1.00847,-0.639578,-1.13121,0
23320,-1.00759,-0.648095,-1.13448,0
23340,-1.00851,-0.653592,-1.13396,0
23360,-1.00946,-0.657508,-1.13404,0
23390,-1.00481,-0.668412,-1.14566,0
23410,-1.00084,-0.676084,-1.15603,0
23430,-0.993294,-0.683527,-1.16848,0
23450,-0.98376,-0.69216,-1.18338,0
23470,-0.976026,-0.701979,-1.20292,0
23490,-0.967314,-0.711875,-1.22821,0
23510,-0.957178,-0.722315,-1.25542,0
23530,-0.947841,-0.732719,-1.28481,0
23550,-0.936635,-0.742862,-1.31895,0
23570,-0.927034,-0.752328,-1.35569,0
23590,-0.917933,-0.762524,-1.39524,0
23610,-0.909269,-0.773614,-1.43662,0
23630,-0.900846,-0.784822,-1.48001,0
23650,-0.89118,-0.795312,-1.52689,0
23670,-0.878105,-0.804738,-1.57873,0
23690,-0.859454,-0.813817,-1.6349,0
23710,-0.835891,-0.82243,-1.69488,0
23730,-0.808263,-0.830627,-1.75736,0
23750,-0.778828,-0.837882,-1.82061,0
23770,-0.75012,-0.841024,-1.8807,0
23790,-0.726889,-0.837282,-1.92868,0
23810,-0.702976,-0.832411,-1.9618,0
23830,-0.680016,-0.82322,-1.98654,0
23850,-0.655964,-0.81006,-2.00688,0
23870,-0.633309,-0.794936,-2.02319,0
23890,-0.622654,-0.77529,-2.03176,0
23910,-0.617579,-0.750027,-2.03709,0
23930,-0.60879,-0.72265,-2.04108,0
23950,-0.604161,-0.695523,-2.03574,0
23970,-0.598314,-0.669867,-2.02627,0
23990,-0.592465,-0.646412,-2.01602,0
24010,-0.592291,-0.623997,-2.00239,0
24030,-0.597929,-0.60223,-1.98418,0
24050,-0.607475,-0.581141,-1.96284,0
24070,-0.613245,-0.563205,-1.94135,0
24090,-0.615614,-0.547396,-1.91887,0
24110,-0.616497,-0.531931,-1.89777,0
24130,-0.619071,-0.514722,-1.87507,0
24150,-0.62422,-0.498106,-1.85081,0
24170,-0.631933,-0.482469,-1.82546,0
24190,-0.644166,-0.467304,-1.79626,0
24210,-0.659155,-0.454607,-1.76366,0
24250,-0.698019,-0.440364,-1.68688,0
24270,-0.725686,-0.438774,-1.64364,0
24290,-0.760672,-0.440022,-1.59701,0
24310,-0.792996,-0.45065,-1.5497,0
24330,-0.826209,-0.464474,-1.50153,0
24350,-0.858996,-0.480658,-1.4546,0
24370,-0.890962,-0.499072,-1.40914,0
24390,-0.924634,-0.519381,-1.36437,0
24410,-0.961353,-0.540611,-1.32109,0
24430,-0.992937,-0.562248,-1.2812,0
24450,-1.01798,-0.582656,-1.24326,0
24470,-1.0465,-0.600549,-1.20381,0
24490,-1.08148,-0.617655,-1.16391,0
24510,-1.11056,-0.639034,-1.13381,0
24530,-1.13644,-0.661783,-1.11324,0
24550,-1.16105,-0.681819,-1.09581,0
24570,-1.18838,-0.700054,-1.08293,0
24590,-1.21244,-0.722403,-1.07749,0
24610,-1.23033,-0.753047,-1.07953,0
24630,-1.23991,-0.787325,-1.09034,0
24650,-1.24976,-0.822503,-1.10675,0
24670,-1.26146,-0.858688,-1.12814,0
24690,-1.26565,-0.891027,-1.16022,0
24710,-1.25624,-0.926296,-1.20636,0
24730,-1.23969,-0.959746,-1.26121,0
24750,-1.21728,-0.990068,-1.32345,0
24770,-1.18444,-1.01723,-1.39324,0
24790,-1.14379,-1.0421,-1.47029,0
24810,-1.09663,-1.06116,-1.55255,0
24830,-1.0489,-1.07455,-1.62873,0
24850,-1.00699,-1.0845,-1.69234,0
24870,-0.96749,-1.09116,-1.74749,0
24890,-0.931173,-1.09473,-1.79283,0
24910,-0.900291,-1.09496,-1.82829,0
24930,-0.870268,-1.0911,-1.85755,0
24950,-0.840274,-1.08267,-1.88617,0
24970,-0.812522,-1.06676,-1.91152,0
24990,-0.791117,-1.04395,-1.92468,0
25010,-0.770069,-1.02019,-1.92975,0
25030,-0.743603,-0.993162,-1.9373,0
25050,-0.724224,-0.962271,-1.94061,0
25070,-0.716162,-0.929588,-1.93428,0
25090,-0.715079,-0.896362,-1.92294,0
25110,-0.710184,-0.862838,-1.91162,0
25130,-0.704836,-0.828845,-1.89783,0
25150,-0.709605,-0.797709,-1.87636,0
25170,-0.715927,-0.767168,-1.85475,0
25190,-0.723608,-0.734046,-1.83112,0
25210,-0.736953,-0.703331,-1.80694,0
25230,-0.750128,-0.674688,-1.7861,0
25250,-0.760634,-0.645301,-1.76277,0
25270,-0.772672,-0.619793,-1.73786,0
25290,-0.784653,-0.597494,-1.7133,0
25310,-0.79837,-0.579118,-1.68613,0
25330,-0.815513,-0.56623,-1.65619,0
25360,-0.860817,-0.553622,-1.58428,0
25380,-0.887449,-0.554697,-1.54453,0
25400,-0.917303,-0.558801,-1.5013,0
25420,-0.947749,-0.572958,-1.45465,0
25440,-0.988121,-0.588096,-1.40196,0
25460,-1.03475,-0.605569,-1.34869,0
25480,-1.08789,-0.623606,-1.29472,0
25500,-1.14036,-0.642329,-1.2391,0
25520,-1.19314,-0.661299,-1.18076,0
25540,-1.24256,-0.682014,-1.12283,0
25560,-1.28867,-0.705676,-1.06873,0
25580,-1.33254,-0.731306,-1.01864,0
25600,-1.37754,-0.759,-0.973221,0
25620,-1.42335,-0.787876,-0.931797,0
25640,-1.46544,-0.820426,-0.897288,0
25660,-1.49854,-0.855024,-0.868981,0
25680,-1.52163,-0.892466,-0.851275,0
25700,-1.54077,-0.933375,-0.841853,0
25720,-1.55749,-0.974594,-0.841754,0
25740,-1.56775,-1.0132,-0.853912,0
25760,-1.57142,-1.05202,-0.877139,0
25780,-1.56457,-1.09061,-0.914748,0
25800,-1.54679,-1.1299,-0.969687,0
25820,-1.50813,-1.1641,-1.0456,0
25840,-1.45013,-1.19491,-1.1372,0
25860,-1.37877,-1.2217,-1.23803,0
25880,-1.30497,-1.24131,-1.33969,0
25900,-1.22564,-1.25256,-1.44108,0
25920,-1.13709,-1.25645,-1.54454,0
25940,-1.04995,-1.2528,-1.6437,0
25960,-0.968974,-1.24135,-1.73223,0
25980,-0.895355,-1.22549,-1.8112,0
26000,-0.830841,-1.20469,-1.8814,0
26020,-0.777463,-1.17894,-1.94099,0
26040,-0.742915,-1.14575,-1.98194,0
26060,-0.716038,-1.11032,-2.01359,0
26080,-0.699017,-1.07238,-2.0294,0
26090,-0.684497,-1.03413,-2.03952,0
26110,-0.674315,-0.995044,-2.04734,0
26130,-0.668493,-0.952796,-2.05087,0
26150,-0.673459,-0.910814,-2.04474,0
26170,-0.681394,-0.870384,-2.04019,0
26190,-0.681095,-0.828462,-2.03813,0
26210,-0.682683,-0.789169,-2.03191,0
26230,-0.691747,-0.756972,-2.01864,0
26250,-0.717706,-0.702976,-1.98451,0
26260,-0.732094,-0.681914,-1.96457,0
26280,-0.747974,-0.666093,-1.94287,0
26300,-0.766414,-0.653306,-1.92076,0
26320,-0.784556,-0.642057,-1.89605,0
26340,-0.804785,-0.632623,-1.86821,0
26360,-0.825673,-0.625949,-1.8391,0
26380,-0.847416,-0.621438,-1.80968,0
26400,-0.870548,-0.61768,-1.77866,0
26420,-0.896176,-0.615167,-1.74548,0
26440,-0.923299,-0.61597,-1.70819,0
26460,-0.948818,-0.62002,-1.66909,0
26480,-0.97427,-0.625352,-1.63096,0
26500,-1.00395,-0.630491,-1.59219,0
26520,-1.0383,-0.635268,-1.55139,0
26540,-1.07404,-0.64071,-1.50956,0
26560,-1.10804,-0.646137,-1.4672,0
26580,-1.13882,-0.650168,-1.4262,0
26600,-1.16899,-0.654069,-1.38555,0
26620,-1.20136,-0.661147,-1.34472,0
26640,-1.23693,-0.671289,-1.30524,0
26660,-1.27054,-0.681917,-1.26813,0
26680,-1.29842,-0.692689,-1.23324,0
26700,-1.3198,-0.704358,-1.19882,0
26720,-1.34087,-0.719159,-1.16555,0
26740,-1.36078,-0.737624,-1.13334,0
26760,-1.38426,-0.757718,-1.10241,0
26780,-1.4107,-0.774628,-1.07179,0
26800,-1.43245,-0.788832,-1.042,0
26820,-1.45288,-0.806005,-1.01285,0
26840,-1.47333,-0.825429,-0.981284,0
26860,-1.49761,-0.84876,-0.949551,0
26880,-1.52246,-0.873851,-0.921222,0
26900,-1.54829,-0.897199,-0.893953,0
26920,-1.57464,-0.920029,-0.866457,0
26940,-1.5965,-0.944282,-0.840077,0
26960,-1.61294,-0.969465,-0.816846,0
26980,-1.625,-0.99513,-0.798553,0
27000,-1.63579,-1.01969,-0.783542,0
27020,-1.64738,-1.04115,-0.771224,0
27040,-1.65376,-1.05864,-0.763619,0
27060,-1.65511,-1.07214,-0.762,0
27080,-1.64836,-1.08064,-0.768089,0
27100,-1.63873,-1.08514,-0.778005,0
27120,-1.62633,-1.08826,-0.791209,2001
27140,-1.61278,-1.08979,-0.807301,0
27160,-1.60092,-1.08978,-0.823699,0
27180,-1.58871,-1.08889,-0.838092,0
27200,-1.57917,-1.0884,-0.849476,0
27220,-1.57109,-1.08818,-0.858796,0
27240,-1.5659,-1.08789,-0.864291,0
27260,-1.56287,-1.0885,-0.868003,0
27280,-1.55912,-1.08888,-0.871564,0
27300,-1.55476,-1.08951,-0.875508,0
27320,-1.54944,-1.08946,-0.880703,0
27340,-1.54428,-1.08898,-0.886014,0
27360,-1.53925,-1.08754,-0.890161,0
27380,-1.536,-1.08715,-0.891089,0
27400,-1.53162,-1.0882,-0.890935,0
27420,-1.52626,-1.08992,-0.891564,0
27440,-1.51925,-1.09283,-0.895304,0
27460,-1.51537,-1.09712,-0.894875,0
27480,-1.51754,-1.09842,-0.887005,0
27500,-1.5263,-1.09737,-0.87557,0
27520,-1.52758,-1.09557,-0.871207,0
27540,-1.51702,-1.09434,-0.877632,0
27560,-1.49588,-1.09285,-0.894072,0
27580,-1.46304,-1.08808,-0.922256,0
27600,-1.4226,-1.07775,-0.95363,0
27620,-1.37176,-1.0604,-0.995581,0
27640,-1.30107,-1.04014,-1.0542,0
27660,-1.21789,-1.01963,-1.12525,0
27680,-1.13346,-0.986538,-1.19432,0
27700,-1.05205,-0.937531,-1.25833,0
27720,-0.96401,-0.872945,-1.32316,0
27740,-0.881149,-0.795069,-1.37826,0
27760,-0.807634,-0.707799,-1.42562,0
27780,-0.731616,-0.609692,-1.47856,0
27800,-0.664103,-0.498532,-1.52946,0
27820,-0.618616,-0.38326,-1.56606,0
27840,-0.597691,-0.284341,-1.59398,0
27860,-0.597886,-0.203738,-1.62001,0
27880,-0.619058,-0.141323,-1.63851,0
27900,-0.654141,-0.086246,-1.64513,0
27920,-0.685382,-0.0416346,-1.64993,0
27940,-0.700492,-0.0110975,-1.65804,0
27960,-0.696063,0.0144367,-1.66424,0
27980,-0.675245,0.0342285,-1.66471,0
28000,-0.653566,0.047388,-1.66244,0
28020,-0.640714,0.0548824,-1.65939,0
28040,-0.636833,0.0564878,-1.65603,0
28050,-0.638899,0.0553213,-1.65245,0
28070,-0.64246,0.052657,-1.64626,0
28090,-0.643798,0.049975,-1.63665,0
28110,-0.642432,0.0483118,-1.6253,0
28130,-0.640731,0.048248,-1.61284,0
28150,-0.642985,0.0492335,-1.60168,0
28170,-0.645838,0.0495244,-1.59312,0
28190,-0.647284,0.050666,-1.58586,0
28210,-0.648734,0.0594948,-1.56836,0
28230,-0.651273,0.0660571,-1.56035,0
28250,-0.655068,0.0725032,-1.55375,0
28270,-0.660477,0.0788373,-1.54773,0
28290,-0.666498,0.0847327,-1.5403,0
28310,-0.673304,0.0885577,-1.53155,0
28330,-0.68125,0.0899254,-1.52057,0
28350,-0.688634,0.0890279,-1.50877,0
28370,-0.700723,0.0851975,-1.49549,0
28390,-0.719179,0.0755716,-1.48179,0
28410,-0.757507,0.0410135,-1.45215,0
28430,-0.773889,0.0192095,-1.43467,0
28450,-0.79127,-0.00601742,-1.41615,0
28470,-0.810311,-0.033739,-1.39558,0
28490,-0.833383,-0.0608203,-1.37165,0
28510,-0.858726,-0.0875731,-1.34315,0
28570,-1.05343,-0.329136,-1.0788,0
28590,-1.06058,-0.344344,-1.06898,0
28610,-1.06776,-0.355879,-1.06095,0
28630,-1.07251,-0.36407,-1.05289,0
28650,-1.07365,-0.369221,-1.04647,0
28670,-1.07153,-0.37243,-1.04107,0
28690,-1.07114,-0.37505,-1.03449,0
28710,-1.074,-0.377214,-1.02884,0
28730,-1.07652,-0.379152,-1.02468,0
28750,-1.08003,-0.381161,-1.02134,0
28770,-1.08222,-0.383706,-1.01925,0
28790,-1.08388,-0.38541,-1.01789,0
28810,-1.08597,-0.385649,-1.01718,0
28830,-1.08909,-0.385356,-1.01568,0
28850,-1.09109,-0.383976,-1.01404,0
28870,-1.0923,-0.382418,-1.01365,0
28890,-1.0951,-0.381496,-1.01404,0
28910,-1.09717,-0.380096,-1.01511,0
28930,-1.09883,-0.378652,-1.01563,0
28950,-1.09967,-0.378136,-1.01496,0
28970,-1.09998,-0.378727,-1.01415,0
28990,-1.09925,-0.379817,-1.01505,0
29010,-1.09805,-0.380472,-1.01719,0
29030,-1.09648,-0.380582,-1.01886,0
29050,-1.09417,-0.380169,-1.01997,2000
29060,-1.09105,-0.379187,-1.01982,0
29080,-1.08763,-0.377652,-1.01955,0
29100,-1.08362,-0.376159,-1.0213,0
29120,-1.08397,-0.375425,-1.0223,0
29140,-1.08672,-0.376128,-1.02379,0
29160,-1.08712,-0.375614,-1.02805,0
29180,-1.08505,-0.374738,-1.03047,0
29200,-1.08078,-0.374038,-1.03052,0
29220,-1.07646,-0.374632,-1.0297,0
29240,-1.07349,-0.375841,-1.03037,0
29260,-1.07446,-0.376303,-1.0301,0
29280,-1.07833,-0.376017,-1.02784,0
29300,-1.0808,-0.375277,-1.02436,0
29320,-1.08157,-0.376206,-1.02063,0
29340,-1.0788,-0.379136,-1.01634,0
29360,-1.07688,-0.383314,-1.00945,0
29380,-1.07833,-0.387286,-0.997689,0
29400,-1.08055,-0.393234,-0.984456,0
29420,-1.08249,-0.399683,-0.970765,0
29440,-1.08307,-0.406394,-0.958506,0
29460,-1.08429,-0.412843,-0.946301,0
29480,-1.08715,-0.417343,-0.932341,0
29500,-1.08839,-0.423976,-0.920011,0
29520,-1.08688,-0.435477,-0.913434,0
29540,-1.08195,-0.449167,-0.910358,0
29560,-1.08129,-0.464424,-0.904614,0
29580,-1.08786,-0.482063,-0.898234,0
29600,-1.09077,-0.578502,-0.94177,0
29620,-1.07716,-0.635324,-1.00286,0
29640,-1.05516,-0.693966,-1.09908,0
29640,-0.98965,-0.758617,-1.31028,0
29660,-0.955196,-0.770456,-1.395,0
29680,-0.918273,-0.777315,-1.48399,0
29700,-0.880378,-0.780031,-1.57293,0
29720,-0.84403,-0.778613,-1.65484,0
29740,-0.813512,-0.771914,-1.7287,0
29760,-0.787878,-0.761733,-1.79278,0
29780,-0.766138,-0.759153,-1.84103,0
29800,-0.744479,-0.755747,-1.87422,0
29820,-0.727613,-0.750611,-1.89873,0
29840,-0.713864,-0.743058,-1.92101,0
29860,-0.698292,-0.731527,-1.94165,0
29880,-0.686997,-0.717207,-1.95253,0
29900,-0.677602,-0.700498,-1.95446,0
29920,-0.667479,-0.683844,-1.95385,0
29940,-0.657207,-0.664528,-1.95366,0
29960,-0.649725,-0.640665,-1.95138,0
29980,-0.646754,-0.613909,-1.94202,0
30000,-0.650245,-0.587056,-1.92528,0
30020,-0.658101,-0.560655,-1.90564,0
30040,-0.664245,-0.533385,-1.88514,0
30060,-0.672559,-0.505351,-1.86085,0
30080,-0.686273,-0.479756,-1.83222,0
30100,-0.701591,-0.458022,-1.80329,0
30120,-0.714864,-0.438992,-1.775,0
30140,-0.727168,-0.422873,-1.74757,0
30160,-0.739618,-0.409675,-1.71887,0
30190,-0.765201,-0.389163,-1.65073,0
30210,-0.77673,-0.383872,-1.61609,0
30230,-0.790153,-0.380308,-1.5806,0
30250,-0.806875,-0.378163,-1.54168,0
30270,-0.827905,-0.377919,-1.49891,0
30290,-0.849711,-0.379506,-1.45541,0
30310,-0.870473,-0.387416,-1.41269,0
30330,-0.897714,-0.396931,-1.36726,0
30350,-0.929409,-0.408438,-1.31927,0
30370,-0.963679,-0.421552,-1.26994,0
30390,-0.99677,-0.43686,-1.22128,0
30410,-1.02847,-0.455732,-1.17526,0
30430,-1.05872,-0.477314,-1.13079,0
30450,-1.08879,-0.501312,-1.08744,0
30470,-1.11474,-0.527837,-1.04524,0
30490,-1.13947,-0.55694,-1.00567,0
30510,-1.15996,-0.589027,-0.973106,0
30530,-1.18016,-0.620956,-0.947274,0
30550,-1.19751,-0.65481,-0.929451,0
30570,-1.22052,-0.688385,-0.917793,0
30590,-1.24034,-0.723108,-0.918043,0
30610,-1.25141,-0.764552,-0.925656,0
30630,-1.25786,-0.813065,-0.941743,0
30650,-1.26233,-0.86016,-0.969509,0
30670,-1.26303,-0.897926,-1.01243,0
30690,-1.25454,-0.929479,-1.06945,0
30710,-1.22751,-0.959018,-1.14093,0
30730,-1.18319,-0.987257,-1.2312,0
30750,-1.12956,-1.01051,-1.33621,0
30770,-1.06428,-1.02665,-1.45051,0
30790,-0.989411,-1.03722,-1.56627,0
30810,-0.92692,-1.03983,-1.66659,0
30830,-0.877318,-1.03527,-1.7441,0
30850,-0.82865,-1.03501,-1.80175,0
30870,-0.785684,-1.02855,-1.84482,0
30890,-0.749961,-1.01594,-1.87786,0
30910,-0.722992,-0.996854,-1.89939,0
30930,-0.702559,-0.975189,-1.91032,0
30950,-0.683374,-0.951008,-1.91576,0
30970,-0.668307,-0.922583,-1.91538,0
30990,-0.655267,-0.890128,-1.912,0
31010,-0.647497,-0.854727,-1.90676,0
31030,-0.656426,-0.814369,-1.88827,0
31050,-0.66525,-0.773136,-1.86466,0
31070,-0.662513,-0.731804,-1.84507,0
31090,-0.660058,-0.688751,-1.82721,0
31110,-0.665704,-0.646839,-1.80838,0
31120,-0.674554,-0.601754,-1.79151,0
31140,-0.692771,-0.564186,-1.76345,0
31160,-0.719177,-0.536138,-1.72837,0
31180,-0.748377,-0.517255,-1.69321,0
31200,-0.783165,-0.503237,-1.65409,0
31220,-0.82054,-0.496388,-1.61092,0
31240,-0.857565,-0.494829,-1.56346,0
31260,-0.891178,-0.502622,-1.51543,0
31280,-0.927988,-0.512804,-1.46515,0
31300,-0.969481,-0.525644,-1.41271,0
31320,-1.01507,-0.540657,-1.35914,0
31340,-1.06237,-0.558944,-1.30448,0
31360,-1.10594,-0.58065,-1.24832,0
31380,-1.14632,-0.60617,-1.1921,0
31400,-1.18313,-0.635513,-1.13813,0
31420,-1.2197,-0.669922,-1.08557,0
31420,-1.38037,-0.847453,-0.905134,0
31440,-1.42226,-0.89968,-0.876395,0
31460,-1.46073,-0.949048,-0.851817,0
31480,-1.49456,-0.997478,-0.830763,0
31500,-1.51858,-1.04867,-0.818905,0
31520,-1.53563,-1.10288,-0.819923,0
31540,-1.53984,-1.15664,-0.840291,0
31560,-1.53374,-1.20618,-0.880714,0
31580,-1.49837,-1.24719,-0.949016,0
31600,-1.42426,-1.28265,-1.05226,0
31620,-1.32015,-1.31607,-1.1829,0
31640,-1.17889,-1.34018,-1.34923,0
31660,-1.01534,-1.3511,-1.52899,0
31680,-0.863057,-1.35245,-1.68983,0
31700,-0.729326,-1.34464,-1.82874,0
31720,-0.623278,-1.32831,-1.93748,0
31740,-0.549806,-1.30842,-2.01022,0
31750,-0.501382,-1.28669,-2.0541,0
31780,-0.47373,-1.26539,-2.07625,0
31800,-0.46482,-1.24514,-2.07674,0
31820,-0.462977,-1.21982,-2.06565,0
31830,-0.464561,-1.1881,-2.05275,0
31850,-0.485593,-1.1521,-2.02919,0
31870,-0.51961,-1.11189,-1.99863,0
31890,-0.56819,-1.07069,-1.9553,0
31910,-0.616956,-1.02725,-1.90828,0
31930,-0.65912,-0.983679,-1.86519,0
31950,-0.688886,-0.938682,-1.83095,0
31970,-0.714292,-0.896346,-1.80582,0
31990,-0.747801,-0.858687,-1.78081,0
32010,-0.788353,-0.822439,-1.75165,0
32030,-0.820787,-0.785227,-1.72725,0
32050,-0.848737,-0.754269,-1.70176,0
32070,-0.878532,-0.729623,-1.66905,0
32090,-0.91213,-0.712399,-1.63305,0
32110,-0.950737,-0.70046,-1.59295,0
32130,-0.991636,-0.692924,-1.54733,0
32150,-1.03282,-0.689804,-1.49647,0
32170,-1.06852,-0.694991,-1.44692,0
32190,-1.10373,-0.701737,-1.39693,0
32210,-1.14257,-0.710399,-1.34554,0
32230,-1.18677,-0.721236,-1.29363,0
32250,-1.23285,-0.732253,-1.24133,0
32270,-1.27194,-0.743741,-1.19116,0
32290,-1.30448,-0.758112,-1.14445,0
32310,-1.33848,-0.773184,-1.09806,0
32330,-1.37376,-0.789046,-1.05391,0
32350,-1.40953,-0.805865,-1.01096,0
32370,-1.44511,-0.824544,-0.969914,0
32390,-1.47679,-0.844742,-0.933994,0
32410,-1.50173,-0.862784,-0.902712,0
32430,-1.52227,-0.878688,-0.875191,0
32450,-1.53783,-0.896376,-0.850518,0
32470,-1.55627,-0.915782,-0.825997,0
32490,-1.57764,-0.933924,-0.800384,0
32510,-1.59713,-0.951434,-0.774256,0
32530,-1.61514,-0.970828,-0.74754,0
32550,-1.63325,-0.991813,-0.723241,0
32570,-1.65369,-1.01165,-0.701747,0
32590,-1.67594,-1.02816,-0.67959,0
32610,-1.69824,-1.04213,-0.655622,0
32630,-1.71708,-1.05326,-0.63272,0
32650,-1.72894,-1.06167,-0.612655,0
32670,-1.73775,-1.06932,-0.595809,2001
32690,-1.74569,-1.07675,-0.5839,0
32710,-1.75089,-1.08304,-0.576949,0
32730,-1.75454,-1.08725,-0.573602,0
32750,-1.75573,-1.08957,-0.572937,0
32770,-1.75291,-1.0898,-0.574733,0
32790,-1.74703,-1.09129,-0.576273,0
32810,-1.74093,-1.09496,-0.57756,0
32830,-1.73401,-1.09904,-0.581104,0
32850,-1.72957,-1.10224,-0.582839,0
32870,-1.72873,-1.10676,-0.581239,0
32890,-1.72739,-1.1137,-0.579005,0
32910,-1.71904,-1.12163,-0.583198,0
32930,-1.70145,-1.13162,-0.593856,0
32950,-1.68206,-1.14579,-0.605993,0
32970,-1.66066,-1.16302,-0.621173,0
32990,-1.63497,-1.18148,-0.639778,0
33010,-1.6026,-1.19934,-0.666043,0
33030,-1.56355,-1.21201,-0.701795,0
33050,-1.51315,-1.21867,-0.751296,0
33070,-1.44241,-1.2209,-0.822713,0
33090,-1.34554,-1.21718,-0.919542,0
33110,-1.23462,-1.20791,-1.02663,0
33130,-1.12441,-1.19313,-1.13268,0
33150,-1.03267,-1.17042,-1.22736,0
33170,-0.948563,-1.13434,-1.3239,0
33190,-0.871707,-1.08277,-1.41489,0
33210,-0.809439,-1.01674,-1.4806,0
33230,-0.765576,-0.937095,-1.51873,0
33250,-0.723328,-0.84702,-1.55284,0
33270,-0.672012,-0.753574,-1.59527,0
33290,-0.63829,-0.661481,-1.62969,0
33310,-0.626047,-0.57791,-1.65422,0
33330,-0.629146,-0.509449,-1.66976,0
33350,-0.644044,-0.455571,-1.67141,0
33370,-0.657175,-0.426681,-1.66266,0
33390,-0.670523,-0.411007,-1.64871,0
33410,-0.686639,-0.403976,-1.62794,0
33430,-0.703014,-0.404071,-1.59943,0
33450,-0.714382,-0.412578,-1.56965,0
33470,-0.7213,-0.426072,-1.53777,0
33490,-0.731534,-0.440615,-1.50296,0
33510,-0.748167,-0.454383,-1.46513,0
33530,-0.769072,-0.467428,-1.42623,0
33550,-0.790806,-0.47831,-1.38785,0
33570,-0.811676,-0.486398,-1.35251,0
33590,-0.833739,-0.489697,-1.32163,0
33610,-0.854113,-0.490175,-1.29393,0
33630,-0.871722,-0.489163,-1.26882,0
33650,-0.884952,-0.48626,-1.24498,0
33670,-0.895463,-0.482058,-1.22394,0
33690,-0.90461,-0.477285,-1.20608,0
33710,-0.913091,-0.473017,-1.19076,0
33730,-0.918824,-0.467664,-1.17733,0
33750,-0.924474,-0.461917,-1.16541,0
33770,-0.930404,-0.457794,-1.15705,0
33790,-0.937351,-0.453891,-1.15148,0
33810,-0.940872,-0.449008,-1.14667,0
33830,-0.941335,-0.445022,-1.14143,0
33850,-0.943206,-0.443334,-1.13671,0
33870,-0.947041,-0.441148,-1.13583,0
33890,-0.950594,-0.435491,-1.13403,0
33910,-0.954442,-0.430166,-1.12941,0
33930,-0.953441,-0.425536,-1.12762,0
33950,-0.951879,-0.419554,-1.12828,0
33970,-0.953349,-0.412662,-1.12754,0
33990,-0.95518,-0.405524,-1.12575,0
34010,-0.956385,-0.399504,-1.12414,0
34030,-0.953457,-0.396213,-1.12283,0
34050,-0.955541,-0.395325,-1.12152,0
34070,-0.960229,-0.394369,-1.12079,0
34090,-0.961535,-0.395532,-1.11817,0
34110,-0.960371,-0.400801,-1.11261,0
34130,-0.959318,-0.410169,-1.10554,0
34150,-0.959154,-0.419772,-1.09422,0
34170,-0.961727,-0.429216,-1.07906,0
34190,-0.960759,-0.442461,-1.06638,0
34210,-0.956282,-0.461949,-1.05831,0
34230,-0.955783,-0.487051,-1.05356,0
34240,-0.982506,-0.535935,-1.04743,0
34270,-1.01342,-0.58421,-1.07832,0
34280,-1.03096,-0.629336,-1.15112,0
34300,-1.02761,-0.64764,-1.20381,0
34320,-1.01694,-0.66134,-1.26718,0
34340,-0.999536,-0.672225,-1.34245,0
34360,-0.976333,-0.679806,-1.42291,0
34380,-0.946302,-0.68663,-1.50703,0
34400,-0.909844,-0.69186,-1.59442,0
34420,-0.873495,-0.694969,-1.67693,0
34440,-0.843404,-0.697143,-1.74336,0
34460,-0.816838,-0.698969,-1.79167,0
34480,-0.798645,-0.698338,-1.81604,0
34500,-0.788107,-0.699857,-1.82034,0
34520,-0.784212,-0.701958,-1.80895,0
34540,-0.78459,-0.703655,-1.78789,0
34560,-0.787926,-0.704973,-1.75866,0
34580,-0.794732,-0.704293,-1.72122,0
34600,-0.801758,-0.699709,-1.6802,0
34620,-0.808543,-0.693965,-1.63944,0
34640,-0.815933,-0.687253,-1.59961,0
34660,-0.826385,-0.680206,-1.55776,0
34680,-0.840468,-0.671362,-1.51267,0
34700,-0.853774,-0.657395,-1.46735,0
34720,-0.858797,-0.646733,-1.42354,0
34740,-0.861034,-0.637258,-1.38329,0
34760,-0.863111,-0.629101,-1.34555,0
34780,-0.867284,-0.620927,-1.31011,0
34800,-0.874075,-0.611571,-1.27882,0
34840,-0.892064,-0.56623,-1.21204,0
34860,-0.891511,-0.548155,-1.19841,0
34880,-0.891322,-0.530276,-1.18899,0
34900,-0.898272,-0.513668,-1.18008,0
34920,-0.908697,-0.499632,-1.17383,0
34930,-0.915707,-0.488076,-1.16949,0
34950,-0.915633,-0.478181,-1.16482,0
34970,-0.913919,-0.470956,-1.1593,0
34990,-0.911759,-0.46583,-1.15479,0
35010,-0.912544,-0.462339,-1.15092,0
35030,-0.915902,-0.460099,-1.14808,0
35050,-0.919272,-0.457738,-1.1464,0
35070,-0.923535,-0.455724,-1.14521,0
35090,-0.926604,-0.453552,-1.14346,0
35110,-0.929162,-0.4503,-1.1417,0
35130,-0.929811,-0.446531,-1.14073,0
35150,-0.93016,-0.443255,-1.13842,0
35170,-0.932595,-0.439597,-1.13653,0
35190,-0.935008,-0.435387,-1.1352,0
35210,-0.937049,-0.430976,-1.13446,0
35230,-0.940196,-0.427023,-1.13283,0
35250,-0.942751,-0.422766,-1.13124,2000
35270,-0.9453,-0.41726,-1.12949,0
35290,-0.944502,-0.412158,-1.1286,0
35310,-0.941546,-0.410082,-1.12962,0
35330,-0.938878,-0.410183,-1.13156,0
35350,-0.937555,-0.40793,-1.13195,0
35370,-0.936299,-0.404221,-1.12905,0
35390,-0.934452,-0.404557,-1.12725,0
35410,-0.9356,-0.407418,-1.12661,0
35430,-0.935941,-0.406176,-1.12362,0
35450,-0.936735,-0.403607,-1.11681,0
35470,-0.937087,-0.404472,-1.11209,0
35490,-0.936078,-0.40495,-1.10862,0
35510,-0.937719,-0.405978,-1.10331,0
35530,-0.938798,-0.407122,-1.09634,0
35550,-0.939987,-0.408679,-1.08952,0
35570,-0.940256,-0.411794,-1.08445,0
35590,-0.942162,-0.416124,-1.0797,0
35610,-0.945975,-0.420872,-1.07447,0
35630,-0.947559,-0.426089,-1.06796,0
35650,-0.949425,-0.433563,-1.05929,0
35670,-0.948555,-0.443052,-1.04938,0
35690,-0.945687,-0.455582,-1.03625,0
35710,-0.942804,-0.469918,-1.02105,0
35730,-0.94335,-0.483423,-1.00493,0
35750,-0.94499,-0.494902,-0.99031,0
35770,-0.949792,-0.507835,-0.976021,0
35790,-0.959174,-0.524389,-0.958656,0
35810,-0.966145,-0.544777,-0.94381,0
35840,-0.989519,-0.696349,-1.0968,0
35850,-0.9799,-0.706898,-1.13448,0
35870,-0.966647,-0.714755,-1.17768,0
35890,-0.948801,-0.720351,-1.22882,0
35910,-0.924969,-0.722221,-1.28927,0
35930,-0.89944,-0.72106,-1.35696,0
35950,-0.872962,-0.717473,-1.42775,0
35970,-0.844053,-0.711715,-1.5008,0
35990,-0.813257,-0.704432,-1.57602,0
36010,-0.781148,-0.696197,-1.65176,0
36030,-0.74983,-0.687717,-1.72476,0
36050,-0.722056,-0.679371,-1.79166,0
36070,-0.697383,-0.674426,-1.85126,0
36090,-0.675927,-0.678162,-1.90159,0
36110,-0.6559,-0.682989,-1.94113,0
36130,-0.637169,-0.685829,-1.9704,0
36150,-0.621337,-0.684583,-1.99134,0
36170,-0.604323,-0.679969,-2.00838,0
36190,-0.593079,-0.673504,-2.01716,0
36210,-0.591393,-0.665494,-2.01485,0
36230,-0.591796,-0.657602,-2.00566,0
36250,-0.591158,-0.648064,-1.99536,0
36270,-0.592129,-0.637464,-1.98177,0
36290,-0.596871,-0.62679,-1.96192,0
36310,-0.602221,-0.618663,-1.9393,0
36330,-0.61088,-0.610621,-1.91245,0
36350,-0.623787,-0.60293,-1.88038,0
36370,-0.640831,-0.594662,-1.84595,0
36390,-0.656283,-0.584858,-1.81355,0
36410,-0.672279,-0.573024,-1.78064,0
36430,-0.687045,-0.560858,-1.74851,0
36450,-0.699074,-0.546891,-1.72002,0
36470,-0.712421,-0.530845,-1.69296,0
36490,-0.727691,-0.513846,-1.66474,0
36510,-0.743255,-0.495985,-1.63443,0
36530,-0.759044,-0.478277,-1.60392,0
36550,-0.772197,-0.460234,-1.57597,0
36570,-0.785764,-0.441939,-1.55263,0
36590,-0.801546,-0.424016,-1.53107,0
36610,-0.818871,-0.40519,-1.50759,0
36630,-0.835917,-0.388004,-1.48202,0
36650,-0.851825,-0.375261,-1.45363,0
36670,-0.870422,-0.367085,-1.42244,0
36690,-0.892435,-0.363118,-1.38947,0
36710,-0.919444,-0.362829,-1.35388,0
36730,-0.949685,-0.365571,-1.31662,0
36750,-0.98261,-0.370411,-1.2788,0
36770,-1.01293,-0.382619,-1.2429,0
36790,-1.04223,-0.396071,-1.20627,0
36810,-1.06791,-0.411318,-1.16974,0
36830,-1.08653,-0.430311,-1.13466,0
36850,-1.10463,-0.452121,-1.10105,0
36870,-1.1218,-0.477019,-1.06918,0
36890,-1.13765,-0.504926,-1.03857,0
36910,-1.14871,-0.537966,-1.0112,0
36930,-1.16066,-0.575817,-0.98934,0
36950,-1.16759,-0.616907,-0.976074,0
36970,-1.17721,-0.659068,-0.970585,0
36990,-1.18725,-0.701754,-0.968451,0
37010,-1.19892,-0.749797,-0.970245,0
37050,-1.21645,-0.848893,-1.00171,0
37070,-1.21475,-0.889333,-1.03319,0
37090,-1.20052,-0.926509,-1.07996,0
37110,-1.17563,-0.960382,-1.1426,0
37130,-1.14496,-0.986996,-1.21605,0
37150,-1.1012,-1.01122,-1.30092,0
37170,-1.04872,-1.02031,-1.38791,0
37190,-0.986607,-1.02531,-1.4828,0
37210,-0.927477,-1.02478,-1.57434,0
37230,-0.88202,-1.01648,-1.6471,0
37250,-0.845312,-1.01096,-1.69943,0
37270,-0.816776,-1.00252,-1.72854,0
37290,-0.791216,-0.989073,-1.74748,0
37310,-0.764278,-0.967659,-1.76411,0
37330,-0.745891,-0.941918,-1.77334,0
37350,-0.736003,-0.913512,-1.77496,0
37370,-0.730815,-0.88232,-1.77028,0
37390,-0.7331,-0.847083,-1.7589,0
37410,-0.726111,-0.812479,-1.75253,0
37430,-0.725527,-0.778436,-1.74168,0
37450,-0.736329,-0.744713,-1.72384,0
37470,-0.750777,-0.712142,-1.70497,0
37490,-0.771721,-0.682334,-1.68079,0
37510,-0.787246,-0.652742,-1.65392,0
37530,-0.803791,-0.623615,-1.62516,0
37550,-0.825896,-0.598827,-1.59478,0
37570,-0.856274,-0.579109,-1.56071,0
37590,-0.88921,-0.563495,-1.52283,0
37610,-0.921104,-0.551455,-1.48162,0
37630,-0.951522,-0.544245,-1.43685,0
37650,-0.977321,-0.550186,-1.39076,0
37660,-1.0053,-0.560232,-1.34049,0
37720,-1.11541,-0.611137,-1.18199,0
37760,-1.18524,-0.661316,-1.08379,0
37760,-1.21532,-0.689958,-1.03407,0
37770,-1.24689,-0.721341,-0.984308,0
37790,-1.31093,-0.798158,-0.904266,0
37800,-1.35306,-0.837887,-0.867242,0
37820,-1.39626,-0.87819,-0.835099,0
37840,-1.43507,-0.924299,-0.812611,0
37860,-1.46999,-0.975393,-0.795283,0
37880,-1.50103,-1.02536,-0.786148,0
37900,-1.52632,-1.07036,-0.786985,0
37920,-1.53713,-1.11121,-0.807197,0
37940,-1.52329,-1.15021,-0.856225,0
37960,-1.48268,-1.18372,-0.941876,0
37980,-1.4158,-1.20677,-1.05727,0
38000,-1.32725,-1.21846,-1.18686,0
38020,-1.23365,-1.22051,-1.31286,0
38040,-1.14886,-1.21556,-1.42332,0
38060,-1.07033,-1.2038,-1.52236,0
38080,-0.995368,-1.18533,-1.6101,0
38100,-0.928706,-1.16034,-1.68731,0
38120,-0.88033,-1.12939,-1.7444,0
38140,-0.838933,-1.09725,-1.78615,0
38160,-0.811176,-1.0627,-1.80946,0
38180,-0.790615,-1.02553,-1.82175,0
38200,-0.794063,-0.98171,-1.81395,0
38220,-0.808672,-0.937222,-1.79609,0
38240,-0.824969,-0.893842,-1.77495,0
38260,-0.844754,-0.851045,-1.74981,0
38280,-0.865724,-0.813788,-1.72711,0
38300,-0.877601,-0.779666,-1.71372,0
38320,-0.894379,-0.744748,-1.69629,0
38340,-0.913494,-0.711574,-1.67483,0
38360,-0.933351,-0.683116,-1.65118,0
38380,-0.951058,-0.658995,-1.62854,0
38400,-0.96862,-0.635576,-1.60548,0
38420,-0.98965,-0.614326,-1.58155,0
38440,-1.01597,-0.59573,-1.55211,0
38460,-1.04261,-0.579943,-1.51747,0
38480,-1.06917,-0.569199,-1.47867,0
38500,-1.09977,-0.564548,-1.43501,0
38520,-1.13092,-0.569126,-1.38942,0
38540,-1.1647,-0.576342,-1.33881,0
38560,-1.19713,-0.586655,-1.28613,0
38580,-1.22988,-0.599961,-1.23303,0
38600,-1.25893,-0.616982,-1.18295,0
38620,-1.28672,-0.637012,-1.13565,0
38640,-1.31442,-0.656377,-1.08967,0
38660,-1.34063,-0.676503,-1.0443,0
38680,-1.36656,-0.698522,-1.0025,0
38700,-1.39274,-0.723665,-0.962307,0
38720,-1.4211,-0.750461,-0.925569,0
38740,-1.44938,-0.774425,-0.894675,0
38760,-1.47163,-0.794066,-0.868275,0
38780,-1.48829,-0.813386,-0.842576,0
38800,-1.50876,-0.835585,-0.813512,0
38820,-1.52772,-0.858833,-0.789096,0
38840,-1.5399,-0.883261,-0.769961,0
38860,-1.55034,-0.908595,-0.751601,0
38880,-1.56655,-0.935259,-0.733892,0
38900,-1.5853,-0.957991,-0.71827,0
38920,-1.6009,-0.975551,-0.702973,0
38940,-1.61285,-0.991493,-0.689112,2001
38960,-1.6225,-1.00445,-0.677943,0
38980,-1.63354,-1.01331,-0.668333,0
39000,-1.64249,-1.0179,-0.661871,0
39020,-1.64717,-1.02087,-0.660107,0
39040,-1.64681,-1.0235,-0.661785,0
39060,-1.64429,-1.02497,-0.666271,0
39080,-1.6397,-1.02649,-0.672487,0
39100,-1.63384,-1.02784,-0.680411,0
39120,-1.62529,-1.02782,-0.689642,0
39140,-1.61224,-1.02696,-0.700864,0
39160,-1.59591,-1.02487,-0.713403,0
39180,-1.5803,-1.02262,-0.723411,0
39200,-1.56631,-1.02286,-0.731641,0
39220,-1.5517,-1.02621,-0.742272,0
39240,-1.53204,-1.03182,-0.758957,0
39260,-1.50382,-1.03917,-0.783065,0
39280,-1.46591,-1.04705,-0.811938,0
39300,-1.42124,-1.05509,-0.842178,0
39320,-1.37235,-1.06183,-0.876317,0
39340,-1.3094,-1.06637,-0.924454,0
39360,-1.23001,-1.06669,-0.9903,0
39380,-1.14736,-1.05902,-1.06549,0
39400,-1.06225,-1.04339,-1.14075,0
39410,-0.989394,-1.01833,-1.20751,0
39430,-0.922483,-0.978549,-1.26963,0
39450,-0.859193,-0.920641,-1.32747,0
39470,-0.797375,-0.846923,-1.37937,0
39490,-0.741101,-0.754505,-1.4322,0
39510,-0.689976,-0.646858,-1.49128,0
39530,-0.639218,-0.541967,-1.5488,0
39550,-0.616965,-0.450628,-1.59032,0
39570,-0.63121,-0.381164,-1.61846,0
39590,-0.674936,-0.322442,-1.63492,0
39610,-0.729525,-0.277216,-1.63947,0
39630,-0.774839,-0.245735,-1.63339,0
39650,-0.794772,-0.234044,-1.62332,0
39670,-0.786267,-0.235748,-1.60754,0
39690,-0.762613,-0.248899,-1.58542,0
39710,-0.744527,-0.268966,-1.55952,0
39730,-0.741758,-0.29203,-1.5314,0
39750,-0.753321,-0.315952,-1.50107,0
39770,-0.773167,-0.336567,-1.46734,0
39790,-0.790341,-0.357496,-1.43427,0
39800,-0.802056,-0.377753,-1.40454,0
39810,-0.825772,-0.408774,-1.3501,0
39830,-0.839192,-0.421247,-1.32438,0
39850,-0.851737,-0.431179,-1.29882,0
39870,-0.861494,-0.438144,-1.27598,0
39890,-0.867795,-0.443969,-1.25898,0
39910,-0.87141,-0.450066,-1.24616,0
39930,-0.874308,-0.455512,-1.23478,0
39950,-0.874952,-0.458922,-1.22528,0
39970,-0.874178,-0.45956,-1.21822,0
39990,-0.869237,-0.458477,-1.21446,0
40010,-0.864063,-0.458063,-1.21282,0
40030,-0.864363,-0.456443,-1.21118,0
40050,-0.870576,-0.452679,-1.20923,0
40070,-0.875438,-0.447671,-1.20648,0
40090,-0.876476,-0.443797,-1.20338,0
40110,-0.876363,-0.44135,-1.20002,0
40130,-0.876912,-0.439426,-1.19877,0
40150,-0.878751,-0.437131,-1.19758,0
40170,-0.880819,-0.434859,-1.19534,0
40190,-0.884082,-0.433082,-1.19216,0
40210,-0.886399,-0.43044,-1.19012,0
40230,-0.886604,-0.425868,-1.18923,0
40250,-0.887194,-0.420795,-1.18912,0
40270,-0.888271,-0.4154,-1.18957,0
40290,-0.889743,-0.410398,-1.18957,0
40310,-0.892354,-0.40663,-1.18877,0
40330,-0.893026,-0.401017,-1.18517,0
40350,-0.889978,-0.395597,-1.18392,0
40370,-0.887073,-0.394119,-1.18587,0
40390,-0.884923,-0.391218,-1.18683,0
40410,-0.884714,-0.386554,-1.18354,0
40430,-0.886882,-0.384027,-1.17999,0
40450,-0.887657,-0.383016,-1.17603,0
40470,-0.890749,-0.383688,-1.17037,0
40490,-0.893465,-0.384505,-1.1611,0
40510,-0.897421,-0.38558,-1.14751,0
40530,-0.903572,-0.390006,-1.13434,0
40550,-0.909697,-0.395946,-1.12019,0
40570,-0.915058,-0.40354,-1.10425,0
40590,-0.920533,-0.412641,-1.08475,0
40610,-0.927679,-0.423574,-1.06251,0
40630,-0.935397,-0.435167,-1.04363,0
40650,-0.94096,-0.446203,-1.03036,0
40670,-0.946442,-0.456055,-1.02136,0
40690,-0.951467,-0.469528,-1.01334,0
40710,-0.955567,-0.492006,-1.00901,0
40740,-0.959913,-0.540641,-1.02125,0
40760,-0.963645,-0.565209,-1.03854,0
40780,-0.965254,-0.590385,-1.06815,0
40800,-0.967816,-0.610662,-1.11035,0
40820,-0.969805,-0.627708,-1.1645,0
40840,-0.964372,-0.642821,-1.23113,0
40860,-0.948899,-0.654412,-1.30813,0
40870,-0.924734,-0.662334,-1.39324,0
40890,-0.896101,-0.666309,-1.48283,0
40910,-0.865096,-0.6671,-1.57307,0
40930,-0.836879,-0.665947,-1.6555,0
40950,-0.812186,-0.664706,-1.72698,0
40970,-0.792247,-0.662779,-1.78752,0
40990,-0.76812,-0.666322,-1.83848,0
41010,-0.747228,-0.668546,-1.87488,0
41030,-0.729835,-0.670741,-1.89615,0
41050,-0.717547,-0.672107,-1.90256,0
41070,-0.707478,-0.6726,-1.89567,0
41090,-0.702667,-0.66988,-1.87725,0
41110,-0.704884,-0.664525,-1.84863,0
41130,-0.712391,-0.656559,-1.81001,0
41150,-0.726893,-0.646094,-1.76346,0
41170,-0.742707,-0.636273,-1.71356,0
41190,-0.754949,-0.62692,-1.66426,0
41210,-0.764008,-0.620992,-1.61827,0
41230,-0.780361,-0.610768,-1.56863,0
41250,-0.79513,-0.597876,-1.51749,0
41270,-0.803831,-0.58645,-1.46999,0
41290,-0.813411,-0.577453,-1.42577,0
41310,-0.826694,-0.564755,-1.38651,0
41330,-0.83641,-0.549739,-1.3552,0
41350,-0.845124,-0.53367,-1.32855,0
41370,-0.855179,-0.516525,-1.30368,0
41390,-0.864659,-0.499571,-1.28273,0
41410,-0.874712,-0.48283,-1.26545,0
41430,-0.878971,-0.467545,-1.25338,0
41450,-0.884951,-0.453592,-1.24288,0
41470,-0.890915,-0.441203,-1.23252,0
41490,-0.892177,-0.430434,-1.22375,0
41510,-0.892686,-0.420666,-1.21562,0
41530,-0.895368,-0.412942,-1.20934,0
41550,-0.896705,-0.408255,-1.20525,0
41570,-0.897982,-0.40496,-1.20084,0
41590,-0.902135,-0.402815,-1.1961,0
41610,-0.9058,-0.400887,-1.19191,0
41630,-0.909492,-0.398277,-1.18857,0
41650,-0.912632,-0.395904,-1.1865,0
41670,-0.916944,-0.393655,-1.18564,0
41690,-0.92059,-0.389565,-1.18595,0
41710,-0.921777,-0.383873,-1.18602,0
41730,-0.922852,-0.37856,-1.18574,0
41750,-0.925059,-0.374518,-1.185,2000
41770,-0.925886,-0.370732,-1.18433,0
41790,-0.925492,-0.367213,-1.18281,0
41810,-0.921754,-0.366222,-1.18242,0
41830,-0.916787,-0.36727,-1.17965,0
41850,-0.915729,-0.369279,-1.17513,0
41870,-0.915326,-0.371426,-1.17159,0
41890,-0.9181,-0.374697,-1.16787,0
41910,-0.92285,-0.378272,-1.16291,0
41930,-0.926778,-0.381556,-1.15578,0
41950,-0.930329,-0.385219,-1.14721,0
41970,-0.931917,-0.389027,-1.13866,0
41990,-0.934025,-0.393036,-1.13062,0
42010,-0.936761,-0.396882,-1.12234,0
42030,-0.93994,-0.401469,-1.11297,0
42050,-0.944428,-0.4062,-1.10328,0
42070,-0.947163,-0.410792,-1.09678,0
42090,-0.950817,-0.414926,-1.09092,0
42110,-0.955331,-0.418101,-1.08308,0
42130,-0.959356,-0.420542,-1.07351,0
42150,-0.964344,-0.423927,-1.06382,0
42170,-0.969259,-0.428077,-1.05484,0
42190,-0.974229,-0.433008,-1.04635,0
42210,-0.978636,-0.43808,-1.03511,0
42230,-0.981948,-0.444862,-1.02141,0
42250,-0.984421,-0.453771,-1.00723,0
42270,-0.98942,-0.464834,-0.994843,0
42290,-0.995133,-0.474968,-0.984196,0
42310,-1.00134,-0.485133,-0.975268,0
42330,-1.00819,-0.496136,-0.965184,0
42350,-1.01411,-0.507875,-0.955168,0
42370,-1.01865,-0.52149,-0.946603,0
42400,-1.02912,-0.550965,-0.93766,0
42430,-1.03703,-0.599913,-0.972828,0
42450,-1.03558,-0.615568,-1.00084,0
42470,-1.01114,-0.666935,-1.14346,0
42490,-0.978051,-0.69179,-1.27594,0
42510,-0.957312,-0.701432,-1.34923,0
42530,-0.932842,-0.708792,-1.42687,0
42550,-0.905981,-0.713862,-1.50624,0
42570,-0.882432,-0.715503,-1.5815,0
42590,-0.86104,-0.71305,-1.65145,0
42610,-0.840774,-0.707448,-1.71679,0
42630,-0.822193,-0.698789,-1.77235,0
42650,-0.803276,-0.696802,-1.80895,0
42670,-0.786613,-0.692058,-1.83241,0
42690,-0.765804,-0.685223,-1.84903,0
42710,-0.747409,-0.674656,-1.86264,0
42730,-0.73183,-0.658611,-1.87762,0
42750,-0.719783,-0.640107,-1.88525,0
42770,-0.716627,-0.622413,-1.87984,0
42790,-0.712793,-0.608897,-1.86705,0
42810,-0.708001,-0.596768,-1.85375,0
42830,-0.702982,-0.582381,-1.84128,0
42850,-0.699117,-0.562281,-1.82424,0
42870,-0.704162,-0.540944,-1.79893,0
42890,-0.71499,-0.524208,-1.76727,0
42910,-0.7317,-0.51085,-1.73064,0
42930,-0.747343,-0.498737,-1.69164,0
42950,-0.766494,-0.485696,-1.64824,0
42970,-0.790654,-0.476196,-1.60121,0
42990,-0.820902,-0.469792,-1.55184,0
43010,-0.856715,-0.464743,-1.50008,0
43030,-0.88879,-0.466638,-1.45027,0
43050,-0.917082,-0.468346,-1.40157,0
43070,-0.940781,-0.470987,-1.35499,0
43090,-0.961978,-0.477424,-1.31127,0
43110,-0.981663,-0.486419,-1.26936,0
43130,-1.00217,-0.498217,-1.22715,0
43150,-1.02362,-0.51317,-1.18462,0
43170,-1.0456,-0.530055,-1.14233,0
43190,-1.0698,-0.548868,-1.10245,0
43210,-1.09267,-0.570484,-1.06585,0
43230,-1.1138,-0.595522,-1.03235,0
43250,-1.13667,-0.623398,-1.00053,0
43270,-1.16278,-0.648984,-0.969368,0
43290,-1.18678,-0.676106,-0.94254,0
43310,-1.20405,-0.705403,-0.926084,0
43330,-1.21143,-0.741414,-0.921008,0
43350,-1.21657,-0.780553,-0.921293,0
43370,-1.22939,-0.819027,-0.923738,0
43390,-1.23846,-0.855698,-0.935665,0
43410,-1.23989,-0.891412,-0.959979,0
43430,-1.22984,-0.926168,-0.99991,0
43470,-1.18652,-0.985785,-1.11976,0
43490,-1.15269,-1.01046,-1.19888,0
43510,-1.1057,-1.02226,-1.28916,0
43530,-1.04682,-1.02915,-1.38821,0
43550,-0.987789,-1.03233,-1.4891,0
43570,-0.936857,-1.03018,-1.57905,0
43590,-0.89482,-1.02097,-1.65321,0
43610,-0.853428,-1.0149,-1.7121,0
43630,-0.815758,-1.00757,-1.75504,0
43650,-0.779772,-0.993725,-1.7904,0
43670,-0.749378,-0.975797,-1.81652,0
43690,-0.730528,-0.954403,-1.82805,0
43710,-0.719332,-0.930433,-1.83049,0
43720,-0.70968,-0.904783,-1.83214,0
43750,-0.699823,-0.876612,-1.83117,0
43770,-0.701278,-0.846014,-1.82281,0
43790,-0.707226,-0.815737,-1.80679,0
43800,-0.716343,-0.788201,-1.78477,0
43820,-0.727959,-0.760606,-1.76002,0
43840,-0.742089,-0.734484,-1.73501,0
43860,-0.756366,-0.710402,-1.70904,0
43880,-0.775921,-0.686658,-1.68022,0
43900,-0.796258,-0.663248,-1.64842,0
43920,-0.822688,-0.643103,-1.61164,0
43940,-0.852096,-0.627442,-1.57331,0
43960,-0.882222,-0.615106,-1.53492,0
43980,-0.911759,-0.604537,-1.49661,0
44000,-0.942965,-0.596626,-1.45646,0
44020,-0.973175,-0.591784,-1.41514,0
44040,-1.00458,-0.590993,-1.37077,0
44060,-1.03069,-0.600186,-1.32784,0
44080,-1.05837,-0.612774,-1.28414,0
44100,-1.08834,-0.62994,-1.23968,0
44120,-1.12156,-0.650416,-1.19368,0
44140,-1.15674,-0.673235,-1.14619,0
44200,-1.29883,-0.833118,-0.94652,0
44220,-1.3353,-0.868832,-0.909337,0
44230,-1.40732,-0.948359,-0.85315,0
44250,-1.43433,-0.989391,-0.840016,0
44270,-1.45513,-1.03008,-0.838885,0
44290,-1.47269,-1.06826,-0.845379,0
44310,-1.48751,-1.10605,-0.857814,0
44330,-1.48481,-1.14281,-0.888143,0
44350,-1.46633,-1.17803,-0.935691,0
44370,-1.42846,-1.20838,-1.00688,0
44390,-1.3599,-1.2324,-1.10915,0
44410,-1.26818,-1.24424,-1.23209,0
44430,-1.17086,-1.24953,-1.35718,0
44450,-1.07814,-1.24629,-1.47369,0
44470,-0.992256,-1.23402,-1.5768,0
44490,-0.910624,-1.22309,-1.66902,0
44510,-0.838491,-1.20512,-1.74462,0
44530,-0.782476,-1.18206,-1.80235,0
44550,-0.747166,-1.15396,-1.83862,0
44570,-0.728202,-1.11971,-1.85741,0
44590,-0.722021,-1.08263,-1.86165,0
44610,-0.723493,-1.046,-1.85665,0
44630,-0.740083,-1.00537,-1.83862,0
44650,-0.755936,-0.965207,-1.82148,0
44670,-0.770657,-0.926368,-1.80309,0
44690,-0.784501,-0.889344,-1.7876,0
44710,-0.79607,-0.85257,-1.77579,0
44730,-0.810561,-0.81677,-1.75968,0
44750,-0.830011,-0.785391,-1.74091,0
44770,-0.844675,-0.759707,-1.72452,0
44790,-0.856874,-0.738568,-1.70596,0
44810,-0.874436,-0.722581,-1.67897,0
44830,-0.901671,-0.711825,-1.64276,0
44850,-0.938472,-0.706669,-1.59756,0
44870,-0.978804,-0.705929,-1.55006,0
44890,-1.02096,-0.706995,-1.50042,0
44910,-1.06715,-0.709716,-1.45002,0
44930,-1.11467,-0.712499,-1.39981,0
44950,-1.15637,-0.718386,-1.35145,0
44970,-1.20057,-0.721477,-1.30054,0
44990,-1.24054,-0.7272,-1.25319,0
45010,-1.27871,-0.7351,-1.20808,0
45030,-1.31525,-0.743738,-1.16561,0
45050,-1.34884,-0.752313,-1.12407,0
45070,-1.38021,-0.761319,-1.08278,0
45090,-1.4114,-0.772649,-1.04166,0
45110,-1.4404,-0.78576,-1.0028,0
45130,-1.46699,-0.798823,-0.967515,0
45150,-1.49124,-0.813487,-0.935688,0
45170,-1.51423,-0.828591,-0.905858,0
45190,-1.53428,-0.845254,-0.878065,0
45210,-1.55063,-0.863988,-0.851664,0
45230,-1.56511,-0.882296,-0.826209,0
45250,-1.57633,-0.900235,-0.800819,0
45270,-1.58767,-0.921281,-0.776303,0
45290,-1.6077,-0.943673,-0.748831,0
45310,-1.63008,-0.964229,-0.720754,0
45330,-1.65189,-0.984851,-0.693699,0
45350,-1.67181,-1.0044,-0.667678,0
45370,-1.68935,-1.02106,-0.645353,0
45390,-1.70358,-1.03317,-0.628314,2001
45410,-1.71375,-1.0428,-0.616693,0
45430,-1.72073,-1.05089,-0.609496,0
45450,-1.72142,-1.05632,-0.608751,0
45470,-1.71581,-1.0606,-0.614213,0
45490,-1.70614,-1.06522,-0.624181,0
45510,-1.69615,-1.06886,-0.634607,0
45530,-1.68861,-1.07187,-0.642402,0
45550,-1.68145,-1.07492,-0.647758,0
45570,-1.67481,-1.07794,-0.650149,0
45590,-1.66925,-1.08138,-0.651424,0
45610,-1.66283,-1.08672,-0.653359,0
45630,-1.65452,-1.0946,-0.655506,0
45650,-1.64537,-1.10389,-0.655784,0
45670,-1.63267,-1.11308,-0.658031,0
45690,-1.61344,-1.12338,-0.664813,0
45710,-1.58917,-1.13304,-0.676676,0
45730,-1.55121,-1.14088,-0.702615,0
45750,-1.49192,-1.1474,-0.751339,0
45770,-1.4159,-1.15078,-0.81964,0
45800,-1.21276,-1.13075,-1.0111,0
45820,-1.09878,-1.09807,-1.11905,0
45840,-1.00458,-1.04553,-1.20875,0
45860,-0.92552,-0.973335,-1.28706,0
45880,-0.850264,-0.884955,-1.35749,0
45900,-0.774538,-0.779042,-1.4264,0
45920,-0.706721,-0.657011,-1.49341,0
45940,-0.662628,-0.534771,-1.55673,0
45960,-0.639315,-0.426871,-1.61055,0
45980,-0.646449,-0.344744,-1.65119,0
46000,-0.684897,-0.270966,-1.66999,0
46020,-0.726832,-0.205711,-1.68098,0
46040,-0.754692,-0.152338,-1.6938,0
46060,-0.759644,-0.111414,-1.70714,0
46080,-0.739197,-0.0785988,-1.71432,0
46100,-0.707287,-0.0511803,-1.71396,0
46120,-0.675915,-0.0300728,-1.70885,0
46140,-0.657578,-0.0182597,-1.70451,0
46160,-0.65216,-0.01027,-1.69981,0
46180,-0.653736,-0.00266531,-1.68543,0
46200,-0.665548,-0.00638838,-1.66433,0
46220,-0.684958,-0.0235216,-1.64312,0
46240,-0.702313,-0.0469323,-1.6191,0
46260,-0.717622,-0.0721614,-1.58863,0
46280,-0.734428,-0.0993172,-1.55406,0
46300,-0.756168,-0.130883,-1.52199,0
46320,-0.781475,-0.170002,-1.49335,0
46340,-0.80754,-0.211198,-1.46393,0
46360,-0.831531,-0.251595,-1.43285,0
46380,-0.853318,-0.29097,-1.40151,0
46400,-0.870702,-0.33058,-1.37204,0
46420,-0.885712,-0.368286,-1.34491,0
46440,-0.899539,-0.401469,-1.31988,0
46480,-0.947761,-0.476976,-1.24697,0
46500,-0.954114,-0.481972,-1.23587,0
46520,-0.958189,-0.483599,-1.22567,0
46540,-0.961635,-0.481548,-1.21438,0
46560,-0.962409,-0.478149,-1.20389,0
46580,-0.96169,-0.472551,-1.19657,0
46600,-0.962445,-0.465513,-1.19233,0
46620,-0.963038,-0.459614,-1.18952,0
46640,-0.964801,-0.456105,-1.1867,0
46660,-0.967753,-0.453564,-1.18363,0
46680,-0.968548,-0.4496,-1.18146,0
46700,-0.966176,-0.445188,-1.17866,0
46720,-0.965441,-0.441991,-1.17544,0
46740,-0.967792,-0.440261,-1.17297,0
46760,-0.970646,-0.439476,-1.17165,0
46780,-0.973622,-0.439909,-1.16967,0
46800,-0.975337,-0.440604,-1.16761,0
46820,-0.976404,-0.442004,-1.16532,0
46840,-0.97555,-0.444856,-1.16457,0
46860,-0.973787,-0.448321,-1.16512,0
46870,-0.974221,-0.451442,-1.16538,0
46890,-0.977315,-0.454183,-1.16464,0
46910,-0.979525,-0.456991,-1.16432,0
46930,-0.980319,-0.458043,-1.16511,0
46950,-0.982991,-0.457859,-1.16349,0
46970,-0.986341,-0.457139,-1.15903,0
46990,-0.989855,-0.457899,-1.15379,0
47010,-0.992758,-0.460526,-1.15343,0
47030,-0.997669,-0.459373,-1.15326,0
47050,-1.0021,-0.454868,-1.15042,0
47070,-1.00144,-0.450245,-1.14955,0
47090,-0.995965,-0.447997,-1.15161,0
47110,-0.990918,-0.447014,-1.15505,0
47130,-0.989891,-0.444853,-1.15602,0
47150,-0.991628,-0.440984,-1.15514,0
47170,-0.990856,-0.438205,-1.15659,0
47190,-0.988312,-0.436426,-1.15866,0
47210,-0.987915,-0.434212,-1.15603,0
47230,-0.989752,-0.431948,-1.15066,0
47250,-0.991069,-0.432613,-1.14451,0
47270,-0.99515,-0.435515,-1.13816,0
47290,-1.00033,-0.44068,-1.13019,0
47310,-1.00601,-0.447356,-1.11902,0
47330,-1.00973,-0.455743,-1.1057,0
47350,-1.01337,-0.46709,-1.09192,0
47370,-1.01773,-0.480573,-1.0785,0
47390,-1.02349,-0.495351,-1.0636,0
47410,-1.02888,-0.508634,-1.04524,0
47430,-1.03572,-0.52191,-1.02537,0
47450,-1.04279,-0.536113,-1.00771,0
47470,-1.04753,-0.550723,-0.992887,0
47490,-1.05289,-0.566662,-0.977365,0
47510,-1.06361,-0.580775,-0.955625,0
47530,-1.07739,-0.597448,-0.932569,0
47550,-1.08842,-0.616324,-0.916262,0
47570,-1.09739,-0.634777,-0.904984,0
47570,-1.10983,-0.651396,-0.890532,0
47590,-1.12285,-0.668521,-0.87613,0
47610,-1.14226,-0.708664,-0.869574,0
47640,-1.15746,-0.735195,-0.878739,0
47640,-1.16134,-0.743461,-0.884737,0
47650,-1.07603,-0.752458,-1.02808,0
47680,-0.979886,-0.67583,-1.13624,0
47710,-0.942947,-0.632756,-1.16857,0
47730,-0.935552,-0.620199,-1.17454,0
47750,-0.929931,-0.609477,-1.18,0
47770,-0.924002,-0.599288,-1.18281,0
47790,-0.917477,-0.589596,-1.18556,0
47810,-0.912966,-0.579845,-1.1887,0
47830,-0.911998,-0.569201,-1.19229,0
47850,-0.908367,-0.559185,-1.1978,0
47870,-0.905754,-0.549093,-1.20131,0
47890,-0.902931,-0.539647,-1.2029,0
47910,-0.902365,-0.531098,-1.20323,0
47930,-0.901359,-0.522361,-1.20413,0
47950,-0.901234,-0.514732,-1.20442,0
47970,-0.902254,-0.507873,-1.20212,0
47990,-0.904704,-0.50133,-1.19913,0
48010,-0.906105,-0.49505,-1.19641,0
48030,-0.909767,-0.490125,-1.19379,0
48050,-0.914293,-0.486515,-1.19272,0
48070,-0.917792,-0.482801,-1.19216,0
48090,-0.919324,-0.479163,-1.19119,0
48110,-0.919976,-0.476285,-1.18953,2000
48130,-0.920076,-0.474358,-1.18785,0
48150,-0.919105,-0.474342,-1.18721,0
48170,-0.919661,-0.474005,-1.18703,0
48190,-0.919786,-0.473912,-1.18613,0
48210,-0.921587,-0.475242,-1.1842,0
48230,-0.920909,-0.476793,-1.18337,0
48250,-0.919557,-0.477778,-1.18324,0
48270,-0.920473,-0.478979,-1.18308,0
48290,-0.922844,-0.478422,-1.18096,0
48310,-0.923667,-0.478633,-1.17931,0
48330,-0.923771,-0.480227,-1.17875,0
48350,-0.92485,-0.481766,-1.17663,0
48370,-0.92762,-0.482312,-1.17263,0
48390,-0.927786,-0.480705,-1.16828,0
48410,-0.928155,-0.481261,-1.16573,0
48430,-0.928643,-0.483355,-1.16428,0
48450,-0.929289,-0.48451,-1.16078,0
48470,-0.930617,-0.486401,-1.15271,0
48490,-0.932761,-0.490855,-1.14285,0
48510,-0.928929,-0.499525,-1.13443,0
48530,-0.925392,-0.51077,-1.12463,0
48550,-0.925124,-0.522908,-1.11242,0
48570,-0.930634,-0.534069,-1.09772,0
48590,-0.939988,-0.543396,-1.08204,0
48610,-0.947448,-0.552842,-1.06727,0
48630,-0.953154,-0.562705,-1.05328,0
48650,-0.960953,-0.571824,-1.0381,0
48670,-0.970505,-0.579073,-1.02421,0
48690,-0.97713,-0.587342,-1.01406,0
48710,-0.980381,-0.59725,-1.00677,0
48730,-0.982719,-0.609282,-1.00026,0
48750,-0.986199,-0.621194,-0.994129,0
48770,-0.988626,-0.632732,-0.986716,0
48790,-0.991982,-0.645591,-0.977476,0
48840,-1.02731,-0.728299,-0.969889,0
48880,-1.03345,-0.746645,-1.00242,0
48920,-1.02756,-0.758185,-1.05574,0
48940,-1.02347,-0.763896,-1.09384,0
48980,-1.00779,-0.777885,-1.19313,0
49000,-0.992494,-0.786781,-1.2551,0
49020,-0.973678,-0.797356,-1.32332,0
49040,-0.954102,-0.807211,-1.39384,0
49060,-0.932265,-0.816374,-1.46633,0
49080,-0.906467,-0.824239,-1.54093,0
49100,-0.876072,-0.830891,-1.61587,0
49120,-0.844405,-0.836428,-1.68913,0
49140,-0.80992,-0.846066,-1.76008,0
49160,-0.776996,-0.852067,-1.82446,0
49180,-0.748618,-0.853441,-1.87959,0
49200,-0.727181,-0.852433,-1.91947,0
49220,-0.710384,-0.848744,-1.94409,0
49240,-0.700776,-0.836145,-1.96121,0
49260,-0.69864,-0.812959,-1.97287,0
49280,-0.689435,-0.784297,-1.98191,0
49300,-0.674043,-0.755564,-1.98738,0
49320,-0.667202,-0.725344,-1.98443,0
49340,-0.670507,-0.69641,-1.97512,0
49360,-0.671933,-0.668161,-1.96376,0
49380,-0.673178,-0.639512,-1.94626,0
49400,-0.673747,-0.612699,-1.927,0
49420,-0.679632,-0.586463,-1.90688,0
49430,-0.689618,-0.561998,-1.8849,0
49450,-0.698944,-0.540637,-1.8622,0
49470,-0.703313,-0.520089,-1.83943,0
49490,-0.709581,-0.502344,-1.81514,0
49510,-0.720292,-0.488466,-1.78822,0
49540,-0.76104,-0.460382,-1.70058,0
49560,-0.775251,-0.4557,-1.66919,0
49580,-0.791778,-0.452573,-1.63559,0
49600,-0.811053,-0.451387,-1.6007,0
49620,-0.833274,-0.452914,-1.56384,0
49640,-0.858869,-0.45628,-1.52406,0
49660,-0.88543,-0.467203,-1.48207,0
49680,-0.917416,-0.481084,-1.43666,0
49700,-0.952448,-0.498358,-1.39015,0
49720,-0.98921,-0.519335,-1.34313,0
49740,-1.02748,-0.543702,-1.29639,0
49760,-1.06338,-0.571387,-1.24972,0
49780,-1.09751,-0.602648,-1.20198,0
49800,-1.1309,-0.635795,-1.15293,0
49820,-1.1618,-0.669844,-1.1047,0
49840,-1.19377,-0.703415,-1.06017,0
49860,-1.22667,-0.734572,-1.02181,0
49880,-1.26399,-0.761612,-0.9908,0
49900,-1.29681,-0.793852,-0.967209,0
49920,-1.33344,-0.833483,-0.942482,0
49940,-1.36638,-0.873746,-0.926375,0
49960,-1.39278,-0.914041,-0.920024,0
49980,-1.41795,-0.95048,-0.920226,0
50000,-1.43517,-0.986732,-0.931078,0
50020,-1.43624,-1.02577,-0.963315,0
50040,-1.42256,-1.06292,-1.01932,0
50060,-1.39275,-1.09199,-1.09504,0
50080,-1.34202,-1.11475,-1.18991,0
50100,-1.26648,-1.13253,-1.30816,0
50120,-1.17197,-1.14295,-1.44595,0
50150,-0.988145,-1.13329,-1.71153,0
50170,-0.923109,-1.11621,-1.80524,0
50190,-0.862536,-1.10548,-1.87659,0
50200,-0.808057,-1.08995,-1.93068,0
50220,-0.762935,-1.06898,-1.97223,0
50240,-0.733946,-1.0424,-1.99671,0
50260,-0.71717,-1.0113,-2.00726,0
50280,-0.707369,-0.977113,-2.0068,0
50300,-0.699385,-0.939925,-2.00165,0
50320,-0.703605,-0.90053,-1.99009,0
50340,-0.714248,-0.860674,-1.97135,0
50360,-0.724142,-0.823059,-1.95103,0
50390,-0.751629,-0.752729,-1.90809,0
50410,-0.765538,-0.716925,-1.88611,0
50430,-0.786101,-0.687055,-1.85823,0
50440,-0.8122,-0.659778,-1.82587,0
50460,-0.840904,-0.635315,-1.79262,0
50480,-0.871701,-0.610182,-1.76015,0
50500,-0.902558,-0.588347,-1.73016,0
50520,-0.933598,-0.570388,-1.69868,0
50540,-0.964283,-0.557602,-1.66219,0
50560,-0.992532,-0.550026,-1.62253,0
50580,-1.02018,-0.546789,-1.57977,0
50600,-1.04588,-0.554397,-1.53645,0
50620,-1.07476,-0.566057,-1.4904,0
50640,-1.10734,-0.579823,-1.4411,0
50660,-1.14125,-0.594435,-1.38923,0
50680,-1.17428,-0.610717,-1.33781,0
50700,-1.20593,-0.62964,-1.28876,0
50720,-1.23547,-0.651203,-1.24092,0
50740,-1.26405,-0.675684,-1.19483,0
50760,-1.31742,-0.734309,-1.11197,0
50780,-1.34215,-0.764556,-1.07313,0
50800,-1.36731,-0.797652,-1.03452,0
50820,-1.39511,-0.834251,-0.998103,0
50840,-1.42379,-0.873506,-0.967088,0
50860,-1.45096,-0.914766,-0.943455,0
50880,-1.47488,-0.956756,-0.927483,0
50900,-1.49387,-0.997173,-0.92011,0
50920,-1.50603,-1.03476,-0.92362,0
50940,-1.5095,-1.07113,-0.938819,0
50960,-1.50195,-1.10577,-0.966287,0
50980,-1.49239,-1.14077,-1.00212,0
51000,-1.46756,-1.17405,-1.05712,0
51020,-1.41913,-1.20464,-1.14014,0
51040,-1.34196,-1.22717,-1.25363,0
51060,-1.24926,-1.24157,-1.38198,0
51080,-1.14454,-1.24593,-1.51362,0
51100,-1.03423,-1.24274,-1.64253,0
51120,-0.931729,-1.23452,-1.76066,0
51140,-0.847655,-1.21936,-1.85888,0
51160,-0.784069,-1.19678,-1.93372,0
51180,-0.731954,-1.17362,-1.9922,0
51200,-0.704443,-1.14662,-2.02339,0
51220,-0.697106,-1.11835,-2.02972,0
51240,-0.696324,-1.08903,-2.02481,0
51260,-0.703088,-1.0588,-2.0126,0
51280,-0.720673,-1.02877,-1.99357,0
51300,-0.75561,-0.994937,-1.96191,0
51320,-0.78882,-0.961074,-1.93128,0
51340,-0.808876,-0.928338,-1.91086,0
51360,-0.828371,-0.898794,-1.88877,0
51380,-0.845274,-0.870415,-1.86498,0
51400,-0.858366,-0.843097,-1.84252,0
51420,-0.87353,-0.816868,-1.82285,0
51440,-0.886693,-0.792086,-1.80618,0
51450,-0.896402,-0.770302,-1.79212,0
51470,-0.903121,-0.749695,-1.77946,0
51490,-0.907851,-0.727532,-1.76733,0
51510,-0.911637,-0.706406,-1.75442,0
51530,-0.915706,-0.688874,-1.74051,0
51550,-0.924328,-0.673195,-1.72237,0
51570,-0.936628,-0.658338,-1.70034,0
51590,-0.950999,-0.646738,-1.67665,0
51610,-0.968073,-0.638633,-1.65264,0
51630,-0.988097,-0.631965,-1.62726,0
51650,-1.01259,-0.627805,-1.59725,0
51670,-1.04021,-0.626169,-1.56313,0
51690,-1.06902,-0.62663,-1.52588,0
51710,-1.0994,-0.629423,-1.4855,0
51730,-1.13286,-0.633623,-1.44256,0
51750,-1.17235,-0.639946,-1.39802,0
51770,-1.21109,-0.649866,-1.35476,0
51790,-1.24967,-0.661193,-1.31059,0
51810,-1.28404,-0.674094,-1.26711,0
51830,-1.31498,-0.690202,-1.22361,0
51850,-1.34246,-0.707549,-1.1797,0
51870,-1.36623,-0.727928,-1.13638,0
51890,-1.39209,-0.753794,-1.09286,0
51910,-1.41921,-0.781189,-1.05065,0
51930,-1.44455,-0.808134,-1.01072,0
51950,-1.47102,-0.836507,-0.972237,0
51970,-1.50197,-0.866188,-0.933241,0
51990,-1.53564,-0.896846,-0.892939,0
52010,-1.57512,-0.925729,-0.851421,0
52030,-1.61071,-0.950229,-0.81078,0
52050,-1.64392,-0.972577,-0.770462,0
52070,-1.67899,-0.994032,-0.731151,0
52090,-1.71336,-1.01102,-0.693915,0
52110,-1.74548,-1.02591,-0.658769,2001
52130,-1.77932,-1.04044,-0.624861,0
52150,-1.80854,-1.05037,-0.595828,0
52170,-1.83176,-1.05698,-0.572988,0
52190,-1.85149,-1.06415,-0.552799,0
52210,-1.86865,-1.0719,-0.535844,0
52230,-1.88056,-1.07863,-0.525353,0
52250,-1.88897,-1.08333,-0.520316,0
52270,-1.89083,-1.0854,-0.521164,0
52290,-1.88642,-1.08726,-0.525159,0
52310,-1.87955,-1.09087,-0.531081,0
52330,-1.87524,-1.09422,-0.538087,0
52350,-1.86953,-1.095,-0.547206,0
52370,-1.86036,-1.09454,-0.558419,0
52390,-1.84946,-1.09389,-0.570817,0
52410,-1.8377,-1.09292,-0.584762,0
52430,-1.82562,-1.08974,-0.598913,0
52450,-1.81375,-1.08569,-0.612247,0
52470,-1.80137,-1.08221,-0.622542,0
52490,-1.79416,-1.08069,-0.627327,0
52510,-1.78963,-1.08257,-0.630723,0
52520,-1.78653,-1.08785,-0.632113,0
52540,-1.78214,-1.0945,-0.634142,0
52560,-1.77463,-1.1053,-0.638437,0
52580,-1.76669,-1.12039,-0.643751,0
52600,-1.74836,-1.13487,-0.658435,0
52620,-1.72194,-1.14752,-0.681734,0
52640,-1.68565,-1.15765,-0.714842,0
52660,-1.63555,-1.16372,-0.761474,0
52680,-1.56828,-1.1659,-0.82577,0
52700,-1.48094,-1.16462,-0.911975,0
52720,-1.38359,-1.15639,-1.01107,0
52740,-1.29079,-1.13286,-1.1018,0
52760,-1.20384,-1.09449,-1.18262,0
52780,-1.1113,-1.04633,-1.26524,0
52800,-1.02266,-0.990305,-1.344,0
52820,-0.956372,-0.922696,-1.4077,0
52840,-0.904383,-0.842876,-1.45798,0
52860,-0.852531,-0.756254,-1.50233,0
52880,-0.8099,-0.673841,-1.54239,0
52900,-0.780816,-0.600731,-1.57858,0
52920,-0.761086,-0.531438,-1.60755,0
52940,-0.751763,-0.463581,-1.62505,0
52960,-0.745686,-0.398855,-1.63175,0
52980,-0.74286,-0.341927,-1.62938,0
53000,-0.744051,-0.301161,-1.62391,0
53020,-0.750859,-0.272072,-1.61592,0
53040,-0.756848,-0.251184,-1.60344,0
53060,-0.767349,-0.235567,-1.58519,0
53080,-0.78564,-0.225735,-1.56327,0
53100,-0.8094,-0.224034,-1.54074,0
53120,-0.834893,-0.230166,-1.51618,0
53140,-0.855207,-0.242851,-1.48936,0
53160,-0.871209,-0.259639,-1.46169,0
53180,-0.884766,-0.278501,-1.43485,0
53200,-0.899884,-0.298195,-1.40928,0
53220,-0.916758,-0.319244,-1.38492,0
53240,-0.934087,-0.340973,-1.36045,0
53260,-0.9495,-0.361949,-1.33619,0
53280,-0.96244,-0.382099,-1.31306,0
53300,-0.972134,-0.399998,-1.29314,0
53320,-0.978432,-0.415104,-1.27598,0
53330,-0.982312,-0.428643,-1.26139,0
53340,-0.986888,-0.440064,-1.24929,0
53380,-0.986618,-0.459918,-1.24168,0
53400,-0.979817,-0.46632,-1.24417,0
53440,-0.976107,-0.457522,-1.25342,0
53460,-0.973232,-0.443461,-1.26718,0
53480,-0.963752,-0.424036,-1.2864,0
53500,-0.954872,-0.39924,-1.30514,0
53520,-0.943276,-0.370535,-1.33132,0
53540,-0.929429,-0.34394,-1.3633,0
53560,-0.909623,-0.314919,-1.39542,0
53580,-0.886444,-0.283331,-1.41954,0
53600,-0.865102,-0.254179,-1.43474,0
53620,-0.846655,-0.235607,-1.44939,0
53640,-0.827491,-0.227634,-1.46381,0
53660,-0.814888,-0.229659,-1.47021,0
53680,-0.816215,-0.245643,-1.46647,0
53700,-0.825985,-0.273873,-1.4595,0
53720,-0.843442,-0.309995,-1.45444,0
53740,-0.856817,-0.348769,-1.4555,0
53760,-0.871405,-0.388364,-1.45432,0
53780,-0.878504,-0.429853,-1.44667,0
53800,-0.869235,-0.472799,-1.43793,0
53820,-0.838567,-0.505667,-1.43648,0
53840,-0.800264,-0.525101,-1.43487,0
53860,-0.77306,-0.535471,-1.42651,0
53880,-0.76796,-0.539072,-1.41306,0
53900,-0.773624,-0.534241,-1.39938,0
53920,-0.783541,-0.52687,-1.38319,0
53940,-0.796224,-0.521948,-1.3648,0
53960,-0.80847,-0.520201,-1.34915,0
53980,-0.818699,-0.520749,-1.33732,0
54000,-0.831376,-0.52072,-1.32546,0
54020,-0.849453,-0.519812,-1.31247,0
54040,-0.869796,-0.518579,-1.30006,0
54060,-0.890126,-0.517411,-1.29029,0
54080,-0.901475,-0.516744,-1.28375,0
54100,-0.910067,-0.517318,-1.27926,0
54120,-0.919353,-0.518737,-1.27537,0
54140,-0.927704,-0.518508,-1.27019,0
54160,-0.935846,-0.516908,-1.26429,0
54180,-0.942088,-0.51529,-1.25897,0
54200,-0.945105,-0.514157,-1.25334,0
54220,-0.949558,-0.511731,-1.24679,0
54240,-0.954935,-0.508726,-1.24158,0
54260,-0.962201,-0.504955,-1.23729,0
54280,-0.970152,-0.499944,-1.23347,0
54300,-0.973917,-0.493293,-1.23152,0
54320,-0.975465,-0.486579,-1.23011,0
54340,-0.975869,-0.480375,-1.2282,0
54360,-0.974857,-0.475139,-1.22743,0
54380,-0.972133,-0.471586,-1.22863,0
54400,-0.968406,-0.469517,-1.23063,0
54420,-0.966072,-0.468039,-1.23163,0
54440,-0.963695,-0.466027,-1.23148,0
54460,-0.961887,-0.464359,-1.23112,0
54480,-0.957876,-0.46357,-1.23159,0
54500,-0.954345,-0.461745,-1.23046,0
54520,-0.953556,-0.460308,-1.22638,2000
54540,-0.955401,-0.459365,-1.22041,0
54560,-0.959185,-0.459887,-1.2149,0
54580,-0.963656,-0.462056,-1.21222,0
54600,-0.971233,-0.462967,-1.20973,0
54620,-0.977595,-0.460813,-1.2066,0
54640,-0.982601,-0.457562,-1.20262,0
54660,-0.982747,-0.456663,-1.19999,0
54680,-0.979939,-0.456271,-1.19842,0
54700,-0.978724,-0.455097,-1.19422,0
54720,-0.980347,-0.455263,-1.18914,0
54740,-0.983082,-0.456513,-1.18454,0
54760,-0.982467,-0.459029,-1.18005,0
54780,-0.98247,-0.462673,-1.17405,0
54800,-0.982855,-0.466874,-1.16567,0
54820,-0.982588,-0.472858,-1.15666,0
54840,-0.982712,-0.481225,-1.14712,0
54860,-0.985852,-0.489955,-1.13716,0
54880,-0.989571,-0.497395,-1.12574,0
54900,-0.994291,-0.502348,-1.11116,0
54920,-0.998403,-0.507793,-1.095,0
54940,-1.00103,-0.515067,-1.08143,0
54960,-1.00421,-0.522712,-1.06995,0
54980,-1.00993,-0.527989,-1.05794,0
55000,-1.01978,-0.532317,-1.04413,0
55020,-1.0276,-0.538233,-1.03144,0
55040,-1.0308,-0.547621,-1.0204,0
55060,-1.03633,-0.558213,-1.00999,0
55080,-1.04571,-0.568483,-1.00061,0
55100,-1.05665,-0.578583,-0.992623,0
55120,-1.06725,-0.590905,-0.989092,0
55160,-1.08468,-0.614829,-1.00096,0
55200,-1.13665,-0.650585,-1.11235,0
55220,-1.1395,-0.654083,-1.1397,0
55240,-1.14121,-0.658622,-1.17198,0
55260,-1.14134,-0.665587,-1.21004,0
55280,-1.14092,-0.674532,-1.25135,0
55300,-1.13813,-0.685387,-1.29727,0
55320,-1.13071,-0.698633,-1.34919,0
55340,-1.11846,-0.713774,-1.40631,0
55360,-1.10267,-0.726769,-1.46692,0
55380,-1.08245,-0.739524,-1.53213,0
55400,-1.05754,-0.751982,-1.60037,0
55420,-1.02757,-0.763476,-1.66691,0
55430,-0.990133,-0.781396,-1.73234,0
55450,-0.95353,-0.796548,-1.79175,0
55470,-0.92073,-0.806114,-1.84401,0
55490,-0.892534,-0.808006,-1.88279,0
55510,-0.872129,-0.801124,-1.90436,0
55530,-0.851555,-0.790662,-1.91428,0
55550,-0.829693,-0.778738,-1.92289,0
55570,-0.808562,-0.763279,-1.93505,0
55590,-0.797719,-0.741534,-1.9366,0
55610,-0.789302,-0.716084,-1.92935,0
55630,-0.777588,-0.68789,-1.91824,0
55650,-0.771554,-0.659227,-1.90567,0
55670,-0.764331,-0.63307,-1.89135,0
55690,-0.762034,-0.604965,-1.86981,0
55710,-0.764283,-0.577131,-1.84317,0
55730,-0.770576,-0.551271,-1.81605,0
55760,-0.796502,-0.505257,-1.74895,0
55780,-0.813039,-0.485559,-1.70445,0
55800,-0.830633,-0.469317,-1.65595,0
55820,-0.853087,-0.456022,-1.60584,0
55840,-0.876175,-0.455204,-1.55582,0
55860,-0.901299,-0.456721,-1.50489,0
55880,-0.929472,-0.460213,-1.45144,0
55900,-0.960513,-0.465484,-1.39674,0
55920,-0.991732,-0.472376,-1.34343,0
55940,-1.02175,-0.479701,-1.2924,0
55960,-1.0536,-0.488537,-1.24577,0
55980,-1.08508,-0.499681,-1.20422,0
56000,-1.11721,-0.511752,-1.16609,0
56020,-1.14942,-0.520014,-1.13032,0
56040,-1.17515,-0.533156,-1.09871,0
56060,-1.19654,-0.551318,-1.07176,0
56080,-1.21186,-0.573544,-1.05322,0
56100,-1.22444,-0.596885,-1.04157,0
56120,-1.23825,-0.622447,-1.03127,0
56140,-1.25433,-0.651606,-1.02461,0
56160,-1.26483,-0.685837,-1.03026,0
56180,-1.27266,-0.720117,-1.0452,0
56200,-1.28056,-0.753313,-1.06538,0
56220,-1.2865,-0.786225,-1.0893,0
56240,-1.28828,-0.819403,-1.12036,0
56260,-1.28533,-0.855674,-1.16171,0
56280,-1.27635,-0.890439,-1.21296,0
56300,-1.25993,-0.921348,-1.27238,0
56320,-1.23503,-0.947858,-1.33899,0
56340,-1.19913,-0.972899,-1.41434,0
56360,-1.1536,-0.995992,-1.49902,0
56380,-1.09897,-1.02141,-1.58915,0
56400,-1.045,-1.04063,-1.67248,0
56420,-0.994131,-1.05319,-1.7407,0
56440,-0.949028,-1.05933,-1.79346,0
56460,-0.907754,-1.06017,-1.83325,0
56480,-0.868013,-1.05493,-1.86584,0
56500,-0.835384,-1.04393,-1.89025,0
56520,-0.81469,-1.02658,-1.90157,0
56540,-0.809591,-1.0019,-1.89896,0
56560,-0.800735,-0.973588,-1.8946,0
56580,-0.787942,-0.944536,-1.88839,0
56600,-0.783543,-0.914107,-1.8773,0
56620,-0.788252,-0.881501,-1.86009,0
56640,-0.790076,-0.848419,-1.84351,0
56660,-0.791177,-0.813806,-1.82509,0
56680,-0.797463,-0.779696,-1.80423,0
56700,-0.810853,-0.748498,-1.77922,0
56720,-0.830776,-0.7169,-1.75008,0
56740,-0.849506,-0.685868,-1.71955,0
56760,-0.870774,-0.658386,-1.68437,0
56780,-0.897342,-0.636909,-1.64429,0
56800,-0.931046,-0.620686,-1.59837,0
56820,-0.967652,-0.611165,-1.55066,0
56840,-1.00131,-0.615257,-1.50388,0
56870,-1.06769,-0.634856,-1.40104,0
56890,-1.10227,-0.650183,-1.34634,0
56910,-1.13883,-0.667103,-1.28962,0
56930,-1.17521,-0.686307,-1.2333,0
56950,-1.21465,-0.708348,-1.17789,0
56970,-1.257,-0.732666,-1.12389,0
57000,-1.43287,-0.858374,-0.927338,0
57020,-1.4852,-0.89166,-0.880785,0
57040,-1.53205,-0.927944,-0.841363,0
57060,-1.57676,-0.966276,-0.806356,0
57080,-1.61709,-1.00582,-0.779003,0
57110,-1.72174,-1.13545,-0.743826,0
57130,-1.73617,-1.17751,-0.76262,0
57150,-1.72617,-1.21859,-0.811152,0
57170,-1.68048,-1.25576,-0.897562,0
57190,-1.59909,-1.28549,-1.01771,0
57210,-1.49085,-1.3051,-1.16053,0
57230,-1.36366,-1.31302,-1.31603,0
57250,-1.22697,-1.31053,-1.47075,0
57270,-1.09147,-1.29958,-1.62075,0
57290,-0.98201,-1.27793,-1.74581,0
57310,-0.904267,-1.24647,-1.83473,0
57330,-0.85091,-1.20919,-1.89288,0
57350,-0.817659,-1.16928,-1.92883,0
57370,-0.798699,-1.13095,-1.9481,0
57390,-0.803535,-1.08614,-1.94257,0
57410,-0.813235,-1.03978,-1.93116,0
57430,-0.823974,-0.993137,-1.9172,0
57450,-0.835988,-0.946896,-1.90716,0
57470,-0.854597,-0.901462,-1.89737,0
57490,-0.876259,-0.85934,-1.87951,0
57510,-0.895457,-0.819599,-1.85675,0
57530,-0.912661,-0.782649,-1.83696,0
57550,-0.924851,-0.74733,-1.82592,0
57570,-0.945603,-0.712392,-1.81105,0
57590,-0.973524,-0.681208,-1.78979,0
57610,-1.00487,-0.655856,-1.7619,0
57630,-1.03359,-0.635524,-1.73015,0
57650,-1.06216,-0.621288,-1.69325,0
57670,-1.09363,-0.613427,-1.65178,0
57690,-1.12846,-0.609752,-1.60637,0
57710,-1.16155,-0.61503,-1.55922,0
57730,-1.19615,-0.622306,-1.50836,0
57750,-1.23077,-0.632779,-1.45716,0
57770,-1.26461,-0.644602,-1.40771,0
57790,-1.29711,-0.657586,-1.35938,0
57810,-1.32885,-0.67199,-1.31197,0
57830,-1.36014,-0.688081,-1.26594,0
57850,-1.39026,-0.704385,-1.22062,0
57870,-1.42166,-0.718901,-1.1737,0
57890,-1.4507,-0.736147,-1.12991,0
57910,-1.47912,-0.755963,-1.08958,0
57930,-1.5051,-0.77752,-1.05513,0
57950,-1.52643,-0.799475,-1.02607,0
57970,-1.54153,-0.823873,-1.00078,0
57990,-1.55227,-0.850154,-0.976658,0
58010,-1.56381,-0.87701,-0.953708,0
58030,-1.56834,-0.903956,-0.937411,0
58050,-1.56614,-0.931579,-0.925326,0
58070,-1.56574,-0.958912,-0.914701,0
58090,-1.57032,-0.983876,-0.902537,0
58110,-1.57946,-1.00661,-0.891025,0
58130,-1.58649,-1.02886,-0.88168,0
58150,-1.58808,-1.04951,-0.875171,0
58170,-1.59094,-1.06779,-0.866124,0
58190,-1.59711,-1.08447,-0.854593,0
58210,-1.60856,-1.09974,-0.842635,0
58230,-1.61992,-1.11318,-0.832499,0
58250,-1.63128,-1.12299,-0.82152,0
58270,-1.64183,-1.12861,-0.805872,2001
58290,-1.65538,-1.13269,-0.784034,0
58310,-1.67121,-1.13917,-0.761494,0
58330,-1.68445,-1.14629,-0.74098,0
58350,-1.70022,-1.15119,-0.716947,0
58370,-1.72221,-1.15478,-0.686261,0
58390,-1.75379,-1.1585,-0.647672,0
58410,-1.78066,-1.16385,-0.61329,0
58430,-1.80481,-1.16872,-0.58026,0
58450,-1.83124,-1.17259,-0.546621,0
58470,-1.85041,-1.1736,-0.521967,0
58490,-1.86122,-1.17294,-0.508592,0
58510,-1.86611,-1.17305,-0.501881,0
58530,-1.8673,-1.17468,-0.498397,0
58540,-1.86773,-1.17712,-0.495798,0
58560,-1.86497,-1.18177,-0.494337,0
58580,-1.86215,-1.1895,-0.491669,0
58600,-1.85565,-1.19597,-0.490614,0
58620,-1.84677,-1.2014,-0.489969,0
58640,-1.83321,-1.20624,-0.492325,0
58660,-1.82104,-1.20903,-0.495048,0
58680,-1.80519,-1.2061,-0.502608,0
58700,-1.76999,-1.19873,-0.529867,0
58720,-1.7075,-1.18978,-0.585435,0
58740,-1.62228,-1.17783,-0.662858,0
58780,-1.43677,-1.12521,-0.831915,0
58800,-1.34024,-1.08649,-0.922987,0
58820,-1.23848,-1.04003,-1.01723,0
58840,-1.14075,-0.980015,-1.10072,0
58860,-1.05918,-0.905699,-1.1642,0
58880,-0.98624,-0.825791,-1.21726,0
58900,-0.918285,-0.744024,-1.26813,0
58920,-0.861621,-0.660689,-1.31565,0
58930,-0.824651,-0.581279,-1.3455,0
58950,-0.803773,-0.510405,-1.36267,0
58950,-0.809785,-0.424881,-1.38233,0
58960,-0.835654,-0.402119,-1.38176,0
58980,-0.86095,-0.384497,-1.37781,0
59000,-0.879331,-0.37334,-1.3713,0
59020,-0.887104,-0.368598,-1.36351,0
59040,-0.884924,-0.368846,-1.35497,0
59060,-0.879483,-0.373136,-1.34442,0
59060,-0.874572,-0.379977,-1.33321,0
59070,-0.873629,-0.388621,-1.32223,0
59090,-0.875678,-0.397928,-1.31196,0
59110,-0.878351,-0.406357,-1.30284,0
59130,-0.889389,-0.418556,-1.28362,0
59150,-0.892957,-0.422899,-1.27297,0
59170,-0.893921,-0.427418,-1.26262,0
59190,-0.895071,-0.432427,-1.25399,0
59210,-0.897164,-0.435635,-1.24704,0
59230,-0.899083,-0.436514,-1.23942,0
59250,-0.900142,-0.435575,-1.23013,0
59270,-0.900486,-0.43397,-1.22193,0
59290,-0.901387,-0.431914,-1.21712,0
59310,-0.903763,-0.428816,-1.21469,0
59330,-0.906674,-0.425662,-1.21183,0
59350,-0.909736,-0.422737,-1.20729,0
59370,-0.912664,-0.419598,-1.20228,0
59390,-0.915987,-0.416421,-1.19849,0
59410,-0.916157,-0.412718,-1.19738,2000
59430,-0.916426,-0.409292,-1.19723,0
59450,-0.920033,-0.407397,-1.1963,0
59470,-0.923928,-0.405605,-1.19411,0
59490,-0.925317,-0.403747,-1.19212,0
59510,-0.923451,-0.403909,-1.19234,0
59530,-0.923138,-0.405463,-1.19187,0
59550,-0.927538,-0.406897,-1.18706,0
59570,-0.931707,-0.409532,-1.18176,0
59590,-0.936339,-0.415135,-1.17712,0
59610,-0.940041,-0.422309,-1.17097,0
59630,-0.944606,-0.429638,-1.16142,0
59650,-0.946956,-0.43965,-1.14977,0
59670,-0.949924,-0.452808,-1.13639,0
59690,-0.954237,-0.467183,-1.11809,0
59710,-0.958614,-0.481824,-1.09603,0
59730,-0.96609,-0.498546,-1.07395,0
59750,-0.972319,-0.517738,-1.05427,0
59770,-0.984257,-0.541882,-1.03057,0
59790,-1.00232,-0.567445,-1.00627,0
59810,-1.02106,-0.591075,-0.982344,0
59830,-1.04382,-0.615298,-0.962318,0
59850,-1.06881,-0.640255,-0.949659,0
59870,-1.14555,-0.733167,-1.00727,0
59890,-1.14731,-0.749021,-1.03575,0
59910,-1.1454,-0.763276,-1.06959,0
59930,-1.13948,-0.775012,-1.10763,0
59950,-1.13012,-0.784685,-1.14973,0
59970,-1.11588,-0.7923,-1.20006,0
59990,-1.09684,-0.798566,-1.25858,0
60010,-1.07351,-0.801827,-1.32292,0
60030,-1.04536,-0.802986,-1.39347,0
60050,-1.01302,-0.803851,-1.46887,0
60070,-0.978935,-0.805395,-1.54583,0
60090,-0.943748,-0.807002,-1.62358,0
60110,-0.90958,-0.807196,-1.69973,0
60130,-0.877523,-0.804012,-1.77078,0
60150,-0.842728,-0.79664,-1.84041,0
60170,-0.808661,-0.788059,-1.90363,0
60190,-0.77795,-0.782593,-1.95764,0
60210,-0.75338,-0.775565,-1.99388,0
60230,-0.73273,-0.768867,-2.01195,0
60250,-0.718343,-0.760627,-2.01672,0
60270,-0.708889,-0.750581,-2.01752,0
60290,-0.688549,-0.738009,-2.02537,0
60310,-0.678735,-0.721377,-2.0232,0
60330,-0.689619,-0.698303,-2.00449,0
60350,-0.696272,-0.674958,-1.985,0
60370,-0.686694,-0.65232,-1.97066,0
60390,-0.682051,-0.627659,-1.95374,0
60410,-0.689816,-0.603735,-1.9311,0
60430,-0.712274,-0.57979,-1.89961,0
60450,-0.722054,-0.554224,-1.87549,0
60470,-0.72989,-0.522536,-1.85645,0
60490,-0.744587,-0.488857,-1.8379,0
60510,-0.773977,-0.457442,-1.81092,0
60530,-0.805769,-0.429,-1.78037,0
60550,-0.83637,-0.402475,-1.74989,0
60570,-0.869301,-0.381706,-1.71568,0
60590,-0.908413,-0.366929,-1.67458,0
60610,-0.949446,-0.358378,-1.63017,0
60630,-0.985427,-0.364978,-1.5845,0
60650,-1.01535,-0.376923,-1.53785,0
60670,-1.03993,-0.393425,-1.49034,0
60690,-1.06064,-0.413419,-1.44091,0
60710,-1.07894,-0.435825,-1.39094,0
60730,-1.09889,-0.461146,-1.34132,0
60750,-1.12331,-0.490081,-1.29415,0
60770,-1.14851,-0.523803,-1.25216,0
60790,-1.17101,-0.56091,-1.21509,0
60810,-1.19207,-0.599428,-1.18134,0
60830,-1.20746,-0.639502,-1.15266,0
60850,-1.22125,-0.676773,-1.12617,0
60870,-1.23931,-0.714658,-1.10259,0
60890,-1.25923,-0.754211,-1.08554,0
60910,-1.27373,-0.792413,-1.07962,0
60930,-1.2823,-0.829831,-1.08412,0
60950,-1.28814,-0.868775,-1.09682,0
60970,-1.29287,-0.907428,-1.11585,0
60990,-1.29444,-0.943699,-1.1457,0
61010,-1.27626,-0.975693,-1.19028,0
61030,-1.2385,-1.0059,-1.25337,0
61050,-1.18948,-1.03294,-1.33317,0
61070,-1.12965,-1.05133,-1.4261,0
61090,-1.06071,-1.05978,-1.52618,0
61110,-0.991944,-1.05797,-1.62126,0
61130,-0.928918,-1.04979,-1.70041,0
61150,-0.877472,-1.04827,-1.76087,0
61170,-0.832306,-1.04087,-1.80842,0
61190,-0.792584,-1.02516,-1.84374,0
61210,-0.76437,-1.00111,-1.86166,0
61230,-0.75005,-0.973286,-1.86332,0
61250,-0.737582,-0.941591,-1.86104,0
61270,-0.74682,-0.902619,-1.84219,0
61290,-0.769013,-0.860469,-1.8165,0
61310,-0.782625,-0.820505,-1.79381,0
61330,-0.795929,-0.782331,-1.77198,0
61350,-0.821124,-0.743799,-1.74487,0
61360,-0.847543,-0.706949,-1.7151,0
61380,-0.871226,-0.672199,-1.68525,0
61400,-0.896851,-0.639649,-1.65777,0
61420,-0.92701,-0.604539,-1.63094,0
61440,-0.962993,-0.57325,-1.60136,0
61460,-1.00217,-0.548178,-1.56908,0
61480,-1.04197,-0.530273,-1.53218,0
61500,-1.08407,-0.51835,-1.49088,0
61520,-1.11946,-0.519549,-1.44569,0
61540,-1.15083,-0.526555,-1.39845,0
61560,-1.17947,-0.53931,-1.35103,0
61580,-1.21091,-0.555857,-1.30259,0
61600,-1.24255,-0.575107,-1.25177,0
61620,-1.27659,-0.5966,-1.19968,0
61640,-1.30985,-0.621232,-1.14975,0
61660,-1.34236,-0.649981,-1.10285,0
61680,-1.37287,-0.683204,-1.05979,0
61700,-1.40238,-0.720493,-1.01961,0
61730,-1.46753,-0.802775,-0.937483,0
61760,-1.54367,-0.896495,-0.867067,0
61780,-1.57756,-0.945623,-0.841441,0
61800,-1.60229,-0.99668,-0.825065,0
61810,-1.62252,-1.09631,-0.831747,0
61830,-1.5851,-1.19064,-0.920208,0
61860,-1.45489,-1.25584,-1.09934,0
61880,-1.34683,-1.27178,-1.22921,0
61900,-1.22608,-1.27673,-1.37109,0
61920,-1.10296,-1.26954,-1.51108,0
61940,-0.984912,-1.25319,-1.63605,0
61960,-0.883324,-1.23055,-1.74308,0
61980,-0.802146,-1.20248,-1.82919,0
62000,-0.745673,-1.16856,-1.88879,0
62020,-0.714141,-1.1299,-1.92241,0
62040,-0.704782,-1.08768,-1.93384,0
62060,-0.693107,-1.04447,-1.94093,0
62080,-0.689508,-1.00077,-1.93802,0
62100,-0.715464,-0.957359,-1.9141,0
62120,-0.755275,-0.911595,-1.88207,0
62140,-0.799896,-0.864184,-1.84564,0
62160,-0.838381,-0.820575,-1.81417,0
62180,-0.871557,-0.781742,-1.78831,0
62200,-0.90797,-0.748426,-1.76508,0
62220,-0.949997,-0.718335,-1.7396,0
62240,-0.985656,-0.686806,-1.71418,0
62260,-1.01368,-0.661639,-1.68802,0
62280,-1.03821,-0.643673,-1.65865,0
62300,-1.06607,-0.631521,-1.62548,0
62320,-1.0993,-0.623253,-1.58766,0
62340,-1.13775,-0.618424,-1.54406,0
62360,-1.18072,-0.615725,-1.49641,0
62380,-1.2221,-0.62048,-1.44975,0
62400,-1.26479,-0.628782,-1.40185,0
62420,-1.30326,-0.640661,-1.35388,0
62440,-1.33592,-0.656258,-1.30581,0
62460,-1.36244,-0.673035,-1.25937,0
62480,-1.38431,-0.692975,-1.2143,0
62500,-1.40588,-0.717007,-1.17209,0
62520,-1.43191,-0.739703,-1.1306,0
62540,-1.45337,-0.760411,-1.09229,0
62560,-1.47368,-0.784809,-1.05758,0
62580,-1.4973,-0.812386,-1.02667,0
62600,-1.52164,-0.836689,-1.00082,0
62620,-1.54074,-0.856136,-0.979899,0
62640,-1.55594,-0.873677,-0.959038,0
62660,-1.56876,-0.892898,-0.938784,0
62680,-1.57872,-0.915367,-0.920705,0
62700,-1.58765,-0.940397,-0.905824,0
62720,-1.59661,-0.962735,-0.893743,0
62730,-1.60998,-0.98188,-0.882452,0
62750,-1.6252,-0.99677,-0.86901,0
62770,-1.63665,-1.00913,-0.854968,2001
62790,-1.64227,-1.0212,-0.843904,0
62810,-1.64762,-1.03166,-0.833477,0
62830,-1.653,-1.04044,-0.820605,0
62850,-1.65941,-1.04971,-0.806582,0
62870,-1.66609,-1.05963,-0.793106,0
62890,-1.6693,-1.06821,-0.783408,0
62910,-1.67242,-1.0765,-0.773641,0
62930,-1.68007,-1.08566,-0.760271,0
62950,-1.68891,-1.09393,-0.744896,0
62970,-1.69699,-1.10093,-0.729872,0
62990,-1.70429,-1.10824,-0.714985,0
63010,-1.70474,-1.11599,-0.704291,0
63030,-1.70369,-1.12663,-0.694822,0
63050,-1.70393,-1.13937,-0.684785,0
63070,-1.69944,-1.15269,-0.680774,0
63090,-1.68442,-1.16784,-0.690153,0
63110,-1.65809,-1.18303,-0.709666,0
63130,-1.62009,-1.19533,-0.738595,0
63150,-1.57102,-1.20071,-0.777998,0
63170,-1.50842,-1.20216,-0.829882,0
63210,-1.2021,-1.18751,-1.10196,0
63230,-0.990367,-1.10951,-1.3099,0
63250,-0.882858,-1.04621,-1.40602,0
63270,-0.788664,-0.972316,-1.48136,0
63290,-0.732618,-0.88955,-1.53211,0
63310,-0.685503,-0.795836,-1.5831,0
63330,-0.635343,-0.689757,-1.63588,0
63350,-0.599779,-0.583351,-1.67834,0
63370,-0.591516,-0.485867,-1.70504,0
63390,-0.603989,-0.406865,-1.72987,0
63410,-0.627763,-0.337515,-1.74854,0
63430,-0.659773,-0.27455,-1.75454,0
63450,-0.691848,-0.217336,-1.74745,0
63470,-0.710691,-0.175765,-1.73881,0
63490,-0.709783,-0.154039,-1.73371,0
63510,-0.693751,-0.145778,-1.72502,0
63530,-0.672497,-0.146162,-1.70825,0
63550,-0.657838,-0.154484,-1.68695,0
63570,-0.656199,-0.17006,-1.66485,0
63590,-0.666252,-0.189361,-1.6413,0
63610,-0.681495,-0.210651,-1.61659,0
63630,-0.695721,-0.23366,-1.59304,0
63650,-0.706356,-0.257809,-1.5702,0
63670,-0.713744,-0.282209,-1.54764,0
63690,-0.723108,-0.306353,-1.52388,0
63710,-0.738534,-0.330041,-1.50184,0
63720,-0.754585,-0.352815,-1.48341,0
63740,-0.769675,-0.373424,-1.46471,0
63760,-0.780502,-0.390343,-1.44499,0
63790,-0.796341,-0.416788,-1.41153,0
63810,-0.803839,-0.43044,-1.39663,0
63830,-0.812918,-0.443184,-1.38133,0
63850,-0.820512,-0.452401,-1.36647,0
63870,-0.822821,-0.458519,-1.35306,0
63890,-0.823929,-0.463179,-1.34089,0
63910,-0.827736,-0.466226,-1.32834,0
63920,-0.833297,-0.467728,-1.31703,0
63940,-0.839844,-0.467927,-1.30771,0
63960,-0.847708,-0.465994,-1.30013,0
63980,-0.856365,-0.462506,-1.29353,0
64000,-0.859447,-0.458098,-1.28886,0
64020,-0.858479,-0.451974,-1.28409,0
64040,-0.858961,-0.446013,-1.28004,0
64060,-0.86516,-0.440385,-1.27741,0
64080,-0.873775,-0.433584,-1.27759,0
64100,-0.87763,-0.42739,-1.27963,0
64120,-0.87968,-0.422043,-1.27725,0
64140,-0.879469,-0.417715,-1.27294,0
64160,-0.876376,-0.414397,-1.27028,0
64180,-0.875646,-0.411897,-1.2688,0
64200,-0.878468,-0.410645,-1.26818,0
64220,-0.884121,-0.410069,-1.26645,0
64240,-0.890169,-0.409623,-1.2642,0
64260,-0.892882,-0.408861,-1.26285,0
64280,-0.892978,-0.408254,-1.26197,0
64300,-0.894649,-0.408929,-1.26015,0
64320,-0.898997,-0.410711,-1.25796,0
64340,-0.904128,-0.412237,-1.25358,0
64360,-0.908181,-0.412764,-1.24626,0
64380,-0.909083,-0.413195,-1.23814,0
64390,-0.906123,-0.416281,-1.23052,0
64410,-0.903225,-0.421625,-1.22269,0
64430,-0.908397,-0.427403,-1.21123,0
64450,-0.91642,-0.434273,-1.19625,0
64470,-0.920106,-0.445746,-1.1806,0
64490,-0.922132,-0.459788,-1.16233,0
64510,-0.925039,-0.474491,-1.13995,0
64530,-0.92698,-0.490909,-1.11902,0
64550,-0.928282,-0.507756,-1.10187,0
64570,-0.937333,-0.522776,-1.0841,0
64590,-0.95672,-0.537918,-1.06078,0
64610,-0.97725,-0.557297,-1.03844,0
64630,-0.999169,-0.577727,-1.02182,0
64650,-1.02402,-0.596337,-1.01093,0
64670,-1.04987,-0.613498,-1.00676,0
64690,-1.07633,-0.631117,-1.0073,0
64710,-1.09888,-0.647835,-1.01453,0
64730,-1.15387,-0.694102,-1.07556,0
64750,-1.16208,-0.708792,-1.10753,0
64770,-1.16543,-0.722328,-1.14551,0
64790,-1.16245,-0.735126,-1.19074,0
64810,-1.14892,-0.745476,-1.24646,0
64830,-1.12995,-0.749012,-1.30587,0
64850,-1.10785,-0.750948,-1.36825,0
64870,-1.08234,-0.751387,-1.43078,0
64890,-1.05435,-0.74956,-1.48804,0
64910,-1.02133,-0.752472,-1.53955,0
64930,-0.993584,-0.75682,-1.5775,0
64950,-0.970347,-0.761887,-1.60636,0
64970,-0.952107,-0.765735,-1.62503,0
64990,-0.939776,-0.766695,-1.62962,0
65010,-0.932976,-0.765147,-1.62154,0
65030,-0.92812,-0.761776,-1.60741,0
65050,-0.924579,-0.756103,-1.58924,0
65070,-0.922142,-0.746723,-1.56599,0
65090,-0.924197,-0.734798,-1.53987,0
65110,-0.928273,-0.720932,-1.51227,0
65130,-0.930607,-0.704552,-1.48407,0
65150,-0.928143,-0.687565,-1.45778,0
65170,-0.92369,-0.671109,-1.43379,0
65190,-0.921821,-0.651369,-1.40928,0
65210,-0.930285,-0.627017,-1.38459,0
65230,-0.934826,-0.604667,-1.36632,0
65250,-0.933802,-0.584563,-1.35278,0
65290,-0.934517,-0.548051,-1.3288,0
65310,-0.945331,-0.529485,-1.31936,0
65330,-0.957071,-0.511248,-1.31494,0
65350,-0.962464,-0.494199,-1.31294,0
65370,-0.963159,-0.47813,-1.30944,0
65390,-0.961084,-0.463794,-1.30497,0
65410,-0.959386,-0.452665,-1.30102,0
65430,-0.959766,-0.443825,-1.29668,0
65450,-0.960928,-0.436741,-1.2909,0
65470,-0.960721,-0.432279,-1.28547,0
65490,-0.958685,-0.429932,-1.28331,0
65510,-0.956522,-0.427974,-1.28309,0
65530,-0.95786,-0.425129,-1.28176,0
65550,-0.960339,-0.421603,-1.27997,2000
65570,-0.962322,-0.418178,-1.27885,0
65590,-0.961727,-0.415803,-1.27815,0
65610,-0.960731,-0.414241,-1.27838,0
65630,-0.960748,-0.412886,-1.27854,0
65650,-0.960642,-0.411646,-1.27749,0
65670,-0.962787,-0.411601,-1.27469,0
65690,-0.964441,-0.41366,-1.27267,0
65710,-0.962976,-0.415339,-1.27113,0
65730,-0.962639,-0.417118,-1.2677,0
65750,-0.965411,-0.419221,-1.26167,0
65770,-0.964386,-0.422678,-1.25308,0
65790,-0.963846,-0.428614,-1.24324,0
65810,-0.964529,-0.435848,-1.23254,0
65830,-0.965507,-0.442943,-1.22216,0
65850,-0.971319,-0.450503,-1.21022,0
65870,-0.979067,-0.459294,-1.19726,0
65890,-0.986799,-0.470548,-1.1826,0
65910,-0.991568,-0.483258,-1.16781,0
65930,-0.994916,-0.496124,-1.15123,0
65950,-1.00075,-0.509363,-1.13336,0
65970,-1.01065,-0.523018,-1.11612,0
65990,-1.0198,-0.538298,-1.10149,0
66010,-1.03077,-0.555035,-1.08669,0
66030,-1.04092,-0.575116,-1.06876,0
66050,-1.05255,-0.596589,-1.04849,0
66070,-1.06747,-0.619123,-1.02809,0
66090,-1.08469,-0.645473,-1.01486,0
66110,-1.10528,-0.672847,-1.00661,0
66110,-1.1266,-0.69727,-1.00552,0
66130,-1.14461,-0.718795,-1.00978,0
66150,-1.16033,-0.737708,-1.0207,0
66170,-1.17031,-0.755121,-1.04248,0
66190,-1.1766,-0.769455,-1.07099,0
66210,-1.17765,-0.782602,-1.1093,0
66230,-1.16989,-0.794022,-1.15963,0
66250,-1.14961,-0.79989,-1.22608,0
66270,-1.11985,-0.802963,-1.30514,0
66290,-1.08362,-0.803341,-1.39285,0
66310,-1.04333,-0.800365,-1.4866,0
66330,-1.00162,-0.794222,-1.58052,0
66350,-0.960102,-0.784408,-1.67065,0
66370,-0.91969,-0.772954,-1.75583,0
66390,-0.8826,-0.761875,-1.83493,0
66410,-0.849832,-0.749755,-1.90577,0
66430,-0.824901,-0.737327,-1.95864,0
66450,-0.80174,-0.733719,-1.99461,0
66470,-0.782421,-0.72696,-2.0186,0
66490,-0.770886,-0.713541,-2.03419,0
66510,-0.756315,-0.696741,-2.04619,0
66530,-0.739757,-0.678868,-2.05129,0
66550,-0.731597,-0.661192,-2.04843,0
66570,-0.727615,-0.643952,-2.04185,0
66590,-0.724378,-0.6224,-2.03261,0
66610,-0.721587,-0.597028,-2.01812,0
66630,-0.723773,-0.572156,-1.99842,0
66650,-0.732207,-0.549535,-1.97549,0
66670,-0.742869,-0.528684,-1.94735,0
66690,-0.750989,-0.506837,-1.91651,0
66710,-0.758275,-0.484412,-1.88539,0
