Timestamp, Rotation x, Rotation y, Rotation z, Marker
40,9.3125,-1.125,-0.9375,0
60,8.75,-0.625,4.0625,0
80,8.625,-0.8125,6.0625,0
100,7.8125,-0.8125,5.5625,0
120,5.875,-0.5,3,0
130,4.4375,0.375,2.6875,0
130,4.75,0.8125,-0.75,0
180,5.1875,0.125,-2.5625,0
200,6.6875,-0.4375,-3.9375,0
220,8.4375,-1.625,-4.1875,0
240,9.375,-2.75,-3.9375,0
260,9.5,-3.5625,-4.375,0
280,8.875,-4,-4.8125,0
300,7.5,-4.0625,-4.875,0
320,5.875,-3.5,-4.3125,0
340,4.375,-2.8125,-3.1875,0
360,2.6875,-1.9375,-2,0
380,1.25,-1.0625,-0.9375,0
400,1.3125,-0.875,0.0625,0
420,1.625,-0.625,0.8125,0
440,1.6875,-0.125,0.8125,0
460,2.1875,0.0625,1.25,0
480,1.375,0.8125,1.625,0
500,0.6875,1,1.75,0
520,1.875,0.375,0.875,0
530,1.8125,-0.5625,0.375,0
550,2.6875,-1.375,0.875,0
570,4.0625,-2.125,0.875,0
590,5.375,-3.0625,-0.125,0
610,5.9375,-3.75,-1.1875,0
630,6.5,-4.375,-1.3125,0
650,5,-5.75,-2.0625,0
670,-1.25,-8.3125,-7.0625,0
690,-5.25,-6.9375,-7.5,0
710,3,-3.9375,-1.6875,0
730,15.0625,-3.4375,3.6875,0
750,18.125,-4.25,5.875,0
770,12.625,-3.9375,3.875,0
790,8.8125,-4.375,0.625,0
810,10.625,-7.5,-0.6875,0
830,13.875,-6.6875,-0.9375,0
850,14.8125,-4.125,0.3125,0
870,13.625,-1.875,0.375,0
890,10.25,-0.875,-1.3125,0
910,7.875,-0.25,-3.8125,0
930,7.375,-1.1875,-5.75,0
950,8.4375,-3.0625,-5.8125,0
970,8.75,-4.3125,-5.0625,0
990,6.4375,-4.125,-4.125,0
1010,2.4375,-2.8125,-3.625,0
1030,-1,-1.875,-3.25,0
1050,-4.1875,-1.5625,-2.9375,0
1070,-5.6875,-0.375,-1.3125,0
1090,-3.1875,0.0625,0.8125,0
1110,0.75,-1.375,2.375,0
1130,4.75,-2.25,2.5,0
1150,8.5,-2.125,3.5,0
1170,9.8125,-3.3125,4.25,0
1190,7.625,-4.125,3.125,0
1210,4.5,-3,1.75,0
1230,4.125,-2.9375,0.9375,0
1250,7.8125,-2.75,0.0625,0
1270,9.1875,-2.5,-0.6875,0
1290,7.5,-2.25,-1.75,0
1310,7.0625,-0.875,-1.25,0
1330,7.125,-3.25,-2.8125,0
1350,7.9375,-4.875,-3.0625,0
1370,9.5625,-4.0625,-2.5625,0
1390,8.875,-3.4375,-4.25,0
1410,5.3125,-3.875,-8.1875,0
1430,1,-2.5625,-9.5625,0
1450,3.6875,-3.125,-9.625,0
1470,8.8125,-4.6875,-7.4375,0
1490,11.1875,-5.5625,-3.3125,0
1510,10.5,-4.875,-1.25,0
1530,6.8125,-4.875,-1.5,0
1550,2.9375,-5,-2.5625,0
1570,3.1875,-4.625,-3.6875,0
1590,3.125,-4.0625,-2.75,0
1610,3.5,-3.6875,0.3125,0
1630,5.6875,-4.125,1.8125,0
1650,6.9375,-5.25,1.4375,0
1670,7.5,-6.625,0.25,0
1690,5.9375,-4.75,-2.375,0
1710,5.375,-4.5,-4.25,0
1730,6.625,-2.9375,-1.75,0
1750,7.375,-0.75,0.3125,0
1770,6.375,-0.6875,-2.1875,0
1790,4.1875,-1.9375,-3.375,0
1810,2.8125,-0.0625,-3.25,0
1830,3.6875,1.125,-2.875,0
1850,3,1.1875,-3.375,0
1870,2.4375,2.125,-3.75,0
1890,1.75,1.6875,-3.625,0
1910,2.0625,0.5,-4.5,0
1930,4.4375,-1.4375,-6.75,0
1950,5.9375,-2.1875,-8.75,0
1970,6.8125,-1.4375,-8.3125,0
1990,7.1875,-0.25,-7.125,0
2010,6.0625,0.625,-6.4375,0
2030,3.625,0.5625,-6.375,0
2050,1.625,0.25,-6.1875,0
2070,0.375,0.0625,-5.3125,0
2090,-0.0625,-0.125,-4.5625,0
2110,-0.0625,-0.3125,-4,0
2130,0.8125,-0.4375,-2.875,0
2150,2.375,-1.375,-3.5625,0
2170,2.8125,-1.8125,-3.375,0
2190,2.375,-1.875,-2.875,0
2210,2.0625,-2.25,-3.0625,0
2230,1.0625,-2.5625,-1.875,0
2250,1.375,-2.1875,-1.75,0
2270,2.75,-3,-2.625,0
2290,3.5625,-3.75,-1.75,0
2310,3.5625,-3.6875,-1.0625,0
2330,3.5625,-2.9375,0.125,0
2350,1.875,-4.1875,0.3125,0
2370,-2.625,-6.6875,-2.1875,0
2390,-5.625,-4.375,-2.9375,0
2410,0.625,0.4375,3.625,0
2430,8.125,1.375,7.6875,0
2450,6.75,0.125,9.5,0
2470,-1.1875,1.1875,8.125,0
2490,-1.6875,1.25,4.75,0
2510,3.8125,-1,1.6875,0
2530,8.1875,-1.875,0.3125,0
2550,8.5625,-0.5,0.75,0
2570,5.875,0.875,0.625,0
2590,2.75,2.1875,-1.5,0
2610,0.625,2.8125,-4.25,0
2630,0.1875,3.3125,-4.875,0
2650,2.5,3.8125,-3.6875,0
2670,4.5625,4,-2.125,0
2690,2.5,3.6875,-0.5,0
2710,-3.375,3.1875,0.1875,0
2730,-8.9375,1.6875,-0.125,0
2750,-10.9375,0.125,0.4375,0
2770,-8.5625,-0.125,3.3125,0
2790,-2.3125,-0.8125,5.9375,0
2810,2.8125,-2.125,6.0625,0
2830,2.5625,-1.3125,6,0
2850,1.6875,0.0625,5.625,0
2870,2.4375,-0.25,4.875,0
2890,0.875,-0.625,4.8125,0
2910,-1.3125,0.375,4.1875,0
2930,-1.6875,0.625,3.5625,0
2950,0.6875,0.1875,3.125,0
2970,3.25,0.375,2.9375,0
2990,3,-1.3125,-1.75,0
3010,3.375,-0.1875,3.75,0
3030,3,-0.25,1.75,0
3050,2.5,0,1.25,0
3070,2.875,0.5,0.9375,0
3090,3.0625,1.375,0.3125,0
3110,2.4375,2.3125,0.5,0
3130,2.125,3.5,1.5625,0
3150,1.4375,3.25,0.4375,0
3170,0.4375,1.75,-2.25,0
3190,-0.25,0.8125,-3.9375,0
3210,3.3125,-0.6875,-3.6875,0
3230,6.6875,-1.4375,-2.125,0
3240,7.8125,-0.5625,0.625,0
3260,5.25,-0.5625,1.6875,0
3280,-0.3125,-0.75,1.0625,0
3300,-4.5625,-0.375,0.375,0
3320,-3.6875,1.25,1.4375,0
3340,-2.9375,2.0625,2.4375,0
3360,-2.0625,2.0625,3.375,0
3380,-0.1875,0.1875,2.625,0
3400,4.0625,0,4.875,0
3420,7.0625,-2.4375,3.375,0
3440,7.875,-2.4375,1.375,0
3460,6.9375,-2.75,0.3125,0
3480,5.5625,-1.625,-0.8125,0
3500,3.4375,-0.1875,-1.375,0
3520,-0.25,1.9375,-2.5625,0
3540,1.125,0.5625,0.375,0
3560,2.5625,-0.375,2.8125,0
3580,2.9375,-0.375,-4.25,0
3600,1.1875,1.5625,-1.125,0
3620,1.75,-1.375,-0.5,0
3640,-2.25,0.4375,1.375,0
3660,-7.3125,3.4375,5.25,0
3680,-9.8125,2.25,8.0625,0
3700,-9.875,-1,8.75,0
3720,-10.5625,-3.0625,7,0
3740,-9.125,-1.875,5.1875,0
3760,-6.5,-1.25,2.6875,0
3780,-2.1875,-0.8125,0.25,0
3800,-1.375,-0.9375,-3.5,0
3820,-3.6875,-1.125,-5.5625,0
3840,-5.9375,-1.125,-6,0
3860,-8.25,-1.375,-5.875,0
3880,-12.125,0.25,-5.25,0
3900,-15.125,3.4375,-3.5625,0
3920,-16.8125,5.4375,-2.9375,0
3940,-19.4375,6.25,-3.875,0
3960,-20.6875,6.125,-6,0
3980,-20.4375,4.75,-8.25,0
4000,-17.4375,3,-9.875,0
4020,-12.0625,1.5,-10.6875,0
4040,-6.5,-0.5625,-11,0
4060,-1.6875,-2.1875,-10.9375,0
4080,0.3125,-2.5625,-9.9375,0
4100,-1.0625,-1.625,-8.0625,0
4120,-4.1875,-0.4375,-5.8125,0
4140,-7.9375,0.4375,-4.1875,0
4160,-10.8125,1.375,-2.375,0
4180,-11.875,1.9375,-1.0625,0
4200,-10.75,2.125,-0.125,0
4220,-7.6875,1.4375,0.3125,0
4240,-3.75,0.125,0.5625,0
4260,1.125,-1.4375,0.75,0
4280,5.5,-2.8125,0.9375,0
4300,6.5625,-3.125,1.375,0
4320,4.6875,-2.3125,1.9375,0
4340,-0.125,-0.625,2.1875,0
4360,-5.0625,1.25,1.875,0
4380,-7.875,2.3125,1.25,0
4400,-8.375,2.875,1.25,0
4420,-7.875,2.4375,0.3125,0
4440,-6,1.75,-0.3125,0
4460,-3.4375,0.5,-1.1875,0
4480,-1.25,-0.4375,-1.875,0
4500,0.375,-1.25,-1.75,0
4520,-0.3125,-1.0625,-0.9375,0
4540,-0.1875,-0.625,-0.25,0
4560,2,-0.5625,-0.6875,0
4580,1.8125,-0.3125,-0.5,0
4600,0.6875,0.5,0.5625,0
4620,-0.75,1.125,0.875,0
4640,-1.375,1.6875,-0.0625,0
4660,-0.875,1.75,-0.9375,0
4680,-0.0625,1.375,-1,0
4700,0.875,0.6875,-0.9375,0
4720,1.875,-0.3125,-1.0625,0
4740,2.8125,-1.0625,-1.125,0
4760,3.1875,-1.6875,-0.8125,0
4780,2.6875,-1.8125,-0.6875,0
4800,1.9375,-1.5625,-0.9375,0
4820,1.5625,-1.125,-1.0625,0
4840,1.75,-1,-0.625,0
4860,1.4375,-0.625,0.625,0
4880,0.8125,-0.25,2.25,0
4900,-0.0625,0.25,3.1875,0
4920,-0.4375,0.4375,3.0625,0
4940,-1.5625,0.875,2.875,0
4960,-3.0625,1.3125,2.875,0
4980,-4.0625,1.3125,2.3125,0
5000,-4.1875,1.1875,1.125,0
5020,-3.125,0.625,0,0
5040,-2.3125,0.3125,-1,0
5060,-2,0,-1.9375,0
5080,-0.9375,-0.375,-2.75,0
5100,-0.4375,-0.375,-3.3125,0
5120,-1.0625,-0.25,-3.625,0
5140,-1.5625,-0.25,-3.375,0
5160,-1.8125,0.0625,-2.8125,0
5170,-2,0.125,-2.125,0
5200,-1.625,0.375,-1.625,0
5220,-0.8125,0.4375,-1.0625,0
5230,-0.375,0.5,-0.3125,0
5250,0,0.25,0.25,0
5270,0.6875,-0.125,0.25,0
5290,1.125,-0.375,0.375,0
5310,1.25,-0.6875,0.5625,0
5330,1.9375,-0.875,0.75,0
5350,2.375,-0.9375,1.0625,0
5370,2.9375,-0.75,1.25,0
5390,3.25,-0.6875,1.0625,0
5410,3.25,-0.5625,0.8125,0
5430,2.8125,-0.5,0.75,0
5450,2.4375,-0.375,0.75,0
5470,2.5,-0.375,0.625,0
5490,2.5625,-0.25,0.3125,0
5510,2.5,-0.3125,0,0
5530,2.6875,-0.375,-0.3125,0
5550,3.1875,-0.75,-1.0625,0
5570,3.6875,-1.1875,-1.625,0
5590,3.875,-1.625,-1.9375,0
5610,5.25,-2.375,-2.125,0
5630,6.125,-3.0625,-1.0625,0
5650,6.375,-3,0.4375,0
5670,5.625,-2.375,1.125,0
5690,4.6875,-1.625,1.3125,0
5710,3.25,-1.125,1.625,0
5730,1.5625,-0.5625,2.5625,0
5750,0.9375,-0.3125,3.875,0
5770,0.875,0,5.5625,0
5790,0.0625,0.8125,7.0625,0
5810,-1.875,1.75,8.375,0
5830,-4.1875,2.25,8.4375,0
5850,-6.5,2.875,8.25,0
5870,-7.5,3.8125,8.25,0
5890,-7.375,4.4375,8.1875,0
5910,-6.0625,4.8125,6.8125,0
5930,-7.9375,7.75,9.5625,0
5950,1.5,3.9375,17.9375,0
5970,-13.6875,0.3125,47.4375,0
5990,-42.6875,11.3125,28.3125,0
6010,-34,2.625,-8.8125,0
6030,-18.4375,-5.75,-13.1875,0
6050,7.9375,1.25,-5.1875,0
6070,25.75,3.0625,-0.8125,0
6090,22.25,-1.9375,2.8125,0
6110,18.6875,-2.625,2.9375,0
6130,11.4375,0.1875,6.0625,0
6150,-3.75,3.75,14.5625,0
6170,-14.875,10.4375,19.9375,0
6190,-24.8125,9.3125,13.375,0
6210,-20.3125,5.6875,6.125,0
6230,-9.25,3.8125,-2,0
6250,2.8125,-0.0625,-8.1875,0
6270,12.625,-2.1875,-11.8125,0
6290,15.5,-2.6875,-9.6875,0
6310,14.75,-3.1875,-6.625,0
6330,12,-4.125,-4.875,0
6350,8.8125,-4.375,-4.8125,0
6370,6.6875,-3.8125,-5.9375,0
6390,5.25,-2.6875,-6.375,0
6410,3.25,-1.6875,-5.5625,0
6430,1.6875,-1,-4.8125,0
6450,1.125,-0.375,-3.5,0
6470,1,-0.125,-1.875,0
6490,1.5625,-0.125,-1.0625,0
6510,2.25,-0.5625,-1,0
6530,3.4375,-1.3125,-1.0625,0
6550,5.25,-2.1875,-0.5625,0
6570,6.4375,-2.875,0.125,0
6590,6.9375,-3.9375,0,0
6610,7.1875,-4.9375,-0.625,0
6630,7.1875,-5.9375,-1.25,0
6650,7.9375,-6.5625,-1.1875,0
6670,7.125,-6.25,-1,0
6690,3.0625,-8.125,-2.625,0
6710,-3.1875,-7.8125,-4.625,0
6730,-2.0625,-1.3125,1.6875,0
6750,6.0625,1.25,7.9375,0
6770,4.5625,0.875,10.3125,0
6790,-6.25,2.375,8.125,0
6810,-11.3125,1.875,2.5625,0
6830,-6.625,-1.25,-0.9375,0
6850,0.3125,-1.75,-3.0625,0
6870,3.9375,-1.3125,-4.8125,0
6890,4.125,-1.625,-6.5625,0
6910,1.9375,-2,-8.1875,0
6930,-0.4375,-2.1875,-9.75,0
6950,-1.375,-2.5625,-10,0
6970,-1.0625,-2.8125,-10.125,0
6990,-1.3125,-2.625,-9.375,0
7010,-2.3125,-1.6875,-7.8125,0
7030,-3.5625,-0.1875,-6.375,0
7050,-5,0.8125,-4.8125,0
7070,-6.125,1.125,-1.9375,0
7090,-6.625,2.125,1.5,0
7110,-3.8125,2.25,4.4375,0
7130,2.0625,1.375,6.625,0
7150,4.75,0.3125,7,0
7170,5.3125,-1,5.6875,0
7190,5.25,-1.9375,4.8125,0
7210,6.3125,-1.3125,5.5625,0
7230,6.4375,-0.625,6.0625,0
7250,3.3125,-0.1875,4.5625,0
7270,0.875,-0.0625,1.875,0
7290,2.125,-0.8125,0,0
7310,5.125,-1.625,-0.6875,0
7330,5.6875,-1.5625,-0.9375,0
7350,3,-0.9375,-0.875,0
7370,1.0625,-0.0625,-0.4375,0
7390,1.1875,0.3125,0.375,0
7410,2.25,1.625,1.1875,0
7430,2.125,3.1875,2.5625,0
7450,-0.25,2.1875,-0.1875,0
7470,-3.8125,1.75,-3.625,0
7490,-3.25,0.875,-4.125,0
7510,2.875,-1.0625,-2.875,0
7530,6.4375,-0.6875,0.5625,0
7550,6.875,0.8125,3.6875,0
7570,3.5,0.375,3.9375,0
7590,-3.4375,0.4375,2.0625,0
7610,-7.75,1.6875,1,0
7630,-6.375,2.375,1.625,0
7650,-3,2.75,3,0
7670,-0.125,2.25,4.25,0
7690,0.875,0.8125,4.375,0
7710,0.25,0.4375,3.0625,0
7730,-1.1875,1.1875,1.8125,0
7750,-2,1.9375,0.8125,0
7770,-0.75,1.6875,-0.125,0
7790,0.6875,1,-0.75,0
7810,1.1875,0.375,-1,0
7830,1.625,0.125,-1.75,0
7850,0.125,0.3125,-2.625,0
7870,-2.4375,0.8125,-3.3125,0
7890,-4.375,0.8125,-3.375,0
7910,-5.1875,1,-3,0
7930,-4.4375,1.3125,-2.1875,0
7950,-3.625,1.375,-1.125,0
7970,-3.9375,1.5,-0.5625,0
7990,-4.375,1.25,-0.0625,0
8010,-3.375,0.5625,0.25,0
8030,-1.0625,-0.4375,-0.5,0
8050,0.625,-0.8125,-0.8125,0
8070,2.75,-0.6875,0,0
8090,5.0625,-1.625,-0.1875,0
8110,5.4375,-2.375,-1.0625,0
8130,4.5625,-2.375,-1.1875,0
8150,4.4375,-2,-1.4375,0
8170,4.125,-1.9375,-2.125,0
8190,3.125,-1.6875,-2.4375,0
8210,1.125,-1.375,-2.0625,0
8230,-0.8125,-0.875,-1.8125,0
8250,-1.5,-0.5,-1.875,0
8270,-1.0625,-0.25,-1.5625,0
8290,-0.4375,0.125,-0.8125,0
8310,-0.9375,0.5625,-0.375,0
8330,-2.375,0.6875,-0.6875,0
8350,-3.625,1.125,-0.9375,0
8370,-3.4375,1.0625,-0.9375,0
8390,-2.0625,0.4375,-0.75,0
8410,-0.875,-0.125,-0.75,0
8430,0.0625,-0.625,-0.875,0
8450,0.375,-1,-0.875,0
8470,0.125,-0.8125,-0.875,0
8490,-0.375,-0.375,-0.625,0
8510,-1.3125,0.1875,-0.625,0
8530,-2.125,0.4375,-0.5,0
8550,-2.0625,0.75,-0.1875,0
8570,-1.5,0.6875,0.0625,0
8590,-0.875,0.375,0,0
8610,-0.75,0.375,0.125,0
8630,-0.6875,0.125,0.3125,0
8640,-0.8125,0.1875,0.5,0
8660,-0.75,0.4375,1,0
8680,-0.8125,0.75,1.375,0
8700,-0.8125,0.9375,1.5,0
8720,-1,1.1875,1.4375,0
8740,-1.0625,1.3125,1.4375,0
8760,-1.1875,1.4375,1.4375,0
8780,-0.875,1.0625,1.125,0
8800,-0.0625,0.625,0.6875,0
8820,0.6875,0.0625,0.4375,0
8840,1.25,-0.3125,0.3125,0
8860,2.0625,-0.5625,-0.125,0
8880,1.5625,-0.375,-0.375,0
8900,0.0625,-0.125,-0.1875,0
8920,-1.625,0.375,0.0625,0
8940,-2.5625,0.875,0.25,0
8960,-2.4375,1.0625,0.5,0
8980,-2,1.125,0.75,0
9000,-1,0.6875,0.4375,0
9020,-0.25,0.125,-0.0625,0
9040,0.3125,-0.25,-0.25,0
9060,0.3125,-0.375,-0.375,0
9080,0.125,-0.125,-0.5,0
9100,-0.125,0.0625,-0.5,0
9120,-0.375,0.125,-0.125,0
9140,0.1875,-0.0625,-0.125,0
9160,0.625,-0.25,0.25,0
9180,0.625,0,0.4375,0
9200,0.4375,-0.1875,0.375,0
9220,0.4375,-0.25,0.1875,0
9240,0.5,-0.1875,0.0625,0
9260,0.75,-0.125,0.0625,0
9280,1,-0.125,-0.0625,0
9300,1.125,-0.375,-0.4375,0
9320,0.8125,-0.5,-0.625,0
9340,0.625,-0.625,-0.6875,0
9360,0.625,-0.625,-0.875,0
9380,0.75,-0.5,-1.1875,0
9400,0.875,-0.5625,-1,0
9420,0.875,-0.5,-0.6875,0
9440,0.75,-0.3125,-0.3125,0
9460,0.625,-0.25,-0.25,0
9480,0.4375,-0.25,-0.25,0
9500,0.25,-0.3125,-0.1875,0
9520,0.25,-0.3125,-0.125,0
9540,0.25,-0.3125,-0.1875,0
9560,0.1875,-0.3125,-0.375,0
9580,0.125,-0.3125,-0.5625,0
9600,-0.1875,-0.3125,-0.75,0
9620,-0.1875,-0.3125,-0.75,0
9640,-0.3125,-0.375,-0.875,0
9660,-0.3125,-0.375,-1,0
9680,-0.375,-0.5,-1.0625,0
9700,-0.25,-0.5,-1.125,0
9720,-0.3125,-0.375,-1,0
9740,-0.1875,-0.375,-0.6875,0
9760,-0.3125,-0.3125,-0.5625,0
9780,-0.5,-0.1875,-0.4375,0
9800,-0.875,-0.125,-0.5,0
9820,-0.9375,0,-0.5625,0
9840,-0.5,-0.0625,-0.5625,0
9860,-0.0625,-0.3125,-0.4375,0
9880,0.625,-0.3125,-0.25,0
9900,1.3125,-0.4375,-0.125,0
9920,1.4375,-0.4375,-0.1875,0
9940,0.625,-0.3125,-0.125,0
9960,-0.25,-0.1875,-0.125,0
9980,-1.125,0.0625,-0.1875,0
10000,-1.375,0.3125,-0.25,0
10020,-1.3125,0.5,-0.0625,0
10040,-1.25,0.375,0.0625,0
10060,-1,0.125,-0.125,0
10080,-0.625,-0.1875,-0.3125,0
10100,-0.5,-0.25,-0.5,0
10120,-0.5625,-0.125,-0.625,0
10140,-0.6875,-0.25,-0.75,0
10160,-1.125,-0.1875,-0.9375,0
10180,-1.125,0,-0.6875,0
10200,-0.8125,-0.0625,-0.3125,0
10220,-0.6875,0,-0.125,0
10240,-0.75,0.0625,-0.3125,0
10260,-0.6875,-0.0625,-0.1875,0
10280,-0.8125,0.0625,-0.0625,0
10300,-0.875,0.25,0.125,0
10320,-0.5625,0.3125,0.1875,0
10340,-0.375,0.3125,0.125,0
10360,-0.375,0.4375,0.25,0
10380,-0.4375,0.3125,0.1875,0
10400,-0.75,0.4375,0.25,0
10420,-1.0625,0.5625,0.375,0
10440,-1.4375,1.0625,0.5,0
10460,-2,1.75,1.0625,0
10480,-2.5,2.125,1.4375,0
10500,-2.9375,2.1875,1.625,0
10520,-2.375,1.875,1.8125,0
10540,-2,1.4375,1.75,0
10560,-1.5,1.125,1.6875,0
10580,-1.125,0.9375,1.375,0
10600,-0.8125,0.875,1.0625,0
10620,-0.4375,0.625,0.8125,0
10630,-0.25,0.375,0.4375,0
10650,-0.125,0.125,0.0625,0
10670,0,-0.0625,-0.375,0
10690,-0.0625,-0.25,-0.6875,0
10710,-0.25,-0.4375,-1,0
10730,-0.3125,-0.375,-1.0625,0
10750,-0.75,-0.25,-1,0
10770,-0.875,-0.1875,-0.9375,0
10790,-1.1875,0,-0.6875,0
10810,-1.1875,0.0625,-0.375,0
10830,-1.125,0.125,-0.0625,0
10850,-1,0.25,0.25,0
10870,-1,0.25,0.5625,0
10890,-0.75,0.375,0.9375,0
10910,-0.5625,0.3125,1.0625,0
10930,-0.3125,0.4375,1.125,0
10950,0,0.375,1.0625,0
10970,0.25,0.3125,0.8125,0
10990,0.4375,-0.0625,0.375,0
11010,0.6875,-0.1875,0.125,0
11030,0.875,-0.1875,-0.0625,0
11050,1.25,-0.25,0.0625,0
11070,1.5,-0.25,0.3125,0
11090,2.25,-0.375,0.125,0
11110,2.375,-0.5625,0.125,0
11130,1.3125,-0.1875,-0.125,0
11150,0.375,-0.3125,-0.1875,0
11170,-0.1875,-0.25,-0.1875,0
11190,-0.1875,-0.0625,-0.0625,0
11210,-0.125,0.0625,0.3125,0
11230,-0.4375,0.375,0.625,0
11250,-0.6875,0,0.625,0
11270,-0.9375,-0.375,0.3125,0
11290,-0.8125,-0.5,0.0625,0
11310,-0.4375,-0.625,-0.375,0
11330,-0.0625,-0.6875,-0.5,0
11350,-0.625,-0.625,-0.5625,0
11370,-0.625,-0.375,-0.625,0
11390,-0.1875,-0.375,-0.625,0
11410,-0.4375,-0.0625,-0.5,0
11430,-0.5625,0,-0.5625,0
11450,-0.5625,-0.375,-0.8125,0
11470,-0.0625,-0.375,-0.9375,0
11490,0.5625,-0.4375,-0.8125,0
11510,0.9375,-0.375,-0.75,0
11530,1,-0.4375,-0.5625,0
11550,0.625,-0.375,-0.5625,0
11570,0.1875,-0.375,-0.625,0
11590,-0.0625,-0.1875,-0.6875,0
11610,-0.0625,-0.3125,-0.875,0
11630,0.0625,-0.5,-1.375,0
11650,0.125,-0.5625,-1.25,0
11670,0.125,-0.5,-1,0
11690,0,-0.4375,-0.9375,0
11710,-0.0625,-0.375,-0.75,0
11730,-0.125,-0.375,-0.625,0
11750,-0.1875,-0.1875,-0.6875,0
11770,-0.4375,-0.25,-0.625,0
11790,-2.25,0,-0.25,0
11810,-6.125,1.5,0.75,0
11830,-7.9375,2.5,1.25,0
11850,-7.125,2.25,0.25,0
11870,-5.3125,1.5625,-0.8125,0
11890,-3.25,0.625,-0.6875,0
11910,-1.5,-0.125,-0.875,0
11930,0.125,-0.9375,-0.9375,0
11950,1.125,-1.1875,-0.5625,0
11970,0.125,-0.625,0.3125,0
11990,-0.625,-0.25,0.875,0
12010,-1.4375,0.25,1.1875,0
12030,-1.375,0.875,1.3125,0
12050,-1.4375,0.8125,0.5625,0
12070,-0.1875,-0.125,-0.1875,0
12090,-0.125,-1.0625,-0.8125,0
12110,0.6875,-0.75,0.0625,0
12130,2.9375,-0.375,1.4375,0
12150,2.25,-0.5625,0.9375,0
12170,-3.0625,0.1875,-0.375,0
12190,-2.875,0.6875,-0.5,0
12210,-1.25,0.125,-0.125,0
12230,-1.125,0.625,0.375,0
12250,-2.375,0.75,0.125,0
12270,-2.8125,0.75,0.6875,0
12290,-4,1.25,0.75,0
12310,-2.5,1.625,0.5,0
12330,-1.375,1.75,0.1875,0
12350,0.1875,1.75,-0.3125,0
12370,0.4375,0.9375,-1.375,0
12390,0.75,0.5625,-2.5,0
12410,1.1875,0.375,-2.4375,0
12430,0.6875,0.5,-2.0625,0
12450,-0.0625,0.625,-2,0
12470,-1.125,1,-1.5625,0
12490,-1.375,1.0625,-1.375,0
12510,-1,0.625,-1.8125,0
12530,-1.125,0.0625,-2.25,0
12550,-0.3125,-0.3125,-2.125,0
12570,0.4375,-0.375,-1.125,0
12590,0.75,-0.25,-0.5,0
12610,0.9375,-0.0625,-0.25,0
12630,0.875,-0.1875,-0.1875,0
12650,0.5,0.125,-0.0625,0
12670,0.625,0,0.0625,0
12690,1.4375,-0.3125,-0.375,0
12710,2.0625,-0.5625,-0.75,0
12730,2.5625,-0.75,-0.875,0
12750,3.125,-0.75,-1.5,0
12770,3.0625,-0.6875,-1.8125,0
12790,2.4375,-0.375,-1.625,0
12810,1.6875,-0.25,-1.25,0
12830,1.4375,-0.125,-1.125,0
12850,1.4375,-0.1875,-1.375,0
12870,1.625,-0.375,-1.3125,0
12890,2.125,-0.5625,-1.25,0
12910,2.25,-0.6875,-1.0625,0
12930,2.5,-0.875,-1.0625,0
12950,2.1875,-0.875,-0.8125,0
12970,2,-0.9375,-0.5,0
12990,2.1875,-0.9375,-0.125,0
13010,2.3125,-1.125,-0.0625,0
13030,2.5,-1.25,0.1875,0
13050,2.625,-1.375,0.3125,0
13070,2.875,-1.3125,0.375,0
13090,2.9375,-1.3125,0.25,0
13110,2.6875,-1.3125,0.0625,0
13130,2.4375,-1.1875,0.125,0
13150,1.9375,-1.0625,0.1875,0
13170,1.3125,-0.6875,0.1875,0
13190,0.625,-0.5625,0.1875,0
13210,0.0625,-0.375,0.25,0
13230,-0.8125,-0.25,0.125,0
13250,-1.5625,0.0625,0,0
13270,-2.1875,0.125,-0.25,0
13290,-2.5625,0.3125,-0.3125,0
13310,-2.625,0.3125,-0.25,0
13330,-3,0.1875,-0.0625,0
13350,-2.875,0,0.0625,0
13370,-2.375,-0.5,0.3125,0
13390,-2,-1,0.6875,0
13410,-2.0625,-2.6875,-0.0625,0
13430,-3.25,-2.9375,-0.4375,0
13450,-0.1875,-0.375,3.625,0
13470,6.75,0.4375,6.5625,0
13490,7.3125,-0.1875,6.125,0
13510,3.5,0.125,3.5,0
13530,3.3125,-0.375,1.875,0
13550,7.0625,-0.9375,1.0625,0
13570,10.9375,-0.8125,0.375,0
13590,12.8125,-1.0625,0.625,0
13610,12.375,-1.625,0.3125,0
13630,9.3125,-2,-1,0
13650,5.8125,-1.625,-2.25,0
13670,3.25,-1.0625,-2.1875,0
13690,1.9375,-0.8125,-1.6875,0
13710,0.6875,-0.9375,-1.6875,0
13730,-0.5,-1.3125,-1.8125,0
13750,-0.25,-1.5,-1.5,0
13770,2.0625,-2.125,-0.5625,0
13790,3.625,-2.75,0.375,0
13810,3.375,-2.625,1.125,0
13830,2.625,-2.0625,1.5625,0
13850,1.25,-1.4375,1.9375,0
13870,-1.375,-0.5625,2,0
13890,-4,0.4375,2.125,0
13910,-5.0625,1.3125,2.3125,0
13930,-5,2.1875,2.1875,0
13950,-5.4375,2.5625,1.5625,0
13970,-6.0625,2.3125,0.125,0
13990,-6.125,2.1875,-1.1875,0
14010,-4.875,2.1875,-1.875,0
14030,-4,1.9375,-2.4375,0
14050,-4.1875,1.8125,-3,0
14060,-4.5625,1.9375,-3.125,0
14080,-3.875,1.875,-2.625,0
14100,-2.6875,2,-1.6875,0
14120,-2.25,2.375,-0.5,0
14140,-2.875,2.4375,0.5,0
14160,-4.125,2.5,1,0
14180,-4.75,2.9375,0.9375,0
14200,-4.0625,2.75,0.375,0
14220,-2.5625,2.0625,-0.125,0
14240,-1.25,0.9375,-0.8125,0
14260,-0.625,-0.0625,-1.5,0
14280,-0.3125,-0.5625,-1.9375,0
14300,0.5,-0.9375,-2.0625,0
14320,1.1875,-1.25,-1.8125,0
14340,1.125,-1.4375,-1.6875,0
14360,1.5625,-1.5,-1.6875,0
14380,1.375,-1.1875,-2.3125,0
14400,2.875,-2.4375,-2.625,0
14420,3.75,-2.25,-3.25,0
14440,3.6875,-3.1875,-3.4375,0
14460,5.125,-4,-3.4375,0
14480,4.9375,-4.1875,-3.375,0
14500,5.375,-4.125,-3.3125,0
14520,5.125,-4,-2.5,0
14540,4.4375,-3.625,-1.3125,0
14560,3.875,-3,-0.1875,0
14580,3.9375,-2.75,0.5,0
14600,4.1875,-2.375,1.4375,0
14620,4,-1.75,2.25,0
14640,3.125,-0.875,2.6875,0
14660,2.1875,-0.25,2.625,0
14680,1.625,-0.0625,2.0625,0
14700,1.5625,-0.25,1,0
14720,2.125,-0.4375,-0.375,0
14740,3,-1,-1.6875,0
14760,3.75,-1.5625,-2.75,0
14780,4.125,-2.125,-3.375,0
14800,3.625,-2.125,-3.5625,0
14820,1.75,-1.8125,-3.3125,0
14840,-0.6875,-0.8125,-3.1875,0
14860,-2.5625,0.0625,-2.625,0
14880,-3.9375,0.4375,-1.125,0
14900,-5.1875,1.125,-0.0625,0
14920,-4.75,0.875,0.125,0
14940,-2.8125,0,0.375,0
14960,-0.6875,-0.5,0.6875,0
14980,0.8125,-0.875,0.3125,0
15000,2.25,-1.5,0.0625,0
15020,2.875,-1.625,0.25,0
15040,3.0625,-1.4375,0.5,0
15060,3.9375,-1.75,0.125,0
15080,5.125,-2.25,-0.375,0
15100,6.625,-2.5625,-0.4375,0
15120,7.625,-2.875,0.0625,0
15140,8.1875,-3.1875,0.375,0
15160,7.75,-2.9375,0.375,0
15180,7.0625,-2.6875,0.5,0
15200,6.1875,-2.25,0.875,0
15220,5.4375,-1.3125,1,0
15240,4.125,-1.125,1.5625,0
15260,3.8125,-1,2.3125,0
15280,4.75,-1.5,2.5,0
15300,6.75,-2.25,1.9375,0
15320,8.5,-2.9375,1.4375,0
15340,9.5,-3.375,1.5625,0
15360,10.125,-3.6875,1.8125,0
15380,10.375,-3.0625,1.5,0
15400,8.8125,-2.6875,1.6875,0
15420,7.75,-1.875,1.6875,0
15440,6.875,-2.3125,1.125,0
15460,7.1875,-3.1875,0.0625,0
15480,7.75,-4.0625,-1.125,0
15500,7.625,-4.9375,-1.6875,0
15520,7,-5.25,-1.625,0
15540,7,-4.75,-1.6875,0
15560,6.8125,-4.1875,-1,0
15580,6.375,-3.3125,0.25,0
15600,6.625,-3.8125,0.375,0
15620,6.1875,-2.9375,1.25,0
15640,6.6875,-3.5,1,0
15660,5.1875,-3.4375,2.8125,0
15680,5.5,-2.1875,2.25,0
15700,4.25,-2.0625,2.25,0
15720,3.875,-1.4375,1.9375,0
15740,3,-1.5,1.625,0
15760,2.1875,-2,0.75,0
15780,2.125,-0.875,0.1875,0
15800,1,-0.6875,0.0625,0
15820,0.0625,-0.0625,-0.0625,0
15840,-1.25,0.6875,0.125,0
15860,-2.25,1.3125,0.5625,0
15880,-3.5,2.0625,0.8125,0
15900,-4.5625,2.375,0.875,0
15920,-4.9375,2.5,0.75,0
15940,-4.4375,2.25,0.4375,0
15960,-3.4375,1.625,0,0
15980,-2,0.9375,-1,0
16000,-1.125,0.0625,-1.6875,0
16020,-0.75,-0.4375,-2.125,0
16040,-1.625,-0.3125,-2.1875,0
16050,-2.5625,-0.0625,-2,0
16070,-3.625,0.375,-1.8125,0
16090,-4.4375,1,-1.125,0
16110,-5.125,1.75,-0.125,0
16130,-5.9375,2.375,0.75,0
16150,-6.5,2.8125,1.375,0
16170,-6.25,2.8125,1.625,0
16190,-5.75,2.5625,1.625,0
16210,-4.8125,2.25,1.375,0
16230,-4,1.8125,0.8125,0
16250,-3.1875,1.3125,0.25,0
16270,-2.25,0.8125,-0.375,0
16290,-1.0625,0.375,-0.625,0
16310,0.0625,0,-0.875,0
16330,0.5,0.0625,-1.375,0
16350,0.375,-0.0625,-1.6875,0
16370,-0.125,0,-1.5,0
16390,-0.9375,0.5625,-0.6875,0
16410,-1.3125,0.9375,0.3125,0
16430,-1.125,0.875,0.875,0
16450,-0.875,0.875,0.9375,0
16470,-0.6875,0.625,0.875,0
16490,-0.625,0.3125,0.75,0
16510,-0.5625,0.1875,0.375,0
16530,-0.25,-0.1875,0.1875,0
16550,0.1875,-0.375,-0.25,0
16570,0.6875,-0.5625,-0.4375,0
16590,1.0625,-0.6875,-0.5,0
16610,1.375,-0.875,-0.6875,0
16630,1.3125,-1,-0.8125,0
16650,1.1875,-0.8125,-0.9375,0
16670,1.0625,-0.625,-0.8125,0
16690,0.8125,-0.625,-0.75,0
16710,0.6875,-0.5,-0.5625,0
16730,0.8125,-0.4375,-0.4375,0
16750,1,-0.5625,-0.375,0
16770,1.1875,-0.6875,-0.4375,0
16790,1.25,-0.625,-0.4375,0
16810,1.375,-0.6875,-0.5625,0
16830,1.5625,-0.75,-0.4375,0
16850,1.8125,-0.875,-0.375,0
16870,2,-0.875,-0.375,0
16890,1.625,-1.0625,0.0625,0
16910,1.4375,-0.8125,0.5625,0
16930,1.5,-0.625,0.5625,0
16950,1.8125,-0.8125,0.125,0
16970,1.4375,-0.6875,0,0
16990,1.1875,-0.5,0,0
17010,1.0625,-0.5,-0.125,0
17030,1,-0.5625,-0.3125,0
17050,0.875,-0.4375,-0.3125,0
17070,0.625,-0.375,-0.25,0
17090,0.5625,-0.375,-0.1875,0
17110,0.625,-0.375,-0.3125,0
17130,0.8125,-0.375,-0.0625,0
17150,1,-0.3125,0.125,0
17170,0.625,-0.25,0.3125,0
17190,0.3125,0,0.3125,0
17210,0,0.125,0.375,0
17230,0.125,0.1875,0.3125,0
17250,0,0.1875,0.375,0
17270,0.125,0.25,0.5,0
17290,0.5,0,0.25,0
17310,-0.0625,0.25,0.0625,0
17330,-1.4375,0.4375,0,0
17350,-2.25,0.25,-0.25,0
17370,-2.8125,0.5,-0.5625,0
17390,-3.125,0.75,-0.4375,0
17410,-3.5625,1.125,-0.125,0
17430,-3.875,1.25,-0.0625,0
17450,-4.4375,1.25,-0.375,0
17470,-4.9375,1.0625,-0.6875,0
17490,-5.9375,1.375,-1.125,0
17510,-7.25,2.0625,-1.25,0
17530,-7.6875,2.6875,-0.6875,0
17550,-8.5,3.75,0.1875,0
17570,-9.8125,4.875,1.0625,0
17590,-11.8125,6.0625,2,0
17610,-13.4375,6.75,2.625,0
17630,-17.625,4.25,2.875,0
17650,-18.25,1.3125,3.3125,0
17670,-15.0625,1.9375,-1.625,0
17690,-9.6875,1.75,-9.0625,0
17710,-2.6875,0.6875,-17.875,0
17730,3.375,-0.25,-20.8125,0
17750,3.875,1.5625,-20.625,0
17770,0.3125,2.1875,-18.375,0
17790,4.1875,-1.5625,-21.375,0
17810,5,-6.5,-31.5625,0
17830,-6.375,-11.1875,-37.25,0
17850,-24.6875,-15.9375,-41.3125,0
17870,-40.875,-24.625,-48,0
17890,-60.8125,-31,-55.25,0
17910,-76,-37.4375,-60.4375,0
17930,-53.1875,-48.9375,-66.5625,0
17950,-14.25,-60.5625,-75.875,0
17970,3.75,-68.6875,-78.125,0
17990,0.6875,-73.1875,-75,0
18010,-14.25,-76.1875,-75.625,0
18030,-33.25,-75,-75.75,0
18050,-50.625,-72.5,-71.5625,0
18070,-60.125,-70.25,-66.625,0
18090,-59.4375,-70.625,-61.3125,0
18110,-51.3125,-71.4375,-57.4375,0
18130,-41.875,-70.6875,-50.8125,0
18150,-34.75,-66.4375,-41.9375,0
18170,-30.875,-60.8125,-27.625,0
18190,-30.75,-55.8125,-20.6875,0
18210,-32.1875,-50.875,-22.8125,0
18230,-32.125,-46.5,-23,0
18250,-30.75,-41.125,-13.4375,0
18270,-32.6875,-34.1875,-4.875,0
18290,-27.8125,-25.875,-2.25,0
18310,-24.125,-21.1875,-1.3125,0
18330,-25.125,-18.125,2.8125,0
18350,-25.75,-13.9375,9.4375,0
18370,-28.4375,-7.375,13.4375,0
18390,-26.4375,-0.25,13.9375,0
18410,-24.5625,6.4375,13,0
18430,-21.125,11.5,13.3125,0
18450,-24.9375,14.75,13.5,0
18470,-19.125,14.375,13.125,0
18490,-11.625,11.3125,12.0625,0
18510,-5.8125,8.375,11.125,0
18530,1.1875,7.3125,10.9375,0
18550,3.375,7.9375,11.0625,0
18570,0.75,8.75,9.4375,0
18590,-3.125,8.375,6.9375,0
18610,-11.75,9.125,8.25,0
18630,-12.4375,8.5625,9.6875,0
18650,-11.75,7.4375,8.1875,0
18670,-8.75,5.375,5.5,0
18690,-4.75,3.25,3.0625,0
18710,0,1.125,2.125,0
18730,3.375,-1.375,0.0625,0
18750,3.25,-3.0625,-1.875,0
18770,0.625,-4.125,-2.9375,0
18790,-3.625,-5.75,-3.375,0
18810,-6.3125,-6.75,-3.375,0
18830,-5.375,-7.5,-2,0
18850,-3.9375,-8,0.125,0
18870,-0.75,-6.75,2.8125,0
18890,1.6875,-5.25,4.875,0
18910,-0.1875,-3.875,4.5,0
18930,-5,-3.1875,3.0625,0
18950,-7,-1.4375,2.5625,0
18970,-6.75,1.125,4.4375,0
18990,-0.8125,2.25,4.9375,0
19010,1.9375,3.4375,4.25,0
19030,1.4375,6.5,6,0
19050,-3.625,9.5625,10.8125,0
19070,-9.8125,13,16.625,0
19090,-14.3125,14.9375,20.4375,0
19110,-18.625,17.5625,18.8125,0
19130,-17.9375,19,15.9375,0
19150,-14.0625,18.1875,13.625,0
19170,-10.5625,14.8125,12.25,0
19190,-7.125,12.1875,11.5625,0
19210,-6.4375,10.0625,10.1875,0
19230,-7.125,7.5,7.3125,0
19250,-3.3125,5.0625,5.125,0
19270,-0.5,3.5625,5.4375,0
19290,1.6875,4.5,7.1875,0
19310,1.3125,6.625,7.5625,0
19330,0.0625,8.25,6.875,0
19350,-0.4375,9.125,6.0625,0
19370,0.375,10.25,5.9375,0
19390,-3.1875,10.125,5.8125,0
19410,-3.8125,8,5.1875,0
19430,4.5625,3.9375,2.4375,0
19450,10.0625,0.9375,0.5,0
19460,13.25,-4.9375,-3.8125,0
19480,12.1875,-9.375,-6.0625,0
19500,6.9375,-11.625,-6.625,0
19520,3.125,-13.5625,-7,0
19540,6.75,-15,-6.5,0
19560,5.875,-17,-5.6875,0
19580,2.1875,-18.1875,-6.3125,0
19600,-2.9375,-20.1875,-9.5,0
19620,-5.625,-23.0625,-8.9375,0
19640,-7.1875,-24.75,-6.125,0
19660,-5.5,-24.4375,-4.5,0
19680,-4.25,-23.8125,-3.0625,0
19700,-5.0625,-22.8125,-4.1875,0
19720,-3.8125,-21.625,-6.25,0
19740,2,-21,-8.625,0
19760,2.6875,-23.1875,-6.5,0
19780,5.5,-23,-2.6875,0
19800,14.125,-19,-2.75,0
19820,15.0625,-15.5625,-5.125,0
19840,16.375,-12.75,-6.875,0
19860,7.8125,-10.625,-6.4375,0
19880,5.125,-7.4375,-5.375,0
19900,5.0625,-3.6875,-7.625,0
19920,6.625,-1.5,-10.0625,0
19940,4.6875,-1.3125,-8.6875,0
19960,7.3125,-2.0625,-9,0
19980,16,-2.9375,-11.625,0
20000,15.3125,-3.0625,-10.0625,0
20020,17.4375,-1.75,-8,0
20040,13.8125,0.25,-8.125,0
20060,7.125,2.1875,-8.0625,0
20080,1.8125,4.875,-7,0
20100,-1.3125,7.125,-4.8125,0
20120,-3.4375,9.1875,-2.5,0
20140,-6.125,10.5,-2.8125,0
20160,-6.75,10.875,-3.875,0
20180,-4.75,7.5625,-5.9375,0
20200,-5.3125,4.5625,-6.125,0
20220,2.3125,0.625,-6.8125,0
20240,7.3125,-2,-9.4375,0
20260,9.75,-3.4375,-10.9375,0
20280,10.8125,-4.375,-11.875,0
20300,6.5625,-5.375,-10.875,0
20320,2.8125,-4.375,-10.75,0
20340,-3.1875,-2.375,-11.625,0
20360,-9.4375,0.5,-13.5625,0
20380,-15.5,2.375,-16.0625,0
20400,-16.375,2.4375,-18.375,0
20420,-19.75,1.0625,-16.6875,0
20440,-20.1875,0.875,-16.5625,0
20460,-17.1875,1.75,-21.125,0
20480,-15.8125,2.0625,-25.875,0
20500,-14.9375,0.5625,-27,0
20520,-12.25,-2.6875,-24.1875,0
20540,-13.375,-5.4375,-22.25,0
20560,-10.875,-5.5625,-26.625,0
20580,-11.4375,-5.4375,-28.3125,0
20600,-14.8125,-6.375,-24.1875,0
20620,-16.8125,-7.375,-22.375,0
20640,-16.8125,-8.1875,-22.5,0
20660,-14.3125,-8.9375,-20,0
20680,-11.625,-9.4375,-16.4375,0
20700,-6.8125,-11.25,-13.5625,0
20720,-4.9375,-12.1875,-11.3125,0
20740,-0.3125,-11.5,-10.5,0
20760,3.125,-11.3125,-8.3125,0
20780,0.6875,-10.5625,-4.5,0
20800,-1.1875,-8.8125,-2.3125,0
20820,-2.3125,-6.3125,-1.3125,0
20840,-4.25,-4,0.125,0
20860,-3.125,-1.9375,0.375,0
20880,-3.125,-0.8125,1.875,0
20900,-1.875,-0.8125,2.3125,0
20920,0.5,-0.375,2.875,0
20940,1.875,0.0625,3.4375,0
20960,2.75,0.75,2.9375,0
20980,3.75,0.1875,2.3125,0
21000,4.0625,-0.75,2.4375,0
21020,7.375,-0.75,2.1875,0
21040,5.125,0.5625,1.9375,0
21060,1.75,1.5625,2.5625,0
21080,0.375,2.125,4.4375,0
21100,1.5625,2.3125,6.1875,0
21120,1.125,3.625,7,0
21140,3,4.875,7.25,0
21160,3.25,5.5,8.125,0
21180,3.125,6,8.1875,0
21200,4.9375,5.625,7.5,0
21220,6.6875,5.375,8.5625,0
21240,7.9375,5.75,11,0
21260,9.625,6.375,11.75,0
21280,8.4375,7.125,13.125,0
21300,11.25,8.1875,15.1875,0
21320,11.3125,8.8125,16.5625,0
21340,9.9375,10.25,18.0625,0
21360,9.9375,11.6875,19.5,0
21380,11.3125,12.3125,24.75,0
21400,9.9375,14.6875,32.1875,0
21420,5.8125,18.375,35.3125,0
21440,3.25,22.5625,31.125,0
21450,-1.5,24.75,28.25,0
21470,-3.875,24.3125,28.9375,0
21490,1.75,23,26.9375,0
21510,5.9375,22.4375,24.5625,0
21530,12,21.5625,21.8125,0
21550,13.9375,20.375,19.375,0
21570,11,21.25,17.8125,0
21590,4.625,22.25,17.875,0
21610,3.25,21.6875,17.4375,0
21630,4.4375,22.3125,15.0625,0
21650,4.8125,23.0625,13.25,0
21670,5.0625,22.3125,12.3125,0
21690,4.5625,22.125,10.875,0
21710,3.9375,23.5625,9.8125,0
21730,4.5625,23.375,9.5625,0
21750,5.375,23.3125,10.5,0
21770,5.125,23.0625,10.9375,0
21790,0,23.5,9.125,0
21810,-2.8125,21.6875,7.25,0
21830,-0.75,19.5,5.625,0
21850,2.375,16.5,4.625,0
21870,5.0625,13,4.125,0
21890,5.25,10.75,1.3125,0
21910,0.8125,8.875,-2.1875,0
21930,-0.5,6,-4.5625,0
21950,-3.25,1.625,-7.625,0
21970,1.75,-2.5,-13.9375,0
21990,6.0625,-6.0625,-19.625,0
22010,3.375,-6.875,-20.125,0
22030,-3.4375,-4.8125,-23.375,0
22050,-5.8125,-4.75,-29.125,0
22070,-3.9375,-5.75,-29.6875,0
22090,-7.25,-5.375,-24.5,0
22110,-6.75,-5.5,-22.75,0
22130,-6.6875,-5.125,-23.125,0
22150,-6.125,-4.125,-22.1875,0
22170,-9.75,-1.875,-20.375,0
22190,-12,-1.125,-20.4375,0
22210,-9.1875,-2.0625,-19.8125,0
22230,-9.6875,-2.9375,-15.375,0
22250,-6.4375,-3.125,-12.875,0
22270,-2.125,-2.3125,-12,0
22290,0.375,-1.8125,-8.3125,0
22310,-0.3125,-2.4375,-4.25,0
22330,-3.75,0,-4.125,0
22350,-6,2.0625,-5,0
22370,-5.4375,2.8125,-4.125,0
22390,-4.1875,2.875,-1.5,0
22410,-0.125,1.9375,0.375,0
22430,5.4375,0.4375,2.25,0
22450,7.375,1.6875,3.5625,0
22470,8.3125,1.9375,4.125,0
22490,6.9375,2.625,5.5,0
22510,6.25,3.5,6.9375,0
22530,4.5,4,7.25,0
22550,5,4.0625,8.0625,0
22570,4.9375,4.375,9.8125,0
22590,4.8125,4.75,10.3125,0
22610,3.6875,4.875,10.4375,0
22630,4.625,5.625,11.3125,0
22650,4.5625,6.875,12.5625,0
22670,2.3125,7.9375,13.375,0
22690,2.5625,7.8125,13.375,0
22710,0.625,8,14.9375,0
22730,0.625,8.875,14.875,0
22750,-1.625,9.625,14.5,0
22770,-2.5625,9.1875,15.1875,0
22790,-3.75,7.0625,15.25,0
22810,-3.6875,5.3125,15.1875,0
22830,-3,3.5,15.0625,0
22850,-3.0625,2.25,15.0625,0
22870,-4.5,1.625,15.375,0
22890,-5.625,0.4375,16.0625,0
22910,-7.0625,-1.5625,17.75,0
22930,-7.875,-2.5,19.4375,0
22950,-6.875,-2.25,18.75,0
22970,-7.4375,-2.625,17.6875,0
22990,-7.9375,-2.8125,18,0
23010,-8.5625,-4.125,18.25,0
23030,-5.4375,-4.8125,18.75,0
23050,-1.875,-5.75,18.125,0
23070,0.75,-6.8125,15.6875,0
23090,0.875,-7.8125,14.5,0
23110,-0.375,-7.5,15.25,0
23130,-1.5625,-7.625,14.5625,0
23150,-0.375,-8.125,12.0625,0
23170,0.4375,-8.1875,10.1875,0
23190,0.75,-8.5625,9.4375,0
23210,0.1875,-10.125,9.25,0
23230,1.1875,-10.875,8.25,0
23250,1.6875,-11.125,7.625,0
23270,1.375,-11.5,6.5625,0
23290,1.3125,-11.8125,4.5,0
23310,1.25,-12.125,1.5,0
23330,1.75,-12.6875,0.3125,0
23350,1.5,-13.9375,0.0625,0
23370,3.25,-15,-1.4375,1000
23390,6.625,-15.5625,-2.9375,0
23410,7.375,-16.3125,-3.6875,0
23430,8.4375,-16.25,-5.4375,0
23450,6.1875,-16.3125,-5.9375,0
23470,1.875,-16.4375,-5,0
23490,0.75,-15.125,-5.5625,0
23510,2.4375,-12.6875,-7.1875,0
23530,2.5625,-10.4375,-6.5,0
23550,1.4375,-9,-4.0625,0
23570,0.1875,-6.875,-2.0625,0
23590,-0.0625,-3.8125,-2.25,0
23610,0.125,-0.875,-1.375,0
23630,-0.875,2.0625,2.0625,0
23650,0.625,4.875,3.5625,0
23670,-0.875,6.3125,3.5625,0
23690,-2,7.4375,4.75,0
23710,-2.875,8.5625,6.0625,0
23730,-2.8125,8.5625,5.9375,0
23750,1.375,8.5625,5.5,0
23770,2.75,8.3125,6.75,0
23790,2.0625,8.5,6.875,0
23810,1.9375,8.5,6.5,0
23830,0.1875,7.75,6,0
23850,0.25,7.1875,5.1875,0
23870,-0.125,5.9375,3.0625,0
23890,2.1875,4,1.5,0
23910,3.5,1.4375,0.5625,0
23930,2.5625,-0.5625,0.1875,0
23950,1.6875,-1,-0.3125,0
23970,-0.125,-1,-1.4375,0
23990,-1.5,-1.25,-3.375,0
24010,-0.1875,-1.1875,-3.6875,0
24030,1,-1.75,-2.4375,0
24050,1.625,-1.75,-2.5,0
24070,3.25,-1.4375,-2.5,0
24090,4.4375,-1.1875,-1.5,0
24110,5.6875,-1.5,-1.5625,0
24130,7.1875,-0.625,-1.5,0
24150,5.875,-0.0625,-0.75,0
24170,3.25,-0.5625,-0.125,0
24190,1.1875,-1.125,1.1875,0
24210,-1.625,-1.3125,0.9375,0
24230,-0.8125,-1.625,-0.625,0
24250,0.75,-2.6875,-2,0
24270,2.375,-3.0625,-2.0625,0
24290,0.9375,-4.125,-1.6875,0
24310,-0.875,-5.0625,-1,0
24330,-3.4375,-3.5625,-0.625,0
24350,-5.5,-0.9375,-0.25,0
24370,-4.3125,-0.5,-2.625,0
24390,-1.8125,-1.9375,-3.4375,0
24410,0.1875,-2.5,-1.5625,0
24430,1.625,-1.25,-0.375,0
24450,1.75,-1.3125,-1.5,0
24470,2.625,-2.625,-1.5625,0
24490,0.1875,-1.5,-0.125,0
24510,-1.875,1.125,-1,0
24530,-5.75,3.0625,-2.25,0
24550,-13.0625,3.125,-0.0625,0
24570,-16.0625,-1.125,3.0625,0
24590,-33.4375,1.125,2.625,0
24610,-56.875,3,-2.125,0
24630,-78.125,1.5,-6.625,0
24650,-90.125,1.6875,0.375,0
24670,-97.125,1.75,5,0
24690,-107.312,4.1875,5.0625,0
24710,-99.875,5.4375,6,0
24730,-89.125,8.75,8.0625,0
24750,-80.4375,12.6875,11.25,0
24770,-64.4375,14.625,10.4375,0
24790,-48.6875,15.5625,10.4375,0
24810,-41,18.375,10.125,0
24830,-36.0625,17.8125,9.0625,0
24850,-36.0625,18.625,8.75,0
24870,-30.6875,20.5625,7.3125,0
24880,-29.5,19.125,4.4375,0
24900,-19.5625,15.5625,3.3125,0
24920,-10.6875,14.1875,4.25,0
24940,1.5625,15.5,3.125,0
24960,3.4375,16.4375,-0.0625,0
24980,4.5,19.1875,-4.4375,0
25000,11.6875,23.625,-3.9375,0
25020,21.4375,24.125,0.3125,0
25040,34.5,17.125,-3,0
25060,45.75,7.3125,-7.375,0
25080,46.8125,-1.5,-9.6875,0
25100,44.9375,-9.75,-9.9375,0
25120,43.75,-11.5625,-13.25,0
25140,49.3125,-10.0625,-16.0625,0
25160,58.625,-8.3125,-22.8125,0
25180,67.3125,-7.875,-23.875,0
25200,65.6875,-9.5625,-21.125,0
25220,63.9375,-11.8125,-18.9375,0
25240,62.6875,-13.375,-22.75,0
25260,61.125,-15,-29.9375,0
25280,64.6875,-16.5,-35.1875,0
25300,75.875,-20.5,-38.5,0
25320,91.875,-21.4375,-46.3125,0
25340,100.812,-18.1875,-53.0625,0
25360,110.188,-12,-59.125,0
25380,122.25,-8.3125,-62.5,0
25400,131.75,-7.625,-52.4375,0
25420,134.938,-3,-42.125,0
25440,132.688,8.9375,-46.4375,0
25460,130.688,24.875,-62.9375,0
25480,128.5,10.5,-68.9375,0
25500,105.938,-12.8125,-58.5625,0
25520,91.9375,-23.3125,-46.75,0
25540,75.5,-20.5,-48.0625,0
25560,66.25,-21.9375,-42.125,0
25580,77.8125,-35.5,-25.3125,0
25600,76.625,-32.9375,-19.5625,0
25620,72.9375,-19.4375,-20.5,0
25640,74.625,-18.25,-20.0625,0
25660,77.8125,-25.3125,-16.875,0
25680,66.625,-24.3125,-11.5625,0
25700,52.5625,-21.125,-12.5,0
25720,42.25,-19.0625,-12,0
25740,37.8125,-18.625,-9.125,0
25760,21.9375,-16.8125,-12,0
25780,19.5,-18.9375,-12.75,0
25800,27.5625,-19.625,-7.5,0
25820,23.625,-14.25,-10.25,0
25840,18.3125,-11.875,-7.6875,0
25860,12,-13.0625,-1.125,0
25880,9.625,-12.375,-1.5,0
25900,14,-12.5,-3,0
25920,17.875,-11.75,-1.875,0
25940,12.1875,-8.1875,-1.75,0
25960,3.125,-6,-3.625,0
25980,0.125,-7.4375,-5.1875,0
26000,-2.1875,-6.4375,-4.8125,0
26020,-8,-3.3125,-2.1875,0
26040,-17.125,-4.875,-2.3125,0
26060,-23.4375,-10,-4.5625,0
26080,-22.875,-13.875,-4.1875,0
26100,-19.25,-13.4375,-1.625,0
26120,-23.3125,-11.125,-2.875,0
26140,-23.25,-10.125,-5.3125,0
26160,-25.9375,-6.5,-7.8125,0
26180,-27.5625,-3.0625,-6.6875,0
26200,-29.125,-5.4375,-4.375,0
26220,-34.625,-7.75,-2.4375,0
26240,-39.8125,-5.375,1.9375,0
26260,-45.25,-1.4375,5.5625,0
26280,-47.0625,-2,9.5625,0
26300,-39.6875,-2.9375,16.75,0
26320,-41.0625,-1.625,16.8125,0
26340,-32.4375,-2.25,11.5625,0
26360,-30.9375,-1.6875,8.3125,0
26380,-33.5,1.625,9.8125,0
26400,-28,4.0625,8.3125,0
26420,-14.5,2.0625,4.3125,0
26440,-8.125,0.25,1,0
26460,4.625,1.0625,-1.125,0
26480,8.4375,2.125,-5.375,0
26500,6.75,0,-7.25,0
26520,6.0625,-0.9375,-5.9375,0
26540,13.9375,-1.8125,-6,0
26560,18.1875,-0.9375,-6.6875,0
26580,24.4375,-1.5625,-3.625,0
26600,27.875,-1.4375,1.0625,0
26620,29.125,0.8125,4.875,0
26640,36,4.25,5.5,0
26660,46,4.25,2.9375,0
26670,56.3125,3.6875,4.6875,0
26700,56.5,3.125,5.25,0
26720,55.5625,2.4375,2.0625,0
26740,52.125,2.5625,0.375,0
26760,49,0.9375,0.4375,0
26780,37,-0.0625,-0.8125,0
26800,26.3125,-5.1875,0.125,0
26820,19.9375,-11.75,-1,0
26830,17.1875,-14,-2.1875,0
26850,21.9375,-13.5625,-0.3125,0
26870,33.9375,-19.3125,3.625,0
26890,35.5625,-21.625,0.5625,0
26910,26.5,-21.5,-0.5,0
26930,19.125,-23.1875,-1.9375,0
26950,14.75,-21.8125,-3.25,0
26970,18.625,-16.3125,0.875,0
26990,19.5,-13.8125,4.125,0
27010,14.4375,-9.6875,4.5625,0
27030,8.1875,-5.625,6,0
27050,1.1875,-2.4375,7.6875,0
27070,-4.1875,0.5,7.375,0
27090,-7.75,5.1875,7.1875,0
27110,-9.9375,8.8125,6.875,0
27130,-12,11.4375,5.5625,0
27150,-14.125,13.5625,5.25,0
27170,-16.3125,13.4375,6,0
27190,-19.9375,14.8125,6.125,0
27210,-22.375,17.875,6.0625,0
27230,-31.0625,22,5.3125,0
27250,-41.5625,25.4375,6.6875,0
27270,-48.625,26.4375,9.1875,0
27290,-52.875,25.4375,11.0625,0
27310,-52.6875,23.5625,12.0625,0
27330,-47.9375,24.3125,13.5,0
27350,-44.9375,25.75,16.875,0
27370,-46.125,25.75,20,0
27390,-47.1875,23.5625,20,0
27410,-48.75,19.375,22.4375,0
27430,-46.8125,16.375,25.4375,0
27450,-50,17.5,30.6875,0
27470,-62.3125,19.25,33.9375,0
27490,-68.5,21.375,35.0625,0
27510,-77.4375,24.5,42.0625,0
27530,-83.8125,26.9375,49.1875,0
27550,-92.375,29.875,52.125,0
27570,-90.3125,28.375,51.5,0
27590,-84.75,25.5,46.75,0
27610,-74.375,20.875,40.8125,0
27630,-65,15.875,37.75,0
27650,-50.9375,10.625,34.8125,0
27670,-38.3125,4.25,30.875,0
27690,-30.0625,-0.5,26.8125,0
27710,-29.3125,0.4375,25.5,0
27730,-32,3.875,21.4375,0
27750,-31.8125,4.8125,16.625,0
27770,-25.75,4.5,14.9375,0
27790,-22.25,4.875,14.375,0
27810,-11.5,4.1875,10.8125,0
27830,-7.1875,3.1875,8.3125,0
27850,-2.0625,2.25,6.3125,0
27870,1.3125,1.25,5.4375,0
27890,2.875,0.375,4.625,0
27910,3.875,-0.375,3.875,0
27930,1.625,-1.4375,4.3125,0
27950,0.75,-2.375,4.5,0
27970,-0.9375,-3.5625,4.5,0
27990,-3.4375,-5.875,2.375,0
28010,-4.6875,-9.375,-0.9375,0
28030,0,-14.375,-0.5625,0
28050,0.5625,-18,0.4375,0
28070,5.1875,-21,-0.5,0
28090,4.9375,-22.375,-0.0625,0
28110,3.1875,-23.6875,0.3125,0
28130,-1.4375,-25.0625,2.1875,0
28150,-2,-26.5625,4.875,0
28170,-3.0625,-28.6875,4.8125,0
28190,-0.4375,-31.0625,2.6875,0
28210,0.375,-34.375,2.1875,0
28230,2.0625,-36.8125,0.5625,0
28250,5.9375,-38.375,-2.375,0
28270,4.875,-37.875,-5.9375,0
28290,2.875,-38.25,-8.3125,0
28310,0,-37.625,-9.625,0
28330,-1.6875,-36.625,-8.1875,0
28350,-1,-34.375,-8.375,0
28370,0.6875,-32.3125,-14,0
28390,4.5625,-29.375,-18.25,0
28410,5.8125,-26.625,-18.9375,0
28430,9.9375,-25.3125,-19.875,0
28450,10,-23.375,-23.5,0
28470,5.9375,-16.625,-25.875,0
28490,7.9375,-13.25,-29.9375,0
28510,7.4375,-13.875,-30.8125,0
28530,2.125,-11.75,-28.375,0
28550,2.0625,-7.875,-31.4375,0
28570,5.6875,-6.8125,-40,0
28590,8.1875,-6.1875,-44,0
28610,5.875,-4.5625,-41.25,0
28630,2.125,-1.125,-40.6875,0
28650,0.8125,-0.625,-45.75,0
28670,1.0625,1,-47.1875,0
28690,1.0625,5.8125,-45.25,0
28710,-1.9375,10.75,-43.75,0
28730,-4.75,13.8125,-45.5625,0
28750,-4.75,15.875,-49.9375,0
28770,-3.9375,18.5625,-51.25,0
28790,-6.9375,21.25,-49.6875,0
28810,-11.1875,23.4375,-48.375,0
28830,-11.5,26.6875,-49.125,0
28850,-12.4375,30.1875,-51.125,0
28870,-14.375,34.375,-50.875,0
28890,-15,36.25,-49.6875,0
28910,-13.875,37.5625,-47.5,0
28930,-10.0625,38.1875,-48.375,0
28950,-7.875,39.0625,-49.0625,0
28970,-10.75,41.1875,-47.75,0
28990,-9.3125,41.75,-49,0
29010,-12.5,41.1875,-49.125,0
29030,-11.4375,40.9375,-49,0
29050,-9.5,41.75,-49,0
29070,-12.3125,43.9375,-48,0
29090,-13.0625,46.75,-43.8125,0
29110,-15,47.6875,-38.6875,0
29130,-15.375,47.6875,-33.5,0
29150,-16,48.0625,-27.625,0
29170,-11,45.4375,-22.3125,0
29190,-7,41,-16.8125,0
29210,-6.0625,37.125,-14.1875,0
29230,-3.75,36.0625,-9.125,0
29250,-0.625,35,-2,0
29270,-6.625,35.375,7.875,0
29290,-20.8125,36.125,14.5625,0
29310,-19.1875,32.75,16.125,0
29330,-10.3125,32.3125,18.625,0
29350,-16.8125,37.5,25.875,0
29370,-25.75,36.9375,30,0
29390,-19.875,31.875,30.25,0
29410,-12.625,29,28.9375,0
29430,-16.6875,28.125,27.4375,0
29450,-22.375,26.3125,30.3125,0
29470,-22.625,25.625,33.75,0
29490,-21.9375,25.4375,28.5625,0
29510,-23.75,25.6875,28.6875,0
29530,-20.1875,24.125,33.375,0
29550,-16.8125,19.9375,34.875,0
29570,-15.125,16.375,36.5625,0
29590,-7.8125,12.4375,35.875,0
29610,-9.875,8.3125,35.75,0
29630,-15,2.5625,35.4375,0
29650,-19.75,-2.5625,32,0
29670,-11.3125,-6.9375,29.5625,0
29690,-5,-12.125,29.3125,0
29710,-4.125,-15.5,29,0
29730,-4.4375,-16.6875,28.9375,0
29750,-8,-18.875,30.1875,0
29770,-6.125,-20,30.8125,0
29790,-5.9375,-21.75,31.6875,0
29810,-9.5625,-23.5,32.6875,0
29830,-9.8125,-25.0625,33.6875,0
29850,-7.625,-26.8125,35.0625,0
29870,-7.5625,-28.25,34.625,0
29890,-9.6875,-29.5625,34.8125,0
29910,-13.25,-31.5625,35.8125,0
29930,-14.875,-32.6875,34.6875,0
29950,-15.8125,-33.6875,34.625,0
29970,-16.9375,-34.375,35.75,0
29990,-16.1875,-35.25,35.5,0
30010,-17.5,-36.125,34.75,0
30030,-19,-35.875,34.5625,0
30050,-18.625,-36.4375,33.5,0
30070,-19.375,-36.375,31.3125,0
30090,-17.9375,-35.8125,28.875,0
30110,-18.3125,-36.9375,27,0
30130,-16.0625,-38.125,25.375,0
30150,-14.5625,-38.0625,22.625,0
30170,-15.375,-38.6875,22.0625,0
30190,-17.6875,-38.625,25,0
30210,-21.0625,-35.875,26.9375,0
30230,-22.625,-34.125,27.875,0
30250,-20.25,-33.0625,25,0
30270,-18.25,-35.125,21.5625,0
30280,-12.4375,-38.125,16.8125,0
30300,-6.25,-40.9375,11.3125,0
30320,-0.1875,-43,7.1875,0
30340,1.3125,-44.9375,4.1875,0
30360,1.875,-45.875,2.3125,0
30380,-3.5,-46.625,2.5,0
30400,-7.125,-46.3125,2.125,0
30420,-7.875,-46.3125,-0.5625,0
30440,-5.5,-47.4375,-3.3125,0
30460,-3,-47.8125,-4.375,0
30480,0.25,-46.75,-4.1875,0
30500,0.5625,-44.6875,-4.4375,0
30520,-6.8125,-41.8125,-4.5,0
30540,-17.4375,-39.5625,-5.1875,0
30560,-6.875,-37.375,-10,0
30580,0.5625,-37.25,-15.125,0
30600,-1.6875,-35.8125,-18.6875,0
30620,-2.8125,-34.125,-22.25,0
30640,4.4375,-32.4375,-27.6875,0
30660,9.875,-29.6875,-32.75,0
30680,9.5625,-25.875,-36.0625,0
30700,2.9375,-22.375,-37.5,0
30720,3,-18.75,-41.625,0
30740,0.875,-18.25,-46.25,0
30760,1.3125,-17.3125,-49.125,0
30780,2.1875,-14.0625,-49.25,0
30800,-4.375,-9.9375,-44.8125,0
30820,-15.625,-0.875,-39.5625,0
30840,-21.0625,8.0625,-34.125,0
30860,-21.1875,10.75,-32.875,0
30880,-24.0625,13.875,-34.1875,0
30900,-24.875,15.0625,-34.875,0
30920,-24.6875,15.8125,-34.8125,0
30940,-17.25,17.0625,-36.3125,0
30960,-11.6875,18.9375,-38.0625,0
30980,-6.5625,18.9375,-41.8125,0
31000,-2,19.3125,-41.8125,0
31020,-6.6875,20.25,-41.625,0
31040,-8.0625,23.625,-44.5625,0
31060,-10.375,27.625,-44.25,0
31080,-13.75,33.4375,-38.875,0
31100,-12.3125,37.8125,-36.5625,0
31120,-12.625,41.375,-38.125,0
31140,-12.9375,47,-38.6875,0
31160,-16,51.5,-35.5625,0
31180,-14.8125,54.4375,-32.3125,0
31200,-12.375,57.4375,-30.625,0
31220,-7.625,57.375,-29.75,0
31240,-6.1875,54.75,-28.5625,0
31260,-8.75,53,-27.8125,0
31280,-14.1875,52.0625,-27.3125,0
31300,-17.125,49.5,-26.75,0
31320,-20.3125,45.875,-25.6875,0
31340,-17.875,40.6875,-24.875,0
31360,-9.0625,37.5,-24.625,0
31380,-0.9375,36.5625,-22.9375,0
31400,1.75,35.625,-20.25,0
31420,-1.8125,34.5,-17.0625,0
31440,-7.75,32.75,-14,0
31460,-7.25,32.5,-10.0625,0
31480,-6.875,34.3125,-4.5625,0
31500,-5.625,37.375,1.5625,0
31520,-11.1875,40,6.9375,0
31540,-8.625,37.375,8.625,0
31560,-3.75,37.4375,12.3125,0
31580,-6.5,39.125,15.4375,0
31600,-13,39.0625,17,0
31620,-19.4375,37.9375,15,0
31640,-23.1875,38.1875,13.3125,0
31660,-21.4375,40.4375,17.5625,0
31680,-23.625,39.125,24.25,0
31700,-18.625,35.125,29.75,0
31720,-15.875,32.25,32,0
31740,-19.1875,31.9375,31.4375,0
31760,-24.75,30.25,33.375,0
31780,-27.75,25.5625,35.4375,0
31800,-29.8125,20.5,34.75,0
31820,-29.875,16.875,34.375,0
31840,-24.3125,15.375,31.8125,0
31860,-20.375,11.6875,29.4375,0
31880,-22.8125,7.125,28.875,0
31900,-24.3125,3.5,27.625,0
31920,-17.5,0.75,24.8125,0
31940,-12.375,-1.5625,24.5,0
31960,-11.5625,-2.6875,27,0
31980,-10.25,-4,27.5625,0
32000,-10.625,-5.25,24.0625,0
32020,-12.25,-7.4375,23.375,0
32040,-11.6875,-9.8125,24.4375,0
32060,-8.5,-11.4375,23.75,0
32080,-5.6875,-13.8125,21.5625,0
32100,-2.875,-15.0625,20.9375,0
32120,-6.125,-16.6875,20.75,0
32140,-7.5625,-18,19.5,0
32160,-9.5625,-19.625,20.3125,0
32180,-11.75,-21.75,21.375,0
32200,-12.8125,-22.625,22.125,0
32220,-13.25,-22.6875,20.75,0
32240,-13.375,-23.0625,20.3125,0
32260,-14.5,-24.4375,19.5625,0
32270,-12.125,-25.75,17.5625,0
32290,-9.3125,-27,16.625,0
32310,-5.875,-28.1875,16.3125,0
32330,-6.9375,-29.6875,15.875,0
32350,-8,-31.125,14.625,0
32370,-9.625,-32.0625,12.6875,0
32390,-10.0625,-33.4375,11.625,0
32410,-8.8125,-34.3125,11.1875,0
32430,-7.125,-35.875,10,0
32450,-7.1875,-36.375,8.25,0
32470,-9.1875,-37.0625,8.5,0
32490,-9.75,-37.8125,8.875,0
32510,-9.25,-38.25,6.8125,0
32530,-8.4375,-39.375,5.75,0
32550,-10,-41.5,5.9375,0
32570,-9.375,-43.4375,5.0625,0
32590,-10.125,-45.4375,4.375,0
32610,-10.75,-46.6875,2.1875,0
32630,-9.5625,-47.875,-0.1875,0
32650,-10.125,-49.4375,-1.6875,0
32670,-10.75,-50.8125,-3.1875,0
32690,-8.25,-52.3125,-4.8125,0
32710,-3.8125,-54.4375,-6.75,0
32730,-2.625,-56.125,-8.8125,0
32750,6.1875,-56.4375,-14.3125,0
32770,15.375,-55.4375,-19.6875,0
32790,17.9375,-56.0625,-21.625,0
32810,14.125,-57.1875,-23.3125,0
32830,14.875,-57.3125,-25.9375,0
32850,18.375,-56.5,-27.6875,0
32870,19.4375,-56.0625,-27.1875,0
32890,20.875,-53.5,-28.5,0
32910,20.0625,-49.375,-28.25,0
32930,13.5625,-45,-25,0
32950,7.75,-39.1875,-25.5625,0
32970,9.3125,-34.375,-28.3125,0
32990,9.8125,-31.6875,-27.1875,0
33010,6.75,-27.4375,-22.75,0
33030,13.1875,-21.5625,-23.9375,0
33050,13.5,-17.375,-26.75,0
33070,14.3125,-12.9375,-27.75,0
33090,10.3125,-10.4375,-27.4375,0
33110,5.5,-9.125,-29,0
33130,3.9375,-6.4375,-31.5625,0
33150,3.5,-3.625,-32.6875,0
33170,7.1875,-1,-33.8125,0
33190,2.75,1.25,-32.875,0
33210,-2.25,4.75,-32.9375,0
33230,-4,8.625,-35,0
33250,-4.5625,11.375,-36.5625,0
33270,-2.4375,13.125,-35.9375,0
33290,-4.75,15.5625,-33.75,0
33310,-0.25,17.3125,-35.3125,0
33330,-3.25,18.6875,-34.5625,0
33350,-5.625,20.4375,-33.625,0
33370,-5.625,22.1875,-32.75,0
33390,-6.125,22.125,-33.1875,0
33410,-4.6875,22,-35.25,0
33430,-5.125,22.4375,-36.75,0
33450,-5.875,23.625,-36.75,0
33470,-7.125,25.75,-36.8125,0
33490,-5.0625,27.0625,-36.8125,0
33510,-5.625,29.1875,-36.1875,0
33530,-7.6875,32.75,-34.6875,0
33550,-9.75,36.8125,-33,0
33570,-11.0625,38.5,-32.9375,0
33590,-10,39.125,-33.8125,0
33610,-8.3125,40.75,-35.6875,0
33630,-8.5625,42.875,-36.6875,0
33650,-8,44.5,-34.4375,0
33670,-8.5,46.0625,-30.25,0
33690,-6.25,45.6875,-27.625,0
33710,-6.3125,45.375,-25.6875,0
33730,-0.75,44.625,-22.1875,0
33750,2.875,45.9375,-16.5,0
33770,6,44.375,-13.125,0
33790,8.1875,44.625,-10.125,0
33810,11.0625,45.0625,-3.9375,0
33830,-0.25,48.5,5.0625,0
33850,-10.3125,52,12.8125,0
33870,-19.75,50.5625,17.875,0
33890,-26.8125,48.125,20.25,0
33910,-29.375,48.9375,22.6875,0
33930,-30.5625,50.4375,28.8125,0
33950,-36.75,47.1875,31.375,0
33970,-27.75,42.1875,30.6875,0
33990,-23.75,41.375,31.0625,0
34010,-18.0625,42.25,31.875,0
34030,-24.5,42.375,33.25,0
34050,-30.75,39,31.4375,0
34070,-32.8125,33.8125,29.875,0
34090,-28.8125,31.25,31.8125,0
34110,-27.9375,32.0625,36.1875,0
34130,-30.0625,30.875,35.375,0
34150,-28.8125,25.25,32.6875,0
34170,-27.9375,19.75,30.875,0
34190,-27.3125,15.5,30.125,0
34210,-25.4375,13.625,28.3125,0
34230,-24.8125,11.375,25.125,0
34250,-27.1875,9.3125,25.0625,0
34270,-32.875,5.6875,30.1875,0
34290,-26,4.875,32.1875,0
34310,-18.5625,4.5625,29.75,0
34330,-16,3.1875,27.875,0
34350,-16.375,2.1875,29,0
34370,-18.5,0.5,27.625,0
34390,-19.9375,-1,24.25,0
34410,-19.4375,-4.625,23.8125,0
34430,-17.5625,-8.875,25.125,0
34450,-13.875,-10.8125,26.25,0
34470,-14.6875,-13.1875,26.5,0
34490,-13.5625,-15.4375,21.1875,0
34510,-9.875,-21.25,16.75,0
34530,-3.125,-27,17.1875,0
34550,4.125,-30.1875,16.75,0
34570,6.1875,-32.3125,13.875,0
34590,1.6875,-33.125,11.25,0
34610,-8.25,-34.1875,11.625,0
34620,-15.4375,-34.8125,13.375,0
34620,-17.6875,-34.1875,14.5,0
34620,-18.5625,-34.3125,9.375,0
34640,-16.0625,-35.1875,8.3125,0
34660,-11.8125,-35.625,5.3125,0
34680,-9.625,-36.6875,2.3125,0
34700,-7.8125,-38.8125,-0.25,0
34720,-4.5625,-41.5,-4.75,0
34740,3.875,-43.75,-10.75,0
34760,14.75,-47.25,-15.125,0
34780,18.4375,-51.75,-15.875,0
34800,21.5,-55.125,-17.6875,0
34820,21.25,-56.625,-20.5,0
34840,18.875,-56.875,-22,0
34860,15.5625,-56.6875,-24.4375,0
34880,8.875,-56,-27.1875,0
34900,4.4375,-54.5,-28.375,0
34920,1.3125,-53.6875,-27.5,0
34940,3.875,-52.9375,-27.1875,0
34960,9.3125,-51.1875,-24.75,0
34980,12.875,-47.4375,-19.5,0
35000,5,-43.9375,-14.0625,0
35020,-4.6875,-40.1875,-10,0
35040,-11.9375,-36.25,-7.75,0
35060,-11.25,-34.1875,-10.625,0
35080,-4.9375,-33.375,-17.3125,0
35100,3.75,-32.75,-20.5625,0
35120,1,-32.5,-17.625,0
35140,3.1875,-30.125,-17.9375,0
35160,5.1875,-27.25,-22.25,0
35180,4.375,-26.25,-21.875,0
35200,-1,-24.5625,-18.875,0
35220,-4.0625,-22.25,-19.5625,0
35240,-3.25,-19.4375,-22.1875,0
35260,2.0625,-19.875,-23,0
35280,4.4375,-21.0625,-22.5625,0
35300,5.4375,-17.9375,-24.125,0
35320,3.0625,-14.375,-24.625,0
35340,-4.6875,-12.625,-22.875,0
35360,-9.6875,-11.9375,-22.4375,0
35380,-10.125,-11.25,-22.1875,0
35400,-9.3125,-9.375,-20.5,0
35420,-7.5625,-7,-17.5625,0
35440,-7.8125,-5.0625,-13.4375,0
35460,-7,-5,-9.6875,0
35480,-3.125,-4.9375,-9.6875,0
35500,-2.0625,-2.75,-9.5,0
35520,-7.25,-1.875,-5.25,1001
35540,-11.3125,-2.5625,-2,0
35560,-7.375,-2.4375,-1.0625,0
35580,-7.6875,-3.875,-0.5625,0
35590,-6.75,-4.1875,-0.8125,0
35610,-4.75,-3.3125,0.5,0
35630,-5.8125,-4.8125,4.0625,0
35650,-2.875,-6.75,5.5625,0
35670,1,-7,6.375,0
35690,2.75,-6.125,7.8125,0
35710,2.6875,-4.3125,7.75,0
35730,2.6875,-2.9375,6.375,0
35750,4.5625,-2.3125,4.0625,0
35770,7.375,-0.625,2.75,0
35790,11.375,1.5625,-0.6875,0
35810,15.125,2.625,-5.4375,0
35830,18.0625,3.5625,-6.5625,0
35850,20.75,6.3125,-3.875,0
35870,21.625,10.1875,-3.375,0
35890,27.8125,15.125,-4,0
35910,27.4375,20.125,-1.75,0
35930,25.625,25.0625,4.1875,0
35950,25.8125,31.375,8.125,0
35970,33.375,39,10.625,0
35990,33.9375,44.75,15.375,0
36010,36.125,50.4375,26.375,0
36030,33.8125,57.5625,37.9375,0
36050,37.5625,64.8125,48.6875,0
36070,38.625,70.8125,56.375,0
36090,43.9375,73.9375,57.875,0
36110,44.25,69.8125,70.4375,0
36130,41.25,62.5,81.9375,0
36150,44.4375,60.4375,79.375,0
36170,45.9375,55.1875,75.25,0
36190,38.25,42.3125,80.3125,0
36210,26.6875,24.25,81.625,0
36230,17.9375,9.9375,73.8125,0
36250,18.5625,-3.25,67.5625,0
36270,14.1875,-11.9375,65.4375,0
36290,5.1875,-17.5,58.375,0
36310,-2.625,-22.4375,50.1875,0
36330,-8.25,-29.1875,44.6875,0
36350,-12.375,-30.6875,40.9375,0
36370,-15.1875,-28.875,36.8125,0
36390,-12,-27.9375,32.875,0
36410,-7.5,-26.3125,29.625,0
36430,-1.8125,-26.0625,24.875,0
36450,3.5625,-26.1875,18.75,0
36470,3,-24.3125,15.5,0
36490,6.8125,-22.375,13.625,0
36510,7.625,-20.875,14.5625,0
36530,5,-20.9375,15.9375,0
36550,0.5625,-18.875,16.25,0
36570,0.6875,-17.125,17.5625,0
36590,-0.5625,-15.8125,20.0625,0
36610,-0.1875,-12.375,20.5,0
36630,-1.3125,-7.75,18.25,1000
36650,-1.6875,-5.875,15.9375,0
36670,-3.4375,-3.875,16.125,0
36690,-3,-1.5,16.5625,0
36710,-4.4375,-0.125,15.75,0
36730,-3.625,0.9375,13.5625,0
36750,-1.8125,0.8125,10.9375,0
36770,-0.8125,1.1875,8.8125,0
36790,-1.8125,2.25,7.625,0
36810,-2.3125,3.125,6.6875,0
36830,-1.6875,3.8125,6.5625,0
36850,-2.6875,3.875,6.9375,0
36870,-5.1875,3.5,6.625,0
36890,-7.875,3.1875,5.25,0
36910,-5.6875,2.9375,3.8125,0
36930,-2.3125,1.3125,2.6875,0
36950,-0.1875,0.1875,2.5,0
36970,1.5,-1.125,1.625,0
36990,2.5,-2.5,-0.0625,0
37010,4.0625,-3.875,-2.625,0
37030,4.3125,-4.8125,-3.875,0
37050,3.125,-4,-4.375,0
37070,4.1875,-5.9375,-5.1875,0
37090,8.5625,-8.1875,-5.375,0
37110,11.25,-8.1875,-7.375,0
37130,11.6875,-8.5,-12.6875,0
37150,12.875,-11.75,-15.25,0
37170,9.5625,-15.9375,-12.9375,0
37190,6.375,-19.0625,-12.5,0
37210,10.25,-20.8125,-15.25,0
37230,14.6875,-22.6875,-15.9375,0
37250,13.25,-23.9375,-12.5625,0
37270,5.875,-24.1875,-7.6875,0
37290,-5.5,-23.875,-6.375,0
37310,-3.1875,-24.5625,-8.5,0
37330,0.875,-28.1875,-7.5,0
37350,7.25,-31.625,-3.4375,0
37370,11.5625,-34.375,-1.125,0
37390,9.5,-34.8125,-1.5,0
37410,9.3125,-33.5,-3.125,0
37430,5.6875,-33,-2.9375,0
37450,5.0625,-33.5625,-2.1875,0
37470,7.1875,-31.625,-0.625,0
37490,5.6875,-28.3125,-0.6875,0
37510,6.1875,-25.375,-5.9375,0
37530,7.875,-22.75,-10.875,0
37550,7.625,-20.5,-14.6875,0
37560,6.875,-18.3125,-17,0
37580,9.3125,-15.625,-22.1875,0
37600,11.75,-13.25,-26.5625,0
37620,9.5625,-9.9375,-26.5625,0
37640,4.8125,-3.625,-26.5,0
37660,4.75,2,-29.9375,0
37680,3.125,3.8125,-30.3125,0
37700,0.25,5.5625,-26.6875,0
37720,-1.25,10.3125,-26.0625,0
37740,1.75,14.8125,-28,0
37760,2,14.9375,-29.125,0
37780,-1.875,14.75,-32.5625,0
37800,-2,18.3125,-37.25,0
37820,-0.3125,20,-37.75,0
37840,-2.6875,19.5625,-37.1875,0
37860,-1.8125,21.125,-40.625,0
37880,-1.3125,23.375,-44.4375,0
37910,-2.6875,24.6875,-43.375,0
37930,-4.4375,25.375,-43.8125,0
37950,-4.3125,26.625,-45.25,0
37970,-5,28.5,-45.4375,0
37990,-6.5625,29.5625,-43.875,0
38010,-7.375,27.6875,-42.1875,0
38030,-5.4375,26.6875,-43.5,0
38050,-3.1875,27,-44.4375,0
38070,-3.625,27.5625,-42.75,0
38090,-4.1875,25.6875,-40.75,0
38110,-4.625,25.625,-40.875,0
38130,-4.75,25.9375,-41.5,0
38150,-6.1875,26.1875,-40.3125,0
38170,-8.1875,26.25,-38.5,0
38190,-8.9375,27.125,-39.4375,0
38210,-6.4375,26.75,-40.5,0
38230,-6.4375,24.25,-38.8125,0
38250,-5.3125,21.5625,-38.5625,0
38270,-4.3125,21,-38.3125,0
38290,-5.625,21.1875,-38.0625,0
38310,-6.8125,20.0625,-36.8125,0
38330,-5.5625,17.6875,-36.0625,0
38350,-4.8125,17,-34.5625,0
38370,-5.875,18.3125,-33.5625,0
38390,-7.75,20.875,-32.6875,0
38410,-10.0625,22.3125,-30.8125,0
38430,-9.6875,22.4375,-29.1875,0
38450,-8,23.9375,-28.375,0
38470,-6.125,24.5625,-26,0
38490,-3.75,23.875,-22.4375,0
38510,-5.0625,25.0625,-20,0
38530,-5.9375,25.0625,-19.5,0
38550,-6.6875,23.75,-18.3125,0
38570,-6.5625,21.3125,-15.75,0
38590,-4.5625,18.9375,-12.8125,0
38610,-6.1875,19.875,-7.75,0
38630,-7.625,19.875,-6.125,0
38650,-2.5625,16.625,-5.3125,0
38670,-5.625,16.75,-2.75,0
38690,-3.0625,16.625,-1.75,0
38710,-4,17.9375,-0.5625,0
38730,-4.125,17.875,0.5,0
38750,-4.0625,16.9375,1,0
38770,-1.4375,17.625,3.0625,0
38790,5,19.25,6.5,0
38810,4.375,20.625,9.6875,0
38830,-3.8125,22.4375,12.125,0
38850,-5.8125,21.625,12.375,0
38870,0.125,19.0625,11.375,0
38890,4.0625,17.875,11.4375,0
38910,6.125,16.1875,12,0
38930,4.1875,14.8125,11,0
38950,2,13.5625,10.3125,0
38970,-3,12.1875,11.5,0
38990,-0.6875,9.5625,13.3125,0
39010,0.9375,7.8125,14.9375,0
39030,4.8125,7.625,16.5625,0
39050,7.25,9.375,17.3125,0
39070,6.1875,11.9375,18.625,0
39090,6.5625,12.5625,19.4375,0
39110,8.25,13.5,19.3125,0
39130,8.75,15.8125,19.1875,0
39150,6.125,18.75,20.1875,0
39170,4.0625,18.6875,20.25,0
39190,1.8125,16.25,19.625,0
39210,9.875,13.875,17.3125,0
39230,12.75,12.125,16.5625,0
39250,10.3125,11.125,14.0625,0
39270,5.8125,8.8125,12.875,0
39290,2.875,4.875,13.5,0
39310,5.375,2.8125,13.875,0
39330,3.9375,1.875,15.4375,0
39350,3.75,-0.125,17.125,0
39370,1.125,-1.9375,18.875,0
39390,-0.375,-2.6875,20.9375,0
39410,-4.375,-1.875,22.125,0
39430,-5.0625,-1.5625,22.1875,0
39450,-7.125,-2.1875,22.3125,0
39470,-5.75,-3.25,22.375,0
39490,-5.125,-4.4375,22.5,0
39510,-4.5625,-4.625,22.25,0
39530,-4.4375,-4.875,21.0625,0
39550,-3.125,-6,21.8125,0
39570,-4.25,-7.4375,22.3125,0
39590,-5.9375,-7.5625,22.1875,0
39610,-4.5625,-8.1875,22.6875,0
39630,-4.1875,-9.5,23,0
39650,-4.5625,-10.1875,24.625,0
39670,-8.375,-10.5,27.0625,0
39690,-10.5625,-7.875,27.9375,0
39710,-13.5625,-6.5,27.5625,0
39730,-11.125,-6.75,27.8125,0
39750,-9.25,-6.8125,27.8125,0
39770,-5.6875,-7.875,26.1875,0
39790,-5.625,-8.875,25.375,0
39810,-5.9375,-10.125,26.3125,0
39830,-6.75,-11.8125,24.3125,0
39850,-6.1875,-13.9375,22.1875,0
39870,-5.5,-17,22.0625,0
39890,-3.75,-19.5625,22,0
39910,-2.5625,-21.375,21.9375,0
39930,-4.5625,-23.125,22.3125,0
39950,-8,-23.9375,23.125,0
39970,-10.8125,-25.6875,23.6875,0
39990,-9.6875,-27.125,22.75,0
40010,-8.9375,-28.5625,21.875,0
40030,-9.8125,-30.0625,22.75,0
40050,-11.25,-32.4375,23.5625,0
40070,-11.0625,-34.8125,23.75,0
40090,-10.75,-36.375,23.875,0
40110,-11.3125,-37.0625,21.875,0
40130,-12.625,-37.6875,19.9375,0
40150,-15.3125,-39.3125,18.8125,0
40170,-15.9375,-40.25,17.875,0
40190,-15.25,-41,16.25,0
40210,-9.9375,-42.6875,14.5,0
40230,-8.9375,-43,12.5625,0
40250,-11.4375,-43.1875,11.5625,0
40270,-12,-43.5,11.3125,0
40290,-13.125,-43.6875,12.1875,0
40310,-13.9375,-43.5,11.625,0
40330,-11.5625,-41.875,9.125,0
40350,-9.0625,-41.125,8,0
40370,-6,-40.75,5.8125,0
40390,-2.3125,-40.75,2.0625,0
40410,-2.1875,-39.5,-1.6875,0
40430,-1.5,-39.3125,-3.75,0
40450,-3.3125,-39.25,-3.25,0
40470,-4.6875,-39.375,-2.125,0
40490,0.625,-38.1875,-3.1875,0
40510,2.375,-38,-2.9375,0
40530,0.125,-38.5,-3.0625,0
40550,3.125,-36.125,-6.625,0
40570,4.125,-33.8125,-9.6875,0
40590,0.5,-33.9375,-9,0
40610,-2.6875,-34.1875,-9.0625,0
40630,-1.25,-32.875,-12.5625,0
40650,-0.1875,-31.625,-16.6875,0
40670,0,-29.9375,-17.0625,0
40690,-3.375,-26.6875,-14.4375,0
40710,-12.625,-24.125,-13.25,0
40730,-14.375,-23.1875,-14.3125,0
40750,-13.625,-23.625,-15.6875,0
40770,-15.25,-22.0625,-16.25,0
40790,-15.75,-20.8125,-17.5,0
40810,-19.75,-20.5625,-17.0625,0
40830,-18.5,-20.625,-16.5625,0
40850,-17.8125,-19.4375,-17.1875,0
40870,-15.25,-17.5,-17.875,0
40890,-11.3125,-15.375,-18.25,0
40910,-10.875,-12.375,-16.375,0
40930,-12,-9.4375,-15.75,0
40950,-12.8125,-8.125,-17.9375,0
40970,-8.3125,-8.1875,-21.375,0
40980,-5.0625,-6.625,-23.5,0
41000,-3.6875,-4.1875,-25.6875,0
41020,-6.0625,-2,-26.75,0
41040,-9,-1.8125,-26.4375,0
41060,-10.9375,-0.8125,-26.125,0
41080,-9.4375,-0.25,-29.1875,0
41100,-8.625,0.875,-29.4375,0
41120,-12.5625,1.1875,-26.6875,0
41140,-13.0625,1.1875,-25.1875,0
41160,-13.3125,1.4375,-26.125,0
41180,-11.75,2.5625,-27.8125,0
41200,-10.8125,4.1875,-28.6875,0
41220,-13.375,4.625,-28.4375,0
41240,-14.4375,4.875,-29.1875,0
41260,-12.125,5.375,-31.3125,0
41280,-13.0625,7.375,-32.25,0
41300,-11.5,9.875,-33.4375,0
41320,-13.0625,10.1875,-33.5,0
41340,-14.4375,12.3125,-31.875,0
41360,-11.4375,13.5,-32.375,0
41380,-9.4375,14.75,-33.5,0
41400,-10.0625,16.6875,-32.3125,0
41420,-12.5,17.0625,-29.8125,0
41440,-11.0625,17.6875,-29.9375,0
41460,-9.875,19.25,-30.875,0
41480,-9.625,21,-30,0
41500,-11.3125,21.5,-26.875,0
41520,-11.25,22.4375,-24.4375,0
41540,-9.625,23.875,-24.0625,0
41560,-9.5,25.25,-23.8125,0
41580,-10.9375,27.25,-22.8125,0
41600,-14.375,28.6875,-23.4375,0
41620,-14.9375,30.3125,-25.1875,0
41640,-12.375,28.8125,-26.8125,0
41660,-8.1875,26.3125,-26.625,0
41680,-7.3125,24.5625,-27.9375,0
41700,-5.9375,24.6875,-29.8125,0
41720,-9.0625,25.8125,-29.1875,0
41740,-13.375,26.9375,-26.4375,0
41760,-16.5625,28.5625,-21,0
41780,-14.375,30.3125,-19.1875,0
41800,-11,31.5625,-18.625,0
41820,-10.375,33.6875,-14.25,0
41840,-11.625,36.0625,-8.6875,0
41860,-13.625,37.375,-4.8125,0
41880,-13.3125,34.1875,-4.75,0
41900,-6.5,30.9375,-3.625,0
41920,-3.125,32.5625,-2,0
41940,-6.75,36.625,-0.5625,0
41960,-17.8125,38.0625,1.625,0
41980,-19.0625,35.0625,2.875,0
42000,-12.875,32.375,0.375,0
42020,-12.375,33.5625,-2.875,0
42040,-11.875,34.5625,-3.0625,0
42060,-11,32.375,-0.5625,0
42080,-3.875,27.5,-0.0625,0
42100,1,23.25,0.4375,0
42120,0.75,24.1875,1.25,0
42140,0.625,25.4375,1.9375,0
42160,-5,27.625,5.1875,0
42180,-13.125,28.9375,6.125,0
42200,-12.8125,28.0625,5.5625,0
42220,-8.5,27.75,6.8125,0
42240,-3.5625,28.3125,8.75,0
42260,0.5,29.5625,9.625,0
42280,-5.0625,31.375,9.5,0
42300,-7.8125,30.4375,9.0625,0
42320,-4.8125,28.8125,11.375,0
42340,-1,27.625,13.8125,0
42360,2,28.125,14.6875,0
42380,-1.6875,28.5,15.5,0
42400,-7.375,29.625,16.6875,0
42420,-7.9375,27.9375,19.4375,0
42440,-6.125,26.125,23.0625,0
42460,-1.5625,25.25,23.8125,0
42480,-3.25,25.5625,22.25,0
42500,-0.25,24.25,21.4375,0
42520,-2.375,22.1875,22.125,0
42540,-4.3125,18.8125,20.3125,0
42560,-6.8125,14.6875,16.6875,0
42580,-3.375,10.0625,16.375,0
42600,-0.5,8.25,17.5,0
42620,1.125,7.9375,18.4375,0
42640,0.1875,6.5625,18,0
42660,-5.25,4.5625,18.8125,0
42680,-10.0625,2.25,20.3125,0
42700,-7.4375,0.4375,20.875,0
42720,-2.8125,-1.0625,20.75,0
42740,-1.125,-2.625,21.0625,0
42760,-2.5625,-4.5,21.6875,0
42780,-5.1875,-6.8125,21,0
42800,-3.1875,-7.8125,20.5625,0
42820,-2.1875,-9.1875,22,0
42840,-1.625,-10.1875,22,0
42860,-0.5,-10.875,22.0625,0
42880,-2.25,-11.6875,22.875,0
42900,-0.5625,-12.375,22.1875,0
42920,-0.5,-13.5625,22.5625,0
42940,-3.0625,-14.125,22.8125,0
42950,-3,-14,22.6875,0
42970,-3.8125,-15.375,22.5625,0
42990,-3.9375,-17.1875,22.125,0
43010,-1.375,-18.1875,22.1875,0
43030,-2.3125,-18.625,22.8125,0
43050,-4.25,-18.625,22.125,0
43070,-6.1875,-19.3125,21.375,0
43090,-5.8125,-19.75,21.125,0
43110,-5.3125,-20.125,19.875,0
43130,-5.1875,-19.875,19.1875,0
43150,-5,-21.1875,20.0625,0
43170,-4.0625,-21.9375,20.25,0
43190,-4.125,-21.8125,20,0
43210,-6.25,-21.5625,20.4375,0
43230,-12.125,-22.8125,23.6875,0
43250,-14.25,-24.6875,24.875,0
43270,-11,-25.375,24.6875,0
43290,-10.3125,-26.8125,24,0
43310,-9.6875,-27.625,22.5,0
43330,-13.8125,-28.6875,20.8125,0
43350,-13.875,-29.125,18.125,0
43370,-11.3125,-31.4375,16.5,0
43390,-9.125,-33.3125,17.3125,0
43410,-7.1875,-33.4375,17.3125,0
43430,-8.75,-33.8125,15.25,0
43450,-13,-35,14.25,0
43470,-13.8125,-35.6875,13.9375,0
43490,-12.875,-36.8125,13.375,0
43510,-12.1875,-37,12.1875,0
43530,-9.875,-36.9375,8.75,0
43550,-9.75,-37.0625,5.5625,0
43570,-7.375,-37.6875,2.5,0
43590,-4.5,-37.6875,0.5625,0
43610,-4.625,-38.0625,0.375,0
43630,-5.25,-37.1875,-1,0
43650,-4.25,-35.75,-2.625,0
43670,-2.5625,-34.75,-3.125,0
43690,-6.3125,-33.6875,-3.5625,0
43710,-7.6875,-30.4375,-4.75,0
43730,-9.8125,-27.4375,-5,0
43750,-12.0625,-25.625,-2.625,0
43770,-12.625,-25.625,-2.0625,0
43790,-8.1875,-26.125,-5.0625,0
43810,-3.0625,-26.5625,-7.25,0
43830,-2.75,-26.25,-5.6875,0
43850,-4.5,-25.125,-5,0
43870,-6.625,-25,-5.5,0
43890,-6.625,-25.375,-6.125,0
43910,-3.375,-25.5,-7.625,0
43930,1.8125,-26.625,-9.25,0
43950,1.9375,-27.4375,-9.0625,0
43970,2.5625,-28.1875,-9,0
43990,3.6875,-29.375,-12.25,0
44010,6.9375,-29.6875,-15.6875,0
44030,6.125,-29.9375,-17.875,0
44050,3.6875,-28.5625,-20.0625,0
44070,-0.25,-28,-21.3125,0
44090,-6.125,-28.4375,-19.375,0
44110,-4,-29,-20.875,0
44130,-0.3125,-28.5,-22.375,0
44150,0.25,-27.75,-20.375,0
44170,-5.125,-26.375,-18.3125,0
44190,-6.375,-25.5,-19.375,0
44210,-7.8125,-26.125,-21.6875,0
44230,-8.4375,-24.6875,-22.125,0
44250,-9.25,-23.6875,-21.625,0
44270,-8.5625,-22.625,-21.125,0
44290,-7.625,-20.5,-22.125,0
44310,-5.5625,-19.3125,-24.5625,0
44330,-7.25,-19.25,-24.9375,0
44350,-6.125,-17.125,-24.0625,0
44370,-7.625,-16,-22.25,0
44390,-7.3125,-14.25,-21.875,0
44410,-7.3125,-12.375,-22.3125,0
44430,-6.25,-11.375,-23.0625,0
44450,-8.1875,-9.8125,-22.4375,0
44470,-10,-8.0625,-23.3125,0
44490,-11.1875,-6.625,-24.9375,0
44510,-11.75,-6.5625,-24,0
44530,-11.125,-4.5625,-23.8125,0
44550,-8.6875,-2.5625,-25.875,0
44570,-7.875,-0.5,-26.625,0
44590,-10.125,-0.4375,-26.1875,0
44610,-10.8125,1.125,-27.1875,0
44630,-11.1875,2.4375,-27.875,0
44650,-11,3.0625,-28.125,0
44670,-12.3125,3.125,-28.1875,0
44690,-13,4.9375,-28.0625,0
44710,-12.3125,5.5,-28.3125,0
44730,-14.875,5.25,-27.8125,0
44750,-14,7.1875,-27.125,0
44770,-13.3125,9.875,-26.6875,0
44790,-16.375,10.8125,-26.125,0
44810,-16.75,12.875,-25.1875,0
44830,-16.5625,15.625,-24.375,0
44850,-17.1875,18.1875,-22,0
44870,-17.125,20.8125,-20.0625,0
44890,-16.6875,23.25,-19.4375,0
44910,-14.8125,25.1875,-19.25,0
44930,-14,25.9375,-18.9375,0
44950,-12.8125,26.5625,-19.75,0
44970,-13.75,28.1875,-19.5625,0
44990,-14.5,29.1875,-17.875,0
45010,-15.3125,30.4375,-17,0
45030,-16.75,32.6875,-18.375,0
45050,-16.8125,33.8125,-19.1875,0
45070,-16.1875,34.25,-19.75,0
45090,-15,34.875,-19.1875,0
45110,-13.6875,36.5625,-19.125,0
45130,-13.875,38.4375,-17.625,0
45150,-13.25,40.5625,-16,0
45170,-12.25,40.625,-14.9375,0
45190,-10,39.1875,-15.8125,0
45210,-8.6875,38.6875,-17.25,0
45230,-8.25,39.375,-18.375,0
45250,-8.3125,40,-18.5,0
45270,-14.5625,41.3125,-15.8125,0
45290,-16.625,42.9375,-12.1875,0
45310,-16.6875,42.3125,-7.125,0
45330,-15.0625,41.5,-1.875,0
45350,-11.8125,42.5625,1.0625,0
45370,-9.3125,42.0625,4.6875,0
45390,-10.625,42.1875,9.4375,0
45410,-13.3125,40.3125,12.1875,0
45430,-13.75,38.9375,14.375,0
45450,-8.375,39.5625,17.6875,0
45470,-8.1875,43.5,23.1875,0
45490,-15,46.4375,25.9375,0
45510,-20.6875,44.0625,23,0
45530,-4.25,39.375,19.9375,0
45550,5.8125,37.4375,22.3125,0
45570,6.375,38.0625,23.3125,0
45590,5.3125,37.625,20.5625,0
45610,0.9375,35.4375,18.25,0
45630,-1.75,35.5,16,0
45650,-10.6875,37.125,18.25,0
45670,-10,35.375,18,0
45690,-1.75,31.75,15.1875,0
45710,4.1875,26.375,11.5,0
45730,9.5,22.8125,9.125,0
45750,5.9375,22.375,9.125,0
45770,0.25,21.5625,10.5,0
45790,-6.8125,18.375,11.5,0
45810,-7.875,15.875,10.8125,0
45830,-5.1875,15.625,12.25,0
45850,-2.1875,15.75,13.4375,0
45870,-2.6875,16.75,15.5,0
45890,-9,17.5625,17.625,0
45910,-11.625,17.375,17.0625,0
45930,-6.625,16.8125,17,0
45950,-2.1875,17.25,19.0625,0
45970,-4.625,17.3125,20.3125,0
45990,-9.75,15.5625,20.5625,0
46010,-11.75,12.375,20.9375,0
46030,-14.25,9.8125,21.3125,0
46050,-14.1875,8.5625,22.4375,0
46070,-12.5,6.125,22.8125,0
46090,-12.1875,3.625,21.8125,0
46110,-9.1875,1.5625,21.3125,0
46130,-9.1875,0.25,21.6875,0
46150,-7.1875,-0.25,22.5,0
46170,-8.0625,-0.75,22.0625,0
46190,-5.625,-1.3125,20.9375,0
46210,-6.4375,-2.625,20.125,0
46230,-4.3125,-2.6875,19.125,0
46250,-4.6875,-3.3125,20,0
46270,-8.125,-5,21.125,0
46290,-7.875,-5.9375,20.25,0
46310,-4.375,-7.625,20.3125,0
46330,-2.0625,-8.125,20.875,0
46350,-3.1875,-8.8125,20.125,0
46370,-6.875,-9.5,20.5625,0
46390,-9.4375,-10.75,22.25,0
46400,-8.6875,-12.25,22.25,0
46420,-6.375,-14.0625,20.375,0
46440,-7.5625,-15.25,20.625,0
46460,-10.75,-16.375,21.5625,0
46480,-12.4375,-17.4375,19.875,0
46500,-13.875,-18.8125,17.75,0
46520,-10.5,-19.5625,15.875,0
46540,-9.3125,-20.125,15.875,0
46560,-7.3125,-20.8125,15.5625,0
46580,-9.1875,-20.1875,15.125,0
46600,-10.875,-20.0625,14.5,0
46620,-11.125,-20.8125,13.4375,0
46640,-9.9375,-22.4375,13.1875,0
46660,-9.9375,-24.1875,12.3125,0
46680,-9,-27.5,11.125,0
46700,-8.5,-29.9375,10.3125,0
46720,-6.125,-32.25,8.875,0
46740,-5.625,-34.25,7.125,0
46760,-8.8125,-35.8125,3.375,0
46780,-11.4375,-38.5625,0.75,0
46800,-11.1875,-41.5625,0.3125,0
46820,-10.125,-43.5,1.0625,0
46840,-9.25,-46.25,1,0
46860,-7.375,-47.5,-1.5625,0
46880,-9.6875,-47.0625,-3.5625,0
46900,-11.8125,-46.9375,-4.8125,0
46920,-13.0625,-46.25,-5.5625,0
46940,-14.375,-47.0625,-7.1875,0
46960,-11.0625,-46.75,-8.8125,0
46980,-7.9375,-45.25,-9.0625,0
47000,-6.125,-44,-7.4375,0
47020,-9.8125,-43.4375,-5.5625,0
47040,-16.125,-42.375,-5.1875,0
47060,-18,-40.4375,-7.3125,0
47080,-20.5625,-38.1875,-9.5625,0
47100,-21.5625,-36.375,-12.5,0
47120,-21,-36.875,-15.5625,0
47140,-13.9375,-38.375,-19.75,0
47160,-6,-39.75,-21.625,0
47180,-0.9375,-40.5,-23.0625,0
47200,0.6875,-40.0625,-23.5,0
47220,-0.4375,-38.9375,-23.875,0
47240,-4,-37.625,-25.875,0
47260,-7.875,-36.8125,-26.3125,0
47280,-6.9375,-36.875,-25.875,0
47300,-1.5625,-36.8125,-26.8125,0
47320,0.75,-36.1875,-28.25,0
47340,-2.1875,-32.8125,-27.3125,0
47360,-11.125,-28.625,-23.0625,0
47380,-19.0625,-26.5,-21.625,0
47400,-16.75,-27.9375,-22.1875,0
47420,-12.375,-29.375,-23,0
47440,-8.3125,-29.5,-23.125,0
47460,-6,-27.9375,-22.375,0
47480,-7,-26.1875,-21.25,0
47500,-10.75,-23.375,-21.625,0
47520,-12,-22.375,-23.9375,0
47540,-12.125,-22.5625,-25.125,0
47560,-10.1875,-20.4375,-25,0
47580,-5.375,-19.75,-24.5,0
47600,-3.8125,-19,-23.5625,0
47620,-3.1875,-17.3125,-23.0625,1001
47640,-5.0625,-14.6875,-23.1875,0
47660,-3.6875,-14.5625,-23.5625,0
47680,0.125,-13.75,-23.6875,0
47700,2.5,-13.1875,-24.875,0
47720,4.0625,-12.8125,-25,0
47740,0.625,-10.75,-20.875,0
47760,-2.125,-9.3125,-16.6875,0
47780,-0.75,-9.875,-14.5,0
47800,1.5,-11.375,-11.875,0
47820,2.4375,-12.8125,-9.0625,0
47840,0.625,-10,-4.875,0
47860,-0.125,-5.125,-1.1875,0
47880,1.375,-0.625,-0.75,0
47900,3.6875,5.875,-4,0
47920,9.1875,9.75,-7.5,0
47940,11.625,11.5625,-10,0
47960,15,12.75,-10.5625,0
47980,21.4375,16.5,-9.25,0
48000,27.1875,18.375,-8.25,0
48020,35.125,20.4375,-7.6875,0
48040,37.875,23.9375,-2.75,0
48060,38.5,27.6875,7.75,0
48080,42.0625,36.0625,16.0625,0
48100,47.5625,43.3125,21.375,0
48120,58.6875,48.6875,17.375,0
48140,49.8125,48.75,18,0
48160,38,48.5,33.375,0
48180,38.5625,56.0625,47.875,0
48200,51.3125,66.5625,51.5625,0
48220,60.625,71.1875,59.1875,0
48240,68.3125,69.0625,76.1875,0
48260,73.1875,67.6875,86.25,0
48280,74.25,68.5625,77.5,0
48300,63.5625,65.875,72.75,0
48320,57.3125,60.125,81.6875,0
48330,47.5,51.25,85.25,0
48360,49.0625,43.6875,74.625,0
48370,44.4375,37.8125,67.375,0
48390,29.1875,35.9375,66.75,0
48410,12.9375,31.5625,62.875,0
48430,13.625,22.625,60.4375,0
48450,8.125,16.75,54.625,0
48470,6.25,11.8125,43.875,0
48490,4.6875,7.625,34.9375,0
48510,9.5,0.5625,27.9375,0
48530,17.25,-6.3125,22.9375,0
48550,21.5,-3.875,19.0625,0
48570,24.4375,-1.6875,15.1875,0
48590,21.9375,-2.375,16,0
48610,10.8125,-3,22.5,0
48630,3.5,-2.125,24.3125,0
48650,-1.9375,-0.0625,22.9375,0
48670,-2.0625,-0.625,21.8125,0
48690,2.5,-2.1875,19.375,0
48710,2.25,-3.75,16.0625,0
48730,-0.4375,-3.8125,17.4375,0
48750,-2.75,-3.125,17.875,0
48770,-5.9375,-2.5,10.6875,0
48790,-0.8125,-2.0625,1.375,0
48810,1.6875,-2.9375,3.8125,0
48830,4.6875,-3.9375,8.5,0
48850,3.625,-2.3125,6.375,0
48870,1.6875,-0.3125,3.875,0
48890,-3.1875,0.375,5.875,0
48910,-7.4375,0.5625,7.125,0
48930,-7.4375,0.3125,5.75,0
48950,-4.125,-0.3125,3.875,0
48970,-0.0625,-1.625,2.375,0
48990,2.375,-4.9375,0.9375,1000
49010,0.0625,-9.375,-0.5625,0
49030,0.625,-14.0625,-2.3125,0
49050,-1.375,-16.6875,-4.375,0
49070,3.0625,-18.75,-6.625,0
49090,8.625,-20.3125,-8.3125,0
49110,8.0625,-22.9375,-10.0625,0
49130,4,-25,-11.375,0
49150,2,-25.5,-12.6875,0
49170,2.8125,-27.0625,-14.375,0
49190,1.9375,-27.9375,-14.5,0
49210,8.1875,-29.5,-14.375,0
49230,11.25,-29.9375,-15.125,0
49250,12.4375,-29.3125,-17.6875,0
49270,2.3125,-28.75,-18.375,0
49290,-6,-30.25,-15.0625,0
49310,-10.625,-32.375,-13.9375,0
49330,-13.3125,-33.8125,-17.25,0
49350,-14.1875,-32.3125,-19.0625,0
49370,-8.4375,-31.8125,-23.0625,0
49390,-4.0625,-30.6875,-24.8125,0
49410,-4.125,-30.0625,-25.25,0
49430,-9.375,-27.625,-25.375,0
49450,-7.1875,-25.25,-27.5625,0
49470,-8.125,-23.4375,-26.0625,0
49490,-6.5625,-22.5625,-22.1875,0
49510,-7.1875,-24.125,-20.0625,0
49530,-4.4375,-25.75,-21.875,0
49550,-0.5,-25.4375,-23.125,0
49570,-3.3125,-23.1875,-21.875,0
49590,-9.0625,-20.25,-21.5,0
49610,-10.3125,-17.3125,-22.5,0
49630,-9.9375,-16.125,-23.8125,0
49650,-10,-14.5625,-26.5625,0
49670,-9.5625,-14.5625,-27.5,0
49690,-6.1875,-14.25,-28.0625,0
49710,-6.5,-13.4375,-30.125,0
49730,-7.25,-13.1875,-35.125,0
49750,-9.1875,-11.8125,-38.3125,0
49770,-10.9375,-10.0625,-39.8125,0
49790,-10.1875,-7.5,-42.375,0
49810,-12.125,-4.125,-43.875,0
49830,-13.5625,0.1875,-45.5,0
49840,-14.6875,2.25,-45.1875,0
49860,-13.8125,6,-45,0
49870,-14.1875,10.75,-44.5625,0
49880,-11.375,49.125,-28.25,0
49900,-12.125,52.4375,-27.1875,0
49920,-14.875,55.25,-25.3125,0
49940,-17.5625,55.1875,-21,0
49960,-13.0625,52.25,-16.875,0
49980,-9.0625,50.6875,-15,0
50000,-6.375,52.125,-13.75,0
50020,-8.75,54.9375,-11.125,0
50040,-13.6875,57,-8,0
50060,-12,56.375,-3.125,0
50080,-7.1875,53.0625,0.875,0
50100,-0.5,48.5625,1.6875,0
50120,-2.75,46.0625,0.9375,0
50140,-9.8125,48.4375,0.5625,0
50160,-10.5,47.125,1.4375,0
50180,-7.625,42.6875,4,0
50200,-5.25,37.9375,5.6875,0
50220,-3.375,36.8125,2.9375,0
50240,-1.375,35.9375,4.125,0
50260,-3.4375,32.0625,4.5625,0
50280,-2,24.9375,3.5625,0
50300,2.875,19.25,0.375,0
50320,5.8125,16.3125,-1.375,0
50340,-0.8125,18.1875,1.0625,0
50360,-8.25,19.9375,3.75,0
50380,-12.5,18.5,6.125,0
50400,-6.8125,15.4375,6.5625,0
50420,-1.5,14.875,7,0
50440,-2.875,18.1875,8.3125,0
50460,-3.3125,18.875,9.1875,0
50480,-4.1875,16.625,10.125,0
50500,-1,15.25,11.125,0
50520,1.5,14.3125,11.1875,0
50540,5.5625,13.25,12.75,0
50560,2.3125,12.75,15.75,0
50580,-0.5625,10.3125,16.0625,0
50600,-1.9375,10.4375,17.75,0
50620,-1.4375,10.25,18.875,0
50640,-1.1875,11.4375,18.9375,0
50660,-1.8125,12.0625,18.75,0
50680,-3.375,11.0625,15.375,0
50700,-3.125,10.125,13.9375,0
50720,-4.5625,9.4375,14.75,0
50740,-3,10,16.4375,0
50760,-3.5,9.8125,15.6875,0
50780,-5.0625,10.625,14.375,0
50800,-3.9375,11.375,15.375,0
50820,-1.25,12.1875,18.5625,0
50840,3.25,12.6875,20.3125,0
50860,6.0625,14.375,20.75,0
50880,0,15.875,20.75,0
50900,-0.4375,13.125,23.4375,0
50920,3.8125,10.1875,26.3125,0
50940,5.6875,8.8125,25,0
50960,4.1875,8.5625,22.125,0
50980,-1.8125,8,23,0
51000,-2.75,5.1875,24.5,0
51020,-2,3.5,23.8125,0
51040,-2.1875,4.125,22.5625,0
51060,-0.4375,3.75,23.0625,0
51080,-2.625,2.25,24.6875,0
51100,-4.0625,1.4375,26.8125,0
51120,-4.8125,1.0625,25.8125,0
51140,-6.1875,-0.0625,24.25,0
51160,-7.0625,-0.875,23.4375,0
51180,-6.25,-2.125,23.0625,0
51200,-5.1875,-3.9375,21.1875,0
51220,-2.3125,-4.9375,19.3125,0
51240,0.9375,-5.75,18.5625,0
51260,1.0625,-6.75,18.875,0
51280,0.3125,-8.375,19.875,0
51300,1.0625,-9.8125,21.4375,0
51320,2.3125,-9.375,23.0625,0
51340,2.5625,-7.375,23.875,0
51360,0.9375,-6.125,24.6875,0
51380,-0.5625,-4.6875,25,0
51400,-2.0625,-4.5625,26.875,0
51420,0.0625,-4.1875,29.4375,0
51440,-0.5,-3.0625,29.875,0
51460,-5.9375,-3.3125,28.625,0
51470,-11.375,-4.25,28.25,0
51490,-10.5625,-6.875,27.8125,0
51510,-6.875,-9.6875,25.3125,0
51530,-3.0625,-10.875,22.8125,0
51550,-2.875,-12.5625,22,0
51570,-0.875,-15.1875,20.75,0
51590,-1.3125,-18.375,19.875,0
51610,-0.5625,-20.875,18.0625,0
51630,0.375,-23,16.625,0
51650,0.375,-25.0625,16.5625,0
51670,-2.9375,-28,18.3125,0
51690,-5,-29.5,19.625,0
51710,-4.8125,-29.75,19.0625,0
51730,-7.3125,-30.375,19.875,0
51750,-8.6875,-31.375,20.125,0
51770,-7.5625,-32.0625,18.9375,0
51790,-6,-33.8125,20.1875,0
51810,-6.625,-34.25,23.1875,0
51830,-11.25,-33.125,23.75,0
51850,-15.5625,-31.5625,22.75,0
51870,-18.875,-31.6875,24.3125,0
51890,-19.4375,-32.4375,25,0
51910,-15.625,-32.9375,21.1875,0
51930,-12.375,-34.3125,19.0625,0
51950,-10.375,-36.3125,18.8125,0
51970,-10.6875,-38.0625,18.4375,0
51990,-11.75,-40.375,15.3125,0
52010,-8.5625,-42.625,12.3125,0
52030,-10.5,-46.1875,11.8125,0
52050,-7.25,-48.875,10.375,0
52070,-5.375,-52.0625,5.5625,0
52090,-1.8125,-53.6875,-0.25,0
52110,0.875,-54,-4.625,0
52130,1.625,-54.75,-5.8125,0
52150,3,-54.5625,-7,0
52170,4.625,-53.6875,-9.0625,0
52190,4.375,-53.1875,-10.8125,0
52210,4.0625,-52.25,-12.3125,0
52230,5.375,-51.4375,-13.8125,0
52250,4.9375,-51.875,-14.375,0
52270,4.125,-51.6875,-13.8125,0
52290,1,-49.3125,-12.6875,0
52310,1.875,-47,-10.875,0
52330,-4.4375,-48.375,-6.375,0
52350,-2.8125,-49.25,-5.625,0
52370,-0.3125,-45.25,-7.75,0
52390,1.625,-42.875,-8.375,0
52410,-3.625,-42.9375,-7.875,0
52430,-8.125,-41.8125,-10.0625,0
52450,-9.3125,-38.375,-13.625,0
52470,-6.25,-36.5625,-15.4375,0
52490,-6,-37.8125,-15.875,0
52510,-4.6875,-34.9375,-16.25,0
52530,-5.9375,-30.8125,-15.625,0
52550,-5.375,-26.9375,-15.25,0
52570,-5.6875,-21.0625,-12.8125,0
52590,-4.4375,-16,-12.25,0
52610,-6.4375,-12.0625,-11.875,0
52630,-8.75,-7.0625,-13.625,0
52650,-6.25,-4.625,-16.5625,0
52670,-11.0625,-4.75,-18.0625,0
52690,-12.5625,-5,-21.4375,0
52710,-9.875,-5.5,-25.875,0
52730,-8.0625,-7.6875,-28.5625,0
52750,-5.875,-8.6875,-31.1875,0
52770,-6.375,-8.9375,-32.9375,0
52790,-8.9375,-7.375,-33.5,0
52810,-11.875,-5.9375,-32.5625,0
52830,-15.875,-3.125,-31.875,0
52850,-11.6875,-2.125,-37.125,0
52870,-4.9375,-2.5,-43.125,0
52890,-3.75,-3.5625,-47.1875,0
52910,-5.625,-3.1875,-47.875,0
52930,-6.9375,-3.625,-47.5,0
52950,-9.75,-2.5,-45.125,0
52970,-11.0625,-2.125,-44.1875,0
52990,-12.125,-2.1875,-44.8125,0
53010,-15.25,-2.875,-45.25,0
53030,-18,0.1875,-46.9375,0
53050,-20.1875,4.125,-47.4375,0
53070,-22.6875,7.4375,-45.375,0
53090,-23.5,10.0625,-45.875,0
53110,-23.875,13.0625,-46.4375,0
53130,-24.125,16.375,-45.125,0
53150,-22.5,17.125,-44.9375,0
53170,-24.375,18.4375,-44,0
53210,-18.5,22.0625,-41.6875,0
53230,-19.625,23.75,-38.0625,0
53250,-20.625,25.5625,-36.125,0
53270,-17.9375,24.8125,-36.9375,0
53290,-16.375,22.5625,-34.5625,0
53310,-19.5625,22.3125,-34.8125,0
53330,-19.4375,24.625,-35.125,0
53350,-20.1875,25.875,-32.3125,0
53360,-20.875,28.75,-30.25,0
53390,-19.5625,33.25,-29.375,0
53410,-22.6875,40.5,-27.25,0
53430,-31.0625,53.1875,-19.25,0
53440,-6.8125,56.125,-15.25,0
53460,-5.0625,54.9375,-13.9375,0
53480,-7.3125,54.125,-13.9375,0
53500,-7.6875,52.6875,-12.1875,0
53520,-7.6875,50.5625,-9.875,0
53530,-9.75,51.75,-5.625,0
53550,-13.25,53.5625,-0.75,0
53570,-12.6875,49.0625,3.3125,0
53590,-2.9375,44.3125,6.3125,0
53610,5.625,45,12.3125,0
53630,8.5625,48.9375,19.9375,0
53650,3.0625,54.8125,28.8125,0
53670,-1.125,53.875,36,0
53690,-8.5625,44.6875,41.0625,0
53710,-11.125,39,43.5,0
53730,-4.625,42.0625,39.4375,0
53750,-1.9375,46.1875,37.5625,0
53770,-7.4375,45.5,36.75,0
53790,-10.8125,39.1875,35.9375,0
53810,-6.25,31.1875,32.5,0
53830,1.125,27.75,29.8125,0
53850,3.5,25.6875,28.9375,0
53870,4.75,21.875,29.4375,0
53890,2.3125,16.4375,27.25,0
53910,-0.375,15.1875,25.375,0
53930,-4.375,15.5,27.625,0
53950,-2.75,12.8125,30.3125,0
53970,-2.625,8.375,30.4375,0
53990,-2.625,4.0625,30.375,0
54010,-0.4375,1.8125,31.5,0
54030,1.5625,0.125,33.4375,0
54050,-1.3125,-0.9375,34.3125,0
54070,-3.6875,-3.125,34.5625,0
54090,-0.9375,-5.5,35.625,0
54110,1.375,-6.5625,37,0
54130,1.875,-5.625,39.3125,0
54150,-7.125,-4.5,41.875,0
54170,-14.5625,-5.0625,41.375,0
54190,-14.3125,-5.3125,40.5,0
54210,-16.6875,-7.375,42,0
54230,-16.625,-10.1875,39.6875,0
54250,-16.9375,-11.4375,36.6875,0
54270,-18.5625,-11.5625,33.8125,0
54290,-22.75,-11.875,31.3125,0
54310,-25.5625,-15,31.875,0
54330,-23.8125,-17.8125,32.875,0
54350,-17.625,-19.75,31.125,0
54370,-15.75,-23.0625,28.5,0
54390,-14.875,-26.25,25.3125,0
54410,-16.625,-29.375,23.8125,0
54430,-18.6875,-33,23.375,0
54450,-16.5,-35.8125,22.6875,0
54470,-14,-36.75,22.1875,0
54490,-14,-37.4375,21.125,0
54510,-13.25,-38.5,18,0
54530,-13.25,-38.3125,17.1875,0
54550,-13.5,-37.5,16.3125,0
54570,-11.1875,-35.9375,12.5625,0
54590,-11.1875,-35.3125,11.125,0
54610,-12.125,-34.875,13,0
54630,-12.375,-33.4375,11.5625,0
54650,-9.1875,-32.4375,9.625,0
54670,-9.125,-31.5,12.5625,0
54690,-9.6875,-31.5,14.9375,0
54710,-10.9375,-31.75,14,0
54730,-9.8125,-32.125,11.5,0
54750,-8.625,-34.0625,9.3125,0
54770,-7.875,-35.8125,5.9375,0
54790,-5,-37.25,2.25,0
54810,0.6875,-40.9375,-0.625,0
54830,3.375,-44.3125,-3.8125,0
54850,6.875,-46.375,-6.5625,0
54870,5.625,-48.875,-9.1875,0
54890,7.1875,-50.5,-13.0625,0
54910,6,-52.4375,-15.75,0
54930,2.6875,-54.0625,-16.3125,0
54950,0.625,-56.4375,-16.25,0
54970,1.125,-59.0625,-15.875,0
54990,0.25,-59.375,-18.1875,0
55010,-4.8125,-59,-22.3125,0
55030,-14.9375,-60.125,-21.6875,0
55050,-22.75,-61.5,-18.25,0
55070,-22.6875,-59.125,-19,0
55090,-20.1875,-55.5625,-24.6875,0
55110,-14.6875,-53.8125,-29.3125,0
55130,-8.25,-52.5,-28.8125,0
55150,-6.3125,-50.25,-26.6875,0
55170,-11.9375,-46.25,-25.4375,0
55190,-15.125,-39.8125,-28.75,0
55210,-18.8125,-35.5625,-30.875,0
55230,-23.8125,-32.9375,-30.5,0
55250,-24.4375,-30.3125,-28,0
55270,-19.9375,-27.0625,-28.0625,0
55290,-21.9375,-26.0625,-31.1875,0
55310,-24.0625,-23.8125,-33.125,0
55330,-28,-21,-33.3125,0
55350,-27.5625,-20.9375,-35.9375,0
55370,-24,-19.125,-39.6875,0
55390,-24.0625,-17.5,-41.5,0
55410,-24.4375,-16,-42.375,0
55430,-25.75,-15.375,-44.5,0
55450,-28,-10.6875,-44.9375,0
55470,-33.125,-4.75,-44.75,0
55490,-35,3.375,-43.875,0
55510,-37.875,10.3125,-41.8125,0
55530,-37.625,15.9375,-39.8125,0
55550,-35.0625,23.25,-34.875,0
55570,-32.8125,28.5625,-36.625,0
55590,-30.5,33.6875,-40.75,0
55610,-35.3125,35.75,-39.875,0
55630,-38.9375,39,-36.125,0
55650,-37.375,42.8125,-34.6875,0
55670,-34.6875,45.0625,-32.1875,0
55690,-34.6875,44.5,-28.1875,0
55710,-32.625,43.5,-28.5,0
55730,-31.125,43.5,-28.25,0
55750,-31.25,41.375,-25.5,0
55770,-30.3125,40.1875,-22.875,0
55790,-27.625,40.75,-22.6875,0
55810,-26.625,40.375,-23.5,0
55830,-25.5,39.125,-22.75,0
55850,-24.125,38.8125,-21.125,0
55870,-22.8125,39.4375,-20.0625,0
55890,-19.625,39.9375,-18.0625,0
55910,-18.3125,41,-15.25,0
55930,-15.3125,43,-12.5625,0
55950,-12.8125,44.1875,-9.4375,0
55970,-10,46,-4.3125,0
55990,-8.25,49.0625,1.5625,0
56010,-11.0625,54.125,8.25,0
56030,-12.625,57.25,13.5625,0
56050,-8.3125,56.0625,15.625,0
56070,-3.5,56.0625,17.5,0
56090,-2.125,59.3125,19.375,0
56110,-5.125,64.125,25.0625,0
56130,-6.625,66.1875,33.9375,0
56150,-2.5625,66.0625,37.3125,0
56170,-5.375,65.0625,34.8125,0
56190,-7.4375,67.125,30.9375,0
56210,-8.625,69.3125,30.1875,0
56230,-10.5625,67.6875,29.9375,0
56250,-11.25,63.9375,28.5625,0
56270,-12.0625,61.125,29.1875,0
56290,-9.5625,58.8125,30.5,0
56310,-6.9375,58.1875,29.5,0
56330,-11.1875,56.9375,32.25,0
56350,-18.4375,54.875,38.9375,0
56370,-27.5625,50.0625,39.5,0
56390,-35.8125,44.6875,37.375,0
56410,-36.9375,34.5,36.6875,0
56430,-20.75,25.9375,35.5,0
56450,-8.8125,21.1875,33.875,0
56470,-2.875,19.6875,32.1875,0
56490,-7.1875,15.6875,30.125,0
56510,-13.3125,12,29.875,0
56530,-13.375,10.5625,29.6875,0
56550,-9.0625,11.3125,29.4375,0
56570,-5.5,11.6875,28.4375,0
56590,-5.5,10.1875,27.25,0
56610,-4.9375,7.9375,28.6875,0
56630,-6,7.4375,30.125,0
56650,-10.875,8.5,29.9375,0
56670,-16.5625,8,29.8125,0
56690,-17.75,5.4375,30,0
56710,-17.1875,2.6875,29.5625,0
56730,-14.25,1.375,28.875,0
56750,-16.3125,-2.4375,30.25,0
56770,-17.8125,-9.25,29.5625,0
56780,-16.4375,-13.625,28,0
56800,-17.3125,-19.25,30.5625,0
56820,-19.6875,-24.0625,33.125,0
56840,-23.5625,-27.8125,31.3125,0
56860,-23.5625,-30.6875,28.3125,0
56880,-26.0625,-33.5625,27.5625,0
56900,-26.75,-37.1875,24.25,0
56920,-24.5,-39.75,19.6875,0
56940,-19,-43.75,17.125,0
56960,-10.125,-46.9375,13.375,0
56980,-1.0625,-49.8125,10.6875,0
57000,5.875,-52.9375,8,0
57020,7.375,-55.5625,5.0625,0
57040,4.375,-57.0625,3.8125,0
57060,3.25,-57.625,4.9375,0
57080,-3.4375,-57.0625,8.25,0
57100,-10.875,-52.4375,11.625,0
57120,-15.625,-46,16,0
57140,-21.3125,-43.0625,18,0
57160,-18.25,-39.625,15.75,0
57180,-15.5625,-38.9375,13.9375,0
57200,-14.1875,-41.125,12.5625,0
57220,-15.75,-43.9375,11.3125,0
57240,-12.125,-49.125,7.5,0
57260,-8.6875,-53.625,3.6875,0
57280,-13.6875,-57.1875,-0.75,0
57300,-27.5,-58.5625,-5.0625,0
57320,-35.875,-61.875,-7.4375,0
57340,-30.5625,-65.5,-11.875,0
57360,-18.125,-68.5625,-19.6875,0
57380,-10,-66.8125,-25.75,0
57400,-6.125,-65.125,-26.625,0
57420,-4.0625,-67.0625,-28.375,0
57440,5.875,-69.9375,-32.9375,0
57460,9.8125,-68.0625,-35.3125,0
57480,8.125,-59.1875,-37.3125,0
57500,1.1875,-50.125,-39.6875,0
57520,-9.0625,-45.3125,-40.3125,0
57540,-2.8125,-38.625,-46.5,0
57560,5,-31,-41.5,0
57580,7.125,-26.125,-27.5,0
57600,7.9375,-26.25,-25.9375,0
57620,3.4375,-24.6875,-35.1875,0
57640,2.9375,-18.75,-37.625,0
57660,-6.4375,-13.4375,-30.4375,0
57680,-3.75,-11.25,-22.1875,0
57700,1.1875,-13.9375,-25.0625,0
57720,3.4375,-15.3125,-29.5625,0
57740,3.25,-14.75,-27.3125,0
57760,-2.9375,-11.9375,-22.75,0
57780,-7.5625,-10.4375,-21.9375,0
57800,-6.5625,-11,-22.1875,0
57820,-7.125,-12.625,-24,0
57840,-5.75,-15.25,-27.375,1001
57860,-7.3125,-17.125,-28.0625,0
57880,-9.8125,-16.1875,-26.0625,0
57900,-10.9375,-16.5,-22.6875,0
57920,-12.5625,-12.9375,-19.375,0
57940,-12.3125,-7.8125,-12.6875,0
57960,-10.9375,-4.4375,-4.4375,0
57980,-6.375,-2.6875,0.375,0
58000,-1.6875,-3,1.75,0
58020,0.9375,-2.6875,0.1875,0
58040,1.5,-3.0625,-1.375,0
58060,1.8125,-3.6875,-2.75,0
58080,5.0625,-1.8125,-1.9375,0
58100,8.4375,2.625,-0.375,0
58120,10.75,7.5,-1.6875,0
58140,12.8125,10.75,-5.4375,0
58160,12.375,13.625,-5,0
58180,12.125,17.3125,-3.1875,0
58200,11.5625,21.5,-0.375,0
58220,15.0625,26.4375,4.5625,0
58240,18.625,30.0625,11,0
58260,15.25,34.625,15.5625,0
58280,17.5625,41.5,17.9375,0
58300,20.9375,47.5625,21.6875,0
58320,23.9375,54.25,26.4375,0
58340,30.4375,62.375,31.25,0
58360,36.8125,68.0625,34.625,0
58380,40.9375,73.375,39.8125,0
58400,49.75,76.5625,45.125,0
58420,56.4375,76.3125,52.4375,0
58440,59.9375,78.9375,56.8125,0
58460,65,83,58.875,0
58480,66.3125,83.375,61.9375,0
58500,62.5,82.5,66.125,0
58520,62.5625,76.9375,65.9375,0
58540,67.25,70.375,57.4375,0
58560,70,60.4375,48.3125,0
58580,72.25,51.4375,44.6875,0
58600,77,42.5625,42.1875,0
58620,77.875,33.875,41.3125,0
58640,72.4375,28.3125,39.4375,0
58660,60.5625,20.4375,40.25,0
58680,48.25,12.75,41.8125,0
58700,36.8125,5.625,42.0625,0
58720,31.5625,0.1875,40.1875,0
58740,29.0625,-3.5625,36.0625,0
58750,30.625,-8.625,33,0
58770,26.1875,-13.5625,33.875,0
58790,22.375,-14.1875,31.25,0
58810,16.5,-11.5625,28.0625,0
58830,12.25,-10.625,26.5625,0
58850,10.75,-11.8125,26,0
58870,9,-12.25,24.6875,0
58890,10,-10.625,21.875,0
58910,16.375,-9.6875,16.5,0
58930,19.5,-8.625,14.8125,0
58950,17.3125,-6.9375,15.25,0
58970,9.875,-5.375,13.8125,0
58990,7.1875,-3.5625,10.5,0
59010,5.4375,-2.9375,7.75,0
59030,6.75,-0.375,7,0
59050,7.4375,1.3125,7.25,0
59070,6.125,1.625,7.9375,0
59090,4.25,1.5625,6.6875,0
59110,0.875,4.875,4.0625,0
59130,-1.5,5.8125,3.375,0
59150,-4.5625,3.3125,3.9375,0
59170,-8.4375,2.125,5.9375,0
59190,-8.3125,2.5625,3,0
59210,-4.4375,1.6875,-3.375,0
59230,2.4375,0.75,-7.6875,0
59250,9.4375,-0.0625,-7.5,0
59270,11.0625,0.25,-7.0625,0
59290,13.5625,0.625,-9.5625,0
59310,10.5625,1.125,-10.1875,0
59330,4.25,0.6875,-8.625,0
59350,0.6875,1.6875,-6.5,0
59370,2.0625,1.75,-4.4375,0
59390,4.0625,0.6875,-2,0
59410,5.0625,0.5625,1.625,0
59430,1.4375,0.5625,2.8125,0
59450,-0.875,1.1875,1.5,0
59470,-3.875,1.875,1.125,0
59490,-4.9375,2.0625,1.9375,0
59510,-2.3125,2.4375,2.0625,0
59530,1.3125,2.8125,0.75,0
59550,3.875,2.75,-0.25,0
59570,4.4375,2.8125,-1.625,0
59590,2.9375,4.6875,-2.375,0
59610,1.25,5.8125,-1.25,0
59630,0.1875,6.375,-0.375,0
59650,-1.75,5.875,-2.8125,0
59670,-1.5,5.4375,-4.4375,0
59690,-0.75,4.1875,-3,0
59710,1,4.625,-3.0625,0
59730,1.75,5.0625,-5.375,0
59750,-0.4375,4.875,-5.3125,0
59770,-4.125,3.875,-3.25,0
59790,-6.0625,3.8125,-2.125,0
59810,-4.375,3.6875,-1.375,0
59830,-2.5,3.6875,-0.3125,0
59850,-2.8125,2.875,1.375,0
59870,-2.75,1.125,3.0625,1000
59890,-1.9375,0.9375,3,0
59910,-1.1875,-0.875,2.125,0
59930,-0.0625,-1.875,4.5625,0
59950,-2,-1.75,5.25,0
59970,-2.5,-3.625,1.1875,0
59990,-2.25,-6.1875,0.375,0
60010,-1.75,-7.75,2.5625,0
60030,-2.3125,-7.875,3.625,0
60050,-4.3125,-8.1875,3.0625,0
60070,-3.25,-8.75,1.125,0
60090,-4.5,-8.1875,-0.9375,0
60110,-5.375,-8.75,-0.375,0
60130,-4.875,-9.3125,1.3125,0
60150,-1.375,-9.625,0.9375,0
60170,0.8125,-10.625,0.5625,0
60190,-0.6875,-12.1875,2.125,0
60210,-3.375,-12.4375,2.8125,0
60230,-3.0625,-13.625,1.5,0
60250,-0.9375,-15.125,1.6875,0
60270,-2.25,-16.9375,3.5,0
60290,-1.75,-19.0625,3.8125,0
60310,-1.5,-21.5,3.25,0
60330,-4.1875,-24.4375,3,0
60350,-3.0625,-27.5,3.125,0
60370,-3.875,-30.8125,4.9375,0
60390,-2.5,-32.9375,6.125,0
60410,-2.6875,-34.375,4.0625,0
60430,-3.125,-34.3125,0.5,0
60450,-1.625,-36.25,-2.0625,0
60470,-2.5,-38.25,-2.625,0
60490,-5.25,-39.9375,-3.0625,0
60510,-7.0625,-41.1875,-6.1875,0
60530,-12.0625,-41.8125,-10.625,0
60550,-17.25,-38.625,-13.9375,0
60570,-17.1875,-35,-17,0
60590,-16,-35.0625,-21.75,0
60610,-17,-34.5625,-28.5,0
60630,-17.1875,-31.625,-34.375,0
60650,-15,-27.875,-37.1875,0
60670,-15,-23.6875,-41.25,0
60690,-16.3125,-19.5,-48.1875,0
60710,-14.3125,-14.6875,-56.75,0
60730,-12.125,-9.25,-63.0625,0
60750,-5.8125,-9.4375,-65.0625,0
60770,-3.0625,-8.5,-64.5,0
60790,-0.75,-6.625,-64.9375,0
60810,0.625,-3.0625,-67.1875,0
60830,-2,2.0625,-67.375,0
60850,-0.1875,6.0625,-64.625,0
60870,0.75,9.5625,-62.375,0
60890,-2,14.3125,-62.875,0
60910,-6.125,18.875,-65.875,0
60930,-8.875,20.1875,-66.0625,0
60950,-9,21.1875,-64.5625,0
60970,-9.0625,21.5625,-62,0
60990,-9.25,23.0625,-61.625,0
61010,-14.3125,25.3125,-60.1875,0
61030,-17.8125,27.25,-56.375,0
61050,-18.6875,27.3125,-51.9375,0
61070,-15,24.875,-48.375,0
61090,-14.3125,23.25,-45.3125,0
61110,-14.3125,20.4375,-41.0625,0
61130,-16.125,18.3125,-35.9375,0
61150,-17.625,16.125,-31.9375,0
61170,-16.5,13.6875,-29.0625,0
61190,-16.1875,12.0625,-27.75,0
61210,-15.0625,10.6875,-25.9375,0
61230,-14.5625,10.75,-25.5,0
61250,-13.3125,10.4375,-24.6875,0
61270,-12.875,12.4375,-25.5625,0
61290,-12.4375,15.0625,-25.75,0
61310,-11.875,17.1875,-25.6875,0
61330,-10.4375,18.9375,-24.1875,0
61350,-7.8125,21.125,-22.9375,0
61370,-8.0625,23.75,-20.75,0
61390,-8,25.5625,-18.25,0
61410,-7,25.4375,-15,0
61430,-5.3125,23.1875,-10.8125,0
61450,-1.8125,19.5,-6.25,0
61470,-1.6875,15.3125,-3.75,0
61490,-3.4375,12.375,-4.125,0
61510,-4.9375,9.75,-2.375,0
61530,-4.3125,8.0625,-1,0
61550,-4.125,7.75,-1.4375,0
61570,-2.25,7.25,-2.5,0
61590,-2,7.0625,-3.375,0
61610,-1.75,7,-3.6875,0
61630,-2,6.5625,-4.125,0
61650,-3,6.5,-3.3125,0
61670,-3.375,7.4375,-2.75,0
61690,-4.3125,8,-3.1875,0
61710,-3.75,8.4375,-2.8125,0
61730,-3.8125,8.8125,-2.125,0
61750,-4.3125,9.0625,-2,0
61770,-4.5,9.0625,-1.8125,0
61790,-4.3125,9.5625,-2.3125,0
61810,-4.875,9.6875,-1.9375,0
61830,-2.625,8.9375,-2.4375,0
61850,-1.375,7.5,-2.1875,0
61870,-2.125,6.5625,-1.375,0
61890,-3.1875,6.75,-1.3125,0
61910,-2.75,6.9375,-0.75,0
61930,-2.8125,6.5625,0.625,0
61950,-3.125,6.1875,1.5625,0
61970,-2.4375,6.25,1.125,0
61990,-1.4375,5.1875,0.8125,0
62010,-1.0625,4.3125,-0.0625,0
62030,-0.5,3.5625,-1.0625,0
62050,0.25,2.875,-0.5625,0
62070,2.75,2.6875,0.75,0
62090,2,2.875,2.125,0
62110,0.5,2.625,1.6875,0
62130,-2,3,1.75,0
62150,-2.4375,3.375,2.25,0
62160,-0.9375,2.6875,3.0625,0
62180,-0.25,1.9375,2.4375,0
62200,0.25,1.875,1.875,0
62220,-0.875,0.875,2.4375,0
62240,-0.4375,0.5,3.1875,0
62260,0.1875,-0.3125,3.4375,0
62280,0.375,-0.625,3.5625,0
62300,-0.1875,0,3.8125,0
62320,-0.8125,0.9375,3.75,0
62340,-1.375,1.4375,4.5,0
62360,-1.25,3.1875,4.9375,0
62380,-3.0625,5.25,5.4375,0
62400,-4.875,8.75,5.75,0
62420,-5.25,12.1875,5.4375,0
62440,-7.125,12.875,5.6875,0
62460,-7.125,15.25,5,0
62480,-6.0625,16.9375,3.3125,0
62500,-5.1875,17.9375,3.0625,0
62520,-2.5,18.75,2.5625,0
62540,-2.0625,18.0625,2,0
62560,-6.1875,18.8125,1.125,0
62580,-6.4375,18.875,-0.75,0
62600,-8.1875,21.5,-2.125,0
62620,-7.9375,22,-1.875,0
62640,-6.9375,19.25,-0.0625,0
62660,-1.5625,17,-2.375,0
62680,-2.8125,18.0625,-4.6875,0
62700,-6.5625,20.375,-5.0625,0
62720,-11.625,23.125,-5.1875,0
62740,-11.4375,23.5,-5.6875,0
62760,-4.4375,24.1875,-4.375,0
62780,-2.9375,27.5,-1.25,0
62800,-9.625,35.1875,3.625,0
62820,-13.6875,37.125,7,0
62840,-13.8125,34.8125,10.0625,0
62860,-5.875,33.1875,9.8125,0
62880,-5.0625,37.1875,10.6875,0
62900,-2,36.3125,11.5625,0
62920,-3.625,31.75,11.1875,0
62940,-4.9375,30.6875,9.5625,0
62960,-8.75,32.375,9.9375,0
62980,-8.3125,33.25,11.8125,0
63000,-2.875,30.375,12.4375,0
63020,2.375,27.375,10.625,0
63040,3.25,26.4375,9.875,0
63060,1.125,25.3125,9.6875,0
63080,1.0625,22.25,10.5625,0
63100,5.375,20.5625,11.8125,0
63120,8.9375,20.75,12.375,0
63140,4.5,23.0625,13.375,0
63160,-6.125,23.3125,16.25,0
63180,-5.9375,20.375,19.1875,0
63200,-1.5625,18.5625,23.6875,0
63220,3.5,16.6875,27.875,0
63240,-1.75,17.25,30.625,0
63260,-8.3125,15.3125,30.8125,0
63280,-9.0625,9.6875,31.3125,0
63300,-6.0625,4.625,32.375,0
63320,2.375,0.625,32.125,0
63340,2.4375,-3,31,0
63360,0.75,-7.625,30.75,0
63380,3.6875,-12.0625,32.1875,0
63400,5.625,-15.875,33.5,0
63420,9.375,-18.5625,33.0625,0
63440,8.8125,-20.25,32.1875,0
63460,4.8125,-21.5,33.0625,0
63480,4.625,-23.75,35.8125,0
63500,7.25,-24.9375,38.5,0
63520,8.75,-25.125,41.125,0
63540,6.9375,-24.8125,41.625,0
63560,6.25,-24.875,44.6875,0
63580,8,-25.0625,44.3125,0
63600,13.125,-26,42.75,0
63620,13.375,-26.9375,42.1875,0
63640,13.0625,-27.5,42.25,0
63660,9.4375,-28.5625,42.4375,0
63680,8.25,-27.75,40.5625,0
63700,8.4375,-27,40.125,0
63720,6.9375,-27.3125,41.4375,0
63740,5,-26.25,39.75,0
63760,2.9375,-25.125,37.0625,0
63780,1.8125,-24.3125,34.875,0
63800,0,-23.5625,33.8125,0
63820,-2.9375,-23.8125,33.375,0
63840,-4.0625,-24,32.0625,0
63860,-4.625,-24,30.5,0
63880,-6.375,-25,28.625,0
63900,-8.625,-25.875,27.9375,0
63920,-10.5,-25.9375,27.1875,0
63940,-11.6875,-26.6875,25.125,0
63960,-10,-28.125,20.3125,0
63980,-5.3125,-30.3125,16,0
64000,-3.1875,-33.5625,16,0
64020,-3.75,-35.375,15.0625,0
64040,-7.0625,-37,13.4375,0
64060,-6.9375,-38.6875,11.1875,0
64080,-5.5,-41.375,9.4375,0
64100,-5.75,-43.375,8.9375,0
64120,-7.125,-44.625,10.25,0
64140,-7.9375,-46.125,13.375,0
64150,-9.125,-47.5625,11.75,0
64170,-6.3125,-47.5625,6.625,0
64190,-5.25,-47.375,2.75,0
64210,-2,-47.6875,-0.625,0
64230,-1.625,-48.5625,-6.5,0
64250,0.8125,-50,-11.125,0
64270,4.1875,-49.75,-12.25,0
64290,5.9375,-49.375,-12.0625,0
64310,3.6875,-47.75,-12.5,0
64330,1.6875,-47.0625,-12.9375,0
64350,-4.25,-45.9375,-13.5,0
64370,-3.125,-42.0625,-15.625,0
64390,-5.4375,-38.625,-15.8125,0
64410,-6.375,-36.5,-13.25,0
64430,-4.5625,-35.3125,-12.875,0
64450,-4.75,-33.75,-13.4375,0
64470,-2.5625,-29.9375,-16.1875,0
64490,-4.4375,-24.6875,-16.125,0
64510,-8,-21.625,-14.875,0
64530,-9.0625,-20.0625,-15.375,0
64550,-5.875,-19.1875,-19.6875,0
64570,-4.5,-16.8125,-23.1875,0
64590,-5.8125,-12.8125,-24,0
64610,-6.6875,-8.5625,-22.4375,0
64630,-8.5,-5.8125,-22.6875,0
64650,-7.375,-3.25,-25.1875,0
64670,-6.25,0.875,-26.5625,0
64690,-6.5,3.125,-25.5,0
64710,-7.6875,2.8125,-26.4375,0
64730,-9.5625,3.625,-30.25,0
64750,-8.75,4.75,-32.6875,0
64770,-10.4375,6.125,-33.6875,0
64790,-10.0625,6.75,-34.75,0
64810,-10.3125,5.5625,-34.5,0
64830,-8.875,5.0625,-36.1875,0
64850,-11.0625,5.25,-36.3125,0
64870,-13.25,5.4375,-35.4375,0
64890,-14.3125,5.8125,-33.8125,0
64910,-15,4.375,-31.4375,0
64930,-16.6875,3.1875,-30.375,0
64950,-16.4375,4.3125,-30.3125,0
64970,-18.3125,6.6875,-28.375,0
64990,-20.8125,9.5625,-25.625,0
65010,-20.375,11,-26.1875,0
65030,-18,12.5625,-27.25,0
65050,-18.625,15.1875,-29.0625,0
65070,-18.5,17.4375,-30.3125,0
65090,-20.1875,18.5,-30.1875,0
65110,-18.3125,19.6875,-32.4375,0
65130,-15.875,20.1875,-35.375,0
65150,-14.3125,19.625,-37.1875,0
65170,-11.9375,17.4375,-37.0625,0
65190,-10.4375,12.5,-36.875,0
65210,-10.375,8.25,-38.6875,0
65230,-10.25,7.9375,-40,0
65250,-14.5625,10.625,-39.0625,0
65270,-19.1875,11.6875,-38.4375,0
65290,-19.9375,14.75,-37.6875,0
65310,-14.75,17.0625,-38.5,0
65330,-14.25,19.125,-38.8125,0
65350,-16.125,22.625,-39.5,0
65370,-18.375,26,-39.375,0
65390,-18.25,30.75,-38.4375,0
65410,-18.4375,36.625,-36.375,0
65430,-18.9375,42.5,-33.5,0
65450,-15.125,44.6875,-32,0
65470,-16.625,45.75,-30.375,0
65490,-17.625,47.4375,-30.9375,0
65510,-19.75,48.25,-30.6875,0
65530,-21.375,50.5625,-25.75,0
65550,-21.25,49.3125,-19.75,0
65570,-21.6875,47.6875,-16.5625,0
65590,-16.6875,46.75,-14,0
65610,-11.875,45.1875,-9.625,0
65630,-8.25,45.0625,-4.3125,0
65650,-7.6875,43.25,0.0625,0
65670,-5.3125,40.25,2.8125,0
65690,-9.875,41.0625,5.0625,0
65710,-12.3125,43.5625,7.125,0
65730,-18.75,44.875,10.8125,0
65750,-14,40.5625,13.8125,0
65770,-6,39.25,15.75,0
65790,-0.25,39.8125,16.125,0
65810,3.4375,42.8125,19.25,0
65830,-0.875,47.9375,25.125,0
65850,-17.625,54.6875,30.6875,0
65870,-25.9375,54.5,35,0
65890,-16.0625,50.875,36.0625,0
65910,-7.1875,46.9375,37.625,0
65930,-1.9375,44.5,38.4375,0
65950,-10.6875,41.5625,38.625,0
65970,-15.375,37.875,34.5625,0
65990,-16.5625,32.9375,31.375,0
66010,-17.75,28.0625,31.625,0
66030,-12.75,21.875,30.9375,0
66050,-8.625,14.8125,30.5,0
66070,-2.75,8.625,29.5625,0
66090,4.375,3.125,28.9375,0
66110,3.8125,-0.3125,29.6875,0
66130,-3.375,-3.4375,30.9375,0
66150,-7.5,-6.1875,32.0625,0
66170,-5.3125,-8.5625,32.625,0
66190,-2.5625,-11,32.625,0
66210,-3.125,-11.9375,33.3125,0
66230,-3.75,-10.5625,33.6875,0
66250,-6.3125,-8.4375,34.75,0
66270,-9.3125,-7.4375,37.125,0
66290,-14.5625,-6.9375,39.25,0
66310,-13.375,-6.125,42,0
66330,-11.75,-5.625,39.0625,0
66350,-11.3125,-6.9375,35.5,0
66370,-13.8125,-10.1875,35.8125,0
66390,-12.0625,-12.625,35.5625,0
66410,-10.3125,-13.125,33.8125,0
66430,-10.875,-15.5,32.25,0
66450,-12.1875,-19.375,31.625,0
66470,-10,-22.5625,30.5,0
66490,-7.5,-23.625,29,0
66510,-8.6875,-23.875,29,0
66530,-12.6875,-24.625,29.875,0
66550,-14.0625,-25.625,29.5,0
66570,-12.1875,-27.5625,28.1875,0
66590,-9.375,-28.5,27.625,0
66610,-11.1875,-27.75,28.8125,0
66630,-14.1875,-27.25,29.9375,0
66650,-17.625,-26.875,29.25,0
66670,-21.75,-28.5625,29.6875,0
66690,-21.3125,-29.5,28.1875,0
66710,-15.8125,-31.125,23.6875,0
66730,-10.375,-34.8125,19.875,0
66750,-4.75,-39.1875,17.6875,0
66770,-1.25,-44.5625,15.875,0
66790,0.8125,-48.3125,12.0625,0
66810,-2.75,-51.4375,9.4375,0
66830,-6,-54.125,7,0
66850,-7.8125,-57.5625,5.125,0
66870,-7.8125,-59.5,4.375,0
66890,-8.6875,-59.4375,2.5,0
66910,-9.6875,-59.5,-0.5,0
66930,-10.125,-60.6875,-2.75,0
66950,-9.125,-62.3125,-4.375,0
66970,-11.9375,-63.5,-4.3125,0
66990,-15.1875,-64.1875,-4.0625,0
67010,-14.75,-63.5,-5.625,0
67030,-12.75,-63.5,-8.5,0
67050,-8,-64.625,-10.0625,0
67070,-5.375,-65.125,-11.5,0
67090,-5,-62.8125,-14.6875,0
67110,-5.25,-59.1875,-14.75,0
67130,-7.375,-58.0625,-13.375,0
67150,-7.8125,-57.375,-14,0
67170,-3.875,-54.6875,-17.5,0
67190,1.8125,-50.0625,-20.5,0
67210,0.5,-45.875,-20,0
67230,-1.0625,-40.25,-18.9375,0
67250,1.9375,-37.3125,-20.625,0
67270,3.6875,-35.75,-24.125,0
67290,3.3125,-34.125,-26.4375,0
67310,-0.9375,-32.6875,-23.75,0
67330,-8.1875,-31.6875,-21.625,0
67350,-11.875,-30.4375,-24.375,0
67370,-13.75,-27.5,-28.875,0
67390,-11.75,-25.375,-30.4375,0
67410,-9.8125,-25.125,-32.9375,0
67430,-8.125,-24.0625,-35.875,0
67450,-11.625,-21.5,-38.6875,0
67470,-14.375,-18.0625,-39.6875,0
67490,-15.25,-15.75,-41.375,0
67510,-16.3125,-14.75,-43.125,0
67530,-15.3125,-13.0625,-46.3125,0
67550,-21.9375,-10,-44.5625,0
67560,-27.125,-7.9375,-42,0
67580,-27.0625,-3.625,-43.1875,0
67600,-24.0625,0.75,-45.375,0
67620,-27.4375,5.125,-44.5625,0
67640,-28.3125,8.0625,-45.875,0
67660,-25.875,10.75,-49.75,0
67680,-29.75,15.0625,-51.125,0
67700,-29.8125,19.5625,-51.9375,0
67720,-30.5,22.75,-51.9375,0
67740,-30.625,26.0625,-50.1875,0
67760,-30.0625,30.3125,-50.25,0
67780,-27.8125,35,-51.3125,0
67800,-25.0625,40.25,-48.0625,0
67820,-25,43.9375,-43.5,0
67840,-24.3125,48.3125,-39.8125,0
67860,-22.4375,53.0625,-38.375,0
67880,-18.25,55.8125,-34.8125,0
67900,-13.5625,59,-30.5,0
67920,-9.875,63.8125,-25.875,0
67940,-10.3125,69.5,-19.625,0
67960,-10.125,71.875,-13.4375,0
67980,-6.75,71.4375,-9.5625,0
68000,-4.5625,71,-6.875,0
68020,-6.625,70.6875,-1.3125,0
68040,-17.3125,69.9375,9.625,0
68060,-35.125,73.25,19.5,0
68080,-31.1875,70.625,16.1875,0
68100,-25.4375,59.8125,23.125,0
68120,-18.125,50.1875,26.0625,0
68140,-8.9375,46.1875,23.875,0
68160,-3.75,43.875,23.625,0
68180,-4.8125,44.625,26.8125,0
68200,-11.875,50.0625,29.25,0
68220,-28.9375,56.75,30.5625,0
68240,-30.9375,59.125,31.375,0
68260,-24.9375,57.4375,37.5625,0
68280,-7.9375,56.5625,43,0
68300,7.5,56.75,44.5625,0
68320,-0.4375,53.875,46,0
68340,-17.875,49.625,45.75,0
68360,-24.5625,47.75,43.125,0
68380,-28.375,50.125,43.9375,0
68400,-47,48.4375,50.1875,0
68420,-46,45.125,51.6875,0
68440,-39.375,38,51.625,0
68460,-30.9375,32.625,46.875,0
68480,-33.625,26.25,42.5,0
68500,-36.8125,19.125,37.625,0
68520,-33.625,13.1875,35.375,0
68540,-24.6875,10.625,34.875,0
68560,-21.375,11.5,33,0
68580,-21.1875,15.25,30.875,0
68600,-27.125,17.4375,31.875,0
68620,-24.75,16.6875,32.25,0
68640,-17,17.625,30.5625,0
68660,-9.375,18.0625,30.4375,0
68680,-4.5625,16.25,28.3125,0
68700,-0.125,13.875,24,0
68720,0,10.375,23.4375,0
68740,-1.5,7.25,27.0625,0
68760,-3.625,4.8125,25.25,0
68780,-4.5,2.9375,21.5625,0
68800,-9.875,1.0625,23.3125,0
68820,-16.6875,-0.9375,25.5,0
68840,-17.0625,-3.875,22.8125,0
68860,-13.6875,-7.8125,20.9375,0
68880,-10.1875,-11.9375,20.25,0
68900,-10.625,-16.0625,19.8125,0
68920,-14.375,-19.9375,19.6875,0
68940,-17.6875,-25.1875,18,0
68960,-18.125,-31.6875,14.5625,0
68980,-13.4375,-37.25,12.9375,0
69000,-9.8125,-40.5,11.5625,0
69020,-10.4375,-44.125,10.8125,0
69040,-14.8125,-47.6875,9.4375,0
69060,-22,-51,8.1875,0
69080,-26.8125,-53.5625,7.6875,0
69100,-30,-54.25,8.375,0
69120,-30.4375,-56.5625,8.1875,0
69140,-30.375,-59,4.875,0
69160,-28,-62.5,0.25,0
69180,-19.6875,-67.4375,-7.25,0
69200,-9.75,-72.75,-13.5,0
69220,-0.875,-78.5,-15.5625,0
69240,3.125,-82.625,-15.1875,0
69260,3.0625,-83.4375,-15.875,0
69280,1.1875,-82.5625,-18.4375,0
69300,-0.9375,-82.25,-22.8125,0
69320,0.75,-82.5,-27.1875,0
69340,7.1875,-82.5,-31,0
69360,9,-82.0625,-30.5625,0
69380,-2.0625,-81.875,-25.75,0
69400,-9.4375,-78.1875,-22.6875,0
69420,-20.1875,-75.5,-20.6875,0
69440,-30.9375,-74.625,-17.5,0
69450,-27.3125,-73.6875,-21.8125,0
69470,-15.25,-73,-32.4375,0
69490,-3.0625,-70.0625,-38.6875,0
69510,-3.4375,-66.875,-36.75,0
69530,-4.3125,-62.625,-34.75,0
69540,0.125,-61.125,-38.125,0
69560,4.25,-59.1875,-41.5625,0
69580,1.1875,-53.5,-42.3125,0
69600,-4.3125,-48.1875,-37.6875,0
69620,-5,-46.5625,-32.1875,0
69640,-2.5625,-51,-30.125,0
69660,5.5,-51,-35.3125,0
69680,9.75,-44.5625,-39.5625,0
69700,-1.5625,-36.375,-36.25,0
69720,-11.0625,-34.125,-33.5625,0
69740,-13.3125,-32.625,-36.5,0
69760,-12.375,-27.875,-39.9375,0
69780,-5.4375,-20.625,-39.0625,0
69800,-4.875,-12.6875,-32.125,0
69820,-7.75,-8.0625,-26.1875,0
69840,-5.75,-3.8125,-25.3125,0
69860,-4.1875,2.5625,-23.3125,0
69880,-6.8125,11.1875,-18.25,0
69900,-9.625,19.375,-11.375,0
69920,-9.4375,23,-5.5625,0
69940,-6.0625,24.125,-3.1875,0
69960,-3.75,23.4375,-1.0625,0
69980,-4.6875,23.6875,3.875,0
70000,-6.9375,24.5,10,0
70020,-8.8125,23.9375,12.1875,0
70040,-8.8125,20.5625,13,0
70060,-10.375,16.25,12.6875,0
70080,-7.5625,11.875,13.0625,0
70100,-6.6875,9.0625,14.5625,0
70120,-5.125,8.875,14.9375,0
70140,-6.375,8.3125,15.9375,0
70160,-10.75,7.25,19.8125,1001
70180,-13.5,5.6875,20.75,0
70200,-6.75,6,18.5625,0
70220,-4.1875,6.9375,17,0
70240,-4.625,6.375,14.5,0
70260,-6.375,4.25,11.5625,0
70280,-0.1875,3.0625,8.0625,0
70300,6.4375,2.9375,4.5625,0
70320,7,3.8125,2.625,0
70340,3.9375,4,3.125,0
70360,-0.25,4.375,3.5625,0
70380,3.0625,4.1875,1.4375,0
70400,9.8125,2.4375,-1.4375,0
70420,14.0625,0.875,-3.3125,0
70440,14.625,0.375,-4.0625,0
70460,11.8125,-0.0625,-4.5,0
70480,8.5,0.1875,-5.6875,0
70500,6.1875,1,-5.875,0
70520,7.75,0,-5.9375,0
70540,10.0625,0.8125,-4.8125,0
70560,8.375,2.875,-4.9375,0
70580,8.3125,4.75,-5.25,0
70600,8.4375,8.25,-1.125,0
70620,11.875,12.4375,4.75,0
70640,13.6875,15.875,7.6875,0
70660,18.75,21.5,10.8125,0
70680,15.5625,25.625,16.4375,0
70700,13.5625,34.0625,23.3125,0
70720,22.1875,45.375,30.1875,0
70740,28.125,52.6875,43.0625,0
70760,36.4375,53.625,52.125,0
70780,41.625,55.5625,54.6875,0
70800,40.625,62.5,57.3125,0
70820,44.5,68.6875,64.1875,0
70840,42.3125,67.875,71.9375,0
70860,42.875,66.25,71.8125,0
70880,42.375,74.5,69.125,0
70900,42.375,82.375,75.625,0
70920,40.8125,80,77.375,0
70940,42.1875,72.5625,75.875,0
70960,40.0625,66.9375,69.4375,0
70980,45,62.5,62.1875,0
71000,39.125,57.1875,66.25,0
71020,30.625,53.1875,70.9375,0
71040,25,47.0625,56.8125,0
71060,21,39.75,37.5,0
71080,23.5625,26.9375,29.75,0
71100,26.5,10.0625,31.6875,0
71120,26.375,-3,28.9375,0
71140,35.125,-8.4375,17.375,0
71160,43.875,-11.375,8.125,0
71180,47.6875,-14.4375,7.9375,0
71200,37.4375,-16.375,14.6875,0
71220,18.875,-14.5,15.0625,0
71240,9.5625,-9.625,8.5,0
71260,7.5625,-8.625,4.625,0
71280,8.1875,-12.375,6.3125,0
71300,7.625,-14.6875,6.4375,0
71320,8.1875,-14.4375,4.3125,1000
71340,11.0625,-14.3125,0.1875,0
71360,11,-14.8125,-1.9375,0
71380,11.1875,-16.1875,-2.375,0
71400,6.9375,-17,0.25,0
71420,3.8125,-15.5625,0.8125,0
71440,2,-12.6875,-1.9375,0
71460,1.4375,-10.3125,-4.4375,0
71480,-1.375,-8.9375,-4.5625,0
71500,-2.875,-8.125,-4.625,0
71520,-4.5625,-6.8125,-7,0
71540,-0.875,-5.0625,-8.625,0
71560,1.0625,-3.3125,-7.9375,0
71580,0,-1.6875,-4.25,0
71600,-1.4375,0.5,-0.4375,0
71620,-3.4375,2.5625,2.375,0
71640,-6.625,5.5,4.375,0
71660,-10,7.5,6.3125,0
71680,-7.5,6.5,6.1875,0
71700,-4.25,2.25,3.6875,0
71720,-2.1875,-1.25,-0.8125,0
71740,0.125,-4.3125,-3.875,0
71760,-3.0625,-6.3125,-5.25,0
71780,-5.4375,-7.875,-5,0
71800,-10.0625,-7.75,-4.375,0
71820,-11.4375,-7.3125,-4.375,0
71840,-11.3125,-7.125,-3.75,0
71860,-8.5,-7.75,-2.25,0
71880,-9.125,-8.3125,1.0625,0
71900,-5.9375,-8.875,-0.1875,0
71920,-4.8125,-8.8125,-3.25,0
71940,-2.9375,-9.4375,-4.9375,0
71960,-0.4375,-11.4375,-5.9375,0
71980,0.75,-12.375,-7.625,0
72000,2.1875,-14.3125,-9.4375,0
72020,2.75,-16.6875,-8.6875,0
72040,-1,-19.625,-6.5625,0
72060,-1.3125,-21.75,-7.4375,0
72080,-1.6875,-22.875,-7.875,0
72100,-3.0625,-22.6875,-9.875,0
72120,-7.6875,-22.375,-11.125,0
72140,-8.375,-23.625,-14.5625,0
72160,-7,-25,-18,0
72180,-3.1875,-24.25,-21.125,0
72200,-1.0625,-25,-22.1875,0
72220,-3.625,-26.625,-24.375,0
72240,-8,-27.0625,-26.8125,0
72260,-8.125,-30.3125,-33.3125,0
72280,-12.75,-28.9375,-36.5625,0
72300,-19.1875,-24.8125,-36.875,0
72320,-22,-21.5,-39.3125,0
72340,-22.5625,-17.5,-43.625,0
72360,-20.8125,-12.625,-44.25,0
72380,-18.1875,-7.375,-43.375,0
72400,-15.25,-0.875,-47,0
72420,-15.125,7.1875,-47.4375,0
72440,-18.75,14.5,-46.4375,0
72460,-19.625,20.625,-48.9375,0
72480,-19.9375,28.375,-52.9375,0
72510,-17.1875,39.25,-54.4375,0
72530,-15,41.8125,-55.375,0
72550,-14.625,45.25,-56.9375,0
72570,-16.625,47.5,-58.125,0
72590,-18.25,51.8125,-58.625,0
72610,-20.375,55.9375,-58.6875,0
72630,-22.375,60,-57.875,0
72640,-17.625,72.125,-61.625,0
72670,-19.6875,79.4375,-64.3125,0
72690,-18.625,80.1875,-63.0625,0
72710,-16.4375,78.8125,-58.5625,0
72730,-16.6875,79.75,-53.3125,0
72750,-20.0625,82.625,-49.3125,0
72770,-22.6875,83.875,-42.125,0
72790,-23.3125,81.9375,-32.25,0
72810,-24.8125,79,-23.375,0
72830,-18.0625,76,-16.9375,0
72850,-13.875,72.625,-11.0625,0
72860,-7.1875,67.375,-9.0625,0
72880,-2.375,64.0625,-8.25,0
72900,1.8125,60.8125,-8.8125,0
72920,3.5625,56.625,-7.1875,0
72940,7.5,50.1875,-4.125,0
72960,12.125,44.125,0,0
72980,13.625,39.8125,4.25,0
73000,10.875,35.875,10.375,0
73020,3.5,31.6875,15.4375,0
73040,-0.8125,28.8125,17.875,0
73060,-3.0625,25.9375,18.3125,0
73080,-2.875,25.25,21.75,0
73100,-3.625,25.6875,25.375,0
73120,-4.125,24.75,26.625,0
73140,-1.375,21,27.375,0
73160,3.625,20.125,31.1875,0
73180,3.875,20.4375,33.75,0
73200,1.4375,18.25,34.875,0
73220,-2.625,15.75,37.375,0
73240,0.0625,12.375,37.125,0
73260,1.625,13.9375,35.9375,0
73280,5.25,12.5,34.0625,0
73300,4.375,9.8125,34.25,0
73320,1.5625,7.5,34.75,0
73340,-0.25,5.1875,37.9375,0
73360,0.25,3.75,40.6875,0
73380,-1.75,1.125,40.9375,0
73400,-4.25,-2.375,41.5,0
73420,-2.75,-5.6875,42.0625,0
73440,-5,-7.125,41.8125,0
73460,-8.375,-8,39.0625,0
73480,-10.3125,-10.75,39.25,0
73500,-9.5625,-14.6875,38.5625,0
73520,-9.8125,-15.25,36.8125,0
73540,-8.0625,-14.6875,37.25,0
73560,-9.75,-15.9375,37.75,0
73580,-9.6875,-16.875,36.0625,0
73600,-7.1875,-16.8125,34.9375,0
73620,-7.4375,-17.75,35.875,0
73640,-10.5,-19.3125,35.5625,0
73660,-13.8125,-22.75,35.125,0
73680,-10.6875,-26.1875,33.5625,0
73700,-3.5625,-28.8125,32.3125,0
73720,-1.5625,-31.4375,32.375,0
73740,-5.75,-32.9375,32.8125,0
73760,-10.75,-34.3125,32.5,0
73780,-15.375,-35.0625,32.875,0
73800,-16.5625,-34.5625,34.625,0
73820,-15.1875,-34.3125,34.9375,0
73840,-17.625,-34.75,34.75,0
73860,-22.6875,-34.125,35.1875,0
73880,-22.0625,-34.1875,34.5,0
73900,-20.3125,-35.3125,31.25,0
73920,-18.8125,-35.6875,29.1875,0
73940,-17.9375,-36.9375,27.875,0
73960,-21.3125,-39.6875,27.375,0
73980,-19.125,-42.0625,24.6875,0
74000,-16.75,-44.4375,21.0625,0
74020,-15.5,-48.9375,18,0
74040,-17.125,-53.6875,16.3125,0
74060,-19.25,-58.375,14.375,0
74080,-19.75,-63.8125,12,0
74100,-20.625,-67.9375,10.1875,0
74120,-21.1875,-71.3125,9,0
74140,-22.875,-74.875,7.0625,0
74160,-23.9375,-77.3125,4.8125,0
74180,-21.75,-77.4375,3,0
74200,-15,-75.8125,2.4375,0
74220,-12.4375,-74.5625,3.5,0
74240,-10.625,-72.6875,3.25,0
74260,-7.625,-70.3125,-1.3125,0
74280,-4.75,-67.3125,-6.625,0
74300,-3.375,-64.25,-6.875,0
74320,-1.25,-59.75,-6.9375,0
74340,-0.6875,-56.375,-8.0625,0
74360,-5.8125,-55.1875,-12.625,0
74380,-1.4375,-52.6875,-19.375,0
74400,2.4375,-49.5625,-22.3125,0
74420,2,-45.5625,-21,0
74440,-0.1875,-41.875,-20.875,0
74460,-0.75,-39.8125,-24.0625,0
74480,-0.3125,-37.5625,-28.75,0
74500,-1.25,-35.6875,-30.125,0
74520,-8.5625,-30.125,-27.3125,0
74540,-13.5625,-24.1875,-25.625,0
74560,-19.5625,-19.75,-25.0625,0
74580,-18.75,-14.1875,-28.875,0
74600,-16.9375,-6.75,-30,0
74620,-9.3125,-0.5,-30.5,0
74640,-6.375,4.0625,-30.4375,0
74660,-9.0625,7.3125,-32.625,0
74680,-10.6875,9.75,-35.4375,0
74700,-14.375,12.875,-32.9375,0
74720,-11.5625,14.375,-33.6875,0
74740,-8.25,13.875,-37.3125,0
74760,-10.5625,14.9375,-41.9375,0
74780,-13.0625,16.625,-42.875,0
74800,-14.25,15.75,-46,0
74820,-11.625,15.875,-51,0
74840,-10.3125,17.875,-54.25,0
74850,-12.75,21.0625,-55.75,0
74870,-13.8125,25.5,-55.1875,0
74890,-15.625,30.3125,-53.0625,0
74910,-14.125,34.0625,-55.875,0
74930,-13.625,37.875,-57.75,0
74950,-12.75,39.9375,-58.1875,0
74970,-12.375,43.625,-56.0625,0
74990,-13.3125,45.875,-55.375,0
75010,-12.375,45.0625,-56.75,0
75030,-13.4375,45.1875,-57.875,0
75050,-14.375,44.75,-55.9375,0
75070,-11.5,43.375,-52,0
75090,-12.1875,42.625,-50.5,0
75110,-12.75,42.9375,-51.4375,0
75130,-13.875,44.0625,-47.875,0
75150,-14.5,43.0625,-42.8125,0
75170,-12.375,43.25,-39.375,0
75190,-9.6875,44.8125,-34.5625,0
75210,-10.0625,45.9375,-29.25,0
75230,-11.875,47.375,-25.0625,0
75250,-14.25,48.1875,-18.625,0
75270,-16.875,48.8125,-10.125,0
75290,-17.375,49.9375,-3.8125,0
75310,-19.5,51,0.1875,0
75330,-21.875,51.875,5.25,0
75350,-17.6875,49.9375,9.9375,0
75370,-13.5625,46.4375,13.375,0
75390,-11.25,47.0625,13.25,0
75410,-9.8125,47.25,12.75,0
75430,-9,46.625,11.6875,0
75450,-12.0625,44.6875,14.75,0
75470,-12.875,41.5625,19.1875,0
75490,-11.0625,36.125,23.25,0
75510,-3.875,29.3125,25.375,0
75530,-2.3125,24.25,30,0
75550,-1.375,19.1875,36.25,0
75570,-1.1875,16.125,40.25,0
75590,-7.0625,13.4375,43.1875,0
75610,-9.9375,7.6875,44.8125,0
75630,-6.3125,4.875,46,0
75650,-2.9375,3.5625,48.375,0
75670,-3.875,3.1875,49.9375,0
75690,-6.75,1.375,49.875,0
75710,-6.5625,0.125,46.625,0
75730,-0.9375,-1.625,43.9375,0
75750,1.25,-1.375,44.875,0
75770,3.0625,-1.8125,42.8125,0
75790,-0.875,-2.9375,39.125,0
75810,-2.625,-2.5,38.5,0
75830,-5.4375,-2.5625,39.5625,0
75850,-1.875,-5.0625,35.9375,0
75870,-0.625,-6.9375,33.1875,0
75890,-1.875,-9,33,0
75910,-0.375,-12,31.25,0
75930,0.875,-14.9375,30.0625,0
75950,2.75,-17.1875,29.3125,0
75970,0.25,-17.4375,29.4375,0
75990,-3.875,-17.5,30.125,0
76010,-7.3125,-18.4375,28.875,0
76030,-6.375,-20.375,27.3125,0
76050,-2,-21.1875,27.1875,0
76070,-0.8125,-20,27.375,0
76090,-7,-19.625,28.25,0
76110,-9.8125,-20.25,27.3125,0
76130,-9.125,-22.125,26.375,0
76150,-7.5,-23.0625,26.125,0
76170,-8.9375,-23.5625,25.25,0
76190,-9.0625,-25.6875,24.125,0
76210,-12.25,-28.5625,23.875,0
76230,-12.5625,-29.5,23.25,0
76250,-9.9375,-29.9375,23,0
76270,-11.3125,-31.4375,23.25,0
76290,-14.75,-32.6875,23.6875,0
76310,-15.375,-32.25,22.5625,0
76330,-13,-31.875,22,0
76350,-12.25,-31.5,21.1875,0
76370,-12.3125,-31.9375,21.1875,0
76390,-12.8125,-31.9375,18.625,0
76410,-7.9375,-32.0625,16,0
76430,-7.5625,-33.875,13.3125,0
76450,-6.4375,-34.5,9.75,0
76470,-8.3125,-35.75,8.0625,0
76490,-9.125,-37.9375,5.9375,0
76510,-8.9375,-40.375,3.4375,0
76530,-7.9375,-43.5,0.75,0
76550,-1.9375,-45.125,-2.6875,0
76570,-2,-46.875,-6,0
76590,-4.6875,-48.3125,-7.5625,0
76610,-5.125,-49.625,-8.1875,0
76630,-5.0625,-51.5625,-10.875,0
76650,-3.4375,-52.9375,-12.8125,0
76670,-1.4375,-53.5625,-13.375,0
76690,-6.5,-55.25,-12.4375,0
76710,-11.9375,-54.9375,-13.4375,0
76730,-9.25,-54.625,-16.875,0
76750,-8.75,-55.5,-17.3125,0
76770,-11,-57.75,-16.6875,0
76790,-12.5,-59.25,-18.375,0
76810,-14.125,-58.5625,-18.5625,0
76830,-18.4375,-56.6875,-18,0
76850,-13.6875,-54.25,-18.75,0
76870,-12.25,-53.5625,-20.0625,0
76890,-14.0625,-52.5625,-23,0
76910,-11.6875,-50,-24.625,0
76930,-10.875,-47,-24.9375,0
76950,-13.4375,-42.9375,-23.375,0
76970,-16.3125,-41.1875,-22.1875,0
76990,-7.625,-38.8125,-21.625,0
77010,1.75,-36.5625,-20.75,0
77030,-1.5,-35.125,-16.8125,0
77050,-6.8125,-32.875,-14.4375,0
77070,-6.875,-31.9375,-15.5,0
77090,-7,-33.25,-18.125,0
77110,-7.4375,-33.0625,-17.3125,0
77130,-5.125,-30.625,-15.9375,0
77150,-0.375,-27.875,-15.9375,0
77170,3,-25.875,-17.6875,0
77190,3.5,-24.1875,-20.0625,0
77210,0.75,-21.875,-22.0625,0
77230,-1.5,-18.8125,-22.625,0
77250,-4.25,-16.9375,-22.8125,0
77270,-4.25,-15.5625,-24.75,0
77290,-3.8125,-13.5625,-26.8125,0
77310,-4.1875,-10.625,-28.125,0
77330,-8.8125,-7.875,-25.75,0
77350,-13.125,-2.9375,-22.375,0
77370,-11.125,-1.3125,-20.875,0
77390,-7.8125,-0.25,-24.0625,0
77410,-9.25,2.25,-25.8125,0
77430,-15.1875,5.1875,-26.0625,0
77450,-19.0625,8.875,-25.3125,0
77470,-19,12.3125,-25.4375,0
77490,-17.6875,15,-26.4375,0
77510,-17.0625,18.6875,-24.8125,0
77530,-20.25,22.8125,-23.0625,0
77550,-22.5,27,-24.75,0
77570,-21.9375,30.1875,-26.5,0
77590,-21.875,32.75,-28.625,0
77610,-20.3125,34.375,-30.9375,0
77630,-19,36.1875,-32.625,0
77650,-19,36.375,-33.125,0
77670,-19.75,35.625,-33.5,0
77690,-18.1875,34,-35.125,0
77710,-17.9375,33.125,-35.0625,0
77730,-19.125,33.5625,-33.0625,0
77750,-21.5625,34.25,-31.125,0
77770,-22.1875,33.875,-31.5,0
77790,-21.5625,33,-32.5,0
77810,-19.8125,33.25,-31.75,0
77830,-18.125,34.5,-30.75,0
77850,-18.625,36.6875,-28.375,0
77870,-17.75,37.4375,-24.25,0
77890,-19.125,38.5625,-20.5,0
77910,-19.0625,40.8125,-17.1875,0
77930,-17.4375,43.875,-13.6875,0
77950,-17.875,47.25,-10.75,0
77970,-17.75,49.5,-7.5,0
77990,-14.375,50.9375,-6.0625,0
78010,-11.375,51.3125,-6.9375,0
78030,-8.6875,50.875,-9.0625,0
78050,-7.5625,51.375,-8.375,0
78070,-11.625,51.75,-4.4375,0
78090,-14.0625,50.75,-1.625,0
78110,-11.3125,48.25,-1.1875,0
78130,-6.625,45.625,-0.75,0
78150,-4.375,46,2.25,0
78170,-8.1875,49.625,8.625,0
78190,-11.4375,52.125,14.5,0
78210,-17.3125,55.125,20.9375,0
78230,-17.3125,56,23.8125,0
78250,-10.75,53.5,20.25,0
78260,-5.3125,52.625,18.8125,0
78280,-4.0625,52.6875,20.375,0
78300,-7.1875,51.3125,20.75,0
78320,-6.125,49.4375,18.5,0
78340,-7,47.5,15.6875,0
78360,-3.625,45.3125,15.125,0
78380,-4.6875,43.6875,16.5625,0
78400,-3.3125,42.5625,18.625,0
78420,-2.125,41.125,22.375,0
78440,-0.5625,41.5,23.25,0
78460,-1.625,43.125,22.375,0
78480,-4.8125,42.5625,23.375,0
78500,-6.9375,40.5,23.5625,0
78520,-11.8125,38.4375,22.5,0
78540,-13.375,38.875,23.625,0
78560,-14.625,36.8125,25.375,0
78580,-15.5,31.25,25.375,0
78600,-17.3125,25.4375,24.375,0
78620,-14.875,20.6875,24.5625,0
78640,-10.5625,16.0625,24.3125,0
78660,-7.6875,12.1875,23.875,0
78680,-7.75,9.4375,23.4375,0
78700,-9.4375,9.125,22.875,0
78720,-13.5625,9,23.8125,0
78740,-16.0625,7.4375,25.125,0
78760,-14.6875,3.4375,23.8125,0
78780,-8.5625,0.6875,22.25,0
78800,0.875,-0.1875,23.75,0
78820,-2.5625,-2.5,25.25,0
78840,-7.1875,-5.375,24.5625,0
78860,-9.0625,-8.3125,23.25,0
78880,-5.9375,-10.625,22.4375,0
78900,-2.0625,-12.6875,23.5625,0
78920,-0.625,-14.125,24.4375,0
78940,-5.0625,-15.9375,24.3125,0
78960,-12.375,-17.875,25.5625,0
78980,-18.1875,-18.3125,27.6875,0
79000,-20.625,-17.0625,29.125,0
79020,-23.0625,-16.9375,31.125,0
79040,-27.375,-16.125,31.125,0
79060,-31.375,-16.375,31.9375,0
79080,-29.875,-16.9375,34.25,0
79100,-28.5,-16,36.9375,0
79120,-30.5,-16,37.25,0
79140,-35,-17.5625,34.1875,0
79160,-35.4375,-19.25,29,0
79180,-34.5,-22.5,24.8125,0
79200,-30.0625,-25.5625,21.1875,0
79220,-24.3125,-26.75,20.5,0
79240,-17.8125,-29.375,19.5625,0
79260,-15.5625,-30.4375,16.4375,0
79280,-15.375,-31.25,13.8125,0
79300,-9.8125,-33,11.5625,0
79320,-11.0625,-33.625,9.9375,0
79340,-15.375,-33.3125,8.125,0
79360,-17.1875,-34.5,5.5,0
79380,-11.8125,-37.375,4.875,0
79400,-10.75,-41.6875,2.875,0
79420,-9.5,-43.625,-0.5625,0
79440,-17.25,-45.4375,-1.75,0
79460,-22.125,-46.8125,-3.1875,0
79480,-24.25,-49.6875,-4.625,0
79500,-21.125,-52.6875,-7.125,0
79520,-18.5625,-53.5,-9.3125,0
79540,-16.5625,-53.75,-11.25,0
79560,-13.625,-54.5625,-14.0625,0
79580,-12.625,-56.125,-15.875,0
79600,-10.8125,-56.9375,-16.8125,0
79620,-7.125,-56.375,-18.6875,0
79640,-5.375,-56.125,-21.625,0
79660,-6.875,-57.625,-25,0
79680,-6.5625,-59.5625,-28,0
79700,-7.5625,-62.9375,-30.875,0
79720,3.5,-63.8125,-35.625,0
79740,6.3125,-64.625,-37.875,0
79760,1.6875,-64.25,-35.5625,0
79780,-7.0625,-60.9375,-34.4375,0
79800,-9.5,-56.4375,-36,0
79820,-10.75,-53.6875,-38.6875,0
79840,-3.625,-53.125,-40.6875,0
79860,3.9375,-53,-41.3125,0
79880,3.25,-48.6875,-40.25,0
79900,-1.8125,-41.75,-39.5625,0
79920,-1.6875,-38,-40,0
79940,-2.8125,-36.25,-41.125,0
79960,-5.125,-32.8125,-42.5,0
79980,-2.5625,-29,-42.875,0
80000,-5.1875,-26.4375,-42.9375,0
80020,-7.25,-23.6875,-44.0625,0
80040,-12.375,-19.25,-43,0
80060,-12.5,-14.6875,-39.0625,0
80080,-9.5625,-9.625,-33.3125,0
80100,-9.125,-4,-27.75,0
80120,-9.5,-0.75,-23.25,0
80140,-9.625,3.375,-21.875,0
80160,-7.875,9.125,-19.9375,0
80180,-9.1875,12.625,-16.5625,0
80200,-10.125,15.25,-15.125,0
80220,-7.125,15.875,-15.5625,0
80240,-6.1875,14.0625,-16.1875,0
80250,-7.3125,13,-16.375,1001
80270,-9.0625,11.6875,-13.9375,0
80290,-10.25,9.125,-7.9375,0
80310,-9.75,5.8125,-3.875,0
80330,-7.625,4.5,-3,0
80350,-5.3125,1.3125,-4.5,0
80370,-3.375,-1.1875,-4.375,0
80390,-3.4375,-2.8125,-2.25,0
80410,-4.625,-3.75,-2.4375,0
80430,-0.5625,-5.75,-4.1875,0
80450,2,-6.375,-3.75,0
80470,3.5,-4.0625,-2.875,0
80490,6.5,0.5,-3.0625,0
80510,9.6875,4.6875,-4.875,0
80530,14.1875,7.4375,-3.375,0
80550,13.625,11.6875,3,0
80570,16.3125,14.3125,10,0
80590,22.75,18.5625,12.3125,0
80610,23.0625,26.625,14.75,0
80630,26.375,36.3125,22.75,0
80650,32,43.375,35.9375,0
80670,36.625,47.8125,49,0
80690,46.3125,53.9375,50.25,0
80710,60.375,65.125,53.4375,0
80730,68.125,72.25,75.25,0
80750,70.5,69.3125,101.312,0
80770,75.6875,65,109.562,0
80790,88.875,67.1875,97.625,0
80810,92.4375,69.625,92.5,0
80830,85.1875,65.4375,99.75,0
80850,78.3125,56.5,93.0625,0
80870,80.6875,49.6875,82,0
80890,71,38,82.5,0
80910,67.625,28.625,81.3125,0
80930,63.8125,18.125,71,0
80950,59.125,9.9375,59.1875,0
80970,53,2.5625,47.875,0
80990,45.8125,-4,40.3125,0
81010,39,-8.5,38.8125,0
81030,32,-9.0625,39.25,0
81050,17.4375,-5.75,35.75,0
81070,7.3125,1.375,29.5625,0
81090,0,6.6875,26.1875,0
81110,-4,7.6875,27.5625,0
81130,-3.1875,6.0625,26.6875,0
81150,-3,2.4375,20.125,0
81170,4.4375,1.3125,13.375,0
81190,11,2.4375,14.8125,1000
81210,12.0625,2.625,17,0
81230,2.5625,2.875,17.0625,0
81250,-2,4.5,12.5625,0
81270,-2.4375,3.5,9.375,0
81290,0,1.625,9.4375,0
81310,3.6875,-0.6875,8.9375,0
81330,7.125,-1.375,6.25,0
81350,8.25,-0.3125,3.875,0
81370,4.375,-0.0625,3.1875,0
81390,1.3125,0.875,3.0625,0
81410,-1.1875,0.1875,0.75,0
81430,-1.5625,-0.0625,-0.5625,0
81450,0.375,-1.3125,-1.625,0
81470,3.625,-2.5625,-3.875,0
81490,6,-3.5625,-3.6875,0
81510,6.6875,-3.9375,-3,0
81530,6.8125,-2.5625,-2.375,0
81550,5.25,0.25,-1.1875,0
81570,6.5,1.6875,-0.5,0
81590,7.0625,1.375,1.1875,0
81610,8.5,-0.375,1.5625,0
81630,9.75,-0.875,1.5,0
81650,7.9375,-0.75,3.625,0
81670,5.125,2.375,4.9375,0
81690,0.8125,1,4.75,0
81710,-5.8125,-0.75,6.875,0
81730,-11.625,-0.375,6.8125,0
81750,-13.4375,0.5625,7.0625,0
81770,-9.6875,1.0625,8.1875,0
81790,-7.9375,2.125,9.8125,0
81810,-9.75,2.5625,10.4375,0
81830,-13.4375,3.3125,8.3125,0
81850,-14,2.8125,4.5,0
81870,-12.6875,1.6875,1.1875,0
81890,-8.4375,0.9375,-2.25,0
81910,-6.3125,0.625,-6.75,0
81930,-3.8125,-0.625,-10.75,0
81950,-1,-1.3125,-13.1875,0
81970,-2.5625,-2,-12.3125,0
81990,-3.9375,-3.1875,-10.5,0
82010,-3.625,-4.625,-9.375,0
82030,-4.625,-7.125,-7.5,0
82050,-4.3125,-10.75,-4.1875,0
82070,-7.1875,-13,1.0625,0
82090,-8.375,-14.875,5.5,0
82110,-9.1875,-16.4375,7.5,0
82130,-8.25,-17.6875,8.25,0
82150,-7.1875,-18.25,9.125,0
82170,-6,-17.9375,8.625,0
82190,-0.4375,-17.875,6.1875,0
82210,3.8125,-20.375,2.4375,0
82230,4.375,-21.25,-0.9375,0
82250,4.0625,-22.125,-5.8125,0
82270,2.9375,-25.5,-8.75,0
