Timestamp, Angle x, Angle y, Angle z, Marker
30,-0.811899,0.783558,-0.318391,0
60,-0.812756,0.783936,-0.317838,0
80,-0.813773,0.784288,-0.317661,0
100,-0.814938,0.784472,-0.317289,0
120,-0.816778,0.783011,-0.318334,0
130,-0.817288,0.77935,-0.320176,0
150,-0.806164,0.772308,-0.318544,0
150,-0.791167,0.762032,-0.319142,0
190,-0.768097,0.685991,-0.189504,0
210,-0.777066,0.651284,-0.155888,0
230,-0.782802,0.611504,-0.120988,0
250,-0.78352,0.569285,-0.0809921,0
260,-0.782318,0.523754,-0.0385554,0
280,-0.786567,0.476508,-0.000799425,0
300,-0.79415,0.428027,0.0337815,0
310,-0.803415,0.379436,0.06871,0
310,-0.815251,0.333521,0.105671,0
360,-0.829802,0.293085,0.144811,0
380,-0.845414,0.25913,0.183724,0
400,-0.860201,0.23018,0.221661,0
420,-0.874123,0.204543,0.260105,0
440,-0.888048,0.184212,0.299206,0
460,-0.902659,0.169428,0.338551,0
470,-0.922826,0.155822,0.407143,0
510,-0.933105,0.114709,0.440793,0
530,-0.92702,0.101784,0.449057,0
550,-0.923707,0.0915877,0.458617,0
570,-0.93644,0.0806046,0.475614,0
590,-0.950045,0.0758791,0.479448,0
610,-0.963533,0.0727346,0.477706,0
630,-0.971473,0.0723949,0.47319,0
640,-0.976828,0.0729263,0.470546,0
660,-0.98327,0.0718682,0.471263,0
680,-0.990659,0.0712836,0.475281,0
700,-0.996566,0.0725839,0.48134,0
720,-1.00064,0.0718364,0.487332,0
740,-1.00169,0.0664687,0.492362,0
760,-1.00149,0.0572703,0.497039,0
780,-1.00097,0.046572,0.502775,0
800,-0.997788,0.0334221,0.507798,0
820,-0.994938,0.0173763,0.51209,0
840,-0.995337,0.00386153,0.516596,0
860,-1.00024,-0.00174426,0.522367,0
860,-1.00827,0.00172246,0.529431,0
880,-1.01822,0.0127392,0.539441,0
900,-1.02577,0.0256864,0.549616,0
900,-1.029,0.0370827,0.558296,0
920,-1.02865,0.0475301,0.564838,0
920,-1.02511,0.0588391,0.569468,0
940,-1.01786,0.0713662,0.573014,0
950,-1.008,0.0855624,0.575752,0
960,-0.997293,0.100472,0.579348,0
1030,-0.939503,0.132543,0.564248,0
1050,-0.811784,0.188241,0.419066,0
1070,-0.792417,0.223701,0.363341,0
1090,-0.779423,0.267939,0.303014,0
1100,-0.775275,0.312519,0.236922,0
1120,-0.768616,0.351321,0.166588,0
1140,-0.754447,0.389322,0.106871,0
1160,-0.739461,0.42564,0.0538096,0
1180,-0.735756,0.460543,-0.00335389,0
1210,-0.755499,0.541089,-0.125342,0
1240,-0.785042,0.636161,-0.249345,0
1260,-0.801606,0.688029,-0.318472,0
1300,-0.742628,0.694295,-0.364236,0
1330,-0.7563,0.688353,-0.340676,0
1370,-0.791369,0.759045,-0.330321,0
1390,-0.810998,0.754443,-0.326683,0
1410,-0.814898,0.751026,-0.321897,0
1430,-0.822254,0.738706,-0.322031,0
1460,-0.857806,0.696544,-0.364173,0
1480,-0.889229,0.618276,-0.445142,0
1500,-0.878112,0.569166,-0.485736,0
1520,-0.846882,0.509024,-0.517193,0
1540,-0.80913,0.432707,-0.543381,0
1560,-0.782703,0.345709,-0.570791,0
1580,-0.763941,0.259816,-0.589182,0
1600,-0.750439,0.171885,-0.599593,0
1620,-0.742004,0.082089,-0.610004,0
1640,-0.730884,-0.00541396,-0.617234,0
1660,-0.719239,-0.0893797,-0.620834,0
1680,-0.704332,-0.169894,-0.623024,0
1700,-0.691193,-0.24503,-0.622591,0
1720,-0.683178,-0.313902,-0.618417,0
1740,-0.67783,-0.376669,-0.612568,0
1760,-0.67301,-0.434635,-0.606096,0
1780,-0.668594,-0.486426,-0.596984,0
1800,-0.664536,-0.532523,-0.587444,0
1820,-0.66177,-0.573097,-0.575683,0
1840,-0.661788,-0.604658,-0.562143,0
1860,-0.666982,-0.629514,-0.546414,0
1880,-0.677022,-0.649195,-0.527802,0
1900,-0.688345,-0.664599,-0.508866,0
1920,-0.699931,-0.676809,-0.492078,0
1940,-0.710072,-0.684649,-0.47741,0
1960,-0.72042,-0.688402,-0.465036,0
1980,-0.72828,-0.690066,-0.455689,0
2000,-0.732694,-0.69024,-0.449827,0
2020,-0.733694,-0.68993,-0.446827,0
2040,-0.734377,-0.691222,-0.444256,0
2060,-0.73656,-0.693952,-0.440646,0
2080,-0.740928,-0.696062,-0.436722,0
2100,-0.746375,-0.696724,-0.432459,0
2120,-0.752031,-0.69813,-0.42667,0
2140,-0.760883,-0.700657,-0.418842,0
2160,-0.768145,-0.700505,-0.413685,0
2180,-0.771744,-0.699013,-0.412876,0
2200,-0.77624,-0.698865,-0.411608,0
2220,-0.779084,-0.701723,-0.411442,0
2240,-0.778818,-0.705296,-0.413307,0
2260,-0.775978,-0.706391,-0.417146,0
2280,-0.772465,-0.707385,-0.422471,0
2300,-0.770395,-0.710329,-0.425554,0
2320,-0.768238,-0.713621,-0.428266,0
2340,-0.765669,-0.71651,-0.430737,0
2360,-0.764161,-0.718628,-0.432249,0
2380,-0.762208,-0.719875,-0.433435,0
2400,-0.760499,-0.72215,-0.433656,0
2420,-0.760142,-0.724971,-0.433114,0
2440,-0.762108,-0.726324,-0.431813,0
2460,-0.765307,-0.726455,-0.431123,0
2480,-0.767974,-0.725337,-0.432929,0
2500,-0.7665,-0.721157,-0.43939,0
2520,-0.76106,-0.711049,-0.451429,0
2540,-0.756982,-0.693335,-0.465171,0
2560,-0.760494,-0.667249,-0.476011,0
2580,-0.770882,-0.631842,-0.484098,0
2590,-0.781095,-0.586112,-0.49249,0
2610,-0.790883,-0.53021,-0.500426,0
2630,-0.799889,-0.459581,-0.50574,0
2650,-0.811769,-0.378737,-0.509239,0
2670,-0.822813,-0.295727,-0.510043,0
2680,-0.834784,-0.21014,-0.507294,0
2700,-0.851752,-0.122623,-0.505388,0
2720,-0.874024,-0.0366984,-0.509591,0
2740,-0.898498,0.0451532,-0.513308,0
2760,-0.921752,0.127425,-0.50844,0
2780,-0.940452,0.209126,-0.495925,0
2800,-0.955416,0.282314,-0.486494,0
2820,-0.964409,0.346585,-0.482642,0
2840,-0.963885,0.403831,-0.481059,0
2860,-0.952628,0.455028,-0.478462,0
2880,-0.932523,0.503385,-0.473339,0
2900,-0.910528,0.550926,-0.465989,0
2920,-0.88856,0.598355,-0.457227,0
2960,-0.909186,0.694431,-0.400934,0
2980,-0.946375,0.666196,-0.392821,0
3000,-0.948814,0.637115,-0.386138,0
3020,-0.910331,0.621332,-0.380311,0
3040,-0.860845,0.612571,-0.376807,0
3060,-0.82283,0.612514,-0.372079,0
3080,-0.803538,0.620725,-0.364909,0
3100,-0.805315,0.632824,-0.354881,0
3120,-0.820217,0.644584,-0.343373,0
3140,-0.839469,0.653836,-0.332485,0
3160,-0.855472,0.660625,-0.321183,0
3180,-0.864769,0.664418,-0.311183,0
3200,-0.868739,0.666955,-0.304512,0
3220,-0.869948,0.669349,-0.30019,0
3240,-0.870465,0.672523,-0.29733,0
3260,-0.871134,0.675475,-0.296393,0
3260,-0.870328,0.677707,-0.296237,0
3300,-0.852283,0.686918,-0.297205,0
3330,-0.848034,0.688526,-0.299313,0
3350,-0.846998,0.688705,-0.301062,0
3380,-0.848018,0.68942,-0.308027,0
3400,-0.853077,0.69231,-0.315229,0
3420,-0.855206,0.695915,-0.316241,0
3440,-0.85552,0.696698,-0.316082,0
3460,-0.85599,0.697348,-0.316022,0
3480,-0.855747,0.69773,-0.315824,0
3500,-0.855453,0.697919,-0.315669,0
3500,-0.854046,0.698741,-0.315065,0
3520,-0.852653,0.698825,-0.314397,0
3540,-0.851524,0.699324,-0.31399,0
3550,-0.849912,0.699603,-0.313296,0
3550,-0.84808,0.699689,-0.31259,0
3570,-0.846508,0.699915,-0.312026,0
3590,-0.844971,0.699811,-0.311476,0
3630,-0.844066,0.700391,-0.31121,0
3640,-0.84403,0.70156,-0.310917,0
3640,-0.843163,0.706061,-0.308547,0
3680,-0.841082,0.712103,-0.305878,0
3690,-0.839436,0.712844,-0.305106,0
3730,-0.836158,0.713927,-0.304206,0
3740,-0.834957,0.714553,-0.303606,0
3760,-0.834678,0.717571,-0.300459,0
3790,-0.834517,0.719656,-0.298583,0
3810,-0.834392,0.719847,-0.298478,0
3830,-0.834392,0.719847,-0.298478,0
3850,-0.83075,0.719463,-0.300083,0
3860,-0.829857,0.719254,-0.300473,0
3880,-0.830198,0.719325,-0.30118,0
3900,-0.830552,0.719529,-0.301841,0
3930,-0.829986,0.719677,-0.302419,0
3960,-0.833228,0.72212,-0.299376,0
3990,-0.835513,0.724746,-0.295261,0
4010,-0.835384,0.725411,-0.293866,0
4030,-0.83543,0.72608,-0.292531,0
4050,-0.835863,0.726734,-0.291742,0
4070,-0.835858,0.727241,-0.290748,0
4090,-0.836066,0.727729,-0.290243,0
4120,-0.834366,0.728239,-0.291145,0
4140,-0.83409,0.728304,-0.291749,0
4160,-0.833773,0.728423,-0.292219,0
4230,-0.830864,0.715729,-0.313767,0
4250,-0.825412,0.712501,-0.318141,0
4260,-0.820912,0.709146,-0.321867,0
4260,-0.816722,0.705275,-0.327021,0
4280,-0.818318,0.704099,-0.329664,0
4310,-0.821333,0.702537,-0.334299,0
4330,-0.823692,0.702056,-0.335909,0
4360,-0.830892,0.706097,-0.327762,0
4380,-0.831668,0.706463,-0.326036,0
4390,-0.832923,0.707645,-0.324497,0
4420,-0.835844,0.70943,-0.328303,0
4440,-0.83206,0.711776,-0.329509,0
4460,-0.831903,0.713587,-0.327824,0
4470,-0.833026,0.715599,-0.325357,0
4490,-0.835163,0.718886,-0.318487,0
4530,-0.837713,0.724664,-0.30398,0
4550,-0.837309,0.725413,-0.302169,0
4560,-0.836963,0.726962,-0.298979,0
4580,-0.837153,0.72782,-0.297526,0
4600,-0.837211,0.729018,-0.296126,0
4600,-0.837142,0.730014,-0.29464,0
4620,-0.837065,0.731159,-0.293313,0
4640,-0.836981,0.732055,-0.292166,0
4660,-0.837648,0.73347,-0.290786,0
4680,-0.838125,0.734075,-0.290132,0
4700,-0.83848,0.734757,-0.28951,0
4710,-0.838823,0.735306,-0.288932,0
4730,-0.838893,0.735857,-0.288364,0
4750,-0.8388,0.736538,-0.287693,0
4780,-0.839097,0.737998,-0.286692,0
4800,-0.839671,0.738633,-0.286266,0
4830,-0.840549,0.739877,-0.285127,0
4850,-0.840935,0.740376,-0.284684,0
4880,-0.84113,0.740397,-0.28484,0
4910,-0.841325,0.740817,-0.284973,0
4940,-0.842741,0.741191,-0.285333,0
4960,-0.84313,0.740863,-0.285473,0
4980,-0.843682,0.740007,-0.285739,0
5000,-0.84532,0.741927,-0.285866,0
5030,-0.850273,0.742137,-0.287287,0
5040,-0.850329,0.742216,-0.28738,0
5090,-0.85322,0.741907,-0.288367,0
5110,-0.854355,0.740612,-0.291216,0
5130,-0.853607,0.740556,-0.292105,0
5150,-0.855036,0.742338,-0.291504,0
5190,-0.859677,0.74469,-0.288764,0
5210,-0.859839,0.745721,-0.28808,0
5250,-0.858312,0.746233,-0.287798,0
5280,-0.858748,0.746299,-0.286191,0
5320,-0.859366,0.746346,-0.284349,0
5340,-0.859113,0.745726,-0.284255,0
5360,-0.859088,0.745336,-0.284474,0
5380,-0.858806,0.744447,-0.28446,0
5400,-0.858231,0.744,-0.284101,0
5420,-0.856918,0.743238,-0.283284,0
5440,-0.857132,0.742881,-0.283066,0
5460,-0.857031,0.742551,-0.282424,0
5470,-0.85679,0.741855,-0.281444,0
5490,-0.855183,0.741321,-0.279437,0
5510,-0.855177,0.741134,-0.278886,0
5530,-0.855366,0.740969,-0.278494,0
5540,-0.856085,0.740845,-0.278579,0
5560,-0.855579,0.740638,-0.278572,0
5560,-0.854456,0.740092,-0.27867,0
5560,-0.853842,0.739727,-0.278479,0
5580,-0.853505,0.739365,-0.278279,0
5590,-0.853397,0.737949,-0.278399,0
5630,-0.851383,0.735713,-0.277939,0
5640,-0.851948,0.735148,-0.276076,0
5660,-0.852057,0.735094,-0.275417,0
5670,-0.852031,0.735717,-0.273271,0
5690,-0.851686,0.736302,-0.271434,0
5710,-0.851863,0.736307,-0.271494,0
5730,-0.851686,0.736302,-0.271434,0
5730,-0.851471,0.736631,-0.271354,0
5750,-0.851471,0.736631,-0.271354,0
5780,-0.850367,0.735727,-0.27046,0
5810,-0.850201,0.735084,-0.266954,0
5850,-0.849625,0.734777,-0.265842,0
5860,-0.849369,0.734974,-0.265081,0
5880,-0.849375,0.734949,-0.264787,0
5880,-0.8493,0.734757,-0.264112,0
5880,-0.849266,0.734788,-0.263684,0
5900,-0.84945,0.734769,-0.263449,0
5910,-0.849612,0.734639,-0.262632,0
5960,-0.849102,0.733831,-0.262015,0
5970,-0.848774,0.73319,-0.26171,0
5990,-0.84877,0.733029,-0.261458,0
6020,-0.847783,0.731846,-0.261314,0
6040,-0.845501,0.730616,-0.260138,0
6080,-0.844807,0.730589,-0.257574,0
6100,-0.844444,0.73081,-0.256259,0
6120,-0.843563,0.731519,-0.254399,0
6140,-0.843312,0.732246,-0.252646,0
6160,-0.843178,0.733087,-0.250486,0
6180,-0.843213,0.733801,-0.248428,0
6200,-0.843248,0.734517,-0.24637,0
6220,-0.843293,0.735371,-0.244267,0
6240,-0.843611,0.736515,-0.242263,0
6260,-0.843762,0.737631,-0.239905,0
6280,-0.843852,0.738852,-0.237998,0
6300,-0.844097,0.739713,-0.236674,0
6320,-0.843686,0.740435,-0.235574,0
6340,-0.842558,0.742191,-0.234074,0
6360,-0.842133,0.743095,-0.233514,0
6390,-0.842283,0.743712,-0.233458,0
6410,-0.842462,0.74372,-0.233518,0
6430,-0.842549,0.743863,-0.233602,0
6450,-0.842512,0.743801,-0.233609,0
6470,-0.842512,0.743801,-0.233609,0
6490,-0.842778,0.743952,-0.233753,0
6540,-0.843007,0.744041,-0.233905,0
6580,-0.843301,0.744445,-0.233667,0
6600,-0.843511,0.744961,-0.233159,0
6620,-0.843625,0.745357,-0.232861,0
6630,-0.844057,0.745826,-0.232549,0
6650,-0.844448,0.746353,-0.232102,0
6670,-0.844889,0.74696,-0.231746,0
6710,-0.84558,0.747615,-0.230955,0
6740,-0.845875,0.748021,-0.230719,0
6780,-0.845921,0.748221,-0.230667,0
6810,-0.846151,0.748858,-0.229822,0
6830,-0.846405,0.749321,-0.22945,0
6850,-0.846973,0.749602,-0.229252,0
6870,-0.847278,0.750147,-0.228973,0
6890,-0.847805,0.750486,-0.22864,0
6920,-0.848721,0.751257,-0.2283,0
6940,-0.848721,0.751257,-0.2283,0
6960,-0.848768,0.751458,-0.228248,0
6970,-0.848768,0.751458,-0.228248,0
6990,-0.848841,0.751364,-0.228814,0
7010,-0.849105,0.751417,-0.229399,0
7030,-0.849193,0.75156,-0.229483,0
7050,-0.849336,0.751506,-0.229553,0
7070,-0.8503,0.751927,-0.230161,0
7090,-0.851358,0.752214,-0.230747,0
7100,-0.852514,0.752782,-0.231376,0
7120,-0.853899,0.75318,-0.232348,0
7140,-0.855001,0.753409,-0.233072,0
7160,-0.856954,0.754545,-0.234511,0
7180,-0.85807,0.754911,-0.235197,0
7200,-0.858342,0.755064,-0.235344,0
7220,-0.858262,0.755058,-0.235217,0
7240,-0.858559,0.755192,-0.236091,0
7260,-0.85836,0.7555,-0.23673,0
7280,-0.85803,0.755723,-0.237148,0
7290,-0.858071,0.755944,-0.237394,0
7330,-0.857063,0.755446,-0.237705,0
7350,-0.856743,0.754919,-0.238272,0
7370,-0.855653,0.754538,-0.238314,0
7390,-0.854191,0.754281,-0.238384,0
7410,-0.852367,0.753571,-0.237969,0
7430,-0.851231,0.752832,-0.237811,0
7440,-0.850331,0.751904,-0.237699,0
7460,-0.850362,0.751272,-0.237516,0
7480,-0.850514,0.750759,-0.236929,0
7500,-0.850529,0.750558,-0.236087,0
7510,-0.850202,0.750458,-0.234785,0
7530,-0.850065,0.750346,-0.23325,0
7550,-0.850453,0.750316,-0.231571,0
7570,-0.850782,0.750227,-0.230093,0
7590,-0.851144,0.750102,-0.229046,0
7610,-0.850906,0.749733,-0.227766,0
7650,-0.850032,0.748898,-0.226012,0
7670,-0.849474,0.748437,-0.225665,0
7690,-0.84845,0.747696,-0.22545,0
7710,-0.84787,0.74686,-0.225629,0
7730,-0.847469,0.746191,-0.226119,0
7740,-0.84692,0.745319,-0.226728,0
7760,-0.846807,0.744254,-0.228166,0
7780,-0.847055,0.743755,-0.228728,0
7800,-0.847491,0.743401,-0.229305,0
7820,-0.847578,0.743544,-0.229389,0
7840,-0.84772,0.743491,-0.229457,0
7860,-0.84772,0.743491,-0.229457,0
7880,-0.847987,0.743642,-0.229601,0
7900,-0.848511,0.743604,-0.229596,0
7920,-0.84912,0.743828,-0.229532,0
7940,-0.849728,0.744052,-0.229468,0
7960,-0.850247,0.744253,-0.229177,0
7980,-0.850728,0.744392,-0.228895,0
8000,-0.851213,0.744412,-0.228756,0
8040,-0.851732,0.744614,-0.228465,0
8060,-0.85161,0.744786,-0.22806,0
8080,-0.85161,0.744786,-0.22806,0
8090,-0.85166,0.744867,-0.228152,0
8100,-0.851927,0.745018,-0.228297,0
8120,-0.85189,0.744956,-0.228305,0
8150,-0.85212,0.745046,-0.228458,0
8190,-0.852259,0.745112,-0.228383,0
8210,-0.852527,0.745263,-0.228527,0
8230,-0.852489,0.745201,-0.228536,0
8250,-0.852602,0.745186,-0.228176,0
8270,-0.852793,0.745175,-0.227943,0
8300,-0.853307,0.745121,-0.227839,0
8320,-0.853412,0.744968,-0.227522,0
8340,-0.853237,0.744682,-0.227354,0
8360,-0.853274,0.744744,-0.227346,0
8380,-0.853237,0.744682,-0.227354,0
8400,-0.853417,0.744691,-0.227414,0
8420,-0.852704,0.744461,-0.227544,0
8450,-0.852603,0.744456,-0.22761,0
8470,-0.852606,0.744337,-0.227753,0
8510,-0.853016,0.744436,-0.227966,0
8530,-0.853103,0.744578,-0.22805,0
8550,-0.853103,0.744578,-0.22805,0
8560,-0.853333,0.744668,-0.228203,0
8580,-0.853866,0.744889,-0.228014,0
8610,-0.856923,0.745193,-0.228588,0
8630,-0.857441,0.745019,-0.228627,0
8650,-0.857887,0.744646,-0.22891,0
8660,-0.858365,0.744076,-0.229368,0
8680,-0.858481,0.743489,-0.229706,0
8700,-0.858364,0.742969,-0.230142,0
8730,-0.859019,0.741875,-0.230736,0
8760,-0.862607,0.739302,-0.232847,0
8780,-0.863363,0.738746,-0.233294,0
8800,-0.864261,0.738137,-0.233808,0
8820,-0.865531,0.737565,-0.234542,0
8840,-0.866562,0.737453,-0.235341,0
8860,-0.867596,0.737065,-0.236031,0
8880,-0.867991,0.736493,-0.236355,0
8900,-0.868652,0.736069,-0.236824,0
8930,-0.869304,0.735389,-0.237474,0
8960,-0.871618,0.734249,-0.239353,0
8980,-0.872496,0.733776,-0.240011,0
9000,-0.873144,0.73325,-0.24091,0
9010,-0.873828,0.732786,-0.241799,0
9030,-0.874295,0.732252,-0.242637,0
9050,-0.874887,0.73192,-0.243553,0
9060,-0.875582,0.731593,-0.244401,0
9060,-0.876365,0.731406,-0.245335,0
9080,-0.877202,0.731026,-0.246248,0
9100,-0.877945,0.730896,-0.247049,0
9120,-0.879014,0.730012,-0.248503,0
9140,-0.879759,0.729609,-0.249189,0
9160,-0.880811,0.729022,-0.250037,0
9210,-0.88316,0.727645,-0.251477,0
9230,-0.883968,0.727304,-0.251961,0
9240,-0.884905,0.726773,-0.252548,0
9260,-0.885623,0.726411,-0.252806,0
9260,-0.887611,0.725302,-0.253227,0
9280,-0.888343,0.724924,-0.253191,0
9300,-0.890142,0.724263,-0.253205,0
9310,-0.891195,0.723842,-0.253292,0
9310,-0.895898,0.723504,-0.252886,0
9330,-0.897108,0.723561,-0.252978,0
9350,-0.897662,0.723332,-0.253138,0
9370,-0.897848,0.723156,-0.253655,0
9410,-0.899081,0.722153,-0.255283,0
9430,-0.899715,0.721741,-0.256023,0
9430,-0.899728,0.721103,-0.256823,0
9450,-0.899839,0.720926,-0.257216,0
9460,-0.900018,0.720933,-0.257273,0
9490,-0.900428,0.720908,-0.257621,0
9510,-0.90066,0.720842,-0.257518,0
9550,-0.900855,0.720717,-0.257422,0
9580,-0.900797,0.720551,-0.256752,0
9600,-0.900813,0.720537,-0.256461,0
9620,-0.901202,0.720676,-0.256249,0
9650,-0.901324,0.720518,-0.255637,0
9670,-0.901324,0.720518,-0.255637,0
9710,-0.900556,0.720528,-0.255175,0
9730,-0.900504,0.720449,-0.25508,0
9750,-0.900467,0.720389,-0.255087,0
9750,-0.900556,0.720528,-0.255175,0
9770,-0.900856,0.720529,-0.254875,0
9790,-0.900909,0.720456,-0.254715,0
9830,-0.900501,0.72021,-0.254251,0
9850,-0.900196,0.720123,-0.253976,0
9890,-0.899983,0.719753,-0.253417,0
9910,-0.900074,0.71974,-0.253249,0
9930,-0.899823,0.71958,-0.252814,0
9950,-0.899609,0.71948,-0.252372,0
9970,-0.899037,0.719483,-0.251676,0
9970,-0.898697,0.719455,-0.251271,0
9990,-0.898713,0.719442,-0.25098,0
10010,-0.898802,0.719581,-0.251067,0
10030,-0.898802,0.719581,-0.251067,0
10060,-0.897571,0.719329,-0.249728,0
10080,-0.897446,0.719367,-0.249373,0
10100,-0.89691,0.719225,-0.248235,0
10120,-0.895861,0.71898,-0.246955,0
10160,-0.895559,0.718773,-0.245716,0
10200,-0.894726,0.718391,-0.244053,0
10210,-0.893179,0.717587,-0.24298,0
10230,-0.892543,0.717404,-0.242622,0
10250,-0.891721,0.716922,-0.241994,0
10270,-0.891444,0.716636,-0.24189,0
10310,-0.890408,0.716236,-0.240365,0
10330,-0.889688,0.715945,-0.239213,0
10350,-0.889658,0.715766,-0.238259,0
10360,-0.889567,0.715929,-0.237576,0
10400,-0.889693,0.715988,-0.235799,0
10440,-0.889592,0.716554,-0.233486,0
10460,-0.889867,0.716976,-0.231848,0
10480,-0.889992,0.71709,-0.231353,0
10500,-0.889864,0.717195,-0.230678,0
10510,-0.890809,0.71783,-0.230097,0
10530,-0.892874,0.717465,-0.224123,0
10560,-0.901453,0.704415,-0.217958,0
10580,-0.91776,0.652389,-0.225271,0
10620,-0.911573,0.548084,-0.245934,0
10640,-0.907975,0.502947,-0.250573,0
10660,-0.904797,0.455072,-0.253064,0
10680,-0.903454,0.403909,-0.253861,0
10700,-0.903306,0.349274,-0.252879,0
10720,-0.905607,0.293111,-0.25034,0
10740,-0.911349,0.238956,-0.246376,0
10760,-0.918055,0.186073,-0.239704,0
10780,-0.926868,0.134959,-0.230782,0
10800,-0.93933,0.086464,-0.221675,0
10820,-0.952936,0.0410255,-0.212303,0
10840,-0.968013,0.00048472,-0.201666,0
10860,-0.981368,-0.0360038,-0.190713,0
10880,-0.991946,-0.0700429,-0.1808,0
10900,-1.00157,-0.10221,-0.171406,0
10920,-1.01056,-0.131628,-0.16237,0
10940,-1.01907,-0.157962,-0.154071,0
10960,-1.02724,-0.181198,-0.146724,0
10980,-1.03515,-0.201796,-0.140373,0
11000,-1.04252,-0.219994,-0.134554,0
11020,-1.04851,-0.235856,-0.129332,0
11040,-1.0533,-0.248697,-0.124248,0
11060,-1.05792,-0.258871,-0.119233,0
11080,-1.06269,-0.266477,-0.114638,0
11100,-1.06728,-0.272148,-0.110417,0
11120,-1.07142,-0.276637,-0.106474,0
11140,-1.07515,-0.279633,-0.102284,0
11160,-1.07893,-0.281001,-0.0972936,0
11180,-1.08311,-0.280425,-0.0921086,0
11200,-1.08692,-0.278669,-0.0872224,0
11220,-1.09013,-0.277108,-0.0825772,0
11240,-1.09315,-0.276206,-0.0774236,0
11260,-1.09548,-0.275984,-0.0723688,0
11280,-1.09673,-0.275837,-0.0676587,0
11300,-1.09743,-0.275781,-0.0629742,0
11320,-1.09809,-0.275204,-0.0586244,0
11340,-1.09824,-0.274457,-0.0545637,0
11360,-1.09783,-0.273066,-0.0502576,0
11380,-1.09763,-0.270851,-0.0459789,0
11400,-1.09804,-0.268012,-0.0424555,0
11420,-1.09821,-0.265041,-0.0394657,0
11440,-1.09869,-0.262317,-0.0365932,0
11460,-1.09919,-0.259902,-0.0335197,0
11480,-1.09946,-0.25841,-0.0303434,0
11500,-1.09985,-0.257244,-0.0276817,0
11520,-1.1002,-0.256102,-0.0253005,0
11540,-1.1007,-0.255195,-0.0230469,0
11560,-1.10079,-0.254629,-0.020936,0
11580,-1.10117,-0.254135,-0.0188968,0
11600,-1.10185,-0.253862,-0.0176599,0
11620,-1.10233,-0.253442,-0.0171427,0
11640,-1.10294,-0.252781,-0.0164552,0
11660,-1.10377,-0.252382,-0.0154529,0
11680,-1.10399,-0.252,-0.0143401,0
11700,-1.10398,-0.251904,-0.0132478,0
11720,-1.10426,-0.251945,-0.0123336,0
11740,-1.10488,-0.251861,-0.0107115,0
11760,-1.1058,-0.251781,-0.00905445,0
11780,-1.10672,-0.251701,-0.00739755,0
11800,-1.10814,-0.25154,-0.00530746,0
11820,-1.10931,-0.251141,-0.00381303,0
11840,-1.10998,-0.251098,-0.00318596,0
11860,-1.10998,-0.251363,-0.00315213,0
11880,-1.10999,-0.251535,-0.00319262,0
11900,-1.10995,-0.252164,-0.00281099,0
11920,-1.10997,-0.25227,-0.00274515,0
11940,-1.10996,-0.252429,-0.00277712,0
11960,-1.11014,-0.252544,-0.00269787,0
11980,-1.11109,-0.252728,-0.00217309,0
12000,-1.11189,-0.252745,-0.00162975,0
12020,-1.1125,-0.252315,-0.00109388,0
12040,-1.11314,-0.25186,-0.000279936,0
12060,-1.11338,-0.251777,0.000577078,0
12080,-1.11407,-0.251837,0.00127048,0
12100,-1.11495,-0.251767,0.00149065,0
12120,-1.1152,-0.251319,0.00153946,0
12140,-1.11502,-0.251112,0.00138537,0
12160,-1.11431,-0.25082,0.00153725,0
12180,-1.11349,-0.250164,0.0024848,0
12200,-1.11275,-0.249695,0.00384309,0
12220,-1.11232,-0.249469,0.00509037,0
12240,-1.11131,-0.249582,0.00618775,1000
12260,-1.11008,-0.250582,0.00722946,0
12280,-1.10835,-0.252272,0.00733101,0
12300,-1.10739,-0.254097,0.00660255,0
12320,-1.10623,-0.255277,0.00572531,0
12340,-1.10576,-0.255701,0.00520933,0
12360,-1.10597,-0.256187,0.00538829,0
12380,-1.10681,-0.256812,0.00588587,0
12400,-1.10778,-0.257033,0.00658527,0
12420,-1.10818,-0.257357,0.00727865,0
12440,-1.10861,-0.258025,0.00789166,0
12460,-1.10963,-0.258855,0.00854576,0
12480,-1.1107,-0.259805,0.009259,0
12500,-1.11096,-0.26053,0.00975323,0
12520,-1.11113,-0.261103,0.0107168,0
12540,-1.11118,-0.261617,0.0117645,0
12560,-1.11159,-0.262082,0.0134072,0
12580,-1.11189,-0.262446,0.015421,0
12600,-1.11251,-0.262522,0.0177165,0
12620,-1.11391,-0.262657,0.0204621,0
12640,-1.11487,-0.262492,0.0233998,0
12660,-1.11567,-0.262329,0.0270235,0
12680,-1.11679,-0.262295,0.0309315,0
12700,-1.11758,-0.262353,0.0344178,0
12720,-1.11844,-0.262795,0.0380004,0
12740,-1.11905,-0.263913,0.0414002,0
12760,-1.11868,-0.26559,0.0447318,0
12780,-1.11843,-0.268001,0.0480853,0
12800,-1.1181,-0.271348,0.0513148,0
12820,-1.11728,-0.274804,0.0548095,0
12840,-1.11721,-0.278618,0.0587633,0
12860,-1.11778,-0.282631,0.0631323,0
12880,-1.11824,-0.28712,0.0679171,0
12900,-1.11944,-0.292012,0.0730774,0
12920,-1.12087,-0.296866,0.0785588,0
12940,-1.12288,-0.301317,0.0840427,0
12960,-1.12502,-0.305404,0.089643,0
12980,-1.12724,-0.30966,0.0952262,0
12990,-1.1296,-0.313771,0.101505,0
13010,-1.13187,-0.318868,0.107657,0
13030,-1.13325,-0.324863,0.113687,0
13050,-1.13432,-0.330418,0.119502,0
13070,-1.13511,-0.335609,0.124921,0
13090,-1.1365,-0.341147,0.130364,0
13110,-1.13716,-0.346571,0.135195,0
13130,-1.13719,-0.352712,0.1396,0
13150,-1.13704,-0.359534,0.143847,0
13170,-1.13697,-0.366181,0.147697,0
13190,-1.13658,-0.372731,0.151247,0
13210,-1.13567,-0.378867,0.154708,0
13230,-1.13549,-0.385556,0.158095,0
13250,-1.13535,-0.392192,0.16106,0
13270,-1.13558,-0.398194,0.163948,0
13290,-1.13546,-0.404085,0.166717,0
13310,-1.13471,-0.410485,0.169359,0
13330,-1.13383,-0.417917,0.171582,0
13350,-1.13299,-0.425705,0.173013,0
13370,-1.1328,-0.432839,0.175073,0
13390,-1.13359,-0.440242,0.177746,0
13410,-1.13367,-0.449068,0.180273,0
13430,-1.13437,-0.457898,0.182665,0
13450,-1.13544,-0.465852,0.183863,0
13470,-1.13542,-0.473666,0.183951,0
13490,-1.13573,-0.482282,0.184317,0
13510,-1.13585,-0.491637,0.184416,0
13530,-1.13547,-0.501005,0.183757,0
13550,-1.13453,-0.510908,0.18267,0
13570,-1.13358,-0.521401,0.181915,0
13590,-1.13282,-0.53305,0.181259,0
13610,-1.13219,-0.545063,0.180092,0
13630,-1.13119,-0.557117,0.178276,0
13650,-1.13064,-0.568594,0.1763,0
13670,-1.12974,-0.579576,0.173307,0
13690,-1.12926,-0.590419,0.169888,0
13710,-1.12874,-0.601183,0.166364,0
13730,-1.1285,-0.611802,0.162588,0
13750,-1.12824,-0.622471,0.159054,0
13770,-1.12752,-0.631986,0.154764,0
13790,-1.12702,-0.640963,0.149887,0
13810,-1.12585,-0.649686,0.14427,0
13830,-1.12409,-0.65818,0.136873,0
13850,-1.12166,-0.666087,0.127459,0
13870,-1.11861,-0.673723,0.11673,0
13890,-1.11487,-0.680774,0.1047,0
13910,-1.11003,-0.687779,0.0911013,0
13930,-1.10385,-0.694856,0.0756096,0
13950,-1.09683,-0.701763,0.0581674,0
13970,-1.08951,-0.708368,0.0394424,0
13990,-1.0824,-0.713822,0.0200042,0
14010,-1.07474,-0.718093,-0.000435016,0
14030,-1.06656,-0.721743,-0.0224502,0
14050,-1.05794,-0.724763,-0.045031,0
14070,-1.04948,-0.727543,-0.0668111,0
14090,-1.04059,-0.730066,-0.0883183,0
14110,-1.03105,-0.733134,-0.109956,0
14130,-1.02164,-0.736052,-0.130457,0
14150,-1.01274,-0.739585,-0.14941,0
14170,-1.00491,-0.74334,-0.167117,0
14190,-0.99754,-0.747514,-0.184454,0
14210,-0.990587,-0.751401,-0.201451,0
14230,-0.98338,-0.754475,-0.21782,0
14250,-0.976481,-0.757183,-0.233744,0
14270,-0.969694,-0.759723,-0.2502,0
14290,-0.962442,-0.762025,-0.267142,0
14310,-0.954226,-0.764593,-0.284506,0
14330,-0.945268,-0.767115,-0.302402,0
14350,-0.935328,-0.769669,-0.321425,0
14370,-0.925252,-0.771648,-0.340754,0
14390,-0.915642,-0.773492,-0.359736,0
14410,-0.905573,-0.7747,-0.379123,0
14430,-0.89555,-0.774701,-0.398307,0
14450,-0.886312,-0.772667,-0.417076,0
14470,-0.876908,-0.769372,-0.435637,0
14490,-0.86796,-0.76531,-0.45339,0
14510,-0.859779,-0.761109,-0.469634,0
14530,-0.852288,-0.756797,-0.484979,0
14550,-0.845203,-0.752604,-0.499541,0
14570,-0.839097,-0.748876,-0.512692,0
14590,-0.832781,-0.745913,-0.525372,0
14610,-0.827227,-0.743752,-0.536867,0
14630,-0.8225,-0.741173,-0.547489,0
14650,-0.819019,-0.738796,-0.55726,0
14670,-0.816185,-0.734997,-0.566487,0
14690,-0.812646,-0.731045,-0.576854,0
14710,-0.809212,-0.72751,-0.586876,0
14730,-0.806536,-0.723392,-0.595995,0
14750,-0.804742,-0.718254,-0.604839,0
14770,-0.802625,-0.712418,-0.614008,0
14790,-0.800277,-0.706536,-0.623005,0
14810,-0.797358,-0.701508,-0.631749,0
14830,-0.794594,-0.696902,-0.639833,0
14850,-0.79274,-0.691304,-0.647644,0
14870,-0.791214,-0.684494,-0.656643,0
14890,-0.789746,-0.678305,-0.665466,0
14910,-0.787961,-0.672882,-0.673349,0
14930,-0.785563,-0.667961,-0.680848,0
14950,-0.784126,-0.661665,-0.688351,0
14970,-0.782968,-0.654603,-0.696088,0
14990,-0.781999,-0.64833,-0.701296,0
15010,-0.780424,-0.64413,-0.705087,0
15030,-0.777567,-0.640335,-0.710021,0
15050,-0.775492,-0.635394,-0.715366,0
15070,-0.776342,-0.629629,-0.71846,0
15090,-0.778032,-0.624073,-0.719517,0
15110,-0.77994,-0.618888,-0.720025,0
15130,-0.780993,-0.613099,-0.720661,0
15150,-0.781241,-0.6071,-0.721444,0
15170,-0.781357,-0.601285,-0.720407,0
15190,-0.782574,-0.596591,-0.717466,0
15210,-0.784114,-0.591827,-0.714337,0
15230,-0.785957,-0.587017,-0.71174,0
15250,-0.789125,-0.58194,-0.707612,0
15270,-0.792818,-0.577307,-0.702226,0
15290,-0.795843,-0.572414,-0.697535,0
15310,-0.79709,-0.567252,-0.693675,0
15330,-0.797864,-0.562997,-0.690374,0
15350,-0.79894,-0.558784,-0.686864,0
15370,-0.800516,-0.554996,-0.68349,0
15390,-0.801569,-0.551052,-0.680526,0
15410,-0.80269,-0.547247,-0.677292,0
15430,-0.803301,-0.54267,-0.674013,0
15450,-0.804461,-0.538521,-0.670564,0
15470,-0.805647,-0.534486,-0.66646,0
15490,-0.807749,-0.530191,-0.661599,0
15510,-0.810021,-0.525839,-0.656793,0
15530,-0.81156,-0.521315,-0.652022,0
15550,-0.812425,-0.516868,-0.64678,0
15560,-0.813797,-0.512473,-0.641569,0
15580,-0.815355,-0.507563,-0.636841,0
15600,-0.817276,-0.502465,-0.631702,0
15620,-0.818343,-0.497477,-0.626937,0
15640,-0.819104,-0.493405,-0.62176,0
15660,-0.820311,-0.490128,-0.616425,0
15680,-0.821656,-0.487029,-0.611565,0
15700,-0.823287,-0.483661,-0.606569,0
15720,-0.82488,-0.480214,-0.601077,0
15740,-0.825714,-0.476918,-0.596341,0
15760,-0.8261,-0.473737,-0.591825,0
15780,-0.82642,-0.470368,-0.587307,0
15800,-0.826985,-0.467419,-0.58231,0
15820,-0.827597,-0.464778,-0.576988,0
15840,-0.828518,-0.462353,-0.571955,0
15860,-0.829546,-0.460078,-0.566853,0
15880,-0.830313,-0.458254,-0.56141,0
15900,-0.831024,-0.456944,-0.555978,0
15920,-0.831974,-0.455816,-0.550424,0
15940,-0.833005,-0.454309,-0.545213,0
15960,-0.833544,-0.452726,-0.539867,0
15980,-0.834565,-0.451391,-0.534465,0
16000,-0.836017,-0.450044,-0.528683,0
16020,-0.837616,-0.449322,-0.523232,0
16040,-0.838847,-0.448042,-0.518053,0
16060,-0.839677,-0.446546,-0.513032,0
16080,-0.840517,-0.444885,-0.50824,0
16100,-0.84094,-0.443756,-0.50339,0
16120,-0.841529,-0.442671,-0.498538,0
16140,-0.842385,-0.441364,-0.493857,0
16160,-0.843382,-0.440385,-0.489234,0
16180,-0.843878,-0.439567,-0.484396,0
16200,-0.844983,-0.438904,-0.479799,0
16220,-0.846292,-0.438339,-0.475217,0
16240,-0.847909,-0.436925,-0.470708,0
16260,-0.849134,-0.435131,-0.466259,0
16280,-0.850149,-0.433174,-0.462153,0
16300,-0.851192,-0.43129,-0.458229,0
16320,-0.852023,-0.429413,-0.454427,0
16340,-0.852909,-0.427894,-0.450741,0
16360,-0.853646,-0.42675,-0.447121,0
16380,-0.854739,-0.425965,-0.44342,0
16400,-0.855876,-0.425248,-0.439581,0
16420,-0.857798,-0.424227,-0.435166,0
16440,-0.86,-0.423322,-0.430835,0
16460,-0.862032,-0.422434,-0.426659,0
16480,-0.864365,-0.42171,-0.422079,0
16500,-0.867615,-0.421111,-0.417234,0
16520,-0.871,-0.420298,-0.412438,0
16540,-0.873809,-0.418965,-0.408075,0
16550,-0.877146,-0.417379,-0.403201,0
16570,-0.880177,-0.415733,-0.398705,0
16590,-0.8827,-0.413868,-0.394612,0
16610,-0.885282,-0.411945,-0.390125,0
16630,-0.888446,-0.409673,-0.385721,0
16650,-0.891761,-0.407599,-0.381406,0
16670,-0.894336,-0.404978,-0.377238,0
16690,-0.896488,-0.402617,-0.373046,0
16710,-0.897956,-0.400866,-0.369071,0
16730,-0.898551,-0.399184,-0.365176,0
16750,-0.89961,-0.398091,-0.360859,0
16770,-0.900282,-0.397213,-0.356881,0
16790,-0.900763,-0.395805,-0.353586,0
16810,-0.900586,-0.393835,-0.350361,0
16830,-0.900078,-0.392205,-0.347152,0
16850,-0.899587,-0.391311,-0.34349,0
16850,-0.899686,-0.390346,-0.339644,0
16870,-0.89978,-0.388932,-0.335992,0
16890,-0.898366,-0.387473,-0.333593,0
16910,-0.901093,-0.389365,-0.326945,0
16930,-0.903077,-0.393396,-0.320334,0
16970,-0.89921,-0.388255,-0.319735,0
16990,-0.900299,-0.381031,-0.315812,0
16990,-0.89995,-0.380073,-0.312191,0
17010,-0.899443,-0.380037,-0.308001,0
17030,-0.901315,-0.380907,-0.302555,0
17050,-0.904781,-0.382183,-0.294458,0
17070,-0.910372,-0.387338,-0.286261,0
17090,-0.908402,-0.381919,-0.284936,0
17120,-0.908593,-0.368604,-0.28306,0
17150,-0.908762,-0.367315,-0.278547,0
17170,-0.908265,-0.380682,-0.27308,0
17190,-0.907366,-0.40169,-0.26705,0
17210,-0.905381,-0.426398,-0.261967,0
17230,-0.902294,-0.44979,-0.257458,0
17250,-0.899621,-0.457759,-0.253956,0
17270,-0.902205,-0.458468,-0.246496,0
17290,-0.90293,-0.456294,-0.243235,0
17310,-0.904344,-0.454241,-0.238538,0
17330,-0.90604,-0.452282,-0.233911,0
17350,-0.907728,-0.449966,-0.229144,0
17370,-0.909782,-0.44791,-0.223924,0
17390,-0.911845,-0.446568,-0.218488,0
17410,-0.91362,-0.445545,-0.213274,0
17430,-0.915132,-0.444545,-0.207958,0
17450,-0.916361,-0.443665,-0.202463,0
17470,-0.91768,-0.44319,-0.196645,0
17490,-0.91938,-0.443632,-0.190305,0
17510,-0.92177,-0.443964,-0.183491,0
17530,-0.92429,-0.444177,-0.176686,0
17550,-0.926711,-0.44432,-0.169806,0
17570,-0.929149,-0.444942,-0.162792,0
17590,-0.931749,-0.446467,-0.155327,0
17610,-0.933973,-0.44807,-0.148442,0
17630,-0.935352,-0.449406,-0.142433,0
17650,-0.936458,-0.450484,-0.136298,0
17670,-0.937661,-0.452186,-0.129988,0
17690,-0.939017,-0.453469,-0.123375,0
17710,-0.941025,-0.454635,-0.116578,0
17730,-0.943111,-0.455683,-0.110087,0
17750,-0.945414,-0.456353,-0.103338,0
17770,-0.947915,-0.457069,-0.0963671,0
17790,-0.950976,-0.458077,-0.0889893,0
17810,-0.953803,-0.45904,-0.0819097,0
17830,-0.956667,-0.459569,-0.0747982,0
17850,-0.959763,-0.460014,-0.0672245,0
17870,-0.96252,-0.460779,-0.0601177,0
17890,-0.965295,-0.462197,-0.0526588,0
17910,-0.968005,-0.464157,-0.0451981,0
17930,-0.970737,-0.465932,-0.0376674,0
17950,-0.974465,-0.468496,-0.0294965,0
17970,-0.978517,-0.470936,-0.0212956,0
17990,-0.982816,-0.473014,-0.0131891,0
18010,-0.987599,-0.474821,-0.00477614,0
18030,-0.992265,-0.476747,0.00337544,0
18050,-0.996784,-0.478459,0.0115692,0
18070,-1.00081,-0.480299,0.0196832,0
18090,-1.00395,-0.481977,0.0272873,0
18110,-1.00733,-0.483532,0.0351674,0
18130,-1.01151,-0.48551,0.0434902,0
18140,-1.01526,-0.487861,0.0515272,0
18160,-1.01881,-0.490263,0.0591389,0
18180,-1.02254,-0.493159,0.0669438,0
18200,-1.0264,-0.49656,0.0746494,0
18220,-1.0303,-0.500166,0.0822382,0
18240,-1.03344,-0.503899,0.0894411,0
18260,-1.03691,-0.508076,0.0969148,0
18280,-1.04065,-0.513528,0.104594,0
18300,-1.04368,-0.519978,0.112438,0
18320,-1.04692,-0.527101,0.120197,0
18340,-1.05034,-0.534816,0.127797,0
18360,-1.05387,-0.543038,0.135067,0
18380,-1.05737,-0.55173,0.14208,0
18400,-1.06044,-0.561049,0.149256,0
18420,-1.06323,-0.571248,0.15676,0
18440,-1.06682,-0.58236,0.164235,0
18460,-1.06975,-0.594103,0.17108,0
18480,-1.07237,-0.606511,0.177372,0
18500,-1.07692,-0.620102,0.184911,0
18520,-1.08209,-0.635281,0.191912,0
18540,-1.08701,-0.650733,0.197973,0
18560,-1.09247,-0.665724,0.202235,0
18580,-1.09733,-0.680933,0.204853,0
18600,-1.10104,-0.697191,0.206122,0
18620,-1.10406,-0.714109,0.204995,0
18640,-1.10604,-0.731947,0.201246,0
18660,-1.10728,-0.74971,0.195857,0
18680,-1.10946,-0.767364,0.189207,0
18700,-1.10945,-0.785113,0.178683,0
18720,-1.108,-0.802446,0.166134,0
18740,-1.1071,-0.819077,0.153222,0
18760,-1.10575,-0.835791,0.140098,0
18780,-1.1033,-0.85286,0.125659,0
18800,-1.10022,-0.869731,0.109947,0
18820,-1.09724,-0.885875,0.0930126,0
18840,-1.0916,-0.901987,0.0738566,0
18860,-1.08252,-0.918406,0.0518504,0
18880,-1.07322,-0.935314,0.0304788,0
18900,-1.06568,-0.951681,0.00899863,0
18920,-1.057,-0.967612,-0.01396,0
18940,-1.0455,-0.983986,-0.0389943,0
18960,-1.0324,-1.00037,-0.0643087,0
18980,-1.01829,-1.01663,-0.090217,0
19020,-0.989052,-1.04788,-0.143049,0
19060,-0.939812,-1.08912,-0.225644,0
19080,-0.920521,-1.0983,-0.255133,0
19100,-0.899234,-1.10389,-0.287124,0
19120,-0.875984,-1.10642,-0.321236,0
19140,-0.850528,-1.10476,-0.357012,0
19160,-0.823631,-1.10012,-0.393537,0
19180,-0.797946,-1.09426,-0.427588,0
19200,-0.774488,-1.08761,-0.458985,0
19220,-0.751532,-1.07978,-0.490129,0
19240,-0.730481,-1.07058,-0.518752,0
19260,-0.7115,-1.05795,-0.544557,0
19280,-0.693796,-1.0438,-0.568774,0
19300,-0.676745,-1.02924,-0.59088,0
19320,-0.661341,-1.01344,-0.611131,0
19340,-0.648632,-0.995153,-0.628869,0
19360,-0.640655,-0.972731,-0.642706,0
19380,-0.63778,-0.948422,-0.651593,0
19400,-0.635857,-0.925926,-0.657104,0
19420,-0.634743,-0.905178,-0.661693,0
19440,-0.634965,-0.884399,-0.664721,0
19460,-0.640447,-0.862729,-0.663103,0
19480,-0.649432,-0.841579,-0.65742,0
19500,-0.657851,-0.821747,-0.651717,0
19520,-0.664802,-0.803711,-0.646118,0
19540,-0.671019,-0.787839,-0.63799,0
19560,-0.67948,-0.773617,-0.626989,0
19580,-0.691565,-0.760205,-0.614049,0
19600,-0.70467,-0.746999,-0.600488,0
19620,-0.718859,-0.733335,-0.584592,0
19640,-0.732297,-0.719124,-0.568499,0
19660,-0.745492,-0.704995,-0.552186,0
19680,-0.757703,-0.690254,-0.5369,0
19700,-0.767908,-0.674758,-0.522802,0
19720,-0.778836,-0.659259,-0.509755,0
19740,-0.789858,-0.645139,-0.497669,0
19760,-0.801495,-0.632027,-0.485133,0
19780,-0.811386,-0.61893,-0.473306,0
19800,-0.818719,-0.607546,-0.462228,0
19820,-0.824267,-0.598042,-0.451866,0
19840,-0.829477,-0.588911,-0.442033,0
19860,-0.835222,-0.581044,-0.431365,0
19880,-0.84109,-0.574861,-0.419621,0
19900,-0.846627,-0.570004,-0.407544,0
19920,-0.851783,-0.565509,-0.395415,0
19940,-0.858028,-0.56221,-0.381753,0
19960,-0.865591,-0.559424,-0.367035,0
19980,-0.872562,-0.55695,-0.35291,0
20000,-0.878649,-0.55453,-0.33902,0
20020,-0.885038,-0.552409,-0.32401,0
20040,-0.892211,-0.551158,-0.308231,0
20060,-0.898979,-0.550244,-0.292938,0
20080,-0.905184,-0.548532,-0.278433,0
20100,-0.91159,-0.546455,-0.263786,0
20120,-0.918202,-0.544438,-0.248745,0
20140,-0.925765,-0.542962,-0.232813,0
20160,-0.933543,-0.541189,-0.217449,0
20180,-0.941419,-0.539287,-0.202237,0
20200,-0.949463,-0.537705,-0.186935,0
20220,-0.958094,-0.536706,-0.171579,0
20240,-0.966379,-0.535999,-0.156317,0
20260,-0.973673,-0.536133,-0.141055,0
20280,-0.979545,-0.536582,-0.127059,0
20300,-0.984724,-0.53708,-0.113765,0
20320,-0.990088,-0.538029,-0.10077,0
20340,-0.996233,-0.539562,-0.087348,0
20360,-1.00216,-0.541325,-0.0747388,0
20380,-1.00688,-0.54234,-0.0636119,0
20400,-1.01127,-0.542842,-0.052739,0
20420,-1.01655,-0.544044,-0.0416158,0
20440,-1.02402,-0.545181,-0.0302537,0
20460,-1.03187,-0.546257,-0.0197928,0
20480,-1.03727,-0.546437,-0.0118979,0
20500,-1.04036,-0.546494,-0.00602187,0
20520,-1.04328,-0.546609,-0.000524687,0
20540,-1.04628,-0.546435,0.00465271,0
20560,-1.04869,-0.546334,0.00905751,0
20580,-1.05086,-0.545124,0.0127622,0
20600,-1.05149,-0.542996,0.0158305,0
20620,-1.05281,-0.54179,0.0195555,0
20640,-1.0555,-0.541388,0.0242162,0
20660,-1.05982,-0.542137,0.0301132,0
20680,-1.06506,-0.543005,0.0367235,0
20700,-1.06868,-0.544438,0.0427278,0
20710,-1.07091,-0.547153,0.0495041,0
20730,-1.0726,-0.55203,0.0574824,0
20750,-1.07482,-0.558359,0.0669388,0
20770,-1.07748,-0.565642,0.0764224,0
20790,-1.08072,-0.573801,0.086848,0
20810,-1.08494,-0.583595,0.0986148,0
20830,-1.08882,-0.593998,0.110128,0
20850,-1.09222,-0.60558,0.121411,0
20870,-1.09649,-0.618986,0.133571,0
20890,-1.10154,-0.63322,0.145856,0
20910,-1.10734,-0.647752,0.157022,0
20930,-1.11411,-0.664053,0.168692,0
20950,-1.11846,-0.681209,0.179191,0
20970,-1.12295,-0.699734,0.189618,0
20990,-1.12834,-0.718634,0.199761,0
21010,-1.13441,-0.736228,0.207118,0
21030,-1.14157,-0.752189,0.212876,0
21050,-1.14945,-0.767632,0.217403,0
21070,-1.15669,-0.783977,0.220471,0
21090,-1.16152,-0.802032,0.22099,0
21110,-1.16703,-0.821727,0.221962,0
21130,-1.17456,-0.842225,0.223424,0
21150,-1.18011,-0.864173,0.222567,0
21170,-1.1856,-0.886885,0.220926,0
21190,-1.19276,-0.909087,0.218637,0
21210,-1.19856,-0.931167,0.214818,0
21230,-1.20134,-0.953996,0.20881,0
21250,-1.2015,-0.977475,0.199909,0
21270,-1.20156,-1.00126,0.19027,0
21290,-1.20154,-1.02383,0.180432,0
21310,-1.20233,-1.04612,0.170461,0
21330,-1.20251,-1.0684,0.160418,0
21350,-1.20187,-1.09073,0.149309,0
21370,-1.19982,-1.11161,0.135877,0
21390,-1.19306,-1.13032,0.117555,0
21410,-1.18091,-1.14796,0.0943247,0
21430,-1.16735,-1.16574,0.0700216,0
21450,-1.15196,-1.18161,0.0441253,0
21470,-1.13183,-1.19591,0.0142403,0
21490,-1.10717,-1.20911,-0.0206082,0
21510,-1.07897,-1.22008,-0.0593376,0
21530,-1.04673,-1.22953,-0.101489,0
21550,-1.00968,-1.2373,-0.147514,0
21570,-0.968695,-1.24302,-0.198262,0
21590,-0.923362,-1.24555,-0.254339,0
21610,-0.871977,-1.24446,-0.315904,0
21630,-0.819994,-1.23935,-0.376946,0
21650,-0.770694,-1.23013,-0.434604,0
21670,-0.724378,-1.21698,-0.489409,0
21690,-0.684295,-1.1986,-0.538154,0
21710,-0.652655,-1.17674,-0.578574,0
21730,-0.625607,-1.15396,-0.613095,0
21750,-0.601243,-1.13069,-0.642755,0
21770,-0.578077,-1.10535,-0.669421,0
21790,-0.564709,-1.07927,-0.68789,0
21810,-0.562217,-1.05467,-0.697255,0
21830,-0.567494,-1.03126,-0.699405,0
21850,-0.576285,-1.00832,-0.697318,0
21870,-0.587044,-0.984125,-0.692764,0
21890,-0.600151,-0.961101,-0.685872,0
21910,-0.617952,-0.937786,-0.676756,0
21930,-0.639118,-0.914338,-0.667234,0
21950,-0.661539,-0.890943,-0.65662,0
21970,-0.682597,-0.868775,-0.644687,0
21990,-0.704227,-0.847067,-0.631307,0
22010,-0.724167,-0.825969,-0.620456,0
22030,-0.745427,-0.805202,-0.610142,0
22050,-0.767138,-0.784099,-0.599851,0
22070,-0.787102,-0.763251,-0.58994,0
22090,-0.804656,-0.743598,-0.579754,0
22110,-0.820508,-0.725739,-0.570638,0
22130,-0.836605,-0.709434,-0.561792,0
22150,-0.85513,-0.693735,-0.551066,0
22170,-0.873416,-0.681123,-0.539488,0
22190,-0.891053,-0.67115,-0.527357,0
22210,-0.90964,-0.66139,-0.514197,0
22230,-0.929626,-0.651875,-0.499877,0
22250,-0.950704,-0.643007,-0.484061,0
22270,-0.972516,-0.63502,-0.467844,0
22290,-0.994092,-0.626538,-0.451471,0
22310,-1.01561,-0.619425,-0.433892,0
22330,-1.0357,-0.612999,-0.417889,0
22350,-1.05327,-0.605658,-0.403338,0
22370,-1.06995,-0.598693,-0.388904,0
22390,-1.08615,-0.592191,-0.374653,0
22410,-1.10232,-0.585505,-0.360511,0
22430,-1.11623,-0.579573,-0.347281,0
22450,-1.12783,-0.573476,-0.33414,0
22470,-1.1394,-0.568209,-0.320272,0
22490,-1.15161,-0.563329,-0.306227,0
22510,-1.16432,-0.558145,-0.292613,0
22530,-1.1755,-0.552923,-0.280356,0
22550,-1.18623,-0.547824,-0.267814,0
22570,-1.19696,-0.542293,-0.255703,0
22590,-1.20853,-0.53644,-0.244053,0
22610,-1.21952,-0.530321,-0.233316,0
22630,-1.22846,-0.524977,-0.223871,0
22650,-1.23554,-0.519235,-0.215148,0
22670,-1.24082,-0.514125,-0.207071,0
22690,-1.24665,-0.510225,-0.197973,0
22710,-1.25239,-0.507464,-0.189303,0
22730,-1.25593,-0.504997,-0.181278,0
22750,-1.25825,-0.503452,-0.172692,0
22770,-1.26006,-0.502718,-0.164171,0
22790,-1.26241,-0.502546,-0.154757,0
22810,-1.26602,-0.503494,-0.144554,0
22830,-1.27094,-0.504987,-0.133427,0
22850,-1.27533,-0.506958,-0.121486,0
22870,-1.27896,-0.510462,-0.108548,0
22890,-1.2829,-0.515807,-0.0946477,0
22910,-1.28699,-0.522353,-0.0802152,0
22930,-1.29102,-0.529564,-0.0654215,0
22950,-1.29342,-0.537281,-0.0511511,0
22970,-1.29527,-0.544888,-0.0368483,0
22990,-1.29653,-0.552425,-0.0229981,0
23010,-1.30009,-0.559639,-0.00820392,0
23030,-1.30704,-0.566496,0.00785572,0
23050,-1.3171,-0.572446,0.0245223,0
23070,-1.32879,-0.578155,0.041258,0
23090,-1.34107,-0.583273,0.0590434,0
23110,-1.35343,-0.588515,0.0776435,0
23130,-1.36607,-0.594373,0.0967206,0
23150,-1.37883,-0.601225,0.115771,0
23170,-1.38979,-0.608095,0.133498,0
23190,-1.39926,-0.615395,0.149986,0
23210,-1.40656,-0.623534,0.164968,0
23230,-1.41189,-0.63244,0.178654,0
23250,-1.41421,-0.641558,0.191078,0
23270,-1.41668,-0.651072,0.203789,0
23290,-1.42239,-0.661366,0.217461,0
23300,-1.42957,-0.67102,0.230277,0
23320,-1.43662,-0.679138,0.242212,0
23340,-1.44441,-0.687187,0.2543,0
23360,-1.45197,-0.695465,0.266336,0
23380,-1.46112,-0.704032,0.278881,0
23400,-1.47001,-0.712684,0.291432,0
23420,-1.47782,-0.721919,0.303173,0
23440,-1.48405,-0.731379,0.313149,0
23460,-1.48881,-0.741623,0.322491,0
23480,-1.49198,-0.752932,0.331652,0
23500,-1.49314,-0.765464,0.340034,0
23520,-1.49312,-0.778972,0.348115,0
23540,-1.49363,-0.79291,0.356358,0
23560,-1.49586,-0.807582,0.365117,0
23580,-1.50041,-0.822193,0.375177,0
23600,-1.50542,-0.835796,0.38443,0
23620,-1.51054,-0.84897,0.393344,0
23640,-1.51572,-0.862077,0.402331,0
23660,-1.52238,-0.875373,0.411506,0
23680,-1.52844,-0.887927,0.4187,0
23700,-1.53433,-0.899723,0.42517,0
23720,-1.53992,-0.91176,0.43158,0
23740,-1.54477,-0.92355,0.436845,0
23760,-1.54786,-0.934765,0.440012,0
23780,-1.55027,-0.945186,0.4412,0
23800,-1.55108,-0.955558,0.441462,0
23820,-1.54933,-0.965952,0.440541,0
23840,-1.54671,-0.976224,0.439448,0
23860,-1.54313,-0.985762,0.437632,0
23880,-1.53912,-0.995045,0.435644,0
23900,-1.53494,-1.00364,0.433785,0
23920,-1.53146,-1.01197,0.432664,1001
23940,-1.52973,-1.01988,0.432484,0
23960,-1.52814,-1.02715,0.432044,0
23980,-1.52586,-1.0327,0.43124,0
24000,-1.52364,-1.03789,0.430667,0
24020,-1.52178,-1.04182,0.431039,0
24040,-1.52064,-1.04468,0.430668,0
24060,-1.51907,-1.04587,0.42855,0
24080,-1.51692,-1.04593,0.425914,0
24100,-1.51378,-1.04465,0.422099,0
24140,-1.50641,-1.04107,0.412707,0
24160,-1.50369,-1.03922,0.409555,0
24180,-1.50001,-1.03715,0.406424,0
24200,-1.49739,-1.03579,0.405,0
24220,-1.50038,-1.03266,0.410319,0
24240,-1.49782,-1.03206,0.409455,0
24260,-1.49336,-1.03191,0.406484,0
24280,-1.48795,-1.03155,0.403247,0
24300,-1.48053,-1.03185,0.398509,0
24320,-1.47079,-1.03122,0.391473,0
24340,-1.45883,-1.03044,0.381497,0
24360,-1.44751,-1.0295,0.370956,0
24380,-1.43312,-1.0271,0.355791,0
24400,-1.4129,-1.02362,0.334041,0
24420,-1.39137,-1.01909,0.309943,0
24440,-1.3686,-1.01469,0.283529,0
24460,-1.34643,-1.0102,0.255852,0
24480,-1.32212,-1.006,0.22571,0
24500,-1.29482,-1.00309,0.194077,0
24520,-1.26428,-1.00058,0.16129,0
24540,-1.23068,-0.99604,0.126216,0
24560,-1.19178,-0.989801,0.0877235,0
24580,-1.15035,-0.9791,0.0478352,0
24600,-1.11507,-0.961055,0.0139515,0
24620,-1.09078,-0.935641,-0.0108532,0
24640,-1.07079,-0.905778,-0.0314226,0
24660,-1.0521,-0.871324,-0.0502547,0
24680,-1.03788,-0.830754,-0.0666831,0
24700,-1.03296,-0.782936,-0.075686,0
24720,-1.03436,-0.734193,-0.076095,0
24740,-1.03972,-0.687283,-0.0709388,0
24760,-1.04254,-0.641633,-0.0668721,0
24780,-1.04677,-0.59685,-0.0606662,0
24800,-1.05597,-0.553598,-0.045518,0
24820,-1.06923,-0.513624,-0.0249101,0
24840,-1.08328,-0.479289,-0.00589634,0
24860,-1.09459,-0.451017,0.0107516,0
24880,-1.10941,-0.423167,0.0306996,0
24900,-1.127,-0.397223,0.0517492,0
24920,-1.14343,-0.376835,0.0702576,0
24940,-1.15495,-0.362117,0.0878806,0
24960,-1.16061,-0.350955,0.106634,0
24980,-1.16171,-0.342188,0.125262,0
25000,-1.15967,-0.33616,0.14203,0
25020,-1.15782,-0.333065,0.155935,0
25040,-1.15673,-0.330525,0.167246,0
25050,-1.15535,-0.326629,0.176988,0
25050,-1.15396,-0.321872,0.185019,0
25070,-1.1517,-0.317998,0.191497,0
25100,-1.14976,-0.313566,0.197963,0
25130,-1.14263,-0.306646,0.198477,0
25150,-1.14438,-0.304009,0.203567,0
25170,-1.13977,-0.29456,0.202997,0
25190,-1.14077,-0.297253,0.20582,0
25210,-1.14194,-0.309812,0.209736,0
25230,-1.14372,-0.325254,0.213198,0
25250,-1.14536,-0.341513,0.216621,0
25270,-1.14544,-0.358795,0.219925,0
25290,-1.14315,-0.36904,0.22135,1000
25310,-1.14347,-0.351848,0.221171,0
25330,-1.15049,-0.340171,0.22326,0
25350,-1.14576,-0.343087,0.221709,0
25370,-1.15103,-0.335883,0.22336,0
25390,-1.15223,-0.320514,0.223906,0
25410,-1.14365,-0.331946,0.221798,0
25430,-1.14586,-0.332814,0.222306,0
25450,-1.15677,-0.316642,0.22564,0
25480,-1.16686,-0.297695,0.228234,0
25500,-1.16912,-0.284443,0.228395,0
25520,-1.17157,-0.278696,0.230212,0
25530,-1.17086,-0.278015,0.230345,0
25530,-1.17069,-0.277868,0.230353,0
25550,-1.17024,-0.276838,0.230587,0
25590,-1.17093,-0.276563,0.230714,0
25610,-1.17525,-0.275305,0.235492,0
25630,-1.17987,-0.277834,0.240139,0
25650,-1.17793,-0.271883,0.237595,0
25670,-1.17495,-0.259431,0.234898,0
25690,-1.17301,-0.255691,0.234937,0
25710,-1.17137,-0.262834,0.236298,0
25730,-1.16916,-0.276202,0.23714,0
25750,-1.16495,-0.288562,0.237009,0
25770,-1.16038,-0.288546,0.236279,0
25790,-1.16115,-0.26427,0.235275,0
25810,-1.16658,-0.254876,0.235857,0
25830,-1.16,-0.259929,0.234644,0
25850,-1.16532,-0.254735,0.235661,0
25870,-1.16883,-0.239781,0.236354,0
25890,-1.1597,-0.253353,0.234626,0
25910,-1.15861,-0.260727,0.23488,0
25930,-1.16757,-0.251821,0.237256,0
25950,-1.17943,-0.236605,0.240292,0
25970,-1.19048,-0.221569,0.243146,0
25990,-1.20098,-0.2068,0.245661,0
26010,-1.21362,-0.193045,0.249276,0
26030,-1.2266,-0.18318,0.2538,0
26050,-1.23222,-0.185076,0.257975,0
26070,-1.22197,-0.201233,0.259143,0
26090,-1.20986,-0.211875,0.260408,0
26110,-1.22153,-0.201096,0.267947,0
26130,-1.22998,-0.203539,0.275524,0
26150,-1.21548,-0.215491,0.278839,0
26170,-1.23204,-0.203285,0.289891,0
26190,-1.21788,-0.218902,0.294748,0
26210,-1.21406,-0.210736,0.30016,0
26230,-1.21181,-0.213055,0.305503,0
26250,-1.21224,-0.218086,0.313308,0
26270,-1.21274,-0.224139,0.321411,0
26290,-1.21263,-0.231037,0.329527,0
26310,-1.21223,-0.238906,0.338109,0
26330,-1.21132,-0.247843,0.346129,0
26350,-1.20993,-0.25728,0.354223,0
26370,-1.20949,-0.266687,0.362077,0
26390,-1.20971,-0.27578,0.369436,0
26410,-1.20899,-0.28559,0.376609,0
26430,-1.20695,-0.29745,0.382892,0
26450,-1.20432,-0.310567,0.388544,0
26470,-1.20324,-0.324423,0.393645,0
26490,-1.20319,-0.338784,0.3982,0
26510,-1.20396,-0.353502,0.402673,0
26530,-1.20415,-0.370322,0.406982,0
26550,-1.20297,-0.388648,0.41055,0
26570,-1.20219,-0.407382,0.413049,0
26590,-1.20212,-0.425863,0.413989,0
26610,-1.20254,-0.443826,0.413485,0
26630,-1.20353,-0.461267,0.411992,0
26650,-1.2039,-0.477892,0.409411,0
26670,-1.20318,-0.494101,0.405011,0
26690,-1.2006,-0.509879,0.398096,0
26710,-1.19892,-0.524132,0.389969,0
26730,-1.19747,-0.536813,0.379739,0
26750,-1.19545,-0.548682,0.367761,0
26770,-1.19134,-0.561644,0.354208,0
26790,-1.18528,-0.57514,0.339605,0
26810,-1.17936,-0.589676,0.324195,0
26830,-1.17313,-0.604283,0.306669,0
26850,-1.16735,-0.61904,0.288164,0
26870,-1.16218,-0.633186,0.268945,0
26890,-1.15528,-0.648338,0.24821,0
26910,-1.14601,-0.66352,0.225666,0
26930,-1.13482,-0.67947,0.201533,0
26950,-1.12334,-0.695103,0.176567,0
26970,-1.11114,-0.710382,0.149101,0
26990,-1.09754,-0.724892,0.118055,0
27010,-1.08316,-0.738333,0.0855212,0
27030,-1.06717,-0.751191,0.051359,0
27050,-1.04885,-0.763538,0.0150823,0
27070,-1.02898,-0.775015,-0.0236887,0
27090,-1.00845,-0.78535,-0.0651784,0
27110,-0.986606,-0.793853,-0.109168,0
27130,-0.964227,-0.799102,-0.153705,0
27150,-0.941572,-0.800823,-0.197289,0
27170,-0.918581,-0.799793,-0.240172,0
27190,-0.896783,-0.796292,-0.280461,0
27210,-0.876831,-0.790349,-0.317018,0
27230,-0.85921,-0.78322,-0.350036,0
27250,-0.844562,-0.774033,-0.379353,0
27270,-0.832557,-0.763665,-0.405311,0
27290,-0.823168,-0.752386,-0.426603,0
27310,-0.817344,-0.740932,-0.442157,0
27330,-0.814007,-0.728246,-0.454497,0
27350,-0.812351,-0.713698,-0.46518,0
27370,-0.811359,-0.699506,-0.473478,0
27390,-0.811405,-0.686804,-0.478319,0
27410,-0.811166,-0.675055,-0.483002,0
27430,-0.813068,-0.660985,-0.486694,0
27450,-0.818619,-0.643899,-0.488486,0
27470,-0.824343,-0.62885,-0.486414,0
27490,-0.829023,-0.616758,-0.482691,0
27510,-0.832909,-0.604274,-0.480749,0
27530,-0.839642,-0.58862,-0.477642,0
27550,-0.85207,-0.571536,-0.470152,0
27570,-0.8669,-0.555344,-0.460207,0
27590,-0.879651,-0.538583,-0.451717,0
27610,-0.8867,-0.520804,-0.444471,0
27630,-0.893672,-0.503728,-0.4355,0
27650,-0.9038,-0.487607,-0.426768,0
27670,-0.915659,-0.47226,-0.419194,0
27690,-0.925783,-0.457365,-0.412119,0
27710,-0.934491,-0.443335,-0.40511,0
27730,-0.941627,-0.429158,-0.399363,0
27750,-0.947245,-0.41544,-0.394924,0
27770,-0.951472,-0.403069,-0.390954,0
27790,-0.954434,-0.39262,-0.387106,0
27810,-0.957107,-0.383928,-0.383086,0
27810,-0.958944,-0.375735,-0.379682,0
27830,-0.961086,-0.36748,-0.37602,0
27850,-0.963657,-0.359185,-0.372069,0
27870,-0.970242,-0.355337,-0.365314,0
27890,-0.975706,-0.352795,-0.357994,0
27910,-0.97914,-0.344757,-0.354996,0
27930,-0.980267,-0.326753,-0.352106,0
27950,-0.981085,-0.326127,-0.345265,0
27970,-0.982953,-0.344466,-0.336996,0
27990,-0.985664,-0.369529,-0.328794,0
28010,-0.98741,-0.395136,-0.320946,0
28050,-0.986224,-0.419768,-0.313718,0
28070,-0.983252,-0.42718,-0.307229,0
28090,-0.987826,-0.427443,-0.295233,0
28110,-0.991394,-0.424494,-0.288086,0
28130,-0.99496,-0.419994,-0.278979,0
28150,-0.998871,-0.414737,-0.269699,0
28170,-1.00292,-0.409351,-0.260191,0
28190,-1.00659,-0.404106,-0.250636,0
28210,-1.00974,-0.399348,-0.240994,0
28230,-1.01277,-0.393961,-0.230832,0
28250,-1.01638,-0.389464,-0.219587,0
28270,-1.0206,-0.385511,-0.207637,0
28270,-1.02586,-0.381464,-0.195483,0
28290,-1.0314,-0.377053,-0.183707,0
28310,-1.0357,-0.37253,-0.172002,0
28330,-1.0429,-0.370084,-0.157408,0
28350,-1.05133,-0.371426,-0.140795,0
28370,-1.05296,-0.365763,-0.131182,0
28390,-1.05822,-0.375393,-0.118598,0
28410,-1.06308,-0.3766,-0.110316,0
28430,-1.0655,-0.358456,-0.104963,0
28450,-1.06607,-0.329421,-0.0998493,0
28470,-1.06585,-0.298188,-0.0940388,0
28490,-1.06651,-0.266862,-0.0875483,0
28520,-1.07259,-0.237343,-0.0792078,0
28540,-1.07792,-0.242919,-0.069184,0
28560,-1.07936,-0.246166,-0.0593368,0
28580,-1.08689,-0.249662,-0.0486636,0
28600,-1.09538,-0.238539,-0.0380227,0
28620,-1.08855,-0.256736,-0.0302228,0
28640,-1.09194,-0.26059,-0.0211377,0
28660,-1.10494,-0.245333,-0.00995624,0
28680,-1.11463,-0.232952,1.71679e-05,0
28700,-1.11732,-0.228325,0.00843768,0
28720,-1.11593,-0.228335,0.0163979,0
28740,-1.11369,-0.227574,0.0246173,0
28760,-1.11513,-0.222106,0.0342424,0
28780,-1.12566,-0.211018,0.0469524,0
28800,-1.14197,-0.200635,0.0613166,0
28820,-1.147,-0.204656,0.0739995,0
28840,-1.13178,-0.222627,0.0829646,0
28860,-1.12856,-0.22682,0.0949175,0
28880,-1.1293,-0.219934,0.105872,0
28900,-1.13368,-0.221883,0.122123,0
28920,-1.13583,-0.226509,0.137773,0
28940,-1.1389,-0.232964,0.154494,0
28960,-1.14369,-0.240713,0.17197,0
28980,-1.14988,-0.249051,0.18962,0
29000,-1.15573,-0.256589,0.207106,0
29020,-1.16074,-0.264575,0.225113,0
29040,-1.16619,-0.274092,0.243935,0
29060,-1.17358,-0.285037,0.263093,0
29080,-1.18053,-0.295699,0.281561,0
29100,-1.18608,-0.305547,0.299131,0
29120,-1.19218,-0.315524,0.316939,0
29140,-1.19877,-0.325654,0.334089,0
29160,-1.20513,-0.334505,0.349528,0
29180,-1.2118,-0.341431,0.364582,0
29200,-1.21812,-0.348691,0.379891,0
29220,-1.22355,-0.357475,0.394943,0
29240,-1.22889,-0.366402,0.409246,0
29260,-1.23421,-0.375116,0.422646,0
29280,-1.24078,-0.384235,0.435929,0
29300,-1.24748,-0.394057,0.448704,0
29320,-1.25338,-0.404078,0.460526,0
29340,-1.25802,-0.414493,0.471723,0
29360,-1.26302,-0.426702,0.483095,0
29380,-1.27011,-0.438874,0.49415,0
29400,-1.27909,-0.451599,0.505304,0
29420,-1.28914,-0.465049,0.515023,0
29440,-1.29673,-0.480144,0.523661,0
29460,-1.30184,-0.497142,0.531271,0
29480,-1.30513,-0.51489,0.53698,0
29500,-1.30685,-0.5329,0.539234,0
29520,-1.3068,-0.551654,0.540345,0
29540,-1.30585,-0.572901,0.541054,0
29560,-1.30493,-0.596227,0.541059,0
29580,-1.30312,-0.61969,0.538181,0
29600,-1.30002,-0.643206,0.531851,0
29620,-1.29748,-0.666305,0.52355,0
29640,-1.29656,-0.688579,0.514613,0
29660,-1.2955,-0.708887,0.501905,0
29680,-1.29128,-0.73116,0.488629,0
29700,-1.28697,-0.754684,0.475248,0
29720,-1.28276,-0.778122,0.459686,0
29740,-1.2779,-0.801449,0.442925,0
29760,-1.27191,-0.824585,0.426224,0
29780,-1.26479,-0.846789,0.408562,0
29800,-1.25637,-0.869131,0.389048,0
29820,-1.24776,-0.890458,0.368188,0
29840,-1.23802,-0.90969,0.345258,0
29860,-1.22605,-0.928389,0.320133,0
29880,-1.21059,-0.946215,0.291763,0
29900,-1.19093,-0.963218,0.259775,0
29950,-1.02464,-1.03989,0.0149354,0
29970,-0.98742,-1.04343,-0.0352983,0
29990,-0.950926,-1.04325,-0.0842447,0
30010,-0.917606,-1.0394,-0.129877,0
30030,-0.884976,-1.03182,-0.174072,0
30050,-0.855584,-1.02099,-0.215149,0
30070,-0.832314,-1.00547,-0.251659,0
30090,-0.81558,-0.986592,-0.282349,0
30110,-0.800639,-0.96738,-0.307654,0
30130,-0.784732,-0.947606,-0.331512,0
30150,-0.768654,-0.926081,-0.355111,0
30170,-0.757169,-0.903647,-0.37524,0
30190,-0.753712,-0.880772,-0.390081,0
30210,-0.752355,-0.858314,-0.400593,0
30230,-0.751257,-0.838853,-0.406819,0
30250,-0.750131,-0.821899,-0.412248,0
30270,-0.749313,-0.805528,-0.41767,0
30290,-0.751591,-0.788826,-0.420765,0
30310,-0.758541,-0.772067,-0.419727,0
30330,-0.76816,-0.755011,-0.416893,0
30350,-0.780112,-0.737179,-0.4113,0
30370,-0.790055,-0.71907,-0.404671,0
30390,-0.800381,-0.70064,-0.39749,0
30410,-0.810859,-0.682802,-0.391839,0
30430,-0.822368,-0.665216,-0.385823,0
30450,-0.83653,-0.647993,-0.378061,0
30470,-0.849986,-0.631224,-0.370235,0
30490,-0.860403,-0.614529,-0.363623,0
30510,-0.869512,-0.59699,-0.35659,0
30530,-0.879541,-0.580897,-0.348697,0
30550,-0.89239,-0.567077,-0.337493,0
30570,-0.905885,-0.554885,-0.324526,0
30590,-0.916759,-0.54463,-0.311444,0
30610,-0.927238,-0.53768,-0.297132,0
30630,-0.938988,-0.533573,-0.282238,0
30650,-0.951852,-0.529998,-0.267267,0
30670,-0.963948,-0.525121,-0.252404,0
30690,-0.974502,-0.520883,-0.238427,0
30710,-0.984314,-0.516549,-0.225869,0
30730,-0.993094,-0.509882,-0.215637,0
30750,-1.00155,-0.500124,-0.207044,0
30770,-1.00873,-0.48896,-0.198919,0
30790,-1.01423,-0.476926,-0.191579,0
30810,-1.02,-0.465026,-0.184962,0
30830,-1.02614,-0.453899,-0.179397,0
30850,-1.03383,-0.443089,-0.173168,0
30870,-1.04207,-0.43324,-0.166069,0
30890,-1.05028,-0.425001,-0.159671,0
30910,-1.05825,-0.417366,-0.153053,0
30930,-1.06658,-0.410525,-0.1456,0
30950,-1.07601,-0.405491,-0.137595,0
30970,-1.08671,-0.401224,-0.13013,0
30990,-1.09844,-0.396853,-0.122575,0
31000,-1.11059,-0.392951,-0.113488,0
31020,-1.1222,-0.390687,-0.104095,0
31040,-1.13355,-0.388851,-0.094918,0
31040,-1.1438,-0.386526,-0.0867897,0
31060,-1.15288,-0.385301,-0.0773809,0
31080,-1.16148,-0.386763,-0.0673393,0
31100,-1.17178,-0.388057,-0.0522632,0
31120,-1.18328,-0.395353,-0.0349046,0
31160,-1.18578,-0.388495,-0.0268508,0
31180,-1.18944,-0.389889,-0.0126114,0
31180,-1.1961,-0.394647,-0.00099439,0
31220,-1.20159,-0.398207,0.0109967,0
31240,-1.21137,-0.400467,0.0280492,0
31260,-1.21748,-0.402359,0.0430926,0
31280,-1.22655,-0.404053,0.0594873,0
31300,-1.23635,-0.403795,0.0753605,0
31320,-1.24681,-0.402677,0.0923721,0
31340,-1.25793,-0.401371,0.110588,0
31360,-1.26828,-0.399539,0.128784,0
31380,-1.27831,-0.39812,0.147893,0
31400,-1.2893,-0.398008,0.168522,0
31420,-1.30011,-0.398337,0.189153,0
31440,-1.30914,-0.398862,0.209686,0
31460,-1.31571,-0.401031,0.230315,0
31480,-1.32301,-0.404672,0.252958,0
31500,-1.33096,-0.410038,0.275532,0
31520,-1.33706,-0.41661,0.295579,0
31540,-1.34381,-0.423205,0.315664,0
31560,-1.35417,-0.429525,0.335959,0
31580,-1.36753,-0.434992,0.354773,0
31600,-1.38109,-0.43922,0.371454,0
31620,-1.39295,-0.444314,0.388471,0
31640,-1.40364,-0.451106,0.406377,0
31660,-1.41206,-0.460242,0.422757,0
31680,-1.41936,-0.471278,0.438535,0
31700,-1.42492,-0.484549,0.453302,0
31720,-1.42698,-0.498477,0.466109,0
31740,-1.42526,-0.513551,0.478096,0
31760,-1.42189,-0.531961,0.490652,0
31780,-1.4183,-0.554108,0.501997,0
31800,-1.41308,-0.577088,0.509886,0
31820,-1.40991,-0.599244,0.518397,0
31840,-1.41001,-0.620867,0.5274,0
31860,-1.40993,-0.641043,0.534294,0
31880,-1.40922,-0.659722,0.539159,0
31900,-1.40669,-0.677601,0.542243,0
31920,-1.40389,-0.695907,0.545942,0
31940,-1.40249,-0.715658,0.550682,0
31960,-1.40022,-0.737174,0.553263,0
31980,-1.39621,-0.758158,0.553283,0
32000,-1.39077,-0.78023,0.553151,0
32020,-1.38662,-0.804445,0.555342,0
32040,-1.38604,-0.829232,0.557876,0
32060,-1.38546,-0.853166,0.557689,0
32080,-1.38309,-0.876159,0.553806,0
32100,-1.38132,-0.898682,0.548342,0
32120,-1.37944,-0.91883,0.539268,0
32140,-1.37592,-0.93905,0.527902,0
32160,-1.36965,-0.960967,0.514084,0
32180,-1.36035,-0.982609,0.496386,0
32200,-1.34795,-1.00305,0.474055,0
32220,-1.3337,-1.02294,0.448122,0
32240,-1.31632,-1.04165,0.418345,0
32260,-1.29534,-1.05984,0.385293,0
32280,-1.27087,-1.07678,0.348539,0
32300,-1.24385,-1.09081,0.308068,0
32320,-1.21348,-1.10239,0.263128,0
32340,-1.17917,-1.11191,0.214507,0
32360,-1.14372,-1.11872,0.164637,0
32380,-1.109,-1.1216,0.113826,0
32400,-1.07224,-1.12114,0.0606055,0
32420,-1.03422,-1.11698,0.00794338,0
32440,-0.998437,-1.10985,-0.0397409,0
32460,-0.96418,-1.09911,-0.0841667,0
32480,-0.932116,-1.08471,-0.126819,0
32500,-0.904661,-1.06673,-0.166059,0
32520,-0.883568,-1.04562,-0.197813,0
32540,-0.865865,-1.0237,-0.224558,0
32560,-0.852136,-1.00005,-0.247167,0
32580,-0.842467,-0.974753,-0.267844,0
32600,-0.836547,-0.946715,-0.285835,0
32620,-0.837949,-0.916762,-0.297164,0
32640,-0.843323,-0.887792,-0.305152,0
32660,-0.851712,-0.860943,-0.311171,0
32680,-0.862246,-0.834316,-0.316212,0
32700,-0.87487,-0.807255,-0.321291,0
32720,-0.89125,-0.782298,-0.323895,0
32740,-0.906989,-0.761259,-0.326134,0
32760,-0.923064,-0.741405,-0.326631,0
32780,-0.941108,-0.723033,-0.32447,0
32800,-0.961895,-0.706139,-0.320344,0
32820,-0.980887,-0.688745,-0.316404,0
32840,-0.996518,-0.673273,-0.311724,0
32860,-1.01027,-0.659863,-0.306902,0
32880,-1.02407,-0.647975,-0.301381,0
32900,-1.03869,-0.636482,-0.295275,0
32920,-1.05296,-0.624647,-0.289256,0
32940,-1.06767,-0.614567,-0.282022,0
32960,-1.08316,-0.606132,-0.273495,0
32980,-1.10117,-0.596905,-0.264593,0
33000,-1.12068,-0.587383,-0.255739,0
33020,-1.13945,-0.578292,-0.246632,0
33040,-1.15695,-0.569684,-0.236669,0
33060,-1.17318,-0.562598,-0.226091,0
33080,-1.18764,-0.555306,-0.216669,0
33100,-1.20054,-0.548221,-0.208649,0
33120,-1.213,-0.541654,-0.200023,0
33140,-1.22541,-0.535547,-0.191597,0
33160,-1.23802,-0.5294,-0.184494,0
33180,-1.25107,-0.522793,-0.178236,0
33200,-1.2637,-0.515717,-0.172679,0
33220,-1.27449,-0.508072,-0.168227,0
33240,-1.28394,-0.499652,-0.164366,0
33260,-1.29316,-0.490934,-0.159894,0
33280,-1.30162,-0.482723,-0.155432,0
33300,-1.31002,-0.474913,-0.149792,0
33320,-1.31934,-0.468558,-0.141807,0
33340,-1.32926,-0.463346,-0.130207,0
33360,-1.33907,-0.459277,-0.115884,0
33380,-1.34991,-0.456475,-0.0988566,0
33400,-1.36376,-0.454533,-0.0783265,0
33420,-1.37978,-0.453306,-0.0556545,0
33440,-1.396,-0.452765,-0.0313921,0
33460,-1.41212,-0.45306,-0.00502573,0
33480,-1.42797,-0.454416,0.0219918,0
33500,-1.44398,-0.45629,0.0496513,0
33520,-1.45896,-0.458582,0.0776773,0
33540,-1.47268,-0.462111,0.106861,0
33560,-1.48644,-0.46765,0.137059,0
33580,-1.50053,-0.474653,0.167098,0
33590,-1.51396,-0.481834,0.195996,0
33610,-1.52606,-0.488821,0.224296,0
33630,-1.53759,-0.496695,0.252728,0
33650,-1.55016,-0.504673,0.281184,0
33670,-1.56581,-0.512375,0.309923,0
33690,-1.58391,-0.519489,0.337189,0
33710,-1.6018,-0.525134,0.363557,0
33730,-1.61835,-0.530853,0.389862,0
33750,-1.63289,-0.536942,0.415222,0
33770,-1.64825,-0.542632,0.4397,0
33790,-1.66311,-0.547921,0.461896,0
33810,-1.675,-0.554287,0.481969,0
33830,-1.68182,-0.562883,0.501529,0
33850,-1.6879,-0.574704,0.521829,0
33870,-1.69405,-0.587618,0.541221,0
33890,-1.69908,-0.600157,0.55834,0
33910,-1.70227,-0.612291,0.574137,0
33930,-1.70572,-0.624593,0.590282,0
33950,-1.71028,-0.637057,0.606053,0
33970,-1.71494,-0.649339,0.621165,0
33990,-1.7203,-0.661792,0.635178,0
34010,-1.72501,-0.674268,0.64732,0
34030,-1.73002,-0.685666,0.659804,0
34050,-1.7367,-0.698239,0.672852,0
34070,-1.74342,-0.712844,0.68519,0
34090,-1.74841,-0.727401,0.695669,0
34110,-1.75286,-0.741698,0.705433,0
34130,-1.75713,-0.757339,0.714068,0
34150,-1.7606,-0.772595,0.720613,0
34170,-1.76202,-0.787769,0.725007,0
34190,-1.76222,-0.802756,0.72837,0
34210,-1.76316,-0.816126,0.731922,0
34230,-1.76507,-0.828888,0.73602,0
34250,-1.76806,-0.841976,0.739641,0
34270,-1.77192,-0.855228,0.743569,0
34290,-1.77648,-0.868329,0.748113,0
34310,-1.7818,-0.880544,0.753834,0
34330,-1.7868,-0.891299,0.758363,0
34350,-1.7907,-0.900599,0.761053,0
34370,-1.79224,-0.909024,0.761941,0
34390,-1.79301,-0.917057,0.763939,1001
34410,-1.79571,-0.924594,0.767869,0
34430,-1.79796,-0.930384,0.771324,0
34450,-1.79991,-0.936363,0.775733,0
34470,-1.80554,-0.941124,0.784008,0
34490,-1.81536,-0.944804,0.795132,0
34510,-1.82598,-0.946488,0.806568,0
34530,-1.83738,-0.9454,0.818816,0
34550,-1.85022,-0.94269,0.832409,0
34570,-1.86386,-0.938915,0.847337,0
34590,-1.87713,-0.933688,0.861312,0
34610,-1.88867,-0.929701,0.872537,0
34630,-1.89856,-0.926933,0.881604,0
34650,-1.90536,-0.925102,0.888064,0
34670,-1.90874,-0.924247,0.892533,0
34690,-1.91162,-0.925358,0.896248,0
34710,-1.91213,-0.926411,0.897988,0
34730,-1.90816,-0.926953,0.895789,0
34750,-1.90087,-0.930155,0.888781,0
34770,-1.89128,-0.935502,0.879752,0
34790,-1.8807,-0.939799,0.87057,0
34810,-1.8685,-0.942687,0.859093,0
34830,-1.85285,-0.943451,0.84244,0
34850,-1.83388,-0.939889,0.819922,0
34870,-1.81382,-0.930742,0.792254,0
34890,-1.78999,-0.91727,0.758027,0
34910,-1.76018,-0.901364,0.717012,0
34930,-1.724,-0.883077,0.668737,0
34950,-1.68315,-0.861344,0.616973,0
34970,-1.64085,-0.836229,0.567971,0
34990,-1.59944,-0.809064,0.521741,0
35010,-1.55657,-0.782563,0.473221,0
35030,-1.51076,-0.756389,0.425259,0
35050,-1.47157,-0.729021,0.385598,0
35070,-1.44065,-0.699351,0.354295,0
35090,-1.41191,-0.671633,0.329094,0
35110,-1.38494,-0.642979,0.310434,0
35130,-1.36749,-0.611544,0.300576,0
35150,-1.3542,-0.581269,0.297002,0
35170,-1.34381,-0.552044,0.297231,0
35190,-1.33793,-0.522415,0.300024,0
35210,-1.33631,-0.493307,0.305459,0
35230,-1.33479,-0.466175,0.312391,0
35250,-1.33129,-0.443265,0.320625,0
35270,-1.32795,-0.422247,0.32918,0
35290,-1.32555,-0.404021,0.336388,0
35310,-1.32331,-0.388463,0.341901,0
35330,-1.32112,-0.374504,0.345426,0
35350,-1.31892,-0.360934,0.34742,0
35370,-1.31536,-0.348914,0.348829,0
35390,-1.30894,-0.338975,0.350918,0
35410,-1.2989,-0.331301,0.354039,0
35420,-1.28826,-0.3256,0.357136,0
35450,-1.27951,-0.31978,0.359396,0
35450,-1.27498,-0.31308,0.362211,0
35470,-1.27423,-0.306688,0.365594,1000
35500,-1.2801,-0.302521,0.374859,0
35520,-1.27627,-0.295526,0.376756,0
35540,-1.27894,-0.299005,0.382441,0
35560,-1.28035,-0.297942,0.384186,0
35580,-1.28048,-0.28563,0.383493,0
35600,-1.28018,-0.266117,0.382463,0
35620,-1.28065,-0.245407,0.381522,0
35640,-1.28312,-0.229928,0.381503,0
35660,-1.28658,-0.233096,0.382041,0
35680,-1.28069,-0.255683,0.381166,0
35700,-1.27607,-0.244359,0.378613,0
35720,-1.27786,-0.245079,0.378243,0
35740,-1.2751,-0.234483,0.376451,0
35760,-1.26583,-0.251176,0.373704,0
35780,-1.27238,-0.242938,0.374136,0
35780,-1.27449,-0.226595,0.373452,0
35800,-1.26978,-0.212661,0.371205,0
35840,-1.27246,-0.216245,0.374532,0
35860,-1.27335,-0.21761,0.374865,0
35880,-1.26972,-0.206356,0.373374,0
35900,-1.26619,-0.197729,0.374367,0
35920,-1.26015,-0.203466,0.376733,0
35940,-1.25519,-0.223486,0.380233,0
35960,-1.2506,-0.251187,0.384204,0
35980,-1.24546,-0.281094,0.387425,0
36000,-1.23924,-0.305829,0.390377,0
36020,-1.23315,-0.310826,0.392842,0
36040,-1.23737,-0.289159,0.397094,0
36060,-1.24009,-0.300225,0.40333,0
36080,-1.23873,-0.295128,0.409225,0
36100,-1.23603,-0.31192,0.416249,0
36120,-1.24602,-0.298408,0.427436,0
36150,-1.24162,-0.303433,0.435725,0
36170,-1.24166,-0.322246,0.44723,0
36190,-1.23777,-0.33376,0.455601,0
36200,-1.23585,-0.345336,0.46845,0
36220,-1.23212,-0.358486,0.481185,0
36240,-1.22956,-0.373476,0.494558,0
36260,-1.22986,-0.388967,0.50689,0
36280,-1.23323,-0.404102,0.518471,0
36300,-1.24127,-0.417558,0.530133,0
36320,-1.25046,-0.431645,0.540619,0
36340,-1.25774,-0.447125,0.549247,0
36360,-1.26282,-0.463977,0.556478,0
36380,-1.26665,-0.481289,0.56161,0
36400,-1.2704,-0.498825,0.565902,0
36420,-1.27493,-0.514453,0.569029,0
36440,-1.27764,-0.529909,0.570454,0
36460,-1.27593,-0.547693,0.570463,0
36480,-1.27285,-0.567665,0.569439,0
36500,-1.27024,-0.588552,0.567324,0
36520,-1.26985,-0.608141,0.565122,0
36540,-1.2697,-0.626799,0.560763,0
36560,-1.26876,-0.644332,0.55403,0
36580,-1.26417,-0.661307,0.544367,0
36600,-1.25773,-0.677943,0.53298,0
36620,-1.25165,-0.694135,0.520729,0
36640,-1.24266,-0.710222,0.502492,0
36660,-1.22855,-0.725334,0.47726,0
36680,-1.2095,-0.738473,0.446745,0
36700,-1.18782,-0.748559,0.412311,0
36720,-1.16512,-0.756209,0.374052,0
36740,-1.14324,-0.762839,0.334802,0
36760,-1.12425,-0.76912,0.298913,0
36780,-1.10739,-0.776562,0.268496,0
36800,-1.09111,-0.78547,0.240034,0
36820,-1.07348,-0.797206,0.208303,0
36840,-1.05429,-0.810521,0.173289,0
36860,-1.03482,-0.823738,0.136922,0
36880,-1.0155,-0.837697,0.100777,0
36900,-0.994598,-0.851704,0.0630724,0
36920,-0.971096,-0.865308,0.0221492,0
36940,-0.946109,-0.876574,-0.0210864,0
36960,-0.919988,-0.885995,-0.0665073,0
36980,-0.893319,-0.893804,-0.112838,0
37000,-0.865628,-0.899732,-0.159216,0
37020,-0.837898,-0.903581,-0.204213,0
37040,-0.810204,-0.905988,-0.247864,0
37060,-0.782507,-0.906568,-0.29102,0
37080,-0.756746,-0.904669,-0.330866,0
37100,-0.733868,-0.900885,-0.366019,0
37120,-0.711938,-0.895442,-0.398785,0
37140,-0.6909,-0.888281,-0.42891,0
37160,-0.67171,-0.878796,-0.455467,0
37180,-0.655386,-0.866826,-0.478154,0
37200,-0.641845,-0.851313,-0.497303,0
37220,-0.632203,-0.832362,-0.512542,0
37240,-0.627247,-0.809507,-0.523115,0
37260,-0.629052,-0.786916,-0.524608,0
37280,-0.635357,-0.765625,-0.518969,0
37300,-0.645134,-0.744875,-0.508455,0
37320,-0.658747,-0.723829,-0.495569,0
37340,-0.674744,-0.701822,-0.480866,0
37360,-0.691112,-0.679296,-0.463384,0
37380,-0.70877,-0.658666,-0.442423,0
37400,-0.725057,-0.64076,-0.421502,0
37420,-0.73729,-0.625442,-0.405306,0
37440,-0.748284,-0.610219,-0.392385,0
37460,-0.76376,-0.594381,-0.37711,0
37480,-0.779511,-0.578895,-0.361088,0
37500,-0.792155,-0.565322,-0.347813,0
37520,-0.800492,-0.553097,-0.337474,0
37540,-0.806362,-0.541291,-0.328807,0
37560,-0.812792,-0.529144,-0.321821,0
37580,-0.818267,-0.516225,-0.31588,0
37600,-0.823765,-0.50453,-0.30998,0
37620,-0.829246,-0.495489,-0.304282,0
37640,-0.834234,-0.487327,-0.299044,0
37660,-0.840083,-0.478601,-0.293661,0
37680,-0.84753,-0.470219,-0.2871,0
37700,-0.855105,-0.462573,-0.27927,0
37720,-0.86115,-0.455901,-0.270945,0
37740,-0.866213,-0.450037,-0.262883,0
37760,-0.872276,-0.444175,-0.254723,0
37780,-0.879772,-0.438444,-0.245991,0
37800,-0.887427,-0.432237,-0.236921,0
37820,-0.89469,-0.425857,-0.227826,0
37840,-0.899563,-0.419949,-0.218888,0
37860,-0.902338,-0.414035,-0.209785,0
37880,-0.905277,-0.409128,-0.200193,0
37900,-0.909213,-0.404652,-0.190573,0
37920,-0.913329,-0.400604,-0.180439,0
37940,-0.917752,-0.397166,-0.169291,0
37960,-0.922092,-0.394298,-0.157747,0
37980,-0.925398,-0.391771,-0.146489,0
38000,-0.928487,-0.389323,-0.134972,0
38000,-0.931851,-0.386424,-0.123352,0
38020,-0.93532,-0.383726,-0.111891,0
38040,-0.938628,-0.381059,-0.100597,0
38050,-0.942662,-0.377225,-0.0887912,0
38060,-0.946496,-0.373855,-0.0766669,0
38080,-0.949874,-0.370003,-0.0646047,0
38100,-0.953113,-0.365006,-0.0520484,0
38100,-0.957035,-0.359698,-0.0391006,0
38120,-0.961578,-0.354938,-0.0260846,0
38140,-0.965893,-0.349745,-0.0131992,0
38150,-0.969856,-0.344215,0.000418792,0
38160,-0.974037,-0.340367,0.0150605,0
38180,-0.978528,-0.337765,0.0301761,0
38200,-0.983526,-0.335172,0.0455179,0
38200,-0.988354,-0.332636,0.0606016,0
38220,-0.992982,-0.329956,0.0752972,0
38240,-0.997506,-0.327446,0.0906293,0
38240,-1.00143,-0.325797,0.105785,0
38260,-1.00471,-0.324036,0.121042,0
38280,-1.0095,-0.322155,0.137546,0
38300,-1.01241,-0.321052,0.150896,0
38320,-1.01603,-0.319244,0.165262,0
38340,-1.0246,-0.320882,0.182661,0
38370,-1.02973,-0.306951,0.197644,0
38400,-1.03381,-0.30444,0.217294,0
38420,-1.03977,-0.324691,0.240178,0
38440,-1.04813,-0.356715,0.264073,0
38480,-1.05839,-0.391142,0.287129,0
38540,-1.06789,-0.423631,0.309757,0
38600,-1.08402,-0.441881,0.336911,0
38620,-1.09682,-0.449598,0.357399,0
38640,-1.10976,-0.455355,0.379563,0
38660,-1.12157,-0.46108,0.400593,0
38680,-1.13223,-0.468021,0.421599,0
38700,-1.14157,-0.476252,0.441321,0
38720,-1.15063,-0.484617,0.459318,0
38740,-1.16029,-0.49302,0.476548,0
38760,-1.17119,-0.502068,0.491812,0
38780,-1.18535,-0.5099,0.503903,0
38790,-1.19306,-0.519574,0.51368,0
38810,-1.19467,-0.529805,0.523094,0
38830,-1.19507,-0.541649,0.534337,0
38850,-1.19609,-0.555624,0.546061,0
38870,-1.19806,-0.57026,0.557686,0
38890,-1.20184,-0.584193,0.570068,0
38910,-1.20615,-0.597627,0.581933,0
38930,-1.21051,-0.611905,0.594098,0
38950,-1.21412,-0.626647,0.605318,0
38970,-1.21877,-0.641642,0.615697,0
38990,-1.22384,-0.658095,0.624112,0
39010,-1.23005,-0.675071,0.630853,0
39030,-1.23567,-0.692809,0.636186,0
39050,-1.24049,-0.710602,0.641374,0
39070,-1.24389,-0.72959,0.645026,0
39090,-1.24569,-0.749071,0.645652,0
39110,-1.24834,-0.769861,0.645748,0
39130,-1.25341,-0.790693,0.648322,0
39150,-1.26075,-0.812646,0.652193,0
39170,-1.26672,-0.833505,0.653046,0
39190,-1.26924,-0.85554,0.651268,0
39210,-1.27403,-0.878998,0.650724,0
39230,-1.2825,-0.902589,0.651324,0
39250,-1.29185,-0.926,0.650025,0
39270,-1.30006,-0.949141,0.647253,0
39290,-1.30406,-0.973519,0.641163,0
39310,-1.30352,-0.997256,0.630647,0
39330,-1.30004,-1.02143,0.616149,0
39350,-1.29197,-1.04561,0.596208,0
39370,-1.27705,-1.07009,0.568274,0
39390,-1.25583,-1.09393,0.533575,0
39410,-1.22596,-1.11665,0.490861,0
39430,-1.18833,-1.13752,0.440936,0
39450,-1.14242,-1.1559,0.382003,0
39470,-1.08984,-1.17045,0.316093,0
39490,-1.03356,-1.18027,0.246565,0
39510,-0.974541,-1.18501,0.174272,0
39530,-0.914842,-1.18547,0.100592,0
39550,-0.858328,-1.18154,0.0302318,0
39570,-0.808464,-1.17321,-0.0331267,0
39590,-0.765105,-1.16067,-0.0900065,0
39610,-0.728062,-1.14083,-0.140229,0
39630,-0.697669,-1.11675,-0.183521,0
39650,-0.670012,-1.09154,-0.221814,0
39670,-0.646474,-1.06586,-0.255986,0
39690,-0.626678,-1.03856,-0.286332,0
39710,-0.610684,-1.01091,-0.311549,0
39730,-0.595859,-0.982894,-0.334456,0
39750,-0.580275,-0.956186,-0.356376,0
39770,-0.56538,-0.932487,-0.37721,0
39790,-0.551423,-0.911717,-0.396024,0
39810,-0.542322,-0.892146,-0.410233,0
39830,-0.536693,-0.873707,-0.420617,0
39850,-0.532499,-0.857173,-0.427424,0
39870,-0.52956,-0.841507,-0.431977,0
39890,-0.528195,-0.823998,-0.436351,0
39910,-0.532405,-0.803287,-0.437614,0
39930,-0.542654,-0.779717,-0.435518,0
39950,-0.555934,-0.756014,-0.431675,0
39970,-0.566011,-0.73316,-0.428793,0
39990,-0.573679,-0.710529,-0.425956,0
40010,-0.584799,-0.689716,-0.422079,0
40030,-0.603112,-0.671084,-0.415849,0
40050,-0.624608,-0.651726,-0.406796,0
40070,-0.646943,-0.632799,-0.394769,0
40090,-0.66568,-0.61593,-0.383346,0
40110,-0.684415,-0.600955,-0.373368,0
40130,-0.7052,-0.586037,-0.363179,0
40150,-0.727254,-0.569915,-0.352316,0
40170,-0.748885,-0.554232,-0.340791,0
40190,-0.768432,-0.541917,-0.329514,0
40210,-0.785149,-0.531789,-0.318615,0
40230,-0.801453,-0.523022,-0.306556,0
40250,-0.818229,-0.515512,-0.292935,0
40270,-0.835367,-0.508332,-0.278536,0
40290,-0.85303,-0.501068,-0.262462,0
40310,-0.871802,-0.495978,-0.244074,0
40330,-0.890956,-0.492136,-0.224189,0
40350,-0.910044,-0.488537,-0.203542,0
40370,-0.927935,-0.486057,-0.181627,0
40390,-0.943614,-0.484904,-0.159702,0
40410,-0.95825,-0.484557,-0.137561,0
40430,-0.973178,-0.48539,-0.114548,0
40450,-0.988092,-0.486206,-0.0917061,0
40470,-1.00299,-0.48602,-0.0685394,0
40490,-1.01791,-0.485377,-0.0444973,0
40510,-1.03329,-0.484806,-0.0199109,0
40530,-1.04738,-0.484524,0.00357931,0
40550,-1.0606,-0.483559,0.026662,0
40570,-1.07389,-0.482367,0.0507585,0
40590,-1.08677,-0.482037,0.0743964,0
40610,-1.0989,-0.481029,0.0962197,0
40630,-1.11026,-0.479428,0.116847,0
40650,-1.12097,-0.477532,0.136602,0
40670,-1.13119,-0.476905,0.155739,0
40690,-1.14017,-0.476453,0.17372,0
40710,-1.14809,-0.475579,0.190154,0
40730,-1.15567,-0.47442,0.205447,0
40750,-1.16343,-0.47327,0.220116,0
40770,-1.17094,-0.471265,0.233579,0
40790,-1.17868,-0.468133,0.24579,0
40810,-1.18755,-0.464105,0.258079,0
40830,-1.19808,-0.460374,0.270524,0
40850,-1.20927,-0.457843,0.28287,0
40870,-1.21785,-0.456901,0.294313,0
40890,-1.22518,-0.458766,0.306562,0
40910,-1.2337,-0.463248,0.321297,0
40930,-1.24327,-0.470022,0.336857,0
40950,-1.25414,-0.476923,0.352692,0
40970,-1.26615,-0.484149,0.369415,0
40990,-1.2796,-0.493069,0.387072,0
41010,-1.29268,-0.502941,0.404748,0
41030,-1.30613,-0.51292,0.423084,0
41050,-1.31573,-0.5231,0.439673,0
41070,-1.32104,-0.534753,0.455764,0
41090,-1.32626,-0.549589,0.472376,0
41110,-1.33255,-0.566167,0.48874,0
41130,-1.34182,-0.583648,0.504535,0
41150,-1.35291,-0.602771,0.520459,0
41170,-1.36305,-0.621858,0.535074,0
41190,-1.37372,-0.641917,0.550317,0
41210,-1.38471,-0.663682,0.566187,0
41230,-1.39525,-0.686187,0.581725,0
41250,-1.4054,-0.708883,0.595376,0
41270,-1.41611,-0.730394,0.607694,0
41290,-1.42737,-0.751828,0.61888,0
41310,-1.43814,-0.772954,0.628819,0
41330,-1.44678,-0.794905,0.636504,0
41350,-1.45453,-0.816801,0.642369,0
41370,-1.46043,-0.838209,0.645695,0
41380,-1.46453,-0.859644,0.647176,0
41400,-1.46672,-0.881043,0.646414,0
41420,-1.46739,-0.901285,0.642807,0
41440,-1.46554,-0.920749,0.63621,0
41460,-1.46007,-0.94015,0.625621,0
41480,-1.4517,-0.958236,0.610719,0
41500,-1.44022,-0.974989,0.591567,0
41520,-1.42833,-0.989807,0.571124,0
41540,-1.41766,-1.00316,0.549808,0
41560,-1.40686,-1.01666,0.526878,0
41580,-1.39328,-1.02951,0.50128,0
41600,-1.37558,-1.04199,0.47073,0
41620,-1.354,-1.05452,0.43632,0
41640,-1.32849,-1.06606,0.398331,0
41660,-1.2992,-1.07678,0.355578,0
41680,-1.26418,-1.08621,0.307102,0
41700,-1.2246,-1.09442,0.255847,0
41720,-1.18334,-1.10146,0.204734,0
41740,-1.1397,-1.10629,0.152328,0
41760,-1.09672,-1.10833,0.101972,0
41780,-1.05764,-1.10716,0.0566268,0
41800,-1.02236,-1.10385,0.0157389,0
41820,-0.990752,-1.09854,-0.0209602,0
41840,-0.961533,-1.09015,-0.0561706,0
41860,-0.934984,-1.07893,-0.0895728,0
41880,-0.913814,-1.06501,-0.11667,0
41900,-0.89515,-1.04968,-0.139235,0
41920,-0.875173,-1.03435,-0.161447,0
41940,-0.855019,-1.01843,-0.184149,0
41960,-0.836992,-1.00115,-0.204759,0
41980,-0.821757,-0.982206,-0.222801,0
42000,-0.807607,-0.962414,-0.238542,0
42020,-0.795023,-0.943897,-0.250865,0
42040,-0.786152,-0.925647,-0.260055,0
42060,-0.782845,-0.906491,-0.265968,0
42080,-0.78457,-0.886803,-0.269819,0
42100,-0.78939,-0.865913,-0.274895,0
42120,-0.798481,-0.84246,-0.277864,0
42140,-0.809501,-0.819331,-0.277296,0
42160,-0.820016,-0.797867,-0.273715,0
42180,-0.830902,-0.776511,-0.268982,0
42200,-0.844776,-0.754973,-0.264415,0
42220,-0.861003,-0.735059,-0.259845,0
42240,-0.879218,-0.717825,-0.252863,0
42260,-0.895928,-0.70157,-0.245336,0
42280,-0.910953,-0.686357,-0.237757,0
42300,-0.926036,-0.67442,-0.227712,0
42320,-0.940052,-0.664891,-0.216892,0
42340,-0.953537,-0.656456,-0.205462,0
42360,-0.967656,-0.648011,-0.192429,0
42380,-0.982726,-0.639778,-0.178607,0
42400,-0.998465,-0.63131,-0.164447,0
42420,-1.01392,-0.623083,-0.150709,0
42440,-1.02879,-0.614925,-0.137209,0
42460,-1.04317,-0.606159,-0.124464,0
42480,-1.05784,-0.597337,-0.112098,0
42500,-1.07231,-0.588616,-0.100078,0
42520,-1.08638,-0.580374,-0.089064,0
42540,-1.10009,-0.572492,-0.0783337,0
42560,-1.11521,-0.565003,-0.0658877,0
42580,-1.13185,-0.557682,-0.0526189,0
42600,-1.15,-0.549791,-0.0397528,0
42620,-1.16781,-0.541523,-0.0270679,0
42640,-1.18518,-0.533037,-0.014341,0
42660,-1.20261,-0.525326,-0.000664366,0
42680,-1.21937,-0.518651,0.0131773,0
42700,-1.23411,-0.512972,0.0273601,0
42720,-1.24757,-0.508689,0.0424811,0
42740,-1.26155,-0.505611,0.0590092,0
42760,-1.27759,-0.502162,0.0761964,0
42780,-1.29601,-0.498074,0.0947781,0
42800,-1.31497,-0.494534,0.11484,0
42820,-1.3327,-0.492053,0.135197,0
42840,-1.34822,-0.490113,0.154542,0
42860,-1.36233,-0.488869,0.173911,0
42880,-1.37669,-0.488582,0.193576,0
42900,-1.38898,-0.489927,0.211749,0
42920,-1.39617,-0.492213,0.228659,0
42940,-1.40013,-0.49653,0.24598,0
42960,-1.4026,-0.501792,0.263113,0
42980,-1.40416,-0.507344,0.280442,0
43000,-1.40455,-0.513868,0.2983,0
43020,-1.40468,-0.521166,0.317034,0
43040,-1.40364,-0.528949,0.336901,0
43060,-1.40285,-0.538659,0.358687,0
43080,-1.40444,-0.54983,0.382185,0
43100,-1.40855,-0.561892,0.406059,0
43120,-1.41677,-0.574672,0.431747,0
43140,-1.42926,-0.588459,0.458942,0
43160,-1.44424,-0.601416,0.486132,0
43180,-1.45929,-0.613527,0.512215,0
43200,-1.47444,-0.625159,0.538609,0
43220,-1.49088,-0.638153,0.56539,0
43240,-1.50473,-0.651443,0.590171,0
43260,-1.51745,-0.664415,0.613614,0
43280,-1.53029,-0.678095,0.636768,0
43300,-1.54379,-0.691761,0.659486,0
43320,-1.55638,-0.704975,0.680769,0
43340,-1.56547,-0.717697,0.700952,0
43360,-1.57558,-0.730402,0.722312,0
43380,-1.5913,-0.744017,0.74438,0
43400,-1.60794,-0.757472,0.763861,0
43420,-1.62092,-0.76876,0.78086,0
43440,-1.63205,-0.780417,0.797864,0
43460,-1.64427,-0.793834,0.815687,0
43480,-1.65548,-0.80753,0.832987,0
43500,-1.66518,-0.822228,0.848877,0
43520,-1.6743,-0.838009,0.863651,0
43540,-1.68467,-0.853108,0.879388,0
43560,-1.69715,-0.867234,0.895092,0
43580,-1.70906,-0.880577,0.910454,0
43600,-1.7189,-0.894189,0.924321,0
43620,-1.72871,-0.908203,0.936365,0
43640,-1.73809,-0.920248,0.947663,0
43660,-1.74787,-0.929671,0.958363,0
43680,-1.75577,-0.938352,0.96765,0
43700,-1.76213,-0.947548,0.975349,0
43720,-1.76752,-0.956675,0.981942,1001
43740,-1.77074,-0.964394,0.985582,0
43760,-1.77102,-0.970842,0.985719,0
43780,-1.76819,-0.97791,0.98369,0
43800,-1.76436,-0.984734,0.980036,0
43820,-1.75958,-0.989996,0.974833,0
43840,-1.75455,-0.994447,0.968893,0
43860,-1.74946,-0.997607,0.963215,0
43880,-1.74382,-1.00018,0.956229,0
43900,-1.73798,-1.00169,0.948624,0
43920,-1.73066,-1.00249,0.940235,0
43940,-1.72359,-1.00282,0.932714,0
43960,-1.72206,-1.00192,0.928838,0
43970,-1.72332,-0.99616,0.929185,0
43990,-1.72476,-0.9908,0.928406,0
44010,-1.71998,-0.98968,0.922495,0
44030,-1.71225,-0.988617,0.914535,0
44050,-1.69448,-0.986691,0.896136,0
44070,-1.65792,-0.984775,0.8649,0
44090,-1.61051,-0.979504,0.826989,0
44110,-1.56453,-0.968699,0.787157,0
44130,-1.52232,-0.953241,0.743317,0
44150,-1.47401,-0.933964,0.689917,0
44170,-1.4216,-0.910368,0.632892,0
44190,-1.36513,-0.881182,0.573889,0
44210,-1.30919,-0.848782,0.517848,0
44230,-1.25842,-0.813125,0.467199,0
44250,-1.2105,-0.772978,0.42059,0
44270,-1.16718,-0.727542,0.379582,0
44290,-1.13556,-0.680895,0.348376,0
44310,-1.11455,-0.638873,0.326372,0
44330,-1.10514,-0.593893,0.311351,0
44350,-1.10663,-0.550199,0.301749,0
44370,-1.11569,-0.509687,0.301283,0
44390,-1.12877,-0.470425,0.309211,0
44410,-1.14325,-0.431547,0.320758,0
44430,-1.15632,-0.39748,0.331515,0
44450,-1.16451,-0.371175,0.341043,0
44470,-1.16819,-0.350666,0.351745,0
44490,-1.1679,-0.334386,0.365602,0
44510,-1.16357,-0.322943,0.380867,0
44530,-1.15775,-0.315792,0.395358,0
44550,-1.15402,-0.311117,0.408422,0
44570,-1.15265,-0.306489,0.420411,0
44590,-1.15317,-0.302161,0.433014,0
44610,-1.15395,-0.29939,0.444825,0
44630,-1.15385,-0.298126,0.454443,0
44650,-1.15276,-0.297771,0.462156,0
44670,-1.15184,-0.296855,0.468511,0
44690,-1.15058,-0.294853,0.473455,0
44710,-1.14855,-0.293561,0.47701,0
44730,-1.14609,-0.292514,0.480301,0
44750,-1.14398,-0.291625,0.483674,0
44760,-1.14316,-0.291333,0.486173,0
44780,-1.14276,-0.290752,0.487442,0
44780,-1.14311,-0.289088,0.488514,0
44800,-1.14384,-0.28724,0.489571,0
44840,-1.14414,-0.285565,0.490464,0
44860,-1.14555,-0.286811,0.490828,0
44880,-1.14526,-0.289391,0.491434,0
44900,-1.14122,-0.285174,0.487574,0
44930,-1.13707,-0.274572,0.484368,0
44950,-1.13565,-0.271598,0.4823,0
44960,-1.13497,-0.275923,0.481707,0
44980,-1.13186,-0.275037,0.478012,0
45000,-1.13287,-0.272692,0.479561,0
45020,-1.13109,-0.271582,0.476114,0
45040,-1.12693,-0.265792,0.47161,0
45060,-1.13426,-0.271816,0.476144,0
45080,-1.138,-0.270963,0.476799,0
45100,-1.13988,-0.255915,0.47553,0
45130,-1.14065,-0.234331,0.474066,0
45150,-1.14092,-0.212311,0.472798,0
45170,-1.1421,-0.188954,0.472538,1000
45180,-1.14345,-0.16337,0.470582,0
45200,-1.14907,-0.145965,0.469041,0
45220,-1.14794,-0.165481,0.469469,0
45240,-1.14428,-0.166875,0.469821,0
45260,-1.14773,-0.174605,0.47172,0
45280,-1.15381,-0.163851,0.474369,0
45300,-1.14937,-0.183198,0.476605,0
45320,-1.15678,-0.185331,0.481187,0
45340,-1.16956,-0.170575,0.486981,0
45360,-1.17691,-0.161427,0.492172,0
45380,-1.17693,-0.162456,0.496471,0
45400,-1.17303,-0.169042,0.501012,0
45420,-1.16909,-0.177677,0.506741,0
45440,-1.16869,-0.183399,0.513784,0
45470,-1.17464,-0.182362,0.522287,0
45490,-1.18706,-0.178485,0.53243,0
45510,-1.18581,-0.194927,0.539335,0
45530,-1.18622,-0.209473,0.544039,0
45550,-1.18815,-0.224118,0.549302,0
45570,-1.1886,-0.239047,0.553302,0
45590,-1.18807,-0.254353,0.556677,0
45610,-1.18741,-0.271478,0.558579,0
45630,-1.18632,-0.289983,0.558601,0
45650,-1.18572,-0.308763,0.558554,0
45670,-1.18493,-0.32799,0.558471,0
45690,-1.18429,-0.348026,0.556753,0
45710,-1.18309,-0.36823,0.553471,0
45730,-1.18046,-0.38944,0.549945,0
45750,-1.17862,-0.412961,0.545465,0
45770,-1.17808,-0.43518,0.538184,0
45790,-1.17682,-0.455583,0.52831,0
45810,-1.17415,-0.474961,0.517916,0
45830,-1.17122,-0.49262,0.507958,0
45850,-1.16727,-0.51051,0.495796,0
45870,-1.16313,-0.527371,0.48251,0
45890,-1.15763,-0.542819,0.467497,0
45910,-1.15089,-0.556974,0.451316,0
45930,-1.14293,-0.572319,0.433747,0
45950,-1.13447,-0.587737,0.413758,0
45970,-1.12622,-0.603026,0.392504,0
45990,-1.11845,-0.618578,0.37028,0
46010,-1.11033,-0.634198,0.3465,0
46030,-1.10093,-0.649685,0.321465,0
46050,-1.0902,-0.664574,0.295602,0
46070,-1.06523,-0.690738,0.237506,0
46090,-1.04996,-0.70118,0.204443,0
46110,-1.03362,-0.709876,0.168311,0
46130,-1.01564,-0.716315,0.129549,0
46150,-0.995275,-0.720545,0.0893116,0
46170,-0.974175,-0.722223,0.0488147,0
46190,-0.953468,-0.72238,0.00818362,0
46210,-0.933285,-0.720928,-0.031148,0
46230,-0.913705,-0.718499,-0.068109,0
46250,-0.895815,-0.714546,-0.101448,0
46270,-0.879345,-0.709315,-0.131449,0
46290,-0.865022,-0.703155,-0.157714,0
46310,-0.852853,-0.695917,-0.180923,0
46330,-0.84245,-0.686797,-0.202404,0
46350,-0.83339,-0.67558,-0.222441,0
46370,-0.824007,-0.663415,-0.240091,0
46390,-0.815039,-0.652527,-0.254376,0
46410,-0.806487,-0.643051,-0.267315,0
46430,-0.798659,-0.633472,-0.279963,0
46450,-0.795017,-0.621841,-0.288973,0
46470,-0.793167,-0.609886,-0.29345,0
46490,-0.792169,-0.598602,-0.295235,0
46510,-0.79138,-0.587591,-0.298351,0
46530,-0.790323,-0.574568,-0.301091,0
46550,-0.791096,-0.561246,-0.299618,0
46560,-0.794424,-0.549334,-0.292806,0
46580,-0.797893,-0.538599,-0.286135,0
46600,-0.802025,-0.52661,-0.28177,0
46620,-0.807421,-0.512236,-0.27602,0
46640,-0.815352,-0.496262,-0.2673,0
46660,-0.824607,-0.480616,-0.259075,0
46680,-0.833599,-0.465811,-0.25415,0
46700,-0.842365,-0.450809,-0.250215,0
46720,-0.849969,-0.435307,-0.245605,0
46740,-0.856113,-0.420495,-0.240929,0
46760,-0.861592,-0.406403,-0.237571,0
46780,-0.866391,-0.393879,-0.235848,0
46800,-0.8706,-0.382533,-0.232892,0
46820,-0.875948,-0.372842,-0.228415,0
46820,-0.882475,-0.364668,-0.223834,0
46840,-0.889134,-0.357791,-0.219148,0
46860,-0.895108,-0.352378,-0.214722,0
46880,-0.899129,-0.347441,-0.212622,0
46900,-0.903932,-0.343896,-0.207272,0
46920,-0.904693,-0.331934,-0.206391,0
46940,-0.908361,-0.330029,-0.199326,0
46970,-0.913542,-0.345936,-0.190842,0
47000,-0.919436,-0.357722,-0.184813,0
47020,-0.925249,-0.355306,-0.181265,0
47040,-0.931264,-0.343554,-0.17835,0
47060,-0.936684,-0.335225,-0.174305,0
47080,-0.937591,-0.348848,-0.169857,0
47100,-0.933279,-0.35352,-0.165608,0
47120,-0.938808,-0.343595,-0.158235,0
47140,-0.938668,-0.340134,-0.151855,0
47160,-0.934563,-0.35176,-0.1451,0
47180,-0.944925,-0.33755,-0.132404,0
47200,-0.952565,-0.32452,-0.120132,0
47220,-0.949996,-0.327392,-0.110918,0
47240,-0.942364,-0.338568,-0.102973,0
47260,-0.935009,-0.352008,-0.0949725,0
47280,-0.927353,-0.365287,-0.0863893,0
47300,-0.919558,-0.377762,-0.0778019,0
47320,-0.913821,-0.385275,-0.0685999,0
47340,-0.91805,-0.382124,-0.0556225,0
47360,-0.936434,-0.369285,-0.0371073,0
47380,-0.952551,-0.363429,-0.020896,0
47400,-0.944725,-0.372746,-0.013763,0
47400,-0.944524,-0.368663,-0.00389965,0
47420,-0.959834,-0.353051,0.010968,0
47440,-0.959653,-0.371943,0.0212036,0
47460,-0.960248,-0.388918,0.0326968,0
47480,-0.965447,-0.409274,0.0464416,0
47520,-0.971986,-0.414705,0.0562844,0
47540,-0.976655,-0.398032,0.0617787,0
47560,-0.981774,-0.38865,0.0679468,0
47580,-0.987131,-0.384362,0.0774889,0
47600,-0.991604,-0.38177,0.0868834,0
47620,-0.996808,-0.379886,0.09655,0
47640,-1.00289,-0.378682,0.106527,0
47660,-1.01007,-0.377365,0.116434,0
47680,-1.01704,-0.376278,0.126116,0
47700,-1.0236,-0.375423,0.136479,0
47720,-1.03006,-0.374459,0.147473,0
47740,-1.03659,-0.372757,0.158654,0
47760,-1.04356,-0.37043,0.170317,0
47780,-1.05132,-0.368513,0.18243,0
47800,-1.06048,-0.367751,0.195006,0
47820,-1.06981,-0.368295,0.207641,0
47840,-1.07851,-0.369465,0.220846,0
47860,-1.08687,-0.370097,0.234579,0
47880,-1.09587,-0.370865,0.249208,0
47900,-1.10476,-0.371948,0.26439,0
47920,-1.11331,-0.372219,0.279785,0
47940,-1.12226,-0.371006,0.294989,0
47960,-1.13167,-0.3705,0.309831,0
47980,-1.14133,-0.370194,0.324108,0
48000,-1.15,-0.370782,0.337705,0
48020,-1.15675,-0.372433,0.350541,0
48040,-1.16202,-0.375007,0.362557,0
48060,-1.16706,-0.378051,0.375036,0
48080,-1.17162,-0.382033,0.388968,0
48100,-1.17427,-0.387402,0.402985,0
48120,-1.17562,-0.39113,0.416548,0
48140,-1.17835,-0.392541,0.43092,0
48160,-1.18239,-0.394485,0.445716,0
48180,-1.18751,-0.397837,0.460132,0
48200,-1.19317,-0.402073,0.474375,0
48220,-1.19866,-0.407305,0.487566,0
48240,-1.20305,-0.413872,0.499257,0
48260,-1.2078,-0.420538,0.509453,0
48280,-1.21085,-0.428395,0.520327,0
48300,-1.20859,-0.43902,0.532538,0
48320,-1.2087,-0.448887,0.545318,0
48340,-1.21484,-0.456239,0.560142,0
48360,-1.22379,-0.464089,0.577363,0
48380,-1.23249,-0.47485,0.594578,0
48400,-1.24023,-0.48571,0.609785,0
48420,-1.24893,-0.495095,0.623684,0
48440,-1.25583,-0.504847,0.635099,0
48460,-1.25966,-0.515624,0.642842,0
48480,-1.26198,-0.526727,0.647819,0
48500,-1.26181,-0.538496,0.651861,0
48520,-1.26039,-0.550705,0.656223,0
48540,-1.25773,-0.56546,0.660852,0
48560,-1.25613,-0.581893,0.665882,0
48580,-1.25883,-0.595895,0.672396,0
48600,-1.26428,-0.60776,0.68075,0
48620,-1.26906,-0.618967,0.68849,0
48640,-1.27412,-0.629058,0.694778,0
48660,-1.27813,-0.637283,0.699428,0
48680,-1.28105,-0.645905,0.702725,0
48700,-1.28267,-0.655606,0.704477,0
48720,-1.28322,-0.666038,0.70574,0
48740,-1.28191,-0.678546,0.705132,0
48760,-1.28062,-0.691398,0.70394,0
48780,-1.28163,-0.70366,0.702089,0
48800,-1.28471,-0.714756,0.700049,0
48820,-1.28644,-0.726118,0.696501,0
48840,-1.28736,-0.73783,0.691998,0
48860,-1.28802,-0.749878,0.685702,0
48880,-1.28803,-0.761431,0.676445,0
48900,-1.2858,-0.774852,0.664533,0
48920,-1.28221,-0.791071,0.650931,0
48940,-1.27653,-0.808095,0.636321,0
48960,-1.27138,-0.825393,0.622398,0
48980,-1.26679,-0.843517,0.608462,0
49000,-1.26146,-0.861422,0.593373,0
49020,-1.25769,-0.876882,0.578434,0
49040,-1.25381,-0.891332,0.563363,0
49060,-1.24913,-0.905374,0.547515,0
49080,-1.24396,-0.917677,0.530851,0
49100,-1.23685,-0.928351,0.512104,0
49120,-1.22826,-0.938871,0.49133,0
49140,-1.21503,-0.95007,0.4664,0
49160,-1.19831,-0.962125,0.43755,0
49160,-1.1491,-0.986422,0.364941,0
49180,-1.1206,-0.997917,0.326382,0
49200,-1.06176,-1.0191,0.245997,0
49220,-1.03404,-1.02624,0.206051,0
49240,-1.00734,-1.03119,0.168486,0
49260,-0.979854,-1.03431,0.131345,0
49280,-0.951682,-1.03488,0.0934894,0
49300,-0.920916,-1.03348,0.0525452,0
49320,-0.888355,-1.0292,0.010617,0
49340,-0.856924,-1.02344,-0.0299875,0
49360,-0.824986,-1.01562,-0.0704712,0
49380,-0.7932,-1.00287,-0.111458,0
49400,-0.765022,-0.987689,-0.148401,0
49420,-0.740953,-0.970893,-0.178216,0
49440,-0.718369,-0.952641,-0.205403,0
49460,-0.699056,-0.929236,-0.227683,0
49480,-0.68757,-0.90539,-0.242015,0
49500,-0.685092,-0.883999,-0.248087,0
49520,-0.688986,-0.864595,-0.247323,0
49540,-0.698694,-0.843927,-0.239646,0
49560,-0.709633,-0.823101,-0.229503,0
49580,-0.72169,-0.803517,-0.218502,0
49600,-0.735112,-0.784081,-0.206508,0
49620,-0.750435,-0.763322,-0.194466,0
49640,-0.765617,-0.74135,-0.182421,0
49660,-0.780258,-0.718702,-0.17039,0
49680,-0.794033,-0.696255,-0.16036,0
49700,-0.806311,-0.675121,-0.151418,0
49720,-0.820709,-0.655468,-0.140757,0
49740,-0.838783,-0.635621,-0.127171,0
49760,-0.855487,-0.615387,-0.112693,0
49780,-0.8708,-0.597502,-0.0967247,0
49800,-0.885664,-0.582597,-0.080343,0
49820,-0.90263,-0.567981,-0.0632692,0
49840,-0.920931,-0.552756,-0.0457188,0
49860,-0.940209,-0.538395,-0.0280501,0
49880,-0.959219,-0.525218,-0.0107677,0
49900,-0.977767,-0.512966,0.00582617,0
49920,-0.992169,-0.501711,0.0207519,0
49940,-1.00288,-0.492675,0.0346057,0
49960,-1.01235,-0.486108,0.048072,0
49980,-1.02342,-0.479924,0.0619744,0
50000,-1.03433,-0.473914,0.0757675,0
50020,-1.04404,-0.468581,0.0894567,0
50040,-1.05317,-0.462827,0.10249,0
50060,-1.06396,-0.45526,0.115407,0
50080,-1.07608,-0.447801,0.129009,0
50100,-1.08827,-0.440402,0.142937,0
50120,-1.10116,-0.434228,0.157516,0
50140,-1.11368,-0.430135,0.172729,0
50160,-1.12511,-0.428083,0.187949,0
50180,-1.13593,-0.426455,0.203104,0
50200,-1.14934,-0.424484,0.219513,0
50220,-1.16443,-0.423231,0.237344,0
50240,-1.1785,-0.423231,0.255541,0
50260,-1.19203,-0.424051,0.274585,0
50280,-1.206,-0.426063,0.29436,0
50300,-1.22156,-0.428549,0.314128,0
50320,-1.23703,-0.431277,0.333989,0
50340,-1.25076,-0.435466,0.353668,0
50360,-1.26234,-0.441609,0.373251,0
50380,-1.27407,-0.450168,0.394661,0
50400,-1.28423,-0.461336,0.415589,0
50420,-1.29189,-0.472237,0.43438,0
50440,-1.30141,-0.482837,0.4548,0
50460,-1.31147,-0.494708,0.476111,0
50480,-1.32007,-0.50799,0.496602,0
50500,-1.3283,-0.520745,0.517101,0
50520,-1.3375,-0.533234,0.53791,0
50540,-1.34859,-0.546168,0.559918,0
50560,-1.35923,-0.559425,0.582497,0
50580,-1.36554,-0.573555,0.60214,0
50600,-1.36624,-0.588612,0.619364,0
50620,-1.36165,-0.603468,0.633942,0
50640,-1.35767,-0.618081,0.646951,0
50660,-1.35589,-0.633966,0.657773,0
50680,-1.35648,-0.649762,0.667066,0
50700,-1.35741,-0.664021,0.674995,0
50720,-1.35873,-0.677435,0.681358,0
50740,-1.35881,-0.691113,0.685133,0
50760,-1.35735,-0.705986,0.6855,0
50780,-1.35465,-0.7231,0.683823,0
50800,-1.3515,-0.743104,0.68086,0
50820,-1.35049,-0.765405,0.676936,0
50840,-1.35067,-0.787737,0.672098,0
50860,-1.34794,-0.80945,0.663696,0
50880,-1.34072,-0.833787,0.655541,0
50900,-1.33402,-0.858127,0.648681,0
50920,-1.33305,-0.878331,0.645101,0
50940,-1.33511,-0.896037,0.643015,0
50960,-1.33508,-0.913653,0.640035,0
50980,-1.33305,-0.929918,0.635253,0
51000,-1.3281,-0.945524,0.626065,0
51020,-1.31787,-0.961691,0.611259,0
51040,-1.30249,-0.980167,0.592104,0
51060,-1.28227,-1.00116,0.570097,0
51080,-1.2617,-1.02371,0.54674,0
51100,-1.241,-1.04521,0.519748,0
51120,-1.21835,-1.06523,0.487892,0
51140,-1.19445,-1.08389,0.454468,0
51160,-1.16821,-1.10247,0.420573,0
51180,-1.13787,-1.11953,0.385734,0
51200,-1.11007,-1.13322,0.353258,0
51220,-1.09316,-1.14302,0.329482,0
51240,-1.08366,-1.14978,0.31272,0
51260,-1.0702,-1.15539,0.293549,0
51280,-1.05187,-1.16053,0.270847,0
51300,-1.02875,-1.16586,0.24308,0
51320,-1.00015,-1.17078,0.208878,0
51340,-0.962466,-1.1768,0.16677,0
51360,-0.91543,-1.18391,0.118742,0
51380,-0.867297,-1.18942,0.0696046,0
51400,-0.823303,-1.19132,0.0224162,0
51420,-0.78302,-1.19018,-0.0224218,0
51440,-0.744999,-1.18556,-0.0644762,0
51460,-0.710724,-1.17708,-0.102968,0
51480,-0.683778,-1.16422,-0.135649,0
51500,-0.663054,-1.1474,-0.162838,0
51520,-0.648866,-1.1304,-0.183525,0
51540,-0.635767,-1.11356,-0.20085,0
51560,-0.625781,-1.09621,-0.214205,0
51580,-0.620215,-1.07785,-0.224238,0
51600,-0.618447,-1.06031,-0.230406,0
51620,-0.615889,-1.04366,-0.235909,0
51640,-0.61421,-1.02652,-0.239863,0
51660,-0.615848,-1.00793,-0.240382,0
51680,-0.619881,-0.988926,-0.238423,0
51700,-0.624647,-0.970596,-0.235302,0
51720,-0.630518,-0.952411,-0.230131,0
51730,-0.638424,-0.932779,-0.222063,0
51750,-0.65105,-0.911323,-0.210569,0
51770,-0.666152,-0.888442,-0.196724,0
51790,-0.682656,-0.864159,-0.182279,0
51810,-0.701458,-0.838876,-0.169346,0
51830,-0.725196,-0.813452,-0.156262,0
51850,-0.755108,-0.788294,-0.142109,0
51870,-0.786145,-0.763981,-0.128816,0
51890,-0.813915,-0.739831,-0.11729,0
51910,-0.837784,-0.716939,-0.107281,0
51930,-0.858926,-0.696227,-0.0983867,0
51950,-0.879112,-0.675303,-0.0919591,0
51970,-0.899351,-0.654044,-0.0861224,0
51990,-0.919927,-0.632493,-0.0788198,0
52010,-0.945301,-0.613548,-0.0674478,0
52030,-0.973881,-0.598578,-0.0534194,0
52050,-0.999331,-0.58675,-0.0388443,0
52070,-1.01981,-0.577629,-0.0254465,0
52090,-1.03695,-0.569919,-0.0137116,0
52110,-1.05417,-0.561679,-0.00170862,0
52130,-1.07154,-0.55368,0.00957902,0
52150,-1.0877,-0.546302,0.0205799,0
52170,-1.10254,-0.539636,0.0317099,0
52190,-1.11571,-0.533822,0.0426979,0
52210,-1.13009,-0.527262,0.0546787,0
52230,-1.14594,-0.519857,0.0693857,0
52250,-1.16687,-0.513867,0.087677,0
52270,-1.19252,-0.508947,0.107469,0
52290,-1.21693,-0.503461,0.12558,0
52310,-1.23468,-0.49982,0.142516,0
52330,-1.24625,-0.50087,0.160447,0
52350,-1.25528,-0.504859,0.177543,0
52370,-1.26378,-0.508457,0.193251,0
52390,-1.27225,-0.512482,0.209403,0
52410,-1.27961,-0.516485,0.225422,0
52430,-1.28735,-0.520202,0.243171,0
52450,-1.29965,-0.525018,0.263838,0
52470,-1.31882,-0.528987,0.285693,0
52490,-1.34149,-0.530977,0.308875,0
52510,-1.36431,-0.533043,0.334185,0
52530,-1.38571,-0.536013,0.361485,0
52550,-1.40452,-0.541816,0.388608,0
52570,-1.42032,-0.549618,0.414184,0
52590,-1.43243,-0.558859,0.438345,0
52610,-1.44268,-0.570403,0.462518,0
52630,-1.45221,-0.583751,0.486328,0
52650,-1.46265,-0.596931,0.508929,0
52670,-1.47337,-0.609129,0.52972,0
52690,-1.48436,-0.62127,0.550129,0
52710,-1.49471,-0.634076,0.571232,0
52730,-1.50451,-0.647569,0.591265,0
52750,-1.51534,-0.660162,0.609008,0
52770,-1.5267,-0.671898,0.626744,0
52790,-1.53446,-0.684366,0.644154,0
52810,-1.53814,-0.699821,0.662137,0
52830,-1.54232,-0.71672,0.680924,0
52850,-1.54836,-0.733853,0.698383,0
52870,-1.55421,-0.751661,0.7152,0
52890,-1.56002,-0.769272,0.733587,0
52910,-1.56539,-0.786095,0.752126,0
52930,-1.57291,-0.803229,0.77063,0
52950,-1.58065,-0.82025,0.788589,0
52970,-1.58877,-0.836591,0.806995,0
52990,-1.59915,-0.852669,0.827645,0
53010,-1.6105,-0.868053,0.848555,0
53030,-1.62235,-0.883309,0.868327,0
53050,-1.63117,-0.897373,0.887083,0
53070,-1.63848,-0.911278,0.905354,0
53090,-1.64722,-0.924882,0.922294,0
53110,-1.65709,-0.938097,0.938089,0
53130,-1.66826,-0.949407,0.954598,0
53150,-1.67681,-0.959677,0.968525,1001
53170,-1.68251,-0.970173,0.979195,0
53190,-1.68851,-0.979688,0.988756,0
53210,-1.69384,-0.987329,0.996652,0
53230,-1.69631,-0.99567,0.999644,0
53250,-1.69248,-1.0033,0.995772,0
53270,-1.68568,-1.00952,0.990107,0
53290,-1.67777,-1.0153,0.983555,0
53310,-1.66891,-1.02003,0.975374,0
53330,-1.65934,-1.02345,0.96567,0
53350,-1.64893,-1.02476,0.954255,0
53370,-1.63813,-1.02436,0.942743,0
53390,-1.62971,-1.0236,0.934734,0
53410,-1.6271,-1.02254,0.931425,0
53430,-1.62571,-1.02049,0.929176,0
53450,-1.62431,-1.01895,0.925873,0
53470,-1.62168,-1.01698,0.922294,0
53490,-1.6156,-1.0169,0.915619,0
53510,-1.60404,-1.02064,0.904752,0
53530,-1.59002,-1.0262,0.893089,0
53550,-1.57314,-1.03239,0.879416,0
53570,-1.55489,-1.03908,0.864189,0
53590,-1.53531,-1.04507,0.846536,0
53610,-1.51366,-1.04943,0.824368,0
53630,-1.48895,-1.05243,0.797664,0
53650,-1.46064,-1.05016,0.766115,0
53670,-1.43272,-1.04189,0.735437,0
53690,-1.41101,-1.02585,0.711164,0
53710,-1.39264,-1.00401,0.68929,0
53730,-1.37194,-0.979476,0.664294,0
53750,-1.34885,-0.949273,0.637972,0
53770,-1.33358,-0.910276,0.620516,0
53790,-1.32603,-0.866466,0.608817,0
53810,-1.3191,-0.821846,0.595605,0
53830,-1.30789,-0.77753,0.579556,0
53850,-1.29594,-0.733854,0.564528,0
53870,-1.28435,-0.6938,0.551307,0
53890,-1.27219,-0.657559,0.541191,0
53910,-1.26286,-0.621404,0.534424,0
53930,-1.25794,-0.583157,0.530106,0
53950,-1.25728,-0.550144,0.525901,0
53970,-1.25815,-0.521687,0.521701,0
53990,-1.25739,-0.494864,0.516572,0
54010,-1.25408,-0.470753,0.510943,0
54030,-1.24816,-0.450097,0.504387,0
54050,-1.24477,-0.431618,0.498279,0
54070,-1.24434,-0.412659,0.492584,0
54090,-1.24591,-0.39507,0.487429,0
54110,-1.24505,-0.379615,0.482525,0
54130,-1.24286,-0.366253,0.478612,0
54130,-1.23978,-0.355135,0.476501,0
54150,-1.23551,-0.345815,0.476438,0
54170,-1.23239,-0.338554,0.478437,0
54170,-1.23173,-0.334281,0.481485,0
54190,-1.23323,-0.331597,0.485627,0
54210,-1.23595,-0.327195,0.491229,0
54230,-1.2334,-0.324428,0.491093,0
54250,-1.22615,-0.317826,0.489073,0
54270,-1.23011,-0.320152,0.495859,0
54310,-1.22999,-0.313641,0.497454,0
54330,-1.22917,-0.295016,0.496905,0
54350,-1.22826,-0.270484,0.496336,0
54370,-1.22673,-0.244617,0.495455,0
54390,-1.22508,-0.217297,0.494942,0
54410,-1.2276,-0.193847,0.496014,0
54430,-1.23002,-0.197836,0.498016,0
54460,-1.22141,-0.218088,0.499334,0
54480,-1.22777,-0.19888,0.503022,0
54500,-1.21763,-0.215911,0.504614,0
54520,-1.22332,-0.214134,0.50799,0
54540,-1.22896,-0.199954,0.510973,0
54560,-1.22092,-0.208403,0.512016,0
54580,-1.21143,-0.223865,0.513477,1000
54600,-1.20637,-0.234982,0.515468,0
54620,-1.20725,-0.242514,0.518036,0
54640,-1.20823,-0.250153,0.520091,0
54660,-1.20389,-0.26113,0.522596,0
54680,-1.19521,-0.276947,0.525275,0
54700,-1.18555,-0.293274,0.527587,0
54720,-1.18597,-0.296877,0.533671,0
54740,-1.20264,-0.286486,0.54658,0
54760,-1.20698,-0.292211,0.556926,0
54780,-1.19052,-0.309374,0.56137,0
54800,-1.20406,-0.304357,0.575612,0
54820,-1.20348,-0.299668,0.584064,0
54840,-1.20865,-0.306642,0.59783,0
54860,-1.21018,-0.318092,0.607332,0
54880,-1.21016,-0.33117,0.616125,0
54900,-1.2105,-0.344862,0.623484,0
54920,-1.21175,-0.357615,0.629507,0
54940,-1.21418,-0.369592,0.635175,0
54960,-1.21729,-0.38185,0.640429,0
54980,-1.21935,-0.395426,0.645836,0
55000,-1.2201,-0.410004,0.650729,0
55020,-1.22152,-0.424481,0.655537,0
55040,-1.22374,-0.439389,0.659662,0
55060,-1.22627,-0.45526,0.663167,0
55080,-1.228,-0.472081,0.666635,0
55100,-1.22907,-0.488201,0.669469,0
55120,-1.22897,-0.503716,0.670554,0
55140,-1.22758,-0.51857,0.66814,0
55160,-1.22875,-0.534096,0.662352,0
55180,-1.23045,-0.548953,0.65423,0
55200,-1.22918,-0.564193,0.644753,0
55220,-1.22587,-0.579688,0.632193,0
55240,-1.22126,-0.596468,0.615809,0
55260,-1.21495,-0.61316,0.596236,0
55280,-1.20583,-0.629957,0.573889,0
55300,-1.1948,-0.646423,0.55062,0
55320,-1.18303,-0.665155,0.523896,0
55340,-1.16891,-0.685779,0.490304,0
55360,-1.15068,-0.707022,0.450329,0
55380,-1.12695,-0.727983,0.404368,0
55400,-1.09902,-0.746797,0.351943,0
55420,-1.06678,-0.763698,0.293748,0
55440,-1.03289,-0.777038,0.232757,0
55460,-0.998619,-0.785522,0.170684,0
55480,-0.963364,-0.789489,0.108628,0
55500,-0.928492,-0.789561,0.0491529,0
55520,-0.895368,-0.78688,-0.00667356,0
55540,-0.867613,-0.779574,-0.0564694,0
55560,-0.842218,-0.768882,-0.102971,0
55580,-0.819429,-0.756587,-0.144189,0
55600,-0.799703,-0.742381,-0.178978,0
55620,-0.78141,-0.726564,-0.209437,0
55640,-0.765588,-0.710126,-0.234227,0
55660,-0.752642,-0.694454,-0.25185,0
55680,-0.741405,-0.68171,-0.266684,0
55700,-0.732076,-0.670715,-0.280602,0
55720,-0.724828,-0.660652,-0.290953,0
55740,-0.721079,-0.650844,-0.294757,0
55760,-0.719894,-0.641377,-0.293129,0
55780,-0.719156,-0.631113,-0.288586,0
55800,-0.717571,-0.61746,-0.282583,0
55820,-0.719287,-0.602142,-0.274988,0
55840,-0.72771,-0.586573,-0.264115,0
55860,-0.741808,-0.56993,-0.248946,0
55880,-0.758117,-0.55214,-0.23068,0
55900,-0.770822,-0.534882,-0.21233,0
55920,-0.782896,-0.518958,-0.195379,0
55940,-0.797534,-0.50316,-0.180481,0
55960,-0.814116,-0.487338,-0.165851,0
55980,-0.832237,-0.471028,-0.150147,0
56000,-0.847381,-0.454651,-0.135804,0
56020,-0.859874,-0.439087,-0.123184,0
56040,-0.871879,-0.425781,-0.111869,0
56060,-0.884164,-0.41387,-0.101993,0
56080,-0.895119,-0.400817,-0.0924743,0
56100,-0.905498,-0.386019,-0.0821008,0
56120,-0.914742,-0.372068,-0.0723623,0
56140,-0.923827,-0.360528,-0.0641252,0
56160,-0.933447,-0.350219,-0.0559606,0
56180,-0.942096,-0.340328,-0.0468667,0
56200,-0.949098,-0.33167,-0.0377473,0
56210,-0.955705,-0.324964,-0.0291358,0
56250,-0.962646,-0.319609,-0.0199679,0
56250,-0.9689,-0.315706,-0.0101271,0
56260,-0.972205,-0.312084,-0.00244629,0
56290,-0.97502,-0.309255,0.00544773,0
56310,-0.97445,-0.299737,0.0106573,0
56330,-0.979477,-0.304313,0.0240824,0
56350,-0.987048,-0.316829,0.0370981,0
56370,-0.994394,-0.313094,0.0472703,0
56390,-1.0003,-0.292196,0.0565765,0
56410,-1.00531,-0.261298,0.0668572,0
56430,-1.01135,-0.228129,0.0783439,0
56460,-1.01912,-0.204067,0.0910101,0
56480,-1.02149,-0.216328,0.105097,0
56500,-1.02178,-0.221979,0.119584,0
56520,-1.02434,-0.224491,0.132906,0
56540,-1.03225,-0.227057,0.150077,0
56560,-1.03718,-0.230916,0.166908,0
56580,-1.03906,-0.235141,0.18465,0
56600,-1.04073,-0.239916,0.20254,0
56620,-1.04396,-0.245001,0.220251,0
56640,-1.0498,-0.250777,0.23935,0
56660,-1.05668,-0.257123,0.259827,0
56680,-1.06302,-0.264122,0.280436,0
56700,-1.06833,-0.271294,0.300622,0
56720,-1.07314,-0.279457,0.320867,0
56740,-1.0791,-0.28838,0.341809,0
56760,-1.0856,-0.297183,0.363125,0
56780,-1.09334,-0.305982,0.384507,0
56800,-1.10268,-0.314797,0.406105,0
56820,-1.11364,-0.324002,0.427493,0
56840,-1.12585,-0.332452,0.4486,0
56860,-1.13699,-0.34078,0.469463,0
56880,-1.14828,-0.349683,0.490248,0
56900,-1.15994,-0.35935,0.510191,0
56920,-1.17086,-0.368883,0.528739,0
56940,-1.18042,-0.378458,0.546622,0
56950,-1.18878,-0.389087,0.564096,0
56970,-1.19654,-0.400221,0.581307,0
56990,-1.20376,-0.412352,0.597552,0
57010,-1.21151,-0.42497,0.613347,0
57030,-1.2205,-0.437887,0.629156,0
57050,-1.22897,-0.45076,0.644041,0
57070,-1.23709,-0.464274,0.658478,0
57090,-1.24552,-0.478377,0.672545,0
57110,-1.25352,-0.493295,0.685478,0
57130,-1.2609,-0.507857,0.697462,0
57150,-1.26853,-0.521664,0.70773,0
57170,-1.27483,-0.535313,0.715356,0
57190,-1.28041,-0.549616,0.721196,0
57210,-1.28536,-0.565263,0.726799,0
57230,-1.29081,-0.581475,0.731602,0
57250,-1.29565,-0.59756,0.734537,0
57270,-1.30082,-0.614139,0.735618,0
57290,-1.30722,-0.630741,0.735911,0
57310,-1.31244,-0.647354,0.735036,0
57330,-1.31628,-0.664675,0.731992,0
57350,-1.3195,-0.681667,0.726871,0
57370,-1.32075,-0.698369,0.719085,0
57390,-1.32027,-0.7176,0.710807,0
57410,-1.32073,-0.738236,0.702381,0
57430,-1.32087,-0.758864,0.692868,0
57450,-1.31859,-0.779798,0.681262,0
57470,-1.31437,-0.800278,0.667822,0
57490,-1.31003,-0.819688,0.652478,0
57510,-1.30381,-0.838622,0.634485,0
57530,-1.29533,-0.856918,0.614631,0
57550,-1.28455,-0.873876,0.592529,0
57570,-1.27255,-0.890036,0.568456,0
57590,-1.25809,-0.905839,0.541653,0
57610,-1.24184,-0.921192,0.512912,0
57630,-1.22399,-0.9357,0.483264,0
57650,-1.20643,-0.949442,0.454429,0
57670,-1.18876,-0.962572,0.425377,0
57690,-1.17002,-0.975821,0.395745,0
57710,-1.14993,-0.988818,0.36588,0
57730,-1.12993,-1.00053,0.33589,0
57750,-1.11036,-1.01101,0.306259,0
57770,-1.0886,-1.02015,0.274783,0
57790,-1.06516,-1.02803,0.241587,0
57810,-1.04044,-1.03392,0.207258,0
57830,-1.01518,-1.03859,0.172256,0
57850,-0.98965,-1.04142,0.137133,0
57870,-0.96458,-1.04295,0.102497,0
57890,-0.940008,-1.04301,0.0684346,0
57910,-0.915394,-1.0414,0.0348153,0
57930,-0.891655,-1.03856,0.00232591,0
57950,-0.87041,-1.03383,-0.0277405,0
57970,-0.850121,-1.02667,-0.0570318,0
57990,-0.832571,-1.01728,-0.0832852,0
58010,-0.818515,-1.00509,-0.104741,0
58030,-0.807893,-0.990282,-0.121601,0
58050,-0.799706,-0.975186,-0.135077,0
58070,-0.793622,-0.9594,-0.145282,0
58090,-0.791994,-0.942277,-0.150886,0
58110,-0.793101,-0.921867,-0.152699,0
58130,-0.797032,-0.9001,-0.151697,0
58150,-0.802861,-0.87863,-0.148199,0
58170,-0.809137,-0.857477,-0.14376,0
58190,-0.813223,-0.834614,-0.141487,0
58210,-0.817628,-0.809961,-0.139398,0
58230,-0.825742,-0.78499,-0.134839,0
58250,-0.836532,-0.760884,-0.130066,0
58270,-0.846729,-0.737336,-0.125114,0
58290,-0.85554,-0.714687,-0.118896,0
58310,-0.864075,-0.692034,-0.114085,0
58330,-0.874515,-0.670081,-0.111106,0
58350,-0.888493,-0.648277,-0.106982,0
58370,-0.902866,-0.62766,-0.101623,0
58390,-0.916526,-0.607783,-0.0959799,0
58410,-0.929487,-0.588539,-0.0912675,0
58430,-0.942753,-0.569624,-0.0864719,0
58450,-0.957083,-0.551398,-0.0798845,0
58470,-0.971059,-0.535633,-0.0727182,0
58490,-0.984143,-0.521217,-0.0654616,0
58510,-0.997778,-0.507968,-0.0573276,0
58530,-1.01172,-0.496626,-0.0481656,0
58550,-1.02457,-0.48642,-0.0388606,0
58570,-1.03499,-0.477327,-0.0293786,0
58590,-1.04322,-0.470558,-0.0197099,0
58610,-1.0493,-0.466147,-0.0103307,0
58630,-1.05428,-0.46231,-0.00126097,0
58650,-1.05852,-0.45919,0.00806485,0
58670,-1.06167,-0.457121,0.0177671,0
58690,-1.06462,-0.455206,0.0276344,0
58710,-1.06831,-0.452841,0.037867,0
58730,-1.07339,-0.450697,0.0494296,0
58750,-1.0795,-0.448334,0.0617052,0
58770,-1.08626,-0.444615,0.0735141,0
58790,-1.09508,-0.439584,0.0855465,0
58810,-1.10553,-0.435067,0.0986612,0
58830,-1.11673,-0.431195,0.112333,0
58850,-1.12615,-0.427429,0.125826,0
58870,-1.13426,-0.424213,0.139327,0
58890,-1.14171,-0.421484,0.152743,0
58910,-1.14996,-0.419504,0.166124,0
58930,-1.15884,-0.4177,0.180023,0
58950,-1.16757,-0.416099,0.19445,0
58970,-1.17457,-0.415154,0.208956,0
58990,-1.18076,-0.414918,0.223896,0
59010,-1.18682,-0.414458,0.238848,0
59030,-1.1937,-0.413294,0.253882,0
59050,-1.20128,-0.412292,0.269918,0
59070,-1.20898,-0.411919,0.286507,0
59090,-1.21676,-0.411848,0.303705,0
59110,-1.22539,-0.411251,0.321772,0
59130,-1.23664,-0.410985,0.341182,0
59150,-1.25064,-0.411438,0.361273,0
59170,-1.26601,-0.41218,0.381325,0
59190,-1.2821,-0.413061,0.402154,0
59210,-1.29813,-0.41499,0.424015,0
59230,-1.31389,-0.417127,0.444504,0
59250,-1.32795,-0.418684,0.463228,0
59270,-1.34047,-0.421404,0.482664,0
59290,-1.35289,-0.427475,0.503634,0
59310,-1.36377,-0.435746,0.52353,0
59330,-1.37317,-0.444289,0.541822,0
59350,-1.38177,-0.45315,0.560106,0
59370,-1.39183,-0.464186,0.579663,0
59390,-1.40244,-0.476598,0.599475,0
59410,-1.41383,-0.489485,0.619078,0
59430,-1.42386,-0.502209,0.639035,0
59450,-1.43422,-0.516094,0.65977,0
59470,-1.44462,-0.531735,0.679944,0
59490,-1.45408,-0.548054,0.698542,0
59510,-1.4636,-0.564122,0.715947,0
59530,-1.47307,-0.581905,0.733315,0
59540,-1.48258,-0.600916,0.750293,0
59560,-1.49241,-0.620934,0.766797,0
59580,-1.50128,-0.641118,0.78069,0
59600,-1.5087,-0.660845,0.791371,0
59620,-1.51486,-0.681713,0.800991,0
59640,-1.52166,-0.703529,0.809579,0
59660,-1.52801,-0.726932,0.81674,0
59680,-1.5344,-0.750983,0.822751,0
59700,-1.54269,-0.775391,0.828925,0
59720,-1.55292,-0.800319,0.836612,0
59740,-1.56346,-0.82704,0.845092,0
59760,-1.57528,-0.854555,0.854154,0
59780,-1.58761,-0.881223,0.862116,0
59800,-1.59924,-0.906848,0.867583,0
59820,-1.61108,-0.931322,0.872464,0
59840,-1.625,-0.956018,0.878976,0
59860,-1.63926,-0.980014,0.88587,0
59880,-1.65413,-1.00586,0.894592,0
59900,-1.6714,-1.03322,0.904919,0
59920,-1.68807,-1.06006,0.913315,0
59940,-1.70183,-1.08624,0.917676,0
59960,-1.71157,-1.11107,0.916346,0
59980,-1.71528,-1.13452,0.908278,0
60000,-1.71117,-1.15679,0.892472,0
60020,-1.69709,-1.17694,0.866652,0
60040,-1.67021,-1.19566,0.827242,0
60060,-1.62741,-1.21139,0.771052,0
60080,-1.57014,-1.22332,0.698989,0
60100,-1.5,-1.2302,0.614433,0
60120,-1.42227,-1.23205,0.523662,0
60140,-1.3419,-1.2286,0.43191,0
60160,-1.26265,-1.21935,0.34212,0
60180,-1.1891,-1.2052,0.258555,0
60200,-1.12137,-1.18679,0.183205,0
60220,-1.06119,-1.16535,0.118114,0
60240,-1.00973,-1.14125,0.0611884,0
60260,-0.967387,-1.11445,0.0120903,0
60280,-0.934165,-1.08656,-0.0276837,0
60300,-0.909157,-1.0564,-0.0608366,0
60320,-0.895534,-1.0243,-0.0841049,0
60340,-0.887134,-0.990263,-0.100722,0
60360,-0.881409,-0.957764,-0.116304,0
60380,-0.874858,-0.926967,-0.131687,0
60400,-0.87238,-0.895885,-0.144388,0
60420,-0.87772,-0.864555,-0.154213,0
60440,-0.888559,-0.834411,-0.161364,0
60460,-0.902469,-0.805697,-0.165858,0
60480,-0.917645,-0.777893,-0.168404,0
60500,-0.933538,-0.749833,-0.169742,0
60520,-0.949531,-0.721168,-0.171279,0
60540,-0.965251,-0.694351,-0.172908,0
60560,-0.980831,-0.670938,-0.173732,0
60580,-0.996448,-0.648774,-0.174265,0
60600,-1.01106,-0.626182,-0.174636,0
60620,-1.02225,-0.605839,-0.176264,0
60640,-1.03254,-0.588536,-0.175855,0
60660,-1.04139,-0.574467,-0.173272,0
60680,-1.04849,-0.562448,-0.170802,0
60700,-1.05797,-0.551985,-0.166392,0
60720,-1.06994,-0.543556,-0.160142,0
60740,-1.08793,-0.535374,-0.151885,0
60760,-1.10903,-0.527821,-0.142824,0
60780,-1.13184,-0.519908,-0.133395,0
60800,-1.15422,-0.512876,-0.122665,0
60820,-1.17518,-0.507887,-0.110496,0
60840,-1.19465,-0.503947,-0.0982896,0
60860,-1.21262,-0.500688,-0.0865518,0
60880,-1.23041,-0.497454,-0.073892,0
60900,-1.24773,-0.495156,-0.0601828,0
60920,-1.26564,-0.493704,-0.0447974,0
60940,-1.28511,-0.491894,-0.0284037,0
60960,-1.30697,-0.48847,-0.0108719,0
60980,-1.33239,-0.48448,0.00940407,0
61000,-1.36347,-0.479562,0.0321272,0
61020,-1.39826,-0.473794,0.0560327,0
61040,-1.43343,-0.467609,0.0812929,0
61060,-1.46648,-0.46204,0.108103,0
61080,-1.49709,-0.457868,0.136219,0
61100,-1.52528,-0.454539,0.16506,0
61120,-1.54941,-0.453068,0.193825,0
61140,-1.56932,-0.452042,0.221994,0
61160,-1.58807,-0.451614,0.250898,0
61180,-1.60529,-0.452103,0.279114,0
61200,-1.62022,-0.452648,0.30643,0
61220,-1.63428,-0.453337,0.334792,0
61240,-1.64709,-0.454928,0.362758,0
61260,-1.65778,-0.457185,0.38866,0
61280,-1.6647,-0.459605,0.413421,0
61300,-1.66774,-0.46471,0.43768,0
61320,-1.66695,-0.472339,0.461902,0
61340,-1.66552,-0.482203,0.487133,0
61360,-1.6658,-0.492977,0.512678,0
61380,-1.66828,-0.503088,0.536691,0
61400,-1.67131,-0.511988,0.559666,0
61420,-1.67659,-0.521058,0.582631,0
61440,-1.68414,-0.530788,0.605305,0
61460,-1.69298,-0.540531,0.626809,0
61480,-1.70211,-0.550221,0.646831,0
61500,-1.70909,-0.559871,0.664228,0
61520,-1.71347,-0.569322,0.680092,0
61540,-1.71738,-0.578547,0.695524,0
61560,-1.72195,-0.587371,0.709035,0
61580,-1.72782,-0.596201,0.722411,0
61600,-1.73507,-0.606604,0.735564,0
61620,-1.74086,-0.617944,0.747211,0
61640,-1.7448,-0.628609,0.758406,0
61660,-1.74938,-0.640791,0.770671,0
61680,-1.75351,-0.655018,0.782806,0
61700,-1.75597,-0.668753,0.793886,0
61720,-1.75853,-0.682151,0.80475,0
61740,-1.7599,-0.695963,0.814405,0
61760,-1.76085,-0.711149,0.823944,0
61780,-1.76316,-0.72672,0.834694,0
61800,-1.76656,-0.742108,0.844985,0
61820,-1.77002,-0.757035,0.853866,0
61840,-1.77384,-0.772204,0.862017,0
61860,-1.77816,-0.787634,0.869702,0
61880,-1.78419,-0.80333,0.877607,0
61900,-1.78978,-0.818888,0.88385,0
61920,-1.79386,-0.833623,0.889285,0
61940,-1.79797,-0.848652,0.894845,0
61960,-1.80258,-0.864513,0.900578,0
61980,-1.80738,-0.880364,0.906027,0
62000,-1.81099,-0.894255,0.910506,0
62020,-1.81334,-0.906461,0.913688,1001
62040,-1.81447,-0.915648,0.916336,0
62060,-1.81616,-0.921013,0.919611,0
62080,-1.81899,-0.922876,0.921832,0
62100,-1.82032,-0.9216,0.919112,0
62120,-1.81928,-0.917328,0.912511,0
62130,-1.81646,-0.911936,0.905244,0
62150,-1.81215,-0.907991,0.898338,0
62170,-1.80694,-0.905601,0.891802,0
62190,-1.80148,-0.903856,0.886151,0
62210,-1.79504,-0.903259,0.881439,0
62230,-1.78904,-0.903822,0.878591,0
62250,-1.78277,-0.904909,0.875853,0
62270,-1.77871,-0.906869,0.874158,0
62290,-1.78051,-0.907773,0.875906,0
62310,-1.7855,-0.905713,0.880651,0
62330,-1.78677,-0.904749,0.886433,0
62350,-1.7888,-0.909734,0.893134,0
62370,-1.78831,-0.921378,0.899083,0
62390,-1.7858,-0.937215,0.906314,0
62410,-1.78013,-0.958514,0.913548,0
62430,-1.77361,-0.978552,0.923297,0
62450,-1.77009,-0.994609,0.93251,0
62470,-1.76434,-1.0098,0.933842,0
62490,-1.75253,-1.02189,0.928059,0
62510,-1.7423,-1.02753,0.922529,0
62530,-1.73054,-1.02626,0.914025,0
62550,-1.71298,-1.0146,0.901202,0
62570,-1.69036,-0.992529,0.883558,0
62590,-1.66766,-0.964126,0.863632,0
62610,-1.64508,-0.932468,0.842347,0
62630,-1.6223,-0.894525,0.820809,0
62650,-1.60136,-0.849389,0.800278,0
62670,-1.58062,-0.799583,0.778531,0
62690,-1.55903,-0.749615,0.753307,0
62710,-1.53456,-0.704431,0.72871,0
62730,-1.51008,-0.657975,0.709075,0
62750,-1.49295,-0.610422,0.695963,0
62770,-1.48406,-0.566669,0.685397,0
62790,-1.48049,-0.52837,0.674201,0
62810,-1.47517,-0.496554,0.664624,0
62830,-1.46967,-0.466057,0.660207,0
62850,-1.46545,-0.439475,0.660079,0
62870,-1.46137,-0.417239,0.662084,0
62890,-1.45734,-0.399153,0.663118,0
62910,-1.45291,-0.382715,0.664116,0
62930,-1.45021,-0.367362,0.666465,0
62950,-1.44776,-0.353789,0.668091,0
62950,-1.44463,-0.341396,0.668005,0
62970,-1.44221,-0.328778,0.666958,0
62990,-1.44003,-0.316936,0.665553,0
62990,-1.43737,-0.306249,0.664676,0
63010,-1.43487,-0.296212,0.6645,0
63030,-1.43257,-0.286914,0.664277,0
63050,-1.43124,-0.277973,0.664774,1000
63050,-1.42831,-0.26876,0.665215,0
63070,-1.42514,-0.261592,0.665242,0
63090,-1.42219,-0.255836,0.664632,0
63110,-1.41655,-0.250948,0.661715,0
63130,-1.40767,-0.246722,0.657295,0
63150,-1.40399,-0.241919,0.656136,0
63170,-1.39696,-0.232514,0.655541,0
63190,-1.39203,-0.233684,0.658034,0
63220,-1.38898,-0.246374,0.661855,0
63250,-1.38632,-0.264246,0.665933,0
63270,-1.38282,-0.282312,0.669302,0
63290,-1.37645,-0.293141,0.670411,0
63330,-1.37216,-0.281485,0.669934,0
63370,-1.37863,-0.257464,0.67164,0
63390,-1.37349,-0.275598,0.672051,0
63410,-1.36807,-0.26676,0.67076,0
63410,-1.36247,-0.263399,0.667339,0
63430,-1.36064,-0.261723,0.668644,0
63450,-1.36017,-0.260334,0.67102,0
63470,-1.35897,-0.257525,0.675182,0
63490,-1.35969,-0.256194,0.679236,0
63530,-1.35868,-0.257795,0.684663,0
63550,-1.36043,-0.269474,0.69161,0
63570,-1.36355,-0.275291,0.697875,0
63590,-1.37044,-0.269554,0.703938,0
63610,-1.37717,-0.259367,0.708547,0
63630,-1.38037,-0.251,0.713663,0
63650,-1.38014,-0.254083,0.72222,0
63670,-1.37445,-0.281764,0.732343,0
63690,-1.36866,-0.283033,0.741979,0
63710,-1.37432,-0.295623,0.755864,0
63730,-1.38004,-0.313391,0.773118,0
63750,-1.38535,-0.32317,0.792322,0
63770,-1.38785,-0.332944,0.809129,0
63790,-1.39038,-0.342842,0.825306,0
63810,-1.39317,-0.352085,0.840481,0
63830,-1.39641,-0.361001,0.855175,0
63850,-1.39873,-0.371695,0.86929,0
63870,-1.40167,-0.382827,0.883218,0
63890,-1.40524,-0.393675,0.896124,0
63910,-1.4088,-0.405048,0.906772,0
63930,-1.413,-0.417196,0.916616,0
63950,-1.42278,-0.428503,0.92666,0
63970,-1.43383,-0.440686,0.934504,0
63990,-1.44419,-0.451645,0.941372,0
64010,-1.45015,-0.462827,0.947543,0
64030,-1.45366,-0.475909,0.951434,0
64050,-1.45771,-0.489859,0.953495,0
64070,-1.46027,-0.50751,0.954507,0
64090,-1.46149,-0.526235,0.953805,0
64110,-1.45978,-0.544607,0.950606,0
64130,-1.458,-0.561527,0.944344,0
64150,-1.45578,-0.578878,0.934352,0
64170,-1.45011,-0.596309,0.920043,0
64190,-1.44318,-0.613306,0.902722,0
64210,-1.4344,-0.629494,0.883172,0
64230,-1.42472,-0.644838,0.860919,0
64250,-1.41371,-0.658982,0.835708,0
64270,-1.40026,-0.672785,0.806636,0
64290,-1.38453,-0.684754,0.773748,0
64310,-1.3671,-0.695561,0.738705,0
64330,-1.34835,-0.705652,0.702757,0
64350,-1.32835,-0.716075,0.665545,0
64370,-1.30739,-0.726257,0.625918,0
64390,-1.28586,-0.735907,0.583914,0
64410,-1.26149,-0.745032,0.539737,0
64430,-1.23576,-0.754329,0.495996,0
64450,-1.20956,-0.763664,0.452459,0
64470,-1.18274,-0.772592,0.408412,0
64490,-1.15695,-0.781231,0.365806,0
64510,-1.131,-0.789291,0.32473,0
64530,-1.10617,-0.794919,0.285932,0
64550,-1.08342,-0.796886,0.249421,0
64570,-1.06298,-0.795018,0.214825,0
64590,-1.04419,-0.789217,0.182138,0
64610,-1.02833,-0.778303,0.151234,0
64630,-1.01381,-0.764528,0.124564,0
64650,-0.999947,-0.749231,0.102,0
64670,-0.987532,-0.733296,0.0823578,0
64690,-0.974732,-0.717121,0.0630308,0
64710,-0.963043,-0.700056,0.0453693,0
64730,-0.953498,-0.682913,0.0313718,0
64740,-0.945669,-0.665857,0.0190632,0
64760,-0.939212,-0.647511,0.00772359,0
64780,-0.932685,-0.628547,-0.0014021,0
64800,-0.926299,-0.610489,-0.00660968,0
64820,-0.918986,-0.593438,-0.0104862,0
64840,-0.913897,-0.576173,-0.0145075,0
64860,-0.9134,-0.558423,-0.0162577,0
64880,-0.916506,-0.540307,-0.0143877,0
64900,-0.921028,-0.522545,-0.00889668,0
64920,-0.926821,-0.50789,-0.00169325,0
64940,-0.934438,-0.494302,0.00625231,0
64960,-0.943415,-0.480564,0.0154674,0
64980,-0.954383,-0.466715,0.0269861,0
65000,-0.966564,-0.454514,0.0399069,0
65020,-0.977554,-0.443327,0.0505698,0
65040,-0.988049,-0.431598,0.0597302,0
65060,-0.99809,-0.41923,0.0689213,0
65080,-1.00627,-0.406951,0.07801,0
65100,-1.01274,-0.396373,0.0856271,0
65120,-1.01881,-0.386795,0.0920669,0
65140,-1.02456,-0.377459,0.0984071,0
65160,-1.02904,-0.366979,0.10504,0
65180,-1.03381,-0.355747,0.111676,0
65200,-1.03837,-0.345173,0.117769,0
65220,-1.04436,-0.334713,0.123713,0
65240,-1.05178,-0.32258,0.130494,0
65260,-1.05954,-0.30977,0.138296,0
65280,-1.06687,-0.297851,0.146338,0
65300,-1.07398,-0.287894,0.154583,0
65320,-1.08097,-0.278887,0.163764,0
65340,-1.08597,-0.270026,0.173776,0
65360,-1.08946,-0.261863,0.184487,0
65380,-1.09338,-0.255519,0.196676,0
65390,-1.09939,-0.250653,0.210326,0
65410,-1.10701,-0.246819,0.225392,0
65430,-1.11535,-0.244643,0.241385,0
65450,-1.11927,-0.242085,0.25575,0
65470,-1.12204,-0.237194,0.269421,0
65490,-1.1329,-0.246303,0.293974,0
65510,-1.14279,-0.24865,0.313861,0
65530,-1.1491,-0.232787,0.33282,0
65550,-1.15296,-0.21458,0.35366,0
65570,-1.15495,-0.203378,0.3758,0
65590,-1.1634,-0.20683,0.403059,0
65620,-1.1699,-0.216912,0.425181,0
65630,-1.17679,-0.225918,0.448945,0
65650,-1.18241,-0.233847,0.472579,0
65670,-1.18738,-0.242857,0.496492,0
65670,-1.19252,-0.253323,0.520888,0
65690,-1.19885,-0.263973,0.54627,0
65710,-1.20636,-0.275028,0.572262,0
65730,-1.2137,-0.286325,0.598003,0
65730,-1.22074,-0.297325,0.622938,0
65750,-1.22773,-0.309023,0.64754,0
65800,-1.23546,-0.320751,0.672214,0
65840,-1.24346,-0.332189,0.695378,0
65860,-1.25115,-0.34277,0.716459,0
65880,-1.25746,-0.352591,0.736427,0
65900,-1.26272,-0.363584,0.755408,0
65920,-1.26748,-0.375679,0.773629,0
65940,-1.27204,-0.387335,0.791213,0
65960,-1.27624,-0.39872,0.80825,0
65980,-1.2801,-0.410468,0.824235,0
66000,-1.28502,-0.422188,0.839878,0
66020,-1.29087,-0.433147,0.854774,0
66040,-1.29687,-0.444547,0.868967,0
66060,-1.30391,-0.455738,0.882731,0
66080,-1.31045,-0.468961,0.895576,0
66100,-1.31658,-0.48318,0.90723,0
66120,-1.32281,-0.497534,0.917098,0
66140,-1.32912,-0.51204,0.925466,0
66160,-1.33509,-0.526409,0.932527,0
66180,-1.34085,-0.541449,0.938517,0
66200,-1.34641,-0.557116,0.943544,0
66220,-1.35201,-0.571872,0.947486,0
66240,-1.35768,-0.586897,0.950923,0
66260,-1.36245,-0.60233,0.953793,0
66280,-1.36669,-0.618021,0.955452,0
66300,-1.37014,-0.634127,0.955082,0
66320,-1.37322,-0.650727,0.953516,0
66340,-1.37613,-0.668439,0.951694,0
66360,-1.37846,-0.686293,0.948045,0
