Timestamp, Electrode 1, Electrode 2, Electrode 3, Electrode 4, Electrode 5, Electrode 6, Electrode 7, Electrode 8, Marker
0,-12,-12,-40,-29,-7,-9,-18,-12,0
5,13,11,42,28,10,9,19,18,0
10,1,2,1,12,8,10,5,6,0
15,1,-2,-5,-3,-3,-4,-7,1,0
20,-2,0,0,2,1,0,-4,-3,0
25,-16,-11,-23,-23,-13,-25,-30,-24,0
30,8,5,5,-1,9,29,42,23,0
35,4,4,9,13,4,9,16,2,0
40,0,-5,-9,-4,-3,-4,-6,4,0
45,-7,-8,-20,-16,-9,-16,-37,-16,0
50,-11,-8,-25,-32,-12,-24,-32,-20,0
55,8,10,35,24,8,33,76,23,0
60,1,1,2,5,-5,-1,6,-3,0
65,0,-3,5,3,3,2,-1,0,0
70,-7,-11,-16,-8,-8,-13,-14,-8,0
75,-5,-4,-4,-9,4,-7,-31,-8,0
80,1,4,17,16,4,2,0,-2,0
85,3,-3,-4,-5,-6,3,15,7,0
90,-2,-3,-15,-2,-12,-13,-14,-8,0
95,4,-2,0,4,18,3,-9,1,0
100,0,-2,3,-5,-5,-1,14,-1,0
105,-3,-2,-11,-13,-18,2,10,3,0
110,0,-2,7,-1,-8,-9,-7,-6,0
115,-10,-5,-7,-12,-20,-21,-10,-16,0
120,9,12,17,15,27,27,23,25,0
125,-2,-9,-40,-17,6,3,10,-2,0
130,-4,0,33,16,-3,-4,-4,-6,0
135,-4,-5,-12,-1,4,0,-14,-3,0
140,-2,-12,14,6,-13,-11,-14,-8,0
145,-1,0,-2,5,4,5,3,-5,0
150,1,-8,9,9,16,8,8,6,0
155,7,40,7,1,1,-7,-7,3,0
160,-6,-11,-18,-23,-15,-7,-3,-7,0
165,12,11,11,10,4,5,7,13,0
170,2,2,1,4,-1,0,0,-1,0
175,-11,-23,-17,-11,-8,-3,-7,-6,0
180,-6,-15,-17,-8,2,1,3,1,0
185,-1,11,14,3,0,-6,-11,-5,0
190,2,6,-2,-2,3,6,0,0,0
195,-1,-5,2,-1,-6,-4,-2,-4,0
200,-4,-2,-9,-5,-10,-15,-12,-3,0
205,-5,-11,9,6,15,16,9,-1,0
210,-2,0,-25,-9,10,9,-3,-1,0
215,0,-2,11,10,-14,-9,0,3,0
220,3,3,-2,-2,-6,3,13,6,0
225,1,-2,-6,-9,-4,-4,-3,1,0
230,0,-3,-4,4,-4,-5,-3,-3,0
235,-4,-6,-24,-12,5,1,-1,-1,0
240,2,9,31,14,9,3,2,-1,0
245,3,3,-1,0,9,5,-1,0,0
250,-9,-8,-11,-14,-12,-10,-11,-10,0
255,6,3,2,3,4,8,9,4,0
260,-3,-3,-2,1,5,1,6,2,0
265,-2,1,-4,-5,-6,-6,-6,-1,0
270,-17,-7,3,-3,-3,-2,-14,-46,0
275,9,5,11,9,2,-1,26,62,0
280,25,3,-9,-7,-2,-3,-10,-3,0
285,-1,-3,8,11,-3,-3,19,4,0
290,-1,-1,-21,-13,-5,-4,-10,2,0
295,0,2,-17,-14,-5,-2,-30,-26,0
300,-16,5,46,29,9,12,39,5,0
305,-1,-6,-28,-7,-4,-1,-12,0,0
310,-2,-2,12,6,6,3,14,0,0
315,7,14,10,5,-4,-14,-40,-9,0
320,-12,-8,-2,0,-6,-12,-29,-8,0
325,-1,-3,-3,-6,6,26,40,8,0
330,7,7,2,5,0,5,11,12,0
335,4,-5,-4,3,-4,-14,-21,-20,0
340,-9,-7,-22,-16,-14,-24,-44,-12,0
345,-3,0,3,0,6,11,12,13,0
350,-6,-7,1,3,14,27,50,22,0
355,25,-6,2,-9,-4,1,0,-24,0
360,-16,-20,-24,-8,-10,-13,-7,8,0
365,31,25,37,15,-8,-27,-44,-7,0
370,3,0,1,-3,-5,-9,-33,-1,0
375,-9,4,4,2,2,22,36,-13,0
380,-19,-18,-47,-35,-2,6,10,-7,0
385,-5,-43,-59,-57,-9,7,12,1,0
390,40,72,98,98,24,3,-15,14,0
395,-15,-7,-22,-5,-9,-17,-19,-7,0
400,7,2,-1,15,11,23,42,8,0
405,-19,-14,-30,-14,-8,-23,-42,-16,0
410,5,-13,-28,-33,-2,1,24,6,0
415,-21,-14,-2,-7,-8,-12,-9,-4,0
420,9,10,-9,-8,-14,-13,-29,-7,0
425,1,11,22,13,15,22,65,6,0
430,-6,-6,-4,-4,11,23,11,5,0
435,1,4,10,-2,-8,-1,11,11,0
440,-5,-10,-14,-27,-28,-22,-31,-12,0
445,-13,-8,3,6,-6,-18,-24,-17,0
450,6,6,-11,-14,7,5,4,3,0
455,0,3,30,25,20,15,12,11,0
460,7,8,9,9,2,-2,-6,-6,0
465,-6,4,10,19,0,-3,-7,0,0
470,-14,-22,-39,-30,-16,-23,-27,-12,0
475,0,-1,-7,-16,-5,-3,3,0,0
480,-6,8,15,17,25,37,51,23,0
485,26,16,25,20,14,20,15,16,0
490,-17,-17,-20,-19,-8,-12,-13,-8,0
495,-17,-18,-8,-12,-25,-24,-14,-13,0
500,8,14,-1,-8,-18,-24,-46,-14,0
505,-7,6,-10,-1,6,15,22,8,0
510,0,-6,12,-1,0,-1,16,4,0
515,5,5,13,20,13,11,4,2,0
520,-11,-12,-12,-19,-7,-24,-42,-13,0
525,4,5,7,4,9,35,54,20,0
530,6,1,-7,9,1,-2,-9,6,0
535,-14,-11,-17,-10,-8,-7,-6,-13,0
540,7,2,5,2,4,-5,-5,13,0
545,-6,-2,-9,-18,-18,-28,-36,-20,0
550,1,0,9,8,1,21,61,6,0
555,1,3,-2,5,12,17,14,13,0
560,-4,-6,-1,-1,-4,-4,-10,-20,0
565,-2,1,4,5,1,-14,-28,-5,0
570,1,-4,-13,-16,-9,-8,-10,6,0
575,0,2,4,9,1,-3,-6,-4,0
580,4,0,0,-3,-1,3,23,7,0
585,-9,-5,6,4,5,8,-6,4,0
590,-1,1,-3,0,-3,-9,-19,-8,0
595,2,-11,-40,-26,-7,4,10,2,0
600,-4,2,35,21,6,-1,-10,-19,0
605,5,4,-1,1,-11,-6,16,21,0
610,-5,-4,3,-2,-1,1,-1,-6,0
615,6,1,7,4,3,-7,-13,7,0
620,-1,-4,-17,-5,3,5,21,1,0
625,-7,-3,-2,-7,-6,-1,-32,-18,0
630,-3,2,-1,-8,-7,-10,-12,1,0
635,-7,-4,-1,1,3,1,8,-3,0
640,6,0,1,2,6,6,12,15,0
645,-2,-3,3,2,1,-12,-16,-18,0
650,0,-7,-10,-1,-5,1,1,8,0
655,-9,-5,-5,-13,-5,-1,-4,-10,0
660,-6,-16,-23,-18,-9,-3,1,0,0
665,4,19,40,35,5,-2,3,-2,0
670,-5,-5,-7,-15,-13,-13,-20,-22,0
675,10,8,10,8,9,4,4,20,0
680,2,2,-6,-1,8,11,11,9,0
685,-13,-32,-24,-20,-10,-11,-2,-9,0
690,-10,-13,-2,11,3,-2,-17,-18,0
695,6,28,11,-4,-13,-9,-3,-1,0
700,6,6,6,7,10,11,3,-1,0
705,-2,-1,-4,-3,2,-7,-23,-11,0
710,-11,-9,-5,4,-8,-4,8,1,0
715,-12,-19,-19,-10,5,6,23,3,0
720,12,-1,-15,0,-3,3,-9,3,0
725,10,3,6,-4,-10,-19,-32,-4,0
730,-2,23,12,-3,-6,-21,-40,-19,0
735,-33,-19,-28,-23,0,14,14,16,0
740,14,15,23,23,17,33,63,0,0
745,27,5,-28,-13,0,-11,10,-6,0
750,8,13,59,48,-2,-18,-58,-1,0
755,-21,-6,5,-11,-27,-62,-100,-43,0
760,-8,-7,-9,2,25,56,55,33,0
765,-7,-15,-40,-26,-5,16,62,15,0
770,14,0,-12,-1,-4,-6,-1,3,0
775,-11,-7,-6,-9,-19,-57,-110,-41,0
780,-20,-16,-29,-28,-33,-65,-106,-37,0
785,15,22,53,36,37,71,68,51,0
790,-10,-13,-30,-23,6,29,52,6,0
795,23,13,14,12,8,12,19,12,0
800,-13,-10,-7,-2,-22,-48,-70,-30,0
805,-16,-2,25,-5,-15,-32,-58,-24,0
810,0,3,19,13,0,4,-4,2,0
815,9,-3,-34,-10,11,29,49,13,0
820,9,15,35,19,6,7,24,6,0
825,-12,-10,-16,-8,1,-1,-14,-7,0
830,-3,-5,-16,-14,-2,-3,-10,2,0
835,5,1,12,6,-3,-7,-15,-7,0
840,0,-2,-10,-8,3,14,49,10,0
845,-5,-7,-11,-1,-10,-5,9,0,0
850,-7,-12,-15,-19,-8,-9,-15,-8,0
855,12,24,25,15,5,13,18,9,0
860,-5,-1,6,3,6,-3,-19,-2,0
865,-5,-2,-8,-3,-5,-13,-13,-6,0
870,11,5,-7,-3,0,2,-1,5,0
875,-9,-17,-27,-11,1,13,2,3,0
880,10,0,28,18,7,2,16,15,0
885,-9,2,2,-1,-16,-12,-12,-12,0
890,-5,-2,0,-5,5,0,1,0,0
895,8,14,26,10,2,12,27,6,0
900,-5,-4,-31,-20,-6,-8,-21,-10,0
905,-13,-13,-11,2,-7,-31,-57,-22,0
910,4,-8,-19,-12,5,33,59,17,0
915,0,4,33,29,3,3,10,-1,0
920,-10,-4,-3,-9,-10,-31,-63,-18,0
925,2,0,-2,1,9,23,40,3,0
930,8,5,-6,-3,16,33,71,31,0
935,1,-6,-20,-8,-16,-6,7,-2,0
940,5,11,33,12,3,6,-16,-1,0
945,-6,-4,-10,-18,-10,-18,-14,-10,0
950,-18,-5,9,16,8,3,7,-4,0
955,33,15,1,6,21,20,16,22,0
960,-2,-6,-14,-6,-12,-10,-6,-7,0
965,0,0,7,6,1,1,-20,-1,0
970,-3,-3,-16,-7,-1,-7,-7,-2,0
975,-2,2,21,16,0,-3,-4,-3,0
980,2,-3,-11,-13,-6,3,21,3,0
985,-5,-4,4,-2,-6,3,11,0,0
990,-6,-7,-3,-8,-13,-31,-79,-22,0
995,0,-3,-10,-4,11,22,39,10,0
1000,-5,-8,-4,-9,1,0,-8,1,0
1005,15,17,20,20,16,37,70,24,0
1010,-7,-8,-9,-8,-13,-23,-42,-16,0
1015,-5,-8,-5,-6,-3,-15,-27,-8,0
1020,-5,-2,3,0,-12,-4,-2,-1,0
1025,-11,-11,-19,-6,-3,-29,-54,-23,0
1030,3,0,-7,-9,-3,-2,-8,-4,0
1035,7,9,20,12,19,38,83,26,0
1040,-5,-1,10,11,4,-3,2,-7,0
1045,-8,-5,-6,-7,-10,-20,-10,-9,0
1050,2,2,4,-1,-6,-22,-65,-8,0
1055,-6,-12,-8,-13,-18,-2,-29,-9,0
1060,17,9,2,11,24,53,118,38,0
1065,6,0,0,4,7,26,69,18,0
1070,-8,-5,4,-1,-2,-16,-15,-9,0
1075,-10,-6,-12,-3,1,-26,-52,-20,0
1080,-4,-5,-6,-11,-12,-21,-45,-16,0
1085,0,-1,-1,-5,-9,-5,-30,-3,0
1090,4,-1,1,-1,-11,2,37,7,0
1095,-8,2,7,0,4,-1,-4,-5,0
1100,-17,-17,-13,9,18,8,7,-4,0
1105,-13,-28,-26,-21,-5,-11,-18,-12,0
1110,18,43,24,1,-17,6,21,16,0
1115,33,35,19,5,5,-4,3,12,0
1120,-1,-1,0,12,-1,-1,-5,2,0
1125,-6,3,5,2,13,8,-4,0,0
1130,-21,-33,-16,-9,-8,-9,6,-15,0
1135,-10,-15,-31,-20,-22,-17,-23,-11,0
1140,2,5,22,4,0,9,23,4,0
1145,0,-6,-12,-1,5,-3,-30,2,0
1150,-12,-2,19,9,3,-9,22,-23,0
1155,-3,1,10,9,10,6,-37,7,0
1160,22,10,-3,2,15,44,66,33,0
1165,-1,-1,-7,-4,-9,-3,11,-1,0
1170,2,1,1,6,8,5,6,5,0
1175,-18,-20,-33,-28,-18,-33,-54,-30,0
1180,-9,-1,17,4,-10,-27,-43,-19,0
1185,10,13,14,9,-4,5,11,0,0
1190,3,-2,-13,-3,13,24,20,17,0
1195,-11,-11,6,10,-4,1,19,-4,0
1200,3,-1,-17,-11,-6,-14,-36,-7,0
1205,1,7,8,-1,-5,-10,-21,0,0
1210,5,-8,-13,-13,-8,-8,4,-5,0
1215,7,-3,-2,-1,4,11,-5,8,0
1220,-2,7,4,6,5,5,14,-2,0
1225,-4,-2,2,1,6,-5,-10,-7,0
1230,-1,-1,2,-1,-7,-2,8,5,0
1235,-11,-5,-4,-13,-18,-21,-1,-14,0
1240,13,13,8,2,3,12,26,24,0
1245,11,5,7,14,23,48,85,26,0
1250,-9,-10,-9,-5,-3,-7,-12,-11,0
1255,-1,-5,0,-5,-3,-3,34,0,0
1260,-10,-7,-9,-9,-11,-24,-42,-19,0
1265,0,2,-2,-1,-10,-15,-28,-6,0
1270,-5,-9,-1,3,7,7,-14,-3,0
1275,-3,-12,-2,4,7,4,23,5,0
1280,0,13,5,-2,3,4,-7,-3,0
1285,9,11,1,-7,-9,-14,-8,1,0
1290,6,11,8,8,-10,-7,-10,2,0
1295,-1,-4,0,5,4,5,2,1,0
1300,-8,-14,-8,-2,11,8,-1,0,0
1305,-7,-8,-8,-6,-3,-5,-19,-9,0
1310,3,2,3,5,4,11,4,8,0
1315,0,2,-1,0,3,2,0,1,0
1320,-3,-4,-6,-6,-8,-2,2,-5,0
1325,-3,-4,-3,-4,-10,-3,-7,-4,0
1330,1,-1,1,5,13,9,7,6,0
1335,5,7,7,9,8,1,4,5,0
1340,-5,-2,-9,-12,-17,-8,-10,-8,0
1345,-7,-8,-4,-10,-18,-27,-17,-8,0
1350,3,-1,0,4,5,26,10,9,0
1355,3,6,4,4,10,4,5,-1,0
1360,-2,-4,-2,-4,-13,-10,-9,-9,0
1365,-3,-5,0,-2,3,0,-4,2,0
1370,4,4,2,5,0,-10,-2,-1,0
1375,-4,1,-5,-14,-9,-5,-7,-5,0
1380,2,0,-1,1,12,9,2,5,0
1385,-3,-1,1,6,7,0,1,-3,0
1390,-2,-1,1,-2,-7,-17,-9,-3,0
1395,-7,-7,-9,-11,-20,-11,-7,-17,0
1400,6,-1,-5,-7,-4,7,17,19,0
1405,-1,-1,1,0,7,11,17,2,0
1410,-5,0,0,1,4,-1,-25,-17,0
1415,1,1,3,2,-5,-12,-13,14,0
1420,12,8,3,3,11,28,60,22,0
1425,-1,-5,-8,-9,-4,-8,-1,0,0
1430,-2,2,-6,-7,-6,-11,-10,-12,0
1435,8,2,2,15,14,22,2,10,0
1440,-12,-7,-6,-10,-14,-28,-46,-26,0
1445,7,3,-3,-1,3,16,16,6,0
1450,-18,-18,3,-1,-1,7,18,3,0
1455,8,16,4,-6,2,-3,1,-5,0
1460,0,1,5,7,1,-7,-10,2,0
1465,-3,-2,-6,-8,-16,-11,-14,-9,0
1470,-13,-11,-9,-8,1,-1,-12,-12,0
1475,-2,-6,-1,4,9,7,11,3,0
1480,-2,-2,-8,-7,-12,-17,-11,-8,0
1485,0,0,-1,-4,-14,-11,-10,17,0
1490,-10,-7,-5,-3,1,12,10,-23,0
1495,28,13,14,14,11,24,47,70,0
1500,-13,-2,2,-2,3,-5,-7,-8,0
1505,-8,-11,-9,-6,-4,-12,-27,-18,0
1510,4,7,2,-4,5,3,12,14,0
1515,-11,-9,-6,-2,-13,-10,-12,-23,0
1520,-4,-7,-10,-7,-7,-9,-1,-12,0
1525,7,12,11,10,3,16,2,9,0
1530,3,5,11,7,-1,-8,-3,3,0
1535,-8,-5,-8,-4,3,0,-15,-25,0
1540,1,-3,6,8,7,4,3,6,0
1545,-3,-2,0,1,13,10,-2,-9,0
1550,9,0,-10,-2,-9,-11,-6,6,0
1555,-8,-8,-8,-17,-17,-12,-6,-10,0
1560,-4,-3,-14,-6,-13,-2,-9,-2,0
1565,-14,-18,-19,-12,5,3,2,0,0
1570,31,42,49,34,15,8,4,10,0
1575,-11,-4,2,-1,3,-1,-11,-5,0
1580,14,7,31,16,7,3,-21,1,0
1585,0,-10,-24,-15,-13,-16,-8,-17,0
1590,-10,-6,-6,-1,5,19,18,20,0
1595,9,2,-5,-2,7,5,3,-6,0
1600,0,-1,-9,-6,-6,-6,-11,-2,0
1605,-1,0,6,6,-2,-6,-9,-4,0
1610,-5,-8,-18,-14,-6,-11,-9,-5,0
1615,-5,-1,-4,-6,-11,-6,-14,-6,0
1620,-16,-12,-6,-1,5,9,46,1,0
1625,17,17,17,15,4,6,-1,6,0
1630,-9,-6,18,5,-6,-9,-8,-7,0
1635,-1,4,6,8,10,9,17,3,0
1640,2,-5,-11,-6,-1,-4,-3,0,0
1645,-19,-13,-23,-5,-5,-4,-3,-10,0
1650,19,8,-1,1,-6,-2,4,5,0
1655,-3,1,23,17,-2,-6,-10,-4,0
1660,-8,-8,-24,-17,-7,-10,-11,-6,0
1665,4,12,20,9,5,2,4,3,0
1670,-3,-8,-15,-11,1,6,-6,-1,0
1675,-4,-3,-10,-5,-1,-4,-1,-2,0
1680,2,3,1,3,0,0,5,2,0
1685,-3,-1,-3,-4,-6,-6,-3,-2,0
1690,-3,-3,-5,-8,-4,-4,-1,0,0
1695,-4,0,0,1,-1,-2,-2,-10,0
1700,6,3,10,3,6,11,20,12,0
1705,3,2,-2,2,0,-2,-3,1,0
1710,-5,-4,-8,-1,-1,-2,-1,-4,0
1715,-5,-2,-4,-9,-14,-11,-9,-4,0
1720,-1,-2,-5,-9,-7,-8,-6,-5,0
1725,2,1,9,4,1,6,0,3,0
1730,-1,-3,-4,-6,-3,-2,-3,-1,0
1735,-2,-4,-3,0,7,3,3,-1,0
1740,-1,4,7,8,0,-7,-8,-3,0
1745,-3,-2,1,-2,-3,-12,-6,-2,0
1750,-1,-2,-2,-1,4,21,4,1,0
1755,0,-4,-3,-4,-5,-6,0,-1,0
1760,-2,-2,-4,-10,-14,-6,-10,-5,0
1765,-3,-2,0,-2,9,5,1,-2,0
1770,-2,-6,-6,1,-4,-7,-4,-2,0
1775,0,1,1,7,6,4,4,1,0
1780,1,3,2,6,5,1,-3,2,0
1785,0,1,6,-2,-5,-4,-3,-1,0
1790,-2,-4,-9,-5,-5,-8,-4,-4,0
1795,0,-1,-1,-3,-1,7,4,2,0
1800,0,3,7,9,5,2,-4,-1,0
1805,-3,-2,-3,5,-1,0,-1,-4,0
1810,-1,-1,-4,-5,-2,-5,-1,-1,0
1815,0,-2,-4,-5,-5,-1,2,-1,0
1820,-1,-2,-1,-1,-2,-3,-4,-3,0
1825,1,2,5,2,4,6,7,1,0
1830,-1,-2,-8,-8,-13,-11,-1,-1,0
1835,-1,2,8,1,9,3,0,-1,0
1840,-3,-2,1,7,11,2,-4,-1,0
1845,-2,-4,-3,-11,-16,4,1,-1,0
1850,-4,-5,-5,2,-4,-10,-5,-4,0
1855,0,5,1,-2,-1,-1,-1,0,0
1860,0,5,1,1,2,3,-6,-5,0
1865,3,3,4,4,17,11,8,8,0
1870,-2,-5,-15,-6,0,-5,-3,-1,0
1875,-2,-5,-7,-7,-12,0,-1,-1,0
1880,-1,0,-4,0,-4,-5,-6,-3,0
1885,-5,-5,-7,-9,-6,-9,-6,-6,0
1890,-2,1,8,7,7,0,2,-3,0
1895,2,1,3,7,4,12,-13,5,0
1900,0,-5,-7,-16,-12,-7,4,0,0
1905,-5,-7,-1,-1,-9,-10,-4,-4,0
1910,5,10,7,5,10,5,1,3,0
1915,-4,-7,-14,-6,0,-10,-5,-8,0
1920,1,0,3,-3,-2,4,-2,1,0
1925,0,3,-1,-6,-12,-3,-1,0,0
1930,-1,-2,7,5,7,0,2,0,0
1935,-3,-1,1,-1,1,6,7,2,0
1940,-1,0,-7,-6,-6,-6,-3,-7,0
1945,3,2,0,2,3,1,1,3,0
1950,1,-2,-7,1,-7,2,-14,3,0
1955,-3,0,0,1,0,-2,7,1,0
1960,-7,-4,4,1,4,3,-5,-3,0
1965,-2,-1,-10,-11,-2,-7,-8,-7,0
1970,7,1,0,5,-3,-4,-10,6,0
1975,-5,-1,-2,-1,-8,-11,-6,-4,0
1980,5,1,9,8,8,9,12,3,0
1985,-16,-1,0,2,-1,2,2,-5,0
1990,-22,-11,-10,-22,-17,-22,-29,-19,0
1995,22,-8,-26,-21,-10,-6,1,-1,0
2000,22,22,40,34,19,20,26,19,0
2005,11,3,4,1,3,9,40,15,0
2010,-2,2,6,-5,2,2,0,-2,0
2015,-26,-11,-5,-2,-9,-32,-52,-23,0
2020,-18,-20,-36,-27,-23,-27,-34,-22,0
2025,21,7,10,15,27,58,71,33,0
2030,-5,3,8,5,3,0,10,2,0
2035,-1,4,6,6,5,5,-2,-2,0
2040,-8,-7,-18,-19,-21,-39,-49,-25,0
2045,-5,-4,-2,0,-8,-19,-37,0,0
2050,3,1,-2,3,9,39,107,0,0
2055,16,12,18,12,16,37,67,43,0
2060,-6,-3,7,7,7,4,-21,-13,0
2065,-8,-8,-10,-5,-13,-30,-34,-6,0
2070,1,-7,-7,-7,-8,-23,-51,-10,0
2075,4,3,1,3,1,5,10,-2,0
2080,-10,1,-1,-1,2,11,19,8,0
2085,-11,-3,-1,-1,1,-9,-28,-18,0
2090,12,-4,-6,7,6,3,-3,3,0
2095,4,-6,-8,-8,-14,-12,0,6,0
2100,12,4,-7,-7,-14,-13,-5,6,0
2105,-3,2,3,10,8,13,-10,-8,0
2110,-6,0,1,-4,-5,-1,2,2,0
2115,-11,-4,3,2,6,-2,-11,-13,0
2120,-10,-8,-3,-10,-10,-40,-48,-24,0
2125,2,-7,-14,-16,1,18,5,8,0
2130,9,6,11,16,20,49,82,32,0
2135,-1,-1,1,4,2,1,1,-2,0
2140,-2,-2,-1,4,2,0,-22,-1,0
2145,-12,-4,0,-9,-17,-48,-57,-31,0
2150,-6,-8,-11,-17,-14,-13,-25,-11,0
2155,4,3,2,4,6,16,40,13,0
2160,-4,-4,-2,0,1,2,15,2,0
2165,0,-1,1,1,-4,-1,3,-1,0
2170,5,5,7,6,8,-3,-27,1,0
2175,-5,-5,-10,-10,-19,-40,-47,-20,0
2180,8,2,-1,1,2,39,50,24,0
2185,-3,-3,-5,-8,-10,-21,4,-5,0
2190,13,9,10,18,34,74,78,32,0
2195,-6,0,6,4,2,-6,-42,-6,0
2200,-1,-2,-6,0,5,0,9,0,0
2205,1,0,2,4,-2,-6,-10,-3,0
2210,-20,-11,-12,-19,-37,-85,-116,-41,0
2215,8,5,6,7,23,42,19,17,0
2220,11,11,16,14,22,62,108,30,0
2225,-4,-6,-10,-4,-3,-5,-3,-8,0
2230,-8,-7,-7,-3,-21,-32,-39,-16,0
2235,-16,-11,-10,-15,-25,-53,-80,-31,0
2240,-5,-6,-13,-15,-14,-30,-67,-13,0
2245,1,-3,4,3,-8,7,29,-1,0
2250,19,16,-5,4,33,58,63,36,0
2255,0,0,18,1,-3,3,28,0,0
2260,-1,0,0,7,5,-5,-29,-4,0
2265,-5,-3,-3,-3,-1,-10,-17,-4,0
2270,-13,-5,-1,-2,-12,-22,-37,-19,0
2275,-6,-7,-24,-16,-9,-9,-8,-10,0
2280,2,-2,15,5,6,15,27,7,0
2285,1,5,9,6,1,0,2,0,0
2290,-10,-8,-10,-10,-17,-48,-74,-18,0
2295,-1,-6,-24,-16,8,52,30,5,0
2300,4,1,8,8,3,-9,9,13,0
2305,-8,-5,12,7,5,15,-10,3,0
2310,10,8,9,0,7,22,20,7,0
2315,-20,-8,-6,0,-14,-32,-33,-15,0
2320,28,10,5,-1,-4,-4,-4,2,0
2325,-5,2,-26,-8,3,2,4,9,0
2330,-22,-16,21,3,-12,-45,-90,-32,0
2335,-9,10,-25,-5,4,22,54,11,0
2340,-12,-4,17,3,-7,-6,-13,-7,0
2345,4,2,3,-8,-5,-12,-20,-2,0
2350,2,-1,-9,-4,-2,2,32,8,0
2355,2,1,14,16,6,-8,-15,-3,0
2360,-17,-9,-18,-7,2,10,15,0,0
2365,2,0,-1,-2,-4,-11,-12,-7,0
2370,0,-2,-3,-4,-3,11,18,5,0
2375,7,1,16,15,10,5,23,12,0
2380,-2,-1,-12,-15,-12,-10,-16,-6,0
2385,4,-5,4,4,8,10,7,1,0
2390,2,4,-10,-13,-16,-2,12,-3,0
2395,4,1,11,2,-2,-3,4,4,0
2400,-1,1,-3,3,5,-4,-12,-2,0
2405,-5,-3,-7,0,12,6,6,-4,0
2410,-1,-4,0,0,3,6,19,6,0
2415,-13,-3,-2,-7,-17,-16,-18,-10,0
2420,-14,-9,-7,-5,0,6,-7,-12,0
2425,33,12,10,3,1,12,26,18,0
2430,16,5,7,8,13,7,8,9,0
2435,14,2,0,-3,-7,-7,1,14,0
2440,1,5,0,0,2,-1,-5,-2,0
2445,-18,-4,-6,-1,0,3,1,-8,0
2450,-10,-11,-9,-11,-7,-2,-4,-3,0
2455,-4,-1,6,3,5,0,1,-4,0
2460,-7,-1,1,7,4,4,3,-3,0
2465,2,-1,-1,-3,-6,-2,-4,0,0
2470,-1,1,-4,-5,-10,-7,2,0,0
2475,-2,0,1,-5,-5,1,-2,-5,0
2480,5,1,-5,1,5,2,3,7,0
2485,-1,0,-3,-5,-8,-9,-3,-4,0
2490,-7,-4,-2,6,5,1,-1,-5,0
2495,11,6,5,3,8,10,10,10,0
2500,3,5,0,-2,-2,-4,-6,-6,0
2505,-4,-2,2,0,-1,-6,-5,-2,0
2510,-2,-3,-4,0,-9,-2,6,-2,0
2515,1,-3,-9,-14,-13,-6,-12,-6,0
2520,-2,-2,2,2,2,3,10,3,0
2525,-5,-4,-6,-7,-5,0,0,-1,0
2530,1,2,-1,-1,-3,-8,-19,-4,0
2535,5,1,3,3,12,20,25,5,0
2540,-3,-2,2,0,4,6,2,3,0
2545,-2,-1,-2,7,2,-5,-6,-2,0
2550,-4,-3,-4,-7,-13,-9,0,-3,0
2555,-2,-5,2,1,1,-5,-20,-5,0
2560,-2,-3,-9,-4,5,-2,-2,-1,0
2565,2,3,3,7,-8,3,3,-1,0
2570,-6,-9,-7,1,5,-3,-3,-4,0
2575,5,12,25,6,-2,-2,-3,1,0
2580,-4,-7,-10,-14,-17,-13,-6,-7,0
2585,5,3,2,3,11,12,13,8,0
2590,-2,1,-4,-1,5,6,7,1,0
2595,-5,-7,-11,2,4,1,-3,-4,0
2600,1,1,7,4,4,1,-1,0,0
2605,-5,-8,-19,-12,-14,-15,-12,-6,0
2610,1,7,16,2,-2,-1,-2,1,0
2615,4,0,4,4,9,15,24,6,0
2620,-2,0,1,-2,-6,-5,-3,-4,0
2625,-3,-1,-1,-2,-2,1,3,-1,0
2630,1,0,-6,2,11,9,4,1,0
2635,-2,-2,-2,-1,3,-11,-15,-5,0
2640,-3,-7,-10,-9,-12,-8,-3,0,0
2645,-6,-2,-4,-15,-21,-7,-1,-5,0
2650,-2,1,3,-1,0,-1,2,0,0
2655,4,-1,-2,1,-8,-6,-2,1,0
2660,-1,0,3,7,8,8,6,3,0
2665,2,-2,-1,-8,11,1,-6,1,0
2670,-4,-4,-1,3,-24,-18,-12,-6,0
2675,-4,0,-4,3,7,2,1,-1,0
2680,4,2,2,3,5,20,53,11,0
2685,0,1,8,9,9,2,-8,-5,0
2690,6,4,-2,-2,9,5,0,3,0
2695,-5,-4,-6,-3,-2,-11,-21,-9,0
2700,-2,-2,-2,-3,-12,-11,-17,-4,0
2705,-2,1,1,-1,0,8,5,3,0
2710,0,-2,-4,-8,-4,-3,6,1,0
2715,-1,0,1,5,3,0,2,0,0
2720,-4,-2,-6,-9,-6,-10,-18,-8,0
2725,-3,-3,-1,-3,-2,0,5,0,0
2730,0,0,6,6,4,5,-1,-1,0
2735,1,0,-1,1,0,1,1,0,0
2740,1,0,0,4,8,3,0,1,0
2745,0,-2,-4,-1,-6,-6,-4,0,0
2750,-3,-2,1,-3,0,0,0,-3,0
2755,-4,-4,-6,-4,3,-2,-1,-3,0
2760,0,0,-1,-3,-9,-8,-8,-4,0
2765,-4,-1,-3,-4,-9,-7,0,-4,0
2770,-1,-1,2,-1,6,7,7,2,0
2775,1,1,1,0,-4,0,-2,2,0
2780,-2,-6,-6,1,0,-5,-15,-3,0
2785,-1,1,-2,-1,2,-3,-3,-3,0
2790,-3,-1,0,-4,-7,-5,-5,-2,0
2795,-4,-6,-5,-5,-10,-1,-2,-5,0
2800,1,-3,1,-1,1,4,13,4,0
2805,0,-2,-15,1,9,9,5,5,0
2810,5,9,36,22,18,12,9,1,0
2815,-1,-3,-5,-5,-2,-1,-1,0,0
2820,-5,-3,-5,-14,-18,-13,-10,-8,0
2825,-4,-5,-7,-4,-11,-5,-4,-3,0
2830,-1,-2,-13,-7,-3,-3,-6,-2,0
2835,-1,0,0,0,3,2,-2,0,0
2840,1,0,-3,-2,0,1,8,1,0
2845,-1,1,8,4,7,5,-2,0,0
2850,1,-1,-6,-3,-3,1,7,1,0
2855,-3,0,3,-6,-8,-8,-5,-3,0
2860,0,0,-6,6,9,-2,-11,0,0
2865,0,1,9,2,6,0,-5,-2,0
2870,-3,-3,-7,-9,-16,-7,-1,-1,0
2875,0,-4,-7,-3,-4,-1,17,4,0
2880,-3,0,3,-2,-1,-1,-4,-5,0
2885,4,3,6,5,12,3,2,5,0
2890,-2,-2,-7,-6,-5,-2,-5,-4,0
2895,-3,-3,-4,-8,-6,-4,-2,-4,0
2900,2,0,0,0,6,1,-2,3,0
2905,-3,-3,-4,-10,-18,-8,-3,-3,0
2910,-1,0,1,-4,2,2,4,-2,0
2915,-1,-2,0,2,1,0,-14,-4,0
2920,-1,-5,-7,-3,3,-2,-10,-5,0
2925,0,0,3,3,4,3,4,3,0
2930,-1,-3,0,-5,-5,-4,-12,-5,0
2935,-2,0,1,1,-7,-5,0,-1,0
2940,0,2,4,7,9,6,3,4,0
2945,0,2,1,0,3,-3,-3,-1,0
2950,3,2,3,5,12,14,24,8,0
2955,-1,-3,-9,-8,-6,-4,-2,-4,0
2960,0,2,3,0,-1,1,-2,0,0
2965,0,-3,-12,-9,-4,-1,1,2,0
2970,-4,-2,8,1,0,-9,-15,-8,0
2975,-1,0,5,11,10,10,5,2,0
2980,-4,-3,-9,-10,-9,-4,-5,-4,0
2985,0,-1,-1,0,0,-3,-5,-3,0
2990,-2,-7,-19,-10,-13,-5,-3,-2,0
2995,7,13,24,19,26,14,12,8,0
3000,1,-1,-4,-7,-5,-10,-13,1,0
3005,-11,-14,-22,-28,-46,-26,-16,-13,0
3010,2,5,17,6,5,10,28,5,0
3015,0,3,1,3,-1,-6,-19,-5,0
3020,3,3,-1,11,27,23,34,7,0
3025,1,-3,4,2,15,7,8,4,0
3030,-4,-3,-10,-5,-14,-16,-19,-6,0
3035,-3,-6,-5,-4,-8,-2,-1,-3,0
3040,1,11,22,7,15,6,-6,1,0
3045,0,1,8,0,-4,-1,-2,-1,0
3050,-1,-3,-8,2,3,-6,-6,-1,0
3055,-4,-6,-18,-15,-19,-11,-4,-6,0
3060,0,-2,1,8,6,4,-6,1,0
3065,-1,-2,1,3,5,3,3,-2,0
3070,0,-4,-9,-2,0,-1,2,2,0
3075,1,4,5,-3,-2,-3,-2,3,0
3080,-3,-5,-12,-8,-8,-11,-14,-7,0
3085,0,-3,-8,-4,2,-1,9,1,0
3090,2,3,11,9,2,3,2,-1,0
3095,-3,-3,-10,6,9,2,5,1,0
3100,1,5,6,1,13,8,-4,1,0
3105,-2,-3,-8,-10,-8,-7,5,-3,0
3110,-4,-2,1,-1,2,5,-8,-3,0
3115,0,-1,-1,2,2,7,13,1,0
3120,-1,-3,-4,1,-2,3,11,0,0
3125,-2,-4,-7,-3,7,2,-7,-1,0
3130,0,2,13,5,-9,-8,-2,1,0
3135,-6,-2,-4,-5,-4,-8,-13,-9,0
3140,2,0,-4,1,8,-1,-3,2,0
3145,-3,-6,-10,-8,-8,-2,3,-3,0
3150,3,8,13,5,8,6,5,5,0
3155,0,-2,-7,2,-4,-6,-6,-1,0
3160,-3,-4,-12,-8,-8,-4,-1,-2,0
3165,1,-1,3,-1,3,1,1,-2,0
3170,2,3,4,-1,7,4,2,1,0
3175,2,2,14,3,0,-1,-1,0,0
3180,-5,-4,-3,0,-21,-12,-4,-7,0
3185,-1,0,0,0,3,4,-4,-1,0
3190,-2,-6,-10,-6,-8,1,6,-2,0
3195,3,4,1,0,11,2,0,3,0
3200,-2,-2,2,-4,-7,-4,-3,-2,0
3205,-1,-2,0,-1,-6,-7,-5,-1,0
3210,-1,-4,-4,-3,-12,-7,2,-1,0
3215,1,1,0,4,11,8,1,3,0
3220,1,3,5,2,10,3,-2,0,0
3225,-5,-6,-5,0,2,-7,-11,-5,0
3230,1,2,4,-2,2,4,0,3,0
3235,-1,0,5,2,2,1,1,1,0
3240,-3,-3,-3,3,13,-2,-12,-5,0
3245,-5,-4,-6,-5,-11,-7,-13,-8,0
3250,0,-1,-3,-2,1,5,1,1,0
3255,-1,0,4,9,12,3,-1,-1,0
3260,0,4,8,9,16,8,6,1,0
3265,1,-2,-5,-7,-9,-4,1,1,0
3270,-2,-5,-8,-8,-7,-5,-4,-2,0
3275,-2,-5,-13,-13,-7,-5,-5,-5,0
3280,-2,-2,-3,-5,8,3,-1,-2,0
3285,-4,-1,-4,-2,-6,-4,-2,-2,0
3290,-1,-4,-4,-2,3,0,1,-1,0
3295,-2,-3,-5,-10,-12,-8,-7,-4,0
3300,0,1,-1,1,2,1,4,0,0
3305,-1,2,4,5,7,5,4,4,0
3310,-4,-4,-4,-13,-23,-9,-11,-4,0
3315,-2,-2,-2,1,-2,-1,-2,-2,0
3320,-2,-2,-4,6,5,1,-1,-1,0
3325,0,-2,-11,-8,-3,-1,-1,-1,0
3330,1,2,14,8,-4,-1,0,-1,0
3335,1,1,-3,1,11,11,3,3,0
3340,-2,1,4,-8,-13,-10,-8,-2,0
3345,-2,-2,-6,5,0,2,13,2,0
3350,-4,-3,-4,0,-2,-3,-9,-6,0
3355,1,3,11,10,13,6,2,2,0
3360,1,2,5,1,5,3,4,1,0
3365,-7,-10,-17,-8,-6,-7,-10,-9,0
3370,-1,-2,-3,-1,-4,-7,-5,-1,0
3375,-2,-1,-4,-9,-22,-10,-5,-4,0
3380,-3,-6,-7,-4,-9,-6,-4,-5,0
3385,-1,1,1,0,-2,-1,-1,0,0
3390,-2,-4,-6,-11,-7,-2,5,1,0
3395,0,0,-1,-1,2,1,2,-1,0
3400,2,2,3,2,7,5,2,2,0
3405,-1,1,5,3,6,4,-2,-1,0
3410,-1,-1,0,-2,-2,-3,-10,-2,0
3415,-4,-9,-13,-7,-9,-11,-7,-6,0
3420,-4,-2,0,-3,-8,-2,2,-2,0
3425,0,-1,-4,-5,-5,-3,-3,-3,0
3430,1,3,6,1,0,1,2,0,0
3435,1,1,1,3,9,6,2,2,0
3440,3,1,5,0,2,5,2,3,0
3445,0,-3,-6,-7,0,-1,-1,-2,0
3450,-5,-4,-7,-4,-8,-9,-6,-4,0
3455,-2,-2,3,-3,-3,0,-3,-3,0
3460,0,0,-1,-2,-3,-3,3,2,0
3465,0,0,1,8,7,1,-1,2,0
3470,0,-2,-2,-7,-1,0,-1,-1,0
3475,1,1,2,-3,-7,1,0,0,0
3480,2,2,4,3,6,4,3,-1,0
3485,0,-1,-3,-6,0,-4,1,3,0
3490,-1,-2,2,3,-6,2,1,2,0
3495,0,-1,2,0,4,3,1,-2,0
3500,-3,-3,-5,-6,-3,-1,-4,-4,0
3505,-2,-2,-5,-2,-4,-5,-3,-4,0
3510,-4,-1,0,-3,3,0,2,0,0
3515,1,3,3,9,7,2,1,2,0
3520,-2,-4,-5,-6,-5,-5,-6,-3,0
3525,-2,1,4,4,-2,1,6,-2,0
3530,-1,1,5,1,0,2,2,-2,0
3535,-1,-1,-2,4,6,-1,-2,-2,0
3540,-1,-3,0,6,-2,0,-7,-2,0
3545,-2,-1,2,-2,-2,-1,-1,2,0
3550,-1,-1,-4,-9,-4,3,20,1,0
3555,0,1,2,3,3,3,-3,0,0
3560,0,-3,-4,-2,4,2,6,-2,0
3565,-2,0,1,-1,-5,-4,-9,-3,0
3570,0,1,6,5,0,0,-4,1,0
3575,1,-3,-7,-8,0,0,-3,-3,0
3580,-3,-5,-10,-7,-2,-6,-1,-3,0
3585,1,2,5,1,-1,3,3,2,0
3590,-1,-2,-9,-11,-3,-3,-6,-4,0
3595,-2,-2,0,5,-5,-3,2,-2,0
3600,1,3,6,7,4,3,1,3,0
3605,-1,-1,-3,-2,2,0,-2,-1,0
3610,-2,-3,-4,-4,-5,-4,-2,-4,0
3615,-2,-5,-11,-8,-3,-3,-6,-1,0
3620,-4,-1,-1,-2,-6,-3,-2,-2,0
3625,0,0,3,6,2,1,0,0,0
3630,-4,-3,-5,-7,-4,-2,-1,-4,0
3635,50,12,9,4,6,6,8,22,0
3640,-14,-5,-5,-5,-3,-2,-7,-9,0
3645,-2,-4,-2,7,2,-3,1,12,0
3650,22,8,5,0,6,7,6,9,0
3655,-9,-9,-14,-6,-7,-13,-6,4,0
3660,6,-1,-5,-13,-19,-12,-2,-3,0
3665,-13,-3,-2,-12,-10,2,0,-7,0
3670,9,8,-1,1,8,1,-1,0,0
3675,-7,-12,-5,-6,-5,-2,-5,-6,0
3680,-8,9,6,6,5,2,2,-6,0
3685,5,9,5,7,5,4,3,7,0
3690,42,-2,0,0,7,1,2,20,0
3695,13,17,3,-3,-10,-2,2,7,0
3700,68,30,13,12,14,5,6,5,0
3705,-10,-4,-7,-8,-11,-10,-4,-3,0
3710,-23,-9,-1,-3,-2,-1,-6,-10,0
3715,54,2,-14,-13,-6,-2,2,13,0
3720,-7,-3,-15,-18,-3,-2,-1,13,0
3725,-88,-60,-95,-13,-7,-9,-9,-31,0
3730,5,12,8,6,0,1,0,7,0
3735,-22,3,14,0,4,4,-1,-15,0
3740,-69,-24,-21,-10,-5,-7,-13,-41,0
3745,44,0,0,-13,-8,-5,1,-15,0
3750,8,-1,-7,-6,-3,1,8,55,0
3755,-3,6,17,13,7,3,2,5,0
3760,41,11,9,3,-1,3,4,18,0
3765,-33,-9,-13,-3,3,0,-4,-19,0
3770,-63,-20,-9,-3,-3,-3,-15,-54,0
3775,67,14,25,9,4,9,20,50,0
3780,-22,-5,-12,-5,-3,-4,-4,-9,0
3785,-9,-6,-11,-3,-3,-3,1,14,0
3790,-5,-9,-5,-3,-3,-4,-4,-8,0
3795,6,11,15,3,0,0,-6,-3,0
3800,-17,-7,-12,-7,-3,0,-1,-9,0
3805,-23,-4,1,0,2,2,-3,-12,0
3810,-8,-2,9,9,2,-2,-3,-23,0
3815,31,-5,-12,-12,-9,-3,-1,36,0
3820,-9,-7,-6,-1,-1,4,-5,-15,0
3825,63,38,15,8,8,9,30,69,0
3830,-8,-4,5,5,1,5,7,-13,0
3835,5,11,4,3,5,2,3,14,0
3840,-48,-20,-13,-15,-12,-14,-19,-41,0
3845,-26,-11,0,-1,-2,-7,-20,-53,0
3850,10,2,1,-4,-1,-8,-4,19,0
3855,-11,-3,0,1,-4,5,13,-9,0
3860,12,3,3,3,8,10,8,11,0
3865,-7,-3,-3,-2,-3,-4,-6,-10,0
3870,4,2,-3,-1,-1,-3,-3,-2,0
3875,-13,-8,-5,-7,-4,-8,-9,0,0
3880,16,3,-3,-1,-3,-2,7,23,0
3885,-2,-2,2,0,-1,-2,-4,-4,0
3890,-17,-6,-5,1,0,3,-1,-6,0
3895,13,0,-2,-3,-2,2,-2,6,0
3900,9,1,2,4,2,3,9,16,0
3905,-23,-6,0,-1,-1,-4,-8,-30,0
3910,-1,-3,-3,-4,-4,-3,-3,-4,0
3915,6,0,-4,-6,-2,0,-4,11,0
3920,4,0,1,1,-1,-8,-9,-1,0
3925,-20,-2,3,2,-2,-6,-23,-17,0
3930,7,1,-1,-1,3,16,43,11,0
3935,5,0,-4,-2,2,7,4,15,0
3940,-3,3,4,4,6,2,1,-3,0
3945,-7,-4,-3,-5,-9,-11,-20,-15,0
3950,-6,-3,-3,-4,-5,-2,-17,-3,0
3955,-3,-1,-2,0,-3,4,15,-5,0
3960,5,-1,-4,1,2,-3,-4,4,0
3965,-1,-3,0,-2,1,-5,-4,4,0
3970,0,1,-3,1,1,11,-2,-5,0
3975,-7,-4,-2,-3,-10,-16,2,-4,0
3980,-1,-4,-3,-4,-8,-19,-32,-10,0
3985,-6,4,6,4,5,44,51,1,0
3990,-5,-4,0,-3,-5,-14,-5,-1,0
3995,-2,-2,-7,-9,-3,8,1,-2,0
4000,5,-1,-5,-6,-6,-9,1,5,0
4005,-8,-4,-4,2,1,-24,-32,-16,0
4010,-1,0,-1,-9,-8,-4,5,-2,0
4015,0,3,7,10,11,3,-7,5,0
4020,0,-2,-2,1,-4,5,19,2,0
4025,0,-2,-3,-2,-6,-2,-12,3,0
4030,-2,-1,1,0,2,-10,-7,-5,0
4035,4,-1,-2,2,9,-1,-14,1,0
4040,-3,-6,-3,3,-1,3,5,-4,0
4045,-1,4,9,10,11,18,4,-1,0
4050,2,4,7,4,7,2,11,2,0
4055,-8,-10,-21,-14,-15,-26,-17,-9,0
4060,-2,-7,-14,-14,-29,-6,2,1,0
4065,-5,-6,-4,-7,0,-1,9,-3,0
4070,1,5,13,6,7,1,-9,1,0
4075,2,3,12,5,6,10,3,1,0
4080,-1,2,-2,0,11,6,3,-1,0
4085,0,-2,-6,-3,-4,-10,0,-2,0
4090,-1,-4,-10,-1,5,0,-8,-3,0
4095,-2,-3,-3,-2,-7,-1,4,-1,0
4100,-4,2,-5,1,0,0,-2,-2,0
4105,-1,-3,2,0,4,3,3,-1,0
4110,1,1,0,-3,-3,0,2,0,0
4115,-2,0,6,-6,-6,-3,0,3,0
4120,2,4,6,5,3,4,2,0,0
4125,-2,-4,-4,0,0,-4,1,-2,0
4130,-6,-13,-8,-9,-5,1,-4,-5,0
4135,11,17,19,13,5,4,2,4,0
4140,1,3,5,-5,2,-1,-1,1,0
4145,-6,-6,-6,5,-7,-9,-4,-8,0
4150,-1,-6,-15,-9,-7,-3,-6,0,0
4155,-4,-4,-1,-4,-1,5,2,2,0
4160,5,4,7,-1,3,4,5,1,0
4165,-1,0,-8,-5,-7,-8,-1,-4,0
4170,-3,-3,-1,4,1,-4,-6,-3,0
4175,1,-2,-1,0,0,-2,-2,0,0
4180,-2,1,7,3,7,5,0,-1,0
4185,-2,-2,-2,-3,-2,-4,-2,-2,0
4190,0,3,3,-1,-1,0,-4,0,0
4195,-2,-2,-2,-1,3,1,0,-2,0
4200,2,2,6,4,4,4,1,0,0
4205,-4,-7,-14,-8,-8,-11,-4,-6,0
4210,-2,-1,9,12,14,4,-4,-2,0
4215,2,0,-6,-10,-5,-6,-1,1,0
4220,-6,-4,-5,-7,-26,-5,2,-3,0
4225,-2,-3,-4,-3,-4,-2,-2,-1,0
4230,0,0,1,-2,2,2,-1,0,0
4235,0,4,7,5,11,7,2,-1,0
4240,2,-1,0,2,9,-3,-5,-1,0
4245,-5,-3,-6,-4,-6,-4,-6,-3,0
4250,0,-2,-1,-7,-11,0,0,0,0
4255,1,2,7,12,25,12,1,2,0
4260,-1,2,0,3,-5,-13,-2,-1,0
4265,-2,-6,-9,-9,-2,3,-20,-8,0
4270,-3,-9,-14,-22,-39,-25,5,-1,0
4275,3,1,-1,-7,-19,7,23,7,0
4280,-2,-1,3,3,5,1,-2,-4,0
4285,4,5,10,7,18,4,6,4,0
4290,1,1,0,1,13,2,-15,-2,0
4295,-6,-5,-2,0,-7,-5,-11,-8,0
4300,-2,0,0,4,2,-5,-6,-2,0
4305,-2,-1,3,2,-2,-3,-1,-2,0
4310,0,2,1,1,7,7,4,0,0
4315,-1,-4,-7,-8,-6,-15,-9,-2,0
4320,-5,-3,-7,-2,-13,-12,-17,-11,0
4325,-1,-2,0,-1,2,21,21,5,0
4330,2,7,7,9,9,11,23,8,0
4335,-5,-4,-3,-7,-2,-8,13,8,0
4340,-27,-11,-7,-3,0,1,-16,-19,0
4345,2,-1,-3,-2,-7,1,1,-8,0
4350,51,0,-7,-7,-3,-3,-5,16,0
4355,25,4,-5,-11,-6,-2,-4,31,0
4360,7,10,23,12,12,10,4,13,0
4365,-34,-9,-7,-6,-3,-11,-7,-18,0
4370,-38,-7,6,19,8,6,-35,-33,0
4375,8,-9,-23,-6,-6,-7,7,6,0
4380,-22,-8,-10,-9,0,-1,0,-16,0
4385,14,-1,-1,-8,-7,-7,-5,0,0
4390,-35,-16,-17,-2,-7,-19,-16,4,0
4395,35,-1,5,2,-2,7,-7,-20,0
4400,67,40,20,10,6,14,32,68,0
4405,11,7,2,1,7,6,5,9,0
4410,-11,-9,-3,-6,-6,-26,-25,-45,0
4415,-82,-8,0,-1,-4,5,-22,-46,0
4420,47,5,13,16,29,53,75,64,0
4425,3,4,-4,2,-3,-9,12,13,0
4430,28,4,-5,-8,-1,3,5,22,0
4435,-13,2,9,7,3,1,-13,-23,0
4440,-40,-22,-23,-14,-18,-20,-31,-39,0
4445,-6,-4,-9,-17,-25,-19,-12,-7,0
4450,-8,1,4,-3,-14,-1,16,2,0
4455,-5,-1,1,4,7,0,-3,-8,0
4460,-6,-2,-6,-2,1,-3,-12,-11,0
4465,2,1,2,7,10,6,3,8,0
4470,0,6,13,3,8,3,5,0,0
4475,9,-2,-3,-3,-7,-7,5,12,0
4480,-2,-4,-7,-6,-8,-9,-9,-8,0
4485,0,-6,-1,3,2,-5,-5,-1,0
4490,-1,2,5,3,5,7,5,1,0
4495,10,9,1,-6,-3,3,4,10,0
4500,-17,-8,-3,-5,-6,-9,-5,-15,0
4505,10,3,8,3,4,4,1,2,0
4510,6,-2,-10,-3,3,4,4,8,0
4515,-2,-6,-15,4,3,-4,0,6,0
4520,-8,-1,16,-9,-23,-16,-10,-13,0
4525,-5,-1,-2,-2,-5,-1,-5,-5,0
4530,0,3,2,2,3,5,6,4,0
4535,4,2,7,2,10,5,1,3,0
4540,-14,-11,-23,-9,-5,-6,-5,-14,0
4545,-17,1,4,3,3,1,-1,-16,0
4550,35,13,17,7,-4,-1,6,47,0
4555,-8,-6,-8,-6,1,-1,-2,-15,0
4560,4,-15,-35,-13,4,2,-3,-4,0
4565,4,16,35,16,3,3,2,21,0
4570,-14,-6,-12,-3,2,-4,-4,-16,0
4575,12,5,8,0,-3,1,5,14,0
4580,-2,-2,-3,-1,5,0,-3,-3,0
4585,-4,-7,-11,-2,5,3,0,-9,0
4590,-16,-6,-7,-3,-13,-6,-4,-12,0
4595,-6,-10,-15,-17,-16,-13,-8,-1,0
4600,-4,-4,1,-5,-4,-4,-2,-9,0
4605,3,5,-3,3,5,1,0,3,0
4610,4,8,17,8,10,8,2,-1,0
4615,3,3,7,2,3,3,4,2,0
4620,-1,-1,-5,0,0,-1,-3,2,0
4625,4,0,-2,0,-4,-5,-4,0,0
4630,-5,-4,-6,-2,9,6,-1,-5,0
4635,-3,-1,-5,-3,-16,-13,-4,-5,0
4640,-2,1,2,3,-9,-2,0,1,0
4645,3,-3,0,0,7,5,2,4,0
4650,-3,-1,-7,-4,-8,-4,-1,-8,0
4655,-2,-5,-3,-1,2,-5,-4,0,0
4660,3,7,15,7,7,6,5,2,0
4665,-2,-8,-10,-17,-21,-5,0,-3,0
4670,-4,-6,-7,-1,11,6,-9,-4,0
4675,0,1,4,0,1,5,7,1,0
4680,2,1,2,2,4,-5,-19,-1,0
4685,-3,-4,-5,1,-3,-16,-21,-7,0
4690,1,1,-1,-5,3,18,31,8,0
4695,5,6,7,10,9,12,17,8,0
4700,-1,-2,-1,-2,-1,-4,-3,-2,0
4705,-5,-6,-10,-5,-12,-15,-13,-6,0
4710,-5,-4,-7,-10,-22,-24,-30,-11,0
4715,0,2,9,8,9,11,-1,2,0
4720,2,3,5,5,5,4,9,2,0
4725,-3,-4,-9,-9,-5,-2,-4,0,0
4730,-4,-7,-9,-11,-10,-11,0,-2,0
4735,-3,-3,-2,-4,-17,-11,-2,-3,0
4740,2,2,4,3,4,4,-4,0,0
4745,2,-4,-3,8,12,10,8,2,0
4750,-2,3,7,7,7,2,10,0,0
4755,0,-1,2,-1,2,3,-6,-1,0
4760,-1,0,3,-3,-3,-4,-4,2,0
4765,-1,-4,-10,-1,2,1,6,0,0
4770,-2,-5,-17,-2,-6,-8,-2,-4,0
4775,-5,-2,11,-1,1,-1,-11,-7,0
4780,3,3,4,1,0,3,10,9,0
4785,4,3,4,5,8,0,5,-1,0
4790,-1,-2,-5,-6,-9,-1,-3,-1,0
4795,-3,-3,-6,-2,-2,-4,-6,-4,0
4800,-4,-1,-2,-7,-12,-7,-2,-6,0
4805,0,1,4,2,7,6,1,-1,0
4810,-4,-4,0,3,4,0,-2,0,0
4815,7,6,3,5,9,0,0,1,0
4820,-4,-5,-5,-11,-19,-6,-8,-8,0
4825,-3,-3,-4,-4,-14,-11,-7,-2,0
4830,0,-1,1,2,8,12,21,1,0
4835,-4,-13,-34,-11,3,8,15,4,0
4840,10,21,50,22,15,3,-2,4,0
4845,-1,3,0,-1,-1,0,-7,-4,0
4850,-2,-4,-5,-6,-5,-9,-15,-5,0
4855,-2,-4,-3,-4,-6,-4,-5,-1,0
4860,-3,-10,-20,-7,-3,-5,0,-1,0
4865,-2,-4,-6,0,-1,4,1,1,0
4870,-1,5,9,2,5,2,-4,-1,0
4875,-2,-2,-6,-9,-17,-12,-2,-1,0
4880,0,-2,-7,-2,5,5,2,1,0
4885,2,4,10,4,7,4,6,5,0
4890,-1,-4,-9,-8,1,-6,-4,-2,0
4895,-3,-5,-2,-8,-26,-6,-9,-6,0
4900,-5,-5,-12,-11,-12,-6,-3,-5,0
4905,0,-1,3,3,5,5,3,2,0
4910,-1,2,6,6,6,-1,-6,-2,0
4915,-1,0,3,6,5,6,3,1,0
4920,2,-1,-1,-2,4,6,8,1,0
4925,-1,-1,-2,-2,0,-1,4,1,0
4930,6,4,3,-2,-11,-4,-2,2,0
4935,0,1,2,4,10,8,20,4,0
4940,-5,-1,-6,3,-2,-4,-5,-4,0
4945,-3,-6,-7,-5,-8,-6,-4,-4,0
4950,0,4,15,6,0,0,-9,-3,0
4955,-4,-5,-19,-4,2,-3,-9,-5,0
4960,-4,-7,-7,-12,-12,-9,-4,-5,0
4965,-2,-1,2,-2,-3,-2,-2,-1,0
4970,2,0,-1,-2,-4,-4,-3,0,0
4975,-7,0,6,12,8,3,-4,2,0
4980,-1,-1,2,0,9,8,1,-2,0
4985,-4,-3,-3,-1,0,-3,-4,-4,0
4990,0,-2,-6,-3,-1,-2,-4,1,0
4995,1,1,1,-4,-6,-1,-7,-1,0
5000,-1,-3,-7,-2,-2,-1,16,0,0
5005,0,-1,0,-5,-5,1,-2,-2,0
5010,-4,-2,-1,1,-1,-3,6,0,0
5015,3,5,6,-3,3,2,-11,-3,0
5020,-2,0,1,1,1,4,6,2,0
5025,-1,-2,-7,2,4,6,13,-1,0
5030,0,-1,-7,-5,-2,-2,-1,-1,0
5035,-8,-12,-6,-12,-8,-13,-12,-8,0
5040,1,6,12,16,4,-5,-16,-3,0
5045,-3,-8,-26,-19,-8,-7,-5,-3,0
5050,-1,3,16,9,0,4,5,3,0
5055,-1,-4,-15,-5,-1,0,-1,-1,0
5060,-4,-12,-46,-28,-5,-1,1,-3,0
5065,2,11,42,19,5,1,-1,1,0
5070,-1,-3,-9,3,2,1,-6,-2,0
5075,2,5,12,12,11,-9,-2,1,0
5080,-3,-7,-14,-9,-15,2,3,1,0
5085,0,-1,-4,-5,-1,1,1,3,0
5090,-2,0,-2,-7,-3,-3,-4,1,0
5095,2,3,2,2,1,8,1,-1,0
5100,-2,-4,-7,-6,-1,-7,-5,-5,0
5105,5,7,13,11,10,-1,-8,2,0
5110,1,2,11,10,3,11,12,2,0
5115,0,2,1,2,10,1,4,0,0
5120,-5,-16,-34,-12,-11,-4,-9,-4,0
5125,0,9,24,-6,-16,3,0,-2,0
5130,-3,-8,-16,-4,0,-8,-11,-6,0
5135,2,3,5,3,-4,-2,1,2,0
5140,1,4,15,12,13,6,-4,0,0
5145,0,-6,-18,-6,-6,-4,1,0,0
5150,-1,-2,-2,-3,7,8,2,-4,0
5155,-1,-2,6,-2,-3,-4,5,-1,0
5160,0,1,12,7,-4,-4,1,2,0
5165,-3,-4,-8,1,6,0,-4,-5,0
5170,0,-1,-6,-12,-8,-6,-2,-1,0
5175,-2,-1,-2,-5,-6,-2,1,0,0
5180,-1,3,14,8,9,2,-3,-3,0
5185,0,-7,-18,-10,-2,0,7,3,0
5190,-2,-1,5,2,-2,-1,-1,-2,0
5195,0,5,18,7,2,-2,-2,-3,0
5200,1,2,1,-9,-7,-4,-4,-2,0
5205,-2,0,-4,-2,-1,-4,-3,-1,0
5210,0,-1,-7,-7,-6,-3,6,1,0
5215,2,0,-2,0,1,3,1,2,0
5220,0,4,13,6,4,-1,0,1,0
5225,-3,-6,-3,6,2,-4,-5,-4,0
5230,-6,-7,-12,-5,-4,-5,-3,-5,0
5235,-3,-2,0,-2,-3,4,-4,-2,0
5240,4,0,-3,-1,6,0,5,5,0
5245,-6,-12,-19,-17,-16,-7,-8,-4,0
5250,1,13,33,11,4,-3,3,1,0
5255,9,14,24,9,-5,-1,0,2,0
5260,1,4,3,1,0,1,-4,-1,0
5265,-2,-2,-4,2,9,5,-2,-2,0
5270,-3,-6,-14,-4,2,3,0,-2,0
5275,-5,-5,-1,-1,-2,-1,0,-2,0
5280,1,-2,1,3,-2,-4,-2,6,0
5285,0,-1,2,4,0,4,7,-4,0
5290,0,-5,-9,-7,-4,-4,-10,-6,0
5295,-2,-4,-5,-1,3,3,7,4,0
5300,-5,0,5,2,-4,-9,-9,-6,0
5305,-2,-1,-2,-1,1,9,20,3,0
5310,9,2,-1,3,5,2,5,9,0
5315,-4,-5,-11,-7,-10,4,-2,-5,0
5320,-3,-5,-6,-8,-12,-11,-14,-6,0
5325,-5,-4,0,-5,-4,0,4,-7,0
5330,-2,-1,-1,-3,-1,-1,7,-6,0
5335,1,3,0,-2,4,4,19,6,0
5340,-4,-5,-14,2,7,-1,-4,-5,0
5345,2,5,20,1,-10,-12,-13,1,0
5350,-1,-2,2,-3,-4,2,-13,-2,0
5355,-3,-8,-17,-3,-1,-10,-13,-3,0
5360,-3,-3,-3,-8,-4,0,12,-1,0
5365,2,1,-4,1,2,-2,-9,3,0
5370,-3,-3,-2,1,-10,0,7,1,0
5375,0,-3,1,3,7,0,-9,-4,0
5380,-2,1,-2,6,13,-11,0,0,0
5385,-2,-2,-6,-13,-18,14,0,0,0
5390,-1,-2,-3,-3,-9,-7,-6,1,0
5395,-1,-3,-7,-6,2,7,1,-3,0
5400,5,6,11,7,6,0,4,3,0
5405,-2,-3,-7,-6,-11,-21,-5,-4,0
5410,-4,0,4,7,3,6,-2,-4,0
5415,0,1,1,1,8,7,-1,2,0
5420,1,0,4,2,-1,1,0,0,0
5425,-1,0,0,0,10,5,-3,-1,0
5430,-7,-10,-13,-5,-11,-11,-7,-7,0
5435,0,1,2,-1,-8,-9,-1,0,0
5440,3,3,9,6,11,19,1,3,0
5445,3,2,2,12,18,2,4,6,0
5450,-4,-4,-8,-13,-11,-5,-4,-5,0
5455,-2,-5,-9,-7,-19,-12,-5,-4,0
5460,-1,3,10,0,-1,4,-2,2,0
5465,6,2,1,3,1,4,13,8,0
5470,1,1,1,0,2,-9,-5,1,0
5475,-6,-17,-39,-7,-3,-3,-5,-4,0
5480,8,18,35,8,-5,6,0,1,0
5485,-1,1,4,5,11,2,-4,-2,0
5490,-2,0,-3,1,6,0,-6,-3,0
5495,-2,-6,-11,-11,-12,-1,0,0,0
5500,-6,-14,-28,-7,-5,-4,-4,-2,0
5505,7,14,15,3,-5,-7,-5,1,0
5510,-2,-2,-3,-6,-7,-5,-2,-3,0
5515,-1,2,8,1,6,1,-1,-5,0
5520,-2,-4,-7,-3,1,2,6,1,0
5525,-1,-4,-3,-8,-7,-3,-2,-3,0
5530,-1,-4,-3,5,3,2,-3,1,0
5535,-5,5,19,6,5,-3,-7,-6,0
5540,-4,1,11,3,0,6,11,4,0
5545,-9,-12,-20,-15,-8,-9,-14,-9,0
5550,-2,-5,-1,-2,-4,-2,-1,-5,0
5555,-3,-3,-3,0,5,4,0,-3,0
5560,3,1,-4,-2,-6,-6,5,7,0
5565,-20,-16,-3,3,0,0,-1,-8,0
5570,0,-3,-5,-2,7,6,7,6,0
5575,20,25,23,2,-2,-5,2,4,0
5580,5,6,1,2,-2,-3,-8,4,0
5585,2,0,-1,0,0,-2,-2,-1,0
5590,-3,-5,0,-3,4,9,1,-1,0
5595,-15,-14,-11,-7,-9,-15,-31,-19,0
5600,-8,-10,-12,-14,-8,-7,3,-9,0
5605,13,7,5,14,12,20,23,18,0
5610,-2,0,2,3,4,0,0,3,0
5615,3,2,0,-6,-1,2,3,5,0
5620,-5,-7,-6,-6,-9,-12,-23,-13,0
5625,-10,-5,-5,-3,-3,-9,-10,-16,0
5630,4,-1,-5,2,3,4,5,1,0
5635,0,-3,4,-1,-2,-5,-8,4,0
5640,-1,0,-6,-9,-1,8,6,-4,0
5645,-1,-7,-8,-7,-6,-10,-6,-6,0
5650,3,7,7,4,-2,-6,-3,4,0
5655,0,0,1,5,1,1,9,3,0
5660,-1,-3,-1,-2,0,0,1,-4,0
5665,1,0,-2,3,-2,-4,-11,-3,0
5670,-2,5,0,-6,3,1,3,-5,0
5675,2,-5,-3,2,-1,5,4,3,0
5680,4,3,6,5,2,-1,-5,3,0
5685,6,4,2,2,1,-2,6,8,0
5690,-6,-2,-2,-7,-9,-14,-12,-13,0
5695,-3,-2,-7,-3,-5,-4,-9,-2,0
5700,-1,-4,-2,5,6,12,15,4,0
5705,-3,-2,-1,-7,-7,-9,-6,-3,0
5710,2,2,0,-4,4,10,7,6,0
5715,-3,-3,1,2,-2,-3,3,-2,0
5720,-4,-8,-12,-8,1,0,-9,-5,0
5725,-10,7,-21,-6,1,3,-9,-13,0
5730,9,-7,31,19,6,2,5,14,0
5735,3,1,4,5,5,2,22,8,0
5740,-1,3,3,-1,1,9,2,-2,0
5745,4,0,-2,-1,-2,3,-8,8,0
5750,-7,-8,-18,-9,-5,-16,-13,-18,0
5755,4,7,5,4,7,25,18,10,0
5760,1,-3,-2,0,0,-3,4,3,0
5765,1,1,2,1,2,6,2,1,0
5770,-3,1,-1,0,0,-7,-10,-6,0
5775,-3,-3,-3,-2,-5,-9,-8,-2,0
5780,-3,-2,-15,-12,-5,-4,-1,-4,0
5785,3,4,32,8,2,-1,0,1,0
5790,-2,0,-6,-1,-4,-1,-4,1,0
5795,-4,-1,-2,-5,1,-3,-2,-6,0
5800,2,4,1,-2,-6,-2,-3,1,0
5805,-4,-10,-11,-5,-4,-8,-4,-4,0
5810,-1,14,1,5,-2,0,5,1,0
5815,-7,-20,-17,-10,-4,-9,-6,-6,0
5820,0,-3,4,4,-2,0,-3,-3,0
5825,1,-1,3,-4,-2,-3,4,5,0
5830,4,6,2,0,5,14,7,0,0
5835,0,5,-3,-1,-5,-12,1,7,0
5840,-9,-6,-6,0,0,3,-12,-13,0
5845,2,-1,-3,-1,7,-2,1,9,0
5850,-5,-3,0,-3,-15,-16,-12,-9,0
5855,0,1,0,-3,-5,3,8,4,0
5860,4,1,7,2,7,15,13,7,0
5865,-1,1,1,4,9,5,1,-2,0
5870,-4,-2,-7,-8,-3,-3,-4,0,0
5875,-1,-1,7,1,1,-20,-14,-9,0
5880,2,-1,2,7,5,8,12,6,0
5885,-1,1,10,-4,-1,9,4,-1,0
5890,-2,-7,-9,-2,-1,-5,-10,-6,0
5895,-2,0,1,6,-4,-4,-1,-4,0
5900,-4,2,-3,-11,-7,-10,-6,0,0
5905,0,-1,1,3,4,12,-2,0,0
5910,-3,-5,-5,-2,-14,-22,4,-6,0
5915,0,4,2,5,12,18,4,0,0
5920,2,0,6,6,0,-9,-3,4,0
5925,-2,-4,-7,-7,-16,-12,-12,-6,0
5930,-1,-2,-5,-9,5,22,8,4,0
5935,-1,-1,0,2,5,-8,-3,-3,0
5940,-8,-7,-3,-6,-10,14,-16,-11,0
5945,7,3,-6,1,2,-1,15,7,0
5950,5,-1,0,-5,-3,-3,1,7,0
5955,-1,-2,-2,-3,-1,0,-4,-2,0
5960,-4,-3,-3,-3,0,-13,-11,-6,0
5965,-3,-1,-1,0,-5,-7,-2,-6,0
5970,-1,1,3,3,11,21,6,0,0
5975,-1,-1,-2,0,-2,-4,-10,0,0
5980,-4,-6,-13,-10,-13,-20,1,-6,0
5985,-2,-3,-5,-1,-3,-2,4,0,0
5990,3,6,8,6,16,9,9,6,0
5995,-1,1,3,-4,-2,-2,-10,-4,0
6000,-1,-2,-6,-1,-12,-13,4,0,0
6005,-1,-3,-5,1,2,3,-2,-3,0
6010,-2,-1,-1,-1,5,-2,-3,-3,0
6015,1,3,4,1,-3,1,9,3,0
6020,1,1,1,5,9,0,-3,0,0
6025,-3,-5,-9,-10,-13,-17,-11,-6,0
6030,0,0,5,1,-3,12,6,3,0
6035,-2,-1,-7,-6,-1,-1,-4,-4,0
6040,0,1,1,0,2,0,4,1,0
6045,-3,-1,0,-1,-1,2,-5,-2,0
6050,1,0,3,7,7,4,6,2,0
6055,-2,-2,-3,-1,-3,-4,0,-1,0
6060,-1,-2,-2,-6,-6,-4,-5,-1,0
6065,-4,-2,-11,-12,-17,-12,0,-4,0
6070,2,-1,0,5,-7,-7,-5,1,0
6075,-1,-2,2,-1,5,7,-3,0,0
6080,-2,0,1,3,5,-2,1,-2,0
6085,2,2,3,0,4,3,9,6,0
6090,-3,-7,-8,-16,-11,-15,-12,-6,0
6095,-3,-5,-11,3,-4,2,10,-2,0
6100,2,5,17,8,5,0,-2,2,0
6105,-2,-1,6,7,7,1,-3,-3,0
6110,1,2,-2,-3,1,3,3,-1,0
6115,-1,1,-1,-2,-7,-2,-7,0,0
6120,-2,-4,-10,-4,-6,-5,-3,-3,0
6125,-3,-1,-1,-3,3,7,5,-1,0
6130,-2,-1,-3,1,-4,-11,-7,-2,0
6135,-1,3,6,3,3,10,4,1,0
6140,-3,-3,-23,-4,1,-1,0,2,0
6145,9,16,38,6,-6,-7,-10,-3,0
6150,-11,-17,-10,3,1,-7,-8,-10,0
6155,13,15,9,-1,1,2,2,4,0
6160,-5,-3,-7,-7,-2,5,-5,3,0
6165,-2,4,5,4,10,2,5,-1,0
6170,-2,-7,-9,-11,-11,-4,-4,2,0
6175,-7,-6,0,-7,-6,-1,-3,-2,0
6180,4,1,3,3,4,-4,-12,-3,0
6185,6,-4,-13,-5,-5,-3,-6,-1,0
6190,2,7,10,7,4,3,-1,1,0
6195,-7,-8,-12,-10,-7,-8,-11,-4,0
6200,-5,-3,1,-5,-9,-1,16,-5,0
6205,-4,-3,1,8,3,1,3,1,0
6210,-5,-2,-5,-12,-10,-5,-16,-8,0
6215,-2,-3,-2,2,-2,-1,0,-2,0
6220,4,3,6,1,8,18,33,5,0
6225,2,-4,-9,1,4,8,13,9,0
6230,1,2,5,-2,-3,-3,-5,-1,0
6235,2,2,3,2,4,-6,-14,6,0
6240,-4,-4,-4,-2,-7,-22,-15,-8,0
6245,-7,-8,-12,-9,-7,6,-11,-7,0
6250,3,3,5,4,3,4,10,1,0
6255,-2,-4,-2,-2,-6,-2,-4,-4,0
6260,0,-1,-1,1,-3,-6,-7,-3,0
6265,-9,-6,-6,-3,4,3,3,-5,0
6270,6,7,3,7,5,4,2,6,0
6275,7,0,6,4,0,-1,7,2,0
6280,-1,-2,-4,-5,-6,-6,-9,1,0
6285,-2,-3,-5,-9,-4,-3,-6,-2,0
6290,-3,-3,-1,-2,6,7,8,-2,0
6295,0,2,3,8,6,5,5,3,0
6300,-4,-4,-3,-8,-6,-7,-10,-6,0
6305,-2,1,2,7,4,3,11,4,0
6310,-9,-7,-10,-11,-14,-12,-1,-4,0
6315,-1,-4,4,6,3,8,1,-2,0
6320,3,4,-3,-9,-4,2,-9,-4,0
6325,0,1,-3,-5,-9,-9,-10,-4,0
6330,4,6,8,7,6,8,11,5,0
6335,-5,-1,-6,-6,-1,-7,-3,-6,0
6340,0,-2,2,-1,1,4,8,5,0
6345,-2,-7,-7,-1,1,-3,-7,-6,0
6350,-1,-2,-4,-4,-6,-12,-9,1,0
6355,-7,-2,-3,-2,4,10,2,-6,0
6360,-3,0,2,0,3,3,-2,-4,0
6365,1,-4,-10,-1,-3,-5,4,7,0
6370,2,5,8,5,1,5,1,-4,0
6375,-4,-5,-6,-10,-6,-8,-3,-8,0
6380,5,5,10,9,5,14,13,9,0
6385,-1,-4,-5,0,2,-1,-8,-5,0
6390,-2,-3,-9,-13,-12,-10,-2,3,0
6395,-3,-10,-26,-7,0,1,-1,-3,0
6400,4,12,28,12,-1,-6,-6,2,0
6405,-4,-1,-1,-5,0,-5,-7,-2,0
6410,3,3,10,9,9,11,10,0,0
6415,-2,-2,-10,-12,-4,-7,-3,0,0
6420,-5,-13,-20,0,-2,-6,-5,-4,0
6425,3,3,5,0,-5,-2,0,-1,0
6430,-1,2,-2,1,5,3,-1,1,0
6435,3,3,5,3,2,6,4,2,0
6440,-3,-3,-3,-5,-5,-3,-2,0,0
6445,-2,1,2,-5,-2,0,0,-1,0
6450,-4,-6,-3,-2,-7,-7,-11,-4,0
6455,1,2,3,4,0,6,10,0,0
6460,-2,0,2,2,-1,1,-4,-2,0
6465,1,4,3,4,2,-2,1,-1,0
6470,2,2,5,-2,1,3,0,3,0
6475,-1,0,3,4,5,-2,-4,-1,0
6480,-3,-7,-19,-13,-7,-6,-3,-4,0
6485,-1,-2,3,3,3,8,0,-1,0
6490,-2,-2,9,3,3,0,2,-2,0
6495,1,-1,3,-1,-5,-4,-6,3,0
6500,0,1,-7,-1,-8,-9,-3,-3,0
6505,-4,-3,0,-3,-7,-5,-3,-5,0
6510,-2,-3,-10,-7,-2,1,-2,0,0
6515,1,2,0,-2,3,5,3,1,0
6520,0,2,12,7,15,2,-1,2,0
6525,-1,-3,-7,2,3,7,2,-2,0
6530,0,-2,-1,-4,0,-4,-5,-1,0
6535,-5,-6,-8,-9,-17,-12,-4,-5,0
6540,-2,-1,1,-4,-9,-5,-6,-2,0
6545,0,2,6,2,3,-1,5,0,0
6550,0,-5,-8,-1,-1,-3,-2,-2,0
6555,-2,2,7,10,14,10,0,-2,0
6560,-1,-1,-4,-4,-4,-1,2,-1,0
6565,-2,0,-2,-8,-10,-11,-13,-2,0
6570,-3,-2,-3,1,0,0,12,-4,0
6575,3,3,5,6,9,7,4,8,0
6580,2,2,1,-2,-2,19,37,8,0
6585,-2,-1,-4,-2,-3,-1,-2,0,0
6590,0,-3,-4,-6,-3,-9,-11,-2,0
6595,-4,-1,1,0,-8,-13,-18,-7,0
6600,-2,-3,-3,-5,-5,-8,-13,-4,0
6605,-5,-5,-7,-10,-5,-4,-2,-1,0
6610,3,5,0,4,5,3,6,-1,0
6615,-1,1,3,6,4,2,-7,-1,0
6620,2,1,6,2,9,2,-6,1,0
6625,-1,-2,-2,4,2,7,3,0,0
6630,-6,-9,-12,-13,-14,-11,-10,-6,0
6635,-1,-2,-3,-6,-7,-6,5,1,0
6640,-1,-1,-1,-3,-2,2,-1,-1,0
6645,1,-1,1,0,3,0,-2,-1,0
6650,2,3,7,7,7,8,5,3,0
6655,-1,-2,-3,-10,-8,-7,3,-1,0
6660,-4,-6,-9,-6,-6,-6,-11,-7,0
6665,1,3,4,6,8,1,5,5,0
6670,-2,2,0,-2,-9,-2,-2,-2,0
6675,-3,-2,-3,-8,-6,0,2,-1,0
6680,0,0,3,4,9,2,-4,2,0
6685,-4,-5,-8,-6,-6,-5,-2,-8,0
6690,-3,-2,-1,0,0,-2,-5,-5,0
6695,2,3,5,8,15,6,0,8,0
6700,-1,-2,-4,-9,-19,-5,0,-2,0
6705,1,-1,-3,-3,-1,1,3,1,0
6710,-3,-4,-1,0,2,-3,-4,-2,0
6715,-5,-6,-5,-7,-7,-5,-9,-5,0
6720,3,6,6,12,10,3,0,3,0
6725,-1,0,1,0,5,4,0,0,0
6730,-2,-6,-12,-6,-4,-6,-5,-3,0
6735,-3,-1,-3,-5,-13,-10,-8,-2,0
6740,-4,-4,-6,-3,-5,-8,-9,-6,0
6745,-5,-2,4,1,-2,1,1,0,0
6750,-2,3,1,2,5,4,-3,-2,0
6755,1,1,1,2,5,2,7,-4,0
6760,-2,-2,-2,-1,-2,-2,1,3,0
6765,4,-1,-1,-3,-5,2,4,2,0
6770,0,1,2,2,0,2,4,1,0
6775,0,-1,-1,-4,-4,-4,-6,-5,0
6780,-5,-4,-3,-3,-2,-10,-18,-12,0
6785,-1,0,0,2,2,2,0,1,0
6790,7,7,8,8,13,22,39,17,0
6795,-2,-4,-9,-6,-10,1,1,-2,0
6800,-3,0,-3,-3,-2,1,-11,-6,0
6805,-5,-6,-8,-12,-23,-33,-40,-12,0
6810,-1,-1,1,4,5,13,12,1,0
6815,1,0,6,5,11,12,27,7,0
6820,-6,-2,-6,-5,3,0,-4,-2,0
6825,-5,-1,12,1,2,0,-4,-2,0
6830,-4,5,-2,-3,-6,-15,-24,-6,0
6835,-5,-5,-6,-2,-5,-4,-4,-4,0
6840,7,0,-4,-6,-1,1,2,2,0
6845,-7,-8,6,4,0,4,5,-5,0
6850,0,3,-2,-2,-3,-5,1,0,0
6855,3,1,-4,-3,-5,-7,-5,0,0
6860,-7,-2,-3,-1,3,2,2,-4,0
6865,6,3,-4,1,5,6,9,3,0
6870,-2,-6,0,-6,-6,-3,-12,-8,0
6875,3,4,2,2,0,-2,1,8,0
6880,1,-1,3,3,3,3,4,1,0
6885,4,5,2,2,3,2,11,2,0
6890,-2,-4,-1,-4,0,-1,-11,-2,0
6895,-8,-5,-5,-3,3,-12,-18,-16,0
6900,7,5,5,-1,-10,7,29,26,0
6905,1,-1,-6,-2,3,2,-1,1,0
6910,-5,-8,-12,-7,-8,-14,-10,-9,0
6915,-1,1,3,7,0,-1,-3,-4,0
6920,-4,1,4,1,4,-1,-20,-11,0
6925,4,2,0,-3,1,3,3,0,0
6930,-1,-7,-4,0,-3,5,-2,2,0
6935,3,2,3,0,4,10,24,4,0
6940,1,-1,-3,-1,-1,-5,0,-1,0
6945,-6,-1,6,2,4,3,1,-2,0
6950,0,6,2,0,1,-4,-14,-4,0
6955,-5,-7,-8,-8,-17,-13,-20,-3,0
6960,0,-1,2,3,0,-8,-3,1,0
6965,10,8,-6,0,-6,8,7,6,0
6970,-4,-8,2,4,3,-2,-3,-1,0
6975,-3,-5,-4,-4,0,4,5,-3,0
6980,-9,-14,-7,-6,-2,-2,-2,-9,0
6985,5,18,6,0,1,-5,-4,2,0
6990,7,7,8,3,-4,0,8,4,0
6995,-4,1,0,-1,1,3,-3,-2,0
7000,-4,-7,-2,1,3,3,-2,-3,0
7005,-6,-11,-6,-2,-3,-10,-5,-1,0
7010,-4,-4,-7,-6,-4,-1,-4,-5,0
7015,0,-4,-7,-7,-6,1,1,-4,0
7020,0,-2,-1,1,0,0,2,-1,0
7025,0,0,0,0,0,9,11,5,0
7030,1,3,0,-3,-1,-2,5,1,0
7035,-1,-1,3,1,-1,-7,-13,-5,0
7040,-1,3,0,0,1,0,-6,-8,0
7045,-2,-3,-2,0,-3,-5,-6,-4,0
7050,1,-2,-4,-2,-2,-1,3,1,0
7055,-6,-2,-2,-4,-5,-14,-22,-11,0
7060,1,3,4,0,-3,-9,-3,8,0
7065,0,2,4,5,5,18,55,12,0
7070,-14,-2,-2,-6,-3,-5,-8,-1,0
7075,8,1,3,7,2,-3,-14,-23,0
7080,3,5,9,4,5,7,3,21,0
7085,-2,-7,-10,-14,-11,-9,6,-2,0
7090,-6,-7,-1,1,-2,-2,2,1,0
7095,7,15,4,-2,1,-4,-6,-6,0
7100,-10,-7,1,6,5,6,-11,-8,0
7105,1,8,0,0,-2,-2,-14,-36,0
7110,13,5,3,3,2,8,26,61,0
7115,3,-2,0,2,0,1,4,10,0
7120,-14,4,-12,-6,-5,-8,-10,-21,0
7125,-32,-17,6,-3,-4,-17,-25,1,0
7130,15,-1,-2,6,9,21,5,-9,0
7135,4,-1,-2,-2,8,27,57,10,0
7140,-3,-5,-6,-1,-4,-7,-9,-10,0
7145,7,14,10,2,-1,-9,-19,18,0
7150,-7,-11,-20,-17,-11,-22,-27,-13,0
7155,-28,-5,14,1,-11,-17,-21,-8,0
7160,37,8,1,9,10,27,61,20,0
7165,-21,-3,-4,-3,-2,5,4,-17,0
7170,18,8,7,8,5,-2,7,3,0
7175,8,-2,-6,-5,-5,-14,-42,-8,0
7180,-11,-8,-2,-7,-6,-8,-1,5,0
7185,3,-7,-10,4,0,-15,2,-13,0
7190,3,7,12,3,4,8,-1,14,0
7195,-8,-9,-11,0,2,5,1,-4,0
7200,-2,1,4,-6,-8,-8,-11,-4,0
7205,12,-3,-9,-7,-5,1,-7,6,0
7210,-21,-10,-12,-13,-11,-18,-19,-39,0
7215,3,1,2,5,-3,-4,-6,25,0
7220,-5,-2,4,5,3,1,5,1,0
7225,15,6,2,2,3,8,6,13,0
7230,-4,-2,1,-5,-6,-7,-11,-12,0
7235,-17,-21,-22,-17,-15,-13,-1,-12,0
7240,36,29,16,5,10,10,8,14,0
7245,1,0,9,9,9,13,5,8,0
7250,-6,-3,1,1,-5,-14,-17,-10,0
7255,-4,-4,-3,-6,-4,-10,-16,-9,0
7260,-30,-6,-16,-13,-9,-11,-29,-34,0
7265,31,-1,2,3,2,9,34,42,0
7270,1,6,6,6,9,10,12,2,0
7275,4,-1,-5,-3,-3,-3,-1,6,0
7280,-19,-12,-6,-3,-10,-17,-33,-17,0
7285,-11,-4,-9,-9,-5,-10,-29,-33,0
7290,1,-1,-1,1,-4,0,9,7,0
7295,5,5,6,0,1,-1,3,14,0
7300,1,1,2,0,0,-1,14,-1,0
7305,1,3,2,4,7,8,-21,-7,0
7310,0,-2,-4,-4,-6,-8,18,4,0
7315,7,8,10,10,22,49,56,12,0
7320,4,-1,4,7,5,8,14,11,0
7325,-1,-3,-10,-5,-4,-7,2,3,0
7330,-12,-7,-9,-12,-11,-16,-33,-25,0
7335,0,-1,-3,-2,-7,-11,-15,-6,0
7340,3,-1,0,0,1,3,13,11,0
7345,-7,0,2,1,-2,-5,-6,-9,0
7350,-4,-2,2,4,11,3,-11,-7,0
7355,2,0,-2,-4,-7,-11,0,1,0
7360,0,-1,-3,0,-11,2,4,3,0
7365,-7,-1,-5,-5,-3,-9,-9,-7,0
7370,1,-2,0,0,0,13,11,0,0
7375,5,2,4,-2,4,3,5,6,0
7380,-4,-2,0,2,2,-6,-4,-2,0
7385,1,-1,-3,-4,-3,-4,-3,-1,0
7390,-4,-5,-2,1,-5,-4,0,-2,0
7395,-3,2,1,1,1,-3,-7,-10,0
7400,-1,-1,-7,-4,-2,-7,-11,-4,0
7405,1,0,3,2,-1,6,6,4,0
7410,-3,-4,-7,-2,1,3,6,-3,0
7415,-2,3,7,3,-2,-4,-2,-7,0
7420,7,6,12,6,7,6,1,11,0
7425,-3,-2,-7,-7,-2,3,6,1,0
7430,-1,-2,-7,-1,-7,-11,-9,-3,0
7435,-4,-3,-1,-3,-3,-3,-6,-4,0
7440,-2,-6,-3,-3,0,5,6,0,0
7445,-5,-4,-1,-3,-3,-4,-9,-11,0
7450,5,4,7,3,-2,-2,4,16,0
7455,2,-3,-3,0,4,0,-3,-5,0
7460,-1,-2,-1,-2,-4,7,4,4,0
7465,-1,0,-2,-3,-3,-1,2,2,0
7470,-1,2,2,-2,1,-3,-6,-6,0
7475,-2,2,-1,0,-5,1,-4,0,0
7480,-1,-3,-2,4,15,1,-5,-6,0
7485,0,0,-2,-1,-6,2,2,0,0
7490,-4,-4,-6,-8,-7,-10,1,-4,0
7495,0,-1,1,1,0,-1,-5,4,0
7500,2,1,4,1,3,2,1,-2,0
7505,0,0,1,-1,3,3,2,2,0
7510,-4,-9,-9,-3,-4,-5,-9,-10,0
7515,-1,-2,-6,-1,-2,-4,-7,-5,0
7520,-3,-1,-1,-4,-5,1,-3,-1,0
7525,0,4,8,9,8,3,10,4,0
7530,-1,1,-3,-8,-9,-5,-6,-2,0
7535,-4,-7,-12,-13,-6,-7,-5,-4,0
7540,-4,-4,-6,-2,-6,-6,1,-1,0
7545,-3,-3,11,0,-1,2,-2,-2,0
7550,1,-7,5,5,9,6,1,4,0
7555,8,22,14,6,0,-3,1,5,0
7560,4,3,0,0,3,-2,0,0,0
7565,-4,-4,-8,0,-4,-11,-14,-6,0
7570,-4,-6,-9,-8,-5,9,11,0,0
7575,-7,-12,-9,-8,-5,0,-3,-4,0
7580,-2,0,0,-1,0,1,-1,0,0
7585,0,-1,-1,5,2,-3,-2,1,0
7590,-3,1,2,3,4,-3,-4,-9,0
7595,-4,-2,-4,-5,-5,0,5,5,0
7600,-2,-5,-5,1,2,0,3,0,0
7605,1,1,-2,-6,-6,-13,-3,1,0
7610,2,6,7,5,5,7,-3,4,0
7615,-1,1,4,4,2,1,2,0,0
7620,-6,-5,-4,-3,-5,-6,-6,-7,0
7625,-1,2,-3,-2,1,0,2,-1,0
7630,0,-2,-4,-6,-5,0,0,-1,0
7635,-3,-4,-3,-4,-1,-2,-4,-3,0
7640,-2,-1,-1,-4,-5,-5,-5,-3,0
7645,0,0,2,7,3,4,1,1,0
7650,0,4,2,1,1,0,-1,-2,0
7655,0,-5,-3,0,-2,-1,4,3,0
7660,0,-1,-1,-5,-6,-1,0,-4,0
7665,-1,-1,-2,-4,-1,1,-2,-4,0
7670,-1,0,0,-2,-6,-3,-4,2,0
7675,-2,-2,5,2,6,-5,4,2,0
7680,6,5,-5,-4,-2,0,3,2,0
7685,-11,-15,-11,-8,-9,-5,-6,-10,0
7690,2,1,2,5,3,0,2,8,0
7695,4,9,3,4,2,0,-4,-1,0
7700,1,-2,1,-5,-2,3,4,2,0
7705,-2,-3,-2,0,-5,-4,-7,-3,0
7710,-7,-8,-3,-9,-4,-6,-10,-9,0
7715,-14,-4,-1,5,6,17,23,2,0
7720,20,1,9,1,1,3,7,7,0
7725,-4,-2,-9,-5,1,1,5,2,0
7730,-17,-11,-5,0,-4,-13,-12,-8,0
7735,11,11,-10,-10,-8,-9,-18,-7,0
7740,-9,-5,-34,-5,-2,3,11,-5,0
7745,3,14,70,19,7,11,5,11,0
7750,-1,-1,-1,-3,-4,-5,-3,-4,0
7755,-6,-5,2,3,3,-2,1,2,0
7760,-5,-3,-3,-5,-2,-4,-7,-4,0
7765,3,-4,-15,-1,3,2,0,0,0
7770,1,5,-5,4,8,6,5,3,0
7775,0,-8,-5,-11,-11,-8,-7,-4,0
7780,-7,-9,-8,-5,-6,-9,-13,-5,0
7785,-5,-4,-15,-3,-4,-8,-15,-6,0
7790,6,10,16,9,8,13,12,3,0
7795,-7,-3,-1,-1,4,7,9,1,0
7800,19,-1,9,7,1,3,-5,5,0
7805,1,4,-9,-2,-2,-2,16,0,0
7810,7,-2,-3,1,-1,-5,-10,-1,0
7815,2,4,4,9,3,-6,-13,-4,0
7820,-6,4,9,1,9,3,-8,1,0
7825,-9,-9,-11,-12,-20,-17,-17,-8,0
7830,0,-4,-8,-10,-13,-2,4,-4,0
7835,5,-2,3,3,4,10,27,6,0
7840,-11,-6,2,1,-2,-11,-28,-8,0
7845,0,0,-9,-5,3,-10,-5,-4,0
7850,2,3,2,-4,-9,-2,-5,2,0
7855,3,3,1,-1,-1,35,41,15,0
7860,-4,1,2,2,4,-3,2,0,0
7865,-2,-4,-3,-2,1,-11,-34,-8,0
7870,2,4,4,7,10,9,30,4,0
7875,1,-4,-5,-3,-2,-15,-32,-8,0
7880,-5,-2,1,4,1,10,17,1,0
7885,4,2,1,4,8,5,-1,2,0
7890,-10,-6,-10,-9,-20,-33,-45,-18,0
7895,1,-5,-4,-4,2,1,-1,0,0
7900,1,1,2,-4,-9,1,30,9,0
7905,-4,-4,-5,-9,-15,-7,-9,-4,0
7910,-1,1,0,-5,-1,-3,-9,-1,0
7915,-5,-3,-1,-1,-7,-26,-30,-13,0
7920,2,2,2,3,7,26,53,10,0
7925,4,1,3,3,9,26,37,6,0
7930,-1,-2,1,-3,-2,2,21,10,0
7935,-3,-4,-1,6,8,-2,-22,-4,0
7940,-5,-1,-3,-2,-6,-19,-42,-14,0
7945,-1,0,-4,-2,-5,-3,10,5,0
7950,-2,-2,0,-3,-2,5,-14,-5,0
7955,0,-1,1,-5,-1,-4,-13,-2,0
7960,1,0,-2,1,2,7,16,6,0
7965,1,-4,-10,-7,-9,1,15,-1,0
7970,-4,-1,2,-1,-8,-22,-30,-9,0
7975,-1,-1,5,-1,-3,-3,-3,-4,0
7980,-1,-5,-6,4,7,-2,5,-3,0
7985,7,7,11,9,13,22,32,14,0
7990,1,-2,-5,-3,5,2,-3,-1,0
7995,-4,-6,-10,-12,-21,-10,-1,-3,0
8000,-5,1,8,-13,-13,-15,-22,-7,0
8005,-5,-3,-3,-1,3,2,-15,-4,0
8010,5,4,3,7,6,6,12,1,0
8015,3,3,6,8,7,8,12,5,0
8020,-7,-7,-8,2,0,-6,-19,-9,0
8025,0,-1,-3,-7,-3,-3,-4,1,0
8030,3,2,7,5,7,8,8,4,0
8035,1,-1,-4,0,2,-1,10,-1,0
8040,0,0,1,-2,-8,-6,-8,-2,0
8045,-2,-2,-2,0,0,-6,-7,-2,0
8050,-3,-6,-11,-7,-7,-8,-2,-3,0
8055,-2,-4,-5,-9,-6,-1,10,1,0
8060,-1,2,1,3,9,10,0,-4,0
8065,-3,0,1,1,-1,-9,-7,-5,0
8070,-1,-2,0,3,-3,1,-7,-2,0
8075,1,2,0,-2,1,3,3,5,0
8080,1,1,5,5,5,5,18,2,0
8085,-3,-2,-5,7,8,-2,-13,-3,0
8090,-1,-1,-3,-5,-6,-3,4,2,0
8095,-5,-5,-5,-6,-11,-9,-19,-12,0
8100,-2,2,2,-2,-4,-6,-15,0,0
8105,3,2,2,0,2,0,-9,-2,0
8110,2,0,2,3,9,4,11,3,0
8115,10,4,1,3,8,32,75,25,0
8120,-4,-4,-8,-12,-9,-11,-18,-8,0
8125,-5,-3,0,4,0,-7,-12,-8,0
8130,-4,0,-1,0,-1,-6,-10,-5,0
8135,-2,-2,-2,-1,-4,-13,-24,-11,0
8140,0,1,2,4,7,3,0,2,0
8145,-1,-5,-8,-17,-21,-11,-2,-2,0
8150,-4,-2,1,4,-5,-7,5,-1,0
8155,7,3,5,7,18,31,14,12,0
8160,0,0,0,0,-2,-9,-2,3,0
8165,-3,-3,0,-3,-2,4,0,-4,0
8170,2,5,-1,0,-3,-5,2,0,0
8175,-8,-11,-11,-8,-7,-24,-39,-15,0
8180,-24,-2,2,-3,-9,-8,3,-10,0
8185,48,17,9,12,18,38,36,32,0
8190,-2,-4,0,-5,-2,3,1,-3,0
8195,-3,-3,-3,3,4,-4,-8,-5,0
8200,-8,-1,0,4,1,2,-12,-4,0
8205,-12,-4,-5,-7,-9,-15,-9,-7,0
8210,-3,-8,-15,0,0,-2,-3,-5,0
8215,-1,4,3,1,-5,-6,-9,-1,0
8220,6,-4,-4,-1,-2,-9,-15,-2,0
8225,-9,1,3,2,-1,2,11,-3,0
8230,2,-2,-1,-7,0,5,2,2,0
8235,-9,-5,-5,-9,-7,-12,-14,-4,0
8240,11,8,5,12,15,24,20,7,0
8245,-11,-5,-1,3,2,-7,-1,-3,0
8250,-1,-2,-3,0,-1,1,-9,-3,0
8255,-5,-2,3,-2,-11,-11,-4,-7,0
8260,6,-2,-17,-8,-2,-1,1,2,0
8265,-28,-16,-5,-15,-9,-9,-21,-11,0
8270,44,34,25,11,7,14,30,20,0
8275,-5,-8,-6,-5,-4,-3,-3,-5,0
8280,-3,2,10,4,1,4,0,-6,0
8285,-4,-7,-12,-5,-1,-5,-7,-5,0
8290,-8,-9,-8,-8,-1,-4,-9,5,0
8295,1,0,1,4,-1,-3,1,-4,0
8300,7,3,1,-1,1,3,15,17,0
8305,1,3,6,8,5,3,5,-11,0
8310,-9,-7,-2,-5,-3,-4,-7,4,0
8315,4,3,3,1,-12,-10,2,1,0
8320,-17,-13,-9,-8,-7,-11,-38,-39,0
8325,6,5,4,1,3,6,14,25,0
8330,-5,-5,-3,-5,-11,-8,3,-1,0
8335,13,5,5,2,8,5,5,25,0
8340,3,1,5,3,-1,-1,-2,0,0
8345,-1,-2,-3,2,0,-2,-12,-15,0
8350,-14,-4,-7,-3,2,1,-4,-13,0
8355,-7,-2,2,-5,0,1,-6,-8,0
8360,3,0,-3,-2,-5,-2,5,5,0
8365,2,3,1,5,9,9,4,2,0
8370,-6,-4,-1,-3,-3,-2,-6,-6,0
8375,-3,-1,-5,-10,-12,-10,-1,-4,0
8380,1,-1,-2,-1,-1,-3,0,3,0
8385,1,1,1,-3,-10,-1,-1,-1,0
8390,-2,-3,-1,1,8,4,0,-6,0
8395,-4,-2,-1,4,2,1,-8,-10,0
8400,0,0,2,-3,-7,0,3,7,0
8405,-1,-2,-5,-4,-3,-4,-5,1,0
8410,1,-3,0,-1,0,-1,-1,-4,0
8415,-2,0,1,4,11,6,-2,2,0
8420,-1,-2,-1,0,0,-2,1,3,0
8425,0,-1,-3,-6,-5,-12,-7,-2,0
8430,-7,-2,-1,3,5,11,-1,-8,0
8435,0,0,-1,1,-3,-13,-9,-4,0
8440,-1,0,0,-4,-5,2,4,-1,0
8445,1,2,7,6,8,3,4,3,0
8450,0,1,-4,-3,3,0,-1,1,0
8455,-3,-4,-2,1,-5,-7,-5,-4,0
8460,-2,-3,-5,0,1,-5,-6,1,0
8465,0,-2,-5,-5,-6,2,-1,-3,0
8470,-1,-2,1,-1,-6,-6,1,1,0
8475,4,3,-2,1,10,13,7,5,0
8480,-3,-2,0,-8,-3,-3,3,-3,0
8485,-5,-6,-5,-7,-5,-4,-6,-5,0
8490,3,8,12,7,0,0,-12,1,0
8495,-3,-2,-3,-3,-4,-1,-4,-2,0
8500,0,0,0,0,2,-3,6,2,0
8505,-2,4,9,8,7,8,1,-1,0
8510,0,-2,0,-3,-3,-5,-5,-1,0
8515,-5,-6,-15,-9,-7,-8,-11,-8,0
8520,1,-5,-5,-2,-1,4,2,0,0
8525,-15,-7,-5,-12,-14,-8,4,-6,0
8530,26,7,-1,-6,-3,1,-4,4,0
8535,11,7,1,9,7,5,9,3,0
8540,-2,2,9,6,5,-1,-3,3,0
8545,-5,-7,-10,-10,-7,-13,-12,-6,0
8550,-8,-4,2,3,3,6,-9,-3,0
8555,-3,1,1,-4,-8,-6,4,-2,0
8560,1,-1,-3,2,3,11,2,-2,0
8565,0,-2,-1,2,1,-1,0,0,0
8570,-4,4,8,2,4,4,14,1,0
8575,2,2,-1,1,4,-4,-7,0,0
8580,-11,-9,-19,-13,-17,-17,-11,-10,0
8585,8,2,4,5,4,-2,-3,-1,0
8590,2,2,2,2,4,13,3,5,0
8595,-3,-5,0,5,2,2,7,1,0
8600,-1,-4,-4,-8,-7,-6,-2,-4,0
8605,-1,-1,-4,-2,-2,2,2,-2,0
8610,-3,-4,-3,1,-4,-10,-7,-4,0
8615,-2,0,-3,-8,-17,-13,-10,-4,0
8620,-2,-2,1,-3,-4,5,2,3,0
8625,-1,-1,-1,2,3,1,3,-3,0
8630,-6,-1,2,2,3,-1,-2,-4,0
8635,-4,-2,2,5,12,11,-1,0,0
8640,7,7,2,6,13,0,-3,-1,0
8645,11,0,-4,-17,-12,-2,18,10,0
8650,-10,-7,-4,-4,-19,-16,-9,-7,0
8655,0,-1,-2,-4,-4,-6,-10,3,0
8660,-8,-7,-2,-6,-5,-6,-8,-11,0
8665,4,7,5,7,17,22,0,8,0
8670,-4,-3,0,6,5,3,11,1,0
8675,-2,1,1,1,4,5,-3,-2,0
8680,-1,-1,-1,8,9,5,6,-1,0
8685,-9,-8,-2,-1,2,-5,-8,-10,0
8690,1,-1,-1,-1,0,-15,-16,1,0
8695,-2,-3,-10,-16,-20,-3,-1,-5,0
8700,-4,-6,-11,-22,-47,-22,-10,-2,0
8705,-1,1,2,4,3,0,0,-2,0
8710,4,5,8,10,13,7,2,2,0
8715,6,4,5,8,21,13,10,5,0
8720,-3,-5,-5,-4,6,4,4,-1,0
8725,0,-1,-2,2,-6,-5,4,-1,0
8730,-8,-5,0,-2,3,1,-1,-3,0
8735,6,7,0,3,3,-1,0,0,0
8740,-24,-2,1,4,1,3,2,-2,0
8745,22,-6,-4,-3,-4,-3,-4,1,0
8750,-5,0,-4,-11,-11,-11,-24,-12,0
8755,-7,-5,-4,-6,-10,-7,13,-3,0
8760,4,5,1,3,8,7,2,7,0
8765,-12,-3,3,3,6,-5,-34,-4,0
8770,-7,-3,-3,-2,-6,8,35,3,0
8775,4,4,9,3,4,17,5,5,0
8780,4,1,3,4,9,-2,-1,-1,0
8785,-11,-6,-10,-6,6,-5,-16,-10,0
8790,5,0,-3,1,-19,-19,-25,-1,0
8795,-12,-8,-14,-19,-24,-13,1,-11,0
8800,-5,-6,2,13,11,1,6,4,0
8805,2,3,2,-9,-13,-4,5,3,0
8810,5,6,4,3,1,2,-2,-2,0
8815,-4,-2,-1,-2,6,1,2,-1,0
8820,8,-4,-18,-10,-5,-6,-8,0,0
8825,-7,3,17,10,6,6,9,-2,0
8830,-4,-4,-5,-2,3,1,2,-3,0
8835,2,2,8,4,0,-2,-1,7,0
8840,6,5,-5,-6,0,2,0,-3,0
8845,-1,4,5,1,-2,1,1,-1,0
8850,-1,-6,-7,-9,-6,-5,-5,-3,0
8855,1,-1,0,-2,-1,-8,-7,-1,0
8860,5,-1,1,0,8,19,18,6,0
8865,-4,-3,-8,-2,-7,-3,5,-2,0
8870,2,1,6,10,10,1,-3,-1,0
8875,-10,-11,-14,-19,-24,-22,-28,-19,0
8880,0,2,4,8,3,2,16,5,0
8885,4,3,3,-3,-1,7,4,6,0
8890,12,0,1,-2,5,4,2,1,0
8895,2,1,4,14,19,5,-3,-1,0
8900,0,-5,-7,-17,-17,-14,-6,-6,0
8905,-11,-4,-6,-3,-18,-13,-10,-4,0
8910,-5,-2,0,-5,-3,-4,-5,-1,0
8915,1,0,-2,3,3,-4,9,0,0
8920,7,7,12,9,10,21,2,16,0
8925,1,-2,-5,0,7,2,7,6,0
8930,3,2,-1,-2,-3,-7,-3,-5,0
8935,1,-1,-3,-7,-6,-5,-9,5,0
8940,-5,-4,-1,1,-4,3,5,-7,0
8945,-2,-2,-2,-1,0,-3,12,2,0
8950,-6,-5,-6,1,-2,-9,-13,-1,0
8955,3,3,-1,0,0,9,12,12,0
8960,-2,-1,-1,-7,-3,-7,-5,-8,0
8965,1,0,3,5,6,9,2,-2,0
8970,-11,-5,-8,-10,-9,-2,1,-13,0
8975,-3,0,2,4,3,-4,-10,-2,0
8980,8,4,6,0,-3,-5,2,14,0
8985,3,0,-5,-1,-9,-10,-7,-1,0
8990,-1,-1,0,0,4,3,2,2,0
8995,-4,-3,-4,2,2,7,0,-14,0
9000,-2,-2,-1,4,4,-8,0,7,0
9005,-2,-1,-7,-6,5,13,-1,-2,0
9010,1,1,6,2,-2,3,8,7,0
9015,1,0,-5,2,0,0,-2,-2,0
9020,-11,-14,-21,-7,-18,-19,-19,-18,0
9025,2,8,17,3,8,8,11,1,0
9030,-1,2,5,2,7,3,-3,1,0
9035,2,0,3,-2,2,4,4,3,0
9040,1,5,-1,-3,-1,-8,-11,-5,0
9045,-6,-9,-10,-1,4,-1,-8,-7,0
9050,0,1,3,8,5,9,8,1,0
9055,0,-3,-4,3,-1,-14,4,10,0
9060,-3,-5,-4,-13,-13,12,1,-7,0
9065,5,2,1,-3,-6,-2,2,10,0
9070,-5,-3,-5,-10,-6,-16,-10,-7,0
9075,1,-4,-5,-3,1,13,-5,-6,0
9080,-1,4,12,5,1,2,15,6,0
9085,4,1,-3,11,6,1,-3,-4,0
9090,0,-12,-41,-15,-16,0,2,0,0
9095,-1,14,51,16,8,-1,-5,-2,0
9100,-1,1,0,-6,8,-5,-8,-1,0
9105,-7,-5,-15,-13,-20,-10,2,-5,0
9110,2,5,14,-2,2,2,-3,2,0
9115,-3,-3,-14,-9,-19,-12,-3,-4,0
9120,-4,-1,2,5,9,7,-5,-9,0
9125,-4,-4,-7,1,6,0,-3,-2,0
9130,0,-1,-7,-3,7,8,4,4,0
9135,1,-1,-2,-6,-4,3,10,5,0
9140,1,3,9,13,17,5,-8,-2,0
9145,-2,-3,-13,-13,-15,-23,-13,-7,0
9150,0,1,6,10,-3,12,11,5,0
9155,0,2,-1,-2,8,2,-9,-5,0
9160,4,2,-1,6,-2,1,14,9,0
9165,2,-2,4,2,2,-10,-4,1,0
9170,-7,-2,2,-3,-4,-7,-1,-6,0
9175,-7,-8,-18,-12,-9,0,-9,-4,0
9180,6,-1,-7,-9,-15,-11,-9,-7,0
9185,0,5,8,5,13,12,6,5,0
9190,4,2,5,4,0,-8,0,7,0
9195,-8,-10,-16,-7,-7,-7,-7,-7,0
9200,-4,2,7,0,-4,-5,-3,-4,0
9205,0,2,5,6,14,10,0,1,0
9210,-2,-2,-2,-7,-15,-13,-3,-3,0
9215,6,-4,-5,-1,-5,8,10,4,0
9220,-2,-5,-4,1,4,2,-2,0,0
9225,-2,-6,-13,-8,-4,-4,-2,-1,0
9230,-5,0,8,6,1,0,-7,-6,0
9235,1,1,-5,-1,2,-4,-5,0,0
9240,3,5,2,5,-3,-3,-4,3,0
9245,-1,2,16,7,2,8,6,0,0
9250,-4,-10,-12,-12,-2,-3,-10,-3,0
9255,6,11,5,5,3,-2,-4,-2,0
9260,1,6,9,8,10,11,30,7,0
9265,-1,-4,-14,-13,-15,-4,-5,-3,0
9270,-2,-3,-1,-6,-6,-6,-5,-5,0
9275,-4,-2,4,3,6,2,2,-1,0
9280,-2,-4,-12,-14,-4,-9,-2,4,0
9285,1,-1,5,8,6,8,-3,0,0
9290,2,1,2,0,-5,-3,-2,-2,0
9295,-5,-9,-14,-14,-14,-11,-11,-9,0
9300,-2,0,5,6,4,5,2,-2,0
9305,-1,-1,2,0,4,4,-2,2,0
9310,0,1,-2,-4,-5,-15,-7,-1,0
9315,-1,-2,-1,0,-2,5,-15,0,0
9320,-6,-8,-8,-12,-9,-1,3,-5,0
9325,-5,-6,-6,-5,-10,-10,-6,-1,0
9330,4,12,15,14,17,9,2,4,0
9335,8,7,7,8,12,8,29,8,0
9340,-3,-9,-13,-12,-15,-14,-23,-7,0
9345,-5,-6,-9,-7,-7,-6,-5,-9,0
9350,-3,0,0,-1,1,-2,1,-2,0
9355,-3,-3,0,0,3,-3,-12,-1,0
9360,-1,-2,-1,6,9,3,-6,-2,0
9365,0,1,4,4,0,-11,9,1,0
9370,2,-3,-6,-2,3,14,5,3,0
9375,-2,-2,-1,-2,-14,-17,-13,-3,0
9380,-1,0,-1,3,9,25,16,4,0
9385,-1,0,-1,-10,-15,-14,1,-1,0
9390,-2,-4,-8,-8,-5,-4,-2,-3,0
9395,-1,-3,-1,1,6,-1,-2,0,0
9400,-5,-1,1,0,-3,-13,-22,-7,0
9405,0,2,0,-1,-2,0,2,0,0
9410,0,3,6,9,12,9,4,2,0
9415,1,0,-1,-1,3,-1,6,0,0
9420,-1,-5,-5,-7,-20,-12,-10,-3,0
9425,-2,2,1,3,3,7,4,-1,0
9430,1,-2,-7,-3,0,1,1,2,0
9435,-3,-1,5,3,3,6,3,-1,0
9440,4,8,11,2,9,6,6,3,0
9445,-3,-4,-5,0,-5,-5,-7,-4,0
9450,-3,-3,-5,7,1,-3,-3,-4,0
9455,2,3,3,5,15,10,10,4,0
9460,-3,-7,-9,-9,-13,-18,-8,-3,0
9465,-3,0,-1,-4,-8,-18,-15,-4,0
9470,0,-1,1,1,2,-9,-4,-4,0
9475,2,3,2,0,8,4,0,0,0
9480,-1,-2,0,4,10,-1,-19,-3,0
9485,-3,-3,-6,-5,-13,-11,7,-2,0
9490,-2,-4,-6,-2,5,-1,-2,2,0
9495,0,3,14,4,1,3,6,-1,0
9500,2,3,5,-2,-2,-2,0,1,0
9505,-5,-8,-11,-11,-6,-9,-5,-5,0
9510,-5,-2,-4,0,-5,-2,-3,-7,0
9515,1,0,2,2,6,9,9,3,0
9520,-1,1,0,3,1,-2,1,2,0
9525,-1,2,1,-6,-8,-10,-7,-3,0
9530,-5,-5,-4,0,6,13,9,-3,0
9535,0,-3,-7,-10,-6,-4,-7,-3,0
9540,3,1,3,4,2,-3,0,3,0
9545,-2,1,-1,5,5,3,3,0,0
9550,0,1,4,1,-1,-2,-2,0,0
9555,-2,-2,-5,-2,-2,-2,-3,-6,0
9560,-7,-5,-3,-3,-4,-4,-2,0,0
9565,9,4,1,-2,1,5,-10,3,0
9570,-2,-1,-4,-4,-5,-6,-1,-4,0
9575,-2,-3,-2,1,-1,-1,-1,-2,0
9580,0,0,2,3,-4,-5,3,-2,0
9585,-3,-5,-1,-5,-3,-3,-22,-5,0
9590,1,1,5,0,5,13,25,8,0
9595,0,-1,-4,0,1,-1,0,0,0
9600,-6,-6,-7,0,-4,-7,-6,-5,0
9605,-2,-2,-2,-2,-2,-1,6,-1,0
9610,-7,-8,-10,0,-1,-7,-25,-8,0
9615,9,13,13,3,3,6,13,4,0
9620,0,1,2,-1,1,2,5,1,0
9625,-5,-2,-2,-3,-1,0,1,1,0
9630,0,1,1,1,4,-4,-3,0,0
9635,-3,-3,-6,-2,8,13,-3,-2,0
9640,-4,-7,-12,-12,-31,-18,-11,-8,0
9645,0,-3,-1,-1,-2,0,1,-1,0
9650,2,3,4,0,2,0,-1,2,0
9655,-2,0,-1,-1,1,-1,1,2,0
9660,-1,2,3,3,6,-5,-6,-4,0
9665,-4,-1,-4,-6,-2,4,-17,-1,0
9670,2,2,0,2,-2,2,35,5,0
9675,-10,-7,-3,-1,2,5,-4,-3,0
9680,7,6,3,7,11,8,5,8,0
9685,-2,-2,0,-1,0,-1,9,-3,0
9690,-1,2,2,-2,-2,-9,-21,-2,0
9695,-1,-5,-8,-2,-5,-7,-1,-1,0
9700,-9,-6,-7,-11,-8,-7,-10,-7,0
9705,-1,0,0,2,-2,0,2,0,0
9710,0,-3,2,4,8,3,-3,-1,0
9715,0,2,0,-3,-4,-4,-1,0,0
9720,1,-2,-1,-1,-4,7,0,2,0
9725,2,-2,-3,-1,-2,-8,3,-2,0
9730,-4,-5,-5,-11,-17,-8,-5,-6,0
9735,-3,-3,-1,1,-2,-6,-8,-2,0
9740,7,3,4,6,10,6,5,1,0
9745,3,2,0,-2,2,6,7,4,0
9750,-2,-3,-3,3,13,3,-3,0,0
9755,0,0,1,-3,-15,-6,-1,-4,0
9760,2,-2,0,-2,2,2,3,7,0
9765,-4,-4,-7,-1,0,-3,3,-1,0
9770,2,5,12,7,2,0,-3,2,0
9775,2,-1,0,1,1,1,4,-2,0
9780,-5,-1,0,0,1,-4,-4,-7,0
9785,-12,-3,1,-1,0,2,-1,-2,0
9790,-1,-8,-16,-14,-14,-9,-16,-15,0
9795,-2,-4,-3,1,1,1,7,-1,0
9800,15,-3,5,5,1,1,8,16,0
9805,4,0,0,4,1,-3,2,9,0
9810,-5,2,1,-1,-4,0,-8,-5,0
9815,-12,-8,-6,-8,3,0,0,-3,0
9820,-8,-1,-8,-10,-10,-9,-11,-13,0
9825,-2,1,3,-3,-8,-8,-5,-8,0
9830,0,-2,1,1,-2,-1,-13,6,0
9835,7,7,4,6,6,10,12,4,0
9840,-1,2,0,2,7,9,11,3,0
9845,-13,-5,-7,-8,-3,-2,-6,-7,0
9850,20,3,6,8,3,-2,4,2,0
9855,-3,-2,-3,-6,-3,-7,-13,0,0
9860,8,14,2,-2,-3,-3,-9,-5,0
9865,-5,-7,-1,0,-1,3,13,-5,0
9870,15,11,3,1,1,5,7,6,0
9875,-5,-3,-2,2,0,-2,-3,3,0
9880,-5,-8,-6,-8,-9,-10,-3,-7,0
9885,-1,-1,-2,-3,-1,1,-7,-5,0
9890,-8,-2,-2,0,3,4,13,2,0
9895,3,-1,-3,-5,-2,-1,0,0,0
9900,-5,-1,2,0,-6,-7,-8,-2,0
9905,6,-4,-2,-3,-4,-4,1,-1,0
9910,-8,-4,0,-3,0,2,0,-1,0
9915,-3,-4,-6,-5,-5,-11,-21,-14,0
9920,-7,-6,-3,-2,2,3,-4,-7,0
9925,-9,4,11,14,17,28,45,34,0
9930,33,15,-1,-2,2,-2,-2,5,0
9935,-1,-8,-5,-7,-6,-6,1,-2,0
9940,-10,-5,-1,-3,-8,-22,-35,-10,0
9945,2,2,0,-1,5,8,-1,-5,0
9950,-19,-3,2,8,1,2,1,-3,0
9955,0,3,1,1,7,8,0,-1,0
9960,3,-2,-4,-8,-5,-2,-7,-3,0
9965,2,-2,-3,-7,-14,-19,-27,-11,0
9970,-9,-9,-6,-1,-4,-8,-1,-3,0
9975,3,1,-3,0,-3,0,0,-3,0
9980,-2,-1,3,8,13,5,10,3,0
9985,0,0,-5,-5,-2,0,-2,-6,0
9990,-4,-2,-1,-4,-3,0,7,1,0
9995,2,3,5,6,9,11,10,4,0
10000,-4,-2,-3,3,1,1,8,1,0
10005,2,-4,-3,5,-3,-7,-2,-6,0
10010,-7,-5,-11,-5,-4,-3,-19,-6,0
10015,-3,2,7,-2,-4,-7,-6,-2,0
10020,2,2,3,2,2,6,8,5,0
10025,6,1,-1,-6,-5,-6,-11,-1,0
10030,-10,-7,-6,-7,-2,0,-3,-3,0
10035,0,0,-1,1,-2,0,4,0,0
10040,2,2,0,4,8,9,5,4,0
10045,-2,-1,-2,-4,0,-5,-8,-11,0
10050,-1,0,4,1,-4,-2,6,10,0
10055,-1,0,0,2,3,-5,-5,4,0
10060,0,-2,-4,-5,-8,-1,15,3,0
10065,-2,-2,-2,-2,-4,-10,-29,-8,0
10070,-1,-1,-1,-6,-1,15,33,-2,0
10075,3,3,4,6,9,18,10,7,0
10080,-2,-3,0,-1,0,-3,-9,-1,0
10085,0,0,2,6,3,0,3,-1,0
10090,-5,-6,-3,-4,-6,-15,-14,-10,0
10095,-3,-3,-3,1,-5,-4,1,-4,0
10100,0,0,0,-5,-1,4,3,-1,0
10105,1,-1,-5,-2,-6,-8,-2,-2,0
10110,-4,-4,0,0,-2,1,7,-9,0
10115,-2,-2,0,2,3,-6,-18,1,0
10120,-2,-3,-5,-7,-6,-7,-4,-1,0
10125,7,9,5,1,5,19,33,8,0
10130,0,1,2,5,4,-4,-9,3,0
10135,-7,-2,-12,-6,-5,-7,-6,-2,0
10140,10,4,8,4,3,-1,0,-5,0
10145,-5,-2,3,-2,-1,4,-3,-1,0
10150,-3,-2,-1,-2,-1,-1,-1,-3,0
10155,-4,-1,-2,-2,-5,-6,-2,-3,0
10160,-4,-1,-5,-2,0,7,-4,0,0
10165,-2,-4,-11,-6,-4,-7,-1,-8,0
10170,3,0,-1,-1,-1,-7,-12,4,0
10175,-5,-5,-2,-6,-8,-6,-8,-4,0
10180,-2,-1,0,1,8,18,19,1,0
10185,3,2,3,0,1,-4,-1,3,0
10190,-1,-2,-3,-2,3,-1,-12,3,0
10195,0,-3,-2,-6,-9,-10,-4,-3,0
10200,-7,-8,-7,-6,-4,3,6,-7,0
10205,1,3,4,-1,2,6,20,6,0
10210,-16,2,10,7,2,-3,-9,-6,0
10215,21,0,-3,-5,-2,-1,0,-2,0
10220,-6,-6,-6,-5,-7,-9,-11,-1,0
10225,-8,-8,-9,-5,-4,-8,-11,-6,0
10230,-2,-3,-3,-3,-1,1,2,-1,0
10235,-8,-1,4,1,2,4,6,2,0
10240,6,3,1,1,-1,-4,-3,-5,0
10245,2,-4,-2,0,1,-3,-6,5,0
10250,-9,0,-2,-2,-2,1,2,-5,0
10255,-2,1,2,3,3,3,3,0,0
10260,-1,-1,-5,-2,-3,-5,1,0,0
10265,-3,-2,-3,-3,-5,-6,-11,-6,0
10270,9,1,-3,-1,0,6,5,2,0
10275,-3,-3,-7,-16,-9,-4,-10,-4,0
10280,-3,0,1,2,1,-4,0,-2,0
10285,0,2,3,10,2,-2,-3,1,0
10290,-24,-12,-5,-7,-7,-3,0,-3,0
10295,56,26,9,12,11,7,4,8,0
10300,-8,-2,1,0,3,-2,-6,-4,0
10305,0,0,0,-1,0,3,5,5,0
10310,3,-3,-4,-9,-3,-6,-6,1,0
10315,-21,-9,-3,-4,-7,-4,2,-3,0
10320,-2,-1,-3,-1,-6,-10,-14,-4,0
10325,5,4,0,-2,-1,2,-1,0,0
10330,5,1,-1,2,4,11,12,-4,0
10335,-4,2,5,6,8,11,16,16,0
10340,2,1,-3,-5,-3,-7,-8,-6,0
10345,-13,-8,-9,-9,-7,-11,-24,-15,0
10350,5,0,2,1,-5,-2,1,-2,0
10355,-5,0,-2,0,4,3,-4,4,0
10360,12,5,1,8,6,8,20,13,0
10365,-5,-4,-2,-3,-6,-11,-11,-9,0
10370,6,0,0,-1,-3,-6,-10,-1,0
10375,-9,-5,-1,2,-2,0,8,-9,0
10380,-6,-2,2,3,-1,-12,-25,-2,0
10385,7,4,2,2,11,31,43,8,0
10390,4,1,0,3,-1,3,14,0,0
10395,-8,-6,-4,-6,-7,-8,-8,-10,0
10400,-3,-1,1,-3,-2,0,-3,-5,0
10405,3,3,2,0,-2,-7,-11,2,0
10410,0,-3,-9,-7,-4,-10,-11,-3,0
10415,-10,-7,-7,-4,-5,4,3,-3,0
10420,1,1,0,-3,2,9,3,-5,0
10425,4,3,7,10,7,3,9,6,0
10430,5,1,1,-7,0,3,4,7,0
10435,-2,-4,-5,-3,-7,-13,-15,-8,0
10440,-5,-7,-8,-5,-9,-5,9,1,0
10445,-1,4,7,4,5,12,5,0,0
10450,4,3,4,1,4,0,0,9,0
10455,-6,-7,-4,0,3,-3,-10,-13,0
10460,-10,-6,0,-2,-2,-6,-6,-17,0
10465,8,6,1,1,3,7,14,30,0
10470,2,4,-3,-1,-4,-9,-16,-2,0
10475,0,4,4,2,4,9,17,8,0
10480,0,-2,-4,-6,-2,2,-4,3,0
10485,-7,-8,-10,-13,-10,-17,-14,-14,0
10490,-3,-2,4,-3,-3,4,6,-4,0
10495,0,2,2,6,6,0,-4,11,0
10500,-1,-3,-6,-2,-6,-5,4,-9,0
10505,-3,-2,1,-1,-2,1,2,-5,0
10510,-3,-4,-4,-5,2,5,-4,1,0
10515,-3,-2,-3,-1,-2,5,9,-7,0
10520,4,-1,-1,-2,1,1,1,7,0
10525,-9,-6,-5,0,-4,-14,-23,-12,0
10530,1,-1,0,-4,-3,-2,-3,-15,0
10535,1,-1,3,0,-4,-8,5,19,0
10540,-6,-1,-2,-6,-5,0,-16,-13,0
10545,7,5,3,2,4,11,18,22,0
10550,-2,0,2,5,2,-2,-2,-3,0
10555,1,-2,-3,3,5,-1,-10,-2,0
10560,3,1,0,0,-3,-1,8,5,0
10565,-6,-5,-5,-1,-1,-6,-13,-13,0
10570,-3,-1,-1,1,-3,-2,2,0,0
10575,2,3,-4,-7,-4,-3,-11,-15,0
10580,0,0,-3,3,1,1,10,23,0
10585,-2,2,5,-5,-6,-3,-4,-9,0
10590,2,-2,0,1,1,-1,0,2,0
10595,-3,-2,-2,-2,-2,-2,-2,2,0
10600,-3,-2,-1,-1,2,0,-1,-4,0
10605,1,-3,-2,0,2,0,-4,-2,0
10610,-4,-3,-6,1,-5,-5,1,3,0
10615,0,-1,1,-3,1,-1,5,-6,0
10620,-1,1,3,4,5,9,-1,-6,0
10625,-3,-5,-3,-3,-3,-1,-3,6,0
10630,0,0,-4,0,2,-2,0,-5,0
10635,-3,-3,-2,-3,-2,-5,-10,-10,0
10640,3,-1,1,-1,-3,-5,1,3,0
10645,-1,0,-2,2,0,3,4,-4,0
10650,0,1,-3,1,2,-2,-1,0,0
10655,-1,-1,3,0,2,3,1,1,0
10660,-2,-3,-4,-1,-1,-2,-3,3,0
10665,-1,2,11,-3,-1,-5,-6,-7,0
10670,0,-1,-5,-1,-2,5,6,-1,0
10675,1,-2,-3,-1,1,0,-1,4,0
10680,-3,0,2,1,2,1,-3,-3,0
10685,4,3,-4,0,1,-4,3,0,0
10690,-5,-1,0,-3,-3,-2,-9,-5,0
10695,-1,1,2,1,-3,-3,2,7,0
10700,-5,-4,-1,-1,1,1,-2,-18,0
10705,1,-1,-2,0,-2,-3,-2,-3,0
10710,-4,-3,1,-1,-1,-1,-3,-1,0
10715,-2,-2,-3,-1,0,3,-2,-3,0
10720,2,-1,2,0,-1,-2,2,6,0
10725,-5,-4,-5,-3,-3,-1,-2,-2,0
10730,2,3,1,0,0,-1,-2,-2,0
10735,-4,-3,-1,-3,-3,-1,-1,-5,0
10740,-3,0,0,-1,0,0,-3,0,0
10745,-2,-4,-3,-2,-2,-1,0,-2,0
10750,2,0,-4,0,-2,3,0,4,0
10755,-1,0,-1,0,-1,-2,-3,-2,0
10760,1,1,-3,-2,-1,-2,1,2,0
10765,-3,-5,-7,-1,3,5,-1,-2,0
10770,-5,0,0,-5,-10,-13,-5,-3,0
10775,-1,-2,1,3,0,-4,1,1,0
10780,0,0,1,-2,-6,-1,0,-2,0
10785,-2,-2,-4,-4,-2,-3,-5,-2,0
10790,-4,-5,-1,1,3,1,-1,0,0
10795,-4,-5,-8,-7,-4,-2,-4,-6,0
10800,2,2,2,4,0,-2,-2,3,0
10805,0,0,2,0,-2,1,2,2,0
10810,0,0,-2,-2,2,-2,-3,-3,0
10815,-1,0,1,0,-2,0,5,0,0
10820,1,-1,-1,-2,2,0,1,3,0
10825,-2,-2,-6,-7,-6,-6,-5,-6,0
10830,1,3,7,3,3,-1,2,2,0
10835,3,4,9,1,1,8,2,2,0
10840,0,0,1,-3,-3,1,4,0,0
10845,-2,-1,-3,2,1,-1,-2,-1,0
10850,-3,-5,-6,-6,-2,-4,-2,-1,0
10855,-2,-2,-4,-6,-3,-6,-4,-5,0
10860,-1,-2,-1,4,0,0,-1,-1,0
10865,1,1,4,3,4,4,0,4,0
10870,1,0,5,7,5,2,3,-1,0
10875,1,-1,-3,-2,-4,0,1,-2,0
10880,-4,-4,-3,0,-3,-4,-9,-5,0
10885,-2,-3,-3,-6,-6,-7,-2,-3,0
10890,0,-1,0,2,2,6,-1,0,0
10895,1,0,2,-1,2,-5,1,-1,0
10900,-3,-2,-4,-6,-3,2,0,-2,0
10905,0,0,-2,0,-1,3,-4,0,0
10910,-2,1,-1,-3,1,0,-6,-19,0
10915,-3,-4,-2,-5,-16,-19,1,-2,0
10920,6,5,1,4,10,18,19,8,0
10925,1,1,0,2,-5,-1,0,0,0
10930,1,-1,-1,-1,-2,-4,-6,1,0
10935,-3,-2,-2,-1,-2,-1,-13,-4,0
10940,-3,-2,-2,-5,-2,-4,-2,-5,0
10945,-1,-1,0,0,1,1,1,-1,0
10950,2,0,0,3,0,-1,0,5,0
10955,-3,-5,-10,-7,-6,-4,-6,-6,0
10960,-2,-3,1,-1,-5,-9,-7,0,0
10965,2,2,-4,-1,3,2,1,-2,0
10970,2,0,1,4,2,6,2,6,0
10975,2,-2,-5,1,3,5,1,-2,0
10980,-6,-4,-5,-6,-7,-6,-7,-6,0
10985,-3,-1,-1,-1,-1,-4,-2,0,0
10990,0,1,5,1,1,2,3,1,0
10995,3,5,3,6,4,-4,3,4,0
11000,0,-2,-5,-1,6,10,0,0,0
11005,-3,-2,0,-4,-6,-7,-5,-7,0
11010,2,0,-1,-4,-6,-3,2,14,0
11015,-3,-1,5,0,3,4,4,-17,0
11020,0,-2,-2,-1,-1,-7,-4,0,0
11025,-2,-2,-2,-2,-1,-2,-2,-2,0
11030,-5,-5,-3,-3,-5,-8,-2,-4,0
11035,3,-1,2,2,2,5,-3,8,0
11040,1,1,2,2,0,-6,-1,2,0
11045,1,-2,-6,-9,-3,4,1,-4,0
11050,-2,-6,-6,-4,-4,-7,-2,0,0
11055,-2,1,0,-1,1,-3,1,2,0
11060,-2,-1,1,4,3,5,0,-6,0
11065,1,0,2,3,2,-3,6,12,0
11070,-6,-3,-4,-5,0,0,-8,-23,0
11075,-1,-1,-1,-1,-4,-3,2,9,0
11080,0,-2,-1,0,1,1,2,-9,0
11085,-4,0,1,2,0,-7,-19,-8,0
11090,3,4,1,-1,1,1,8,10,0
11095,-2,-4,-7,-3,0,1,-2,0,0
11100,-1,0,0,-2,-6,-7,-1,0,0
11105,-1,-2,-4,0,-1,-1,1,-2,0
11110,-3,-5,-2,-4,-3,-4,-6,-4,0
11115,-3,-3,-2,0,-1,-2,-8,-5,0
11120,5,2,5,2,1,0,5,11,0
11125,1,-1,-6,0,3,5,5,2,0
11130,-4,-4,-2,-3,-7,-5,-8,-4,0
11135,0,-1,0,-1,-8,-8,1,1,0
11140,-3,-2,-1,-2,0,0,-5,-1,0
11145,-2,3,7,5,-3,-4,4,3,0
11150,-1,-1,-2,1,9,10,-3,-8,0
11155,0,0,-3,-4,0,-4,-3,22,0
11160,2,-2,0,-2,-10,-6,7,5,0
11165,-2,-1,3,1,7,9,-4,-4,0
11170,5,3,-1,2,0,-1,7,2,0
11175,-7,-3,-9,-10,-6,4,-7,-8,0
11180,-3,-2,-6,-9,-12,-14,-12,-3,0
11185,-2,-2,-1,0,-3,1,3,-4,0
11190,-2,-2,2,2,1,0,2,4,0
11195,3,4,6,11,14,8,4,0,0
11200,-1,-1,-4,-2,1,1,-2,-3,0
11205,-4,-4,-5,-3,-9,-9,-7,-13,0
11210,1,2,3,2,-2,-1,1,2,0
11215,0,-3,-1,-3,-5,-4,0,-5,0
11220,-4,0,2,0,3,0,-4,-9,0
11225,1,0,2,-2,-1,7,-2,13,0
11230,2,0,3,7,7,5,3,3,0
11235,-2,-5,-6,-2,-1,0,-6,-11,0
11240,-4,-5,-9,-5,-5,-5,-3,2,0
11245,-2,-4,-4,-6,-8,-9,-8,-5,0
11250,-6,-2,-4,-6,-5,-5,-3,-24,0
11255,1,3,6,6,3,1,3,0,0
11260,1,2,7,7,11,5,0,-1,0
11265,-1,0,-2,-3,-2,-5,1,-3,0
11270,-5,-6,-6,1,-6,-6,-11,-5,0
11275,-1,-2,-4,-6,-6,0,6,7,0
11280,0,0,1,1,0,3,-5,-2,0
11285,-1,0,-1,-1,0,-7,3,17,0
11290,2,0,2,-2,1,2,7,-6,0
11295,0,0,1,2,0,6,-2,-8,0
11300,-1,0,-1,-1,-2,-3,4,3,0
11305,0,0,0,0,1,2,-1,-4,0
11310,-2,0,0,2,3,-5,-4,5,0
11315,-4,-3,-4,-1,0,-2,-4,-3,0
11320,-1,-2,-2,-6,-7,0,-1,-2,0
11325,-1,-2,4,0,-1,-6,-4,-4,0
11330,1,-1,-1,-3,-6,-2,-1,5,0
11335,1,-1,-1,-2,-2,1,5,-2,0
11340,-2,-3,0,4,5,2,2,1,0
11345,-3,-2,-2,-5,-2,1,-1,-18,0
11350,-2,0,-1,-3,-4,-2,-6,2,0
11355,-1,-1,2,-2,1,0,-2,0,0
11360,-1,0,1,-2,0,0,-4,-4,0
11365,-1,1,1,6,-1,-4,2,1,0
11370,2,-1,-1,-4,-1,7,0,4,0
11375,-4,-1,1,0,-4,-7,-6,-5,0
11380,-2,0,-3,0,0,-3,-1,0,0
11385,5,2,3,2,5,7,8,10,0
11390,-4,-2,-2,-2,-3,0,-4,1,0
11395,-3,-4,-6,-5,0,0,2,1,0
11400,-3,-4,-4,-3,-11,-10,-9,-6,0
11405,-1,-1,-4,-3,-3,-5,-5,-2,0
11410,0,-1,2,2,3,1,3,-2,0
11415,0,0,3,4,4,4,0,0,0
11420,0,-1,0,0,-1,-1,2,4,0
11425,-9,-8,-7,-6,-7,-3,-9,-42,0
11430,0,-1,-2,-1,2,-1,1,1,0
11435,0,1,2,2,-1,-14,-1,-4,0
11440,2,-2,0,-2,0,12,3,2,0
11445,-4,-4,-4,1,1,2,-2,2,0
11450,-4,-4,-4,-6,-6,-8,-8,0,0
11455,-1,-2,-2,0,-1,0,-10,-8,0
11460,0,2,1,2,0,-7,24,2,0
11465,10,9,7,8,14,38,56,26,0
11470,0,-1,0,1,-2,-7,-19,-6,0
11475,-3,-1,0,1,-2,-5,-2,6,0
11480,-1,0,-2,-6,-2,-4,-28,-4,0
11485,-3,-6,0,-4,-2,-3,-4,2,0
11490,5,1,-3,-3,-2,-3,11,35,0
11495,-3,-3,0,1,-4,-2,1,-8,0
11500,-3,-7,-9,1,-1,-9,-7,1,0
11505,-1,7,11,-2,-2,-9,-14,-7,0
11510,3,4,2,3,8,14,9,7,0
11515,-1,-4,-8,-10,-7,-7,-4,-2,0
11520,0,-2,-5,-3,-5,-2,6,2,0
11525,-1,-1,-5,-3,-1,0,-1,9,0
11530,2,-3,-1,-6,-9,-4,-5,-10,0
11535,-1,1,6,5,7,7,-4,1,0
11540,-1,0,-2,-1,0,-3,-13,-10,0
11545,-3,-1,-1,1,-2,-16,-34,-3,0
11550,-2,2,2,3,2,10,38,-1,0
11555,0,-2,-2,-2,2,10,-3,-2,0
11560,-3,0,0,0,7,3,1,10,0
11565,-2,-2,-1,3,-5,-17,-19,-18,0
11570,-7,-3,-4,0,-1,-3,-14,-10,0
11575,3,-2,-4,-2,-3,-6,3,16,0
11580,7,6,12,4,2,15,7,13,0
11585,0,-5,-5,-7,-5,-12,-2,2,0
11590,-6,0,0,0,-2,2,3,-8,0
11595,-4,-3,-5,-7,-6,-9,-6,-10,0
11600,-1,-2,2,4,5,7,-10,-6,0
11605,2,1,2,3,4,13,13,4,0
11610,0,-3,-2,-1,-5,-9,1,0,0
11615,-1,-3,-5,-2,0,0,-3,12,0
11620,1,6,7,-1,-2,-2,1,-8,0
11625,-7,-3,-9,-11,-14,-9,5,-11,0
11630,-3,-7,-8,-7,-8,-4,-3,-3,0
11635,-3,1,7,8,11,4,8,6,0
11640,-5,-4,-3,-1,-5,-3,-6,-20,0
11645,-2,0,-3,-6,-14,-29,-55,-9,0
11650,2,1,5,-1,-3,5,18,-12,0
11655,0,-5,-4,-1,-1,4,24,-24,0
11660,8,7,4,5,16,32,47,19,0
11665,-7,-4,-6,1,5,5,1,-1,0
11670,-8,-13,3,-5,-7,-39,-82,-20,0
11675,6,7,5,4,4,26,42,13,0
11680,-10,-11,-17,-8,-11,-22,-9,-5,0
11685,7,6,23,6,3,3,11,-1,0
11690,-3,-2,-7,-4,-3,-11,7,2,0
11695,-2,-5,-5,-6,0,0,-65,-7,0
11700,7,7,-1,-3,-5,12,59,14,0
11705,-1,-3,-7,-1,4,12,17,14,0
11710,-6,-2,-6,-4,-2,-8,-12,-3,0
11715,1,8,12,5,-5,-15,-27,-8,0
11720,0,-3,-1,3,1,-1,-6,11,0
11725,0,-3,-2,-1,1,-5,-11,2,0
11730,6,2,-2,1,4,18,27,16,0
11735,-6,-7,-11,-13,-13,-6,-7,-9,0
11740,-4,-2,2,-2,-1,-37,-94,-16,0
11745,-7,-5,-8,-8,-13,-25,-22,-11,0
11750,20,8,11,15,36,92,90,40,0
11755,4,4,6,4,-1,0,46,14,0
11760,-17,-12,-12,-15,-13,-25,-57,-27,0
11765,-7,-4,-12,-2,1,4,13,-6,0
11770,-10,-11,-4,-6,-13,-28,-42,-17,0
11775,5,15,8,5,-3,-14,-32,-3,0
11780,7,6,-2,3,14,39,78,28,0
11785,0,-14,-11,-5,-6,-17,-24,-2,0
11790,-2,4,32,13,-5,-9,-4,-4,0
11795,21,22,15,3,8,16,15,7,0
11800,4,1,15,8,-2,-12,-17,3,0
11805,-1,-3,-19,-6,4,25,43,15,0
11810,-1,-4,-22,-8,-12,-25,-2,7,0
11815,-9,-8,-6,3,19,23,-33,27,0
11820,-5,-11,-14,-10,-16,-27,-27,-21,0
11825,6,1,-1,-1,0,-1,-4,-5,0
11830,16,11,11,15,22,55,87,25,0
11835,-6,-5,-5,-4,-7,-24,-50,-10,0
11840,-4,-2,-5,-6,-7,-5,-12,-5,0
11845,-4,-3,8,3,0,-9,4,-18,0
11850,-4,0,-4,-7,-12,-32,-44,-10,0
11855,0,-11,-23,3,5,26,39,2,0
11860,6,18,29,8,1,2,9,-2,0
11865,4,-4,-2,0,-2,1,-19,4,0
11870,2,10,14,3,4,-7,-8,-3,0
11875,-15,-13,-13,-12,-12,-17,2,-30,0
11880,-5,-12,-11,-5,-10,-20,-34,-16,0
11885,0,-11,-12,-5,3,8,24,10,0
11890,4,2,-1,-2,8,29,10,7,0
11895,-10,-10,-1,-2,-17,-41,-21,-9,0
11900,-9,-3,-1,-3,-4,-7,-31,-10,0
11905,0,5,4,0,4,2,-11,3,0
11910,6,-5,-28,-3,9,41,43,18,0
11915,-2,6,21,4,-1,-10,10,-8,0
11920,-5,-2,1,-2,2,1,-8,-8,0
11925,-6,1,2,-2,-13,-40,-49,-13,0
11930,-8,-6,-11,-14,-10,2,-17,-19,0
11935,13,3,2,8,14,35,57,26,0
11940,5,3,2,8,6,12,25,11,0
11945,-8,-1,19,7,0,7,-2,0,0
11950,-13,-11,-11,-16,-21,-65,-77,-11,0
11955,-6,-9,-15,-15,-16,-12,-5,-39,0
11960,9,2,-1,11,21,44,68,10,0
11965,6,4,-3,-2,-3,5,22,3,0
11970,-8,-5,-2,-1,-6,-19,-34,-10,0
11975,-8,-1,0,-6,-6,-9,1,8,0
11980,0,-3,-2,4,5,1,-11,3,0
11985,6,10,9,5,8,10,9,4,0
11990,-4,-1,-5,1,-1,-18,5,-10,0
11995,5,5,3,5,8,35,21,15,0
12000,-10,-4,-7,-12,-22,-11,8,-11,0
12005,-10,-10,-11,-14,-8,0,0,-3,0
12010,-3,-5,5,-1,-10,-34,-45,-14,0
12015,0,3,10,10,18,15,8,4,0
12020,-1,-5,-9,-4,0,-2,14,2,0
12025,-2,3,0,0,-5,-13,-26,-8,0
12030,0,-7,-9,-5,-6,-13,-13,-4,0
12035,-4,-1,-3,-10,-12,-10,-15,-6,0
12040,0,-3,3,5,9,14,0,7,0
12045,2,4,-1,1,3,17,32,8,0
12050,0,3,3,5,7,6,20,5,0
12055,5,-3,-3,1,2,-1,0,5,0
12060,-7,-4,-7,-15,-14,-15,-24,-10,0
12065,-4,-4,-7,-1,-2,-8,0,10,0
12070,3,8,11,10,6,33,21,-3,0
12075,0,-1,1,1,-10,-20,-16,3,0
12080,-3,-4,-10,-1,4,-5,-20,-2,0
12085,-3,-2,0,-6,-5,-9,-24,-7,0
12090,-1,-5,-17,-16,-8,5,32,1,0
12095,-2,-1,10,1,0,-9,-13,-1,0
12100,0,6,17,10,3,0,1,-3,0
12105,-2,-7,-5,1,4,8,4,-7,0
12110,-5,7,7,3,-4,-24,-41,-10,0
12115,-3,-15,-30,-13,-6,7,-3,-4,0
12120,3,4,9,5,5,-6,16,4,0
12125,-3,0,4,-1,-2,6,-13,-8,0
12130,10,3,-6,1,10,26,48,22,0
12135,-5,0,-1,-3,-1,-14,0,-2,0
12140,-1,-2,0,0,3,4,-25,-6,0
12145,-1,3,1,1,-6,-14,-4,-2,0
12150,2,-2,5,3,3,14,-3,1,0
12155,-4,0,-2,-3,-5,-7,-6,-6,0
12160,4,-1,0,-2,-5,-11,2,6,0
12165,-3,3,0,-1,-2,-1,-5,-6,0
12170,-3,-5,3,3,2,1,-15,-2,0
12175,5,7,6,2,1,-2,11,19,0
12180,-6,-8,-20,-10,-10,-5,2,-9,0
12185,6,3,13,10,9,14,8,12,0
12190,-4,-1,-7,-2,-2,-2,12,-2,0
12195,-2,2,11,-1,1,-6,-20,-5,0
12200,-5,-2,-4,-8,-13,-31,-18,-7,0
12205,2,0,-5,2,3,33,43,10,0
12210,-4,-5,-2,-2,5,8,-9,-1,0
12215,-3,3,2,-2,-1,-17,-20,-13,0
12220,8,11,6,5,2,24,31,19,0
12225,-6,-10,-24,-9,-2,-5,5,-9,0
12230,-2,2,39,10,-3,-8,-12,-5,0
12235,1,2,-10,-2,-4,-4,-7,-13,0
12240,-3,-4,4,-6,-7,-17,-10,-3,0
12245,3,0,-9,-1,1,6,-3,6,0
12250,-4,-6,-13,-8,-5,0,-3,-3,0
12255,-2,0,19,10,2,0,0,-3,0
12260,0,1,3,1,1,-2,-7,-4,0
12265,2,-2,-5,0,-1,1,4,1,0
12270,-10,-9,-21,-12,-12,-22,-28,-16,0
12275,3,-1,-1,2,7,30,37,10,0
12280,6,0,-6,2,9,20,23,11,0
12285,-9,1,3,-8,-15,-44,-81,-23,0
12290,5,2,-1,3,11,29,44,13,0
12295,0,-8,-39,-10,-3,-2,13,9,0
12300,2,18,48,15,2,0,-6,-3,0
12305,4,12,39,14,6,-6,-16,3,0
12310,-8,-2,-8,-7,-12,-26,-35,-12,0
12315,-7,-6,-10,-6,-7,-5,-6,-5,0
12320,-2,-18,-34,-14,-1,3,5,-2,0
12325,-3,-1,-7,-4,-5,-3,13,-3,0
12330,-1,5,4,-1,-4,-6,-6,-5,0
12335,-5,-12,-11,-4,1,8,8,3,0
12340,4,1,0,6,1,0,-1,4,0
12345,9,8,8,0,2,8,20,4,0
12350,5,2,-3,-2,2,1,-1,6,0
12355,-4,-2,-4,-3,-4,-1,-1,-8,0
12360,-2,3,9,-3,2,9,2,-2,0
12365,-2,-5,-5,1,6,8,14,2,0
12370,-6,-1,-7,0,-4,-15,-20,-9,0
12375,2,6,14,5,1,13,29,2,0
12380,-1,-12,-41,-15,-3,-1,-5,-1,0
12385,-12,0,41,18,6,4,10,1,0
12390,-5,12,6,1,-5,-10,-3,-3,0
12395,28,8,34,18,1,-8,-23,-1,0
12400,-15,-11,-22,-11,-6,-4,2,-6,0
12405,-1,-9,-31,-11,-2,2,9,-1,0
12410,-11,-11,-13,-4,-3,-6,-6,-6,0
12415,-2,1,-3,-3,-1,-4,-4,8,0
12420,7,3,6,4,0,2,6,1,0
12425,-8,-7,-6,-6,-3,-3,-7,-5,0
12430,0,0,12,6,5,3,5,-6,0
12435,-8,-1,-10,-7,-3,-1,1,-3,0
12440,0,-2,2,-2,-4,-4,-2,9,0
12445,5,2,6,3,-2,2,5,6,0
12450,3,0,-2,1,3,1,2,-1,0
12455,2,0,-3,-4,-5,-12,-28,-6,0
12460,-13,-2,0,0,1,5,4,-4,0
12465,5,-1,-8,-2,2,6,20,-12,0
12470,5,3,14,3,-1,-2,2,4,0
12475,-15,-7,-3,-5,-6,-3,-10,-10,0
12480,4,6,0,6,3,-7,-14,-11,0
12485,0,0,-5,-3,-3,-1,-5,2,0
12490,5,-2,-1,-2,1,7,7,5,0
12495,-7,-2,-4,-1,-1,-3,4,6,0
12500,-1,-4,-3,-5,-5,-5,-8,-10,0
12505,7,0,-3,3,3,2,10,9,0
12510,-4,-3,-1,-1,-3,-2,-4,0,0
12515,-3,0,2,-3,-3,-4,-4,2,0
12520,2,-1,2,-2,0,3,-3,-1,0
12525,-5,-4,-3,0,0,-4,-4,1,0
12530,-4,-6,-6,-5,-4,-4,-7,-7,0
12535,1,2,-1,3,2,3,9,0,0
12540,2,-1,2,-3,-4,-5,-5,-3,0
12545,-3,0,-2,1,0,1,-7,-5,0
12550,4,1,-2,-1,0,-3,5,6,0
12555,-1,-2,1,3,4,2,-4,-8,0
12560,-3,2,9,8,7,0,2,7,0
12565,2,1,-7,-7,-5,-3,3,4,0
12570,-2,-2,-8,-2,-2,-4,-3,-1,0
12575,-4,-3,-2,-6,-9,-8,-8,-7,0
12580,-4,-3,3,-1,-3,3,3,-3,0
12585,3,3,0,-2,1,2,1,5,0
12590,-2,-1,3,1,3,3,-1,-19,0
12595,-4,-3,-7,1,0,-5,2,-2,0
12600,-4,-1,-1,0,-5,-7,-8,-7,0
12605,1,2,0,0,1,2,0,8,0
12610,-1,2,-2,-2,-2,2,6,2,0
12615,1,0,0,0,1,-3,0,11,0
12620,0,-4,-14,-7,-2,0,-7,1,0
12625,0,3,21,6,0,-2,4,-5,0
12630,-1,-4,-13,-6,1,9,11,4,0
12635,-4,1,9,3,-1,-5,-10,-21,0
12640,4,1,3,2,2,-1,-6,-1,0
12645,-7,-7,-10,-10,-8,-9,-11,-6,0
12650,1,-1,0,0,2,1,0,0,0
12655,1,-1,-7,-3,-1,0,2,5,0
12660,-1,-2,-5,-4,-2,-1,5,1,0
12665,-4,-2,-1,3,6,0,-7,-9,0
12670,-1,1,3,1,-7,-7,-2,2,0
12675,2,1,-5,-1,2,3,-1,6,0
12680,0,0,6,2,-1,2,2,0,0
12685,1,-1,-5,-3,-2,-1,0,3,0
12690,-7,-2,-9,-9,-4,-12,-21,-12,0
12695,0,-2,2,-3,0,7,10,2,0
12700,3,3,5,3,1,4,1,8,0
12705,1,0,-4,-1,-4,-7,0,1,0
12710,-8,-3,0,3,1,2,12,6,0
12715,21,10,9,-1,-2,-10,-22,-6,0
12720,-8,-4,-7,-1,1,1,0,-6,0
12725,2,2,2,-3,-1,6,8,6,0
12730,2,-2,3,0,0,-4,-4,3,0
12735,-8,-4,-11,-6,-3,-1,1,4,0
12740,-4,1,2,2,-1,-6,-7,-10,0
12745,-12,-7,-6,-3,-3,-3,-8,-6,0
12750,0,-5,-9,-5,-2,1,4,-15,0
12755,8,2,3,1,-1,4,8,17,0
12760,1,1,-2,-4,-3,-3,-3,-8,0
12765,-5,-5,-7,-6,-4,-5,-13,-9,0
12770,-2,3,4,2,0,2,2,5,0
12775,-5,-1,-1,2,3,0,3,-1,0
12780,1,-2,1,-3,-4,-4,2,0,0
12785,3,-2,-3,-2,-3,-5,-5,2,0
12790,-1,0,1,1,-2,0,-2,1,0
12795,-6,-4,0,-4,-1,-2,-8,-13,0
12800,-3,-3,-5,-3,-2,-1,3,2,0
12805,-1,-1,-2,2,1,1,-2,-3,0
12810,2,0,0,-2,-2,-3,-4,8,0
12815,-6,-3,-4,-3,-4,-3,-4,-6,0
12820,1,0,1,2,2,2,23,15,0
12825,2,2,-2,-2,-2,-2,-5,1,0
12830,-2,-1,3,4,7,6,-3,-5,0
12835,-6,-4,-3,-3,-9,-11,-3,-5,0
12840,0,-2,-2,0,-1,3,-4,1,0
12845,-3,0,1,-3,-5,-5,1,11,0
12850,2,-3,-3,0,1,0,-3,2,0
12855,-5,-3,-3,-3,0,-3,-10,-25,0
12860,1,0,3,1,-2,-2,-1,-1,0
12865,1,0,0,0,-1,-2,5,0,0
12870,3,5,9,4,1,-2,-6,6,0
12875,0,-4,-1,2,4,7,8,11,0
12880,-2,6,-4,-1,0,-3,-2,-5,0
12885,-2,-4,-6,-7,-7,-3,-4,-10,0
12890,-1,0,-2,-5,-4,0,4,5,0
12895,-3,-3,-5,2,2,-1,3,2,0
12900,-3,-2,7,5,2,1,1,2,0
12905,1,-5,-5,-2,1,4,-3,-7,0
12910,-2,-1,0,-3,-2,0,2,0,0
12915,-2,2,2,-2,-5,-3,-2,3,0
12920,-5,-4,-2,-4,-4,-6,-4,5,0
12925,-6,2,1,5,5,3,1,-11,0
12930,-1,-4,-2,1,0,-1,-2,-4,0
12935,1,1,7,-1,1,6,-1,0,0
12940,3,3,2,-2,-2,-1,9,0,0
12945,1,2,4,3,0,3,3,4,0
12950,-1,-1,-5,-1,2,-3,-2,-5,0
12955,-3,-10,-13,-10,-9,-10,-9,-8,0
12960,-7,-5,-7,-7,-8,-8,-18,-8,0
12965,0,1,2,3,2,1,16,13,0
12970,2,2,4,3,7,13,9,7,0
12975,4,4,5,6,3,5,7,14,0
12980,1,-2,-3,-3,0,-6,-9,-3,0
12985,-7,-2,-5,0,-2,-2,-1,-3,0
12990,-2,-4,-3,-6,-11,-14,-11,-6,0
12995,-6,-13,-28,-9,-1,2,5,2,0
13000,6,10,41,9,5,5,1,-14,0
13005,3,5,8,5,0,-4,-4,-4,0
13010,-4,-4,6,-1,0,-4,1,-4,0
13015,-3,1,-1,1,-4,-4,-17,-1,0
13020,-7,-11,-17,-5,-3,-3,-5,-1,0
13025,1,-6,-9,-7,-1,2,11,-17,0
13030,2,7,9,3,0,4,3,9,0
13035,-3,-3,-4,-4,-3,-7,1,-7,0
13040,-6,-5,-11,-6,-3,-3,-19,-5,0
13045,3,6,8,3,2,13,29,12,0
13050,-4,-6,-9,-1,3,2,-8,0,0
13055,0,5,9,5,3,2,0,-1,0
13060,-7,-3,-6,-4,-5,-8,-2,-4,0
13065,0,1,-2,0,0,2,-5,3,0
13070,1,-7,-19,-9,-4,-7,-9,-7,2000
13075,1,6,18,6,3,9,9,-13,0
13080,5,12,27,8,-1,-6,-2,4,0
13085,-4,-6,-8,-8,-8,-11,-22,0,0
13090,-2,-5,2,6,2,1,16,-2,0
13095,-5,-2,-10,-8,-3,-8,2,13,0
13100,5,-3,-15,0,6,28,20,-1,0
13105,-4,-1,1,-1,-2,-6,-17,-6,0
13110,4,10,3,-1,-6,-6,6,7,0
13115,-13,-9,-15,-13,-11,-25,-29,-14,0
13120,-2,-6,5,7,3,4,8,8,0
13125,13,10,2,6,6,12,10,5,0
13130,-12,-11,-10,-6,-1,0,-8,-12,0
13135,8,4,15,4,-3,1,-3,-7,0
13140,-19,-24,-69,-26,-9,-9,-16,-21,0
13145,5,1,30,7,6,13,22,12,0
13150,6,1,-1,7,3,10,24,6,0
13155,4,17,50,16,-1,-7,-21,2,0
13160,7,8,7,5,3,1,-4,23,0
13165,-3,-15,-33,-15,-8,-13,8,-9,0
13170,-8,-19,-27,-14,-9,-21,-2,-4,0
13175,6,6,-8,0,3,26,10,10,0
13180,3,-2,-1,1,1,5,-1,2,0
13185,-5,3,4,4,-4,-13,-8,3,0
13190,5,6,11,-3,-4,-12,-40,-8,0
13195,-7,-12,-17,-1,4,8,35,-7,0
13200,4,4,11,6,9,22,3,10,0
13205,-1,1,-5,0,5,17,7,7,0
13210,-6,5,16,0,-3,-15,-14,3,0
13215,-7,-8,-11,-4,-8,-22,-33,-7,0
13220,4,-4,-18,-9,-4,-6,12,-6,0
13225,-13,-6,-11,-7,-2,-8,-4,-7,0
13230,9,18,62,29,7,4,-2,-4,0
13235,17,8,13,5,4,9,-11,0,0
13240,3,1,14,3,0,-2,33,4,0
13245,-12,-13,-29,-11,-13,-25,-46,-36,0
13250,-6,-13,-27,-20,-14,-7,27,3,0
13255,8,5,2,11,30,53,14,31,0
13260,-6,-7,-4,-3,-8,-11,-4,-11,0
13265,1,0,4,1,-3,-15,-29,2,0
13270,-12,-5,-12,-9,-9,-25,-39,-22,0
13275,-1,3,3,2,-1,1,7,-9,0
13280,3,4,0,0,7,8,20,8,0
13285,5,5,9,7,13,47,69,15,0
13290,2,-3,-14,-3,2,12,10,7,0
13295,-14,-20,-11,-6,-16,-52,-57,-13,0
13300,-9,-1,-10,-21,-18,-36,-59,-14,0
13305,22,36,94,46,31,73,91,21,0
13310,11,8,-12,2,3,8,-13,1,0
13315,-7,-3,-5,-7,-5,-4,12,-4,0
13320,-9,-13,-6,-1,-7,-30,-38,-17,0
13325,-8,-8,-21,-16,-16,-38,-51,-7,0
13330,-4,-7,-6,0,1,11,5,9,0
13335,-4,-5,-28,-12,-13,-19,-12,-31,0
13340,-2,6,20,-1,-6,12,32,1,0
13345,4,-1,-13,-1,3,-20,-17,10,0
13350,5,8,21,8,15,27,34,4,0
13355,12,10,-8,-2,9,23,1,23,0
13360,-4,-8,8,3,1,7,31,5,0
13365,-7,-7,-35,-17,-13,-19,-17,-14,0
13370,-7,-3,22,6,-8,-19,-36,-12,0
13375,-7,5,39,9,2,-8,28,-2,0
13380,3,1,-11,1,1,11,12,9,0
13385,-7,-5,-5,-3,-5,-19,-50,-11,0
13390,-2,-3,-8,-4,-9,-20,-42,-26,0
13395,-2,-9,-19,-13,-9,-16,20,-4,0
13400,9,7,1,10,23,49,39,19,0
13405,3,1,-2,-1,4,19,28,15,0
13410,-15,-12,-24,-18,-29,-68,-84,-19,0
13415,-5,-3,8,-2,-3,22,35,9,0
13420,-2,-7,-13,0,-1,-11,6,-16,0
13425,12,9,-1,9,27,69,72,27,0
13430,13,4,5,6,13,20,54,26,0
13435,-13,-7,2,-5,-18,-52,-67,-13,0
13440,-10,0,22,5,-14,-24,-45,-23,0
13445,2,2,-12,-9,-6,-5,-26,-2,0
13450,0,-7,9,5,8,14,17,1,0
13455,10,9,14,10,5,-4,-5,7,0
13460,-8,-4,-28,-11,-9,-26,-33,-10,0
13465,-8,-13,15,-1,-9,-14,-19,-15,0
13470,1,18,-2,-2,9,36,55,13,0
13475,-6,-10,-21,-6,4,-2,-33,-5,0
13480,1,0,7,3,-2,-12,-51,-25,0
13485,-5,0,-8,-3,-3,-19,4,7,0
13490,0,-7,-10,-2,4,21,27,16,0
13495,6,2,4,3,3,27,57,16,0
13500,-2,2,0,-4,-7,-29,-45,1,0
13505,-14,-13,-12,-14,-18,-25,-37,-23,0
13510,1,2,-18,-1,11,7,-17,9,0
13515,1,-3,11,0,1,20,31,3,0
13520,13,22,36,7,-9,-11,-3,9,0
13525,-10,-9,0,-3,-16,-40,-47,-15,0
13530,3,-3,5,6,13,27,39,4,0
13535,-3,-11,-40,-5,15,27,34,9,0
13540,-3,-4,2,1,-1,1,8,5,0
13545,3,6,6,-2,-6,-17,-26,-9,0
13550,-8,1,11,0,-20,-37,-38,-14,0
13555,-9,-8,-13,-11,-18,-37,-64,-24,0
13560,22,11,13,19,45,110,121,53,0
13565,-5,-4,-11,-4,5,9,6,-1,0
13570,-4,-8,-12,-5,-6,-14,-40,-13,0
13575,-6,2,-12,-7,-8,-7,-1,-5,0
13580,-1,-1,8,-4,-13,-25,-23,-5,0
13585,-8,-7,-7,-7,-7,-19,-19,-14,0
13590,9,1,-11,4,21,51,66,24,0
13595,3,16,41,15,3,-11,-32,-5,0
13600,-6,4,-15,-7,0,-4,-1,-33,0
13605,13,7,30,13,-4,-15,25,8,0
13610,-6,-1,6,-5,-9,-12,-34,-8,0
13615,-7,-12,-24,-10,0,10,24,-4,0
13620,-3,-3,-5,1,6,9,26,12,0
13625,3,1,-3,0,-1,5,-6,8,0
13630,0,-1,-8,-6,-2,0,43,-1,0
13635,-6,-8,-6,0,-2,1,-9,2,0
13640,4,-3,-19,-14,-9,-7,-6,-2,0
13645,-3,6,23,6,8,11,18,-10,0
13650,6,6,3,2,-2,-9,-8,4,0
13655,-4,-13,-16,-9,0,-3,-25,-4,0
13660,-4,-7,-15,-9,-15,-44,-49,-12,0
13665,-3,-5,1,3,5,33,41,6,0
13670,-8,0,-9,-2,-7,-10,-4,-3,0
13675,8,7,34,3,-1,-4,7,4,0
13680,5,3,9,14,9,5,-6,17,0
13685,-4,-7,-19,-9,-7,-24,-37,-20,0
13690,-6,-5,-3,-8,-4,-13,-16,-12,0
13695,5,-2,-17,-3,-5,24,48,14,0
13700,-6,-2,1,-3,4,12,32,8,0
13705,10,7,3,0,3,11,19,13,0
13710,-4,-5,-11,-3,4,12,-10,-4,0
13715,-1,1,-3,1,4,-15,-19,-2,0
13720,-4,-1,8,-6,-14,-7,-9,-11,0
13725,3,-8,-6,2,-3,-11,-8,4,0
13730,10,4,15,11,16,42,27,6,0
13735,-1,-3,-11,-1,-5,-17,-7,-8,0
13740,0,11,25,9,12,31,25,4,0
13745,-14,-19,-32,-22,-16,-43,-37,-12,0
13750,6,8,21,7,-2,10,14,10,0
13755,-4,-8,-37,-6,-2,-8,-1,0,0
13760,7,13,64,17,3,-4,-18,-4,0
13765,-6,-9,-22,-9,-6,-8,-19,-8,0
13770,-12,-6,4,-7,-12,-29,-49,-24,0
13775,13,15,13,12,17,32,33,22,0
13780,-12,-11,-33,-13,-11,-16,-8,-12,0
13785,5,-1,8,5,2,25,55,15,0
13790,-11,-3,-5,-3,-6,-37,-52,-16,0
13795,-4,-2,3,-3,-8,-15,-25,-12,0
13800,1,-2,-15,-1,11,27,41,22,0
13805,-7,1,5,2,3,-7,-15,-16,0
13810,2,1,-19,-12,-14,-13,3,0,0
13815,3,0,6,1,2,10,5,3,0
13820,-4,-2,-7,-2,-5,-23,-30,-9,0
13825,3,6,11,10,11,28,24,16,0
13830,1,-6,11,9,7,8,21,6,0
13835,-2,10,11,4,-4,-8,-2,-5,0
13840,-10,-27,-67,-27,-16,-33,-37,-13,0
13845,10,16,48,12,-3,18,11,5,0
13850,-5,-10,-12,-11,-15,-18,-25,-13,0
13855,7,10,19,9,8,22,23,10,0
13860,-8,-15,-30,0,11,8,8,0,0
13865,2,3,4,-4,-3,0,1,3,0
13870,-5,-5,-13,-10,-10,-36,-54,-14,0
13875,-2,2,5,-5,-5,24,57,9,0
13880,11,5,8,6,9,15,7,13,0
13885,-7,-14,-29,-11,-4,-12,-26,-8,0
13890,7,10,19,14,9,5,15,10,0
13895,-9,-7,2,-4,-7,-27,-55,-18,0
13900,-4,4,20,1,-12,-10,-23,-15,0
13905,6,1,3,0,2,3,19,25,0
13910,3,-6,-23,-12,-8,-1,17,-6,0
13915,-6,-4,-11,-3,3,1,0,-9,0
13920,9,6,21,11,11,19,25,12,0
13925,-14,-9,-24,-13,-10,-32,-41,-17,0
13930,-10,-5,-3,-7,-8,-6,-13,-8,0
13935,13,4,-1,7,14,18,42,23,0
13940,-9,-5,-10,-16,-10,-5,-16,-16,0
13945,-2,2,-2,2,3,8,34,1,0
13950,0,-1,-5,0,1,-2,2,5,0
13955,1,3,20,7,-4,-3,-2,-7,0
13960,-9,8,-5,-9,-12,-19,-20,-9,0
13965,-1,-17,-31,-4,7,14,-7,-3,0
13970,4,19,51,21,1,-4,-3,2,0
13975,-3,-20,-32,-18,-5,21,39,7,0
13980,3,2,14,2,-1,-4,9,6,0
13985,-5,-3,-2,-2,-5,-10,-19,-7,0
13990,-9,-2,-13,-9,-9,-20,-31,-12,0
13995,-1,-3,4,7,6,3,-5,-5,0
14000,1,-3,-14,-4,0,0,29,9,0
14005,0,3,6,-6,-12,-21,-22,-9,0
14010,10,0,4,10,17,32,38,15,0
14015,-6,2,2,-3,-2,-8,-20,-29,0
14020,-3,-4,-10,-6,-13,-4,4,-1,0
14025,-2,2,3,-2,0,-2,-15,-2,0
14030,-4,-7,-12,-8,-4,-16,-23,-6,0
14035,-11,-9,-12,-11,-26,-34,-29,-11,0
14040,-3,0,8,3,2,5,10,-3,0
14045,11,6,8,12,12,28,30,14,0
14050,-7,-4,-1,2,5,-1,-19,-7,0
14055,-3,-1,-5,-5,-3,-9,-11,-4,0
14060,1,-1,4,-1,5,1,-3,6,0
14065,-12,-4,-1,-11,-30,-52,-75,-22,0
14070,1,-12,-19,-5,5,34,51,16,0
14075,5,3,7,12,8,7,22,9,0
14080,-1,4,5,2,2,0,-8,-7,0
14085,-1,0,7,3,10,11,17,-2,0
14090,1,3,0,-2,-6,-12,-25,-3,0
14095,4,8,15,-4,0,7,17,10,0
14100,0,-10,-20,-3,3,-8,-17,0,0
14105,-7,-7,-7,-4,-8,-3,8,-7,0
14110,5,13,8,11,12,38,22,10,0
14115,-4,-2,-7,-6,-6,-14,-19,-1,0
14120,-2,3,6,9,2,11,-2,-5,0
14125,-1,-1,-4,2,3,-3,34,6,0
14130,-3,-1,-10,-15,-12,0,27,2,0
14135,3,-8,-1,11,11,3,-10,1,0
14140,17,16,41,16,11,4,-2,7,0
14145,-2,-2,-6,-5,-14,-20,-33,-6,0
14150,-3,-3,-9,-7,-5,20,34,2,0
14155,1,6,2,-1,-2,-7,-16,2,0
14160,-10,-11,-13,-6,-6,-7,-6,-11,0
14165,-3,2,4,0,6,-12,-34,-8,0
14170,12,10,13,9,22,37,32,23,0
14175,-5,-13,-17,-9,-6,-8,10,-5,0
14180,-4,-7,-7,-2,-10,7,12,-2,0
14185,7,8,9,9,16,20,15,7,0
14190,-1,0,1,0,1,1,1,0,0
14195,-4,-4,-5,-9,-5,-26,-41,-8,0
14200,-5,-8,-12,-5,-7,-2,-2,-3,0
14205,-3,0,-5,-11,-13,-7,10,-5,0
14210,-1,-4,5,2,-6,-14,-17,-2,0
14215,6,9,3,7,20,21,3,10,0
14220,0,7,10,3,4,-6,29,3,0
14225,-9,2,-9,-12,-9,-9,-9,-9,0
14230,-5,-29,-15,-5,-12,-29,-34,-18,0
14235,0,6,-3,-2,-8,11,17,6,0
14240,-1,-6,-6,-3,-5,-5,-27,1,0
14245,8,3,-1,-1,6,19,12,9,0
14250,-3,8,13,6,8,-11,-25,-8,0
14255,-6,-6,-7,-2,1,-8,-8,-15,0
14260,-6,-7,-13,-8,-4,-17,-21,-3,0
14265,-1,1,6,8,-4,8,33,4,0
14270,-5,3,1,-10,-7,-4,7,-4,0
14275,0,2,8,5,-1,1,-28,-1,0
14280,-1,4,-2,-4,-5,-31,-34,-11,0
14285,4,-5,-4,7,14,36,52,12,0
14290,-8,0,-17,-15,-7,-4,12,-4,0
14295,8,2,29,13,-4,6,32,11,0
14300,-4,-5,-8,-12,-10,-6,-35,-7,0
14305,0,5,10,8,10,-7,-15,-3,0
14310,0,-8,-14,3,3,16,41,5,0
14315,-8,-4,-3,-12,-19,-23,-16,-11,0
14320,2,1,-2,2,7,14,20,4,0
14325,-2,-4,0,-4,-10,-16,-38,-12,0
14330,-4,-4,-9,-5,-3,-9,-8,-4,0
14335,-1,-2,-12,-13,-13,-7,-2,-2,0
14340,0,-4,11,12,10,8,3,3,0
14345,3,8,1,6,12,30,26,13,0
14350,3,-1,3,6,-3,-10,-16,-3,0
14355,-5,-1,-2,3,7,-5,-29,-9,0
14360,-7,-10,-26,-19,-16,-18,-16,-13,0
14365,2,3,15,4,-4,-5,-2,5,0
14370,2,7,5,4,-2,5,30,6,0
14375,-7,6,18,2,9,17,2,-3,0
14380,17,-5,6,17,21,17,9,15,0
14385,-8,-11,-22,-19,-13,-21,-18,-9,0
14390,-3,-7,-2,-6,-13,-17,-25,-8,0
14395,-2,-2,-7,-6,-3,0,10,2,0
14400,-4,2,0,0,6,13,13,-1,0
14405,-9,-9,-8,-9,-12,-28,-45,-18,0
14410,7,5,7,7,15,14,18,13,0
14415,-3,-1,-4,-1,-4,-4,-11,-4,0
14420,3,2,0,8,7,18,37,15,0
14425,2,1,15,7,0,-3,-1,0,0
14430,-8,-3,1,-2,-5,-24,-42,-17,0
14435,4,-5,-13,-1,9,6,-19,5,0
14440,-2,2,-2,-14,-20,-4,13,-3,0
14445,-3,-9,-6,-3,-4,-4,-2,-1,0
14450,0,6,1,4,6,9,16,1,0
14455,-3,-10,-11,-9,-1,-17,-22,-8,0
14460,-6,1,19,6,-5,-12,-31,-12,0
14465,-3,6,-14,-8,-3,13,32,2,0
14470,9,-15,4,3,5,22,40,14,0
14475,10,17,17,17,5,0,-3,7,0
14480,-4,-5,3,3,0,-2,3,-2,0
14485,1,1,0,12,8,7,8,4,0
14490,-9,0,-11,-15,-10,-17,-35,-13,0
14495,-2,-2,-4,-5,-2,16,32,1,0
14500,3,-1,-5,-2,-5,-4,-10,5,0
14505,7,5,13,4,7,2,6,6,0
14510,-5,-4,-8,2,-5,-15,-31,-9,0
14515,-5,-7,-8,-15,-9,1,15,-5,0
14520,9,9,6,10,15,33,65,19,0
14525,0,-4,-6,1,2,2,-13,0,0
14530,-5,4,7,5,8,-11,-16,-6,0
14535,-8,-5,-1,-6,-7,-6,-29,-10,0
14540,-5,-7,-13,-16,-19,-12,-4,-5,0
14545,-3,-6,-25,-20,-19,-11,5,-2,0
14550,2,-1,35,18,5,5,5,0,0
14555,1,9,14,10,3,-7,-14,-2,0
14560,-6,-5,-2,-4,4,2,-18,-7,0
14565,2,4,0,2,15,14,5,1,0
14570,-4,-9,-18,-17,-15,-4,17,-1,0
14575,4,-2,-5,4,7,4,14,8,0
14580,-8,-2,-1,-9,-19,-33,-59,-2,0
14585,4,-6,-6,-1,3,14,60,1,0
14590,0,2,-7,-8,-9,-8,-18,-1,0
14595,4,5,5,5,11,20,11,10,0
14600,-5,-3,-7,-2,-7,-28,-26,-8,0
14605,1,-2,-2,-4,10,17,-14,6,0
14610,-6,-6,-12,-4,-17,-8,-3,-5,0
14615,-3,1,22,16,-3,-22,-2,-2,0
14620,0,-5,-6,-9,-11,0,5,-7,0
14625,-2,-3,3,2,1,-8,-2,-5,0
14630,3,5,-11,-1,20,37,20,10,0
14635,-7,-11,-12,-12,-15,-26,-20,-18,0
14640,2,1,0,5,23,27,14,7,0
14645,2,8,8,9,-2,-5,-7,2,0
14650,-2,4,8,-3,-5,-17,-22,-6,0
14655,2,-3,-3,1,-2,4,32,14,0
14660,1,-6,-6,-4,2,13,10,0,0
14665,0,1,-3,-10,-5,1,-6,3,0
14670,-3,-3,0,5,-3,-20,-29,-12,0
14675,2,8,11,14,12,16,9,7,0
14680,-1,0,-1,-3,2,-2,-6,-4,0
14685,-4,-6,-5,-1,-3,-1,-13,-2,0
14690,-2,0,4,-4,-3,4,40,8,0
14695,-1,-9,-32,-13,-9,0,-19,-5,0
14700,1,8,30,9,7,-1,-1,0,0
14705,-6,-5,0,-2,-17,-30,-39,-16,0
14710,8,4,-1,6,21,34,56,20,0
14715,0,4,0,-3,4,7,9,-1,0
14720,-6,-11,-10,-5,-17,-24,-19,-4,0
14725,-9,-7,-3,-13,-9,-9,-20,-12,0
14730,3,6,16,12,0,-4,-9,3,0
14735,-4,-2,-6,-6,-7,-14,-12,-10,0
14740,9,10,0,6,12,22,12,32,0
14745,-2,-4,5,-4,-6,1,1,-2,0
14750,-3,0,-13,-6,-6,7,13,2,0
14755,-3,-9,-9,-8,-3,5,9,-8,0
14760,-1,3,5,3,-6,-11,21,22,0
14765,0,1,-5,2,2,-2,-13,-19,0
14770,-1,-2,-6,-8,-2,-11,-19,-8,0
14775,-5,2,9,-1,-6,-14,-16,-6,0
14780,-5,-7,-13,-5,-4,2,0,-8,0
14785,2,-2,-3,1,6,1,12,10,0
14790,8,8,2,0,8,12,-4,23,0
14795,5,-6,12,10,3,10,17,5,0
14800,-9,-10,-17,-6,2,10,40,-11,0
14805,-4,13,24,9,0,-31,-32,-11,0
14810,0,-1,-5,-2,-3,-5,-16,-1,0
14815,2,4,4,-5,0,12,4,6,0
14820,0,-1,-1,5,5,20,4,-6,0
14825,-2,-8,-12,-5,5,8,7,5,0
14830,-8,-7,-4,-6,-16,-22,17,6,0
14835,-2,-3,-7,-10,-13,-25,-53,-20,0
14840,2,1,2,4,10,10,26,-7,0
14845,5,-1,-20,-1,2,18,25,2,0
14850,-1,-5,22,-3,-5,-10,-14,-7,0
14855,-3,-1,-7,6,0,-2,-14,11,0
14860,-10,3,6,-6,-17,-38,-32,-22,0
14865,9,8,14,15,20,33,34,-1,0
14870,-2,-1,-9,-2,-2,-8,-19,-11,0
14875,-7,-6,-29,-9,-1,12,23,-4,0
14880,5,11,25,5,-2,-10,-13,-5,0
14885,1,3,4,5,4,1,-2,6,0
14890,-6,-7,-7,-4,-8,-11,-10,-14,0
14895,-1,0,5,-2,6,-5,-7,3,0
14900,-6,-7,-17,-11,-26,-16,-4,-6,0
14905,-1,-6,-6,-6,-3,-8,-25,3,0
14910,4,4,8,8,19,38,59,-29,0
14915,-6,6,2,5,0,-8,-22,-7,0
14920,6,-13,5,2,8,1,-3,14,0
14925,-3,-4,9,2,-4,-4,-11,-20,0
14930,-5,-4,-9,-3,-4,-9,-20,-5,0
14935,-2,-5,-6,-9,-11,-13,1,42,0
14940,1,5,-5,0,12,21,24,-35,0
14945,-2,-3,-14,-11,-5,-1,3,9,0
14950,-2,-10,-5,-4,-5,-16,-1,4,0
14955,5,2,16,5,-1,5,6,-8,0
14960,-12,-5,-15,-8,-6,9,2,-16,0
14965,6,5,14,10,2,2,-1,13,0
14970,-6,-3,-13,-5,-4,5,25,-1,0
14975,-2,-6,-21,-9,-8,-16,-14,-24,0
14980,4,-3,11,2,3,-11,-46,9,0
14985,5,9,15,12,8,34,55,16,0
14990,-1,2,11,-2,-11,-23,-30,7,0
14995,-1,-6,-20,-9,-4,2,32,2,0
15000,-2,5,-1,-3,-6,-2,-21,21,0
15005,-2,-5,-6,-5,-2,1,4,-6,0
15010,6,0,-1,0,2,-1,-7,32,0
15015,-3,-4,3,1,4,-4,-16,-35,0
15020,1,5,-4,0,-2,-1,23,5,0
15025,-7,-13,-7,-8,-11,-22,-31,26,0
15030,6,0,-2,4,14,38,8,-10,0
15035,4,6,4,8,2,7,23,20,0
15040,-4,-3,8,0,-3,-11,-12,5,0
15045,-9,-7,-21,-12,-18,-27,-30,11,0
15050,-5,-7,9,0,-3,-3,-18,-3,0
15055,23,16,5,7,20,41,55,11,0
15060,2,-3,8,6,5,-3,-11,-10,0
15065,2,4,-11,2,9,12,35,69,0
15070,4,0,-3,-4,-4,-5,-25,-49,0
15075,-16,-7,2,-11,-26,-37,-23,45,0
15080,-4,-6,-18,-8,-5,7,-9,-40,0
15085,21,7,6,5,16,33,36,77,0
15090,-5,-4,-9,3,10,0,-5,26,0
15095,0,0,9,5,4,-6,-14,-1,0
15100,2,0,-2,-6,-12,-10,7,-6,0
15105,-15,-5,4,-3,-12,-26,-36,-48,0
15110,-2,-3,-6,-5,-8,-4,-3,8,0
15115,-5,-6,-6,-4,8,9,1,-23,0
15120,-6,6,5,6,14,1,11,20,0
15125,8,0,-3,1,-4,5,13,-1,0
15130,0,4,7,1,-8,-20,-7,-73,0
15135,-10,-11,-9,-9,-8,-14,-22,-30,0
15140,-4,1,-7,-3,4,25,3,-29,0
15145,-4,-2,3,0,-2,-9,-22,36,0
15150,-2,-4,-12,-10,-7,-6,3,-23,0
15155,4,5,11,7,9,13,9,-20,0
15160,0,-8,-11,-4,-2,-12,-12,12,0
15165,-2,-2,-5,0,-1,-2,-17,-27,0
15170,-6,-1,-5,-3,-1,9,26,-12,0
15175,5,5,19,4,8,22,28,15,0
15180,-8,-2,-1,-5,-12,-17,-10,-7,0
15185,-2,-1,5,0,-5,-9,-26,-51,0
15190,-4,-1,-1,-1,-3,-14,-17,27,0
15195,0,4,14,11,13,18,35,-28,0
15200,-2,4,0,-4,-1,-6,-1,2,0
15205,-14,-4,-11,-10,-14,-10,-15,-39,0
15210,2,3,8,5,1,10,2,-12,0
15215,3,-9,-35,-17,-9,-4,12,-13,0
15220,10,2,35,20,13,17,-14,8,0
15225,3,2,4,1,8,-1,0,-9,0
15230,-4,-4,-23,-5,-7,-8,1,120,0
15235,-1,6,20,0,-3,-17,-28,-13,0
15240,4,1,-8,1,-2,21,45,11,0
15245,-5,-5,-3,-2,-3,-11,3,4,0
15250,-2,1,6,3,6,3,-35,-20,0
15255,-17,-12,-13,-11,-14,-14,-14,-23,0
15260,14,8,-2,7,19,30,75,33,0
15265,0,1,9,3,-6,2,13,9,0
15270,-21,-8,-5,-12,-23,-23,-9,-60,0
15275,-2,-5,-2,-2,-5,-12,-37,35,0
15280,-10,-9,-21,-7,-2,-13,-43,-89,0
15285,-7,4,-13,-4,9,5,24,20,0
15290,22,7,42,23,16,14,14,-22,0
15295,2,3,11,9,-5,1,-3,11,0
15300,-17,-18,-19,-13,-20,-27,-53,-66,0
15305,1,-1,-20,-9,2,8,26,2,0
15310,5,2,-6,4,4,2,1,75,0
15315,-6,0,-2,-1,0,-13,-22,4,0
15320,12,5,12,7,10,17,25,48,0
15325,-6,-4,-2,-1,-4,-8,-17,-26,0
15330,-1,-3,-11,-4,0,7,9,-10,0
15335,1,4,4,-2,-10,4,30,40,0
15340,5,0,-9,-8,-5,-36,-38,36,0
15345,-11,-7,0,-6,-5,-1,-17,-13,0
15350,7,2,-9,-3,8,7,30,27,0
15355,2,6,34,17,11,18,7,26,0
15360,-6,-1,-17,-8,-7,-8,-10,-21,0
15365,4,0,18,10,11,6,0,18,0
15370,-6,3,-5,-6,-2,-5,-7,-11,0
15375,2,-4,11,1,-14,-13,-9,-23,0
15380,-6,2,2,0,-4,-5,14,44,0
15385,-2,-10,-9,-2,2,-2,-15,-42,0
15390,6,4,-6,4,24,39,29,12,0
15395,-6,-8,-24,-11,-6,-45,-31,-30,0
15400,-2,-1,3,-5,-23,15,20,5,0
15405,-1,3,5,-1,-15,-47,4,-13,0
15410,0,0,4,2,11,40,1,-16,0
15415,4,2,-4,0,14,22,31,21,0
15420,2,-5,-8,-6,-1,-29,-65,0,0
15425,3,-3,-6,3,10,40,58,9,0
15430,-11,2,8,2,0,-16,1,21,0
15435,10,14,66,26,14,28,22,2,0
15440,-9,-7,-19,-6,2,-4,-3,11,0
15445,0,4,4,0,-8,-12,-40,-54,0
15450,-5,-7,-13,-1,0,-7,2,-5,0
15455,-5,-9,-32,-11,1,-5,-22,31,0
15460,-20,-12,-12,-15,-24,-26,-10,-76,0
15465,18,4,15,9,4,14,14,40,0
15470,-9,-6,1,0,-3,-14,-23,13,0
15475,5,-2,-22,-12,-14,-1,9,-57,0
15480,-3,-4,0,-4,0,-9,-26,8,0
15485,2,1,-14,-5,8,4,10,53,0
15490,6,-2,-7,-12,-17,-21,-29,-36,0
15495,-2,4,25,8,1,-12,-27,47,0
15500,15,12,31,18,17,37,78,23,0
15505,-6,-3,-2,-7,-3,-9,-23,-19,0
15510,6,-4,-1,5,-2,-5,3,11,0
15515,-5,-5,-8,-8,-18,-13,-10,11,0
15520,-2,-6,-21,-9,-2,-12,-25,1,0
15525,4,12,44,24,17,-1,-12,2,0
15530,-2,-4,-13,-11,-5,6,2,30,0
15535,0,-15,-42,-17,-11,5,-5,-36,0
15540,-1,3,23,12,9,-2,5,71,0
15545,-8,-7,-18,-6,11,26,17,33,0
15550,5,1,0,-5,-8,-12,-14,21,0
15555,0,6,3,4,4,-12,-21,0,0
15560,4,3,-3,0,2,25,45,16,0
15565,-2,-7,-19,-9,-6,-28,-27,-10,0
15570,-4,-4,-3,3,0,14,13,-7,0
15575,-6,2,9,-2,0,-6,10,5,0
15580,6,3,3,3,0,1,1,-11,0
15585,2,0,5,-3,-12,7,13,-12,0
15590,-5,-2,-4,0,1,-11,-19,-31,0
15595,9,-3,-27,3,24,39,35,3,0
15600,-10,-16,-37,-26,-18,-18,-8,-5,0
15605,6,17,64,20,-19,-15,-11,-3,0
15610,-7,-1,8,1,1,-16,-38,-36,0
15615,-1,-1,1,7,21,-2,-14,1,0
15620,10,4,-5,5,8,42,75,27,0
15625,-5,-13,-32,-17,-16,1,10,-3,0
15630,-2,3,7,2,5,12,7,-3,0
15635,-7,-3,-3,0,-3,-19,-31,5,0
15640,-4,-6,1,-9,-10,-35,-57,-51,0
15645,-4,-5,-12,-8,-13,-1,-6,-13,0
15650,0,1,4,1,0,1,12,5,0
15655,3,2,-2,5,3,17,51,23,0
15660,-5,-1,3,7,9,-2,-19,6,0
15665,-4,6,20,17,32,24,10,-12,0
15670,1,-3,-11,-5,11,-16,-28,16,0
15675,1,-5,-16,-25,-66,-30,3,-24,0
15680,-6,-6,-12,-12,-19,-13,4,-76,0
15685,-1,-3,2,-7,-9,-5,-6,3,0
15690,-3,-2,-5,-3,-14,-26,-23,15,0
15695,-2,-5,-5,-1,25,25,2,-52,0
15700,3,0,12,7,5,1,-13,19,0
15705,-4,-2,-26,-7,6,6,16,-6,0
15710,6,7,20,7,2,-5,-26,-20,0
15715,4,6,7,8,14,31,59,37,0
15720,-4,1,0,0,1,-7,-13,-1,0
15725,0,-7,-12,-3,9,7,-28,-11,0
15730,1,1,-15,0,-3,11,31,15,0
15735,-10,-8,-20,-18,-30,-41,-38,-59,0
15740,-2,11,48,11,-11,-12,-8,11,0
15745,1,6,5,1,6,2,0,5,0
15750,-5,-9,-13,-11,-7,-33,-32,-128,0
15755,-10,-10,-26,-7,1,22,-1,13,0
15760,17,18,32,28,31,34,68,102,0
15765,6,-2,-1,1,5,3,-15,-21,0
15770,-2,2,3,0,-2,13,26,39,0
15775,-6,-5,-5,-3,6,-6,-18,2,0
15780,-6,-4,-10,-8,-23,-36,-60,-18,0
15785,5,3,-4,-3,-10,0,43,37,0
15790,-4,-5,-15,-8,-12,-14,1,14,0
15795,7,9,23,10,14,19,20,17,0
15800,-2,-6,-4,-4,5,-16,-44,-19,0
15805,1,0,0,3,15,36,20,-3,0
15810,0,-12,-34,-14,4,24,34,-12,0
15815,-3,6,36,1,-42,-49,-34,-20,0
15820,-7,4,12,6,-5,1,-11,53,0
15825,2,1,-7,-5,3,-11,-6,-14,0
15830,5,7,13,8,11,10,24,74,0
15835,-2,-4,-12,4,24,22,-6,15,0
15840,3,-7,-21,-6,14,4,6,-60,0
15845,-6,-6,-8,-15,-45,-47,-50,-31,0
15850,8,7,8,0,4,41,83,29,0
15855,2,2,9,10,12,0,-7,3,0
15860,-5,-4,-5,-4,0,3,-6,-15,0
15865,-6,-6,-6,-5,5,-21,-30,0,0
15870,-5,-3,-13,1,9,-10,-27,-28,0
15875,3,3,26,-6,-23,-3,2,30,0
15880,5,3,3,-4,-19,-8,25,-2,0
15885,-3,-2,-25,-5,10,18,-2,-4,0
15890,-1,10,50,15,-2,-12,-7,5,0
15895,0,0,6,6,4,3,8,-5,0
15900,-10,-12,-26,-12,2,-14,-46,-14,0
15905,-4,-4,-10,-8,-10,5,44,36,0
15910,1,-1,0,6,20,35,17,2,0
15915,-1,1,-13,-2,8,-14,-17,-1,0
15920,0,2,6,-1,-12,13,17,-9,0
15925,-16,-11,-12,-6,-5,-25,-33,-14,0
15930,-5,-1,5,0,-7,-4,-14,-5,0
15935,-5,-4,-16,-13,-13,-29,-28,-13,0
15940,11,6,11,12,4,16,43,20,0
15945,4,1,2,2,4,11,28,3,0
15950,1,3,6,10,25,40,12,5,0
15955,1,4,-6,-4,14,-5,-17,-9,0
15960,-14,-4,-16,-13,-46,-40,-42,-19,0
15965,0,-6,8,0,13,-5,0,-7,0
15970,6,-1,-6,-13,-49,-22,7,-1,0
15975,-3,-11,-35,-5,23,20,7,3,0
15980,0,5,20,17,24,23,1,-2,0
15985,-6,-4,-2,0,-1,-2,0,-15,0
15990,-8,-3,6,2,1,-26,-35,-11,0
15995,1,-7,-26,-12,-11,11,20,9,0
16000,3,4,9,2,10,12,7,8,0
16005,-5,-1,4,2,-6,-12,-21,-27,0
16010,-5,-6,-9,-6,-3,-11,-21,-8,0
16015,-5,0,-1,1,5,10,22,-3,0
16020,9,-2,0,-2,13,-5,-6,9,0
16025,4,-2,-3,-13,-44,-27,-8,-4,0
16030,-5,-3,-11,-11,-12,-6,-10,-3,0
16035,-5,1,10,0,-9,0,7,15,0
16040,15,1,18,10,24,14,-17,-19,0
16045,-1,0,-6,4,18,4,-2,-1,0
16050,0,-2,-10,-6,-9,4,18,5,0
16055,-3,-6,-2,-1,-8,-12,-10,-4,0
16060,-11,-12,-28,-14,3,10,13,19,0
16065,-5,9,18,5,-17,-17,-27,-33,0
16070,-4,-3,11,11,7,-10,-22,-13,0
16075,1,6,12,8,21,17,32,16,0
16080,9,1,-15,-13,-39,-18,30,13,0
16085,-10,-9,-7,-11,-8,-3,-2,2,0
16090,0,2,-7,-3,1,-1,18,11,0
16095,0,-7,-19,-3,7,0,-31,-11,0
16100,-5,5,19,18,25,20,-4,-8,0
16105,4,2,6,-1,-2,-1,-3,10,0
16110,-2,4,14,0,-13,-14,-7,-4,0
16115,0,-10,-28,-9,2,9,12,-1,0
16120,0,7,9,-5,-18,-17,11,1,0
16125,-3,-6,-6,-3,-7,-1,-11,-20,0
16130,-3,-5,-8,2,21,3,-29,-8,0
16135,0,3,16,3,-1,-8,2,-9,0
16140,4,-5,-15,-11,-11,15,35,10,0
16145,2,-1,2,5,6,-2,-22,-33,0
16150,-6,-3,-1,-5,-7,-1,40,-1,0
16155,-3,0,5,-1,-12,-7,-35,-15,0
16160,-5,-3,-4,3,17,3,-6,-4,0
16165,0,-1,-10,-5,4,6,2,21,0
16170,2,3,34,8,2,-4,-6,-5,0
16175,0,-7,-28,-4,4,10,9,-8,0
16180,-3,6,17,0,-2,0,1,5,0
16185,9,4,11,8,-2,0,7,17,0
16190,-3,-8,-25,-16,-10,-7,-23,-12,0
16195,0,3,8,3,-1,3,20,20,0
16200,-10,-13,-25,-20,-31,-43,-34,-11,0
16205,1,1,-4,0,3,24,38,-8,0
16210,1,-2,-3,3,10,1,-17,6,0
16215,5,2,12,6,6,12,20,-11,0
16220,-6,-4,-10,4,12,-3,-3,-21,0
16225,1,3,13,6,6,8,-9,13,0
16230,-1,-4,-6,-6,-5,3,0,-4,0
16235,-5,-1,10,-5,-20,-29,-27,-6,0
16240,-9,-9,-29,-8,8,21,9,-7,0
16245,6,13,47,21,20,17,5,-11,0
16250,0,6,-8,-7,-16,-7,4,-3,0
16255,-5,2,-1,3,6,-3,-19,-4,0
16260,2,8,16,3,-9,-16,-15,-10,0
16265,-4,-10,-24,-9,1,-2,10,20,0
16270,-6,-10,-24,-7,-10,-17,-25,1,0
16275,8,13,42,18,4,8,18,2,0
16280,2,2,1,1,19,11,5,13,0
16285,-10,-3,-7,-9,-13,4,-13,-7,0
16290,1,-2,-8,-9,-5,-34,-24,-2,0
16295,0,-4,-11,-12,-40,-14,29,8,0
16300,-4,-6,1,3,25,28,18,-6,0
16305,4,3,-1,0,1,-6,-11,13,0
16310,-5,-5,-8,-5,-8,-13,-11,-14,0
16315,-2,-2,-15,-1,19,19,11,-2,0
16320,6,10,19,8,0,7,1,-11,0
16325,-6,-5,12,4,-5,-13,6,8,0
16330,6,0,2,6,12,12,-2,-3,0
16335,0,0,-7,-6,3,-4,-7,8,0
16340,0,0,13,6,-3,5,-6,1,0
16345,-2,-1,-13,-3,6,-2,8,5,0
16350,-5,2,11,-3,-18,-9,-6,-2,0
16355,-6,-8,-18,-9,-3,-17,-23,-7,0
16360,-1,-3,2,-4,-14,5,20,6,0
16365,3,0,-2,6,18,15,-2,3,0
16370,5,4,11,10,14,-1,24,11,0
16375,-9,-5,-2,-9,-14,-12,-41,-18,0
16380,-4,-6,-17,-1,-3,4,8,7,0
16385,3,-4,-19,-12,-2,7,37,13,0
16390,0,8,42,1,-34,-4,7,-2,0
16395,5,6,7,11,31,12,1,4,0
16400,-3,-4,-7,-2,2,-9,-39,-9,0
16405,-11,-14,-29,-10,0,-8,-20,-11,0
16410,9,8,21,15,15,27,18,21,0
16415,0,3,15,6,6,0,4,27,0
16420,6,-3,-5,-1,9,-2,-9,-3,0
16425,-9,-2,-10,-13,-32,-23,-17,-9,0
16430,2,-5,-15,-8,-3,6,5,1,0
16435,-2,1,9,4,-1,-4,4,2,0
16440,-1,-4,-11,-1,15,6,1,6,0
16445,-2,-3,2,-6,-24,-23,-17,-8,0
16450,-8,-5,-12,-6,-1,-14,-3,-2,0
16455,3,-2,4,0,-4,25,22,-5,0
16460,3,0,-8,0,7,-5,-3,-1,0
16465,4,4,12,4,10,6,19,4,0
16470,-2,-10,-32,-3,14,26,7,0,0
16475,4,11,30,3,-7,-19,-38,-10,0
16480,-10,1,8,1,-3,-1,8,-7,0
16485,3,-4,-9,-4,3,8,4,9,0
16490,-1,-2,-3,-5,-26,-15,-4,-3,0
16495,-4,6,0,1,-6,-10,-2,-6,0
16500,-2,-7,-6,-3,-2,-9,-25,-3,0
16505,2,7,7,5,9,4,2,6,0
16510,2,-1,-8,1,19,26,26,-15,0
16515,-8,-10,-23,-16,-26,-25,-17,-12,0
16520,0,-3,9,3,-1,6,14,13,0
16525,1,-11,-21,6,20,10,-15,-10,0
16530,-2,9,9,-4,4,-4,-14,11,0
16535,3,4,9,-3,-18,-7,8,7,0
16540,2,-1,-5,-2,-1,-4,3,-3,0
16545,-5,-8,-8,2,9,3,-4,-3,0
16550,-3,5,1,-7,-20,-19,-15,-1,0
16555,-2,-2,4,1,1,3,12,-3,0
16560,4,4,4,2,-5,-4,8,-1,0
16565,2,2,4,6,10,13,20,10,0
16570,-1,-4,-2,3,13,8,-5,-6,0
16575,-6,-10,-22,-15,-16,-15,-10,-5,0
16580,-9,-16,-30,-17,-27,-21,-18,-9,0
16585,4,13,40,11,5,12,18,4,0
16590,-3,1,-3,10,32,32,7,1,0
16595,3,-6,-3,-3,-13,-27,-6,1,0
16600,-8,-8,-17,-16,-39,-21,-15,-7,0
16605,-1,2,4,1,2,-6,-8,-6,0
16610,-2,-12,6,7,12,3,-22,-24,0
16615,3,16,38,29,38,41,40,11,0
16620,-3,-3,-9,-7,0,0,-6,-1,0
16625,-4,-4,-11,-18,-36,-41,-37,-6,0
16630,-5,-3,-16,-13,-19,-15,5,1,0
16635,1,-10,-28,-10,6,16,8,7,0
16640,10,15,35,18,4,-1,6,10,0
16645,-5,-1,-1,1,4,-1,-12,-4,0
16650,2,1,2,1,12,9,7,9,0
16655,-6,-13,-14,-7,-15,-18,-6,-5,0
16660,3,0,3,6,9,19,22,3,0
16665,3,-1,-5,-1,1,-4,6,3,0
16670,-5,-9,-5,-2,-8,-2,-6,-2,0
16675,0,4,6,3,15,8,-1,-1,0
16680,-2,-2,-4,-8,-14,-27,-38,-11,0
16685,-5,-2,3,4,0,15,9,-5,0
16690,7,1,-3,-3,-3,-5,11,7,0
16695,-1,-5,-6,-7,-15,7,10,-1,0
16700,-2,7,21,11,10,-10,-17,5,0
16705,-4,-7,-7,-7,-4,0,-8,-26,0
16710,-9,-4,-7,-6,-7,-11,-15,-4,0
16715,0,-1,-5,0,11,17,14,5,0
16720,4,-3,-15,-3,10,13,13,-1,0
16725,5,8,8,-4,-10,-10,3,19,0
16730,2,4,11,10,6,3,1,-3,0
16735,-7,-2,-6,-10,-16,-33,-29,0,0
16740,-6,-12,-10,-10,-14,2,-4,-6,0
16745,-6,-10,-14,-2,4,0,6,4,0
16750,7,20,15,6,3,4,-10,0,0
16755,3,3,2,0,1,-3,2,-1,0
16760,-4,2,-3,0,8,14,9,3,0
16765,-5,-8,-12,-5,2,3,3,-5,0
16770,2,-4,0,5,7,2,3,8,0
16775,4,-1,6,6,-2,3,-2,0,0
16780,-9,-5,-2,-7,2,-2,-3,-10,0
16785,0,2,15,8,19,4,-7,-4,0
16790,0,0,1,-11,-41,-26,9,1,0
16795,-3,-1,-6,-4,-8,-2,-16,-13,0
16800,2,0,-7,0,9,2,23,16,0
16805,-2,-2,-7,-6,-17,-12,-23,-2,0
16810,-6,-8,-15,-6,17,7,-2,-7,0
16815,10,6,5,10,34,58,33,10,0
16820,-3,4,12,8,2,-1,-14,-2,0
16825,4,10,0,-5,-22,-26,5,5,0
16830,-8,-10,-5,-7,-23,-30,-17,-10,0
16835,-6,-14,-18,-16,-21,-9,0,-6,0
16840,1,4,-11,11,44,32,6,-4,0
16845,8,18,45,16,11,13,18,9,0
16850,-1,-5,-14,-13,-31,-20,-15,-5,0
16855,-6,-6,-4,0,-1,-18,-16,-1,0
16860,-5,-5,-6,-12,-14,-4,6,-6,0
16865,-2,-6,-21,0,9,5,4,-2,0
16870,-6,3,11,6,18,12,3,-6,0
16875,7,11,8,10,5,-1,-19,2,0
16880,0,-6,-7,-11,-8,-1,27,1,0
16885,3,-1,-4,-1,-16,-16,-5,1,0
16890,-7,-8,-8,-10,-10,-5,-8,-3,0
16895,-7,-3,-7,-7,4,-12,-24,3,0
16900,7,7,15,10,-5,-3,2,-6,0
16905,-3,-5,-5,3,18,23,14,5,0
16910,3,-2,-3,8,16,14,6,2,0
16915,-5,9,17,0,-9,-5,2,-6,0
16920,7,-2,5,2,-2,-11,-14,9,0
16925,-3,1,2,-7,-23,-7,-1,-2,0
16930,1,-7,-7,-2,14,16,25,3,0
16935,-1,-2,-2,2,-1,-10,-6,-10,0
16940,0,1,-4,-7,-11,6,15,2,0
16945,-4,-4,-6,-1,-10,-15,-19,-12,0
16950,3,8,1,6,22,16,-5,5,0
16955,-2,-5,-5,-5,4,9,10,-3,0
16960,-4,-3,1,-7,-17,-11,-14,-7,0
16965,0,0,-3,-4,0,-6,-8,2,0
16970,2,3,7,5,2,9,8,3,0
16975,2,0,2,9,12,4,3,0,0
16980,0,3,-2,4,10,9,1,2,0
16985,-4,-6,-21,-21,-25,-21,3,-3,0
16990,-1,0,14,-3,-19,-15,1,-1,0
16995,0,-3,-1,1,8,9,8,-3,0
17000,0,2,-7,2,9,19,-7,4,0
17005,3,0,30,10,9,7,0,-2,0
17010,-1,5,7,8,4,-1,-9,0,0
17015,-6,-8,-6,-5,-10,-24,-15,-8,0
17020,-7,-10,-26,-12,-19,-12,2,-3,0
17025,-4,-3,-14,-14,8,16,16,1,0
17030,1,9,26,10,10,7,-18,-6,0
17035,-3,-6,-6,-3,-8,-7,3,-3,0
17040,2,4,5,-1,-10,-8,7,1,0
17045,2,2,-7,3,10,12,-11,-1,0
17050,-2,-7,-17,-6,4,-15,-5,1,0
17055,-2,-1,-1,-8,-13,13,17,2,0
17060,-4,-7,-3,-2,2,-15,-8,-6,0
17065,-2,5,0,0,-5,-1,-13,-8,0
17070,3,-7,-7,4,1,5,12,15,0
17075,0,2,2,-2,6,-5,-11,-10,0
17080,-5,-3,-1,-11,-19,-14,-21,-7,0
17085,-5,-7,-2,2,-1,3,13,-1,0
17090,4,3,1,4,16,18,-1,6,0
17095,1,2,2,-1,-12,-6,5,6,0
17100,-1,-4,-14,-1,16,-4,-15,-3,0
17105,-8,-1,18,-2,-21,-20,-25,-10,0
17110,7,6,-4,-2,0,14,40,12,0
17115,-3,-1,-14,-2,-7,1,-6,-1,0
17120,0,-4,18,6,13,9,-20,-6,0
17125,0,-2,-8,3,10,6,13,8,0
17130,0,-1,-7,-5,-13,-13,9,1,0
17135,-5,-4,-1,-2,-5,-10,-29,-6,0
17140,7,5,2,9,14,12,25,4,0
17145,3,1,-2,-1,1,-2,1,2,0
17150,-4,-4,-2,-10,-14,-2,-11,-22,0
17155,-1,1,1,12,16,-3,11,-4,0
17160,-5,-1,0,-7,-7,-5,-21,-1,0
17165,1,-6,-1,-2,-2,11,11,-1,0
17170,0,2,-6,-4,-3,-10,10,4,0
17175,-2,-7,-4,-9,-17,-14,8,0,0
17180,-4,-2,4,5,3,-9,-16,-6,0
17185,2,8,6,9,20,18,19,12,0
17190,-1,-7,-8,-10,-22,-14,-18,-1,0
17195,0,-3,-2,-10,1,8,-1,0,0
17200,-3,-3,-4,-6,-15,-17,0,-2,0
17205,-4,-8,-15,-1,7,-15,-46,0,0
17210,-2,-4,-10,1,13,12,15,-14,0
17215,7,19,41,19,16,27,9,5,0
17220,-1,-1,-2,-5,-10,-8,6,3,0
17225,-2,-2,-4,2,-8,-15,-8,-1,0
17230,-6,-9,-16,-11,-13,-4,-20,-8,0
17235,-1,-5,-12,-2,-2,2,13,5,0
17240,0,4,9,15,33,16,5,-1,0
17245,-1,-1,2,-5,-7,-6,-1,-5,0
17250,2,2,3,-6,-4,8,1,10,0
17255,-8,-9,-10,-7,-33,-35,-18,-10,0
17260,-5,0,-2,3,5,9,-8,-5,0
17265,4,-1,2,-2,1,-5,13,-3,0
17270,-4,-2,-2,-4,-9,-12,4,-3,0
17275,1,0,5,6,17,22,2,4,0
17280,0,0,-1,-7,-14,-17,-9,-1,0
17285,-2,3,-3,1,14,17,-9,-3,0
17290,0,-1,5,3,1,-6,-9,2,0
17295,2,0,-1,-3,-5,-10,3,7,0
17300,-1,0,4,4,4,22,19,5,0
17305,-1,5,4,-1,3,-3,-2,-6,0
17310,1,-2,0,-2,-12,0,5,-4,0
17315,-6,-8,-32,-17,-1,-6,-22,-6,0
17320,4,5,23,11,8,-2,12,8,0
17325,-3,-3,-3,-3,-22,-6,-3,1,0
17330,-5,-3,-2,0,-1,-17,-17,-1,0
17335,-1,-1,-3,-7,4,8,-2,0,0
17340,-3,-4,-6,-1,0,12,31,-4,0
17345,1,1,1,6,21,6,-11,-3,0
17350,-4,-3,1,-5,-7,-7,-13,-11,0
17355,1,-4,-4,-2,-8,2,30,7,0
17360,0,-2,-10,-7,-12,-13,-16,-2,0
17365,0,-3,0,0,-5,4,30,0,0
17370,-7,2,7,1,8,-6,-25,-8,0
17375,3,-5,-8,4,24,22,2,0,0
17380,2,6,18,7,-9,-10,2,4,0
17385,-3,-7,-17,-14,-13,-9,4,-2,0
17390,-6,-3,1,1,1,-4,-4,-5,0
17395,0,2,11,5,7,1,8,-2,0
17400,-1,0,-8,-9,-5,0,-30,-1,0
17405,2,0,-2,3,4,12,9,3,0
17410,-2,-2,-4,3,18,14,17,2,0
17415,-4,-2,-4,-7,-35,-32,-19,-6,0
17420,-5,-4,-2,-2,-5,-6,1,-6,0
17425,1,-2,4,0,0,1,-13,-3,0
17430,2,1,-2,0,-2,14,5,5,0
17435,-2,0,0,-2,10,-5,1,-4,0
17440,0,-3,-9,-7,-12,-3,-13,-2,0
17445,-4,-3,-1,-8,-17,-16,-1,10,0
17450,1,2,-4,5,11,9,18,1,0
17455,1,7,26,13,-3,-15,-23,-1,0
17460,1,2,-5,-2,11,16,1,6,0
17465,8,5,5,6,13,23,64,17,0
17470,-3,0,-2,2,-3,-8,-17,-4,0
17475,-7,-2,-4,-1,0,-2,-3,-4,0
17480,0,-5,-15,-11,-6,-8,-5,-3,0
17485,0,-4,-1,-5,-13,-24,-38,-9,0
17490,3,1,16,8,2,9,28,-5,0
17495,-2,-1,-7,-4,1,0,-6,-5,0
17500,-4,1,-2,3,4,7,4,0,0
17505,-4,-3,-4,-5,-1,6,-4,-20,0
17510,-10,-7,-6,-8,-14,-17,-21,4,0
17515,7,4,7,6,21,13,8,-6,0
17520,-1,-2,-7,-1,-3,-9,4,-10,0
17525,3,6,7,8,20,-2,-2,14,0
17530,-8,-10,-10,-18,-56,-35,-24,-2,0
17535,-8,-8,-19,-11,-5,-12,-23,-11,0
17540,8,4,13,4,9,29,45,11,0
17545,-2,-3,-2,4,12,7,-11,-9,0
17550,4,2,1,3,13,7,13,3,0
17555,-1,-5,-13,-13,-28,-21,-19,-3,0
17560,-5,-9,-5,-4,-8,-18,-11,-7,0
17565,-2,0,-6,-4,1,11,11,0,0
17570,1,6,14,11,15,5,0,-1,0
17575,5,1,2,2,6,18,31,17,0
17580,-4,-2,-14,-6,0,-6,-15,1,0
17585,2,5,16,5,-9,-8,1,13,0
17590,-2,-4,-9,-3,3,-4,-13,-13,0
17595,-3,-1,4,5,8,9,-5,0,0
17600,2,3,1,1,2,15,31,6,0
17605,-6,-8,-16,-11,-19,-25,-21,6,0
17610,5,3,4,-3,-5,5,7,4,0
17615,-7,-4,2,-6,-9,-19,-27,-21,0
17620,1,5,7,15,27,14,2,-1,0
17625,6,-1,-15,-9,0,15,13,7,0
17630,-6,-4,4,-4,-31,-27,-9,-7,0
17635,-2,-9,-26,-6,3,4,3,-3,0
17640,-2,14,36,2,-7,-20,-26,-4,0
17645,-5,-2,-1,7,20,18,-5,-9,0
17650,7,4,5,1,26,15,21,1,0
17655,-2,-2,1,-7,-31,-13,-9,10,0
17660,2,-3,0,0,-4,2,3,8,0
17665,-8,-1,-10,-7,-8,-7,-1,-19,0
17670,0,-3,-6,4,26,18,-1,1,0
17675,5,2,4,1,3,-6,0,32,0
17680,0,-5,-16,-13,-31,-18,2,2,0
17685,1,0,5,-1,-3,8,-8,0,0
17690,-5,-3,-4,-2,2,-2,3,29,0
17695,7,-4,-16,-6,10,2,-1,-25,0
17700,1,8,30,13,0,1,4,-9,0
17705,-3,-5,3,-1,-14,-25,-27,-7,0
17710,1,2,1,0,2,17,8,11,0
17715,-1,1,-1,2,5,2,6,9,0
17720,6,-9,-34,-15,-4,0,10,24,0
17725,-4,-5,19,5,-3,-5,-1,-21,0
17730,-5,4,6,5,5,-2,-11,14,0
17735,9,2,6,4,11,2,-14,-19,0
17740,-2,-6,-18,-5,2,8,8,-9,0
17745,-4,-3,-8,-5,-16,-19,-13,6,0
17750,4,-5,-8,-5,-7,-6,11,6,0
17755,-2,6,26,8,8,22,11,9,0
17760,-13,-16,-36,-19,-3,-22,-39,-9,0
17765,8,12,39,10,-7,15,36,5,0
17770,-3,2,1,5,11,12,18,-15,0
17775,-6,-1,-7,-5,-1,-9,-2,-1,0
17780,-8,-10,-12,-3,-10,-10,-24,-46,0
17785,0,7,9,3,10,13,16,2,0
17790,9,-1,-8,-2,-10,-10,-5,9,0
17795,-3,-6,3,1,6,8,5,-33,0
17800,6,5,4,-1,2,-2,-7,49,0
17805,-6,-5,-23,-4,-4,-6,-1,-21,0
17810,-3,-5,-2,2,1,3,-35,-15,0
17815,0,3,-2,1,5,18,49,-19,0
17820,0,2,20,3,-2,-5,-5,-21,0
17825,-2,-1,-7,-2,-1,-12,-4,14,0
17830,-6,-4,-8,-5,5,-2,-29,-5,0
17835,-6,-3,-2,4,4,-2,-13,6,0
17840,-1,1,-1,-2,-20,4,31,12,0
17845,2,1,0,-2,5,2,-7,1,0
17850,-4,-4,0,0,9,8,2,-20,0
17855,-2,-2,-3,-10,-25,-31,-29,8,0
17860,-3,-2,5,3,3,3,14,-7,0
17865,1,-6,-17,-10,1,7,3,8,0
17870,-5,-6,-20,-11,-13,-17,0,-15,0
17875,1,11,28,17,16,20,9,13,0
17880,-3,-2,-18,-9,3,-15,-29,5,0
17885,-8,0,34,12,-6,-2,-11,-21,0
17890,9,-2,-2,0,6,3,-13,0,0
17895,-3,0,-10,3,-1,3,24,9,0
17900,3,1,0,-2,-2,-5,-6,-28,0
17905,-6,-7,-24,-9,9,2,-18,3,0
17910,-10,3,14,-1,3,9,21,45,0
17915,3,-5,-14,-9,-23,-25,-12,-23,0
17920,5,2,18,7,16,20,12,42,0
17925,-6,-3,-7,-4,-18,-17,-1,-10,0
17930,-4,1,2,-3,-13,-3,0,-75,0
17935,-7,-6,-7,-4,6,-5,-13,14,0
17940,-1,4,1,3,16,19,14,1,0
17945,0,-1,-7,2,1,-4,2,23,0
17950,-3,-5,-13,-9,-11,-14,-17,5,0
17955,3,3,18,5,9,24,17,5,0
17960,6,11,29,17,7,8,-2,-11,0
17965,-1,1,-6,-5,-3,-4,-5,-1,0
17970,-5,-7,-14,-4,-2,-11,-13,-11,0
17975,2,-2,-1,2,7,9,10,-9,0
17980,-8,-8,-9,0,1,-3,-14,12,0
17985,-1,0,-5,-3,1,2,15,4,0
17990,-3,-2,2,2,1,0,-1,-8,0
17995,-8,-4,-7,-12,-22,-21,-20,32,0
18000,9,-1,-2,-8,-12,-7,6,44,0
18005,0,-5,-1,4,5,-17,-30,-29,0
18010,3,2,-5,3,21,31,38,-39,0
18015,-2,-3,-22,-7,-7,-1,-15,17,0
18020,-2,6,29,-1,-20,-8,18,10,0
18025,0,-8,-6,-1,1,0,-13,7,0
18030,8,8,11,11,11,-2,-6,27,0
18035,2,-4,-9,-1,10,1,-5,-2,0
18040,-12,-4,-21,-16,-19,-26,-30,-29,0
18045,11,3,0,4,9,31,53,14,0
18050,-2,5,20,9,3,-2,-9,1,0
18055,-4,-3,0,8,9,3,-2,4,0
18060,-1,-8,-20,-8,4,3,-1,-13,0
18065,-9,-4,10,-3,-11,-20,-10,-24,0
18070,2,0,-31,-17,-32,-11,7,27,0
18075,1,7,35,8,12,8,-7,1,0
18080,-7,-4,-15,2,16,-4,-24,51,0
18085,9,4,6,1,-1,21,39,-63,0
18090,0,-5,-6,-10,-16,-9,11,7,0
18095,-5,-4,-8,-6,-6,-9,-8,-15,0
18100,-3,-4,2,5,9,1,-13,-22,0
18105,-1,7,-1,-1,4,-3,-27,20,0
18110,0,-8,-7,3,9,19,35,-25,0
18115,-2,0,9,-3,-4,-4,-16,-37,0
18120,-5,-8,5,0,-5,-8,-1,-22,0
18125,6,5,1,1,-1,-7,-7,19,0
18130,-4,-5,7,9,18,17,-3,4,0
18135,5,6,-8,-7,-22,-23,13,23,0
18140,-7,-13,-35,-21,-22,-12,6,-29,0
18145,0,9,35,10,-1,-7,-13,10,0
18150,-1,-2,13,8,5,-3,-22,-38,0
18155,-5,-10,-17,-1,24,17,7,-8,0
18160,2,12,28,5,-23,1,8,-8,0
18165,-11,-12,-21,-8,-10,-24,-14,1,0
18170,2,8,7,4,18,25,8,20,0
18175,0,-6,-17,-12,-15,-21,-11,-1,0
18180,-1,-1,2,-8,-19,-4,10,-19,0
18185,-1,-1,9,4,14,9,-10,12,0
18190,-3,-1,-7,-14,-25,-40,-20,3,0
18195,7,-3,-10,-1,7,18,11,-7,0
18200,1,-1,3,10,20,8,-6,1,0
18205,-8,-27,-36,-8,5,15,15,1,0
18210,8,33,40,10,11,3,-8,20,0
18215,-1,3,21,14,6,7,5,-44,0
18220,-8,-8,-18,-5,2,-7,-14,-37,0
18225,0,2,23,6,-4,6,15,-17,0
18230,-3,-19,-31,-11,0,-3,19,7,0
18235,-4,0,-3,-6,-5,4,0,12,0
18240,1,3,10,13,27,22,9,2,0
18245,-4,-6,-24,-19,-28,-32,-24,-3,0
18250,-4,-10,-8,-16,-41,-20,3,10,0
18255,0,3,10,6,14,12,5,2,0
18260,-1,-4,-9,5,13,6,-2,5,0
18265,-5,1,-3,-1,12,9,-1,10,0
18270,6,-2,2,-2,-13,-25,-10,4,0
18275,-6,-2,-6,-3,-8,3,-3,-20,0
18280,5,9,18,13,10,16,31,9,0
18285,-1,4,4,1,4,9,-16,7,0
18290,-3,-8,-9,1,6,-1,2,-31,0
18295,-6,-13,-29,-13,5,-2,-10,28,0
18300,1,3,18,-3,-37,-33,-17,-1,0
18305,6,13,12,-2,-9,1,13,3,0
18310,-10,-6,-10,2,18,17,-7,7,0
18315,-1,-3,7,10,23,5,5,11,0
18320,1,-7,-28,-11,-22,-10,7,8,0
18325,-5,-7,-18,-13,-19,-25,-24,-6,0
18330,-3,0,-2,-5,0,-3,-3,3,0
18335,1,7,23,14,30,29,14,4,0
18340,2,4,9,5,12,13,17,4,0
18345,-4,-1,-1,-4,-29,-29,-11,6,0
18350,-4,-3,0,-5,-9,-3,-2,3,0
18355,-3,4,7,2,-13,-15,-21,-6,0
18360,-1,-5,-8,-1,29,32,-2,0,0
18365,-7,-7,-42,-18,-6,-15,0,15,0
18370,0,11,62,22,4,-8,-5,-5,0
18375,9,13,24,7,0,14,21,15,0
18380,-4,-5,-9,-5,-12,-23,-6,-10,0
18385,3,-4,-20,0,25,33,10,10,0
18390,11,5,17,4,-7,-6,-9,-30,0
18395,-3,-9,-10,-11,-30,-29,-4,-6,0
18400,-9,-8,-11,-11,-24,-20,-6,0,0
18405,0,-3,0,2,18,17,9,-2,0
18410,0,0,-5,6,17,28,6,17,0
18415,2,4,7,12,27,7,7,4,0
18420,1,-1,-9,-4,2,-9,-7,-14,0
18425,1,0,6,-10,-52,-21,13,-7,0
18430,-2,-1,7,-2,10,3,2,2,0
18435,-9,-3,-7,-1,-1,-3,-29,-11,0
18440,4,-6,-18,-1,22,27,20,12,0
18445,4,7,20,8,3,0,16,-1,0
18450,-5,-14,-37,-19,-14,-7,-5,3,0
18455,-6,6,19,3,-16,-16,-16,-3,0
18460,11,26,41,23,41,24,-12,8,0
18465,2,-4,1,5,16,13,3,-3,0
18470,3,6,-5,-7,-35,-16,26,9,0
18475,-8,-16,-34,-22,-25,-35,-18,-11,0
18480,-8,-9,-19,0,8,5,-14,-9,0
18485,1,8,16,7,20,26,0,-4,0
18490,-10,-11,-8,-6,6,-30,-17,-3,0
18495,4,2,-9,-10,-47,-13,33,8,0
18500,-8,-8,-11,-13,-13,-12,1,18,0
18505,6,-1,19,13,14,6,-10,4,0
18510,-3,-5,-9,1,16,13,-22,1,0
18515,-3,-15,-19,-4,8,14,21,3,0
18520,1,14,18,-1,-17,-16,9,12,0
18525,-2,-4,15,9,5,0,-1,-1,0
18530,3,13,12,0,-1,-7,-31,-3,0
18535,-4,-15,-15,-1,4,-1,10,1,0
18540,-5,-18,-41,-17,-17,7,19,-13,0
18545,-6,4,16,13,22,8,-9,-4,0
18550,-2,-8,-7,-8,-16,-16,-4,-7,0
18555,4,11,5,-2,-13,0,-12,3,0
18560,-5,-4,9,3,14,-6,-6,-11,0
18565,2,5,-11,-3,2,2,-5,1,0
18570,-3,-6,-11,-5,-2,1,6,-5,0
18575,-2,-5,-12,-9,-22,-22,-11,0,0
18580,-3,-5,-10,-17,-12,-18,-18,-13,0
18585,6,13,36,17,3,21,48,11,0
18590,-4,1,-2,5,16,6,-12,-19,0
18595,-1,4,3,1,7,7,-8,-1,0
18600,5,4,3,9,16,18,0,0,0
18605,-7,-15,-31,-15,-12,-17,-21,15,0
18610,11,6,13,3,-15,-10,9,-7,0
18615,-4,6,18,1,-5,-8,-4,-5,0
18620,-5,-1,5,1,0,3,-2,-8,0
18625,-9,-12,-19,-9,5,-12,-22,-5,0
18630,0,-4,-12,-1,-7,13,26,21,0
18635,0,-4,-14,-7,-1,0,8,-1,0
18640,5,7,33,15,4,-1,4,9,0
18645,-5,-4,-2,1,16,9,-7,-25,0
18650,0,2,-2,-3,9,6,-4,9,0
18655,0,-2,-27,-17,-37,-22,-6,0,0
18660,-7,-5,-1,-1,1,5,4,-20,0
18665,4,6,36,10,-2,-6,2,-2,0
18670,-4,4,6,3,11,1,-14,-4,0
18675,3,-2,5,2,15,10,9,15,0
18680,3,-4,-14,1,-3,14,23,-8,0
18685,-4,-8,-25,-12,-7,-8,-1,-16,0
18690,-7,-6,-8,-3,7,2,-2,14,0
18695,3,1,13,1,-13,-10,1,-2,0
18700,-8,0,-6,-3,-10,-22,-32,-6,0
18705,3,2,-2,-4,-9,-11,-8,3,0
18710,-3,-10,-21,-3,0,7,22,7,0
18715,-1,10,12,9,20,12,-20,-10,0
18720,4,0,16,-1,-6,-6,8,-1,0
18725,0,8,-1,-3,-13,-3,9,0,0
18730,1,-6,-19,-11,-7,3,-4,1,0
18735,-4,-9,-10,-3,7,-8,1,-3,0
18740,-2,-3,-1,-1,1,-3,-19,-1,0
18745,-3,-3,-5,0,0,-12,-20,-6,0
18750,4,4,13,13,8,23,43,5,0
18755,2,5,12,6,17,24,1,3,0
18760,1,2,-1,2,3,5,1,20,0
18765,-5,-8,-21,-13,-21,-28,-8,-23,0
18770,-2,3,8,0,-15,-20,-32,-3,0
18775,-1,-4,1,-2,3,9,5,-8,0
18780,-2,-1,-9,-2,2,-2,2,7,0
18785,-1,-2,-5,-4,10,20,5,14,0
18790,-5,-4,-5,-9,-10,-11,3,-5,0
18795,-1,-2,10,4,8,14,11,-2,0
18800,2,1,-2,1,-4,-19,-21,-1,0
18805,-2,6,24,11,24,26,1,-4,0
18810,5,9,14,9,5,-14,-8,8,0
18815,0,-12,-10,-10,-39,-17,-3,-1,0
18820,-9,-16,-25,-13,0,-5,0,-7,0
18825,5,8,28,12,3,1,-8,2,0
18830,-3,-5,-11,-5,3,14,1,-7,0
18835,3,6,9,11,16,6,-1,2,0
18840,-6,-8,-14,-5,-6,-8,-9,-6,0
18845,-1,-6,-21,-13,-23,-7,20,5,0
18850,-2,2,8,0,-1,7,1,4,0
18855,9,0,-2,0,16,20,9,-38,0
18860,0,3,9,-1,-14,-35,-16,1,0
18865,-8,-4,-13,-6,-3,9,-10,-4,0
18870,1,1,5,3,-3,-12,17,3,0
18875,-6,-2,-6,0,1,5,5,12,0
18880,-2,-1,4,-3,8,14,-14,-3,0
18885,2,4,5,-3,-13,-19,0,-5,0
18890,-5,-7,-12,-7,-9,-1,-8,4,0
18895,-7,3,13,6,8,-8,-7,2,0
18900,-1,-2,-3,-8,-15,-5,-9,2,0
18905,-1,0,-9,-1,7,-13,-6,21,0
18910,3,7,12,1,-7,1,-3,-12,0
18915,-8,-3,-9,-2,1,5,13,-4,0
18920,9,4,2,13,30,29,-1,7,0
18925,-2,0,11,9,12,17,-2,2,0
18930,-5,0,-7,-17,-50,-58,-22,1,0
18935,-5,-8,-17,-19,-38,-30,-7,3,0
18940,1,1,7,2,7,8,16,-4,0
18945,-4,-6,-6,-1,10,15,8,-1,0
18950,-5,-5,-16,6,33,29,8,5,0
18955,12,24,37,16,20,8,-8,-2,0
18960,2,-1,-2,-5,-12,-10,-21,-2,0
18965,-1,1,-16,-17,-28,-27,8,-3,0
18970,1,-3,16,11,-2,-5,27,2,0
18975,1,-2,-7,2,11,6,-17,38,0
18980,-1,-4,-3,-1,16,28,20,-21,0
18985,-2,3,3,-2,-1,-9,-14,3,0
18990,-3,0,-7,-3,-4,1,-3,1,0
18995,-1,-8,-16,-5,-16,-5,7,-4,0
19000,-3,0,7,-1,1,-19,-24,2,0
19005,0,1,-4,2,5,11,-6,2,0
19010,-1,3,11,5,12,13,9,-2,0
19015,1,-4,0,6,22,13,0,-9,0
19020,-9,-11,-17,-20,-50,-44,-14,-11,0
19025,3,2,-4,-3,0,7,21,-2,0
19030,-4,-2,2,-2,0,-6,-39,-3,0
19035,5,2,7,13,30,46,57,37,0
19040,-2,-4,-6,0,4,-15,-22,-31,0
19045,-4,-1,-4,-5,-11,-5,5,-9,0
19050,0,3,7,-1,-4,9,-1,-3,0
19055,-5,-8,-17,-18,-26,-33,-26,8,0
19060,-1,-1,4,5,5,1,0,3,0
19065,2,0,7,11,19,17,-4,9,0
19070,3,2,-1,3,16,13,20,-16,0
19075,-5,-4,-6,-16,-32,-36,-18,-24,0
19080,-7,-2,-2,0,-10,-8,-3,5,0
19085,2,-2,0,-3,0,2,-11,-1,0
19090,3,2,0,4,1,13,23,15,0
19095,1,-3,-1,2,9,2,12,-4,0
19100,-1,2,3,2,2,8,-1,-2,0
19105,-3,-2,2,-3,-11,-21,-7,-2,0
19110,-4,0,-2,-3,4,4,-12,-1,0
19115,8,0,2,4,1,2,13,-2,0
19120,0,0,-4,-3,-4,-2,5,14,0
19125,-4,-3,-6,-8,-8,-5,-18,-5,0
19130,-4,0,1,-1,-5,-10,-2,-4,0
19135,-6,-2,-3,-2,4,6,-8,-8,0
19140,9,3,2,4,16,16,18,7,0
19145,-1,-2,2,2,-8,-15,8,1,0
19150,-3,-6,-10,-12,-17,-20,-13,-1,0
19155,-3,-2,-13,-1,-6,-7,-9,-6,0
19160,0,1,14,4,11,17,6,2,0
19165,-2,0,4,5,19,21,17,-3,0
19170,-2,-2,-2,-8,-18,-12,-4,-2,0
19175,-5,-1,-6,-3,-5,-7,-5,-12,0
19180,-7,-6,-14,-7,-14,-17,-24,-17,0
19185,7,5,2,3,11,36,43,17,0
19190,-3,-1,4,-4,-8,-14,-15,2,0
19195,-7,-1,4,5,11,11,0,-32,0
19200,-6,-3,-1,-1,-1,-6,-10,-42,0
19205,-7,-5,-3,-4,-13,-24,-19,-5,0
19210,4,6,1,6,13,23,32,9,0
19215,4,-3,-3,-2,-2,-6,-16,0,0
19220,-5,0,-2,-4,-7,-11,4,10,0
19225,-2,-5,-3,0,2,-1,-6,-10,0
19230,1,2,2,2,2,3,8,10,0
19235,-1,1,2,0,-3,-2,-8,-4,0
19240,-2,0,-1,-3,-2,-10,3,7,0
19245,4,4,-2,0,7,28,16,9,0
19250,2,-2,2,-2,-10,-6,-3,7,0
19255,-6,-4,-10,-7,-9,-8,-7,-2,0
19260,1,0,1,7,15,2,-8,-3,0
19265,-7,0,7,-5,-2,-10,-17,-3,0
19270,2,-2,-5,2,-4,3,3,-9,0
19275,-4,1,-3,-6,-4,-12,10,-34,0
19280,5,-6,-5,-16,-32,-3,17,28,0
19285,-7,-1,-1,9,15,-18,-48,-11,0
19290,0,1,6,3,16,11,7,-9,0
19295,9,4,-4,-4,-3,27,51,23,0
19300,7,7,13,8,10,-7,-20,21,0
19305,6,0,3,0,0,9,24,-40,0
19310,-3,-7,-17,-4,-7,-7,-26,10,0
19315,0,4,2,7,17,6,8,11,0
19320,5,7,8,0,-8,-8,-9,4,0
19325,-4,-6,-10,-5,-6,-12,-19,21,0
19330,-4,2,12,4,8,10,-8,-23,0
19335,0,-4,-10,-3,10,8,-4,9,0
19340,-3,-7,-11,-3,-11,-7,29,-6,0
19345,-8,-8,-23,-18,-40,-51,-56,24,0
19350,4,-5,0,-9,-5,11,34,0,0
19355,-1,1,9,9,14,12,5,-3,0
19360,1,0,3,5,29,23,13,2,0
19365,0,2,12,6,-1,1,3,-1,0
19370,-4,-5,-14,-9,-33,-35,-13,2,0
19375,-8,-8,4,-6,-4,-4,-21,-35,0
19380,-9,4,7,4,6,5,-1,-21,0
19385,-3,0,-11,-4,5,8,11,-25,0
19390,9,5,10,7,20,25,20,5,0
19395,6,-2,-8,1,0,-4,-1,26,0
19400,-19,-3,2,-1,-8,-12,-25,-62,0
19405,1,-1,3,-5,-6,1,14,38,0
19410,-9,-4,-7,-1,3,0,0,-12,0
19415,-1,1,7,3,4,-2,-26,6,0
19420,5,2,-7,-2,-3,17,38,12,0
19425,3,2,4,0,-6,-4,-4,10,0
19430,-4,1,-2,0,-1,-15,-23,-4,0
19435,-1,-3,-5,1,6,10,12,18,0
19440,6,1,-1,-2,1,-6,-10,33,0
19445,-1,1,5,0,3,17,19,8,0
19450,4,0,-4,3,2,-19,-3,34,0
19455,-3,-1,-2,-13,-33,-14,0,3,0
19460,-6,-6,-10,-6,-2,-10,-24,-19,0
19465,5,1,-2,0,11,25,58,25,0
19470,2,10,24,13,18,6,-23,-13,0
19475,-5,0,4,2,4,-6,-14,4,0
19480,3,-6,-8,-4,-9,3,18,27,0
19485,2,-3,-10,-6,-7,-17,-11,59,0
19490,-2,-6,-9,-5,1,5,-16,-39,0
19495,-12,-2,1,-3,4,5,-27,-76,0
19500,3,0,-5,3,14,17,30,14,0
19505,-1,1,-1,-7,-26,-26,-41,-12,0
19510,-6,-4,-6,-8,-20,-18,13,47,0
19515,8,1,-3,-1,4,4,-5,12,0
19520,-12,-5,-2,0,0,-15,-35,-12,0
19525,-1,-2,7,1,4,1,-6,-70,0
19530,2,-2,-4,-9,-17,-6,16,14,0
19535,-3,-11,-12,-10,-15,-10,8,2,0
19540,15,7,4,7,15,12,4,98,0
19545,-7,-4,10,9,4,-8,-25,-96,0
19550,-6,-2,-8,-2,0,-16,-40,5,0
19555,10,5,-2,2,10,26,47,1,0
19560,-7,-5,-11,-6,-2,14,11,41,0
19565,5,-2,-6,-7,-9,-19,10,23,0
19570,-9,1,-1,0,9,10,-7,-63,0
19575,0,1,12,7,3,-9,-25,2,0
19580,-9,-3,-1,-2,-6,-2,-6,-52,0
19585,-7,-9,-12,-16,-35,-38,-18,-16,0
19590,-4,1,-1,1,-10,-6,3,17,0
19595,6,0,1,1,4,2,19,82,0
19600,3,1,6,6,8,6,-4,-28,0
19605,1,-1,-4,-3,16,10,-5,26,0
19610,-10,-7,-20,-10,-4,-5,-12,-11,0
19615,2,5,28,10,-6,-10,0,43,0
19620,22,8,12,5,0,0,-5,31,0
19625,-5,-5,-4,4,6,5,8,-56,0
19630,3,-3,-6,-3,6,12,2,22,0
19635,-4,-2,-11,-2,4,8,8,-15,0
19640,1,-5,-9,-18,-32,-31,-1,-23,0
19645,-11,3,5,-3,-22,-7,5,123,0
19650,-5,-9,-6,-6,0,-3,-7,-121,0
19655,-2,2,2,5,13,4,-8,-12,0
19660,-10,-5,-1,0,7,8,8,-79,0
19665,-13,-7,-7,-1,3,-8,-30,2,0
19670,18,5,12,6,6,16,32,37,0
19675,-5,-4,-18,-4,-1,-1,-11,-36,0
19680,-4,-2,6,-2,-5,-1,-1,32,0
19685,3,1,7,5,12,12,8,-38,0
19690,-17,-7,-16,-6,-1,-14,-31,-17,0
19695,2,-7,-3,-3,-9,5,25,1,0
19700,0,7,14,4,-12,-3,18,-10,0
19705,0,1,1,-1,9,8,-10,32,0
19710,5,4,14,9,5,2,5,26,0
19715,2,-3,-21,-14,6,8,-9,-6,0
19720,-8,-7,-16,-18,-28,-29,-28,38,0
19725,-2,0,1,-2,-9,-11,3,-29,0
19730,14,6,0,4,8,19,43,95,0
19735,-4,2,4,1,3,2,5,-54,0
19740,-6,-4,-1,3,8,4,-14,-34,0
19745,5,1,3,6,11,12,21,8,0
19750,-13,-4,-4,-8,-17,-26,-30,80,0
19755,13,3,4,0,3,17,34,37,0
19760,1,0,7,7,4,5,-1,-38,0
19765,9,-1,-10,-6,-3,-4,-13,23,0
19770,-11,-2,-4,1,5,15,17,-18,0
19775,-3,0,1,7,-3,-15,-29,28,0
19780,-4,2,4,0,-2,-5,1,-9,0
19785,2,6,4,3,2,10,0,4,0
19790,7,5,19,16,26,19,2,-7,0
19795,-10,-7,-13,-20,-37,-35,-23,-51,0
19800,-9,-16,-35,-22,-26,-30,-15,-12,0
19805,7,4,5,10,23,40,40,18,0
19810,2,-5,-4,-8,-10,-10,-16,-82,0
19815,-6,-1,-2,5,12,3,-10,-20,0
19820,-1,2,1,1,5,-7,-16,7,0
19825,-4,-7,-6,-15,-39,-33,-9,-5,0
19830,-10,-7,-13,-6,2,1,-17,-23,0
19835,7,9,24,6,5,17,39,26,0
19840,8,10,13,8,13,17,12,72,0
19845,11,-4,-13,-2,8,6,-4,21,0
19850,-12,1,-1,2,-8,-13,4,-10,0
19855,7,9,27,6,-7,-16,-20,0,0
19860,0,0,3,11,30,26,2,19,0
19865,-11,-4,6,-5,-9,-12,-16,-45,0
19870,18,9,12,4,-21,1,58,56,0
19875,-9,-9,-36,-16,-22,-23,-17,-26,0
19880,-1,0,0,-6,-11,-1,-12,-24,0
19885,1,5,7,7,22,8,-12,4,0
19890,-3,-6,-4,-7,8,13,7,-41,0
19895,-11,0,16,10,5,0,-3,21,0
19900,7,-6,-11,-2,6,-1,-7,-60,0
19905,-2,-1,-14,4,14,15,6,55,0
19910,-13,-16,-21,-10,-11,-17,-21,-61,0
19915,-14,5,19,1,-6,-1,-12,69,0
19920,-3,-12,-24,-22,-39,-42,-2,-48,0
19925,7,14,16,13,13,12,4,15,0
19930,14,5,2,8,9,3,21,64,0
19935,-13,-7,-15,-11,-13,-3,-12,-10,0
19940,5,-2,6,2,11,4,-12,111,0
19945,-8,-9,-20,-11,-7,-3,-1,-120,0
19950,-2,4,1,2,0,7,-3,56,0
19955,6,-3,2,7,10,5,11,-44,0
19960,3,7,10,6,16,39,12,14,0
19965,-9,-12,-24,-13,-12,-30,10,-33,0
19970,-3,13,38,14,-8,-14,-19,-28,0
19975,-7,-8,-11,-8,-8,-5,16,-5,0
19980,-1,2,-8,5,22,30,2,-18,0
19985,3,0,-5,5,13,-1,-2,-11,0
19990,0,-3,8,-10,-24,-19,-20,-21,0
19995,-15,-13,-25,-13,-15,-9,2,-95,0
20000,-3,0,0,2,-5,-7,14,16,0
20005,-6,1,22,4,4,-2,-37,3,0
20010,13,4,-8,2,16,33,29,81,0
20015,12,-3,2,9,25,11,-4,-63,0
20020,1,4,-2,-4,-18,-17,3,-3,0
20025,-14,-6,-5,-14,-34,-22,-13,-31,0
20030,1,-2,-5,-4,4,-6,-15,-11,0
20035,9,3,2,3,24,29,-19,59,0
20040,-6,-3,-1,-3,-9,-24,-4,-48,0
20045,-5,-7,-17,-8,-24,-22,-15,-64,0
20050,-12,-7,2,-3,-12,-10,-13,-84,0
20055,5,9,19,4,4,7,13,78,0
20060,-4,-1,7,6,22,18,2,26,0
20065,1,2,4,10,21,25,20,35,0
20070,-1,-9,-26,-14,-11,-8,-2,-13,0
20075,0,-9,-9,-17,-52,-51,-20,-95,0
20080,-14,-6,-3,-8,-7,-4,3,31,0
20085,-12,-10,-1,-1,11,26,-5,-90,0
20090,-15,0,1,9,32,17,11,97,0
20095,19,1,-3,2,2,0,12,29,0
20100,-3,-7,-5,-8,-18,-21,-26,-34,0
20105,6,4,4,0,5,9,26,30,0
20110,-9,-8,-14,-4,9,3,-18,-3,0
20115,0,10,9,10,16,8,-14,-1,0
20120,3,10,22,7,-26,-26,46,3,0
20125,1,3,14,-2,-15,-15,-26,24,0
20130,-2,-7,-18,0,17,11,18,-59,0
20135,-6,4,29,17,47,46,-6,31,0
20140,7,-4,-25,-14,-23,-17,-11,-22,0
20145,6,-2,5,-18,-66,-61,-1,95,0
20150,-9,-4,-6,-20,-37,-36,-12,1,0
20155,-11,-10,-21,0,14,11,1,-45,0
