Timestamp, Rotation x, Rotation y, Rotation z, Marker
30,-3.875,3.4375,-20.375,0
60,-7.5625,0.125,-22.0625,0
80,-8.4375,-3.1875,-23.5625,0
100,-8.625,-1,-20.8125,0
120,-9.75,9,-20.125,0
140,-12,11.0625,-22.9375,0
160,-13.5,4.625,-25.0625,0
180,-17.3125,-0.6875,-19.3125,0
200,-21.4375,1.3125,-13.9375,0
220,-16.1875,3.6875,-14.125,0
220,-9.25,4.875,-21.1875,0
220,-3.375,10.9375,-24.0625,0
270,-5.25,15.1875,-25,0
290,-3.8125,12,-30,0
310,-0.8125,8.9375,-32.875,0
330,-0.6875,15.1875,-34.1875,0
350,-3,16.25,-36,0
370,-2,12.375,-33.75,0
390,-3.3125,9.625,-30,0
410,-6.125,13.5,-29.9375,0
430,-6.375,23.75,-32.125,0
450,-4.5,22.625,-36.25,0
470,-0.375,14.6875,-36.125,0
490,1.9375,14,-36,0
510,-0.0625,13.9375,-37.375,0
530,-3.25,15.3125,-38.875,0
550,-6.4375,14.5625,-33.875,0
570,-5.6875,12.3125,-27.9375,0
590,-4.125,13.25,-30.6875,0
610,-3.4375,14.0625,-36.9375,0
630,-6.625,15.5625,-35.625,0
650,-9.3125,14.875,-26.5625,0
670,-10.6875,17.1875,-24.75,0
690,-8.8125,13.625,-28.1875,0
710,-9.4375,8.0625,-28,0
730,-13.4375,3.625,-24.625,0
750,-19.0625,2.5,-17.875,0
770,-20.625,-4.6875,-12.4375,0
790,-18.0625,-12.3125,-6.375,0
810,-16.25,-12.125,-1,0
830,-8.375,-3.75,4.6875,0
850,-6.375,10.1875,0.1875,0
870,-5.875,12.5,-5.875,0
890,-4.75,5,2.25,0
910,-2.3125,7.0625,11.3125,0
920,-3.6875,12.3125,9.625,0
940,-6.75,9.1875,12,0
960,-9.125,2.5,17.375,0
980,-2.75,8.1875,11.375,0
1000,0.875,7.9375,6,0
1020,0.8125,4.8125,6.6875,0
1040,-0.4375,3.25,6.875,0
1060,-2.1875,0.6875,4.4375,0
1080,-4.5,-7.9375,4.5,0
1100,-1.0625,-12,6.9375,0
1120,-0.3125,-6.25,8,0
1140,-5.875,-2.3125,1.5625,0
1160,-10.3125,-2.25,-1.5,0
1180,-9.75,-8.8125,3.375,0
1200,-6.4375,-9.6875,4.875,0
1220,-5.625,-0.9375,0.375,0
1240,-5.125,4.375,-4.5,0
1260,-6.9375,1.375,-7.25,0
1280,-5.1875,-5.875,-3.0625,0
1300,-4.6875,-3.75,-2.4375,0
1320,-2.6875,1.3125,-7.0625,0
1340,-2.4375,6.9375,-10.625,0
1360,-0.125,15,-15.1875,0
1380,-0.3125,25.375,-21.5625,0
1400,-0.625,33.0625,-25.9375,0
1420,-1.8125,30.5,-26.8125,0
1440,-5.5625,18.875,-24.25,0
1460,-0.3125,4,-19.4375,0
1480,6.0625,4.9375,-15.25,0
1500,5.1875,17.8125,-13.9375,0
1520,-2.75,21.5625,-13.875,0
1540,-7.75,12.75,-13.5625,0
1560,-4.5625,5.75,-13.125,0
1580,0.8125,6.3125,-12.5,0
1600,2.375,10.1875,-13.75,0
1620,-2,11.125,-12.25,0
1640,-8.3125,9.1875,-9.5,0
1660,-9.8125,9.375,-9.625,0
1680,-5.5,8,-11.1875,0
1700,-3,7,-13.9375,0
1720,-2.9375,5.3125,-15.375,0
1740,-5.1875,5.125,-13,0
1760,-6.0625,3.5625,-9.6875,0
1780,-8.125,5.75,-9.5625,0
1800,-7.125,4.3125,-10.5625,0
1820,-3.875,0.625,-9.3125,0
1840,-4.3125,-0.8125,-5.875,0
1860,-8.8125,2.25,-7.3125,0
1880,-9.5,1.625,-8.6875,0
1900,-10.4375,-0.25,-8.5,0
1920,-10.0625,-0.3125,-8.3125,0
1940,-11.375,0.5625,-6.8125,0
1960,-12.375,1.4375,-6.625,0
1980,-16.625,1.8125,-8,0
2000,-15.8125,-1.9375,-7.1875,0
2020,-12.375,-8.125,-5.0625,0
2040,-12.8125,-6,-4.4375,0
2060,-15.1875,-2.75,-3.125,0
2080,-15.5625,-2.3125,-0.5,0
2100,-15.5625,-0.1875,0.25,0
2120,-18.5,-0.9375,-1.375,0
2140,-18.5,-4.125,-0.4375,0
2160,-16.75,-10.4375,6.5625,0
2180,-11.75,-9.375,11.875,0
2200,-9.8125,-5.25,9.3125,0
2220,-11.1875,-5.9375,7.375,0
2240,-11.4375,-7.9375,8.625,0
2260,-9.375,-7.875,8.375,0
2280,-7.1875,-11.5625,8,0
2300,-5.125,-13.0625,11.125,0
2320,-5.9375,-10.9375,11.5,0
2340,-5.5625,-9.8125,9.3125,0
2360,-6.125,-7.3125,7.0625,0
2380,-7.0625,-4.1875,5.625,0
2400,-7.3125,-3.9375,6.1875,0
2420,-4.875,-4.25,4.9375,0
2440,-3.125,-8.4375,4.625,0
2460,4.0625,-11.1875,3.375,0
2480,5.875,-3.625,-4,0
2500,3.0625,3.1875,-8.9375,0
2520,-3.8125,8.8125,-10.5625,0
2540,-7,6.25,-6.0625,0
2560,-3.0625,-7.9375,16,0
2580,7.5,-20.0625,39.5,0
2600,11.9375,-25,42.8125,0
2620,12.25,-20.125,37.75,0
2640,5.8125,-17.25,36.6875,0
2660,-0.625,-19,44.9375,0
2680,0,-23.4375,57,0
2700,4.5625,-27.1875,67.9375,0
2720,6.125,-29.25,78.0625,0
2740,2.4375,-30.0625,87.0625,0
2760,-2.8125,-27.4375,90.875,0
2780,-4.375,-24.8125,89.125,0
2800,-1.625,-24.0625,88.25,0
2820,3.4375,-25.6875,91.625,0
2840,4.5625,-24.1875,91.375,0
2860,5.5625,-20.5625,83.0625,0
2880,7.3125,-20,75.1875,0
2900,9.625,-21.1875,72.9375,0
2910,7.75,-20.25,50.5625,0
2920,8.9375,-17.875,41,0
2930,8.25,-15.0625,33.5,0
2960,2.6875,-12.375,20.75,0
2980,2.75,-9.625,14.75,0
3000,3.375,-6.375,7,0
3020,1.4375,-1,-4,0
3040,1.6875,0.0625,-10.6875,0
3070,-1.9375,2.6875,-10.625,0
3090,-5.8125,5.125,-11.25,0
3110,-2.375,1.25,-2.6875,0
3130,1.5,3.1875,-4.6875,0
3150,2.5625,-3.5,-1.25,0
3170,3.6875,-7.8125,3.3125,0
3190,6,-8.375,3.25,0
3210,6.1875,-3.75,1.125,0
3230,3.875,-0.5625,1.125,0
3240,2.875,-0.5,2.375,0
3270,0.125,0.9375,6.375,0
3290,-0.1875,1.4375,5.625,0
3310,-0.125,2.75,3.125,0
3320,1.25,5.5625,-5.625,0
3330,3.875,3.25,-9.375,0
3350,-2.6875,2.5625,-5.0625,0
3370,-2.4375,1.8125,-4.4375,0
3380,-3.125,2.0625,-3.3125,0
3400,-3.1875,4,-2.3125,0
3420,-1.4375,4,-1.1875,0
3460,2.0625,5.4375,-5,0
3480,2.5,6.9375,-4.625,0
3480,1,8.25,-4.3125,0
3500,0.125,7.4375,-3.875,0
3520,0.0625,7.125,-2.8125,0
3540,-0.75,5.25,-1.0625,0
3560,-1.8125,3.1875,0.0625,0
3580,-2.3125,2.5,0,0
3620,-0.5625,3.1875,-0.75,0
3650,-1.6875,1.125,-5.6875,0
3660,-3.1875,1.625,-15.125,0
3680,-8.75,5.75,-19.75,0
3700,-10.5,5.25,-21.8125,0
3720,-6.4375,10.1875,-37.625,0
3730,-13.125,23.3125,-65.1875,0
3750,-20.875,35.0625,-78.75,0
3770,-23.5625,34.625,-78.125,0
3790,-24.75,35.75,-72.5,0
3820,-24.1875,44.125,-56.75,0
3840,-23.5,37.75,-47,0
3860,-22.3125,34.625,-43.6875,0
3880,-20.375,31.25,-38.875,0
3900,-17.5625,32.3125,-32.375,0
3920,-15.4375,35.6875,-22.1875,0
3940,-13.125,36.625,-9.1875,0
3960,-9.125,35.4375,7.8125,0
3980,-7.0625,34.6875,23.375,0
4000,-5.5,37,30.375,0
4020,-5.125,38,31.5625,0
4040,-10.625,36.125,30.5625,0
4060,-5.4375,33.0625,28.4375,0
4080,2.875,29.25,20.75,0
4100,13.125,28.6875,10,0
4120,18.625,30.3125,-1.125,0
4140,19.875,31.4375,-7.6875,0
4160,20.375,30,-9.5,0
4180,18.625,29.5,-10.375,0
4200,13.375,25.125,-6.875,0
4210,7,20.875,0.75,0
4230,-1.375,22.375,8.625,0
4250,-5.875,26.75,16.625,0
4270,-10.6875,30.375,23.9375,0
4290,-19.25,29,31.5625,0
4310,-18.8125,24.3125,36.5,0
4330,-17.4375,23.9375,34.25,0
4350,-14.125,26.3125,24.4375,0
4370,-8.8125,23.125,20.1875,0
4390,-9.0625,19.5625,15.5,0
4410,-12.625,24.25,9.3125,0
4430,-14.8125,23,-1.4375,0
4450,-14.6875,12.875,-5.125,0
4470,-9.8125,8.875,-7.875,0
4490,-4.8125,17.9375,-16.9375,0
4510,-7.625,28.5625,-27.75,0
4530,-13.0625,31,-31.5625,0
4550,-11.9375,29.25,-30.6875,0
4570,-5.8125,27.25,-29.75,0
4590,0.375,24.5625,-30.75,0
4610,3,25.125,-29.6875,0
4630,6.25,25.5,-25.3125,0
4650,9.0625,29.75,-20.1875,0
4670,11.1875,29.25,-15.6875,0
4690,12.6875,24.1875,-10.0625,0
4710,12.875,17.1875,-2.25,0
4730,11.8125,11.5625,3.625,0
4750,10.1875,10.125,4.3125,0
4770,9,8.3125,3.75,0
4790,6.125,6.25,4.4375,0
4810,3.4375,1.5625,5.4375,0
4830,2.6875,-2.4375,5.6875,0
4850,2.875,-5.75,5.0625,0
4870,1.875,-8.6875,4.3125,0
4890,-0.3125,-8.1875,4.25,0
4910,-0.6875,-7.1875,6.6875,0
4930,-0.25,-8.5,8.4375,0
4950,-0.5625,-9.3125,8.5,0
4970,-0.75,-9.75,9.375,0
4990,0.5625,-9.625,8.8125,0
5010,2.8125,-6.75,6,0
5030,4.125,-5.875,2.75,0
5050,4.25,-6.9375,3.625,0
5070,7.5,-10.6875,4.0625,0
5090,11.875,-12.0625,2.125,0
5110,14.1875,-10.125,1,0
5130,14.4375,-12.3125,3.0625,0
5140,13.75,-14.6875,7,0
5160,13.5625,-18.1875,9.3125,0
5180,13.6875,-19.875,11.4375,0
5200,11.8125,-20.125,10.8125,0
5220,9.6875,-21.25,8.5625,0
5240,8.5625,-24.9375,8.6875,0
5260,9.625,-30.5,10.875,0
5280,9.625,-33.3125,11.125,0
5300,7.6875,-35.4375,13.1875,0
5320,4.4375,-37.3125,18.9375,0
5340,0.5625,-38.625,25.8125,0
5360,-0.3125,-41.375,28.3125,0
5380,3.8125,-44.0625,28.9375,0
5400,5.5,-43.375,30.3125,0
5420,5.5625,-43.5,31.25,0
5440,4.75,-45.75,30.75,0
5460,5.1875,-48.9375,31.5625,0
5480,6.8125,-53.625,32.5,0
5500,9.5,-59.3125,31,0
5520,9.0625,-60.9375,28.125,0
5540,5.9375,-61.8125,26.4375,0
5560,2.9375,-64.8125,27.1875,0
5580,4.75,-69.625,24.4375,0
5600,11.5,-72.0625,19.875,0
5620,14.25,-68.875,17,0
5640,11.875,-65.9375,16.0625,0
5660,7.875,-64.6875,15.75,0
5680,10.6875,-62.0625,17.125,0
5700,15.125,-57.5,17.3125,0
5720,18.25,-54.75,17.5625,0
5740,18.9375,-53.25,17.125,0
5760,19.125,-50.5625,18,0
5780,17,-49.8125,21.0625,0
5800,13.125,-50.0625,25.6875,0
5820,8,-47.25,26.8125,0
5840,10.25,-46.4375,24.1875,0
5860,15.4375,-46.9375,22.75,0
5880,15.25,-48.4375,26.3125,0
5900,14.8125,-50.6875,31,0
5920,12.1875,-48.3125,30.3125,0
5940,10.25,-43.875,27.5,0
5960,10.75,-41.5,27.6875,0
5980,12.5,-42,29.75,0
6000,14.625,-39,30.0625,0
6020,15.125,-33.6875,29,0
6040,15.0625,-30.3125,29.625,0
6060,17.3125,-30.5625,30.8125,0
6080,19.25,-30.3125,31.9375,0
6100,20.6875,-26.8125,32.3125,0
6120,19.9375,-25.1875,32.6875,0
6140,13.8125,-23.5625,32.5625,0
6160,10.0625,-23.0625,34.6875,0
6180,8.8125,-17.625,27.4375,0
6200,9.125,-16.8125,18.25,0
6220,12.9375,-21.375,19.8125,0
6240,14.5,-25.9375,26.5625,0
6260,13.4375,-28.1875,29.6875,0
6280,13.5625,-27.25,28.5,0
6300,17.5625,-27.5625,27.75,0
6320,25.6875,-26.625,25.5,0
6340,29,-29.875,25.875,0
6360,27.3125,-31.6875,29.875,0
6380,19.6875,-28,34.0625,0
6400,13.0625,-22.5,34.25,0
6420,10.3125,-23.125,31.8125,0
6440,9.5625,-25.8125,33.0625,0
6460,10.25,-27.1875,34.5625,0
6480,9.25,-28.875,32.75,0
6500,10.25,-31.625,32.25,0
6520,6.8125,-30.1875,31.1875,0
6540,3.0625,-24.5625,26.875,0
6560,0.5,-23.375,23.5,0
6580,1.125,-23.125,21.875,0
6600,-0.625,-22.25,20.75,0
6620,0.75,-21.375,19.25,0
6640,1.6875,-19.125,16.9375,0
6660,1.75,-15.75,13,0
6680,0.875,-13.125,9,0
6700,-2.0625,-12.5625,4.375,0
6720,-6.1875,-10.5,0.625,0
6740,-8.4375,-7.25,-2.3125,0
6760,-8.4375,-4.75,-6.5,0
6780,-7.25,-1.625,-12.625,0
6800,-6.4375,0.4375,-18.3125,0
6820,-5.625,0.625,-19.125,0
6840,-4.8125,1.5,-18.25,0
6860,-3.3125,3.4375,-18.1875,0
6880,-5.625,11.125,-20.25,0
6900,-14.5625,20.6875,-25.625,0
6920,-25.25,23.9375,-28.8125,0
6940,-31.875,22.0625,-27.1875,0
6960,-32.125,20.4375,-24.9375,0
6980,-27.6875,17,-26.375,0
7000,-22.625,8.25,-26.1875,0
7020,-26.0625,16.1875,-34.125,0
7040,-36.875,24.5,-42.125,0
7060,-37.625,20.5,-42.125,0
7080,-26.375,18.6875,-46.5625,0
7100,-26.75,24.875,-55.5,0
7120,-30.625,26,-58.4375,0
7140,-30.875,21.25,-52.75,0
7160,-24.9375,18.3125,-46.9375,0
7180,-18.75,18.875,-45.375,0
7200,-21.1875,23.6875,-48.25,0
7220,-29.4375,27.6875,-52.25,0
7240,-34.1875,27.1875,-49.3125,0
7260,-33,24.125,-42.25,0
7280,-30.6875,21.1875,-35.1875,0
7300,-33.1875,21.0625,-33.375,0
7320,-36.25,20.5,-33.0625,0
7340,-40.4375,17.0625,-29.3125,0
7360,-41.1875,16.25,-24.125,0
7380,-38.3125,20.875,-25,0
7400,-28.125,14.5625,-21.625,0
7420,-17.75,2.125,-13.375,0
7440,-16.25,-0.8125,-8.125,0
7460,-21.25,1.0625,-10.5,0
7480,-27.3125,-0.1875,-12.6875,0
7500,-25,0.6875,-8.8125,0
7520,-17.5,-0.125,-0.6875,0
7540,-14.1875,1.75,3.1875,0
7560,-11.9375,4.6875,1,0
7580,-8.375,2.375,2,0
7600,-12.875,5.25,2.25,0
7620,-12.75,4.3125,1.5,0
7640,-10.125,-0.375,6.3125,0
7660,-8.625,-3.4375,15.3125,0
7680,-5.375,-4.1875,18.1875,0
7700,-3.0625,-3.5,15.25,0
7720,0,-7.0625,14.5625,0
7740,1.75,-7.9375,13.375,0
7760,3.75,-7.3125,14,0
7780,4.3125,-6.125,11.75,0
7800,3.5625,0.4375,9.3125,0
7820,0.125,6.8125,5.125,0
7840,-1.75,9.75,5.6875,0
7860,-4.6875,12.6875,8.875,0
7880,-9,15.25,8.75,0
7900,-1.9375,11.75,11.1875,0
7920,-4.9375,9.125,13.25,0
7940,-10.4375,11.0625,9.3125,0
7960,-12.875,9.625,7.5,0
7980,-7.8125,7.875,8.5,0
8000,-1.75,6.8125,8.125,0
8020,3.4375,6.8125,1.6875,0
8040,9.0625,7.75,-6.625,0
8060,10.5625,10.375,-12.75,0
8080,9.625,12.125,-13,0
8100,10.9375,11.0625,-8.5625,0
8120,9.5,9.375,-3.6875,0
8140,7.5625,7.6875,-0.4375,0
8160,7.3125,8.1875,2.5625,0
8180,7,5.625,2.25,0
8200,7.625,4.875,-0.875,0
8220,12.8125,1.3125,-1.875,0
8240,17,-1.1875,-0.875,0
8260,15.25,1.9375,-2.0625,0
8280,11.1875,3.8125,-4.375,0
8300,10.8125,0.4375,-5.6875,0
8320,11.875,1.875,-7.25,0
8340,11.1875,1.0625,-5.8125,0
8360,13,-4.625,0,0
8380,6.625,-3.9375,4.25,0
8400,2.0625,-1.5,4.125,0
8420,-0.125,1.1875,1.3125,0
8440,-0.6875,-0.125,0.4375,0
8460,1.125,-2.8125,3.875,0
8480,3.5,-6.625,6.25,0
8510,3.6875,-9.875,3.8125,0
8530,3.0625,-8.5,9.1875,0
8550,0,-0.625,8.8125,0
8560,-1.9375,2.5,5.8125,0
8580,-1,0.0625,4.4375,0
8600,-0.5625,-2.8125,5.5,0
8620,0,3,5.75,0
8640,3.8125,4.875,6.1875,0
8660,-1.4375,5.25,6.4375,0
8680,-3.625,2.375,2.875,0
8700,-2.4375,2.875,1.375,0
8720,-0.625,6.375,0,0
8740,1,7.6875,-3.3125,0
8760,-6.625,6.5,-3.875,0
8780,-6,6.5625,-4.6875,0
8800,1.3125,6.3125,-5.3125,0
8820,8.875,5.9375,-3.3125,0
8840,9.625,5.8125,-2.5625,0
8860,1.9375,6.1875,-4.75,0
8880,-4.75,7.4375,-3.5625,0
8900,-5.875,7.375,0.5625,0
8920,-1.5625,5.9375,5.6875,0
8940,5.125,1.5,7.25,0
8960,8.25,-1.6875,7.5625,0
8980,11.125,-4.125,6.625,0
9000,12.75,-5,6.4375,0
9020,12.1875,-3.75,4.25,0
9040,10.375,-4.75,2.6875,0
9060,14.5,-8.125,2.625,0
9080,16.1875,-6.75,3.0625,0
9100,11.6875,-4.3125,2.6875,0
9120,7.5,-7,6.0625,0
9140,3.8125,-5.25,5.5,0
9160,0.6875,-2.25,0.625,0
9180,0.8125,-4.9375,0.0625,0
9200,1.9375,-10.4375,5.0625,0
9220,1.875,-11.375,6.4375,0
9240,1.8125,-8.625,5.3125,0
9260,-0.8125,-4.9375,3.125,0
9280,-3.5625,-2.25,2,0
9300,-5.8125,0.6875,2.375,0
9320,-5.4375,0.375,2.5625,0
9340,-5.25,-0.75,1.0625,0
9360,-3.5,0.375,-0.5625,0
9380,-2.1875,3.6875,-2.4375,0
9420,-3.125,2.1875,4.75,0
9440,-6.875,2.1875,3.375,0
9470,0.0625,5.125,-1.5,0
9490,-0.3125,6.5,-1.0625,0
9490,-2.625,5.9375,-1.875,0
9510,-2.5625,4.4375,-3.875,0
9530,-1.375,6.25,-5.9375,0
9550,-0.9375,7.3125,-6.3125,0
9570,-3.125,8.1875,-5.375,0
9590,-5.6875,8,-5.0625,0
9610,-4.9375,7.3125,-4.1875,0
9630,-3.375,8.1875,-5,0
9650,-3.625,9.3125,-7,0
9670,-3.6875,9.0625,-7.1875,0
9690,-4.6875,9.125,-7.5,0
9710,-4,7.875,-7.3125,0
9730,-1.5625,6.25,-7.8125,0
9750,-1.5,6.875,-8.5,0
9770,-2.875,7.3125,-8.3125,0
9790,-4.8125,9.625,-8.4375,0
9810,-6.25,11.25,-9.75,0
9830,-2.3125,8.25,-9.0625,0
9850,-2,7.375,-9.8125,0
9870,-0.875,7.375,-11.0625,0
9890,-2.1875,6.6875,-11.9375,0
9910,-6.375,9.375,-14.625,0
9950,-9.875,11.6875,-16.4375,0
9970,-9.1875,7.5,-15.1875,0
9990,-4,5.4375,-10.8125,0
10010,-2,7.75,-12,0
10030,-5.75,9.0625,-15.5625,0
10050,-10.25,6.25,-16.625,0
10070,-12.25,2,-16.8125,0
10090,-10.25,-3.125,-17.0625,0
10110,-7.8125,-8.25,-15.1875,0
10130,-9.3125,-7.875,-15.25,0
10150,-12.6875,-7.9375,-17.5,0
10170,-11.125,-11.5625,-16.9375,0
10190,-9.625,-13.5625,-16,0
10210,-10.125,-15.4375,-15.875,0
10230,-10.8125,-18.0625,-13.75,0
10250,-11.5,-17.5625,-14.4375,0
10270,-11.1875,-13.8125,-17,0
10290,-8.125,-9.3125,-19.625,0
10310,-7.375,-6,-19.6875,0
10330,-7.5,-1,-17.875,0
10350,-10.1875,3.625,-16.75,0
10370,-10.9375,5.5625,-13.9375,0
10390,-11.0625,4.4375,-9.1875,0
10410,-9.1875,4.3125,-7.5625,0
10430,-4.875,4,-6.5625,0
10450,-2.8125,4.5,-5.75,0
10470,-4.4375,5.625,-5.25,0
10490,-5.6875,5.125,-4.8125,0
10510,-5.8125,4.375,-6.0625,0
10530,-4.5625,3.9375,-7.125,0
10540,-2.375,4.25,-9.0625,0
10560,-1.75,6.5,-9.8125,0
10580,-5.25,9.625,-12.125,0
10600,-5.125,9.9375,-13.875,0
10620,-3.25,12.1875,-14.75,0
10640,-4.8125,14.75,-16.6875,0
10660,-6.625,14.625,-18.875,0
10680,-8.875,16.25,-19.375,0
10700,-14.5,19.625,-18.3125,0
10720,-23.5,22.4375,-12.1875,0
10740,-26.9375,20.1875,-7.4375,0
10760,-26.375,14.9375,-3.1875,0
10780,-25.625,10.375,1.1875,0
10800,-26.375,13,8.1875,0
10820,-27.3125,17.4375,15.3125,0
10840,-27.0625,23.3125,16.6875,0
10860,-28.4375,27.375,16.5,0
10880,-30.625,26.1875,17.3125,0
10900,-31.1875,23.1875,19.8125,0
10920,-29.8125,19.375,17.75,0
10940,-27.8125,15,14.5,0
10960,-25.5625,11.8125,16.6875,0
10980,-23.5,10.875,19.125,0
11000,-21.3125,12.375,13.3125,0
11020,-19.6875,13.125,10.25,0
11040,-17.875,12.25,10.1875,0
11060,-14.625,10.5,10.3125,0
11080,-10.875,8.375,9.75,0
11100,-10.125,6.625,10.0625,0
11120,-10.625,7.125,11.1875,0
11140,-10.3125,9.5625,10.875,0
11160,-7.5625,11.375,9.0625,0
11180,-4.75,10.3125,7.9375,0
11200,-3.1875,9.125,7.75,0
11220,0.6875,7,8,0
11240,1.4375,6.5,6.875,0
11260,0.1875,5.25,4.125,0
11280,0.9375,4.5625,3.3125,0
11300,1.25,5.5625,2.8125,0
11320,0.4375,6.125,-0.0625,0
11340,-0.5,5.75,-0.9375,0
11360,2.3125,4.625,0.625,0
11380,3.9375,4.6875,0,0
11400,3.625,5.1875,-1.8125,0
11420,5,5.1875,-1.125,0
11440,5.3125,4.6875,0.9375,0
11460,1.6875,4.1875,2.5,0
11480,-2.1875,2.25,3.1875,0
11500,-5.0625,1.3125,3.1875,0
11520,-5.75,0.6875,2.625,0
11540,-7.625,0.5,1.875,0
11560,-6.6875,0.875,1.9375,0
11580,-6.0625,1.1875,2.25,0
11600,-5.125,1.75,1.4375,0
11620,-2.75,1.375,0.5,0
11640,0.0625,-0.1875,1,0
11660,-0.375,0,0.5,0
11680,-5.125,-1,0.4375,0
11700,-5.875,-3.25,2.25,0
11720,-7.5625,-2,3.0625,0
11740,-6.125,0.5,2.25,0
11760,-6.9375,0.875,0.25,0
11780,-6.125,-3,3.25,0
11800,-3.8125,-3.0625,6.625,0
11820,-3.875,1.5625,2.0625,0
11840,-6.25,3.5,-3.5,0
11860,-5.4375,2.0625,1.0625,0
11880,-0.5625,1.0625,5.75,0
11900,0.875,1.875,2.4375,0
11920,-0.625,1.875,0.4375,0
11940,-2.875,0.9375,3.9375,0
11960,-1.5,2.125,3.5625,0
11980,-0.8125,1.875,-0.625,0
12000,-0.125,0.4375,-1.6875,0
12020,0.1875,-0.875,-0.6875,0
12040,2,-2.125,-2.0625,0
12060,2.875,-3.375,-4.375,0
12080,1.25,-5,-4.8125,0
12100,1.625,-5.6875,-3.75,0
12120,1.4375,-5.5625,-5.1875,0
12140,0.5625,-6.375,-7.6875,0
12160,0.5625,-7.1875,-8.125,0
12180,-0.9375,-9,-7.75,0
12200,-0.125,-7.25,-9.4375,0
12220,0.625,-6.1875,-11.5,0
12240,1.4375,-4.0625,-10.3125,0
12260,0.5,-3.1875,-7.875,0
12280,-0.25,-1.8125,-8.25,0
12300,-1.5,-1,-9.5625,0
12320,-1.375,0.5625,-7.3125,0
12340,-3.625,1.5625,-4,0
12360,-5.5,-0.5625,-4.625,0
12380,-9.625,-0.5625,-8.375,0
12400,-10.3125,2.4375,-9,0
12420,-8.6875,4,-7.625,0
12440,-7.125,3.3125,-7.875,0
12460,-6.0625,1.1875,-6.3125,0
12480,-6.375,1.875,-8.3125,0
12500,-6.6875,0.25,-8.625,0
12520,-6.4375,1.125,-5.9375,0
12540,-6.4375,5.5,-5.0625,0
12560,-6.625,8.1875,-6.3125,0
12580,-7.4375,8.6875,-6.0625,0
12600,-7.9375,8.625,-4.25,0
12620,-9,6.8125,-2.375,0
12640,-9.9375,3.25,-1.5625,0
12660,-10.375,-0.0625,-0.375,0
12680,-9.125,-0.6875,0.75,0
12700,-7.5625,0.375,1.3125,0
12720,-5.375,-1.0625,3.875,0
12740,-4.9375,-2.75,7.0625,0
12760,-5.125,-3.5,8.6875,0
12780,-7.25,-3.625,9.25,0
12800,-8.8125,-4.125,8.125,0
12820,-6.9375,-3.4375,9.9375,0
12840,-7.125,-2.5625,12.875,0
12860,-7.125,-1.75,14.1875,0
12880,-8.4375,-0.8125,14.5625,0
12900,-8.875,0.375,15.9375,0
12920,-9.0625,1.75,14.875,0
12940,-5.75,4.0625,10.4375,0
12960,-2.1875,3,9.5625,0
12980,-0.1875,2.4375,10.0625,0
13000,-0.5625,1.5625,7.625,0
13020,0.75,-0.375,5.5625,0
13040,1.875,1.125,3.8125,0
13060,2.75,2.9375,-0.375,0
13080,1.625,3.3125,-2.75,2000
13100,4.75,2.0625,0.125,0
13120,5.75,2,2.625,0
13140,5.625,2,3.4375,0
13160,0.0625,3.0625,3.375,0
13180,-4.0625,3.625,4.375,0
13200,-6.625,3.25,9.6875,0
13220,-9.375,5.0625,9.125,0
13240,-9.1875,4.0625,9.1875,0
13260,-7.4375,3.875,9.625,0
13280,-5.9375,0.5,6.625,0
13300,-5.4375,0.375,3.5,0
13320,-5.125,1.25,3.0625,0
13340,-1.5625,2.5625,4.125,0
13360,0.3125,3.3125,3.5625,0
13380,-1.625,4.875,-0.4375,0
13400,0.625,4.1875,-1.6875,0
13420,1.25,4,-1.375,0
13440,0.125,3.0625,-5.125,0
13460,-0.6875,-0.5,-3.75,0
13480,2.3125,-1.6875,-1.5625,0
13500,4.25,-0.3125,-5.5625,0
13520,3.8125,-0.5,-6.375,0
13540,2.75,-3.5,-3.25,0
13560,3.25,-4.75,-1.6875,0
13580,2.4375,-5.1875,-2.6875,0
13600,-1.125,-6.625,-2,0
13620,-3.1875,-7.5625,0.9375,0
13640,-3.125,-7.375,-0.6875,0
13660,-2.5,-6.75,-1.9375,0
13680,-0.3125,-6,-1.25,0
13700,0.3125,-4.1875,-2.3125,0
13720,1.375,-2.1875,-4.9375,0
13740,2,-3.25,-5,0
13760,5.1875,-4,-3.9375,0
13780,5.4375,-2.6875,-3.75,0
13800,3.75,-1.3125,-5.1875,0
13820,1.375,-2.1875,-7.0625,0
13840,-0.625,-2.9375,-6.9375,0
13860,-1.5625,-1.5625,-6.5625,0
13880,-1.875,-0.3125,-8.1875,0
13900,0.4375,-0.375,-10.125,0
13920,3.875,-0.3125,-11.0625,0
13940,5.1875,1,-12.875,0
13960,3.75,1.25,-13,0
13980,4.125,0.3125,-11.375,0
14000,3.25,0.1875,-10.5,0
14010,1.6875,-0.25,-13.875,0
14030,-1.25,-1.0625,-15.875,0
14050,-1.4375,-0.75,-14.6875,0
14070,-0.25,0.1875,-15.8125,0
14090,1.25,-1.3125,-19.0625,0
14110,-0.0625,-1.75,-21.0625,0
14130,-0.875,3.3125,-19.0625,0
14150,-1.125,1.1875,-18.625,0
14170,0.0625,3.8125,-20.6875,0
14190,-1.625,3.75,-20.3125,0
14210,-1.0625,5.5625,-17.3125,0
14230,1.75,13.375,-13.875,0
14250,-1.0625,14.125,-15.3125,0
14270,-2,12.875,-19.75,0
14290,-2.9375,12.125,-20.1875,0
14310,-4.25,12.375,-20.3125,0
14330,-5.375,19,-19.6875,0
14350,-6.875,19,-21.1875,0
14370,-5.75,21.4375,-21.125,0
14390,-6.125,23,-21.75,0
14410,-8.8125,27.3125,-23.1875,0
14430,-10.8125,30.625,-25.8125,0
14450,-12.5,29.5,-27.375,0
14470,-11.4375,29.8125,-29.4375,0
14490,-10,30.6875,-32.25,0
14510,-11.5,31.8125,-35.625,0
14530,-12.125,33.4375,-37.1875,0
14550,-11.8125,34,-36.3125,0
14570,-10.75,34.625,-34.875,0
14590,-10.75,38.0625,-35.1875,0
14610,-12.8125,37.1875,-35,0
14630,-13.625,37.3125,-33.125,0
14650,-13.375,36.375,-33.375,0
14670,-13.1875,36.5,-33.6875,0
14690,-13.5625,36.5625,-32.75,0
14710,-14,36.625,-30.75,0
14730,-14,35.75,-29.6875,0
14750,-13.5,34.9375,-29.375,0
14770,-13.375,33.9375,-27.375,0
14790,-12.5,31.5,-25,0
14810,-12.3125,29,-24.8125,0
14830,-12.0625,27.3125,-24,0
14850,-11.9375,26.375,-19.75,0
14870,-12.9375,25.5625,-17.25,0
14890,-13.625,25.5625,-17.9375,0
14910,-13.5625,26.6875,-16.4375,0
14930,-12.1875,26.6875,-12.3125,0
14950,-11,24.5,-10.8125,0
14970,-11,22.0625,-11.5625,0
14990,-11,22.625,-9.375,0
15010,-14.125,22.5625,-5.375,0
15030,-11.6875,19.5,-3.9375,0
15050,-9.25,17.5,-4.25,0
15070,-8.9375,16.5625,-2.0625,0
15090,-11.375,15.8125,0.75,0
15110,-11.25,12.9375,3.75,0
15130,-11.3125,12,7.875,0
15150,-11,11.3125,10.375,0
15170,-9,10.875,9.125,0
15190,-11.125,9.4375,10.625,0
15210,-10.25,8.3125,15,0
15230,-5.8125,8,15.5625,0
15250,-4.8125,9.4375,16.125,0
15270,-3.125,8.375,13.75,0
15290,-4.0625,7.5,16.1875,0
15310,-0.25,8.125,17.625,0
15330,2.6875,6.125,16.5,0
15350,5.6875,4.5,12.8125,0
15370,7.5,3.625,14.0625,0
15390,10,4.3125,15.125,0
15410,10.375,3.5625,14.5625,0
15430,8,2.25,15.75,0
15450,9.75,1.625,16.8125,0
15470,11.0625,-0.3125,16.8125,0
15490,9.6875,-1.4375,17,0
15510,7.9375,-1.125,19.8125,0
15530,5.8125,-1.5625,22,0
15550,2,-3.5625,20.625,0
15570,1,-2.75,18.5625,0
15590,2.0625,-1.6875,18.5625,0
15610,3.4375,-1.75,17.6875,0
15630,5,-2.9375,17.0625,0
15650,3.1875,-3.25,16.5625,0
15670,3.5625,-4.125,16.875,0
15690,4,-6.625,16.9375,0
15710,4.5625,-8.9375,16.6875,0
15730,6.625,-10.9375,17.5625,0
15750,6.75,-13,16.6875,0
15770,4.5625,-14.375,16,0
15790,2.875,-15.9375,15.5,0
15810,3.75,-18,15,0
15830,4.4375,-20.0625,14.625,0
15850,6.375,-21.5625,14.4375,0
15870,7.6875,-22.8125,13,0
15890,8.3125,-22.3125,12.375,0
15910,9.125,-23.0625,10.5,0
15930,10.6875,-24.875,9.625,0
15950,12.5625,-25.125,10.4375,0
15970,12.25,-25.6875,10.5,0
15990,12,-27.875,10.4375,0
16010,11.5625,-28.625,11.875,0
16030,10,-27.9375,11.875,0
16040,8.75,-29.5,11,0
16060,10,-30.6875,10.5625,0
16080,12.6875,-29.0625,11.875,0
16100,12.875,-26.875,10.4375,0
16120,14.375,-27.5625,9.5,0
16140,15.375,-27.3125,11.0625,0
16160,14.625,-24.8125,12.75,0
16180,13.8125,-24,11.9375,0
16200,13.0625,-24.9375,11.75,0
16220,11.0625,-23.6875,13.3125,0
16240,9.125,-22.8125,14.625,0
16260,6.75,-23.875,13.4375,0
16280,5.8125,-24.875,13.5,0
16300,4.875,-23.6875,14.25,0
16320,3.3125,-24.3125,12.5,0
16340,1.5,-26.375,10.9375,0
16360,0.5625,-26.625,10.625,0
16380,0.125,-26.5625,11.0625,0
16400,0.3125,-27.3125,10.625,0
16420,0.1875,-28.25,9.75,0
16440,-2.4375,-27.75,9.25,0
16460,-4.4375,-28.125,7.25,0
16480,-4.875,-30.125,6.6875,0
16500,-6.5,-31.375,6.75,0
16520,-8.375,-31.4375,8.0625,0
16540,-8.875,-32.3125,7.375,0
16560,-8.375,-33.0625,5.1875,0
16580,-7.9375,-31.625,3.0625,0
16600,-5.1875,-30.6875,0.75,0
16620,-2.3125,-30.875,-1.0625,0
16640,-0.125,-31.4375,-1.6875,0
16660,1.8125,-31.625,-1.125,0
16680,1.625,-30.6875,-0.6875,0
16700,1.1875,-31.0625,-0.625,0
16720,1.3125,-30.9375,-0.1875,0
16740,2.375,-29.5625,-0.125,0
16760,2.4375,-28.75,-2.5,0
16780,3.5,-29.375,-6.375,0
16800,4.75,-29.875,-8.6875,0
16820,6.9375,-28,-7.9375,0
16840,8.5625,-24.3125,-7.3125,0
16860,9.6875,-24.6875,-8,0
16880,13.1875,-26.4375,-11.5,0
16900,15.3125,-24.4375,-12.1875,0
16920,14.5625,-20.25,-11.0625,0
16940,12.0625,-19.875,-14.0625,0
16960,14.5625,-23.5625,-17.9375,0
16980,17.4375,-23.1875,-17.8125,0
17000,14.1875,-17.9375,-17.75,0
17020,16.375,-13.25,-19.75,0
17040,17.75,-12.75,-25.9375,0
17060,14.6875,-12.5,-30.625,0
17080,13.75,-12.375,-32.375,0
17100,14.3125,-10.75,-34.75,0
17120,12.8125,-9.4375,-35.25,0
17140,7.75,-8.8125,-37,0
17160,4.75,-6.5625,-37.9375,0
17180,0.1875,-2.6875,-35.4375,0
17200,-4.8125,2.6875,-31.375,0
17220,-6.625,11.125,-31.25,0
17240,-8.0625,14.5625,-34.625,0
17260,-9,18.4375,-34.25,0
17280,-9.1875,26.0625,-34.5625,0
17300,-9.625,28,-40.4375,0
17320,-9.8125,27.1875,-45.125,0
17340,-11.875,29.1875,-46.5,0
17360,-12,35.4375,-48.0625,0
17380,-12.1875,36.875,-50.6875,0
17400,-12.625,39.875,-53.25,0
17420,-15.3125,43.4375,-54.4375,0
17440,-16.6875,45.3125,-52.875,0
17460,-16.9375,43.3125,-51.1875,0
17480,-14.125,44.1875,-50.375,0
17500,-14.4375,44.0625,-49.75,0
17520,-16.125,44.3125,-48,0
17540,-19.125,46.0625,-44.625,0
17560,-20.1875,45.75,-40.5,0
17580,-17.8125,46.0625,-37.25,0
17600,-14.5,46.4375,-36.8125,0
17620,-12.75,46.75,-34.625,0
17640,-10.1875,45.875,-30.6875,0
17660,-0.75,42.8125,-27.625,0
17680,5.1875,41.5,-28.5625,0
17700,8.6875,38.4375,-29.9375,0
17720,11.3125,35.625,-28.3125,0
17740,11.4375,34.3125,-25.5,0
17760,8.4375,35.8125,-19.875,0
17780,7.375,30.625,-13.4375,0
17800,10.5625,25.125,-8.9375,0
17820,12.875,22,-7.3125,0
17840,10.5,24.125,-4.625,0
17860,5.5,25.625,6.6875,0
17880,4.25,24,16.5,0
17900,1.9375,20.8125,20.8125,0
17920,1.625,16.4375,18.75,0
17940,1.4375,14.375,19.125,0
17960,-1.125,13.625,25.5,0
17980,-4.0625,14,27.9375,0
18000,-8.5625,11.875,27.5625,0
18020,-10.3125,11.125,27.875,0
18040,-11.375,9.875,30.0625,0
18060,-6.6875,8.75,29.875,0
18080,-3.9375,8.1875,29.5,0
18100,-3.75,8.8125,29.6875,0
18120,-4.1875,5.6875,30.4375,0
18140,-5.5,2.1875,30.25,0
18160,-5.625,0.625,28.9375,0
18180,-5.625,0.25,28.8125,0
18200,-5,-0.375,27.6875,0
18220,-1.875,-1.5,26.9375,0
18240,-0.75,-4.3125,23.875,0
18260,0.0625,-6.625,20.5,0
18280,-1.625,-8.6875,19.8125,0
18300,0.0625,-10.8125,20.375,0
18320,3.25,-14.8125,20.4375,0
18340,5.8125,-17.5,20.4375,0
18360,6.375,-16.125,20.75,0
18380,5.9375,-17.25,21,0
18400,5.125,-21.125,21.875,0
18420,5.4375,-22.3125,22.25,0
18440,5.9375,-21.9375,22.0625,0
18460,6.75,-26.5625,21.625,0
18480,8.375,-28.8125,21.0625,0
18500,9.5625,-27.25,18.625,0
18520,13.25,-27.4375,15.75,0
18540,18.6875,-30.5625,15,0
18560,22.125,-29.875,14.375,0
18580,22.4375,-29.5625,13.875,0
18600,20.5,-32.1875,14.625,0
18620,18.375,-34.625,17.1875,0
18640,13.625,-35.25,18.1875,0
18660,8.6875,-36,16.4375,0
18680,5.9375,-38.5625,15.375,0
18700,1.3125,-40.9375,17.6875,0
18720,-3.5625,-41.25,19.1875,0
18740,-6.5,-41.625,18.875,0
18760,-8.875,-44.25,20.625,0
18780,-13.125,-43.75,25.375,0
18800,-17.9375,-41.5,25.75,0
18820,-20.375,-42.4375,23.375,0
18840,-20.4375,-44.1875,23.25,0
18860,-21.375,-43.25,24.875,0
18880,-20.4375,-41.6875,21.6875,0
18910,-14.8125,-44.1875,14.8125,0
18930,-15.75,-41.375,13.6875,0
18950,-16,-39,8.9375,0
18970,-12.5625,-38.3125,3.1875,0
18990,-8.625,-37.8125,-1.5,0
19010,-6.4375,-34.5625,-5.5,0
19030,-3.9375,-32.0625,-11.25,0
19050,-1.6875,-32.0625,-17.4375,0
19070,0.5625,-31.375,-22.375,0
19090,0.4375,-26.75,-25.6875,0
19110,-0.875,-21.875,-29.6875,0
19130,-1.75,-22.125,-33.6875,0
19150,-3.25,-20.375,-36.75,0
19170,-5.6875,-14.1875,-37.75,0
19190,-6.0625,-9.375,-37.8125,0
19210,-5.8125,-8.375,-37.625,0
19230,-5.0625,-6.1875,-40.375,0
19250,-7.25,1.125,-42.1875,0
19270,-10.75,8.5,-42.1875,0
19290,-12.125,11.5625,-42,0
19310,-12.5625,14.9375,-41.625,0
19330,-12.375,21.0625,-43.0625,0
19350,-13.5625,26.375,-45.125,0
19370,-13.625,26.5,-45.5,0
19390,-10.1875,26.625,-45.125,0
19410,-9.8125,29.1875,-44.8125,0
19430,-12.25,29.25,-45.4375,0
19450,-15.0625,29.125,-45.4375,0
19470,-16.9375,31.375,-42.5,0
19490,-18.1875,34.75,-38.875,0
19500,-18.6875,36.1875,-37.8125,0
19520,-19.4375,35.5625,-36.9375,0
19540,-19.25,37.25,-34.9375,0
19560,-16,38.75,-33.625,0
19580,-14.8125,37.625,-33.6875,0
19600,-15.9375,35.25,-34.375,0
19620,-13.125,34.125,-34.375,0
19640,-11.25,33.875,-34.25,0
19660,-13.0625,33,-32.5625,0
19680,-13.625,32.25,-28.75,0
19700,-14.6875,34.75,-24.5625,0
19720,-16.0625,35,-19.375,0
19740,-18,33.875,-14.125,0
19760,-17.875,32.875,-10,0
19780,-16.875,33.125,-6.6875,0
19800,-19.375,35.25,-0.75,0
19820,-23.375,35.625,5.1875,0
19840,-24.6875,34.0625,11.1875,0
19860,-25.5625,32.25,16.5,0
19880,-21.5,33.125,16.9375,0
19900,-18.4375,31.375,19.125,0
19920,-16.375,25.375,26.5,0
19940,-17.625,22.375,27.25,0
19960,-19.1875,20.625,26.4375,0
19980,-24.1875,17.75,29.3125,0
20000,-27.875,13.1875,33.8125,0
20020,-32.8125,9.6875,36.625,0
20040,-33,7.25,38.3125,0
20060,-29.4375,5.375,39.5625,0
20080,-25,4.8125,41.75,0
20100,-21.4375,5.5,40.125,0
20120,-17.6875,4.1875,36.25,0
20140,-12.9375,3.1875,34.375,0
20160,-7.125,0.875,35,0
20180,-1.8125,-2.0625,34.875,0
20200,3.375,-4.8125,29.75,0
20220,4,-6.75,28.8125,0
20240,1.1875,-11.0625,28.5,0
20260,-3.1875,-13.9375,27.5,0
20280,-0.5625,-17.375,23.9375,0
20300,3.1875,-21.625,26.25,0
20320,4.3125,-23.0625,28.6875,0
20340,2,-23.125,29,0
20360,2.6875,-25.0625,29.25,0
20380,4.625,-28.125,30.625,0
20400,2.0625,-27.8125,30.8125,0
20420,1.1875,-29.4375,30.75,0
20440,-0.8125,-33.25,29.9375,0
20460,-3.6875,-35.625,28.875,0
20480,-5.3125,-36.6875,26.375,0
20500,-5.5,-40.375,25.0625,0
20520,-8.375,-44.875,25,0
20540,-11.0625,-46.875,24.9375,0
20560,-10.375,-47.375,21.125,0
20580,-7.125,-50.125,16.0625,0
20600,-9.375,-52.375,15.0625,0
20620,-13,-49.9375,10.125,0
20640,-10,-50.1875,5.25,0
20660,-7,-54.25,2.8125,0
20680,-6.625,-53.6875,0.125,0
20700,-5.9375,-51,-4.75,0
20720,-0.5625,-51.875,-10.0625,0
20740,2.3125,-50.9375,-13.75,0
20760,2.0625,-48.1875,-17.875,0
20780,1.0625,-46.8125,-20.125,0
20800,2.75,-50.6875,-20.75,0
20820,5.1875,-53.6875,-23.0625,0
20840,5.9375,-52.25,-25.0625,0
20860,3.25,-46.4375,-25.1875,0
20880,0.125,-41.4375,-26.4375,0
20900,-2.1875,-37.1875,-30.6875,0
20920,-3,-32,-33.5,0
20940,-0.625,-27.9375,-34.375,0
20960,1.5,-27.1875,-37.0625,0
20980,7.8125,-25.8125,-39.1875,0
21000,8.25,-23.75,-42.25,0
21020,8.6875,-19.5625,-40.5,0
21040,3.75,-16.1875,-38.8125,0
21060,2.25,-12.625,-38.8125,0
21080,-3.375,-11.6875,-37.1875,0
21100,-5.0625,-11.1875,-36,0
21120,-5.75,-9.375,-36.75,0
21140,-8.3125,-1.4375,-32.8125,0
21160,-10.1875,2.1875,-28.75,0
21180,-8.875,-0.0625,-28.0625,0
21200,-9.25,2.0625,-29.8125,0
21220,-7.4375,4.0625,-30.0625,0
21240,-6.875,4.4375,-30.0625,0
21260,-6.0625,4.25,-29.9375,0
21280,-5.875,6.875,-29.1875,0
21300,-5.9375,9.8125,-28.375,0
21320,-4.9375,7.8125,-28.0625,2001
21340,-3.125,5.375,-28.25,0
21360,-1.6875,1.9375,-26.3125,0
21380,-0.625,0.125,-23.25,0
21400,-3,-1,-19.3125,0
21420,-3,-2.4375,-14.0625,0
21440,-4.5625,-4,-7.6875,0
21460,-4,-6.125,-2.3125,0
21480,-3.5625,-6.5,2.25,0
21500,-4.8125,-5.125,6.9375,0
21520,-4.8125,-2.6875,12.0625,0
21530,-2.3125,-1.6875,16.25,0
21550,-0.25,-1.125,18,0
21570,-0.4375,-0.6875,19.25,0
21590,0.0625,1.0625,21.625,0
21610,0.25,1.625,25.375,0
21630,-0.0625,2.0625,29.1875,0
21650,1.1875,4,33.125,0
21670,2.875,6.375,38.125,0
21690,2.875,8.3125,43.5625,0
21710,0.375,10.9375,49.375,0
21730,1.125,13.125,54.875,0
21750,2.5625,16.1875,59.75,0
21770,4.125,20.0625,65,0
21790,4.75,18.1875,70.4375,0
21810,8.125,13.4375,77,0
21830,12.5625,12.875,79.125,0
21850,13.3125,10.875,78.625,0
21870,13.5,7.625,80.625,0
21890,20.625,2.5625,83.5625,0
21910,29.5,-6.0625,86.6875,0
21930,29.6875,-13.5625,90.8125,0
21950,34,-19.3125,92.625,0
21970,38.0625,-24.125,89.1875,0
21990,38.4375,-24.5625,85.5625,0
22010,37.875,-25.625,83.5625,0
22030,37.9375,-28.4375,82.1875,0
22050,40.75,-29.0625,81.75,0
22070,37.3125,-30.0625,81.5625,0
22090,35.1875,-27,76.6875,0
22110,38.5625,-25.125,71.75,0
22130,42.4375,-23.875,70.9375,0
22150,38.375,-21.8125,71.875,0
22170,37.75,-18.1875,67.4375,0
22190,37.9375,-15.0625,59.875,0
22210,34.3125,-10.75,54.25,0
22230,30.875,-8.1875,46.75,0
22250,26,-8.9375,37.5625,0
22270,25.4375,-9.75,28.8125,0
22290,24.1875,-10.75,24.0625,0
22310,20.875,-10.9375,17.9375,0
22330,22,-11.5625,13.5,0
22350,20,-8.3125,7.9375,0
22370,18.6875,-3.1875,4.0625,0
22390,17.0625,-1.25,1.25,0
22410,14.0625,-1.125,1.8125,0
22430,12.9375,-2.3125,3.25,0
22450,12.875,-1.4375,1.875,0
22470,12.1875,1.4375,0.75,0
22490,10.625,4.0625,0,0
22510,7.25,4.4375,-0.8125,0
22530,1.9375,3.3125,-0.125,0
22550,2.0625,2.625,0.5,0
22570,4.625,1.8125,-0.5,0
22590,4.75,1.5,0.125,0
22610,1.6875,2.8125,-0.1875,0
22630,-3.5,4.125,-1.5625,0
22650,-5.6875,4,-0.9375,0
22670,-5.375,-0.125,2.6875,0
22690,-3.3125,-0.125,6.375,0
22710,-1.9375,4.1875,4.1875,0
22730,-1.5,4.9375,-0.125,0
22750,-2.375,2.75,-0.6875,0
22770,-1.25,-0.375,3.625,0
22790,1,-1.5625,3.5625,0
22810,1.125,-0.5,0.3125,0
22830,-0.3125,-0.5625,-1.4375,0
22850,-0.875,-1.6875,-1.375,0
22870,1.25,-4.5,-0.8125,0
22890,3.5625,-4.6875,-2.25,0
22910,4.375,-3.6875,-5.5,0
22930,3.5625,-5.0625,-4.4375,0
22950,2.3125,-8.5625,-1.0625,0
22970,4.1875,-9.875,-0.125,0
22990,1.5,-9.9375,-2.6875,0
23010,-1.0625,-12.25,-2.3125,0
23030,-4.0625,-14.6875,-2,0
23050,-3.625,-14.1875,-4.25,0
23070,-5.625,-14.75,-7.3125,0
23090,-8.125,-15.3125,-5.5625,0
23110,-8.75,-14.875,-3.1875,0
23130,-8.25,-13.75,-6.75,0
23150,-10.125,-12.875,-9.6875,0
23170,-11.625,-10.25,-7.5625,0
23190,-12.25,-9.125,-6.5,0
23210,-10.5,-6.0625,-8.9375,0
23230,-11.5,-4.75,-11.25,0
23250,-11.4375,-2.8125,-9.5625,0
23270,-11.5625,-0.5,-9.75,0
23290,-12.8125,1.5625,-10.1875,0
23310,-13.125,3.5625,-11.75,0
23330,-12.3125,6.25,-13,0
23350,-10.8125,12.8125,-14.3125,0
23370,-11,12.5,-16.9375,0
23390,-9.875,13.625,-19.1875,0
23410,-9.3125,17.375,-22,0
23430,-11.0625,24.8125,-26.875,0
23450,-12.6875,23.875,-28.5,0
23470,-13.0625,20.75,-27.8125,0
23490,-9.5,22.625,-28.125,0
23510,-8.9375,25.3125,-29,0
23530,-12,22.625,-28.9375,0
23550,-13.5,19.1875,-25.75,0
23570,-14.3125,17.8125,-19.875,0
23590,-14.4375,17.25,-14,0
23610,-13.9375,15.8125,-6.1875,0
23630,-12.4375,10.0625,1.9375,0
23650,-8,10.4375,5.875,0
23670,-5.0625,10.5625,6,0
23690,-3.5625,6.5625,7.25,0
23710,-4.4375,1.8125,10.4375,0
23730,-4.1875,-1.875,15.4375,0
23750,-4.5625,-4.75,20.375,0
23770,-2,-6.375,23.625,0
23790,2.25,-10.0625,27.75,0
23810,8.125,-12.9375,32.625,0
23830,10.75,-11.625,27.5625,0
23850,8.875,-7.625,23.5625,0
23870,0.75,-8.6875,24.1875,0
23890,0.3125,-12.5,23.5625,0
23910,7.0625,-17.1875,20.0625,0
23930,14.3125,-19.375,14.6875,0
23950,12.5,-17.875,14.6875,0
23970,10.1875,-13.75,13,0
23990,6.125,-9.75,10.5,0
24010,2.375,-6.625,10.8125,0
24030,0.125,-4.625,11.4375,0
24050,4,-1.75,7.375,0
24070,8.3125,2.0625,6.625,0
24090,13.375,1.75,5.875,0
24110,14.875,2.875,3.8125,0
24130,12,4.1875,2.5,0
24150,10.8125,3.9375,1.125,0
24170,13.0625,4.6875,0.4375,0
24190,13.625,5.75,0.3125,0
24210,11.8125,6.5625,1.125,0
24230,9,9.625,2.5625,0
24250,6.1875,11.5,4.3125,0
24270,3.8125,11.3125,6.125,0
24290,-0.5625,11.0625,5.375,0
24310,-2.0625,10.25,5.6875,2000
24330,-5.8125,8.875,5.25,0
24350,-3.1875,6.5,8.625,0
24370,-7.125,5.625,8,0
24390,-7.0625,6.875,6.3125,0
24410,-7.875,6.125,5,0
24430,-5.5,4.875,6.125,0
24450,-5.9375,3.875,5.9375,0
24470,-5.25,1.625,3.25,0
24490,-2.625,1.125,1.625,0
24510,0.5,1.125,0.3125,0
24530,2.625,0.625,-0.1875,0
24550,1.125,-0.75,-1.25,0
24570,0.8125,-0.125,-2.0625,0
24590,3.375,-1.625,-1.75,0
24610,5.375,-4,-2.5,0
24630,3.6875,-4.375,-4.625,0
24650,1.25,-4.125,-3.4375,0
24670,0.5,-5.625,0.1875,0
24690,0.8125,-5.625,-0.9375,0
24710,0.125,-5.4375,-4.3125,0
24730,-1.4375,-7.125,-2.625,0
24750,1,-8.4375,0.25,0
24770,1.9375,-8.3125,-0.3125,0
24790,2.6875,-6.625,-5.875,0
24810,0.875,-5.0625,-6.625,0
24830,1.1875,-7.8125,-3.125,0
24850,5.375,-9,-0.375,0
24870,5.125,-5.375,-3.5,0
24890,0.75,-5.25,-3.75,0
24910,-1.3125,-5.0625,-0.625,0
24930,-1.8125,-3.1875,-1.625,0
24950,-1.625,-3.0625,-5.25,0
24970,-0.8125,-5.625,-4.125,0
24990,-0.3125,-7.125,-2,0
25000,1.75,-5.375,-3.8125,0
25020,1.625,-4.5625,-7.0625,0
25040,-0.75,-8.9375,-5.5,0
25060,-1.0625,-9.6875,-3.5625,0
25080,-3.8125,-5.4375,-7.0625,0
25100,-5.75,-4.375,-8.4375,0
25120,-5.4375,-7.375,-3.1875,0
25140,-3.3125,-7.4375,0.25,0
25160,-3.75,-4.5625,-1.75,0
25180,-6.0625,-3.125,-5.625,0
25200,-6.1875,-7.25,-6.25,0
25220,-4.125,-5.8125,-4,0
25240,-2.5,-5.6875,-2.875,0
25260,-1.625,-7.125,-5.5,0
25280,-4.375,-4.375,-6.1875,0
25300,-7.375,1.3125,-3.625,0
25320,-7.375,3.1875,-1.9375,0
25340,-5.9375,-0.4375,-0.8125,0
25360,-3.0625,-0.875,0.125,0
25380,-1.4375,-0.6875,-2.875,0
25400,2,-1.3125,-6.875,0
25420,0.4375,-3.6875,-6.9375,0
25440,-0.5625,-5.9375,-5.1875,0
25460,0.125,-5.375,-7.0625,0
25480,1.0625,-2.875,-9.375,0
25500,-0.25,-3.9375,-9.375,0
25520,-2.4375,-3.6875,-9.3125,0
25540,-3.8125,-3.4375,-11.0625,0
25560,-5.5,-2.9375,-13.1875,0
25580,-6.75,-2.9375,-14.1875,0
25600,-6.25,-3.5,-13.625,0
25620,-5.8125,0.375,-13.3125,0
25640,-6.8125,0.375,-14.125,0
25660,-8.4375,-0.625,-18.0625,0
25680,-11.9375,-0.1875,-20,0
25700,-14.5625,2,-18.9375,0
25720,-14.4375,3.5,-19.25,0
25740,-15.0625,5.8125,-21.1875,0
25760,-16.125,7.6875,-23.25,0
25780,-15.875,9.6875,-22.625,0
25800,-16,9.375,-22.125,0
25820,-15.5625,9.75,-25,0
25840,-15.75,12.125,-28.5,0
25860,-18.25,14.5,-27.1875,0
25880,-19.5625,18.8125,-24.5625,0
25900,-19.5625,22.5625,-26.5,0
25920,-17.75,25.0625,-27.9375,0
25940,-16.9375,28.5,-28.6875,0
25960,-16.875,31.9375,-28.375,0
25980,-15.6875,34.25,-30.125,0
26000,-13.625,36,-31.25,0
26020,-13,38.5,-32.25,0
26040,-12.375,41,-32.625,0
26060,-13.3125,44.4375,-34.3125,0
26080,-14.3125,45.8125,-35.8125,0
26100,-14,45.5,-37.125,0
26120,-15.25,47.6875,-40,0
26140,-15.75,48.6875,-43.25,0
26160,-16.5625,50.375,-43.9375,0
26180,-18.1875,52.625,-43.4375,0
26220,-14.25,49.75,-43.375,0
26240,-12.9375,49.5625,-41.875,0
26260,-12,48.6875,-37.9375,0
26280,-11.875,45.875,-34.1875,0
26290,-12.1875,42.8125,-30.8125,0
26310,-14.875,42.75,-27.3125,0
26330,-16.0625,42.4375,-21.125,0
26350,-17,39.5,-14.75,0
26370,-13.75,36,-8.625,0
26390,-11.4375,37.1875,-6.5,0
26410,-11.125,38.8125,-4.125,0
26430,-12.8125,35.0625,-0.25,0
26450,-11.8125,30.625,3.25,0
26470,-12.4375,32.25,6,0
26490,-12.875,32.1875,7.875,0
26510,-13.25,27.625,11.0625,0
26530,-11.25,21.25,15.0625,0
26550,-14.1875,20.0625,18.375,0
26570,-14.625,17.5,18.3125,0
26590,-11.125,11.125,17.5,0
26610,-10.8125,4.375,20,0
26630,-10,4.6875,23,0
26650,-9.625,4.625,23.75,0
26670,-8.0625,1.375,22,0
26690,-4.9375,-2.9375,20.375,0
26710,-7.0625,-5.5,21.5,0
26730,-4.9375,-6.0625,22.8125,0
26750,0.6875,-4,19.6875,0
26770,1.3125,-3.625,16.1875,0
26790,1.375,-4.25,17.125,0
26810,2.5625,-3.9375,18.75,0
26830,7.5625,-6,18.25,0
26850,9.375,-8.4375,14.875,0
26870,6.375,-8.4375,15.5625,0
26890,4.25,-8.625,17,0
26910,4.75,-11.375,17.125,0
26930,5.5625,-14.75,18.8125,0
26950,6.5625,-16.4375,20.0625,0
26970,5.375,-19.375,20.5,0
26990,5.25,-23.75,24.625,0
27010,2,-25.5,24.4375,0
27010,2.3125,-27.0625,21.9375,0
27030,3.5625,-28.8125,21.375,0
27050,6.375,-30.125,22,0
27070,9.25,-31.125,20.1875,0
27090,14.3125,-32.0625,18.5625,0
27110,17.6875,-33.1875,18.875,0
27130,17.0625,-32.9375,18.25,0
27150,15.8125,-31.875,16.625,0
27170,16.125,-33,15.875,0
27190,13.375,-33.25,18,0
27210,10.5,-34.375,18.5625,0
27230,11,-34.8125,17.5,0
27250,10.625,-33.5625,18.125,0
27270,6.9375,-35.6875,18.875,0
27290,5.5625,-39.0625,17.875,0
27310,6,-40.625,17.5625,0
27330,5.125,-41.8125,15.375,0
27350,2.1875,-45.6875,11.3125,0
27370,-0.125,-49.4375,8.125,0
27390,-1.8125,-49.25,7.5625,0
27410,-2.375,-49.625,5.6875,0
27430,-3.125,-51.5625,2.8125,0
27450,-3.4375,-52.1875,0.8125,0
27470,-4.4375,-52.4375,0.5625,0
27490,-6.0625,-53.625,0.8125,0
27510,-5.625,-54.8125,-1.125,0
27530,-3.875,-52.875,-2.4375,0
27550,-2.75,-50.75,-3,0
27570,-3.9375,-48.6875,-5.125,0
27590,-4.6875,-48.3125,-7.3125,0
27610,-5.25,-48.4375,-8.1875,0
27630,-2.3125,-45.5,-8,0
27650,-1.4375,-44.5625,-11.6875,0
27670,-0.25,-44.3125,-15,0
27690,0,-41.5,-16.3125,0
27710,-3.6875,-37.8125,-15.4375,0
27730,-2.9375,-35.4375,-17.375,0
27750,-1.875,-31.9375,-22.4375,0
27770,-2.1875,-27.25,-23.25,0
27790,-4.3125,-20.125,-24.1875,0
27810,-5.6875,-13.875,-25.0625,0
27830,-6.4375,-12.3125,-26.1875,0
27850,-1.9375,-11.1875,-23.9375,0
27870,0.5625,-6.3125,-26.9375,0
27890,-5.625,-3.5625,-28.625,0
27910,-9.5,-3.375,-31.1875,0
27930,-12.5625,3.75,-31.3125,0
27950,-17,8.1875,-27.4375,0
27970,-17.3125,9.25,-22.4375,0
27990,-12.625,7.875,-23.4375,0
28010,-12.125,11.625,-29.5,0
28030,-16.6875,19.0625,-28.1875,0
28050,-22.1875,23,-23.25,0
28100,-6.1875,29.8125,-34.25,0
28120,-6.5625,31.375,-39.5,0
28140,-6.6875,34.9375,-43.625,0
28160,-8.1875,37.5625,-47.25,0
28180,-9.9375,39.8125,-52.125,0
28200,-12.625,43.5,-52.5625,0
28220,-11,45.125,-52.5625,0
28240,-7.9375,44.3125,-54.5625,0
28260,-9.625,43.9375,-54.9375,0
28280,-12.6875,46,-53.625,0
28300,-15.3125,46.5,-50.9375,0
28320,-16.5625,44.125,-47.4375,0
28340,-17.5,42.0625,-43.125,0
28360,-17.5,41.5625,-38.6875,0
28380,-16.875,40,-35,0
28400,-17.0625,38.1875,-31.1875,0
28420,-16.875,35.8125,-28.125,0
28440,-16.0625,35.4375,-25.1875,0
28460,-14.1875,35,-23.25,0
28480,-13,36.1875,-23.375,0
28500,-12.125,36.625,-22.4375,0
28520,-10.6875,35.6875,-20,0
28540,-6.75,33,-20.0625,0
28560,-2,32.25,-18.375,0
28580,-1.6875,34.4375,-12.625,0
28600,-2.1875,33.5,-7.375,0
28620,-2.25,28.9375,-5.125,0
28640,-3.125,27.5,1,0
28660,-3.3125,25.75,4.5625,0
28680,-4.5,22.5,4.875,0
28700,-5.6875,18.3125,8.1875,0
28720,-5.75,15.5,12.375,0
28740,-8,14.6875,14.625,0
28760,-4.6875,12.75,18.375,0
28780,-5.3125,11.75,22.25,0
28800,-5.6875,9.8125,25.8125,0
28820,-6.3125,6.875,28.75,0
28840,-5.375,5.625,32.125,0
28860,-6.0625,3,37.625,0
28880,-2.3125,-0.1875,40.1875,0
28900,-0.625,-4.4375,39.125,0
28920,-1.625,-3.8125,42.875,0
28940,-6.375,-3.9375,46.875,0
28960,-8.6875,-7.5,46.625,0
28980,-9.5625,-10.4375,42.375,0
29000,-8.3125,-11.375,43.125,0
29020,-5.0625,-13,45.1875,0
29040,-5.25,-12.25,43.5,0
29060,-4.4375,-11.5625,41.5625,0
29080,-4.1875,-13,41.5,0
29100,-3.6875,-14.3125,42.625,0
29120,-3.625,-11.3125,42.5,0
29140,-5.625,-11.0625,42.625,0
29160,-2.6875,-14.3125,41.875,0
29180,-0.8125,-14.75,39.125,0
29200,2.4375,-13.8125,37.8125,0
29220,4.75,-15.375,35.25,0
29240,4.625,-18.5,33.625,0
29260,3.4375,-20.125,32.3125,0
29280,4.1875,-19.5,30.6875,0
29300,2.625,-21.4375,28.0625,0
29320,-0.5,-24.1875,25.25,0
29340,-1.625,-26.875,24.3125,0
29360,-2.6875,-31.25,23.6875,0
29380,-5.6875,-33.75,21.125,0
29400,-8.625,-35.375,19.6875,0
29420,-10.75,-36.8125,18.125,0
29440,-11.3125,-39.625,16.5625,0
29460,-10.625,-41.0625,15.1875,0
29480,-9.25,-40.25,13.5625,0
29500,-6.375,-40.25,10.375,0
29520,-3.8125,-42.375,7.8125,0
29540,-4.25,-42.1875,7,0
29560,-5.4375,-40.3125,6.375,0
29580,-5.375,-41.1875,3.9375,0
29600,-5.875,-41.875,1.75,0
29620,-5.6875,-39.6875,0.125,0
29640,-7.375,-36.875,-0.875,0
29660,-8,-36,-3.375,0
29680,-7.375,-36.375,-4.8125,0
29700,-8.3125,-35.0625,-5.8125,0
29720,-4.75,-33.1875,-8,0
29740,-2.5625,-32,-10.5625,0
29760,-3.1875,-29.875,-12.0625,0
29780,-5.5,-29.4375,-12.75,0
29800,-1.375,-29.1875,-14.9375,0
29820,1.75,-27,-17.9375,0
29840,0.9375,-24.0625,-20.0625,0
29860,-2.6875,-22.5625,-22.125,0
29880,-1.875,-23,-24.625,0
29900,-0.0625,-20.8125,-27,0
29920,1.5,-17.25,-29.6875,0
29940,1.5625,-14.875,-31.5,0
29960,3.125,-16.375,-34.875,0
29980,5.125,-15.375,-38.125,0
30000,5.75,-7.3125,-38.9375,0
30020,2.5,-1.75,-40.3125,0
30040,2.4375,-2.625,-42.8125,0
30060,6.6875,-2,-46.5,0
30080,10.0625,2.5625,-47.625,0
30100,11.125,4.4375,-47.375,0
30120,10.625,4.5625,-49.1875,0
30140,9.9375,6.875,-49.375,0
30160,7.8125,10.625,-48.5625,0
30180,5.75,12.0625,-47.75,0
30200,5.625,11.875,-47.875,0
30220,4.0625,13.625,-47.6875,0
30240,3.3125,18.375,-47.6875,0
30260,2.5625,22.0625,-49.5,0
30280,1.375,22.3125,-50.9375,0
30300,-1.9375,25.125,-49.875,0
30320,-1.25,28.5625,-50.4375,0
30330,0.625,30.625,-50.9375,0
30350,0.0625,31.1875,-49.6875,0
30370,-3.1875,33.5,-47.875,0
30390,-4.8125,37.5,-45.4375,0
30410,-5.4375,37.3125,-42.5625,0
30430,-6.0625,38.625,-40.75,0
30450,-7.8125,41.1875,-36.75,0
30470,-9.375,42.125,-31.5625,0
30490,-9.0625,42.0625,-28.0625,0
30510,-8.125,42.8125,-26.6875,0
30530,-9.375,44.4375,-23.9375,0
30550,-12.8125,48.0625,-17.25,0
30570,-11.3125,46.625,-12.4375,0
30590,-11.75,46.0625,-8.1875,0
30610,-12.6875,45.1875,-3.75,0
30630,-6,43.125,0.625,0
30650,-8.4375,39,6.5625,0
30670,-8.5,37.75,12,0
30690,-7.9375,34.9375,15.375,0
30710,-10.9375,30.1875,18.75,0
30730,-15.125,25.375,22.4375,0
30750,-16.75,24.4375,28.3125,0
30770,-18.9375,23.75,32.8125,0
30790,-22.1875,20.9375,36,0
30810,-25.8125,20.5625,38.3125,0
30830,-25.875,18.9375,39.6875,0
30850,-20.75,15.6875,39.25,0
30870,-17.75,10.5625,37.625,0
30890,-17.5625,9.6875,38.125,0
30910,-18.9375,11.5,38.6875,0
30930,-19.75,11.75,38.75,0
30950,-23,8.875,38.3125,0
30970,-21.3125,4.5625,37.5,0
30990,-15.4375,1.8125,36.5,0
31010,-11.3125,-2.4375,35.9375,0
31030,-10.0625,-6.5,36,0
31050,-11.0625,-8.875,36.75,0
31070,-12.125,-11.25,37,0
31090,-11.125,-15.5,36.8125,0
31110,-10.5,-18.9375,36.75,0
31130,-7.75,-20.8125,36.4375,0
31150,-5.875,-22.0625,36.75,0
31170,-5.125,-23.3125,36.4375,0
31190,-6.5,-22.5625,35.875,0
31210,-6.0625,-21.625,35.9375,0
31230,-7.25,-22.5,35.875,0
31250,-6.5,-23.8125,34.25,0
31270,-6,-24.5625,35.4375,0
31290,-6.5625,-25.3125,37.25,0
31310,-7.0625,-22.375,34.5,0
31330,-12.25,-21.0625,34.3125,0
31350,-15.3125,-22.625,32.1875,0
31370,-14.0625,-25.8125,27.5,0
31390,-10.9375,-29.5,25.5625,0
31410,-6.8125,-32.625,22.75,0
31430,-4.75,-34.375,16.9375,0
31450,-2.6875,-37.4375,13.125,0
31470,1.9375,-40.6875,8.5,0
31490,6.8125,-41.625,1.875,0
31510,7.25,-43.25,-2,0
31530,6,-47.8125,-3.0625,0
31550,7.9375,-52.8125,-3.5,0
31570,6.25,-53.5,-4.25,0
31590,2.625,-51.625,-6.8125,0
31610,-0.125,-50.3125,-10.375,0
31630,-3.4375,-47.625,-14.0625,0
31650,-3.5,-45.75,-17.0625,0
31670,-0.3125,-45.4375,-19.375,0
31690,4.0625,-46.5625,-21.5,0
31710,6.125,-46.3125,-24,0
31730,7,-42.1875,-25.75,0
31750,4.9375,-35.625,-26.5,0
31770,1.3125,-33.625,-27.5625,0
31790,-0.6875,-32.25,-28.6875,0
31810,0.625,-31.1875,-28.625,0
31830,4.875,-30,-29.5,0
31850,8.9375,-27.4375,-30.875,0
31870,8.1875,-22.0625,-32.25,0
31890,4.4375,-16.75,-32.75,0
31910,4.1875,-14.75,-35.5,0
31930,6.6875,-16.75,-37.75,0
31950,8.125,-14.75,-38.6875,0
31970,7.25,-12.4375,-38.8125,0
31990,6.9375,-13.9375,-40.4375,0
32010,4.5625,-18.1875,-42.3125,0
32030,0.6875,-16.5625,-42.1875,0
32050,-4.6875,-8.3125,-39.5625,0
32070,-8.75,-0.125,-35.9375,0
32090,-8.75,1.5625,-34.625,0
32110,-9.75,0.0625,-36.9375,0
32130,-2.9375,1.8125,-38.4375,0
32150,0.8125,2.5625,-38.75,0
32170,0.25,4.9375,-36.5625,0
32190,-7.875,9.6875,-33.125,0
32210,-8.625,10.8125,-30.1875,2001
32230,-6.875,7.0625,-26.75,0
32250,-5.0625,2.6875,-22.8125,0
32270,-6.25,2.9375,-16.75,0
32290,-5.75,2.125,-9.875,0
32310,-6,-0.5,-3.9375,0
32330,-8.5,-2.1875,1.75,0
32350,-10.4375,-0.75,8.375,0
32360,-9.25,0.5,12.6875,0
32380,-8.1875,-0.3125,13.75,0
32400,-10.625,-1,17.0625,0
32420,-13.5625,-5.125,23.375,0
32440,-10.75,-8.625,26.25,0
32460,-14.4375,-7.625,26.625,0
32480,-17.25,-8.8125,29.625,0
32500,-14.9375,-7.5,35.0625,0
32520,-12,-4.375,44,0
32540,-12.3125,-1.0625,55.1875,0
32560,-12.0625,4.875,67.3125,0
32580,-4.4375,7.0625,78.0625,0
32600,2.8125,8.3125,87.9375,0
32620,9.1875,9.5625,91.8125,0
32640,15.5,14.875,93.3125,0
32670,20.75,19.25,100.562,0
32680,-17.25,-8.8125,29.625,0
32700,23,16.875,109.5,0
32720,31.5625,17.5,111.875,0
32740,35.8125,23.4375,116.562,0
32760,35.0625,23.375,118.625,0
32780,43.6875,19.875,107.25,0
32800,51.875,14.875,100.125,0
32820,49.3125,8.25,102.062,0
32840,39.875,0.8125,101,0
32860,47.1875,-4.875,92.5,0
32880,53.9375,-2.25,84.125,0
32900,48.9375,0,81,0
32920,42.1875,-5,74.125,0
32940,44.6875,-9.375,64.3125,0
32960,45.25,-9.125,57.4375,0
32980,37.75,-9.125,51.25,0
33000,36.0625,-11.6875,43.25,0
33020,38.8125,-12.125,32.5,0
33040,40.0625,-10.75,23.75,0
33060,38.375,-7.9375,17.0625,0
33080,35.75,-7.9375,10.875,0
33100,34.5,-8.0625,5.25,0
33120,32.875,-5.9375,1.5,0
33140,30,-2.5625,-2.875,0
33160,28.0625,-1.9375,-6.375,0
33180,26.375,-1.875,-6.8125,0
33200,20.3125,-2.4375,-5.25,0
33220,15.1875,-3.5625,-5.25,0
33240,15.5,-4.6875,-7.75,0
33260,12.5,-4.4375,-8.875,0
33280,7.25,-4.3125,-5,0
33300,4.3125,-5.125,-2.5625,0
33320,6.25,-5.5625,-1.25,0
33340,1.8125,-4.4375,-0.1875,0
33360,-0.0625,-3.5,1.625,0
33380,-0.5,-3.8125,0.3125,0
33400,-3.4375,-3.9375,1.4375,0
33420,-8.8125,-6.5,4.625,0
33440,-8.9375,-8.75,6.6875,0
33460,-3.125,-7.9375,6.625,0
33480,-1.375,-2.5625,4.0625,0
33500,-5.75,-1.3125,1.625,0
33520,-5.6875,-5.6875,3,0
33540,-2.4375,-4.9375,1,0
33560,-3.375,1.5625,-4.1875,0
33580,-4.875,-0.6875,-3.3125,0
33600,-0.9375,-8.5625,4,0
33620,5.125,-7.625,2.125,0
33640,-0.375,-0.3125,-7.375,0
33660,-0.75,-3.4375,-6,0
33680,-1.5,-11.0625,-1.875,0
33700,-0.4375,-14.25,-1.4375,0
33720,5.125,-2.3125,-7.1875,0
33740,0.625,-0.75,-10.5625,0
33760,-2.125,-5.875,-4.1875,0
33780,-3.0625,-10.5625,0.875,0
33800,-1.25,-8.1875,0.8125,0
33820,-1.25,-6.6875,-1.0625,0
33840,-5.5625,-9.9375,3.5,0
33860,-6.9375,-12.3125,6.9375,0
33880,-7.4375,-12.875,8.9375,0
33900,-7,-13.3125,7.75,0
33920,-5.0625,-15.8125,8.25,0
33940,-4.125,-17.0625,8.375,0
33960,-3.4375,-17,5.75,0
33980,-2.8125,-19.1875,0.5,0
34000,-1.8125,-21.375,-1.625,0
34020,-4.3125,-19.5625,0.75,0
34040,-6.375,-20.4375,-1.9375,0
34060,-3.625,-22.6875,-7.25,0
34080,-4.4375,-24.3125,-5.625,0
34100,-6.4375,-22.75,0.25,0
34120,-7,-19.75,-2.0625,0
34140,-7.0625,-16.375,-6.1875,0
34160,-9.4375,-16.8125,-5.75,0
34180,-7.9375,-16.4375,-1.8125,0
34200,-8.5625,-13.6875,-5.375,0
34220,-9.125,-9.25,-9.25,0
34240,-10.5,-9.75,-10.6875,0
34260,-11.1875,-11.1875,-7.5625,0
34280,-11.6875,-6.5625,-7.75,0
34300,-14,0.5,-10.3125,0
34320,-18.5,9.75,-7.6875,0
34340,-18.9375,18.3125,-5.875,0
34360,-16.5625,23.125,-6.875,0
34380,-15.625,22.6875,-7.75,0
34400,-16.875,24.375,-9.25,0
34420,-22.0625,28.1875,-10.875,0
34440,-28.5625,30.375,-12.1875,0
34460,-32.4375,28.0625,-12.0625,0
34480,-30.8125,27.625,-13.875,0
34500,-23.75,26.125,-14.625,0
34520,-18.375,26.375,-20.875,0
34540,-15.625,29.625,-26.25,0
34560,-14.75,26.875,-26.125,0
34580,-13.875,22.0625,-22.0625,0
34600,-14.125,21.625,-16.75,0
34620,-13.625,21.875,-12.1875,0
34640,-14.75,22.1875,-9,0
34660,-17.5,16.625,-4.625,0
34680,-21.625,9.625,-0.6875,0
34700,-26.125,6.75,1.0625,0
34720,-27.5,7.3125,4.125,0
34740,-29.6875,7.25,7.375,0
34760,-34.4375,7.625,9.25,0
34780,-33.875,3.125,11.0625,0
34800,-37.8125,-1.375,11.5625,0
34820,-33.1875,-4.625,11.6875,0
34840,-24.0625,-4.875,11.5625,0
34860,-16.875,-3.75,7.25,0
34880,-14.5625,-4.1875,2.75,0
34900,-13.4375,-6.1875,2.9375,0
34920,-10.75,-6.375,1.8125,0
34940,-7.5625,-2.5625,-0.625,0
34960,-4.25,0.75,-0.125,0
34980,1.1875,2,-0.5,0
35000,9.6875,2.75,-3.3125,0
35020,7.4375,2,-6.125,0
35040,-0.5625,-4.6875,-4.5,0
35060,1.1875,-2.5,-0.375,0
35080,1.4375,5.0625,-0.4375,0
35100,2.5625,11,0.25,0
35120,5.4375,6.3125,2.6875,0
35140,7.9375,0.9375,8.375,0
35160,5.3125,2.6875,8.625,0
35180,3.0625,3.875,6.5,0
35200,4.25,5.4375,9.5,0
35220,3.0625,5.9375,12.375,0
35240,-0.875,4.4375,8.5625,0
35260,-1.6875,-0.5,4.875,0
35280,0.9375,-2.625,4.8125,0
35300,-1.875,-0.0625,1.5,0
35320,-4.1875,-3.3125,2.25,0
35340,-3.6875,-1.5625,2,0
35360,0.25,-1.75,-3.4375,0
35380,1.8125,-2.625,-5.5625,0
35400,5.6875,-4.25,1.125,0
35420,4.5,-3.375,2.125,0
35440,1.625,0,-1.5,0
35460,-3.625,0.125,-2.375,0
35480,-3.9375,-1.1875,1.5625,0
35500,2.6875,2.9375,1.0625,0
35520,-0.25,4,-8.125,0
35540,-0.5625,-2.1875,-0.9375,0
35560,-3.4375,-4.0625,8.5625,0
35580,-2.875,-0.875,2.6875,0
35600,-3.3125,-0.5625,-6.8125,0
35620,-5.1875,-1.5,-0.75,0
35640,-4.3125,-1.5625,6.125,0
35660,-4.9375,-1.875,4.375,0
35680,-6.5625,-0.125,3.375,0
35700,-8.5,1.4375,3.9375,0
35720,-9.1875,-0.5625,1.9375,0
35740,-5.875,0.3125,-1.9375,0
35760,-4.0625,2.125,0.1875,0
35780,-6.9375,3.9375,-0.4375,0
35800,-7.1875,4.3125,-0.6875,0
35820,-6.3125,4.4375,-2.3125,0
35840,-2.5,2.3125,-3.6875,0
35850,0.5625,-2.25,-5.75,0
35870,8.25,-3.75,-10.125,0
35890,10.8125,0.8125,-12.3125,0
35910,11.5625,9.0625,-11.5,0
35930,8.5,14.125,-9.125,0
35950,8.0625,12.25,-2.4375,0
35970,7.75,12.5,4.75,0
35990,7.875,12.9375,6.9375,0
36010,-1.375,10.25,0,0
36030,-2.875,5.3125,3.875,0
36050,1.875,7.0625,7.625,0
36070,9.4375,12.0625,4.3125,0
36090,16.125,19.0625,-2.8125,0
36110,19.75,23.4375,-10.8125,0
36130,21.75,17.75,-11.1875,0
36150,19.75,7.3125,-4.625,0
36170,18.875,8.125,-1.625,0
36190,16.0625,10.8125,-3.3125,0
36210,15.0625,9.4375,-1.25,0
36230,16.9375,6.75,1.0625,0
36250,18.1875,7.875,2.25,0
36270,15.25,10.8125,2.6875,0
36290,15.0625,5.875,5.5625,0
36310,20.0625,6.625,9.75,0
36330,21.6875,11.9375,10.9375,0
36350,25.1875,14.0625,7.5625,0
36370,28.6875,12.3125,6.6875,0
36390,32.5625,11.9375,9.375,0
36410,31.0625,11.25,9.5,0
36430,28.125,9.1875,9.5,0
36450,27.0625,5.25,11.5,0
36470,31.6875,2.5,13.1875,0
36490,34.9375,0.125,13.375,0
36510,36.8125,-1,10.4375,0
36530,37.3125,-6.25,14.375,0
36550,35.0625,-8.9375,18.25,0
36570,27.5625,-6.0625,14.25,0
36590,24.3125,-5.1875,11.875,0
36610,26.0625,-7.4375,11.75,0
36630,31.6875,-5.75,9.5,0
36650,31.0625,-3.1875,6.875,0
36670,27,-4.375,5.5625,0
36690,26.0625,-3.9375,1,0
36710,27.5,-0.125,-4.5625,0
36730,24.125,2.25,-7.1875,0
36750,21.1875,2.5625,-3.625,0
36770,16.25,-0.125,-2.4375,0
36790,10.5,0.375,-6.25,0
36810,7,3,-8.625,0
36830,6.5625,4.3125,-8.0625,0
36850,7.75,2.5,-7.75,0
36870,10.3125,1.75,-6.1875,0
36890,11.5625,2.5,-3.3125,0
36910,8.125,2.3125,-1.625,0
36930,2.8125,-0.5625,-1.0625,0
36950,3,-2.375,0.0625,0
36970,5.8125,-3.3125,2.3125,0
36990,4.3125,-5.4375,2.625,0
37010,3.0625,-6.625,4.125,0
37030,2.875,-8.375,3.1875,0
37050,1.75,-8.125,1.25,0
37070,1.3125,-7.0625,-0.3125,0
37090,0.8125,-7.8125,0.25,0
37110,2.625,-7.875,1.625,0
37130,3.875,-6.875,1.75,0
37150,2.5,-5.75,-0.25,0
37170,1.9375,-4.4375,-1.0625,0
37190,2.5,-2.75,0.5,0
37210,-0.6875,-2.5625,0.4375,2000
37230,-1.75,-1.375,0.125,0
37250,-2.9375,0.1875,-0.125,0
37270,1,0.8125,1.5625,0
37290,4.0625,0.3125,1.6875,0
37310,3.25,2,0.5625,0
37330,0.0625,4.1875,-0.75,0
37350,-1.625,3.875,0.375,0
37370,-3.125,3.625,-0.75,0
37390,-4.875,3.0625,-1.1875,0
37410,-7.125,-0.1875,-0.625,0
37430,-4.1875,-0.75,2.4375,0
37450,-4,2.875,1.375,0
37470,-5.1875,2.75,0.0625,0
37490,-3.875,0.6875,0.1875,0
37510,-2.875,-1.6875,1.6875,0
37530,-1,-1.8125,0.5,0
37550,0.125,-0.9375,-3.75,0
37570,-0.125,-1.5625,-3.25,0
37590,1.875,-2.8125,-2.625,0
37610,-0.3125,-3.125,-5,0
37630,-1.5625,-3.875,-2.75,0
37650,-2,-1.875,-0.125,0
37670,-2.75,-1.6875,-2.4375,0
37690,-2.8125,-1.8125,-3.5,0
37710,-2,-1.8125,1.75,0
37730,-1.75,0.8125,4.9375,0
37750,-1.25,1.625,0.0625,0
37770,-4.1875,-0.75,1.5625,0
37790,-4.5625,-2.75,8.0625,0
37810,-4,-0.6875,6.5,0
37830,-4.8125,-0.6875,0.875,0
37850,-5.5,-3.0625,4.3125,0
37870,-5.5,-4.25,11.1875,0
37880,-5.4375,-2.5,9,0
37900,-4.4375,-5.0625,1.4375,0
37920,-3.5625,-10.375,0.1875,0
37940,-2.4375,-14.25,3.125,0
37960,-2.5625,-16.5,2.125,0
37980,-3.1875,-18.4375,-3,0
38000,-5.6875,-20.75,-4.25,0
38020,-7.5625,-23.9375,-0.625,0
38040,-8.375,-24,-0.6875,0
38060,-10.9375,-25.875,-4.5,0
38080,-14.625,-27.0625,-5.125,0
38100,-14,-24,-1.5,0
38120,-16.5625,-25.1875,0.6875,0
38140,-17,-21.25,-4.1875,0
38160,-17.1875,-19.625,-7.125,0
38180,-17.8125,-16.625,-5.25,0
38200,-16.375,-16.4375,-1.4375,0
38220,-20.4375,-14.8125,-4.875,0
38240,-19.5625,-8.75,-7.3125,0
38260,-18.875,-5.8125,-6.0625,0
38280,-19.9375,-3.625,-4.9375,0
38300,-19,1.8125,-12.8125,0
38320,-17.75,1.3125,-16.375,0
38340,-15.875,2.5625,-16.75,0
38360,-13.625,2.25,-16,0
38380,-14.75,6.9375,-20.25,0
38400,-15.4375,14.0625,-25.75,0
38430,-18.4375,14.3125,-24.875,0
38450,-16.3125,21.5,-26.4375,0
38470,-17.1875,24.0625,-30.75,0
38490,-19.3125,23.5,-32.5625,0
38510,-17.6875,24.9375,-32.125,0
38530,-17.9375,32.4375,-30.5625,0
38550,-14.0625,26.8125,-31.625,0
38570,-18.1875,24.4375,-34.125,0
38590,-18.4375,27.4375,-34,0
38610,-17.375,27.3125,-30.25,0
38630,-18.9375,27.375,-30.1875,0
38650,-19.5,27.625,-33.5625,0
38670,-20.3125,30.25,-34.6875,0
38690,-18.0625,33.875,-33.375,0
38710,-18.125,34.75,-33.75,0
38730,-18.75,36.3125,-37.625,0
38750,-18.875,38.9375,-40.125,0
38770,-19.6875,41.375,-38.125,0
38790,-19.1875,42.25,-36.4375,0
38810,-18.3125,41.5,-38.25,0
38830,-19.625,42.875,-38.75,0
38850,-21.1875,43.75,-36.8125,0
38870,-21.5,44.8125,-34.75,0
38890,-19.8125,46.3125,-33.5,0
38910,-18.0625,49.25,-31.6875,0
38930,-18.625,52.0625,-29.8125,0
38950,-17.875,52.9375,-26.6875,0
38970,-17.5,52.1875,-21.9375,0
38990,-16.125,49.6875,-17.75,0
39010,-17.5,50.125,-17.25,0
39030,-19.0625,50.75,-15,0
39050,-20.0625,50.9375,-8.625,0
39070,-19.1875,48.8125,-1.125,0
39090,-19.25,53.5,0.875,0
39110,-15.6875,52,-1.375,0
39130,-12.375,45.375,1.6875,0
39150,-10.25,40.1875,9.9375,0
39170,-13.25,49,22.4375,0
39190,-12.625,47.75,18.25,0
39210,-9.8125,41,15.5,0
39230,-9,33.125,19.6875,0
39250,-9.25,28.6875,23,0
39270,-2.5,22.75,18.8125,0
39290,-2.75,19.4375,14.1875,0
39310,-6.8125,16.625,13.5,0
39330,-9.375,11.1875,15.625,0
39350,-4,0.375,13,0
39370,-0.0625,-4.25,10.125,0
39390,-1.25,-4,12.1875,0
39410,0.6875,-6.375,14.5625,0
39430,0.6875,-12.1875,14,0
39450,-0.3125,-13.9375,12,0
39470,-0.75,-12.125,12.75,0
39490,-1.6875,-10.9375,16.6875,0
39510,0.9375,-16.375,17.0625,0
39530,1.3125,-20,15,0
39550,2,-20.1875,14.9375,0
39570,0.9375,-19.8125,18.0625,0
39590,-3.125,-20.9375,19.375,0
39610,-4.875,-24.375,18.5,0
39630,-6.5,-24.3125,17.625,0
39650,-5.1875,-22.0625,20,0
39670,-2.75,-22.3125,22.5,0
39690,-0.625,-23.8125,23.375,0
39710,-1.75,-24.875,22.4375,0
39730,-4.0625,-25.1875,22.0625,0
39750,-1.4375,-25.75,22.0625,0
39770,-0.75,-26.625,22.4375,0
39790,-1.5625,-26.4375,22.3125,0
39810,0.75,-25.5625,20.75,0
39830,5.25,-26.1875,19,0
39850,8.1875,-26.6875,20.3125,0
39870,6.9375,-26.5,19.875,0
39890,4.25,-26.9375,18.625,0
39910,2.0625,-26.8125,18.125,0
39930,1.625,-26.6875,18.25,0
39950,1.875,-27.0625,16.875,0
39970,2.25,-28.875,15.25,0
39990,4.0625,-30.625,15.625,0
40010,2.125,-30.25,17.5,0
40030,0.1875,-31,17.125,0
40050,-0.0625,-33.75,14.9375,0
40070,1.1875,-35.25,12.3125,0
40090,1.5625,-35.0625,11.875,0
40110,3,-36.9375,10.375,0
40130,1.5,-39.9375,7.4375,0
40150,0.8125,-41.5,6.25,0
40170,-0.125,-41,7.8125,0
40190,-1.75,-43.625,6.3125,0
40210,-1.125,-47.375,2.8125,0
40230,-1.3125,-48.1875,-0.25,0
40250,-0.625,-47.1875,-1.125,0
40270,-1.4375,-49.5625,-3.5,0
40290,1.25,-53.375,-6.625,0
40310,0.25,-53.9375,-8.9375,0
40330,-1.6875,-53.4375,-9,0
40350,-0.875,-53.8125,-9.9375,0
40370,-0.125,-55.625,-11,0
40390,-0.5,-55.0625,-13.0625,0
40410,0,-53.4375,-14.4375,0
40430,-2.75,-52.8125,-14.625,0
40450,-7.375,-52.4375,-12.8125,0
40470,-5.1875,-49.1875,-10.5625,0
40490,-3.4375,-42.8125,-10.5625,0
40510,-2.5625,-42.4375,-13.125,0
40530,0.25,-41.3125,-17.875,0
40550,1.625,-36.125,-18.125,0
40570,1.875,-31.25,-17.375,0
40590,0.625,-30.5,-19.5,0
40610,2.0625,-29.9375,-22.625,0
40630,2.125,-25.375,-22.3125,0
40650,0.6875,-21,-20.8125,0
40670,-2.25,-17.375,-23.625,0
40690,-1.3125,-14.5,-29.5625,0
40710,-1.875,-8.625,-28.0625,0
40730,-1.8125,-8.375,-27,0
40750,-1.625,-7.5,-32.3125,0
40770,-4.4375,-4.625,-35.5,0
40790,-5.25,0.5625,-34.375,0
40810,-7.25,6.9375,-33.0625,0
40830,-11.1875,6.625,-35.4375,0
40850,-12.8125,7.3125,-37.3125,0
40870,-11.875,13.125,-37.4375,0
40890,-12.8125,21.625,-36.9375,0
40910,-9.6875,29.375,-39,0
40930,-7.5625,32.875,-40.375,0
40950,-6.0625,37.75,-39.25,0
40970,-7.25,39.9375,-41.625,0
40990,-7.625,41.9375,-46.5625,0
41010,-7.5,48.875,-47.6875,0
41030,-8.9375,53.5,-45.75,0
41040,-11.0625,55.5,-48.0625,0
41060,-11.3125,54.5,-51.1875,0
41080,-13.25,58,-49.375,0
41100,-17.8125,66.1875,-44.625,0
41120,-20.625,70,-41.75,0
41140,-17.5625,71,-41.125,0
41160,-12.75,69.125,-41.4375,0
41180,-10.5625,70.4375,-39.8125,0
41200,-12.0625,72.1875,-37.25,0
41220,-10.1875,71.25,-34.3125,0
41240,-5.1875,69.75,-29.8125,0
41260,-2.9375,68,-25.0625,0
41280,-2.875,66.4375,-20.125,0
41300,-2.0625,63.1875,-15.5,0
41320,0.5625,60.375,-11.625,0
41330,-0.8125,60.75,-7.375,0
41350,-3.0625,59.125,0.375,0
41370,-0.9375,51.1875,8.8125,0
41390,4.5,47,14.5,0
41410,6,47.9375,16.5625,0
41430,5.3125,44.875,19.5625,0
41450,3.4375,49,30.3125,0
41470,7.375,51.5625,39.4375,0
41490,11.625,43.3125,35.625,0
41510,9.3125,37.6875,38.6875,0
41530,7.6875,35.5625,47.5,0
41550,13.875,27.375,48.9375,0
41570,7.5625,17,46.625,0
41590,-1.4375,9.4375,47.25,0
41610,-6.1875,4.6875,51.25,0
41630,-8.25,-2.125,49.0625,0
41650,-11.75,-6.9375,43.125,0
41670,-15.0625,-12.625,38.625,0
41690,-13.1875,-18,38.5,0
41710,-13.8125,-21.3125,37.125,0
41730,-13.5,-25.6875,35.375,0
41750,-13.0625,-30.25,35.4375,0
41750,-13.0625,-30.25,35.4375,0
41760,7.5625,17,46.625,0
41790,-13.5625,-33.0625,33.875,0
41810,-12.3125,-35.75,33.3125,0
41830,-11.8125,-38.875,33.9375,0
41850,-9.9375,-40.6875,31.25,0
41870,-10.6875,-42.4375,29.75,0
41890,-9.1875,-45,27.75,0
41910,-4.9375,-46.1875,24.875,0
41930,-2.0625,-47.375,22.8125,0
41950,-1.6875,-48.875,20.5625,0
41970,-0.3125,-50.125,17.1875,0
41990,1.75,-49.4375,18.75,0
42010,-0.9375,-49.375,20.0625,0
42030,-2.0625,-49.625,16.9375,0
42050,-4.625,-49.3125,14.75,0
42070,-7.1875,-49.375,16.8125,0
42090,-9.625,-50.6875,17.8125,0
42110,-12.1875,-51.875,13.9375,0
42130,-15.8125,-51.875,10.5625,0
42150,-19.375,-52.875,11.6875,0
42170,-22.75,-52.75,11.8125,0
42190,-24.3125,-50.875,7.4375,0
42210,-24.0625,-49.4375,4.625,0
42230,-21.3125,-49.5625,2.8125,0
42250,-18.1875,-49.5625,-1.3125,0
42270,-11.875,-47,-7.375,0
42290,-7.125,-45.75,-13.1875,0
42310,-4.5,-44.8125,-20.0625,0
42330,-5.25,-42.25,-28.125,0
42350,-6.6875,-37.375,-31.625,0
42370,-6.4375,-34.8125,-33.9375,0
42390,-1.25,-36.5625,-39.5,0
42410,1.75,-32.75,-45.3125,0
42430,2.6875,-22,-46.8125,0
42450,-0.875,-14.375,-44.25,0
42470,0.875,-16.5625,-45.4375,0
42490,0.375,-17.5625,-49.0625,0
42510,-1.9375,-7.125,-50.25,0
42530,-5.375,-1.25,-51.4375,0
42550,-3.625,-3.4375,-54.1875,0
42570,-7.3125,-2,-57.9375,0
42590,-10.3125,4.5625,-60,0
42610,-15.0625,9.6875,-62.25,0
42630,-15.125,12.25,-61.625,0
42650,-16.3125,16.875,-59.1875,0
42670,-16.0625,25.1875,-56.1875,0
42690,-18.8125,31.75,-55.25,0
42710,-19.75,37.3125,-52.4375,0
42730,-21.0625,42.875,-46.5625,0
42750,-21.6875,47.75,-40.8125,0
42750,-21.4375,52,-38,0
42770,-21.75,59.0625,-33.3125,0
42790,-18.875,58.3125,-30.125,0
42810,-16.8125,57.1875,-28,0
42830,-15.9375,59.125,-26.125,0
42850,-14.4375,60.8125,-25.5625,0
42870,-14.0625,57.5625,-23.875,0
42890,-14.1875,53.625,-18.6875,0
42910,-14.875,54.25,-12.8125,0
42930,-12.5625,56.9375,-6.8125,0
42950,-16.125,59.8125,-1.125,0
42970,-24.6875,65.6875,11.6875,0
42990,-25.875,63.6875,24.0625,0
43010,-17.9375,56.1875,31.8125,0
43030,-13.75,49.375,33.875,0
43050,-12.4375,45.1875,37.25,0
43070,-12.4375,41.8125,43.4375,0
43090,-17.6875,36.8125,46.875,0
43110,-22.375,28.9375,46.5625,0
43130,-27.1875,23.625,45.875,0
43150,-31.4375,18.1875,48,0
43170,-28.875,12,50.0625,0
43190,-27.625,8.625,49.8125,0
43210,-27,9.3125,47.25,0
43230,-30.1875,7.5625,47.1875,0
43240,-28.8125,4.125,47.1875,0
43270,-23.125,-0.6875,43.4375,0
43290,-15.75,-4.1875,40.625,0
43310,-11.375,-6.6875,39.25,0
43320,-7.5625,-8.5,36.9375,0
43340,-9.6875,-10.4375,35.125,0
43360,-9.625,-13.25,32.0625,0
43380,-5.9375,-17.875,29.875,0
43400,-2.75,-21.6875,29.0625,0
43420,-1.5,-24.5,26.8125,0
43440,-2.6875,-26.8125,25.1875,0
43460,-5.6875,-30.4375,25.3125,0
43480,-6.4375,-34.3125,24.125,0
43500,-5.1875,-37.3125,22.0625,0
43520,-4.9375,-41,20.6875,0
43540,-5.3125,-45.75,19.75,0
43560,-5.9375,-48.1875,16.625,0
43580,-6.375,-50.25,15.125,0
43600,-8.3125,-55.375,15.9375,0
43620,-8.8125,-59.5625,14.3125,0
43640,-11.5,-61.5625,12.0625,0
43660,-18.125,-65.1875,13.25,0
43680,-25.75,-69.8125,12.625,0
43700,-32.875,-70.375,8.6875,0
43720,-35.9375,-70.1875,4.875,0
43740,-34.375,-70.875,1.3125,0
43760,-29.125,-71.375,-3.75,0
43780,-23.3125,-71.3125,-9.375,0
43800,-18.75,-69.625,-14.9375,0
43820,-19.375,-65.4375,-17.1875,0
43840,-19,-62.6875,-19.125,0
43860,-16,-60.3125,-23.375,0
43880,-10.25,-57,-29.875,0
43900,-4.75,-53.125,-33.25,0
43920,-3.0625,-49.75,-37.375,0
43940,-0.9375,-43.125,-42.625,0
43960,1.8125,-34,-44.75,0
43980,5.875,-30.8125,-46.4375,0
44000,13.3125,-30.8125,-50.9375,0
44020,16.875,-28.5625,-55.3125,0
44040,17.75,-21.6875,-55,0
44060,16.0625,-20.875,-52.6875,0
44080,14.75,-21.375,-55.125,0
44100,14.625,-22.6875,-57.875,0
44120,10.25,-11.875,-53.4375,0
44140,8.4375,-8.25,-46.75,0
44160,6.5,-7.875,-47.0625,0
44180,8.1875,-7.5,-47.5,0
44200,6.25,-5.9375,-44.8125,0
44220,4.6875,-2.875,-38.1875,0
44240,3.5,-0.125,-31.8125,0
44260,3.1875,-2.4375,-29.3125,0
44280,0.125,-4,-25.4375,2001
44300,-2.5625,-5.1875,-18.875,0
44320,-4.5625,-3.25,-10.5,0
44340,-5.5,-1.75,-3.375,0
44360,-6.75,-1.625,0.9375,0
44380,-8.5625,-1.4375,4.75,0
44400,-8.75,1.875,11.1875,0
44420,-6.5,4.0625,12.8125,0
44440,-5.125,3.6875,10.4375,0
44460,-3,4.1875,9,0
44480,-0.9375,3.8125,7.25,0
44500,0.9375,3.3125,5.9375,0
44520,1.625,4.4375,5.75,0
44540,1.8125,5.0625,4.75,0
44560,0.0625,6.375,4.25,0
44580,-2,8.75,5,0
44600,-4.75,11.5,9.0625,0
44620,-3.125,10.3125,16.125,0
44640,1.625,10.375,24.9375,0
44660,4.1875,11.5625,30.3125,0
44680,0.875,15.0625,34.1875,0
44700,-0.9375,16.8125,37.1875,0
44720,-0.9375,18.625,41.25,0
44740,3.25,21,49.125,0
44760,-0.1875,22.0625,58.4375,0
44780,0.1875,20.4375,64.5,0
44800,10.5625,20.375,71.75,0
44820,13.3125,20,81.8125,0
44840,6.125,22.5625,88.3125,0
44860,10.5,15.6875,93.5625,0
44880,17.4375,13.875,94.8125,0
44900,26.5625,12.125,86,0
44920,31.3125,11.125,80.0625,0
44940,32.375,9.8125,83.0625,0
44960,30.4375,12.6875,82.8125,0
44980,28.0625,13.4375,72.75,0
45000,33.1875,11.125,64.1875,0
45020,37.1875,5.8125,64.1875,0
45040,35.875,2.75,61.3125,0
45060,36,0.375,48.4375,0
45080,36.4375,-4.0625,39.3125,0
45100,34.0625,-10.75,42.875,0
45120,28.125,-14,43.9375,0
45140,28.75,-12.625,35.625,0
45160,27.8125,-11.5,28.5,0
45180,22.5625,-11.125,27.5625,0
45200,18.875,-10.5,27.9375,0
45220,16.3125,-9.25,26,0
45240,13.8125,-7.6875,22.0625,0
45260,12.5625,-6.8125,18.5625,0
45280,13.0625,-5.8125,12.3125,0
45300,13.9375,-8.0625,6.125,0
45320,12.4375,-9.625,2.4375,0
45340,12.5625,-11.875,3.875,2000
45360,12.25,-11.25,0.25,0
45380,12.1875,-9.5,-5.8125,0
45400,7.5,-9.8125,-6.0625,0
45420,6.4375,-11.375,0,0
45440,8,-7.75,-0.625,0
45460,7.1875,-1.0625,-4.4375,0
45480,11,-1.875,-3.9375,0
45500,10.4375,-2.375,-2.5625,0
45520,7.5,-0.8125,-4.375,0
45540,-0.1875,-0.25,-5.1875,0
45560,-4.375,-1.9375,-2,0
45580,-2.125,-2.4375,-0.875,0
45600,-1,-2.3125,-0.9375,0
45620,-4.75,-3.625,1.875,0
45640,-4.5,-5.9375,6.8125,0
45660,-4.6875,-5.5,6.625,0
45680,-6.1875,-1.1875,3.875,0
45700,-7.9375,-2.9375,6.6875,0
45720,-4.875,-4.1875,11.875,0
45740,-0.375,-0.1875,9.6875,0
45760,1.9375,0.6875,5.5,0
45780,1.6875,-4.75,8.6875,0
45800,2.5,-5.3125,13,0
45820,5.1875,-3.0625,7.0625,0
45840,5.6875,-6.375,-2.375,0
45860,2.4375,-11.5625,-1.1875,0
45880,0.5625,-14.5625,1.3125,0
45900,1.0625,-16.0625,-2.5625,0
45920,2.625,-13.75,-6.4375,0
45940,1,-17.25,-4.375,0
45960,-0.5625,-22.625,-3.375,0
45980,2.3125,-18.25,-7.4375,0
46000,0.375,-18.375,-10.0625,0
46020,-2.5,-22.125,-9,0
46040,-1.5625,-21.4375,-8.9375,0
46060,-0.625,-20.75,-12.6875,0
46080,-3.3125,-19.875,-16,0
46100,-7.1875,-18.0625,-16.875,0
46120,-8.125,-16.5,-16.25,0
46140,-8,-17.4375,-16.375,0
46160,-9.375,-13.5,-17.75,0
46180,-12.75,-10.9375,-19,0
46200,-10.8125,-6.5625,-21.125,0
46220,-8.4375,-8.25,-22.8125,0
46240,-7.3125,-4.75,-24.75,0
46260,-9.6875,-1.9375,-27.3125,0
46280,-12.0625,-1.0625,-28.625,0
46300,-11.9375,1.375,-28.625,0
46320,-9.0625,7.3125,-29.4375,0
46340,-8.5,9.5,-28.875,0
46360,-8.0625,11.4375,-29.8125,0
46380,-7.3125,14,-30.625,0
46400,-8.1875,19.625,-31.875,0
46420,-9.25,21.5,-32.125,0
46440,-10,22.375,-33.625,0
46460,-8.375,25,-36,0
46480,-8.0625,29.75,-36.625,0
46500,-10.875,33.75,-36.25,0
46520,-14.375,36.1875,-36.1875,0
46540,-14.1875,39.5,-36.8125,0
46560,-13.375,42.25,-35.6875,0
46580,-13.5,44.4375,-34.25,0
46600,-16.125,47.5,-35.375,0
46620,-18.3125,50.375,-36.0625,0
46640,-18.5625,53.25,-34.875,0
46660,-19.3125,54.3125,-34.0625,0
46680,-21.1875,56.375,-35,0
46700,-22.875,60.9375,-37.5,0
46720,-22.6875,63.5625,-38.5625,0
46740,-22,63.5,-38.1875,0
46760,-22.1875,63.25,-37.875,0
46770,-22,64.5625,-39.375,0
46790,-22.1875,68.5625,-41.0625,0
46810,-21.375,70.375,-41.625,0
46830,-20.5,67.9375,-40.875,0
46850,-18.1875,65.25,-40.3125,0
46870,-18.375,66.125,-39.5625,0
46890,-18.4375,68.0625,-37.9375,0
46910,-17.125,65.875,-35,0
46950,-12.625,62.5625,-30.5625,0
46970,-11.0625,63.5,-28.875,0
46990,-9.875,63.25,-26.875,0
47010,-6.4375,59.3125,-24.5,0
47030,-2.5625,58.9375,-18.75,0
47050,-0.0625,62.5625,-15.0625,0
47070,3.6875,61.75,-13.0625,0
47090,7.3125,57.8125,-8.5,0
47110,7.75,54.5,-0.25,0
47130,7.25,52.625,6.75,0
47150,6.5625,49.4375,11,0
47170,6.125,44.5625,12.9375,0
47190,6.1875,36.375,17.5,0
47210,5.25,30.1875,21,0
47230,3.625,24.875,21.875,0
47250,6.3125,18.125,21.9375,0
47270,5.875,12.1875,26.6875,0
47290,6.875,5.9375,33.4375,0
47310,6.0625,2.5625,33.75,0
47330,5,-0.75,32.5,0
47350,1,-5.9375,34.8125,0
47370,-3.0625,-11.3125,38.375,0
47390,1.4375,-13.8125,33.6875,0
47410,1.5625,-10.875,28.8125,0
47430,2,-14.25,28.3125,0
47450,1.0625,-19.875,30.5,0
47470,0.625,-18.0625,30.6875,0
47490,-0.3125,-16.5,29.5,0
47510,1.75,-19.3125,28.375,0
47530,0.8125,-23.0625,30.5,0
47550,-1.6875,-22.375,30.9375,0
47570,-2.4375,-20.9375,30.875,0
47590,-2.1875,-22.5625,30.75,0
47610,-4,-24.3125,31.625,0
47630,-3.875,-25.9375,31.1875,0
47650,-2.3125,-26.8125,30.625,0
47670,-2.1875,-29.3125,30.1875,0
47690,-3.75,-30.625,30.8125,0
47710,-4.875,-31.25,29.125,0
47730,-2.4375,-31.625,27.125,0
47750,-2.4375,-32.0625,25.4375,0
47770,-3.5625,-31.75,24.6875,0
47790,-2.5,-32.125,23.125,0
47810,2.375,-33.5625,22.375,0
47830,2.375,-32.875,22.25,0
47850,0.6875,-33.1875,21.625,0
47870,-2.625,-33.75,19.75,0
47890,-3.1875,-34.4375,17.625,0
47910,-3.125,-35.8125,17.875,0
47930,0.3125,-38.125,16.3125,0
47950,1.9375,-39.5,14.4375,0
47970,-3.75,-39.8125,14.875,0
47990,-10.4375,-41.5,15.625,0
48010,-14.9375,-44.3125,15.25,0
48030,-15.375,-46.6875,15.1875,0
48050,-14.9375,-46.4375,14.0625,0
48070,-14.875,-46,9.6875,0
48090,-13.1875,-47.625,5.4375,0
48110,-10.375,-48.125,3.125,0
48130,-8.8125,-48.625,1.25,0
48150,-6.6875,-49.75,-1.4375,0
48170,-5.6875,-52.375,-4,0
48190,-6.375,-53.4375,-4.5625,0
48210,-7.875,-54.25,-5.5,0
48230,-7.5625,-55,-9,0
48250,-3,-56.6875,-13.5,0
48270,0.75,-55.5625,-15.8125,0
48290,0.25,-53.1875,-15.625,0
48310,-0.4375,-51.375,-17.25,0
48330,1.3125,-54.75,-20.25,0
48350,0.625,-53.25,-22.375,0
48370,-0.125,-50.375,-22.875,0
48390,0.0625,-47.75,-22.875,0
48410,-1.875,-44.625,-22.5,0
48430,-1.875,-43.0625,-24.8125,0
48450,-2.1875,-40.75,-26.4375,0
48470,-1.4375,-34.75,-25.125,0
48490,0.6875,-30.8125,-28.8125,0
48510,2.125,-25.3125,-31.75,0
48530,0.6875,-24.125,-33.8125,0
48550,-1.25,-19.1875,-36.4375,0
48570,-4.3125,-12.0625,-35.75,0
48590,-3.3125,-8.9375,-35.1875,0
48610,-3.625,-7.0625,-35.4375,0
48630,-3.25,-4.4375,-37.9375,0
48650,-3.125,0.625,-41.125,0
48670,-3.5,7.9375,-41.9375,0
48690,-7.625,12,-40.0625,0
48710,-11.9375,13.375,-39.875,0
48730,-14.3125,13.75,-41.25,0
48750,-11.5625,14,-44.6875,0
48770,-12.6875,18.5,-44.9375,0
48780,-16.5,25.4375,-44.75,0
48800,-20.625,30.4375,-47.625,0
48820,-20.9375,34.4375,-50,0
48840,-23.125,39.875,-51.625,0
48860,-23.4375,46.125,-53.3125,0
48880,-23.0625,51.25,-55.6875,0
48900,-22.5625,55.4375,-57.25,0
48920,-22.75,61.4375,-54.8125,0
48940,-23.5625,65.75,-50.9375,0
48960,-22.5,66.375,-49.4375,0
48980,-21.375,69.1875,-48.25,0
49000,-20.4375,73.6875,-43.1875,0
49020,-21.6875,76.4375,-37.25,0
49040,-19.5,77.5,-33.75,0
49060,-15.75,78.4375,-29.8125,0
49080,-11.4375,81.0625,-26.1875,0
49100,-8.3125,84.8125,-23.0625,0
49120,-5.875,80.625,-22.4375,0
49140,-1.75,76.8125,-17.6875,0
49160,2.4375,79.3125,-8.875,0
49180,4.875,75.5,-5,0
49200,8.625,68.625,-1.75,0
49220,7.375,58.5625,3.625,0
49240,8.625,51.1875,7.875,0
49260,8.75,50.125,13.6875,0
49280,6.5,46.5,19.5625,0
49300,2.0625,36.9375,24.6875,0
49320,2.125,28.4375,27.8125,0
49340,3.125,27.1875,31.0625,0
49360,2.8125,23.5625,36,0
49380,2.75,21.5,38.25,0
49400,1.125,13.8125,38.375,0
49420,0.4375,8.25,39.6875,0
49440,1,7.3125,44.125,0
49460,4.125,1.75,45.9375,0
49480,4.125,-2.875,41.625,0
49500,1.4375,-6.0625,39.8125,0
49520,-0.375,-5.75,43.25,0
49540,-0.875,-6.625,43.5,0
49560,-2.9375,-12.625,40.6875,0
49580,-5.6875,-16.6875,38.1875,0
49600,-4.5625,-17.0625,38.0625,0
49620,-3.3125,-20.625,38.9375,0
49640,-2.25,-24.0625,36.0625,0
49660,-4.375,-27.1875,31.625,0
49680,-7.375,-26.6875,33.3125,0
49700,-8.9375,-28.6875,35.625,0
49720,-10.0625,-32.3125,33.25,0
49740,-9.9375,-34.6875,30.9375,0
49760,-8.4375,-34.5625,31.875,0
49780,-8.0625,-35.3125,31.75,0
49800,-9.25,-37.4375,30,0
49820,-10.25,-39.8125,28.9375,0
49830,-9.5,-41.125,29.25,0
49840,-9.375,-41.875,30.1875,0
49870,-13.1875,-47.9375,29.1875,0
49890,-13.1875,-48.5625,29.375,0
49900,-13.5,-48.875,28.0625,0
49920,-13.5625,-50.75,26.125,0
49940,-16.875,-52.25,26.5,0
49960,-17.75,-54.5625,25.75,0
49980,-14.6875,-55.6875,21.375,0
50000,-9.5625,-55.3125,17.25,0
50020,-10.1875,-55.9375,14.8125,0
50040,-9.5625,-56.0625,9.8125,0
50060,-6.125,-54.3125,2.625,0
50080,-0.5625,-54.8125,-1.8125,0
50100,2.3125,-57,-4.3125,0
50120,3.3125,-58.0625,-7.5,0
50140,0.75,-55.375,-9.75,0
50160,-5.75,-53.25,-9,0
50180,-12.625,-54.25,-8.375,0
50200,-11.0625,-52.8125,-11.375,0
50220,-6.6875,-49.1875,-13.0625,0
50240,-3.75,-47.375,-15.25,0
50260,-5.125,-47.375,-18.0625,0
50280,-6.125,-42.0625,-23.6875,0
50300,-3.1875,-39.8125,-26.875,0
50320,-1.875,-35.3125,-29.375,0
50340,-2.5625,-32.5,-32.125,0
50360,-3,-29.75,-33.3125,0
50380,1.5625,-26.75,-35,0
50400,1.8125,-24.1875,-38.5,0
50420,-0.3125,-20.5625,-39.625,0
50440,-4.625,-12,-38.9375,0
50450,-9.1875,-8.5,-40.25,0
50470,-12.25,-8.3125,-47,0
50490,-10.75,-5,-52.25,0
50510,-10.125,1.4375,-51.25,0
50530,-10.25,4,-52.4375,0
50550,-11.3125,3.75,-58.0625,0
50570,-13.75,8.0625,-60.125,0
50590,-16.5,17.0625,-57.4375,0
50610,-16.3125,21.125,-57.3125,0
50630,-15.125,23.0625,-61.8125,0
50650,-17.4375,30.8125,-62.375,0
50670,-17.5,39,-60.9375,0
50690,-11.5625,39.375,-62.9375,0
50710,-11.25,40.375,-64.375,0
50730,-17.5625,47.25,-61,0
50750,-20.1875,50.9375,-56.9375,0
50770,-18.75,52.125,-53.9375,0
50790,-17.0625,54.9375,-52.5,0
50810,-18.0625,59.25,-49.9375,0
50830,-15.375,62.6875,-46.8125,0
50850,-14.625,63,-43.75,0
50870,-18.6875,65.875,-38.375,0
50890,-22.875,73,-29.6875,0
50910,-20.875,75.25,-22.8125,0
50930,-18,71.625,-20.1875,0
50950,-15.9375,66.9375,-18.0625,0
50970,-15.75,68.25,-12,0
50990,-17.875,67.8125,-3.0625,0
51010,-21.3125,65.3125,6.1875,0
51030,-18.875,60.25,9.75,0
51050,-14.4375,54.625,11.125,0
51070,-13.75,53.375,17.5625,0
51090,-21.6875,50.125,27.3125,0
51110,-21.6875,43.9375,33.5,0
51130,-19.6875,36.875,35.5,0
51150,-20.875,33.625,38.625,0
51170,-24.375,28.375,43.375,0
51190,-29.0625,24.5625,46.125,0
51210,-37.375,22.25,47.9375,0
51230,-38.4375,20.1875,50.5625,0
51250,-35.375,14,51.4375,0
51270,-29.1875,7.4375,50.625,0
51290,-26.8125,3,50.9375,0
51310,-28.875,3.5625,48.6875,0
51330,-33.375,0.125,47.3125,0
51350,-33.5625,-7.625,46.125,0
51370,-30.875,-12.6875,45.5,0
51390,-27.625,-12.4375,44.5,0
51410,-26.8125,-14.375,41.9375,0
51430,-23.6875,-19.375,41.375,0
51450,-19.75,-23.75,40.4375,0
51470,-13.6875,-22.5,38.625,0
51490,-11.25,-21.625,39.375,0
51510,-13,-25.875,39.4375,0
51530,-8.9375,-31.4375,37.4375,0
51550,-1.875,-34.125,35.4375,0
51570,1.4375,-36.3125,36.1875,0
51590,-6,-38.875,35.5625,0
51610,-14.75,-41.375,31.6875,0
51630,-14.375,-45.5625,27.3125,0
51650,-8.0625,-49.5,26.0625,0
51670,-4.625,-52.0625,24.0625,0
51690,-6.9375,-53.625,20.3125,0
51710,-10.875,-56.375,18.9375,0
51730,-14.75,-61.1875,18.8125,0
51750,-18.0625,-64.625,15.125,0
51770,-22.25,-64.25,11.3125,0
51790,-26.875,-63.375,9.625,0
51810,-31.875,-64.6875,6.5,0
51830,-32.25,-65,2.25,0
51850,-27.25,-62.4375,-1.25,0
51870,-20.5,-59.8125,-4.9375,0
51890,-14.375,-57.6875,-10,0
51910,-10.5,-55.0625,-14.1875,0
51930,-8.6875,-52.25,-16.1875,0
51950,-7.9375,-52.625,-17.5,0
51970,-8.9375,-50.4375,-17.5,0
51990,-8.5,-45.5,-19.6875,0
52010,-3.5625,-40.0625,-24.625,0
52030,-1.1875,-39.375,-29.125,0
52050,3.5,-35.8125,-33.75,0
52070,4.5625,-29.9375,-35.9375,0
52090,10.25,-25.9375,-36.5625,0
52110,9.5625,-24.625,-37.5,0
52130,9.5,-22.9375,-40.1875,0
52150,9.1875,-20.6875,-39.75,0
52170,10,-19.8125,-39.375,0
52190,12.625,-16.5,-41.9375,0
52210,15.75,-14.6875,-47.25,0
52220,14.8125,-14.625,-48.8125,0
52240,8.125,-12.375,-47.0625,0
52260,2.3125,-10.375,-45.5625,0
52280,4.625,-9.25,-44.1875,0
52300,6.5,-8.25,-42.5625,0
52320,4.6875,-5.75,-40.3125,0
52340,2.875,-4.3125,-38.125,0
52360,4.125,-1.875,-33.75,0
52380,3.1875,2.1875,-28.9375,0
52400,-2.9375,5.0625,-26.0625,0
52420,-6.9375,5.375,-22,2001
52440,-5.5625,4.4375,-17.8125,0
52460,-5.625,6.75,-13.5,0
52480,-5.25,8.75,-10.875,0
52500,-0.8125,10.625,-11.75,0
52520,1,11.25,-12.25,0
52540,-4.9375,12.4375,-8.1875,0
52560,-7.8125,9.375,-3.5,0
52580,-3.1875,6.875,0.125,0
52600,-1.125,5.9375,3.25,0
52620,-3.5625,4.3125,6.625,0
52640,-7.375,3.8125,7.5625,0
52660,-6.9375,1.4375,8,0
52680,-4.5625,-2.25,8.6875,0
52700,-5.75,-3.875,10.3125,0
52720,-8.3125,-1.1875,12.3125,0
52740,-6.9375,2.875,14,0
52760,-4.875,2.25,16.0625,0
52780,-3.5,-1.25,22.5625,0
52800,-3.75,-1.75,28.75,0
52820,-0.0625,0.125,29.25,0
52840,4.625,1.9375,29.9375,0
52860,8.75,4.6875,33.8125,0
52880,4.6875,8.5,43.9375,0
52900,0.9375,7.9375,53.625,0
52920,5.3125,6.6875,60.875,0
52940,14.25,4.5,71.75,0
52960,15.375,2.875,88.0625,0
52980,10.5625,-1,99.875,0
53000,15.375,-2.625,104.375,0
53020,22.5,1.4375,106.312,0
53040,27.6875,11.1875,109.875,0
53060,25.75,14.375,110.25,0
53080,41.3125,13.5,111.625,0
53100,55.6875,18.0625,105.125,0
53120,57.6875,30,92.375,0
53140,44.3125,25.25,80.875,0
53160,61.125,16.3125,75,0
53180,69.625,23.4375,74.6875,0
53200,60.125,29.4375,68.125,0
53220,57.875,25.5625,53,0
53240,59,18.4375,43.4375,0
53260,50.9375,15.4375,47.625,0
53280,37,9.875,43.6875,0
53300,36,4.75,30.9375,0
53320,35.5625,3.4375,22.1875,0
53340,28.3125,3.9375,19.8125,0
53360,18.75,2.0625,15.9375,0
53380,14.6875,-0.1875,10.1875,0
53400,14.875,-4.4375,7.125,0
53420,13.4375,-5.875,8.3125,0
53440,10,-6.1875,5.6875,0
53460,11.25,-8.1875,1.75,0
53480,11.9375,-9.0625,-1.125,0
53500,8.3125,-9,-2.125,0
53520,4.25,-10.0625,-1.8125,0
53540,3.625,-10.875,-1.4375,0
53560,2.5,-8.3125,-1.1875,0
53580,2.3125,-8.3125,1.125,0
53600,2.3125,-10.625,3.625,0
53620,0.1875,-10.1875,4.6875,0
53640,-2.4375,-5.9375,7.6875,0
53660,-6.5,-4.1875,9.4375,0
53680,-8.3125,-8.9375,9.5,0
53700,-6.1875,-5.25,6.625,0
53740,-3.5,2.6875,3.625,0
53760,-2.6875,-5.375,1.9375,0
53780,2.125,-11.1875,0.375,0
53800,0,-5.9375,-0.6875,0
53820,-2.875,-4,1.6875,0
53840,-3.375,-8.8125,4,0
53860,-3.625,-8.8125,2.875,0
53880,-4.75,-8.25,0.375,0
53900,-5.375,-9.0625,0.375,0
53920,-3.375,-10.625,2.375,0
53940,-3.4375,-8.375,2.125,0
53960,-1.875,-6.4375,1,0
53980,-2.8125,-7.375,2.375,0
54000,-4.1875,-8.125,5.5625,0
54020,-3.9375,-5.9375,5.3125,0
54040,-3.125,-6.375,5.5625,0
54060,-2.5625,-8.375,5.625,0
54080,-3.125,-10.375,1.125,0
54100,-2.625,-11.5,-2.25,0
54120,-4.125,-12.6875,-3.3125,0
54140,-5.25,-10.875,-4.8125,0
54160,-7.25,-10.25,-5.5,0
54180,-8.625,-6,-5.3125,0
54200,-8.125,-0.1875,-5.3125,0
54220,-7.5625,4.8125,-5.875,0
54230,-8.8125,7.6875,-4.6875,0
54250,-9.0625,8.0625,-1.5625,0
54270,-7.4375,10.125,-0.5625,0
54290,-6.3125,13.3125,0.4375,0
54310,-8.0625,11.8125,-0.25,0
54330,-14.1875,8.6875,-4.3125,0
54350,-25.5,11.5,-5.5,0
54370,-31.75,12.8125,-2.625,0
54390,-28.125,12.8125,-5.5625,0
54410,-20.25,14,-8.75,0
54430,-13.5,19.125,-12.9375,0
54450,-10.25,25.3125,-10.375,0
54470,-7.375,24.0625,-1.5625,0
54490,-6,22.0625,0.9375,0
54510,-11.9375,21.3125,-2.75,0
54530,-15.4375,19.3125,-7.1875,0
54550,-15.875,14.25,-6.9375,0
54570,-10.1875,7.375,-2.5625,0
54590,-10.5,4.6875,-2.375,0
54610,-13.5,2.1875,-7,0
54630,-15.75,-1.875,-7.125,0
54650,-15.625,-4.9375,-5.25,0
54670,-14.875,-6.875,-5.9375,0
54690,-16.8125,-9.3125,-4.5,0
54710,-15.5625,-12.25,-0.625,0
54730,-13.4375,-11.8125,-1.4375,0
54750,-11.75,-6.9375,-6.875,0
54770,-5.9375,-6.8125,-3.125,0
54790,-4.9375,-8.25,4,0
54810,-9.5625,-3.5625,0.5625,0
54830,-16.5,-4.3125,-5.625,0
54850,-20.125,-11.4375,2.8125,0
54870,-15.625,-11.6875,7.3125,0
54890,-6.6875,-5.875,-3.5,0
54910,-5.375,-4.875,-6.375,0
54930,-11.0625,-6.75,3.625,0
54950,-10.8125,-7.125,7.5,0
54970,-10.625,-4.875,1.1875,0
54990,-12.125,-4.75,-1.125,0
55010,-10.1875,-7.5625,3.25,0
55030,-7.375,-8.8125,4.625,0
55050,-6.0625,-9.6875,3.4375,0
55070,-8.25,-5.9375,4.75,0
55090,-9.375,-2.5,0.5625,0
55110,-7.6875,-4.375,-6,0
55130,-3.25,-7.25,-5.125,0
55150,-0.125,-7.5625,-3.625,0
55170,-3.1875,-6.625,-8.5625,0
55190,-10.6875,-8.5,-12.5,0
55210,-17.5,-8.5625,-8.625,0
55230,-20.25,-6.3125,-4.625,0
55250,-18.75,-4.75,-10.3125,0
55270,-16.3125,-1.5,-16.9375,0
55290,-23.9375,-3.875,-20,0
55310,-20.5,0.75,-20,0
55330,-20.0625,6,-17.125,0
55350,-23.5,10.0625,-12,0
55370,-28.75,14.1875,-3.875,0
55390,-30.1875,14.4375,0.3125,0
55410,-26.5625,11.8125,-2.5,0
55430,-21.9375,10.6875,-10.75,0
55450,-21.25,12.3125,-15.1875,0
55470,-18.5625,17.3125,-14.25,0
55490,-16.125,25.4375,-9.0625,0
55510,-12.5625,29.875,2.1875,0
55530,-6.1875,27.875,20.75,0
55550,5.375,26.3125,28.375,0
55570,7.6875,28.875,20.75,0
55590,7.8125,30.9375,10.9375,0
55610,14.25,29.25,1.6875,0
55630,24.1875,28,-5.875,0
55650,35.6875,20.375,-8.25,0
55670,36.75,10.375,-7.875,0
55690,29.625,2.8125,-3.625,0
55710,18.6875,-2.4375,-0.25,0
55730,14.0625,-4.25,-3.9375,0
55750,15.6875,-6,-10,0
55770,17.125,-8.25,-12,0
55790,14.75,-12.1875,-10.5625,0
55810,14.0625,-13.75,-9.25,0
55830,10.25,-15.25,-8.5625,0
55850,7.375,-15.125,-9.1875,0
55870,5.5,-15,-9.0625,0
55890,5.1875,-14.125,-8.75,0
55910,6.875,-12.6875,-10.0625,0
55930,5.875,-11.9375,-13.25,0
55950,7.375,-8.9375,-11.8125,0
55970,7.625,-5.375,-9.625,0
55990,4.5625,-4.6875,-7.8125,0
56010,2.0625,-5.3125,-5.75,0
56030,0.0625,-5.125,-3.5,0
56050,-0.5625,-4,-0.875,0
56070,-1.9375,-3.1875,2.6875,0
56090,-2.8125,-3.25,5.625,0
56110,-3.25,-3.8125,7.25,0
56130,-4.4375,-7,9.125,0
56150,-6.5625,-8.9375,10.125,0
56170,-9.1875,-8.25,7.25,0
56190,-8.6875,-5,2.9375,0
56210,-7.125,-3.3125,0.875,0
56230,-4.875,-5.875,1.4375,0
56250,-2.375,-7.6875,0.4375,0
56270,0.9375,-6.1875,-2.1875,0
56290,1.5,-5.0625,-5.5,0
56310,1.4375,-8.125,-7.1875,0
56330,0.75,-5.375,-4.5,0
56350,-1.0625,-4.4375,0.0625,0
56370,1.0625,-3.5,2.875,0
56390,1.9375,-1.125,-0.375,0
56410,-1.625,-1,-1.0625,0
56430,-6.375,-4.375,5.1875,0
56450,-7.1875,-8.3125,15.625,0
56470,-8.125,-1.0625,10.5,0
56490,-11.1875,1.6875,0.5,0
56510,-14.875,-2.625,6.1875,0
56530,-11.5625,0.4375,9.8125,0
56550,-4,3.875,0.0625,0
56570,-3.75,1.375,-2.6875,0
56590,-2.25,0.5625,3.375,0
56610,1.1875,1.5625,-1.375,0
56630,0.4375,-2.0625,-8.875,0
56650,-2.875,-3.6875,-5.0625,0
56670,-3.625,-2.8125,1.75,0
56690,-2.875,-0.9375,1.8125,0
56710,-5.625,-1.5,-2.5625,0
56730,-9.0625,-1.8125,-3.9375,0
56750,-9.125,-3.1875,-1.8125,0
56770,-8.9375,-3.125,-2.75,0
56790,-8.4375,-1.375,-4.75,0
56810,-6.6875,0.5,-6.3125,0
56830,-4.4375,2,-6.0625,0
56850,0.0625,5.8125,-10.25,0
56870,4.1875,11.125,-17.625,0
56890,3.375,15.625,-24.3125,0
56910,3.625,16.3125,-27,0
56930,4.25,15,-27.0625,0
56950,3.3125,18,-30.5625,0
56970,4.9375,17.5,-33,0
56990,4.375,11.5625,-26.5625,0
57010,4.6875,7.0625,-16.8125,0
57030,4.4375,6.375,-10.5625,0
57050,2.5625,5.5625,-5.3125,0
57070,-4.4375,2.375,2.5,0
57090,-11.0625,0.6875,8.0625,0
57110,-12.125,3.625,9.4375,0
57130,-10.875,6.75,11,0
57150,-3.125,4.4375,14.5,0
57170,2.125,3.8125,20.25,0
57190,2.5,2.875,18.8125,0
57210,2.875,7.125,14.75,0
57230,4.9375,16.4375,11.875,0
57250,10.375,23.125,11.1875,0
57270,13.5,28.375,11.0625,0
57290,18,29.0625,9.75,0
57310,20.8125,32.1875,11.875,0
57330,20.5,33.4375,15.875,0
57350,19.9375,34.4375,15.1875,0
57370,17.75,32.8125,10,0
57390,15.3125,31.3125,9.6875,0
57410,9.6875,27.6875,11.25,0
57430,10.0625,24.125,13.75,0
57450,7.5625,24.8125,14.875,0
57470,1.5,23.8125,17.5,0
57490,-4.875,18.0625,20.875,0
57510,-7.3125,15.125,20.75,0
57530,-10.5,14.5625,18.1875,0
57550,-11.1875,16.5625,12.375,0
57570,-12.0625,16.8125,8.75,0
57590,-12.625,15.25,7.3125,0
57610,-10.5625,12.0625,5.1875,0
57630,-7.8125,8.875,0.0625,0
57650,-2.625,6,-2.375,0
57670,0.875,6,-4.0625,0
57690,1.75,6,-6.5625,0
57700,4.1875,4.875,-6.3125,0
57720,10,2.4375,-4.5,0
57740,16.5625,2.1875,-1.875,0
57760,21.1875,1.5,2.625,0
57780,22.9375,1.5625,6.5,0
57800,21.4375,0.75,7.625,0
57820,19.5625,-0.75,9.625,0
57840,16.75,-0.9375,12.625,0
57860,15.75,-3.0625,14.5,0
57880,13.875,-4,15.0625,0
57900,12.4375,-5.6875,13.125,0
57920,10,-6.125,8.5625,0
57940,9.25,-6.25,5.875,0
57960,9.75,-6.6875,3.8125,0
57980,12.375,-5.875,-0.0625,0
58000,14.25,-5.5,-3.375,0
58020,13.9375,-6.25,-5.375,0
58040,11.875,-6.25,-6.1875,0
58060,11.125,-4.75,-6.9375,0
58080,10.75,-3.625,-7.375,0
58100,9.6875,-3.375,-6,0
58120,8.0625,-3.5,-4.8125,0
58140,6.9375,-3.375,-3.75,0
58160,4.25,-2.5,-3.1875,0
58180,1.3125,-0.4375,-1.5,0
58200,-2.25,1.5625,0.8125,0
58220,-5.5,1.875,1.625,0
58240,-5.6875,1.375,1.4375,0
58260,-4.5625,0.9375,1.125,0
58280,-4.6875,-0.75,-0.5,0
58300,-5.6875,-2.5,-2.875,0
58320,-6.8125,-5.5625,-4.125,0
58340,-7,-9.3125,-5.25,0
58360,-6.5625,-11.375,-7.5,0
58380,-6.6875,-13,-9.0625,0
58400,-7.8125,-15.8125,-9.4375,0
58420,-7.375,-19,-10.9375,0
58440,-8.8125,-19.875,-11.9375,0
58460,-11.5625,-22.3125,-10.375,0
58480,-14,-24.5,-8.3125,0
58500,-16.125,-25,-6.75,0
58520,-17.3125,-23.8125,-5.25,0
58540,-17.75,-23.625,-2,0
58560,-14,-20.8125,0.25,0
58580,-10.3125,-19.125,2.3125,0
58600,-6.5,-17.0625,3.875,0
58620,-4.8125,-13.3125,3.3125,0
58640,-6.125,-9.5,2.6875,0
58660,-5.1875,-7.5,3.25,0
58680,-1.25,-5.4375,2.75,0
58700,0.8125,-3.5,1.75,0
58720,2.8125,-3.5625,1,0
58740,5.8125,-3.375,-0.5,0
58760,6.875,-2.375,-0.5,0
58780,6.375,-2.125,0.5625,0
58800,6.5,-3.25,1.25,0
58820,5.75,-3,1.625,0
58840,5,-3.125,2.9375,0
58860,3.625,-3.75,3.8125,0
58880,2.1875,-3.75,4.6875,0
58900,1.875,-3.375,6.5,0
58920,1.1875,-3.3125,8.375,0
58940,1.0625,-3.875,8.5,0
58960,1.375,-3.3125,7.0625,0
58980,1.25,-3,6.75,0
59000,1.5625,-2.9375,6.625,0
59020,1.6875,-3.375,5.5625,0
59040,1.25,-2.875,4,0
59060,3.5,-2.5,1.1875,0
59080,5.625,-3.5,-1.6875,0
59100,5.5,-4.375,-2.5,0
59120,3.875,-3.875,-2.8125,0
59140,2.3125,-4.5625,-3.0625,0
59160,2.4375,-5.5625,-2.5,0
59180,2.3125,-3.5,-3,0
59200,1.1875,-1.4375,-4,0
59220,1.4375,-1.125,-1.5,0
59240,0.25,-1.75,0.3125,0
59260,-1.125,-1.8125,0.4375,2000
59280,-1.125,-2.9375,-0.6875,0
59300,-1.625,-3.125,-0.625,0
59320,-3.5,-3.5625,2.125,0
59340,-5.625,-6.0625,3,0
59360,-5.6875,-7.75,4,0
59380,-8.25,-7.0625,8.3125,0
59400,-11.5,-5.375,8.875,0
59420,-10.3125,-7,7.9375,0
59440,-11.9375,-7.25,9.75,0
59460,-12.5,-5.3125,10.875,0
59480,-10.9375,-1.3125,8.125,0
59500,-7.375,-1.0625,6.9375,0
59520,-6.625,0.125,7,0
59540,-9.4375,2.0625,3.75,0
59560,-6.1875,3.1875,4.6875,0
59580,-1.25,2.625,7.6875,0
59600,0.875,4.4375,3,0
59620,-1.125,2.6875,-3.1875,0
59640,-3.5,0,1.6875,0
59660,-0.5625,4,6.25,0
59680,2.4375,4.8125,-0.75,0
59700,2.4375,-1.5625,-1.9375,0
59720,-0.0625,-5,7.3125,0
59730,-0.1875,-0.4375,9.6875,0
59750,0,0.1875,0.5,0
59770,-1.3125,-3.6875,-6.3125,0
59790,-1.3125,-6.5,-3.0625,0
59810,2.6875,-4.8125,-3.5625,0
59830,5,-4.0625,-12.9375,0
59850,-0.875,-6.75,-18.9375,0
59870,-3.3125,-11.5625,-15,0
59890,-3.125,-12.25,-11.9375,0
59910,-2.75,-9.0625,-16.5625,0
59930,-3.8125,-9.75,-18.375,0
59950,-8.25,-13.75,-13.6875,0
59970,-11.75,-13.125,-10.8125,0
59990,-12.625,-8,-14.9375,0
60010,-15.25,-7,-18.5625,0
60030,-18,-7.3125,-18.1875,0
60050,-16.4375,-7.4375,-19.4375,0
60070,-16.5,-1.8125,-22.9375,0
60090,-17.5625,2.8125,-24.125,0
60110,-20.875,3.25,-24.4375,0
60130,-19.4375,7.0625,-26.5,0
60150,-21.9375,13.8125,-29.75,0
60170,-21.9375,19.3125,-32.375,0
60190,-22.6875,13.3125,-33.875,0
60210,-21.375,13.6875,-34.4375,0
60230,-19.75,23.875,-33.9375,0
60250,-23.6875,27.5,-31.5,0
60270,-27,26.75,-30.8125,0
60290,-25.6875,33.9375,-30.125,0
60310,-26.25,37.9375,-29.125,0
60330,-27.6875,41.125,-29.9375,0
60350,-28.6875,48.5625,-32.5625,0
60370,-28.5625,56.0625,-30.6875,0
60390,-29.6875,60.4375,-24.625,0
60410,-31,65.125,-23.6875,0
60430,-31.75,72.8125,-27.375,0
60450,-34.0625,76,-25.875,0
60470,-34.375,79.3125,-23.375,0
60490,-34.125,80.625,-24.625,0
60510,-34,82.4375,-26.25,0
60530,-34.8125,84.25,-25,0
60550,-34.3125,82.5,-21.9375,0
60570,-33,84.6875,-22.5,0
60590,-32.375,84.125,-23.75,0
60610,-33.1875,78.375,-21.3125,0
60630,-28.3125,71.5625,-16.375,0
60650,-24.6875,70,-16.375,0
60670,-21.5625,67.875,-16.6875,0
60690,-21.3125,62.5625,-9.875,0
60710,-20.4375,57.75,0.9375,0
60730,-18.875,56.5625,5.0625,0
60750,-15.625,53.125,6.5,0
60770,-13,41.75,12.125,0
60790,-10.6875,33.8125,21.5,0
60810,-8.0625,35.5,33.0625,0
60830,-3.375,29.25,33.6875,0
60850,-1.875,19,33.25,0
60870,-1.6875,10.6875,37,0
60890,-1,13.5625,45.8125,0
60910,-1.4375,13.75,50.625,0
60930,0.5,6.75,46.25,0
60950,0.75,-0.375,42.375,0
60970,-1.4375,-4.1875,43.5625,0
60990,-1.25,-2.625,44.375,0
61010,2.75,-4.5,42.8125,0
61030,5.0625,-8.25,37.6875,0
61050,6.9375,-9,35.1875,0
61070,11.3125,-10.75,36.25,0
61090,16.5625,-16.25,31.375,0
61110,16.0625,-19.8125,24.4375,0
61130,10.875,-24,23.1875,0
61150,11.125,-29.5625,22.125,0
61170,15.5,-33.375,17.9375,0
61190,18.1875,-35.875,16.75,0
61210,19.6875,-39.25,18.25,0
61230,17.9375,-43.4375,18.25,0
61250,14,-46,17.0625,0
61270,12,-47.375,16.875,0
61290,14.5625,-48.875,15.8125,0
61310,18.5,-50.25,14.4375,0
61330,17.3125,-50.25,14.375,0
61350,15.25,-51.5625,13.8125,0
61370,15.75,-54.375,11.375,0
61390,16.75,-54.4375,10.0625,0
61410,15.75,-53.875,10.5625,0
61430,15.6875,-55.875,9.75,0
61450,14.5625,-57.625,9.9375,0
61470,12,-57.0625,10.5,0
61490,8.4375,-57.375,9.8125,0
61510,7.6875,-58.25,8.6875,0
61530,8,-57.1875,6.375,0
61550,7.75,-55.9375,4.1875,0
61570,10.9375,-57.875,1.5,0
61590,12.5,-58.25,-2.9375,0
61610,10.6875,-56.9375,-4.3125,0
61630,4.5625,-57.125,-2.875,0
61650,2.75,-59.5625,-5.0625,0
61670,3.8125,-60.3125,-8.625,0
61690,1.75,-59.9375,-9.375,0
61710,-3.875,-63.5625,-8.75,0
61730,-7.375,-66.875,-10.9375,0
61750,-10.1875,-64.25,-14.3125,0
61770,-10,-59.1875,-16,0
61790,-8.5625,-55.0625,-17.25,0
61810,-4,-52.3125,-22.3125,0
61830,-3.875,-49.25,-28.1875,0
61850,-4.875,-45.375,-31.1875,0
61870,-4.8125,-42.9375,-31.5625,0
61890,0.6875,-38.9375,-34.625,0
61910,1.75,-34.5625,-40.6875,0
61930,-0.1875,-30.6875,-45.875,0
61950,-4.25,-26.5,-49,0
61970,-6.125,-23.8125,-51.375,0
62010,-7,-10.4375,-53.5,0
62030,-13.5625,-5.5625,-56.5,0
62050,-16.1875,1.0625,-58.25,0
62070,-17.125,12,-57.8125,0
62090,-20.625,21.6875,-58.625,0
62110,-27.625,31,-61.1875,0
62130,-32.75,37.25,-64,0
62150,-33,44.8125,-62.0625,0
62170,-37.4375,53.125,-58,0
62190,-42.1875,60.375,-58.25,0
62210,-42.25,66.5,-58.125,0
62230,-42.5625,73.0625,-54.75,0
62250,-44.1875,79.9375,-51.6875,0
62270,-41.875,84.9375,-47.1875,0
62290,-36.9375,85.1875,-41,0
62310,-32.875,85.375,-35.9375,0
62330,-31.625,87.4375,-31.125,0
62350,-31.5,89.25,-24.3125,0
62370,-28.625,87.5625,-15.5625,0
62390,-24.9375,88.5,-7.1875,0
62410,-21.6875,88.25,-3.9375,0
62430,-17.8125,87.8125,-1.4375,0
62450,-13,84.75,4.25,0
62470,-8.5625,84.3125,11.9375,0
62490,-5.5625,81.5,17.8125,0
62510,-2.125,76,21.4375,0
62530,1.875,68.625,25.875,0
62550,8.875,59.375,32.4375,0
62570,5.3125,50.5,41.625,0
62590,5,40.625,48,0
62610,6.875,31.0625,49,0
62630,5.1875,20.8125,51.3125,0
62650,1.5,11,55.875,0
62670,-1.75,10,63.25,0
62690,-10.25,7.0625,69.375,0
62710,-1.375,-3.0625,65.75,0
62730,1.0625,-10.375,59.9375,0
62750,2.625,-16.3125,55.8125,0
62770,5.4375,-15.6875,53.1875,0
62790,6,-19.75,51.0625,0
62810,4.3125,-25.125,47.9375,0
62830,2.0625,-28.125,43.6875,0
62850,6.25,-31.75,39.3125,0
62870,11.25,-36.625,38.3125,0
62890,11.625,-40.5,37.125,0
62910,9.4375,-44.5,32.9375,0
62930,11.3125,-48.25,29.0625,0
62950,13,-52.6875,26.1875,0
62970,12.875,-55.8125,24.6875,0
62990,9.125,-58.4375,23.0625,0
63010,7.75,-61.75,20.1875,0
63030,5.1875,-64.1875,18.4375,0
63050,3,-67.0625,19.1875,0
63070,-0.125,-69.8125,18.375,0
63090,-0.25,-72.5625,15.875,0
63110,-4.6875,-73.3125,14.8125,0
63130,-9.0625,-75.25,12.6875,0
63150,-11.9375,-75,8.9375,0
63170,-14.25,-73.9375,4.375,0
63190,-15,-73.25,0.4375,0
63200,-13.875,-71.375,-4.5625,0
63220,-14.25,-69.8125,-8.8125,0
63240,-12.4375,-69.9375,-12.5,0
63260,-12.3125,-67.25,-16.625,0
63280,-12.3125,-64.75,-21.625,0
63300,-12.375,-64.0625,-25.875,0
63320,-12.375,-60.3125,-29.5625,0
63340,-15,-55,-31.9375,0
63360,-13.9375,-52.375,-36,0
63380,-14.25,-48.4375,-39.9375,0
63400,-17,-42.625,-42.4375,0
63420,-14.75,-39.0625,-43.375,0
63440,-12.1875,-34.125,-48.875,0
63460,-9.875,-25.4375,-51.9375,0
63480,-10.75,-14,-51.375,0
63500,-13.0625,-6.75,-53.875,0
63520,-13.6875,7.5625,-60.4375,0
63540,-18.1875,13.125,-60.3125,0
63560,-18.5,17.9375,-65.1875,0
63580,-20.6875,26.9375,-67.9375,0
63600,-24.375,39.125,-65.125,0
63620,-31.8125,45.8125,-62.3125,0
63640,-33.25,48.75,-64.0625,0
63660,-32.9375,54.5,-64.5625,0
63680,-31.75,61.5,-61.125,0
63700,-33.25,66.8125,-56.5,0
63720,-37.5,72.4375,-49.4375,0
63740,-36.9375,76.25,-41.25,0
63760,-33.75,79.9375,-34.5,0
63780,-33.0625,82.9375,-28.0625,0
63800,-29.9375,84.25,-20.5,0
63820,-24.75,84.4375,-12.9375,0
63840,-16.9375,85.0625,-5.625,0
63860,-13,82.3125,-1.25,0
63880,-13.1875,81.3125,4.375,0
63900,-14.75,81.5,12.9375,0
63920,-21.125,80.8125,25.875,0
63940,-17.5,70.4375,34.25,0
63960,-9.25,62.9375,38.5,0
63980,-9.25,59.0625,40.9375,0
64000,-10.5625,52.3125,43.75,0
64020,-10.9375,47.3125,47.25,0
64040,-9.625,48.5,49.25,0
64060,-6.125,45.4375,48.9375,0
64080,-8.8125,37.125,48.9375,0
64100,-4.125,29.125,48.625,0
64120,-1,25.0625,48.5625,0
64140,-3.5,14.375,48.75,0
64160,-5.5625,5.8125,47.375,0
64180,-1.4375,0.125,45.875,0
64200,3.3125,-3.25,47.0625,0
64220,-0.5,-6.625,47.75,0
64240,-5.5625,-12,44,0
64260,-0.6875,-20.6875,40.0625,0
64280,11.25,-31.3125,38.875,0
64300,17.9375,-36.5,38.1875,0
64320,16.6875,-37.75,35.25,0
64340,7.1875,-40.75,33.6875,0
64360,-4.625,-43.6875,35.3125,0
64380,-11.5,-46.6875,34.125,0
64400,-9.875,-50.5,31.4375,0
64420,-1.1875,-52.3125,30.625,0
64440,0.5625,-52,30.5625,0
64460,-3.8125,-53.1875,27.75,0
64480,-5.375,-55.3125,24.5625,0
64500,-6.875,-59,21.0625,0
64520,-7.5,-61.9375,18.125,0
64540,-7.875,-63.375,13.625,0
64560,-10.75,-64.375,7.3125,0
64580,-13.3125,-66.25,2.1875,0
64600,-12.8125,-68.375,-4.9375,0
64620,-10.1875,-67.75,-12.875,0
64640,-6.125,-67.75,-19.5,0
64660,-3.0625,-69.1875,-26.3125,0
64680,-2.375,-72.875,-33.375,0
64700,-0.9375,-75.625,-41.4375,0
64720,0.875,-73.375,-47.5625,0
64740,0.3125,-68.625,-48.9375,0
64760,-1.1875,-61.9375,-51.0625,0
64780,-0.875,-56.625,-57.125,0
64800,2.625,-53.4375,-65.25,0
64820,8.9375,-48.875,-69.375,0
64840,13.5625,-39.125,-67.3125,0
64860,13.9375,-33.5,-68.25,0
64880,12.9375,-30.5,-71.3125,0
64900,9.875,-24.0625,-69.25,0
64920,7.6875,-16.75,-61.125,0
64940,7.6875,-11.875,-56.25,0
64960,4.75,-9.625,-53.5625,0
64980,1.25,-6.125,-50.0625,0
65000,-2.4375,-0.0625,-43.25,2001
65020,-9.625,4.0625,-30.6875,0
65040,-10.5,3.875,-20.0625,0
65060,-10.9375,6.5,-14.625,0
65080,-13.9375,11.875,-7.75,0
65100,-13.0625,13.8125,2.1875,0
65120,-7.8125,17.9375,9.25,0
65140,-8.4375,17.5,12.9375,0
65150,-8.5,11.75,13.125,0
65180,-7.625,7.625,13.625,0
65200,-10.125,0.0625,16,0
65210,-10.5625,-5.6875,16.8125,0
65230,-10.875,-12,15.8125,0
65250,-14.4375,-15.0625,17,0
65270,-13.5625,-16.5,20.9375,0
65290,-13.0625,-17.8125,27.1875,0
65310,-7.125,-18.75,33,0
65330,-1.75,-21,37.1875,0
65350,-2.9375,-19.9375,44.4375,0
65370,-4.1875,-18.25,58.3125,0
65390,-3.625,-18.8125,72.6875,0
65410,-0.9375,-18.375,85.8125,0
65430,5.1875,-17.625,97.75,0
65450,12.375,-15.625,108.375,0
65470,16.375,-13.4375,113.625,0
65490,27.1875,-13.875,117.312,0
65510,33.875,-13.1875,126.188,0
65530,36.75,-11.5,130.5,0
65550,38.8125,-4.875,124.062,0
65570,44.125,1.125,119.125,0
65590,44.375,1.1875,116.562,0
65610,40.375,2.125,110.375,0
65630,43.75,5.6875,96.4375,0
65650,42.375,10,82.0625,0
65670,33.3125,15.1875,71.6875,0
65690,36.4375,15.5,61.5625,0
65710,42.125,18.3125,55.6875,0
65730,38.9375,24.6875,49.4375,0
65750,30.625,32.625,43.5625,0
65770,27.625,32.5,37.625,0
65790,30.625,28.1875,31.5,0
65810,31.625,24.1875,21.75,0
65830,27.375,15.875,16.125,0
65850,22.75,11.8125,13.5,0
65870,20.75,10,11.25,0
65890,17.875,9.6875,7.6875,0
65910,11.8125,9,6.25,0
65930,7.1875,6.4375,5.25,0
65950,7.5625,4.3125,4.75,0
65970,7.3125,1.375,4.25,0
65990,7.8125,-1.625,3.875,0
66010,6.875,-2.6875,3.5,0
66030,1.8125,-3.9375,4.3125,0
66050,-4.625,-10.5625,8.3125,0
66070,-8.125,-12.8125,11.6875,0
66090,-4.75,-9.6875,10.1875,0
66110,-4.8125,-3.875,6.25,0
66130,-1.5625,-7.1875,5.875,0
66150,-3.1875,-11.125,6.375,0
66170,-3.9375,-11.125,4.5,0
66190,-3.75,-7.625,2.6875,0
66210,-1.6875,-7.375,2.3125,0
66230,-0.875,-8.1875,1.9375,0
66250,-1.75,-8.0625,1.25,0
66270,-3.6875,-6.9375,0.375,0
66290,-0.25,-9.125,0.1875,0
66310,1.1875,-10.9375,1.0625,0
66330,-2.4375,-8.0625,-3.4375,0
66350,-6,-6.5625,-7.875,0
66370,-5.75,-9.125,-3.75,0
66390,-3.1875,-11.1875,-3.0625,0
66410,0.0625,-9.0625,-13.1875,0
66430,-3.125,-13.125,-16.8125,0
66450,-7.375,-16.3125,-10.6875,0
66470,-8.5625,-11.5625,-8.25,0
66490,-2.1875,-7.875,-15,0
66510,-9.625,-6.5625,-24.8125,0
66530,-9.1875,-16.375,-21.6875,0
66550,-15.0625,-17.125,-17.9375,0
66570,-13.0625,-10.25,-25.6875,0
66590,-8.75,-10.5625,-27.6875,0
66610,-12.875,-13.625,-21.5625,0
66630,-18.3125,-8.25,-19.25,0
66650,-20.4375,-1.9375,-24.4375,0
66670,-19.375,1.5625,-25.375,0
66690,-20.5,0.0625,-18.625,0
66700,-19.375,6.6875,-13.875,0
66720,-20.9375,17.5,-19.4375,0
66750,-27.25,28.4375,-17.625,0
66770,-25.5,30.5625,-13.6875,0
66790,-24.8125,38.9375,-15.625,0
66810,-27.8125,47,-19.25,0
66830,-33.5,52.3125,-13.8125,0
66850,-30.75,54.3125,-8.6875,0
66870,-26.5625,54.8125,-3.8125,0
66890,-23.125,53.75,-0.125,0
66910,-15.8125,43.875,-0.5,0
66930,-7.875,30.1875,-3.75,0
66950,-11,25.875,-6,0
66970,-18.25,24.0625,-4.75,0
66990,-20.9375,21.6875,-3,0
67010,-15.5,14.1875,1.25,0
67030,-7.9375,3.125,3.8125,0
67050,-3.75,-2,9.4375,0
67070,-0.3125,-6.8125,14.75,0
67090,1.6875,-11.3125,15.6875,0
67110,-0.0625,-13.9375,14.3125,0
67130,1.875,-18.0625,12.0625,0
67150,9.3125,-25.0625,15.8125,0
67170,13.9375,-27.9375,23.0625,0
67190,18.625,-25.125,28.6875,0
67210,15.75,-24.8125,24.1875,0
67230,7.125,-20.375,16.5,0
67250,-2.0625,-15.4375,9.9375,0
67270,-7.125,-14.0625,8.0625,0
67290,-6.6875,-12.625,5.9375,0
67310,0.4375,-5.75,0.625,0
67330,8.5,0.0625,-4.9375,0
67350,17.4375,2.375,-9.375,0
67370,13.875,0.4375,-9,0
67390,6.75,0.3125,-6.0625,0
67410,3.5,-0.375,-0.75,0
67430,-2.75,-1.0625,3.4375,0
67450,-7.1875,-1.625,2.375,0
67470,-9.75,-0.125,0.5625,0
67490,-17.0625,-3.5,4,0
67510,-17.5,-8.4375,10.5,0
67530,-21.8125,-5.125,11.375,0
67550,-26.25,-4.0625,10.8125,0
67570,-25.5,-7.125,14.625,0
67590,-26.125,-7.8125,16.75,0
67610,-31.875,-5.125,16.75,0
67630,-32.3125,-6.5,15.5625,0
67650,-23.9375,-7.25,18.5625,0
67670,-18.625,-5.375,19.0625,0
67690,-17.1875,-4.0625,16.1875,0
67710,-11.9375,-4.8125,12.625,0
67730,-7.3125,-6.5,10.9375,0
67750,-12.875,-8.875,10.9375,0
67770,-6.8125,-6.375,13.1875,0
67790,2.3125,4.5,6.3125,0
67810,-4.375,2.4375,0.0625,0
67830,-12.5625,-6.6875,9.0625,0
67850,-12.75,-10.8125,18.0625,0
67870,-11.8125,-7.625,15.6875,0
67890,-11.25,-2.75,10.3125,0
67910,-9.8125,-3,9.3125,0
67930,-7.625,-4.9375,9.875,0
67950,-10.6875,-6.1875,5,0
67970,-10.125,-5.875,2.8125,0
67990,-7.625,-2.875,3.625,0
68010,-3.875,-2.0625,-1.5625,0
68030,-3.375,-4.75,-4.375,0
68050,-4.75,-5.4375,-4.75,0
68070,-5.5,-2.0625,-10.3125,0
68090,-6.4375,-1.3125,-13.875,0
68110,-6.9375,1,-12.1875,0
68130,-8.375,3.6875,-10.8125,0
68150,-9.3125,5.3125,-8.3125,0
68170,-14.0625,6.125,-9.3125,0
68190,-15.1875,8.5,-8.4375,0
68210,-17.875,10.5625,-0.3125,0
68230,-19,15.75,3.5,0
68250,-20.875,17.1875,1.5,0
68270,-26.3125,17.5625,0.8125,0
68290,-27.25,18.25,-3.8125,0
68310,-8.6875,20.625,-11.75,0
68330,13.625,16.6875,-16.8125,0
68350,32.875,10.625,-15.9375,0
68370,41.8125,6.5625,-14.5625,0
68390,36.5,6.0625,-16.8125,0
68410,24.125,6.3125,-24.25,0
68430,15.75,8,-28.375,0
68450,26.1875,8.1875,-28.3125,0
68470,43.75,8.8125,-29.625,0
68490,59.25,9.25,-38,0
68510,73.9375,13.875,-52.0625,0
68530,85.4375,18.4375,-62.1875,0
68550,90.6875,22.75,-64.9375,0
68570,91.125,23.25,-63.8125,0
68590,82.875,20.75,-60.4375,0
68610,72.1875,19.3125,-50.75,0
68630,61.625,19.0625,-38.0625,0
68650,49.375,19.25,-28.375,0
68660,38.875,19.8125,-22.6875,0
68680,32.75,22.25,-16.625,0
68700,37.5625,31.125,-14.8125,0
68720,47.8125,40.9375,-15.5625,0
68740,66.4375,48.3125,-8.6875,0
68760,86.6875,46.875,2.8125,0
68780,104.75,52.625,11.125,0
68800,100.812,63.9375,11.8125,0
68820,85.375,64.8125,3.625,0
68840,71.5,52.0625,1.6875,0
68860,53.0625,33.5625,12.6875,0
68880,48.5,14.5,27.1875,0
68900,42.625,-0.875,40.3125,0
68920,25.375,-18.375,47.5625,0
68940,0,-33.3125,46.6875,0
68960,-15,-43.5,42.5625,0
68980,-20.5,-52.125,41.9375,0
69000,-18.5625,-52.0625,42.5,0
69020,-15.9375,-48.9375,37.5,0
69040,-10.0625,-49.25,32.4375,0
69060,-15.75,-45.3125,24.6875,0
69080,-22.1875,-43,4.75,0
69100,-23.9375,-36.6875,-15,0
69120,-18.125,-20,-26.8125,0
69140,-12.0625,-5.5,-30,0
69160,-9.5625,6.625,-33.125,0
69180,-15.125,13.1875,-36.875,0
69200,-20.4375,16.4375,-29.3125,0
69220,-28.25,17.5,-11.1875,0
69240,-37,22.125,2.5,0
69260,-46.9375,24.875,5.125,0
69280,-48.9375,24.0625,10.125,0
69300,-45.5625,22.1875,15.5625,0
69320,-40.1875,22.5,20.875,0
69340,-36.0625,21.4375,22.4375,0
69360,-35.3125,26.5625,15.875,0
69380,-29.0625,28.4375,11.0625,0
69400,-25.4375,24.5625,9.4375,0
69420,-20.3125,18.9375,12.75,0
69440,-16.3125,14.3125,13.875,0
69460,-11.125,13.4375,11.4375,0
69480,-8.8125,10,10.5,0
69500,-9.0625,3.875,11.375,0
69520,-7.625,-2.4375,12.9375,0
69540,-4.0625,-5.375,11.875,0
69560,0,-11.875,12.25,0
69580,1.25,-16.375,16.1875,0
69600,-1.5,-17.75,16.9375,0
69620,-5.625,-17.9375,15,0
69640,-4.9375,-20.0625,14.9375,0
69660,-2.25,-21.6875,16.9375,0
69680,-1.5,-19.6875,17.5625,0
69700,-0.6875,-17.6875,16.6875,0
69720,1.5625,-16.625,13.875,0
69740,1.125,-16.875,9.5,0
69760,-1.0625,-14.5,5.0625,0
69780,-0.4375,-10.125,3.875,0
69800,2.875,-5.8125,1.4375,0
69820,5.5,-5,-0.9375,0
69840,5.3125,-3.125,-1.875,0
69860,3.6875,-1,-1.625,0
69880,2.4375,1.25,-0.75,0
69900,4.75,3.0625,2,0
69920,2.9375,5.0625,3.3125,0
69940,0.4375,5.1875,4.125,0
69960,-0.0625,3.4375,6.125,0
69980,1.1875,1.125,9.3125,0
70000,0.0625,2.4375,9.5,0
70020,-2.5,3.8125,6.25,0
70040,-2.1875,3.625,3.6875,0
70060,-1.25,1.5625,4.125,0
70080,1.4375,0.6875,5.0625,0
70100,4.0625,-0.5625,4.75,0
70120,5.0625,-1.1875,5.6875,0
70140,4.125,-1.875,6.375,0
70160,2.625,-2.9375,6.5,0
70180,2.6875,0,4.75,0
70200,3.875,1.375,3.4375,0
70220,3.5,0.8125,2.875,0
70240,4.25,-1.3125,3.25,0
70260,4.125,-3.625,3.875,0
70280,3.4375,-2.5625,5,0
70300,4.3125,-0.4375,4,0
70320,2.625,1,0.875,0
70340,2.3125,1.875,0.75,0
70360,2.1875,2.8125,0.4375,0
70380,3.25,1.375,1.125,0
70400,5.5,0.125,2.6875,0
70420,3.75,1.9375,2,0
70440,-0.1875,3.25,1.0625,0
70460,-2.75,2.6875,1.0625,0
70480,-0.0625,-0.75,3.875,0
70500,2.1875,-1.5,5.875,0
70520,1.5625,-0.75,4.6875,2000
70540,-1.875,0.75,3.1875,0
70560,-4.5625,0.25,2.75,0
70580,-4.125,-3.6875,6,0
70600,-1.75,-5.8125,7.75,0
70620,-2.8125,-3.6875,5.4375,0
70640,-6.4375,-2.9375,0.875,0
70660,-7.625,-2.9375,-2,0
70680,-10.125,-4.125,1,0
70690,-7.0625,-1.5,4.4375,0
70710,-6.9375,2.875,-1.1875,0
70730,-7.5,2.8125,-6.3125,0
70750,-5.9375,0,-4.8125,0
70770,-3.5,-1.5625,-1.6875,0
70790,-3.1875,-0.4375,-2.75,0
70810,-1,-0.25,-2.3125,0
70830,-0.75,0.875,-0.4375,0
70850,-2.9375,-0.25,1.3125,0
70870,-4.125,-1.3125,-0.25,0
70890,-2.375,-4.25,1,0
70910,1.625,-7.0625,6.0625,0
70930,2.875,-4.75,5.0625,0
70950,1.8125,-1.6875,-1.8125,0
70970,-1.25,-6.125,-3.5,0
70990,1,-10.1875,1.125,0
71010,3.25,-7,-1.0625,0
71030,2.3125,-4.5625,-5.1875,0
71050,1.8125,-6.625,1.1875,0
71070,0,-4.375,3.375,0
71090,0.0625,-1.8125,-1.1875,0
71110,-0.5625,-3.6875,1.25,0
71130,-1.375,-4.3125,6.625,0
71150,0.6875,-0.375,2.8125,0
71170,-1.1875,-0.125,0.25,0
71190,1.1875,-2.5625,3.25,0
71210,3.4375,-2.3125,1.9375,0
71230,5.625,-1.5,-6.375,0
71250,5.5,-6,-6.1875,0
71270,4.8125,-8.3125,-1.5,0
71290,5.1875,-8.125,-5.375,0
71310,4.875,-9.3125,-13.625,0
71330,1.625,-13.375,-14.1875,0
71350,-0.5,-15.5,-11.25,0
71370,1.625,-17.1875,-13.6875,0
71390,1.1875,-18.9375,-18.875,0
71410,-2.875,-20.75,-19.875,0
71430,-8,-22.5,-18.0625,0
71450,-11.5,-21.9375,-19,0
71470,-12.375,-19.0625,-20.6875,0
71490,-14.8125,-17.75,-20.375,0
71510,-15.125,-17.125,-22.5,0
71530,-17.5625,-15.125,-24.625,0
71550,-20.8125,-12.75,-23.5,0
71570,-22,-7.875,-23.75,0
71590,-23.3125,-7.375,-23.3125,0
71610,-22.375,-1.75,-23.75,0
71630,-24.0625,0.875,-22.125,0
71650,-27.125,4.5,-21.8125,0
71670,-25.6875,4.9375,-22.4375,0
71690,-24.75,6,-20.125,0
71710,-23.75,10.75,-18.1875,0
71730,-25.125,13.5625,-20.8125,0
71750,-23.9375,18.3125,-23.9375,0
71770,-22.0625,19.375,-16.875,0
71790,-19.625,26.5625,-16.6875,0
71810,-20.625,27.9375,-17.5625,0
71830,-21.1875,30.1875,-15.625,0
71850,-20.25,40.3125,-13.6875,0
71870,-20.9375,44.4375,-14.9375,0
71890,-21.375,47.8125,-17.625,0
71910,-21.125,50.0625,-18.625,0
71930,-23.875,55.1875,-20.5625,0
71950,-27.875,56.125,-23.25,0
71970,-28.75,57.375,-25.625,0
71990,-27.3125,63.875,-26.875,0
72010,-28,65.625,-28.0625,0
72030,-27.75,67.6875,-30.4375,0
72050,-29.1875,72.6875,-31.25,0
72070,-30.1875,77.6875,-30.4375,0
72090,-29.1875,78.8125,-30.25,0
72110,-25.5625,80.25,-30.6875,0
72130,-23.625,84.1875,-28.75,0
72150,-22.875,85.875,-25.875,0
72170,-22.9375,83.5,-23.125,0
72190,-22.9375,79.75,-20.5,0
72210,-20.625,77.5625,-16.4375,0
72230,-13.8125,77.375,-11.6875,0
72250,-7.5625,79.625,-7.0625,0
72270,-4.5,77.1875,-5.6875,0
72290,1.4375,71.3125,-0.25,0
72310,7.1875,65.75,5.125,0
72330,9.375,62.1875,13.3125,0
72350,7.25,54.9375,17.375,0
72360,6.25,43.25,21.625,0
72380,6.5,31.0625,27.4375,0
72400,9.875,24.75,32.9375,0
72420,11.6875,16.8125,33.25,0
72440,11.9375,7,33.875,0
72460,10.625,4.6875,38.1875,0
72480,9.5625,1.375,39.6875,0
72500,8.375,-3.1875,39.1875,0
72520,8.1875,-8,38.875,0
72540,6.125,-7.75,41.125,0
72560,7.125,-11.875,41,0
72580,8.1875,-16.5625,38.4375,0
72600,7.375,-21,37.25,0
72620,6.125,-22.375,37.6875,0
72640,1.625,-23.3125,34.6875,0
72660,3.3125,-27.1875,30.5,0
72680,3.9375,-31.1875,30.0625,0
72700,4.9375,-34,29.25,0
72720,9.8125,-34.125,25.875,0
72740,11.1875,-36.25,23.25,0
72760,7.6875,-39.4375,22.1875,0
72780,3.4375,-42.875,21.875,0
72800,2.1875,-46,19.9375,0
72820,5,-47.6875,18.375,0
72840,4,-49.875,19.75,0
72860,1.0625,-52.75,18.6875,0
72880,-0.3125,-55.3125,14.3125,0
72900,-2.5625,-56.875,12.1875,0
72920,-4.375,-59.375,12,0
72940,-4.25,-60,11.0625,0
72960,-6.5625,-59.0625,9.8125,0
72980,-9.5625,-59.6875,9.125,0
73000,-9.3125,-60.625,8.875,0
73020,-7.1875,-60.8125,9.375,0
73040,-7.8125,-60.625,9.0625,0
73060,-7.9375,-61.1875,7.8125,0
73080,-8.375,-60.8125,7.375,0
73100,-8.375,-59.875,6.75,0
73120,-8.3125,-59.8125,3.5625,0
73140,-7.9375,-60.9375,1,0
73160,-7.5625,-61.5,-1.375,0
73180,-5.1875,-62.5625,-5.8125,0
73200,-2.5,-63.25,-10.8125,0
73220,-3,-63.0625,-13.8125,0
73240,-3.125,-62.75,-16.75,0
73260,-2.5625,-63.1875,-21.875,0
73280,-0.75,-61.8125,-26.8125,0
73300,-1.4375,-58.8125,-28.9375,0
73320,-1.5625,-56.3125,-30.8125,0
73340,-1.0625,-55.75,-34.8125,0
73360,3.6875,-54.125,-37,0
73380,5.3125,-47.4375,-40.125,0
73400,4.375,-42.5,-41.75,0
73420,2,-36.25,-42.25,0
73440,1.625,-30.8125,-43.9375,0
73460,2.6875,-26.25,-45.5625,0
73480,2.0625,-22.4375,-48.875,0
73500,0.4375,-17.3125,-52.6875,0
73520,-2.3125,-8.375,-52.125,0
73540,-5.75,-3.8125,-50.6875,0
73560,-8.6875,3.0625,-51.0625,0
73580,-9.8125,7.375,-52.25,0
73600,-8.1875,14.75,-51.6875,0
73620,-10.625,19.9375,-50.375,0
73640,-14.3125,25.5,-49.9375,0
73660,-15.0625,30.6875,-50.4375,0
73680,-17.125,36.75,-50.4375,0
73700,-21.3125,42.3125,-50.625,0
73720,-21,50.5,-50.9375,0
73740,-19.5,54.1875,-50.4375,0
73760,-17.125,55.5,-47,0
73780,-20.125,66.3125,-45.3125,0
73800,-20.1875,69.125,-45.4375,0
73820,-22.1875,72.5,-41.8125,0
73840,-21.0625,74.9375,-36.5,0
73860,-19.5,74.875,-34.1875,0
73880,-16.375,79.9375,-33.9375,0
73900,-14.75,81.875,-32.625,0
73920,-15.0625,82.625,-29.875,0
73940,-16.0625,82.6875,-26.5,0
73960,-14.625,83.375,-21,0
73980,-13.375,83.5625,-16.375,0
74000,-14.1875,83.75,-13.9375,0
74020,-13.6875,81.1875,-11.1875,0
74040,-11.1875,77.75,-7.5625,0
74060,-10.125,76,-1.9375,0
74080,-9.3125,72.4375,-0.625,0
74100,-7,66.75,2.75,0
74110,-6,63.375,10.0625,0
74130,-4,57.875,15.625,0
74150,-2.125,50.125,16.875,0
74170,-1.375,51.125,24.875,0
74190,-0.875,45.375,34.25,0
74210,-1.375,35.875,38.3125,0
74230,-3.25,30.5,39.8125,0
74250,-7.8125,28.875,43.8125,0
74270,-6.875,27.9375,50.75,0
74290,-5.625,23.3125,55.875,0
74310,-7.5,13.3125,52.6875,0
74330,-9.625,7.75,50.5,0
74350,-9.4375,3.75,51.3125,0
74370,-13.375,-0.3125,51.0625,0
74390,-18.75,-6.0625,48.875,0
74410,-22.6875,-10.6875,46.1875,0
74430,-22.75,-12.75,43.4375,0
74450,-18.8125,-16,39.6875,0
74470,-8.3125,-20.625,35.25,0
74490,-3.375,-25.375,31.4375,0
74510,0.75,-27.625,28.3125,0
74530,4,-29.4375,27.125,0
74550,2.5,-32.5625,26,0
74570,-0.25,-35.875,24.375,0
74590,-0.75,-39.8125,22.75,0
74610,0.4375,-43,22.375,0
74630,0.125,-44.9375,21.875,0
74650,-1.875,-45.6875,19.8125,0
74670,-7.25,-48.625,18.875,0
74690,-8.5625,-53,18.9375,0
74710,-6.8125,-56.1875,16.9375,0
74730,-4.375,-58.3125,15.375,0
74750,-4.375,-60.125,15.5,0
74770,-6.375,-61.8125,15.375,0
74790,-7.5,-62.125,14.625,0
74810,-10.6875,-62.625,13.75,0
74830,-13.75,-63.5625,13.375,0
74850,-14.4375,-65.375,12.3125,0
74870,-13.625,-67.125,8.875,0
74890,-14.625,-67.4375,7.4375,0
74910,-13.8125,-69.25,5.4375,0
74930,-12.25,-71.3125,1.3125,0
74950,-12.125,-71.9375,-3.25,0
74970,-14.625,-71.375,-6.0625,0
74990,-15.6875,-72.25,-9,0
75010,-14.25,-72.375,-12.375,0
75030,-12.4375,-68,-16.3125,0
75050,-10.4375,-64.5625,-22,0
75070,-9.4375,-62.6875,-26,0
75090,-7.125,-60,-30.375,0
75110,-6.375,-56.3125,-35.75,0
75130,-3.6875,-53,-40.125,0
75150,-2.625,-50.1875,-42,0
75170,-3.8125,-45,-42.625,0
75190,-0.75,-42.0625,-44.9375,0
75210,-1.75,-37.875,-50,0
75230,-3.6875,-33.5,-53.4375,0
75250,-5.625,-26.75,-53.5,0
75270,-6.4375,-19.25,-52.5625,0
75290,-6.6875,-15.5625,-55.3125,0
75310,-9.375,-12.9375,-58,0
75330,-11.0625,-7.25,-57.5625,0
75350,-11.875,0.4375,-52.75,0
75370,-13.75,8.5,-49.3125,0
75390,-14.25,10.625,-50.6875,0
75410,-15.5625,13.5625,-52.5,0
75430,-17.8125,18.125,-52.0625,0
75450,-18.375,24.5,-50.0625,0
75470,-20.5,31.125,-46.8125,0
75490,-22.3125,34.6875,-45.625,0
75510,-24,38.625,-43.1875,0
75530,-24.3125,43.875,-41.625,0
75550,-25.125,47.1875,-41.0625,0
75570,-27.3125,50.9375,-38.75,0
75590,-30.1875,57.0625,-33.9375,0
75610,-30.0625,62.25,-31,0
75630,-26.4375,63.3125,-28.875,0
75650,-24.5625,64.6875,-26.0625,0
75670,-25.8125,68.9375,-24.375,0
75690,-26.5625,70,-22.4375,0
75710,-25.0625,67.8125,-18.1875,0
75730,-21.375,65.5,-12.0625,0
75750,-20.375,64.375,-6.1875,0
75770,-18.8125,66,-0.9375,0
75790,-17.0625,66.375,3.5,0
75810,-17.3125,65.875,8.375,0
75830,-15.5625,62.4375,11.5,0
75850,-13.125,60.1875,14.125,0
75870,-8.1875,59.25,15.75,0
75890,-5.375,56,16.3125,0
75910,-8.3125,52.5625,17.3125,0
75930,-9.8125,48.3125,19.25,0
75950,-5.5,44.875,23.9375,0
75970,-4.25,39.1875,27.9375,0
75990,-5.5,35.4375,29.6875,0
76010,-4.375,32.0625,34.125,0
76030,-2.6875,27.1875,41.5625,0
76050,-7.5625,22.375,45.0625,0
76070,-9.0625,20.0625,44.5,0
76090,-10.25,19.875,45.375,0
76110,-10.5,16.9375,48.8125,0
76130,-11.3125,9.25,49.625,0
76140,-10.0625,2.125,46.625,0
76160,-8.1875,-1.375,44.75,0
76180,-8.0625,-5.6875,45.625,0
76200,-11.875,-9.625,45.8125,0
76220,-15.125,-14.25,43.4375,0
76240,-14.9375,-19.5625,40.5,0
76260,-13.5,-22.3125,40.375,0
76280,-14,-25.6875,41,0
76300,-12.9375,-27.25,38,0
76320,-12,-28.9375,34.375,0
76340,-11.125,-30.75,33.3125,0
76360,-8.5625,-31.4375,32.4375,0
76380,-5.5,-33.0625,28.625,0
76400,-2.5625,-35.9375,25.5625,0
76420,-2.9375,-37.375,23,0
76440,-3.6875,-38.4375,21.5,0
76460,-6.5625,-39.75,21.625,0
76480,-4.9375,-41.5,21,0
76500,-1.5,-42.9375,17.4375,0
76520,2.125,-44.8125,16.1875,0
76540,2.875,-44.5625,16.5,0
76560,2.0625,-43.625,14.625,0
76580,1.5625,-44.1875,13.375,0
76600,-1.3125,-46.25,13.1875,0
76620,-0.5625,-46.5625,10.8125,0
76640,2.25,-47.4375,6.3125,0
76660,2.5625,-49.125,3.75,0
76680,0.5,-51.5625,0.5625,0
76700,-0.75,-52,-4.1875,0
76720,0.1875,-50.5625,-8.625,0
76740,-0.5625,-48.0625,-10.3125,0
76760,-2.125,-48.1875,-11.9375,0
76780,-0.25,-48.8125,-15.875,0
76800,0.3125,-48.8125,-19.8125,0
76820,3.75,-48.5625,-22.3125,0
76840,1,-46.4375,-25.4375,0
76860,-0.9375,-42.75,-29.9375,0
76880,-2.9375,-41,-33.25,0
76900,-2.125,-40.875,-38,0
76920,2.8125,-41.1875,-45.4375,0
76940,7.4375,-38.8125,-51.875,0
76960,6.375,-35.1875,-54.125,0
76980,5.4375,-32.8125,-57.6875,0
77000,4.125,-32.625,-63.0625,0
77020,4,-31.5,-68.5,0
77040,2.5625,-27.625,-67.625,0
77060,2.75,-23.3125,-63.375,0
77080,2.4375,-21.5,-61.5625,0
77100,-0.5625,-21.5625,-63,0
77120,-2.875,-20.6875,-60.0625,0
77140,-4.4375,-17.875,-54.1875,0
77160,-7.25,-15.1875,-48,0
77180,-11.6875,-11.0625,-39.8125,2001
77200,-14.375,-9.9375,-34,0
77220,-16.5,-6.375,-28.1875,0
77240,-20.875,-1.9375,-16.8125,0
77260,-22,-0.5,-8.75,0
77280,-20.625,0.1875,-4.625,0
77300,-20.375,0.4375,-0.5625,0
77320,-20.1875,3,6.375,0
77340,-19.25,5.9375,10.5625,0
77360,-18.4375,8.375,11.375,0
77380,-16.6875,8.625,11.375,0
77400,-13.6875,8.5,13.125,0
77420,-10.8125,8.75,15.0625,0
77440,-8.0625,8,15.3125,0
77460,-6.3125,6.3125,14.3125,0
77480,-7.25,4.8125,15.375,0
77500,-7.625,3.375,18.0625,0
77520,-4.375,2.6875,21.25,0
77540,-1.625,1.1875,24.75,0
77560,-0.5,-0.3125,32.0625,0
77580,-1.0625,0.375,40.3125,0
77600,-1.375,0.8125,49.1875,0
77620,2.375,-0.0625,57.5625,0
77640,4.5625,-0.75,62.5,0
77660,6.1875,0.375,66.5625,0
77680,8.8125,-2.75,71.75,0
77700,9.9375,-7.75,79.25,0
77720,12.3125,-8.875,85.6875,0
77740,17.8125,-3.0625,89.0625,0
77760,20,5.75,88.5625,0
77780,22.625,15.5625,84.9375,0
77800,28,20.25,85,0
77820,37.1875,23.625,92.625,0
77840,40.6875,21.875,98.25,0
77860,43.4375,22.8125,94.5625,0
77880,49,28.4375,89.9375,0
77900,49.75,32.9375,84.75,0
77920,43.6875,33.125,73.1875,0
77940,45.0625,29.8125,57.9375,0
77960,49.625,24.25,46,0
77980,51.625,19.25,40.5,0
78000,51.6875,15.875,33.625,0
78020,51.5625,12.9375,21.75,0
78040,52.4375,10.0625,15.4375,0
78060,52.375,8,11.875,0
78080,51.5,3.5,7.25,0
78100,53.1875,-1.875,0.375,0
78120,53.625,-5.9375,-4,0
78140,50.875,-8.375,-7.1875,0
78160,47.9375,-9.5625,-10.25,0
78180,47,-11.6875,-11,0
78200,43.5625,-14.4375,-6.3125,0
78220,39.875,-16.25,0.125,0
78240,38.25,-18.9375,6.8125,0
78260,35.875,-20.1875,13.6875,0
78280,32.75,-15.125,17.8125,0
78300,32.5,-9.1875,17.9375,0
78320,32.3125,-6.5625,13.625,0
78340,31.0625,-6.0625,17.375,0
78360,27.75,-4.3125,22.1875,0
78380,28.4375,-2.3125,18.125,0
78400,31.0625,-1.6875,11.1875,0
78420,31.625,-2.6875,6.1875,0
78440,32.25,-1.625,2.1875,0
78460,32.75,-1.3125,-0.8125,0
78480,37.3125,-0.1875,-3.125,0
78500,40.5625,0.5625,-5.8125,0
78520,36.4375,0.6875,-5.5625,0
78540,34,1.25,-5.625,0
78560,32.25,2.3125,-5.1875,0
78580,31.625,2.5625,-4.4375,0
78600,27.3125,1.625,-1,0
78620,22.875,-0.1875,-1.1875,0
78640,19,-2.75,-0.625,0
78660,12.5,-6.0625,1,0
78680,8.375,-9.75,4.25,0
78700,7.125,-12.1875,4.6875,0
78720,8.6875,-16.5625,2.625,0
78740,8.6875,-12.625,-2.0625,0
78760,2.375,-7.5,-5.8125,0
78780,0.5,-7.0625,-2.75,0
78800,-1,-8.0625,0.625,0
78820,-0.5,-9,-0.3125,0
78840,-2.375,-9.375,0.8125,0
78860,-5.625,-9.125,4.5625,0
78880,-4.8125,-7.375,3.75,0
78900,-1.625,-12,0.5625,0
78920,-2.125,-16.375,2.75,0
78940,-4.9375,-14.125,4.125,0
78960,-4,-11.5625,1.5,0
78980,-4.8125,-11.5,0.0625,0
79000,-5.75,-15.375,0.1875,0
79020,-2.25,-15.3125,1.1875,0
79040,0.5,-15.125,0.3125,0
79060,-0.625,-13.9375,-0.875,0
79080,-4.8125,-15.0625,-1.9375,0
79100,-9.1875,-14.25,0.4375,0
79120,-10.25,-13.75,-4.9375,0
79140,-9.3125,-12.4375,-8.5,0
79160,-7.625,-10.875,-9.4375,0
79180,-6.875,-10.1875,-11.9375,0
79200,-5.375,-8.1875,-12.5,0
79220,-6.9375,-4.3125,-11.9375,0
79240,-12.25,-0.125,-12.125,0
79260,-14.9375,0.5625,-12.1875,0
79280,-22.375,4.1875,-11.0625,0
79300,-25.75,13.8125,-9.8125,0
79320,-28.4375,19.375,-12.1875,0
79340,-34.0625,19.0625,-16.9375,0
79360,-39.125,17.125,-18.1875,0
79380,-41.25,24,-15.6875,0
79400,-41.0625,33.5625,-9.5,0
79420,-41.5,38.875,-2.875,0
79440,-41.5,40.25,6.25,0
79460,-38.75,29.6875,21.4375,0
79480,-38.625,23.8125,29.8125,0
79500,-42.9375,16.5,25.0625,0
79520,-53,12.5625,14.625,0
79540,-64.5,8.9375,12,0
79560,-63.1875,7.25,13.375,0
79580,-53.5625,2.8125,17,0
79600,-51.0625,-1.1875,18.375,0
79610,-55.25,-7.9375,22.3125,0
79630,-58.9375,-10.75,22.6875,0
79650,-63.6875,-10,18.9375,0
79670,-63.0625,-8.875,16.875,0
79690,-53.6875,-10.75,19.875,0
79710,-42.9375,-12.8125,25.3125,0
79730,-36.5,-12.5625,24.6875,0
79750,-34.5,-7.3125,17.8125,0
79770,-39.625,-7.375,14.625,0
79790,-39.8125,-6.0625,19.125,0
79810,-36.8125,-7.625,20.1875,0
79830,-30.5625,-6.6875,15.875,0
79850,-24.875,-6.9375,9.5625,0
79870,-21.1875,-9.3125,7.25,0
79890,-21.3125,-8.875,6.125,0
79910,-12.8125,-5.1875,3.1875,0
79930,-5.0625,-5.6875,1.25,0
79950,-1.375,-8.75,2.875,0
79970,-2.0625,-8.125,1.875,0
79990,-4.6875,-5,-3,0
80010,-3.1875,-6.25,-2.5625,0
80030,1.625,-8.8125,1.875,0
80050,5,-7.5,1.375,0
80070,4.125,-6,-2.5625,0
80090,-0.125,-6.5,-1.75,0
80110,1,-5.875,2,0
80130,4.1875,-4.25,2.125,0
80150,3.375,-4.75,-3.0625,0
80170,0.9375,-6.6875,-3.1875,0
80190,0,-7.4375,-1.0625,0
80210,-3,-6,-0.6875,0
80230,-9.375,-5.9375,1.625,0
80250,-11.8125,-3.75,2.5625,0
80270,-17.4375,2.5625,0.375,0
80290,-16.875,6.875,-0.4375,0
80310,-14,6.4375,-2.875,0
80330,-5.5625,8.25,-11.4375,0
80350,-3.0625,18.5,-20.75,0
80370,-5.25,27.125,-21.75,0
80390,-9.5625,30.5625,-16.8125,0
80410,-10.625,36.5625,-13.5,0
80430,-10.1875,41.625,-14.25,0
80450,-0.5,42.125,-11.625,0
80470,12,40,-4.875,0
80490,14.875,42.6875,-2.1875,0
80510,9.5625,43.9375,-5.3125,0
80530,3.8125,39.375,0.5625,0
80550,-4.4375,32.25,10.125,0
80570,-9.9375,24.875,5.375,0
80590,-15.5625,21.75,-0.4375,0
80610,-8.6875,22,6.5,0
80630,3.5,23.375,17.0625,0
80650,3.75,18.0625,15.5625,0
80670,2.1875,8.875,13.0625,0
80690,0.125,2.0625,17.875,0
80710,0.6875,-5.0625,21.625,0
80730,-1.3125,-6.5625,22.8125,0
80750,2.0625,-5.1875,20.375,0
80770,6.0625,-6.625,17.6875,0
80790,9.9375,-9.875,18.75,0
80810,11.125,-11.3125,17.8125,0
80830,10,-10.375,14.0625,0
80850,7.1875,-12.5,14.5625,0
80870,3.6875,-14,16.5,0
80890,5.5625,-11,13.1875,0
80910,6.25,-9.125,10,0
80930,7.25,-14.375,9.75,0
80950,8.1875,-19.1875,8.25,0
80970,10.1875,-17.4375,4.4375,0
80990,11,-13.125,0.25,0
81010,9.75,-11.625,2,0
81030,10,-8.5625,3.75,0
81050,8.625,-6.1875,1.375,0
81070,3.25,-9.375,0.0625,0
81090,5.5,-15.3125,4.625,0
81110,11.375,-12.875,5.75,0
81130,9.625,-7.6875,2.6875,0
81150,7.9375,-4.5625,0.4375,0
81170,1.1875,-6.875,2.6875,0
81190,-1.625,-8.5,7.5625,0
81210,-3,-7.4375,8.6875,0
81230,-0.8125,-4.375,6.875,0
81250,0.1875,-1.25,4,0
81270,1.0625,-0.6875,5.25,0
81290,-0.875,-2.4375,7.9375,0
81310,1,-3.5,9.3125,2000
81330,4.1875,-3.3125,7.4375,0
81350,1.625,1.3125,4.8125,0
81370,-0.5625,2.125,7.375,0
81390,-1.75,1.4375,5.5625,0
81410,-3.875,-0.125,2.875,0
81430,-0.375,0.25,5.1875,0
81450,1.875,0.5625,4.125,0
81470,4.4375,3.6875,0.5625,0
81490,4.8125,4.375,-1.5625,0
81510,6.0625,3.375,-1.5,0
81530,7,1.5625,-0.625,0
81550,6.8125,1.75,-0.0625,0
81570,8.3125,3.75,-0.5,0
81590,5.4375,2.5,-0.375,0
81610,1.125,-0.5,1.75,0
81630,-3.3125,-1.25,2.8125,0
81640,-4,-0.625,1.375,0
81660,-4.8125,-2.6875,1.625,0
81680,-3.5,-6.25,4.625,0
81700,-3.625,-5.625,5.25,0
81720,-2,-2.0625,1.375,0
81740,1.6875,-1.1875,-2.625,0
81760,2.75,-3.5,-2.75,0
81780,4.875,-4.9375,1.5,0
81800,3.75,-1.6875,2.4375,0
81820,3.1875,1.1875,-0.25,0
81840,1.125,-0.75,-2.4375,0
81860,2.0625,-3,-0.0625,0
81880,6.8125,-2.5625,0.1875,0
81900,8.75,-1.625,-1.0625,0
81920,9.8125,-1.8125,-2.375,0
81940,3.5625,-4.0625,-2.5625,0
81960,-0.1875,-6.625,3.0625,0
81980,0.625,-6.4375,4.5625,0
82000,2,-3.9375,-1.125,0
82020,2.9375,-2.9375,-1.8125,0
82040,1.4375,-5.625,2.3125,0
82060,3.0625,-4.5,-1.1875,0
82080,5.5,-1.5,-6.5625,0
82100,5.375,-0.75,-3.625,0
82120,5.3125,1.4375,0.8125,0
82140,6.125,4.5,3.125,0
82160,7.4375,5.3125,2.5625,0
82180,8,2.0625,1.5625,0
82200,15.875,0.0625,-3.375,0
82220,19.75,-1.5,-3.625,0
82240,14.75,-3.9375,-6,0
82260,9.5,-6.6875,-11.625,0
82280,5.125,-9.875,-18.8125,0
82300,9.8125,-13.75,-20.5625,0
82320,23,-16,-20.0625,0
