Timestamp, Angle x, Angle y, Angle z, Marker
30,-0.805998,-0.289451,-2.65264,0
60,-0.806363,-0.294473,-2.6584,0
80,-0.807404,-0.301272,-2.66364,0
100,-0.808737,-0.307652,-2.66865,0
120,-0.810296,-0.311298,-2.67603,0
140,-0.81098,-0.314047,-2.68499,0
160,-0.81223,-0.319546,-2.69295,0
180,-0.81603,-0.324862,-2.69792,0
200,-0.822109,-0.328542,-2.70172,0
220,-0.826367,-0.330833,-2.70618,0
220,-0.827088,-0.334644,-2.71302,0
220,-0.825323,-0.338555,-2.72198,0
270,-0.82327,-0.341073,-2.73263,0
290,-0.820444,-0.345472,-2.74357,0
310,-0.816929,-0.351368,-2.75429,0
330,-0.813327,-0.356212,-2.76698,0
350,-0.808943,-0.360328,-2.78089,0
370,-0.804928,-0.364887,-2.79302,0
390,-0.801769,-0.36956,-2.80364,0
410,-0.799437,-0.37327,-2.81526,0
430,-0.796459,-0.375169,-2.8299,0
450,-0.791979,-0.377693,-2.84559,0
470,-0.78625,-0.382488,-2.85929,0
490,-0.780505,-0.38807,-2.87271,0
510,-0.774668,-0.394102,-2.88678,0
530,-0.769607,-0.399854,-2.9015,0
550,-0.766481,-0.404062,-2.91468,0
570,-0.763926,-0.407704,-2.92575,0
590,-0.760398,-0.411921,-2.93767,0
610,-0.756238,-0.417426,-2.95158,0
630,-0.752285,-0.421836,-2.96566,0
650,-0.750995,-0.424217,-2.97693,0
670,-0.749744,-0.425757,-2.98851,0
690,-0.747566,-0.428278,-3.00021,0
710,-0.74528,-0.432116,-3.01082,0
730,-0.745869,-0.436032,-3.01898,0
750,-0.74866,-0.438398,-3.02536,0
770,-0.752955,-0.441599,-3.0284,0
790,-0.757927,-0.445315,-3.02779,0
810,-0.76419,-0.448441,-3.02513,0
830,-0.768839,-0.449142,-3.02241,0
850,-0.770108,-0.446827,-3.02506,0
870,-0.769407,-0.444395,-3.03032,0
890,-0.770167,-0.442909,-3.03129,0
910,-0.770823,-0.439306,-3.03036,0
920,-0.770132,-0.434114,-3.03173,0
940,-0.771166,-0.428789,-3.03155,0
960,-0.774505,-0.423955,-3.02802,0
980,-0.779171,-0.414701,-3.02318,0
1000,-0.778394,-0.411382,-3.02378,0
1020,-0.777672,-0.408575,-3.02356,0
1040,-0.777788,-0.406323,-3.0227,0
1060,-0.778454,-0.4048,-3.02187,0
1080,-0.780598,-0.405512,-3.01879,0
1100,-0.783818,-0.407061,-3.01335,0
1120,-0.785807,-0.407018,-3.00942,0
1140,-0.788898,-0.406814,-3.0081,0
1160,-0.792605,-0.406838,-3.00795,0
1180,-0.796024,-0.407388,-3.00515,0
1200,-0.799869,-0.408138,-3.00118,0
1220,-0.801816,-0.407905,-3.00084,0
1240,-0.803011,-0.407647,-3.00313,0
1260,-0.803951,-0.408827,-3.00562,0
1280,-0.806148,-0.411226,-3.00472,0
1300,-0.807495,-0.412695,-3.00456,0
1320,-0.807224,-0.414356,-3.00691,0
1340,-0.80569,-0.415649,-3.01179,0
1360,-0.802849,-0.416391,-3.0197,0
1380,-0.798212,-0.415831,-3.03224,0
1400,-0.792082,-0.413716,-3.04818,0
1420,-0.786054,-0.411,-3.06376,0
1440,-0.782148,-0.41087,-3.07588,0
1460,-0.779178,-0.413901,-3.08241,0
1480,-0.775285,-0.416099,-3.08774,0
1500,-0.770631,-0.414824,-3.09601,0
1520,-0.766994,-0.412228,-3.10592,0
1540,-0.765458,-0.411653,-3.11348,0
1560,-0.764734,-0.413282,-3.11872,0
1580,-0.762465,-0.414983,-3.12375,0
1600,-0.758742,-0.415978,-3.13033,0
1620,-0.755888,-0.416853,-3.13716,0
1640,-0.756173,-0.417295,3.14089,0
1660,-0.757202,-0.417225,3.13557,0
1680,-0.756655,-0.417575,3.13021,0
1700,-0.754914,-0.419622,3.12434,0
1720,-0.753194,-0.422321,3.11847,0
1740,-0.752105,-0.424193,3.11318,0
1760,-0.752086,-0.425993,3.10932,0
1780,-0.752552,-0.427177,3.10477,0
1800,-0.752374,-0.428646,3.10034,0
1820,-0.751918,-0.431053,3.09726,0
1840,-0.752494,-0.432929,3.09571,0
1860,-0.754035,-0.434514,3.09287,0
1880,-0.755925,-0.435853,3.09003,0
1900,-0.758368,-0.437923,3.08758,0
1920,-0.760228,-0.439705,3.08504,0
1940,-0.763099,-0.44103,3.08293,0
1960,-0.766479,-0.441816,3.08071,0
1980,-0.770801,-0.442739,3.07779,0
2000,-0.775294,-0.444208,3.07622,0
2020,-0.779633,-0.446776,3.07684,0
2040,-0.784826,-0.449048,3.07751,0
2060,-0.790221,-0.450431,3.07747,0
2080,-0.795797,-0.450771,3.078,0
2100,-0.801677,-0.450314,3.07828,0
2120,-0.807912,-0.450243,3.07809,0
2140,-0.814736,-0.450541,3.07914,0
2160,-0.822663,-0.451575,3.08377,0
2180,-0.829525,-0.450602,3.08978,0
2200,-0.834463,-0.448763,3.09348,0
2220,-0.83956,-0.448057,3.09704,0
2240,-0.845012,-0.447617,3.10133,0
2260,-0.849735,-0.447143,3.10545,0
2280,-0.85379,-0.447627,3.11056,0
2300,-0.858204,-0.44832,3.11708,0
2320,-0.862245,-0.448014,3.12295,0
2340,-0.866249,-0.447866,3.12808,0
2360,-0.870223,-0.447833,3.13211,0
2380,-0.874377,-0.447372,3.13493,0
2400,-0.878607,-0.446726,3.13791,0
2420,-0.881449,-0.446152,3.14036,0
2440,-0.883533,-0.446823,-3.13939,0
2460,-0.884022,-0.448603,-3.13512,0
2480,-0.882596,-0.451203,-3.13478,0
2500,-0.880237,-0.453947,-3.1379,0
2520,-0.879778,-0.455453,3.14021,0
2540,-0.880086,-0.454512,3.13667,0
2560,-0.882488,-0.4506,-3.14089,0
2580,-0.885899,-0.443249,-3.12546,0
2600,-0.888022,-0.436966,-3.10821,0
2620,-0.889588,-0.43085,-3.09324,0
2640,-0.893589,-0.424072,-3.07915,0
2660,-0.900269,-0.415351,-3.0628,0
2680,-0.908509,-0.404687,-3.04244,0
2700,-0.915825,-0.391824,-3.01858,0
2720,-0.923493,-0.376545,-2.99212,0
2740,-0.932166,-0.35892,-2.96391,0
2760,-0.94239,-0.339727,-2.93573,0
2780,-0.952265,-0.320427,-2.90915,0
2800,-0.960403,-0.300643,-2.88351,0
2820,-0.966472,-0.279768,-2.85685,0
2840,-0.971723,-0.259586,-2.83101,0
2860,-0.975418,-0.241131,-2.80802,0
2880,-0.977976,-0.223794,-2.78691,0
2900,-0.979624,-0.206989,-2.76592,0
2910,-0.985157,-0.16884,-2.71033,0
2920,-0.985751,-0.160292,-2.69667,0
2930,-0.986163,-0.153499,-2.68552,0
2960,-0.989081,-0.144492,-2.66785,0
2980,-0.990149,-0.141603,-2.66195,0
3000,-0.990858,-0.140648,-2.6585,0
3020,-0.991351,-0.14216,-2.65881,0
3040,-0.991601,-0.144915,-2.66086,0
3070,-0.992601,-0.150036,-2.66573,0
3090,-0.994459,-0.151733,-2.66938,0
3110,-0.996824,-0.156501,-2.67408,0
3130,-0.995622,-0.157146,-2.67594,0
3150,-0.993914,-0.158164,-2.67532,0
3170,-0.992287,-0.159452,-2.67249,0
3190,-0.990443,-0.161256,-2.66944,0
3210,-0.989298,-0.162594,-2.66799,0
3230,-0.988641,-0.162919,-2.66754,0
3240,-0.988107,-0.162535,-2.66688,0
3270,-0.988808,-0.160091,-2.66497,0
3290,-0.989752,-0.155926,-2.66344,0
3310,-0.990084,-0.15462,-2.66358,0
3320,-0.98969,-0.154937,-2.66733,0
3330,-0.986391,-0.159504,-2.67367,0
3350,-0.987204,-0.162872,-2.68039,0
3370,-0.987851,-0.164203,-2.68179,0
3380,-0.988697,-0.165151,-2.68308,0
3400,-0.990481,-0.16574,-2.68622,0
3420,-0.990661,-0.165486,-2.68772,0
3460,-0.988145,-0.166877,-2.69497,0
3480,-0.986873,-0.16693,-2.69793,0
3480,-0.985713,-0.166709,-2.70122,0
3500,-0.985186,-0.166449,-2.70411,0
3520,-0.984758,-0.165791,-2.70683,0
3540,-0.984457,-0.163998,-2.711,0
3560,-0.984322,-0.163292,-2.71206,0
3580,-0.984724,-0.162615,-2.71284,0
3620,-0.985302,-0.161337,-2.7147,0
3650,-0.987531,-0.162921,-2.719,0
3660,-0.987664,-0.167898,-2.72414,0
3680,-0.989756,-0.171613,-2.72967,0
3700,-0.992198,-0.175748,-2.73555,0
3720,-0.997307,-0.200591,-2.77219,0
3730,-0.999132,-0.226217,-2.80408,0
3750,-1.00093,-0.2426,-2.82979,0
3770,-1.00262,-0.258659,-2.85556,0
3790,-1.00379,-0.273169,-2.88066,0
3820,-1.00477,-0.293393,-2.93062,0
3840,-1.00517,-0.300351,-2.95202,0
3860,-1.00568,-0.307272,-2.9717,0
3880,-1.00605,-0.314034,-2.98946,0
3900,-1.00624,-0.319262,-3.00618,0
3920,-1.00688,-0.320967,-3.02159,0
3940,-1.00721,-0.318449,-3.0347,0
3960,-1.00707,-0.311907,-3.04431,0
3980,-1.00678,-0.301389,-3.05077,0
4000,-1.00573,-0.287675,-3.05658,0
4020,-1.00438,-0.272672,-3.06257,0
4040,-1.00397,-0.258041,-3.06833,0
4060,-1.00248,-0.244112,-3.0736,0
4080,-0.997815,-0.232522,-3.07891,0
4100,-0.989381,-0.224087,-3.08612,0
4120,-0.97953,-0.218513,-3.09566,0
4140,-0.969277,-0.214204,-3.10666,0
4160,-0.95988,-0.210278,-3.11741,0
4180,-0.951777,-0.205861,-3.12803,0
4200,-0.945486,-0.200924,-3.13674,0
4210,-0.942159,-0.195328,3.14063,0
4230,-0.942289,-0.187186,3.13609,0
4250,-0.944079,-0.175451,3.13205,0
4270,-0.947758,-0.160771,3.12828,0
4290,-0.953682,-0.14441,3.12637,0
4310,-0.959345,-0.128369,3.12669,0
4330,-0.964904,-0.11468,3.12663,0
4350,-0.969247,-0.103624,3.12381,0
4370,-0.971463,-0.0939784,3.12104,0
4390,-0.974438,-0.0871862,3.1184,0
4410,-0.978644,-0.081471,3.1133,0
4430,-0.983664,-0.0773761,3.10628,0
4450,-0.988523,-0.0767964,3.10153,0
4470,-0.992441,-0.0781619,3.09751,0
4490,-0.99457,-0.079925,3.08906,0
4510,-0.997021,-0.082014,3.0755,0
4530,-0.999857,-0.0843248,3.06038,0
4550,-1.00261,-0.0866008,3.0459,0
4570,-1.00361,-0.0886268,3.03222,0
4590,-1.00237,-0.0917615,3.01925,0
4610,-1.00013,-0.0946537,3.00625,0
4630,-0.99771,-0.0961681,2.9939,0
4650,-0.995139,-0.0956207,2.98142,0
4670,-0.992027,-0.0935276,2.97009,0
4690,-0.988479,-0.0902859,2.96123,0
4710,-0.985237,-0.0868176,2.95589,0
4730,-0.982707,-0.083419,2.9534,0
4750,-0.980456,-0.0800826,2.95137,0
4770,-0.978633,-0.0768233,2.9498,0
4790,-0.977685,-0.0732371,2.94905,0
4810,-0.977773,-0.0701549,2.94964,0
4830,-0.977921,-0.0675906,2.95161,0
4850,-0.977208,-0.0658533,2.95421,0
4870,-0.976236,-0.0646302,2.95758,0
4890,-0.975858,-0.0636307,2.96069,0
4910,-0.975514,-0.0619164,2.9641,0
4930,-0.974789,-0.0594434,2.96808,0
4950,-0.97347,-0.0573001,2.97238,0
4970,-0.97229,-0.0553316,2.97692,0
4990,-0.970656,-0.0537741,2.98139,0
5010,-0.968343,-0.0526395,2.98445,0
5030,-0.965138,-0.0520707,2.98653,0
5050,-0.961692,-0.0517469,2.9892,0
5070,-0.95731,-0.0521715,2.99292,0
5090,-0.951817,-0.0536225,2.99664,0
5110,-0.945636,-0.054946,2.99971,0
5130,-0.939763,-0.0562458,3.00372,0
5140,-0.93418,-0.0569263,3.0093,0
5160,-0.929042,-0.0580978,3.01623,0
5180,-0.92445,-0.0599399,3.02414,0
5200,-0.920538,-0.0619673,3.0321,0
5220,-0.917481,-0.0646147,3.03981,0
5240,-0.915118,-0.0681981,3.0485,0
5260,-0.912706,-0.0722498,3.05932,0
5280,-0.910245,-0.0771527,3.07094,0
5300,-0.908707,-0.0820649,3.08351,0
5320,-0.908422,-0.0857297,3.09794,0
5340,-0.909544,-0.087908,3.11414,0
5360,-0.91056,-0.0902489,3.13165,0
5380,-0.910228,-0.0930809,-3.13315,0
5400,-0.909614,-0.0954396,-3.11462,0
5420,-0.909164,-0.0978755,-3.09591,0
5440,-0.909037,-0.100869,-3.07663,0
5460,-0.909436,-0.104195,-3.05634,0
5480,-0.909395,-0.108393,-3.03443,0
5500,-0.908913,-0.114789,-3.01133,0
5520,-0.908654,-0.122075,-2.98828,0
5540,-0.908861,-0.12953,-2.96554,0
5560,-0.910371,-0.137652,-2.94169,0
5580,-0.911205,-0.14731,-2.91715,0
5600,-0.910187,-0.158445,-2.89291,0
5620,-0.907998,-0.169514,-2.87008,0
5640,-0.906778,-0.180139,-2.84829,0
5660,-0.907358,-0.190001,-2.82684,0
5680,-0.907158,-0.198865,-2.80586,0
5700,-0.905552,-0.20713,-2.78599,0
5720,-0.902757,-0.214606,-2.76684,0
5740,-0.900192,-0.22194,-2.74809,0
5760,-0.897726,-0.228061,-2.72986,0
5780,-0.896301,-0.232931,-2.71119,0
5800,-0.896318,-0.23697,-2.69137,0
5820,-0.897752,-0.240112,-2.67217,0
5840,-0.898706,-0.243115,-2.65363,0
5860,-0.897978,-0.245728,-2.63528,0
5880,-0.896888,-0.247752,-2.61595,0
5900,-0.896581,-0.249123,-2.59474,0
5920,-0.897397,-0.250381,-2.57433,0
5940,-0.898154,-0.250949,-2.55579,0
5960,-0.898414,-0.250899,-2.5381,0
5980,-0.898601,-0.250676,-2.51957,0
6000,-0.898614,-0.249777,-2.50163,0
6020,-0.898109,-0.248364,-2.4854,0
6040,-0.897152,-0.246079,-2.47013,0
6060,-0.895318,-0.243799,-2.45452,0
6080,-0.892769,-0.242009,-2.43871,0
6100,-0.88974,-0.239631,-2.42376,0
6120,-0.886809,-0.237443,-2.40914,0
6140,-0.885917,-0.235319,-2.3951,0
6160,-0.885536,-0.233536,-2.3808,0
6180,-0.886286,-0.232045,-2.36941,0
6200,-0.886796,-0.232365,-2.36025,0
6220,-0.885074,-0.233484,-2.34959,0
6240,-0.88293,-0.233441,-2.3365,0
6260,-0.881432,-0.233169,-2.32191,0
6280,-0.879939,-0.233489,-2.30785,0
6300,-0.877043,-0.234184,-2.29393,0
6320,-0.871733,-0.234998,-2.28064,0
6340,-0.865098,-0.23605,-2.26627,0
6360,-0.859562,-0.236862,-2.25065,0
6380,-0.857691,-0.236061,-2.2347,0
6400,-0.857883,-0.233423,-2.22017,0
6420,-0.858432,-0.2312,-2.20629,0
6440,-0.859284,-0.228887,-2.19135,0
6460,-0.860644,-0.225837,-2.17561,0
6480,-0.861729,-0.223416,-2.15991,0
6500,-0.861997,-0.221825,-2.14366,0
6520,-0.863219,-0.219908,-2.12816,0
6540,-0.865247,-0.217817,-2.11518,0
6560,-0.867702,-0.216269,-2.10335,0
6580,-0.870246,-0.21485,-2.09199,0
6600,-0.872795,-0.213269,-2.08102,0
6620,-0.874782,-0.212279,-2.07079,0
6640,-0.876393,-0.211785,-2.06166,0
6660,-0.87768,-0.211377,-2.05422,0
6680,-0.878741,-0.211382,-2.04866,0
6700,-0.880406,-0.21226,-2.04402,0
6720,-0.882748,-0.213641,-2.04118,0
6740,-0.885611,-0.214834,-2.03975,0
6760,-0.888421,-0.216456,-2.04006,0
6780,-0.890446,-0.21888,-2.04231,0
6800,-0.891807,-0.221878,-2.04658,0
6820,-0.893313,-0.224973,-2.05084,0
6840,-0.894715,-0.22836,-2.05529,0
6860,-0.89596,-0.232297,-2.06,0
6880,-0.897983,-0.23607,-2.0673,0
6900,-0.901937,-0.238792,-2.07841,0
6920,-0.908273,-0.241967,-2.0915,0
6940,-0.916574,-0.244828,-2.10375,0
6960,-0.925109,-0.247577,-2.11491,0
6980,-0.932118,-0.252439,-2.12548,0
7000,-0.937428,-0.259608,-2.13358,0
7020,-0.944454,-0.267466,-2.14533,0
7040,-0.952936,-0.274988,-2.16155,0
7060,-0.961059,-0.283865,-2.17669,0
7080,-0.973211,-0.303481,-2.2053,0
7100,-0.977272,-0.315153,-2.22412,0
7120,-0.98175,-0.327594,-2.24403,0
7140,-0.986917,-0.339556,-2.26121,0
7160,-0.990435,-0.350582,-2.27659,0
7180,-0.991797,-0.36135,-2.29167,0
7200,-0.993482,-0.372875,-2.30886,0
7220,-0.996948,-0.384322,-2.32808,0
7240,-1.00214,-0.394923,-2.34654,0
7260,-1.00789,-0.404019,-2.36265,0
7280,-1.01383,-0.411613,-2.37619,0
7300,-1.02111,-0.418621,-2.38944,0
7320,-1.02871,-0.425413,-2.40242,0
7340,-1.03814,-0.431857,-2.41381,0
7360,-1.04831,-0.436959,-2.42388,0
7380,-1.0563,-0.442023,-2.4359,0
7400,-1.06142,-0.446433,-2.44507,0
7420,-1.06593,-0.450582,-2.44849,0
7440,-1.06992,-0.454286,-2.45019,0
7460,-1.0752,-0.458316,-2.453,0
7480,-1.08365,-0.463188,-2.45531,0
7500,-1.09176,-0.466624,-2.45713,0
7520,-1.09826,-0.467692,-2.4569,0
7540,-1.10357,-0.467823,-2.45691,0
7560,-1.10674,-0.467522,-2.45849,0
7580,-1.10915,-0.46752,-2.45915,0
7600,-1.11331,-0.466827,-2.46039,0
7620,-1.11662,-0.46612,-2.46185,0
7640,-1.12038,-0.464868,-2.4608,0
7660,-1.12537,-0.461648,-2.45682,0
7680,-1.12933,-0.457674,-2.45236,0
7700,-1.13177,-0.454508,-2.44869,0
7720,-1.13398,-0.451808,-2.4438,0
7740,-1.136,-0.449096,-2.43852,0
7760,-1.13748,-0.446262,-2.43344,0
7780,-1.13879,-0.444267,-2.42883,0
7800,-1.13956,-0.441987,-2.427,0
7820,-1.13993,-0.439642,-2.42801,0
7840,-1.14098,-0.436491,-2.42989,0
7860,-1.14351,-0.432111,-2.43202,0
7880,-1.14573,-0.426922,-2.43572,0
7900,-1.14682,-0.421352,-2.43746,0
7920,-1.14884,-0.41532,-2.43819,0
7940,-1.15108,-0.410008,-2.4408,0
7960,-1.15342,-0.405292,-2.44358,0
7980,-1.15482,-0.400412,-2.44513,0
8000,-1.15466,-0.395796,-2.44651,0
8020,-1.15187,-0.39365,-2.44894,0
8040,-1.14671,-0.394137,-2.45289,0
8060,-1.14088,-0.396165,-2.45833,0
8080,-1.13468,-0.398166,-2.46475,0
8100,-1.12848,-0.399137,-2.47005,0
8120,-1.12344,-0.398969,-2.47391,0
8140,-1.11923,-0.397921,-2.47687,0
8160,-1.11581,-0.396036,-2.47928,0
8180,-1.11283,-0.394684,-2.48082,0
8200,-1.10887,-0.39461,-2.48274,0
8220,-1.10335,-0.395827,-2.48379,0
8240,-1.0976,-0.396983,-2.48353,0
8260,-1.09234,-0.398191,-2.4844,0
8280,-1.08752,-0.399498,-2.48651,0
8300,-1.08322,-0.401461,-2.48771,0
8320,-1.0789,-0.403514,-2.48936,0
8340,-1.07467,-0.405043,-2.49072,0
8360,-1.0705,-0.405966,-2.48923,0
8380,-1.06896,-0.405975,-2.48713,0
8400,-1.06864,-0.405226,-2.48591,0
8420,-1.06851,-0.404395,-2.48609,0
8440,-1.0683,-0.404351,-2.48622,0
8460,-1.0679,-0.403162,-2.48473,0
8480,-1.06744,-0.40206,-2.48163,0
8510,-1.06636,-0.401864,-2.47524,0
8530,-1.06713,-0.400982,-2.47069,0
8550,-1.06855,-0.398068,-2.4686,0
8560,-1.06926,-0.395207,-2.46836,0
8580,-1.06999,-0.39351,-2.46765,0
8600,-1.07105,-0.392128,-2.46558,0
8620,-1.07113,-0.390294,-2.46547,0
8640,-1.06969,-0.387848,-2.4659,0
8660,-1.06959,-0.38525,-2.46667,0
8680,-1.06977,-0.383985,-2.46735,0
8700,-1.07064,-0.383462,-2.46795,0
8720,-1.06993,-0.383071,-2.47013,0
8740,-1.06823,-0.383014,-2.47337,0
8760,-1.06905,-0.382835,-2.4763,0
8780,-1.06991,-0.382703,-2.47935,0
8800,-1.06862,-0.383382,-2.48236,0
8820,-1.06484,-0.383532,-2.48479,0
8840,-1.06017,-0.383439,-2.48725,0
8860,-1.05761,-0.384062,-2.49053,0
8880,-1.05782,-0.383949,-2.49361,0
8900,-1.05921,-0.382343,-2.49592,0
8920,-1.05912,-0.379315,-2.497,0
8940,-1.05642,-0.376429,-2.49664,0
8960,-1.05322,-0.374379,-2.49495,0
8980,-1.04942,-0.373456,-2.49275,0
9000,-1.04537,-0.372689,-2.49008,0
9020,-1.04195,-0.372139,-2.48811,0
9040,-1.0386,-0.372536,-2.48614,0
9060,-1.03475,-0.373466,-2.48317,0
9080,-1.03082,-0.373912,-2.48008,0
9100,-1.02792,-0.374135,-2.47792,0
9120,-1.02637,-0.373717,-2.47457,0
9140,-1.02597,-0.37324,-2.47193,0
9160,-1.02653,-0.373337,-2.47086,0
9180,-1.02672,-0.373722,-2.46927,0
9200,-1.02729,-0.374098,-2.46513,0
9220,-1.0283,-0.374917,-2.4602,0
9240,-1.02916,-0.374925,-2.45638,0
9260,-1.03001,-0.375032,-2.45429,0
9280,-1.03165,-0.37514,-2.4532,0
9300,-1.03426,-0.374426,-2.45284,0
9320,-1.03626,-0.373048,-2.45239,0
9340,-1.0378,-0.372319,-2.45206,0
9360,-1.03936,-0.372252,-2.45212,0
9380,-1.03984,-0.372701,-2.45383,0
9420,-1.04061,-0.369933,-2.45494,0
9440,-1.04259,-0.368558,-2.45512,0
9470,-1.04237,-0.367636,-2.45804,0
9490,-1.04152,-0.367093,-2.46049,0
9490,-1.04138,-0.366459,-2.4628,0
9510,-1.04119,-0.366948,-2.46515,0
9530,-1.0407,-0.367756,-2.46824,0
9550,-1.03974,-0.368247,-2.47168,0
9570,-1.03973,-0.368289,-2.47533,0
9590,-1.04017,-0.368638,-2.47887,0
9610,-1.04061,-0.368666,-2.48212,0
9630,-1.04046,-0.369039,-2.48572,0
9650,-1.03999,-0.369786,-2.49017,0
9670,-1.03966,-0.370239,-2.49445,0
9690,-1.03939,-0.370793,-2.49891,0
9710,-1.03902,-0.371628,-2.503,0
9730,-1.03806,-0.372772,-2.50651,0
9750,-1.03685,-0.374369,-2.5105,0
9770,-1.03609,-0.375737,-2.51454,0
9790,-1.03603,-0.376886,-2.51938,0
9810,-1.03565,-0.377776,-2.52504,0
9830,-1.03493,-0.378826,-2.52938,0
9850,-1.03384,-0.380265,-2.53375,0
9870,-1.03232,-0.382381,-2.53834,0
9890,-1.03119,-0.385284,-2.54285,0
9910,-1.03113,-0.388213,-2.5487,0
9950,-1.0317,-0.393192,-2.56281,0
9970,-1.03257,-0.396694,-2.56831,0
9990,-1.0328,-0.39952,-2.57201,0
10010,-1.03148,-0.402032,-2.57692,0
10030,-1.03047,-0.405243,-2.58328,0
10050,-1.0312,-0.409229,-2.58876,0
10070,-1.03337,-0.413861,-2.59299,0
10090,-1.03586,-0.419461,-2.59532,0
10110,-1.03833,-0.425745,-2.5957,0
10130,-1.04164,-0.43217,-2.59597,0
10150,-1.04536,-0.438811,-2.59669,0
10170,-1.04945,-0.445387,-2.59621,0
10190,-1.05339,-0.452414,-2.59472,0
10210,-1.05742,-0.459538,-2.59279,0
10230,-1.06241,-0.466572,-2.58945,0
10250,-1.06796,-0.473746,-2.58618,0
10270,-1.07247,-0.481102,-2.58461,0
10290,-1.07548,-0.488601,-2.58488,0
10310,-1.07741,-0.495754,-2.58653,0
10330,-1.07843,-0.501588,-2.58956,0
10350,-1.07958,-0.506316,-2.59408,0
10370,-1.08085,-0.509391,-2.5988,0
10390,-1.08245,-0.51117,-2.60239,0
10410,-1.0835,-0.512694,-2.60567,0
10430,-1.08352,-0.514165,-2.60863,0
10450,-1.08275,-0.515148,-2.61137,0
10470,-1.08233,-0.51559,-2.61468,0
10490,-1.08214,-0.516092,-2.61785,0
10510,-1.08243,-0.517145,-2.62067,0
10530,-1.08265,-0.518331,-2.62343,0
10540,-1.08146,-0.520221,-2.6269,0
10560,-1.0794,-0.52181,-2.63139,0
10580,-1.0774,-0.523836,-2.63755,0
10600,-1.07603,-0.525962,-2.64375,0
10620,-1.07377,-0.527792,-2.65071,0
10640,-1.07171,-0.529875,-2.65905,0
10660,-1.06947,-0.532083,-2.6679,0
10680,-1.06797,-0.534522,-2.6773,0
10700,-1.06841,-0.536763,-2.68746,0
10720,-1.07224,-0.536451,-2.69734,0
10740,-1.07807,-0.535321,-2.70556,0
10760,-1.08492,-0.534179,-2.71123,0
10780,-1.09292,-0.533388,-2.71419,0
10800,-1.10128,-0.531233,-2.71695,0
10820,-1.10983,-0.526609,-2.72004,0
10840,-1.11693,-0.520765,-2.72546,0
10860,-1.12352,-0.51412,-2.73232,0
10880,-1.13011,-0.50653,-2.73934,0
10900,-1.13724,-0.498135,-2.74495,0
10920,-1.14403,-0.490956,-2.74991,0
10940,-1.1504,-0.484914,-2.75378,0
10960,-1.15722,-0.478656,-2.75606,0
10980,-1.16362,-0.471597,-2.75751,0
11000,-1.16839,-0.465359,-2.76067,0
11020,-1.17259,-0.459157,-2.76431,0
11040,-1.17691,-0.452653,-2.76747,0
11060,-1.18021,-0.446502,-2.77011,0
11080,-1.18212,-0.44086,-2.77224,0
11100,-1.18443,-0.435109,-2.77347,0
11120,-1.18707,-0.429325,-2.77467,0
11140,-1.18954,-0.423242,-2.77661,0
11160,-1.19105,-0.416816,-2.77939,0
11180,-1.19159,-0.410772,-2.78195,0
11200,-1.19148,-0.404802,-2.78433,0
11220,-1.19028,-0.399023,-2.7857,0
11240,-1.18902,-0.393929,-2.78717,0
11260,-1.18819,-0.390185,-2.78856,0
11280,-1.18769,-0.38716,-2.78963,0
11300,-1.18704,-0.384519,-2.79102,0
11320,-1.1863,-0.383069,-2.79305,0
11340,-1.18545,-0.382077,-2.79527,0
11360,-1.18407,-0.380486,-2.79678,0
11380,-1.1827,-0.379289,-2.79819,0
11400,-1.18088,-0.379146,-2.80024,0
11420,-1.17804,-0.378773,-2.80232,0
11440,-1.17595,-0.377624,-2.80376,0
11460,-1.17522,-0.376106,-2.80471,0
11480,-1.17584,-0.374472,-2.8051,0
11500,-1.17727,-0.372873,-2.80511,0
11520,-1.17962,-0.372009,-2.80491,0
11540,-1.18228,-0.371382,-2.80484,0
11560,-1.18425,-0.370125,-2.80495,0
11580,-1.18645,-0.368578,-2.80511,0
11600,-1.18776,-0.367398,-2.80553,0
11620,-1.18797,-0.366665,-2.80607,0
11640,-1.18775,-0.365822,-2.80595,0
11660,-1.18786,-0.36571,-2.80603,0
11680,-1.18919,-0.365479,-2.80577,0
11700,-1.19177,-0.365192,-2.80434,0
11720,-1.19451,-0.36439,-2.80331,0
11740,-1.19718,-0.363489,-2.80309,0
11760,-1.19951,-0.362442,-2.80333,0
11780,-1.20163,-0.36134,-2.80204,0
11800,-1.20376,-0.359934,-2.80011,0
11820,-1.20483,-0.358808,-2.80036,0
11840,-1.20671,-0.358693,-2.80194,0
11860,-1.20872,-0.357829,-2.80243,0
11880,-1.20895,-0.356167,-2.80207,0
11900,-1.20851,-0.354999,-2.80239,0
11920,-1.20849,-0.35406,-2.80309,0
11940,-1.20937,-0.352352,-2.80292,0
11960,-1.20978,-0.350353,-2.80324,0
11980,-1.20985,-0.349274,-2.80395,0
12000,-1.20993,-0.348305,-2.80439,0
12020,-1.20989,-0.348062,-2.80425,0
12040,-1.20933,-0.3478,-2.80382,0
12060,-1.20837,-0.348181,-2.80339,0
12080,-1.20811,-0.348886,-2.80232,0
12100,-1.20796,-0.349423,-2.80079,0
12120,-1.20775,-0.351156,-2.79964,0
12140,-1.20772,-0.353556,-2.79857,0
12160,-1.20805,-0.356247,-2.79702,0
12180,-1.20896,-0.359366,-2.79498,0
12200,-1.20964,-0.362859,-2.79372,0
12220,-1.21006,-0.366989,-2.7929,0
12240,-1.20985,-0.370196,-2.79274,0
12260,-1.20998,-0.372863,-2.79253,0
12280,-1.21023,-0.375588,-2.79285,0
12300,-1.21101,-0.378894,-2.79362,0
12320,-1.2112,-0.381674,-2.79472,0
12340,-1.21175,-0.384196,-2.79594,0
12360,-1.21338,-0.387539,-2.79631,0
12380,-1.21615,-0.391809,-2.79744,0
12400,-1.21866,-0.396322,-2.79956,0
12420,-1.22069,-0.400599,-2.80199,0
12440,-1.22238,-0.404862,-2.80414,0
12460,-1.22322,-0.409228,-2.80569,0
12480,-1.22454,-0.413983,-2.8076,0
12500,-1.22623,-0.419185,-2.80876,0
12520,-1.22845,-0.423494,-2.80978,0
12540,-1.22998,-0.426647,-2.81232,0
12560,-1.2307,-0.429584,-2.81613,0
12580,-1.23166,-0.431916,-2.81999,0
12600,-1.23304,-0.433356,-2.82371,0
12620,-1.23448,-0.43427,-2.82665,0
12640,-1.2365,-0.434768,-2.82828,0
12660,-1.23902,-0.435636,-2.82885,0
12680,-1.24139,-0.435967,-2.82886,0
12700,-1.24317,-0.436189,-2.82918,0
12720,-1.24459,-0.435366,-2.82868,0
12740,-1.24631,-0.433858,-2.82723,0
12760,-1.24812,-0.431846,-2.82526,0
12780,-1.25096,-0.429402,-2.82317,0
12800,-1.25443,-0.427424,-2.82083,0
12820,-1.25764,-0.424938,-2.81849,0
12840,-1.26092,-0.421838,-2.8162,0
12860,-1.264,-0.418234,-2.81413,0
12880,-1.26734,-0.413771,-2.81221,0
12900,-1.27071,-0.408345,-2.81078,0
12920,-1.27418,-0.402714,-2.80975,0
12940,-1.27607,-0.397711,-2.81001,0
12960,-1.27692,-0.392498,-2.80995,0
12980,-1.27711,-0.386858,-2.80973,0
13000,-1.2773,-0.381759,-2.8096,0
13020,-1.277,-0.37716,-2.80901,0
13040,-1.27615,-0.373285,-2.80894,0
13060,-1.27495,-0.370915,-2.81006,0
13080,-1.27355,-0.369832,-2.8116,2000
13100,-1.27149,-0.368455,-2.81249,0
13120,-1.26969,-0.366788,-2.81277,0
13140,-1.26797,-0.364765,-2.813,0
13160,-1.26754,-0.363071,-2.81372,0
13180,-1.26878,-0.361803,-2.81445,0
13200,-1.27174,-0.358756,-2.81435,0
13220,-1.27481,-0.354879,-2.81508,0
13240,-1.27789,-0.351668,-2.81567,0
13260,-1.28002,-0.348396,-2.8161,0
13280,-1.28173,-0.345993,-2.81574,0
13300,-1.28349,-0.344974,-2.81553,0
13320,-1.2851,-0.344425,-2.81571,0
13340,-1.28532,-0.343056,-2.81627,0
13360,-1.28529,-0.341515,-2.817,0
13380,-1.28542,-0.341019,-2.81873,0
13400,-1.28388,-0.341328,-2.8206,0
13420,-1.28258,-0.341176,-2.82228,0
13440,-1.28182,-0.341762,-2.82393,0
13460,-1.28151,-0.342722,-2.82435,0
13480,-1.28108,-0.342813,-2.8238,0
13500,-1.27988,-0.343794,-2.82423,0
13520,-1.27885,-0.344889,-2.82458,0
13540,-1.27789,-0.345543,-2.82367,0
13560,-1.27731,-0.346289,-2.82228,0
13580,-1.27702,-0.346897,-2.8207,0
13600,-1.27828,-0.347474,-2.81847,0
13620,-1.28043,-0.347225,-2.81561,0
13640,-1.28229,-0.347403,-2.8131,0
13660,-1.28386,-0.348008,-2.81094,0
13680,-1.28469,-0.348293,-2.80897,0
13700,-1.28521,-0.348768,-2.80767,0
13720,-1.28526,-0.34954,-2.80719,0
13740,-1.28504,-0.350622,-2.80647,0
13760,-1.28406,-0.351421,-2.80531,0
13780,-1.28273,-0.352364,-2.80456,0
13800,-1.28155,-0.353674,-2.80477,0
13820,-1.2811,-0.355656,-2.8046,0
13840,-1.281,-0.357819,-2.80447,0
13860,-1.2815,-0.360195,-2.80466,0
13880,-1.28166,-0.363005,-2.80545,0
13900,-1.2807,-0.366111,-2.80657,0
13920,-1.27869,-0.369713,-2.80767,0
13940,-1.27605,-0.374108,-2.80964,0
13960,-1.27394,-0.378721,-2.81148,0
13980,-1.27175,-0.383041,-2.81295,0
14000,-1.26995,-0.387081,-2.81426,0
14010,-1.26855,-0.392121,-2.81589,0
14030,-1.2679,-0.398282,-2.8175,0
14050,-1.26745,-0.403838,-2.81897,0
14070,-1.26639,-0.409511,-2.82104,0
14090,-1.26483,-0.416299,-2.82287,0
14110,-1.26405,-0.423602,-2.82477,0
14130,-1.26291,-0.429382,-2.82813,0
14150,-1.26207,-0.435489,-2.83082,0
14170,-1.25999,-0.441892,-2.83486,0
14190,-1.25813,-0.448197,-2.83901,0
14210,-1.25605,-0.452985,-2.8433,0
14230,-1.25284,-0.455964,-2.84988,0
14250,-1.25003,-0.460037,-2.8571,0
14270,-1.24701,-0.465555,-2.86438,0
14290,-1.24454,-0.47087,-2.87161,0
14310,-1.24259,-0.475838,-2.87881,0
14330,-1.2404,-0.480427,-2.88826,0
14350,-1.23829,-0.485726,-2.89806,0
14370,-1.23512,-0.490674,-2.90885,0
14390,-1.23165,-0.495912,-2.92038,0
14410,-1.22836,-0.501232,-2.93366,0
14430,-1.22489,-0.507205,-2.94867,0
14450,-1.22173,-0.513734,-2.96359,0
14470,-1.21779,-0.520424,-2.97917,0
14490,-1.21272,-0.527944,-2.99555,0
14510,-1.20758,-0.536423,-3.0128,0
14530,-1.20219,-0.544703,-3.03109,0
14550,-1.19589,-0.552503,-3.04994,0
14570,-1.18905,-0.559536,-3.06887,0
14590,-1.18193,-0.566305,-3.08905,0
14610,-1.1757,-0.573268,-3.10879,0
14630,-1.16947,-0.579563,-3.1286,0
14650,-1.16307,-0.586251,3.13491,0
14670,-1.15606,-0.59291,3.11489,0
14690,-1.14967,-0.599134,3.09512,0
14710,-1.14312,-0.604706,3.0754,0
14730,-1.13653,-0.610094,3.05605,0
14750,-1.1302,-0.615441,3.03698,0
14770,-1.12354,-0.619974,3.0184,0
14790,-1.11733,-0.623989,3.00113,0
14810,-1.11128,-0.628533,2.98463,0
14830,-1.10572,-0.632922,2.96893,0
14850,-1.10123,-0.636307,2.95474,0
14870,-1.09749,-0.639092,2.94113,0
14890,-1.09348,-0.642031,2.92723,0
14910,-1.09,-0.644047,2.91367,0
14930,-1.08637,-0.644079,2.90077,0
14950,-1.0825,-0.643491,2.88869,0
14970,-1.0789,-0.64389,2.87726,0
14990,-1.07573,-0.64373,2.86624,0
15010,-1.07388,-0.641645,2.85587,0
15030,-1.07202,-0.639408,2.84699,0
15050,-1.06993,-0.637403,2.83896,0
15070,-1.06836,-0.635017,2.83179,0
15090,-1.06831,-0.631904,2.82567,0
15110,-1.069,-0.628429,2.8211,0
15130,-1.06967,-0.624027,2.81725,0
15150,-1.07141,-0.618255,2.81459,0
15170,-1.07165,-0.61282,2.81145,0
15190,-1.07339,-0.607159,2.8093,0
15210,-1.07543,-0.600839,2.80839,0
15230,-1.07576,-0.594285,2.80757,0
15250,-1.07575,-0.587365,2.80647,0
15270,-1.07529,-0.581348,2.80532,0
15290,-1.07567,-0.574575,2.80515,0
15310,-1.07463,-0.567077,2.8049,0
15330,-1.07282,-0.55981,2.80511,0
15350,-1.07029,-0.55318,2.80553,0
15370,-1.06724,-0.547452,2.80637,0
15390,-1.06342,-0.541067,2.80717,0
15410,-1.05951,-0.534464,2.80829,0
15430,-1.05684,-0.527291,2.81009,0
15450,-1.05433,-0.519745,2.81264,0
15470,-1.05179,-0.513041,2.81595,0
15490,-1.05042,-0.507156,2.81976,0
15510,-1.04936,-0.500536,2.82393,0
15530,-1.04919,-0.493308,2.82868,0
15550,-1.05086,-0.486461,2.83389,0
15570,-1.05288,-0.480373,2.83851,0
15590,-1.0544,-0.47439,2.84293,0
15610,-1.05492,-0.468868,2.84684,0
15630,-1.05534,-0.463172,2.8512,0
15650,-1.05638,-0.456901,2.85563,0
15670,-1.05725,-0.451035,2.86023,0
15690,-1.05845,-0.445542,2.86583,0
15710,-1.05889,-0.440628,2.87177,0
15730,-1.05884,-0.435683,2.87848,0
15750,-1.059,-0.431704,2.88561,0
15770,-1.05981,-0.428425,2.89308,0
15790,-1.06186,-0.425184,2.90116,0
15810,-1.06402,-0.422399,2.90996,0
15830,-1.06646,-0.420258,2.91945,0
15850,-1.06774,-0.418729,2.92911,0
15870,-1.06909,-0.417744,2.93909,0
15890,-1.07013,-0.416785,2.94888,0
15910,-1.07093,-0.416726,2.95855,0
15930,-1.0712,-0.416729,2.96861,0
15950,-1.0716,-0.416334,2.97919,0
15970,-1.07207,-0.416435,2.98991,0
15990,-1.07242,-0.417493,3.00116,0
16010,-1.07265,-0.417448,3.01277,0
16030,-1.07364,-0.417116,3.02417,0
16040,-1.07525,-0.418238,3.03596,0
16060,-1.0767,-0.419461,3.04823,0
16080,-1.07737,-0.419725,3.06022,0
16100,-1.07677,-0.420992,3.07094,0
16120,-1.07614,-0.42252,3.08195,0
16140,-1.0758,-0.422614,3.0933,0
16160,-1.0758,-0.422252,3.10431,0
16180,-1.07614,-0.422709,3.11501,0
16200,-1.07654,-0.423276,3.12579,0
16220,-1.07755,-0.422612,3.13636,0
16240,-1.07938,-0.421212,-3.13607,0
16260,-1.08254,-0.420583,-3.12514,0
16280,-1.08628,-0.420025,-3.11376,0
16300,-1.09032,-0.418791,-3.10271,0
16320,-1.09444,-0.41836,-3.09183,0
16340,-1.09956,-0.418755,-3.08049,0
16360,-1.10528,-0.418572,-3.06891,0
16380,-1.11108,-0.418687,-3.05739,0
16400,-1.11694,-0.419353,-3.04564,0
16420,-1.12272,-0.420059,-3.03379,0
16440,-1.12942,-0.420788,-3.02218,0
16460,-1.13665,-0.422758,-3.01066,0
16480,-1.1447,-0.425059,-2.99845,0
16500,-1.15326,-0.426986,-2.98593,0
16520,-1.16271,-0.428076,-2.97307,0
16540,-1.17185,-0.430009,-2.96025,0
16560,-1.18042,-0.432496,-2.94748,0
16580,-1.18846,-0.435739,-2.93574,0
16600,-1.1952,-0.439557,-2.92454,0
16620,-1.20147,-0.443891,-2.91324,0
16640,-1.20729,-0.448644,-2.90167,0
16660,-1.21243,-0.453127,-2.88998,0
16680,-1.2176,-0.457474,-2.87856,0
16700,-1.22258,-0.46194,-2.86708,0
16720,-1.22757,-0.466093,-2.8556,0
16740,-1.23241,-0.469604,-2.84436,0
16760,-1.23708,-0.473819,-2.83369,0
16780,-1.24076,-0.479433,-2.8234,0
16800,-1.2435,-0.485957,-2.81347,0
16820,-1.24575,-0.491033,-2.80401,0
16840,-1.2473,-0.496261,-2.79541,0
16860,-1.24802,-0.502173,-2.78705,0
16880,-1.24735,-0.509394,-2.77867,0
16900,-1.24645,-0.516067,-2.7706,0
16920,-1.24568,-0.522894,-2.76362,0
16940,-1.24447,-0.531563,-2.75782,0
16960,-1.24257,-0.54101,-2.75116,0
16980,-1.2407,-0.549829,-2.74425,0
17000,-1.23879,-0.558561,-2.73931,0
17020,-1.23502,-0.568151,-2.73656,0
17040,-1.23133,-0.580543,-2.73424,0
17060,-1.22779,-0.593692,-2.73275,0
17080,-1.224,-0.606897,-2.73207,0
17100,-1.21957,-0.620918,-2.73237,0
17120,-1.21566,-0.635291,-2.73292,0
17140,-1.21281,-0.650038,-2.73425,0
17160,-1.20966,-0.664599,-2.73709,0
17180,-1.20773,-0.678381,-2.74102,0
17200,-1.20689,-0.690565,-2.74631,0
17220,-1.204,-0.701002,-2.75535,0
17240,-1.19901,-0.712195,-2.76742,0
17260,-1.19369,-0.722336,-2.78067,0
17280,-1.18659,-0.731977,-2.79722,0
17300,-1.17664,-0.742671,-2.81691,0
17320,-1.16689,-0.754979,-2.83686,0
17340,-1.15628,-0.767421,-2.85839,0
17360,-1.14312,-0.779113,-2.88346,0
17380,-1.12773,-0.791694,-2.91087,0
17400,-1.11127,-0.804188,-2.94023,0
17420,-1.0937,-0.816793,-2.972,0
17440,-1.07538,-0.827583,-3.00507,0
17460,-1.05673,-0.837391,-3.03795,0
17480,-1.03633,-0.84683,-3.07167,0
17500,-1.01561,-0.855944,-3.10561,0
17520,-0.994507,-0.864044,-3.14023,0
17540,-0.974693,-0.870408,3.10848,0
17560,-0.954919,-0.874872,3.07445,0
17580,-0.934581,-0.878281,3.04071,0
17600,-0.912207,-0.880755,3.00649,0
17620,-0.889422,-0.881834,2.97256,0
17640,-0.865943,-0.882078,2.93951,0
17660,-0.841003,-0.881113,2.90895,0
17680,-0.814613,-0.879633,2.87878,0
17700,-0.788188,-0.878409,2.84998,0
17720,-0.761849,-0.877255,2.82276,0
17740,-0.736805,-0.87542,2.79721,0
17760,-0.716377,-0.871646,2.7751,0
17780,-0.699711,-0.866744,2.75768,0
17800,-0.68463,-0.861879,2.74377,0
17820,-0.670738,-0.857548,2.73225,0
17840,-0.658727,-0.853051,2.7217,0
17860,-0.651846,-0.845437,2.71558,0
17880,-0.647487,-0.834949,2.71324,0
17900,-0.64597,-0.82442,2.71349,0
17920,-0.646053,-0.81552,2.71515,0
17940,-0.646905,-0.80719,2.71781,0
17960,-0.649063,-0.798178,2.72192,0
17980,-0.652704,-0.788807,2.72687,0
18000,-0.658843,-0.779356,2.73276,0
18020,-0.665994,-0.768708,2.73911,0
18040,-0.67391,-0.758137,2.7462,0
18060,-0.680501,-0.747968,2.75357,0
18080,-0.686697,-0.7377,2.76137,0
18100,-0.692629,-0.72732,2.76897,0
18120,-0.699565,-0.71729,2.77774,0
18140,-0.70719,-0.707626,2.78728,0
18160,-0.71528,-0.699229,2.79695,0
18180,-0.72345,-0.69113,2.80677,0
18200,-0.730992,-0.682772,2.81609,0
18220,-0.736715,-0.674979,2.82495,0
18240,-0.742704,-0.668458,2.8341,0
18260,-0.748445,-0.663338,2.84305,0
18280,-0.754571,-0.658563,2.85216,0
18300,-0.760584,-0.654379,2.86199,0
18320,-0.766541,-0.65164,2.87315,0
18340,-0.772006,-0.649523,2.88522,0
18360,-0.776737,-0.646679,2.89666,0
18380,-0.782021,-0.644312,2.9087,0
18400,-0.788927,-0.642408,2.92236,0
18420,-0.795617,-0.639986,2.93633,0
18440,-0.802167,-0.637921,2.95023,0
18460,-0.808993,-0.63733,2.96522,0
18480,-0.815575,-0.636431,2.98087,0
18500,-0.820751,-0.635423,2.99507,0
18520,-0.823721,-0.635505,3.00821,0
18540,-0.825737,-0.636562,3.02245,0
18560,-0.827477,-0.638005,3.03692,0
18580,-0.829476,-0.640693,3.05158,0
18600,-0.832654,-0.643861,3.06725,0
18620,-0.837273,-0.64655,3.0842,0
18640,-0.844063,-0.648969,3.10192,0
18660,-0.852312,-0.652767,3.11923,0
18680,-0.862232,-0.657328,3.13745,0
18700,-0.875394,-0.661047,-3.12569,0
18720,-0.890863,-0.664498,-3.10488,0
18740,-0.907225,-0.668527,-3.08392,0
18760,-0.925648,-0.672202,-3.06136,0
18780,-0.946218,-0.673553,-3.0376,0
18800,-0.967806,-0.674659,-3.01478,0
18820,-0.989672,-0.676811,-2.99248,0
18840,-1.012,-0.678172,-2.96942,0
18860,-1.03507,-0.67773,-2.94597,0
18880,-1.05632,-0.678219,-2.92429,0
18910,-1.09565,-0.683444,-2.88149,0
18930,-1.11482,-0.685663,-2.8611,0
18950,-1.133,-0.68879,-2.84265,0
18970,-1.14897,-0.693884,-2.82553,0
18990,-1.16313,-0.699806,-2.80927,0
19010,-1.17553,-0.706214,-2.79481,0
19030,-1.18628,-0.714332,-2.78189,0
19050,-1.19548,-0.724646,-2.77012,0
19070,-1.20342,-0.736396,-2.75925,0
19090,-1.21047,-0.748639,-2.75036,0
19110,-1.21556,-0.761529,-2.74435,0
19130,-1.22065,-0.776039,-2.73905,0
19150,-1.22554,-0.790942,-2.73467,0
19170,-1.22984,-0.805546,-2.73292,0
19190,-1.2322,-0.819722,-2.7336,0
19210,-1.23367,-0.83407,-2.73511,0
19230,-1.23384,-0.848919,-2.73804,0
19250,-1.23198,-0.863703,-2.74475,0
19270,-1.2277,-0.878297,-2.75584,0
19290,-1.22211,-0.891897,-2.76915,0
19310,-1.21415,-0.904147,-2.78477,0
19330,-1.20361,-0.916745,-2.80414,0
19350,-1.18953,-0.929551,-2.82784,0
19370,-1.17426,-0.941949,-2.85245,0
19390,-1.15732,-0.954536,-2.87773,0
19410,-1.13809,-0.966449,-2.90546,0
19430,-1.11843,-0.97808,-2.93407,0
19450,-1.0993,-0.989983,-2.96344,0
19470,-1.08012,-1.00043,-2.99345,0
19490,-1.05903,-1.00891,-3.0258,0
19500,-1.03636,-1.01613,-3.05986,0
19520,-1.01421,-1.02284,-3.0935,0
19540,-0.991301,-1.02835,-3.12796,0
19560,-0.965495,-1.03252,3.11925,0
19580,-0.939309,-1.03614,3.08331,0
19600,-0.913488,-1.04036,3.04768,0
19620,-0.886961,-1.04436,3.01234,0
19640,-0.859024,-1.04799,2.97628,0
19660,-0.833181,-1.05018,2.94207,0
19680,-0.809918,-1.05154,2.91029,0
19700,-0.787468,-1.05101,2.87908,0
19720,-0.767802,-1.04831,2.85052,0
19740,-0.751758,-1.04404,2.82529,0
19760,-0.737939,-1.03877,2.80268,0
19780,-0.724663,-1.03234,2.78149,0
19800,-0.715282,-1.02466,2.76339,0
19820,-0.709263,-1.01517,2.74775,0
19840,-0.706844,-1.00445,2.73592,0
19860,-0.706393,-0.992595,2.72639,0
19880,-0.704848,-0.980397,2.71721,0
19900,-0.703714,-0.968288,2.70986,0
19920,-0.707935,-0.955616,2.70939,0
19940,-0.713501,-0.943018,2.71008,0
19960,-0.720254,-0.930836,2.71144,0
19980,-0.730362,-0.918801,2.71491,0
20000,-0.744976,-0.906101,2.72221,0
20020,-0.762372,-0.892971,2.73132,0
20040,-0.780658,-0.880189,2.74149,0
20060,-0.798728,-0.867691,2.75286,0
20080,-0.815778,-0.854349,2.76489,0
20100,-0.82913,-0.840065,2.77468,0
20120,-0.840429,-0.8279,2.78343,0
20140,-0.851224,-0.816628,2.7929,0
20160,-0.861513,-0.80454,2.80396,0
20180,-0.869467,-0.792803,2.81505,0
20200,-0.874655,-0.782992,2.82519,0
20220,-0.881035,-0.774586,2.83652,0
20240,-0.889565,-0.76709,2.84947,0
20260,-0.899842,-0.759847,2.86288,0
20280,-0.909331,-0.754401,2.87656,0
20300,-0.919915,-0.750216,2.89294,0
20320,-0.930582,-0.745262,2.9103,0
20340,-0.941393,-0.740269,2.92732,0
20360,-0.95279,-0.73546,2.94534,0
20380,-0.965405,-0.730328,2.96537,0
20400,-0.978217,-0.724603,2.98494,0
20420,-0.992142,-0.72001,3.00528,0
20440,-1.0082,-0.716004,3.02726,0
20460,-1.02606,-0.711855,3.05007,0
20480,-1.04404,-0.708406,3.07247,0
20500,-1.06282,-0.706368,3.09612,0
20520,-1.08494,-0.704077,3.12218,0
20540,-1.10871,-0.701446,-3.13395,0
20560,-1.12997,-0.700056,-3.10874,0
20580,-1.15048,-0.701119,-3.08329,0
20600,-1.17361,-0.70215,-3.05603,0
20620,-1.19596,-0.703635,-3.03116,0
20640,-1.21692,-0.706896,-3.0069,0
20660,-1.23915,-0.710894,-2.98016,0
20680,-1.26069,-0.714634,-2.95406,0
20700,-1.27936,-0.719662,-2.93075,0
20720,-1.29594,-0.727636,-2.90771,0
20740,-1.31143,-0.736441,-2.88489,0
20760,-1.32703,-0.745119,-2.86298,0
20780,-1.34212,-0.754197,-2.84212,0
20800,-1.35754,-0.764038,-2.81953,0
20820,-1.37375,-0.775074,-2.79489,0
20840,-1.3902,-0.787131,-2.77034,0
20860,-1.40545,-0.799462,-2.74844,0
20880,-1.41966,-0.812013,-2.7293,0
20900,-1.4339,-0.824727,-2.71189,0
20920,-1.44705,-0.837954,-2.69636,0
20940,-1.45834,-0.851458,-2.68266,0
20960,-1.46764,-0.864839,-2.66981,0
20980,-1.47522,-0.87967,-2.65706,0
21000,-1.48218,-0.896267,-2.64511,0
21020,-1.48784,-0.912355,-2.63486,0
21040,-1.49399,-0.927524,-2.62631,0
21060,-1.49973,-0.942589,-2.61909,0
21080,-1.50562,-0.957518,-2.61334,0
21100,-1.51247,-0.971746,-2.60716,0
21120,-1.51893,-0.986482,-2.6022,0
21140,-1.52346,-1.00022,-2.60095,0
21160,-1.52563,-1.01224,-2.60257,0
21180,-1.52751,-1.02411,-2.60379,0
21200,-1.52952,-1.03644,-2.60575,0
21220,-1.52902,-1.04868,-2.60891,0
21240,-1.52834,-1.0619,-2.61287,0
21260,-1.52648,-1.07481,-2.61735,0
21280,-1.52356,-1.08754,-2.62305,0
21300,-1.5179,-1.09941,-2.63154,0
21320,-1.51321,-1.11112,-2.63891,2001
21340,-1.50877,-1.12279,-2.64518,0
21360,-1.50633,-1.13392,-2.6484,0
21380,-1.50515,-1.14393,-2.64985,0
21400,-1.50568,-1.15214,-2.65001,0
21420,-1.5081,-1.15863,-2.6489,0
21440,-1.51203,-1.16277,-2.64585,0
21460,-1.51756,-1.16519,-2.64135,0
21480,-1.52434,-1.16605,-2.63537,0
21500,-1.52991,-1.16467,-2.63097,0
21520,-1.5334,-1.16137,-2.62911,0
21530,-1.53591,-1.15618,-2.62725,0
21550,-1.53665,-1.15005,-2.62624,0
21570,-1.53704,-1.14336,-2.62584,0
21590,-1.53623,-1.13521,-2.62653,0
21610,-1.53575,-1.12572,-2.62689,0
21630,-1.5356,-1.11494,-2.62731,0
21650,-1.53397,-1.10308,-2.62891,0
21670,-1.52998,-1.08948,-2.63229,0
21690,-1.52514,-1.07405,-2.63656,0
21710,-1.52111,-1.05737,-2.64152,0
21730,-1.51447,-1.03857,-2.64879,0
21750,-1.50499,-1.01761,-2.65843,0
21770,-1.49486,-0.994835,-2.66851,0
21790,-1.48676,-0.970998,-2.67636,0
21810,-1.47818,-0.944818,-2.68218,0
21830,-1.46891,-0.917535,-2.68729,0
21850,-1.46208,-0.890658,-2.68955,0
21870,-1.45679,-0.863566,-2.68968,0
21890,-1.44868,-0.834809,-2.68864,0
21910,-1.44284,-0.805447,-2.68143,0
21930,-1.44095,-0.77642,-2.6691,0
21950,-1.43875,-0.747434,-2.65457,0
21970,-1.43507,-0.720237,-2.63885,0
21990,-1.43191,-0.694991,-2.62259,0
22010,-1.42931,-0.67037,-2.60595,0
22030,-1.42609,-0.645588,-2.58869,0
22050,-1.42238,-0.620509,-2.57111,0
22070,-1.42113,-0.595958,-2.55247,0
22090,-1.41853,-0.572963,-2.53592,0
22110,-1.41307,-0.550621,-2.5211,0
22130,-1.40696,-0.528443,-2.50611,0
22150,-1.40168,-0.506557,-2.49196,0
22170,-1.39459,-0.485281,-2.48004,0
22190,-1.38702,-0.465708,-2.46956,0
22210,-1.3795,-0.448175,-2.4611,0
22230,-1.37229,-0.432439,-2.4542,0
22250,-1.36615,-0.419576,-2.4477,0
22270,-1.35994,-0.409263,-2.44175,0
22290,-1.35459,-0.400181,-2.43561,0
22310,-1.34993,-0.393176,-2.42995,0
22330,-1.34497,-0.387954,-2.42423,0
22350,-1.34026,-0.384683,-2.42018,0
22370,-1.33573,-0.382081,-2.41818,0
22390,-1.33094,-0.379638,-2.4172,0
22410,-1.3268,-0.377395,-2.41646,0
22430,-1.32319,-0.375267,-2.41507,0
22450,-1.31947,-0.373786,-2.41421,0
22470,-1.31568,-0.372759,-2.41447,0
22490,-1.31215,-0.371876,-2.41569,0
22510,-1.30972,-0.37085,-2.41706,0
22530,-1.30898,-0.369713,-2.41816,0
22550,-1.30793,-0.369012,-2.41901,0
22570,-1.30665,-0.36885,-2.41956,0
22590,-1.30531,-0.368387,-2.41993,0
22610,-1.30464,-0.368119,-2.42079,0
22630,-1.30578,-0.368242,-2.42233,0
22650,-1.30745,-0.367807,-2.4237,0
22670,-1.30986,-0.36653,-2.42323,0
22690,-1.31167,-0.364263,-2.42249,0
22710,-1.31205,-0.362455,-2.42349,0
22730,-1.31207,-0.361509,-2.42537,0
22750,-1.3119,-0.361063,-2.42656,0
22770,-1.31225,-0.359782,-2.42613,0
22790,-1.31144,-0.358869,-2.42563,0
22810,-1.31049,-0.358547,-2.42555,0
22830,-1.31033,-0.358324,-2.42569,0
22850,-1.31044,-0.35818,-2.4253,0
22870,-1.31022,-0.358148,-2.42398,0
22890,-1.30962,-0.35872,-2.42243,0
22910,-1.3089,-0.359927,-2.42141,0
22930,-1.30799,-0.360792,-2.42009,0
22950,-1.30846,-0.360866,-2.41702,0
22970,-1.30849,-0.360489,-2.41343,0
22990,-1.30922,-0.360841,-2.41006,0
23010,-1.31128,-0.361438,-2.40585,0
23030,-1.31431,-0.362575,-2.40072,0
23050,-1.31739,-0.36464,-2.39598,0
23070,-1.32127,-0.36793,-2.39119,0
23090,-1.326,-0.370937,-2.38609,0
23110,-1.33114,-0.37307,-2.38089,0
23130,-1.3357,-0.375987,-2.37656,0
23150,-1.34038,-0.380223,-2.37277,0
23170,-1.34526,-0.383341,-2.36969,0
23190,-1.35055,-0.386773,-2.36696,0
23210,-1.35462,-0.390637,-2.36552,0
23230,-1.35875,-0.39526,-2.36478,0
23250,-1.36285,-0.398414,-2.36452,0
23270,-1.36634,-0.401997,-2.36528,0
23290,-1.36976,-0.405827,-2.36674,0
23310,-1.37298,-0.409552,-2.36923,0
23330,-1.37505,-0.413717,-2.37279,0
23350,-1.37636,-0.417524,-2.37866,0
23370,-1.3775,-0.422626,-2.38477,0
23390,-1.3777,-0.429095,-2.39158,0
23410,-1.37723,-0.43581,-2.39991,0
23430,-1.37606,-0.443251,-2.41132,0
23450,-1.3753,-0.452036,-2.42269,0
23470,-1.37455,-0.461162,-2.43309,0
23490,-1.37276,-0.470671,-2.44401,0
23510,-1.37118,-0.480628,-2.45562,0
23530,-1.37085,-0.492005,-2.46649,0
23550,-1.37159,-0.503526,-2.4756,0
23570,-1.37324,-0.51347,-2.48378,0
23590,-1.37471,-0.521937,-2.49146,0
23610,-1.37633,-0.528559,-2.49822,0
23630,-1.37858,-0.532676,-2.5021,0
23650,-1.37941,-0.535127,-2.50575,0
23670,-1.37925,-0.536653,-2.50954,0
23690,-1.37927,-0.53732,-2.51183,0
23710,-1.38039,-0.537081,-2.5119,0
23730,-1.38208,-0.536031,-2.51034,0
23750,-1.38386,-0.533193,-2.50768,0
23770,-1.3859,-0.528937,-2.50386,0
23790,-1.3866,-0.523881,-2.49856,0
23810,-1.38604,-0.516383,-2.49166,0
23830,-1.38481,-0.509493,-2.48541,0
23850,-1.38316,-0.503644,-2.48108,0
23870,-1.38431,-0.496116,-2.47656,0
23890,-1.38506,-0.488721,-2.47092,0
23910,-1.38433,-0.481664,-2.46385,0
23930,-1.38181,-0.476308,-2.45591,0
23950,-1.3805,-0.470414,-2.44825,0
23970,-1.37942,-0.46462,-2.44215,0
23990,-1.37841,-0.458782,-2.43808,0
24010,-1.37803,-0.451876,-2.43511,0
24030,-1.37842,-0.444255,-2.43288,0
24050,-1.37735,-0.438036,-2.43182,0
24070,-1.37394,-0.431855,-2.43225,0
24090,-1.36882,-0.425899,-2.43246,0
24110,-1.36367,-0.420593,-2.43326,0
24130,-1.35968,-0.41563,-2.43422,0
24150,-1.35614,-0.411546,-2.43525,0
24170,-1.35158,-0.408047,-2.43671,0
24190,-1.34706,-0.405024,-2.43835,0
24210,-1.34343,-0.402376,-2.44027,0
24230,-1.34004,-0.399555,-2.44312,0
24250,-1.33712,-0.396672,-2.44678,0
24270,-1.33507,-0.393389,-2.45006,0
24290,-1.33378,-0.390595,-2.45379,0
24310,-1.3338,-0.387511,-2.45677,2000
24330,-1.33459,-0.384916,-2.45967,0
24350,-1.33574,-0.381622,-2.46103,0
24370,-1.33769,-0.378721,-2.46239,0
24390,-1.3395,-0.376615,-2.46435,0
24410,-1.34109,-0.374365,-2.46624,0
24430,-1.34236,-0.371617,-2.46765,0
24450,-1.34382,-0.369204,-2.46858,0
24470,-1.34504,-0.367602,-2.46911,0
24490,-1.34582,-0.366748,-2.46939,0
24510,-1.34518,-0.366589,-2.46991,0
24530,-1.34346,-0.366763,-2.47035,0
24550,-1.34321,-0.367397,-2.47023,0
24570,-1.34284,-0.367781,-2.47039,0
24590,-1.34134,-0.368367,-2.47003,0
24610,-1.33965,-0.369487,-2.46896,0
24630,-1.33861,-0.371355,-2.46787,0
24650,-1.33846,-0.372574,-2.46665,0
24670,-1.33918,-0.37316,-2.46462,0
24690,-1.33958,-0.373899,-2.46267,0
24710,-1.34004,-0.375014,-2.46098,0
24730,-1.34138,-0.375965,-2.45866,0
24750,-1.34175,-0.376275,-2.45568,0
24770,-1.34222,-0.377159,-2.45285,0
24790,-1.34158,-0.379099,-2.45098,0
24810,-1.34202,-0.381348,-2.44963,0
24830,-1.34248,-0.382824,-2.44699,0
24850,-1.34166,-0.383441,-2.44383,0
24870,-1.34036,-0.38479,-2.44216,0
24890,-1.34075,-0.38669,-2.44052,0
24910,-1.34248,-0.387568,-2.43845,0
24930,-1.34364,-0.388011,-2.43754,0
24950,-1.34427,-0.38943,-2.43697,0
24970,-1.34521,-0.391277,-2.43521,0
24990,-1.34612,-0.392807,-2.43273,0
25000,-1.34671,-0.39419,-2.43099,0
25020,-1.34671,-0.395971,-2.42976,0
25040,-1.34755,-0.397721,-2.42711,0
25060,-1.34948,-0.400304,-2.42373,0
25080,-1.35155,-0.403957,-2.42223,0
25100,-1.35388,-0.407672,-2.4214,0
25120,-1.35637,-0.40968,-2.41907,0
25140,-1.35848,-0.410918,-2.41632,0
25160,-1.36034,-0.413679,-2.41477,0
25180,-1.3625,-0.417402,-2.41426,0
25200,-1.36517,-0.420861,-2.41214,0
25220,-1.36749,-0.423446,-2.41025,0
25240,-1.36846,-0.426597,-2.40861,0
25260,-1.37005,-0.431219,-2.40648,0
25280,-1.37189,-0.435434,-2.40521,0
25300,-1.37439,-0.438015,-2.40589,0
25320,-1.37636,-0.439058,-2.40729,0
25340,-1.37808,-0.439303,-2.40736,0
25360,-1.37915,-0.439206,-2.40706,0
25380,-1.37902,-0.439779,-2.40727,0
25400,-1.37766,-0.440931,-2.40766,0
25420,-1.37729,-0.44231,-2.40691,0
25440,-1.37823,-0.443272,-2.40506,0
25460,-1.37898,-0.444739,-2.40363,0
25480,-1.37878,-0.446673,-2.40316,0
25500,-1.37926,-0.448962,-2.40237,0
25520,-1.38058,-0.451173,-2.40152,0
25540,-1.38209,-0.453906,-2.40107,0
25560,-1.38376,-0.457873,-2.40105,0
25580,-1.38602,-0.462221,-2.40096,0
25600,-1.38845,-0.466308,-2.40053,0
25620,-1.39014,-0.470444,-2.40162,0
25640,-1.39202,-0.475006,-2.40283,0
25660,-1.39447,-0.481017,-2.40377,0
25680,-1.39774,-0.487466,-2.40517,0
25700,-1.40205,-0.493666,-2.40724,0
25720,-1.40533,-0.49998,-2.41004,0
25740,-1.40884,-0.506628,-2.4138,0
25760,-1.41166,-0.513792,-2.41859,0
25780,-1.41444,-0.520975,-2.42386,0
25800,-1.41707,-0.528287,-2.4292,0
25820,-1.41903,-0.53628,-2.43496,0
25840,-1.42061,-0.545274,-2.44183,0
25860,-1.42261,-0.553838,-2.44967,0
25880,-1.42433,-0.561969,-2.45894,0
25900,-1.42463,-0.570351,-2.47021,0
25920,-1.42339,-0.578891,-2.48264,0
25940,-1.42116,-0.587823,-2.49662,0
25960,-1.4184,-0.596952,-2.51183,0
25980,-1.41391,-0.606189,-2.52847,0
26000,-1.40795,-0.615883,-2.54623,0
26020,-1.40087,-0.625925,-2.56528,0
26040,-1.39274,-0.63593,-2.58568,0
26060,-1.38435,-0.646445,-2.60748,0
26080,-1.37496,-0.656923,-2.63043,0
26100,-1.36535,-0.668131,-2.65378,0
26120,-1.35536,-0.680175,-2.67836,0
26140,-1.34397,-0.692872,-2.70428,0
26160,-1.33271,-0.705655,-2.73107,0
26180,-1.3207,-0.717663,-2.75934,0
26220,-1.2935,-0.740914,-2.81596,0
26240,-1.27894,-0.751473,-2.84408,0
26260,-1.2644,-0.760553,-2.87168,0
26280,-1.25062,-0.768153,-2.89774,0
26290,-1.23782,-0.774648,-2.92214,0
26310,-1.22602,-0.780125,-2.94636,0
26330,-1.21588,-0.783466,-2.9692,0
26350,-1.20688,-0.784581,-2.99004,0
26370,-1.19829,-0.78372,-3.00866,0
26390,-1.18886,-0.781815,-3.02729,0
26410,-1.17923,-0.778615,-3.04607,0
26430,-1.17193,-0.774297,-3.06237,0
26450,-1.16592,-0.769805,-3.07623,0
26470,-1.16037,-0.764017,-3.08987,0
26490,-1.15558,-0.757209,-3.10285,0
26510,-1.15244,-0.749935,-3.11344,0
26530,-1.15126,-0.7424,-3.12041,0
26550,-1.15137,-0.734639,-3.1265,0
26570,-1.15239,-0.726514,-3.1314,0
26590,-1.15326,-0.719323,-3.13417,0
26610,-1.15534,-0.712644,-3.13415,0
26630,-1.1581,-0.705618,-3.13335,0
26650,-1.16116,-0.697771,-3.13213,0
26670,-1.16376,-0.690271,-3.13021,0
26690,-1.16556,-0.683791,-3.1273,0
26710,-1.16985,-0.67707,-3.12247,0
26730,-1.17462,-0.670267,-3.11669,0
26750,-1.17562,-0.6637,-3.11281,0
26770,-1.17539,-0.657406,-3.10997,0
26790,-1.17584,-0.651045,-3.10656,0
26810,-1.17683,-0.644094,-3.10234,0
26830,-1.17604,-0.637274,-3.09768,0
26850,-1.17432,-0.631163,-3.09295,0
26870,-1.17424,-0.624866,-3.08789,0
26890,-1.17531,-0.618268,-3.0823,0
26910,-1.17704,-0.611998,-3.07539,0
26930,-1.17947,-0.605251,-3.0669,0
26950,-1.1822,-0.59808,-3.0575,0
26970,-1.18592,-0.591538,-3.04699,0
26990,-1.19539,-0.578221,-3.02212,0
27010,-1.20114,-0.571838,-3.0091,0
27010,-1.20681,-0.566184,-2.99591,0
27030,-1.21224,-0.560634,-2.9821,0
27050,-1.21745,-0.555116,-2.96758,0
27070,-1.22169,-0.550304,-2.95295,0
27090,-1.2239,-0.545817,-2.93823,0
27110,-1.22581,-0.541486,-2.92288,0
27130,-1.22808,-0.537802,-2.90752,0
27150,-1.23008,-0.535145,-2.893,0
27170,-1.23229,-0.532115,-2.87817,0
27190,-1.23615,-0.528144,-2.86255,0
27210,-1.24106,-0.52456,-2.84655,0
27230,-1.24576,-0.521115,-2.83063,0
27250,-1.25052,-0.516921,-2.8151,0
27270,-1.25711,-0.512814,-2.79859,0
27290,-1.26452,-0.508544,-2.78104,0
27310,-1.2724,-0.503775,-2.76273,0
27330,-1.2807,-0.500247,-2.74423,0
27350,-1.29045,-0.499239,-2.72483,0
27370,-1.30162,-0.499056,-2.70424,0
27390,-1.31329,-0.498608,-2.68371,0
27410,-1.32497,-0.499066,-2.66344,0
27430,-1.33729,-0.500926,-2.64246,0
27450,-1.35006,-0.503351,-2.62124,0
27470,-1.36363,-0.505231,-2.59977,0
27490,-1.37805,-0.507753,-2.57774,0
27510,-1.392,-0.51079,-2.55553,0
27530,-1.40504,-0.5138,-2.53419,0
27550,-1.417,-0.517117,-2.51359,0
27570,-1.42883,-0.52132,-2.49402,0
27590,-1.44107,-0.526675,-2.4746,0
27610,-1.45409,-0.532297,-2.45487,0
27630,-1.46561,-0.537379,-2.43602,0
27650,-1.47588,-0.543175,-2.41795,0
27670,-1.48592,-0.550293,-2.40016,0
27690,-1.49655,-0.558004,-2.38275,0
27710,-1.50761,-0.565364,-2.36662,0
27730,-1.51795,-0.573431,-2.35156,0
27750,-1.52648,-0.582944,-2.33816,0
27770,-1.53436,-0.591845,-2.32664,0
27790,-1.5422,-0.601242,-2.31751,0
27810,-1.54871,-0.611587,-2.31102,0
27830,-1.5547,-0.622398,-2.30559,0
27850,-1.55902,-0.631341,-2.3003,0
27870,-1.56243,-0.640973,-2.29647,0
27890,-1.56659,-0.652186,-2.29416,0
27910,-1.57215,-0.664693,-2.29209,0
27930,-1.57736,-0.677069,-2.29237,0
27950,-1.58251,-0.687428,-2.2951,0
27970,-1.58604,-0.69698,-2.29909,0
27990,-1.58862,-0.707263,-2.30224,0
28010,-1.59096,-0.719671,-2.30644,0
28030,-1.59228,-0.7329,-2.31434,0
28050,-1.59233,-0.744673,-2.32526,0
28100,-1.54417,-0.812558,-2.42871,0
28120,-1.53465,-0.825681,-2.44535,0
28140,-1.52316,-0.840208,-2.46406,0
28160,-1.51059,-0.85518,-2.48494,0
28180,-1.49636,-0.87185,-2.50826,0
28200,-1.48026,-0.888419,-2.53462,0
28220,-1.4616,-0.905217,-2.5631,0
28240,-1.44107,-0.922825,-2.5924,0
28260,-1.41979,-0.940302,-2.62277,0
28280,-1.39818,-0.957509,-2.65488,0
28300,-1.37629,-0.973215,-2.68821,0
28320,-1.35446,-0.987332,-2.72137,0
28340,-1.33335,-0.999797,-2.75397,0
28360,-1.31201,-1.01036,-2.78629,0
28380,-1.29101,-1.01956,-2.81801,0
28400,-1.27007,-1.02714,-2.84924,0
28420,-1.25047,-1.0339,-2.87886,0
28440,-1.22998,-1.03951,-2.90859,0
28460,-1.2084,-1.04402,-2.93883,0
28480,-1.18521,-1.04798,-2.96992,0
28500,-1.16195,-1.0513,-3.00117,0
28520,-1.1388,-1.05378,-3.03158,0
28540,-1.11567,-1.05619,-3.06047,0
28560,-1.09227,-1.05778,-3.08784,0
28580,-1.06945,-1.05722,-3.11433,0
28600,-1.04916,-1.05489,-3.13835,0
28620,-1.03105,-1.05251,3.12366,0
28640,-1.01705,-1.04894,3.10659,0
28660,-1.00532,-1.04381,3.09213,0
28680,-0.995617,-1.03881,3.0795,0
28700,-0.99001,-1.03333,3.07095,0
28720,-0.986672,-1.02721,3.06534,0
28740,-0.98517,-1.02034,3.06094,0
28760,-0.983682,-1.01293,3.05817,0
28780,-0.983868,-1.00425,3.05729,0
28800,-0.985672,-0.994796,3.05827,0
28820,-0.990029,-0.985344,3.06207,0
28840,-0.996797,-0.974642,3.06871,0
28860,-1.00504,-0.962628,3.07711,0
28880,-1.01362,-0.95022,3.08788,0
28900,-1.02168,-0.938931,3.0992,0
28920,-1.0312,-0.92657,3.11168,0
28940,-1.04332,-0.913532,3.12532,0
28960,-1.05605,-0.900402,3.13935,0
28980,-1.06857,-0.888675,-3.13017,0
29000,-1.08217,-0.876404,-3.1152,0
29020,-1.09504,-0.864428,-3.09932,0
29040,-1.1067,-0.852648,-3.08489,0
29060,-1.11703,-0.84077,-3.07165,0
29080,-1.12781,-0.828895,-3.05777,0
29100,-1.13941,-0.816918,-3.04293,0
29120,-1.14917,-0.804336,-3.02994,0
29140,-1.16002,-0.791,-3.01711,0
29160,-1.17005,-0.77772,-3.00323,0
29180,-1.17899,-0.765488,-2.99008,0
29200,-1.18683,-0.753539,-2.97719,0
29220,-1.19369,-0.742151,-2.9644,0
29240,-1.2018,-0.731122,-2.95029,0
29260,-1.21067,-0.721345,-2.93566,0
29280,-1.21889,-0.711661,-2.92156,0
29300,-1.22867,-0.702715,-2.90674,0
29320,-1.23981,-0.694082,-2.8914,0
29340,-1.25243,-0.685795,-2.87467,0
29360,-1.2666,-0.678875,-2.85641,0
29380,-1.28177,-0.672785,-2.83763,0
29400,-1.29761,-0.666691,-2.8189,0
29420,-1.31377,-0.661176,-2.80016,0
29440,-1.33103,-0.656568,-2.78033,0
29460,-1.34855,-0.651826,-2.7598,0
29480,-1.36477,-0.647362,-2.74016,0
29500,-1.37901,-0.644452,-2.72143,0
29520,-1.39372,-0.642689,-2.70138,0
29540,-1.40878,-0.640821,-2.6812,0
29560,-1.42311,-0.639574,-2.66257,0
29580,-1.43675,-0.639267,-2.64389,0
29600,-1.45102,-0.639585,-2.62497,0
29620,-1.46529,-0.640023,-2.60655,0
29640,-1.47878,-0.641185,-2.5898,0
29660,-1.49191,-0.643213,-2.57363,0
29680,-1.50535,-0.645018,-2.55708,0
29700,-1.51828,-0.647347,-2.54135,0
29720,-1.52928,-0.651356,-2.52661,0
29740,-1.53958,-0.655856,-2.51213,0
29760,-1.5496,-0.660154,-2.49848,0
29780,-1.56015,-0.664779,-2.48514,0
29800,-1.56956,-0.670302,-2.47174,0
29820,-1.5776,-0.676726,-2.45898,0
29840,-1.58535,-0.683321,-2.44741,0
29860,-1.5937,-0.690671,-2.43626,0
29880,-1.60197,-0.699322,-2.42506,0
29900,-1.60937,-0.708465,-2.41465,0
29920,-1.61543,-0.718246,-2.40547,0
29940,-1.61995,-0.72826,-2.39767,0
29960,-1.62474,-0.740454,-2.38915,0
29980,-1.62951,-0.753811,-2.38028,0
30000,-1.63182,-0.767688,-2.37485,0
30020,-1.63243,-0.782482,-2.37268,0
30040,-1.63239,-0.79823,-2.37077,0
30060,-1.6317,-0.815358,-2.36842,0
30080,-1.62948,-0.832943,-2.36735,0
30100,-1.62545,-0.851182,-2.36797,0
30120,-1.62126,-0.869789,-2.36877,0
30140,-1.61699,-0.888292,-2.37047,0
30160,-1.61197,-0.906538,-2.37392,0
30180,-1.60631,-0.924786,-2.37912,0
30200,-1.6002,-0.942755,-2.38465,0
30220,-1.59424,-0.96099,-2.3908,0
30240,-1.58522,-0.979242,-2.40081,0
30260,-1.57282,-0.998319,-2.41437,0
30280,-1.56056,-1.01744,-2.42862,0
30300,-1.54743,-1.03582,-2.44532,0
30320,-1.53024,-1.05435,-2.46567,0
30330,-1.50966,-1.07299,-2.48924,0
30350,-1.4876,-1.09086,-2.51437,0
30370,-1.46462,-1.10754,-2.5418,0
30390,-1.43671,-1.12348,-2.5749,0
30410,-1.40747,-1.13802,-2.6095,0
30430,-1.37574,-1.15098,-2.64698,0
30450,-1.34182,-1.16194,-2.68725,0
30470,-1.30559,-1.17019,-2.72992,0
30490,-1.2686,-1.17732,-2.7737,0
30510,-1.22947,-1.18272,-2.81891,0
30530,-1.18897,-1.18702,-2.86599,0
30550,-1.1486,-1.18738,-2.91431,0
30570,-1.11048,-1.18512,-2.9594,0
30590,-1.0743,-1.18089,-3.00267,0
30610,-1.04026,-1.17471,-3.04362,0
30630,-1.01014,-1.16766,-3.07841,0
30650,-0.987494,-1.15921,-3.10585,0
30670,-0.968075,-1.14923,-3.12982,0
30690,-0.951857,-1.13848,3.13333,0
30710,-0.942944,-1.12778,3.11976,0
30730,-0.938869,-1.11707,3.11015,0
30750,-0.939434,-1.10471,3.10496,0
30770,-0.943025,-1.09111,3.10232,0
30790,-0.950169,-1.0776,3.10249,0
30810,-0.958767,-1.06339,3.10307,0
30830,-0.967705,-1.0487,3.10419,0
30850,-0.975309,-1.03441,3.10616,0
30870,-0.98475,-1.02155,3.11114,0
30890,-0.994533,-1.00896,3.11665,0
30910,-1.00282,-0.996268,3.12022,0
30930,-1.01139,-0.983174,3.12374,0
30950,-1.02288,-0.970261,3.12909,0
30970,-1.03457,-0.957456,3.13556,0
30990,-1.0446,-0.944996,-3.14033,0
31010,-1.05485,-0.933777,-3.13108,0
31030,-1.06568,-0.923566,-3.12047,0
31050,-1.07837,-0.913203,-3.10794,0
31070,-1.09218,-0.90287,-3.09465,0
31090,-1.10678,-0.892804,-3.07968,0
31110,-1.12262,-0.883146,-3.06288,0
31130,-1.13764,-0.873757,-3.04574,0
31150,-1.15253,-0.864744,-3.02807,0
31170,-1.16685,-0.8557,-3.01027,0
31190,-1.1812,-0.846554,-2.99319,0
31210,-1.19568,-0.836772,-2.97625,0
31230,-1.21032,-0.826965,-2.95939,0
31250,-1.22429,-0.816642,-2.94265,0
31270,-1.23863,-0.805486,-2.92525,0
31290,-1.25419,-0.795274,-2.9071,0
31310,-1.26766,-0.785426,-2.89147,0
31330,-1.28304,-0.77468,-2.87615,0
31350,-1.30006,-0.763917,-2.8604,0
31370,-1.31669,-0.75398,-2.8442,0
31390,-1.33299,-0.745368,-2.82675,0
31410,-1.34973,-0.73773,-2.80745,0
31430,-1.36516,-0.731248,-2.78872,0
31450,-1.38007,-0.726477,-2.76914,0
31470,-1.39437,-0.723711,-2.74835,0
31490,-1.40769,-0.722511,-2.72716,0
31510,-1.42211,-0.721686,-2.70488,0
31530,-1.43801,-0.722224,-2.68057,0
31550,-1.45513,-0.723077,-2.65381,0
31570,-1.47243,-0.724115,-2.62719,0
31590,-1.48983,-0.727037,-2.60169,0
31610,-1.50809,-0.731243,-2.57673,0
31630,-1.52705,-0.735712,-2.55276,0
31650,-1.54514,-0.740277,-2.52981,0
31670,-1.56144,-0.745238,-2.50713,0
31690,-1.57686,-0.751509,-2.48379,0
31710,-1.59161,-0.75907,-2.4605,0
31730,-1.60576,-0.767354,-2.43812,0
31750,-1.61856,-0.776485,-2.41891,0
31770,-1.632,-0.785982,-2.40043,0
31790,-1.64588,-0.794667,-2.38212,0
31810,-1.659,-0.802841,-2.36439,0
31830,-1.67027,-0.812094,-2.34736,0
31850,-1.68018,-0.822831,-2.3306,0
31870,-1.68899,-0.833685,-2.31602,0
31890,-1.69713,-0.844334,-2.30397,0
31910,-1.70358,-0.856225,-2.29352,0
31930,-1.71135,-0.869311,-2.28109,0
31950,-1.71845,-0.881963,-2.26878,0
31970,-1.72543,-0.894556,-2.25729,0
31990,-1.73352,-0.90772,-2.24493,0
32010,-1.74466,-0.921816,-2.22935,0
32030,-1.75714,-0.93608,-2.21434,0
32050,-1.7676,-0.950399,-2.20391,0
32070,-1.77522,-0.964189,-2.19858,0
32090,-1.78138,-0.976771,-2.19506,0
32110,-1.78834,-0.989574,-2.19067,0
32130,-1.79166,-1.00318,-2.18724,0
32150,-1.79457,-1.01843,-2.18369,0
32170,-1.7974,-1.03358,-2.18027,0
32190,-1.80065,-1.04803,-2.1803,0
32210,-1.80191,-1.06111,-2.18271,2001
32230,-1.80353,-1.07255,-2.1834,0
32250,-1.80688,-1.0817,-2.18153,0
32270,-1.81074,-1.08961,-2.17973,0
32290,-1.81349,-1.0953,-2.17902,0
32310,-1.81718,-1.09838,-2.17752,0
32330,-1.82157,-1.09934,-2.17619,0
32350,-1.82549,-1.09784,-2.17605,0
32360,-1.82731,-1.09534,-2.17788,0
32380,-1.82787,-1.09175,-2.18033,0
32400,-1.82949,-1.08611,-2.18266,0
32420,-1.83435,-1.07778,-2.18292,0
32440,-1.83943,-1.06736,-2.18133,0
32460,-1.84409,-1.05696,-2.18157,0
32480,-1.85034,-1.0451,-2.18134,0
32500,-1.85592,-1.03133,-2.18151,0
32520,-1.85625,-1.01499,-2.18618,0
32540,-1.85216,-0.995251,-2.19595,0
32560,-1.84408,-0.972162,-2.21057,0
32580,-1.83187,-0.946545,-2.22758,0
32600,-1.81552,-0.91805,-2.24604,0
32620,-1.79804,-0.888617,-2.26383,0
32640,-1.77847,-0.85945,-2.28249,0
32670,-1.756,-0.827045,-2.3027,0
32680,-1.85034,-1.0451,-2.18134,0
32700,-1.73455,-0.791192,-2.32101,0
32720,-1.71161,-0.754524,-2.33803,0
32740,-1.68694,-0.716354,-2.3561,0
32760,-1.66423,-0.677182,-2.37237,0
32780,-1.64065,-0.641609,-2.38529,0
32800,-1.61669,-0.607719,-2.39449,0
32820,-1.59684,-0.572916,-2.39934,0
32840,-1.58225,-0.538488,-2.4006,0
32860,-1.56513,-0.509228,-2.39945,0
32880,-1.54699,-0.482967,-2.39811,0
32900,-1.53132,-0.45774,-2.39677,0
32920,-1.51724,-0.434305,-2.39381,0
32940,-1.50249,-0.413262,-2.3892,0
32960,-1.48875,-0.393664,-2.38406,0
32980,-1.47743,-0.375911,-2.37893,0
33000,-1.46656,-0.36108,-2.37316,0
33020,-1.45501,-0.349931,-2.36735,0
33040,-1.44295,-0.341393,-2.36233,0
33060,-1.43066,-0.334643,-2.35856,0
33080,-1.41899,-0.330262,-2.35525,0
33100,-1.4082,-0.327833,-2.35198,0
33120,-1.39802,-0.326387,-2.34949,0
33140,-1.38799,-0.326669,-2.34867,0
33160,-1.37828,-0.327689,-2.3484,0
33180,-1.3696,-0.328453,-2.34817,0
33200,-1.36344,-0.328809,-2.34745,0
33220,-1.35852,-0.330153,-2.34657,0
33240,-1.35364,-0.332555,-2.34539,0
33260,-1.35009,-0.335341,-2.3443,0
33280,-1.34806,-0.337254,-2.34311,0
33300,-1.34716,-0.338583,-2.34145,0
33320,-1.34558,-0.339484,-2.33959,0
33340,-1.3454,-0.340155,-2.33803,0
33360,-1.34588,-0.340399,-2.33664,0
33380,-1.34628,-0.3409,-2.33528,0
33400,-1.34826,-0.340711,-2.3337,0
33420,-1.35271,-0.339686,-2.33087,0
33440,-1.35696,-0.338783,-2.32709,0
33460,-1.35936,-0.33792,-2.32369,0
33480,-1.36055,-0.337487,-2.32242,0
33500,-1.36198,-0.337649,-2.32199,0
33520,-1.36401,-0.338005,-2.32,0
33540,-1.36554,-0.338858,-2.31815,0
33560,-1.36685,-0.340136,-2.31888,0
33580,-1.36806,-0.340992,-2.31903,0
33600,-1.369,-0.340379,-2.31582,0
33620,-1.36859,-0.340134,-2.31273,0
33640,-1.36943,-0.342395,-2.31286,0
33660,-1.37022,-0.344203,-2.31194,0
33680,-1.37102,-0.344549,-2.30844,0
33700,-1.36977,-0.346629,-2.30444,0
33720,-1.37155,-0.348822,-2.30295,0
33740,-1.37033,-0.352107,-2.30376,0
33760,-1.37176,-0.353026,-2.30195,0
33780,-1.37414,-0.353087,-2.29799,0
33800,-1.37613,-0.353155,-2.29491,0
33820,-1.37733,-0.353671,-2.29246,0
33840,-1.38047,-0.352846,-2.28867,0
33860,-1.38467,-0.351209,-2.28364,0
33880,-1.38895,-0.349554,-2.27834,0
33900,-1.3935,-0.347815,-2.27297,0
33920,-1.39692,-0.345565,-2.26693,0
33940,-1.4004,-0.343626,-2.26011,0
33960,-1.40375,-0.343073,-2.25356,0
33980,-1.40687,-0.343956,-2.24656,0
34000,-1.40991,-0.345538,-2.23896,0
34020,-1.41444,-0.34651,-2.23156,0
34040,-1.41926,-0.347973,-2.22409,0
34060,-1.42309,-0.35131,-2.21634,0
34080,-1.42749,-0.354155,-2.20774,0
34100,-1.43283,-0.355685,-2.19915,0
34120,-1.43743,-0.359024,-2.19214,0
34140,-1.44168,-0.364108,-2.18653,0
34160,-1.44658,-0.367806,-2.18066,0
34180,-1.45179,-0.36966,-2.17449,0
34200,-1.45742,-0.372322,-2.16946,0
34220,-1.46249,-0.376497,-2.16614,0
34240,-1.46765,-0.381342,-2.16279,0
34260,-1.47328,-0.386499,-2.15875,0
34280,-1.47857,-0.39285,-2.15638,0
34300,-1.48413,-0.40023,-2.1566,0
34320,-1.49033,-0.406099,-2.16017,0
34340,-1.49507,-0.411008,-2.16686,0
34360,-1.49775,-0.415928,-2.17569,0
34380,-1.50025,-0.420052,-2.18419,0
34400,-1.50357,-0.424805,-2.19328,0
34420,-1.50785,-0.429863,-2.20381,0
34440,-1.51428,-0.435218,-2.21506,0
34460,-1.52175,-0.440592,-2.22591,0
34480,-1.52784,-0.446628,-2.23676,0
34500,-1.53146,-0.452415,-2.24712,0
34520,-1.53268,-0.459778,-2.25798,0
34540,-1.5319,-0.468473,-2.27022,0
34560,-1.53141,-0.47637,-2.2816,0
34580,-1.53098,-0.482279,-2.29101,0
34600,-1.53134,-0.486514,-2.30009,0
34620,-1.53113,-0.489226,-2.30944,0
34640,-1.53112,-0.490004,-2.3188,0
34660,-1.53274,-0.489193,-2.32609,0
34680,-1.53675,-0.487825,-2.33063,0
34700,-1.54326,-0.486477,-2.33398,0
34720,-1.55136,-0.484403,-2.33685,0
34740,-1.56034,-0.481168,-2.33972,0
34760,-1.57028,-0.477502,-2.34303,0
34780,-1.58091,-0.472845,-2.34454,0
34800,-1.59387,-0.468099,-2.3443,0
34820,-1.6056,-0.463213,-2.34288,0
34840,-1.61444,-0.458281,-2.34131,0
34860,-1.62043,-0.455278,-2.34023,0
34880,-1.62566,-0.453682,-2.33891,0
34900,-1.63048,-0.451904,-2.33694,0
34920,-1.63446,-0.450454,-2.33489,0
34940,-1.63701,-0.449988,-2.33408,0
34960,-1.63759,-0.450099,-2.33472,0
34980,-1.63598,-0.450182,-2.33601,0
35000,-1.63154,-0.450627,-2.33713,0
35020,-1.62788,-0.452409,-2.33813,0
35040,-1.6283,-0.454126,-2.33656,0
35060,-1.62914,-0.454714,-2.33517,0
35080,-1.62832,-0.454665,-2.33707,0
35100,-1.62707,-0.453772,-2.34052,0
35120,-1.62468,-0.451923,-2.34291,0
35140,-1.62205,-0.448044,-2.34305,0
35160,-1.61982,-0.444967,-2.3443,0
35180,-1.61801,-0.442724,-2.34597,0
35200,-1.61585,-0.439712,-2.34805,0
35220,-1.61376,-0.43544,-2.35052,0
35240,-1.61282,-0.432642,-2.35265,0
35260,-1.61329,-0.430935,-2.35258,0
35280,-1.61298,-0.4293,-2.35179,0
35300,-1.61317,-0.428656,-2.35207,0
35320,-1.61438,-0.42772,-2.3512,0
35340,-1.61596,-0.426695,-2.3505,0
35360,-1.61644,-0.42639,-2.34973,0
35380,-1.61621,-0.426994,-2.34856,0
35400,-1.61497,-0.426025,-2.34703,0
35420,-1.61428,-0.425444,-2.3455,0
35440,-1.61419,-0.425714,-2.34536,0
35460,-1.61537,-0.426003,-2.34549,0
35480,-1.6167,-0.425794,-2.34508,0
35500,-1.6159,-0.426161,-2.34587,0
35520,-1.6151,-0.428303,-2.34754,0
35540,-1.61544,-0.42867,-2.3468,0
35560,-1.61662,-0.426811,-2.34569,0
35580,-1.61748,-0.426895,-2.34547,0
35600,-1.61898,-0.429607,-2.3451,0
35620,-1.62084,-0.430331,-2.34442,0
35640,-1.62247,-0.429329,-2.34405,0
35660,-1.62416,-0.428684,-2.34361,0
35680,-1.62636,-0.428523,-2.34368,0
35700,-1.62844,-0.428344,-2.3445,0
35720,-1.63118,-0.428468,-2.34457,0
35740,-1.63336,-0.4291,-2.34456,0
35760,-1.63448,-0.42911,-2.34545,0
35780,-1.63636,-0.429274,-2.34695,0
35800,-1.63838,-0.42869,-2.34836,0
35820,-1.64001,-0.427948,-2.35004,0
35840,-1.6402,-0.42733,-2.35091,0
35850,-1.6397,-0.42825,-2.35025,0
35870,-1.63707,-0.43107,-2.34872,0
35890,-1.63346,-0.435284,-2.34872,0
35910,-1.62903,-0.440065,-2.35147,0
35930,-1.62483,-0.443607,-2.35628,0
35950,-1.62004,-0.444454,-2.36088,0
35970,-1.6155,-0.4429,-2.36577,0
35990,-1.61074,-0.44044,-2.37076,0
36010,-1.6088,-0.439966,-2.3751,0
36030,-1.60848,-0.438317,-2.37737,0
36050,-1.60669,-0.435614,-2.38023,0
36070,-1.60092,-0.433879,-2.38504,0
36090,-1.59216,-0.434049,-2.39249,0
36110,-1.58154,-0.436648,-2.4014,0
36130,-1.57047,-0.438688,-2.40847,0
36150,-1.56182,-0.438772,-2.41156,0
36170,-1.55325,-0.438895,-2.41495,0
36190,-1.54495,-0.440317,-2.41955,0
36210,-1.53706,-0.441033,-2.42373,0
36230,-1.52893,-0.441056,-2.42671,0
36250,-1.52079,-0.440941,-2.42997,0
36270,-1.51261,-0.441035,-2.4345,0
36290,-1.50481,-0.44009,-2.43742,0
36310,-1.49587,-0.437369,-2.44005,0
36330,-1.48639,-0.434547,-2.44439,0
36350,-1.47469,-0.432871,-2.44977,0
36370,-1.46193,-0.431729,-2.45471,0
36390,-1.44885,-0.429407,-2.45883,0
36410,-1.4365,-0.426666,-2.46258,0
36430,-1.4244,-0.42358,-2.46593,0
36450,-1.41322,-0.420057,-2.46784,0
36470,-1.40172,-0.415813,-2.46798,0
36490,-1.38949,-0.411556,-2.46744,0
36510,-1.37592,-0.408618,-2.46668,0
36530,-1.36326,-0.405227,-2.46361,0
36550,-1.35258,-0.400347,-2.45901,0
36570,-1.34509,-0.396886,-2.45535,0
36590,-1.33804,-0.393706,-2.45225,0
36610,-1.33072,-0.390703,-2.44833,0
36630,-1.32158,-0.388147,-2.44512,0
36650,-1.31288,-0.386041,-2.44274,0
36670,-1.30551,-0.384754,-2.44016,0
36690,-1.29785,-0.384748,-2.43821,0
36710,-1.28956,-0.38613,-2.4382,0
36730,-1.28129,-0.387753,-2.43947,0
36750,-1.27357,-0.388148,-2.44069,0
36770,-1.26792,-0.388576,-2.44094,0
36790,-1.26361,-0.389863,-2.44184,0
36810,-1.26032,-0.391791,-2.44401,0
36830,-1.25682,-0.393682,-2.44657,0
36850,-1.25315,-0.395811,-2.44844,0
36870,-1.24858,-0.397777,-2.45005,0
36890,-1.24373,-0.398939,-2.45138,0
36910,-1.24035,-0.399953,-2.45254,0
36930,-1.23902,-0.401152,-2.45257,0
36950,-1.23787,-0.402323,-2.45189,0
36970,-1.23601,-0.403081,-2.45062,0
36990,-1.23533,-0.403793,-2.44839,0
37010,-1.23505,-0.404179,-2.44553,0
37030,-1.23505,-0.404772,-2.44232,0
37050,-1.23591,-0.40594,-2.43924,0
37070,-1.23667,-0.407286,-2.43668,0
37090,-1.23726,-0.408248,-2.43394,0
37110,-1.23724,-0.408677,-2.43097,0
37130,-1.23682,-0.40891,-2.42834,0
37150,-1.23684,-0.409577,-2.42624,0
37170,-1.23672,-0.410191,-2.4248,0
37190,-1.23616,-0.410017,-2.42384,0
37210,-1.23644,-0.40958,-2.423,2000
37230,-1.23717,-0.409089,-2.42251,0
37250,-1.2382,-0.408677,-2.42254,0
37270,-1.23779,-0.40759,-2.42256,0
37290,-1.23621,-0.406627,-2.42262,0
37310,-1.235,-0.405973,-2.4233,0
37330,-1.23451,-0.405716,-2.42481,0
37350,-1.23458,-0.405229,-2.42615,0
37370,-1.23523,-0.405274,-2.42747,0
37390,-1.23627,-0.405334,-2.42871,0
37410,-1.23828,-0.405534,-2.42898,0
37430,-1.23976,-0.405557,-2.42852,0
37450,-1.24036,-0.405203,-2.42945,0
37470,-1.24148,-0.405079,-2.43072,0
37490,-1.24187,-0.404751,-2.4311,0
37510,-1.24241,-0.404458,-2.4306,0
37530,-1.24287,-0.404824,-2.43004,0
37550,-1.24245,-0.406123,-2.43026,0
37570,-1.24217,-0.407758,-2.43029,0
37590,-1.24171,-0.409602,-2.4295,0
37610,-1.24163,-0.411696,-2.42926,0
37630,-1.24269,-0.413078,-2.4281,0
37650,-1.24393,-0.413672,-2.42734,0
37670,-1.2451,-0.4151,-2.42706,0
37690,-1.24626,-0.416592,-2.42685,0
37710,-1.24713,-0.416326,-2.42598,0
37730,-1.24797,-0.415221,-2.42567,0
37750,-1.24822,-0.414962,-2.42612,0
37770,-1.2498,-0.414011,-2.42582,0
37790,-1.25176,-0.411654,-2.42406,0
37810,-1.25311,-0.409848,-2.42313,0
37830,-1.25476,-0.409487,-2.42297,0
37850,-1.2569,-0.407777,-2.42144,0
37870,-1.25985,-0.404232,-2.4186,0
37880,-1.2625,-0.400835,-2.41668,0
37900,-1.26466,-0.399706,-2.41479,0
37920,-1.26693,-0.399136,-2.41126,0
37940,-1.26955,-0.39786,-2.40583,0
37960,-1.27283,-0.397449,-2.39964,0
37980,-1.27649,-0.398542,-2.3932,0
38000,-1.28171,-0.400266,-2.38601,0
38020,-1.28806,-0.401412,-2.37716,0
38040,-1.29462,-0.40292,-2.36845,0
38060,-1.30214,-0.406137,-2.35948,0
38080,-1.31115,-0.409441,-2.34989,0
38100,-1.31987,-0.411126,-2.34103,0
38120,-1.32926,-0.413217,-2.33178,0
38140,-1.3381,-0.416479,-2.32433,0
38160,-1.34702,-0.420625,-2.3176,0
38180,-1.35542,-0.423281,-2.31187,0
38200,-1.36388,-0.425164,-2.30569,0
38220,-1.37261,-0.428313,-2.30069,0
38240,-1.38008,-0.430853,-2.29814,0
38260,-1.38644,-0.433721,-2.29674,0
38280,-1.39344,-0.435923,-2.29596,0
38300,-1.39887,-0.439568,-2.29784,0
38320,-1.40337,-0.444533,-2.29971,0
38340,-1.40739,-0.449671,-2.30208,0
38360,-1.4106,-0.455483,-2.3042,0
38380,-1.41345,-0.462337,-2.30846,0
38400,-1.41548,-0.47006,-2.3156,0
38430,-1.41995,-0.487409,-2.33046,0
38450,-1.42084,-0.496299,-2.3405,0
38470,-1.42111,-0.506179,-2.35197,0
38490,-1.42165,-0.516859,-2.36358,0
38510,-1.42113,-0.526697,-2.37575,0
38530,-1.41944,-0.534148,-2.39083,0
38550,-1.41766,-0.545248,-2.40365,0
38570,-1.41726,-0.556863,-2.41601,0
38590,-1.41594,-0.567844,-2.42955,0
38610,-1.41491,-0.577767,-2.44258,0
38630,-1.41448,-0.58775,-2.4559,0
38650,-1.41336,-0.599385,-2.46965,0
38670,-1.4116,-0.611017,-2.48483,0
38690,-1.40875,-0.621841,-2.50114,0
38710,-1.40536,-0.632877,-2.51801,0
38730,-1.40103,-0.644879,-2.53639,0
38750,-1.39566,-0.657383,-2.55627,0
38770,-1.39011,-0.669157,-2.57682,0
38790,-1.3842,-0.679794,-2.59786,0
38810,-1.37725,-0.691351,-2.61937,0
38830,-1.37011,-0.70274,-2.64166,0
38850,-1.36286,-0.713558,-2.66438,0
38870,-1.35429,-0.723428,-2.68848,0
38890,-1.34439,-0.733039,-2.71342,0
38910,-1.33356,-0.741286,-2.73918,0
38930,-1.32148,-0.748483,-2.76649,0
38950,-1.30897,-0.754469,-2.79407,0
38970,-1.29629,-0.7586,-2.82119,0
38990,-1.28482,-0.761423,-2.8463,0
39010,-1.27305,-0.764017,-2.87212,0
39030,-1.26129,-0.765737,-2.89815,0
39050,-1.25102,-0.764891,-2.92298,0
39070,-1.24156,-0.761625,-2.94589,0
39090,-1.23061,-0.756401,-2.97075,0
39110,-1.21867,-0.751021,-2.99524,0
39130,-1.20904,-0.745023,-3.01549,0
39150,-1.20157,-0.738706,-3.03171,0
39170,-1.19429,-0.728133,-3.04938,0
39190,-1.18696,-0.717101,-3.06696,0
39210,-1.17907,-0.70671,-3.08274,0
39230,-1.17449,-0.69674,-3.09391,0
39250,-1.17069,-0.686949,-3.10311,0
39270,-1.1652,-0.678136,-3.11076,0
39290,-1.15998,-0.671166,-3.11799,0
39310,-1.15715,-0.664683,-3.12392,0
39330,-1.15738,-0.657497,-3.12681,0
39350,-1.15805,-0.651828,-3.12595,0
39370,-1.15861,-0.647705,-3.12345,0
39390,-1.15929,-0.643532,-3.12086,0
39410,-1.16032,-0.638666,-3.11685,0
39430,-1.16255,-0.634022,-3.11071,0
39450,-1.16556,-0.629936,-3.10401,0
39470,-1.16906,-0.625164,-3.09759,0
39490,-1.17317,-0.619277,-3.09076,0
39510,-1.17674,-0.613417,-3.08231,0
39530,-1.18084,-0.608396,-3.07291,0
39550,-1.18538,-0.603299,-3.06289,0
39570,-1.19064,-0.59755,-3.0525,0
39590,-1.19728,-0.591332,-3.04165,0
39610,-1.20503,-0.585106,-3.02973,0
39630,-1.21324,-0.57913,-3.018,0
39650,-1.22118,-0.572132,-3.00661,0
39670,-1.22798,-0.564808,-2.99514,0
39690,-1.23433,-0.557172,-2.98276,0
39710,-1.2415,-0.549624,-2.97029,0
39730,-1.24951,-0.543149,-2.95756,0
39750,-1.2562,-0.536735,-2.94505,0
39770,-1.26287,-0.529722,-2.93208,0
39790,-1.27012,-0.523126,-2.9191,0
39810,-1.27612,-0.517263,-2.90675,0
39830,-1.28,-0.51183,-2.89465,0
39850,-1.28397,-0.506261,-2.88177,0
39870,-1.28824,-0.500967,-2.86908,0
39890,-1.29293,-0.4966,-2.85662,0
39910,-1.29831,-0.492169,-2.84432,0
39930,-1.30427,-0.487354,-2.83179,0
39950,-1.31005,-0.48302,-2.81936,0
39970,-1.31515,-0.479629,-2.80675,0
39990,-1.32048,-0.475858,-2.79329,0
40010,-1.32699,-0.471176,-2.7796,0
40030,-1.33348,-0.467331,-2.76603,0
40050,-1.3402,-0.464468,-2.75164,0
40070,-1.34741,-0.461708,-2.73664,0
40090,-1.35425,-0.458839,-2.72183,0
40110,-1.36066,-0.45712,-2.70658,0
40130,-1.36771,-0.456723,-2.69054,0
40150,-1.37597,-0.455522,-2.6736,0
40170,-1.38482,-0.453451,-2.65663,0
40190,-1.39382,-0.452807,-2.6392,0
40210,-1.40319,-0.453641,-2.62043,0
40230,-1.41289,-0.454943,-2.60149,0
40250,-1.42242,-0.456033,-2.58279,0
40270,-1.43219,-0.458383,-2.56351,0
40290,-1.44183,-0.462584,-2.54271,0
40310,-1.45244,-0.466822,-2.52168,0
40330,-1.46354,-0.470861,-2.50066,0
40350,-1.47394,-0.475856,-2.47983,0
40370,-1.4846,-0.481436,-2.45805,0
40390,-1.49525,-0.487516,-2.43653,0
40410,-1.50632,-0.493581,-2.41518,0
40430,-1.51806,-0.500111,-2.39423,0
40450,-1.53124,-0.505889,-2.37318,0
40470,-1.54351,-0.510659,-2.3533,0
40490,-1.55403,-0.515487,-2.33575,0
40510,-1.56357,-0.520968,-2.31858,0
40530,-1.57192,-0.527986,-2.30197,0
40550,-1.58029,-0.534925,-2.28647,0
40570,-1.58812,-0.541475,-2.27281,0
40590,-1.59541,-0.548991,-2.25961,0
40610,-1.60203,-0.557352,-2.24665,0
40630,-1.60831,-0.565142,-2.23522,0
40650,-1.61449,-0.572612,-2.22537,0
40670,-1.62034,-0.581123,-2.21716,0
40690,-1.62547,-0.591939,-2.21001,0
40710,-1.63046,-0.601588,-2.20468,0
40730,-1.635,-0.61053,-2.19935,0
40750,-1.63851,-0.621852,-2.19505,0
40770,-1.64244,-0.634854,-2.19173,0
40790,-1.64609,-0.64694,-2.19003,0
40810,-1.64926,-0.658753,-2.19076,0
40830,-1.65232,-0.672174,-2.1924,0
40850,-1.65493,-0.686136,-2.19464,0
40870,-1.65605,-0.700908,-2.19935,0
40890,-1.65489,-0.715601,-2.20785,0
40910,-1.65024,-0.731213,-2.21998,0
40930,-1.6437,-0.747838,-2.23383,0
40950,-1.63646,-0.764292,-2.24927,0
40970,-1.62749,-0.780941,-2.26644,0
40990,-1.61612,-0.799707,-2.2863,0
41010,-1.60238,-0.818689,-2.30934,0
41030,-1.58861,-0.836672,-2.33419,0
41040,-1.57249,-0.855152,-2.36189,0
41060,-1.55395,-0.875155,-2.3915,0
41080,-1.53321,-0.894474,-2.42438,0
41100,-1.51069,-0.910907,-2.46144,0
41120,-1.48494,-0.926195,-2.50304,0
41140,-1.45535,-0.940945,-2.5473,0
41160,-1.42403,-0.955293,-2.59133,0
41180,-1.39104,-0.968249,-2.63665,0
41200,-1.35567,-0.979407,-2.68478,0
41220,-1.31746,-0.987601,-2.73456,0
41240,-1.27907,-0.993191,-2.78248,0
41260,-1.24116,-0.996452,-2.8289,0
41280,-1.2036,-0.997164,-2.8743,0
41300,-1.16807,-0.996309,-2.91697,0
41320,-1.13466,-0.994019,-2.95621,0
41330,-1.10308,-0.989098,-2.99383,0
41350,-1.07471,-0.981483,-3.02862,0
41370,-1.05109,-0.971317,-3.0562,0
41390,-1.02949,-0.959897,-3.07934,0
41410,-1.00903,-0.947637,-3.10072,0
41430,-0.991827,-0.934405,-3.1188,0
41450,-0.974397,-0.917663,-3.13667,0
41470,-0.959429,-0.897359,3.13235,0
41490,-0.946719,-0.878462,3.12246,0
41510,-0.937602,-0.860109,3.11626,0
41530,-0.931254,-0.839981,3.11343,0
41550,-0.926076,-0.820629,3.11489,0
41570,-0.926347,-0.803728,3.12055,0
41590,-0.93127,-0.787726,3.12868,0
41610,-0.939642,-0.77109,3.13967,0
41630,-0.950049,-0.75638,-3.13058,0
41650,-0.962004,-0.743474,-3.11737,0
41670,-0.97433,-0.731293,-3.10436,0
41690,-0.987683,-0.720087,-3.08899,0
41710,-1.00342,-0.710227,-3.07186,0
41730,-1.01888,-0.701774,-3.05408,0
41750,-1.03383,-0.69267,-3.03548,0
41750,-1.03383,-0.69267,-3.03548,0
41760,-0.926347,-0.803728,3.12055,0
41790,-1.05038,-0.684078,-3.0157,0
41810,-1.06786,-0.677184,-2.99445,0
41830,-1.08495,-0.670738,-2.97277,0
41850,-1.10072,-0.663724,-2.95124,0
41870,-1.11806,-0.657077,-2.92874,0
41890,-1.13542,-0.651851,-2.90554,0
41910,-1.15096,-0.647064,-2.88258,0
41930,-1.16621,-0.642822,-2.85922,0
41950,-1.18233,-0.640368,-2.83522,0
41970,-1.19748,-0.638783,-2.8113,0
41990,-1.21228,-0.635782,-2.78738,0
42010,-1.22854,-0.63273,-2.76296,0
42030,-1.24511,-0.630763,-2.73879,0
42050,-1.26237,-0.628523,-2.71513,0
42070,-1.28094,-0.625778,-2.69088,0
42090,-1.30136,-0.622592,-2.66576,0
42110,-1.32245,-0.620237,-2.64061,0
42130,-1.34419,-0.618089,-2.61625,0
42150,-1.3679,-0.61564,-2.59089,0
42170,-1.39276,-0.613187,-2.56589,0
42190,-1.41722,-0.611611,-2.54199,0
42210,-1.44077,-0.610788,-2.51916,0
42230,-1.46274,-0.610033,-2.4967,0
42250,-1.48249,-0.610168,-2.47488,0
42270,-1.49985,-0.612551,-2.45402,0
42290,-1.51499,-0.61687,-2.43404,0
42310,-1.52921,-0.624015,-2.41417,0
42330,-1.54363,-0.633606,-2.39524,0
42350,-1.55754,-0.644182,-2.37802,0
42370,-1.57035,-0.656223,-2.36201,0
42390,-1.58133,-0.669683,-2.34542,0
42410,-1.59097,-0.685289,-2.33002,0
42430,-1.59864,-0.702132,-2.31806,0
42450,-1.60488,-0.719428,-2.31017,0
42470,-1.6111,-0.735924,-2.30104,0
42490,-1.61772,-0.753144,-2.29148,0
42510,-1.62306,-0.771612,-2.28565,0
42530,-1.62685,-0.791751,-2.28343,0
42550,-1.63139,-0.812543,-2.27952,0
42570,-1.63711,-0.834057,-2.27568,0
42590,-1.64297,-0.857268,-2.27419,0
42610,-1.64785,-0.881241,-2.2756,0
42630,-1.65192,-0.90465,-2.27821,0
42650,-1.65392,-0.927566,-2.28375,0
42670,-1.65127,-0.949626,-2.29457,0
42690,-1.64585,-0.971709,-2.30985,0
42710,-1.63712,-0.992647,-2.32949,0
42730,-1.62364,-1.01145,-2.35442,0
42750,-1.60593,-1.02855,-2.38433,0
42750,-1.58372,-1.04413,-2.41902,0
42770,-1.5278,-1.072,-2.50113,0
42790,-1.49347,-1.08294,-2.54678,0
42810,-1.45794,-1.09288,-2.59315,0
42830,-1.41986,-1.1015,-2.64186,0
42850,-1.37866,-1.10889,-2.69332,0
42870,-1.33777,-1.11457,-2.74373,0
42890,-1.30049,-1.11828,-2.7904,0
42910,-1.26313,-1.1194,-2.83731,0
42930,-1.22519,-1.11756,-2.88388,0
42950,-1.19012,-1.11291,-2.92902,0
42970,-1.16055,-1.10218,-2.97195,0
42990,-1.13598,-1.0864,-3.0095,0
43010,-1.11511,-1.06859,-3.03927,0
43030,-1.0983,-1.05112,-3.06314,0
43050,-1.08596,-1.03394,-3.08171,0
43070,-1.07643,-1.0152,-3.0964,0
43090,-1.0716,-0.995987,-3.10762,0
43110,-1.07191,-0.977808,-3.11453,0
43130,-1.07709,-0.959865,-3.11784,0
43150,-1.0864,-0.942082,-3.11786,0
43170,-1.09757,-0.924451,-3.11433,0
43190,-1.10874,-0.907216,-3.11001,0
43210,-1.11876,-0.89125,-3.10682,0
43230,-1.13119,-0.874941,-3.10235,0
43240,-1.14449,-0.858017,-3.09621,0
43270,-1.15603,-0.841825,-3.08941,0
43290,-1.16633,-0.82697,-3.0812,0
43310,-1.17549,-0.814136,-3.07226,0
43320,-1.18394,-0.80202,-3.0627,0
43340,-1.19327,-0.790004,-3.05289,0
43360,-1.20349,-0.778708,-3.04213,0
43380,-1.21426,-0.768472,-3.02936,0
43400,-1.22477,-0.759006,-3.015,0
43420,-1.23476,-0.750526,-3.00034,0
43440,-1.24608,-0.742127,-2.98471,0
43460,-1.26036,-0.734583,-2.96695,0
43480,-1.2756,-0.727646,-2.94783,0
43500,-1.29125,-0.720691,-2.92783,0
43520,-1.30755,-0.714388,-2.90623,0
43540,-1.32593,-0.709052,-2.88249,0
43560,-1.34446,-0.703755,-2.85836,0
43580,-1.36371,-0.698592,-2.83342,0
43600,-1.38559,-0.693932,-2.80584,0
43620,-1.40922,-0.689088,-2.77638,0
43640,-1.43384,-0.684036,-2.74637,0
43660,-1.46176,-0.679658,-2.7148,0
43680,-1.49365,-0.67535,-2.68102,0
43700,-1.52781,-0.671523,-2.64767,0
43720,-1.56238,-0.667951,-2.61477,0
43740,-1.59669,-0.664719,-2.58157,0
43760,-1.6288,-0.662029,-2.54834,0
43780,-1.65902,-0.660727,-2.51505,0
43800,-1.68705,-0.661527,-2.48231,0
43820,-1.71391,-0.663473,-2.45155,0
43840,-1.74037,-0.66601,-2.42145,0
43860,-1.76554,-0.668581,-2.39189,0
43880,-1.78892,-0.672464,-2.36269,0
43900,-1.80921,-0.678884,-2.33493,0
43920,-1.82857,-0.687959,-2.30787,0
43940,-1.84652,-0.698479,-2.28231,0
43960,-1.86127,-0.709456,-2.26029,0
43980,-1.87335,-0.720879,-2.23969,0
44000,-1.88364,-0.734168,-2.21816,0
44020,-1.89424,-0.749703,-2.19556,0
44040,-1.90378,-0.766244,-2.1751,0
44060,-1.91238,-0.781819,-2.15596,0
44080,-1.92194,-0.797799,-2.13597,0
44100,-1.93458,-0.815137,-2.1131,0
44120,-1.94439,-0.832941,-2.09626,0
44140,-1.95273,-0.848851,-2.08207,0
44160,-1.96025,-0.864618,-2.06886,0
44180,-1.96917,-0.880291,-2.05412,0
44200,-1.97845,-0.895819,-2.04024,0
44220,-1.98617,-0.910044,-2.02901,0
44240,-1.99264,-0.921994,-2.02026,0
44260,-1.99908,-0.932631,-2.01091,0
44280,-2.00667,-0.942469,-2.00192,2001
44300,-2.0149,-0.949934,-1.99342,0
44320,-2.02151,-0.955788,-1.98787,0
44340,-2.02579,-0.959839,-1.98532,0
44360,-2.02998,-0.962172,-1.98361,0
44380,-2.03371,-0.963311,-1.98321,0
44400,-2.03518,-0.962441,-1.9859,0
44420,-2.03383,-0.960878,-1.99072,0
44440,-2.03281,-0.959758,-1.99465,0
44460,-2.03071,-0.958655,-1.99863,0
44480,-2.02749,-0.957693,-2.0029,0
44500,-2.02424,-0.956622,-2.00625,0
44520,-2.02059,-0.955769,-2.01004,0
44540,-2.01748,-0.955041,-2.01349,0
44560,-2.01367,-0.954291,-2.01822,0
44580,-2.00976,-0.95285,-2.02395,0
44600,-2.00547,-0.95055,-2.03177,0
44620,-1.99914,-0.945684,-2.04096,0
44640,-1.98879,-0.938282,-2.05291,0
44660,-1.97702,-0.929082,-2.06599,0
44680,-1.96509,-0.919499,-2.08089,0
44700,-1.95266,-0.909543,-2.09741,0
44720,-1.93809,-0.897931,-2.11611,0
44740,-1.92022,-0.883512,-2.13712,0
44760,-1.90517,-0.865951,-2.15787,0
44780,-1.88948,-0.846855,-2.17881,0
44800,-1.86821,-0.825222,-2.20149,0
44820,-1.84844,-0.799709,-2.22266,0
44840,-1.80089,-0.720574,-2.28485,0
44860,-1.78539,-0.690599,-2.30207,0
44880,-1.76991,-0.660624,-2.31693,0
44900,-1.75251,-0.633761,-2.32958,0
44920,-1.73374,-0.608582,-2.34136,0
44940,-1.71664,-0.58259,-2.35108,0
44960,-1.70042,-0.557322,-2.36103,0
44980,-1.68517,-0.535266,-2.37055,0
45000,-1.66859,-0.515414,-2.37836,0
45020,-1.65295,-0.495505,-2.38333,0
45040,-1.63871,-0.477282,-2.38631,0
45060,-1.62476,-0.462726,-2.3881,0
45080,-1.61151,-0.450132,-2.38751,0
45100,-1.60197,-0.435874,-2.38369,0
45120,-1.59469,-0.421401,-2.37855,0
45140,-1.58662,-0.409634,-2.37383,0
45160,-1.57908,-0.399652,-2.36944,0
45180,-1.57361,-0.390224,-2.36501,0
45200,-1.56862,-0.380801,-2.36104,0
45220,-1.56441,-0.371829,-2.35743,0
45240,-1.56068,-0.364225,-2.35465,0
45260,-1.55714,-0.357477,-2.35208,0
45280,-1.55272,-0.35245,-2.34991,0
45300,-1.54809,-0.348993,-2.34716,0
45320,-1.54421,-0.346673,-2.34395,0
45340,-1.54133,-0.344389,-2.33954,2000
45360,-1.53845,-0.343484,-2.3352,0
45380,-1.5351,-0.344255,-2.33186,0
45400,-1.53366,-0.345625,-2.32826,0
45420,-1.53321,-0.34529,-2.32401,0
45440,-1.53182,-0.344859,-2.32104,0
45460,-1.53011,-0.346231,-2.32047,0
45480,-1.5268,-0.347127,-2.31972,0
45500,-1.52362,-0.347429,-2.31892,0
45520,-1.52167,-0.348074,-2.31828,0
45540,-1.52221,-0.349329,-2.31835,0
45560,-1.5242,-0.349545,-2.31743,0
45580,-1.52566,-0.349641,-2.31656,0
45600,-1.5265,-0.349878,-2.31551,0
45620,-1.52836,-0.349149,-2.31421,0
45640,-1.53089,-0.347533,-2.31183,0
45660,-1.5332,-0.345932,-2.30981,0
45680,-1.53596,-0.344889,-2.30917,0
45700,-1.53938,-0.342813,-2.30785,0
45720,-1.54131,-0.339097,-2.30624,0
45740,-1.54143,-0.336134,-2.30623,0
45760,-1.54045,-0.334048,-2.30649,0
45780,-1.54003,-0.330677,-2.30478,0
45800,-1.53978,-0.326297,-2.3027,0
45820,-1.53777,-0.323315,-2.30164,0
45840,-1.53564,-0.322865,-2.29968,0
45860,-1.53594,-0.322407,-2.29547,0
45880,-1.53721,-0.321577,-2.2902,0
45900,-1.53813,-0.321939,-2.28452,0
45920,-1.53886,-0.323184,-2.27946,0
45940,-1.54067,-0.324088,-2.27318,0
45960,-1.54338,-0.3249,-2.26495,0
45980,-1.54448,-0.32717,-2.25826,0
46000,-1.54643,-0.330223,-2.25172,0
46020,-1.5499,-0.332839,-2.2436,0
46040,-1.55303,-0.335635,-2.2358,0
46060,-1.55574,-0.340493,-2.22822,0
46080,-1.5598,-0.346192,-2.22082,0
46100,-1.56503,-0.351874,-2.214,0
46120,-1.56995,-0.357346,-2.20776,0
46140,-1.57481,-0.363518,-2.20134,0
46160,-1.5802,-0.369961,-2.19625,0
46180,-1.58625,-0.376334,-2.19208,0
46200,-1.59085,-0.383377,-2.18946,0
46220,-1.59431,-0.391768,-2.1864,0
46240,-1.5975,-0.400788,-2.18454,0
46260,-1.60141,-0.410248,-2.18332,0
46280,-1.60568,-0.420434,-2.18277,0
46300,-1.60891,-0.430416,-2.18318,0
46320,-1.61071,-0.440518,-2.18565,0
46340,-1.6124,-0.450151,-2.18897,0
46360,-1.613,-0.460329,-2.19306,0
46380,-1.61267,-0.471334,-2.19828,0
46400,-1.61183,-0.482415,-2.20572,0
46420,-1.61163,-0.493532,-2.21361,0
46440,-1.61072,-0.505408,-2.22218,0
46460,-1.60837,-0.517904,-2.23189,0
46480,-1.60523,-0.531032,-2.24355,0
46500,-1.60307,-0.544114,-2.25628,0
46520,-1.60076,-0.556865,-2.27046,0
46540,-1.59673,-0.569763,-2.28665,0
46560,-1.59168,-0.582569,-2.30409,0
46580,-1.58666,-0.594932,-2.32213,0
46600,-1.58121,-0.607852,-2.34201,0
46620,-1.57476,-0.620699,-2.3637,0
46640,-1.56733,-0.63294,-2.38702,0
46660,-1.56,-0.645027,-2.41059,0
46680,-1.55261,-0.657782,-2.43534,0
46700,-1.54358,-0.670705,-2.46286,0
46720,-1.53274,-0.683761,-2.49214,0
46740,-1.52155,-0.696931,-2.52186,0
46760,-1.51029,-0.709903,-2.55126,0
46770,-1.49729,-0.723565,-2.58254,0
46790,-1.48237,-0.737244,-2.61622,0
46810,-1.46609,-0.750689,-2.65144,0
46830,-1.44948,-0.763437,-2.68619,0
46850,-1.43181,-0.775954,-2.72046,0
46870,-1.41304,-0.787956,-2.7558,0
46890,-1.39338,-0.798642,-2.79241,0
46910,-1.37335,-0.808083,-2.82814,0
46950,-1.33074,-0.823398,-2.89888,0
46970,-1.30876,-0.829728,-2.93425,0
46990,-1.286,-0.834665,-2.96968,0
47010,-1.26235,-0.838812,-3.00368,0
47030,-1.23849,-0.84106,-3.03652,0
47050,-1.21361,-0.840329,-3.06995,0
47070,-1.18772,-0.838089,-3.10288,0
47090,-1.1627,-0.834355,-3.13279,0
47110,-1.14054,-0.827577,3.12432,0
47130,-1.12091,-0.818477,3.10111,0
47150,-1.10318,-0.808394,3.08046,0
47170,-1.08728,-0.79813,3.06246,0
47190,-1.075,-0.787572,3.04937,0
47210,-1.06529,-0.776057,3.0399,0
47230,-1.05786,-0.76479,3.03276,0
47250,-1.05175,-0.754444,3.02878,0
47270,-1.04841,-0.74434,3.0286,0
47290,-1.04753,-0.732615,3.03258,0
47310,-1.04691,-0.721511,3.03742,0
47330,-1.04798,-0.711203,3.04373,0
47350,-1.05239,-0.700718,3.05281,0
47370,-1.05946,-0.68968,3.06437,0
47390,-1.06415,-0.680537,3.07536,0
47410,-1.06873,-0.672182,3.0849,0
47430,-1.07352,-0.663327,3.09552,0
47450,-1.07991,-0.654921,3.10843,0
47470,-1.08579,-0.646546,3.12063,0
47490,-1.09261,-0.638171,3.13257,0
47510,-1.09853,-0.629637,-3.13838,0
47530,-1.10512,-0.620583,-3.12449,0
47550,-1.11291,-0.611888,-3.11073,0
47570,-1.12154,-0.602802,-3.09707,0
47590,-1.13001,-0.593265,-3.08294,0
47610,-1.13886,-0.583189,-3.06857,0
47630,-1.14774,-0.573746,-3.05377,0
47650,-1.15695,-0.565023,-3.03835,0
47670,-1.16628,-0.556238,-3.02236,0
47690,-1.17609,-0.547639,-3.00589,0
47710,-1.186,-0.540045,-2.98979,0
47730,-1.19525,-0.533574,-2.97365,0
47750,-1.20484,-0.527584,-2.95748,0
47770,-1.2141,-0.521591,-2.94182,0
47790,-1.2228,-0.51599,-2.92634,0
47810,-1.23031,-0.51027,-2.91032,0
47830,-1.23815,-0.504891,-2.89448,0
47850,-1.24645,-0.500833,-2.87862,0
47870,-1.25555,-0.496959,-2.86292,0
47890,-1.26519,-0.492291,-2.84716,0
47910,-1.27466,-0.487867,-2.83108,0
47930,-1.28273,-0.484695,-2.81446,0
47950,-1.29119,-0.482183,-2.79735,0
47970,-1.30131,-0.479325,-2.78012,0
47990,-1.31412,-0.476422,-2.76216,0
48010,-1.32878,-0.473831,-2.74337,0
48030,-1.34418,-0.470622,-2.72366,0
48050,-1.35874,-0.467671,-2.70436,0
48070,-1.37234,-0.467136,-2.68593,0
48090,-1.38573,-0.467467,-2.66704,0
48110,-1.39841,-0.467796,-2.64806,0
48130,-1.41109,-0.468082,-2.62876,0
48150,-1.42367,-0.469487,-2.60877,0
48170,-1.43605,-0.472433,-2.58812,0
48190,-1.44929,-0.47497,-2.56698,0
48210,-1.46299,-0.477728,-2.54534,0
48230,-1.47619,-0.481917,-2.52383,0
48250,-1.4882,-0.487952,-2.5017,0
48270,-1.49876,-0.494351,-2.47989,0
48290,-1.50982,-0.500796,-2.45853,0
48310,-1.52073,-0.508262,-2.43796,0
48330,-1.53188,-0.516089,-2.41591,0
48350,-1.54296,-0.524256,-2.39445,0
48370,-1.55447,-0.532502,-2.37364,0
48390,-1.56534,-0.541027,-2.35369,0
48410,-1.5767,-0.549537,-2.33492,0
48430,-1.58769,-0.557608,-2.31656,0
48450,-1.59911,-0.566317,-2.29874,0
48470,-1.609,-0.575645,-2.2832,0
48490,-1.61689,-0.586004,-2.26944,0
48510,-1.62372,-0.596782,-2.25747,0
48530,-1.63123,-0.607679,-2.24572,0
48550,-1.63841,-0.620035,-2.23562,0
48570,-1.64483,-0.632438,-2.22861,0
48590,-1.65029,-0.644231,-2.22279,0
48610,-1.65475,-0.656367,-2.21802,0
48630,-1.65868,-0.669618,-2.21433,0
48650,-1.66071,-0.684412,-2.21277,0
48670,-1.66131,-0.69979,-2.21438,0
48690,-1.66301,-0.714641,-2.21712,0
48710,-1.66599,-0.729354,-2.22056,0
48730,-1.66785,-0.744905,-2.22502,0
48750,-1.66795,-0.762233,-2.23024,0
48770,-1.66768,-0.78017,-2.23702,0
48780,-1.66761,-0.798598,-2.2465,0
48800,-1.66608,-0.818343,-2.25889,0
48820,-1.66257,-0.838861,-2.27366,0
48840,-1.65737,-0.860006,-2.29198,0
48860,-1.64948,-0.8819,-2.31356,0
48880,-1.63827,-0.904548,-2.3389,0
48900,-1.62326,-0.927849,-2.36802,0
48920,-1.6038,-0.950022,-2.40221,0
48940,-1.58066,-0.97074,-2.44092,0
48960,-1.55538,-0.990417,-2.48141,0
48980,-1.52555,-1.00948,-2.5262,0
49000,-1.49163,-1.02547,-2.57487,0
49020,-1.45367,-1.0381,-2.6284,0
49040,-1.41024,-1.04855,-2.68586,0
49060,-1.36409,-1.05687,-2.7453,0
49080,-1.3141,-1.06261,-2.80664,0
49100,-1.26051,-1.06496,-2.87082,0
49120,-1.20758,-1.06583,-2.93325,0
49140,-1.15696,-1.06427,-2.99106,0
49160,-1.10755,-1.05804,-3.04633,0
49180,-1.06165,-1.04879,-3.09665,0
49200,-1.0207,-1.03824,-3.13998,0
49220,-0.988104,-1.02745,3.10894,0
49240,-0.962105,-1.01636,3.0824,0
49260,-0.93876,-1.00366,3.0592,0
49280,-0.92043,-0.989654,3.04074,0
49300,-0.909266,-0.975065,3.02939,0
49320,-0.904337,-0.961228,3.0248,0
49340,-0.899832,-0.946802,3.02169,0
49360,-0.898803,-0.932001,3.02244,0
49380,-0.898034,-0.916711,3.02414,0
49400,-0.900657,-0.902457,3.02937,0
49420,-0.906356,-0.888792,3.03783,0
49440,-0.912552,-0.874477,3.04766,0
49460,-0.9189,-0.860299,3.05963,0
49480,-0.925097,-0.848278,3.07161,0
49500,-0.933128,-0.837059,3.08471,0
49520,-0.9425,-0.824589,3.09866,0
49540,-0.952033,-0.812433,3.11275,0
49560,-0.963013,-0.801164,3.12805,0
49580,-0.975495,-0.790937,-3.13895,0
49600,-0.989009,-0.780807,-3.12181,0
49620,-1.00246,-0.771565,-3.10365,0
49640,-1.01456,-0.763365,-3.08584,0
49660,-1.02782,-0.756326,-3.0676,0
49680,-1.04282,-0.749163,-3.04896,0
49700,-1.05876,-0.742114,-3.02936,0
49720,-1.0747,-0.734811,-3.00954,0
49740,-1.09157,-0.728432,-2.98887,0
49760,-1.10792,-0.722243,-2.96813,0
49780,-1.12394,-0.716568,-2.9475,0
49800,-1.14095,-0.710697,-2.92605,0
49820,-1.15956,-0.70472,-2.90359,0
49830,-1.17818,-0.698786,-2.88051,0
49840,-1.19692,-0.692833,-2.85721,0
49870,-1.23749,-0.681512,-2.80813,0
49890,-1.25903,-0.675089,-2.78244,0
49900,-1.28005,-0.669888,-2.7573,0
49920,-1.30167,-0.664474,-2.7315,0
49940,-1.32473,-0.657551,-2.70517,0
49960,-1.34756,-0.650813,-2.6787,0
49980,-1.36888,-0.645718,-2.65253,0
50000,-1.38833,-0.641962,-2.62685,0
50020,-1.40826,-0.638786,-2.60093,0
50040,-1.42787,-0.637097,-2.57511,0
50060,-1.44543,-0.636973,-2.55088,0
50080,-1.46164,-0.637249,-2.52616,0
50100,-1.4776,-0.638627,-2.50034,0
50120,-1.49364,-0.642082,-2.47395,0
50140,-1.50991,-0.64641,-2.44882,0
50160,-1.528,-0.649635,-2.42447,0
50180,-1.54818,-0.652004,-2.3999,0
50200,-1.56723,-0.655039,-2.37605,0
50220,-1.5852,-0.658664,-2.35298,0
50240,-1.6016,-0.662833,-2.33052,0
50260,-1.6176,-0.667768,-2.30875,0
50280,-1.63297,-0.674746,-2.28862,0
50300,-1.64705,-0.683095,-2.26924,0
50320,-1.65908,-0.692185,-2.25192,0
50340,-1.67031,-0.701502,-2.23574,0
50360,-1.68133,-0.710732,-2.22036,0
50380,-1.69132,-0.720556,-2.20547,0
50400,-1.70079,-0.732068,-2.1913,0
50420,-1.71031,-0.745207,-2.17825,0
50440,-1.72073,-0.759182,-2.16782,0
50450,-1.73121,-0.772979,-2.15912,0
50470,-1.74228,-0.788841,-2.15047,0
50490,-1.75254,-0.806983,-2.14241,0
50510,-1.76163,-0.825705,-2.13632,0
50530,-1.76947,-0.844837,-2.13169,0
50550,-1.77798,-0.865593,-2.12639,0
50570,-1.78696,-0.887711,-2.1222,0
50590,-1.79336,-0.910031,-2.1226,0
50610,-1.79684,-0.932755,-2.12604,0
50630,-1.79968,-0.95719,-2.12978,0
50650,-1.79923,-0.982692,-2.13846,0
50670,-1.79353,-1.00788,-2.15278,0
50690,-1.78471,-1.03392,-2.16838,0
50710,-1.77479,-1.06038,-2.18503,0
50730,-1.76206,-1.0861,-2.20725,0
50750,-1.74485,-1.11051,-2.23531,0
50770,-1.7216,-1.13366,-2.26863,0
50790,-1.69357,-1.15563,-2.30631,0
50810,-1.65869,-1.17669,-2.35146,0
50830,-1.61348,-1.19596,-2.40623,0
50850,-1.56365,-1.21332,-2.46526,0
50870,-1.50617,-1.2278,-2.53334,0
50890,-1.43957,-1.23773,-2.61245,0
50910,-1.36569,-1.24214,-2.6979,0
50930,-1.29391,-1.24426,-2.78016,0
50950,-1.22655,-1.24448,-2.85697,0
50970,-1.1595,-1.24092,-2.93332,0
50990,-1.10041,-1.23288,-3.0022,0
51010,-1.05092,-1.2213,-3.0623,0
51030,-1.00852,-1.20837,-3.11367,0
51050,-0.972835,-1.19543,3.12647,0
51070,-0.945213,-1.18055,3.09204,0
51090,-0.929547,-1.1633,3.06739,0
51110,-0.919467,-1.1445,3.04919,0
51130,-0.917648,-1.12639,3.04017,0
51150,-0.920582,-1.10907,3.03584,0
51170,-0.925727,-1.09226,3.0333,0
51190,-0.934186,-1.07469,3.03316,0
51210,-0.949086,-1.05623,3.03654,0
51230,-0.968153,-1.03724,3.04364,0
51250,-0.985407,-1.01855,3.05098,0
51270,-1.00129,-1.00109,3.05962,0
51290,-1.01929,-0.985149,3.07168,0
51310,-1.0369,-0.970073,3.08225,0
51330,-1.05541,-0.955402,3.09254,0
51350,-1.07666,-0.940986,3.10616,0
51370,-1.09925,-0.92809,3.12237,0
51390,-1.11967,-0.915554,3.13761,0
51410,-1.13793,-0.903677,-3.13191,0
51430,-1.15744,-0.891006,-3.11559,0
51450,-1.17788,-0.879635,-3.09692,0
51470,-1.19383,-0.869426,-3.08033,0
51490,-1.20906,-0.858026,-3.0639,0
51510,-1.22683,-0.845798,-3.04524,0
51530,-1.24575,-0.83366,-3.02372,0
51550,-1.2625,-0.822622,-3.00161,0
51570,-1.27889,-0.812482,-2.97837,0
51590,-1.29964,-0.802513,-2.9536,0
51610,-1.32407,-0.792816,-2.92811,0
51630,-1.34817,-0.78383,-2.90194,0
51650,-1.37156,-0.775689,-2.87421,0
51670,-1.39518,-0.768253,-2.84493,0
51690,-1.41972,-0.761117,-2.81546,0
51710,-1.44609,-0.753591,-2.78503,0
51730,-1.47581,-0.746381,-2.7524,0
51750,-1.50654,-0.74046,-2.71889,0
51770,-1.53793,-0.73542,-2.68625,0
51790,-1.57092,-0.730179,-2.65405,0
51810,-1.60556,-0.7246,-2.62147,0
51830,-1.63924,-0.719515,-2.58981,0
51850,-1.66925,-0.715537,-2.55987,0
51870,-1.69638,-0.713204,-2.53112,0
51890,-1.7205,-0.711845,-2.50313,0
51910,-1.74243,-0.711567,-2.47619,0
51930,-1.76311,-0.712493,-2.45029,0
51950,-1.78444,-0.713679,-2.42361,0
51970,-1.80486,-0.714969,-2.39823,0
51990,-1.82382,-0.717776,-2.37491,0
52010,-1.84066,-0.722999,-2.3528,0
52030,-1.85635,-0.729262,-2.33071,0
52050,-1.8705,-0.736753,-2.30911,0
52070,-1.88275,-0.746277,-2.28966,0
52090,-1.89339,-0.755575,-2.27074,0
52110,-1.9035,-0.764793,-2.25252,0
52130,-1.91303,-0.775394,-2.23485,0
52150,-1.92328,-0.786132,-2.2173,0
52170,-1.93285,-0.796811,-2.19985,0
52190,-1.94049,-0.808654,-2.18384,0
52210,-1.948,-0.822797,-2.16697,0
52220,-1.95712,-0.836972,-2.14893,0
52240,-1.96728,-0.851037,-2.13242,0
52260,-1.97804,-0.864756,-2.11745,0
52280,-1.98789,-0.878065,-2.10262,0
52300,-1.99769,-0.891015,-2.08806,0
52320,-2.00747,-0.903369,-2.07415,0
52340,-2.01623,-0.915955,-2.06213,0
52360,-2.02308,-0.927951,-2.05204,0
52380,-2.02916,-0.938446,-2.04415,0
52400,-2.03569,-0.948453,-2.03823,0
52420,-2.04149,-0.957672,-2.03462,2001
52440,-2.04663,-0.964988,-2.03101,0
52460,-2.05005,-0.971304,-2.02989,0
52480,-2.05135,-0.977509,-2.03068,0
52500,-2.04978,-0.984831,-2.03304,0
52520,-2.04805,-0.992185,-2.03504,0
52540,-2.04728,-0.997621,-2.03842,0
52560,-2.04649,-1.00105,-2.0428,0
52580,-2.04413,-1.00304,-2.0469,0
52600,-2.04148,-1.00403,-2.05073,0
52620,-2.04023,-1.0033,-2.0541,0
52640,-2.03998,-1.00206,-2.05782,0
52660,-2.03977,-1.00004,-2.06092,0
52680,-2.04038,-0.99703,-2.06203,0
52700,-2.04335,-0.99331,-2.06154,0
52720,-2.04543,-0.988945,-2.06288,0
52740,-2.04377,-0.984497,-2.06797,0
52760,-2.04101,-0.978971,-2.07357,0
52780,-2.03784,-0.970885,-2.07903,0
52800,-2.03406,-0.961124,-2.08554,0
52820,-2.02717,-0.952397,-2.09383,0
52840,-2.0174,-0.944012,-2.10338,0
52860,-2.00497,-0.934309,-2.1148,0
52880,-1.99264,-0.921107,-2.12876,0
52900,-1.97938,-0.904721,-2.14535,0
52920,-1.96317,-0.885662,-2.16288,0
52940,-1.94448,-0.862256,-2.18058,0
52960,-1.92656,-0.832884,-2.19778,0
52980,-1.91071,-0.80053,-2.21445,0
53000,-1.89396,-0.766097,-2.23033,0
53020,-1.87464,-0.731241,-2.24674,0
53040,-1.85209,-0.696193,-2.26634,0
53060,-1.83054,-0.661404,-2.28607,0
53080,-1.80472,-0.625291,-2.30422,0
53100,-1.77489,-0.591339,-2.32157,0
53120,-1.7435,-0.564604,-2.34153,0
53140,-1.71828,-0.541558,-2.35793,0
53160,-1.68988,-0.518261,-2.36924,0
53180,-1.66061,-0.495204,-2.38113,0
53200,-1.6347,-0.475084,-2.39408,0
53220,-1.60894,-0.45949,-2.40544,0
53240,-1.58416,-0.44602,-2.41353,0
53260,-1.56543,-0.430528,-2.41882,0
53280,-1.55214,-0.416722,-2.42209,0
53300,-1.53892,-0.407177,-2.42363,0
53320,-1.52699,-0.400811,-2.42414,0
53340,-1.51743,-0.394574,-2.42496,0
53360,-1.51079,-0.388918,-2.42551,0
53380,-1.5054,-0.383899,-2.42518,0
53400,-1.50079,-0.379517,-2.42346,0
53420,-1.49701,-0.374832,-2.42107,0
53440,-1.49364,-0.37138,-2.41881,0
53460,-1.49006,-0.369597,-2.41599,0
53480,-1.48628,-0.368834,-2.41291,0
53500,-1.48409,-0.368479,-2.40988,0
53520,-1.48339,-0.368983,-2.40645,0
53540,-1.48329,-0.369471,-2.40246,0
53560,-1.48382,-0.369013,-2.39934,0
53580,-1.48403,-0.367719,-2.39618,0
53600,-1.48454,-0.36609,-2.39216,0
53620,-1.486,-0.364656,-2.38818,0
53640,-1.48831,-0.362269,-2.38556,0
53660,-1.49091,-0.359166,-2.38395,0
53680,-1.49426,-0.356465,-2.38061,0
53700,-1.49808,-0.354724,-2.37805,0
53740,-1.50157,-0.350735,-2.37974,0
53760,-1.502,-0.350248,-2.37804,0
53780,-1.5024,-0.350989,-2.37409,0
53800,-1.50366,-0.351957,-2.37167,0
53820,-1.50529,-0.351877,-2.37018,0
53840,-1.50726,-0.351089,-2.36687,0
53860,-1.50949,-0.350443,-2.36366,0
53880,-1.51204,-0.350307,-2.36057,0
53900,-1.51505,-0.350372,-2.35729,0
53920,-1.51761,-0.349844,-2.35317,0
53940,-1.52006,-0.349068,-2.35012,0
53960,-1.5216,-0.34857,-2.34772,0
53980,-1.5232,-0.347557,-2.34496,0
54000,-1.52573,-0.345349,-2.34188,0
54020,-1.52792,-0.342958,-2.33962,0
54040,-1.52976,-0.34018,-2.33721,0
54060,-1.53151,-0.33705,-2.33401,0
54080,-1.5336,-0.335903,-2.33026,0
54100,-1.53592,-0.336189,-2.32605,0
54120,-1.53888,-0.336999,-2.32145,0
54140,-1.54215,-0.338797,-2.31737,0
54160,-1.54598,-0.341624,-2.31365,0
54180,-1.55029,-0.345016,-2.31131,0
54200,-1.55336,-0.349369,-2.31128,0
54220,-1.55536,-0.354131,-2.31312,0
54230,-1.55753,-0.358481,-2.31584,0
54250,-1.5601,-0.361339,-2.31888,0
54270,-1.56212,-0.364023,-2.3224,0
54290,-1.56287,-0.366131,-2.32721,0
54310,-1.56444,-0.367938,-2.33151,0
54330,-1.56884,-0.370585,-2.3345,0
54350,-1.57676,-0.373762,-2.33868,0
54370,-1.58614,-0.375352,-2.34339,0
54390,-1.59393,-0.377414,-2.34836,0
54410,-1.59901,-0.380265,-2.3535,0
54430,-1.6014,-0.38462,-2.36046,0
54450,-1.60153,-0.387995,-2.36988,0
54470,-1.60001,-0.387671,-2.37911,0
54490,-1.59826,-0.3864,-2.38762,0
54510,-1.59892,-0.386206,-2.39585,0
54530,-1.60085,-0.386997,-2.40345,0
54550,-1.60338,-0.387479,-2.40899,0
54570,-1.60511,-0.387292,-2.41213,0
54590,-1.60744,-0.387055,-2.41413,0
54610,-1.61072,-0.388664,-2.41526,0
54630,-1.61533,-0.390561,-2.41495,0
54650,-1.62029,-0.392239,-2.41343,0
54670,-1.62588,-0.394091,-2.41097,0
54690,-1.63264,-0.395615,-2.4075,0
54710,-1.63947,-0.395969,-2.4031,0
54730,-1.64611,-0.396339,-2.39845,0
54750,-1.65174,-0.398517,-2.39557,0
54770,-1.65476,-0.399574,-2.39297,0
54790,-1.65757,-0.398548,-2.38991,0
54810,-1.66154,-0.398641,-2.38848,0
54830,-1.66788,-0.400245,-2.38671,0
54850,-1.67618,-0.398801,-2.3828,0
54870,-1.68272,-0.396124,-2.37879,0
54890,-1.68577,-0.397199,-2.37659,0
54910,-1.68869,-0.39896,-2.37434,0
54930,-1.69337,-0.397602,-2.37209,0
54950,-1.69771,-0.395135,-2.36989,0
54970,-1.70141,-0.39443,-2.36832,0
54990,-1.70598,-0.393796,-2.36664,0
55010,-1.71028,-0.391757,-2.36412,0
55030,-1.71349,-0.389012,-2.36112,0
55050,-1.71673,-0.386924,-2.35788,0
55070,-1.72065,-0.384394,-2.35584,0
55090,-1.72401,-0.382559,-2.35508,0
55110,-1.72727,-0.3825,-2.35312,0
55130,-1.72958,-0.38226,-2.35011,0
55150,-1.73077,-0.382084,-2.34715,0
55170,-1.73265,-0.384447,-2.34422,0
55190,-1.73779,-0.388376,-2.34043,0
55210,-1.74561,-0.39054,-2.33647,0
55230,-1.75388,-0.391511,-2.33379,0
55250,-1.76144,-0.394638,-2.33126,0
55270,-1.76821,-0.400857,-2.32938,0
55290,-1.77805,-0.408119,-2.32623,0
55310,-1.78601,-0.416904,-2.32482,0
55330,-1.79235,-0.425542,-2.32577,0
55350,-1.79925,-0.43274,-2.3286,0
55370,-1.80786,-0.437508,-2.33336,0
55390,-1.81592,-0.440615,-2.33879,0
55410,-1.82272,-0.444423,-2.34333,0
55430,-1.82883,-0.450683,-2.34626,0
55450,-1.83513,-0.458808,-2.34925,0
55470,-1.83954,-0.46709,-2.3543,0
55490,-1.84151,-0.474049,-2.36282,0
55510,-1.83982,-0.476506,-2.37477,0
55530,-1.83516,-0.472112,-2.38802,0
55550,-1.82712,-0.465118,-2.40089,0
55570,-1.81838,-0.461359,-2.41398,0
55590,-1.80952,-0.460154,-2.42689,0
55610,-1.79781,-0.460886,-2.43906,0
55630,-1.78376,-0.463649,-2.44971,0
55650,-1.76687,-0.466023,-2.45738,0
55670,-1.75162,-0.467514,-2.46113,0
55690,-1.74084,-0.468022,-2.46203,0
55710,-1.73411,-0.467971,-2.46132,0
55730,-1.72955,-0.469065,-2.45969,0
55750,-1.72543,-0.471809,-2.45675,0
55770,-1.721,-0.47467,-2.45292,0
55790,-1.71799,-0.476931,-2.44775,0
55810,-1.71566,-0.47927,-2.44189,0
55830,-1.71537,-0.480956,-2.43547,0
55850,-1.71642,-0.482701,-2.42873,0
55870,-1.71763,-0.484198,-2.42217,0
55890,-1.71837,-0.485864,-2.41628,0
55910,-1.71882,-0.487924,-2.41068,0
55930,-1.71966,-0.490828,-2.40504,0
55950,-1.7192,-0.493931,-2.40084,0
55970,-1.71798,-0.496364,-2.39805,0
55990,-1.718,-0.498041,-2.39552,0
56010,-1.71861,-0.499364,-2.39289,0
56030,-1.71942,-0.500161,-2.39099,0
56050,-1.71988,-0.500034,-2.38957,0
56070,-1.72072,-0.498619,-2.38859,0
56090,-1.72212,-0.496603,-2.38769,0
56110,-1.7236,-0.494158,-2.38682,0
56130,-1.7262,-0.49097,-2.3846,0
56150,-1.73007,-0.488066,-2.38157,0
56170,-1.73452,-0.486054,-2.37885,0
56190,-1.73798,-0.485206,-2.37731,0
56210,-1.74047,-0.484978,-2.37645,0
56230,-1.74276,-0.484114,-2.37442,0
56250,-1.74486,-0.48381,-2.37146,0
56270,-1.74536,-0.484857,-2.36913,0
56290,-1.74536,-0.486854,-2.36696,0
56310,-1.74641,-0.489074,-2.3635,0
56330,-1.74696,-0.490511,-2.36116,0
56350,-1.74793,-0.490165,-2.35965,0
56370,-1.74837,-0.489144,-2.3583,0
56390,-1.74888,-0.488732,-2.3574,0
56410,-1.75097,-0.488457,-2.3563,0
56430,-1.75446,-0.486092,-2.35475,0
56450,-1.75798,-0.480616,-2.35251,0
56470,-1.76136,-0.477437,-2.35271,0
56490,-1.76487,-0.477129,-2.35344,0
56510,-1.76997,-0.474467,-2.35297,0
56530,-1.77318,-0.471074,-2.35414,0
56550,-1.77309,-0.47072,-2.35595,0
56570,-1.77404,-0.47087,-2.35641,0
56590,-1.77462,-0.469205,-2.35679,0
56610,-1.77361,-0.469233,-2.35749,0
56630,-1.77408,-0.471238,-2.35612,0
56650,-1.77604,-0.471712,-2.3542,0
56670,-1.77781,-0.47045,-2.35325,0
56690,-1.77909,-0.469551,-2.35307,0
56710,-1.78174,-0.46963,-2.35203,0
56730,-1.78547,-0.47041,-2.35095,0
56750,-1.78906,-0.470838,-2.34976,0
56770,-1.79243,-0.4717,-2.34843,0
56790,-1.79672,-0.47297,-2.34706,0
56810,-1.79973,-0.474433,-2.34659,0
56830,-1.80112,-0.476776,-2.34672,0
56850,-1.7998,-0.481814,-2.34827,0
56870,-1.79661,-0.489998,-2.35132,0
56890,-1.79314,-0.500612,-2.35542,0
56910,-1.78949,-0.51159,-2.35966,0
56930,-1.78573,-0.522243,-2.36355,0
56950,-1.78251,-0.533649,-2.36795,0
56970,-1.77848,-0.545277,-2.37218,0
56990,-1.77516,-0.554299,-2.3749,0
57010,-1.77256,-0.560066,-2.37648,0
57030,-1.77039,-0.564346,-2.37799,0
57050,-1.76882,-0.566895,-2.37973,0
57070,-1.77004,-0.566571,-2.38064,0
57090,-1.7737,-0.56499,-2.38152,0
57110,-1.77717,-0.56309,-2.38351,0
57130,-1.78008,-0.560643,-2.38666,0
57150,-1.7797,-0.556396,-2.38952,0
57170,-1.77658,-0.55077,-2.39321,0
57190,-1.77443,-0.545974,-2.39568,0
57210,-1.77191,-0.542825,-2.39957,0
57230,-1.76631,-0.54071,-2.40713,0
57250,-1.75706,-0.539103,-2.41733,0
57270,-1.74485,-0.537915,-2.43015,0
57290,-1.73119,-0.536534,-2.44297,0
57310,-1.71655,-0.53438,-2.45698,0
57330,-1.70189,-0.530719,-2.47133,0
57350,-1.68737,-0.527258,-2.48615,0
57370,-1.67432,-0.524999,-2.49968,0
57390,-1.663,-0.522974,-2.51233,0
57410,-1.6533,-0.520195,-2.52417,0
57430,-1.64374,-0.516445,-2.53474,0
57450,-1.63572,-0.511909,-2.54521,0
57470,-1.63002,-0.506068,-2.55522,0
57490,-1.62765,-0.499207,-2.56328,0
57510,-1.62668,-0.491876,-2.56996,0
57530,-1.62751,-0.485532,-2.57607,0
57550,-1.6279,-0.480741,-2.58295,0
57570,-1.62856,-0.47651,-2.59001,0
57590,-1.62926,-0.472407,-2.59648,0
57610,-1.63001,-0.46911,-2.6016,0
57630,-1.63035,-0.467985,-2.60555,0
57650,-1.62939,-0.467949,-2.60814,0
57670,-1.62772,-0.469079,-2.61054,0
57690,-1.62593,-0.47144,-2.61295,0
57700,-1.62328,-0.473787,-2.6149,0
57720,-1.61922,-0.47548,-2.61588,0
57740,-1.61296,-0.476497,-2.6167,0
57760,-1.60551,-0.476156,-2.61723,0
57780,-1.59789,-0.474834,-2.61753,0
57800,-1.59089,-0.473109,-2.61765,0
57820,-1.58444,-0.470993,-2.61738,0
57840,-1.57901,-0.467502,-2.61689,0
57860,-1.5743,-0.463598,-2.61559,0
57880,-1.57047,-0.459343,-2.61398,0
57900,-1.56702,-0.455353,-2.61178,0
57920,-1.56423,-0.452628,-2.60945,0
57940,-1.56188,-0.450368,-2.60711,0
57960,-1.55854,-0.448814,-2.60492,0
57980,-1.55389,-0.448203,-2.60326,0
58000,-1.54895,-0.448717,-2.60154,0
58020,-1.54422,-0.449799,-2.59957,0
58040,-1.54027,-0.451085,-2.59768,0
58060,-1.53597,-0.452571,-2.59633,0
58080,-1.53184,-0.454111,-2.59548,0
58100,-1.5282,-0.45535,-2.59478,0
58120,-1.52489,-0.456401,-2.59378,0
58140,-1.52258,-0.457368,-2.59286,0
58160,-1.521,-0.458356,-2.59219,0
58180,-1.52036,-0.458719,-2.59211,0
58200,-1.52081,-0.458405,-2.59258,0
58220,-1.52249,-0.458092,-2.59343,0
58240,-1.52411,-0.458122,-2.59396,0
58260,-1.52533,-0.458278,-2.5944,0
58280,-1.52685,-0.459121,-2.59415,0
58300,-1.52885,-0.46081,-2.59341,0
58320,-1.53176,-0.462845,-2.59151,0
58340,-1.53576,-0.464873,-2.58804,0
58360,-1.53994,-0.4675,-2.58374,0
58380,-1.54448,-0.470847,-2.57882,0
58400,-1.54989,-0.473958,-2.57262,0
58420,-1.55596,-0.477406,-2.56526,0
58440,-1.563,-0.481041,-2.55732,0
58460,-1.57117,-0.484214,-2.54851,0
58480,-1.58054,-0.486653,-2.53893,0
58500,-1.59074,-0.488524,-2.52897,0
58520,-1.60162,-0.489844,-2.51938,0
58540,-1.61218,-0.489963,-2.51005,0
58560,-1.62088,-0.489231,-2.50182,0
58580,-1.628,-0.488458,-2.49427,0
58600,-1.63363,-0.487371,-2.48758,0
58620,-1.63837,-0.486937,-2.48223,0
58640,-1.64261,-0.486426,-2.47829,0
58660,-1.64597,-0.485886,-2.47527,0
58680,-1.64744,-0.485515,-2.4733,0
58700,-1.64784,-0.485428,-2.47186,0
58720,-1.6474,-0.485558,-2.47057,0
58740,-1.64605,-0.48587,-2.46914,0
58760,-1.64427,-0.486438,-2.46813,0
58780,-1.64248,-0.486541,-2.4673,0
58800,-1.64058,-0.486213,-2.46624,0
58820,-1.63907,-0.485525,-2.46504,0
58840,-1.63817,-0.484252,-2.46384,0
58860,-1.63805,-0.482637,-2.46209,0
58880,-1.63783,-0.4806,-2.46078,0
58900,-1.63793,-0.478029,-2.45967,0
58920,-1.63838,-0.475282,-2.45835,0
58940,-1.6385,-0.472692,-2.4571,0
58960,-1.63818,-0.470875,-2.4562,0
58980,-1.63775,-0.46902,-2.45547,0
59000,-1.63737,-0.467529,-2.45469,0
59020,-1.63678,-0.466014,-2.45354,0
59040,-1.63658,-0.465151,-2.45279,0
59060,-1.63527,-0.464982,-2.45209,0
59080,-1.63385,-0.465783,-2.45062,0
59100,-1.63246,-0.466754,-2.449,0
59120,-1.63148,-0.467667,-2.44756,0
59140,-1.6314,-0.46855,-2.44577,0
59160,-1.63196,-0.469367,-2.44344,0
59180,-1.63178,-0.470463,-2.44204,0
59200,-1.63178,-0.47153,-2.44121,0
59220,-1.63243,-0.471847,-2.44041,0
59240,-1.63303,-0.471746,-2.43955,0
59260,-1.63358,-0.471968,-2.43882,2000
59280,-1.6338,-0.47218,-2.438,0
59300,-1.63522,-0.472085,-2.43674,0
59320,-1.63713,-0.471191,-2.43534,0
59340,-1.63948,-0.469874,-2.43338,0
59360,-1.64268,-0.467843,-2.43052,0
59380,-1.64688,-0.46469,-2.42788,0
59400,-1.65127,-0.461952,-2.42633,0
59420,-1.65531,-0.459247,-2.42417,0
59440,-1.66068,-0.455858,-2.42156,0
59460,-1.66606,-0.452046,-2.41978,0
59480,-1.66955,-0.449621,-2.41982,0
59500,-1.67193,-0.447701,-2.41978,0
59520,-1.67438,-0.445851,-2.42002,0
59540,-1.67734,-0.4449,-2.42087,0
59560,-1.67878,-0.44355,-2.42237,0
59580,-1.67828,-0.441208,-2.42373,0
59600,-1.67736,-0.440492,-2.42558,0
59620,-1.67758,-0.441415,-2.4264,0
59640,-1.67905,-0.440795,-2.42642,0
59660,-1.67892,-0.439268,-2.42796,0
59680,-1.67691,-0.439468,-2.43004,0
59700,-1.67648,-0.439561,-2.42931,0
59720,-1.67762,-0.436536,-2.42754,0
59730,-1.67819,-0.433301,-2.42749,0
59750,-1.67825,-0.433116,-2.42756,0
59770,-1.67893,-0.433703,-2.42596,0
59790,-1.68001,-0.433406,-2.42354,0
59810,-1.67959,-0.433418,-2.42175,0
59830,-1.6786,-0.436278,-2.41964,0
59850,-1.6802,-0.440463,-2.41634,0
59870,-1.68273,-0.443156,-2.41158,0
59890,-1.68609,-0.445151,-2.40639,0
59910,-1.68845,-0.449194,-2.40246,0
59930,-1.69155,-0.453813,-2.39788,0
59950,-1.69662,-0.457058,-2.39215,0
59970,-1.70309,-0.459637,-2.38657,0
59990,-1.7095,-0.463722,-2.38262,0
60010,-1.71667,-0.468746,-2.37872,0
60030,-1.72408,-0.473493,-2.37516,0
60050,-1.7312,-0.4792,-2.37128,0
60070,-1.73753,-0.486365,-2.36925,0
60090,-1.74396,-0.494316,-2.36881,0
60110,-1.75061,-0.502475,-2.36884,0
60130,-1.75639,-0.511576,-2.37004,0
60150,-1.76147,-0.520661,-2.37366,0
60170,-1.76601,-0.533385,-2.37916,0
60190,-1.7717,-0.545489,-2.38208,0
60210,-1.77635,-0.558157,-2.38551,0
60230,-1.77955,-0.571128,-2.39224,0
60250,-1.7832,-0.583324,-2.40071,0
60270,-1.78681,-0.595124,-2.40969,0
60290,-1.78844,-0.607672,-2.42155,0
60310,-1.79001,-0.62003,-2.43474,0
60330,-1.79088,-0.633318,-2.44939,0
60350,-1.78944,-0.647995,-2.46749,0
60370,-1.78535,-0.6632,-2.48931,0
60390,-1.78158,-0.676112,-2.51285,0
60410,-1.77609,-0.689272,-2.53914,0
60430,-1.76736,-0.704259,-2.56935,0
60450,-1.75816,-0.719286,-2.6016,0
60470,-1.74793,-0.733223,-2.63569,0
60490,-1.73605,-0.747844,-2.67114,0
60510,-1.72215,-0.763188,-2.70836,0
60530,-1.70716,-0.777919,-2.74729,0
60550,-1.69227,-0.791401,-2.7859,0
60570,-1.67542,-0.805035,-2.82602,0
60590,-1.65621,-0.818807,-2.86768,0
60610,-1.63839,-0.831325,-2.90737,0
60630,-1.62127,-0.842361,-2.94398,0
60650,-1.60217,-0.853397,-2.98081,0
60670,-1.58121,-0.8634,-3.01764,0
60690,-1.56168,-0.871129,-3.05231,0
60710,-1.54427,-0.874469,-3.08407,0
60730,-1.52627,-0.875299,-3.11558,0
60750,-1.50772,-0.874328,3.13745,0
60770,-1.49375,-0.870699,3.11408,0
60790,-1.48272,-0.864452,3.09569,0
60810,-1.47026,-0.854417,3.07668,0
60830,-1.45877,-0.842567,3.06141,0
60850,-1.4503,-0.830924,3.05106,0
60870,-1.44582,-0.818853,3.04578,0
60890,-1.4397,-0.804432,3.03931,0
60910,-1.43513,-0.786958,3.03405,0
60930,-1.43153,-0.770165,3.03156,0
60950,-1.42985,-0.754859,3.03222,0
60970,-1.43121,-0.739317,3.03537,0
60990,-1.43215,-0.723386,3.03801,0
61010,-1.43173,-0.707535,3.04099,0
61030,-1.43132,-0.69288,3.04554,0
61050,-1.43114,-0.678776,3.05074,0
61070,-1.42936,-0.664616,3.05638,0
61090,-1.42716,-0.652688,3.06421,0
61110,-1.42562,-0.642867,3.07301,0
61130,-1.427,-0.633486,3.08373,0
61150,-1.4296,-0.624227,3.09667,0
61170,-1.43122,-0.616404,3.11086,0
61190,-1.43304,-0.609122,3.12642,0
61210,-1.43514,-0.601882,-3.13983,0
61230,-1.43901,-0.595122,-3.12101,0
61250,-1.44437,-0.58852,-3.10144,0
61270,-1.4506,-0.581865,-3.0813,0
61290,-1.45604,-0.575493,-3.06085,0
61310,-1.46089,-0.569398,-3.03962,0
61330,-1.46631,-0.563377,-3.01844,0
61350,-1.47233,-0.557464,-2.99677,0
61370,-1.47926,-0.552186,-2.97381,0
61390,-1.48563,-0.547544,-2.95102,0
61410,-1.49186,-0.542616,-2.92864,0
61430,-1.49863,-0.538016,-2.90552,0
61450,-1.50607,-0.533207,-2.88158,0
61470,-1.51451,-0.528515,-2.8578,0
61490,-1.52444,-0.524044,-2.8339,0
61510,-1.53437,-0.519511,-2.80995,0
61530,-1.54334,-0.515062,-2.78673,0
61550,-1.55214,-0.511173,-2.76412,0
61570,-1.56129,-0.507946,-2.74018,0
61590,-1.57006,-0.506183,-2.71591,0
61610,-1.58009,-0.504263,-2.69194,0
61630,-1.59191,-0.502574,-2.66791,0
61650,-1.60434,-0.501655,-2.64332,0
61670,-1.61672,-0.500928,-2.61821,0
61690,-1.63053,-0.500212,-2.59275,0
61710,-1.64647,-0.499354,-2.56613,0
61730,-1.66349,-0.499544,-2.53845,0
61750,-1.68091,-0.500978,-2.5119,0
61770,-1.69746,-0.503631,-2.48703,0
61790,-1.71236,-0.507204,-2.46387,0
61810,-1.72592,-0.511819,-2.44134,0
61830,-1.7399,-0.518045,-2.41891,0
61850,-1.7536,-0.525288,-2.39774,0
61870,-1.76653,-0.53289,-2.37761,0
61890,-1.77733,-0.54135,-2.35843,0
61910,-1.7877,-0.551439,-2.34008,0
61930,-1.79849,-0.563193,-2.32245,0
61950,-1.81051,-0.576453,-2.30598,0
61970,-1.82237,-0.590798,-2.29026,0
62010,-1.84372,-0.620648,-2.26501,0
62030,-1.85506,-0.638362,-2.25537,0
62050,-1.86518,-0.65803,-2.24825,0
62070,-1.87344,-0.679372,-2.24537,0
62090,-1.88116,-0.702234,-2.24585,0
62110,-1.8876,-0.727332,-2.25079,0
62130,-1.89366,-0.754515,-2.25821,0
62150,-1.89874,-0.782302,-2.26845,0
62170,-1.90165,-0.810232,-2.28327,0
62190,-1.90229,-0.839578,-2.3028,0
62210,-1.90112,-0.869561,-2.32493,0
62230,-1.89703,-0.898905,-2.35097,0
62250,-1.88728,-0.927769,-2.38346,0
62270,-1.87144,-0.955528,-2.4217,0
62290,-1.85185,-0.980739,-2.46239,0
62310,-1.82727,-1.00401,-2.50654,0
62330,-1.79641,-1.0251,-2.55633,0
62350,-1.76048,-1.04374,-2.61128,0
62370,-1.72073,-1.05825,-2.66891,0
62390,-1.6754,-1.06887,-2.73107,0
62410,-1.62571,-1.07625,-2.79584,0
62430,-1.5747,-1.08132,-2.86066,0
62450,-1.52282,-1.08314,-2.92449,0
62470,-1.46843,-1.08045,-2.98879,0
62490,-1.41633,-1.0735,-3.04934,0
62510,-1.36914,-1.06412,-3.10324,0
62530,-1.32727,-1.05235,3.13357,0
62550,-1.29139,-1.03781,3.09657,0
62570,-1.2652,-1.02053,3.06913,0
62590,-1.24579,-1.00233,3.04985,0
62610,-1.23145,-0.984041,3.0373,0
62630,-1.22264,-0.965586,3.03105,0
62650,-1.22169,-0.94717,3.03253,0
62670,-1.22306,-0.92684,3.03557,0
62690,-1.23013,-0.904328,3.04203,0
62710,-1.23611,-0.88187,3.05166,0
62730,-1.24216,-0.861203,3.0632,0
62750,-1.24945,-0.843485,3.07702,0
62770,-1.25501,-0.826659,3.08997,0
62790,-1.26126,-0.809927,3.10431,0
62810,-1.26885,-0.793372,3.12014,0
62830,-1.27811,-0.778713,3.13698,0
62850,-1.28763,-0.765263,-3.12766,0
62870,-1.29711,-0.752196,-3.10685,0
62890,-1.30691,-0.739078,-3.08488,0
62910,-1.31779,-0.72753,-3.06209,0
62930,-1.32954,-0.717587,-3.03755,0
62950,-1.34205,-0.708363,-3.01128,0
62970,-1.35541,-0.700401,-2.98377,0
62990,-1.37077,-0.693171,-2.95534,0
63010,-1.3873,-0.685999,-2.92571,0
63030,-1.40609,-0.678923,-2.89474,0
63050,-1.42631,-0.672286,-2.8625,0
63070,-1.44793,-0.665928,-2.82953,0
63090,-1.47095,-0.658915,-2.79505,0
63110,-1.49506,-0.651909,-2.76078,0
63130,-1.52063,-0.64631,-2.72617,0
63150,-1.54738,-0.640812,-2.69176,0
63170,-1.57471,-0.635661,-2.65751,0
63190,-1.60181,-0.631252,-2.62401,0
63200,-1.62791,-0.628252,-2.59133,0
63220,-1.65399,-0.62663,-2.55905,0
63240,-1.67916,-0.625424,-2.52688,0
63260,-1.70335,-0.625226,-2.49575,0
63280,-1.72734,-0.626878,-2.46532,0
63300,-1.75122,-0.629991,-2.43475,0
63320,-1.77446,-0.634318,-2.40524,0
63340,-1.79713,-0.639809,-2.37792,0
63360,-1.81967,-0.646728,-2.3508,0
63380,-1.84233,-0.654662,-2.32418,0
63400,-1.86511,-0.663895,-2.29937,0
63420,-1.88608,-0.673814,-2.27585,0
63440,-1.90436,-0.685735,-2.25385,0
63460,-1.92141,-0.699454,-2.23414,0
63480,-1.93663,-0.714884,-2.2185,0
63500,-1.95062,-0.73205,-2.20544,0
63520,-1.97644,-0.772421,-2.18421,0
63540,-1.98842,-0.794394,-2.17708,0
63560,-1.9999,-0.81902,-2.17104,0
63580,-2.01126,-0.84611,-2.167,0
63600,-2.01967,-0.873957,-2.16872,0
63620,-2.02635,-0.902334,-2.17538,0
63640,-2.0326,-0.931508,-2.18295,0
63660,-2.03679,-0.961697,-2.19293,0
63680,-2.03694,-0.992137,-2.20716,0
63700,-2.03156,-1.02268,-2.22801,0
63720,-2.02135,-1.05212,-2.25577,0
63740,-2.00547,-1.07996,-2.28979,0
63760,-1.9787,-1.1057,-2.3333,0
63780,-1.94402,-1.1294,-2.38482,0
63800,-1.90176,-1.15044,-2.44342,0
63820,-1.84726,-1.16813,-2.5121,0
63840,-1.78228,-1.18159,-2.58831,0
63860,-1.71834,-1.19148,-2.66248,0
63880,-1.65416,-1.19708,-2.73655,0
63900,-1.58811,-1.1977,-2.81329,0
63920,-1.52258,-1.19162,-2.89127,0
63940,-1.4677,-1.18094,-2.95681,0
63960,-1.41931,-1.16732,-3.01239,0
63980,-1.37829,-1.15154,-3.0599,0
64000,-1.3452,-1.13503,-3.09937,0
64020,-1.31679,-1.11736,-3.13366,0
64040,-1.29043,-1.09841,3.11763,0
64060,-1.26802,-1.07793,3.09106,0
64080,-1.2515,-1.05766,3.07051,0
64100,-1.23855,-1.03856,3.05595,0
64120,-1.2277,-1.01864,3.04508,0
64140,-1.22557,-0.999468,3.04273,0
64160,-1.22585,-0.981208,3.04348,0
64180,-1.22704,-0.964841,3.04691,0
64200,-1.23047,-0.948566,3.0546,0
64220,-1.23783,-0.932101,3.06495,0
64240,-1.24796,-0.916569,3.07674,0
64260,-1.2585,-0.901706,3.09183,0
64280,-1.27231,-0.888144,3.11467,0
64300,-1.28418,-0.876008,3.1389,0
64320,-1.29591,-0.865395,-3.12051,0
64340,-1.31247,-0.85543,-3.09496,0
64360,-1.33554,-0.844031,-3.06719,0
64380,-1.36123,-0.832136,-3.0386,0
64400,-1.38527,-0.821219,-3.01038,0
64420,-1.40756,-0.810375,-2.98092,0
64440,-1.43035,-0.799061,-2.95069,0
64460,-1.45371,-0.788249,-2.92131,0
64480,-1.47736,-0.777327,-2.89171,0
64500,-1.50318,-0.766933,-2.86024,0
64520,-1.53029,-0.75789,-2.82728,0
64540,-1.55794,-0.750038,-2.79412,0
64560,-1.58626,-0.743709,-2.76094,0
64580,-1.61583,-0.738934,-2.72699,0
64600,-1.64592,-0.73591,-2.69209,0
64620,-1.67491,-0.735454,-2.65736,0
64640,-1.70304,-0.736984,-2.62192,0
64660,-1.73121,-0.739235,-2.58498,0
64680,-1.76026,-0.742619,-2.54592,0
64700,-1.78886,-0.748533,-2.50559,0
64720,-1.81725,-0.757844,-2.46509,0
64740,-1.84627,-0.768377,-2.42496,0
64760,-1.87437,-0.779074,-2.38717,0
64780,-1.90137,-0.791506,-2.35055,0
64800,-1.92761,-0.806346,-2.31346,0
64820,-1.95309,-0.823401,-2.27598,0
64840,-1.97486,-0.840661,-2.24179,0
64860,-1.9954,-0.858047,-2.20931,0
64880,-2.01778,-0.876339,-2.1757,0
64900,-2.03995,-0.894833,-2.14414,0
64920,-2.06019,-0.912034,-2.11704,0
64940,-2.07768,-0.928264,-2.09299,0
64960,-2.0961,-0.944191,-2.06978,0
64980,-2.11414,-0.959782,-2.04842,0
65000,-2.13011,-0.974644,-2.03164,2001
65020,-2.14383,-0.986578,-2.02027,0
65040,-2.15482,-0.995141,-2.01273,0
65060,-2.16322,-1.00266,-2.00851,0
65080,-2.16755,-1.00992,-2.00995,0
65100,-2.16718,-1.01433,-2.01656,0
65120,-2.16066,-1.01703,-2.02797,0
65140,-2.15303,-1.01825,-2.04099,0
65150,-2.14776,-1.01823,-2.05089,0
65180,-2.14356,-1.01695,-2.05924,0
65200,-2.1421,-1.01282,-2.0653,0
65210,-2.14318,-1.00733,-2.06837,0
65230,-2.14672,-1.00032,-2.06819,0
65250,-2.15314,-0.991706,-2.06636,0
65270,-2.15866,-0.981419,-2.06532,0
65290,-2.16288,-0.96877,-2.06563,0
65310,-2.1638,-0.954807,-2.06754,0
65330,-2.16238,-0.939193,-2.06981,0
65350,-2.15925,-0.921872,-2.07475,0
65370,-2.15424,-0.901142,-2.08357,0
65390,-2.14502,-0.876234,-2.09682,0
65410,-2.1317,-0.848017,-2.11437,0
65430,-2.11549,-0.816322,-2.13353,0
65450,-2.09636,-0.781408,-2.15428,0
65470,-2.07596,-0.745142,-2.17561,0
65490,-2.05299,-0.707539,-2.19588,0
65510,-2.02835,-0.66714,-2.21624,0
65530,-2.00399,-0.625564,-2.23602,0
65550,-1.97944,-0.586756,-2.25548,0
65570,-1.95377,-0.549576,-2.27483,0
65590,-1.92997,-0.512981,-2.29217,0
65610,-1.90885,-0.478421,-2.30776,0
65630,-1.88803,-0.451357,-2.32155,0
65650,-1.86896,-0.428802,-2.33419,0
65670,-1.85301,-0.409804,-2.34707,0
65690,-1.83561,-0.39315,-2.35913,0
65710,-1.81671,-0.377945,-2.371,0
65730,-1.79881,-0.364962,-2.38407,0
65750,-1.78254,-0.354321,-2.39967,0
65770,-1.76722,-0.343874,-2.4146,0
65790,-1.75118,-0.33434,-2.42733,0
65810,-1.73605,-0.327054,-2.43783,0
65830,-1.72298,-0.320809,-2.44493,0
65850,-1.71228,-0.315594,-2.45035,0
65870,-1.70236,-0.310881,-2.45494,0
65890,-1.69382,-0.307272,-2.45922,0
65910,-1.6877,-0.304595,-2.46307,0
65930,-1.68336,-0.301787,-2.46589,0
65950,-1.6792,-0.298858,-2.46795,0
65970,-1.67525,-0.295953,-2.46894,0
65990,-1.67184,-0.293314,-2.46876,0
66010,-1.66932,-0.291195,-2.46806,0
66030,-1.66916,-0.288766,-2.4668,0
66050,-1.67125,-0.284958,-2.46336,0
66070,-1.67525,-0.280523,-2.45926,0
66090,-1.67818,-0.276626,-2.456,0
66110,-1.68073,-0.274035,-2.45471,0
66130,-1.682,-0.271432,-2.45228,0
66150,-1.68369,-0.268484,-2.44872,0
66170,-1.68633,-0.265936,-2.4448,0
66190,-1.68867,-0.264498,-2.44214,0
66210,-1.68999,-0.262853,-2.43946,0
66230,-1.69096,-0.261591,-2.4368,0
66250,-1.69239,-0.260246,-2.43382,0
66270,-1.69464,-0.259063,-2.4313,0
66290,-1.69521,-0.257677,-2.42818,0
66310,-1.6958,-0.256666,-2.42432,0
66330,-1.69754,-0.2569,-2.42121,0
66350,-1.70063,-0.258635,-2.41846,0
66370,-1.70348,-0.258446,-2.41504,0
66390,-1.70556,-0.257792,-2.41091,0
66410,-1.70628,-0.260465,-2.40716,0
66430,-1.70876,-0.264228,-2.40159,0
66450,-1.71328,-0.26659,-2.39519,0
66470,-1.71744,-0.26905,-2.39067,0
66490,-1.7193,-0.272675,-2.38696,0
66510,-1.72285,-0.279997,-2.38342,0
66530,-1.72845,-0.285331,-2.37623,0
66550,-1.73586,-0.290245,-2.36906,0
66570,-1.74149,-0.298218,-2.3639,0
66590,-1.74597,-0.306482,-2.35852,0
66610,-1.75275,-0.313364,-2.3521,0
66630,-1.76094,-0.320212,-2.34755,0
66650,-1.76904,-0.329085,-2.34523,0
66670,-1.77644,-0.337558,-2.34373,0
66690,-1.78359,-0.343794,-2.34245,0
66700,-1.7899,-0.349075,-2.34394,0
66720,-1.79569,-0.357017,-2.3486,0
66750,-1.80878,-0.370888,-2.36426,0
66770,-1.81398,-0.377921,-2.3743,0
66790,-1.81775,-0.387161,-2.38706,0
66810,-1.82228,-0.398918,-2.40228,0
66830,-1.82676,-0.411439,-2.42022,0
66850,-1.82903,-0.423857,-2.43981,0
66870,-1.83001,-0.434836,-2.45963,0
66890,-1.8294,-0.445993,-2.47983,0
66910,-1.82709,-0.457427,-2.49644,0
66930,-1.82576,-0.469076,-2.50721,0
66950,-1.82764,-0.480147,-2.51539,0
66970,-1.83216,-0.490049,-2.523,0
66990,-1.83692,-0.498828,-2.53048,0
67010,-1.84038,-0.504655,-2.53563,0
67030,-1.84304,-0.508118,-2.5369,0
67050,-1.84453,-0.509129,-2.53705,0
67070,-1.84527,-0.506834,-2.53587,0
67090,-1.84589,-0.503305,-2.53337,0
67110,-1.84701,-0.499349,-2.52997,0
67130,-1.84753,-0.494533,-2.5251,0
67150,-1.84568,-0.487134,-2.51838,0
67170,-1.84171,-0.477028,-2.5116,0
67190,-1.83577,-0.464466,-2.50608,0
67210,-1.83196,-0.45225,-2.49973,0
67230,-1.83046,-0.443063,-2.49446,0
67250,-1.83083,-0.436713,-2.49077,0
67270,-1.8331,-0.430485,-2.48735,0
67290,-1.83533,-0.424534,-2.48395,0
67310,-1.83444,-0.420709,-2.48246,0
67330,-1.83017,-0.419235,-2.48259,0
67350,-1.82306,-0.418901,-2.48293,0
67370,-1.81889,-0.417766,-2.48227,0
67390,-1.81679,-0.415688,-2.48187,0
67410,-1.81575,-0.411982,-2.48144,0
