Timestamp, Rotation x, Rotation y, Rotation z, Marker
40,6,-6.8125,-5.875,0
60,8.5,-8.0625,-3.3125,0
80,7.8125,-6,-4.6875,0
100,7.375,-6.875,-4.9375,0
120,8,-8.6875,-4.875,0
140,7.5,-8.75,-6.5625,0
140,8.5,-7.25,-6.625,0
140,8.625,-4.875,-7.5,0
190,5.9375,-3.5625,-7.4375,0
210,5.5625,-4.4375,-5.4375,0
230,6.5625,-4.8125,-4.25,0
250,7.5625,-3.125,-5.3125,0
270,6.0625,-2.6875,-6.3125,0
290,7.75,-3.8125,-5.25,0
310,8.0625,-4.25,-4.625,0
330,7.8125,-4.8125,-4.6875,0
350,6.5625,-4.0625,-5.875,0
370,6.375,-2.3125,-6,0
390,7,-4.5,-6.125,0
410,10.5,-8.3125,-6.1875,0
430,12.4375,-9.125,-8.5,0
450,10.75,-6.3125,-8.0625,0
470,8.8125,-4.3125,-5.8125,0
490,8.4375,-6.1875,-3.625,0
510,6.1875,-6,-3.625,0
530,3.75,-5.1875,-1.75,0
550,3.875,-5.4375,0.125,0
570,2.6875,-6.5625,1.3125,0
590,-0.125,-7.6875,-1.0625,0
610,1.25,-7.9375,-0.4375,0
630,1.625,-8.875,-1.5,0
650,0.8125,-8.5625,-5.25,0
670,0.8125,-12.6875,-3.5625,0
690,6.25,-15.5,-1.0625,0
710,6.1875,-13.5625,-4.3125,0
730,5.625,-9.125,-5.4375,0
750,3.25,-9.25,-4,0
770,3.375,-6.9375,-2.375,0
790,2.5,-2.8125,-2,0
810,-0.5625,-1.125,-2.375,0
830,1.625,-1.5625,-3.1875,0
850,2.0625,-0.625,-4.6875,0
870,1.5,0,-7.375,0
890,1.1875,-1.5,-7.5625,0
910,4.6875,-3.9375,-8.8125,0
930,7.875,-4.125,-9.6875,0
950,4.375,0.625,-8.5625,0
970,-0.1875,1.6875,-7.6875,0
990,2.0625,1.8125,-6.625,0
1010,1.75,2.25,-6.5625,0
1030,0.125,1.9375,-5.125,0
1050,1.5,3.0625,-3.8125,0
1070,1.5,3.625,-3.9375,0
1080,1.8125,1.375,-1.6875,0
1100,-3.75,1.75,-0.25,0
1120,-6,4.4375,-1.1875,0
1140,-9.1875,8,0.5,0
1160,-6.4375,13.75,0.3125,0
1180,-9.1875,19.3125,-1.5,0
1200,-9.5625,24.875,-3.9375,0
1220,-8.3125,24.8125,-9.3125,0
1240,-6.4375,23.25,-11.875,0
1260,-4.125,21.1875,-12.25,0
1280,2.4375,17.25,-13.5625,0
1300,8.5,14.25,-13.0625,0
1320,3.6875,14.875,-12.5625,0
1340,0.3125,13.4375,-8.625,0
1360,0.375,8.9375,-3.1875,0
1380,2.75,3.4375,-0.75,0
1400,1.4375,1.1875,0.8125,0
1420,-0.3125,1.5,1.9375,0
1440,-2.3125,0.5,1.625,0
1460,-3.5625,1.6875,0.875,0
1480,-5.4375,4,0,0
1500,-9.25,4.25,-0.6875,0
1520,-12.0625,1.5,-2.875,0
1540,-20.5,4.5625,-2.9375,0
1560,-39.3125,12,1.625,0
1580,-58.625,28.1875,9.0625,0
1600,-78.5625,43,19.25,0
1620,-77.1875,53.4375,24.0625,0
1640,-76.25,66.3125,18.9375,0
1660,-79.25,80.9375,14.375,0
1680,-82.875,93.625,7.75,0
1700,-83.625,97.8125,2.0625,0
1720,-61.4375,87.75,-6.1875,0
1740,-33.5,67.6875,-7.6875,0
1760,-12.875,51,-3.0625,0
1780,-18.1875,40.3125,-8.1875,0
1800,-32.3125,33,-5.75,0
1820,-40.1875,23.625,-3.75,0
1840,-32.4375,12.875,-2.25,0
1860,-13.75,4.6875,-2.0625,0
1880,0.3125,0.5625,-2.4375,0
1900,0.3125,-4.3125,-2.4375,0
1920,1.5,-6.125,-1.3125,0
1940,5.5625,-6,-1.5,0
1960,6,-4.25,-2.25,0
1980,11,-3.5625,-0.875,0
2000,13.5,-2.9375,1.0625,0
2020,9.5625,-5.1875,-1.25,0
2040,6,-6.25,-2.8125,0
2060,5.1875,-6.3125,-0.75,0
2080,6.5,-7.0625,-1.375,0
2100,7,-10,-3.1875,0
2120,5.0625,-11.5,-2.6875,0
2140,3.375,-9.125,-3.0625,0
2160,5.1875,-7.5625,-1.8125,0
2180,7.625,-7.5,-1.4375,0
2200,4.375,-9.6875,-4.6875,0
2220,0.5,-8.25,-4.8125,0
2240,0.75,-6.125,-3.75,0
2260,3.375,-5.6875,-2.625,0
2280,-0.625,-6.75,-1.8125,0
2300,-5.0625,-6.75,-3.1875,0
2320,-8.3125,-4.4375,-3.3125,0
2340,-7.9375,-4.0625,-3.1875,0
2360,-10.25,-5.375,-2.6875,0
2380,-10.1875,-5.5625,-2.3125,0
2400,-8.375,-4.375,-3.8125,0
2420,-9.6875,-5.0625,-3.75,0
2440,-10.3125,-5.375,-3.5,0
2460,-9.75,-5.4375,-1.625,0
2480,-5.5625,-5,-1,0
2500,-3.0625,-3.375,0.8125,0
2520,-1.0625,-3.0625,2.0625,0
2540,0.875,-0.75,2.875,0
2560,2.375,0.6875,1.125,0
2580,-0.5625,0.5,0.75,0
2600,-2.6875,0,1.625,0
2620,-0.125,1.4375,2.4375,0
2640,3.0625,3.4375,2.375,0
2660,5.0625,2.625,2.5625,0
2680,1.9375,2.25,2.25,0
2700,0.6875,0.875,3.1875,0
2720,3.3125,1.25,2.125,0
2740,4.9375,1.5,1.6875,0
2760,4.75,1.4375,1.75,0
2780,1.9375,0.75,0.5,0
2800,0.875,0.125,0.4375,0
2820,4.5625,0.9375,1.8125,0
2840,3.5,0.75,0.1875,0
2860,2.5625,0,0.625,0
2880,0.9375,-0.75,1.25,0
2900,1.75,-1.3125,1.25,0
2920,3.875,0.625,1.5625,0
2940,3.375,0.4375,1.1875,0
2960,1.625,0.5625,1.25,0
2980,2.1875,-0.25,2.125,0
3000,4.9375,0.6875,2.0625,0
3020,4.9375,0.5625,2.6875,0
3040,3.375,-2.0625,4.25,0
3060,4.25,-0.6875,5.25,0
3080,7.125,-1.875,5.375,0
3100,7.4375,-3.3125,3.8125,0
3120,3.1875,-2.9375,1.1875,0
3140,2.9375,-3,1.4375,0
3160,2.1875,-1.875,0.6875,0
3180,0.375,0.5,0.25,0
3200,4.6875,0.1875,0.375,0
3220,7.125,-1.3125,0.125,0
3240,3.375,-3.1875,0.5625,0
3260,4.5,-3.5,5.625,0
3280,7.3125,-2.5625,5.8125,0
3300,10.625,-3.3125,8.1875,0
3320,8.625,-5.6875,11.875,0
3340,5.3125,-11.75,11.625,0
3360,6.9375,-21.3125,9.1875,0
3380,21.0625,-31.4375,3.375,0
3400,30.25,-39.8125,-7.9375,0
3420,38.75,-40.0625,-19.8125,0
3440,41.1875,-32.25,-29,0
3460,34.4375,-24.5,-30,0
3480,24.5625,-18.25,-28.8125,0
3500,14.8125,-12.0625,-24.1875,0
3520,13.625,-8.125,-21.125,0
3540,12.75,-4.125,-17.3125,0
3560,9.3125,-2,-12.625,0
3580,1.3125,0.8125,-10.0625,0
3600,-2.625,1.375,-5.5,0
3620,-3,1.1875,-0.375,0
3640,-2,1,1.5625,0
3660,0.6875,0.5625,2.0625,0
3680,4.5,-0.625,0.9375,0
3700,6,-1.875,1.9375,0
3720,3.9375,-1.5625,2.125,0
3740,7.4375,-1.5,-0.5,0
3760,6.0625,-2.125,-0.875,0
3780,4.8125,-4.75,1.9375,0
3790,5.5625,-5.3125,3.4375,0
3810,1.6875,-4,0.125,0
3830,-0.1875,-1.75,2.625,0
3850,-4.75,-2.375,8.1875,0
3870,-3.75,-0.875,11.75,0
3890,-2.875,3.625,9.4375,0
3910,-5.3125,4,6.9375,0
3930,-3,2.6875,11.5,0
3950,-5.3125,2.25,11.125,0
3970,-9.375,2.375,7.3125,0
3990,-9.25,1.8125,7.9375,0
4010,-13.75,1.4375,10.4375,0
4030,-11.875,1.125,8.4375,0
4050,-11.1875,-2.5625,4.375,0
4070,-7.125,-5.3125,4.8125,0
4090,-4.625,-7.375,6.5,0
4110,0.3125,-8.25,6.25,0
4130,0.375,-8.25,3.3125,0
4150,3.8125,-8.4375,3.4375,0
4170,5.125,-8.5,4.5,0
4190,3.9375,-8.875,4.375,0
4210,5,-11.0625,2.4375,0
4230,5.125,-10,1.9375,0
4250,5.9375,-8.5,1.5625,0
4270,3.6875,-6.5,-2.6875,0
4290,4.1875,-3.6875,-1.875,0
4310,4.4375,-1.125,1.4375,0
4330,4.1875,-1.3125,0.125,0
4350,9.375,-2,0.0625,0
4370,11.0625,-0.8125,1.4375,0
4390,12.125,1.4375,0.5625,0
4410,13.75,0.25,0.5,0
4430,16.1875,-0.25,5.5625,0
4450,16.875,0.5625,8.5625,0
4470,16.1875,2.75,5.25,0
4490,10.875,3.75,2.125,0
4510,1.5,-0.875,0.4375,0
4530,-4.6875,-2.9375,2.5,0
4550,1.5625,2.5,4.125,0
4570,-1.75,5.75,3.25,0
4590,-0.5,6.3125,6.8125,0
4610,0.75,7.25,8.3125,0
4630,-7.5,11.875,3.5,0
4650,-3.3125,5.5625,5.375,0
4670,-1,3.9375,1.8125,0
4690,3.4375,6,-1.1875,0
4710,5.4375,7,-0.4375,0
4730,2.125,6.75,-1.5,0
4750,-0.4375,4.875,-2.125,0
4770,1.6875,3.25,-1.25,0
4790,3.5625,1.3125,1.1875,0
4810,0.0625,0.625,6.75,0
4830,7.4375,1.0625,9.5,0
4850,1.875,3.3125,4.0625,0
4870,6.375,1.0625,-1.0625,0
4890,2.0625,0.3125,-1.875,0
4910,11.125,-1.625,-3.375,0
4930,12.8125,-4,-1,0
4950,12.625,-12.6875,7.4375,0
4970,8.3125,-10.4375,4.6875,0
4990,2.4375,-3.375,-1,0
5010,0.875,-6.8125,4.9375,0
5030,4.375,-10.4375,9.4375,0
5050,4.625,-8.25,1.75,0
5070,0.375,1.3125,-1.6875,0
5090,2,6.625,0.25,0
5110,3.3125,7.125,-0.875,0
5130,-1.875,4.4375,-0.8125,0
5150,-0.375,13.9375,-5.75,0
5170,0.625,14.875,-16.625,0
5190,-3.1875,7.1875,-8.625,0
5210,-7.3125,6.1875,-10,0
5230,0.5625,2.375,-16,0
5250,-1.8125,-0.9375,-15.3125,0
5270,-5.25,-6.375,-10.125,0
5290,-9.625,-4.6875,-6.1875,0
5310,-4.25,0.125,3.8125,0
5330,6.25,7.625,1.25,0
5370,-0.8125,2.6875,7.3125,0
5390,0.125,3.0625,7.4375,0
5410,3.625,0.9375,2.5625,0
5430,3.75,-2.75,0.9375,0
5450,2.0625,-8.9375,-3.1875,0
5470,-4.3125,-12.4375,0.625,0
5490,-2.625,-15.5625,5.8125,0
5510,3.9375,-4.9375,8.3125,0
5530,5.75,-1.625,6.875,0
5550,5.375,-2.8125,2.3125,0
5570,-4.1875,-5.9375,1.9375,0
5590,-2.5625,-6.9375,1.875,0
5610,1.875,2.0625,0.25,0
5630,3.6875,8.5625,-8.125,0
5650,-0.0625,6.875,-5.6875,0
5670,-3.8125,2.5625,-5.625,0
5690,-4.125,-0.1875,-6.25,0
5710,-4.5625,-2.375,-3.5,0
5730,-6.5,-7.375,-3.0625,0
5750,-7.75,-9.125,-2.3125,0
5770,-5.5,-11.6875,0.5,0
5790,-4.3125,-13.5,-0.0625,0
5800,-1.875,-13.4375,-1.625,0
5820,-1.3125,-10.625,-2.4375,0
5840,0.875,-3.3125,-2.1875,0
5860,5.25,4.375,2.3125,0
5880,2.1875,8,6.0625,0
5900,-1.625,5.3125,9.875,0
5920,2.6875,12.125,11.3125,0
5940,1.8125,14.8125,10.4375,0
5960,-1.875,10.3125,14.875,0
5980,-0.625,12.875,13.1875,0
6000,3.9375,15.1875,5.5,0
6020,6,8.9375,7,0
6040,3.3125,0.9375,11.25,0
6060,6,1.8125,12.375,0
6080,12.5,7.6875,4.875,0
6100,12.9375,5.75,4.5625,0
6120,13.0625,3.9375,9.4375,0
6140,16.125,3.6875,8.875,0
6160,17.125,2.625,3.375,0
6180,13.0625,2.3125,0.8125,0
6200,10.25,1.125,6.1875,0
6220,7.875,1.875,6.5,0
6240,9.5625,3.875,2.125,0
6260,3.3125,5.75,-1,0
6280,-2.4375,1.8125,1.6875,0
6300,-5.4375,-4.125,2.3125,0
6320,-8.5,-0.75,1.8125,0
6340,-11.25,3.4375,-0.6875,0
6360,-4.875,4.9375,-1.6875,0
6380,-3.9375,7.4375,-2.375,0
6400,-8.625,7.1875,-4.75,0
6420,-10.75,9.3125,-5.5625,0
6440,-0.125,14.3125,-7.625,0
6460,2.625,12.3125,-11.375,0
6480,3.125,3.5625,-9.125,0
6500,5.8125,2.75,-4.0625,0
6520,-0.5,7.75,-7.3125,0
6540,0.75,4.75,-7.5625,0
6560,2.0625,-1.4375,-2,0
6580,6.125,-5.5625,-0.875,0
6600,7.875,-2.75,-3.125,0
6620,5.125,1.4375,-7.1875,0
6640,7.1875,2.125,-3.6875,0
6660,12.875,1.875,-2.625,0
6680,16.875,0.3125,-6.5625,0
6700,15.875,-0.25,-10.8125,0
6720,5.1875,4.8125,-11.1875,0
6740,-0.5,8.5625,-8.75,0
6760,-0.75,8.875,-8.3125,0
6780,-4.75,7.5,-6.3125,0
6800,-7.0625,7.375,-4.5,0
6820,-8.625,4.3125,-3.25,0
6840,-8.6875,1.8125,0.5,0
6860,-11.0625,-0.625,0.875,0
6880,-9.1875,-2.875,-0.875,0
6900,-10.125,-4.875,0.375,0
6920,-11,-3.3125,-1,0
6940,-7.3125,-1.8125,-3.375,0
6960,-4.25,-0.0625,-2.875,0
6980,-2.9375,0.8125,-2.625,0
7000,-3.125,0.625,-3.6875,0
7020,-2.5,0.6875,-2.875,0
7040,-4.4375,-0.625,-3.125,0
7060,-0.0625,-2.9375,-3.125,0
7080,3.5625,-2.3125,-4.75,0
7100,3.6875,-4.4375,-5.5625,0
7120,1.8125,-8.9375,-2,0
7140,6.4375,-10.8125,0.5,0
7160,4.25,-10.125,0.1875,0
7180,0.6875,-14,7,0
7200,-1.0625,-14.9375,12.5,0
7220,0.5,-16.1875,9.9375,0
7240,-3.5,-15.9375,9.75,0
7260,-2.75,-13.1875,9.1875,0
7280,-2.6875,-10.0625,6.375,0
7300,-2.0625,-6.6875,4.75,0
7320,-3.5625,-5.1875,1.625,0
7340,-4.9375,-8.9375,0.375,0
7360,-8.5625,-13,-0.625,0
7380,-9.3125,-11.1875,-2.75,0
7400,-6.375,-9.75,-4.9375,0
7420,-4.0625,-11,-4.1875,0
7440,-1.5625,-16.375,-5.625,0
7460,0.875,-16.4375,-10.5,0
7480,4.8125,-18.8125,-13.0625,0
7500,7.875,-21.8125,-14.75,0
7520,6.75,-25,-16.75,0
7540,7.625,-26.875,-14.625,0
7560,8.5,-27.6875,-13,0
7580,9.1875,-25.6875,-13,0
7600,6.8125,-24.8125,-12.875,0
7620,6.9375,-23,-8.0625,0
7640,0.25,-18.8125,-5.3125,0
7660,3.5,-15.6875,-5.9375,0
7680,1.75,-12.75,-3.5625,0
7700,0.8125,-7.9375,-1.875,0
7720,2.0625,-5.25,-3.625,0
7740,2.75,-6.25,-3.625,0
7760,2.6875,-8.1875,-4.125,0
7780,2.0625,-7.9375,-7.625,0
7800,2.6875,-6.9375,-6.5625,0
7820,2.375,-5.125,-3.5,0
7840,0.5,-7.1875,-4.5,0
7860,-0.875,-9.6875,-2.375,0
7880,-0.4375,-5.5,-2.25,0
7900,4.4375,-8.375,-5.0625,0
7920,1.0625,-7.625,-3.125,0
7940,4.125,-8.0625,-4.1875,0
7960,7.25,-12.25,-3.6875,0
7980,2.8125,-12.0625,-6,0
8000,3.625,-11.375,-1.6875,0
8020,4.75,-13.9375,-5.5625,0
8040,5.9375,-13.1875,-5.875,0
8060,0.9375,-13.625,0,0
8080,3,-12.8125,-1.875,0
8100,1.25,-10.375,-5.25,0
8120,-0.875,-10.6875,-2.25,0
8140,-2.25,-8.9375,-6,0
8160,-2.9375,-6.8125,-5.9375,0
8180,-2.125,-5.3125,-3.875,0
8200,-2.375,-3.1875,-4.0625,0
8220,-6.3125,-0.375,-5.5,0
8240,-7.4375,0.625,-4.375,0
8260,-7.375,1.1875,-4.9375,0
8280,-6.3125,3.75,-2.6875,0
8300,-6.875,6.9375,-3.4375,0
8320,-5.6875,10.875,-1.6875,0
8340,-7.625,12.9375,0.5,0
8360,-8.625,12,-0.3125,0
8380,-3.625,8.6875,-1.875,0
8400,-4.6875,9.0625,-1,0
8420,-1.6875,10.5,-0.5625,0
8440,-3.375,13.8125,-1.3125,0
8460,-1,17.25,-1.9375,0
8480,0.125,21.0625,-1.75,0
8500,2.1875,21.8125,-1.8125,0
8520,2.9375,16.625,1.25,0
8540,3.8125,14.375,3.0625,0
8560,3.5625,14.375,5.375,0
8580,3,12.4375,7.25,0
8600,5.375,11.0625,8.25,0
8620,3.5,11.875,9.6875,0
8640,2.25,13.625,6.25,0
8660,2.8125,10.9375,5,0
8680,0.6875,9.5625,7,0
8700,2.1875,7.0625,8,0
8720,3.125,5.0625,5.625,0
8740,1,4.625,4,0
8760,-0.375,4.875,5.75,0
8780,0.75,3.8125,6.8125,0
8800,2.25,2.4375,4.25,0
8820,2.8125,2.1875,1,0
8840,1.375,1.5625,-0.4375,0
8860,0.8125,0.875,-1,0
8880,1.9375,0.625,-0.6875,0
8900,2.125,0.5,-1.875,0
8920,0.3125,-1.0625,-2.0625,0
8940,-0.8125,-1.5,-0.5625,0
8960,-0.8125,-1.25,-0.625,0
8980,-1.25,-1.5625,0.4375,0
9000,-1.75,-1.625,0.375,0
9020,-3.3125,-0.75,-0.25,0
9040,-3.4375,-0.5625,-0.5,0
9060,-4.6875,-2.25,-0.9375,0
9080,-2.75,-2.6875,-1.9375,0
9100,-5.625,0,-3.6875,0
9120,-8,1.1875,-5.375,0
9140,-16.125,5.75,-4.9375,0
9160,-26.875,8.8125,-4.875,0
9180,-42,13.25,-0.8125,0
9200,-54.125,18.8125,4.5,0
9220,-62.6875,27.1875,9.125,0
9230,-52.125,30.875,11.0625,0
9250,-33.8125,32.25,6.4375,0
9270,-25.8125,30.375,-0.5,0
9290,-25.4375,26.0625,-4.0625,0
9310,-28.625,22.625,-7.3125,0
9330,-20.5,18.5,-12.6875,0
9350,-14.3125,18.4375,-15.0625,0
9370,-7.4375,20.875,-13.625,0
9390,-2.5625,19.8125,-11.125,0
9410,-7.125,11.8125,-12.1875,0
9430,-11.3125,7.875,-7.6875,0
9450,-10.5625,5.5,-6,0
9470,-9.6875,7,-6.9375,0
9490,-7.4375,11.125,-6.0625,0
9510,-6.25,16.5625,-2.9375,0
9530,-11.9375,21.1875,0.5625,0
9550,-9,25.1875,2.625,0
9570,-5.5625,26.125,0.125,0
9590,-10.375,20.375,0.875,0
9610,-17.375,14.9375,2.625,0
9630,-20.375,15.6875,6.6875,0
9650,-12,21.875,8.125,0
9670,-15.8125,20.5,7.375,0
9690,-20.25,16.6875,10.1875,0
9710,-18.125,14.625,7.875,0
9730,-21.125,15.6875,7.3125,0
9750,-11.125,19.5,10.6875,0
9770,-6.8125,19.75,9.375,0
9790,-3.9375,14.875,6.5625,0
9810,-6.4375,7.625,5.6875,0
9830,-1.3125,7.1875,7.3125,0
9850,6.5,5,6.3125,0
9870,7.6875,0.625,6.4375,0
9890,4.3125,-5.3125,7.1875,0
9910,2.625,-7.875,10.4375,0
9930,3.75,-8.0625,12.375,0
9950,7,-8.1875,14.375,0
9970,9.9375,-12.875,12.5,0
9990,12.8125,-19.375,11.1875,0
10010,15.75,-28.6875,15.125,0
10030,19.6875,-35.75,19.5625,0
10050,19.625,-42.0625,19.625,0
10070,34.4375,-52.9375,17.125,0
10090,58.125,-63.25,15.875,0
10110,60.125,-70.3125,21.625,0
10130,65.375,-70.625,17.875,0
10150,79.6875,-76.75,12.5,0
10170,59,-77.125,12.9375,0
10190,60.6875,-72.6875,-2.75,0
10210,62.4375,-65.3125,-9.6875,0
10230,41.75,-56.625,-9.25,0
10250,41,-47.875,-12.75,0
10270,39,-37.5625,-13.4375,0
10290,35.9375,-27,-21.0625,0
10310,27.5625,-25.625,-23.25,0
10330,15,-29.875,-27.625,0
10350,5.9375,-29.6875,-27.375,0
10370,2.375,-26.75,-28.6875,0
10390,-2.125,-22.3125,-36.25,0
10410,-6,-17.375,-34.6875,0
10430,-9.1875,-15.9375,-28.375,0
10450,-12.3125,-17.4375,-27.3125,0
10470,-13.0625,-15.75,-27.625,0
10490,-6.5625,-16.375,-26.4375,0
10510,-2.0625,-16.875,-24.0625,0
10530,-6.625,-14.9375,-26.8125,0
10550,-0.25,-1,-24.25,0
10570,-1.875,12.25,-21.3125,0
10590,-1.0625,18.5625,-21.375,0
10610,1.1875,20.1875,-17.8125,0
10630,-1.375,20.8125,-16.625,0
10650,-0.5625,25.5,-21.5,0
10670,-7.5,28.6875,-21.5625,0
10690,-5.375,23.9375,-5.625,0
10710,-3.5,16.0625,8.375,0
10730,1.125,12.6875,9.875,0
10750,-0.5,13.0625,4.5625,0
10770,-5.0625,13.625,-0.3125,0
10790,-4.5,13.0625,-4.3125,0
10810,-0.75,10.875,-1.5,0
10830,6.3125,9.0625,3.1875,0
10850,7.125,6.0625,1.8125,0
10870,4,3.25,0.8125,0
10890,0.75,5.0625,2.5,0
10910,1,8.1875,4.3125,0
10930,1.875,8.625,5.25,0
10950,1.375,11.375,5.375,0
10970,-1.125,16,9.75,0
10990,4.25,24.1875,21.375,0
11010,1.5625,27.625,38.6875,0
11030,-0.875,21.4375,56.6875,0
11050,-2.5,19,64.3125,0
11070,-0.375,17.5625,46.6875,0
11090,1.5625,17.5625,20.3125,0
11110,-0.4375,17.8125,8.4375,0
11130,-2.0625,15.1875,4.375,0
11150,2.0625,9.25,2.75,0
11170,-1.1875,8.5,-1.9375,0
11190,-5.9375,3.875,-6.3125,0
11210,-10.3125,0.1875,0.0625,0
11230,-12.3125,-2.1875,6.6875,0
11240,-7.3125,-3.75,6.375,0
11260,-5.75,-3.0625,2.375,0
11280,-4.4375,-0.25,3.5625,0
11300,-2.625,1.875,3.375,0
11320,-2.0625,4.8125,4.875,0
11340,-2.1875,5.8125,7.5,0
11360,1.0625,5.4375,8.75,0
11380,0.875,6.125,5.125,0
11400,-1,4.8125,1.8125,0
11420,0.4375,4.9375,4.375,0
11440,-0.1875,5,4.875,0
11460,-1.125,6.3125,2.4375,0
11480,0.5,4.3125,1,0
11500,-1.875,4.625,1.3125,0
11520,-6.375,5.9375,4.25,0
11540,-6.4375,6,7.75,0
11560,-4.1875,5.3125,8.5,0
11580,-4.5625,4.25,9.75,0
11600,-5.4375,4.4375,11.4375,0
11620,-6.875,1.9375,9.875,0
11640,-5.6875,0.0625,7.25,0
11660,-4.375,-1.625,7.125,0
11680,-2.25,-1.3125,5.8125,0
11700,-2.125,-0.125,4.5625,0
11720,-4.1875,-1.6875,3.875,0
11740,-3.6875,-3.4375,2.0625,0
11760,-2.3125,-4,1.75,0
11780,-2.8125,-2.875,1.875,0
11800,-2.8125,-4.125,0.5,0
11820,-4.4375,-5.125,0.5,0
11840,-2.9375,-2.75,1.375,0
11860,-3.4375,-1.875,0.1875,0
11880,-1.75,-2.75,-0.0625,0
11900,-3.875,-0.75,0.6875,0
11920,-3.3125,-0.9375,2.5,0
11940,-4.5625,-0.1875,1.75,0
11960,-2.5,-1.0625,1.25,0
11980,-1.25,-1.0625,3.125,0
12000,-2.5,-0.625,2.8125,0
12020,-2.8125,-0.75,1.125,0
12040,-0.875,-2.25,-0.9375,0
12060,0.375,-2.125,-0.75,0
12080,-1.375,-3.375,-1,0
12100,-1.4375,-3.375,-3.1875,0
12120,-0.8125,-3.4375,-3.1875,0
12140,-1.75,-3.5,-2.5625,0
12160,-1.625,-3.1875,-4.8125,0
12180,-3.0625,-3.9375,-5.375,0
12200,-2.4375,-4.9375,-4.375,0
12220,-2.625,-5.625,-6,0
12240,-3.0625,-5.125,-5.8125,0
12260,-4,-4.6875,-3.25,0
12280,-3.3125,-4.25,-3.125,0
12300,-0.9375,-2.4375,-3.25,0
12320,-1.625,-0.9375,-1.625,0
12340,-0.5625,-0.0625,-1.9375,0
12360,0.4375,-0.3125,-4,0
12380,0.3125,-0.9375,-2.5625,0
12400,0.8125,0.0625,-1.4375,0
12420,-0.8125,1.8125,-1.4375,0
12440,-0.5,1.8125,-1.3125,0
12460,-1.125,2.25,-0.4375,0
12480,-1.1875,2,-0.625,0
12500,-0.5,2.3125,0.3125,0
12520,-2.0625,2.6875,1.25,0
12540,-1.9375,2.5625,0.125,0
12560,-1.25,2.625,-1.3125,0
12580,-1.1875,1.5,0.375,0
12600,-1.3125,1.875,0.0625,0
12620,-1.375,2.5625,-0.5,0
12640,-0.125,2.875,-0.375,0
12660,-1.5625,3.125,-1.125,0
12680,-1.25,2.875,-0.75,0
12700,-1.75,3.25,-0.125,0
12720,-1.875,4.8125,0.125,0
12740,-0.4375,4.9375,0.25,0
12760,-0.4375,4.9375,1.3125,0
12780,-0.5625,5.3125,2.4375,0
12800,0.625,4.625,1.0625,0
12820,0.8125,4.375,1.75,0
12840,0.8125,5.5625,3.125,0
12860,0.25,6.875,2.5625,0
12880,-0.5,7.25,2.875,0
12900,-0.6875,7.9375,2.4375,0
12920,-0.8125,8.3125,1.25,0
12940,0.6875,8.25,2.6875,0
12960,1.625,8.5625,2.625,0
12980,1.9375,7.6875,1.8125,0
13000,2.6875,6,3.8125,0
13020,4.8125,3.4375,2.25,0
13040,6.5625,-1.8125,0.8125,0
13060,6.1875,-5.9375,3.0625,0
13080,6.5625,-7.9375,9.375,0
13100,9.25,-11.3125,10.9375,0
13120,13.4375,-15.9375,9.625,0
13140,18.375,-17.375,9.3125,0
13160,19.3125,-19.0625,11,0
13180,19.875,-22.25,14.3125,0
13200,20.6875,-26.4375,13.6875,0
13220,20.125,-29.4375,10.1875,0
13240,22.1875,-29.4375,11.0625,0
13260,20.8125,-26.875,14.875,0
13280,21.25,-24.5625,14.9375,0
13300,23.5625,-21.6875,12.0625,0
13320,24,-17.1875,13.625,0
13340,22.8125,-14.5625,17.375,0
13360,24.1875,-13.1875,14.0625,0
13380,29.375,-7.9375,14.6875,0
13400,26.875,-0.6875,15.5625,0
13420,24.0625,2.25,18.1875,0
13440,21.4375,4.5625,20.1875,0
13460,22.25,8.4375,21.625,0
13480,21.625,9.6875,17.875,0
13500,19.0625,8.0625,15.0625,0
13520,17.9375,5.875,13.6875,0
13540,17,3.75,14.5,0
13560,16.375,0.5,14.4375,0
13580,15,-0.9375,14.375,0
13600,12.0625,-0.625,15.75,0
13620,10.125,-1.75,15,0
13640,8.4375,-2.375,13.3125,0
13660,5.375,-1.25,13,0
13680,2.6875,0.625,10.875,0
13700,2.375,2.375,8.125,0
13720,1.8125,4.4375,5.875,0
13740,-0.5,7.3125,6.5625,0
13760,0.9375,8.625,5.3125,0
13780,0.8125,7.5625,3.0625,0
13800,-1.375,8.5625,1.5,0
13820,-1.75,9.9375,3.1875,0
13840,-1.8125,11.625,3.8125,0
13860,-1.9375,12.0625,2.5625,0
13880,-1.875,10.3125,0.75,0
13900,-1.5,8.375,0.0625,0
13920,-0.875,6.8125,0.1875,0
13940,-1.4375,6.4375,2.25,0
13960,-1.5,4.25,1.3125,0
13980,0.5,1.0625,0.8125,0
14000,-0.25,-0.1875,1.1875,0
14020,1.6875,-0.4375,3.4375,0
14040,3.25,-2.0625,2.0625,0
14060,3.3125,-3.75,1.1875,0
14080,2.5,-3.625,2.25,0
14100,2.9375,-2.8125,3,0
14120,3,-3.5625,2.375,0
14130,2.4375,-3.125,3,0
14150,2.6875,-1.5,4.1875,0
14170,1.4375,-2.1875,3.125,0
14190,0.3125,-3.4375,2.1875,0
14210,-1.5625,-2.75,3.0625,0
14230,-0.875,-1.3125,2.0625,0
14250,-0.5625,-1.5,-0.5,0
14260,-1.75,-1.25,-1.1875,0
14280,-2.25,0.25,-0.5625,0
14300,-1.625,0.9375,-1.75,0
14320,-2.0625,1.625,-1,0
14340,-2.25,1.375,-0.25,0
14360,-2.4375,2.6875,-1.0625,0
14380,-2.125,3.625,-0.5,0
14400,-2.3125,4.125,0.375,0
14420,-1.875,3.0625,-0.0625,0
14440,-2.5,2.0625,0.5625,0
14460,-3.0625,1.3125,0.875,0
14480,-3.25,1.3125,1.4375,0
14500,-2.8125,2.5,3,0
14520,-2.5,3.5,4.5625,0
14540,-2.375,3.1875,2.1875,0
14560,-2.125,2.875,0.5,0
14570,-1.5625,2.0625,1.75,0
14600,-1.125,4.25,2.5625,0
14620,-2.25,5.25,3,0
14630,-0.375,3.1875,0.25,0
14650,-2.75,2.125,-0.3125,0
14670,-2.75,2.5625,2.9375,0
14690,-0.8125,3.875,3,0
14710,0.375,3.6875,0,0
14730,-1.25,2.5,1.0625,0
14750,-1.3125,1.9375,2.375,0
14770,0.5,2.5,2.6875,0
14790,0.5,2.9375,0.6875,0
14810,-1.4375,2.5,0.3125,0
14830,-0.375,1.6875,0.9375,0
14850,-0.5,1.625,1,0
14870,-1.8125,2.6875,1.375,0
14890,-2.1875,2.5625,0.3125,0
14910,-0.625,0.75,-1.9375,0
14930,-2.625,0.25,-1.25,0
14950,-2.625,2.1875,1.75,0
14970,0.25,2.4375,-1.125,0
14990,-0.125,1.1875,-4.4375,0
15010,-0.6875,0.625,-1.0625,0
15030,-0.1875,1.25,0.6875,0
15070,0.8125,2.25,3.3125,0
15090,1.9375,1.75,4.75,0
15110,2.5,0.9375,4.3125,0
15130,2.875,-2.125,3.6875,0
15150,0.75,-2.625,4.125,0
15170,3.625,-2.5625,4.0625,0
15190,3.75,-3.9375,0.625,0
15210,3.4375,-4.75,0.4375,0
15230,3.625,-5.625,0.875,0
15250,2.6875,-6.625,1.125,0
15270,2.25,-6.1875,2.1875,0
15290,4.3125,-7.3125,0.875,0
15310,2.9375,-8.375,1.875,0
15330,2.125,-8.25,2.1875,0
15350,2.3125,-8.5,1.8125,0
15370,3.0625,-9.25,0.3125,0
15390,3.3125,-10.125,-1.4375,0
15410,1.5,-11.125,-2.1875,0
15430,1.8125,-10.875,-1.375,0
15450,2.5625,-10.0625,-4.0625,0
15490,2.0625,-11.1875,-3.125,0
15510,3.75,-11.125,-4,0
15530,4.0625,-9.875,-2.5,0
15550,3,-8.5625,-1.25,0
15570,2.9375,-8.5625,-2.25,0
15590,3.875,-9.3125,-2.5,0
15610,3.8125,-8.6875,-1.6875,0
15630,3.4375,-7.875,-2.3125,0
15650,3.6875,-8,-3.3125,0
15670,3.375,-8.1875,-2.9375,0
15690,3.625,-8.375,-3.3125,0
15710,4.25,-8.625,-4.625,0
15730,2.3125,-8.125,-4.5,0
15750,2.375,-7.5,-3.1875,0
15770,1.9375,-8.625,-3.1875,0
15790,1.1875,-10.3125,-3.625,0
15810,0.5625,-9.5625,-3.5625,0
15830,-0.6875,-4.9375,-2.6875,0
15850,-4.5,-4,-3.3125,0
15870,-7.8125,-5.75,-3.4375,0
15890,-8.875,-3.9375,-3.9375,0
15910,-7.0625,-1.5625,-5.625,0
15930,-9.75,1.9375,-3.75,0
15950,-11.6875,6.8125,-1.5625,0
15970,-7.75,9.625,-3.625,0
15990,-6.5625,14.0625,-2.5,0
16010,-4.875,16.875,-0.75,0
16030,-4.8125,16.9375,-3.125,0
16050,-4.8125,16,-2.9375,0
16070,-3.625,14.5,-2.5,0
16090,-4.5,16.0625,-1.0625,0
16110,-2.625,18.1875,-0.75,0
16130,-2.875,15.6875,-0.5,0
16160,-3.5625,15.9375,2.8125,0
16200,-2.375,11,2.75,0
16220,-3.5625,10.375,5.125,0
16240,-5.4375,11,6.875,0
16260,-2.125,11.125,6.0625,0
16280,-2.6875,10,4.8125,0
16300,-3.6875,9.3125,4.25,0
16320,-2.1875,7.5625,3.125,0
16340,-0.5,6.25,3.125,0
16360,-0.1875,4.875,2.6875,0
16380,-0.4375,3.5625,0.8125,0
16410,1.1875,2.625,0.9375,0
16430,1.1875,1.75,1.5,0
16450,0.1875,1.6875,0.9375,0
16470,0.5625,2.5,1.125,0
16490,0.6875,2,1.375,0
16510,1.0625,0.9375,0.6875,0
16530,-0.5625,1.5625,1.125,0
16550,0.6875,2.5,1.875,0
16570,1.3125,2.375,0.5,0
16590,-1.6875,1,-0.125,0
16610,-5.1875,0.75,3.375,0
16620,-3.75,3.5,3.5625,0
16640,-1.6875,1.9375,-0.25,0
16660,-4.375,0.5,-0.6875,0
16680,-2.4375,1.75,0.625,0
16700,-1.25,2.25,-0.875,0
16720,0,2.75,-0.6875,0
16740,-1,2.25,-0.5,0
16760,0,1.625,-0.75,0
16780,1.25,2.125,-0.375,0
16800,0.75,1.6875,0.8125,0
16820,-0.0625,1.3125,2.125,0
16840,0.4375,0,2.25,0
16860,0.3125,-1,2.75,0
16880,0,0.0625,3.5,0
16900,0.6875,-0.125,2.5,0
16920,1.375,-1.375,1.625,0
16940,2.3125,-1.5,1.625,0
16960,2.1875,-1.3125,1.9375,0
16980,4.6875,-2.5,0.25,0
17000,4.3125,-4.3125,-0.9375,0
17020,3.375,-5.9375,-0.3125,0
17040,3.4375,-7.25,0.875,0
17060,4.125,-6.6875,0.5,0
17080,5,-5.8125,1,0
17100,4.5625,-5.375,1.8125,0
17120,6.4375,-5.5,1.6875,0
17140,6.5625,-6.5,1.25,0
17160,6.5625,-5.8125,2.5,0
17180,5.6875,-6.1875,2.875,0
17200,5.5625,-6.5625,1.8125,0
17220,6.875,-7.1875,0.9375,0
17240,5.125,-7.8125,-0.25,0
17260,4.25,-8.5,-1.875,0
17280,5.125,-7.75,-2.5,0
17300,6.4375,-8.3125,-4.25,0
17320,4,-9.3125,-4.625,0
17340,4.8125,-8.3125,-5.0625,0
17360,3.4375,-7.5625,-3.25,0
17380,3.5,-7.75,-3.125,0
17400,2.3125,-8.375,-4.75,0
17420,0.25,-7.8125,-4,0
17440,2.375,-8.0625,-5.25,0
17460,1.5,-8.5,-6.625,0
17480,0.8125,-8,-7.4375,0
17500,2.25,-7.5625,-7.6875,0
17520,4.8125,-7.125,-8.125,0
17540,2.75,-5.9375,-7.4375,0
17560,4.5625,-5.125,-5.6875,0
17580,2.5625,-6.0625,-3.5625,0
17600,3.0625,-6.5,-4.5,0
17620,1.6875,-6,-2.3125,0
17640,1.4375,-7.125,-1,0
17660,2.75,-8.4375,-2.3125,0
17680,-0.0625,-4.5,-2.6875,0
17700,-4.3125,-3.75,-0.5,0
17720,-8.4375,-3.25,-2.0625,0
17740,-8.6875,-1.3125,-2.9375,0
17760,-11.375,3.375,-2.75,0
17780,-14.875,12.0625,0.75,0
17800,-10.8125,19.4375,0.4375,0
17820,-10.125,23,2.4375,0
17840,-8.625,20.875,0.8125,0
17860,-6.75,18,-1,0
17880,-6.125,15.8125,0.875,0
17900,-7.5625,16.1875,0,0
17920,-9.25,20.375,1.25,0
17940,-5.8125,22.4375,-0.1875,0
17960,-5.4375,22.75,-1.375,0
17980,-6.6875,22.875,0.3125,0
18000,-6,25,2.5,0
18020,-5.125,22.4375,2.1875,0
18040,-5.4375,18.6875,2.625,0
18060,-9,17.625,3.25,0
18080,-5.6875,16.25,4.375,0
18100,-7.0625,13.25,5.5625,0
18120,-10.625,12.875,6.75,0
18140,-6.9375,12.5625,7.3125,0
18160,-4.875,9.75,6.375,0
18180,-5.0625,8.1875,4.8125,0
18200,-4.5,7.8125,4.125,0
18220,-1.5,7,3.625,0
18240,0.1875,6.5,2,0
18260,1.5625,4.6875,1.3125,0
18280,-0.8125,3.9375,1.3125,0
18300,1.375,3.3125,0.875,0
18320,1.6875,2.6875,-0.125,0
18340,0.4375,2.9375,1.5,0
18360,-2.0625,1.9375,0.9375,0
18380,-0.25,1.3125,0.875,0
18400,-0.75,2,0.625,0
18420,-1.3125,2.1875,0.8125,0
18440,0.125,1,0.1875,0
18460,-0.625,-0.5,0.0625,0
18480,-2.8125,0.125,0.1875,0
18500,-2,0,0.5,0
18520,-1.0625,-0.5625,0.125,0
18540,-2.5625,0.1875,0.375,0
18560,-3.5,1.0625,1.125,0
18580,-1.5,0.75,-1,0
18600,0.5625,0.4375,-2.125,0
18620,-0.875,0.5625,-1.375,0
18640,0.4375,0.4375,-1.5625,0
18660,0.3125,0.5,-1.4375,0
18680,-4.375,1.75,-0.125,0
18700,-5.75,2,0.5,0
18720,-1.875,1.8125,-0.5,0
18740,-2.9375,3.5,0.0625,0
18760,-4.8125,6.125,3.4375,0
18780,-2.8125,6.3125,2.125,0
18800,-1.875,4.5625,-0.375,0
18820,-1.875,4.8125,2.75,0
18840,1,4.3125,3,0
18860,2.4375,2.8125,1.25,0
18880,2.125,1.5625,1.4375,0
18900,0.9375,0.5625,2,0
18920,5.75,0.8125,2.3125,0
18940,4.625,1.125,3.3125,0
18960,1.8125,1.9375,4.625,0
18980,3.25,2.3125,3.9375,0
19000,4.25,2.375,2.9375,0
19020,4.125,1.6875,1.75,0
19040,4.875,0.6875,0.5,0
19060,5.5625,-0.25,-0.625,0
19080,6.3125,-1.875,-1.375,0
19100,4.5,-4.1875,-2.5,0
19120,4.5,-4.625,-1.875,0
19140,4.5625,-4.8125,-2.8125,0
19160,5.375,-5.4375,-3.875,0
19190,2.875,-6.75,-2.4375,0
19210,4.4375,-7.9375,-2.5625,0
19230,6,-8.375,-3.625,0
19250,4.6875,-8.625,-3.9375,0
19270,4.5625,-8.6875,-2.75,0
19290,5.25,-9,-3.125,0
19310,6.8125,-9.375,-5.5,0
19330,6.0625,-10.25,-5.125,0
19350,5.125,-9.25,-4,0
19370,4.6875,-8.5625,-2.0625,0
19390,4.3125,-9.5625,-3.6875,0
19410,3.6875,-11.1875,-3.625,0
19430,-1.625,-10.0625,-2.125,0
19450,-3.875,-11.375,-1.9375,0
19470,-7.25,-10.4375,-2.3125,0
19490,-8.6875,-5.875,-3.9375,0
19510,-8.8125,-1.8125,-2.875,0
19530,-9.75,2.6875,-0.5,0
19550,-10.3125,9.25,-0.4375,0
19570,-6.8125,12.625,-0.1875,0
19590,-4.5625,14,0.8125,0
19610,-6.5625,15.375,0.9375,0
19630,-6.9375,14.5625,-0.8125,0
19650,-6.75,11.9375,-0.5,0
19670,-10.1875,11.125,-1.4375,0
19690,-8.5625,12,-0.5,0
19710,-4.6875,10.6875,0.3125,0
19730,-5.625,8.375,0.8125,0
19750,-6.875,7.8125,2.25,0
19770,-7.3125,6.75,3.5625,0
19790,-7.0625,5.25,4.6875,0
19810,-8.125,5.5,5.5625,0
19830,-7.1875,4.9375,6.0625,0
19850,-5.5625,5.4375,4.875,0
19870,-5.25,6.875,5.0625,0
19890,-4.6875,7.3125,5.0625,0
19910,-4.125,7.4375,3.25,0
19930,-2.3125,9.3125,2.5,0
19950,-2.5,10.5625,2.3125,0
19970,-1.5625,10.625,2.0625,0
19990,-2.6875,10.875,2.0625,0
20010,-1.5,12.1875,2.0625,0
20030,-1.5625,12.625,1.8125,0
20050,-1.875,12.25,2.125,0
20060,-4.375,11.6875,2,0
20080,-4.4375,11.6875,1.625,0
20100,-2,12.125,1,0
20120,-1.5,11.75,1,0
20140,-1.4375,9.625,1.0625,0
20160,-2,8,-0.1875,0
20180,-2.3125,6.5,0.6875,0
20200,-1,4.9375,1.1875,0
20220,-0.1875,3.75,0.5,0
20240,-0.75,1.9375,0.4375,0
20260,-1.125,0.6875,0.625,0
20280,0,-0.75,-0.5,0
20300,0.4375,-1,-0.625,0
20320,2.125,-0.625,-0.25,0
20340,1.5,-1.5,0.25,0
20360,-1.1875,-1.8125,0.125,0
20380,-2.25,-2.125,1.0625,0
20400,-1.25,-2,1.0625,0
20420,-0.4375,-2.375,0.1875,0
20440,-0.6875,-3.25,0.25,0
20460,-2.1875,-3,0,0
20480,-2.125,-4.6875,0.5625,0
20500,1.0625,-5.3125,1.1875,0
20520,1.1875,-5,0.125,0
20540,-1.8125,-5.8125,-0.25,0
20560,-0.75,-6.0625,-0.25,0
20580,3.125,-4.875,0.4375,0
20600,2.5625,-4.5625,-0.6875,0
20620,1.375,-5.625,-0.6875,0
20640,3.875,-6.5625,0,0
20660,4.75,-6.4375,-0.3125,0
20680,1.3125,-7.1875,1.875,0
20700,3.375,-8.6875,0.875,0
20720,4.5,-9.9375,0.4375,0
20740,2.1875,-9.9375,2,0
20760,6.75,-9.5625,0.5,0
20780,6.0625,-11.125,-0.875,0
20800,4.75,-11.8125,0.3125,0
20820,6.4375,-11.75,0.625,0
20840,7.5,-11.5,-0.125,0
20860,5.3125,-10.375,0.3125,0
20880,5.1875,-10.375,1.3125,0
20900,7.125,-11.3125,1.4375,0
20920,6.3125,-11,0.625,0
20940,3.5625,-10.6875,0.3125,0
20960,5.8125,-11.3125,-0.5,0
20980,6.8125,-11.5625,-2.1875,0
21000,5.6875,-12.25,-2.125,0
21020,7.875,-11.8125,-2.8125,0
21040,7.8125,-12,-2.5,0
21060,6.3125,-12.5,-2,0
21080,6.625,-13,-1.75,0
21100,6.25,-10.375,-1.0625,0
21120,8.1875,-9.1875,-1.75,0
21140,3.5,-11.125,-1.8125,0
21160,4.1875,-11.8125,-2.0625,0
21180,3.0625,-8.8125,-1.4375,0
21200,2.5625,-7.375,-0.8125,0
21220,3.3125,-8.25,-3.375,0
21240,0.6875,-7.75,-3.25,0
21260,0.6875,-7.125,-4.75,0
21280,0.1875,-4.9375,-8.3125,0
21300,-3.375,-2.5625,-6.875,0
21320,-4.1875,-0.875,-3.625,0
21340,-0.9375,3.1875,-4.75,0
21360,-2,7.5,-4.4375,0
21380,-8.8125,8.875,-0.5,0
21400,-4.125,8.3125,-2.8125,0
21420,-5.5625,10.625,-3.125,0
21440,-7.125,12.3125,-1.6875,0
21460,-3,12.0625,-1.1875,0
21480,-6.375,10.6875,0.125,0
21500,-8,10.3125,0.125,0
21520,-7.0625,8.75,-0.875,0
21540,-5.9375,7.625,0.5,0
21560,-5.125,6.8125,1.6875,0
21580,-5,6.625,1.0625,0
21600,-5.875,6.9375,0.75,0
21620,-5.4375,5.9375,1.375,0
21640,-3.375,4.5,1.125,0
21660,-5.1875,4,1.75,0
21680,-2.6875,4.3125,1.4375,0
21700,-1.875,3.4375,0.75,0
21720,-1.875,2,0.75,0
21740,-2.375,0.5625,0.4375,0
21760,-1.0625,0,-0.625,0
21780,0.625,0.5,-0.625,0
21800,1.0625,0.25,0.3125,0
21820,1.1875,-0.25,-0.375,0
21840,1.9375,-0.125,1,0
21860,0.125,0.75,2.0625,0
21880,1.625,1.8125,1.9375,0
21900,1.25,0.5625,1,0
21920,0,-0.875,1,0
21940,0.3125,1,0.3125,0
21960,1.75,2.625,2.1875,0
21980,4.125,2.0625,0.875,0
22000,3.125,2.875,1.0625,0
22020,1.5,5.125,1.3125,0
22030,-1.875,8,4.1875,0
22050,-2.125,7,3.9375,0
22070,-2.75,7.6875,4.5,0
22090,-2.6875,9.5625,3.25,0
22110,-3.3125,10.75,0.5625,0
22130,-4.375,12.3125,1,0
22150,-6.75,15.8125,-2.125,0
22170,3.375,20,-2.625,0
22190,6.25,20.875,-1.1875,0
22210,6.5625,20.375,-1.3125,0
22230,6.1875,17.1875,2.5,0
22250,5.375,16.125,4.6875,0
22270,4.9375,16.625,7.8125,0
22290,3.5,15.6875,13.1875,0
22310,3.0625,14.4375,13.25,0
22330,0.4375,14.125,10.875,0
22350,0.1875,12.1875,7.1875,0
22370,9.875,10.3125,4.5,0
22390,16.375,10.4375,-2.375,0
22410,17.5625,11.6875,-9.75,0
22430,12.25,15.5625,-8.8125,0
22450,9.5625,17.4375,-7.4375,0
22470,15.75,22.875,-1.3125,0
22490,11.0625,21.5625,6.375,0
22510,10.6875,18.5,1.625,0
22530,11.6875,11.3125,-0.9375,0
22550,14.4375,0.125,-0.5,0
22570,21.3125,-11.5,-2.4375,0
22590,20.9375,-20.375,-1.3125,0
22610,13.0625,-21.75,-3.5625,0
22630,10.6875,-17.75,-8.25,0
22650,0.25,-4.9375,-7.8125,0
22670,2.6875,3.75,-1.6875,0
22690,11.125,4.3125,0.6875,0
22710,8.8125,3.625,-3,0
22730,5.3125,1.8125,-3.125,0
22750,-1.8125,-0.375,-1.375,0
22770,2.25,-1,1.4375,0
22790,5.1875,-2.125,-3.1875,0
22810,4.625,-5.375,-3.625,0
22830,4.5625,-6.5,3.25,0
22850,1.5,-3.25,0.875,0
22870,2.3125,-3.5625,-0.5,0
22890,-0.0625,-7.3125,1.125,0
22910,4.1875,-7.875,0.125,0
22930,6.1875,-12.3125,-7.125,0
22950,3.125,-16.75,-9.5625,0
22970,3.4375,-15.8125,-1.5,0
22990,2.375,-10.625,-8.375,0
23010,3.0625,-7.1875,-7.5625,0
23030,1.4375,-5.1875,-0.3125,0
23050,-4.25,-3.125,-0.5,0
23070,-7.1875,-4.875,-1.375,0
23090,-7.6875,-0.75,1.125,0
23110,-9.6875,1.5,-1.6875,0
23130,-1.75,-1.25,-2.3125,0
23150,-6.3125,2.9375,3.1875,0
23170,0.5625,-2.5,4.375,0
23190,-2.4375,-3.3125,6.625,0
23210,0.4375,-1.0625,8.4375,0
23230,0.5625,0,3.8125,0
23250,5.625,-2.6875,9.5625,0
23270,8.0625,-4.8125,6,0
23290,11.3125,-5.875,1.6875,0
23310,9.3125,-4.9375,3.6875,0
23330,8.125,-7.9375,3.6875,0
23350,5.75,-8.75,3.25,0
23370,5.8125,-7.375,2.9375,0
23390,5.5,-4.6875,2.3125,0
23410,3,-1.4375,-0.4375,0
23430,1.5625,-2.75,0.25,0
23450,0.875,-0.4375,0.6875,0
23470,4.8125,-0.4375,-2.375,0
23490,-0.0625,-0.75,-2.9375,0
23510,-5,1.1875,-1.75,0
23530,-5.3125,-0.875,-2.5625,0
23550,0,1.6875,-0.8125,0
23570,0.9375,-2.25,-2.0625,0
23590,-4.6875,-4.4375,-4.875,0
23610,-9.375,-5.125,-3.125,0
23630,-7.125,-2,-2.8125,0
23650,-5.3125,8.125,-1,0
23670,-8.5625,12.5625,-1.6875,0
23690,-6.375,13.0625,3.25,0
23710,-8.375,13.75,9.75,0
23730,-4.4375,10.8125,9.9375,0
23750,1.375,10.4375,10.6875,0
23770,0.9375,8.4375,8.4375,0
23790,0.3125,8.375,1.6875,0
23810,-2.5,6.4375,-2.3125,0
23830,-0.375,1.6875,-1.375,0
23850,1.5625,-2.1875,-4.1875,0
23870,-2.25,-4,-7.8125,0
23890,-5.75,-9.625,2,0
23910,-2.6875,-12.4375,5.1875,0
23930,-3.1875,-11.5,-2.9375,0
23950,-9,-8.9375,-1.25,0
23970,-10.375,-5.9375,4.9375,0
23990,0.4375,-7.875,1.5,0
24010,0.6875,-11.625,4.1875,0
24030,0.375,-10,0.75,0
24050,-2.9375,-11.1875,-1.375,0
24070,3.625,-13.25,3.375,0
24090,6.1875,-11.5,-2.5625,0
24110,3.75,-10.875,-7.125,0
24130,-4.75,-11.9375,-4.125,0
24150,-5.5625,-8.4375,-3.75,0
24170,8.8125,-4.75,-9.25,0
24190,1.0625,-4.8125,-7.6875,0
24210,3.4375,-10.1875,-7.6875,0
24230,1.6875,-10.875,-12.6875,0
24250,0.1875,-12.3125,-10.625,0
24270,-2.25,-11.875,-5.75,0
24290,-7.25,-17.875,-4.4375,0
24310,-8.4375,-23,-0.0625,0
24330,-10.5625,-18,1,0
24350,-10.875,-13.75,3.375,0
24370,-13.0625,-11.4375,3.5625,0
24390,-7.6875,-10.1875,6.625,0
24410,-2.625,-10.875,6.1875,0
24430,-9,-10.75,5.625,0
24450,-4.5,-10.9375,4.1875,0
24470,-1.8125,-9.5625,2.625,0
24490,6.3125,-6.5625,1.8125,0
24510,2.0625,0.375,2.9375,0
24530,2.5625,3.125,1.9375,0
24550,8,1.1875,-4.5,0
24570,6.5625,-3.125,-0.75,0
24590,3.25,-2.5625,-0.8125,0
24610,2.125,-5.0625,0.875,0
24630,1.9375,-11.75,-0.6875,0
24650,-2.5,-9.375,-2.125,0
24670,-1.875,-7.125,-0.125,0
24690,-3.375,-11.8125,0.1875,0
24710,-4.125,-14.875,-2.8125,0
24730,-4.25,-14.125,-4.375,0
24750,-2.625,-13.75,-1.25,0
24770,-0.5,-11.9375,-2.1875,0
24790,-2.4375,-10.1875,-3.625,0
24810,-1.3125,-8.6875,-5.9375,0
24830,-0.8125,-7.75,-3.625,0
24850,-2,-3.6875,-1.6875,0
24870,0.625,-4.8125,-3.0625,0
24890,-0.1875,-5.875,-3.25,0
24910,1.5,-5.25,-1.75,0
24930,2,-3.375,-0.0625,0
24950,1.9375,-2.625,-0.125,0
24970,2.8125,-1.5625,0.3125,0
24990,1.4375,-1.5625,0.375,0
25010,3.8125,-2.25,-0.1875,0
25030,0.875,-0.8125,0.375,0
25050,1,-2.6875,0.8125,0
25070,0,-2.625,0.5,0
25090,-0.125,-3.9375,-0.625,0
25110,-1.125,-5.0625,-0.25,0
25130,-0.5625,-4.625,-1.4375,0
25150,-0.125,-3.375,-3.6875,0
25170,-0.5625,-2.375,-2,0
25190,-0.375,-2.5625,-0.6875,0
25210,-0.3125,-2.3125,-3.125,0
25230,-0.5,-2.125,-4.5,0
25250,-1.125,-2.25,-1.6875,0
25270,-1.3125,-1.25,-1.375,0
25290,0.3125,0.625,-1.3125,0
25310,-0.25,0.375,0,0
25330,0.6875,-0.25,0.3125,0
25350,0.1875,-2.1875,0.125,0
25370,-0.875,-3.125,-0.5,0
25390,-1.9375,-3.0625,-1.125,0
25410,-0.3125,-1.5,-1.25,0
25430,-2.8125,-1.75,0.4375,0
25450,-2.1875,-2.5625,-2.6875,0
25470,-1.3125,-2.75,-4.0625,0
25490,-3,-0.9375,-2.4375,0
25500,-2.875,-1.5625,-1.5,0
25520,-1.875,-2.0625,-1.9375,0
25540,-3.8125,-2.3125,-1.75,0
25560,-3.5625,-2.8125,-0.4375,0
25580,-2.8125,-1.5,-0.3125,0
25600,-2.375,-0.5625,-0.375,0
25620,-2.25,-0.0625,-0.375,0
25640,0.125,-0.75,0.3125,0
25660,-0.25,-0.8125,0,0
25680,-0.5625,-0.125,0.6875,0
25700,1.0625,0.1875,0.6875,0
25720,-0.25,1.5,0.6875,0
25740,0.4375,0.5,0.875,0
25760,0.25,-0.125,0.8125,0
25780,0.6875,0.8125,0.625,0
25800,1.5,-1.5,0.25,0
25820,0.375,-0.4375,0.625,0
25840,0.5,-0.125,0.6875,0
25860,-1.875,-1.5,-0.625,0
25880,-3.4375,-1.5625,0.875,0
25900,-1.6875,-1.1875,-0.25,0
25920,-2.1875,-0.3125,-2.125,0
25940,-3.3125,-0.125,-0.8125,0
25960,-5.5,0.875,-0.625,0
25980,-2.9375,3,-1.5625,0
26000,-1.9375,3,-2.625,0
26020,-0.8125,0.9375,-2.0625,0
26040,-1.75,0.1875,-2.875,0
26060,-1.375,-0.25,-0.4375,0
26080,-1.5,-2,0.0625,0
26100,-2.25,-4.75,1.4375,0
26120,-4.125,-3.9375,0.4375,0
26140,-3.375,-4.75,-1.3125,0
26160,-2.875,-6.1875,-2.875,0
26180,-3.875,-5.125,-3,0
26200,-0.9375,-3.375,-4.6875,0
26220,-0.3125,-3.5625,-6.4375,0
26240,-1.75,-5.25,-5.4375,0
26260,-1.4375,-6.5625,-4.8125,0
26280,-2.125,-7.0625,-3.25,0
26300,-2.1875,-6,-1.5625,0
26320,-2.875,-5.9375,-1.125,0
26340,-2.125,-6.8125,-0.3125,0
26360,-0.9375,-8.125,-1.625,0
26380,-1.4375,-6.75,-2.125,0
26400,-0.75,-5.375,-2.5625,0
26420,2.6875,-6,-4.4375,0
26440,1.875,-7.875,-6.3125,0
26460,-0.6875,-8.1875,-5.875,0
26480,0.25,-8.375,-6.5,0
26500,0.9375,-8.875,-7.75,0
26520,-1.9375,-9.5,-9,0
26540,1.0625,-10.1875,-8.125,0
26560,3.0625,-11.5,-8.375,0
26580,2.125,-12.0625,-8.4375,0
26600,1.3125,-11.6875,-6.1875,0
26620,0.375,-11.5625,-4.3125,0
26640,0.6875,-12.0625,-5.0625,0
26660,-1.0625,-12.1875,-5.6875,0
26680,0.1875,-11.1875,-5.375,0
26700,1.875,-11.875,-6.6875,0
26720,1.875,-11.25,-7,0
26740,1.375,-8.6875,-5.5,0
26760,0.875,-7.375,-5.75,0
26780,0.5,-5.25,-5.3125,0
26800,-0.8125,-2.625,-5.0625,0
26820,-2.5625,-1.375,-5.4375,0
26840,-3.125,-0.3125,-5.5,0
26860,-4.1875,3.0625,-5.75,0
26880,-5.6875,5.125,-6.375,0
26900,-9.625,12.5,-2.125,0
26920,-10.0625,19.5,2.5,0
26940,-8.125,20,-0.0625,0
26960,-12.3125,21.0625,4.125,0
26980,-16.3125,23.125,6.8125,0
27000,-16.9375,21.5625,4.75,0
27020,-15.75,20.8125,4.6875,0
27040,-17.625,17.875,2.9375,0
27060,-19.5625,15.1875,2.3125,0
27080,-22.25,15.75,1.75,0
27100,-18.0625,17.375,0.1875,0
27120,-18.875,18.5,2.3125,0
27140,-18.4375,19.75,7.5,0
27160,-20.5625,20.8125,9.5,0
27180,-12.4375,18,7.9375,0
27200,-17.75,16.25,9.0625,0
27220,-19.8125,14.75,10.3125,0
27240,-17.5,14.125,9.5625,0
27260,-13.875,11.0625,8.375,0
27280,-15.1875,10,6.3125,0
27300,-13.375,11.3125,4.4375,0
27320,-8.25,10.125,2.625,0
27340,-7.4375,9.375,2.9375,0
27360,-10,7.5625,3.75,0
27380,-13.3125,8.0625,3.875,0
27400,-9,7.75,4.0625,0
27420,-8.4375,6.875,5.4375,0
27440,-10.3125,6.1875,4.9375,0
27460,-8.3125,5.5625,3.75,0
27480,-4.0625,5.4375,4.6875,0
27490,-6,4.6875,4.0625,0
27510,-2.3125,3.25,3.5,0
27530,-0.9375,2.8125,0.875,0
27550,-0.3125,3.625,0.875,0
27570,-0.5625,3.3125,3.875,0
27590,1.125,2.5,2.9375,0
27610,0.125,0.8125,0.125,0
27630,0.9375,0.75,0.9375,0
27650,1.6875,0.3125,1.25,0
27670,2.3125,0.875,2.1875,0
27690,1.75,-0.4375,1,0
27710,0.9375,-1.6875,0.25,0
27730,3.5625,-0.8125,1.0625,0
27750,1.0625,0,1.5625,0
27770,-0.0625,0.9375,1.25,0
27790,2.125,0,1.125,0
27810,1.125,0.8125,0.875,0
27830,0.6875,1.625,1.25,0
27850,0.6875,1.25,0.5625,0
27870,0,1.5625,1.75,0
27890,-1.375,1.6875,3.125,0
27910,-0.6875,3.125,1.4375,0
27930,-2.875,4.125,-1.625,0
27950,-3.125,5,0,0
27970,-3.5625,6.3125,1.5625,0
27990,0.125,6.4375,-0.5,0
28010,0.4375,5.8125,-0.5625,0
28030,-4.125,4.625,1.3125,0
28050,-3.375,4.0625,2,0
28070,-4,2.5625,0.25,0
28090,-2.4375,0.625,0.4375,0
28110,-2.75,-1.875,0.0625,0
28130,-0.125,-1.8125,0.0625,0
28150,-0.0625,-2.5625,-0.375,0
28170,-2.4375,-3.375,-0.9375,0
28190,-2.25,-2.75,-0.5625,0
28210,-1.5,-3,-0.0625,0
28230,0.0625,-3.875,-0.5625,0
28250,-2.125,-4.3125,-1.5625,0
28270,-1.6875,-4.5,-0.25,0
28290,-0.5,-4.625,0.6875,0
28310,-0.875,-4.8125,-0.0625,0
28330,1,-5.1875,-0.6875,0
28350,0.9375,-7.125,-1.125,0
28370,0.125,-8.25,-0.375,0
28390,1,-8.4375,-0.8125,0
28410,-0.1875,-8.5,-2.75,0
28430,0.875,-9.5625,-4.25,0
28450,3.3125,-11.1875,-3.5,0
28470,3.0625,-12.0625,-3.4375,0
28490,1.625,-11.1875,-3.1875,0
28510,1.6875,-11.125,-3.125,0
28530,-0.6875,-12.875,-5.5625,0
28550,3.1875,-14.0625,-5.6875,0
28570,4.3125,-14.4375,-6.1875,0
28590,2.9375,-15.4375,-6.8125,0
28610,-3.6875,-15.125,-5.5,0
28630,1.625,-13.6875,-4.3125,0
28650,3.4375,-13.8125,-6.6875,0
28670,1.875,-15.125,-7.625,0
28690,-0.125,-16.8125,-5.8125,0
28710,2.9375,-18.125,-6.3125,0
28730,3.4375,-18.25,-9.1875,0
28750,0.4375,-17.625,-6.25,0
28770,-0.8125,-16.6875,-6.4375,0
28790,3.1875,-16.0625,-8,0
28810,2.8125,-15.75,-9.0625,0
28830,0.25,-15.8125,-7.9375,0
28850,-0.3125,-16.375,-8.6875,0
28870,2.4375,-14.125,-8.4375,0
28890,1.5,-12.8125,-9.4375,0
28910,-2.625,-12.125,-7,0
28930,-0.25,-12.6875,-6.75,0
28950,1.125,-13.125,-8.375,0
28970,0.0625,-12.25,-7,0
28990,0.875,-10.4375,-5.875,0
29010,0.75,-4.8125,-5.9375,0
29030,2.25,1.375,-3.8125,0
29050,0.9375,8.25,-1.75,0
29070,-1.125,13.8125,-0.25,0
29090,-10.75,20.0625,5.875,0
29110,-6.3125,26.375,6,0
29130,-6.0625,29.625,4.0625,0
29150,-11.375,28.875,5.6875,0
29170,-14.9375,27.75,8.125,0
29190,-10.0625,24.4375,8.125,0
29210,-10.8125,18.8125,6.8125,0
29230,-10.375,16.3125,7.5,0
29250,-9.375,16.3125,6.3125,0
29270,-5.0625,19.8125,7.6875,0
29290,-9.3125,21.5,8.0625,0
29310,-8.6875,22.8125,7.125,0
29330,-10.8125,25.125,11.125,0
29350,-2.375,26.5,9.6875,0
29370,-3.3125,26.625,8.125,0
29390,-5.4375,25.3125,7.4375,0
29410,1.875,24.125,5.75,0
29430,0.875,20.375,3.6875,0
29450,1.1875,16,4.1875,0
29470,0.375,11.3125,3.6875,0
29490,2.25,7.75,4.6875,0
29510,0.5,5.25,5.4375,0
29530,-1.8125,3.875,5.625,0
29550,-2,3.875,5.875,0
29570,-0.5,4.5625,6.3125,0
29590,0.5625,4.6875,5.8125,0
29610,1.875,4,3.9375,0
29630,-0.625,3.1875,2.8125,0
29650,0.4375,1.1875,3.25,0
29670,1.0625,-0.875,1.8125,0
29690,1.5,-0.9375,1.8125,0
29710,-0.8125,-1.125,3.25,0
29730,-1.25,-0.4375,3.625,0
29750,-1.1875,0.125,2.6875,0
29770,-1.8125,0.4375,2.5,0
29790,-1.625,0.875,2.4375,0
29810,0.375,0.3125,2.875,0
29830,-3.5,1.8125,1.1875,0
29850,-4.625,3.1875,-3.875,0
29870,-3.6875,1.5,-2.1875,0
29890,-2.5,2.4375,-1.125,0
29910,-4.1875,4.125,-0.6875,0
29930,-5.4375,4.0625,0.875,0
29950,-7.875,3.625,1,0
29970,-5.75,3.75,0.875,0
29990,-0.125,4.3125,0.125,0
30010,-0.125,3.375,-1.625,0
30030,-0.1875,2.4375,-1.125,0
30050,0.875,1.75,-0.5,0
30070,1.25,0.6875,-1.5,0
30090,2.0625,0.3125,0.25,0
30110,-0.5,-0.75,1,0
30130,-0.8125,-0.375,2.25,0
30150,0.1875,-0.5625,1.625,0
30170,-0.5,-1.625,0.0625,0
30190,1.375,-2.0625,1,0
30210,0.75,-2.8125,0.4375,0
30230,-2.1875,-5,0,0
30250,-1.5625,-7.5,-0.875,0
30270,-0.25,-9.625,-2.375,0
30290,-1.125,-11.5,-3.375,0
30310,-1.0625,-12.8125,-5.375,0
30330,0.875,-13.8125,-8.1875,0
30350,1.3125,-13.375,-9.75,0
30370,3.6875,-12.75,-10.25,0
30390,6.3125,-13.375,-12.1875,0
30410,3.375,-14.6875,-12.625,0
30430,1.625,-14.75,-11.375,0
30450,4.375,-13.6875,-8.5,0
30470,3.25,-14.0625,-8.75,0
30490,2.125,-15.375,-8.8125,0
30510,-0.5,-16,-6.625,0
30530,2.5,-15.4375,-8,0
30550,6.125,-15.4375,-10.375,0
30570,4.875,-16.6875,-8.375,0
30590,2.75,-16.9375,-7.0625,0
30610,7.8125,-16.8125,-9.3125,0
30630,8.0625,-17.75,-10.75,0
30650,1.9375,-16.5625,-6.1875,0
30670,4.6875,-15.6875,-4.9375,0
30690,4.25,-13.875,-5.875,0
30710,4.75,-13.0625,-5.1875,0
30730,2.9375,-11.75,-1.9375,0
30750,5.25,-10.4375,-1.8125,0
30770,7.125,-7.9375,-2.6875,0
30790,5.375,-4,-0.125,0
30810,3.875,-1.0625,1.75,0
30830,7.25,2.8125,2.25,0
30850,3.6875,11.875,6.9375,0
30870,-7.25,19.8125,12.625,0
30890,-0.625,23.375,15.9375,0
30910,3.6875,26.125,13.125,0
30930,-0.4375,25.3125,12.9375,0
30940,1.75,23.5,13.25,0
30960,3.9375,26.25,13.9375,0
30980,1.9375,29.8125,20.3125,0
31000,6,31,24.25,0
31020,11.75,29.75,23.1875,0
31040,12.1875,30.3125,23.5625,0
31060,11.625,29.375,28.125,0
31080,13.5,26.1875,29.375,0
31100,20.125,22.6875,28.3125,0
31120,26.3125,22.9375,27.8125,0
31140,28.3125,21.1875,28.3125,0
31160,22.9375,18.25,32.1875,0
31180,12.5625,16.625,32.625,0
31200,6.1875,16.9375,31.0625,0
31220,1.8125,14.625,29,0
31240,4.3125,9.125,27.375,0
31260,4,7,24.3125,0
31280,4.875,6.375,19.3125,0
31300,5.875,4.6875,15.3125,0
31320,10.3125,3.5,14.375,0
31340,7.75,4.25,8.875,0
31360,4.6875,3.0625,5.0625,0
31380,8.375,1.9375,7.3125,0
31400,7.9375,2.375,4.75,0
31420,4.75,1.5,1.3125,0
31440,6.4375,2.8125,2.3125,0
31460,4.3125,2.9375,4.375,0
31480,2.1875,2.6875,3.375,0
31500,0.1875,2.25,1.3125,0
31520,-0.1875,1.25,3.4375,0
31540,0.625,2.75,4,0
31560,1.375,3.875,3.3125,0
31580,0.25,6.625,3.875,0
31600,-2.8125,8.6875,2.9375,0
31620,-0.1875,10.4375,2.3125,0
31640,3.8125,12.5625,4.6875,0
31660,-2.375,12.125,3.125,0
31680,-1.8125,12.1875,6.125,0
31700,0.1875,12.5,9.0625,0
31720,-2.25,12.5625,8.875,0
31740,-5.6875,13.5625,10.0625,0
31760,-3.8125,14,10.1875,0
31780,-1.875,12.6875,8.6875,0
31800,1.3125,13.0625,7.6875,0
31820,2.125,12.9375,6.8125,0
31840,2.6875,11,5.25,0
31860,0.25,7.9375,4.1875,0
31880,0.4375,7,1.75,0
31900,2.9375,5.0625,0.5,0
31920,3.3125,4.8125,0,0
31940,2.4375,4.5625,-1.5,0
31960,1.8125,2.8125,-1.4375,0
31980,4.3125,4.0625,-3.875,0
32000,9.125,5.3125,-4.375,0
32020,10.5,6.9375,-6.5,0
32040,16.0625,15.0625,-8.4375,0
32060,22.5625,18.875,-7.5,0
32080,12.625,21.25,-1.1875,0
32100,26.75,33.125,-6.375,0
32120,25.5625,29.0625,-11.9375,0
32140,25.4375,26.375,0.4375,0
32160,32.5625,26.5625,-6.1875,0
32180,34.3125,26.5625,-5.25,0
32200,33.125,21.1875,-3.25,0
32220,28.5625,17.1875,-1.625,0
32240,24.5625,15.6875,1.5,0
32260,19.375,12.125,1.125,0
32280,16.3125,8.625,3.125,0
32300,12.5,6.0625,3.625,0
32320,9.4375,4.75,2.1875,0
32340,4.25,3.9375,2.3125,0
32360,-0.9375,-1.5,2.5,0
32380,0.125,-2.5,2,0
32400,0,-3.375,0.0625,0
32420,-2.125,-4.25,-0.3125,0
32440,2.6875,-0.6875,-2.375,0
32460,3.375,-0.25,-3.25,0
32480,-2.5,-2.875,-0.5,0
32500,-3.75,-2.75,0.6875,0
32520,-0.5625,-0.1875,0.5625,0
32540,3.4375,2.5625,-1.125,0
32560,-0.8125,1.0625,0.375,0
32580,-4.6875,1.375,1.6875,0
32600,0.4375,4.875,0.5,0
32620,2.375,5.75,-1.1875,0
32640,3,4.4375,-2.3125,0
32660,-0.9375,2.5,-1,0
32680,0.375,3.625,-1.8125,0
32700,5.6875,4.125,-3.3125,0
32720,1.75,1.8125,-2.625,0
32740,-4.5,0.4375,-0.5625,0
32760,-3,3.0625,0.5625,0
32780,2.6875,3.625,-0.4375,0
32800,-2,2.0625,-0.5625,0
32820,-6,-0.375,0.4375,0
32840,-2.5,-1.6875,0.75,0
32860,1.875,-0.6875,-1,0
32880,3,-0.75,-2.6875,0
32900,-3.5,-5.75,-1.5625,0
32920,-3.1875,-6.6875,-0.8125,0
32940,-2.625,-7.25,-0.1875,0
32950,4.375,-6.625,-2.125,0
32970,2.3125,-8.8125,-1.8125,0
32990,-4.5625,-12.75,-1.8125,0
33010,-2.5625,-9.4375,-0.0625,0
33030,5.0625,-3.0625,-4.5,0
33050,6.9375,-2.125,-3.4375,0
33070,0.3125,-9.125,-1.25,0
33090,-7.25,-6.6875,0.5625,0
33110,4,0.1875,-1.875,0
33130,6.0625,3.125,-3.25,0
33150,-2.375,-3.8125,-1.6875,0
33170,-4.6875,-2.4375,0.5,0
33190,-0.6875,0,-0.8125,0
33210,3.875,1.9375,-3,0
33230,-1,-0.375,-1.625,0
33250,-4.6875,-2.6875,0.625,0
33270,-1.6875,-0.625,0.875,0
33290,1.8125,2.1875,-2.0625,0
33310,1.375,2.5,-1.9375,0
33330,-3.9375,-1.625,1,0
33350,-4.5,2.5625,1.9375,0
33370,3,3.9375,-0.4375,0
33390,1.3125,2.4375,-0.25,0
33410,-2.4375,1.9375,0,0
33430,-0.4375,3.375,1.1875,0
33440,1.75,3.25,-0.125,0
33460,-0.375,2,-0.5625,0
33480,-3.8125,-0.4375,0.75,0
33500,-1.25,1.6875,1.25,0
33520,3.875,3.9375,-0.9375,0
33540,1.3125,2.0625,-0.625,0
33560,-2.25,-0.6875,0.5625,0
33580,-2.625,-0.9375,0.9375,0
33600,3.4375,0.6875,-0.5625,0
33620,1.6875,-0.5,-1.5,0
33640,-2.25,-3.125,-0.25,0
33660,-1.5625,-1.4375,1.5625,0
33680,1.9375,0.375,-0.125,0
33700,2.6875,0.9375,-0.125,0
33720,-0.5625,-0.9375,0.4375,0
33740,-2.5,-2.3125,1,0
33760,-2,-1,0.4375,0
33780,1.6875,1.8125,-0.9375,0
33800,0.3125,1.75,-0.6875,0
33820,-3.375,-1.625,1.5625,0
33840,-4.6875,-1.875,2.125,0
33860,1.3125,-0.25,0.0625,0
33880,2.8125,1,-1.8125,0
33900,-2.1875,-1.125,-1.25,0
33920,-2.3125,-2.25,0.3125,0
33940,-1.875,-1.125,-0.75,0
33960,0.5,0.5,-1.3125,0
33980,-1.5,0.625,-0.4375,0
34000,-2.9375,-1.5625,0.8125,0
34020,-1.8125,-1.75,0.6875,0
34040,-0.6875,-1.1875,0.5625,0
34060,1.125,0.4375,-2.5625,0
34080,-0.25,-0.5,-1.0625,0
34100,-0.875,-1.4375,-2.125,0
34120,-1.875,-2,1,0
34140,-0.9375,-0.125,-1.1875,0
34160,2.8125,1.125,-2,0
34180,0.3125,-0.125,-1.5,0
34200,-3.3125,-1.625,-0.4375,0
34220,-2.5625,-1,0.1875,0
34240,2.125,0.5,-1.3125,0
34260,0.9375,-0.625,-0.8125,0
34280,-1.375,-2.375,0.5,0
34300,-1.3125,-1.375,0.5625,0
34320,1.625,0.8125,-0.625,0
34340,1.6875,1.125,-0.1875,0
34360,-1.6875,-2,0.8125,0
34380,-1.6875,-1.4375,1.5,0
34400,2.1875,0.4375,-0.5,0
34420,2.1875,0.4375,0.6875,0
34440,-0.5,-1.625,1.5,0
34460,-2.125,-1,2.5,0
34480,-1.375,-1.0625,3.0625,0
34500,1.6875,-0.375,2.5625,0
34520,-2,-3,3.625,0
34540,-6.375,-5.5,4.75,0
34560,-3.9375,-4.9375,4.375,0
34580,1.1875,-3.375,4.0625,0
34600,-0.9375,-3.5625,4.25,0
34620,-4.25,-6.0625,4.3125,0
34640,-3.375,-6.5625,5.25,0
34660,1.25,-5.5,3.5625,0
34680,2.0625,-7.0625,3.375,0
34700,-1.1875,-10.0625,4.5,0
34720,-1.75,-10.5,6.0625,0
34740,-1.3125,-9.25,5.5625,0
34760,2.0625,-8.5,5.0625,0
34780,2.625,-10.3125,5.3125,0
34800,1.4375,-9.9375,5.5625,0
34820,3.4375,-9.9375,4.9375,0
34840,4.5625,-10.5,4.3125,0
34860,5.3125,-10.0625,3.8125,0
34880,4.875,-9.9375,3.75,0
34900,5,-9.5,3.6875,0
34920,5.75,-10.1875,3.9375,0
34940,5.3125,-11.125,3,0
34960,4.375,-10,3.125,0
34980,5.0625,-9.4375,1.9375,0
35000,7.8125,-8.625,0.6875,0
35020,7.9375,-7.875,-0.125,0
35040,8.25,-9.3125,-0.625,0
35060,8.0625,-9.875,-1,0
35080,6.8125,-9.1875,-1.625,0
35100,7,-8.5625,-2.25,0
35120,7.6875,-8.3125,-2.3125,0
35140,7.3125,-9.6875,-3.8125,0
35160,4.75,-11,-3.3125,0
35180,4.375,-10.75,-4.125,0
35200,6.75,-11.1875,-5.125,0
35220,6.875,-12.25,-4.375,0
35240,2.75,-11.8125,-1.4375,0
35260,3.4375,-10.75,-2.9375,0
35280,5.375,-9.375,-3.1875,0
35300,4.0625,-10.1875,-2.25,0
35320,3.0625,-11.125,-0.875,0
35340,2.375,-9.8125,-0.4375,0
35360,2.1875,-8.6875,-1.875,0
35380,0.3125,-9.6875,-0.1875,0
35400,-1,-8.375,-0.0625,0
35420,0.5625,-7.625,-1.3125,0
35440,-3.5,-7.1875,-0.1875,0
35460,-4.375,-8.9375,1.875,0
35480,-6.3125,-5.8125,3.625,0
35500,-4.8125,-3.1875,0.125,0
35520,-0.5625,-1.8125,0.6875,0
35540,-5.0625,-0.3125,0.25,0
35560,-14.6875,2.6875,4.3125,0
35580,-10.875,5.5625,8.0625,0
35600,-4.9375,12.875,2.0625,0
35620,-5.625,19.5,1.4375,0
35640,-6.25,21.875,1.5625,0
35660,-5,19.375,-0.5625,0
35680,-5.25,18.5625,-3.5,0
35700,-7.625,19.1875,-3.625,0
35720,-4.1875,19.5,-3.6875,0
35740,-1.375,18.25,-3.875,0
35760,-4.5,13.625,-3.375,0
35780,-3.3125,12.4375,-3.9375,0
35800,-3,11.875,-4.3125,0
35820,0.375,11.375,-4.25,0
35840,-1.8125,10.9375,-4.5,0
35860,1.625,10.4375,-5.25,0
35880,3.875,9.875,-5.25,0
35900,3.8125,9.8125,-3.8125,0
35920,1.1875,8.9375,-3.5,0
35940,3.25,10.0625,-2.4375,0
35960,4.875,12.0625,-2.8125,0
35980,-0.625,12.1875,-2.6875,0
36000,-5.1875,10.6875,-1.5,0
36020,-2,10.9375,-2.0625,0
36040,-0.4375,12,-1.5,0
36060,-1,11.875,-0.875,0
36080,-2.875,10.5,0.6875,0
36100,1.75,8.125,0.0625,0
36120,3.3125,8.5625,-0.6875,0
36140,2.8125,8,-1.625,0
36160,-0.5,6.9375,-0.8125,0
36180,2.75,5.1875,-0.9375,0
36200,1.0625,4.375,-1.1875,0
36220,-2.125,2.8125,-0.8125,0
36240,-1.5625,1.8125,-1.875,0
36260,-1.625,2.0625,-0.625,0
36280,-2,0.6875,0.3125,0
36300,-4.75,-1.1875,1.1875,0
36320,-2.5625,-2.5625,1.1875,0
36340,-0.875,-3.375,1.0625,0
36360,-0.5625,-3.5625,1.0625,0
36380,0.5625,-3.8125,1.75,0
36390,-0.5625,-4.3125,2.25,0
36410,0.6875,-5.3125,1.625,0
36430,1.25,-7.0625,2.9375,0
36450,-1.4375,-6.5,2.5,0
36470,-0.5625,-5.6875,1.25,0
36490,1.625,-5.8125,1.6875,0
36510,2.1875,-5.4375,1.3125,0
36530,2.8125,-4.25,0.9375,0
36550,2.75,-4.3125,-0.6875,0
36570,1.0625,-6.125,0.125,0
36590,0.125,-5.5625,0.625,0
36610,1.3125,-4.8125,0.625,0
36630,1.25,-3.375,1,0
36650,-0.6875,-2.3125,-0.5,0
36670,-1.125,-0.8125,-0.5,0
36690,1.8125,0.125,-1.0625,0
36710,0.75,-0.6875,-1.375,0
36730,-0.375,0.0625,-1.1875,0
36750,0.9375,1,-0.875,0
36770,-0.875,0.5,-0.9375,0
36790,-3.25,-0.1875,0.125,0
36810,-3.1875,1.125,-0.75,0
36830,-1.875,2.0625,-1.5625,0
36850,-2.5,1.3125,-1.125,0
36870,-3.5,0.1875,0.5,2000
36890,-0.875,0.625,-0.25,0
36910,0,1.125,-1.875,0
36930,0.0625,1.125,-0.9375,0
36950,-0.8125,0.875,0.25,0
36970,-0.875,0.9375,-1,0
36990,-2.875,1.25,0.1875,0
37010,-2.3125,1.125,-0.125,0
37030,-1.0625,1.25,-0.1875,0
37050,-0.0625,0,0.25,0
37070,-0.6875,0.0625,-0.6875,0
37090,0.5625,0.1875,-0.6875,0
37110,0.5,0.125,-0.375,0
37130,-1.4375,-0.75,0.4375,0
37150,-1.8125,-0.5625,0.5625,0
37170,-1.5625,-0.4375,0.1875,0
37190,-0.3125,0.25,-0.3125,0
37210,0.5625,-0.125,-0.0625,0
37230,-0.6875,-0.25,0.125,0
37250,-0.875,-0.5,1.125,0
37270,-1.6875,-1,1.1875,0
37290,-1.375,-0.75,0.4375,0
37310,1.8125,0.125,0.75,0
37330,2.25,-0.3125,0,0
37350,-1.25,-1.6875,0.8125,0
37370,0,-2.8125,1.9375,0
37390,0.8125,-4.125,1.5625,0
37410,2,-3.5,2.125,0
37430,1.3125,-4.8125,3.5625,0
37450,0.5625,-6.8125,4.6875,0
37470,0.875,-8.375,6.3125,0
37490,-0.1875,-8.0625,6.5,0
37510,2.4375,-6.25,6.875,0
37530,4.25,-6.3125,6.25,0
37550,6.5625,-7,6.4375,0
37570,5.625,-6.25,5.5625,0
37590,8.1875,-5.75,5.9375,0
37610,10.125,-7.3125,4.3125,0
37630,12.0625,-7.5625,3.625,0
37650,8.8125,-7.5625,5.5625,0
37670,8.8125,-7.5625,5.375,0
37690,10.625,-6.125,3.375,0
37710,8.3125,-6.625,2.9375,0
37730,5.4375,-7.1875,2.5625,0
37750,8.5625,-7.3125,-0.1875,0
37770,10.4375,-7.125,-2.75,0
37790,10.875,-7.8125,-1.8125,0
37810,14,-10.125,-2.9375,0
37830,13.125,-11.4375,-4.75,0
37850,12.125,-11.1875,-5.375,0
37870,10,-12,-5.125,0
37890,9.625,-13.75,-5.3125,0
37910,8.25,-13.75,-5.5,0
37930,5.5,-12.1875,-3.625,0
37950,7.1875,-14.875,-4.1875,0
37970,8.875,-15.25,-5.625,0
37990,5.375,-12.375,-5.6875,0
38010,4.1875,-11.1875,-3.6875,0
38030,6.75,-10.8125,-3.9375,0
38050,8.6875,-8.3125,-6.25,0
38070,8.1875,-5.25,-6,0
38090,7.875,-5.3125,-7.6875,0
38110,10.1875,-5.625,-10.625,0
38130,12.4375,-5.875,-12.25,0
38150,13.375,-6.9375,-12.1875,0
38170,11.25,-9.25,-12.9375,0
38190,8.6875,-11.25,-15.5625,0
38210,1.75,-11.875,-13.0625,0
38230,3,-12.0625,-15,0
38250,2.5625,-12.375,-19.25,0
38270,3.4375,-17.125,-20.6875,0
38290,-0.375,-17.1875,-22.0625,0
38310,-1.875,-14.5,-20.25,0
38330,-2.25,-13.5,-23.0625,0
38350,-5.3125,-15,-22.4375,0
38370,-8.9375,-14.5,-20.1875,0
38380,-8.25,-8.125,-23.25,0
38400,-6.4375,-6,-22.625,0
38420,-7.3125,-6.9375,-21.75,0
38440,-8.3125,-11.125,-20.6875,0
38460,-11.625,-7.8125,-20,0
38480,-10,-3.5,-20.5,0
38500,-10.9375,-4.25,-25.125,0
38520,-11.125,-7.375,-23.625,0
38540,-11.625,-5.25,-25.8125,0
38560,-10.4375,-4.4375,-26.25,0
38580,-12.0625,-4.4375,-25.9375,0
38600,-12.5625,-2.875,-27.1875,0
38620,-13.875,-2.8125,-26,0
38640,-14.3125,-2.1875,-26.875,0
38660,-14.1875,0,-28,0
38680,-17.0625,-0.25,-28.8125,0
38700,-12.8125,-0.6875,-31.25,0
38720,-13.4375,-1.25,-31.8125,0
38740,-13.125,-0.75,-31.75,0
38760,-12,-0.625,-32.375,0
38780,-11.0625,0.3125,-31.9375,0
38800,-12.125,0,-32.375,0
38820,-14.6875,0.875,-31.3125,0
38840,-14.125,3.4375,-30.75,0
38860,-13.1875,6.125,-30.5,0
38880,-14.5,8.125,-30.1875,0
38900,-18.5625,10.9375,-30,0
38920,-16.625,14.6875,-32.4375,0
38940,-17.5,17.4375,-33.625,0
38960,-19.375,17.25,-34.75,0
38980,-20.1875,17.5,-34.0625,0
39000,-15.5,16.875,-36.1875,0
39020,-13.6875,13.75,-33.4375,0
39040,-15.625,12.5,-32.5625,0
39060,-17.6875,11.3125,-31.5625,0
39080,-15.625,11.8125,-27.125,0
39100,-18,13,-22.4375,0
39120,-25.8125,17.625,-18.9375,0
39140,-23.6875,18.3125,-18.3125,0
39160,-24.375,17,-12.9375,0
39180,-21.875,17.4375,-13.8125,0
39200,-15.25,13.8125,-16.8125,0
39220,-16.0625,9.9375,-17.875,0
39240,-17.125,9,-14.125,0
39260,-20.6875,9.625,-12.125,0
39280,-20.0625,12.3125,-7.3125,0
39300,-8.3125,9.8125,-6.125,0
39320,-6.4375,6.5625,-2.8125,0
39340,-18.875,11.25,2.25,0
39360,-11.625,9.875,3.25,0
39380,-3.1875,6.3125,7,0
39400,-2.5625,8.6875,6.375,0
39420,-4.875,10.4375,4,0
39440,-2.5625,5.125,5.3125,0
39460,-2.0625,3.875,9,0
39480,-1.75,3.4375,9.875,0
39500,-3.9375,0.4375,10.3125,0
39520,-2.625,-3.6875,13.375,0
39540,-4.25,-6,17.6875,0
39560,-8.375,-5.875,19.8125,0
39580,-3.625,-5.875,23.0625,0
39600,0.0625,-7.6875,25.25,0
39620,-3.0625,-6.4375,24,0
39640,-3.5,-6.3125,25.5,0
39660,4.1875,-7.6875,24.5,0
39680,3.375,-8.625,25.0625,0
39700,0.75,-9.75,25.9375,0
39720,4.4375,-10.5,25.8125,0
39740,8.875,-11.75,29,0
39760,2.625,-14.5625,29.3125,0
39780,2.25,-15.6875,30.6875,0
39800,1,-17.125,31.625,0
39820,0.9375,-19,33.125,0
39840,3.6875,-21.125,33.6875,0
39860,7.5625,-22.0625,31.75,0
39880,5.75,-25.0625,32.875,0
39900,8.625,-25.875,33.4375,0
39920,12.0625,-25.9375,31.6875,0
39940,9.3125,-27.375,30.8125,0
39960,9.3125,-28.9375,32.4375,0
39980,11.25,-30.75,32.0625,0
40000,11.1875,-31.625,30.0625,0
40020,9.4375,-33.0625,29.5625,0
40040,9.9375,-34.625,29.6875,0
40060,12.0625,-35.5,27.1875,0
40080,11,-36.25,25.625,0
40100,10.3125,-35.25,25.4375,0
40120,9.125,-33.3125,25.5625,0
40140,7.9375,-32.5,25.25,0
40160,11.8125,-30.75,24.5625,0
40180,7.4375,-30.3125,24.6875,0
40200,2.875,-30.75,26.5625,0
40220,1.5,-30.5,28.125,0
40240,2.5,-29.8125,24.5,0
40260,2.0625,-30.25,23.375,0
40280,-2.125,-32.25,22,0
40300,-0.8125,-32,20.5625,0
40320,3.625,-34.1875,17.625,0
40340,5,-39.3125,16.0625,0
40360,0.125,-40.9375,14.25,0
40380,-1,-39.125,10.3125,0
40400,5.25,-38.3125,9.5625,0
40420,9.1875,-43.0625,4.25,0
40440,6.1875,-44.25,-3.0625,0
40460,5.9375,-41.4375,-9.6875,0
40480,4.25,-37.5625,-12.0625,0
40500,3.0625,-33.6875,-15.4375,0
40520,4.75,-32.25,-20.6875,0
40540,3.875,-27.0625,-22.4375,0
40560,-1.0625,-23,-22.1875,0
40580,-4.5,-20.5625,-23.5,0
40600,-8.25,-20.8125,-26.8125,0
40620,-5.0625,-18.1875,-29.75,0
40640,-6.125,-14.6875,-32,0
40660,-11.3125,-12.625,-31.875,0
40680,-10,-11.9375,-35.875,0
40700,-10.375,-7.375,-35.75,0
40720,-13.6875,-1.5,-29.4375,0
40740,-14.9375,0.9375,-29.875,0
40760,-17,4.4375,-32.125,0
40780,-20.5,9.1875,-31.125,0
40800,-17.5,9.8125,-30.125,0
40820,-17.625,8.5625,-34.125,0
40840,-19.8125,8,-35.875,0
40860,-19.3125,10,-38,0
40880,-17.75,11.4375,-38.3125,0
40900,-18.6875,11.1875,-40.375,0
40920,-23.4375,11.5,-41.125,0
40940,-22.5,13.3125,-40.1875,0
40960,-20.3125,13.25,-40.125,0
40980,-23.125,13.8125,-38.75,0
41000,-25.625,17.375,-35.5625,0
41020,-23.5625,22.0625,-34.5,0
41040,-25.1875,26.5,-32.1875,0
41060,-25.8125,27.9375,-30.625,0
41080,-24.9375,27.125,-32.5,0
41100,-17.875,27,-33.5,0
41120,-18.375,21,-30.75,0
41140,-18.125,17.9375,-31.25,0
41160,-15.25,18.5,-29.8125,0
41180,-14.5,21.0625,-29.125,0
41200,-15.75,22.0625,-27.0625,0
41220,-18.5,22.875,-25.625,0
41240,-15.6875,22.4375,-25.875,0
41260,-16.3125,22.4375,-24.125,0
41280,-19.75,25.125,-23.125,0
41300,-16.6875,25.125,-23.6875,0
41320,-13.0625,23.25,-23.5,0
41340,-14.5,22.9375,-23.1875,0
41360,-15.4375,22,-20.5625,0
41380,-12.3125,21.8125,-20.9375,0
41400,-10.75,21.3125,-20.125,0
41420,-15.0625,20.8125,-16.75,0
41440,-12.5625,21.625,-15.125,0
41460,-9.5625,19.8125,-17,0
41480,-8.125,17.9375,-16.625,0
41500,-13,17.875,-11.375,0
41520,-12,18.6875,-8.1875,0
41540,-6.375,17.4375,-7.625,0
41560,-4.125,15.75,-7.6875,0
41580,-12.9375,17.25,0.5625,0
41600,-13.5625,17.3125,5.5,0
41620,-3.5,16.125,2.875,0
41640,-2.0625,16.0625,4.4375,0
41660,-10.3125,15.5625,10.75,0
41680,-6.1875,12.5625,12.25,0
41700,1.1875,9.4375,12.4375,0
41720,1.875,7.5,15.0625,0
41740,0.875,4.9375,17.3125,0
41760,4.6875,0.5625,18.0625,0
41780,2.875,-2.3125,20.125,0
41800,-3.875,-1.75,21.9375,0
41810,3.0625,-4.125,21.5,0
41830,6,-5.625,24.3125,0
41850,4.1875,-4.625,23.8125,0
41870,0.875,-4.3125,24.9375,0
41890,5.8125,-5.3125,25.5625,0
41910,10.8125,-5.3125,24.4375,0
41930,8.1875,-6.25,25.0625,0
41950,3.625,-7.75,26.5625,0
41970,5.625,-10.25,28.125,0
41990,7.3125,-11,27.5,0
42010,5.6875,-9.25,28.25,0
42030,4.6875,-11,29.5625,0
42050,5,-15.0625,29,0
42070,5.75,-17.1875,28.8125,0
42090,5.625,-16.9375,30,0
42110,5.9375,-19.3125,28.9375,0
42130,7.375,-22.25,28.125,0
42150,9.4375,-20.875,28.0625,0
42170,7.3125,-20,28.5,0
42190,9.8125,-21.6875,29.6875,0
42210,11.0625,-23.5,27.75,0
42230,8.9375,-24.0625,27.875,0
42250,8.1875,-25.25,29.875,0
42270,12.0625,-25.4375,29.6875,0
42290,8.625,-25.1875,28.125,0
42310,3.5625,-28,31.875,0
42330,10.25,-29.625,30.4375,0
42350,8.5625,-30.5,27.625,0
42370,4.75,-30.125,29.125,0
42390,5.9375,-30.25,29.1875,0
42410,7.25,-30.25,26.6875,0
42430,5.6875,-29.6875,24.625,0
42450,7.6875,-29.125,24.375,0
42470,9.375,-30.375,21.6875,0
42490,8.6875,-30.0625,19.4375,0
42510,5,-29.0625,19.8125,0
42530,7.5,-27.75,18.9375,0
42550,6.6875,-26.375,15.75,0
42570,2.4375,-25.1875,15.1875,0
42590,2.625,-24.3125,13.9375,0
42610,4.3125,-26,9.375,0
42630,5.375,-27.9375,5.875,0
42650,-1.0625,-29.125,2.8125,0
42670,-4.0625,-28.6875,1,0
42690,3.125,-27.5625,-4.5,0
42710,2.1875,-29.8125,-10.875,0
42730,-0.3125,-29.8125,-14.6875,0
42750,-7.125,-27.5,-18.3125,0
42770,-2.0625,-25.625,-21.5625,0
42790,-2.75,-25.1875,-22.8125,0
42810,-6.5625,-25.9375,-23.0625,0
42830,-9.75,-22.625,-23.8125,0
42850,-12.6875,-18.8125,-24.1875,0
42870,-13.1875,-16.375,-23.9375,0
42890,-11.6875,-15.1875,-27.125,0
42910,-4.5,-7.3125,-33.875,0
42930,-6,-4.5625,-36.9375,0
42950,-17.25,-5,-34.5625,0
42970,-10.625,-3.4375,-35.375,0
42990,-10.625,-1.75,-35.0625,0
43010,-18.0625,1.875,-31.4375,0
43030,-16.8125,4.5,-30.625,0
43050,-21,6.9375,-31.9375,0
43070,-22,7.625,-31.75,0
43090,-22.4375,5.5,-31.625,0
43110,-23.5,6.0625,-33.5625,0
43130,-21.875,5.75,-34,0
43150,-21.8125,4.6875,-35,0
43170,-18.375,5.625,-37.9375,0
43190,-19.5625,7.9375,-39.0625,0
43210,-23.4375,9.5625,-35.75,0
43230,-23.4375,7.8125,-33.5625,0
43250,-20.6875,9.6875,-32.375,0
43270,-24.5,15.8125,-29.8125,0
43290,-29.875,21.5,-29.375,0
43310,-27.375,26.75,-30.4375,0
43330,-24,30,-32.5,0
43350,-19.625,28.9375,-35.125,0
43370,-18.625,28.625,-34.5625,0
43390,-17.6875,28,-34,0
43410,-17.8125,27.1875,-32.625,0
43430,-17.6875,26.6875,-32,0
43450,-19.1875,30.6875,-29.75,0
43470,-18,32.375,-27.625,0
43490,-16.0625,34,-25.5,0
43510,-15.375,35.75,-23.3125,0
43530,-17.25,38.5,-19.5,0
43550,-14.4375,39.375,-16.4375,0
43570,-11.6875,37.5625,-14.75,0
43590,-10,34.125,-14.1875,0
43610,-6.6875,31.1875,-11.375,0
43630,-6.875,29.625,-7.8125,0
43650,-2,27.1875,-3.4375,0
43670,-1.25,24.1875,-4.0625,0
43690,0.1875,22.9375,-3.5,0
43710,-3.8125,20.4375,0.125,0
43730,-0.5,17.5,3.25,0
43750,-0.125,14.4375,2.0625,0
43770,2.75,14.5,2.125,0
43790,-7.75,14.6875,4.8125,0
43810,-2.5625,13.4375,6.125,0
43830,2.875,14.6875,7.6875,0
43840,1.6875,16.875,8.125,0
43860,0.25,16.125,12.5625,0
43880,1.5,14.0625,17.625,0
43900,-1.9375,12.75,19.4375,0
43920,-5.625,10.75,22.25,0
43940,-2.5625,7.75,25,0
43960,-7.75,5,28.5,0
43980,-8.8125,4.4375,31.625,0
44000,-1.125,2.875,29.875,0
44020,2,1.3125,28.6875,0
44040,-0.25,0.875,29.9375,0
44060,0.4375,-3.1875,32.0625,0
44080,9.9375,-4.625,32.6875,0
44100,6.75,-6.125,31.125,0
44120,4.3125,-8.5625,32.0625,0
44140,9.25,-12.5,33.6875,0
44160,8.75,-16.875,31.625,0
44180,8.375,-17.9375,30.75,0
44200,7.5625,-19.3125,32.5,0
44220,9.875,-21.5625,29.3125,0
44240,9.0625,-24.3125,28.875,0
44260,11,-24.1875,28.9375,0
44280,12.0625,-23.625,26.625,0
44300,10.25,-25.4375,26.5,0
44320,8.9375,-28,25.9375,0
44340,10.9375,-27.0625,23.9375,0
44360,9.4375,-26.1875,23.75,0
44380,9.5625,-26.875,23.75,0
44400,11.6875,-27.125,21.625,0
44420,11.5,-25.125,21.75,0
44440,12,-23.625,19.8125,0
44460,13.625,-23.8125,20.3125,0
44480,11.625,-24.5,19.5625,0
44500,9.25,-23.8125,19.8125,0
44520,4.6875,-24.1875,21.125,0
44540,3.3125,-24.8125,21.1875,0
44560,3.375,-26.75,20.125,0
44580,0,-28.5625,18.8125,0
44600,-3,-28.3125,17.5625,0
44620,1.125,-28.8125,16.375,0
44640,3.6875,-30.75,11.6875,0
44660,1,-32,7.8125,0
44680,-0.25,-32.125,5.9375,0
44700,2.875,-32.25,2.375,0
44720,3,-34,-1.9375,0
44740,3.375,-35.3125,-3.125,0
44760,-3.4375,-34.3125,-5.5,0
44780,-5.5625,-32.3125,-5.3125,0
44800,-2.4375,-32.0625,-6.5,0
44820,-4.6875,-31.75,-8.8125,0
44840,-8.9375,-29.875,-10.4375,0
44860,-6.1875,-27.3125,-11.625,0
44880,-3.4375,-25.1875,-16.0625,0
44900,-4.3125,-22.3125,-20.5625,0
44920,-7.125,-20.9375,-18.1875,0
44940,-6.875,-17.75,-18.6875,0
44960,-4.6875,-16.1875,-19.375,0
44980,-9.875,-16.375,-18.5625,0
45000,-12.25,-15.9375,-18.125,0
45020,-6.0625,-14.6875,-18.9375,0
45040,-8.3125,-13.6875,-21.25,0
45060,-10.5625,-11,-21.375,0
45080,-6.375,-10.0625,-19.875,0
45100,-2.6875,-9.625,-20.875,0
45120,-3.75,-7.0625,-23,0
45140,-4.375,-4.125,-20.9375,0
45160,-2.5625,-2.625,-18.1875,0
45180,1.9375,0.875,-18.375,0
45200,-2.5,1.5,-18.8125,0
45220,-7.75,1.6875,-18.875,0
45240,-2.25,2.0625,-17.5,0
45260,0.5,2.1875,-18.25,0
45280,-1.875,3,-18.75,2001
45300,-1.375,2.3125,-18.0625,0
45320,-1.625,2.0625,-16.9375,0
45340,-2.0625,2.875,-16.625,0
45360,-0.375,2.8125,-12.8125,0
45380,-2,1.75,-8.0625,0
45400,-6.4375,2.875,-4.9375,0
45420,-6.625,0.5625,-0.125,0
45440,-4.75,-2.5,2.3125,0
45460,-5.6875,-1.6875,2.125,0
45480,-3.375,-2.5,2.5,0
45500,1.75,-2.5,-0.75,0
45520,5,-4.25,-0.125,0
45540,3.6875,-5,-1.5625,0
45560,7.375,-4.875,-1.125,0
45580,5.5,-6.3125,3.3125,0
45600,1.125,-3.8125,6.125,0
45620,0.875,-3.3125,6.5625,0
45640,-0.8125,-4.125,9.0625,0
45660,2.6875,-4.0625,7.1875,0
45680,3.5625,-5.0625,4.9375,0
45700,8,-9.5625,6.0625,0
45720,14.25,-13.75,3.1875,0
45740,14.75,-14.4375,3.375,0
45760,15.0625,-11.875,8.625,0
45780,20.75,-9.9375,13.1875,0
45800,28.0625,-10.6875,17.4375,0
45820,31.3125,-10.5625,19,0
45840,31.5,-10.125,24.875,0
45860,30.6875,-6.8125,31.625,0
45880,35.9375,0.8125,37.6875,0
45900,44.375,12,38.125,0
45920,42.625,19.625,40.1875,0
45940,50.4375,26.4375,44.125,0
45960,63.875,29.375,45.125,0
45980,60.1875,31.6875,47.4375,0
46000,61.9375,33.75,42.875,0
46020,62.75,41.6875,46.5,0
46040,66.5625,46.3125,49.875,0
46060,71.6875,40.875,47.125,0
46080,69.0625,43.125,40.3125,0
46100,63.875,49.0625,37.25,0
46120,56.9375,52.125,41.25,0
46140,54.4375,51.5625,38.6875,0
46160,55,50.5625,34.375,0
46180,56.25,48.9375,29.5,0
46200,49.6875,50.5,26.25,0
46220,44.6875,53.25,26.3125,0
46240,42.125,50.8125,26.4375,0
46260,38.6875,48.5625,22.5,0
46280,38.5,50.9375,18.4375,0
46300,30.1875,52.625,22.125,0
46320,26.1875,45,22,0
46340,23.625,38.3125,15.5625,0
46360,17.6875,36.375,14.375,0
46380,15.1875,33.375,12.5,0
46400,13.25,29.6875,7.1875,0
46420,10.4375,23.5,5.5625,0
46440,6.8125,21.875,6.125,0
46460,5.125,21,6.5625,0
46480,2.25,16.1875,8.6875,0
46500,-2.625,14.0625,8,0
46520,-1.125,12.1875,8.6875,0
46540,3.9375,7.25,7.3125,0
46560,3.3125,1.125,6.0625,0
46580,0.25,1.25,5.75,0
46600,1.125,4.375,6,0
46620,1.6875,2.8125,4.6875,0
46640,0.875,0.9375,3.4375,0
46660,1.375,1.8125,2.125,0
46680,1.5,4.9375,2.9375,0
46700,0.8125,5.1875,4.0625,0
46720,-1.3125,4.875,2.875,0
46740,-1.6875,5.5,2.875,0
46760,-2.75,6.1875,5.375,0
46780,0,5.375,4.5625,0
46800,0.6875,3.4375,1.75,0
46820,-0.3125,3.625,3.0625,0
46840,0.1875,4.25,6.4375,0
46860,2.6875,4.0625,3.6875,0
46880,1,2.375,0.3125,0
46900,-0.4375,2.0625,2.8125,0
46920,0.125,2.6875,3.25,0
46940,1.9375,1.6875,1.1875,0
46960,-1.5625,3.1875,0.25,0
46980,-0.5625,5.125,-1.25,0
47000,1.6875,4.4375,-2.5625,0
47020,-1.875,4.8125,-2.1875,0
47040,-2.375,6.625,-2.0625,0
47060,-0.5625,5.6875,-2.25,0
47080,-1.8125,4,-2.375,0
47100,-3.0625,3.5,-1,0
47120,-2.75,3.375,-0.5,0
47140,-1.3125,2.6875,-0.1875,0
47160,-0.4375,0.6875,0.375,0
47180,-0.875,-1.1875,-0.125,0
47200,-0.25,-1.75,0.5625,0
47220,0.5,-1.625,1.625,0
47240,-0.125,-3.25,1.5,0
47250,-0.5625,-3.625,1.875,0
47270,1.4375,-1.5625,1.25,0
47290,0.875,-1.6875,0.875,0
47310,-0.5625,-3.3125,1.1875,0
47330,-1.6875,-2.5625,0.9375,0
47350,0.5,-0.5,0.4375,0
47370,0.6875,-0.3125,-0.0625,0
47390,0,-2.125,0.8125,2000
47410,-1.4375,-4.5,1.75,0
47430,-0.0625,-5.625,0.875,0
47450,-0.375,-6.25,1,0
47470,-1.6875,-6,1.1875,0
47490,-2.75,-5.25,1.0625,0
47510,-1.375,-3.875,0.3125,0
47530,0.1875,-3.3125,0.625,0
47550,-1.25,-2.9375,1.125,0
47570,0.5,-5.0625,1.1875,0
47590,-0.875,-7.6875,2.1875,0
47610,0.5625,-9.1875,2.75,0
47630,0.5,-9.0625,2.625,0
47650,1.5,-8.375,2.625,0
47670,1.25,-7.75,2.75,0
47690,1.0625,-7.8125,2.9375,0
47710,0.6875,-9.0625,3.875,0
47730,0.125,-9.0625,5.375,0
47750,1.875,-8.9375,4.4375,0
47770,0.3125,-9.5625,4.5,0
47790,2.6875,-9.8125,4.6875,0
47810,4.125,-11.25,3.125,0
47830,3.625,-13.5625,1.8125,0
47850,2.3125,-14.75,3.125,0
47870,3.5625,-15.375,2.3125,0
47890,4.875,-15.8125,0.8125,0
47910,3.8125,-15.5,1.8125,0
47930,2.125,-14.5,2.875,0
47950,3.6875,-14.5,1.8125,0
47970,4.5625,-14.0625,0.5625,0
47990,2.875,-11.6875,1.75,0
48010,4.25,-9.5,1.5,0
48030,6.4375,-11.5,0.875,0
48050,3.625,-13.5625,-0.3125,0
48070,3.125,-14.75,-0.9375,0
48090,4.625,-15.1875,0.625,0
48110,4.125,-15.75,0.25,0
48130,4.3125,-15.8125,-2.875,0
48150,1.875,-14.625,-2.8125,0
48170,4.625,-12.75,-2.4375,0
48190,5,-13.8125,-4.25,0
48210,2.5,-12.625,-4.4375,0
48230,1.9375,-10.9375,-6.3125,0
48250,3.125,-13.0625,-7.5625,0
48270,2.125,-15.8125,-6.8125,0
48290,1,-16.375,-5.75,0
48310,-0.3125,-14.25,-4.375,0
48330,0.4375,-12.3125,-5.8125,0
48350,0.125,-11.25,-7.0625,0
48370,1.25,-9.4375,-11.6875,0
48390,3.375,-9.3125,-12.5,0
48410,4.5,-9.4375,-15.8125,0
48430,1.625,-7.125,-16.5625,0
48450,-1.5625,-6.0625,-17.375,0
48470,-0.5,-5.3125,-16.8125,0
48490,-2.0625,-5.5625,-16.4375,0
48510,-5.8125,-6.1875,-17.875,0
48530,-8.8125,-5.8125,-18.625,0
48550,-7.875,-4.9375,-20.625,0
48570,-11.3125,-6.875,-21.3125,0
48590,-16.8125,-6.9375,-23.0625,0
48610,-17.5625,-2.6875,-21.9375,0
48630,-16.125,-1.375,-22.4375,0
48650,-17.4375,-1.3125,-22.125,0
48670,-18.5,-1.3125,-20.4375,0
48690,-18.9375,0.0625,-19.375,0
48710,-18.6875,1.8125,-16.5625,0
48730,-19.6875,4.75,-14.9375,0
48750,-21.875,8.1875,-13.75,0
48770,-22.375,9.875,-13.0625,0
48790,-23.5,11.5,-13.9375,0
48810,-24.1875,12,-17.625,0
48830,-24.9375,10.5,-19.625,0
48850,-23,9.625,-22.3125,0
48870,-24.1875,8.0625,-25.6875,0
48890,-25.5625,6.75,-26.4375,0
48910,-23.3125,5,-27.5,0
48930,-23.125,4.6875,-28.1875,0
48950,-24,4.9375,-28.5625,0
48970,-24.75,4.9375,-29,0
48990,-25.3125,5.25,-29.0625,0
49010,-24.4375,6.0625,-30.125,0
49030,-25.1875,6.125,-31.625,0
49050,-25.125,6.6875,-31.4375,0
49070,-24.4375,8.75,-31.875,0
49090,-23.4375,10.625,-30.6875,0
49100,-24.0625,11.3125,-29.5,0
49120,-24.625,12.9375,-28.0625,0
49140,-24.5,15.4375,-26.4375,0
49160,-24.3125,17.125,-25.25,0
49180,-25.375,18.625,-24.3125,0
49200,-26.6875,20.1875,-22.8125,0
49220,-24.875,21.3125,-22.6875,0
49230,-25.3125,19.9375,-21.8125,0
49250,-24.375,19.25,-22,0
49270,-23.9375,19.5,-22.375,0
49290,-23.9375,21.375,-23.0625,0
49310,-23.625,22.75,-24.75,0
49330,-22.8125,24,-25.8125,0
49350,-23.8125,25.125,-25.8125,0
49370,-24,27.5,-26.75,0
49390,-23.3125,28.375,-26.375,0
49410,-21.5,29.125,-28.0625,0
49430,-23.375,27.5625,-26.625,0
49450,-23.875,27.1875,-26.125,0
49470,-25.0625,25.5,-24.6875,0
49490,-25.875,24.75,-23.6875,0
49510,-24.875,23.6875,-22.25,0
49530,-24.9375,22.5,-20.0625,0
49550,-24.4375,22.25,-16.3125,0
49570,-26.125,23.8125,-13.8125,0
49590,-22.6875,24.625,-14.125,0
49610,-23.3125,22.9375,-10.5625,0
49630,-25,21.875,-7.625,0
49650,-19.6875,21.1875,-8.5625,0
49670,-20.8125,20.125,-10.5625,0
49690,-17.75,19.0625,-7.75,0
49710,-15.9375,14.4375,-4.3125,0
49730,-10.1875,12.375,-6.625,0
49750,-7,10.5625,-6.625,0
49770,-13.75,13.5625,-0.875,0
49790,-13.9375,13.6875,5.3125,0
49810,-4.875,9.8125,3,0
49830,-5.125,5.875,5.5625,0
49850,-15.1875,9.6875,11.9375,0
49870,-9.4375,8.125,14.1875,0
49890,-1.5,4.25,11.1875,0
49910,-1.625,3.4375,13.5,0
49930,-9.8125,5.625,20.375,0
49950,-4.5,4.0625,21.8125,0
49970,1.9375,1.1875,17.8125,0
49990,0.375,1.5625,21.5,0
50010,-1.6875,0.5,22.9375,0
50030,0.1875,-3.4375,22.0625,0
50050,7,-7.1875,18.4375,0
50070,5.0625,-8.5625,18.5,0
50090,1.75,-9,20.3125,0
50110,8.125,-13,18.625,0
50130,6.0625,-13.5625,17.75,0
50150,6.0625,-12.8125,19.8125,0
50170,3.5,-13.875,21,0
50190,4.3125,-15.6875,21.1875,0
50210,2.625,-16.125,23.0625,0
50230,4.0625,-16.3125,23,0
50250,5.4375,-17.3125,23.4375,0
50270,7.625,-19.8125,23.9375,0
50290,8.5625,-21.8125,24.25,0
50310,12.5,-22.6875,23.75,0
50330,12.0625,-24.4375,24.125,0
50350,11.1875,-27,26.1875,0
50370,11.9375,-29.3125,28.25,0
50390,12.875,-30.25,27.0625,0
50410,11.6875,-31.625,26.9375,0
50430,13.3125,-33.1875,28.0625,0
50450,15.3125,-33.6875,27.0625,0
50470,15.6875,-33.375,26.0625,0
50490,14.4375,-34.875,25.8125,0
50510,15.4375,-35,25.125,0
50530,14.75,-35.625,25.5,0
50550,14.125,-35.5,26.125,0
50570,13.75,-35.25,25.8125,0
50590,12.5625,-33.625,26.875,0
50610,11.5625,-32.25,27.25,0
50630,11.875,-31.4375,26.75,0
50650,11.3125,-30.0625,26.5,0
50670,11.0625,-29.5625,25.25,0
50690,11.3125,-28.875,23.1875,0
50710,8.75,-27.875,22.625,0
50730,6.75,-29.4375,25.6875,0
50750,8.8125,-30.375,22.3125,0
50770,7.6875,-30.3125,20.875,0
50790,6.875,-29.375,22.6875,0
50810,6.875,-30.125,21.625,0
50830,5.875,-30.5625,18.5,0
50850,2.0625,-28.75,18.125,0
50870,5.1875,-31,16.4375,0
50890,9.375,-33.4375,11.8125,0
50910,3.625,-33.9375,10.25,0
50930,-0.8125,-35.0625,11.25,0
50950,2.1875,-35,9.5,0
50970,4.6875,-36.375,3.5625,0
50990,-1.9375,-36.4375,3.1875,0
51010,-2.3125,-35.5625,5.5625,0
51030,1.5,-37.25,-1.4375,0
51050,-0.625,-37.625,-5.625,0
51070,-2.5625,-35.6875,-6.1875,0
51090,-1.875,-34.625,-9.0625,0
51110,0.25,-33.25,-12.8125,0
51130,-4.875,-31.125,-14.5,0
51150,-7.4375,-27.75,-15.4375,0
51170,-4.875,-24.9375,-19.8125,0
51190,-7.1875,-22.8125,-24.5,0
51210,-10.0625,-19.3125,-23.5625,0
51230,-11.8125,-16.375,-23.5625,0
51250,-7.8125,-13.75,-28.8125,0
51270,-11.125,-10,-30.75,0
51290,-15.5,-4.8125,-28.125,0
51310,-15.1875,-2.1875,-28.0625,0
51330,-14.625,0.6875,-31,0
51350,-17.9375,4.6875,-32.5625,0
51370,-20.9375,6.5,-28.9375,0
51390,-21.5625,6.0625,-30.1875,0
51410,-23.6875,8.5625,-29.3125,0
51430,-27.3125,15.3125,-28.4375,0
51450,-27.0625,17.25,-29.8125,0
51470,-25.6875,17.9375,-32.75,0
51490,-30,19.75,-33.8125,0
51510,-34.4375,21.1875,-32.4375,0
51530,-35.875,21.0625,-33.5625,0
51550,-38.375,24.1875,-34.9375,0
51570,-41.3125,26.5625,-34.125,0
51590,-40.1875,27.375,-36.3125,0
51610,-40.9375,29.625,-37.0625,0
51630,-41.3125,32.75,-38.875,0
51650,-40.5625,34.125,-38.0625,0
51670,-40.8125,35.6875,-35.75,0
51690,-41.875,39.0625,-33.125,0
51710,-41.8125,42.3125,-30.5,0
51730,-39.25,42.75,-28.4375,0
51750,-34.75,40.875,-28.875,0
51770,-34.1875,36.6875,-26.625,0
51790,-34.5625,33.875,-24.75,0
51810,-31.5625,33.25,-23.9375,0
51830,-31.125,33.875,-22.375,0
51850,-28.6875,32.75,-22.5,0
51870,-30.5,29.6875,-19.4375,0
51890,-32.375,31.75,-16.4375,0
51910,-32.4375,34.625,-13.8125,0
51930,-30.625,35.125,-12.6875,0
51950,-21.375,33.0625,-12.0625,0
51970,-16,29.5,-11.4375,0
51990,-15.625,27.75,-11.25,0
52010,-17.625,26.875,-10.9375,0
52030,-12.3125,22.5,-9.375,0
52050,-6.5625,17.25,-10.1875,0
52070,-14.6875,19.875,-6.5625,0
52090,-13.0625,19.125,-2.25,0
52110,-6.125,16.125,-0.3125,0
52130,-1.5625,11.375,2.3125,0
52150,-9.625,10.5,4.875,0
52170,-10.5625,12.6875,7.3125,0
52190,-3.8125,12.125,9.125,0
52210,2,9.0625,9.3125,0
52230,-3.375,11.5,10,0
52250,-0.6875,12.375,12.0625,0
52270,4.25,10.1875,12.625,0
52290,11.625,8.9375,11.1875,0
52310,4.375,9.9375,14.375,0
52330,15.5625,9.25,14.375,0
52350,12.6875,4.875,14.25,0
52370,8.0625,3.3125,19.9375,0
52390,10.9375,0.4375,21.4375,0
52410,10.25,-3.4375,19.875,0
52430,15.4375,-7.8125,19.5625,0
52450,7.75,-6.0625,22.3125,0
52470,8.75,-6.5,25.375,0
52490,13.375,-11.1875,26.75,0
52510,16,-12.125,26.5,0
52530,12.4375,-11.1875,26.6875,0
52550,17,-13.5625,27.3125,0
52570,19.3125,-17.6875,27,0
52590,19,-19.6875,26.3125,0
52610,19.75,-19.9375,26.25,0
52630,20.625,-24.1875,27,0
52650,20.3125,-27.625,28.125,0
52670,18.9375,-27.8125,27.6875,0
52690,19.25,-28.375,27.5625,0
52700,19.9375,-30.6875,26.375,0
52720,17.5,-32.5,26.375,0
52740,16.9375,-32.1875,27.1875,0
52760,20.25,-32.125,25.8125,0
52780,18.8125,-33.875,23.6875,0
52800,16.125,-34.125,24.4375,0
52820,15.625,-32.5625,24.75,0
52840,18.125,-31.5,23.4375,0
52860,15.625,-32.5625,23.5,0
52880,14.5,-32,22.5,0
52900,15.3125,-31.0625,21.5625,0
52920,10,-30.875,22.6875,0
52940,10.875,-31.8125,23.4375,0
52960,11.1875,-32,21.875,0
52980,10.875,-33,21.5625,0
53000,6.5625,-34.625,21.9375,0
53020,5.5,-35,20.9375,0
53040,7.0625,-32.8125,18.875,0
53060,4.8125,-30.9375,17.4375,0
53080,5.25,-31.5625,17.25,0
53100,5.5625,-32,14.5,0
53120,1.4375,-32.1875,11.1875,0
53140,0.5625,-32.9375,10,0
53160,2.125,-34.75,6.9375,0
53180,2,-35.375,3.9375,0
53200,-0.875,-35.25,0,0
53220,-1.125,-34.0625,-3.375,0
53240,-3.6875,-32.375,-8,0
53260,-7.9375,-32.25,-11.125,0
53280,-5.75,-30.875,-13.1875,0
53300,-7.5625,-28.8125,-16.75,0
53320,-10.25,-26.625,-20.5625,0
53340,-18.875,-26.5,-18.9375,0
53360,-14.625,-25.1875,-20.9375,0
53380,-12,-24.625,-27.6875,0
53400,-21.75,-22.0625,-30.125,0
53420,-20.625,-23.9375,-30.25,0
53440,-25.8125,-27.5,-28.0625,0
53460,-30,-24.5625,-25,0
53480,-29.5,-17,-25.25,0
53500,-26.375,-10.625,-29.8125,0
53520,-28.25,-6.6875,-32.6875,0
53540,-27.8125,-5.5,-31.9375,0
53560,-27.0625,-1.9375,-33,0
53580,-24.625,0.75,-36.125,0
53600,-25.1875,0.8125,-38.6875,0
53620,-33.25,1.75,-35.1875,0
53640,-30.1875,4.25,-37.25,0
53660,-32.0625,10.375,-40.5,0
53680,-33.5,14.875,-41.0625,0
53700,-34.9375,15.875,-40.375,0
53720,-34.5625,18.625,-38.5,0
53740,-26.875,19.6875,-42.4375,0
53760,-29.625,21.375,-41.375,0
53780,-34.1875,23.1875,-37,0
53800,-34.0625,25.25,-35.25,0
53820,-30,28.625,-35.875,0
53840,-34.6875,32,-32.1875,0
53860,-37.125,34,-28.8125,0
53880,-31.25,37.125,-28,0
53900,-30.6875,40.625,-25.5,0
53920,-25.9375,42.125,-26.3125,0
53940,-26.875,42.75,-24.25,0
53960,-25.625,46.8125,-21.5,0
53980,-23.125,47.6875,-21.5,0
54000,-17.5,44.625,-22.0625,0
54020,-14.3125,42.875,-21.4375,0
54040,-14.875,43.75,-18.4375,0
54060,-16.75,44.75,-14.8125,0
54080,-5.0625,44.625,-12.75,0
54100,-6.375,44.75,-9.5625,0
54120,-4.1875,45.1875,-4.125,0
54140,2.6875,40.25,-1.9375,0
54160,4.25,38.3125,2.6875,0
54180,1.4375,33.8125,5.5625,0
54200,5.25,30.0625,8.4375,0
54220,9.8125,26.4375,8.8125,0
54240,9.4375,22.4375,12.25,0
54260,8.125,18.75,14.1875,0
54280,8.125,16,14.375,0
54300,16.125,14.625,15.25,0
54320,11.6875,14.25,17.8125,0
54340,14.6875,12.25,21.1875,0
54360,23.875,9.125,18.8125,0
54380,20.5,9.375,19.75,0
54400,14.875,12.3125,24.5,0
54420,19.5,10.125,26.5625,0
54440,20.0625,8.0625,22.875,0
54460,17.9375,4.5,22.0625,0
54480,14.125,-0.0625,22.4375,0
54500,16.3125,-2.4375,22.75,0
54520,16.3125,-5.875,24.6875,0
54540,15.0625,-8.0625,25.3125,0
54560,11.375,-11.3125,28,0
54580,12.4375,-13.4375,29,0
54600,14.6875,-16.25,28.875,0
54620,12.75,-19.5,29.375,0
54640,13.25,-20.125,28.1875,0
54660,14.625,-21.125,26.9375,0
54680,15.8125,-24.5625,27.375,0
54690,16.1875,-26.3125,26.4375,0
54710,18.25,-27.0625,26.5,0
54730,14.5625,-29.6875,25.6875,0
54750,12.1875,-30.4375,27,0
54770,16.3125,-29.0625,26.625,0
54790,17.9375,-29.1875,26.375,0
54810,14.5625,-30.375,25.5625,0
54830,15.9375,-30.375,25.75,0
54850,15.0625,-29.5625,24.875,0
54870,15.3125,-29.8125,23.5,0
54890,14.375,-31.75,23.5625,0
54910,13.4375,-32.3125,22.0625,0
54930,11.125,-32.375,23.1875,0
54950,8.625,-31.6875,25.1875,0
54970,8.3125,-30.4375,24.9375,0
54990,4.625,-31.0625,24.625,0
55010,2.8125,-30.5,22.9375,0
55030,2.25,-31.1875,21.5625,0
55050,6.5,-30.625,17.4375,0
55070,4.5,-30.875,12.8125,0
55090,1.4375,-30.875,11.0625,0
55110,4.125,-30.5,6.5625,0
55130,4.8125,-30.125,1.5625,0
55150,1.0625,-30.375,-1.25,0
55170,0.3125,-30,-2.9375,0
55190,0.9375,-29.5,-4.8125,0
55210,-0.75,-28.5,-5.8125,0
55230,-4.6875,-28.0625,-6.4375,0
55250,-4.875,-26.875,-7.375,0
55270,-5.0625,-25.5625,-9.75,0
55290,-6.375,-24.375,-10.25,0
55310,-7.1875,-23.625,-11.5,0
55330,-4.625,-21.6875,-14.0625,0
55350,-5.5625,-20.125,-16.0625,0
55370,-8.3125,-18.3125,-16.5,0
55390,-5.375,-16.25,-16.125,0
55410,-3.3125,-13.0625,-17.4375,0
55430,-5.125,-9.75,-18.3125,0
55450,-8.25,-9.5,-16.125,0
55470,-6.0625,-8.1875,-14.9375,0
55490,-6.75,-6.375,-15.5625,0
55510,-7.6875,-4.8125,-14.5625,0
55530,-6.4375,-4.125,-14.125,0
55550,-5.8125,-2.8125,-13.875,0
55570,-5.5625,-1.8125,-14.6875,0
55590,-1.375,-2.875,-16.5,0
55610,-2.1875,-3.875,-17.4375,0
55630,-3.5625,-4.1875,-17.125,0
55650,-0.4375,-4.5625,-18.0625,0
55670,0.0625,-5.9375,-18.4375,0
55690,-1.375,-6.5,-17.5,0
55710,0.4375,-9.0625,-17.375,0
55730,-4.4375,-9.3125,-16.25,0
55750,-1.0625,-7.25,-18,0
55770,-1.5,-8.625,-17.125,0
55790,0,-8.9375,-19.25,0
55810,1.3125,-9.1875,-20.5,0
55830,0.625,-7.375,-17.75,0
55850,2.4375,-7.1875,-16.125,0
55870,-1.25,-6.75,-14,0
55890,-4,-3,-10.25,0
55910,-2.5625,-4.4375,-7.625,0
55930,0.75,-6.75,-6.0625,0
55950,0,-7.5625,-6.25,0
55970,1.75,-10.375,-3.8125,0
55990,0.5,-12.75,-3.6875,0
56010,2.5625,-13,-4.875,0
56030,4,-14.125,-4.875,0
56050,6.5625,-14.5625,-4.0625,0
56070,5.3125,-11.625,-4.5,0
56090,3.3125,-8.25,-3.1875,0
56110,2.1875,-8.875,-2.25,0
56130,5.9375,-10.75,-2.75,0
56150,2.625,-8,-2.25,0
56170,-1.3125,-3.375,-1.3125,2001
56190,6.1875,-6.625,-1.5625,0
56210,4.5,-7.125,-1,0
56230,1.1875,-4.875,-1.1875,0
56250,0.0625,-4.5625,1.375,0
56270,3.4375,-6.625,0.6875,0
56290,2.3125,-8,-0.5,0
56310,5.0625,-8.6875,-1.1875,0
56330,3.3125,-6,-0.25,0
56350,4.125,-5,-1.375,0
56370,5.8125,-4.3125,-1.875,0
56390,1.75,0.25,-0.875,0
56410,1.0625,1.5,-0.8125,0
56430,1.25,1.5,0.5625,0
56450,0.4375,1.8125,0.5,0
56470,1.3125,-0.8125,0.625,0
56490,1.25,-4,1.3125,0
56510,6.5625,-7.5,-0.5,0
56530,4.375,-8.0625,0.875,0
56550,6.6875,-5.625,-0.5,0
56570,6.4375,-4.625,-1.1875,0
56590,4.6875,-3.5625,-0.625,0
56610,2,-3,2.0625,0
56630,3.875,-4.0625,3.5,0
56650,6.25,-5.125,3.25,0
56670,4.4375,-4.375,1.8125,0
56690,7.4375,-3.5625,-0.3125,0
56710,9.5,-3,1.125,0
56730,17.0625,-5.125,4.5625,0
56750,22,-8.5,5.1875,0
56770,27.1875,-7.75,9.25,0
56790,31.1875,-2.625,18.25,0
56810,34.5625,-1.5,25.9375,0
56830,37.875,2.75,34.25,0
56850,45.375,10,38.1875,0
56870,51.6875,15.25,36.625,0
56890,53.0625,22.4375,40.375,0
56910,59.4375,34,48.125,0
56930,68.6875,41.8125,50.875,0
56950,74.5625,45.625,46.6875,0
56970,71.625,49.125,42.375,0
56990,75.1875,55.9375,39.8125,0
57010,74.5625,57.6875,44.75,0
57030,82.875,55.4375,40.1875,0
57050,81.25,53.5625,30.9375,0
57070,77.375,54.75,30.9375,0
57090,76,56.5,34.5625,0
57110,76.3125,58.25,28.5625,0
57130,75.75,61,20.3125,0
57150,69.75,74.125,18.3125,0
57170,63.125,79,22.1875,0
57190,61.6875,73.0625,12.625,0
57210,52.4375,65.875,6.4375,0
57230,36.75,62.375,10.9375,0
57250,30.25,52.9375,11.0625,0
57270,26.8125,41.5,9,0
57290,21.1875,35.875,6.6875,0
57310,10.3125,32.75,9.25,0
57330,10.6875,26.875,6,0
57350,12.5,22.4375,1.625,0
57370,7.8125,24.875,0.3125,0
57390,2.1875,26.5625,2.0625,0
57410,5.5625,22.375,2.5,0
57430,6.3125,17.9375,2.0625,0
57450,1.8125,18.9375,4.875,0
57470,-1.0625,21,8.5625,0
57490,0.6875,19.6875,7.0625,0
57510,2,18.4375,3.8125,0
57530,-1.3125,17.5,5.25,0
57550,-0.4375,14.375,4.6875,0
57570,4.375,10.875,2.375,0
57590,3.6875,9.375,3.0625,0
57610,1.75,9.125,5.0625,0
57630,3.125,6,2.6875,0
57650,4.5,2.9375,2.3125,0
57670,5.5,2.1875,3.5,0
57690,2.875,2.75,3.6875,0
57710,4.75,4.5625,5,0
57730,3.3125,8.4375,7.1875,0
57750,3.4375,10.125,6.6875,0
57770,2.25,6.5625,3.0625,0
57790,1.875,5.3125,3.0625,0
57810,0.9375,8,3.4375,0
57830,1,6.6875,2,0
57850,-2.5625,5.9375,2.4375,0
57870,-2.75,7,5.5625,0
57890,-0.875,5.4375,4.4375,0
57910,-1.5625,4.6875,2.5625,0
57930,-3.0625,4.9375,4.5,0
57950,-1.8125,5.375,4,0
57970,0.75,4.5625,1.125,0
57990,-1.875,4.25,-0.25,0
58010,-2,5.5625,1.1875,0
58030,-2.0625,7.0625,0.8125,0
58050,-1.875,8,0.5,0
58070,-3.1875,8.6875,0.0625,0
58090,-2.75,8.8125,1.3125,0
58110,-1.875,8.5,1.3125,0
58130,-1.9375,6.4375,0.8125,0
58140,-2.4375,5.5,0.25,0
58160,-2.8125,5.875,0,0
58180,-0.8125,3.9375,0.3125,0
58200,-1.0625,2.1875,0.625,0
58220,-2.375,1.875,1.375,0
58240,-2.25,4.1875,2.375,0
58260,-1.25,5,0.4375,0
58280,-0.25,4.6875,0.5625,0
58300,-2.6875,4.625,0.625,0
58320,-1.6875,3.375,-0.75,0
58340,-1.8125,2.3125,-1.4375,0
58360,-1.5,2.8125,-1.4375,0
58380,-3.4375,3.3125,-0.75,0
58400,-1.4375,3.375,-0.75,0
58420,-0.9375,1.25,-1.6875,0
58440,-2.5,0.875,-0.6875,0
58460,-1.75,1.9375,2.1875,0
58480,-0.0625,1.375,1.875,0
58500,0.25,0.3125,0.875,0
58520,-1.75,0.875,1.6875,2000
58540,-1.25,2.0625,3,0
58560,-1.4375,2.75,2.25,0
58580,-1.875,1.4375,1,0
58600,-5.1875,1.4375,2.875,0
58620,-3.1875,1.875,4.1875,0
58640,0.6875,1.8125,1.5625,0
58660,2.3125,-2.25,0.625,0
58680,0.5,-5.9375,3.125,0
58700,0.75,-6.125,3.375,0
58720,0.6875,-8.375,3.125,0
58740,-0.3125,-10.125,4.625,0
58760,-0.8125,-11.1875,4,0
58780,-0.4375,-11.6875,2.75,0
58800,-0.3125,-13.0625,1.875,0
58820,0.4375,-15.25,0.375,0
58840,-1.75,-15.4375,3.0625,0
58860,-1.0625,-16.9375,3.6875,0
58880,-1.75,-17.1875,3,0
58900,-2.8125,-17.5,3.3125,0
58920,-4.5,-15.5,4.3125,0
58940,-0.625,-15.9375,3.8125,0
58960,-0.875,-17.625,2.1875,0
58980,-3.125,-18.9375,-0.5625,0
59000,-0.5,-18.8125,0.0625,0
59020,-0.4375,-20.375,0.5,0
59040,0.0625,-21.0625,-1.9375,0
59060,-0.9375,-19.875,-2.125,0
59080,-2.3125,-19.3125,-1.625,0
59100,-4.3125,-21.125,-0.4375,0
59120,-1.75,-19,-2.1875,0
59140,-2.6875,-15.125,-1.625,0
59160,-0.125,-14.125,-2.1875,0
59180,-0.4375,-15,-2.5,0
59200,-1.8125,-14.4375,-2.25,0
59220,-1.875,-10.5,-1.8125,0
59240,2.625,-9.4375,-3.875,0
59260,0.5625,-11.5625,-7.4375,0
59280,-3.4375,-12.3125,-7.5625,0
59300,-2.3125,-13.75,-9.5,0
59320,-1.875,-13.5,-10.75,0
59340,-2.125,-12.125,-10.9375,0
59360,-4.375,-13.0625,-13.5625,0
59380,-5.8125,-12.75,-13.25,0
59400,-4.8125,-10.1875,-12.1875,0
59420,-5.0625,-8.3125,-14.5,0
59440,-9.1875,-9.1875,-13.1875,0
59460,-10.125,-9.3125,-13,0
59480,-9.0625,-6.75,-15.375,0
59500,-8.4375,-1.875,-14.1875,0
59520,-6.0625,2.75,-13.9375,0
59540,-6.0625,3.375,-15.5,0
59560,-6.8125,-0.5625,-18.125,0
59580,-8.625,-2.125,-21.75,0
59600,-9.6875,-1.4375,-22.75,0
59620,-11.5625,-2.5,-24.9375,0
59640,-14.1875,-6,-26.1875,0
59660,-17.875,-7.5,-26.4375,0
59680,-21.0625,-6.4375,-25.875,0
59700,-21.875,-6,-26.6875,0
59720,-24.375,-6.3125,-29.5,0
59740,-28.9375,-4.3125,-30.375,0
59760,-29.5625,-4.3125,-28.1875,0
59780,-26.9375,-3.0625,-30.375,0
59800,-31.6875,-0.0625,-29.8125,0
59820,-35.4375,4.4375,-27.25,0
59840,-32,7.5625,-27.3125,0
59860,-31.5625,9.625,-27.5625,0
59880,-34.125,9.125,-27.75,0
59900,-35,8.9375,-25.9375,0
59920,-30.75,7.8125,-26.75,0
59940,-31,7.0625,-29.1875,0
59960,-34.25,6.25,-30.125,0
59980,-34.5625,4,-30.875,0
60000,-33.1875,6.4375,-31.75,0
60020,-35.375,9.4375,-31.5,0
60040,-37.25,10.125,-31.0625,0
60060,-37.75,11.1875,-31.25,0
60080,-37.4375,13.3125,-30.75,0
60100,-39.1875,15.4375,-30.625,0
60110,-40.9375,16.125,-31.1875,0
60130,-39.125,18.625,-31.875,0
60150,-37.875,21.75,-33.5625,0
60170,-38.25,23.6875,-34.9375,0
60190,-37.5,25.6875,-34.3125,0
60210,-34.875,27.5625,-33,0
60230,-33.5,31.375,-31.6875,0
60250,-31.5,37.8125,-30.875,0
60270,-30.4375,39.875,-29.875,0
60290,-27.5,41.4375,-27.125,0
60310,-25.25,41.75,-24.375,0
60330,-24.9375,42.375,-21.8125,0
60350,-22.8125,42.4375,-20.4375,0
60370,-21.5,41.6875,-18.8125,0
60390,-20.25,42.8125,-18.6875,0
60410,-20.25,43.1875,-18.3125,0
60430,-19.9375,40.625,-15.6875,0
60450,-16.625,38.25,-14.125,0
60460,-13.8125,36.25,-12.0625,0
60480,-16.625,35.6875,-9.75,0
60500,-16.125,35.875,-8.3125,0
60520,-15.25,33.3125,-7.1875,0
60540,-14.9375,29.0625,-4.875,0
60560,-14.25,23.25,-3.5625,0
60580,-12,20.0625,-4.0625,0
60600,-13.4375,18.3125,-0.5625,0
60620,-7.9375,15.4375,0.875,0
60640,-8.125,13.25,2.625,0
60660,-9.0625,12.8125,4.6875,0
60680,-9.1875,12.75,7.9375,0
60700,-1.5625,11,7.5625,0
60720,-7.375,12.5625,12.25,0
60740,-9.625,13.25,17.5625,0
60760,-2.75,11.625,17.6875,0
60780,5.25,6.3125,14.4375,0
60800,5.8125,4.4375,15.125,0
60820,-3.6875,10.9375,21.625,0
60840,-1.125,9.75,24.125,0
60860,2.8125,3.8125,17.5625,0
60880,4.5,3.6875,18.625,0
60900,-3.1875,9.0625,24.1875,0
60920,4.25,7.5625,23.1875,0
60940,8.875,2.4375,19.625,0
60960,4.875,-0.4375,22.3125,0
60980,5.4375,0.25,24.375,0
61000,6.5,0.625,23.8125,0
61020,7.5,-3.375,22.5,0
61040,6.5,-6.3125,24.25,0
61060,10.6875,-6.625,26.3125,0
61080,14.375,-9.0625,23.8125,0
61100,11.5625,-10.5625,27.3125,0
61120,13.5625,-11.3125,30.0625,0
61140,15.875,-13.5625,29.25,0
61160,20.4375,-15.5625,28.8125,0
61180,20.8125,-17.9375,29.6875,0
61200,18.375,-17,31.0625,0
61220,18.5625,-16.375,31.625,0
61240,19.875,-17.3125,31.8125,0
61260,21.0625,-18.8125,33.75,0
61280,19.1875,-19.875,32.25,0
61300,18.4375,-21.0625,30.9375,0
61320,19.375,-23.25,30.3125,0
61340,22.375,-25.25,27.5625,0
61360,20.3125,-26.5,25.25,0
61380,19.875,-27.125,25.8125,0
61400,20.5625,-28.25,24.125,0
61420,20.25,-29.5,22.4375,0
61440,17.625,-31.0625,22.5,0
61460,16.125,-31.4375,23.8125,0
61480,17.25,-32.875,22.4375,0
61500,16.1875,-34.9375,21.25,0
61520,13.75,-36.25,21.375,0
61540,13.875,-36.875,23.4375,0
61560,16.125,-39.0625,22.375,0
61580,13.6875,-39.3125,20.25,0
61600,8.75,-37.9375,23.625,0
61620,13.5,-38.6875,27,0
61640,13.1875,-40,23.375,0
61660,12.5625,-39.375,22.5,0
61680,9.9375,-39.625,22.9375,0
61700,14.1875,-41.9375,21.875,0
61720,21,-42.4375,17.1875,0
61740,12.0625,-40.1875,15.25,0
61760,10.5,-35.875,19.25,0
61780,11.75,-37.5625,19,0
61800,15.0625,-37.1875,14.3125,0
61820,9.5625,-33.625,13.875,0
61840,5.5625,-31.5625,16.1875,0
61860,8.6875,-33.0625,17.1875,0
61880,7.625,-34.0625,13,0
61900,5.9375,-32.25,11.1875,0
61920,5.9375,-28.9375,11.3125,0
61940,1.4375,-27.875,12.875,0
61960,0.5,-26.375,10.75,0
61980,2.875,-23.3125,7.75,0
62000,5.8125,-24.5625,3.375,0
62020,-1.6875,-25.1875,4.75,0
62040,1.625,-25.875,3.5625,0
62060,0.9375,-25.4375,-2.8125,0
62080,4.4375,-26.75,-7.5625,0
62100,0.8125,-27.875,-10.4375,0
62120,-6.625,-25.625,-11.375,0
62140,-5.875,-24.5625,-14.625,0
62160,-6.9375,-25.8125,-18,0
62180,-9.5625,-23.125,-20.1875,0
62200,-13.6875,-18.3125,-22.375,0
62220,-13.3125,-14.5625,-27.4375,0
62240,-15.8125,-10.8125,-27.8125,0
62260,-20.125,-9.8125,-29.6875,0
62280,-19.4375,-6.625,-32.6875,0
62300,-17.0625,-3.0625,-36.25,0
62320,-17.5,-2.4375,-38.8125,0
62340,-22.1875,-2.625,-40.0625,0
62360,-23,0.875,-39.1875,0
62380,-21,1.8125,-41,0
62400,-19.875,0.5,-42.6875,0
62420,-26.4375,0.5625,-39.125,0
62440,-25.5625,2.625,-38.75,0
62460,-22.625,5,-40.375,0
62480,-25.0625,7.625,-40.25,0
62500,-24.25,9.75,-42.1875,0
62520,-22.5,12.25,-42.9375,0
62540,-26.1875,12.75,-42.875,0
62560,-28.3125,12.4375,-42.625,0
62580,-26.75,11.375,-41.75,0
62600,-27.4375,10.9375,-41.625,0
62620,-31.625,13.9375,-41.3125,0
62640,-35.1875,18.1875,-41.9375,0
62660,-37.4375,19.25,-41.125,0
62680,-33,22.1875,-44.0625,0
62700,-33.0625,25.4375,-45.3125,0
62720,-35.75,27.25,-45.875,0
62740,-35.3125,26.0625,-45.6875,0
62760,-31.9375,25.0625,-45.3125,0
62780,-33.9375,25.1875,-42.625,0
62800,-35.875,26.25,-37.5,0
62820,-35.375,26.6875,-34.8125,0
62840,-34.1875,26.875,-33.375,0
62860,-34.25,27.125,-33.3125,0
62880,-33.125,24.8125,-29.75,0
62900,-27.6875,21.4375,-29.75,0
62920,-25.4375,19.125,-30.3125,0
62940,-26.125,18.6875,-28.25,0
62960,-23.625,18.25,-26.3125,0
62980,-19.5,18.5625,-25.1875,0
63000,-19.125,20.0625,-22.3125,0
63020,-18.8125,22.375,-16.8125,0
63040,-22.25,22.625,-12.375,0
63060,-15.875,24.0625,-11.875,0
63080,-13.5625,23.9375,-8.6875,0
63100,-14.5,25.25,-5.125,0
63120,-12.5625,24.5625,-5.125,0
63140,-4.75,22.125,-6,0
63160,-4.6875,23.4375,-5.25,0
63180,-15.5,25.25,5.9375,0
63200,-6.5625,19.5625,7.375,0
63220,-3.75,17.625,7.375,0
63240,-8.375,23.4375,15.625,0
63260,-6.3125,24.5,21.1875,0
63280,1.5625,18.875,18.75,0
63300,4.5625,16.5625,21.4375,0
63320,-4.5625,17.8125,28,0
63340,3.5625,16.875,31.3125,0
63360,8,12,30.6875,0
63380,14.375,8.5,28.875,0
63400,13.625,6.875,32.1875,0
63420,10.375,9.1875,36.8125,0
63440,9.8125,11.125,42.0625,0
63460,14.875,8.125,40.8125,0
63480,12.625,5.0625,36.9375,0
63500,11.0625,2.8125,39.125,0
63520,13.5,0.5625,39.625,0
63540,19.75,-2.5625,37.4375,0
63550,17.25,-5.1875,33,0
63570,8.25,-5.25,33.25,0
63590,12.1875,-7.8125,35.5,0
63610,17.25,-11.1875,34.0625,0
63630,19.9375,-11.9375,30.9375,0
63650,13.3125,-11.375,32.25,0
63670,13.5625,-13.3125,34.25,0
63690,18.25,-17.875,33.3125,0
63710,15.5,-19.6875,33.25,0
63730,10.875,-18.6875,35.25,0
63750,10.25,-22,36,0
63770,15.5,-25.3125,35.25,0
63790,12.4375,-25.625,33.5,0
63810,9.3125,-24.9375,35.4375,0
63830,12.125,-27.6875,34.875,0
63850,13.125,-29.4375,31.625,0
63870,9.6875,-30.5,32.625,0
63890,11.25,-32.4375,32.5625,0
63910,14.375,-32.6875,28.5,0
63930,9.375,-31.4375,26.125,0
63950,8.6875,-30.0625,28.75,0
63970,13.8125,-31.4375,25.9375,0
63990,11.9375,-33.3125,23.4375,0
64010,5.125,-34.375,24,0
64030,5.625,-36.875,25.25,0
64050,9.25,-38.625,23.375,0
64070,4.8125,-38.6875,20.5625,0
64090,0.625,-39.25,21.375,0
64110,5.625,-41.3125,17.8125,0
64130,4,-41.1875,11.875,0
64150,3.3125,-39.75,9.6875,0
64170,1.5625,-41,8.1875,0
64190,1.25,-40.3125,6.8125,0
64210,-1.375,-38.5,4.375,0
64230,-2.4375,-39.8125,3.5,0
64250,-3.375,-40.4375,3.75,0
64270,-1.9375,-40.9375,3.25,0
64290,-9.1875,-38.5,2.3125,0
64310,-7.0625,-36.125,0.25,0
64330,-3.875,-34.3125,-3,0
64350,-8.9375,-34.25,-5.1875,0
64370,-6.5,-32.25,-8.375,0
64390,-8.8125,-27.9375,-10.1875,0
64410,-6.0625,-25.5625,-12.9375,0
64430,-12.6875,-26.0625,-13.375,0
64450,-13.875,-23.1875,-12.0625,0
64470,-10.875,-20.8125,-14.6875,0
64490,-14,-22.375,-18.125,0
64510,-18.5,-23.5,-19.5,0
64530,-18.75,-21.625,-22,0
64550,-16.0625,-19,-25.125,0
64570,-20.3125,-16.4375,-25.125,0
64590,-23.0625,-12.6875,-24.8125,0
64610,-16.6875,-11.5,-26.4375,0
64630,-17.0625,-10.1875,-26.5625,0
64650,-25,-6.9375,-23.4375,0
64670,-26.625,-1.9375,-21.125,0
64690,-24.75,1.8125,-24.125,0
64710,-24.8125,3.375,-25.875,0
64730,-30.25,3.6875,-28,0
64750,-29.375,4.3125,-32.1875,0
64770,-25.4375,6.75,-34.5,0
64790,-26.125,8.3125,-38.75,0
64810,-31.25,11.875,-39.625,0
64830,-30.0625,15.375,-40.1875,0
64850,-29.125,15.3125,-41.6875,0
64870,-28,14.8125,-41.9375,0
64890,-33.375,17.5625,-40.875,0
64910,-35.5625,21.6875,-40.4375,0
64930,-33.875,24.6875,-40.0625,0
64950,-34.25,26.8125,-37.9375,0
64970,-31.875,28.6875,-37.875,0
64990,-29.875,30.4375,-37.3125,0
65010,-29.625,31.6875,-36.0625,0
65030,-31,34.5,-36.5,0
65050,-29.9375,33.3125,-37.25,0
65070,-25.6875,30.4375,-35.25,0
65090,-22.6875,31.9375,-36.1875,0
65110,-22,34.5625,-34.875,0
65130,-27.875,34.125,-29.0625,0
65150,-23.5,34.8125,-27.625,0
65170,-20.125,35.6875,-26.125,0
65190,-19.5,33,-22,0
65210,-20.5,34.75,-19.3125,0
65230,-17.5,40.5625,-16,0
65250,-13.25,40.25,-13,0
65270,-6.0625,38.125,-14.375,0
65290,-7.25,38.4375,-10.875,0
65310,-9.25,38.625,-7.4375,0
65330,-7.375,36.9375,-7.625,0
65350,-3,37.625,-7,0
65370,-2.5,37.875,-3.625,0
65390,0.6875,35.875,-3.0625,0
65410,-4.25,33.9375,0.375,0
65430,0.6875,31.625,1.75,0
65450,-1.875,28.5,2.6875,0
65470,-1.8125,25.3125,5.0625,0
65490,1.9375,22.8125,7.6875,0
65510,3.875,20.5,9.3125,0
65530,7.5,16.625,9.5625,0
65550,8.5,14.8125,11.0625,0
65560,8.6875,13.8125,14.8125,0
65580,13.0625,11.3125,16.75,0
65600,14.875,8.5,17.1875,0
65620,6.75,8.3125,19.5,0
65640,15.5,7.25,21.75,0
65660,21.4375,6,19.9375,0
65680,22.25,5.125,18.375,0
65700,15.125,5.8125,21.3125,0
65720,16.4375,5.6875,21.8125,0
65740,19.1875,3.5,21.625,0
65760,18.3125,3.625,23.375,0
65780,15.6875,5.5,25.25,0
65800,13.6875,4.8125,27.25,0
65820,10.5,4.4375,29.25,0
65840,15.8125,3.875,30,0
65860,11.5,3.6875,30.5,0
65880,7.1875,2.4375,33.5,0
65900,11.5625,2.375,32.125,0
65920,14.625,-0.0625,32.4375,0
65940,14.6875,-2,31.1875,0
65960,12.625,-3.375,32,0
65980,14.625,-4.5625,32.25,0
66000,15.625,-5.8125,31.375,0
66020,14.3125,-6.6875,31.4375,0
66040,11.875,-7.1875,33.0625,0
66060,12.8125,-8.5,33.3125,0
66080,11.25,-10.5625,31.125,0
66100,10.1875,-11.9375,31.6875,0
66120,10.25,-13.3125,29.625,0
66140,14.375,-16.4375,27.8125,0
66160,13.125,-20.9375,25.9375,0
66180,13.6875,-22.875,25.25,0
66200,14,-24.25,24.5625,0
66220,15.125,-24.75,24.125,0
66240,12,-26.1875,23.9375,0
66260,10.4375,-26.8125,25.5,0
66280,11.375,-27.0625,24.5625,0
66300,8.6875,-28.9375,23.75,0
66320,7.25,-29.4375,22.5625,0
66340,7.875,-29.9375,20.9375,0
66360,8.1875,-33.4375,18.3125,0
66380,8.6875,-35.6875,15,0
66400,8.0625,-37.0625,12.5,0
66420,8.6875,-36.8125,10.375,0
66440,7.9375,-37.375,9.5,0
66460,12.6875,-36.5625,8.0625,0
66480,14.5,-36.9375,4.625,0
66500,11.875,-36.75,2.8125,0
66520,12.3125,-35.25,2.5,0
66540,16.875,-33.75,0.8125,0
66560,11.625,-34.3125,0.3125,0
66580,8.75,-31.75,1.8125,0
66600,10,-30.1875,2.4375,0
66620,5.9375,-30.125,2.1875,0
66640,2.3125,-29.25,1.5625,0
66660,3.125,-29.875,1.625,0
66680,5.125,-30.375,-2.25,0
66700,2.5,-31,-3.125,0
66720,-0.6875,-30.0625,-3.25,0
66740,-1.875,-27.5625,-4.875,0
66760,-3.375,-26.875,-5.75,0
66780,-5,-26.375,-6.5625,0
66800,-5.25,-23.9375,-7.5625,0
66820,-9.5625,-22.3125,-9.0625,0
66840,-9.1875,-19.25,-9,0
66860,-4.0625,-19,-11.4375,0
66880,-6.125,-20.625,-14.25,0
66900,-5.5,-20.5,-17.0625,0
66920,-8.4375,-19.0625,-18.0625,0
66940,-4.8125,-19.125,-18.5,0
66960,-0.9375,-17.8125,-21.375,0
66980,-6.5625,-14.9375,-23.4375,0
67000,-6.8125,-13.875,-21.3125,0
67020,-2.3125,-14.1875,-21.625,0
67040,-0.5,-13.1875,-22.625,0
67060,-5.6875,-11.25,-20.875,0
67080,-6.375,-9.8125,-19.3125,0
67100,-3.8125,-10.0625,-18.75,0
67120,-2.75,-12.25,-18.6875,0
67140,-3.375,-12.4375,-19.0625,0
67160,-3.6875,-12,-19.0625,0
67180,-2.1875,-12.8125,-18.75,0
67200,-3.0625,-14.5625,-19.6875,0
67220,-2.25,-12.1875,-19.1875,0
67240,-3.5625,-9.5,-18.1875,0
67260,-1.125,-12.75,-18.625,0
67280,-2.3125,-15.3125,-17.75,0
67300,-1.5625,-13.8125,-18.5625,0
67320,-0.8125,-14.75,-18,0
67340,2.9375,-17.9375,-16.125,0
67360,1.9375,-20.625,-13.5,0
67380,2.375,-20.125,-11.4375,2001
67400,-0.0625,-15.875,-7.5625,0
67420,-2.25,-12.5625,-3.125,0
67440,-0.0625,-15.1875,-1.9375,0
67460,1.1875,-16.75,-1.9375,0
67480,2.5,-15.6875,-2.25,0
67500,1.5,-12.8125,-1,0
67520,1.4375,-10.375,-0.875,0
67540,4.75,-10.875,-3.125,0
67560,4.8125,-10.5,-4.5,0
67580,2.75,-6.25,-3,0
67600,0.625,-2.9375,-2.6875,0
67620,0.8125,-2.1875,-3.75,0
67640,1.1875,-2.9375,-2.5625,0
67660,1.1875,-4.375,-1.125,0
67680,3.25,-6,-1.25,0
67700,4.125,-8.5625,-1.625,0
67720,5.4375,-9.9375,-0.6875,0
67740,6.5625,-11.0625,-0.875,0
67760,5.625,-9,-0.9375,0
67780,2.375,-6.4375,3.0625,0
67800,3.5,0.25,5.5,0
67820,4.0625,4.9375,5.3125,0
67840,9,8.9375,5.5625,0
67860,4.75,16.8125,11.0625,0
67880,3.0625,21.875,13.1875,0
67900,8.125,29.5625,13.625,0
67920,18.9375,41.625,15.75,0
67940,22.875,52.375,15.875,0
67960,24.8125,51.625,15.5,0
67980,32.1875,50.4375,18.0625,0
68000,39.4375,51,17.4375,0
68020,42,49.0625,18.3125,0
68040,45,52.0625,26.3125,0
68060,49.4375,55.5,31.0625,0
68080,50.75,49.9375,30.3125,0
68100,50.4375,48.375,34.25,0
68120,55.375,43,36.1875,0
68140,59.1875,37.25,35.25,0
68160,59.125,31.6875,34,0
68180,55.375,29.6875,36.25,0
68200,60.6875,30.1875,35.5625,0
68220,67.75,29.6875,32.3125,0
68240,68.875,31.375,32.8125,0
68260,58.5625,35.8125,31.875,0
68280,59.8125,46.75,31.5,0
68300,64.5625,56.875,30.25,0
68320,60.75,65.1875,31.8125,0
68340,54.3125,69.6875,35.3125,0
68360,54.5625,76.25,33.375,0
68380,48.8125,78.4375,29.1875,0
68400,42.125,75.5625,29.5625,0
68420,35.3125,71.25,28.125,0
68440,32.625,65.8125,23.5625,0
68460,27.1875,60,21.5625,0
68480,20.1875,55.125,18.1875,0
68500,11.4375,49.8125,16,0
68520,10.1875,43.0625,8.875,0
68540,6.9375,37.625,6.4375,0
68560,5.0625,30.125,6.875,0
68580,3.5,22.9375,6.0625,0
68600,1.8125,18.6875,4.875,0
68620,1.75,14.3125,5.125,0
68640,3.1875,7.6875,3.5625,0
68660,-1.1875,4.3125,1.75,0
68680,-0.125,2.25,1.5625,0
68700,3.0625,1.625,1.5625,0
68720,3,1.625,0.9375,0
68740,0.5625,1.8125,2.125,0
68760,1.1875,5.8125,2.9375,0
68780,0.0625,9.9375,2.25,0
68800,-1.4375,11.75,3.3125,0
68820,-4.625,13.125,4.5,0
68840,-0.875,11.9375,5.125,0
68860,2.625,9.5,1.3125,0
68880,0.1875,8,-1,0
68900,-3.75,9.5625,2.625,0
68920,-1.625,11.1875,4.3125,0
68940,-2,11,2.9375,0
68960,-5.1875,11.25,4.0625,0
68980,-8.0625,12.8125,3.8125,0
68990,-5.9375,11.1875,3.125,0
69010,-2.6875,8.75,0.8125,0
69030,-3.5,9.125,-0.25,0
69050,-3.875,10.4375,0.75,0
69070,-0.6875,9.5,1.625,0
69090,0.25,6.75,0.875,0
69110,-1.375,2.875,0.3125,0
69130,1.5,1.625,1.8125,0
69150,1.5625,1.1875,1.625,0
69170,1.25,0.3125,-0.0625,0
69190,-1.6875,0.375,-0.375,0
69210,-1.6875,1.75,1.125,0
69230,0,3.125,1.5625,0
69250,-1.4375,3.125,-0.125,0
69270,-5.1875,2.75,1.5625,0
69290,-4.6875,1.5,2.4375,0
69310,-3.5,0.5,2.5625,0
69330,-1.6875,0.3125,1.9375,0
69350,-2.5,-2.3125,1.5,2000
69370,-2.375,-2.9375,2.1875,0
69390,0,-3.4375,1.6875,0
69410,0.375,-3.375,2,0
69430,-3.0625,-3.125,2.8125,0
69450,-5.375,0.25,2.6875,0
69470,-4,1.8125,4.3125,0
69490,-1,2.3125,5.0625,0
69510,-1.6875,-0.1875,4.875,0
69530,-3.375,-1.75,7.25,0
69550,-3.25,-1.9375,7.875,0
69570,0.4375,-4.625,7.1875,0
69590,0.9375,-8.4375,6.625,0
69610,-1.875,-10.75,7.1875,0
69630,-4,-13.375,8.4375,0
69650,-1.4375,-15.3125,6.3125,0
69670,-4,-16.3125,4.8125,0
69690,-7.375,-16.4375,4.75,0
69710,-4.0625,-17.4375,4.25,0
69730,-2.9375,-19.625,2.875,0
69750,-5.0625,-19.125,2.8125,0
69770,-4.25,-18.5,6.1875,0
69790,-3.3125,-20.0625,7.25,0
69810,-4.3125,-21.625,5.5,0
69830,-5.9375,-22.1875,4.1875,0
69850,-3.875,-21.6875,4.125,0
69870,-1.125,-22.625,1.375,0
69890,-2.6875,-22.5625,-1.5,0
69910,-4.9375,-22.75,-1.3125,0
69930,-2.1875,-22.5,-2.0625,0
69950,-4.5625,-22.375,-4.875,0
69970,-7,-21.875,-4.875,0
69990,-8.375,-21.625,-4,0
70010,-7,-21.875,-5.1875,0
70030,-8.25,-21.25,-6.4375,0
70050,-11.5625,-19,-9.3125,0
70070,-11.0625,-18.5625,-7.75,0
70090,-9.3125,-19.625,-9.25,0
70110,-11.625,-19,-13.125,0
70130,-14.4375,-16.625,-13.9375,0
70150,-13.3125,-16.3125,-15.5625,0
70170,-14,-17.125,-15.0625,0
70190,-15.3125,-14.375,-15.75,0
70210,-14.875,-11.8125,-17.5625,0
70230,-14.75,-10.9375,-18.25,0
70250,-17.5,-10.9375,-21,0
70270,-19.125,-12.375,-21.25,0
70290,-14.875,-10.25,-24.0625,0
70310,-15.6875,-6.75,-27.9375,0
70330,-19.1875,-6.6875,-26.75,0
70350,-19,-7.3125,-27.1875,0
70370,-17.875,-9.6875,-28.75,0
70390,-20.25,-9.875,-28.5,0
70410,-24.1875,-5.6875,-27,0
70430,-24.1875,-3,-25.875,0
70450,-25.25,-2.1875,-26.25,0
70470,-27.3125,-2.625,-29.375,0
70490,-31.625,-3.125,-30.6875,0
70510,-34.4375,0.9375,-33.1875,0
70530,-36.375,4.4375,-35.1875,0
70550,-38.125,6.4375,-37.125,0
70570,-42.875,5.5625,-37.1875,0
70590,-44.3125,6.25,-39.1875,0
70620,-48.9375,9.6875,-45.6875,0
70660,-49.25,8.5,-47.1875,0
70680,-50.5,11.0625,-48.4375,0
70700,-52.5,12.6875,-47.125,0
70720,-50.6875,17.5,-44.4375,0
70740,-49.5,22.25,-42.375,0
70760,-48,26.75,-41.0625,0
70780,-48.3125,33.625,-39.375,0
70800,-47.1875,38.75,-36.3125,0
70820,-44.3125,41.8125,-33.625,0
70840,-42.125,43.25,-31.875,0
70860,-40.5625,42,-31.625,0
70880,-38.0625,41.75,-29.875,0
70900,-37,41,-26.25,0
70920,-34.6875,40.4375,-23.375,0
70940,-31.9375,38.8125,-21.25,0
70960,-30.9375,37.875,-20.5625,0
70970,-30.875,37.8125,-17.3125,0
70990,-27.9375,40.25,-15.8125,0
71010,-26.625,39.6875,-14.75,0
71030,-24.75,37.3125,-14.1875,0
71050,-22.75,34.8125,-14,0
71070,-19,31.9375,-11.8125,0
71090,-17.3125,30,-10.1875,0
71110,-16.9375,26.125,-6.4375,0
71130,-10.9375,22.8125,-3.1875,0
71150,-9.5625,22.25,-0.25,0
71170,-8.0625,24.3125,6.125,0
71190,-9.5,26.3125,9.3125,0
71210,-5.875,24.375,8.75,0
71230,-6.6875,24.125,12.5625,0
71250,-3.9375,26.3125,14.1875,0
71260,-1.875,25.25,13.375,0
71280,-1.5,25.1875,17.1875,0
71300,0.25,20.9375,21.125,0
71320,3.3125,18.375,19.125,0
71340,4,15.3125,19.75,0
71360,5.125,12.8125,21.25,0
71380,4.125,9.8125,20.9375,0
71400,7.125,9.3125,22.25,0
71420,8.8125,7.625,23.75,0
71440,10.75,6.6875,23.4375,0
71460,7.3125,8.25,22.5,0
71480,8,10.5625,24.625,0
71500,8.8125,9.625,27.0625,0
71520,14.0625,6.875,25.0625,0
71540,12.125,3,23.3125,0
71560,8.125,2.4375,26.8125,0
71580,13,-0.5,26.4375,0
71600,15.375,-5.6875,24.5,0
71620,11.8125,-6.375,27.625,0
71640,10.125,-9.5625,30.625,0
71660,17.5,-11.6875,28.9375,0
71680,16.4375,-14.6875,27.875,0
71700,8.125,-15.5625,31.4375,0
71720,8.625,-13.875,32.5,0
71740,16.3125,-15.0625,32.3125,0
71760,20.3125,-17.875,31.1875,0
71780,15.375,-18.125,31.5,0
71800,11.3125,-17.375,35.3125,0
71820,15.0625,-18.3125,35.125,0
71840,17.9375,-19.625,32.3125,0
71860,19.875,-21.5,32.125,0
71880,19.75,-23.8125,31.25,0
71900,20.1875,-24.1875,31.5,0
71920,17.6875,-24.625,28.9375,0
71940,19.75,-25.5625,28,0
71960,20.75,-27.375,26.9375,0
71980,21.5625,-26.9375,25.5625,0
72000,17.25,-27.8125,27.0625,0
72020,16.375,-30.125,26.6875,0
72040,17.6875,-31.6875,25.0625,0
72060,17.6875,-32.0625,24.9375,0
72080,17,-32.5,24.75,0
72100,20,-33.3125,23.5625,0
72120,19.4375,-34.5625,23.3125,0
72140,12.625,-35.6875,25,0
72160,14.8125,-37,26.0625,0
72180,13.6875,-38.8125,23.875,0
72200,12.625,-38.1875,21.375,0
72220,14.0625,-37.875,20.625,0
72240,14.625,-39.0625,16.5,0
72260,13.0625,-37.1875,14.9375,0
72280,10.75,-35.125,15.3125,0
72300,13.0625,-36.375,12.6875,0
72320,12,-36.9375,11.4375,0
72340,9.3125,-36.125,11.875,0
72360,3.875,-37.0625,9.75,0
72380,3.6875,-38.4375,8.25,0
72400,1.75,-36.3125,7.3125,0
72420,-2.8125,-33.4375,6.75,0
72440,-0.75,-33.1875,5,0
72460,1.875,-36.0625,-2.25,0
72480,3.3125,-34.5,-5.3125,0
72500,1.625,-32.6875,-5.8125,0
72520,3.875,-33.125,-10.1875,0
72540,4.5625,-33.4375,-17.125,0
72560,1,-33.1875,-18.1875,0
72580,-4.5625,-32.625,-18.875,0
72600,-5.9375,-31.4375,-21.5625,0
72620,-7.25,-30.875,-22.375,0
72640,-8.625,-30.875,-22.5625,0
72660,-8.75,-30.625,-25.875,0
72680,-10.9375,-29.25,-25.875,0
72700,-11.3125,-28.125,-26.125,0
72720,-13.5,-28.5,-30.25,0
72740,-13.3125,-28.6875,-33.5625,0
72760,-12.375,-25.0625,-35.5,0
72780,-15.75,-22.125,-37.25,0
72800,-15,-23.6875,-38.6875,0
72820,-17.5,-21.875,-38.75,0
72840,-18.6875,-16.8125,-40.75,0
72860,-22.9375,-12.8125,-39.5625,0
72880,-27.3125,-10.6875,-38.625,0
72900,-25.6875,-11.0625,-41.5625,0
72920,-29.3125,-8.5625,-40.9375,0
72940,-31.3125,-5.8125,-40,0
72960,-33.125,-3.625,-41.1875,0
72980,-35.4375,-3.375,-42.75,0
73000,-37.6875,-3.875,-46.25,0
73020,-40.625,-0.9375,-45.6875,0
73040,-41.375,3.25,-45.3125,0
73060,-42.125,6.5,-47.375,0
73080,-45.25,7.6875,-45.875,0
73100,-46.375,8.1875,-44.0625,0
73120,-49.3125,11.375,-42.875,0
73140,-50.8125,16.6875,-42.1875,0
73160,-51.9375,21.875,-38.875,0
73180,-53,24.5625,-35.9375,0
73200,-51.5625,28.1875,-34.375,0
73220,-53.625,33.125,-33.125,0
73240,-53.9375,35.9375,-29.4375,0
73260,-50.9375,36.5,-27.4375,0
73280,-49.5625,36.125,-26.75,0
73300,-48.4375,37.6875,-24.4375,0
73320,-46.75,40.5,-21.1875,0
73340,-42.5,42.25,-19.125,0
73360,-39.375,41.8125,-15.1875,0
73380,-37.1875,41.25,-10.6875,0
73400,-34.3125,38.9375,-8.0625,0
73420,-34.5,38.0625,-3.5,0
73440,-29.3125,35.6875,1.5,0
73460,-20.0625,32.375,-0.5,0
73480,-21.375,32.3125,-0.75,0
73500,-20.125,33.4375,3.625,0
73520,-15,29.8125,7.4375,0
73540,-12.3125,28.0625,7.6875,0
73560,-15.125,27.0625,9.4375,0
73580,-16.5,26.0625,16.0625,0
73600,-8.5,21.9375,17.5,0
73620,-3.5,21.125,17.4375,0
73640,-5.8125,22.6875,17.625,0
73660,1.75,20.3125,22.4375,0
73680,2.5,20.0625,23.5,0
73700,3,21.875,25.375,0
73720,-0.5625,19.5,26.25,0
73740,5.1875,14.375,24.6875,0
73760,9.125,11.5625,23.3125,0
73780,5.8125,13.9375,25.0625,0
73800,-4.1875,14.0625,29.125,0
73820,1.125,8.875,32,0
73840,10.9375,6.1875,26.375,0
73860,12,3.9375,24.5,0
73880,8.4375,3.625,30.3125,0
73900,9.3125,3.25,33,0
73920,8.875,-0.875,29.8125,0
73940,11.125,-4.25,28,0
73960,11.3125,-2.5625,30.25,0
73980,13.75,-4.0625,31.625,0
74000,12.375,-6.5625,31,0
74020,10.3125,-5.9375,30.875,0
74040,13.9375,-5.8125,31.5625,0
74060,12.0625,-8.625,31.75,0
74080,13.0625,-9.125,30.75,0
74100,12.0625,-9.0625,30.75,0
74120,13.5625,-11.3125,29.9375,0
74140,13.9375,-12.25,28.3125,0
74160,12.25,-11.75,29.0625,0
74180,16.125,-12.9375,28.1875,0
74200,21.5625,-14.625,25.1875,0
74220,16.0625,-15.1875,23.75,0
74240,12.9375,-16.0625,26.75,0
74260,14.125,-18.125,26.8125,0
74280,18,-18.5,24.5,0
74300,19.25,-19.8125,23,0
74320,19.25,-21.875,23.5,0
74340,15.9375,-23,23.75,0
74360,12.625,-22.5,24.4375,0
74380,14.3125,-23.375,25.3125,0
74390,14.125,-23.625,24.875,0
74410,10.375,-24.4375,24.875,0
74430,12.3125,-27.25,24.6875,0
74450,12,-30.5625,22.5,0
74470,14.25,-31.25,21.75,0
74490,12.875,-32.6875,20,0
74510,13.75,-35.5625,19.1875,0
74530,15.625,-36.9375,15.75,0
74550,11.8125,-35.6875,14.9375,0
74570,11.375,-32.8125,15,0
74590,14.875,-32.875,11,0
74610,10.75,-33.5,7.75,0
74630,5.9375,-33.3125,9.375,0
74650,5,-32.75,8.625,0
74670,8.3125,-32.0625,5.625,0
74690,4.3125,-33.25,4.0625,0
74710,3.4375,-35,3.6875,0
74730,4.875,-34.8125,1.0625,0
74750,-0.1875,-33.125,-0.75,0
74770,-4.0625,-31.875,-2.0625,0
74790,2.8125,-32.875,-4.8125,0
74810,8.9375,-34.875,-9,0
74830,0.5625,-35.4375,-10.3125,0
74850,-1,-36.6875,-9.4375,0
74870,-0.5625,-39.0625,-12,0
74890,-4.3125,-37.1875,-13.1875,0
74910,-6.25,-35.9375,-15.5625,0
74930,-1.375,-36.0625,-18.625,0
74950,-5.125,-33.75,-22.1875,0
74970,-7,-32.875,-23.375,0
74990,-4.25,-34.3125,-24.3125,0
75010,-2.25,-33.875,-27.9375,0
75030,-7.625,-29.75,-30.5,0
75050,-12.875,-25.375,-28.625,0
75070,-9.1875,-26,-29.8125,0
75090,-7.3125,-26.8125,-34,0
75110,-8.875,-22.8125,-33.625,0
75130,-15.0625,-19.75,-31.5,0
75150,-10.3125,-19.875,-33.5625,0
75170,-12,-19.6875,-36.0625,0
75190,-14.125,-15.25,-35.125,0
75210,-16.8125,-12.625,-34.5,0
75230,-15.375,-13,-37.5,0
75250,-19.5,-9.4375,-37.0625,0
75270,-19.5,-5.3125,-35.4375,0
75290,-22.625,-3.25,-35.625,0
75310,-20,-1.1875,-35.4375,0
75330,-19.75,0.9375,-36.4375,0
75350,-23.5,3.125,-35.375,0
75370,-27.875,7.3125,-33.25,0
75390,-27.25,10.875,-32.75,0
75410,-28.1875,13.1875,-32.1875,0
75430,-29.9375,14.875,-30.5,0
75450,-32.9375,18.0625,-29.375,0
75470,-33.875,20.25,-28.625,0
75490,-34.1875,22,-28.5,0
75510,-29.75,22.875,-30.875,0
75530,-32.875,25.75,-29.25,0
75550,-29.4375,25.6875,-29.1875,0
75570,-30.25,25.25,-29.875,0
75590,-30.6875,28.4375,-27.1875,0
75610,-31.5625,31.625,-24.875,0
75630,-29.625,33.75,-23.6875,0
75650,-26.25,33.1875,-22.5,0
75670,-29.4375,35.9375,-19.875,0
75690,-30.0625,38.5625,-17.625,0
75710,-29.3125,37.5,-15.125,0
75730,-26.0625,37.1875,-15.0625,0
75750,-26.9375,39.625,-12,0
75770,-25.5,38.3125,-7.5,0
75790,-20.9375,35.4375,-7.4375,0
75810,-20.125,35.8125,-6.8125,0
75830,-15.4375,35.5,-2.5,0
75850,-11.8125,33.1875,-1.25,0
75870,-9.3125,32.3125,-1.4375,0
75890,-8.1875,33.6875,2.875,0
75910,-8.1875,33.0625,6.1875,0
75930,-5.9375,30.8125,5.875,0
75950,-5,31.1875,4.375,0
75970,-0.8125,33.3125,6.75,0
75990,-1.75,30.625,8,0
76010,3.125,29.5625,6.375,0
76030,1.6875,31.0625,4.875,0
76050,-0.125,29.3125,10.375,0
76070,6.625,24.8125,10.5,0
76090,7.6875,24.8125,9.1875,0
76110,-0.6875,25.3125,15,0
76130,2.375,20.5,21.125,0
76150,7.625,16.75,18.625,0
76170,6,15.25,18.3125,0
76190,5.9375,13.4375,22.8125,0
76210,7.8125,10.9375,25.4375,0
76230,6.75,13.1875,23.375,0
76250,5,12.6875,25.0625,0
76270,4.375,10,26.1875,0
76290,9.125,10,25.875,0
76310,8.1875,10.1875,26.75,0
76330,10.375,8.875,27.0625,0
76350,8.4375,6.125,25.5,0
76370,8.9375,6.3125,26.6875,0
76390,8.0625,4.6875,28.6875,0
76410,9.625,1.5625,28.625,0
76420,10.25,0.25,27.625,0
76440,8.875,-0.5,26.375,0
76460,10.875,-2.5625,27.875,0
76480,14.6875,-4.3125,27.5625,0
76500,12.4375,-5.8125,24.9375,0
76520,10.3125,-6.875,23.625,0
76540,9.375,-8.625,25.3125,0
76560,9.5625,-9.4375,25.8125,0
76580,11.6875,-10.6875,25.75,0
76600,12,-11.1875,26.1875,0
76620,9.875,-10.6875,25.125,0
76640,8.75,-11.1875,25.25,0
76660,10.75,-11.1875,26.4375,0
76680,12.125,-11.3125,23.8125,0
76700,11.25,-12.75,22.5625,0
76720,9.1875,-13.875,22.5,0
76740,8.0625,-13.9375,23.5625,0
76760,9.125,-14.375,23.875,0
76780,8.5,-15.4375,22.625,0
76800,6.625,-16.8125,23.625,0
76820,5.375,-18,23.8125,0
76840,6.5,-19.375,23.3125,0
76860,8.0625,-20.6875,22,0
76880,7.8125,-21.9375,20.9375,0
76900,6.375,-23.6875,21.8125,0
76920,7.5625,-24,22,0
76940,9.6875,-24.5,19.4375,0
76960,5,-25.1875,21.9375,0
76980,4.875,-26.1875,22.5,0
77000,5.4375,-28.5,21.1875,0
77020,4.125,-28.3125,21.25,0
77040,2,-28.625,22,0
77060,6.0625,-29.9375,20.3125,0
77080,5.875,-30.3125,18.125,0
77100,3.375,-30.3125,18.1875,0
77120,1.625,-29.875,16.4375,0
77140,4.625,-30.5,15.5,0
77160,6.375,-30.125,13.1875,0
77180,3.5,-31,12.625,0
77200,1.875,-31.625,12.125,0
77220,3.3125,-31.625,9.9375,0
77240,2.25,-31.3125,8,0
77260,2.5,-31.625,7.5,0
77280,1.6875,-31.3125,4.8125,0
77300,0.5,-30.3125,3.4375,0
77320,-0.3125,-28.9375,1.0625,0
77340,2.5,-28.9375,-1.0625,0
77360,2.5625,-29.4375,-4,0
77380,-3.125,-29.1875,-5.0625,0
77400,-2.9375,-28.1875,-5.3125,0
77420,-3.0625,-29,-6.125,0
77440,-5.1875,-28.1875,-6.6875,0
77460,-5.3125,-26.1875,-8.1875,0
77480,-5.25,-25.25,-10.9375,0
77500,-9.0625,-25.6875,-10.5,0
77520,-10.5625,-23.875,-10.25,0
77540,-7.1875,-21.625,-11.125,0
77560,-10.0625,-20.5625,-12.6875,0
77580,-12.375,-20.375,-12.25,0
77600,-9.1875,-19.8125,-12.375,0
77620,-6.6875,-17.375,-15.25,0
77640,-9.3125,-15.375,-16.125,0
77660,-9,-16.3125,-16.5625,0
77680,-3.25,-18.25,-16.75,0
77700,-4.4375,-18.1875,-20.1875,0
77720,-6.75,-16.25,-21.4375,0
77740,-3.5625,-14.9375,-21.9375,0
77760,1.6875,-14.375,-24.3125,0
77780,4.875,-11.8125,-27.3125,0
77800,5.9375,-11.0625,-26.0625,0
77820,2.3125,-11.625,-24.875,0
77840,2.125,-11.125,-23.4375,0
77860,4.25,-9.625,-21.1875,0
77880,2.9375,-11.1875,-19.625,0
77900,0.6875,-13.3125,-18.3125,0
77920,0.75,-12.4375,-17.4375,0
77940,2.5625,-13.0625,-18.625,0
77960,1.5,-14.0625,-18.4375,0
77980,2.125,-14.1875,-21.125,0
78000,2.1875,-12.875,-23.1875,0
78020,0.6875,-12.6875,-23.25,0
78040,2.4375,-13.9375,-24.1875,2001
78060,1.875,-11.8125,-25.375,0
78080,0.6875,-9.125,-21.625,0
78100,-1.5625,-9.4375,-17.6875,0
78120,-1.125,-9.8125,-15.5,0
78140,-3.625,-8,-13.3125,0
78160,-5.25,-6.875,-10.5,0
78180,-5.8125,-6.3125,-7.25,0
78200,-1.25,-5,-7.3125,0
78220,0.4375,-5.25,-9.5,0
78240,-0.875,-3.25,-8.5,0
78260,-0.4375,-2.9375,-8.0625,0
78280,0.6875,-2.875,-8.1875,0
78300,0.25,-2.625,-8.25,0
78320,1.1875,-2.9375,-6.5625,0
78340,0.5,-1.625,-4.9375,0
78360,3.3125,-4.0625,-3.6875,0
78380,5.125,-10.9375,-1.125,0
78400,7.6875,-14.4375,-1,0
78420,6.9375,-15,-1.1875,0
78440,5.4375,-14.4375,-1.0625,0
78460,2.4375,-9.875,2.5,0
78480,9.25,-7.25,3.0625,0
78500,6.8125,-0.75,3.75,0
78520,4.8125,4.5,6.0625,0
78540,6.3125,8.1875,7.3125,0
78560,8.0625,10.75,8.25,0
78580,11.9375,9.4375,7.625,0
78600,11.75,11.125,9.5625,0
78620,12,19.0625,9.875,0
78640,15.125,26.75,9.4375,0
78660,18.5625,27.875,7,0
78680,18.5,27.625,6.625,0
78700,25,29.1875,9,0
78720,27.25,25.9375,8.3125,0
78740,29.25,24.5,5.75,0
78760,27.125,35.3125,9.8125,0
78780,34.5625,44.25,16.0625,0
78800,40.375,43.5,19.75,0
78820,39.875,41.875,23.1875,0
78840,35.6875,47.5,25.9375,0
78860,43.6875,49.1875,22.5,0
78880,42.9375,47.5625,20.9375,0
78900,44.5,46.125,22.1875,0
78920,43.875,48.5,23.125,0
78940,46.625,50.6875,23.75,0
78960,51.375,50.9375,22.25,0
78980,52.8125,49.9375,21.8125,0
79000,49.9375,51.4375,21.9375,0
79020,47.375,58.625,24.9375,0
79040,45.5,57.75,22.875,0
79060,46.125,53.5,22.625,0
79080,47.9375,53,22.9375,0
79100,42.875,59.125,24.625,0
79120,41.0625,58.6875,26.75,0
79140,41.9375,54.375,25.5625,0
79160,42.1875,56.75,22.8125,0
79180,34.4375,60.5625,26.75,0
79200,33.6875,59.5,27.875,0
79220,35.375,53.9375,25.375,0
79240,32.4375,52.5,24.8125,0
79260,26.75,50.875,24.375,0
79280,26.1875,45.875,22.125,0
79300,26.5,38.4375,22.25,0
79320,22,32.625,21.125,0
79340,16.125,30.75,21.625,0
79360,19.0625,27.75,21.4375,0
79380,21,22.125,18.5,0
79400,21.3125,16.6875,17.875,0
79420,17.625,17.5625,15.8125,0
79440,20.3125,16.6875,11.0625,0
79460,19.1875,12.875,10.8125,0
79480,19.375,7.8125,11.4375,0
79500,16.1875,8.4375,12.625,0
79520,13.75,8.75,9.25,0
79540,11.1875,5.375,7.5,0
79560,7.0625,3.6875,9.6875,0
79580,5.6875,4.0625,10.6875,0
79600,3.9375,5.5,8,0
79620,1.8125,3.875,5.6875,0
79640,-3.6875,4.4375,4.125,0
79660,-2.0625,4.4375,4,0
79680,-0.6875,3,0.375,0
79700,-1.375,2.1875,1.0625,0
79720,-5.4375,2.25,1.25,0
79740,-6.125,1.5,-1.0625,0
79760,-5.125,0.3125,1.5,0
79780,-5.5,1.5625,2.1875,0
79800,-3.9375,3.5625,0.9375,0
79820,-2.1875,2.4375,1.875,0
79830,-1.75,3.4375,0.875,0
79850,-2.9375,5.1875,2.75,0
79870,-2.5,6.75,3.9375,0
79890,-0.5,7.25,1.4375,0
79910,0,8.125,2,0
79930,0.3125,7.6875,4.9375,0
79950,0,9.6875,4.9375,0
79970,1.125,8.875,5.375,0
79990,-0.3125,8,5.875,0
80010,0.3125,6.3125,4.6875,0
80030,0.9375,6,4.0625,0
80050,2.0625,5.0625,2.8125,0
80070,2,2.0625,-0.25,0
80090,0.625,0.9375,-0.25,0
80110,1.5,0.4375,0.5,0
80130,1.1875,-0.6875,1.125,0
80150,-1.875,-1.25,2.8125,0
80170,-2.0625,-1.75,1.3125,0
80190,-0.5625,-2,2.0625,0
80210,-1.1875,-2.3125,1.5,0
80230,-1.625,-1.625,1.5,0
80250,-1.1875,-0.9375,1.3125,0
80270,-1.25,-0.75,1.5,0
80290,-0.875,-0.1875,1.625,0
80310,-0.875,-1.75,2.5625,0
80330,-1.25,-3.25,4,0
80350,-1.5,-3.125,2.6875,2000
80370,-1,-3.3125,4.3125,0
80390,0.25,-4.4375,5.125,0
80410,-0.25,-5.8125,3.8125,0
80430,-0.25,-4.875,3.0625,0
80450,-0.75,-5.3125,3.125,0
80470,1.1875,-6.4375,3.8125,0
80490,0.3125,-7.75,3.4375,0
80510,0.0625,-9.25,3.9375,0
80530,-0.5,-9.875,2.375,0
80550,0.375,-10.8125,3.25,0
80570,-0.25,-10.4375,3.6875,0
80590,-0.3125,-12,3.1875,0
80610,0.6875,-13.75,4.5,0
80630,-0.375,-13.6875,6.3125,0
80650,-1,-13.9375,5.625,0
80670,0.625,-13.875,7.5,0
80690,1.8125,-15.0625,6.125,0
80710,0.8125,-15.9375,3.625,0
80730,-0.125,-16.0625,3.75,0
80750,1.125,-16,2.375,0
80770,1.125,-17.4375,-0.0625,0
80790,-2.0625,-18.5,0.5,0
80810,-0.1875,-19.0625,1.125,0
80830,1.125,-20.0625,-0.125,0
80850,-1.875,-20.625,0.375,0
80870,-4.125,-20.6875,1,0
80890,-5.375,-21.5625,0,0
80910,-4.5,-23.75,-1.1875,0
80930,-5.5,-25.0625,-3.8125,0
80950,-6,-25.25,-5.8125,0
80970,-5.75,-25,-7.5625,0
80990,-9.4375,-24.4375,-6.25,0
81010,-11.0625,-23.9375,-7.3125,0
81030,-8.4375,-24.1875,-10,0
81050,-9.9375,-23.625,-10.75,0
81070,-12.6875,-23.75,-13.125,0
81090,-13.4375,-23.25,-11.9375,0
81110,-11.25,-22.1875,-14.125,0
81130,-14.5,-21.125,-15.375,0
81150,-18.625,-19.5,-14.25,0
81170,-17.8125,-16.75,-16.875,0
81190,-19,-14.9375,-18.375,0
81210,-20.5625,-13.8125,-19.375,0
81230,-22.4375,-11.1875,-19.1875,0
81250,-22.375,-8.0625,-19,0
81270,-22.6875,-5.8125,-21.375,0
81290,-25.6875,-5.8125,-23.3125,0
81310,-26.8125,-7.5625,-24.9375,0
81330,-26.9375,-8.25,-24.125,0
81350,-24.375,-5.625,-23.0625,0
81370,-26.8125,-3.625,-24.6875,0
81390,-30.25,-3.75,-25.875,0
81410,-30.8125,-4.8125,-27,0
81430,-30.125,-3.25,-26.125,0
81450,-32.625,-1.3125,-27.375,0
81470,-35.9375,2.3125,-26.5625,0
81490,-35.375,5.0625,-27.0625,0
81510,-36.5,7.3125,-28.6875,0
81530,-37.3125,9.3125,-30.375,0
81550,-39.1875,10.4375,-30.75,0
81570,-39.75,10.9375,-32.1875,0
81590,-38,13.1875,-33.9375,0
81620,-41.3125,12,-35.625,0
81640,-41,11.8125,-35.5625,0
81660,-41.25,14.3125,-34.6875,0
81680,-41.5,18,-34.375,0
81700,-41.0625,20.5,-32.125,0
81720,-40.25,22.125,-30.8125,0
81740,-37.125,22.4375,-30.375,0
81760,-36.5625,25.0625,-30.1875,0
81780,-38.875,28.75,-29.0625,0
81800,-38.875,31.5625,-28.875,0
81820,-36.1875,32.6875,-28.3125,0
81830,-36.0625,33.375,-27.375,0
81850,-37.0625,33.5625,-27.5,0
81870,-36,34,-26.0625,0
81890,-34.375,34.6875,-25.4375,0
81910,-34.875,36,-24.4375,0
81930,-34.5625,36.1875,-22.25,0
81950,-32.9375,35.5,-21.25,0
81970,-30.5625,34.1875,-19.3125,0
81990,-29.9375,35.25,-17.5,0
82010,-29.5,35.6875,-15,0
82030,-28.1875,34.5,-14.375,0
82050,-24.0625,33.0625,-13.5625,0
82070,-21.5625,30.4375,-13.4375,0
82090,-21.1875,30.1875,-13.0625,0
82110,-22.4375,31,-10.9375,0
82130,-18.6875,28.1875,-9.4375,0
82150,-16.3125,25.0625,-9,0
82170,-16.75,22.3125,-8.625,0
82190,-15.1875,20.625,-6.0625,0
82210,-10.8125,19.875,-2.75,0
82230,-9.875,20.1875,1.1875,0
82250,-9.125,20.0625,4.125,0
82270,-10.875,19.5625,6.9375,0
82290,-6.9375,17.4375,7.6875,0
82310,-6.125,17.625,7.4375,0
82330,-4.375,17.875,11,0
82350,-2.25,16.6875,12.9375,0
82370,-1,12.5625,15.5,0
82390,-0.5625,8.1875,12.125,0
82410,0.375,5.5625,13.0625,0
82430,1.625,5.1875,15.75,0
82450,4.125,6,14.5625,0
82470,-1.0625,11.8125,17,0
82490,1.0625,12.125,19.6875,0
82510,2.25,11,17.1875,0
82530,1.3125,13.4375,17.25,0
82550,2.875,15.375,19.125,0
82570,4,14,18.8125,0
82590,0.25,10.9375,19.0625,0
82610,1.625,7.625,17.5625,0
82630,2.9375,4.4375,17.6875,0
82650,2.6875,3.1875,20.3125,0
82670,-1.125,4.625,21.5,0
82690,0.875,1.8125,21.0625,0
82710,3.5625,-1.375,22.375,0
82730,5.9375,-3.625,21.6875,0
82750,2.25,-2.5,20.625,0
82770,3.0625,-4.3125,22.625,0
82790,7.9375,-6.5,22.0625,0
82810,8.5,-6.4375,21.875,0
82830,7.25,-7.4375,21.625,0
82850,7.25,-10,22.25,0
82870,7.75,-11.1875,23.9375,0
82890,7.3125,-12.5625,24,0
82910,7.5625,-14.125,25.8125,0
82930,8.1875,-16.8125,26.4375,0
82950,10.375,-18.4375,26.625,0
82970,11.3125,-20.3125,27.6875,0
82990,11.8125,-21.375,27.5625,0
83010,11.625,-21.875,28,0
83030,14.75,-23.5625,28.8125,0
83050,17.125,-25.375,28.25,0
83070,16.75,-24.625,27.5,0
83090,15.0625,-25.1875,27.5625,0
83110,19.8125,-25.8125,25.875,0
83130,23.3125,-26.1875,23.375,0
83150,23.6875,-25.375,22.625,0
83170,23.125,-24.9375,23,0
83190,18.25,-23.6875,23.3125,0
83210,17.6875,-22.4375,23.6875,0
83230,16.3125,-23.875,23.375,0
83250,15,-25.75,22.5625,0
83270,14.125,-26.1875,21.875,0
83290,14,-25.9375,21.1875,0
83310,12.875,-27.9375,20.5625,0
83330,13.5625,-28,19.875,0
83350,15.875,-26.9375,18.4375,0
83370,16.875,-27.75,17.6875,0
83390,17.5,-28.375,18.25,0
83410,13.6875,-28.125,18.25,0
83430,10.875,-27.1875,20.3125,0
83450,9.6875,-28.4375,22.4375,0
83470,12.5,-29.5,20.625,0
83490,13.25,-30.375,19.0625,0
83510,13.5625,-29.875,15.6875,0
83530,13,-30.5625,13.75,0
83550,13.9375,-32.8125,12.4375,0
83570,14.125,-34.0625,11.3125,0
83590,12.9375,-35.375,12.5625,0
83610,12.3125,-34.625,15.375,0
83630,6.75,-33.4375,15.8125,0
83650,4.3125,-33.875,15,0
83670,4.625,-34.9375,12.5625,0
83690,2.0625,-31.375,10.5625,0
