Timestamp, Angle x, Angle y, Angle z, Marker
50,-1.38409,0.51943,1.91902,0
70,-1.38253,0.510315,1.92879,0
90,-1.38221,0.497028,1.92977,0
110,-1.37965,0.486304,1.92478,0
130,-1.37089,0.481459,1.91811,0
150,-1.36209,0.479812,1.90859,0
160,-1.35682,0.481905,1.89783,0
160,-1.35048,0.486513,1.88929,0
200,-1.34447,0.490404,1.88247,0
210,-1.33999,0.491906,1.87482,0
230,-1.33434,0.492926,1.86689,0
250,-1.32815,0.494422,1.85977,0
270,-1.32118,0.494998,1.85376,0
290,-1.31481,0.494539,1.84769,0
310,-1.30879,0.493641,1.84218,0
330,-1.30377,0.492699,1.83757,0
350,-1.30038,0.491595,1.83422,0
370,-1.29835,0.489922,1.83177,0
390,-1.29646,0.487337,1.82942,0
410,-1.29471,0.485228,1.82654,0
430,-1.29243,0.483976,1.82369,0
450,-1.29011,0.483066,1.8213,0
470,-1.2895,0.483025,1.81984,0
490,-1.2911,0.483357,1.81963,0
510,-1.29373,0.484011,1.81981,0
530,-1.29702,0.485067,1.82062,0
550,-1.29975,0.485329,1.82173,0
570,-1.3016,0.485365,1.82225,0
590,-1.30238,0.485599,1.82274,0
610,-1.30285,0.485446,1.82333,0
630,-1.30339,0.483919,1.82371,0
650,-1.30452,0.48165,1.82353,0
670,-1.30715,0.480394,1.82335,0
690,-1.31083,0.481766,1.82387,0
710,-1.31524,0.485313,1.82562,0
730,-1.31926,0.489725,1.82846,0
750,-1.32165,0.494729,1.83195,0
770,-1.32286,0.499622,1.83502,0
790,-1.32376,0.503526,1.8378,0
810,-1.32395,0.505748,1.83985,0
830,-1.32243,0.505468,1.84104,0
850,-1.31911,0.502875,1.84095,0
870,-1.31428,0.498522,1.83956,0
890,-1.3076,0.493575,1.83711,0
910,-1.30033,0.489085,1.83355,0
920,-1.2939,0.48521,1.82954,0
940,-1.28945,0.48161,1.82584,0
960,-1.28704,0.47866,1.823,0
980,-1.28744,0.477456,1.82162,0
1000,-1.28945,0.477102,1.82176,0
1020,-1.29282,0.477517,1.82309,0
1040,-1.29602,0.47844,1.825,0
1060,-1.29894,0.480238,1.82728,0
1080,-1.30138,0.482362,1.82947,0
1100,-1.3031,0.484397,1.83178,0
1120,-1.30469,0.486052,1.83412,0
1140,-1.30547,0.487251,1.83631,0
1160,-1.30588,0.488236,1.83785,0
1180,-1.30576,0.489075,1.83898,0
1200,-1.30532,0.48972,1.83987,0
1220,-1.30411,0.489564,1.84016,0
1240,-1.30189,0.488533,1.83989,0
1260,-1.29904,0.486852,1.83904,0
1280,-1.2954,0.484863,1.83795,0
1300,-1.29179,0.482959,1.83661,0
1320,-1.2895,0.481284,1.83526,0
1340,-1.28897,0.47998,1.83377,0
1360,-1.29022,0.478934,1.8328,0
1380,-1.2922,0.478147,1.83221,0
1400,-1.29355,0.478072,1.83247,0
1420,-1.29427,0.478569,1.83324,0
1440,-1.29487,0.478795,1.8345,0
1460,-1.29627,0.478783,1.8359,0
1480,-1.29858,0.478534,1.83755,0
1500,-1.30106,0.478582,1.8394,0
1520,-1.30362,0.478685,1.84111,0
1540,-1.30705,0.479049,1.8423,0
1560,-1.3111,0.479622,1.84334,0
1580,-1.31518,0.480592,1.84427,0
1600,-1.31888,0.481444,1.84573,0
1620,-1.324,0.48172,1.84597,0
1640,-1.33134,0.482352,1.8458,0
1660,-1.33918,0.482801,1.84609,0
1680,-1.34557,0.483375,1.84617,0
1700,-1.35494,0.484716,1.84733,0
1720,-1.36767,0.485997,1.84712,0
1740,-1.38189,0.486398,1.8471,0
1760,-1.39584,0.486144,1.84531,0
1780,-1.40767,0.487807,1.84385,0
1800,-1.41548,0.490405,1.84319,0
1820,-1.42399,0.492893,1.84141,0
1840,-1.4316,0.494701,1.83696,0
1860,-1.43648,0.496457,1.8307,0
1880,-1.4388,0.500576,1.82423,0
1900,-1.44243,0.506466,1.81804,0
1920,-1.44765,0.510095,1.81159,0
1940,-1.45411,0.513839,1.80394,0
1960,-1.46007,0.518407,1.79695,0
1980,-1.46583,0.523784,1.79275,0
2000,-1.47342,0.529922,1.79119,0
2020,-1.48167,0.534552,1.7914,0
2040,-1.49033,0.538412,1.7919,0
2060,-1.49824,0.542508,1.79347,0
2080,-1.50508,0.547176,1.79548,0
2100,-1.51108,0.550102,1.79725,0
2120,-1.51558,0.551347,1.79759,0
2140,-1.51562,0.55154,1.79751,0
2160,-1.51221,0.551612,1.79718,0
2180,-1.5086,0.551307,1.79579,0
2200,-1.5036,0.550847,1.79337,0
2220,-1.49793,0.550165,1.79054,0
2240,-1.49222,0.549541,1.78791,0
2260,-1.48851,0.549029,1.78511,0
2280,-1.48568,0.548594,1.78235,0
2300,-1.48368,0.548118,1.77988,0
2320,-1.48181,0.546691,1.77868,0
2340,-1.47859,0.54455,1.77879,0
2360,-1.47507,0.542872,1.77945,0
2380,-1.47119,0.540324,1.78003,0
2400,-1.46703,0.537509,1.78076,0
2420,-1.46155,0.53557,1.78198,0
2440,-1.45361,0.533371,1.78437,0
2460,-1.44436,0.530345,1.7869,0
2480,-1.43597,0.526432,1.78895,0
2500,-1.428,0.522796,1.79,0
2520,-1.42004,0.51998,1.79097,0
2540,-1.41428,0.51826,1.79232,0
2560,-1.41263,0.517121,1.79398,0
2580,-1.41363,0.515117,1.79535,0
2600,-1.41657,0.512937,1.79583,0
2620,-1.42027,0.512379,1.79571,0
2640,-1.42264,0.513066,1.79502,0
2660,-1.42303,0.514823,1.79404,0
2680,-1.42238,0.517107,1.79307,0
2700,-1.42147,0.519292,1.79201,0
2720,-1.42112,0.520592,1.79069,0
2740,-1.42175,0.521648,1.78865,0
2760,-1.4226,0.52151,1.78663,0
2780,-1.42223,0.520654,1.78446,0
2800,-1.42052,0.520024,1.78287,0
2820,-1.41795,0.519396,1.78171,0
2840,-1.41684,0.519218,1.78121,0
2860,-1.41697,0.51834,1.78123,0
2880,-1.41869,0.517121,1.78153,0
2900,-1.42081,0.516202,1.78196,0
2910,-1.42203,0.515442,1.78277,0
2930,-1.42167,0.515273,1.78379,0
2950,-1.42047,0.515425,1.78524,0
2970,-1.41943,0.515595,1.78651,0
2990,-1.41919,0.515455,1.78779,0
3010,-1.41926,0.51548,1.7889,0
3030,-1.41838,0.514965,1.79012,0
3050,-1.41671,0.513978,1.79129,0
3070,-1.415,0.513448,1.79238,0
3090,-1.41427,0.513129,1.79363,0
3110,-1.41474,0.512727,1.79484,0
3130,-1.4153,0.512087,1.79621,0
3150,-1.41461,0.511312,1.79755,0
3170,-1.41316,0.510931,1.79875,0
3190,-1.411,0.510486,1.7999,0
3210,-1.40896,0.510208,1.80037,0
3230,-1.40759,0.509949,1.80047,0
3250,-1.40652,0.509602,1.8,0
3270,-1.40615,0.509542,1.79927,0
3290,-1.40688,0.50947,1.79856,0
3310,-1.4074,0.509312,1.79747,0
3330,-1.40742,0.509476,1.79669,0
3350,-1.40726,0.509427,1.79617,0
3370,-1.40718,0.509116,1.79565,0
3390,-1.40653,0.508369,1.79544,0
3410,-1.40532,0.507113,1.79537,0
3430,-1.404,0.506324,1.79483,0
3450,-1.40189,0.505718,1.79408,0
3470,-1.39925,0.505295,1.79318,0
3490,-1.39633,0.504984,1.79172,0
3510,-1.39349,0.50509,1.79028,0
3530,-1.39055,0.505126,1.78857,0
3550,-1.38841,0.505256,1.78633,0
3570,-1.38592,0.505495,1.78428,0
3590,-1.38291,0.505011,1.78213,0
3610,-1.38145,0.505011,1.77977,0
3630,-1.37942,0.505348,1.77788,0
3650,-1.37711,0.505778,1.77657,0
3670,-1.375,0.505977,1.77576,0
3690,-1.37381,0.505768,1.7757,0
3710,-1.37411,0.505657,1.77651,0
3730,-1.37522,0.505063,1.77778,0
3750,-1.37669,0.504401,1.77948,0
3770,-1.37737,0.504045,1.78128,0
3790,-1.37805,0.503399,1.78312,0
3810,-1.37864,0.502813,1.78434,0
3830,-1.37857,0.502293,1.78483,0
3850,-1.37797,0.501879,1.78476,0
3870,-1.37549,0.501799,1.78397,0
3890,-1.37044,0.501577,1.78214,0
3910,-1.36411,0.500963,1.77955,0
3930,-1.35854,0.500368,1.77656,0
3950,-1.35378,0.499432,1.77494,0
3970,-1.34859,0.497937,1.77246,0
3990,-1.34384,0.496942,1.76961,0
4010,-1.33979,0.49595,1.76746,0
4030,-1.33778,0.49465,1.76633,0
4050,-1.33687,0.49369,1.76506,0
4070,-1.3371,0.493573,1.7637,0
4090,-1.33727,0.493252,1.76377,0
4110,-1.33831,0.493248,1.76378,0
4130,-1.34006,0.493976,1.76424,0
4150,-1.34135,0.49491,1.76481,0
4170,-1.34153,0.495676,1.76531,0
4190,-1.34132,0.495924,1.76551,0
4210,-1.33934,0.496645,1.76655,0
4230,-1.33808,0.496891,1.76742,0
4250,-1.33747,0.496832,1.76735,0
4270,-1.33762,0.496853,1.76716,0
4290,-1.33913,0.497739,1.76723,0
4310,-1.34146,0.499404,1.76743,0
4330,-1.34428,0.501352,1.76784,0
4350,-1.34721,0.502647,1.76848,0
4370,-1.34846,0.503616,1.76868,0
4390,-1.34859,0.504416,1.76856,0
4410,-1.34832,0.505392,1.76781,0
4430,-1.34811,0.506176,1.76768,0
4450,-1.34869,0.505969,1.76765,0
4470,-1.34855,0.505826,1.76764,0
4490,-1.34763,0.50553,1.76732,0
4510,-1.34641,0.505849,1.76724,0
4530,-1.34507,0.506631,1.76725,0
4550,-1.34476,0.507535,1.76747,0
4570,-1.34554,0.508298,1.76763,0
4590,-1.34554,0.508298,1.76763,0
4610,-1.34554,0.508298,1.76763,0
4630,-1.34543,0.508422,1.76773,0
4650,-1.34408,0.508717,1.76808,0
4670,-1.34306,0.50886,1.76868,0
4690,-1.34304,0.508666,1.76875,0
4710,-1.34426,0.508834,1.76847,0
4730,-1.34533,0.509151,1.76861,0
4750,-1.3466,0.509951,1.76859,0
4770,-1.3468,0.510921,1.76879,0
4790,-1.34658,0.511583,1.76915,0
4810,-1.34647,0.511633,1.76907,0
4830,-1.34696,0.511548,1.76869,0
4850,-1.34738,0.511615,1.76858,0
4870,-1.34713,0.511521,1.76849,0
4890,-1.34654,0.511486,1.76857,0
4910,-1.34659,0.511873,1.76843,0
4930,-1.34728,0.51264,1.7685,0
4950,-1.34864,0.513364,1.7684,0
4970,-1.34964,0.514244,1.76851,0
4990,-1.35022,0.515426,1.76865,0
5010,-1.35002,0.516406,1.76914,0
5030,-1.34994,0.516849,1.76937,0
5050,-1.35034,0.517253,1.76924,0
5070,-1.35155,0.517765,1.76871,0
5090,-1.35222,0.518216,1.76865,0
5110,-1.35233,0.518456,1.76869,0
5130,-1.35251,0.51887,1.76881,0
5150,-1.35255,0.519671,1.76884,0
5170,-1.35339,0.520585,1.76892,0
5190,-1.35398,0.521647,1.76885,0
5210,-1.3544,0.52303,1.76872,0
5230,-1.35503,0.524286,1.76859,0
5250,-1.35635,0.524998,1.76853,0
5270,-1.35748,0.525142,1.768,0
5290,-1.35868,0.52517,1.76757,0
5310,-1.35879,0.52492,1.76727,0
5330,-1.35881,0.524948,1.76743,0
5350,-1.35769,0.524769,1.76736,0
5370,-1.35751,0.525091,1.76729,0
5390,-1.35776,0.525234,1.7674,0
5410,-1.35879,0.52558,1.76714,0
5430,-1.35883,0.525726,1.76705,0
5450,-1.35891,0.526066,1.7669,0
5470,-1.35841,0.525827,1.7667,0
5490,-1.35856,0.525433,1.76634,0
5510,-1.35912,0.525077,1.76571,0
5530,-1.35989,0.524546,1.76505,0
5550,-1.35943,0.523552,1.76495,0
5570,-1.35821,0.522627,1.76532,0
5590,-1.3568,0.521872,1.76525,0
5610,-1.3562,0.521884,1.76536,0
5630,-1.35636,0.521981,1.76535,0
5650,-1.35636,0.521981,1.76535,0
5670,-1.35559,0.521897,1.76546,0
5690,-1.35384,0.521326,1.76577,0
5710,-1.35218,0.520772,1.76534,0
5730,-1.35151,0.520203,1.76497,0
5750,-1.35119,0.519232,1.76467,0
5770,-1.35152,0.517982,1.76471,0
5790,-1.351,0.516893,1.76471,0
5810,-1.35049,0.51654,1.76477,0
5830,-1.34923,0.516179,1.76511,0
5850,-1.3484,0.516368,1.76523,0
5870,-1.3484,0.516491,1.76543,0
5890,-1.34916,0.516863,1.76529,0
5910,-1.34975,0.516608,1.76524,0
5930,-1.34918,0.515545,1.76486,0
5950,-1.34782,0.514335,1.76461,0
5970,-1.34619,0.513279,1.76467,0
5990,-1.34464,0.512194,1.76467,0
6010,-1.34406,0.511138,1.76474,0
6030,-1.3434,0.510568,1.7646,0
6050,-1.34343,0.510473,1.76457,0
6070,-1.34343,0.510473,1.76457,0
6090,-1.34359,0.510569,1.76456,0
6110,-1.34284,0.510728,1.76462,0
6130,-1.34251,0.510666,1.76459,0
6150,-1.3419,0.51012,1.76417,0
6170,-1.34201,0.509879,1.76364,0
6190,-1.34189,0.509203,1.76327,0
6210,-1.34136,0.508536,1.76319,0
6230,-1.34058,0.507899,1.76323,0
6250,-1.33942,0.507539,1.76367,0
6270,-1.33911,0.507181,1.76392,0
6290,-1.33929,0.506323,1.76431,0
6310,-1.33884,0.505574,1.76483,0
6330,-1.33884,0.505574,1.76483,0
6350,-1.33781,0.505041,1.76515,0
6370,-1.33675,0.504851,1.76522,0
6380,-1.33644,0.504908,1.76495,0
6400,-1.33701,0.504874,1.76445,0
6420,-1.33759,0.504544,1.76422,0
6440,-1.33758,0.504182,1.76408,0
6460,-1.33694,0.503688,1.76412,0
6480,-1.3361,0.50349,1.76394,0
6500,-1.33565,0.50336,1.76408,0
6520,-1.33537,0.503075,1.76406,0
6540,-1.33567,0.502821,1.76396,0
6560,-1.33664,0.502726,1.76383,0
6580,-1.33704,0.502229,1.76388,0
6600,-1.33628,0.501908,1.76404,0
6620,-1.33483,0.501846,1.76415,0
6640,-1.33428,0.502082,1.76434,0
6660,-1.33492,0.502213,1.76415,0
6680,-1.33576,0.502215,1.76396,0
6700,-1.33621,0.501817,1.7639,0
6720,-1.33621,0.501817,1.7639,0
6740,-1.33539,0.501572,1.7637,0
6760,-1.33505,0.501437,1.7635,0
6780,-1.3349,0.501341,1.76351,0
6800,-1.335,0.501225,1.76317,0
6820,-1.33487,0.501323,1.76311,0
6840,-1.33522,0.500928,1.76295,0
6860,-1.33518,0.500782,1.76304,0
6880,-1.33518,0.500782,1.76304,0
6900,-1.33518,0.500782,1.76304,0
6920,-1.3352,0.500734,1.76302,0
6940,-1.33519,0.50066,1.76285,0
6960,-1.33519,0.50066,1.76285,0
6980,-1.33577,0.500526,1.76299,0
7000,-1.33586,0.500448,1.76291,0
7020,-1.33586,0.500448,1.76291,0
7040,-1.33575,0.500573,1.76301,0
7060,-1.33586,0.500448,1.76291,0
7080,-1.33564,0.500502,1.76274,0
7100,-1.33564,0.500502,1.76274,0
7120,-1.33645,0.500607,1.76234,0
7140,-1.33658,0.500749,1.76235,0
7160,-1.33645,0.500607,1.76234,0
7180,-1.33645,0.500607,1.76234,0
7200,-1.33645,0.500607,1.76234,0
7220,-1.33645,0.500607,1.76234,0
7240,-1.33645,0.500607,1.76234,0
7260,-1.33645,0.500607,1.76234,0
7280,-1.33645,0.500607,1.76234,0
7300,-1.33645,0.500607,1.76234,0
7320,-1.33645,0.500607,1.76234,0
7340,-1.33645,0.500607,1.76234,0
7360,-1.33645,0.500607,1.76234,0
7380,-1.33646,0.500681,1.76252,0
7400,-1.33634,0.500732,1.76244,0
7420,-1.33646,0.500681,1.76252,0
7440,-1.33646,0.500681,1.76252,0
7460,-1.33629,0.500512,1.76235,0
7480,-1.33629,0.500512,1.76235,0
7500,-1.33629,0.500512,1.76235,0
7520,-1.33629,0.500512,1.76235,0
7540,-1.33629,0.500512,1.76235,0
7560,-1.33629,0.500512,1.76235,0
7580,-1.33631,0.500464,1.76234,0
7600,-1.33629,0.500512,1.76235,0
7620,-1.3364,0.500461,1.76243,0
7640,-1.33631,0.500464,1.76234,0
7660,-1.33631,0.500464,1.76234,0
7680,-1.33632,0.500538,1.76251,0
7700,-1.33631,0.500464,1.76234,0
7720,-1.33631,0.500464,1.76234,0
7740,-1.33631,0.500464,1.76234,0
7760,-1.33632,0.500538,1.76251,0
7780,-1.3362,0.500589,1.76243,0
7800,-1.33605,0.500494,1.76244,0
7820,-1.33578,0.500404,1.7628,0
7840,-1.33557,0.500699,1.76257,0
7860,-1.33557,0.500699,1.76257,0
7880,-1.33573,0.500795,1.76256,0
7900,-1.33611,0.501316,1.76263,0
7920,-1.33674,0.50169,1.76283,0
7940,-1.33699,0.501948,1.76269,0
7960,-1.33739,0.502423,1.76273,0
7980,-1.33776,0.502704,1.76285,0
8000,-1.33812,0.503034,1.76298,0
8020,-1.33876,0.503527,1.76294,0
8040,-1.33916,0.504002,1.76298,0
8060,-1.3392,0.504511,1.76304,0
8080,-1.3392,0.504511,1.76304,0
8100,-1.3392,0.504511,1.76304,0
8120,-1.3392,0.504511,1.76304,0
8140,-1.33961,0.504864,1.76289,0
8160,-1.33961,0.504864,1.76289,0
8180,-1.33961,0.504864,1.76289,0
8200,-1.33961,0.504864,1.76289,0
8220,-1.33961,0.504864,1.76289,0
8240,-1.3396,0.504912,1.76291,0
8260,-1.3396,0.504912,1.76291,0
8280,-1.3396,0.504912,1.76291,0
8300,-1.33975,0.505007,1.7629,0
8320,-1.33975,0.505007,1.7629,0
8340,-1.33973,0.505055,1.76292,0
8360,-1.33962,0.505105,1.76284,0
8370,-1.33978,0.505201,1.76283,0
8390,-1.33978,0.505201,1.76283,0
8410,-1.33978,0.505201,1.76283,0
8430,-1.33978,0.505201,1.76283,0
8450,-1.33978,0.505201,1.76283,0
8470,-1.33976,0.505248,1.76285,0
8490,-1.33976,0.505248,1.76285,0
8510,-1.33992,0.505344,1.76284,0
8530,-1.3398,0.505394,1.76276,0
8550,-1.33966,0.505373,1.76295,0
8570,-1.3397,0.505519,1.76286,0
8590,-1.33981,0.505469,1.76294,0
8610,-1.33942,0.505234,1.76284,0
8630,-1.33942,0.505234,1.76284,0
8650,-1.33981,0.505272,1.76256,0
8670,-1.34054,0.505159,1.76252,0
8690,-1.34052,0.505207,1.76254,0
8710,-1.34054,0.505159,1.76252,0
8730,-1.34039,0.505138,1.76271,0
8750,-1.34038,0.505064,1.76253,0
8770,-1.34038,0.505064,1.76253,0
8790,-1.34038,0.505064,1.76253,0
8810,-1.33999,0.505199,1.76234,0
8830,-1.3396,0.504964,1.76224,0
8850,-1.33969,0.504598,1.7622,0
8870,-1.34004,0.504203,1.76204,0
8890,-1.34036,0.503661,1.76197,0
8910,-1.34003,0.502989,1.7621,0
8930,-1.33958,0.502368,1.76214,0
8950,-1.33892,0.501682,1.76225,0
8970,-1.33819,0.500897,1.76247,0
8990,-1.33815,0.500389,1.76242,0
9010,-1.33808,0.499688,1.76243,0
9030,-1.33775,0.499017,1.76255,0
9050,-1.33699,0.498697,1.76271,0
9070,-1.33637,0.498519,1.76288,0
9090,-1.33619,0.498231,1.76296,0
9110,-1.3361,0.497699,1.76318,0
9130,-1.33564,0.496885,1.7633,0
9150,-1.33498,0.4962,1.76341,0
9170,-1.33403,0.495888,1.76338,0
9190,-1.33334,0.495546,1.76323,0
9210,-1.33333,0.495472,1.76306,0
9230,-1.33331,0.49552,1.76308,0
9250,-1.33333,0.495472,1.76306,0
9270,-1.33331,0.495159,1.76293,0
9290,-1.33311,0.494926,1.76279,0
9310,-1.3325,0.494508,1.76257,0
9330,-1.33177,0.494021,1.76252,0
9350,-1.33114,0.49341,1.76237,0
9370,-1.3306,0.492915,1.76251,0
9390,-1.32985,0.492236,1.76252,0
9410,-1.32887,0.49166,1.76238,0
9430,-1.32763,0.490873,1.7624,0
9450,-1.3274,0.489959,1.76267,0
9470,-1.32744,0.488647,1.76292,0
9490,-1.32754,0.487314,1.76288,0
9510,-1.32711,0.486457,1.76297,0
9530,-1.3263,0.48568,1.7631,0
9550,-1.3254,0.484908,1.76312,0
9570,-1.32463,0.484398,1.76335,0
9590,-1.32463,0.484398,1.76335,0
9610,-1.32453,0.484522,1.76345,0
9630,-1.32449,0.484376,1.76353,0
9640,-1.32396,0.483883,1.76367,0
9660,-1.32345,0.483582,1.76374,0
9680,-1.32357,0.483531,1.76382,0
9700,-1.32345,0.483582,1.76374,0
9720,-1.32345,0.483582,1.76374,0
9740,-1.32345,0.483582,1.76374,0
9760,-1.32341,0.483436,1.76383,0
9780,-1.32343,0.48339,1.76381,0
9800,-1.3232,0.483742,1.76337,0
9820,-1.32349,0.483786,1.763,0
9840,-1.32448,0.484251,1.76227,0
9860,-1.32508,0.484604,1.76164,0
9880,-1.32494,0.484462,1.76163,0
9900,-1.3248,0.48493,1.76147,0
9920,-1.32469,0.484981,1.76139,0
9940,-1.32454,0.485438,1.76191,0
9960,-1.32495,0.485613,1.76223,0
9980,-1.32577,0.485733,1.76224,0
10000,-1.32587,0.485728,1.76233,0
10020,-1.32575,0.48578,1.76225,0
10040,-1.32564,0.486081,1.76189,0
10060,-1.32541,0.486433,1.76144,0
10080,-1.32527,0.486709,1.76092,0
10100,-1.32542,0.486803,1.76091,0
10120,-1.32542,0.486803,1.76091,0
10140,-1.32542,0.486803,1.76091,0
10160,-1.32528,0.486781,1.76109,0
10180,-1.32528,0.486781,1.76109,0
10200,-1.32514,0.48664,1.76108,0
10220,-1.32514,0.48664,1.76108,0
10240,-1.32515,0.486582,1.76174,0
10260,-1.32552,0.486611,1.76214,0
10280,-1.32654,0.486795,1.76252,0
10300,-1.32654,0.486795,1.76252,0
10320,-1.32554,0.487716,1.76273,0
10340,-1.32433,0.488525,1.763,0
10360,-1.324,0.488752,1.76294,0
10380,-1.32521,0.488552,1.76253,0
10400,-1.32728,0.488498,1.76184,0
10420,-1.32931,0.48829,1.76192,0
10440,-1.33149,0.488242,1.76285,0
10460,-1.33377,0.488307,1.76432,0
10480,-1.33693,0.488769,1.7659,0
10500,-1.33956,0.489224,1.76753,0
10520,-1.34147,0.489876,1.76913,0
10540,-1.34054,0.490543,1.77085,0
10560,-1.33758,0.49111,1.77206,0
10580,-1.33453,0.491609,1.77232,0
10600,-1.33176,0.491673,1.77232,0
10620,-1.32961,0.490836,1.77172,0
10640,-1.32773,0.48954,1.77026,0
10660,-1.32554,0.487827,1.76862,0
10680,-1.32386,0.486543,1.76712,0
10700,-1.3227,0.485194,1.76564,0
10720,-1.32245,0.484444,1.76461,0
10740,-1.32256,0.48432,1.76451,0
10760,-1.32356,0.484311,1.76496,0
10780,-1.32455,0.484461,1.76585,0
10800,-1.32538,0.484829,1.76732,0
10820,-1.326,0.485733,1.76896,0
10840,-1.3265,0.486811,1.77071,0
10860,-1.32674,0.487559,1.77243,0
10880,-1.32652,0.488272,1.77389,0
10900,-1.32643,0.489374,1.77507,0
10920,-1.32662,0.490209,1.77575,0
10940,-1.32651,0.491054,1.77614,0
10960,-1.32589,0.491722,1.77611,0
10980,-1.32465,0.492385,1.77579,0
11000,-1.32367,0.492653,1.77545,0
11020,-1.32367,0.492653,1.77545,0
11040,-1.32504,0.492435,1.77483,0
11060,-1.32671,0.492086,1.77431,0
11080,-1.32778,0.491871,1.77408,0
11100,-1.32831,0.492368,1.77394,0
11120,-1.32811,0.493096,1.77404,0
11140,-1.32803,0.494263,1.77388,0
11160,-1.32854,0.495417,1.77361,0
11180,-1.32858,0.495563,1.77352,0
11200,-1.32963,0.496365,1.77332,0
11220,-1.3308,0.496634,1.77284,0
11240,-1.33157,0.496837,1.77249,0
11260,-1.33254,0.496985,1.77231,0
11280,-1.33363,0.497324,1.77216,0
11300,-1.3346,0.497956,1.77233,0
11320,-1.33569,0.498779,1.77252,0
11340,-1.33654,0.499705,1.773,0
11360,-1.33749,0.500508,1.77338,0
11380,-1.33808,0.50098,1.77362,0
11400,-1.33785,0.501443,1.77361,0
11420,-1.33771,0.502272,1.7736,0
11440,-1.3379,0.502802,1.77347,0
11460,-1.3387,0.503395,1.77342,0
11480,-1.3396,0.503863,1.77327,0
11500,-1.3403,0.504212,1.77342,0
11520,-1.34078,0.504372,1.77344,0
11540,-1.341,0.504561,1.77356,0
11560,-1.34115,0.50502,1.7737,0
11580,-1.34141,0.505355,1.77374,0
11600,-1.34207,0.506094,1.77365,0
11620,-1.34309,0.506877,1.77372,0
11640,-1.34378,0.50735,1.77407,0
11660,-1.34476,0.507624,1.77408,0
11680,-1.34539,0.508171,1.77406,0
11700,-1.34605,0.508911,1.77397,0
11720,-1.3464,0.509368,1.77431,0
11740,-1.34691,0.509723,1.77426,0
11760,-1.34721,0.510327,1.7744,0
11780,-1.34755,0.511245,1.77423,0
11800,-1.3481,0.512111,1.77424,0
11820,-1.34871,0.512588,1.77449,0
11830,-1.34993,0.513007,1.77461,0
11850,-1.35119,0.513497,1.77447,0
11870,-1.3518,0.513852,1.77452,0
11890,-1.35205,0.514237,1.77458,0
11910,-1.35193,0.514287,1.7745,0
11930,-1.35163,0.514903,1.77475,0
11950,-1.35172,0.51556,1.77472,0
11970,-1.35227,0.516062,1.77458,0
11990,-1.3531,0.516412,1.77413,0
12010,-1.35376,0.51679,1.77389,0
12030,-1.35433,0.517244,1.77373,0
12050,-1.35453,0.517776,1.7736,0
12070,-1.35484,0.518259,1.77355,0
12090,-1.35546,0.518491,1.7734,0
12110,-1.3565,0.519157,1.77328,0
12130,-1.3576,0.519677,1.77335,0
12150,-1.35891,0.520439,1.77332,0
12170,-1.35983,0.521204,1.77314,0
12190,-1.36076,0.522045,1.77313,0
12210,-1.36133,0.522915,1.77314,0
12230,-1.36143,0.523449,1.77291,0
12250,-1.36118,0.523964,1.77267,0
12270,-1.36118,0.523964,1.77267,0
12290,-1.36235,0.524215,1.77248,0
12310,-1.36296,0.524081,1.77218,0
12330,-1.36296,0.524081,1.77218,0
12350,-1.36296,0.524081,1.77218,0
12370,-1.36296,0.524081,1.77218,0
12390,-1.36338,0.524072,1.77189,0
12410,-1.36395,0.524451,1.77155,0
12430,-1.36395,0.524451,1.77155,0
12450,-1.36368,0.52448,1.77166,0
12470,-1.36331,0.524267,1.77172,0
12490,-1.36319,0.524316,1.77164,0
12510,-1.36318,0.524364,1.77166,0
12530,-1.36319,0.524316,1.77164,0
12550,-1.36331,0.524267,1.77172,0
12570,-1.36282,0.524103,1.7717,0
12590,-1.36282,0.524103,1.7717,0
12610,-1.36298,0.524199,1.77169,0
12630,-1.36282,0.524103,1.7717,0
12650,-1.3627,0.524152,1.77162,0
12670,-1.36286,0.524248,1.77161,0
12690,-1.36298,0.524199,1.77169,0
12710,-1.36244,0.52389,1.77176,0
12730,-1.36166,0.523436,1.77172,0
12750,-1.36139,0.523098,1.77168,0
12770,-1.36122,0.522759,1.77174,0
12790,-1.36143,0.522342,1.77177,0
12810,-1.36138,0.521705,1.77152,0
12830,-1.36057,0.521182,1.77175,0
12850,-1.35965,0.520585,1.7717,0
12870,-1.35925,0.520178,1.77183,0
12890,-1.35916,0.519521,1.77186,0
12910,-1.35938,0.518688,1.77197,0
12930,-1.35956,0.518202,1.77227,0
12950,-1.3591,0.517699,1.77251,0
12970,-1.35828,0.517101,1.77256,0
12990,-1.35723,0.516559,1.77288,0
13010,-1.35611,0.516212,1.77303,0
13030,-1.35558,0.515904,1.7731,0
13050,-1.35538,0.515372,1.77323,0
13070,-1.35538,0.515372,1.77323,0
13090,-1.35511,0.515035,1.77319,0
13110,-1.35519,0.514351,1.77302,0
13130,-1.35503,0.514255,1.77303,0
13150,-1.35492,0.514379,1.77313,0
13170,-1.35477,0.514283,1.77314,0
13190,-1.35453,0.513974,1.77326,0
13210,-1.35413,0.513735,1.77316,0
13230,-1.35414,0.51381,1.77334,0
13250,-1.35413,0.513735,1.77316,0
13270,-1.35413,0.513735,1.77316,0
13290,-1.35418,0.513588,1.77335,0
13310,-1.35418,0.513588,1.77335,0
13330,-1.35418,0.513588,1.77335,0
13350,-1.3542,0.51354,1.77333,0
13370,-1.35418,0.513588,1.77335,0
13390,-1.35418,0.513588,1.77335,0
13410,-1.35455,0.513558,1.77334,0
13430,-1.35488,0.513334,1.7734,0
13450,-1.35488,0.513334,1.7734,0
13470,-1.35488,0.513334,1.7734,0
13490,-1.35435,0.513026,1.77347,0
13510,-1.35435,0.513026,1.77347,0
13530,-1.35435,0.513026,1.77347,0
13550,-1.35437,0.512978,1.77345,0
13570,-1.35437,0.512978,1.77345,0
13590,-1.35422,0.512957,1.77364,0
13610,-1.35422,0.512957,1.77364,0
13630,-1.35422,0.512957,1.77364,0
13650,-1.35382,0.512718,1.77354,0
13670,-1.35382,0.512718,1.77354,0
13690,-1.35384,0.51267,1.77352,0
13710,-1.35384,0.51267,1.77352,0
13730,-1.35384,0.51267,1.77352,0
13750,-1.35395,0.51262,1.7736,0
13770,-1.35395,0.51262,1.7736,0
13790,-1.35384,0.51267,1.77352,0
13800,-1.35368,0.512574,1.77353,0
13820,-1.35381,0.512476,1.77359,0
13840,-1.35381,0.512476,1.77359,0
13860,-1.35371,0.512601,1.77369,0
13880,-1.35355,0.512505,1.7737,0
13900,-1.35339,0.512242,1.77393,0
13920,-1.35296,0.511858,1.77392,0
13940,-1.35296,0.511858,1.77392,0
13960,-1.35332,0.511294,1.77424,0
13980,-1.35392,0.511407,1.77434,0
14000,-1.35404,0.511114,1.77472,0
14020,-1.35404,0.511114,1.77472,0
14040,-1.35371,0.511536,1.77503,0
14060,-1.35355,0.51144,1.77504,0
14080,-1.35355,0.51144,1.77504,0
14100,-1.35343,0.51149,1.77496,0
14120,-1.35343,0.51149,1.77496,0
14140,-1.35343,0.51149,1.77496,0
14160,-1.35262,0.511625,1.77506,0
14180,-1.35192,0.511636,1.77506,0
14200,-1.35192,0.511636,1.77506,0
14220,-1.35192,0.511636,1.77506,0
14240,-1.35192,0.511636,1.77506,0
14260,-1.35178,0.511492,1.77505,0
14280,-1.35169,0.510836,1.77508,0
14300,-1.35152,0.510256,1.77519,0
14320,-1.35096,0.509755,1.77533,0
14340,-1.35288,0.509723,1.77514,0
14360,-1.35718,0.509875,1.7748,0
14380,-1.36306,0.509914,1.77478,0
14400,-1.37147,0.509863,1.77479,0
14420,-1.38275,0.510291,1.77576,0
14440,-1.39807,0.512044,1.7774,0
14460,-1.41217,0.5135,1.78031,0
14480,-1.42526,0.515544,1.78377,0
14500,-1.4328,0.518207,1.78779,0
14520,-1.43796,0.521212,1.7921,0
14540,-1.44276,0.524542,1.79499,0
14560,-1.44683,0.527,1.79696,0
14580,-1.44853,0.528956,1.79842,0
14600,-1.44941,0.531059,1.79908,0
14620,-1.44974,0.533498,1.79853,0
14640,-1.45057,0.534884,1.79767,0
14660,-1.45178,0.534727,1.79549,0
14680,-1.45129,0.534574,1.79265,0
14700,-1.44884,0.534943,1.79012,0
14720,-1.44666,0.536017,1.78792,0
14740,-1.44555,0.537319,1.7863,0
14760,-1.44684,0.538341,1.78527,0
14780,-1.44883,0.538794,1.78491,0
14800,-1.44908,0.5383,1.78519,0
14820,-1.44795,0.537867,1.78569,0
14840,-1.44749,0.537509,1.78514,0
14860,-1.44703,0.537188,1.78405,0
14880,-1.44617,0.537347,1.78287,0
14900,-1.44464,0.538578,1.78207,0
14920,-1.44261,0.539621,1.78194,0
14940,-1.44077,0.539334,1.78163,0
14960,-1.4395,0.537919,1.78081,0
14980,-1.43837,0.536772,1.77935,0
15000,-1.43621,0.536137,1.77804,0
15020,-1.43343,0.53536,1.77732,0
15040,-1.43108,0.534402,1.77665,0
15060,-1.4298,0.533976,1.77665,0
15080,-1.42969,0.534101,1.77674,0
15100,-1.43054,0.534765,1.77671,0
15120,-1.43147,0.535686,1.77634,0
15140,-1.43319,0.536624,1.77569,0
15160,-1.43431,0.537312,1.77557,0
15180,-1.43498,0.537855,1.7754,0
15200,-1.43557,0.538549,1.77547,0
15220,-1.43589,0.539273,1.77565,0
15240,-1.43659,0.539713,1.77543,0
15260,-1.43715,0.540031,1.77537,0
15280,-1.43715,0.540031,1.77537,0
15300,-1.43697,0.540475,1.77548,0
15320,-1.43653,0.540685,1.77529,0
15340,-1.43679,0.540787,1.77539,0
15360,-1.43791,0.541187,1.77472,0
15380,-1.43883,0.541812,1.77438,0
15400,-1.43879,0.542245,1.77414,0
15420,-1.43799,0.54236,1.77461,0
15440,-1.438,0.542308,1.77459,0
15460,-1.43784,0.542212,1.7746,0
15480,-1.43784,0.542291,1.77478,0
15500,-1.43784,0.542291,1.77478,0
15520,-1.4372,0.542343,1.77488,0
15540,-1.4366,0.542485,1.77487,0
15560,-1.43676,0.542633,1.77487,0
15580,-1.43688,0.542535,1.77494,0
15600,-1.43687,0.542587,1.77496,0
15620,-1.43687,0.542587,1.77496,0
15640,-1.43687,0.542587,1.77496,0
15660,-1.43635,0.54241,1.77493,0
15680,-1.43543,0.542011,1.77496,0
15700,-1.43425,0.541589,1.77507,0
15720,-1.43316,0.541094,1.7751,0
15740,-1.43255,0.540285,1.77528,0
15760,-1.43128,0.539528,1.77557,0
15780,-1.42962,0.538549,1.77591,0
15800,-1.42769,0.5376,1.77635,0
15820,-1.42562,0.536582,1.77696,0
15840,-1.42403,0.535468,1.7775,0
15860,-1.42233,0.534271,1.77775,0
15880,-1.42086,0.533111,1.77837,0
15900,-1.41927,0.53192,1.77873,0
15920,-1.41748,0.531055,1.77945,0
15940,-1.41573,0.529898,1.78002,0
15960,-1.41429,0.528984,1.78058,0
15980,-1.41256,0.527904,1.78132,0
16000,-1.41051,0.52699,1.78197,0
16020,-1.40817,0.52586,1.78277,0
16040,-1.40647,0.524678,1.78347,0
16060,-1.40476,0.52347,1.78401,0
16080,-1.40271,0.52248,1.78448,0
16100,-1.40072,0.52171,1.78503,0
16120,-1.39937,0.520888,1.78548,0
16140,-1.39837,0.520016,1.78577,0
16160,-1.39825,0.519664,1.78622,0
16180,-1.39842,0.518875,1.78667,0
16200,-1.39828,0.518729,1.78666,0
16220,-1.3977,0.518949,1.78683,0
16240,-1.39698,0.519445,1.78715,0
16260,-1.3971,0.520219,1.78686,0
16280,-1.39815,0.521107,1.78628,0
16300,-1.40006,0.522068,1.78555,0
16320,-1.40315,0.523471,1.78487,0
16340,-1.40608,0.524254,1.78455,0
16360,-1.40913,0.524915,1.78413,0
16380,-1.41183,0.526074,1.78335,0
16400,-1.41372,0.527675,1.78276,0
16420,-1.4154,0.529447,1.78218,0
16440,-1.41641,0.531027,1.78176,0
16460,-1.41798,0.532848,1.78109,0
16480,-1.42016,0.534423,1.7804,0
16500,-1.42221,0.535591,1.7793,0
16520,-1.42397,0.536673,1.77855,0
16540,-1.4255,0.538055,1.77801,0
16560,-1.42695,0.538893,1.77727,0
16580,-1.42864,0.539586,1.77667,0
16600,-1.42965,0.540059,1.77607,0
16630,-1.42907,0.540987,1.77611,0
16650,-1.4277,0.541769,1.77622,0
16670,-1.42706,0.542477,1.77617,0
16690,-1.42739,0.543018,1.77613,0
16710,-1.42811,0.543354,1.77588,0
16730,-1.42818,0.543742,1.77573,0
16750,-1.42818,0.543742,1.77573,0
16770,-1.42832,0.544221,1.77546,0
16790,-1.42815,0.544124,1.77547,0
16810,-1.42828,0.544027,1.77554,0
16830,-1.42816,0.544203,1.77565,0
16850,-1.42784,0.544797,1.77572,0
16870,-1.42805,0.545647,1.77599,0
16890,-1.42795,0.5462,1.77625,0
16910,-1.42832,0.546788,1.77663,0
16930,-1.42812,0.547318,1.77748,0
16950,-1.42745,0.547666,1.7787,0
16970,-1.42649,0.548145,1.78007,0
16990,-1.42668,0.548933,1.78158,0
17010,-1.42783,0.54948,1.78292,0
17030,-1.4295,0.55034,1.78449,0
17050,-1.43121,0.551268,1.78579,0
17070,-1.43233,0.552617,1.78679,0
17090,-1.43236,0.55412,1.78767,0
17110,-1.43139,0.555684,1.78811,0
17130,-1.42982,0.556971,1.78768,0
17150,-1.42757,0.558158,1.78689,0
17170,-1.42528,0.558512,1.78564,0
17190,-1.42353,0.558238,1.7845,0
17210,-1.42229,0.557556,1.78285,0
17230,-1.42137,0.556632,1.78112,0
17250,-1.42048,0.555407,1.77983,0
17270,-1.41909,0.553856,1.779,0
17280,-1.41779,0.553075,1.77818,0
17300,-1.41775,0.55288,1.77825,0
17320,-1.41827,0.551506,1.77832,0
17340,-1.41885,0.550934,1.77816,0
17360,-1.4186,0.55157,1.7781,0
17380,-1.41812,0.552298,1.77788,0
17400,-1.41777,0.553278,1.7777,0
17420,-1.41895,0.554821,1.77737,0
17440,-1.42131,0.556373,1.777,0
17460,-1.42417,0.557146,1.77683,0
17480,-1.42614,0.557768,1.77665,0
17500,-1.42767,0.558602,1.77629,0
17520,-1.42826,0.559071,1.77668,0
17540,-1.42849,0.559541,1.77722,0
17560,-1.42878,0.559661,1.77757,0
17580,-1.42912,0.559925,1.77783,0
17600,-1.42913,0.560006,1.77801,0
17620,-1.42778,0.560326,1.77822,0
17640,-1.42708,0.560596,1.77831,0
17660,-1.42686,0.560504,1.77792,0
17680,-1.42759,0.559999,1.77759,0
17700,-1.42885,0.55934,1.77755,0
17720,-1.42937,0.558808,1.7777,0
17740,-1.4288,0.557857,1.77808,0
17760,-1.42705,0.556912,1.77874,0
17780,-1.42538,0.556356,1.77926,0
17800,-1.42456,0.556092,1.77959,0
17820,-1.42439,0.555994,1.77961,0
17840,-1.42373,0.555879,1.77995,0
17860,-1.42223,0.55592,1.77995,0
17880,-1.42087,0.555943,1.78019,0
17900,-1.41945,0.555743,1.78035,0
17920,-1.41885,0.555308,1.78067,0
17940,-1.4182,0.553939,1.78103,0
17960,-1.41742,0.552879,1.78171,0
17980,-1.4157,0.551933,1.78237,0
18000,-1.41391,0.551178,1.78286,0
18020,-1.41291,0.550571,1.78326,0
18040,-1.41291,0.550571,1.78326,0
18060,-1.41231,0.550186,1.7836,0
18080,-1.41084,0.550104,1.78425,0
18100,-1.40865,0.549756,1.78449,0
18120,-1.40649,0.549308,1.78469,0
18140,-1.40478,0.548517,1.78486,0
18160,-1.40355,0.547578,1.78493,0
18180,-1.40287,0.546222,1.78488,0
18200,-1.40248,0.545291,1.78506,0
18220,-1.40106,0.54432,1.78561,0
18240,-1.39899,0.5434,1.78627,0
18260,-1.39647,0.54245,1.78682,0
18280,-1.39474,0.542021,1.78743,0
18300,-1.39426,0.541935,1.78784,0
18320,-1.39483,0.542047,1.78824,0
18340,-1.39523,0.542112,1.78868,0
18360,-1.39554,0.541995,1.78878,0
18380,-1.39521,0.541633,1.78904,0
18400,-1.39393,0.540859,1.78961,0
18420,-1.39322,0.540019,1.78952,0
18440,-1.39339,0.539436,1.78894,0
18460,-1.39372,0.539169,1.78813,0
18480,-1.39463,0.539747,1.78777,0
18500,-1.39588,0.540827,1.78762,0
18520,-1.39697,0.541705,1.78798,0
18540,-1.39805,0.542122,1.78861,0
18560,-1.39867,0.542597,1.78871,0
18580,-1.39941,0.543103,1.78907,0
18600,-1.40005,0.543245,1.78943,0
18620,-1.40063,0.54323,1.78963,0
18640,-1.40063,0.54323,1.78963,0
18660,-1.39992,0.543021,1.78869,0
18680,-1.39912,0.543596,1.78771,0
18700,-1.39829,0.543989,1.78705,0
18720,-1.39833,0.543631,1.78661,0
18740,-1.3987,0.543182,1.78643,0
18760,-1.39806,0.542385,1.78621,0
18780,-1.39671,0.541045,1.78586,0
18800,-1.39484,0.539365,1.78572,0
18820,-1.39271,0.537843,1.78589,0
18840,-1.38963,0.536494,1.78606,0
18860,-1.3861,0.535338,1.78592,0
18880,-1.38386,0.534655,1.78607,0
18900,-1.38297,0.533765,1.78575,0
18920,-1.38413,0.53358,1.78524,0
18940,-1.38473,0.532725,1.78535,0
18960,-1.38471,0.532481,1.7854,0
18980,-1.38316,0.532901,1.78546,0
19000,-1.38215,0.532685,1.78561,0
19020,-1.38179,0.531926,1.78555,0
19040,-1.38187,0.531313,1.78556,0
19060,-1.38109,0.530268,1.78583,0
19080,-1.37937,0.529397,1.78611,0
19100,-1.3773,0.528502,1.78638,0
19120,-1.37596,0.528633,1.78667,0
19140,-1.37597,0.528709,1.78684,0
19160,-1.37683,0.52812,1.78682,0
19180,-1.37754,0.527218,1.78701,0
19200,-1.37738,0.527121,1.78702,0
19220,-1.37565,0.527083,1.78738,0
19240,-1.37334,0.527068,1.78756,0
19260,-1.37235,0.527336,1.78736,0
19270,-1.37362,0.527928,1.78656,0
19290,-1.37553,0.528543,1.78583,0
19310,-1.37614,0.528701,1.78525,0
19330,-1.37534,0.528652,1.78512,0
19350,-1.37378,0.52821,1.78468,0
19370,-1.37364,0.527555,1.78362,0
19390,-1.37453,0.526113,1.78255,0
19410,-1.37549,0.523933,1.78129,0
19430,-1.37562,0.521569,1.78025,0
19450,-1.37498,0.517775,1.78072,0
19470,-1.3739,0.513825,1.78296,0
19490,-1.37258,0.510188,1.78735,0
19500,-1.37152,0.506105,1.79246,0
19520,-1.37111,0.502783,1.7964,0
19540,-1.37112,0.501012,1.79873,0
19560,-1.37133,0.501156,1.79983,0
19580,-1.37105,0.501094,1.79906,0
19600,-1.37172,0.501951,1.79722,0
19620,-1.3723,0.50419,1.79499,0
19640,-1.37305,0.507739,1.79269,0
19660,-1.37559,0.511491,1.79065,0
19680,-1.37903,0.514205,1.7891,0
19700,-1.38095,0.515928,1.78882,0
19720,-1.37967,0.516704,1.78961,0
19740,-1.37582,0.517813,1.79123,0
19760,-1.37176,0.519446,1.79233,0
19780,-1.36928,0.520642,1.79224,0
19800,-1.36781,0.520851,1.79151,0
19820,-1.3661,0.52144,1.78989,0
19840,-1.3631,0.52256,1.78888,0
19860,-1.36003,0.526102,1.78753,0
19880,-1.35834,0.529455,1.78672,0
19900,-1.36059,0.528906,1.78715,0
19920,-1.36699,0.526266,1.78798,0
19940,-1.37327,0.522218,1.78819,0
19960,-1.3729,0.519581,1.78807,0
19980,-1.36825,0.519836,1.78633,0
20000,-1.36166,0.521481,1.78386,0
20020,-1.35612,0.519998,1.78149,0
20040,-1.3538,0.518998,1.78127,0
20060,-1.35427,0.517411,1.78166,0
20080,-1.35678,0.515677,1.78177,0
20100,-1.35728,0.514777,1.78244,0
20120,-1.35576,0.513898,1.78322,0
20140,-1.3524,0.513454,1.78445,0
20160,-1.34954,0.514104,1.78638,0
20180,-1.34867,0.514952,1.78846,0
20200,-1.34987,0.515315,1.78981,0
20220,-1.35109,0.515508,1.79094,0
20240,-1.35217,0.515192,1.79191,0
20260,-1.35287,0.514951,1.79266,0
20280,-1.3533,0.51539,1.79294,0
20300,-1.35402,0.515828,1.79327,0
20320,-1.35514,0.515703,1.79348,0
20340,-1.35741,0.515356,1.79385,0
20360,-1.35989,0.514881,1.79353,0
20380,-1.36132,0.514991,1.79304,0
20400,-1.36182,0.515518,1.79252,0
20420,-1.36215,0.516188,1.7917,0
20440,-1.3624,0.5171,1.79073,0
20460,-1.36323,0.519456,1.7903,0
20470,-1.3695,0.523409,1.79137,0
20490,-1.37443,0.523551,1.79248,0
20510,-1.37894,0.52308,1.79309,0
20530,-1.38092,0.522686,1.79371,0
20550,-1.38037,0.523043,1.79435,0
20570,-1.37833,0.523839,1.79419,0
20590,-1.3771,0.524961,1.79318,0
20610,-1.377,0.526483,1.79134,0
20630,-1.37883,0.528885,1.78944,0
20650,-1.38109,0.531962,1.78806,0
20670,-1.38311,0.534286,1.78801,0
20690,-1.38537,0.535792,1.78834,0
20710,-1.38796,0.53676,1.78861,0
20730,-1.38993,0.537181,1.7886,0
20750,-1.39043,0.537385,1.78793,0
20770,-1.38862,0.537621,1.78691,0
20790,-1.38525,0.537359,1.78542,0
20810,-1.38337,0.537696,1.7831,0
20830,-1.38336,0.539324,1.78031,0
20850,-1.38583,0.541737,1.7779,0
20870,-1.38895,0.543695,1.77616,0
20890,-1.39019,0.544976,1.77553,0
20910,-1.39039,0.545268,1.77545,0
20930,-1.39063,0.545967,1.77593,0
20950,-1.3913,0.545869,1.77604,0
20970,-1.39093,0.544763,1.776,0
20990,-1.38911,0.543164,1.7756,0
21010,-1.38645,0.541985,1.77501,0
21030,-1.38466,0.54133,1.77375,0
21050,-1.38509,0.540933,1.77259,0
21070,-1.38617,0.540562,1.77176,0
21090,-1.38575,0.540734,1.77157,0
21110,-1.38378,0.540882,1.77197,0
21130,-1.38096,0.540424,1.77242,0
21150,-1.37872,0.539192,1.77361,0
21170,-1.37716,0.537187,1.77459,0
21190,-1.37672,0.535213,1.77504,0
21210,-1.37594,0.533511,1.77544,0
21230,-1.37404,0.532436,1.77599,0
21250,-1.371,0.532161,1.77691,0
21270,-1.36752,0.532449,1.77766,0
21290,-1.36565,0.532771,1.77839,0
21310,-1.36553,0.53282,1.77831,0
21330,-1.36695,0.533222,1.77823,0
21350,-1.36794,0.53343,1.77806,0
21370,-1.36735,0.532933,1.7789,0
21390,-1.36654,0.53154,1.78042,0
21410,-1.3662,0.528968,1.78181,0
21430,-1.3659,0.526339,1.78248,0
21450,-1.36466,0.524095,1.78201,0
21470,-1.36211,0.523376,1.7813,0
21490,-1.35931,0.524002,1.78001,0
21510,-1.3573,0.524587,1.77994,0
21530,-1.35741,0.524419,1.78052,0
21550,-1.35874,0.522635,1.78188,0
21570,-1.35992,0.519123,1.78338,0
21590,-1.35952,0.515289,1.7847,0
21610,-1.35644,0.512402,1.78564,0
21630,-1.35256,0.510541,1.78579,0
21650,-1.34983,0.510733,1.78471,0
21670,-1.34934,0.512606,1.78334,0
21690,-1.3509,0.513951,1.7833,0
21710,-1.35409,0.515529,1.78412,0
21730,-1.3582,0.516774,1.78584,0
21750,-1.36137,0.516551,1.78756,0
21770,-1.36295,0.516002,1.78909,0
21790,-1.3632,0.516277,1.78966,0
21810,-1.36241,0.516722,1.78988,0
21830,-1.3616,0.517606,1.78819,0
21850,-1.35944,0.521049,1.78521,0
21870,-1.35668,0.525665,1.78257,0
21890,-1.35558,0.52809,1.78168,0
21910,-1.35709,0.527588,1.78212,0
21930,-1.36065,0.525992,1.78241,0
21950,-1.36386,0.524836,1.78221,0
21970,-1.36456,0.524462,1.78206,0
21990,-1.36364,0.524265,1.78123,0
22010,-1.36333,0.525004,1.77944,0
22030,-1.36364,0.52845,1.77747,0
22050,-1.36533,0.533726,1.7759,0
22070,-1.3679,0.536958,1.77612,0
22090,-1.37185,0.536782,1.77839,0
22110,-1.375,0.534809,1.78049,0
22130,-1.37548,0.532188,1.78197,0
22150,-1.37302,0.530473,1.78246,0
22170,-1.36964,0.52929,1.78216,0
22190,-1.36689,0.527527,1.78053,0
22210,-1.36461,0.526687,1.77815,0
22230,-1.36171,0.528677,1.77557,0
22250,-1.35808,0.529914,1.77459,0
22270,-1.35563,0.527929,1.77581,0
22290,-1.35583,0.524099,1.77741,0
22310,-1.35519,0.519237,1.77919,0
22330,-1.35259,0.515086,1.78066,0
22350,-1.34858,0.51195,1.78129,0
22370,-1.34802,0.511541,1.77983,0
22390,-1.34692,0.512745,1.77854,0
22410,-1.34655,0.516501,1.77711,0
22430,-1.34612,0.519823,1.77743,0
22450,-1.34736,0.518834,1.77985,0
22470,-1.35058,0.515679,1.78223,0
22490,-1.35244,0.51177,1.78386,0
22510,-1.35158,0.509522,1.78477,0
22530,-1.34915,0.508331,1.78452,0
22550,-1.34686,0.507136,1.78228,0
22570,-1.3457,0.508046,1.77884,0
22590,-1.34358,0.51263,1.77567,0
22610,-1.34196,0.517169,1.77437,0
22630,-1.34269,0.517616,1.77579,0
22650,-1.3466,0.514431,1.77814,0
22670,-1.34929,0.50926,1.7803,0
22680,-1.34918,0.504795,1.78165,0
22700,-1.34535,0.501812,1.78228,0
22720,-1.34394,0.502656,1.7796,0
22740,-1.34251,0.505475,1.7761,0
22760,-1.34199,0.508871,1.77182,0
22780,-1.34211,0.514841,1.76977,0
22800,-1.34236,0.516512,1.77134,0
22820,-1.34569,0.514029,1.77447,0
22840,-1.34926,0.509765,1.77818,0
22860,-1.34948,0.505397,1.78111,0
22880,-1.34637,0.502115,1.78271,0
22900,-1.34356,0.501958,1.7807,0
22920,-1.34279,0.502919,1.7763,0
22940,-1.34104,0.504468,1.77284,0
22960,-1.34005,0.508976,1.76851,0
22980,-1.33953,0.51379,1.76732,0
23000,-1.34143,0.513174,1.76988,0
23020,-1.34687,0.509822,1.77405,0
23040,-1.35105,0.505969,1.77785,0
23060,-1.35125,0.503041,1.78097,0
23080,-1.34708,0.500845,1.78275,0
23100,-1.34296,0.500269,1.7805,0
23120,-1.34171,0.502405,1.77624,0
23140,-1.34121,0.504611,1.77172,0
23160,-1.34109,0.50981,1.76724,0
23180,-1.34224,0.514926,1.76607,0
23200,-1.34481,0.514955,1.76918,0
23220,-1.35091,0.512888,1.77295,0
23240,-1.35571,0.509759,1.77626,0
23250,-1.35674,0.507498,1.77838,0
23270,-1.35387,0.505642,1.77884,0
23290,-1.35034,0.505705,1.77567,0
23310,-1.34631,0.507523,1.77125,0
23330,-1.34183,0.50975,1.76653,0
23350,-1.33716,0.514297,1.76302,0
23370,-1.33553,0.516659,1.76246,0
23390,-1.33777,0.514431,1.76528,0
23410,-1.34282,0.510104,1.76873,0
23430,-1.34635,0.505262,1.77167,0
23450,-1.34618,0.501912,1.77308,0
23470,-1.34362,0.499437,1.7729,0
23490,-1.34183,0.500063,1.77014,0
23510,-1.34015,0.500142,1.76673,0
23530,-1.33674,0.503259,1.7636,0
23550,-1.33465,0.508487,1.76169,0
23570,-1.33453,0.509639,1.76358,0
23590,-1.33792,0.507668,1.76798,0
23610,-1.34157,0.504042,1.77272,0
23630,-1.34319,0.500364,1.77592,0
23650,-1.34168,0.498642,1.77757,0
23670,-1.33796,0.497231,1.77731,0
23690,-1.33503,0.496701,1.77383,0
23710,-1.33456,0.499607,1.76892,0
23730,-1.33496,0.505492,1.76386,0
23750,-1.33557,0.511604,1.76099,0
23770,-1.33654,0.513687,1.76218,0
23790,-1.33892,0.512205,1.7658,0
23810,-1.34203,0.509,1.76996,0
23830,-1.34318,0.505298,1.77304,0
23850,-1.34221,0.502618,1.77421,0
23870,-1.33973,0.500364,1.77299,0
23890,-1.33676,0.499453,1.76966,0
23910,-1.33304,0.502146,1.76593,0
23930,-1.32945,0.506083,1.7638,0
23950,-1.32758,0.507173,1.76444,0
23970,-1.33025,0.50542,1.76661,0
23990,-1.33377,0.500907,1.76964,0
24010,-1.33557,0.496096,1.77173,0
24030,-1.3342,0.493238,1.77258,0
24050,-1.33088,0.491702,1.77144,0
24070,-1.32884,0.491709,1.76855,0
24090,-1.32731,0.494746,1.76522,0
24110,-1.32634,0.500464,1.7624,0
24130,-1.32592,0.504262,1.76237,0
24150,-1.32737,0.503981,1.76578,0
24170,-1.3305,0.500015,1.76985,0
24190,-1.33137,0.494481,1.7735,0
24210,-1.32822,0.490365,1.77587,0
24230,-1.32277,0.487676,1.77645,0
24250,-1.3204,0.488046,1.77302,0
24270,-1.32024,0.490344,1.76872,0
24290,-1.32091,0.492384,1.76414,0
24310,-1.32074,0.496586,1.76106,0
24330,-1.31976,0.499035,1.76137,0
24350,-1.31943,0.497324,1.76541,0
24370,-1.32124,0.493539,1.77022,0
24390,-1.32139,0.48796,1.77397,0
24410,-1.31823,0.483147,1.77634,0
24430,-1.31323,0.480168,1.77582,0
24450,-1.31077,0.4813,1.77192,0
24470,-1.30984,0.48341,1.76718,0
24490,-1.31027,0.487412,1.7616,0
24510,-1.31064,0.493476,1.75873,0
24530,-1.31067,0.496023,1.7603,0
24550,-1.31405,0.494473,1.76512,0
24570,-1.31862,0.491015,1.77045,0
24590,-1.32082,0.486588,1.77458,0
24610,-1.31943,0.483505,1.77645,0
24630,-1.31664,0.483436,1.77434,0
24650,-1.31631,0.483992,1.77047,0
24670,-1.31698,0.485453,1.76619,0
24680,-1.31723,0.490954,1.76267,0
24700,-1.32061,0.496808,1.76378,0
24720,-1.33395,0.497687,1.77123,0
24740,-1.36149,0.495942,1.78138,0
24760,-1.39604,0.494979,1.79665,0
24780,-1.43618,0.494653,1.81231,0
24810,-1.51679,0.496797,1.83433,0
24830,-1.54372,0.498804,1.84211,0
24850,-1.56268,0.499164,1.84956,0
24870,-1.57232,0.49872,1.85449,0
24890,-1.57361,0.498009,1.85764,0
24910,-1.57184,0.496928,1.85935,0
24930,-1.56735,0.495263,1.86127,0
24950,-1.56256,0.496761,1.86421,0
24970,-1.56418,0.497278,1.86681,0
24990,-1.56779,0.495971,1.86873,0
25010,-1.56136,0.495038,1.8675,0
25030,-1.54123,0.494239,1.86184,0
25050,-1.51085,0.495102,1.85032,0
25070,-1.4733,0.494728,1.83658,0
25090,-1.43171,0.489901,1.82476,0
25110,-1.38741,0.480778,1.81626,0
25130,-1.34391,0.467812,1.80718,0
25150,-1.30571,0.453571,1.79527,0
25170,-1.27494,0.442544,1.78157,0
25190,-1.24854,0.433697,1.76638,0
25210,-1.22731,0.424801,1.74855,0
25230,-1.2089,0.417175,1.72933,0
25250,-1.19177,0.410059,1.71078,0
25270,-1.17618,0.404002,1.69775,0
25290,-1.16521,0.398871,1.69329,0
25310,-1.16092,0.393271,1.69574,0
25330,-1.16392,0.388439,1.70016,0
25350,-1.17348,0.387654,1.70361,0
25370,-1.18313,0.390123,1.70641,0
25390,-1.192,0.392263,1.70776,0
25410,-1.19802,0.394727,1.70738,0
25430,-1.1975,0.397528,1.70599,0
25450,-1.18983,0.400174,1.70374,0
25470,-1.18102,0.402693,1.70317,0
25490,-1.17577,0.401164,1.70509,0
25510,-1.17592,0.397326,1.70853,0
25530,-1.17931,0.394471,1.71251,0
25550,-1.1827,0.394523,1.7156,0
25570,-1.18518,0.396282,1.71673,0
25590,-1.18757,0.398753,1.71625,0
25610,-1.18797,0.399969,1.71423,0
25630,-1.18805,0.403052,1.71022,0
25650,-1.18598,0.407897,1.70769,0
25670,-1.18252,0.409086,1.7083,0
25690,-1.18058,0.406271,1.71136,0
25710,-1.1791,0.401001,1.71501,0
25730,-1.17827,0.396256,1.71772,0
25750,-1.17896,0.395498,1.71778,0
25770,-1.18036,0.397867,1.7153,0
25790,-1.182,0.399069,1.71145,0
25810,-1.18389,0.400939,1.70713,0
25830,-1.18377,0.405661,1.70325,0
25850,-1.18311,0.410912,1.7023,0
25870,-1.18239,0.411742,1.70553,0
25890,-1.18411,0.409073,1.71103,0
25910,-1.18664,0.404756,1.71633,0
25930,-1.18934,0.402071,1.71952,0
25950,-1.1908,0.403488,1.71977,0
25970,-1.19103,0.405649,1.71752,0
25990,-1.19182,0.407544,1.71368,0
26010,-1.19207,0.411248,1.70893,0
26030,-1.19063,0.416569,1.70572,0
26050,-1.18904,0.418804,1.70652,0
26070,-1.18976,0.417569,1.71067,0
26090,-1.19146,0.41389,1.71592,0
26110,-1.19242,0.409728,1.72074,0
26130,-1.19314,0.407356,1.72276,0
26150,-1.1927,0.407956,1.72123,0
26170,-1.19173,0.409031,1.71732,0
26190,-1.19128,0.411286,1.7127,0
26210,-1.1906,0.417576,1.70744,0
26230,-1.19027,0.422615,1.70617,0
26250,-1.19181,0.421838,1.70989,0
26270,-1.19645,0.418004,1.71556,0
26290,-1.20048,0.413672,1.72129,0
26310,-1.20215,0.410874,1.72634,0
26330,-1.20138,0.409972,1.72799,0
26350,-1.19922,0.410649,1.72611,0
26370,-1.19748,0.410947,1.72221,0
26390,-1.19685,0.412643,1.71672,0
26410,-1.19583,0.41835,1.71084,0
26430,-1.19526,0.425189,1.70793,0
26450,-1.19479,0.426718,1.70992,0
26470,-1.19716,0.423842,1.71521,0
26490,-1.20058,0.420011,1.721,0
26510,-1.20243,0.41705,1.72639,0
26530,-1.20208,0.415451,1.72945,0
26550,-1.20039,0.416087,1.72855,0
26570,-1.19814,0.41659,1.72585,0
26590,-1.19654,0.418704,1.72251,0
26610,-1.19607,0.421683,1.72066,0
26630,-1.19813,0.423115,1.72133,0
26650,-1.20291,0.42338,1.72342,0
26670,-1.20726,0.422475,1.7264,0
26690,-1.20956,0.421633,1.72934,0
26710,-1.21032,0.420921,1.73111,0
26730,-1.21061,0.421722,1.73092,0
26750,-1.21048,0.426083,1.72881,0
26770,-1.20908,0.431341,1.72644,0
26790,-1.20721,0.433021,1.72674,0
26810,-1.20751,0.430473,1.72912,0
26830,-1.20815,0.426206,1.73247,0
26850,-1.20813,0.422166,1.7357,0
26870,-1.20846,0.419965,1.73743,0
26890,-1.21042,0.420986,1.73718,0
26910,-1.21144,0.423641,1.73535,0
26930,-1.21368,0.42566,1.73168,0
26950,-1.21649,0.429609,1.72702,0
26970,-1.2173,0.436904,1.72367,0
26990,-1.21678,0.440791,1.72406,0
27010,-1.21788,0.439777,1.72741,0
27030,-1.22211,0.437223,1.7316,0
27050,-1.22613,0.434934,1.73551,0
27070,-1.22855,0.434227,1.73795,0
27090,-1.23085,0.435952,1.73733,0
27110,-1.23157,0.439588,1.7347,0
27130,-1.23145,0.442561,1.73014,0
27150,-1.23176,0.4488,1.72494,0
27170,-1.23166,0.455603,1.72285,0
27190,-1.23125,0.457018,1.72505,0
27210,-1.23492,0.454626,1.72994,0
27230,-1.24073,0.45113,1.73499,0
27250,-1.24409,0.448114,1.739,0
27270,-1.24567,0.447342,1.74058,0
27290,-1.24685,0.449713,1.73869,0
27310,-1.24534,0.45197,1.73506,0
27330,-1.24328,0.454315,1.72995,0
27350,-1.24112,0.45935,1.72489,0
27370,-1.23926,0.464727,1.72264,0
27390,-1.23931,0.465389,1.725,0
27410,-1.24365,0.462817,1.72967,0
27430,-1.24885,0.459365,1.73432,0
27450,-1.25163,0.456483,1.73783,0
27470,-1.25181,0.454827,1.7392,0
27490,-1.25092,0.453881,1.73772,0
27510,-1.24867,0.454698,1.73416,0
27530,-1.24572,0.458765,1.72925,0
27550,-1.24284,0.464142,1.72566,0
27570,-1.24097,0.466963,1.72673,0
27590,-1.24222,0.465453,1.73098,0
27610,-1.24618,0.461613,1.73609,0
27630,-1.24938,0.457541,1.74053,0
27650,-1.24949,0.454872,1.74324,0
27670,-1.24757,0.453241,1.74305,0
27690,-1.24527,0.453242,1.73973,0
27710,-1.24324,0.455368,1.73482,0
27730,-1.24005,0.459935,1.72913,0
27750,-1.23737,0.465164,1.72637,0
27770,-1.23563,0.46698,1.72825,0
27790,-1.23748,0.465013,1.73302,0
27810,-1.24184,0.461349,1.73775,0
27830,-1.2452,0.457755,1.74166,0
27850,-1.24608,0.455045,1.74295,0
27870,-1.24537,0.453358,1.74121,0
27890,-1.2427,0.454508,1.73732,0
27910,-1.23833,0.458053,1.73237,0
27930,-1.23575,0.463202,1.72885,0
27950,-1.23506,0.465325,1.72952,0
27970,-1.23794,0.4629,1.73327,0
27990,-1.24303,0.458338,1.73786,0
28010,-1.24634,0.453835,1.74207,0
28030,-1.24491,0.450672,1.74468,0
28050,-1.24136,0.448653,1.74367,0
28070,-1.23895,0.449319,1.73934,0
28090,-1.23714,0.450253,1.73423,0
28110,-1.23508,0.454078,1.72804,0
28120,-1.23418,0.460161,1.72437,0
28140,-1.23414,0.462949,1.72545,0
28160,-1.23705,0.461482,1.73011,0
28180,-1.24187,0.458115,1.73559,0
28200,-1.24545,0.454676,1.73999,0
28220,-1.24526,0.452195,1.74264,0
28240,-1.24245,0.449999,1.74194,0
28260,-1.23845,0.448955,1.73805,0
28280,-1.23451,0.451276,1.73239,0
28300,-1.23146,0.45589,1.727,0
28320,-1.22953,0.459335,1.72544,0
28340,-1.23066,0.459526,1.72768,0
28360,-1.23537,0.457448,1.73135,0
28380,-1.23969,0.454031,1.73529,0
28400,-1.24179,0.450813,1.73813,0
28420,-1.24115,0.448269,1.73894,0
28440,-1.23873,0.446385,1.73646,0
28460,-1.23574,0.44781,1.73218,0
28480,-1.23093,0.450591,1.72683,0
28500,-1.227,0.455155,1.72325,0
28520,-1.22569,0.457107,1.72357,0
28540,-1.22808,0.455616,1.7267,0
28560,-1.23347,0.453012,1.73037,0
28580,-1.2378,0.450701,1.73426,0
28600,-1.23923,0.448688,1.7367,0
28620,-1.23904,0.446259,1.73669,0
28640,-1.23741,0.446582,1.73389,0
28660,-1.23388,0.448591,1.72981,0
28680,-1.22981,0.452559,1.72549,0
28700,-1.22485,0.455773,1.72454,0
28720,-1.22245,0.454245,1.72659,0
28740,-1.22585,0.450292,1.73015,0
28760,-1.23019,0.44628,1.73354,0
28780,-1.23197,0.443485,1.73588,0
28800,-1.23304,0.441608,1.73614,0
28820,-1.23385,0.441366,1.73371,0
28840,-1.233,0.441882,1.73027,0
28860,-1.23249,0.443642,1.72594,0
28880,-1.22983,0.448475,1.72337,0
28900,-1.22663,0.451187,1.72396,0
28920,-1.22558,0.449211,1.72794,0
28940,-1.22823,0.445178,1.73215,0
28960,-1.23048,0.441307,1.73613,0
28980,-1.23016,0.438442,1.73783,0
29000,-1.22835,0.437226,1.73687,0
29020,-1.22552,0.436145,1.73359,0
29040,-1.22346,0.436972,1.72869,0
29060,-1.22067,0.441124,1.72326,0
29080,-1.21847,0.445768,1.72059,0
29100,-1.21631,0.44682,1.72257,0
29120,-1.217,0.444596,1.72688,0
29140,-1.21909,0.44056,1.7316,0
29160,-1.22009,0.436974,1.73512,0
29180,-1.22047,0.435065,1.73588,0
29200,-1.22266,0.437706,1.73317,0
29220,-1.22309,0.440032,1.72907,0
29240,-1.22198,0.44289,1.72412,0
29260,-1.22015,0.449189,1.72082,0
29280,-1.21741,0.453261,1.72158,0
29300,-1.21696,0.45239,1.72586,0
29320,-1.22029,0.449255,1.73107,0
29340,-1.22371,0.44578,1.73573,0
29360,-1.22435,0.443003,1.73855,0
29380,-1.22347,0.442464,1.73762,0
29400,-1.22222,0.443825,1.73393,0
29420,-1.22132,0.446896,1.72845,0
29440,-1.2212,0.453106,1.72178,0
29460,-1.22184,0.459082,1.71799,0
29480,-1.22422,0.461556,1.7195,0
29500,-1.22861,0.461169,1.72409,0
29520,-1.23321,0.458886,1.72927,0
29540,-1.23541,0.456185,1.73395,0
29560,-1.23473,0.45391,1.73635,0
29580,-1.23279,0.451802,1.73454,0
29600,-1.23102,0.452453,1.72969,0
29620,-1.22881,0.45585,1.72332,0
29640,-1.22729,0.461547,1.71768,0
29660,-1.22678,0.465049,1.71689,0
29680,-1.23015,0.465054,1.71995,0
29700,-1.23574,0.462688,1.72522,0
29720,-1.24031,0.459678,1.73026,0
29740,-1.24206,0.457403,1.73348,0
29760,-1.24075,0.455464,1.73359,0
29780,-1.23851,0.455695,1.73024,0
29800,-1.23533,0.457899,1.72493,0
29820,-1.23229,0.46308,1.71993,0
29840,-1.2312,0.468041,1.71844,0
29860,-1.23351,0.468964,1.72115,0
29880,-1.2392,0.466927,1.72584,0
29900,-1.24406,0.463736,1.73095,0
29920,-1.24526,0.460865,1.73522,0
29940,-1.24348,0.459067,1.73692,0
29960,-1.23976,0.457047,1.73574,0
29980,-1.23513,0.457165,1.7317,0
30000,-1.23173,0.461379,1.7263,0
30020,-1.23006,0.466299,1.72356,0
30040,-1.23051,0.468818,1.72486,0
30060,-1.23377,0.468208,1.72824,0
30080,-1.23875,0.4664,1.73229,0
30100,-1.24207,0.464563,1.73557,0
30120,-1.24275,0.463816,1.73725,0
30130,-1.24122,0.462072,1.73658,0
30150,-1.23875,0.461362,1.73332,0
30170,-1.23658,0.464454,1.72813,0
30190,-1.23543,0.469613,1.72366,0
30210,-1.23578,0.473084,1.72236,0
30230,-1.23799,0.474299,1.72421,0
30250,-1.24064,0.474255,1.72771,0
30270,-1.24417,0.474198,1.73071,0
30290,-1.24669,0.474085,1.73267,0
30310,-1.24885,0.473841,1.73234,0
30330,-1.25093,0.47368,1.73009,0
30350,-1.25256,0.475335,1.72708,0
30370,-1.25362,0.478045,1.7258,0
30390,-1.25272,0.479306,1.72711,0
30410,-1.25201,0.479257,1.73083,0
30430,-1.2539,0.478688,1.73592,0
30450,-1.25816,0.477812,1.7407,0
30470,-1.26694,0.47666,1.74491,0
30490,-1.2773,0.475866,1.74844,0
30510,-1.28474,0.474589,1.75164,0
30530,-1.28828,0.47431,1.7547,0
30550,-1.29061,0.474653,1.75755,0
30570,-1.29408,0.475124,1.76084,0
30590,-1.29897,0.475785,1.76379,0
30610,-1.3114,0.476675,1.76719,0
30630,-1.31695,0.476307,1.76884,0
30650,-1.32048,0.475289,1.77048,0
30670,-1.32259,0.474706,1.77188,0
30690,-1.32442,0.474816,1.77302,0
30710,-1.32448,0.475817,1.77381,0
30730,-1.32263,0.477202,1.77453,0
30750,-1.31956,0.479085,1.77471,0
30770,-1.31671,0.481538,1.77382,0
30790,-1.3148,0.483937,1.772,0
30810,-1.31379,0.485609,1.7694,0
30830,-1.31245,0.485205,1.76621,0
30850,-1.31101,0.484383,1.76305,0
30870,-1.30818,0.483173,1.76027,0
30890,-1.30491,0.481572,1.75777,0
30910,-1.3014,0.479898,1.75519,0
30930,-1.29826,0.478273,1.75279,0
30950,-1.29541,0.476823,1.75023,0
30970,-1.29223,0.475309,1.74749,0
30990,-1.28919,0.473452,1.74511,0
31010,-1.28625,0.471598,1.74282,0
31030,-1.28316,0.47013,1.74089,0
31050,-1.27992,0.468381,1.73985,0
31070,-1.27631,0.465919,1.73905,0
31090,-1.27301,0.463415,1.73829,0
31110,-1.27001,0.461745,1.73719,0
31130,-1.26742,0.460686,1.73605,0
31150,-1.26523,0.459847,1.73538,0
31170,-1.26295,0.459177,1.73521,0
31190,-1.26119,0.458123,1.73588,0
31210,-1.26023,0.456853,1.7368,0
31230,-1.25876,0.455414,1.7376,0
31250,-1.25515,0.453262,1.73787,0
31270,-1.24986,0.45045,1.73765,0
31290,-1.24401,0.447205,1.73668,0
31310,-1.23819,0.444192,1.73485,0
31330,-1.23369,0.441679,1.73284,0
31350,-1.22979,0.4389,1.73115,0
31370,-1.22604,0.435873,1.72998,0
31390,-1.22378,0.432777,1.72947,0
31410,-1.22292,0.429892,1.72928,0
31430,-1.22223,0.427306,1.72983,0
31450,-1.22078,0.425363,1.7304,0
31470,-1.21864,0.424277,1.7311,0
31490,-1.21711,0.423482,1.73191,0
31510,-1.21617,0.423167,1.73282,0
31530,-1.21584,0.423349,1.73341,0
31550,-1.21581,0.423972,1.7341,0
31570,-1.21523,0.424565,1.73473,0
31590,-1.21523,0.424565,1.73473,0
31610,-1.21585,0.424132,1.73483,0
31630,-1.21672,0.423451,1.73445,0
31650,-1.21679,0.423043,1.73385,0
31670,-1.21534,0.4227,1.73325,0
31690,-1.21354,0.423047,1.73292,0
31710,-1.21199,0.423264,1.73311,0
31730,-1.2115,0.422843,1.73408,0
31750,-1.2117,0.420917,1.73611,0
31770,-1.21229,0.417487,1.73842,0
31790,-1.21248,0.41403,1.74012,0
31810,-1.21146,0.411741,1.74026,0
31830,-1.20897,0.40985,1.73943,0
31850,-1.20665,0.407734,1.73804,0
31870,-1.20527,0.405841,1.73637,0
31890,-1.20429,0.404295,1.73507,0
31910,-1.20253,0.40371,1.73436,0
31930,-1.20088,0.403983,1.73366,0
31950,-1.1996,0.403832,1.7336,0
31970,-1.19938,0.402211,1.73435,0
31990,-1.19995,0.3997,1.73548,0
32010,-1.20036,0.397709,1.73571,0
32030,-1.19981,0.396492,1.73516,0
32050,-1.19779,0.396088,1.73395,0
32070,-1.19544,0.397449,1.73229,0
32090,-1.19446,0.400982,1.73003,0
32100,-1.19708,0.39969,1.73068,0
32120,-1.20149,0.396151,1.7338,0
32140,-1.20548,0.392108,1.73774,0
32160,-1.20701,0.390311,1.74094,0
32180,-1.20608,0.390926,1.74221,0
32200,-1.20557,0.392688,1.74113,0
32220,-1.20607,0.394998,1.73774,0
32240,-1.20641,0.399728,1.73289,0
32260,-1.20635,0.406762,1.72903,0
32280,-1.20572,0.41108,1.72853,0
32300,-1.20748,0.410504,1.73074,0
32320,-1.21233,0.408537,1.73409,0
32340,-1.21671,0.407314,1.73753,0
32360,-1.21996,0.408179,1.7403,0
32380,-1.22291,0.409981,1.7412,0
32400,-1.2247,0.413349,1.73931,0
32420,-1.22508,0.416047,1.73441,0
32440,-1.22366,0.420403,1.72867,0
32460,-1.22233,0.426386,1.72493,0
32480,-1.2226,0.428035,1.72456,0
32500,-1.22645,0.426731,1.72642,0
32520,-1.23146,0.4259,1.72911,0
32540,-1.23544,0.426762,1.73197,0
32560,-1.23841,0.429173,1.73375,0
32580,-1.2409,0.433334,1.73392,0
32600,-1.24201,0.437574,1.73204,0
32620,-1.24268,0.441281,1.72786,0
32640,-1.24372,0.447029,1.7248,0
32660,-1.24428,0.45003,1.72459,0
32680,-1.24742,0.449384,1.72729,0
32700,-1.25096,0.44772,1.73116,0
32720,-1.25299,0.446098,1.73459,0
32740,-1.25395,0.445604,1.73652,0
32760,-1.25506,0.446005,1.7356,0
32780,-1.2563,0.448878,1.73229,0
32800,-1.25574,0.452016,1.72743,0
32820,-1.25457,0.457005,1.72163,0
32840,-1.25327,0.46249,1.71837,0
32860,-1.25363,0.463175,1.71835,0
32880,-1.25825,0.460755,1.72051,0
32900,-1.26289,0.458043,1.72296,0
32920,-1.26519,0.456171,1.72487,0
32940,-1.26592,0.456657,1.72463,0
32960,-1.26431,0.459777,1.72299,0
32980,-1.26222,0.462743,1.71883,0
33000,-1.26206,0.465593,1.71349,0
33020,-1.26065,0.470207,1.70925,0
33040,-1.26015,0.47397,1.70878,0
33060,-1.26057,0.471835,1.7118,0
33080,-1.26425,0.466725,1.71544,0
33100,-1.26679,0.462113,1.71912,0
33120,-1.26773,0.460542,1.72086,0
33140,-1.26813,0.463727,1.72109,0
33160,-1.26756,0.466532,1.71903,0
33180,-1.2693,0.468741,1.71479,0
33200,-1.26999,0.470997,1.70991,0
33220,-1.2692,0.475613,1.70689,0
33240,-1.26732,0.478231,1.70819,0
33260,-1.26816,0.477344,1.71261,0
33280,-1.27086,0.473993,1.71816,0
33300,-1.27318,0.469918,1.72284,0
33320,-1.27361,0.467027,1.72491,0
33340,-1.27418,0.468235,1.72373,0
33360,-1.27323,0.471436,1.72107,0
33380,-1.27178,0.475706,1.71666,0
33400,-1.27191,0.483305,1.7133,0
33420,-1.27171,0.489005,1.71434,0
33440,-1.27578,0.490515,1.71847,0
33460,-1.28323,0.4892,1.7239,0
33480,-1.28827,0.485571,1.72913,0
33500,-1.28913,0.48205,1.7324,0
33520,-1.28601,0.482352,1.73283,0
33530,-1.28201,0.483697,1.73072,0
33550,-1.27847,0.48481,1.7269,0
33570,-1.2778,0.486758,1.72097,0
33590,-1.27636,0.491125,1.71584,0
33610,-1.27551,0.494256,1.71498,0
33630,-1.27702,0.492968,1.71806,0
33650,-1.28018,0.489052,1.72215,0
33670,-1.28143,0.483622,1.72601,0
33690,-1.27978,0.478662,1.72764,0
33710,-1.27658,0.475349,1.72609,0
33730,-1.27441,0.475341,1.7222,0
33750,-1.27181,0.475576,1.71765,0
33770,-1.26964,0.477311,1.71409,0
33790,-1.2638,0.481071,1.71684,0
33810,-1.2501,0.483675,1.72848,0
33830,-1.24002,0.481421,1.74291,0
33850,-1.24268,0.476961,1.7543,0
33870,-1.25679,0.472869,1.76103,0
33890,-1.26942,0.471067,1.76779,0
33910,-1.27358,0.468384,1.77149,0
33930,-1.2742,0.465759,1.76918,0
33950,-1.27235,0.465988,1.76323,0
33970,-1.27209,0.467861,1.75469,0
33990,-1.2749,0.470991,1.74347,0
34010,-1.27906,0.47587,1.73197,0
34030,-1.28177,0.479893,1.72326,0
34050,-1.28154,0.482198,1.71808,0
34070,-1.28041,0.484219,1.71715,0
34090,-1.28074,0.486223,1.71995,0
34110,-1.28358,0.486271,1.724,0
34130,-1.28916,0.483279,1.72662,0
34150,-1.29529,0.479382,1.72739,0
34170,-1.29736,0.476062,1.72709,0
34190,-1.29472,0.474744,1.726,0
34210,-1.29005,0.47601,1.72449,0
34230,-1.2868,0.477971,1.72232,0
34250,-1.28628,0.478543,1.72064,0
34270,-1.28742,0.478317,1.71946,0
34290,-1.28809,0.478117,1.71804,0
34310,-1.28678,0.477202,1.71725,0
34330,-1.28308,0.476052,1.71772,0
34350,-1.27941,0.475635,1.71862,0
34370,-1.2772,0.475301,1.71988,0
34390,-1.27651,0.475343,1.72175,0
34410,-1.2762,0.475724,1.72348,0
34430,-1.27538,0.476986,1.72447,0
34450,-1.27562,0.479788,1.72422,0
34470,-1.27643,0.482023,1.72297,0
34490,-1.27726,0.484142,1.72153,0
34510,-1.27846,0.487146,1.72006,0
34530,-1.27962,0.490011,1.71749,0
34550,-1.28076,0.491598,1.7144,0
34570,-1.2814,0.492125,1.71093,0
34590,-1.28062,0.491796,1.70744,0
34610,-1.27906,0.491033,1.70422,0
34630,-1.27614,0.489846,1.70159,0
34650,-1.27248,0.48838,1.6996,0
34670,-1.26802,0.48681,1.69786,0
34690,-1.26383,0.485396,1.69675,0
34710,-1.26083,0.483595,1.69654,0
34730,-1.25963,0.482675,1.69704,0
34750,-1.2605,0.483934,1.69749,0
34770,-1.26281,0.484471,1.69625,0
34790,-1.2648,0.484247,1.69457,0
34810,-1.26486,0.483516,1.69385,0
34830,-1.26305,0.482132,1.69479,0
34850,-1.25907,0.480143,1.6974,0
34870,-1.25655,0.479138,1.69996,0
34890,-1.2572,0.480367,1.70125,0
34910,-1.25927,0.482856,1.70133,0
34930,-1.2597,0.483342,1.70109,0
34950,-1.26067,0.484399,1.69971,0
34970,-1.25982,0.484109,1.69928,0
34990,-1.25762,0.482559,1.69977,0
35010,-1.25524,0.47995,1.70032,0
35030,-1.25313,0.476981,1.69981,0
35050,-1.25154,0.475184,1.69789,0
35070,-1.24971,0.475357,1.69515,0
35090,-1.24854,0.476395,1.69282,0
35110,-1.24788,0.476687,1.69074,0
35130,-1.24783,0.476701,1.68949,0
35150,-1.2487,0.476545,1.68879,0
35170,-1.24975,0.476291,1.68905,0
35190,-1.25008,0.475672,1.68968,0
35210,-1.24899,0.475143,1.69094,0
35230,-1.24738,0.475157,1.69239,0
35250,-1.24578,0.475057,1.69365,0
35270,-1.24491,0.47478,1.69439,0
35290,-1.24527,0.474439,1.69477,0
35310,-1.24578,0.474121,1.69497,0
35330,-1.246,0.473893,1.69492,0
35350,-1.24511,0.473808,1.69471,0
35370,-1.24475,0.473804,1.69419,0
35390,-1.24536,0.473812,1.69344,0
35410,-1.24536,0.473299,1.69257,0
35430,-1.24496,0.472814,1.69163,0
35450,-1.24404,0.472138,1.69081,0
35470,-1.24306,0.471424,1.69025,0
35490,-1.2424,0.470769,1.68986,0
35510,-1.24226,0.470099,1.68979,0
35520,-1.24162,0.469499,1.68993,0
35540,-1.24047,0.469012,1.69031,0
35560,-1.23943,0.468466,1.69077,0
35580,-1.23855,0.467902,1.69102,0
35600,-1.23791,0.467647,1.6913,0
35620,-1.23798,0.467326,1.69126,0
35640,-1.23788,0.466902,1.69166,0
35660,-1.23747,0.466308,1.69171,0
35680,-1.23684,0.465942,1.6918,0
35700,-1.23636,0.465669,1.69189,0
35720,-1.23565,0.46539,1.69207,0
35740,-1.23506,0.464762,1.69178,0
35760,-1.2342,0.464408,1.69161,0
35780,-1.23314,0.463828,1.69116,0
35800,-1.23205,0.462877,1.69041,0
35820,-1.23166,0.46185,1.68977,0
35840,-1.23089,0.460225,1.68911,0
35860,-1.23013,0.459102,1.68858,0
35880,-1.22921,0.458139,1.68765,0
35900,-1.22775,0.457117,1.68665,0
35920,-1.22571,0.456317,1.68562,0
35940,-1.2231,0.455613,1.68473,0
35960,-1.22084,0.454727,1.68399,0
35980,-1.21936,0.453866,1.6832,0
36000,-1.21843,0.453256,1.6824,0
36020,-1.21731,0.452712,1.68188,0
36040,-1.21561,0.452262,1.68151,0
36060,-1.21403,0.451876,1.68096,0
36080,-1.21265,0.451304,1.68037,0
36100,-1.21244,0.450892,1.68017,0
36120,-1.21323,0.45014,1.68002,0
36140,-1.21329,0.449398,1.6801,0
36160,-1.21228,0.449006,1.67996,0
36180,-1.21223,0.448446,1.67973,0
36200,-1.21158,0.448029,1.67972,0
36220,-1.21045,0.447423,1.67903,0
36240,-1.20969,0.447214,1.67835,0
36260,-1.20876,0.44683,1.67794,0
36280,-1.20786,0.446274,1.67768,0
36300,-1.20674,0.445647,1.67734,0
36320,-1.20635,0.445387,1.67716,0
36340,-1.20607,0.445271,1.67734,0
36360,-1.20605,0.445053,1.67776,0
36380,-1.20653,0.444832,1.67813,0
36400,-1.20686,0.444749,1.67845,0
36420,-1.20753,0.444977,1.67905,0
36440,-1.2084,0.444895,1.67985,0
36460,-1.20928,0.444936,1.6804,0
36480,-1.2093,0.44498,1.68093,0
36500,-1.20812,0.445243,1.68123,0
36520,-1.20698,0.445304,1.68175,0
36540,-1.20628,0.445073,1.68195,0
36560,-1.20628,0.445073,1.68195,0
36580,-1.2059,0.444678,1.68194,0
36600,-1.2059,0.444678,1.68194,0
36620,-1.2059,0.444678,1.68194,0
36640,-1.20533,0.444471,1.68195,0
36660,-1.20449,0.444365,1.68174,0
36680,-1.20349,0.444274,1.68172,0
36700,-1.20297,0.444113,1.68147,0
36720,-1.20277,0.444327,1.68116,0
36740,-1.20145,0.44462,1.68093,0
36760,-1.20035,0.444483,1.68066,0
36780,-1.20046,0.444423,1.68073,0
36800,-1.20169,0.444151,1.68087,0
36820,-1.20392,0.444077,1.68122,0
36840,-1.20549,0.444049,1.68145,0
36860,-1.20531,0.444279,1.68202,0
36880,-1.20531,0.444279,1.68202,0
36900,-1.20504,0.444462,1.68233,0
36920,-1.20552,0.44439,1.6821,0
36940,-1.20552,0.44439,1.6821,0
36960,-1.20485,0.444311,1.68223,0
36980,-1.2033,0.444082,1.6824,0
37000,-1.20295,0.443772,1.68213,0
37020,-1.20419,0.443095,1.68196,0
37040,-1.20559,0.442811,1.68192,0
37060,-1.20634,0.442746,1.68212,0
37080,-1.20623,0.442806,1.68205,0
37100,-1.20521,0.44293,1.6824,0
37120,-1.20521,0.44293,1.6824,0
37140,-1.2061,0.443081,1.68235,0
37160,-1.20736,0.443327,1.6822,0
37180,-1.20769,0.443271,1.68217,0
37200,-1.20769,0.443271,1.68217,0
37220,-1.20758,0.443331,1.6821,0
37240,-1.20779,0.443442,1.68219,0
37260,-1.20848,0.443781,1.68218,0
37280,-1.20882,0.444024,1.68227,0
37300,-1.20871,0.444084,1.6822,0
37320,-1.20872,0.444152,1.68237,0
37340,-1.20862,0.444212,1.6823,0
37360,-1.20872,0.444152,1.68237,0
37380,-1.20862,0.444212,1.6823,0
37400,-1.20809,0.444157,1.68224,0
37420,-1.20809,0.444157,1.68224,0
37440,-1.20879,0.444388,1.68205,0
37460,-1.2098,0.444603,1.68183,0
37480,-1.21061,0.444882,1.68189,0
37500,-1.21061,0.444882,1.68189,0
37520,-1.2105,0.444942,1.68182,0
37540,-1.21086,0.445445,1.68202,0
37560,-1.21121,0.445581,1.68193,0
37580,-1.21131,0.445521,1.682,0
37600,-1.21121,0.445581,1.68193,0
37620,-1.21064,0.445672,1.68207,0
37640,-1.21064,0.445672,1.68207,0
37660,-1.21112,0.446008,1.68216,0
37680,-1.21143,0.446291,1.68226,0
37700,-1.2118,0.446795,1.68246,0
37720,-1.21148,0.44715,1.68262,0
37740,-1.21146,0.44719,1.68263,0
37760,-1.21146,0.44719,1.68263,0
37780,-1.21188,0.447306,1.68261,0
37800,-1.21212,0.447678,1.68281,0
37820,-1.21212,0.447678,1.68281,0
37840,-1.212,0.447546,1.68281,0
37860,-1.21166,0.44771,1.68302,0
37880,-1.21144,0.447937,1.68307,0
37900,-1.21144,0.447937,1.68307,0
37920,-1.21144,0.447937,1.68307,0
37940,-1.21155,0.448177,1.68326,0
37960,-1.21191,0.448381,1.68334,0
37980,-1.21165,0.448348,1.68328,0
38000,-1.21165,0.448348,1.68328,0
38020,-1.21179,0.44878,1.6834,0
38040,-1.21181,0.449271,1.68346,0
38060,-1.21183,0.44934,1.68364,0
38080,-1.21207,0.449535,1.68347,0
38100,-1.21247,0.449892,1.68348,0
38120,-1.21247,0.449892,1.68348,0
38140,-1.21193,0.450067,1.68337,0
38160,-1.21193,0.450067,1.68337,0
38180,-1.21193,0.450067,1.68337,0
38200,-1.21193,0.450067,1.68337,0
38220,-1.21208,0.450159,1.68336,0
38240,-1.21264,0.450299,1.68317,0
38260,-1.21326,0.450659,1.68308,0
38280,-1.21326,0.450659,1.68308,0
38300,-1.21275,0.451094,1.68308,0
38320,-1.21275,0.451094,1.68308,0
38340,-1.2129,0.451187,1.68307,0
38360,-1.21333,0.451303,1.68306,0
38380,-1.21404,0.451535,1.68286,0
38400,-1.21404,0.451535,1.68286,0
38420,-1.21406,0.451604,1.68304,0
38440,-1.21395,0.451663,1.68297,0
38460,-1.21392,0.451703,1.68298,0
38480,-1.21443,0.451823,1.68269,0
38500,-1.21454,0.451764,1.68276,0
38520,-1.21443,0.451823,1.68269,0
38540,-1.21443,0.451823,1.68269,0
38560,-1.2143,0.451922,1.68263,0
38580,-1.2143,0.451922,1.68263,0
38600,-1.21455,0.451955,1.6827,0
38620,-1.21455,0.451955,1.6827,0
38640,-1.21455,0.451955,1.6827,0
38660,-1.21502,0.451923,1.68248,0
38680,-1.21502,0.451923,1.68248,0
38700,-1.21503,0.451992,1.68266,0
38720,-1.21503,0.451992,1.68266,0
38740,-1.21503,0.451992,1.68266,0
38760,-1.21501,0.452032,1.68267,0
38780,-1.2149,0.452091,1.6826,0
38800,-1.21535,0.452168,1.68258,0
38820,-1.21524,0.452227,1.68251,0
38840,-1.21524,0.452227,1.68251,0
38860,-1.21484,0.452071,1.68251,0
38880,-1.21458,0.452038,1.68244,0
38900,-1.21458,0.452038,1.68244,0
38920,-1.21458,0.452038,1.68244,0
38940,-1.21458,0.452038,1.68244,0
38960,-1.21458,0.452038,1.68244,0
38980,-1.21471,0.45217,1.68245,0
38990,-1.21471,0.45217,1.68245,0
39010,-1.21472,0.452239,1.68263,0
39030,-1.21504,0.452115,1.68242,0
39050,-1.21504,0.452115,1.68242,0
39070,-1.21446,0.451906,1.68244,0
39090,-1.21447,0.451975,1.68261,0
39110,-1.21447,0.451975,1.68261,0
39130,-1.21447,0.451975,1.68261,0
39150,-1.21447,0.451975,1.68261,0
39170,-1.21447,0.451975,1.68261,0
39190,-1.21437,0.452034,1.68254,0
39210,-1.21367,0.451994,1.68268,0
39230,-1.21337,0.45201,1.6827,0
39250,-1.21336,0.451941,1.68252,0
39270,-1.21346,0.451882,1.68259,0
39290,-1.21337,0.45201,1.6827,0
39310,-1.21337,0.45201,1.6827,0
39330,-1.21301,0.451805,1.68261,0
39350,-1.2129,0.451742,1.68279,0
39370,-1.21289,0.451673,1.68261,0
39390,-1.21289,0.451673,1.68261,0
39410,-1.21347,0.45165,1.68265,0
39430,-1.21364,0.451502,1.68262,0
39450,-1.21364,0.451502,1.68262,0
39470,-1.21308,0.451594,1.68276,0
39490,-1.21308,0.451594,1.68276,0
39510,-1.21308,0.451594,1.68276,0
39530,-1.21308,0.451594,1.68276,0
39550,-1.21308,0.451594,1.68276,0
39570,-1.21297,0.451653,1.68269,0
39590,-1.21267,0.451669,1.68271,0
39610,-1.21208,0.451569,1.68291,0
39630,-1.21208,0.451569,1.68291,0
39650,-1.21208,0.451569,1.68291,0
39670,-1.21208,0.451569,1.68291,0
39690,-1.21208,0.451569,1.68291,0
39710,-1.21193,0.451477,1.68292,0
39730,-1.21196,0.451437,1.68291,0
39750,-1.21196,0.451437,1.68291,0
39770,-1.21193,0.451477,1.68292,0
39790,-1.21193,0.451477,1.68292,0
39810,-1.21193,0.451477,1.68292,0
39830,-1.21183,0.451536,1.68285,0
39850,-1.21183,0.451536,1.68285,0
39870,-1.21198,0.451629,1.68284,0
39890,-1.21198,0.451629,1.68284,0
39910,-1.21198,0.451629,1.68284,0
39930,-1.21198,0.451629,1.68284,0
39950,-1.21241,0.451514,1.68288,0
39970,-1.21226,0.451421,1.68289,0
39990,-1.21226,0.451421,1.68289,0
40010,-1.21217,0.451549,1.683,0
40030,-1.21217,0.451549,1.683,0
40050,-1.21217,0.451549,1.683,0
40070,-1.21217,0.451549,1.683,0
40090,-1.21206,0.451609,1.68292,0
40110,-1.21152,0.451661,1.68305,0
40130,-1.21102,0.451432,1.68315,0
40150,-1.21102,0.451432,1.68315,0
40170,-1.21148,0.451401,1.68294,0
40190,-1.21204,0.451417,1.68299,0
40210,-1.21208,0.451245,1.68315,0
40230,-1.21152,0.451106,1.68334,0
40250,-1.21072,0.451124,1.6834,0
40270,-1.21072,0.451124,1.6834,0
40290,-1.21082,0.451065,1.68348,0
40310,-1.21082,0.451065,1.68348,0
40330,-1.21073,0.451193,1.68358,0
40350,-1.21073,0.451193,1.68358,0
40370,-1.21063,0.451253,1.68351,0
40390,-1.21048,0.45116,1.68352,0
40410,-1.21005,0.451044,1.68353,0
40430,-1.21005,0.451044,1.68353,0
40450,-1.21005,0.451044,1.68353,0
40470,-1.21005,0.451044,1.68353,0
40490,-1.2099,0.450952,1.68353,0
40510,-1.20991,0.45102,1.68371,0
40530,-1.2099,0.450952,1.68353,0
40550,-1.21005,0.451044,1.68353,0
40570,-1.21005,0.451044,1.68353,0
40590,-1.2099,0.450952,1.68353,0
40610,-1.2099,0.450952,1.68353,0
40630,-1.21005,0.451044,1.68353,0
40650,-1.21005,0.451044,1.68353,0
40670,-1.20991,0.45102,1.68371,0
40690,-1.20991,0.45102,1.68371,0
40710,-1.20991,0.45102,1.68371,0
40730,-1.20991,0.45102,1.68371,0
40750,-1.20991,0.45102,1.68371,0
40770,-1.21005,0.451044,1.68353,0
40790,-1.21006,0.451113,1.68371,0
40810,-1.20996,0.451173,1.68364,0
40830,-1.20948,0.450836,1.68355,0
40850,-1.20948,0.450836,1.68355,0
40870,-1.20934,0.450812,1.68373,0
40890,-1.20934,0.450812,1.68373,0
40910,-1.20911,0.45074,1.68365,0
40930,-1.20876,0.450712,1.68393,0
40950,-1.20874,0.450643,1.68376,0
40960,-1.20943,0.450684,1.68362,0
40990,-1.21033,0.450714,1.68382,0
41000,-1.21018,0.450621,1.68382,0
41020,-1.21018,0.450621,1.68382,0
41040,-1.21018,0.450621,1.68382,0
41060,-1.21018,0.450621,1.68382,0
41080,-1.21007,0.45068,1.68375,0
41100,-1.2103,0.450984,1.68377,0
41120,-1.21055,0.451248,1.68378,0
41140,-1.21055,0.451248,1.68378,0
41160,-1.21065,0.451189,1.68386,0
41180,-1.21022,0.451304,1.68381,0
41200,-1.21022,0.451304,1.68381,0
41220,-1.21089,0.451384,1.68369,0
41240,-1.21168,0.451474,1.68381,0
41260,-1.21168,0.451474,1.68381,0
41280,-1.21157,0.451533,1.68374,0
41300,-1.21157,0.451533,1.68374,0
41320,-1.21157,0.451533,1.68374,0
41340,-1.21172,0.451626,1.68374,0
41360,-1.21172,0.451626,1.68374,0
41380,-1.21172,0.451626,1.68374,0
41400,-1.21172,0.451626,1.68374,0
41420,-1.21172,0.451626,1.68374,0
41440,-1.21172,0.451626,1.68374,0
41460,-1.21172,0.451626,1.68374,0
41480,-1.2117,0.451665,1.68375,0
41500,-1.21159,0.451725,1.68368,0
41520,-1.21159,0.451725,1.68368,0
41540,-1.21159,0.451725,1.68368,0
41560,-1.21159,0.451725,1.68368,0
41580,-1.21159,0.451725,1.68368,0
41600,-1.21159,0.451725,1.68368,0
41620,-1.21174,0.451817,1.68367,0
41640,-1.21245,0.451726,1.68371,0
41660,-1.21458,0.450807,1.6853,0
41680,-1.2168,0.448326,1.69008,0
41700,-1.21809,0.445205,1.69682,0
41720,-1.22648,0.443555,1.7064,0
41740,-1.2395,0.444421,1.71827,0
41760,-1.25423,0.44261,1.73096,0
41780,-1.25873,0.433798,1.74399,0
41800,-1.25518,0.42186,1.75747,0
41820,-1.25547,0.405929,1.77086,0
41840,-1.25986,0.383024,1.78588,0
41860,-1.26152,0.349842,1.80279,0
41880,-1.25724,0.307911,1.82271,0
41900,-1.24561,0.263114,1.84297,0
41920,-1.23145,0.215707,1.86158,0
41940,-1.22146,0.166534,1.87819,0
41960,-1.21613,0.116799,1.89343,0
41980,-1.22013,0.0683616,1.91034,0
42000,-1.22608,0.0233999,1.92873,0
42020,-1.23249,-0.0164015,1.94799,0
42040,-1.23979,-0.0518457,1.96639,0
42060,-1.24826,-0.0837301,1.9838,0
42080,-1.25839,-0.110091,2.00266,0
42100,-1.26579,-0.132969,2.02129,0
42120,-1.27138,-0.15079,2.04076,0
42140,-1.27581,-0.165892,2.06087,0
42160,-1.2816,-0.177253,2.08075,0
42180,-1.28872,-0.188011,2.09955,0
42200,-1.29812,-0.196077,2.11879,0
42220,-1.3065,-0.202788,2.13704,0
42240,-1.31331,-0.208428,2.15277,0
42260,-1.31628,-0.21336,2.16892,0
42280,-1.32047,-0.218996,2.18724,0
42300,-1.32782,-0.225892,2.20252,0
42320,-1.33883,-0.230739,2.21333,0
42340,-1.35306,-0.235353,2.22352,0
42360,-1.36718,-0.238261,2.23509,0
42380,-1.3763,-0.24147,2.24513,0
42400,-1.38135,-0.244982,2.2525,0
42420,-1.38451,-0.247755,2.25843,0
42440,-1.38805,-0.250852,2.26145,0
42460,-1.39283,-0.254944,2.26015,0
42480,-1.39361,-0.259115,2.25694,0
42500,-1.39147,-0.263084,2.25306,0
42520,-1.38843,-0.270069,2.251,0
42540,-1.38435,-0.278853,2.24946,0
42560,-1.37781,-0.288379,2.24831,0
42580,-1.37272,-0.298001,2.24655,0
42600,-1.37096,-0.308082,2.24369,0
42620,-1.37009,-0.318308,2.24087,0
42640,-1.3679,-0.32735,2.23834,0
42660,-1.36533,-0.332879,2.23489,0
42680,-1.36386,-0.33783,2.23177,0
42700,-1.36376,-0.340127,2.22932,0
42720,-1.36291,-0.341268,2.22796,0
42740,-1.35992,-0.341996,2.2274,0
42760,-1.35535,-0.342527,2.22804,0
42780,-1.35073,-0.342105,2.22912,0
42800,-1.34812,-0.340231,2.23111,0
42820,-1.34842,-0.337902,2.23432,0
42840,-1.34889,-0.336072,2.23845,0
42860,-1.34816,-0.334762,2.24296,0
42880,-1.34891,-0.333009,2.2482,0
42900,-1.34952,-0.331959,2.25203,0
42920,-1.35341,-0.329095,2.25442,0
42940,-1.35744,-0.327355,2.25507,0
42960,-1.36115,-0.327292,2.25638,0
42980,-1.36448,-0.326845,2.25792,0
43000,-1.36698,-0.326884,2.25868,0
43020,-1.36947,-0.32777,2.25949,0
43040,-1.37338,-0.328203,2.25984,0
43060,-1.37909,-0.329944,2.25946,0
43080,-1.38513,-0.331049,2.25789,0
43100,-1.39135,-0.329969,2.25592,0
43120,-1.39453,-0.328399,2.2538,0
43140,-1.39535,-0.327282,2.25297,0
43160,-1.40028,-0.327159,2.25401,0
43180,-1.40677,-0.325559,2.25654,0
43200,-1.40574,-0.324889,2.25701,0
43220,-1.40419,-0.327471,2.25576,0
43240,-1.41081,-0.331929,2.25365,0
43260,-1.41892,-0.33691,2.24907,0
43280,-1.42185,-0.340557,2.24554,0
43300,-1.42163,-0.343231,2.24197,0
43320,-1.42042,-0.346126,2.23884,0
43340,-1.41806,-0.348171,2.23608,0
43360,-1.41831,-0.349136,2.23147,0
43380,-1.41884,-0.349919,2.22693,0
43400,-1.4198,-0.349445,2.22253,0
43420,-1.42026,-0.347657,2.21885,0
43440,-1.41982,-0.345261,2.21597,0
43460,-1.41752,-0.341813,2.21324,0
43480,-1.41574,-0.337019,2.20992,0
43500,-1.41405,-0.331264,2.20638,0
43520,-1.41282,-0.325092,2.2035,0
43540,-1.41116,-0.31926,2.20019,0
43560,-1.40769,-0.313464,2.19662,0
43580,-1.40423,-0.306132,2.19349,0
43600,-1.4004,-0.300639,2.19103,0
43620,-1.39675,-0.295198,2.19009,0
43640,-1.39455,-0.289701,2.18901,0
43660,-1.39377,-0.283865,2.18684,0
43680,-1.39359,-0.278063,2.18621,0
43700,-1.39398,-0.274019,2.18741,0
43720,-1.39475,-0.272204,2.19042,0
43740,-1.39443,-0.271427,2.19367,0
43760,-1.39533,-0.272004,2.19624,0
43780,-1.39767,-0.27282,2.19809,0
43800,-1.39953,-0.274158,2.19962,0
43820,-1.40066,-0.275751,2.20189,0
43840,-1.40149,-0.277083,2.20429,0
43860,-1.40266,-0.277581,2.20611,0
43880,-1.40352,-0.27773,2.2075,0
43900,-1.40492,-0.277009,2.20942,0
43920,-1.4058,-0.275188,2.21157,0
43940,-1.40522,-0.272888,2.21399,0
43960,-1.40633,-0.271265,2.21709,0
43980,-1.4085,-0.269084,2.21958,0
44000,-1.41138,-0.266964,2.22183,0
44020,-1.4129,-0.26607,2.22365,0
44040,-1.41331,-0.265581,2.2249,0
44060,-1.41263,-0.265062,2.22464,0
44080,-1.41204,-0.264872,2.22366,0
44100,-1.41219,-0.265321,2.22388,0
44120,-1.41302,-0.266133,2.22445,0
44140,-1.41312,-0.266369,2.22446,0
44160,-1.41401,-0.266512,2.22448,0
44180,-1.41496,-0.266392,2.22465,0
44200,-1.41596,-0.266962,2.22508,0
44220,-1.41684,-0.267907,2.22592,0
44240,-1.41679,-0.268066,2.22592,0
44260,-1.41683,-0.26801,2.22577,0
44280,-1.41737,-0.268382,2.22666,0
44300,-1.41779,-0.269072,2.22756,0
44320,-1.41754,-0.269538,2.22844,0
44340,-1.41722,-0.269894,2.22897,0
44360,-1.41644,-0.2701,2.22941,0
44380,-1.41576,-0.27017,2.22965,0
44400,-1.41587,-0.270812,2.23037,0
44420,-1.41614,-0.272007,2.23117,0
44440,-1.41575,-0.272992,2.23116,0
44450,-1.41464,-0.273142,2.23083,0
44470,-1.41416,-0.273311,2.2309,0
44490,-1.41358,-0.274016,2.23127,0
44510,-1.41262,-0.274536,2.23121,0
44530,-1.41198,-0.274994,2.23087,0
44550,-1.4111,-0.275583,2.23033,0
44570,-1.41068,-0.275637,2.22985,0
44590,-1.40967,-0.275546,2.22947,0
44610,-1.40853,-0.275172,2.22937,0
44630,-1.4069,-0.275366,2.22945,0
44650,-1.40506,-0.275668,2.22941,0
44670,-1.40411,-0.275235,2.22923,0
44690,-1.40361,-0.274587,2.22928,0
44710,-1.40254,-0.273076,2.22917,0
44730,-1.40179,-0.270982,2.22927,0
44750,-1.40133,-0.268676,2.22954,0
44770,-1.40197,-0.266347,2.22989,0
44790,-1.4031,-0.264667,2.23019,0
44810,-1.4042,-0.263122,2.23058,0
44830,-1.40597,-0.260986,2.23122,0
44850,-1.40912,-0.259054,2.23164,0
44870,-1.41222,-0.256096,2.2321,0
44890,-1.41512,-0.25213,2.23346,0
44910,-1.4189,-0.248588,2.23448,0
44930,-1.42187,-0.24564,2.23547,0
44950,-1.42446,-0.241358,2.2363,0
44970,-1.42759,-0.236906,2.23695,0
44990,-1.43061,-0.232351,2.23735,0
45010,-1.43482,-0.227562,2.23742,0
45030,-1.43986,-0.221815,2.23732,0
45050,-1.4431,-0.21522,2.23739,0
45070,-1.44561,-0.207389,2.23843,0
45090,-1.44776,-0.199363,2.2395,0
45110,-1.44968,-0.191449,2.24081,0
45130,-1.45149,-0.183649,2.24218,0
45150,-1.45343,-0.176686,2.24328,0
45170,-1.45404,-0.170436,2.24414,0
45190,-1.45175,-0.165402,2.24485,0
45210,-1.44993,-0.161819,2.24586,0
45230,-1.44841,-0.158833,2.24728,0
45250,-1.44786,-0.156215,2.24929,0
45270,-1.44867,-0.153485,2.25183,1000
45290,-1.44908,-0.150868,2.25481,0
45310,-1.44977,-0.148839,2.25854,0
45330,-1.45168,-0.146905,2.26212,0
45350,-1.45356,-0.145067,2.26589,0
45370,-1.45389,-0.143668,2.26981,0
45390,-1.45352,-0.143416,2.27378,0
45410,-1.45338,-0.143937,2.27781,0
45430,-1.45348,-0.145336,2.28176,0
45450,-1.45404,-0.147133,2.28612,0
45470,-1.45464,-0.149603,2.29075,0
45490,-1.45595,-0.152275,2.29535,0
45510,-1.45721,-0.155052,2.29993,0
45530,-1.45786,-0.158302,2.30482,0
45550,-1.45833,-0.161747,2.31016,0
45570,-1.45941,-0.165263,2.31535,0
45590,-1.46078,-0.168839,2.32075,0
45610,-1.46274,-0.171933,2.32631,0
45630,-1.46472,-0.174759,2.33154,0
45650,-1.46643,-0.177467,2.3373,0
45670,-1.46624,-0.180491,2.34362,0
45690,-1.46481,-0.183954,2.3493,0
45710,-1.46388,-0.187235,2.3543,0
45730,-1.46418,-0.189852,2.35923,0
45750,-1.46505,-0.192532,2.36473,0
45770,-1.4655,-0.195455,2.37079,0
45790,-1.46563,-0.198575,2.37672,0
45810,-1.46644,-0.202239,2.38238,0
45830,-1.46797,-0.205915,2.38817,0
45850,-1.46978,-0.209195,2.39361,0
45870,-1.47151,-0.212141,2.3992,0
45890,-1.47261,-0.215246,2.40493,0
45910,-1.47239,-0.219008,2.41106,0
45930,-1.4715,-0.223395,2.41698,0
45950,-1.47144,-0.228711,2.42254,0
45970,-1.47219,-0.23404,2.42717,0
45990,-1.47303,-0.239389,2.43162,0
46010,-1.4726,-0.24459,2.43622,0
46030,-1.47216,-0.250259,2.44087,0
46050,-1.47162,-0.25661,2.4451,0
46070,-1.47201,-0.26318,2.44938,0
46090,-1.47167,-0.270585,2.45389,0
46110,-1.47203,-0.278236,2.45864,0
46130,-1.47372,-0.286512,2.46394,0
46150,-1.47592,-0.294387,2.46955,0
46170,-1.47715,-0.303037,2.47489,0
46190,-1.47783,-0.311755,2.47971,0
46210,-1.47849,-0.32132,2.48405,0
46230,-1.4795,-0.329967,2.48796,0
46250,-1.48193,-0.339166,2.4911,0
46270,-1.48412,-0.348377,2.49391,0
46290,-1.48584,-0.35679,2.49624,0
46310,-1.48678,-0.365337,2.49765,0
46330,-1.48737,-0.373954,2.49917,0
46350,-1.48741,-0.382558,2.50118,0
46370,-1.48761,-0.390961,2.50253,0
46390,-1.48747,-0.400119,2.50291,0
46410,-1.4869,-0.409708,2.50347,0
46430,-1.48683,-0.420395,2.50386,0
46440,-1.48649,-0.431324,2.50327,0
46460,-1.48629,-0.442048,2.50207,0
46480,-1.48614,-0.453024,2.50024,0
46500,-1.48535,-0.463825,2.49777,0
46520,-1.48552,-0.474666,2.49574,0
46540,-1.48484,-0.485388,2.49269,0
46560,-1.4849,-0.493903,2.48818,0
46580,-1.48613,-0.500933,2.48368,0
46600,-1.48621,-0.506501,2.47845,0
46620,-1.48642,-0.511214,2.47262,0
46640,-1.48739,-0.514691,2.46659,0
46660,-1.48892,-0.516737,2.46101,0
46680,-1.48964,-0.518597,2.45586,0
46700,-1.49035,-0.519336,2.45034,0
46720,-1.49064,-0.520223,2.44488,0
46740,-1.49051,-0.520932,2.44007,0
46760,-1.48916,-0.521464,2.43579,0
46780,-1.48772,-0.5216,2.43103,0
46800,-1.48629,-0.521639,2.42635,0
46820,-1.48256,-0.521569,2.42053,0
46840,-1.47751,-0.522548,2.41439,0
46860,-1.47212,-0.524556,2.40798,0
46880,-1.46599,-0.527135,2.39974,0
46900,-1.46078,-0.530061,2.38938,0
46920,-1.4544,-0.533659,2.37739,0
46940,-1.44631,-0.539136,2.36464,0
46960,-1.43839,-0.545198,2.35069,0
46980,-1.43162,-0.551578,2.33584,0
47000,-1.425,-0.558649,2.31994,0
47020,-1.41813,-0.566314,2.30244,0
47040,-1.412,-0.574153,2.28454,0
47060,-1.4069,-0.58208,2.26638,0
47080,-1.40192,-0.590153,2.24793,0
47100,-1.39694,-0.598904,2.22942,0
47120,-1.39226,-0.607572,2.21119,0
47140,-1.38855,-0.616691,2.19271,0
47160,-1.38596,-0.626057,2.17451,0
47180,-1.38355,-0.63498,2.1556,0
47200,-1.38038,-0.643691,2.13609,0
47220,-1.37673,-0.652096,2.11732,0
47240,-1.37266,-0.660271,2.09859,0
47260,-1.36884,-0.667557,2.07961,0
47280,-1.36598,-0.673955,2.06083,0
47300,-1.36334,-0.679655,2.04248,0
47320,-1.36075,-0.685028,2.025,0
47340,-1.35713,-0.68991,2.0074,0
47360,-1.35409,-0.694272,1.9893,0
47380,-1.35232,-0.697265,1.97093,0
47400,-1.35062,-0.698264,1.95231,0
47420,-1.34773,-0.698602,1.93416,0
47440,-1.34516,-0.698802,1.91686,0
47460,-1.34367,-0.699175,1.90182,0
47480,-1.34339,-0.699491,1.88843,0
47500,-1.34526,-0.699167,1.87642,0
47520,-1.34729,-0.697642,1.86405,0
47540,-1.34894,-0.693722,1.85032,0
47560,-1.3502,-0.687782,1.83724,0
47580,-1.35109,-0.681405,1.82706,0
47600,-1.34987,-0.676772,1.81968,0
47620,-1.34706,-0.673153,1.81197,0
47640,-1.34459,-0.670918,1.80395,0
47660,-1.34281,-0.668676,1.79592,0
47680,-1.34311,-0.664475,1.78821,0
47700,-1.34311,-0.659125,1.78151,0
47730,-1.33709,-0.650245,1.77016,0
47750,-1.33342,-0.646151,1.76496,0
47770,-1.33152,-0.640935,1.75879,0
47790,-1.33071,-0.635264,1.75306,0
47810,-1.33,-0.62855,1.74833,0
47830,-1.32591,-0.622368,1.74333,0
47850,-1.31991,-0.617103,1.7377,0
47870,-1.31466,-0.611534,1.73117,0
47890,-1.31316,-0.604427,1.72548,0
47910,-1.312,-0.595239,1.72084,0
47930,-1.30494,-0.586337,1.71546,0
47950,-1.29806,-0.576724,1.70956,0
47970,-1.29406,-0.567858,1.70466,0
47990,-1.28976,-0.557992,1.70139,0
48010,-1.28335,-0.547528,1.69833,0
48030,-1.28002,-0.53818,1.69541,0
48050,-1.27688,-0.529934,1.69265,0
48070,-1.27368,-0.519721,1.69038,0
48090,-1.27357,-0.508783,1.68968,0
48110,-1.27326,-0.497338,1.68926,0
48130,-1.27122,-0.485197,1.68969,0
48150,-1.26938,-0.473035,1.69108,0
48170,-1.26903,-0.4611,1.69313,0
48190,-1.26809,-0.449213,1.6965,0
48210,-1.26737,-0.436976,1.70051,0
48230,-1.26688,-0.4257,1.70456,0
48250,-1.26742,-0.414513,1.70947,0
48270,-1.26787,-0.403285,1.71496,0
48290,-1.26752,-0.391537,1.71949,0
48310,-1.26724,-0.379934,1.72411,0
48330,-1.26724,-0.368787,1.72996,0
48350,-1.26765,-0.357663,1.73661,0
48370,-1.26637,-0.346525,1.74348,0
48390,-1.26472,-0.336091,1.75006,0
48410,-1.26447,-0.327281,1.75749,0
48430,-1.26545,-0.319483,1.76659,0
48450,-1.2662,-0.312597,1.77581,0
48470,-1.26586,-0.306651,1.78556,0
48490,-1.2653,-0.301438,1.79644,0
48510,-1.26396,-0.297253,1.8072,0
48530,-1.26284,-0.293485,1.81891,0
48550,-1.26296,-0.290303,1.83068,0
48570,-1.26462,-0.287299,1.84278,0
48590,-1.26611,-0.284488,1.85615,0
48610,-1.2671,-0.282432,1.87093,0
48630,-1.26671,-0.281268,1.88555,0
48650,-1.26779,-0.28015,1.89975,0
48670,-1.27108,-0.278953,1.914,0
48690,-1.27605,-0.277258,1.92875,0
48710,-1.28171,-0.275369,1.94359,0
48730,-1.28764,-0.272695,1.95838,0
48750,-1.29288,-0.269692,1.9736,0
48770,-1.2985,-0.267079,1.98916,0
48790,-1.30367,-0.264596,2.00462,0
48810,-1.30865,-0.262312,2.01938,0
48830,-1.31404,-0.260395,2.03308,0
48850,-1.31952,-0.257844,2.04678,0
48870,-1.32598,-0.254998,2.06097,0
48890,-1.33154,-0.253454,2.07518,0
48910,-1.33514,-0.252119,2.08879,0
48930,-1.33918,-0.250259,2.10237,0
48950,-1.34447,-0.249256,2.11623,0
48970,-1.34975,-0.248482,2.13058,0
48990,-1.35579,-0.247218,2.1444,0
49010,-1.36217,-0.246429,2.15849,0
49030,-1.36817,-0.246006,2.17271,0
49050,-1.37424,-0.246191,2.18708,0
49070,-1.37988,-0.246859,2.20191,0
49090,-1.38395,-0.247665,2.21703,0
49110,-1.38782,-0.249808,2.23189,0
49130,-1.39195,-0.252223,2.24647,0
49150,-1.397,-0.255191,2.26151,0
49170,-1.40287,-0.258561,2.27687,0
49190,-1.4083,-0.263247,2.29211,0
49210,-1.4136,-0.268786,2.30722,0
49230,-1.41916,-0.274797,2.32225,0
49250,-1.42562,-0.281071,2.33722,0
49270,-1.43175,-0.287675,2.35164,0
49290,-1.4376,-0.294978,2.3658,0
49310,-1.44244,-0.302552,2.38008,0
49330,-1.44673,-0.310496,2.39406,0
49350,-1.45164,-0.318861,2.40749,0
49370,-1.45638,-0.327715,2.42062,0
49390,-1.46147,-0.336543,2.43309,0
49410,-1.46597,-0.345528,2.44594,0
49430,-1.46992,-0.355002,2.45843,0
49450,-1.47425,-0.365006,2.46946,0
49470,-1.47868,-0.374725,2.48033,0
49490,-1.48409,-0.38477,2.49109,0
49510,-1.48862,-0.394509,2.50033,0
49530,-1.49321,-0.404012,2.50968,0
49550,-1.49794,-0.413699,2.51919,0
49570,-1.50257,-0.423396,2.52814,0
49590,-1.50656,-0.433007,2.53553,0
49610,-1.51091,-0.442582,2.54314,0
49630,-1.51428,-0.452483,2.55046,0
49650,-1.51608,-0.463358,2.55612,0
49670,-1.51803,-0.474655,2.56137,0
49690,-1.52154,-0.485656,2.56643,0
49710,-1.52581,-0.49673,2.57046,0
49730,-1.53126,-0.507219,2.57405,0
49750,-1.53512,-0.517587,2.57645,0
49770,-1.53672,-0.527709,2.57841,0
49790,-1.53943,-0.537227,2.5802,0
49810,-1.54281,-0.547726,2.58135,0
49830,-1.54549,-0.557358,2.58151,0
49850,-1.54863,-0.566695,2.57998,0
49870,-1.55163,-0.57623,2.578,0
49880,-1.55324,-0.585494,2.57467,0
49900,-1.55467,-0.595531,2.57086,0
49920,-1.55677,-0.606558,2.5669,0
49940,-1.5591,-0.617916,2.56162,0
49960,-1.56082,-0.629862,2.5547,0
49980,-1.56296,-0.641233,2.54692,0
50000,-1.56707,-0.652845,2.5397,0
50020,-1.56973,-0.664697,2.53134,0
50040,-1.56996,-0.676473,2.52006,0
50060,-1.56947,-0.687757,2.50755,0
50080,-1.57073,-0.698644,2.49522,0
50100,-1.57242,-0.709053,2.48176,0
50120,-1.57158,-0.718924,2.46586,0
50140,-1.5689,-0.729402,2.44861,0
50160,-1.56688,-0.739441,2.4313,0
50180,-1.56694,-0.749816,2.41385,0
50200,-1.56535,-0.759688,2.39389,0
50220,-1.56283,-0.7694,2.37294,0
50240,-1.55961,-0.778439,2.35192,0
50260,-1.55541,-0.788199,2.32993,0
50280,-1.55026,-0.797072,2.30604,0
50300,-1.54441,-0.80553,2.28063,0
50320,-1.53786,-0.813545,2.25476,0
50340,-1.53035,-0.821119,2.22825,0
50360,-1.52167,-0.827995,2.20069,0
50380,-1.5127,-0.833895,2.17173,0
50400,-1.50359,-0.839516,2.14311,0
50420,-1.49242,-0.844444,2.11465,0
50440,-1.48161,-0.849949,2.08758,0
50460,-1.47263,-0.855552,2.06142,0
50480,-1.46585,-0.858694,2.03615,0
50500,-1.4605,-0.860976,2.01224,0
50520,-1.45378,-0.862662,1.9898,0
50540,-1.44493,-0.864698,1.96842,0
50560,-1.43372,-0.866685,1.94703,0
50580,-1.42422,-0.86959,1.92729,0
50600,-1.41613,-0.872702,1.90906,0
50620,-1.40765,-0.875049,1.88995,0
50640,-1.39953,-0.87575,1.87014,0
50660,-1.39217,-0.873976,1.85001,0
50680,-1.38681,-0.869066,1.83242,0
50700,-1.37925,-0.861309,1.81513,0
50720,-1.3695,-0.853015,1.79946,0
50740,-1.3601,-0.843846,1.78495,0
50760,-1.35334,-0.83428,1.7734,0
50780,-1.3505,-0.823896,1.76631,0
50800,-1.34872,-0.812075,1.76153,0
50820,-1.34436,-0.801606,1.75511,0
50840,-1.34009,-0.791779,1.7491,0
50860,-1.33813,-0.782357,1.74489,0
50880,-1.33577,-0.773688,1.74184,0
50900,-1.33056,-0.765107,1.73757,0
50920,-1.32329,-0.757119,1.73081,0
50940,-1.3172,-0.747992,1.72459,0
50960,-1.31093,-0.737277,1.71872,0
50980,-1.30546,-0.725261,1.71367,0
51000,-1.30034,-0.711761,1.70973,0
51020,-1.29768,-0.698142,1.70711,0
51040,-1.29619,-0.685671,1.70567,0
51060,-1.29206,-0.671735,1.7042,0
51080,-1.28832,-0.657508,1.70427,0
51100,-1.28636,-0.644375,1.70645,0
51120,-1.2864,-0.630549,1.70996,0
51140,-1.28826,-0.617647,1.71513,0
51160,-1.28941,-0.605855,1.72051,0
51180,-1.29008,-0.593747,1.72579,0
51200,-1.2917,-0.582659,1.73193,0
51220,-1.29299,-0.571212,1.73874,0
51240,-1.29417,-0.560734,1.747,0
51260,-1.2943,-0.550088,1.75631,0
51280,-1.29476,-0.539217,1.76546,0
51300,-1.2965,-0.528876,1.77548,0
51320,-1.29879,-0.518395,1.78664,0
51340,-1.30136,-0.507458,1.79814,0
51360,-1.3038,-0.496788,1.81111,0
51380,-1.30572,-0.48602,1.82533,0
51400,-1.3091,-0.475674,1.83969,0
51420,-1.31412,-0.466753,1.854,0
51440,-1.31872,-0.45813,1.8682,0
51460,-1.32338,-0.448369,1.88273,0
51480,-1.3269,-0.439374,1.89747,0
51500,-1.33109,-0.43151,1.91244,0
51520,-1.33458,-0.424905,1.92708,0
51540,-1.3371,-0.417952,1.94177,0
51560,-1.33982,-0.412315,1.95641,0
51580,-1.34184,-0.40683,1.96946,0
51600,-1.34355,-0.400695,1.98132,0
51620,-1.34528,-0.394305,1.99289,0
51640,-1.34626,-0.388331,2.00475,0
51660,-1.34694,-0.383188,2.0162,0
51680,-1.34771,-0.378632,2.02691,0
51700,-1.34831,-0.374029,2.0379,0
51720,-1.35013,-0.369858,2.04922,0
51740,-1.35267,-0.366314,2.06124,0
51760,-1.35381,-0.363217,2.07379,0
51780,-1.35592,-0.361341,2.08785,0
51800,-1.3587,-0.360144,2.10219,0
51820,-1.36106,-0.359868,2.1166,0
51840,-1.36552,-0.3604,2.13245,0
51860,-1.37218,-0.361438,2.14923,0
51880,-1.37777,-0.364256,2.16616,0
51900,-1.3834,-0.367197,2.18342,0
51910,-1.39079,-0.370838,2.20251,0
51930,-1.39981,-0.375204,2.22287,0
51950,-1.40793,-0.381751,2.24238,0
51970,-1.41527,-0.388253,2.26085,0
51990,-1.42239,-0.395205,2.27921,0
52010,-1.42803,-0.403296,2.298,0
52030,-1.43479,-0.412407,2.31749,0
52050,-1.43961,-0.421912,2.33648,0
52070,-1.44264,-0.431257,2.35496,0
52090,-1.44898,-0.441311,2.37408,0
52110,-1.45992,-0.45267,2.39385,0
52130,-1.47043,-0.463484,2.41262,0
52150,-1.47775,-0.474492,2.43041,0
52170,-1.48381,-0.487601,2.44899,0
52190,-1.48972,-0.501988,2.46686,0
52210,-1.49696,-0.517076,2.48448,0
52230,-1.50503,-0.532264,2.50227,0
52250,-1.5134,-0.54655,2.51982,0
52270,-1.52364,-0.559631,2.53755,0
52290,-1.53507,-0.573266,2.55514,0
52310,-1.54953,-0.587829,2.57198,0
52330,-1.56612,-0.601718,2.58892,0
52350,-1.58191,-0.614431,2.60638,0
52370,-1.59619,-0.627001,2.6227,0
52390,-1.61023,-0.640122,2.63826,0
52410,-1.62508,-0.654746,2.65401,0
52430,-1.63989,-0.668803,2.66986,0
52450,-1.65592,-0.682927,2.68443,0
52470,-1.6724,-0.696677,2.69806,0
52490,-1.68721,-0.710346,2.71071,0
52510,-1.70072,-0.723758,2.72173,0
52530,-1.714,-0.737705,2.73145,0
52550,-1.728,-0.752436,2.74075,0
52570,-1.74231,-0.767231,2.74868,0
52590,-1.75673,-0.782708,2.75335,0
52610,-1.76997,-0.797279,2.75549,0
52630,-1.7809,-0.811733,2.75542,0
52650,-1.7938,-0.828067,2.75563,0
52670,-1.80629,-0.844993,2.75291,0
52690,-1.81744,-0.862215,2.74599,0
52710,-1.82689,-0.878021,2.73624,0
52730,-1.83424,-0.893852,2.72472,0
52750,-1.84085,-0.909762,2.7122,0
52770,-1.84733,-0.926153,2.69693,0
52790,-1.85294,-0.943323,2.67814,0
52810,-1.85305,-0.959775,2.65402,0
52830,-1.8512,-0.974682,2.62803,0
52850,-1.84616,-0.987764,2.59804,0
52870,-1.83529,-1.0016,2.56338,0
52890,-1.81874,-1.01505,2.52598,0
52910,-1.80138,-1.02583,2.48674,0
52930,-1.78377,-1.03463,2.44571,0
52950,-1.7642,-1.04145,2.40346,0
52970,-1.74402,-1.04522,2.36266,0
52990,-1.72214,-1.04748,2.32312,0
53010,-1.69489,-1.04984,2.28035,0
53030,-1.66305,-1.0515,2.23256,0
53050,-1.6319,-1.04963,2.18121,0
53070,-1.59664,-1.04515,2.128,0
53090,-1.55689,-1.03895,2.07523,0
53110,-1.51755,-1.03218,2.02543,0
53130,-1.47936,-1.02413,1.9781,0
53150,-1.44167,-1.01321,1.93185,0
53170,-1.40952,-0.999098,1.89099,0
53190,-1.38273,-0.984818,1.85633,0
53210,-1.35623,-0.97135,1.82498,0
53230,-1.33135,-0.956112,1.79844,0
53250,-1.3145,-0.940379,1.78045,0
53270,-1.30147,-0.927008,1.76512,0
53290,-1.28843,-0.914121,1.75009,0
53310,-1.27593,-0.899711,1.73577,0
53330,-1.26555,-0.885688,1.72372,0
53350,-1.2559,-0.870604,1.71458,0
53370,-1.24519,-0.855827,1.70752,0
53390,-1.23441,-0.841828,1.70197,0
53410,-1.22559,-0.828496,1.69724,0
53430,-1.21795,-0.814577,1.69455,0
53450,-1.21082,-0.800761,1.69327,0
53470,-1.20256,-0.787054,1.69188,0
53490,-1.19549,-0.773197,1.69224,0
53510,-1.19133,-0.760754,1.69389,0
53530,-1.18884,-0.747472,1.69657,0
53550,-1.18953,-0.734058,1.70026,0
53570,-1.18975,-0.720624,1.70529,0
53590,-1.18775,-0.706312,1.71003,0
53610,-1.18561,-0.691409,1.71539,0
53630,-1.18723,-0.677191,1.72063,0
53650,-1.19066,-0.663594,1.72585,0
53670,-1.19268,-0.649002,1.73214,0
53690,-1.19361,-0.633773,1.73961,0
53710,-1.19582,-0.619542,1.74739,0
53730,-1.19899,-0.606729,1.75497,0
53750,-1.20235,-0.594188,1.76266,0
53770,-1.20547,-0.581455,1.77112,0
53790,-1.20909,-0.568421,1.77978,0
53810,-1.21371,-0.5565,1.78921,0
53830,-1.21895,-0.546104,1.79896,0
53850,-1.22345,-0.535348,1.8082,0
53870,-1.22847,-0.524055,1.81766,0
53890,-1.23578,-0.513077,1.82796,0
53910,-1.24636,-0.502599,1.83864,0
53930,-1.25832,-0.493301,1.84975,0
53950,-1.27078,-0.484227,1.86147,0
53970,-1.28214,-0.475395,1.87234,0
53990,-1.29258,-0.467184,1.8821,0
54010,-1.30005,-0.459809,1.89105,0
54030,-1.30433,-0.451175,1.89899,0
54050,-1.30829,-0.441773,1.90775,0
54070,-1.31359,-0.434509,1.91674,0
54090,-1.31716,-0.427047,1.92505,0
54110,-1.32079,-0.420622,1.93361,0
54130,-1.32474,-0.414154,1.94305,0
54150,-1.33142,-0.408595,1.95445,0
54170,-1.33941,-0.404352,1.96692,0
54190,-1.34602,-0.401679,1.97944,0
54210,-1.35161,-0.400346,1.99384,0
54230,-1.35869,-0.400706,2.00947,0
54250,-1.36807,-0.402157,2.02562,0
54270,-1.37797,-0.404222,2.04205,0
54290,-1.38898,-0.407276,2.06036,0
54310,-1.40138,-0.411562,2.08107,0
54330,-1.41525,-0.41709,2.10295,0
54350,-1.42984,-0.423301,2.12539,0
54370,-1.44508,-0.428688,2.14809,0
54390,-1.46129,-0.434957,2.17207,0
54410,-1.47675,-0.441325,2.19612,0
54430,-1.48933,-0.448389,2.21847,0
54450,-1.49878,-0.455892,2.24017,0
54470,-1.50772,-0.465776,2.2622,0
54490,-1.5181,-0.476137,2.28357,0
54510,-1.52875,-0.485514,2.30345,0
54530,-1.53731,-0.496658,2.32366,0
54550,-1.54589,-0.510219,2.34471,0
54570,-1.55254,-0.5243,2.36418,0
54590,-1.55864,-0.537862,2.38393,0
54610,-1.56478,-0.551603,2.40344,0
54630,-1.57029,-0.566065,2.4225,0
54650,-1.57727,-0.581153,2.44218,0
54670,-1.58679,-0.595997,2.46132,0
54690,-1.59643,-0.610734,2.48012,0
54710,-1.60334,-0.624818,2.49756,0
54730,-1.60827,-0.639018,2.51471,0
54750,-1.61703,-0.655392,2.53353,0
54770,-1.62701,-0.671844,2.5506,0
54790,-1.63781,-0.687086,2.56616,0
54810,-1.64848,-0.702707,2.58251,0
54830,-1.65938,-0.71902,2.59933,0
54850,-1.67003,-0.735303,2.61492,0
54870,-1.68006,-0.752221,2.62952,0
54890,-1.69081,-0.769063,2.64404,0
54910,-1.70228,-0.785515,2.65743,0
54930,-1.71243,-0.801221,2.66987,0
54950,-1.72214,-0.815585,2.68118,0
54970,-1.73136,-0.830083,2.69069,0
54990,-1.74138,-0.84434,2.70081,0
55010,-1.75122,-0.85831,2.70935,0
55030,-1.7605,-0.871243,2.71764,1001
55050,-1.76951,-0.883534,2.72625,0
55070,-1.78066,-0.896759,2.73609,0
55090,-1.79177,-0.908873,2.74478,0
55110,-1.80349,-0.91971,2.75271,0
55130,-1.8143,-0.929168,2.75872,0
55150,-1.82659,-0.937569,2.76624,0
55170,-1.83797,-0.944058,2.77336,0
55190,-1.84646,-0.948835,2.77764,0
55210,-1.8524,-0.95213,2.77983,0
55230,-1.85609,-0.952256,2.78035,0
55250,-1.85678,-0.949648,2.77854,0
55270,-1.85793,-0.945624,2.7777,0
55290,-1.85948,-0.939403,2.77803,0
55310,-1.86201,-0.930084,2.77825,0
55330,-1.8681,-0.91892,2.77941,0
55340,-1.87431,-0.908911,2.7805,0
55360,-1.87563,-0.899855,2.77643,0
55380,-1.86924,-0.889991,2.76957,0
55400,-1.85867,-0.877435,2.76109,0
55420,-1.8506,-0.865446,2.74903,0
55440,-1.84121,-0.854472,2.73522,0
55460,-1.82757,-0.841313,2.71889,0
55480,-1.81191,-0.827874,2.70006,0
55500,-1.79207,-0.814508,2.67847,0
55520,-1.77253,-0.800204,2.65922,0
55540,-1.75197,-0.784834,2.63948,0
55560,-1.72994,-0.768967,2.61788,0
55580,-1.70765,-0.750336,2.59648,0
55600,-1.68574,-0.730296,2.57748,0
55620,-1.66408,-0.710154,2.56026,0
55640,-1.64147,-0.690274,2.54299,0
55660,-1.62061,-0.670778,2.52782,0
55680,-1.60397,-0.650994,2.51758,0
55700,-1.58752,-0.630027,2.508,0
55720,-1.57114,-0.609335,2.49653,0
55740,-1.55613,-0.588032,2.48459,0
55760,-1.54224,-0.565931,2.47325,0
55780,-1.52951,-0.544227,2.46358,0
55800,-1.51673,-0.522367,2.4541,0
55820,-1.50421,-0.500705,2.44548,0
55840,-1.4919,-0.478829,2.43826,0
55860,-1.48044,-0.457303,2.43234,0
55880,-1.46966,-0.436771,2.42742,0
55900,-1.45976,-0.418013,2.42402,0
55920,-1.45124,-0.40037,2.42037,0
55940,-1.44383,-0.384626,2.41639,0
55960,-1.43764,-0.36967,2.41247,0
55980,-1.43383,-0.35446,2.4094,0
56000,-1.4311,-0.339803,2.40718,0
56020,-1.42911,-0.324808,2.40506,0
56040,-1.42738,-0.310911,2.40308,0
56060,-1.42593,-0.297718,2.40111,0
56080,-1.42575,-0.284972,2.39944,0
56100,-1.42618,-0.273553,2.39859,0
56120,-1.42576,-0.263569,2.39678,0
56140,-1.42416,-0.254724,2.39412,0
56160,-1.42235,-0.247172,2.39106,0
56180,-1.42224,-0.240071,2.38824,0
56200,-1.4234,-0.233452,2.3872,0
56220,-1.42248,-0.22718,2.38775,0
56240,-1.4191,-0.221744,2.38768,0
56260,-1.41532,-0.217825,2.38744,0
56280,-1.41377,-0.214697,2.38831,0
56300,-1.41373,-0.21164,2.3903,0
56320,-1.41387,-0.208604,2.39207,0
56340,-1.41317,-0.20699,2.39418,0
56360,-1.41142,-0.205549,2.39585,0
56380,-1.41044,-0.20385,2.39766,0
56400,-1.41003,-0.201922,2.40047,0
56420,-1.40954,-0.199892,2.40376,0
56440,-1.40918,-0.198407,2.40724,0
56460,-1.40904,-0.197473,2.41058,1000
56480,-1.40958,-0.196345,2.4143,0
56500,-1.41033,-0.195143,2.41879,0
56520,-1.41089,-0.193358,2.42404,0
56540,-1.4107,-0.192239,2.43032,0
56560,-1.41047,-0.191437,2.43713,0
56580,-1.41151,-0.191011,2.44415,0
56600,-1.41269,-0.190727,2.45125,0
56620,-1.41428,-0.190606,2.45872,0
56640,-1.41581,-0.190907,2.46606,0
56660,-1.41734,-0.19165,2.47283,0
56680,-1.41761,-0.192492,2.4799,0
56700,-1.41649,-0.194301,2.48741,0
56720,-1.41531,-0.196848,2.4954,0
56740,-1.41537,-0.199947,2.50298,0
56760,-1.41578,-0.203525,2.51011,0
56780,-1.41727,-0.206991,2.51747,0
56800,-1.41907,-0.210731,2.52501,0
56820,-1.42005,-0.214768,2.53336,0
56840,-1.42042,-0.21934,2.54196,0
56860,-1.42024,-0.22474,2.55005,0
56880,-1.42143,-0.230151,2.55779,0
56900,-1.42326,-0.23602,2.56582,0
56920,-1.42427,-0.241906,2.57424,0
56940,-1.42509,-0.247805,2.58213,0
56960,-1.42663,-0.253901,2.59027,0
56980,-1.42847,-0.260352,2.59926,0
57000,-1.43082,-0.26673,2.60794,0
57020,-1.43326,-0.273535,2.61618,0
57040,-1.43533,-0.280038,2.62457,0
57060,-1.43778,-0.286058,2.63255,0
57080,-1.43981,-0.292469,2.64009,0
57100,-1.44071,-0.298951,2.64702,0
57120,-1.44211,-0.305686,2.65294,0
57140,-1.44435,-0.312232,2.65814,0
57160,-1.44624,-0.318124,2.6628,0
57180,-1.44775,-0.323969,2.6661,0
57200,-1.44932,-0.330077,2.66837,0
57220,-1.44936,-0.336441,2.66933,0
57240,-1.44933,-0.342497,2.66952,0
57260,-1.44953,-0.348328,2.66915,0
57280,-1.44902,-0.35471,2.66785,0
57300,-1.4491,-0.361032,2.6658,0
57320,-1.44898,-0.367679,2.66327,0
57330,-1.44886,-0.374425,2.66062,0
57350,-1.44854,-0.381762,2.65739,0
57370,-1.44788,-0.389112,2.65366,0
57390,-1.44668,-0.396613,2.64893,0
57410,-1.44534,-0.403897,2.64327,0
57430,-1.44386,-0.410608,2.63727,0
57450,-1.4422,-0.417195,2.63131,0
57470,-1.4408,-0.422752,2.62496,0
57490,-1.43856,-0.427368,2.61735,0
57510,-1.43667,-0.430493,2.6083,0
57530,-1.4332,-0.433561,2.59661,0
57550,-1.42791,-0.437039,2.58444,0
57570,-1.42185,-0.442242,2.57354,0
57590,-1.41539,-0.447589,2.56292,0
57610,-1.40923,-0.455045,2.55163,0
57630,-1.40375,-0.465603,2.53995,0
57650,-1.39889,-0.478153,2.52773,0
57670,-1.39474,-0.492089,2.51481,0
57690,-1.39042,-0.506894,2.50071,0
57710,-1.38539,-0.521948,2.48745,0
57730,-1.38013,-0.538066,2.47384,0
57750,-1.37581,-0.553261,2.45795,0
57770,-1.37255,-0.567376,2.43973,0
57790,-1.36916,-0.580053,2.42043,0
57810,-1.36504,-0.592105,2.40068,0
57830,-1.35944,-0.60412,2.38151,0
57850,-1.35316,-0.617082,2.36219,0
57870,-1.34831,-0.629939,2.34242,0
57890,-1.34475,-0.643039,2.32263,0
57910,-1.34123,-0.656259,2.30239,0
57930,-1.33792,-0.669874,2.28196,0
57950,-1.3358,-0.683507,2.26096,0
57970,-1.33421,-0.696346,2.23862,0
57990,-1.33295,-0.708669,2.21448,0
58010,-1.33104,-0.719395,2.18743,0
58030,-1.32842,-0.728414,2.15819,0
58050,-1.3251,-0.735337,2.12713,0
58070,-1.3207,-0.740278,2.09301,0
58090,-1.31636,-0.742454,2.05705,0
58110,-1.30999,-0.742527,2.0197,0
58130,-1.30212,-0.741114,1.98297,0
58150,-1.29406,-0.737466,1.9461,0
58170,-1.28746,-0.731438,1.91084,0
58190,-1.28166,-0.723476,1.87799,0
58210,-1.27495,-0.714671,1.84736,0
58230,-1.26832,-0.705832,1.82016,0
58250,-1.26259,-0.698583,1.79816,0
58270,-1.25691,-0.693026,1.77879,0
58290,-1.25266,-0.688409,1.76336,0
58310,-1.24936,-0.684575,1.74898,0
58330,-1.24701,-0.680715,1.73685,0
58350,-1.24495,-0.677796,1.72724,0
58370,-1.24286,-0.675255,1.71935,0
58390,-1.24071,-0.672653,1.71207,0
58410,-1.23758,-0.669851,1.70661,0
58430,-1.23528,-0.666667,1.70261,0
58450,-1.23279,-0.663782,1.69906,0
58470,-1.23207,-0.659465,1.69707,0
58490,-1.23427,-0.653857,1.69775,0
58510,-1.23636,-0.648006,1.70151,0
58530,-1.23464,-0.642493,1.70512,0
58550,-1.23164,-0.63673,1.70668,0
58570,-1.22923,-0.630914,1.70808,0
58590,-1.22848,-0.624766,1.71099,0
58610,-1.22802,-0.618493,1.71593,0
58630,-1.22551,-0.612827,1.71957,0
58650,-1.22286,-0.607969,1.72278,0
58670,-1.22226,-0.603012,1.72636,0
58690,-1.22342,-0.596547,1.7297,0
58710,-1.22575,-0.589055,1.73439,0
58730,-1.22324,-0.58225,1.7381,0
58750,-1.2175,-0.574083,1.73861,0
58770,-1.21391,-0.565604,1.73829,0
58790,-1.21308,-0.556424,1.73863,0
58810,-1.20968,-0.546004,1.73834,0
58830,-1.20513,-0.534543,1.73719,0
58850,-1.20117,-0.523567,1.73691,0
58870,-1.19851,-0.513051,1.73956,0
58890,-1.19373,-0.504105,1.74363,0
58910,-1.18752,-0.496371,1.74645,0
58940,-1.18307,-0.476898,1.75042,0
58960,-1.18488,-0.467088,1.75441,0
58980,-1.18427,-0.456208,1.75864,0
59000,-1.18224,-0.444724,1.76321,0
59020,-1.18087,-0.433768,1.76852,0
59040,-1.17956,-0.423026,1.77426,0
59060,-1.17846,-0.41131,1.78013,0
59080,-1.17761,-0.398824,1.78533,0
59100,-1.17689,-0.387632,1.79142,0
59120,-1.17522,-0.377373,1.79908,0
59140,-1.17337,-0.366806,1.80683,0
59160,-1.17208,-0.356284,1.81478,0
59180,-1.17321,-0.346204,1.82451,0
59200,-1.17624,-0.337542,1.83597,0
59220,-1.17794,-0.328595,1.84672,0
59240,-1.17968,-0.319642,1.85689,0
59260,-1.18157,-0.311047,1.86743,0
59280,-1.18231,-0.302433,1.87854,0
59300,-1.18346,-0.294014,1.88996,0
59320,-1.1832,-0.285755,1.90152,0
59340,-1.18246,-0.278755,1.91374,0
59360,-1.18276,-0.272987,1.92675,0
59380,-1.18499,-0.268702,1.94087,0
59400,-1.18832,-0.265569,1.95628,0
59420,-1.19119,-0.263212,1.97173,0
59440,-1.19425,-0.26158,1.98767,0
59460,-1.19798,-0.260212,2.00402,0
59480,-1.20281,-0.259617,2.0216,0
59500,-1.20911,-0.259669,2.03951,0
59520,-1.2154,-0.259654,2.05701,0
59540,-1.22213,-0.258808,2.07468,0
59560,-1.22949,-0.258371,2.09285,0
59580,-1.23759,-0.258327,2.11178,0
59600,-1.24596,-0.258683,2.13121,0
59620,-1.25377,-0.259085,2.15033,0
59640,-1.26182,-0.259101,2.17003,0
59660,-1.27168,-0.260017,2.19143,0
59680,-1.28245,-0.261903,2.21324,0
59700,-1.29327,-0.263394,2.23512,0
59720,-1.30523,-0.264879,2.25779,0
59740,-1.31757,-0.267844,2.28083,0
59760,-1.32948,-0.271686,2.30449,0
59780,-1.34225,-0.275704,2.32875,0
59800,-1.3546,-0.280893,2.35288,0
59820,-1.3656,-0.286676,2.37642,0
59840,-1.37535,-0.293971,2.39967,0
59860,-1.38426,-0.303549,2.42375,0
59880,-1.39293,-0.314885,2.44755,0
59900,-1.40055,-0.32725,2.46994,0
59920,-1.40769,-0.339779,2.49229,0
59940,-1.41476,-0.353302,2.51396,0
59960,-1.42178,-0.366618,2.53546,0
59980,-1.4288,-0.379448,2.55689,0
60000,-1.43634,-0.391342,2.57791,0
60020,-1.44495,-0.403789,2.59878,0
60040,-1.45325,-0.41633,2.61886,0
60060,-1.46194,-0.428609,2.63823,0
60080,-1.46955,-0.44064,2.65672,0
60100,-1.47633,-0.452901,2.6736,0
60120,-1.48206,-0.46556,2.68883,0
60140,-1.4872,-0.478032,2.70199,0
60160,-1.49317,-0.490916,2.71315,0
60180,-1.49807,-0.503267,2.72294,0
60200,-1.50299,-0.515876,2.73159,0
60220,-1.50923,-0.527981,2.73978,0
60240,-1.51454,-0.540167,2.74718,0
60260,-1.51862,-0.551927,2.75356,0
60280,-1.52314,-0.563525,2.75879,0
60300,-1.52799,-0.573636,2.76328,0
60320,-1.53342,-0.583395,2.76699,0
60340,-1.53789,-0.593092,2.76829,0
60360,-1.54029,-0.602761,2.76778,0
60380,-1.54177,-0.613826,2.76731,0
60400,-1.54609,-0.624925,2.76846,0
60420,-1.55115,-0.636924,2.76906,0
60440,-1.55506,-0.648823,2.76784,0
60460,-1.55737,-0.660249,2.76391,0
60480,-1.55874,-0.671407,2.75911,0
60500,-1.56192,-0.682608,2.7552,0
60520,-1.56582,-0.694005,2.75037,0
60540,-1.56811,-0.705278,2.74303,0
60560,-1.56911,-0.715455,2.73285,0
60580,-1.57088,-0.725298,2.72152,0
60600,-1.57319,-0.73469,2.71113,0
60620,-1.57484,-0.744375,2.70017,0
60640,-1.5765,-0.754452,2.6886,0
60660,-1.57736,-0.7657,2.67599,0
60680,-1.57822,-0.776454,2.66268,0
60700,-1.58023,-0.787077,2.64965,0
60720,-1.58155,-0.797418,2.63535,0
60740,-1.58185,-0.807799,2.61999,0
60760,-1.58137,-0.818888,2.60318,0
60780,-1.58146,-0.830419,2.58524,0
60790,-1.58064,-0.842639,2.56631,0
60810,-1.58025,-0.854671,2.5487,0
60830,-1.57858,-0.867155,2.52862,0
60850,-1.57561,-0.878816,2.50436,0
60870,-1.5722,-0.889289,2.47853,0
60890,-1.56696,-0.898796,2.45087,0
60910,-1.55919,-0.909006,2.42024,0
60930,-1.54932,-0.918022,2.38613,0
60950,-1.53916,-0.925683,2.35,0
60970,-1.52689,-0.933227,2.31235,0
60990,-1.51345,-0.940455,2.2751,0
61010,-1.49831,-0.947373,2.23589,0
61030,-1.48358,-0.95234,2.19572,0
61050,-1.47188,-0.955631,2.15801,0
61070,-1.46093,-0.956957,2.12396,0
61090,-1.44618,-0.95581,2.09032,0
61110,-1.43212,-0.953585,2.05875,0
61130,-1.41988,-0.951557,2.0314,0
61150,-1.41017,-0.948563,2.00925,0
61170,-1.39944,-0.944719,1.98886,0
61190,-1.38837,-0.940899,1.9688,0
61210,-1.37757,-0.936342,1.9499,0
61230,-1.36788,-0.931466,1.93302,0
61250,-1.35663,-0.927366,1.91713,0
61270,-1.34375,-0.92224,1.90029,0
61290,-1.33146,-0.916224,1.88185,0
61310,-1.31812,-0.908552,1.86261,0
61330,-1.30358,-0.899268,1.84423,0
61350,-1.28992,-0.889901,1.82817,0
61370,-1.27729,-0.87976,1.81416,0
61390,-1.26491,-0.868926,1.80113,0
61410,-1.25366,-0.857471,1.78971,0
61430,-1.24458,-0.846082,1.7818,0
61450,-1.23621,-0.834062,1.77585,0
61470,-1.22979,-0.822577,1.77126,0
61490,-1.22435,-0.812491,1.76846,0
61510,-1.21838,-0.80293,1.76608,0
61530,-1.21198,-0.793209,1.76321,0
61550,-1.20551,-0.783562,1.76108,0
61570,-1.20179,-0.774204,1.76051,0
61590,-1.20073,-0.764886,1.76216,0
61610,-1.19742,-0.754757,1.76411,0
61630,-1.19331,-0.744466,1.76583,0
61650,-1.19132,-0.735278,1.76917,0
61670,-1.19263,-0.725753,1.775,0
61690,-1.19523,-0.714874,1.78175,0
61710,-1.19831,-0.703902,1.78944,0
61730,-1.20347,-0.69197,1.799,0
61750,-1.20943,-0.680723,1.80959,0
61770,-1.21512,-0.669891,1.8193,0
61790,-1.21942,-0.659732,1.82696,0
61810,-1.22285,-0.649789,1.83427,0
61830,-1.22633,-0.641707,1.84226,0
61850,-1.23083,-0.633738,1.85138,0
61870,-1.2351,-0.625364,1.86008,0
61890,-1.23824,-0.616328,1.86727,0
61910,-1.24233,-0.608612,1.87533,0
61930,-1.24707,-0.600877,1.88428,0
61950,-1.25125,-0.591301,1.89191,0
61970,-1.25526,-0.581141,1.89979,0
61990,-1.26115,-0.570325,1.90866,0
62010,-1.26671,-0.559062,1.91745,0
62030,-1.27112,-0.546827,1.92543,0
62050,-1.27616,-0.535079,1.93323,0
62070,-1.28008,-0.523924,1.94063,0
62090,-1.28254,-0.51335,1.94836,0
62110,-1.2841,-0.504693,1.95621,0
62130,-1.28498,-0.496738,1.96387,0
62150,-1.28607,-0.488436,1.97133,0
62170,-1.29004,-0.480766,1.98028,0
62190,-1.29489,-0.473568,1.99026,0
62210,-1.29883,-0.466397,2.00012,0
62230,-1.30279,-0.459889,2.01084,0
62250,-1.30686,-0.454384,2.02195,0
62270,-1.3113,-0.448668,2.03284,0
62290,-1.31704,-0.442566,2.04407,0
62310,-1.32365,-0.436466,2.05631,0
62330,-1.33009,-0.43123,2.06887,0
62350,-1.33621,-0.426256,2.0811,0
62370,-1.34248,-0.421337,2.09336,0
62390,-1.3497,-0.416489,2.10645,0
62410,-1.35726,-0.412769,2.11986,0
62430,-1.36379,-0.409526,2.13308,0
62450,-1.36999,-0.406024,2.14656,0
62470,-1.37809,-0.402654,2.16103,0
62490,-1.38813,-0.399567,2.17576,0
62510,-1.3983,-0.396621,2.18997,0
62530,-1.40732,-0.394858,2.20294,0
62550,-1.41374,-0.39412,2.21423,0
62570,-1.41787,-0.3945,2.22455,0
62590,-1.41998,-0.396047,2.23593,0
62610,-1.42115,-0.398604,2.24847,0
62630,-1.42418,-0.401665,2.26155,0
62650,-1.43008,-0.404447,2.27411,0
62670,-1.43908,-0.407346,2.28735,0
62690,-1.44848,-0.410391,2.30179,0
62710,-1.4568,-0.414163,2.31656,0
62730,-1.46388,-0.419112,2.3319,0
62750,-1.47127,-0.424934,2.34763,0
62770,-1.48025,-0.431834,2.36344,0
62790,-1.49033,-0.438853,2.37888,0
62800,-1.50043,-0.445592,2.39501,0
62820,-1.5105,-0.452479,2.41194,0
62840,-1.5205,-0.460696,2.43017,0
62860,-1.53082,-0.470204,2.44923,0
62880,-1.5399,-0.481435,2.46702,0
62900,-1.54807,-0.493685,2.48356,0
62920,-1.5565,-0.506637,2.49987,0
62940,-1.56523,-0.520005,2.51616,0
62960,-1.57386,-0.532995,2.5336,0
62980,-1.58282,-0.546325,2.55184,0
63000,-1.5924,-0.560145,2.57003,0
63020,-1.60302,-0.573082,2.58811,0
63040,-1.61615,-0.585721,2.6069,0
63060,-1.63007,-0.597691,2.62502,0
63080,-1.64193,-0.608872,2.64177,0
63100,-1.65172,-0.61963,2.65848,0
63120,-1.66148,-0.630674,2.67623,0
63140,-1.67116,-0.642036,2.694,0
63160,-1.68199,-0.653904,2.71256,0
63180,-1.69378,-0.665098,2.72972,0
63200,-1.70662,-0.675337,2.74562,0
63220,-1.71824,-0.684325,2.76087,0
63240,-1.73101,-0.692758,2.7777,0
63260,-1.74352,-0.701962,2.79421,0
63280,-1.75401,-0.71122,2.8092,0
63310,-1.77784,-0.72846,2.83852,0
63330,-1.79265,-0.736804,2.85369,0
63350,-1.8081,-0.745835,2.86865,0
63370,-1.8227,-0.753225,2.88278,0
63390,-1.83709,-0.760526,2.8964,0
63410,-1.85138,-0.768898,2.90955,0
63430,-1.86485,-0.776473,2.9218,0
63450,-1.87802,-0.78491,2.93302,0
63470,-1.89081,-0.794197,2.94366,0
63490,-1.90483,-0.804014,2.95397,0
63510,-1.9184,-0.814086,2.963,0
63530,-1.93136,-0.823745,2.97011,0
63550,-1.94461,-0.833166,2.9767,0
63570,-1.95743,-0.843617,2.98233,0
63590,-1.96808,-0.854292,2.98544,0
63610,-1.97812,-0.865075,2.98657,0
63630,-1.98825,-0.876732,2.9865,0
63650,-1.99666,-0.889281,2.98492,0
63670,-2.00397,-0.903288,2.98163,0
63690,-2.01263,-0.917437,2.97719,0
63710,-2.02137,-0.931329,2.97058,0
63730,-2.0285,-0.945622,2.96187,0
63750,-2.0354,-0.959045,2.95179,0
63770,-2.04243,-0.97278,2.9414,0
63790,-2.04527,-0.986854,2.92765,0
63810,-2.04484,-1.00023,2.91384,0
63830,-2.04582,-1.01338,2.90052,0
63850,-2.04765,-1.02756,2.887,0
63870,-2.04632,-1.04103,2.8699,0
63890,-2.04288,-1.05234,2.85027,0
63910,-2.04042,-1.06224,2.83079,0
63930,-2.03729,-1.07143,2.80953,0
63950,-2.03176,-1.07979,2.78679,0
63970,-2.0258,-1.0883,2.76454,0
63990,-2.0221,-1.09662,2.74424,0
64010,-2.01654,-1.10514,2.72232,0
64030,-2.00791,-1.11315,2.696,0
64050,-1.99444,-1.12007,2.66443,0
64070,-1.97405,-1.12606,2.62812,0
64090,-1.95121,-1.13178,2.59134,0
64110,-1.93051,-1.13861,2.55684,0
64130,-1.90522,-1.14509,2.5185,0
64150,-1.87587,-1.15049,2.47574,0
64170,-1.84193,-1.1541,2.42886,0
64190,-1.80688,-1.15565,2.3817,0
64210,-1.7697,-1.15633,2.33367,0
64230,-1.72689,-1.15652,2.28332,0
64250,-1.68098,-1.15337,2.23059,0
64270,-1.63882,-1.14833,2.18096,0
64290,-1.59849,-1.14152,2.1357,0
64310,-1.55531,-1.13316,2.08981,0
64330,-1.51706,-1.12419,2.04797,0
64350,-1.4866,-1.11428,2.01237,0
64370,-1.45999,-1.1034,1.98211,0
64390,-1.43161,-1.09277,1.95305,0
64410,-1.40596,-1.08132,1.92641,0
64430,-1.38543,-1.07009,1.90378,0
64450,-1.37059,-1.05854,1.88605,0
64470,-1.35516,-1.0464,1.86823,0
64490,-1.33734,-1.03405,1.85027,0
64510,-1.32268,-1.02235,1.8359,0
64530,-1.31196,-1.01112,1.82546,0
64550,-1.30272,-0.999743,1.81635,0
64570,-1.29308,-0.988144,1.80734,0
64590,-1.28504,-0.976365,1.79939,0
64610,-1.27854,-0.96496,1.79289,0
64630,-1.27346,-0.953597,1.7893,0
64650,-1.26759,-0.942157,1.78563,0
64670,-1.26269,-0.93124,1.78216,0
64690,-1.25888,-0.920401,1.77893,0
64710,-1.25647,-0.908317,1.77742,0
64730,-1.25403,-0.896569,1.77731,0
64750,-1.25109,-0.886091,1.77811,0
64770,-1.25054,-0.877871,1.78017,0
64790,-1.24991,-0.86835,1.78209,0
64810,-1.24949,-0.858462,1.78352,0
64830,-1.25074,-0.849877,1.78652,0
64850,-1.25207,-0.841497,1.79026,0
64870,-1.25192,-0.83316,1.79416,0
64890,-1.25171,-0.825072,1.79752,0
64910,-1.25125,-0.81716,1.79996,0
64930,-1.25333,-0.809563,1.80434,0
64950,-1.25664,-0.801387,1.80965,0
64970,-1.25917,-0.792658,1.81502,0
64990,-1.26231,-0.783579,1.82196,0
65010,-1.2669,-0.775861,1.82971,0
65030,-1.27121,-0.767115,1.83705,0
65050,-1.27701,-0.757529,1.84542,0
65070,-1.2823,-0.748263,1.85375,0
65090,-1.28693,-0.738605,1.86208,0
65110,-1.29475,-0.728436,1.87193,0
65130,-1.30329,-0.717486,1.88312,0
65150,-1.31066,-0.707108,1.8947,0
65170,-1.31617,-0.698569,1.90537,0
65190,-1.32193,-0.689359,1.91545,0
65210,-1.32981,-0.681253,1.92559,0
65230,-1.33673,-0.673339,1.9363,0
65250,-1.34141,-0.665918,1.94791,0
65270,-1.34468,-0.659317,1.95906,0
65290,-1.34916,-0.653563,1.97068,0
65310,-1.35607,-0.646895,1.98315,0
65330,-1.36628,-0.641499,1.99644,0
65350,-1.37677,-0.636026,2.01006,0
65370,-1.38774,-0.62893,2.02405,0
65390,-1.39894,-0.623177,2.03898,0
65410,-1.40885,-0.618552,2.05408,0
65430,-1.41946,-0.613906,2.06886,0
65450,-1.43021,-0.609514,2.08299,0
65470,-1.43998,-0.604834,2.09779,0
65490,-1.4472,-0.600857,2.1122,0
65510,-1.45275,-0.597068,2.12622,0
65530,-1.46053,-0.594002,2.14057,0
65550,-1.46878,-0.591716,2.15361,0
65570,-1.47587,-0.588717,2.16545,0
65590,-1.48268,-0.585584,2.17774,0
65610,-1.48853,-0.58257,2.18896,0
65630,-1.49462,-0.580434,2.19978,0
65650,-1.4999,-0.578428,2.21006,0
65670,-1.50279,-0.576202,2.21896,0
65690,-1.50682,-0.574581,2.22824,0
65710,-1.51165,-0.573218,2.23768,0
65730,-1.51656,-0.571552,2.24723,0
65750,-1.52192,-0.57141,2.25734,0
65770,-1.52731,-0.572159,2.26748,0
65790,-1.53477,-0.57388,2.27937,0
65810,-1.54353,-0.575904,2.2915,0
65830,-1.55222,-0.57879,2.30525,0
65850,-1.56219,-0.583636,2.32119,0
65870,-1.57221,-0.588794,2.33676,0
65890,-1.58413,-0.594842,2.35276,0
65910,-1.59675,-0.600722,2.36939,0
65930,-1.60941,-0.6085,2.38721,0
65950,-1.62065,-0.617617,2.40452,0
65970,-1.63143,-0.626729,2.42205,0
65990,-1.6444,-0.636618,2.44122,0
66010,-1.65888,-0.648219,2.46079,0
66030,-1.67316,-0.660123,2.48007,0
66050,-1.6881,-0.671381,2.5002,0
66070,-1.70519,-0.682872,2.52277,0
66090,-1.72334,-0.69601,2.5471,0
66110,-1.74057,-0.708778,2.57141,0
66130,-1.75907,-0.721282,2.59639,0
66150,-1.7801,-0.733655,2.62295,0
66170,-1.80345,-0.745261,2.65032,0
66190,-1.82748,-0.756036,2.67788,0
66210,-1.84957,-0.766483,2.70549,0
66230,-1.87236,-0.777164,2.73498,0
66240,-1.89508,-0.788037,2.76392,0
66260,-1.91542,-0.79794,2.78963,0
66280,-1.93616,-0.807947,2.81398,0
66300,-1.95549,-0.817781,2.83725,0
66320,-1.97527,-0.827774,2.86055,0
66340,-1.9936,-0.838177,2.88261,0
66360,-2.0084,-0.848701,2.90193,0
66380,-2.02329,-0.859012,2.92019,0
66400,-2.03868,-0.869193,2.93765,0
66420,-2.05309,-0.879261,2.95266,0
66440,-2.06587,-0.889292,2.96528,0
66460,-2.07867,-0.899587,2.97695,0
66480,-2.09146,-0.908827,2.98754,1001
66500,-2.10319,-0.918434,2.9964,0
66520,-2.11094,-0.927853,3.00338,0
66540,-2.11713,-0.937189,3.00906,0
66560,-2.12261,-0.94636,3.01236,0
66580,-2.12747,-0.955164,3.01345,0
66600,-2.13043,-0.962541,3.01266,0
66620,-2.13409,-0.968621,3.01163,0
66640,-2.13509,-0.973517,3.00969,0
66660,-2.13464,-0.977104,3.00691,0
66680,-2.13533,-0.978655,3.00283,0
66700,-2.13615,-0.977154,2.99857,0
66720,-2.13537,-0.973256,2.99497,0
66740,-2.13281,-0.967623,2.99077,0
66760,-2.12683,-0.961305,2.98264,0
66780,-2.12205,-0.95291,2.97288,0
66800,-2.11687,-0.943609,2.96306,0
66820,-2.10638,-0.934007,2.95245,0
66840,-2.09193,-0.923073,2.94233,0
66860,-2.07819,-0.913663,2.92995,0
66880,-2.06521,-0.906913,2.91673,0
66900,-2.04951,-0.899524,2.90268,0
66920,-2.03009,-0.888832,2.88514,0
66940,-2.00642,-0.874609,2.86355,0
66960,-1.9813,-0.861406,2.84287,0
66980,-1.95264,-0.851248,2.82271,0
67000,-1.92223,-0.839773,2.80108,0
67020,-1.8914,-0.824052,2.77859,0
67040,-1.86231,-0.806838,2.75654,0
67060,-1.83048,-0.790784,2.73135,0
67080,-1.79668,-0.774361,2.70677,0
67100,-1.76465,-0.756376,2.68256,0
67120,-1.7332,-0.735445,2.65809,0
67140,-1.70173,-0.712568,2.63374,0
67160,-1.66992,-0.690462,2.60888,0
67180,-1.63877,-0.66837,2.58291,0
67200,-1.60843,-0.644792,2.55735,0
67220,-1.58054,-0.62045,2.53379,0
67240,-1.55537,-0.594292,2.51256,0
67260,-1.53256,-0.568503,2.49233,0
67280,-1.5116,-0.541862,2.47301,0
67300,-1.49468,-0.513489,2.45589,0
67320,-1.48013,-0.48502,2.43952,0
67340,-1.46651,-0.458165,2.4243,0
67360,-1.45199,-0.433154,2.41017,0
67380,-1.43758,-0.408946,2.39722,0
67400,-1.42644,-0.386499,2.38591,0
67420,-1.41752,-0.364923,2.37568,0
67440,-1.41105,-0.344082,2.36664,0
67460,-1.40726,-0.323754,2.35815,0
67480,-1.40259,-0.304639,2.35076,0
67500,-1.39533,-0.288258,2.34455,0
67520,-1.38654,-0.27389,2.33952,0
67540,-1.37953,-0.26071,2.33575,0
67560,-1.37433,-0.249658,2.33351,0
67580,-1.37014,-0.241203,2.33139,0
67600,-1.3661,-0.235088,2.32934,0
67620,-1.36103,-0.23016,2.32835,0
67640,-1.35716,-0.226183,2.32807,0
67660,-1.35538,-0.22304,2.32731,0
67680,-1.35309,-0.220723,2.3278,0
67700,-1.34971,-0.218901,2.32896,0
67720,-1.34655,-0.217769,2.33043,0
67740,-1.34464,-0.215901,2.33298,0
67760,-1.34307,-0.213706,2.3353,0
67780,-1.34232,-0.211741,2.33767,0
67800,-1.34194,-0.209617,2.34089,0
67820,-1.34162,-0.207409,2.34405,0
67840,-1.34022,-0.205957,2.34763,0
67860,-1.33718,-0.205091,2.35134,0
67880,-1.33384,-0.204449,2.35465,0
67900,-1.33196,-0.204533,2.3581,0
67920,-1.33116,-0.204072,2.36226,0
67940,-1.33075,-0.204269,2.36687,0
67960,-1.33075,-0.204953,2.37216,0
67980,-1.33096,-0.205373,2.37768,0
68000,-1.3313,-0.20627,2.38342,0
68020,-1.33347,-0.206979,2.38932,0
68040,-1.33608,-0.207978,2.39499,0
68060,-1.33771,-0.209168,2.4011,1000
68080,-1.33913,-0.210619,2.4072,0
68100,-1.34013,-0.212472,2.41311,0
68120,-1.34078,-0.214949,2.41904,0
68140,-1.34222,-0.217498,2.42447,0
68160,-1.34408,-0.21989,2.42996,0
68180,-1.34618,-0.221851,2.43509,0
68200,-1.34848,-0.223945,2.43997,0
68220,-1.34956,-0.225997,2.44499,0
68240,-1.35026,-0.228259,2.4502,0
68250,-1.35074,-0.23058,2.45553,0
68270,-1.35184,-0.232168,2.46046,0
68290,-1.35325,-0.23417,2.46535,0
68310,-1.35417,-0.236028,2.47028,0
68330,-1.35527,-0.23794,2.47524,0
68350,-1.35594,-0.240422,2.48008,0
68370,-1.35691,-0.242528,2.48565,0
68390,-1.35877,-0.244537,2.49166,0
68410,-1.36019,-0.247551,2.49677,0
68430,-1.36107,-0.250671,2.50206,0
68450,-1.36212,-0.253684,2.50774,0
68470,-1.36315,-0.256796,2.51363,0
68490,-1.36472,-0.259975,2.51839,0
68510,-1.36717,-0.262903,2.52234,0
68530,-1.36953,-0.265275,2.52666,0
68550,-1.37048,-0.2676,2.53151,0
68570,-1.37168,-0.269968,2.53583,0
68590,-1.37234,-0.273035,2.53946,0
68610,-1.37228,-0.276514,2.54281,0
68630,-1.37223,-0.280585,2.54659,0
68650,-1.371,-0.285265,2.55076,0
68670,-1.37017,-0.290284,2.55439,0
68690,-1.37001,-0.296098,2.55716,0
68710,-1.37211,-0.301918,2.56009,0
68730,-1.37451,-0.307264,2.56316,0
68750,-1.37606,-0.312648,2.5661,0
68770,-1.37608,-0.318388,2.56867,0
68790,-1.37532,-0.323733,2.57111,0
68810,-1.37503,-0.32958,2.57354,0
68830,-1.37526,-0.335824,2.57602,0
68850,-1.37562,-0.341464,2.57826,0
68870,-1.37663,-0.34653,2.58017,0
68890,-1.37771,-0.3515,2.58188,0
68910,-1.37892,-0.355679,2.58342,0
68930,-1.38019,-0.359509,2.58497,0
68950,-1.38094,-0.363638,2.5866,0
68970,-1.38238,-0.367614,2.58869,0
68990,-1.38419,-0.371763,2.59036,0
69010,-1.38672,-0.376246,2.59106,0
69030,-1.38922,-0.381346,2.59142,0
69050,-1.39057,-0.38612,2.59099,0
69070,-1.38983,-0.391046,2.58975,0
69090,-1.38931,-0.395666,2.5886,0
69110,-1.38988,-0.4002,2.58719,0
69130,-1.39103,-0.404594,2.58487,0
69150,-1.39208,-0.408747,2.58151,0
69170,-1.39249,-0.412353,2.57728,0
69190,-1.39105,-0.416735,2.57232,0
69210,-1.38852,-0.421708,2.56632,0
69230,-1.38566,-0.4277,2.55923,0
69250,-1.3825,-0.433484,2.55106,0
69270,-1.38004,-0.439627,2.54192,0
69290,-1.37632,-0.446827,2.53266,0
69310,-1.37161,-0.454567,2.52229,0
69330,-1.3677,-0.461689,2.51139,0
69350,-1.36466,-0.468181,2.49827,0
69370,-1.36178,-0.472713,2.48311,0
69390,-1.3571,-0.47706,2.46796,0
69410,-1.35065,-0.481881,2.45334,0
69430,-1.34407,-0.487839,2.43699,0
69450,-1.33864,-0.494736,2.41959,0
69470,-1.33282,-0.501518,2.40169,0
69490,-1.32614,-0.508586,2.38408,0
69510,-1.31882,-0.517997,2.36776,0
69530,-1.31228,-0.528347,2.3518,0
69550,-1.30688,-0.539005,2.33576,0
69570,-1.3023,-0.550043,2.31903,0
69590,-1.2987,-0.560586,2.30193,0
69610,-1.29511,-0.571543,2.28487,0
69630,-1.2919,-0.582166,2.2681,0
69650,-1.29007,-0.592297,2.25193,0
69670,-1.28875,-0.601942,2.23585,0
69690,-1.28708,-0.61113,2.22046,0
69710,-1.28536,-0.620733,2.20584,0
69730,-1.28424,-0.630096,2.19179,0
69750,-1.28337,-0.639419,2.17663,0
69770,-1.28379,-0.648377,2.15996,0
69790,-1.28422,-0.656815,2.14233,0
69810,-1.28347,-0.665546,2.12519,0
69830,-1.28159,-0.674315,2.10771,0
69850,-1.28002,-0.682166,2.08843,0
69870,-1.27905,-0.68871,2.06713,0
69890,-1.2779,-0.694708,2.04471,0
69910,-1.27564,-0.698946,2.02145,0
69930,-1.27154,-0.701163,1.99858,0
69950,-1.26632,-0.70185,1.97303,0
69970,-1.26272,-0.701126,1.94646,0
69990,-1.26016,-0.698692,1.921,0
70010,-1.25701,-0.6947,1.89657,0
70030,-1.25192,-0.689822,1.87306,0
70050,-1.24682,-0.684349,1.84865,0
70070,-1.24395,-0.678517,1.82614,0
70090,-1.24159,-0.672508,1.80586,0
70110,-1.23832,-0.666571,1.79015,0
70130,-1.23247,-0.663001,1.77482,0
70150,-1.22776,-0.660082,1.75983,0
70170,-1.2251,-0.657317,1.74608,0
70190,-1.2238,-0.654832,1.73466,0
70210,-1.21933,-0.654109,1.7263,0
70230,-1.21301,-0.652854,1.71737,0
70250,-1.20801,-0.652025,1.7078,0
70270,-1.20642,-0.650157,1.70217,0
70290,-1.2058,-0.646014,1.69849,0
70310,-1.20394,-0.641266,1.69394,0
70330,-1.20242,-0.636506,1.69172,0
70350,-1.20428,-0.631142,1.69287,0
70370,-1.20525,-0.625654,1.69713,0
70390,-1.20397,-0.619546,1.69894,0
70410,-1.20332,-0.613375,1.6983,0
70430,-1.20517,-0.606042,1.6985,0
70450,-1.20923,-0.59722,1.70091,0
70470,-1.20755,-0.590069,1.70422,0
