Timestamp, Rotation x, Rotation y, Rotation z, Marker
60,-1.8125,0.6875,1.625,0
80,-1.6875,1.875,2.5,0
100,-0.5625,3.5,4.25,0
120,1.4375,3.4375,3.4375,0
140,3.4375,2.625,2.6875,0
150,4.125,1.0625,0.8125,0
150,3.6875,0.125,0.0625,0
190,4,-0.5,-1.625,0
210,3.0625,-0.75,-2.3125,0
230,2.5625,-1.1875,-2.25,0
250,1.6875,-1.1875,-1.0625,0
270,0.4375,-1.0625,-0.75,0
290,-0.4375,-0.9375,-0.625,0
310,0.375,-1.1875,-0.6875,0
330,0.4375,-1.125,-0.375,0
350,0.5,-0.875,-0.125,0
370,0.5625,-0.6875,0.0625,0
390,0.5625,-0.625,0.4375,0
410,0.4375,-0.4375,-0.0625,0
430,0.8125,-0.375,-0.5625,0
450,1.8125,-0.0625,-0.625,0
470,2.375,0,-0.375,0
490,2.6875,0.625,0.5,0
510,3.4375,1.8125,1.5625,0
530,4.6875,2.3125,2,0
550,4.9375,2.9375,2.875,0
570,5.25,3.25,3.5,0
590,3.875,1.8125,2.3125,0
610,2.4375,0.9375,2.1875,0
630,1.4375,0.25,1.6875,0
650,0.25,0,1.5625,0
670,-0.8125,-0.5625,1.1875,0
690,-1.4375,-1.0625,0.1875,0
710,-1.25,-0.875,-0.3125,0
730,-0.3125,-0.5625,-0.3125,0
750,1.125,-0.125,-0.1875,0
770,1.75,-0.0625,-0.125,0
790,1.9375,-0.125,-0.1875,0
810,2,0,-0.9375,0
830,1.875,0.0625,-1,0
850,1.1875,-0.1875,-1.0625,0
870,0.125,-0.0625,-0.25,0
890,0,0.1875,-0.4375,0
910,0.375,0.25,-0.875,0
930,0.3125,0.375,-1.25,0
950,-0.25,0.1875,-1.0625,0
970,-0.25,-0.1875,-0.6875,0
990,-0.3125,-0.4375,-0.3125,0
1010,-0.8125,-0.5,-0.1875,0
1030,-0.3125,-0.0625,-0.5,0
1050,0.0625,0,-0.625,0
1070,-0.8125,0.1875,-0.375,0
1090,-1.5625,0.125,-0.5625,0
1110,-1.5625,-0.5,-0.75,0
1130,-1.1875,-0.375,-0.75,0
1140,0.25,0.125,-1.25,0
1160,1.1875,0.5,-1.4375,0
1180,1.25,0.375,-1.875,0
1200,1.1875,0.1875,-2.0625,0
1220,0.6875,-0.0625,-1.75,0
1240,-0.1875,0,-1.1875,0
1260,0.0625,0.1875,-1.125,0
1280,0.625,0.3125,-1.25,0
1300,1,0.25,-1.5,0
1320,0.5,-0.125,-1.5,0
1340,0.0625,-0.125,-1,0
1360,0.0625,-0.25,-0.875,0
1380,0.3125,-0.25,-0.9375,0
1400,0.1875,-0.1875,-0.6875,0
1420,0.5625,0.0625,-0.625,0
1440,0.0625,-0.25,-0.3125,0
1460,-0.3125,-0.3125,-0.375,0
1480,0.125,-0.3125,-0.4375,0
1500,0.3125,-0.375,-0.0625,0
1520,0.625,-0.125,-0.3125,0
1540,1.25,0.125,-0.75,0
1560,1.375,0.25,-0.9375,0
1580,0.75,0.1875,-0.625,0
1600,-0.125,0.3125,-0.125,0
1620,-0.375,0.375,0.0625,0
1640,-0.125,0.5625,0.0625,0
1660,0.125,0.4375,0.0625,0
1680,0.9375,0,-0.1875,0
1700,0.4375,-0.0625,0.0625,0
1720,0.75,-0.4375,0,0
1740,0.0625,-0.625,0,0
1760,-0.875,-0.625,0,0
1780,-0.625,-0.0625,-0.125,0
1800,0.1875,-0.125,0.0625,0
1820,0.8125,0.3125,-0.1875,0
1840,1.125,0.3125,-0.375,0
1860,0.0625,0.125,-0.3125,0
1880,-0.625,-0.125,-0.375,0
1900,-0.75,-0.0625,-0.25,0
1920,-0.875,-0.1875,-0.25,0
1940,-0.25,-0.125,-0.375,0
1960,0.875,0.25,-0.0625,0
1980,1.4375,0.5,-0.25,0
2000,1,0.3125,-0.375,0
2020,-0.25,0,-0.3125,0
2040,-0.9375,-0.375,0.0625,0
2060,-1.3125,-0.4375,0.3125,0
2080,-0.625,-0.4375,0.125,0
2100,1.3125,-0.5625,0,0
2120,2.1875,-0.75,-0.0625,0
2140,2.625,-0.625,0,0
2160,1.625,0,-0.0625,0
2180,0.25,0.125,-0.3125,0
2200,-0.5,0.0625,-0.375,0
2220,-0.4375,-0.0625,-0.25,0
2240,-0.125,0.0625,0,0
2260,0.5,0.25,-0.3125,0
2280,1.1875,0.4375,-0.5,0
2300,1,0.625,-0.3125,0
2320,0.625,0.8125,-0.1875,0
2340,0.375,0.6875,-0.4375,0
2360,0,0.25,-0.5,0
2380,-0.125,0.0625,-0.5625,0
2400,0,0.0625,-0.1875,0
2420,0.3125,0.1875,-0.0625,0
2440,0.5625,0.1875,0,0
2460,0.9375,0.4375,-0.3125,0
2480,0.5,0.6875,-0.3125,0
2500,0.625,0.3125,-0.25,0
2520,0.0625,0,-0.0625,0
2540,-0.75,-0.125,0.1875,0
2560,-0.1875,0.1875,0.0625,0
2580,0.125,0.3125,0.25,0
2600,0.875,0.5,0.125,0
2620,1.5625,0.3125,-0.1875,0
2640,0.1875,0,0.0625,0
2660,-1.75,-0.1875,0.25,0
2680,-2.375,-0.3125,0.4375,0
2700,-1.5,-0.0625,0.375,0
2720,0.3125,0.25,0.125,0
2740,1.9375,0.4375,-0.25,0
2760,1.875,0.5625,-0.4375,0
2780,1.125,0,-0.1875,0
2800,-0.0625,-0.0625,-0.125,0
2820,-0.5625,-0.1875,0.0625,0
2840,-0.25,-0.0625,0.125,0
2860,0.4375,0.125,0,0
2880,0.5625,0.125,-0.375,0
2900,0.25,-0.0625,-0.1875,0
2920,-0.0625,-0.125,0.0625,0
2940,-0.375,-0.0625,0.1875,0
2960,-0.3125,0,0,0
2980,0.25,0.0625,-0.125,0
3000,0.5625,0.0625,0.0625,0
3020,0.25,0.0625,0.0625,0
3040,0,0,-0.0625,0
3060,-0.1875,-0.0625,-0.375,0
3080,-0.3125,0,-0.0625,0
3100,-0.1875,0.0625,0.25,0
3120,0.3125,0.0625,0.0625,0
3130,0.625,0.1875,-0.3125,0
3150,0.1875,0.125,-0.375,0
3170,-0.4375,-0.0625,-0.0625,0
3190,-0.8125,-0.25,0,0
3210,0.25,-0.1875,-0.3125,0
3230,0.5625,0.125,-0.75,0
3250,0.5625,0.25,-0.375,0
3270,0.0625,0.1875,0.0625,0
3290,0.5625,0,0,0
3310,-0.1875,0,0.0625,0
3330,-0.8125,-0.125,0.25,0
3350,-0.125,0.0625,0.3125,0
3370,0.3125,0.375,0.25,0
3390,1.0625,0.4375,-0.0625,0
3410,1.5625,0.3125,-0.375,0
3430,0.0625,-0.1875,0,0
3450,-1.125,-0.3125,0.125,0
3470,-0.9375,-0.125,0.25,0
3490,-0.1875,0.0625,0,0
3510,0.9375,0.0625,-0.3125,0
3530,1.8125,0.125,-0.375,0
3550,1.4375,0.0625,-0.5625,0
3570,0.9375,-0.375,-0.4375,0
3590,0.4375,-0.5,-0.6875,0
3610,-0.3125,-1,-1.1875,0
3630,1.5,-0.6875,-1.375,0
3650,2.625,-0.3125,-1.625,0
3670,1.75,0.0625,-1,0
3690,1.75,0.125,-1.1875,0
3710,1.8125,0.0625,-1.3125,0
3730,1.625,0.0625,-0.5625,0
3750,0.75,-0.125,-0.125,0
3770,0.25,0.1875,0.0625,0
3790,0.125,0.1875,0.0625,0
3810,-0.125,0.125,0.0625,0
3830,-0.375,0,0.0625,0
3850,-0.125,0,0.375,0
3870,0.5,-0.0625,0.125,0
3890,1,0.25,-0.25,0
3910,1.375,0.25,-0.375,0
3930,1.625,0.4375,-0.3125,0
3950,1.4375,0.25,-0.125,0
3970,1.125,0.0625,0.0625,0
3990,0.8125,-0.0625,0,0
4010,0.3125,-0.0625,0.0625,0
4030,-0.1875,-0.25,0.25,0
4050,-0.625,-0.3125,0.5625,0
4070,0,-0.4375,0.6875,0
4090,0.75,-0.5,0.5,0
4110,-0.25,-0.4375,0.625,0
4130,-0.75,-0.25,0.6875,0
4150,-1.125,-0.1875,0.625,0
4170,0.625,-0.25,0.1875,0
4190,3.25,0.125,-0.9375,0
4210,3.5,0.1875,-0.9375,0
4230,1.25,-0.0625,-0.4375,0
4250,-0.25,-0.375,0,0
4270,-0.4375,-0.375,0.125,0
4290,0.3125,-0.0625,-0.25,0
4310,1.8125,0,-0.5625,0
4330,2.5,0.125,-0.4375,0
4350,1.875,-0.0625,-0.0625,0
4370,0.6875,-0.375,0,0
4390,-0.25,-0.625,0.25,0
4410,0.0625,-0.6875,0.1875,0
4430,1,-0.5,0.0625,0
4450,1.75,-0.375,-0.125,0
4470,1.5625,-0.375,0,0
4490,1.125,-0.3125,0.125,0
4510,0.9375,-0.125,0.3125,0
4530,0.4375,0,0.125,0
4550,0.875,0,0.0625,0
4570,1,0,0.1875,0
4590,0.625,0,0.5625,0
4610,-0.125,-0.1875,0.625,0
4630,-0.625,-0.125,0.5,0
4650,-0.625,0.0625,0.125,0
4670,-0.1875,0.25,0.0625,0
4690,0.4375,0.25,0.1875,0
4710,0.6875,0.25,0.3125,0
4730,0.4375,-0.0625,0.5,0
4750,-0.0625,0,0.25,0
4770,-0.1875,0.0625,0.25,0
4790,-0.125,0.125,0.375,0
4810,0.125,0,0.5,0
4830,0.125,0.1875,0.25,0
4850,0.875,0.125,0.0625,0
4870,0.5625,-0.0625,0.5,0
4890,0,-0.1875,0.8125,0
4910,0.4375,0.0625,0.4375,0
4930,1.0625,0.375,0.125,0
4950,1.3125,0.1875,0.0625,0
4970,0.8125,-0.25,0.3125,0
4990,-0.6875,-0.75,0.5,0
5010,-2.125,-1,0.1875,0
5030,-2.5,-0.9375,0.125,0
5050,-1.8125,-0.875,0.3125,0
5070,-0.5,-0.625,0.5,0
5090,1.4375,0.0625,0.3125,0
5110,1.3125,0.5,-0.5,0
5130,0.3125,-0.125,-0.4375,0
5150,-1,-0.125,0,0
5170,-1,0.0625,0.0625,0
5190,0.125,0.25,-0.1875,0
5210,0.9375,0.5,-0.375,0
5230,0.6875,0.5,-0.8125,0
5250,-0.75,0.5,-0.6875,0
5270,-1.375,0.0625,-0.125,0
5290,-1.3125,0.0625,0.0625,0
5310,-0.625,0.3125,-0.375,0
5330,-0.125,0.375,-0.875,0
5350,-0.875,0.0625,-1.0625,0
5370,-2.125,-0.125,-0.5,0
5390,-2.5,-0.0625,-0.25,0
5410,-1.5625,0.625,-0.625,0
5430,-0.4375,0.9375,-0.9375,0
5450,-0.3125,0.625,-0.625,0
5470,-0.25,0.625,-0.1875,0
5490,-0.1875,0.625,-0.25,0
5510,-0.125,0.75,-0.5,0
5530,-0.1875,0.625,-0.5625,0
5550,-0.3125,0.4375,-0.1875,0
5570,0.25,0.1875,-0.25,0
5590,0,0.1875,-0.3125,0
5610,-0.0625,0.3125,-0.625,0
5630,0.125,0.4375,-0.6875,0
5650,0.5625,0.5,-0.625,0
5670,1,0.8125,-0.625,0
5690,1.75,0.625,-0.6875,0
5710,0.6875,0.3125,-0.4375,0
5730,-1.3125,0.125,-0.125,0
5750,-2.1875,0.1875,0.1875,0
5770,-1.9375,0.25,0.125,0
5790,-0.5625,0.4375,-0.25,0
5810,0.75,0.6875,-0.6875,0
5830,0.75,0.875,-0.6875,0
5850,-0.0625,0.25,-0.5,0
5870,-0.6875,0.3125,-0.3125,0
5890,-0.9375,0.5,-0.5625,0
5910,-0.375,0.625,-0.625,0
5930,0,0.4375,-0.625,0
5950,-0.125,0.25,-0.25,0
5970,-0.0625,0.125,-0.375,0
5990,0.0625,0.25,-0.3125,0
6010,-0.25,0.375,-0.25,0
6030,-0.5,0.4375,-0.0625,0
6050,-0.5625,0.3125,0.0625,0
6070,-0.625,0.1875,0.0625,0
6090,-0.75,-0.0625,0,0
6110,-0.75,-0.0625,0.0625,0
6130,-0.25,0,0.0625,0
6150,-0.3125,0.125,0.0625,0
6170,-0.3125,0.125,-0.0625,0
6190,-0.1875,0.1875,-0.1875,0
6210,-0.375,-0.0625,-0.1875,0
6230,-0.75,-0.125,0,0
6250,-0.8125,-0.1875,0.1875,0
6270,-0.1875,-0.0625,0,0
6290,0.875,0.0625,-0.5,0
6310,1.0625,0.125,-0.5,0
6330,-0.0625,-0.0625,-0.1875,0
6350,-0.5,0.0625,0,0
6370,-0.4375,-0.125,0.125,0
6390,0.5625,0.0625,-0.125,0
6410,1.3125,0.125,-0.4375,0
6430,0.5,0,-0.1875,0
6450,-0.5625,-0.125,-0.1875,0
6470,-1,-0.0625,-0.0625,0
6490,-0.8125,-0.1875,-0.0625,0
6510,-0.25,-0.1875,0,0
6530,0.875,0.0625,-0.25,0
6540,1.1875,0.0625,-0.4375,0
6560,0.5625,-0.25,-0.1875,0
6580,0,-0.375,0,0
6600,-0.4375,-0.1875,-0.125,0
6620,0.0625,-0.0625,-0.25,0
6640,0.375,0.125,-0.3125,0
6660,0.3125,0.125,-0.25,0
6680,0,0.3125,-0.1875,0
6700,-0.5,0.375,-0.1875,0
6720,-0.5625,0.5,0,0
6740,-0.1875,0.5625,-0.3125,0
6760,-0.0625,0.6875,-0.375,0
6780,-0.4375,0.5625,-0.1875,0
6800,-1.125,0.4375,0.0625,0
6820,-1.3125,0.4375,0.125,0
6840,-0.8125,0.5625,-0.125,0
6860,-0.3125,0.5625,-0.125,0
6880,-0.3125,0.4375,-0.0625,0
6900,-0.875,0.3125,0.3125,0
6920,-1.625,0.25,0.375,0
6940,-1.4375,0.1875,0.5625,0
6960,-1.125,0.3125,0.75,0
6980,-0.75,0.5,0.625,0
7000,-0.375,0.5625,0.125,0
7020,-0.375,0.5,-0.0625,0
7040,0.4375,0.125,0.1875,0
7060,0.0625,-0.125,0.6875,0
7080,-0.0625,-0.3125,0.875,0
7100,0.5625,0.125,0.375,0
7120,1.3125,0.25,0.1875,0
7140,1.625,0.125,-0.3125,0
7160,1.1875,-0.3125,-0.25,0
7180,-0.0625,-0.6875,0.4375,0
7200,0,-0.8125,0.4375,0
7220,0.1875,-0.4375,0.125,0
7240,0.875,-0.5,-0.1875,0
7260,1.4375,-0.625,-0.1875,0
7280,1.8125,-0.5625,-0.25,0
7300,2.3125,-0.3125,-0.625,0
7320,2.1875,-0.8125,-0.625,0
7340,1.4375,-0.9375,-0.5,0
7360,0.75,-1.125,-0.375,0
7380,1.375,-1.125,-0.625,0
7400,2,-1.1875,-0.8125,0
7420,2,-1.25,-0.5,0
7440,1.4375,-1.0625,-0.25,0
7460,1.125,-0.75,-0.1875,0
7480,0.375,-0.5625,-0.25,0
7500,-0.1875,-0.4375,-0.375,0
7520,-0.5,-0.25,-0.1875,0
7540,-0.3125,-0.125,-0.125,0
7560,0.0625,0,-0.25,0
7580,-0.125,0.3125,-0.1875,0
7600,-0.5625,0.5,-0.25,0
7620,-0.25,0.5625,-0.4375,0
7640,0.5,0.6875,-0.375,0
7660,0.9375,0.75,-0.4375,0
7680,1.1875,0.4375,-0.375,0
7700,1.3125,-0.0625,-0.125,0
7720,1.0625,-0.25,0.3125,0
7740,0.1875,-0.375,0.9375,0
7760,-0.5,-0.625,1.125,0
7780,-0.9375,-0.4375,1.125,0
7800,-1.0625,-0.375,1.125,0
7820,-0.375,-0.4375,1.0625,0
7840,-0.375,-0.5625,1.1875,0
7860,-0.9375,-0.4375,1,0
7880,-1,-0.0625,0.25,0
7900,-0.25,0.25,0.0625,0
7920,1.375,0.375,-0.3125,0
7940,2.9375,0.3125,-0.375,0
7960,2.375,0.125,0.0625,0
7980,1,-0.125,-0.125,0
8000,0.25,0,-0.1875,0
8020,0.4375,-0.25,0.1875,0
8040,0.625,-0.5,0.5625,0
8060,1,-0.5,-0.1875,0
8080,2,-0.25,-0.5,0
8100,2.25,-0.375,-0.25,0
8120,1.1875,-0.5,0.125,0
8140,0.1875,-0.75,0.625,0
8160,-0.1875,-0.5,0.5,0
8180,0.5625,-0.4375,0.125,0
8200,1.1875,-0.3125,-0.0625,0
8220,1.25,-0.25,-0.1875,0
8240,0.875,-0.1875,0.0625,0
8260,0.9375,-0.1875,0.1875,0
8280,1,0.0625,0.125,0
8300,1.5,0.125,-0.125,0
8320,1.375,0.1875,-0.0625,0
8340,0.4375,0.0625,0.0625,0
8360,-0.1875,-0.0625,0,0
8380,0.1875,-0.125,0.25,0
8400,1.125,-0.125,0.375,0
8420,1.5,-0.125,0.375,0
8440,1.25,-0.1875,0.3125,0
8460,0.75,-0.3125,0.25,0
8480,0.25,-0.375,0.5625,0
8500,0,-0.4375,0.875,0
8520,0.0625,-0.375,0.875,0
8540,0.25,-0.1875,0.625,0
8550,0.8125,-0.125,0.375,0
8570,0.8125,0.0625,0.25,0
8590,0.9375,0,0.0625,0
8610,0.0625,-0.3125,0.5625,0
8630,-0.75,-0.3125,1,0
8650,0.3125,0.0625,0.75,0
8670,1.375,0.375,0.125,0
8690,1.6875,0.4375,-0.625,0
8710,1,0.0625,-0.3125,0
8730,-0.25,-0.375,0.6875,0
8750,-0.875,-0.625,1.125,0
8770,-0.5625,-0.1875,0.5625,0
8790,0.3125,0.0625,-0.0625,0
8810,0.375,0,0.0625,0
8830,-0.25,-0.0625,0.25,0
8850,-1.1875,-0.1875,0.625,0
8870,-0.875,-0.375,0.5,0
8890,-0.125,-0.0625,-0.0625,0
8910,0.0625,0.25,-0.8125,0
8930,-0.375,0.0625,-0.375,0
8950,-0.625,-0.25,0.0625,0
8970,-0.4375,-0.0625,-0.0625,0
8990,0.3125,0.1875,-0.4375,0
9010,0.3125,0.375,-0.625,0
9030,-0.3125,0.125,-0.3125,0
9050,-1.125,-0.0625,-0.125,0
9070,-1.0625,-0.3125,-0.125,0
9090,-0.8125,-0.125,0.0625,0
9110,-0.8125,-0.125,0.125,0
9130,-0.875,0.125,0.125,0
9150,-0.5,0.25,-0.5,0
9170,-0.3125,0.25,-0.5,0
9190,-0.5625,0.125,-0.25,0
9210,-0.9375,0.0625,0.125,0
9230,-0.9375,0.1875,0,0
9250,-0.4375,0.25,-0.25,0
9270,-0.1875,0.25,-0.3125,0
9290,0,0.3125,-0.375,0
9310,0,0.375,-0.3125,0
9330,0.0625,0.1875,-0.3125,0
9350,-0.625,-0.0625,0.0625,0
9370,-1,0,-0.125,0
9390,-0.875,0,-0.1875,0
9410,-0.625,-0.125,0.0625,0
9430,0.125,0.1875,0.0625,0
9450,0.8125,0,0,0
9470,0.0625,-0.1875,0,0
9490,-1,-0.1875,0.0625,0
9510,-1.375,-0.25,0.375,0
9530,-1.3125,-0.3125,0.625,0
9550,-0.4375,-0.0625,0.25,0
9570,0.6875,0.1875,-0.4375,0
9590,0.75,0.125,-0.75,0
9610,0.1875,-0.1875,-0.4375,0
9630,-0.8125,-0.1875,0.125,0
9650,-0.8125,-0.25,0.125,0
9670,0.3125,0,-0.0625,0
9690,1.125,0.375,-0.3125,0
9710,1,0.3125,-0.3125,0
9730,0.375,0,-0.25,0
9750,-0.4375,-0.25,0.125,0
9770,-0.8125,-0.375,0.5625,0
9790,-0.75,-0.1875,0.5625,0
9810,0,-0.125,0.375,0
9830,0.4375,0.125,0.25,0
9850,0.4375,0.125,0.125,0
9870,0.375,-0.0625,0.0625,0
9890,-0.0625,-0.0625,-0.0625,0
9910,-0.375,-0.0625,0,0
9930,-0.125,-0.125,0.3125,0
9950,0.125,-0.1875,0.1875,0
9970,0.1875,-0.125,-0.25,0
9990,-0.3125,-0.125,-0.1875,0
10010,-0.6875,-0.25,0.3125,0
10030,-0.625,-0.125,0.75,0
10050,-0.375,-0.0625,0.4375,0
10070,1.0625,0.125,-0.125,0
10090,0.8125,-0.0625,0,0
10110,-0.4375,-0.25,0.4375,0
10130,-0.75,-0.0625,0.5625,0
10150,-0.375,0,0.5,0
10170,0.8125,0.3125,-0.0625,0
10190,1.125,0.4375,-0.3125,0
10210,-0.3125,0,0.25,0
10230,-1.5625,-0.25,0.5,0
10250,-1.4375,-0.25,0.4375,0
10270,-0.625,-0.125,0.25,0
10290,0.3125,0.0625,0.0625,0
10310,0.6875,0.375,-0.1875,0
10330,0.1875,0.375,-0.1875,0
10350,-0.5,-0.0625,0,0
10370,-1.0625,-0.125,0.375,0
10390,-1.1875,-0.0625,0.375,0
10410,-0.5,0.0625,0.0625,0
10430,0.25,0.1875,-0.25,0
10450,0.1875,0.125,0,0
10470,-0.4375,0.0625,0.4375,0
10490,-0.375,0.125,0.4375,0
10510,-0.1875,0,0.375,0
10530,-0.3125,0.25,0,0
10550,-0.625,0.1875,0,0
10570,-0.6875,-0.0625,0.375,0
10590,-0.5625,0.0625,0.4375,0
10610,-0.6875,0,0.1875,0
10630,-1,-0.0625,-0.5,0
10650,1.9375,-2.1875,-4.75,0
10670,-5.75,-10.625,-24.5625,0
10690,-15.5625,-29.4375,-35.375,0
10710,-10.375,-53.6875,-35.375,0
10730,-0.4375,-48.5625,-49.25,0
10750,-13.25,-33.5,-79.6875,0
10770,-33.8125,-40.4375,-99.375,0
10790,-46.9375,-36.6875,-120.188,0
10810,-40.8125,-19.3125,-130.812,0
10830,-15.875,-5.9375,-132.688,0
10850,-9.75,4.9375,-132.75,0
10870,-11.5,16.5,-135,0
10890,-18.5625,14.1875,-149.562,0
10910,-23.625,0.3125,-148.688,0
10930,-24.125,-4.8125,-150.938,0
10950,-21.125,-1.625,-157.562,0
10970,-21.375,1.8125,-162.562,0
10990,-19.1875,-6.4375,-161.812,0
11010,-17.5,-13.4375,-156.5,0
11030,-12.5625,-14,-153.375,0
11050,-13.5625,-17.8125,-143.562,0
11070,-13,-20.6875,-128,0
11090,-12.9375,-22.6875,-109.938,0
11110,-12.3125,-20.5625,-98.1875,0
11130,-13.6875,-23.6875,-84,0
11150,-18.125,-26,-61.5,0
11170,-17.625,-21.4375,-46.875,0
11190,-14.8125,-14.0625,-33.5,0
11210,-10,-6.6875,-22.8125,0
11230,-10.3125,-3.9375,-12,0
11250,-4.9375,-1,-3.875,0
11270,3.1875,0.0625,3,0
11290,2.625,-0.3125,9.0625,0
11310,1.25,-1.4375,11.9375,0
11330,0.1875,-5.1875,12.9375,0
11350,-6.375,-6,11.5,0
11370,-9.0625,-9,8.875,0
11390,-4.4375,-14.75,13.5,0
11410,-1.125,-12.625,12.5,0
11440,-4.8125,-10.625,8.375,0
11460,-6.5,-10.75,7.4375,0
11480,-5.375,-12.9375,11.5625,0
11500,-4.5625,-13.9375,14.0625,0
11520,-6.5,-13.125,11.6875,0
11540,-10.0625,-13.4375,13.4375,0
11560,-12.75,-14.4375,12.5625,0
11580,-12.3125,-13.625,9.5,0
11600,-10.1875,-12,9.875,0
11620,-6,-9.875,8.4375,0
11640,-0.0625,-7.25,8.9375,0
11660,4.875,-2.6875,10.8125,0
11680,9.3125,1.1875,8.8125,0
11700,8.4375,0.25,7.375,0
11720,4.125,-2,2.5,0
11740,1.25,-3.375,1.6875,0
11760,0.4375,-2.875,1.375,0
11780,-1.5625,-3.625,-0.4375,0
11800,-2.1875,-5,-0.625,0
11820,0.25,-6.25,-1.6875,0
11840,1.5625,-6.3125,-3,0
11860,0.0625,-4.75,-3.875,0
11880,-2.6875,-1.875,-2.4375,0
11900,-3,-1.625,-0.5625,0
11920,0.0625,-3.25,0.25,0
11940,2,-2.9375,1.5,0
11950,0.9375,-1.0625,1.0625,0
11970,-2.75,0.9375,1.125,0
11990,-2.6875,1.4375,-1.5,0
12010,1.6875,-0.75,-1,0
12030,5.0625,-1.6875,1.4375,0
12050,5.875,-1.125,0.4375,0
12070,1,0.125,0.75,0
12090,-2.75,1.3125,-0.625,0
12110,0.5,-0.5,-2.125,0
12130,7.0625,-2,-2.125,0
12150,5.625,-2.125,-1.5625,0
12170,-2.3125,-1.375,-2.875,0
12190,-4.25,-2.5,-2.5625,0
12210,-0.6875,-3.875,-1.5,0
12230,1.375,-3.9375,-1.6875,0
12250,-0.1875,-3.5625,-1.6875,0
12270,-1.25,-3.1875,-1.6875,0
12290,-0.3125,-3.5625,-1.8125,0
12310,1.3125,-3.0625,-0.625,1000
12330,1.375,-2.1875,-1.4375,0
12350,1,-1.6875,-0.5625,0
12370,0.9375,-2.0625,-2,0
12390,2,-1.9375,-1.125,0
12410,1.9375,-2.3125,0.375,0
12430,-0.5625,-2.375,1.75,0
12450,-2.4375,-1.375,0.3125,0
12470,-2.25,-1.8125,0.625,0
12490,-0.0625,-3.4375,0.6875,0
12510,2.6875,-5.5,1.1875,0
12530,1.6875,-4.875,1.625,0
12550,-0.625,-4.5625,0.3125,0
12570,-1.375,-5.9375,1.75,0
12590,-1.375,-7.0625,1.75,0
12610,-1.25,-8.4375,1.625,0
12630,-1.75,-9.6875,0.5,0
12650,-0.375,-11.625,-1.0625,0
12670,1.6875,-12.625,-1.25,0
12690,0.25,-10.9375,-2.625,0
12710,-0.125,-10.125,-4.5,0
12730,1.9375,-11.875,-3.6875,0
12750,-0.125,-13.5625,-3.125,0
12770,-0.8125,-15.25,-4.0625,0
12790,0.25,-15.8125,-4.25,0
12810,2.0625,-15.75,-5.5,0
12830,4.75,-17.125,-6.375,0
12850,5.5,-17.4375,-6.875,0
12870,4.6875,-16.6875,-9.25,0
12890,3.6875,-15.25,-10.3125,0
12910,4.5,-14.25,-9.9375,0
12930,7.5,-14.3125,-11.125,0
12950,12.3125,-14.0625,-11.875,0
12970,13.5625,-13.3125,-12.875,0
12990,10.4375,-11.5,-12.375,0
13010,8.75,-10.5,-13.6875,0
13030,10.3125,-9.875,-14.5,0
13050,11.3125,-10.8125,-15.25,0
13070,10.1875,-10.8125,-16.25,0
13090,11.375,-12.3125,-15.25,0
13110,10.5,-13.625,-15,0
13130,8.875,-14.0625,-15.9375,0
13150,7,-15.0625,-16.4375,0
13170,6.1875,-15.75,-16.5625,0
13190,6.125,-16.4375,-18.625,0
13210,6.6875,-16.125,-18.625,0
13230,7.0625,-15.25,-17.25,0
13250,8.75,-13.9375,-16.875,0
13270,9.9375,-14.6875,-16.625,0
13290,8.0625,-14.3125,-15.875,0
13310,5.5,-15.0625,-14.6875,0
13330,4.8125,-16.25,-11.9375,0
13350,4.4375,-15.625,-11.8125,0
13370,1.375,-13.8125,-11.9375,0
13390,0.75,-13.8125,-9.3125,0
13410,4,-13.375,-9,0
13430,5.3125,-11.625,-11.4375,0
13450,4.5,-9.25,-13.6875,0
13470,4.8125,-5.9375,-12.75,0
13490,6,-6,-10.4375,0
13510,7.25,-5.75,-13.5,0
13530,4.5625,-5.3125,-14.6875,0
13550,1.75,-5.25,-13.0625,0
13570,3.0625,-6.1875,-11.5,0
13590,2.125,-4.5625,-14.1875,0
13610,-0.4375,-3.9375,-15.3125,0
13630,-0.9375,-2.125,-14.75,0
13650,1.5,-1.5625,-14,0
13680,-1.125,-0.5,-15.5,0
13710,-3.25,8.75,-17.25,0
13740,-2.8125,9.8125,-16.25,0
13760,-5.625,15.4375,-13.875,0
13780,-2.9375,15.5,-14.5625,0
13800,-0.75,12.375,-15.5,0
13810,-1.1875,13.75,-24.75,0
13830,-4,17,-29.9375,0
13850,-1.25,19.75,-30.6875,0
13870,-2.5,22.8125,-29.5625,0
13890,-3.25,21,-23.6875,0
13910,-4.8125,20.625,-22.3125,0
13930,-7.625,23.0625,-21,0
13950,-10.4375,27.1875,-16.5,0
13970,-10.4375,29.3125,-12.875,0
13990,-7.5625,28.25,-9.625,0
14010,-8.6875,30.75,-11.1875,0
14030,-12.8125,33.5,-14.375,0
14050,-11.75,35.0625,-16.3125,0
14070,-10.5625,35.5,-15.5,0
14090,-10.4375,33.875,-11.625,0
14110,-10.9375,35.375,-14.8125,0
14130,-11.1875,35.625,-17.125,0
14150,-8.6875,34.1875,-19.6875,0
14170,-7.5625,31.25,-19.1875,0
14190,-8.5625,29.6875,-18.3125,0
14210,-9.75,28.9375,-18.3125,0
14230,-8.3125,29.1875,-20.75,0
14250,-6.5,28.1875,-24.9375,0
14270,-7.0625,27.875,-26.6875,0
14290,-5.5625,27.75,-29.5,0
14310,-4.25,28.875,-29.8125,0
14330,-4.8125,32.0625,-33.25,0
14350,-4.4375,35.6875,-34.75,0
14370,-3.0625,37.25,-35.4375,0
14390,-1.5,36,-33.4375,0
14410,-3.375,35.125,-30.9375,0
14430,-4.3125,35.375,-27.625,0
14450,-4.5,36.6875,-25.5,0
14470,-3.625,36.3125,-24,0
14490,-3.75,33,-20.8125,0
14510,-6.1875,29.125,-17.5625,0
14530,-8.0625,28.375,-15,0
14550,-7.625,29.0625,-12.375,0
14570,-4.5,27.375,-10.3125,0
14590,-6,28.5,-10.6875,0
14610,-6.6875,27.1875,-9.375,0
14630,-5.8125,28.125,-6.8125,0
14650,-4.4375,30.4375,-7.5,0
14670,-4.4375,30.3125,-10.25,0
14690,-1.75,27.8125,-6.75,0
14710,1.5,26.4375,-4.9375,0
14730,0.0625,25.625,-4.6875,0
14750,-1.3125,24.5625,-4.0625,0
14770,-0.8125,22.3125,-5.4375,0
14790,1.4375,19.0625,-3.875,0
14810,3.5,20.25,-3.0625,0
14830,3.9375,23.8125,-2.9375,0
14850,2.4375,22.5625,-3.625,0
14870,1.5,19.375,-1.5,0
14890,1.5,18.5,-1.875,0
14910,3.25,18.875,-3.125,0
14930,4,20.375,-4.3125,0
14950,3,22.3125,-1.375,0
14970,2.0625,22.875,0.75,0
14990,2.375,21.625,1.6875,0
15010,2.625,19.375,1.5625,0
15030,0.875,20.3125,2.6875,0
15050,-1.9375,19.875,6.0625,0
15070,-2.3125,19.5625,7.3125,0
15090,-0.6875,17.75,8.625,0
15110,-1.6875,15.4375,12.125,0
15130,-4.0625,16.625,12.75,0
15150,-6.0625,17.5625,11.4375,0
15170,-3.8125,16.375,12.6875,0
15190,-1.25,15.5,13.125,0
15210,1.9375,18,12.4375,0
15230,-0.6875,18.75,15,0
15250,-2.8125,21.125,14.375,0
15270,-2,16.0625,14.375,0
15290,1.125,13.875,13.0625,0
15310,0.875,14.125,14.125,0
15330,-0.8125,16.0625,13.875,0
15350,-0.5,15.3125,12.8125,0
15370,1.0625,14.625,13.875,0
15390,-1.8125,14.875,14.5,0
15410,-4.75,12.75,12.625,0
15430,-4.5625,8.6875,12.125,0
15450,-3.875,8.9375,11.625,0
15470,-3.1875,11.5625,12.125,0
15490,-3.9375,10.3125,14.75,0
15510,-4.6875,6.375,13.625,0
15530,-1.875,5.375,13.625,0
15550,-0.75,5.9375,14.4375,0
15570,-2.375,7.5,13.5625,0
15590,-3.125,7.3125,12.4375,0
15610,-3.625,3.9375,13.4375,0
15630,-3.8125,2.25,14.8125,0
15650,-4.1875,2.625,16.75,0
15670,-4.3125,3.75,17.4375,0
15690,-4.25,4,17.375,0
15710,-3.5,2.5625,16.75,0
15730,-2.8125,0.9375,16.6875,0
15750,-4,-0.875,17.6875,0
15770,-5.4375,-1.9375,16.4375,0
15790,-5.3125,-3.6875,16.25,0
15810,-4.6875,-3.75,15.9375,0
15830,-5.625,-4.8125,17.625,0
15850,-5.1875,-7.1875,19.375,0
15860,-5.8125,-6.9375,20.8125,0
15870,-6.375,-6.375,20.4375,0
15890,-2.625,-6.125,21.4375,0
15910,-0.6875,-6.125,19.875,0
15930,-1.25,-8,20.5625,0
15950,-1.5625,-10.9375,18.8125,0
15970,-1.5,-11.6875,19.1875,0
15990,-1.8125,-10.9375,18.4375,0
16010,-4.125,-12.375,18.625,0
16030,-5.125,-13.6875,17.9375,0
16050,-3.6875,-13.125,16.5625,0
16070,-2.8125,-13.0625,17.5,0
16090,-3.8125,-14.625,18.0625,0
16110,-4.75,-16.8125,15.9375,0
16130,-5.5,-19.0625,16.125,0
16150,-7.3125,-19.6875,15.5,0
16170,-4.625,-20.3125,13.25,0
16190,-2.4375,-21.375,13.0625,0
16210,-4.8125,-21.9375,13.375,0
16230,-7.375,-22.1875,15.8125,0
16250,-6.25,-21.75,16.5,0
16270,-3,-23.1875,16.5625,0
16290,-3.25,-23.5,15.3125,0
16310,-4.1875,-23.8125,14.375,0
16330,-1.3125,-25.875,14.6875,0
16350,-0.3125,-25.25,15.25,0
16370,-2.125,-24.0625,16.5,0
16390,-3.4375,-23.6875,16.875,0
16410,-3.5,-24.4375,17.1875,0
16430,-3.875,-25.125,17.5,0
16450,-2.4375,-25.375,16.6875,0
16470,-1.25,-26.625,16.4375,0
16490,-2.3125,-26.875,15,0
16510,-4.375,-27.125,14.875,0
16530,-5.875,-28.875,15.1875,0
16550,-7,-30.6875,15.875,0
16570,-6.25,-31.6875,14.375,0
16590,-5.375,-32,12.9375,0
16610,-4.3125,-32.5625,10.8125,0
16630,-2.75,-34.875,10.125,0
16650,-2.375,-37,9.6875,0
16670,-1,-36,8.875,0
16690,-1,-35.9375,8.625,0
16710,-4.1875,-37.375,8,0
16730,-9.1875,-40.0625,9.5625,0
16750,-9.875,-41.75,11.3125,0
16770,-7.125,-40.875,8.75,0
16790,-7.875,-41.5,8.3125,0
16810,-12.5625,-43.875,6.625,0
16830,-12.1875,-47.8125,3.5,0
16850,-7.25,-49.875,-0.3125,0
16870,-4.6875,-49.625,-2.6875,0
16890,-9.1875,-51.9375,-1.4375,0
16910,-12,-53.5625,-1.8125,0
16930,-9,-53.1875,-3.625,0
16950,-10.25,-53.3125,-3,0
16970,-12.1875,-51.4375,-4.5625,0
16990,-9.375,-48.9375,-8.0625,0
17010,-4.625,-48.75,-8.6875,0
17030,-1.375,-46.0625,-9.25,0
17050,0.125,-44.25,-9,0
17070,2.625,-43.875,-10.875,0
17090,5.8125,-43,-15.625,0
17110,6.0625,-43.125,-16.75,0
17130,2.3125,-43.125,-14.375,0
17140,-0.6875,-41.9375,-14.5,0
17160,-1.5,-38.5625,-14.9375,0
17180,-2.625,-37.4375,-16.625,0
17200,-1.8125,-36.75,-18.3125,0
17220,-0.3125,-35.8125,-18.25,0
17240,0.9375,-33.5625,-19.75,0
17260,0.8125,-31.0625,-19.25,0
17280,1.375,-28.8125,-20.5625,0
17300,4,-28.25,-22.5,0
17320,7.1875,-28.1875,-23.6875,0
17340,6.75,-28.125,-22.375,0
17360,4.6875,-27.1875,-20.9375,0
17380,2.0625,-24.125,-20.875,0
17400,0.9375,-22.5,-19.75,0
17420,1.125,-23.6875,-18.5625,0
17440,2.375,-25.25,-17.9375,0
17460,1.1875,-26,-15.25,0
17480,-1.4375,-22.3125,-16.3125,0
17500,-4.5625,-20.75,-13.5625,0
17520,-3.9375,-20.9375,-12.8125,0
17540,-2.75,-20.5,-15.4375,0
17560,-2.25,-19.875,-15,0
17580,-3.3125,-17.3125,-14.0625,0
17600,-3.8125,-16.75,-13.9375,0
17620,-4.6875,-15.0625,-15.3125,0
17640,-7.4375,-11.8125,-14.9375,0
17660,-6.9375,-9.375,-17.1875,0
17680,-6.3125,-8.9375,-18.9375,0
17700,-6.5625,-6.6875,-19.6875,0
17720,-8.875,-1.5625,-19.5,0
17740,-7.625,2.75,-22.5625,0
17760,-7.1875,2.75,-26.1875,0
17780,-10.9375,3.75,-25.8125,0
17800,-10.125,5.6875,-28.0625,0
17820,-9.4375,5.75,-28.625,0
17840,-9.25,6.0625,-29.0625,0
17860,-11.8125,6.3125,-29.8125,0
17880,-12.8125,6.875,-28.8125,0
17900,-12.4375,5.5,-29.75,0
17920,-12.6875,3.9375,-29.4375,0
17940,-14.4375,5.375,-28.6875,0
17960,-13.8125,7.9375,-27.625,0
17980,-14.8125,9,-26.875,0
18000,-13.3125,9.5625,-26.125,0
18020,-12.125,9.75,-27.625,0
18040,-11.875,8.3125,-26.5,0
18060,-12.5625,8.5625,-23.875,0
18080,-15.9375,10.125,-21.4375,0
18100,-15.8125,12.125,-19.375,0
18120,-14.3125,12.75,-19.4375,0
18140,-15,17.875,-16.3125,0
18160,-13.25,21.125,-17.6875,0
18180,-10.4375,20.375,-18.875,0
18190,-10.125,19.375,-20.875,0
18220,-9.375,22,-20.125,0
18240,-9.625,22.0625,-22.875,0
18260,-10.4375,21.75,-24.5,0
18280,-9.1875,23.75,-24.25,0
18300,-7.5,25.0625,-24.1875,0
18320,-9,26.75,-25.8125,0
18340,-10.0625,29.75,-26.875,0
18360,-9.625,31.5,-26.375,0
18380,-8.5625,32.375,-25.875,0
18400,-10.1875,32.875,-24.6875,0
18420,-11.875,36.375,-23.4375,0
18440,-12.8125,38,-21.9375,0
18460,-11.8125,38,-19.9375,0
18480,-11.6875,37.375,-22.1875,0
18500,-13.625,36.625,-20,0
18520,-14.375,37.25,-20.5,0
18540,-14.6875,39.4375,-18.75,0
18560,-14.625,40.5625,-15.5625,0
18580,-12.4375,40.5,-15,0
18600,-12.75,39.5625,-13.6875,0
18620,-15.25,38.25,-10.5,0
18640,-16.0625,39.9375,-7.75,0
18660,-13.875,39.8125,-7,0
18680,-11.5625,37.375,-6.625,0
18700,-11.5,34.5625,-5.625,0
18720,-13.625,35.5625,-2.25,0
18740,-15.8125,40.1875,2.6875,0
18760,-14.4375,46,8.125,0
18780,-11.375,41.25,4.4375,0
18800,-9.3125,34.875,6.3125,0
18820,-11.3125,35.6875,8.9375,0
18840,-15.0625,38.9375,14.5625,0
18860,-13.4375,40.4375,19.5,0
18880,-8.1875,38.125,15.8125,0
18900,-5.5625,35.4375,13.8125,0
18920,-7.875,37.1875,17.5625,0
18940,-11.8125,38.3125,19.25,0
18960,-9.5625,32.375,17.1875,0
18980,-4.25,24,14.625,0
19000,-4.75,22.6875,13.75,0
19020,-11.875,25.0625,15.75,0
19030,-15.3125,20.5625,17.5625,0
19050,-12.875,14.625,19.125,0
19070,-8.875,14.875,18.5625,0
19090,-9.1875,14.625,18.3125,0
19110,-11.625,11.6875,18.5625,0
19130,-11.5,9.6875,16.375,0
19150,-8.0625,10.5625,15,0
19170,-7.25,10.25,15.625,0
19190,-7,9,14.25,0
19210,-6.0625,6.8125,13.9375,0
19230,-6.375,6.1875,13.875,0
19250,-7.75,12.0625,14.6875,0
19270,-7,12.875,17.125,0
19290,-3.1875,11.5625,12.9375,0
19310,1.3125,8.5625,11.8125,0
19330,-0.0625,7.5625,13.875,0
19350,-6.75,9.125,15.5625,0
19370,-11.625,7.125,18.375,0
19390,-9,5.25,16.6875,0
19410,-4.5625,3.75,16.375,0
19430,-7.25,4.625,18.75,0
19450,-14.25,5.5625,21.0625,0
19470,-15.8125,4.0625,23,0
19490,-11.9375,4.125,23.8125,0
19510,-7.625,6,24.5625,0
19530,-8.375,7.0625,23.125,0
19550,-11.5,4.9375,24.5,0
19570,-13,1.875,23.5,0
19580,-10.5,2.4375,21.1875,0
19600,-6.5625,5.4375,20.75,0
19610,-7.625,5.5625,22.5,0
19630,-7.6875,3.5,22.875,0
19640,-3.1875,2.375,20.5625,0
19660,0.8125,2.8125,18.625,0
19680,-1,4.3125,19.3125,0
19700,-2.375,3.75,18.4375,0
19720,0.0625,0.75,17.4375,0
19740,1.9375,-0.875,17.375,0
19760,-0.3125,-0.875,16.6875,0
19780,-3.125,-2.5625,18.3125,0
19800,-4.5625,-4.375,17,0
19820,-5.3125,-5.6875,16.1875,0
19840,-7.625,-5.4375,17.125,0
19860,-8.6875,-4.9375,17.75,0
19880,-8.8125,-6.625,18.1875,0
19900,-8.75,-7.1875,18.125,0
19920,-9.0625,-6.6875,20.1875,0
19940,-7,-3.875,19.9375,0
19960,-3.0625,-4.75,18,0
19980,-1.75,-9.75,17.5,0
20000,-3.3125,-11.6875,16.25,0
20020,-6.375,-11.25,15.875,0
20040,-10.8125,-10.8125,16.6875,0
20060,-10.0625,-12.8125,15.5,0
20080,-6.1875,-13.8125,15.75,0
20100,-3.375,-13.5,15.0625,0
20120,-5.375,-13.5625,16.375,0
20140,-9.1875,-15.4375,16.75,0
20160,-10.25,-18.1875,16.0625,0
20180,-7.625,-20.25,15.3125,0
20200,-2.125,-19.125,14.1875,0
20220,1.1875,-18.625,13.3125,0
20240,0.4375,-20.125,12.125,0
20260,-0.625,-20.8125,10.9375,0
20280,0.3125,-22.4375,10.625,0
20300,-2.375,-23.125,9.875,0
20320,-6.4375,-24.9375,10.4375,0
20340,-5.5,-27.25,9.75,0
20360,-1.25,-27.6875,8.0625,0
20380,3.8125,-28.4375,5.75,0
20400,5.75,-31.5,5.6875,0
20420,4.125,-33.1875,5.5,0
20440,0.4375,-34.4375,6.8125,0
20460,-0.4375,-33.375,6.375,0
20480,0.3125,-33.25,6.5,0
20500,0.9375,-33.4375,4.6875,0
20520,4.8125,-37.125,3.6875,0
20540,8,-39.0625,2.4375,0
20560,5.9375,-38.3125,1.8125,0
20580,3.625,-36.3125,0.6875,0
20600,2.3125,-38.9375,-0.1875,0
20620,0.375,-40.5,-1.0625,0
20640,1.125,-41.25,-2.3125,0
20660,2.1875,-43.4375,-2.5625,0
20680,-1,-43,-4.8125,0
20700,-4.875,-40.5625,-5.5625,0
20720,-3.4375,-40.0625,-6.6875,0
20740,1.875,-41.625,-7.625,0
20760,6.375,-43.4375,-9,0
20780,8.375,-42.5625,-10.3125,0
20800,6.75,-40.75,-11.625,0
20820,1.1875,-40.5,-11.9375,0
20840,-3.6875,-41.5,-12.5,0
20860,-1.125,-41.25,-15.0625,0
20880,7.625,-40.0625,-18.25,0
20900,11.875,-40.125,-19.6875,0
20920,10.8125,-36.875,-20.875,0
20940,9.9375,-35.5625,-21.25,0
20960,11.9375,-36.125,-22.25,0
20980,13.75,-36.5625,-23.625,0
21000,12.3125,-36.25,-23.5,0
21020,10.5625,-33.4375,-24.0625,0
21040,8.6875,-33.0625,-24.0625,0
21060,5,-34.125,-22.8125,0
21080,3.1875,-33.3125,-22.625,0
21100,5.0625,-33.1875,-22.875,0
21120,4.4375,-31.0625,-20.3125,0
21140,3.375,-29.8125,-20.4375,0
21160,2.8125,-29.6875,-20.1875,0
21180,3.5,-29.3125,-21.625,0
21200,2.5,-28.375,-22.4375,0
21220,2.5625,-25,-24.6875,0
21240,5.875,-24.625,-26.25,0
21260,3.9375,-25.75,-25.4375,0
21280,1.875,-26.9375,-24,0
21300,2.375,-25.0625,-27.1875,0
21320,4.1875,-23.75,-29.1875,0
21340,3.0625,-26.6875,-27.0625,0
21360,2.5,-26,-27.625,0
21380,1.5,-24.375,-26.875,0
21400,2.9375,-22.5,-24.375,0
21420,1.8125,-20.5625,-24.75,0
21440,1.1875,-20.625,-22.875,0
21460,-0.375,-18.25,-23,0
21480,-1.375,-16.3125,-22.4375,0
21500,-0.1875,-17.4375,-21.5625,0
21520,-1.6875,-15.9375,-23.5,0
21540,-3.1875,-11.75,-24.8125,0
21560,-2.3125,-10.5625,-25,0
21580,-0.75,-10.3125,-25.625,0
21600,-1.3125,-8.375,-26.4375,0
21620,-3.9375,-6.5,-24.375,0
21640,-4.25,-4.9375,-23.8125,0
21660,-4.375,-3.6875,-24.875,0
21680,-4.9375,-0.5,-27,0
21700,-8.125,0,-25.6875,0
21720,-8.8125,0.8125,-22.5625,0
21740,-8.25,3.5,-25.25,0
21760,-8.5625,5.125,-24.4375,0
21780,-6.4375,4.375,-25.5,0
21800,-5.5,4.6875,-26.75,0
21820,-7.9375,9.0625,-24.5625,0
21840,-7.5625,12.5625,-21.875,0
21860,-5.6875,9.625,-23.6875,0
21880,-7.625,8.4375,-24.875,0
21900,-13.0625,8.375,-25.4375,0
21920,-14.3125,9.25,-25.125,0
21940,-12.125,12.0625,-26.5,0
21960,-11.8125,11.6875,-26.5,0
21980,-13,13.6875,-26.5,0
22000,-14.5625,18.625,-26.4375,0
22020,-14.8125,20.375,-25.75,0
22040,-13.8125,23.125,-25.125,0
22060,-14.75,27,-27.375,0
22080,-17.125,27.9375,-28,0
22100,-17.0625,28.125,-28.875,0
22120,-15.9375,27.8125,-28.0625,0
22140,-16.3125,28.625,-29.3125,0
22160,-16,28.5625,-29.5,0
22180,-16.625,30.0625,-29.1875,0
22200,-18.75,30.75,-27.625,0
22220,-18.375,28.8125,-26.0625,0
22240,-17.5625,29.25,-25.625,0
22260,-19.25,30.5,-24.9375,0
22280,-20.3125,32.5,-22.3125,0
22300,-18.1875,34.4375,-19.0625,0
22320,-15.5625,35.0625,-20,0
22340,-18.5625,35.3125,-19.125,0
22360,-19.5625,36.5,-17.3125,0
22380,-18.4375,37.8125,-12.6875,0
22400,-16.6875,39.1875,-10.8125,0
22410,-16.5625,40.625,-6.5625,0
22430,-16.5625,40.75,-4.5,0
22450,-15.3125,41.75,0.0625,0
22470,-14.625,45.1875,5.9375,0
22490,-12.875,48,9.625,0
22510,-11.125,44.8125,11.625,0
22530,-8.1875,40.6875,12.625,0
22550,-8.875,38.3125,13.75,0
22570,-11.25,39.4375,17.875,0
22590,-10.625,37.3125,23.875,0
22610,-6.125,34.375,23.3125,0
22630,-6.3125,34.25,20.875,0
22650,-12.6875,37.125,23.6875,0
22670,-16.0625,37.125,24.3125,0
22690,-13.4375,32.1875,22.1875,0
22710,-7.625,28.6875,18.5625,0
22730,-7.875,29.8125,20,0
22750,-11.5625,32,23.375,0
22770,-13.3125,30.5,22.8125,0
22790,-11.8125,27.1875,23,0
22810,-10.1875,27.0625,22.75,0
22830,-13.25,27.3125,27.25,0
22850,-12.5625,25.5625,29.5625,0
22870,-8.875,25.5625,27.6875,0
22890,-8.6875,26.0625,29.375,0
22910,-13.9375,27.75,32.0625,0
22930,-14.75,27.125,31.9375,0
22950,-12,21.125,29.4375,0
22970,-9.625,20.75,27,0
22990,-14.125,25.1875,30.1875,0
23010,-17.0625,24.5625,31.1875,0
23030,-12.625,20,26.9375,0
23050,-6.625,19.1875,23.75,0
23070,-4.9375,21.8125,23.9375,0
23090,-6.6875,21.5,23.5,0
23110,-7.0625,15,21.1875,0
23130,-6.625,12.25,18.3125,0
23150,-7.75,12.9375,18.6875,0
23170,-10.25,11.75,22.4375,0
23190,-12.3125,7.5625,20.875,0
23210,-12.8125,6.1875,18.4375,0
23230,-15.0625,8.75,22.25,0
23250,-18,11.125,25.125,0
23270,-18.4375,10.5625,25.1875,0
23290,-14.4375,5.875,24.5625,0
23310,-10,5.75,23.5625,0
23330,-13.9375,7.75,26.25,0
23350,-26.5,2.5,28.6875,0
23370,-32.25,-5.9375,23.9375,0
23390,-25.75,-9.5625,16.625,0
23410,-24.6875,-7.875,18.1875,0
23430,-34.6875,-3.5625,25.1875,0
23450,-47.5625,-4.5625,24.5,0
23470,-51.5,-7.4375,24.8125,0
23490,-44.8125,-8.5625,26.5,0
23510,-33.375,-8.75,25.875,0
23530,-25.4375,-8.875,21.9375,0
23550,-23.8125,-10.1875,19.5,0
23570,-24.3125,-10.8125,17,0
23590,-21.4375,-13.75,15.3125,0
23610,-14.1875,-13.75,13.625,0
23630,-10.0625,-13.375,13.125,0
23650,-8.3125,-12.25,12.4375,0
23670,-8.0625,-13.375,12.9375,0
23690,-11.5,-13.9375,13.0625,0
23710,-18.75,-16.625,15.1875,0
23730,-22.4375,-18.125,14,0
23750,-29.75,-18.75,14.8125,0
23770,-36.6875,-20.375,16.0625,0
23790,-36.1875,-20.125,13.4375,0
23810,-26.1875,-21,9.5625,0
23830,-13.75,-23.375,5.875,0
23850,-8.75,-25.0625,5.0625,0
23870,-6.6875,-23.1875,4.9375,0
23890,-2.6875,-23.1875,5.3125,0
23910,0.5,-24.9375,5.3125,0
23930,2.4375,-24.4375,4.5625,0
23950,5.375,-27.8125,4.625,0
23970,5.125,-29.5,4.8125,0
23990,-0.5625,-27.5625,6.5,0
24010,-5.25,-27.3125,6,0
24030,-4.875,-29.0625,4.1875,0
24050,-0.9375,-31.8125,2.625,0
24070,-0.75,-33.8125,0.9375,0
24090,-4.8125,-34.6875,-1.125,0
24110,-5.625,-31.9375,-3,0
24130,-6.1875,-32.0625,-4.0625,0
24150,-3.9375,-33.5,-6.5625,0
24170,0.1875,-34,-7.1875,0
24190,0.9375,-33.8125,-6.3125,0
24210,-1.25,-30.4375,-3.5625,0
24230,-3.1875,-28.125,-2.8125,0
24250,-3.875,-27.5,-2.75,0
24270,-3.625,-28.6875,-3.5625,0
24290,0.125,-30.125,-5.6875,0
24310,4.9375,-31.25,-8.1875,0
24330,6.375,-28.875,-10.0625,0
24350,3.4375,-24.875,-10.875,0
24370,-1.375,-25,-10.375,0
24390,-0.75,-24.0625,-12,0
24400,4.0625,-24.375,-13.375,0
24420,3.875,-26.75,-14.75,0
24440,1.25,-26,-16.5625,0
24460,0.8125,-26.25,-17.3125,0
24480,-0.1875,-27.1875,-19.375,0
24500,-1.3125,-30.5,-20.8125,0
24520,-2.25,-33.125,-21.25,0
24540,-2.5,-33.4375,-22.8125,0
24560,-4.5625,-33.5,-23.5625,0
24580,-6.25,-33.1875,-24,0
24600,-6.1875,-33.8125,-25.125,0
24620,-2.75,-36.375,-26.875,0
24640,3.75,-38.75,-30.5625,0
24660,3.8125,-40.4375,-33.0625,0
24680,-2.3125,-38,-33.4375,0
24700,-7.3125,-36.1875,-32.8125,0
24720,-9.5625,-37.5,-33.625,0
24740,-4,-38.1875,-37.4375,0
24760,6.5625,-37.875,-42.5625,0
24780,10.0625,-35.6875,-44.8125,0
24800,7.125,-31.1875,-43.125,0
24820,7.25,-27.5,-41.6875,0
24840,12.6875,-30.9375,-42.8125,0
24860,12.75,-31.8125,-45.5625,0
24880,6.875,-27.6875,-43.1875,0
24900,0.375,-26.875,-36.25,0
24920,-4.75,-30.375,-32.3125,0
24940,-4,-30.125,-34.875,0
24960,-0.125,-24.875,-40.4375,0
24980,1,-21.625,-40.5625,0
25000,2.3125,-21.125,-39,0
25020,8.9375,-21.5,-40.5625,0
25040,12.625,-21.5,-42.5,0
25060,10.375,-18.6875,-43.8125,0
25080,4.0625,-14.9375,-39.875,0
25100,2,-12.4375,-37,0
25120,6.25,-12.1875,-37.75,0
25140,11.875,-10.4375,-39.875,0
25160,9.125,-6.9375,-40.4375,0
25180,3.9375,-1.8125,-39.75,0
25200,6.6875,0.625,-37.25,0
25220,12.75,2.5,-39.4375,0
25240,14.6875,3.75,-41.8125,0
25260,15,7.375,-44.5,0
25280,11.0625,10.5,-45.875,0
25300,10.5,12.875,-43.125,0
25320,15.1875,15.5,-39.25,1001
25340,21.4375,19.3125,-42.9375,0
25360,20.25,20.75,-44.9375,0
25380,15.375,20.125,-40.375,0
25400,15.875,22.4375,-38.1875,0
25420,15.0625,21.125,-36.4375,0
25440,13.875,19.1875,-31.0625,0
25460,10.75,16.5625,-25.75,0
25480,9.5,15.6875,-20.5625,0
25500,7.4375,14.625,-15.375,0
25520,3.375,9.625,-7.5625,0
25540,-1.1875,6.4375,0.9375,0
25560,-2.5625,5.5625,8.6875,0
25580,-2.25,5.75,12.6875,0
25600,-4.1875,1.125,12.5625,0
25620,-5.75,3.625,15.125,0
25640,-4.125,13.0625,23.8125,0
25660,-1.25,25.75,17.5625,0
25680,-10.6875,28.25,14.125,0
25700,-10.75,33.4375,15.5,0
25720,-2.375,40.4375,12,0
25740,-1.625,48.1875,14.5,0
25760,-11.5,53.5,23.25,0
25780,-21.0625,58.5,35.5,0
25800,-15,70.0625,34.1875,0
25820,-10.9375,78,28.8125,0
25840,-18.625,79,33.4375,0
25860,-31.6875,77.75,36.125,0
25880,-37.8125,76.9375,38.9375,0
25900,-36.75,75.4375,42.4375,0
25920,-42.9375,67.125,42.4375,0
25940,-52,58.875,44.25,0
25960,-61.625,63.625,49.75,0
25980,-57.75,72,61.375,0
26000,-45.875,70.375,58.5,0
26020,-40.25,64.375,56.8125,0
26040,-34.125,63.375,66.875,0
26060,-34.25,77.375,82.75,0
26080,-49.6875,85.375,106.312,0
26100,-51.5,89.25,119.5,0
26120,-37.75,91.0625,129.5,0
26140,-7.0625,105.875,131.5,0
26160,9,121.5,129.562,0
26180,4.125,122.625,139.812,0
26200,9,118.562,160,0
26220,25.125,126.812,162.875,0
26240,40.1875,129.438,144.75,0
26260,27.5625,123.812,130.062,0
26280,17.625,114.688,124.875,0
26300,28.4375,111.688,135.188,0
26320,49,112.938,145,0
26340,36.5625,110.125,131.938,0
26360,11.8125,97.625,124.062,0
26380,-14.8125,77.6875,135.125,0
26400,-12,59.75,150.625,0
26420,-10.5625,59.125,162.625,0
26440,-19.625,62.3125,157.375,0
26460,-25.6875,53.25,151.5,0
26480,-19.8125,46,152.625,0
26500,-0.8125,50.1875,141.438,0
26520,11.6875,57.4375,122.312,0
26540,14.375,46.8125,114.625,0
26560,15.25,34.625,113.438,0
26580,13.8125,28.8125,112.812,0
26600,11.6875,17.25,93.9375,0
26620,0.1875,3.125,74.625,0
26640,-11.9375,-9.375,77.25,0
26660,-25.125,-19.9375,69.1875,0
26680,-37.75,-30.875,62.25,0
26700,-38.9375,-41.6875,59.75,0
26750,-29.375,-54.5,48.1875,0
26770,-27.3125,-61,48.875,0
26790,-35.9375,-58.375,43.625,0
26810,-42,-56.5625,40.125,0
26830,-42.25,-52.75,43.375,0
26850,-35.75,-50.875,48.4375,0
26870,-40.5625,-44.8125,54.4375,0
26890,-57.6875,-30.125,49.625,0
26910,-66.3125,-27.375,38.9375,0
26930,-56.9375,-28.4375,38.5625,0
26950,-49.125,-24.6875,33.5625,0
26970,-41.9375,-28.25,36,0
26990,-41,-25.125,34.25,0
27010,-41.875,-19.4375,37,0
27030,-43.4375,-12.5,44.5625,0
27040,-43.1875,-7.75,45.3125,0
27070,-43.8125,-7.625,38.8125,0
27090,-46.6875,-5.875,34.9375,0
27110,-45.9375,-8.5625,25.9375,0
27130,-48.625,-13.375,25.25,0
27150,-46.25,-14.25,18.875,0
27170,-23.625,-9.5625,6.375,0
27190,-2.3125,-1.8125,-5.25,0
27210,4.1875,3.1875,-7.1875,0
27230,7.4375,5.3125,-6.625,0
27250,7.0625,4.5625,-4,0
27270,2.6875,2.6875,-1.9375,0
27290,-1.75,0.3125,-1.875,0
27310,-3.3125,-0.25,-0.875,0
27330,-2.5625,0.25,0,0
27350,-1.125,0.1875,-1.75,0
27360,-0.625,-0.0625,-3.1875,0
27380,0.6875,-0.0625,-3.875,0
27400,1,-0.125,-3.875,0
27410,-1.125,-0.75,-2.0625,0
27430,-2.5,-1.3125,0.25,0
27450,-3.75,-1.25,1.0625,0
27470,-3.9375,-1.375,0.9375,0
27490,-2.4375,-0.75,0.625,0
27510,-0.3125,0.125,0.5625,0
27530,0.9375,0.5625,-0.1875,0
27550,2.4375,0.9375,-1.125,0
27570,2.4375,0,-1.375,0
27590,-1.1875,-0.9375,0.6875,0
27610,-3.4375,-1.5625,1.8125,0
27630,-2.4375,-1.5625,1.375,0
27650,-0.125,-2,-0.375,0
27670,3,-1.5625,-3.5,0
27690,6.375,-3.75,-7.25,0
27710,11.5,-14,-12.375,0
27730,15.4375,-19.1875,-19.1875,0
27750,30.25,-26.3125,-43.625,0
27770,47,-33.9375,-74.6875,0
27790,50.8125,-35.3125,-91.375,0
27810,46.4375,-35.375,-100.875,0
27820,23.75,-39.75,-125.562,0
27840,-0.5625,-57.1875,-154.25,0
27860,-11.6875,-73,-162.125,0
27880,-6.4375,-77.5625,-168.688,0
27900,6.375,-78.25,-173.312,0
27920,12.4375,-74.9375,-175.438,0
27940,2.9375,-71.5625,-171.125,0
27960,-12.5625,-71.5,-163.312,0
27980,-26.25,-69.5,-149.938,0
28000,-26.9375,-60.125,-137.75,0
28020,-16.9375,-53,-125.562,0
28040,-4.875,-47.25,-106.375,0
28060,1.9375,-41.125,-88.9375,0
28080,1.5625,-36.1875,-70.375,0
28100,-3.375,-30.875,-54.4375,0
28120,-6.25,-19.8125,-40.375,0
28140,-12.75,-13.4375,-26.9375,0
28160,-13.75,-13.4375,-20.8125,0
28180,-11.375,-18.8125,-27.375,0
28200,-6.3125,-28.375,-30.6875,0
28220,-8.9375,-35.3125,-29.375,0
28240,-17,-43,-22,0
28260,-22.4375,-45.125,-27.5625,0
28280,-18.375,-44.8125,-32.25,0
28300,-15.0625,-46,-26.625,0
28320,-12.0625,-44.875,-20.3125,0
28340,-12.5625,-41,-19.875,0
28360,-16.6875,-38.375,-19.0625,0
28380,-17.4375,-33.9375,-16.4375,0
28400,-16.0625,-28.1875,-8.6875,0
28420,-15.4375,-26.6875,0.6875,0
28440,-14.625,-24.0625,3.375,0
28460,-12.4375,-20.75,4.5,0
28480,-10.1875,-17.9375,5.0625,0
28500,-13.5,-14.9375,13.5625,0
28520,-15.0625,-14.0625,15,0
28540,-16.5625,-14.375,16.375,0
28560,-18.1875,-12.4375,15.6875,0
28580,-17.5,-10.0625,14.3125,0
28600,-13.0625,-10.375,16.9375,0
28620,-11.375,-9.25,18.5625,0
28640,-9.125,-3.625,14.9375,0
28660,-3,-1.75,8.875,0
28680,6.5,-3.5,2.75,0
28750,-6.5625,-2.9375,5.5625,0
28760,-6.5,-3,3.4375,0
28780,-2.1875,-1.9375,4.25,0
28800,1.125,0.4375,3,0
28820,1.4375,2.1875,1.9375,0
28840,2.4375,2.625,-0.1875,0
28860,5.1875,2.6875,-0.9375,0
28880,2.5,1.9375,0.0625,0
28900,0.5625,-0.8125,0.9375,0
28920,0.375,-2,1.0625,0
28950,3.4375,-1,-4.5,0
28970,2.1875,-1.1875,-3.125,0
28990,1.5,0.875,-2.3125,0
29030,5.875,2.125,-1.4375,0
29050,9.375,1.5625,-1.8125,0
29070,7.8125,-0.0625,-0.1875,1000
29090,1.5,0.25,5,0
29140,-1.1875,-3.375,1.875,0
29160,4,-5.625,-0.4375,0
29180,2.8125,-7.5625,-1.875,0
29200,-1.0625,-7.3125,-0.75,0
29220,-2.75,-5.625,-0.9375,0
29250,2.125,-6.9375,-3.4375,0
29280,0.125,-5.1875,-0.4375,0
29330,0.9375,-5.3125,-1.4375,0
29350,7.5625,-5.8125,-2.5,0
29370,6.625,-3.875,-2.6875,0
29390,-0.8125,-5.375,-1.1875,0
29410,-3.9375,-6.9375,-0.75,0
29430,-1.0625,-6.4375,-5.3125,0
29450,1.625,-7.125,-4.6875,0
29470,-0.0625,-6.625,-3,0
29490,-1.3125,-6.875,-4.5,0
29510,-0.125,-7.5625,-4.125,0
29530,-0.75,-6.5625,-5.125,0
29570,0.5625,-6.5,-3.9375,0
29610,-1.9375,-5,-4.0625,0
29630,-0.4375,-5.1875,-5.4375,0
29640,1.875,-6.1875,-5.5625,0
29660,2.9375,-7.1875,-6.375,0
29680,1.625,-8.3125,-5.5,0
29700,0.3125,-9.5625,-4.875,0
29720,0.25,-13.0625,-5.8125,0
29740,4.3125,-14.125,-8.3125,0
29780,0.3125,-17.25,-5.875,0
29800,2.875,-21.375,-9.375,0
29820,2.5,-22.6875,-9,0
29840,1.9375,-22.8125,-8.8125,0
29860,2.4375,-23.8125,-9.375,0
29880,-0.375,-27.125,-10.25,0
29900,-0.8125,-29.125,-12.0625,0
29920,1,-30.6875,-14.1875,0
29940,2.0625,-30.25,-14.5625,0
29960,-2.75,-28.3125,-11.75,0
29980,-2.875,-26.125,-11.375,0
30000,2.0625,-25.25,-16.5625,0
30020,3.9375,-25.0625,-16.25,0
30040,-0.875,-20.9375,-13.5625,0
30060,-2.625,-16.4375,-13.5,0
30080,3.0625,-14.625,-15.5625,0
30100,4.5625,-14.625,-14.9375,0
30120,2.9375,-13.8125,-12.6875,0
30130,-1.5,-9.1875,-9.1875,0
30160,0.6875,-6,-12.5,0
30180,3.9375,-3.0625,-15.625,0
30190,5.375,3,-17.1875,0
30220,3.9375,11.625,-23.5,0
30230,1.25,17,-24.4375,0
30250,2.375,17.625,-25.125,0
30270,3.25,15.875,-25.6875,0
30290,1.375,16.875,-26.25,0
30310,-1.75,18.875,-25.4375,0
30330,-2.875,18.125,-25,0
30350,-2.75,15.6875,-23.75,0
30370,-0.6875,15.6875,-25.1875,0
30390,-2.5625,16.5,-25.0625,0
30410,-5.75,18.125,-24.875,0
30430,-5.25,20.6875,-24.875,0
30450,-3.75,19.25,-26.1875,0
30470,-2.5,15.3125,-25.375,0
30490,-4.9375,14.875,-24.75,0
30510,-8,17.25,-23.625,0
30530,-9.1875,20.1875,-21.75,0
30550,-6.3125,20.5,-21.75,0
30570,-5.6875,21.5,-22.9375,0
30590,-6.125,23.5625,-24.4375,0
30610,-6.4375,24.8125,-25.375,0
30630,-7.625,25.6875,-26.1875,0
30650,-7.4375,26.125,-26.5,0
30670,-7.25,25.5625,-26.0625,0
30690,-8.0625,26.1875,-25.9375,0
30710,-9.125,28.3125,-25.875,0
30730,-9.625,28.8125,-25.5625,0
30750,-9.5,27.875,-24.4375,0
30770,-9.6875,28.9375,-24.6875,0
30790,-9.5625,30.4375,-25.4375,0
30810,-9.125,31.375,-26.3125,0
30830,-7.5625,30.5625,-26,0
30850,-7.875,30.875,-25.8125,0
30870,-8.8125,30.75,-25.5,0
30890,-8.5625,30.3125,-25.375,0
30910,-7.25,28.75,-23.25,0
30930,-7.4375,27,-21.1875,0
30950,-8.6875,27.75,-18.1875,0
30970,-8.875,29.4375,-16.6875,0
30990,-9.5,30.375,-13.625,0
31010,-11.0625,29,-11.4375,0
31030,-9,27.1875,-8.875,0
31050,-6.125,27.125,-8.125,0
31070,-5.6875,28.5625,-10,0
31090,-7.75,30.1875,-7.9375,0
31110,-9,29.3125,-6.875,0
31130,-8.5,26,-4.4375,0
31150,-5.4375,23.4375,-3.5,0
31170,-3.6875,24.625,-3.75,0
31190,-6.6875,27.375,-3.125,0
31210,-9.5625,25.75,-2.3125,0
31230,-9,23.3125,0.125,0
31250,-5.6875,22.75,-0.1875,0
31270,-5.25,23.8125,0,0
31290,-9.375,25.9375,0.375,0
31310,-11.0625,26.1875,-0.8125,0
31330,-9.125,23.1875,-0.9375,0
31350,-6.3125,21.3125,1.4375,0
31370,-5.4375,23.6875,1.8125,0
31390,-7.625,26.375,-2.875,0
31410,-5.9375,22.875,-4.125,0
31430,-4.625,18,-1.75,0
31450,-3.6875,18.6875,0.4375,0
31470,-5.5,22.0625,1.4375,0
31490,-5.9375,22.875,-0.5,0
31510,-3.25,19.375,0.0625,0
31530,-0.0625,16.8125,1.875,0
31550,-1.75,17.1875,4.6875,0
31570,-5.875,18.6875,6.9375,0
31590,-8.5,15.6875,4.6875,0
31610,-7.9375,9.0625,4.875,0
31630,-5.75,6.125,6,0
31650,-7.3125,8.625,9.25,0
31670,-11.875,10.125,12.9375,0
31690,-13.75,10.25,14.3125,0
31710,-12.25,10.1875,14.875,0
31730,-10.1875,11.4375,16.25,0
31750,-9.1875,13.1875,18.125,0
31770,-10.5625,15.1875,18.75,0
31790,-11.125,12.375,18,0
31810,-7.5625,9.9375,16.4375,0
31830,-6.0625,11.625,16.0625,0
31850,-8.9375,14.8125,18.8125,0
31890,-1,11.5625,20.4375,0
31910,-4.0625,16.125,21.5625,0
31930,-7.6875,15.3125,21.875,0
31950,-4.9375,11.25,21.75,0
31970,-1.3125,10.3125,20.9375,0
31990,-3.6875,12.125,21.5,0
32010,-9.125,12.625,22,0
32030,-9.6875,9.5,21.5625,0
32050,-7.3125,9.0625,21.3125,0
32070,-7.1875,9.875,20.6875,0
32090,-7.5,7.4375,20.875,0
32110,-5.5,4.625,20.0625,0
32130,-3.625,6.9375,18.625,0
32150,-6.875,9.1875,19.9375,0
32170,-8.8125,7.8125,21,0
32190,-7,4.5625,20.125,0
32210,-3.875,3.5,20,0
32230,-2.25,5.25,18.9375,0
32250,-4.6875,4.9375,18.4375,0
32270,-6.8125,2.25,17.6875,0
32290,-7.1875,-1.3125,17.3125,0
32310,-6.1875,-2.0625,15.75,0
32330,-6.375,-2.4375,15.1875,0
32350,-6.5,-4.1875,15.25,0
32370,-5.8125,-6.4375,14.75,0
32390,-5.375,-8,14.4375,0
32410,-5.5,-7.3125,13,0
32430,-6.8125,-7.75,13.1875,0
32450,-6.875,-10.125,12.6875,0
32470,-4.5,-11.375,11.4375,0
32490,-1.4375,-10.3125,10.6875,0
32510,-3.375,-9.5,13.8125,0
32530,-5.9375,-12.0625,14.9375,0
32550,-5.75,-14.0625,15.0625,0
32570,-6.125,-14.8125,15.8125,0
32590,-8.25,-14.8125,15.625,0
32610,-7.125,-16.1875,14.75,0
32630,-5.3125,-17.5625,12.9375,0
32650,-3.5625,-19.3125,11.875,0
32670,-3.5,-19.125,11.875,0
32690,-4.625,-18.5,12,0
32700,-6.0625,-19.1875,13.0625,0
32720,-7.625,-18.9375,14.0625,0
32740,-8.25,-18.3125,14.875,0
32760,-6.4375,-19.0625,14.375,0
32780,-3.5,-20.625,12.5,0
32800,-4.5,-22,12.5,0
32820,-6,-23.125,11.375,0
32840,-4.8125,-25.8125,10.625,0
32860,-2.4375,-26.1875,9.1875,0
32880,-3.8125,-28,8.9375,0
32900,-4.9375,-30.625,8.9375,0
32920,-7.1875,-33.375,9.75,0
32940,-9.625,-34.375,8.875,0
32960,-10.3125,-36,6.9375,0
32980,-6.625,-37.625,5.75,0
33000,-5.25,-39.25,5.9375,0
33020,-7.0625,-40.25,6.5625,0
33040,-8.0625,-41.25,7.375,0
33060,-8.5,-39.8125,6.1875,0
33080,-8.0625,-39.1875,4.4375,0
33100,-6.4375,-41.3125,4.5,0
33120,-2.5,-43.0625,3.875,0
33140,0.4375,-40.9375,2.3125,0
33160,0.25,-37.375,1,0
33180,-1.5,-38.5625,1.1875,0
33200,-2.3125,-40.6875,1.0625,0
33220,-0.3125,-39.75,-2.5,0
33240,0.75,-40,-3.75,0
33260,-2,-40.625,-1.6875,0
33280,-3.5,-41.625,-0.375,0
33300,-3.5,-41.9375,-1.5625,0
33320,-4.3125,-40.8125,-3.4375,0
33340,-8.4375,-40.5625,-2.5625,0
33360,-7.625,-41.875,-5.4375,0
33380,-0.375,-44.9375,-8.75,0
33400,3.125,-45.5625,-8.25,0
33420,0.0625,-43.25,-8,0
33440,-4,-42.9375,-7.875,0
33460,-5.6875,-44.625,-8.5625,0
33480,-5.5,-45.4375,-10.0625,0
33500,-3.3125,-45.6875,-11.1875,0
33520,-0.375,-44.5625,-12.125,0
33540,1.5,-44.5,-13.875,0
33560,1.0625,-45.125,-12.125,0
33580,1.6875,-43.1875,-13.5625,0
33600,4.75,-42.5625,-16.5,0
33620,4.9375,-43.5,-16.125,0
33640,-0.875,-41.6875,-15.5,0
33660,-2,-40.3125,-17.5,0
33680,0.75,-43.625,-16.125,0
33700,2.8125,-43.125,-17.875,0
33720,1,-42.625,-15.8125,0
33740,-2.875,-42.875,-15.25,0
33760,-3.4375,-42.0625,-16.75,0
33780,-3.1875,-40.75,-15.5625,0
33800,-4.9375,-39.625,-12.625,0
33820,-3.5,-36.5625,-15.375,0
33840,1.875,-36.875,-17.375,0
33860,3.9375,-35.8125,-16.5,0
33880,0.4375,-33.0625,-16.875,0
33900,-4.125,-29.75,-16.9375,0
33920,-0.6875,-27.25,-17.1875,0
33940,3.75,-25.9375,-19.5625,0
33960,1.375,-24.4375,-18.6875,0
33980,-5.25,-21.5625,-18.4375,0
34000,-4.6875,-20.25,-19.0625,0
34020,-1.6875,-18.9375,-21.5625,0
34040,-1.9375,-17.375,-22.875,0
34060,-6.75,-13.875,-22.8125,0
34080,-8.125,-13.5,-22.9375,0
34100,-6.0625,-12.9375,-24.1875,0
34120,-5.1875,-10.1875,-24.6875,0
34140,-5.8125,-7.6875,-25.25,0
34160,-6.6875,-6,-24.4375,0
34180,-7.6875,-3,-24.3125,0
34200,-7.25,1.1875,-22.9375,0
34220,-7.125,4.125,-25.8125,0
34240,-9.8125,5.625,-25.6875,0
34260,-8.9375,7.625,-25.5,0
34280,-6.625,7.75,-26.8125,0
34300,-6,7.625,-30.5625,0
34320,-8.3125,9,-32.125,0
34340,-11.25,11.3125,-30.25,0
34360,-10.9375,12,-30.9375,0
34380,-9.625,10.875,-32.5,0
34400,-10.25,12.1875,-32.8125,0
34420,-12.3125,14.5,-31.25,0
34440,-13.625,13.125,-29.5,0
34460,-11.6875,12.875,-29.875,0
34480,-11.4375,13.75,-28.6875,0
34500,-14,15.9375,-27.5625,0
34520,-14.8125,17.5625,-27.8125,0
34540,-12.1875,17.875,-26.6875,0
34560,-11.375,20.0625,-26.3125,0
34580,-12.75,22.5625,-25.625,0
34600,-11.3125,22.4375,-26.6875,0
34620,-9.25,22.3125,-28.625,0
34640,-11.375,25.375,-29.4375,0
34660,-11.5625,27.75,-30,0
34670,-9.375,28.3125,-29.875,0
34690,-7.1875,29.3125,-32.0625,0
34710,-9.3125,32.875,-32.25,0
34730,-11.5,36.0625,-32.5,0
34780,-12.625,42.0625,-27.1875,0
34800,-12.3125,42.0625,-26.5,0
34820,-13.25,43.9375,-26.8125,0
34840,-14.6875,44.25,-26.625,0
34860,-15.375,43.3125,-24.6875,0
34880,-14.0625,42.625,-24.9375,0
34900,-14.8125,42.625,-24.75,0
34920,-15.6875,44.1875,-22.125,0
34940,-15.9375,44.25,-18.5,0
34960,-16.5625,42.4375,-14.5,0
34980,-16.1875,39.6875,-11.125,0
35000,-15.875,40.8125,-10.125,0
35020,-17.75,42.6875,-8.1875,0
35040,-17.1875,40.4375,-2.5,0
35060,-14.3125,37.0625,1.75,0
35080,-12.125,33.5625,2.4375,0
35100,-12.9375,36.125,6.75,0
35120,-17.125,40.125,10.1875,0
35140,-16.375,35.3125,10.375,0
35160,-11.0625,29,13.9375,0
35180,-9.6875,31.625,21,0
35200,-13.25,40.1875,24.5,0
35220,-15.9375,37.5625,20.0625,0
35240,-12.6875,27.625,20.5625,0
35260,-11.0625,27.875,21.4375,0
35280,-16.5625,35.4375,25.5625,0
35300,-19.5625,38.625,29.5,0
35320,-13.6875,34.875,27.375,0
35340,-8.5,32.9375,27.5,0
35360,-13.8125,35.75,32.0625,0
35380,-19.5625,34.9375,31.875,0
35400,-18.0625,29.9375,27.0625,0
35420,-13.25,26.4375,30.5,0
35440,-11.9375,29.5625,32.3125,0
35460,-11.75,27.6875,29.4375,0
35480,-10.1875,18.1875,25.5625,0
35500,-7.8125,15.9375,23.8125,0
35520,-12.5625,24.375,24.5,0
35540,-19.75,26.1875,28.0625,0
35560,-14.875,18.625,26.9375,0
35580,-4.25,11,24.0625,0
35600,-4.75,15.625,25.375,0
35620,-16.8125,22,30.875,0
35640,-19.375,19.4375,30.625,0
35660,-10.1875,14.25,28.875,0
35680,-3.625,14.1875,29.1875,0
35700,-8.5,17.4375,29.5,0
35720,-12.875,14.125,29.4375,0
35740,-9,8.125,24.6875,0
35760,-8.5625,7,23.6875,0
35780,-10.5625,7.5625,25.25,0
35800,-11.6875,5.6875,26.1875,0
35820,-5.8125,3.125,25.625,0
35840,-5.75,3.3125,25.9375,0
35860,-10.5,2.75,25.625,0
35880,-11.0625,0.25,25.0625,0
35900,-7.5,-2.25,23.375,0
35920,-6.875,-4.1875,21.875,0
35940,-8.875,-4.8125,21.375,0
35960,-6.4375,-6.375,20.5625,0
35980,-1.9375,-9.25,19.625,0
36000,-3.1875,-10.875,19.3125,0
36020,-4.8125,-11.625,19.5625,0
36040,-6.5,-14.1875,20,0
36060,-8.5625,-14.625,19.875,0
36080,-9.75,-14.875,20.0625,0
36100,-7.5625,-16.9375,18.125,0
36120,0.75,-17.75,14.3125,0
36140,6.125,-19.875,13.3125,0
36160,6.1875,-19.5,12.8125,0
36180,4.5625,-19.0625,12.125,0
36200,0,-19.5,11.375,0
36220,-4.3125,-19.6875,12.4375,0
36240,-4.375,-19.8125,13.5,0
36260,-2.5625,-19.375,13.75,0
36280,-0.5,-19.3125,12.6875,0
36300,1.9375,-19.625,11.5625,0
36320,3.4375,-22.4375,10.9375,0
36340,0.5,-25,9.625,0
36360,-5.875,-25.625,9.4375,0
36380,-9.375,-28,9.75,0
36400,-8.4375,-30,9.125,0
36420,-4.8125,-31,8.3125,0
36440,-3.875,-31.5,8.1875,0
36460,-3.875,-31.3125,6.625,0
36480,-4.5,-32.4375,7,0
36500,-5.125,-31.0625,7.1875,0
36520,-4.875,-31.375,6.625,0
36540,-4.5625,-32.1875,5.1875,0
36560,-4.5625,-34.5625,4.5,0
36580,-4.1875,-34.875,4.0625,0
36600,-7.1875,-33.3125,3.9375,0
36620,-9.6875,-33.625,5.125,0
36640,-8.1875,-32.75,4.25,0
36660,-4.375,-32.9375,3.9375,0
36680,-3.875,-31.625,4.0625,0
36700,-6.5,-31,4.75,0
36720,-8.75,-31.0625,4.5625,0
36740,-7.9375,-32.125,4.375,0
36760,-7.875,-33.3125,4.1875,0
36780,-9.125,-35.3125,4.75,0
36800,-12.375,-38.1875,4.6875,0
36820,-12.625,-40.125,2,0
36840,-9.3125,-42.9375,-1.0625,0
36860,-9.5,-46.25,-2.5625,0
36880,-11,-47.375,-4,0
36900,-9,-47.875,-5.5625,0
36920,-5.375,-50.0625,-9.0625,0
36940,-4.6875,-51.9375,-11.625,0
36960,-7.25,-52.4375,-13.5,0
36980,-9.8125,-51.3125,-15.8125,0
37000,-7.4375,-51.0625,-18.125,0
37020,-3.6875,-52.1875,-19.6875,0
37040,-3.4375,-52.75,-18.9375,0
37060,-4.5625,-49.5,-23,0
37080,-4.0625,-45.0625,-25,0
37100,-1.1875,-41.25,-28.3125,0
37120,4.75,-40.5,-29.1875,0
37140,13.75,-40.0625,-31.375,0
37160,17.5625,-37.375,-33.375,0
37180,12.4375,-34.75,-32.3125,0
37200,6.125,-33.375,-32.5,0
37220,4.75,-32.3125,-31.5625,0
37240,8.9375,-30.5,-33.375,0
37260,13.4375,-29.875,-34.1875,0
37280,13.75,-31.8125,-33.5,0
37300,13.8125,-29.9375,-35.4375,0
37320,13.9375,-28.8125,-36.1875,0
37340,13,-27.5625,-37.6875,0
37360,11.5625,-25.75,-37.6875,0
37380,13.125,-24.625,-36.875,0
37400,15.5,-24.8125,-37.1875,0
37420,12.4375,-26.3125,-31.3125,0
37440,8.25,-19.8125,-29.5625,0
37460,7.875,-15.1875,-33.9375,0
37480,11.25,-16.625,-32.75,0
37500,9.875,-17.625,-31.3125,0
37520,4.1875,-14.0625,-32.3125,0
37540,3.4375,-10.75,-34.125,0
37560,7.375,-9.875,-32.125,0
37580,10.25,-8.375,-33.5625,0
37600,6,-3.5625,-34.875,0
37620,4.0625,1.1875,-34.3125,0
37640,1.9375,1.5625,-32.0625,0
37660,2.375,3.125,-27.875,0
37680,4.25,7.875,-30,0
37700,1.375,12.9375,-30.1875,0
37720,-1.9375,16.1875,-27.4375,0
37740,-0.375,18.25,-26.3125,0
37760,1.4375,22.3125,-28.125,0
37780,-1.375,21.125,-25.8125,0
37800,-7.125,19.5625,-23.375,0
37820,-11.0625,19.875,-21.75,0
37840,-10.25,21.75,-21.5625,0
37860,-12.1875,21.6875,-21.1875,0
37880,-13.5625,21.625,-22.5625,0
37900,-12.1875,21.75,-25,0
37920,-11.375,20.875,-27.5625,0
37940,-13.25,21,-28.4375,0
37960,-13.875,23.3125,-28.8125,0
37980,-13.8125,25,-28.0625,0
38000,-12,25.1875,-29.375,0
38020,-10.8125,25.6875,-30.75,0
38040,-12.9375,26.125,-29.5,0
38060,-14.4375,28.9375,-28.3125,0
38070,-13.375,31.9375,-26,0
38090,-11.1875,31.125,-25.875,0
38110,-12.4375,30.5625,-27.25,0
38130,-14.5625,32.875,-28.5625,0
38150,-16.375,35.1875,-26.375,0
38170,-14.3125,35.625,-25.0625,0
38190,-11.0625,34.5,-25.375,0
38210,-11.75,33.125,-25,0
38230,-14.5625,34,-22.4375,0
38250,-16.625,36.875,-17.8125,0
38270,-14.5625,37.8125,-13.125,0
38290,-13.875,36.625,-11.9375,0
38310,-14.3125,35.625,-8.8125,0
38330,-14.125,36,-6.25,0
38350,-14.4375,35.8125,-3.125,0
38370,-15.5625,38.125,0.75,0
38390,-16,37.5625,4.625,0
38410,-14.3125,34.9375,8.0625,0
38430,-14.8125,33.125,9.8125,0
38450,-17.75,34.875,14.5625,0
38470,-21.3125,36.5,18.9375,0
38490,-17,32.0625,20.625,0
38510,-12.6875,29.875,20.5625,0
38530,-15.875,32.6875,25.5625,0
38550,-13.4375,34.25,23.0625,0
38570,-9.875,32.625,19.25,0
38590,-11.875,36.5625,16,0
38610,-16.5625,43.3125,22.375,0
38630,-17.5625,46.0625,27.0625,0
38650,-12.625,42.25,25.125,0
38670,-8.9375,37.1875,25.0625,0
38690,-13.8125,44.1875,29.4375,0
38700,-23.0625,48.625,38.75,0
38720,-26.5,39.1875,37.125,0
38740,-18,30.625,31.8125,0
38760,-18.3125,37.1875,31.3125,0
38780,-33.3125,42.1875,36.75,0
38800,-43.6875,35.8125,35.8125,0
38820,-32.5625,26.3125,28,0
38840,-19.75,26,24.875,0
38860,-20.75,34.625,29.625,0
38880,-27.5,32.8125,30.8125,0
38900,-24.5625,21.5625,27.125,0
38920,-13.75,22.625,23.1875,0
38940,-13.0625,36.9375,30.0625,0
38960,-27.5625,37,34.1875,0
38980,-28.625,21.8125,30.3125,0
39000,-20.375,16.4375,24,0
39020,-19.1875,24.5625,25.3125,0
39040,-30.75,23.8125,28,0
39060,-35.75,13.6875,27.9375,0
39080,-26.25,10.8125,25.0625,0
39100,-18.8125,13.375,23.75,0
39120,-27.4375,16.875,29.625,0
39140,-37.1875,14.9375,33.75,0
39160,-32.75,10.125,30.3125,0
39180,-23.3125,9.5,25.125,0
39200,-24.625,9.75,24.5,0
39220,-31.375,4.9375,21.0625,0
39240,-28.3125,-0.125,17.625,0
39260,-23.4375,-3.5,14.375,0
39280,-20.9375,-3.875,11.0625,0
39300,-21.125,-4.75,10.25,0
39320,-18.6875,-9.1875,7.125,0
39340,-13,-13.75,5.1875,0
39360,-10.8125,-14.625,7.75,0
39380,-16.75,-15.3125,11.0625,0
39400,-20.5625,-16.125,13,0
39420,-12.375,-16.875,14,0
39440,-3.125,-20.4375,15.6875,0
39460,-4.75,-22.625,15.1875,0
39480,-5.5625,-24.5,14.8125,0
39500,-4,-26.6875,15.375,0
39520,-3.375,-27.5,14.75,0
39540,-2.8125,-28.4375,15.125,0
39580,-9.5625,-27.3125,11.5,0
39600,-4.375,-26.6875,10.3125,0
39620,2.9375,-28.8125,7.5625,0
39640,6.9375,-29.125,6.25,0
39660,3.625,-27.8125,5.5625,0
39680,-2.625,-26.8125,5.5,0
39700,-5,-28.0625,5.125,0
39720,-3,-29.5625,2.75,0
39740,-4,-29.5625,1.25,0
39760,-7.125,-27.625,0.75,0
39780,-6.5,-28.0625,0.375,0
39800,-3.0625,-28.5,-1,0
39820,-1.5625,-29.25,-1.5625,0
39840,-5.75,-28.75,-1.5,0
39860,-7.5625,-30.5625,-1.5,0
39880,-2.25,-34.1875,-2.375,0
39900,1.9375,-36.5625,-4.9375,0
39920,-1.4375,-38.1875,-5.6875,0
39940,-10.125,-37.4375,-6.0625,0
39960,-12.9375,-38.625,-6.5,0
39980,-10.6875,-41,-6.9375,0
40000,-5.875,-45.625,-8.375,0
40020,-1.0625,-48.1875,-10.5625,0
40040,-4.5625,-48,-10.25,0
40050,-14.125,-47.5625,-9.25,0
40070,-19.9375,-49.5,-10.25,0
40090,-18.875,-52.1875,-14.25,0
40110,-9.125,-53.3125,-18.8125,0
40130,-1.625,-52.5,-23.1875,0
40150,0.6875,-50.6875,-26.5625,0
40170,-0.125,-50.0625,-29.875,0
40190,-3,-51.25,-31.0625,0
40210,0.125,-51,-33,0
40230,7.875,-51.25,-34.6875,0
40250,6.75,-48.6875,-35.375,0
40270,-0.9375,-45.375,-32.6875,0
40290,-5.6875,-45,-32.8125,0
40310,3.5625,-45.8125,-39.8125,0
40330,16.125,-45.5,-45.4375,0
40350,14.6875,-42.5,-46.9375,0
40370,8.8125,-41.875,-46.3125,0
40390,12.8125,-43.5,-49,0
40410,22.9375,-45.625,-55.5625,0
40430,23.0625,-47.8125,-52.6875,0
40450,11.1875,-42.125,-42.75,0
40470,4.5,-39.0625,-42.6875,0
40490,8.625,-41.0625,-46.125,0
40510,11.5625,-44.4375,-48.875,0
40530,9.125,-39.625,-51.75,0
40550,6.5,-33.25,-50.4375,0
40570,8.875,-31.6875,-51.3125,0
40590,9.5,-27,-57.125,0
40610,15.6875,-30,-58.8125,0
40630,14,-22.1875,-60.4375,0
40650,13.8125,-17.375,-56.75,0
40670,14,-13.5625,-51,0
40690,18.5625,-11.25,-53.625,0
40710,21.9375,-5.8125,-55.75,0
40730,23.5,-1.1875,-50.625,0
40750,19.8125,-2.75,-44.375,0
40770,18.3125,0.875,-43.875,1001
40790,25.25,10.6875,-46.625,0
40810,25.875,8.75,-43.5,0
40830,25.1875,3.625,-32.5625,0
40850,26.25,7.3125,-31.5,0
40870,24.75,12.75,-26.0625,0
40890,15.375,7.9375,-8.125,0
40910,1.8125,5.3125,12.125,0
40930,2,8,25.0625,0
40950,2.1875,2.1875,32.3125,0
40970,-10.3125,-3,38.875,0
40990,-17.5625,-0.875,37.9375,0
41010,-8.8125,6.125,37.875,0
41030,1.9375,13.375,37.0625,0
41050,3,19.8125,27.0625,0
41070,-7.3125,25.3125,20.5625,0
41090,-8.25,31.4375,23.625,0
41110,-2.4375,31.6875,27.6875,0
41130,3.375,32.625,30.125,0
41150,-0.1875,34.75,31.1875,0
41170,-6.4375,37.625,38.3125,0
41190,-6.9375,39.75,45.625,0
41210,-3.4375,36.8125,50.1875,0
41230,-1.875,31.875,55.5625,0
41250,-5.875,32.3125,61.5625,0
41270,-13.1875,31,68.5,0
41290,-15.5,29.5625,69.4375,0
41310,-8.1875,26.8125,70.5,0
41330,2.1875,23.75,73.125,0
41350,4.375,27.375,72.3125,0
41370,-0.5625,29.25,76.5,0
41390,-4.25,31.3125,81.5,0
41410,4.9375,35.375,72.1875,0
41430,15.25,37.5625,67.625,0
41450,20.125,34.375,73.1875,0
41470,18.375,30.125,79.75,0
41490,17.75,36,73.9375,0
41510,24.75,45.25,67.1875,0
41530,27.25,46.0625,73.375,0
41550,19.1875,41.9375,85.875,0
41570,15.625,37.125,87,0
41590,20.4375,35.125,79.0625,0
41610,24.9375,38.9375,76.25,0
41630,21.125,35.5625,89.375,0
41650,11.1875,29.375,87.375,0
41670,3.25,25.0625,75.5625,0
41690,-1.5,15.375,70.75,0
41710,-1.6875,13.4375,62.5625,0
41730,4.25,8.4375,48.4375,0
41750,5.375,-0.625,40.6875,0
41770,-0.875,-7.625,37.5,0
41790,-4.3125,-9.625,26.625,0
41810,-5.5625,-8.5,15.6875,0
41830,-5.75,-9.75,12.5625,0
41850,-3.6875,-8.125,12.75,0
41870,-2.0625,-4.25,16.125,0
41890,-3.25,-1.625,17.875,0
41910,-6.0625,0.6875,16.8125,0
41930,-9.75,0.4375,21.8125,0
41950,-15.625,3.75,24.1875,0
41970,-19.5625,7.625,26,0
41990,-17.9375,11.4375,22.8125,0
42010,-10.6875,13.875,17.125,0
42030,-6.75,13.5625,20.5,0
42050,-4.5625,13.875,20.4375,0
42070,-2.25,11.8125,19.3125,0
42090,-0.875,8.75,17.625,0
42110,0.25,7.875,9.6875,0
42130,2.375,10.1875,5.9375,0
42150,6,8.375,7.875,0
42170,10.5,6.5,9.4375,0
42190,9,6.9375,9.5,0
42210,5.625,8.625,6.5,0
42230,4.9375,11.375,4.1875,1000
42250,8.9375,15.0625,5.0625,0
42270,11.4375,14.6875,9.375,0
42290,13.75,15.6875,9.8125,0
42310,14.3125,15.125,8.125,0
42330,10.25,15.8125,7.6875,0
42350,6.3125,14.25,8.375,0
42370,6.5,11.125,6.625,0
42390,6.4375,7.375,5,0
42410,3.6875,3.4375,1.0625,0
42430,2.1875,-0.125,-3.125,0
42450,4.1875,-4.4375,-5.375,0
42470,4.5,-6.3125,-6.5625,0
42490,1.625,-7.5625,-7.8125,0
42510,-2.375,-9.8125,-7.125,0
42530,-2.75,-10.4375,-9.75,0
42550,0.8125,-10.875,-8.375,0
42570,3.1875,-9.3125,-6.875,0
42590,1.75,-7.625,-4.625,0
42610,-2.5,-8.125,0.75,0
42630,-4.25,-6.1875,2.625,0
42650,-5,-2.8125,2.375,0
42670,-5.0625,-4.5,2.6875,0
42690,-1.875,-6.375,1.25,0
42710,3.8125,-5.6875,-0.5,0
42730,6.875,-4.875,-4.4375,0
42750,5.25,-6.8125,-6.1875,0
42770,2.4375,-8.25,-5.125,0
42790,1,-5.625,-3.125,0
42810,-1.3125,-4.6875,-2,0
42830,-2,-3.3125,0,0
42850,-3.375,-2.625,2.25,0
42870,-5.4375,-0.8125,1.8125,0
42890,-1.6875,0.625,1.5,0
42910,1.9375,-0.4375,1,0
42930,1.4375,-0.375,3.625,0
42950,-0.25,-0.0625,2.1875,0
42970,0.4375,-0.75,0.875,0
42990,4,-0.3125,-0.125,0
43010,7.4375,-1.3125,0.75,0
43030,7,-3.8125,-0.1875,0
43050,5.5625,-5.9375,-1.4375,0
43070,2.125,-7,-1.5,0
43090,1.5,-8.6875,-4.5,0
43110,6,-9.8125,-4.1875,0
43130,9.6875,-9.0625,-6.25,0
43150,8.0625,-10.375,-6.625,0
43170,2.1875,-12.1875,-4.375,0
43190,-3.875,-11.875,-4.9375,0
43210,-1.1875,-12.75,-6.125,0
43230,6.0625,-13.5625,-8.6875,0
43250,10.3125,-13.1875,-9.6875,0
43270,7.0625,-13.5,-10.625,0
43290,1.5,-13.1875,-10.875,0
43310,1.4375,-14.125,-13,0
43330,5.4375,-16.3125,-15.3125,0
43350,8.375,-18.0625,-15.75,0
43370,8.6875,-17.9375,-16.6875,0
43390,5.375,-18.5625,-18.1875,0
43410,2.375,-20.125,-16.5,0
43430,0.9375,-24,-16.5625,0
43450,-0.4375,-27.125,-15.5,0
43470,-0.25,-26.6875,-18.125,0
43490,-0.625,-27.0625,-18.6875,0
43500,-4.25,-29.25,-15.3125,0
43520,-4.625,-30.875,-15.25,0
43540,-4.75,-31.1875,-15.8125,0
43560,-5.4375,-28.75,-14.75,0
43580,-6.25,-27.9375,-12.9375,0
43600,-2.875,-27.5,-13.25,0
43620,1.5625,-25.8125,-13.5,0
43640,1.5625,-21.875,-11.4375,0
43660,0.1875,-19.3125,-10.5625,0
43680,1.3125,-19.3125,-9.8125,0
43700,3.5,-19.6875,-12.375,0
43720,2.8125,-19.5625,-13.5625,0
43740,-0.4375,-19.375,-10.6875,0
43760,-1.5625,-16.875,-13.8125,0
43780,0.4375,-14.125,-15.75,0
43800,3,-11.875,-16,0
43820,6.5,-10.3125,-18,0
43840,8.5,-10.75,-17.875,0
43860,8.0625,-10.75,-18.75,0
43880,5.625,-8.875,-20.125,0
43900,5.3125,-7.4375,-19.9375,0
43920,5.6875,-6.125,-20.625,0
43960,6.1875,-6.4375,-18.375,0
43980,3.5,-2.3125,-22.1875,0
44000,2.5625,0.6875,-22.6875,0
44020,4.5,-0.0625,-22.9375,0
44040,6.5,-1,-22.625,0
44060,6.25,0.4375,-23.75,0
44080,4.6875,5,-22.1875,0
44100,3.6875,7.9375,-22.375,0
44120,2.875,7.5625,-19.875,0
44140,2.9375,6.375,-19.0625,0
44150,3.8125,7.8125,-19.375,0
44170,3.625,11.6875,-19.5625,0
44190,2.875,12.1875,-19.75,0
44210,3.125,14.0625,-20.25,0
44230,2.625,13.8125,-20.625,0
44250,5,16.5,-23.375,0
44270,6.0625,19.6875,-26.3125,0
44290,3.4375,19.875,-24.5,0
44310,1.9375,21.5625,-26.3125,0
44330,2.4375,24.5,-28.4375,0
44350,5.1875,25.75,-27.1875,0
44370,2.875,23.1875,-26.625,0
44390,-0.6875,23.75,-27.875,0
44420,-1.5625,28.625,-30.3125,0
44440,-1.3125,28.375,-27.9375,0
44460,-2.9375,28.625,-27.3125,0
44480,-4.375,29.9375,-27,0
44500,-3.25,30.375,-26.125,0
44520,-3,30.5,-25.375,0
44540,-5.625,31.6875,-23.3125,0
44560,-4.9375,33.3125,-23.375,0
44580,-3.125,33.5,-23.0625,0
44600,-2.8125,32.4375,-22.8125,0
44620,-2.25,32.1875,-24,0
44640,-2.25,30.6875,-25.1875,0
44660,-3.5,31.3125,-23.5625,0
44680,-3.5,33.5625,-21.6875,0
44700,-3.625,36.5625,-20.9375,0
44720,-3.6875,38.3125,-19.8125,0
44740,-3.6875,38.375,-19.8125,0
44760,-1.9375,37.875,-20.75,0
44780,-1.5,37.75,-21.4375,0
44800,-3.0625,37.0625,-22.25,0
44820,-4.0625,37.5,-22.375,0
44840,-3.5,37.1875,-21.0625,0
44860,-3.5625,35.25,-19.8125,0
44880,-5.375,35.25,-18.0625,0
44900,-5.5625,35.75,-18.125,0
44920,-5.4375,35.0625,-15.0625,0
44940,-5.625,35.125,-12.625,0
44960,-6.125,35.75,-10,0
44980,-6.625,36.875,-8.5625,0
45000,-5.375,36.5,-8.75,0
45020,-7.1875,35.0625,-6,0
45040,-6.875,33.4375,-3.875,0
45060,-5.3125,33.375,-0.9375,0
45080,-4.0625,36.25,-0.125,0
45100,-5.5625,37,0.75,0
45120,-7.5,35,3.125,0
45140,-7.5625,33.3125,4.6875,0
45160,-5.8125,32.625,6.375,0
45180,-4.1875,30.875,6,0
45200,-5.25,32.0625,6.4375,0
45220,-6.75,34.6875,3.625,0
45240,-7.75,32.5,3.3125,0
45260,-7.625,28.3125,5,0
45280,-4.5625,26.375,4.4375,0
45300,1.0625,26.875,3.0625,0
45320,2.1875,30.125,4.375,0
45340,-3.125,32.875,5.875,0
45360,-6.9375,30.125,5.25,0
45380,-0.4375,26.25,3.375,0
45400,5.375,26,5.6875,0
45410,4.25,29.125,8.1875,0
45430,1.6875,25.625,9.1875,0
45450,2.25,23,10,0
45470,1.5,21.25,11.125,0
45490,0.0625,22.9375,11.8125,0
45510,0.3125,21.5625,13.3125,0
45530,-1.25,17.75,13.5,0
45550,-2.75,14.375,10.8125,0
45570,-3.9375,13.75,8.25,0
45590,-5.875,14.8125,9.8125,0
45610,-9.1875,14.25,12.875,0
45630,-10.8125,11.5625,11.8125,0
45650,-8.375,9.1875,11.0625,0
45670,-7.8125,11.875,13.875,0
45690,-10.3125,15.125,15.3125,0
45710,-10.8125,13.4375,14.5,0
45730,-7.5625,9.875,13.5625,0
45750,-5.4375,10.8125,12.8125,0
45770,-6.5,14.0625,16.0625,0
45790,-8.3125,13.375,16.5625,0
45810,-6.5625,8.3125,15.0625,0
45830,-3.1875,4.1875,14.4375,0
45850,-5.6875,7.4375,14.9375,0
45870,-13.6875,9.875,16.5,0
45890,-15.6875,4.375,18.75,0
45910,-9.6875,2.3125,18.875,0
45930,-6.3125,6.3125,20.1875,0
45950,-9.5,6.6875,22.0625,0
45970,-10.125,1.5,20.8125,0
45990,-5.6875,-2.1875,18.625,0
46010,-5.6875,0.0625,17.6875,0
46030,-8.875,0.3125,16.875,0
46050,-10.625,-4.6875,18.0625,0
46070,-8.3125,-5.75,19.125,0
46090,-9.0625,-3.9375,17.5625,0
46110,-9.6875,-4.9375,17.75,0
46130,-8.9375,-7.5,17.5625,0
46150,-8.6875,-7.0625,16.6875,0
46170,-8.0625,-5.875,16.8125,0
46190,-5.0625,-7.0625,15.1875,0
46210,-1.625,-11.5,14.875,0
46230,-3.5,-12.1875,14.8125,0
46250,-9.4375,-11,14.0625,0
46270,-13.875,-11.875,14.5625,0
46290,-13.3125,-13.3125,15.1875,0
46310,-11.5,-12.625,14.1875,0
46330,-9,-13.4375,13.9375,0
46350,-9.0625,-14.9375,14.0625,0
46370,-9.6875,-15.6875,12.3125,0
46390,-8.5625,-17.125,10.75,0
46410,-7.0625,-18.6875,9.625,0
46430,-7.375,-18.8125,9.25,0
46450,-6.875,-19.75,10.0625,0
46470,-5.4375,-21.375,10.6875,0
46490,-4.1875,-21.8125,10.25,0
46510,-6.25,-22.4375,8.875,0
46530,-7.875,-24.25,8.875,0
46550,-5.1875,-25.6875,7.75,0
46570,-1.75,-26.8125,7.3125,0
46590,-3.0625,-27.5,7.5,0
46610,-6.5,-28.3125,8.625,0
46630,-6.75,-30.0625,8.75,0
46650,-5.8125,-32,9.0625,0
46670,-8,-33,9.0625,0
46690,-7.5,-33.3125,8.0625,0
46710,-4.0625,-35.3125,7.5625,0
46730,-3.1875,-36.5625,8.0625,0
46750,-3,-37.3125,8.5625,0
46770,-5.5,-39.125,9.375,0
46790,-7.125,-40.5,8.5,0
46810,-9.625,-43.8125,9.375,0
46830,-14.3125,-46.5625,11.6875,0
46850,-15.4375,-46.8125,10.0625,0
46870,-17.9375,-48.3125,9.25,0
46890,-19.375,-51,8,0
46910,-15.9375,-52.25,5.125,0
46930,-11.75,-52.6875,3.375,0
46950,-11.75,-51.3125,2.25,0
46970,-11.125,-49.3125,-1.1875,0
46990,-5.875,-50.5625,-4.0625,0
47010,-3.8125,-51.375,-3.5,0
47030,-5.875,-49.25,-4.375,0
47050,-7.9375,-46.6875,-7.1875,0
47070,-6.4375,-44.125,-8.6875,0
47090,-4.1875,-43.0625,-9.25,0
47110,-2.1875,-43.4375,-10.875,0
47130,1.375,-43.6875,-14.625,0
47150,1.3125,-45.25,-13.9375,0
47170,-5.4375,-45.375,-12,0
47190,-9.75,-43.5625,-11.4375,0
47210,-8.6875,-43.125,-11.625,0
47230,-7.625,-43.5,-10.5,0
47250,-4.125,-43.5,-11,0
47270,1,-43.75,-12.5,0
47290,4.4375,-40.0625,-15.0625,0
47310,3.625,-38.6875,-15.0625,0
47330,-0.25,-38.75,-14.5625,0
47350,0.5,-38.1875,-16.9375,0
47370,4.4375,-35.625,-18.125,0
47390,4.9375,-33.375,-16.9375,0
47410,2.5625,-34.1875,-14.8125,0
47430,4.6875,-31.5625,-14.4375,0
47450,5.3125,-29.5625,-15.5,0
47470,3.125,-28.125,-12.25,0
47490,2.75,-26.5,-14.25,0
47510,2,-27.375,-15.8125,0
47530,2.0625,-26.0625,-14.8125,0
47550,3.875,-24.25,-15.375,0
47570,6.875,-22.1875,-14.5625,0
47590,9.125,-20.6875,-12.8125,0
47610,11.375,-19.9375,-12.8125,0
47630,7,-18.8125,-15.875,0
47650,3.125,-18.0625,-18.125,0
47670,3.125,-20.25,-15.6875,0
47690,2.375,-18.9375,-15.25,0
47710,0.1875,-18.4375,-13.875,0
47730,-1.25,-18.9375,-15.875,0
47750,-1.75,-19.5625,-14.4375,0
47770,-2.4375,-18.125,-16.375,0
47790,-3.8125,-15.75,-19.3125,0
47810,-4.625,-16.375,-20.375,0
47830,-2.75,-14.75,-19.5625,0
47850,-3.6875,-14.25,-20.375,0
47870,-3.625,-16.6875,-20.875,0
47890,-4.9375,-16.3125,-20.875,0
47910,-7.25,-15.625,-21,0
47930,-9.3125,-15.75,-20.5,0
47950,-7.875,-16.3125,-18.5625,0
47970,-5.75,-16.0625,-21.4375,0
47990,-7.125,-14.25,-22.75,0
48010,-7.1875,-10.375,-22.6875,0
48030,-5.5,-9.25,-22.6875,0
48050,-4.5,-8.5625,-24.875,0
48070,-6.75,-8.4375,-24.875,0
48090,-8.625,-5.8125,-24.0625,0
48110,-7.6875,-5.5625,-25.875,0
48130,-7.5625,-3.75,-25.4375,0
48150,-8.375,-2.8125,-22.0625,0
48170,-10.0625,-4.125,-19.4375,0
48190,-7.5625,-6.25,-18.3125,0
48210,-7.5625,-3.625,-21,0
48230,-11.375,-0.75,-21.6875,0
48250,-12.1875,-1.0625,-18.6875,0
48270,-7.25,-0.5625,-18.8125,0
48290,-3.75,2.125,-21,0
48310,-7.875,6.25,-25.875,0
48330,-10.5,9.0625,-26.3125,0
48350,-9.125,10.6875,-28.375,0
48370,-7.75,12,-30.75,0
48390,-11.6875,16.125,-32,0
48410,-14.5,20.9375,-31.125,0
48430,-11.25,22.625,-31.3125,0
48450,-12.3125,24.0625,-30.9375,0
48470,-14.5,27.625,-29.25,0
48490,-14.5,33,-26.9375,0
48510,-13.125,35.125,-27.25,0
48530,-14.1875,35.25,-26.5,0
48540,-14.625,38.25,-26.25,0
48560,-14.5625,42.125,-26.0625,0
48580,-14.1875,44.5625,-25.1875,0
48600,-13.5,44.875,-24.875,0
48620,-11.1875,44.25,-24.1875,0
48640,-12,45.4375,-23.375,0
48660,-14.125,47.875,-20.25,0
48680,-12.0625,48.3125,-16.8125,0
48700,-10.5625,45.875,-14.75,0
48720,-10.625,41.8125,-12.6875,0
48740,-10.75,43.625,-10.5,0
48760,-12.125,44.25,-8.5625,0
48780,-10.6875,42.5625,-5.5,0
48800,-9.5625,41.375,-4.625,0
48820,-9.0625,42,-3.75,0
48830,-8.3125,44.3125,-5,0
48850,-9.5625,44.1875,-3.625,0
48870,-10.1875,44.5625,0.0625,0
48890,-9.3125,45.125,1.6875,0
48910,-8.0625,46.3125,2.25,0
48930,-6.1875,45,0.4375,0
48950,-7.5,43.625,0.1875,0
48970,-10,43.0625,0.9375,0
48990,-8.8125,42.375,4.4375,0
49010,-5.5,39.25,5,0
49030,-5.0625,36.4375,4.875,0
49050,-9.3125,36.9375,6.25,0
49070,-15.625,36.0625,11,0
49090,-11.3125,31.9375,10.625,0
49110,-4.875,28.3125,4.3125,0
49130,-5.25,28.1875,3.25,0
49150,-9.25,31.25,9.5625,0
49170,-10.75,30.75,12,0
49190,-6.1875,25.875,7.6875,0
49210,-4.25,25,6.625,0
49230,-9.3125,29.5,10.25,0
49250,-12.25,32.1875,14.875,0
49270,-8.25,28.8125,14.5,0
49290,-1.0625,23.4375,13.25,0
49310,-2.5625,26.3125,14.3125,0
49320,-11.0625,30.3125,18.625,0
49340,-14.625,27.1875,21.3125,0
49360,-7.5,21.1875,19.5,0
49380,-3.375,21.75,18.8125,0
49400,-8.5,25.5,21.9375,0
49420,-13.3125,25.6875,22.3125,0
49440,-9.4375,21.4375,19.75,0
49460,-3,18.6875,16.1875,0
49480,-3.625,20.4375,18.25,0
49500,-12,22.8125,19.3125,0
49520,-12.3125,18.625,18.0625,0
49540,-4.6875,15.6875,18.0625,0
49560,-0.75,18.6875,17.5625,0
49580,-9.875,21.8125,19.25,0
49600,-20.25,18.5,22.6875,0
49620,-20,14.5,26,0
49640,-14.375,20.4375,26.1875,0
49660,-17.8125,24.375,27.0625,0
49680,-21.9375,20.375,27.625,0
49700,-16.5625,13.0625,24.5625,0
49720,-9.0625,12.8125,23.0625,0
49740,-14.125,18.9375,23,0
49760,-23.25,17.625,27.25,0
49780,-22.75,14,30.5,0
49800,-16.0625,12.375,29.875,0
49820,-16.125,15.875,27.375,0
49840,-21.9375,15.3125,27.625,0
49860,-23.125,9.1875,27,0
49880,-16.3125,4.375,25.3125,0
49900,-12.6875,5.5625,24.25,0
49920,-17.6875,6.9375,26,0
49940,-25.375,2.1875,29.25,0
49960,-23.625,0.1875,27.625,0
49980,-17.0625,1.1875,21.9375,0
50000,-12.5625,-1.4375,18.9375,0
50020,-8.25,-6.0625,15.8125,0
50040,-3.875,-8.5625,12.625,0
50060,-4,-8.125,12.625,0
50080,-7.625,-9.125,12.5,0
50100,-12.375,-11.3125,12.1875,0
50120,-11.3125,-13.3125,10.8125,0
50140,-10.125,-14.1875,9,0
50160,-10,-14.375,7.5,0
50180,-9.1875,-15.4375,6,0
50200,-8.1875,-16.9375,5.875,0
50220,-7,-16.75,5.25,0
50240,-5.3125,-15.125,6,0
50260,-6.875,-15.9375,6.8125,0
50280,-11.8125,-17.6875,6.8125,0
50300,-16.25,-16.8125,7.5,0
50320,-18.9375,-17.375,8.875,0
50340,-14.6875,-17.9375,8.3125,0
50360,-5.6875,-18.3125,7.4375,0
50380,-3.875,-20.625,7.5625,0
50400,-6.9375,-21.75,8.6875,0
50420,-8.75,-23.875,8,0
50440,-9.9375,-24.6875,7.375,0
50460,-11.375,-24.8125,7.0625,0
50480,-13.9375,-25.375,7.0625,0
50500,-13.9375,-24.6875,7.1875,0
50520,-15.25,-24.25,7.3125,0
50540,-17.9375,-23.6875,7.5,0
50560,-18.625,-23.875,7.5,0
50580,-15.625,-22.75,8.0625,0
50600,-12.8125,-22.75,8.25,0
50620,-14,-22.9375,8.375,0
50640,-12.5625,-22.0625,7.9375,0
50660,-8.4375,-22.125,5.8125,0
50680,-4.25,-22.875,3.75,0
50700,-3.5,-23.0625,2.5625,0
50720,-7.9375,-22.25,4,0
50740,-11.75,-23.5,5,0
50760,-11.3125,-24.875,5.1875,0
50780,-9.5625,-24.8125,3.625,0
50800,-9,-24.4375,2.25,0
50820,-5.8125,-24.75,1.3125,0
50830,-4.875,-25.375,1.0625,0
50850,-4.4375,-26,0.3125,0
50870,-5.25,-25.5,0.4375,0
50890,-6.4375,-26.4375,-1.4375,0
50910,-4.5625,-27.375,-2,0
50930,-3.1875,-28.0625,-2.5,0
50950,-5.4375,-26.75,-2.1875,0
50970,-8.5625,-26.5625,-2.4375,0
50990,-6.4375,-27.5625,-3.9375,0
51010,0.5625,-28.5625,-5.875,0
51030,-0.4375,-28.8125,-6.5625,0
51050,-5.5625,-28,-6.75,0
51070,-6,-30.375,-7.25,0
51090,-2.125,-32.375,-9.75,0
51110,-1.3125,-32.5625,-11.25,0
51130,-1.5,-33.375,-14.5625,0
51150,-2.625,-35.9375,-15.5,0
51170,-5.0625,-37.625,-17.1875,0
51190,-4.3125,-37.8125,-16.875,0
51210,-2.5625,-38,-17.625,0
51230,-0.6875,-38.0625,-19.75,0
51250,-0.3125,-37.9375,-20.875,0
51270,4.8125,-40.9375,-24.875,0
51290,7.9375,-40.625,-26.75,0
51310,7.125,-41.25,-26.4375,0
51330,3.875,-42.5,-26.8125,0
51350,-0.0625,-41.875,-30.1875,0
51370,-3.4375,-44,-31.125,0
51390,-4.875,-45.25,-32.375,0
51410,-2.4375,-45.1875,-32.3125,0
51430,0.875,-42.125,-33,0
51450,-2.5625,-41.4375,-33.9375,0
51470,-5.4375,-39.0625,-26.875,0
51490,-5.3125,-34.375,-28,0
51510,-2,-33.3125,-25.875,0
51530,2.6875,-27.5,-25.375,0
51550,1.5625,-22.625,-28.625,0
51570,3.125,-24.25,-24.125,0
51590,3.625,-23.8125,-26.1875,0
51610,3.3125,-26.25,-24.4375,0
51630,-0.375,-22.25,-24.0625,0
51650,-3.625,-17.5,-26.4375,0
51670,-2.25,-18.625,-23.875,0
51690,5.0625,-18.125,-23.875,0
51710,4.8125,-17,-23.4375,0
51730,-1.0625,-13.375,-23.9375,0
51750,-4.5625,-6.875,-25.5,0
51770,-3.3125,-2.9375,-26.25,0
51790,-0.5,-3.9375,-23.5625,0
51810,1.375,-3.625,-23.25,0
51830,2.1875,-0.5625,-29.3125,0
51850,-1.0625,4.75,-31.75,0
51870,-3.4375,8.8125,-31.5625,0
51890,1.375,8.25,-30,0
51910,5.1875,9.5,-28.625,0
51930,1.25,12.875,-27.625,0
51950,-2.8125,15.0625,-23.75,0
51970,-1.625,12.6875,-22.75,0
51990,1.375,8.25,-26.375,0
52010,-1.0625,8.1875,-29.625,0
52030,-6.6875,14.125,-30.6875,0
52050,-4.625,17.4375,-26.6875,0
52070,3.3125,14.5,-26.4375,0
52090,5.6875,14.6875,-28.6875,0
52110,2,17.875,-27.6875,0
52130,-1.3125,19.375,-25.3125,0
52150,1.5625,18.6875,-26.8125,0
52170,6.25,18.625,-28.25,0
52190,4.875,18.1875,-28.875,0
52210,1,20.0625,-28.4375,0
52230,-1,20,-27.3125,0
52250,4.9375,18.625,-28.0625,0
52270,9.5,19.9375,-30.25,0
52290,6,22.375,-27.8125,0
52310,-0.8125,25.4375,-25.9375,0
52330,3.25,25.75,-27.4375,0
52350,10.875,26.4375,-29.25,0
52370,8.75,29.8125,-30.1875,0
52390,3.4375,34.6875,-27.125,0
52410,4.5625,34.5625,-25.6875,0
52430,7.6875,32.9375,-24.625,0
52450,4.25,32.4375,-23.8125,0
52470,-0.8125,32.1875,-20.9375,0
52490,-1.5625,32.75,-17.9375,0
52510,1.1875,31.375,-15.625,0
52530,2.9375,29.1875,-14.5625,0
52550,0.5625,29.875,-14.5625,0
52570,-4.375,30.5,-12.1875,0
52590,-5.125,30.25,-10.1875,0
52610,-2.9375,28.5,-9.125,0
52630,-0.5,29,-12.0625,0
52650,-3.9375,31.6875,-9.8125,0
52670,-7,34.0625,-5.4375,0
52690,-6.875,33.875,-2.8125,0
52710,-3.75,29.4375,-1.9375,0
52730,-5.3125,25.75,-1.8125,0
52750,-10.75,30.25,1.25,0
52770,-10.8125,26.8125,3.5,0
52790,-5.625,17.8125,4.9375,0
52810,-5.25,15.6875,3.1875,0
52830,-13,18.875,6.8125,0
52850,-16,19.5625,10.0625,0
52870,-7.4375,15.25,6.625,0
52890,-0.875,16.375,5.875,0
52910,-8.4375,22.8125,12.0625,0
52930,-16.875,27.0625,17.5,0
52950,-14.3125,23.3125,15.4375,0
52970,-4.6875,17.5625,14.5,0
52990,-3.4375,22.5,14.1875,0
53010,-13.5625,27.9375,19.125,0
53020,-19.4375,25.125,21.4375,0
53040,-12.5,21.375,21.25,0
53060,-5.4375,23.6875,21.3125,0
53080,-9.875,30.4375,24.875,0
53100,-15.6875,30.375,26.625,0
53120,-11.625,24.625,23,0
53140,-2.4375,22.75,20.8125,0
53160,-4.9375,29.75,20.625,0
53180,-15.75,31.5625,24.1875,0
53200,-15.8125,24.5,23.5,0
53220,-6.3125,22,19.9375,0
53240,-4.3125,27.1875,21.0625,0
53260,-16.6875,31.75,25.75,0
53280,-22.4375,28.0625,26.75,0
53300,-12.6875,21.9375,25.5625,0
53320,-4.8125,24.625,22.1875,0
53340,-13.125,30.6875,25.1875,0
53360,-23.25,27.9375,28.8125,0
53380,-17.1875,20.5,28,0
53400,-6.8125,18.0625,27.0625,0
53420,-8.25,25.4375,25.25,0
53440,-19.25,25.9375,27.625,0
53460,-22,18.5625,29.75,0
53480,-11.375,14.25,25.875,0
53500,-7.375,17,26,0
53520,-18.625,20.1875,27.875,0
53540,-30.125,16.875,28.75,0
53560,-28.5625,15.5,27.625,0
53580,-21.9375,16.5625,25.1875,0
53600,-17.6875,18.6875,24.125,0
53620,-15.25,15.8125,21.75,0
53640,-10.75,14.125,19.25,0
53660,-12.75,15,19.1875,0
53680,-19.625,13.0625,20.375,0
53700,-22.25,12.4375,20,0
53720,-21.5625,9.5625,19,0
53740,-19.9375,8.5625,18.0625,0
53760,-21.5,8.4375,19.5,0
53780,-26,7.5,18.375,0
53800,-24.5625,5.625,17.0625,0
53820,-19.8125,5.1875,15.5625,0
53840,-14.8125,4.4375,13,0
53860,-12.5625,2,11.1875,0
53880,-11.875,1.4375,11.4375,0
53900,-11.4375,-0.3125,10.9375,0
53920,-11.125,-4.1875,10.5,0
53940,-12.9375,-9.5,9.4375,0
53960,-13.8125,-12.0625,9.9375,0
53980,-14.3125,-11.625,10.875,0
54000,-12.9375,-15.5,11.5625,0
54020,-10.5625,-17.375,10.75,0
54040,-12.25,-17.875,10,0
54060,-14.4375,-17,9.4375,0
54080,-12.9375,-17.375,8.875,0
54100,-7.4375,-18.4375,7.4375,0
54120,-0.9375,-18.1875,5.25,0
54140,2,-17.75,4.75,0
54160,-2.25,-15.4375,4.9375,0
54180,-4.625,-17.125,5.0625,0
54200,1.125,-19.875,3.4375,0
54220,5.4375,-20.3125,2.1875,0
54230,3.4375,-20.75,2.1875,0
54250,-1.3125,-21.125,4.875,0
54270,-3.3125,-21.1875,5,0
54290,-3.4375,-21.3125,5.25,0
54310,-2.5625,-21.4375,5.1875,0
54330,-3.875,-20.6875,4.0625,0
54350,-6.875,-21.375,3.0625,0
54370,-6.5625,-23.1875,1.5625,0
54390,-2.6875,-26.6875,-0.5625,0
54410,-0.3125,-27.0625,-2.0625,0
54430,0.25,-28.875,-2.9375,0
54450,0.5,-31,-2.5625,0
54470,-1.9375,-32,-2.125,0
54490,-2.5625,-32.8125,-2.5625,0
54510,-1.8125,-33.4375,-3.125,0
54530,-2.0625,-34.0625,-4.25,0
54550,-3.1875,-36.0625,-4.3125,0
54570,-5.4375,-38.375,-5.75,0
54590,-7.25,-40.5,-6.3125,0
54610,-7.125,-42.9375,-8.5625,0
54630,-7.8125,-44.1875,-10.0625,0
54650,-8.25,-47.0625,-12,0
54670,-10.0625,-49.4375,-11.1875,0
54690,-12,-50.375,-12.1875,0
54710,-11.9375,-51.25,-12.6875,0
54730,-11.1875,-53.125,-14.6875,0
54750,-10.75,-53.3125,-17.75,0
54770,-10.3125,-55.5625,-18.875,0
54790,-10.125,-58.1875,-21.625,0
54810,-11.5,-57,-23.125,0
54830,-13.3125,-57.0625,-24.3125,0
54850,-13.5,-57.75,-26.3125,0
54870,-10.8125,-56.5,-27.9375,0
54890,-8,-55.8125,-28.1875,0
54910,-6.125,-54.9375,-29.6875,0
54930,-6,-52.6875,-32.8125,0
54950,-5.8125,-48.0625,-36.25,0
54970,1.25,-46.6875,-39.3125,0
54990,6.5625,-48.6875,-41.25,0
55010,8.125,-46.625,-44.3125,0
55030,7.1875,-41.9375,-46.3125,0
55050,5.1875,-39,-47.5,0
55070,4.4375,-37.875,-47.5625,0
55090,8.875,-38.25,-47.8125,0
55110,16.0625,-38.6875,-48.0625,0
55130,18,-29.9375,-51.5,0
55150,15.375,-25.9375,-51.75,0
55170,22.875,-20.4375,-52.4375,0
55190,28.25,-21.125,-57,0
55210,27.4375,-23.75,-59.5,0
55230,24.3125,-20.75,-57.0625,0
55250,20.5,-18.3125,-52.625,0
55270,17.4375,-20.375,-49.5625,0
55290,20.0625,-21.25,-50.625,0
55310,21.875,-20.6875,-55.0625,0
55330,14.75,-22.25,-53.75,0
55350,7.6875,-16.9375,-50,0
55370,14.3125,-15.125,-50.1875,0
55390,19.125,-17.5625,-52.875,0
55430,5.8125,-9.6875,-46.3125,0
55450,8.9375,-6.4375,-41.4375,1001
55470,10.5625,-11.9375,-40.5,0
55490,10.625,-13.9375,-39.3125,0
55510,12.1875,-8.0625,-37.5625,0
55530,9.5625,-4,-27.8125,0
55550,3.75,-7,-19.6875,0
55570,1.4375,-14,-13.3125,0
55590,7.1875,-13.0625,-8.3125,0
55610,7.1875,-8.3125,-3.4375,0
55630,1.5,-1.75,1.625,0
55650,2,3.1875,3.8125,0
55670,4.8125,7.125,7.8125,0
55690,7.5,8,14,0
55710,6.6875,5.8125,16.3125,0
55730,-0.5625,9.25,15.125,0
55750,-3.1875,18.75,15.875,0
55770,-0.9375,23.9375,23.75,0
55790,-3.0625,22.5,27.25,0
55810,-7.1875,26.1875,34.25,0
55830,-8.625,30.5625,47.6875,0
55850,-8.125,28.4375,59,0
55870,-4.375,33.1875,62.5,0
55890,-2.125,39.625,61.125,0
55910,0,40.25,59.9375,0
55930,-2.9375,34.5625,60.75,0
55950,-2.625,30.5,65.125,0
55970,2.125,33.25,71.6875,0
55990,5.625,39.9375,75.875,0
56010,8.3125,45.3125,78.375,0
56030,7.5625,42.625,83.5625,0
56070,10.9375,39.4375,91.5,0
56090,11.8125,43,92.375,0
56110,11.5625,39.875,95.5,0
56130,13.0625,32.0625,101.812,0
56150,20.125,31,96,0
56170,25.6875,35.1875,86.9375,0
56190,22.3125,40.4375,83.5,0
56200,15.6875,37.375,88.1875,0
56220,15.0625,32.375,81.75,0
56240,18.1875,33.4375,62.4375,0
56260,25.75,31.5,62.25,0
56280,23.125,34.875,63.5,0
56300,13.125,34.6875,65.125,0
56320,5.4375,28.1875,64.4375,0
56340,7.1875,22.5,58.6875,0
56360,4.3125,20.6875,58.625,0
56380,-2.3125,18.625,56.625,0
56400,-8.4375,13.3125,50.0625,0
56420,-7.0625,8.9375,45.5625,0
56440,-0.625,9.1875,38.4375,0
56460,0.5625,10.4375,34.25,0
56480,-1.75,9,31.6875,0
56500,-2.9375,4.75,29.3125,0
56520,-4.375,2.25,26.75,0
56540,-6.4375,1.5,24.625,0
56560,-5.6875,0.1875,20.6875,0
56580,-0.1875,-2.125,21.25,0
56600,2.5625,-1.0625,20.0625,0
56620,-3,0.5,17.375,0
56640,-9.1875,-1.875,16.4375,0
56660,-6.0625,-6.4375,15.25,0
56680,2.75,-10.25,14.125,0
56700,2.0625,-7.125,14.25,0
56720,-4.8125,-3.875,11.875,0
56740,-10.1875,-6.0625,10.9375,0
56760,-7.125,-8.375,12.1875,0
56780,2.3125,-7.4375,8.0625,1000
56800,7.9375,-4,6.625,0
56820,5.5,-1.8125,4.8125,0
56840,4.375,-2.25,6.125,0
56860,7.875,-2.5625,4.75,0
56880,7,-3.5625,3.625,0
56900,3.5625,-3.6875,4.0625,0
56920,1.375,-2.6875,5.1875,0
56940,1.875,-2.125,5.375,0
56960,4.3125,-3.4375,3.8125,0
56980,4.5,-5.9375,2.125,0
57000,2.6875,-6.9375,-0.125,0
57020,3.8125,-7.375,-2.9375,0
57040,2.8125,-8.625,-2.125,0
57060,1.375,-8.6875,-2.9375,0
57080,3.1875,-8.4375,-3.1875,0
57100,4.625,-8.625,-3,0
57120,2.9375,-7.0625,-1.875,0
57140,0.125,-6.875,-0.875,0
57160,0.6875,-6.375,0.25,0
57180,3.9375,-5.3125,-1.4375,0
57200,5.0625,-5,-1.625,0
57220,5.125,-4.9375,-0.1875,0
57240,4.75,-4.5625,1.125,0
57260,5.375,-4.5625,1.5,0
57280,3.4375,-4.6875,1.6875,0
57300,1.3125,-4.875,1.75,0
57320,2.75,-5.125,1.375,0
57340,4.3125,-5.3125,-0.0625,0
57360,4.8125,-6.625,-2.5625,0
57380,6.75,-7.125,-3.5,0
57400,6.75,-7.625,-5.375,0
57420,4,-9.9375,-4.1875,0
57440,2.3125,-12.375,-1.375,0
57460,2.5625,-12.875,-3.0625,0
57480,1.3125,-13.875,-3.8125,0
57500,-1.5625,-15.5,-3.5,0
57520,-4.1875,-17.9375,-3.5,0
57540,-2.25,-18.6875,-6.4375,0
57560,1.3125,-18.9375,-8.625,0
57580,3.1875,-19.9375,-8.3125,0
57600,5.25,-19.875,-11.125,0
57620,7.125,-20.5,-10.5625,0
57640,6.5625,-19.75,-11,0
57660,5.3125,-19.4375,-14.625,0
57680,6.0625,-19.9375,-17,0
57700,7.5625,-22,-14.75,0
57720,7.8125,-21.9375,-15.8125,0
57740,8.875,-21.4375,-19.25,0
57760,9.6875,-21.5,-19.5625,0
57780,7.3125,-21.8125,-17.1875,0
57800,6.25,-20.75,-18.625,0
57820,7.375,-20.4375,-21.125,0
57840,9.125,-21.5625,-21.6875,0
57860,6.1875,-22.5625,-20,0
57880,5.625,-21.5625,-19.6875,0
57900,9.3125,-20.5,-23.0625,0
57920,11.75,-18.5625,-22.5625,0
57940,10,-19.5,-21.5,0
57960,8.0625,-19.75,-20.8125,0
57980,10.9375,-17,-23.0625,0
58000,13.0625,-13.3125,-25,0
58020,11.75,-10.75,-24,0
58040,9.0625,-9.125,-23.875,0
58060,11.0625,-7.25,-26.6875,0
58080,15.5,-4.625,-29.6875,0
58100,13.9375,-3.375,-27.0625,0
58120,9.75,0.6875,-25.4375,0
58140,11.0625,2.125,-28,0
58160,15.4375,2.9375,-28.125,0
58180,13.5625,3.8125,-27.25,0
58200,8.0625,6.5625,-26.5625,0
58220,7.125,8.0625,-28.5,0
58240,9.375,8.1875,-29.375,0
58260,8.875,8,-28.375,0
58280,6,7.75,-29.75,0
58300,4.875,8.8125,-29.6875,0
58320,3.9375,9.375,-27.625,0
58340,3.8125,10.25,-25.375,0
58360,3.25,9.8125,-25.5625,0
58380,2.9375,9.0625,-22.5,0
58400,1.3125,10.5625,-21.1875,0
58420,1.8125,14.1875,-20.375,0
58440,3.375,14.125,-22.0625,0
58460,2.375,15.4375,-25,0
58480,3.6875,17.6875,-26.75,0
58500,3.5625,17.625,-28.5625,0
58520,4.5,17.125,-29.75,0
58540,3.375,17.625,-30.9375,0
58560,1.5,17.75,-31.125,0
58580,-0.1875,20.0625,-31.4375,0
58600,-0.25,18.9375,-31.25,0
58620,1.5,17.5625,-33.25,0
58640,1.8125,20,-33.375,0
58660,-1,21.6875,-32.8125,0
58680,-3.0625,23.625,-31.875,0
58700,-3.375,26.125,-31.375,0
58720,-2.6875,27.9375,-30.3125,0
58740,-2.1875,28.4375,-28.375,0
58760,-3.875,28,-28.5,0
58780,-3.875,28.5625,-28.8125,0
58800,-4.3125,30.1875,-29.875,0
58820,-4.25,31.875,-28.8125,0
58840,-3.8125,33.0625,-28.4375,0
58860,-2.875,34.4375,-28.6875,0
58880,-3.9375,35.125,-27.375,0
58900,-5.1875,35.5,-25.625,0
58920,-5,36.875,-26.5625,0
58940,-5.875,37.8125,-26.25,0
58960,-7.4375,38.3125,-25.5625,0
58980,-7.9375,36.8125,-23.125,0
59000,-7.3125,35.5,-22,0
59020,-6.375,34.5625,-22.5625,0
59040,-8.25,34.875,-19.8125,0
59060,-12.25,35.375,-17.6875,0
59080,-12.9375,34.625,-16.625,0
59100,-10.8125,33.125,-14.75,0
59120,-10.4375,34.125,-13.8125,0
59140,-11.75,35.9375,-13.1875,0
59160,-11.5625,38.5625,-13.875,0
59180,-11.5625,37.6875,-14.375,0
59200,-11.5625,38.3125,-12,0
59220,-11.5,39.8125,-10.6875,0
59240,-8.375,40.0625,-10.75,0
59260,-7.25,39.6875,-10.6875,0
59280,-9.0625,40.375,-8.8125,0
59300,-10.5,41.0625,-6.875,0
59320,-7.375,39.5,-6.5625,0
59340,-2.875,36.6875,-5.9375,0
59360,-4,36.9375,-6.8125,0
59380,-8.1875,37.9375,-5.125,0
59400,-8.125,36.0625,-1.9375,0
59420,-3.0625,32.125,-3.5,0
59440,1.375,29.75,-3.9375,0
59460,-1.1875,31.1875,-2.25,0
59480,-6.3125,31.125,1.375,0
59500,-6.125,28.625,5.125,0
59520,-4.0625,25.8125,6.125,0
59540,-6.5625,27.125,6.9375,0
59560,-12.25,30.4375,6.25,0
59580,-14.3125,27.1875,8.0625,0
59600,-5.9375,20.1875,8.375,0
59620,-0.75,18.25,6.5,0
59630,-4.5,23.625,9.3125,0
59650,-13.1875,24.625,11.875,0
59670,-15.375,17.3125,12.9375,0
59670,-10.875,12.0625,13.8125,0
59690,-8.3125,14.1875,13,0
59710,-12.4375,17.8125,14.4375,0
59730,-13.625,15.1875,16.375,0
59750,-6,11.4375,12.3125,0
59770,-1.8125,13.9375,12.25,0
59770,-7.3125,19.4375,15.75,0
59790,-8.5,19.4375,17,0
59810,-0.375,15.9375,14.25,0
59830,4.5625,14.75,12.3125,0
59840,-8.875,15.0625,11.5625,0
59860,1.25,9.8125,13.5,0
59870,1,16,13.0625,0
59890,-7.6875,22.3125,14,0
59910,-9.125,18.6875,12.8125,0
59930,-1.125,14.1875,12.9375,0
59950,5.25,17.625,12.125,0
59970,-0.4375,22.75,13.0625,0
59990,-7.875,17.1875,14.0625,0
60010,-5.4375,10,11.6875,0
60030,-2.4375,9,11.4375,0
60050,-9.125,12.375,13.3125,0
60070,-17.6875,11.25,17.1875,0
60090,-16.8125,6.5625,18.1875,0
60110,-10.6875,5.125,18.375,0
60130,-9.0625,8.75,18.25,0
60150,-13.125,13.25,19.0625,0
60170,-11.125,10.8125,21.5625,0
60190,-3.25,6.3125,23.6875,0
60210,0,7.125,22,0
60230,-8.9375,9.1875,23.5,0
60250,-18.8125,8.125,24.625,0
60270,-16.75,5.375,22.5625,0
60290,-8.625,1.5625,22.5,0
60310,-8.9375,2.3125,21.8125,0
60330,-12.3125,-0.3125,22.375,0
60350,-10.125,-6.6875,21.5625,0
60370,-9.625,-9.25,17.8125,0
60390,-10.9375,-8.4375,16.4375,0
60410,-13.9375,-10.1875,17.25,0
60430,-14.0625,-13.5625,15.375,0
60450,-10.9375,-13.875,15.5,0
60470,-8.5,-12.5625,14.125,0
60490,-5,-10.8125,14.0625,0
60510,-3.125,-12.25,13.125,0
60530,-3.4375,-13.625,12.6875,0
60550,-6.25,-12.3125,13.4375,0
60570,-6.625,-11.6875,12.8125,0
60590,-7.125,-12.5,14.3125,0
60610,-9.5625,-12.6875,12.4375,0
60630,-9,-12.1875,11.1875,0
60650,-7.625,-12.5625,10.3125,0
60670,-4.0625,-13.1875,9.3125,0
60690,-1.9375,-14.5625,10,0
60710,-1.5,-15.75,9.6875,0
60730,-2.75,-13.75,9.75,0
60750,-5.9375,-13.125,10.4375,0
60770,-4.4375,-15.6875,10.375,0
60790,-0.25,-19.5,9.4375,0
60810,0.375,-19.875,8.9375,0
60830,-3.3125,-20.5625,8.1875,0
60850,-6.6875,-23.4375,9.5625,0
60870,-8.9375,-25.0625,9.3125,0
60890,-9.0625,-24.125,8.3125,0
60910,-7.1875,-25.0625,7.1875,0
60930,-5,-27.125,7.0625,0
60950,-4.75,-27.125,6.9375,0
60970,-4.9375,-27.625,7.4375,0
60990,-1.625,-29.0625,6.25,0
61010,-1.1875,-32.6875,5.8125,0
61030,-5.875,-35.4375,6.8125,0
61050,-8.9375,-36.25,7.9375,0
61070,-9.0625,-36.1875,7.6875,0
61090,-8.0625,-36.4375,7.625,0
61110,-9.5,-37.875,8.8125,0
61130,-9.8125,-38.9375,7.5625,0
61150,-7.4375,-38.3125,5.8125,0
61170,-10.5,-39.25,4.1875,0
61190,-13.0625,-39.9375,4.5625,0
61210,-12.25,-41.9375,3.875,0
61230,-9.125,-42.375,2.8125,0
61250,-10.0625,-43.1875,1.8125,0
61270,-13,-45.1875,0.75,0
61290,-16.0625,-47.125,1.0625,0
61310,-17.375,-47.5,0.5,0
61330,-15.5625,-48.5,-1.5,0
61350,-12.25,-50.0625,-2.5,0
61370,-9.125,-50.625,-5.25,0
61390,-9.625,-51.6875,-6.625,0
61410,-12.5625,-53.5625,-6.8125,0
61430,-14.0625,-54.625,-5.8125,0
61450,-11.625,-53.3125,-8.4375,0
61470,-11.3125,-51.1875,-8.5625,0
61490,-12.25,-50.875,-11.375,0
61510,-10.1875,-52.6875,-12.4375,0
61530,-6.5625,-54.0625,-12.1875,0
61540,-4.3125,-53.25,-14,0
61560,-5.5625,-51.625,-17.125,0
61580,-10.1875,-53.4375,-16.125,0
61600,-10.75,-54.8125,-17.0625,0
61620,-5.9375,-53.8125,-19.8125,0
61640,-2.1875,-52.25,-19.25,0
61660,-3.875,-50.5625,-15.5,0
61680,-4.875,-47.5,-16.375,0
61700,-4.3125,-47,-16.625,0
61720,-4,-45.25,-15.8125,0
61740,-2.6875,-41.1875,-16.6875,0
61760,1.25,-36.9375,-17.9375,0
61780,2.375,-34.5,-17.75,0
61800,2.625,-33.25,-18,0
61820,2.625,-32.5,-19,0
61840,2.5,-30.9375,-20.5,0
61860,0.8125,-29.3125,-18.9375,0
61880,0.9375,-26.4375,-16.75,0
61900,3.125,-23.5,-17.0625,0
61920,5.0625,-23.125,-18.4375,0
61940,4.0625,-22.25,-22.125,0
61960,2.75,-21.4375,-22.3125,0
61980,4.3125,-20.6875,-20.625,0
62000,6.5625,-20,-22.25,0
62020,8.625,-18.375,-24.6875,0
62040,5.3125,-16.75,-24.125,0
62060,0.625,-16.4375,-21.9375,0
62080,0.5625,-16.125,-22.875,0
62100,3.25,-15.375,-23.8125,0
62120,2.5,-13.75,-24.9375,0
62140,-1.3125,-12.25,-23.9375,0
62160,-0.3125,-12.4375,-26.9375,0
62180,1.1875,-10.0625,-28,0
62200,0.75,-5.3125,-29,0
62220,-1.75,-4,-29,0
62240,-2.125,-4.1875,-28.875,0
62260,-1.75,-2.3125,-29.25,0
62280,-1.9375,-0.75,-29.125,0
62300,-4.125,1,-28.5,0
62320,-2.375,4.125,-30.5,0
62340,-2.5625,4.8125,-29.625,0
62360,-4.25,6.625,-29.375,0
62380,-3.8125,7.8125,-29.875,0
62400,-3.5,9.375,-30.1875,0
62420,-4.1875,13.3125,-30.3125,0
62440,-5.9375,15.625,-29.875,0
62460,-5.375,15.5625,-29.3125,0
62480,-5.5625,15.5625,-28.25,0
62500,-6.1875,17.75,-26.5,0
62520,-6,18.875,-26.25,0
62540,-5.6875,17.875,-27.75,0
62560,-7.25,18.8125,-28.8125,0
62580,-8.25,19.4375,-28.0625,0
62600,-8.125,18.0625,-27.5,0
62620,-7.5,16.1875,-28,0
62640,-9,16.9375,-28.1875,0
62660,-8.875,18.0625,-28.0625,0
62680,-8.125,17.1875,-29.6875,0
62700,-8.125,17.125,-30.4375,0
62720,-8.625,19.375,-31.5,0
62740,-7.4375,19.4375,-31.25,0
62760,-6.75,20,-32.9375,0
62780,-8.1875,20.375,-32.5,0
62800,-7.5,22.5,-30.5625,0
62820,-7.9375,21.5,-30.25,0
62840,-9.875,22.9375,-29.1875,0
62860,-10.5625,23.4375,-28.9375,0
62880,-9.5625,23.8125,-28.1875,0
62900,-10.3125,25.4375,-28.1875,0
62920,-12.5,27.9375,-26.9375,0
62940,-12.125,29.25,-23.125,0
62960,-9.5625,30.6875,-22.4375,0
62980,-11,32.625,-21.9375,0
63000,-12.75,34.625,-22,0
63020,-12.8125,36.875,-21.4375,0
63040,-13.125,37,-18.6875,0
63060,-12.5,36.1875,-16.6875,0
63080,-12.1875,37.875,-15.5,0
63100,-13.25,41.4375,-13.875,0
63120,-13.1875,42.875,-10.0625,0
63140,-11,42.625,-6.875,0
63160,-12.0625,42.4375,-3.125,0
63180,-13,44.4375,-1.0625,0
63200,-11.9375,45.125,1.3125,0
63220,-9.4375,40.875,2.875,0
63240,-8.6875,39.5625,3.3125,0
63260,-9.5625,41.5,5.5,0
63280,-11.8125,42.4375,8.9375,0
63300,-8.4375,38.4375,10.25,0
63320,-3.0625,34.25,8.5,0
63340,-5.4375,33.6875,10.3125,0
63350,-10.8125,38.75,16.9375,0
63370,-9.8125,38.5625,18.25,0
63390,-4,29.125,17.4375,0
63410,-2.8125,26.25,18.125,0
63430,-9.875,30.1875,18.4375,0
63450,-14,29.875,22.25,0
63470,-8.875,24.1875,21.8125,0
63490,-4.625,21.9375,20.6875,0
63510,-7.75,26,21.5625,0
63530,-15.5625,28.1875,23.25,0
63550,-14.3125,23.625,21.6875,0
63570,-7.6875,21.9375,18.0625,0
63610,-10.8125,27.25,18.5,0
63630,-10.9375,23.375,20.3125,0
63650,-3.5625,20.375,17.75,0
63660,-11.0625,25.8125,22.0625,0
63680,-14.5625,28.375,21.625,0
63700,-8.4375,21.1875,16.5625,0
63720,-0.75,16.9375,15.3125,0
63740,-3.125,23.0625,15,0
63760,-11.9375,27.375,16.5625,0
63780,-10.0625,24.625,16.1875,0
63800,-2.4375,18.0625,15.5625,0
63820,-2.5,19.8125,15.25,0
63840,-11.8125,26.0625,18.0625,0
63860,-18.375,25.875,19.75,0
63880,-13.9375,21.6875,20.75,0
63900,-7.25,21.9375,19.6875,0
63920,-10.4375,27.375,21.0625,0
63940,-17.5,27.75,22.5625,0
63960,-17.625,21.75,23.0625,0
63980,-11.75,18.9375,21.75,0
64000,-9.75,19.75,22.0625,0
64020,-13.6875,18.5625,23.375,0
64040,-17.4375,13.9375,24.875,0
64060,-17.4375,11.1875,22.75,0
64080,-17.0625,11.9375,22.25,0
64100,-20.125,14.6875,25.1875,0
64120,-19.75,13.75,27.375,0
64140,-13.4375,10.0625,28.0625,0
64160,-11.375,10.9375,24.9375,0
64180,-17.9375,13.5625,23.5,0
64200,-22.125,12.3125,23.375,0
64220,-13.5625,7.8125,21.25,0
64240,-2.75,4.5,20.0625,0
64260,-1.125,7.3125,18.375,0
64280,-7.875,6.375,19,0
64300,-8.4375,0.5625,18.1875,0
64320,-5.4375,-4.1875,17.6875,0
64340,-5.625,-3.9375,16.625,0
64360,-11,-4.5625,15.875,0
64380,-15.5,-6.625,16.6875,0
64400,-13.125,-9.625,15.8125,0
64420,-5.5,-10.1875,13.8125,0
64440,-0.5,-12.4375,12.0625,0
64460,-3.75,-13.125,12.875,0
64480,-9.375,-12.75,13.75,0
64500,-10,-13.5,14.25,0
64520,-8.4375,-16.6875,16,0
64540,-4.6875,-17.125,15.5625,0
64560,-3.1875,-16.0625,15.125,0
64580,-5.1875,-16.375,14.25,0
64600,-5.375,-17.875,13.5625,0
64620,-0.25,-20.5,13.6875,0
64640,2.5625,-20.9375,12.6875,0
64660,1.25,-19.875,12.3125,0
64680,-3.9375,-22.0625,13.0625,0
64700,-10.3125,-22.25,12.8125,0
64720,-11.25,-21.6875,12,0
64740,-7.5625,-21.375,11.1875,0
64760,-4.625,-22,9.375,0
64780,-4.1875,-22.3125,8.25,0
64800,-4.3125,-21.1875,6.5,0
64820,-2.1875,-22.3125,4.75,0
64840,-4.25,-22.875,3.625,0
64860,-7.9375,-22.625,2.4375,0
64880,-10.6875,-23.25,2.5,0
64900,-9.625,-22.875,2.5,0
64910,-7.5625,-24.125,1.375,0
64930,-8,-24.5625,0.5,0
64950,-9.5625,-25,0.5,0
64970,-8.75,-26.25,1.5,0
64990,-8.1875,-26.5625,1.625,0
65010,-8.625,-26.6875,2.75,0
65030,-11.0625,-28.1875,2.8125,0
65050,-10.75,-28.75,2.875,0
65070,-9.375,-29,3.1875,0
65090,-8,-28.9375,3.625,0
65110,-10.5625,-29.5,4.625,0
65130,-13,-30.625,6.125,0
65150,-9.0625,-30.875,5.5625,0
65170,-6.8125,-30.375,5.4375,0
65190,-10.1875,-31.1875,5.875,0
65210,-14.25,-33.0625,5.75,0
65230,-15.25,-32.6875,4.5,0
65250,-12.5625,-29.75,2.375,0
65270,-9.9375,-28.4375,0.6875,0
65290,-6.25,-28.5625,-0.5625,0
65310,-3.9375,-29.0625,-1.375,0
65330,-4.625,-28.3125,-1.6875,0
65350,-5.6875,-26.6875,-3.8125,0
65370,-9.5625,-28.0625,-5.375,0
65390,-9.6875,-29.8125,-8.25,0
65430,-4.1875,-34.1875,-8.875,0
65450,-2.25,-34.375,-10.375,0
65470,-4.5625,-35.5625,-10.3125,0
65490,-8.0625,-36,-11.8125,0
65510,-10.3125,-37.125,-11.75,0
65530,-9.3125,-39.375,-13.625,0
65550,-4.75,-41.9375,-16,0
65570,-3.5625,-42.1875,-16,0
65590,-4.375,-40.5,-18.6875,0
65610,-6.5,-40.6875,-19,0
65630,-7.75,-41.5,-20.5,0
65650,-3.6875,-41.25,-23.8125,0
65670,6.25,-41.375,-27,0
65690,9.0625,-43.875,-28,0
65710,5.5625,-44.625,-27.9375,0
65730,3.8125,-45.5625,-31,0
65750,1.125,-47.25,-31.25,0
65770,-2.125,-48.3125,-32.25,0
65790,-1.3125,-46.125,-32.0625,0
65810,0.625,-43.125,-31.125,0
65830,4.8125,-39.8125,-32.4375,0
65850,9.3125,-38.6875,-34.625,0
65870,10.8125,-35.75,-34.8125,0
65890,9.6875,-30.875,-33.75,0
65910,9.8125,-24.625,-33.0625,0
65930,13.5625,-20.375,-35.4375,0
65950,15.5625,-21,-33.125,0
65970,14.125,-20.8125,-30.6875,0
65990,10.375,-15,-32.375,0
66010,9.625,-10.3125,-30.5,0
66030,11.75,-11.25,-28.5625,0
66050,14.8125,-13.4375,-32.125,0
66070,14.8125,-14.25,-34.6875,0
66090,11.25,-13.125,-32.4375,0
66110,5.625,-10.5,-29.9375,0
66130,5.5625,-8.875,-31.3125,0
66150,12.1875,-7.125,-33.5,0
66170,13.0625,-6.125,-36.625,0
66190,4.5,-6.375,-34.125,0
66210,1.0625,-4,-35.4375,0
66230,5.375,-0.8125,-37.0625,0
66250,6.4375,1.8125,-34.6875,0
66270,2.0625,3.25,-30.1875,0
66290,1.875,2.625,-33.5,0
66310,1.9375,4.375,-36.1875,0
66330,-1.125,7.875,-35.75,0
66350,-2.5625,9.375,-32.8125,0
66370,-0.1875,9.25,-34.8125,0
66390,0.375,11.75,-36.375,0
66410,-4.6875,14.4375,-34.9375,0
66430,-6,15.6875,-32.125,0
66450,-2.875,13.875,-31.4375,0
66470,-0.625,14.125,-31.1875,0
66490,-4.375,17.375,-28.5625,0
66510,-8.625,22,-25.875,0
66530,-4.625,22.4375,-25.4375,0
66550,-2,18.875,-24.75,0
66570,-3.9375,19.25,-25.1875,0
66590,-7.125,22.375,-25,0
66610,-8.625,23.625,-22.9375,0
66630,-7,22.125,-22.1875,0
66650,-6.375,21.375,-21.3125,0
66670,-7.375,21.8125,-19.9375,0
66690,-9.6875,23.0625,-16.875,0
66710,-9.0625,23.5,-15.75,0
66730,-7.6875,24.0625,-17.3125,0
66750,-8,24.3125,-16.9375,0
66770,-8.875,24.9375,-15.125,0
66790,-8.9375,27.125,-15.8125,0
66810,-7.25,28.3125,-15.25,0
66830,-5.6875,28.8125,-15.125,0
66850,-7,29.75,-15.9375,0
66870,-7.625,31.8125,-15.9375,0
66880,-6.8125,32.9375,-14.1875,0
66900,-7.625,32.6875,-12.5625,0
66920,-8.8125,35.4375,-9.375,0
66940,-9.125,36.6875,-7.5,0
66960,-8.375,35.0625,-6.3125,0
66980,-9,34.5,-8.1875,0
67000,-10.5,36.3125,-5.875,0
67020,-10.3125,33.75,-2.3125,0
67040,-8.9375,30.125,-3.6875,0
67060,-9.25,32.3125,-4.125,0
67080,-14,34.875,-0.5,0
67100,-14.875,35.8125,3.5625,0
67120,-12.625,33.9375,3.5,0
67140,-12.0625,32.0625,3.375,0
67160,-13,31.3125,6.5,0
67180,-17.125,33.1875,11.125,0
67200,-19,33.25,12.75,0
67220,-18.625,30.8125,14.5625,0
67240,-17.6875,29.6875,15.75,0
67260,-18.25,34.3125,17.625,0
67280,-19.1875,37.75,19.375,0
67300,-17.4375,34.5625,20.6875,0
67320,-14.3125,32.3125,20.25,0
67340,-14,33.3125,19.0625,0
67360,-17.0625,33.0625,19.9375,0
67380,-15.6875,27.9375,21.875,0
67400,-12.625,24.8125,19.9375,0
67420,-12.25,24.0625,19.625,0
67440,-16.75,24.75,21.0625,0
67460,-19.0625,22.8125,22.25,0
67480,-17.875,19.6875,23.3125,0
67500,-15.125,20.9375,22.5,0
67520,-16,21.4375,23.5,0
67540,-17.625,17.9375,22.6875,0
67560,-14.75,15.6875,20.1875,0
67580,-14.3125,15.125,19.3125,0
67600,-17.5,18.0625,19.9375,0
67620,-20.3125,18.1875,23.5,0
67640,-18.0625,15.3125,24.375,0
67660,-14.4375,17,24.75,0
67680,-17.125,23.375,27.0625,0
67700,-21.875,27.75,31.875,0
67720,-21.8125,26.4375,34,0
67740,-15.5625,21.125,32.5,0
67760,-10.75,21.6875,31.375,0
67780,-16.375,28.5625,31.5,0
67800,-28.5625,28.9375,34.9375,0
67820,-32.0625,25.3125,33.625,0
67840,-24.5625,24.125,28.875,0
67860,-20.5625,27.875,26.125,0
67880,-27.6875,26.875,27.125,0
67900,-30.8125,23.3125,26.875,0
67920,-26.75,25.5,24.3125,0
67940,-29.5625,29.8125,26.625,0
67960,-36.0625,30.0625,28.8125,0
67980,-32.8125,24.3125,29.5625,0
68000,-19.0625,23.0625,24.375,0
68020,-13.5,23.4375,21.6875,0
68040,-16.875,18.75,21.8125,0
68060,-18.125,15.0625,19.3125,0
68080,-17.0625,10.9375,15.75,0
68100,-21.25,8.5625,13.5,0
68120,-27.75,5.25,12.75,0
68140,-29.8125,4.4375,11.3125,0
68160,-19.625,2,9.375,0
68180,-6.625,-2.0625,7.25,0
68200,-4.6875,-4.3125,5.3125,0
68220,-9.25,-2.9375,5.3125,0
68240,-16.3125,-1.9375,6.6875,0
68260,-14.4375,-3.5625,8.375,0
68280,-13.1875,-6.1875,9.6875,0
68300,-19.0625,-4.5625,9.0625,0
68320,-24.3125,-2.4375,9.4375,0
68340,-23.75,-4.0625,7.8125,0
68360,-16.4375,-5.875,5.4375,0
68380,-9.375,-5.625,5.25,0
68400,-11.6875,-6.625,7.25,0
68420,-13.4375,-7.625,6.8125,0
68440,-14.3125,-8.1875,7.25,0
68460,-15.625,-10.0625,8.8125,0
68480,-15.1875,-9.0625,8.25,0
68500,-12.875,-9.1875,6.1875,0
68520,-14.3125,-9.25,5.8125,0
68540,-18.9375,-11.1875,3.5625,0
68560,-25.1875,-10.875,3.0625,0
68580,-27.5625,-9.4375,1.25,0
68610,-22.1875,-11.0625,1.9375,0
68630,-20.9375,-11.4375,1.8125,0
68650,-22.5,-10.4375,-0.0625,0
68660,-22.125,-10.75,0.1875,0
68680,-16.1875,-14.125,-0.3125,0
68700,-10.875,-17.75,-3.5625,0
68720,-9.9375,-21.625,-6.4375,0
68740,-12.625,-25.75,-6.875,0
68760,-12.875,-29.75,-5.5625,0
68780,-12.0625,-31.1875,-4.25,0
68790,-11.625,-32.25,-3.375,0
68810,-8.75,-33.125,-3.125,0
68830,-6.5,-33.125,-2.5625,0
68850,-8.3125,-33.75,-3.25,0
68870,-8.125,-35.1875,-3.375,0
68890,-6.75,-36.0625,-2.875,0
68910,-8.375,-35.25,-2.125,0
68930,-10.875,-32.4375,-0.5625,0
68950,-13.3125,-30.5625,1.0625,0
68970,-12.3125,-31.4375,0.8125,0
68990,-7.375,-32.125,-1.5,0
69010,-4.8125,-35.375,-2.75,0
69030,-4.8125,-37.0625,-3.25,0
69050,-9.3125,-37.5,-3.8125,0
69070,-11.8125,-36.25,-4.875,0
69090,-6.9375,-36.375,-4.6875,0
69110,-2.5,-37.3125,-6.5625,0
69130,-2.5,-36.6875,-6.9375,0
69150,-4.5625,-35.125,-6.8125,0
69170,-2.4375,-35.75,-7,0
69190,0.8125,-36.1875,-8.875,0
69210,0.6875,-36.25,-10,0
69230,1.9375,-37.375,-12.625,0
69250,4.4375,-37.8125,-15.0625,0
69270,6.9375,-37.875,-17.125,0
69290,10.8125,-39,-19.9375,0
69310,13.875,-38.375,-22.0625,0
69330,14.3125,-34.5625,-23.375,0
69350,14,-35,-23.625,0
69370,14.4375,-38.6875,-26.5625,0
69390,19.6875,-40.1875,-32.8125,0
69410,18.875,-37.4375,-37.4375,0
69430,15.3125,-36.125,-37.4375,0
69450,13.625,-42.4375,-34.8125,0
69470,15.5,-49.375,-37.25,0
69490,14.625,-52.4375,-37.875,0
69510,7.375,-51.3125,-40.8125,0
69530,-10.125,-49.0625,-37.3125,0
69550,-23.0625,-49.75,-33.75,0
69570,-19.125,-59,-33,0
69590,-7.8125,-59.9375,-37.5,0
69610,2.625,-49.0625,-43.5,0
69630,5.125,-43.375,-44,0
69650,-0.125,-46.625,-48.375,0
69670,5.375,-52.375,-50.3125,0
69690,18.875,-48.3125,-46,0
69710,21.5625,-42.4375,-47.6875,0
69730,9.6875,-42.4375,-42.1875,0
69750,8.5,-36,-44.75,0
69770,18.75,-36.5,-48.125,0
69790,22.125,-33.1875,-51.9375,0
69810,18.1875,-27.875,-55.125,0
69830,19.8125,-22.25,-53.6875,0
69850,27.25,-16.4375,-59.375,0
69870,30.3125,-19.5625,-63,0
69890,24.0625,-17.8125,-62.875,0
69910,21.25,-12.625,-57.8125,0
69930,28.625,-1.5625,-59.375,0
69950,27.75,-3.1875,-61.875,0
69970,19.5,-8.5625,-53.6875,0
69990,15.1875,-6.4375,-52.3125,0
70010,19.1875,1.1875,-55.75,0
70030,17.125,5.75,-48.3125,0
70050,13.5625,4.0625,-40.0625,1001
70070,15.25,2.5625,-38.875,0
70090,22.625,7.5,-44.3125,0
70110,22,8.9375,-44.5625,0
70130,11.8125,6,-32.0625,0
70150,14.5625,13.8125,-28.1875,0
70170,26.6875,18.8125,-29.9375,0
70190,30.8125,15.5625,-26.25,0
70210,18.125,8.6875,-17.5,0
70230,14.4375,4.75,-14.25,0
70250,19.8125,5.8125,-11.0625,0
70270,14.25,7.5625,-4.3125,0
70280,-2.4375,-0.125,14.8125,0
70300,-4.6875,-1.625,25.3125,0
70320,-4.0625,-2.75,31.8125,0
70340,-3.4375,1.0625,38.25,0
70360,-17.5625,11.625,43.8125,0
70380,-15.8125,19,54.0625,0
70400,-6.3125,19.6875,65.625,0
70420,-6.375,23.25,71.1875,0
70440,-7,36.3125,73.9375,0
70460,-0.375,49.125,77.0625,0
70480,-2.1875,46.25,93.3125,0
70500,-3.0625,40.1875,107.75,0
70520,-4.375,45.25,97.4375,0
70540,-1.5,54.9375,91.0625,0
70560,2.4375,59.5,89.75,0
70580,8.6875,55.1875,97.5625,0
70600,9.4375,52.125,103.25,0
70620,3.4375,55.375,99,0
70640,5.5625,51.5625,94.625,0
70660,16.9375,44.625,88.875,0
70680,26.1875,40.9375,81,0
70700,26,44.625,81.6875,0
70720,19.8125,46,82.5,0
70740,16.625,39.1875,83.6875,0
70760,22.25,33.1875,81.8125,0
70780,30,32.5,84.3125,0
70800,28,37.4375,88.9375,0
70820,22.9375,39.3125,88.875,0
70840,23.1875,36.625,83.0625,0
70860,30.1875,36.625,79.0625,0
70880,36,40.25,80.4375,0
70900,32.3125,41.9375,84.6875,0
70920,23.0625,37.5625,84.375,0
70940,19.5625,38.375,76.625,0
70960,16.6875,36.4375,73.1875,0
70980,8.9375,31.5,72.125,0
71000,6.5625,25.3125,70.9375,0
71020,8.4375,24.25,66.1875,0
71040,11.1875,26.3125,61,0
71060,10.375,23.5625,61.8125,0
71080,10.875,25.25,63,0
71100,11.8125,31.3125,59.25,0
71120,11.6875,34.1875,57.1875,0
71140,7.1875,32.125,59.75,0
71160,9.125,32.5625,60.6875,0
71180,15.8125,35.6875,60.75,0
71200,17,40.0625,61.25,0
71220,11.0625,41.5,59.75,0
71240,7.9375,38.6875,53.4375,0
71260,12.3125,36.0625,48.9375,0
71280,20.125,35.5,49.5,0
71300,16.1875,31.75,48.25,0
71320,14.0625,23.0625,32.3125,0
71340,14.8125,13.6875,19.0625,0
71360,10.0625,5,6.875,0
71380,5.5,-3.25,-8.1875,0
71400,9.875,-12.8125,-21.75,0
71420,15.625,-23.3125,-34.6875,0
71440,12.5,-32.75,-44.875,0
71460,1.3125,-39.8125,-50.5,0
71480,-4.1875,-47.1875,-57.0625,0
71500,-5.25,-53,-62.1875,0
71520,-3.625,-53.625,-63.75,0
71540,-5.75,-57.375,-59.9375,0
71560,-11,-59.0625,-59.3125,0
71580,-16.25,-60.0625,-55.625,0
71600,-20.25,-59.8125,-54.0625,0
71620,-19.8125,-59.3125,-53.5,0
71640,-16.125,-58.5,-47.9375,0
71660,-10.9375,-53.3125,-48.75,0
71680,-10.75,-46.375,-50.0625,0
71700,-11.8125,-43.8125,-42,0
71720,-12.375,-37.3125,-33.25,0
71740,-9,-29.8125,-29.625,0
71760,-7.25,-28.1875,-20.375,0
71780,-10.5625,-20.6875,-16.5625,0
71800,-11,-12,-10,0
71820,-5,-6.0625,-5.625,0
71840,5.5625,-5.625,2.875,0
71860,6.6875,-3.4375,0.4375,0
71880,6.5,0.4375,-9.0625,0
71900,7.5,-0.125,-3.5,0
71920,4.5625,-1.1875,-3.3125,0
71940,0.875,-3.5625,-0.75,0
71960,1.8125,-4.6875,-2,0
71980,4.75,-4.625,-8.25,0
72000,4.3125,-6.9375,-4.6875,0
72020,1.375,-7.125,-1.9375,0
72040,-2.0625,-5.875,-0.125,0
72060,-2.1875,-4.125,0.4375,0
72080,-1.25,-1.4375,-1.1875,0
72100,-0.1875,-0.5625,1.5625,0
72120,-0.0625,1,2.1875,0
72140,0.8125,2.5,3.75,0
72160,0.3125,2.875,5.9375,0
72180,1.5,3.625,4.5,0
72200,3.375,1.4375,3.625,0
72220,2.625,0.875,0.9375,0
72240,3.125,-0.625,-1.75,0
72260,2.625,-3.5,1.625,0
72270,-0.6875,-5.375,2.25,0
72290,-1.3125,-8,-1.0625,0
72310,2.0625,-8.9375,-1.0625,0
72330,1.875,-10.9375,-4.1875,1000
72350,1.5625,-12,-2.375,0
72370,-0.5,-9.0625,0.0625,0
72390,-2.875,-9.0625,-1.75,0
72410,-0.625,-11.8125,-3,0
72430,3.4375,-12.6875,-3.25,0
72450,4.5625,-14.3125,-4.1875,0
72470,-1.0625,-14.4375,-3.75,0
72490,-7.125,-14.0625,-4.1875,0
72510,-5.125,-12.0625,-4.875,0
72530,2.3125,-9.8125,-8.25,0
72550,5.25,-8.125,-7.6875,0
72570,4.125,-3.6875,-6.8125,0
72590,2.3125,-2.6875,-5.625,0
72610,1.25,0.125,-2.375,0
72630,0.5,3.4375,-0.6875,0
72650,-1.25,3.6875,-0.6875,0
72670,1.1875,3.6875,-1.3125,0
72690,1.6875,3.5625,0.5,0
72710,3.9375,3.8125,-3.8125,0
72730,7.25,2.375,-4.8125,0
72750,7.0625,-1.75,-3.6875,0
72770,5.5625,-5.125,-4.6875,0
72790,6.8125,-7.5625,-6.8125,0
72810,4.3125,-11.125,-7.625,0
72830,-3.25,-14.75,-4.5,0
72850,-6.375,-18.125,-3.4375,0
72870,-1.9375,-19.8125,-6.5625,0
72890,-0.875,-21.1875,-8.8125,0
72910,-4.25,-22.8125,-6.0625,0
72930,-5.6875,-24.375,-6.5625,0
72950,-3.75,-26.5625,-7.875,0
72970,-2.75,-25.6875,-8.125,0
72990,-3.9375,-24.875,-7.0625,0
73010,-4.6875,-24.75,-6.5625,0
73030,-5.5,-24.4375,-4.625,0
73050,-2.6875,-24.5,-6.5625,0
73070,-1.1875,-25.1875,-7.8125,0
73090,-1.25,-24.8125,-8.5,0
73110,-0.3125,-27.25,-9.625,0
73130,0.375,-29.0625,-9.9375,0
73150,-1.8125,-28.25,-10.4375,0
73170,-3.1875,-26.6875,-13.5,0
73190,-1.6875,-26.3125,-15.625,0
73210,2.8125,-27.4375,-15.75,0
73230,3.9375,-27.4375,-16.125,0
73250,1.8125,-23.8125,-19.8125,0
73270,-0.5,-18.625,-20.9375,0
73290,-0.3125,-17.3125,-17.125,0
73310,2.6875,-17,-17.875,0
73330,6.3125,-14.4375,-20.625,0
73350,5.8125,-10.625,-21.0625,0
73370,2.5625,-10.8125,-19.8125,0
73390,1.6875,-11.625,-18.375,0
73410,4.625,-9.8125,-19.8125,0
73430,7.4375,-7,-23.75,0
73450,5.9375,-5.1875,-22.9375,0
73470,2.0625,-4.375,-20.1875,0
73490,2.1875,-3,-20.5625,0
73510,6.25,-2.5,-23.75,0
73530,4,2.6875,-23.8125,0
73550,1.3125,6.5,-22.8125,0
73570,4.9375,5.1875,-22.125,0
73590,7.25,6.375,-22.6875,0
73610,3.375,11.9375,-24.4375,0
73630,0,15.4375,-22.5,0
73650,3.375,14.5625,-22.8125,0
73670,5,12.375,-26.0625,0
73690,2.4375,14.3125,-27.375,0
73710,-0.875,17.4375,-28.5625,0
73730,-0.875,16.375,-28.8125,0
73750,-1.375,16.9375,-27.8125,0
73770,-1.75,18.625,-30,0
73790,-1.5625,23.0625,-28.4375,0
73810,-2.6875,26.9375,-28.5,0
73830,-3.5,27.6875,-27,0
73850,-2.9375,29.5625,-27.3125,0
73870,-2.875,30.9375,-27.25,0
73890,-4.3125,30.4375,-28.3125,0
73910,-5.6875,30.4375,-27.375,0
73930,-5.375,33.125,-26.125,0
73950,-4.5625,34.5,-24.9375,0
73970,-5.1875,34.125,-24.875,0
73990,-8.125,32.9375,-22.3125,0
74010,-8,33.875,-23.125,0
74030,-8.5625,35.0625,-24.3125,0
74050,-8.9375,34.5625,-25.1875,0
74070,-10.0625,32.8125,-24.75,0
74090,-9.9375,32.6875,-24.0625,0
74110,-9.125,33.5625,-25.3125,0
74130,-7.75,33.375,-25.4375,0
74150,-8.3125,32.25,-25.3125,0
74170,-9.5625,31.5625,-24.3125,0
74190,-11.3125,33.1875,-22.3125,0
74210,-11.875,35.6875,-20.1875,0
74230,-11.125,36.3125,-19.25,0
74250,-10,35.5625,-19.875,0
74270,-11.5,35.625,-20.5,0
74290,-12.0625,36.625,-20.75,0
74310,-11.9375,36.875,-19.9375,0
74330,-10.125,35.625,-19.5625,0
74350,-9.5625,35.3125,-19.75,0
74370,-11.0625,35.25,-19.4375,0
74390,-11.5,36.875,-17.1875,0
74410,-12.0625,37.75,-15.1875,0
74430,-10.6875,36.625,-13.3125,0
74450,-9.5625,36.5,-12,0
74470,-11.0625,38.8125,-9.25,0
74490,-12.75,42.6875,-7.1875,0
74510,-11.75,43.375,-8.125,0
74530,-10.5,41.625,-3.625,0
74550,-11.0625,41.4375,-1.6875,0
74570,-8.6875,40.3125,-1.5,0
74590,-6.5625,40.75,0.5,0
74610,-8.625,38.8125,1.8125,0
74630,-10.8125,37.375,4.1875,0
74650,-8.75,36.5,5.125,0
74670,-7.0625,35.125,5.1875,0
74690,-6.4375,32.75,6.0625,0
74710,-6.9375,29.375,6.875,0
74730,-6.5625,26.4375,8.1875,0
74750,-9.25,24.375,8.625,0
74770,-9.875,21.375,10.375,0
74790,-10.5625,19.9375,10.3125,0
74810,-9.5,20,11.4375,0
74830,-9.9375,20.8125,12.3125,0
74850,-11.5,24.125,15.25,0
74870,-13.3125,26.5,17.0625,0
74890,-9.75,22.0625,17.4375,0
74910,-5.875,20.3125,16.125,0
74930,-8.6875,23.8125,18.4375,0
74950,-12.4375,25.25,20.5,0
74970,-11.3125,19.6875,17.6875,0
74990,-7.1875,15.4375,15.25,0
75010,-6.1875,16.375,14.125,0
75030,-9.6875,17.9375,16.5625,0
75050,-13.125,16.75,14.625,0
75070,-7.8125,11.0625,11.9375,0
75090,-2.125,8.1875,14.0625,0
75110,-6.1875,12.0625,13.25,0
75130,-13.6875,12.125,16.3125,0
75150,-15.1875,8.625,16.625,0
75170,-11.6875,5.875,16.1875,0
75190,-9.0625,6.125,16.6875,0
75210,-8.3125,7.1875,15.375,0
75230,-8.1875,6.5,12.1875,0
75250,-6.9375,5.8125,11.1875,0
75270,-6.4375,6,11.875,0
75290,-4.5,3.6875,12.125,0
75310,-1.375,2.4375,11.1875,0
75330,-0.75,5.5,10.5625,0
75350,-7.4375,8.125,12.25,0
75380,-4.4375,10.5625,16.5,0
75400,-10.4375,11.125,17.5625,0
75410,-6.0625,14.625,21.625,0
75430,-10,16.1875,25.375,0
75450,-8.9375,11.9375,25,0
75470,-6,10.625,22.0625,0
75490,-7.375,14.125,18.625,0
75510,-11.625,13.625,18.625,0
75530,-10.4375,9.375,17.9375,0
75550,-5.5625,8,16.5,0
75570,-4.375,9.125,16.75,0
75590,-9.8125,8.125,18.6875,0
75610,-13.125,5.5625,19.0625,0
75620,-12.1875,2.4375,15.5,0
75640,-13.25,-0.1875,14.0625,0
75660,-11.75,-0.875,13.9375,0
75680,-8.1875,-3.25,14.0625,0
75700,-4.8125,-6.625,14.1875,0
75720,-4.9375,-7.8125,14.4375,0
75740,-8.3125,-6.625,14.6875,0
75760,-9.125,-9.1875,14.6875,0
75780,-4.9375,-13.125,12.375,0
75800,-1.5,-16.125,11.25,0
75820,-7,-17.3125,11.1875,0
75840,-11.6875,-18.125,11.875,0
75860,-8,-20.9375,11.875,0
75880,-2.5625,-20.9375,11.25,0
75900,-3.4375,-19.5625,10.5625,0
75920,-7.625,-20.6875,11.6875,0
75940,-7.4375,-20.375,13.25,0
75960,-5.1875,-18.875,11.5625,0
75980,-3.75,-19.625,11.25,0
76000,-0.6875,-19.5625,9.9375,0
76020,-1.3125,-18.0625,10.6875,0
76040,-3.0625,-18.375,11.4375,0
76060,-2.375,-18.125,10.875,0
76080,0.1875,-17.8125,11.5625,0
76100,1.75,-18.375,11.375,0
76120,4.3125,-21.5625,9.375,0
76140,3.4375,-24.8125,7.125,0
76160,-1.75,-27.9375,4.4375,0
76180,-6.0625,-30.4375,3.4375,0
76200,-6,-32.125,2.5,0
76220,-5.3125,-32.5,1.25,0
76240,-5.5625,-35,1.75,0
76260,-7.25,-34.5625,2.125,0
76280,-8.8125,-35.8125,1.0625,0
76300,-8.75,-35.875,-0.1875,0
76320,-9.75,-37.1875,-0.8125,0
76340,-9.0625,-39.6875,-1.8125,0
76360,-5.5,-42.75,-3.875,0
76380,-5.1875,-44.75,-4.875,0
76400,-8.4375,-44.6875,-4.875,0
76420,-12,-44.375,-5.9375,0
76440,-12.75,-46,-5.1875,0
76460,-10,-48.25,-6.8125,0
76480,-7.3125,-47.375,-7.4375,0
76500,-8.25,-45.25,-8.1875,0
76520,-8.125,-43.875,-10.1875,0
76540,-6.25,-45,-8.9375,0
76560,-3.3125,-46.0625,-9.1875,0
76580,-0.625,-46.75,-10.75,0
76600,-1.4375,-48.3125,-12.5625,0
76620,-5.3125,-49.8125,-13.4375,0
76640,-9,-51.125,-12,0
76660,-9.0625,-52.5625,-11.6875,0
76680,-3.75,-53.9375,-15.75,0
76700,0.875,-56.5625,-17.8125,0
76720,-2,-60.5,-17,0
76740,-7,-60.0625,-18.6875,0
76760,-7,-60.625,-20.6875,0
76780,-3.25,-61.5625,-19.25,0
76800,-0.0625,-62.375,-16.1875,0
76820,0,-59.625,-19,0
76840,-1.5625,-58,-19.3125,0
76860,-4.25,-53.8125,-18.3125,0
76880,-4,-52.4375,-16.5,0
76900,-1.0625,-50.9375,-16.5625,0
76920,1.75,-47.375,-17.5,0
76940,2.25,-46,-15.625,0
76960,3.9375,-44.9375,-15,0
76980,4.125,-43.375,-17.1875,0
77000,1.5,-41.25,-15.1875,0
77020,-1,-40.25,-11.9375,0
77040,-1.75,-40.3125,-11.375,0
77060,-0.8125,-39.3125,-12.875,0
77080,1.3125,-35.75,-14.1875,0
77100,1.1875,-29.3125,-17.5625,0
77120,1.1875,-30.125,-18.4375,0
77140,0.75,-27.6875,-20,0
77160,3.125,-26.1875,-22.625,0
77180,3.3125,-25.5625,-26,0
77200,0.9375,-21.8125,-28.1875,0
77220,-2.1875,-19.625,-28.1875,0
77240,-2,-19.3125,-26.5625,0
77260,1.4375,-18.625,-28.3125,0
77280,0.625,-17.625,-28.4375,0
77300,-3.9375,-15.5625,-27.875,0
77320,-3.875,-15.3125,-28,0
77340,-0.8125,-15.375,-29.0625,0
77360,-0.9375,-14,-29.75,0
77380,-3.25,-13,-29.5,0
77400,-6.75,-14.5625,-27.3125,0
77420,-7,-13,-27.25,0
77440,-5.875,-9.0625,-26.125,0
77460,-2.8125,-6.5625,-26.5,0
77480,-2.8125,-4.375,-28.625,0
77500,-4.5625,-0.9375,-28.0625,0
77520,-5.1875,0.5625,-28.0625,0
77540,-3.6875,1.3125,-27.5625,0
77560,-3.5625,3.8125,-28.8125,0
77580,-5.125,8.1875,-28.875,0
77590,-5.375,11.1875,-26.8125,0
77610,-5.9375,12.0625,-25.5625,0
77630,-5.3125,14.1875,-26.5,0
77650,-6.3125,16.125,-28.3125,0
77670,-6.5,17.3125,-28,0
77690,-6.8125,17.25,-26.125,0
77710,-7.0625,18.6875,-26.1875,0
77730,-7.6875,19.625,-25.625,0
77750,-8.25,18.25,-25.0625,0
77770,-10.125,18.1875,-25.6875,0
77790,-12.125,19.6875,-26.25,0
77810,-11.625,20.8125,-26.5,0
77830,-10,19,-27.3125,0
77850,-11.375,18.1875,-27.6875,0
77870,-12.6875,20.6875,-28.9375,0
77890,-13.875,24.5625,-29.8125,0
77910,-12.1875,25.6875,-30.375,0
77920,-11.1875,24.6875,-31.1875,0
77940,-14.0625,26.375,-31.875,0
77960,-15.75,29.25,-31.4375,0
77980,-15.3125,31,-30.1875,0
78000,-14.125,32.1875,-28.5,0
78020,-16,34.6875,-28.1875,0
78040,-18.0625,37.625,-25.1875,0
78060,-18.4375,41.5625,-23.375,0
78080,-17,41.625,-21.625,0
78100,-16,40.125,-19.75,0
78120,-17.5,39.4375,-16.75,0
78140,-19.25,43.125,-12.75,0
78180,-15,46.3125,-2.6875,0
78210,-14.875,45.75,3.5,0
78240,-14.1875,46.6875,3.4375,0
78250,-15.9375,48.0625,7.75,0
78270,-9.375,40.5,6.0625,0
78300,-17.875,42.6875,13.4375,0
78310,-15.25,36.4375,13.8125,0
78320,-11.6875,33.5,13.125,0
78340,-17.6875,38,19.9375,0
78370,-11.375,31.875,18.3125,0
78390,-14.0625,31.4375,20.5625,0
78410,-6.75,25.625,14,0
78430,-4.375,22.9375,12.875,0
78450,-9.9375,27.1875,18.4375,0
78470,-14.125,28.25,19.5625,0
78490,-9.625,22.6875,15.5,0
78510,-3.5625,22.875,13.25,0
78530,-6.75,28.1875,15.25,0
78550,-12.1875,30.125,19,0
78570,-6.75,28,17.4375,0
78590,2,24.8125,14.375,0
78610,2,26.375,15.75,0
78630,-8.0625,29.5625,20.25,0
78650,-15.6875,26.875,22.125,0
78670,-9.75,20.9375,19.3125,0
78690,-3.1875,19.5,18,0
78710,-4.125,24.75,20.5625,0
78730,-11.6875,26.75,21.75,0
78750,-13.5,19.1875,19.5625,0
78770,-6.875,10.9375,16.8125,0
78790,-5.3125,13.5,15.125,0
78810,-14.0625,19.6875,16.4375,0
78830,-20.5625,16.5,19.5625,0
78850,-13.5625,10.875,19.625,0
78870,-4.8125,10.9375,19.625,0
78890,-8.125,14.875,20,0
78910,-15.875,14.25,20.75,0
78930,-16,9.1875,20.8125,0
78950,-10.75,9.125,19.9375,0
78970,-13.6875,10.75,21.25,0
78990,-19.3125,8.125,22.625,0
79010,-17.9375,5.8125,21.375,0
79030,-14.125,4.875,18.875,0
79050,-14.6875,4.8125,18.375,0
79070,-17.1875,4.1875,19.5625,0
79090,-12.6875,2.1875,19.5,0
79110,-8,1.0625,20.4375,0
79130,-9.3125,0.9375,21.125,0
79150,-14.25,0,20.9375,0
79170,-15,-3.375,19.875,0
79190,-12.8125,-6.5625,18.5625,0
79210,-10.625,-7.25,17.5,0
79230,-10.25,-7.4375,16.6875,0
79250,-10.25,-9.3125,16.9375,0
79270,-9.625,-12.125,16.9375,0
79290,-8.5,-12.5,15.875,0
79310,-7.6875,-11.9375,13.9375,0
79330,-5.3125,-10.875,12.5,0
79350,-2.375,-12.0625,13.1875,0
79370,-1.1875,-12.1875,12.5625,0
79390,-2.5625,-10.75,13.6875,0
79410,-4.625,-10.125,12.75,0
79430,-5.125,-10.625,11,0
79450,-5.3125,-10.75,9.1875,0
79470,-6.4375,-10.125,9.9375,0
79490,-3.875,-10.0625,8.875,0
79510,-2.375,-10.0625,10.4375,0
79530,-4.625,-10.75,10.0625,0
79550,-6.875,-12.5,10.0625,0
79570,-8.0625,-13.75,9.6875,0
79590,-9.875,-13.1875,9.4375,0
79610,-12.6875,-12.8125,9.0625,0
79630,-9.0625,-13.3125,8.5625,0
79650,-5.625,-14,9.3125,0
79670,-7.1875,-13.375,9.6875,0
79690,-11.375,-12.75,10.9375,0
79710,-11,-13,10.875,0
79730,-9.3125,-12.625,9.5625,0
79750,-8,-14,9.3125,0
79770,-7.5,-13.875,8.4375,0
79790,-6.6875,-15.125,7.8125,0
79810,-7.4375,-17.125,7.375,0
79830,-9.625,-16.9375,6.6875,0
79850,-12.875,-17.25,7.5625,0
79870,-14.25,-17.0625,8.9375,0
79890,-12.4375,-15.5,9.875,0
79910,-7.75,-15.3125,8.8125,0
79930,-4.4375,-17.8125,8.25,0
79950,-2.6875,-18.6875,7,0
79970,-3.3125,-19.625,7.0625,0
79990,-6.4375,-21.1875,6.1875,0
80010,-9.8125,-21.875,6,0
80030,-11.375,-22.8125,6.3125,0
80050,-9.125,-25.25,5.4375,0
80070,-7.625,-26.6875,5.3125,0
80090,-8.0625,-25.6875,4.375,0
80110,-7.375,-26.3125,3.4375,0
80130,-5.4375,-27.4375,1.9375,0
80150,-3.6875,-27.9375,0.5,0
80170,-3.1875,-27.75,-0.8125,0
80190,-2.75,-28.5625,-1.3125,0
80210,-4.25,-28,-1.875,0
80230,-4.875,-29.0625,-1.75,0
80250,-6.9375,-30.3125,-1.125,0
80270,-10.5,-31.4375,-0.6875,0
80290,-12.6875,-31.625,-1.375,0
80310,-11.75,-30,-4.0625,0
80330,-8.25,-31.375,-5.0625,0
80350,-5.8125,-33.1875,-6.625,0
80380,-2.3125,-33.875,-11.1875,0
80400,-5.25,-35.5,-11.9375,0
80410,-8.5625,-35.5625,-11.5,0
80420,-5.5625,-38.125,-13.25,0
80440,-3.875,-39.125,-14.875,0
80470,-0.9375,-42.4375,-22.1875,0
80480,-5.8125,-40.25,-22.125,0
80500,-9.0625,-40.3125,-20.75,0
80520,-5.5,-39.125,-22.4375,0
80540,3.3125,-35.9375,-23.875,0
80560,4.5625,-35.4375,-22.4375,0
80580,4.4375,-34.5625,-24.1875,0
80600,3.4375,-31.0625,-25.0625,0
80620,4,-31.875,-23.5625,0
80630,5.125,-33.8125,-24.125,0
80650,6.875,-32.3125,-23.375,0
80670,4.875,-31.5625,-22.5,0
80690,6,-35.1875,-23.0625,0
80710,3.375,-35.25,-26.6875,0
80730,-1.6875,-33.0625,-25.625,0
80750,-5.1875,-30.875,-25.6875,0
80770,-2.5,-28.875,-24.125,0
80790,5.125,-27.0625,-27.0625,0
80810,9.125,-26.8125,-30.875,0
80830,4.8125,-22.8125,-30.25,0
80850,0.3125,-17.5,-26.75,0
80870,2.5625,-17.4375,-24.6875,0
80890,6.0625,-17.8125,-25.25,0
80910,3.5,-15.4375,-27.0625,0
80930,-0.75,-12.5,-25.4375,0
80950,-2.125,-10.375,-23.625,0
80970,-0.25,-9.4375,-22.8125,0
80990,-2.75,-9.0625,-22.8125,0
81010,-6.5,-3.5,-23.625,0
81030,-5.25,1.5,-23.0625,0
81050,-1.1875,3.8125,-25,0
81070,-2.4375,5.5625,-24.875,0
81090,-7.0625,9,-25.375,0
81110,-9.25,12.125,-22.5625,0
81130,-4.25,11.5625,-22.25,0
81150,-2.875,11.6875,-25.25,0
81170,-5.25,13.3125,-24.25,0
81190,-8.625,13.6875,-22.625,0
81210,-10.0625,12.625,-23.5625,0
81230,-8.9375,9.5625,-24.1875,0
81250,-8.625,8.0625,-25,0
81270,-9.1875,8.8125,-26.0625,0
81290,-9.25,8.75,-28.1875,0
81310,-6.5,7.4375,-29.875,0
81330,-6.875,7.0625,-31.25,0
81350,-9.5,8.9375,-32.1875,0
81370,-8.6875,9.1875,-31.125,0
81390,-5.3125,10.5,-31.5,0
81410,-5.875,10.125,-30.625,0
81430,-7.8125,10.4375,-29.1875,0
81450,-9.375,10.1875,-28,0
81470,-8.6875,9.5625,-28.25,0
81490,-7,11.1875,-28.25,0
81510,-7.125,11,-29.375,0
81530,-8.8125,10.875,-27.8125,0
81550,-8.375,12.6875,-26.3125,0
81570,-6.5,12.625,-27.1875,0
81590,-7.6875,13.0625,-25.6875,0
81610,-9.4375,14.6875,-25.375,0
81630,-8.5,17.75,-25.75,0
81650,-7.8125,19.1875,-24.75,0
81670,-5.6875,18.25,-22.3125,0
81690,-4.5625,20.5,-23.125,0
81710,-6.1875,24.5,-23.9375,0
81730,-8,26.125,-22.375,0
81750,-8,27.25,-21.6875,0
81770,-6.5,29.5,-19.5,0
81790,-5.5,31.25,-18.1875,0
81810,-6.8125,32.125,-17.3125,0
81830,-6.4375,31.0625,-16.5,0
81850,-6.8125,31.6875,-16.9375,0
81870,-7.375,34.4375,-14.4375,0
81890,-6.6875,34.25,-11.625,0
81910,-6.3125,32,-9.9375,0
81930,-8.0625,31.875,-8.75,0
81950,-9.5625,32.5,-6.3125,0
81970,-9.6875,34.875,-3.0625,0
81990,-6.9375,34.75,-1.625,0
82010,-5.125,35.25,-1.25,0
82030,-6.9375,36.8125,-1.125,0
82050,-10,41.3125,5.5,0
82070,-7.375,42.9375,10.75,0
