Timestamp, Rotation x, Rotation y, Rotation z, Marker
50,14.0625,-9.4375,7.8125,0
70,17.5625,-10.25,11.25,0
90,15.5625,-15.75,13.9375,0
110,14.0625,-22.4375,10.5,0
130,9.9375,-25.25,6.4375,0
140,5.1875,-22.6875,6.1875,0
140,13.3125,-20.9375,6.8125,0
180,16,-24.375,6.875,0
200,9.75,-30.4375,4.8125,0
220,7.6875,-37.25,8,0
240,7.125,-46.125,13.9375,0
260,-1.4375,-52.625,14.75,0
280,-12.875,-53.8125,14.0625,0
300,-7,-54.375,14.9375,0
320,6,-56.125,18.125,0
340,13.4375,-63.4375,23.75,0
360,7.25,-65.25,23.6875,0
380,1.0625,-66.375,25.25,0
400,-10,-70.5625,27,0
420,-18.875,-72.6875,25.9375,0
440,-22.125,-74.6875,23.875,0
460,-13.625,-76.5625,22.625,0
480,-1.875,-74.625,21.8125,0
500,2.0625,-71.3125,23.875,0
520,0.625,-70.375,24.9375,0
540,1,-67.5,23.75,0
560,3.375,-62.75,24.25,0
580,1.125,-58.5625,28.4375,0
600,-1.25,-55.5625,29.375,0
620,-8.6875,-53.4375,30.125,0
640,-12.3125,-49.125,29.875,0
660,-12.5,-45.5625,28.9375,0
680,-13.5,-43,28.375,0
700,-13.6875,-39.75,25.9375,0
720,-12.125,-34.875,21.625,0
740,-9.875,-28.5625,17.3125,0
760,-4.8125,-24.875,13.25,0
780,-3.8125,-19.0625,8.5625,0
800,-0.4375,-11.75,5.4375,0
820,5.25,-4.5625,0.0625,0
840,7.4375,-0.0625,-3.3125,0
860,5.875,5.875,-6.25,0
880,9.8125,12.5625,-10.3125,0
900,13.1875,16.6875,-15.875,0
920,12.6875,21.25,-21.25,0
940,11.1875,27.375,-26.0625,0
960,13.3125,33.125,-30,0
980,23.3125,38.6875,-36.9375,0
1000,29.25,43.1875,-41.25,0
1020,29.625,49.125,-44.0625,0
1040,30.6875,56.5625,-47.1875,0
1060,31.4375,62.25,-48.5,0
1080,33.3125,66.0625,-47.75,0
1100,40.9375,68.875,-48.6875,0
1120,40.8125,72.5625,-49.8125,0
1140,33.75,75.5,-50,0
1160,36.5625,76.9375,-52.6875,0
1180,40.125,75.4375,-56,0
1200,42.1875,74.8125,-55.75,0
1220,38.5,76.75,-52.3125,0
1240,33.8125,78.5625,-48.8125,0
1260,35.5,76.75,-47.625,0
1280,35.125,74.875,-43.75,0
1300,31.1875,74.375,-37.5,0
1320,23.75,71.6875,-30.625,0
1340,19.0625,67.75,-25.375,0
1360,16.375,62.0625,-22.3125,0
1380,12.875,55.75,-17.625,0
1400,11.375,50.6875,-14.0625,0
1420,11.1875,42.5,-10.1875,0
1440,9.3125,33.375,-6.5,0
1460,10.5625,25.25,-4.1875,0
1480,9.25,17,0.0625,0
1500,4.5,7.375,3.8125,0
1520,2.625,-1.875,6.25,0
1540,1.4375,-11.0625,8.3125,0
1560,-3,-20.125,12.125,0
1580,-6.5625,-28.375,13.9375,0
1600,-5.25,-37.25,15.3125,0
1620,-7,-45.25,18.3125,0
1640,-11.0625,-52.125,21.1875,0
1660,-13.5625,-58.125,23.75,0
1680,-14.3125,-63.8125,27,0
1700,-17.25,-67.875,30.6875,0
1720,-19.9375,-72.0625,33.75,0
1740,-22.5625,-74.875,36,0
1760,-24.4375,-77,37.6875,0
1780,-32.3125,-79.625,40.4375,0
1800,-32.1875,-78.375,39.625,0
1820,-24.8125,-79.6875,41.625,0
1840,-24.125,-81.8125,43.1875,0
1860,-26.875,-79.3125,41.25,0
1880,-23.3125,-76.1875,41.25,0
1900,-17.4375,-75.625,39.5625,0
1920,-7.4375,-74.75,38.4375,0
1940,-3.3125,-72.6875,39.875,0
1960,-7.3125,-71.3125,39.6875,0
1980,-10.125,-69.1875,39.375,0
2000,-12.5625,-67.25,39.4375,0
2020,-15.375,-65.5625,40.25,0
2040,-21,-62.625,41.375,0
2060,-23.0625,-58.375,40.875,0
2080,-22.125,-53.5,40.1875,0
2100,-16.5625,-47,37.625,0
2120,-13.0625,-42.125,34.6875,0
2140,-15.6875,-36.75,31.75,0
2160,-17.625,-30.0625,25.5625,0
2180,-15.0625,-20.5,16.0625,0
2200,-7.625,-10.625,8.0625,0
2220,2.125,-0.375,-1.6875,0
2240,12.375,7.875,-9.25,0
2260,14,17.8125,-18.0625,0
2280,21,29.4375,-30.25,0
2300,22.125,38.5625,-40.8125,0
2320,21.0625,49.75,-51.3125,0
2340,49.8125,68.0625,-67.3125,0
2360,60.875,78.9375,-68,0
2380,35.375,86.8125,-60.25,0
2400,31.875,88.6875,-73.0625,0
2410,45.625,88.4375,-89.5,0
2430,48.9375,86.375,-86.8125,0
2450,45.4375,82.9375,-85,0
2470,42.3125,82.6875,-85.125,0
2490,37,83.6875,-85.625,0
2510,25.1875,82.8125,-83.6875,0
2530,17.875,83.25,-76.375,0
2550,11.875,83.375,-63.8125,0
2570,3.0625,83.125,-52.625,0
2590,0.625,83.3125,-50.3125,0
2610,2.3125,84.375,-48.875,0
2630,2.375,82.125,-44.875,0
2650,1.8125,74.625,-39.375,0
2670,9.0625,67,-37.6875,0
2690,13.875,58.9375,-35.125,0
2710,15.3125,49.6875,-28.875,0
2730,13.8125,37.875,-21.75,0
2750,13.5,24.9375,-14.8125,0
2770,8.5625,12.875,-5.5625,0
2790,-3.4375,1.75,4.5625,0
2810,-10.625,-8.8125,13.0625,0
2830,-7.4375,-21.625,18.8125,0
2850,-2.375,-35.9375,25.5625,0
2870,-3.8125,-48.8125,34,0
2890,-4.25,-61.625,41.75,0
2910,-4.3125,-73.4375,48.5,0
2930,-11.625,-82.125,56.3125,0
2950,-16.75,-90.3125,62.375,0
2970,-11.25,-98.625,68.6875,0
2990,-9.375,-107.125,76.375,0
3010,-15.875,-113.188,84.4375,0
3030,-23.375,-117.938,89.375,0
3050,-28.625,-122.562,92.1875,0
3070,-31.75,-124.75,95.8125,0
3090,-30.9375,-125.062,98.5,0
3110,-28.5625,-124.938,100.625,0
3130,-27,-123.5,98.875,0
3150,-26.5625,-118.812,96.25,0
3170,-27.875,-111.938,95.125,0
3190,-32,-105.688,93.8125,0
3210,-31.625,-98.9375,92.625,0
3230,-26.875,-90.625,86.125,0
3250,-17.25,-83.4375,78.6875,0
3270,-16.4375,-78.125,74.3125,0
3290,-24.9375,-69.25,70.375,0
3310,-23.875,-60.3125,57.75,0
3330,-16.1875,-53.375,46.5625,0
3350,-15.25,-45.625,39.1875,0
3370,-14.6875,-37.3125,30.5625,0
3390,-12.6875,-27.875,15.4375,0
3410,-11.0625,-16.5,-1.125,0
3430,-8.1875,-6.375,-16,0
3450,-1,2.8125,-29.25,0
3470,4.375,14.0625,-41.6875,0
3490,9.25,29.625,-54.5625,0
3510,13.75,43.5,-66.5625,0
3530,18.5,55.125,-76.625,0
3550,21.5625,65.9375,-84.75,0
3570,22.125,76.5625,-92.1875,0
3590,23.5,85.375,-100.375,0
3610,24.1875,93.875,-106.688,0
3630,26,101.812,-110.875,0
3650,27.25,109.5,-113.938,0
3670,28.1875,114.125,-112.062,0
3690,29.125,118,-109.75,0
3710,32.3125,122.062,-109.188,0
3730,32.5,125.375,-106.438,0
3750,28,128,-99.75,0
3770,26.875,130.062,-94.0625,0
3790,25.1875,129.312,-86.3125,0
3810,25.4375,127.625,-79.5625,0
3830,24.1875,124.25,-71.1875,0
3850,23.3125,120.062,-62.8125,0
3870,28.3125,116.688,-57.6875,0
3890,27.0625,111.188,-50.3125,0
3910,20.0625,106,-40.125,0
3930,14.4375,101.875,-29.75,0
3950,11.4375,97,-19.9375,0
3970,6.25,89.6875,-11.9375,0
3990,4.75,77.8125,-5.25,0
4010,-3.5625,63.125,0.25,0
4030,-6.875,50.75,5.625,0
4050,-2.625,35.125,9.9375,0
4070,-3.6875,19,13.75,0
4090,-0.6875,1.3125,15.25,0
4110,1.25,-16.6875,16.0625,0
4130,0.5625,-33.875,18.5625,0
4150,-1.25,-50.5,22.375,0
4170,1.4375,-66.375,24.0625,0
4190,7.625,-80.9375,25.6875,0
4210,8.4375,-93.1875,30.3125,0
4230,7.8125,-104,37.1875,0
4250,3.625,-112.562,46.3125,0
4270,-1.6875,-119,55.1875,0
4290,-3.75,-125,60.75,0
4310,-3.75,-130.25,67.4375,0
4330,-8.6875,-134.375,76.3125,0
4350,-14.4375,-136.938,83.8125,0
4370,-17.25,-137.875,89.6875,0
4390,-19.25,-139.188,94.3125,0
4410,-24.5625,-139.688,99.625,0
4430,-28,-138.75,103.125,0
4450,-28.625,-137.438,106.062,0
4470,-29.6875,-136.438,109.812,0
4490,-31.6875,-131.625,112.812,0
4510,-32.0625,-127.125,112.812,0
4530,-33.9375,-120.375,112.188,0
4570,-46.375,-111.375,113.625,0
4590,-50.8125,-107.688,113.938,0
4610,-56.5,-100.688,114.375,0
4630,-58.125,-93.125,108.75,0
4650,-48.25,-85.875,94.5,0
4670,-43.625,-74.375,84.375,0
4690,-41.5,-65.25,67.0625,0
4710,-27,-57.875,46.8125,0
4730,-9.5625,-45.9375,37.3125,0
4750,-5.375,-31.5,29,0
4770,-2.375,-13.6875,15.3125,0
4790,11.0625,2.25,-3.8125,0
4810,14.5625,14.5,-18.4375,0
4830,11.625,28.0625,-28.4375,0
4850,14.3125,43.4375,-42.6875,0
4870,25.4375,56.4375,-62.875,0
4890,48,67.75,-85,0
4910,71.25,76.0625,-97.8125,0
4930,62,80.625,-97.0625,0
4950,55.125,91,-95.1875,0
4970,58.1875,100,-97,0
4990,59.9375,100.875,-97.875,0
5000,63.6875,98.6875,-96.125,0
5020,54.6875,98,-93.9375,0
5040,39.0625,100.625,-92.3125,0
5060,33.875,96.6875,-98.375,0
5080,28.375,91.75,-101.688,0
5100,21,87.75,-98,0
5120,29.8125,83.1875,-98.625,0
5140,39.9375,76.625,-93.6875,0
5160,36.6875,70.5625,-86.1875,0
5180,25.4375,64.8125,-81.6875,0
5200,12.5625,61.8125,-79.375,0
5220,8.375,60,-75.75,0
5240,8,57.4375,-69.4375,0
5260,13,56.1875,-63,0
5280,13.5625,55.125,-54.375,0
5300,7.25,52.9375,-44.4375,0
5320,2.8125,50.875,-36.1875,0
5340,4.25,49.0625,-30.625,0
5360,7.125,44.1875,-25.9375,0
5380,8.5625,36.1875,-17.6875,0
5400,8.3125,27.6875,-9.4375,0
5420,15.3125,20.25,-5.625,0
5440,21.5625,11.5,-2.4375,0
5460,24.8125,0.875,2.5,0
5480,28.875,-8.4375,7.8125,0
5500,30.5,-15.75,15.0625,0
5520,29.8125,-22.1875,22.75,0
5540,24,-28.4375,31.9375,0
5560,16,-33.5625,43.1875,0
5580,5.1875,-37.125,52.875,0
5600,-2.5625,-40.5625,59.3125,0
5620,-8.1875,-44.5625,64.9375,0
5640,-15.1875,-48.5625,71.6875,0
5660,-20.6875,-51.5,78.125,0
5680,-22.1875,-53.75,80.625,0
5700,-19.125,-56.25,79.5625,0
5720,-19.5,-59.25,81,0
5740,-27.375,-59.9375,87,0
5760,-39.625,-59.875,91.25,0
5780,-39.875,-59.5,87.4375,0
5800,-38.3125,-59.5,85.875,0
5820,-47.6875,-58,85.75,0
5840,-49.6875,-55.375,77.8125,0
5860,-41.625,-52.3125,66.875,0
5880,-37.25,-48.5,61.3125,0
5900,-36.4375,-44.9375,56.125,0
5920,-32.25,-39.5,48.4375,0
5940,-27.875,-32.375,42.5625,0
5960,-26.75,-24.6875,35.4375,0
5980,-26.625,-16.5625,28.375,0
6000,-22.125,-8.9375,18.625,0
6020,-17.75,-2.6875,11.4375,0
6040,-15.4375,3.375,7.125,0
6060,-12,9.125,-2.0625,0
6080,-9.625,12.5,-9.5,0
6100,-6.1875,16.0625,-15,0
6120,-2.3125,20.9375,-21.4375,0
6140,4.3125,24.625,-29,0
6160,8.0625,27,-35.4375,0
6180,11.5625,27.6875,-41.25,0
6200,9.25,31.8125,-45.1875,0
6220,12.875,38,-46.1875,0
6240,18.0625,41.625,-45.9375,0
6260,23.0625,43.625,-49.1875,0
6280,23.1875,46.4375,-54.0625,0
6300,17.875,50.75,-56.75,0
6320,15.875,53.4375,-57.5,0
6340,17.6875,55,-54.9375,0
6360,18.6875,55.125,-51,0
6380,22.125,55,-51.25,0
6400,25.125,52.6875,-52.1875,0
6420,23.8125,50.4375,-50.3125,0
6440,21.625,47.9375,-46.6875,0
6460,24.125,45.1875,-44.6875,0
6480,26.0625,41.5625,-42.875,0
6500,23.3125,38.9375,-39.625,0
6520,17,37.5625,-35.6875,0
6540,10.375,36.875,-30.625,0
6560,10.5,34.5625,-26.5625,0
6580,13.6875,31.1875,-21.1875,0
6600,14.4375,29.6875,-13.5625,0
6620,11.625,28.3125,-7.0625,0
6640,6.4375,27.3125,-2.1875,0
6660,1.625,25.6875,2.4375,0
6680,-0.5,24.3125,6.0625,0
6720,-8.8125,1.4375,0.25,0
6740,-9.25,-7.375,-1.375,0
6760,6.6875,-11.375,1.25,0
6780,25.125,-10.5625,2.8125,0
6800,27.8125,-8.6875,0.6875,0
6810,18.5,-6.625,-2.875,0
6830,6.625,-4.25,-4.375,0
6850,5.375,-4.1875,-4.1875,0
6880,23.3125,-9.75,-4.9375,0
6900,25.5625,-9.5,-5,0
6920,24.5,-10.0625,-5.8125,0
6940,23.25,-10.6875,-7.125,0
6960,24.1875,-10.5625,-8.125,0
6980,29.4375,-10.875,-9.125,0
7000,34.3125,-10.6875,-9.625,0
7020,37.125,-11.75,-8.6875,0
7040,38.75,-10.375,-10.8125,0
7060,38.8125,-6.0625,-12.6875,0
7080,40.4375,-4.75,-12.25,0
7100,43.125,-4.375,-12.625,0
7120,43.8125,-1.5625,-12.6875,0
7140,42.9375,4,-13.5625,0
7160,42.75,8.0625,-14.75,0
7180,50.125,9.75,-18,0
7200,50.8125,14.125,-18.75,0
7220,47.9375,19.75,-20,0
7240,51.0625,20.875,-23.5,0
7260,51.375,19.375,-26,0
7280,51.375,22.4375,-28.875,0
7300,51.5,25.3125,-28.625,0
7320,48.1875,27.3125,-27.0625,0
7340,45.0625,26.625,-25.375,0
7360,41.5625,24.1875,-26.625,0
7380,39.625,20.875,-26.25,0
7400,35.8125,17.25,-24.25,0
7420,27.5,16.0625,-22.75,0
7440,19.8125,14,-22.6875,0
7460,11.0625,7.75,-21.8125,0
7480,6.1875,2.6875,-20.75,0
7500,4.375,-3.625,-20.375,0
7520,4.5,-7.1875,-23.8125,0
7540,3.0625,-8.25,-29.5625,0
7550,-3.75,-11.125,-32.0625,0
7570,-7.3125,-14.5625,-34.3125,0
7590,-4.8125,-18.875,-38.5625,0
7610,-6.3125,-20.75,-44.5,0
7630,-13,-19.125,-50.0625,0
7650,-19.1875,-18.3125,-55.1875,0
7670,-21.625,-19.125,-59.5,0
7690,-17.6875,-19.75,-64.5625,0
7710,-12.375,-20.25,-71.375,0
7730,-11.25,-21.5625,-78.5625,0
7750,-12.5625,-20.625,-84.3125,0
7770,-13.1875,-21.3125,-88.875,0
7790,-4.125,-24.25,-93.6875,0
7810,2.9375,-27.4375,-95.9375,0
7830,0.8125,-29.3125,-95.25,0
7850,-5.0625,-27.8125,-95.9375,0
7870,-2.25,-26.0625,-97.1875,0
7890,0.75,-25.0625,-96.375,0
7910,-1.875,-25.375,-92.3125,0
7930,-6.6875,-24.6875,-88.1875,0
7950,-9.375,-24.375,-84.3125,0
7970,-12.5625,-27.0625,-81.0625,0
7990,-18.5625,-30.5,-76.8125,0
8010,-19.0625,-29.8125,-73.0625,0
8030,-15.25,-29.6875,-67.875,0
8050,-9.1875,-32.75,-59.0625,0
8070,-1.3125,-34.5,-50.4375,0
8090,7.6875,-37.625,-43.1875,0
8110,8.9375,-46.625,-37.6875,0
8130,4.625,-55.125,-32.75,0
8150,-0.4375,-60.8125,-30.8125,0
8170,1.75,-66.625,-29.125,0
8190,-1.5,-70.8125,-24.8125,0
8210,-1.1875,-71.125,-21.4375,0
8230,6.5625,-69.25,-20.75,0
8250,9.375,-65.125,-14.125,0
8270,7.4375,-60.625,-8.4375,0
8290,6.125,-53.5625,-5,0
8310,6.5,-45.4375,2.375,0
8330,8.125,-40,6.25,0
8350,7.6875,-36.875,9.625,0
8370,1.5,-35.8125,10.25,0
8390,-3.125,-37.1875,7.4375,0
8400,-14.5,-35.8125,5.1875,0
8420,-22.8125,-33.6875,4.1875,0
8440,-23.8125,-33.0625,2.0625,0
8460,-27.3125,-28.625,7.3125,0
8480,-29.125,-28.1875,10.375,0
8500,-13.6875,-19.375,7.5,0
8520,-17.125,-29.5625,6.9375,0
8540,-19.375,-34.4375,4,0
8560,-23.9375,-34.75,-1.1875,0
8580,-28.25,-32.625,-5.125,0
8610,-26.875,-28.125,-9.1875,0
8630,-21.9375,-22.75,-9.5,0
8650,-12.375,-20.625,-8.875,0
8670,-7,-22.5625,-7.5,0
8690,-9.0625,-13.125,-5.5,0
8700,-9.1875,-3.875,-5.4375,0
8730,-21.6875,3.6875,-2.3125,0
8750,-16.25,6.25,-3,0
8770,-2.8125,11.4375,-1.5,0
8780,0,11.8125,3.625,0
8800,-2.4375,13.5,5.5625,0
8820,-5,14.5,3.125,0
8840,-3.875,11.375,-1.3125,0
8860,2.3125,7.5625,-2.875,0
8890,11.75,6.6875,-5.3125,0
8910,13.0625,6.375,-3.375,0
8930,13.6875,1.9375,7,0
8950,19.5625,9.25,10.9375,0
8970,11.4375,-0.3125,11.1875,0
8990,6.0625,-0.25,9.9375,0
9010,-6.625,-0.9375,10.625,0
9030,-3.625,-4.125,10.5625,0
9050,0.75,-7.875,10.25,0
9070,-4.4375,-13.1875,5.8125,0
9090,-3.375,-17.5625,-0.875,0
9110,-1.0625,-21.1875,-6.4375,0
9130,-0.75,-21.4375,-6.5,0
9150,3.375,-21.0625,-5.875,0
9170,6.375,-19.3125,-6.5625,0
9190,1.625,-19.6875,-7.75,0
9210,0.0625,-21.625,-9.9375,0
9230,-2.5,-23.0625,-11.375,0
9250,-0.625,-25.5,-10.3125,0
9270,-3.75,-27.8125,-9.6875,0
9290,-3.875,-25.25,-16.6875,0
9310,-6.75,-27.3125,-19.1875,0
9330,-4.25,-33.4375,-23.3125,0
9350,2.875,-39.5,-26.125,0
9370,11.9375,-47.25,-27.5625,0
9390,15.3125,-51.375,-29.5,0
9410,7.375,-52.8125,-28.75,0
9430,-3.75,-54.9375,-28.1875,0
9450,-6.875,-58.875,-25.6875,0
9470,-8.6875,-58.9375,-23.9375,0
9490,-7.375,-59.9375,-24.5,0
9510,-5.25,-62.1875,-24.6875,0
9530,-8.625,-67,-25.5625,0
9550,-7.3125,-69.9375,-27.3125,0
9570,-4.75,-71.875,-31.4375,0
9590,0.625,-77.8125,-32.5,0
9610,0.0625,-85.875,-33.4375,0
9630,-3,-90.4375,-35.125,0
9650,-4.0625,-95.5,-38.1875,0
9670,-3.8125,-99.125,-37.75,0
9690,-2,-102.062,-36.5625,0
9710,-5.4375,-107.188,-41.6875,0
9730,-12.625,-107.938,-47.875,0
9750,-16.125,-101.312,-52.6875,0
9770,-5.625,-91.5,-52.0625,0
9790,-0.8125,-79.25,-52.5,0
9810,-7.4375,-72.375,-48.25,0
9830,-10.4375,-67.6875,-41.5625,0
9850,-9.125,-59.6875,-37.0625,0
9870,-9.6875,-50.6875,-31.9375,0
9890,-15.0625,-43.6875,-25.625,0
9910,-22.5,-37.0625,-19.4375,0
9930,-23.75,-33.25,-12.0625,0
9950,-24.75,-31.9375,-0.4375,0
9970,-16.0625,-28.375,9.125,0
9990,-9.375,-24.4375,14.0625,0
10010,-6.375,-17.8125,3.8125,0
10030,-16.75,-8.8125,-6.375,0
10050,-23.5,-8.3125,0,0
10070,-13.875,-21.125,-1.8125,0
10090,-5.75,-32.875,-7.75,0
10110,-9.75,-35.6875,-18,0
10130,-18.125,-31.8125,-22.8125,0
10140,-25.1875,-25.9375,-13,0
10160,-11.5625,-25.0625,1.625,0
10180,15.8125,-35.875,14,0
10200,22.25,-33.625,19.3125,0
10220,7.625,-23.3125,13.625,0
10240,-1.875,-13.875,5.75,0
10260,5.9375,-3.5625,2.25,0
10280,5.75,12.25,-7.625,0
10300,4.375,14.625,-10.5,0
10320,30,-4.875,-2.125,0
10340,32.125,-18.375,0.375,0
10360,16.1875,-21.5,-13,0
10380,-1.4375,-18.0625,-21.9375,0
10400,-8,-14.3125,-22.9375,0
10420,1.9375,-16.3125,-10.625,0
10440,4.125,-17.0625,6.1875,0
10460,-4.1875,-18.625,11.0625,0
10480,-6,-15.4375,6,0
10500,-0.9375,-16.5,-6.8125,0
10520,-3,-15.6875,-7.5625,0
10540,-10.25,-8.6875,5.5625,0
10560,0.8125,-1.75,4.3125,0
10580,4.8125,7.0625,1.3125,0
10600,11.75,8.5625,9.375,0
10620,13.125,0.3125,9.6875,0
10640,8.0625,0.6875,7.875,0
10660,4.8125,5.1875,4.125,0
10680,11.3125,10.0625,1.625,0
10700,20.75,11.0625,6.9375,0
10720,13.75,11.5,2.375,0
10740,9.625,20.25,5.375,0
10760,14.5625,29.0625,8.6875,0
10780,15.875,21.5,-1.1875,0
10800,12.5625,14.8125,2.3125,0
10820,10.9375,9.3125,3.875,0
10840,8.75,14.75,7,0
10860,13.5625,21.8125,7.625,0
10880,14.4375,24.4375,8.625,0
10900,10.6875,22.4375,5.875,0
10920,5.9375,20.5625,6,0
10940,3.125,19.75,5.4375,0
10960,-1.8125,16.5625,1.625,0
10980,-5.875,14.5,0.375,0
11000,-5.6875,17.6875,3.5625,0
11020,-2.1875,22.75,5.8125,0
11040,-0.875,24.1875,7,0
11060,-5.0625,22.3125,5.3125,0
11080,-4.8125,17.75,4.9375,0
11100,-3.75,14,2.8125,0
11120,-3.75,11.6875,0.75,0
11140,-6.375,12.5,-1.5625,0
11160,-3.25,13.625,-3.875,0
11180,-2.9375,14.25,-4.1875,0
11200,-4.3125,13.375,-2.8125,0
11220,-1.5625,12.375,-2.8125,0
11240,0.6875,10.5625,-4.9375,0
11260,-3.25,7.75,-5.4375,0
11280,-3.8125,6.9375,-6.25,0
11300,-3.5,5.25,-4.9375,0
11320,-0.8125,5.875,-0.5,0
11340,4.3125,7.8125,4.4375,0
11360,6.5625,9.375,5.125,0
11380,4,10.125,3.125,0
11400,1.25,6.8125,6,0
11420,5.1875,2.6875,7.125,0
11440,11.5625,0.875,4.875,0
11460,9.875,1.5625,2.875,0
11480,9,1.9375,0.8125,0
11500,9.0625,3,4.125,0
11520,18.5625,1.875,7.125,0
11540,19.375,-0.1875,5.75,0
11560,15.5,-1.9375,2,0
11580,9.5,-3.875,0.125,0
11600,13,-2.5625,-0.4375,0
11620,10.5,-0.9375,0.375,0
11640,4.5,1.8125,-0.0625,0
11660,2.0625,1.6875,1.5,0
11680,1.8125,0.625,4.3125,0
11700,4.25,0.9375,4.3125,0
11720,-0.8125,1.0625,4.5,0
11740,-1.9375,4.1875,3.625,0
11760,-3.5,8.3125,2.6875,0
11780,-2.0625,9.5,1.625,0
11800,-2.3125,11.5,2.875,0
11820,-1.5625,13,6.875,0
11840,-7.125,15,11.875,0
11860,-7.875,17.375,13.3125,0
11880,6.375,20.375,12.375,0
11900,5.5625,23.3125,7.75,0
11920,6.4375,23.625,4.5,0
11940,0,21.5,-0.0625,0
11960,1.125,23.0625,-7.375,0
11980,17.125,30.1875,-15.25,0
12000,27.75,39.75,-16.1875,0
12020,3.1875,56.6875,-16.125,0
12040,3.4375,60.8125,-3.25,0
12060,-2.875,56.625,5.375,0
12080,8.375,49.0625,19.8125,0
12100,3.625,48.25,19.625,0
12120,2.25,41.4375,12.1875,0
12140,7.75,23.6875,25.0625,0
12160,8.8125,16.9375,33.4375,0
12180,10,13.25,19.125,0
12200,13.25,15.5,6.625,0
12220,3,13.5,-2.8125,0
12240,4,6.875,-2.125,0
12260,9.4375,9.625,-6.875,0
12280,13.3125,13.1875,-8.5625,0
12300,10.875,11.9375,-11.25,0
12320,15.4375,3.75,-11.125,0
12340,10.75,-3.5625,-3.75,0
12360,5.75,-12.3125,3.25,0
12380,12.125,-14.5625,5.5625,0
12400,15.875,-9.9375,-0.5,0
12420,13.5625,-5.125,-6.1875,0
12440,4,4.625,-6.5,0
12460,7.5625,4.6875,-2,0
12480,19.875,-0.375,5,0
12500,17.75,4,5.9375,0
12520,10.125,5.375,4.125,0
12540,7.1875,3.75,5.9375,0
12560,8.1875,4.9375,5.75,0
12580,8.625,5,0.5625,0
12600,5.6875,3.1875,-0.5,0
12620,5.6875,2,1.4375,0
12640,4.4375,-0.375,-0.8125,0
12660,0.125,-1.9375,-2.375,0
12680,-2.3125,-1.5,-2.5625,0
12700,-2.5,-1.625,0.0625,0
12720,-3.625,-1.5625,0.1875,0
12730,-7.5,-0.9375,-1.0625,0
12750,-9,0.125,-1.625,0
12770,-7.5625,0.3125,-1.375,0
12790,-5.5625,1.5625,-1.875,0
12810,-7.375,2.125,-1.4375,0
12830,-6.25,2,-0.625,0
12850,-3.6875,-0.25,1.6875,0
12870,0.75,0.9375,1.6875,0
12890,-2.1875,3.3125,-2.4375,0
12910,-0.75,3.25,-2.5,0
12930,2.5,2,-2.375,0
12950,5.875,0.9375,-3.75,0
12970,4.9375,1.375,-3.25,0
12990,2.875,2.4375,-5.1875,0
13010,2.5,3.8125,-8.9375,0
13030,0.9375,3.8125,-10.6875,0
13050,2.75,3.4375,-12.3125,0
13070,3.625,-0.75,-12.9375,0
13090,-0.6875,-3.8125,-14.1875,0
13110,1.375,0.0625,-14.3125,0
13130,-0.4375,2.25,-12.9375,0
13150,-8.4375,-1.0625,-17.125,0
13170,-16.75,-4.25,-23,0
13190,-12.6875,-4.6875,-25.625,0
13210,-11.5,-3.0625,-26.1875,0
13230,-12.4375,0.4375,-26.75,0
13250,-11.5625,3,-29.4375,0
13270,-9.75,2.125,-32.3125,0
13290,-8.5,2.375,-29.9375,0
13310,-8.375,1.3125,-27.375,0
13330,-8.1875,1.0625,-24.8125,0
13350,-6.0625,0,-22.125,0
13370,-3.125,-1,-21.5,0
13390,-2.0625,-0.875,-21.5,0
13410,2,-0.875,-18.625,0
13430,8.8125,-1.125,-15.75,0
13450,10.1875,-0.875,-14.375,0
13470,9.0625,-0.25,-10.5625,0
13490,11.5625,-0.4375,-8.4375,0
13510,13.375,-1.125,-3.3125,0
13530,13.375,-2.0625,0.9375,0
13550,8.875,-2.3125,6.5625,0
13570,5.25,-3.3125,12.875,0
13590,5.0625,-4.9375,17.125,0
13610,4.4375,-8.0625,21.125,0
13630,5.75,-12.75,23.75,0
13650,5.1875,-17.125,26.0625,0
13670,5.6875,-17.375,25.0625,0
13690,7.8125,-17.625,27.0625,0
13710,14,-19.0625,30.0625,0
13730,15.6875,-21.9375,30.9375,0
13750,15.625,-25.375,28.9375,0
13770,16.1875,-26.5625,25.3125,0
13790,19.25,-25.375,19.8125,0
13810,18.375,-25.625,16.8125,0
13830,18.75,-25.5625,15.375,0
13850,21.8125,-22.125,16.375,0
13870,23.625,-18.8125,13.9375,0
13890,20.8125,-16.0625,11,0
13910,17.4375,-12.6875,10.8125,0
13930,14.625,-9.4375,10.4375,0
13950,14.3125,-6.125,7.625,0
13970,14.875,-5.0625,5.625,0
13990,16.5625,-5,4.1875,0
14010,13.6875,-4.1875,5.1875,0
14030,10.875,-2.25,6.375,0
14050,8.625,-2.125,6.6875,0
14070,7.1875,-1.5625,7.625,0
14090,5.125,3.5625,9.625,0
14110,5.375,6.625,9.5,0
14130,8.375,7.1875,11.1875,0
14150,6.4375,3.625,9.75,0
14170,3.4375,-1.75,7,0
14190,-1.25,-6.0625,5.125,0
14210,-3.125,-9.25,3.375,0
14230,-4.3125,-11.3125,1.625,0
14250,-3.5,-12.625,2.1875,0
14270,-3.1875,-11.8125,3.5,0
14290,-3.4375,-11.8125,4.6875,0
14310,-2.9375,-12.1875,5.125,0
14330,-3.0625,-11.0625,4.6875,0
14350,-0.5625,-12.375,3.75,0
14370,1.75,-12.875,0.625,0
14390,-0.5,-12.9375,-3,0
14410,-4,-14.125,-6.8125,0
14430,-5.5,-13.9375,-5.9375,0
14450,-5.8125,-13.3125,-2.75,0
14470,-7.875,-12.25,-1.875,0
14490,-11.5,-14.9375,1.625,0
14510,-10,-13.5,5.125,0
14530,-10.0625,-10.5,2.4375,0
14550,-4.5625,-11.0625,5.5625,0
14570,0.1875,-11,3,0
14590,-1.6875,-9.3125,-2.8125,0
14610,-2.0625,-9.8125,-6.375,0
14630,1.25,-9.0625,-3.8125,0
14650,7.6875,-7.9375,-0.5,0
14670,7.0625,-3.9375,1,0
14690,-1.5,-2.625,2.4375,0
14710,-3.5625,-1.4375,4.125,0
14730,-5.375,-1.875,4.3125,0
14750,-7.75,-0.0625,2.6875,0
14770,-14,5.3125,1.875,0
14790,-16.9375,7.75,-1.4375,0
14810,-9.9375,5.3125,-3.875,0
14830,-12.0625,3.6875,-6.125,0
14850,-12.6875,1.875,-9.6875,0
14870,-14.3125,-1.8125,-11.5,0
14890,-10.3125,2.4375,-12.5625,0
14910,-12.0625,3.6875,-13.4375,0
14930,-10.25,0.4375,-14.0625,0
14950,-16.625,-5.5,-12.0625,0
14970,-16.6875,-8.375,-11.6875,0
14990,-15.25,-6.125,-14.8125,0
15010,-9.125,-5.1875,-16.75,0
15030,-17.125,-5.1875,-13.5625,0
15050,-17.625,-8.3125,-7.5625,0
15070,-11,-8.1875,-4.0625,0
15090,-13.8125,-7.9375,-6.0625,0
15110,-20.3125,-4.9375,-6.6875,0
15130,-25.6875,-1.375,-6.9375,0
15150,-16.125,-0.4375,-2.25,0
15170,-7.3125,-5.4375,0.5625,0
15190,-4.8125,-7.9375,-4.6875,0
15210,-8.125,-8.6875,-10.375,0
15230,-17.1875,-7.25,-11.9375,0
15250,-12.5,-7,-7.25,0
15270,-1.25,-14.125,-3.5625,0
15290,9.75,-16,-2.8125,0
15310,-0.125,-10.5625,0.625,0
15330,-8.375,-5.625,2.0625,0
15340,1.6875,-3.75,1.625,0
15360,12.5625,0.8125,2.8125,0
15380,14.4375,-0.375,7.3125,0
15400,1.625,6.9375,2.6875,0
15420,-0.75,6.5625,-10.3125,0
15440,5.25,-5.125,-13.125,0
15460,5.5,-17.375,-5.4375,0
15480,5.0625,0.375,-11.0625,0
15500,-10.125,12.8125,-7.6875,0
15520,1.9375,15.375,-2.9375,0
15540,6.8125,9.25,0.3125,0
15560,1.375,8.3125,-3.3125,0
15580,-7.75,5.0625,-9.25,0
15600,-10,4.5625,-12.375,0
15620,-2.75,6.5625,-14.3125,0
15640,4.5625,3.1875,-17.75,0
15660,4.625,0.3125,-11.8125,0
15680,1.9375,3,-9.8125,0
15700,-4.9375,3.6875,-14.6875,0
15720,-2.375,-6.625,-13.875,0
15740,-2.3125,-11.6875,-11.875,0
15760,-6.25,-2,-10.3125,0
15780,-3.125,4.0625,-4.8125,0
15800,-3.4375,1.8125,1,0
15820,-0.4375,2.25,3.75,0
15840,1.6875,6.125,0.3125,0
15860,0.5625,7.375,-6.1875,0
15880,-2.3125,3.9375,-10.4375,0
15900,4.8125,-2.0625,-9.5625,0
15920,13.5,-9.1875,-2.875,0
15940,14.9375,5.375,1,0
15960,1.75,19.8125,-0.25,0
15980,2.75,17.6875,0.0625,0
16000,-5.75,16.4375,2.5625,0
16020,-8.1875,15.8125,8.125,0
16040,-6.5,17.875,11.1875,0
16060,0.1875,18.9375,7.125,0
16080,-1.875,8.875,3.9375,0
16100,-1.5,-0.1875,4,0
16120,3.875,-4.75,1.875,0
16140,4.0625,-4.375,2.6875,0
16160,0.9375,-4.1875,2.875,0
16180,-1.375,-7.0625,0.3125,0
16200,-1.6875,-6.375,0.625,0
16220,5.1875,-10.0625,5.3125,0
16240,13.5625,-6.5625,10.375,0
16260,6.5,2.5625,6.4375,0
16280,-0.4375,2.6875,7.8125,0
16300,-2.4375,1.1875,13.5,0
16320,-1.4375,-0.875,14.5,0
16340,2.9375,-4.625,17,0
16360,1.5,-4.4375,19.5625,0
16380,-0.625,-4.3125,16.9375,0
16400,1.8125,-7.875,15.5625,0
16420,0.25,-8.375,9.3125,0
16440,1.5625,-8.4375,3.4375,0
16460,1.625,-4.5625,4.6875,0
16480,0.8125,0.75,6.25,0
16500,-0.25,5,6.6875,0
16520,1.875,4.3125,6.5625,0
16540,3.75,3.9375,7.4375,0
16560,2.25,7.5625,8.5625,0
16580,2.875,8.4375,7.6875,0
16600,2.625,8.1875,7.625,0
16620,2.125,9.3125,5.6875,0
16640,3.25,9.4375,3.3125,0
16660,2,7.0625,0.875,0
16680,-0.0625,8,-1.75,0
16700,-3.25,7.4375,-5.9375,0
16720,-1.625,6.9375,-7.5625,0
16740,-0.875,5.875,-5.1875,0
16760,0.0625,5.9375,-3.8125,0
16780,-1.5,7.5625,-3.125,0
16800,-2.4375,8.3125,-3.0625,0
16820,-8.0625,8.4375,-2.0625,0
16840,-9.6875,7.9375,-0.8125,0
16860,-10.9375,9.875,-2.3125,0
16880,-13,11.1875,-2.3125,0
16900,-14,10.375,-2.5,0
16920,-16.5625,11.625,-3.125,0
16940,-18,13.1875,-4.9375,0
16960,-17.1875,17.75,-6.8125,0
16980,-16.375,23.25,-9.5,0
17000,-13.8125,29.875,-13.125,0
17020,-10.5,35.6875,-14.8125,0
17040,-8.625,41.5625,-14.125,0
17060,-6.875,47.5625,-11.75,0
17080,-8.75,56.4375,-10.6875,0
17100,-12.5625,69.3125,-10.375,0
17120,-8.5625,81.25,-7.5625,0
17140,-2.3125,83.4375,-2.25,0
17160,-3,82.375,4.6875,0
17180,-5.5,82.625,10.375,0
17200,-3.875,86.625,15.1875,0
17220,-3.125,97.5625,25.4375,0
17240,-4.625,111.375,38.875,0
17260,-0.875,120.75,52.25,0
17280,7.0625,121.375,57.5625,0
17300,8.9375,116.938,61.0625,0
17320,0.625,117.5,67.25,0
17340,-6.0625,123.562,69.9375,0
17360,-10.1875,126.5,70.5625,0
17380,-21.125,121.875,79.3125,0
17400,-25.75,117.312,86.4375,0
17420,-27.3125,114.25,83.125,0
17440,-20.125,109.125,77.8125,0
17460,-22.4375,103.062,75.9375,0
17480,-31.0625,100.188,80.8125,0
17500,-38.1875,97.5625,77.9375,0
17520,-40.5625,94.4375,70.75,0
17540,-27.5,93.375,63.5,0
17560,-25.5,90.875,64.125,0
17580,-27.375,84.875,72.375,0
17600,-34.5,77.4375,79,0
17620,-40,71.375,78.25,0
17640,-37.125,73.4375,73,0
17660,-37.4375,73.3125,67.4375,0
17680,-30.5,68.9375,74.25,0
17700,-49.25,67.9375,85.75,0
17720,-63.3125,67.3125,87.4375,0
17740,-55.125,68.625,75.8125,0
17760,-55.5,69.875,72.875,0
17780,-56.3125,71.0625,86.4375,0
17800,-38.125,76.125,91.375,0
17820,-31.875,80.75,89.6875,0
17840,-35.75,89.8125,85.25,0
17860,-32.1875,90.625,85.8125,0
17880,-71.125,83.625,89.0625,0
17900,-136.812,33.8125,49.75,0
17920,-164.125,-34.125,-16.8125,0
17930,-64.25,-52.5,-12.0625,0
17950,60.25,-41.125,9.25,0
17970,120.625,-12,8.8125,0
17990,113.125,16.0625,2.6875,0
18010,54.5625,19.125,5.8125,0
18030,-10,8.75,-2.4375,0
18050,-50.625,2.4375,-6.75,0
18070,-45,-2,-1.9375,0
18090,-22.6875,-1.1875,0.6875,0
18110,-3.125,-0.125,1.1875,0
18130,-0.3125,2.8125,2.3125,0
18150,-6.625,2.8125,0.4375,0
18170,-7.625,2.4375,-2.5625,0
18190,6,1.9375,-2.75,0
18210,24.1875,1.4375,-2.125,0
18230,27.75,0.875,-3.3125,0
18250,18.625,0.125,-3.375,0
18270,7.25,0.4375,-2.1875,0
18290,-0.25,1.125,-0.625,0
18310,-0.8125,1.25,0.75,0
18330,5.5,1.1875,0.5625,0
18350,12.5,-0.0625,-0.0625,0
18370,10.5,-1.75,0.8125,0
18390,5,-0.3125,0.5,0
18410,4.9375,0.6875,-0.5,0
18430,3.5625,1.375,-0.75,0
18450,3.3125,1.6875,-1.25,0
18470,3.5625,1.1875,-1.9375,0
18490,3.6875,0.25,-1.125,0
18510,1.875,0.1875,-0.75,0
18530,2.4375,0.6875,-0.0625,0
18550,2,0.125,0.0625,0
18570,1.0625,0.25,-0.4375,0
18590,1.5,0.8125,-0.9375,0
18610,1.0625,1.125,-0.375,0
18630,-1.3125,1.375,-0.0625,0
18650,-1.4375,1.125,0.0625,0
18670,-0.6875,1.125,0.3125,0
18690,0.3125,1.0625,0.125,0
18710,-0.4375,0.875,0.1875,0
18730,-0.875,0.5625,0.5,0
18750,-0.375,0.5,0.0625,0
18770,0.8125,0.5,-0.4375,0
18790,1.625,0.3125,-0.5625,0
18810,2.875,0.0625,-0.6875,0
18830,2,0.125,-0.3125,0
18850,2.3125,-0.0625,-0.4375,0
18870,2.9375,-0.25,-0.375,0
18890,2.0625,-0.5625,-0.125,0
18910,2.1875,-0.875,0.125,0
18930,1.5,-0.6875,0,0
18950,0.125,-0.625,0.125,0
18970,-0.125,-0.625,-0.0625,0
18990,-0.125,-1.125,0.125,0
19010,0.8125,-0.9375,0.5625,0
19030,2.1875,-0.8125,0.25,0
19050,1.8125,-0.75,-0.0625,0
19070,0.5,-0.875,0.125,0
19090,0.875,-0.6875,0.125,0
19110,1.5625,-0.8125,0.0625,0
19130,1.5,-0.625,0.3125,0
19150,1.5,-0.5,0.0625,0
19170,0.625,-0.4375,-0.125,0
19190,0,-0.25,0.0625,0
19210,0.875,-0.5,0.0625,0
19230,1.9375,-0.4375,0.0625,0
19250,1.3125,-0.6875,0.0625,0
19270,0.375,-0.75,0.0625,0
19290,-1.125,-0.4375,0.0625,0
19310,-0.3125,-0.8125,0,0
19330,0.4375,-1.1875,0.4375,0
19350,-0.25,-0.8125,0.375,0
19370,0,-0.5625,-0.25,0
19390,-1.25,-0.75,-0.1875,0
19410,-1.375,-0.625,0.25,0
19430,0.5625,-0.8125,0.0625,0
19450,1.0625,-1.1875,-0.4375,0
19470,-0.1875,-0.625,-0.5,0
19490,0.4375,-1,-0.6875,0
19510,0.125,-1.3125,-0.9375,0
19530,-0.0625,-1.0625,-0.8125,0
19550,2.4375,-0.9375,-1.125,0
19570,3.4375,-1.1875,-0.75,0
19590,3,-1.0625,-0.6875,0
19610,3.6875,-1.125,-0.9375,0
19630,3,-1.0625,-1.0625,0
19650,1.8125,-1.0625,-1.3125,0
19670,1.1875,-1.125,-0.375,0
19690,0.375,-0.6875,-0.25,0
19710,1.0625,-1.25,-0.4375,0
19730,1.6875,-1.4375,-0.5625,0
19750,1.5,-1.125,-0.625,0
19770,0.375,-0.625,-0.4375,0
19790,0.9375,-1,-0.875,0
19810,0.4375,-1.125,-0.5625,0
19830,0.8125,-0.375,-0.4375,0
19850,2.1875,-0.625,-0.625,0
19870,-0.25,-1,0.1875,0
19890,1.25,-1.6875,0.1875,0
19910,4,-1,-0.5,0
19930,4.4375,-0.8125,-0.6875,0
19950,0.1875,-0.0625,-1.0625,0
19970,-0.8125,0.3125,-1.0625,0
19990,-1.9375,0.125,-1.3125,0
20010,0.6875,-0.375,-0.75,0
20030,1.6875,-0.8125,-0.875,0
20050,2.25,-0.25,-1.4375,0
20070,0.9375,-0.0625,-1.625,0
20090,-1,-0.125,-1.25,0
20110,-0.125,-0.5625,-1.3125,0
20130,2.6875,-0.6875,-0.625,0
20150,3.75,-1.125,-0.25,0
20170,2.375,-1.3125,-0.625,0
20190,0.5625,-1.4375,-0.9375,0
20210,0.25,-1.5625,-0.875,0
20230,-0.25,-1.4375,-0.1875,0
20250,1.125,-1.4375,0,0
20270,1.75,-1.625,0.125,0
20290,1.625,-1.5625,0.1875,0
20310,1.8125,-1.625,0.0625,0
20330,0.6875,-1.5,-0.25,0
20350,-1.8125,-1.3125,-0.0625,0
20370,-1.3125,-1,0.0625,0
20390,1,-1.3125,0.0625,0
20410,2.1875,-1.375,0.125,0
20430,0.875,-1.0625,0,0
20450,0.375,-1.25,-0.25,0
20470,-0.625,-0.9375,0.0625,0
20490,0.1875,-0.75,0.3125,0
20510,1.0625,-1,0,0
20530,1.75,-1.1875,0.25,0
20540,0.625,-0.9375,0.125,0
20560,0.25,-0.9375,-0.0625,0
20580,-0.125,-0.9375,0.0625,0
20600,-0.3125,-0.75,0.1875,0
20620,0.25,-0.6875,0.125,0
20640,0.3125,-0.9375,0.0625,0
20660,-0.125,-0.8125,0.0625,0
20680,-0.375,-0.5,0.3125,0
20700,-0.1875,-0.625,0,0
20720,0,-1,0.25,0
20740,-0.1875,-1.0625,0,0
20760,0.0625,-0.75,-0.0625,0
20780,-1,-0.1875,-0.1875,0
20800,0.125,-0.6875,-0.4375,0
20820,0.9375,-1.6875,0.0625,0
20840,1.3125,-1.75,0.25,0
20860,0.25,-1.4375,-0.3125,0
20880,0.25,-1.0625,-1,0
20900,1.3125,-2.75,0.25,0
20920,8.6875,-3.25,1.125,0
20940,11.6875,-2.6875,1.625,0
20960,9.25,-2.5,-0.4375,0
20980,4.5,-2.75,-1.4375,0
21000,0.4375,-1.125,-0.3125,0
21020,0.8125,1.1875,0.0625,0
21040,1.25,2.125,-2.0625,0
21060,1.8125,1.1875,-1.25,0
21080,0.8125,0.25,0.1875,0
21100,1.5,-0.3125,1.25,0
21120,0.4375,-0.0625,0.875,0
21140,-3.4375,0.1875,-0.5,0
21160,-6.1875,-0.5625,-1.3125,0
21180,-4.9375,-0.9375,-1.0625,0
21200,-0.875,-0.625,-0.375,0
21220,3.5625,-0.6875,-0.25,0
21240,3.625,-0.8125,-0.1875,0
21260,1.8125,-0.5625,0.125,0
21280,-0.6875,-0.3125,0.0625,0
21300,-1.5625,-0.25,-0.25,0
21320,-2,-0.375,-0.1875,0
21340,-1.5625,-0.125,0.25,0
21360,-0.625,-0.375,0.125,0
21380,0.625,-0.6875,0.1875,0
21400,0.5,-0.875,0.0625,0
21420,0.0625,-0.9375,-0.125,0
21440,-0.75,-0.5,0.0625,0
21460,-0.125,-0.0625,-0.5625,0
21480,0.8125,-0.875,-0.6875,0
21500,1.8125,-1.5625,-0.3125,0
21520,3.25,-1.1875,-0.125,0
21540,1.8125,-1.125,-0.25,0
21560,-0.4375,-0.75,-0.5,0
21580,-1,-0.8125,-0.9375,0
21600,0.75,-0.6875,-0.8125,0
21620,1.875,-0.5,-0.0625,0
21640,1.875,-0.3125,0,0
21660,0.625,-0.625,0.375,0
21680,-0.75,-0.5,0.1875,0
21700,-1,-0.6875,0.0625,0
21720,0,-0.9375,0.0625,0
21740,0.5,-1.1875,0.1875,0
21760,0.375,-1,0.0625,0
21780,0.75,-1,0.1875,0
21800,1.8125,-1.25,0.25,0
21820,1.5,-1.625,0.375,0
21840,1.75,-1.8125,-0.125,0
21860,1.5,-1.8125,-0.25,0
21880,0.3125,-1.6875,-0.1875,0
21900,0,-1.625,-0.125,0
21920,1.6875,-1.6875,-0.1875,0
21940,2.6875,-1.9375,0.0625,0
21960,1.9375,-1.8125,0.25,0
21980,1.5625,-1.625,-0.625,0
22000,-0.5,-1.625,-0.125,0
22020,-0.8125,-1.25,0.375,0
22040,0.4375,-1.1875,0.625,0
22060,1,-1.125,0.5,0
22080,0.625,-1,0.5,0
22100,0,-0.6875,0.375,0
22120,-1.125,-0.25,0.0625,0
22140,-1.1875,0,-0.0625,0
22160,-0.375,-0.125,-0.1875,0
22180,-0.125,-0.25,-0.1875,0
22200,0.75,-0.25,-0.25,0
22220,1.875,-0.1875,-0.375,0
22240,2.0625,-0.5,-0.5625,0
22260,2.1875,-0.9375,-0.5,0
22280,0.625,-0.875,-0.125,0
22300,-0.5625,-0.5,-0.5,0
22320,0.375,-0.5,-0.375,0
22340,0.9375,-0.5,-0.125,0
22360,1.375,-0.5625,0.0625,0
22380,1.3125,-0.8125,-0.25,0
22400,-0.4375,-0.75,0.0625,0
22420,-1,-0.1875,-0.1875,0
22440,-0.8125,-0.125,-0.125,0
22460,0.75,-0.625,0,0
22480,1,-1.25,0.125,0
22500,0.25,-1.0625,0.0625,0
22520,-0.6875,-0.75,0.125,0
22540,-0.9375,-0.6875,0.0625,0
22560,-0.0625,-0.875,0,0
22580,0.6875,-0.875,0.1875,0
22600,1.25,-1,0.1875,0
22620,-0.0625,-1.125,0.4375,0
22640,-0.625,-0.8125,0.0625,0
22660,0.625,-1.125,-0.3125,0
22680,0.3125,-1.0625,-0.1875,0
22700,0.5,-0.8125,0,0
22720,0.875,-1.375,-0.1875,0
22740,0.5,-1.125,0,0
22760,0.6875,-1.1875,-0.25,0
22780,0.0625,-1.1875,-0.25,0
22800,-0.0625,-0.875,-0.25,0
22820,0.8125,-1.25,-0.1875,0
22840,1.3125,-1.5625,0.0625,0
22860,1.25,-1.5625,0.1875,0
22880,1.0625,-1.25,0.0625,0
22900,0.125,-0.9375,-0.125,0
22920,-0.3125,-1.125,-0.1875,0
22940,-0.125,-1.4375,0.0625,0
22960,0.5625,-1.375,0.1875,0
22980,1.25,-1.3125,-0.0625,0
23000,0.6875,-1.25,0,0
23020,-0.3125,-1.375,0,0
23040,-0.5,-1.0625,0.0625,0
23060,0.3125,-1.25,0.3125,0
23080,0.75,-1.1875,0.0625,0
23100,0.8125,-1.3125,0.0625,0
23120,0,-1.25,0.0625,0
23130,-0.1875,-1.0625,0.0625,0
23150,0.75,-1.125,-0.3125,0
23170,1.25,-1.3125,-0.1875,0
23190,0.5625,-1.3125,-0.375,0
23210,0.5,-0.875,-0.5625,0
23230,0.0625,-0.75,-0.4375,0
23250,0.25,-0.6875,0.0625,0
23270,1.125,-0.9375,0.4375,0
23290,0.625,-1.125,0.3125,0
23310,-1.5,-1.0625,0.1875,0
23330,-2.125,-0.8125,0.125,0
23350,-0.4375,-0.875,0.0625,0
23370,0.6875,-1.5,0.3125,0
23390,1.375,-1.6875,0.375,0
23410,1.0625,-1.5625,0.4375,0
23430,-0.125,-1.3125,0,0
23450,-0.6875,-1.3125,-0.375,0
23470,-0.25,-1.5,-0.375,0
23490,0.375,-1.4375,0.125,0
23510,1,-1,0.3125,0
23530,1,-0.875,-0.125,0
23550,-0.0625,-1.1875,-0.375,0
23570,-1.125,-0.9375,0.125,0
23590,-0.0625,-1,0,0
23610,0.75,-1.125,0.0625,0
23630,0.25,-1.0625,0.1875,0
23650,0.125,-1.1875,0.0625,0
23670,-0.0625,-1.3125,0,0
23690,-0.625,-0.9375,0.0625,0
23710,-0.125,-0.8125,0.125,0
23730,0.4375,-0.875,0.0625,0
23750,0.125,-1.25,0.1875,0
23770,0.0625,-1.125,0,0
23790,0.375,-1.3125,-0.1875,0
23810,0.5625,-1.5625,0,0
23830,0.4375,-1.5,0.1875,0
23850,0.375,-1.0625,0.1875,0
23870,0.9375,-1.125,-0.25,0
23890,0.5625,-1.3125,-0.1875,0
23910,0.75,-1.4375,0.5625,0
23930,-1.125,-0.875,0.9375,0
23950,-1.625,-0.25,0.875,0
23970,-1.75,-0.3125,0.25,0
23990,-1.625,-1.375,0.75,0
24010,0.4375,-0.75,0.9375,0
24030,1.0625,-0.375,0.625,0
24050,-0.5,-0.5,0.875,0
24070,-1,-0.625,1,0
24090,-0.625,-1.125,0.5,0
24110,0.375,-1.1875,0.6875,0
24130,0.3125,-1.1875,0.625,0
24150,-0.1875,-1.1875,0.625,0
24170,-0.8125,-1.25,0.4375,0
24190,-1.6875,-1.125,0.5,0
24210,-0.875,-1.1875,0.5625,0
24230,0,-1.3125,0.5625,0
24250,-0.1875,-1.125,0.3125,0
24270,-1.375,-1,0.25,0
24290,-0.5625,-0.6875,0.0625,0
24310,0.8125,-1.0625,0.0625,0
24330,1.3125,-1.1875,0.5625,0
24350,0.0625,-1,0.125,0
24370,-0.6875,-0.9375,0,0
24390,-0.3125,-0.9375,0.0625,0
24410,0.9375,-1.1875,0,0
24430,0.6875,-1.3125,0.3125,0
24450,0.25,-0.8125,0.4375,0
24470,0.75,-1,0.3125,0
24490,0.25,-1.125,0.375,0
24510,0.0625,-0.8125,0.5,0
24530,1.375,-0.9375,0.625,0
24550,1.9375,-1.375,0.625,0
24570,0.625,-1.4375,0.75,0
24590,0.1875,-1.25,0.375,0
24610,-0.6875,-1.1875,0.3125,0
24630,-0.0625,-1.5,0.375,0
24650,1.75,-1.6875,0.0625,0
24670,1.5625,-2,0.4375,0
24690,0.25,-2.3125,0.9375,0
24710,3.0625,-2.75,0.5625,0
24730,4.6875,-2.8125,-0.25,0
24750,5.75,-2.9375,-1.625,0
24770,4,-3.9375,0.0625,0
24790,10.125,-8.5625,3.75,0
24810,33.6875,-15.25,1.75,0
24830,64.875,-21.25,-1.5625,0
24850,109.75,-39.125,-5.8125,0
24870,117.375,-46.625,-17.375,0
24890,90.3125,-46.5,-20.8125,0
24910,61.9375,-61.25,-47.875,0
24930,81.25,-79.5,-74.375,0
24950,97.6875,-93.625,-75.8125,0
24970,79.125,-110.312,-67.875,0
24990,53.875,-125.875,-73.25,0
25010,33.9375,-137.25,-82.375,0
25030,27.9375,-141.812,-89.25,0
25050,37.1875,-139.625,-93.0625,0
25070,28.0625,-133.938,-86.8125,0
25090,12.0625,-146.438,-76.9375,0
25110,7.4375,-151.375,-81.625,0
25130,1.4375,-150.25,-79.25,0
25150,5.0625,-148.188,-69.3125,0
25170,-4.4375,-143.312,-62.8125,0
25180,-4.875,-140.75,-63.9375,0
25180,-0.75,-143.75,-60.6875,0
25200,-3.25,-139.312,-52.875,0
25200,-10.3125,-129.062,-51.75,0
25220,-2.5,-133.125,-55.125,0
25240,-3.1875,-143.125,-48.1875,0
25240,-3.3125,-143.75,-46.5,0
25260,-0.5625,-140.625,-46.9375,0
25300,-7.3125,-134.938,-42.875,0
25360,-15.625,-135.75,-36.9375,0
25390,-6.125,-137.062,-38.125,0
25410,-2.5625,-134.875,-35.25,0
25430,-0.4375,-133.812,-33.5625,0
25450,-10.4375,-125.938,-24.625,0
25470,-9.5,-121.188,-24.1875,0
25490,-3.0625,-117.375,-30.0625,0
25510,-0.6875,-114.562,-24.75,0
25530,-5.6875,-111.312,-15.0625,0
25550,-6.5625,-103.75,-8.4375,0
25570,-5.8125,-98.875,-8.3125,0
25590,-1.3125,-94.8125,-4.6875,0
25610,0.4375,-85.875,3.375,0
25630,3.5625,-75.5625,6.0625,0
25650,15,-66.3125,7,0
25670,29.25,-61.625,9.4375,0
25690,25.5625,-55.625,10.125,0
25710,21.75,-48.8125,2.125,0
25730,15.5625,-38,0.375,0
25740,6.6875,-28.4375,1.0625,0
25760,8.25,-20.1875,-1.3125,0
25780,8.5625,-11.9375,-1.5625,0
25800,9.6875,-8,-6.0625,0
25820,7.3125,-4.6875,-1.25,0
25840,7.8125,-4.625,5.875,0
25860,2.9375,-4.375,2.4375,0
25880,-1.3125,-4.25,-3.6875,0
25900,-15.0625,-6.75,-4.75,0
25920,-19.1875,-7.5,-3.8125,0
25940,-16.375,-10.5625,-11.4375,0
25960,-13.375,-21.6875,-27.4375,0
25980,-12.0625,-18.6875,-31.625,0
26000,-12.1875,-11.125,-24.375,0
26020,-3,-5.375,-14.25,0
26040,2.9375,0.6875,-9.25,0
26060,0.0625,7.4375,-6.5,0
26080,-5.9375,6.8125,-1,0
26100,-0.1875,0.875,2.8125,0
26120,4.0625,-6.5,5.5625,0
26140,-1.5625,-9.875,7.375,0
26160,-6,-10.0625,4.75,0
26180,-8,-6.25,4.625,0
26200,-4.5625,0.125,2.1875,0
26220,-5.875,4.125,-3.625,0
26240,-13.4375,9.0625,-7.6875,0
26260,-21.625,10.375,-9.625,0
26280,-22.25,13.5,-7.9375,0
26300,-17.75,14.4375,-6.5625,0
26320,-15,10.5625,-8.5,0
26340,-18.125,8.875,-11.375,0
26360,-19.8125,4,-8.4375,0
26380,-12.1875,-3.75,-1.625,0
26400,-5.8125,-8,0,0
26420,-5.0625,-11.9375,-2.25,0
26440,-2.6875,-16.0625,0.0625,0
26460,1.8125,-16.125,0.625,0
26480,-0.8125,-17.9375,0.375,0
26500,0.875,-15.6875,-1.5,0
26520,4.3125,-13.875,-6.4375,0
26540,13.0625,-10.5625,-3.5,0
26560,16.8125,-8.8125,-5.75,0
26580,12.625,-8.25,-7,0
26600,8.8125,-5.8125,-8.1875,0
26620,11.75,-1.5625,-1.3125,0
26640,17.8125,-5,4,0
26660,17.6875,-7.5625,5.9375,0
26680,9.25,-5.6875,5.8125,0
26700,5.625,-7.625,6.5625,0
26720,2.4375,-11.3125,4.875,0
26740,-0.25,-10.6875,5.25,0
26760,-1.8125,-11.5,6.1875,0
26780,-4.8125,-13.125,4.625,0
26800,-8.125,-12.8125,4.6875,0
26820,-9.875,-10.9375,6.3125,0
26840,-8.125,-8.0625,7.1875,0
26860,-7.9375,-7.625,5.3125,0
26880,-11.3125,-7.25,1.8125,0
26900,-14.75,-6.875,2.1875,0
26920,-15.3125,-7.0625,4.375,0
26940,-13,-10.75,5.5,0
26960,-11.5,-10.375,2.875,0
26980,-12.6875,-8.1875,1.0625,0
27000,-14.875,-5.9375,1.4375,0
27020,-12.4375,-4.25,0.125,0
27040,-8.8125,-6,-3.5625,0
27060,-13.5625,-8.8125,-7.25,0
27080,-14.125,-9.4375,-8.1875,0
27100,-11.9375,-6.5,-9.6875,0
27120,-13.25,-8.0625,-10.5,0
27140,-13.3125,-9.5,-10.75,0
27160,-11.375,-12,-9.5625,0
27180,-9.4375,-14.625,-9,0
27200,-9.5625,-14.375,-9.375,0
27220,-9.625,-12.8125,-10.25,0
27240,-8.25,-9.3125,-9.4375,0
27260,-6.9375,-7.625,-7.8125,0
27280,-6.125,-5.6875,-5.5,0
27300,-4.0625,-4.125,-5.125,0
27320,-2.75,-1.6875,-4.875,0
27340,-1.375,0.9375,-3.75,0
27360,-0.5625,2.3125,-1.9375,0
27380,-0.875,3.375,-0.0625,0
27400,-0.625,4.3125,0.4375,0
27420,0.25,2.75,0.4375,0
27440,0.75,0.5625,0.6875,0
27460,-0.9375,-2.25,-0.3125,0
27480,-2.8125,-4,-1.875,0
27500,-1.4375,-7.6875,0,0
27520,0.125,-8.8125,0.25,0
27540,-2.0625,-12.4375,-3.25,0
27560,-6.0625,-14,-3.25,0
27580,-7.5625,-12.4375,-2.5,0
27600,-0.375,-9.5625,2,0
27620,7.1875,-1,3.75,0
27640,6.3125,8.8125,3.1875,0
27660,4.375,15.3125,3,0
27680,4.0625,20.625,3.875,0
27700,8.375,24.8125,5.8125,0
27720,10.375,29.5,3.5625,0
27740,11.5625,37.25,7.0625,0
27760,12.25,46.25,12.625,0
27780,14.3125,57.4375,20.4375,0
27800,20.9375,73.9375,31.125,0
27820,31.8125,93,38.5625,0
27840,38.0625,113.688,41.0625,0
27860,41.6875,132.812,45.125,0
27880,44.625,145.5,53.5625,0
27900,53.9375,158.625,60.875,0
27920,58.9375,177.5,71.4375,0
27940,56.5,203,83,0
27960,57.75,222.5,97,0
27980,56.1875,233.062,112.25,0
28000,53.0625,236.312,125.062,0
28020,50.0625,245.875,128.375,0
28040,26.6875,249.062,132.875,0
28060,6.4375,244.25,136.5,0
28080,-4.625,232,121.562,0
28100,-30.375,222.5,116.125,0
28120,-56.25,219,116.812,0
28140,-29.5,226.75,110.938,0
28160,-12.375,238.938,112.875,0
28180,-32.8125,245.312,122.875,0
28200,-74.6875,231.5,111.562,0
28220,-87.4375,206.375,85.875,0
28240,-63.3125,178.938,99.0625,0
28260,39.9375,162.062,139,0
28280,116.438,155.875,139.375,0
28300,7.9375,111.625,67.8125,0
28320,-78.875,-21.125,-99,0
28340,-132.062,-107.625,23.3125,0
28350,-135.625,-80.4375,23.125,0
28370,-65.5,-41.8125,26.625,0
28390,60.875,-10,31.125,0
28410,37.125,8.3125,29.875,0
28430,-16.75,22.375,19.8125,0
28450,-27,12.0625,4.125,0
28470,-32.125,4.9375,4.8125,0
28490,-37.25,-0.4375,10.375,0
28510,-22.125,-7.5,7.9375,0
28530,3.9375,-9.4375,9.5625,0
28550,16.0625,-7.1875,12.625,0
28570,14.625,-5.8125,10.9375,0
28590,0.8125,-5,5.625,0
28610,-11,-3,-2.625,0
28630,-7.6875,-0.8125,-6.0625,0
28650,5.625,-0.4375,-5.125,0
28670,16.75,-2.8125,-5.625,0
28690,20,-4.1875,-8,0
28710,4.1875,-5.5,-6.5,0
28730,-11.25,-6,-4.1875,0
28750,-8.625,-4.0625,-2,0
28770,3.5625,-3.375,-2.25,0
28790,7.1875,-1.25,-0.125,0
28810,6.375,1.75,2,0
28830,8.125,0.1875,3.6875,0
28850,6.375,-0.875,5.125,0
28870,17.875,-0.3125,2.75,0
28890,29.125,0.5,-1.125,0
28910,28.0625,2.3125,-3.9375,0
28930,18.5,4.125,-5.3125,0
28950,8.375,4.625,-5.5,0
28970,-0.8125,3.125,-4.5,0
28990,-4.8125,0.875,-1.8125,0
29010,-6.0625,-1.1875,1.3125,0
29030,-11.625,-1.8125,3.625,0
29050,-19.75,-1.5,4.625,0
29070,-25.625,-0.375,3.75,0
29090,-25.5,-1,3.5625,0
29110,-18.5,-2.0625,2,0
29130,-11.875,-2,2,0
29150,-7.125,-1.0625,1.5,0
29170,-3.875,-0.125,-0.25,0
29190,-1.5,0.3125,-1.4375,0
29210,1,0.1875,-2.125,0
29230,3.0625,-0.1875,-2.375,0
29250,3.875,-0.3125,-2.1875,0
29270,2.875,-0.75,-2.125,0
29290,0.5625,-0.8125,-1.4375,0
29310,-0.125,-1,-1.125,0
29330,-0.8125,-1,-0.375,0
29350,-1.0625,-1.1875,0,0
29370,-1.1875,-1.1875,0.1875,0
29390,-0.25,-1.25,0.625,0
29410,0.625,-1.125,0.875,0
29430,1,-1,0.5625,0
29450,0.4375,-1,0.1875,0
29470,-0.125,-0.875,-0.25,0
29490,-0.625,-1,-0.75,0
29510,-0.5625,-1.125,-1.0625,0
29530,-0.625,-1.1875,-1.125,0
29550,0.25,-1.125,-1.5,0
29570,0.5625,-1.0625,-1.375,0
29590,0.375,-0.9375,-1.5625,0
29610,0.1875,-0.8125,-1.75,0
29630,0.0625,-0.8125,-1.4375,0
29650,-0.375,-1.0625,-1.1875,0
29670,-2.5,-0.3125,-0.6875,0
29690,-3.1875,-0.0625,-0.8125,0
29710,-3.125,0.125,-0.375,0
29730,-3.3125,0.3125,-0.375,0
29750,-2.625,0.125,-0.9375,0
29770,-2.375,0.4375,-1.0625,0
29790,-0.8125,1.125,-1.3125,0
29810,2.0625,1.5,-1.4375,0
29830,2.9375,1.25,-0.1875,0
29850,-2,1.25,-1,0
29870,-6,1.25,-1.1875,0
29890,-7.6875,1.5,-1.0625,0
29910,-5.0625,0.875,-1.0625,0
29930,-2.25,0.6875,-1.0625,0
29950,-0.6875,0.4375,-1.8125,0
29970,0.4375,0.5625,-1.875,0
29990,1.3125,0.6875,-1.5625,0
30010,0.75,0.5625,-1,0
30030,-1.1875,0.3125,-1.4375,0
30050,-1.5625,0.3125,-1.625,0
30070,-0.0625,-0.25,-1.5625,0
30090,1.9375,-0.6875,-1.4375,0
30110,2.375,-1.375,-1.25,0
30130,2.0625,-1.75,-1.125,0
30150,0.625,-1.625,-1.0625,0
30170,1.25,-1.4375,-0.625,0
30190,1.1875,-1.625,-0.1875,0
30210,0.0625,-1.375,-0.0625,0
30230,-0.9375,-0.5625,0.1875,0
30250,-1.5,-0.5625,0.3125,0
30270,-1.25,-1.25,0.0625,0
30290,1.5625,-1.25,-0.5625,0
30310,0.9375,-1.4375,-0.125,0
30330,0.9375,-1.0625,-0.8125,0
30350,-0.75,-0.875,-1.125,0
30370,-0.1875,-0.4375,-1,0
30390,0.75,-0.4375,-0.5,0
30410,1.625,-0.4375,-0.375,0
30430,0.6875,-0.5625,-0.5,0
30450,-0.5625,-0.3125,-0.3125,0
30470,-1.0625,-0.375,-0.125,0
30490,-1.4375,-0.5,0.0625,0
30510,-2.375,-0.1875,-0.125,0
30530,0.25,-0.125,-1.0625,0
30550,1.6875,-0.75,-0.5625,0
30570,2.4375,-0.75,-1.0625,0
30590,3.125,-1.5,-1.125,0
30610,1.4375,-1.5,-1.125,0
30630,-0.4375,-1.125,-0.5625,0
30650,-0.125,-0.9375,-0.125,0
30670,0.4375,-1.0625,0.4375,0
30690,0,-1.1875,0.125,0
30710,-0.125,-1,-0.375,0
30730,-0.125,-0.9375,-0.75,0
30750,0.125,-1.1875,-0.75,0
30770,0.4375,-1.375,-0.6875,0
30790,0.8125,-1.4375,-0.5,0
30810,1.25,-1.4375,-0.3125,0
30830,0.75,-1.625,-0.0625,0
30850,0.75,-1.5,0,0
30870,0.1875,-1.25,0.0625,0
30890,-0.5625,-0.9375,0.1875,0
30910,-1,-0.6875,0.125,0
30930,-0.875,-0.375,0.125,0
30940,-1.125,-0.6875,0.125,0
30960,-0.625,-0.6875,0.5625,0
30980,3.4375,-0.75,1.1875,0
31000,1.8125,-1.3125,1.125,0
31020,-1.6875,-1,-0.1875,0
31040,-0.625,-1,-0.125,0
31060,0,-1.1875,0.25,0
31080,0.9375,-1.5625,0.0625,0
31100,0.1875,-1.375,-0.5,0
31120,-0.0625,-0.4375,-0.25,0
31140,-0.9375,-0.25,-0.25,0
31160,-2,-0.5625,-0.1875,0
31180,-2.125,-0.625,0.3125,0
31200,-1.5,-0.8125,0.375,0
31220,2.6875,-1,1.625,0
31240,-1.4375,-1.75,0.0625,0
31260,-2.6875,-2,0.375,0
31280,4.625,-3.375,0.0625,0
31300,5.4375,-4.5625,0.3125,0
31320,13.5,-6,1.1875,0
31340,12.125,-6.6875,-0.5,0
31360,15.6875,-5.125,-1.875,0
31380,19.8125,-1.6875,-1.625,0
31400,15.6875,0.8125,-0.75,0
31420,7.8125,1.375,-0.1875,0
31440,13,0.3125,-0.625,0
31460,15,0.0625,-0.8125,0
31480,11.3125,0.75,-1.5,0
31500,6.75,1.5625,-3.25,0
31520,2.5625,1.25,-3.4375,0
31540,0.6875,0.5,-3.0625,0
31560,1.75,-0.4375,-1.9375,0
31580,1.0625,-1,-1.1875,0
31600,0,-0.8125,-0.6875,0
31620,-1.9375,-0.625,0,0
31640,-4.6875,-1.875,1.5625,0
31660,-5.0625,-3.6875,4.125,0
31680,2.875,-5.125,4.5,0
31700,4.5,-6.5625,6,0
31720,11,-5.0625,2.9375,0
31740,12.3125,-4.375,0.625,0
31760,11.5,-3.625,-0.625,0
31780,4.1875,-5.4375,0.6875,0
31800,6.125,-7.6875,2.75,0
31820,17.6875,-10.875,2.875,0
31840,26.25,-15.8125,4.3125,0
31860,41.375,-13.4375,-7.4375,0
31880,38.4375,-17.1875,-14.625,0
31900,41.875,-30.75,-18.5,0
31920,42.1875,-44.625,-21.25,0
31940,47.5625,-57.1875,-19.4375,0
31960,36.625,-64.9375,-23.0625,0
31980,9.625,-74.0625,-27.6875,0
32000,-5.375,-78.875,-29.9375,0
32020,6.75,-80.8125,-31.0625,0
32040,13.4375,-82.875,-29.6875,0
32060,13.875,-84.5625,-29.125,0
32080,6.6875,-83.125,-31.5625,0
32100,4.0625,-83.6875,-26.5625,0
32120,1.4375,-85.25,-23.5625,0
32140,12.5625,-86.4375,-30.25,0
32160,19.1875,-81.9375,-31.5,0
32180,17.9375,-82.5625,-19.75,0
32200,1.75,-84.8125,-22.125,0
32220,9.25,-83.625,-28.25,0
32240,-3.375,-82.1875,-22.1875,0
32260,-10.4375,-79.1875,-23.0625,0
32280,0.5625,-74.75,-30.25,0
32300,0.8125,-69.0625,-26.6875,0
32320,-4.125,-63.75,-22.4375,0
32340,-5.75,-58.6875,-24.5625,0
32360,-3.4375,-54.5,-19.25,0
32380,-6.5,-40.375,-16.0625,0
32400,-12.375,-30.75,-20.3125,0
32420,-13.875,-27.125,-22,0
32440,-14.75,-23.875,-18.125,0
32460,-6.875,-23.6875,-11.25,0
32480,2.75,-21.375,-7.8125,0
32500,13.875,-15.5625,-7.4375,0
32520,10.375,-10.1875,-9.8125,0
32540,0.125,-7,-10.0625,0
32560,-3.375,-4.75,-8.625,0
32580,-1.125,-4.125,-7.9375,0
32600,0.625,-0.5,-10.5625,0
32620,6.5,5.8125,-16.75,0
32640,2,5.1875,-20.6875,0
32660,13.4375,1.125,-25.625,0
32680,15.375,-0.5625,-36.875,0
32700,5.75,8.8125,-61.375,0
32720,-18,9.4375,-62.1875,0
32740,-31.125,1.75,-39.75,0
32760,-43.6875,-0.875,-25.9375,0
32780,-39.9375,3.5,-19.25,0
32800,-25.875,12.1875,-12.3125,0
32820,-20.125,15.5625,-6.4375,0
32840,-29.5,15.5625,-4.4375,0
32860,-37.8125,16.75,-3.3125,0
32880,-33.5,21.4375,-5.1875,0
32900,-21.3125,22.375,-4.125,0
32920,-13.4375,22.6875,-1.6875,0
32940,-3.625,23.875,-1.5,0
32960,-4.375,25.1875,-5.3125,0
32980,0.5625,26.25,-12.9375,0
33000,4.0625,24.5625,-17.75,0
33020,1.1875,22.5625,-19,0
33040,-0.5,19.25,-19.1875,0
33060,1.125,17.6875,-19.1875,0
33080,10.8125,15.1875,-19.6875,0
33100,13.875,12.125,-20.25,0
33120,10.0625,10.5625,-19.25,0
33140,6.8125,9.8125,-19.125,0
33160,6.0625,7.1875,-15.9375,0
33180,7.375,4.125,-14.5,0
33200,8.375,2.75,-14.375,0
33220,8.625,0.5625,-12.875,0
33240,7.1875,-1.3125,-12,0
33260,4.6875,-1.5625,-10.9375,0
33280,3.4375,-2.5625,-8.125,0
33300,4,-4.125,-6.3125,0
33320,7.3125,-4.75,-5.5625,0
33340,7,-5,-4.5,0
33360,5.75,-5.3125,-5.0625,0
33380,4.5625,-5.125,-5.125,0
33400,4.375,-4.8125,-3.4375,0
33420,4.4375,-4.25,-2.75,0
33440,5.1875,-2.875,-2.4375,0
33460,5.5625,-2.25,-1.625,0
33480,2.625,-2.0625,-0.375,0
33500,2.25,-2.125,4.1875,0
33510,0.5625,-2.1875,6.875,0
33530,-0.1875,-2.8125,9.6875,0
33550,12.1875,-4.125,12.4375,0
33570,15.8125,-4.875,9.125,0
33590,20.3125,-2.875,6.0625,0
33610,13.125,-0.3125,-1.25,0
33630,-0.25,5.0625,-6.5625,0
33650,-5.625,5.875,-4.875,0
33670,1.25,2.375,-2.3125,0
33690,11.6875,-1.9375,-1.4375,0
33710,16.1875,-2.5,-1.1875,0
33730,13.125,-2.125,-0.8125,0
33750,0.0625,-1.75,-1.5625,0
33770,-2.375,-1.0625,1.8125,0
33790,-0.625,-2.25,3.3125,0
33810,2.5,-2.4375,3.8125,0
33830,5.5625,0.1875,1.625,0
33850,3.4375,1.375,2.25,0
33870,-2.9375,2.1875,2.8125,0
33880,-0.3125,0.625,4.0625,0
33900,6,0.1875,1.6875,0
33920,6.9375,1.9375,0.5,0
33940,3.4375,1.5625,2.125,0
33970,3.1875,-0.6875,4,0
33990,4.75,-4.9375,6.5625,0
34010,6.1875,-2.3125,4.8125,0
34030,4.3125,1.6875,2.75,0
34050,-3.3125,3.3125,4.5625,0
34070,-4.625,-0.1875,9.0625,0
34090,0.25,-5.3125,9.9375,0
34110,5.4375,-5.6875,11.625,0
34130,7.375,-2.375,11.4375,0
34150,-0.375,-2,7.75,0
34170,-1.5625,-4.4375,7.75,0
34190,-1,-5.5,5.5,0
34210,5.3125,-5.875,5.875,0
34230,5.9375,-4.375,7.0625,0
34250,7.25,-2.9375,5.0625,0
34270,5.125,-2.125,4.1875,0
34290,0.4375,-1.6875,4.125,0
34310,1.25,-0.5625,3.875,0
34330,5,-1,3.9375,0
34340,6.75,0.0625,2.0625,0
34360,3.1875,0.3125,2.4375,0
34380,-0.25,-0.4375,1.9375,0
34400,-0.375,-0.9375,2.1875,0
34400,0.1875,-0.8125,1.3125,0
34420,-0.6875,-0.6875,1.0625,0
34440,-1.625,-1.3125,1.5625,0
34460,0.4375,-1.5625,0.6875,0
34500,1.9375,-1.4375,-0.875,0
34530,0.75,-0.6875,-0.25,0
34550,1.125,-0.5625,0.875,0
34570,1.75,-1.5625,-0.1875,0
34590,1,-1.25,-1.25,0
34610,-0.1875,-0.4375,-0.4375,0
34630,0.5,-0.1875,-0.375,0
34650,-0.1875,0.3125,-0.3125,0
34670,-0.4375,-0.0625,0.375,0
34690,-1.375,-0.75,2.6875,0
34710,3.1875,-0.75,2.3125,0
34730,4,-0.0625,0.5625,0
34750,0.375,0,0.75,0
34770,-1.0625,-1.6875,2.5,0
34790,1.375,-3.25,1.375,0
34810,1.1875,-3.875,0.0625,0
34830,-7.125,-7,0.875,0
34850,-5.875,-8.875,8.125,0
34870,4.4375,-11.25,2.375,0
34890,13.0625,-13.25,-5.3125,0
34910,6,-7,-6.25,0
34930,3.9375,-11.25,-10.5,0
34950,17.5625,-23.3125,-7.8125,0
34970,9.75,-23.375,-11.75,0
34990,1.75,-14.125,-10.5625,0
35010,-0.9375,-11.5,-7.5625,0
35030,-6.75,-14.8125,-2.4375,0
35050,-4.9375,-10.125,-1.4375,0
35070,-6.6875,-8.875,-8.375,0
35090,5.4375,-15.5625,-4.8125,0
35110,-2.8125,-18.5,-6.25,0
35120,-13.125,-15.9375,-1.9375,0
35140,-4.5,-18.4375,3.875,0
35160,-2.75,-10.625,4.3125,0
35160,6.4375,-14.625,9.4375,0
35180,3.9375,-22.625,14.5,0
35200,-23.8125,-29.9375,6.125,0
35200,-38.0625,-31.1875,8.4375,0
35220,-24.0625,-30.8125,16.625,0
35260,-5.8125,-31.5,19,0
35310,11.875,-31.0625,20.5,0
35330,2.25,-24.1875,19.9375,0
35350,-34.4375,-17.875,28.5,0
35370,-18.5,-25.6875,29,0
35390,-16.3125,-30.75,30.75,0
35410,-3.8125,-22.375,36.1875,0
35430,2,-4.125,15.625,0
35450,11.75,4.4375,-1.75,0
35470,11.0625,1.75,10.25,0
35490,-12.4375,-7,7.9375,0
35510,-25.125,-15.625,-11.875,0
35530,-26.6875,-17.6875,-21,0
35550,-15.8125,-29.75,-20.75,0
35570,-11.5,-35.5625,-18.1875,0
35590,-19.8125,-37.625,9.125,0
35610,-3.3125,-30.0625,9.4375,0
35630,9.4375,-25,-8.0625,0
35650,-5.0625,-24.0625,-15.125,0
35670,-2.875,-28.875,-10.3125,0
35690,8.25,-23.0625,-11.5,0
35710,9.6875,1.6875,-20.0625,0
35730,9.3125,16.25,-30.0625,0
35750,6.75,24.8125,-38.5,0
35770,9.8125,33,-35.9375,0
35790,4.625,40.75,-35.375,0
35810,-13.375,50.9375,-43.875,0
35830,1.5,48.9375,-23.6875,0
35850,-2.625,46.125,0.125,0
35870,-7.8125,40.9375,10.1875,0
35890,-13.1875,33.4375,16.6875,0
35910,-5.875,27.4375,18.625,0
35930,6.625,28.8125,18.75,0
35950,9.1875,34.9375,19.1875,0
35970,8.5625,37.8125,23.5,0
35990,7.5625,37.5,24.625,0
36010,12.9375,35.125,21.4375,0
36030,8.9375,33.0625,20.5,0
36050,7.125,30.8125,18.75,0
36070,13.1875,28.5625,7.375,0
36090,25.4375,28.3125,-9.9375,0
36110,9.875,39.3125,-7.125,0
36120,13.3125,56.375,2.4375,0
36140,7.3125,60.5,15.1875,0
36160,15.625,62,11.1875,0
36180,23.5625,67.375,4.1875,0
36200,12.0625,65,6.9375,0
36220,13.1875,51.375,12.375,0
36240,16.3125,39.3125,4,0
36260,12.75,35.5,-1.375,0
36280,8.875,31.1875,-3.125,0
36300,8.375,21.4375,-4.75,0
36320,11.5,23.625,-6.25,0
36340,5.3125,26.4375,-9,0
36360,-2.375,26.75,-5.6875,0
36380,-8.625,21.9375,-3.75,0
36380,-14.5625,21.6875,-1.75,0
36400,-9.625,21.875,-1.5625,0
36420,-4.3125,17.3125,5.375,0
36430,0.9375,13.4375,9.9375,0
36480,-0.5625,15.5625,7.4375,0
36500,-8.75,11.5625,4.3125,0
36520,0.5625,1.625,-3.6875,0
36540,-8.875,-8.3125,-6,0
36560,1.8125,-16.125,-3.4375,0
36580,0.3125,-18.4375,-6.1875,0
36600,-1.3125,-17.5625,-7.0625,0
36620,-0.3125,-16.6875,-11.3125,0
36640,-8.25,-20,-8.125,0
36660,-12.5625,-18.125,-4.8125,0
36680,-13.25,-12.125,5.4375,0
36700,-9.375,-6.875,-0.75,0
36720,-3.625,-0.9375,-1.6875,0
36740,-7.4375,8.125,6.5625,0
36760,-13.8125,11.25,3.0625,0
36780,-18,11.875,-7.9375,0
36800,-15.625,16.3125,1.5625,0
36820,-20.625,13.3125,-1.4375,0
36840,-20.125,1.5625,6.875,0
36860,-25.8125,-3.375,11.625,0
36880,-27.25,0.25,8.25,0
36900,-22.5625,6.125,14,0
36920,-6.875,7.4375,19.5,0
36940,1.9375,5.9375,15.6875,0
36960,1,-0.5625,9.3125,0
36980,-3.75,-1.5,1.0625,0
37000,-3.25,-1.625,-8.8125,0
37020,-3.75,-3,-6.375,0
37040,0.375,-7.4375,0.3125,0
37060,6.9375,-10.0625,1,0
37080,9.625,-12.4375,2,0
37100,12.1875,-17.0625,2.5625,0
37120,7,-20.8125,2.1875,0
37140,1.1875,-25.8125,-4.1875,0
37160,9.625,-31.5625,-9.875,0
37180,6.3125,-36.9375,-11.5625,0
37200,8.0625,-40.625,-3.8125,0
37220,15.875,-38.375,4.9375,0
37240,6.625,-38,2.8125,0
37260,2.3125,-31.8125,4.75,0
37280,5.9375,-25.5,11.8125,0
37300,6.625,-17.8125,20.75,0
37320,4.6875,-15.25,24.0625,0
37340,5.75,-9.375,20.0625,0
37360,5.6875,-0.625,24.25,0
37380,2.25,2,24.75,0
37400,4.8125,1.5,28.75,0
37420,14.25,-1.25,29.5625,0
37440,19.5625,2.125,25.0625,0
37460,16.1875,4.3125,24.375,0
37480,9.5625,1.5625,22.5,0
37500,9.5625,-1.6875,19.1875,0
37520,14.625,0.875,14.3125,0
37540,13.25,1.25,13.625,0
37560,9.8125,1.125,15.125,0
37580,10.4375,0.25,14.625,0
37600,10.4375,0.5,12.1875,0
37620,7.375,0.9375,12.125,0
37640,2,2.4375,10,0
37660,0.5625,3.75,8.1875,0
37680,0.75,2.1875,7.0625,0
37700,3.25,2.9375,6.9375,0
37720,3.4375,3.375,2.375,0
37740,1.625,4.1875,0.6875,0
37760,-0.1875,3.9375,0.8125,0
37780,0,5,-0.6875,0
37800,0.125,5.6875,-0.625,0
37820,0.0625,3.875,-0.1875,0
37840,3.1875,3.5625,-1.875,0
37860,3.125,4.5625,-4.1875,0
37860,2.3125,5.875,-6.0625,0
37880,1.25,7.625,-7.5625,0
37900,1.8125,7.0625,-7.1875,0
37900,2.75,5.3125,-7.4375,0
37960,4.25,7.125,-9.625,0
37960,6,7.9375,-12.4375,0
37980,5.6875,9.0625,-15.125,0
38000,6.75,9.6875,-17.375,0
38020,9.25,7.375,-17.75,0
38020,10.6875,3.8125,-19.125,0
38040,9.3125,3.6875,-22.125,0
38060,6.125,4.125,-22.5,0
38060,4.1875,1.875,-22.6875,0
38120,1.4375,-1.25,-23.8125,0
38160,0.75,-1.375,-26.0625,0
38180,1.3125,3.125,-25.875,0
38200,1.125,5.625,-24.375,0
38220,-1.5625,3.75,-23.1875,0
38240,-2.125,4.5625,-23.375,0
38260,-2.1875,7.375,-24.375,0
38280,-1.5625,8.625,-26.4375,0
38300,-1.75,8.75,-25.5,0
38320,-0.75,10.625,-25.5625,0
38340,-0.1875,13.1875,-25.375,0
38360,0.9375,11.5625,-24.375,0
38380,0.9375,9.9375,-24.1875,0
38400,0.875,8.8125,-23.75,0
38420,1,8.5625,-24.5,0
38440,4.1875,8.125,-26.25,0
38460,3.125,7.6875,-27.5625,0
38480,2.5625,6.8125,-27.3125,0
38500,0.8125,4.6875,-26.375,0
38520,0.4375,3.0625,-25.625,0
38540,0.25,1.875,-24.0625,0
38560,2.25,1.625,-25.125,0
38580,-1.3125,2,-23.25,0
38600,-4.1875,2.5,-21.8125,0
38620,-3.9375,2.5,-21.75,0
38640,-0.3125,-0.375,-20.8125,0
38660,3.1875,-1.4375,-19.6875,0
38680,1.875,-1.5625,-19.25,0
38700,1.5625,-2.875,-16.875,0
38720,-1.6875,-4.25,-14.5,0
38720,-2.25,-6.375,-14.125,0
38740,1.25,-8.4375,-16.375,0
38760,4.5625,-8.1875,-16.625,0
38780,6.8125,-8.125,-15.9375,0
38780,6.75,-7.875,-13.9375,0
38800,5.9375,-6.75,-12.125,0
38820,6.375,-7.4375,-10.1875,0
38840,5.3125,-8.8125,-9.8125,0
38840,6.0625,-8.875,-10.9375,0
38900,5.1875,-7.125,-9.375,0
38930,6.8125,-7,-6.4375,0
38950,8.1875,-8.625,-4.75,0
38970,9.125,-9.1875,-5.4375,0
38990,9,-7.75,-4.875,0
39010,8.5,-10.625,-3.125,0
39030,6,-15.875,-4.9375,0
39050,5.0625,-17.0625,-7.125,0
39070,2.8125,-16.75,-6.5625,0
39090,0.8125,-20.0625,-6,0
39110,0.625,-21.875,-5.3125,0
39130,3.5,-20.875,-3.25,0
39150,5.4375,-21.25,-1.5625,0
39170,5.3125,-23.0625,0.375,0
39190,5.3125,-21.75,0.9375,0
39210,5.9375,-19.1875,2.125,0
39230,11.125,-19.5,4.3125,0
39250,15.5,-20.0625,3.8125,0
39270,15.75,-17.6875,2.375,0
39290,15.75,-15.625,1.125,0
39310,16.1875,-15,1.25,0
39330,17.25,-13.1875,0.75,0
39350,17.0625,-11.625,-0.3125,0
39370,12.1875,-11.25,-0.75,0
39390,9.5,-10.375,-0.8125,0
39410,9.5625,-10.375,-0.5,0
39430,9.0625,-10.3125,-1.4375,0
39450,8,-8.1875,-2.875,0
39470,7.3125,-6,-2.9375,0
39490,5.4375,-5.9375,-2.1875,0
39510,4.875,-5.625,-1.3125,0
39530,2.75,-5,-1.625,0
39550,-0.0625,-1.8125,-1.625,0
39570,0.375,1,-1.125,0
39590,2.125,0.25,-0.1875,0
39610,2.9375,-0.875,1.375,0
39630,2.375,0.375,1.4375,0
39650,1.5,1,0.6875,0
39670,1.8125,1.25,-0.8125,0
39690,4,1.1875,-1.875,0
39710,5,0.375,-2.8125,0
39730,3.9375,0.8125,-3.1875,0
39750,3.9375,1.3125,-4.1875,0
39770,3.4375,2.1875,-4.875,0
39790,3.3125,3,-5.25,0
39810,1.6875,3.6875,-4.1875,0
39830,0.375,4.625,-3.0625,0
39850,0.125,4.625,-2,0
39870,1.1875,3.75,-1.75,0
39890,-0.5,3,-0.0625,0
39910,-1.625,2.25,1.9375,0
39930,-1.125,1.75,1.75,0
39950,0.5,1,2.6875,0
39970,2.0625,-0.6875,2.625,0
39990,2.5,-0.9375,2.875,0
40010,1.8125,-0.375,2.5625,0
40030,2.875,0,2.6875,0
40050,3.5,-1.3125,3.5625,0
40070,2.9375,-2.1875,4.1875,0
40090,0.375,-2.5625,4.9375,0
40110,-1.5,-3.375,5,0
40130,0,-3.5625,9.1875,0
40150,0.875,-4,7.9375,0
40170,-0.1875,-4.5625,9.0625,0
40190,-2,-5.25,11.375,0
40210,-0.3125,-5.875,11.9375,0
40230,-1.1875,-5.75,12.4375,0
40250,-0.875,-6.9375,11.1875,0
40270,-0.625,-8.9375,10.6875,0
40280,-0.3125,-9.6875,9.4375,0
40300,-5.125,-6.3125,9.3125,0
40320,-9.125,-2.75,11.3125,0
40320,-11.0625,-1.3125,14.3125,0
40340,-12.3125,-2.5625,16.25,0
40360,-11.5625,-4.75,17.375,0
40380,-9.75,-10.125,19.0625,0
40380,-10.8125,-16.125,21,0
40400,-14.875,-22.25,20.4375,0
40420,-18.6875,-31.5,17.8125,0
40440,-18.375,-37.25,16.9375,0
40480,-19,-38.75,13.1875,0
40530,-20.125,-37.9375,11.9375,0
40550,-17.8125,-36.625,11.375,0
40570,-15.75,-34.6875,9.375,0
40590,-13,-31.25,8.8125,0
40610,-14.25,-29.875,8.4375,0
40630,-17.625,-27.0625,10.125,0
40650,-21.0625,-23.3125,10.875,0
40670,-18.25,-22,13.75,0
40690,-20.5625,-21.1875,12.375,0
40710,-26.6875,-19.8125,11.875,0
40730,-32.8125,-14.75,8.8125,0
40750,-26.9375,-15.5,7.0625,0
40770,-23.375,-12.5,8.875,0
40790,-19.375,-14.125,6.25,0
40810,-11.125,-10.125,2.625,0
40830,-8.3125,-3,4.25,0
40850,-11.625,1.5625,3,0
40870,-12.25,2.9375,0.5625,0
40890,-3.5625,0.4375,-2.5625,0
40910,4.1875,-0.8125,-7.5625,0
40930,6.5,-0.4375,-11.125,0
40950,9,1.75,-10.125,0
40970,13.0625,3,-11.0625,0
40990,18.625,5.875,-13.4375,0
41010,19.3125,5.3125,-15,0
41030,18.8125,2.6875,-13.5625,0
41050,16.6875,0.375,-16.6875,0
41070,20.125,-0.25,-24,0
41090,17.3125,3.5625,-21.375,0
41110,10.5,4.625,-15.1875,0
41130,3.875,2.1875,-13.125,0
41150,-1.75,0.875,-8.625,0
41170,-5.3125,1.125,0.875,0
41190,-11.875,3.5,2.5625,0
41210,-24.75,5.6875,4.25,0
41230,-17.125,4.5,6.25,0
41250,-8.0625,3.375,1,0
41270,-11.1875,11.125,1.9375,0
41290,-9.3125,9.25,5.4375,0
41310,-11.5,7.75,9.875,0
41320,-12.25,10.5625,12.125,0
41340,-14,19,15.5,0
41360,-17.6875,16.9375,13.4375,0
41380,-3.3125,6.5625,12.125,0
41400,3.1875,-2.375,10.0625,0
41420,-1.375,-4.375,7.375,0
41440,-6.5625,-4.5,8.5625,0
41460,-5.75,-5.375,5.4375,0
41480,-0.375,-7.875,6.75,0
41500,0.5625,-4.5,7.6875,0
41520,-2.3125,-3.6875,5,0
41540,-9.75,-5.5,3.3125,0
41560,-14.5,-8.25,5.8125,0
41580,-8.625,-8.5,12.5,0
41600,-4.25,-10.0625,14.4375,0
41620,0,-9.625,13.5,0
41640,-6.1875,-6.5625,11.75,0
41660,-6.875,-5.4375,9.4375,0
41680,-1.625,-3.6875,10.5625,0
41700,4.375,-5,10.75,0
41720,5.0625,-6.3125,8.9375,0
41740,4.5,-3.5,6.8125,0
41760,2.375,-1.5625,4.3125,0
41780,-1.25,-1.875,6,0
41800,-1.0625,-2,6.5625,0
41820,-0.25,-1.875,8.125,0
41840,-0.375,-3.0625,8.5,0
41860,1.125,-1.875,5.75,0
41860,-0.9375,-1.25,4.5,0
41880,-2.875,-0.5625,4.5625,0
41900,-3.125,-0.25,4.9375,0
41920,-1,-3,8.1875,0
41920,1.1875,-4.6875,5.5625,0
41980,-0.75,0.3125,2.75,0
42000,-0.75,1.375,2.9375,0
42020,-2.8125,3,3.125,0
42040,-2.3125,2.375,4,0
42060,0.5625,3.25,4.1875,0
42080,-0.625,-0.1875,3,0
42100,0,1.0625,0.4375,0
42120,-0.4375,2.6875,-1.75,0
42140,-0.6875,6.375,-2.625,0
42160,-0.375,7.0625,1,0
42180,1.375,7.4375,3.9375,0
42200,4.5,8.25,5,0
42220,-0.375,10.875,5.625,0
42240,-4.0625,15,5.9375,0
42260,-4.625,16.9375,8.375,0
42280,-1.875,18.8125,10,0
42300,-0.625,18.625,10.5,0
42320,-0.625,19.25,9.6875,0
42340,-1.375,18.5,8.4375,0
42360,0.0625,18.1875,6.3125,0
42380,-1.625,16.875,6.375,0
42400,-2.75,16.3125,6.3125,0
42420,-3,14.875,6.0625,0
42440,-3.5625,16.1875,4,0
42460,-6.0625,18.625,2.8125,0
42480,-4.875,19.875,2.25,0
42490,-0.9375,17.0625,2.125,0
42520,-3.5625,12.3125,2.625,0
42540,-7.625,8.875,-0.6875,0
42560,-12.75,9.875,-6.6875,0
42580,-9.9375,11,-10.5,0
42600,-5,5.25,-13,0
42620,-4.625,-6.5625,-13.125,0
42640,-6.1875,-11.6875,-15.5625,0
42660,-7.75,-13.4375,-17.625,0
42680,1.5625,-14.8125,-20.4375,0
42700,13.8125,-21.75,-19.375,0
42720,16.4375,-33.6875,-17.9375,0
42740,9.375,-34.3125,-18.0625,0
42760,4.625,-24.375,-17.625,0
42780,6.625,-15.5,-13.125,0
42800,14.1875,-13.25,-4.875,0
42820,23.9375,-13.125,3.25,0
42840,26.75,-11.4375,8.875,0
42860,19.125,-11.4375,13.6875,0
42880,9.375,-12.875,15.5,0
42900,2.4375,-13.5,17.0625,0
42920,-1.8125,-13,19.125,0
42940,-2.5,-12.5,22.5625,0
42960,-3.4375,-13.125,22.625,0
42980,-3.75,-14.0625,20.875,0
43000,-4.4375,-15.8125,19.6875,0
43020,-3.1875,-19.75,18.5625,0
43040,0.25,-23.1875,14.1875,0
43060,0.5625,-24.875,12.3125,0
43080,2.75,-26.9375,10.625,0
43100,9.1875,-28.375,7.1875,0
43120,14.25,-28.75,5.9375,0
43140,14.625,-27.6875,6.6875,0
43160,13.125,-25.625,8.3125,0
43180,10.0625,-20.5625,8.9375,0
43200,6.0625,-14.1875,9.9375,0
43220,5.375,-3.9375,9.5,0
43240,12.1875,7.6875,9.625,0
43260,15.6875,10.5,10.375,0
43280,14.5625,8.125,10.5,0
43300,12.625,3.125,8.125,0
43320,6.25,-2.125,0.1875,0
43340,-2.0625,-4.4375,-8.3125,0
43360,-4.6875,-4.6875,-15.125,0
43380,-3.4375,-3.4375,-19.1875,0
43400,-0.875,-1.5,-20.6875,0
43420,2.0625,1.5625,-20.5625,0
43440,4.375,3.5625,-17.625,0
43460,6,6.125,-14.75,0
43480,5.25,9.1875,-11.25,0
43500,5.4375,10.6875,-7.4375,0
43520,1.1875,10.375,-3.4375,0
43540,-1.125,11.8125,0.125,0
43560,1.4375,11.375,3.1875,0
43580,-1.0625,12.25,3.8125,0
43580,0.375,17.5625,8,0
43600,0.8125,13.9375,15.0625,0
43620,-2,-0.6875,16.75,0
43640,-6.375,-14.25,16.5,0
43640,-9.5,-21.75,13.1875,0
43660,-8.0625,-22.5,4.75,0
43680,-6.125,-21.375,-0.875,0
43700,-8.25,-21.375,-5.1875,0
43700,-12.9375,-20.875,-4.0625,0
43750,-10.1875,-20.375,-2.5,0
43800,-6.625,-18.6875,-2.625,0
43820,-2,-10.625,-1.9375,0
43840,2.6875,-1.5625,-0.5625,0
43860,4.875,1.875,0.5625,0
43880,1.125,-2.4375,0.375,0
43900,-2.125,-6.4375,0.1875,0
43920,-3.625,-8.8125,-0.4375,0
43930,-6.625,-11.375,-2.5,0
43950,-4.25,-11.4375,-7.5,0
43970,-0.875,-11.5625,-10.3125,0
43990,0.0625,-12.4375,-12.25,0
44010,-1.0625,-10.25,-12.375,0
44030,-0.4375,-6.75,-10.3125,0
44050,1.4375,-3.625,-8.0625,0
44070,6.875,-1.75,-4.6875,0
44090,4.8125,-2.75,-1.1875,0
44110,1.875,-2.9375,0.75,0
44130,0.75,-1.6875,0.5625,0
44150,-0.1875,-1.5625,1.0625,0
44170,0.1875,-2.3125,1.3125,0
44190,-0.0625,-3.25,0.0625,0
44210,-0.8125,-2.25,-1.3125,0
44230,-0.5625,-2.5,-2.875,0
44250,0.25,-3.6875,-4.125,0
44270,2,-4.8125,-5.125,0
44290,0.0625,-6.375,-4.5,0
44310,-2.0625,-7.0625,-3.875,0
44330,-1.625,-6.4375,-2.9375,0
44350,-1.5,-6.75,-2.6875,0
44370,-2.0625,-6.4375,-3.875,0
44390,1.0625,-5.4375,-3.3125,0
44410,1.6875,-5.125,-1.6875,0
44430,2.6875,-4.9375,-0.875,0
44450,3.8125,-5.1875,0.25,0
44470,5.5625,-4.625,0.8125,0
44490,5.125,-4.4375,1.5625,0
44510,1.25,-4.9375,3.375,0
44530,-0.125,-5.625,4.625,0
44550,-2.3125,-5.3125,4.3125,0
44570,-3.9375,-5.5,4.1875,0
44590,-5.125,-6.6875,4,0
44610,-5.375,-6.75,3.6875,0
44630,-6.5,-5.25,3.4375,0
44650,-5.5625,-4.3125,2.875,0
44670,-5.6875,-5,4.3125,0
44690,-4.8125,-4.3125,5.75,0
44710,-4.5,-3.5,3.6875,0
44730,-4.75,-3.75,2.125,0
44750,-6.1875,-5.1875,-0.5,0
44770,-5.625,-5.375,-2.0625,0
44790,-5.6875,-7.75,-2.9375,0
44810,-8.375,-10.125,-3.8125,0
44830,-9.125,-10.25,-5.25,0
44850,-8.4375,-11.625,-5.5625,0
44870,-7.375,-12.4375,-4.625,0
44890,-8.8125,-13,-4.125,0
44910,-10.5,-10.625,-4.3125,0
44930,-11.3125,-7.75,-4.5,0
44950,-10.625,-5.25,-3.4375,0
44970,-8.25,-4.25,-3.5625,0
44990,-6.3125,-3.5625,-2.625,0
45010,-5.5,-3.625,-2.875,0
45030,-5.8125,-3.25,-2.75,0
45050,-8.125,-3.625,-2.25,0
45070,-6.625,-4.5625,-1.875,0
45090,-2.875,-4.125,-1.625,0
45110,-1.25,-3.6875,-2.0625,0
45130,-0.5625,-3.625,-3.25,0
45150,-0.5625,-3,-4.75,0
45170,-2.1875,-2.375,-4.25,0
45190,-2.5,-2.4375,-2.5,0
45210,-1.4375,-2.875,-2.1875,0
45230,2.4375,-1.375,-3.1875,0
45250,1.6875,-1.5625,-2.375,0
45270,1.5,-0.4375,-2.1875,0
45290,2.25,1,-1,0
45310,2.375,1.1875,0.3125,0
45330,2.125,1.25,0.9375,0
45350,0.125,1.25,1.875,0
45370,-0.8125,-0.9375,2.3125,0
45390,-0.1875,-2.375,1.4375,0
45410,1.8125,-2.4375,0.4375,0
45430,2.875,-2.25,-0.5,0
45450,4.625,-2.25,-1.75,0
45470,4.4375,-2.375,-1.75,0
45490,5.25,-1.5625,-1.1875,0
45510,4.75,-0.3125,-1.3125,0
45530,4.5625,1.3125,-0.375,0
45550,1.6875,1.5,1.0625,0
45570,1.4375,2.625,1.125,0
45590,0.5625,3.3125,1.5625,0
45610,0.875,4.625,1.875,0
45630,1,4.8125,1.0625,0
45650,0.5,3.9375,1.6875,0
45670,1.125,4.25,0.875,0
45690,2.0625,3.4375,1.625,0
45710,2.9375,2.5625,1.625,0
45730,3.1875,2.625,2.25,0
45750,2.5,2.9375,2.1875,0
45770,2.0625,5.3125,3.375,0
45790,1.125,7.5625,4.9375,0
45810,-0.0625,11.0625,7.1875,0
45830,-3.5625,14.5,12.3125,0
45850,-7.375,21.375,17.3125,0
45870,-11.5625,30.4375,21.875,0
45890,-13.75,38,23.4375,0
45910,-16.0625,42.8125,25.625,0
45930,2,42.875,21.25,0
45950,2.8125,40.875,22,0
45970,3.25,40.3125,22.375,0
45990,4.0625,40.625,19.125,0
46010,5.4375,37.375,17.75,0
46030,5.0625,32.5,12.875,0
46050,7.875,25.6875,9.25,0
46070,7.0625,19.5625,6.375,0
46090,7.1875,15.625,4.875,0
46110,8.8125,11.625,1.75,0
46120,8.75,8.1875,0.375,0
46140,8.8125,5.8125,-1.25,0
46140,4.25,2.375,-1.4375,0
46160,2.625,-0.5625,-0.625,0
46200,2.3125,-2.8125,1.125,0
46230,2.375,-5.5,2.875,0
46250,3.625,-7.5625,2,0
46270,3.75,-9.25,0.875,0
46290,-0.4375,-10,0.6875,0
46310,-2.5625,-10.125,-0.0625,0
46330,-2.8125,-11.0625,0.8125,0
46350,1.25,-12.75,1.75,0
46370,2.25,-14,0.6875,0
46390,0.0625,-14,0.875,0
46400,-2.5625,-13.5625,0.125,0
46420,-3.6875,-14.625,1.3125,0
46430,-1.1875,-16.5625,0.8125,0
46440,0.4375,-17.75,0.875,0
46460,0.6875,-18.8125,0.75,0
46480,-2,-20.75,1,0
46500,-1.375,-22.25,2.375,0
46500,-1.0625,-22.875,3.375,0
46520,-2,-22.9375,2.75,0
46540,0.3125,-21.0625,4.25,0
46540,-1.625,-20.5,3.75,0
46600,0.625,-19.75,2.4375,0
46640,-2.1875,-19.125,-3.4375,0
46660,-3.4375,-15.8125,-2.9375,0
46680,-3.625,-15.8125,3.125,0
46700,-8.9375,-13.6875,-1.9375,0
46720,-4.125,-10.9375,5.25,0
46740,-9.5,-12.125,1.9375,0
46760,-4.1875,-13.875,2.8125,0
46780,-3.6875,-10.4375,4.6875,0
46800,-7.75,-13.5,-0.875,0
46820,-7.6875,-12.8125,1.625,0
46840,-6.5625,-10.625,-1.8125,0
46860,-7.9375,-8.9375,0.5625,0
46880,-4.875,-9.125,1.9375,0
46900,-1.5625,-5.4375,-0.125,0
46920,-1.625,-1.3125,-2.4375,0
46940,-2.8125,0.3125,-2.125,0
46960,-2.8125,0.6875,0.8125,0
46980,-3.125,0.625,-0.5625,0
47000,-0.625,0,0,0
47020,2,0.125,0.1875,0
47040,2.9375,1.25,-4.5625,0
47060,1.0625,0.5,-4.5625,0
47080,0,-1.8125,-1.25,0
47100,-1.25,-4.125,1.5625,0
47120,-1.0625,-5.125,2.25,0
47140,-0.375,-7.25,1.6875,0
47160,-0.9375,-8.9375,2.875,0
47180,-1.1875,-7.1875,1.5,0
47200,0.375,-3.5,-1.375,0
47220,1.875,-2.8125,0.3125,0
47240,1.4375,-5.0625,2.625,0
47260,-0.1875,-4.875,1.5625,0
47280,-0.875,-2.8125,-0.9375,0
47300,-2.9375,0.4375,2.0625,0
47320,-0.125,-0.25,0.375,0
47340,1.5,-2.5625,1.9375,0
47360,0.8125,-2.875,3.5625,0
47380,-0.125,-2.5,0.1875,0
47400,-1.3125,-2.4375,1,0
47420,-0.8125,-1.1875,0.9375,0
47440,0.4375,-1.4375,0.75,0
47460,0.4375,-1.9375,-0.75,0
47480,0.375,-1.25,-0.3125,0
47500,-1.5,-1.4375,0.4375,0
47520,0.25,-1.875,0.625,0
47540,0.5625,-1.5625,1.4375,0
47560,1.125,-1.6875,2.0625,0
47580,-0.3125,-2.8125,3,0
47600,-1.5625,-1.5,0.6875,0
47620,-5.6875,-0.4375,-2.1875,0
47640,-5.6875,-1,0.3125,0
47660,-1.4375,-4.3125,4.1875,0
47680,0.625,-2.625,3.0625,0
47700,-0.3125,-1.125,-3.375,0
47720,-3.1875,0.1875,-12.4375,0
47740,-7.25,2.4375,-18.8125,0
47760,-6.0625,2.625,-19.625,0
47780,-8.8125,8.3125,-9.5625,0
47800,-3,10.9375,-0.5,0
47820,1.5,12.6875,2.5625,0
47840,0.9375,15.3125,1.25,0
47860,-13.0625,16.625,-6.6875,0
47880,-15,14.0625,-9.75,0
47900,-11.25,12.3125,-11.6875,0
47920,-7.9375,18.1875,-16.125,0
47940,-11,25.875,-15.5625,0
47960,-11.125,31.875,-11.625,0
47980,-13,44.75,-6.5,0
48000,-22.4375,60.1875,-5.125,0
48020,-34.75,73.625,1.6875,0
48040,-32.0625,80.5625,-0.25,0
48060,-23.9375,84.125,-2.75,0
48080,-11.875,79.8125,17.5,0
48100,-21.25,77.25,24.875,0
48120,-26.1875,73.75,22,0
48140,-19.625,72.375,16.6875,0
48160,-9.5,66.0625,10.25,0
48180,2.1875,64.25,9.75,0
48200,6.8125,58.1875,10.75,0
48220,9.1875,52.875,13.875,0
48240,2.375,49.5,13.0625,0
48260,17.8125,49.25,8.375,0
48280,15.1875,48.875,10.4375,0
48300,19.875,38.3125,12.6875,0
48320,20.9375,32.375,6.5,0
48340,14.1875,30.1875,0.6875,0
48360,2.625,26.25,0.125,0
48380,3.0625,20.75,-3.875,0
48400,3.6875,12.625,-2.5625,0
48420,6.8125,11.1875,-7.1875,0
48440,-2.1875,7.5625,-10.6875,0
48460,-9.1875,8.9375,-6.375,0
48480,-7.3125,9.5625,-6.75,0
48500,1.8125,11.1875,-8.25,0
48520,19.3125,8.8125,-0.625,0
48540,24.75,9.125,2.9375,0
48560,20.625,4.8125,0.75,0
48580,23.6875,-1,-1.75,0
48600,26.0625,-3.1875,-3.5625,0
48620,6.9375,-5.25,-2.75,0
48640,-4.3125,-11.625,-1.875,0
48660,-11.8125,-15.6875,-8.25,0
48680,-17.625,-13.1875,-2,0
48700,-21.75,-11.1875,0.375,0
48720,-21.4375,-15.5625,1.625,0
48740,-27.3125,-13.125,1.3125,0
48760,-31.1875,-12.0625,4.1875,0
48780,-32.1875,-10.75,1.875,0
48800,-35.375,-6.4375,-5.5625,0
48820,-28,-9.8125,-4.5625,0
48840,-18.75,-15.3125,3.25,0
48860,-21.375,-22.125,2.5625,0
48880,-22.9375,-22.6875,2.5625,0
48900,-12.6875,-20.5625,14.4375,0
48920,-14.625,-18.5,20.4375,0
48940,-12.375,-24.4375,5.4375,0
48960,2.875,-26.5625,5.6875,0
48980,18.8125,-25.5,8.8125,0
49000,23,-33.4375,5.0625,0
49020,9.75,-37.625,-2.5625,0
49040,7.375,-47.875,-6.1875,0
49060,14.5625,-54.375,-3.125,0
49080,21.3125,-58.3125,-1.1875,0
49100,18.75,-61.875,-0.9375,0
49120,19.25,-64.3125,-5,0
49140,22.5625,-64.6875,-5.0625,0
49150,15.6875,-64.625,-3.625,0
49170,17.9375,-63.625,0.5625,0
49190,17.375,-58.375,0.5625,0
49210,13.625,-58.3125,2.0625,0
49230,6.625,-56,3.5,0
49250,11.1875,-54.5625,1.1875,0
49270,11.0625,-51.6875,2.625,0
49290,6.375,-45.6875,0.0625,0
49310,3.25,-44.9375,3.4375,0
49330,-2.625,-42.1875,7.3125,0
49350,3.75,-40.625,9.0625,0
49370,8.6875,-36.0625,6.375,0
49390,7.5625,-29.75,4.5,0
49410,5.1875,-25.0625,3.875,0
49420,7.8125,-25.625,5.625,0
49440,9.4375,-22.6875,9.9375,0
49460,11,-22.5625,13.6875,0
49470,5.5,-21.9375,15.875,0
49480,2.8125,-20.5625,16.3125,0
49500,-1.4375,-18.1875,11.3125,0
49520,-7.75,-12.625,10.1875,0
49570,-9.5,-11.4375,15.8125,0
49590,1.25,-11.9375,19.1875,0
49610,2.3125,-12.5,21.4375,0
49630,-0.875,-14.3125,22.3125,0
49650,-6.375,-9.25,22.0625,0
49670,-3.875,-8.875,18.75,0
49690,-6.375,-9.5625,12.9375,0
49710,1.75,-7.6875,12.25,0
49730,5.3125,-6.125,8.75,0
49750,0.125,-5.25,7.6875,0
49770,-2.5,-5.8125,11.5625,0
49790,3.875,-9.875,14.6875,0
49810,7.3125,-9,8.5625,0
49830,2.625,-2.1875,5.3125,0
49850,-2.4375,0.125,9.0625,0
49860,0.0625,-3.875,11.5,0
49880,5,-6.875,8.75,0
49900,4,-6.75,11.1875,0
49920,0.9375,-4.125,10.375,0
49920,-2.0625,-1.4375,6.5625,0
49940,-2.75,-2.1875,5.9375,0
49960,-2.4375,-5.5,7.0625,0
49980,-3.625,-4.4375,4.5625,0
49980,-4.875,-2.9375,3.6875,0
50000,-0.8125,-2.625,6.25,0
50020,-0.6875,-4.625,4.75,0
50040,-5.375,-4.9375,4.6875,0
50040,-9.75,-3.75,6.9375,0
50060,-6,-3.375,10.1875,0
50080,-2.0625,-5.375,11,0
50100,-2.4375,-1.5,9.3125,0
50100,-3.125,-0.625,9.5,0
50120,-0.8125,-0.9375,8.625,0
50140,-0.375,-1.75,8.0625,0
50160,-1.9375,-3.0625,6.625,0
50160,-3,-1.75,3.5,0
50180,-0.3125,-1.3125,-0.75,0
50200,5.25,-2.25,0.125,0
50220,4.8125,-3,0.625,0
50230,3.8125,-1.0625,-1.125,0
50320,1.1875,-1.9375,0.75,0
50350,2.375,-1.0625,0.5625,0
50380,-1.375,0.0625,-0.4375,0
50400,-7.5,0.625,0.8125,0
50420,-6.25,0.625,1.125,0
50440,-5.9375,1.25,-0.0625,0
50460,-6.0625,1.5,1.25,0
50480,-4,1.0625,2.5,0
50500,-5,-0.6875,0.9375,0
50520,0.3125,-3.75,-0.5,0
50540,-1.1875,-6.1875,-6.5625,0
50560,-12.0625,-4.5625,-3.75,0
50580,-13.0625,-1.75,0.875,0
50600,-7.5625,2.4375,0.5625,0
50620,2.8125,3.125,4.125,0
50640,15.3125,10,3.9375,0
50660,16.625,20.25,2.6875,0
50680,7.625,22.5,0.875,0
50700,-1.5625,20.8125,2.25,0
50720,0.125,17.9375,-1.5625,0
50740,10.625,11.4375,-6.0625,0
50760,19.375,5.5,-8.125,0
50780,20.5,6.875,-10.3125,0
50800,22.9375,9.4375,-12.25,0
50820,20,8.5625,-14.5,0
50840,11.8125,8.4375,-11.375,0
50860,8.625,14.875,-13.125,0
50880,6.875,21.375,-16.625,0
50900,6.75,25.0625,-21.9375,0
50920,8.9375,20.875,-21.3125,0
50940,11.125,13.0625,-18.3125,0
50960,14.8125,15.125,-21.875,0
50980,9.125,15.5,-23.6875,0
51000,0.1875,15.9375,-23.4375,0
51020,1.9375,12.75,-24.0625,0
51040,4.75,6.5,-22.5,0
51060,5.875,2.8125,-19.625,0
51080,1.75,0.4375,-19.75,0
51100,2.75,0.1875,-20.0625,0
51120,2.375,-2.8125,-20,0
51140,1.25,-2.25,-19.375,0
51160,2.1875,-2.5,-18.6875,0
51180,3.5,-5.4375,-16.625,0
51200,5.0625,-6.375,-16.125,0
51220,4.5625,-5.625,-16.5625,0
51240,-0.8125,-4.4375,-15.75,0
51260,0.25,-3.875,-15.75,0
51270,0.3125,-4.4375,-13.5,0
51300,2.0625,-4.625,-10.875,0
51310,1.6875,-4.5625,-8.5,0
51330,0.875,-4.5,-8.625,0
51340,0.5,-3.5625,-8.5,0
51350,0,-4.5,-8.875,0
51370,0.125,-3.75,-8.1875,0
51390,2.5625,-3.1875,-6.75,0
51410,2.5625,-4.0625,-6.3125,0
51410,1.9375,-4,-5.5,0
51430,0.625,-3.8125,-5,0
51450,1.375,-3.875,-4.3125,0
51470,2.1875,-3,-3.25,0
51530,1.25,-3.9375,-2.125,0
51560,-1.5,-4.125,-1.75,0
51580,-1.6875,-3,-0.8125,0
51600,-0.625,-3,-0.5,0
51620,-0.5625,-2.5625,-0.6875,0
51640,-0.875,-2.875,-0.4375,0
51660,-0.8125,-2.125,-0.5,0
51680,0.25,-3.0625,-0.9375,0
51700,0.0625,-2.3125,-2.0625,0
51710,0.6875,0.3125,-1.25,0
51730,1.625,0.0625,0.25,0
51750,1.25,-0.5,0.9375,0
51770,1.75,-0.4375,1.3125,0
51790,0.5625,-0.625,1.0625,0
51810,-2.125,-0.1875,0.75,0
51830,-4.5625,1,2.8125,0
51850,-2,-0.4375,4.625,0
51870,-2.75,-1.0625,5.8125,0
51890,-6.75,1.5,7,0
51910,-8.5625,3.5,6.4375,0
51930,-11.625,3.75,8.8125,0
51950,-8.375,3.75,12.25,0
51970,-2.3125,4.5625,14.125,0
51990,-4.875,4.875,17.25,0
52010,-10.3125,4.125,17.25,0
52030,-12.5625,2,15.0625,0
52030,-11.5625,1.375,15.625,0
52050,-6.9375,0.375,15.3125,0
52070,-1.3125,-2.625,11.9375,0
52090,-2.6875,-4.9375,11.5,0
52090,-5.5,-6.3125,12.8125,0
52110,-3.3125,-10.25,12.9375,0
52130,-2.25,-12.8125,12.6875,0
52150,-2.4375,-13.5,13.3125,0
52150,-0.25,-15.9375,13.9375,0
52170,2.0625,-18.375,12.9375,0
52190,1.25,-19.75,12.9375,0
52200,-0.75,-19.9375,13.6875,0
52210,0.1875,-19.375,13.125,0
52230,-0.125,-20.125,13.875,0
52250,1.5,-20.6875,14.0625,0
52290,3.4375,-17.75,12.25,0
52350,-0.6875,-16.5625,11.8125,0
52390,0.0625,-14.5,11,0
52410,4.9375,-13.375,8.9375,0
52430,6.1875,-13,8.25,0
52450,4.1875,-12.5625,10.4375,0
52470,4.1875,-10.4375,9.9375,0
52490,2.0625,-9.1875,8.0625,0
52510,0.5,-8.9375,5.3125,0
52530,-0.75,-5.25,2.9375,0
52550,-3.1875,-3.875,4.4375,0
52570,0.3125,-4.3125,4.5625,0
52590,5.1875,-3.5,3.75,0
52610,5.8125,-3.125,3.5625,0
52630,1.9375,-3.25,2.5625,0
52650,1.125,-3.6875,1.3125,0
52650,1.9375,-3.1875,-0.125,0
52690,-1.5625,-3,1,0
52710,-1.8125,-1.8125,0.4375,0
52730,-2.375,-0.3125,-1.9375,0
52750,-1.0625,1.0625,0.5625,0
52770,0.4375,0.5,1.4375,0
52790,2.75,0.75,2.6875,0
52810,1.375,-1.4375,2.625,0
52830,-1,-2.3125,0.625,0
52850,-1.6875,-2.3125,0.6875,0
52870,-3.1875,-3.625,2.25,0
52890,-4.5625,-5.125,3.25,0
52910,-1.625,-5.875,2.8125,0
52930,0.375,-5.75,5.3125,0
52950,-3.1875,-5.875,5.875,0
52970,-6.25,-5.375,4.25,0
52990,-3.1875,-4.1875,2.5625,0
53010,-0.1875,-3.3125,2.875,0
53030,-0.25,-4.125,3.75,0
53050,-0.8125,-3.3125,3.5625,0
53070,-2.0625,-2.9375,2.6875,0
53090,-1.625,-2,2.5,0
53110,0.9375,-1,3.375,0
53130,2.8125,-1.5625,3.9375,0
53150,2.25,-1,2.75,0
53170,0.375,0.5625,2.3125,0
53170,-0.625,-0.25,3.5625,0
53190,-0.25,-1.625,2.9375,0
53210,1.3125,-1.0625,0.5625,0
53230,-2.125,-2.125,3.25,0
53270,-3.8125,-0.4375,1.5625,0
53290,3,-1.5,-0.25,0
53290,-0.375,-6.5625,-0.875,0
53330,0.6875,-2.6875,0.25,0
53350,0.25,-2.0625,0.125,0
53370,-2.9375,-3.1875,0.5,0
53390,-4.4375,-2.0625,-0.1875,0
53410,-3,-2.8125,0.5625,0
53430,0.375,-3.1875,0.6875,0
53450,-0.75,-3.125,-0.8125,0
53470,-2.8125,-1.5625,0.0625,0
53490,-2.0625,-1.5,1.6875,2000
53510,0.6875,-2.125,1.5,0
53530,-1.125,-0.5625,-0.5625,0
53550,-0.5625,-0.125,2.0625,0
53570,0.875,-1.3125,3.25,0
53590,4.1875,-2.3125,-1.1875,0
53610,-0.0625,-0.9375,-2,0
53630,-0.6875,-1.6875,0.6875,0
53650,0.9375,-1.5,-0.3125,0
53670,0.1875,-2.25,-0.375,0
53690,-1.625,-1.75,1.375,0
53710,0.0625,-0.5625,0.375,0
53730,-0.1875,-1.1875,1.125,0
53750,0.0625,-2.1875,2,0
53770,0.375,-1.125,0.6875,0
53790,1.9375,-0.8125,0,0
53810,3.375,-1.625,0.75,0
53830,1.5,-2.25,0.125,0
53850,-0.625,-1.625,-1.1875,0
53870,2.75,-1.8125,0.25,0
53890,4.25,-2.5,1.25,0
53910,2.6875,-2.125,0,0
53930,-1.1875,-2.5,0.4375,0
53950,0.0625,-2.1875,0.6875,0
53970,3.6875,-2.8125,0.9375,0
53990,3.4375,-2.4375,0.625,0
54010,0.1875,-1.875,0.875,0
54030,-0.6875,-1.25,1,0
54050,1.5,-1.5625,1.125,0
54070,0.375,-2.5625,1.8125,0
54090,-0.0625,-1.6875,0.5625,0
54110,-1.0625,-1.3125,0.375,0
54130,0,-1.5625,0.4375,0
54150,1.875,-1.875,0.3125,0
54170,2.5625,-1.9375,-0.625,0
54190,2.1875,-2.0625,-0.5625,0
54210,2.8125,-2.5625,0.4375,0
54230,2.875,-3,0.75,0
54250,1.8125,-2.625,1.9375,0
54270,-0.375,-2.3125,2.75,0
54290,0.5,-3.0625,2.625,0
54310,-0.8125,-3.1875,2.9375,0
54320,-1.5,-3.125,4.625,0
54340,-0.125,-4.5625,5.5,0
54360,1.25,-4.8125,3.5,0
54380,-0.1875,-3.8125,2.4375,0
54400,0.0625,-3.8125,3.5,0
54420,0.5625,-4.75,2.875,0
54440,0.875,-4.5625,2.6875,0
54460,1.5625,-3.875,3.75,0
54480,1.0625,-4.5625,3.4375,0
54500,-0.375,-4.9375,2.5,0
54520,1.4375,-3.1875,2.375,0
54540,1.5,-3.0625,3.4375,0
54560,0.875,-4.0625,3.125,0
54580,0.1875,-4.125,2.625,0
54600,1.4375,-3.9375,2.6875,0
54620,1.5,-4.1875,3.1875,0
54640,0.25,-4.3125,2.8125,0
54660,-0.9375,-3.625,1.75,0
54680,-0.875,-3.625,2.0625,0
54700,-0.1875,-3.875,3.8125,0
54720,0.75,-4.125,3.1875,0
54740,1,-4.0625,2.0625,0
54760,-0.0625,-3.375,1.9375,0
54780,0,-3.5625,2.1875,0
54800,0.3125,-4.5625,1.9375,0
54820,1.625,-4.875,1,0
54840,1.3125,-4.3125,1.125,0
54860,-0.0625,-4.125,2.6875,0
54880,-0.9375,-4.625,3,0
54900,-0.3125,-4.5625,2,0
54920,0.375,-4.3125,1.625,0
54940,0.125,-3.625,1.9375,0
54960,-1,-3.5625,2.25,0
54980,-0.125,-4.375,2.4375,0
55000,2.1875,-4.625,2.0625,0
55020,2.125,-3.8125,1.375,0
55040,0.25,-4.125,1.0625,0
55060,0.4375,-4.125,2,0
55080,1.25,-3.4375,2.375,0
55100,1.9375,-3,1.9375,0
55120,0.75,-3,2,0
55140,2.1875,-2.625,0.875,0
55160,4.0625,-2.75,0.0625,0
55180,3,-3.875,0.75,0
55200,1.9375,-5.3125,0.5,0
55220,3.0625,-5.375,-0.3125,0
55240,2.3125,-5.5625,0.0625,0
55260,1.1875,-5.375,1.25,0
55280,0.9375,-5.75,2.125,0
55300,2.6875,-6.5,2,0
55320,2.0625,-6.1875,1.625,0
55340,0.875,-5.875,0.25,0
55360,-0.0625,-5.125,-0.375,0
55380,1,-4.625,0.5625,0
55400,2.8125,-4.6875,2.1875,0
55420,2.375,-6,3.0625,0
55440,3.75,-6,1.9375,0
55460,3.8125,-5.1875,0.0625,0
55480,1.8125,-4.375,-0.9375,0
55500,2.25,-4.125,1.3125,0
55520,2.75,-4.125,1.75,0
55540,4.125,-3.5625,0.4375,0
55560,3.8125,-3.1875,0.0625,0
55580,3,-1.9375,-0.3125,0
55600,1,-2.1875,-0.3125,0
55620,1.1875,-2.5625,2.75,0
55640,1.875,-4.0625,3.4375,0
55660,2.9375,-3.4375,0.625,0
55680,0.6875,-2.9375,-2.625,0
55700,-0.0625,-3.25,-1,0
55720,1.625,-4,0.6875,0
55740,1.8125,-3.1875,-1.5,0
55760,1.3125,-4,-1.875,0
55780,1,-4.125,-0.875,0
55800,1.0625,-3.1875,-1.3125,0
55820,1.4375,-2.5625,-2.5,0
55840,3.0625,-2,-2.4375,0
55860,4.3125,-3.125,-1.625,0
55880,3.625,-2.875,-2.125,0
55900,0.8125,-1.5,-2.75,0
55920,1.8125,-0.8125,-3.8125,0
55940,3.625,-1.875,-3.125,0
55960,4.9375,-1.75,-2.5625,0
55980,2.75,-2.375,-2.5,0
56000,2.4375,-2.8125,-3.375,0
56020,3.0625,-1.8125,-3.3125,0
56040,2.25,-2.375,-2.5625,0
56060,1.8125,-3.0625,-2.25,0
56080,2,-2.8125,-2.5,0
56100,2.5,-2.875,-3.25,0
56120,2.9375,-1.875,-3.625,0
56140,2.75,-1.9375,-3.5625,0
56160,2.3125,-1.625,-3.5,0
56180,2.75,-1.3125,-3.625,0
56200,3.1875,-0.0625,-4.5,0
56220,3.75,0.3125,-5.1875,0
56240,2,-0.3125,-4.875,0
56260,2.1875,-0.25,-4.625,0
56280,2.75,-0.875,-5.25,0
56300,1.9375,-0.5,-4.8125,0
56320,2.4375,-0.5,-4.8125,0
56340,1.8125,-1.6875,-5.4375,0
56360,1.125,-1.1875,-7.0625,0
56380,0,-0.6875,-7,0
56400,0.625,-1.1875,-6.125,0
56420,1.6875,-2,-5.9375,0
56440,2.5,-1.375,-7.75,0
56460,0.4375,-0.6875,-8.75,0
56480,0.0625,-0.5,-8.25,0
56500,2.3125,-0.75,-7.25,0
56520,3.1875,-0.5,-7.875,0
56540,1.6875,0.9375,-9.8125,0
56560,1.5625,1.4375,-10.4375,0
56580,0.5,1.125,-9.125,0
56600,1.6875,1.75,-8.4375,0
56620,1.8125,1.25,-9.75,0
56640,1.8125,1.25,-9.3125,0
56660,1.75,1.9375,-8.6875,0
56680,-0.0625,1.9375,-7.6875,0
56700,-0.0625,1.3125,-6.5625,0
56720,-1,0.875,-6.8125,0
56740,-2.5625,1.25,-8.1875,0
56760,-2.5,0.9375,-6.8125,0
56780,-2.3125,-0.25,-6.125,0
56800,-1.3125,-0.6875,-7.5625,0
56820,-0.625,-0.8125,-10.3125,0
56840,-1.5,-1.25,-11.9375,0
56860,-1.5,-1.8125,-12.6875,0
56880,-0.1875,-1.875,-12.3125,0
56900,2.375,-2.3125,-13.25,0
56910,0,-2.125,-14.75,0
56930,-1.5,-2.6875,-15,0
56950,-3.375,-3.1875,-14.25,0
56970,-3.0625,-2.625,-12.8125,0
56990,-4.6875,-2.6875,-12.5,0
57010,-5.1875,-2.5625,-13.125,0
57030,-6,-3.1875,-13.6875,0
57050,-7.0625,-2.875,-13.8125,0
57070,-7.125,-2.5625,-13.875,0
57090,-7.375,-2.875,-14.5625,0
57110,-6.4375,-2.8125,-15.5625,0
57130,-7.375,-2.375,-15.8125,0
57150,-7.8125,-0.5,-15.5,0
57170,-6.8125,0.375,-15.4375,0
57190,-5.5625,1.0625,-15.6875,0
57210,-4.4375,3.0625,-16.6875,0
57230,-5.1875,4.625,-16.8125,0
57250,-5.125,5.625,-17.3125,0
57270,-5.4375,6.0625,-16.8125,0
57290,-5.875,5.375,-15.25,0
57310,-4.625,4,-16.3125,0
57330,-5.25,3.4375,-16.625,0
57350,-6.5,3,-16.8125,0
57370,-7.125,2.5,-16.875,0
57390,-5.75,1.0625,-16.3125,0
57410,-5.3125,0.125,-16.25,0
57430,-6.25,0.4375,-17.25,0
57450,-7.25,0,-17.0625,0
57470,-6.5,-0.5625,-16.875,0
57490,-4.8125,-1.6875,-16.375,0
57510,-4.8125,-1.625,-16.25,0
57530,-5.875,-1.3125,-16.5,0
57550,-6.25,-0.8125,-16.625,0
57570,-4.75,-1.5,-15.8125,0
57590,-5.25,-1.5,-15.125,0
57610,-6.625,-1.375,-15.25,0
57630,-5.4375,-1.5,-15.4375,0
57650,-5.0625,-2.5625,-14.5,0
57670,-5.4375,-2.6875,-14.4375,0
57690,-6.5,-2.3125,-15,0
57710,-5.0625,-2.3125,-15.125,0
57730,-3.4375,-2.4375,-15.625,0
57750,-2.75,-1.8125,-16.6875,0
57770,-5,-1.875,-16.9375,0
57790,-5.6875,-1.75,-16.75,0
57810,-5.125,-1.25,-17.25,0
57830,-6.125,0.125,-16.5625,0
57850,-5.375,1.4375,-16.6875,0
57870,-4.8125,2.3125,-16.3125,0
57890,-5.375,2.4375,-16.75,0
57910,-6.875,2.9375,-17.0625,0
57930,-6.0625,3.25,-16.75,0
57950,-5.1875,2.75,-15.6875,0
57970,-5.875,1.3125,-16.875,0
57990,-7.625,1.6875,-17.125,0
58010,-8.1875,2,-16.5625,0
58030,-8.125,1.3125,-15.4375,0
58050,-7.875,0.125,-14.6875,0
58070,-8,-0.9375,-14.1875,0
58090,-7.625,-0.0625,-13.625,0
58110,-7.4375,-0.1875,-12.9375,0
58130,-7,-0.25,-12.5625,0
58150,-6.625,-0.3125,-12.5625,0
58170,-4.8125,1.125,-12.25,0
58190,-4.75,1.9375,-11.6875,0
58210,-3.8125,3.3125,-11.25,0
58230,-2.8125,4.25,-10.4375,0
58250,-2.6875,4.0625,-10.0625,0
58270,1.4375,4.9375,-10.0625,0
58290,0.5625,4.4375,-10,0
58310,-1.4375,3.8125,-8.6875,0
58330,-3.125,2.625,-7.5625,0
58350,-5.875,2.3125,-8.5,0
58370,-1.5625,5.1875,-12.6875,0
58390,3.875,5.25,-12.6875,0
58410,4.1875,4.125,-11.3125,0
58430,2.5625,4.8125,-10.3125,0
58450,4.1875,5.1875,-9.25,0
58470,5.25,4.125,-9.6875,0
58490,6,3.75,-10.5625,0
58510,6.5,4.5,-8.9375,0
58530,4.8125,4.125,-7,0
58550,2.75,4.375,-6.1875,0
58570,2.8125,4.6875,-6.375,0
58580,-0.6875,4.125,-6.8125,0
58600,0.5,5.875,-6.125,0
58620,3.9375,4.3125,-3.375,0
58640,1.3125,1.75,-2.875,0
58660,-2.3125,2.625,-4.75,0
58700,0.25,2.8125,-2.5625,0
58720,-0.6875,1.6875,-1.5625,0
58740,-3.1875,3.4375,-3.0625,0
58760,-1.5,4.4375,-2.1875,0
58780,1.5625,2.25,-1.0625,0
58800,1.875,2.5,-1.1875,0
58820,1.125,3.6875,-1.125,0
58840,2.5625,2.5,-1.125,0
58860,5,1.0625,-3.5,0
58880,4,0.8125,-6.3125,0
58900,2.375,2.1875,-6.5625,0
58920,2.75,2.6875,-6.8125,0
58940,4.25,2.125,-6.625,0
58960,2.9375,1.5,-6.4375,0
58980,0.625,2.5,-6.625,0
59000,1.4375,3.4375,-4.25,0
59020,1.75,1.125,-2,0
59040,1.1875,1.1875,-2.0625,0
59060,-1.875,3.125,-1.3125,0
59080,-4.125,3.6875,-0.125,0
59100,-1.375,3.9375,-0.1875,0
59120,-1,4.25,2.875,0
59140,-0.5,5.5,4.0625,0
59160,1.8125,5.625,3.4375,0
59180,2.1875,6.375,2.3125,0
59200,1.5,6.25,2.6875,0
59220,-1.1875,5.5625,3.1875,0
59240,-0.1875,4,1.9375,0
59260,1.3125,2.25,1.9375,0
59280,2.0625,1.875,-0.3125,0
59300,2.5625,1.6875,-2.5,0
59320,1.125,0.3125,-2.125,0
59340,1.625,-0.3125,-1.5625,0
59360,2.1875,0.125,-2,0
59380,0.3125,0.75,-2.8125,0
59400,-0.6875,0.6875,-2.5,0
59420,0.125,0.5625,-1.25,0
59440,-1,0.3125,-0.4375,0
59460,-1.25,1.5,-0.3125,0
59480,-0.9375,1.625,0.375,0
59500,-0.9375,1.625,1,0
59510,-3.4375,2.25,1.0625,0
59530,-3.4375,1.9375,2,0
59550,-2.3125,2.125,2.6875,0
59570,-1.5625,2.4375,2.5,0
59590,-3.4375,3.0625,2.4375,0
59610,-2.75,3.5,2.6875,0
59630,-3.375,3.625,3.5,0
59650,-5.125,2.75,2.3125,0
59670,-3.9375,1.6875,3.25,0
59670,-3.9375,1.75,1.5625,0
59690,-2.5625,3.0625,0.125,0
59710,-3.25,2.9375,1,0
59730,-1.0625,2.5,1.8125,0
59750,0.0625,1.9375,1.25,0
59770,1.0625,3.3125,0.1875,0
59790,-2.0625,3.4375,0.25,0
59810,-3.125,2.875,2,0
59830,-2.75,1.8125,3.875,0
59850,-1.75,2.0625,2.3125,0
59870,-1.5,1.5625,2.1875,0
59890,-4,0.9375,3.125,0
59910,-4.3125,0.3125,3.5,0
59930,-4.75,0.1875,3.25,0
59950,-5,0.5,3.125,0
59970,-4.1875,0.4375,3.875,0
59990,-3.4375,0.8125,3.375,0
60010,-4.5625,1.375,1.25,0
60030,-5.625,2,1.75,0
60050,-6.8125,3.3125,1.625,0
60070,-6.1875,3.8125,0.875,0
60090,-4.875,3.0625,2.0625,0
60110,-3.0625,2.5,1,0
60130,-2.3125,3.6875,-0.6875,0
60150,-3.6875,3.8125,0.0625,0
60170,-3.125,4.375,0.625,0
60190,-2.5625,3.0625,1.5,0
60210,-3.125,3.375,2.125,0
60230,-3.25,4.75,2.5625,0
60250,-4.9375,5,3.625,0
60270,-4.0625,5.4375,3.9375,0
60290,-1.5,4.5625,4.0625,0
60310,-1.1875,4.9375,2.875,0
60330,-2.5625,6.6875,1.5625,0
60350,-2.1875,6.8125,2.75,0
60370,-0.5625,6.0625,3.25,0
60390,1.375,5.5625,2.0625,0
60410,-0.0625,5.125,0.0625,0
60430,0.3125,4.375,0.125,0
60450,-0.0625,3.8125,0.375,0
60470,-1.0625,3.6875,0.375,0
60490,-2.75,2.5,1.3125,0
60510,-3.8125,2,1.1875,0
60530,-2.1875,3.375,0.1875,0
60550,-3.25,3.6875,0.8125,0
60570,-4.0625,2.75,1.9375,0
60590,-4.875,3.5625,1.8125,0
60610,-4.25,4.625,1,0
60630,-3.4375,4.375,1.4375,0
60650,-3.0625,4.5,0.9375,0
60670,-4.5625,5.125,0,0
60690,-3.25,4.5625,0.875,0
60710,-2.6875,4.375,2.75,0
60730,-1.125,4.375,1.6875,0
60750,-1.6875,3.8125,2,0
60770,-2.0625,4.0625,1.5625,0
60790,-3.6875,4.25,0.6875,0
60810,-3.625,3.9375,0.25,0
60830,-4.3125,3.4375,-1.1875,0
60850,-3.625,4.3125,-2.25,0
60870,-6.125,4.75,-2.8125,0
60890,-2,3.75,-0.625,0
60910,-0.5,3.1875,0.75,0
60930,-2.6875,4.75,-0.1875,0
60950,-4.375,5.5625,0.5625,0
60970,-4.9375,5.375,0.0625,0
60990,-3.75,4.875,0.4375,0
61010,-2.625,4.75,1.5625,0
61030,-1.25,4.0625,1.6875,0
61050,1.0625,3.5,-0.5,0
61070,0.5,4,0.375,0
61090,-2,3.6875,2.6875,0
61110,-1.375,2.625,3.375,0
61130,-1.1875,1.625,4,0
61150,-2.25,1.5625,3.1875,0
61170,-1.1875,0.625,3.6875,0
61190,-1.75,-0.875,3.5625,0
61210,-0.3125,-0.875,3.0625,0
61230,1,-1.375,4.4375,0
61250,-1.5625,-2,5.5,0
61270,-1.75,-0.9375,5,0
61290,-3.75,-0.4375,5.25,0
61310,-3.75,-0.5625,6.375,0
61330,-0.8125,0.25,7,0
61350,-1.1875,-0.25,6.4375,0
61370,-1.1875,-0.4375,6.375,0
61390,-0.75,-0.3125,6.4375,0
61410,0.9375,-0.4375,6,0
61430,0.375,-1.0625,7.1875,0
61450,-1,-1.375,7.375,0
61470,0.0625,-1.375,8.5625,0
61490,-0.1875,-1.25,8.3125,0
61510,-0.9375,-1.125,7.25,0
61530,-1.9375,-2.25,6.75,0
61550,-1.9375,-2.25,6,0
61570,-3,-3,5.75,0
61590,-1.8125,-3.5,3.4375,0
61610,-0.75,-3.1875,1.75,0
61630,3.4375,-2,1.75,0
61650,0.1875,-2.9375,4.25,0
61670,-1.375,-2.625,5,0
61690,-1.6875,-1.375,5.125,0
61710,-4.125,-0.4375,4.625,0
61730,-4.25,0.75,4.875,0
61750,-3.4375,0.4375,5.6875,0
61770,-4.8125,0.9375,6.8125,0
61790,-5.0625,0.875,6.5,0
61810,-1.75,0.6875,5.3125,0
61830,0.0625,-0.25,6.3125,0
61850,-1.1875,-1.25,5.9375,0
61870,-2.5,-1,5.9375,0
61890,-0.5,-1.375,6.1875,0
61910,2.5,-1.9375,5.5625,0
61930,0.4375,-2.3125,5.9375,0
61950,-1.6875,-1.8125,6.125,0
61970,0.4375,-1.25,7.9375,0
61990,0.625,-1.8125,8.6875,0
62010,-2.875,-1.625,7.6875,0
62030,-2.3125,-1.375,9,0
62050,-2.625,-2.25,10.4375,0
62070,-1.75,-2.25,9,0
62090,-3.875,-2.1875,8.625,0
62100,-1.8125,-2.125,9.375,0
62120,-1.5625,-3.5625,10.4375,0
62140,-1.625,-4.375,9.9375,0
62160,-4.25,-3.6875,8.0625,0
62180,-3.8125,-3.625,7.6875,0
62200,-1.375,-4.875,7.625,0
62220,2.1875,-6,6.9375,0
62240,1.4375,-5.625,5.1875,0
62260,2.3125,-4.9375,4,0
62280,2.5625,-5.125,4.9375,0
62300,0.3125,-4.8125,5.375,0
62320,-0.25,-4.5,6.125,0
62340,0.125,-3.9375,6.375,0
62360,-1.0625,-2.75,6.375,0
62380,-1.5,-2.25,7.1875,0
62400,-1.3125,-2.6875,6.9375,0
62420,0.4375,-2.8125,7.0625,0
62440,-0.125,-2.9375,6.5,0
62460,-0.25,-4.125,7.625,0
62480,1.375,-4.25,8.125,0
62500,2.375,-3.8125,8.8125,0
62520,-1.3125,-3.9375,8.375,0
62540,1.5625,-3.5625,8.5,0
62560,2.25,-4.625,9.375,0
62580,0.5,-4.125,8.375,0
62600,-0.4375,-4.5,7.875,0
62620,0.625,-3.625,7.625,0
62640,4.25,-4.0625,7.9375,0
62660,-0.3125,-4.875,8,0
62680,-0.125,-3.375,8.125,0
62700,0.25,-4.125,8.4375,0
62720,-0.125,-3.375,8.5,0
62740,2.5,-4.0625,8.625,0
62760,0.75,-5.3125,8.0625,0
62780,-0.75,-5,7.4375,0
62800,-1.5625,-5.375,6.1875,0
62820,1.0625,-6.1875,5.75,0
62840,0.9375,-5.625,4.25,0
62860,0.0625,-5.625,4.4375,0
62880,-1.25,-5.875,6.3125,0
62900,0.375,-6.375,7.4375,0
62920,1.5625,-6.125,7.6875,0
62940,-0.125,-5.25,7.4375,0
62960,-0.3125,-4.6875,6.5,0
62980,-0.1875,-4.8125,7.4375,0
63000,0.6875,-4.6875,7.875,0
63020,2.5,-4.9375,8,0
63040,1.8125,-5.125,8.8125,0
63060,1.4375,-4.625,7.875,0
63080,1.375,-4.5,8.375,0
63100,0.25,-4.75,8.75,0
63120,4.375,-5.25,9.5,0
63140,4.6875,-5.875,9.9375,0
63160,3.75,-5.25,9.5,0
63180,1.125,-5.625,9.125,0
63200,0.1875,-6.3125,8.875,0
63220,2.625,-7.0625,10.3125,0
63240,1.375,-8,9.75,0
63260,-0.3125,-8.4375,9.5625,0
63280,0.8125,-8.4375,10,0
63300,-0.25,-7.9375,9.6875,0
63320,-0.25,-7.1875,9.25,0
63340,-0.5625,-6.6875,10.4375,0
63360,3.25,-6.4375,11.6875,0
63380,2.5,-6.375,10.3125,0
63400,-1,-6.6875,9.5,0
63420,-5.1875,-6,9.75,0
63440,-1.875,-6.25,8.4375,0
63450,1.1875,-6.75,9.9375,0
63470,3.1875,-6.625,11.375,0
63490,0.5625,-6.125,9.75,0
63510,-0.4375,-5.4375,9.625,0
63530,-0.25,-6.25,9.8125,0
63550,1,-5.5625,10.5,0
63570,2.0625,-6.375,11.0625,0
63590,0.875,-6.6875,10.75,0
63610,0.0625,-6.6875,9.625,0
63630,-0.875,-6.8125,8.9375,0
63650,-2.8125,-6.4375,9.0625,0
63670,-1.75,-5.75,9.9375,0
63690,-0.625,-6.1875,9.3125,0
63710,-0.3125,-7,8.75,0
63730,-0.8125,-7.1875,8.875,0
63750,-0.25,-7.4375,8.4375,0
63770,0.6875,-7.9375,7.4375,0
63790,1.625,-8.3125,6.5625,0
63810,2,-8.3125,7.25,0
63830,2.6875,-8.0625,7.1875,0
63850,-0.375,-7.5625,7.25,0
63870,0.5625,-6.75,8.25,0
63890,1.8125,-8.125,9.1875,0
63910,0.4375,-7.4375,7.25,0
63930,-1.875,-6.3125,7.0625,0
63950,-0.4375,-5.6875,7.375,0
63970,2.125,-7.0625,7.0625,0
63990,1.75,-7.25,7.875,0
64010,1.1875,-6,7.125,0
64030,0.375,-5.9375,4.1875,0
64050,1.25,-5.8125,5,0
64070,0.6875,-6.5625,6.4375,0
64090,0.75,-6.5625,6.8125,0
64110,1.25,-6,6.5625,0
64130,0.0625,-5.5625,5.9375,0
64150,-0.125,-5.125,5.3125,0
64170,0.3125,-6.125,6.5625,0
64190,0.375,-6.1875,6.75,0
64210,0.875,-5.8125,5.6875,0
64230,0.4375,-5.875,6,0
64250,0.625,-6.0625,6.125,0
64270,-0.25,-5.875,6.0625,0
64290,-0.5,-6.0625,5.9375,0
64310,1.3125,-6.75,6.375,0
64330,0.4375,-6.5,6.125,0
64350,-1.3125,-5.4375,4.75,0
64370,-0.625,-4.5,6.0625,0
64390,1.375,-5.8125,7.5625,0
64410,1.875,-5.625,6.6875,0
64430,1.75,-4.25,5.875,0
64450,0.125,-3.8125,5.25,0
64470,-0.5,-4.25,6.25,0
64490,0.375,-4.9375,7.4375,0
64510,2.4375,-4.6875,7.0625,0
64530,3.25,-4.4375,5.875,0
64550,1.4375,-4.875,4.9375,0
64570,0.9375,-4.9375,5,0
64590,0.1875,-5.6875,5.9375,0
64610,2.4375,-5.8125,5.375,0
64630,3.25,-5.8125,4.3125,0
64650,0.8125,-6.1875,3.3125,0
64670,2.0625,-6.875,3.8125,0
64690,1.5,-6.9375,3.6875,0
64700,-0.25,-6.75,3.875,0
64720,-0.375,-6.9375,3.6875,0
64740,2.5625,-6.75,4.0625,0
64760,2.125,-7,4.5,0
64780,1.125,-7.3125,5.0625,0
64800,0.875,-7.375,4.5625,0
64820,1.6875,-7.0625,4.375,0
64840,2.9375,-7.9375,4.4375,0
64860,1.125,-8.4375,4.1875,0
64880,1.5,-8.25,4.0625,0
64900,2.625,-8.5625,3.4375,0
64920,2.875,-9.125,2.75,0
64940,0.4375,-9,2.8125,0
64960,0.875,-8.9375,2.6875,0
64980,2.625,-9.0625,2.875,0
65000,4.0625,-9.3125,3.5,0
65020,3.25,-9.125,3.375,0
65040,1.6875,-9.375,3.4375,0
65060,0.5,-9.4375,2.5625,0
65080,-0.125,-9.375,2.8125,0
65100,1.8125,-9.625,2.4375,0
65120,3.125,-9.75,2.25,0
65140,2.0625,-9.125,1.9375,0
65160,0.6875,-9.3125,2.375,0
65180,1.875,-9.875,3.5625,0
65200,3.125,-9.8125,2.9375,0
65220,0.5625,-9.625,2,0
65240,-1.625,-9.3125,3.4375,0
65260,1.25,-10.0625,4.375,0
65280,1.9375,-10.1875,3.9375,0
65300,-0.1875,-9.5,3,0
65320,1,-9.1875,3.125,0
65340,1.125,-10.125,4.75,0
65360,-0.0625,-10.625,4.5,0
65380,-0.8125,-10,4.75,0
65400,1.0625,-9.5625,5.3125,0
65420,2.625,-9.625,4,0
65440,0.1875,-9.1875,3.875,0
65460,-0.625,-8.3125,4.75,0
65480,0.25,-8.4375,6.25,0
65500,3.0625,-8.25,4.625,0
65520,0.625,-7.5,3.875,0
65540,-0.125,-7,3.1875,0
65560,1.5625,-6.6875,3.1875,0
65580,1.875,-7.0625,2.25,0
65600,2.3125,-7,2.25,0
65620,2.1875,-6,2.5625,0
65640,-0.75,-5,0.75,0
65660,1.0625,-4.5,0.3125,0
65680,1.1875,-5.9375,1.8125,0
65700,2.9375,-5.3125,0.9375,0
65720,1.6875,-4.625,-0.0625,0
65740,1.3125,-4.3125,0.75,0
65760,2.4375,-4.875,0.5625,0
65780,2.25,-4.875,0.4375,0
65800,0.125,-4.5625,0.0625,0
65820,-2.1875,-4.5,0,0
65840,1.3125,-5.25,1.5,0
65860,3.375,-6.375,2.6875,0
65880,1.875,-5.8125,1,0
65900,-1,-5.125,1.6875,0
65920,-3.25,-5.9375,4.125,0
65940,0.25,-6.1875,3.4375,0
65960,2.375,-5.625,2,0
65980,2.125,-5.375,2.5625,0
66000,-0.0625,-5.3125,3.25,0
66020,0.5,-5.4375,2.5,0
66040,1.625,-5.9375,1.875,0
66060,3.125,-5.875,1.1875,0
66080,3.3125,-6.75,-0.375,0
66100,-0.9375,-6.625,-0.25,0
66120,-0.5,-6.6875,-0.25,0
66140,2.5,-7.25,0.9375,0
66160,2.6875,-7.375,1.25,0
66180,0.25,-6.5,1.4375,0
66200,-1.625,-6,2.6875,0
66220,0.4375,-6.375,3.375,0
66240,0.9375,-6.875,4.1875,0
66260,-0.625,-6.625,4.1875,0
66280,-2.4375,-6.5625,4.9375,0
66300,-0.3125,-6.8125,5.125,0
66320,0.8125,-7.3125,4.125,0
66340,0.875,-6.8125,4.25,0
66360,0.9375,-7.8125,4.375,0
66380,1.8125,-8.5625,2.5,0
66400,-0.0625,-8.4375,0.8125,0
66420,-0.0625,-7.875,1.4375,0
66440,0,-8.5625,1.625,0
66460,3.6875,-8.625,0.5,0
66480,2,-8.1875,0.9375,0
66500,-0.875,-8.5,0.375,0
66520,-2,-8.1875,0.0625,0
66540,-0.5,-7.5625,-0.1875,0
66560,-0.1875,-7.9375,0.8125,0
66580,-0.1875,-7.75,2,0
66600,-2.125,-7.625,0.8125,0
66620,-4,-5.625,-0.6875,0
66640,-3.5625,-5,0.3125,0
66660,-0.6875,-6.625,0.6875,0
66680,-1.25,-7.0625,0.1875,0
66700,-2.6875,-6.25,-0.8125,0
66720,0.3125,-6.1875,-2.1875,0
66740,2.25,-6.1875,-3.4375,0
66760,0.75,-6.25,-2.875,0
66780,0.6875,-6.625,-3.25,0
66800,-0.8125,-5.875,-3.4375,0
66820,0.1875,-5.3125,-2.9375,0
66840,-0.1875,-5.125,-2.5,0
66860,-0.875,-4.625,-2.9375,0
66880,-0.5,-4.6875,-3.625,0
66900,-1.25,-5.1875,-4.1875,0
66920,-2.25,-4.8125,-5.0625,0
66940,-1.125,-4.8125,-4.6875,0
66960,-0.1875,-5.4375,-4.75,0
66980,-1.1875,-5.125,-5.4375,0
67000,-3.5625,-5.4375,-5.625,0
67020,-4.6875,-3.4375,-4.625,0
67040,-1,-1.125,-3.125,0
67060,1.375,0.0625,-2.8125,0
67080,-0.6875,0,-3.6875,0
67100,-3.125,0.5625,-4.9375,0
67120,-3.625,1.25,-4.8125,0
67140,-2.625,1.25,-4.4375,0
67160,-0.5625,0.25,-4.6875,0
67180,-0.1875,-0.5625,-6.5,0
67200,-1,-1.875,-7.5625,0
67220,-3.375,-1.4375,-8.0625,0
67240,-3.5,-0.4375,-8.625,0
67260,-3.6875,-0.9375,-8.875,0
67280,-2.25,-1.0625,-8.1875,0
67300,-0.5,-1.125,-7.5,0
67310,-1.875,-0.75,-8.875,0
67330,-3.625,0.125,-10.875,0
67350,-3.3125,0.9375,-10,0
67370,-2.9375,2.0625,-8.6875,0
67390,-1.5625,3.3125,-8.8125,0
67410,-0.375,3.1875,-8.5625,0
67430,-0.0625,2.3125,-9.0625,0
67450,-1.5,3.5625,-10.125,0
67470,-2.8125,4.1875,-10.6875,0
67490,-3.5,1.9375,-10.5625,0
67510,-1.3125,1.0625,-10.9375,0
67530,-1.8125,1.375,-11.8125,0
67550,-4.25,1.5,-12.875,0
67570,-4,0.75,-13.3125,0
67590,-3.9375,-0.0625,-12.8125,0
67610,-4.1875,1.125,-13.375,0
67630,-3.8125,2.375,-14.0625,0
67650,0,1.625,-14.0625,0
67670,-0.75,1,-14.125,0
67690,-3.0625,1.5625,-16.125,0
67710,-5.25,2.125,-15.5625,0
67730,-4.0625,1.25,-14.75,0
67750,-4.625,2.3125,-15.375,0
67770,-5.375,3.75,-15.0625,0
67790,-5.625,3.0625,-13.625,0
67810,-4.6875,2.375,-14.375,0
67830,-6.625,2.3125,-15.0625,0
67850,-8.125,3.5625,-14.625,0
67870,-7.0625,2.5625,-14,0
67890,-5.4375,2.375,-14.125,0
67910,-3.4375,3.6875,-14.125,0
67930,-1.8125,4.625,-14.125,0
67950,-3.0625,4.25,-13.6875,0
67970,-4.875,3.4375,-12.75,0
67990,-5.6875,3.75,-11.75,0
68010,-7.4375,4.4375,-12.5625,0
68030,-6.125,4.9375,-12.875,0
68050,-5.625,3.25,-11.875,0
68070,-6,2.6875,-12.3125,0
68090,-6.125,2.25,-12.6875,0
68110,-6,1.625,-12.6875,0
68130,-6,2.375,-13.5,0
68150,-7.625,2.0625,-13.9375,0
68170,-7.0625,2.1875,-13.3125,0
68190,-6.0625,2.125,-13.625,0
68210,-5.3125,2.1875,-14.3125,0
68230,-5.75,2.6875,-14.1875,0
68250,-6,3.25,-14.625,0
68270,-5.6875,3.4375,-14.5,0
68290,-3.375,3.0625,-12.9375,0
68310,-3.5,3.25,-12.5625,0
68330,-5.8125,2.625,-15.5625,0
68350,-6.1875,2.25,-16.5625,0
68370,-5.875,2.125,-15.25,0
68390,-5.375,2.375,-14.4375,0
68410,-4.6875,1.5,-13.75,0
68430,-3.9375,1.1875,-13.8125,0
68450,-5.4375,0.1875,-14.125,0
68470,-6.25,-0.5625,-13.5,0
68490,-6.3125,0.3125,-12.0625,0
68510,-5.6875,0.375,-10.75,0
68530,-6,0.9375,-9.875,0
68550,-6.9375,1.375,-10.0625,0
68570,-5.75,1.625,-9.8125,0
68590,-4.0625,0.625,-8.125,0
68610,-3.5625,1.375,-7.75,0
68630,-3.6875,1.75,-9.5625,0
68650,-4.5625,2.125,-10.125,0
68670,-5.875,1.875,-9.9375,0
68690,-4.0625,1.0625,-9.6875,0
68710,-2.8125,0.625,-8.9375,0
68730,-3.4375,0.375,-9.875,0
68750,-5.375,1.125,-10.1875,0
68770,-7.25,1.25,-10.25,0
68790,-5.25,1.4375,-9.875,0
68810,-2.5,0.125,-8.5625,0
68830,-2.5625,0,-8.5,0
68850,-5.4375,0.3125,-9.8125,0
68870,-6.75,1.25,-10.5625,0
68890,-6.875,0.4375,-9.25,0
68910,-5,-1.3125,-8.625,0
68930,-4,-1.3125,-8.6875,0
68950,-6,-0.3125,-9.6875,0
68970,-5.375,0,-10.125,0
68990,-4.3125,-0.875,-9.5,0
69010,-3.75,-0.3125,-10.5,0
69030,-4.5625,-0.125,-10.9375,0
69050,-3.4375,-0.0625,-10.0625,0
69070,-1.75,0.75,-9.5625,0
69090,-1.875,1.5625,-9.625,0
69110,-2.25,2.25,-9.75,0
69130,-2,2.5625,-9.1875,0
69150,-0.5625,2.5625,-8.5,0
69170,-1.1875,2.5,-9.3125,0
69190,0.6875,2.9375,-9.5,0
69210,1.6875,1.8125,-10.1875,0
69230,1.75,0.25,-11.0625,0
69250,0.25,0.1875,-11.375,0
69270,-0.5625,0.8125,-12.3125,0
69290,0.4375,1.375,-11.625,0
69310,-1.1875,1.125,-9.375,0
69330,-0.375,1.5,-7.75,0
69350,1.4375,0.0625,-7.3125,0
69370,-0.625,0,-6,0
69390,-3,-0.5,-5.6875,0
69410,-4.1875,-1.0625,-4.9375,0
69430,-3.75,-0.5,-3.625,0
69450,-3.625,-0.875,-3.4375,0
69470,-3,-2.3125,-4.125,0
69490,-1.75,-2.375,-4.8125,0
69510,-1.3125,-1.4375,-5.375,0
69530,-1.4375,-1.875,-6.3125,0
69550,-1.3125,-1.875,-5,0
69570,-0.6875,-1.4375,-5,0
69590,-1.5,-0.6875,-5.125,0
69610,-2.875,-0.375,-4.875,0
69630,-2.5,-1,-5.3125,0
69650,-1,-1.125,-4.8125,0
69670,-1.3125,0.5625,-3.8125,0
69690,-2.125,0.75,-4.625,0
69710,-2.3125,0.125,-4.0625,0
69730,-2.4375,1.5,-3.25,0
69750,-1.9375,2.8125,-3.0625,0
69770,-0.0625,1.3125,-0.5,0
69790,0.8125,1.4375,0.75,0
69810,-0.25,2.375,-0.3125,0
69830,-2.6875,4.375,-0.9375,0
69850,-1.375,4.25,0.375,0
69870,0.9375,3.8125,0.625,0
69890,1.0625,3.1875,0.5625,0
69910,-0.25,1.375,-0.1875,0
69930,1.5625,1.5,-1.1875,0
69940,-1.375,1.3125,-2.125,0
69960,-2.1875,0,-1.25,0
69980,-1.375,-1.5625,-0.25,0
70000,-1.4375,-2.3125,-0.25,0
70020,0,-2.9375,0.3125,0
70040,-2.0625,-2.9375,0.0625,0
70060,-2.9375,-1.3125,-0.6875,0
70080,-2.8125,-1.625,1.25,0
70100,-3.1875,-1.1875,2.25,0
70120,-3.4375,0.9375,1,0
70140,-5.25,2.875,1.625,0
70160,-3.5,3.25,2.6875,0
70180,-3.75,3.25,4.75,0
70200,-3.5,3.9375,2.8125,0
70220,-3.5,2.125,0.875,0
70240,-5.0625,1.375,0.5625,0
70260,-4.0625,1.3125,0,0
70280,-5.75,0.6875,-0.5625,0
70300,-5.125,-0.6875,-1.6875,0
70320,-3.6875,-0.375,-2.625,0
70340,-3.4375,-0.5625,-4.125,0
70360,-4.5625,-1.0625,-4.625,0
70380,-5.0625,-0.5625,-4.1875,0
70400,-3.4375,0.3125,-5.25,0
70420,-3.8125,0.125,-5.9375,0
70440,-4.5625,1.0625,-5.375,0
70460,-3,1.8125,-5.3125,0
70480,-2.1875,1.5625,-5.4375,0
70500,-1,2.0625,-4.9375,0
70520,-1.375,2.8125,-4.3125,0
70540,-0.25,2.5,-3.0625,0
70560,0.8125,2.375,-1.75,0
70580,0.125,2.1875,-1.875,0
70600,-1.0625,2.3125,-1.625,0
70620,0.25,2.5625,-0.125,0
70640,1.9375,1.625,1.0625,0
70660,1.1875,0,1.0625,0
70680,1.4375,0.1875,0.875,0
70700,1.1875,-0.3125,1.6875,0
70720,-1.5,-1.5625,1.25,0
70740,0.625,-1.125,0.0625,0
70760,1.6875,-1.6875,1.5625,0
70780,0.3125,-1.875,0.4375,0
70800,0.1875,-1.375,-0.125,0
70820,-0.125,-1.25,-0.5,0
70840,2.4375,-1.0625,-1.375,0
70860,2.25,-1.4375,-2,0
70880,1.8125,-0.8125,-2.5,0
70900,0.25,-0.125,-2.875,0
70920,-0.8125,0.25,-2.75,0
70940,0.6875,0.5625,-1.5,0
70960,-0.25,-0.125,-0.25,0
70980,-1.8125,-0.125,-1.375,0
71000,-3.4375,-0.125,-1.9375,0
71020,-3.1875,-0.1875,-0.9375,0
71040,-1.625,-1.3125,-1.375,0
71060,-0.875,-1.0625,-0.9375,0
71080,-1.4375,-1.6875,-2.1875,0
71100,-1.5625,-1.5625,-2.875,0
71120,-2.5625,-0.5,-3.1875,0
71140,-3.1875,-0.1875,-2.25,0
71160,-0.25,-0.875,-0.1875,0
71180,-0.5625,-0.9375,-0.5625,0
71200,-0.125,0.6875,-1.9375,0
71220,-1.8125,1.0625,-2.0625,0
71240,-2.5625,0.5625,-1.4375,0
71260,0.1875,0.9375,-0.0625,0
71280,-0.4375,0.875,0.6875,0
71300,0.75,1.0625,0.5625,0
71320,1.0625,0.625,0.875,0
71340,0.0625,1.625,1.75,0
71360,-2.25,1.875,1,0
71380,-0.625,0.875,2.0625,0
71400,3.25,0.5,2.1875,0
71420,5.6875,-0.4375,1.75,0
71440,1.375,-1.3125,1.125,0
71460,2.6875,-1.0625,1,0
71480,3.0625,-1.0625,2.5625,0
71500,2.25,-1.125,2.0625,0
71520,2.8125,-1.3125,2.25,0
71540,3.1875,-1.4375,3.5625,0
71560,2.625,-0.5,3.25,0
71580,2.1875,0.1875,3,0
71600,3.0625,-0.3125,3.4375,0
71620,3.875,-0.75,4.8125,0
71640,4.5,-0.5625,2.3125,0
71660,1.8125,0.0625,1.875,0
71680,4,0.1875,3.0625,0
71700,4.3125,0.875,3.8125,0
71720,2.875,1.8125,2.75,0
71740,2.6875,1.5625,4.25,0
71760,3.9375,1.75,5.5625,0
71780,5.0625,2.875,4.5,0
71800,1.3125,3.5,2.5,0
71820,0.75,2.5,2.5625,0
71840,1.5,1.3125,2.6875,0
71860,1.4375,0.625,0.5,0
71880,0.5,1.375,-2.125,0
71900,1.375,0.5625,-2.125,0
71920,2.5,-1.5,-2.4375,0
71940,2.125,-1.9375,-4,0
71960,0.0625,-1.0625,-5.25,0
71980,0.375,-0.5625,-4.9375,0
72000,2.6875,1,-4.75,0
72020,-0.8125,3.625,-4.4375,0
72040,-0.3125,4.4375,-2.375,0
72060,2.1875,5.875,1.4375,0
72080,1.9375,5.25,2,0
72100,0,6.625,1.1875,0
72120,-0.875,6.375,1.0625,0
72140,1.5,4.6875,1.5625,0
72160,-1.75,5.25,2.6875,0
72180,-3.9375,4.75,2.5625,0
72200,-3.5625,3.6875,4,0
72220,-2.25,2.6875,3.875,0
72240,-1.5625,2.4375,2.875,0
72260,-4.1875,1.9375,3.3125,0
72280,-5.125,2.25,3.625,0
72300,1.5,3.25,3.375,0
72320,2.9375,2.6875,3.625,0
72340,-0.3125,2.6875,3.25,0
72360,2.125,4.0625,5.375,0
72380,-0.75,3.0625,6.6875,0
72400,-0.875,2.5,5.875,0
72420,2.9375,2.6875,6.875,0
72440,3.6875,1.4375,5.75,0
72460,-0.3125,-0.75,4.875,0
72480,-0.5,-1.0625,4.5625,0
72500,-0.25,-2.6875,6.0625,0
72520,0.0625,-4.9375,6.625,0
72530,-1.375,-4.9375,4.75,0
72550,-1.3125,-5,5.5,0
72570,-2.375,-5.125,7.875,0
72590,-2.9375,-4.5625,7.625,0
72610,-0.4375,-4,8.4375,0
72630,0.375,-3.125,8.8125,0
72650,-1.8125,-2.6875,8.25,0
72670,-1.375,-1.5,8.1875,0
72690,0.25,-0.5625,8.125,0
72710,-0.125,-0.3125,9.375,0
72730,-0.0625,-0.8125,10,0
72750,0.0625,-0.375,10.625,0
72770,0.0625,0.875,8.9375,0
72790,0,1.75,8.5,0
72810,2.4375,2.0625,8.6875,0
72830,3.3125,0.25,8.5,0
72850,1.8125,-0.5,8.4375,0
72870,-2.125,-1.375,8,0
72890,2,-1.875,5.5625,0
72910,4.125,-1.8125,3.9375,0
72930,-1.5625,-1.125,4,0
72950,-4.9375,-1.3125,4.8125,0
72970,-1.3125,-1.625,6.25,0
72990,0.6875,-1.0625,7.3125,0
73010,-2.9375,-1.1875,7,0
73030,-6.3125,0.4375,6.3125,0
73050,-4.4375,1.5625,7.4375,0
73070,-4.125,0.5,7.25,0
73090,-4.25,-1.1875,6.25,0
73110,0.6875,0,5.1875,0
73130,-0.0625,0.3125,6.1875,0
73150,-1.3125,0.25,6.5625,0
73170,1.125,0.4375,7.875,0
73190,2.8125,-0.3125,8.5625,0
73210,1.75,-0.9375,7.875,0
73230,-2.375,0.25,7.6875,0
73250,-3.0625,0.5625,7.375,0
73270,-0.1875,-0.375,8.5625,0
73290,-0.4375,-1.875,8.375,0
73310,2.3125,-0.6875,6.6875,0
73330,2.75,-1.1875,6.25,0
73350,2.875,-1.8125,6.125,0
73370,-1.25,-2.875,6.3125,0
73390,-1,-1.75,6.5,0
73410,2.9375,-1.0625,7.25,0
73430,2.8125,-2.5,7,0
73450,-1.625,-1.5,6.625,0
73470,-2.125,-1.4375,4.9375,0
73490,3.3125,-0.8125,4.3125,0
73510,4.9375,-2.0625,3.625,0
73530,2.75,-2.25,2.125,0
73550,6.875,-1.25,4.125,0
73570,7.625,-0.75,5.3125,0
73590,2.8125,-1.5,4.6875,0
73610,-1.25,-2.1875,6.6875,0
73630,0.4375,-1.6875,7.5625,0
73650,1.0625,-1.625,6.75,0
73670,-0.9375,-2.5625,7,0
73690,-1.75,-3.8125,7.6875,0
73710,-0.9375,-4.4375,6.4375,0
73730,-1.25,-4.0625,5.0625,0
73750,0.9375,-4.1875,6.5625,0
73770,2.6875,-4.625,7.75,0
73790,1.1875,-5.1875,7.3125,0
73810,-2.375,-4.5625,7.5625,0
73830,-0.6875,-4.6875,7.6875,0
73850,2.875,-5.25,7.9375,0
73870,0.75,-5.125,7.25,0
73890,-2.25,-4.5625,7.875,0
73910,2.1875,-4.4375,9.5,0
73930,4.625,-4.3125,10.6875,0
73950,1.25,-4.8125,9.5,0
73970,-3.8125,-4,9.6875,0
73990,0,-2.875,10.6875,0
74010,2.5,-3.625,11.1875,0
74030,1.25,-4.875,10.1875,0
74050,1.375,-4.125,10.125,0
74070,2.5625,-3.875,9.0625,0
74090,1.25,-4.125,7.25,0
74110,-2.6875,-4.125,8,0
74130,1.5,-3.9375,8.5625,0
74150,3.875,-4.1875,8.25,0
74170,3.25,-3.6875,7.5,0
74190,-0.5625,-4,8.1875,0
74210,-1.125,-4.5,7.625,0
74230,0,-4.6875,7.4375,0
74250,-0.625,-4.8125,8.1875,0
74270,0.8125,-5.5,8.5625,0
74290,1,-6.6875,8.1875,0
74310,-0.375,-7,7.8125,0
74330,-0.6875,-7,6.4375,0
74350,0.1875,-7.125,6.125,0
74370,1.0625,-7.1875,6.5,0
74390,1,-8,6.875,0
74410,2.6875,-8.75,6.3125,0
74430,1.8125,-7.9375,6.1875,0
74450,0.375,-7.5,5.75,0
74470,1.0625,-8,6.75,0
74490,0.9375,-8.5,6.125,0
74510,3.875,-8.375,7.0625,0
74530,2.75,-8.9375,7.1875,0
74550,0.6875,-9.1875,6.625,0
74570,0.0625,-8.1875,6.0625,0
74590,1.9375,-8.5625,6.6875,0
74610,1.5,-8.875,7.375,0
74630,-0.0625,-8.9375,7.5625,0
74650,0.1875,-8.1875,7.6875,0
74670,0,-7.9375,7.125,0
74690,-2.375,-8,7,0
74710,-1.125,-7.4375,7,0
74730,0.75,-8.125,7.6875,0
74750,-0.125,-8,7.9375,0
74770,-2.0625,-8,6.875,0
74790,-1.375,-7.3125,6.375,0
74810,-0.125,-7.375,6.125,0
74830,0.1875,-7.625,6.125,0
74840,2.6875,-7.375,6.875,0
74860,2,-6.875,6.75,0
74880,2.75,-6.5,7.75,0
74900,0.1875,-6.5625,7.75,0
74920,-0.375,-5.75,7.0625,0
74940,0.5,-5.8125,9,0
74960,2.4375,-6.6875,9.375,0
74980,0.0625,-6.75,8,0
75000,-2,-5.0625,7.1875,0
75020,0.4375,-5.3125,7.6875,0
75040,1,-7.125,8.125,0
75060,0.25,-7.8125,6.9375,0
75080,0.5625,-7.3125,6.3125,0
75100,1.9375,-7.375,5.5625,0
75120,-0.1875,-8.125,5.6875,0
75130,-2.625,-7.9375,5.9375,0
75150,-0.5,-7.5625,6.75,0
75170,1.5,-7.4375,8.0625,0
75190,0,-7.9375,7.1875,0
75210,-2.1875,-8.25,9.0625,0
75230,-0.8125,-7.6875,9.625,0
75250,-1.4375,-7.75,8.9375,0
75260,-2.75,-7.1875,8.5,0
75300,-0.5,-7.3125,9.0625,0
75320,-2.8125,-8.125,7.875,0
75330,-0.6875,-6.5,8.4375,0
75350,-1.25,-7.25,8.25,0
75370,-3.6875,-7.125,7.25,0
75390,-2.4375,-7.125,8.4375,0
75410,-2,-6.8125,5.9375,0
75430,-0.25,-7,5.9375,0
75450,0.0625,-7.5,7.625,0
75470,-1.5625,-7.875,5.9375,0
75490,-1.6875,-7.5,4.75,0
75510,-0.8125,-7.75,5.75,0
75530,-1.375,-6.9375,4.375,0
75550,-1.625,-6.6875,3.625,0
75570,-1.875,-5.9375,4.125,0
75590,-0.8125,-5.125,4.5625,0
75610,-2.625,-6.4375,5.875,0
75630,-3.875,-5.75,4.8125,0
75650,-3.375,-4.4375,4.8125,0
75670,-4.5625,-5.0625,3.8125,0
75690,-6,-4.5625,3.4375,0
75710,-3.875,-4.875,2.9375,0
75730,-3,-5.625,4.125,0
75750,-3.4375,-6.3125,2.5625,0
75770,-4.5625,-6,0.75,0
75790,-5.9375,-6,0.125,0
75810,-3.5,-7.5625,0.6875,0
75830,-3.25,-9.0625,1.375,0
75850,-1.75,-9.25,1.25,0
75870,-2.1875,-9.25,0.4375,0
75890,-3.4375,-8,0,0
75910,-3.4375,-8.25,1.75,0
75930,-1.5,-9.625,3.375,0
75950,-1.625,-9.6875,3.5,0
75970,-3.0625,-8.0625,2.75,0
75990,-2.5,-8.875,4.5,0
76010,-3.3125,-8.4375,4.8125,0
76030,-3.8125,-8.875,4.0625,0
76050,-3.0625,-9.125,4.4375,0
76070,-0.625,-9.375,6.25,0
76090,1.9375,-9.75,6.125,0
76110,-0.125,-9.375,5.875,0
76130,-3.5,-8.625,5.5,0
76150,-3.6875,-9.4375,5.3125,0
76170,-0.5625,-10.3125,5.3125,0
76190,-1.5,-9.9375,7.0625,0
76210,-3.6875,-10.5,6.375,0
76230,-7.5625,-10,4.6875,0
76250,-2.375,-11.1875,6.75,0
76270,1.25,-11.625,5.75,0
76290,1.0625,-11.3125,3.5625,0
76310,0.6875,-11.1875,3.0625,0
76330,-0.1875,-10.25,2.5625,0
76350,-3.4375,-9.0625,-0.1875,0
76370,-3.4375,-9.1875,1.375,0
76390,1.1875,-10.75,2.4375,0
76410,2.1875,-9.8125,0.1875,0
76430,0.125,-9.0625,-1.5,0
76450,-2.5,-7.8125,-1.5625,0
76470,-2.0625,-7.8125,-1.9375,0
76490,-0.6875,-7.8125,-2.375,0
76510,0.3125,-8.5625,-2.875,0
76530,1,-8.0625,-3.875,0
76550,-0.8125,-7.75,-5,0
76570,-1.9375,-6.5,-5.375,0
76590,-3.625,-6.1875,-5.8125,0
76610,-1.4375,-6.9375,-4.75,0
76630,-0.1875,-7.6875,-5.375,0
76650,-3.25,-6.75,-8.625,0
76670,-6.0625,-5.9375,-7.125,0
76690,-4.3125,-5.5625,-5.625,0
76710,-0.375,-6.25,-8.6875,0
76730,1,-6.6875,-8.9375,0
76750,-1.5625,-6.875,-8.4375,0
76770,-3.75,-5.8125,-10.9375,0
76790,-5.4375,-6.5625,-11.6875,0
76810,-3.3125,-7.5,-9.4375,0
76830,-3.375,-7.8125,-10.0625,0
76850,-3.625,-5.5,-10.9375,0
76870,-3,-3.125,-8.5625,0
76890,-3.9375,-3.1875,-8.6875,0
76910,-7.25,-2.25,-10,0
76930,-8.375,-0.5,-8.8125,0
76950,-7.6875,0.6875,-9.0625,0
76970,-4.5,-0.0625,-10.1875,0
76990,-2.4375,-0.75,-12.75,0
77010,-5.8125,-1.8125,-14.6875,0
77030,-10.1875,0.25,-14.75,0
77050,-11.5,2.75,-15.125,0
77070,-7.3125,3.125,-15.125,0
77090,-5.5,2.25,-15.3125,0
77110,-6.1875,1.5625,-16.5,0
77130,-6.9375,1.8125,-16.9375,0
77150,-8.4375,1.375,-18,0
77170,-9.8125,2.3125,-17.9375,0
77190,-11.25,2.0625,-16,0
77210,-6.4375,2.25,-15.375,0
77230,-4,1.125,-14.75,0
77250,-6.375,1.4375,-17.0625,0
77270,-11.5,2.25,-17.6875,0
77290,-11.75,3.8125,-15.4375,0
77310,-5.0625,3.8125,-15,0
77330,-3.4375,2.875,-16.6875,0
77350,-8.125,2,-18.375,0
77370,-8,2.5625,-19,0
77390,-5.8125,3.1875,-20.625,0
77410,-4.8125,2.8125,-21.5625,0
77430,-6.6875,0.9375,-21.3125,0
77450,-3.5625,1.125,-20.75,0
77470,-6.5,1.8125,-21.0625,0
77490,-10.875,2.3125,-20.0625,0
77510,-10.3125,2.625,-18.4375,0
77530,-6.875,1.3125,-17.8125,0
77550,-4.0625,1.25,-18.625,0
77570,-9.625,0.875,-19.25,0
77590,-9.9375,1.5625,-19,0
77610,-9.1875,1.5625,-18.125,0
77630,-6.3125,2.4375,-16.9375,0
77650,-7.125,1.625,-17.4375,0
77670,-8.5,2.1875,-19.1875,0
77690,-6.5625,4.25,-18.4375,0
77700,-9.25,5.1875,-17.875,0
77720,-10.5,5.3125,-15.75,0
77740,-6.9375,5.0625,-13.875,0
77760,-2.8125,5.25,-14,0
77780,-3.375,4.3125,-15.875,0
77800,-7.3125,3.3125,-17.4375,0
77820,-8.4375,1.9375,-18.6875,0
77840,-4.8125,1.0625,-18.5625,0
77860,-1.5625,1.3125,-17.125,0
77880,-4.9375,1.0625,-18.375,0
77900,-6,0.875,-19.125,0
77920,-6.4375,0.625,-18.1875,0
77940,-4,1.1875,-16.625,0
77960,-5.3125,0.5625,-16.3125,0
77980,-4.375,1.4375,-15.8125,0
78000,-4.9375,2.375,-15.375,0
78020,-4.875,4.3125,-14.8125,0
78040,-5.8125,4.8125,-13.5625,0
78060,-2.3125,4.875,-12.1875,0
78080,-2.1875,5,-11.8125,0
78100,-4.1875,5.75,-11.6875,0
78120,-4.1875,5.875,-10.375,0
78140,-4.375,6,-10.3125,0
78160,-1.75,5.1875,-11,0
78180,-1.375,4.25,-11.25,0
78200,-2.3125,3.375,-12.25,0
78220,-1.875,2.875,-13.4375,0
78240,-3.5,1.875,-13.125,0
78260,-3.375,2,-12.0625,0
78280,-1.5625,3,-10.5625,0
78300,-3.125,4.625,-10.1875,0
78320,-3.4375,4.5,-8.75,0
78340,-0.4375,3.9375,-6.625,0
78360,1.8125,3.375,-7.5625,0
78380,0,2.3125,-7.1875,0
78400,-3.625,2.25,-6.4375,0
78420,-4.25,3.875,-4.625,0
78440,-3.8125,4.75,-2.9375,0
78460,-2.125,5.1875,-3.25,0
78480,-1.375,5.875,-2.5,0
78500,-3.6875,6.125,-1.1875,0
78520,-0.25,6.6875,0.4375,0
78540,5.125,6.5,0.4375,0
78560,5.375,5.1875,-2.3125,0
78580,-0.4375,4.75,-1.5625,0
78600,-1.9375,5.0625,-0.5625,0
78620,1.6875,6.5625,0.375,0
78640,3.5625,5.625,0.625,0
78660,-0.5,4.5625,0.3125,0
78680,-1.5625,6.5625,0.125,0
78700,-1.125,6.875,-1.125,0
78720,-2.6875,4.6875,0.3125,0
78740,1.3125,4.5,1.8125,0
78760,2.4375,4.875,0.0625,0
78780,4.0625,6.0625,-0.6875,0
78800,-0.875,3.9375,1.6875,0
78820,-2.625,3.5,3.0625,0
78840,0.5,4,3.375,0
78860,-0.4375,3.6875,3.4375,0
78880,-2.4375,3,3.6875,0
78900,-2.375,1.625,6.3125,0
78920,-0.25,1.375,6.75,0
78940,2.875,1.875,5.8125,0
78960,-0.4375,0.5,6.6875,0
78980,-2.5,1.8125,5.6875,0
79000,0.125,1.8125,5.8125,0
79020,1.375,-0.6875,6.5625,0
79040,-0.5625,0.125,6.6875,0
79060,-0.3125,3.75,6,0
79080,1.1875,4.125,5.9375,0
79100,1.4375,1.4375,5.1875,0
79120,2.375,-1.1875,4.6875,0
79140,2,-1.8125,4.0625,0
79160,0.375,-1.5625,2.5,0
79180,-0.125,-0.5,0.875,0
79200,-1.875,-1.0625,2,0
79220,-2.3125,-2,2.75,0
79240,-2.5,-2.25,2,0
79260,-2.0625,-0.5625,1.9375,0
79280,-3.0625,1.1875,2.3125,0
79300,-2.9375,1.8125,3.5625,0
79320,0.5,2.5,3.75,0
79340,1.25,2.625,3.5625,0
79360,-3.75,2.625,3.3125,0
79380,-4.625,3.6875,0.9375,0
79400,-4.375,4.25,1.4375,0
79420,1.4375,4.5,3.25,0
79440,1.8125,3.875,3.5,0
79460,-2.0625,2.75,2.4375,0
79480,-2.8125,3.375,2.625,0
79500,3.3125,4.25,2.875,0
79520,5.0625,2.3125,3.625,0
79540,1.0625,2.4375,2.8125,0
79560,0.375,3.125,4.8125,0
79580,3,2,5.0625,0
79600,3.0625,0.3125,4.1875,0
79620,3.125,0.8125,4.75,0
79640,0.375,2.875,4.4375,0
79660,-2.3125,3.125,5.6875,0
79680,-3.6875,2.6875,5.6875,0
79700,0.5625,4.6875,7.625,0
79720,4.0625,5.5,8.75,0
79740,1.8125,5.6875,7.3125,0
79760,-1.875,6.25,7.4375,0
79800,1.6875,7.5,7.9375,0
79820,0.875,5.8125,9.4375,0
79840,1.8125,5.9375,8.125,0
79860,0,6.25,7.875,0
79880,-0.3125,7.375,7.375,0
79900,2.5,6.125,8.4375,0
79920,4.4375,4.9375,9.0625,0
79940,2.375,3.6875,7.125,0
79960,2.6875,4,6.125,0
79980,3.9375,5.0625,7.5,0
80000,0.1875,3.75,7.75,0
80020,-2.5625,2,8.625,0
80040,0.875,2.8125,9.125,0
80060,5.0625,2.9375,9.25,0
80080,1.75,2.8125,8.25,0
80100,-1.4375,2,8.5625,0
80120,-1.875,1.375,10,0
80140,2.0625,1.5,9.75,0
80160,2.25,1,9.75,0
80180,-0.5625,1,9.625,0
80200,0.3125,0.6875,9.5,0
80220,0.5625,-0.6875,10.4375,0
80240,-0.5625,-1.6875,10.625,0
80260,2.1875,-1.5625,10.25,0
80280,4.375,-1,8.9375,0
80300,-0.375,-1.625,9.6875,0
80310,-2.1875,-2.5,10,0
80330,1.1875,-3.5,10.5625,0
80350,5.375,-3.8125,10.625,0
80370,2.4375,-3.3125,8.125,0
80390,0.5625,-4.5625,9,0
80410,-0.875,-6.5,10.1875,0
80430,1.5625,-7.5,9.8125,0
80450,3.0625,-7.625,8.625,0
80470,4.0625,-7.8125,8.375,0
80490,-0.25,-9.5,9.3125,0
80510,-1.375,-10,9.375,0
80530,0.8125,-10,10.3125,0
80550,1.125,-9.5625,10.75,0
80570,-0.8125,-9.5625,11.25,0
80590,-3,-9.1875,11.625,0
80610,-2,-8.0625,12.25,0
80630,-2,-8.25,12.3125,0
80650,-0.4375,-7.875,13,0
80670,0.375,-8.5625,13.5625,0
80690,-0.6875,-7.75,12.375,0
80710,-0.1875,-7.625,12.6875,0
80730,-1,-7.875,12.6875,0
80750,1.0625,-7.75,12.75,0
80770,0.5625,-8.6875,12.6875,0
80790,2.0625,-7.8125,11,0
80810,2.125,-8.8125,11.0625,0
80830,0.25,-9.6875,11.375,0
80850,0.5625,-10,12.5,0
80870,1.625,-9.6875,11.5,0
80890,2.75,-9.3125,10.75,0
80910,3.125,-10.5625,11.625,0
80930,2.3125,-10.9375,12.625,0
80950,4,-10.375,11.875,0
80970,1.3125,-11.875,10.9375,0
80990,0.1875,-10.3125,10,0
81010,0.5625,-10.125,10.1875,0
81030,1.8125,-9.75,10.125,0
81050,3.4375,-10.0625,11.5625,0
81070,3.75,-10.8125,12.625,0
81090,0,-9.8125,11.625,0
81110,-2.9375,-8.8125,10.5,0
81130,-1.4375,-8.6875,10.875,0
81150,0.5,-9.9375,12.4375,0
81170,-1.0625,-10.5,12.625,0
81190,-1.125,-9.3125,12.25,0
81210,-2.1875,-8.75,11,0
81230,0.125,-8.8125,10.5,0
81250,-1.6875,-10.0625,9.875,0
81270,-1.75,-8.625,9.5,0
81290,0.375,-8.4375,10.3125,0
81310,1,-9.5625,9.625,0
81330,2,-9.375,9.75,0
81350,1.375,-8.8125,9.5625,0
81370,-3,-9.5,9.8125,0
81390,-0.5,-9.625,10.8125,0
81410,0.625,-9.375,10.5,0
81430,-0.8125,-9.625,9.5,0
81450,-1.5,-9.75,8.625,0
81470,-2.3125,-10.0625,8.625,0
81490,-3.4375,-10.6875,6.75,0
81510,-3.9375,-11.25,5.5625,0
81530,-0.9375,-12.1875,5.1875,0
81550,-1.25,-12.875,2.625,0
81570,1.125,-12.875,1.4375,0
81590,0.375,-14.5625,0.4375,0
81610,-0.3125,-12.75,-0.5,0
81630,1.6875,-12.5625,0.4375,0
81650,2.6875,-13.1875,0.9375,0
81670,-0.5,-12,1.125,0
81690,0.1875,-10.5,1.75,0
81710,-1.1875,-11.5625,2.4375,0
81730,-4.125,-11.375,3.5,0
81750,-5.1875,-11.375,4.6875,0
81770,-2.6875,-11.9375,3.5625,0
81790,-4.125,-11.875,2.375,0
81810,-0.875,-11.3125,1.375,0
81830,1.125,-11.5,1.0625,0
81850,2.4375,-11.8125,1.4375,0
81870,-2.125,-10,1.625,0
81890,-2.4375,-9.625,-0.0625,0
81910,-2.625,-10.75,-0.3125,0
81930,-2.375,-13.25,-0.125,0
81950,0.625,-13.125,4.25,0
81970,1.3125,-11.75,3.5,0
81990,-2.3125,-14.0625,-1.5,0
82010,-5.5625,-13.6875,-2.5,0
82030,-4.125,-13.0625,-1.9375,0
82050,-1.125,-14.5,-3.125,0
82070,0.625,-14.4375,-3.125,0
82090,-0.8125,-14.4375,-4.125,0
82110,-2.0625,-13.375,-3.9375,0
82130,0,-12.9375,-3.5625,0
82150,-1,-13.3125,-4,0
82170,-0.25,-12.4375,-3,0
82190,-4.5,-12.1875,-2.375,0
82210,-3.375,-11.9375,-1.625,0
82230,-1.625,-12.0625,-2.3125,0
82250,-3.875,-12.0625,-2.5625,0
82270,-5.5625,-10.8125,-2.375,0
82290,-7.5625,-10.4375,-3.8125,0
82310,-6.625,-11.5625,-2.1875,0
82330,-2.9375,-11.625,-1.875,0
82350,-1.6875,-11.625,-3.75,0
82370,-1.625,-10.75,-5.5625,0
82390,-2.75,-10.6875,-3.9375,0
82410,-4.8125,-9.9375,-4.25,0
82430,-2,-7.625,-6.75,0
82450,2.5625,-7.375,-5.9375,0
82470,2.4375,-9.875,-8,0
82490,-3.8125,-10.3125,-9.875,0
82510,-7.625,-10.3125,-9.5,0
82530,-5.5625,-9.4375,-9.25,0
82550,-3.25,-9.875,-8.9375,0
82570,-4.625,-11.375,-10.0625,0
82590,-10.1875,-11.25,-9.5625,0
82610,-7.1875,-9.375,-10.1875,0
82630,-3.3125,-8.125,-10.75,0
82650,-0.25,-7.75,-9.4375,0
82670,-3.875,-8.75,-8.875,0
82690,-2.625,-8.5,-10.6875,0
82710,-4.5625,-5.25,-12.1875,0
82730,-3.4375,-4.375,-14,0
82750,-2.75,-4.0625,-14.625,0
82770,-4.25,-2.75,-12.625,0
82790,-1.3125,-4.1875,-11.75,0
82810,-2.875,-3.0625,-14.3125,0
82830,-4.375,-0.0625,-14.5,0
82850,-6.75,0.75,-13.125,0
82870,-3.0625,0.3125,-11.3125,0
82890,2.3125,-0.9375,-10.375,0
82900,-1.5625,-1,-12.1875,2001
82920,-7.4375,0.5625,-15.5625,0
82940,-6.3125,0.875,-17.5625,0
82960,-7.5,-2.375,-14.3125,0
82980,-5.5625,-1.25,-9.125,0
83000,0.6875,0.6875,-7.8125,0
83020,-0.3125,-0.5625,-10.125,0
83040,-4.3125,0.0625,-10.6875,0
83060,-4.625,-0.5625,-8.3125,0
83080,-2.9375,-0.6875,-7.375,0
83100,1.0625,0.4375,-5.125,0
83120,0.0625,-0.5,-3.125,0
83140,-2.6875,-0.3125,-0.4375,0
83160,-1.125,1.6875,0.8125,0
83180,-3.25,6.0625,3.625,0
83200,-9.875,2.5,3.8125,0
83220,-13.875,-3.3125,2.5,0
83240,-6.9375,-6.1875,2.25,0
83260,-1.75,-3.1875,1.375,0
83280,-1.75,2.9375,-0.625,0
83300,-8.0625,3.875,-3.6875,0
83320,2.5625,2,2.9375,0
83340,3.0625,1.625,1.5,0
83360,1.5,5.375,-1.125,0
83380,0.5625,6.375,-2.375,0
83400,2.0625,3.9375,-1.0625,0
83420,0.8125,2.3125,2,0
83440,5,1.375,3.75,0
83460,3.0625,-0.25,1.3125,0
83480,-2,0.25,-1.375,0
83500,-2.375,0.8125,-1.5625,0
83520,-1.5625,-1.5625,-0.4375,0
83540,-3.1875,-7.125,0.8125,0
83560,-3.0625,-10,1.1875,0
83580,-3.4375,-9.1875,0.625,0
83600,-5.375,-8.8125,0.25,0
83620,-6,-8,0.625,0
83640,-5.125,-9.8125,3.5,0
83660,0.4375,-10.125,4.375,0
83680,1.375,-9.4375,2.875,0
83700,-4.125,-8.625,1.375,0
83720,-7.375,-7.125,1.125,0
83740,-3.1875,-7.8125,1.25,0
83760,0.4375,-8.6875,1.4375,0
83780,-0.375,-8.8125,1.75,0
83800,-3,-7.125,2.1875,0
83820,-1,-5.25,4.5,0
83840,3.5625,-5.6875,1.5,0
83860,3,-6.1875,-1,0
83880,-1.3125,-4.75,-1.0625,0
83900,-2.3125,-4.0625,-1.5,0
83920,2.25,-2.5,-2.25,0
83940,6.5625,-0.8125,-2,0
83960,5,0.8125,-1.125,0
83980,0.6875,3.25,-0.5,0
84000,-0.875,6.3125,-0.375,0
84020,5.25,8,0.5625,0
84040,6.25,10.25,-0.375,0
84060,2.1875,15.0625,-1.75,0
84080,-1.1875,17.75,-0.0625,0
84100,-2.125,20.3125,-1.1875,0
84120,-2,24.1875,-1.125,0
84140,-4.4375,28.125,0.1875,0
84160,2.25,30.125,1.8125,0
84180,3.125,33.5625,2.75,0
84200,-0.125,38.4375,4.75,0
84220,-5.875,40.8125,7.1875,0
84240,-5.4375,40.4375,7.125,0
84260,-5.75,43.75,6.75,0
84280,0.8125,54.875,6.875,0
84300,13.0625,59.9375,16.4375,0
84320,-1.9375,53.8125,29.8125,0
84340,5.125,56.3125,37.4375,0
84360,7.5625,64.9375,38.0625,0
84380,1,72.9375,37.6875,0
84400,0.4375,73.5625,35.375,0
