Timestamp, Angle x, Angle y, Angle z, Marker
50,-1.42633,0.68587,-3.07751,0
70,-1.41511,0.689331,-3.07107,0
90,-1.40345,0.693837,-3.06235,0
110,-1.3918,0.695698,-3.05165,0
130,-1.38233,0.694003,-3.04082,0
140,-1.37515,0.692127,-3.03112,0
140,-1.36516,0.69198,-3.02187,0
180,-1.35201,0.691518,-3.0102,0
200,-1.33685,0.68942,-2.9945,0
220,-1.31944,0.688818,-2.97491,0
240,-1.29942,0.690391,-2.9508,0
260,-1.28145,0.689119,-2.92434,0
280,-1.26823,0.684693,-2.89818,0
300,-1.25343,0.682114,-2.87192,0
320,-1.23272,0.68265,-2.84431,0
340,-1.20593,0.683912,-2.81201,0
360,-1.18196,0.68363,-2.77966,0
380,-1.16021,0.68397,-2.74696,0
400,-1.13974,0.684361,-2.71147,0
420,-1.12229,0.683483,-2.67555,0
440,-1.1074,0.679823,-2.64022,0
460,-1.09015,0.674448,-2.60516,0
480,-1.06956,0.669231,-2.57111,0
500,-1.0493,0.665405,-2.53883,0
520,-1.02997,0.661402,-2.50685,0
540,-1.01113,0.657118,-2.47624,0
560,-0.993139,0.654298,-2.44776,0
580,-0.977343,0.653369,-2.42055,0
600,-0.963907,0.652434,-2.39487,0
620,-0.954847,0.651401,-2.37048,0
640,-0.947864,0.651607,-2.34786,0
660,-0.942111,0.652689,-2.3267,0
680,-0.937371,0.653813,-2.30669,0
700,-0.934062,0.654063,-2.28869,0
720,-0.931937,0.654159,-2.27356,0
740,-0.930899,0.654184,-2.26162,0
760,-0.930307,0.65342,-2.25241,0
780,-0.931311,0.652299,-2.24662,0
800,-0.932879,0.652007,-2.24405,0
820,-0.934783,0.651838,-2.24519,0
840,-0.938083,0.651142,-2.24934,0
860,-0.943098,0.650572,-2.25596,0
880,-0.948674,0.651167,-2.2659,0
900,-0.954968,0.651093,-2.27892,0
920,-0.963002,0.649584,-2.29469,0
940,-0.973209,0.647972,-2.31358,0
960,-0.984365,0.646587,-2.33549,0
980,-0.994053,0.645102,-2.36081,0
1000,-1.0029,0.642977,-2.38869,0
1020,-1.01233,0.640905,-2.41871,0
1040,-1.02307,0.639098,-2.45199,0
1060,-1.03505,0.63793,-2.48761,0
1080,-1.04635,0.636928,-2.52407,0
1100,-1.05472,0.635684,-2.5611,0
1120,-1.06305,0.635104,-2.59915,0
1140,-1.07354,0.635375,-2.63768,0
1160,-1.08313,0.635247,-2.67704,0
1180,-1.09086,0.633276,-2.71602,0
1200,-1.09661,0.630714,-2.75402,0
1220,-1.10332,0.629276,-2.79191,0
1240,-1.11168,0.628583,-2.82983,0
1260,-1.11844,0.626006,-2.86648,0
1280,-1.1232,0.623676,-2.90092,0
1300,-1.12825,0.624133,-2.93374,0
1320,-1.13457,0.625684,-2.96443,0
1340,-1.14067,0.627553,-2.99228,0
1360,-1.14564,0.629211,-3.0171,0
1380,-1.14948,0.631682,-3.03838,0
1400,-1.15218,0.634838,-3.05701,0
1420,-1.15283,0.637475,-3.07176,0
1440,-1.15173,0.638663,-3.08234,0
1460,-1.14772,0.639643,-3.08913,0
1480,-1.14184,0.641343,-3.09187,0
1500,-1.13516,0.642131,-3.0903,0
1520,-1.12688,0.641786,-3.08469,0
1540,-1.11699,0.640567,-3.0753,0
1560,-1.10667,0.639251,-3.06197,0
1580,-1.09572,0.637241,-3.04524,0
1600,-1.08264,0.634802,-3.02509,0
1620,-1.06841,0.632134,-3.00161,0
1640,-1.05433,0.629056,-2.97521,0
1660,-1.03981,0.625675,-2.94647,0
1680,-1.02451,0.622443,-2.91505,0
1700,-1.0094,0.619406,-2.88187,0
1720,-0.994702,0.616415,-2.84689,0
1740,-0.980552,0.613708,-2.81067,0
1760,-0.967295,0.611155,-2.77394,0
1780,-0.956984,0.608022,-2.73628,0
1800,-0.947528,0.604688,-2.69954,0
1820,-0.934879,0.602236,-2.66195,0
1840,-0.921344,0.59973,-2.62327,0
1860,-0.910513,0.596422,-2.58647,0
1880,-0.899569,0.594011,-2.5511,0
1900,-0.887708,0.590821,-2.5169,0
1920,-0.872897,0.587507,-2.48337,0
1940,-0.856947,0.585312,-2.45033,0
1960,-0.843453,0.582316,-2.4182,0
1980,-0.832222,0.579487,-2.38747,0
2000,-0.823191,0.576929,-2.35788,0
2020,-0.815731,0.574901,-2.32879,0
2040,-0.81066,0.573375,-2.3004,0
2060,-0.807177,0.57273,-2.27351,0
2080,-0.8047,0.573635,-2.24844,0
2100,-0.802435,0.575778,-2.22655,0
2120,-0.801533,0.578316,-2.20765,0
2140,-0.803188,0.57975,-2.19147,0
2160,-0.807723,0.58003,-2.17909,0
2180,-0.813977,0.579833,-2.17202,0
2200,-0.820451,0.579654,-2.17016,0
2220,-0.826908,0.579473,-2.17444,0
2240,-0.832853,0.578945,-2.1835,0
2260,-0.840712,0.577986,-2.19794,0
2280,-0.850003,0.577224,-2.21933,0
2300,-0.861681,0.575294,-2.24625,0
2320,-0.874704,0.571197,-2.2782,0
2340,-0.883358,0.567139,-2.32025,0
2360,-0.892418,0.56761,-2.36712,0
2380,-0.910527,0.572754,-2.41458,0
2400,-0.928823,0.574627,-2.46419,0
2410,-0.942785,0.573521,-2.51692,0
2430,-0.955161,0.573571,-2.56835,0
2450,-0.96564,0.572162,-2.61683,0
2470,-0.974475,0.569388,-2.66371,0
2490,-0.984556,0.566231,-2.71054,0
2510,-0.998115,0.56257,-2.75653,0
2530,-1.01221,0.559169,-2.80015,0
2550,-1.02648,0.558315,-2.84086,0
2570,-1.04272,0.558342,-2.87919,0
2590,-1.05724,0.55765,-2.9158,0
2610,-1.06904,0.558424,-2.95136,0
2630,-1.08079,0.560865,-2.98572,0
2650,-1.09098,0.562344,-3.01639,0
2670,-1.09671,0.561269,-3.04385,0
2690,-1.0982,0.559352,-3.06755,0
2710,-1.09702,0.557938,-3.08673,0
2730,-1.09297,0.555772,-3.10003,0
2750,-1.0856,0.552913,-3.10729,0
2770,-1.07652,0.551129,-3.10819,0
2790,-1.06812,0.551013,-3.10304,0
2810,-1.05972,0.552495,-3.09245,0
2830,-1.04754,0.554414,-3.07643,0
2850,-1.03067,0.556321,-3.05403,0
2870,-1.01056,0.557877,-3.02514,0
2890,-0.987447,0.557612,-2.99001,0
2910,-0.96225,0.556308,-2.94988,0
2930,-0.938125,0.554893,-2.90548,0
2950,-0.91407,0.552545,-2.85718,0
2970,-0.886782,0.550212,-2.80518,0
2990,-0.860912,0.54687,-2.75101,0
3010,-0.835691,0.543343,-2.69298,0
3030,-0.812343,0.538875,-2.6328,0
3050,-0.790246,0.532847,-2.57069,0
3070,-0.769037,0.526225,-2.50749,0
3090,-0.747975,0.519325,-2.44397,0
3110,-0.726676,0.511755,-2.38038,0
3130,-0.706047,0.503079,-2.31839,0
3150,-0.687123,0.494097,-2.25884,0
3170,-0.670563,0.485995,-2.20208,0
3190,-0.657315,0.478778,-2.14774,0
3210,-0.649307,0.477312,-2.09764,0
3230,-0.641955,0.476658,-2.05171,0
3250,-0.633796,0.476617,-2.01022,0
3270,-0.627289,0.476916,-1.97162,0
3290,-0.625588,0.478211,-1.93658,0
3310,-0.627205,0.478852,-1.90812,0
3330,-0.629858,0.478852,-1.88533,0
3350,-0.634885,0.479541,-1.86707,0
3370,-0.642858,0.479968,-1.85391,0
3390,-0.652999,0.479211,-1.84746,0
3410,-0.665782,0.478653,-1.84866,0
3430,-0.680884,0.477752,-1.85707,0
3450,-0.696204,0.475374,-1.87141,0
3470,-0.71235,0.472661,-1.89219,0
3490,-0.728813,0.471088,-1.92003,0
3510,-0.745677,0.470477,-1.95421,0
3530,-0.762622,0.470305,-1.99396,0
3550,-0.779258,0.470614,-2.03813,0
3570,-0.796997,0.471573,-2.0868,0
3590,-0.812597,0.468383,-2.13838,0
3610,-0.829476,0.465022,-2.19393,0
3630,-0.846542,0.461609,-2.25231,0
3650,-0.863724,0.458252,-2.31341,0
3670,-0.880585,0.455781,-2.37512,0
3690,-0.89718,0.453783,-2.43731,0
3710,-0.912509,0.451832,-2.50023,0
3730,-0.927785,0.450525,-2.56343,0
3750,-0.94394,0.450632,-2.62566,0
3770,-0.959791,0.451853,-2.68709,0
3790,-0.975652,0.454275,-2.74668,0
3810,-0.990522,0.457603,-2.80424,0
3830,-1.00494,0.461835,-2.85906,0
3850,-1.01835,0.466884,-2.9109,0
3870,-1.02926,0.472169,-2.9607,0
3890,-1.03932,0.478119,-3.00719,0
3910,-1.05038,0.485693,-3.05018,0
3930,-1.06239,0.49513,-3.09004,0
3950,-1.06731,0.507949,-3.12326,0
3970,-1.07175,0.520263,3.13104,0
3990,-1.07504,0.530883,3.1071,0
4010,-1.07771,0.539161,3.08974,0
4030,-1.0784,0.546255,3.07802,0
4050,-1.07458,0.552793,3.0726,0
4070,-1.06744,0.558157,3.07404,0
4090,-1.05601,0.560989,3.08213,0
4110,-1.04105,0.561043,3.09644,0
4130,-1.02339,0.558601,3.1172,0
4150,-1.00324,0.554222,-3.13891,0
4170,-0.979725,0.547887,-3.10641,0
4190,-0.95214,0.538981,-3.06931,0
4210,-0.92243,0.52854,-3.02779,0
4230,-0.896986,0.516862,-2.98464,0
4250,-0.871579,0.504785,-2.93739,0
4270,-0.846717,0.492669,-2.8866,0
4290,-0.822316,0.479837,-2.83337,0
4310,-0.797141,0.466494,-2.77764,0
4330,-0.773375,0.453459,-2.71915,0
4350,-0.751302,0.440438,-2.65856,0
4370,-0.730541,0.427755,-2.59689,0
4390,-0.711215,0.414764,-2.53445,0
4410,-0.69386,0.401962,-2.47081,0
4430,-0.678728,0.389275,-2.40725,0
4450,-0.664628,0.376875,-2.34374,0
4470,-0.651622,0.364905,-2.27986,0
4490,-0.640035,0.354152,-2.21655,0
4510,-0.629872,0.344156,-2.15477,0
4530,-0.621814,0.335492,-2.09495,0
4570,-0.617187,0.322301,-1.97858,0
4590,-0.61794,0.317086,-1.92176,0
4610,-0.621535,0.313937,-1.86643,0
4630,-0.626946,0.311719,-1.81455,0
4650,-0.63458,0.31433,-1.76949,0
4670,-0.643166,0.317784,-1.73034,0
4690,-0.654172,0.319313,-1.69852,0
4710,-0.66344,0.317951,-1.67446,0
4730,-0.668909,0.317678,-1.65588,0
4750,-0.674573,0.318163,-1.64302,0
4770,-0.681271,0.31949,-1.63816,0
4790,-0.685273,0.321572,-1.64198,0
4810,-0.689582,0.324458,-1.65276,0
4830,-0.695553,0.328486,-1.6691,0
4850,-0.701602,0.332982,-1.69279,0
4870,-0.705501,0.336726,-1.72484,0
4890,-0.703157,0.339928,-1.76533,0
4910,-0.695723,0.34353,-1.81193,0
4930,-0.692017,0.346815,-1.85942,0
4950,-0.690886,0.352703,-1.9087,0
4970,-0.68856,0.359049,-1.96017,0
4990,-0.686108,0.365957,-2.0124,0
5000,-0.681283,0.37709,-2.06319,0
5020,-0.678311,0.387761,-2.11284,0
5040,-0.683099,0.395881,-2.16346,0
5060,-0.687497,0.405209,-2.21384,0
5080,-0.697201,0.407954,-2.26552,0
5100,-0.705246,0.410783,-2.31369,0
5120,-0.71008,0.411436,-2.36107,0
5140,-0.710251,0.41223,-2.40548,0
5160,-0.709032,0.414436,-2.44575,0
5180,-0.70985,0.415554,-2.48288,0
5200,-0.715234,0.415739,-2.51894,0
5220,-0.722529,0.41598,-2.5539,0
5240,-0.72931,0.416473,-2.58652,0
5260,-0.73258,0.417763,-2.61662,0
5280,-0.734275,0.420249,-2.64393,0
5300,-0.737281,0.423889,-2.66792,0
5320,-0.740673,0.428503,-2.68916,0
5340,-0.742091,0.434308,-2.70802,0
5360,-0.741088,0.440036,-2.72414,0
5380,-0.737946,0.44542,-2.73587,0
5400,-0.73307,0.450261,-2.74312,0
5420,-0.724138,0.454349,-2.7471,0
5440,-0.712002,0.457529,-2.74806,0
5460,-0.697235,0.458553,-2.74489,0
5480,-0.679858,0.45807,-2.73813,0
5500,-0.660757,0.457179,-2.7276,0
5520,-0.641206,0.455916,-2.71373,0
5540,-0.622603,0.454451,-2.69589,0
5560,-0.60513,0.453882,-2.6736,0
5580,-0.589792,0.454142,-2.64732,0
5600,-0.576306,0.454371,-2.61854,0
5620,-0.564046,0.454457,-2.58719,0
5640,-0.553154,0.454801,-2.55295,0
5660,-0.543715,0.455439,-2.5163,0
5680,-0.534516,0.455566,-2.4785,0
5700,-0.52446,0.455181,-2.44077,0
5720,-0.51489,0.454332,-2.40233,0
5740,-0.508083,0.454007,-2.36216,0
5760,-0.505386,0.45316,-2.32068,0
5780,-0.50289,0.451578,-2.28048,0
5800,-0.499928,0.45117,-2.24078,0
5820,-0.500793,0.451557,-2.20154,0
5840,-0.504051,0.450818,-2.16559,0
5860,-0.506835,0.449116,-2.13407,0
5880,-0.509864,0.447744,-2.10546,0
5900,-0.514447,0.446379,-2.07961,0
5920,-0.519066,0.445044,-2.05746,0
5940,-0.523717,0.44522,-2.03854,0
5960,-0.529794,0.446759,-2.02346,0
5980,-0.537607,0.449509,-2.01267,0
6000,-0.545932,0.452497,-2.0064,0
6020,-0.553675,0.45622,-2.0035,0
6040,-0.561482,0.461324,-2.00334,0
6060,-0.570033,0.466575,-2.00731,0
6080,-0.579337,0.471254,-2.01451,0
6100,-0.588523,0.47568,-2.02441,0
6120,-0.597166,0.479956,-2.03723,0
6140,-0.604816,0.483571,-2.05317,0
6160,-0.612174,0.486055,-2.07161,0
6180,-0.618401,0.487356,-2.09178,0
6200,-0.625947,0.48925,-2.11384,0
6220,-0.633509,0.492579,-2.13794,0
6240,-0.63985,0.496222,-2.16283,0
6260,-0.644314,0.499108,-2.18892,0
6280,-0.648992,0.501885,-2.2168,0
6300,-0.65628,0.505303,-2.24655,0
6320,-0.664997,0.509538,-2.27741,0
6340,-0.673579,0.514361,-2.30813,0
6360,-0.680964,0.519455,-2.33759,0
6380,-0.686634,0.524117,-2.36671,0
6400,-0.690718,0.52792,-2.3955,0
6420,-0.694629,0.531981,-2.42294,0
6440,-0.698425,0.535576,-2.44877,0
6460,-0.700227,0.538658,-2.47298,0
6480,-0.700563,0.541103,-2.49574,0
6500,-0.70134,0.543086,-2.51686,0
6520,-0.703218,0.545314,-2.53623,0
6540,-0.706402,0.5481,-2.55391,0
6560,-0.709481,0.55146,-2.57015,0
6580,-0.710253,0.555215,-2.58381,0
6600,-0.708853,0.560377,-2.59453,0
6620,-0.706952,0.56685,-2.60273,0
6640,-0.706673,0.57388,-2.60956,0
6660,-0.708227,0.581668,-2.61497,0
6680,-0.709561,0.590001,-2.61886,0
6720,-0.706825,0.601719,-2.61884,0
6740,-0.708736,0.598027,-2.61697,0
6760,-0.705952,0.592978,-2.61434,0
6780,-0.697001,0.589198,-2.61163,0
6800,-0.68652,0.586801,-2.60946,0
6810,-0.680104,0.584641,-2.6089,0
6830,-0.678623,0.583305,-2.60957,0
6850,-0.678146,0.582273,-2.61061,0
6880,-0.667229,0.577611,-2.61095,0
6900,-0.658512,0.575175,-2.61047,0
6920,-0.650426,0.572846,-2.61029,0
6940,-0.643453,0.569919,-2.61065,0
6960,-0.636793,0.567002,-2.61169,0
6980,-0.628242,0.563728,-2.6129,0
7000,-0.618348,0.560554,-2.61444,0
7020,-0.607443,0.557462,-2.61569,0
7040,-0.595916,0.554014,-2.61764,0
7060,-0.585026,0.551511,-2.62114,0
7080,-0.574345,0.549472,-2.62519,0
7100,-0.563096,0.547422,-2.62965,0
7120,-0.550788,0.546006,-2.63411,0
7140,-0.539007,0.545727,-2.63985,0
7160,-0.528574,0.546397,-2.64718,0
7180,-0.515894,0.546793,-2.65578,0
7200,-0.502417,0.548248,-2.66492,0
7220,-0.49045,0.551147,-2.67547,0
7240,-0.479273,0.553866,-2.68809,0
7260,-0.468374,0.555264,-2.70127,0
7280,-0.457178,0.557501,-2.71554,0
7300,-0.445821,0.561835,-2.72989,0
7320,-0.435678,0.567993,-2.74417,0
7340,-0.427412,0.574828,-2.75822,0
7360,-0.42087,0.580645,-2.77254,0
7380,-0.413408,0.585215,-2.78547,0
7400,-0.405689,0.588856,-2.79667,0
7420,-0.399432,0.591992,-2.80639,0
7440,-0.395681,0.595246,-2.81576,0
7460,-0.394968,0.596352,-2.82423,0
7480,-0.395757,0.595852,-2.83168,0
7500,-0.396309,0.593155,-2.83797,0
7520,-0.396057,0.588431,-2.84419,0
7540,-0.397611,0.583721,-2.85264,0
7550,-0.402431,0.578497,-2.86197,0
7570,-0.409681,0.571384,-2.87203,0
7590,-0.417056,0.561571,-2.88325,0
7610,-0.425207,0.549931,-2.89593,0
7630,-0.435828,0.538907,-2.91027,0
7650,-0.44985,0.527589,-2.92668,0
7670,-0.46574,0.514836,-2.94446,0
7690,-0.480212,0.500863,-2.96321,0
7710,-0.49259,0.485042,-2.98353,0
7730,-0.503951,0.467121,-3.0052,0
7750,-0.514938,0.448514,-3.02802,0
7770,-0.526571,0.429068,-3.05201,0
7790,-0.535349,0.408147,-3.07679,0
7810,-0.541592,0.385945,-3.10162,0
7830,-0.547391,0.362095,-3.1254,0
7850,-0.554248,0.337433,3.13402,0
7870,-0.559469,0.313137,3.10991,0
7890,-0.563275,0.289681,3.08598,0
7910,-0.567096,0.266399,3.0634,0
7930,-0.5714,0.243474,3.04233,0
7950,-0.576258,0.22077,3.0224,0
7970,-0.5819,0.197094,3.00404,0
7990,-0.588347,0.172733,2.98786,0
8010,-0.59384,0.149025,2.97285,0
8030,-0.597929,0.126414,2.9594,0
8050,-0.600492,0.104621,2.94892,0
8070,-0.600412,0.0838967,2.94132,0
8090,-0.597467,0.063977,2.9363,0
8110,-0.594796,0.04237,2.93458,0
8130,-0.593328,0.0187289,2.93575,0
8150,-0.593226,-0.00602384,2.9387,0
8170,-0.593352,-0.0314129,2.94337,0
8190,-0.595231,-0.0564702,2.95006,0
8210,-0.596819,-0.0812652,2.95789,0
8230,-0.596527,-0.105763,2.96559,0
8250,-0.596233,-0.127142,2.9746,0
8270,-0.597191,-0.146346,2.98445,0
8290,-0.598252,-0.16298,2.99393,0
8310,-0.600201,-0.17637,3.00415,0
8330,-0.602952,-0.188598,3.01466,0
8350,-0.606942,-0.200329,3.02579,0
8370,-0.612276,-0.212284,3.03692,0
8390,-0.618087,-0.225522,3.04729,0
8400,-0.627266,-0.238935,3.05676,0
8420,-0.639283,-0.25117,3.06568,0
8440,-0.652027,-0.262164,3.07406,0
8460,-0.666651,-0.273637,3.08328,0
8480,-0.68005,-0.283953,3.0928,0
8500,-0.688272,-0.286107,3.09978,0
8520,-0.694416,-0.294343,3.10792,0
8540,-0.704998,-0.312943,3.11756,0
8560,-0.717127,-0.335075,3.12596,0
8580,-0.728466,-0.356292,3.13222,0
8610,-0.735629,-0.371013,3.13543,0
8630,-0.740043,-0.369459,3.13685,0
8650,-0.746209,-0.361898,3.13998,0
8670,-0.750842,-0.383649,-3.13926,0
8690,-0.752793,-0.378088,-3.13801,0
8700,-0.756344,-0.38827,-3.13837,0
8730,-0.764485,-0.37715,-3.1395,0
8750,-0.767092,-0.392587,3.14049,0
8770,-0.771136,-0.38357,3.13871,0
8780,-0.773732,-0.366966,3.13782,0
8800,-0.770044,-0.365516,3.13442,0
8820,-0.762877,-0.373666,3.12873,0
8840,-0.753699,-0.385775,3.1219,0
8860,-0.74219,-0.398207,3.11555,0
8890,-0.726908,-0.409533,3.10842,0
8910,-0.714151,-0.415433,3.10296,0
8930,-0.709347,-0.424349,3.10419,0
8950,-0.704167,-0.419696,3.10568,0
8970,-0.703184,-0.41599,3.10971,0
8990,-0.703977,-0.412883,3.11327,0
9010,-0.709958,-0.409206,3.11752,0
9030,-0.713518,-0.405366,3.12188,0
9050,-0.715629,-0.402047,3.12693,0
9070,-0.719547,-0.401345,3.13212,0
9090,-0.723344,-0.404049,3.13671,0
9110,-0.726417,-0.40931,3.14068,0
9130,-0.729436,-0.414539,-3.13842,0
9150,-0.730733,-0.419465,-3.13426,0
9170,-0.730952,-0.423917,-3.13079,0
9190,-0.733205,-0.428732,-3.12722,0
9210,-0.736442,-0.434567,-3.12359,0
9230,-0.740595,-0.441416,-3.11999,0
9250,-0.744759,-0.449155,-3.11519,0
9270,-0.749018,-0.458178,-3.11021,0
9290,-0.749914,-0.468501,-3.10884,0
9310,-0.751881,-0.479486,-3.10749,0
9330,-0.753799,-0.492807,-3.10547,0
9350,-0.753866,-0.508247,-3.10255,0
9370,-0.751618,-0.525973,-3.09793,0
9390,-0.749111,-0.545613,-3.09246,0
9410,-0.750065,-0.565719,-3.08619,0
9430,-0.755612,-0.585485,-3.07885,0
9450,-0.763244,-0.605014,-3.06951,0
9470,-0.772766,-0.624003,-3.05907,0
9490,-0.781808,-0.643347,-3.04836,0
9510,-0.790047,-0.664171,-3.03702,0
9530,-0.800209,-0.6858,-3.02438,0
9550,-0.810701,-0.709001,-3.01089,0
9570,-0.820711,-0.733776,-2.99732,0
9590,-0.831338,-0.760131,-2.98089,0
9610,-0.845021,-0.789623,-2.96091,0
9630,-0.862087,-0.820259,-2.93853,0
9650,-0.88143,-0.851856,-2.91387,0
9670,-0.902709,-0.88409,-2.8864,0
9690,-0.929147,-0.915909,-2.85355,0
9710,-0.960997,-0.94967,-2.81652,0
9730,-0.997763,-0.984899,-2.77755,0
9750,-1.03535,-1.01901,-2.73945,0
9770,-1.07051,-1.05086,-2.70127,0
9790,-1.10336,-1.07906,-2.665,0
9810,-1.14055,-1.1043,-2.62737,0
9830,-1.17929,-1.12614,-2.58855,0
9850,-1.21679,-1.14516,-2.55151,0
9870,-1.25259,-1.16102,-2.51641,0
9890,-1.2893,-1.17481,-2.48298,0
9910,-1.32497,-1.18532,-2.4528,0
9930,-1.35995,-1.19315,-2.42443,0
9950,-1.39423,-1.19654,-2.39653,0
9970,-1.4296,-1.196,-2.36538,0
9990,-1.46058,-1.19331,-2.33605,0
10010,-1.48235,-1.19345,-2.31555,0
10030,-1.4955,-1.19817,-2.30748,0
10050,-1.51204,-1.19999,-2.29891,0
10070,-1.53753,-1.20117,-2.27693,0
10090,-1.57049,-1.20552,-2.24419,0
10110,-1.60745,-1.21254,-2.20791,0
10130,-1.64672,-1.22055,-2.17292,0
10140,-1.68206,-1.22343,-2.14466,0
10160,-1.70881,-1.22022,-2.1207,0
10180,-1.73563,-1.21393,-2.08626,0
10200,-1.76086,-1.20551,-2.05154,0
10220,-1.78429,-1.19872,-2.02518,0
10240,-1.79814,-1.19587,-2.01117,0
10260,-1.80028,-1.19471,-2.00671,0
10280,-1.78841,-1.19663,-2.01698,0
10300,-1.77463,-1.20201,-2.03046,0
10320,-1.76959,-1.2058,-2.02473,0
10340,-1.77867,-1.20763,-2.00301,0
10360,-1.80175,-1.21315,-1.97336,0
10380,-1.82922,-1.21993,-1.94512,0
10400,-1.8508,-1.22325,-1.92525,0
10420,-1.86881,-1.22133,-1.90557,0
10440,-1.8804,-1.2155,-1.89163,0
10460,-1.88995,-1.2103,-1.88225,0
10480,-1.89798,-1.2055,-1.87467,0
10500,-1.91396,-1.20691,-1.85809,0
10520,-1.93235,-1.21072,-1.84026,0
10540,-1.94156,-1.21022,-1.83357,0
10560,-1.94203,-1.20907,-1.83297,0
10580,-1.93726,-1.2096,-1.83727,0
10600,-1.92613,-1.20714,-1.84493,0
10620,-1.92132,-1.20487,-1.84534,0
10640,-1.91819,-1.20373,-1.84625,0
10660,-1.90958,-1.20374,-1.85324,0
10680,-1.89657,-1.20433,-1.8634,0
10700,-1.88001,-1.20272,-1.8734,0
10720,-1.86551,-1.20335,-1.88395,0
10740,-1.84187,-1.20435,-1.90541,0
10760,-1.80973,-1.20223,-1.93428,0
10780,-1.78451,-1.2039,-1.95521,0
10800,-1.76711,-1.205,-1.96967,0
10820,-1.75792,-1.20543,-1.97527,0
10840,-1.7439,-1.20521,-1.98779,0
10860,-1.72087,-1.20395,-2.00782,0
10880,-1.69681,-1.20187,-2.02883,0
10900,-1.67294,-1.20037,-2.05037,0
10920,-1.65123,-1.19818,-2.0712,0
10940,-1.63177,-1.1956,-2.09131,0
10960,-1.61686,-1.19427,-2.10793,0
10980,-1.60534,-1.19349,-2.12242,0
11000,-1.59164,-1.19166,-2.13859,0
11020,-1.57313,-1.18953,-2.15958,0
11040,-1.55293,-1.18677,-2.18214,0
11060,-1.53278,-1.1851,-2.2051,0
11080,-1.51732,-1.18337,-2.2233,0
11100,-1.5047,-1.18206,-2.23795,0
11120,-1.49422,-1.18218,-2.25053,0
11140,-1.48352,-1.18267,-2.26435,0
11160,-1.47206,-1.18318,-2.2776,0
11180,-1.45998,-1.1838,-2.29168,0
11200,-1.44815,-1.18477,-2.30581,0
11220,-1.43584,-1.18525,-2.31962,0
11240,-1.42504,-1.18598,-2.33075,0
11260,-1.41818,-1.18722,-2.33941,0
11280,-1.41284,-1.18917,-2.34631,0
11300,-1.40871,-1.1912,-2.35203,0
11320,-1.40321,-1.19237,-2.3581,0
11340,-1.39352,-1.19226,-2.36667,0
11360,-1.38222,-1.19053,-2.37602,0
11380,-1.37225,-1.18912,-2.3855,0
11400,-1.3685,-1.18651,-2.38913,0
11420,-1.36418,-1.18383,-2.39176,0
11440,-1.35925,-1.18236,-2.39248,0
11460,-1.35583,-1.18147,-2.39247,0
11480,-1.35156,-1.18177,-2.39369,0
11500,-1.34383,-1.1805,-2.39803,0
11520,-1.3355,-1.1785,-2.39992,0
11540,-1.32858,-1.17671,-2.39974,0
11560,-1.3256,-1.17727,-2.39759,0
11580,-1.32261,-1.17756,-2.39686,0
11600,-1.3175,-1.17725,-2.39686,0
11620,-1.31378,-1.17665,-2.39683,0
11640,-1.30997,-1.17593,-2.39894,0
11660,-1.30553,-1.17431,-2.40252,0
11680,-1.30315,-1.17126,-2.40412,0
11700,-1.30085,-1.16906,-2.40464,0
11720,-1.29984,-1.16683,-2.40603,0
11740,-1.29833,-1.1646,-2.40824,0
11760,-1.29463,-1.1626,-2.41407,0
11780,-1.28826,-1.16029,-2.42144,0
11800,-1.28124,-1.15782,-2.43029,0
11820,-1.27497,-1.15505,-2.43801,0
11840,-1.27014,-1.15049,-2.4462,0
11860,-1.26334,-1.14536,-2.45646,0
11880,-1.25033,-1.14004,-2.46883,0
11900,-1.23497,-1.13469,-2.48379,0
11920,-1.21907,-1.13126,-2.49897,0
11940,-1.20523,-1.1288,-2.51461,0
11960,-1.18582,-1.12803,-2.53574,0
11980,-1.15199,-1.12831,-2.56576,0
12000,-1.11164,-1.12789,-2.59991,0
12020,-1.06684,-1.12324,-2.64813,0
12040,-1.02448,-1.11377,-2.69324,0
12060,-0.990651,-1.10042,-2.73149,0
12080,-0.966114,-1.08531,-2.75521,0
12100,-0.949414,-1.06932,-2.77365,0
12120,-0.926611,-1.05569,-2.79729,0
12140,-0.913888,-1.04405,-2.80682,0
12160,-0.914451,-1.03118,-2.80229,0
12180,-0.913047,-1.02287,-2.80027,0
12200,-0.905286,-1.01733,-2.80447,0
12220,-0.896957,-1.01511,-2.8129,0
12240,-0.890909,-1.01363,-2.81813,0
12260,-0.882052,-1.01167,-2.82496,0
12280,-0.872329,-1.01094,-2.83221,0
12300,-0.857967,-1.01022,-2.84418,0
12320,-0.840785,-1.0116,-2.85601,0
12340,-0.831256,-1.01226,-2.86089,0
12360,-0.830959,-1.01328,-2.8573,0
12380,-0.83647,-1.01439,-2.84633,0
12400,-0.837391,-1.01597,-2.83959,0
12420,-0.831716,-1.01835,-2.84029,0
12440,-0.826067,-1.01864,-2.84549,0
12460,-0.819313,-1.01665,-2.84978,0
12480,-0.813541,-1.01559,-2.84803,0
12500,-0.806876,-1.01489,-2.84848,0
12520,-0.798307,-1.01334,-2.8528,0
12540,-0.794094,-1.01137,-2.85403,0
12560,-0.792367,-1.00847,-2.85293,0
12580,-0.787297,-1.00644,-2.85523,0
12600,-0.783596,-1.00512,-2.85725,0
12620,-0.781747,-1.00304,-2.85714,0
12640,-0.780115,-1.00205,-2.85717,0
12660,-0.779743,-1.00227,-2.85743,0
12680,-0.780089,-1.00202,-2.85797,0
12700,-0.780968,-1.00155,-2.85771,0
12720,-0.783191,-1.00158,-2.85675,0
12730,-0.785201,-1.00194,-2.85729,0
12750,-0.786112,-1.00206,-2.85929,0
12770,-0.786365,-1.00198,-2.86162,0
12790,-0.785866,-1.00188,-2.86418,0
12810,-0.786256,-1.00133,-2.86648,0
12830,-0.786713,-1.00096,-2.86815,0
12850,-0.787465,-1.00065,-2.86843,0
12870,-0.786751,-1.00074,-2.86877,0
12890,-0.784201,-1.00094,-2.87223,0
12910,-0.780651,-1.00084,-2.87616,0
12930,-0.776922,-1.00093,-2.87913,0
12950,-0.770963,-1.0018,-2.88296,0
12970,-0.766651,-1.00255,-2.8858,0
12990,-0.761881,-1.00303,-2.88994,0
13010,-0.7549,-1.00339,-2.89693,0
13030,-0.747572,-1.00389,-2.90475,0
13050,-0.740576,-1.00428,-2.91187,0
13070,-0.735348,-1.00678,-2.91706,0
13090,-0.728056,-1.00867,-2.92475,0
13110,-0.717347,-1.01082,-2.93558,0
13130,-0.70982,-1.01243,-2.94407,0
13150,-0.706253,-1.01577,-2.95191,0
13170,-0.704625,-1.02055,-2.96099,0
13190,-0.69842,-1.02539,-2.9729,0
13210,-0.689959,-1.03072,-2.98697,0
13230,-0.679025,-1.03549,-3.00376,0
13250,-0.666527,-1.03972,-3.02247,0
13270,-0.651957,-1.04556,-3.04279,0
13290,-0.639393,-1.05183,-3.06068,0
13310,-0.626613,-1.05746,-3.0782,0
13330,-0.614655,-1.06243,-3.09475,0
13350,-0.604536,-1.06729,-3.10848,0
13370,-0.593413,-1.07207,-3.12195,0
13390,-0.582241,-1.07638,-3.13534,0
13410,-0.572011,-1.07951,3.13694,0
13430,-0.56277,-1.08133,3.12946,0
13450,-0.554139,-1.0828,3.12309,0
13470,-0.547742,-1.08288,3.11882,0
13490,-0.542541,-1.08283,3.11662,0
13510,-0.541037,-1.08299,3.11897,0
13530,-0.541868,-1.08345,3.12417,0
13550,-0.547361,-1.0832,3.13293,0
13570,-0.557676,-1.08202,-3.1375,0
13590,-0.569895,-1.08099,-3.12225,0
13610,-0.584412,-1.0806,-3.10442,0
13630,-0.601753,-1.08156,-3.08293,0
13650,-0.621556,-1.08353,-3.05869,0
13670,-0.639259,-1.08541,-3.03636,0
13690,-0.65602,-1.08681,-3.01373,0
13710,-0.673396,-1.08828,-2.98834,0
13730,-0.692337,-1.09035,-2.9607,0
13750,-0.7084,-1.09268,-2.93532,0
13770,-0.721458,-1.09548,-2.91296,0
13790,-0.731263,-1.09855,-2.89311,0
13810,-0.740024,-1.10154,-2.8748,0
13830,-0.747994,-1.10471,-2.8573,0
13850,-0.756808,-1.10728,-2.83841,0
13870,-0.760671,-1.10924,-2.82396,0
13890,-0.758231,-1.11105,-2.81668,0
13910,-0.755821,-1.1108,-2.81079,0
13930,-0.754704,-1.10917,-2.80514,0
13950,-0.753191,-1.10666,-2.80046,0
13970,-0.751804,-1.10461,-2.79577,0
13990,-0.749758,-1.10354,-2.79143,0
14010,-0.748755,-1.10281,-2.78701,0
14030,-0.749353,-1.10189,-2.78211,0
14050,-0.751159,-1.10068,-2.7767,0
14070,-0.752195,-1.09978,-2.77262,0
14090,-0.752306,-1.09607,-2.7701,0
14110,-0.751119,-1.09168,-2.76921,0
14130,-0.751538,-1.08706,-2.76565,0
14150,-0.754883,-1.08447,-2.76006,0
14170,-0.759264,-1.08378,-2.75391,0
14190,-0.766134,-1.08471,-2.74698,0
14210,-0.773928,-1.08617,-2.73965,0
14230,-0.781497,-1.08847,-2.73286,0
14250,-0.788364,-1.09082,-2.72598,0
14270,-0.796356,-1.0928,-2.71818,0
14290,-0.803408,-1.09406,-2.71104,0
14310,-0.810978,-1.09555,-2.70324,0
14330,-0.8179,-1.09657,-2.69633,0
14350,-0.823156,-1.09797,-2.68987,0
14370,-0.828525,-1.10047,-2.68299,0
14390,-0.834406,-1.10368,-2.67673,0
14410,-0.840074,-1.10812,-2.67202,0
14430,-0.84664,-1.11237,-2.66669,0
14450,-0.854871,-1.11551,-2.65978,0
14470,-0.865222,-1.11847,-2.65184,0
14490,-0.87902,-1.12176,-2.64123,0
14510,-0.892799,-1.12469,-2.62972,0
14530,-0.902724,-1.12792,-2.62225,0
14550,-0.911489,-1.12974,-2.61416,0
14570,-0.92014,-1.13189,-2.60465,0
14590,-0.92549,-1.1353,-2.59954,0
14610,-0.927674,-1.13929,-2.59755,0
14630,-0.93051,-1.14178,-2.59378,0
14650,-0.933248,-1.14349,-2.58817,0
14670,-0.936106,-1.14414,-2.58278,0
14690,-0.940839,-1.14397,-2.57851,0
14710,-0.943991,-1.14242,-2.57603,0
14730,-0.947006,-1.14109,-2.57453,0
14750,-0.949533,-1.13985,-2.57414,0
14770,-0.951785,-1.13794,-2.57721,0
14790,-0.951537,-1.13642,-2.58388,0
14810,-0.948124,-1.13582,-2.5909,0
14830,-0.943938,-1.13697,-2.59964,0
14850,-0.943805,-1.13922,-2.60481,0
14870,-0.946592,-1.14216,-2.60741,0
14890,-0.94504,-1.14474,-2.61357,0
14910,-0.940154,-1.14674,-2.62339,0
14930,-0.936885,-1.15004,-2.63092,0
14950,-0.940343,-1.15352,-2.63356,0
14970,-0.946257,-1.15733,-2.63326,0
14990,-0.9466,-1.16306,-2.63848,0
15010,-0.943964,-1.16911,-2.64444,0
15030,-0.945031,-1.17463,-2.64946,0
15050,-0.950499,-1.17903,-2.64979,0
15070,-0.957502,-1.18264,-2.64648,0
15090,-0.964976,-1.18603,-2.64352,0
15110,-0.974064,-1.18931,-2.6416,0
15130,-0.980078,-1.19115,-2.64458,0
15150,-0.983606,-1.19163,-2.64659,0
15170,-0.985837,-1.19304,-2.64647,0
15190,-0.987233,-1.19647,-2.64609,0
15210,-0.991875,-1.20169,-2.64429,0
15230,-0.995772,-1.20648,-2.64599,0
15250,-1.00104,-1.20934,-2.64504,0
15270,-1.00836,-1.21229,-2.63749,0
15290,-1.01909,-1.21553,-2.6225,0
15310,-1.03156,-1.21764,-2.60977,0
15330,-1.03988,-1.21902,-2.6041,0
15340,-1.04041,-1.21882,-2.60258,0
15360,-1.03811,-1.21848,-2.60059,0
15380,-1.03811,-1.21769,-2.5954,0
15400,-1.03381,-1.21566,-2.5992,0
15420,-1.02325,-1.21736,-2.61082,0
15440,-1.01705,-1.22179,-2.61534,0
15460,-1.02329,-1.22683,-2.60625,0
15480,-1.0172,-1.22938,-2.61077,0
15500,-1.00967,-1.22812,-2.62315,0
15520,-0.996264,-1.22531,-2.63677,0
15540,-0.980102,-1.22318,-2.65062,0
15560,-0.966962,-1.22186,-2.66354,0
15580,-0.961234,-1.22196,-2.67264,0
15600,-0.957897,-1.22296,-2.6803,0
15620,-0.944713,-1.2241,-2.69509,0
15640,-0.928408,-1.22779,-2.7105,0
15660,-0.918173,-1.23085,-2.71937,0
15680,-0.906328,-1.23318,-2.73115,0
15700,-0.891716,-1.23673,-2.7477,0
15720,-0.886904,-1.24243,-2.75347,0
15740,-0.889737,-1.2486,-2.75128,0
15760,-0.887253,-1.25188,-2.75634,0
15780,-0.882798,-1.25249,-2.76244,0
15800,-0.882297,-1.25425,-2.76404,0
15820,-0.881082,-1.25499,-2.76524,0
15840,-0.875544,-1.25598,-2.77045,0
15860,-0.864586,-1.25687,-2.78193,0
15880,-0.853211,-1.25794,-2.79455,0
15900,-0.844877,-1.25949,-2.80114,0
15920,-0.850015,-1.26143,-2.79127,0
15940,-0.841519,-1.25968,-2.79456,0
15960,-0.820476,-1.25405,-2.81568,0
15980,-0.802206,-1.24819,-2.83354,0
16000,-0.793845,-1.24212,-2.84467,0
16020,-0.794105,-1.23591,-2.84771,0
16040,-0.788863,-1.22898,-2.85527,0
16060,-0.7718,-1.22211,-2.87212,0
16080,-0.762182,-1.21959,-2.88234,0
16100,-0.765769,-1.21905,-2.879,0
16120,-0.771048,-1.22019,-2.87201,0
16140,-0.777039,-1.2218,-2.86453,0
16160,-0.782829,-1.22275,-2.85813,0
16180,-0.786931,-1.22485,-2.85419,0
16200,-0.791141,-1.22672,-2.85014,0
16220,-0.798614,-1.22745,-2.84028,0
16240,-0.806782,-1.22575,-2.8267,0
16260,-0.807906,-1.22391,-2.82323,0
16280,-0.806506,-1.22122,-2.82397,0
16300,-0.811408,-1.21729,-2.8194,0
16320,-0.817332,-1.21307,-2.81284,0
16340,-0.827861,-1.20938,-2.80032,0
16360,-0.842288,-1.20442,-2.78419,0
16380,-0.854133,-1.20003,-2.77149,0
16400,-0.867955,-1.19676,-2.75594,0
16420,-0.879467,-1.19508,-2.74352,0
16440,-0.887406,-1.19551,-2.73474,0
16460,-0.892859,-1.19516,-2.72835,0
16480,-0.895953,-1.19327,-2.72467,0
16500,-0.895806,-1.19047,-2.72489,0
16520,-0.894436,-1.18806,-2.72525,0
16540,-0.893194,-1.18558,-2.72512,0
16560,-0.890722,-1.18179,-2.72679,0
16580,-0.887449,-1.17752,-2.72897,0
16600,-0.885797,-1.17328,-2.72996,0
16620,-0.882719,-1.16924,-2.73254,0
16640,-0.878291,-1.16596,-2.73642,0
16660,-0.87367,-1.16308,-2.7404,0
16680,-0.868176,-1.16107,-2.74668,0
16700,-0.861028,-1.15983,-2.75545,0
16720,-0.853533,-1.15941,-2.76441,0
16740,-0.847659,-1.15815,-2.77109,0
16760,-0.843168,-1.15621,-2.77631,0
16780,-0.838446,-1.15371,-2.7821,0
16800,-0.833574,-1.15136,-2.78843,0
16820,-0.82965,-1.14911,-2.79556,0
16840,-0.827255,-1.14693,-2.80205,0
16860,-0.823873,-1.14379,-2.80955,0
16880,-0.821976,-1.14064,-2.81698,0
16900,-0.820938,-1.13744,-2.82368,0
16920,-0.81847,-1.13371,-2.83266,0
16940,-0.813314,-1.13041,-2.84497,0
16960,-0.805889,-1.12662,-2.85968,0
16980,-0.794125,-1.12259,-2.87896,0
17000,-0.775878,-1.11791,-2.90425,0
17020,-0.753575,-1.11257,-2.93311,0
17040,-0.729069,-1.10524,-2.96383,0
17060,-0.704019,-1.09529,-2.99453,0
17080,-0.67748,-1.0829,-3.02789,0
17100,-0.649476,-1.06717,-3.06489,0
17120,-0.618522,-1.04659,-3.10372,0
17140,-0.589077,-1.02375,-3.13854,0
17160,-0.566361,-0.999383,3.11692,0
17180,-0.548724,-0.974143,3.09383,0
17200,-0.532782,-0.947303,3.07339,0
17220,-0.520466,-0.915657,3.05704,0
17240,-0.512611,-0.875583,3.045,0
17260,-0.507412,-0.830125,3.03781,0
17280,-0.501695,-0.78335,3.03347,0
17300,-0.497474,-0.737403,3.03211,0
17320,-0.497765,-0.69056,3.03325,0
17340,-0.499921,-0.641345,3.03397,0
17360,-0.50291,-0.590985,3.03397,0
17380,-0.511663,-0.540267,3.03771,0
17400,-0.523483,-0.48986,3.04423,0
17420,-0.535218,-0.440635,3.04957,0
17440,-0.543429,-0.393834,3.0535,0
17460,-0.551955,-0.348794,3.05744,0
17480,-0.563992,-0.303768,3.06292,0
17500,-0.57756,-0.258748,3.06729,0
17520,-0.59213,-0.216084,3.0697,0
17540,-0.601099,-0.174878,3.06964,0
17560,-0.608417,-0.132429,3.06983,0
17580,-0.616805,-0.0884628,3.0732,0
17600,-0.628785,-0.0456248,3.07988,0
17620,-0.642898,-0.0069737,3.08704,0
17640,-0.655586,0.0296655,3.09191,0
17660,-0.667764,0.0662462,3.09481,0
17680,-0.677608,0.104686,3.10014,0
17700,-0.693414,0.146021,3.1084,0
17720,-0.713011,0.186715,3.11673,0
17740,-0.730577,0.22428,3.12109,0
17760,-0.749551,0.261659,3.12342,0
17780,-0.769737,0.30292,3.12785,0
17800,-0.782948,0.347993,3.13178,0
17820,-0.792413,0.393913,3.1344,0
17840,-0.803111,0.441642,3.13363,0
17860,-0.813772,0.494233,3.13186,0
17880,-0.838378,0.547529,3.13162,0
17900,-0.885309,0.571978,3.13402,0
17920,-0.939666,0.561729,3.14057,0
17930,-0.963186,0.541381,-3.13264,0
17950,-0.951253,0.526486,-3.12556,0
17970,-0.90856,0.525885,-3.12072,0
17990,-0.870605,0.531448,-3.12474,0
18010,-0.847307,0.545666,-3.12573,0
18030,-0.850257,0.553411,-3.12794,0
18050,-0.87106,0.555327,-3.13146,0
18070,-0.889355,0.555209,-3.13265,0
18090,-0.899687,0.555772,-3.13361,0
18110,-0.902396,0.557819,-3.13424,0
18130,-0.902569,0.560729,-3.13441,0
18150,-0.904755,0.563179,-3.13496,0
18170,-0.907289,0.564208,-3.13591,0
18190,-0.905145,0.564962,-3.13692,0
18210,-0.897114,0.566182,-3.13787,0
18230,-0.887122,0.567996,-3.1385,0
18250,-0.879687,0.570118,-3.13863,0
18270,-0.87641,0.572529,-3.1388,0
18290,-0.876575,0.574787,-3.13917,0
18310,-0.876945,0.576304,-3.13932,0
18330,-0.874847,0.577227,-3.13941,0
18350,-0.870801,0.57794,-3.13968,0
18370,-0.867064,0.578686,-3.13906,0
18390,-0.865683,0.579561,-3.13919,0
18410,-0.864997,0.580991,-3.13988,0
18430,-0.865004,0.582575,-3.14102,0
18450,-0.864946,0.584485,3.14086,0
18470,-0.864696,0.586439,3.13972,0
18490,-0.86455,0.588343,3.13873,0
18510,-0.864841,0.590074,3.13813,0
18530,-0.864627,0.592158,3.13752,0
18550,-0.864544,0.593826,3.1372,0
18570,-0.864381,0.595092,3.13695,0
18590,-0.864253,0.595816,3.13639,0
18610,-0.864244,0.596668,3.13583,0
18630,-0.865196,0.597793,3.1352,0
18650,-0.865838,0.598851,3.13489,0
18670,-0.86632,0.600298,3.13451,0
18690,-0.866347,0.60192,3.13433,0
18710,-0.866258,0.602306,3.1343,0
18730,-0.866292,0.602582,3.13429,0
18750,-0.866391,0.602839,3.13417,0
18770,-0.8666,0.603133,3.13413,0
18790,-0.866449,0.604156,3.13367,0
18810,-0.865905,0.605334,3.13331,0
18830,-0.865606,0.606528,3.13297,0
18850,-0.865138,0.607468,3.13269,0
18870,-0.864547,0.60852,3.13239,0
18890,-0.864138,0.60937,3.13225,0
18910,-0.863865,0.610208,3.13227,0
18930,-0.863381,0.610988,3.13231,0
18950,-0.863455,0.611306,3.13232,0
18970,-0.86344,0.611453,3.13237,0
18990,-0.86356,0.612384,3.13249,0
19010,-0.863545,0.612531,3.13254,0
19030,-0.862789,0.613358,3.1327,0
19050,-0.862091,0.614091,3.133,0
19070,-0.862154,0.614309,3.13286,0
19090,-0.862178,0.614497,3.13293,0
19110,-0.861693,0.615278,3.13297,0
19130,-0.860994,0.616012,3.13326,0
19150,-0.860485,0.616617,3.13347,0
19170,-0.860548,0.616835,3.13333,0
19190,-0.860623,0.617154,3.13334,0
19210,-0.860635,0.617242,3.13326,0
19230,-0.86024,0.618195,3.13327,0
19250,-0.859879,0.618865,3.13333,0
19270,-0.859916,0.619143,3.13332,0
19290,-0.860284,0.619853,3.13348,0
19310,-0.860269,0.620001,3.13353,0
19330,-0.859977,0.620679,3.13387,0
19350,-0.860028,0.620809,3.13382,0
19370,-0.860013,0.620956,3.13387,0
19390,-0.860693,0.621663,3.13392,0
19410,-0.861108,0.622179,3.13406,0
19430,-0.861335,0.622328,3.13396,0
19450,-0.860909,0.622781,3.13416,0
19470,-0.860961,0.622911,3.1341,0
19490,-0.860998,0.623189,3.13409,0
19510,-0.860832,0.623507,3.13425,0
19530,-0.861247,0.623763,3.13403,0
19550,-0.860556,0.623764,3.13396,0
19570,-0.859279,0.624053,3.13408,0
19590,-0.858451,0.624079,3.13407,0
19610,-0.857393,0.62418,3.13398,0
19630,-0.85624,0.624359,3.13412,0
19650,-0.85555,0.624362,3.13405,0
19670,-0.855073,0.624685,3.13432,0
19690,-0.855124,0.624815,3.13426,0
19710,-0.854798,0.624967,3.13441,0
19730,-0.85459,0.625233,3.1344,0
19750,-0.854033,0.625461,3.13447,0
19770,-0.854018,0.625609,3.13452,0
19790,-0.854069,0.625739,3.13446,0
19810,-0.854041,0.625798,3.13459,0
19830,-0.854106,0.626017,3.13445,0
19850,-0.853452,0.626298,3.13437,0
19870,-0.853528,0.626619,3.13438,0
19890,-0.853174,0.62683,3.13467,0
19910,-0.852101,0.627081,3.13462,0
19930,-0.850571,0.62726,3.1346,0
19950,-0.850515,0.627355,3.13447,0
19970,-0.850942,0.6277,3.13417,0
19990,-0.851629,0.627908,3.13382,0
20010,-0.851856,0.628058,3.13372,0
20030,-0.851314,0.62814,3.13374,0
20050,-0.850355,0.628178,3.13356,0
20070,-0.85042,0.628375,3.13303,0
20090,-0.851137,0.628289,3.13258,0
20110,-0.851576,0.627923,3.13229,0
20130,-0.850954,0.627911,3.13211,0
20150,-0.84978,0.627903,3.13219,0
20170,-0.84905,0.62788,3.13233,0
20190,-0.848688,0.627754,3.13249,0
20210,-0.848823,0.62773,3.13243,0
20230,-0.848914,0.627926,3.13278,0
20250,-0.848711,0.627966,3.13295,0
20270,-0.847994,0.628052,3.1334,0
20290,-0.847292,0.627991,3.1338,0
20310,-0.846614,0.628119,3.13427,0
20330,-0.846208,0.628199,3.13462,0
20350,-0.846716,0.628424,3.13493,0
20370,-0.84723,0.6284,3.13504,0
20390,-0.846862,0.628523,3.13541,0
20410,-0.845727,0.628579,3.1359,0
20430,-0.845062,0.628795,3.13629,0
20450,-0.844519,0.628899,3.1367,0
20470,-0.844542,0.629088,3.13677,0
20490,-0.844542,0.629088,3.13677,0
20510,-0.84408,0.629264,3.13699,0
20530,-0.843217,0.629271,3.13735,0
20540,-0.843414,0.62948,3.13738,0
20560,-0.843466,0.629611,3.13732,0
20580,-0.843427,0.629568,3.1373,0
20600,-0.843478,0.629699,3.13724,0
20620,-0.843529,0.62983,3.13718,0
20640,-0.843462,0.629846,3.13729,0
20660,-0.843513,0.629977,3.13724,0
20680,-0.843688,0.629996,3.13719,0
20700,-0.84374,0.630127,3.13713,0
20720,-0.843752,0.630216,3.13706,0
20740,-0.843854,0.630499,3.13733,0
20760,-0.843906,0.63063,3.13727,0
20780,-0.843918,0.630718,3.13719,0
20800,-0.843941,0.630908,3.13726,0
20820,-0.843534,0.630988,3.13761,0
20840,-0.842963,0.63115,3.13815,0
20860,-0.842747,0.631102,3.1384,0
20880,-0.842922,0.631121,3.13836,0
20900,-0.842435,0.631128,3.1389,0
20920,-0.839068,0.630748,3.14005,0
20940,-0.834118,0.630902,3.14142,0
20960,-0.830591,0.631037,-3.14124,0
20980,-0.828916,0.630839,-3.14086,0
21000,-0.828073,0.630146,-3.14027,0
21020,-0.827655,0.629781,-3.14036,0
21040,-0.827624,0.62912,-3.1415,0
21060,-0.827568,0.628853,3.14082,0
21080,-0.82759,0.629042,3.14089,0
21100,-0.827058,0.629797,3.14117,0
21120,-0.82712,0.630018,3.14103,0
21140,-0.82861,0.631007,3.14084,0
21160,-0.830919,0.631065,3.14059,0
21180,-0.83309,0.630813,3.14027,0
21200,-0.833213,0.6307,3.14028,0
21220,-0.832286,0.630697,3.14021,0
21240,-0.830634,0.630677,3.14043,0
21260,-0.830099,0.631097,3.14058,0
21280,-0.830111,0.631185,3.14051,0
21300,-0.831112,0.631491,3.14021,0
21320,-0.831966,0.631738,3.14021,0
21340,-0.832753,0.631994,3.14016,0
21360,-0.832939,0.632101,3.14004,0
21380,-0.832939,0.632101,3.14004,0
21400,-0.83299,0.632233,3.13998,0
21420,-0.832973,0.632379,3.14004,0
21440,-0.832973,0.632379,3.14004,0
21460,-0.833024,0.632511,3.13998,0
21480,-0.833075,0.632642,3.13992,0
21500,-0.832353,0.63239,3.14025,0
21520,-0.831194,0.632484,3.14048,0
21540,-0.830225,0.632457,3.14077,0
21560,-0.830247,0.632646,3.14085,0
21580,-0.830411,0.632564,3.14065,0
21600,-0.830411,0.632564,3.14065,0
21620,-0.830029,0.632814,3.14069,0
21640,-0.829378,0.633099,3.14061,0
21660,-0.829552,0.633118,3.14057,0
21680,-0.829603,0.63325,3.14051,0
21700,-0.829564,0.633207,3.14049,0
21720,-0.829789,0.633358,3.14039,0
21740,-0.829488,0.633469,3.14081,0
21760,-0.829539,0.633601,3.14075,0
21780,-0.829765,0.633752,3.14065,0
21800,-0.829128,0.633909,3.14092,0
21820,-0.828687,0.633709,3.14127,0
21840,-0.827987,0.633645,-3.14151,0
21860,-0.827288,0.633582,-3.14111,0
21880,-0.827004,0.633547,-3.14075,0
21900,-0.826822,0.633222,-3.14021,0
21920,-0.826226,0.632855,-3.13987,0
21940,-0.825197,0.632607,-3.13944,0
21960,-0.823954,0.632308,-3.13876,0
21980,-0.823256,0.632244,-3.13836,0
22000,-0.822933,0.632177,-3.13779,0
22020,-0.822716,0.632144,-3.13715,0
22040,-0.822281,0.632279,-3.13667,0
22060,-0.821739,0.63238,-3.13625,0
22080,-0.821913,0.632399,-3.1363,0
22100,-0.821924,0.632488,-3.13637,0
22120,-0.822398,0.632749,-3.13632,0
22140,-0.822998,0.632886,-3.13647,0
22160,-0.823048,0.633018,-3.13653,0
22180,-0.823019,0.633076,-3.13639,0
22200,-0.82303,0.633164,-3.13647,0
22220,-0.822367,0.633361,-3.13646,0
22240,-0.821957,0.633651,-3.13669,0
22260,-0.82102,0.633564,-3.13652,0
22280,-0.82102,0.633564,-3.13652,0
22300,-0.821194,0.633583,-3.13657,0
22320,-0.821224,0.633526,-3.1367,0
22340,-0.821224,0.633526,-3.1367,0
22360,-0.820865,0.633399,-3.13654,0
22380,-0.820635,0.633478,-3.13662,0
22400,-0.820646,0.633567,-3.1367,0
22420,-0.820666,0.633756,-3.13662,0
22440,-0.820666,0.633756,-3.13662,0
22460,-0.820851,0.633864,-3.13674,0
22480,-0.820463,0.633795,-3.13645,0
22500,-0.820383,0.63372,-3.13626,0
22520,-0.820404,0.63391,-3.13618,0
22540,-0.820404,0.63391,-3.13618,0
22560,-0.820454,0.634041,-3.13624,0
22580,-0.820415,0.633998,-3.13626,0
22600,-0.819973,0.634363,-3.13596,0
22620,-0.81966,0.634384,-3.13546,0
22640,-0.81966,0.634384,-3.13546,0
22660,-0.819525,0.634408,-3.1354,0
22680,-0.819272,0.634314,-3.13517,0
22700,-0.819272,0.634314,-3.13517,0
22720,-0.819058,0.634264,-3.13492,0
22740,-0.818823,0.634024,-3.13474,0
22760,-0.818793,0.634081,-3.13461,0
22780,-0.818714,0.634007,-3.13442,0
22800,-0.818764,0.634139,-3.13448,0
22820,-0.818511,0.634045,-3.13424,0
22840,-0.818191,0.63396,-3.13406,0
22860,-0.817539,0.633707,-3.13346,0
22880,-0.817027,0.63375,-3.13318,0
22900,-0.816988,0.633707,-3.1332,0
22920,-0.817257,0.633671,-3.13309,0
22940,-0.817223,0.633409,-3.1327,0
22960,-0.816786,0.633207,-3.13235,0
22980,-0.816487,0.633311,-3.1321,0
23000,-0.815926,0.633222,-3.13176,0
23020,-0.815739,0.63313,-3.13125,0
23040,-0.815969,0.633051,-3.13116,0
23060,-0.815677,0.632925,-3.13072,0
23080,-0.81526,0.632912,-3.1303,0
23100,-0.814748,0.632954,-3.13002,0
23120,-0.814814,0.632956,-3.12974,0
23130,-0.814755,0.63307,-3.12948,0
23150,-0.814329,0.632956,-3.1292,0
23170,-0.814011,0.632871,-3.12902,0
23190,-0.813604,0.632611,-3.1288,0
23210,-0.813575,0.632668,-3.12867,0
23230,-0.813624,0.6328,-3.12873,0
23250,-0.813759,0.632777,-3.12879,0
23270,-0.81345,0.632781,-3.12868,0
23290,-0.813208,0.632787,-3.1283,0
23310,-0.813687,0.632819,-3.12806,0
23330,-0.814321,0.633017,-3.1278,0
23350,-0.814495,0.633036,-3.12784,0
23370,-0.814108,0.633301,-3.12741,0
23390,-0.813334,0.633159,-3.12683,0
23410,-0.812744,0.633125,-3.12636,0
23430,-0.812761,0.632995,-3.12602,0
23450,-0.812962,0.632974,-3.12581,0
23470,-0.813009,0.632787,-3.1256,0
23490,-0.812873,0.632491,-3.12529,0
23510,-0.812507,0.632273,-3.12505,0
23530,-0.811774,0.632163,-3.12467,0
23550,-0.811696,0.632088,-3.12448,0
23570,-0.812041,0.632144,-3.12417,0
23590,-0.81209,0.632276,-3.12423,0
23610,-0.81153,0.632184,-3.12389,0
23630,-0.811462,0.632209,-3.12356,0
23650,-0.811336,0.632003,-3.12331,0
23670,-0.811384,0.631816,-3.12311,0
23690,-0.811566,0.631925,-3.12323,0
23710,-0.811566,0.631925,-3.12323,0
23730,-0.811585,0.632114,-3.12315,0
23750,-0.811439,0.632053,-3.12285,0
23770,-0.811255,0.63228,-3.12259,0
23790,-0.811235,0.632437,-3.12232,0
23810,-0.810993,0.632432,-3.12215,0
23830,-0.810877,0.632325,-3.12176,0
23850,-0.810617,0.632141,-3.12145,0
23870,-0.810212,0.63188,-3.12124,0
23890,-0.809818,0.631718,-3.12087,0
23910,-0.809335,0.631718,-3.12033,0
23930,-0.809681,0.631774,-3.12002,0
23950,-0.809958,0.631845,-3.1196,0
23970,-0.810823,0.631952,-3.11965,0
23990,-0.811392,0.631842,-3.11919,0
24010,-0.811352,0.6318,-3.11921,0
24030,-0.810955,0.632293,-3.11897,0
24050,-0.810955,0.632293,-3.11897,0
24070,-0.811174,0.632798,-3.11854,0
24090,-0.811355,0.632924,-3.11826,0
24110,-0.811036,0.632855,-3.11769,0
24130,-0.810938,0.632927,-3.11744,0
24150,-0.810868,0.633288,-3.11697,0
24170,-0.811176,0.633303,-3.11668,0
24190,-0.811646,0.633586,-3.11623,0
24210,-0.811819,0.633624,-3.11588,0
24230,-0.811432,0.633569,-3.1152,0
24250,-0.81173,0.633814,-3.11509,0
24270,-0.811834,0.633867,-3.11463,0
24290,-0.811834,0.633867,-3.11463,0
24310,-0.811651,0.633757,-3.11451,0
24330,-0.810928,0.633744,-3.11398,0
24350,-0.810946,0.633933,-3.1139,0
24370,-0.810906,0.63389,-3.11392,0
24390,-0.810906,0.63389,-3.11392,0
24410,-0.810772,0.633913,-3.11386,0
24430,-0.810309,0.633765,-3.11338,0
24450,-0.810357,0.633897,-3.11343,0
24470,-0.810357,0.633897,-3.11343,0
24490,-0.810203,0.633748,-3.11305,0
24510,-0.810251,0.63388,-3.11311,0
24530,-0.809717,0.634065,-3.11277,0
24550,-0.808867,0.634162,-3.11225,0
24570,-0.808249,0.634183,-3.11164,0
24590,-0.807979,0.634244,-3.11113,0
24610,-0.807977,0.634262,-3.11074,0
24630,-0.807795,0.63417,-3.11023,0
24650,-0.807283,0.634207,-3.10994,0
24670,-0.806577,0.634382,-3.10934,0
24690,-0.806343,0.634493,-3.10863,0
24710,-0.805156,0.634647,-3.10788,0
24730,-0.803393,0.634499,-3.10725,0
24750,-0.801316,0.634236,-3.10706,0
24770,-0.80078,0.633995,-3.10678,0
24790,-0.797868,0.632805,-3.10463,0
24810,-0.785492,0.630259,-3.10087,0
24830,-0.764468,0.626198,-3.09787,0
24850,-0.721984,0.615189,-3.08924,0
24870,-0.676893,0.599126,-3.08207,0
24890,-0.639905,0.584196,-3.07552,0
24910,-0.617772,0.560979,-3.07612,0
24930,-0.590123,0.527462,-3.08126,0
24950,-0.556357,0.488583,-3.08529,0
24970,-0.528475,0.443338,-3.08564,0
24990,-0.509898,0.392122,-3.08611,0
25010,-0.499421,0.335784,-3.08848,0
25030,-0.4912,0.276897,-3.09262,0
25050,-0.479682,0.218112,-3.0988,0
25070,-0.470918,0.161983,-3.10446,0
25090,-0.466707,0.104308,-3.10521,0
25110,-0.463765,0.0446801,-3.10697,0
25130,-0.4628,-0.0144883,-3.10833,0
25150,-0.460703,-0.0720071,-3.10688,0
25170,-0.462352,-0.126899,-3.10426,0
25180,-0.463624,-0.180455,-3.1024,0
25180,-0.463781,-0.234541,-3.09896,0
25200,-0.466066,-0.28661,-3.09352,0
25200,-0.470713,-0.335764,-3.08922,0
25220,-0.472515,-0.386079,-3.0851,0
25240,-0.476502,-0.438458,-3.07678,0
25240,-0.4815,-0.491052,-3.06718,0
25260,-0.486156,-0.543106,-3.05776,0
25300,-0.494238,-0.592821,-3.04723,0
25360,-0.507568,-0.641088,-3.03333,0
25390,-0.518813,-0.689862,-3.01839,0
25410,-0.530716,-0.737495,-3.00133,0
25430,-0.543871,-0.784401,-2.9823,0
25450,-0.564101,-0.82729,-2.95944,0
25470,-0.584928,-0.868368,-2.9358,0
25490,-0.603217,-0.908413,-2.91335,0
25510,-0.62531,-0.947014,-2.88641,0
25530,-0.654864,-0.98208,-2.85282,0
25550,-0.688752,-1.01277,-2.81517,0
25570,-0.724313,-1.04317,-2.77604,0
25590,-0.761622,-1.07128,-2.73372,0
25610,-0.804161,-1.09334,-2.68542,0
25630,-0.8456,-1.1119,-2.6379,0
25650,-0.881312,-1.12744,-2.59279,0
25670,-0.914111,-1.14033,-2.54584,0
25690,-0.945828,-1.15189,-2.5014,0
25710,-0.972385,-1.16395,-2.46431,0
25730,-0.998409,-1.17436,-2.43115,0
25740,-1.02284,-1.18236,-2.40327,0
25760,-1.03962,-1.18835,-2.38287,0
25780,-1.05114,-1.19225,-2.36776,0
25800,-1.05584,-1.19634,-2.35978,0
25820,-1.05938,-1.20024,-2.35397,0
25840,-1.06815,-1.20051,-2.34188,0
25860,-1.07707,-1.20187,-2.33236,0
25880,-1.0846,-1.20526,-2.32534,0
25900,-1.09877,-1.20929,-2.31652,0
25920,-1.1172,-1.2135,-2.30496,0
25940,-1.12898,-1.21897,-2.29858,0
25960,-1.14257,-1.23256,-2.28943,0
25980,-1.15321,-1.2468,-2.28275,0
26000,-1.16131,-1.25768,-2.2788,0
26020,-1.16258,-1.26499,-2.27851,0
26040,-1.15845,-1.27046,-2.28212,0
26060,-1.14892,-1.27341,-2.29213,0
26080,-1.14193,-1.27474,-2.30127,0
26100,-1.14345,-1.27613,-2.30054,0
26120,-1.15277,-1.2765,-2.28878,0
26140,-1.17279,-1.27788,-2.26883,0
26160,-1.1936,-1.27888,-2.25033,0
26180,-1.20999,-1.27874,-2.23618,0
26200,-1.2182,-1.27888,-2.22958,0
26220,-1.22073,-1.28013,-2.23019,0
26240,-1.21851,-1.28136,-2.23753,0
26260,-1.21626,-1.28335,-2.24831,0
26280,-1.20923,-1.28467,-2.26423,0
26300,-1.19842,-1.28604,-2.28209,0
26320,-1.19134,-1.28854,-2.29497,0
26340,-1.18382,-1.29292,-2.30935,0
26360,-1.18153,-1.29717,-2.31893,0
26380,-1.19052,-1.30082,-2.31404,0
26400,-1.20415,-1.3044,-2.30242,0
26420,-1.21915,-1.3088,-2.28857,0
26440,-1.24209,-1.31271,-2.26562,0
26460,-1.26741,-1.3156,-2.23964,0
26480,-1.2944,-1.3183,-2.21163,0
26500,-1.31893,-1.32175,-2.18651,0
26520,-1.33435,-1.32744,-2.16898,0
26540,-1.34524,-1.3311,-2.15319,0
26560,-1.35279,-1.33532,-2.13944,0
26580,-1.3564,-1.3407,-2.13143,0
26600,-1.35622,-1.34496,-2.12837,0
26620,-1.35277,-1.34641,-2.12731,0
26640,-1.35147,-1.34591,-2.12225,0
26660,-1.35362,-1.34441,-2.11392,0
26680,-1.35841,-1.34188,-2.10512,0
26700,-1.37251,-1.33886,-2.0886,0
26720,-1.38897,-1.33679,-2.07111,0
26740,-1.40573,-1.33441,-2.05323,0
26760,-1.42583,-1.33273,-2.03392,0
26780,-1.44757,-1.33088,-2.01294,0
26800,-1.47198,-1.32958,-1.9909,0
26820,-1.49441,-1.32755,-1.97177,0
26840,-1.51321,-1.32527,-1.95561,0
26860,-1.53039,-1.32383,-1.94088,0
26880,-1.54711,-1.32343,-1.92736,0
26900,-1.56618,-1.32345,-1.91388,0
26920,-1.5858,-1.32214,-1.89927,0
26940,-1.60581,-1.32033,-1.88296,0
26960,-1.62536,-1.32082,-1.86771,0
26980,-1.64414,-1.32083,-1.8526,0
27000,-1.66092,-1.32037,-1.84056,0
27020,-1.6741,-1.32084,-1.83175,0
27040,-1.68842,-1.32259,-1.82105,0
27060,-1.70785,-1.32572,-1.80608,0
27080,-1.72867,-1.32809,-1.78872,0
27100,-1.74467,-1.33172,-1.77727,0
27120,-1.76285,-1.33501,-1.76285,0
27140,-1.78606,-1.33868,-1.74428,0
27160,-1.81071,-1.34103,-1.72235,0
27180,-1.83964,-1.34366,-1.69702,0
27200,-1.87091,-1.34559,-1.66835,0
27220,-1.90049,-1.34755,-1.64137,0
27240,-1.92472,-1.34971,-1.6194,0
27260,-1.94405,-1.35174,-1.60257,0
27280,-1.95862,-1.35365,-1.58961,0
27300,-1.96926,-1.35528,-1.58028,0
27320,-1.97787,-1.35698,-1.5724,0
27340,-1.98265,-1.35866,-1.56831,0
27360,-1.98285,-1.35952,-1.56808,0
27380,-1.97887,-1.36084,-1.57308,0
27400,-1.97223,-1.36117,-1.57918,0
27420,-1.96812,-1.36175,-1.5837,0
27440,-1.96911,-1.36186,-1.58291,0
27460,-1.9737,-1.36166,-1.57839,0
27480,-1.98587,-1.36158,-1.567,0
27500,-1.99998,-1.36039,-1.55333,0
27520,-2.01505,-1.35923,-1.53777,0
27540,-2.03873,-1.35978,-1.51425,0
27560,-2.06423,-1.35972,-1.49054,0
27580,-2.08723,-1.3589,-1.4698,0
27600,-2.10039,-1.35694,-1.45659,0
27620,-2.09942,-1.35545,-1.45511,0
27640,-2.08516,-1.35552,-1.46758,0
27660,-2.05908,-1.35658,-1.49278,0
27680,-2.02419,-1.35855,-1.52708,0
27700,-1.97913,-1.36021,-1.5703,0
27720,-1.92674,-1.36234,-1.61952,0
27740,-1.86321,-1.36389,-1.68028,0
27760,-1.78116,-1.36286,-1.76034,0
27780,-1.67627,-1.35847,-1.86247,0
27800,-1.54496,-1.34934,-1.98903,0
27820,-1.39918,-1.33391,-2.12736,0
27840,-1.24729,-1.31033,-2.26997,0
27860,-1.10319,-1.27842,-2.40475,0
27880,-0.981338,-1.23748,-2.51682,0
27900,-0.877341,-1.18791,-2.60754,0
27920,-0.790149,-1.12873,-2.68018,0
27940,-0.717384,-1.05851,-2.73984,0
27960,-0.660071,-0.97837,-2.78364,0
27980,-0.618457,-0.891296,-2.81157,0
28000,-0.588313,-0.799777,-2.82748,0
28020,-0.56241,-0.70456,-2.83984,0
28040,-0.548419,-0.607163,-2.84774,0
28060,-0.543696,-0.510218,-2.85213,0
28080,-0.542018,-0.419078,-2.85851,0
28100,-0.550051,-0.331218,-2.86481,0
28120,-0.567596,-0.24455,-2.87103,0
28140,-0.575371,-0.15667,-2.88153,0
28160,-0.577027,-0.0646721,-2.89411,0
28180,-0.586788,0.0317325,-2.90545,0
28200,-0.611945,0.122808,-2.91872,0
28220,-0.645359,0.202048,-2.93699,0
28240,-0.670972,0.275358,-2.94837,0
28260,-0.656679,0.351851,-2.9451,0
28280,-0.61356,0.426691,-2.93779,0
28300,-0.611134,0.474351,-2.9406,0
28320,-0.630207,0.471291,-2.95799,0
28340,-0.662277,0.447317,-2.92574,0
28350,-0.703524,0.428005,-2.90139,0
28370,-0.734371,0.415696,-2.88952,0
28390,-0.717744,0.417978,-2.88187,0
28410,-0.709354,0.429338,-2.8783,0
28430,-0.71845,0.445163,-2.87954,0
28450,-0.728337,0.454573,-2.88138,0
28470,-0.738472,0.461728,-2.88074,0
28490,-0.748658,0.468738,-2.8771,0
28510,-0.75167,0.47326,-2.87146,0
28530,-0.74476,0.476075,-2.86482,0
28550,-0.733714,0.480296,-2.85787,0
28570,-0.722527,0.485574,-2.85134,0
28590,-0.715872,0.490206,-2.846,0
28610,-0.716822,0.492805,-2.84471,0
28630,-0.720517,0.494466,-2.84642,0
28650,-0.720432,0.496094,-2.84837,0
28670,-0.715388,0.49671,-2.8495,0
28690,-0.707735,0.495901,-2.85029,0
28710,-0.707552,0.494788,-2.85124,0
28730,-0.713553,0.493606,-2.85204,0
28750,-0.719469,0.492494,-2.853,0
28770,-0.720995,0.491318,-2.85413,0
28790,-0.719513,0.491497,-2.85444,0
28810,-0.717608,0.494385,-2.85451,0
28830,-0.714482,0.497796,-2.85353,0
28850,-0.711366,0.500282,-2.8518,0
28870,-0.704429,0.502552,-2.85074,0
28890,-0.693776,0.504127,-2.85084,0
28910,-0.683524,0.505818,-2.85202,0
28930,-0.676523,0.508123,-2.85388,0
28950,-0.672921,0.511001,-2.85567,0
28970,-0.672847,0.513739,-2.85722,0
28990,-0.673554,0.516247,-2.85733,0
29010,-0.67474,0.518371,-2.85635,0
29030,-0.677647,0.52055,-2.85451,0
29050,-0.683273,0.522504,-2.85251,0
29070,-0.691578,0.524572,-2.85129,0
29090,-0.700675,0.526075,-2.85033,0
29110,-0.707554,0.526663,-2.84969,0
29130,-0.712405,0.5272,-2.84926,0
29150,-0.715483,0.528064,-2.84897,0
29170,-0.717484,0.529094,-2.84936,0
29190,-0.718537,0.530298,-2.85,0
29210,-0.718794,0.531239,-2.85079,0
29230,-0.718262,0.531871,-2.85159,0
29250,-0.717083,0.532681,-2.85214,0
29270,-0.716163,0.53341,-2.85247,0
29290,-0.715874,0.534069,-2.85262,0
29310,-0.716028,0.534624,-2.85272,0
29330,-0.716014,0.534847,-2.85278,0
29350,-0.716352,0.535567,-2.85255,0
29370,-0.716977,0.536323,-2.85239,0
29390,-0.716968,0.537034,-2.85192,0
29410,-0.716689,0.538138,-2.85142,0
29430,-0.715993,0.539247,-2.85095,0
29450,-0.715959,0.539522,-2.85089,0
29470,-0.715937,0.539922,-2.85088,0
29490,-0.715799,0.540141,-2.85093,0
29510,-0.715893,0.540722,-2.85086,0
29530,-0.716151,0.541336,-2.85086,0
29550,-0.716159,0.541505,-2.85104,0
29570,-0.716061,0.5421,-2.85123,0
29590,-0.715945,0.542266,-2.8514,0
29610,-0.716144,0.542718,-2.85174,0
29630,-0.716206,0.543041,-2.85201,0
29650,-0.716343,0.54317,-2.85207,0
29670,-0.717165,0.543728,-2.85217,0
29690,-0.718316,0.544351,-2.85238,0
29710,-0.71938,0.545095,-2.85243,0
29730,-0.720499,0.545994,-2.85259,0
29750,-0.721525,0.546658,-2.85291,0
29770,-0.722573,0.547269,-2.85336,0
29790,-0.723265,0.54786,-2.85401,0
29810,-0.723041,0.548351,-2.85495,0
29830,-0.722246,0.549613,-2.85534,0
29850,-0.723205,0.550819,-2.85599,0
29870,-0.725702,0.551783,-2.85675,0
29890,-0.729095,0.552934,-2.85767,0
29910,-0.731296,0.553738,-2.85832,0
29930,-0.732497,0.554476,-2.85884,0
29950,-0.733389,0.555044,-2.85968,0
29970,-0.733846,0.55549,-2.8605,0
29990,-0.73416,0.55585,-2.86139,0
30010,-0.734192,0.556102,-2.86149,0
30030,-0.735175,0.556599,-2.86217,0
30050,-0.736285,0.5571,-2.86288,0
30070,-0.736962,0.557437,-2.86344,0
30090,-0.736508,0.557708,-2.86385,0
30110,-0.735983,0.557657,-2.86399,0
30130,-0.735421,0.557534,-2.86395,0
30150,-0.735239,0.557376,-2.86384,0
30170,-0.735135,0.55732,-2.86394,0
30190,-0.734632,0.557362,-2.86356,0
30210,-0.73428,0.55731,-2.86319,0
30230,-0.734256,0.557407,-2.86321,0
30250,-0.734446,0.55806,-2.8628,0
30270,-0.734601,0.558504,-2.86242,0
30290,-0.734317,0.558818,-2.86246,0
30310,-0.733824,0.559166,-2.86206,0
30330,-0.733215,0.559194,-2.86192,0
30350,-0.733507,0.559228,-2.862,0
30370,-0.733523,0.559354,-2.86205,0
30390,-0.733499,0.55945,-2.86206,0
30410,-0.733397,0.559922,-2.86221,0
30430,-0.733414,0.560048,-2.86227,0
30450,-0.733414,0.560048,-2.86227,0
30470,-0.733968,0.560393,-2.86237,0
30490,-0.734479,0.560847,-2.86223,0
30510,-0.735172,0.56146,-2.8622,0
30530,-0.735386,0.561912,-2.86255,0
30550,-0.734936,0.562194,-2.86253,0
30570,-0.734283,0.562181,-2.86278,0
30590,-0.733821,0.562106,-2.86308,0
30610,-0.733597,0.561867,-2.86323,0
30630,-0.733715,0.56152,-2.86313,0
30650,-0.733715,0.56152,-2.86313,0
30670,-0.73364,0.561906,-2.86283,0
30690,-0.733399,0.562259,-2.86248,0
30710,-0.733375,0.562355,-2.86249,0
30730,-0.733369,0.562536,-2.86242,0
30750,-0.733519,0.562442,-2.86243,0
30770,-0.733525,0.562261,-2.8625,0
30790,-0.733194,0.562155,-2.86224,0
30810,-0.732712,0.562143,-2.86199,0
30830,-0.732208,0.562185,-2.8616,0
30850,-0.731694,0.56192,-2.86124,0
30870,-0.731491,0.561774,-2.86087,0
30890,-0.731507,0.5619,-2.86093,0
30910,-0.731467,0.56187,-2.86089,0
30930,-0.73165,0.562029,-2.861,0
30940,-0.732168,0.562261,-2.86079,0
30960,-0.732143,0.562357,-2.86081,0
30980,-0.731054,0.562901,-2.86045,0
31000,-0.730064,0.563639,-2.85979,0
31020,-0.730541,0.563841,-2.85954,0
31040,-0.730558,0.563968,-2.8596,0
31060,-0.730472,0.564046,-2.85932,0
31080,-0.730102,0.563867,-2.85889,0
31100,-0.730111,0.563645,-2.85882,0
31120,-0.730111,0.563645,-2.85882,0
31140,-0.72992,0.563709,-2.85878,0
31160,-0.73062,0.5641,-2.85868,0
31180,-0.731391,0.564337,-2.85852,0
31200,-0.732375,0.564457,-2.85852,0
31220,-0.73105,0.56513,-2.85774,0
31240,-0.731379,0.565386,-2.85736,0
31260,-0.732177,0.565538,-2.85674,0
31280,-0.730988,0.565271,-2.85637,0
31300,-0.728468,0.564798,-2.85506,0
31320,-0.72335,0.563813,-2.85336,0
31340,-0.719579,0.561936,-2.85239,0
31360,-0.714564,0.559584,-2.85206,0
31380,-0.707988,0.558374,-2.85232,0
31400,-0.702522,0.558658,-2.85266,0
31420,-0.699427,0.559873,-2.85274,0
31440,-0.69436,0.560794,-2.85265,0
31460,-0.688984,0.561434,-2.85283,0
31480,-0.684587,0.561709,-2.85309,0
31500,-0.682521,0.561812,-2.85429,0
31520,-0.681993,0.56174,-2.85552,0
31540,-0.682129,0.561569,-2.85649,0
31560,-0.681838,0.561279,-2.85701,0
31580,-0.681297,0.560984,-2.85705,0
31600,-0.681287,0.561162,-2.85698,0
31620,-0.681786,0.561075,-2.85679,0
31640,-0.683734,0.560836,-2.85622,0
31660,-0.685585,0.560496,-2.85474,0
31680,-0.684892,0.560287,-2.85286,0
31700,-0.682865,0.559958,-2.85007,0
31720,-0.678236,0.559732,-2.84805,0
31740,-0.673375,0.559721,-2.84676,0
31760,-0.669427,0.55906,-2.84629,0
31780,-0.667979,0.557928,-2.84519,0
31800,-0.665612,0.556182,-2.84298,0
31820,-0.659412,0.554352,-2.84026,0
31840,-0.649229,0.551086,-2.83593,0
31860,-0.633784,0.545758,-2.83474,0
31880,-0.621139,0.539276,-2.83568,0
31900,-0.606088,0.529315,-2.83467,0
31920,-0.587013,0.514073,-2.83027,0
31940,-0.563803,0.494524,-2.82254,0
31960,-0.546233,0.470263,-2.8158,0
31980,-0.539553,0.441279,-2.8098,0
32000,-0.539836,0.409862,-2.80436,0
32020,-0.535253,0.378604,-2.79882,0
32040,-0.528277,0.346686,-2.79262,0
32060,-0.52121,0.313556,-2.78629,0
32080,-0.516237,0.28014,-2.78086,0
32100,-0.512834,0.247966,-2.7743,0
32120,-0.512287,0.214692,-2.76703,0
32140,-0.508995,0.178963,-2.76178,0
32160,-0.499839,0.14592,-2.75724,0
32180,-0.491528,0.115441,-2.74947,0
32200,-0.488635,0.0850619,-2.74219,0
32220,-0.483266,0.054972,-2.73706,0
32240,-0.483609,0.0249922,-2.73053,0
32260,-0.48707,-0.00445038,-2.72479,0
32280,-0.487446,-0.0323465,-2.72189,0
32300,-0.486775,-0.0569752,-2.71878,0
32320,-0.487576,-0.0776469,-2.71535,0
32340,-0.488642,-0.0967298,-2.71345,0
32360,-0.490127,-0.11511,-2.71046,0
32380,-0.493197,-0.129569,-2.70855,0
32400,-0.496646,-0.139951,-2.70989,0
32420,-0.500725,-0.148638,-2.71218,0
32440,-0.506809,-0.155009,-2.71345,0
32460,-0.510464,-0.160209,-2.71268,0
32480,-0.509735,-0.164982,-2.71138,0
32500,-0.505851,-0.168883,-2.71087,0
32520,-0.502427,-0.171547,-2.71211,0
32540,-0.501808,-0.173307,-2.71407,0
32560,-0.504405,-0.173812,-2.71559,0
32580,-0.507238,-0.172918,-2.71686,0
32600,-0.509256,-0.172166,-2.71966,0
32620,-0.5087,-0.170516,-2.72528,0
32640,-0.508301,-0.169586,-2.73236,0
32660,-0.50291,-0.170577,-2.7404,0
32680,-0.496897,-0.174696,-2.7515,0
32700,-0.492424,-0.180667,-2.7719,0
32720,-0.491315,-0.187248,-2.79363,0
32740,-0.496719,-0.192944,-2.80694,0
32760,-0.509726,-0.197418,-2.81498,0
32780,-0.521637,-0.201056,-2.82165,0
32800,-0.527465,-0.202169,-2.82808,0
32820,-0.531679,-0.201262,-2.83323,0
32840,-0.539802,-0.199308,-2.83764,0
32860,-0.550529,-0.196051,-2.84211,0
32880,-0.558966,-0.192628,-2.84809,0
32900,-0.565162,-0.189786,-2.85361,0
32920,-0.56992,-0.187402,-2.8582,0
32940,-0.570464,-0.183195,-2.86327,0
32960,-0.569876,-0.179389,-2.86975,0
32980,-0.566119,-0.177768,-2.87909,0
33000,-0.562146,-0.17763,-2.88913,0
33020,-0.559767,-0.176902,-2.89912,0
33040,-0.557555,-0.175886,-2.90864,0
33060,-0.554432,-0.175394,-2.91797,0
33080,-0.548289,-0.176427,-2.92686,0
33100,-0.541434,-0.178517,-2.93537,0
33120,-0.535746,-0.180266,-2.94316,0
33140,-0.530738,-0.182192,-2.95098,0
33160,-0.526725,-0.18452,-2.95731,0
33180,-0.522842,-0.187181,-2.96262,0
33200,-0.518461,-0.189658,-2.96767,0
33220,-0.513715,-0.192561,-2.97189,0
33240,-0.509585,-0.196156,-2.97557,0
33260,-0.507012,-0.199271,-2.97875,0
33280,-0.504952,-0.201322,-2.98087,0
33300,-0.502631,-0.20372,-2.98231,0
33320,-0.499209,-0.206339,-2.98342,0
33340,-0.496215,-0.208804,-2.98402,0
33360,-0.493702,-0.211034,-2.98478,0
33380,-0.491806,-0.213201,-2.98545,0
33400,-0.490198,-0.215148,-2.98579,0
33420,-0.488443,-0.216549,-2.98593,0
33440,-0.486214,-0.217635,-2.98629,0
33460,-0.48398,-0.218317,-2.98654,0
33480,-0.482503,-0.2185,-2.98645,0
33500,-0.481721,-0.217648,-2.98485,0
33510,-0.482178,-0.216361,-2.98221,0
33530,-0.482202,-0.21505,-2.97885,0
33550,-0.479521,-0.213818,-2.97407,0
33570,-0.475207,-0.213945,-2.97028,0
33590,-0.468482,-0.214458,-2.96799,0
33610,-0.464418,-0.215507,-2.96814,0
33630,-0.464604,-0.214705,-2.97082,0
33650,-0.466332,-0.212509,-2.9733,0
33670,-0.465136,-0.210947,-2.97448,0
33690,-0.460706,-0.21114,-2.97474,0
33710,-0.454758,-0.212381,-2.97478,0
33730,-0.449833,-0.213327,-2.97483,0
33750,-0.448707,-0.213969,-2.97517,0
33770,-0.448894,-0.213856,-2.97469,0
33790,-0.449838,-0.213812,-2.97304,0
33810,-0.450247,-0.214423,-2.97133,0
33830,-0.448011,-0.214216,-2.97091,0
33850,-0.446195,-0.213335,-2.97045,0
33870,-0.446723,-0.211957,-2.97008,0
33880,-0.447032,-0.210901,-2.9688,0
33900,-0.445558,-0.210491,-2.96821,0
33920,-0.442926,-0.209673,-2.96835,0
33940,-0.440826,-0.208759,-2.96819,0
33970,-0.439301,-0.20831,-2.96684,0
33990,-0.438593,-0.209007,-2.96398,0
34010,-0.437177,-0.209811,-2.96196,0
34030,-0.435418,-0.20916,-2.96132,0
34050,-0.435283,-0.207252,-2.96064,0
34070,-0.436154,-0.205497,-2.95803,0
34090,-0.437254,-0.205074,-2.95399,0
34110,-0.436295,-0.204917,-2.94936,0
34130,-0.434641,-0.203651,-2.94519,0
34150,-0.434432,-0.202476,-2.94256,0
34170,-0.435164,-0.202277,-2.93949,0
34190,-0.436561,-0.202598,-2.93674,0
34210,-0.435823,-0.202931,-2.93385,0
34230,-0.434299,-0.20297,-2.93102,0
34250,-0.432034,-0.202964,-2.92889,0
34270,-0.430566,-0.202631,-2.92728,0
34290,-0.431256,-0.202329,-2.92551,0
34310,-0.431562,-0.201365,-2.92405,0
34330,-0.43013,-0.200819,-2.92268,0
34340,-0.42784,-0.200001,-2.92202,0
34360,-0.426918,-0.198917,-2.92127,0
34380,-0.427055,-0.198251,-2.92054,0
34400,-0.427582,-0.197763,-2.91966,0
34400,-0.427866,-0.197376,-2.91912,0
34420,-0.427723,-0.196926,-2.91872,0
34440,-0.428136,-0.196634,-2.9181,0
34460,-0.428104,-0.196787,-2.91759,0
34500,-0.427376,-0.197133,-2.91772,0
34530,-0.427224,-0.197024,-2.91775,0
34550,-0.426779,-0.197089,-2.91727,0
34570,-0.42623,-0.197496,-2.91714,0
34590,-0.42552,-0.198133,-2.91746,0
34610,-0.42539,-0.198144,-2.91746,0
34630,-0.42539,-0.198144,-2.91746,0
34650,-0.425367,-0.198023,-2.91749,0
34670,-0.425237,-0.198034,-2.91749,0
34690,-0.425584,-0.197695,-2.91657,0
34710,-0.424659,-0.197731,-2.91575,0
34730,-0.423183,-0.197715,-2.91559,0
34750,-0.422923,-0.197737,-2.9156,0
34770,-0.423162,-0.197636,-2.91459,0
34790,-0.423118,-0.198341,-2.91368,0
34810,-0.422711,-0.199409,-2.91313,0
34830,-0.424111,-0.201463,-2.91208,0
34850,-0.42654,-0.204356,-2.90812,0
34870,-0.427026,-0.208939,-2.90535,0
34890,-0.423134,-0.215957,-2.905,0
34910,-0.420512,-0.223293,-2.90613,0
34930,-0.417562,-0.232103,-2.90822,0
34950,-0.41302,-0.244216,-2.90703,0
34970,-0.411516,-0.25755,-2.90703,0
34990,-0.410532,-0.267076,-2.90849,0
35010,-0.409893,-0.273543,-2.9095,0
35030,-0.412953,-0.27898,-2.90806,0
35050,-0.416092,-0.282519,-2.90674,0
35070,-0.415082,-0.285985,-2.90904,0
35090,-0.41022,-0.290159,-2.90932,0
35110,-0.410306,-0.295552,-2.90896,0
35120,-0.414211,-0.298267,-2.90764,0
35140,-0.417603,-0.300741,-2.90346,0
35160,-0.421931,-0.300643,-2.89969,0
35160,-0.41683,-0.299802,-2.89561,0
35180,-0.410393,-0.30297,-2.88969,0
35200,-0.417004,-0.30973,-2.88427,0
35200,-0.432678,-0.314789,-2.87674,0
35220,-0.444768,-0.317344,-2.8662,0
35260,-0.451017,-0.319973,-2.85467,0
35310,-0.451721,-0.322673,-2.84251,0
35330,-0.456951,-0.32423,-2.83114,0
35350,-0.470938,-0.322394,-2.81949,0
35370,-0.481061,-0.322826,-2.8059,0
35390,-0.491146,-0.324244,-2.79073,0
35410,-0.499988,-0.325436,-2.77427,0
35430,-0.507553,-0.327001,-2.76645,0
35450,-0.504262,-0.328751,-2.7674,0
35470,-0.498568,-0.326101,-2.76525,0
35490,-0.505394,-0.326061,-2.76096,0
35510,-0.516515,-0.333502,-2.76118,0
35530,-0.527456,-0.343259,-2.76362,0
35550,-0.5337,-0.35231,-2.7644,0
35570,-0.540138,-0.363532,-2.76268,0
35590,-0.551212,-0.368929,-2.75228,0
35610,-0.556019,-0.373163,-2.74327,0
35630,-0.55283,-0.380163,-2.74112,0
35650,-0.553408,-0.385949,-2.74165,0
35670,-0.555324,-0.391456,-2.73915,0
35690,-0.555017,-0.401764,-2.73742,0
35710,-0.549942,-0.40573,-2.74396,0
35730,-0.542092,-0.404674,-2.75654,0
35750,-0.53221,-0.403335,-2.77425,0
35770,-0.521382,-0.399823,-2.79236,0
35790,-0.512889,-0.396593,-2.81153,0
35810,-0.507656,-0.39064,-2.83567,0
35830,-0.499078,-0.380682,-2.85297,0
35850,-0.493823,-0.368059,-2.8623,0
35870,-0.49321,-0.354737,-2.8669,0
35890,-0.496222,-0.342751,-2.86793,0
35910,-0.498101,-0.33493,-2.86687,0
35930,-0.49711,-0.327821,-2.86544,0
35950,-0.494355,-0.317297,-2.86527,0
35970,-0.491589,-0.304257,-2.8642,0
35990,-0.488821,-0.291577,-2.86287,0
36010,-0.483521,-0.279492,-2.86224,0
36030,-0.479013,-0.265552,-2.86167,0
36050,-0.475303,-0.252346,-2.86113,0
36070,-0.469449,-0.242522,-2.8636,0
36090,-0.461939,-0.237459,-2.87058,0
36110,-0.458415,-0.227703,-2.87859,0
36120,-0.453576,-0.209133,-2.88639,0
36140,-0.450768,-0.186726,-2.89086,0
36160,-0.444243,-0.166342,-2.89675,0
36180,-0.434156,-0.144717,-2.9056,0
36200,-0.426505,-0.120478,-2.91329,0
36220,-0.418741,-0.100001,-2.91705,0
36240,-0.411774,-0.0864927,-2.92131,0
36260,-0.406679,-0.0758147,-2.92681,0
36280,-0.402708,-0.0657335,-2.93213,0
36300,-0.399334,-0.0586719,-2.93654,0
36320,-0.397584,-0.0528499,-2.94169,0
36340,-0.39723,-0.046256,-2.94803,0
36360,-0.398068,-0.0379961,-2.95344,0
36380,-0.400672,-0.0302311,-2.95769,0
36380,-0.405504,-0.0229948,-2.96114,0
36400,-0.407726,-0.0156493,-2.96472,0
36420,-0.407467,-0.00854169,-2.96535,0
36430,-0.4055,-0.00320228,-2.96409,0
36480,-0.404727,0.00290382,-2.96388,0
36500,-0.406075,0.00862655,-2.96401,0
36520,-0.405556,0.0101812,-2.96535,0
36540,-0.407229,0.00804136,-2.96613,0
36560,-0.406306,0.00318257,-2.96503,0
36580,-0.407776,-0.00346077,-2.96451,0
36600,-0.408267,-0.0102666,-2.96434,0
36620,-0.409319,-0.0166962,-2.96561,0
36640,-0.41336,-0.0226805,-2.96536,0
36660,-0.417869,-0.0278488,-2.96437,0
36680,-0.421718,-0.0302765,-2.96083,0
36700,-0.426123,-0.0328731,-2.96011,0
36720,-0.427064,-0.0336374,-2.96055,0
36740,-0.42887,-0.0299005,-2.95967,0
36760,-0.433965,-0.0243002,-2.96022,0
36780,-0.439517,-0.0206188,-2.96451,0
36800,-0.445069,-0.0145501,-2.96647,0
36820,-0.450216,-0.00801462,-2.96898,0
36840,-0.453542,-0.00389726,-2.96708,0
36860,-0.461889,-0.00319853,-2.96292,0
36880,-0.47174,-0.00296127,-2.96034,0
36900,-0.480815,0.000818782,-2.95703,0
36920,-0.484019,0.00800377,-2.95214,0
36940,-0.483524,0.014101,-2.94823,0
36960,-0.482825,0.015392,-2.94528,0
36980,-0.483939,0.0142537,-2.94471,0
37000,-0.485157,0.0130091,-2.94717,0
37020,-0.486663,0.0128014,-2.9486,0
37040,-0.486966,0.0112521,-2.94733,0
37060,-0.4854,0.00818176,-2.94533,0
37080,-0.481787,0.00442373,-2.94272,0
37100,-0.47704,-0.00035587,-2.93913,0
37120,-0.474431,-0.00586094,-2.93521,0
37140,-0.473681,-0.0133208,-2.93232,0
37160,-0.470774,-0.023262,-2.93039,0
37180,-0.468902,-0.035423,-2.92814,0
37200,-0.466124,-0.0476247,-2.92296,0
37220,-0.461042,-0.0588963,-2.91537,0
37240,-0.458188,-0.0704172,-2.90864,0
37260,-0.457977,-0.0803586,-2.90225,0
37280,-0.456889,-0.0863221,-2.89457,0
37300,-0.455286,-0.0879411,-2.88526,0
37320,-0.453662,-0.0892188,-2.87546,0
37340,-0.452657,-0.0903849,-2.86768,0
37360,-0.451692,-0.0867349,-2.85989,0
37380,-0.45161,-0.0817515,-2.85231,0
37400,-0.450715,-0.0758555,-2.84356,0
37420,-0.447267,-0.0714173,-2.83394,0
37440,-0.441187,-0.0667066,-2.82631,0
37460,-0.435617,-0.0608333,-2.81929,0
37480,-0.432887,-0.0562025,-2.8123,0
37500,-0.430927,-0.0535024,-2.80594,0
37520,-0.426723,-0.0503223,-2.80147,0
37540,-0.422328,-0.046996,-2.79725,0
37560,-0.419148,-0.0438913,-2.79257,0
37580,-0.416237,-0.0410144,-2.78791,0
37600,-0.41273,-0.0386987,-2.78416,0
37620,-0.410197,-0.0360801,-2.78034,0
37640,-0.409641,-0.033705,-2.77754,0
37660,-0.409697,-0.0307115,-2.77536,0
37680,-0.409708,-0.0281469,-2.77339,0
37700,-0.408663,-0.0254393,-2.77163,0
37720,-0.407537,-0.0234324,-2.77135,0
37740,-0.406716,-0.0212454,-2.77169,0
37760,-0.406437,-0.0191768,-2.77187,0
37780,-0.406322,-0.0174953,-2.77284,0
37800,-0.405964,-0.0151114,-2.77389,0
37820,-0.405619,-0.0133768,-2.7744,0
37840,-0.404383,-0.0118063,-2.77552,0
37860,-0.403648,-0.0103209,-2.77753,0
37860,-0.402846,-0.00860557,-2.78021,0
37880,-0.402162,-0.00640047,-2.7837,0
37900,-0.401329,-0.00390705,-2.78689,0
37900,-0.400639,-0.00214171,-2.79005,0
37960,-0.399358,-1.94907e-05,-2.79406,0
37960,-0.397021,0.00221373,-2.79914,0
37980,-0.394764,0.00477791,-2.80522,0
38000,-0.392378,0.00714822,-2.81217,0
38020,-0.389504,0.00811575,-2.81888,0
38020,-0.385992,0.00761925,-2.82555,0
38040,-0.382399,0.00681922,-2.8332,0
38060,-0.379817,0.00579933,-2.84096,0
38060,-0.378744,0.00404995,-2.84856,0
38120,-0.379128,0.00089778,-2.85612,0
38160,-0.378702,-0.003014,-2.86443,0
38180,-0.378285,-0.00536836,-2.87317,0
38200,-0.378391,-0.00612487,-2.88179,0
38220,-0.379353,-0.00752783,-2.88977,0
38240,-0.379837,-0.00916454,-2.89797,0
38260,-0.380057,-0.00995819,-2.90682,0
38280,-0.380321,-0.0102824,-2.91649,0
38300,-0.380718,-0.010432,-2.92597,0
38320,-0.379832,-0.010376,-2.93561,0
38340,-0.379,-0.00946527,-2.94542,0
38360,-0.378063,-0.00837015,-2.95491,0
38380,-0.377055,-0.00770665,-2.96404,0
38400,-0.375979,-0.00735746,-2.97287,0
38420,-0.374582,-0.00769312,-2.98193,0
38440,-0.372364,-0.00879181,-2.99147,0
38460,-0.370654,-0.0101634,-3.00145,0
38480,-0.368944,-0.0113541,-3.01122,0
38500,-0.36839,-0.0128507,-3.02042,0
38520,-0.368223,-0.0148511,-3.02912,0
38540,-0.368199,-0.0168532,-3.03721,0
38560,-0.367535,-0.0190478,-3.04551,0
38580,-0.368088,-0.0205917,-3.05329,0
38600,-0.369147,-0.0223152,-3.06079,0
38620,-0.36932,-0.024316,-3.06822,0
38640,-0.368312,-0.0274484,-3.07487,0
38660,-0.366447,-0.0311559,-3.08117,0
38680,-0.364943,-0.0344396,-3.08731,0
38700,-0.363163,-0.0371588,-3.09243,0
38720,-0.36325,-0.0396738,-3.09668,0
38720,-0.364119,-0.0432117,-3.10048,0
38740,-0.363729,-0.0476051,-3.10477,0
38760,-0.361978,-0.0520451,-3.10922,0
38780,-0.359201,-0.0565639,-3.11344,0
38780,-0.356562,-0.0610833,-3.11705,0
38800,-0.354171,-0.0648841,-3.12017,0
38820,-0.351672,-0.0686711,-3.12256,0
38840,-0.349418,-0.0727883,-3.12477,0
38840,-0.34702,-0.0770852,-3.12733,0
38900,-0.344743,-0.0805701,-3.12954,0
38930,-0.342122,-0.0831442,-3.13082,0
38950,-0.339286,-0.0862151,-3.1314,0
38970,-0.335698,-0.0901689,-3.13213,0
38990,-0.332117,-0.0936438,-3.13295,0
39010,-0.329957,-0.0982935,-3.13265,0
39030,-0.328326,-0.104955,-3.13249,0
39050,-0.325917,-0.112079,-3.13293,0
39070,-0.324249,-0.118698,-3.13331,0
39090,-0.323622,-0.12622,-3.13311,0
39110,-0.322797,-0.134554,-3.13254,0
39130,-0.32076,-0.14229,-3.13143,0
39150,-0.318434,-0.150045,-3.1296,0
39170,-0.31578,-0.157823,-3.12719,0
39190,-0.312653,-0.164618,-3.12476,0
39210,-0.309262,-0.169532,-3.12217,0
39230,-0.305209,-0.173718,-3.11878,0
39250,-0.299407,-0.177933,-3.11555,0
39270,-0.293151,-0.181295,-3.11314,0
39290,-0.287343,-0.184491,-3.11123,0
39310,-0.282316,-0.187822,-3.10925,0
39330,-0.276726,-0.19073,-3.10777,0
39350,-0.271474,-0.193686,-3.10664,0
39370,-0.267953,-0.196913,-3.10568,0
39390,-0.265404,-0.199543,-3.10484,0
39410,-0.263377,-0.202391,-3.1038,0
39430,-0.261065,-0.205786,-3.10321,0
39450,-0.258297,-0.208815,-3.10348,0
39470,-0.256098,-0.210967,-3.1038,0
39490,-0.254823,-0.213468,-3.10387,0
39510,-0.253439,-0.21605,-3.10369,0
39530,-0.252114,-0.218185,-3.10392,0
39550,-0.251344,-0.219252,-3.10449,0
39570,-0.251049,-0.219066,-3.10493,0
39590,-0.250167,-0.218961,-3.10504,0
39610,-0.248717,-0.218782,-3.1046,0
39630,-0.246999,-0.217893,-3.10429,0
39650,-0.245607,-0.217034,-3.10431,0
39670,-0.244156,-0.216373,-3.10492,0
39690,-0.242433,-0.215604,-3.1057,0
39710,-0.240333,-0.215359,-3.1067,0
39730,-0.238327,-0.214784,-3.10799,0
39750,-0.236156,-0.214484,-3.10962,0
39770,-0.234214,-0.21447,-3.11156,0
39790,-0.232499,-0.21422,-3.11364,0
39810,-0.23118,-0.213692,-3.11545,0
39830,-0.230633,-0.213121,-3.11694,0
39850,-0.230125,-0.21274,-3.11802,0
39870,-0.229146,-0.212248,-3.11905,0
39890,-0.228466,-0.211549,-3.11945,0
39910,-0.228502,-0.210889,-3.11903,0
39930,-0.228252,-0.210107,-3.11877,0
39950,-0.227575,-0.209295,-3.11808,0
39970,-0.226409,-0.208827,-3.11727,0
39990,-0.22515,-0.208223,-3.11624,0
40010,-0.224242,-0.20788,-3.11538,0
40030,-0.223467,-0.207662,-3.1145,0
40050,-0.222634,-0.207994,-3.11307,0
40070,-0.221833,-0.208684,-3.11147,0
40090,-0.22181,-0.209482,-3.10966,0
40110,-0.221782,-0.210391,-3.10783,0
40130,-0.222298,-0.211232,-3.10433,0
40150,-0.222406,-0.212007,-3.10127,0
40170,-0.222929,-0.212614,-3.09781,0
40190,-0.224288,-0.213241,-3.09351,0
40210,-0.225191,-0.213721,-3.08892,0
40230,-0.226217,-0.214046,-3.08419,0
40250,-0.227121,-0.2154,-3.07985,0
40270,-0.228335,-0.217596,-3.07537,0
40280,-0.22982,-0.220443,-3.07116,0
40300,-0.233127,-0.223145,-3.06724,0
40320,-0.23741,-0.224905,-3.06305,0
40320,-0.242786,-0.225781,-3.05786,0
40340,-0.248764,-0.227119,-3.05189,0
40360,-0.254528,-0.229369,-3.04533,0
40380,-0.259255,-0.232746,-3.03784,0
40380,-0.264762,-0.237419,-3.0292,0
40400,-0.2717,-0.24316,-3.02003,0
40420,-0.279258,-0.251359,-3.01111,0
40440,-0.287058,-0.26182,-3.00173,0
40480,-0.29563,-0.272461,-2.99323,0
40530,-0.304617,-0.282844,-2.98509,0
40550,-0.313549,-0.292945,-2.97699,0
40570,-0.321315,-0.302712,-2.96966,0
40590,-0.327905,-0.311099,-2.96291,0
40610,-0.33506,-0.319592,-2.95635,0
40630,-0.344258,-0.326968,-2.9493,0
40650,-0.35455,-0.333371,-2.94229,0
40670,-0.364113,-0.338226,-2.93435,0
40690,-0.37495,-0.343166,-2.92688,0
40710,-0.386807,-0.347675,-2.91994,0
40730,-0.400244,-0.351067,-2.91478,0
40750,-0.411066,-0.354471,-2.91017,0
40770,-0.421555,-0.357136,-2.90501,0
40790,-0.428836,-0.360139,-2.90103,0
40810,-0.432617,-0.361966,-2.89887,0
40830,-0.435663,-0.361239,-2.89714,0
40850,-0.439468,-0.359518,-2.89652,0
40870,-0.442809,-0.357312,-2.89715,0
40890,-0.44381,-0.356129,-2.8981,0
40910,-0.441467,-0.356413,-2.90043,0
40930,-0.437344,-0.356381,-2.90435,0
40950,-0.432853,-0.355309,-2.9081,0
40970,-0.427034,-0.354371,-2.91215,0
40990,-0.418208,-0.352175,-2.91778,0
41010,-0.409301,-0.349868,-2.92374,0
41030,-0.401673,-0.349136,-2.92847,0
41050,-0.395128,-0.349694,-2.93384,0
41070,-0.387911,-0.35187,-2.9411,0
41090,-0.380921,-0.352837,-2.94833,0
41110,-0.375617,-0.35291,-2.95416,0
41130,-0.372841,-0.35416,-2.95889,0
41150,-0.37194,-0.355145,-2.96214,0
41170,-0.373076,-0.355348,-2.96224,0
41190,-0.377106,-0.354566,-2.96189,0
41210,-0.385223,-0.352258,-2.96153,0
41230,-0.392218,-0.34989,-2.95977,0
41250,-0.395807,-0.349032,-2.95965,0
41270,-0.399028,-0.346003,-2.96072,0
41290,-0.401024,-0.342698,-2.96067,0
41310,-0.405053,-0.339552,-2.9587,0
41320,-0.410107,-0.33568,-2.95603,0
41340,-0.416584,-0.328812,-2.95338,0
41360,-0.423974,-0.321433,-2.95126,0
41380,-0.426172,-0.317364,-2.94815,0
41400,-0.426569,-0.316938,-2.94425,0
41420,-0.427356,-0.317955,-2.94133,0
41440,-0.430237,-0.318847,-2.9379,0
41460,-0.433319,-0.320011,-2.9352,0
41480,-0.435167,-0.322087,-2.93158,0
41500,-0.43664,-0.323431,-2.92806,0
41520,-0.438225,-0.324527,-2.92585,0
41540,-0.442123,-0.32526,-2.92393,0
41560,-0.447444,-0.325648,-2.92092,0
41580,-0.452201,-0.325799,-2.91542,0
41600,-0.455476,-0.326872,-2.90903,0
41620,-0.456859,-0.327573,-2.90315,0
41640,-0.460187,-0.326632,-2.89827,0
41660,-0.463519,-0.326155,-2.89442,0
41680,-0.464756,-0.325235,-2.89063,0
41700,-0.464558,-0.324284,-2.88618,0
41720,-0.463681,-0.324549,-2.8823,0
41740,-0.462919,-0.324278,-2.87948,0
41760,-0.462751,-0.323649,-2.87772,0
41780,-0.464472,-0.32273,-2.87537,0
41800,-0.466108,-0.321867,-2.87271,0
41820,-0.467673,-0.320608,-2.86941,0
41840,-0.469208,-0.319827,-2.86596,0
41860,-0.470653,-0.319426,-2.86355,0
41860,-0.471882,-0.318637,-2.86172,0
41880,-0.47357,-0.317727,-2.86011,0
41900,-0.475145,-0.316801,-2.8584,0
41920,-0.4765,-0.316072,-2.85521,0
41920,-0.477339,-0.316927,-2.85243,0
41980,-0.478451,-0.31644,-2.8514,0
42000,-0.479099,-0.315573,-2.85067,0
42020,-0.480102,-0.314166,-2.85008,0
42040,-0.481046,-0.312841,-2.84923,0
42060,-0.480822,-0.31103,-2.84857,0
42080,-0.481131,-0.310899,-2.84754,0
42100,-0.480654,-0.310596,-2.8477,0
42120,-0.479779,-0.309929,-2.84893,0
42140,-0.478785,-0.308193,-2.8511,0
42160,-0.479096,-0.306379,-2.85179,0
42180,-0.479161,-0.304516,-2.85161,0
42200,-0.477881,-0.302638,-2.85122,0
42220,-0.47748,-0.30002,-2.85146,0
42240,-0.478361,-0.295572,-2.85215,0
42260,-0.479796,-0.289623,-2.85226,0
42280,-0.480672,-0.28306,-2.85219,0
42300,-0.480536,-0.276329,-2.85198,0
42320,-0.479767,-0.269546,-2.85236,0
42340,-0.478757,-0.263119,-2.85305,0
42360,-0.477717,-0.256825,-2.85426,0
42380,-0.477625,-0.250597,-2.85511,0
42400,-0.477754,-0.244104,-2.85601,0
42420,-0.477861,-0.237175,-2.85664,0
42440,-0.478403,-0.229745,-2.8581,0
42460,-0.479788,-0.221776,-2.86038,0
42480,-0.480495,-0.213077,-2.86303,0
42490,-0.481045,-0.205022,-2.86502,0
42520,-0.483292,-0.199377,-2.86606,0
42540,-0.485908,-0.195631,-2.86773,0
42560,-0.488562,-0.192416,-2.87165,0
42580,-0.490864,-0.188648,-2.87679,0
42600,-0.493643,-0.187386,-2.88133,0
42620,-0.496069,-0.190609,-2.8841,0
42640,-0.49779,-0.195861,-2.88696,0
42660,-0.499742,-0.201437,-2.89019,0
42680,-0.499367,-0.208145,-2.89392,0
42700,-0.4969,-0.217122,-2.89565,0
42720,-0.493369,-0.230116,-2.89499,0
42740,-0.490401,-0.243825,-2.89486,0
42760,-0.487701,-0.253573,-2.89653,0
42780,-0.485173,-0.259417,-2.89806,0
42800,-0.480816,-0.262439,-2.89721,0
42820,-0.473911,-0.263587,-2.89384,0
42840,-0.467819,-0.263904,-2.88867,0
42860,-0.465398,-0.263983,-2.88162,0
42880,-0.466509,-0.264467,-2.87384,0
42900,-0.470303,-0.264404,-2.8655,0
42920,-0.475123,-0.26395,-2.85664,0
42940,-0.480178,-0.263094,-2.84683,0
42960,-0.484786,-0.26255,-2.83718,0
42980,-0.487967,-0.262689,-2.82825,0
43000,-0.491398,-0.26383,-2.81935,0
43020,-0.49424,-0.266376,-2.81017,0
43040,-0.495538,-0.270531,-2.80195,0
43060,-0.496192,-0.275628,-2.79409,0
43080,-0.496261,-0.281896,-2.78634,0
43100,-0.494056,-0.288844,-2.77944,0
43120,-0.489897,-0.296329,-2.77291,0
43140,-0.485734,-0.304098,-2.76631,0
43160,-0.482149,-0.311283,-2.75965,0
43180,-0.479538,-0.316262,-2.75356,0
43200,-0.477326,-0.318783,-2.74842,0
43220,-0.474043,-0.318173,-2.74552,0
43240,-0.468751,-0.314164,-2.74408,0
43260,-0.464316,-0.310219,-2.74229,0
43280,-0.460888,-0.308345,-2.7399,0
43300,-0.458014,-0.309252,-2.73745,0
43320,-0.456531,-0.312756,-2.73678,0
43340,-0.45674,-0.317947,-2.73874,0
43360,-0.457196,-0.324063,-2.74293,0
43380,-0.456423,-0.329795,-2.74876,0
43400,-0.454391,-0.33525,-2.75542,0
43420,-0.450981,-0.339945,-2.76261,0
43440,-0.447518,-0.343796,-2.76896,0
43460,-0.444091,-0.346492,-2.77474,0
43480,-0.440476,-0.347364,-2.77989,0
43500,-0.437421,-0.346253,-2.784,0
43520,-0.436694,-0.344254,-2.78658,0
43540,-0.436945,-0.341672,-2.7882,0
43560,-0.43644,-0.338731,-2.78876,0
43580,-0.434751,-0.334442,-2.79011,0
43580,-0.431326,-0.326057,-2.79118,0
43600,-0.430394,-0.316266,-2.78867,0
43620,-0.4318,-0.309613,-2.78338,0
43640,-0.434994,-0.306578,-2.77613,0
43640,-0.439771,-0.30761,-2.76855,0
43660,-0.443405,-0.311042,-2.76378,0
43680,-0.445591,-0.314775,-2.7608,0
43700,-0.448387,-0.318487,-2.75943,0
43700,-0.45288,-0.322481,-2.75758,0
43750,-0.45748,-0.327246,-2.75504,0
43800,-0.460834,-0.332372,-2.75271,0
43820,-0.461512,-0.335468,-2.75175,0
43840,-0.460006,-0.336261,-2.75189,0
43860,-0.459055,-0.337558,-2.75174,0
43880,-0.460185,-0.341984,-2.75065,0
43900,-0.46232,-0.348025,-2.74921,0
43920,-0.464774,-0.35362,-2.74769,0
43930,-0.468102,-0.359224,-2.74628,0
43950,-0.470045,-0.365417,-2.74661,0
43970,-0.470234,-0.371714,-2.74797,0
43990,-0.470098,-0.378282,-2.74979,0
44010,-0.469718,-0.383804,-2.7521,0
44030,-0.469211,-0.387611,-2.75428,0
44050,-0.467915,-0.389671,-2.75635,0
44070,-0.465295,-0.390734,-2.75766,0
44090,-0.463968,-0.391409,-2.75742,0
44110,-0.463122,-0.391683,-2.75687,0
44130,-0.462166,-0.391275,-2.75672,0
44150,-0.461646,-0.39034,-2.75629,0
44170,-0.461704,-0.389796,-2.75555,0
44190,-0.461687,-0.390378,-2.75515,0
44210,-0.461414,-0.391642,-2.75537,0
44230,-0.461119,-0.393254,-2.75601,0
44250,-0.460496,-0.395738,-2.75679,0
44270,-0.459041,-0.399468,-2.75794,0
44290,-0.458505,-0.403721,-2.75845,0
44310,-0.458751,-0.408232,-2.75877,0
44330,-0.459246,-0.411961,-2.75874,0
44350,-0.460026,-0.415878,-2.75843,0
44370,-0.460404,-0.419441,-2.75876,0
44390,-0.459441,-0.422285,-2.75912,0
44410,-0.458644,-0.424249,-2.75909,0
44430,-0.457703,-0.4257,-2.75847,0
44450,-0.456475,-0.426652,-2.75766,0
44470,-0.454953,-0.427225,-2.75666,0
44490,-0.454016,-0.427193,-2.75516,0
44510,-0.4548,-0.427083,-2.75308,0
44530,-0.456329,-0.427234,-2.75027,0
44550,-0.458697,-0.427173,-2.74763,0
44570,-0.461775,-0.427376,-2.74494,0
44590,-0.464962,-0.428094,-2.74232,0
44610,-0.467972,-0.429154,-2.73986,0
44630,-0.471026,-0.429867,-2.7378,0
44650,-0.473491,-0.430584,-2.73601,0
44670,-0.476048,-0.431224,-2.73386,0
44690,-0.478775,-0.432006,-2.73124,0
44710,-0.48133,-0.432815,-2.72931,0
44730,-0.483848,-0.433822,-2.72769,0
44750,-0.486605,-0.436011,-2.72683,0
44770,-0.489278,-0.438276,-2.72632,0
44790,-0.492166,-0.440988,-2.72551,0
44810,-0.495674,-0.444715,-2.72488,0
44830,-0.498874,-0.448749,-2.72478,0
44850,-0.502227,-0.453073,-2.72432,0
44870,-0.505574,-0.457743,-2.72345,0
44890,-0.509355,-0.462781,-2.72219,0
44910,-0.513198,-0.467218,-2.72175,0
44930,-0.516628,-0.469976,-2.722,0
44950,-0.519973,-0.471939,-2.72222,0
44970,-0.522279,-0.473338,-2.72282,0
44990,-0.524135,-0.474732,-2.7231,0
45010,-0.525104,-0.476059,-2.72369,0
45030,-0.526065,-0.477453,-2.72447,0
45050,-0.527808,-0.478663,-2.72501,0
45070,-0.529515,-0.480174,-2.72506,0
45090,-0.52977,-0.481233,-2.72515,0
45110,-0.52958,-0.482257,-2.7254,0
45130,-0.529314,-0.483767,-2.72593,0
45150,-0.528896,-0.48475,-2.72698,0
45170,-0.52892,-0.485522,-2.72804,0
45190,-0.5295,-0.485816,-2.72855,0
45210,-0.529624,-0.4861,-2.72875,0
45230,-0.528237,-0.485839,-2.72968,0
45250,-0.527256,-0.485302,-2.73027,0
45270,-0.525796,-0.484756,-2.73114,0
45290,-0.524969,-0.483652,-2.73165,0
45310,-0.524441,-0.482628,-2.73158,0
45330,-0.523966,-0.482097,-2.73134,0
45350,-0.524163,-0.481321,-2.73094,0
45370,-0.524675,-0.480897,-2.73005,0
45390,-0.524957,-0.480951,-2.7292,0
45410,-0.524207,-0.481069,-2.72868,0
45430,-0.523108,-0.481226,-2.72862,0
45450,-0.521179,-0.481129,-2.72878,0
45470,-0.519602,-0.481644,-2.72884,0
45490,-0.518005,-0.482004,-2.72881,0
45510,-0.516056,-0.482521,-2.72924,0
45530,-0.514425,-0.482296,-2.72963,0
45550,-0.514219,-0.482162,-2.72941,0
45570,-0.513532,-0.481771,-2.72962,0
45590,-0.512943,-0.480803,-2.72978,0
45610,-0.512273,-0.479252,-2.73022,0
45630,-0.511435,-0.477747,-2.73079,0
45650,-0.510567,-0.476516,-2.73132,0
45670,-0.509238,-0.474847,-2.73206,0
45690,-0.507769,-0.472861,-2.73251,0
45710,-0.506164,-0.47139,-2.73266,0
45730,-0.505036,-0.469929,-2.73255,0
45750,-0.504278,-0.468223,-2.73222,0
45770,-0.503698,-0.465862,-2.73205,0
45790,-0.503346,-0.462274,-2.73187,0
45810,-0.503302,-0.456972,-2.73156,0
45830,-0.505551,-0.449901,-2.73002,0
45850,-0.50909,-0.440088,-2.72801,0
45870,-0.514405,-0.42711,-2.72614,0
45890,-0.520694,-0.410924,-2.72507,0
45910,-0.526725,-0.391741,-2.72464,0
45930,-0.524964,-0.372813,-2.72612,0
45950,-0.523058,-0.354564,-2.72682,0
45970,-0.521348,-0.33802,-2.7273,0
45990,-0.519077,-0.322478,-2.72869,0
46010,-0.51644,-0.308307,-2.7299,0
46030,-0.513445,-0.296155,-2.73196,0
46050,-0.509653,-0.286445,-2.73376,0
46070,-0.506367,-0.279371,-2.7353,0
46090,-0.503353,-0.274275,-2.73652,0
46110,-0.499909,-0.270633,-2.738,0
46120,-0.496296,-0.268399,-2.73926,0
46140,-0.492794,-0.266599,-2.74074,0
46140,-0.490634,-0.265872,-2.74168,0
46160,-0.48954,-0.266217,-2.74181,0
46200,-0.48941,-0.266675,-2.74087,0
46230,-0.489364,-0.267686,-2.73894,0
46250,-0.488584,-0.269343,-2.73698,0
46270,-0.487569,-0.271843,-2.73513,0
46290,-0.488373,-0.274685,-2.73324,0
46310,-0.489813,-0.277699,-2.73147,0
46330,-0.491192,-0.280654,-2.72937,0
46350,-0.491608,-0.283878,-2.72656,0
46370,-0.491268,-0.287858,-2.72414,0
46390,-0.491545,-0.292072,-2.7215,0
46400,-0.492777,-0.296322,-2.71921,0
46420,-0.494742,-0.300721,-2.71633,0
46430,-0.495939,-0.305457,-2.71318,0
46440,-0.496657,-0.310639,-2.70984,0
46460,-0.497318,-0.315794,-2.70629,0
46480,-0.498402,-0.321393,-2.70267,0
46500,-0.500125,-0.327564,-2.69799,0
46500,-0.50241,-0.333659,-2.69274,0
46520,-0.50425,-0.339299,-2.688,0
46540,-0.505424,-0.344196,-2.68297,0
46540,-0.508006,-0.349226,-2.67788,0
46600,-0.509844,-0.354261,-2.67334,0
46640,-0.511446,-0.359271,-2.67089,0
46660,-0.513313,-0.364253,-2.66909,0
46680,-0.517477,-0.36805,-2.66456,0
46700,-0.520925,-0.372058,-2.66274,0
46720,-0.52408,-0.373781,-2.65888,0
46740,-0.528916,-0.376425,-2.65579,0
46760,-0.531048,-0.379843,-2.65254,0
46780,-0.533983,-0.381651,-2.64887,0
46800,-0.536569,-0.385542,-2.64694,0
46820,-0.54023,-0.388556,-2.64392,0
46840,-0.543461,-0.391716,-2.6423,0
46860,-0.547028,-0.394352,-2.64041,0
46880,-0.549865,-0.396718,-2.63794,0
46900,-0.551584,-0.398466,-2.63648,0
46920,-0.55289,-0.399893,-2.63674,0
46940,-0.553665,-0.40043,-2.63739,0
46960,-0.554634,-0.400046,-2.6372,0
46980,-0.555624,-0.400055,-2.63749,0
47000,-0.555651,-0.400206,-2.63758,0
47020,-0.555196,-0.40028,-2.63747,0
47040,-0.553413,-0.400355,-2.63917,0
47060,-0.551465,-0.400363,-2.64101,0
47080,-0.550656,-0.40105,-2.64147,0
47100,-0.550879,-0.402112,-2.6404,0
47120,-0.551166,-0.403056,-2.63891,0
47140,-0.551422,-0.404901,-2.63716,0
47160,-0.552488,-0.406928,-2.63458,0
47180,-0.553978,-0.409031,-2.63262,0
47200,-0.554357,-0.409797,-2.63214,0
47220,-0.554096,-0.410478,-2.63138,0
47240,-0.553915,-0.411232,-2.62972,0
47260,-0.554438,-0.412121,-2.62823,0
47280,-0.555038,-0.413316,-2.628,0
47300,-0.556686,-0.412383,-2.6272,0
47320,-0.556628,-0.41226,-2.62723,0
47340,-0.556255,-0.41222,-2.62615,0
47360,-0.556439,-0.412201,-2.6245,0
47380,-0.556604,-0.412716,-2.62396,0
47400,-0.557307,-0.412953,-2.62323,0
47420,-0.557731,-0.412997,-2.62265,0
47440,-0.558109,-0.41316,-2.62195,0
47460,-0.557759,-0.413242,-2.62195,0
47480,-0.557387,-0.413288,-2.62185,0
47500,-0.557882,-0.413246,-2.62151,0
47520,-0.557986,-0.413522,-2.62101,0
47540,-0.558533,-0.41357,-2.61999,0
47560,-0.558593,-0.413608,-2.61899,0
47580,-0.559054,-0.413833,-2.61751,0
47600,-0.559956,-0.414461,-2.61692,0
47620,-0.562057,-0.414822,-2.61742,0
47640,-0.564452,-0.414892,-2.61697,0
47660,-0.565395,-0.415161,-2.6149,0
47680,-0.565347,-0.415518,-2.61352,0
47700,-0.565056,-0.416621,-2.61444,0
47720,-0.564835,-0.418958,-2.61833,0
47740,-0.565618,-0.421517,-2.62458,0
47760,-0.565785,-0.423705,-2.63104,0
47780,-0.567844,-0.422841,-2.63541,0
47800,-0.567731,-0.418936,-2.63787,0
47820,-0.565174,-0.414037,-2.64025,0
47840,-0.563361,-0.408655,-2.64302,0
47860,-0.564943,-0.404465,-2.6489,0
47880,-0.567602,-0.401368,-2.65502,0
47900,-0.570604,-0.398942,-2.6607,0
47920,-0.572453,-0.395395,-2.66853,0
47940,-0.57488,-0.390111,-2.67782,0
47960,-0.575959,-0.382693,-2.68766,0
47980,-0.577515,-0.370915,-2.69845,0
48000,-0.581554,-0.35425,-2.71187,0
48020,-0.591441,-0.332453,-2.72551,0
48040,-0.598603,-0.308473,-2.74184,0
48060,-0.599816,-0.283131,-2.76054,0
48080,-0.598354,-0.253223,-2.77224,0
48100,-0.601198,-0.22299,-2.78123,0
48120,-0.60574,-0.19539,-2.79019,0
48140,-0.608736,-0.170753,-2.80044,0
48160,-0.608993,-0.14932,-2.811,0
48180,-0.606789,-0.1278,-2.82114,0
48200,-0.602927,-0.107014,-2.82972,0
48220,-0.59906,-0.0871736,-2.83612,0
48240,-0.597866,-0.0703886,-2.84217,0
48260,-0.590721,-0.0548432,-2.84949,0
48280,-0.584337,-0.0378849,-2.85583,0
48300,-0.57709,-0.0232389,-2.85952,0
48320,-0.56956,-0.0125259,-2.86371,0
48340,-0.563471,-0.00379319,-2.86921,0
48360,-0.560965,0.00397,-2.87402,0
48380,-0.55954,0.00937325,-2.87905,0
48400,-0.558889,0.0127616,-2.88211,0
48420,-0.557972,0.015,-2.88638,0
48440,-0.559539,0.0155509,-2.89094,0
48460,-0.563118,0.0169157,-2.89444,0
48480,-0.567408,0.0186425,-2.89826,0
48500,-0.568336,0.0207478,-2.90284,0
48520,-0.560803,0.0235355,-2.9046,0
48540,-0.55088,0.027453,-2.90543,0
48560,-0.543223,0.0305523,-2.90604,0
48580,-0.535119,0.0311327,-2.90635,0
48600,-0.526569,0.029931,-2.90692,0
48620,-0.523281,0.028532,-2.90684,0
48640,-0.523242,0.0259002,-2.90526,0
48660,-0.527803,0.0206614,-2.90505,0
48680,-0.533905,0.0177897,-2.90336,0
48700,-0.54054,0.015119,-2.90121,0
48720,-0.545975,0.0118807,-2.89782,0
48740,-0.554808,0.00944396,-2.89498,0
48760,-0.564873,0.0074842,-2.89152,0
48780,-0.57516,0.00491295,-2.88901,0
48800,-0.586134,0.00350654,-2.88939,0
48820,-0.594528,0.00218904,-2.88877,0
48840,-0.599482,-7.21812e-05,-2.88479,0
48860,-0.605452,-0.00544258,-2.87969,0
48880,-0.611329,-0.0109086,-2.87448,0
48900,-0.614106,-0.0141266,-2.86619,0
48920,-0.620175,-0.0160905,-2.85668,0
48940,-0.625913,-0.0216209,-2.8502,0
48960,-0.62618,-0.0282495,-2.84309,0
48980,-0.619105,-0.0337207,-2.83541,0
49000,-0.610224,-0.0425998,-2.82722,0
49020,-0.605158,-0.054942,-2.82059,0
49040,-0.602017,-0.0704878,-2.81297,0
49060,-0.597077,-0.0869963,-2.80316,0
49080,-0.590832,-0.104931,-2.79193,0
49100,-0.586012,-0.123738,-2.78014,0
49120,-0.581573,-0.14342,-2.76899,0
49140,-0.576869,-0.162322,-2.75778,0
49150,-0.574525,-0.181728,-2.74619,0
49170,-0.571092,-0.199476,-2.73369,0
49190,-0.568025,-0.215153,-2.72212,0
49210,-0.56613,-0.230631,-2.71024,0
49230,-0.566526,-0.245645,-2.69841,0
49250,-0.565861,-0.260897,-2.68741,0
49270,-0.566024,-0.275364,-2.67625,0
49290,-0.566553,-0.288378,-2.66721,0
49310,-0.568792,-0.300969,-2.65713,0
49330,-0.573514,-0.312001,-2.64644,0
49350,-0.576328,-0.322787,-2.63521,0
49370,-0.577736,-0.333092,-2.62548,0
49390,-0.57853,-0.341775,-2.61772,0
49410,-0.579118,-0.349021,-2.61146,0
49420,-0.578885,-0.35667,-2.60437,0
49440,-0.57876,-0.362911,-2.5965,0
49460,-0.57789,-0.36734,-2.58772,0
49470,-0.578763,-0.371131,-2.57841,0
49480,-0.580771,-0.374818,-2.5692,0
49500,-0.584235,-0.378897,-2.56181,0
49520,-0.589845,-0.381652,-2.55569,0
49570,-0.596092,-0.382498,-2.54821,0
49590,-0.599116,-0.382224,-2.53969,0
49610,-0.601593,-0.381157,-2.53039,0
49630,-0.604938,-0.381149,-2.52066,0
49650,-0.60964,-0.379671,-2.51218,0
49670,-0.614116,-0.37743,-2.50444,0
49690,-0.618844,-0.376635,-2.49831,0
49710,-0.620569,-0.376528,-2.49275,0
49730,-0.620709,-0.376497,-2.4885,0
49750,-0.621767,-0.375997,-2.48507,0
49770,-0.623528,-0.374723,-2.48054,0
49790,-0.624615,-0.374505,-2.4739,0
49810,-0.624781,-0.375729,-2.46906,0
49830,-0.625393,-0.375486,-2.46667,0
49850,-0.627067,-0.372306,-2.464,0
49860,-0.628667,-0.369386,-2.45958,0
49880,-0.628764,-0.368498,-2.45527,0
49900,-0.629434,-0.367856,-2.45037,0
49920,-0.630838,-0.367293,-2.44614,0
49920,-0.633327,-0.36642,-2.44357,0
49940,-0.635301,-0.36559,-2.44118,0
49960,-0.637391,-0.365848,-2.43768,0
49980,-0.641024,-0.367252,-2.43492,0
49980,-0.644119,-0.368291,-2.43287,0
50000,-0.644727,-0.367762,-2.43057,0
50020,-0.644828,-0.367141,-2.42841,0
50040,-0.648269,-0.368176,-2.42572,0
50040,-0.653469,-0.3691,-2.42259,0
50060,-0.657019,-0.367891,-2.41871,0
50080,-0.659669,-0.366329,-2.41411,0
50100,-0.662117,-0.364309,-2.41078,0
50100,-0.664294,-0.362491,-2.40787,0
50120,-0.665018,-0.360382,-2.4053,0
50140,-0.665169,-0.357774,-2.40288,0
50160,-0.666326,-0.356824,-2.40038,0
50160,-0.667955,-0.356008,-2.39891,0
50180,-0.668782,-0.355166,-2.39846,0
50200,-0.667304,-0.354485,-2.39787,0
50220,-0.66535,-0.354967,-2.39726,0
50230,-0.664162,-0.355347,-2.39719,0
50320,-0.664505,-0.355913,-2.39652,0
50350,-0.664625,-0.357,-2.39591,0
50380,-0.665364,-0.357751,-2.39588,0
50400,-0.667761,-0.357192,-2.39574,0
50420,-0.670025,-0.355395,-2.39566,0
50440,-0.672118,-0.354033,-2.39588,0
50460,-0.674137,-0.353356,-2.3959,0
50480,-0.674834,-0.353251,-2.39583,0
50500,-0.674884,-0.352532,-2.39592,0
50520,-0.674306,-0.351578,-2.39545,0
50540,-0.674056,-0.352032,-2.39621,0
50560,-0.677107,-0.351825,-2.39657,0
50580,-0.682936,-0.349566,-2.39554,0
50600,-0.688629,-0.346127,-2.39482,0
50620,-0.690389,-0.341395,-2.39357,0
50640,-0.685303,-0.336173,-2.39455,0
50660,-0.678215,-0.329344,-2.39848,0
50680,-0.672141,-0.322914,-2.4039,0
50700,-0.66999,-0.315237,-2.4085,0
50720,-0.66801,-0.307968,-2.41316,0
50740,-0.662386,-0.301893,-2.41767,0
50760,-0.654864,-0.29956,-2.42111,0
50780,-0.646589,-0.29836,-2.42568,0
50800,-0.637028,-0.29571,-2.43122,0
50820,-0.629044,-0.292353,-2.43715,0
50840,-0.623851,-0.289113,-2.44223,0
50860,-0.61909,-0.287479,-2.44913,0
50880,-0.613723,-0.286465,-2.45869,0
50900,-0.607554,-0.283504,-2.47057,0
50920,-0.601654,-0.281609,-2.48115,0
50940,-0.595253,-0.28422,-2.48951,0
50960,-0.586558,-0.28714,-2.49935,0
50980,-0.579035,-0.288197,-2.51,0
51000,-0.57392,-0.288999,-2.52097,0
51020,-0.569613,-0.291791,-2.53111,0
51040,-0.565281,-0.296377,-2.53932,0
51060,-0.560614,-0.300527,-2.54609,0
51080,-0.556499,-0.305156,-2.55281,0
51100,-0.552807,-0.310538,-2.55931,0
51120,-0.550158,-0.316514,-2.56499,0
51140,-0.547596,-0.321687,-2.57088,0
51160,-0.544336,-0.327092,-2.57655,0
51180,-0.541283,-0.333051,-2.58088,0
51200,-0.538167,-0.339313,-2.58477,0
51220,-0.535366,-0.345127,-2.58889,0
51240,-0.534047,-0.350748,-2.59315,0
51260,-0.531574,-0.356137,-2.59772,0
51270,-0.529923,-0.360731,-2.60137,0
51300,-0.527947,-0.364622,-2.6041,0
51310,-0.526229,-0.368181,-2.60614,0
51330,-0.524697,-0.372126,-2.60833,0
51340,-0.523307,-0.375356,-2.61055,0
51350,-0.521989,-0.378438,-2.6128,0
51370,-0.52042,-0.381186,-2.61512,0
51390,-0.518486,-0.383581,-2.61677,0
51410,-0.516741,-0.386316,-2.61826,0
51410,-0.515235,-0.388794,-2.61946,0
51430,-0.514469,-0.390935,-2.62046,0
51450,-0.513527,-0.393168,-2.62115,0
51470,-0.512719,-0.395201,-2.62164,0
51530,-0.512293,-0.397198,-2.62168,0
51560,-0.512802,-0.399072,-2.62149,0
51580,-0.51309,-0.400339,-2.62139,0
51600,-0.51298,-0.401395,-2.62113,0
51620,-0.513106,-0.402424,-2.62097,0
51640,-0.513287,-0.403272,-2.62072,0
51660,-0.513056,-0.403719,-2.62067,0
51680,-0.512859,-0.404256,-2.62049,0
51700,-0.512111,-0.404767,-2.62089,0
51710,-0.511075,-0.404605,-2.62163,0
51730,-0.510163,-0.404283,-2.62173,0
51750,-0.509531,-0.404099,-2.62146,0
51770,-0.508718,-0.404065,-2.62108,0
51790,-0.508469,-0.404306,-2.62073,0
51810,-0.509097,-0.404778,-2.62041,0
51830,-0.510735,-0.404861,-2.61987,0
51850,-0.511822,-0.40484,-2.61829,0
51870,-0.512839,-0.404908,-2.61649,0
51890,-0.515413,-0.404379,-2.61469,0
51910,-0.518869,-0.403311,-2.61325,0
51930,-0.523983,-0.401275,-2.61091,0
51950,-0.528113,-0.398307,-2.6077,0
51970,-0.529723,-0.39458,-2.60411,0
51990,-0.532491,-0.390977,-2.59982,0
52010,-0.537704,-0.388035,-2.59501,0
52030,-0.543471,-0.385584,-2.59065,0
52030,-0.549097,-0.382793,-2.58596,0
52050,-0.553101,-0.381048,-2.58128,0
52070,-0.554714,-0.38049,-2.57702,0
52090,-0.556287,-0.380226,-2.57281,0
52090,-0.558908,-0.379704,-2.56799,0
52110,-0.561848,-0.380437,-2.56194,0
52130,-0.564805,-0.381496,-2.55552,0
52150,-0.567689,-0.382041,-2.54867,0
52150,-0.569713,-0.382824,-2.54137,0
52170,-0.571042,-0.384691,-2.5338,0
52190,-0.573293,-0.387239,-2.52596,0
52200,-0.576166,-0.389348,-2.51763,0
52210,-0.578865,-0.391037,-2.50963,0
52230,-0.582415,-0.392722,-2.50093,0
52250,-0.585407,-0.395108,-2.49214,0
52290,-0.587103,-0.396878,-2.48459,0
52350,-0.590121,-0.398354,-2.47735,0
52390,-0.592764,-0.399265,-2.47081,0
52410,-0.593391,-0.399555,-2.46513,0
52430,-0.5938,-0.399789,-2.45957,0
52450,-0.595477,-0.400492,-2.45335,0
52470,-0.59683,-0.400259,-2.44763,0
52490,-0.598775,-0.400042,-2.44273,0
52510,-0.600532,-0.400451,-2.43899,0
52530,-0.601846,-0.399388,-2.43686,0
52550,-0.603733,-0.397114,-2.43463,0
52570,-0.604621,-0.395534,-2.43221,0
52590,-0.603546,-0.393863,-2.43036,0
52610,-0.602237,-0.392715,-2.42861,0
52630,-0.602321,-0.39243,-2.42698,0
52650,-0.602464,-0.392803,-2.42575,0
52650,-0.602033,-0.393203,-2.42507,0
52690,-0.602684,-0.393805,-2.42428,0
52710,-0.603374,-0.394453,-2.42376,0
52730,-0.603908,-0.394554,-2.42432,0
52750,-0.604225,-0.393753,-2.42438,0
52770,-0.604187,-0.393707,-2.4241,0
52790,-0.603169,-0.393149,-2.42343,0
52810,-0.602961,-0.392856,-2.42249,0
52830,-0.603654,-0.393603,-2.42177,0
52850,-0.604062,-0.393876,-2.42113,0
52870,-0.605363,-0.393993,-2.41979,0
52890,-0.607989,-0.395045,-2.41762,0
52910,-0.609224,-0.396698,-2.41549,0
52930,-0.609479,-0.396956,-2.4128,0
52950,-0.611276,-0.396842,-2.41003,0
52970,-0.614383,-0.396774,-2.40746,0
52990,-0.615843,-0.396477,-2.40588,0
53010,-0.616503,-0.395883,-2.40434,0
53030,-0.617259,-0.395851,-2.40232,0
53050,-0.617904,-0.395794,-2.40063,0
53070,-0.618929,-0.395524,-2.39917,0
53090,-0.619873,-0.395035,-2.39795,0
53110,-0.619866,-0.394182,-2.39681,0
53130,-0.619584,-0.392993,-2.39513,0
53150,-0.619269,-0.392136,-2.39413,0
53170,-0.618953,-0.391418,-2.3937,0
53170,-0.619394,-0.390708,-2.3926,0
53190,-0.619854,-0.39027,-2.39145,0
53210,-0.618943,-0.390527,-2.39124,0
53230,-0.620243,-0.392983,-2.3896,0
53270,-0.619267,-0.392015,-2.39013,0
53290,-0.621153,-0.395212,-2.38874,0
53290,-0.621545,-0.395366,-2.38761,0
53330,-0.621647,-0.39633,-2.38696,0
53350,-0.62091,-0.396696,-2.38683,0
53370,-0.62179,-0.3972,-2.38602,0
53390,-0.623647,-0.397627,-2.38561,0
53410,-0.62483,-0.398199,-2.38488,0
53430,-0.624674,-0.398598,-2.38401,0
53450,-0.625187,-0.399319,-2.38351,0
53470,-0.626447,-0.39937,-2.38312,0
53490,-0.627143,-0.398953,-2.38242,2000
53510,-0.627261,-0.398837,-2.38153,0
53530,-0.627494,-0.398487,-2.3816,0
53550,-0.627481,-0.397772,-2.38105,0
53570,-0.627471,-0.396918,-2.37992,0
53590,-0.626638,-0.397533,-2.37951,0
53610,-0.62635,-0.398179,-2.37997,0
53630,-0.626699,-0.398254,-2.37955,0
53650,-0.626506,-0.398511,-2.37918,0
53670,-0.626689,-0.398954,-2.37886,0
53690,-0.627735,-0.399388,-2.37797,0
53710,-0.627788,-0.399467,-2.37782,0
53730,-0.627965,-0.399435,-2.37732,0
53750,-0.627927,-0.399622,-2.37631,0
53770,-0.628067,-0.399919,-2.37594,0
53790,-0.627437,-0.400213,-2.37568,0
53810,-0.626367,-0.400471,-2.3752,0
53830,-0.625777,-0.400672,-2.37464,0
53850,-0.62602,-0.401198,-2.37473,0
53870,-0.625666,-0.40145,-2.37408,0
53890,-0.624466,-0.401746,-2.37303,0
53910,-0.623591,-0.401985,-2.37274,0
53930,-0.623974,-0.402102,-2.37203,0
53950,-0.624309,-0.402543,-2.37131,0
53970,-0.623585,-0.403015,-2.37043,0
53990,-0.622786,-0.403372,-2.36956,0
54010,-0.622765,-0.403499,-2.36889,0
54030,-0.623122,-0.403273,-2.36844,0
54050,-0.622701,-0.403109,-2.36778,0
54070,-0.623209,-0.403654,-2.36658,0
54090,-0.623229,-0.404229,-2.36601,0
54110,-0.623647,-0.404319,-2.36577,0
54130,-0.623723,-0.404435,-2.36519,0
54150,-0.622956,-0.404601,-2.36478,0
54170,-0.621972,-0.405057,-2.36464,0
54190,-0.621091,-0.405367,-2.36457,0
54210,-0.620316,-0.405599,-2.36383,0
54230,-0.619604,-0.405777,-2.36292,0
54250,-0.619517,-0.405654,-2.3617,0
54270,-0.619888,-0.405531,-2.3605,0
54290,-0.620194,-0.405762,-2.35894,0
54310,-0.6208,-0.406058,-2.35747,0
54320,-0.621587,-0.405787,-2.35566,0
54340,-0.622238,-0.40592,-2.35299,0
54360,-0.622628,-0.407041,-2.35095,0
54380,-0.623094,-0.407809,-2.34939,0
54400,-0.623655,-0.408023,-2.34753,0
54420,-0.624149,-0.409131,-2.34558,0
54440,-0.624458,-0.410031,-2.34376,0
54460,-0.624452,-0.410328,-2.3419,0
54480,-0.624831,-0.41057,-2.33984,0
54500,-0.625839,-0.411647,-2.33795,0
54520,-0.625678,-0.411777,-2.33646,0
54540,-0.62565,-0.411131,-2.33492,0
54560,-0.626096,-0.411083,-2.33301,0
54580,-0.626616,-0.411824,-2.33138,0
54600,-0.626675,-0.411966,-2.32966,0
54620,-0.626752,-0.411911,-2.32772,0
54640,-0.627355,-0.412466,-2.32604,0
54660,-0.628003,-0.412928,-2.32471,0
54680,-0.628808,-0.413018,-2.32329,0
54700,-0.629676,-0.41312,-2.32138,0
54720,-0.630129,-0.41411,-2.31946,0
54740,-0.630254,-0.415002,-2.31787,0
54760,-0.630504,-0.415483,-2.3166,0
54780,-0.631145,-0.415772,-2.31514,0
54800,-0.631921,-0.41669,-2.31342,0
54820,-0.632066,-0.418188,-2.31189,0
54840,-0.631846,-0.419182,-2.31075,0
54860,-0.632456,-0.419259,-2.309,0
54880,-0.633576,-0.419535,-2.307,0
54900,-0.634305,-0.420375,-2.30545,0
54920,-0.634795,-0.421167,-2.30398,0
54940,-0.634928,-0.421387,-2.30266,0
54960,-0.635542,-0.421396,-2.30125,0
54980,-0.636138,-0.421672,-2.29962,0
55000,-0.635878,-0.422288,-2.29805,0
55020,-0.635366,-0.422925,-2.29679,0
55040,-0.635612,-0.423736,-2.29563,0
55060,-0.636274,-0.424459,-2.2941,0
55080,-0.636375,-0.42447,-2.2925,0
55100,-0.636081,-0.424618,-2.29132,0
55120,-0.636398,-0.42494,-2.29008,0
55140,-0.635965,-0.425328,-2.28911,0
55160,-0.634434,-0.425821,-2.28863,0
55180,-0.633586,-0.426502,-2.2876,0
55200,-0.633191,-0.427871,-2.28639,0
55220,-0.632765,-0.429267,-2.28526,0
55240,-0.632399,-0.430876,-2.28386,0
55260,-0.632505,-0.431964,-2.28234,0
55280,-0.63263,-0.43286,-2.28059,0
55300,-0.632233,-0.434025,-2.27855,0
55320,-0.632363,-0.435624,-2.27662,0
55340,-0.632633,-0.43728,-2.27517,0
55360,-0.63275,-0.43854,-2.27433,0
55380,-0.63227,-0.439567,-2.27335,0
55400,-0.63192,-0.440509,-2.27167,0
55420,-0.631899,-0.441517,-2.26943,0
55440,-0.63097,-0.442535,-2.26765,0
55460,-0.630037,-0.443722,-2.26655,0
55480,-0.629589,-0.444787,-2.26581,0
55500,-0.629841,-0.445536,-2.26427,0
55520,-0.629582,-0.446161,-2.26265,0
55540,-0.628401,-0.44674,-2.26173,0
55560,-0.627176,-0.447151,-2.26123,0
55580,-0.626251,-0.447601,-2.26089,0
55600,-0.626149,-0.448421,-2.26037,0
55620,-0.626103,-0.448157,-2.25906,0
55640,-0.625962,-0.447942,-2.25718,0
55660,-0.625523,-0.448779,-2.25609,0
55680,-0.625372,-0.4507,-2.25626,0
55700,-0.6251,-0.45166,-2.25603,0
55720,-0.624984,-0.45222,-2.25491,0
55740,-0.624309,-0.453219,-2.25474,0
55760,-0.623913,-0.455138,-2.25445,0
55780,-0.62357,-0.456828,-2.25395,0
55800,-0.623018,-0.458044,-2.25367,0
55820,-0.622558,-0.459352,-2.25387,0
55840,-0.621516,-0.460462,-2.25417,0
55860,-0.619802,-0.461426,-2.25399,0
55880,-0.618582,-0.462843,-2.25401,0
55900,-0.618261,-0.464132,-2.25445,0
55920,-0.616865,-0.464976,-2.25567,0
55940,-0.615274,-0.465586,-2.25619,0
55960,-0.612909,-0.466109,-2.25689,0
55980,-0.611777,-0.467103,-2.25722,0
56000,-0.61034,-0.468541,-2.25772,0
56020,-0.608606,-0.469263,-2.25848,0
56040,-0.607495,-0.469524,-2.25892,0
56060,-0.606538,-0.47024,-2.25905,0
56080,-0.605617,-0.471308,-2.25938,0
56100,-0.60404,-0.472223,-2.25997,0
56120,-0.602304,-0.472801,-2.26084,0
56140,-0.600938,-0.473647,-2.26152,0
56160,-0.599443,-0.474912,-2.26247,0
56180,-0.597772,-0.475938,-2.26346,0
56200,-0.595839,-0.476311,-2.26508,0
56220,-0.593796,-0.477035,-2.26675,0
56240,-0.592415,-0.478196,-2.26828,0
56260,-0.591143,-0.479147,-2.26969,0
56280,-0.589041,-0.479844,-2.27129,0
56300,-0.587317,-0.48014,-2.27302,0
56320,-0.585563,-0.481313,-2.27457,0
56340,-0.583776,-0.483077,-2.27614,0
56360,-0.581997,-0.484827,-2.27844,0
56380,-0.580894,-0.486119,-2.28055,0
56400,-0.579808,-0.487488,-2.28234,0
56420,-0.578103,-0.488961,-2.28413,0
56440,-0.57557,-0.490711,-2.28655,0
56460,-0.574062,-0.492593,-2.28943,0
56480,-0.572773,-0.494176,-2.29203,0
56500,-0.570476,-0.495258,-2.29454,0
56520,-0.568052,-0.496808,-2.2971,0
56540,-0.565628,-0.499024,-2.30073,0
56560,-0.562998,-0.500604,-2.30469,0
56580,-0.560985,-0.501831,-2.30802,0
56600,-0.558838,-0.502788,-2.31131,0
56620,-0.555932,-0.503969,-2.3151,0
56640,-0.553147,-0.505246,-2.3188,0
56660,-0.551186,-0.506225,-2.32195,0
56680,-0.550044,-0.507168,-2.32485,0
56700,-0.548579,-0.507842,-2.32737,0
56720,-0.547705,-0.508777,-2.32994,0
56740,-0.546933,-0.509871,-2.333,0
56760,-0.546358,-0.510719,-2.33574,0
56780,-0.545695,-0.511624,-2.33792,0
56800,-0.544397,-0.513015,-2.34066,0
56820,-0.542276,-0.514563,-2.34433,0
56840,-0.540457,-0.516807,-2.34846,0
56860,-0.538821,-0.51971,-2.35256,0
56880,-0.536389,-0.521828,-2.3566,0
56900,-0.53305,-0.524031,-2.361,0
56910,-0.530768,-0.527197,-2.3656,0
56930,-0.529385,-0.53131,-2.37001,0
56950,-0.52887,-0.534933,-2.3741,0
56970,-0.52799,-0.537626,-2.37799,0
56990,-0.527725,-0.540388,-2.38178,0
57010,-0.527407,-0.543654,-2.38593,0
57030,-0.527357,-0.547262,-2.39008,0
57050,-0.527238,-0.550652,-2.39452,0
57070,-0.527174,-0.553422,-2.39901,0
57090,-0.52689,-0.55679,-2.40384,0
57110,-0.526283,-0.560578,-2.40888,0
57130,-0.52593,-0.564321,-2.41421,0
57150,-0.525381,-0.567007,-2.41984,0
57170,-0.524322,-0.569021,-2.42569,0
57190,-0.522594,-0.570662,-2.4317,0
57210,-0.520246,-0.572461,-2.43846,0
57230,-0.518194,-0.573945,-2.44557,0
57250,-0.515423,-0.574987,-2.45328,0
57270,-0.513079,-0.575433,-2.46071,0
57290,-0.511323,-0.575992,-2.46737,0
57310,-0.50886,-0.577358,-2.47428,0
57330,-0.506564,-0.57884,-2.4813,0
57350,-0.504684,-0.580322,-2.48825,0
57370,-0.503242,-0.582106,-2.49511,0
57390,-0.501443,-0.584296,-2.50146,0
57410,-0.499787,-0.587001,-2.50765,0
57430,-0.498019,-0.589923,-2.51428,0
57450,-0.496642,-0.593002,-2.52075,0
57470,-0.495336,-0.596296,-2.52689,0
57490,-0.4936,-0.59966,-2.53281,0
57510,-0.491936,-0.602792,-2.53852,0
57530,-0.490278,-0.60601,-2.54471,0
57550,-0.48889,-0.609277,-2.55085,0
57570,-0.487363,-0.612374,-2.55653,0
57590,-0.485849,-0.615403,-2.56199,0
57610,-0.484795,-0.618467,-2.5676,0
57630,-0.483319,-0.621342,-2.57312,0
57650,-0.481602,-0.624559,-2.57858,0
57670,-0.480021,-0.627626,-2.58369,0
57690,-0.478876,-0.630453,-2.58933,0
57710,-0.476882,-0.632863,-2.59496,0
57730,-0.474339,-0.635842,-2.6008,0
57750,-0.471541,-0.638888,-2.60694,0
57770,-0.469217,-0.641725,-2.61336,0
57790,-0.466828,-0.644584,-2.61993,0
57810,-0.464425,-0.647549,-2.62653,0
57830,-0.462571,-0.649599,-2.63309,0
57850,-0.460035,-0.651381,-2.64004,0
57870,-0.457488,-0.653057,-2.64703,0
57890,-0.454888,-0.654965,-2.65416,0
57910,-0.452775,-0.656876,-2.66156,0
57930,-0.450063,-0.65831,-2.669,0
57950,-0.44805,-0.660018,-2.67551,0
57970,-0.445934,-0.662342,-2.6824,0
57990,-0.444226,-0.664952,-2.68958,0
58010,-0.442872,-0.666897,-2.69659,0
58030,-0.441594,-0.668822,-2.70293,0
58050,-0.440652,-0.671227,-2.70886,0
58070,-0.439862,-0.673852,-2.71454,0
58090,-0.43912,-0.675888,-2.72,0
58110,-0.43795,-0.677575,-2.72556,0
58130,-0.436581,-0.679263,-2.73095,0
58150,-0.43503,-0.681387,-2.73641,0
58170,-0.432697,-0.682935,-2.74205,0
58190,-0.430692,-0.683926,-2.7476,0
58210,-0.427921,-0.683971,-2.75323,0
58230,-0.425214,-0.683608,-2.75858,0
58250,-0.422521,-0.683744,-2.76384,0
58270,-0.41819,-0.684368,-2.76924,0
58290,-0.414173,-0.684753,-2.7746,0
58310,-0.411499,-0.684777,-2.77914,0
58330,-0.410336,-0.68474,-2.78277,0
58350,-0.409671,-0.685124,-2.78678,0
58370,-0.404925,-0.686088,-2.79379,0
58390,-0.398418,-0.686276,-2.8008,0
58410,-0.392753,-0.686067,-2.80678,0
58430,-0.38856,-0.684986,-2.81179,0
58450,-0.384163,-0.683521,-2.81655,0
58470,-0.3799,-0.6826,-2.82087,0
58490,-0.374873,-0.682141,-2.82584,0
58510,-0.37007,-0.680872,-2.83011,0
58530,-0.366262,-0.679261,-2.83365,0
58550,-0.363331,-0.67807,-2.83689,0
58570,-0.360559,-0.676698,-2.83996,0
58580,-0.358615,-0.675583,-2.84346,0
58600,-0.355776,-0.673892,-2.84726,0
58620,-0.353095,-0.672245,-2.84931,0
58640,-0.351681,-0.671328,-2.85079,0
58660,-0.350645,-0.670319,-2.85344,0
58700,-0.347735,-0.668256,-2.85841,0
58720,-0.347386,-0.667412,-2.85918,0
58740,-0.346971,-0.665869,-2.8613,0
58760,-0.345999,-0.663777,-2.86316,0
58780,-0.344066,-0.66252,-2.86456,0
58800,-0.342438,-0.661561,-2.86559,0
58820,-0.340562,-0.660328,-2.86722,0
58840,-0.338295,-0.659229,-2.86857,0
58860,-0.335119,-0.658629,-2.87047,0
58880,-0.331496,-0.658465,-2.87348,0
58900,-0.328862,-0.657752,-2.87649,0
58920,-0.325934,-0.656725,-2.87966,0
58940,-0.322738,-0.656421,-2.88262,0
58960,-0.320327,-0.656405,-2.88534,0
58980,-0.318191,-0.655819,-2.88837,0
59000,-0.316368,-0.655182,-2.89063,0
59020,-0.315238,-0.655125,-2.8916,0
59040,-0.314091,-0.654483,-2.89258,0
59060,-0.31419,-0.653139,-2.89349,0
59080,-0.315262,-0.651532,-2.89406,0
59100,-0.315207,-0.649788,-2.89484,0
59120,-0.315611,-0.647456,-2.89438,0
59140,-0.315412,-0.644914,-2.89404,0
59160,-0.314448,-0.642452,-2.89372,0
59180,-0.312917,-0.639954,-2.89419,0
59200,-0.311714,-0.63717,-2.8944,0
59220,-0.312016,-0.634472,-2.89405,0
59240,-0.312079,-0.632348,-2.89393,0
59260,-0.311699,-0.630747,-2.89348,0
59280,-0.310206,-0.629608,-2.89419,0
59300,-0.308038,-0.629063,-2.89575,0
59320,-0.306707,-0.628888,-2.89688,0
59340,-0.305644,-0.628605,-2.89749,0
59360,-0.304528,-0.628293,-2.89838,0
59380,-0.303693,-0.62795,-2.8995,0
59400,-0.302811,-0.627251,-2.90096,0
59420,-0.301834,-0.626351,-2.90183,0
59440,-0.301811,-0.626258,-2.9019,0
59460,-0.301901,-0.625115,-2.90223,0
59480,-0.302129,-0.623757,-2.90234,0
59500,-0.302319,-0.622426,-2.90228,0
59510,-0.303389,-0.620916,-2.90223,0
59530,-0.304535,-0.619328,-2.90186,0
59550,-0.305397,-0.61777,-2.90125,0
59570,-0.305926,-0.616249,-2.90086,0
59590,-0.306681,-0.614308,-2.90068,0
59610,-0.307578,-0.612524,-2.90026,0
59630,-0.309416,-0.610648,-2.89917,0
59650,-0.311368,-0.609021,-2.89873,0
59670,-0.31296,-0.60751,-2.89788,0
59670,-0.313824,-0.605832,-2.89786,0
59690,-0.314015,-0.604339,-2.8985,0
59710,-0.314671,-0.602598,-2.89873,0
59730,-0.31495,-0.600721,-2.8985,0
59750,-0.314733,-0.599164,-2.89839,0
59770,-0.313609,-0.597631,-2.89906,0
59790,-0.313954,-0.595976,-2.89956,0
59810,-0.315174,-0.594004,-2.89916,0
59830,-0.317012,-0.592238,-2.89772,0
59850,-0.318078,-0.591007,-2.89695,0
59870,-0.31851,-0.589741,-2.89654,0
59890,-0.320105,-0.588331,-2.89565,0
59910,-0.322158,-0.587392,-2.89445,0
59930,-0.324533,-0.586775,-2.89314,0
59950,-0.327007,-0.586164,-2.89194,0
59970,-0.329059,-0.585067,-2.89062,0
59990,-0.330824,-0.583989,-2.88938,0
60010,-0.332216,-0.582916,-2.88923,0
60030,-0.334191,-0.581845,-2.889,0
60050,-0.336701,-0.580284,-2.88874,0
60070,-0.338763,-0.578301,-2.88887,0
60090,-0.340297,-0.576344,-2.8887,0
60110,-0.341315,-0.575489,-2.8887,0
60130,-0.341205,-0.573791,-2.88972,0
60150,-0.34173,-0.571614,-2.89049,0
60170,-0.342518,-0.569529,-2.89096,0
60190,-0.343522,-0.568117,-2.8907,0
60210,-0.34473,-0.566411,-2.89041,0
60230,-0.346123,-0.564164,-2.89007,0
60250,-0.348325,-0.561411,-2.88933,0
60270,-0.349375,-0.558648,-2.88892,0
60290,-0.349991,-0.556425,-2.88821,0
60310,-0.350592,-0.55396,-2.88777,0
60330,-0.35073,-0.550744,-2.88837,0
60350,-0.351247,-0.547205,-2.88847,0
60370,-0.351753,-0.544074,-2.88793,0
60390,-0.351831,-0.541949,-2.88771,0
60410,-0.351759,-0.540209,-2.88825,0
60430,-0.351865,-0.538287,-2.8885,0
60450,-0.35189,-0.53676,-2.88881,0
60470,-0.352055,-0.535222,-2.88909,0
60490,-0.353486,-0.533888,-2.88871,0
60510,-0.355083,-0.532284,-2.88844,0
60530,-0.355899,-0.53017,-2.88876,0
60550,-0.356929,-0.528315,-2.88901,0
60570,-0.358792,-0.527048,-2.88848,0
60590,-0.360766,-0.525284,-2.88816,0
60610,-0.361889,-0.522897,-2.88858,0
60630,-0.362659,-0.521164,-2.88882,0
60650,-0.363448,-0.519471,-2.88913,0
60670,-0.364642,-0.517274,-2.88989,0
60690,-0.365324,-0.515337,-2.89037,0
60710,-0.366412,-0.513499,-2.88995,0
60730,-0.36658,-0.51167,-2.89003,0
60750,-0.366922,-0.50981,-2.88995,0
60770,-0.36761,-0.507961,-2.89006,0
60790,-0.36927,-0.506558,-2.89018,0
60810,-0.370737,-0.50515,-2.8904,0
60830,-0.371691,-0.50393,-2.89132,0
60850,-0.372315,-0.502424,-2.89277,0
60870,-0.373424,-0.500688,-2.89465,0
60890,-0.373395,-0.49899,-2.89551,0
60910,-0.373434,-0.497331,-2.89573,0
60930,-0.373771,-0.495378,-2.8966,0
60950,-0.374726,-0.492961,-2.89729,0
60970,-0.375738,-0.490695,-2.89826,0
60990,-0.376782,-0.488489,-2.89873,0
61010,-0.377617,-0.486111,-2.89888,0
61030,-0.377711,-0.483786,-2.89898,0
61050,-0.376667,-0.481922,-2.8998,0
61070,-0.376071,-0.480008,-2.90042,0
61090,-0.376952,-0.477789,-2.9,0
61110,-0.377757,-0.475768,-2.89908,0
61130,-0.378676,-0.474084,-2.89793,0
61150,-0.379855,-0.472802,-2.89699,0
61170,-0.381076,-0.471823,-2.89559,0
61190,-0.382194,-0.470983,-2.89419,0
61210,-0.382378,-0.470553,-2.89322,0
61230,-0.382768,-0.470091,-2.89142,0
61250,-0.384484,-0.469685,-2.88901,0
61270,-0.386053,-0.469115,-2.88708,0
61290,-0.388117,-0.468487,-2.88513,0
61310,-0.38968,-0.467761,-2.88309,0
61330,-0.390644,-0.466278,-2.88089,0
61350,-0.392184,-0.464942,-2.87844,0
61370,-0.393562,-0.464169,-2.87608,0
61390,-0.394565,-0.463557,-2.87377,0
61410,-0.395224,-0.462646,-2.87169,0
61430,-0.396484,-0.461135,-2.86877,0
61450,-0.397837,-0.459902,-2.86612,0
61470,-0.399434,-0.458914,-2.86272,0
61490,-0.400943,-0.457719,-2.85956,0
61510,-0.402553,-0.456305,-2.85677,0
61530,-0.404018,-0.455171,-2.85416,0
61550,-0.405545,-0.454349,-2.85169,0
61570,-0.408054,-0.453895,-2.84907,0
61590,-0.409399,-0.453848,-2.84732,0
61610,-0.409709,-0.454046,-2.84633,0
61630,-0.408892,-0.453303,-2.8454,0
61650,-0.410011,-0.452934,-2.84324,0
61670,-0.411739,-0.452886,-2.84101,0
61690,-0.413441,-0.452093,-2.83889,0
61710,-0.415863,-0.450852,-2.83701,0
61730,-0.418154,-0.449278,-2.83539,0
61750,-0.420416,-0.447744,-2.83334,0
61770,-0.422949,-0.44591,-2.83113,0
61790,-0.425231,-0.443854,-2.8291,0
61810,-0.425766,-0.442217,-2.82767,0
61830,-0.426451,-0.44096,-2.82549,0
61850,-0.428059,-0.440119,-2.82318,0
61870,-0.429779,-0.439499,-2.82092,0
61890,-0.43039,-0.439177,-2.81881,0
61910,-0.430563,-0.438445,-2.81644,0
61930,-0.432055,-0.437932,-2.8138,0
61950,-0.433893,-0.43803,-2.81125,0
61970,-0.434974,-0.437081,-2.80824,0
61990,-0.436277,-0.435497,-2.80482,0
62010,-0.438191,-0.434475,-2.80201,0
62030,-0.440056,-0.433396,-2.79885,0
62050,-0.442514,-0.432337,-2.79488,0
62070,-0.444754,-0.431242,-2.79125,0
62090,-0.447279,-0.430189,-2.78807,0
62100,-0.449244,-0.429117,-2.78449,0
62120,-0.451225,-0.428208,-2.78046,0
62140,-0.453953,-0.427375,-2.77605,0
62160,-0.456759,-0.426759,-2.77272,0
62180,-0.459454,-0.425851,-2.76936,0
62200,-0.460967,-0.425287,-2.76611,0
62220,-0.461415,-0.424688,-2.76275,0
62240,-0.462048,-0.424452,-2.76002,0
62260,-0.462363,-0.424905,-2.75779,0
62280,-0.46282,-0.424957,-2.75505,0
62300,-0.464151,-0.425238,-2.75213,0
62320,-0.465892,-0.425859,-2.74911,0
62340,-0.467095,-0.42564,-2.74625,0
62360,-0.46824,-0.424952,-2.74366,0
62380,-0.46986,-0.424426,-2.74091,0
62400,-0.471261,-0.423943,-2.73815,0
62420,-0.472059,-0.423259,-2.73537,0
62440,-0.47301,-0.422706,-2.73267,0
62460,-0.474057,-0.423107,-2.72954,0
62480,-0.474995,-0.423178,-2.726,0
62500,-0.47622,-0.422343,-2.72208,0
62520,-0.478013,-0.421772,-2.71867,0
62540,-0.4785,-0.421143,-2.71523,0
62560,-0.478785,-0.420449,-2.7114,0
62580,-0.480158,-0.419667,-2.70793,0
62600,-0.481804,-0.418901,-2.70426,0
62620,-0.482907,-0.417968,-2.70117,0
62640,-0.483691,-0.417579,-2.69728,0
62660,-0.485622,-0.418211,-2.69355,0
62680,-0.487166,-0.418178,-2.69013,0
62700,-0.488732,-0.417429,-2.68646,0
62720,-0.490086,-0.416236,-2.68309,0
62740,-0.49049,-0.416115,-2.67954,0
62760,-0.491401,-0.41641,-2.67592,0
62780,-0.493117,-0.416434,-2.67239,0
62800,-0.495059,-0.416667,-2.66938,0
62820,-0.496421,-0.417476,-2.66611,0
62840,-0.497638,-0.418176,-2.66341,0
62860,-0.49859,-0.418673,-2.66087,0
62880,-0.499796,-0.419584,-2.65792,0
62900,-0.501055,-0.420483,-2.65431,0
62920,-0.502142,-0.420683,-2.65049,0
62940,-0.503589,-0.420645,-2.64711,0
62960,-0.504628,-0.421027,-2.64414,0
62980,-0.50608,-0.420985,-2.64077,0
63000,-0.507125,-0.419939,-2.63734,0
63020,-0.50757,-0.419505,-2.63376,0
63040,-0.508494,-0.419848,-2.62983,0
63060,-0.509483,-0.419851,-2.62628,0
63080,-0.51048,-0.41862,-2.62268,0
63100,-0.511754,-0.417699,-2.61892,0
63120,-0.511939,-0.417494,-2.61481,0
63140,-0.511796,-0.417436,-2.61048,0
63160,-0.511712,-0.417042,-2.60653,0
63180,-0.512623,-0.416815,-2.6025,0
63200,-0.514082,-0.417016,-2.59848,0
63220,-0.515588,-0.417307,-2.59358,0
63240,-0.516783,-0.417815,-2.58889,0
63260,-0.518587,-0.418757,-2.58421,0
63280,-0.520148,-0.419691,-2.57932,0
63300,-0.522359,-0.420231,-2.57457,0
63320,-0.524428,-0.420544,-2.56996,0
63340,-0.526252,-0.421221,-2.56544,0
63360,-0.527135,-0.421431,-2.5603,0
63380,-0.527954,-0.421538,-2.55583,0
63400,-0.530027,-0.421587,-2.55138,0
63420,-0.533386,-0.421529,-2.54721,0
63440,-0.535795,-0.421138,-2.54304,0
63450,-0.537118,-0.420103,-2.53852,0
63470,-0.538136,-0.419849,-2.53337,0
63490,-0.53998,-0.420523,-2.52898,0
63510,-0.541713,-0.420122,-2.52476,0
63530,-0.543543,-0.419366,-2.52029,0
63550,-0.545034,-0.418712,-2.51585,0
63570,-0.546674,-0.419004,-2.51081,0
63590,-0.548259,-0.419068,-2.50602,0
63610,-0.549842,-0.419088,-2.50167,0
63630,-0.551805,-0.419418,-2.49734,0
63650,-0.55484,-0.419426,-2.49298,0
63670,-0.557193,-0.418923,-2.48857,0
63690,-0.559018,-0.418609,-2.48439,0
63710,-0.56056,-0.41866,-2.48025,0
63730,-0.562657,-0.418896,-2.47583,0
63750,-0.564285,-0.419338,-2.47164,0
63770,-0.565818,-0.419682,-2.46758,0
63790,-0.566738,-0.420404,-2.46379,0
63810,-0.567308,-0.421205,-2.45991,0
63830,-0.568246,-0.421693,-2.45574,0
63850,-0.570248,-0.42218,-2.45172,0
63870,-0.572031,-0.422708,-2.4476,0
63890,-0.573584,-0.423451,-2.44284,0
63910,-0.575351,-0.423998,-2.43882,0
63930,-0.577586,-0.424042,-2.43516,0
63950,-0.57916,-0.423743,-2.43155,0
63970,-0.580285,-0.424114,-2.42775,0
63990,-0.581153,-0.424797,-2.42377,0
64010,-0.582516,-0.424949,-2.42006,0
64030,-0.583413,-0.425387,-2.41751,0
64050,-0.583831,-0.425947,-2.41486,0
64070,-0.58502,-0.426764,-2.41134,0
64090,-0.586484,-0.427373,-2.4078,0
64110,-0.587614,-0.427354,-2.40426,0
64130,-0.588937,-0.427784,-2.40113,0
64150,-0.589867,-0.427914,-2.39855,0
64170,-0.591049,-0.428036,-2.3951,0
64190,-0.592149,-0.428341,-2.39171,0
64210,-0.59309,-0.42847,-2.38858,0
64230,-0.594626,-0.428802,-2.38529,0
64250,-0.595877,-0.429234,-2.38207,0
64270,-0.59745,-0.429363,-2.37867,0
64290,-0.598859,-0.429793,-2.3756,0
64310,-0.599652,-0.430589,-2.37209,0
64330,-0.60085,-0.43161,-2.36878,0
64350,-0.602675,-0.432084,-2.36602,0
64370,-0.603826,-0.431936,-2.36328,0
64390,-0.604702,-0.432135,-2.35975,0
64410,-0.605422,-0.432398,-2.3563,0
64430,-0.605999,-0.432463,-2.35359,0
64450,-0.606806,-0.432165,-2.35106,0
64470,-0.608704,-0.432101,-2.34795,0
64490,-0.609936,-0.432025,-2.34451,0
64510,-0.610486,-0.431945,-2.34119,0
64530,-0.610601,-0.432146,-2.33837,0
64550,-0.610919,-0.432487,-2.33589,0
64570,-0.611838,-0.432716,-2.33321,0
64590,-0.613179,-0.432925,-2.32991,0
64610,-0.613622,-0.433427,-2.327,0
64630,-0.613518,-0.434189,-2.32437,0
64650,-0.613999,-0.435267,-2.32212,0
64670,-0.614331,-0.43655,-2.31929,0
64690,-0.615256,-0.437784,-2.31647,0
64700,-0.616554,-0.438714,-2.31364,0
64720,-0.61785,-0.440013,-2.31108,0
64740,-0.618446,-0.441043,-2.30812,0
64760,-0.618831,-0.441692,-2.30513,0
64780,-0.619745,-0.442409,-2.302,0
64800,-0.620883,-0.443504,-2.29889,0
64820,-0.621344,-0.444603,-2.29601,0
64840,-0.621729,-0.44579,-2.29271,0
64860,-0.622594,-0.44726,-2.28955,0
64880,-0.623444,-0.449071,-2.28641,0
64900,-0.623762,-0.450641,-2.28338,0
64920,-0.62423,-0.452349,-2.28041,0
64940,-0.625485,-0.454017,-2.2774,0
64960,-0.626572,-0.45596,-2.27457,0
64980,-0.627087,-0.457464,-2.27148,0
65000,-0.627059,-0.459143,-2.26819,0
65020,-0.627308,-0.460903,-2.26506,0
65040,-0.62815,-0.462866,-2.26183,0
65060,-0.629519,-0.464815,-2.25877,0
65080,-0.630739,-0.466834,-2.25578,0
65100,-0.631174,-0.469358,-2.25294,0
65120,-0.631461,-0.471457,-2.24992,0
65140,-0.631862,-0.473179,-2.24736,0
65160,-0.632821,-0.475009,-2.24439,0
65180,-0.633912,-0.47743,-2.24085,0
65200,-0.63463,-0.479939,-2.23754,0
65220,-0.635798,-0.482339,-2.23465,0
65240,-0.637652,-0.484531,-2.23147,0
65260,-0.638911,-0.48674,-2.2278,0
65280,-0.639882,-0.4889,-2.22407,0
65300,-0.641154,-0.491063,-2.22096,0
65320,-0.641802,-0.493414,-2.21807,0
65340,-0.642978,-0.495149,-2.21422,0
65360,-0.645026,-0.49712,-2.2102,0
65380,-0.64706,-0.499018,-2.2065,0
65400,-0.647993,-0.500751,-2.20274,0
65420,-0.648699,-0.502487,-2.19922,0
65440,-0.649954,-0.504029,-2.19589,0
65460,-0.651752,-0.50547,-2.19249,0
65480,-0.653481,-0.506361,-2.18855,0
65500,-0.654322,-0.507406,-2.18491,0
65520,-0.655468,-0.508276,-2.18191,0
65540,-0.656683,-0.509192,-2.17923,0
65560,-0.657433,-0.51002,-2.17657,0
65580,-0.657982,-0.511592,-2.17403,0
65600,-0.658151,-0.512957,-2.17185,0
65620,-0.658307,-0.513846,-2.16966,0
65640,-0.659429,-0.514877,-2.16805,0
65660,-0.659572,-0.516002,-2.16692,0
65680,-0.660066,-0.517098,-2.16493,0
65700,-0.659869,-0.518282,-2.16333,0
65720,-0.659777,-0.519509,-2.16219,0
65740,-0.660056,-0.520682,-2.16082,0
65760,-0.659851,-0.522057,-2.15941,0
65780,-0.659707,-0.523461,-2.1581,0
65800,-0.660382,-0.524649,-2.15688,0
65820,-0.66153,-0.525601,-2.15573,0
65840,-0.661851,-0.527019,-2.15401,0
65860,-0.661471,-0.528651,-2.15179,0
65880,-0.661356,-0.530491,-2.15033,0
65900,-0.66286,-0.531582,-2.14829,0
65920,-0.665761,-0.532041,-2.1454,0
65940,-0.667303,-0.532798,-2.14256,0
65960,-0.667115,-0.533777,-2.14068,0
65980,-0.667151,-0.534491,-2.1387,0
66000,-0.668116,-0.535194,-2.13652,0
66020,-0.668843,-0.536,-2.13433,0
66040,-0.669293,-0.537155,-2.13233,0
66060,-0.66856,-0.538615,-2.1307,0
66080,-0.667956,-0.540867,-2.12924,0
66100,-0.669198,-0.542881,-2.1277,0
66120,-0.670097,-0.544881,-2.12615,0
66140,-0.670306,-0.546489,-2.12409,0
66160,-0.67057,-0.548455,-2.12164,0
66180,-0.671535,-0.550196,-2.11967,0
66200,-0.673053,-0.551403,-2.11727,0
66220,-0.674277,-0.55256,-2.11461,0
66240,-0.675347,-0.553551,-2.11165,0
66260,-0.677082,-0.554591,-2.10877,0
66280,-0.679392,-0.555254,-2.10558,0
66300,-0.681125,-0.555995,-2.10216,0
66320,-0.682213,-0.557154,-2.09919,0
66340,-0.683576,-0.558128,-2.09599,0
66360,-0.684698,-0.559383,-2.09275,0
66380,-0.685626,-0.561136,-2.08976,0
66400,-0.687191,-0.563303,-2.08719,0
66420,-0.688803,-0.564763,-2.0845,0
66440,-0.690127,-0.56642,-2.08191,0
66460,-0.689717,-0.568485,-2.0796,0
66480,-0.690316,-0.570549,-2.07719,0
66500,-0.691864,-0.572815,-2.0749,0
